generation,iteration,robot,birthday,ancestor_id,ancestor_birthday,cell_id,age,sigma,maps,genomes,fitness,cells_in_map,dist_max,dist_pot_max,dist_total,com_rx,com_tx,obj_group1,obj_group2,obj_group3,obj_group4,obj_group5
0,9999,0,0,0,0,49,9999,0.100000,0,0,0.000000,0,9.000000,0.000000,10.200459,0,0,0,0,0,0,0
0,9999,1,0,1,0,49,9999,0.100000,0,0,0.000000,0,1.000000,0.000000,6.001848,0,0,0,0,0,0,0
0,9999,2,0,2,0,49,9999,0.100000,0,0,0.000000,0,8.000000,0.000000,11.155238,0,0,0,0,0,0,0
0,9999,3,0,3,0,49,9999,0.100000,0,0,0.000000,0,9.000000,0.000000,11.120941,0,0,0,0,0,0,0
0,9999,4,0,4,0,49,9999,0.100000,0,0,0.000000,0,6.000000,0.000000,15.676045,0,0,0,0,0,0,0
0,9999,5,0,5,0,49,9999,0.100000,0,0,0.000000,0,10.000000,0.000000,19.140806,0,0,0,0,0,0,0
0,9999,6,0,6,0,49,9999,0.100000,0,0,0.000000,0,7.000000,0.000000,9.179062,0,0,0,0,0,0,0
0,9999,7,0,7,0,49,9999,0.100000,0,0,0.000000,0,8.000000,0.000000,21.632441,0,0,0,0,0,0,0
0,9999,8,0,8,0,49,9999,0.100000,0,0,0.000000,0,2.000000,0.000000,4.532089,0,0,0,0,0,0,0
0,9999,9,0,9,0,49,9999,0.100000,0,0,0.000000,0,11.000000,0.000000,14.383936,0,0,0,0,0,0,0
0,9999,10,0,10,0,49,9999,0.100000,0,0,0.000000,0,9.000000,0.000000,16.022253,0,0,0,0,0,0,0
0,9999,11,0,11,0,49,9999,0.100000,0,0,0.000000,0,2.000000,0.000000,9.395918,0,0,0,0,0,0,0
0,9999,12,0,12,0,49,9999,0.100000,0,0,0.000000,0,8.000000,0.000000,17.645189,0,0,0,0,0,0,0
0,9999,13,0,13,0,49,9999,0.100000,0,0,0.000000,0,10.000000,0.000000,10.511745,0,0,0,0,0,0,0
0,9999,14,0,14,0,49,9999,0.100000,0,0,0.000000,0,10.000000,0.000000,14.290496,0,0,0,0,0,0,0
0,9999,15,0,15,0,49,9999,0.100000,0,0,0.000000,0,9.000000,0.000000,14.291445,0,0,0,0,0,0,0
0,9999,16,0,16,0,49,9999,0.100000,0,0,0.000000,0,8.000000,0.000000,18.340760,0,0,0,0,0,0,0
0,9999,17,0,17,0,49,9999,0.100000,0,0,0.000000,0,2.000000,0.000000,18.538159,0,0,0,0,0,0,0
0,9999,18,0,18,0,49,9999,0.100000,0,0,0.000000,0,6.000000,0.000000,13.704188,0,0,0,0,0,0,0
0,9999,19,0,19,0,49,9999,0.100000,0,0,0.000000,0,9.000000,0.000000,19.449591,0,0,0,0,0,0,0
0,9999,20,0,20,0,49,9999,0.100000,0,0,0.000000,0,10.000000,0.000000,16.794064,0,0,0,0,0,0,0
0,9999,21,0,21,0,49,9999,0.100000,0,0,0.000000,0,4.000000,0.000000,10.186013,0,0,0,0,0,0,0
0,9999,22,0,22,0,49,9999,0.100000,0,0,0.000000,0,11.000000,0.000000,12.161906,0,0,0,0,0,0,0
0,9999,23,0,23,0,49,9999,0.100000,0,0,0.000000,0,6.000000,0.000000,9.641690,0,0,0,0,0,0,0
0,9999,24,0,24,0,49,9999,0.100000,0,0,0.000000,0,8.000000,0.000000,13.777850,0,0,0,0,0,0,0
0,9999,25,0,25,0,49,9999,0.100000,0,0,0.000000,0,9.000000,0.000000,19.446881,0,0,0,0,0,0,0
0,9999,26,0,26,0,49,9999,0.100000,0,0,0.000000,0,7.000000,0.000000,10.220200,0,0,0,0,0,0,0
0,9999,27,0,27,0,49,9999,0.100000,0,0,0.000000,0,8.000000,0.000000,11.342981,0,0,0,0,0,0,0
0,9999,28,0,28,0,49,9999,0.100000,0,0,0.000000,0,9.000000,0.000000,23.493789,0,0,0,0,0,0,0
0,9999,29,0,29,0,49,9999,0.100000,0,0,0.000000,0,7.000000,0.000000,12.735721,0,0,0,0,0,0,0
0,9999,30,0,30,0,49,9999,0.100000,0,0,0.000000,0,5.000000,0.000000,7.063633,0,0,0,0,0,0,0
0,9999,31,0,31,0,49,9999,0.100000,0,0,0.000000,0,7.000000,0.000000,15.165366,0,0,0,0,0,0,0
0,9999,32,0,32,0,49,9999,0.100000,0,0,0.000000,0,13.000000,0.000000,26.516503,0,0,0,0,0,0,0
0,9999,33,0,33,0,49,9999,0.100000,0,0,0.000000,0,8.000000,0.000000,16.144637,0,0,0,0,0,0,0
0,9999,34,0,34,0,49,9999,0.100000,0,0,0.000000,0,7.000000,0.000000,17.542550,0,0,0,0,0,0,0
0,9999,35,0,35,0,49,9999,0.100000,0,0,0.000000,0,8.000000,0.000000,11.152041,0,0,0,0,0,0,0
0,9999,36,0,36,0,49,9999,0.100000,0,0,0.000000,0,6.000000,0.000000,8.917723,0,0,0,0,0,0,0
0,9999,37,0,37,0,49,9999,0.100000,0,0,0.000000,0,7.000000,0.000000,16.057043,0,0,0,0,0,0,0
0,9999,38,0,38,0,49,9999,0.100000,0,0,0.000000,0,9.000000,0.000000,13.425538,0,0,0,0,0,0,0
0,9999,39,0,39,0,49,9999,0.100000,0,0,0.000000,0,2.000000,0.000000,9.034744,0,0,0,0,0,0,0
0,9999,40,0,40,0,49,9999,0.100000,0,0,0.000000,0,10.000000,0.000000,26.519822,0,0,0,0,0,0,0
0,9999,41,0,41,0,49,9999,0.100000,0,0,0.000000,0,1.000000,0.000000,6.048835,0,0,0,0,0,0,0
0,9999,42,0,42,0,49,9999,0.100000,0,0,0.000000,0,13.000000,0.000000,27.584419,0,0,0,0,0,0,0
0,9999,43,0,43,0,49,9999,0.100000,0,0,0.000000,0,7.000000,0.000000,8.590100,0,0,0,0,0,0,0
0,9999,44,0,44,0,49,9999,0.100000,0,0,0.000000,0,12.000000,0.000000,19.797056,0,0,0,0,0,0,0
0,9999,45,0,45,0,49,9999,0.100000,0,0,0.000000,0,12.000000,0.000000,15.884797,0,0,0,0,0,0,0
0,9999,46,0,46,0,49,9999,0.100000,0,0,0.000000,0,9.000000,0.000000,17.405782,0,0,0,0,0,0,0
0,9999,47,0,47,0,49,9999,0.100000,0,0,0.000000,0,10.000000,0.000000,11.594875,0,0,0,0,0,0,0
0,9999,48,0,48,0,49,9999,0.100000,0,0,0.000000,0,7.000000,0.000000,15.620272,0,0,0,0,0,0,0
0,9999,49,0,49,0,49,9999,0.100000,0,0,0.000000,0,8.000000,0.000000,9.878680,0,0,0,0,0,0,0
0,9999,50,0,50,0,49,9999,0.100000,0,0,0.000000,0,7.000000,0.000000,11.292755,0,0,0,0,0,0,0
0,9999,51,0,51,0,49,9999,0.100000,0,0,0.000000,0,8.000000,0.000000,17.912662,0,0,0,0,0,0,0
0,9999,52,0,52,0,49,9999,0.100000,0,0,0.000000,0,11.000000,0.000000,13.953601,0,0,0,0,0,0,0
0,9999,53,0,53,0,49,9999,0.100000,0,0,0.000000,0,3.000000,0.000000,17.557246,0,0,0,0,0,0,0
0,9999,54,0,54,0,49,9999,0.100000,0,0,0.000000,0,7.000000,0.000000,10.198359,0,0,0,0,0,0,0
0,9999,55,0,55,0,49,9999,0.100000,0,0,0.000000,0,6.000000,0.000000,10.501473,0,0,0,0,0,0,0
0,9999,56,0,56,0,49,9999,0.100000,0,0,0.000000,0,8.000000,0.000000,16.118588,0,0,0,0,0,0,0
0,9999,57,0,57,0,49,9999,0.100000,0,0,0.000000,0,3.000000,0.000000,5.920475,0,0,0,0,0,0,0
0,9999,58,0,58,0,49,9999,0.100000,0,0,0.000000,0,8.000000,0.000000,29.107504,0,0,0,0,0,0,0
0,9999,59,0,59,0,49,9999,0.100000,0,0,0.000000,0,2.000000,0.000000,4.167921,0,0,0,0,0,0,0
0,9999,60,0,60,0,49,9999,0.100000,0,0,0.000000,0,9.000000,0.000000,14.163687,0,0,0,0,0,0,0
0,9999,61,0,61,0,49,9999,0.100000,0,0,0.000000,0,8.000000,0.000000,17.614993,0,0,0,0,0,0,0
0,9999,62,0,62,0,49,9999,0.100000,0,0,0.000000,0,7.000000,0.000000,14.835274,0,0,0,0,0,0,0
0,9999,63,0,63,0,49,9999,0.100000,0,0,0.000000,0,8.000000,0.000000,15.914139,0,0,0,0,0,0,0
0,9999,64,0,64,0,49,9999,0.100000,0,0,0.000000,0,7.000000,0.000000,15.336396,0,0,0,0,0,0,0
0,9999,65,0,65,0,49,9999,0.100000,0,0,0.000000,0,10.000000,0.000000,11.774408,0,0,0,0,0,0,0
0,9999,66,0,66,0,49,9999,0.100000,0,0,0.000000,0,7.000000,0.000000,23.771476,0,0,0,0,0,0,0
0,9999,67,0,67,0,49,9999,0.100000,0,0,0.000000,0,6.000000,0.000000,15.027398,0,0,0,0,0,0,0
0,9999,68,0,68,0,49,9999,0.100000,0,0,0.000000,0,13.000000,0.000000,24.221548,0,0,0,0,0,0,0
0,9999,69,0,69,0,49,9999,0.100000,0,0,0.000000,0,7.000000,0.000000,9.241919,0,0,0,0,0,0,0
0,9999,70,0,70,0,49,9999,0.100000,0,0,0.000000,0,3.000000,0.000000,7.018999,0,0,0,0,0,0,0
0,9999,71,0,71,0,49,9999,0.100000,0,0,0.000000,0,8.000000,0.000000,12.133365,0,0,0,0,0,0,0
0,9999,72,0,72,0,49,9999,0.100000,0,0,0.000000,0,7.000000,0.000000,12.222591,0,0,0,0,0,0,0
0,9999,73,0,73,0,49,9999,0.100000,0,0,0.000000,0,7.000000,0.000000,7.936588,0,0,0,0,0,0,0
0,9999,74,0,74,0,49,9999,0.100000,0,0,0.000000,0,7.000000,0.000000,10.028604,0,0,0,0,0,0,0
0,9999,75,0,75,0,49,9999,0.100000,0,0,0.000000,0,2.000000,0.000000,8.588968,0,0,0,0,0,0,0
0,9999,76,0,76,0,49,9999,0.100000,0,0,0.000000,0,5.000000,0.000000,7.062893,0,0,0,0,0,0,0
0,9999,77,0,77,0,49,9999,0.100000,0,0,0.000000,0,10.000000,0.000000,14.935049,0,0,0,0,0,0,0
0,9999,78,0,78,0,49,9999,0.100000,0,0,0.000000,0,6.000000,0.000000,11.392053,0,0,0,0,0,0,0
0,9999,79,0,79,0,49,9999,0.100000,0,0,0.000000,0,5.000000,0.000000,8.767757,0,0,0,0,0,0,0
0,9999,80,0,80,0,49,9999,0.100000,0,0,0.000000,0,6.000000,0.000000,9.004295,0,0,0,0,0,0,0
0,9999,81,0,81,0,49,9999,0.100000,0,0,0.000000,0,9.000000,0.000000,15.297152,0,0,0,0,0,0,0
0,9999,82,0,82,0,49,9999,0.100000,0,0,0.000000,0,9.000000,0.000000,20.654785,0,0,0,0,0,0,0
0,9999,83,0,83,0,49,9999,0.100000,0,0,0.000000,0,8.000000,0.000000,12.229755,0,0,0,0,0,0,0
0,9999,84,0,84,0,49,9999,0.100000,0,0,0.000000,0,5.000000,0.000000,8.921927,0,0,0,0,0,0,0
0,9999,85,0,85,0,49,9999,0.100000,0,0,0.000000,0,6.000000,0.000000,12.321150,0,0,0,0,0,0,0
0,9999,86,0,86,0,49,9999,0.100000,0,0,0.000000,0,7.000000,0.000000,8.053019,0,0,0,0,0,0,0
0,9999,87,0,87,0,49,9999,0.100000,0,0,0.000000,0,11.000000,0.000000,17.479704,0,0,0,0,0,0,0
0,9999,88,0,88,0,49,9999,0.100000,0,0,0.000000,0,7.000000,0.000000,7.773557,0,0,0,0,0,0,0
0,9999,89,0,89,0,49,9999,0.100000,0,0,0.000000,0,2.000000,0.000000,10.103363,0,0,0,0,0,0,0
0,9999,90,0,90,0,49,9999,0.100000,0,0,0.000000,0,6.000000,0.000000,8.076251,0,0,0,0,0,0,0
0,9999,91,0,91,0,49,9999,0.100000,0,0,0.000000,0,6.000000,0.000000,11.186315,0,0,0,0,0,0,0
0,9999,92,0,92,0,49,9999,0.100000,0,0,0.000000,0,11.000000,0.000000,16.136850,0,0,0,0,0,0,0
0,9999,93,0,93,0,49,9999,0.100000,0,0,0.000000,0,7.000000,0.000000,25.133636,0,0,0,0,0,0,0
0,9999,94,0,94,0,49,9999,0.100000,0,0,0.000000,0,10.000000,0.000000,10.794402,0,0,0,0,0,0,0
0,9999,95,0,95,0,49,9999,0.100000,0,0,0.000000,0,9.000000,0.000000,20.095466,0,0,0,0,0,0,0
0,9999,96,0,96,0,49,9999,0.100000,0,0,0.000000,0,9.000000,0.000000,14.056032,0,0,0,0,0,0,0
0,9999,97,0,97,0,49,9999,0.100000,0,0,0.000000,0,9.000000,0.000000,10.716891,0,0,0,0,0,0,0
0,9999,98,0,98,0,49,9999,0.100000,0,0,0.000000,0,6.000000,0.000000,14.303381,0,0,0,0,0,0,0
0,9999,99,0,99,0,49,9999,0.100000,0,0,0.000000,0,7.000000,0.000000,8.308143,0,0,0,0,0,0,0
1,19999,0,10000,2,0,40,9999,0.100000,0,0,0.000000,3,0.000000,0.000000,0.612870,0,0,0,0,0,0,0
1,19999,1,0,1,0,40,19999,0.100000,0,0,0.000000,3,0.000000,0.000000,0.161153,0,0,0,0,0,0,0
1,19999,2,10000,2,0,40,9999,0.100000,0,0,0.000000,1,0.000000,0.000000,1.296773,0,0,0,0,0,0,0
1,19999,3,10000,13,0,49,9999,0.100000,0,0,0.000000,3,2.000000,0.000000,13.882554,0,0,0,0,0,0,0
1,19999,4,10000,33,0,49,9999,0.100000,0,0,0.000000,3,3.000000,0.000000,6.194714,0,0,0,0,0,0,0
1,19999,5,10000,48,0,99,9999,0.100000,0,0,34.210526,3,17.000000,0.000000,21.362545,0,0,1,0,0,0,0
1,19999,6,10000,2,0,40,9999,0.100000,0,0,0.000000,3,0.000000,0.000000,0.117512,0,0,0,0,0,0,0
1,19999,7,10000,2,0,40,9999,0.100000,0,0,0.000000,3,0.000000,0.000000,2.490830,0,0,0,0,0,0,0
1,19999,8,10000,33,0,49,9999,0.100000,0,0,0.000000,3,3.000000,0.000000,11.228527,0,0,0,0,0,0,0
1,19999,9,0,9,0,49,19999,0.100000,0,0,0.000000,3,2.000000,0.000000,6.951197,0,0,0,0,0,0,0
1,19999,10,10000,33,0,40,9999,0.100000,0,0,0.000000,3,0.000000,0.000000,1.550789,0,0,0,0,0,0,0
1,19999,11,10000,2,0,49,9999,0.100000,0,0,0.000000,3,4.000000,0.000000,5.658585,0,0,0,0,0,0,0
1,19999,12,10000,2,0,49,9999,0.100000,0,0,0.000000,3,3.000000,0.000000,7.503906,0,0,0,0,0,0,0
1,19999,13,10000,2,0,40,9999,0.100000,0,0,0.000000,2,0.000000,0.000000,0.065091,0,0,0,0,0,0,0
1,19999,14,10000,52,0,49,9999,0.100000,0,0,0.000000,3,3.000000,0.000000,9.416816,0,0,0,0,0,0,0
1,19999,15,10000,52,0,40,9999,0.100000,0,0,0.000000,3,0.000000,0.000000,4.657511,0,0,0,0,0,0,0
1,19999,16,10000,52,0,40,9999,0.100000,0,0,0.000000,3,0.000000,0.000000,0.141294,0,0,0,0,0,0,0
1,19999,17,10000,52,0,40,9999,0.100000,0,0,0.000000,3,0.000000,0.000000,5.980497,0,0,0,0,0,0,0
1,19999,18,10000,52,0,49,9999,0.100000,0,0,0.000000,3,2.000000,0.000000,4.152296,0,0,0,0,0,0,0
1,19999,19,0,19,0,40,19999,0.100000,0,0,0.000000,2,0.000000,0.000000,5.855438,0,0,0,0,0,0,0
1,19999,20,10000,48,0,40,9999,0.100000,0,0,0.000000,3,0.000000,0.000000,4.321762,0,0,0,0,0,0,0
1,19999,21,10000,2,0,49,9999,0.100000,0,0,0.000000,2,4.000000,0.000000,12.204665,0,0,0,0,0,0,0
1,19999,22,10000,52,0,40,9999,0.100000,0,0,0.000000,3,0.000000,0.000000,0.125235,0,0,0,0,0,0,0
1,19999,23,10000,33,0,40,9999,0.100000,0,0,0.000000,3,0.000000,0.000000,0.261362,0,0,0,0,0,0,0
1,19999,24,10000,52,0,40,9999,0.100000,0,0,0.000000,3,0.000000,0.000000,1.463894,0,0,0,0,0,0,0
1,19999,25,10000,33,0,40,9999,0.100000,0,0,0.000000,3,0.000000,0.000000,0.164423,0,0,0,0,0,0,0
1,19999,26,10000,2,0,40,9999,0.100000,0,0,0.000000,2,0.000000,0.000000,1.631115,0,0,0,0,0,0,0
1,19999,27,0,27,0,40,19999,0.100000,0,0,0.000000,2,0.000000,0.000000,0.142233,0,0,0,0,0,0,0
1,19999,28,10000,35,0,40,9999,0.100000,0,0,0.000000,2,0.000000,0.000000,1.243816,0,0,0,0,0,0,0
1,19999,29,10000,52,0,49,9999,0.100000,0,0,0.000000,3,3.000000,0.000000,7.685863,0,0,0,0,0,0,0
1,19999,30,10000,2,0,40,9999,0.100000,0,0,0.000000,2,0.000000,0.000000,0.197151,0,0,0,0,0,0,0
1,19999,31,10000,13,0,40,9999,0.100000,0,0,0.000000,2,0.000000,0.000000,1.328387,0,0,0,0,0,0,0
1,19999,32,10000,33,0,49,9999,0.100000,0,0,0.000000,3,5.000000,0.000000,6.174773,0,0,0,0,0,0,0
1,19999,33,10000,33,0,99,9999,0.100000,0,0,34.210526,3,9.000000,0.000000,13.105824,0,0,1,0,0,0,0
1,19999,34,10000,33,0,99,9999,0.100000,0,0,34.210526,3,7.000000,0.000000,16.268721,0,0,1,0,0,0,0
1,19999,35,10000,35,0,40,9999,0.100000,0,0,0.000000,2,0.000000,0.000000,0.958702,0,0,0,0,0,0,0
1,19999,36,10000,2,0,40,9999,0.100000,0,0,0.000000,2,0.000000,0.000000,0.182090,0,0,0,0,0,0,0
1,19999,37,10000,13,0,40,9999,0.100000,0,0,0.000000,3,0.000000,0.000000,5.945958,0,0,0,0,0,0,0
1,19999,38,10000,33,0,49,9999,0.100000,0,0,0.000000,3,5.000000,0.000000,12.375052,0,0,0,0,0,0,0
1,19999,39,10000,33,0,40,9999,0.100000,0,0,0.000000,3,0.000000,0.000000,0.104389,0,0,0,0,0,0,0
1,19999,40,10000,2,0,49,9999,0.100000,0,0,0.000000,2,1.000000,0.000000,2.762289,0,0,0,0,0,0,0
1,19999,41,10000,35,0,49,9999,0.100000,0,0,0.000000,2,1.000000,0.000000,5.431686,0,0,0,0,0,0,0
1,19999,42,10000,52,0,49,9999,0.100000,0,0,0.000000,3,2.000000,0.000000,9.563591,0,0,0,0,0,0,0
1,19999,43,10000,33,0,40,9999,0.100000,0,0,0.000000,3,0.000000,0.000000,0.842025,0,0,0,0,0,0,0
1,19999,44,0,44,0,49,19999,0.100000,0,0,0.000000,3,7.000000,0.000000,26.903371,0,0,0,0,0,0,0
1,19999,45,10000,2,0,40,9999,0.100000,0,0,0.000000,3,0.000000,0.000000,0.076601,0,0,0,0,0,0,0
1,19999,46,10000,13,0,49,9999,0.100000,0,0,0.000000,3,1.000000,0.000000,17.374319,0,0,0,0,0,0,0
1,19999,47,10000,52,0,40,9999,0.100000,0,0,0.000000,3,0.000000,0.000000,0.978393,0,0,0,0,0,0,0
1,19999,48,10000,2,0,99,9999,0.100000,0,0,34.210526,3,7.000000,0.000000,9.714942,0,0,1,0,0,0,0
1,19999,49,10000,35,0,49,9999,0.100000,0,0,0.000000,2,1.000000,0.000000,4.666643,0,0,0,0,0,0,0
1,19999,50,10000,2,0,40,9999,0.100000,0,0,0.000000,2,0.000000,0.000000,1.246588,0,0,0,0,0,0,0
1,19999,51,10000,48,0,40,9999,0.100000,0,0,0.000000,3,0.000000,0.000000,0.209228,0,0,0,0,0,0,0
1,19999,52,10000,33,0,40,9999,0.100000,0,0,0.000000,3,0.000000,0.000000,0.164035,0,0,0,0,0,0,0
1,19999,53,10000,2,0,49,9999,0.100000,0,0,0.000000,3,1.000000,0.000000,2.525215,0,0,0,0,0,0,0
1,19999,54,10000,2,0,40,9999,0.100000,0,0,0.000000,3,0.000000,0.000000,0.898452,0,0,0,0,0,0,0
1,19999,55,10000,48,0,40,9999,0.100000,0,0,0.000000,3,0.000000,0.000000,1.797115,0,0,0,0,0,0,0
1,19999,56,10000,2,0,40,9999,0.100000,0,0,0.000000,2,0.000000,0.000000,1.733918,0,0,0,0,0,0,0
1,19999,57,10000,2,0,40,9999,0.100000,0,0,0.000000,3,0.000000,0.000000,0.113379,0,0,0,0,0,0,0
1,19999,58,10000,36,0,49,9999,0.100000,0,0,0.000000,2,1.000000,0.000000,3.842141,0,0,0,0,0,0,0
1,19999,59,10000,2,0,40,9999,0.100000,0,0,0.000000,2,0.000000,0.000000,0.874309,0,0,0,0,0,0,0
1,19999,60,10000,13,0,40,9999,0.100000,0,0,0.000000,2,0.000000,0.000000,1.051984,0,0,0,0,0,0,0
1,19999,61,0,61,0,49,19999,0.100000,0,0,0.000000,3,1.000000,0.000000,5.275627,0,0,0,0,0,0,0
1,19999,62,10000,52,0,49,9999,0.100000,0,0,0.000000,3,2.000000,0.000000,5.074045,0,0,0,0,0,0,0
1,19999,63,10000,2,0,49,9999,0.100000,0,0,0.000000,2,1.000000,0.000000,4.727315,0,0,0,0,0,0,0
1,19999,64,10000,2,0,40,9999,0.100000,0,0,0.000000,3,0.000000,0.000000,5.053263,0,0,0,0,0,0,0
1,19999,65,10000,13,0,49,9999,0.100000,0,0,0.000000,3,5.000000,0.000000,18.201956,0,0,0,0,0,0,0
1,19999,66,10000,33,0,40,9999,0.100000,0,0,0.000000,3,0.000000,0.000000,22.007279,0,0,0,0,0,0,0
1,19999,67,10000,48,0,49,9999,0.100000,0,0,0.000000,3,1.000000,0.000000,2.108449,0,0,0,0,0,0,0
1,19999,68,10000,2,0,40,9999,0.100000,0,0,0.000000,3,0.000000,0.000000,1.179330,0,0,0,0,0,0,0
1,19999,69,10000,35,0,40,9999,0.100000,0,0,0.000000,2,0.000000,0.000000,0.061828,0,0,0,0,0,0,0
1,19999,70,10000,2,0,40,9999,0.100000,0,0,0.000000,3,0.000000,0.000000,0.163710,0,0,0,0,0,0,0
1,19999,71,10000,2,0,49,9999,0.100000,0,0,0.000000,3,1.000000,0.000000,3.052735,0,0,0,0,0,0,0
1,19999,72,10000,2,0,40,9999,0.100000,0,0,0.000000,3,0.000000,0.000000,0.455362,0,0,0,0,0,0,0
1,19999,73,10000,2,0,40,9999,0.100000,0,0,0.000000,3,0.000000,0.000000,0.721871,0,0,0,0,0,0,0
1,19999,74,10000,2,0,40,9999,0.100000,0,0,0.000000,3,0.000000,0.000000,0.345664,0,0,0,0,0,0,0
1,19999,75,10000,48,0,49,9999,0.100000,0,0,0.000000,3,3.000000,0.000000,7.793149,0,0,0,0,0,0,0
1,19999,76,10000,52,0,49,9999,0.100000,0,0,0.000000,3,1.000000,0.000000,7.784722,0,0,0,0,0,0,0
1,19999,77,10000,2,0,40,9999,0.100000,0,0,0.000000,2,0.000000,0.000000,1.011259,0,0,0,0,0,0,0
1,19999,78,10000,13,0,40,9999,0.100000,0,0,0.000000,3,0.000000,0.000000,5.504689,0,0,0,0,0,0,0
1,19999,79,10000,52,0,49,9999,0.100000,0,0,0.000000,3,2.000000,0.000000,15.568888,0,0,0,0,0,0,0
1,19999,80,10000,2,0,49,9999,0.100000,0,0,0.000000,2,1.000000,0.000000,3.307057,0,0,0,0,0,0,0
1,19999,81,10000,52,0,40,9999,0.100000,0,0,0.000000,3,0.000000,0.000000,2.220413,0,0,0,0,0,0,0
1,19999,82,10000,52,0,40,9999,0.100000,0,0,0.000000,3,0.000000,0.000000,7.437415,0,0,0,0,0,0,0
1,19999,83,10000,13,0,49,9999,0.100000,0,0,0.000000,3,3.000000,0.000000,12.455917,0,0,0,0,0,0,0
1,19999,84,10000,2,0,40,9999,0.100000,0,0,0.000000,2,0.000000,0.000000,1.545389,0,0,0,0,0,0,0
1,19999,85,10000,48,0,49,9999,0.100000,0,0,0.000000,3,3.000000,0.000000,7.837542,0,0,0,0,0,0,0
1,19999,86,10000,13,0,49,9999,0.100000,0,0,0.000000,3,1.000000,0.000000,1.530973,0,0,0,0,0,0,0
1,19999,87,10000,52,0,49,9999,0.100000,0,0,0.000000,3,2.000000,0.000000,14.158798,0,0,0,0,0,0,0
1,19999,88,10000,33,0,40,9999,0.100000,0,0,0.000000,3,0.000000,0.000000,0.256320,0,0,0,0,0,0,0
1,19999,89,10000,52,0,49,9999,0.100000,0,0,0.000000,3,1.000000,0.000000,3.664460,0,0,0,0,0,0,0
1,19999,90,10000,52,0,40,9999,0.100000,0,0,0.000000,3,0.000000,0.000000,1.416800,0,0,0,0,0,0,0
1,19999,91,10000,13,0,40,9999,0.100000,0,0,0.000000,3,0.000000,0.000000,0.476549,0,0,0,0,0,0,0
1,19999,92,10000,52,0,49,9999,0.100000,0,0,0.000000,3,1.000000,0.000000,9.898095,0,0,0,0,0,0,0
1,19999,93,10000,33,0,49,9999,0.100000,0,0,0.000000,3,1.000000,0.000000,5.136939,0,0,0,0,0,0,0
1,19999,94,10000,2,0,49,9999,0.100000,0,0,0.000000,3,1.000000,0.000000,1.957337,0,0,0,0,0,0,0
1,19999,95,10000,2,0,49,9999,0.100000,0,0,0.000000,3,1.000000,0.000000,7.284139,0,0,0,0,0,0,0
1,19999,96,10000,52,0,49,9999,0.100000,0,0,0.000000,3,1.000000,0.000000,4.710524,0,0,0,0,0,0,0
1,19999,97,10000,52,0,40,9999,0.100000,0,0,0.000000,3,0.000000,0.000000,0.198870,0,0,0,0,0,0,0
1,19999,98,10000,48,0,49,9999,0.100000,0,0,0.000000,3,3.000000,0.000000,6.183913,0,0,0,0,0,0,0
1,19999,99,10000,48,0,40,9999,0.100000,0,0,0.000000,3,0.000000,0.000000,0.953968,0,0,0,0,0,0,0
2,29999,0,20000,2,10000,49,9999,0.100000,0,0,0.000000,5,1.000000,0.000000,1.289051,0,0,0,0,0,0,0
2,29999,1,20000,2,10000,40,9999,0.100000,0,0,0.000000,6,0.000000,0.000000,0.163869,0,0,0,0,0,0,0
2,29999,2,20000,2,0,49,9999,0.100000,0,0,0.000000,4,1.000000,0.000000,2.433371,0,0,0,0,0,0,0
2,29999,3,20000,2,10000,49,9999,0.100000,0,0,0.000000,5,1.000000,0.000000,2.300753,0,0,0,0,0,0,0
2,29999,4,20000,25,10000,40,9999,0.100000,0,0,0.000000,5,0.000000,0.000000,16.975334,0,0,0,0,0,0,0
2,29999,5,20000,48,0,49,9999,0.100000,0,0,0.000000,5,1.000000,0.000000,5.874893,0,0,0,0,0,0,0
2,29999,6,20000,25,10000,40,9999,0.100000,0,0,0.000000,5,0.000000,0.000000,0.127605,0,0,0,0,0,0,0
2,29999,7,20000,52,10000,40,9999,0.100000,0,0,0.000000,6,0.000000,0.000000,2.523209,0,0,0,0,0,0,0
2,29999,8,20000,52,0,49,9999,0.100000,0,0,0.000000,5,1.000000,0.000000,5.945855,0,0,0,0,0,0,0
2,29999,9,20000,52,0,49,9999,0.100000,0,0,0.000000,5,2.000000,0.000000,4.387187,0,0,0,0,0,0,0
2,29999,10,20000,2,0,40,9999,0.100000,0,0,0.000000,5,0.000000,0.000000,0.246831,0,0,0,0,0,0,0
2,29999,11,20000,2,10000,49,9999,0.100000,0,0,0.000000,5,1.000000,0.000000,2.009795,0,0,0,0,0,0,0
2,29999,12,20000,52,0,40,9999,0.100000,0,0,0.000000,5,0.000000,0.000000,0.656897,0,0,0,0,0,0,0
2,29999,13,20000,48,0,40,9999,0.100000,0,0,0.000000,5,0.000000,0.000000,0.081074,0,0,0,0,0,0,0
2,29999,14,20000,48,0,49,9999,0.100000,0,0,0.000000,5,2.000000,0.000000,6.836706,0,0,0,0,0,0,0
2,29999,15,20000,2,0,49,9999,0.100000,0,0,0.000000,5,1.000000,0.000000,1.408922,0,0,0,0,0,0,0
2,29999,16,20000,2,10000,40,9999,0.100000,0,0,0.000000,5,0.000000,0.000000,0.099259,0,0,0,0,0,0,0
2,29999,17,20000,2,0,49,9999,0.100000,0,0,0.000000,5,1.000000,0.000000,4.932000,0,0,0,0,0,0,0
2,29999,18,20000,48,0,49,9999,0.100000,0,0,0.000000,5,1.000000,0.000000,1.361099,0,0,0,0,0,0,0
2,29999,19,20000,2,0,40,9999,0.100000,0,0,0.000000,5,0.000000,0.000000,3.178252,0,0,0,0,0,0,0
2,29999,20,20000,2,10000,40,9999,0.100000,0,0,0.000000,5,0.000000,0.000000,0.219958,0,0,0,0,0,0,0
2,29999,21,20000,52,0,49,9999,0.100000,0,0,0.000000,5,1.000000,0.000000,2.296859,0,0,0,0,0,0,0
2,29999,22,20000,2,10000,40,9999,0.100000,0,0,0.000000,5,0.000000,0.000000,0.123066,0,0,0,0,0,0,0
2,29999,23,20000,23,10000,40,9999,0.100000,0,0,0.000000,5,0.000000,0.000000,0.126170,0,0,0,0,0,0,0
2,29999,24,20000,81,10000,40,9999,0.100000,0,0,0.000000,5,0.000000,0.000000,1.262345,0,0,0,0,0,0,0
2,29999,25,20000,2,0,40,9999,0.100000,0,0,0.000000,5,0.000000,0.000000,0.227533,0,0,0,0,0,0,0
2,29999,26,20000,52,0,40,9999,0.100000,0,0,0.000000,5,0.000000,0.000000,0.337886,0,0,0,0,0,0,0
2,29999,27,0,27,0,40,29999,0.100000,0,0,0.000000,5,0.000000,0.000000,0.257227,0,0,0,0,0,0,0
2,29999,28,20000,2,10000,40,9999,0.100000,0,0,0.000000,6,0.000000,0.000000,0.202840,0,0,0,0,0,0,0
2,29999,29,20000,81,10000,49,9999,0.100000,0,0,0.000000,5,1.000000,0.000000,12.489236,0,0,0,0,0,0,0
2,29999,30,20000,25,10000,40,9999,0.100000,0,0,0.000000,5,0.000000,0.000000,0.198095,0,0,0,0,0,0,0
2,29999,31,20000,52,0,40,9999,0.100000,0,0,0.000000,5,0.000000,0.000000,1.042651,0,0,0,0,0,0,0
2,29999,32,20000,23,10000,49,9999,0.100000,0,0,0.000000,5,2.000000,0.000000,4.582063,0,0,0,0,0,0,0
2,29999,33,20000,2,10000,40,9999,0.100000,0,0,0.000000,6,0.000000,0.000000,3.134000,0,0,0,0,0,0,0
2,29999,34,20000,2,10000,40,9999,0.100000,0,0,0.000000,6,0.000000,0.000000,1.752053,0,0,0,0,0,0,0
2,29999,35,20000,25,10000,40,9999,0.100000,0,0,0.000000,5,0.000000,0.000000,0.871858,0,0,0,0,0,0,0
2,29999,36,20000,2,10000,40,9999,0.100000,0,0,0.000000,6,0.000000,0.000000,0.156884,0,0,0,0,0,0,0
2,29999,37,20000,48,0,40,9999,0.100000,0,0,0.000000,5,0.000000,0.000000,1.624389,0,0,0,0,0,0,0
2,29999,38,20000,2,10000,40,9999,0.065000,0,0,0.000000,5,0.000000,0.000000,2.940692,0,0,0,0,0,0,0
2,29999,39,20000,2,0,40,9999,0.100000,0,0,0.000000,5,0.000000,0.000000,0.104315,0,0,0,0,0,0,0
2,29999,40,20000,52,0,40,9999,0.100000,0,0,0.000000,6,0.000000,0.000000,10.559975,0,0,0,0,0,0,0
2,29999,41,20000,25,10000,99,9999,0.100000,0,0,34.210526,5,7.000000,0.000000,13.855218,0,0,1,0,0,0,0
2,29999,42,20000,2,10000,40,9999,0.100000,0,0,0.000000,6,0.000000,0.000000,1.199523,0,0,0,0,0,0,0
2,29999,43,20000,43,10000,40,9999,0.100000,0,0,0.000000,5,0.000000,0.000000,0.839104,0,0,0,0,0,0,0
2,29999,44,20000,48,0,49,9999,0.100000,0,0,0.000000,4,4.000000,0.000000,15.511785,0,0,0,0,0,0,0
2,29999,45,20000,91,10000,40,9999,0.100000,0,0,0.000000,6,0.000000,0.000000,0.734493,0,0,0,0,0,0,0
2,29999,46,20000,48,0,49,9999,0.100000,0,0,0.000000,5,2.000000,0.000000,4.546790,0,0,0,0,0,0,0
2,29999,47,20000,48,0,40,9999,0.100000,0,0,0.000000,5,0.000000,0.000000,1.360266,0,0,0,0,0,0,0
2,29999,48,20000,91,10000,49,9999,0.100000,0,0,0.000000,6,3.000000,0.000000,15.688660,0,0,0,0,0,0,0
2,29999,49,20000,52,10000,40,9999,0.100000,0,0,0.000000,6,0.000000,0.000000,9.566884,0,0,0,0,0,0,0
2,29999,50,20000,23,10000,40,9999,0.100000,0,0,0.000000,5,0.000000,0.000000,0.915177,0,0,0,0,0,0,0
2,29999,51,20000,2,10000,40,9999,0.100000,0,0,0.000000,5,0.000000,0.000000,1.283725,0,0,0,0,0,0,0
2,29999,52,20000,2,10000,40,9999,0.100000,0,0,0.000000,5,0.000000,0.000000,0.188725,0,0,0,0,0,0,0
2,29999,53,20000,2,10000,40,9999,0.100000,0,0,0.000000,6,0.000000,0.000000,0.118309,0,0,0,0,0,0,0
2,29999,54,20000,2,0,40,9999,0.100000,0,0,0.000000,4,0.000000,0.000000,0.554347,0,0,0,0,0,0,0
2,29999,55,20000,2,0,40,9999,0.100000,0,0,0.000000,5,0.000000,0.000000,0.093828,0,0,0,0,0,0,0
2,29999,56,20000,48,0,49,9999,0.100000,0,0,0.000000,5,2.000000,0.000000,7.982142,0,0,0,0,0,0,0
2,29999,57,20000,48,0,40,9999,0.100000,0,0,0.000000,6,0.000000,0.000000,0.116037,0,0,0,0,0,0,0
2,29999,58,10000,36,0,40,19999,0.100000,0,0,0.000000,5,0.000000,0.000000,0.814702,0,0,0,0,0,0,0
2,29999,59,20000,48,0,40,9999,0.100000,0,0,0.000000,5,0.000000,0.000000,1.069780,0,0,0,0,0,0,0
2,29999,60,20000,48,0,40,9999,0.100000,0,0,0.000000,5,0.000000,0.000000,1.181571,0,0,0,0,0,0,0
2,29999,61,20000,2,10000,40,9999,0.100000,0,0,0.000000,5,0.000000,0.000000,0.778437,0,0,0,0,0,0,0
2,29999,62,20000,52,0,49,9999,0.100000,0,0,0.000000,5,4.000000,0.000000,13.345237,0,0,0,0,0,0,0
2,29999,63,20000,52,0,49,9999,0.100000,0,0,0.000000,5,3.000000,0.000000,6.927159,0,0,0,0,0,0,0
2,29999,64,20000,48,0,40,9999,0.100000,0,0,0.000000,5,0.000000,0.000000,1.944816,0,0,0,0,0,0,0
2,29999,65,20000,52,0,49,9999,0.100000,0,0,0.000000,6,10.000000,0.000000,23.951698,0,0,0,0,0,0,0
2,29999,66,20000,48,0,40,9999,0.100000,0,0,0.000000,5,0.000000,0.000000,3.962640,0,0,0,0,0,0,0
2,29999,67,20000,52,0,40,9999,0.100000,0,0,0.000000,6,0.000000,0.000000,0.498889,0,0,0,0,0,0,0
2,29999,68,20000,81,10000,49,9999,0.100000,0,0,0.000000,5,3.000000,0.000000,4.952514,0,0,0,0,0,0,0
2,29999,69,20000,2,0,40,9999,0.100000,0,0,0.000000,5,0.000000,0.000000,0.061215,0,0,0,0,0,0,0
2,29999,70,20000,91,10000,40,9999,0.100000,0,0,0.000000,6,0.000000,0.000000,0.127782,0,0,0,0,0,0,0
2,29999,71,20000,2,0,49,9999,0.100000,0,0,0.000000,6,2.000000,0.000000,2.799125,0,0,0,0,0,0,0
2,29999,72,20000,48,0,40,9999,0.100000,0,0,0.000000,6,0.000000,0.000000,0.832291,0,0,0,0,0,0,0
2,29999,73,20000,2,10000,49,9999,0.100000,0,0,0.000000,6,4.000000,0.000000,9.081491,0,0,0,0,0,0,0
2,29999,74,20000,48,0,40,9999,0.100000,0,0,0.000000,5,0.000000,0.000000,0.482773,0,0,0,0,0,0,0
2,29999,75,20000,52,0,49,9999,0.100000,0,0,0.000000,5,1.000000,0.000000,2.090529,0,0,0,0,0,0,0
2,29999,76,20000,2,10000,49,9999,0.100000,0,0,0.000000,6,2.000000,0.000000,5.534999,0,0,0,0,0,0,0
2,29999,77,20000,52,10000,40,9999,0.100000,0,0,0.000000,5,0.000000,0.000000,1.029079,0,0,0,0,0,0,0
2,29999,78,20000,2,10000,40,9999,0.100000,0,0,0.000000,6,0.000000,0.000000,0.796201,0,0,0,0,0,0,0
2,29999,79,20000,48,0,40,9999,0.100000,0,0,0.000000,5,0.000000,0.000000,19.364530,0,0,0,0,0,0,0
2,29999,80,20000,52,0,49,9999,0.100000,0,0,0.000000,6,3.000000,0.000000,8.466351,0,0,0,0,0,0,0
2,29999,81,20000,2,0,49,9999,0.100000,0,0,0.000000,5,2.000000,0.000000,5.848301,0,0,0,0,0,0,0
2,29999,82,20000,2,0,40,9999,0.100000,0,0,0.000000,5,0.000000,0.000000,1.420095,0,0,0,0,0,0,0
2,29999,83,20000,2,10000,40,9999,0.100000,0,0,0.000000,5,0.000000,0.000000,1.115336,0,0,0,0,0,0,0
2,29999,84,20000,48,0,40,9999,0.100000,0,0,0.000000,6,0.000000,0.000000,0.154348,0,0,0,0,0,0,0
2,29999,85,20000,52,10000,40,9999,0.100000,0,0,0.000000,6,0.000000,0.000000,7.465017,0,0,0,0,0,0,0
2,29999,86,20000,2,10000,49,9999,0.100000,0,0,0.000000,5,1.000000,0.000000,1.351445,0,0,0,0,0,0,0
2,29999,87,20000,48,0,49,9999,0.100000,0,0,0.000000,5,1.000000,0.000000,1.663930,0,0,0,0,0,0,0
2,29999,88,20000,81,10000,40,9999,0.100000,0,0,0.000000,5,0.000000,0.000000,0.340140,0,0,0,0,0,0,0
2,29999,89,20000,2,10000,40,9999,0.100000,0,0,0.000000,5,0.000000,0.000000,3.859316,0,0,0,0,0,0,0
2,29999,90,20000,52,10000,40,9999,0.100000,0,0,0.000000,6,0.000000,0.000000,0.963922,0,0,0,0,0,0,0
2,29999,91,20000,2,10000,40,9999,0.100000,0,0,0.000000,6,0.000000,0.000000,0.399480,0,0,0,0,0,0,0
2,29999,92,20000,52,0,49,9999,0.100000,0,0,0.000000,6,2.000000,0.000000,5.913374,0,0,0,0,0,0,0
2,29999,93,20000,2,10000,49,9999,0.100000,0,0,0.000000,5,6.000000,0.000000,16.443120,0,0,0,0,0,0,0
2,29999,94,20000,48,0,49,9999,0.100000,0,0,0.000000,6,2.000000,0.000000,8.202194,0,0,0,0,0,0,0
2,29999,95,20000,52,0,40,9999,0.100000,0,0,0.000000,5,0.000000,0.000000,4.192228,0,0,0,0,0,0,0
2,29999,96,20000,2,10000,40,9999,0.100000,0,0,0.000000,5,0.000000,0.000000,0.863308,0,0,0,0,0,0,0
2,29999,97,20000,91,10000,40,9999,0.100000,0,0,0.000000,6,0.000000,0.000000,0.199316,0,0,0,0,0,0,0
2,29999,98,20000,52,0,49,9999,0.100000,0,0,0.000000,5,1.000000,0.000000,7.178152,0,0,0,0,0,0,0
2,29999,99,20000,48,0,40,9999,0.100000,0,0,0.000000,6,0.000000,0.000000,0.765455,0,0,0,0,0,0,0
3,39999,0,30000,48,0,40,9999,0.100000,0,0,0.000000,6,0.000000,0.000000,0.796212,0,0,0,0,0,0,0
3,39999,1,30000,2,0,40,9999,0.100000,0,0,0.000000,6,0.000000,0.000000,0.164633,0,0,0,0,0,0,0
3,39999,2,30000,91,10000,49,9999,0.100000,0,0,0.000000,6,1.000000,0.000000,4.930620,0,0,0,0,0,0,0
3,39999,3,30000,52,10000,40,9999,0.100000,0,0,0.000000,6,0.000000,0.000000,0.814007,0,0,0,0,0,0,0
3,39999,4,30000,48,0,40,9999,0.100000,0,0,0.000000,6,0.000000,0.000000,11.774446,0,0,0,0,0,0,0
3,39999,5,30000,52,10000,49,9999,0.100000,0,0,0.000000,6,1.000000,0.000000,3.502841,0,0,0,0,0,0,0
3,39999,6,30000,2,0,40,9999,0.100000,0,0,0.000000,6,0.000000,0.000000,0.157283,0,0,0,0,0,0,0
3,39999,7,30000,91,10000,40,9999,0.100000,0,0,0.000000,6,0.000000,0.000000,3.683294,0,0,0,0,0,0,0
3,39999,8,30000,52,10000,40,9999,0.100000,0,0,0.000000,6,0.000000,0.000000,6.283227,0,0,0,0,0,0,0
3,39999,9,30000,2,10000,40,9999,0.100000,0,0,0.000000,6,0.000000,0.000000,1.070088,0,0,0,0,0,0,0
3,39999,10,30000,87,20000,40,9999,0.100000,0,0,0.000000,6,0.000000,0.000000,0.921867,0,0,0,0,0,0,0
3,39999,11,30000,52,10000,49,9999,0.100000,0,0,0.000000,6,11.000000,0.000000,28.036579,0,0,0,0,0,0,0
3,39999,12,30000,2,0,40,9999,0.100000,0,0,0.000000,6,0.000000,0.000000,4.205017,0,0,0,0,0,0,0
3,39999,13,30000,52,10000,40,9999,0.100000,0,0,0.000000,6,0.000000,0.000000,0.089177,0,0,0,0,0,0,0
3,39999,14,30000,2,10000,40,9999,0.100000,0,0,0.000000,6,0.000000,0.000000,2.160567,0,0,0,0,0,0,0
3,39999,15,30000,9,20000,40,9999,0.100000,0,0,0.000000,6,0.000000,0.000000,0.734111,0,0,0,0,0,0,0
3,39999,16,30000,9,20000,40,9999,0.100000,0,0,0.000000,6,0.000000,0.000000,0.098410,0,0,0,0,0,0,0
3,39999,17,30000,48,0,49,9999,0.100000,0,0,0.000000,6,2.000000,0.000000,5.619136,0,0,0,0,0,0,0
3,39999,18,30000,48,0,40,9999,0.100000,0,0,0.000000,6,0.000000,0.000000,6.577150,0,0,0,0,0,0,0
3,39999,19,30000,91,10000,40,9999,0.100000,0,0,0.000000,6,0.000000,0.000000,0.948834,0,0,0,0,0,0,0
3,39999,20,30000,91,10000,40,9999,0.100000,0,0,0.000000,6,0.000000,0.000000,0.743242,0,0,0,0,0,0,0
3,39999,21,30000,52,10000,49,9999,0.100000,0,0,0.000000,6,11.000000,0.000000,16.120898,0,0,0,0,0,0,0
3,39999,22,30000,91,10000,40,9999,0.100000,0,0,0.000000,6,0.000000,0.000000,0.165530,0,0,0,0,0,0,0
3,39999,23,30000,52,10000,40,9999,0.100000,0,0,0.000000,6,0.000000,0.000000,0.265378,0,0,0,0,0,0,0
3,39999,24,30000,2,0,40,9999,0.100000,0,0,0.000000,6,0.000000,0.000000,1.376196,0,0,0,0,0,0,0
3,39999,25,30000,91,10000,40,9999,0.100000,0,0,0.000000,6,0.000000,0.000000,0.262352,0,0,0,0,0,0,0
3,39999,26,30000,2,10000,40,9999,0.100000,0,0,0.000000,6,0.000000,0.000000,0.358224,0,0,0,0,0,0,0
3,39999,27,30000,91,10000,40,9999,0.100000,0,0,0.000000,6,0.000000,0.000000,0.389703,0,0,0,0,0,0,0
3,39999,28,30000,2,10000,40,9999,0.100000,0,0,0.000000,6,0.000000,0.000000,0.201219,0,0,0,0,0,0,0
3,39999,29,30000,52,10000,40,9999,0.100000,0,0,0.000000,6,0.000000,0.000000,5.030591,0,0,0,0,0,0,0
3,39999,30,30000,2,0,40,9999,0.100000,0,0,0.000000,6,0.000000,0.000000,0.198262,0,0,0,0,0,0,0
3,39999,31,30000,87,20000,49,9999,0.100000,0,0,0.000000,6,3.000000,0.000000,3.751572,0,0,0,0,0,0,0
3,39999,32,30000,91,10000,40,9999,0.100000,0,0,0.000000,6,0.000000,0.000000,1.101623,0,0,0,0,0,0,0
3,39999,33,30000,91,10000,49,9999,0.100000,0,0,0.000000,6,2.000000,0.000000,10.054467,0,0,0,0,0,0,0
3,39999,34,30000,9,20000,49,9999,0.100000,0,0,0.000000,6,3.000000,0.000000,9.913287,0,0,0,0,0,0,0
3,39999,35,30000,9,20000,40,9999,0.100000,0,0,0.000000,6,0.000000,0.000000,1.101718,0,0,0,0,0,0,0
3,39999,36,30000,91,10000,40,9999,0.100000,0,0,0.000000,6,0.000000,0.000000,0.173237,0,0,0,0,0,0,0
3,39999,37,30000,52,10000,49,9999,0.100000,0,0,0.000000,6,1.000000,0.000000,2.133698,0,0,0,0,0,0,0
3,39999,38,30000,48,0,49,9999,0.100000,0,0,0.000000,6,1.000000,0.000000,2.429497,0,0,0,0,0,0,0
3,39999,39,30000,2,10000,40,9999,0.100000,0,0,0.000000,6,0.000000,0.000000,0.130983,0,0,0,0,0,0,0
3,39999,40,30000,91,10000,49,9999,0.100000,0,0,0.000000,6,5.000000,0.000000,8.577940,0,0,0,0,0,0,0
3,39999,41,30000,48,0,49,9999,0.100000,0,0,0.000000,6,1.000000,0.000000,5.053553,0,0,0,0,0,0,0
3,39999,42,30000,9,20000,49,9999,0.100000,0,0,0.000000,6,2.000000,0.000000,9.117474,0,0,0,0,0,0,0
3,39999,43,30000,87,20000,40,9999,0.100000,0,0,0.000000,6,0.000000,0.000000,0.723169,0,0,0,0,0,0,0
3,39999,44,30000,48,0,40,9999,0.100000,0,0,0.000000,6,0.000000,0.000000,0.341521,0,0,0,0,0,0,0
3,39999,45,30000,87,20000,40,9999,0.100000,0,0,0.000000,6,0.000000,0.000000,1.012729,0,0,0,0,0,0,0
3,39999,46,30000,91,10000,49,9999,0.100000,0,0,0.000000,6,4.000000,0.000000,8.699790,0,0,0,0,0,0,0
3,39999,47,30000,2,10000,40,9999,0.100000,0,0,0.000000,6,0.000000,0.000000,1.205953,0,0,0,0,0,0,0
3,39999,48,30000,48,0,49,9999,0.100000,0,0,0.000000,6,8.000000,0.000000,28.870966,0,0,0,0,0,0,0
3,39999,49,30000,9,20000,49,9999,0.100000,0,0,0.000000,6,2.000000,0.000000,10.454625,0,0,0,0,0,0,0
3,39999,50,30000,48,0,40,9999,0.100000,0,0,0.000000,6,0.000000,0.000000,0.341472,0,0,0,0,0,0,0
3,39999,51,30000,9,20000,40,9999,0.100000,0,0,0.000000,6,0.000000,0.000000,0.632730,0,0,0,0,0,0,0
3,39999,52,30000,48,0,40,9999,0.100000,0,0,0.000000,6,0.000000,0.000000,0.180486,0,0,0,0,0,0,0
3,39999,53,30000,52,10000,40,9999,0.100000,0,0,0.000000,6,0.000000,0.000000,0.094319,0,0,0,0,0,0,0
3,39999,54,30000,91,10000,49,9999,0.100000,0,0,0.000000,6,1.000000,0.000000,1.809041,0,0,0,0,0,0,0
3,39999,55,30000,2,0,40,9999,0.100000,0,0,0.000000,6,0.000000,0.000000,0.085862,0,0,0,0,0,0,0
3,39999,56,30000,52,0,49,9999,0.100000,0,0,0.000000,6,1.000000,0.000000,7.200071,0,0,0,0,0,0,0
3,39999,57,30000,48,0,40,9999,0.100000,0,0,0.000000,6,0.000000,0.000000,0.115644,0,0,0,0,0,0,0
3,39999,58,30000,91,10000,40,9999,0.100000,0,0,0.000000,6,0.000000,0.000000,0.850128,0,0,0,0,0,0,0
3,39999,59,30000,48,0,40,9999,0.100000,0,0,0.000000,6,0.000000,0.000000,0.775806,0,0,0,0,0,0,0
3,39999,60,30000,2,0,40,9999,0.100000,0,0,0.000000,6,0.000000,0.000000,1.345053,0,0,0,0,0,0,0
3,39999,61,30000,48,0,49,9999,0.100000,0,0,0.000000,6,2.000000,0.000000,3.173115,0,0,0,0,0,0,0
3,39999,62,30000,2,0,40,9999,0.100000,0,0,0.000000,6,0.000000,0.000000,3.222497,0,0,0,0,0,0,0
3,39999,63,30000,48,0,40,9999,0.100000,0,0,0.000000,6,0.000000,0.000000,1.641665,0,0,0,0,0,0,0
3,39999,64,30000,2,0,49,9999,0.100000,0,0,0.000000,6,1.000000,0.000000,2.812934,0,0,0,0,0,0,0
3,39999,65,30000,2,10000,49,9999,0.100000,0,0,0.000000,6,2.000000,0.000000,7.136400,0,0,0,0,0,0,0
3,39999,66,30000,2,0,49,9999,0.100000,0,0,0.000000,6,2.000000,0.000000,6.586747,0,0,0,0,0,0,0
3,39999,67,30000,87,20000,40,9999,0.100000,0,0,0.000000,6,0.000000,0.000000,0.260799,0,0,0,0,0,0,0
3,39999,68,30000,91,10000,40,9999,0.100000,0,0,0.000000,6,0.000000,0.000000,0.324407,0,0,0,0,0,0,0
3,39999,69,30000,2,0,40,9999,0.100000,0,0,0.000000,6,0.000000,0.000000,0.061767,0,0,0,0,0,0,0
3,39999,70,30000,2,10000,40,9999,0.100000,0,0,0.000000,6,0.000000,0.000000,0.124773,0,0,0,0,0,0,0
3,39999,71,30000,48,0,40,9999,0.100000,0,0,0.000000,6,0.000000,0.000000,3.118927,0,0,0,0,0,0,0
3,39999,72,30000,2,0,40,9999,0.100000,0,0,0.000000,6,0.000000,0.000000,2.782996,0,0,0,0,0,0,0
3,39999,73,30000,2,10000,49,9999,0.100000,0,0,0.000000,6,1.000000,0.000000,2.511457,0,0,0,0,0,0,0
3,39999,74,30000,2,0,49,9999,0.065000,0,0,0.000000,6,1.000000,0.000000,2.277260,0,0,0,0,0,0,0
3,39999,75,30000,9,20000,40,9999,0.100000,0,0,0.000000,6,0.000000,0.000000,0.241987,0,0,0,0,0,0,0
3,39999,76,30000,2,0,49,9999,0.100000,0,0,0.000000,6,1.000000,0.000000,2.831959,0,0,0,0,0,0,0
3,39999,77,30000,52,10000,40,9999,0.100000,0,0,0.000000,6,0.000000,0.000000,0.987365,0,0,0,0,0,0,0
3,39999,78,30000,2,10000,49,9999,0.100000,0,0,0.000000,6,2.000000,0.000000,3.292331,0,0,0,0,0,0,0
3,39999,79,30000,2,0,49,9999,0.100000,0,0,0.000000,6,1.000000,0.000000,13.014797,0,0,0,0,0,0,0
3,39999,80,30000,9,20000,40,9999,0.100000,0,0,0.000000,6,0.000000,0.000000,0.596221,0,0,0,0,0,0,0
3,39999,81,30000,91,10000,40,9999,0.100000,0,0,0.000000,6,0.000000,0.000000,1.258049,0,0,0,0,0,0,0
3,39999,82,30000,52,10000,40,9999,0.100000,0,0,0.000000,6,0.000000,0.000000,2.006417,0,0,0,0,0,0,0
3,39999,83,30000,91,10000,40,9999,0.100000,0,0,0.000000,6,0.000000,0.000000,4.436273,0,0,0,0,0,0,0
3,39999,84,30000,48,0,40,9999,0.100000,0,0,0.000000,6,0.000000,0.000000,0.162269,0,0,0,0,0,0,0
3,39999,85,30000,48,0,9,9999,0.100000,0,0,34.210526,6,1.000000,0.000000,8.837761,0,0,0,1,0,0,0
3,39999,86,30000,2,0,9,9999,0.100000,0,0,34.210526,6,2.000000,0.000000,8.373062,0,0,0,1,0,0,0
3,39999,87,30000,91,10000,40,9999,0.100000,0,0,0.000000,6,0.000000,0.000000,0.730518,0,0,0,0,0,0,0
3,39999,88,30000,91,10000,40,9999,0.100000,0,0,0.000000,6,0.000000,0.000000,0.258515,0,0,0,0,0,0,0
3,39999,89,30000,2,0,40,9999,0.100000,0,0,0.000000,6,0.000000,0.000000,2.661909,0,0,0,0,0,0,0
3,39999,90,30000,48,0,49,9999,0.100000,0,0,0.000000,6,2.000000,0.000000,3.458665,0,0,0,0,0,0,0
3,39999,91,30000,2,10000,40,9999,0.100000,0,0,0.000000,6,0.000000,0.000000,0.413495,0,0,0,0,0,0,0
3,39999,92,30000,52,10000,49,9999,0.100000,0,0,0.000000,6,1.000000,0.000000,3.153001,0,0,0,0,0,0,0
3,39999,93,30000,2,0,40,9999,0.100000,0,0,0.000000,6,0.000000,0.000000,3.031705,0,0,0,0,0,0,0
3,39999,94,30000,9,20000,40,9999,0.100000,0,0,0.000000,6,0.000000,0.000000,1.414223,0,0,0,0,0,0,0
3,39999,95,30000,87,20000,40,9999,0.100000,0,0,0.000000,6,0.000000,0.000000,4.181697,0,0,0,0,0,0,0
3,39999,96,30000,2,10000,49,9999,0.100000,0,0,0.000000,6,1.000000,0.000000,3.892313,0,0,0,0,0,0,0
3,39999,97,30000,2,0,40,9999,0.100000,0,0,0.000000,6,0.000000,0.000000,0.206485,0,0,0,0,0,0,0
3,39999,98,30000,9,20000,49,9999,0.100000,0,0,0.000000,6,1.000000,0.000000,13.690153,0,0,0,0,0,0,0
3,39999,99,30000,52,10000,40,9999,0.100000,0,0,0.000000,6,0.000000,0.000000,0.906561,0,0,0,0,0,0,0
4,49999,0,40000,2,10000,49,9999,0.100000,0,0,0.000000,6,1.000000,0.000000,1.161542,0,0,0,0,0,0,0
4,49999,1,40000,2,10000,40,9999,0.100000,0,0,0.000000,6,0.000000,0.000000,0.163140,0,0,0,0,0,0,0
4,49999,2,40000,48,0,40,9999,0.100000,0,0,0.000000,6,0.000000,0.000000,0.352879,0,0,0,0,0,0,0
4,49999,3,40000,2,0,40,9999,0.100000,0,0,0.000000,6,0.000000,0.000000,0.293227,0,0,0,0,0,0,0
4,49999,4,40000,2,10000,40,9999,0.100000,0,0,0.000000,6,0.000000,0.000000,18.439993,0,0,0,0,0,0,0
4,49999,5,40000,2,0,40,9999,0.100000,0,0,0.000000,6,0.000000,0.000000,3.916839,0,0,0,0,0,0,0
4,49999,6,40000,91,10000,40,9999,0.100000,0,0,0.000000,6,0.000000,0.000000,0.109751,0,0,0,0,0,0,0
4,49999,7,40000,2,0,40,9999,0.100000,0,0,0.000000,6,0.000000,0.000000,0.244804,0,0,0,0,0,0,0
4,49999,8,40000,2,10000,49,9999,0.100000,0,0,0.000000,6,1.000000,0.000000,4.237851,0,0,0,0,0,0,0
4,49999,9,40000,52,10000,40,9999,0.100000,0,0,0.000000,6,0.000000,0.000000,0.865371,0,0,0,0,0,0,0
4,49999,10,40000,2,10000,40,9999,0.100000,0,0,0.000000,6,0.000000,0.000000,0.380555,0,0,0,0,0,0,0
4,49999,11,40000,2,10000,49,9999,0.100000,0,0,0.000000,6,2.000000,0.000000,24.317879,0,0,0,0,0,0,0
4,49999,12,40000,9,20000,40,9999,0.100000,0,0,0.000000,6,0.000000,0.000000,0.157942,0,0,0,0,0,0,0
4,49999,13,40000,2,10000,40,9999,0.100000,0,0,0.000000,6,0.000000,0.000000,0.096869,0,0,0,0,0,0,0
4,49999,14,40000,2,0,40,9999,0.100000,0,0,0.000000,6,0.000000,0.000000,1.200374,0,0,0,0,0,0,0
4,49999,15,40000,91,10000,49,9999,0.100000,0,0,0.000000,6,1.000000,0.000000,1.642396,0,0,0,0,0,0,0
4,49999,16,40000,48,0,40,9999,0.100000,0,0,0.000000,6,0.000000,0.000000,0.097605,0,0,0,0,0,0,0
4,49999,17,40000,9,20000,49,9999,0.100000,0,0,0.000000,6,1.000000,0.000000,4.990714,0,0,0,0,0,0,0
4,49999,18,40000,2,10000,40,9999,0.100000,0,0,0.000000,6,0.000000,0.000000,2.303377,0,0,0,0,0,0,0
4,49999,19,40000,9,20000,40,9999,0.100000,0,0,0.000000,6,0.000000,0.000000,6.464970,0,0,0,0,0,0,0
4,49999,20,40000,91,10000,49,9999,0.100000,0,0,0.000000,6,2.000000,0.000000,3.773128,0,0,0,0,0,0,0
4,49999,21,40000,91,10000,40,9999,0.100000,0,0,0.000000,6,0.000000,0.000000,3.791652,0,0,0,0,0,0,0
4,49999,22,40000,48,0,49,9999,0.100000,0,0,0.000000,6,1.000000,0.000000,1.185973,0,0,0,0,0,0,0
4,49999,23,40000,91,10000,40,9999,0.100000,0,0,0.000000,6,0.000000,0.000000,0.502162,0,0,0,0,0,0,0
4,49999,24,40000,91,10000,40,9999,0.100000,0,0,0.000000,6,0.000000,0.000000,0.584187,0,0,0,0,0,0,0
4,49999,25,40000,2,10000,40,9999,0.100000,0,0,0.000000,6,0.000000,0.000000,0.157489,0,0,0,0,0,0,0
4,49999,26,40000,91,10000,40,9999,0.100000,0,0,0.000000,6,0.000000,0.000000,0.452140,0,0,0,0,0,0,0
4,49999,27,40000,2,10000,40,9999,0.100000,0,0,0.000000,6,0.000000,0.000000,0.167682,0,0,0,0,0,0,0
4,49999,28,40000,9,20000,40,9999,0.100000,0,0,0.000000,6,0.000000,0.000000,0.221451,0,0,0,0,0,0,0
4,49999,29,40000,52,10000,40,9999,0.100000,0,0,0.000000,6,0.000000,0.000000,2.107295,0,0,0,0,0,0,0
4,49999,30,40000,52,10000,40,9999,0.100000,0,0,0.000000,6,0.000000,0.000000,0.198393,0,0,0,0,0,0,0
4,49999,31,40000,91,10000,49,9999,0.100000,0,0,0.000000,6,1.000000,0.000000,1.287995,0,0,0,0,0,0,0
4,49999,32,40000,91,10000,40,9999,0.100000,0,0,0.000000,6,0.000000,0.000000,0.564246,0,0,0,0,0,0,0
4,49999,33,40000,91,10000,49,9999,0.100000,0,0,0.000000,6,2.000000,0.000000,15.353504,0,0,0,0,0,0,0
4,49999,34,40000,91,10000,40,9999,0.100000,0,0,0.000000,6,0.000000,0.000000,1.345240,0,0,0,0,0,0,0
4,49999,35,40000,2,0,40,9999,0.100000,0,0,0.000000,6,0.000000,0.000000,0.477647,0,0,0,0,0,0,0
4,49999,36,40000,91,10000,40,9999,0.100000,0,0,0.000000,6,0.000000,0.000000,0.182713,0,0,0,0,0,0,0
4,49999,37,40000,2,10000,40,9999,0.100000,0,0,0.000000,6,0.000000,0.000000,0.444653,0,0,0,0,0,0,0
4,49999,38,40000,48,0,40,9999,0.100000,0,0,0.000000,6,0.000000,0.000000,0.464865,0,0,0,0,0,0,0
4,49999,39,40000,91,10000,40,9999,0.100000,0,0,0.000000,6,0.000000,0.000000,0.109026,0,0,0,0,0,0,0
4,49999,40,40000,52,10000,40,9999,0.100000,0,0,0.000000,6,0.000000,0.000000,0.991927,0,0,0,0,0,0,0
4,49999,41,40000,2,0,40,9999,0.100000,0,0,0.000000,6,0.000000,0.000000,2.398820,0,0,0,0,0,0,0
4,49999,42,40000,48,0,49,9999,0.065000,0,0,0.000000,6,1.000000,0.000000,9.700441,0,0,0,0,0,0,0
4,49999,43,40000,9,20000,40,9999,0.100000,0,0,0.000000,6,0.000000,0.000000,0.317108,0,0,0,0,0,0,0
4,49999,44,40000,2,10000,40,9999,0.100000,0,0,0.000000,6,0.000000,0.000000,0.198014,0,0,0,0,0,0,0
4,49999,45,40000,52,10000,40,9999,0.100000,0,0,0.000000,6,0.000000,0.000000,0.934931,0,0,0,0,0,0,0
4,49999,46,40000,9,20000,49,9999,0.100000,0,0,0.000000,6,9.000000,0.000000,20.104789,0,0,0,0,0,0,0
4,49999,47,40000,48,0,40,9999,0.100000,0,0,0.000000,6,0.000000,0.000000,1.717154,0,0,0,0,0,0,0
4,49999,48,40000,2,0,49,9999,0.100000,0,0,0.000000,6,1.000000,0.000000,2.101877,0,0,0,0,0,0,0
4,49999,49,40000,91,10000,40,9999,0.100000,0,0,0.000000,6,0.000000,0.000000,1.435303,0,0,0,0,0,0,0
4,49999,50,40000,48,0,49,9999,0.100000,0,0,0.000000,6,2.000000,0.000000,5.654927,0,0,0,0,0,0,0
4,49999,51,40000,2,10000,40,9999,0.100000,0,0,0.000000,6,0.000000,0.000000,0.124054,0,0,0,0,0,0,0
4,49999,52,40000,2,0,49,9999,0.100000,0,0,0.000000,6,8.000000,0.000000,34.498127,0,0,0,0,0,0,0
4,49999,53,40000,52,10000,40,9999,0.100000,0,0,0.000000,6,0.000000,0.000000,0.090834,0,0,0,0,0,0,0
4,49999,54,40000,2,10000,40,9999,0.100000,0,0,0.000000,6,0.000000,0.000000,2.561741,0,0,0,0,0,0,0
4,49999,55,40000,52,10000,40,9999,0.100000,0,0,0.000000,6,0.000000,0.000000,0.084126,0,0,0,0,0,0,0
4,49999,56,40000,52,10000,40,9999,0.100000,0,0,0.000000,6,0.000000,0.000000,3.031770,0,0,0,0,0,0,0
4,49999,57,40000,2,0,40,9999,0.100000,0,0,0.000000,6,0.000000,0.000000,0.118349,0,0,0,0,0,0,0
4,49999,58,40000,2,10000,49,9999,0.100000,0,0,0.000000,6,4.000000,0.000000,10.540743,0,0,0,0,0,0,0
4,49999,59,40000,52,10000,40,9999,0.100000,0,0,0.000000,6,0.000000,0.000000,0.766634,0,0,0,0,0,0,0
4,49999,60,40000,2,0,49,9999,0.100000,0,0,0.000000,6,1.000000,0.000000,1.401608,0,0,0,0,0,0,0
4,49999,61,40000,9,20000,49,9999,0.100000,0,0,0.000000,6,1.000000,0.000000,1.576386,0,0,0,0,0,0,0
4,49999,62,40000,9,20000,49,9999,0.100000,0,0,0.000000,6,1.000000,0.000000,11.085755,0,0,0,0,0,0,0
4,49999,63,40000,9,20000,40,9999,0.100000,0,0,0.000000,6,0.000000,0.000000,2.034632,0,0,0,0,0,0,0
4,49999,64,40000,2,0,40,9999,0.100000,0,0,0.000000,6,0.000000,0.000000,0.326363,0,0,0,0,0,0,0
4,49999,65,40000,52,10000,49,9999,0.100000,0,0,0.000000,6,6.000000,0.000000,15.382411,0,0,0,0,0,0,0
4,49999,66,40000,48,0,49,9999,0.100000,0,0,0.000000,6,1.000000,0.000000,5.692736,0,0,0,0,0,0,0
4,49999,67,40000,9,20000,40,9999,0.100000,0,0,0.000000,6,0.000000,0.000000,0.188125,0,0,0,0,0,0,0
4,49999,68,40000,2,0,40,9999,0.100000,0,0,0.000000,6,0.000000,0.000000,0.227447,0,0,0,0,0,0,0
4,49999,69,40000,9,20000,40,9999,0.100000,0,0,0.000000,6,0.000000,0.000000,0.061352,0,0,0,0,0,0,0
4,49999,70,40000,48,0,40,9999,0.100000,0,0,0.000000,6,0.000000,0.000000,0.127001,0,0,0,0,0,0,0
4,49999,71,40000,52,10000,40,9999,0.100000,0,0,0.000000,6,0.000000,0.000000,1.139441,0,0,0,0,0,0,0
4,49999,72,40000,9,20000,40,9999,0.100000,0,0,0.000000,6,0.000000,0.000000,0.277160,0,0,0,0,0,0,0
4,49999,73,40000,52,10000,40,9999,0.100000,0,0,0.000000,6,0.000000,0.000000,0.769761,0,0,0,0,0,0,0
4,49999,74,40000,52,10000,40,9999,0.100000,0,0,0.000000,6,0.000000,0.000000,0.638760,0,0,0,0,0,0,0
4,49999,75,40000,2,0,40,9999,0.100000,0,0,0.000000,6,0.000000,0.000000,0.178331,0,0,0,0,0,0,0
4,49999,76,40000,2,10000,40,9999,0.100000,0,0,0.000000,6,0.000000,0.000000,2.338298,0,0,0,0,0,0,0
4,49999,77,40000,52,10000,40,9999,0.100000,0,0,0.000000,6,0.000000,0.000000,2.203879,0,0,0,0,0,0,0
4,49999,78,40000,52,10000,49,9999,0.100000,0,0,0.000000,6,1.000000,0.000000,1.319085,0,0,0,0,0,0,0
4,49999,79,40000,9,20000,49,9999,0.100000,0,0,0.000000,6,6.000000,0.000000,14.910582,0,0,0,0,0,0,0
4,49999,80,40000,91,10000,40,9999,0.100000,0,0,0.000000,6,0.000000,0.000000,0.401280,0,0,0,0,0,0,0
4,49999,81,40000,91,10000,40,9999,0.100000,0,0,0.000000,6,0.000000,0.000000,0.544856,0,0,0,0,0,0,0
4,49999,82,40000,91,10000,40,9999,0.100000,0,0,0.000000,6,0.000000,0.000000,1.161320,0,0,0,0,0,0,0
4,49999,83,40000,9,20000,40,9999,0.100000,0,0,0.000000,6,0.000000,0.000000,1.445240,0,0,0,0,0,0,0
4,49999,84,40000,2,0,40,9999,0.100000,0,0,0.000000,6,0.000000,0.000000,0.182320,0,0,0,0,0,0,0
4,49999,85,40000,48,0,40,9999,0.100000,0,0,0.000000,6,0.000000,0.000000,1.248408,0,0,0,0,0,0,0
4,49999,86,40000,2,10000,49,9999,0.100000,0,0,0.000000,6,1.000000,0.000000,4.965860,0,0,0,0,0,0,0
4,49999,87,40000,9,20000,40,9999,0.100000,0,0,0.000000,6,0.000000,0.000000,0.214159,0,0,0,0,0,0,0
4,49999,88,40000,91,10000,40,9999,0.100000,0,0,0.000000,6,0.000000,0.000000,0.157984,0,0,0,0,0,0,0
4,49999,89,40000,2,10000,49,9999,0.100000,0,0,0.000000,6,3.000000,0.000000,8.710180,0,0,0,0,0,0,0
4,49999,90,40000,48,0,49,9999,0.100000,0,0,0.000000,6,1.000000,0.000000,1.491403,0,0,0,0,0,0,0
4,49999,91,40000,91,10000,40,9999,0.100000,0,0,0.000000,6,0.000000,0.000000,0.463225,0,0,0,0,0,0,0
4,49999,92,40000,48,0,49,9999,0.100000,0,0,0.000000,6,2.000000,0.000000,7.224343,0,0,0,0,0,0,0
4,49999,93,40000,2,10000,49,9999,0.100000,0,0,0.000000,6,6.000000,0.000000,16.681318,0,0,0,0,0,0,0
4,49999,94,40000,91,10000,40,9999,0.100000,0,0,0.000000,6,0.000000,0.000000,1.003488,0,0,0,0,0,0,0
4,49999,95,40000,48,0,49,9999,0.100000,0,0,0.000000,6,1.000000,0.000000,4.060795,0,0,0,0,0,0,0
4,49999,96,40000,2,10000,40,9999,0.100000,0,0,0.000000,6,0.000000,0.000000,0.528578,0,0,0,0,0,0,0
4,49999,97,40000,48,0,40,9999,0.100000,0,0,0.000000,6,0.000000,0.000000,0.147065,0,0,0,0,0,0,0
4,49999,98,40000,2,10000,40,9999,0.100000,0,0,0.000000,6,0.000000,0.000000,2.253980,0,0,0,0,0,0,0
4,49999,99,40000,2,0,40,9999,0.100000,0,0,0.000000,6,0.000000,0.000000,0.380515,0,0,0,0,0,0,0
5,59999,0,50000,91,10000,49,9999,0.100000,0,0,0.000000,6,4.000000,0.000000,17.090827,0,0,0,0,0,0,0
5,59999,1,50000,52,10000,40,9999,0.100000,0,0,0.000000,6,0.000000,0.000000,0.160970,0,0,0,0,0,0,0
5,59999,2,50000,52,10000,40,9999,0.100000,0,0,0.000000,6,0.000000,0.000000,0.300310,0,0,0,0,0,0,0
5,59999,3,50000,52,10000,40,9999,0.100000,0,0,0.000000,6,0.000000,0.000000,0.271036,0,0,0,0,0,0,0
5,59999,4,50000,2,0,40,9999,0.100000,0,0,0.000000,6,0.000000,0.000000,12.820260,0,0,0,0,0,0,0
5,59999,5,50000,52,10000,40,9999,0.100000,0,0,0.000000,6,0.000000,0.000000,3.597320,0,0,0,0,0,0,0
5,59999,6,50000,2,10000,40,9999,0.100000,0,0,0.000000,6,0.000000,0.000000,0.090824,0,0,0,0,0,0,0
5,59999,7,50000,9,20000,40,9999,0.100000,0,0,0.000000,6,0.000000,0.000000,0.249971,0,0,0,0,0,0,0
5,59999,8,50000,2,10000,49,9999,0.100000,0,0,0.000000,6,1.000000,0.000000,5.909306,0,0,0,0,0,0,0
5,59999,9,50000,48,0,40,9999,0.100000,0,0,0.000000,6,0.000000,0.000000,0.915296,0,0,0,0,0,0,0
5,59999,10,50000,91,10000,40,9999,0.100000,0,0,0.000000,6,0.000000,0.000000,0.361899,0,0,0,0,0,0,0
5,59999,11,50000,9,20000,49,9999,0.100000,0,0,0.000000,6,2.000000,0.000000,15.431126,0,0,0,0,0,0,0
5,59999,12,50000,2,10000,40,9999,0.100000,0,0,0.000000,6,0.000000,0.000000,0.154108,0,0,0,0,0,0,0
5,59999,13,50000,2,0,40,9999,0.100000,0,0,0.000000,6,0.000000,0.000000,0.158374,0,0,0,0,0,0,0
5,59999,14,50000,2,10000,40,9999,0.100000,0,0,0.000000,6,0.000000,0.000000,0.939812,0,0,0,0,0,0,0
5,59999,15,50000,2,0,40,9999,0.100000,0,0,0.000000,6,0.000000,0.000000,0.786135,0,0,0,0,0,0,0
5,59999,16,50000,52,10000,40,9999,0.100000,0,0,0.000000,6,0.000000,0.000000,0.099006,0,0,0,0,0,0,0
5,59999,17,50000,48,0,49,9999,0.100000,0,0,0.000000,6,1.000000,0.000000,5.529466,0,0,0,0,0,0,0
5,59999,18,50000,91,10000,49,9999,0.100000,0,0,0.000000,6,3.000000,0.000000,18.285921,0,0,0,0,0,0,0
5,59999,19,50000,91,10000,49,9999,0.100000,0,0,0.000000,6,2.000000,0.000000,15.521069,0,0,0,0,0,0,0
5,59999,20,50000,2,10000,49,9999,0.100000,0,0,0.000000,6,1.000000,0.000000,2.602930,0,0,0,0,0,0,0
5,59999,21,50000,52,40000,40,9999,0.100000,0,0,0.000000,6,0.000000,0.000000,3.817816,0,0,0,0,0,0,0
5,59999,22,50000,48,0,40,9999,0.100000,0,0,0.000000,6,0.000000,0.000000,0.127844,0,0,0,0,0,0,0
5,59999,23,50000,52,40000,40,9999,0.100000,0,0,0.000000,6,0.000000,0.000000,0.331838,0,0,0,0,0,0,0
5,59999,24,50000,2,10000,40,9999,0.100000,0,0,0.000000,6,0.000000,0.000000,3.352607,0,0,0,0,0,0,0
5,59999,25,50000,91,10000,40,9999,0.100000,0,0,0.000000,6,0.000000,0.000000,0.419224,0,0,0,0,0,0,0
5,59999,26,50000,48,0,40,9999,0.100000,0,0,0.000000,6,0.000000,0.000000,0.516767,0,0,0,0,0,0,0
5,59999,27,50000,48,0,40,9999,0.100000,0,0,0.000000,6,0.000000,0.000000,0.296407,0,0,0,0,0,0,0
5,59999,28,50000,2,0,40,9999,0.100000,0,0,0.000000,6,0.000000,0.000000,0.199039,0,0,0,0,0,0,0
5,59999,29,50000,52,40000,40,9999,0.100000,0,0,0.000000,6,0.000000,0.000000,2.656816,0,0,0,0,0,0,0
5,59999,30,50000,2,10000,40,9999,0.100000,0,0,0.000000,6,0.000000,0.000000,0.197289,0,0,0,0,0,0,0
5,59999,31,50000,2,0,49,9999,0.100000,0,0,0.000000,6,5.000000,0.000000,13.051694,0,0,0,0,0,0,0
5,59999,32,50000,2,0,40,9999,0.100000,0,0,0.000000,6,0.000000,0.000000,0.507828,0,0,0,0,0,0,0
5,59999,33,50000,91,10000,49,9999,0.100000,0,0,0.000000,6,3.000000,0.000000,19.078114,0,0,0,0,0,0,0
5,59999,34,50000,9,20000,40,9999,0.100000,0,0,0.000000,6,0.000000,0.000000,8.878475,0,0,0,0,0,0,0
5,59999,35,50000,52,10000,40,9999,0.100000,0,0,0.000000,6,0.000000,0.000000,1.090790,0,0,0,0,0,0,0
5,59999,36,50000,9,20000,49,9999,0.100000,0,0,0.000000,6,6.000000,0.000000,8.529162,0,0,0,0,0,0,0
5,59999,37,50000,48,0,40,9999,0.100000,0,0,0.000000,6,0.000000,0.000000,0.445114,0,0,0,0,0,0,0
5,59999,38,50000,2,0,40,9999,0.100000,0,0,0.000000,6,0.000000,0.000000,0.416662,0,0,0,0,0,0,0
5,59999,39,50000,2,10000,40,9999,0.100000,0,0,0.000000,6,0.000000,0.000000,0.103326,0,0,0,0,0,0,0
5,59999,40,50000,52,10000,40,9999,0.135000,0,0,0.000000,6,0.000000,0.000000,0.799340,0,0,0,0,0,0,0
5,59999,41,50000,91,10000,49,9999,0.100000,0,0,0.000000,6,3.000000,0.000000,11.122985,0,0,0,0,0,0,0
5,59999,42,50000,91,10000,49,9999,0.100000,0,0,0.000000,6,1.000000,0.000000,22.357845,0,0,0,0,0,0,0
5,59999,43,50000,2,0,40,9999,0.100000,0,0,0.000000,6,0.000000,0.000000,0.173405,0,0,0,0,0,0,0
5,59999,44,50000,91,10000,40,9999,0.100000,0,0,0.000000,6,0.000000,0.000000,0.332369,0,0,0,0,0,0,0
5,59999,45,50000,2,0,40,9999,0.100000,0,0,0.000000,6,0.000000,0.000000,0.340811,0,0,0,0,0,0,0
5,59999,46,50000,52,10000,40,9999,0.100000,0,0,0.000000,6,0.000000,0.000000,0.185365,0,0,0,0,0,0,0
5,59999,47,50000,91,10000,49,9999,0.100000,0,0,0.000000,6,1.000000,0.000000,1.347105,0,0,0,0,0,0,0
5,59999,48,50000,48,0,40,9999,0.100000,0,0,0.000000,6,0.000000,0.000000,1.269557,0,0,0,0,0,0,0
5,59999,49,50000,2,10000,40,9999,0.100000,0,0,0.000000,6,0.000000,0.000000,1.500291,0,0,0,0,0,0,0
5,59999,50,50000,48,0,40,9999,0.100000,0,0,0.000000,6,0.000000,0.000000,0.199599,0,0,0,0,0,0,0
5,59999,51,50000,91,10000,40,9999,0.100000,0,0,0.000000,6,0.000000,0.000000,0.103357,0,0,0,0,0,0,0
5,59999,52,50000,2,0,40,9999,0.100000,0,0,0.000000,6,0.000000,0.000000,0.179326,0,0,0,0,0,0,0
5,59999,53,50000,48,0,40,9999,0.100000,0,0,0.000000,6,0.000000,0.000000,0.090148,0,0,0,0,0,0,0
5,59999,54,50000,2,10000,40,9999,0.100000,0,0,0.000000,6,0.000000,0.000000,0.481606,0,0,0,0,0,0,0
5,59999,55,50000,91,10000,40,9999,0.100000,0,0,0.000000,6,0.000000,0.000000,0.124676,0,0,0,0,0,0,0
5,59999,56,50000,48,0,40,9999,0.100000,0,0,0.000000,6,0.000000,0.000000,1.843495,0,0,0,0,0,0,0
5,59999,57,50000,2,0,40,9999,0.100000,0,0,0.000000,6,0.000000,0.000000,0.115334,0,0,0,0,0,0,0
5,59999,58,50000,2,0,40,9999,0.100000,0,0,0.000000,6,0.000000,0.000000,0.910190,0,0,0,0,0,0,0
5,59999,59,50000,48,0,40,9999,0.100000,0,0,0.000000,6,0.000000,0.000000,1.121301,0,0,0,0,0,0,0
5,59999,60,50000,91,10000,49,9999,0.100000,0,0,0.000000,6,2.000000,0.000000,3.083472,0,0,0,0,0,0,0
5,59999,61,50000,91,10000,49,9999,0.100000,0,0,0.000000,6,2.000000,0.000000,2.103936,0,0,0,0,0,0,0
5,59999,62,50000,52,40000,40,9999,0.100000,0,0,0.000000,6,0.000000,0.000000,3.996287,0,0,0,0,0,0,0
5,59999,63,50000,52,10000,40,9999,0.100000,0,0,0.000000,6,0.000000,0.000000,1.857932,0,0,0,0,0,0,0
5,59999,64,50000,91,10000,49,9999,0.100000,0,0,0.000000,6,4.000000,0.000000,6.160654,0,0,0,0,0,0,0
5,59999,65,50000,48,0,49,9999,0.100000,0,0,0.000000,6,6.000000,0.000000,19.096303,0,0,0,0,0,0,0
5,59999,66,50000,91,10000,49,9999,0.100000,0,0,0.000000,6,2.000000,0.000000,17.870518,0,0,0,0,0,0,0
5,59999,67,50000,52,10000,40,9999,0.100000,0,0,0.000000,6,0.000000,0.000000,0.170753,0,0,0,0,0,0,0
5,59999,68,50000,2,10000,40,9999,0.100000,0,0,0.000000,6,0.000000,0.000000,0.135537,0,0,0,0,0,0,0
5,59999,69,50000,2,0,40,9999,0.100000,0,0,0.000000,6,0.000000,0.000000,0.061582,0,0,0,0,0,0,0
5,59999,70,50000,52,10000,40,9999,0.100000,0,0,0.000000,6,0.000000,0.000000,0.123788,0,0,0,0,0,0,0
5,59999,71,50000,91,10000,40,9999,0.100000,0,0,0.000000,6,0.000000,0.000000,6.340103,0,0,0,0,0,0,0
5,59999,72,50000,2,0,40,9999,0.100000,0,0,0.000000,6,0.000000,0.000000,0.592438,0,0,0,0,0,0,0
5,59999,73,50000,91,10000,49,9999,0.100000,0,0,0.000000,6,3.000000,0.000000,8.104010,0,0,0,0,0,0,0
5,59999,74,50000,2,10000,49,9999,0.100000,0,0,0.000000,6,4.000000,0.000000,8.858546,0,0,0,0,0,0,0
5,59999,75,50000,48,0,40,9999,0.100000,0,0,0.000000,6,0.000000,0.000000,1.108439,0,0,0,0,0,0,0
5,59999,76,50000,2,0,49,9999,0.100000,0,0,0.000000,6,2.000000,0.000000,5.287856,0,0,0,0,0,0,0
5,59999,77,50000,91,10000,49,9999,0.100000,0,0,0.000000,6,1.000000,0.000000,1.349177,0,0,0,0,0,0,0
5,59999,78,50000,91,10000,49,9999,0.100000,0,0,0.000000,6,2.000000,0.000000,2.287144,0,0,0,0,0,0,0
5,59999,79,50000,52,10000,49,9999,0.100000,0,0,0.000000,6,4.000000,0.000000,4.575572,0,0,0,0,0,0,0
5,59999,80,50000,91,10000,40,9999,0.100000,0,0,0.000000,6,0.000000,0.000000,0.395585,0,0,0,0,0,0,0
5,59999,81,50000,91,10000,40,9999,0.100000,0,0,0.000000,6,0.000000,0.000000,0.340778,0,0,0,0,0,0,0
5,59999,82,50000,48,0,40,9999,0.100000,0,0,0.000000,6,0.000000,0.000000,0.373318,0,0,0,0,0,0,0
5,59999,83,50000,2,0,40,9999,0.100000,0,0,0.000000,6,0.000000,0.000000,0.558684,0,0,0,0,0,0,0
5,59999,84,50000,2,0,40,9999,0.100000,0,0,0.000000,6,0.000000,0.000000,0.221154,0,0,0,0,0,0,0
5,59999,85,50000,9,20000,49,9999,0.100000,0,0,0.000000,6,1.000000,0.000000,8.267909,0,0,0,0,0,0,0
5,59999,86,50000,52,40000,40,9999,0.100000,0,0,0.000000,6,0.000000,0.000000,1.322513,0,0,0,0,0,0,0
5,59999,87,50000,2,10000,40,9999,0.100000,0,0,0.000000,6,0.000000,0.000000,0.167307,0,0,0,0,0,0,0
5,59999,88,50000,2,10000,49,9999,0.100000,0,0,0.000000,6,7.000000,0.000000,14.640501,0,0,0,0,0,0,0
5,59999,89,50000,52,10000,99,9999,0.100000,0,0,34.210526,6,5.000000,0.000000,9.787093,0,0,1,0,0,0,0
5,59999,90,50000,48,0,49,9999,0.100000,0,0,0.000000,6,1.000000,0.000000,1.932277,0,0,0,0,0,0,0
5,59999,91,50000,52,10000,40,9999,0.100000,0,0,0.000000,6,0.000000,0.000000,0.589101,0,0,0,0,0,0,0
5,59999,92,50000,48,0,49,9999,0.100000,0,0,0.000000,6,2.000000,0.000000,7.831981,0,0,0,0,0,0,0
5,59999,93,50000,52,10000,49,9999,0.100000,0,0,0.000000,6,1.000000,0.000000,2.565636,0,0,0,0,0,0,0
5,59999,94,50000,2,10000,40,9999,0.100000,0,0,0.000000,6,0.000000,0.000000,0.941693,0,0,0,0,0,0,0
5,59999,95,50000,52,10000,49,9999,0.100000,0,0,0.000000,6,5.000000,0.000000,15.541597,0,0,0,0,0,0,0
5,59999,96,50000,2,10000,40,9999,0.100000,0,0,0.000000,6,0.000000,0.000000,0.588762,0,0,0,0,0,0,0
5,59999,97,50000,2,10000,40,9999,0.100000,0,0,0.000000,6,0.000000,0.000000,0.754493,0,0,0,0,0,0,0
5,59999,98,50000,52,10000,49,9999,0.100000,0,0,0.000000,6,1.000000,0.000000,3.546892,0,0,0,0,0,0,0
5,59999,99,50000,2,0,40,9999,0.100000,0,0,0.000000,6,0.000000,0.000000,0.295987,0,0,0,0,0,0,0
6,69999,0,60000,52,40000,40,9999,0.100000,0,0,0.000000,6,0.000000,0.000000,0.093075,0,0,0,0,0,0,0
6,69999,1,60000,91,10000,40,9999,0.100000,0,0,0.000000,6,0.000000,0.000000,0.159131,0,0,0,0,0,0,0
6,69999,2,60000,52,40000,40,9999,0.100000,0,0,0.000000,6,0.000000,0.000000,0.255731,0,0,0,0,0,0,0
6,69999,3,60000,91,10000,40,9999,0.100000,0,0,0.000000,6,0.000000,0.000000,1.260716,0,0,0,0,0,0,0
6,69999,4,60000,52,40000,40,9999,0.100000,0,0,0.000000,6,0.000000,0.000000,0.740508,0,0,0,0,0,0,0
6,69999,5,60000,2,10000,40,9999,0.100000,0,0,0.000000,6,0.000000,0.000000,2.876171,0,0,0,0,0,0,0
6,69999,6,60000,2,10000,40,9999,0.100000,0,0,0.000000,6,0.000000,0.000000,0.092663,0,0,0,0,0,0,0
6,69999,7,60000,52,40000,40,9999,0.100000,0,0,0.000000,6,0.000000,0.000000,0.232170,0,0,0,0,0,0,0
6,69999,8,60000,48,0,49,9999,0.100000,0,0,0.000000,6,1.000000,0.000000,6.382436,0,0,0,0,0,0,0
6,69999,9,60000,2,0,40,9999,0.100000,0,0,0.000000,6,0.000000,0.000000,1.372036,0,0,0,0,0,0,0
6,69999,10,60000,2,10000,49,9999,0.100000,0,0,0.000000,6,1.000000,0.000000,1.908959,0,0,0,0,0,0,0
6,69999,11,50000,9,20000,40,19999,0.100000,0,0,0.000000,6,0.000000,0.000000,2.231825,0,0,0,0,0,0,0
6,69999,12,60000,52,10000,40,9999,0.100000,0,0,0.000000,6,0.000000,0.000000,1.154264,0,0,0,0,0,0,0
6,69999,13,60000,2,0,49,9999,0.100000,0,0,0.000000,6,7.000000,0.000000,14.657412,0,0,0,0,0,0,0
6,69999,14,60000,48,0,40,9999,0.100000,0,0,0.000000,6,0.000000,0.000000,2.760073,0,0,0,0,0,0,0
6,69999,15,60000,48,0,40,9999,0.100000,0,0,0.000000,6,0.000000,0.000000,0.578461,0,0,0,0,0,0,0
6,69999,16,60000,91,10000,40,9999,0.100000,0,0,0.000000,6,0.000000,0.000000,0.098792,0,0,0,0,0,0,0
6,69999,17,60000,2,0,49,9999,0.100000,0,0,0.000000,6,2.000000,0.000000,5.237890,0,0,0,0,0,0,0
6,69999,18,60000,2,10000,40,9999,0.100000,0,0,0.000000,6,0.000000,0.000000,0.142408,0,0,0,0,0,0,0
6,69999,19,60000,52,10000,40,9999,0.100000,0,0,0.000000,6,0.000000,0.000000,1.502383,0,0,0,0,0,0,0
6,69999,20,60000,2,0,40,9999,0.100000,0,0,0.000000,6,0.000000,0.000000,1.005782,0,0,0,0,0,0,0
6,69999,21,60000,2,10000,40,9999,0.100000,0,0,0.000000,6,0.000000,0.000000,2.816705,0,0,0,0,0,0,0
6,69999,22,60000,52,10000,40,9999,0.100000,0,0,0.000000,6,0.000000,0.000000,0.127340,0,0,0,0,0,0,0
6,69999,23,60000,91,10000,40,9999,0.100000,0,0,0.000000,6,0.000000,0.000000,0.303418,0,0,0,0,0,0,0
6,69999,24,60000,48,0,40,9999,0.100000,0,0,0.000000,6,0.000000,0.000000,0.845877,0,0,0,0,0,0,0
6,69999,25,60000,2,0,40,9999,0.100000,0,0,0.000000,6,0.000000,0.000000,0.262557,0,0,0,0,0,0,0
6,69999,26,60000,48,0,40,9999,0.100000,0,0,0.000000,6,0.000000,0.000000,0.512049,0,0,0,0,0,0,0
6,69999,27,60000,2,0,40,9999,0.100000,0,0,0.000000,6,0.000000,0.000000,0.315927,0,0,0,0,0,0,0
6,69999,28,60000,48,0,40,9999,0.100000,0,0,0.000000,6,0.000000,0.000000,0.211519,0,0,0,0,0,0,0
6,69999,29,60000,2,0,49,9999,0.100000,0,0,0.000000,6,1.000000,0.000000,3.379334,0,0,0,0,0,0,0
6,69999,30,60000,2,0,40,9999,0.100000,0,0,0.000000,6,0.000000,0.000000,0.197089,0,0,0,0,0,0,0
6,69999,31,60000,2,10000,49,9999,0.100000,0,0,0.000000,6,1.000000,0.000000,1.112046,0,0,0,0,0,0,0
6,69999,32,60000,2,10000,40,9999,0.100000,0,0,0.000000,6,0.000000,0.000000,1.345521,0,0,0,0,0,0,0
6,69999,33,60000,52,40000,40,9999,0.100000,0,0,0.000000,6,0.000000,0.000000,2.196620,0,0,0,0,0,0,0
6,69999,34,60000,52,40000,40,9999,0.100000,0,0,0.000000,6,0.000000,0.000000,5.487647,0,0,0,0,0,0,0
6,69999,35,60000,52,10000,40,9999,0.100000,0,0,0.000000,6,0.000000,0.000000,0.418999,0,0,0,0,0,0,0
6,69999,36,60000,2,0,49,9999,0.100000,0,0,0.000000,6,1.000000,0.000000,1.779567,0,0,0,0,0,0,0
6,69999,37,60000,52,10000,40,9999,0.100000,0,0,0.000000,6,0.000000,0.000000,0.462252,0,0,0,0,0,0,0
6,69999,38,60000,91,10000,40,9999,0.100000,0,0,0.000000,6,0.000000,0.000000,0.421459,0,0,0,0,0,0,0
6,69999,39,60000,52,10000,40,9999,0.100000,0,0,0.000000,6,0.000000,0.000000,0.103961,0,0,0,0,0,0,0
6,69999,40,60000,48,0,40,9999,0.100000,0,0,0.000000,6,0.000000,0.000000,0.232169,0,0,0,0,0,0,0
6,69999,41,60000,52,40000,40,9999,0.100000,0,0,0.000000,6,0.000000,0.000000,2.245038,0,0,0,0,0,0,0
6,69999,42,60000,52,40000,49,9999,0.100000,0,0,0.000000,6,1.000000,0.000000,2.636599,0,0,0,0,0,0,0
6,69999,43,60000,2,10000,40,9999,0.100000,0,0,0.000000,6,0.000000,0.000000,0.119615,0,0,0,0,0,0,0
6,69999,44,60000,52,10000,49,9999,0.100000,0,0,0.000000,6,6.000000,0.000000,13.626688,0,0,0,0,0,0,0
6,69999,45,60000,2,10000,40,9999,0.100000,0,0,0.000000,6,0.000000,0.000000,0.213942,0,0,0,0,0,0,0
6,69999,46,60000,2,10000,40,9999,0.100000,0,0,0.000000,6,0.000000,0.000000,0.224044,0,0,0,0,0,0,0
6,69999,47,60000,48,0,40,9999,0.100000,0,0,0.000000,6,0.000000,0.000000,2.414457,0,0,0,0,0,0,0
6,69999,48,60000,48,0,40,9999,0.100000,0,0,0.000000,6,0.000000,0.000000,0.564626,0,0,0,0,0,0,0
6,69999,49,60000,2,0,40,9999,0.100000,0,0,0.000000,6,0.000000,0.000000,2.185565,0,0,0,0,0,0,0
6,69999,50,60000,2,10000,40,9999,0.100000,0,0,0.000000,6,0.000000,0.000000,0.212758,0,0,0,0,0,0,0
6,69999,51,60000,52,40000,40,9999,0.100000,0,0,0.000000,6,0.000000,0.000000,0.847468,0,0,0,0,0,0,0
6,69999,52,60000,91,10000,40,9999,0.100000,0,0,0.000000,6,0.000000,0.000000,0.393207,0,0,0,0,0,0,0
6,69999,53,60000,2,0,40,9999,0.100000,0,0,0.000000,6,0.000000,0.000000,0.092595,0,0,0,0,0,0,0
6,69999,54,60000,52,10000,40,9999,0.100000,0,0,0.000000,6,0.000000,0.000000,0.456404,0,0,0,0,0,0,0
6,69999,55,60000,2,0,40,9999,0.100000,0,0,0.000000,6,0.000000,0.000000,0.283992,0,0,0,0,0,0,0
6,69999,56,60000,2,0,49,9999,0.100000,0,0,0.000000,6,2.000000,0.000000,4.773240,0,0,0,0,0,0,0
6,69999,57,60000,52,10000,40,9999,0.100000,0,0,0.000000,6,0.000000,0.000000,0.119671,0,0,0,0,0,0,0
6,69999,58,60000,2,0,40,9999,0.100000,0,0,0.000000,6,0.000000,0.000000,0.308550,0,0,0,0,0,0,0
6,69999,59,60000,2,0,40,9999,0.100000,0,0,0.000000,6,0.000000,0.000000,1.117139,0,0,0,0,0,0,0
6,69999,60,60000,91,10000,49,9999,0.100000,0,0,0.000000,6,3.000000,0.000000,10.371248,0,0,0,0,0,0,0
6,69999,61,60000,52,10000,49,9999,0.100000,0,0,0.000000,6,1.000000,0.000000,1.487374,0,0,0,0,0,0,0
6,69999,62,60000,48,0,49,9999,0.100000,0,0,0.000000,6,8.000000,0.000000,25.250808,0,0,0,0,0,0,0
6,69999,63,60000,48,0,40,9999,0.100000,0,0,0.000000,6,0.000000,0.000000,0.219974,0,0,0,0,0,0,0
6,69999,64,60000,2,10000,40,9999,0.100000,0,0,0.000000,6,0.000000,0.000000,1.036273,0,0,0,0,0,0,0
6,69999,65,60000,2,10000,40,9999,0.100000,0,0,0.000000,6,0.000000,0.000000,0.077152,0,0,0,0,0,0,0
6,69999,66,60000,48,0,49,9999,0.100000,0,0,0.000000,6,3.000000,0.000000,6.360228,0,0,0,0,0,0,0
6,69999,67,60000,52,40000,40,9999,0.100000,0,0,0.000000,6,0.000000,0.000000,0.176316,0,0,0,0,0,0,0
6,69999,68,60000,52,40000,40,9999,0.100000,0,0,0.000000,6,0.000000,0.000000,0.454608,0,0,0,0,0,0,0
6,69999,69,60000,52,10000,40,9999,0.100000,0,0,0.000000,6,0.000000,0.000000,0.061461,0,0,0,0,0,0,0
6,69999,70,60000,48,0,40,9999,0.100000,0,0,0.000000,6,0.000000,0.000000,1.934254,0,0,0,0,0,0,0
6,69999,71,60000,52,10000,40,9999,0.100000,0,0,0.000000,6,0.000000,0.000000,0.768881,0,0,0,0,0,0,0
6,69999,72,60000,91,10000,40,9999,0.100000,0,0,0.000000,6,0.000000,0.000000,0.438914,0,0,0,0,0,0,0
6,69999,73,60000,91,10000,40,9999,0.135000,0,0,0.000000,6,0.000000,0.000000,0.630422,0,0,0,0,0,0,0
6,69999,74,60000,52,10000,40,9999,0.100000,0,0,0.000000,6,0.000000,0.000000,0.531085,0,0,0,0,0,0,0
6,69999,75,60000,52,10000,49,9999,0.100000,0,0,0.000000,6,1.000000,0.000000,4.615651,0,0,0,0,0,0,0
6,69999,76,60000,2,0,40,9999,0.100000,0,0,0.000000,6,0.000000,0.000000,4.652322,0,0,0,0,0,0,0
6,69999,77,60000,52,10000,49,9999,0.100000,0,0,0.000000,6,4.000000,0.000000,11.373102,0,0,0,0,0,0,0
6,69999,78,60000,52,10000,49,9999,0.100000,0,0,0.000000,6,1.000000,0.000000,1.640833,0,0,0,0,0,0,0
6,69999,79,60000,48,0,40,9999,0.100000,0,0,0.000000,6,0.000000,0.000000,0.390386,0,0,0,0,0,0,0
6,69999,80,60000,2,0,40,9999,0.100000,0,0,0.000000,6,0.000000,0.000000,0.409706,0,0,0,0,0,0,0
6,69999,81,60000,2,0,40,9999,0.100000,0,0,0.000000,6,0.000000,0.000000,2.667284,0,0,0,0,0,0,0
6,69999,82,60000,52,40000,49,9999,0.100000,0,0,0.000000,6,1.000000,0.000000,1.321876,0,0,0,0,0,0,0
6,69999,83,60000,2,0,40,9999,0.100000,0,0,0.000000,6,0.000000,0.000000,0.131493,0,0,0,0,0,0,0
6,69999,84,60000,52,10000,40,9999,0.065000,0,0,0.000000,6,0.000000,0.000000,0.248555,0,0,0,0,0,0,0
6,69999,85,60000,2,0,49,9999,0.100000,0,0,0.000000,6,8.000000,0.000000,20.413306,0,0,0,0,0,0,0
6,69999,86,60000,52,10000,40,9999,0.100000,0,0,0.000000,6,0.000000,0.000000,7.007557,0,0,0,0,0,0,0
6,69999,87,60000,2,0,40,9999,0.100000,0,0,0.000000,6,0.000000,0.000000,1.142013,0,0,0,0,0,0,0
6,69999,88,60000,48,0,40,9999,0.100000,0,0,0.000000,6,0.000000,0.000000,0.210855,0,0,0,0,0,0,0
6,69999,89,60000,91,10000,99,9999,0.100000,0,0,34.210526,6,5.000000,0.000000,20.039249,0,0,1,0,0,0,0
6,69999,90,60000,91,10000,49,9999,0.100000,0,0,0.000000,6,1.000000,0.000000,1.318828,0,0,0,0,0,0,0
6,69999,91,60000,2,10000,49,9999,0.100000,0,0,0.000000,6,2.000000,0.000000,6.072166,0,0,0,0,0,0,0
6,69999,92,60000,91,10000,49,9999,0.100000,0,0,0.000000,6,4.000000,0.000000,12.346540,0,0,0,0,0,0,0
6,69999,93,60000,2,0,40,9999,0.100000,0,0,0.000000,6,0.000000,0.000000,0.792393,0,0,0,0,0,0,0
6,69999,94,60000,91,10000,40,9999,0.100000,0,0,0.000000,6,0.000000,0.000000,1.276778,0,0,0,0,0,0,0
6,69999,95,60000,48,0,49,9999,0.100000,0,0,0.000000,6,1.000000,0.000000,1.832712,0,0,0,0,0,0,0
6,69999,96,60000,52,40000,40,9999,0.100000,0,0,0.000000,6,0.000000,0.000000,1.616643,0,0,0,0,0,0,0
6,69999,97,60000,52,40000,40,9999,0.100000,0,0,0.000000,6,0.000000,0.000000,0.518743,0,0,0,0,0,0,0
6,69999,98,60000,52,10000,49,9999,0.100000,0,0,0.000000,6,1.000000,0.000000,4.996871,0,0,0,0,0,0,0
6,69999,99,60000,2,10000,40,9999,0.100000,0,0,0.000000,6,0.000000,0.000000,0.259651,0,0,0,0,0,0,0
7,79999,0,70000,48,0,40,9999,0.100000,0,0,0.000000,6,0.000000,0.000000,0.154749,0,0,0,0,0,0,0
7,79999,1,70000,52,10000,40,9999,0.100000,0,0,0.000000,6,0.000000,0.000000,0.159058,0,0,0,0,0,0,0
7,79999,2,70000,52,10000,40,9999,0.100000,0,0,0.000000,6,0.000000,0.000000,0.264801,0,0,0,0,0,0,0
7,79999,3,70000,2,10000,49,9999,0.100000,0,0,0.000000,6,1.000000,0.000000,4.251778,0,0,0,0,0,0,0
7,79999,4,70000,52,10000,40,9999,0.100000,0,0,0.000000,6,0.000000,0.000000,0.851288,0,0,0,0,0,0,0
7,79999,5,70000,2,10000,49,9999,0.100000,0,0,0.000000,6,1.000000,0.000000,4.596523,0,0,0,0,0,0,0
7,79999,6,70000,48,0,40,9999,0.100000,0,0,0.000000,6,0.000000,0.000000,0.097015,0,0,0,0,0,0,0
7,79999,7,70000,48,0,40,9999,0.100000,0,0,0.000000,6,0.000000,0.000000,0.235277,0,0,0,0,0,0,0
7,79999,8,70000,52,40000,49,9999,0.100000,0,0,0.000000,6,3.000000,0.000000,5.139090,0,0,0,0,0,0,0
7,79999,9,70000,91,10000,40,9999,0.100000,0,0,0.000000,6,0.000000,0.000000,0.362167,0,0,0,0,0,0,0
7,79999,10,70000,2,0,40,9999,0.100000,0,0,0.000000,6,0.000000,0.000000,2.695504,0,0,0,0,0,0,0
7,79999,11,70000,52,40000,40,9999,0.100000,0,0,0.000000,6,0.000000,0.000000,1.106000,0,0,0,0,0,0,0
7,79999,12,70000,2,0,49,9999,0.100000,0,0,0.000000,6,1.000000,0.000000,1.932849,0,0,0,0,0,0,0
7,79999,13,70000,48,0,40,9999,0.100000,0,0,0.000000,6,0.000000,0.000000,0.230117,0,0,0,0,0,0,0
7,79999,14,70000,52,10000,40,9999,0.100000,0,0,0.000000,6,0.000000,0.000000,0.254917,0,0,0,0,0,0,0
7,79999,15,70000,52,10000,40,9999,0.100000,0,0,0.000000,6,0.000000,0.000000,0.474320,0,0,0,0,0,0,0
7,79999,16,70000,52,10000,40,9999,0.100000,0,0,0.000000,6,0.000000,0.000000,0.098342,0,0,0,0,0,0,0
7,79999,17,70000,48,0,40,9999,0.100000,0,0,0.000000,6,0.000000,0.000000,1.810689,0,0,0,0,0,0,0
7,79999,18,70000,48,0,40,9999,0.100000,0,0,0.000000,6,0.000000,0.000000,0.244987,0,0,0,0,0,0,0
7,79999,19,70000,2,0,40,9999,0.100000,0,0,0.000000,6,0.000000,0.000000,0.211679,0,0,0,0,0,0,0
7,79999,20,70000,48,0,40,9999,0.100000,0,0,0.000000,6,0.000000,0.000000,0.989566,0,0,0,0,0,0,0
7,79999,21,70000,52,10000,40,9999,0.100000,0,0,0.000000,6,0.000000,0.000000,2.308405,0,0,0,0,0,0,0
7,79999,22,70000,2,10000,40,9999,0.100000,0,0,0.000000,6,0.000000,0.000000,0.680038,0,0,0,0,0,0,0
7,79999,23,70000,91,10000,40,9999,0.100000,0,0,0.000000,6,0.000000,0.000000,0.554232,0,0,0,0,0,0,0
7,79999,24,70000,91,10000,40,9999,0.100000,0,0,0.000000,6,0.000000,0.000000,0.856243,0,0,0,0,0,0,0
7,79999,25,70000,52,40000,40,9999,0.100000,0,0,0.000000,6,0.000000,0.000000,0.260977,0,0,0,0,0,0,0
7,79999,26,70000,91,10000,40,9999,0.100000,0,0,0.000000,6,0.000000,0.000000,0.437918,0,0,0,0,0,0,0
7,79999,27,70000,52,10000,40,9999,0.100000,0,0,0.000000,6,0.000000,0.000000,0.301715,0,0,0,0,0,0,0
7,79999,28,70000,2,10000,40,9999,0.100000,0,0,0.000000,6,0.000000,0.000000,0.190218,0,0,0,0,0,0,0
7,79999,29,70000,2,10000,49,9999,0.100000,0,0,0.000000,6,3.000000,0.000000,9.286010,0,0,0,0,0,0,0
7,79999,30,70000,52,10000,40,9999,0.100000,0,0,0.000000,6,0.000000,0.000000,0.197323,0,0,0,0,0,0,0
7,79999,31,70000,48,0,49,9999,0.100000,0,0,0.000000,6,1.000000,0.000000,1.382373,0,0,0,0,0,0,0
7,79999,32,70000,52,10000,40,9999,0.100000,0,0,0.000000,6,0.000000,0.000000,1.395457,0,0,0,0,0,0,0
7,79999,33,70000,2,0,40,9999,0.135000,0,0,0.000000,6,0.000000,0.000000,3.187760,0,0,0,0,0,0,0
7,79999,34,70000,52,40000,49,9999,0.100000,0,0,0.000000,6,1.000000,0.000000,5.138698,0,0,0,0,0,0,0
7,79999,35,70000,52,40000,40,9999,0.100000,0,0,0.000000,6,0.000000,0.000000,0.430983,0,0,0,0,0,0,0
7,79999,36,70000,2,0,40,9999,0.100000,0,0,0.000000,6,0.000000,0.000000,1.043794,0,0,0,0,0,0,0
7,79999,37,70000,91,10000,49,9999,0.100000,0,0,0.000000,6,2.000000,0.000000,2.438977,0,0,0,0,0,0,0
7,79999,38,70000,52,40000,40,9999,0.100000,0,0,0.000000,6,0.000000,0.000000,0.454100,0,0,0,0,0,0,0
7,79999,39,70000,52,10000,40,9999,0.100000,0,0,0.000000,6,0.000000,0.000000,0.091465,0,0,0,0,0,0,0
7,79999,40,70000,2,10000,40,9999,0.100000,0,0,0.000000,6,0.000000,0.000000,0.261548,0,0,0,0,0,0,0
7,79999,41,70000,48,0,49,9999,0.100000,0,0,0.000000,6,2.000000,0.000000,7.127096,0,0,0,0,0,0,0
7,79999,42,70000,2,10000,49,9999,0.100000,0,0,0.000000,6,1.000000,0.000000,2.522174,0,0,0,0,0,0,0
7,79999,43,70000,52,10000,40,9999,0.100000,0,0,0.000000,6,0.000000,0.000000,0.120119,0,0,0,0,0,0,0
7,79999,44,70000,52,40000,40,9999,0.100000,0,0,0.000000,6,0.000000,0.000000,0.185785,0,0,0,0,0,0,0
7,79999,45,70000,91,10000,40,9999,0.100000,0,0,0.000000,6,0.000000,0.000000,0.216312,0,0,0,0,0,0,0
7,79999,46,70000,48,0,40,9999,0.100000,0,0,0.000000,6,0.000000,0.000000,1.081648,0,0,0,0,0,0,0
7,79999,47,70000,2,0,40,9999,0.100000,0,0,0.000000,6,0.000000,0.000000,2.266914,0,0,0,0,0,0,0
7,79999,48,70000,48,0,40,9999,0.100000,0,0,0.000000,6,0.000000,0.000000,1.336526,0,0,0,0,0,0,0
7,79999,49,70000,52,10000,49,9999,0.100000,0,0,0.000000,6,1.000000,0.000000,2.167474,0,0,0,0,0,0,0
7,79999,50,70000,48,0,40,9999,0.100000,0,0,0.000000,6,0.000000,0.000000,0.234821,0,0,0,0,0,0,0
7,79999,51,70000,2,10000,40,9999,0.100000,0,0,0.000000,6,0.000000,0.000000,1.035649,0,0,0,0,0,0,0
7,79999,52,70000,52,40000,40,9999,0.100000,0,0,0.000000,6,0.000000,0.000000,0.451322,0,0,0,0,0,0,0
7,79999,53,70000,48,0,40,9999,0.100000,0,0,0.000000,6,0.000000,0.000000,0.160405,0,0,0,0,0,0,0
7,79999,54,70000,48,0,40,9999,0.100000,0,0,0.000000,6,0.000000,0.000000,0.495954,0,0,0,0,0,0,0
7,79999,55,70000,2,10000,40,9999,0.100000,0,0,0.000000,6,0.000000,0.000000,0.157972,0,0,0,0,0,0,0
7,79999,56,70000,52,10000,49,9999,0.100000,0,0,0.000000,6,5.000000,0.000000,10.900280,0,0,0,0,0,0,0
7,79999,57,70000,52,10000,40,9999,0.100000,0,0,0.000000,6,0.000000,0.000000,0.137859,0,0,0,0,0,0,0
7,79999,58,70000,2,0,40,9999,0.100000,0,0,0.000000,6,0.000000,0.000000,0.280168,0,0,0,0,0,0,0
7,79999,59,70000,48,0,40,9999,0.100000,0,0,0.000000,6,0.000000,0.000000,0.907316,0,0,0,0,0,0,0
7,79999,60,70000,91,10000,9,9999,0.100000,0,0,0.000000,6,1.000000,0.000000,9.011110,0,0,0,0,0,1,0
7,79999,61,70000,2,10000,49,9999,0.100000,0,0,0.000000,6,1.000000,0.000000,1.892063,0,0,0,0,0,0,0
7,79999,62,70000,48,0,40,9999,0.100000,0,0,0.000000,6,0.000000,0.000000,3.918036,0,0,0,0,0,0,0
7,79999,63,70000,2,10000,49,9999,0.100000,0,0,0.000000,6,10.000000,0.000000,21.053143,0,0,0,0,0,0,0
7,79999,64,70000,48,0,40,9999,0.100000,0,0,0.000000,6,0.000000,0.000000,1.198072,0,0,0,0,0,0,0
7,79999,65,70000,91,10000,40,9999,0.100000,0,0,0.000000,6,0.000000,0.000000,0.064403,0,0,0,0,0,0,0
7,79999,66,70000,2,10000,40,9999,0.100000,0,0,0.000000,6,0.000000,0.000000,0.136760,0,0,0,0,0,0,0
7,79999,67,70000,52,10000,40,9999,0.100000,0,0,0.000000,6,0.000000,0.000000,0.194582,0,0,0,0,0,0,0
7,79999,68,70000,52,40000,40,9999,0.100000,0,0,0.000000,6,0.000000,0.000000,0.165935,0,0,0,0,0,0,0
7,79999,69,70000,52,40000,40,9999,0.100000,0,0,0.000000,6,0.000000,0.000000,0.061761,0,0,0,0,0,0,0
7,79999,70,70000,2,0,40,9999,0.100000,0,0,0.000000,6,0.000000,0.000000,0.222087,0,0,0,0,0,0,0
7,79999,71,70000,48,0,40,9999,0.100000,0,0,0.000000,6,0.000000,0.000000,0.147348,0,0,0,0,0,0,0
7,79999,72,70000,52,40000,40,9999,0.100000,0,0,0.000000,6,0.000000,0.000000,0.478219,0,0,0,0,0,0,0
7,79999,73,70000,48,0,49,9999,0.100000,0,0,0.000000,6,1.000000,0.000000,2.261926,0,0,0,0,0,0,0
7,79999,74,70000,48,0,49,9999,0.100000,0,0,0.000000,6,2.000000,0.000000,2.859021,0,0,0,0,0,0,0
7,79999,75,70000,52,10000,40,9999,0.100000,0,0,0.000000,6,0.000000,0.000000,1.057779,0,0,0,0,0,0,0
7,79999,76,70000,91,10000,49,9999,0.100000,0,0,0.000000,6,4.000000,0.000000,11.208954,0,0,0,0,0,0,0
7,79999,77,70000,2,0,40,9999,0.100000,0,0,0.000000,6,0.000000,0.000000,0.657876,0,0,0,0,0,0,0
7,79999,78,70000,2,0,49,9999,0.100000,0,0,0.000000,6,2.000000,0.000000,2.139755,0,0,0,0,0,0,0
7,79999,79,70000,2,10000,49,9999,0.100000,0,0,0.000000,6,6.000000,0.000000,13.429041,0,0,0,0,0,0,0
7,79999,80,70000,2,0,40,9999,0.100000,0,0,0.000000,6,0.000000,0.000000,0.452559,0,0,0,0,0,0,0
7,79999,81,70000,91,10000,40,9999,0.100000,0,0,0.000000,6,0.000000,0.000000,0.305656,0,0,0,0,0,0,0
7,79999,82,70000,91,10000,40,9999,0.100000,0,0,0.000000,6,0.000000,0.000000,1.815554,0,0,0,0,0,0,0
7,79999,83,70000,91,10000,40,9999,0.100000,0,0,0.000000,6,0.000000,0.000000,0.133532,0,0,0,0,0,0,0
7,79999,84,70000,48,0,40,9999,0.100000,0,0,0.000000,6,0.000000,0.000000,0.173879,0,0,0,0,0,0,0
7,79999,85,70000,2,10000,40,9999,0.100000,0,0,0.000000,6,0.000000,0.000000,2.040957,0,0,0,0,0,0,0
7,79999,86,70000,52,10000,49,9999,0.100000,0,0,0.000000,6,7.000000,0.000000,22.430997,0,0,0,0,0,0,0
7,79999,87,70000,2,10000,40,9999,0.100000,0,0,0.000000,6,0.000000,0.000000,1.187650,0,0,0,0,0,0,0
7,79999,88,70000,91,10000,40,9999,0.100000,0,0,0.000000,6,0.000000,0.000000,0.167200,0,0,0,0,0,0,0
7,79999,89,70000,2,0,40,9999,0.100000,0,0,0.000000,6,0.000000,0.000000,2.472836,0,0,0,0,0,0,0
7,79999,90,70000,2,10000,49,9999,0.100000,0,0,0.000000,6,1.000000,0.000000,1.644269,0,0,0,0,0,0,0
7,79999,91,70000,52,40000,40,9999,0.100000,0,0,0.000000,6,0.000000,0.000000,0.514566,0,0,0,0,0,0,0
7,79999,92,70000,52,40000,49,9999,0.100000,0,0,0.000000,6,1.000000,0.000000,2.201711,0,0,0,0,0,0,0
7,79999,93,70000,2,10000,40,9999,0.100000,0,0,0.000000,6,0.000000,0.000000,0.780193,0,0,0,0,0,0,0
7,79999,94,70000,52,40000,40,9999,0.100000,0,0,0.000000,6,0.000000,0.000000,0.850385,0,0,0,0,0,0,0
7,79999,95,70000,91,10000,40,9999,0.100000,0,0,0.000000,6,0.000000,0.000000,1.128052,0,0,0,0,0,0,0
7,79999,96,70000,2,0,0,9999,0.100000,0,0,0.000000,6,0.000000,0.000000,2.216605,0,0,0,0,0,1,0
7,79999,97,70000,52,10000,40,9999,0.100000,0,0,0.000000,6,0.000000,0.000000,0.155545,0,0,0,0,0,0,0
7,79999,98,70000,48,0,40,9999,0.100000,0,0,0.000000,6,0.000000,0.000000,6.499125,0,0,0,0,0,0,0
7,79999,99,70000,2,0,40,9999,0.100000,0,0,0.000000,6,0.000000,0.000000,0.185901,0,0,0,0,0,0,0
8,89999,0,80000,2,10000,40,9999,0.100000,0,0,0.000000,6,0.000000,0.000000,0.119453,0,0,0,0,0,0,0
8,89999,1,80000,2,0,40,9999,0.100000,0,0,0.000000,6,0.000000,0.000000,0.353402,0,0,0,0,0,0,0
8,89999,2,80000,52,40000,40,9999,0.100000,0,0,0.000000,6,0.000000,0.000000,0.836143,0,0,0,0,0,0,0
8,89999,3,80000,48,0,40,9999,0.100000,0,0,0.000000,6,0.000000,0.000000,4.371129,0,0,0,0,0,0,0
8,89999,4,80000,2,0,40,9999,0.100000,0,0,0.000000,6,0.000000,0.000000,0.815049,0,0,0,0,0,0,0
8,89999,5,80000,48,0,40,9999,0.100000,0,0,0.000000,6,0.000000,0.000000,2.503431,0,0,0,0,0,0,0
8,89999,6,80000,52,40000,40,9999,0.100000,0,0,0.000000,6,0.000000,0.000000,0.313266,0,0,0,0,0,0,0
8,89999,7,80000,2,0,40,9999,0.100000,0,0,0.000000,6,0.000000,0.000000,0.254366,0,0,0,0,0,0,0
8,89999,8,80000,52,40000,49,9999,0.100000,0,0,0.000000,6,1.000000,0.000000,6.065650,0,0,0,0,0,0,0
8,89999,9,80000,91,10000,40,9999,0.100000,0,0,0.000000,6,0.000000,0.000000,7.766535,0,0,0,0,0,0,0
8,89999,10,80000,48,0,40,9999,0.100000,0,0,0.000000,6,0.000000,0.000000,1.324151,0,0,0,0,0,0,0
8,89999,11,80000,2,0,49,9999,0.100000,0,0,0.000000,6,1.000000,0.000000,21.341892,0,0,0,0,0,0,0
8,89999,12,80000,52,70000,40,9999,0.100000,0,0,0.000000,6,0.000000,0.000000,1.843039,0,0,0,0,0,0,0
8,89999,13,80000,52,40000,49,9999,0.100000,0,0,0.000000,6,3.000000,0.000000,3.841159,0,0,0,0,0,0,0
8,89999,14,80000,2,0,40,9999,0.100000,0,0,0.000000,6,0.000000,0.000000,2.159200,0,0,0,0,0,0,0
8,89999,15,80000,2,10000,40,9999,0.100000,0,0,0.000000,6,0.000000,0.000000,0.475922,0,0,0,0,0,0,0
8,89999,16,80000,48,0,40,9999,0.100000,0,0,0.000000,6,0.000000,0.000000,0.098639,0,0,0,0,0,0,0
8,89999,17,80000,52,40000,40,9999,0.100000,0,0,0.000000,6,0.000000,0.000000,4.251823,0,0,0,0,0,0,0
8,89999,18,80000,48,0,40,9999,0.100000,0,0,0.000000,6,0.000000,0.000000,0.625170,0,0,0,0,0,0,0
8,89999,19,80000,2,0,40,9999,0.100000,0,0,0.000000,6,0.000000,0.000000,0.190274,0,0,0,0,0,0,0
8,89999,20,80000,2,0,40,9999,0.100000,0,0,0.000000,6,0.000000,0.000000,0.998510,0,0,0,0,0,0,0
8,89999,21,80000,91,10000,49,9999,0.100000,0,0,0.000000,6,2.000000,0.000000,3.313643,0,0,0,0,0,0,0
8,89999,22,80000,2,10000,49,9999,0.100000,0,0,0.000000,6,1.000000,0.000000,1.935116,0,0,0,0,0,0,0
8,89999,23,80000,2,10000,40,9999,0.100000,0,0,0.000000,6,0.000000,0.000000,0.208136,0,0,0,0,0,0,0
8,89999,24,80000,48,0,40,9999,0.100000,0,0,0.000000,6,0.000000,0.000000,0.794275,0,0,0,0,0,0,0
8,89999,25,80000,52,70000,49,9999,0.100000,0,0,0.000000,6,1.000000,0.000000,1.741344,0,0,0,0,0,0,0
8,89999,26,80000,2,10000,40,9999,0.100000,0,0,0.000000,6,0.000000,0.000000,0.435520,0,0,0,0,0,0,0
8,89999,27,80000,91,10000,40,9999,0.100000,0,0,0.000000,6,0.000000,0.000000,0.301496,0,0,0,0,0,0,0
8,89999,28,80000,52,40000,40,9999,0.100000,0,0,0.000000,6,0.000000,0.000000,1.223208,0,0,0,0,0,0,0
8,89999,29,80000,48,0,49,9999,0.100000,0,0,0.000000,6,3.000000,0.000000,10.840263,0,0,0,0,0,0,0
8,89999,30,80000,48,0,40,9999,0.100000,0,0,0.000000,6,0.000000,0.000000,0.158860,0,0,0,0,0,0,0
8,89999,31,80000,2,0,40,9999,0.100000,0,0,0.000000,6,0.000000,0.000000,0.486237,0,0,0,0,0,0,0
8,89999,32,80000,2,10000,40,9999,0.100000,0,0,0.000000,6,0.000000,0.000000,0.803644,0,0,0,0,0,0,0
8,89999,33,80000,52,40000,49,9999,0.100000,0,0,0.000000,6,7.000000,0.000000,16.483528,0,0,0,0,0,0,0
8,89999,34,80000,52,70000,49,9999,0.100000,0,0,0.000000,6,1.000000,0.000000,3.703121,0,0,0,0,0,0,0
8,89999,35,80000,52,70000,40,9999,0.100000,0,0,0.000000,6,0.000000,0.000000,0.408691,0,0,0,0,0,0,0
8,89999,36,80000,91,10000,40,9999,0.100000,0,0,0.000000,6,0.000000,0.000000,1.269033,0,0,0,0,0,0,0
8,89999,37,80000,2,0,49,9999,0.100000,0,0,0.000000,6,1.000000,0.000000,1.739644,0,0,0,0,0,0,0
8,89999,38,80000,52,70000,49,9999,0.100000,0,0,0.000000,6,1.000000,0.000000,1.187128,0,0,0,0,0,0,0
8,89999,39,80000,52,40000,40,9999,0.100000,0,0,0.000000,6,0.000000,0.000000,0.096837,0,0,0,0,0,0,0
8,89999,40,80000,48,0,40,9999,0.100000,0,0,0.000000,6,0.000000,0.000000,0.231540,0,0,0,0,0,0,0
8,89999,41,80000,91,10000,49,9999,0.100000,0,0,0.000000,6,2.000000,0.000000,22.366572,0,0,0,0,0,0,0
8,89999,42,80000,52,70000,40,9999,0.100000,0,0,0.000000,6,0.000000,0.000000,3.023825,0,0,0,0,0,0,0
8,89999,43,80000,91,10000,40,9999,0.100000,0,0,0.000000,6,0.000000,0.000000,0.665288,0,0,0,0,0,0,0
8,89999,44,80000,2,0,40,9999,0.100000,0,0,0.000000,6,0.000000,0.000000,0.121098,0,0,0,0,0,0,0
8,89999,45,80000,52,40000,49,9999,0.100000,0,0,0.000000,6,4.000000,0.000000,4.493973,0,0,0,0,0,0,0
8,89999,46,80000,52,40000,49,9999,0.100000,0,0,0.000000,6,1.000000,0.000000,1.423257,0,0,0,0,0,0,0
8,89999,47,80000,52,10000,40,9999,0.100000,0,0,0.000000,6,0.000000,0.000000,2.290623,0,0,0,0,0,0,0
8,89999,48,80000,48,0,49,9999,0.100000,0,0,0.000000,6,1.000000,0.000000,2.013004,0,0,0,0,0,0,0
8,89999,49,80000,52,40000,40,9999,0.100000,0,0,0.000000,6,0.000000,0.000000,1.082477,0,0,0,0,0,0,0
8,89999,50,80000,52,10000,40,9999,0.100000,0,0,0.000000,6,0.000000,0.000000,0.904449,0,0,0,0,0,0,0
8,89999,51,80000,52,40000,49,9999,0.100000,0,0,0.000000,6,8.000000,0.000000,18.322263,0,0,0,0,0,0,0
8,89999,52,80000,48,0,40,9999,0.100000,0,0,0.000000,6,0.000000,0.000000,0.179151,0,0,0,0,0,0,0
8,89999,53,80000,2,0,40,9999,0.100000,0,0,0.000000,6,0.000000,0.000000,0.176039,0,0,0,0,0,0,0
8,89999,54,80000,2,0,40,9999,0.100000,0,0,0.000000,6,0.000000,0.000000,0.439063,0,0,0,0,0,0,0
8,89999,55,80000,52,10000,40,9999,0.100000,0,0,0.000000,6,0.000000,0.000000,0.176682,0,0,0,0,0,0,0
8,89999,56,80000,48,0,49,9999,0.100000,0,0,0.000000,6,1.000000,0.000000,1.423805,0,0,0,0,0,0,0
8,89999,57,80000,52,40000,40,9999,0.100000,0,0,0.000000,6,0.000000,0.000000,0.113853,0,0,0,0,0,0,0
8,89999,58,80000,52,70000,40,9999,0.100000,0,0,0.000000,6,0.000000,0.000000,0.305305,0,0,0,0,0,0,0
8,89999,59,80000,52,40000,40,9999,0.100000,0,0,0.000000,6,0.000000,0.000000,0.910286,0,0,0,0,0,0,0
8,89999,60,80000,48,0,40,9999,0.100000,0,0,0.000000,6,0.000000,0.000000,6.788415,0,0,0,0,0,0,0
8,89999,61,80000,52,40000,40,9999,0.100000,0,0,0.000000,6,0.000000,0.000000,0.681415,0,0,0,0,0,0,0
8,89999,62,80000,91,10000,40,9999,0.100000,0,0,0.000000,6,0.000000,0.000000,3.990585,0,0,0,0,0,0,0
8,89999,63,80000,52,40000,49,9999,0.100000,0,0,0.000000,6,3.000000,0.000000,3.925143,0,0,0,0,0,0,0
8,89999,64,80000,52,70000,40,9999,0.100000,0,0,0.000000,6,0.000000,0.000000,1.300973,0,0,0,0,0,0,0
8,89999,65,80000,2,10000,40,9999,0.100000,0,0,0.000000,6,0.000000,0.000000,0.103103,0,0,0,0,0,0,0
8,89999,66,80000,2,0,40,9999,0.100000,0,0,0.000000,6,0.000000,0.000000,0.134281,0,0,0,0,0,0,0
8,89999,67,80000,52,10000,40,9999,0.100000,0,0,0.000000,6,0.000000,0.000000,0.184157,0,0,0,0,0,0,0
8,89999,68,80000,52,40000,40,9999,0.100000,0,0,0.000000,6,0.000000,0.000000,0.488520,0,0,0,0,0,0,0
8,89999,69,80000,2,10000,40,9999,0.100000,0,0,0.000000,6,0.000000,0.000000,0.083516,0,0,0,0,0,0,0
8,89999,70,80000,2,0,40,9999,0.100000,0,0,0.000000,6,0.000000,0.000000,0.121390,0,0,0,0,0,0,0
8,89999,71,80000,52,10000,40,9999,0.100000,0,0,0.000000,6,0.000000,0.000000,0.152536,0,0,0,0,0,0,0
8,89999,72,80000,91,10000,49,9999,0.100000,0,0,0.000000,6,1.000000,0.000000,1.704121,0,0,0,0,0,0,0
8,89999,73,80000,2,10000,49,9999,0.100000,0,0,0.000000,6,1.000000,0.000000,4.462977,0,0,0,0,0,0,0
8,89999,74,80000,52,70000,49,9999,0.100000,0,0,0.000000,6,1.000000,0.000000,1.612912,0,0,0,0,0,0,0
8,89999,75,80000,2,0,49,9999,0.100000,0,0,0.000000,6,1.000000,0.000000,25.526351,0,0,0,0,0,0,0
8,89999,76,80000,52,40000,49,9999,0.100000,0,0,0.000000,6,2.000000,0.000000,10.464463,0,0,0,0,0,0,0
8,89999,77,80000,52,40000,40,9999,0.100000,0,0,0.000000,6,0.000000,0.000000,1.032219,0,0,0,0,0,0,0
8,89999,78,80000,52,40000,40,9999,0.100000,0,0,0.000000,6,0.000000,0.000000,0.731993,0,0,0,0,0,0,0
8,89999,79,80000,2,0,49,9999,0.100000,0,0,0.000000,6,5.000000,0.000000,21.364199,0,0,0,0,0,0,0
8,89999,80,80000,52,70000,40,9999,0.100000,0,0,0.000000,6,0.000000,0.000000,0.473450,0,0,0,0,0,0,0
8,89999,81,80000,48,0,40,9999,0.100000,0,0,0.000000,6,0.000000,0.000000,1.262288,0,0,0,0,0,0,0
8,89999,82,80000,2,10000,40,9999,0.100000,0,0,0.000000,6,0.000000,0.000000,1.386737,0,0,0,0,0,0,0
8,89999,83,80000,52,40000,40,9999,0.100000,0,0,0.000000,6,0.000000,0.000000,0.138878,0,0,0,0,0,0,0
8,89999,84,80000,91,10000,40,9999,0.100000,0,0,0.000000,6,0.000000,0.000000,0.186320,0,0,0,0,0,0,0
8,89999,85,80000,91,10000,49,9999,0.100000,0,0,0.000000,6,3.000000,0.000000,6.418155,0,0,0,0,0,0,0
8,89999,86,80000,52,70000,49,9999,0.100000,0,0,0.000000,6,1.000000,0.000000,4.983203,0,0,0,0,0,0,0
8,89999,87,80000,2,10000,40,9999,0.100000,0,0,0.000000,6,0.000000,0.000000,0.744177,0,0,0,0,0,0,0
8,89999,88,80000,52,10000,40,9999,0.100000,0,0,0.000000,6,0.000000,0.000000,0.171767,0,0,0,0,0,0,0
8,89999,89,80000,52,40000,40,9999,0.100000,0,0,0.000000,6,0.000000,0.000000,0.447827,0,0,0,0,0,0,0
8,89999,90,80000,91,10000,40,9999,0.100000,0,0,0.000000,6,0.000000,0.000000,0.590606,0,0,0,0,0,0,0
8,89999,91,80000,48,0,40,9999,0.100000,0,0,0.000000,6,0.000000,0.000000,0.611781,0,0,0,0,0,0,0
8,89999,92,80000,52,40000,40,9999,0.100000,0,0,0.000000,6,0.000000,0.000000,2.220877,0,0,0,0,0,0,0
8,89999,93,80000,52,40000,40,9999,0.100000,0,0,0.000000,6,0.000000,0.000000,0.803153,0,0,0,0,0,0,0
8,89999,94,80000,2,0,40,9999,0.100000,0,0,0.000000,6,0.000000,0.000000,0.672943,0,0,0,0,0,0,0
8,89999,95,80000,52,40000,40,9999,0.100000,0,0,0.000000,6,0.000000,0.000000,1.243035,0,0,0,0,0,0,0
8,89999,96,80000,52,40000,40,9999,0.100000,0,0,0.000000,6,0.000000,0.000000,0.610283,0,0,0,0,0,0,0
8,89999,97,80000,91,10000,40,9999,0.100000,0,0,0.000000,6,0.000000,0.000000,0.159074,0,0,0,0,0,0,0
8,89999,98,80000,52,40000,40,9999,0.100000,0,0,0.000000,6,0.000000,0.000000,5.175372,0,0,0,0,0,0,0
8,89999,99,80000,52,70000,40,9999,0.100000,0,0,0.000000,6,0.000000,0.000000,0.285559,0,0,0,0,0,0,0
9,99999,0,90000,48,0,40,9999,0.100000,0,0,0.000000,6,0.000000,0.000000,0.149677,0,0,0,0,0,0,0
9,99999,1,90000,52,70000,40,9999,0.100000,0,0,0.000000,6,0.000000,0.000000,0.281226,0,0,0,0,0,0,0
9,99999,2,90000,2,0,49,9999,0.100000,0,0,0.000000,6,1.000000,0.000000,1.420517,0,0,0,0,0,0,0
9,99999,3,90000,2,0,49,9999,0.100000,0,0,0.000000,6,1.000000,0.000000,5.333582,0,0,0,0,0,0,0
9,99999,4,90000,2,10000,40,9999,0.100000,0,0,0.000000,6,0.000000,0.000000,0.927855,0,0,0,0,0,0,0
9,99999,5,90000,2,0,40,9999,0.100000,0,0,0.000000,6,0.000000,0.000000,0.972257,0,0,0,0,0,0,0
9,99999,6,90000,91,10000,40,9999,0.100000,0,0,0.000000,6,0.000000,0.000000,0.267167,0,0,0,0,0,0,0
9,99999,7,90000,52,40000,40,9999,0.100000,0,0,0.000000,6,0.000000,0.000000,0.245896,0,0,0,0,0,0,0
9,99999,8,90000,52,70000,49,9999,0.100000,0,0,0.000000,6,1.000000,0.000000,4.437884,0,0,0,0,0,0,0
9,99999,9,90000,52,40000,49,9999,0.100000,0,0,0.000000,6,1.000000,0.000000,3.810207,0,0,0,0,0,0,0
9,99999,10,90000,52,70000,40,9999,0.100000,0,0,0.000000,6,0.000000,0.000000,1.209789,0,0,0,0,0,0,0
9,99999,11,90000,48,0,40,9999,0.100000,0,0,0.000000,6,0.000000,0.000000,2.936589,0,0,0,0,0,0,0
9,99999,12,90000,52,70000,49,9999,0.100000,0,0,0.000000,6,1.000000,0.000000,1.283973,0,0,0,0,0,0,0
9,99999,13,90000,52,40000,40,9999,0.100000,0,0,0.000000,6,0.000000,0.000000,0.171032,0,0,0,0,0,0,0
9,99999,14,90000,52,40000,40,9999,0.100000,0,0,0.000000,6,0.000000,0.000000,1.433564,0,0,0,0,0,0,0
9,99999,15,90000,52,70000,40,9999,0.100000,0,0,0.000000,6,0.000000,0.000000,0.474786,0,0,0,0,0,0,0
9,99999,16,90000,48,0,40,9999,0.100000,0,0,0.000000,6,0.000000,0.000000,0.098880,0,0,0,0,0,0,0
9,99999,17,90000,2,10000,40,9999,0.100000,0,0,0.000000,6,0.000000,0.000000,0.673293,0,0,0,0,0,0,0
9,99999,18,90000,52,70000,40,9999,0.100000,0,0,0.000000,6,0.000000,0.000000,0.296361,0,0,0,0,0,0,0
9,99999,19,90000,52,40000,40,9999,0.100000,0,0,0.000000,6,0.000000,0.000000,0.673742,0,0,0,0,0,0,0
9,99999,20,90000,91,10000,40,9999,0.100000,0,0,0.000000,6,0.000000,0.000000,0.847299,0,0,0,0,0,0,0
9,99999,21,90000,52,70000,40,9999,0.100000,0,0,0.000000,6,0.000000,0.000000,0.747719,0,0,0,0,0,0,0
9,99999,22,90000,91,10000,40,9999,0.100000,0,0,0.000000,6,0.000000,0.000000,1.000680,0,0,0,0,0,0,0
9,99999,23,90000,2,0,40,9999,0.100000,0,0,0.000000,6,0.000000,0.000000,0.242074,0,0,0,0,0,0,0
9,99999,24,90000,2,0,40,9999,0.100000,0,0,0.000000,6,0.000000,0.000000,0.744168,0,0,0,0,0,0,0
9,99999,25,90000,2,0,49,9999,0.100000,0,0,0.000000,6,1.000000,0.000000,2.025237,0,0,0,0,0,0,0
9,99999,26,90000,52,40000,40,9999,0.100000,0,0,0.000000,6,0.000000,0.000000,0.440329,0,0,0,0,0,0,0
9,99999,27,90000,91,10000,40,9999,0.100000,0,0,0.000000,6,0.000000,0.000000,0.319802,0,0,0,0,0,0,0
9,99999,28,90000,52,70000,40,9999,0.100000,0,0,0.000000,6,0.000000,0.000000,0.167079,0,0,0,0,0,0,0
9,99999,29,90000,48,0,49,9999,0.100000,0,0,0.000000,6,2.000000,0.000000,4.435882,0,0,0,0,0,0,0
9,99999,30,90000,91,10000,40,9999,0.100000,0,0,0.000000,6,0.000000,0.000000,0.096023,0,0,0,0,0,0,0
9,99999,31,90000,2,10000,40,9999,0.100000,0,0,0.000000,6,0.000000,0.000000,0.254620,0,0,0,0,0,0,0
9,99999,32,90000,52,70000,40,9999,0.135000,0,0,0.000000,6,0.000000,0.000000,1.141323,0,0,0,0,0,0,0
9,99999,33,90000,52,70000,40,9999,0.100000,0,0,0.000000,6,0.000000,0.000000,1.535769,0,0,0,0,0,0,0
9,99999,34,90000,2,10000,40,9999,0.100000,0,0,0.000000,6,0.000000,0.000000,1.396693,0,0,0,0,0,0,0
9,99999,35,90000,52,40000,40,9999,0.100000,0,0,0.000000,6,0.000000,0.000000,0.419241,0,0,0,0,0,0,0
9,99999,36,90000,2,10000,40,9999,0.100000,0,0,0.000000,6,0.000000,0.000000,1.010552,0,0,0,0,0,0,0
9,99999,37,90000,52,70000,49,9999,0.100000,0,0,0.000000,6,3.000000,0.000000,11.512942,0,0,0,0,0,0,0
9,99999,38,90000,2,0,49,9999,0.100000,0,0,0.000000,6,1.000000,0.000000,1.754544,0,0,0,0,0,0,0
9,99999,39,90000,52,70000,40,9999,0.100000,0,0,0.000000,6,0.000000,0.000000,0.096980,0,0,0,0,0,0,0
9,99999,40,90000,48,0,40,9999,0.100000,0,0,0.000000,6,0.000000,0.000000,0.734418,0,0,0,0,0,0,0
9,99999,41,90000,2,0,49,9999,0.100000,0,0,0.000000,6,1.000000,0.000000,2.837927,0,0,0,0,0,0,0
9,99999,42,90000,91,10000,49,9999,0.100000,0,0,0.000000,6,1.000000,0.000000,12.909482,0,0,0,0,0,0,0
9,99999,43,90000,91,10000,49,9999,0.100000,0,0,0.000000,6,6.000000,0.000000,7.993866,0,0,0,0,0,0,0
9,99999,44,90000,2,0,40,9999,0.100000,0,0,0.000000,6,0.000000,0.000000,0.184652,0,0,0,0,0,0,0
9,99999,45,90000,52,70000,40,9999,0.100000,0,0,0.000000,6,0.000000,0.000000,1.030040,0,0,0,0,0,0,0
9,99999,46,90000,52,40000,40,9999,0.100000,0,0,0.000000,6,0.000000,0.000000,0.187683,0,0,0,0,0,0,0
9,99999,47,90000,2,10000,40,9999,0.100000,0,0,0.000000,6,0.000000,0.000000,1.736301,0,0,0,0,0,0,0
9,99999,48,90000,2,10000,49,9999,0.100000,0,0,0.000000,6,2.000000,0.000000,5.488982,0,0,0,0,0,0,0
9,99999,49,90000,2,0,40,9999,0.100000,0,0,0.000000,6,0.000000,0.000000,1.623300,0,0,0,0,0,0,0
9,99999,50,90000,48,0,40,9999,0.100000,0,0,0.000000,6,0.000000,0.000000,2.555127,0,0,0,0,0,0,0
9,99999,51,90000,52,40000,40,9999,0.100000,0,0,0.000000,6,0.000000,0.000000,0.659126,0,0,0,0,0,0,0
9,99999,52,90000,52,70000,40,9999,0.100000,0,0,0.000000,6,0.000000,0.000000,0.172511,0,0,0,0,0,0,0
9,99999,53,90000,2,10000,40,9999,0.100000,0,0,0.000000,6,0.000000,0.000000,0.117277,0,0,0,0,0,0,0
9,99999,54,90000,91,10000,40,9999,0.100000,0,0,0.000000,6,0.000000,0.000000,0.976391,0,0,0,0,0,0,0
9,99999,55,90000,52,70000,40,9999,0.100000,0,0,0.000000,6,0.000000,0.000000,0.394141,0,0,0,0,0,0,0
9,99999,56,90000,52,70000,40,9999,0.100000,0,0,0.000000,6,0.000000,0.000000,2.199005,0,0,0,0,0,0,0
9,99999,57,90000,2,10000,40,9999,0.100000,0,0,0.000000,6,0.000000,0.000000,0.114974,0,0,0,0,0,0,0
9,99999,58,90000,48,0,40,9999,0.100000,0,0,0.000000,6,0.000000,0.000000,0.287690,0,0,0,0,0,0,0
9,99999,59,90000,52,40000,40,9999,0.100000,0,0,0.000000,6,0.000000,0.000000,0.611281,0,0,0,0,0,0,0
9,99999,60,90000,52,40000,40,9999,0.100000,0,0,0.000000,6,0.000000,0.000000,2.577631,0,0,0,0,0,0,0
9,99999,61,90000,52,70000,40,9999,0.100000,0,0,0.000000,6,0.000000,0.000000,0.328679,0,0,0,0,0,0,0
9,99999,62,90000,2,0,49,9999,0.100000,0,0,0.000000,6,1.000000,0.000000,4.858794,0,0,0,0,0,0,0
9,99999,63,90000,2,10000,40,9999,0.100000,0,0,0.000000,6,0.000000,0.000000,0.167629,0,0,0,0,0,0,0
9,99999,64,90000,91,10000,49,9999,0.100000,0,0,0.000000,6,1.000000,0.000000,1.400376,0,0,0,0,0,0,0
9,99999,65,90000,91,10000,40,9999,0.100000,0,0,0.000000,6,0.000000,0.000000,0.064893,0,0,0,0,0,0,0
9,99999,66,90000,48,0,49,9999,0.100000,0,0,0.000000,6,9.000000,0.000000,21.126293,0,0,0,0,0,0,0
9,99999,67,90000,91,10000,40,9999,0.100000,0,0,0.000000,6,0.000000,0.000000,0.608478,0,0,0,0,0,0,0
9,99999,68,90000,2,10000,40,9999,0.100000,0,0,0.000000,6,0.000000,0.000000,0.704819,0,0,0,0,0,0,0
9,99999,69,90000,52,70000,40,9999,0.100000,0,0,0.000000,6,0.000000,0.000000,0.079136,0,0,0,0,0,0,0
9,99999,70,90000,2,10000,40,9999,0.100000,0,0,0.000000,6,0.000000,0.000000,0.121596,0,0,0,0,0,0,0
9,99999,71,90000,52,70000,40,9999,0.100000,0,0,0.000000,6,0.000000,0.000000,0.181023,0,0,0,0,0,0,0
9,99999,72,80000,91,10000,49,19999,0.100000,0,0,0.000000,6,1.000000,0.000000,2.070191,0,0,0,0,0,0,0
9,99999,73,90000,48,0,49,9999,0.100000,0,0,0.000000,6,2.000000,0.000000,9.049411,0,0,0,0,0,0,0
9,99999,74,90000,52,70000,40,9999,0.100000,0,0,0.000000,6,0.000000,0.000000,2.168495,0,0,0,0,0,0,0
9,99999,75,90000,52,40000,40,9999,0.100000,0,0,0.000000,6,0.000000,0.000000,2.773880,0,0,0,0,0,0,0
9,99999,76,90000,2,0,49,9999,0.100000,0,0,0.000000,6,1.000000,0.000000,4.561287,0,0,0,0,0,0,0
9,99999,77,90000,2,0,40,9999,0.100000,0,0,0.000000,6,0.000000,0.000000,1.411199,0,0,0,0,0,0,0
9,99999,78,90000,2,0,40,9999,0.100000,0,0,0.000000,6,0.000000,0.000000,0.324228,0,0,0,0,0,0,0
9,99999,79,90000,52,70000,40,9999,0.100000,0,0,0.000000,6,0.000000,0.000000,1.366735,0,0,0,0,0,0,0
9,99999,80,90000,91,10000,40,9999,0.100000,0,0,0.000000,6,0.000000,0.000000,0.473154,0,0,0,0,0,0,0
9,99999,81,90000,52,70000,40,9999,0.100000,0,0,0.000000,6,0.000000,0.000000,0.967541,0,0,0,0,0,0,0
9,99999,82,90000,2,0,40,9999,0.100000,0,0,0.000000,6,0.000000,0.000000,1.216687,0,0,0,0,0,0,0
9,99999,83,90000,91,10000,40,9999,0.100000,0,0,0.000000,6,0.000000,0.000000,0.135700,0,0,0,0,0,0,0
9,99999,84,90000,48,0,40,9999,0.100000,0,0,0.000000,6,0.000000,0.000000,0.216578,0,0,0,0,0,0,0
9,99999,85,90000,91,10000,40,9999,0.100000,0,0,0.000000,6,0.000000,0.000000,0.328899,0,0,0,0,0,0,0
9,99999,86,90000,2,10000,40,9999,0.100000,0,0,0.000000,6,0.000000,0.000000,2.868894,0,0,0,0,0,0,0
9,99999,87,90000,2,0,40,9999,0.100000,0,0,0.000000,6,0.000000,0.000000,0.934329,0,0,0,0,0,0,0
9,99999,88,90000,48,0,40,9999,0.100000,0,0,0.000000,6,0.000000,0.000000,0.167646,0,0,0,0,0,0,0
9,99999,89,90000,52,40000,40,9999,0.100000,0,0,0.000000,6,0.000000,0.000000,0.161640,0,0,0,0,0,0,0
9,99999,90,90000,2,0,49,9999,0.100000,0,0,0.000000,6,2.000000,0.000000,5.045846,0,0,0,0,0,0,0
9,99999,91,90000,52,70000,40,9999,0.100000,0,0,0.000000,6,0.000000,0.000000,0.704290,0,0,0,0,0,0,0
9,99999,92,90000,2,0,49,9999,0.100000,0,0,0.000000,6,1.000000,0.000000,1.731905,0,0,0,0,0,0,0
9,99999,93,90000,48,0,49,9999,0.100000,0,0,0.000000,6,4.000000,0.000000,9.618178,0,0,0,0,0,0,0
9,99999,94,90000,2,10000,40,9999,0.100000,0,0,0.000000,6,0.000000,0.000000,1.034091,0,0,0,0,0,0,0
9,99999,95,90000,91,10000,40,9999,0.100000,0,0,0.000000,6,0.000000,0.000000,0.972509,0,0,0,0,0,0,0
9,99999,96,90000,2,0,40,9999,0.100000,0,0,0.000000,6,0.000000,0.000000,0.679993,0,0,0,0,0,0,0
9,99999,97,90000,91,10000,40,9999,0.100000,0,0,0.000000,6,0.000000,0.000000,0.502029,0,0,0,0,0,0,0
9,99999,98,90000,48,0,49,9999,0.100000,0,0,0.000000,6,3.000000,0.000000,5.595153,0,0,0,0,0,0,0
9,99999,99,90000,48,0,40,9999,0.100000,0,0,0.000000,6,0.000000,0.000000,0.276132,0,0,0,0,0,0,0
10,109999,0,100000,52,40000,40,9999,0.100000,0,0,0.000000,6,0.000000,0.000000,0.203991,0,0,0,0,0,0,0
10,109999,1,100000,2,0,40,9999,0.100000,0,0,0.000000,6,0.000000,0.000000,0.251586,0,0,0,0,0,0,0
10,109999,2,100000,91,10000,40,9999,0.100000,0,0,0.000000,6,0.000000,0.000000,0.233843,0,0,0,0,0,0,0
10,109999,3,100000,52,70000,49,9999,0.100000,0,0,0.000000,6,1.000000,0.000000,4.462678,0,0,0,0,0,0,0
10,109999,4,100000,52,40000,40,9999,0.100000,0,0,0.000000,6,0.000000,0.000000,0.650837,0,0,0,0,0,0,0
10,109999,5,100000,48,0,40,9999,0.100000,0,0,0.000000,6,0.000000,0.000000,1.384169,0,0,0,0,0,0,0
10,109999,6,100000,2,0,40,9999,0.100000,0,0,0.000000,6,0.000000,0.000000,0.130681,0,0,0,0,0,0,0
10,109999,7,100000,2,10000,40,9999,0.100000,0,0,0.000000,6,0.000000,0.000000,0.225877,0,0,0,0,0,0,0
10,109999,8,100000,48,0,40,9999,0.100000,0,0,0.000000,6,0.000000,0.000000,0.422195,0,0,0,0,0,0,0
10,109999,9,100000,2,0,49,9999,0.100000,0,0,0.000000,6,1.000000,0.000000,2.979432,0,0,0,0,0,0,0
10,109999,10,100000,52,40000,40,9999,0.100000,0,0,0.000000,6,0.000000,0.000000,1.020725,0,0,0,0,0,0,0
10,109999,11,100000,52,70000,40,9999,0.100000,0,0,0.000000,6,0.000000,0.000000,1.235203,0,0,0,0,0,0,0
10,109999,12,100000,2,10000,40,9999,0.100000,0,0,0.000000,6,0.000000,0.000000,0.891775,0,0,0,0,0,0,0
10,109999,13,100000,52,70000,40,9999,0.100000,0,0,0.000000,6,0.000000,0.000000,0.186536,0,0,0,0,0,0,0
10,109999,14,100000,2,10000,49,9999,0.100000,0,0,0.000000,6,1.000000,0.000000,4.815525,0,0,0,0,0,0,0
10,109999,15,100000,91,10000,49,9999,0.100000,0,0,0.000000,6,3.000000,0.000000,18.368242,0,0,0,0,0,0,0
10,109999,16,100000,48,0,40,9999,0.100000,0,0,0.000000,6,0.000000,0.000000,0.097422,0,0,0,0,0,0,0
10,109999,17,100000,91,10000,40,9999,0.100000,0,0,0.000000,6,0.000000,0.000000,1.513003,0,0,0,0,0,0,0
10,109999,18,100000,2,10000,49,9999,0.100000,0,0,0.000000,6,1.000000,0.000000,1.545736,0,0,0,0,0,0,0
10,109999,19,100000,91,10000,49,9999,0.100000,0,0,0.000000,6,1.000000,0.000000,1.846425,0,0,0,0,0,0,0
10,109999,20,100000,2,10000,40,9999,0.100000,0,0,0.000000,6,0.000000,0.000000,0.669343,0,0,0,0,0,0,0
10,109999,21,100000,91,10000,40,9999,0.100000,0,0,0.000000,6,0.000000,0.000000,0.973656,0,0,0,0,0,0,0
10,109999,22,100000,52,70000,40,9999,0.100000,0,0,0.000000,6,0.000000,0.000000,0.978495,0,0,0,0,0,0,0
10,109999,23,100000,2,0,40,9999,0.100000,0,0,0.000000,6,0.000000,0.000000,0.291557,0,0,0,0,0,0,0
10,109999,24,100000,2,10000,40,9999,0.100000,0,0,0.000000,6,0.000000,0.000000,0.764240,0,0,0,0,0,0,0
10,109999,25,100000,52,40000,40,9999,0.100000,0,0,0.000000,6,0.000000,0.000000,0.661706,0,0,0,0,0,0,0
10,109999,26,100000,2,0,40,9999,0.100000,0,0,0.000000,6,0.000000,0.000000,0.395504,0,0,0,0,0,0,0
10,109999,27,100000,52,70000,40,9999,0.100000,0,0,0.000000,6,0.000000,0.000000,0.257942,0,0,0,0,0,0,0
10,109999,28,100000,52,40000,40,9999,0.100000,0,0,0.000000,6,0.000000,0.000000,0.166289,0,0,0,0,0,0,0
10,109999,29,100000,48,0,49,9999,0.100000,0,0,0.000000,6,2.000000,0.000000,4.851254,0,0,0,0,0,0,0
10,109999,30,100000,2,0,40,9999,0.100000,0,0,0.000000,6,0.000000,0.000000,0.241376,0,0,0,0,0,0,0
10,109999,31,100000,91,10000,40,9999,0.100000,0,0,0.000000,6,0.000000,0.000000,0.219316,0,0,0,0,0,0,0
10,109999,32,100000,2,10000,40,9999,0.100000,0,0,0.000000,6,0.000000,0.000000,0.860049,0,0,0,0,0,0,0
10,109999,33,100000,91,10000,49,9999,0.100000,0,0,0.000000,6,4.000000,0.000000,9.938792,0,0,0,0,0,0,0
10,109999,34,100000,52,70000,40,9999,0.100000,0,0,0.000000,6,0.000000,0.000000,2.745398,0,0,0,0,0,0,0
10,109999,35,100000,52,40000,40,9999,0.100000,0,0,0.000000,6,0.000000,0.000000,0.445665,0,0,0,0,0,0,0
10,109999,36,100000,2,0,40,9999,0.100000,0,0,0.000000,6,0.000000,0.000000,0.988390,0,0,0,0,0,0,0
10,109999,37,100000,52,40000,40,9999,0.100000,0,0,0.000000,6,0.000000,0.000000,0.618824,0,0,0,0,0,0,0
10,109999,38,100000,2,0,40,9999,0.100000,0,0,0.000000,6,0.000000,0.000000,0.268000,0,0,0,0,0,0,0
10,109999,39,100000,48,0,40,9999,0.100000,0,0,0.000000,6,0.000000,0.000000,0.207384,0,0,0,0,0,0,0
10,109999,40,100000,48,0,49,9999,0.100000,0,0,0.000000,6,1.000000,0.000000,1.615753,0,0,0,0,0,0,0
10,109999,41,100000,2,0,49,9999,0.100000,0,0,0.000000,6,1.000000,0.000000,1.982083,0,0,0,0,0,0,0
10,109999,42,100000,2,0,40,9999,0.100000,0,0,0.000000,6,0.000000,0.000000,0.724927,0,0,0,0,0,0,0
10,109999,43,100000,2,0,40,9999,0.100000,0,0,0.000000,6,0.000000,0.000000,0.935067,0,0,0,0,0,0,0
10,109999,44,100000,2,10000,40,9999,0.100000,0,0,0.000000,6,0.000000,0.000000,0.221154,0,0,0,0,0,0,0
10,109999,45,100000,52,40000,40,9999,0.100000,0,0,0.000000,6,0.000000,0.000000,0.813168,0,0,0,0,0,0,0
10,109999,46,100000,2,10000,49,9999,0.100000,0,0,0.000000,6,6.000000,0.000000,12.376052,0,0,0,0,0,0,0
10,109999,47,100000,52,40000,49,9999,0.100000,0,0,0.000000,6,1.000000,0.000000,5.476392,0,0,0,0,0,0,0
10,109999,48,100000,48,0,40,9999,0.100000,0,0,0.000000,6,0.000000,0.000000,5.200450,0,0,0,0,0,0,0
10,109999,49,100000,91,10000,40,9999,0.100000,0,0,0.000000,6,0.000000,0.000000,0.204336,0,0,0,0,0,0,0
10,109999,50,100000,2,10000,40,9999,0.100000,0,0,0.000000,6,0.000000,0.000000,2.211719,0,0,0,0,0,0,0
10,109999,51,100000,52,70000,40,9999,0.100000,0,0,0.000000,6,0.000000,0.000000,0.148743,0,0,0,0,0,0,0
10,109999,52,100000,2,10000,40,9999,0.100000,0,0,0.000000,6,0.000000,0.000000,0.171556,0,0,0,0,0,0,0
10,109999,53,100000,52,40000,40,9999,0.100000,0,0,0.000000,6,0.000000,0.000000,0.636508,0,0,0,0,0,0,0
10,109999,54,100000,48,0,49,9999,0.100000,0,0,0.000000,6,1.000000,0.000000,1.506622,0,0,0,0,0,0,0
10,109999,55,100000,52,40000,40,9999,0.100000,0,0,0.000000,6,0.000000,0.000000,0.488819,0,0,0,0,0,0,0
10,109999,56,100000,2,10000,40,9999,0.100000,0,0,0.000000,6,0.000000,0.000000,0.213542,0,0,0,0,0,0,0
10,109999,57,100000,48,0,40,9999,0.100000,0,0,0.000000,6,0.000000,0.000000,0.208514,0,0,0,0,0,0,0
10,109999,58,100000,2,0,40,9999,0.100000,0,0,0.000000,6,0.000000,0.000000,0.267335,0,0,0,0,0,0,0
10,109999,59,100000,52,70000,49,9999,0.100000,0,0,0.000000,6,2.000000,0.000000,3.633498,0,0,0,0,0,0,0
10,109999,60,100000,91,10000,40,9999,0.100000,0,0,0.000000,6,0.000000,0.000000,4.929599,0,0,0,0,0,0,0
10,109999,61,100000,52,40000,40,9999,0.100000,0,0,0.000000,6,0.000000,0.000000,0.304925,0,0,0,0,0,0,0
10,109999,62,100000,91,10000,40,9999,0.100000,0,0,0.000000,6,0.000000,0.000000,7.233917,0,0,0,0,0,0,0
10,109999,63,100000,52,40000,40,9999,0.100000,0,0,0.000000,6,0.000000,0.000000,0.177325,0,0,0,0,0,0,0
10,109999,64,100000,2,10000,40,9999,0.100000,0,0,0.000000,6,0.000000,0.000000,2.533580,0,0,0,0,0,0,0
10,109999,65,100000,2,0,49,9999,0.100000,0,0,0.000000,6,6.000000,0.000000,13.380701,0,0,0,0,0,0,0
10,109999,66,100000,52,40000,40,9999,0.100000,0,0,0.000000,6,0.000000,0.000000,0.575987,0,0,0,0,0,0,0
10,109999,67,100000,2,0,40,9999,0.100000,0,0,0.000000,6,0.000000,0.000000,0.269852,0,0,0,0,0,0,0
10,109999,68,100000,2,10000,49,9999,0.100000,0,0,0.000000,6,1.000000,0.000000,4.366693,0,0,0,0,0,0,0
10,109999,69,100000,48,0,40,9999,0.100000,0,0,0.000000,6,0.000000,0.000000,0.204799,0,0,0,0,0,0,0
10,109999,70,100000,48,0,40,9999,0.100000,0,0,0.000000,6,0.000000,0.000000,0.205186,0,0,0,0,0,0,0
10,109999,71,100000,52,40000,40,9999,0.100000,0,0,0.000000,6,0.000000,0.000000,1.066991,0,0,0,0,0,0,0
10,109999,72,100000,48,0,40,9999,0.100000,0,0,0.000000,6,0.000000,0.000000,0.582274,0,0,0,0,0,0,0
10,109999,73,100000,91,10000,49,9999,0.100000,0,0,0.000000,6,4.000000,0.000000,16.729163,0,0,0,0,0,0,0
10,109999,74,100000,2,10000,40,9999,0.100000,0,0,0.000000,6,0.000000,0.000000,0.642375,0,0,0,0,0,0,0
10,109999,75,100000,2,10000,40,9999,0.100000,0,0,0.000000,6,0.000000,0.000000,0.992793,0,0,0,0,0,0,0
10,109999,76,100000,52,40000,49,9999,0.100000,0,0,0.000000,6,2.000000,0.000000,6.645856,0,0,0,0,0,0,0
10,109999,77,100000,2,0,49,9999,0.100000,0,0,0.000000,6,1.000000,0.000000,4.551334,0,0,0,0,0,0,0
10,109999,78,100000,52,70000,40,9999,0.100000,0,0,0.000000,6,0.000000,0.000000,0.324235,0,0,0,0,0,0,0
10,109999,79,100000,52,40000,40,9999,0.100000,0,0,0.000000,6,0.000000,0.000000,0.143288,0,0,0,0,0,0,0
10,109999,80,100000,91,10000,40,9999,0.100000,0,0,0.000000,6,0.000000,0.000000,0.448752,0,0,0,0,0,0,0
10,109999,81,100000,48,0,49,9999,0.100000,0,0,0.000000,6,6.000000,0.000000,17.538028,0,0,0,0,0,0,0
10,109999,82,100000,2,10000,40,9999,0.100000,0,0,0.000000,6,0.000000,0.000000,0.815154,0,0,0,0,0,0,0
10,109999,83,100000,91,10000,40,9999,0.100000,0,0,0.000000,6,0.000000,0.000000,0.119448,0,0,0,0,0,0,0
10,109999,84,100000,2,0,40,9999,0.100000,0,0,0.000000,6,0.000000,0.000000,0.196319,0,0,0,0,0,0,0
10,109999,85,100000,52,70000,49,9999,0.100000,0,0,0.000000,6,1.000000,0.000000,2.195137,0,0,0,0,0,0,0
10,109999,86,100000,2,0,40,9999,0.100000,0,0,0.000000,6,0.000000,0.000000,3.064088,0,0,0,0,0,0,0
10,109999,87,100000,2,0,40,9999,0.100000,0,0,0.000000,6,0.000000,0.000000,3.802239,0,0,0,0,0,0,0
10,109999,88,100000,2,0,40,9999,0.100000,0,0,0.000000,6,0.000000,0.000000,0.173671,0,0,0,0,0,0,0
10,109999,89,100000,91,10000,40,9999,0.100000,0,0,0.000000,6,0.000000,0.000000,0.196517,0,0,0,0,0,0,0
10,109999,90,100000,52,70000,40,9999,0.100000,0,0,0.000000,6,0.000000,0.000000,0.285799,0,0,0,0,0,0,0
10,109999,91,100000,2,10000,40,9999,0.100000,0,0,0.000000,6,0.000000,0.000000,0.908834,0,0,0,0,0,0,0
10,109999,92,100000,2,10000,40,9999,0.135000,0,0,0.000000,6,0.000000,0.000000,3.391120,0,0,0,0,0,0,0
10,109999,93,100000,48,0,40,9999,0.100000,0,0,0.000000,6,0.000000,0.000000,0.433850,0,0,0,0,0,0,0
10,109999,94,100000,2,0,49,9999,0.100000,0,0,0.000000,6,1.000000,0.000000,5.750719,0,0,0,0,0,0,0
10,109999,95,100000,52,70000,40,9999,0.100000,0,0,0.000000,6,0.000000,0.000000,0.234103,0,0,0,0,0,0,0
10,109999,96,100000,2,0,40,9999,0.100000,0,0,0.000000,6,0.000000,0.000000,0.659434,0,0,0,0,0,0,0
10,109999,97,100000,2,0,40,9999,0.100000,0,0,0.000000,6,0.000000,0.000000,0.176592,0,0,0,0,0,0,0
10,109999,98,100000,91,10000,49,9999,0.100000,0,0,0.000000,6,1.000000,0.000000,1.381594,0,0,0,0,0,0,0
10,109999,99,100000,91,10000,40,9999,0.100000,0,0,0.000000,6,0.000000,0.000000,0.222826,0,0,0,0,0,0,0
11,119999,0,110000,52,40000,40,9999,0.100000,0,0,0.000000,6,0.000000,0.000000,0.198145,0,0,0,0,0,0,0
11,119999,1,110000,2,0,40,9999,0.100000,0,0,0.000000,6,0.000000,0.000000,0.235771,0,0,0,0,0,0,0
11,119999,2,110000,52,40000,40,9999,0.100000,0,0,0.000000,6,0.000000,0.000000,0.302234,0,0,0,0,0,0,0
11,119999,3,110000,52,40000,49,9999,0.100000,0,0,0.000000,6,1.000000,0.000000,4.552864,0,0,0,0,0,0,0
11,119999,4,110000,48,0,40,9999,0.100000,0,0,0.000000,6,0.000000,0.000000,1.298935,0,0,0,0,0,0,0
11,119999,5,110000,2,10000,40,9999,0.100000,0,0,0.000000,6,0.000000,0.000000,0.695241,0,0,0,0,0,0,0
11,119999,6,110000,52,40000,40,9999,0.100000,0,0,0.000000,6,0.000000,0.000000,0.109217,0,0,0,0,0,0,0
11,119999,7,110000,52,40000,40,9999,0.100000,0,0,0.000000,6,0.000000,0.000000,0.238388,0,0,0,0,0,0,0
11,119999,8,110000,52,70000,40,9999,0.100000,0,0,0.000000,6,0.000000,0.000000,0.459474,0,0,0,0,0,0,0
11,119999,9,110000,91,10000,40,9999,0.100000,0,0,0.000000,6,0.000000,0.000000,0.383951,0,0,0,0,0,0,0
11,119999,10,110000,52,40000,40,9999,0.100000,0,0,0.000000,6,0.000000,0.000000,0.720990,0,0,0,0,0,0,0
11,119999,11,110000,52,70000,40,9999,0.100000,0,0,0.000000,6,0.000000,0.000000,1.766820,0,0,0,0,0,0,0
11,119999,12,110000,48,0,40,9999,0.100000,0,0,0.000000,6,0.000000,0.000000,1.735076,0,0,0,0,0,0,0
11,119999,13,110000,2,10000,40,9999,0.100000,0,0,0.000000,6,0.000000,0.000000,0.191217,0,0,0,0,0,0,0
11,119999,14,110000,52,40000,40,9999,0.100000,0,0,0.000000,6,0.000000,0.000000,0.630272,0,0,0,0,0,0,0
11,119999,15,110000,52,40000,40,9999,0.100000,0,0,0.000000,6,0.000000,0.000000,0.216384,0,0,0,0,0,0,0
11,119999,16,110000,52,40000,40,9999,0.100000,0,0,0.000000,6,0.000000,0.000000,0.116118,0,0,0,0,0,0,0
11,119999,17,110000,48,0,40,9999,0.100000,0,0,0.000000,6,0.000000,0.000000,0.793659,0,0,0,0,0,0,0
11,119999,18,110000,48,0,40,9999,0.100000,0,0,0.000000,6,0.000000,0.000000,1.997036,0,0,0,0,0,0,0
11,119999,19,110000,52,70000,40,9999,0.100000,0,0,0.000000,6,0.000000,0.000000,1.079246,0,0,0,0,0,0,0
11,119999,20,110000,2,10000,40,9999,0.100000,0,0,0.000000,6,0.000000,0.000000,0.706275,0,0,0,0,0,0,0
11,119999,21,110000,52,70000,40,9999,0.100000,0,0,0.000000,6,0.000000,0.000000,1.052957,0,0,0,0,0,0,0
11,119999,22,110000,48,0,40,9999,0.100000,0,0,0.000000,6,0.000000,0.000000,1.007323,0,0,0,0,0,0,0
11,119999,23,110000,52,40000,49,9999,0.100000,0,0,0.000000,6,1.000000,0.000000,1.484693,0,0,0,0,0,0,0
11,119999,24,110000,48,0,40,9999,0.100000,0,0,0.000000,6,0.000000,0.000000,0.395904,0,0,0,0,0,0,0
11,119999,25,110000,48,0,40,9999,0.100000,0,0,0.000000,6,0.000000,0.000000,0.472632,0,0,0,0,0,0,0
11,119999,26,110000,52,70000,40,9999,0.100000,0,0,0.000000,6,0.000000,0.000000,0.566683,0,0,0,0,0,0,0
11,119999,27,110000,91,10000,40,9999,0.100000,0,0,0.000000,6,0.000000,0.000000,1.001210,0,0,0,0,0,0,0
11,119999,28,110000,2,10000,40,9999,0.100000,0,0,0.000000,6,0.000000,0.000000,0.168115,0,0,0,0,0,0,0
11,119999,29,110000,2,10000,40,9999,0.100000,0,0,0.000000,6,0.000000,0.000000,3.757157,0,0,0,0,0,0,0
11,119999,30,110000,52,40000,40,9999,0.100000,0,0,0.000000,6,0.000000,0.000000,0.178584,0,0,0,0,0,0,0
11,119999,31,110000,52,70000,40,9999,0.100000,0,0,0.000000,6,0.000000,0.000000,0.202796,0,0,0,0,0,0,0
11,119999,32,110000,2,0,40,9999,0.100000,0,0,0.000000,6,0.000000,0.000000,0.773825,0,0,0,0,0,0,0
11,119999,33,110000,52,40000,40,9999,0.100000,0,0,0.000000,6,0.000000,0.000000,0.933825,0,0,0,0,0,0,0
11,119999,34,110000,52,70000,49,9999,0.100000,0,0,0.000000,6,4.000000,0.000000,14.505690,0,0,0,0,0,0,0
11,119999,35,110000,52,70000,40,9999,0.100000,0,0,0.000000,6,0.000000,0.000000,0.339163,0,0,0,0,0,0,0
11,119999,36,110000,2,10000,40,9999,0.100000,0,0,0.000000,6,0.000000,0.000000,1.476834,0,0,0,0,0,0,0
11,119999,37,110000,52,40000,40,9999,0.100000,0,0,0.000000,6,0.000000,0.000000,0.430177,0,0,0,0,0,0,0
11,119999,38,110000,2,10000,40,9999,0.100000,0,0,0.000000,6,0.000000,0.000000,0.307230,0,0,0,0,0,0,0
11,119999,39,110000,2,0,40,9999,0.100000,0,0,0.000000,6,0.000000,0.000000,0.221080,0,0,0,0,0,0,0
11,119999,40,110000,91,10000,40,9999,0.100000,0,0,0.000000,6,0.000000,0.000000,0.879099,0,0,0,0,0,0,0
11,119999,41,110000,52,70000,40,9999,0.100000,0,0,0.000000,6,0.000000,0.000000,1.685914,0,0,0,0,0,0,0
11,119999,42,110000,2,0,40,9999,0.100000,0,0,0.000000,6,0.000000,0.000000,4.619551,0,0,0,0,0,0,0
11,119999,43,110000,52,70000,40,9999,0.100000,0,0,0.000000,6,0.000000,0.000000,0.976208,0,0,0,0,0,0,0
11,119999,44,110000,2,10000,40,9999,0.100000,0,0,0.000000,6,0.000000,0.000000,0.115072,0,0,0,0,0,0,0
11,119999,45,110000,91,10000,40,9999,0.100000,0,0,0.000000,6,0.000000,0.000000,0.813972,0,0,0,0,0,0,0
11,119999,46,110000,2,0,9,9999,0.100000,0,0,0.000000,6,1.000000,0.000000,2.393067,0,0,0,1,0,0,0
11,119999,47,110000,2,0,40,9999,0.100000,0,0,0.000000,6,0.000000,0.000000,0.532418,0,0,0,0,0,0,0
11,119999,48,110000,52,70000,49,9999,0.100000,0,0,0.000000,6,2.000000,0.000000,3.736775,0,0,0,0,0,0,0
11,119999,49,110000,52,40000,40,9999,0.100000,0,0,0.000000,6,0.000000,0.000000,0.233513,0,0,0,0,0,0,0
11,119999,50,110000,2,0,40,9999,0.100000,0,0,0.000000,6,0.000000,0.000000,1.948873,0,0,0,0,0,0,0
11,119999,51,110000,2,10000,40,9999,0.100000,0,0,0.000000,6,0.000000,0.000000,0.168880,0,0,0,0,0,0,0
11,119999,52,110000,2,0,40,9999,0.100000,0,0,0.000000,6,0.000000,0.000000,0.176474,0,0,0,0,0,0,0
11,119999,53,110000,2,0,40,9999,0.100000,0,0,0.000000,6,0.000000,0.000000,0.172575,0,0,0,0,0,0,0
11,119999,54,110000,52,40000,40,9999,0.100000,0,0,0.000000,6,0.000000,0.000000,0.845806,0,0,0,0,0,0,0
11,119999,55,110000,91,10000,40,9999,0.100000,0,0,0.000000,6,0.000000,0.000000,0.723570,0,0,0,0,0,0,0
11,119999,56,110000,52,40000,40,9999,0.100000,0,0,0.000000,6,0.000000,0.000000,0.193486,0,0,0,0,0,0,0
11,119999,57,110000,91,10000,40,9999,0.065000,0,0,0.000000,6,0.000000,0.000000,0.216886,0,0,0,0,0,0,0
11,119999,58,110000,2,10000,40,9999,0.100000,0,0,0.000000,6,0.000000,0.000000,0.253025,0,0,0,0,0,0,0
11,119999,59,110000,52,40000,49,9999,0.100000,0,0,0.000000,6,9.000000,0.000000,11.384753,0,0,0,0,0,0,0
11,119999,60,110000,2,0,40,9999,0.100000,0,0,0.000000,6,0.000000,0.000000,1.196077,0,0,0,0,0,0,0
11,119999,61,110000,52,70000,40,9999,0.100000,0,0,0.000000,6,0.000000,0.000000,0.289707,0,0,0,0,0,0,0
11,119999,62,110000,2,10000,40,9999,0.100000,0,0,0.000000,6,0.000000,0.000000,4.946680,0,0,0,0,0,0,0
11,119999,63,110000,91,10000,40,9999,0.100000,0,0,0.000000,6,0.000000,0.000000,0.178468,0,0,0,0,0,0,0
11,119999,64,110000,48,0,40,9999,0.100000,0,0,0.000000,6,0.000000,0.000000,0.628139,0,0,0,0,0,0,0
11,119999,65,110000,91,10000,40,9999,0.100000,0,0,0.000000,6,0.000000,0.000000,0.095704,0,0,0,0,0,0,0
11,119999,66,110000,48,0,40,9999,0.100000,0,0,0.000000,6,0.000000,0.000000,0.533190,0,0,0,0,0,0,0
11,119999,67,110000,2,10000,40,9999,0.100000,0,0,0.000000,6,0.000000,0.000000,1.100000,0,0,0,0,0,0,0
11,119999,68,110000,91,10000,40,9999,0.100000,0,0,0.000000,6,0.000000,0.000000,1.193557,0,0,0,0,0,0,0
11,119999,69,110000,91,10000,40,9999,0.100000,0,0,0.000000,6,0.000000,0.000000,0.091532,0,0,0,0,0,0,0
11,119999,70,110000,48,0,40,9999,0.100000,0,0,0.000000,6,0.000000,0.000000,0.222625,0,0,0,0,0,0,0
11,119999,71,110000,52,40000,40,9999,0.100000,0,0,0.000000,6,0.000000,0.000000,0.813162,0,0,0,0,0,0,0
11,119999,72,110000,48,0,40,9999,0.100000,0,0,0.000000,6,0.000000,0.000000,0.437230,0,0,0,0,0,0,0
11,119999,73,110000,52,40000,49,9999,0.100000,0,0,0.000000,6,1.000000,0.000000,4.463722,0,0,0,0,0,0,0
11,119999,74,110000,48,0,49,9999,0.100000,0,0,0.000000,6,1.000000,0.000000,1.425376,0,0,0,0,0,0,0
11,119999,75,110000,52,40000,40,9999,0.100000,0,0,0.000000,6,0.000000,0.000000,1.602353,0,0,0,0,0,0,0
11,119999,76,110000,52,70000,49,9999,0.100000,0,0,0.000000,6,2.000000,0.000000,6.268674,0,0,0,0,0,0,0
11,119999,77,110000,2,0,40,9999,0.100000,0,0,0.000000,6,0.000000,0.000000,0.393839,0,0,0,0,0,0,0
11,119999,78,110000,2,10000,40,9999,0.100000,0,0,0.000000,6,0.000000,0.000000,0.304683,0,0,0,0,0,0,0
11,119999,79,110000,2,0,40,9999,0.100000,0,0,0.000000,6,0.000000,0.000000,0.137063,0,0,0,0,0,0,0
11,119999,80,110000,91,10000,40,9999,0.135000,0,0,0.000000,6,0.000000,0.000000,0.532485,0,0,0,0,0,0,0
11,119999,81,110000,2,10000,40,9999,0.100000,0,0,0.000000,6,0.000000,0.000000,0.220517,0,0,0,0,0,0,0
11,119999,82,110000,52,70000,40,9999,0.100000,0,0,0.000000,6,0.000000,0.000000,0.332288,0,0,0,0,0,0,0
11,119999,83,110000,52,70000,40,9999,0.135000,0,0,0.000000,6,0.000000,0.000000,0.134814,0,0,0,0,0,0,0
11,119999,84,110000,52,70000,40,9999,0.100000,0,0,0.000000,6,0.000000,0.000000,0.476453,0,0,0,0,0,0,0
11,119999,85,110000,2,0,49,9999,0.100000,0,0,0.000000,6,1.000000,0.000000,6.554150,0,0,0,0,0,0,0
11,119999,86,110000,2,0,40,9999,0.100000,0,0,0.000000,6,0.000000,0.000000,1.012882,0,0,0,0,0,0,0
11,119999,87,110000,2,0,40,9999,0.100000,0,0,0.000000,6,0.000000,0.000000,2.638261,0,0,0,0,0,0,0
11,119999,88,110000,52,70000,40,9999,0.100000,0,0,0.000000,6,0.000000,0.000000,0.833565,0,0,0,0,0,0,0
11,119999,89,110000,52,70000,40,9999,0.100000,0,0,0.000000,6,0.000000,0.000000,0.192045,0,0,0,0,0,0,0
11,119999,90,110000,52,40000,40,9999,0.100000,0,0,0.000000,6,0.000000,0.000000,0.263739,0,0,0,0,0,0,0
11,119999,91,110000,52,40000,40,9999,0.100000,0,0,0.000000,6,0.000000,0.000000,1.056865,0,0,0,0,0,0,0
11,119999,92,110000,2,0,40,9999,0.100000,0,0,0.000000,6,0.000000,0.000000,1.495882,0,0,0,0,0,0,0
11,119999,93,110000,2,10000,40,9999,0.100000,0,0,0.000000,6,0.000000,0.000000,0.455946,0,0,0,0,0,0,0
11,119999,94,110000,48,0,40,9999,0.100000,0,0,0.000000,6,0.000000,0.000000,2.061482,0,0,0,0,0,0,0
11,119999,95,110000,2,10000,40,9999,0.100000,0,0,0.000000,6,0.000000,0.000000,0.290204,0,0,0,0,0,0,0
11,119999,96,110000,2,10000,40,9999,0.100000,0,0,0.000000,6,0.000000,0.000000,0.371973,0,0,0,0,0,0,0
11,119999,97,110000,2,10000,40,9999,0.100000,0,0,0.000000,6,0.000000,0.000000,0.300264,0,0,0,0,0,0,0
11,119999,98,110000,52,70000,40,9999,0.100000,0,0,0.000000,6,0.000000,0.000000,0.099429,0,0,0,0,0,0,0
11,119999,99,110000,48,0,40,9999,0.100000,0,0,0.000000,6,0.000000,0.000000,0.199385,0,0,0,0,0,0,0
12,129999,0,120000,2,0,40,9999,0.100000,0,0,0.000000,6,0.000000,0.000000,0.158121,0,0,0,0,0,0,0
12,129999,1,120000,48,0,40,9999,0.100000,0,0,0.000000,6,0.000000,0.000000,0.202532,0,0,0,0,0,0,0
12,129999,2,120000,52,70000,40,9999,0.100000,0,0,0.000000,6,0.000000,0.000000,0.466097,0,0,0,0,0,0,0
12,129999,3,120000,48,0,40,9999,0.100000,0,0,0.000000,6,0.000000,0.000000,2.305673,0,0,0,0,0,0,0
12,129999,4,120000,48,0,40,9999,0.100000,0,0,0.000000,6,0.000000,0.000000,20.859572,0,0,0,0,0,0,0
12,129999,5,120000,2,0,40,9999,0.100000,0,0,0.000000,6,0.000000,0.000000,0.665525,0,0,0,0,0,0,0
12,129999,6,120000,2,10000,40,9999,0.100000,0,0,0.000000,6,0.000000,0.000000,0.129990,0,0,0,0,0,0,0
12,129999,7,120000,52,40000,40,9999,0.100000,0,0,0.000000,6,0.000000,0.000000,0.247872,0,0,0,0,0,0,0
12,129999,8,120000,48,0,40,9999,0.100000,0,0,0.000000,6,0.000000,0.000000,0.411600,0,0,0,0,0,0,0
12,129999,9,120000,48,0,49,9999,0.100000,0,0,0.000000,6,1.000000,0.000000,1.080527,0,0,0,0,0,0,0
12,129999,10,120000,48,0,40,9999,0.100000,0,0,0.000000,6,0.000000,0.000000,0.692709,0,0,0,0,0,0,0
12,129999,11,120000,52,70000,49,9999,0.100000,0,0,0.000000,6,1.000000,0.000000,3.538319,0,0,0,0,0,0,0
12,129999,12,120000,2,10000,40,9999,0.100000,0,0,0.000000,6,0.000000,0.000000,2.074593,0,0,0,0,0,0,0
12,129999,13,120000,48,0,40,9999,0.100000,0,0,0.000000,6,0.000000,0.000000,0.189574,0,0,0,0,0,0,0
12,129999,14,120000,52,40000,49,9999,0.100000,0,0,0.000000,6,1.000000,0.000000,1.277714,0,0,0,0,0,0,0
12,129999,15,120000,48,0,40,9999,0.100000,0,0,0.000000,6,0.000000,0.000000,1.413892,0,0,0,0,0,0,0
12,129999,16,120000,48,0,40,9999,0.100000,0,0,0.000000,6,0.000000,0.000000,0.162899,0,0,0,0,0,0,0
12,129999,17,120000,52,40000,40,9999,0.100000,0,0,0.000000,6,0.000000,0.000000,1.146891,0,0,0,0,0,0,0
12,129999,18,120000,48,0,40,9999,0.100000,0,0,0.000000,6,0.000000,0.000000,0.760717,0,0,0,0,0,0,0
12,129999,19,120000,52,70000,40,9999,0.100000,0,0,0.000000,6,0.000000,0.000000,1.705581,0,0,0,0,0,0,0
12,129999,20,120000,91,10000,40,9999,0.100000,0,0,0.000000,6,0.000000,0.000000,0.739573,0,0,0,0,0,0,0
12,129999,21,120000,91,10000,40,9999,0.100000,0,0,0.000000,6,0.000000,0.000000,1.004796,0,0,0,0,0,0,0
12,129999,22,120000,48,0,40,9999,0.100000,0,0,0.000000,6,0.000000,0.000000,0.970946,0,0,0,0,0,0,0
12,129999,23,120000,52,70000,49,9999,0.100000,0,0,0.000000,6,1.000000,0.000000,1.690463,0,0,0,0,0,0,0
12,129999,24,120000,48,0,40,9999,0.100000,0,0,0.000000,6,0.000000,0.000000,0.783357,0,0,0,0,0,0,0
12,129999,25,120000,2,10000,40,9999,0.100000,0,0,0.000000,6,0.000000,0.000000,0.447106,0,0,0,0,0,0,0
12,129999,26,120000,52,40000,40,9999,0.100000,0,0,0.000000,6,0.000000,0.000000,0.337588,0,0,0,0,0,0,0
12,129999,27,120000,48,0,40,9999,0.100000,0,0,0.000000,6,0.000000,0.000000,0.861992,0,0,0,0,0,0,0
12,129999,28,120000,52,70000,40,9999,0.100000,0,0,0.000000,6,0.000000,0.000000,0.165619,0,0,0,0,0,0,0
12,129999,29,120000,91,10000,49,9999,0.100000,0,0,0.000000,6,2.000000,0.000000,15.268324,0,0,0,0,0,0,0
12,129999,30,120000,52,40000,40,9999,0.100000,0,0,0.000000,6,0.000000,0.000000,0.176049,0,0,0,0,0,0,0
12,129999,31,120000,52,40000,40,9999,0.100000,0,0,0.000000,6,0.000000,0.000000,0.173287,0,0,0,0,0,0,0
12,129999,32,120000,91,10000,40,9999,0.100000,0,0,0.000000,6,0.000000,0.000000,0.278524,0,0,0,0,0,0,0
12,129999,33,120000,2,10000,40,9999,0.100000,0,0,0.000000,6,0.000000,0.000000,0.160235,0,0,0,0,0,0,0
