generation,iteration,robot,birthday,ancestor_id,ancestor_birthday,cell_id,age,sigma,maps,genomes,fitness,cells_in_map,dist_max,dist_pot_max,dist_total,com_rx,com_tx,obj_group1,obj_group2,obj_group3,obj_group4,obj_group5
0,9999,0,0,0,0,49,9999,0.100000,0,0,0.000000,0,5.000000,0.000000,12.391713,0,0,0,0,0,0,0
0,9999,1,0,1,0,49,9999,0.100000,0,0,0.000000,0,9.000000,0.000000,13.679853,0,0,0,0,0,0,0
0,9999,2,0,2,0,49,9999,0.100000,0,0,0.000000,0,9.000000,0.000000,11.344960,0,0,0,0,0,0,0
0,9999,3,0,3,0,49,9999,0.100000,0,0,0.000000,0,4.000000,0.000000,6.130744,0,0,0,0,0,0,0
0,9999,4,0,4,0,49,9999,0.100000,0,0,0.000000,0,12.000000,0.000000,31.717428,0,0,0,0,0,0,0
0,9999,5,0,5,0,49,9999,0.100000,0,0,0.000000,0,7.000000,0.000000,7.904915,0,0,0,0,0,0,0
0,9999,6,0,6,0,49,9999,0.100000,0,0,0.000000,0,8.000000,0.000000,25.034426,0,0,0,0,0,0,0
0,9999,7,0,7,0,49,9999,0.100000,0,0,0.000000,0,8.000000,0.000000,13.527763,0,0,0,0,0,0,0
0,9999,8,0,8,0,49,9999,0.100000,0,0,0.000000,0,8.000000,0.000000,13.472232,0,0,0,0,0,0,0
0,9999,9,0,9,0,49,9999,0.100000,0,0,0.000000,0,11.000000,0.000000,37.309387,0,0,0,0,0,0,0
0,9999,10,0,10,0,49,9999,0.100000,0,0,0.000000,0,5.000000,0.000000,13.527116,0,0,0,0,0,0,0
0,9999,11,0,11,0,49,9999,0.100000,0,0,0.000000,0,11.000000,0.000000,22.547067,0,0,0,0,0,0,0
0,9999,12,0,12,0,49,9999,0.100000,0,0,0.000000,0,5.000000,0.000000,7.868939,0,0,0,0,0,0,0
0,9999,13,0,13,0,49,9999,0.100000,0,0,0.000000,0,9.000000,0.000000,9.569677,0,0,0,0,0,0,0
0,9999,14,0,14,0,49,9999,0.100000,0,0,0.000000,0,11.000000,0.000000,17.169050,0,0,0,0,0,0,0
0,9999,15,0,15,0,49,9999,0.100000,0,0,0.000000,0,2.000000,0.000000,2.926671,0,0,0,0,0,0,0
0,9999,16,0,16,0,49,9999,0.100000,0,0,0.000000,0,9.000000,0.000000,16.681154,0,0,0,0,0,0,0
0,9999,17,0,17,0,49,9999,0.100000,0,0,0.000000,0,6.000000,0.000000,8.411553,0,0,0,0,0,0,0
0,9999,18,0,18,0,49,9999,0.100000,0,0,0.000000,0,6.000000,0.000000,8.378721,0,0,0,0,0,0,0
0,9999,19,0,19,0,49,9999,0.100000,0,0,0.000000,0,10.000000,0.000000,12.750126,0,0,0,0,0,0,0
0,9999,20,0,20,0,49,9999,0.100000,0,0,0.000000,0,7.000000,0.000000,16.904284,0,0,0,0,0,0,0
0,9999,21,0,21,0,49,9999,0.100000,0,0,0.000000,0,9.000000,0.000000,18.472774,0,0,0,0,0,0,0
0,9999,22,0,22,0,49,9999,0.100000,0,0,0.000000,0,10.000000,0.000000,23.452677,0,0,0,0,0,0,0
0,9999,23,0,23,0,49,9999,0.100000,0,0,0.000000,0,6.000000,0.000000,15.101772,0,0,0,0,0,0,0
0,9999,24,0,24,0,49,9999,0.100000,0,0,0.000000,0,6.000000,0.000000,14.320760,0,0,0,0,0,0,0
0,9999,25,0,25,0,49,9999,0.100000,0,0,0.000000,0,9.000000,0.000000,15.826023,0,0,0,0,0,0,0
0,9999,26,0,26,0,49,9999,0.100000,0,0,0.000000,0,9.000000,0.000000,12.462485,0,0,0,0,0,0,0
0,9999,27,0,27,0,49,9999,0.100000,0,0,0.000000,0,11.000000,0.000000,29.847645,0,0,0,0,0,0,0
0,9999,28,0,28,0,49,9999,0.100000,0,0,0.000000,0,5.000000,0.000000,15.802832,0,0,0,0,0,0,0
0,9999,29,0,29,0,49,9999,0.100000,0,0,0.000000,0,5.000000,0.000000,17.435760,0,0,0,0,0,0,0
0,9999,30,0,30,0,49,9999,0.100000,0,0,0.000000,0,9.000000,0.000000,10.089897,0,0,0,0,0,0,0
0,9999,31,0,31,0,49,9999,0.100000,0,0,0.000000,0,7.000000,0.000000,8.400908,0,0,0,0,0,0,0
0,9999,32,0,32,0,49,9999,0.100000,0,0,0.000000,0,12.000000,0.000000,14.215751,0,0,0,0,0,0,0
0,9999,33,0,33,0,49,9999,0.100000,0,0,0.000000,0,7.000000,0.000000,20.432473,0,0,0,0,0,0,0
0,9999,34,0,34,0,49,9999,0.100000,0,0,0.000000,0,2.000000,0.000000,2.564550,0,0,0,0,0,0,0
0,9999,35,0,35,0,49,9999,0.100000,0,0,0.000000,0,6.000000,0.000000,16.302957,0,0,0,0,0,0,0
0,9999,36,0,36,0,49,9999,0.100000,0,0,0.000000,0,11.000000,0.000000,14.375270,0,0,0,0,0,0,0
0,9999,37,0,37,0,49,9999,0.100000,0,0,0.000000,0,9.000000,0.000000,12.032945,0,0,0,0,0,0,0
0,9999,38,0,38,0,49,9999,0.100000,0,0,0.000000,0,2.000000,0.000000,8.379366,0,0,0,0,0,0,0
0,9999,39,0,39,0,49,9999,0.100000,0,0,0.000000,0,6.000000,0.000000,6.848608,0,0,0,0,0,0,0
0,9999,40,0,40,0,49,9999,0.100000,0,0,0.000000,0,5.000000,0.000000,9.603409,0,0,0,0,0,0,0
0,9999,41,0,41,0,49,9999,0.100000,0,0,0.000000,0,2.000000,0.000000,6.932932,0,0,0,0,0,0,0
0,9999,42,0,42,0,49,9999,0.100000,0,0,0.000000,0,8.000000,0.000000,15.261948,0,0,0,0,0,0,0
0,9999,43,0,43,0,49,9999,0.100000,0,0,0.000000,0,6.000000,0.000000,10.130784,0,0,0,0,0,0,0
0,9999,44,0,44,0,49,9999,0.100000,0,0,0.000000,0,2.000000,0.000000,4.482409,0,0,0,0,0,0,0
0,9999,45,0,45,0,49,9999,0.100000,0,0,0.000000,0,9.000000,0.000000,21.479115,0,0,0,0,0,0,0
0,9999,46,0,46,0,49,9999,0.100000,0,0,0.000000,0,10.000000,0.000000,14.802894,0,0,0,0,0,0,0
0,9999,47,0,47,0,49,9999,0.100000,0,0,0.000000,0,18.000000,0.000000,31.252499,0,0,0,0,0,0,0
0,9999,48,0,48,0,49,9999,0.100000,0,0,0.000000,0,4.000000,0.000000,5.198771,0,0,0,0,0,0,0
0,9999,49,0,49,0,49,9999,0.100000,0,0,0.000000,0,6.000000,0.000000,13.697626,0,0,0,0,0,0,0
0,9999,50,0,50,0,49,9999,0.100000,0,0,0.000000,0,6.000000,0.000000,18.880867,0,0,0,0,0,0,0
0,9999,51,0,51,0,49,9999,0.100000,0,0,0.000000,0,9.000000,0.000000,11.421004,0,0,0,0,0,0,0
0,9999,52,0,52,0,49,9999,0.100000,0,0,0.000000,0,9.000000,0.000000,10.679446,0,0,0,0,0,0,0
0,9999,53,0,53,0,49,9999,0.100000,0,0,0.000000,0,8.000000,0.000000,14.582754,0,0,0,0,0,0,0
0,9999,54,0,54,0,49,9999,0.100000,0,0,0.000000,0,9.000000,0.000000,16.284749,0,0,0,0,0,0,0
0,9999,55,0,55,0,49,9999,0.100000,0,0,0.000000,0,12.000000,0.000000,12.627689,0,0,0,0,0,0,0
0,9999,56,0,56,0,49,9999,0.100000,0,0,0.000000,0,4.000000,0.000000,5.219461,0,0,0,0,0,0,0
0,9999,57,0,57,0,49,9999,0.100000,0,0,0.000000,0,5.000000,0.000000,5.710860,0,0,0,0,0,0,0
0,9999,58,0,58,0,49,9999,0.100000,0,0,0.000000,0,9.000000,0.000000,28.470899,0,0,0,0,0,0,0
0,9999,59,0,59,0,49,9999,0.100000,0,0,0.000000,0,7.000000,0.000000,18.123696,0,0,0,0,0,0,0
0,9999,60,0,60,0,49,9999,0.100000,0,0,0.000000,0,6.000000,0.000000,6.584895,0,0,0,0,0,0,0
0,9999,61,0,61,0,49,9999,0.100000,0,0,0.000000,0,9.000000,0.000000,11.546666,0,0,0,0,0,0,0
0,9999,62,0,62,0,49,9999,0.100000,0,0,0.000000,0,9.000000,0.000000,18.403312,0,0,0,0,0,0,0
0,9999,63,0,63,0,49,9999,0.100000,0,0,0.000000,0,9.000000,0.000000,20.654093,0,0,0,0,0,0,0
0,9999,64,0,64,0,49,9999,0.100000,0,0,0.000000,0,4.000000,0.000000,12.383878,0,0,0,0,0,0,0
0,9999,65,0,65,0,49,9999,0.100000,0,0,0.000000,0,7.000000,0.000000,11.306814,0,0,0,0,0,0,0
0,9999,66,0,66,0,49,9999,0.100000,0,0,0.000000,0,9.000000,0.000000,23.125773,0,0,0,0,0,0,0
0,9999,67,0,67,0,49,9999,0.100000,0,0,0.000000,0,9.000000,0.000000,20.332113,0,0,0,0,0,0,0
0,9999,68,0,68,0,49,9999,0.100000,0,0,0.000000,0,9.000000,0.000000,14.860006,0,0,0,0,0,0,0
0,9999,69,0,69,0,49,9999,0.100000,0,0,0.000000,0,10.000000,0.000000,21.328837,0,0,0,0,0,0,0
0,9999,70,0,70,0,49,9999,0.100000,0,0,0.000000,0,9.000000,0.000000,15.832103,0,0,0,0,0,0,0
0,9999,71,0,71,0,49,9999,0.100000,0,0,0.000000,0,8.000000,0.000000,9.897893,0,0,0,0,0,0,0
0,9999,72,0,72,0,49,9999,0.100000,0,0,0.000000,0,11.000000,0.000000,26.394181,0,0,0,0,0,0,0
0,9999,73,0,73,0,49,9999,0.100000,0,0,0.000000,0,10.000000,0.000000,24.435879,0,0,0,0,0,0,0
0,9999,74,0,74,0,49,9999,0.100000,0,0,0.000000,0,7.000000,0.000000,9.080086,0,0,0,0,0,0,0
0,9999,75,0,75,0,49,9999,0.100000,0,0,0.000000,0,9.000000,0.000000,21.421935,0,0,0,0,0,0,0
0,9999,76,0,76,0,49,9999,0.100000,0,0,0.000000,0,4.000000,0.000000,6.132454,0,0,0,0,0,0,0
0,9999,77,0,77,0,49,9999,0.100000,0,0,0.000000,0,20.000000,0.000000,36.081835,0,0,0,0,0,0,0
0,9999,78,0,78,0,49,9999,0.100000,0,0,0.000000,0,9.000000,0.000000,17.671212,0,0,0,0,0,0,0
0,9999,79,0,79,0,49,9999,0.100000,0,0,0.000000,0,4.000000,0.000000,8.200232,0,0,0,0,0,0,0
0,9999,80,0,80,0,49,9999,0.100000,0,0,0.000000,0,6.000000,0.000000,14.254194,0,0,0,0,0,0,0
0,9999,81,0,81,0,49,9999,0.100000,0,0,0.000000,0,9.000000,0.000000,13.263729,0,0,0,0,0,0,0
0,9999,82,0,82,0,49,9999,0.100000,0,0,0.000000,0,9.000000,0.000000,13.331064,0,0,0,0,0,0,0
0,9999,83,0,83,0,49,9999,0.100000,0,0,0.000000,0,11.000000,0.000000,21.724100,0,0,0,0,0,0,0
0,9999,84,0,84,0,49,9999,0.100000,0,0,0.000000,0,9.000000,0.000000,19.399332,0,0,0,0,0,0,0
0,9999,85,0,85,0,49,9999,0.100000,0,0,0.000000,0,8.000000,0.000000,23.751293,0,0,0,0,0,0,0
0,9999,86,0,86,0,49,9999,0.100000,0,0,0.000000,0,1.000000,0.000000,9.239486,0,0,0,0,0,0,0
0,9999,87,0,87,0,49,9999,0.100000,0,0,0.000000,0,8.000000,0.000000,28.931726,0,0,0,0,0,0,0
0,9999,88,0,88,0,49,9999,0.100000,0,0,0.000000,0,9.000000,0.000000,15.289294,0,0,0,0,0,0,0
0,9999,89,0,89,0,49,9999,0.100000,0,0,0.000000,0,5.000000,0.000000,14.103653,0,0,0,0,0,0,0
0,9999,90,0,90,0,49,9999,0.100000,0,0,0.000000,0,11.000000,0.000000,14.145592,0,0,0,0,0,0,0
0,9999,91,0,91,0,49,9999,0.100000,0,0,0.000000,0,9.000000,0.000000,10.352501,0,0,0,0,0,0,0
0,9999,92,0,92,0,49,9999,0.100000,0,0,0.000000,0,9.000000,0.000000,10.651684,0,0,0,0,0,0,0
0,9999,93,0,93,0,49,9999,0.100000,0,0,0.000000,0,7.000000,0.000000,17.039816,0,0,0,0,0,0,0
0,9999,94,0,94,0,49,9999,0.100000,0,0,0.000000,0,8.000000,0.000000,13.007898,0,0,0,0,0,0,0
0,9999,95,0,95,0,49,9999,0.100000,0,0,0.000000,0,6.000000,0.000000,7.540755,0,0,0,0,0,0,0
0,9999,96,0,96,0,49,9999,0.100000,0,0,0.000000,0,6.000000,0.000000,11.420005,0,0,0,0,0,0,0
0,9999,97,0,97,0,49,9999,0.100000,0,0,0.000000,0,9.000000,0.000000,12.089431,0,0,0,0,0,0,0
0,9999,98,0,98,0,99,9999,0.100000,0,0,47.368421,0,10.000000,0.000000,19.345357,0,0,1,0,0,0,0
0,9999,99,0,99,0,49,9999,0.100000,0,0,0.000000,0,9.000000,0.000000,27.276762,0,0,0,0,0,0,0
1,19999,0,0,0,0,49,19999,0.100000,0,0,0.000000,1,1.000000,0.000000,2.755779,0,0,0,0,0,0,0
1,19999,1,10000,0,0,49,9999,0.100000,0,0,0.000000,3,2.000000,0.000000,10.434233,0,0,0,0,0,0,0
1,19999,2,10000,0,0,49,9999,0.100000,0,0,0.000000,3,9.000000,0.000000,64.919543,0,0,0,0,0,0,0
1,19999,3,10000,32,0,40,9999,0.100000,0,0,0.000000,3,0.000000,0.000000,0.680741,0,0,0,0,0,0,0
1,19999,4,0,4,0,40,19999,0.100000,0,0,0.000000,1,0.000000,0.000000,11.732005,0,0,0,0,0,0,0
1,19999,5,10000,9,0,40,9999,0.100000,0,0,0.000000,3,0.000000,0.000000,0.131190,0,0,0,0,0,0,0
1,19999,6,10000,32,0,49,9999,0.100000,0,0,0.000000,3,4.000000,0.000000,15.184399,0,0,0,0,0,0,0
1,19999,7,10000,0,0,40,9999,0.100000,0,0,0.000000,3,0.000000,0.000000,2.369159,0,0,0,0,0,0,0
1,19999,8,10000,0,0,40,9999,0.100000,0,0,0.000000,3,0.000000,0.000000,0.930303,0,0,0,0,0,0,0
1,19999,9,10000,0,0,49,9999,0.100000,0,0,0.000000,2,1.000000,0.000000,6.159800,0,0,0,0,0,0,0
1,19999,10,10000,32,0,49,9999,0.100000,0,0,0.000000,3,4.000000,0.000000,8.520358,0,0,0,0,0,0,0
1,19999,11,10000,0,0,49,9999,0.100000,0,0,0.000000,3,1.000000,0.000000,11.019544,0,0,0,0,0,0,0
1,19999,12,10000,32,0,40,9999,0.100000,0,0,0.000000,3,0.000000,0.000000,0.444267,0,0,0,0,0,0,0
1,19999,13,10000,9,0,49,9999,0.100000,0,0,0.000000,3,1.000000,0.000000,2.202144,0,0,0,0,0,0,0
1,19999,14,10000,0,0,49,9999,0.100000,0,0,0.000000,3,5.000000,0.000000,23.405560,0,0,0,0,0,0,0
1,19999,15,10000,9,0,40,9999,0.100000,0,0,0.000000,3,0.000000,0.000000,0.098382,0,0,0,0,0,0,0
1,19999,16,10000,9,0,49,9999,0.100000,0,0,0.000000,3,3.000000,0.000000,14.715564,0,0,0,0,0,0,0
1,19999,17,10000,0,0,40,9999,0.100000,0,0,0.000000,3,0.000000,0.000000,0.228571,0,0,0,0,0,0,0
1,19999,18,10000,0,0,40,9999,0.100000,0,0,0.000000,3,0.000000,0.000000,0.687708,0,0,0,0,0,0,0
1,19999,19,10000,9,0,40,9999,0.100000,0,0,0.000000,3,0.000000,0.000000,5.040950,0,0,0,0,0,0,0
1,19999,20,10000,0,0,40,9999,0.100000,0,0,0.000000,3,0.000000,0.000000,5.794241,0,0,0,0,0,0,0
1,19999,21,10000,9,0,49,9999,0.100000,0,0,0.000000,3,2.000000,0.000000,13.550827,0,0,0,0,0,0,0
1,19999,22,10000,0,0,49,9999,0.100000,0,0,0.000000,3,3.000000,0.000000,6.240552,0,0,0,0,0,0,0
1,19999,23,10000,9,0,40,9999,0.100000,0,0,0.000000,3,0.000000,0.000000,0.145774,0,0,0,0,0,0,0
1,19999,24,10000,9,0,49,9999,0.100000,0,0,0.000000,3,1.000000,0.000000,12.732909,0,0,0,0,0,0,0
1,19999,25,10000,32,0,40,9999,0.100000,0,0,0.000000,3,0.000000,0.000000,0.710021,0,0,0,0,0,0,0
1,19999,26,10000,0,0,40,9999,0.100000,0,0,0.000000,3,0.000000,0.000000,3.412657,0,0,0,0,0,0,0
1,19999,27,10000,9,0,49,9999,0.100000,0,0,0.000000,3,3.000000,0.000000,8.875785,0,0,0,0,0,0,0
1,19999,28,10000,9,0,49,9999,0.100000,0,0,0.000000,3,3.000000,0.000000,8.410164,0,0,0,0,0,0,0
1,19999,29,10000,32,0,40,9999,0.100000,0,0,0.000000,3,0.000000,0.000000,3.797509,0,0,0,0,0,0,0
1,19999,30,10000,9,0,40,9999,0.100000,0,0,0.000000,3,0.000000,0.000000,0.403407,0,0,0,0,0,0,0
1,19999,31,10000,32,0,40,9999,0.100000,0,0,0.000000,3,0.000000,0.000000,0.677038,0,0,0,0,0,0,0
1,19999,32,10000,9,0,40,9999,0.100000,0,0,0.000000,3,0.000000,0.000000,0.397577,0,0,0,0,0,0,0
1,19999,33,10000,32,0,49,9999,0.100000,0,0,0.000000,3,1.000000,0.000000,3.619472,0,0,0,0,0,0,0
1,19999,34,10000,0,0,40,9999,0.100000,0,0,0.000000,3,0.000000,0.000000,0.137497,0,0,0,0,0,0,0
1,19999,35,10000,9,0,49,9999,0.100000,0,0,0.000000,3,3.000000,0.000000,9.721224,0,0,0,0,0,0,0
1,19999,36,10000,9,0,40,9999,0.100000,0,0,0.000000,3,0.000000,0.000000,0.078395,0,0,0,0,0,0,0
1,19999,37,10000,0,0,40,9999,0.100000,0,0,0.000000,3,0.000000,0.000000,0.636636,0,0,0,0,0,0,0
1,19999,38,10000,9,0,40,9999,0.100000,0,0,0.000000,3,0.000000,0.000000,0.111283,0,0,0,0,0,0,0
1,19999,39,10000,0,0,40,9999,0.100000,0,0,0.000000,3,0.000000,0.000000,1.654382,0,0,0,0,0,0,0
1,19999,40,10000,9,0,49,9999,0.100000,0,0,0.000000,3,1.000000,0.000000,1.123038,0,0,0,0,0,0,0
1,19999,41,10000,0,0,49,9999,0.100000,0,0,0.000000,3,1.000000,0.000000,3.088991,0,0,0,0,0,0,0
1,19999,42,10000,9,0,49,9999,0.100000,0,0,0.000000,3,1.000000,0.000000,4.555419,0,0,0,0,0,0,0
1,19999,43,10000,0,0,40,9999,0.100000,0,0,0.000000,3,0.000000,0.000000,0.119096,0,0,0,0,0,0,0
1,19999,44,10000,9,0,40,9999,0.100000,0,0,0.000000,3,0.000000,0.000000,0.158654,0,0,0,0,0,0,0
1,19999,45,10000,32,0,49,9999,0.100000,0,0,0.000000,3,4.000000,0.000000,11.836023,0,0,0,0,0,0,0
1,19999,46,10000,9,0,40,9999,0.100000,0,0,0.000000,3,0.000000,0.000000,0.933805,0,0,0,0,0,0,0
1,19999,47,10000,32,0,40,9999,0.100000,0,0,0.000000,3,0.000000,0.000000,0.244912,0,0,0,0,0,0,0
1,19999,48,10000,9,0,40,9999,0.100000,0,0,0.000000,3,0.000000,0.000000,0.567704,0,0,0,0,0,0,0
1,19999,49,10000,32,0,40,9999,0.100000,0,0,0.000000,3,0.000000,0.000000,4.103740,0,0,0,0,0,0,0
1,19999,50,10000,9,0,40,9999,0.100000,0,0,0.000000,3,0.000000,0.000000,0.304193,0,0,0,0,0,0,0
1,19999,51,10000,9,0,40,9999,0.100000,0,0,0.000000,3,0.000000,0.000000,0.683015,0,0,0,0,0,0,0
1,19999,52,10000,9,0,40,9999,0.100000,0,0,0.000000,3,0.000000,0.000000,0.182571,0,0,0,0,0,0,0
1,19999,53,10000,9,0,40,9999,0.100000,0,0,0.000000,3,0.000000,0.000000,0.475606,0,0,0,0,0,0,0
1,19999,54,10000,9,0,49,9999,0.100000,0,0,0.000000,3,1.000000,0.000000,16.715035,0,0,0,0,0,0,0
1,19999,55,10000,32,0,40,9999,0.100000,0,0,0.000000,3,0.000000,0.000000,0.161362,0,0,0,0,0,0,0
1,19999,56,10000,32,0,40,9999,0.100000,0,0,0.000000,3,0.000000,0.000000,2.138528,0,0,0,0,0,0,0
1,19999,57,10000,0,0,40,9999,0.100000,0,0,0.000000,3,0.000000,0.000000,0.110379,0,0,0,0,0,0,0
1,19999,58,10000,32,0,40,9999,0.100000,0,0,0.000000,3,0.000000,0.000000,2.302766,0,0,0,0,0,0,0
1,19999,59,10000,9,0,49,9999,0.100000,0,0,0.000000,3,1.000000,0.000000,4.220695,0,0,0,0,0,0,0
1,19999,60,10000,9,0,40,9999,0.100000,0,0,0.000000,3,0.000000,0.000000,0.216616,0,0,0,0,0,0,0
1,19999,61,10000,32,0,40,9999,0.100000,0,0,0.000000,3,0.000000,0.000000,0.536187,0,0,0,0,0,0,0
1,19999,62,10000,32,0,49,9999,0.100000,0,0,0.000000,3,1.000000,0.000000,11.142876,0,0,0,0,0,0,0
1,19999,63,10000,0,0,49,9999,0.100000,0,0,0.000000,3,1.000000,0.000000,9.391377,0,0,0,0,0,0,0
1,19999,64,10000,0,0,40,9999,0.100000,0,0,0.000000,3,0.000000,0.000000,0.072103,0,0,0,0,0,0,0
1,19999,65,10000,32,0,49,9999,0.100000,0,0,0.000000,3,4.000000,0.000000,11.725993,0,0,0,0,0,0,0
1,19999,66,10000,0,0,49,9999,0.100000,0,0,0.000000,3,2.000000,0.000000,8.946534,0,0,0,0,0,0,0
1,19999,67,10000,0,0,49,9999,0.100000,0,0,0.000000,3,1.000000,0.000000,8.496205,0,0,0,0,0,0,0
1,19999,68,10000,32,0,49,9999,0.100000,0,0,0.000000,3,3.000000,0.000000,8.829541,0,0,0,0,0,0,0
1,19999,69,10000,9,0,40,9999,0.100000,0,0,0.000000,3,0.000000,0.000000,0.539008,0,0,0,0,0,0,0
1,19999,70,10000,32,0,49,9999,0.100000,0,0,0.000000,3,2.000000,0.000000,7.758841,0,0,0,0,0,0,0
1,19999,71,10000,32,0,49,9999,0.100000,0,0,0.000000,3,1.000000,0.000000,2.428228,0,0,0,0,0,0,0
1,19999,72,10000,9,0,40,9999,0.100000,0,0,0.000000,3,0.000000,0.000000,0.345155,0,0,0,0,0,0,0
1,19999,73,10000,0,0,49,9999,0.100000,0,0,0.000000,3,7.000000,0.000000,15.684873,0,0,0,0,0,0,0
1,19999,74,10000,0,0,40,9999,0.100000,0,0,0.000000,3,0.000000,0.000000,0.790321,0,0,0,0,0,0,0
1,19999,75,10000,32,0,49,9999,0.100000,0,0,0.000000,3,5.000000,0.000000,6.569603,0,0,0,0,0,0,0
1,19999,76,10000,32,0,49,9999,0.100000,0,0,0.000000,3,1.000000,0.000000,5.923978,0,0,0,0,0,0,0
1,19999,77,10000,0,0,40,9999,0.100000,0,0,0.000000,3,0.000000,0.000000,1.329265,0,0,0,0,0,0,0
1,19999,78,10000,32,0,49,9999,0.100000,0,0,0.000000,3,1.000000,0.000000,11.487240,0,0,0,0,0,0,0
1,19999,79,10000,0,0,40,9999,0.100000,0,0,0.000000,3,0.000000,0.000000,1.142623,0,0,0,0,0,0,0
1,19999,80,10000,9,0,49,9999,0.100000,0,0,0.000000,3,1.000000,0.000000,3.481596,0,0,0,0,0,0,0
1,19999,81,10000,32,0,40,9999,0.100000,0,0,0.000000,3,0.000000,0.000000,0.076905,0,0,0,0,0,0,0
1,19999,82,10000,32,0,40,9999,0.100000,0,0,0.000000,3,0.000000,0.000000,0.667125,0,0,0,0,0,0,0
1,19999,83,10000,32,0,40,9999,0.100000,0,0,0.000000,3,0.000000,0.000000,0.733018,0,0,0,0,0,0,0
1,19999,84,10000,32,0,40,9999,0.100000,0,0,0.000000,3,0.000000,0.000000,0.247779,0,0,0,0,0,0,0
1,19999,85,10000,0,0,49,9999,0.100000,0,0,0.000000,3,1.000000,0.000000,13.516695,0,0,0,0,0,0,0
1,19999,86,10000,0,0,49,9999,0.100000,0,0,0.000000,3,3.000000,0.000000,5.881427,0,0,0,0,0,0,0
1,19999,87,10000,9,0,40,9999,0.100000,0,0,0.000000,3,0.000000,0.000000,4.254415,0,0,0,0,0,0,0
1,19999,88,10000,32,0,40,9999,0.100000,0,0,0.000000,3,0.000000,0.000000,1.487319,0,0,0,0,0,0,0
1,19999,89,10000,32,0,40,9999,0.100000,0,0,0.000000,3,0.000000,0.000000,0.467514,0,0,0,0,0,0,0
1,19999,90,10000,9,0,40,9999,0.100000,0,0,0.000000,3,0.000000,0.000000,0.139521,0,0,0,0,0,0,0
1,19999,91,10000,0,0,40,9999,0.100000,0,0,0.000000,3,0.000000,0.000000,0.554880,0,0,0,0,0,0,0
1,19999,92,10000,32,0,40,9999,0.100000,0,0,0.000000,3,0.000000,0.000000,0.400198,0,0,0,0,0,0,0
1,19999,93,10000,9,0,40,9999,0.100000,0,0,0.000000,3,0.000000,0.000000,2.337718,0,0,0,0,0,0,0
1,19999,94,10000,32,0,49,9999,0.100000,0,0,0.000000,3,4.000000,0.000000,8.083118,0,0,0,0,0,0,0
1,19999,95,0,95,0,40,19999,0.100000,0,0,0.000000,3,0.000000,0.000000,1.709156,0,0,0,0,0,0,0
1,19999,96,10000,32,0,49,9999,0.100000,0,0,0.000000,3,1.000000,0.000000,6.824472,0,0,0,0,0,0,0
1,19999,97,10000,32,0,49,9999,0.100000,0,0,0.000000,3,2.000000,0.000000,6.630139,0,0,0,0,0,0,0
1,19999,98,10000,9,0,49,9999,0.100000,0,0,0.000000,3,1.000000,0.000000,4.984039,0,0,0,0,0,0,0
1,19999,99,10000,9,0,49,9999,0.100000,0,0,0.000000,3,3.000000,0.000000,5.745412,0,0,0,0,0,0,0
2,29999,0,0,0,0,40,29999,0.100000,0,0,0.000000,5,0.000000,0.000000,0.337394,0,0,0,0,0,0,0
2,29999,1,20000,55,10000,49,9999,0.100000,0,0,0.000000,5,2.000000,0.000000,5.964775,0,0,0,0,0,0,0
2,29999,2,20000,9,0,40,9999,0.100000,0,0,0.000000,5,0.000000,0.000000,1.377678,0,0,0,0,0,0,0
2,29999,3,20000,4,0,49,9999,0.100000,0,0,0.000000,5,1.000000,0.000000,1.680919,0,0,0,0,0,0,0
2,29999,4,20000,4,0,40,9999,0.100000,0,0,0.000000,4,0.000000,0.000000,6.889166,0,0,0,0,0,0,0
2,29999,5,20000,0,0,40,9999,0.100000,0,0,0.000000,5,0.000000,0.000000,0.134449,0,0,0,0,0,0,0
2,29999,6,20000,32,0,49,9999,0.100000,0,0,0.000000,5,3.000000,0.000000,13.849927,0,0,0,0,0,0,0
2,29999,7,20000,0,0,49,9999,0.100000,0,0,0.000000,5,2.000000,0.000000,3.561151,0,0,0,0,0,0,0
2,29999,8,20000,0,0,40,9999,0.100000,0,0,0.000000,5,0.000000,0.000000,1.026274,0,0,0,0,0,0,0
2,29999,9,20000,0,0,40,9999,0.100000,0,0,0.000000,5,0.000000,0.000000,2.164587,0,0,0,0,0,0,0
2,29999,10,20000,55,10000,40,9999,0.100000,0,0,0.000000,5,0.000000,0.000000,2.896851,0,0,0,0,0,0,0
2,29999,11,20000,4,0,99,9999,0.100000,0,0,34.210526,5,3.000000,0.000000,15.933410,0,0,1,0,0,0,0
2,29999,12,20000,0,0,40,9999,0.100000,0,0,0.000000,5,0.000000,0.000000,0.783011,0,0,0,0,0,0,0
2,29999,13,20000,0,0,49,9999,0.100000,0,0,0.000000,5,2.000000,0.000000,7.506828,0,0,0,0,0,0,0
2,29999,14,20000,9,0,49,9999,0.100000,0,0,0.000000,5,1.000000,0.000000,13.712012,0,0,0,0,0,0,0
2,29999,15,20000,4,0,40,9999,0.100000,0,0,0.000000,5,0.000000,0.000000,0.100776,0,0,0,0,0,0,0
2,29999,16,20000,0,0,49,9999,0.100000,0,0,0.000000,5,2.000000,0.000000,6.544657,0,0,0,0,0,0,0
2,29999,17,20000,0,0,40,9999,0.100000,0,0,0.000000,5,0.000000,0.000000,0.262186,0,0,0,0,0,0,0
2,29999,18,20000,32,0,49,9999,0.100000,0,0,0.000000,5,1.000000,0.000000,1.882981,0,0,0,0,0,0,0
2,29999,19,20000,9,0,40,9999,0.100000,0,0,0.000000,5,0.000000,0.000000,3.709451,0,0,0,0,0,0,0
2,29999,20,20000,9,0,49,9999,0.100000,0,0,0.000000,5,1.000000,0.000000,1.564778,0,0,0,0,0,0,0
2,29999,21,20000,9,0,40,9999,0.100000,0,0,0.000000,5,0.000000,0.000000,17.518424,0,0,0,0,0,0,0
2,29999,22,20000,4,0,40,9999,0.100000,0,0,0.000000,5,0.000000,0.000000,2.978769,0,0,0,0,0,0,0
2,29999,23,20000,55,10000,40,9999,0.100000,0,0,0.000000,5,0.000000,0.000000,0.113296,0,0,0,0,0,0,0
2,29999,24,20000,4,0,49,9999,0.100000,0,0,0.000000,4,3.000000,0.000000,20.773993,0,0,0,0,0,0,0
2,29999,25,20000,55,10000,40,9999,0.100000,0,0,0.000000,5,0.000000,0.000000,0.916081,0,0,0,0,0,0,0
2,29999,26,20000,9,0,40,9999,0.100000,0,0,0.000000,5,0.000000,0.000000,0.920234,0,0,0,0,0,0,0
2,29999,27,20000,7,10000,49,9999,0.100000,0,0,0.000000,5,2.000000,0.000000,4.478479,0,0,0,0,0,0,0
2,29999,28,20000,9,0,40,9999,0.100000,0,0,0.000000,5,0.000000,0.000000,0.736617,0,0,0,0,0,0,0
2,29999,29,20000,4,0,49,9999,0.100000,0,0,0.000000,5,1.000000,0.000000,2.456346,0,0,0,0,0,0,0
2,29999,30,20000,9,0,40,9999,0.100000,0,0,0.000000,5,0.000000,0.000000,0.380304,0,0,0,0,0,0,0
2,29999,31,20000,9,0,40,9999,0.100000,0,0,0.000000,5,0.000000,0.000000,0.285203,0,0,0,0,0,0,0
2,29999,32,20000,4,0,40,9999,0.100000,0,0,0.000000,5,0.000000,0.000000,0.225773,0,0,0,0,0,0,0
2,29999,33,20000,9,0,40,9999,0.100000,0,0,0.000000,5,0.000000,0.000000,0.694535,0,0,0,0,0,0,0
2,29999,34,20000,4,0,40,9999,0.100000,0,0,0.000000,5,0.000000,0.000000,0.130235,0,0,0,0,0,0,0
2,29999,35,20000,30,10000,40,9999,0.100000,0,0,0.000000,5,0.000000,0.000000,2.780355,0,0,0,0,0,0,0
2,29999,36,20000,0,0,40,9999,0.100000,0,0,0.000000,5,0.000000,0.000000,0.071622,0,0,0,0,0,0,0
2,29999,37,20000,0,0,40,9999,0.100000,0,0,0.000000,5,0.000000,0.000000,0.407378,0,0,0,0,0,0,0
2,29999,38,20000,0,0,40,9999,0.100000,0,0,0.000000,5,0.000000,0.000000,0.107343,0,0,0,0,0,0,0
2,29999,39,20000,0,0,40,9999,0.100000,0,0,0.000000,5,0.000000,0.000000,0.750354,0,0,0,0,0,0,0
2,29999,40,20000,9,0,49,9999,0.100000,0,0,0.000000,5,1.000000,0.000000,1.960793,0,0,0,0,0,0,0
2,29999,41,20000,0,0,40,9999,0.100000,0,0,0.000000,5,0.000000,0.000000,1.113717,0,0,0,0,0,0,0
2,29999,42,20000,9,0,49,9999,0.100000,0,0,0.000000,5,2.000000,0.000000,4.126634,0,0,0,0,0,0,0
2,29999,43,20000,0,0,40,9999,0.100000,0,0,0.000000,5,0.000000,0.000000,0.130424,0,0,0,0,0,0,0
2,29999,44,20000,4,0,40,9999,0.100000,0,0,0.000000,5,0.000000,0.000000,0.149774,0,0,0,0,0,0,0
2,29999,45,20000,9,0,49,9999,0.100000,0,0,0.000000,5,2.000000,0.000000,2.994248,0,0,0,0,0,0,0
2,29999,46,20000,4,0,40,9999,0.100000,0,0,0.000000,5,0.000000,0.000000,1.022823,0,0,0,0,0,0,0
2,29999,47,20000,4,0,40,9999,0.100000,0,0,0.000000,5,0.000000,0.000000,0.365902,0,0,0,0,0,0,0
2,29999,48,20000,9,0,49,9999,0.100000,0,0,0.000000,5,2.000000,0.000000,4.756516,0,0,0,0,0,0,0
2,29999,49,20000,0,0,49,9999,0.100000,0,0,0.000000,5,1.000000,0.000000,1.842935,0,0,0,0,0,0,0
2,29999,50,20000,9,0,40,9999,0.100000,0,0,0.000000,5,0.000000,0.000000,0.309666,0,0,0,0,0,0,0
2,29999,51,20000,0,0,49,9999,0.100000,0,0,0.000000,5,3.000000,0.000000,8.316991,0,0,0,0,0,0,0
2,29999,52,20000,32,0,40,9999,0.100000,0,0,0.000000,5,0.000000,0.000000,0.162504,0,0,0,0,0,0,0
2,29999,53,20000,32,0,40,9999,0.100000,0,0,0.000000,5,0.000000,0.000000,0.570024,0,0,0,0,0,0,0
2,29999,54,20000,0,0,49,9999,0.100000,0,0,0.000000,5,3.000000,0.000000,9.592402,0,0,0,0,0,0,0
2,29999,55,20000,4,0,40,9999,0.100000,0,0,0.000000,5,0.000000,0.000000,0.161202,0,0,0,0,0,0,0
2,29999,56,20000,55,10000,49,9999,0.100000,0,0,0.000000,5,1.000000,0.000000,1.185731,0,0,0,0,0,0,0
2,29999,57,20000,55,10000,40,9999,0.100000,0,0,0.000000,5,0.000000,0.000000,0.109844,0,0,0,0,0,0,0
2,29999,58,20000,0,0,40,9999,0.100000,0,0,0.000000,5,0.000000,0.000000,1.278498,0,0,0,0,0,0,0
2,29999,59,20000,9,0,9,9999,0.100000,0,0,34.210526,5,1.000000,0.000000,11.685004,0,0,0,1,0,0,0
2,29999,60,20000,4,0,40,9999,0.100000,0,0,0.000000,5,0.000000,0.000000,0.546888,0,0,0,0,0,0,0
2,29999,61,20000,32,0,49,9999,0.100000,0,0,0.000000,5,1.000000,0.000000,6.266953,0,0,0,0,0,0,0
2,29999,62,20000,9,0,40,9999,0.100000,0,0,0.000000,5,0.000000,0.000000,1.713468,0,0,0,0,0,0,0
2,29999,63,20000,0,0,49,9999,0.100000,0,0,0.000000,5,1.000000,0.000000,9.954545,0,0,0,0,0,0,0
2,29999,64,20000,9,0,40,9999,0.100000,0,0,0.000000,5,0.000000,0.000000,0.104323,0,0,0,0,0,0,0
2,29999,65,20000,32,0,40,9999,0.100000,0,0,0.000000,5,0.000000,0.000000,2.209097,0,0,0,0,0,0,0
2,29999,66,20000,32,0,49,9999,0.100000,0,0,0.000000,5,2.000000,0.000000,15.054040,0,0,0,0,0,0,0
2,29999,67,20000,32,0,49,9999,0.100000,0,0,0.000000,5,2.000000,0.000000,13.433513,0,0,0,0,0,0,0
2,29999,68,20000,32,0,49,9999,0.100000,0,0,0.000000,5,3.000000,0.000000,7.826541,0,0,0,0,0,0,0
2,29999,69,20000,9,0,40,9999,0.100000,0,0,0.000000,5,0.000000,0.000000,0.753411,0,0,0,0,0,0,0
2,29999,70,20000,55,10000,40,9999,0.100000,0,0,0.000000,5,0.000000,0.000000,1.234750,0,0,0,0,0,0,0
2,29999,71,20000,9,0,49,9999,0.100000,0,0,0.000000,5,1.000000,0.000000,10.550723,0,0,0,0,0,0,0
2,29999,72,20000,9,0,40,9999,0.100000,0,0,0.000000,5,0.000000,0.000000,0.225476,0,0,0,0,0,0,0
2,29999,73,20000,0,0,99,9999,0.100000,0,0,34.210526,5,8.000000,0.000000,25.662632,0,0,1,0,0,0,0
2,29999,74,20000,9,0,49,9999,0.100000,0,0,0.000000,5,1.000000,0.000000,1.814995,0,0,0,0,0,0,0
2,29999,75,20000,32,0,40,9999,0.100000,0,0,0.000000,5,0.000000,0.000000,0.460153,0,0,0,0,0,0,0
2,29999,76,20000,0,0,40,9999,0.100000,0,0,0.000000,5,0.000000,0.000000,1.063840,0,0,0,0,0,0,0
2,29999,77,20000,4,0,49,9999,0.100000,0,0,0.000000,5,2.000000,0.000000,9.944159,0,0,0,0,0,0,0
2,29999,78,20000,55,10000,49,9999,0.100000,0,0,0.000000,5,1.000000,0.000000,13.534581,0,0,0,0,0,0,0
2,29999,79,20000,9,0,40,9999,0.100000,0,0,0.000000,5,0.000000,0.000000,0.665242,0,0,0,0,0,0,0
2,29999,80,20000,32,0,9,9999,0.100000,0,0,22.495321,5,1.000000,0.000000,13.107565,0,0,0,1,0,0,0
2,29999,81,20000,4,0,40,9999,0.100000,0,0,0.000000,5,0.000000,0.000000,0.077863,0,0,0,0,0,0,0
2,29999,82,20000,0,0,40,9999,0.100000,0,0,0.000000,5,0.000000,0.000000,0.700276,0,0,0,0,0,0,0
2,29999,83,20000,0,0,40,9999,0.100000,0,0,0.000000,4,0.000000,0.000000,0.301431,0,0,0,0,0,0,0
2,29999,84,20000,4,0,40,9999,0.100000,0,0,0.000000,5,0.000000,0.000000,0.177542,0,0,0,0,0,0,0
2,29999,85,20000,0,0,40,9999,0.100000,0,0,0.000000,5,0.000000,0.000000,0.577200,0,0,0,0,0,0,0
2,29999,86,20000,55,10000,40,9999,0.100000,0,0,0.000000,5,0.000000,0.000000,3.693322,0,0,0,0,0,0,0
2,29999,87,20000,32,0,49,9999,0.100000,0,0,0.000000,5,1.000000,0.000000,1.712558,0,0,0,0,0,0,0
2,29999,88,20000,4,0,49,9999,0.100000,0,0,0.000000,5,11.000000,0.000000,12.664135,0,0,0,0,0,0,0
2,29999,89,20000,32,0,40,9999,0.100000,0,0,0.000000,5,0.000000,0.000000,0.476436,0,0,0,0,0,0,0
2,29999,90,20000,9,0,40,9999,0.100000,0,0,0.000000,5,0.000000,0.000000,0.136592,0,0,0,0,0,0,0
2,29999,91,20000,55,10000,40,9999,0.100000,0,0,0.000000,5,0.000000,0.000000,0.528985,0,0,0,0,0,0,0
2,29999,92,20000,0,0,40,9999,0.100000,0,0,0.000000,5,0.000000,0.000000,0.245451,0,0,0,0,0,0,0
2,29999,93,20000,9,0,40,9999,0.100000,0,0,0.000000,5,0.000000,0.000000,0.838394,0,0,0,0,0,0,0
2,29999,94,20000,0,0,40,9999,0.100000,0,0,0.000000,5,0.000000,0.000000,3.171541,0,0,0,0,0,0,0
2,29999,95,20000,0,0,40,9999,0.100000,0,0,0.000000,5,0.000000,0.000000,0.784506,0,0,0,0,0,0,0
2,29999,96,20000,9,0,49,9999,0.100000,0,0,0.000000,5,2.000000,0.000000,12.666588,0,0,0,0,0,0,0
2,29999,97,20000,9,0,49,9999,0.100000,0,0,0.000000,5,3.000000,0.000000,9.100425,0,0,0,0,0,0,0
2,29999,98,20000,4,0,40,9999,0.100000,0,0,0.000000,5,0.000000,0.000000,2.851581,0,0,0,0,0,0,0
2,29999,99,20000,32,0,49,9999,0.100000,0,0,0.000000,5,1.000000,0.000000,1.772201,0,0,0,0,0,0,0
3,39999,0,30000,4,0,40,9999,0.100000,0,0,0.000000,5,0.000000,0.000000,0.345405,0,0,0,0,0,0,0
3,39999,1,30000,2,10000,40,9999,0.100000,0,0,0.000000,5,0.000000,0.000000,0.230822,0,0,0,0,0,0,0
3,39999,2,30000,0,0,40,9999,0.100000,0,0,0.000000,5,0.000000,0.000000,1.045252,0,0,0,0,0,0,0
3,39999,3,30000,2,10000,40,9999,0.100000,0,0,0.000000,5,0.000000,0.000000,0.533475,0,0,0,0,0,0,0
3,39999,4,30000,0,0,40,9999,0.100000,0,0,0.000000,5,0.000000,0.000000,0.213825,0,0,0,0,0,0,0
3,39999,5,30000,4,0,40,9999,0.100000,0,0,0.000000,5,0.000000,0.000000,0.135094,0,0,0,0,0,0,0
3,39999,6,30000,4,0,49,9999,0.100000,0,0,0.000000,5,1.000000,0.000000,10.365401,0,0,0,0,0,0,0
3,39999,7,30000,0,0,40,9999,0.100000,0,0,0.000000,5,0.000000,0.000000,0.380995,0,0,0,0,0,0,0
3,39999,8,30000,9,0,40,9999,0.100000,0,0,0.000000,5,0.000000,0.000000,1.225560,0,0,0,0,0,0,0
3,39999,9,30000,55,10000,49,9999,0.100000,0,0,0.000000,5,3.000000,0.000000,9.125462,0,0,0,0,0,0,0
3,39999,10,30000,2,10000,40,9999,0.100000,0,0,0.000000,5,0.000000,0.000000,1.221163,0,0,0,0,0,0,0
3,39999,11,30000,0,0,49,9999,0.100000,0,0,0.000000,5,3.000000,0.000000,7.966241,0,0,0,0,0,0,0
3,39999,12,30000,55,10000,40,9999,0.100000,0,0,0.000000,5,0.000000,0.000000,0.561827,0,0,0,0,0,0,0
3,39999,13,30000,4,0,49,9999,0.100000,0,0,0.000000,5,2.000000,0.000000,3.030468,0,0,0,0,0,0,0
3,39999,14,30000,0,0,99,9999,0.100000,0,0,34.210526,5,9.000000,0.000000,17.627110,0,0,1,0,0,0,0
3,39999,15,30000,0,0,40,9999,0.100000,0,0,0.000000,5,0.000000,0.000000,0.140472,0,0,0,0,0,0,0
3,39999,16,30000,0,0,40,9999,0.100000,0,0,0.000000,5,0.000000,0.000000,5.760852,0,0,0,0,0,0,0
3,39999,17,30000,2,10000,40,9999,0.100000,0,0,0.000000,5,0.000000,0.000000,0.289118,0,0,0,0,0,0,0
3,39999,18,30000,4,0,40,9999,0.100000,0,0,0.000000,5,0.000000,0.000000,0.833359,0,0,0,0,0,0,0
3,39999,19,30000,0,0,49,9999,0.100000,0,0,0.000000,5,4.000000,0.000000,9.261340,0,0,0,0,0,0,0
3,39999,20,30000,4,0,40,9999,0.100000,0,0,0.000000,5,0.000000,0.000000,0.381460,0,0,0,0,0,0,0
3,39999,21,30000,2,10000,40,9999,0.100000,0,0,0.000000,5,0.000000,0.000000,19.191323,0,0,0,0,0,0,0
3,39999,22,30000,2,10000,40,9999,0.100000,0,0,0.000000,5,0.000000,0.000000,2.898094,0,0,0,0,0,0,0
3,39999,23,30000,55,10000,40,9999,0.100000,0,0,0.000000,5,0.000000,0.000000,0.140801,0,0,0,0,0,0,0
3,39999,24,30000,55,10000,9,9999,0.100000,0,0,0.000000,5,4.000000,0.000000,6.973664,0,0,0,0,0,0,3
3,39999,25,30000,55,10000,49,9999,0.100000,0,0,0.000000,5,2.000000,0.000000,5.641014,0,0,0,0,0,0,0
3,39999,26,30000,9,0,49,9999,0.100000,0,0,0.000000,5,4.000000,0.000000,7.904643,0,0,0,0,0,0,0
3,39999,27,30000,0,0,40,9999,0.100000,0,0,0.000000,5,0.000000,0.000000,0.403689,0,0,0,0,0,0,0
3,39999,28,30000,0,0,40,9999,0.100000,0,0,0.000000,5,0.000000,0.000000,0.897830,0,0,0,0,0,0,0
3,39999,29,30000,0,0,40,9999,0.100000,0,0,0.000000,5,0.000000,0.000000,0.090454,0,0,0,0,0,0,0
3,39999,30,30000,4,0,40,9999,0.100000,0,0,0.000000,5,0.000000,0.000000,0.720816,0,0,0,0,0,0,0
3,39999,31,30000,55,10000,9,9999,0.100000,0,0,0.000000,5,2.000000,0.000000,4.415280,0,0,0,0,0,0,4
3,39999,32,30000,0,0,49,9999,0.100000,0,0,0.000000,5,7.000000,0.000000,15.870582,0,0,0,0,0,0,0
3,39999,33,30000,55,10000,40,9999,0.100000,0,0,0.000000,5,0.000000,0.000000,0.579974,0,0,0,0,0,0,0
3,39999,34,30000,4,0,40,9999,0.100000,0,0,0.000000,5,0.000000,0.000000,0.184718,0,0,0,0,0,0,0
3,39999,35,30000,55,10000,49,9999,0.100000,0,0,0.000000,5,1.000000,0.000000,4.992147,0,0,0,0,0,0,0
3,39999,36,30000,4,0,40,9999,0.100000,0,0,0.000000,5,0.000000,0.000000,0.111993,0,0,0,0,0,0,0
3,39999,37,30000,55,10000,40,9999,0.100000,0,0,0.000000,5,0.000000,0.000000,0.435796,0,0,0,0,0,0,0
3,39999,38,30000,2,10000,40,9999,0.100000,0,0,0.000000,5,0.000000,0.000000,0.105761,0,0,0,0,0,0,0
3,39999,39,30000,2,10000,40,9999,0.100000,0,0,0.000000,5,0.000000,0.000000,0.792411,0,0,0,0,0,0,0
3,39999,40,30000,2,10000,49,9999,0.100000,0,0,0.000000,5,1.000000,0.000000,2.061788,0,0,0,0,0,0,0
3,39999,41,30000,55,10000,40,9999,0.100000,0,0,0.000000,5,0.000000,0.000000,2.292028,0,0,0,0,0,0,0
3,39999,42,30000,2,10000,40,9999,0.100000,0,0,0.000000,5,0.000000,0.000000,0.578078,0,0,0,0,0,0,0
3,39999,43,30000,9,0,40,9999,0.100000,0,0,0.000000,5,0.000000,0.000000,0.108447,0,0,0,0,0,0,0
3,39999,44,30000,4,0,40,9999,0.100000,0,0,0.000000,5,0.000000,0.000000,0.142482,0,0,0,0,0,0,0
3,39999,45,30000,55,10000,40,9999,0.100000,0,0,0.000000,5,0.000000,0.000000,0.084937,0,0,0,0,0,0,0
3,39999,46,30000,55,10000,40,9999,0.100000,0,0,0.000000,5,0.000000,0.000000,1.100380,0,0,0,0,0,0,0
3,39999,47,30000,4,0,40,9999,0.100000,0,0,0.000000,5,0.000000,0.000000,0.450418,0,0,0,0,0,0,0
3,39999,48,30000,2,10000,40,9999,0.100000,0,0,0.000000,5,0.000000,0.000000,0.519306,0,0,0,0,0,0,0
3,39999,49,30000,4,0,40,9999,0.100000,0,0,0.000000,5,0.000000,0.000000,0.283824,0,0,0,0,0,0,0
3,39999,50,30000,4,0,40,9999,0.100000,0,0,0.000000,5,0.000000,0.000000,0.340350,0,0,0,0,0,0,0
3,39999,51,30000,2,10000,40,9999,0.100000,0,0,0.000000,5,0.000000,0.000000,0.969722,0,0,0,0,0,0,0
3,39999,52,30000,2,10000,40,9999,0.100000,0,0,0.000000,5,0.000000,0.000000,0.151537,0,0,0,0,0,0,0
3,39999,53,30000,4,0,49,9999,0.100000,0,0,0.000000,5,1.000000,0.000000,12.592186,0,0,0,0,0,0,0
3,39999,54,30000,4,0,49,9999,0.100000,0,0,0.000000,5,2.000000,0.000000,18.699662,0,0,0,0,0,0,0
3,39999,55,30000,4,0,40,9999,0.100000,0,0,0.000000,5,0.000000,0.000000,0.199102,0,0,0,0,0,0,0
3,39999,56,30000,4,0,40,9999,0.100000,0,0,0.000000,5,0.000000,0.000000,3.650766,0,0,0,0,0,0,0
3,39999,57,30000,55,10000,40,9999,0.100000,0,0,0.000000,5,0.000000,0.000000,0.088934,0,0,0,0,0,0,0
3,39999,58,30000,2,10000,40,9999,0.100000,0,0,0.000000,5,0.000000,0.000000,2.111925,0,0,0,0,0,0,0
3,39999,59,30000,55,10000,49,9999,0.100000,0,0,0.000000,5,2.000000,0.000000,11.684941,0,0,0,0,0,0,0
3,39999,60,30000,9,0,0,9999,0.100000,0,0,0.000000,5,0.000000,0.000000,1.947980,0,0,0,0,0,0,1
3,39999,61,30000,4,0,49,9999,0.100000,0,0,0.000000,5,4.000000,0.000000,10.288651,0,0,0,0,0,0,0
3,39999,62,30000,55,10000,40,9999,0.100000,0,0,0.000000,5,0.000000,0.000000,3.536132,0,0,0,0,0,0,0
3,39999,63,30000,0,0,49,9999,0.100000,0,0,0.000000,5,2.000000,0.000000,9.355505,0,0,0,0,0,0,0
3,39999,64,30000,0,0,40,9999,0.100000,0,0,0.000000,5,0.000000,0.000000,0.078214,0,0,0,0,0,0,0
3,39999,65,30000,9,0,40,9999,0.100000,0,0,0.000000,5,0.000000,0.000000,2.507233,0,0,0,0,0,0,0
3,39999,66,30000,9,0,49,9999,0.100000,0,0,0.000000,5,4.000000,0.000000,10.521157,0,0,0,0,0,0,0
3,39999,67,30000,4,0,49,9999,0.100000,0,0,0.000000,5,2.000000,0.000000,11.381826,0,0,0,0,0,0,0
3,39999,68,30000,0,0,40,9999,0.100000,0,0,0.000000,5,0.000000,0.000000,3.011511,0,0,0,0,0,0,0
3,39999,69,30000,2,10000,40,9999,0.100000,0,0,0.000000,5,0.000000,0.000000,0.734082,0,0,0,0,0,0,0
3,39999,70,30000,9,0,40,9999,0.100000,0,0,0.000000,5,0.000000,0.000000,1.044802,0,0,0,0,0,0,0
3,39999,71,30000,9,0,49,9999,0.100000,0,0,0.000000,5,2.000000,0.000000,3.365280,0,0,0,0,0,0,0
3,39999,72,30000,0,0,40,9999,0.100000,0,0,0.000000,5,0.000000,0.000000,0.959199,0,0,0,0,0,0,0
3,39999,73,30000,2,10000,9,9999,0.100000,0,0,0.000000,5,1.000000,0.000000,3.718299,0,0,0,0,0,0,1
3,39999,74,30000,4,0,49,9999,0.100000,0,0,0.000000,5,1.000000,0.000000,2.332689,0,0,0,0,0,0,0
3,39999,75,30000,4,0,49,9999,0.100000,0,0,0.000000,5,1.000000,0.000000,3.462116,0,0,0,0,0,0,0
3,39999,76,30000,9,0,40,9999,0.100000,0,0,0.000000,5,0.000000,0.000000,0.766318,0,0,0,0,0,0,0
3,39999,77,30000,0,0,49,9999,0.100000,0,0,0.000000,5,4.000000,0.000000,10.051844,0,0,0,0,0,0,0
3,39999,78,30000,0,0,49,9999,0.100000,0,0,0.000000,5,3.000000,0.000000,11.318853,0,0,0,0,0,0,0
3,39999,79,30000,0,0,40,9999,0.100000,0,0,0.000000,5,0.000000,0.000000,0.770951,0,0,0,0,0,0,0
3,39999,80,30000,2,10000,9,9999,0.100000,0,0,0.000000,5,4.000000,0.000000,7.011083,0,0,0,0,0,0,4
3,39999,81,30000,2,10000,40,9999,0.100000,0,0,0.000000,5,0.000000,0.000000,0.075744,0,0,0,0,0,0,0
3,39999,82,30000,9,0,40,9999,0.100000,0,0,0.000000,5,0.000000,0.000000,0.508062,0,0,0,0,0,0,0
3,39999,83,30000,9,0,40,9999,0.100000,0,0,0.000000,5,0.000000,0.000000,1.312178,0,0,0,0,0,0,0
3,39999,84,30000,2,10000,40,9999,0.100000,0,0,0.000000,5,0.000000,0.000000,0.174881,0,0,0,0,0,0,0
3,39999,85,30000,55,10000,40,9999,0.100000,0,0,0.000000,5,0.000000,0.000000,0.511565,0,0,0,0,0,0,0
3,39999,86,30000,2,10000,49,9999,0.100000,0,0,0.000000,5,1.000000,0.000000,6.307444,0,0,0,0,0,0,0
3,39999,87,30000,9,0,40,9999,0.100000,0,0,0.000000,5,0.000000,0.000000,0.683094,0,0,0,0,0,0,0
3,39999,88,30000,55,10000,40,9999,0.100000,0,0,0.000000,5,0.000000,0.000000,0.206557,0,0,0,0,0,0,0
3,39999,89,30000,55,10000,40,9999,0.100000,0,0,0.000000,5,0.000000,0.000000,1.655607,0,0,0,0,0,0,0
3,39999,90,30000,4,0,40,9999,0.100000,0,0,0.000000,5,0.000000,0.000000,0.121408,0,0,0,0,0,0,0
3,39999,91,30000,4,0,40,9999,0.100000,0,0,0.000000,5,0.000000,0.000000,0.481070,0,0,0,0,0,0,0
3,39999,92,30000,9,0,40,9999,0.100000,0,0,0.000000,5,0.000000,0.000000,0.590503,0,0,0,0,0,0,0
3,39999,93,30000,2,10000,49,9999,0.100000,0,0,0.000000,5,3.000000,0.000000,7.585027,0,0,0,0,0,0,0
3,39999,94,30000,55,10000,49,9999,0.100000,0,0,0.000000,5,2.000000,0.000000,7.156870,0,0,0,0,0,0,0
3,39999,95,30000,0,0,40,9999,0.100000,0,0,0.000000,5,0.000000,0.000000,0.815697,0,0,0,0,0,0,0
3,39999,96,30000,4,0,9,9999,0.100000,0,0,0.000000,5,2.000000,0.000000,3.707742,0,0,0,0,0,0,1
3,39999,97,30000,0,0,40,9999,0.100000,0,0,0.000000,5,0.000000,0.000000,1.924735,0,0,0,0,0,0,0
3,39999,98,30000,55,10000,9,9999,0.100000,0,0,0.000000,5,2.000000,0.000000,10.228424,0,0,0,0,0,0,1
3,39999,99,30000,4,0,40,9999,0.100000,0,0,0.000000,5,0.000000,0.000000,3.610168,0,0,0,0,0,0,0
4,49999,0,40000,55,10000,40,9999,0.100000,0,0,0.000000,5,0.000000,0.000000,0.377171,0,0,0,0,0,0,0
4,49999,1,40000,2,10000,40,9999,0.100000,0,0,0.000000,5,0.000000,0.000000,0.354739,0,0,0,0,0,0,0
4,49999,2,40000,0,0,40,9999,0.100000,0,0,0.000000,5,0.000000,0.000000,1.042136,0,0,0,0,0,0,0
4,49999,3,40000,55,10000,40,9999,0.100000,0,0,0.000000,5,0.000000,0.000000,0.817997,0,0,0,0,0,0,0
4,49999,4,40000,9,0,40,9999,0.100000,0,0,0.000000,5,0.000000,0.000000,0.202254,0,0,0,0,0,0,0
4,49999,5,40000,0,0,40,9999,0.100000,0,0,0.000000,5,0.000000,0.000000,0.116351,0,0,0,0,0,0,0
4,49999,6,40000,55,10000,49,9999,0.100000,0,0,0.000000,5,1.000000,0.000000,6.796196,0,0,0,0,0,0,0
4,49999,7,40000,0,0,40,9999,0.100000,0,0,0.000000,5,0.000000,0.000000,1.327080,0,0,0,0,0,0,0
4,49999,8,40000,4,0,49,9999,0.100000,0,0,0.000000,5,1.000000,0.000000,12.743210,0,0,0,0,0,0,0
4,49999,9,40000,2,10000,40,9999,0.100000,0,0,0.000000,5,0.000000,0.000000,3.237987,0,0,0,0,0,0,0
4,49999,10,40000,0,0,9,9999,0.100000,0,0,0.000000,5,3.000000,0.000000,8.546016,0,0,0,0,0,0,1
4,49999,11,40000,0,0,49,9999,0.100000,0,0,0.000000,5,1.000000,0.000000,9.708560,0,0,0,0,0,0,0
4,49999,12,40000,0,0,40,9999,0.100000,0,0,0.000000,5,0.000000,0.000000,0.564757,0,0,0,0,0,0,0
4,49999,13,40000,9,0,40,9999,0.100000,0,0,0.000000,5,0.000000,0.000000,1.567610,0,0,0,0,0,0,0
4,49999,14,40000,4,0,9,9999,0.100000,0,0,0.000000,5,3.000000,0.000000,8.550957,0,0,0,0,0,0,1
4,49999,15,40000,2,10000,40,9999,0.100000,0,0,0.000000,5,0.000000,0.000000,0.152387,0,0,0,0,0,0,0
4,49999,16,40000,0,0,49,9999,0.100000,0,0,0.000000,5,1.000000,0.000000,5.961343,0,0,0,0,0,0,0
4,49999,17,40000,2,10000,40,9999,0.100000,0,0,0.000000,5,0.000000,0.000000,0.301392,0,0,0,0,0,0,0
4,49999,18,40000,9,0,40,9999,0.100000,0,0,0.000000,5,0.000000,0.000000,1.048563,0,0,0,0,0,0,0
4,49999,19,40000,9,0,40,9999,0.100000,0,0,0.000000,5,0.000000,0.000000,4.211246,0,0,0,0,0,0,0
4,49999,20,40000,9,0,40,9999,0.100000,0,0,0.000000,5,0.000000,0.000000,0.627722,0,0,0,0,0,0,0
4,49999,21,40000,55,10000,49,9999,0.100000,0,0,0.000000,5,1.000000,0.000000,2.681846,0,0,0,0,0,0,0
4,49999,22,40000,9,0,40,9999,0.100000,0,0,0.000000,5,0.000000,0.000000,2.022810,0,0,0,0,0,0,0
4,49999,23,40000,9,0,40,9999,0.100000,0,0,0.000000,5,0.000000,0.000000,0.176243,0,0,0,0,0,0,0
4,49999,24,40000,9,0,40,9999,0.100000,0,0,0.000000,5,0.000000,0.000000,2.202280,0,0,0,0,0,0,0
4,49999,25,40000,9,0,49,9999,0.100000,0,0,0.000000,5,7.000000,0.000000,11.948047,0,0,0,0,0,0,0
4,49999,26,40000,0,0,49,9999,0.100000,0,0,0.000000,5,1.000000,0.000000,5.329883,0,0,0,0,0,0,0
4,49999,27,40000,0,0,40,9999,0.100000,0,0,0.000000,5,0.000000,0.000000,0.466131,0,0,0,0,0,0,0
4,49999,28,40000,4,0,40,9999,0.100000,0,0,0.000000,5,0.000000,0.000000,0.211454,0,0,0,0,0,0,0
4,49999,29,40000,0,0,40,9999,0.100000,0,0,0.000000,5,0.000000,0.000000,0.248413,0,0,0,0,0,0,0
4,49999,30,40000,55,10000,49,9999,0.100000,0,0,0.000000,5,1.000000,0.000000,4.825869,0,0,0,0,0,0,0
4,49999,31,40000,9,0,40,9999,0.100000,0,0,0.000000,5,0.000000,0.000000,2.420035,0,0,0,0,0,0,0
4,49999,32,40000,2,10000,40,9999,0.100000,0,0,0.000000,5,0.000000,0.000000,0.587270,0,0,0,0,0,0,0
4,49999,33,40000,0,0,49,9999,0.100000,0,0,0.000000,5,1.000000,0.000000,6.961965,0,0,0,0,0,0,0
4,49999,34,40000,55,10000,40,9999,0.100000,0,0,0.000000,5,0.000000,0.000000,0.189344,0,0,0,0,0,0,0
4,49999,35,40000,2,10000,40,9999,0.100000,0,0,0.000000,5,0.000000,0.000000,0.251500,0,0,0,0,0,0,0
4,49999,36,40000,4,0,40,9999,0.100000,0,0,0.000000,5,0.000000,0.000000,0.069060,0,0,0,0,0,0,0
4,49999,37,40000,55,10000,40,9999,0.100000,0,0,0.000000,5,0.000000,0.000000,0.410012,0,0,0,0,0,0,0
4,49999,38,40000,9,0,40,9999,0.100000,0,0,0.000000,5,0.000000,0.000000,0.105757,0,0,0,0,0,0,0
4,49999,39,40000,0,0,49,9999,0.100000,0,0,0.000000,5,4.000000,0.000000,10.389095,0,0,0,0,0,0,0
4,49999,40,40000,55,10000,40,9999,0.100000,0,0,0.000000,5,0.000000,0.000000,0.616754,0,0,0,0,0,0,0
4,49999,41,40000,4,0,40,9999,0.100000,0,0,0.000000,5,0.000000,0.000000,0.116297,0,0,0,0,0,0,0
4,49999,42,40000,9,0,49,9999,0.100000,0,0,0.000000,5,2.000000,0.000000,8.058446,0,0,0,0,0,0,0
4,49999,43,40000,0,0,40,9999,0.100000,0,0,0.000000,5,0.000000,0.000000,1.093651,0,0,0,0,0,0,0
4,49999,44,40000,9,0,40,9999,0.100000,0,0,0.000000,5,0.000000,0.000000,0.134068,0,0,0,0,0,0,0
4,49999,45,40000,0,0,40,9999,0.100000,0,0,0.000000,5,0.000000,0.000000,0.078540,0,0,0,0,0,0,0
4,49999,46,40000,2,10000,9,9999,0.100000,0,0,0.000000,5,1.000000,0.000000,2.663929,0,0,0,0,0,0,1
4,49999,47,40000,9,0,40,9999,0.100000,0,0,0.000000,5,0.000000,0.000000,0.242034,0,0,0,0,0,0,0
4,49999,48,40000,2,10000,40,9999,0.100000,0,0,0.000000,5,0.000000,0.000000,1.897015,0,0,0,0,0,0,0
4,49999,49,40000,0,0,49,9999,0.100000,0,0,0.000000,5,1.000000,0.000000,1.090251,0,0,0,0,0,0,0
4,49999,50,40000,9,0,40,9999,0.100000,0,0,0.000000,5,0.000000,0.000000,0.344942,0,0,0,0,0,0,0
4,49999,51,40000,4,0,40,9999,0.100000,0,0,0.000000,5,0.000000,0.000000,0.316775,0,0,0,0,0,0,0
4,49999,52,40000,2,10000,49,9999,0.100000,0,0,0.000000,5,10.000000,0.000000,11.330983,0,0,0,0,0,0,0
4,49999,53,40000,4,0,40,9999,0.100000,0,0,0.000000,5,0.000000,0.000000,1.651595,0,0,0,0,0,0,0
4,49999,54,40000,0,0,40,9999,0.100000,0,0,0.000000,5,0.000000,0.000000,5.314683,0,0,0,0,0,0,0
4,49999,55,40000,0,0,40,9999,0.100000,0,0,0.000000,5,0.000000,0.000000,0.217290,0,0,0,0,0,0,0
4,49999,56,40000,4,0,40,9999,0.100000,0,0,0.000000,5,0.000000,0.000000,2.749822,0,0,0,0,0,0,0
4,49999,57,40000,4,0,49,9999,0.100000,0,0,0.000000,5,1.000000,0.000000,1.038393,0,0,0,0,0,0,0
4,49999,58,40000,4,0,49,9999,0.100000,0,0,0.000000,5,1.000000,0.000000,3.326061,0,0,0,0,0,0,0
4,49999,59,40000,4,0,49,9999,0.100000,0,0,0.000000,5,1.000000,0.000000,7.331614,0,0,0,0,0,0,0
4,49999,60,40000,0,0,40,9999,0.100000,0,0,0.000000,5,0.000000,0.000000,4.097425,0,0,0,0,0,0,0
4,49999,61,40000,4,0,49,9999,0.100000,0,0,0.000000,5,7.000000,0.000000,11.723785,0,0,0,0,0,0,0
4,49999,62,40000,4,0,40,9999,0.100000,0,0,0.000000,5,0.000000,0.000000,1.558896,0,0,0,0,0,0,0
4,49999,63,40000,9,0,49,9999,0.100000,0,0,0.000000,5,5.000000,0.000000,13.435643,0,0,0,0,0,0,0
4,49999,64,40000,0,0,40,9999,0.100000,0,0,0.000000,5,0.000000,0.000000,0.163245,0,0,0,0,0,0,0
4,49999,65,40000,0,0,40,9999,0.100000,0,0,0.000000,5,0.000000,0.000000,0.758054,0,0,0,0,0,0,0
4,49999,66,40000,9,0,40,9999,0.100000,0,0,0.000000,5,0.000000,0.000000,0.358831,0,0,0,0,0,0,0
4,49999,67,40000,4,0,40,9999,0.100000,0,0,0.000000,5,0.000000,0.000000,2.737235,0,0,0,0,0,0,0
4,49999,68,40000,0,0,40,9999,0.100000,0,0,0.000000,5,0.000000,0.000000,0.333355,0,0,0,0,0,0,0
4,49999,69,40000,9,0,9,9999,0.100000,0,0,0.000000,5,2.000000,0.000000,11.363322,0,0,0,0,0,0,1
4,49999,70,40000,55,10000,40,9999,0.100000,0,0,0.000000,5,0.000000,0.000000,0.885433,0,0,0,0,0,0,0
4,49999,71,40000,0,0,40,9999,0.100000,0,0,0.000000,5,0.000000,0.000000,2.272617,0,0,0,0,0,0,0
4,49999,72,40000,0,0,40,9999,0.100000,0,0,0.000000,5,0.000000,0.000000,1.927476,0,0,0,0,0,0,0
4,49999,73,40000,55,10000,49,9999,0.100000,0,0,0.000000,5,5.000000,0.000000,12.754962,0,0,0,0,0,0,0
4,49999,74,40000,4,0,40,9999,0.065000,0,0,0.000000,5,0.000000,0.000000,0.579223,0,0,0,0,0,0,0
4,49999,75,40000,0,0,40,9999,0.100000,0,0,0.000000,5,0.000000,0.000000,0.204264,0,0,0,0,0,0,0
4,49999,76,40000,2,10000,49,9999,0.100000,0,0,0.000000,5,1.000000,0.000000,2.814858,0,0,0,0,0,0,0
4,49999,77,40000,9,0,49,9999,0.100000,0,0,0.000000,5,3.000000,0.000000,9.079297,0,0,0,0,0,0,0
4,49999,78,40000,55,10000,49,9999,0.100000,0,0,0.000000,5,7.000000,0.000000,12.687886,0,0,0,0,0,0,0
4,49999,79,40000,55,10000,40,9999,0.100000,0,0,0.000000,5,0.000000,0.000000,0.189983,0,0,0,0,0,0,0
4,49999,80,40000,9,0,40,9999,0.100000,0,0,0.000000,5,0.000000,0.000000,0.631806,0,0,0,0,0,0,0
4,49999,81,40000,55,10000,40,9999,0.100000,0,0,0.000000,5,0.000000,0.000000,0.907135,0,0,0,0,0,0,0
4,49999,82,40000,0,0,49,9999,0.100000,0,0,0.000000,5,2.000000,0.000000,6.880801,0,0,0,0,0,0,0
4,49999,83,40000,4,0,40,9999,0.100000,0,0,0.000000,5,0.000000,0.000000,0.384876,0,0,0,0,0,0,0
4,49999,84,40000,2,10000,49,9999,0.100000,0,0,0.000000,5,1.000000,0.000000,1.129848,0,0,0,0,0,0,0
4,49999,85,40000,2,10000,40,9999,0.100000,0,0,0.000000,5,0.000000,0.000000,0.915975,0,0,0,0,0,0,0
4,49999,86,40000,55,10000,40,9999,0.100000,0,0,0.000000,5,0.000000,0.000000,3.147735,0,0,0,0,0,0,0
4,49999,87,40000,2,10000,40,9999,0.100000,0,0,0.000000,5,0.000000,0.000000,0.730590,0,0,0,0,0,0,0
4,49999,88,40000,0,0,40,9999,0.100000,0,0,0.000000,5,0.000000,0.000000,0.219483,0,0,0,0,0,0,0
4,49999,89,40000,2,10000,49,9999,0.100000,0,0,0.000000,5,4.000000,0.000000,9.691683,0,0,0,0,0,0,0
4,49999,90,40000,0,0,40,9999,0.100000,0,0,0.000000,5,0.000000,0.000000,0.112788,0,0,0,0,0,0,0
4,49999,91,40000,2,10000,40,9999,0.100000,0,0,0.000000,5,0.000000,0.000000,0.509759,0,0,0,0,0,0,0
4,49999,92,40000,4,0,40,9999,0.100000,0,0,0.000000,5,0.000000,0.000000,0.709748,0,0,0,0,0,0,0
4,49999,93,40000,9,0,49,9999,0.100000,0,0,0.000000,5,1.000000,0.000000,5.201086,0,0,0,0,0,0,0
4,49999,94,40000,0,0,49,9999,0.100000,0,0,0.000000,5,2.000000,0.000000,7.260453,0,0,0,0,0,0,0
4,49999,95,40000,0,0,40,9999,0.100000,0,0,0.000000,5,0.000000,0.000000,2.496903,0,0,0,0,0,0,0
4,49999,96,40000,0,0,49,9999,0.100000,0,0,0.000000,5,1.000000,0.000000,4.958623,0,0,0,0,0,0,0
4,49999,97,40000,9,0,40,9999,0.100000,0,0,0.000000,5,0.000000,0.000000,3.464373,0,0,0,0,0,0,0
4,49999,98,40000,4,0,40,9999,0.135000,0,0,0.000000,5,0.000000,0.000000,0.256070,0,0,0,0,0,0,0
4,49999,99,40000,2,10000,40,9999,0.100000,0,0,0.000000,5,0.000000,0.000000,2.748201,0,0,0,0,0,0,0
5,59999,0,50000,4,0,40,9999,0.100000,0,0,0.000000,5,0.000000,0.000000,0.380375,0,0,0,0,0,0,0
5,59999,1,50000,0,0,40,9999,0.100000,0,0,0.000000,5,0.000000,0.000000,0.284011,0,0,0,0,0,0,0
5,59999,2,50000,9,0,49,9999,0.100000,0,0,0.000000,5,3.000000,0.000000,8.983921,0,0,0,0,0,0,0
5,59999,3,50000,0,0,40,9999,0.100000,0,0,0.000000,5,0.000000,0.000000,0.977455,0,0,0,0,0,0,0
5,59999,4,50000,9,0,40,9999,0.100000,0,0,0.000000,5,0.000000,0.000000,0.205014,0,0,0,0,0,0,0
5,59999,5,50000,2,10000,40,9999,0.100000,0,0,0.000000,5,0.000000,0.000000,0.207632,0,0,0,0,0,0,0
5,59999,6,50000,4,0,40,9999,0.100000,0,0,0.000000,5,0.000000,0.000000,5.633981,0,0,0,0,0,0,0
5,59999,7,50000,9,0,40,9999,0.100000,0,0,0.000000,5,0.000000,0.000000,0.705787,0,0,0,0,0,0,0
5,59999,8,50000,4,0,40,9999,0.100000,0,0,0.000000,5,0.000000,0.000000,16.040530,0,0,0,0,0,0,0
5,59999,9,50000,0,0,40,9999,0.100000,0,0,0.000000,5,0.000000,0.000000,1.216780,0,0,0,0,0,0,0
5,59999,10,50000,2,10000,49,9999,0.100000,0,0,0.000000,5,2.000000,0.000000,4.656477,0,0,0,0,0,0,0
5,59999,11,50000,0,0,40,9999,0.100000,0,0,0.000000,5,0.000000,0.000000,6.919272,0,0,0,0,0,0,0
5,59999,12,50000,55,10000,40,9999,0.100000,0,0,0.000000,5,0.000000,0.000000,1.204699,0,0,0,0,0,0,0
5,59999,13,50000,2,10000,40,9999,0.100000,0,0,0.000000,5,0.000000,0.000000,5.274378,0,0,0,0,0,0,0
5,59999,14,50000,9,0,40,9999,0.100000,0,0,0.000000,5,0.000000,0.000000,0.742817,0,0,0,0,0,0,0
5,59999,15,50000,9,0,40,9999,0.100000,0,0,0.000000,5,0.000000,0.000000,0.139534,0,0,0,0,0,0,0
5,59999,16,50000,0,0,49,9999,0.100000,0,0,0.000000,5,2.000000,0.000000,5.780827,0,0,0,0,0,0,0
5,59999,17,50000,2,10000,40,9999,0.100000,0,0,0.000000,5,0.000000,0.000000,0.198498,0,0,0,0,0,0,0
5,59999,18,50000,2,10000,40,9999,0.065000,0,0,0.000000,5,0.000000,0.000000,1.134975,0,0,0,0,0,0,0
5,59999,19,50000,9,0,40,9999,0.100000,0,0,0.000000,5,0.000000,0.000000,4.145308,0,0,0,0,0,0,0
5,59999,20,50000,0,0,40,9999,0.100000,0,0,0.000000,5,0.000000,0.000000,0.781559,0,0,0,0,0,0,0
5,59999,21,50000,0,0,40,9999,0.100000,0,0,0.000000,5,0.000000,0.000000,1.609534,0,0,0,0,0,0,0
5,59999,22,50000,55,10000,40,9999,0.100000,0,0,0.000000,5,0.000000,0.000000,2.458069,0,0,0,0,0,0,0
5,59999,23,50000,2,10000,40,9999,0.100000,0,0,0.000000,5,0.000000,0.000000,0.136487,0,0,0,0,0,0,0
5,59999,24,50000,9,0,40,9999,0.100000,0,0,0.000000,5,0.000000,0.000000,2.379842,0,0,0,0,0,0,0
5,59999,25,50000,9,0,40,9999,0.100000,0,0,0.000000,5,0.000000,0.000000,1.460040,0,0,0,0,0,0,0
5,59999,26,50000,9,0,49,9999,0.100000,0,0,0.000000,5,1.000000,0.000000,3.879712,0,0,0,0,0,0,0
5,59999,27,50000,9,0,40,9999,0.100000,0,0,0.000000,5,0.000000,0.000000,0.382479,0,0,0,0,0,0,0
5,59999,28,50000,2,10000,40,9999,0.100000,0,0,0.000000,5,0.000000,0.000000,0.197428,0,0,0,0,0,0,0
5,59999,29,50000,4,0,40,9999,0.100000,0,0,0.000000,5,0.000000,0.000000,0.960742,0,0,0,0,0,0,0
5,59999,30,50000,0,0,40,9999,0.100000,0,0,0.000000,5,0.000000,0.000000,0.100928,0,0,0,0,0,0,0
5,59999,31,50000,55,10000,40,9999,0.100000,0,0,0.000000,5,0.000000,0.000000,5.625922,0,0,0,0,0,0,0
5,59999,32,50000,9,0,40,9999,0.100000,0,0,0.000000,5,0.000000,0.000000,0.302254,0,0,0,0,0,0,0
5,59999,33,50000,2,10000,40,9999,0.100000,0,0,0.000000,5,0.000000,0.000000,1.305736,0,0,0,0,0,0,0
5,59999,34,50000,55,10000,40,9999,0.100000,0,0,0.000000,5,0.000000,0.000000,0.170442,0,0,0,0,0,0,0
5,59999,35,50000,4,0,40,9999,0.100000,0,0,0.000000,5,0.000000,0.000000,0.403722,0,0,0,0,0,0,0
5,59999,36,50000,4,0,40,9999,0.100000,0,0,0.000000,5,0.000000,0.000000,0.134310,0,0,0,0,0,0,0
5,59999,37,50000,0,0,40,9999,0.100000,0,0,0.000000,5,0.000000,0.000000,0.424199,0,0,0,0,0,0,0
5,59999,38,50000,4,0,40,9999,0.100000,0,0,0.000000,5,0.000000,0.000000,0.098892,0,0,0,0,0,0,0
5,59999,39,50000,0,0,40,9999,0.100000,0,0,0.000000,5,0.000000,0.000000,0.564953,0,0,0,0,0,0,0
5,59999,40,50000,0,0,40,9999,0.100000,0,0,0.000000,5,0.000000,0.000000,0.723057,0,0,0,0,0,0,0
5,59999,41,50000,0,0,49,9999,0.100000,0,0,0.000000,5,2.000000,0.000000,4.476808,0,0,0,0,0,0,0
5,59999,42,50000,55,10000,40,9999,0.100000,0,0,0.000000,5,0.000000,0.000000,1.045879,0,0,0,0,0,0,0
5,59999,43,50000,0,0,40,9999,0.100000,0,0,0.000000,5,0.000000,0.000000,0.597584,0,0,0,0,0,0,0
5,59999,44,50000,55,10000,40,9999,0.100000,0,0,0.000000,5,0.000000,0.000000,1.085673,0,0,0,0,0,0,0
5,59999,45,50000,4,0,40,9999,0.100000,0,0,0.000000,5,0.000000,0.000000,0.080033,0,0,0,0,0,0,0
5,59999,46,50000,0,0,40,9999,0.100000,0,0,0.000000,5,0.000000,0.000000,0.585789,0,0,0,0,0,0,0
5,59999,47,50000,4,0,40,9999,0.100000,0,0,0.000000,5,0.000000,0.000000,0.234708,0,0,0,0,0,0,0
5,59999,48,50000,9,0,40,9999,0.100000,0,0,0.000000,5,0.000000,0.000000,1.101937,0,0,0,0,0,0,0
5,59999,49,50000,4,0,40,9999,0.100000,0,0,0.000000,5,0.000000,0.000000,0.382215,0,0,0,0,0,0,0
5,59999,50,50000,9,0,40,9999,0.100000,0,0,0.000000,5,0.000000,0.000000,1.080699,0,0,0,0,0,0,0
5,59999,51,50000,55,10000,40,9999,0.100000,0,0,0.000000,5,0.000000,0.000000,0.109811,0,0,0,0,0,0,0
5,59999,52,50000,4,0,49,9999,0.100000,0,0,0.000000,5,1.000000,0.000000,1.411333,0,0,0,0,0,0,0
5,59999,53,50000,0,0,40,9999,0.100000,0,0,0.000000,5,0.000000,0.000000,4.580666,0,0,0,0,0,0,0
5,59999,54,50000,9,0,49,9999,0.100000,0,0,0.000000,5,2.000000,0.000000,9.486557,0,0,0,0,0,0,0
5,59999,55,50000,9,0,40,9999,0.100000,0,0,0.000000,5,0.000000,0.000000,0.135450,0,0,0,0,0,0,0
5,59999,56,50000,55,10000,40,9999,0.100000,0,0,0.000000,5,0.000000,0.000000,3.180738,0,0,0,0,0,0,0
5,59999,57,50000,9,0,40,9999,0.100000,0,0,0.000000,5,0.000000,0.000000,0.204789,0,0,0,0,0,0,0
5,59999,58,50000,0,0,49,9999,0.100000,0,0,0.000000,5,6.000000,0.000000,12.907782,0,0,0,0,0,0,0
5,59999,59,50000,2,10000,40,9999,0.100000,0,0,0.000000,5,0.000000,0.000000,5.285266,0,0,0,0,0,0,0
5,59999,60,50000,0,0,49,9999,0.100000,0,0,0.000000,5,2.000000,0.000000,8.057403,0,0,0,0,0,0,0
5,59999,61,50000,55,10000,40,9999,0.100000,0,0,0.000000,5,0.000000,0.000000,1.599873,0,0,0,0,0,0,0
5,59999,62,50000,4,0,40,9999,0.100000,0,0,0.000000,5,0.000000,0.000000,1.585080,0,0,0,0,0,0,0
5,59999,63,50000,4,0,40,9999,0.100000,0,0,0.000000,5,0.000000,0.000000,7.218874,0,0,0,0,0,0,0
5,59999,64,50000,9,0,40,9999,0.100000,0,0,0.000000,5,0.000000,0.000000,0.112234,0,0,0,0,0,0,0
5,59999,65,50000,0,0,40,9999,0.100000,0,0,0.000000,5,0.000000,0.000000,0.750887,0,0,0,0,0,0,0
5,59999,66,50000,55,10000,40,9999,0.100000,0,0,0.000000,5,0.000000,0.000000,0.644367,0,0,0,0,0,0,0
5,59999,67,50000,4,0,40,9999,0.100000,0,0,0.000000,5,0.000000,0.000000,0.508092,0,0,0,0,0,0,0
5,59999,68,50000,0,0,40,9999,0.100000,0,0,0.000000,5,0.000000,0.000000,0.238070,0,0,0,0,0,0,0
5,59999,69,50000,4,0,49,9999,0.100000,0,0,0.000000,5,7.000000,0.000000,26.155552,0,0,0,0,0,0,0
5,59999,70,50000,55,10000,40,9999,0.100000,0,0,0.000000,5,0.000000,0.000000,1.243891,0,0,0,0,0,0,0
5,59999,71,50000,4,0,40,9999,0.100000,0,0,0.000000,5,0.000000,0.000000,4.821367,0,0,0,0,0,0,0
5,59999,72,50000,0,0,40,9999,0.100000,0,0,0.000000,5,0.000000,0.000000,0.239850,0,0,0,0,0,0,0
5,59999,73,50000,4,0,49,9999,0.100000,0,0,0.000000,5,6.000000,0.000000,13.313633,0,0,0,0,0,0,0
5,59999,74,50000,4,0,49,9999,0.100000,0,0,0.000000,5,1.000000,0.000000,5.626064,0,0,0,0,0,0,0
5,59999,75,50000,4,0,40,9999,0.100000,0,0,0.000000,5,0.000000,0.000000,0.098206,0,0,0,0,0,0,0
5,59999,76,50000,9,0,40,9999,0.100000,0,0,0.000000,5,0.000000,0.000000,0.079742,0,0,0,0,0,0,0
5,59999,77,50000,9,0,40,9999,0.100000,0,0,0.000000,5,0.000000,0.000000,6.832513,0,0,0,0,0,0,0
5,59999,78,40000,55,10000,40,19999,0.100000,0,0,0.000000,5,0.000000,0.000000,2.035816,0,0,0,0,0,0,0
5,59999,79,50000,2,10000,40,9999,0.100000,0,0,0.000000,5,0.000000,0.000000,0.303117,0,0,0,0,0,0,0
5,59999,80,50000,9,0,40,9999,0.100000,0,0,0.000000,5,0.000000,0.000000,1.319912,0,0,0,0,0,0,0
5,59999,81,50000,0,0,40,9999,0.100000,0,0,0.000000,5,0.000000,0.000000,0.899438,0,0,0,0,0,0,0
5,59999,82,50000,4,0,40,9999,0.100000,0,0,0.000000,5,0.000000,0.000000,1.588932,0,0,0,0,0,0,0
5,59999,83,50000,55,10000,49,9999,0.100000,0,0,0.000000,5,5.000000,0.000000,10.984115,0,0,0,0,0,0,0
5,59999,84,50000,2,10000,49,9999,0.100000,0,0,0.000000,5,1.000000,0.000000,4.620252,0,0,0,0,0,0,0
5,59999,85,50000,4,0,40,9999,0.100000,0,0,0.000000,5,0.000000,0.000000,1.405351,0,0,0,0,0,0,0
5,59999,86,50000,55,10000,40,9999,0.100000,0,0,0.000000,5,0.000000,0.000000,3.280314,0,0,0,0,0,0,0
5,59999,87,50000,2,10000,40,9999,0.100000,0,0,0.000000,5,0.000000,0.000000,0.790827,0,0,0,0,0,0,0
5,59999,88,50000,55,10000,40,9999,0.100000,0,0,0.000000,5,0.000000,0.000000,0.223380,0,0,0,0,0,0,0
5,59999,89,50000,0,0,40,9999,0.100000,0,0,0.000000,5,0.000000,0.000000,0.527992,0,0,0,0,0,0,0
5,59999,90,50000,55,10000,40,9999,0.100000,0,0,0.000000,5,0.000000,0.000000,0.113672,0,0,0,0,0,0,0
5,59999,91,50000,0,0,40,9999,0.100000,0,0,0.000000,5,0.000000,0.000000,2.238285,0,0,0,0,0,0,0
5,59999,92,50000,55,10000,40,9999,0.100000,0,0,0.000000,5,0.000000,0.000000,0.541689,0,0,0,0,0,0,0
5,59999,93,50000,0,0,49,9999,0.100000,0,0,0.000000,5,2.000000,0.000000,17.790163,0,0,0,0,0,0,0
5,59999,94,50000,4,0,40,9999,0.100000,0,0,0.000000,5,0.000000,0.000000,3.329557,0,0,0,0,0,0,0
5,59999,95,50000,9,0,49,9999,0.100000,0,0,0.000000,5,4.000000,0.000000,16.602617,0,0,0,0,0,0,0
5,59999,96,50000,4,0,40,9999,0.100000,0,0,0.000000,5,0.000000,0.000000,3.348652,0,0,0,0,0,0,0
5,59999,97,50000,55,10000,40,9999,0.100000,0,0,0.000000,5,0.000000,0.000000,3.563027,0,0,0,0,0,0,0
5,59999,98,50000,9,0,40,9999,0.100000,0,0,0.000000,5,0.000000,0.000000,0.142573,0,0,0,0,0,0,0
5,59999,99,50000,9,0,40,9999,0.100000,0,0,0.000000,5,0.000000,0.000000,3.174397,0,0,0,0,0,0,0
6,69999,0,60000,55,10000,40,9999,0.100000,0,0,0.000000,5,0.000000,0.000000,0.396205,0,0,0,0,0,0,0
6,69999,1,60000,55,10000,40,9999,0.100000,0,0,0.000000,5,0.000000,0.000000,0.170135,0,0,0,0,0,0,0
6,69999,2,60000,9,0,40,9999,0.100000,0,0,0.000000,5,0.000000,0.000000,0.088791,0,0,0,0,0,0,0
6,69999,3,50000,0,0,40,19999,0.100000,0,0,0.000000,5,0.000000,0.000000,1.032015,0,0,0,0,0,0,0
6,69999,4,60000,2,10000,40,9999,0.100000,0,0,0.000000,5,0.000000,0.000000,0.208027,0,0,0,0,0,0,0
6,69999,5,60000,0,0,40,9999,0.100000,0,0,0.000000,5,0.000000,0.000000,0.240037,0,0,0,0,0,0,0
6,69999,6,60000,0,0,40,9999,0.100000,0,0,0.000000,5,0.000000,0.000000,3.977837,0,0,0,0,0,0,0
6,69999,7,60000,55,10000,49,9999,0.100000,0,0,0.000000,5,2.000000,0.000000,8.005429,0,0,0,0,0,0,0
6,69999,8,60000,9,0,49,9999,0.100000,0,0,0.000000,5,2.000000,0.000000,20.854757,0,0,0,0,0,0,0
6,69999,9,60000,55,10000,40,9999,0.100000,0,0,0.000000,5,0.000000,0.000000,3.986292,0,0,0,0,0,0,0
6,69999,10,60000,2,10000,40,9999,0.100000,0,0,0.000000,5,0.000000,0.000000,0.498108,0,0,0,0,0,0,0
6,69999,11,60000,9,0,49,9999,0.100000,0,0,0.000000,5,4.000000,0.000000,18.763249,0,0,0,0,0,0,0
6,69999,12,60000,9,0,40,9999,0.100000,0,0,0.000000,5,0.000000,0.000000,0.299151,0,0,0,0,0,0,0
6,69999,13,60000,0,0,40,9999,0.100000,0,0,0.000000,5,0.000000,0.000000,1.603821,0,0,0,0,0,0,0
6,69999,14,60000,9,0,40,9999,0.100000,0,0,0.000000,5,0.000000,0.000000,0.484329,0,0,0,0,0,0,0
6,69999,15,60000,9,0,40,9999,0.100000,0,0,0.000000,5,0.000000,0.000000,0.142970,0,0,0,0,0,0,0
6,69999,16,60000,9,0,49,9999,0.100000,0,0,0.000000,5,5.000000,0.000000,11.512087,0,0,0,0,0,0,0
6,69999,17,60000,0,0,40,9999,0.100000,0,0,0.000000,5,0.000000,0.000000,0.251050,0,0,0,0,0,0,0
6,69999,18,60000,9,0,40,9999,0.100000,0,0,0.000000,5,0.000000,0.000000,1.086359,0,0,0,0,0,0,0
6,69999,19,60000,4,0,40,9999,0.100000,0,0,0.000000,5,0.000000,0.000000,3.870768,0,0,0,0,0,0,0
6,69999,20,60000,2,10000,40,9999,0.100000,0,0,0.000000,5,0.000000,0.000000,0.788538,0,0,0,0,0,0,0
6,69999,21,60000,2,10000,49,9999,0.100000,0,0,0.000000,5,2.000000,0.000000,7.175076,0,0,0,0,0,0,0
6,69999,22,60000,9,0,49,9999,0.100000,0,0,0.000000,5,4.000000,0.000000,7.038826,0,0,0,0,0,0,0
6,69999,23,60000,55,10000,40,9999,0.100000,0,0,0.000000,5,0.000000,0.000000,0.127323,0,0,0,0,0,0,0
6,69999,24,60000,55,10000,40,9999,0.100000,0,0,0.000000,5,0.000000,0.000000,1.708991,0,0,0,0,0,0,0
6,69999,25,60000,55,10000,40,9999,0.100000,0,0,0.000000,5,0.000000,0.000000,2.039273,0,0,0,0,0,0,0
6,69999,26,60000,4,0,40,9999,0.100000,0,0,0.000000,5,0.000000,0.000000,0.828540,0,0,0,0,0,0,0
6,69999,27,60000,2,10000,40,9999,0.100000,0,0,0.000000,5,0.000000,0.000000,0.389360,0,0,0,0,0,0,0
6,69999,28,60000,9,0,40,9999,0.100000,0,0,0.000000,5,0.000000,0.000000,0.196998,0,0,0,0,0,0,0
6,69999,29,60000,4,0,40,9999,0.100000,0,0,0.000000,5,0.000000,0.000000,0.456495,0,0,0,0,0,0,0
6,69999,30,60000,9,0,40,9999,0.100000,0,0,0.000000,5,0.000000,0.000000,0.109687,0,0,0,0,0,0,0
6,69999,31,60000,0,0,40,9999,0.100000,0,0,0.000000,5,0.000000,0.000000,23.982416,0,0,0,0,0,0,0
6,69999,32,60000,2,10000,40,9999,0.100000,0,0,0.000000,5,0.000000,0.000000,0.239506,0,0,0,0,0,0,0
6,69999,33,60000,55,10000,40,9999,0.100000,0,0,0.000000,5,0.000000,0.000000,2.082664,0,0,0,0,0,0,0
6,69999,34,60000,0,0,40,9999,0.100000,0,0,0.000000,5,0.000000,0.000000,0.150213,0,0,0,0,0,0,0
6,69999,35,60000,55,10000,40,9999,0.100000,0,0,0.000000,5,0.000000,0.000000,1.250272,0,0,0,0,0,0,0
6,69999,36,60000,2,10000,49,9999,0.100000,0,0,0.000000,5,7.000000,0.000000,14.169985,0,0,0,0,0,0,0
6,69999,37,60000,4,0,40,9999,0.100000,0,0,0.000000,5,0.000000,0.000000,0.763146,0,0,0,0,0,0,0
6,69999,38,60000,4,0,40,9999,0.100000,0,0,0.000000,5,0.000000,0.000000,0.076648,0,0,0,0,0,0,0
6,69999,39,60000,9,0,40,9999,0.100000,0,0,0.000000,5,0.000000,0.000000,0.528429,0,0,0,0,0,0,0
6,69999,40,60000,4,0,40,9999,0.100000,0,0,0.000000,5,0.000000,0.000000,0.551862,0,0,0,0,0,0,0
6,69999,41,60000,2,10000,40,9999,0.100000,0,0,0.000000,5,0.000000,0.000000,0.110247,0,0,0,0,0,0,0
6,69999,42,60000,2,10000,40,9999,0.100000,0,0,0.000000,5,0.000000,0.000000,1.354585,0,0,0,0,0,0,0
6,69999,43,50000,0,0,49,19999,0.100000,0,0,0.000000,5,3.000000,0.000000,4.975789,0,0,0,0,0,0,0
6,69999,44,60000,4,0,40,9999,0.100000,0,0,0.000000,5,0.000000,0.000000,0.132532,0,0,0,0,0,0,0
6,69999,45,50000,4,0,40,19999,0.100000,0,0,0.000000,5,0.000000,0.000000,0.099072,0,0,0,0,0,0,0
6,69999,46,60000,4,0,40,9999,0.100000,0,0,0.000000,5,0.000000,0.000000,0.445462,0,0,0,0,0,0,0
6,69999,47,60000,9,0,40,9999,0.100000,0,0,0.000000,5,0.000000,0.000000,0.233159,0,0,0,0,0,0,0
6,69999,48,60000,55,10000,40,9999,0.100000,0,0,0.000000,5,0.000000,0.000000,4.125501,0,0,0,0,0,0,0
6,69999,49,60000,55,10000,40,9999,0.100000,0,0,0.000000,5,0.000000,0.000000,0.814667,0,0,0,0,0,0,0
6,69999,50,60000,4,0,40,9999,0.100000,0,0,0.000000,5,0.000000,0.000000,0.294149,0,0,0,0,0,0,0
6,69999,51,60000,55,10000,49,9999,0.100000,0,0,0.000000,5,4.000000,0.000000,9.318237,0,0,0,0,0,0,0
6,69999,52,60000,55,10000,49,9999,0.100000,0,0,0.000000,5,2.000000,0.000000,8.350323,0,0,0,0,0,0,0
6,69999,53,60000,55,10000,40,9999,0.100000,0,0,0.000000,5,0.000000,0.000000,4.406612,0,0,0,0,0,0,0
6,69999,54,60000,2,10000,40,9999,0.100000,0,0,0.000000,5,0.000000,0.000000,0.567100,0,0,0,0,0,0,0
6,69999,55,60000,0,0,40,9999,0.100000,0,0,0.000000,5,0.000000,0.000000,0.129300,0,0,0,0,0,0,0
6,69999,56,60000,4,0,40,9999,0.100000,0,0,0.000000,5,0.000000,0.000000,3.274893,0,0,0,0,0,0,0
6,69999,57,60000,4,0,40,9999,0.100000,0,0,0.000000,5,0.000000,0.000000,0.883308,0,0,0,0,0,0,0
6,69999,58,60000,2,10000,40,9999,0.100000,0,0,0.000000,5,0.000000,0.000000,5.244149,0,0,0,0,0,0,0
6,69999,59,60000,0,0,40,9999,0.100000,0,0,0.000000,5,0.000000,0.000000,0.418735,0,0,0,0,0,0,0
6,69999,60,60000,9,0,49,9999,0.100000,0,0,0.000000,5,2.000000,0.000000,20.637706,0,0,0,0,0,0,0
6,69999,61,60000,4,0,40,9999,0.100000,0,0,0.000000,5,0.000000,0.000000,2.155329,0,0,0,0,0,0,0
6,69999,62,60000,0,0,40,9999,0.100000,0,0,0.000000,5,0.000000,0.000000,1.781571,0,0,0,0,0,0,0
6,69999,63,60000,9,0,40,9999,0.100000,0,0,0.000000,5,0.000000,0.000000,2.272078,0,0,0,0,0,0,0
6,69999,64,60000,9,0,40,9999,0.100000,0,0,0.000000,5,0.000000,0.000000,0.098699,0,0,0,0,0,0,0
6,69999,65,60000,2,10000,40,9999,0.100000,0,0,0.000000,5,0.000000,0.000000,0.415380,0,0,0,0,0,0,0
6,69999,66,60000,9,0,40,9999,0.100000,0,0,0.000000,5,0.000000,0.000000,2.789567,0,0,0,0,0,0,0
6,69999,67,60000,4,0,40,9999,0.100000,0,0,0.000000,5,0.000000,0.000000,0.417321,0,0,0,0,0,0,0
6,69999,68,60000,55,10000,40,9999,0.100000,0,0,0.000000,5,0.000000,0.000000,0.334454,0,0,0,0,0,0,0
6,69999,69,60000,0,0,40,9999,0.100000,0,0,0.000000,5,0.000000,0.000000,0.626229,0,0,0,0,0,0,0
6,69999,70,60000,4,0,40,9999,0.100000,0,0,0.000000,5,0.000000,0.000000,0.078593,0,0,0,0,0,0,0
6,69999,71,60000,9,0,40,9999,0.100000,0,0,0.000000,5,0.000000,0.000000,1.772904,0,0,0,0,0,0,0
6,69999,72,60000,2,10000,40,9999,0.100000,0,0,0.000000,5,0.000000,0.000000,0.254759,0,0,0,0,0,0,0
6,69999,73,60000,0,0,40,9999,0.100000,0,0,0.000000,5,0.000000,0.000000,0.099335,0,0,0,0,0,0,0
6,69999,74,60000,9,0,40,9999,0.100000,0,0,0.000000,5,0.000000,0.000000,1.312569,0,0,0,0,0,0,0
6,69999,75,60000,2,10000,40,9999,0.100000,0,0,0.000000,5,0.000000,0.000000,0.114288,0,0,0,0,0,0,0
6,69999,76,60000,9,0,40,9999,0.100000,0,0,0.000000,5,0.000000,0.000000,0.079150,0,0,0,0,0,0,0
6,69999,77,60000,0,0,40,9999,0.100000,0,0,0.000000,5,0.000000,0.000000,1.559597,0,0,0,0,0,0,0
6,69999,78,60000,2,10000,40,9999,0.100000,0,0,0.000000,5,0.000000,0.000000,2.487226,0,0,0,0,0,0,0
6,69999,79,60000,55,10000,40,9999,0.100000,0,0,0.000000,5,0.000000,0.000000,0.549285,0,0,0,0,0,0,0
6,69999,80,60000,2,10000,40,9999,0.100000,0,0,0.000000,5,0.000000,0.000000,1.990260,0,0,0,0,0,0,0
6,69999,81,60000,0,0,49,9999,0.100000,0,0,0.000000,5,5.000000,0.000000,12.602309,0,0,0,0,0,0,0
6,69999,82,60000,0,0,40,9999,0.100000,0,0,0.000000,5,0.000000,0.000000,2.818325,0,0,0,0,0,0,0
6,69999,83,60000,0,0,40,9999,0.100000,0,0,0.000000,5,0.000000,0.000000,0.477857,0,0,0,0,0,0,0
6,69999,84,60000,4,0,40,9999,0.100000,0,0,0.000000,5,0.000000,0.000000,0.824237,0,0,0,0,0,0,0
6,69999,85,60000,55,10000,40,9999,0.100000,0,0,0.000000,5,0.000000,0.000000,0.266526,0,0,0,0,0,0,0
6,69999,86,60000,4,0,49,9999,0.100000,0,0,0.000000,5,3.000000,0.000000,19.284639,0,0,0,0,0,0,0
6,69999,87,60000,2,10000,40,9999,0.100000,0,0,0.000000,5,0.000000,0.000000,0.813877,0,0,0,0,0,0,0
6,69999,88,60000,4,0,40,9999,0.100000,0,0,0.000000,5,0.000000,0.000000,0.212338,0,0,0,0,0,0,0
6,69999,89,60000,2,10000,40,9999,0.100000,0,0,0.000000,5,0.000000,0.000000,0.784391,0,0,0,0,0,0,0
6,69999,90,60000,2,10000,40,9999,0.100000,0,0,0.000000,5,0.000000,0.000000,0.114203,0,0,0,0,0,0,0
6,69999,91,60000,55,10000,40,9999,0.100000,0,0,0.000000,5,0.000000,0.000000,0.779616,0,0,0,0,0,0,0
6,69999,92,60000,2,10000,40,9999,0.100000,0,0,0.000000,5,0.000000,0.000000,0.455065,0,0,0,0,0,0,0
6,69999,93,60000,0,0,40,9999,0.100000,0,0,0.000000,5,0.000000,0.000000,1.573346,0,0,0,0,0,0,0
6,69999,94,60000,0,0,40,9999,0.100000,0,0,0.000000,5,0.000000,0.000000,3.254853,0,0,0,0,0,0,0
6,69999,95,60000,9,0,99,9999,0.100000,0,0,34.210526,5,5.000000,0.000000,20.079616,0,0,1,0,0,0,0
6,69999,96,60000,4,0,40,9999,0.100000,0,0,0.000000,5,0.000000,0.000000,3.649439,0,0,0,0,0,0,0
6,69999,97,60000,2,10000,40,9999,0.100000,0,0,0.000000,5,0.000000,0.000000,3.367314,0,0,0,0,0,0,0
6,69999,98,60000,9,0,40,9999,0.100000,0,0,0.000000,5,0.000000,0.000000,0.226892,0,0,0,0,0,0,0
6,69999,99,60000,2,10000,40,9999,0.100000,0,0,0.000000,5,0.000000,0.000000,3.262859,0,0,0,0,0,0,0
7,79999,0,70000,4,0,40,9999,0.100000,0,0,0.000000,5,0.000000,0.000000,0.307756,0,0,0,0,0,0,0
7,79999,1,70000,4,0,40,9999,0.100000,0,0,0.000000,5,0.000000,0.000000,0.130588,0,0,0,0,0,0,0
7,79999,2,70000,2,10000,40,9999,0.100000,0,0,0.000000,5,0.000000,0.000000,0.088152,0,0,0,0,0,0,0
7,79999,3,70000,4,0,40,9999,0.100000,0,0,0.000000,5,0.000000,0.000000,1.103544,0,0,0,0,0,0,0
7,79999,4,70000,9,0,40,9999,0.100000,0,0,0.000000,5,0.000000,0.000000,0.211161,0,0,0,0,0,0,0
7,79999,5,70000,0,0,40,9999,0.100000,0,0,0.000000,5,0.000000,0.000000,0.277214,0,0,0,0,0,0,0
7,79999,6,70000,2,10000,40,9999,0.100000,0,0,0.000000,5,0.000000,0.000000,1.867463,0,0,0,0,0,0,0
7,79999,7,70000,0,0,40,9999,0.100000,0,0,0.000000,5,0.000000,0.000000,1.186118,0,0,0,0,0,0,0
7,79999,8,70000,2,10000,40,9999,0.100000,0,0,0.000000,5,0.000000,0.000000,21.223901,0,0,0,0,0,0,0
7,79999,9,70000,9,0,49,9999,0.100000,0,0,0.000000,5,3.000000,0.000000,12.140522,0,0,0,0,0,0,0
7,79999,10,70000,2,10000,49,9999,0.100000,0,0,0.000000,5,2.000000,0.000000,5.888731,0,0,0,0,0,0,0
7,79999,11,70000,4,0,49,9999,0.100000,0,0,0.000000,5,1.000000,0.000000,4.515508,0,0,0,0,0,0,0
7,79999,12,70000,55,10000,40,9999,0.100000,0,0,0.000000,5,0.000000,0.000000,0.304284,0,0,0,0,0,0,0
7,79999,13,70000,9,0,40,9999,0.100000,0,0,0.000000,5,0.000000,0.000000,0.962217,0,0,0,0,0,0,0
7,79999,14,70000,0,0,40,9999,0.100000,0,0,0.000000,5,0.000000,0.000000,0.848586,0,0,0,0,0,0,0
7,79999,15,70000,2,10000,40,9999,0.100000,0,0,0.000000,5,0.000000,0.000000,0.193001,0,0,0,0,0,0,0
7,79999,16,70000,55,10000,49,9999,0.100000,0,0,0.000000,5,1.000000,0.000000,4.601113,0,0,0,0,0,0,0
7,79999,17,70000,55,10000,40,9999,0.100000,0,0,0.000000,5,0.000000,0.000000,0.247839,0,0,0,0,0,0,0
7,79999,18,70000,9,0,49,9999,0.100000,0,0,0.000000,5,1.000000,0.000000,1.600094,0,0,0,0,0,0,0
7,79999,19,70000,0,0,40,9999,0.100000,0,0,0.000000,5,0.000000,0.000000,3.645083,0,0,0,0,0,0,0
7,79999,20,70000,2,10000,40,9999,0.100000,0,0,0.000000,5,0.000000,0.000000,2.450689,0,0,0,0,0,0,0
7,79999,21,70000,4,0,40,9999,0.100000,0,0,0.000000,5,0.000000,0.000000,1.300031,0,0,0,0,0,0,0
7,79999,22,70000,55,10000,40,9999,0.100000,0,0,0.000000,5,0.000000,0.000000,1.760616,0,0,0,0,0,0,0
7,79999,23,70000,4,0,40,9999,0.100000,0,0,0.000000,5,0.000000,0.000000,0.154455,0,0,0,0,0,0,0
7,79999,24,70000,55,10000,40,9999,0.100000,0,0,0.000000,5,0.000000,0.000000,0.676291,0,0,0,0,0,0,0
7,79999,25,70000,55,10000,40,9999,0.100000,0,0,0.000000,5,0.000000,0.000000,0.906377,0,0,0,0,0,0,0
7,79999,26,70000,2,10000,40,9999,0.100000,0,0,0.000000,5,0.000000,0.000000,0.625354,0,0,0,0,0,0,0
7,79999,27,70000,0,0,40,9999,0.100000,0,0,0.000000,5,0.000000,0.000000,0.413675,0,0,0,0,0,0,0
7,79999,28,70000,0,0,40,9999,0.100000,0,0,0.000000,5,0.000000,0.000000,1.402882,0,0,0,0,0,0,0
7,79999,29,70000,9,0,40,9999,0.100000,0,0,0.000000,5,0.000000,0.000000,0.157656,0,0,0,0,0,0,0
7,79999,30,70000,55,10000,40,9999,0.100000,0,0,0.000000,5,0.000000,0.000000,0.097534,0,0,0,0,0,0,0
7,79999,31,70000,9,0,40,9999,0.100000,0,0,0.000000,5,0.000000,0.000000,23.883248,0,0,0,0,0,0,0
7,79999,32,70000,9,0,40,9999,0.100000,0,0,0.000000,5,0.000000,0.000000,0.215486,0,0,0,0,0,0,0
7,79999,33,70000,0,0,40,9999,0.100000,0,0,0.000000,5,0.000000,0.000000,1.375122,0,0,0,0,0,0,0
7,79999,34,70000,4,0,40,9999,0.100000,0,0,0.000000,5,0.000000,0.000000,0.162606,0,0,0,0,0,0,0
7,79999,35,70000,9,0,40,9999,0.100000,0,0,0.000000,5,0.000000,0.000000,1.957504,0,0,0,0,0,0,0
7,79999,36,70000,9,0,40,9999,0.100000,0,0,0.000000,5,0.000000,0.000000,0.086459,0,0,0,0,0,0,0
7,79999,37,70000,0,0,40,9999,0.100000,0,0,0.000000,5,0.000000,0.000000,0.760213,0,0,0,0,0,0,0
7,79999,38,70000,2,10000,40,9999,0.100000,0,0,0.000000,5,0.000000,0.000000,1.307555,0,0,0,0,0,0,0
7,79999,39,70000,0,0,40,9999,0.100000,0,0,0.000000,5,0.000000,0.000000,0.977115,0,0,0,0,0,0,0
7,79999,40,70000,4,0,40,9999,0.100000,0,0,0.000000,5,0.000000,0.000000,0.553718,0,0,0,0,0,0,0
7,79999,41,70000,2,10000,40,9999,0.100000,0,0,0.000000,5,0.000000,0.000000,1.537186,0,0,0,0,0,0,0
7,79999,42,70000,4,0,40,9999,0.100000,0,0,0.000000,5,0.000000,0.000000,0.833865,0,0,0,0,0,0,0
7,79999,43,70000,2,10000,49,9999,0.100000,0,0,0.000000,5,8.000000,0.000000,11.438995,0,0,0,0,0,0,0
7,79999,44,70000,55,10000,40,9999,0.100000,0,0,0.000000,5,0.000000,0.000000,0.122387,0,0,0,0,0,0,0
7,79999,45,50000,4,0,40,29999,0.100000,0,0,0.000000,5,0.000000,0.000000,0.106945,0,0,0,0,0,0,0
7,79999,46,70000,55,10000,40,9999,0.100000,0,0,0.000000,5,0.000000,0.000000,0.655913,0,0,0,0,0,0,0
7,79999,47,70000,4,0,40,9999,0.100000,0,0,0.000000,5,0.000000,0.000000,0.234267,0,0,0,0,0,0,0
7,79999,48,70000,0,0,40,9999,0.100000,0,0,0.000000,5,0.000000,0.000000,1.032782,0,0,0,0,0,0,0
7,79999,49,70000,2,10000,40,9999,0.100000,0,0,0.000000,5,0.000000,0.000000,0.874516,0,0,0,0,0,0,0
7,79999,50,70000,0,0,40,9999,0.100000,0,0,0.000000,5,0.000000,0.000000,0.331215,0,0,0,0,0,0,0
7,79999,51,70000,0,0,40,9999,0.100000,0,0,0.000000,5,0.000000,0.000000,0.108766,0,0,0,0,0,0,0
7,79999,52,70000,0,0,40,9999,0.100000,0,0,0.000000,5,0.000000,0.000000,0.270006,0,0,0,0,0,0,0
7,79999,53,70000,55,10000,40,9999,0.100000,0,0,0.000000,5,0.000000,0.000000,5.170000,0,0,0,0,0,0,0
7,79999,54,70000,4,0,40,9999,0.100000,0,0,0.000000,5,0.000000,0.000000,0.729103,0,0,0,0,0,0,0
7,79999,55,70000,4,0,40,9999,0.100000,0,0,0.000000,5,0.000000,0.000000,0.137612,0,0,0,0,0,0,0
7,79999,56,70000,2,10000,40,9999,0.100000,0,0,0.000000,5,0.000000,0.000000,2.988216,0,0,0,0,0,0,0
7,79999,57,70000,55,10000,40,9999,0.100000,0,0,0.000000,5,0.000000,0.000000,1.039917,0,0,0,0,0,0,0
7,79999,58,70000,4,0,40,9999,0.100000,0,0,0.000000,5,0.000000,0.000000,1.914435,0,0,0,0,0,0,0
7,79999,59,70000,55,10000,40,9999,0.100000,0,0,0.000000,5,0.000000,0.000000,0.642758,0,0,0,0,0,0,0
7,79999,60,70000,9,0,49,9999,0.100000,0,0,0.000000,5,1.000000,0.000000,19.880540,0,0,0,0,0,0,0
7,79999,61,70000,9,0,40,9999,0.100000,0,0,0.000000,5,0.000000,0.000000,1.032909,0,0,0,0,0,0,0
7,79999,62,70000,55,10000,40,9999,0.100000,0,0,0.000000,5,0.000000,0.000000,0.175110,0,0,0,0,0,0,0
7,79999,63,70000,9,0,40,9999,0.100000,0,0,0.000000,5,0.000000,0.000000,2.458377,0,0,0,0,0,0,0
7,79999,64,70000,2,10000,40,9999,0.100000,0,0,0.000000,5,0.000000,0.000000,0.106114,0,0,0,0,0,0,0
7,79999,65,70000,2,10000,40,9999,0.100000,0,0,0.000000,5,0.000000,0.000000,0.127225,0,0,0,0,0,0,0
7,79999,66,70000,0,0,40,9999,0.100000,0,0,0.000000,5,0.000000,0.000000,0.767979,0,0,0,0,0,0,0
7,79999,67,70000,55,10000,40,9999,0.100000,0,0,0.000000,5,0.000000,0.000000,1.014139,0,0,0,0,0,0,0
7,79999,68,70000,2,10000,40,9999,0.100000,0,0,0.000000,5,0.000000,0.000000,0.566924,0,0,0,0,0,0,0
7,79999,69,70000,2,10000,40,9999,0.100000,0,0,0.000000,5,0.000000,0.000000,0.395548,0,0,0,0,0,0,0
7,79999,70,70000,0,0,40,9999,0.100000,0,0,0.000000,5,0.000000,0.000000,0.078119,0,0,0,0,0,0,0
7,79999,71,70000,2,10000,49,9999,0.100000,0,0,0.000000,5,3.000000,0.000000,8.969276,0,0,0,0,0,0,0
7,79999,72,70000,0,0,40,9999,0.100000,0,0,0.000000,5,0.000000,0.000000,0.256367,0,0,0,0,0,0,0
7,79999,73,70000,2,10000,40,9999,0.100000,0,0,0.000000,5,0.000000,0.000000,0.066246,0,0,0,0,0,0,0
7,79999,74,70000,0,0,40,9999,0.100000,0,0,0.000000,5,0.000000,0.000000,0.417686,0,0,0,0,0,0,0
7,79999,75,70000,2,10000,40,9999,0.100000,0,0,0.000000,5,0.000000,0.000000,0.089389,0,0,0,0,0,0,0
7,79999,76,70000,0,0,40,9999,0.100000,0,0,0.000000,5,0.000000,0.000000,0.066673,0,0,0,0,0,0,0
7,79999,77,70000,0,0,40,9999,0.100000,0,0,0.000000,5,0.000000,0.000000,0.194987,0,0,0,0,0,0,0
7,79999,78,70000,9,0,40,9999,0.100000,0,0,0.000000,5,0.000000,0.000000,1.450628,0,0,0,0,0,0,0
7,79999,79,70000,0,0,40,9999,0.100000,0,0,0.000000,5,0.000000,0.000000,0.841136,0,0,0,0,0,0,0
7,79999,80,70000,2,10000,40,9999,0.100000,0,0,0.000000,5,0.000000,0.000000,1.139575,0,0,0,0,0,0,0
7,79999,81,70000,0,0,40,9999,0.100000,0,0,0.000000,5,0.000000,0.000000,1.018890,0,0,0,0,0,0,0
7,79999,82,70000,2,10000,40,9999,0.100000,0,0,0.000000,5,0.000000,0.000000,3.313255,0,0,0,0,0,0,0
7,79999,83,70000,2,10000,40,9999,0.100000,0,0,0.000000,5,0.000000,0.000000,0.578520,0,0,0,0,0,0,0
7,79999,84,70000,9,0,40,9999,0.100000,0,0,0.000000,5,0.000000,0.000000,0.919116,0,0,0,0,0,0,0
7,79999,85,70000,0,0,40,9999,0.100000,0,0,0.000000,5,0.000000,0.000000,0.669205,0,0,0,0,0,0,0
7,79999,86,60000,4,0,49,19999,0.100000,0,0,0.000000,5,2.000000,0.000000,13.356607,0,0,0,0,0,0,0
7,79999,87,70000,55,10000,40,9999,0.100000,0,0,0.000000,5,0.000000,0.000000,1.581988,0,0,0,0,0,0,0
7,79999,88,70000,55,10000,49,9999,0.100000,0,0,0.000000,5,12.000000,0.000000,24.435926,0,0,0,0,0,0,0
7,79999,89,70000,55,10000,40,9999,0.100000,0,0,0.000000,5,0.000000,0.000000,0.839319,0,0,0,0,0,0,0
7,79999,90,70000,4,0,40,9999,0.100000,0,0,0.000000,5,0.000000,0.000000,0.115200,0,0,0,0,0,0,0
7,79999,91,70000,2,10000,40,9999,0.100000,0,0,0.000000,5,0.000000,0.000000,2.452278,0,0,0,0,0,0,0
7,79999,92,70000,55,10000,40,9999,0.100000,0,0,0.000000,5,0.000000,0.000000,0.421180,0,0,0,0,0,0,0
7,79999,93,70000,4,0,40,9999,0.100000,0,0,0.000000,5,0.000000,0.000000,0.841515,0,0,0,0,0,0,0
7,79999,94,70000,4,0,49,9999,0.100000,0,0,0.000000,5,2.000000,0.000000,3.203009,0,0,0,0,0,0,0
7,79999,95,70000,4,0,49,9999,0.100000,0,0,0.000000,5,3.000000,0.000000,5.114240,0,0,0,0,0,0,0
7,79999,96,70000,4,0,40,9999,0.100000,0,0,0.000000,5,0.000000,0.000000,1.086376,0,0,0,0,0,0,0
7,79999,97,70000,2,10000,40,9999,0.100000,0,0,0.000000,5,0.000000,0.000000,3.523800,0,0,0,0,0,0,0
7,79999,98,70000,9,0,40,9999,0.100000,0,0,0.000000,5,0.000000,0.000000,0.139608,0,0,0,0,0,0,0
7,79999,99,70000,2,10000,40,9999,0.100000,0,0,0.000000,5,0.000000,0.000000,3.015257,0,0,0,0,0,0,0
8,89999,0,80000,2,10000,40,9999,0.100000,0,0,0.000000,5,0.000000,0.000000,0.339049,0,0,0,0,0,0,0
8,89999,1,80000,4,0,40,9999,0.100000,0,0,0.000000,5,0.000000,0.000000,0.115893,0,0,0,0,0,0,0
8,89999,2,80000,2,10000,40,9999,0.100000,0,0,0.000000,5,0.000000,0.000000,0.086813,0,0,0,0,0,0,0
8,89999,3,80000,4,0,40,9999,0.100000,0,0,0.000000,5,0.000000,0.000000,0.791751,0,0,0,0,0,0,0
8,89999,4,80000,55,10000,40,9999,0.100000,0,0,0.000000,5,0.000000,0.000000,0.218642,0,0,0,0,0,0,0
8,89999,5,80000,0,0,40,9999,0.100000,0,0,0.000000,5,0.000000,0.000000,0.325261,0,0,0,0,0,0,0
8,89999,6,80000,55,10000,40,9999,0.100000,0,0,0.000000,5,0.000000,0.000000,0.935080,0,0,0,0,0,0,0
8,89999,7,80000,0,0,40,9999,0.100000,0,0,0.000000,5,0.000000,0.000000,0.551209,0,0,0,0,0,0,0
8,89999,8,80000,55,10000,40,9999,0.100000,0,0,0.000000,5,0.000000,0.000000,21.957164,0,0,0,0,0,0,0
8,89999,9,80000,9,0,9,9999,0.100000,0,0,0.000000,5,5.000000,0.000000,9.895719,0,0,0,1,0,0,0
8,89999,10,80000,55,10000,9,9999,0.100000,0,0,0.000000,5,4.000000,0.000000,14.323208,0,0,0,1,0,0,0
8,89999,11,80000,2,10000,40,9999,0.100000,0,0,0.000000,5,0.000000,0.000000,1.957097,0,0,0,0,0,0,0
8,89999,12,80000,2,10000,40,9999,0.100000,0,0,0.000000,5,0.000000,0.000000,0.276956,0,0,0,0,0,0,0
8,89999,13,80000,9,0,40,9999,0.100000,0,0,0.000000,5,0.000000,0.000000,0.993591,0,0,0,0,0,0,0
8,89999,14,80000,4,0,40,9999,0.100000,0,0,0.000000,5,0.000000,0.000000,0.825123,0,0,0,0,0,0,0
8,89999,15,80000,0,0,40,9999,0.100000,0,0,0.000000,5,0.000000,0.000000,0.157284,0,0,0,0,0,0,0
8,89999,16,80000,4,0,49,9999,0.100000,0,0,0.000000,5,4.000000,0.000000,9.405181,0,0,0,0,0,0,0
8,89999,17,80000,9,0,40,9999,0.100000,0,0,0.000000,5,0.000000,0.000000,0.249030,0,0,0,0,0,0,0
8,89999,18,80000,2,10000,40,9999,0.100000,0,0,0.000000,5,0.000000,0.000000,0.211364,0,0,0,0,0,0,0
8,89999,19,80000,9,0,40,9999,0.100000,0,0,0.000000,5,0.000000,0.000000,4.057406,0,0,0,0,0,0,0
8,89999,20,80000,55,10000,40,9999,0.100000,0,0,0.000000,5,0.000000,0.000000,0.427755,0,0,0,0,0,0,0
8,89999,21,80000,0,0,40,9999,0.100000,0,0,0.000000,5,0.000000,0.000000,0.431579,0,0,0,0,0,0,0
8,89999,22,80000,55,10000,40,9999,0.100000,0,0,0.000000,5,0.000000,0.000000,0.835984,0,0,0,0,0,0,0
8,89999,23,80000,55,10000,40,9999,0.100000,0,0,0.000000,5,0.000000,0.000000,0.126862,0,0,0,0,0,0,0
8,89999,24,80000,9,0,40,9999,0.100000,0,0,0.000000,5,0.000000,0.000000,0.634850,0,0,0,0,0,0,0
8,89999,25,80000,0,0,40,9999,0.100000,0,0,0.000000,5,0.000000,0.000000,0.764565,0,0,0,0,0,0,0
8,89999,26,80000,9,0,40,9999,0.100000,0,0,0.000000,5,0.000000,0.000000,0.259568,0,0,0,0,0,0,0
8,89999,27,80000,2,10000,40,9999,0.100000,0,0,0.000000,5,0.000000,0.000000,0.387513,0,0,0,0,0,0,0
8,89999,28,80000,55,10000,40,9999,0.100000,0,0,0.000000,5,0.000000,0.000000,0.327429,0,0,0,0,0,0,0
8,89999,29,80000,0,0,40,9999,0.100000,0,0,0.000000,5,0.000000,0.000000,0.140020,0,0,0,0,0,0,0
8,89999,30,80000,9,0,40,9999,0.100000,0,0,0.000000,5,0.000000,0.000000,0.180302,0,0,0,0,0,0,0
8,89999,31,80000,0,0,40,9999,0.100000,0,0,0.000000,5,0.000000,0.000000,20.299152,0,0,0,0,0,0,0
8,89999,32,80000,4,0,40,9999,0.100000,0,0,0.000000,5,0.000000,0.000000,0.313393,0,0,0,0,0,0,0
8,89999,33,80000,55,10000,40,9999,0.100000,0,0,0.000000,5,0.000000,0.000000,1.365220,0,0,0,0,0,0,0
8,89999,34,80000,2,10000,40,9999,0.100000,0,0,0.000000,5,0.000000,0.000000,0.169094,0,0,0,0,0,0,0
8,89999,35,80000,2,10000,49,9999,0.100000,0,0,0.000000,5,4.000000,0.000000,10.281701,0,0,0,0,0,0,0
8,89999,36,80000,9,0,40,9999,0.100000,0,0,0.000000,5,0.000000,0.000000,0.087053,0,0,0,0,0,0,0
8,89999,37,80000,9,0,40,9999,0.100000,0,0,0.000000,5,0.000000,0.000000,0.848792,0,0,0,0,0,0,0
8,89999,38,80000,9,0,40,9999,0.100000,0,0,0.000000,5,0.000000,0.000000,0.069911,0,0,0,0,0,0,0
8,89999,39,80000,9,0,40,9999,0.100000,0,0,0.000000,5,0.000000,0.000000,0.319065,0,0,0,0,0,0,0
8,89999,40,80000,4,0,40,9999,0.100000,0,0,0.000000,5,0.000000,0.000000,0.558558,0,0,0,0,0,0,0
8,89999,41,80000,0,0,40,9999,0.100000,0,0,0.000000,5,0.000000,0.000000,0.909946,0,0,0,0,0,0,0
8,89999,42,80000,0,0,40,9999,0.100000,0,0,0.000000,5,0.000000,0.000000,0.079475,0,0,0,0,0,0,0
8,89999,43,80000,4,0,40,9999,0.100000,0,0,0.000000,5,0.000000,0.000000,1.032478,0,0,0,0,0,0,0
8,89999,44,80000,2,10000,40,9999,0.100000,0,0,0.000000,5,0.000000,0.000000,0.123814,0,0,0,0,0,0,0
8,89999,45,80000,2,10000,40,9999,0.100000,0,0,0.000000,5,0.000000,0.000000,0.120908,0,0,0,0,0,0,0
8,89999,46,80000,2,10000,40,9999,0.100000,0,0,0.000000,5,0.000000,0.000000,0.638148,0,0,0,0,0,0,0
8,89999,47,80000,2,10000,40,9999,0.100000,0,0,0.000000,5,0.000000,0.000000,0.236320,0,0,0,0,0,0,0
8,89999,48,80000,2,10000,40,9999,0.100000,0,0,0.000000,5,0.000000,0.000000,0.255432,0,0,0,0,0,0,0
8,89999,49,80000,2,10000,40,9999,0.100000,0,0,0.000000,5,0.000000,0.000000,0.110171,0,0,0,0,0,0,0
8,89999,50,80000,0,0,40,9999,0.100000,0,0,0.000000,5,0.000000,0.000000,0.312378,0,0,0,0,0,0,0
8,89999,51,80000,4,0,40,9999,0.100000,0,0,0.000000,5,0.000000,0.000000,0.209481,0,0,0,0,0,0,0
8,89999,52,80000,55,10000,40,9999,0.100000,0,0,0.000000,5,0.000000,0.000000,0.176567,0,0,0,0,0,0,0
8,89999,53,80000,9,0,40,9999,0.100000,0,0,0.000000,5,0.000000,0.000000,3.564524,0,0,0,0,0,0,0
8,89999,54,80000,55,10000,40,9999,0.100000,0,0,0.000000,5,0.000000,0.000000,0.520769,0,0,0,0,0,0,0
8,89999,55,80000,0,0,40,9999,0.100000,0,0,0.000000,5,0.000000,0.000000,0.155605,0,0,0,0,0,0,0
8,89999,56,80000,0,0,40,9999,0.100000,0,0,0.000000,5,0.000000,0.000000,2.965312,0,0,0,0,0,0,0
8,89999,57,80000,0,0,40,9999,0.100000,0,0,0.000000,5,0.000000,0.000000,0.172764,0,0,0,0,0,0,0
8,89999,58,80000,0,0,40,9999,0.100000,0,0,0.000000,5,0.000000,0.000000,0.658497,0,0,0,0,0,0,0
8,89999,59,80000,2,10000,40,9999,0.100000,0,0,0.000000,5,0.000000,0.000000,1.138981,0,0,0,0,0,0,0
8,89999,60,80000,55,10000,49,9999,0.100000,0,0,0.000000,5,2.000000,0.000000,4.168182,0,0,0,0,0,0,0
8,89999,61,80000,9,0,40,9999,0.100000,0,0,0.000000,5,0.000000,0.000000,0.974666,0,0,0,0,0,0,0
8,89999,62,80000,9,0,40,9999,0.100000,0,0,0.000000,5,0.000000,0.000000,0.180575,0,0,0,0,0,0,0
8,89999,63,80000,2,10000,49,9999,0.100000,0,0,0.000000,5,1.000000,0.000000,11.402654,0,0,0,0,0,0,0
8,89999,64,80000,0,0,40,9999,0.100000,0,0,0.000000,5,0.000000,0.000000,0.099699,0,0,0,0,0,0,0
8,89999,65,80000,2,10000,40,9999,0.100000,0,0,0.000000,5,0.000000,0.000000,0.136490,0,0,0,0,0,0,0
8,89999,66,80000,55,10000,40,9999,0.100000,0,0,0.000000,5,0.000000,0.000000,1.187027,0,0,0,0,0,0,0
8,89999,67,80000,9,0,40,9999,0.100000,0,0,0.000000,5,0.000000,0.000000,1.129434,0,0,0,0,0,0,0
8,89999,68,80000,9,0,40,9999,0.100000,0,0,0.000000,5,0.000000,0.000000,0.948123,0,0,0,0,0,0,0
8,89999,69,80000,0,0,40,9999,0.100000,0,0,0.000000,5,0.000000,0.000000,4.787619,0,0,0,0,0,0,0
8,89999,70,80000,55,10000,40,9999,0.100000,0,0,0.000000,5,0.000000,0.000000,0.079465,0,0,0,0,0,0,0
8,89999,71,80000,0,0,40,9999,0.100000,0,0,0.000000,5,0.000000,0.000000,1.664193,0,0,0,0,0,0,0
8,89999,72,80000,55,10000,40,9999,0.100000,0,0,0.000000,5,0.000000,0.000000,0.276612,0,0,0,0,0,0,0
8,89999,73,80000,0,0,40,9999,0.100000,0,0,0.000000,5,0.000000,0.000000,0.090482,0,0,0,0,0,0,0
8,89999,74,80000,55,10000,40,9999,0.100000,0,0,0.000000,5,0.000000,0.000000,0.442649,0,0,0,0,0,0,0
8,89999,75,80000,9,0,40,9999,0.100000,0,0,0.000000,5,0.000000,0.000000,0.102733,0,0,0,0,0,0,0
8,89999,76,80000,9,0,40,9999,0.100000,0,0,0.000000,5,0.000000,0.000000,0.066703,0,0,0,0,0,0,0
8,89999,77,80000,9,0,40,9999,0.100000,0,0,0.000000,5,0.000000,0.000000,0.298839,0,0,0,0,0,0,0
8,89999,78,80000,55,10000,40,9999,0.100000,0,0,0.000000,5,0.000000,0.000000,1.288037,0,0,0,0,0,0,0
8,89999,79,80000,0,0,40,9999,0.100000,0,0,0.000000,5,0.000000,0.000000,0.966944,0,0,0,0,0,0,0
8,89999,80,80000,9,0,40,9999,0.100000,0,0,0.000000,5,0.000000,0.000000,1.224626,0,0,0,0,0,0,0
8,89999,81,80000,9,0,49,9999,0.100000,0,0,0.000000,5,5.000000,0.000000,12.033323,0,0,0,0,0,0,0
8,89999,82,80000,0,0,40,9999,0.100000,0,0,0.000000,5,0.000000,0.000000,3.184442,0,0,0,0,0,0,0
8,89999,83,80000,55,10000,40,9999,0.100000,0,0,0.000000,5,0.000000,0.000000,0.975042,0,0,0,0,0,0,0
8,89999,84,80000,2,10000,40,9999,0.100000,0,0,0.000000,5,0.000000,0.000000,0.124743,0,0,0,0,0,0,0
8,89999,85,80000,2,10000,40,9999,0.100000,0,0,0.000000,5,0.000000,0.000000,1.472915,0,0,0,0,0,0,0
8,89999,86,80000,9,0,40,9999,0.100000,0,0,0.000000,5,0.000000,0.000000,1.289822,0,0,0,0,0,0,0
8,89999,87,70000,55,10000,40,19999,0.100000,0,0,0.000000,5,0.000000,0.000000,0.338069,0,0,0,0,0,0,0
8,89999,88,80000,9,0,40,9999,0.100000,0,0,0.000000,5,0.000000,0.000000,0.213070,0,0,0,0,0,0,0
8,89999,89,80000,55,10000,40,9999,0.100000,0,0,0.000000,5,0.000000,0.000000,0.388469,0,0,0,0,0,0,0
8,89999,90,80000,9,0,40,9999,0.100000,0,0,0.000000,5,0.000000,0.000000,0.116642,0,0,0,0,0,0,0
8,89999,91,80000,2,10000,40,9999,0.100000,0,0,0.000000,5,0.000000,0.000000,1.120336,0,0,0,0,0,0,0
8,89999,92,80000,0,0,40,9999,0.100000,0,0,0.000000,5,0.000000,0.000000,0.503601,0,0,0,0,0,0,0
8,89999,93,80000,9,0,40,9999,0.100000,0,0,0.000000,5,0.000000,0.000000,0.773707,0,0,0,0,0,0,0
8,89999,94,80000,0,0,40,9999,0.100000,0,0,0.000000,5,0.000000,0.000000,2.515622,0,0,0,0,0,0,0
8,89999,95,80000,2,10000,40,9999,0.100000,0,0,0.000000,5,0.000000,0.000000,0.839995,0,0,0,0,0,0,0
8,89999,96,80000,4,0,40,9999,0.100000,0,0,0.000000,5,0.000000,0.000000,1.292628,0,0,0,0,0,0,0
8,89999,97,80000,55,10000,40,9999,0.100000,0,0,0.000000,5,0.000000,0.000000,2.609617,0,0,0,0,0,0,0
8,89999,98,80000,55,10000,40,9999,0.100000,0,0,0.000000,5,0.000000,0.000000,0.149527,0,0,0,0,0,0,0
8,89999,99,80000,4,0,40,9999,0.100000,0,0,0.000000,5,0.000000,0.000000,2.988751,0,0,0,0,0,0,0
9,99999,0,90000,55,10000,40,9999,0.100000,0,0,0.000000,5,0.000000,0.000000,0.344304,0,0,0,0,0,0,0
9,99999,1,90000,9,0,40,9999,0.100000,0,0,0.000000,5,0.000000,0.000000,0.119396,0,0,0,0,0,0,0
9,99999,2,90000,4,0,40,9999,0.100000,0,0,0.000000,5,0.000000,0.000000,0.085569,0,0,0,0,0,0,0
9,99999,3,90000,4,0,40,9999,0.100000,0,0,0.000000,5,0.000000,0.000000,0.932599,0,0,0,0,0,0,0
9,99999,4,90000,55,10000,40,9999,0.100000,0,0,0.000000,5,0.000000,0.000000,0.207434,0,0,0,0,0,0,0
9,99999,5,90000,4,0,40,9999,0.100000,0,0,0.000000,5,0.000000,0.000000,0.407194,0,0,0,0,0,0,0
9,99999,6,90000,55,10000,40,9999,0.100000,0,0,0.000000,5,0.000000,0.000000,1.049650,0,0,0,0,0,0,0
9,99999,7,90000,2,10000,40,9999,0.100000,0,0,0.000000,5,0.000000,0.000000,0.883419,0,0,0,0,0,0,0
9,99999,8,90000,55,10000,49,9999,0.100000,0,0,0.000000,5,1.000000,0.000000,13.587266,0,0,0,0,0,0,0
9,99999,9,90000,9,0,40,9999,0.100000,0,0,0.000000,5,0.000000,0.000000,0.899818,0,0,0,0,0,0,0
9,99999,10,90000,4,0,40,9999,0.100000,0,0,0.000000,5,0.000000,0.000000,0.895946,0,0,0,0,0,0,0
9,99999,11,90000,0,0,40,9999,0.100000,0,0,0.000000,5,0.000000,0.000000,0.443724,0,0,0,0,0,0,0
9,99999,12,90000,4,0,40,9999,0.100000,0,0,0.000000,5,0.000000,0.000000,0.296459,0,0,0,0,0,0,0
9,99999,13,90000,2,10000,40,9999,0.100000,0,0,0.000000,5,0.000000,0.000000,0.872747,0,0,0,0,0,0,0
9,99999,14,90000,2,10000,40,9999,0.100000,0,0,0.000000,5,0.000000,0.000000,0.788972,0,0,0,0,0,0,0
9,99999,15,90000,4,0,49,9999,0.100000,0,0,0.000000,5,2.000000,0.000000,5.414006,0,0,0,0,0,0,0
9,99999,16,90000,4,0,40,9999,0.100000,0,0,0.000000,5,0.000000,0.000000,0.181929,0,0,0,0,0,0,0
9,99999,17,90000,9,0,40,9999,0.100000,0,0,0.000000,5,0.000000,0.000000,0.241582,0,0,0,0,0,0,0
9,99999,18,90000,4,0,40,9999,0.100000,0,0,0.000000,5,0.000000,0.000000,0.215320,0,0,0,0,0,0,0
9,99999,19,90000,0,0,40,9999,0.100000,0,0,0.000000,5,0.000000,0.000000,2.646069,0,0,0,0,0,0,0
9,99999,20,90000,0,0,40,9999,0.100000,0,0,0.000000,5,0.000000,0.000000,0.438749,0,0,0,0,0,0,0
9,99999,21,90000,2,10000,40,9999,0.100000,0,0,0.000000,5,0.000000,0.000000,0.445970,0,0,0,0,0,0,0
9,99999,22,90000,2,10000,40,9999,0.100000,0,0,0.000000,5,0.000000,0.000000,0.495724,0,0,0,0,0,0,0
9,99999,23,90000,9,0,40,9999,0.100000,0,0,0.000000,5,0.000000,0.000000,0.092894,0,0,0,0,0,0,0
9,99999,24,90000,9,0,40,9999,0.100000,0,0,0.000000,5,0.000000,0.000000,0.553594,0,0,0,0,0,0,0
9,99999,25,90000,55,10000,40,9999,0.100000,0,0,0.000000,5,0.000000,0.000000,0.887752,0,0,0,0,0,0,0
9,99999,26,90000,9,0,40,9999,0.100000,0,0,0.000000,5,0.000000,0.000000,0.964954,0,0,0,0,0,0,0
9,99999,27,90000,0,0,40,9999,0.100000,0,0,0.000000,5,0.000000,0.000000,0.403248,0,0,0,0,0,0,0
9,99999,28,90000,9,0,40,9999,0.100000,0,0,0.000000,5,0.000000,0.000000,0.345612,0,0,0,0,0,0,0
9,99999,29,90000,2,10000,40,9999,0.100000,0,0,0.000000,5,0.000000,0.000000,0.150649,0,0,0,0,0,0,0
9,99999,30,90000,2,10000,40,9999,0.100000,0,0,0.000000,5,0.000000,0.000000,0.472408,0,0,0,0,0,0,0
9,99999,31,90000,4,0,40,9999,0.100000,0,0,0.000000,5,0.000000,0.000000,0.809917,0,0,0,0,0,0,0
9,99999,32,90000,0,0,40,9999,0.100000,0,0,0.000000,5,0.000000,0.000000,0.752666,0,0,0,0,0,0,0
9,99999,33,90000,55,10000,40,9999,0.100000,0,0,0.000000,5,0.000000,0.000000,1.314034,0,0,0,0,0,0,0
9,99999,34,90000,9,0,40,9999,0.100000,0,0,0.000000,5,0.000000,0.000000,0.185304,0,0,0,0,0,0,0
9,99999,35,90000,4,0,40,9999,0.100000,0,0,0.000000,5,0.000000,0.000000,0.362011,0,0,0,0,0,0,0
9,99999,36,90000,55,10000,40,9999,0.100000,0,0,0.000000,5,0.000000,0.000000,0.088051,0,0,0,0,0,0,0
9,99999,37,90000,55,10000,40,9999,0.100000,0,0,0.000000,5,0.000000,0.000000,1.323753,0,0,0,0,0,0,0
9,99999,38,90000,0,0,40,9999,0.100000,0,0,0.000000,5,0.000000,0.000000,0.069716,0,0,0,0,0,0,0
9,99999,39,90000,2,10000,40,9999,0.100000,0,0,0.000000,5,0.000000,0.000000,0.602663,0,0,0,0,0,0,0
9,99999,40,90000,55,10000,40,9999,0.100000,0,0,0.000000,5,0.000000,0.000000,0.570322,0,0,0,0,0,0,0
9,99999,41,90000,9,0,40,9999,0.100000,0,0,0.000000,5,0.000000,0.000000,1.695537,0,0,0,0,0,0,0
9,99999,42,90000,2,10000,40,9999,0.100000,0,0,0.000000,5,0.000000,0.000000,0.077050,0,0,0,0,0,0,0
9,99999,43,90000,9,0,40,9999,0.100000,0,0,0.000000,5,0.000000,0.000000,1.118131,0,0,0,0,0,0,0
9,99999,44,90000,55,10000,40,9999,0.100000,0,0,0.000000,5,0.000000,0.000000,0.128959,0,0,0,0,0,0,0
9,99999,45,90000,4,0,40,9999,0.100000,0,0,0.000000,5,0.000000,0.000000,0.162521,0,0,0,0,0,0,0
9,99999,46,90000,2,10000,40,9999,0.100000,0,0,0.000000,5,0.000000,0.000000,0.609031,0,0,0,0,0,0,0
9,99999,47,90000,55,10000,40,9999,0.100000,0,0,0.000000,5,0.000000,0.000000,0.244542,0,0,0,0,0,0,0
9,99999,48,90000,4,0,40,9999,0.100000,0,0,0.000000,5,0.000000,0.000000,0.298942,0,0,0,0,0,0,0
9,99999,49,90000,2,10000,40,9999,0.100000,0,0,0.000000,5,0.000000,0.000000,0.112613,0,0,0,0,0,0,0
9,99999,50,90000,9,0,40,9999,0.100000,0,0,0.000000,5,0.000000,0.000000,0.621901,0,0,0,0,0,0,0
9,99999,51,90000,55,10000,40,9999,0.100000,0,0,0.000000,5,0.000000,0.000000,0.753533,0,0,0,0,0,0,0
9,99999,52,90000,0,0,40,9999,0.100000,0,0,0.000000,5,0.000000,0.000000,0.211562,0,0,0,0,0,0,0
9,99999,53,90000,9,0,40,9999,0.100000,0,0,0.000000,5,0.000000,0.000000,2.334195,0,0,0,0,0,0,0
9,99999,54,90000,9,0,40,9999,0.100000,0,0,0.000000,5,0.000000,0.000000,0.866048,0,0,0,0,0,0,0
9,99999,55,90000,9,0,40,9999,0.100000,0,0,0.000000,5,0.000000,0.000000,0.245427,0,0,0,0,0,0,0
9,99999,56,90000,2,10000,40,9999,0.100000,0,0,0.000000,5,0.000000,0.000000,2.880414,0,0,0,0,0,0,0
9,99999,57,90000,0,0,40,9999,0.100000,0,0,0.000000,5,0.000000,0.000000,0.189667,0,0,0,0,0,0,0
9,99999,58,90000,4,0,40,9999,0.100000,0,0,0.000000,5,0.000000,0.000000,2.099402,0,0,0,0,0,0,0
9,99999,59,90000,4,0,40,9999,0.100000,0,0,0.000000,5,0.000000,0.000000,0.659660,0,0,0,0,0,0,0
9,99999,60,90000,2,10000,40,9999,0.100000,0,0,0.000000,5,0.000000,0.000000,0.091415,0,0,0,0,0,0,0
9,99999,61,90000,4,0,40,9999,0.100000,0,0,0.000000,5,0.000000,0.000000,1.084674,0,0,0,0,0,0,0
9,99999,62,90000,2,10000,40,9999,0.100000,0,0,0.000000,5,0.000000,0.000000,0.523183,0,0,0,0,0,0,0
9,99999,63,90000,2,10000,40,9999,0.100000,0,0,0.000000,5,0.000000,0.000000,0.634229,0,0,0,0,0,0,0
9,99999,64,90000,9,0,40,9999,0.100000,0,0,0.000000,5,0.000000,0.000000,0.141331,0,0,0,0,0,0,0
9,99999,65,90000,0,0,40,9999,0.065000,0,0,0.000000,5,0.000000,0.000000,0.504297,0,0,0,0,0,0,0
9,99999,66,90000,2,10000,40,9999,0.100000,0,0,0.000000,5,0.000000,0.000000,0.349613,0,0,0,0,0,0,0
9,99999,67,90000,9,0,40,9999,0.100000,0,0,0.000000,5,0.000000,0.000000,0.604602,0,0,0,0,0,0,0
9,99999,68,90000,4,0,40,9999,0.100000,0,0,0.000000,5,0.000000,0.000000,1.230039,0,0,0,0,0,0,0
9,99999,69,90000,2,10000,40,9999,0.100000,0,0,0.000000,5,0.000000,0.000000,5.553146,0,0,0,0,0,0,0
9,99999,70,90000,55,10000,40,9999,0.100000,0,0,0.000000,5,0.000000,0.000000,0.092807,0,0,0,0,0,0,0
9,99999,71,90000,0,0,40,9999,0.100000,0,0,0.000000,5,0.000000,0.000000,1.785410,0,0,0,0,0,0,0
9,99999,72,90000,9,0,40,9999,0.100000,0,0,0.000000,5,0.000000,0.000000,0.580126,0,0,0,0,0,0,0
9,99999,73,90000,2,10000,49,9999,0.100000,0,0,0.000000,5,6.000000,0.000000,13.424432,0,0,0,0,0,0,0
9,99999,74,90000,55,10000,40,9999,0.100000,0,0,0.000000,5,0.000000,0.000000,0.438113,0,0,0,0,0,0,0
9,99999,75,90000,4,0,49,9999,0.100000,0,0,0.000000,5,9.000000,0.000000,20.032377,0,0,0,0,0,0,0
9,99999,76,90000,55,10000,40,9999,0.100000,0,0,0.000000,5,0.000000,0.000000,0.070606,0,0,0,0,0,0,0
9,99999,77,90000,2,10000,49,9999,0.100000,0,0,0.000000,5,5.000000,0.000000,12.296376,0,0,0,0,0,0,0
9,99999,78,90000,2,10000,40,9999,0.100000,0,0,0.000000,5,0.000000,0.000000,1.413875,0,0,0,0,0,0,0
9,99999,79,90000,2,10000,40,9999,0.100000,0,0,0.000000,5,0.000000,0.000000,0.779779,0,0,0,0,0,0,0
9,99999,80,90000,2,10000,40,9999,0.100000,0,0,0.000000,5,0.000000,0.000000,1.288231,0,0,0,0,0,0,0
9,99999,81,90000,55,10000,40,9999,0.100000,0,0,0.000000,5,0.000000,0.000000,3.104273,0,0,0,0,0,0,0
9,99999,82,90000,55,10000,40,9999,0.100000,0,0,0.000000,5,0.000000,0.000000,4.502655,0,0,0,0,0,0,0
9,99999,83,90000,55,10000,40,9999,0.100000,0,0,0.000000,5,0.000000,0.000000,0.603008,0,0,0,0,0,0,0
9,99999,84,90000,4,0,40,9999,0.100000,0,0,0.000000,5,0.000000,0.000000,0.124699,0,0,0,0,0,0,0
9,99999,85,90000,0,0,40,9999,0.100000,0,0,0.000000,5,0.000000,0.000000,0.486549,0,0,0,0,0,0,0
9,99999,86,80000,9,0,40,19999,0.100000,0,0,0.000000,5,0.000000,0.000000,1.300020,0,0,0,0,0,0,0
9,99999,87,90000,4,0,40,9999,0.100000,0,0,0.000000,5,0.000000,0.000000,0.861915,0,0,0,0,0,0,0
9,99999,88,90000,9,0,40,9999,0.100000,0,0,0.000000,5,0.000000,0.000000,0.219032,0,0,0,0,0,0,0
9,99999,89,90000,0,0,40,9999,0.100000,0,0,0.000000,5,0.000000,0.000000,0.194383,0,0,0,0,0,0,0
9,99999,90,90000,0,0,40,9999,0.100000,0,0,0.000000,5,0.000000,0.000000,0.116571,0,0,0,0,0,0,0
9,99999,91,90000,0,0,40,9999,0.100000,0,0,0.000000,5,0.000000,0.000000,0.513148,0,0,0,0,0,0,0
9,99999,92,90000,2,10000,40,9999,0.100000,0,0,0.000000,5,0.000000,0.000000,0.538617,0,0,0,0,0,0,0
9,99999,93,90000,0,0,40,9999,0.100000,0,0,0.000000,5,0.000000,0.000000,0.651545,0,0,0,0,0,0,0
9,99999,94,90000,0,0,40,9999,0.100000,0,0,0.000000,5,0.000000,0.000000,3.236882,0,0,0,0,0,0,0
9,99999,95,90000,2,10000,40,9999,0.100000,0,0,0.000000,5,0.000000,0.000000,0.838859,0,0,0,0,0,0,0
9,99999,96,90000,4,0,40,9999,0.100000,0,0,0.000000,5,0.000000,0.000000,1.008119,0,0,0,0,0,0,0
9,99999,97,90000,2,10000,49,9999,0.100000,0,0,0.000000,5,1.000000,0.000000,4.423393,0,0,0,0,0,0,0
9,99999,98,80000,55,10000,40,19999,0.100000,0,0,0.000000,5,0.000000,0.000000,0.084529,0,0,0,0,0,0,0
9,99999,99,80000,4,0,40,19999,0.100000,0,0,0.000000,5,0.000000,0.000000,2.868508,0,0,0,0,0,0,0
10,109999,0,100000,9,0,40,9999,0.100000,0,0,0.000000,5,0.000000,0.000000,0.464864,0,0,0,0,0,0,0
10,109999,1,100000,0,0,40,9999,0.100000,0,0,0.000000,5,0.000000,0.000000,0.129600,0,0,0,0,0,0,0
10,109999,2,100000,9,0,40,9999,0.100000,0,0,0.000000,5,0.000000,0.000000,0.086100,0,0,0,0,0,0,0
10,109999,3,100000,2,10000,40,9999,0.100000,0,0,0.000000,5,0.000000,0.000000,0.587149,0,0,0,0,0,0,0
10,109999,4,100000,2,10000,40,9999,0.100000,0,0,0.000000,5,0.000000,0.000000,0.205365,0,0,0,0,0,0,0
10,109999,5,100000,4,0,40,9999,0.100000,0,0,0.000000,5,0.000000,0.000000,0.168486,0,0,0,0,0,0,0
10,109999,6,100000,4,0,40,9999,0.100000,0,0,0.000000,5,0.000000,0.000000,1.057019,0,0,0,0,0,0,0
10,109999,7,100000,9,0,40,9999,0.100000,0,0,0.000000,5,0.000000,0.000000,0.937871,0,0,0,0,0,0,0
10,109999,8,100000,55,10000,40,9999,0.100000,0,0,0.000000,5,0.000000,0.000000,0.834726,0,0,0,0,0,0,0
10,109999,9,100000,4,0,40,9999,0.100000,0,0,0.000000,5,0.000000,0.000000,0.903247,0,0,0,0,0,0,0
10,109999,10,100000,2,10000,40,9999,0.100000,0,0,0.000000,5,0.000000,0.000000,1.000249,0,0,0,0,0,0,0
10,109999,11,100000,9,0,40,9999,0.100000,0,0,0.000000,5,0.000000,0.000000,0.525608,0,0,0,0,0,0,0
10,109999,12,100000,0,0,40,9999,0.100000,0,0,0.000000,5,0.000000,0.000000,0.298722,0,0,0,0,0,0,0
10,109999,13,100000,2,10000,40,9999,0.100000,0,0,0.000000,5,0.000000,0.000000,0.973547,0,0,0,0,0,0,0
10,109999,14,100000,4,0,40,9999,0.100000,0,0,0.000000,5,0.000000,0.000000,0.836742,0,0,0,0,0,0,0
10,109999,15,100000,0,0,40,9999,0.100000,0,0,0.000000,5,0.000000,0.000000,0.152173,0,0,0,0,0,0,0
10,109999,16,100000,55,10000,40,9999,0.100000,0,0,0.000000,5,0.000000,0.000000,0.142212,0,0,0,0,0,0,0
10,109999,17,100000,4,0,40,9999,0.100000,0,0,0.000000,5,0.000000,0.000000,0.223364,0,0,0,0,0,0,0
10,109999,18,100000,2,10000,40,9999,0.100000,0,0,0.000000,5,0.000000,0.000000,0.211242,0,0,0,0,0,0,0
10,109999,19,100000,2,10000,40,9999,0.100000,0,0,0.000000,5,0.000000,0.000000,4.526744,0,0,0,0,0,0,0
10,109999,20,100000,2,10000,40,9999,0.100000,0,0,0.000000,5,0.000000,0.000000,0.430091,0,0,0,0,0,0,0
10,109999,21,100000,2,10000,40,9999,0.100000,0,0,0.000000,5,0.000000,0.000000,2.290236,0,0,0,0,0,0,0
10,109999,22,100000,4,0,40,9999,0.100000,0,0,0.000000,5,0.000000,0.000000,0.385379,0,0,0,0,0,0,0
10,109999,23,100000,4,0,40,9999,0.100000,0,0,0.000000,5,0.000000,0.000000,0.093860,0,0,0,0,0,0,0
10,109999,24,100000,9,0,40,9999,0.100000,0,0,0.000000,5,0.000000,0.000000,1.951502,0,0,0,0,0,0,0
10,109999,25,100000,2,10000,40,9999,0.100000,0,0,0.000000,5,0.000000,0.000000,1.055431,0,0,0,0,0,0,0
10,109999,26,100000,55,10000,40,9999,0.100000,0,0,0.000000,5,0.000000,0.000000,1.547465,0,0,0,0,0,0,0
10,109999,27,100000,4,0,40,9999,0.100000,0,0,0.000000,5,0.000000,0.000000,0.356870,0,0,0,0,0,0,0
10,109999,28,100000,4,0,40,9999,0.100000,0,0,0.000000,5,0.000000,0.000000,0.351226,0,0,0,0,0,0,0
10,109999,29,100000,9,0,49,9999,0.100000,0,0,0.000000,5,3.000000,0.000000,7.446667,0,0,0,0,0,0,0
10,109999,30,100000,55,10000,40,9999,0.100000,0,0,0.000000,5,0.000000,0.000000,1.680862,0,0,0,0,0,0,0
10,109999,31,100000,2,10000,40,9999,0.100000,0,0,0.000000,5,0.000000,0.000000,1.049578,0,0,0,0,0,0,0
10,109999,32,100000,2,10000,40,9999,0.100000,0,0,0.000000,5,0.000000,0.000000,0.686634,0,0,0,0,0,0,0
10,109999,33,100000,2,10000,40,9999,0.100000,0,0,0.000000,5,0.000000,0.000000,5.627137,0,0,0,0,0,0,0
10,109999,34,100000,9,0,40,9999,0.100000,0,0,0.000000,5,0.000000,0.000000,0.179336,0,0,0,0,0,0,0
10,109999,35,100000,9,0,40,9999,0.100000,0,0,0.000000,5,0.000000,0.000000,1.529149,0,0,0,0,0,0,0
10,109999,36,100000,4,0,40,9999,0.100000,0,0,0.000000,5,0.000000,0.000000,0.085386,0,0,0,0,0,0,0
10,109999,37,100000,4,0,40,9999,0.100000,0,0,0.000000,5,0.000000,0.000000,0.917863,0,0,0,0,0,0,0
10,109999,38,100000,2,10000,40,9999,0.100000,0,0,0.000000,5,0.000000,0.000000,0.380615,0,0,0,0,0,0,0
10,109999,39,100000,2,10000,40,9999,0.100000,0,0,0.000000,5,0.000000,0.000000,0.752270,0,0,0,0,0,0,0
10,109999,40,100000,0,0,40,9999,0.100000,0,0,0.000000,5,0.000000,0.000000,0.618996,0,0,0,0,0,0,0
10,109999,41,100000,9,0,40,9999,0.100000,0,0,0.000000,5,0.000000,0.000000,2.129033,0,0,0,0,0,0,0
10,109999,42,100000,4,0,40,9999,0.100000,0,0,0.000000,5,0.000000,0.000000,0.091767,0,0,0,0,0,0,0
10,109999,43,100000,4,0,49,9999,0.100000,0,0,0.000000,5,2.000000,0.000000,5.867752,0,0,0,0,0,0,0
10,109999,44,100000,55,10000,40,9999,0.100000,0,0,0.000000,5,0.000000,0.000000,0.141174,0,0,0,0,0,0,0
10,109999,45,100000,2,10000,40,9999,0.100000,0,0,0.000000,5,0.000000,0.000000,0.553952,0,0,0,0,0,0,0
10,109999,46,100000,0,0,40,9999,0.100000,0,0,0.000000,5,0.000000,0.000000,0.647416,0,0,0,0,0,0,0
10,109999,47,100000,4,0,40,9999,0.100000,0,0,0.000000,5,0.000000,0.000000,0.231751,0,0,0,0,0,0,0
10,109999,48,100000,4,0,40,9999,0.100000,0,0,0.000000,5,0.000000,0.000000,0.849105,0,0,0,0,0,0,0
10,109999,49,100000,4,0,40,9999,0.100000,0,0,0.000000,5,0.000000,0.000000,0.134994,0,0,0,0,0,0,0
10,109999,50,100000,9,0,40,9999,0.100000,0,0,0.000000,5,0.000000,0.000000,0.294998,0,0,0,0,0,0,0
10,109999,51,100000,55,10000,49,9999,0.100000,0,0,0.000000,5,1.000000,0.000000,5.490655,0,0,0,0,0,0,0
10,109999,52,100000,4,0,40,9999,0.100000,0,0,0.000000,5,0.000000,0.000000,0.216992,0,0,0,0,0,0,0
10,109999,53,100000,2,10000,40,9999,0.100000,0,0,0.000000,5,0.000000,0.000000,2.299273,0,0,0,0,0,0,0
10,109999,54,100000,9,0,40,9999,0.100000,0,0,0.000000,5,0.000000,0.000000,0.992786,0,0,0,0,0,0,0
10,109999,55,100000,9,0,40,9999,0.100000,0,0,0.000000,5,0.000000,0.000000,0.367392,0,0,0,0,0,0,0
10,109999,56,100000,9,0,40,9999,0.100000,0,0,0.000000,5,0.000000,0.000000,2.844663,0,0,0,0,0,0,0
10,109999,57,100000,9,0,40,9999,0.100000,0,0,0.000000,5,0.000000,0.000000,0.223322,0,0,0,0,0,0,0
10,109999,58,100000,0,0,40,9999,0.100000,0,0,0.000000,5,0.000000,0.000000,0.659334,0,0,0,0,0,0,0
10,109999,59,100000,55,10000,40,9999,0.100000,0,0,0.000000,5,0.000000,0.000000,2.041383,0,0,0,0,0,0,0
10,109999,60,100000,4,0,49,9999,0.100000,0,0,0.000000,5,6.000000,0.000000,13.557190,0,0,0,0,0,0,0
10,109999,61,100000,55,10000,40,9999,0.100000,0,0,0.000000,5,0.000000,0.000000,1.149588,0,0,0,0,0,0,0
10,109999,62,100000,2,10000,40,9999,0.100000,0,0,0.000000,5,0.000000,0.000000,0.528125,0,0,0,0,0,0,0
10,109999,63,100000,55,10000,49,9999,0.100000,0,0,0.000000,5,1.000000,0.000000,1.642494,0,0,0,0,0,0,0
10,109999,64,100000,9,0,40,9999,0.100000,0,0,0.000000,5,0.000000,0.000000,0.114947,0,0,0,0,0,0,0
10,109999,65,100000,4,0,40,9999,0.100000,0,0,0.000000,5,0.000000,0.000000,0.507807,0,0,0,0,0,0,0
10,109999,66,100000,55,10000,49,9999,0.100000,0,0,0.000000,5,1.000000,0.000000,1.252990,0,0,0,0,0,0,0
10,109999,67,100000,4,0,40,9999,0.100000,0,0,0.000000,5,0.000000,0.000000,0.645354,0,0,0,0,0,0,0
10,109999,68,100000,55,10000,40,9999,0.100000,0,0,0.000000,5,0.000000,0.000000,0.236709,0,0,0,0,0,0,0
10,109999,69,100000,9,0,40,9999,0.100000,0,0,0.000000,5,0.000000,0.000000,1.374543,0,0,0,0,0,0,0
10,109999,70,100000,9,0,40,9999,0.100000,0,0,0.000000,5,0.000000,0.000000,0.076939,0,0,0,0,0,0,0
10,109999,71,100000,0,0,40,9999,0.100000,0,0,0.000000,5,0.000000,0.000000,1.743469,0,0,0,0,0,0,0
10,109999,72,100000,4,0,40,9999,0.100000,0,0,0.000000,5,0.000000,0.000000,0.307539,0,0,0,0,0,0,0
10,109999,73,100000,55,10000,40,9999,0.100000,0,0,0.000000,5,0.000000,0.000000,0.081541,0,0,0,0,0,0,0
10,109999,74,100000,2,10000,40,9999,0.100000,0,0,0.000000,5,0.000000,0.000000,0.457502,0,0,0,0,0,0,0
10,109999,75,100000,2,10000,40,9999,0.100000,0,0,0.000000,5,0.000000,0.000000,0.082585,0,0,0,0,0,0,0
10,109999,76,100000,0,0,40,9999,0.100000,0,0,0.000000,5,0.000000,0.000000,0.070585,0,0,0,0,0,0,0
10,109999,77,100000,9,0,40,9999,0.100000,0,0,0.000000,5,0.000000,0.000000,0.230195,0,0,0,0,0,0,0
10,109999,78,100000,4,0,40,9999,0.100000,0,0,0.000000,5,0.000000,0.000000,1.500266,0,0,0,0,0,0,0
10,109999,79,100000,2,10000,40,9999,0.100000,0,0,0.000000,5,0.000000,0.000000,1.592197,0,0,0,0,0,0,0
10,109999,80,100000,2,10000,40,9999,0.100000,0,0,0.000000,5,0.000000,0.000000,1.492222,0,0,0,0,0,0,0
10,109999,81,100000,9,0,40,9999,0.100000,0,0,0.000000,5,0.000000,0.000000,0.145954,0,0,0,0,0,0,0
10,109999,82,100000,2,10000,40,9999,0.100000,0,0,0.000000,5,0.000000,0.000000,0.306702,0,0,0,0,0,0,0
10,109999,83,100000,0,0,40,9999,0.100000,0,0,0.000000,5,0.000000,0.000000,0.817757,0,0,0,0,0,0,0
10,109999,84,100000,0,0,40,9999,0.100000,0,0,0.000000,5,0.000000,0.000000,0.111972,0,0,0,0,0,0,0
10,109999,85,100000,9,0,40,9999,0.100000,0,0,0.000000,5,0.000000,0.000000,0.525351,0,0,0,0,0,0,0
10,109999,86,100000,55,10000,40,9999,0.100000,0,0,0.000000,5,0.000000,0.000000,1.299724,0,0,0,0,0,0,0
10,109999,87,100000,4,0,40,9999,0.100000,0,0,0.000000,5,0.000000,0.000000,0.443360,0,0,0,0,0,0,0
10,109999,88,100000,9,0,40,9999,0.100000,0,0,0.000000,5,0.000000,0.000000,0.220211,0,0,0,0,0,0,0
10,109999,89,100000,9,0,40,9999,0.100000,0,0,0.000000,5,0.000000,0.000000,0.850249,0,0,0,0,0,0,0
10,109999,90,100000,4,0,40,9999,0.065000,0,0,0.000000,5,0.000000,0.000000,0.117437,0,0,0,0,0,0,0
10,109999,91,100000,55,10000,40,9999,0.100000,0,0,0.000000,5,0.000000,0.000000,2.123724,0,0,0,0,0,0,0
10,109999,92,100000,4,0,40,9999,0.100000,0,0,0.000000,5,0.000000,0.000000,0.980994,0,0,0,0,0,0,0
10,109999,93,100000,9,0,40,9999,0.100000,0,0,0.000000,5,0.000000,0.000000,0.457953,0,0,0,0,0,0,0
10,109999,94,100000,4,0,40,9999,0.100000,0,0,0.000000,5,0.000000,0.000000,2.193025,0,0,0,0,0,0,0
10,109999,95,100000,9,0,40,9999,0.100000,0,0,0.000000,5,0.000000,0.000000,0.821252,0,0,0,0,0,0,0
10,109999,96,100000,9,0,40,9999,0.100000,0,0,0.000000,5,0.000000,0.000000,1.177037,0,0,0,0,0,0,0
10,109999,97,100000,4,0,40,9999,0.100000,0,0,0.000000,5,0.000000,0.000000,1.419326,0,0,0,0,0,0,0
10,109999,98,100000,0,0,40,9999,0.100000,0,0,0.000000,5,0.000000,0.000000,0.128734,0,0,0,0,0,0,0
10,109999,99,100000,0,0,40,9999,0.100000,0,0,0.000000,5,0.000000,0.000000,2.847585,0,0,0,0,0,0,0
11,119999,0,110000,4,0,40,9999,0.100000,0,0,0.000000,5,0.000000,0.000000,0.286007,0,0,0,0,0,0,0
11,119999,1,110000,2,10000,40,9999,0.100000,0,0,0.000000,5,0.000000,0.000000,0.102476,0,0,0,0,0,0,0
11,119999,2,110000,0,0,40,9999,0.100000,0,0,0.000000,5,0.000000,0.000000,0.085158,0,0,0,0,0,0,0
11,119999,3,110000,9,0,40,9999,0.100000,0,0,0.000000,5,0.000000,0.000000,0.320637,0,0,0,0,0,0,0
11,119999,4,110000,4,0,40,9999,0.100000,0,0,0.000000,5,0.000000,0.000000,0.211301,0,0,0,0,0,0,0
11,119999,5,110000,4,0,40,9999,0.100000,0,0,0.000000,5,0.000000,0.000000,0.103732,0,0,0,0,0,0,0
11,119999,6,110000,2,10000,40,9999,0.100000,0,0,0.000000,5,0.000000,0.000000,0.109961,0,0,0,0,0,0,0
11,119999,7,110000,4,0,40,9999,0.100000,0,0,0.000000,5,0.000000,0.000000,0.907107,0,0,0,0,0,0,0
11,119999,8,110000,2,10000,40,9999,0.100000,0,0,0.000000,5,0.000000,0.000000,0.713624,0,0,0,0,0,0,0
11,119999,9,110000,0,0,40,9999,0.100000,0,0,0.000000,5,0.000000,0.000000,1.131180,0,0,0,0,0,0,0
11,119999,10,110000,2,10000,49,9999,0.100000,0,0,0.000000,5,7.000000,0.000000,8.910771,0,0,0,0,0,0,0
11,119999,11,110000,0,0,40,9999,0.100000,0,0,0.000000,5,0.000000,0.000000,1.023423,0,0,0,0,0,0,0
11,119999,12,110000,4,0,40,9999,0.100000,0,0,0.000000,5,0.000000,0.000000,0.293430,0,0,0,0,0,0,0
11,119999,13,110000,0,0,49,9999,0.100000,0,0,0.000000,5,4.000000,0.000000,5.660468,0,0,0,0,0,0,0
11,119999,14,110000,4,0,49,9999,0.100000,0,0,0.000000,5,3.000000,0.000000,9.183006,0,0,0,0,0,0,0
11,119999,15,110000,0,0,40,9999,0.100000,0,0,0.000000,5,0.000000,0.000000,0.137097,0,0,0,0,0,0,0
11,119999,16,110000,4,0,40,9999,0.100000,0,0,0.000000,5,0.000000,0.000000,0.097610,0,0,0,0,0,0,0
11,119999,17,110000,55,10000,40,9999,0.100000,0,0,0.000000,5,0.000000,0.000000,0.175398,0,0,0,0,0,0,0
11,119999,18,110000,55,10000,40,9999,0.100000,0,0,0.000000,5,0.000000,0.000000,0.359553,0,0,0,0,0,0,0
11,119999,19,110000,4,0,49,9999,0.100000,0,0,0.000000,5,4.000000,0.000000,7.176279,0,0,0,0,0,0,0
11,119999,20,110000,9,0,40,9999,0.100000,0,0,0.000000,5,0.000000,0.000000,0.565673,0,0,0,0,0,0,0
11,119999,21,110000,2,10000,40,9999,0.100000,0,0,0.000000,5,0.000000,0.000000,0.079587,0,0,0,0,0,0,0
11,119999,22,110000,0,0,40,9999,0.100000,0,0,0.000000,5,0.000000,0.000000,0.973309,0,0,0,0,0,0,0
11,119999,23,110000,2,10000,40,9999,0.100000,0,0,0.000000,5,0.000000,0.000000,0.141844,0,0,0,0,0,0,0
11,119999,24,110000,2,10000,40,9999,0.100000,0,0,0.000000,5,0.000000,0.000000,1.485249,0,0,0,0,0,0,0
11,119999,25,110000,2,10000,40,9999,0.100000,0,0,0.000000,5,0.000000,0.000000,0.910842,0,0,0,0,0,0,0
11,119999,26,110000,0,0,40,9999,0.100000,0,0,0.000000,5,0.000000,0.000000,0.619261,0,0,0,0,0,0,0
11,119999,27,110000,55,10000,40,9999,0.100000,0,0,0.000000,5,0.000000,0.000000,0.349935,0,0,0,0,0,0,0
11,119999,28,110000,4,0,40,9999,0.100000,0,0,0.000000,5,0.000000,0.000000,0.508285,0,0,0,0,0,0,0
11,119999,29,110000,2,10000,40,9999,0.100000,0,0,0.000000,5,0.000000,0.000000,0.105949,0,0,0,0,0,0,0
11,119999,30,110000,9,0,40,9999,0.100000,0,0,0.000000,5,0.000000,0.000000,0.392083,0,0,0,0,0,0,0
11,119999,31,110000,9,0,49,9999,0.100000,0,0,0.000000,5,7.000000,0.000000,9.082570,0,0,0,0,0,0,0
11,119999,32,110000,2,10000,40,9999,0.100000,0,0,0.000000,5,0.000000,0.000000,0.830989,0,0,0,0,0,0,0
11,119999,33,110000,4,0,40,9999,0.100000,0,0,0.000000,5,0.000000,0.000000,0.092277,0,0,0,0,0,0,0
11,119999,34,110000,9,0,40,9999,0.100000,0,0,0.000000,5,0.000000,0.000000,0.162586,0,0,0,0,0,0,0
11,119999,35,110000,0,0,40,9999,0.100000,0,0,0.000000,5,0.000000,0.000000,0.965041,0,0,0,0,0,0,0
11,119999,36,110000,2,10000,40,9999,0.100000,0,0,0.000000,5,0.000000,0.000000,0.085000,0,0,0,0,0,0,0
11,119999,37,110000,2,10000,40,9999,0.100000,0,0,0.000000,5,0.000000,0.000000,0.938803,0,0,0,0,0,0,0
11,119999,38,110000,0,0,40,9999,0.100000,0,0,0.000000,5,0.000000,0.000000,1.063728,0,0,0,0,0,0,0
11,119999,39,110000,9,0,40,9999,0.100000,0,0,0.000000,5,0.000000,0.000000,0.638304,0,0,0,0,0,0,0
11,119999,40,110000,2,10000,40,9999,0.100000,0,0,0.000000,5,0.000000,0.000000,0.573814,0,0,0,0,0,0,0
11,119999,41,110000,4,0,40,9999,0.100000,0,0,0.000000,5,0.000000,0.000000,0.116374,0,0,0,0,0,0,0
11,119999,42,110000,4,0,40,9999,0.100000,0,0,0.000000,5,0.000000,0.000000,0.103600,0,0,0,0,0,0,0
11,119999,43,110000,2,10000,40,9999,0.135000,0,0,0.000000,5,0.000000,0.000000,1.121776,0,0,0,0,0,0,0
11,119999,44,110000,2,10000,40,9999,0.100000,0,0,0.000000,5,0.000000,0.000000,0.190005,0,0,0,0,0,0,0
11,119999,45,110000,9,0,40,9999,0.100000,0,0,0.000000,5,0.000000,0.000000,0.643588,0,0,0,0,0,0,0
11,119999,46,110000,9,0,9,9999,0.100000,0,0,0.000000,5,9.000000,0.000000,28.459662,0,0,0,1,0,0,0
11,119999,47,100000,4,0,40,19999,0.100000,0,0,0.000000,5,0.000000,0.000000,0.234140,0,0,0,0,0,0,0
11,119999,48,110000,55,10000,40,9999,0.100000,0,0,0.000000,5,0.000000,0.000000,2.614827,0,0,0,0,0,0,0
11,119999,49,110000,0,0,40,9999,0.100000,0,0,0.000000,5,0.000000,0.000000,0.138060,0,0,0,0,0,0,0
11,119999,50,110000,55,10000,40,9999,0.100000,0,0,0.000000,5,0.000000,0.000000,0.366809,0,0,0,0,0,0,0
11,119999,51,110000,2,10000,40,9999,0.100000,0,0,0.000000,5,0.000000,0.000000,0.474423,0,0,0,0,0,0,0
11,119999,52,110000,0,0,40,9999,0.100000,0,0,0.000000,5,0.000000,0.000000,0.177622,0,0,0,0,0,0,0
11,119999,53,110000,0,0,40,9999,0.100000,0,0,0.000000,5,0.000000,0.000000,1.964175,0,0,0,0,0,0,0
11,119999,54,110000,4,0,40,9999,0.100000,0,0,0.000000,5,0.000000,0.000000,1.400611,0,0,0,0,0,0,0
11,119999,55,110000,0,0,40,9999,0.100000,0,0,0.000000,5,0.000000,0.000000,0.225154,0,0,0,0,0,0,0
11,119999,56,110000,4,0,40,9999,0.100000,0,0,0.000000,5,0.000000,0.000000,3.007161,0,0,0,0,0,0,0
11,119999,57,110000,9,0,40,9999,0.100000,0,0,0.000000,5,0.000000,0.000000,0.192574,0,0,0,0,0,0,0
11,119999,58,110000,0,0,40,9999,0.100000,0,0,0.000000,5,0.000000,0.000000,0.579511,0,0,0,0,0,0,0
11,119999,59,110000,4,0,40,9999,0.100000,0,0,0.000000,5,0.000000,0.000000,2.318565,0,0,0,0,0,0,0
11,119999,60,110000,2,10000,40,9999,0.100000,0,0,0.000000,5,0.000000,0.000000,0.087463,0,0,0,0,0,0,0
11,119999,61,110000,0,0,40,9999,0.100000,0,0,0.000000,5,0.000000,0.000000,1.275522,0,0,0,0,0,0,0
11,119999,62,110000,2,10000,40,9999,0.100000,0,0,0.000000,5,0.000000,0.000000,0.480189,0,0,0,0,0,0,0
11,119999,63,110000,55,10000,49,9999,0.100000,0,0,0.000000,5,1.000000,0.000000,1.583534,0,0,0,0,0,0,0
11,119999,64,110000,2,10000,40,9999,0.100000,0,0,0.000000,5,0.000000,0.000000,0.085896,0,0,0,0,0,0,0
11,119999,65,110000,55,10000,40,9999,0.100000,0,0,0.000000,5,0.000000,0.000000,0.471430,0,0,0,0,0,0,0
11,119999,66,110000,2,10000,49,9999,0.100000,0,0,0.000000,5,1.000000,0.000000,1.271848,0,0,0,0,0,0,0
11,119999,67,110000,4,0,40,9999,0.100000,0,0,0.000000,5,0.000000,0.000000,0.831526,0,0,0,0,0,0,0
11,119999,68,110000,0,0,40,9999,0.100000,0,0,0.000000,5,0.000000,0.000000,0.749492,0,0,0,0,0,0,0
11,119999,69,110000,55,10000,40,9999,0.100000,0,0,0.000000,5,0.000000,0.000000,0.149129,0,0,0,0,0,0,0
11,119999,70,110000,4,0,40,9999,0.100000,0,0,0.000000,5,0.000000,0.000000,0.240734,0,0,0,0,0,0,0
11,119999,71,110000,4,0,40,9999,0.100000,0,0,0.000000,5,0.000000,0.000000,1.678713,0,0,0,0,0,0,0
11,119999,72,110000,2,10000,40,9999,0.100000,0,0,0.000000,5,0.000000,0.000000,0.279353,0,0,0,0,0,0,0
11,119999,73,110000,4,0,40,9999,0.100000,0,0,0.000000,5,0.000000,0.000000,0.081122,0,0,0,0,0,0,0
11,119999,74,110000,2,10000,40,9999,0.100000,0,0,0.000000,5,0.000000,0.000000,0.445712,0,0,0,0,0,0,0
11,119999,75,110000,9,0,40,9999,0.100000,0,0,0.000000,5,0.000000,0.000000,0.082719,0,0,0,0,0,0,0
11,119999,76,110000,0,0,40,9999,0.100000,0,0,0.000000,5,0.000000,0.000000,0.095401,0,0,0,0,0,0,0
11,119999,77,110000,0,0,40,9999,0.100000,0,0,0.000000,5,0.000000,0.000000,0.112688,0,0,0,0,0,0,0
11,119999,78,110000,2,10000,40,9999,0.100000,0,0,0.000000,5,0.000000,0.000000,1.257857,0,0,0,0,0,0,0
11,119999,79,110000,2,10000,40,9999,0.100000,0,0,0.000000,5,0.000000,0.000000,1.340032,0,0,0,0,0,0,0
11,119999,80,110000,55,10000,40,9999,0.100000,0,0,0.000000,5,0.000000,0.000000,1.066808,0,0,0,0,0,0,0
11,119999,81,110000,4,0,40,9999,0.100000,0,0,0.000000,5,0.000000,0.000000,0.086221,0,0,0,0,0,0,0
11,119999,82,110000,4,0,40,9999,0.100000,0,0,0.000000,5,0.000000,0.000000,0.239712,0,0,0,0,0,0,0
11,119999,83,110000,55,10000,40,9999,0.100000,0,0,0.000000,5,0.000000,0.000000,0.850966,0,0,0,0,0,0,0
11,119999,84,110000,4,0,40,9999,0.100000,0,0,0.000000,5,0.000000,0.000000,0.114348,0,0,0,0,0,0,0
11,119999,85,110000,55,10000,40,9999,0.100000,0,0,0.000000,5,0.000000,0.000000,0.577001,0,0,0,0,0,0,0
11,119999,86,110000,0,0,40,9999,0.100000,0,0,0.000000,5,0.000000,0.000000,1.340060,0,0,0,0,0,0,0
11,119999,87,110000,2,10000,40,9999,0.100000,0,0,0.000000,5,0.000000,0.000000,0.150517,0,0,0,0,0,0,0
11,119999,88,110000,4,0,40,9999,0.100000,0,0,0.000000,5,0.000000,0.000000,0.194967,0,0,0,0,0,0,0
11,119999,89,110000,2,10000,40,9999,0.100000,0,0,0.000000,5,0.000000,0.000000,0.786515,0,0,0,0,0,0,0
11,119999,90,110000,4,0,40,9999,0.100000,0,0,0.000000,5,0.000000,0.000000,0.118374,0,0,0,0,0,0,0
11,119999,91,110000,4,0,40,9999,0.100000,0,0,0.000000,5,0.000000,0.000000,1.278405,0,0,0,0,0,0,0
11,119999,92,110000,2,10000,40,9999,0.100000,0,0,0.000000,5,0.000000,0.000000,0.259947,0,0,0,0,0,0,0
11,119999,93,110000,4,0,40,9999,0.100000,0,0,0.000000,5,0.000000,0.000000,0.141186,0,0,0,0,0,0,0
11,119999,94,110000,2,10000,40,9999,0.100000,0,0,0.000000,5,0.000000,0.000000,0.779657,0,0,0,0,0,0,0
11,119999,95,110000,0,0,40,9999,0.100000,0,0,0.000000,5,0.000000,0.000000,0.849218,0,0,0,0,0,0,0
11,119999,96,110000,9,0,40,9999,0.100000,0,0,0.000000,5,0.000000,0.000000,1.405882,0,0,0,0,0,0,0
11,119999,97,110000,4,0,40,9999,0.100000,0,0,0.000000,5,0.000000,0.000000,1.151665,0,0,0,0,0,0,0
11,119999,98,110000,2,10000,40,9999,0.100000,0,0,0.000000,5,0.000000,0.000000,0.337339,0,0,0,0,0,0,0
11,119999,99,110000,4,0,40,9999,0.100000,0,0,0.000000,5,0.000000,0.000000,2.993682,0,0,0,0,0,0,0
12,129999,0,120000,55,10000,40,9999,0.100000,0,0,0.000000,5,0.000000,0.000000,0.211227,0,0,0,0,0,0,0
12,129999,1,120000,4,0,40,9999,0.100000,0,0,0.000000,5,0.000000,0.000000,0.094391,0,0,0,0,0,0,0
12,129999,2,120000,4,0,40,9999,0.100000,0,0,0.000000,5,0.000000,0.000000,0.082568,0,0,0,0,0,0,0
12,129999,3,120000,4,0,49,9999,0.100000,0,0,0.000000,5,3.000000,0.000000,8.206966,0,0,0,0,0,0,0
12,129999,4,120000,9,0,40,9999,0.100000,0,0,0.000000,5,0.000000,0.000000,0.213882,0,0,0,0,0,0,0
12,129999,5,120000,9,0,40,9999,0.100000,0,0,0.000000,5,0.000000,0.000000,0.074324,0,0,0,0,0,0,0
12,129999,6,120000,4,0,40,9999,0.100000,0,0,0.000000,5,0.000000,0.000000,0.104303,0,0,0,0,0,0,0
12,129999,7,120000,9,0,40,9999,0.100000,0,0,0.000000,5,0.000000,0.000000,3.141743,0,0,0,0,0,0,0
12,129999,8,120000,2,10000,49,9999,0.100000,0,0,0.000000,5,1.000000,0.000000,1.268440,0,0,0,0,0,0,0
12,129999,9,120000,55,10000,49,9999,0.100000,0,0,0.000000,5,1.000000,0.000000,5.329297,0,0,0,0,0,0,0
12,129999,10,120000,2,10000,40,9999,0.100000,0,0,0.000000,5,0.000000,0.000000,1.812072,0,0,0,0,0,0,0
12,129999,11,120000,2,10000,9,9999,0.100000,0,0,0.000000,5,2.000000,0.000000,3.119398,0,0,0,0,0,0,1
12,129999,12,120000,4,0,40,9999,0.100000,0,0,0.000000,5,0.000000,0.000000,0.287626,0,0,0,0,0,0,0
12,129999,13,120000,0,0,40,9999,0.100000,0,0,0.000000,5,0.000000,0.000000,0.581461,0,0,0,0,0,0,0
12,129999,14,120000,0,0,40,9999,0.100000,0,0,0.000000,5,0.000000,0.000000,5.590900,0,0,0,0,0,0,0
12,129999,15,120000,0,0,40,9999,0.100000,0,0,0.000000,5,0.000000,0.000000,0.094097,0,0,0,0,0,0,0
12,129999,16,120000,0,0,40,9999,0.100000,0,0,0.000000,5,0.000000,0.000000,0.079572,0,0,0,0,0,0,0
12,129999,17,120000,2,10000,40,9999,0.100000,0,0,0.000000,5,0.000000,0.000000,0.184604,0,0,0,0,0,0,0
12,129999,18,120000,55,10000,40,9999,0.100000,0,0,0.000000,5,0.000000,0.000000,0.152846,0,0,0,0,0,0,0
12,129999,19,120000,9,0,40,9999,0.100000,0,0,0.000000,5,0.000000,0.000000,1.491745,0,0,0,0,0,0,0
12,129999,20,120000,0,0,40,9999,0.100000,0,0,0.000000,5,0.000000,0.000000,4.350631,0,0,0,0,0,0,0
12,129999,21,120000,2,10000,40,9999,0.100000,0,0,0.000000,5,0.000000,0.000000,0.075942,0,0,0,0,0,0,0
12,129999,22,120000,2,10000,49,9999,0.100000,0,0,0.000000,5,1.000000,0.000000,3.770898,0,0,0,0,0,0,0
12,129999,23,120000,9,0,40,9999,0.100000,0,0,0.000000,5,0.000000,0.000000,0.147149,0,0,0,0,0,0,0
12,129999,24,120000,0,0,40,9999,0.100000,0,0,0.000000,5,0.000000,0.000000,20.441034,0,0,0,0,0,0,0
12,129999,25,120000,55,10000,49,9999,0.100000,0,0,0.000000,5,3.000000,0.000000,3.592097,0,0,0,0,0,0,0
12,129999,26,120000,9,0,49,9999,0.100000,0,0,0.000000,5,1.000000,0.000000,1.117491,0,0,0,0,0,0,0
12,129999,27,120000,4,0,40,9999,0.100000,0,0,0.000000,5,0.000000,0.000000,0.307595,0,0,0,0,0,0,0
12,129999,28,120000,2,10000,40,9999,0.100000,0,0,0.000000,5,0.000000,0.000000,0.264760,0,0,0,0,0,0,0
12,129999,29,120000,9,0,40,9999,0.100000,0,0,0.000000,5,0.000000,0.000000,0.080238,0,0,0,0,0,0,0
12,129999,30,120000,2,10000,40,9999,0.100000,0,0,0.000000,5,0.000000,0.000000,0.563050,0,0,0,0,0,0,0
12,129999,31,120000,4,0,40,9999,0.100000,0,0,0.000000,5,0.000000,0.000000,1.774550,0,0,0,0,0,0,0
12,129999,32,120000,9,0,40,9999,0.100000,0,0,0.000000,5,0.000000,0.000000,1.527379,0,0,0,0,0,0,0
12,129999,33,120000,0,0,40,9999,0.100000,0,0,0.000000,5,0.000000,0.000000,0.081449,0,0,0,0,0,0,0
12,129999,34,120000,55,10000,40,9999,0.100000,0,0,0.000000,5,0.000000,0.000000,0.112751,0,0,0,0,0,0,0
12,129999,35,120000,55,10000,40,9999,0.100000,0,0,0.000000,5,0.000000,0.000000,0.506653,0,0,0,0,0,0,0
12,129999,36,120000,55,10000,40,9999,0.100000,0,0,0.000000,5,0.000000,0.000000,0.088331,0,0,0,0,0,0,0
12,129999,37,120000,9,0,40,9999,0.100000,0,0,0.000000,5,0.000000,0.000000,0.895936,0,0,0,0,0,0,0
12,129999,38,120000,9,0,40,9999,0.100000,0,0,0.000000,5,0.000000,0.000000,0.948305,0,0,0,0,0,0,0
12,129999,39,120000,55,10000,49,9999,0.100000,0,0,0.000000,5,1.000000,0.000000,1.075371,0,0,0,0,0,0,0
12,129999,40,120000,0,0,40,9999,0.100000,0,0,0.000000,5,0.000000,0.000000,0.777552,0,0,0,0,0,0,0
12,129999,41,120000,2,10000,40,9999,0.100000,0,0,0.000000,5,0.000000,0.000000,0.342141,0,0,0,0,0,0,0
12,129999,42,120000,55,10000,40,9999,0.100000,0,0,0.000000,5,0.000000,0.000000,0.888740,0,0,0,0,0,0,0
12,129999,43,120000,4,0,40,9999,0.100000,0,0,0.000000,5,0.000000,0.000000,2.818595,0,0,0,0,0,0,0
12,129999,44,120000,2,10000,40,9999,0.100000,0,0,0.000000,5,0.000000,0.000000,0.197551,0,0,0,0,0,0,0
12,129999,45,120000,0,0,40,9999,0.100000,0,0,0.000000,5,0.000000,0.000000,0.785015,0,0,0,0,0,0,0
12,129999,46,120000,2,10000,40,9999,0.100000,0,0,0.000000,5,0.000000,0.000000,1.290451,0,0,0,0,0,0,0
12,129999,47,120000,55,10000,40,9999,0.100000,0,0,0.000000,5,0.000000,0.000000,0.239688,0,0,0,0,0,0,0
12,129999,48,120000,2,10000,40,9999,0.100000,0,0,0.000000,5,0.000000,0.000000,0.718290,0,0,0,0,0,0,0
12,129999,49,120000,9,0,40,9999,0.100000,0,0,0.000000,5,0.000000,0.000000,0.383735,0,0,0,0,0,0,0
12,129999,50,120000,0,0,40,9999,0.100000,0,0,0.000000,5,0.000000,0.000000,0.379147,0,0,0,0,0,0,0
