generation,iteration,robot,birthday,ancestor_id,ancestor_birthday,cell_id,age,sigma,maps,genomes,fitness,cells_in_map,dist_max,dist_pot_max,dist_total,com_rx,com_tx,obj_group1,obj_group2,obj_group3,obj_group4,obj_group5
0,9999,0,0,0,0,40,9999,0.100000,99,0,0.000000,0,2.000000,22.740487,5.699328,99,99,0,0,0,0,0
0,9999,1,0,1,0,90,9999,0.100000,99,0,18.474657,0,3.000000,30.185391,12.803290,99,99,2,0,0,0,0
0,9999,2,0,2,0,98,9999,0.100000,99,0,56.934539,0,13.000000,15.315073,27.094090,99,99,1,0,0,0,0
0,9999,3,0,3,0,40,9999,0.100000,99,0,0.000000,0,0.000000,24.166157,5.049520,99,99,0,0,0,0,0
0,9999,4,0,4,0,40,9999,0.100000,99,0,0.000000,0,1.000000,21.272977,10.336800,99,99,0,0,0,0,0
0,9999,5,0,5,0,41,9999,0.100000,99,0,0.000000,0,3.000000,27.454512,13.253732,99,99,0,0,0,0,0
0,9999,6,0,6,0,40,9999,0.100000,99,0,0.000000,0,2.000000,26.299693,16.441454,99,99,0,0,0,0,0
0,9999,7,0,7,0,1,9999,0.100000,99,0,21.151206,0,4.000000,23.067900,5.813470,99,99,0,1,0,0,0
0,9999,8,0,8,0,40,9999,0.100000,99,0,0.000000,0,2.000000,23.462912,7.691250,99,99,0,0,0,0,0
0,9999,9,0,9,0,94,9999,0.100000,99,0,54.391755,0,13.000000,28.651006,23.466813,99,99,1,0,0,0,0
0,9999,10,0,10,0,41,9999,0.100000,99,0,0.000000,0,4.000000,24.239382,13.078701,99,99,0,0,0,0,0
0,9999,11,0,11,0,0,9999,0.100000,99,0,0.176002,0,1.000000,20.560303,2.742569,99,99,0,1,0,0,0
0,9999,12,0,12,0,0,9999,0.100000,99,0,2.842545,0,1.000000,27.486566,2.128118,99,99,0,0,1,0,0
0,9999,13,0,13,0,0,9999,0.100000,99,0,0.026702,0,1.000000,21.229426,1.815416,99,99,0,0,0,0,1
0,9999,14,0,14,0,1,9999,0.100000,99,0,7.754660,0,3.000000,16.341136,11.611645,99,99,0,1,0,0,0
0,9999,15,0,15,0,40,9999,0.100000,99,0,0.000000,0,1.000000,26.419501,7.135417,99,99,0,0,0,0,0
0,9999,16,0,16,0,41,9999,0.100000,99,0,0.000000,0,6.000000,29.693908,24.991700,99,99,0,0,0,0,0
0,9999,17,0,17,0,41,9999,0.100000,99,0,0.000000,0,3.000000,26.195655,7.424379,99,99,0,0,0,0,0
0,9999,18,0,18,0,40,9999,0.100000,99,0,0.000000,0,2.000000,32.796930,8.709673,99,99,0,0,0,0,0
0,9999,19,0,19,0,41,9999,0.100000,99,0,0.000000,0,3.000000,17.787811,5.697531,99,99,0,0,0,0,0
0,9999,20,0,20,0,41,9999,0.100000,99,0,0.000000,0,3.000000,24.101418,13.180130,99,99,0,0,0,0,0
0,9999,21,0,21,0,0,9999,0.100000,99,0,0.304993,0,0.000000,27.356555,0.439213,99,99,0,0,0,0,1
0,9999,22,0,22,0,40,9999,0.100000,99,0,0.000000,0,2.000000,23.480727,5.708601,99,99,0,0,0,0,0
0,9999,23,0,23,0,40,9999,0.100000,99,0,0.000000,0,2.000000,22.525175,14.475372,99,99,0,0,0,0,0
0,9999,24,0,24,0,40,9999,0.100000,99,0,0.000000,0,1.000000,26.999412,14.852507,99,99,0,0,0,0,0
0,9999,25,0,25,0,40,9999,0.100000,99,0,0.000000,0,1.000000,26.728718,10.555194,99,99,0,0,0,0,0
0,9999,26,0,26,0,40,9999,0.100000,99,0,0.000000,0,0.000000,28.880943,3.651851,99,99,0,0,0,0,0
0,9999,27,0,27,0,40,9999,0.100000,99,0,0.000000,0,1.000000,26.031220,2.048162,99,99,0,0,0,0,0
0,9999,28,0,28,0,40,9999,0.100000,99,0,0.000000,0,1.000000,20.783784,7.236664,99,99,0,0,0,0,0
0,9999,29,0,29,0,41,9999,0.100000,99,0,0.000000,0,3.000000,21.780068,11.997373,99,99,0,0,0,0,0
0,9999,30,0,30,0,41,9999,0.100000,99,0,0.000000,0,3.000000,26.885793,8.338291,99,99,0,0,0,0,0
0,9999,31,0,31,0,40,9999,0.100000,99,0,0.000000,0,1.000000,21.543396,5.716184,99,99,0,0,0,0,0
0,9999,32,0,32,0,0,9999,0.100000,99,0,0.067794,0,0.000000,13.820995,1.536254,99,99,0,0,0,0,1
0,9999,33,0,33,0,40,9999,0.100000,99,0,0.000000,0,1.000000,28.681006,6.953859,99,99,0,0,0,0,0
0,9999,34,0,34,0,40,9999,0.100000,99,0,0.000000,0,0.000000,21.615507,1.965577,99,99,0,0,0,0,0
0,9999,35,0,35,0,0,9999,0.100000,99,0,0.076049,0,0.000000,27.265283,1.739254,99,99,0,0,1,0,0
0,9999,36,0,36,0,41,9999,0.100000,99,0,0.000000,0,4.000000,22.568612,14.287777,99,99,0,0,0,0,0
0,9999,37,0,37,0,40,9999,0.100000,99,0,0.000000,0,2.000000,29.418033,5.016238,99,99,0,0,0,0,0
0,9999,38,0,38,0,94,9999,0.100000,99,0,60.884982,0,12.000000,26.796726,25.093213,99,99,1,0,0,0,0
0,9999,39,0,39,0,41,9999,0.100000,99,0,0.000000,0,5.000000,29.480503,21.707049,99,99,0,0,0,0,0
0,9999,40,0,40,0,91,9999,0.100000,99,0,17.958284,0,4.000000,34.302263,20.218157,99,99,1,0,0,0,0
0,9999,41,0,41,0,40,9999,0.100000,99,0,0.000000,0,1.000000,33.491275,2.430505,99,99,0,0,0,0,0
0,9999,42,0,42,0,40,9999,0.100000,99,0,0.000000,0,1.000000,30.678491,9.784691,99,99,0,0,0,0,0
0,9999,43,0,43,0,41,9999,0.100000,99,0,0.000000,0,3.000000,24.964291,11.006944,99,99,0,0,0,0,0
0,9999,44,0,44,0,40,9999,0.100000,99,0,0.000000,0,2.000000,34.548931,7.498073,99,99,0,0,0,0,0
0,9999,45,0,45,0,40,9999,0.100000,99,0,0.000000,0,1.000000,27.920379,3.837856,99,99,0,0,0,0,0
0,9999,46,0,46,0,40,9999,0.100000,99,0,0.000000,0,1.000000,28.747266,1.571175,99,99,0,0,0,0,0
0,9999,47,0,47,0,41,9999,0.100000,99,0,0.000000,0,3.000000,21.629703,12.315598,99,99,0,0,0,0,0
0,9999,48,0,48,0,91,9999,0.100000,99,0,14.110238,0,6.000000,33.586649,14.560669,99,99,1,0,0,0,0
0,9999,49,0,49,0,40,9999,0.100000,99,0,0.000000,0,1.000000,27.318487,14.625046,99,99,0,0,0,0,0
0,9999,50,0,50,0,40,9999,0.100000,99,0,0.000000,0,2.000000,20.973149,6.647478,99,99,0,0,0,0,0
0,9999,51,0,51,0,40,9999,0.100000,99,0,0.000000,0,0.000000,26.278206,4.344990,99,99,0,0,0,0,0
0,9999,52,0,52,0,0,9999,0.100000,99,0,0.002186,0,1.000000,26.519685,6.826156,99,99,0,0,0,1,0
0,9999,53,0,53,0,90,9999,0.100000,99,0,0.596145,0,0.000000,23.598897,2.634860,99,99,1,0,0,0,0
0,9999,54,0,54,0,40,9999,0.100000,99,0,0.000000,0,1.000000,18.023092,4.265970,99,99,0,0,0,0,0
0,9999,55,0,55,0,40,9999,0.100000,99,0,0.000000,0,2.000000,31.414948,10.828397,99,99,0,0,0,0,0
0,9999,56,0,56,0,40,9999,0.100000,99,0,0.000000,0,1.000000,28.420098,12.585273,99,99,0,0,0,0,0
0,9999,57,0,57,0,40,9999,0.100000,99,0,0.000000,0,1.000000,31.488834,5.586065,99,99,0,0,0,0,0
0,9999,58,0,58,0,41,9999,0.100000,99,0,0.000000,0,4.000000,22.007081,10.418529,99,99,0,0,0,0,0
0,9999,59,0,59,0,41,9999,0.100000,99,0,0.000000,0,3.000000,16.935416,8.940345,99,99,0,0,0,0,0
0,9999,60,0,60,0,97,9999,0.100000,99,0,78.985381,0,15.000000,20.096039,26.518136,99,99,1,0,0,0,0
0,9999,61,0,61,0,41,9999,0.100000,99,0,0.000000,0,4.000000,19.508417,17.363290,99,99,0,0,0,0,0
0,9999,62,0,62,0,40,9999,0.100000,99,0,0.000000,0,1.000000,26.196605,6.864602,99,99,0,0,0,0,0
0,9999,63,0,63,0,41,9999,0.100000,99,0,0.000000,0,2.000000,16.356100,6.622140,99,99,0,0,0,0,0
0,9999,64,0,64,0,41,9999,0.100000,99,0,0.000000,0,4.000000,30.444314,11.226405,99,99,0,0,0,0,0
0,9999,65,0,65,0,40,9999,0.100000,99,0,0.000000,0,2.000000,26.351452,12.876023,99,99,0,0,0,0,0
0,9999,66,0,66,0,41,9999,0.100000,99,0,0.000000,0,4.000000,22.269067,9.720031,99,99,0,0,0,0,0
0,9999,67,0,67,0,96,9999,0.100000,99,0,63.600228,0,13.000000,20.300485,25.140155,99,99,1,0,0,0,0
0,9999,68,0,68,0,1,9999,0.100000,99,0,0.087860,0,4.000000,22.551494,10.807342,99,99,0,0,0,1,0
0,9999,69,0,69,0,40,9999,0.100000,99,0,0.000000,0,1.000000,27.889941,5.124066,99,99,0,0,0,0,0
0,9999,70,0,70,0,40,9999,0.100000,99,0,0.000000,0,1.000000,30.077102,7.808464,99,99,0,0,0,0,0
0,9999,71,0,71,0,40,9999,0.100000,99,0,0.000000,0,1.000000,26.604819,9.255631,99,99,0,0,0,0,0
0,9999,72,0,72,0,40,9999,0.100000,99,0,0.000000,0,2.000000,22.042010,13.790551,99,99,0,0,0,0,0
0,9999,73,0,73,0,42,9999,0.100000,99,0,0.000000,0,4.000000,17.851751,6.050855,99,99,0,0,0,0,0
0,9999,74,0,74,0,0,9999,0.100000,99,0,1.218626,0,0.000000,27.906703,1.262186,99,99,0,1,0,0,0
0,9999,75,0,75,0,40,9999,0.100000,99,0,0.000000,0,0.000000,24.569145,10.395524,99,99,0,0,0,0,0
0,9999,76,0,76,0,0,9999,0.100000,99,0,0.000988,0,0.000000,27.622996,0.769153,99,99,0,0,1,0,0
0,9999,77,0,77,0,41,9999,0.100000,99,0,0.000000,0,5.000000,24.252368,11.607662,99,99,0,0,0,0,0
0,9999,78,0,78,0,43,9999,0.100000,99,0,0.000000,0,5.000000,14.294182,14.405514,99,99,0,0,0,0,0
0,9999,79,0,79,0,40,9999,0.100000,99,0,0.000000,0,2.000000,27.495714,6.439626,99,99,0,0,0,0,0
0,9999,80,0,80,0,95,9999,0.100000,99,0,68.653911,0,15.000000,23.865424,22.724746,99,99,1,0,0,0,0
0,9999,81,0,81,0,41,9999,0.100000,99,0,0.000000,0,2.000000,16.365532,15.857765,99,99,0,0,0,0,0
0,9999,82,0,82,0,41,9999,0.100000,99,0,0.000000,0,3.000000,14.455334,10.822332,99,99,0,0,0,0,0
0,9999,83,0,83,0,40,9999,0.100000,99,0,0.000000,0,2.000000,24.034600,11.031484,99,99,0,0,0,0,0
0,9999,84,0,84,0,0,9999,0.100000,99,0,0.031713,0,0.000000,16.841053,3.012536,99,99,0,1,0,0,0
0,9999,85,0,85,0,91,9999,0.100000,99,0,32.430560,0,6.000000,29.723083,7.682165,99,99,1,0,0,0,0
0,9999,86,0,86,0,90,9999,0.100000,99,0,0.411838,0,0.000000,18.660831,1.179672,99,99,1,0,0,0,0
0,9999,87,0,87,0,42,9999,0.100000,99,0,0.000000,0,6.000000,25.404220,10.038483,99,99,0,0,0,0,0
0,9999,88,0,88,0,40,9999,0.100000,99,0,0.000000,0,0.000000,17.716217,3.617655,99,99,0,0,0,0,0
0,9999,89,0,89,0,41,9999,0.100000,99,0,0.000000,0,4.000000,32.563023,20.451417,99,99,0,0,0,0,0
0,9999,90,0,90,0,40,9999,0.100000,99,0,0.000000,0,2.000000,24.758049,7.468525,99,99,0,0,0,0,0
0,9999,91,0,91,0,0,9999,0.100000,99,0,0.000753,0,1.000000,25.084098,4.886804,99,99,0,0,0,1,0
0,9999,92,0,92,0,40,9999,0.100000,99,0,0.000000,0,1.000000,17.947956,1.709558,99,99,0,0,0,0,0
0,9999,93,0,93,0,41,9999,0.100000,99,0,0.000000,0,3.000000,25.843295,8.808790,99,99,0,0,0,0,0
0,9999,94,0,94,0,40,9999,0.100000,99,0,0.000000,0,1.000000,29.067249,4.494565,99,99,0,0,0,0,0
0,9999,95,0,95,0,92,9999,0.100000,99,0,15.409707,0,6.000000,26.287419,18.169025,99,99,1,0,0,0,0
0,9999,96,0,96,0,40,9999,0.100000,99,0,0.000000,0,0.000000,27.372680,0.831096,99,99,0,0,0,0,0
0,9999,97,0,97,0,40,9999,0.100000,99,0,0.000000,0,1.000000,15.366563,2.112210,99,99,0,0,0,0,0
0,9999,98,0,98,0,40,9999,0.100000,99,0,0.000000,0,2.000000,30.247469,8.852792,99,99,0,0,0,0,0
0,9999,99,0,99,0,0,9999,0.100000,99,0,0.009028,0,1.000000,19.765244,8.182876,99,99,0,0,1,0,0
1,19999,0,10000,0,0,40,9999,0.100000,99,0,0.000000,1,1.000000,24.198167,4.619287,99,99,0,0,0,0,0
1,19999,1,10000,80,0,40,9999,0.100000,99,0,0.000000,12,3.000000,29.253537,9.148801,99,99,0,0,0,0,0
1,19999,2,10000,2,0,41,9999,0.100000,99,0,0.000000,4,3.000000,25.253547,17.021922,99,99,0,0,0,0,0
1,19999,3,10000,1,0,41,9999,0.100000,99,0,0.000000,13,4.000000,24.919056,10.685109,99,99,0,0,0,0,0
1,19999,4,10000,2,0,0,9999,0.100000,99,0,0.149805,4,2.000000,21.384882,3.808592,99,99,0,0,1,0,0
1,19999,5,10000,1,0,40,9999,0.100000,99,0,0.000000,12,2.000000,27.054064,8.367661,99,99,0,0,0,0,0
1,19999,6,10000,85,0,42,9999,0.100000,99,0,0.000000,8,7.000000,26.370156,16.972133,99,99,0,0,0,0,0
1,19999,7,10000,2,0,2,9999,0.100000,99,0,41.188745,5,8.000000,25.791432,20.200285,99,99,0,1,0,0,0
1,19999,8,0,8,0,40,19999,0.100000,99,0,0.000000,1,0.000000,21.339228,0.579559,99,99,0,0,0,0,0
1,19999,9,10000,16,0,41,9999,0.100000,99,0,0.000000,8,4.000000,30.744224,22.339384,99,99,0,0,0,0,0
1,19999,10,10000,16,0,93,9999,0.100000,99,0,66.676049,8,8.000000,19.944016,24.377092,99,99,1,0,0,0,0
1,19999,11,10000,85,0,0,9999,0.100000,99,0,0.541746,13,0.000000,20.493625,0.807331,99,99,0,1,0,0,0
1,19999,12,10000,1,0,0,9999,0.100000,99,0,0.595941,12,0.000000,26.717131,0.697273,99,99,0,0,1,0,0
1,19999,13,10000,67,0,0,9999,0.100000,99,0,0.941692,8,0.000000,21.064401,0.559581,99,99,0,0,0,0,1
1,19999,14,10000,95,0,4,9999,0.100000,99,0,52.482055,5,9.000000,19.062469,18.327277,99,99,0,1,0,0,0
1,19999,15,10000,85,0,40,9999,0.100000,99,0,0.000000,8,1.000000,26.246687,14.375935,99,99,0,0,0,0,0
1,19999,16,10000,16,0,41,9999,0.100000,99,0,0.000000,6,5.000000,32.124625,20.001081,99,99,0,0,0,0,0
1,19999,17,10000,8,0,40,9999,0.100000,99,0,0.000000,1,0.000000,29.955984,1.024248,99,99,0,0,0,0,0
1,19999,18,10000,60,0,41,9999,0.100000,99,0,0.000000,12,4.000000,32.557548,14.604227,99,99,0,0,0,0,0
1,19999,19,10000,85,0,40,9999,0.100000,99,0,0.000000,12,0.000000,20.685174,0.683058,99,99,0,0,0,0,0
1,19999,20,10000,68,0,0,9999,0.100000,99,0,0.679004,13,1.000000,27.107210,1.710980,99,99,0,0,0,1,0
1,19999,21,10000,29,0,0,9999,0.100000,99,0,0.066196,12,0.000000,27.222967,0.099839,99,99,0,0,0,0,1
1,19999,22,10000,68,0,40,9999,0.100000,99,0,0.000000,12,1.000000,25.667581,4.773498,99,99,0,0,0,0,0
1,19999,23,10000,8,0,40,9999,0.100000,99,0,0.000000,1,1.000000,21.169443,23.630613,99,99,0,0,0,0,0
1,19999,24,10000,67,0,0,9999,0.100000,99,0,11.419254,6,2.000000,27.991477,11.631490,99,99,0,1,0,0,0
1,19999,25,10000,16,0,41,9999,0.100000,99,0,0.000000,8,5.000000,26.803061,23.704341,99,99,0,0,0,0,0
1,19999,26,10000,95,0,40,9999,0.100000,99,0,0.000000,6,3.000000,29.240788,20.827384,99,99,0,0,0,0,0
1,19999,27,0,27,0,40,19999,0.100000,99,0,0.000000,1,1.000000,27.393123,4.389735,99,99,0,0,0,0,0
1,19999,28,10000,87,0,40,9999,0.100000,99,0,0.000000,13,1.000000,20.734248,9.254224,99,99,0,0,0,0,0
1,19999,29,10000,95,0,2,9999,0.100000,99,0,41.176673,8,8.000000,25.577067,14.871644,99,99,0,1,0,0,0
1,19999,30,10000,87,0,41,9999,0.100000,99,0,0.000000,13,4.000000,27.974484,9.219674,99,99,0,0,0,0,0
1,19999,31,10000,2,0,40,9999,0.100000,99,0,0.000000,6,0.000000,21.935257,0.984153,99,99,0,0,0,0,0
1,19999,32,10000,60,0,0,9999,0.100000,99,0,0.497111,13,0.000000,13.457238,0.247720,99,99,0,0,0,0,1
1,19999,33,10000,7,0,41,9999,0.100000,99,0,0.000000,8,3.000000,27.614589,13.847552,99,99,0,0,0,0,0
1,19999,34,10000,67,0,40,9999,0.100000,99,0,0.000000,6,0.000000,20.849401,0.922652,99,99,0,0,0,0,0
1,19999,35,10000,67,0,0,9999,0.100000,99,0,0.007316,8,0.000000,26.760208,0.123605,99,99,0,0,1,0,0
1,19999,36,10000,87,0,40,9999,0.100000,99,0,0.000000,13,1.000000,18.784346,8.229586,99,99,0,0,0,0,0
1,19999,37,10000,37,0,40,9999,0.100000,99,0,0.000000,1,1.000000,28.549346,5.054277,99,99,0,0,0,0,0
1,19999,38,10000,67,0,40,9999,0.100000,99,0,0.000000,6,3.000000,33.083863,7.453142,99,99,0,0,0,0,0
1,19999,39,10000,1,0,90,9999,0.100000,99,0,13.574781,13,2.000000,34.298315,9.672526,99,99,1,0,0,0,0
1,19999,40,10000,85,0,41,9999,0.100000,99,0,0.000000,8,5.000000,30.424161,15.270631,99,99,0,0,0,0,0
1,19999,41,10000,35,0,41,9999,0.100000,99,0,0.000000,8,5.000000,32.880959,15.158931,99,99,0,0,0,0,0
1,19999,42,10000,12,0,40,9999,0.100000,99,0,0.000000,13,3.000000,28.992982,11.457240,99,99,0,0,0,0,0
1,19999,43,10000,68,0,40,9999,0.100000,99,0,0.000000,13,0.000000,22.845938,0.980461,99,99,0,0,0,0,0
1,19999,44,10000,37,0,40,9999,0.100000,99,0,0.000000,1,1.000000,32.584461,2.725577,99,99,0,0,0,0,0
1,19999,45,10000,87,0,40,9999,0.100000,99,0,0.000000,13,0.000000,26.848568,1.881350,99,99,0,0,0,0,0
1,19999,46,10000,95,0,40,9999,0.100000,99,0,0.000000,8,0.000000,27.588142,0.121248,99,99,0,0,0,0,0
1,19999,47,10000,95,0,91,9999,0.100000,99,0,36.444783,6,5.000000,24.363957,10.896501,99,99,1,0,0,0,0
1,19999,48,10000,29,0,40,9999,0.100000,99,0,0.000000,13,2.000000,33.865227,10.566986,99,99,0,0,0,0,0
1,19999,49,10000,7,0,40,9999,0.100000,99,0,0.000000,13,0.000000,26.165888,3.006803,99,99,0,0,0,0,0
1,19999,50,10000,37,0,40,9999,0.100000,99,0,0.000000,1,1.000000,23.296788,3.635766,99,99,0,0,0,0,0
1,19999,51,10000,95,0,41,9999,0.100000,99,0,0.000000,8,3.000000,26.272729,14.610709,99,99,0,0,0,0,0
1,19999,52,10000,60,0,0,9999,0.100000,99,0,0.004548,13,0.000000,25.324503,0.147309,99,99,0,0,0,1,0
1,19999,53,10000,1,0,90,9999,0.100000,99,0,0.923724,13,0.000000,23.077755,1.052641,99,99,1,0,0,0,0
1,19999,54,10000,60,0,95,9999,0.100000,99,0,63.476235,10,10.000000,16.746510,18.953552,99,99,1,0,0,0,0
1,19999,55,10000,67,0,42,9999,0.100000,99,0,0.000000,8,9.000000,31.986309,13.010404,99,99,0,0,0,0,0
1,19999,56,10000,35,0,41,9999,0.100000,99,0,0.000000,9,6.000000,29.223535,13.972945,99,99,0,0,0,0,0
1,19999,57,0,57,0,40,19999,0.100000,99,0,0.000000,1,1.000000,31.632959,5.469574,99,99,0,0,0,0,0
1,19999,58,10000,67,0,41,9999,0.100000,99,0,0.000000,6,3.000000,26.872728,11.865443,99,99,0,0,0,0,0
1,19999,59,10000,85,0,0,9999,0.100000,99,0,0.217962,13,1.000000,18.042259,1.955792,99,99,0,0,0,0,1
1,19999,60,10000,95,0,41,9999,0.100000,99,0,0.000000,9,3.000000,28.271280,5.079400,99,99,0,0,0,0,0
1,19999,61,10000,12,0,43,9999,0.100000,99,0,0.000000,13,8.000000,23.162693,16.169103,99,99,0,0,0,0,0
1,19999,62,10000,68,0,40,9999,0.100000,99,0,0.000000,13,1.000000,27.207386,7.237750,99,99,0,0,0,0,0
1,19999,63,10000,26,0,5,9999,0.100000,99,0,52.420340,6,10.000000,18.887000,17.312994,99,99,0,1,0,0,0
1,19999,64,10000,67,0,43,9999,0.100000,99,0,0.000000,9,10.000000,29.902165,18.575606,99,99,0,0,0,0,0
1,19999,65,10000,68,0,40,9999,0.100000,99,0,0.000000,13,0.000000,26.150573,1.074833,99,99,0,0,0,0,0
1,19999,66,10000,73,0,40,9999,0.100000,99,0,0.000000,13,1.000000,26.529287,6.204635,99,99,0,0,0,0,0
1,19999,67,10000,37,0,40,9999,0.100000,99,0,0.000000,2,1.000000,33.164150,4.439725,99,99,0,0,0,0,0
1,19999,68,10000,26,0,0,9999,0.100000,99,0,1.381101,10,0.000000,18.321161,1.164953,99,99,0,0,0,1,0
1,19999,69,10000,26,0,40,9999,0.100000,99,0,0.000000,8,2.000000,27.324880,7.723153,99,99,0,0,0,0,0
1,19999,70,10000,37,0,40,9999,0.100000,99,0,0.000000,2,1.000000,30.485103,8.208155,99,99,0,0,0,0,0
1,19999,71,10000,68,0,40,9999,0.100000,99,0,0.000000,13,0.000000,25.299363,0.182681,99,99,0,0,0,0,0
1,19999,72,10000,16,0,41,9999,0.100000,99,0,0.000000,6,4.000000,20.329458,16.056224,99,99,0,0,0,0,0
1,19999,73,10000,85,0,40,9999,0.100000,99,0,0.000000,13,1.000000,14.190420,6.437780,99,99,0,0,0,0,0
1,19999,74,10000,12,0,40,9999,0.100000,99,0,0.000000,13,2.000000,27.816017,3.058102,99,99,0,0,0,0,0
1,19999,75,10000,7,0,40,9999,0.100000,99,0,0.000000,6,0.000000,24.173085,4.960268,99,99,0,0,0,0,0
1,19999,76,10000,26,0,0,9999,0.100000,99,0,0.029373,7,1.000000,28.072320,3.883434,99,99,0,0,1,0,0
1,19999,77,10000,95,0,40,9999,0.100000,99,0,0.000000,10,0.000000,27.824883,0.220008,99,99,0,0,0,0,0
1,19999,78,10000,87,0,41,9999,0.100000,99,0,0.000000,13,3.000000,17.585793,8.003467,99,99,0,0,0,0,0
1,19999,79,10000,37,0,40,9999,0.100000,99,0,0.000000,2,0.000000,30.094844,1.010697,99,99,0,0,0,0,0
1,19999,80,10000,95,0,40,9999,0.100000,99,0,0.000000,8,3.000000,33.957433,15.342148,99,99,0,0,0,0,0
1,19999,81,10000,26,0,40,9999,0.100000,99,0,0.000000,13,0.000000,16.445273,17.816390,99,99,0,0,0,0,0
1,19999,82,10000,76,0,42,9999,0.100000,99,0,0.000000,7,4.000000,17.931000,9.529276,99,99,0,0,0,0,0
1,19999,83,10000,67,0,40,9999,0.100000,99,0,0.000000,2,1.000000,26.590475,4.892001,99,99,0,0,0,0,0
1,19999,84,10000,60,0,0,9999,0.100000,99,0,0.140579,10,0.000000,16.739131,0.231620,99,99,0,1,0,0,0
1,19999,85,10000,67,0,90,9999,0.100000,99,0,3.387368,8,0.000000,31.428696,1.404821,99,99,1,0,0,0,0
1,19999,86,10000,87,0,91,9999,0.100000,99,0,17.012149,13,3.000000,19.094740,4.627174,99,99,1,0,0,0,0
1,19999,87,10000,68,0,42,9999,0.100000,99,0,0.000000,11,4.000000,18.834946,11.111963,99,99,0,0,0,0,0
1,19999,88,10000,67,0,40,9999,0.100000,99,0,0.000000,8,0.000000,18.119748,19.046676,99,99,0,0,0,0,0
1,19999,89,10000,67,0,41,9999,0.100000,99,0,0.000000,13,6.000000,30.549616,12.434663,99,99,0,0,0,0,0
1,19999,90,10000,16,0,93,9999,0.100000,99,0,57.190267,8,11.000000,26.422481,25.077902,99,99,1,0,0,0,0
1,19999,91,10000,29,0,0,9999,0.100000,99,0,0.001396,11,0.000000,26.331595,0.102778,99,99,0,0,0,1,0
1,19999,92,10000,35,0,40,9999,0.100000,99,0,0.000000,8,1.000000,18.474628,1.795775,99,99,0,0,0,0,0
1,19999,93,10000,95,0,0,9999,0.100000,99,0,0.029155,13,2.000000,28.875580,5.804638,99,99,0,0,1,0,0
1,19999,94,10000,76,0,40,9999,0.100000,99,0,0.000000,8,1.000000,29.630439,5.470237,99,99,0,0,0,0,0
1,19999,95,10000,37,0,41,9999,0.100000,99,0,0.000000,3,4.000000,26.685905,13.883613,99,99,0,0,0,0,0
1,19999,96,10000,60,0,40,9999,0.100000,99,0,0.000000,13,0.000000,27.936264,3.696111,99,99,0,0,0,0,0
1,19999,97,10000,67,0,40,9999,0.100000,99,0,0.000000,8,0.000000,14.304037,2.817713,99,99,0,0,0,0,0
1,19999,98,10000,7,0,40,9999,0.100000,99,0,0.000000,13,1.000000,32.201097,9.772592,99,99,0,0,0,0,0
1,19999,99,10000,80,0,40,9999,0.100000,99,0,0.000000,13,0.000000,21.469856,0.832906,99,99,0,0,0,0,0
2,29999,0,20000,1,0,91,9999,0.100000,99,0,16.425865,13,3.000000,25.247822,5.972933,99,99,1,0,0,0,0
2,29999,1,20000,73,0,40,9999,0.100000,99,0,0.000000,13,2.000000,29.469568,9.333459,99,99,0,0,0,0,0
2,29999,2,20000,87,0,40,9999,0.100000,99,0,0.000000,13,2.000000,25.808156,7.332836,99,99,0,0,0,0,0
2,29999,3,20000,12,0,40,9999,0.100000,99,0,0.000000,13,1.000000,26.759733,7.796721,99,99,0,0,0,0,0
2,29999,4,20000,73,0,0,9999,0.100000,99,0,0.253776,13,0.000000,22.317492,0.248907,99,99,0,0,1,0,0
2,29999,5,20000,26,0,40,9999,0.100000,99,0,0.000000,14,2.000000,26.308556,10.555702,99,99,0,0,0,0,0
2,29999,6,20000,7,0,40,9999,0.100000,99,0,0.000000,13,2.000000,27.350395,15.121339,99,99,0,0,0,0,0
2,29999,7,20000,60,0,41,9999,0.100000,99,0,0.000000,13,5.000000,30.769349,20.710596,99,99,0,0,0,0,0
2,29999,8,20000,7,10000,40,9999,0.100000,99,0,0.000000,13,0.000000,21.579676,0.409457,99,99,0,0,0,0,0
2,29999,9,20000,26,0,40,9999,0.100000,99,0,0.000000,14,2.000000,34.949634,5.867474,99,99,0,0,0,0,0
2,29999,10,20000,85,0,41,9999,0.100000,99,0,0.000000,13,4.000000,28.380322,19.054279,99,99,0,0,0,0,0
2,29999,11,20000,1,0,40,9999,0.100000,99,0,0.000000,13,0.000000,20.496614,0.957902,99,99,0,0,0,0,0
2,29999,12,20000,80,0,0,9999,0.100000,99,0,1.578893,13,0.000000,26.611171,0.969633,99,99,0,0,1,0,0
2,29999,13,20000,87,0,0,9999,0.100000,99,0,0.245133,13,0.000000,21.291796,1.094011,99,99,0,0,0,0,1
2,29999,14,20000,7,0,90,9999,0.100000,99,0,8.781949,14,1.000000,28.194677,8.249843,99,99,1,0,0,0,0
2,29999,15,20000,80,0,1,9999,0.100000,99,0,0.002670,13,3.000000,27.615186,13.078946,99,99,0,0,0,1,0
2,29999,16,20000,26,0,40,9999,0.100000,99,0,0.000000,13,3.000000,28.998053,9.801439,99,99,0,0,0,0,0
2,29999,17,20000,29,0,40,9999,0.100000,99,0,0.000000,13,0.000000,30.065568,1.002098,99,99,0,0,0,0,0
2,29999,18,20000,12,0,40,9999,0.100000,99,0,0.000000,13,0.000000,28.425225,5.133004,99,99,0,0,0,0,0
2,29999,19,20000,55,10000,0,9999,0.100000,99,0,0.166869,14,0.000000,20.683675,0.921926,99,99,0,1,0,0,0
2,29999,20,20000,80,0,40,9999,0.100000,99,0,0.000000,13,0.000000,28.051386,1.535762,99,99,0,0,0,0,0
2,29999,21,20000,67,0,0,9999,0.100000,99,0,0.054071,13,0.000000,27.218015,0.086990,99,99,0,0,0,0,1
2,29999,22,20000,60,0,91,9999,0.100000,99,0,34.027655,13,4.000000,26.311011,15.922420,99,99,1,0,0,0,0
2,29999,23,20000,87,0,40,9999,0.100000,99,0,0.000000,13,0.000000,21.619289,24.015474,99,99,0,0,0,0,0
2,29999,24,20000,87,0,0,9999,0.100000,99,0,3.339307,14,0.000000,28.162268,1.163764,99,99,0,1,0,0,0
2,29999,25,20000,7,0,40,9999,0.100000,99,0,0.000000,13,1.000000,22.865803,6.372213,99,99,0,0,0,0,0
2,29999,26,20000,95,0,40,9999,0.100000,99,0,0.000000,13,1.000000,27.209245,4.895336,99,99,0,0,0,0,0
2,29999,27,20000,10,10000,40,9999,0.100000,99,0,0.000000,13,0.000000,27.898677,2.271326,99,99,0,0,0,0,0
2,29999,28,20000,1,0,41,9999,0.100000,99,0,0.000000,13,3.000000,21.717806,6.015919,99,99,0,0,0,0,0
2,29999,29,20000,80,0,90,9999,0.100000,99,0,19.270782,13,3.000000,29.888426,23.858289,99,99,1,0,0,0,0
2,29999,30,20000,7,0,40,9999,0.100000,99,0,0.000000,13,2.000000,31.485819,6.732593,99,99,0,0,0,0,0
2,29999,31,20000,80,0,40,9999,0.100000,99,0,0.000000,13,0.000000,21.185038,0.934604,99,99,0,0,0,0,0
2,29999,32,20000,7,10000,0,9999,0.100000,99,0,1.052744,13,0.000000,13.310480,0.288433,99,99,0,0,0,0,1
2,29999,33,20000,1,0,0,9999,0.100000,99,0,1.194313,13,0.000000,27.831794,2.340208,99,99,0,0,0,1,0
2,29999,34,20000,10,10000,41,9999,0.100000,99,0,0.000000,13,3.000000,20.166187,4.975865,99,99,0,0,0,0,0
2,29999,35,20000,60,0,0,9999,0.100000,99,0,0.005135,13,0.000000,26.765036,0.120132,99,99,0,0,1,0,0
2,29999,36,20000,7,10000,0,9999,0.100000,99,0,0.573237,13,0.000000,17.706452,1.112168,99,99,0,0,0,1,0
2,29999,37,20000,60,0,0,9999,0.100000,99,0,0.007345,15,3.000000,29.350926,6.328088,99,99,0,0,1,0,0
2,29999,38,20000,1,0,40,9999,0.100000,99,0,0.000000,13,1.000000,34.960233,2.192205,99,99,0,0,0,0,0
2,29999,39,20000,80,0,41,9999,0.100000,99,0,0.000000,13,4.000000,34.779724,10.810304,99,99,0,0,0,0,0
2,29999,40,20000,26,0,40,9999,0.100000,99,0,0.000000,13,3.000000,33.781572,4.824816,99,99,0,0,0,0,0
2,29999,41,20000,29,10000,40,9999,0.100000,99,0,0.000000,13,2.000000,32.526076,10.893966,99,99,0,0,0,0,0
2,29999,42,20000,7,0,40,9999,0.100000,99,0,0.000000,13,1.000000,32.028811,10.377158,99,99,0,0,0,0,0
2,29999,43,20000,87,0,40,9999,0.100000,99,0,0.000000,13,0.000000,22.095940,0.999121,99,99,0,0,0,0,0
2,29999,44,20000,80,0,41,9999,0.100000,99,0,0.000000,13,5.000000,32.555174,11.793431,99,99,0,0,0,0,0
2,29999,45,20000,7,10000,40,9999,0.100000,99,0,0.000000,13,0.000000,26.351448,4.969803,99,99,0,0,0,0,0
2,29999,46,20000,29,10000,40,9999,0.100000,99,0,0.000000,13,0.000000,27.589408,0.110450,99,99,0,0,0,0,0
2,29999,47,20000,10,10000,44,9999,0.100000,99,0,0.000000,13,9.000000,19.867295,9.793776,99,99,0,0,0,0,0
2,29999,48,20000,29,0,40,9999,0.100000,99,0,0.000000,13,1.000000,35.406236,7.270294,99,99,0,0,0,0,0
2,29999,49,20000,10,10000,40,9999,0.100000,99,0,0.000000,13,0.000000,25.289740,0.994134,99,99,0,0,0,0,0
2,29999,50,20000,7,0,40,9999,0.100000,99,0,0.000000,13,1.000000,22.695964,9.162819,99,99,0,0,0,0,0
2,29999,51,20000,7,0,40,9999,0.100000,99,0,0.000000,13,3.000000,29.576693,8.431555,99,99,0,0,0,0,0
2,29999,52,20000,87,0,0,9999,0.100000,99,0,0.011962,13,0.000000,25.323252,0.147889,99,99,0,0,0,1,0
2,29999,53,20000,73,0,90,9999,0.100000,99,0,0.007735,13,0.000000,23.275728,0.626545,99,99,1,0,0,0,0
2,29999,54,20000,67,0,41,9999,0.100000,99,0,0.000000,13,3.000000,27.070254,12.239812,99,99,0,0,0,0,0
2,29999,55,20000,29,0,40,9999,0.100000,99,0,0.000000,13,0.000000,29.607005,1.588902,99,99,0,0,0,0,0
2,29999,56,20000,7,0,40,9999,0.100000,99,0,0.000000,13,1.000000,30.392124,4.068742,99,99,0,0,0,0,0
2,29999,57,20000,12,0,41,9999,0.100000,99,0,0.000000,13,4.000000,32.392225,9.233586,99,99,0,0,0,0,0
2,29999,58,20000,7,0,91,9999,0.100000,99,0,19.217249,13,4.000000,29.087537,14.999915,99,99,1,0,0,0,0
2,29999,59,20000,60,0,0,9999,0.100000,99,0,0.433402,13,0.000000,18.785568,0.210333,99,99,0,0,0,0,1
2,29999,60,20000,85,0,41,9999,0.100000,99,0,0.000000,13,3.000000,28.145600,16.498572,99,99,0,0,0,0,0
2,29999,61,20000,55,10000,44,9999,0.100000,99,0,0.000000,15,7.000000,15.371715,11.601656,99,99,0,0,0,0,0
2,29999,62,20000,7,10000,40,9999,0.100000,99,0,0.000000,13,1.000000,26.616066,14.764629,99,99,0,0,0,0,0
2,29999,63,20000,55,10000,40,9999,0.100000,99,0,0.000000,14,2.000000,28.717484,13.662572,99,99,0,0,0,0,0
2,29999,64,20000,24,10000,40,9999,0.100000,99,0,0.000000,15,1.000000,35.460576,7.733061,99,99,0,0,0,0,0
2,29999,65,20000,10,10000,40,9999,0.100000,99,0,0.000000,13,0.000000,26.046890,1.672947,99,99,0,0,0,0,0
2,29999,66,20000,80,0,41,9999,0.100000,99,0,0.000000,13,3.000000,27.379288,8.652683,99,99,0,0,0,0,0
2,29999,67,20000,85,0,40,9999,0.100000,99,0,0.000000,13,2.000000,32.015782,17.364148,99,99,0,0,0,0,0
2,29999,68,20000,67,0,40,9999,0.100000,99,0,0.000000,13,0.000000,17.557989,1.038739,99,99,0,0,0,0,0
2,29999,69,20000,10,10000,0,9999,0.100000,99,0,7.689244,13,2.000000,28.622444,9.917198,99,99,0,0,1,0,0
2,29999,70,20000,10,10000,40,9999,0.100000,99,0,0.000000,13,3.000000,29.867115,12.365041,99,99,0,0,0,0,0
2,29999,71,20000,29,0,40,9999,0.100000,99,0,0.000000,13,0.000000,25.297592,0.175494,99,99,0,0,0,0,0
2,29999,72,20000,87,0,40,9999,0.100000,99,0,0.000000,15,1.000000,19.648915,21.927236,99,99,0,0,0,0,0
2,29999,73,20000,73,0,40,9999,0.100000,99,0,0.000000,13,0.000000,14.116946,2.234829,99,99,0,0,0,0,0
2,29999,74,20000,67,0,40,9999,0.100000,99,0,0.000000,14,0.000000,27.866731,0.902240,99,99,0,0,0,0,0
2,29999,75,20000,67,0,40,9999,0.100000,99,0,0.000000,13,1.000000,23.883226,11.472560,99,99,0,0,0,0,0
2,29999,76,20000,60,0,0,9999,0.100000,99,0,7.687380,13,2.000000,28.404933,9.570268,99,99,0,0,1,0,0
2,29999,77,20000,1,0,40,9999,0.100000,99,0,0.000000,15,0.000000,27.710932,0.090992,99,99,0,0,0,0,0
2,29999,78,20000,7,0,40,9999,0.100000,99,0,0.000000,14,0.000000,14.028192,0.753202,99,99,0,0,0,0,0
2,29999,79,20000,85,0,40,9999,0.100000,99,0,0.000000,13,0.000000,30.240129,1.029351,99,99,0,0,0,0,0
2,29999,80,20000,80,0,41,9999,0.100000,99,0,0.000000,13,4.000000,35.370340,9.129871,99,99,0,0,0,0,0
2,29999,81,20000,7,10000,40,9999,0.100000,99,0,0.000000,13,0.000000,16.490826,16.078700,99,99,0,0,0,0,0
2,29999,82,20000,1,0,41,9999,0.100000,99,0,0.000000,13,3.000000,20.233074,8.205681,99,99,0,0,0,0,0
2,29999,83,20000,67,0,40,9999,0.100000,99,0,0.000000,14,0.000000,27.448178,11.676313,99,99,0,0,0,0,0
2,29999,84,20000,80,0,0,9999,0.100000,99,0,0.335994,14,0.000000,16.789019,0.206912,99,99,0,1,0,0,0
2,29999,85,20000,1,0,90,9999,0.100000,99,0,1.696196,13,0.000000,31.637490,2.640957,99,99,1,0,0,0,0
2,29999,86,20000,87,0,94,9999,0.100000,99,0,52.439738,13,10.000000,21.595663,17.209703,99,99,1,0,0,0,0
2,29999,87,20000,26,0,40,9999,0.100000,99,0,0.000000,13,2.000000,23.028164,4.836970,99,99,0,0,0,0,0
2,29999,88,20000,87,0,40,9999,0.100000,99,0,0.000000,15,0.000000,17.944917,6.932699,99,99,0,0,0,0,0
2,29999,89,20000,7,0,41,9999,0.100000,99,0,0.000000,15,4.000000,29.353170,5.257422,99,99,0,0,0,0,0
2,29999,90,20000,80,0,40,9999,0.100000,99,0,0.000000,13,3.000000,34.454997,5.830104,99,99,0,0,0,0,0
2,29999,91,20000,29,10000,40,9999,0.100000,99,0,0.000000,13,0.000000,26.331608,0.117509,99,99,0,0,0,0,0
2,29999,92,20000,85,0,40,9999,0.100000,99,0,0.000000,13,0.000000,17.082454,0.566813,99,99,0,0,0,0,0
2,29999,93,20000,10,10000,40,9999,0.100000,99,0,0.000000,13,0.000000,30.572373,0.126287,99,99,0,0,0,0,0
2,29999,94,20000,26,0,40,9999,0.100000,99,0,0.000000,13,2.000000,28.274794,3.953674,99,99,0,0,0,0,0
2,29999,95,20000,87,0,43,9999,0.100000,99,0,0.000000,13,9.000000,23.327897,10.507914,99,99,0,0,0,0,0
2,29999,96,20000,60,0,0,9999,0.100000,99,0,7.687542,15,2.000000,28.161759,9.687246,99,99,0,0,1,0,0
2,29999,97,20000,29,0,40,9999,0.100000,99,0,0.000000,15,0.000000,14.045171,0.724165,99,99,0,0,0,0,0
2,29999,98,20000,26,0,40,9999,0.100000,99,0,0.000000,13,1.000000,30.814366,7.763520,99,99,0,0,0,0,0
2,29999,99,20000,26,0,40,9999,0.100000,99,0,0.000000,13,0.000000,21.813744,0.421999,99,99,0,0,0,0,0
3,39999,0,30000,55,10000,91,9999,0.100000,99,0,20.425459,15,4.000000,28.120503,12.600529,99,99,1,0,0,0,0
3,39999,1,30000,85,0,40,9999,0.100000,99,0,0.000000,15,0.000000,28.402822,4.198528,99,99,0,0,0,0,0
3,39999,2,30000,80,0,41,9999,0.100000,99,0,0.000000,15,3.000000,25.634206,7.050825,99,99,0,0,0,0,0
3,39999,3,30000,10,10000,40,9999,0.100000,99,0,0.000000,15,1.000000,26.320845,5.582320,99,99,0,0,0,0,0
3,39999,4,30000,80,0,0,9999,0.100000,99,0,11.930079,15,2.000000,22.368788,2.794211,99,99,0,0,1,0,0
3,39999,5,30000,61,10000,40,9999,0.100000,99,0,0.000000,16,0.000000,26.026469,2.017784,99,99,0,0,0,0,0
3,39999,6,30000,80,0,40,9999,0.100000,99,0,0.000000,16,1.000000,28.161635,18.347612,99,99,0,0,0,0,0
3,39999,7,30000,60,0,40,9999,0.100000,99,0,0.000000,15,1.000000,29.745433,11.405052,99,99,0,0,0,0,0
3,39999,8,30000,7,0,0,9999,0.100000,99,0,0.148197,15,0.000000,21.671398,3.093897,99,99,0,0,0,0,1
3,39999,9,30000,10,10000,40,9999,0.100000,99,0,0.000000,15,1.000000,33.027184,11.298654,99,99,0,0,0,0,0
3,39999,10,30000,55,10000,91,9999,0.100000,99,0,25.270039,16,3.000000,25.775467,14.675436,99,99,1,0,0,0,0
3,39999,11,30000,7,0,0,9999,0.100000,99,0,0.754451,16,0.000000,20.842578,0.743217,99,99,0,1,0,0,0
3,39999,12,30000,55,10000,0,9999,0.100000,99,0,1.586432,16,0.000000,26.611111,0.611349,99,99,0,0,1,0,0
3,39999,13,30000,10,10000,40,9999,0.100000,99,0,0.000000,15,0.000000,21.374768,2.924829,99,99,0,0,0,0,0
3,39999,14,30000,1,0,41,9999,0.100000,99,0,0.000000,16,4.000000,28.137311,13.646818,99,99,0,0,0,0,0
3,39999,15,30000,10,10000,0,9999,0.100000,99,0,1.323759,15,0.000000,26.930309,0.432236,99,99,0,0,0,1,0
3,39999,16,30000,61,20000,41,9999,0.100000,99,0,0.000000,15,4.000000,29.036594,9.882298,99,99,0,0,0,0,0
3,39999,17,30000,80,0,40,9999,0.100000,99,0,0.000000,15,0.000000,30.201863,1.034879,99,99,0,0,0,0,0
3,39999,18,30000,60,0,40,9999,0.100000,99,0,0.000000,16,0.000000,28.842318,11.413522,99,99,0,0,0,0,0
3,39999,19,30000,47,20000,40,9999,0.100000,99,0,0.000000,16,0.000000,21.017034,0.843743,99,99,0,0,0,0,0
3,39999,20,30000,7,0,0,9999,0.100000,99,0,1.596852,16,0.000000,28.913244,0.756065,99,99,0,0,0,1,0
3,39999,21,30000,80,0,0,9999,0.100000,99,0,0.010622,15,0.000000,27.211018,0.079523,99,99,0,0,0,0,1
3,39999,22,30000,26,0,40,9999,0.100000,99,0,0.000000,16,1.000000,29.925020,6.050345,99,99,0,0,0,0,0
3,39999,23,30000,55,10000,40,9999,0.100000,99,0,0.000000,15,2.000000,21.852935,6.620716,99,99,0,0,0,0,0
3,39999,24,30000,95,20000,1,9999,0.100000,99,0,19.304109,16,3.000000,28.480711,4.359568,99,99,0,1,0,0,0
3,39999,25,30000,24,10000,42,9999,0.100000,99,0,0.000000,16,6.000000,21.859190,16.571709,99,99,0,0,0,0,0
3,39999,26,30000,7,10000,40,9999,0.100000,99,0,0.000000,15,0.000000,28.749913,2.243533,99,99,0,0,0,0,0
3,39999,27,30000,10,10000,40,9999,0.100000,99,0,0.000000,16,0.000000,28.884853,2.101874,99,99,0,0,0,0,0
3,39999,28,30000,67,0,42,9999,0.100000,99,0,0.000000,16,5.000000,19.718517,14.354226,99,99,0,0,0,0,0
3,39999,29,30000,7,10000,40,9999,0.100000,99,0,0.000000,16,1.000000,27.609730,8.476401,99,99,0,0,0,0,0
3,39999,30,30000,95,20000,41,9999,0.100000,99,0,0.000000,16,5.000000,29.824922,11.533156,99,99,0,0,0,0,0
3,39999,31,30000,85,0,40,9999,0.100000,99,0,0.000000,15,0.000000,20.504519,0.873429,99,99,0,0,0,0,0
3,39999,32,30000,85,0,42,9999,0.100000,99,0,0.000000,15,4.000000,13.173855,12.879086,99,99,0,0,0,0,0
3,39999,33,30000,80,0,40,9999,0.100000,99,0,0.000000,16,0.000000,28.569126,1.101500,99,99,0,0,0,0,0
3,39999,34,30000,7,0,42,9999,0.100000,99,0,0.000000,16,5.000000,17.224102,8.600079,99,99,0,0,0,0,0
3,39999,35,30000,44,20000,0,9999,0.100000,99,0,0.126462,16,0.000000,26.769084,0.295307,99,99,0,0,1,0,0
3,39999,36,30000,61,10000,40,9999,0.100000,99,0,0.000000,15,1.000000,17.352825,3.734263,99,99,0,0,0,0,0
3,39999,37,30000,26,0,0,9999,0.100000,99,0,1.986755,16,0.000000,30.048712,0.762573,99,99,0,0,1,0,0
3,39999,38,30000,1,0,40,9999,0.100000,99,0,0.000000,15,0.000000,36.079756,0.220301,99,99,0,0,0,0,0
3,39999,39,30000,55,10000,40,9999,0.100000,99,0,0.000000,16,1.000000,30.320834,7.082690,99,99,0,0,0,0,0
3,39999,40,30000,7,10000,40,9999,0.100000,99,0,0.000000,15,0.000000,32.198492,0.137581,99,99,0,0,0,0,0
3,39999,41,30000,24,10000,40,9999,0.100000,99,0,0.000000,15,2.000000,33.623263,10.057440,99,99,0,0,0,0,0
3,39999,42,30000,7,10000,40,9999,0.100000,99,0,0.000000,16,1.000000,30.646628,15.372054,99,99,0,0,0,0,0
3,39999,43,30000,1,0,40,9999,0.100000,99,0,0.000000,16,0.000000,21.348326,0.963694,99,99,0,0,0,0,0
3,39999,44,30000,14,10000,40,9999,0.100000,99,0,0.000000,15,0.000000,28.524481,4.626086,99,99,0,0,0,0,0
3,39999,45,30000,95,20000,40,9999,0.100000,99,0,0.000000,16,0.000000,26.459361,3.660229,99,99,0,0,0,0,0
3,39999,46,30000,44,20000,40,9999,0.100000,99,0,0.000000,15,0.000000,27.592550,0.135480,99,99,0,0,0,0,0
3,39999,47,30000,7,0,40,9999,0.100000,99,0,0.000000,16,0.000000,21.398217,0.238887,99,99,0,0,0,0,0
3,39999,48,30000,7,0,40,9999,0.100000,99,0,0.000000,16,0.000000,36.020520,1.640432,99,99,0,0,0,0,0
3,39999,49,30000,7,0,40,9999,0.100000,99,0,0.000000,16,0.000000,24.533582,1.026706,99,99,0,0,0,0,0
3,39999,50,30000,47,20000,91,9999,0.100000,99,0,0.995519,16,4.000000,22.307012,6.011309,99,99,1,0,0,0,0
3,39999,51,30000,87,0,41,9999,0.100000,99,0,0.000000,15,6.000000,31.223110,14.102459,99,99,0,0,0,0,0
3,39999,52,30000,95,20000,0,9999,0.100000,99,0,0.003795,16,0.000000,25.321083,0.134391,99,99,0,0,0,1,0
3,39999,53,30000,26,0,90,9999,0.100000,99,0,0.111696,16,0.000000,23.294687,0.616812,99,99,1,0,0,0,0
3,39999,54,30000,1,0,41,9999,0.100000,99,0,0.000000,16,5.000000,27.930127,9.851691,99,99,0,0,0,0,0
3,39999,55,30000,7,10000,40,9999,0.100000,99,0,0.000000,15,0.000000,29.889705,1.027915,99,99,0,0,0,0,0
3,39999,56,30000,67,0,40,9999,0.100000,99,0,0.000000,15,0.000000,31.197576,1.014549,99,99,0,0,0,0,0
3,39999,57,30000,85,0,40,9999,0.100000,99,0,0.000000,15,3.000000,33.406331,12.925902,99,99,0,0,0,0,0
3,39999,58,30000,7,10000,40,9999,0.100000,99,0,0.000000,16,3.000000,30.535564,15.846408,99,99,0,0,0,0,0
3,39999,59,30000,22,20000,0,9999,0.100000,99,0,0.000613,16,0.000000,18.781174,0.125086,99,99,0,0,0,0,1
3,39999,60,30000,80,0,40,9999,0.100000,99,0,0.000000,16,2.000000,26.295737,9.153186,99,99,0,0,0,0,0
3,39999,61,30000,61,10000,40,9999,0.100000,99,0,0.000000,15,0.000000,22.013287,0.951722,99,99,0,0,0,0,0
3,39999,62,30000,47,20000,40,9999,0.100000,99,0,0.000000,16,2.000000,27.881408,14.247135,99,99,0,0,0,0,0
3,39999,63,30000,1,0,41,9999,0.100000,99,0,0.000000,16,3.000000,28.120573,8.374249,99,99,0,0,0,0,0
3,39999,64,30000,14,10000,40,9999,0.100000,99,0,0.000000,15,0.000000,36.155837,3.433601,99,99,0,0,0,0,0
3,39999,65,30000,10,10000,41,9999,0.100000,99,0,0.000000,15,4.000000,26.087912,18.591705,99,99,0,0,0,0,0
3,39999,66,30000,47,20000,41,9999,0.100000,99,0,0.000000,16,5.000000,26.095530,15.461071,99,99,0,0,0,0,0
3,39999,67,30000,67,0,40,9999,0.100000,99,0,0.000000,15,2.000000,30.019017,11.481186,99,99,0,0,0,0,0
3,39999,68,30000,7,0,0,9999,0.100000,99,0,1.301423,16,0.000000,17.171653,0.234551,99,99,0,0,0,1,0
3,39999,69,30000,24,10000,41,9999,0.100000,99,0,0.000000,16,6.000000,28.810979,15.197480,99,99,0,0,0,0,0
3,39999,70,30000,55,10000,41,9999,0.100000,99,0,0.000000,16,5.000000,33.316477,8.731984,99,99,0,0,0,0,0
3,39999,71,30000,26,0,40,9999,0.100000,99,0,0.000000,16,0.000000,25.295776,0.158751,99,99,0,0,0,0,0
3,39999,72,30000,80,0,40,9999,0.100000,99,0,0.000000,16,0.000000,19.231715,0.080588,99,99,0,0,0,0,0
3,39999,73,30000,47,20000,40,9999,0.100000,99,0,0.000000,16,0.000000,13.873171,22.059723,99,99,0,0,0,0,0
3,39999,74,30000,26,0,41,9999,0.100000,99,0,0.000000,15,3.000000,28.254024,4.949189,99,99,0,0,0,0,0
3,39999,75,30000,60,0,40,9999,0.100000,99,0,0.000000,15,0.000000,23.676575,10.521369,99,99,0,0,0,0,0
3,39999,76,30000,61,20000,40,9999,0.135000,99,0,0.000000,15,3.000000,29.351855,14.008877,99,99,0,0,0,0,0
3,39999,77,30000,10,10000,40,9999,0.100000,99,0,0.000000,16,0.000000,27.717193,0.074809,99,99,0,0,0,0,0
3,39999,78,30000,14,10000,0,9999,0.100000,99,0,0.022436,16,0.000000,13.675357,0.336086,99,99,0,0,0,0,1
3,39999,79,30000,26,0,40,9999,0.100000,99,0,0.000000,15,0.000000,30.414085,1.035712,99,99,0,0,0,0,0
3,39999,80,30000,7,10000,41,9999,0.100000,99,0,0.000000,16,4.000000,31.376720,17.567166,99,99,0,0,0,0,0
3,39999,81,30000,60,0,40,9999,0.100000,99,0,0.000000,15,0.000000,16.460362,17.359641,99,99,0,0,0,0,0
3,39999,82,30000,14,10000,42,9999,0.100000,99,0,0.000000,16,5.000000,18.903425,13.943664,99,99,0,0,0,0,0
3,39999,83,30000,10,10000,40,9999,0.100000,99,0,0.000000,16,1.000000,27.826973,20.410379,99,99,0,0,0,0,0
3,39999,84,30000,1,0,0,9999,0.100000,99,0,0.359388,15,0.000000,16.853181,0.188016,99,99,0,1,0,0,0
3,39999,85,30000,44,20000,90,9999,0.100000,99,0,18.520585,15,3.000000,31.736153,8.821096,99,99,1,0,0,0,0
3,39999,86,30000,61,10000,42,9999,0.100000,99,0,0.000000,15,6.000000,28.185920,10.430070,99,99,0,0,0,0,0
3,39999,87,30000,24,10000,41,9999,0.100000,99,0,0.000000,16,3.000000,25.222488,13.599568,99,99,0,0,0,0,0
3,39999,88,30000,60,0,40,9999,0.100000,99,0,0.000000,16,0.000000,17.503350,1.783302,99,99,0,0,0,0,0
3,39999,89,30000,47,20000,40,9999,0.100000,99,0,0.000000,16,0.000000,25.370332,0.065908,99,99,0,0,0,0,0
3,39999,90,30000,61,20000,41,9999,0.100000,99,0,0.000000,15,5.000000,30.945709,12.731980,99,99,0,0,0,0,0
3,39999,91,30000,60,0,40,9999,0.100000,99,0,0.000000,16,0.000000,26.330729,0.259281,99,99,0,0,0,0,0
3,39999,92,30000,61,10000,40,9999,0.100000,99,0,0.000000,16,0.000000,16.730803,0.387934,99,99,0,0,0,0,0
3,39999,93,30000,1,0,40,9999,0.100000,99,0,0.000000,15,0.000000,30.572126,0.494646,99,99,0,0,0,0,0
3,39999,94,30000,7,0,40,9999,0.100000,99,0,0.000000,16,2.000000,28.986087,5.750979,99,99,0,0,0,0,0
3,39999,95,30000,7,0,40,9999,0.100000,99,0,0.000000,16,0.000000,14.331189,2.339626,99,99,0,0,0,0,0
3,39999,96,30000,24,10000,40,9999,0.100000,99,0,0.000000,16,2.000000,29.546938,5.537128,99,99,0,0,0,0,0
3,39999,97,30000,44,20000,40,9999,0.100000,99,0,0.000000,16,0.000000,13.810053,1.065638,99,99,0,0,0,0,0
3,39999,98,30000,1,0,40,9999,0.100000,99,0,0.000000,16,1.000000,30.092114,11.755141,99,99,0,0,0,0,0
3,39999,99,30000,24,10000,40,9999,0.100000,99,0,0.000000,15,2.000000,21.920555,3.109302,99,99,0,0,0,0,0
4,49999,0,40000,24,10000,0,9999,0.100000,99,0,1.437141,16,1.000000,32.100053,3.268660,99,99,0,1,0,0,0
4,49999,1,40000,24,10000,0,9999,0.100000,99,0,1.244477,16,1.000000,29.230191,2.897355,99,99,0,0,0,1,0
4,49999,2,40000,67,0,41,9999,0.100000,99,0,0.000000,16,4.000000,26.200143,12.573424,99,99,0,0,0,0,0
4,49999,3,40000,0,30000,40,9999,0.100000,99,0,0.000000,16,2.000000,25.668944,9.738905,99,99,0,0,0,0,0
4,49999,4,40000,26,0,0,9999,0.100000,99,0,3.952539,16,1.000000,24.886243,1.535470,99,99,0,0,1,0,0
4,49999,5,40000,55,10000,40,9999,0.100000,99,0,0.000000,16,0.000000,26.317048,0.643049,99,99,0,0,0,0,0
4,49999,6,40000,7,10000,40,9999,0.100000,99,0,0.000000,16,0.000000,27.189561,11.816532,99,99,0,0,0,0,0
4,49999,7,40000,14,10000,40,9999,0.100000,99,0,0.000000,16,2.000000,27.955626,10.945569,99,99,0,0,0,0,0
4,49999,8,40000,7,0,0,9999,0.100000,99,0,0.226919,16,0.000000,21.801871,0.112364,99,99,0,0,0,0,1
4,49999,9,40000,55,10000,40,9999,0.100000,99,0,0.000000,16,0.000000,32.134953,6.939522,99,99,0,0,0,0,0
4,49999,10,40000,95,20000,40,9999,0.100000,99,0,0.000000,16,3.000000,29.029747,9.202341,99,99,0,0,0,0,0
4,49999,11,40000,60,0,0,9999,0.100000,99,0,0.180229,16,0.000000,20.991052,0.441798,99,99,0,1,0,0,0
4,49999,12,40000,0,30000,0,9999,0.100000,99,0,1.404298,16,0.000000,26.666588,0.548782,99,99,0,0,1,0,0
4,49999,13,40000,0,30000,40,9999,0.100000,99,0,0.000000,16,0.000000,21.032721,0.850580,99,99,0,0,0,0,0
4,49999,14,40000,55,10000,40,9999,0.100000,99,0,0.000000,16,1.000000,26.603377,12.336048,99,99,0,0,0,0,0
4,49999,15,40000,67,0,0,9999,0.100000,99,0,1.527865,16,0.000000,26.938312,1.247431,99,99,0,0,0,1,0
4,49999,16,40000,60,0,40,9999,0.100000,99,0,0.000000,16,1.000000,31.176412,10.399352,99,99,0,0,0,0,0
4,49999,17,40000,22,20000,40,9999,0.100000,99,0,0.000000,16,0.000000,30.374045,0.981535,99,99,0,0,0,0,0
4,49999,18,40000,61,10000,40,9999,0.100000,99,0,0.000000,16,2.000000,28.812315,10.436134,99,99,0,0,0,0,0
4,49999,19,40000,7,0,40,9999,0.100000,99,0,0.000000,16,0.000000,21.165657,1.695517,99,99,0,0,0,0,0
4,49999,20,40000,67,0,40,9999,0.100000,99,0,0.000000,16,1.000000,29.351582,4.815412,99,99,0,0,0,0,0
4,49999,21,40000,47,20000,0,9999,0.100000,99,0,0.057953,16,0.000000,27.203116,0.091048,99,99,0,0,0,0,1
4,49999,22,40000,80,0,41,9999,0.100000,99,0,0.000000,16,4.000000,30.172321,16.579830,99,99,0,0,0,0,0
4,49999,23,40000,26,0,40,9999,0.100000,99,0,0.000000,16,1.000000,24.805626,1.555074,99,99,0,0,0,0,0
4,49999,24,40000,55,10000,42,9999,0.100000,99,0,0.000000,16,7.000000,31.532426,16.536401,99,99,0,0,0,0,0
4,49999,25,40000,95,20000,40,9999,0.100000,99,0,0.000000,16,1.000000,27.729356,7.252108,99,99,0,0,0,0,0
4,49999,26,40000,80,0,40,9999,0.100000,99,0,0.000000,16,0.000000,29.286894,3.330459,99,99,0,0,0,0,0
4,49999,27,40000,61,10000,40,9999,0.100000,99,0,0.000000,16,1.000000,29.662254,1.260491,99,99,0,0,0,0,0
4,49999,28,40000,22,20000,40,9999,0.100000,99,0,0.000000,16,1.000000,23.041629,5.818567,99,99,0,0,0,0,0
4,49999,29,40000,7,0,40,9999,0.100000,99,0,0.000000,16,0.000000,26.483954,0.950845,99,99,0,0,0,0,0
4,49999,30,40000,55,10000,40,9999,0.100000,99,0,0.000000,16,1.000000,31.925199,1.872703,99,99,0,0,0,0,0
4,49999,31,40000,61,10000,43,9999,0.100000,99,0,0.000000,16,7.000000,19.854244,15.175397,99,99,0,0,0,0,0
4,49999,32,40000,67,0,41,9999,0.100000,99,0,0.000000,16,3.000000,17.592265,7.051306,99,99,0,0,0,0,0
4,49999,33,40000,80,0,40,9999,0.100000,99,0,0.000000,16,0.000000,28.961924,1.174065,99,99,0,0,0,0,0
4,49999,34,40000,1,0,40,9999,0.100000,99,0,0.000000,16,0.000000,16.665646,5.551330,99,99,0,0,0,0,0
4,49999,35,40000,55,10000,0,9999,0.100000,99,0,0.052095,16,0.000000,26.622042,0.288605,99,99,0,0,1,0,0
4,49999,36,40000,47,20000,40,9999,0.100000,99,0,0.000000,16,0.000000,18.095497,1.433491,99,99,0,0,0,0,0
4,49999,37,40000,47,20000,0,9999,0.100000,99,0,0.824293,16,0.000000,30.446647,1.159128,99,99,0,0,1,0,0
4,49999,38,40000,10,10000,40,9999,0.100000,99,0,0.000000,16,0.000000,36.080324,0.220063,99,99,0,0,0,0,0
4,49999,39,40000,14,10000,40,9999,0.100000,99,0,0.000000,16,3.000000,31.720586,11.273809,99,99,0,0,0,0,0
4,49999,40,40000,0,30000,40,9999,0.100000,99,0,0.000000,16,0.000000,32.197521,0.142980,99,99,0,0,0,0,0
4,49999,41,40000,10,30000,40,9999,0.100000,99,0,0.000000,16,0.000000,35.269399,6.873362,99,99,0,0,0,0,0
4,49999,42,40000,7,0,40,9999,0.100000,99,0,0.000000,16,1.000000,30.469660,10.437154,99,99,0,0,0,0,0
4,49999,43,40000,67,0,40,9999,0.100000,99,0,0.000000,16,0.000000,20.628757,0.911033,99,99,0,0,0,0,0
4,49999,44,40000,14,10000,40,9999,0.100000,99,0,0.000000,16,0.000000,28.833447,6.487879,99,99,0,0,0,0,0
4,49999,45,40000,80,0,40,9999,0.100000,99,0,0.000000,16,0.000000,26.508323,3.619845,99,99,0,0,0,0,0
4,49999,46,40000,61,10000,40,9999,0.100000,99,0,0.000000,16,0.000000,27.582641,0.437273,99,99,0,0,0,0,0
4,49999,47,40000,14,10000,40,9999,0.100000,99,0,0.000000,16,0.000000,21.401531,0.244873,99,99,0,0,0,0,0
4,49999,48,40000,55,10000,40,9999,0.100000,99,0,0.000000,16,1.000000,35.831171,2.520718,99,99,0,0,0,0,0
4,49999,49,40000,80,0,40,9999,0.100000,99,0,0.000000,16,0.000000,23.759446,1.007750,99,99,0,0,0,0,0
4,49999,50,40000,47,20000,90,9999,0.100000,99,0,0.027075,16,0.000000,22.820844,0.517961,99,99,1,0,0,0,0
4,49999,51,40000,95,20000,90,9999,0.100000,99,0,7.587399,16,3.000000,34.616901,7.233986,99,99,1,0,0,0,0
4,49999,52,40000,14,10000,0,9999,0.100000,99,0,0.002898,16,0.000000,25.321850,0.134631,99,99,0,0,0,1,0
4,49999,53,40000,7,10000,90,9999,0.100000,99,0,1.695689,16,0.000000,23.294364,1.349823,99,99,1,0,0,0,0
4,49999,54,40000,61,10000,40,9999,0.100000,99,0,0.000000,16,2.000000,24.923524,8.407452,99,99,0,0,0,0,0
4,49999,55,40000,14,10000,40,9999,0.100000,99,0,0.000000,16,0.000000,29.975373,1.003206,99,99,0,0,0,0,0
4,49999,56,40000,47,20000,40,9999,0.100000,99,0,0.000000,16,0.000000,31.485021,0.936771,99,99,0,0,0,0,0
4,49999,57,40000,80,0,40,9999,0.100000,99,0,0.000000,16,3.000000,30.671904,9.595446,99,99,0,0,0,0,0
4,49999,58,40000,0,30000,40,9999,0.100000,99,0,0.000000,16,1.000000,27.554678,10.329894,99,99,0,0,0,0,0
4,49999,59,40000,55,10000,0,9999,0.100000,99,0,0.000966,16,0.000000,18.778940,0.124350,99,99,0,0,0,0,1
4,49999,60,40000,7,0,40,9999,0.100000,99,0,0.000000,16,1.000000,25.474248,14.070831,99,99,0,0,0,0,0
4,49999,61,40000,7,0,40,9999,0.100000,99,0,0.000000,16,0.000000,21.301357,0.933261,99,99,0,0,0,0,0
4,49999,62,40000,67,0,40,9999,0.100000,99,0,0.000000,16,1.000000,28.319648,12.713128,99,99,0,0,0,0,0
4,49999,63,40000,10,30000,41,9999,0.100000,99,0,0.000000,16,4.000000,27.675978,13.661818,99,99,0,0,0,0,0
4,49999,64,40000,47,20000,40,9999,0.100000,99,0,0.000000,16,1.000000,35.966926,3.762235,99,99,0,0,0,0,0
4,49999,65,40000,95,20000,40,9999,0.100000,99,0,0.000000,16,0.000000,26.181108,0.460509,99,99,0,0,0,0,0
4,49999,66,40000,7,10000,41,9999,0.100000,99,0,0.000000,16,5.000000,24.333228,13.383754,99,99,0,0,0,0,0
4,49999,67,40000,14,10000,40,9999,0.100000,99,0,0.000000,16,2.000000,28.615634,11.362748,99,99,0,0,0,0,0
4,49999,68,40000,60,0,40,9999,0.100000,99,0,0.000000,16,0.000000,17.092790,0.998133,99,99,0,0,0,0,0
4,49999,69,40000,55,10000,42,9999,0.100000,99,0,0.000000,16,7.000000,31.577077,18.119782,99,99,0,-1,0,0,0
4,49999,70,40000,10,30000,40,9999,0.100000,99,0,0.000000,16,0.000000,30.327167,1.399187,99,99,0,0,0,0,0
4,49999,71,40000,10,10000,40,9999,0.100000,99,0,0.000000,16,0.000000,25.295895,0.158579,99,99,0,0,0,0,0
4,49999,72,40000,24,10000,40,9999,0.100000,99,0,0.000000,16,0.000000,19.229200,0.079978,99,99,0,0,0,0,0
4,49999,73,40000,61,10000,40,9999,0.100000,99,0,0.000000,16,0.000000,14.026974,2.176471,99,99,0,0,0,0,0
4,49999,74,40000,10,10000,40,9999,0.100000,99,0,0.000000,16,2.000000,31.718681,7.630944,99,99,0,-1,0,0,0
4,49999,75,40000,7,10000,41,9999,0.100000,99,0,0.000000,16,3.000000,24.309713,14.156603,99,99,0,0,0,0,0
4,49999,76,40000,60,0,40,9999,0.100000,99,0,0.000000,16,2.000000,31.241712,12.236482,99,99,0,0,0,0,0
4,49999,77,40000,22,20000,40,9999,0.100000,99,0,0.000000,16,0.000000,27.709524,0.085631,99,99,0,0,0,0,0
4,49999,78,40000,14,10000,0,9999,0.100000,99,0,0.657615,16,0.000000,13.615821,0.323077,99,99,0,0,0,0,1
4,49999,79,40000,7,0,40,9999,0.100000,99,0,0.000000,16,0.000000,30.625799,0.976976,99,99,0,0,0,0,0
4,49999,80,40000,22,20000,40,9999,0.100000,99,0,0.000000,16,1.000000,29.116306,14.955741,99,99,0,0,0,0,0
4,49999,81,40000,10,10000,40,9999,0.100000,99,0,0.000000,16,0.000000,16.600261,20.876024,99,99,0,0,0,0,0
4,49999,82,40000,14,10000,40,9999,0.100000,99,0,0.000000,16,2.000000,24.335999,16.223312,99,99,0,0,0,0,0
4,49999,83,40000,67,0,40,9999,0.100000,99,0,0.000000,16,0.000000,27.716111,0.732370,99,99,0,0,0,0,0
4,49999,84,40000,26,0,0,9999,0.100000,99,0,0.355899,16,0.000000,16.893055,0.197747,99,99,0,1,0,0,0
4,49999,85,40000,26,0,90,9999,0.100000,99,0,4.330962,16,0.000000,33.510652,5.514032,99,99,1,0,0,0,0
4,49999,86,40000,26,0,40,9999,0.100000,99,0,0.000000,16,2.000000,21.874674,6.861808,99,99,0,0,0,0,0
4,49999,87,40000,61,10000,42,9999,0.100000,99,0,0.000000,16,6.000000,28.064170,14.196266,99,99,0,0,0,0,0
4,49999,88,40000,7,10000,40,9999,0.100000,99,0,0.000000,16,0.000000,17.322360,0.838460,99,99,0,0,0,0,0
4,49999,89,40000,7,0,40,9999,0.100000,99,0,0.000000,16,0.000000,25.371741,0.066042,99,99,0,0,0,0,0
4,49999,90,40000,47,20000,40,9999,0.100000,99,0,0.000000,16,0.000000,30.182204,2.162091,99,99,0,0,0,0,0
4,49999,91,40000,0,30000,40,9999,0.100000,99,0,0.000000,16,0.000000,26.247805,0.894897,99,99,0,0,0,0,0
4,49999,92,40000,60,0,40,9999,0.100000,99,0,0.000000,16,0.000000,16.604381,0.598244,99,99,0,0,0,0,0
4,49999,93,40000,80,0,40,9999,0.100000,99,0,0.000000,16,0.000000,30.942060,0.600668,99,99,0,0,0,0,0
4,49999,94,40000,67,0,40,9999,0.100000,99,0,0.000000,16,0.000000,26.658537,0.800201,99,99,0,0,0,0,0
4,49999,95,40000,10,10000,40,9999,0.100000,99,0,0.000000,16,0.000000,14.345164,1.083716,99,99,0,0,0,0,0
4,49999,96,40000,95,20000,40,9999,0.100000,99,0,0.000000,16,2.000000,29.567109,5.014861,99,99,0,0,0,0,0
4,49999,97,40000,61,10000,40,9999,0.100000,99,0,0.000000,16,0.000000,13.831013,0.546248,99,99,0,0,0,0,0
4,49999,98,40000,1,0,40,9999,0.100000,99,0,0.000000,16,1.000000,30.022266,8.071111,99,99,0,0,0,0,0
4,49999,99,40000,67,0,40,9999,0.100000,99,0,0.000000,16,1.000000,24.742514,1.528380,99,99,0,0,0,0,0
5,59999,0,50000,47,20000,40,9999,0.100000,99,0,0.000000,16,0.000000,31.204513,9.675761,99,99,0,0,0,0,0
5,59999,1,50000,26,0,0,9999,0.100000,99,0,5.273941,16,1.000000,29.703080,1.527764,99,99,0,0,0,1,0
5,59999,2,50000,47,20000,40,9999,0.100000,99,0,0.000000,16,1.000000,25.195365,8.174000,99,99,0,0,0,0,0
5,59999,3,50000,7,10000,40,9999,0.100000,99,0,0.000000,16,2.000000,26.503368,15.531537,99,99,0,0,0,0,0
5,59999,4,50000,10,30000,1,9999,0.100000,99,0,24.874521,16,4.000000,26.188915,5.244067,99,99,0,0,1,0,0
5,59999,5,50000,0,30000,40,9999,0.100000,99,0,0.000000,16,0.000000,26.375105,0.661458,99,99,0,0,0,0,0
5,59999,6,50000,80,0,40,9999,0.100000,99,0,0.000000,16,2.000000,26.992110,15.420279,99,99,0,0,0,0,0
5,59999,7,50000,10,10000,41,9999,0.100000,99,0,0.000000,16,3.000000,26.224819,9.752686,99,99,0,0,0,0,0
5,59999,8,50000,14,10000,0,9999,0.100000,99,0,0.184071,16,0.000000,21.801210,0.147037,99,99,0,0,0,0,1
5,59999,9,50000,26,0,0,9999,0.100000,99,0,0.385390,16,0.000000,31.211624,4.119688,99,99,0,1,0,0,0
5,59999,10,50000,22,20000,40,9999,0.100000,99,0,0.000000,16,2.000000,25.903533,8.197717,99,99,0,0,0,0,0
5,59999,11,50000,7,0,0,9999,0.100000,99,0,0.105723,16,1.000000,20.957390,1.833316,99,99,0,1,0,0,0
5,59999,12,50000,14,10000,0,9999,0.100000,99,0,1.448744,16,0.000000,26.718612,0.596306,99,99,0,0,1,0,0
5,59999,13,50000,95,20000,40,9999,0.100000,99,0,0.000000,16,2.000000,20.699553,3.715669,99,99,0,0,0,0,0
5,59999,14,50000,67,0,41,9999,0.100000,99,0,0.000000,16,4.000000,25.815071,11.471901,99,99,0,0,0,0,0
5,59999,15,50000,10,10000,0,9999,0.100000,99,0,0.125424,16,1.000000,26.956789,1.721702,99,99,0,0,0,1,0
5,59999,16,50000,80,0,40,9999,0.100000,99,0,0.000000,16,3.000000,30.268435,14.404244,99,99,0,0,0,0,0
5,59999,17,50000,10,30000,40,9999,0.100000,99,0,0.000000,16,1.000000,30.559157,2.746424,99,99,0,0,0,0,0
5,59999,18,50000,60,0,40,9999,0.100000,99,0,0.000000,16,1.000000,29.643249,10.831481,99,99,0,0,0,0,0
5,59999,19,50000,10,10000,40,9999,0.100000,99,0,0.000000,16,1.000000,21.349376,3.430887,99,99,0,0,0,0,0
5,59999,20,50000,55,10000,40,9999,0.100000,99,0,0.000000,16,1.000000,28.121600,13.339147,99,99,0,0,0,0,0
5,59999,21,50000,7,0,0,9999,0.100000,99,0,0.094715,16,0.000000,27.159056,0.144249,99,99,0,0,0,0,1
5,59999,22,50000,10,10000,91,9999,0.100000,99,0,35.993696,16,4.000000,25.772489,16.187213,99,99,1,0,0,0,0
5,59999,23,50000,80,0,41,9999,0.100000,99,0,0.000000,16,4.000000,26.088352,5.459098,99,99,0,0,0,0,0
5,59999,24,50000,95,20000,41,9999,0.100000,99,0,0.000000,16,4.000000,36.520143,12.911517,99,99,0,0,0,0,0
5,59999,25,50000,26,0,40,9999,0.100000,99,0,0.000000,16,0.000000,27.151940,1.907181,99,99,0,0,0,0,0
5,59999,26,50000,60,0,42,9999,0.100000,99,0,0.000000,16,7.000000,29.634998,13.515163,99,99,0,0,0,0,0
5,59999,27,50000,55,10000,40,9999,0.100000,99,0,0.000000,16,1.000000,30.058076,1.654388,99,99,0,0,0,0,0
5,59999,28,50000,24,30000,40,9999,0.100000,99,0,0.000000,16,0.000000,21.955811,0.232802,99,99,0,0,0,0,0
5,59999,29,50000,67,0,40,9999,0.100000,99,0,0.000000,16,1.000000,26.515652,1.215121,99,99,0,0,0,0,0
5,59999,30,50000,80,0,40,9999,0.100000,99,0,0.000000,16,0.000000,33.462453,0.233099,99,99,0,0,0,0,0
5,59999,31,50000,0,30000,98,9999,0.100000,99,0,46.281905,16,14.000000,16.293796,21.662960,99,99,1,0,0,0,0
5,59999,32,50000,31,40000,42,9999,0.100000,99,0,0.000000,16,4.000000,18.870260,12.742639,99,99,0,0,0,0,0
5,59999,33,50000,60,0,40,9999,0.100000,99,0,0.000000,16,1.000000,29.220654,1.532934,99,99,0,0,0,0,0
5,59999,34,50000,10,10000,2,9999,0.100000,99,0,24.407845,16,4.000000,16.511237,8.211639,99,99,0,1,0,0,0
5,59999,35,50000,7,10000,0,9999,0.100000,99,0,0.046119,16,0.000000,26.509692,0.290084,99,99,0,0,1,0,0
5,59999,36,50000,10,30000,40,9999,0.100000,99,0,0.000000,16,0.000000,17.178147,0.627077,99,99,0,0,0,0,0
5,59999,37,50000,60,0,1,9999,0.100000,99,0,21.355558,16,4.000000,30.912380,5.778854,99,99,0,0,1,0,0
5,59999,38,50000,47,20000,40,9999,0.100000,99,0,0.000000,16,0.000000,36.080529,0.210322,99,99,0,0,0,0,0
5,59999,39,50000,10,30000,40,9999,0.100000,99,0,0.000000,16,3.000000,33.235968,8.817239,99,99,0,0,0,0,0
5,59999,40,50000,24,30000,40,9999,0.100000,99,0,0.000000,16,0.000000,32.196397,0.147280,99,99,0,0,0,0,0
5,59999,41,50000,0,30000,40,9999,0.100000,99,0,0.000000,16,0.000000,34.857240,6.907880,99,99,0,0,0,0,0
5,59999,42,50000,31,40000,40,9999,0.100000,99,0,0.000000,16,2.000000,30.689425,8.871103,99,99,0,0,0,0,0
5,59999,43,50000,95,20000,42,9999,0.100000,99,0,0.000000,16,6.000000,19.947709,10.744456,99,99,0,0,0,0,0
5,59999,44,50000,10,30000,40,9999,0.100000,99,0,0.000000,16,2.000000,29.426339,22.414358,99,99,0,0,0,0,0
5,59999,45,50000,80,0,40,9999,0.100000,99,0,0.000000,16,0.000000,26.558648,3.813075,99,99,0,0,0,0,0
5,59999,46,50000,95,20000,40,9999,0.100000,99,0,0.000000,16,0.000000,27.542182,0.487761,99,99,0,0,0,0,0
5,59999,47,50000,60,0,40,9999,0.100000,99,0,0.000000,16,0.000000,21.403156,0.241254,99,99,0,0,0,0,0
5,59999,48,50000,80,0,40,9999,0.100000,99,0,0.000000,16,3.000000,34.910962,13.398823,99,99,0,0,0,0,0
5,59999,49,50000,7,10000,40,9999,0.100000,99,0,0.000000,16,0.000000,22.998532,0.980034,99,99,0,0,0,0,0
5,59999,50,50000,26,0,90,9999,0.100000,99,0,0.011297,16,0.000000,22.837941,0.549868,99,99,1,0,0,0,0
5,59999,51,50000,55,10000,40,9999,0.135000,99,0,0.000000,16,3.000000,34.644063,11.255153,99,99,0,0,0,0,0
5,59999,52,50000,10,10000,0,9999,0.100000,99,0,0.002756,16,0.000000,25.322834,0.137285,99,99,0,0,0,1,0
5,59999,53,50000,80,0,90,9999,0.100000,99,0,2.860180,16,0.000000,22.945410,1.596463,99,99,1,0,0,0,0
5,59999,54,50000,55,10000,40,9999,0.100000,99,0,0.000000,16,2.000000,22.760532,13.221287,99,99,0,0,0,0,0
5,59999,55,50000,95,20000,40,9999,0.100000,99,0,0.000000,16,0.000000,30.087537,1.173414,99,99,0,0,0,0,0
5,59999,56,50000,47,20000,40,9999,0.100000,99,0,0.000000,16,0.000000,31.767912,0.927683,99,99,0,0,0,0,0
5,59999,57,50000,22,20000,40,9999,0.100000,99,0,0.000000,16,2.000000,27.759256,14.175777,99,99,0,0,0,0,0
5,59999,58,50000,14,10000,40,9999,0.100000,99,0,0.000000,16,1.000000,26.744666,1.554677,99,99,0,0,0,0,0
5,59999,59,50000,67,0,0,9999,0.100000,99,0,0.452065,16,0.000000,18.776732,0.266586,99,99,0,0,0,0,1
5,59999,60,50000,22,20000,40,9999,0.100000,99,0,0.000000,16,1.000000,26.531502,20.291866,99,99,0,0,0,0,0
5,59999,61,50000,24,30000,40,9999,0.100000,99,0,0.000000,16,0.000000,20.609190,0.928748,99,99,0,0,0,0,0
5,59999,62,50000,10,30000,40,9999,0.100000,99,0,0.000000,16,0.000000,28.911446,7.807175,99,99,0,0,0,0,0
5,59999,63,50000,7,10000,40,9999,0.100000,99,0,0.000000,16,1.000000,27.161161,5.653251,99,99,0,0,0,0,0
5,59999,64,50000,80,0,41,9999,0.100000,99,0,0.000000,16,4.000000,34.866196,12.328358,99,99,0,0,0,0,0
5,59999,65,50000,61,10000,40,9999,0.100000,99,0,0.000000,16,0.000000,26.240543,0.491964,99,99,0,0,0,0,0
5,59999,66,50000,10,30000,41,9999,0.100000,99,0,0.000000,16,4.000000,24.431928,10.608394,99,99,0,0,0,0,0
5,59999,67,50000,0,30000,40,9999,0.100000,99,0,0.000000,16,1.000000,29.152530,3.233995,99,99,0,0,0,0,0
5,59999,68,50000,24,30000,40,9999,0.100000,99,0,0.000000,16,1.000000,16.745877,9.670813,99,99,0,0,0,0,0
5,59999,69,50000,26,0,40,9999,0.100000,99,0,0.000000,16,0.000000,36.407865,0.592804,99,99,0,0,0,0,0
5,59999,70,50000,55,10000,40,9999,0.100000,99,0,0.000000,16,2.000000,30.784012,10.211156,99,99,0,0,0,0,0
5,59999,71,50000,0,30000,40,9999,0.100000,99,0,0.000000,16,0.000000,25.296279,0.160247,99,99,0,0,0,0,0
5,59999,72,50000,61,10000,40,9999,0.100000,99,0,0.000000,16,0.000000,19.226640,0.283440,99,99,0,0,0,0,0
5,59999,73,50000,22,20000,40,9999,0.100000,99,0,0.000000,16,0.000000,13.710190,0.864953,99,99,0,0,0,0,0
5,59999,74,50000,7,0,40,9999,0.100000,99,0,0.000000,16,0.000000,34.183185,0.984938,99,99,0,0,0,0,0
5,59999,75,50000,7,10000,40,9999,0.100000,99,0,0.000000,16,1.000000,27.690238,12.280359,99,99,0,0,0,0,0
5,59999,76,50000,47,20000,43,9999,0.100000,99,0,0.000000,16,10.000000,29.166543,21.790074,99,99,0,0,0,0,0
5,59999,77,50000,95,20000,40,9999,0.100000,99,0,0.000000,16,0.000000,27.672775,0.156525,99,99,0,0,0,0,0
5,59999,78,50000,24,30000,0,9999,0.100000,99,0,0.041568,16,0.000000,13.420951,0.388046,99,99,0,0,0,0,1
5,59999,79,50000,10,30000,40,9999,0.100000,99,0,0.000000,16,0.000000,30.840265,0.971976,99,99,0,0,0,0,0
5,59999,80,50000,60,0,40,9999,0.100000,99,0,0.000000,16,1.000000,28.905725,16.542921,99,99,0,0,0,0,0
5,59999,81,50000,31,40000,41,9999,0.100000,99,0,0.000000,16,3.000000,16.379753,13.752307,99,99,0,0,0,0,0
5,59999,82,50000,0,30000,40,9999,0.100000,99,0,0.000000,16,1.000000,25.994905,8.950161,99,99,0,0,0,0,0
5,59999,83,50000,7,0,40,9999,0.100000,99,0,0.000000,16,0.000000,27.674654,0.974649,99,99,0,0,0,0,0
5,59999,84,50000,0,30000,42,9999,0.100000,99,0,0.000000,16,4.000000,16.938251,6.036676,99,99,0,0,0,0,0
5,59999,85,50000,55,10000,90,9999,0.100000,99,0,1.365857,16,0.000000,34.079848,1.079235,99,99,1,0,0,0,0
5,59999,86,50000,31,40000,40,9999,0.100000,99,0,0.000000,16,1.000000,22.622975,13.638399,99,99,0,0,0,0,0
5,59999,87,50000,22,20000,42,9999,0.100000,99,0,0.000000,16,5.000000,21.815443,17.469250,99,99,0,0,0,0,0
5,59999,88,50000,80,0,41,9999,0.100000,99,0,0.000000,16,2.000000,16.964959,12.018269,99,99,0,0,0,0,0
5,59999,89,50000,60,0,40,9999,0.100000,99,0,0.000000,16,0.000000,25.373289,0.066210,99,99,0,0,0,0,0
5,59999,90,50000,95,20000,41,9999,0.100000,99,0,0.000000,16,4.000000,30.651341,5.644569,99,99,0,0,0,0,0
5,59999,91,50000,47,20000,40,9999,0.100000,99,0,0.000000,16,0.000000,26.284977,1.055465,99,99,0,0,0,0,0
5,59999,92,50000,7,10000,0,9999,0.100000,99,0,0.067897,16,0.000000,16.293783,0.674613,99,99,0,0,0,1,0
5,59999,93,50000,60,0,41,9999,0.100000,99,0,0.000000,16,4.000000,31.429526,5.428258,99,99,0,0,0,0,0
5,59999,94,50000,47,20000,40,9999,0.100000,99,0,0.000000,16,0.000000,26.546746,0.772816,99,99,0,0,0,0,0
5,59999,95,50000,26,0,40,9999,0.100000,99,0,0.000000,16,0.000000,13.384246,4.045062,99,99,0,0,0,0,0
5,59999,96,50000,80,0,40,9999,0.100000,99,0,0.000000,16,1.000000,29.349181,2.443491,99,99,0,0,0,0,0
5,59999,97,50000,55,10000,40,9999,0.100000,99,0,0.000000,16,0.000000,13.610398,0.637788,99,99,0,0,0,0,0
5,59999,98,50000,10,10000,40,9999,0.100000,99,0,0.000000,16,1.000000,29.712018,11.809696,99,99,0,0,0,0,0
5,59999,99,50000,0,30000,41,9999,0.100000,99,0,0.000000,16,5.000000,26.004193,5.723304,99,99,0,0,0,0,0
6,69999,0,60000,4,50000,0,9999,0.100000,99,0,11.713375,16,1.000000,30.578578,6.198689,99,99,0,1,0,0,0
6,69999,1,60000,4,50000,0,9999,0.100000,99,0,3.202830,16,2.000000,29.853737,2.479778,99,99,0,0,0,1,0
6,69999,2,60000,0,30000,1,9999,0.100000,99,0,1.225688,16,3.000000,24.018380,9.143316,99,99,0,0,0,0,1
6,69999,3,60000,14,10000,40,9999,0.100000,99,0,0.000000,16,2.000000,25.039641,15.664752,99,99,0,0,0,0,0
6,69999,4,60000,14,10000,0,9999,0.100000,99,0,0.000000,16,3.000000,30.764893,19.296314,99,99,0,0,1,0,0
6,69999,5,60000,67,0,40,9999,0.100000,99,0,0.000000,16,0.000000,26.450456,0.601008,99,99,0,0,0,0,0
6,69999,6,60000,14,10000,41,9999,0.100000,99,0,0.000000,16,4.000000,28.283861,17.251761,99,99,0,0,0,0,0
6,69999,7,60000,26,0,40,9999,0.100000,99,0,0.000000,16,2.000000,22.698500,11.411898,99,99,0,0,0,0,0
6,69999,8,60000,22,50000,40,9999,0.100000,99,0,0.000000,16,2.000000,21.758672,2.715433,99,99,0,0,0,0,0
6,69999,9,60000,14,10000,0,9999,0.100000,99,0,10.921755,16,3.000000,30.721402,9.961186,99,99,0,1,0,0,0
6,69999,10,60000,7,10000,41,9999,0.100000,99,0,0.000000,16,3.000000,24.001907,11.069663,99,99,0,0,0,0,0
6,69999,11,60000,7,10000,0,9999,0.100000,99,0,2.699732,16,1.000000,19.764970,1.483818,99,99,0,1,0,0,0
6,69999,12,60000,24,30000,0,9999,0.100000,99,0,1.566784,16,0.000000,26.789029,0.635091,99,99,0,0,1,0,0
6,69999,13,60000,22,20000,44,9999,0.100000,99,0,0.000000,16,8.000000,18.523194,11.372351,99,99,0,0,0,0,0
6,69999,14,60000,47,20000,40,9999,0.100000,99,0,0.000000,16,0.000000,22.079642,8.756838,99,99,0,0,0,0,0
6,69999,15,60000,10,10000,0,9999,0.100000,99,0,1.130017,16,0.000000,27.417603,1.418467,99,99,0,0,0,1,0
6,69999,16,60000,26,0,40,9999,0.100000,99,0,0.000000,16,2.000000,28.929907,15.812241,99,99,0,0,0,0,0
6,69999,17,60000,26,0,40,9999,0.100000,99,0,0.000000,16,0.000000,30.244999,3.696538,99,99,0,0,0,0,0
6,69999,18,60000,7,10000,42,9999,0.100000,99,0,0.000000,16,8.000000,30.498804,25.106279,99,99,0,0,0,0,0
6,69999,19,60000,10,10000,41,9999,0.100000,99,0,0.000000,16,3.000000,22.302240,3.782809,99,99,0,0,0,0,0
6,69999,20,60000,14,10000,40,9999,0.100000,99,0,0.000000,16,0.000000,27.694130,11.255597,99,99,0,0,0,0,0
6,69999,21,60000,47,20000,0,9999,0.100000,99,0,0.240876,16,0.000000,27.058929,0.205356,99,99,0,0,0,0,1
6,69999,22,60000,95,20000,40,9999,0.100000,99,0,0.000000,16,1.000000,29.400611,5.808134,99,99,0,0,0,0,0
6,69999,23,60000,24,30000,40,9999,0.100000,99,0,0.000000,16,3.000000,30.886730,21.286133,99,99,0,0,0,0,0
6,69999,24,60000,10,30000,41,9999,0.100000,99,0,0.000000,16,5.000000,33.363798,10.946203,99,99,0,0,0,0,0
6,69999,25,60000,95,20000,41,9999,0.100000,99,0,0.000000,16,5.000000,26.512013,6.060978,99,99,0,0,0,0,0
6,69999,26,60000,80,0,42,9999,0.100000,99,0,0.000000,16,8.000000,29.379177,13.821947,99,99,0,0,0,0,0
6,69999,27,60000,67,0,40,9999,0.100000,99,0,0.000000,16,2.000000,30.187237,8.771074,99,99,0,0,0,0,0
6,69999,28,60000,95,20000,40,9999,0.100000,99,0,0.000000,16,2.000000,21.901464,5.190548,99,99,0,0,0,0,0
6,69999,29,60000,80,0,40,9999,0.100000,99,0,0.000000,16,0.000000,26.933656,1.177301,99,99,0,0,0,0,0
6,69999,30,60000,10,30000,40,9999,0.100000,99,0,0.000000,16,0.000000,33.462889,0.248740,99,99,0,0,0,0,0
6,69999,31,60000,60,0,40,9999,0.100000,99,0,0.000000,16,2.000000,28.013927,6.988336,99,99,0,0,0,0,0
6,69999,32,60000,60,0,41,9999,0.100000,99,0,0.000000,16,2.000000,15.910694,7.687558,99,99,0,0,0,0,0
6,69999,33,60000,47,20000,40,9999,0.100000,99,0,0.000000,16,1.000000,29.365020,2.053912,99,99,0,0,0,0,0
6,69999,34,60000,60,0,2,9999,0.100000,99,0,26.226673,16,5.000000,20.770083,5.707653,99,99,0,1,0,0,0
6,69999,35,60000,55,10000,0,9999,0.100000,99,0,0.056932,16,0.000000,26.397769,0.291919,99,99,0,0,1,0,0
6,69999,36,60000,24,30000,40,9999,0.100000,99,0,0.000000,16,0.000000,16.833395,0.346985,99,99,0,0,0,0,0
6,69999,37,60000,67,0,0,9999,0.100000,99,0,2.275455,16,0.000000,33.872820,0.908138,99,99,0,0,1,0,0
6,69999,38,60000,10,10000,40,9999,0.100000,99,0,0.000000,16,0.000000,36.079407,0.244212,99,99,0,0,0,0,0
6,69999,39,60000,95,20000,90,9999,0.100000,99,0,10.866723,16,3.000000,31.409198,11.019484,99,99,1,0,0,0,0
6,69999,40,60000,31,40000,40,9999,0.100000,99,0,0.000000,16,0.000000,32.196252,0.139019,99,99,0,0,0,0,0
6,69999,41,60000,55,10000,40,9999,0.100000,99,0,0.000000,16,3.000000,35.568714,8.134745,99,99,0,0,0,0,0
6,69999,42,60000,43,50000,41,9999,0.100000,99,0,0.000000,16,6.000000,30.468147,16.909970,99,99,0,0,0,0,0
6,69999,43,60000,24,30000,40,9999,0.100000,99,0,0.000000,16,0.000000,13.544371,0.455701,99,99,0,0,0,0,0
6,69999,44,60000,7,10000,40,9999,0.100000,99,0,0.000000,16,2.000000,30.173587,14.469271,99,99,0,0,0,0,0
6,69999,45,60000,7,10000,40,9999,0.100000,99,0,0.000000,16,0.000000,26.628542,3.874534,99,99,0,0,0,0,0
6,69999,46,60000,24,30000,40,9999,0.100000,99,0,0.000000,16,0.000000,27.437996,0.745971,99,99,0,0,0,0,0
6,69999,47,60000,22,20000,40,9999,0.100000,99,0,0.000000,16,0.000000,21.404836,0.235004,99,99,0,0,0,0,0
6,69999,48,60000,4,50000,41,9999,0.100000,99,0,0.000000,16,5.000000,35.693264,19.847872,99,99,0,0,0,0,0
6,69999,49,60000,0,30000,40,9999,0.100000,99,0,0.000000,16,0.000000,22.254139,0.944825,99,99,0,0,0,0,0
6,69999,50,60000,67,0,90,9999,0.100000,99,0,0.187091,16,0.000000,22.883623,0.548948,99,99,1,0,0,0,0
6,69999,51,60000,80,0,40,9999,0.100000,99,0,0.000000,16,1.000000,36.173427,7.311240,99,99,0,0,0,0,0
6,69999,52,60000,67,0,0,9999,0.100000,99,0,0.002707,16,0.000000,25.323595,0.136599,99,99,0,0,0,1,0
6,69999,53,60000,10,30000,90,9999,0.100000,99,0,0.057855,16,2.000000,23.547347,6.684530,99,99,1,0,0,0,0
6,69999,54,60000,67,0,42,9999,0.100000,99,0,0.000000,16,6.000000,23.624131,13.751163,99,99,0,0,0,0,0
6,69999,55,60000,60,0,40,9999,0.100000,99,0,0.000000,16,0.000000,30.202016,2.654784,99,99,0,0,0,0,0
6,69999,56,60000,67,0,40,9999,0.100000,99,0,0.000000,16,0.000000,32.059437,1.282193,99,99,0,0,0,0,0
6,69999,57,60000,60,0,40,9999,0.100000,99,0,0.000000,16,1.000000,29.008360,16.813719,99,99,0,0,0,0,0
6,69999,58,60000,10,30000,40,9999,0.100000,99,0,0.000000,16,0.000000,27.188892,1.364198,99,99,0,0,0,0,0
6,69999,59,60000,22,20000,0,9999,0.100000,99,0,0.263108,16,0.000000,18.593733,0.184414,99,99,0,0,0,0,1
6,69999,60,60000,47,20000,41,9999,0.100000,99,0,0.000000,16,4.000000,26.674780,15.645449,99,99,0,0,0,0,0
6,69999,61,60000,7,10000,42,9999,0.100000,99,0,0.000000,16,6.000000,19.920960,16.416706,99,99,0,0,0,0,0
6,69999,62,60000,67,0,40,9999,0.100000,99,0,0.000000,16,2.000000,28.418454,7.005066,99,99,0,0,0,0,0
6,69999,63,60000,7,10000,40,9999,0.100000,99,0,0.000000,16,1.000000,26.877872,14.394269,99,99,0,0,0,0,0
6,69999,64,60000,55,10000,40,9999,0.100000,99,0,0.000000,16,1.000000,34.036236,1.618437,99,99,0,0,0,0,0
6,69999,65,60000,80,0,40,9999,0.100000,99,0,0.000000,16,0.000000,26.329777,0.505857,99,99,0,0,0,0,0
6,69999,66,60000,24,30000,43,9999,0.100000,99,0,0.000000,16,11.000000,27.951538,17.205767,99,99,0,0,0,0,0
6,69999,67,60000,0,30000,40,9999,0.100000,99,0,0.000000,16,2.000000,29.366724,3.209847,99,99,0,0,0,0,0
6,69999,68,60000,43,50000,40,9999,0.100000,99,0,0.000000,16,0.000000,15.784770,1.494756,99,99,0,0,0,0,0
6,69999,69,60000,43,50000,40,9999,0.100000,99,0,0.000000,16,0.000000,36.781917,0.158193,99,99,0,0,0,0,0
6,69999,70,60000,31,40000,41,9999,0.100000,99,0,0.000000,16,5.000000,28.169662,17.055303,99,99,0,0,0,0,0
6,69999,71,60000,10,10000,40,9999,0.100000,99,0,0.000000,16,0.000000,25.296568,0.159176,99,99,0,0,0,0,0
6,69999,72,60000,10,10000,40,9999,0.100000,99,0,0.000000,16,0.000000,19.009083,0.085530,99,99,0,0,0,0,0
6,69999,73,60000,14,10000,40,9999,0.100000,99,0,0.000000,16,0.000000,13.677381,19.145170,99,99,0,0,0,0,0
6,69999,74,60000,0,30000,40,9999,0.100000,99,0,0.000000,16,3.000000,34.638626,5.059076,99,99,0,0,0,0,0
6,69999,75,60000,26,0,40,9999,0.100000,99,0,0.000000,16,0.000000,27.689623,3.543812,99,99,0,0,0,0,0
6,69999,76,60000,4,50000,40,9999,0.100000,99,0,0.000000,16,1.000000,26.682678,5.198798,99,99,0,0,0,0,0
6,69999,77,60000,10,30000,40,9999,0.100000,99,0,0.000000,16,1.000000,27.569677,3.425838,99,99,0,0,0,0,0
6,69999,78,60000,67,0,0,9999,0.100000,99,0,0.386091,16,0.000000,13.357513,0.222975,99,99,0,0,0,0,1
6,69999,79,60000,43,50000,40,9999,0.100000,99,0,0.000000,16,0.000000,31.076886,1.011802,99,99,0,0,0,0,0
6,69999,80,60000,10,30000,40,9999,0.100000,99,0,0.000000,16,2.000000,29.994812,13.665177,99,99,0,0,0,0,0
6,69999,81,60000,47,20000,41,9999,0.100000,99,0,0.000000,16,3.000000,19.077683,15.255042,99,99,0,0,0,0,0
6,69999,82,60000,95,20000,40,9999,0.100000,99,0,0.000000,16,1.000000,24.716977,7.399314,99,99,0,0,0,0,0
6,69999,83,60000,55,10000,40,9999,0.100000,99,0,0.000000,16,0.000000,27.567176,1.374554,99,99,0,0,0,0,0
6,69999,84,60000,31,40000,42,9999,0.100000,99,0,0.000000,16,5.000000,20.923455,5.791413,99,99,0,0,0,0,0
6,69999,85,60000,26,0,91,9999,0.100000,99,0,20.181272,16,4.000000,34.321776,10.622148,99,99,1,0,0,0,0
6,69999,86,60000,22,50000,42,9999,0.100000,99,0,0.000000,16,5.000000,23.055618,15.107906,99,99,0,0,0,0,0
6,69999,87,60000,10,30000,40,9999,0.100000,99,0,0.000000,16,0.000000,20.210511,16.296355,99,99,0,0,0,0,0
6,69999,88,60000,0,30000,40,9999,0.100000,99,0,0.000000,16,0.000000,15.862033,2.660575,99,99,0,0,0,0,0
6,69999,89,60000,47,20000,40,9999,0.100000,99,0,0.000000,16,0.000000,25.374530,0.066089,99,99,0,0,0,0,0
6,69999,90,60000,22,20000,40,9999,0.100000,99,0,0.000000,16,0.000000,33.664871,0.671583,99,99,0,0,0,0,0
6,69999,91,60000,80,0,40,9999,0.100000,99,0,0.000000,16,0.000000,26.671532,1.008893,99,99,0,0,0,0,0
6,69999,92,60000,26,0,0,9999,0.100000,99,0,0.121694,16,0.000000,16.122066,0.120624,99,99,0,0,0,1,0
6,69999,93,60000,60,0,40,9999,0.100000,99,0,0.000000,16,0.000000,34.133491,4.165955,99,99,0,0,0,0,0
6,69999,94,60000,67,0,40,9999,0.100000,99,0,0.000000,16,0.000000,26.434031,0.857348,99,99,0,0,0,0,0
6,69999,95,60000,14,10000,2,9999,0.100000,99,0,0.040954,16,3.000000,13.412882,6.474355,99,99,0,0,0,0,1
6,69999,96,60000,10,10000,40,9999,0.100000,99,0,0.000000,16,0.000000,31.098482,0.132898,99,99,0,0,0,0,0
6,69999,97,60000,22,50000,40,9999,0.100000,99,0,0.000000,16,0.000000,13.576600,0.454289,99,99,0,0,0,0,0
6,69999,98,60000,7,10000,40,9999,0.100000,99,0,0.000000,16,3.000000,30.124037,14.620651,99,99,0,0,0,0,0
6,69999,99,60000,24,30000,40,9999,0.100000,99,0,0.000000,16,1.000000,31.028256,14.868195,99,99,0,0,0,0,0
7,79999,0,70000,80,0,41,9999,0.100000,99,0,0.000000,16,4.000000,32.256805,10.277276,99,99,0,0,0,0,0
7,79999,1,70000,22,50000,0,9999,0.100000,99,0,1.815209,16,0.000000,29.175081,1.159685,99,99,0,0,0,1,0
7,79999,2,70000,10,30000,0,9999,0.100000,99,0,0.051036,17,0.000000,23.599361,0.900529,99,99,0,0,0,0,1
7,79999,3,70000,43,50000,41,9999,0.100000,99,0,0.000000,16,3.000000,25.241701,14.618829,99,99,0,0,0,0,0
7,79999,4,70000,47,20000,41,9999,0.100000,99,0,0.000000,17,6.000000,28.661541,13.967430,99,99,0,0,0,0,0
7,79999,5,70000,13,60000,40,9999,0.100000,99,0,0.000000,17,0.000000,26.565592,1.559370,99,99,0,0,0,0,0
7,79999,6,70000,7,10000,40,9999,0.100000,99,0,0.000000,17,3.000000,29.822421,14.329524,99,99,0,0,0,0,0
7,79999,7,70000,24,30000,40,9999,0.100000,99,0,0.000000,17,0.000000,23.366605,0.874813,99,99,0,0,0,0,0
7,79999,8,70000,47,20000,40,9999,0.100000,99,0,0.000000,16,0.000000,22.880766,0.517477,99,99,0,0,0,0,0
7,79999,9,70000,24,30000,40,9999,0.100000,99,0,0.000000,17,3.000000,29.350046,6.344875,99,99,0,0,0,0,0
7,79999,10,70000,80,0,40,9999,0.100000,99,0,0.000000,16,1.000000,24.367677,10.996839,99,99,0,0,0,0,0
7,79999,11,70000,4,50000,0,9999,0.100000,99,0,0.163224,16,0.000000,20.951702,0.771607,99,99,0,1,0,0,0
7,79999,12,70000,22,50000,0,9999,0.100000,99,0,1.378989,17,0.000000,26.896488,1.065813,99,99,0,0,1,0,0
7,79999,13,70000,26,0,40,9999,0.100000,99,0,0.000000,17,0.000000,10.271669,3.552572,99,99,0,0,0,0,0
7,79999,14,70000,26,0,40,9999,0.100000,99,0,0.000000,17,0.000000,22.394937,5.591921,99,99,0,0,0,0,0
7,79999,15,70000,7,10000,40,9999,0.100000,99,0,0.000000,17,0.000000,27.241838,1.260833,99,99,0,0,0,0,0
7,79999,16,70000,26,0,42,9999,0.100000,99,0,0.000000,17,8.000000,29.185934,11.718363,99,99,0,0,0,0,0
7,79999,17,70000,47,20000,40,9999,0.100000,99,0,0.000000,17,0.000000,30.330104,3.375135,99,99,0,0,0,0,0
7,79999,18,70000,47,20000,45,9999,0.100000,99,0,0.000000,17,13.000000,24.070474,20.546247,99,99,0,0,0,0,0
7,79999,19,70000,10,30000,40,9999,0.100000,99,0,0.000000,17,0.000000,23.873522,0.708213,99,99,0,0,0,0,0
7,79999,20,70000,7,10000,40,9999,0.100000,99,0,0.000000,17,0.000000,27.567157,0.861664,99,99,0,0,0,0,0
7,79999,21,70000,60,0,0,9999,0.100000,99,0,0.200795,17,0.000000,26.897022,0.135340,99,99,0,0,0,0,1
7,79999,22,70000,60,0,41,9999,0.100000,99,0,0.000000,17,3.000000,28.467417,9.049098,99,99,0,0,0,0,0
7,79999,23,70000,47,20000,40,9999,0.100000,99,0,0.000000,17,0.000000,32.356446,0.664004,99,99,0,0,0,0,0
7,79999,24,70000,14,10000,40,9999,0.100000,99,0,0.000000,17,1.000000,35.183570,10.810211,99,99,0,0,0,0,0
7,79999,25,70000,26,0,41,9999,0.100000,99,0,0.000000,17,3.000000,21.530896,7.336744,99,99,0,0,0,0,0
7,79999,26,70000,22,50000,40,9999,0.100000,99,0,0.000000,16,0.000000,27.110909,2.846330,99,99,0,0,0,0,0
7,79999,27,70000,55,10000,40,9999,0.100000,99,0,0.000000,17,0.000000,29.398223,16.898373,99,99,0,0,0,0,0
7,79999,28,70000,10,10000,40,9999,0.100000,99,0,0.000000,17,0.000000,23.111099,0.765018,99,99,0,0,0,0,0
7,79999,29,70000,0,30000,0,9999,0.100000,99,0,0.292092,17,0.000000,26.799701,0.922143,99,99,0,0,0,1,0
7,79999,30,70000,26,0,40,9999,0.100000,99,0,0.000000,16,0.000000,33.460786,0.316175,99,99,0,0,0,0,0
7,79999,31,70000,7,10000,41,9999,0.100000,99,0,0.000000,17,4.000000,25.783748,17.635113,99,99,0,0,0,0,0
7,79999,32,70000,26,0,40,9999,0.100000,99,0,0.000000,16,0.000000,18.245001,0.424808,99,99,0,0,0,0,0
7,79999,33,70000,10,10000,40,9999,0.100000,99,0,0.000000,16,0.000000,28.824790,0.901744,99,99,0,0,0,0,0
7,79999,34,70000,13,60000,1,9999,0.100000,99,0,27.090327,17,5.000000,25.461854,13.065282,99,99,0,1,0,0,0
7,79999,35,70000,7,10000,0,9999,0.100000,99,0,0.061250,17,0.000000,26.284483,0.297382,99,99,0,0,1,0,0
7,79999,36,70000,0,30000,40,9999,0.100000,99,0,0.000000,17,0.000000,16.696519,0.629944,99,99,0,0,0,0,0
7,79999,37,70000,47,20000,0,9999,0.100000,99,0,10.847877,17,2.000000,34.235729,3.295357,99,99,0,0,1,0,0
7,79999,38,70000,80,0,40,9999,0.100000,99,0,0.000000,16,0.000000,36.066643,1.043291,99,99,0,0,0,0,0
7,79999,39,70000,26,0,91,9999,0.100000,99,0,31.847318,17,6.000000,33.209151,19.993800,99,99,1,0,0,0,0
7,79999,40,70000,7,10000,40,9999,0.100000,99,0,0.000000,17,0.000000,32.195356,0.144440,99,99,0,0,0,0,0
7,79999,41,70000,67,0,40,9999,0.100000,99,0,0.000000,16,1.000000,35.395692,5.785443,99,99,0,0,0,0,0
7,79999,42,70000,4,50000,40,9999,0.100000,99,0,0.000000,17,0.000000,31.140667,0.860011,99,99,0,0,0,0,0
7,79999,43,70000,10,10000,0,9999,0.100000,99,0,0.045781,17,0.000000,13.479155,1.327468,99,99,0,0,0,0,1
7,79999,44,70000,67,0,40,9999,0.100000,99,0,0.000000,17,0.000000,29.392006,6.300186,99,99,0,0,0,0,0
7,79999,45,70000,7,10000,40,9999,0.100000,99,0,0.000000,17,0.000000,26.738060,6.014448,99,99,0,0,0,0,0
7,79999,46,70000,22,50000,40,9999,0.100000,99,0,0.000000,17,0.000000,27.270189,0.803764,99,99,0,0,0,0,0
7,79999,47,70000,10,30000,40,9999,0.100000,99,0,0.000000,17,0.000000,21.407543,0.236788,99,99,0,0,0,0,0
7,79999,48,70000,43,50000,40,9999,0.100000,99,0,0.000000,16,1.000000,35.406913,4.887866,99,99,0,0,0,0,0
7,79999,49,70000,13,60000,40,9999,0.100000,99,0,0.000000,17,0.000000,21.547768,0.974285,99,99,0,0,0,0,0
7,79999,50,70000,22,50000,90,9999,0.100000,99,0,0.183487,17,0.000000,22.921111,0.547817,99,99,1,0,0,0,0
7,79999,51,70000,14,10000,40,9999,0.100000,99,0,0.000000,16,1.000000,35.355039,9.701200,99,99,0,0,0,0,0
7,79999,52,70000,14,10000,0,9999,0.100000,99,0,0.002355,17,0.000000,25.324249,0.136827,99,99,0,0,0,1,0
7,79999,53,70000,13,60000,90,9999,0.100000,99,0,0.337802,17,0.000000,23.533573,0.611592,99,99,1,0,0,0,0
7,79999,54,70000,7,10000,40,9999,0.100000,99,0,0.000000,17,2.000000,29.903861,4.378164,99,99,0,0,0,0,0
7,79999,55,70000,0,30000,40,9999,0.100000,99,0,0.000000,16,0.000000,30.279551,2.819395,99,99,0,0,0,0,0
7,79999,56,70000,7,10000,41,9999,0.100000,99,0,0.000000,17,5.000000,32.036423,16.935705,99,99,0,0,0,0,0
7,79999,57,70000,67,0,40,9999,0.100000,99,0,0.000000,17,0.000000,29.348292,6.026222,99,99,0,0,0,0,0
7,79999,58,70000,7,10000,40,9999,0.100000,99,0,0.000000,16,0.000000,27.029355,1.082348,99,99,0,0,0,0,0
7,79999,59,70000,34,60000,0,9999,0.100000,99,0,0.497105,17,0.000000,18.644110,0.170604,99,99,0,0,0,0,1
7,79999,60,70000,10,10000,40,9999,0.100000,99,0,0.000000,17,1.000000,25.745098,3.953510,99,99,0,0,0,0,0
7,79999,61,70000,24,30000,40,9999,0.100000,99,0,0.000000,16,0.000000,20.945782,1.985206,99,99,0,0,0,0,0
7,79999,62,70000,80,0,40,9999,0.100000,99,0,0.000000,17,2.000000,29.530463,10.725297,99,99,0,0,0,0,0
7,79999,63,70000,66,60000,40,9999,0.100000,99,0,0.000000,17,1.000000,27.347876,5.711292,99,99,0,0,0,0,0
7,79999,64,70000,10,30000,40,9999,0.100000,99,0,0.000000,17,0.000000,34.003307,0.250583,99,99,0,0,0,0,0
7,79999,65,70000,24,30000,40,9999,0.100000,99,0,0.000000,17,0.000000,26.454850,0.976899,99,99,0,0,0,0,0
7,79999,66,70000,60,0,42,9999,0.100000,99,0,0.000000,16,4.000000,18.116216,15.371419,99,99,0,0,0,0,0
7,79999,67,70000,47,20000,40,9999,0.100000,99,0,0.000000,17,0.000000,28.993713,1.093886,99,99,0,0,0,0,0
7,79999,68,70000,80,0,40,9999,0.100000,99,0,0.000000,17,0.000000,15.705770,2.493053,99,99,0,0,0,0,0
7,79999,69,70000,26,0,40,9999,0.100000,99,0,0.000000,17,0.000000,36.784104,0.180972,99,99,0,0,0,0,0
7,79999,70,70000,10,10000,41,9999,0.100000,99,0,0.000000,17,4.000000,32.290608,6.984017,99,99,0,0,0,0,0
7,79999,71,70000,13,60000,40,9999,0.100000,99,0,0.000000,17,0.000000,25.296819,0.158170,99,99,0,0,0,0,0
7,79999,72,70000,22,50000,40,9999,0.100000,99,0,0.000000,17,0.000000,19.044119,0.111685,99,99,0,0,0,0,0
7,79999,73,70000,10,30000,40,9999,0.100000,99,0,0.000000,16,0.000000,13.748083,3.872722,99,99,0,0,0,0,0
7,79999,74,70000,7,10000,40,9999,0.100000,99,0,0.000000,17,2.000000,36.549951,3.962778,99,99,0,0,0,0,0
7,79999,75,70000,67,0,40,9999,0.100000,99,0,0.000000,17,0.000000,27.160516,0.141114,99,99,0,0,0,0,0
7,79999,76,70000,66,60000,41,9999,0.100000,99,0,0.000000,17,3.000000,28.005363,6.438867,99,99,0,0,0,0,0
7,79999,77,70000,60,0,40,9999,0.100000,99,0,0.000000,17,0.000000,27.404887,0.122427,99,99,0,0,0,0,0
7,79999,78,70000,43,50000,40,9999,0.100000,99,0,0.000000,17,0.000000,13.320466,0.850869,99,99,0,0,0,0,0
7,79999,79,70000,47,20000,40,9999,0.100000,99,0,0.000000,17,0.000000,31.355128,0.982811,99,99,0,0,0,0,0
7,79999,80,70000,10,10000,41,9999,0.100000,99,0,0.000000,17,6.000000,29.492378,11.047841,99,99,0,0,0,0,0
7,79999,81,70000,7,10000,97,9999,0.100000,99,0,68.220872,17,17.000000,21.460723,26.151222,99,99,1,0,0,0,0
7,79999,82,70000,10,30000,43,9999,0.100000,99,0,0.000000,17,8.000000,24.485696,17.790326,99,99,0,0,0,0,0
7,79999,83,70000,67,0,40,9999,0.100000,99,0,0.000000,17,0.000000,27.412967,1.241686,99,99,0,0,0,0,0
7,79999,84,70000,10,30000,2,9999,0.100000,99,0,26.729701,17,6.000000,25.580272,18.714296,99,99,0,1,0,0,0
7,79999,85,70000,10,10000,40,9999,0.100000,99,0,0.000000,17,3.000000,35.157349,15.461365,99,99,0,0,0,0,0
7,79999,86,70000,55,10000,41,9999,0.100000,99,0,0.000000,17,5.000000,28.118649,11.157987,99,99,0,0,0,0,0
7,79999,87,70000,13,60000,41,9999,0.100000,99,0,0.000000,17,3.000000,21.139375,14.583371,99,99,0,0,0,0,0
7,79999,88,70000,67,0,40,9999,0.100000,99,0,0.000000,17,0.000000,15.714764,2.687931,99,99,0,0,0,0,0
7,79999,89,70000,66,60000,40,9999,0.100000,99,0,0.000000,17,0.000000,25.375592,0.065843,99,99,0,0,0,0,0
7,79999,90,70000,60,0,40,9999,0.100000,99,0,0.000000,17,2.000000,33.963202,3.111694,99,99,0,0,0,0,0
7,79999,91,70000,14,10000,40,9999,0.100000,99,0,0.000000,17,0.000000,26.569868,0.890686,99,99,0,0,0,0,0
7,79999,92,70000,67,0,0,9999,0.100000,99,0,0.208155,17,0.000000,16.090965,0.592371,99,99,0,0,0,1,0
7,79999,93,70000,10,30000,40,9999,0.100000,99,0,0.000000,17,2.000000,34.444303,3.672083,99,99,0,0,0,0,0
7,79999,94,70000,66,60000,40,9999,0.100000,99,0,0.000000,17,0.000000,26.320515,0.880932,99,99,0,0,0,0,0
7,79999,95,70000,80,0,0,9999,0.100000,99,0,0.076157,17,0.000000,14.395043,0.151764,99,99,0,0,0,0,1
7,79999,96,70000,4,50000,40,9999,0.100000,99,0,0.000000,17,0.000000,31.098037,0.141394,99,99,0,0,0,0,0
7,79999,97,70000,0,30000,40,9999,0.100000,99,0,0.000000,17,0.000000,13.508186,0.630372,99,99,0,0,0,0,0
7,79999,98,70000,80,0,40,9999,0.100000,99,0,0.000000,16,1.000000,28.481781,16.707014,99,99,0,0,0,0,0
7,79999,99,70000,55,10000,40,9999,0.100000,99,0,0.000000,17,2.000000,29.543574,10.542240,99,99,0,0,0,0,0
8,89999,0,80000,10,10000,41,9999,0.100000,99,0,0.000000,17,5.000000,29.513696,17.520692,99,99,0,0,0,0,0
8,89999,1,80000,10,30000,1,9999,0.100000,99,0,7.095018,17,5.000000,28.756421,6.391444,99,99,0,0,0,1,0
8,89999,2,80000,43,50000,0,9999,0.100000,99,0,0.170279,17,0.000000,23.546851,0.879229,99,99,0,0,0,0,1
8,89999,3,80000,43,50000,41,9999,0.100000,99,0,0.000000,17,5.000000,28.816057,15.563904,99,99,0,0,0,0,0
8,89999,4,80000,7,10000,40,9999,0.100000,99,0,0.000000,17,3.000000,28.930468,16.654154,99,99,0,0,0,0,0
8,89999,5,80000,34,60000,40,9999,0.100000,99,0,0.000000,17,1.000000,26.672991,2.148273,99,99,0,0,0,0,0
8,89999,6,80000,14,10000,42,9999,0.100000,99,0,0.000000,17,7.000000,26.922377,11.909281,99,99,0,0,0,0,0
8,89999,7,80000,10,30000,40,9999,0.100000,99,0,0.000000,17,0.000000,23.312910,0.916932,99,99,0,0,0,0,0
8,89999,8,80000,14,10000,40,9999,0.100000,99,0,0.000000,17,0.000000,22.829423,0.493848,99,99,0,0,0,0,0
8,89999,9,80000,34,60000,40,9999,0.100000,99,0,0.000000,17,2.000000,31.353993,6.586064,99,99,0,0,0,0,0
8,89999,10,80000,55,10000,40,9999,0.100000,99,0,0.000000,17,0.000000,24.477776,7.925106,99,99,0,0,0,0,0
8,89999,11,80000,34,60000,0,9999,0.100000,99,0,0.934206,17,0.000000,20.892658,0.376772,99,99,0,1,0,0,0
8,89999,12,80000,24,30000,0,9999,0.100000,99,0,2.867369,17,1.000000,27.042169,1.610301,99,99,0,0,1,0,0
8,89999,13,80000,55,10000,40,9999,0.100000,99,0,0.000000,17,0.000000,10.267360,3.321606,99,99,0,0,0,0,0
8,89999,14,80000,10,10000,40,9999,0.100000,99,0,0.000000,17,2.000000,22.885297,8.455148,99,99,0,0,0,0,0
8,89999,15,80000,34,60000,41,9999,0.100000,99,0,0.000000,17,3.000000,27.555719,3.921635,99,99,0,0,0,0,0
8,89999,16,80000,22,50000,40,9999,0.100000,99,0,0.000000,17,0.000000,31.842459,1.384656,99,99,0,0,0,0,0
8,89999,17,80000,10,10000,40,9999,0.100000,99,0,0.000000,17,2.000000,30.262659,4.176982,99,99,0,0,0,0,0
8,89999,18,80000,10,30000,40,9999,0.100000,99,0,0.000000,17,1.000000,31.129031,1.429574,99,99,0,0,0,0,0
8,89999,19,80000,60,0,40,9999,0.100000,99,0,0.000000,17,0.000000,23.821844,0.873640,99,99,0,0,0,0,0
8,89999,20,80000,10,10000,40,9999,0.100000,99,0,0.000000,17,0.000000,27.451980,1.082824,99,99,0,0,0,0,0
8,89999,21,80000,13,60000,0,9999,0.100000,99,0,0.439860,17,0.000000,26.788665,0.262829,99,99,0,0,0,0,1
8,89999,22,80000,67,0,40,9999,0.100000,99,0,0.000000,17,1.000000,25.228316,12.098263,99,99,0,0,0,0,0
8,89999,23,80000,7,10000,40,9999,0.100000,99,0,0.000000,17,0.000000,32.492532,0.741258,99,99,0,0,0,0,0
8,89999,24,80000,66,60000,40,9999,0.100000,99,0,0.000000,17,3.000000,35.637024,20.602322,99,99,0,0,0,0,0
8,89999,25,80000,80,0,41,9999,0.100000,99,0,0.000000,17,3.000000,24.295659,8.293767,99,99,0,0,0,0,0
8,89999,26,80000,47,20000,44,9999,0.100000,99,0,0.000000,17,14.000000,27.640844,16.409729,99,99,0,0,0,0,0
8,89999,27,80000,14,10000,41,9999,0.100000,99,0,0.000000,17,6.000000,28.984035,14.216247,99,99,0,0,0,0,0
8,89999,28,80000,14,10000,40,9999,0.100000,99,0,0.000000,17,0.000000,23.061441,0.571442,99,99,0,0,0,0,0
8,89999,29,80000,66,60000,0,9999,0.100000,99,0,7.637690,17,2.000000,27.143644,3.135491,99,99,0,0,0,1,0
8,89999,30,80000,34,60000,40,9999,0.100000,99,0,0.000000,17,0.000000,33.445024,0.241265,99,99,0,0,0,0,0
8,89999,31,80000,26,0,40,9999,0.100000,99,0,0.000000,17,1.000000,25.744503,5.904619,99,99,0,0,0,0,0
8,89999,32,80000,67,0,40,9999,0.100000,99,0,0.000000,17,0.000000,18.398252,0.440054,99,99,0,0,0,0,0
8,89999,33,80000,13,60000,41,9999,0.100000,99,0,0.000000,17,5.000000,28.407862,6.432099,99,99,0,0,0,0,0
8,89999,34,80000,26,0,40,9999,0.100000,99,0,0.000000,17,0.000000,26.375880,1.996763,99,99,0,0,0,0,0
8,89999,35,80000,24,30000,0,9999,0.100000,99,0,0.068273,17,0.000000,26.167246,0.304985,99,99,0,0,1,0,0
8,89999,36,80000,55,10000,40,9999,0.100000,99,0,0.000000,17,0.000000,16.673462,0.699994,99,99,0,0,0,0,0
8,89999,37,80000,80,0,41,9999,0.100000,99,0,0.000000,17,5.000000,35.758730,10.226599,99,99,0,0,0,0,0
8,89999,38,80000,34,60000,40,9999,0.100000,99,0,0.000000,17,1.000000,35.993873,3.583933,99,99,0,0,0,0,0
8,89999,39,80000,13,60000,41,9999,0.100000,99,0,0.000000,17,4.000000,35.517555,10.794123,99,99,0,0,0,0,0
8,89999,40,80000,43,50000,40,9999,0.100000,99,0,0.000000,17,0.000000,32.194491,0.135047,99,99,0,0,0,0,0
8,89999,41,80000,10,30000,40,9999,0.100000,99,0,0.000000,17,1.000000,34.837810,8.443003,99,99,0,0,0,0,0
8,89999,42,80000,10,30000,40,9999,0.100000,99,0,0.000000,17,0.000000,31.569404,0.137667,99,99,0,0,0,0,0
8,89999,43,80000,0,30000,0,9999,0.100000,99,0,0.236374,17,0.000000,13.245690,0.440385,99,99,0,0,0,0,1
8,89999,44,80000,22,50000,40,9999,0.100000,99,0,0.000000,17,2.000000,29.062799,6.490176,99,99,0,0,0,0,0
8,89999,45,80000,10,10000,40,9999,0.135000,99,0,0.000000,17,1.000000,26.770338,2.596383,99,99,0,0,0,0,0
8,89999,46,80000,13,60000,40,9999,0.100000,99,0,0.000000,17,0.000000,27.174764,0.771996,99,99,0,0,0,0,0
8,89999,47,80000,10,10000,40,9999,0.100000,99,0,0.000000,17,0.000000,21.408611,0.241723,99,99,0,0,0,0,0
8,89999,48,80000,43,50000,40,9999,0.100000,99,0,0.000000,17,0.000000,36.454150,0.870397,99,99,0,0,0,0,0
8,89999,49,80000,13,60000,40,9999,0.100000,99,0,0.000000,17,0.000000,20.808282,0.897405,99,99,0,0,0,0,0
8,89999,50,80000,22,50000,90,9999,0.100000,99,0,0.241035,17,0.000000,22.957629,0.549286,99,99,1,0,0,0,0
8,89999,51,80000,43,50000,40,9999,0.100000,99,0,0.000000,17,1.000000,34.830123,3.554945,99,99,0,0,0,0,0
8,89999,52,80000,13,60000,0,9999,0.100000,99,0,0.002035,17,0.000000,25.325037,0.133373,99,99,0,0,0,1,0
8,89999,53,80000,7,10000,90,9999,0.100000,99,0,0.620166,17,0.000000,23.489163,0.624454,99,99,1,0,0,0,0
8,89999,54,80000,13,60000,40,9999,0.100000,99,0,0.000000,17,0.000000,32.029145,0.145754,99,99,0,0,0,0,0
8,89999,55,80000,26,0,40,9999,0.100000,99,0,0.000000,17,3.000000,30.206999,5.573743,99,99,0,0,0,0,0
8,89999,56,80000,55,10000,40,9999,0.100000,99,0,0.000000,17,1.000000,28.062497,7.894857,99,99,0,0,0,0,0
8,89999,57,80000,43,50000,41,9999,0.100000,99,0,0.000000,17,5.000000,28.908696,7.178555,99,99,0,0,0,0,0
8,89999,58,80000,80,0,40,9999,0.100000,99,0,0.000000,17,2.000000,27.348909,4.420965,99,99,0,0,0,0,0
8,89999,59,80000,10,10000,0,9999,0.100000,99,0,0.670382,17,0.000000,18.752308,0.189300,99,99,0,0,0,0,1
8,89999,60,80000,22,50000,42,9999,0.100000,99,0,0.000000,17,6.000000,27.098221,11.205319,99,99,0,0,0,0,0
8,89999,61,80000,24,30000,40,9999,0.100000,99,0,0.000000,17,0.000000,20.873043,0.443716,99,99,0,0,0,0,0
8,89999,62,80000,60,0,41,9999,0.100000,99,0,0.000000,17,3.000000,26.897387,22.768673,99,99,0,0,0,0,0
8,89999,63,80000,55,10000,41,9999,0.100000,99,0,0.000000,17,3.000000,27.297362,23.187054,99,99,0,0,0,0,0
8,89999,64,80000,26,0,40,9999,0.100000,99,0,0.000000,17,0.000000,34.006270,0.225020,99,99,0,0,0,0,0
8,89999,65,80000,34,70000,40,9999,0.100000,99,0,0.000000,17,1.000000,26.534551,2.154955,99,99,0,0,0,0,0
8,89999,66,80000,66,60000,40,9999,0.100000,99,0,0.000000,17,0.000000,13.720910,2.203035,99,99,0,0,0,0,0
8,89999,67,80000,55,10000,41,9999,0.100000,99,0,0.000000,17,5.000000,28.575262,6.348089,99,99,0,0,0,0,0
8,89999,68,80000,10,30000,0,9999,0.100000,99,0,0.000000,17,0.000000,16.067298,0.548471,99,99,0,0,0,1,0
8,89999,69,80000,24,30000,40,9999,0.100000,99,0,0.000000,17,0.000000,36.777164,0.528545,99,99,0,0,0,0,0
8,89999,70,80000,43,50000,40,9999,0.100000,99,0,0.000000,17,3.000000,35.651511,14.113229,99,99,0,0,0,0,0
8,89999,71,80000,10,10000,40,9999,0.100000,99,0,0.000000,17,0.000000,25.297150,0.153589,99,99,0,0,0,0,0
8,89999,72,80000,60,0,40,9999,0.100000,99,0,0.000000,17,0.000000,19.125274,0.119353,99,99,0,0,0,0,0
8,89999,73,80000,22,50000,43,9999,0.100000,99,0,0.000000,17,5.000000,13.690143,7.493338,99,99,0,0,0,0,0
8,89999,74,80000,34,60000,40,9999,0.100000,99,0,0.000000,17,0.000000,37.370572,1.005042,99,99,0,0,0,0,0
8,89999,75,80000,34,60000,40,9999,0.100000,99,0,0.000000,17,0.000000,27.063623,0.260642,99,99,0,0,0,0,0
8,89999,76,80000,34,60000,42,9999,0.100000,99,0,0.000000,17,6.000000,24.919123,12.167532,99,99,0,0,0,0,0
8,89999,77,80000,7,10000,40,9999,0.100000,99,0,0.000000,17,0.000000,27.319117,0.341903,99,99,0,0,0,0,0
8,89999,78,80000,60,0,42,9999,0.100000,99,0,0.000000,17,3.000000,13.313003,8.498156,99,99,0,0,0,0,0
8,89999,79,80000,14,10000,40,9999,0.100000,99,0,0.000000,17,0.000000,31.646993,1.202183,99,99,0,0,0,0,0
8,89999,80,80000,26,0,40,9999,0.100000,99,0,0.000000,17,0.000000,34.642924,2.456582,99,99,0,0,0,0,0
8,89999,81,80000,47,20000,42,9999,0.100000,99,0,0.000000,17,9.000000,30.260178,17.800688,99,99,0,0,0,0,0
8,89999,82,80000,10,30000,41,9999,0.100000,99,0,0.000000,17,6.000000,30.996067,13.396028,99,99,0,0,0,0,0
8,89999,83,80000,34,70000,40,9999,0.100000,99,0,0.000000,17,0.000000,27.313613,1.272971,99,99,0,0,0,0,0
8,89999,84,80000,26,0,41,9999,0.100000,99,0,0.000000,17,6.000000,31.991734,12.715460,99,99,0,0,0,0,0
8,89999,85,80000,43,50000,40,9999,0.100000,99,0,0.000000,17,3.000000,33.005840,9.860851,99,99,0,0,0,0,0
8,89999,86,80000,7,10000,40,9999,0.100000,99,0,0.000000,17,2.000000,32.115203,3.884898,99,99,0,0,0,0,0
8,89999,87,80000,22,50000,40,9999,0.100000,99,0,0.000000,17,1.000000,21.582738,12.007314,99,99,0,0,0,0,0
8,89999,88,80000,67,0,40,9999,0.100000,99,0,0.000000,17,0.000000,16.231827,1.695841,99,99,0,0,0,0,0
8,89999,89,80000,13,60000,40,9999,0.100000,99,0,0.000000,17,0.000000,25.376885,0.065597,99,99,0,0,0,0,0
8,89999,90,80000,22,50000,40,9999,0.100000,99,0,0.000000,17,0.000000,35.629011,2.796141,99,99,0,0,0,0,0
8,89999,91,80000,60,0,40,9999,0.100000,99,0,0.000000,17,2.000000,26.934298,2.789509,99,99,0,0,0,0,0
8,89999,92,80000,10,10000,40,9999,0.100000,99,0,0.000000,17,0.000000,16.325885,0.322882,99,99,0,0,0,0,0
8,89999,93,80000,14,10000,40,9999,0.100000,99,0,0.000000,17,1.000000,35.849981,6.313065,99,99,0,0,0,0,0
8,89999,94,80000,34,70000,40,9999,0.100000,99,0,0.000000,17,0.000000,26.202896,0.989416,99,99,0,0,0,0,0
8,89999,95,80000,7,10000,0,9999,0.100000,99,0,0.001037,17,0.000000,14.362639,0.133120,99,99,0,0,0,0,1
8,89999,96,80000,24,30000,40,9999,0.100000,99,0,0.000000,17,0.000000,31.097553,0.138641,99,99,0,0,0,0,0
8,89999,97,80000,66,60000,42,9999,0.100000,99,0,0.000000,17,3.000000,13.489763,5.362192,99,99,0,0,0,0,0
8,89999,98,80000,13,60000,41,9999,0.100000,99,0,0.000000,17,5.000000,28.998250,16.306986,99,99,0,0,0,0,0
8,89999,99,80000,10,30000,40,9999,0.100000,99,0,0.000000,17,2.000000,27.749467,22.430406,99,99,0,0,0,0,0
9,99999,0,90000,14,10000,40,9999,0.100000,99,0,0.000000,17,3.000000,32.922902,12.328431,99,99,0,0,0,0,0
9,99999,1,90000,43,50000,0,9999,0.100000,99,0,7.070940,17,1.000000,31.925124,1.551031,99,99,0,0,0,1,0
9,99999,2,90000,10,10000,0,9999,0.100000,99,0,0.022534,17,0.000000,23.492611,0.820779,99,99,0,0,0,0,1
9,99999,3,90000,24,30000,41,9999,0.100000,99,0,0.000000,17,4.000000,33.285528,8.436562,99,99,0,0,0,0,0
9,99999,4,90000,60,0,41,9999,0.100000,99,0,0.000000,17,3.000000,25.985284,9.395390,99,99,0,0,0,0,0
9,99999,5,90000,10,30000,40,9999,0.100000,99,0,0.000000,17,2.000000,27.569078,5.360214,99,99,0,0,0,0,0
9,99999,6,90000,10,30000,40,9999,0.100000,99,0,0.000000,17,1.000000,28.032476,10.224008,99,99,0,0,0,0,0
9,99999,7,90000,55,10000,40,9999,0.100000,99,0,0.000000,17,0.000000,23.260352,0.937100,99,99,0,0,0,0,0
9,99999,8,90000,0,30000,40,9999,0.100000,99,0,0.000000,17,0.000000,22.782218,0.828232,99,99,0,0,0,0,0
9,99999,9,90000,80,0,40,9999,0.100000,99,0,0.000000,17,0.000000,32.815077,1.892569,99,99,0,0,0,0,0
9,99999,10,90000,22,50000,40,9999,0.100000,99,0,0.000000,17,2.000000,25.046880,8.964256,99,99,0,0,0,0,0
9,99999,11,90000,66,60000,0,9999,0.100000,99,0,0.251256,17,0.000000,21.139788,0.268096,99,99,0,1,0,0,0
9,99999,12,90000,47,20000,40,9999,0.100000,99,0,0.000000,17,2.000000,27.831473,5.518984,99,99,0,0,0,0,0
9,99999,13,90000,26,0,40,9999,0.100000,99,0,0.000000,17,0.000000,10.270456,2.359652,99,99,0,0,0,0,0
9,99999,14,90000,14,10000,41,9999,0.100000,99,0,0.000000,17,3.000000,23.487102,16.770779,99,99,0,0,0,0,0
9,99999,15,90000,10,10000,1,9999,0.100000,99,0,18.742712,17,3.000000,28.451169,5.356655,99,99,0,0,0,1,0
9,99999,16,90000,60,0,40,9999,0.100000,99,0,0.000000,17,0.000000,31.687572,1.186429,99,99,0,0,0,0,0
9,99999,17,90000,10,30000,0,9999,0.100000,99,0,0.992445,17,3.000000,28.696325,7.055051,99,99,0,0,0,1,0
9,99999,18,90000,0,30000,40,9999,0.100000,99,0,0.000000,17,1.000000,30.788758,1.738116,99,99,0,0,0,0,0
9,99999,19,90000,7,10000,40,9999,0.100000,99,0,0.000000,17,0.000000,23.767548,0.986696,99,99,0,0,0,0,0
9,99999,20,90000,66,60000,43,9999,0.100000,99,0,0.000000,17,10.000000,27.310741,13.233330,99,99,0,0,0,0,0
9,99999,21,90000,26,0,0,9999,0.100000,99,0,2.110305,17,0.000000,26.661887,1.310131,99,99,0,0,0,0,1
9,99999,22,90000,47,20000,43,9999,0.100000,99,0,0.000000,17,8.000000,24.947177,19.812731,99,99,0,0,0,0,0
9,99999,23,90000,26,0,40,9999,0.100000,99,0,0.000000,17,0.000000,32.664923,0.937140,99,99,0,0,0,0,0
9,99999,24,90000,24,30000,40,9999,0.100000,99,0,0.000000,17,2.000000,35.128582,13.099643,99,99,0,0,0,0,0
9,99999,25,90000,13,60000,40,9999,0.100000,99,0,0.000000,17,1.000000,24.545055,9.533328,99,99,0,0,0,0,0
9,99999,26,90000,34,70000,0,9999,0.100000,99,0,0.803087,17,1.000000,29.892034,3.422005,99,99,0,0,1,0,0
9,99999,27,90000,55,10000,40,9999,0.100000,99,0,0.000000,17,1.000000,34.981317,7.342500,99,99,0,0,0,0,0
9,99999,28,90000,67,0,40,9999,0.100000,99,0,0.000000,17,0.000000,23.011742,0.517689,99,99,0,0,0,0,0
9,99999,29,90000,26,0,41,9999,0.100000,99,0,0.000000,17,3.000000,27.988599,5.173426,99,99,0,0,0,0,0
9,99999,30,90000,60,0,40,9999,0.100000,99,0,0.000000,17,0.000000,33.445925,0.242502,99,99,0,0,0,0,0
9,99999,31,90000,24,30000,43,9999,0.100000,99,0,0.000000,17,8.000000,23.908105,11.611040,99,99,0,0,0,0,0
9,99999,32,90000,24,30000,40,9999,0.100000,99,0,0.000000,17,0.000000,18.586891,0.370678,99,99,0,0,0,0,0
9,99999,33,90000,26,80000,40,9999,0.100000,99,0,0.000000,17,1.000000,31.595186,2.158415,99,99,0,0,0,0,0
9,99999,34,90000,22,50000,41,9999,0.100000,99,0,0.000000,17,4.000000,25.957121,24.430924,99,99,0,0,0,0,0
9,99999,35,90000,66,60000,0,9999,0.100000,99,0,0.215614,17,0.000000,26.027688,0.428067,99,99,0,0,1,0,0
9,99999,36,90000,47,20000,40,9999,0.100000,99,0,0.000000,17,0.000000,17.050957,0.610981,99,99,0,0,0,0,0
9,99999,37,90000,10,30000,41,9999,0.100000,99,0,0.000000,17,5.000000,29.989722,12.511802,99,99,0,0,0,0,0
9,99999,38,90000,26,0,40,9999,0.100000,99,0,0.000000,17,1.000000,35.923180,4.107340,99,99,0,0,0,0,0
9,99999,39,90000,10,10000,41,9999,0.100000,99,0,0.000000,17,5.000000,31.345188,13.275166,99,99,0,0,0,0,0
9,99999,40,90000,10,30000,40,9999,0.100000,99,0,0.000000,17,0.000000,32.193393,0.137251,99,99,0,0,0,0,0
9,99999,41,90000,22,50000,40,9999,0.100000,99,0,0.000000,17,3.000000,35.471428,9.478947,99,99,0,0,0,0,0
9,99999,42,90000,67,0,40,9999,0.100000,99,0,0.000000,17,0.000000,31.568839,0.138558,99,99,0,0,0,0,0
9,99999,43,90000,24,30000,42,9999,0.100000,99,0,0.000000,17,3.000000,13.184501,4.602626,99,99,0,0,0,0,0
9,99999,44,90000,66,60000,40,9999,0.100000,99,0,0.000000,17,3.000000,30.066490,19.241234,99,99,0,0,0,0,0
9,99999,45,90000,80,0,40,9999,0.100000,99,0,0.000000,17,2.000000,27.435000,4.334525,99,99,0,0,0,0,0
9,99999,46,90000,0,30000,40,9999,0.100000,99,0,0.000000,17,0.000000,27.072802,0.839593,99,99,0,0,0,0,0
9,99999,47,90000,66,60000,40,9999,0.100000,99,0,0.000000,17,0.000000,21.408113,0.242422,99,99,0,0,0,0,0
9,99999,48,90000,13,60000,40,9999,0.100000,99,0,0.000000,17,0.000000,36.718131,0.850556,99,99,0,0,0,0,0
9,99999,49,90000,22,50000,41,9999,0.100000,99,0,0.000000,17,4.000000,20.147822,8.903135,99,99,0,0,0,0,0
9,99999,50,90000,10,30000,90,9999,0.100000,99,0,0.213819,17,0.000000,22.994581,0.571839,99,99,1,0,0,0,0
9,99999,51,90000,67,0,40,9999,0.100000,99,0,0.000000,17,1.000000,34.978141,9.740667,99,99,0,0,0,0,0
9,99999,52,90000,26,0,40,9999,0.100000,99,0,0.000000,17,1.000000,25.325823,1.228076,99,99,0,0,0,0,0
9,99999,53,90000,80,0,90,9999,0.100000,99,0,0.689493,17,0.000000,23.389169,0.679687,99,99,1,0,0,0,0
9,99999,54,90000,66,60000,40,9999,0.100000,99,0,0.000000,17,0.000000,32.028271,0.138068,99,99,0,0,0,0,0
9,99999,55,90000,47,20000,40,9999,0.100000,99,0,0.000000,17,0.000000,29.802194,0.126941,99,99,0,0,0,0,0
9,99999,56,90000,34,70000,41,9999,0.100000,99,0,0.000000,17,3.000000,27.720121,16.444162,99,99,0,0,0,0,0
9,99999,57,90000,47,20000,40,9999,0.100000,99,0,0.000000,17,1.000000,32.065336,2.600919,99,99,0,0,0,0,0
9,99999,58,90000,22,50000,41,9999,0.100000,99,0,0.000000,17,3.000000,28.155984,5.354197,99,99,0,0,0,0,0
9,99999,59,90000,10,30000,0,9999,0.100000,99,0,0.360971,17,0.000000,18.887557,0.168556,99,99,0,0,0,0,1
9,99999,60,90000,24,30000,41,9999,0.100000,99,0,0.000000,17,4.000000,27.217871,11.128102,99,99,0,0,0,0,0
9,99999,61,90000,66,60000,40,9999,0.100000,99,0,0.000000,17,0.000000,21.090169,0.404584,99,99,0,0,0,0,0
9,99999,62,90000,10,10000,41,9999,0.100000,99,0,0.000000,17,4.000000,27.380904,14.683962,99,99,0,0,0,0,0
9,99999,63,90000,10,30000,41,9999,0.100000,99,0,0.000000,17,3.000000,27.782637,18.675604,99,99,0,0,0,0,0
9,99999,64,90000,22,50000,40,9999,0.100000,99,0,0.000000,17,0.000000,34.007776,0.240646,99,99,0,0,0,0,0
9,99999,65,90000,34,70000,40,9999,0.100000,99,0,0.000000,17,2.000000,27.593840,6.402399,99,99,0,0,0,0,0
9,99999,66,90000,66,60000,43,9999,0.100000,99,0,0.000000,17,5.000000,13.202795,7.164601,99,99,0,0,0,0,0
9,99999,67,90000,24,30000,40,9999,0.100000,99,0,0.000000,17,1.000000,31.753192,1.883599,99,99,0,0,0,0,0
9,99999,68,90000,22,50000,0,9999,0.100000,99,0,0.069139,17,0.000000,16.151358,0.250500,99,99,0,0,0,1,0
9,99999,69,90000,22,50000,40,9999,0.100000,99,0,0.000000,17,0.000000,36.871557,0.865784,99,99,0,0,0,0,0
9,99999,70,90000,26,80000,41,9999,0.100000,99,0,0.000000,17,4.000000,34.154814,16.467432,99,99,0,0,0,0,0
9,99999,71,90000,47,20000,40,9999,0.100000,99,0,0.000000,17,0.000000,25.297663,1.076505,99,99,0,0,0,0,0
9,99999,72,90000,26,80000,40,9999,0.100000,99,0,0.000000,17,0.000000,19.213192,0.097658,99,99,0,0,0,0,0
9,99999,73,90000,7,10000,40,9999,0.100000,99,0,0.000000,17,0.000000,19.150016,0.244813,99,99,0,0,0,0,0
9,99999,74,90000,67,0,40,9999,0.100000,99,0,0.000000,17,0.000000,36.871253,0.930695,99,99,0,0,0,0,0
9,99999,75,90000,26,0,40,9999,0.100000,99,0,0.000000,17,0.000000,26.951016,1.146792,99,99,0,0,0,0,0
9,99999,76,90000,10,30000,42,9999,0.100000,99,0,0.000000,17,5.000000,21.053412,10.761053,99,99,0,0,0,0,0
9,99999,77,90000,26,0,40,9999,0.100000,99,0,0.000000,17,0.000000,27.224784,1.269324,99,99,0,0,0,0,0
9,99999,78,90000,26,80000,41,9999,0.100000,99,0,0.000000,17,2.000000,15.238131,7.652367,99,99,0,0,0,0,0
9,99999,79,90000,66,60000,40,9999,0.100000,99,0,0.000000,17,0.000000,31.613723,1.536230,99,99,0,0,0,0,0
9,99999,80,90000,55,10000,40,9999,0.100000,99,0,0.000000,17,0.000000,35.115064,1.451308,99,99,0,0,0,0,0
9,99999,81,90000,14,10000,41,9999,0.100000,99,0,0.000000,17,4.000000,28.753772,10.675949,99,99,0,0,0,0,0
9,99999,82,90000,55,10000,40,9999,0.100000,99,0,0.000000,17,0.000000,26.780963,1.081524,99,99,0,0,0,0,0
9,99999,83,90000,34,70000,40,9999,0.100000,99,0,0.000000,17,1.000000,27.200204,1.858640,99,99,0,0,0,0,0
9,99999,84,90000,34,70000,40,9999,0.100000,99,0,0.000000,17,1.000000,32.145516,10.700894,99,99,0,0,0,0,0
9,99999,85,90000,55,10000,40,9999,0.100000,99,0,0.000000,17,3.000000,30.986018,8.905198,99,99,0,0,0,0,0
9,99999,86,90000,66,60000,40,9999,0.100000,99,0,0.000000,17,0.000000,34.163627,0.948205,99,99,0,0,0,0,0
9,99999,87,90000,55,10000,40,9999,0.100000,99,0,0.000000,17,0.000000,22.289717,6.440244,99,99,0,0,0,0,0
9,99999,88,90000,7,10000,40,9999,0.100000,99,0,0.000000,17,0.000000,16.310254,0.491905,99,99,0,0,0,0,0
9,99999,89,90000,26,0,40,9999,0.100000,99,0,0.000000,17,1.000000,25.377967,1.442298,99,99,0,0,0,0,0
9,99999,90,90000,10,10000,40,9999,0.100000,99,0,0.000000,17,3.000000,35.784444,14.488695,99,99,0,0,0,0,0
9,99999,91,90000,60,0,41,9999,0.100000,99,0,0.000000,17,4.000000,27.734575,5.091028,99,99,0,0,0,0,0
9,99999,92,90000,26,0,40,9999,0.100000,99,0,0.000000,17,0.000000,16.538998,0.511235,99,99,0,0,0,0,0
9,99999,93,90000,34,70000,40,9999,0.100000,99,0,0.000000,17,0.000000,36.291301,6.095049,99,99,0,0,0,0,0
9,99999,94,90000,34,70000,40,9999,0.100000,99,0,0.000000,17,0.000000,26.062220,0.964613,99,99,0,0,0,0,0
9,99999,95,90000,66,60000,0,9999,0.135000,99,0,0.008798,17,0.000000,14.362590,0.099752,99,99,0,0,0,0,1
9,99999,96,90000,0,30000,40,9999,0.100000,99,0,0.000000,17,0.000000,31.097357,0.142769,99,99,0,0,0,0,0
9,99999,97,90000,26,80000,40,9999,0.100000,99,0,0.000000,17,0.000000,13.703874,1.130070,99,99,0,0,0,0,0
9,99999,98,90000,10,30000,42,9999,0.100000,99,0,0.000000,17,9.000000,31.567888,15.625541,99,99,0,0,0,0,0
9,99999,99,90000,34,70000,40,9999,0.100000,99,0,0.000000,17,2.000000,27.372215,21.370389,99,99,0,0,0,0,0
10,109999,0,100000,24,30000,40,9999,0.100000,99,0,0.000000,17,1.000000,34.155526,12.479452,99,99,0,0,0,0,0
10,109999,1,100000,14,10000,0,9999,0.100000,99,0,11.422672,17,2.000000,31.540520,3.504085,99,99,0,0,0,1,0
10,109999,2,100000,80,0,0,9999,0.100000,99,0,0.113487,17,0.000000,23.458942,0.773555,99,99,0,0,0,0,1
10,109999,3,100000,66,60000,40,9999,0.100000,99,0,0.000000,17,1.000000,36.296064,16.056823,99,99,0,0,0,0,0
10,109999,4,100000,80,0,40,9999,0.100000,99,0,0.000000,17,2.000000,23.480920,5.740169,99,99,0,0,0,0,0
10,109999,5,100000,47,20000,40,9999,0.100000,99,0,0.000000,17,2.000000,29.706909,14.189320,99,99,0,0,0,0,0
10,109999,6,100000,66,60000,40,9999,0.100000,99,0,0.000000,17,0.000000,27.838125,1.015896,99,99,0,0,0,0,0
10,109999,7,100000,80,0,40,9999,0.100000,99,0,0.000000,17,0.000000,23.227629,0.912536,99,99,0,0,0,0,0
10,109999,8,100000,47,20000,40,9999,0.100000,99,0,0.000000,17,0.000000,22.756090,0.646821,99,99,0,0,0,0,0
10,109999,9,100000,22,50000,40,9999,0.100000,99,0,0.000000,17,0.000000,33.064531,1.542619,99,99,0,0,0,0,0
10,109999,10,100000,14,10000,40,9999,0.100000,99,0,0.000000,17,1.000000,22.917525,14.328256,99,99,0,0,0,0,0
10,109999,11,100000,26,80000,0,9999,0.100000,99,0,0.138502,17,0.000000,21.162960,0.294260,99,99,0,1,0,0,0
10,109999,12,100000,10,30000,40,9999,0.100000,99,0,0.000000,17,1.000000,29.517555,16.033245,99,99,0,0,0,0,0
10,109999,13,100000,47,20000,40,9999,0.100000,99,0,0.000000,17,0.000000,10.254748,0.123415,99,99,0,0,0,0,0
10,109999,14,100000,66,60000,40,9999,0.100000,99,0,0.000000,17,0.000000,19.826815,23.833686,99,99,0,0,0,0,0
10,109999,15,100000,10,30000,40,9999,0.100000,99,0,0.000000,17,3.000000,29.416472,4.031853,99,99,0,0,0,0,0
10,109999,16,100000,24,30000,40,9999,0.100000,99,0,0.000000,17,0.000000,31.415781,1.283277,99,99,0,0,0,0,0
10,109999,17,100000,7,10000,0,9999,0.100000,99,0,0.217311,17,0.000000,25.768603,0.613036,99,99,0,0,0,1,0
10,109999,18,100000,14,10000,41,9999,0.100000,99,0,0.000000,17,4.000000,30.416606,10.971765,99,99,0,0,0,0,0
10,109999,19,100000,14,10000,40,9999,0.100000,99,0,0.000000,17,0.000000,23.732382,0.998916,99,99,0,0,0,0,0
10,109999,20,100000,0,30000,40,9999,0.100000,99,0,0.000000,17,1.000000,35.924162,4.608744,99,99,0,0,0,0,0
10,109999,21,100000,55,10000,1,9999,0.100000,99,0,5.285427,17,3.000000,27.070627,3.496275,99,99,0,0,0,0,1
10,109999,22,100000,80,0,42,9999,0.100000,99,0,0.000000,17,5.000000,17.507526,10.802424,99,99,0,0,0,0,0
10,109999,23,100000,47,20000,40,9999,0.100000,99,0,0.000000,17,0.000000,32.876505,1.759022,99,99,0,0,0,0,0
10,109999,24,100000,10,30000,41,9999,0.100000,99,0,0.000000,17,4.000000,33.235899,15.226162,99,99,0,0,0,0,0
10,109999,25,100000,22,50000,43,9999,0.100000,99,0,0.000000,17,10.000000,23.998534,22.134324,99,99,0,0,0,0,0
10,109999,26,100000,10,30000,0,9999,0.100000,99,0,0.985373,17,0.000000,29.318922,0.757532,99,99,0,0,1,0,0
10,109999,27,100000,13,60000,40,9999,0.100000,99,0,0.000000,17,2.000000,34.131441,7.467634,99,99,0,0,0,0,0
10,109999,28,100000,22,50000,40,9999,0.100000,99,0,0.000000,17,0.000000,22.983253,0.426782,99,99,0,0,0,0,0
10,109999,29,100000,13,60000,41,9999,0.100000,99,0,0.000000,17,4.000000,28.965387,4.241708,99,99,0,0,0,0,0
10,109999,30,100000,47,20000,40,9999,0.100000,99,0,0.000000,17,0.000000,33.446131,0.323452,99,99,0,0,0,0,0
10,109999,31,100000,10,30000,45,9999,0.100000,99,0,0.000000,17,9.000000,15.932925,14.825899,99,99,0,0,0,0,0
10,109999,32,100000,22,50000,40,9999,0.100000,99,0,0.000000,17,0.000000,18.701213,0.391691,99,99,0,0,0,0,0
10,109999,33,100000,60,0,40,9999,0.100000,99,0,0.000000,17,1.000000,31.111035,10.845171,99,99,0,0,0,0,0
10,109999,34,100000,22,50000,43,9999,0.100000,99,0,0.000000,17,8.000000,25.290993,22.477815,99,99,0,0,0,0,0
10,109999,35,100000,24,30000,40,9999,0.100000,99,0,0.000000,17,0.000000,25.862359,2.997447,99,99,0,0,0,0,0
10,109999,36,100000,7,10000,41,9999,0.100000,99,0,0.000000,17,3.000000,17.289813,4.397849,99,99,0,0,0,0,0
10,109999,37,100000,14,10000,41,9999,0.100000,99,0,0.000000,17,3.000000,27.724617,4.866500,99,99,0,0,0,0,0
10,109999,38,100000,0,30000,40,9999,0.100000,99,0,0.000000,17,2.000000,35.778913,10.334640,99,99,0,0,0,0,0
10,109999,39,100000,60,0,40,9999,0.100000,99,0,0.000000,17,0.000000,33.251037,0.887916,99,99,0,0,0,0,0
10,109999,40,100000,55,10000,40,9999,0.100000,99,0,0.000000,17,0.000000,32.192716,0.135404,99,99,0,0,0,0,0
10,109999,41,100000,10,30000,40,9999,0.100000,99,0,0.000000,17,0.000000,33.100917,6.390185,99,99,0,0,0,0,0
10,109999,42,100000,47,20000,40,9999,0.100000,99,0,0.000000,17,0.000000,31.568598,0.182212,99,99,0,0,0,0,0
10,109999,43,100000,60,0,40,9999,0.100000,99,0,0.000000,17,1.000000,12.815281,2.424930,99,99,0,0,0,0,0
10,109999,44,100000,24,30000,40,9999,0.100000,99,0,0.000000,17,2.000000,30.213024,10.340922,99,99,0,0,0,0,0
10,109999,45,100000,26,80000,40,9999,0.100000,99,0,0.000000,17,0.000000,29.443670,4.271687,99,99,0,0,0,0,0
10,109999,46,100000,34,70000,41,9999,0.100000,99,0,0.000000,17,3.000000,27.427553,4.112942,99,99,0,0,0,0,0
10,109999,47,100000,13,60000,40,9999,0.100000,99,0,0.000000,17,0.000000,21.411681,0.224606,99,99,0,0,0,0,0
10,109999,48,100000,0,30000,40,9999,0.100000,99,0,0.000000,17,0.000000,36.788718,0.819769,99,99,0,0,0,0,0
10,109999,49,100000,24,30000,40,9999,0.100000,99,0,0.000000,17,1.000000,16.285002,3.648397,99,99,0,0,0,0,0
10,109999,50,100000,47,20000,90,9999,0.100000,99,0,0.089235,17,0.000000,23.047371,0.540536,99,99,1,0,0,0,0
10,109999,51,100000,49,90000,41,9999,0.100000,99,0,0.000000,17,5.000000,34.633100,15.292984,99,99,0,0,0,0,0
10,109999,52,100000,60,0,40,9999,0.100000,99,0,0.000000,17,0.000000,26.219533,0.808205,99,99,0,0,0,0,0
10,109999,53,100000,14,10000,90,9999,0.100000,99,0,0.208128,17,0.000000,23.283154,0.596207,99,99,1,0,0,0,0
10,109999,54,100000,10,30000,40,9999,0.100000,99,0,0.000000,17,0.000000,32.027799,0.138720,99,99,0,0,0,0,0
10,109999,55,100000,14,10000,40,9999,0.100000,99,0,0.000000,17,0.000000,29.802209,0.121756,99,99,0,0,0,0,0
10,109999,56,100000,7,10000,41,9999,0.100000,99,0,0.000000,17,4.000000,25.501920,15.212828,99,99,0,0,0,0,0
10,109999,57,100000,67,0,40,9999,0.100000,99,0,0.000000,17,2.000000,31.734750,3.443808,99,99,0,0,0,0,0
10,109999,58,100000,34,70000,41,9999,0.100000,99,0,0.000000,17,4.000000,29.187775,4.128643,99,99,0,0,0,0,0
10,109999,59,100000,47,20000,0,9999,0.100000,99,0,0.526434,17,0.000000,18.971016,0.148793,99,99,0,0,0,0,1
10,109999,60,100000,34,70000,40,9999,0.100000,99,0,0.000000,17,2.000000,31.016184,5.373176,99,99,0,0,0,0,0
10,109999,61,100000,26,80000,40,9999,0.100000,99,0,0.000000,17,0.000000,21.015353,0.378568,99,99,0,0,0,0,0
10,109999,62,100000,80,0,41,9999,0.100000,99,0,0.000000,17,5.000000,32.249603,12.939070,99,99,0,0,0,0,0
10,109999,63,100000,26,80000,40,9999,0.100000,99,0,0.000000,17,1.000000,25.800272,5.748991,99,99,0,0,0,0,0
10,109999,64,100000,34,70000,40,9999,0.100000,99,0,0.000000,17,0.000000,34.008165,0.237219,99,99,0,0,0,0,0
10,109999,65,100000,10,30000,40,9999,0.100000,99,0,0.000000,17,1.000000,29.579185,15.610269,99,99,0,0,0,0,0
10,109999,66,100000,49,90000,40,9999,0.100000,99,0,0.000000,17,0.000000,18.227493,7.104963,99,99,0,0,0,0,0
10,109999,67,100000,66,60000,40,9999,0.100000,99,0,0.000000,17,2.000000,31.299477,3.510680,99,99,0,0,0,0,0
10,109999,68,100000,49,90000,0,9999,0.100000,99,0,0.158481,17,0.000000,16.183972,0.251609,99,99,0,0,0,1,0
10,109999,69,100000,10,30000,40,9999,0.100000,99,0,0.000000,17,0.000000,36.940142,0.710528,99,99,0,0,0,0,0
10,109999,70,100000,47,20000,40,9999,0.100000,99,0,0.000000,17,3.000000,31.131536,15.192531,99,99,0,0,0,0,0
10,109999,71,100000,67,0,40,9999,0.100000,99,0,0.000000,17,0.000000,25.995241,0.696796,99,99,0,0,0,0,0
10,109999,72,100000,49,90000,40,9999,0.100000,99,0,0.000000,17,0.000000,19.270185,0.100273,99,99,0,0,0,0,0
10,109999,73,100000,34,70000,40,9999,0.100000,99,0,0.000000,17,0.000000,19.149100,0.669373,99,99,0,0,0,0,0
10,109999,74,100000,67,0,40,9999,0.100000,99,0,0.000000,17,0.000000,36.425229,0.898797,99,99,0,0,0,0,0
10,109999,75,100000,34,70000,41,9999,0.100000,99,0,0.000000,17,3.000000,27.318469,3.976945,99,99,0,0,0,0,0
10,109999,76,100000,47,20000,42,9999,0.100000,99,0,0.000000,17,6.000000,26.192368,18.095346,99,99,0,0,0,0,0
10,109999,77,100000,0,30000,41,9999,0.100000,99,0,0.000000,17,3.000000,27.560426,4.672240,99,99,0,0,0,0,0
10,109999,78,100000,80,0,41,9999,0.100000,99,0,0.000000,17,3.000000,16.454669,8.308447,99,99,0,0,0,0,0
10,109999,79,100000,10,10000,40,9999,0.100000,99,0,0.000000,17,0.000000,31.285099,1.366393,99,99,0,0,0,0,0
10,109999,80,100000,13,60000,40,9999,0.100000,99,0,0.000000,17,0.000000,35.801150,0.231597,99,99,0,0,0,0,0
10,109999,81,100000,80,0,41,9999,0.100000,99,0,0.000000,17,4.000000,26.715585,12.218813,99,99,0,0,0,0,0
10,109999,82,100000,34,70000,41,9999,0.100000,99,0,0.000000,17,3.000000,27.167009,3.706348,99,99,0,0,0,0,0
10,109999,83,100000,7,10000,41,9999,0.100000,99,0,0.000000,17,4.000000,27.390178,19.183135,99,99,0,0,0,0,0
10,109999,84,100000,47,20000,41,9999,0.135000,99,0,0.000000,17,5.000000,31.094999,22.377921,99,99,0,0,0,0,0
10,109999,85,100000,55,10000,42,9999,0.100000,99,0,0.000000,17,10.000000,33.150337,16.983106,99,99,0,0,0,0,0
10,109999,86,100000,47,20000,40,9999,0.100000,99,0,0.000000,17,2.000000,34.605645,4.088896,99,99,0,0,0,0,0
10,109999,87,100000,26,0,40,9999,0.100000,99,0,0.000000,17,2.000000,22.293154,11.106185,99,99,0,0,0,0,0
10,109999,88,100000,24,30000,40,9999,0.100000,99,0,0.000000,17,0.000000,16.326392,0.341788,99,99,0,0,0,0,0
10,109999,89,100000,13,60000,40,9999,0.100000,99,0,0.000000,17,0.000000,26.445110,0.784334,99,99,0,0,0,0,0
10,109999,90,100000,80,0,40,9999,0.100000,99,0,0.000000,17,3.000000,33.653551,6.522294,99,99,0,0,0,0,0
10,109999,91,100000,10,10000,41,9999,0.100000,99,0,0.000000,17,4.000000,28.733060,4.361800,99,99,0,0,0,0,0
10,109999,92,100000,10,30000,40,9999,0.100000,99,0,0.000000,17,0.000000,16.526019,0.214132,99,99,0,0,0,0,0
10,109999,93,100000,66,60000,41,9999,0.100000,99,0,0.000000,17,4.000000,35.381877,10.840532,99,99,0,0,0,0,0
10,109999,94,100000,10,30000,40,9999,0.100000,99,0,0.000000,17,0.000000,25.887203,3.248576,99,99,0,0,0,0,0
10,109999,95,100000,66,60000,40,9999,0.100000,99,0,0.000000,17,0.000000,14.364844,0.423131,99,99,0,0,0,0,0
10,109999,96,100000,10,30000,40,9999,0.100000,99,0,0.000000,17,0.000000,31.097204,0.159422,99,99,0,0,0,0,0
10,109999,97,100000,60,0,0,9999,0.100000,99,0,0.010045,17,0.000000,14.530409,0.099313,99,99,0,0,0,0,1
10,109999,98,100000,10,10000,0,9999,0.100000,99,0,0.212278,17,0.000000,26.751079,0.529312,99,99,0,0,0,1,0
10,109999,99,100000,26,80000,41,9999,0.100000,99,0,0.000000,17,4.000000,25.370940,10.357006,99,99,0,0,0,0,0
11,119999,0,110000,67,0,40,9999,0.100000,99,0,0.000000,17,1.000000,34.093531,6.085276,99,99,0,0,0,0,0
11,119999,1,110000,66,60000,0,9999,0.100000,99,0,3.760443,17,0.000000,32.831015,1.030836,99,99,0,0,0,1,0
11,119999,2,110000,10,30000,40,9999,0.100000,99,0,0.000000,17,0.000000,23.428732,0.732245,99,99,0,0,0,0,0
11,119999,3,110000,10,30000,40,9999,0.100000,99,0,0.000000,17,0.000000,36.261604,6.016528,99,99,0,0,0,0,0
11,119999,4,110000,24,30000,90,9999,0.100000,99,0,0.651487,18,1.000000,22.451069,10.807582,99,99,1,0,0,0,0
11,119999,5,110000,24,30000,40,9999,0.100000,99,0,0.000000,17,1.000000,30.362017,4.562396,99,99,0,0,0,0,0
11,119999,6,110000,22,50000,40,9999,0.100000,99,0,0.000000,17,0.000000,27.070969,0.991128,99,99,0,0,0,0,0
11,119999,7,110000,80,0,40,9999,0.100000,99,0,0.000000,17,0.000000,23.198322,0.862982,99,99,0,0,0,0,0
11,119999,8,110000,26,0,0,9999,0.100000,99,0,0.823993,18,0.000000,22.734186,0.612672,99,99,0,0,0,0,1
11,119999,9,110000,49,90000,40,9999,0.100000,99,0,0.000000,17,0.000000,33.469266,1.381614,99,99,0,0,0,0,0
11,119999,10,110000,7,10000,40,9999,0.100000,99,0,0.000000,17,0.000000,22.655689,6.790265,99,99,0,0,0,0,0
11,119999,11,110000,24,30000,0,9999,0.100000,99,0,0.149568,18,0.000000,21.245632,0.423541,99,99,0,1,0,0,0
11,119999,12,110000,7,10000,40,9999,0.100000,99,0,0.000000,17,0.000000,30.003275,3.745376,99,99,0,0,0,0,0
11,119999,13,110000,7,10000,40,9999,0.100000,99,0,0.000000,17,0.000000,10.254783,0.128556,99,99,0,0,0,0,0
11,119999,14,110000,0,30000,40,9999,0.100000,99,0,0.000000,17,0.000000,19.950140,16.753274,99,99,0,0,0,0,0
11,119999,15,110000,10,30000,40,9999,0.100000,99,0,0.000000,17,0.000000,30.941051,0.449520,99,99,0,0,0,0,0
11,119999,16,110000,10,10000,40,9999,0.100000,99,0,0.000000,17,0.000000,31.098870,1.508011,99,99,0,0,0,0,0
11,119999,17,110000,24,30000,40,9999,0.100000,99,0,0.000000,18,0.000000,25.841165,0.788885,99,99,0,0,0,0,0
11,119999,18,110000,13,60000,40,9999,0.100000,99,0,0.000000,18,1.000000,29.510780,4.429380,99,99,0,0,0,0,0
11,119999,19,110000,47,20000,40,9999,0.135000,99,0,0.000000,17,0.000000,23.700615,1.024375,99,99,0,0,0,0,0
11,119999,20,110000,10,10000,40,9999,0.100000,99,0,0.000000,17,2.000000,34.122181,11.651029,99,99,0,0,0,0,0
11,119999,21,110000,67,0,0,9999,0.100000,99,0,0.025765,18,0.000000,29.296783,0.504436,99,99,0,0,0,0,1
11,119999,22,110000,66,60000,42,9999,0.100000,99,0,0.000000,17,6.000000,19.231067,12.103133,99,99,0,0,0,0,0
11,119999,23,110000,13,60000,40,9999,0.100000,99,0,0.000000,17,0.000000,33.361730,1.184314,99,99,0,0,0,0,0
11,119999,24,110000,22,50000,40,9999,0.100000,99,0,0.000000,17,0.000000,36.187862,4.520210,99,99,0,0,0,0,0
11,119999,25,110000,67,0,40,9999,0.100000,99,0,0.000000,18,1.000000,14.027570,7.890510,99,99,0,0,0,0,0
11,119999,26,110000,47,20000,40,9999,0.100000,99,0,0.000000,17,0.000000,28.909032,0.352002,99,99,0,0,0,0,0
11,119999,27,110000,47,20000,40,9999,0.100000,99,0,0.000000,18,1.000000,35.912554,5.840162,99,99,0,0,0,0,0
11,119999,28,110000,60,0,40,9999,0.100000,99,0,0.000000,18,0.000000,22.959624,0.408081,99,99,0,0,0,0,0
11,119999,29,110000,60,0,40,9999,0.100000,99,0,0.000000,18,0.000000,30.672471,0.424644,99,99,0,0,0,0,0
11,119999,30,110000,34,70000,40,9999,0.100000,99,0,0.000000,17,0.000000,33.422994,1.450662,99,99,0,0,0,0,0
11,119999,31,110000,66,60000,43,9999,0.100000,99,0,0.000000,18,8.000000,24.916288,9.615727,99,99,0,0,0,0,0
11,119999,32,110000,66,60000,40,9999,0.100000,99,0,0.000000,18,0.000000,18.859037,0.388430,99,99,0,0,0,0,0
11,119999,33,110000,7,10000,40,9999,0.100000,99,0,0.000000,17,2.000000,29.808194,11.456388,99,99,0,0,0,0,0
11,119999,34,110000,60,0,41,9999,0.100000,99,0,0.000000,18,2.000000,17.093465,12.849903,99,99,0,0,0,0,0
11,119999,35,110000,13,60000,0,9999,0.100000,99,0,0.333101,17,0.000000,26.307921,1.975312,99,99,0,0,0,1,0
11,119999,36,110000,10,30000,44,9999,0.100000,99,0,0.000000,17,9.000000,21.082402,13.731790,99,99,0,0,0,0,0
11,119999,37,110000,47,20000,40,9999,0.100000,99,0,0.000000,17,0.000000,30.082475,1.371020,99,99,0,0,0,0,0
11,119999,38,110000,26,80000,40,9999,0.100000,99,0,0.000000,17,1.000000,34.198110,10.022603,99,99,0,0,0,0,0
11,119999,39,110000,26,80000,40,9999,0.100000,99,0,0.000000,17,0.000000,33.579554,0.989022,99,99,0,0,0,0,0
11,119999,40,110000,49,90000,40,9999,0.100000,99,0,0.000000,18,0.000000,32.191945,0.141906,99,99,0,0,0,0,0
11,119999,41,110000,34,70000,40,9999,0.100000,99,0,0.000000,17,2.000000,33.288888,9.196013,99,99,0,0,0,0,0
11,119999,42,110000,14,10000,40,9999,0.100000,99,0,0.000000,17,0.000000,31.534323,0.225070,99,99,0,0,0,0,0
11,119999,43,110000,60,0,40,9999,0.100000,99,0,0.000000,18,0.000000,14.237861,0.906098,99,99,0,0,0,0,0
11,119999,44,110000,0,30000,40,9999,0.100000,99,0,0.000000,18,2.000000,28.273270,5.141123,99,99,0,0,0,0,0
11,119999,45,110000,25,100000,0,9999,0.100000,99,0,0.228706,18,0.000000,28.809926,0.274357,99,99,0,0,1,0,0
11,119999,46,110000,26,80000,40,9999,0.100000,99,0,0.000000,17,0.000000,29.980007,0.754880,99,99,0,0,0,0,0
11,119999,47,110000,60,0,40,9999,0.100000,99,0,0.000000,17,0.000000,21.412816,0.231825,99,99,0,0,0,0,0
11,119999,48,110000,10,10000,40,9999,0.100000,99,0,0.000000,17,0.000000,36.856862,1.222480,99,99,0,0,0,0,0
11,119999,49,110000,24,30000,41,9999,0.100000,99,0,0.000000,18,3.000000,15.362422,11.093661,99,99,0,0,0,0,0
11,119999,50,110000,13,60000,90,9999,0.100000,99,0,0.280199,17,0.000000,23.078634,0.571551,99,99,1,0,0,0,0
11,119999,51,110000,22,50000,41,9999,0.100000,99,0,0.000000,18,6.000000,33.434640,16.630971,99,99,0,0,0,0,0
11,119999,52,110000,25,100000,0,9999,0.100000,99,0,0.276539,18,0.000000,26.326757,0.717325,99,99,0,0,0,1,0
11,119999,53,110000,60,0,90,9999,0.100000,99,0,0.105714,17,0.000000,23.256641,0.629448,99,99,1,0,0,0,0
11,119999,54,110000,26,80000,40,9999,0.100000,99,0,0.000000,17,0.000000,32.027577,0.136509,99,99,0,0,0,0,0
11,119999,55,110000,7,10000,40,9999,0.100000,99,0,0.000000,17,0.000000,29.802190,0.118296,99,99,0,0,0,0,0
11,119999,56,110000,67,0,40,9999,0.100000,99,0,0.000000,17,1.000000,21.166104,14.997011,99,99,0,0,0,0,0
11,119999,57,110000,26,80000,40,9999,0.100000,99,0,0.000000,17,0.000000,33.021043,0.853136,99,99,0,0,0,0,0
11,119999,58,110000,49,90000,40,9999,0.100000,99,0,0.000000,18,0.000000,30.808006,0.298443,99,99,0,0,0,0,0
11,119999,59,110000,26,0,0,9999,0.100000,99,0,0.398007,17,0.000000,19.077381,0.155272,99,99,0,0,0,0,1
11,119999,60,110000,10,30000,40,9999,0.100000,99,0,0.000000,17,0.000000,32.389632,1.023098,99,99,0,0,0,0,0
11,119999,61,110000,24,30000,40,9999,0.100000,99,0,0.000000,18,0.000000,21.072548,0.488949,99,99,0,0,0,0,0
11,119999,62,110000,7,10000,40,9999,0.100000,99,0,0.000000,18,1.000000,30.009786,8.102737,99,99,0,0,0,0,0
11,119999,63,110000,14,10000,40,9999,0.100000,99,0,0.000000,18,1.000000,24.930619,16.263086,99,99,0,0,0,0,0
11,119999,64,110000,66,60000,40,9999,0.100000,99,0,0.000000,17,0.000000,34.009555,0.246178,99,99,0,0,0,0,0
11,119999,65,110000,80,0,40,9999,0.100000,99,0,0.000000,17,0.000000,29.932508,4.244288,99,99,0,0,0,0,0
11,119999,66,110000,13,60000,41,9999,0.100000,99,0,0.000000,18,3.000000,18.239530,14.004578,99,99,0,0,0,0,0
11,119999,67,110000,26,0,40,9999,0.100000,99,0,0.000000,18,0.000000,32.601518,0.979843,99,99,0,0,0,0,0
11,119999,68,110000,67,0,0,9999,0.100000,99,0,0.032259,18,0.000000,16.173449,0.220258,99,99,0,0,0,1,0
11,119999,69,110000,67,0,40,9999,0.100000,99,0,0.000000,17,0.000000,37.011220,0.522639,99,99,0,0,0,0,0
11,119999,70,110000,47,20000,40,9999,0.100000,99,0,0.000000,17,0.000000,29.927355,0.678938,99,99,0,0,0,0,0
11,119999,71,110000,26,0,40,9999,0.100000,99,0,0.000000,18,0.000000,26.083921,0.804304,99,99,0,0,0,0,0
11,119999,72,110000,34,70000,40,9999,0.100000,99,0,0.000000,17,0.000000,19.332191,0.123962,99,99,0,0,0,0,0
