generation,iteration,robot,birthday,ancestor_id,ancestor_birthday,cell_id,age,sigma,maps,genomes,fitness,cells_in_map,dist_max,dist_pot_max,dist_total,com_rx,com_tx,obj_group1,obj_group2,obj_group3,obj_group4,obj_group5
0,9999,0,0,0,0,1,9999,0.100000,99,0,8.247691,0,3.000000,27.094151,6.518437,99,99,0,1,0,0,0
0,9999,1,0,1,0,41,9999,0.100000,99,0,0.000000,0,3.000000,28.036075,8.531583,99,99,0,0,0,0,0
0,9999,2,0,2,0,41,9999,0.100000,99,0,0.000000,0,3.000000,25.670673,6.756235,99,99,0,0,0,0,0
0,9999,3,0,3,0,0,9999,0.100000,99,0,0.118798,0,0.000000,24.280406,0.533422,99,99,0,0,0,1,0
0,9999,4,0,4,0,40,9999,0.100000,99,0,0.000000,0,1.000000,14.254409,3.365064,99,99,0,0,0,0,0
0,9999,5,0,5,0,0,9999,0.100000,99,0,0.000694,0,0.000000,29.942417,0.613062,99,99,0,0,0,0,1
0,9999,6,0,6,0,40,9999,0.100000,99,0,0.000000,0,1.000000,28.774717,14.753099,99,99,0,0,0,0,0
0,9999,7,0,7,0,0,9999,0.100000,99,0,0.082690,0,1.000000,21.002272,3.595644,99,99,0,0,0,0,1
0,9999,8,0,8,0,40,9999,0.100000,99,0,0.000000,0,2.000000,31.088860,4.088330,99,99,0,0,0,0,0
0,9999,9,0,9,0,94,9999,0.100000,99,0,69.005316,0,14.000000,28.327302,19.954695,99,99,1,0,0,0,0
0,9999,10,0,10,0,40,9999,0.100000,99,0,0.000000,0,0.000000,28.681006,9.412200,99,99,0,0,0,0,0
0,9999,11,0,11,0,40,9999,0.100000,99,0,0.000000,0,2.000000,32.203603,14.026387,99,99,0,0,0,0,0
0,9999,12,0,12,0,0,9999,0.100000,99,0,0.042156,0,1.000000,18.845903,2.828324,99,99,0,1,0,0,0
0,9999,13,0,13,0,40,9999,0.100000,99,0,0.000000,0,0.000000,22.688971,0.618280,99,99,0,0,0,0,0
0,9999,14,0,14,0,40,9999,0.100000,99,0,0.000000,0,1.000000,27.935440,2.554809,99,99,0,0,0,0,0
0,9999,15,0,15,0,0,9999,0.100000,99,0,0.000029,0,0.000000,23.462912,1.122342,99,99,0,0,0,0,1
0,9999,16,0,16,0,40,9999,0.100000,99,0,0.000000,0,2.000000,31.270167,10.291383,99,99,0,0,0,0,0
0,9999,17,0,17,0,0,9999,0.100000,99,0,0.117906,0,1.000000,25.005332,3.822425,99,99,0,0,1,0,0
0,9999,18,0,18,0,40,9999,0.100000,99,0,0.000000,0,1.000000,22.902713,2.255534,99,99,0,0,0,0,0
0,9999,19,0,19,0,0,9999,0.100000,99,0,0.074475,0,0.000000,26.477864,0.921966,99,99,0,0,0,0,1
0,9999,20,0,20,0,41,9999,0.100000,99,0,0.000000,0,3.000000,25.604166,13.178253,99,99,0,0,0,0,0
0,9999,21,0,21,0,40,9999,0.100000,99,0,0.000000,0,1.000000,32.282729,7.396991,99,99,0,0,0,0,0
0,9999,22,0,22,0,1,9999,0.100000,99,0,0.040426,0,5.000000,32.689425,13.615076,99,99,0,0,0,0,1
0,9999,23,0,23,0,0,9999,0.100000,99,0,2.976386,0,1.000000,22.559060,2.566505,99,99,0,0,0,1,0
0,9999,24,0,24,0,40,9999,0.100000,99,0,0.000000,0,0.000000,30.790863,6.353495,99,99,0,0,0,0,0
0,9999,25,0,25,0,40,9999,0.100000,99,0,0.000000,0,2.000000,23.823169,3.305829,99,99,0,0,0,0,0
0,9999,26,0,26,0,40,9999,0.100000,99,0,0.000000,0,2.000000,29.672570,5.005407,99,99,0,0,0,0,0
0,9999,27,0,27,0,41,9999,0.100000,99,0,0.000000,0,3.000000,22.397580,14.561301,99,99,0,0,0,0,0
0,9999,28,0,28,0,40,9999,0.100000,99,0,0.000000,0,1.000000,23.967104,6.795372,99,99,0,0,0,0,0
0,9999,29,0,29,0,40,9999,0.100000,99,0,0.000000,0,0.000000,26.758580,4.908590,99,99,0,0,0,0,0
0,9999,30,0,30,0,0,9999,0.100000,99,0,0.147524,0,0.000000,33.676359,0.290821,99,99,0,0,0,0,1
0,9999,31,0,31,0,0,9999,0.100000,99,0,0.338258,0,0.000000,30.978084,1.250727,99,99,0,0,0,0,1
0,9999,32,0,32,0,40,9999,0.100000,99,0,0.000000,0,1.000000,28.645375,2.804385,99,99,0,0,0,0,0
0,9999,33,0,33,0,40,9999,0.100000,99,0,0.000000,0,2.000000,30.974509,22.769898,99,99,0,0,0,0,0
0,9999,34,0,34,0,40,9999,0.100000,99,0,0.000000,0,0.000000,23.572398,1.452832,99,99,0,0,0,0,0
0,9999,35,0,35,0,40,9999,0.100000,99,0,0.000000,0,2.000000,21.384200,10.165294,99,99,0,0,0,0,0
0,9999,36,0,36,0,0,9999,0.100000,99,0,0.000125,0,1.000000,28.258423,3.879824,99,99,0,0,0,0,1
0,9999,37,0,37,0,40,9999,0.100000,99,0,0.000000,0,1.000000,17.561084,5.540887,99,99,0,0,0,0,0
0,9999,38,0,38,0,40,9999,0.100000,99,0,0.000000,0,2.000000,25.936436,6.218979,99,99,0,0,0,0,0
0,9999,39,0,39,0,0,9999,0.100000,99,0,0.622582,0,0.000000,27.309246,0.790193,99,99,0,0,0,0,1
0,9999,40,0,40,0,40,9999,0.100000,99,0,0.000000,0,1.000000,22.705904,3.292436,99,99,0,0,0,0,0
0,9999,41,0,41,0,0,9999,0.100000,99,0,0.000779,0,1.000000,26.041509,4.970304,99,99,0,0,0,0,1
0,9999,42,0,42,0,41,9999,0.100000,99,0,0.000000,0,2.000000,17.962412,6.544723,99,99,0,0,0,0,0
0,9999,43,0,43,0,41,9999,0.100000,99,0,0.000000,0,3.000000,19.315042,15.875046,99,99,0,0,0,0,0
0,9999,44,0,44,0,40,9999,0.100000,99,0,0.000000,0,2.000000,24.075866,7.314870,99,99,0,0,0,0,0
0,9999,45,0,45,0,0,9999,0.100000,99,0,0.007101,0,1.000000,17.212489,3.378722,99,99,0,0,0,0,1
0,9999,46,0,46,0,40,9999,0.100000,99,0,0.000000,0,0.000000,34.965777,6.703089,99,99,0,0,0,0,0
0,9999,47,0,47,0,40,9999,0.100000,99,0,0.000000,0,2.000000,23.124405,8.155210,99,99,0,0,0,0,0
0,9999,48,0,48,0,40,9999,0.100000,99,0,0.000000,0,0.000000,20.026465,0.814064,99,99,0,0,0,0,0
0,9999,49,0,49,0,40,9999,0.100000,99,0,0.000000,0,1.000000,18.168843,13.996893,99,99,0,0,0,0,0
0,9999,50,0,50,0,0,9999,0.100000,99,0,0.463334,0,1.000000,29.944423,4.498420,99,99,0,0,0,0,1
0,9999,51,0,51,0,42,9999,0.100000,99,0,0.000000,0,7.000000,31.194575,14.794138,99,99,0,0,0,0,0
0,9999,52,0,52,0,40,9999,0.100000,99,0,0.000000,0,1.000000,14.904080,3.571759,99,99,0,0,0,0,0
0,9999,53,0,53,0,41,9999,0.100000,99,0,0.000000,0,2.000000,18.200610,5.888767,99,99,0,0,0,0,0
0,9999,54,0,54,0,40,9999,0.100000,99,0,0.000000,0,2.000000,28.269373,6.681929,99,99,0,0,0,0,0
0,9999,55,0,55,0,95,9999,0.100000,99,0,86.166665,0,16.000000,28.199451,28.643516,99,99,1,0,0,0,0
0,9999,56,0,56,0,40,9999,0.100000,99,0,0.000000,0,0.000000,27.360012,1.389453,99,99,0,0,0,0,0
0,9999,57,0,57,0,0,9999,0.100000,99,0,0.215213,0,0.000000,18.704597,0.274637,99,99,0,0,0,0,1
0,9999,58,0,58,0,41,9999,0.100000,99,0,0.000000,0,5.000000,31.439449,21.957461,99,99,0,0,0,0,0
0,9999,59,0,59,0,41,9999,0.100000,99,0,0.000000,0,3.000000,27.477128,5.065652,99,99,0,0,0,0,0
0,9999,60,0,60,0,0,9999,0.100000,99,0,0.113054,0,0.000000,27.130382,0.998281,99,99,0,0,0,0,1
0,9999,61,0,61,0,0,9999,0.100000,99,0,0.035716,0,1.000000,21.164676,5.729154,99,99,0,0,1,0,0
0,9999,62,0,62,0,40,9999,0.100000,99,0,0.000000,0,2.000000,22.433825,9.530807,99,99,0,0,0,0,0
0,9999,63,0,63,0,41,9999,0.100000,99,0,0.000000,0,4.000000,20.920165,12.549940,99,99,0,0,0,0,0
0,9999,64,0,64,0,41,9999,0.100000,99,0,0.000000,0,3.000000,28.176083,9.509274,99,99,0,0,0,0,0
0,9999,65,0,65,0,41,9999,0.100000,99,0,0.000000,0,3.000000,22.809762,9.778568,99,99,0,0,0,0,0
0,9999,66,0,66,0,41,9999,0.100000,99,0,0.000000,0,2.000000,17.571658,16.501964,99,99,0,0,0,0,0
0,9999,67,0,67,0,40,9999,0.100000,99,0,0.000000,0,0.000000,33.429255,13.488582,99,99,0,0,0,0,0
0,9999,68,0,68,0,40,9999,0.100000,99,0,0.000000,0,3.000000,31.310092,14.288395,99,99,0,0,0,0,0
0,9999,69,0,69,0,40,9999,0.100000,99,0,0.000000,0,1.000000,34.467529,4.737001,99,99,0,0,0,0,0
0,9999,70,0,70,0,42,9999,0.100000,99,0,0.000000,0,6.000000,20.911462,14.164851,99,99,0,0,0,0,0
0,9999,71,0,71,0,40,9999,0.100000,99,0,0.000000,0,1.000000,23.591541,2.023532,99,99,0,0,0,0,0
0,9999,72,0,72,0,40,9999,0.100000,99,0,0.000000,0,2.000000,34.977790,12.575265,99,99,0,0,0,0,0
0,9999,73,0,73,0,92,9999,0.100000,99,0,36.386489,0,5.000000,16.670832,17.133936,99,99,1,0,0,0,0
0,9999,74,0,74,0,40,9999,0.100000,99,0,0.000000,0,1.000000,20.057833,7.002989,99,99,0,0,0,0,0
0,9999,75,0,75,0,40,9999,0.100000,99,0,0.000000,0,2.000000,27.857211,11.826525,99,99,0,0,0,0,0
0,9999,76,0,76,0,40,9999,0.100000,99,0,0.000000,0,1.000000,26.866831,2.998066,99,99,0,0,0,0,0
0,9999,77,0,77,0,41,9999,0.100000,99,0,0.000000,0,2.000000,13.883297,7.148662,99,99,0,0,0,0,0
0,9999,78,0,78,0,40,9999,0.100000,99,0,0.000000,0,2.000000,19.968952,11.082863,99,99,0,0,0,0,0
0,9999,79,0,79,0,0,9999,0.100000,99,0,0.002873,0,1.000000,21.853270,3.360583,99,99,0,0,0,0,1
0,9999,80,0,80,0,41,9999,0.100000,99,0,0.000000,0,4.000000,27.020576,9.401237,99,99,0,0,0,0,0
0,9999,81,0,81,0,41,9999,0.100000,99,0,0.000000,0,2.000000,14.522167,3.384013,99,99,0,0,0,0,0
0,9999,82,0,82,0,40,9999,0.100000,99,0,0.000000,0,1.000000,32.437691,3.833649,99,99,0,0,0,0,0
0,9999,83,0,83,0,40,9999,0.100000,99,0,0.000000,0,0.000000,13.436568,11.715842,99,99,0,0,0,0,0
0,9999,84,0,84,0,0,9999,0.100000,99,0,3.122875,0,0.000000,15.322594,1.685106,99,99,0,0,1,0,0
0,9999,85,0,85,0,40,9999,0.100000,99,0,0.000000,0,2.000000,26.769317,14.676745,99,99,0,0,0,0,0
0,9999,86,0,86,0,0,9999,0.100000,99,0,0.000155,0,1.000000,24.252368,4.750032,99,99,0,0,0,0,1
0,9999,87,0,87,0,40,9999,0.100000,99,0,0.000000,0,2.000000,24.843180,8.639989,99,99,0,0,0,0,0
0,9999,88,0,88,0,41,9999,0.100000,99,0,0.000000,0,3.000000,23.921566,11.536932,99,99,0,0,0,0,0
0,9999,89,0,89,0,40,9999,0.100000,99,0,0.000000,0,2.000000,23.078226,7.277447,99,99,0,0,0,0,0
0,9999,90,0,90,0,40,9999,0.100000,99,0,0.000000,0,1.000000,12.729469,3.204605,99,99,0,0,0,0,0
0,9999,91,0,91,0,40,9999,0.100000,99,0,0.000000,0,0.000000,29.005525,1.136021,99,99,0,0,0,0,0
0,9999,92,0,92,0,40,9999,0.100000,99,0,0.000000,0,1.000000,25.192103,2.668744,99,99,0,0,0,0,0
0,9999,93,0,93,0,40,9999,0.100000,99,0,0.000000,0,3.000000,29.602296,9.413889,99,99,0,0,0,0,0
0,9999,94,0,94,0,40,9999,0.100000,99,0,0.000000,0,2.000000,25.861904,13.259323,99,99,0,0,0,0,0
0,9999,95,0,95,0,40,9999,0.100000,99,0,0.000000,0,0.000000,29.645865,0.572309,99,99,0,0,0,0,0
0,9999,96,0,96,0,40,9999,0.100000,99,0,0.000000,0,0.000000,25.981552,5.302047,99,99,0,0,0,0,0
0,9999,97,0,97,0,40,9999,0.100000,99,0,0.000000,0,0.000000,28.404891,1.827086,99,99,0,0,0,0,0
0,9999,98,0,98,0,90,9999,0.100000,99,0,8.223993,0,1.000000,33.901883,9.747302,99,99,1,0,0,0,0
0,9999,99,0,99,0,40,9999,0.100000,99,0,0.000000,0,0.000000,33.203879,1.641736,99,99,0,0,0,0,0
1,19999,0,10000,1,0,0,9999,0.100000,99,0,0.730297,2,0.000000,30.277589,0.666429,99,99,0,1,0,0,0
1,19999,1,10000,1,0,41,9999,0.100000,99,0,0.000000,1,3.000000,24.440013,15.007048,99,99,0,0,0,0,0
1,19999,2,10000,13,0,0,9999,0.100000,99,0,1.869189,8,1.000000,28.466012,3.871601,99,99,0,0,0,1,0
1,19999,3,10000,63,0,0,9999,0.100000,99,0,3.049024,8,2.000000,24.388349,3.272810,99,99,0,0,0,1,0
1,19999,4,10000,1,0,40,9999,0.100000,99,0,0.000000,3,0.000000,13.457684,0.218547,99,99,0,0,0,0,0
1,19999,5,10000,73,0,0,9999,0.100000,99,0,0.000132,8,0.000000,29.526037,0.098107,99,99,0,0,0,0,1
1,19999,6,10000,9,0,41,9999,0.100000,99,0,0.000000,8,4.000000,29.298600,11.471957,99,99,0,0,0,0,0
1,19999,7,10000,70,0,0,9999,0.100000,99,0,1.772825,8,0.000000,22.555779,0.373484,99,99,0,0,0,0,1
1,19999,8,10000,0,0,0,9999,0.100000,99,0,1.362300,3,0.000000,28.644008,1.020161,99,99,0,0,0,0,1
1,19999,9,10000,70,0,40,9999,0.100000,99,0,0.000000,6,0.000000,33.123488,2.233175,99,99,0,0,0,0,0
1,19999,10,10000,55,0,40,9999,0.100000,99,0,0.000000,9,1.000000,28.843102,7.549105,99,99,0,0,0,0,0
1,19999,11,10000,70,0,40,9999,0.100000,99,0,0.000000,9,2.000000,34.346802,9.604134,99,99,0,0,0,0,0
1,19999,12,10000,8,0,0,9999,0.100000,99,0,4.420004,3,2.000000,20.135924,4.325215,99,99,0,1,0,0,0
1,19999,13,10000,9,0,40,9999,0.100000,99,0,0.000000,8,0.000000,22.501694,0.513159,99,99,0,0,0,0,0
1,19999,14,10000,63,0,0,9999,0.100000,99,0,0.000538,8,0.000000,27.590077,0.086225,99,99,0,0,0,0,1
1,19999,15,10000,70,0,0,9999,0.100000,99,0,0.000002,8,0.000000,23.388930,0.100610,99,99,0,0,0,0,1
1,19999,16,10000,58,0,40,9999,0.100000,99,0,0.000000,8,3.000000,33.308851,22.701827,99,99,0,0,0,0,0
1,19999,17,10000,9,0,0,9999,0.100000,99,0,3.515845,6,0.000000,25.731204,0.917181,99,99,0,0,1,0,0
1,19999,18,10000,63,0,40,9999,0.100000,99,0,0.000000,8,2.000000,23.656923,3.115262,99,99,0,0,0,0,0
1,19999,19,10000,0,0,0,9999,0.100000,99,0,0.001174,3,0.000000,26.056761,0.079497,99,99,0,0,0,0,1
1,19999,20,10000,73,0,40,9999,0.100000,99,0,0.000000,8,1.000000,28.889013,8.581885,99,99,0,0,0,0,0
1,19999,21,10000,58,0,41,9999,0.100000,99,0,0.000000,8,4.000000,32.599700,9.325299,99,99,0,0,0,0,0
1,19999,22,10000,73,0,40,9999,0.100000,99,0,0.000000,9,0.000000,29.446274,8.381668,99,99,0,0,0,0,0
1,19999,23,10000,63,0,40,9999,0.100000,99,0,0.000000,8,2.000000,21.516785,6.178397,99,99,0,0,0,0,0
1,19999,24,10000,0,0,40,9999,0.100000,99,0,0.000000,8,0.000000,31.546262,6.025873,99,99,0,0,0,0,0
1,19999,25,10000,63,0,40,9999,0.100000,99,0,0.000000,8,0.000000,21.279164,0.456342,99,99,0,0,0,0,0
1,19999,26,10000,9,0,40,9999,0.100000,99,0,0.000000,9,3.000000,30.923998,5.932670,99,99,0,0,0,0,0
1,19999,27,10000,63,0,41,9999,0.100000,99,0,0.000000,8,3.000000,20.094809,12.638673,99,99,0,0,0,0,0
1,19999,28,0,28,0,40,19999,0.100000,99,0,0.000000,3,0.000000,25.937349,1.037228,99,99,0,0,0,0,0
1,19999,29,10000,70,0,0,9999,0.100000,99,0,0.009936,8,2.000000,26.541832,3.765485,99,99,0,0,0,1,0
1,19999,30,10000,13,0,0,9999,0.100000,99,0,0.124005,8,0.000000,33.847853,0.266939,99,99,0,0,0,0,1
1,19999,31,10000,1,0,0,9999,0.100000,99,0,0.848844,3,0.000000,30.836627,0.382525,99,99,0,0,0,0,1
1,19999,32,10000,9,0,40,9999,0.100000,99,0,0.000000,8,0.000000,29.448259,0.606200,99,99,0,0,0,0,0
1,19999,33,10000,1,0,40,9999,0.100000,99,0,0.000000,6,0.000000,29.548330,12.757135,99,99,0,0,0,0,0
1,19999,34,10000,70,0,40,9999,0.100000,99,0,0.000000,8,0.000000,23.009910,0.227052,99,99,0,0,0,0,0
1,19999,35,10000,73,0,40,9999,0.100000,99,0,0.000000,8,0.000000,22.880326,4.182015,99,99,0,0,0,0,0
1,19999,36,10000,0,0,40,9999,0.100000,99,0,0.000000,9,0.000000,27.409906,0.082905,99,99,0,0,0,0,0
1,19999,37,10000,81,0,41,9999,0.100000,99,0,0.000000,9,2.000000,15.816806,3.780946,99,99,0,0,0,0,0
1,19999,38,10000,70,0,0,9999,0.100000,99,0,0.758792,9,0.000000,24.014047,0.330991,99,99,0,0,0,0,1
1,19999,39,10000,1,0,40,9999,0.100000,99,0,0.000000,3,0.000000,27.725103,1.161887,99,99,0,0,0,0,0
1,19999,40,10000,1,0,40,9999,0.100000,99,0,0.000000,6,0.000000,21.655066,4.665293,99,99,0,0,0,0,0
1,19999,41,10000,58,0,40,9999,0.100000,99,0,0.000000,8,0.000000,24.591454,0.722440,99,99,0,0,0,0,0
1,19999,42,10000,8,0,41,9999,0.100000,99,0,0.000000,3,3.000000,19.741539,5.636729,99,99,0,0,0,0,0
1,19999,43,10000,13,0,0,9999,0.100000,99,0,0.139607,8,0.000000,20.985473,7.295947,99,99,0,0,0,1,0
1,19999,44,10000,63,0,40,9999,0.100000,99,0,0.000000,8,2.000000,26.467372,15.266549,99,99,0,0,0,0,0
1,19999,45,10000,13,0,2,9999,0.100000,99,0,0.040746,8,4.000000,16.045022,8.345145,99,99,0,0,0,0,1
1,19999,46,10000,73,0,40,9999,0.100000,99,0,0.000000,9,0.000000,35.294096,0.435350,99,99,0,0,0,0,0
1,19999,47,10000,70,0,40,9999,0.100000,99,0,0.000000,8,2.000000,21.921249,7.442033,99,99,0,0,0,0,0
1,19999,48,10000,63,0,40,9999,0.100000,99,0,0.000000,8,0.000000,19.807729,0.615162,99,99,0,0,0,0,0
1,19999,49,10000,73,0,41,9999,0.100000,99,0,0.000000,9,2.000000,17.906649,8.390439,99,99,0,0,0,0,0
1,19999,50,10000,13,0,0,9999,0.100000,99,0,1.352277,9,0.000000,30.399372,0.345669,99,99,0,0,0,0,1
1,19999,51,10000,1,0,40,9999,0.100000,99,0,0.000000,7,0.000000,25.663987,1.636615,99,99,0,0,0,0,0
1,19999,52,10000,70,0,40,9999,0.100000,99,0,0.000000,8,0.000000,16.120173,0.846436,99,99,0,0,0,0,0
1,19999,53,10000,70,0,1,9999,0.100000,99,0,0.326273,9,2.000000,17.545983,3.094401,99,99,0,0,0,0,1
1,19999,54,10000,9,0,0,9999,0.100000,99,0,0.220920,9,2.000000,27.097024,5.472723,99,99,0,0,0,0,1
1,19999,55,10000,63,0,40,9999,0.100000,99,0,0.000000,9,3.000000,34.835566,7.610441,99,99,0,0,0,0,0
1,19999,56,10000,0,0,40,9999,0.100000,99,0,0.000000,8,0.000000,27.649800,0.677303,99,99,0,0,0,0,0
1,19999,57,10000,98,0,40,9999,0.100000,99,0,0.000000,8,0.000000,18.748375,0.153790,99,99,0,0,0,0,0
1,19999,58,10000,94,0,40,9999,0.100000,99,0,0.000000,7,0.000000,30.674501,7.715797,99,99,0,0,0,0,0
1,19999,59,10000,58,0,40,9999,0.100000,99,0,0.000000,8,0.000000,30.141323,0.725770,99,99,0,0,0,0,0
1,19999,60,10000,73,0,0,9999,0.100000,99,0,0.012009,8,0.000000,27.425060,0.342625,99,99,0,0,0,0,1
1,19999,61,10000,73,0,0,9999,0.100000,99,0,0.015425,8,0.000000,21.291281,0.275236,99,99,0,0,1,0,0
1,19999,62,10000,0,0,40,9999,0.100000,99,0,0.000000,3,0.000000,21.133762,0.410278,99,99,0,0,0,0,0
1,19999,63,10000,70,0,41,9999,0.100000,99,0,0.000000,7,3.000000,16.495575,3.750815,99,99,0,0,0,0,0
1,19999,64,10000,81,0,0,9999,0.100000,99,0,0.097840,9,0.000000,25.291702,3.113028,99,99,0,0,0,0,1
1,19999,65,10000,73,0,40,9999,0.100000,99,0,0.000000,8,1.000000,24.382107,7.054205,99,99,0,0,0,0,0
1,19999,66,10000,58,0,41,9999,0.100000,99,0,0.000000,8,3.000000,16.687148,18.040824,99,99,0,0,0,0,0
1,19999,67,10000,9,0,41,9999,0.100000,99,0,0.000000,9,4.000000,34.052666,16.834324,99,99,0,0,0,0,0
1,19999,68,10000,9,0,1,9999,0.100000,99,0,0.148426,8,4.000000,29.480403,10.618050,99,99,0,0,0,0,1
1,19999,69,10000,9,0,40,9999,0.100000,99,0,0.000000,7,0.000000,35.227360,0.489834,99,99,0,0,0,0,0
1,19999,70,10000,1,0,40,9999,0.100000,99,0,0.000000,4,1.000000,18.983255,15.207162,99,99,0,0,0,0,0
1,19999,71,10000,0,0,40,9999,0.100000,99,0,0.000000,9,0.000000,22.509227,0.420321,99,99,0,0,0,0,0
1,19999,72,10000,0,0,40,9999,0.100000,99,0,0.000000,8,0.000000,33.263620,0.906909,99,99,0,0,0,0,0
1,19999,73,10000,98,0,40,9999,0.100000,99,0,0.000000,8,2.000000,20.293612,3.795828,99,99,0,0,0,0,0
1,19999,74,10000,0,0,40,9999,0.100000,99,0,0.000000,8,0.000000,20.866393,0.561660,99,99,0,0,0,0,0
1,19999,75,10000,13,0,40,9999,0.100000,99,0,0.000000,8,1.000000,29.192433,7.311984,99,99,0,0,0,0,0
1,19999,76,10000,9,0,40,9999,0.100000,99,0,0.000000,8,0.000000,27.529629,2.046648,99,99,0,0,0,0,0
1,19999,77,10000,73,0,40,9999,0.100000,99,0,0.000000,8,0.000000,11.564298,2.984086,99,99,0,0,0,0,0
1,19999,78,10000,70,0,40,9999,0.100000,99,0,0.000000,8,1.000000,18.974488,3.185396,99,99,0,0,0,0,0
1,19999,79,10000,70,0,0,9999,0.100000,99,0,0.000526,8,0.000000,20.963800,0.064252,99,99,0,0,0,0,1
1,19999,80,10000,98,0,40,9999,0.100000,99,0,0.000000,8,0.000000,25.966289,4.673338,99,99,0,0,0,0,0
1,19999,81,10000,70,0,41,9999,0.100000,99,0,0.000000,8,2.000000,15.551406,2.342904,99,99,0,0,0,0,0
1,19999,82,10000,58,0,40,9999,0.100000,99,0,0.000000,8,0.000000,30.725935,0.559388,99,99,0,0,0,0,0
1,19999,83,10000,63,0,40,9999,0.100000,99,0,0.000000,9,1.000000,13.373141,9.071723,99,99,0,0,0,0,0
1,19999,84,10000,73,0,0,9999,0.100000,99,0,3.367387,8,0.000000,16.244133,0.509300,99,99,0,0,1,0,0
1,19999,85,10000,0,0,41,9999,0.100000,99,0,0.000000,8,4.000000,27.448772,9.111004,99,99,0,0,0,0,0
1,19999,86,10000,63,0,0,9999,0.100000,99,0,0.128023,8,0.000000,23.993788,0.116084,99,99,0,0,0,0,1
1,19999,87,10000,58,0,40,9999,0.100000,99,0,0.000000,8,2.000000,24.118314,2.921066,99,99,0,0,0,0,0
1,19999,88,10000,81,0,40,9999,0.100000,99,0,0.000000,9,2.000000,22.485446,4.640222,99,99,0,0,0,0,0
1,19999,89,10000,55,0,40,9999,0.100000,99,0,0.000000,9,0.000000,20.627581,0.127908,99,99,0,0,0,0,0
1,19999,90,10000,13,0,8,9999,0.100000,99,0,0.001951,9,10.000000,11.260214,24.838730,99,99,0,0,0,0,1
1,19999,91,10000,58,0,40,9999,0.100000,99,0,0.000000,8,1.000000,29.260358,7.677065,99,99,0,0,0,0,0
1,19999,92,10000,81,0,40,9999,0.100000,99,0,0.000000,9,0.000000,24.604924,0.219864,99,99,0,0,0,0,0
1,19999,93,10000,63,0,40,9999,0.100000,99,0,0.000000,9,0.000000,32.898782,0.472488,99,99,0,0,0,0,0
1,19999,94,10000,0,0,40,9999,0.100000,99,0,0.000000,4,2.000000,24.482578,7.016111,99,99,0,0,0,0,0
1,19999,95,10000,98,0,40,9999,0.100000,99,0,0.000000,8,0.000000,29.790114,0.515614,99,99,0,0,0,0,0
1,19999,96,10000,63,0,40,9999,0.100000,99,0,0.000000,8,2.000000,25.962210,9.040223,99,99,0,0,0,0,0
1,19999,97,10000,9,0,40,9999,0.100000,99,0,0.000000,8,0.000000,29.027955,0.009802,99,99,0,0,0,0,0
1,19999,98,10000,70,0,41,9999,0.100000,99,0,0.000000,5,4.000000,34.108047,15.829705,99,99,0,0,0,0,0
1,19999,99,10000,70,0,40,9999,0.100000,99,0,0.000000,8,0.000000,33.402438,0.009391,99,99,0,0,0,0,0
2,29999,0,20000,98,0,0,9999,0.100000,99,0,0.761851,9,0.000000,30.588489,0.466128,99,99,0,1,0,0,0
2,29999,1,20000,70,0,41,9999,0.100000,99,0,0.000000,9,3.000000,25.981562,10.582274,99,99,0,0,0,0,0
2,29999,2,20000,0,0,0,9999,0.100000,99,0,0.009708,10,0.000000,29.756272,0.108099,99,99,0,0,0,1,0
2,29999,3,20000,81,0,40,9999,0.100000,99,0,0.000000,9,0.000000,24.646738,1.139218,99,99,0,0,0,0,0
2,29999,4,20000,63,0,40,9999,0.100000,99,0,0.000000,9,0.000000,13.455492,0.219055,99,99,0,0,0,0,0
2,29999,5,20000,13,0,0,9999,0.100000,99,0,0.000719,9,0.000000,29.526321,0.097653,99,99,0,0,0,0,1
2,29999,6,20000,53,10000,40,9999,0.100000,99,0,0.000000,10,0.000000,24.895806,1.174114,99,99,0,0,0,0,0
2,29999,7,20000,73,0,0,9999,0.100000,99,0,1.749031,9,0.000000,22.208374,0.371426,99,99,0,0,0,0,1
2,29999,8,20000,70,0,0,9999,0.100000,99,0,4.731937,9,0.000000,28.957704,1.321127,99,99,0,0,0,0,1
2,29999,9,20000,90,10000,40,9999,0.100000,99,0,0.000000,11,0.000000,33.238386,2.168044,99,99,0,0,0,0,0
2,29999,10,20000,55,0,40,9999,0.100000,99,0,0.000000,9,0.000000,30.017305,7.222633,99,99,0,0,0,0,0
2,29999,11,20000,13,0,40,9999,0.100000,99,0,0.000000,11,2.000000,32.902489,12.312916,99,99,0,0,0,0,0
2,29999,12,20000,0,0,0,9999,0.100000,99,0,4.993639,10,1.000000,21.383732,2.506254,99,99,0,1,0,0,0
2,29999,13,20000,13,0,40,9999,0.100000,99,0,0.000000,9,0.000000,22.153331,0.425415,99,99,0,0,0,0,0
2,29999,14,20000,63,0,40,9999,0.100000,99,0,0.000000,9,0.000000,27.590865,0.086157,99,99,0,0,0,0,0
2,29999,15,20000,73,0,0,9999,0.100000,99,0,5.691442,11,1.000000,23.390382,1.296555,99,99,0,0,0,0,1
2,29999,16,20000,73,0,90,9999,0.100000,99,0,17.525859,9,3.000000,33.186833,16.196458,99,99,1,0,0,0,0
2,29999,17,20000,98,0,40,9999,0.100000,99,0,0.000000,9,0.000000,26.188405,1.021561,99,99,0,0,0,0,0
2,29999,18,20000,73,0,40,9999,0.100000,99,0,0.000000,9,1.000000,23.895690,3.394339,99,99,0,0,0,0,0
2,29999,19,20000,55,0,0,9999,0.100000,99,0,0.000734,9,0.000000,26.057853,0.079600,99,99,0,0,0,0,1
2,29999,20,20000,13,0,40,9999,0.100000,99,0,0.000000,11,0.000000,28.684671,6.389465,99,99,0,0,0,0,0
2,29999,21,20000,98,0,40,9999,0.100000,99,0,0.000000,10,0.000000,29.056592,2.897879,99,99,0,0,0,0,0
2,29999,22,20000,70,0,40,9999,0.100000,99,0,0.000000,11,0.000000,29.774511,0.855364,99,99,0,0,0,0,0
2,29999,23,20000,55,0,40,9999,0.100000,99,0,0.000000,9,2.000000,23.164684,5.581248,99,99,0,0,0,0,0
2,29999,24,20000,13,0,40,9999,0.100000,99,0,0.000000,10,2.000000,32.013543,11.519238,99,99,0,0,0,0,0
2,29999,25,20000,73,0,40,9999,0.100000,99,0,0.000000,10,0.000000,21.074931,0.686193,99,99,0,0,0,0,0
2,29999,26,20000,70,0,40,9999,0.100000,99,0,0.000000,10,1.000000,28.007717,2.535855,99,99,0,0,0,0,0
2,29999,27,20000,63,0,43,9999,0.100000,99,0,0.000000,11,6.000000,17.317777,19.112091,99,99,0,0,0,0,0
2,29999,28,20000,81,0,0,9999,0.100000,99,0,1.915333,9,0.000000,26.448117,0.970294,99,99,0,0,1,0,0
2,29999,29,20000,73,0,0,9999,0.100000,99,0,1.793428,9,0.000000,25.183785,0.477725,99,99,0,0,0,1,0
2,29999,30,20000,55,0,0,9999,0.100000,99,0,0.220656,9,0.000000,33.998590,0.351236,99,99,0,0,0,0,1
2,29999,31,20000,70,0,0,9999,0.100000,99,0,0.627677,11,0.000000,31.065611,0.304541,99,99,0,0,0,0,1
2,29999,32,20000,0,0,40,9999,0.100000,99,0,0.000000,10,0.000000,29.515860,0.162022,99,99,0,0,0,0,0
2,29999,33,20000,63,0,0,9999,0.100000,99,0,0.518444,10,0.000000,29.804194,3.824961,99,99,0,0,0,0,1
2,29999,34,20000,0,0,40,9999,0.100000,99,0,0.000000,11,0.000000,22.995355,0.303016,99,99,0,0,0,0,0
2,29999,35,20000,13,0,0,9999,0.100000,99,0,0.364532,9,0.000000,23.562490,1.663051,99,99,0,0,0,0,1
2,29999,36,20000,55,0,0,9999,0.100000,99,0,0.000174,10,0.000000,27.410603,0.086938,99,99,0,0,0,0,1
2,29999,37,20000,45,10000,40,9999,0.100000,99,0,0.000000,11,1.000000,15.629605,8.082452,99,99,0,0,0,0,0
2,29999,38,20000,90,10000,0,9999,0.100000,99,0,0.084591,11,0.000000,24.108650,0.150475,99,99,0,0,0,0,1
2,29999,39,20000,55,0,41,9999,0.100000,99,0,0.000000,9,3.000000,28.124097,7.088216,99,99,0,0,0,0,0
2,29999,40,20000,90,10000,0,9999,0.100000,99,0,1.244204,10,0.000000,21.357594,1.008200,99,99,0,0,0,1,0
2,29999,41,20000,55,0,40,9999,0.100000,99,0,0.000000,10,0.000000,24.600866,0.117423,99,99,0,0,0,0,0
2,29999,42,20000,81,0,40,9999,0.100000,99,0,0.000000,9,1.000000,19.944860,12.729272,99,99,0,0,0,0,0
2,29999,43,20000,81,0,40,9999,0.100000,99,0,0.000000,9,0.000000,21.124315,0.396568,99,99,0,0,0,0,0
2,29999,44,20000,98,0,40,9999,0.100000,99,0,0.000000,11,2.000000,28.310752,10.134085,99,99,0,0,0,0,0
2,29999,45,20000,81,0,2,9999,0.100000,99,0,0.001034,11,4.000000,16.047493,8.312679,99,99,0,0,0,0,1
2,29999,46,20000,98,0,40,9999,0.100000,99,0,0.000000,11,0.000000,35.670562,0.345884,99,99,0,0,0,0,0
2,29999,47,20000,13,0,40,9999,0.100000,99,0,0.000000,9,0.000000,22.279447,0.236713,99,99,0,0,0,0,0
2,29999,48,20000,63,0,40,9999,0.100000,99,0,0.000000,9,0.000000,19.838254,0.562079,99,99,0,0,0,0,0
2,29999,49,20000,70,0,41,9999,0.100000,99,0,0.000000,10,3.000000,18.375099,9.590338,99,99,0,0,0,0,0
2,29999,50,20000,63,0,40,9999,0.100000,99,0,0.000000,11,0.000000,30.582725,0.381129,99,99,0,0,0,0,0
2,29999,51,20000,55,0,42,9999,0.100000,99,0,0.000000,10,8.000000,25.971385,9.981125,99,99,0,0,0,0,0
2,29999,52,20000,0,0,41,9999,0.100000,99,0,0.000000,9,2.000000,16.800004,7.170648,99,99,0,0,0,0,0
2,29999,53,20000,53,10000,40,9999,0.100000,99,0,0.000000,9,0.000000,18.603806,0.179683,99,99,0,0,0,0,0
2,29999,54,20000,73,0,40,9999,0.100000,99,0,0.000000,11,0.000000,24.793281,0.634922,99,99,0,0,0,0,0
2,29999,55,20000,0,0,40,9999,0.100000,99,0,0.000000,9,0.000000,33.101763,2.642338,99,99,0,0,0,0,0
2,29999,56,20000,13,0,0,9999,0.100000,99,0,0.002510,9,0.000000,27.692303,0.429028,99,99,0,0,0,0,1
2,29999,57,20000,98,0,0,9999,0.100000,99,0,0.220410,9,0.000000,18.789491,0.153526,99,99,0,0,0,0,1
2,29999,58,20000,70,0,40,9999,0.100000,99,0,0.000000,9,0.000000,30.919318,0.909810,99,99,0,0,0,0,0
2,29999,59,20000,73,0,40,9999,0.100000,99,0,0.000000,11,0.000000,30.408721,0.590262,99,99,0,0,0,0,0
2,29999,60,20000,90,10000,0,9999,0.100000,99,0,1.248900,11,0.000000,27.548374,0.418378,99,99,0,0,0,0,1
2,29999,61,20000,70,0,0,9999,0.100000,99,0,0.256964,11,0.000000,21.088269,0.643200,99,99,0,0,1,0,0
2,29999,62,20000,22,0,40,9999,0.100000,99,0,0.000000,9,0.000000,20.944950,0.457288,99,99,0,0,0,0,0
2,29999,63,20000,13,0,40,9999,0.100000,99,0,0.000000,11,0.000000,17.506417,6.706007,99,99,0,0,0,0,0
2,29999,64,20000,73,0,0,9999,0.100000,99,0,0.776597,11,0.000000,25.751309,0.346304,99,99,0,0,0,0,1
2,29999,65,20000,45,10000,42,9999,0.100000,99,0,0.000000,11,7.000000,24.691647,9.111077,99,99,0,0,0,0,0
2,29999,66,20000,53,10000,0,9999,0.100000,99,0,0.250973,9,1.000000,16.668020,1.553608,99,99,0,0,0,0,1
2,29999,67,20000,53,10000,40,9999,0.100000,99,0,0.000000,11,3.000000,30.507920,14.233362,99,99,0,0,0,0,0
2,29999,68,20000,70,0,0,9999,0.100000,99,0,1.282902,9,0.000000,30.125720,0.428953,99,99,0,0,0,0,1
2,29999,69,20000,13,0,40,9999,0.100000,99,0,0.000000,11,0.000000,35.610640,0.378588,99,99,0,0,0,0,0
2,29999,70,20000,53,10000,92,9999,0.100000,99,0,15.018921,11,4.000000,18.974844,10.546903,99,99,1,0,0,0,0
2,29999,71,20000,70,0,40,9999,0.100000,99,0,0.000000,10,0.000000,22.168044,0.419375,99,99,0,0,0,0,0
2,29999,72,20000,13,0,40,9999,0.100000,99,0,0.000000,10,0.000000,33.388745,0.863844,99,99,0,0,0,0,0
2,29999,73,20000,70,0,40,9999,0.100000,99,0,0.000000,9,1.000000,21.170409,2.529621,99,99,0,0,0,0,0
2,29999,74,20000,90,10000,40,9999,0.100000,99,0,0.000000,11,0.000000,20.649567,0.656300,99,99,0,0,0,0,0
2,29999,75,20000,55,0,40,9999,0.100000,99,0,0.000000,10,1.000000,29.734688,2.782701,99,99,0,0,0,0,0
2,29999,76,20000,53,10000,40,9999,0.100000,99,0,0.000000,9,0.000000,27.577356,1.413514,99,99,0,0,0,0,0
2,29999,77,20000,73,0,40,9999,0.100000,99,0,0.000000,11,0.000000,10.898985,1.002276,99,99,0,0,0,0,0
2,29999,78,20000,13,0,40,9999,0.100000,99,0,0.000000,9,0.000000,20.474570,0.698374,99,99,0,0,0,0,0
2,29999,79,20000,90,10000,0,9999,0.100000,99,0,0.000306,10,0.000000,20.963546,0.063767,99,99,0,0,0,0,1
2,29999,80,20000,73,0,40,9999,0.100000,99,0,0.000000,11,1.000000,26.192953,5.263052,99,99,0,0,0,0,0
2,29999,81,20000,55,0,40,9999,0.100000,99,0,0.000000,10,0.000000,16.966789,0.526456,99,99,0,0,0,0,0
2,29999,82,20000,63,0,40,9999,0.100000,99,0,0.000000,9,0.000000,30.915456,0.482597,99,99,0,0,0,0,0
2,29999,83,20000,90,10000,40,9999,0.100000,99,0,0.000000,11,0.000000,14.420035,5.682544,99,99,0,0,0,0,0
2,29999,84,20000,63,0,1,9999,0.100000,99,0,0.021577,11,2.000000,16.619739,6.704638,99,99,0,0,1,0,0
2,29999,85,20000,53,10000,40,9999,0.100000,99,0,0.000000,9,1.000000,31.072158,4.958608,99,99,0,0,0,0,0
2,29999,86,20000,70,0,0,9999,0.100000,99,0,0.016520,9,0.000000,23.990829,0.106747,99,99,0,0,0,0,1
2,29999,87,20000,70,0,40,9999,0.100000,99,0,0.000000,9,1.000000,24.373180,2.748039,99,99,0,0,0,0,0
2,29999,88,20000,81,0,40,9999,0.100000,99,0,0.000000,9,0.000000,23.424774,0.225531,99,99,0,0,0,0,0
2,29999,89,20000,0,0,40,9999,0.100000,99,0,0.000000,10,0.000000,20.627984,0.127779,99,99,0,0,0,0,0
2,29999,90,20000,63,0,6,9999,0.100000,99,0,0.000029,10,9.000000,13.081885,18.998547,99,99,0,0,0,0,1
2,29999,91,20000,63,0,40,9999,0.100000,99,0,0.000000,10,0.000000,29.923484,5.252954,99,99,0,0,0,0,0
2,29999,92,20000,63,0,40,9999,0.100000,99,0,0.000000,11,0.000000,24.561535,0.234173,99,99,0,0,0,0,0
2,29999,93,20000,90,10000,40,9999,0.100000,99,0,0.000000,11,0.000000,33.118266,0.364376,99,99,0,0,0,0,0
2,29999,94,20000,13,0,0,9999,0.100000,99,0,0.284241,9,0.000000,24.141085,0.269935,99,99,0,0,0,1,0
2,29999,95,20000,53,10000,40,9999,0.100000,99,0,0.000000,11,0.000000,29.924529,1.089277,99,99,0,0,0,0,0
2,29999,96,20000,98,0,40,9999,0.100000,99,0,0.000000,9,0.000000,26.668210,1.062733,99,99,0,0,0,0,0
2,29999,97,20000,63,0,40,9999,0.100000,99,0,0.000000,10,0.000000,29.028025,0.009821,99,99,0,0,0,0,0
2,29999,98,20000,13,0,40,9999,0.100000,99,0,0.000000,9,3.000000,30.950365,8.134380,99,99,0,0,0,0,0
2,29999,99,20000,73,0,40,9999,0.100000,99,0,0.000000,10,0.000000,33.402402,0.009353,99,99,0,0,0,0,0
3,39999,0,30000,81,0,0,9999,0.100000,99,0,1.034922,11,0.000000,30.738855,0.488839,99,99,0,1,0,0,0
3,39999,1,30000,81,0,40,9999,0.100000,99,0,0.000000,11,0.000000,25.821489,0.445899,99,99,0,0,0,0,0
3,39999,2,30000,0,0,0,9999,0.100000,99,0,0.021240,11,0.000000,29.754017,0.091232,99,99,0,0,0,1,0
3,39999,3,30000,73,0,40,9999,0.100000,99,0,0.000000,12,0.000000,24.511212,0.325301,99,99,0,0,0,0,0
3,39999,4,30000,90,10000,40,9999,0.100000,99,0,0.000000,12,0.000000,13.454519,0.221226,99,99,0,0,0,0,0
3,39999,5,30000,70,0,0,9999,0.100000,99,0,0.000347,12,0.000000,29.526602,0.096074,99,99,0,0,0,0,1
3,39999,6,30000,70,0,40,9999,0.100000,99,0,0.000000,11,0.000000,24.639591,0.495403,99,99,0,0,0,0,0
3,39999,7,30000,73,0,0,9999,0.100000,99,0,2.124318,11,1.000000,21.867673,3.173035,99,99,0,0,0,0,1
3,39999,8,30000,63,0,40,9999,0.100000,99,0,0.000000,11,0.000000,29.352051,1.009302,99,99,0,0,0,0,0
3,39999,9,30000,13,0,40,9999,0.100000,99,0,0.000000,12,0.000000,33.971871,1.396560,99,99,0,0,0,0,0
3,39999,10,30000,13,0,0,9999,0.100000,99,0,0.078798,12,1.000000,30.883907,6.182277,99,99,0,0,0,0,1
3,39999,11,30000,53,10000,41,9999,0.100000,99,0,0.000000,12,4.000000,34.998673,8.334537,99,99,0,0,0,0,0
3,39999,12,30000,81,0,0,9999,0.100000,99,0,1.427855,12,0.000000,23.311391,4.703371,99,99,0,1,0,0,0
3,39999,13,30000,70,0,40,9999,0.100000,99,0,0.000000,12,0.000000,21.817630,0.507796,99,99,0,0,0,0,0
3,39999,14,30000,90,10000,0,9999,0.100000,99,0,0.000276,11,0.000000,27.591810,0.085727,99,99,0,0,0,0,1
3,39999,15,30000,73,0,0,9999,0.100000,99,0,1.313712,11,0.000000,24.519018,0.488874,99,99,0,0,0,0,1
3,39999,16,30000,90,10000,40,9999,0.100000,99,0,0.000000,13,0.000000,33.576066,7.824195,99,99,0,0,0,0,0
3,39999,17,30000,90,10000,0,9999,0.100000,99,0,5.795432,11,1.000000,26.678883,1.338333,99,99,0,0,1,0,0
3,39999,18,30000,70,0,40,9999,0.100000,99,0,0.000000,13,0.000000,24.805633,2.339839,99,99,0,0,0,0,0
3,39999,19,30000,0,0,0,9999,0.100000,99,0,0.000978,11,0.000000,26.059055,0.080270,99,99,0,0,0,0,1
3,39999,20,30000,90,20000,40,9999,0.100000,99,0,0.000000,13,1.000000,28.836381,6.797730,99,99,0,0,0,0,0
3,39999,21,30000,0,0,0,9999,0.100000,99,0,0.566631,11,0.000000,29.225155,1.091538,99,99,0,0,0,0,1
3,39999,22,30000,16,20000,40,9999,0.100000,99,0,0.000000,13,0.000000,29.710220,0.652672,99,99,0,0,0,0,0
3,39999,23,30000,81,0,40,9999,0.100000,99,0,0.000000,11,1.000000,21.244693,2.850531,99,99,0,0,0,0,0
3,39999,24,30000,90,10000,40,9999,0.100000,99,0,0.000000,13,0.000000,34.175345,6.999910,99,99,0,0,0,0,0
3,39999,25,30000,0,0,40,9999,0.100000,99,0,0.000000,11,1.000000,20.584994,1.493702,99,99,0,0,0,0,0
3,39999,26,30000,16,20000,40,9999,0.100000,99,0,0.000000,13,0.000000,29.201940,0.817858,99,99,0,0,0,0,0
3,39999,27,30000,53,10000,0,9999,0.100000,99,0,0.011056,12,1.000000,18.477850,2.891748,99,99,0,0,1,0,0
3,39999,28,30000,90,10000,40,9999,0.100000,99,0,0.000000,11,1.000000,26.804836,1.265449,99,99,0,0,0,0,0
3,39999,29,30000,81,0,41,9999,0.100000,99,0,0.000000,12,4.000000,25.528689,6.922490,99,99,0,0,0,0,0
3,39999,30,30000,90,10000,0,9999,0.100000,99,0,0.056807,13,0.000000,34.138986,0.234799,99,99,0,0,0,0,1
3,39999,31,30000,53,10000,40,9999,0.100000,99,0,0.000000,11,0.000000,31.226398,0.404101,99,99,0,0,0,0,0
3,39999,32,30000,45,10000,40,9999,0.100000,99,0,0.000000,12,0.000000,29.513356,0.164875,99,99,0,0,0,0,0
3,39999,33,30000,73,0,0,9999,0.100000,99,0,1.242784,13,0.000000,30.457196,0.338262,99,99,0,0,0,0,1
3,39999,34,30000,0,0,40,9999,0.100000,99,0,0.000000,11,0.000000,22.991502,0.228339,99,99,0,0,0,0,0
3,39999,35,30000,70,0,0,9999,0.100000,99,0,0.091640,11,0.000000,24.349260,0.195192,99,99,0,0,0,0,1
3,39999,36,30000,63,0,40,9999,0.100000,99,0,0.000000,12,0.000000,27.411597,0.084660,99,99,0,0,0,0,0
3,39999,37,30000,98,0,40,9999,0.100000,99,0,0.000000,12,0.000000,16.003825,7.426171,99,99,0,0,0,0,0
3,39999,38,30000,90,10000,0,9999,0.100000,99,0,0.234792,13,0.000000,24.116405,0.162836,99,99,0,0,0,0,1
3,39999,39,30000,63,0,40,9999,0.100000,99,0,0.000000,13,1.000000,29.587682,4.197320,99,99,0,0,0,0,0
3,39999,40,30000,45,10000,0,9999,0.100000,99,0,1.836680,12,0.000000,21.128229,0.853139,99,99,0,0,0,1,0
3,39999,41,30000,98,0,40,9999,0.100000,99,0,0.000000,11,0.000000,24.615097,0.736981,99,99,0,0,0,0,0
3,39999,42,30000,98,0,40,9999,0.100000,99,0,0.000000,12,1.000000,20.758784,3.038932,99,99,0,0,0,0,0
3,39999,43,30000,53,10000,40,9999,0.100000,99,0,0.000000,13,0.000000,20.859167,0.689740,99,99,0,0,0,0,0
3,39999,44,30000,53,10000,40,9999,0.100000,99,0,0.000000,12,1.000000,28.857062,13.390334,99,99,0,0,0,0,0
3,39999,45,30000,98,0,0,9999,0.100000,99,0,0.007331,12,0.000000,16.047046,0.103437,99,99,0,0,0,0,1
3,39999,46,30000,81,0,40,9999,0.100000,99,0,0.000000,12,0.000000,35.946233,0.417778,99,99,0,0,0,0,0
3,39999,47,30000,81,0,40,9999,0.100000,99,0,0.000000,11,0.000000,22.281048,0.248231,99,99,0,0,0,0,0
3,39999,48,30000,98,0,40,9999,0.100000,99,0,0.000000,11,0.000000,19.873655,0.448600,99,99,0,0,0,0,0
3,39999,49,30000,45,10000,40,9999,0.100000,99,0,0.000000,11,0.000000,17.486547,2.103431,99,99,0,0,0,0,0
3,39999,50,30000,63,0,40,9999,0.100000,99,0,0.000000,12,0.000000,30.699805,0.736157,99,99,0,0,0,0,0
3,39999,51,30000,53,10000,40,9999,0.100000,99,0,0.000000,11,2.000000,24.278340,3.464461,99,99,0,0,0,0,0
3,39999,52,30000,73,0,40,9999,0.100000,99,0,0.000000,12,0.000000,18.198452,1.007015,99,99,0,0,0,0,0
3,39999,53,30000,70,20000,0,9999,0.100000,99,0,0.370737,13,0.000000,18.634036,0.212721,99,99,0,0,0,0,1
3,39999,54,30000,0,0,40,9999,0.100000,99,0,0.000000,11,0.000000,24.788072,0.329304,99,99,0,0,0,0,0
3,39999,55,30000,98,0,40,9999,0.100000,99,0,0.000000,12,0.000000,33.847763,0.706203,99,99,0,0,0,0,0
3,39999,56,30000,55,0,0,9999,0.100000,99,0,0.166437,13,0.000000,27.768137,0.309823,99,99,0,0,0,0,1
3,39999,57,30000,70,0,40,9999,0.100000,99,0,0.000000,11,0.000000,18.816887,0.576818,99,99,0,0,0,0,0
3,39999,58,30000,81,0,40,9999,0.100000,99,0,0.000000,12,0.000000,31.051012,13.795978,99,99,0,0,0,0,0
3,39999,59,30000,98,0,40,9999,0.100000,99,0,0.000000,12,0.000000,30.559096,0.577322,99,99,0,0,0,0,0
3,39999,60,30000,90,20000,0,9999,0.100000,99,0,5.770744,12,1.000000,27.777557,1.179058,99,99,0,0,0,0,1
3,39999,61,30000,0,0,0,9999,0.100000,99,0,2.748460,11,1.000000,20.620740,1.313971,99,99,0,0,1,0,0
3,39999,62,30000,55,0,40,9999,0.100000,99,0,0.000000,12,0.000000,20.636833,0.901802,99,99,0,0,0,0,0
3,39999,63,30000,13,0,40,9999,0.100000,99,0,0.000000,11,0.000000,17.345633,4.196194,99,99,0,0,0,0,0
3,39999,64,30000,98,0,0,9999,0.100000,99,0,0.230248,12,0.000000,25.752370,0.189476,99,99,0,0,0,0,1
3,39999,65,30000,90,20000,40,9999,0.100000,99,0,0.000000,12,0.000000,19.076243,0.234875,99,99,0,0,0,0,0
3,39999,66,30000,45,10000,40,9999,0.100000,99,0,0.000000,11,0.000000,17.163439,0.375932,99,99,0,0,0,0,0
3,39999,67,30000,70,0,40,9999,0.100000,99,0,0.000000,12,0.000000,30.613493,1.347338,99,99,0,0,0,0,0
3,39999,68,30000,70,0,0,9999,0.100000,99,0,0.630973,11,0.000000,30.021374,0.288326,99,99,0,0,0,0,1
3,39999,69,30000,55,0,40,9999,0.100000,99,0,0.000000,12,0.000000,35.887963,0.450233,99,99,0,0,0,0,0
3,39999,70,30000,90,20000,90,9999,0.100000,99,0,0.341985,13,0.000000,23.190443,1.073837,99,99,1,0,0,0,0
3,39999,71,30000,0,0,40,9999,0.100000,99,0,0.000000,12,0.000000,21.830075,0.493488,99,99,0,0,0,0,0
3,39999,72,30000,13,0,40,9999,0.100000,99,0,0.000000,13,0.000000,33.515649,0.134208,99,99,0,0,0,0,0
3,39999,73,30000,73,0,40,9999,0.100000,99,0,0.000000,12,0.000000,23.100153,3.722657,99,99,0,0,0,0,0
3,39999,74,30000,55,0,40,9999,0.100000,99,0,0.000000,11,0.000000,20.295162,1.004669,99,99,0,0,0,0,0
3,39999,75,30000,90,10000,0,9999,0.100000,99,0,0.037117,13,0.000000,29.254231,0.222964,99,99,0,0,0,0,1
3,39999,76,30000,53,10000,40,9999,0.100000,99,0,0.000000,13,0.000000,27.654482,1.855283,99,99,0,0,0,0,0
3,39999,77,30000,13,0,0,9999,0.100000,99,0,0.025598,11,1.000000,10.936862,4.663944,99,99,0,0,1,0,0
3,39999,78,30000,73,0,40,9999,0.100000,99,0,0.000000,13,1.000000,20.732727,5.772612,99,99,0,0,0,0,0
3,39999,79,30000,63,0,40,9999,0.100000,99,0,0.000000,13,0.000000,20.963306,0.064204,99,99,0,0,0,0,0
3,39999,80,30000,98,0,41,9999,0.100000,99,0,0.000000,12,3.000000,27.312813,8.440679,99,99,0,0,0,0,0
3,39999,81,30000,81,0,0,9999,0.100000,99,0,0.077783,12,0.000000,17.026936,0.174634,99,99,0,0,0,0,1
3,39999,82,30000,13,0,40,9999,0.100000,99,0,0.000000,13,0.000000,31.030094,0.565049,99,99,0,0,0,0,0
3,39999,83,30000,73,0,40,9999,0.100000,99,0,0.000000,13,0.000000,14.410521,6.343382,99,99,0,0,0,0,0
3,39999,84,30000,0,0,40,9999,0.100000,99,0,0.000000,12,0.000000,18.900203,0.155173,99,99,0,0,0,0,0
3,39999,85,30000,53,10000,41,9999,0.100000,99,0,0.000000,11,5.000000,31.091031,6.216651,99,99,0,0,0,0,0
3,39999,86,30000,73,0,0,9999,0.100000,99,0,0.354043,12,0.000000,23.989043,0.232623,99,99,0,0,0,0,1
3,39999,87,30000,90,10000,40,9999,0.100000,99,0,0.000000,13,0.000000,25.347682,0.103773,99,99,0,0,0,0,0
3,39999,88,30000,98,0,43,9999,0.100000,99,0,0.000000,11,9.000000,23.426499,19.912735,99,99,0,0,0,0,0
3,39999,89,30000,53,10000,0,9999,0.100000,99,0,0.000110,12,0.000000,20.628320,0.128041,99,99,0,0,0,0,1
3,39999,90,30000,0,0,0,9999,0.100000,99,0,0.000015,12,0.000000,13.082167,0.123428,99,99,0,0,0,0,1
3,39999,91,30000,0,0,40,9999,0.100000,99,0,0.000000,12,3.000000,30.161365,15.463475,99,99,0,0,0,0,0
3,39999,92,30000,90,20000,40,9999,0.100000,99,0,0.000000,12,0.000000,24.516762,0.219186,99,99,0,0,0,0,0
3,39999,93,30000,73,0,40,9999,0.100000,99,0,0.000000,13,0.000000,33.135529,0.316322,99,99,0,0,0,0,0
3,39999,94,30000,73,0,0,9999,0.100000,99,0,0.065718,11,0.000000,24.180515,0.200226,99,99,0,0,0,1,0
3,39999,95,30000,90,10000,40,9999,0.100000,99,0,0.000000,12,0.000000,30.252263,0.310522,99,99,0,0,0,0,0
3,39999,96,30000,63,0,42,9999,0.100000,99,0,0.000000,13,6.000000,26.914189,12.978412,99,99,0,0,0,0,0
3,39999,97,30000,53,10000,40,9999,0.100000,99,0,0.000000,12,0.000000,29.027968,0.009875,99,99,0,0,0,0,0
3,39999,98,30000,73,0,40,9999,0.100000,99,0,0.000000,12,0.000000,29.969063,0.262289,99,99,0,0,0,0,0
3,39999,99,30000,70,20000,40,9999,0.100000,99,0,0.000000,13,0.000000,33.402558,0.009383,99,99,0,0,0,0,0
4,49999,0,40000,70,20000,0,9999,0.100000,99,0,0.951434,13,0.000000,30.894637,1.287394,99,99,0,1,0,0,0
4,49999,1,40000,45,10000,40,9999,0.100000,99,0,0.000000,13,0.000000,25.827363,1.586538,99,99,0,0,0,0,0
4,49999,2,40000,53,10000,0,9999,0.100000,99,0,0.018951,13,0.000000,29.755135,0.169565,99,99,0,0,0,1,0
4,49999,3,40000,16,20000,40,9999,0.100000,99,0,0.000000,13,0.000000,24.465780,0.396031,99,99,0,0,0,0,0
4,49999,4,40000,73,0,40,9999,0.100000,99,0,0.000000,13,0.000000,13.453445,0.227875,99,99,0,0,0,0,0
4,49999,5,40000,96,30000,0,9999,0.100000,99,0,0.000472,13,0.000000,29.526884,0.095592,99,99,0,0,0,0,1
4,49999,6,40000,90,20000,40,9999,0.100000,99,0,0.000000,13,0.000000,24.735342,0.831997,99,99,0,0,0,0,0
4,49999,7,40000,13,0,0,9999,0.100000,99,0,1.863620,13,0.000000,21.476146,0.371484,99,99,0,0,0,0,1
4,49999,8,40000,90,10000,40,9999,0.100000,99,0,0.000000,13,0.000000,29.970696,0.522285,99,99,0,0,0,0,0
4,49999,9,40000,0,0,40,9999,0.100000,99,0,0.000000,13,0.000000,33.966019,1.715978,99,99,0,0,0,0,0
4,49999,10,40000,73,0,0,9999,0.100000,99,0,0.816935,13,0.000000,31.618134,0.293852,99,99,0,0,0,0,2
4,49999,11,40000,63,0,40,9999,0.100000,99,0,0.000000,13,2.000000,30.832136,18.858388,99,99,0,0,0,0,0
4,49999,12,40000,81,0,40,9999,0.100000,99,0,0.000000,13,1.000000,23.984266,7.823511,99,99,0,0,0,0,0
4,49999,13,40000,70,20000,40,9999,0.100000,99,0,0.000000,13,0.000000,21.400980,0.451508,99,99,0,0,0,0,0
4,49999,14,40000,16,20000,0,9999,0.100000,99,0,0.000257,13,0.000000,27.592550,0.084702,99,99,0,0,0,0,1
4,49999,15,40000,70,20000,0,9999,0.100000,99,0,0.110195,13,0.000000,24.609095,0.166561,99,99,0,0,0,0,1
4,49999,16,40000,16,20000,40,9999,0.100000,99,0,0.000000,13,1.000000,33.475055,18.688877,99,99,0,0,0,0,0
4,49999,17,40000,55,0,0,9999,0.100000,99,0,0.000000,13,1.000000,27.863781,1.222359,99,99,0,0,1,0,0
4,49999,18,40000,53,10000,40,9999,0.100000,99,0,0.000000,13,0.000000,24.897949,2.530012,99,99,0,0,0,0,0
4,49999,19,40000,0,0,0,9999,0.100000,99,0,0.001081,13,0.000000,26.060238,0.081973,99,99,0,0,0,0,1
4,49999,20,40000,63,0,40,9999,0.100000,99,0,0.000000,13,2.000000,27.654732,18.467078,99,99,0,0,0,0,0
4,49999,21,40000,45,10000,40,9999,0.100000,99,0,0.000000,13,0.000000,30.070553,0.422978,99,99,0,0,0,0,0
4,49999,22,40000,53,10000,40,9999,0.100000,99,0,0.000000,13,0.000000,29.643418,0.374747,99,99,0,0,0,0,0
4,49999,23,40000,73,0,40,9999,0.100000,99,0,0.000000,13,0.000000,20.233302,1.350583,99,99,0,0,0,0,0
4,49999,24,40000,70,20000,41,9999,0.100000,99,0,0.000000,13,4.000000,34.195208,14.271288,99,99,0,0,0,0,0
4,49999,25,40000,53,10000,41,9999,0.100000,99,0,0.000000,13,4.000000,19.296238,4.118157,99,99,0,0,0,0,0
4,49999,26,40000,53,10000,40,9999,0.100000,99,0,0.000000,13,0.000000,29.841231,0.549288,99,99,0,0,0,0,0
4,49999,27,40000,16,20000,40,9999,0.100000,99,0,0.000000,13,0.000000,18.634519,0.146114,99,99,0,0,0,0,0
4,49999,28,40000,70,0,0,9999,0.100000,99,0,5.391566,13,1.000000,27.990222,1.130285,99,99,0,0,2,0,0
4,49999,29,40000,53,10000,41,9999,0.100000,99,0,0.000000,13,4.000000,29.759119,8.010763,99,99,0,0,0,0,0
4,49999,30,40000,55,0,40,9999,0.100000,99,0,0.000000,13,0.000000,34.156708,0.119619,99,99,0,0,0,0,0
4,49999,31,40000,70,20000,0,9999,0.100000,99,0,0.000000,13,0.000000,31.416760,0.340669,99,99,0,0,0,0,1
4,49999,32,40000,73,0,40,9999,0.100000,99,0,0.000000,13,0.000000,29.515025,0.250082,99,99,0,0,0,0,0
4,49999,33,40000,70,0,0,9999,0.100000,99,0,0.931158,13,0.000000,30.645321,0.316310,99,99,0,0,0,0,1
4,49999,34,40000,73,0,40,9999,0.100000,99,0,0.000000,13,0.000000,22.967503,0.254326,99,99,0,0,0,0,0
4,49999,35,40000,90,20000,40,9999,0.100000,99,0,0.000000,13,0.000000,24.427583,0.514942,99,99,0,0,0,0,0
4,49999,36,40000,45,10000,40,9999,0.100000,99,0,0.000000,13,0.000000,27.412577,0.082732,99,99,0,0,0,0,0
4,49999,37,40000,16,20000,41,9999,0.135000,99,0,0.000000,13,3.000000,16.030755,10.178572,99,99,0,0,0,0,0
4,49999,38,40000,55,0,40,9999,0.100000,99,0,0.000000,13,0.000000,24.115855,0.174149,99,99,0,0,0,0,0
4,49999,39,40000,55,0,40,9999,0.100000,99,0,0.000000,13,2.000000,29.286260,5.707339,99,99,0,0,0,0,0
4,49999,40,40000,0,0,0,9999,0.100000,99,0,0.186480,13,0.000000,20.757655,0.256630,99,99,0,0,0,1,0
4,49999,41,40000,16,20000,0,9999,0.100000,99,0,0.260486,13,0.000000,24.628589,1.535124,99,99,0,0,0,0,1
4,49999,42,40000,73,0,40,9999,0.100000,99,0,0.000000,13,1.000000,20.042223,3.764364,99,99,0,0,0,0,0
4,49999,43,40000,45,10000,40,9999,0.100000,99,0,0.000000,13,0.000000,20.483846,0.384265,99,99,0,0,0,0,0
4,49999,44,40000,73,0,0,9999,0.100000,99,0,0.182013,13,1.000000,29.027454,5.256772,99,99,0,0,0,0,1
4,49999,45,40000,90,10000,0,9999,0.100000,99,0,0.027419,13,0.000000,16.048927,0.086017,99,99,0,0,0,0,1
4,49999,46,40000,81,0,40,9999,0.100000,99,0,0.000000,13,0.000000,36.225615,0.406780,99,99,0,0,0,0,0
4,49999,47,40000,45,10000,40,9999,0.100000,99,0,0.000000,13,0.000000,22.281290,0.243795,99,99,0,0,0,0,0
4,49999,48,40000,81,0,40,9999,0.100000,99,0,0.000000,13,0.000000,19.816686,1.165001,99,99,0,0,0,0,0
4,49999,49,40000,55,0,42,9999,0.100000,99,0,0.000000,13,4.000000,17.518159,9.568663,99,99,0,0,0,0,0
4,49999,50,40000,55,0,40,9999,0.100000,99,0,0.000000,13,0.000000,30.904492,0.613013,99,99,0,0,0,0,0
4,49999,51,40000,96,30000,40,9999,0.100000,99,0,0.000000,13,0.000000,26.319385,1.042129,99,99,0,0,0,0,0
4,49999,52,40000,73,0,40,9999,0.100000,99,0,0.000000,13,0.000000,17.914953,0.263105,99,99,0,0,0,0,0
4,49999,53,40000,70,0,0,9999,0.100000,99,0,0.404906,13,0.000000,18.564835,0.493963,99,99,0,0,0,0,1
4,49999,54,40000,70,0,0,9999,0.100000,99,0,1.472957,13,0.000000,24.878916,0.627834,99,99,0,0,0,0,1
4,49999,55,40000,96,30000,0,9999,0.100000,99,0,0.005414,13,0.000000,33.908715,0.338476,99,99,0,0,0,0,1
4,49999,56,40000,73,0,40,9999,0.100000,99,0,0.000000,13,0.000000,27.682992,0.166375,99,99,0,0,0,0,0
4,49999,57,40000,96,30000,40,9999,0.100000,99,0,0.000000,13,0.000000,18.741256,1.480022,99,99,0,0,0,0,0
4,49999,58,40000,55,0,40,9999,0.100000,99,0,0.000000,13,0.000000,31.260622,22.252868,99,99,0,0,0,0,0
4,49999,59,40000,73,0,40,9999,0.100000,99,0,0.000000,13,0.000000,30.713004,1.311809,99,99,0,0,0,0,0
4,49999,60,40000,73,0,0,9999,0.100000,99,0,4.199891,13,1.000000,28.905126,1.963903,99,99,0,0,0,0,1
4,49999,61,40000,53,10000,41,9999,0.100000,99,0,0.000000,13,4.000000,19.463431,10.687244,99,99,0,0,0,0,0
4,49999,62,40000,81,0,40,9999,0.100000,99,0,0.000000,13,0.000000,20.238818,0.809948,99,99,0,0,0,0,0
4,49999,63,40000,81,0,40,9999,0.100000,99,0,0.000000,13,0.000000,17.079802,0.445427,99,99,0,0,0,0,0
4,49999,64,40000,16,20000,0,9999,0.100000,99,0,0.287579,13,0.000000,25.779197,0.207379,99,99,0,0,0,0,1
4,49999,65,40000,90,20000,40,9999,0.100000,99,0,0.000000,13,0.000000,19.073670,0.247664,99,99,0,0,0,0,0
4,49999,66,40000,53,10000,40,9999,0.065000,99,0,0.000000,13,0.000000,17.126194,0.291497,99,99,0,0,0,0,0
4,49999,67,40000,90,10000,40,9999,0.100000,99,0,0.000000,13,0.000000,30.849040,2.779674,99,99,0,0,0,0,0
4,49999,68,40000,81,0,0,9999,0.100000,99,0,0.531578,13,0.000000,29.959922,0.288792,99,99,0,0,0,0,1
4,49999,69,40000,70,0,40,9999,0.100000,99,0,0.000000,13,0.000000,36.167035,0.437917,99,99,0,0,0,0,0
4,49999,70,40000,70,0,90,9999,0.100000,99,0,0.368046,13,0.000000,23.301413,1.085105,99,99,1,0,0,0,0
4,49999,71,40000,73,0,40,9999,0.100000,99,0,0.000000,13,0.000000,21.423976,0.440764,99,99,0,0,0,0,0
4,49999,72,40000,70,0,40,9999,0.100000,99,0,0.000000,13,0.000000,33.529063,0.119759,99,99,0,0,0,0,0
4,49999,73,40000,0,0,0,9999,0.100000,99,0,0.831950,13,1.000000,23.738486,7.684618,99,99,0,1,0,0,0
4,49999,74,40000,13,0,40,9999,0.100000,99,0,0.000000,13,0.000000,19.906113,0.774198,99,99,0,0,0,0,0
4,49999,75,40000,90,10000,0,9999,0.100000,99,0,0.036956,13,0.000000,29.255534,0.217282,99,99,0,0,0,0,1
4,49999,76,40000,90,20000,0,9999,0.100000,99,0,0.000198,13,0.000000,27.799352,0.100013,99,99,0,0,0,0,1
4,49999,77,40000,73,0,0,9999,0.100000,99,0,0.016281,13,0.000000,12.536184,0.136476,99,99,0,0,1,0,0
4,49999,78,40000,45,10000,41,9999,0.100000,99,0,0.000000,13,4.000000,19.424281,4.133692,99,99,0,0,0,0,0
4,49999,79,40000,90,20000,0,9999,0.100000,99,0,0.000201,13,0.000000,20.963028,0.064434,99,99,0,0,0,0,1
4,49999,80,40000,45,10000,0,9999,0.100000,99,0,0.001899,13,0.000000,26.094155,0.784650,99,99,0,0,0,1,0
4,49999,81,40000,90,20000,0,9999,0.100000,99,0,0.266034,13,0.000000,16.926730,0.095228,99,99,0,0,0,0,1
4,49999,82,40000,81,0,40,9999,0.100000,99,0,0.000000,13,0.000000,31.237818,0.540591,99,99,0,0,0,0,0
4,49999,83,40000,90,20000,40,9999,0.100000,99,0,0.000000,13,0.000000,14.428708,6.129200,99,99,0,0,0,0,0
4,49999,84,40000,0,0,0,9999,0.100000,99,0,0.012304,13,0.000000,18.904848,0.104835,99,99,0,0,1,0,0
4,49999,85,40000,55,0,40,9999,0.100000,99,0,0.000000,13,1.000000,25.813837,7.383247,99,99,0,0,0,0,0
4,49999,86,40000,13,0,0,9999,0.100000,99,0,0.252590,13,0.000000,23.976080,0.197760,99,99,0,0,0,0,1
4,49999,87,40000,53,10000,40,9999,0.100000,99,0,0.000000,13,0.000000,25.370925,0.144480,99,99,0,0,0,0,0
4,49999,88,40000,81,0,40,9999,0.100000,99,0,0.000000,13,0.000000,23.428595,0.235519,99,99,0,0,0,0,0
4,49999,89,40000,55,0,40,9999,0.100000,99,0,0.000000,13,0.000000,20.628807,0.128580,99,99,0,0,0,0,0
4,49999,90,40000,16,20000,0,9999,0.100000,99,0,0.000372,13,0.000000,13.082393,0.123738,99,99,0,0,0,0,1
4,49999,91,40000,70,0,40,9999,0.100000,99,0,0.000000,13,0.000000,30.141240,0.437329,99,99,0,0,0,0,0
4,49999,92,40000,53,10000,40,9999,0.100000,99,0,0.000000,13,0.000000,24.479522,0.211560,99,99,0,0,0,0,0
4,49999,93,40000,73,0,40,9999,0.100000,99,0,0.000000,13,0.000000,33.154835,0.300591,99,99,0,0,0,0,0
4,49999,94,40000,90,20000,0,9999,0.100000,99,0,0.069862,13,0.000000,24.168545,0.272667,99,99,0,0,0,1,0
4,49999,95,40000,0,0,40,9999,0.100000,99,0,0.000000,13,0.000000,30.431435,0.287720,99,99,0,0,0,0,0
4,49999,96,40000,16,20000,0,9999,0.100000,99,0,0.000000,13,1.000000,28.100661,1.123268,99,99,0,0,1,0,0
4,49999,97,40000,81,0,40,9999,0.100000,99,0,0.000000,13,0.000000,29.028037,0.009790,99,99,0,0,0,0,0
4,49999,98,40000,73,0,40,9999,0.100000,99,0,0.000000,13,0.000000,30.143679,0.258620,99,99,0,0,0,0,0
4,49999,99,40000,55,0,40,9999,0.100000,99,0,0.000000,13,0.000000,33.402577,0.009437,99,99,0,0,0,0,0
5,59999,0,50000,73,0,0,9999,0.100000,99,0,9.262188,13,1.000000,31.338746,5.929871,99,99,0,1,0,0,0
5,59999,1,50000,25,40000,40,9999,0.100000,99,0,0.000000,13,0.000000,25.857274,1.831199,99,99,0,0,0,0,0
5,59999,2,50000,96,30000,0,9999,0.100000,99,0,0.037775,13,0.000000,29.690336,0.111111,99,99,0,0,0,1,0
5,59999,3,50000,70,20000,0,9999,0.100000,99,0,0.001364,13,0.000000,24.358495,0.288271,99,99,0,0,0,1,0
5,59999,4,50000,81,0,40,9999,0.100000,99,0,0.000000,13,0.000000,13.453401,0.222663,99,99,0,0,0,0,0
5,59999,5,50000,0,0,0,9999,0.100000,99,0,0.000198,13,0.000000,29.527189,0.095858,99,99,0,0,0,0,1
5,59999,6,50000,16,20000,40,9999,0.100000,99,0,0.000000,13,0.000000,24.989938,1.589841,99,99,0,0,0,0,0
5,59999,7,50000,73,0,0,9999,0.100000,99,0,4.577408,13,0.000000,21.134027,0.985837,99,99,0,0,0,0,1
5,59999,8,50000,81,0,40,9999,0.100000,99,0,0.000000,13,0.000000,30.166557,0.504770,99,99,0,0,0,0,0
5,59999,9,50000,81,0,40,9999,0.100000,99,0,0.000000,13,0.000000,33.962575,1.682249,99,99,0,0,0,0,0
5,59999,10,50000,70,20000,40,9999,0.100000,99,0,0.000000,13,1.000000,31.806675,3.904029,99,99,0,0,0,0,0
5,59999,11,50000,13,0,41,9999,0.100000,99,0,0.000000,13,4.000000,28.544344,9.000871,99,99,0,0,0,0,0
5,59999,12,50000,53,10000,0,9999,0.100000,99,0,0.679991,13,1.000000,22.935553,5.391295,99,99,0,1,0,0,0
5,59999,13,50000,70,0,40,9999,0.100000,99,0,0.000000,13,0.000000,21.037660,1.034507,99,99,0,0,0,0,0
5,59999,14,50000,0,0,0,9999,0.100000,99,0,0.000457,13,0.000000,27.593360,0.084855,99,99,0,0,0,0,1
5,59999,15,50000,90,10000,0,9999,0.100000,99,0,0.996840,13,0.000000,24.595472,0.216122,99,99,0,0,0,0,1
5,59999,16,50000,70,0,40,9999,0.100000,99,0,0.000000,13,3.000000,32.357776,15.647883,99,99,0,0,0,0,0
5,59999,17,50000,70,0,40,9999,0.100000,99,0,0.000000,13,0.000000,28.884717,4.041544,99,99,0,0,0,0,0
5,59999,18,50000,53,10000,40,9999,0.100000,99,0,0.000000,13,0.000000,25.126204,0.968035,99,99,0,0,0,0,0
5,59999,19,50000,81,0,0,9999,0.065000,99,0,0.001096,13,0.000000,26.061535,0.079965,99,99,0,0,0,0,1
5,59999,20,50000,90,10000,41,9999,0.100000,99,0,0.000000,13,3.000000,25.805920,12.209252,99,99,0,0,0,0,0
5,59999,21,50000,53,10000,0,9999,0.100000,99,0,0.374492,13,0.000000,30.270044,0.401821,99,99,0,0,0,0,1
5,59999,22,50000,70,20000,40,9999,0.100000,99,0,0.000000,13,0.000000,29.515101,0.429436,99,99,0,0,0,0,0
5,59999,23,50000,73,0,40,9999,0.100000,99,0,0.000000,13,0.000000,20.128481,2.029926,99,99,0,0,0,0,0
5,59999,24,50000,70,20000,40,9999,0.100000,99,0,0.000000,13,1.000000,30.012771,12.664476,99,99,0,0,0,0,0
5,59999,25,50000,13,0,1,9999,0.100000,99,0,1.143169,13,2.000000,16.385442,2.457886,99,99,0,0,1,0,0
5,59999,26,50000,25,40000,40,9999,0.100000,99,0,0.000000,13,0.000000,30.037592,0.690024,99,99,0,0,0,0,0
5,59999,27,50000,81,0,0,9999,0.100000,99,0,0.018078,13,0.000000,18.634624,0.153114,99,99,0,0,1,0,0
5,59999,28,50000,45,10000,40,9999,0.100000,99,0,0.000000,13,1.000000,29.007728,9.567325,99,99,0,0,0,0,0
5,59999,29,50000,73,0,40,9999,0.100000,99,0,0.000000,13,0.000000,33.234529,0.233169,99,99,0,0,0,0,0
5,59999,30,50000,96,30000,0,9999,0.100000,99,0,0.028397,13,0.000000,34.153210,0.142787,99,99,0,0,0,0,1
5,59999,31,50000,16,20000,40,9999,0.100000,99,0,0.000000,13,1.000000,31.595451,5.642892,99,99,0,0,0,0,0
5,59999,32,50000,45,10000,40,9999,0.100000,99,0,0.000000,13,0.000000,29.455592,0.154501,99,99,0,0,0,0,0
5,59999,33,50000,90,10000,0,9999,0.100000,99,0,0.338617,13,1.000000,30.769979,1.507901,99,99,0,0,0,0,1
5,59999,34,50000,0,0,40,9999,0.100000,99,0,0.000000,13,0.000000,22.979287,0.366004,99,99,0,0,0,0,0
5,59999,35,50000,13,0,0,9999,0.100000,99,0,0.281598,13,0.000000,24.638042,0.725746,99,99,0,0,0,0,1
5,59999,36,50000,70,20000,40,9999,0.100000,99,0,0.000000,13,0.000000,27.413400,0.086999,99,99,0,0,0,0,0
5,59999,37,50000,55,0,42,9999,0.100000,99,0,0.000000,13,5.000000,17.235878,7.765318,99,99,0,0,0,0,0
5,59999,38,50000,0,0,0,9999,0.100000,99,0,0.178247,13,0.000000,24.160606,0.164055,99,99,0,0,0,0,1
5,59999,39,50000,16,20000,40,9999,0.100000,99,0,0.000000,13,0.000000,30.090110,0.009564,99,99,0,0,0,0,0
5,59999,40,50000,90,10000,0,9999,0.100000,99,0,0.152592,13,0.000000,20.650314,0.274225,99,99,0,0,0,1,0
5,59999,41,50000,16,20000,40,9999,0.100000,99,0,0.000000,13,0.000000,24.668037,1.529549,99,99,0,0,0,0,0
5,59999,42,50000,90,10000,40,9999,0.100000,99,0,0.000000,13,0.000000,19.940673,1.201781,99,99,0,0,0,0,0
5,59999,43,50000,13,0,40,9999,0.100000,99,0,0.000000,13,0.000000,20.420799,0.385313,99,99,0,0,0,0,0
5,59999,44,50000,70,0,40,9999,0.100000,99,0,0.000000,13,0.000000,29.690496,0.124808,99,99,0,0,0,0,0
5,59999,45,50000,81,0,40,9999,0.100000,99,0,0.000000,13,1.000000,16.053326,10.032929,99,99,0,0,0,0,0
5,59999,46,50000,53,10000,40,9999,0.100000,99,0,0.000000,13,0.000000,36.501749,0.264991,99,99,0,0,0,0,0
5,59999,47,50000,55,0,40,9999,0.100000,99,0,0.000000,13,0.000000,22.283582,0.233779,99,99,0,0,0,0,0
5,59999,48,50000,73,0,40,9999,0.100000,99,0,0.000000,13,0.000000,19.760574,1.090172,99,99,0,0,0,0,0
5,59999,49,50000,90,10000,40,9999,0.100000,99,0,0.000000,13,0.000000,17.546243,0.328886,99,99,0,0,0,0,0
5,59999,50,50000,13,0,40,9999,0.100000,99,0,0.000000,13,1.000000,31.031640,1.552756,99,99,0,0,0,0,0
5,59999,51,50000,81,0,40,9999,0.100000,99,0,0.000000,13,0.000000,25.523274,1.012437,99,99,0,0,0,0,0
5,59999,52,50000,0,0,40,9999,0.100000,99,0,0.000000,13,0.000000,17.959697,0.265475,99,99,0,0,0,0,0
5,59999,53,50000,90,20000,0,9999,0.100000,99,0,0.483507,13,0.000000,18.527154,0.243388,99,99,0,0,0,0,1
5,59999,54,50000,0,0,40,9999,0.100000,99,0,0.000000,13,0.000000,25.116215,0.828485,99,99,0,0,0,0,0
5,59999,55,50000,0,0,40,9999,0.100000,99,0,0.000000,13,0.000000,33.904713,0.338223,99,99,0,0,0,0,0
5,59999,56,50000,45,10000,0,9999,0.100000,99,0,0.000528,13,0.000000,27.683713,0.178530,99,99,0,0,0,0,1
5,59999,57,50000,70,20000,40,9999,0.100000,99,0,0.000000,13,0.000000,18.803873,1.664974,99,99,0,0,0,0,0
5,59999,58,50000,55,0,40,9999,0.100000,99,0,0.000000,13,1.000000,31.287362,17.077442,99,99,0,0,0,0,0
5,59999,59,50000,45,10000,0,9999,0.100000,99,0,9.262200,13,1.000000,31.154919,7.333017,99,99,0,1,0,0,0
5,59999,60,50000,73,0,40,9999,0.100000,99,0,0.000000,13,0.000000,29.958538,9.582352,99,99,0,0,0,0,0
5,59999,61,50000,70,20000,41,9999,0.100000,99,0,0.000000,13,4.000000,23.401133,13.114981,99,99,0,0,0,0,0
5,59999,62,50000,70,0,40,9999,0.100000,99,0,0.000000,13,0.000000,20.202681,0.958009,99,99,0,0,0,0,0
5,59999,63,50000,70,0,40,9999,0.100000,99,0,0.000000,13,0.000000,17.043375,0.799101,99,99,0,0,0,0,0
5,59999,64,50000,70,20000,0,9999,0.100000,99,0,0.118907,13,0.000000,25.831730,0.152542,99,99,0,0,0,0,1
5,59999,65,50000,16,20000,40,9999,0.100000,99,0,0.000000,13,0.000000,19.072359,0.242034,99,99,0,0,0,0,0
5,59999,66,50000,90,10000,40,9999,0.100000,99,0,0.000000,13,0.000000,17.097047,0.369454,99,99,0,0,0,0,0
5,59999,67,50000,55,0,40,9999,0.100000,99,0,0.000000,13,1.000000,30.902010,7.040239,99,99,0,0,0,0,0
5,59999,68,50000,90,20000,0,9999,0.100000,99,0,0.684782,13,0.000000,29.832627,0.304436,99,99,0,0,0,0,1
5,59999,69,50000,45,10000,40,9999,0.100000,99,0,0.000000,13,0.000000,36.442329,0.327190,99,99,0,0,0,0,0
5,59999,70,50000,45,10000,90,9999,0.100000,99,0,0.238759,13,0.000000,23.430184,0.764535,99,99,1,0,0,0,0
5,59999,71,50000,25,40000,40,9999,0.100000,99,0,0.000000,13,0.000000,21.068955,1.085520,99,99,0,0,0,0,0
5,59999,72,50000,70,0,40,9999,0.100000,99,0,0.000000,13,0.000000,33.525990,0.117432,99,99,0,0,0,0,0
5,59999,73,50000,90,10000,40,9999,0.100000,99,0,0.000000,13,1.000000,22.671228,4.879063,99,99,0,0,0,0,0
5,59999,74,50000,25,40000,40,9999,0.100000,99,0,0.000000,13,0.000000,19.936452,1.555271,99,99,0,0,0,0,0
5,59999,75,50000,0,0,0,9999,0.100000,99,0,0.020504,13,0.000000,29.259577,0.155557,99,99,0,0,0,0,1
5,59999,76,50000,70,0,40,9999,0.100000,99,0,0.000000,13,0.000000,27.800388,0.105634,99,99,0,0,0,0,0
5,59999,77,50000,16,20000,0,9999,0.100000,99,0,0.011180,13,0.000000,12.535954,0.135512,99,99,0,0,1,0,0
5,59999,78,50000,13,0,41,9999,0.100000,99,0,0.000000,13,2.000000,16.493303,3.251821,99,99,0,0,0,0,0
5,59999,79,50000,90,20000,0,9999,0.100000,99,0,0.000809,13,0.000000,20.962759,0.064583,99,99,0,0,0,0,1
5,59999,80,50000,16,20000,0,9999,0.100000,99,0,0.055747,13,0.000000,25.970823,0.153565,99,99,0,0,0,1,0
5,59999,81,50000,16,20000,0,9999,0.100000,99,0,0.292859,13,0.000000,16.937505,0.101184,99,99,0,0,0,0,1
5,59999,82,50000,0,0,41,9999,0.100000,99,0,0.000000,13,4.000000,31.346475,9.363422,99,99,0,0,0,0,0
5,59999,83,50000,55,0,0,9999,0.100000,99,0,0.017985,13,0.000000,14.424675,1.182928,99,99,0,0,0,0,1
5,59999,84,50000,16,20000,40,9999,0.100000,99,0,0.000000,13,0.000000,18.905245,0.105346,99,99,0,0,0,0,0
5,59999,85,50000,45,10000,40,9999,0.100000,99,0,0.000000,13,0.000000,25.134971,22.278980,99,99,0,0,0,0,0
5,59999,86,50000,45,10000,0,9999,0.100000,99,0,0.036653,13,0.000000,23.977172,0.158662,99,99,0,0,0,0,1
5,59999,87,50000,73,0,40,9999,0.100000,99,0,0.000000,13,0.000000,25.426557,0.104529,99,99,0,0,0,0,0
5,59999,88,50000,45,10000,40,9999,0.100000,99,0,0.000000,13,0.000000,23.429525,0.236078,99,99,0,0,0,0,0
5,59999,89,50000,25,40000,40,9999,0.100000,99,0,0.000000,13,0.000000,20.629532,0.128590,99,99,0,0,0,0,0
5,59999,90,50000,90,10000,0,9999,0.100000,99,0,0.000010,13,0.000000,13.082652,0.124153,99,99,0,0,0,0,1
5,59999,91,50000,81,0,40,9999,0.100000,99,0,0.000000,13,0.000000,30.013751,0.983166,99,99,0,0,0,0,0
5,59999,92,50000,0,0,40,9999,0.100000,99,0,0.000000,13,0.000000,24.451940,0.206889,99,99,0,0,0,0,0
5,59999,93,50000,70,20000,40,9999,0.100000,99,0,0.000000,13,0.000000,33.174988,0.279922,99,99,0,0,0,0,0
5,59999,94,50000,81,0,40,9999,0.100000,99,0,0.000000,13,2.000000,24.105572,4.992310,99,99,0,0,0,0,0
5,59999,95,50000,25,40000,40,9999,0.100000,99,0,0.000000,13,1.000000,30.559018,1.158412,99,99,0,0,0,0,0
5,59999,96,50000,25,40000,40,9999,0.100000,99,0,0.000000,13,0.000000,29.117252,2.565287,99,99,0,0,0,0,0
5,59999,97,50000,25,40000,40,9999,0.100000,99,0,0.000000,13,0.000000,29.028098,0.009792,99,99,0,0,0,0,0
5,59999,98,50000,16,20000,40,9999,0.100000,99,0,0.000000,13,3.000000,30.279389,6.426651,99,99,0,0,0,0,0
5,59999,99,50000,81,0,40,9999,0.100000,99,0,0.000000,13,0.000000,33.402537,0.009434,99,99,0,0,0,0,0
6,69999,0,60000,0,50000,40,9999,0.100000,99,0,0.000000,13,0.000000,32.012174,5.775532,99,99,0,0,0,0,0
6,69999,1,60000,70,0,40,9999,0.100000,99,0,0.000000,13,1.000000,25.931726,2.704143,99,99,0,0,0,0,0
6,69999,2,60000,81,0,40,9999,0.100000,99,0,0.000000,13,0.000000,29.680878,0.100435,99,99,0,0,0,0,0
6,69999,3,60000,53,10000,0,9999,0.100000,99,0,0.000073,13,0.000000,24.278250,0.124919,99,99,0,0,0,1,0
6,69999,4,60000,55,0,40,9999,0.100000,99,0,0.000000,13,0.000000,13.452453,0.215914,99,99,0,0,0,0,0
6,69999,5,60000,45,10000,0,9999,0.100000,99,0,0.009197,13,0.000000,29.527461,0.098135,99,99,0,0,0,0,1
6,69999,6,60000,70,0,40,9999,0.100000,99,0,0.000000,13,0.000000,24.786643,1.400329,99,99,0,0,0,0,0
6,69999,7,60000,53,10000,0,9999,0.100000,99,0,0.279055,13,0.000000,20.280858,1.056894,99,99,0,0,0,0,1
6,69999,8,60000,73,0,40,9999,0.100000,99,0,0.000000,13,0.000000,30.285851,1.047652,99,99,0,0,0,0,0
6,69999,9,60000,25,40000,40,9999,0.100000,99,0,0.000000,13,0.000000,33.968010,1.119753,99,99,0,0,0,0,0
6,69999,10,60000,81,0,40,9999,0.100000,99,0,0.000000,13,0.000000,32.178514,3.826432,99,99,0,0,0,0,0
6,69999,11,60000,45,10000,40,9999,0.100000,99,0,0.000000,13,2.000000,31.108900,9.566189,99,99,0,0,0,0,0
6,69999,12,60000,53,10000,40,9999,0.100000,99,0,0.000000,13,1.000000,24.198900,4.903733,99,99,0,0,0,0,0
6,69999,13,60000,90,10000,40,9999,0.100000,99,0,0.000000,13,0.000000,20.151194,1.428753,99,99,0,0,0,0,0
6,69999,14,60000,73,0,0,9999,0.100000,99,0,0.000289,13,0.000000,27.594310,0.084543,99,99,0,0,0,0,1
6,69999,15,60000,73,0,0,9999,0.100000,99,0,0.001446,13,0.000000,24.687693,0.122749,99,99,0,0,0,0,1
6,69999,16,60000,53,10000,40,9999,0.100000,99,0,0.000000,13,1.000000,31.083529,18.197484,99,99,0,0,0,0,0
6,69999,17,60000,70,0,40,9999,0.100000,99,0,0.000000,13,1.000000,29.268492,6.992725,99,99,0,0,0,0,0
6,69999,18,60000,73,0,40,9999,0.100000,99,0,0.000000,13,0.000000,24.865106,1.109565,99,99,0,0,0,0,0
6,69999,19,60000,55,0,0,9999,0.100000,99,0,0.000919,13,0.000000,26.062773,0.081717,99,99,0,0,0,0,1
6,69999,20,60000,13,0,40,9999,0.100000,99,0,0.000000,13,2.000000,27.922246,5.694330,99,99,0,0,0,0,0
6,69999,21,60000,25,40000,40,9999,0.100000,99,0,0.000000,13,0.000000,30.391643,0.683483,99,99,0,0,0,0,0
6,69999,22,60000,45,10000,40,9999,0.100000,99,0,0.000000,13,0.000000,29.420994,0.380352,99,99,0,0,0,0,0
6,69999,23,60000,70,20000,40,9999,0.100000,99,0,0.000000,13,1.000000,20.086176,2.854875,99,99,0,0,0,0,0
6,69999,24,60000,70,20000,40,9999,0.100000,99,0,0.000000,13,1.000000,29.380159,11.884495,99,99,0,0,0,0,0
6,69999,25,60000,70,0,0,9999,0.100000,99,0,0.588410,13,0.000000,15.603928,0.311305,99,99,0,0,1,0,0
6,69999,26,60000,70,0,40,9999,0.100000,99,0,0.000000,13,0.000000,30.153611,0.856429,99,99,0,0,0,0,0
6,69999,27,60000,90,10000,0,9999,0.100000,99,0,0.995980,13,0.000000,18.634043,0.203540,99,99,0,0,1,0,0
6,69999,28,60000,13,0,40,9999,0.100000,99,0,0.000000,13,1.000000,28.583689,10.619480,99,99,0,0,0,0,0
6,69999,29,60000,13,0,40,9999,0.100000,99,0,0.000000,13,0.000000,33.235327,0.238098,99,99,0,0,0,0,0
6,69999,30,60000,90,10000,0,9999,0.100000,99,0,0.021629,13,0.000000,34.158194,0.175588,99,99,0,0,0,0,1
6,69999,31,60000,13,0,40,9999,0.100000,99,0,0.000000,13,0.000000,31.892319,6.030735,99,99,0,0,0,0,0
6,69999,32,60000,16,20000,0,9999,0.100000,99,0,0.021174,13,0.000000,29.444828,0.164364,99,99,0,0,0,1,0
6,69999,33,60000,53,10000,0,9999,0.100000,99,0,2.384677,13,0.000000,30.198037,0.950221,99,99,0,0,0,0,1
6,69999,34,60000,90,20000,40,9999,0.100000,99,0,0.000000,13,0.000000,23.024779,0.262329,99,99,0,0,0,0,0
6,69999,35,60000,70,20000,0,9999,0.100000,99,0,0.140561,13,0.000000,24.663621,0.770513,99,99,0,0,0,0,1
6,69999,36,60000,73,0,40,9999,0.100000,99,0,0.000000,13,0.000000,27.414352,0.082622,99,99,0,0,0,0,0
6,69999,37,60000,81,0,40,9999,0.100000,99,0,0.000000,13,0.000000,17.558342,1.054925,99,99,0,0,0,0,0
6,69999,38,60000,25,40000,40,9999,0.100000,99,0,0.000000,13,0.000000,24.200016,0.311398,99,99,0,0,0,0,0
6,69999,39,60000,70,0,40,9999,0.100000,99,0,0.000000,13,0.000000,30.090099,0.009486,99,99,0,0,0,0,0
6,69999,40,60000,70,20000,40,9999,0.100000,99,0,0.000000,13,0.000000,20.548603,0.712315,99,99,0,0,0,0,0
6,69999,41,60000,16,20000,0,9999,0.100000,99,0,0.443718,13,0.000000,24.698854,1.658990,99,99,0,0,0,0,1
6,69999,42,60000,16,20000,0,9999,0.100000,99,0,0.501883,13,0.000000,19.993930,0.600848,99,99,0,0,0,1,0
6,69999,43,60000,73,0,40,9999,0.100000,99,0,0.000000,13,0.000000,20.350195,0.624746,99,99,0,0,0,0,0
6,69999,44,60000,13,0,0,9999,0.100000,99,0,0.401286,13,0.000000,29.777010,0.132627,99,99,0,0,0,0,1
6,69999,45,60000,13,0,40,9999,0.100000,99,0,0.000000,13,0.000000,14.422483,2.996320,99,99,0,0,0,0,0
6,69999,46,60000,53,10000,40,9999,0.100000,99,0,0.000000,13,0.000000,36.595402,0.194324,99,99,0,0,0,0,0
6,69999,47,60000,70,0,40,9999,0.100000,99,0,0.000000,13,0.000000,22.287205,0.238866,99,99,0,0,0,0,0
6,69999,48,60000,90,10000,40,9999,0.100000,99,0,0.000000,13,0.000000,19.282146,1.458298,99,99,0,0,0,0,0
6,69999,49,60000,16,20000,40,9999,0.100000,99,0,0.000000,13,0.000000,17.590393,0.397006,99,99,0,0,0,0,0
6,69999,50,60000,25,40000,40,9999,0.100000,99,0,0.000000,13,0.000000,30.414641,1.138540,99,99,0,0,0,0,0
6,69999,51,60000,90,10000,40,9999,0.100000,99,0,0.000000,13,0.000000,24.741339,1.000046,99,99,0,0,0,0,0
6,69999,52,60000,73,0,40,9999,0.100000,99,0,0.000000,13,0.000000,18.010626,0.510640,99,99,0,0,0,0,0
6,69999,53,60000,25,40000,0,9999,0.100000,99,0,0.068969,13,0.000000,18.579350,0.123719,99,99,0,0,0,0,1
6,69999,54,60000,73,0,40,9999,0.100000,99,0,0.000000,13,0.000000,25.145151,0.754675,99,99,0,0,0,0,0
6,69999,55,60000,55,0,40,9999,0.100000,99,0,0.000000,13,0.000000,33.908154,0.417520,99,99,0,0,0,0,0
6,69999,56,60000,13,0,0,9999,0.100000,99,0,0.000453,13,0.000000,27.684677,0.184229,99,99,0,0,0,0,1
6,69999,57,60000,81,0,40,9999,0.100000,99,0,0.000000,13,0.000000,19.110888,23.877074,99,99,0,0,0,0,0
6,69999,58,60000,59,50000,40,9999,0.100000,99,0,0.000000,13,1.000000,30.126055,15.404430,99,99,0,0,0,0,0
6,69999,59,60000,81,0,40,9999,0.100000,99,0,0.000000,13,2.000000,32.293045,3.116441,99,99,0,0,0,0,0
6,69999,60,60000,70,20000,0,9999,0.100000,99,0,0.032528,13,2.000000,29.762552,4.335975,99,99,0,0,0,0,1
6,69999,61,60000,25,40000,0,9999,0.100000,99,0,0.001076,13,0.000000,21.534152,4.101350,99,99,0,0,0,0,1
6,69999,62,60000,59,50000,40,9999,0.100000,99,0,0.000000,13,0.000000,20.153484,0.434073,99,99,0,0,0,0,0
6,69999,63,60000,59,50000,40,9999,0.100000,99,0,0.000000,13,0.000000,17.067653,0.867165,99,99,0,0,0,0,0
6,69999,64,60000,90,20000,0,9999,0.100000,99,0,0.190449,13,0.000000,25.839713,0.203118,99,99,0,0,0,0,1
6,69999,65,60000,90,10000,40,9999,0.100000,99,0,0.000000,13,0.000000,19.069934,0.234057,99,99,0,0,0,0,0
6,69999,66,60000,73,0,42,9999,0.100000,99,0,0.000000,13,4.000000,17.122351,37.055885,99,99,0,0,0,0,0
6,69999,67,60000,70,20000,40,9999,0.100000,99,0,0.000000,13,1.000000,30.432469,6.717263,99,99,0,0,0,0,0
6,69999,68,60000,25,40000,0,9999,0.100000,99,0,0.159095,13,0.000000,29.745455,0.072177,99,99,0,0,0,0,1
6,69999,69,60000,53,10000,40,9999,0.100000,99,0,0.000000,13,0.000000,36.536188,0.270029,99,99,0,0,0,0,0
6,69999,70,60000,70,20000,90,9999,0.100000,99,0,7.873958,13,1.000000,23.491024,3.837746,99,99,1,0,0,0,0
6,69999,71,60000,45,10000,40,9999,0.100000,99,0,0.000000,13,0.000000,20.201832,1.084268,99,99,0,0,0,0,0
6,69999,72,60000,25,40000,40,9999,0.100000,99,0,0.000000,13,0.000000,33.528934,0.145619,99,99,0,0,0,0,0
6,69999,73,60000,81,0,40,9999,0.100000,99,0,0.000000,13,1.000000,24.023895,2.876777,99,99,0,0,0,0,0
6,69999,74,60000,81,0,41,9999,0.100000,99,0,0.000000,13,4.000000,19.791656,12.020902,99,99,0,0,0,0,0
6,69999,75,60000,16,20000,0,9999,0.100000,99,0,0.324812,13,0.000000,29.263338,0.176529,99,99,0,0,0,0,1
6,69999,76,60000,90,20000,40,9999,0.100000,99,0,0.000000,13,0.000000,27.801460,0.103103,99,99,0,0,0,0,0
6,69999,77,60000,90,10000,0,9999,0.100000,99,0,0.027348,13,0.000000,12.536098,0.141306,99,99,0,0,1,0,0
6,69999,78,60000,13,0,43,9999,0.100000,99,0,0.000000,13,5.000000,15.360034,12.165075,99,99,0,0,0,0,0
6,69999,79,60000,70,0,40,9999,0.100000,99,0,0.000000,13,0.000000,20.962566,0.116805,99,99,0,0,0,0,0
6,69999,80,60000,25,50000,0,9999,0.100000,99,0,0.002415,13,0.000000,25.986370,0.111365,99,99,0,0,0,1,0
6,69999,81,60000,55,0,0,9999,0.100000,99,0,0.043689,13,0.000000,16.959863,0.144220,99,99,0,0,0,0,1
6,69999,82,60000,25,50000,40,9999,0.100000,99,0,0.000000,13,0.000000,30.584363,2.500407,99,99,0,0,0,0,0
6,69999,83,60000,73,0,0,9999,0.100000,99,0,0.099630,13,0.000000,14.598483,0.347345,99,99,0,0,0,0,1
6,69999,84,60000,55,0,40,9999,0.100000,99,0,0.000000,13,0.000000,18.904907,0.211126,99,99,0,0,0,0,0
6,69999,85,60000,25,40000,40,9999,0.100000,99,0,0.000000,13,0.000000,25.463198,19.378401,99,99,0,0,0,0,0
6,69999,86,60000,25,50000,0,9999,0.100000,99,0,0.064234,13,0.000000,23.995938,0.132011,99,99,0,0,0,0,1
6,69999,87,60000,90,20000,40,9999,0.100000,99,0,0.000000,13,0.000000,25.433173,0.078216,99,99,0,0,0,0,0
6,69999,88,60000,70,20000,40,9999,0.100000,99,0,0.000000,13,0.000000,23.432455,0.246820,99,99,0,0,0,0,0
6,69999,89,60000,73,0,40,9999,0.100000,99,0,0.000000,13,0.000000,20.630278,0.101662,99,99,0,0,0,0,0
6,69999,90,60000,59,50000,0,9999,0.100000,99,0,0.000528,13,0.000000,13.083004,0.124357,99,99,0,0,0,0,1
6,69999,91,60000,81,0,40,9999,0.100000,99,0,0.000000,13,0.000000,30.217527,0.093745,99,99,0,0,0,0,0
6,69999,92,60000,81,0,40,9999,0.100000,99,0,0.000000,13,0.000000,24.428222,0.211960,99,99,0,0,0,0,0
6,69999,93,60000,81,0,40,9999,0.100000,99,0,0.000000,13,0.000000,33.195353,0.284081,99,99,0,0,0,0,0
6,69999,94,60000,90,20000,40,9999,0.100000,99,0,0.000000,13,0.000000,24.043495,0.113090,99,99,0,0,0,0,0
6,69999,95,60000,73,0,40,9999,0.100000,99,0,0.000000,13,2.000000,30.041933,6.359835,99,99,0,0,0,0,0
6,69999,96,60000,81,0,40,9999,0.100000,99,0,0.000000,13,0.000000,29.020155,1.277030,99,99,0,0,0,0,0
6,69999,97,60000,16,20000,40,9999,0.100000,99,0,0.000000,13,0.000000,29.028114,0.009784,99,99,0,0,0,0,0
6,69999,98,60000,70,20000,40,9999,0.100000,99,0,0.000000,13,0.000000,29.854896,0.560259,99,99,0,0,0,0,0
6,69999,99,60000,59,50000,40,9999,0.100000,99,0,0.000000,13,0.000000,33.402542,0.009396,99,99,0,0,0,0,0
7,79999,0,70000,81,0,40,9999,0.100000,99,0,0.000000,13,2.000000,32.187411,5.651591,99,99,0,0,0,0,0
7,79999,1,70000,90,20000,40,9999,0.100000,99,0,0.000000,13,2.000000,27.189249,7.210820,99,99,0,0,0,0,0
7,79999,2,70000,90,20000,0,9999,0.100000,99,0,0.003722,13,0.000000,29.680868,0.107193,99,99,0,0,0,1,0
7,79999,3,70000,55,0,40,9999,0.100000,99,0,0.000000,13,0.000000,24.278580,0.120326,99,99,0,0,0,0,0
7,79999,4,70000,90,20000,40,9999,0.100000,99,0,0.000000,13,0.000000,13.450708,0.223863,99,99,0,0,0,0,0
7,79999,5,70000,73,0,0,9999,0.100000,99,0,0.066317,13,0.000000,29.527857,0.104157,99,99,0,0,0,0,1
7,79999,6,70000,70,0,43,9999,0.100000,99,0,0.000000,13,8.000000,24.974683,10.342335,99,99,0,0,0,0,0
7,79999,7,70000,45,10000,0,9999,0.100000,99,0,0.209383,13,0.000000,20.374105,0.471692,99,99,0,0,0,0,1
7,79999,8,70000,90,20000,40,9999,0.100000,99,0,0.000000,13,0.000000,30.419620,0.512242,99,99,0,0,0,0,0
7,79999,9,70000,73,0,40,9999,0.100000,99,0,0.000000,13,0.000000,33.977893,1.186028,99,99,0,0,0,0,0
7,79999,10,70000,73,0,40,9999,0.100000,99,0,0.000000,13,1.000000,31.546560,6.301714,99,99,0,0,0,0,0
7,79999,11,70000,74,60000,40,9999,0.100000,99,0,0.000000,13,0.000000,29.340570,2.439322,99,99,0,0,0,0,0
7,79999,12,70000,16,20000,0,9999,0.100000,99,0,1.639829,13,0.000000,24.260534,2.995852,99,99,0,0,0,0,1
7,79999,13,70000,25,50000,40,9999,0.100000,99,0,0.000000,13,0.000000,20.013193,0.135332,99,99,0,0,0,0,0
7,79999,14,70000,16,20000,0,9999,0.100000,99,0,0.008840,13,0.000000,27.594900,0.085148,99,99,0,0,0,0,1
7,79999,15,70000,45,10000,0,9999,0.100000,99,0,0.010581,13,0.000000,24.688235,0.111356,99,99,0,0,0,0,1
7,79999,16,70000,73,0,40,9999,0.100000,99,0,0.000000,13,2.000000,31.404575,4.801787,99,99,0,0,0,0,0
7,79999,17,70000,25,50000,40,9999,0.100000,99,0,0.000000,13,0.000000,28.988168,6.363866,99,99,0,0,0,0,0
7,79999,18,70000,70,0,0,9999,0.100000,99,0,0.010395,13,0.000000,24.653485,0.800769,99,99,0,0,0,1,0
7,79999,19,70000,73,0,0,9999,0.100000,99,0,0.001433,13,0.000000,26.063999,0.083133,99,99,0,0,0,0,1
7,79999,20,70000,16,20000,40,9999,0.100000,99,0,0.000000,13,0.000000,29.746463,7.832305,99,99,0,0,0,0,0
7,79999,21,70000,74,60000,0,9999,0.100000,99,0,0.388533,13,0.000000,30.521546,0.314404,99,99,0,0,0,0,1
7,79999,22,70000,74,60000,40,9999,0.100000,99,0,0.000000,13,0.000000,29.390885,0.399695,99,99,0,0,0,0,0
7,79999,23,70000,25,50000,40,9999,0.100000,99,0,0.000000,13,1.000000,19.309963,4.271156,99,99,0,0,0,0,0
7,79999,24,70000,45,10000,40,9999,0.100000,99,0,0.000000,13,2.000000,28.546885,9.707725,99,99,0,0,0,0,0
7,79999,25,70000,59,50000,0,9999,0.100000,99,0,0.416105,13,0.000000,15.625672,0.264456,99,99,0,0,1,0,0
7,79999,26,70000,70,20000,40,9999,0.100000,99,0,0.000000,13,0.000000,30.265054,1.026919,99,99,0,0,0,0,0
7,79999,27,70000,55,0,0,9999,0.100000,99,0,0.563267,13,0.000000,18.535118,0.126112,99,99,0,0,1,0,0
7,79999,28,70000,45,10000,40,9999,0.100000,99,0,0.000000,13,0.000000,28.008025,9.389402,99,99,0,0,0,0,0
7,79999,29,70000,81,0,40,9999,0.100000,99,0,0.000000,13,0.000000,33.236199,0.233124,99,99,0,0,0,0,0
7,79999,30,70000,73,0,0,9999,0.100000,99,0,0.026987,13,0.000000,34.155286,0.166953,99,99,0,0,0,0,1
7,79999,31,70000,13,0,40,9999,0.100000,99,0,0.000000,13,0.000000,31.346095,2.218344,99,99,0,0,0,0,0
7,79999,32,70000,90,10000,40,9999,0.100000,99,0,0.000000,13,0.000000,29.444863,0.178224,99,99,0,0,0,0,0
7,79999,33,70000,13,0,0,9999,0.100000,99,0,0.049400,13,0.000000,29.663608,0.525086,99,99,0,0,0,0,1
7,79999,34,70000,55,0,40,9999,0.100000,99,0,0.000000,13,0.000000,23.008201,0.259541,99,99,0,0,0,0,0
7,79999,35,70000,90,20000,40,9999,0.100000,99,0,0.000000,13,0.000000,24.840976,1.296935,99,99,0,0,0,0,0
7,79999,36,70000,16,20000,40,9999,0.100000,99,0,0.000000,13,0.000000,27.415240,0.090610,99,99,0,0,0,0,0
7,79999,37,70000,90,20000,40,9999,0.100000,99,0,0.000000,13,0.000000,17.563265,1.224811,99,99,0,0,0,0,0
7,79999,38,70000,81,0,0,9999,0.100000,99,0,0.293235,13,0.000000,24.103333,0.235093,99,99,0,0,0,0,1
7,79999,39,70000,70,20000,40,9999,0.100000,99,0,0.000000,13,0.000000,30.090082,0.009529,99,99,0,0,0,0,0
7,79999,40,70000,70,20000,0,9999,0.100000,99,0,0.264561,13,0.000000,20.551882,0.682111,99,99,0,0,0,1,0
7,79999,41,70000,59,50000,40,9999,0.100000,99,0,0.000000,13,0.000000,24.559847,1.100240,99,99,0,0,0,0,0
7,79999,42,70000,16,20000,40,9999,0.100000,99,0,0.000000,13,1.000000,20.050732,3.272419,99,99,0,0,0,0,0
7,79999,43,70000,70,0,40,9999,0.100000,99,0,0.000000,13,0.000000,20.371154,0.585425,99,99,0,0,0,0,0
7,79999,44,70000,59,50000,40,9999,0.100000,99,0,0.000000,13,0.000000,29.865569,0.131925,99,99,0,0,0,0,0
7,79999,45,70000,45,10000,40,9999,0.100000,99,0,0.000000,13,0.000000,14.475693,1.445585,99,99,0,0,0,0,0
7,79999,46,70000,25,50000,40,9999,0.100000,99,0,0.000000,13,0.000000,36.596145,0.195525,99,99,0,0,0,0,0
7,79999,47,70000,81,0,40,9999,0.100000,99,0,0.000000,13,0.000000,22.288841,0.242433,99,99,0,0,0,0,0
7,79999,48,70000,59,50000,40,9999,0.100000,99,0,0.000000,13,0.000000,19.282934,1.643804,99,99,0,0,0,0,0
7,79999,49,70000,73,0,40,9999,0.100000,99,0,0.000000,13,0.000000,17.577753,0.501854,99,99,0,0,0,0,0
7,79999,50,70000,90,10000,40,9999,0.100000,99,0,0.000000,13,0.000000,29.750551,0.988230,99,99,0,0,0,0,0
7,79999,51,70000,73,0,40,9999,0.100000,99,0,0.000000,13,0.000000,23.993395,1.012505,99,99,0,0,0,0,0
7,79999,52,70000,90,20000,40,9999,0.100000,99,0,0.000000,13,0.000000,18.025490,1.961242,99,99,0,0,0,0,0
7,79999,53,70000,55,0,0,9999,0.100000,99,0,0.176072,13,0.000000,18.610078,0.152815,99,99,0,0,0,0,1
7,79999,54,70000,16,20000,40,9999,0.100000,99,0,0.000000,13,0.000000,25.325091,1.355474,99,99,0,0,0,0,0
7,79999,55,70000,81,0,40,9999,0.100000,99,0,0.000000,13,0.000000,33.906053,0.421313,99,99,0,0,0,0,0
7,79999,56,70000,70,0,0,9999,0.100000,99,0,0.000285,13,0.000000,27.685560,0.191490,99,99,0,0,0,0,1
7,79999,57,70000,90,20000,40,9999,0.100000,99,0,0.000000,13,0.000000,19.488967,20.471914,99,99,0,0,0,0,0
7,79999,58,70000,70,20000,40,9999,0.100000,99,0,0.000000,13,2.000000,31.764116,13.029977,99,99,0,0,0,0,0
7,79999,59,70000,45,10000,41,9999,0.100000,99,0,0.000000,13,6.000000,29.990650,12.811737,99,99,0,0,0,0,0
7,79999,60,70000,45,10000,0,9999,0.100000,99,0,0.044143,13,0.000000,27.683064,0.072793,99,99,0,0,0,0,1
7,79999,61,70000,70,20000,0,9999,0.100000,99,0,0.001191,13,0.000000,20.841414,0.090709,99,99,0,0,0,0,1
7,79999,62,70000,70,0,40,9999,0.100000,99,0,0.000000,13,0.000000,20.208616,0.376863,99,99,0,0,0,0,0
7,79999,63,70000,25,50000,40,9999,0.100000,99,0,0.000000,13,0.000000,17.028621,0.896270,99,99,0,0,0,0,0
7,79999,64,70000,13,0,1,9999,0.100000,99,0,0.002805,13,3.000000,25.852544,6.848469,99,99,0,0,0,0,1
7,79999,65,70000,90,20000,40,9999,0.100000,99,0,0.000000,13,0.000000,19.068492,2.110373,99,99,0,0,0,0,0
7,79999,66,70000,13,0,40,9999,0.100000,99,0,0.000000,13,0.000000,17.100158,0.501119,99,99,0,0,0,0,0
7,79999,67,70000,16,20000,40,9999,0.100000,99,0,0.000000,13,0.000000,31.528647,7.481422,99,99,0,0,0,0,0
7,79999,68,70000,25,50000,0,9999,0.100000,99,0,0.141885,13,0.000000,29.713844,0.070366,99,99,0,0,0,0,1
7,79999,69,70000,90,10000,40,9999,0.100000,99,0,0.000000,13,0.000000,36.537031,0.271184,99,99,0,0,0,0,0
7,79999,70,70000,90,20000,90,9999,0.100000,99,0,0.826951,13,0.000000,24.735050,2.050602,99,99,1,0,0,0,0
7,79999,71,70000,81,0,40,9999,0.100000,99,0,0.000000,13,0.000000,20.181818,1.131641,99,99,0,0,0,0,0
7,79999,72,70000,25,40000,40,9999,0.100000,99,0,0.000000,13,0.000000,33.524514,0.144366,99,99,0,0,0,0,0
7,79999,73,70000,70,0,40,9999,0.100000,99,0,0.000000,13,0.000000,24.327062,1.404884,99,99,0,0,0,0,0
7,79999,74,70000,81,0,40,9999,0.100000,99,0,0.000000,13,0.000000,17.990386,2.410083,99,99,0,0,0,0,0
7,79999,75,70000,74,60000,0,9999,0.100000,99,0,0.055225,13,0.000000,29.194894,0.190076,99,99,0,0,0,0,1
7,79999,76,70000,25,50000,40,9999,0.100000,99,0,0.000000,13,0.000000,27.802435,0.098733,99,99,0,0,0,0,0
7,79999,77,70000,55,0,0,9999,0.100000,99,0,0.021685,13,0.000000,12.536196,0.139789,99,99,0,0,1,0,0
7,79999,78,70000,25,50000,40,9999,0.100000,99,0,0.000000,13,0.000000,15.381777,0.253242,99,99,0,0,0,0,0
7,79999,79,70000,81,0,40,9999,0.100000,99,0,0.000000,13,0.000000,20.953537,0.084881,99,99,0,0,0,0,0
7,79999,80,70000,55,0,0,9999,0.100000,99,0,0.082729,13,0.000000,25.986918,0.109728,99,99,0,0,0,1,0
7,79999,81,70000,45,10000,0,9999,0.100000,99,0,0.197217,13,0.000000,16.917485,0.220430,99,99,0,0,0,0,1
7,79999,82,70000,16,20000,40,9999,0.100000,99,0,0.000000,13,0.000000,29.852354,1.107502,99,99,0,0,0,0,0
7,79999,83,70000,25,50000,0,9999,0.100000,99,0,0.103571,13,0.000000,14.620052,0.369817,99,99,0,0,0,0,1
7,79999,84,70000,66,60000,40,9999,0.100000,99,0,0.000000,13,0.000000,18.823727,0.167291,99,99,0,0,0,0,0
7,79999,85,70000,73,0,40,9999,0.100000,99,0,0.000000,13,0.000000,25.330116,2.198720,99,99,0,0,0,0,0
7,79999,86,70000,90,20000,0,9999,0.100000,99,0,0.000754,13,0.000000,23.996519,0.104019,99,99,0,0,0,0,1
7,79999,87,70000,55,0,40,9999,0.100000,99,0,0.000000,13,0.000000,25.431739,0.062178,99,99,0,0,0,0,0
7,79999,88,70000,45,10000,40,9999,0.100000,99,0,0.000000,13,0.000000,23.434199,0.241635,99,99,0,0,0,0,0
7,79999,89,70000,90,10000,40,9999,0.100000,99,0,0.000000,13,0.000000,20.625177,0.083163,99,99,0,0,0,0,0
7,79999,90,70000,16,20000,0,9999,0.100000,99,0,0.000611,13,0.000000,13.083291,0.124965,99,99,0,0,0,0,1
7,79999,91,70000,45,10000,41,9999,0.100000,99,0,0.000000,13,4.000000,30.187532,8.432491,99,99,0,0,0,0,0
7,79999,92,70000,59,50000,40,9999,0.100000,99,0,0.000000,13,0.000000,24.405830,0.969270,99,99,0,0,0,0,0
7,79999,93,70000,70,20000,40,9999,0.100000,99,0,0.000000,13,0.000000,33.220552,0.401987,99,99,0,0,0,0,0
7,79999,94,70000,70,20000,40,9999,0.100000,99,0,0.000000,13,0.000000,24.043664,0.108922,99,99,0,0,0,0,0
7,79999,95,70000,25,50000,40,9999,0.100000,99,0,0.000000,13,0.000000,29.579344,0.354052,99,99,0,0,0,0,0
7,79999,96,70000,81,0,40,9999,0.100000,99,0,0.000000,13,0.000000,28.933886,0.129176,99,99,0,0,0,0,0
7,79999,97,70000,90,10000,40,9999,0.100000,99,0,0.000000,13,0.000000,29.028229,0.009818,99,99,0,0,0,0,0
7,79999,98,70000,81,0,40,9999,0.100000,99,0,0.000000,13,0.000000,29.494780,0.485678,99,99,0,0,0,0,0
7,79999,99,70000,55,0,40,9999,0.100000,99,0,0.000000,13,0.000000,33.402548,0.009402,99,99,0,0,0,0,0
8,89999,0,80000,55,0,0,9999,0.100000,99,0,0.140652,13,0.000000,29.651220,0.293477,99,99,0,0,0,0,1
8,89999,1,80000,59,50000,42,9999,0.100000,99,0,0.000000,13,6.000000,25.889085,8.204147,99,99,0,0,0,0,0
8,89999,2,80000,55,0,0,9999,0.100000,99,0,0.040296,13,0.000000,29.676859,0.108201,99,99,0,0,0,1,0
8,89999,3,80000,81,0,0,9999,0.100000,99,0,0.249211,13,0.000000,24.276692,0.156523,99,99,0,0,0,1,0
8,89999,4,80000,70,0,40,9999,0.100000,99,0,0.000000,13,0.000000,13.449917,0.228254,99,99,0,0,0,0,0
8,89999,5,80000,16,20000,40,9999,0.100000,99,0,0.000000,13,0.000000,29.519568,0.180168,99,99,0,0,0,0,0
8,89999,6,80000,55,0,40,9999,0.100000,99,0,0.000000,13,0.000000,27.385183,0.206884,99,99,0,0,0,0,0
8,89999,7,80000,16,20000,40,9999,0.100000,99,0,0.000000,13,0.000000,20.309093,0.105186,99,99,0,0,0,0,0
8,89999,8,80000,81,0,40,9999,0.100000,99,0,0.000000,13,0.000000,30.530017,0.475063,99,99,0,0,0,0,0
8,89999,9,80000,66,60000,40,9999,0.100000,99,0,0.000000,13,0.000000,33.965629,1.663065,99,99,0,0,0,0,0
8,89999,10,80000,59,50000,40,9999,0.100000,99,0,0.000000,13,1.000000,31.980461,10.535954,99,99,0,0,0,0,0
8,89999,11,80000,59,50000,40,9999,0.100000,99,0,0.000000,13,0.000000,29.315446,0.473135,99,99,0,0,0,0,0
8,89999,12,80000,25,50000,0,9999,0.100000,99,0,0.849031,13,0.000000,24.514788,2.947666,99,99,0,0,0,0,1
8,89999,13,80000,70,0,0,9999,0.100000,99,0,0.008031,13,0.000000,19.993221,0.087970,99,99,0,0,0,0,1
8,89999,14,80000,81,0,0,9999,0.100000,99,0,0.000452,13,0.000000,27.596403,0.083079,99,99,0,0,0,0,1
8,89999,15,80000,70,0,0,9999,0.100000,99,0,0.121714,13,0.000000,24.686698,0.118997,99,99,0,0,0,0,1
8,89999,16,80000,59,50000,40,9999,0.100000,99,0,0.000000,13,0.000000,33.926121,0.963304,99,99,0,0,0,0,0
8,89999,17,80000,59,50000,40,9999,0.100000,99,0,0.000000,13,1.000000,29.402731,7.033928,99,99,0,0,0,0,0
8,89999,18,80000,55,0,40,9999,0.100000,99,0,0.000000,13,0.000000,24.480664,0.335032,99,99,0,0,0,0,0
8,89999,19,80000,16,20000,0,9999,0.100000,99,0,0.001565,13,0.000000,26.065331,0.083562,99,99,0,0,0,0,1
8,89999,20,80000,13,0,40,9999,0.100000,99,0,0.000000,13,1.000000,29.568163,11.168894,99,99,0,0,0,0,0
8,89999,21,80000,70,0,0,9999,0.100000,99,0,0.352799,13,0.000000,30.640425,0.292632,99,99,0,0,0,0,1
8,89999,22,80000,16,20000,40,9999,0.100000,99,0,0.000000,13,0.000000,29.359110,0.377558,99,99,0,0,0,0,0
8,89999,23,80000,73,0,40,9999,0.100000,99,0,0.000000,13,2.000000,20.334531,3.461840,99,99,0,0,0,0,0
8,89999,24,80000,55,0,40,9999,0.100000,99,0,0.000000,13,1.000000,29.561283,9.048979,99,99,0,0,0,0,0
8,89999,25,80000,70,20000,0,9999,0.100000,99,0,0.615303,13,0.000000,15.643396,0.358629,99,99,0,0,1,0,0
8,89999,26,80000,90,10000,40,9999,0.100000,99,0,0.000000,13,0.000000,30.358999,0.654722,99,99,0,0,0,0,0
8,89999,27,80000,66,60000,0,9999,0.100000,99,0,0.001009,13,0.000000,18.528069,0.086381,99,99,0,0,1,0,0
8,89999,28,80000,59,50000,41,9999,0.100000,99,0,0.000000,13,3.000000,27.223333,6.990137,99,99,0,0,0,0,0
8,89999,29,80000,59,50000,40,9999,0.100000,99,0,0.000000,13,0.000000,33.237692,0.239837,99,99,0,0,0,0,0
8,89999,30,80000,45,10000,0,9999,0.100000,99,0,0.005365,13,0.000000,34.158480,0.115355,99,99,0,0,0,0,1
8,89999,31,80000,90,10000,40,9999,0.100000,99,0,0.000000,13,0.000000,31.463706,4.705644,99,99,0,0,0,0,0
8,89999,32,80000,90,20000,40,9999,0.100000,99,0,0.000000,13,0.000000,29.440710,0.222452,99,99,0,0,0,0,0
8,89999,33,80000,70,0,0,9999,0.100000,99,0,0.120923,13,0.000000,29.655242,0.431196,99,99,0,0,0,0,1
8,89999,34,80000,70,20000,40,9999,0.100000,99,0,0.000000,13,0.000000,22.997830,0.254024,99,99,0,0,0,0,0
8,89999,35,80000,73,0,40,9999,0.100000,99,0,0.000000,13,1.000000,24.759694,3.735983,99,99,0,0,0,0,0
8,89999,36,80000,66,60000,43,9999,0.100000,99,0,0.000000,13,10.000000,27.420945,20.276462,99,99,0,0,0,0,0
8,89999,37,80000,16,20000,40,9999,0.100000,99,0,0.000000,13,0.000000,17.516409,1.415033,99,99,0,0,0,0,0
8,89999,38,80000,70,20000,0,9999,0.100000,99,0,0.151730,13,0.000000,24.014083,0.190125,99,99,0,0,0,0,1
8,89999,39,80000,73,0,40,9999,0.100000,99,0,0.000000,13,0.000000,30.090068,0.009531,99,99,0,0,0,0,0
8,89999,40,80000,13,0,40,9999,0.100000,99,0,0.000000,13,0.000000,20.485180,0.573805,99,99,0,0,0,0,0
8,89999,41,80000,90,10000,40,9999,0.100000,99,0,0.000000,13,0.000000,24.518727,0.708426,99,99,0,0,0,0,0
8,89999,42,80000,55,0,40,9999,0.100000,99,0,0.000000,13,0.000000,20.072599,0.559942,99,99,0,0,0,0,0
8,89999,43,80000,81,0,0,9999,0.100000,99,0,0.599364,13,0.000000,20.336556,0.267405,99,99,0,0,0,1,0
8,89999,44,80000,70,20000,40,9999,0.100000,99,0,0.000000,13,0.000000,29.952096,0.117025,99,99,0,0,0,0,0
8,89999,45,80000,90,10000,40,9999,0.100000,99,0,0.000000,13,0.000000,14.497717,1.372088,99,99,0,0,0,0,0
8,89999,46,80000,66,60000,40,9999,0.100000,99,0,0.000000,13,0.000000,36.597239,0.199044,99,99,0,0,0,0,0
8,89999,47,80000,45,10000,40,9999,0.100000,99,0,0.000000,13,0.000000,22.289552,0.231597,99,99,0,0,0,0,0
8,89999,48,80000,90,20000,40,9999,0.100000,99,0,0.000000,13,0.000000,19.299494,2.137643,99,99,0,0,0,0,0
8,89999,49,80000,90,20000,40,9999,0.100000,99,0,0.000000,13,0.000000,17.551825,0.642409,99,99,0,0,0,0,0
8,89999,50,80000,25,50000,40,9999,0.100000,99,0,0.000000,13,0.000000,29.757508,0.917865,99,99,0,0,0,0,0
8,89999,51,80000,73,0,40,9999,0.100000,99,0,0.000000,13,0.000000,23.204970,0.950049,99,99,0,0,0,0,0
8,89999,52,80000,45,10000,40,9999,0.100000,99,0,0.000000,13,0.000000,18.116800,1.880669,99,99,0,0,0,0,0
8,89999,53,80000,13,0,0,9999,0.100000,99,0,0.243204,13,0.000000,18.624840,0.182937,99,99,0,0,0,0,1
8,89999,54,80000,81,0,40,9999,0.100000,99,0,0.000000,13,0.000000,25.097958,0.674062,99,99,0,0,0,0,0
8,89999,55,80000,70,0,40,9999,0.100000,99,0,0.000000,13,0.000000,33.908147,0.443552,99,99,0,0,0,0,0
8,89999,56,80000,73,0,0,9999,0.100000,99,0,0.000293,13,0.000000,27.686075,0.196543,99,99,0,0,0,0,1
8,89999,57,80000,25,50000,40,9999,0.100000,99,0,0.000000,13,0.000000,19.187308,24.881883,99,99,0,0,0,0,0
8,89999,58,80000,13,0,40,9999,0.100000,99,0,0.000000,13,2.000000,29.550920,11.157599,99,99,0,0,0,0,0
8,89999,59,80000,55,0,40,9999,0.100000,99,0,0.000000,13,0.000000,29.979813,0.970680,99,99,0,0,0,0,0
8,89999,60,80000,81,0,0,9999,0.100000,99,0,0.196239,13,0.000000,27.673239,0.167464,99,99,0,0,0,0,1
8,89999,61,80000,13,0,0,9999,0.100000,99,0,0.001142,13,0.000000,20.842163,0.089241,99,99,0,0,0,0,1
8,89999,62,80000,70,20000,40,9999,0.100000,99,0,0.000000,13,0.000000,20.202128,0.444326,99,99,0,0,0,0,0
8,89999,63,80000,66,60000,40,9999,0.100000,99,0,0.000000,13,0.000000,17.012945,4.068507,99,99,0,0,0,0,0
8,89999,64,80000,81,0,0,9999,0.100000,99,0,0.000012,13,0.000000,25.851998,0.195977,99,99,0,0,0,0,1
8,89999,65,80000,59,50000,40,9999,0.100000,99,0,0.000000,13,0.000000,19.064728,0.243288,99,99,0,0,0,0,0
8,89999,66,80000,90,20000,0,9999,0.100000,99,0,0.077105,13,0.000000,17.082835,0.457834,99,99,0,0,0,0,1
8,89999,67,80000,25,50000,41,9999,0.100000,99,0,0.000000,13,5.000000,31.238071,20.003143,99,99,0,0,0,0,0
8,89999,68,80000,90,10000,0,9999,0.100000,99,0,0.150255,13,0.000000,29.684469,0.071016,99,99,0,0,0,0,1
8,89999,69,80000,70,20000,40,9999,0.100000,99,0,0.000000,13,0.000000,36.538008,0.278846,99,99,0,0,0,0,0
8,89999,70,80000,45,10000,40,9999,0.100000,99,0,0.000000,13,0.000000,24.669227,0.876826,99,99,0,0,0,0,0
8,89999,71,80000,81,0,40,9999,0.100000,99,0,0.000000,13,0.000000,20.213138,0.359944,99,99,0,0,0,0,0
8,89999,72,80000,70,0,40,9999,0.100000,99,0,0.000000,13,0.000000,33.525603,0.118963,99,99,0,0,0,0,0
8,89999,73,80000,90,10000,40,9999,0.100000,99,0,0.000000,13,0.000000,24.287512,1.416593,99,99,0,0,0,0,0
8,89999,74,80000,55,0,40,9999,0.100000,99,0,0.000000,13,0.000000,17.976625,2.297842,99,99,0,0,0,0,0
8,89999,75,80000,90,20000,0,9999,0.100000,99,0,0.028124,13,0.000000,29.185404,0.174100,99,99,0,0,0,0,1
8,89999,76,80000,59,50000,40,9999,0.100000,99,0,0.000000,13,0.000000,27.802950,0.099687,99,99,0,0,0,0,0
8,89999,77,80000,25,50000,0,9999,0.100000,99,0,0.038489,13,0.000000,12.536116,0.167139,99,99,0,0,1,0,0
8,89999,78,80000,55,0,43,9999,0.100000,99,0,0.000000,13,5.000000,15.399317,11.794099,99,99,0,0,0,0,0
8,89999,79,80000,55,0,40,9999,0.100000,99,0,0.000000,13,0.000000,20.954539,0.083408,99,99,0,0,0,0,0
8,89999,80,80000,55,0,0,9999,0.100000,99,0,0.017639,13,0.000000,25.995806,0.134039,99,99,0,0,0,1,0
8,89999,81,80000,81,0,40,9999,0.100000,99,0,0.000000,13,0.000000,16.902902,0.201820,99,99,0,0,0,0,0
8,89999,82,80000,45,10000,40,9999,0.100000,99,0,0.000000,13,0.000000,29.870616,1.123309,99,99,0,0,0,0,0
8,89999,83,80000,70,20000,0,9999,0.100000,99,0,0.173561,13,0.000000,14.644042,0.393028,99,99,0,0,0,0,1
8,89999,84,80000,45,10000,40,9999,0.100000,99,0,0.000000,13,0.000000,18.805713,0.133776,99,99,0,0,0,0,0
8,89999,85,80000,90,10000,40,9999,0.100000,99,0,0.000000,13,0.000000,25.106986,1.341648,99,99,0,0,0,0,0
8,89999,86,80000,66,60000,0,9999,0.100000,99,0,0.001558,13,0.000000,23.996629,0.115757,99,99,0,0,0,0,1
8,89999,87,80000,81,0,40,9999,0.100000,99,0,0.000000,13,2.000000,25.431163,5.736493,99,99,0,0,0,0,0
8,89999,88,80000,16,20000,40,9999,0.100000,99,0,0.000000,13,0.000000,23.436282,0.233438,99,99,0,0,0,0,0
8,89999,89,80000,90,10000,40,9999,0.100000,99,0,0.000000,13,0.000000,20.625479,0.082787,99,99,0,0,0,0,0
8,89999,90,80000,81,0,0,9999,0.100000,99,0,0.000959,13,0.000000,13.083527,0.125390,99,99,0,0,0,0,1
8,89999,91,80000,66,60000,40,9999,0.100000,99,0,0.000000,13,0.000000,30.159465,0.092890,99,99,0,0,0,0,0
8,89999,92,80000,16,20000,40,9999,0.100000,99,0,0.000000,13,0.000000,24.365131,0.831106,99,99,0,0,0,0,0
8,89999,93,80000,59,50000,40,9999,0.100000,99,0,0.000000,13,0.000000,33.245719,0.384575,99,99,0,0,0,0,0
8,89999,94,80000,66,60000,40,9999,0.100000,99,0,0.000000,13,0.000000,24.041735,0.143472,99,99,0,0,0,0,0
8,89999,95,80000,59,50000,40,9999,0.100000,99,0,0.000000,13,0.000000,29.559727,0.375732,99,99,0,0,0,0,0
8,89999,96,80000,70,0,40,9999,0.100000,99,0,0.000000,13,0.000000,28.925189,0.075334,99,99,0,0,0,0,0
8,89999,97,80000,70,20000,40,9999,0.100000,99,0,0.000000,13,0.000000,29.028220,0.009740,99,99,0,0,0,0,0
8,89999,98,80000,81,0,40,9999,0.100000,99,0,0.000000,13,0.000000,29.463368,0.545856,99,99,0,0,0,0,0
8,89999,99,80000,81,0,40,9999,0.100000,99,0,0.000000,13,0.000000,33.402544,0.009333,99,99,0,0,0,0,0
9,99999,0,90000,90,20000,0,9999,0.100000,99,0,0.168830,13,0.000000,29.546474,0.211068,99,99,0,0,0,0,1
9,99999,1,90000,25,50000,40,9999,0.100000,99,0,0.000000,13,0.000000,26.574999,3.481180,99,99,0,0,0,0,0
9,99999,2,90000,55,0,0,9999,0.100000,99,0,0.017394,13,0.000000,29.680433,0.105775,99,99,0,0,0,1,0
9,99999,3,90000,55,0,0,9999,0.100000,99,0,0.723231,13,0.000000,24.223346,0.226989,99,99,0,0,0,1,0
9,99999,4,90000,55,0,40,9999,0.100000,99,0,0.000000,13,0.000000,13.448073,0.224497,99,99,0,0,0,0,0
9,99999,5,90000,55,0,40,9999,0.100000,99,0,0.000000,13,0.000000,29.413777,0.109310,99,99,0,0,0,0,0
9,99999,6,90000,16,20000,40,9999,0.100000,99,0,0.000000,13,0.000000,27.386130,0.194707,99,99,0,0,0,0,0
9,99999,7,90000,59,50000,40,9999,0.100000,99,0,0.000000,13,0.000000,20.307673,0.114244,99,99,0,0,0,0,0
9,99999,8,90000,45,10000,40,9999,0.100000,99,0,0.000000,13,1.000000,30.628425,1.411103,99,99,0,0,0,0,0
9,99999,9,90000,25,50000,40,9999,0.100000,99,0,0.000000,13,0.000000,33.963354,1.795569,99,99,0,0,0,0,0
9,99999,10,90000,25,50000,40,9999,0.100000,99,0,0.000000,13,0.000000,31.122087,3.352436,99,99,0,0,0,0,0
9,99999,11,90000,70,0,40,9999,0.100000,99,0,0.000000,13,0.000000,29.318489,0.570913,99,99,0,0,0,0,0
9,99999,12,90000,90,10000,40,9999,0.100000,99,0,0.000000,13,0.000000,24.630359,0.895533,99,99,0,0,0,0,0
9,99999,13,90000,59,50000,0,9999,0.100000,99,0,0.179423,13,0.000000,19.989129,0.135414,99,99,0,0,0,0,1
9,99999,14,90000,70,20000,40,9999,0.100000,99,0,0.000000,13,0.000000,27.596997,0.082454,99,99,0,0,0,0,0
9,99999,15,90000,55,0,0,9999,0.100000,99,0,0.380740,13,0.000000,24.659720,0.559269,99,99,0,0,0,0,1
9,99999,16,90000,90,10000,40,9999,0.100000,99,0,0.000000,13,0.000000,33.713376,0.366413,99,99,0,0,0,0,0
9,99999,17,90000,55,0,40,9999,0.100000,99,0,0.000000,13,1.000000,29.275400,3.197445,99,99,0,0,0,0,0
9,99999,18,90000,13,0,40,9999,0.100000,99,0,0.000000,13,0.000000,24.420732,0.706426,99,99,0,0,0,0,0
9,99999,19,90000,55,0,0,9999,0.100000,99,0,0.001731,13,0.000000,26.066607,0.084138,99,99,0,0,0,0,1
9,99999,20,90000,81,0,40,9999,0.100000,99,0,0.000000,13,1.000000,28.037538,4.747036,99,99,0,0,0,0,0
9,99999,21,90000,90,20000,40,9999,0.100000,99,0,0.000000,13,1.000000,30.740132,1.268580,99,99,0,0,0,0,0
9,99999,22,90000,70,0,40,9999,0.100000,99,0,0.000000,13,0.000000,29.326049,0.385056,99,99,0,0,0,0,0
9,99999,23,90000,70,20000,40,9999,0.100000,99,0,0.000000,13,0.000000,22.380473,0.670567,99,99,0,0,0,0,0
9,99999,24,90000,70,20000,40,9999,0.100000,99,0,0.000000,13,0.000000,30.019166,1.415775,99,99,0,0,0,0,0
9,99999,25,90000,90,20000,0,9999,0.100000,99,0,3.238729,13,0.000000,15.704090,1.209815,99,99,0,0,1,0,0
9,99999,26,90000,25,50000,0,9999,0.100000,99,0,0.545277,13,0.000000,30.463492,0.953453,99,99,0,0,0,0,1
9,99999,27,90000,16,20000,0,9999,0.100000,99,0,0.004496,13,0.000000,18.529688,0.123970,99,99,0,0,1,0,0
9,99999,28,90000,90,10000,40,9999,0.100000,99,0,0.000000,13,0.000000,24.557336,0.750477,99,99,0,0,0,0,0
9,99999,29,90000,45,10000,40,9999,0.100000,99,0,0.000000,13,0.000000,33.238232,0.243738,99,99,0,0,0,0,0
9,99999,30,90000,13,0,0,9999,0.100000,99,0,0.007223,13,0.000000,34.157179,0.125526,99,99,0,0,0,0,1
9,99999,31,90000,90,20000,40,9999,0.100000,99,0,0.000000,13,0.000000,31.625341,0.937415,99,99,0,0,0,0,0
9,99999,32,90000,16,20000,40,9999,0.100000,99,0,0.000000,13,0.000000,29.444969,0.189623,99,99,0,0,0,0,0
9,99999,33,90000,59,50000,0,9999,0.100000,99,0,0.045949,13,0.000000,29.723840,0.358496,99,99,0,0,0,0,1
9,99999,34,90000,59,50000,40,9999,0.100000,99,0,0.000000,13,0.000000,22.989243,0.513184,99,99,0,0,0,0,0
9,99999,35,90000,13,0,0,9999,0.100000,99,0,0.773796,13,0.000000,25.255316,1.407794,99,99,0,0,0,0,1
9,99999,36,90000,13,0,0,9999,0.100000,99,0,0.000115,13,0.000000,27.421762,0.105946,99,99,0,0,0,0,1
9,99999,37,90000,45,10000,40,9999,0.100000,99,0,0.000000,13,1.000000,17.519049,3.042319,99,99,0,0,0,0,0
9,99999,38,90000,16,20000,0,9999,0.065000,99,0,0.048539,13,0.000000,23.969129,0.164892,99,99,0,0,0,0,1
9,99999,39,90000,55,0,40,9999,0.100000,99,0,0.000000,13,0.000000,30.090018,0.009516,99,99,0,0,0,0,0
9,99999,40,90000,73,0,0,9999,0.100000,99,0,0.883847,13,0.000000,20.540495,0.587961,99,99,0,0,0,1,0
9,99999,41,90000,66,60000,40,9999,0.100000,99,0,0.000000,13,0.000000,24.289611,0.093551,99,99,0,0,0,0,0
9,99999,42,90000,55,0,40,9999,0.100000,99,0,0.000000,13,0.000000,20.178347,0.557207,99,99,0,0,0,0,0
9,99999,43,90000,81,0,40,9999,0.100000,99,0,0.000000,13,0.000000,20.411867,0.322302,99,99,0,0,0,0,0
9,99999,44,90000,90,20000,40,9999,0.100000,99,0,0.000000,13,0.000000,30.025763,0.738100,99,99,0,0,0,0,0
9,99999,45,90000,90,20000,43,9999,0.100000,99,0,0.000000,13,5.000000,14.535983,12.440917,99,99,0,0,0,0,0
9,99999,46,90000,55,0,40,9999,0.100000,99,0,0.000000,13,0.000000,36.598339,0.199489,99,99,0,0,0,0,0
9,99999,47,90000,73,0,40,9999,0.100000,99,0,0.000000,13,0.000000,22.290423,0.230823,99,99,0,0,0,0,0
9,99999,48,90000,73,0,40,9999,0.100000,99,0,0.000000,13,0.000000,19.330879,2.993403,99,99,0,0,0,0,0
9,99999,49,90000,55,0,40,9999,0.100000,99,0,0.000000,13,1.000000,17.550352,2.149341,99,99,0,0,0,0,0
9,99999,50,90000,70,20000,40,9999,0.100000,99,0,0.000000,13,0.000000,29.831573,0.917819,99,99,0,0,0,0,0
9,99999,51,90000,66,60000,40,9999,0.100000,99,0,0.000000,13,0.000000,22.549234,0.511399,99,99,0,0,0,0,0
9,99999,52,90000,55,0,40,9999,0.100000,99,0,0.000000,13,0.000000,18.105445,2.891869,99,99,0,0,0,0,0
9,99999,53,90000,45,10000,0,9999,0.100000,99,0,0.920156,13,0.000000,18.626060,0.408780,99,99,0,0,0,0,1
9,99999,54,90000,90,10000,40,9999,0.100000,99,0,0.000000,13,0.000000,25.094509,0.865261,99,99,0,0,0,0,0
9,99999,55,90000,13,0,40,9999,0.100000,99,0,0.000000,13,0.000000,33.905463,0.371086,99,99,0,0,0,0,0
9,99999,56,90000,45,10000,0,9999,0.100000,99,0,0.000079,13,0.000000,27.686668,0.196034,99,99,0,0,0,0,1
9,99999,57,90000,81,0,40,9999,0.100000,99,0,0.000000,13,1.000000,18.805836,25.560405,99,99,0,0,0,0,0
9,99999,58,90000,16,20000,40,9999,0.100000,99,0,0.000000,13,1.000000,31.977740,3.665614,99,99,0,0,0,0,0
9,99999,59,90000,90,10000,40,9999,0.100000,99,0,0.000000,13,0.000000,29.852834,1.031297,99,99,0,0,0,0,0
9,99999,60,90000,16,20000,0,9999,0.100000,99,0,0.169764,13,0.000000,27.597164,0.143261,99,99,0,0,0,0,1
9,99999,61,90000,73,0,0,9999,0.100000,99,0,0.001235,13,0.000000,20.842787,0.088542,99,99,0,0,0,0,1
9,99999,62,90000,59,50000,40,9999,0.100000,99,0,0.000000,13,0.000000,20.291803,0.485795,99,99,0,0,0,0,0
9,99999,63,90000,70,20000,40,9999,0.100000,99,0,0.000000,13,0.000000,17.014440,3.826445,99,99,0,0,0,0,0
9,99999,64,90000,81,0,0,9999,0.100000,99,0,0.016700,13,0.000000,25.851513,0.197735,99,99,0,0,0,0,1
9,99999,65,90000,55,0,40,9999,0.100000,99,0,0.000000,13,0.000000,19.063240,0.242900,99,99,0,0,0,0,0
9,99999,66,90000,59,50000,40,9999,0.100000,99,0,0.000000,13,1.000000,17.089003,2.531575,99,99,0,0,0,0,0
9,99999,67,90000,66,60000,40,9999,0.100000,99,0,0.000000,13,2.000000,32.727607,8.925277,99,99,0,0,0,0,0
9,99999,68,90000,70,20000,40,9999,0.100000,99,0,0.000000,13,0.000000,29.652845,0.068505,99,99,0,0,0,0,0
9,99999,69,90000,73,0,40,9999,0.100000,99,0,0.000000,13,0.000000,36.539182,0.276253,99,99,0,0,0,0,0
9,99999,70,90000,25,50000,40,9999,0.100000,99,0,0.000000,13,0.000000,24.447189,0.148345,99,99,0,0,0,0,0
9,99999,71,90000,13,0,40,9999,0.100000,99,0,0.000000,13,0.000000,20.211161,0.855339,99,99,0,0,0,0,0
9,99999,72,90000,70,0,40,9999,0.100000,99,0,0.000000,13,0.000000,33.525328,0.123039,99,99,0,0,0,0,0
9,99999,73,90000,59,50000,40,9999,0.100000,99,0,0.000000,13,0.000000,24.422435,0.771833,99,99,0,0,0,0,0
9,99999,74,90000,25,50000,40,9999,0.100000,99,0,0.000000,13,0.000000,17.990826,3.474229,99,99,0,0,0,0,0
9,99999,75,90000,25,50000,0,9999,0.100000,99,0,0.146704,13,0.000000,29.187208,0.162008,99,99,0,0,0,0,1
9,99999,76,90000,81,0,40,9999,0.100000,99,0,0.000000,13,0.000000,27.803515,0.098945,99,99,0,0,0,0,0
9,99999,77,90000,70,20000,0,9999,0.100000,99,0,0.031603,13,0.000000,12.540792,0.155882,99,99,0,0,1,0,0
9,99999,78,90000,55,0,40,9999,0.100000,99,0,0.000000,13,0.000000,15.457003,1.559230,99,99,0,0,0,0,0
9,99999,79,90000,55,0,40,9999,0.100000,99,0,0.000000,13,0.000000,20.955446,0.083264,99,99,0,0,0,0,0
9,99999,80,90000,55,0,40,9999,0.100000,99,0,0.000000,13,0.000000,25.998094,0.804231,99,99,0,0,0,0,0
9,99999,81,90000,90,10000,0,9999,0.100000,99,0,3.035589,13,0.000000,16.886715,1.043725,99,99,0,0,0,0,1
9,99999,82,90000,70,0,40,9999,0.100000,99,0,0.000000,13,0.000000,29.948492,1.200037,99,99,0,0,0,0,0
9,99999,83,90000,66,60000,0,9999,0.100000,99,0,0.268317,13,0.000000,14.683224,0.337146,99,99,0,0,0,0,1
9,99999,84,90000,13,0,40,9999,0.100000,99,0,0.000000,13,0.000000,18.807112,0.125275,99,99,0,0,0,0,0
9,99999,85,90000,90,10000,40,9999,0.100000,99,0,0.000000,13,0.000000,25.142488,1.279082,99,99,0,0,0,0,0
9,99999,86,90000,59,50000,0,9999,0.100000,99,0,0.000802,13,0.000000,23.995963,0.119071,99,99,0,0,0,0,1
9,99999,87,90000,70,20000,40,9999,0.100000,99,0,0.000000,13,0.000000,25.430682,0.100850,99,99,0,0,0,0,0
9,99999,88,90000,90,20000,40,9999,0.100000,99,0,0.000000,13,0.000000,23.439318,0.229319,99,99,0,0,0,0,0
9,99999,89,90000,25,50000,40,9999,0.100000,99,0,0.000000,13,0.000000,20.625570,0.083756,99,99,0,0,0,0,0
9,99999,90,90000,90,20000,6,9999,0.100000,99,0,0.001125,13,9.000000,13.083828,18.993196,99,99,0,0,0,0,1
9,99999,91,90000,73,0,0,9999,0.100000,99,0,0.127284,13,0.000000,30.128892,0.086878,99,99,0,0,0,0,1
9,99999,92,90000,25,50000,40,9999,0.100000,99,0,0.000000,13,0.000000,24.377864,1.008857,99,99,0,0,0,0,0
9,99999,93,90000,70,20000,40,9999,0.100000,99,0,0.000000,13,0.000000,33.259719,0.443433,99,99,0,0,0,0,0
9,99999,94,90000,66,60000,40,9999,0.100000,99,0,0.000000,13,2.000000,23.993423,4.867872,99,99,0,0,0,0,0
9,99999,95,90000,45,10000,40,9999,0.100000,99,0,0.000000,13,0.000000,29.625005,0.452753,99,99,0,0,0,0,0
9,99999,96,90000,55,0,40,9999,0.100000,99,0,0.000000,13,0.000000,28.923462,0.419920,99,99,0,0,0,0,0
9,99999,97,90000,45,10000,40,9999,0.100000,99,0,0.000000,13,0.000000,29.028348,0.009785,99,99,0,0,0,0,0
9,99999,98,90000,55,0,40,9999,0.100000,99,0,0.000000,13,2.000000,29.524693,5.531130,99,99,0,0,0,0,0
9,99999,99,90000,25,50000,40,9999,0.100000,99,0,0.000000,13,0.000000,33.402393,0.009383,99,99,0,0,0,0,0
10,109999,0,100000,55,0,0,9999,0.100000,99,0,0.114808,13,0.000000,29.509068,0.189743,99,99,0,0,0,0,1
10,109999,1,100000,90,20000,0,9999,0.100000,99,0,0.000661,13,0.000000,26.283895,0.215758,99,99,0,0,0,0,1
10,109999,2,100000,66,60000,0,9999,0.100000,99,0,0.002242,13,0.000000,29.679333,0.109852,99,99,0,0,0,1,0
10,109999,3,100000,25,50000,0,9999,0.100000,99,0,0.766111,13,0.000000,24.068036,0.237723,99,99,0,0,0,1,0
10,109999,4,100000,90,20000,40,9999,0.100000,99,0,0.000000,13,0.000000,13.445508,0.211103,99,99,0,0,0,0,0
10,109999,5,100000,55,0,40,9999,0.100000,99,0,0.000000,13,0.000000,29.377849,0.099709,99,99,0,0,0,0,0
10,109999,6,100000,70,0,40,9999,0.100000,99,0,0.000000,13,0.000000,27.387283,0.202225,99,99,0,0,0,0,0
10,109999,7,100000,13,0,40,9999,0.100000,99,0,0.000000,13,2.000000,20.337911,9.471461,99,99,0,0,0,0,0
10,109999,8,100000,70,0,40,9999,0.100000,99,0,0.000000,13,0.000000,31.396330,1.487996,99,99,0,0,0,0,0
10,109999,9,100000,16,20000,40,9999,0.100000,99,0,0.000000,13,0.000000,33.966870,1.624488,99,99,0,0,0,0,0
10,109999,10,100000,66,60000,40,9999,0.100000,99,0,0.000000,13,0.000000,31.082559,6.164234,99,99,0,0,0,0,0
10,109999,11,100000,73,0,40,9999,0.100000,99,0,0.000000,13,0.000000,29.298857,0.593036,99,99,0,0,0,0,0
10,109999,12,100000,25,50000,40,9999,0.100000,99,0,0.000000,13,0.000000,24.593258,2.111007,99,99,0,0,0,0,0
10,109999,13,100000,13,0,0,9999,0.100000,99,0,0.660634,13,0.000000,20.043115,1.115232,99,99,0,0,0,0,1
10,109999,14,100000,90,20000,0,9999,0.100000,99,0,0.000374,13,0.000000,27.598332,0.085359,99,99,0,0,0,0,1
10,109999,15,100000,81,0,0,9999,0.100000,99,0,0.524208,13,0.000000,24.422390,0.512562,99,99,0,0,0,0,1
10,109999,16,100000,45,10000,40,9999,0.100000,99,0,0.000000,13,0.000000,33.715353,0.308034,99,99,0,0,0,0,0
10,109999,17,100000,13,0,40,9999,0.100000,99,0,0.000000,13,0.000000,29.035142,1.928853,99,99,0,0,0,0,0
10,109999,18,100000,81,0,40,9999,0.100000,99,0,0.000000,13,0.000000,24.250131,0.634671,99,99,0,0,0,0,0
10,109999,19,100000,90,20000,0,9999,0.100000,99,0,0.001751,13,0.000000,26.067981,0.084255,99,99,0,0,0,0,1
10,109999,20,100000,73,0,40,9999,0.100000,99,0,0.000000,13,0.000000,27.512356,1.337276,99,99,0,0,0,0,0
10,109999,21,100000,90,10000,40,9999,0.100000,99,0,0.000000,13,0.000000,31.511337,0.594799,99,99,0,0,0,0,0
10,109999,22,100000,66,60000,40,9999,0.100000,99,0,0.000000,13,0.000000,29.297868,0.353536,99,99,0,0,0,0,0
10,109999,23,100000,59,50000,40,9999,0.100000,99,0,0.000000,13,0.000000,22.561048,0.644221,99,99,0,0,0,0,0
10,109999,24,100000,16,20000,40,9999,0.100000,99,0,0.000000,13,0.000000,29.976893,1.476467,99,99,0,0,0,0,0
10,109999,25,100000,55,0,0,9999,0.100000,99,0,0.076502,13,1.000000,15.965345,2.474549,99,99,0,0,1,0,0
10,109999,26,100000,90,20000,0,9999,0.100000,99,0,0.577128,13,0.000000,31.060010,0.268865,99,99,0,0,0,0,1
10,109999,27,100000,13,0,0,9999,0.100000,99,0,0.253210,13,0.000000,18.537319,0.140799,99,99,0,0,1,0,0
10,109999,28,100000,73,0,40,9999,0.100000,99,0,0.000000,13,0.000000,24.384856,0.690215,99,99,0,0,0,0,0
10,109999,29,100000,55,0,40,9999,0.100000,99,0,0.000000,13,0.000000,33.239436,0.238515,99,99,0,0,0,0,0
10,109999,30,100000,90,10000,0,9999,0.100000,99,0,0.017555,13,0.000000,34.157376,0.133569,99,99,0,0,0,0,1
10,109999,31,100000,16,20000,40,9999,0.100000,99,0,0.000000,13,0.000000,31.208053,8.826299,99,99,0,0,0,0,0
10,109999,32,100000,73,0,40,9999,0.100000,99,0,0.000000,13,0.000000,29.443503,0.164718,99,99,0,0,0,0,0
10,109999,33,100000,16,20000,0,9999,0.100000,99,0,2.007297,13,2.000000,29.780652,8.586758,99,99,0,0,0,0,1
10,109999,34,100000,70,0,40,9999,0.100000,99,0,0.000000,13,0.000000,22.852812,0.480147,99,99,0,0,0,0,0
10,109999,35,100000,45,10000,40,9999,0.100000,99,0,0.000000,13,0.000000,25.148808,0.798948,99,99,0,0,0,0,0
10,109999,36,100000,70,20000,40,9999,0.100000,99,0,0.000000,13,0.000000,27.423231,0.078677,99,99,0,0,0,0,0
10,109999,37,100000,73,0,41,9999,0.100000,99,0,0.000000,13,3.000000,17.623302,6.743955,99,99,0,0,0,0,0
10,109999,38,100000,25,50000,40,9999,0.100000,99,0,0.000000,13,0.000000,23.960453,0.146621,99,99,0,0,0,0,0
10,109999,39,100000,81,0,40,9999,0.100000,99,0,0.000000,13,0.000000,30.089895,0.009612,99,99,0,0,0,0,0
10,109999,40,100000,81,0,40,9999,0.100000,99,0,0.000000,13,0.000000,20.562787,1.632202,99,99,0,0,0,0,0
10,109999,41,100000,55,0,0,9999,0.100000,99,0,0.054092,13,0.000000,24.274142,0.097828,99,99,0,0,0,0,1
10,109999,42,100000,70,0,40,9999,0.100000,99,0,0.000000,13,1.000000,20.349409,2.061513,99,99,0,0,0,0,0
10,109999,43,100000,66,60000,0,9999,0.100000,99,0,5.647461,13,1.000000,20.488334,1.424540,99,99,0,0,0,1,0
10,109999,44,100000,13,0,40,9999,0.100000,99,0,0.000000,13,0.000000,30.564650,0.280480,99,99,0,0,0,0,0
10,109999,45,100000,73,0,3,9999,0.100000,99,0,0.674617,13,5.000000,14.589888,22.511804,99,99,0,0,0,0,1
10,109999,46,100000,16,20000,40,9999,0.100000,99,0,0.000000,13,0.000000,36.599413,0.196242,99,99,0,0,0,0,0
10,109999,47,100000,81,0,40,9999,0.100000,99,0,0.000000,13,0.000000,22.293131,0.248164,99,99,0,0,0,0,0
10,109999,48,100000,81,0,40,9999,0.100000,99,0,0.000000,13,1.000000,19.115521,8.802105,99,99,0,0,0,0,0
10,109999,49,100000,81,0,41,9999,0.100000,99,0,0.000000,13,3.000000,17.819784,8.442291,99,99,0,0,0,0,0
10,109999,50,100000,90,10000,40,9999,0.100000,99,0,0.000000,13,2.000000,29.906870,3.079545,99,99,0,0,0,0,0
10,109999,51,100000,90,20000,40,9999,0.100000,99,0,0.000000,13,0.000000,22.729909,0.499663,99,99,0,0,0,0,0
10,109999,52,100000,66,60000,44,9999,0.100000,99,0,0.000000,13,8.000000,17.976320,10.670827,99,99,0,0,0,0,0
10,109999,53,100000,90,10000,0,9999,0.100000,99,0,0.173726,13,0.000000,18.679477,0.278113,99,99,0,0,0,0,1
10,109999,54,100000,70,0,40,9999,0.100000,99,0,0.000000,13,0.000000,24.999056,0.903399,99,99,0,0,0,0,0
10,109999,55,100000,70,0,40,9999,0.100000,99,0,0.000000,13,0.000000,33.909190,0.361249,99,99,0,0,0,0,0
10,109999,56,100000,45,10000,0,9999,0.100000,99,0,0.000057,13,0.000000,27.687325,0.193889,99,99,0,0,0,0,1
10,109999,57,100000,59,50000,40,9999,0.100000,99,0,0.000000,13,1.000000,19.760577,5.894194,99,99,0,0,0,0,0
10,109999,58,100000,90,20000,40,9999,0.100000,99,0,0.000000,13,1.000000,32.389621,14.375677,99,99,0,0,0,0,0
10,109999,59,100000,70,0,40,9999,0.100000,99,0,0.000000,13,0.000000,29.810169,0.841375,99,99,0,0,0,0,0
10,109999,60,100000,66,60000,1,9999,0.100000,99,0,0.370055,13,5.000000,27.574250,10.974742,99,99,0,0,0,0,1
10,109999,61,100000,59,50000,0,9999,0.100000,99,0,0.001240,13,0.000000,20.843400,0.087952,99,99,0,0,0,0,1
10,109999,62,100000,25,50000,40,9999,0.100000,99,0,0.000000,13,1.000000,20.415437,1.513146,99,99,0,0,0,0,0
10,109999,63,100000,16,20000,1,9999,0.100000,99,0,0.196700,13,2.000000,17.330499,15.320402,99,99,0,0,0,0,1
10,109999,64,100000,90,20000,41,9999,0.100000,99,0,0.000000,13,3.000000,25.855714,13.711681,99,99,0,0,0,0,0
10,109999,65,100000,90,20000,40,9999,0.100000,99,0,0.000000,13,0.000000,19.060955,0.220560,99,99,0,0,0,0,0
10,109999,66,100000,66,60000,41,9999,0.100000,99,0,0.000000,13,2.000000,17.385349,3.160138,99,99,0,0,0,0,0
10,109999,67,100000,25,50000,41,9999,0.100000,99,0,0.000000,13,4.000000,34.082331,11.410859,99,99,0,0,0,0,0
10,109999,68,100000,13,0,0,9999,0.065000,99,0,0.126773,13,0.000000,29.624828,0.069210,99,99,0,0,0,0,1
10,109999,69,100000,66,60000,43,9999,0.100000,99,0,0.000000,13,12.000000,36.539932,25.140890,99,99,0,0,0,0,0
10,109999,70,100000,90,10000,40,9999,0.100000,99,0,0.000000,13,0.000000,24.428149,0.110593,99,99,0,0,0,0,0
10,109999,71,100000,90,10000,40,9999,0.100000,99,0,0.000000,13,0.000000,20.191081,0.937788,99,99,0,0,0,0,0
10,109999,72,100000,66,60000,40,9999,0.100000,99,0,0.000000,13,0.000000,33.524897,0.121209,99,99,0,0,0,0,0
10,109999,73,100000,13,0,40,9999,0.100000,99,0,0.000000,13,0.000000,24.418998,2.200486,99,99,0,0,0,0,0
10,109999,74,100000,81,0,40,9999,0.100000,99,0,0.000000,13,0.000000,18.048330,2.388448,99,99,0,0,0,0,0
10,109999,75,100000,59,50000,0,9999,0.100000,99,0,0.327237,13,0.000000,29.164667,0.181572,99,99,0,0,0,0,1
10,109999,76,100000,45,10000,40,9999,0.100000,99,0,0.000000,13,0.000000,27.804227,0.111688,99,99,0,0,0,0,0
10,109999,77,100000,55,0,0,9999,0.100000,99,0,0.008686,13,0.000000,12.542187,0.146830,99,99,0,0,1,0,0
10,109999,78,100000,70,20000,40,9999,0.100000,99,0,0.000000,13,1.000000,15.721740,1.845081,99,99,0,0,0,0,0
10,109999,79,100000,90,10000,40,9999,0.100000,99,0,0.000000,13,0.000000,20.956351,0.083200,99,99,0,0,0,0,0
10,109999,80,100000,16,20000,40,9999,0.100000,99,0,0.000000,13,0.000000,25.739124,0.625082,99,99,0,0,0,0,0
10,109999,81,100000,90,10000,41,9999,0.100000,99,0,0.000000,13,2.000000,17.148029,2.595902,99,99,0,0,0,0,0
10,109999,82,100000,81,0,40,9999,0.100000,99,0,0.000000,13,2.000000,30.035933,3.521411,99,99,0,0,0,0,0
10,109999,83,100000,13,0,40,9999,0.100000,99,0,0.000000,13,0.000000,14.738577,0.324682,99,99,0,0,0,0,0
10,109999,84,100000,81,0,40,9999,0.100000,99,0,0.000000,13,0.000000,18.814087,0.184778,99,99,0,0,0,0,0
10,109999,85,100000,66,60000,40,9999,0.100000,99,0,0.000000,13,0.000000,25.107130,1.931882,99,99,0,0,0,0,0
10,109999,86,100000,73,0,0,9999,0.100000,99,0,0.000685,13,0.000000,23.995429,0.111272,99,99,0,0,0,0,1
10,109999,87,100000,45,10000,40,9999,0.100000,99,0,0.000000,13,0.000000,25.451594,0.107749,99,99,0,0,0,0,0
10,109999,88,100000,90,10000,40,9999,0.100000,99,0,0.000000,13,0.000000,23.440707,0.239401,99,99,0,0,0,0,0
10,109999,89,100000,90,20000,40,9999,0.100000,99,0,0.000000,13,0.000000,20.625638,0.084448,99,99,0,0,0,0,0
10,109999,90,100000,59,50000,0,9999,0.100000,99,0,0.000934,13,0.000000,13.084132,0.126335,99,99,0,0,0,0,1
10,109999,91,100000,66,60000,40,9999,0.100000,99,0,0.000000,13,0.000000,30.101641,0.083400,99,99,0,0,0,0,0
10,109999,92,100000,45,10000,40,9999,0.100000,99,0,0.000000,13,0.000000,24.363734,0.841518,99,99,0,0,0,0,0
10,109999,93,100000,45,10000,40,9999,0.100000,99,0,0.000000,13,0.000000,33.270477,0.351459,99,99,0,0,0,0,0
10,109999,94,100000,66,60000,40,9999,0.100000,99,0,0.000000,13,0.000000,23.853673,0.231650,99,99,0,0,0,0,0
10,109999,95,100000,90,20000,40,9999,0.100000,99,0,0.000000,13,2.000000,29.671392,2.833842,99,99,0,0,0,0,0
10,109999,96,100000,66,60000,40,9999,0.100000,99,0,0.000000,13,0.000000,28.896560,0.471891,99,99,0,0,0,0,0
10,109999,97,100000,70,0,40,9999,0.100000,99,0,0.000000,13,0.000000,29.028416,0.009818,99,99,0,0,0,0,0
10,109999,98,100000,25,50000,40,9999,0.100000,99,0,0.000000,13,2.000000,29.550860,7.616681,99,99,0,0,0,0,0
10,109999,99,100000,90,20000,40,9999,0.100000,99,0,0.000000,13,0.000000,33.402348,0.009378,99,99,0,0,0,0,0
11,119999,0,110000,16,20000,0,9999,0.100000,99,0,0.090758,13,0.000000,29.482560,0.191636,99,99,0,0,0,0,1
11,119999,1,110000,55,0,0,9999,0.100000,99,0,0.000924,13,0.000000,26.220652,0.092720,99,99,0,0,0,0,1
11,119999,2,110000,81,0,0,9999,0.100000,99,0,0.001225,14,0.000000,29.674957,0.088960,99,99,0,0,0,1,0
11,119999,3,110000,59,50000,0,9999,0.100000,99,0,0.012641,14,0.000000,23.899940,0.166254,99,99,0,0,0,1,0
11,119999,4,110000,55,0,40,9999,0.100000,99,0,0.000000,13,0.000000,13.443827,0.217111,99,99,0,0,0,0,0
11,119999,5,110000,90,10000,40,9999,0.100000,99,0,0.000000,13,0.000000,29.351506,0.110864,99,99,0,0,0,0,0
11,119999,6,110000,13,0,40,9999,0.100000,99,0,0.000000,13,0.000000,27.388542,0.214920,99,99,0,0,0,0,0
11,119999,7,110000,25,50000,40,9999,0.100000,99,0,0.000000,13,1.000000,22.544573,5.394753,99,99,0,0,0,0,0
11,119999,8,110000,73,0,40,9999,0.100000,99,0,0.000000,13,0.000000,31.376932,0.772019,99,99,0,0,0,0,0
11,119999,9,110000,59,50000,40,9999,0.100000,99,0,0.000000,14,0.000000,33.968398,1.685673,99,99,0,0,0,0,0
11,119999,10,110000,90,20000,40,9999,0.100000,99,0,0.000000,13,1.000000,31.117465,13.092869,99,99,0,0,0,0,0
11,119999,11,110000,45,10000,40,9999,0.100000,99,0,0.000000,14,0.000000,29.254412,0.516668,99,99,0,0,0,0,0
11,119999,12,110000,45,10000,40,9999,0.100000,99,0,0.000000,15,0.000000,24.513067,0.526533,99,99,0,0,0,0,0
11,119999,13,110000,59,50000,0,9999,0.100000,99,0,0.655083,13,0.000000,19.878794,0.326409,99,99,0,0,0,0,1
11,119999,14,110000,13,0,0,9999,0.100000,99,0,0.000267,14,0.000000,27.599019,0.085543,99,99,0,0,0,0,1
11,119999,15,110000,13,0,0,9999,0.100000,99,0,0.130162,14,0.000000,24.262858,0.266494,99,99,0,0,0,0,1
11,119999,16,110000,45,10000,40,9999,0.100000,99,0,0.000000,13,0.000000,33.722426,0.283371,99,99,0,0,0,0,0
11,119999,17,110000,55,0,40,9999,0.100000,99,0,0.000000,14,0.000000,28.978518,1.744742,99,99,0,0,0,0,0
11,119999,18,110000,90,10000,40,9999,0.100000,99,0,0.000000,13,0.000000,24.065929,0.364408,99,99,0,0,0,0,0
11,119999,19,110000,55,0,0,9999,0.100000,99,0,0.001707,14,0.000000,26.069249,0.084171,99,99,0,0,0,0,1
11,119999,20,110000,59,50000,40,9999,0.100000,99,0,0.000000,13,0.000000,27.642343,0.957156,99,99,0,0,0,0,0
11,119999,21,110000,90,20000,0,9999,0.100000,99,0,0.520862,15,0.000000,31.538051,0.370919,99,99,0,0,0,0,1
11,119999,22,110000,25,50000,40,9999,0.100000,99,0,0.000000,13,0.000000,29.268298,0.339688,99,99,0,0,0,0,0
11,119999,23,110000,13,0,40,9999,0.100000,99,0,0.000000,13,0.000000,22.742707,0.690707,99,99,0,0,0,0,0
11,119999,24,110000,90,10000,40,9999,0.100000,99,0,0.000000,13,0.000000,29.949038,1.945468,99,99,0,0,0,0,0
11,119999,25,110000,13,0,0,9999,0.100000,99,0,0.112898,14,0.000000,16.268670,0.253926,99,99,0,0,1,0,0
11,119999,26,110000,66,60000,40,9999,0.100000,99,0,0.000000,13,0.000000,31.090863,0.316258,99,99,0,0,0,0,0
11,119999,27,110000,16,20000,0,9999,0.100000,99,0,0.001370,15,0.000000,18.533861,0.125405,99,99,0,0,1,0,0
11,119999,28,110000,73,0,40,9999,0.100000,99,0,0.000000,15,0.000000,24.200495,0.572281,99,99,0,0,0,0,0
11,119999,29,110000,81,0,40,9999,0.100000,99,0,0.000000,13,0.000000,33.240773,0.233409,99,99,0,0,0,0,0
11,119999,30,110000,90,20000,0,9999,0.100000,99,0,0.061529,13,0.000000,34.160513,0.191150,99,99,0,0,0,0,1
11,119999,31,110000,45,10000,0,9999,0.100000,99,0,0.016743,14,3.000000,31.765065,10.057858,99,99,0,0,0,0,1
11,119999,32,110000,52,100000,40,9999,0.100000,99,0,0.000000,15,0.000000,29.438835,0.149089,99,99,0,0,0,0,0
11,119999,33,110000,73,0,0,9999,0.100000,99,0,0.547244,15,2.000000,31.191153,9.112242,99,99,0,0,0,0,1
11,119999,34,110000,66,60000,40,9999,0.100000,99,0,0.000000,15,0.000000,22.680951,0.405976,99,99,0,0,0,0,0
11,119999,35,110000,66,60000,40,9999,0.100000,99,0,0.000000,14,0.000000,25.171885,0.857503,99,99,0,0,0,0,0
11,119999,36,110000,70,0,40,9999,0.100000,99,0,0.000000,14,0.000000,27.424035,0.084285,99,99,0,0,0,0,0
11,119999,37,110000,73,0,40,9999,0.100000,99,0,0.000000,13,0.000000,18.227020,2.139280,99,99,0,0,0,0,0
11,119999,38,110000,90,10000,0,9999,0.100000,99,0,0.005260,14,0.000000,23.937344,0.169172,99,99,0,0,0,0,1
11,119999,39,110000,73,0,40,9999,0.100000,99,0,0.000000,14,0.000000,30.089836,0.009584,99,99,0,0,0,0,0
11,119999,40,110000,16,20000,0,9999,0.100000,99,0,1.997611,13,0.000000,21.447057,1.071431,99,99,0,0,0,1,0
11,119999,41,110000,81,0,40,9999,0.100000,99,0,0.000000,15,0.000000,24.254623,0.074526,99,99,0,0,0,0,0
11,119999,42,110000,25,50000,40,9999,0.100000,99,0,0.000000,14,0.000000,21.638182,0.767141,99,99,0,0,0,0,0
11,119999,43,110000,16,20000,40,9999,0.100000,99,0,0.000000,13,0.000000,21.522949,6.855759,99,99,0,0,0,0,0
11,119999,44,110000,55,0,40,9999,0.100000,99,0,0.000000,13,0.000000,30.585889,1.266132,99,99,0,0,0,0,0
11,119999,45,110000,25,50000,0,9999,0.100000,99,0,0.216142,14,0.000000,14.890871,0.476028,99,99,0,0,0,0,1
11,119999,46,110000,25,50000,40,9999,0.100000,99,0,0.000000,13,0.000000,36.600442,0.194878,99,99,0,0,0,0,0
11,119999,47,110000,45,100000,40,9999,0.100000,99,0,0.000000,14,0.000000,22.292285,0.239558,99,99,0,0,0,0,0
11,119999,48,110000,25,50000,40,9999,0.100000,99,0,0.000000,13,0.000000,19.096504,3.096853,99,99,0,0,0,0,0
11,119999,49,110000,90,10000,40,9999,0.100000,99,0,0.000000,14,0.000000,17.705431,0.009235,99,99,0,0,0,0,0
11,119999,50,110000,73,0,40,9999,0.100000,99,0,0.000000,14,0.000000,31.420490,0.201268,99,99,0,0,0,0,0
11,119999,51,110000,90,20000,40,9999,0.100000,99,0,0.000000,13,0.000000,22.911810,0.520767,99,99,0,0,0,0,0
11,119999,52,110000,66,60000,40,9999,0.100000,99,0,0.000000,15,0.000000,18.533625,1.217428,99,99,0,0,0,0,0
11,119999,53,110000,90,10000,0,9999,0.100000,99,0,0.032691,14,0.000000,18.631272,0.184277,99,99,0,0,0,0,1
11,119999,54,110000,55,0,40,9999,0.100000,99,0,0.000000,14,0.000000,25.051743,0.832207,99,99,0,0,0,0,0
11,119999,55,110000,13,0,40,9999,0.100000,99,0,0.000000,14,0.000000,33.909866,0.363888,99,99,0,0,0,0,0
11,119999,56,110000,70,20000,0,9999,0.100000,99,0,0.000113,14,0.000000,27.688129,0.176783,99,99,0,0,0,0,1
11,119999,57,110000,70,20000,40,9999,0.100000,99,0,0.000000,13,0.000000,19.078459,4.025386,99,99,0,0,0,0,0
11,119999,58,110000,45,10000,40,9999,0.100000,99,0,0.000000,14,1.000000,32.973671,13.743665,99,99,0,0,0,0,0
11,119999,59,110000,70,0,40,9999,0.100000,99,0,0.000000,15,0.000000,29.779671,0.572623,99,99,0,0,0,0,0
11,119999,60,110000,90,20000,0,9999,0.135000,99,0,0.309352,15,0.000000,27.518649,0.441781,99,99,0,0,0,0,1
11,119999,61,110000,13,0,0,9999,0.100000,99,0,0.001440,15,0.000000,20.844124,0.088714,99,99,0,0,0,0,1
11,119999,62,110000,45,10000,40,9999,0.100000,99,0,0.000000,14,0.000000,21.578491,1.472100,99,99,0,0,0,0,0
11,119999,63,110000,70,0,40,9999,0.100000,99,0,0.000000,15,0.000000,17.430208,2.023960,99,99,0,0,0,0,0
11,119999,64,110000,55,0,40,9999,0.100000,99,0,0.000000,14,0.000000,25.836124,0.088571,99,99,0,0,0,0,0
11,119999,65,110000,90,20000,40,9999,0.100000,99,0,0.000000,13,0.000000,19.059660,0.267052,99,99,0,0,0,0,0
11,119999,66,110000,52,100000,40,9999,0.100000,99,0,0.000000,15,0.000000,17.993453,3.843962,99,99,0,0,0,0,0
11,119999,67,110000,59,50000,40,9999,0.100000,99,0,0.000000,15,0.000000,29.759001,6.361112,99,99,0,0,0,0,0
11,119999,68,110000,70,20000,0,9999,0.100000,99,0,0.136510,13,0.000000,29.598082,0.072160,99,99,0,0,0,0,1
11,119999,69,110000,73,0,40,9999,0.100000,99,0,0.000000,13,0.000000,36.541264,0.269053,99,99,0,0,0,0,0
11,119999,70,110000,55,0,40,9999,0.100000,99,0,0.000000,14,0.000000,24.404607,0.076884,99,99,0,0,0,0,0
11,119999,71,110000,70,20000,40,9999,0.100000,99,0,0.000000,14,0.000000,19.962644,1.129430,99,99,0,0,0,0,0
11,119999,72,110000,13,0,40,9999,0.100000,99,0,0.000000,13,0.000000,33.526432,0.121177,99,99,0,0,0,0,0
11,119999,73,110000,45,10000,40,9999,0.100000,99,0,0.000000,13,0.000000,24.255704,1.968826,99,99,0,0,0,0,0
11,119999,74,110000,70,0,40,9999,0.100000,99,0,0.000000,15,0.000000,18.498575,0.201258,99,99,0,0,0,0,0
11,119999,75,110000,13,0,40,9999,0.100000,99,0,0.000000,14,0.000000,29.117603,0.168640,99,99,0,0,0,0,0
11,119999,76,110000,16,20000,40,9999,0.100000,99,0,0.000000,13,0.000000,27.805089,0.093081,99,99,0,0,0,0,0
11,119999,77,110000,66,60000,0,9999,0.100000,99,0,0.001438,14,0.000000,12.538592,0.142620,99,99,0,0,1,0,0
11,119999,78,110000,66,60000,40,9999,0.100000,99,0,0.000000,14,0.000000,16.179881,0.152492,99,99,0,0,0,0,0
11,119999,79,110000,16,20000,40,9999,0.100000,99,0,0.000000,15,0.000000,20.957344,0.084955,99,99,0,0,0,0,0
11,119999,80,110000,90,10000,40,9999,0.100000,99,0,0.000000,15,0.000000,25.572547,0.472922,99,99,0,0,0,0,0
11,119999,81,110000,45,10000,40,9999,0.100000,99,0,0.000000,15,0.000000,17.679966,3.478334,99,99,0,0,0,0,0
11,119999,82,110000,59,50000,40,9999,0.100000,99,0,0.000000,15,2.000000,31.629618,5.424491,99,99,0,0,0,0,0
