generation,iteration,robot,birthday,ancestor_id,ancestor_birthday,cell_id,age,sigma,maps,genomes,fitness,cells_in_map,dist_max,dist_pot_max,dist_total,com_rx,com_tx,obj_group1,obj_group2,obj_group3,obj_group4,obj_group5
0,9999,0,0,0,0,41,9999,0.100000,99,0,0.000000,0,2.000000,18.864536,13.412945,99,99,0,0,0,0,0
0,9999,1,0,1,0,91,9999,0.100000,99,0,21.031578,0,4.000000,27.262966,9.667923,99,99,1,0,0,0,0
0,9999,2,0,2,0,0,9999,0.100000,99,0,2.769930,0,2.000000,22.431010,4.450113,99,99,0,1,0,0,0
0,9999,3,0,3,0,40,9999,0.100000,99,0,0.000000,0,1.000000,28.552089,23.748844,99,99,0,0,0,0,0
0,9999,4,0,4,0,40,9999,0.100000,99,0,0.000000,0,1.000000,30.456050,9.138551,99,99,0,0,0,0,0
0,9999,5,0,5,0,2,9999,0.100000,99,0,0.684805,0,4.000000,18.249242,8.275950,99,99,0,1,0,0,0
0,9999,6,0,6,0,40,9999,0.100000,99,0,0.000000,0,1.000000,16.537584,7.208419,99,99,0,0,0,0,0
0,9999,7,0,7,0,40,9999,0.100000,99,0,0.000000,0,0.000000,26.824090,5.048966,99,99,0,0,0,0,0
0,9999,8,0,8,0,0,9999,0.100000,99,0,0.275985,0,0.000000,28.201648,2.101428,99,99,0,0,0,0,1
0,9999,9,0,9,0,40,9999,0.100000,99,0,0.000000,0,2.000000,26.977927,9.778085,99,99,0,0,0,0,0
0,9999,10,0,10,0,0,9999,0.100000,99,0,0.031960,0,1.000000,26.568042,1.344091,99,99,0,0,0,1,0
0,9999,11,0,11,0,1,9999,0.100000,99,0,0.014395,0,3.000000,26.274213,7.512924,99,99,0,0,0,0,1
0,9999,12,0,12,0,90,9999,0.100000,99,0,3.243198,0,2.000000,19.441398,6.742478,99,99,1,0,0,0,0
0,9999,13,0,13,0,40,9999,0.100000,99,0,0.000000,0,2.000000,33.060139,12.044015,99,99,0,0,0,0,0
0,9999,14,0,14,0,40,9999,0.100000,99,0,0.000000,0,0.000000,27.030854,0.657905,99,99,0,0,0,0,0
0,9999,15,0,15,0,42,9999,0.100000,99,0,0.000000,0,5.000000,23.406342,19.530593,99,99,0,0,0,0,0
0,9999,16,0,16,0,41,9999,0.100000,99,0,0.000000,0,2.000000,17.932213,12.096955,99,99,0,0,0,0,0
0,9999,17,0,17,0,40,9999,0.100000,99,0,0.000000,0,1.000000,32.345022,13.184667,99,99,0,0,0,0,0
0,9999,18,0,18,0,95,9999,0.100000,99,0,61.041235,0,11.000000,19.202174,17.968056,99,99,1,0,0,0,0
0,9999,19,0,19,0,40,9999,0.100000,99,0,0.000000,0,1.000000,31.243352,3.050361,99,99,0,0,0,0,0
0,9999,20,0,20,0,40,9999,0.100000,99,0,0.000000,0,0.000000,25.155857,0.517556,99,99,0,0,0,0,0
0,9999,21,0,21,0,40,9999,0.100000,99,0,0.000000,0,2.000000,30.771134,8.075604,99,99,0,0,0,0,0
0,9999,22,0,22,0,41,9999,0.100000,99,0,0.000000,0,3.000000,21.859595,5.124334,99,99,0,0,0,0,0
0,9999,23,0,23,0,2,9999,0.100000,99,0,15.676821,0,6.000000,24.560220,14.714893,99,99,0,1,0,0,0
0,9999,24,0,24,0,40,9999,0.100000,99,0,0.000000,0,0.000000,25.907860,1.471655,99,99,0,0,0,0,0
0,9999,25,0,25,0,40,9999,0.100000,99,0,0.000000,0,0.000000,29.092407,8.897850,99,99,0,0,0,0,0
0,9999,26,0,26,0,40,9999,0.100000,99,0,0.000000,0,2.000000,25.902201,10.891345,99,99,0,0,0,0,0
0,9999,27,0,27,0,40,9999,0.100000,99,0,0.000000,0,0.000000,25.518376,2.687815,99,99,0,0,0,0,0
0,9999,28,0,28,0,40,9999,0.100000,99,0,0.000000,0,1.000000,28.134222,3.248539,99,99,0,0,0,0,0
0,9999,29,0,29,0,1,9999,0.100000,99,0,0.007566,0,4.000000,29.597194,9.640688,99,99,0,0,0,1,0
0,9999,30,0,30,0,91,9999,0.100000,99,0,32.705534,0,5.000000,31.750632,14.529855,99,99,1,0,0,0,0
0,9999,31,0,31,0,41,9999,0.100000,99,0,23.090424,0,3.000000,26.871574,7.840409,99,99,1,1,0,0,0
0,9999,32,0,32,0,40,9999,0.100000,99,0,0.000000,0,0.000000,29.528953,8.719288,99,99,0,0,0,0,0
0,9999,33,0,33,0,41,9999,0.100000,99,0,0.000000,0,3.000000,24.688333,11.450468,99,99,0,0,0,0,0
0,9999,34,0,34,0,94,9999,0.100000,99,0,50.716251,0,10.000000,22.182775,16.230895,99,99,1,0,0,0,0
0,9999,35,0,35,0,40,9999,0.100000,99,0,0.000000,0,2.000000,32.919206,16.433576,99,99,0,0,0,0,0
0,9999,36,0,36,0,40,9999,0.100000,99,0,0.000000,0,0.000000,14.810405,9.277065,99,99,0,0,0,0,0
0,9999,37,0,37,0,40,9999,0.100000,99,0,0.000000,0,3.000000,29.120669,10.318257,99,99,0,0,0,0,0
0,9999,38,0,38,0,40,9999,0.100000,99,0,0.000000,0,1.000000,30.942302,8.808483,99,99,0,0,0,0,0
0,9999,39,0,39,0,1,9999,0.100000,99,0,0.020042,0,3.000000,21.603879,11.173970,99,99,0,0,0,0,1
0,9999,40,0,40,0,40,9999,0.100000,99,0,0.000000,0,1.000000,25.703503,13.341524,99,99,0,0,0,0,0
0,9999,41,0,41,0,40,9999,0.100000,99,0,0.000000,0,2.000000,33.406837,14.670367,99,99,0,0,0,0,0
0,9999,42,0,42,0,40,9999,0.100000,99,0,0.000000,0,3.000000,33.547611,12.594789,99,99,0,0,0,0,0
0,9999,43,0,43,0,0,9999,0.100000,99,0,0.012055,0,1.000000,17.746612,9.502848,99,99,0,0,1,0,0
0,9999,44,0,44,0,40,9999,0.100000,99,0,0.000000,0,2.000000,25.905031,12.695422,99,99,0,0,0,0,0
0,9999,45,0,45,0,40,9999,0.100000,99,0,0.000000,0,0.000000,27.274258,10.293412,99,99,0,0,0,0,0
0,9999,46,0,46,0,40,9999,0.100000,99,0,0.000000,0,1.000000,32.137977,10.700601,99,99,0,0,0,0,0
0,9999,47,0,47,0,91,9999,0.100000,99,0,29.653175,0,5.000000,32.924223,15.482210,99,99,1,0,0,0,0
0,9999,48,0,48,0,40,9999,0.100000,99,0,0.000000,0,1.000000,27.149344,9.528190,99,99,0,0,0,0,0
0,9999,49,0,49,0,40,9999,0.100000,99,0,0.000000,0,0.000000,26.089748,5.817710,99,99,0,0,0,0,0
0,9999,50,0,50,0,41,9999,0.100000,99,0,0.000000,0,2.000000,18.453402,8.649469,99,99,0,0,0,0,0
0,9999,51,0,51,0,0,9999,0.100000,99,0,0.166534,0,0.000000,26.153328,1.416935,99,99,0,0,1,0,0
0,9999,52,0,52,0,90,9999,0.100000,99,0,1.525198,0,1.000000,22.995769,3.526042,99,99,1,0,0,0,0
0,9999,53,0,53,0,40,9999,0.100000,99,0,0.000000,0,1.000000,20.868762,5.358165,99,99,0,0,0,0,0
0,9999,54,0,54,0,0,9999,0.100000,99,0,2.017033,0,0.000000,30.341583,2.725845,99,99,0,1,0,0,0
0,9999,55,0,55,0,40,9999,0.100000,99,0,0.000000,0,2.000000,20.283968,6.032100,99,99,0,0,0,0,0
0,9999,56,0,56,0,91,9999,0.100000,99,0,23.310258,0,4.000000,22.909686,5.871660,99,99,1,0,0,0,0
0,9999,57,0,57,0,40,9999,0.100000,99,0,0.000000,0,2.000000,29.241881,4.526990,99,99,0,0,0,0,0
0,9999,58,0,58,0,44,9999,0.100000,99,0,0.000000,0,5.000000,11.868154,18.847249,99,99,0,0,0,0,0
0,9999,59,0,59,0,0,9999,0.100000,99,0,0.000963,0,1.000000,14.657252,4.118302,99,99,0,0,1,0,0
0,9999,60,0,60,0,41,9999,0.100000,99,0,0.000000,0,3.000000,24.354442,10.058261,99,99,0,0,0,0,0
0,9999,61,0,61,0,41,9999,0.100000,99,0,0.000000,0,3.000000,26.772000,13.715006,99,99,0,0,0,0,0
0,9999,62,0,62,0,40,9999,0.100000,99,0,0.000000,0,1.000000,24.905368,11.903603,99,99,0,0,0,0,0
0,9999,63,0,63,0,40,9999,0.100000,99,0,0.000000,0,1.000000,26.773789,4.987037,99,99,0,0,0,0,0
0,9999,64,0,64,0,40,9999,0.100000,99,0,0.000000,0,2.000000,27.586358,5.994189,99,99,0,0,0,0,0
0,9999,65,0,65,0,0,9999,0.100000,99,0,0.050476,0,0.000000,26.315024,1.058428,99,99,0,1,0,0,0
0,9999,66,0,66,0,40,9999,0.100000,99,0,0.000000,0,3.000000,29.455077,8.628072,99,99,0,0,0,0,0
0,9999,67,0,67,0,40,9999,0.100000,99,0,0.000000,0,2.000000,24.182383,9.885171,99,99,0,0,0,0,0
0,9999,68,0,68,0,40,9999,0.100000,99,0,0.000000,0,1.000000,30.988092,12.451328,99,99,0,0,0,0,0
0,9999,69,0,69,0,40,9999,0.100000,99,0,0.000000,0,3.000000,31.880585,10.282444,99,99,0,0,0,0,0
0,9999,70,0,70,0,40,9999,0.100000,99,0,0.000000,0,2.000000,26.250539,9.825570,99,99,0,0,0,0,0
0,9999,71,0,71,0,92,9999,0.100000,99,0,32.001856,0,6.000000,27.658143,16.200852,99,99,1,0,0,0,0
0,9999,72,0,72,0,40,9999,0.100000,99,0,0.000000,0,1.000000,22.776932,9.946123,99,99,0,0,0,0,0
0,9999,73,0,73,0,41,9999,0.100000,99,0,0.000000,0,5.000000,31.360009,16.106531,99,99,0,0,0,0,0
0,9999,74,0,74,0,40,9999,0.100000,99,0,0.000000,0,0.000000,30.799278,8.471549,99,99,0,0,0,0,0
0,9999,75,0,75,0,40,9999,0.100000,99,0,0.000000,0,3.000000,30.143734,9.187060,99,99,0,0,0,0,0
0,9999,76,0,76,0,42,9999,0.100000,99,0,0.000000,0,5.000000,15.882177,9.237047,99,99,0,0,0,0,0
0,9999,77,0,77,0,41,9999,0.100000,99,0,0.000000,0,3.000000,21.901681,6.283126,99,99,0,0,0,0,0
0,9999,78,0,78,0,41,9999,0.100000,99,0,23.082992,0,5.000000,30.272642,13.118351,99,99,1,0,0,1,0
0,9999,79,0,79,0,98,9999,0.100000,99,0,79.932228,0,15.000000,16.723095,22.504089,99,99,1,0,0,0,0
0,9999,80,0,80,0,91,9999,0.100000,99,0,6.503945,0,5.000000,34.001042,9.973846,99,99,1,0,0,0,0
0,9999,81,0,81,0,40,9999,0.100000,99,0,0.000000,0,1.000000,28.836666,8.640180,99,99,0,0,0,0,0
0,9999,82,0,82,0,41,9999,0.100000,99,0,0.000000,0,4.000000,28.085353,19.760433,99,99,0,0,0,0,0
0,9999,83,0,83,0,94,9999,0.100000,99,0,72.830212,0,13.000000,26.896153,23.515962,99,99,1,0,0,0,0
0,9999,84,0,84,0,40,9999,0.100000,99,0,0.000000,0,1.000000,14.440721,4.666574,99,99,0,0,0,0,0
0,9999,85,0,85,0,40,9999,0.100000,99,0,0.000000,0,0.000000,31.286850,0.946610,99,99,0,0,0,0,0
0,9999,86,0,86,0,93,9999,0.100000,99,0,48.875460,0,8.000000,20.440307,18.944997,99,99,1,0,0,0,0
0,9999,87,0,87,0,41,9999,0.100000,99,0,0.000000,0,3.000000,23.050670,9.575678,99,99,0,0,0,0,0
0,9999,88,0,88,0,40,9999,0.100000,99,0,0.000000,0,0.000000,12.973214,0.953675,99,99,0,0,0,0,0
0,9999,89,0,89,0,41,9999,0.100000,99,0,0.000000,0,4.000000,31.001191,12.133233,99,99,0,0,0,0,0
0,9999,90,0,90,0,92,9999,0.100000,99,0,27.708126,0,6.000000,25.117209,15.917228,99,99,1,0,0,0,0
0,9999,91,0,91,0,90,9999,0.100000,99,0,19.568216,0,3.000000,28.564751,17.297477,99,99,1,0,0,0,0
0,9999,92,0,92,0,40,9999,0.100000,99,0,0.000000,0,1.000000,24.964291,9.050772,99,99,0,0,0,0,0
0,9999,93,0,93,0,92,9999,0.100000,99,0,9.643425,0,4.000000,16.447480,11.994858,99,99,1,0,0,0,0
0,9999,94,0,94,0,40,9999,0.100000,99,0,0.000000,0,2.000000,24.511375,6.022742,99,99,0,0,0,0,0
0,9999,95,0,95,0,40,9999,0.100000,99,0,0.000000,0,2.000000,27.532826,15.257997,99,99,0,0,0,0,0
0,9999,96,0,96,0,41,9999,0.100000,99,0,0.000000,0,3.000000,21.046266,9.940708,99,99,0,0,0,0,0
0,9999,97,0,97,0,0,9999,0.100000,99,0,1.893599,0,0.000000,22.448695,1.689241,99,99,0,0,0,1,0
0,9999,98,0,98,0,41,9999,0.100000,99,0,0.000000,0,2.000000,18.653323,11.519456,99,99,0,0,0,0,0
0,9999,99,0,99,0,40,9999,0.100000,99,0,0.000000,0,1.000000,24.326549,7.305247,99,99,0,0,0,0,0
1,19999,0,10000,0,0,40,9999,0.100000,99,0,0.000000,1,0.000000,17.913234,9.837442,99,99,0,0,0,0,0
1,19999,1,10000,87,0,40,9999,0.100000,99,0,0.000000,5,2.000000,30.410734,9.723039,99,99,0,0,0,0,0
1,19999,2,10000,0,0,0,9999,0.100000,99,0,0.885968,2,0.000000,21.229085,0.287976,99,99,0,1,0,0,0
1,19999,3,10000,1,0,40,9999,0.100000,99,0,0.000000,5,0.000000,28.354581,23.633266,99,99,0,0,0,0,0
1,19999,4,10000,2,0,40,9999,0.100000,99,0,0.000000,9,2.000000,29.529195,13.316401,99,99,0,0,0,0,0
1,19999,5,10000,87,0,0,9999,0.100000,99,0,0.588213,5,0.000000,19.633533,0.732499,99,99,0,1,0,0,0
1,19999,6,10000,58,0,42,9999,0.100000,99,0,0.000000,7,4.000000,16.729082,11.059143,99,99,0,0,0,0,0
1,19999,7,10000,7,0,40,9999,0.100000,99,0,0.000000,3,0.000000,27.124504,6.474000,99,99,0,0,0,0,0
1,19999,8,10000,79,0,40,9999,0.100000,99,0,0.000000,9,0.000000,27.594936,0.896872,99,99,0,0,0,0,0
1,19999,9,10000,87,0,40,9999,0.100000,99,0,0.000000,5,1.000000,25.955172,8.575383,99,99,0,0,0,0,0
1,19999,10,10000,30,0,0,9999,0.100000,99,0,0.002888,9,0.000000,26.729917,0.183984,99,99,0,0,0,1,0
1,19999,11,10000,5,0,40,9999,0.100000,99,0,0.000000,6,0.000000,25.273971,0.424722,99,99,0,0,0,0,0
1,19999,12,10000,39,0,94,9999,0.100000,99,0,48.128133,5,9.000000,18.737220,9.481427,99,99,1,0,0,0,0
1,19999,13,10000,2,0,41,9999,0.100000,99,0,0.000000,7,4.000000,32.742867,17.062484,99,99,0,0,0,0,0
1,19999,14,10000,83,0,0,9999,0.100000,99,0,0.374825,9,0.000000,27.194939,0.159457,99,99,0,0,0,0,1
1,19999,15,10000,7,0,40,9999,0.100000,99,0,0.000000,5,1.000000,29.032727,8.720624,99,99,0,0,0,0,0
1,19999,16,10000,87,0,40,9999,0.100000,99,0,0.000000,9,1.000000,18.059664,5.802536,99,99,0,0,0,0,0
1,19999,17,10000,39,0,40,9999,0.100000,99,0,0.000000,5,2.000000,31.743078,4.849226,99,99,0,0,0,0,0
1,19999,18,10000,30,0,40,9999,0.100000,99,0,0.000000,9,1.000000,27.164900,9.551734,99,99,0,0,0,0,0
1,19999,19,10000,7,0,40,9999,0.100000,99,0,0.000000,3,0.000000,31.317385,2.168891,99,99,0,0,0,0,0
1,19999,20,10000,30,0,0,9999,0.100000,99,0,0.543611,9,0.000000,24.901818,0.617244,99,99,0,0,0,0,1
1,19999,21,10000,7,0,0,9999,0.100000,99,0,12.111087,3,2.000000,30.825668,13.054232,99,99,0,1,0,0,0
1,19999,22,10000,2,0,40,9999,0.100000,99,0,0.000000,9,1.000000,21.678178,2.310062,99,99,0,0,0,0,0
1,19999,23,10000,23,0,40,9999,0.100000,99,0,0.000000,7,3.000000,29.700416,13.898231,99,99,0,0,0,0,0
1,19999,24,10000,58,0,40,9999,0.100000,99,0,0.000000,8,0.000000,25.229554,1.034321,99,99,0,0,0,0,0
1,19999,25,10000,1,0,40,9999,0.100000,99,0,0.000000,5,2.000000,29.260819,11.461709,99,99,0,0,0,0,0
1,19999,26,10000,91,0,1,9999,0.100000,99,0,0.047476,9,4.000000,26.051293,11.609848,99,99,0,0,0,0,1
1,19999,27,10000,7,0,40,9999,0.100000,99,0,0.000000,7,0.000000,26.018526,1.539002,99,99,0,0,0,0,0
1,19999,28,10000,7,0,40,9999,0.100000,99,0,0.000000,5,0.000000,27.026503,5.935809,99,99,0,0,0,0,0
1,19999,29,10000,29,0,0,9999,0.100000,99,0,0.001668,4,0.000000,25.205867,0.100315,99,99,0,0,0,1,0
1,19999,30,10000,87,0,40,9999,0.100000,99,0,0.000000,5,0.000000,34.784067,8.879340,99,99,-1,0,0,0,0
1,19999,31,10000,23,0,40,9999,0.100000,99,0,0.000000,9,2.000000,29.655140,13.830115,99,99,0,0,0,0,0
1,19999,32,10000,7,0,40,9999,0.100000,99,0,0.000000,8,1.000000,29.358227,8.108912,99,99,0,0,0,0,0
1,19999,33,10000,29,0,41,9999,0.100000,99,0,0.000000,4,5.000000,25.408172,9.260436,99,99,0,0,0,0,0
1,19999,34,10000,91,0,41,9999,0.100000,99,0,0.000000,9,5.000000,30.084126,16.456005,99,99,0,0,0,0,0
1,19999,35,10000,87,0,40,9999,0.100000,99,0,0.000000,4,3.000000,30.454153,11.746841,99,99,0,0,0,0,0
1,19999,36,10000,79,0,41,9999,0.100000,99,0,0.000000,8,2.000000,14.659471,3.844356,99,99,0,0,0,0,0
1,19999,37,10000,7,0,40,9999,0.100000,99,0,0.000000,5,1.000000,27.697402,1.375428,99,99,0,0,0,0,0
1,19999,38,10000,7,0,40,9999,0.100000,99,0,0.000000,8,0.000000,31.229041,6.260387,99,99,0,0,0,0,0
1,19999,39,10000,7,0,0,9999,0.100000,99,0,0.034183,4,0.000000,23.082661,0.173775,99,99,0,0,0,0,1
1,19999,40,10000,83,0,40,9999,0.100000,99,0,0.000000,9,1.000000,27.146026,7.160513,99,99,0,0,0,0,0
1,19999,41,10000,7,0,40,9999,0.100000,99,0,0.000000,8,2.000000,30.594445,10.112296,99,99,0,0,0,0,0
1,19999,42,10000,7,0,41,9999,0.100000,99,0,0.000000,5,5.000000,35.632982,18.019275,99,99,0,0,0,0,0
1,19999,43,10000,87,0,0,9999,0.100000,99,0,0.006348,9,0.000000,18.830691,0.167320,99,99,0,0,1,0,0
1,19999,44,10000,30,0,40,9999,0.100000,99,0,0.000000,9,2.000000,25.799377,5.360190,99,99,0,0,0,0,0
1,19999,45,10000,23,0,40,9999,0.100000,99,0,0.000000,8,2.000000,27.388097,11.517503,99,99,0,0,0,0,0
1,19999,46,10000,2,0,40,9999,0.100000,99,0,0.000000,4,3.000000,32.397166,16.166097,99,99,0,0,0,0,0
1,19999,47,10000,58,0,41,9999,0.100000,99,0,0.000000,7,4.000000,35.124963,10.379338,99,99,0,0,0,0,0
1,19999,48,10000,78,0,40,9999,0.100000,99,0,0.000000,10,2.000000,27.478579,10.821027,99,99,0,0,0,0,0
1,19999,49,10000,58,0,41,9999,0.100000,99,0,0.000000,9,3.000000,26.217114,10.717846,99,99,0,0,0,0,0
1,19999,50,10000,87,0,40,9999,0.100000,99,0,0.000000,8,0.000000,18.499315,5.964998,99,99,0,0,0,0,0
1,19999,51,10000,78,0,0,9999,0.100000,99,0,0.310020,9,0.000000,26.433555,0.910714,99,99,0,0,1,0,0
1,19999,52,10000,7,0,93,9999,0.100000,99,0,37.282056,9,8.000000,22.684791,21.640561,99,99,1,0,0,0,0
1,19999,53,10000,30,0,40,9999,0.100000,99,0,0.000000,7,0.000000,21.004310,0.558024,99,99,0,0,0,0,0
1,19999,54,10000,30,0,0,9999,0.100000,99,0,6.189263,5,1.000000,30.507649,6.251264,99,99,0,1,0,0,0
1,19999,55,10000,23,0,40,9999,0.100000,99,0,0.000000,7,0.000000,21.112274,3.015075,99,99,0,0,0,0,0
1,19999,56,10000,30,0,91,9999,0.100000,99,0,21.289654,9,4.000000,24.410855,5.306742,99,99,1,0,0,0,0
1,19999,57,10000,1,0,40,9999,0.100000,99,0,0.000000,5,0.000000,31.197829,1.317091,99,99,0,0,0,0,0
1,19999,58,10000,30,0,40,9999,0.100000,99,0,0.000000,6,1.000000,17.554175,3.609357,99,99,0,0,0,0,0
1,19999,59,10000,31,0,0,9999,0.100000,99,0,0.007087,9,0.000000,13.886593,0.147285,99,99,0,0,1,0,0
1,19999,60,10000,7,0,40,9999,0.100000,99,0,0.000000,7,1.000000,24.640459,16.173883,99,99,0,0,0,0,0
1,19999,61,10000,87,0,40,9999,0.100000,99,0,0.000000,5,0.000000,30.287978,0.137235,99,99,0,0,0,0,0
1,19999,62,10000,79,0,41,9999,0.100000,99,0,0.000000,7,4.000000,23.608712,10.068742,99,99,0,0,0,0,0
1,19999,63,10000,31,0,40,9999,0.100000,99,0,0.000000,9,0.000000,25.698996,0.407807,99,99,0,0,0,0,0
1,19999,64,10000,7,0,40,9999,0.100000,99,0,0.000000,7,2.000000,29.097574,19.461960,99,99,0,0,0,0,0
1,19999,65,10000,7,0,0,9999,0.100000,99,0,2.197838,5,0.000000,26.232019,1.445923,99,99,0,1,0,0,0
1,19999,66,10000,58,0,42,9999,0.065000,99,0,0.000000,9,7.000000,28.020357,16.169524,99,99,0,0,0,0,0
1,19999,67,10000,58,0,40,9999,0.100000,99,0,0.000000,6,0.000000,26.497831,3.090436,99,99,0,0,0,0,0
1,19999,68,10000,58,0,93,9999,0.100000,99,0,45.172983,6,10.000000,31.278892,15.650320,99,99,1,0,0,0,0
1,19999,69,10000,2,0,40,9999,0.100000,99,0,0.000000,9,2.000000,30.745002,14.407336,99,99,0,0,0,0,0
1,19999,70,10000,7,0,40,9999,0.100000,99,0,0.000000,7,3.000000,28.622227,10.362036,99,99,0,0,0,0,0
1,19999,71,10000,7,0,40,9999,0.100000,99,0,0.000000,9,0.000000,29.354064,6.809390,99,99,0,0,0,0,0
1,19999,72,10000,30,0,40,9999,0.100000,99,0,0.000000,7,0.000000,22.915500,0.099725,99,99,0,0,0,0,0
1,19999,73,10000,83,0,40,9999,0.100000,99,0,0.000000,9,1.000000,30.289057,12.701334,99,99,0,0,0,0,0
1,19999,74,10000,1,0,40,9999,0.100000,99,0,0.000000,5,3.000000,30.632427,12.575099,99,99,0,0,0,0,0
1,19999,75,10000,91,0,40,9999,0.100000,99,0,0.000000,9,0.000000,27.491310,2.191914,99,99,0,0,0,0,0
1,19999,76,10000,91,0,40,9999,0.100000,99,0,0.000000,9,1.000000,19.510044,5.318373,99,99,0,0,0,0,0
1,19999,77,10000,2,0,41,9999,0.100000,99,0,0.000000,9,3.000000,21.951727,10.968220,99,99,0,0,0,0,0
1,19999,78,10000,30,0,0,9999,0.100000,99,0,0.053093,9,0.000000,32.054807,0.816215,99,99,0,0,0,1,0
1,19999,79,10000,79,0,40,9999,0.100000,99,0,0.000000,7,0.000000,28.161872,5.376651,99,99,0,0,0,0,0
1,19999,80,10000,87,0,91,9999,0.100000,99,0,31.538423,9,6.000000,30.596501,17.831861,99,99,1,0,0,0,0
1,19999,81,10000,7,0,91,9999,0.100000,99,0,12.124922,5,6.000000,29.488311,15.938395,99,99,1,0,0,0,0
1,19999,82,10000,7,0,40,9999,0.100000,99,0,0.000000,7,2.000000,30.571385,10.626080,99,99,0,0,0,0,0
1,19999,83,10000,87,0,40,9999,0.100000,99,0,0.000000,8,1.000000,32.849644,15.223179,99,99,0,0,0,0,0
1,19999,84,10000,7,0,40,9999,0.100000,99,0,0.000000,5,1.000000,13.032119,2.658107,99,99,0,0,0,0,0
1,19999,85,10000,31,0,40,9999,0.100000,99,0,0.000000,10,0.000000,31.464947,1.129680,99,99,0,0,0,0,0
1,19999,86,10000,91,0,40,9999,0.100000,99,0,0.000000,10,2.000000,26.576111,13.151953,99,99,0,0,0,0,0
1,19999,87,10000,7,0,40,9999,0.100000,99,0,0.000000,3,0.000000,25.698733,5.723083,99,99,0,0,0,0,0
1,19999,88,10000,5,0,40,9999,0.100000,99,0,0.000000,7,0.000000,12.813225,0.639017,99,99,0,0,0,0,0
1,19999,89,10000,87,0,40,9999,0.100000,99,0,3.186764,8,1.000000,35.757427,11.968273,99,99,0,0,0,0,0
1,19999,90,10000,87,0,40,9999,0.100000,99,0,0.000000,8,3.000000,30.405949,13.155936,99,99,0,0,0,0,0
1,19999,91,10000,23,0,40,9999,0.100000,99,0,0.000000,9,2.000000,31.141897,9.928452,99,99,0,0,0,0,0
1,19999,92,10000,2,0,41,9999,0.100000,99,0,0.000000,7,4.000000,24.237914,10.530545,99,99,0,0,0,0,0
1,19999,93,10000,39,0,95,9999,0.100000,99,0,58.057836,5,11.000000,19.808398,16.902597,99,99,1,0,0,0,0
1,19999,94,10000,23,0,40,9999,0.100000,99,0,0.000000,9,0.000000,26.597291,12.618124,99,99,0,0,0,0,0
1,19999,95,10000,30,0,40,9999,0.100000,99,0,0.000000,9,1.000000,27.222075,7.738362,99,99,0,0,0,0,0
1,19999,96,10000,23,0,91,9999,0.100000,99,0,0.701210,10,4.000000,19.533927,6.525736,99,99,1,0,0,0,0
1,19999,97,10000,87,0,0,9999,0.100000,99,0,0.173202,7,0.000000,21.553693,0.315722,99,99,0,0,0,1,0
1,19999,98,10000,87,0,92,9999,0.100000,99,0,29.941497,7,6.000000,20.538928,11.538656,99,99,1,0,0,0,0
1,19999,99,10000,31,0,40,9999,0.100000,99,0,0.000000,9,1.000000,25.642883,6.815958,99,99,0,0,0,0,0
2,29999,0,20000,78,0,40,9999,0.100000,99,0,0.000000,10,1.000000,18.056909,4.516492,99,99,0,0,0,0,0
2,29999,1,20000,83,0,0,9999,0.100000,99,0,0.128893,10,1.000000,31.391124,2.032413,99,99,0,0,0,1,0
2,29999,2,20000,83,0,0,9999,0.100000,99,0,4.288260,10,0.000000,21.268231,0.737648,99,99,0,1,0,0,0
2,29999,3,20000,23,0,40,9999,0.100000,99,0,0.000000,10,0.000000,28.078104,23.819208,99,99,0,0,0,0,0
2,29999,4,20000,86,0,40,9999,0.100000,99,0,0.000000,10,0.000000,26.860481,8.059475,99,99,0,0,0,0,0
2,29999,5,20000,78,0,0,9999,0.100000,99,0,0.034228,10,0.000000,20.004129,0.257638,99,99,0,1,0,0,0
2,29999,6,20000,31,0,40,9999,0.100000,99,0,0.000000,10,0.000000,20.310248,9.366347,99,99,0,0,0,0,0
2,29999,7,20000,30,0,40,9999,0.100000,99,0,0.000000,10,0.000000,27.556986,5.808015,99,99,0,0,0,0,0
2,29999,8,20000,78,0,0,9999,0.100000,99,0,0.037462,10,0.000000,27.698155,0.080156,99,99,0,0,0,0,1
2,29999,9,20000,30,0,40,9999,0.100000,99,0,0.000000,10,2.000000,27.694992,10.630127,99,99,0,0,0,0,0
2,29999,10,20000,23,0,0,9999,0.100000,99,0,0.038487,10,0.000000,26.731433,0.236960,99,99,0,0,0,1,0
2,29999,11,20000,91,0,0,9999,0.100000,99,0,9.114670,10,0.000000,25.246775,2.894165,99,99,0,0,0,0,1
2,29999,12,20000,78,0,40,9999,0.100000,99,0,0.000000,10,2.000000,27.291927,6.927739,99,99,0,0,0,0,0
2,29999,13,20000,78,0,92,9999,0.100000,99,0,45.142003,10,7.000000,29.424228,19.984036,99,99,1,0,0,0,0
2,29999,14,20000,23,0,40,9999,0.100000,99,0,0.000000,10,0.000000,27.271229,0.082148,99,99,0,0,0,0,0
2,29999,15,20000,86,0,40,9999,0.100000,99,0,0.000000,10,3.000000,28.502340,13.207056,99,99,0,0,0,0,0
2,29999,16,20000,76,0,42,9999,0.100000,99,0,0.000000,10,5.000000,17.976099,12.719675,99,99,0,0,0,0,0
2,29999,17,20000,30,0,40,9999,0.100000,99,0,0.000000,10,1.000000,33.916105,6.013987,99,99,0,0,0,0,0
2,29999,18,20000,23,0,0,9999,0.100000,99,0,0.013806,10,1.000000,28.423408,8.935423,99,99,0,1,0,0,0
2,29999,19,20000,86,0,40,9999,0.100000,99,0,0.000000,10,1.000000,31.657502,3.074881,99,99,0,0,0,0,0
2,29999,20,20000,78,0,40,9999,0.100000,99,0,0.000000,10,1.000000,24.894678,3.224746,99,99,0,0,0,0,0
2,29999,21,20000,30,0,40,9999,0.100000,99,0,0.000000,10,1.000000,31.974634,2.709030,99,99,0,0,0,0,0
2,29999,22,20000,91,0,48,9999,0.100000,99,0,0.000000,10,19.000000,20.707646,20.791333,99,99,0,0,0,0,0
2,29999,23,20000,23,0,40,9999,0.100000,99,0,0.000000,10,3.000000,29.238843,10.405642,99,99,0,0,0,0,0
2,29999,24,20000,31,0,40,9999,0.100000,99,0,0.000000,10,0.000000,24.431878,0.992162,99,99,0,0,0,0,0
2,29999,25,20000,86,0,40,9999,0.100000,99,0,0.000000,10,1.000000,31.340483,13.083037,99,99,0,0,0,0,0
2,29999,26,20000,23,0,0,9999,0.100000,99,0,0.567622,10,0.000000,21.843738,0.212198,99,99,0,0,0,0,1
2,29999,27,20000,31,0,40,9999,0.100000,99,0,0.000000,10,0.000000,26.101869,5.718097,99,99,0,0,0,0,0
2,29999,28,20000,31,0,41,9999,0.100000,99,0,0.000000,10,5.000000,26.642323,9.569673,99,99,0,0,0,0,0
2,29999,29,20000,76,0,0,9999,0.100000,99,0,0.003238,10,0.000000,25.207410,0.235484,99,99,0,0,0,1,0
2,29999,30,20000,83,0,40,9999,0.100000,99,0,0.000000,10,3.000000,34.449541,16.797791,99,99,0,0,0,0,0
2,29999,31,20000,83,0,40,9999,0.100000,99,0,0.000000,10,2.000000,29.912447,13.220317,99,99,0,0,0,0,0
2,29999,32,20000,21,10000,40,9999,0.100000,99,0,0.000000,10,0.000000,28.249736,5.324760,99,99,0,0,0,0,0
2,29999,33,20000,76,0,40,9999,0.100000,99,0,0.000000,10,0.000000,22.388527,0.236001,99,99,0,0,0,0,0
2,29999,34,20000,30,0,40,9999,0.100000,99,0,0.000000,10,3.000000,32.797859,10.770231,99,99,0,0,0,0,0
2,29999,35,20000,86,0,41,9999,0.100000,99,0,0.000000,10,5.000000,30.590114,8.590858,99,99,0,0,0,0,0
2,29999,36,20000,86,0,40,9999,0.100000,99,0,0.000000,10,1.000000,12.510892,1.513306,99,99,0,0,0,0,0
2,29999,37,20000,79,0,40,9999,0.100000,99,0,0.000000,10,1.000000,26.391425,1.654150,99,99,0,0,0,0,0
2,29999,38,20000,76,0,41,9999,0.100000,99,0,0.000000,10,4.000000,31.530381,6.348953,99,99,0,0,0,0,0
2,29999,39,20000,31,0,0,9999,0.100000,99,0,0.083569,10,0.000000,23.097334,0.166916,99,99,0,0,0,0,1
2,29999,40,20000,91,0,40,9999,0.100000,99,0,0.000000,10,1.000000,28.754105,6.061629,99,99,0,0,0,0,0
2,29999,41,20000,86,0,40,9999,0.100000,99,0,0.000000,10,1.000000,30.107755,12.102549,99,99,0,0,0,0,0
2,29999,42,20000,31,0,40,9999,0.100000,99,0,0.000000,10,1.000000,32.498664,17.786404,99,99,0,0,0,0,0
2,29999,43,20000,54,10000,0,9999,0.100000,99,0,0.008138,10,0.000000,18.835020,0.142753,99,99,0,0,1,0,0
2,29999,44,20000,23,0,41,9999,0.100000,99,0,0.000000,10,3.000000,23.716560,12.094237,99,99,0,0,0,0,0
2,29999,45,20000,91,0,40,9999,0.100000,99,0,0.000000,10,0.000000,25.483890,3.778322,99,99,0,0,0,0,0
2,29999,46,20000,79,0,41,9999,0.100000,99,0,0.000000,10,4.000000,29.801340,9.265773,99,99,0,0,0,0,0
2,29999,47,20000,31,0,40,9999,0.100000,99,0,0.000000,10,1.000000,31.102663,9.157614,99,99,0,0,0,0,0
2,29999,48,20000,54,10000,40,9999,0.100000,99,0,0.000000,10,2.000000,27.633979,8.234679,99,99,0,0,0,0,0
2,29999,49,20000,76,0,40,9999,0.100000,99,0,0.000000,10,1.000000,29.391864,7.677378,99,99,0,0,0,0,0
2,29999,50,20000,76,0,42,9999,0.100000,99,0,0.000000,10,4.000000,18.645766,7.801621,99,99,0,0,0,0,0
2,29999,51,20000,76,0,0,9999,0.100000,99,0,0.418771,10,1.000000,26.583630,3.883351,99,99,0,0,1,0,0
2,29999,52,20000,23,0,90,9999,0.100000,99,0,10.676944,10,2.000000,31.319747,10.605442,99,99,1,0,0,0,0
2,29999,53,20000,2,0,40,9999,0.100000,99,0,0.000000,10,1.000000,20.927898,1.564979,99,99,0,0,0,0,0
2,29999,54,20000,30,0,40,9999,0.100000,99,0,0.000000,10,2.000000,31.630774,5.379975,99,99,0,0,0,0,0
2,29999,55,20000,21,10000,40,9999,0.100000,99,0,0.000000,10,0.000000,20.707910,0.840310,99,99,0,0,0,0,0
2,29999,56,20000,23,0,92,9999,0.100000,99,0,45.934455,10,8.000000,26.669495,10.984007,99,99,1,0,0,0,0
2,29999,57,20000,79,0,40,9999,0.100000,99,0,0.000000,10,0.000000,31.476176,0.926204,99,99,0,0,0,0,0
2,29999,58,20000,76,0,42,9999,0.100000,99,0,0.000000,10,4.000000,17.057102,7.255516,99,99,0,0,0,0,0
2,29999,59,20000,83,0,0,9999,0.100000,99,0,0.006568,10,0.000000,13.885796,0.146664,99,99,0,0,1,0,0
2,29999,60,20000,2,0,40,9999,0.100000,99,0,0.000000,10,1.000000,25.104835,3.338450,99,99,0,0,0,0,0
2,29999,61,20000,78,0,40,9999,0.100000,99,0,0.000000,10,0.000000,30.287559,0.130226,99,99,0,0,0,0,0
2,29999,62,20000,31,0,91,9999,0.100000,99,0,11.705743,10,4.000000,28.017443,14.550370,99,99,1,0,0,0,0
2,29999,63,20000,83,0,40,9999,0.100000,99,0,0.000000,10,0.000000,25.644442,4.970909,99,99,0,0,0,0,0
2,29999,64,20000,23,0,40,9999,0.100000,99,0,0.000000,10,2.000000,27.447780,17.551345,99,99,0,0,0,0,0
2,29999,65,20000,78,0,0,9999,0.100000,99,0,3.188392,10,0.000000,26.465442,2.244049,99,99,0,1,0,0,0
2,29999,66,20000,83,0,40,9999,0.100000,99,0,0.000000,10,1.000000,25.837684,3.361133,99,99,0,0,0,0,0
2,29999,67,20000,23,0,40,9999,0.100000,99,0,0.000000,10,1.000000,26.703841,6.939326,99,99,0,0,0,0,0
2,29999,68,20000,30,0,40,9999,0.100000,99,0,0.000000,10,2.000000,34.754249,13.481818,99,99,0,0,0,0,0
2,29999,69,20000,31,0,40,9999,0.100000,99,0,0.000000,10,2.000000,28.973866,9.606779,99,99,0,0,0,0,0
2,29999,70,20000,76,0,0,9999,0.100000,99,0,0.018589,10,2.000000,25.681778,5.241919,99,99,0,0,0,0,1
2,29999,71,20000,78,0,41,9999,0.100000,99,0,0.000000,10,4.000000,29.618834,14.482797,99,99,0,0,0,0,0
2,29999,72,20000,83,0,40,9999,0.100000,99,0,0.000000,10,0.000000,22.939670,0.075488,99,99,0,0,0,0,0
2,29999,73,20000,86,0,40,9999,0.100000,99,0,0.000000,10,1.000000,30.309368,11.031012,99,99,0,0,0,0,0
2,29999,74,20000,86,0,40,9999,0.100000,99,0,0.000000,10,0.000000,27.503157,5.115646,99,99,0,0,0,0,0
2,29999,75,20000,2,0,40,9999,0.100000,99,0,0.000000,10,0.000000,27.414401,1.469879,99,99,0,0,0,0,0
2,29999,76,20000,21,10000,40,9999,0.100000,99,0,0.000000,10,0.000000,21.169253,1.784660,99,99,0,0,0,0,0
2,29999,77,20000,78,0,41,9999,0.100000,99,0,0.000000,10,3.000000,25.449398,18.194034,99,99,0,0,0,0,0
2,29999,78,20000,30,0,40,9999,0.100000,99,0,0.000000,10,1.000000,32.332482,1.538227,99,99,0,0,0,0,0
2,29999,79,20000,76,0,41,9999,0.100000,99,0,0.000000,10,3.000000,28.245187,13.953871,99,99,-1,0,0,0,0
2,29999,80,20000,78,0,40,9999,0.100000,99,0,0.000000,10,1.000000,32.956598,12.803874,99,99,0,0,0,0,0
2,29999,81,20000,79,0,40,9999,0.100000,99,0,0.000000,10,3.000000,31.636381,6.305604,99,99,0,0,0,0,0
2,29999,82,20000,78,0,40,9999,0.100000,99,0,0.000000,10,2.000000,30.008685,11.999429,99,99,0,0,0,0,0
2,29999,83,20000,83,0,40,9999,0.100000,99,0,0.000000,10,1.000000,32.235048,15.750454,99,99,0,0,0,0,0
2,29999,84,20000,21,10000,0,9999,0.100000,99,0,3.089166,10,0.000000,13.467115,3.398537,99,99,0,0,0,1,0
2,29999,85,20000,91,0,41,9999,0.100000,99,0,0.000000,10,6.000000,31.774207,15.206235,99,99,-1,0,0,0,0
2,29999,86,20000,86,0,40,9999,0.100000,99,0,0.000000,10,3.000000,29.080463,14.170063,99,99,0,0,0,0,0
2,29999,87,20000,23,0,41,9999,0.100000,99,0,0.000000,10,5.000000,25.853876,16.503802,99,99,0,0,0,0,0
2,29999,88,20000,23,0,40,9999,0.100000,99,0,0.000000,10,1.000000,12.959527,2.644253,99,99,0,0,0,0,0
2,29999,89,20000,86,0,40,9999,0.100000,99,0,0.000000,10,2.000000,34.936168,20.758964,99,99,0,0,0,0,0
2,29999,90,20000,31,0,42,9999,0.100000,99,0,0.000000,10,6.000000,28.002073,16.292477,99,99,0,0,0,0,0
2,29999,91,20000,30,0,41,9999,0.100000,99,0,0.000000,10,4.000000,32.221352,9.993605,99,99,0,0,0,0,0
2,29999,92,20000,78,0,40,9999,0.100000,99,0,0.000000,10,0.000000,23.286405,0.359657,99,99,0,0,0,0,0
2,29999,93,20000,86,0,41,9999,0.100000,99,0,0.000000,10,4.000000,29.071117,12.620629,99,99,0,0,0,0,0
2,29999,94,20000,31,0,40,9999,0.100000,99,0,0.000000,10,1.000000,27.238161,3.517111,99,99,0,0,0,0,0
2,29999,95,20000,78,0,40,9999,0.100000,99,0,0.000000,10,1.000000,26.621995,3.176402,99,99,0,0,0,0,0
2,29999,96,20000,23,0,90,9999,0.100000,99,0,0.070792,10,0.000000,15.437422,0.588749,99,99,1,0,0,0,0
2,29999,97,20000,86,0,0,9999,0.100000,99,0,0.875453,10,0.000000,21.551852,0.329581,99,99,0,0,0,1,0
2,29999,98,20000,86,0,91,9999,0.100000,99,0,14.146017,10,3.000000,26.454128,6.158775,99,99,1,0,0,0,0
2,29999,99,20000,30,0,40,9999,0.100000,99,0,0.000000,10,2.000000,27.016234,4.022092,99,99,0,0,0,0,0
3,39999,0,30000,31,0,1,9999,0.100000,99,0,0.024651,10,3.000000,19.422690,4.019863,99,99,0,0,1,0,0
3,39999,1,30000,78,0,0,9999,0.100000,99,0,0.956804,10,2.000000,32.574279,2.915585,99,99,0,0,0,1,0
3,39999,2,30000,31,0,42,9999,0.100000,99,0,0.000000,10,5.000000,21.791138,11.339029,99,99,0,0,0,0,0
3,39999,3,30000,23,0,40,9999,0.100000,99,0,0.000000,11,0.000000,28.124704,23.791178,99,99,0,0,0,0,0
3,39999,4,30000,79,0,41,9999,0.100000,99,0,0.000000,11,3.000000,26.709925,7.485470,99,99,0,0,0,0,0
3,39999,5,30000,86,0,0,9999,0.100000,99,0,5.472677,10,0.000000,19.952476,1.476019,99,99,0,1,0,0,0
3,39999,6,30000,78,0,40,9999,0.100000,99,0,0.000000,11,1.000000,20.132865,7.253380,99,99,0,0,0,0,0
3,39999,7,30000,23,0,41,9999,0.100000,99,0,0.000000,10,4.000000,27.720773,22.065139,99,99,0,0,0,0,0
3,39999,8,30000,22,20000,0,9999,0.100000,99,0,0.105344,11,0.000000,27.705304,0.460397,99,99,0,0,0,0,1
3,39999,9,30000,30,0,41,9999,0.100000,99,0,0.000000,11,3.000000,27.986613,5.880083,99,99,0,0,0,0,0
3,39999,10,30000,78,0,0,9999,0.135000,99,0,0.009109,10,0.000000,26.783309,0.103960,99,99,0,0,0,1,0
3,39999,11,30000,23,0,40,9999,0.100000,99,0,0.000000,11,0.000000,25.993118,0.753205,99,99,0,0,0,0,0
3,39999,12,30000,83,0,40,9999,0.100000,99,0,0.000000,11,2.000000,27.267401,14.401433,99,99,0,0,0,0,0
3,39999,13,30000,31,0,40,9999,0.100000,99,0,0.000000,11,2.000000,32.924561,13.146954,99,99,0,0,0,0,0
3,39999,14,30000,31,0,40,9999,0.100000,99,0,0.000000,11,0.000000,27.280295,0.098353,99,99,0,0,0,0,0
3,39999,15,30000,83,0,40,9999,0.100000,99,0,0.000000,10,2.000000,27.023198,16.359032,99,99,0,0,0,0,0
3,39999,16,30000,30,0,40,9999,0.100000,99,0,0.000000,11,0.000000,19.784264,2.661682,99,99,0,0,0,0,0
3,39999,17,30000,31,0,40,9999,0.100000,99,0,0.000000,11,2.000000,33.370196,11.544509,99,99,0,0,0,0,0
3,39999,18,30000,30,0,0,9999,0.100000,99,0,0.096727,11,0.000000,29.094740,0.241595,99,99,0,1,0,0,0
3,39999,19,30000,30,0,40,9999,0.100000,99,0,0.000000,10,1.000000,32.727353,10.788193,99,99,0,0,0,0,0
3,39999,20,30000,23,0,0,9999,0.100000,99,0,0.564629,11,0.000000,25.704195,0.980070,99,99,0,0,0,0,1
3,39999,21,30000,23,0,40,9999,0.100000,99,0,0.000000,10,2.000000,32.951028,2.601733,99,99,0,0,0,0,0
3,39999,22,30000,21,10000,46,9999,0.100000,99,0,0.000000,11,20.000000,29.036415,25.726531,99,99,0,0,0,0,0
3,39999,23,30000,79,0,41,9999,0.065000,99,0,0.000000,11,4.000000,28.624466,10.130697,99,99,0,0,0,0,0
3,39999,24,30000,76,0,40,9999,0.100000,99,0,0.000000,10,0.000000,23.687147,1.008414,99,99,0,0,0,0,0
3,39999,25,30000,86,0,40,9999,0.100000,99,0,0.000000,11,1.000000,31.334316,8.426250,99,99,0,0,0,0,0
3,39999,26,30000,86,0,0,9999,0.100000,99,0,0.010791,11,0.000000,21.853093,0.183074,99,99,0,0,0,0,1
3,39999,27,30000,86,0,41,9999,0.100000,99,0,0.000000,10,4.000000,25.919627,10.252452,99,99,0,0,0,0,0
3,39999,28,30000,21,10000,40,9999,0.100000,99,0,0.000000,11,1.000000,26.246264,5.730169,99,99,0,0,0,0,0
3,39999,29,30000,31,0,0,9999,0.100000,99,0,0.001389,11,0.000000,25.209577,0.100077,99,99,0,0,0,1,0
3,39999,30,30000,21,10000,40,9999,0.100000,99,0,0.000000,11,1.000000,33.733555,8.145278,99,99,0,0,0,0,0
3,39999,31,30000,78,0,42,9999,0.100000,99,0,0.000000,11,7.000000,31.635487,22.410232,99,99,0,0,0,0,0
3,39999,32,30000,30,0,40,9999,0.100000,99,0,0.000000,11,1.000000,27.545839,8.831827,99,99,0,0,0,0,0
3,39999,33,30000,79,0,40,9999,0.100000,99,0,0.000000,11,0.000000,22.390648,0.236389,99,99,0,0,0,0,0
3,39999,34,30000,76,0,40,9999,0.100000,99,0,0.000000,11,2.000000,32.169815,3.812425,99,99,0,0,0,0,0
3,39999,35,30000,31,0,40,9999,0.100000,99,0,0.000000,11,0.000000,34.786796,0.230927,99,99,0,0,0,0,0
3,39999,36,30000,21,10000,0,9999,0.100000,99,0,0.394936,11,0.000000,13.601830,1.185688,99,99,0,0,0,1,0
3,39999,37,30000,23,0,40,9999,0.100000,99,0,0.000000,11,1.000000,24.853362,1.114053,99,99,0,0,0,0,0
3,39999,38,30000,21,10000,40,9999,0.100000,99,0,0.000000,11,2.000000,32.101809,4.286423,99,99,0,0,0,0,0
3,39999,39,30000,23,0,0,9999,0.100000,99,0,0.079580,10,0.000000,23.115114,0.202126,99,99,0,0,0,0,1
3,39999,40,30000,91,0,41,9999,0.100000,99,0,0.000000,11,5.000000,29.566521,12.125385,99,99,0,0,0,0,0
3,39999,41,30000,83,0,40,9999,0.100000,99,0,0.000000,11,2.000000,30.807197,13.956467,99,99,0,0,0,0,0
3,39999,42,30000,21,10000,40,9999,0.100000,99,0,0.000000,11,2.000000,32.806558,6.998809,99,99,0,0,0,0,0
3,39999,43,30000,91,0,0,9999,0.100000,99,0,0.002044,11,0.000000,18.829385,0.136425,99,99,0,0,1,0,0
3,39999,44,30000,76,0,40,9999,0.100000,99,0,0.000000,11,2.000000,26.448535,14.377470,99,99,0,0,0,0,0
3,39999,45,30000,23,0,40,9999,0.100000,99,0,0.000000,11,0.000000,26.321328,1.246731,99,99,0,0,0,0,0
3,39999,46,30000,21,10000,40,9999,0.100000,99,0,0.000000,11,2.000000,29.686226,10.246165,99,99,0,0,0,0,0
3,39999,47,30000,23,0,40,9999,0.100000,99,0,0.000000,11,2.000000,32.467793,8.624072,99,99,0,0,0,0,0
3,39999,48,30000,76,0,40,9999,0.100000,99,0,0.000000,11,1.000000,26.164475,13.103964,99,99,0,0,0,0,0
3,39999,49,30000,22,20000,40,9999,0.100000,99,0,0.000000,11,1.000000,28.121478,8.621356,99,99,0,0,0,0,0
3,39999,50,30000,83,0,41,9999,0.100000,99,0,0.000000,10,3.000000,17.355861,6.252413,99,99,0,0,0,0,0
3,39999,51,30000,83,0,1,9999,0.100000,99,0,18.424328,11,3.000000,27.407814,8.152669,99,99,0,0,1,0,0
3,39999,52,30000,21,10000,42,9999,0.100000,99,0,0.000000,11,7.000000,31.009718,15.489446,99,99,0,0,0,0,0
3,39999,53,30000,23,0,2,9999,0.100000,99,0,0.720500,11,5.000000,22.072673,7.226410,99,99,0,1,0,0,0
3,39999,54,30000,21,10000,40,9999,0.100000,99,0,0.000000,11,3.000000,30.775681,9.280360,99,99,0,0,0,0,0
3,39999,55,30000,76,0,40,9999,0.100000,99,0,0.000000,10,0.000000,20.236666,1.183879,99,99,0,0,0,0,0
3,39999,56,30000,30,0,40,9999,0.100000,99,0,0.000000,11,2.000000,32.328878,6.665464,99,99,0,0,0,0,0
3,39999,57,30000,91,0,40,9999,0.100000,99,0,0.000000,10,0.000000,31.755484,0.948851,99,99,0,0,0,0,0
3,39999,58,30000,23,0,40,9999,0.100000,99,0,0.000000,11,1.000000,13.846183,1.544620,99,99,0,0,0,0,0
3,39999,59,30000,21,10000,0,9999,0.100000,99,0,0.006299,11,0.000000,13.884815,0.145839,99,99,0,0,1,0,0
3,39999,60,30000,76,0,40,9999,0.100000,99,0,0.000000,11,0.000000,25.878637,0.907484,99,99,0,0,0,0,0
3,39999,61,30000,78,0,40,9999,0.100000,99,0,0.000000,11,0.000000,30.287328,0.134259,99,99,0,0,0,0,0
3,39999,62,30000,21,10000,40,9999,0.100000,99,0,0.000000,11,2.000000,28.451028,7.006758,99,99,0,0,0,0,0
3,39999,63,30000,91,0,40,9999,0.100000,99,0,0.000000,11,0.000000,26.169618,1.152326,99,99,0,0,0,0,0
3,39999,64,30000,78,0,1,9999,0.100000,99,0,18.424413,10,3.000000,27.546015,6.837278,99,99,0,0,1,0,0
3,39999,65,30000,91,0,40,9999,0.100000,99,0,0.000000,11,0.000000,26.015770,12.999112,99,99,0,0,0,0,0
3,39999,66,30000,31,0,40,9999,0.100000,99,0,0.000000,11,1.000000,25.437571,4.864047,99,99,0,0,0,0,0
3,39999,67,30000,78,0,40,9999,0.100000,99,0,0.000000,11,1.000000,27.530154,16.312716,99,99,0,0,0,0,0
3,39999,68,30000,30,0,40,9999,0.100000,99,0,0.000000,11,1.000000,33.510453,14.911781,99,99,0,0,0,0,0
3,39999,69,30000,23,0,40,9999,0.100000,99,0,0.000000,11,3.000000,30.977784,10.391026,99,99,0,0,0,0,0
3,39999,70,30000,83,0,0,9999,0.100000,99,0,0.012098,10,0.000000,24.258724,0.103977,99,99,0,0,0,0,1
3,39999,71,30000,30,0,40,9999,0.100000,99,0,0.000000,11,1.000000,27.686395,5.572114,99,99,0,0,0,0,0
3,39999,72,30000,78,0,40,9999,0.100000,99,0,0.000000,11,0.000000,22.954907,0.129800,99,99,0,0,0,0,0
3,39999,73,30000,78,0,40,9999,0.100000,99,0,0.000000,11,3.000000,30.312085,8.105981,99,99,0,0,0,0,0
3,39999,74,30000,91,0,40,9999,0.100000,99,0,0.000000,11,0.000000,27.496567,1.923409,99,99,0,0,0,0,0
3,39999,75,30000,23,0,40,9999,0.100000,99,0,0.000000,10,0.000000,27.585437,0.254726,99,99,0,0,0,0,0
3,39999,76,30000,22,20000,0,9999,0.100000,99,0,0.025142,11,0.000000,21.094157,1.487247,99,99,0,0,0,1,0
3,39999,77,30000,21,10000,41,9999,0.100000,99,0,0.000000,11,3.000000,25.920530,11.482144,99,99,0,0,0,0,0
3,39999,78,30000,86,0,40,9999,0.100000,99,0,0.000000,11,2.000000,33.136261,2.663487,99,99,0,0,0,0,0
3,39999,79,30000,78,0,41,9999,0.100000,99,0,0.000000,10,5.000000,28.556252,8.754053,99,99,0,0,0,0,0
3,39999,80,30000,83,0,42,9999,0.100000,99,0,0.000000,10,7.000000,32.423955,36.294205,99,99,0,0,0,0,0
3,39999,81,30000,86,0,40,9999,0.100000,99,0,0.000000,10,2.000000,28.037702,5.041396,99,99,0,0,0,0,0
3,39999,82,30000,22,20000,40,9999,0.100000,99,0,0.000000,11,3.000000,30.213391,12.963537,99,99,0,0,0,0,0
3,39999,83,30000,83,0,41,9999,0.100000,99,0,0.000000,10,6.000000,32.709521,15.403819,99,99,0,0,0,0,0
3,39999,84,30000,83,0,40,9999,0.100000,99,0,0.000000,11,0.000000,13.461738,1.033954,99,99,0,0,0,0,0
3,39999,85,30000,30,0,41,9999,0.100000,99,0,0.000000,11,5.000000,31.100742,10.050113,99,99,0,0,0,0,0
3,39999,86,30000,22,20000,40,9999,0.100000,99,0,0.000000,11,1.000000,26.531384,11.929989,99,99,0,0,0,0,0
3,39999,87,30000,83,0,40,9999,0.100000,99,0,0.000000,10,2.000000,23.300120,17.682398,99,99,0,0,0,0,0
3,39999,88,30000,86,0,40,9999,0.100000,99,0,0.000000,11,1.000000,13.695815,1.325480,99,99,0,0,0,0,0
3,39999,89,30000,30,0,40,9999,0.100000,99,0,0.000000,11,2.000000,33.885164,15.618021,99,99,0,0,0,0,0
3,39999,90,30000,79,0,41,9999,0.100000,99,0,0.000000,11,3.000000,27.272726,12.485130,99,99,0,0,0,0,0
3,39999,91,30000,91,0,40,9999,0.100000,99,0,0.000000,11,1.000000,30.841607,8.303596,99,99,0,0,0,0,0
3,39999,92,30000,22,20000,40,9999,0.100000,99,0,0.000000,11,0.000000,23.303556,0.341830,99,99,0,0,0,0,0
3,39999,93,30000,79,0,41,9999,0.100000,99,0,0.000000,11,3.000000,27.201419,17.082331,99,99,0,0,0,0,0
3,39999,94,30000,21,10000,40,9999,0.100000,99,0,0.000000,11,2.000000,28.140248,4.612602,99,99,0,0,0,0,0
3,39999,95,30000,79,0,0,9999,0.100000,99,0,0.981737,11,0.000000,25.850648,0.950828,99,99,0,1,0,0,0
3,39999,96,30000,86,0,90,9999,0.100000,99,0,0.037247,11,0.000000,15.467992,0.579604,99,99,1,0,0,0,0
3,39999,97,30000,79,0,40,9999,0.100000,99,0,0.000000,11,0.000000,21.394300,0.593861,99,99,0,0,0,0,0
3,39999,98,30000,22,20000,90,9999,0.100000,99,0,6.148451,11,1.000000,29.574108,11.226661,99,99,1,0,0,0,0
3,39999,99,30000,86,0,1,9999,0.100000,99,0,18.424413,11,3.000000,27.691314,7.680598,99,99,0,0,1,0,0
4,49999,0,40000,86,0,0,9999,0.100000,99,0,0.008564,11,0.000000,17.802096,0.126083,99,99,0,0,1,0,0
4,49999,1,40000,79,0,40,9999,0.100000,99,0,0.000000,11,2.000000,34.269627,11.594252,99,99,0,0,0,0,0
4,49999,2,40000,21,10000,40,9999,0.100000,99,0,0.000000,11,1.000000,23.806087,9.606817,99,99,0,0,0,0,0
4,49999,3,40000,31,0,40,9999,0.100000,99,0,0.000000,11,0.000000,28.261635,23.672670,99,99,0,0,0,0,0
4,49999,4,40000,30,0,40,9999,0.100000,99,0,0.000000,11,0.000000,30.419139,5.965121,99,99,0,0,0,0,0
4,49999,5,40000,83,0,0,9999,0.100000,99,0,1.432030,11,0.000000,20.817241,0.425310,99,99,0,1,0,0,0
4,49999,6,40000,31,0,40,9999,0.100000,99,0,0.000000,11,1.000000,20.521913,12.375115,99,99,0,0,0,0,0
4,49999,7,40000,78,0,0,9999,0.100000,99,0,3.116504,11,1.000000,24.487175,4.418032,99,99,0,1,0,0,0
4,49999,8,40000,64,30000,40,9999,0.100000,99,0,0.000000,11,0.000000,27.779014,0.459268,99,99,0,0,0,0,0
4,49999,9,40000,30,0,40,9999,0.100000,99,0,0.000000,11,1.000000,25.569537,3.326907,99,99,0,0,0,0,0
4,49999,10,40000,76,0,0,9999,0.100000,99,0,0.006299,11,0.000000,26.782763,0.098395,99,99,0,0,0,1,0
4,49999,11,40000,30,0,0,9999,0.100000,99,0,1.254142,11,0.000000,26.195049,0.602946,99,99,0,0,0,0,1
4,49999,12,40000,86,0,40,9999,0.100000,99,0,0.000000,11,1.000000,27.148488,11.473458,99,99,0,0,0,0,0
4,49999,13,40000,79,0,40,9999,0.100000,99,0,0.000000,11,1.000000,32.058767,6.787826,99,99,0,0,0,0,0
4,49999,14,40000,64,30000,0,9999,0.100000,99,0,0.106775,12,0.000000,27.305793,0.093301,99,99,0,0,0,0,1
4,49999,15,40000,31,0,40,9999,0.100000,99,0,0.000000,12,1.000000,26.325443,13.819981,99,99,0,0,0,0,0
4,49999,16,40000,64,30000,40,9999,0.100000,99,0,0.000000,12,0.000000,20.760590,0.502502,99,99,0,0,0,0,0
4,49999,17,40000,76,0,40,9999,0.100000,99,0,0.000000,11,1.000000,31.626234,6.184713,99,99,0,0,0,0,0
4,49999,18,40000,78,0,0,9999,0.100000,99,0,0.077228,12,0.000000,29.094381,1.332156,99,99,0,1,0,0,0
4,49999,19,40000,31,0,40,9999,0.100000,99,0,0.000000,11,3.000000,33.854414,9.871509,99,99,0,0,0,0,0
4,49999,20,40000,76,0,40,9999,0.100000,99,0,0.000000,11,0.000000,25.960500,0.526069,99,99,0,0,0,0,0
4,49999,21,40000,76,0,0,9999,0.100000,99,0,0.305738,11,1.000000,34.482335,3.905988,99,99,0,0,0,1,0
4,49999,22,40000,83,0,40,9999,0.100000,99,0,0.000000,12,0.000000,20.596332,1.800185,99,99,0,0,0,0,0
4,49999,23,40000,79,0,40,9999,0.100000,99,0,0.000000,11,1.000000,28.172741,7.435784,99,99,0,0,0,0,0
4,49999,24,40000,86,0,40,9999,0.100000,99,0,0.000000,11,0.000000,22.901617,1.013971,99,99,0,0,0,0,0
4,49999,25,40000,80,30000,40,9999,0.100000,99,0,0.000000,12,3.000000,31.563289,10.332249,99,99,0,0,0,0,0
4,49999,26,40000,78,0,0,9999,0.100000,99,0,0.008879,11,0.000000,21.854131,0.207310,99,99,0,0,0,0,1
4,49999,27,40000,23,0,40,9999,0.100000,99,0,0.000000,11,2.000000,29.829064,3.887861,99,99,0,0,0,0,0
4,49999,28,40000,83,0,41,9999,0.100000,99,0,0.000000,11,4.000000,26.370701,9.428678,99,99,0,0,0,0,0
4,49999,29,40000,80,30000,0,9999,0.100000,99,0,0.002015,12,0.000000,25.210997,0.098452,99,99,0,0,0,1,0
4,49999,30,40000,86,0,40,9999,0.100000,99,0,0.000000,11,2.000000,34.684826,3.567898,99,99,0,0,0,0,0
4,49999,31,40000,86,0,40,9999,0.100000,99,0,0.000000,11,3.000000,32.939049,11.355107,99,99,0,0,0,0,0
4,49999,32,40000,30,0,40,9999,0.100000,99,0,0.000000,11,1.000000,27.889224,8.199589,99,99,0,0,0,0,0
4,49999,33,40000,31,0,40,9999,0.100000,99,0,0.000000,11,0.000000,22.392817,0.239565,99,99,0,0,0,0,0
4,49999,34,40000,21,10000,40,9999,0.100000,99,0,0.000000,11,1.000000,31.335160,3.478581,99,99,0,0,0,0,0
4,49999,35,40000,83,0,40,9999,0.100000,99,0,0.000000,11,0.000000,34.787863,0.241218,99,99,0,0,0,0,0
4,49999,36,40000,91,0,0,9999,0.100000,99,0,2.990935,11,0.000000,14.331045,0.902787,99,99,0,0,0,1,0
4,49999,37,40000,83,0,40,9999,0.100000,99,0,0.000000,11,1.000000,23.858180,1.204545,99,99,0,0,0,0,0
4,49999,38,40000,79,0,40,9999,0.100000,99,0,0.000000,11,1.000000,31.360575,4.317292,99,99,0,0,0,0,0
4,49999,39,40000,78,0,0,9999,0.100000,99,0,0.398408,11,1.000000,23.249601,1.628664,99,99,0,0,0,0,1
4,49999,40,40000,78,0,41,9999,0.100000,99,0,0.000000,11,5.000000,30.464897,19.393178,99,99,0,0,0,0,0
4,49999,41,40000,30,0,40,9999,0.100000,99,0,0.000000,11,1.000000,32.206445,6.831088,99,99,0,0,0,0,0
4,49999,42,40000,76,0,40,9999,0.100000,99,0,0.000000,11,3.000000,30.913660,10.710332,99,99,0,0,0,0,0
4,49999,43,40000,79,0,0,9999,0.100000,99,0,0.005478,11,0.000000,18.825438,0.133376,99,99,0,0,1,0,0
4,49999,44,40000,79,0,40,9999,0.100000,99,0,0.000000,11,2.000000,28.502756,9.715018,99,99,0,0,0,0,0
4,49999,45,40000,30,0,40,9999,0.100000,99,0,0.000000,12,0.000000,26.463401,0.811130,99,99,0,0,0,0,0
4,49999,46,40000,83,0,41,9999,0.100000,99,0,0.000000,11,3.000000,26.871211,9.723146,99,99,0,0,0,0,0
4,49999,47,40000,31,0,40,9999,0.100000,99,0,0.000000,12,1.000000,31.865746,7.527913,99,99,0,0,0,0,0
4,49999,48,40000,91,0,40,9999,0.100000,99,0,0.000000,12,1.000000,25.514124,8.428354,99,99,0,0,0,0,0
4,49999,49,40000,86,0,40,9999,0.100000,99,0,0.000000,11,0.000000,29.357841,5.110446,99,99,0,0,0,0,0
4,49999,50,40000,83,0,40,9999,0.100000,99,0,0.000000,12,0.000000,20.788216,0.840563,99,99,0,0,0,0,0
4,49999,51,40000,30,0,40,9999,0.100000,99,0,0.000000,11,2.000000,30.230698,15.558565,99,99,0,0,0,0,0
4,49999,52,40000,22,20000,40,9999,0.100000,99,0,0.000000,11,1.000000,26.616124,11.533687,99,99,0,0,0,0,0
4,49999,53,40000,79,0,40,9999,0.100000,99,0,0.000000,12,1.000000,23.894083,1.798922,99,99,0,0,0,0,0
4,49999,54,40000,22,20000,40,9999,0.100000,99,0,0.000000,11,1.000000,27.906664,6.584109,99,99,0,0,0,0,0
4,49999,55,40000,31,0,40,9999,0.100000,99,0,0.000000,11,0.000000,20.817872,1.052836,99,99,0,0,0,0,0
4,49999,56,40000,76,0,40,9999,0.100000,99,0,0.000000,12,1.000000,31.198829,9.286536,99,99,0,0,0,0,0
4,49999,57,40000,30,0,40,9999,0.100000,99,0,0.000000,11,0.000000,32.055541,0.902358,99,99,0,0,0,0,0
4,49999,58,40000,64,30000,40,9999,0.100000,99,0,0.000000,11,0.000000,14.721137,1.217804,99,99,0,0,0,0,0
4,49999,59,40000,30,0,0,9999,0.100000,99,0,0.007331,11,0.000000,13.885118,0.147002,99,99,0,0,1,0,0
4,49999,60,40000,30,0,40,9999,0.100000,99,0,0.000000,11,0.000000,26.107756,0.659089,99,99,0,0,0,0,0
4,49999,61,40000,22,20000,40,9999,0.100000,99,0,0.000000,11,0.000000,30.287239,0.134909,99,99,0,0,0,0,0
4,49999,62,40000,64,30000,40,9999,0.135000,99,0,0.000000,12,1.000000,26.008599,7.505276,99,99,0,0,0,0,0
4,49999,63,40000,86,0,40,9999,0.100000,99,0,0.000000,12,0.000000,26.341616,0.986353,99,99,0,0,0,0,0
4,49999,64,40000,79,0,40,9999,0.100000,99,0,0.000000,11,2.000000,30.474302,9.348315,99,99,0,0,0,0,0
4,49999,65,40000,86,0,0,9999,0.100000,99,0,1.522852,12,0.000000,26.799926,0.835991,99,99,0,1,0,0,0
4,49999,66,40000,76,0,40,9999,0.100000,99,0,0.000000,11,2.000000,25.487000,12.766041,99,99,0,0,0,0,0
4,49999,67,40000,76,0,41,9999,0.100000,99,0,0.000000,12,3.000000,27.803737,8.133778,99,99,0,0,0,0,0
4,49999,68,40000,30,0,40,9999,0.100000,99,0,0.000000,11,0.000000,33.562537,7.185186,99,99,0,0,0,0,0
4,49999,69,40000,91,0,40,9999,0.100000,99,0,0.000000,11,0.000000,34.745534,3.207443,99,99,0,0,0,0,0
4,49999,70,40000,64,30000,0,9999,0.100000,99,0,0.045463,12,0.000000,24.256230,0.134757,99,99,0,0,0,0,1
4,49999,71,40000,83,0,40,9999,0.100000,99,0,0.000000,11,2.000000,28.996039,6.993322,99,99,0,0,0,0,0
4,49999,72,40000,86,0,40,9999,0.100000,99,0,0.000000,11,1.000000,23.044945,1.693266,99,99,0,0,0,0,0
4,49999,73,40000,83,0,40,9999,0.100000,99,0,0.000000,12,1.000000,31.990922,15.327034,99,99,0,0,0,0,0
4,49999,74,40000,79,0,40,9999,0.100000,99,0,0.000000,11,0.000000,27.635664,1.651855,99,99,0,0,0,0,0
4,49999,75,40000,22,30000,40,9999,0.100000,99,0,0.000000,12,0.000000,27.644646,0.123125,99,99,0,0,0,0,0
4,49999,76,40000,91,0,0,9999,0.100000,99,0,0.088040,12,0.000000,20.633986,0.522697,99,99,0,0,0,1,0
4,49999,77,40000,23,0,41,9999,0.100000,99,0,0.000000,12,3.000000,24.355455,24.661015,99,99,0,0,0,0,0
4,49999,78,40000,83,0,43,9999,0.100000,99,0,0.000000,11,14.000000,34.578996,22.711131,99,99,0,0,0,0,0
4,49999,79,40000,83,0,40,9999,0.100000,99,0,0.000000,11,0.000000,24.324979,0.084281,99,99,0,0,0,0,0
4,49999,80,40000,30,0,40,9999,0.100000,99,0,0.000000,12,0.000000,33.159479,2.479808,99,99,0,0,0,0,0
4,49999,81,40000,78,0,40,9999,0.100000,99,0,0.000000,12,0.000000,26.860319,1.216195,99,99,0,0,0,0,0
4,49999,82,40000,83,0,40,9999,0.100000,99,0,0.000000,12,2.000000,28.737267,6.232143,99,99,0,0,0,0,0
4,49999,83,40000,76,0,40,9999,0.100000,99,0,0.000000,11,0.000000,32.353192,0.621459,99,99,0,0,0,0,0
4,49999,84,40000,64,30000,40,9999,0.100000,99,0,0.000000,12,0.000000,14.113383,1.000447,99,99,0,0,0,0,0
4,49999,85,40000,30,0,40,9999,0.100000,99,0,0.000000,11,2.000000,34.379939,10.316546,99,99,0,0,0,0,0
4,49999,86,40000,30,0,40,9999,0.100000,99,0,0.000000,12,0.000000,26.092056,3.516632,99,99,0,0,0,0,0
4,49999,87,40000,76,0,41,9999,0.100000,99,0,0.000000,11,3.000000,24.008742,24.046980,99,99,0,0,0,0,0
4,49999,88,40000,78,0,40,9999,0.100000,99,0,0.000000,12,0.000000,14.521552,1.080780,99,99,0,0,0,0,0
4,49999,89,40000,76,0,40,9999,0.100000,99,0,0.000000,11,2.000000,35.488435,8.272818,99,99,0,0,0,0,0
4,49999,90,40000,30,0,41,9999,0.100000,99,0,0.000000,11,3.000000,25.837574,8.376212,99,99,0,0,0,0,0
4,49999,91,40000,80,30000,40,9999,0.100000,99,0,0.000000,12,0.000000,30.985950,5.909706,99,99,0,0,0,0,0
4,49999,92,40000,30,0,40,9999,0.100000,99,0,0.000000,12,1.000000,23.461232,1.709036,99,99,0,0,0,0,0
4,49999,93,40000,78,0,40,9999,0.100000,99,0,0.000000,11,0.000000,25.823856,0.547538,99,99,0,0,0,0,0
4,49999,94,40000,91,0,40,9999,0.100000,99,0,0.000000,11,0.000000,26.801586,1.217218,99,99,0,0,0,0,0
4,49999,95,40000,78,0,40,9999,0.100000,99,0,0.000000,12,0.000000,26.022182,1.277677,99,99,0,0,0,0,0
4,49999,96,40000,83,0,90,9999,0.100000,99,0,1.239395,11,0.000000,15.501343,0.655315,99,99,1,0,0,0,0
4,49999,97,40000,23,0,40,9999,0.100000,99,0,0.000000,11,0.000000,21.038212,0.200940,99,99,0,0,0,0,0
4,49999,98,40000,23,0,90,9999,0.100000,99,0,5.641490,12,1.000000,30.078857,18.723167,99,99,1,0,0,0,0
4,49999,99,40000,91,0,40,9999,0.100000,99,0,0.000000,12,1.000000,30.947293,7.118060,99,99,0,0,0,0,0
5,59999,0,50000,22,30000,0,9999,0.100000,99,0,0.006370,12,0.000000,17.800640,0.123792,99,99,0,0,1,0,0
5,59999,1,50000,30,0,40,9999,0.100000,99,0,0.000000,12,1.000000,31.566921,6.502007,99,99,0,0,0,0,0
5,59999,2,50000,80,30000,40,9999,0.100000,99,0,0.000000,12,1.000000,24.492779,5.594127,99,99,0,0,0,0,0
5,59999,3,50000,23,0,0,9999,0.100000,99,0,0.059767,12,1.000000,28.349045,10.283776,99,99,0,0,0,0,1
5,59999,4,50000,23,0,40,9999,0.100000,99,0,0.000000,13,3.000000,30.343845,7.310331,99,99,0,0,0,0,0
5,59999,5,50000,83,0,0,9999,0.100000,99,0,1.883664,13,0.000000,21.094857,0.755223,99,99,0,1,0,0,0
5,59999,6,50000,22,30000,40,9999,0.100000,99,0,0.000000,12,2.000000,19.718275,8.444869,99,99,0,0,0,0,0
5,59999,7,50000,31,0,0,9999,0.100000,99,0,2.687917,13,0.000000,24.641556,2.252859,99,99,0,1,0,0,0
5,59999,8,50000,86,0,40,9999,0.100000,99,0,0.000000,12,0.000000,27.850660,0.690757,99,99,0,0,0,0,0
5,59999,9,50000,78,0,1,9999,0.100000,99,0,0.013421,13,3.000000,24.600388,9.042190,99,99,0,0,0,1,0
5,59999,10,50000,86,0,0,9999,0.100000,99,0,0.008246,12,0.000000,26.782575,0.102176,99,99,0,0,0,1,0
5,59999,11,50000,78,0,0,9999,0.100000,99,0,0.877980,13,0.000000,25.978199,0.578045,99,99,0,0,0,0,1
5,59999,12,50000,78,0,40,9999,0.100000,99,0,0.000000,13,1.000000,27.292333,10.509239,99,99,0,0,0,0,0
5,59999,13,50000,31,0,40,9999,0.100000,99,0,0.000000,12,2.000000,31.195788,13.107629,99,99,0,0,0,0,0
5,59999,14,50000,86,0,40,9999,0.100000,99,0,0.000000,13,0.000000,27.332048,0.303664,99,99,0,0,0,0,0
5,59999,15,50000,78,40000,40,9999,0.100000,99,0,0.000000,13,1.000000,25.159293,4.054542,99,99,0,0,0,0,0
5,59999,16,50000,80,30000,40,9999,0.100000,99,0,0.000000,13,0.000000,21.041088,2.106903,99,99,0,0,0,0,0
5,59999,17,50000,78,0,40,9999,0.100000,99,0,0.000000,13,3.000000,31.463922,8.576090,99,99,0,0,0,0,0
5,59999,18,50000,80,30000,0,9999,0.100000,99,0,5.076157,13,3.000000,29.272631,12.350592,99,99,0,1,0,0,0
5,59999,19,50000,23,0,40,9999,0.100000,99,0,0.000000,13,2.000000,32.027893,7.936923,99,99,0,0,0,0,0
5,59999,20,50000,86,0,40,9999,0.100000,99,0,0.000000,13,0.000000,25.740475,3.315098,99,99,0,0,0,0,0
5,59999,21,50000,79,0,40,9999,0.100000,99,0,0.000000,13,0.000000,34.435334,0.394898,99,99,0,0,0,0,0
5,59999,22,50000,79,0,40,9999,0.065000,99,0,0.000000,12,0.000000,20.691831,2.453440,99,99,0,0,0,0,0
5,59999,23,50000,22,20000,41,9999,0.100000,99,0,0.000000,13,4.000000,29.245096,11.008027,99,99,0,0,0,0,0
5,59999,24,50000,30,0,40,9999,0.100000,99,0,0.000000,13,0.000000,22.141382,0.678854,99,99,0,0,0,0,0
5,59999,25,50000,78,40000,90,9999,0.100000,99,0,13.630621,13,3.000000,32.128594,11.224212,99,99,1,0,0,0,0
5,59999,26,50000,83,0,40,9999,0.100000,99,0,0.000000,13,0.000000,21.852041,0.294739,99,99,0,0,0,0,0
5,59999,27,50000,86,0,40,9999,0.100000,99,0,0.000000,12,0.000000,30.510525,2.418850,99,99,0,0,0,0,0
5,59999,28,50000,91,0,40,9999,0.100000,99,0,0.000000,13,3.000000,28.536260,12.758529,99,99,0,0,0,0,0
5,59999,29,50000,78,0,0,9999,0.100000,99,0,0.001389,12,0.000000,25.212544,0.098382,99,99,0,0,0,1,0
5,59999,30,50000,79,0,0,9999,0.100000,99,0,1.115806,13,0.000000,34.620234,0.394012,99,99,0,0,0,1,0
5,59999,31,50000,22,20000,40,9999,0.100000,99,0,0.000000,12,3.000000,29.652218,9.403981,99,99,0,0,0,0,0
5,59999,32,50000,78,40000,40,9999,0.100000,99,0,0.000000,13,0.000000,28.119948,6.686187,99,99,0,0,0,0,0
5,59999,33,50000,78,0,40,9999,0.100000,99,0,0.000000,13,0.000000,22.393544,0.237974,99,99,0,0,0,0,0
5,59999,34,50000,99,30000,40,9999,0.100000,99,0,0.000000,13,1.000000,30.698543,3.773007,99,99,0,0,0,0,0
5,59999,35,50000,86,0,40,9999,0.100000,99,0,0.000000,13,0.000000,34.788430,0.228470,99,99,0,0,0,0,0
5,59999,36,50000,83,0,0,9999,0.100000,99,0,7.205186,12,1.000000,14.047553,1.600752,99,99,0,0,0,1,0
5,59999,37,50000,83,0,40,9999,0.100000,99,0,0.000000,13,0.000000,22.885294,0.292664,99,99,0,0,0,0,0
5,59999,38,50000,83,0,40,9999,0.100000,99,0,0.000000,13,1.000000,30.731670,3.665871,99,99,0,0,0,0,0
5,59999,39,50000,83,0,0,9999,0.100000,99,0,0.287200,13,0.000000,24.746455,0.651470,99,99,0,0,0,0,1
5,59999,40,50000,86,0,40,9999,0.100000,99,0,0.000000,12,2.000000,24.961941,8.496260,99,99,0,0,0,0,0
5,59999,41,50000,80,30000,40,9999,0.100000,99,0,0.000000,12,2.000000,33.175855,6.110430,99,99,0,0,0,0,0
5,59999,42,50000,31,0,40,9999,0.100000,99,0,0.000000,12,2.000000,32.822985,9.095975,99,99,0,0,0,0,0
5,59999,43,50000,99,30000,0,9999,0.100000,99,0,0.004993,13,0.000000,18.823544,0.136457,99,99,0,0,1,0,0
5,59999,44,50000,31,0,40,9999,0.100000,99,0,0.000000,13,2.000000,29.515737,7.917601,99,99,0,0,0,0,0
5,59999,45,50000,83,0,40,9999,0.100000,99,0,0.000000,13,0.000000,26.248381,0.531127,99,99,0,0,0,0,0
5,59999,46,50000,31,0,40,9999,0.100000,99,0,0.000000,13,2.000000,30.564960,12.050409,99,99,0,0,0,0,0
5,59999,47,50000,23,0,40,9999,0.100000,99,0,0.000000,12,2.000000,31.805383,7.251691,99,99,0,0,0,0,0
5,59999,48,50000,99,30000,40,9999,0.065000,99,0,0.000000,13,2.000000,25.993601,8.552947,99,99,0,0,0,0,0
5,59999,49,50000,78,40000,40,9999,0.100000,99,0,0.000000,13,3.000000,29.027268,11.817714,99,99,0,0,0,0,0
5,59999,50,50000,79,0,40,9999,0.100000,99,0,0.000000,13,0.000000,21.107824,1.541210,99,99,0,0,0,0,0
5,59999,51,50000,86,0,40,9999,0.100000,99,0,0.000000,13,2.000000,28.922825,7.836834,99,99,0,0,0,0,0
5,59999,52,50000,22,30000,40,9999,0.100000,99,0,0.000000,12,0.000000,26.434638,4.005309,99,99,0,0,0,0,0
5,59999,53,50000,80,30000,40,9999,0.100000,99,0,0.000000,13,0.000000,24.447580,2.407501,99,99,0,0,0,0,0
5,59999,54,50000,99,30000,40,9999,0.100000,99,0,0.000000,13,2.000000,26.739733,11.181262,99,99,0,0,0,0,0
5,59999,55,50000,22,30000,40,9999,0.100000,99,0,0.000000,13,0.000000,21.391676,0.863552,99,99,0,0,0,0,0
5,59999,56,50000,86,0,40,9999,0.100000,99,0,0.000000,13,3.000000,32.313791,8.448748,99,99,0,0,0,0,0
5,59999,57,50000,22,30000,41,9999,0.100000,99,0,0.000000,12,5.000000,32.358271,8.145499,99,99,0,0,0,0,0
5,59999,58,50000,22,30000,40,9999,0.100000,99,0,0.000000,13,1.000000,14.472607,1.606129,99,99,0,0,0,0,0
5,59999,59,50000,22,30000,0,9999,0.100000,99,0,0.008652,13,0.000000,13.883790,0.151143,99,99,0,0,1,0,0
5,59999,60,50000,86,0,40,9999,0.100000,99,0,0.000000,12,0.000000,25.890163,0.568985,99,99,0,0,0,0,0
5,59999,61,50000,31,0,40,9999,0.100000,99,0,0.000000,12,0.000000,30.287004,0.141189,99,99,0,0,0,0,0
5,59999,62,50000,22,30000,40,9999,0.100000,99,0,0.000000,12,0.000000,25.794688,6.173999,99,99,0,0,0,0,0
5,59999,63,50000,78,0,40,9999,0.100000,99,0,0.000000,13,0.000000,26.126417,1.016966,99,99,0,0,0,0,0
5,59999,64,50000,91,0,2,9999,0.100000,99,0,5.116942,13,8.000000,29.497669,28.632800,99,99,0,1,0,0,0
5,59999,65,50000,23,0,0,9999,0.100000,99,0,0.838522,13,0.000000,26.685678,0.284829,99,99,0,1,0,0,0
5,59999,66,50000,80,30000,40,9999,0.100000,99,0,0.000000,12,0.000000,24.655969,0.634330,99,99,0,0,0,0,0
5,59999,67,50000,30,0,40,9999,0.100000,99,0,0.000000,13,0.000000,30.859980,9.123029,99,99,0,0,0,0,0
5,59999,68,50000,22,30000,40,9999,0.100000,99,0,0.000000,12,3.000000,32.992648,7.688152,99,99,0,0,0,0,0
5,59999,69,50000,86,0,40,9999,0.100000,99,0,0.000000,12,0.000000,34.760685,3.105319,99,99,0,0,0,0,0
5,59999,70,50000,86,0,0,9999,0.100000,99,0,0.329503,13,0.000000,24.252265,0.163570,99,99,0,0,0,0,1
5,59999,71,50000,80,30000,40,9999,0.100000,99,0,0.000000,13,1.000000,26.953453,5.819951,99,99,0,0,0,0,0
5,59999,72,50000,99,30000,40,9999,0.100000,99,0,0.000000,13,0.000000,24.568410,0.696767,99,99,0,0,0,0,0
5,59999,73,50000,78,40000,41,9999,0.100000,99,0,0.000000,13,5.000000,32.155549,13.693224,99,99,0,0,0,0,0
5,59999,74,50000,91,0,40,9999,0.100000,99,0,0.000000,12,0.000000,27.705840,1.689680,99,99,0,0,0,0,0
5,59999,75,50000,86,0,40,9999,0.100000,99,0,0.000000,12,0.000000,27.702543,0.400545,99,99,0,0,0,0,0
5,59999,76,50000,23,0,40,9999,0.100000,99,0,0.000000,13,0.000000,20.732317,0.479518,99,99,0,0,0,0,0
5,59999,77,50000,30,0,40,9999,0.100000,99,0,0.000000,12,1.000000,24.834097,20.194202,99,99,0,0,0,0,0
5,59999,78,50000,31,0,40,9999,0.100000,99,0,0.000000,13,0.000000,23.375360,0.328319,99,99,0,0,0,0,0
5,59999,79,50000,78,0,40,9999,0.100000,99,0,0.000000,13,0.000000,24.311110,0.166709,99,99,0,0,0,0,0
5,59999,80,50000,22,30000,40,9999,0.100000,99,0,0.000000,13,0.000000,33.871961,2.506367,99,99,0,0,0,0,0
5,59999,81,50000,83,0,40,9999,0.100000,99,0,0.000000,12,0.000000,26.868071,2.023409,99,99,0,0,0,0,0
5,59999,82,50000,22,30000,40,9999,0.100000,99,0,0.000000,13,2.000000,27.840046,6.603031,99,99,0,0,0,0,0
5,59999,83,50000,83,0,40,9999,0.100000,99,0,0.000000,13,0.000000,32.478295,0.775617,99,99,0,0,0,0,0
5,59999,84,50000,31,0,40,9999,0.100000,99,0,0.000000,13,1.000000,13.810024,1.706297,99,99,0,0,0,0,0
5,59999,85,50000,91,0,40,9999,0.100000,99,0,0.000000,12,1.000000,36.082604,8.019873,99,99,0,0,0,0,0
5,59999,86,50000,80,30000,40,9999,0.100000,99,0,0.000000,13,2.000000,26.233590,5.987138,99,99,0,0,0,0,0
5,59999,87,50000,99,30000,44,9999,0.100000,99,0,0.000000,13,13.000000,24.951846,21.746098,99,99,0,0,0,0,0
5,59999,88,50000,78,0,40,9999,0.100000,99,0,0.000000,13,1.000000,14.255790,1.619790,99,99,0,0,0,0,0
5,59999,89,50000,79,0,40,9999,0.100000,99,0,0.000000,13,0.000000,34.247503,0.481641,99,99,0,0,0,0,0
5,59999,90,50000,23,0,40,9999,0.100000,99,0,0.000000,13,2.000000,24.637506,8.677042,99,99,0,0,0,0,0
5,59999,91,50000,86,0,40,9999,0.100000,99,0,0.000000,13,1.000000,31.576337,3.451221,99,99,0,0,0,0,0
5,59999,92,50000,80,30000,40,9999,0.100000,99,0,0.000000,13,0.000000,24.941551,0.934670,99,99,0,0,0,0,0
5,59999,93,50000,79,0,44,9999,0.100000,99,0,0.000000,13,11.000000,25.494008,13.977040,99,99,0,0,0,0,0
5,59999,94,50000,99,30000,40,9999,0.100000,99,0,0.000000,13,0.000000,26.776907,2.037039,99,99,0,0,0,0,0
5,59999,95,50000,30,0,40,9999,0.100000,99,0,0.000000,12,0.000000,26.237842,8.245818,99,99,0,0,0,0,0
5,59999,96,50000,83,0,90,9999,0.100000,99,0,6.067816,13,1.000000,15.529474,1.543840,99,99,1,0,0,0,0
5,59999,97,50000,99,30000,40,9999,0.100000,99,0,0.000000,12,0.000000,21.106174,0.200421,99,99,0,0,0,0,0
5,59999,98,50000,79,0,40,9999,0.100000,99,0,0.000000,13,3.000000,29.574814,7.893110,99,99,0,0,0,0,0
5,59999,99,50000,99,30000,40,9999,0.100000,99,0,0.000000,12,3.000000,31.605069,8.178083,99,99,0,0,0,0,0
6,69999,0,60000,22,20000,0,9999,0.100000,99,0,0.006749,13,0.000000,17.799380,0.122861,99,99,0,0,1,0,0
6,69999,1,60000,78,40000,40,9999,0.100000,99,0,0.000000,13,3.000000,32.680599,13.056153,99,99,0,0,0,0,0
6,69999,2,60000,22,30000,92,9999,0.100000,99,0,40.272999,15,7.000000,25.057704,21.259799,99,99,1,0,0,0,0
6,69999,3,60000,99,30000,0,9999,0.100000,99,0,0.565864,15,0.000000,27.784028,0.620696,99,99,0,0,0,0,1
6,69999,4,60000,22,30000,41,9999,0.100000,99,0,0.000000,15,5.000000,30.502978,9.710481,99,99,0,0,0,0,0
6,69999,5,60000,91,0,0,9999,0.100000,99,0,6.752157,13,2.000000,21.565905,4.817108,99,99,0,1,0,0,0
6,69999,6,60000,22,30000,40,9999,0.100000,99,0,0.000000,13,0.000000,17.312633,6.175256,99,99,0,0,0,0,0
6,69999,7,60000,78,40000,40,9999,0.100000,99,0,0.000000,13,1.000000,24.779556,4.434700,99,99,0,0,0,0,0
6,69999,8,60000,80,30000,40,9999,0.100000,99,0,0.000000,13,0.000000,28.068882,0.565887,99,99,0,0,0,0,0
6,69999,9,60000,99,30000,0,9999,0.100000,99,0,0.066761,15,0.000000,21.332913,0.254036,99,99,0,0,0,1,0
6,69999,10,60000,91,0,0,9999,0.100000,99,0,0.030302,15,0.000000,26.782202,0.149500,99,99,0,0,0,1,0
6,69999,11,60000,99,30000,0,9999,0.100000,99,0,0.243624,14,0.000000,26.253653,0.718999,99,99,0,0,0,0,1
6,69999,12,60000,30,0,40,9999,0.135000,99,0,0.000000,13,0.000000,27.134398,9.077567,99,99,0,0,0,0,0
6,69999,13,60000,83,0,41,9999,0.100000,99,0,0.000000,14,6.000000,31.309403,14.972021,99,99,0,0,0,0,0
6,69999,14,60000,22,30000,40,9999,0.100000,99,0,0.000000,13,0.000000,27.510773,0.922433,99,99,0,0,0,0,0
6,69999,15,60000,30,0,40,9999,0.100000,99,0,0.000000,13,1.000000,26.123041,7.393111,99,99,0,0,0,0,0
6,69999,16,60000,79,0,40,9999,0.100000,99,0,0.000000,15,0.000000,20.258846,1.476904,99,99,0,0,0,0,0
6,69999,17,60000,22,20000,40,9999,0.100000,99,0,0.000000,13,2.000000,29.325109,8.639202,99,99,0,0,0,0,0
6,69999,18,60000,23,0,40,9999,0.100000,99,0,0.000000,15,1.000000,31.560937,7.177175,99,99,0,0,0,0,0
6,69999,19,60000,78,0,40,9999,0.100000,99,0,0.000000,14,2.000000,34.146177,5.330709,99,99,0,0,0,0,0
6,69999,20,60000,83,0,40,9999,0.100000,99,0,0.000000,13,1.000000,25.167100,6.153572,99,99,0,0,0,0,0
6,69999,21,60000,79,0,0,9999,0.100000,99,0,4.554942,15,0.000000,34.402749,1.471561,99,99,0,0,0,1,0
6,69999,22,60000,22,30000,40,9999,0.100000,99,0,0.000000,13,0.000000,20.698552,6.916571,99,99,0,0,0,0,0
6,69999,23,60000,30,0,40,9999,0.100000,99,0,0.000000,13,1.000000,28.050510,9.175151,99,99,0,0,0,0,0
6,69999,24,60000,78,0,40,9999,0.100000,99,0,0.000000,13,0.000000,21.970259,0.509968,99,99,0,0,0,0,0
6,69999,25,60000,31,0,90,9999,0.100000,99,0,12.621620,13,3.000000,31.817700,8.223065,99,99,1,0,0,0,0
6,69999,26,60000,79,0,40,9999,0.100000,99,0,0.000000,15,1.000000,21.813214,5.825641,99,99,0,0,0,0,0
6,69999,27,60000,80,30000,40,9999,0.100000,99,0,0.000000,15,0.000000,30.163818,2.277475,99,99,0,0,0,0,0
6,69999,28,60000,99,30000,41,9999,0.100000,99,0,0.000000,13,3.000000,28.191300,8.652378,99,99,0,0,0,0,0
6,69999,29,60000,22,30000,0,9999,0.100000,99,0,0.022815,14,0.000000,25.214084,0.126778,99,99,0,0,0,1,0
6,69999,30,60000,91,0,40,9999,0.100000,99,0,0.000000,13,0.000000,34.599321,1.632670,99,99,0,0,0,0,0
6,69999,31,60000,30,0,40,9999,0.100000,99,0,0.000000,13,2.000000,30.322108,10.010649,99,99,0,0,0,0,0
6,69999,32,60000,31,0,41,9999,0.100000,99,0,0.000000,14,3.000000,27.811930,16.006751,99,99,0,0,0,0,0
6,69999,33,60000,80,30000,40,9999,0.100000,99,0,0.000000,13,0.000000,22.394525,0.235793,99,99,0,0,0,0,0
6,69999,34,60000,91,0,40,9999,0.100000,99,0,0.000000,13,0.000000,30.342799,1.760735,99,99,0,0,0,0,0
6,69999,35,60000,22,20000,40,9999,0.100000,99,0,0.000000,15,0.000000,34.788736,0.271517,99,99,0,0,0,0,0
6,69999,36,60000,80,30000,0,9999,0.100000,99,0,0.155070,13,0.000000,13.459907,0.569247,99,99,0,0,0,1,0
6,69999,37,60000,31,0,0,9999,0.100000,99,0,0.031361,13,0.000000,22.772653,0.761770,99,99,0,0,1,0,0
6,69999,38,60000,78,40000,41,9999,0.100000,99,0,0.000000,13,4.000000,30.315501,11.943589,99,99,0,0,0,0,0
6,69999,39,60000,86,0,0,9999,0.100000,99,0,0.074812,15,0.000000,25.307988,0.408649,99,99,0,0,0,0,1
6,69999,40,60000,22,30000,40,9999,0.100000,99,0,0.000000,13,0.000000,27.620573,1.424901,99,99,0,0,0,0,0
6,69999,41,60000,80,30000,40,9999,0.100000,99,0,0.000000,13,1.000000,33.848985,6.550514,99,99,0,0,0,0,0
6,69999,42,60000,23,0,40,9999,0.100000,99,0,0.000000,13,3.000000,32.107778,10.228574,99,99,0,0,0,0,0
6,69999,43,60000,31,0,0,9999,0.100000,99,0,0.004079,14,0.000000,18.821996,0.138800,99,99,0,0,1,0,0
6,69999,44,60000,22,30000,40,9999,0.100000,99,0,0.000000,13,1.000000,29.019736,8.583825,99,99,0,0,0,0,0
6,69999,45,60000,22,30000,40,9999,0.100000,99,0,0.000000,13,0.000000,26.517027,0.671836,99,99,0,0,0,0,0
6,69999,46,60000,78,0,40,9999,0.100000,99,0,0.000000,15,2.000000,29.884569,13.681511,99,99,0,0,0,0,0
6,69999,47,60000,83,0,40,9999,0.100000,99,0,0.000000,14,1.000000,31.510943,5.691276,99,99,0,0,0,0,0
6,69999,48,60000,83,0,40,9999,0.100000,99,0,0.000000,13,2.000000,27.623648,6.916863,99,99,0,0,0,0,0
6,69999,49,60000,86,0,0,9999,0.100000,99,0,0.078653,14,1.000000,25.715883,3.759036,99,99,0,1,0,0,0
6,69999,50,60000,79,0,40,9999,0.100000,99,0,0.000000,15,2.000000,21.729000,4.497648,99,99,0,0,0,0,0
6,69999,51,60000,31,0,41,9999,0.100000,99,0,0.000000,13,5.000000,26.253535,14.279927,99,99,0,0,0,0,0
6,69999,52,60000,80,30000,40,9999,0.100000,99,0,0.000000,13,0.000000,26.921474,4.791931,99,99,0,0,0,0,0
6,69999,53,60000,78,40000,43,9999,0.100000,99,0,0.000000,13,8.000000,24.541028,15.196509,99,99,0,0,0,0,0
6,69999,54,60000,22,30000,40,9999,0.100000,99,0,0.000000,13,1.000000,24.226594,3.595708,99,99,0,0,0,0,0
6,69999,55,60000,83,0,40,9999,0.100000,99,0,0.000000,13,0.000000,21.801172,0.628107,99,99,0,0,0,0,0
6,69999,56,60000,22,30000,40,9999,0.100000,99,0,0.000000,13,0.000000,30.514142,4.363847,99,99,0,0,0,0,0
6,69999,57,60000,78,0,41,9999,0.100000,99,0,0.000000,13,4.000000,28.784491,9.023754,99,99,0,0,0,0,0
6,69999,58,60000,23,0,40,9999,0.100000,99,0,0.000000,14,0.000000,13.955290,0.907296,99,99,0,0,0,0,0
6,69999,59,60000,64,50000,0,9999,0.100000,99,0,0.007903,14,0.000000,13.882159,0.160750,99,99,0,0,1,0,0
6,69999,60,60000,31,0,40,9999,0.100000,99,0,0.000000,13,0.000000,26.166219,0.685336,99,99,0,0,0,0,0
6,69999,61,60000,78,40000,40,9999,0.100000,99,0,0.000000,15,0.000000,30.286578,0.435339,99,99,0,0,0,0,0
6,69999,62,60000,83,0,40,9999,0.100000,99,0,0.000000,13,1.000000,25.711354,4.320085,99,99,0,0,0,0,0
6,69999,63,60000,23,0,40,9999,0.100000,99,0,0.000000,13,0.000000,26.398967,1.110533,99,99,0,0,0,0,0
6,69999,64,60000,80,30000,40,9999,0.100000,99,0,0.000000,14,2.000000,30.168168,12.202935,99,99,0,0,0,0,0
6,69999,65,60000,83,0,0,9999,0.100000,99,0,0.869697,14,0.000000,26.871254,0.525486,99,99,0,1,0,0,0
6,69999,66,60000,78,0,40,9999,0.100000,99,0,0.000000,15,0.000000,25.209609,0.404762,99,99,0,0,0,0,0
6,69999,67,60000,64,50000,40,9999,0.100000,99,0,0.000000,15,1.000000,30.430965,15.359445,99,99,0,0,0,0,0
6,69999,68,60000,91,0,40,9999,0.100000,99,0,0.000000,13,2.000000,31.155185,10.758793,99,99,0,0,0,0,0
6,69999,69,60000,78,40000,40,9999,0.100000,99,0,0.000000,14,0.000000,34.775840,3.410157,99,99,0,0,0,0,0
6,69999,70,60000,78,0,0,9999,0.100000,99,0,0.245400,15,0.000000,24.277458,0.149322,99,99,0,0,0,0,1
6,69999,71,60000,22,30000,40,9999,0.100000,99,0,0.000000,14,0.000000,26.054221,0.755465,99,99,0,0,0,0,0
6,69999,72,60000,86,0,40,9999,0.100000,99,0,0.000000,14,0.000000,25.101742,0.484628,99,99,0,0,0,0,0
6,69999,73,60000,83,0,40,9999,0.100000,99,0,0.000000,13,1.000000,31.655346,4.804232,99,99,0,0,0,0,0
6,69999,74,60000,22,30000,40,9999,0.100000,99,0,0.000000,13,0.000000,27.922267,4.685498,99,99,0,0,0,0,0
6,69999,75,60000,83,0,40,9999,0.100000,99,0,0.000000,15,0.000000,27.908783,0.444283,99,99,0,0,0,0,0
6,69999,76,60000,22,30000,40,9999,0.100000,99,0,0.000000,13,0.000000,20.812013,0.706680,99,99,0,0,0,0,0
6,69999,77,60000,31,0,40,9999,0.100000,99,0,0.000000,14,0.000000,25.376363,22.094726,99,99,0,0,0,0,0
6,69999,78,60000,23,0,40,9999,0.100000,99,0,0.000000,13,0.000000,23.480033,1.312114,99,99,0,0,0,0,0
6,69999,79,60000,83,0,40,9999,0.100000,99,0,0.000000,14,0.000000,24.320332,0.153973,99,99,0,0,0,0,0
6,69999,80,60000,80,30000,40,9999,0.100000,99,0,0.000000,15,1.000000,33.736949,4.219208,99,99,0,0,0,0,0
6,69999,81,60000,78,40000,40,9999,0.100000,99,0,0.000000,13,0.000000,26.735828,2.090238,99,99,0,0,0,0,0
6,69999,82,60000,64,50000,40,9999,0.100000,99,0,0.000000,15,0.000000,25.847951,23.614274,99,99,0,0,0,0,0
6,69999,83,60000,64,50000,40,9999,0.100000,99,0,0.000000,14,0.000000,32.666686,0.838040,99,99,0,0,0,0,0
6,69999,84,60000,80,30000,40,9999,0.100000,99,0,0.000000,13,0.000000,13.187784,0.695287,99,99,0,0,0,0,0
6,69999,85,60000,22,20000,40,9999,0.100000,99,0,0.000000,13,1.000000,34.895066,4.635222,99,99,0,0,0,0,0
6,69999,86,60000,91,0,41,9999,0.100000,99,0,0.000000,14,3.000000,25.882963,14.909669,99,99,0,0,0,0,0
6,69999,87,60000,83,0,40,9999,0.100000,99,0,0.000000,14,0.000000,19.604012,0.233003,99,99,0,0,0,0,0
6,69999,88,60000,83,0,40,9999,0.100000,99,0,0.000000,14,0.000000,13.705246,0.790449,99,99,0,0,0,0,0
6,69999,89,60000,80,30000,40,9999,0.100000,99,0,0.000000,14,0.000000,34.207587,1.461692,99,99,0,0,0,0,0
6,69999,90,60000,30,0,41,9999,0.100000,99,0,0.000000,13,3.000000,26.614489,9.572182,99,99,0,0,0,0,0
6,69999,91,60000,80,30000,40,9999,0.100000,99,0,0.000000,13,3.000000,32.522205,6.168940,99,99,0,0,0,0,0
6,69999,92,60000,79,0,40,9999,0.100000,99,0,0.000000,14,0.000000,25.506103,0.672783,99,99,0,0,0,0,0
6,69999,93,60000,30,0,41,9999,0.100000,99,0,0.000000,15,2.000000,14.868202,4.796930,99,99,0,0,0,0,0
6,69999,94,60000,22,20000,40,9999,0.100000,99,0,0.000000,13,0.000000,26.639750,2.076411,99,99,0,0,0,0,0
6,69999,95,60000,99,30000,41,9999,0.100000,99,0,0.000000,15,5.000000,25.581889,11.248282,99,99,0,0,0,0,0
6,69999,96,60000,91,0,91,9999,0.100000,99,0,10.355363,13,2.000000,15.991413,3.711701,99,99,1,0,0,0,0
6,69999,97,60000,30,0,40,9999,0.100000,99,0,0.000000,13,0.000000,21.155768,0.237852,99,99,0,0,0,0,0
6,69999,98,60000,86,0,40,9999,0.100000,99,0,0.000000,15,2.000000,28.686052,9.804135,99,99,0,0,0,0,0
6,69999,99,60000,78,0,40,9999,0.100000,99,0,0.000000,15,1.000000,28.298229,11.502233,99,99,0,0,0,0,0
7,79999,0,70000,23,0,0,9999,0.100000,99,0,0.027077,15,0.000000,17.798245,0.105572,99,99,0,0,1,0,0
7,79999,1,70000,93,50000,40,9999,0.100000,99,0,0.000000,15,2.000000,32.083869,12.532323,99,99,0,0,0,0,0
7,79999,2,70000,99,30000,41,9999,0.100000,99,0,0.000000,15,4.000000,28.129046,13.127192,99,99,0,0,0,0,0
7,79999,3,70000,64,50000,40,9999,0.100000,99,0,0.000000,16,0.000000,28.121361,0.581689,99,99,0,0,0,0,0
7,79999,4,70000,30,0,40,9999,0.100000,99,0,0.000000,15,1.000000,27.718286,9.107243,99,99,0,0,0,0,0
7,79999,5,70000,22,20000,2,9999,0.100000,99,0,27.810064,15,5.000000,23.382256,10.928135,99,99,0,1,0,0,0
7,79999,6,70000,79,0,40,9999,0.100000,99,0,0.000000,15,1.000000,17.228572,4.148475,99,99,0,0,0,0,0
7,79999,7,70000,83,0,40,9999,0.100000,99,0,0.000000,15,0.000000,23.400112,19.035517,99,99,0,0,0,0,0
7,79999,8,70000,78,0,0,9999,0.100000,99,0,1.085547,15,0.000000,28.254530,0.254450,99,99,0,0,0,0,1
7,79999,9,70000,78,40000,0,9999,0.100000,99,0,0.235483,15,0.000000,21.383660,0.200233,99,99,0,0,0,1,0
7,79999,10,70000,22,20000,0,9999,0.100000,99,0,0.012948,15,0.000000,26.802265,0.144785,99,99,0,0,0,1,0
7,79999,11,70000,22,30000,40,9999,0.100000,99,0,0.000000,15,0.000000,26.296037,0.722619,99,99,0,0,0,0,0
7,79999,12,70000,99,30000,40,9999,0.100000,99,0,0.000000,15,1.000000,26.588994,10.177367,99,99,0,0,0,0,0
7,79999,13,70000,99,30000,40,9999,0.100000,99,0,0.000000,15,0.000000,34.616019,6.626442,99,99,0,0,0,0,0
7,79999,14,70000,64,50000,40,9999,0.100000,99,0,0.000000,15,0.000000,28.013739,3.631279,99,99,0,0,0,0,0
7,79999,15,70000,79,0,40,9999,0.065000,99,0,0.000000,15,1.000000,27.042594,7.888518,99,99,0,0,0,0,0
7,79999,16,70000,80,30000,40,9999,0.100000,99,0,0.000000,15,0.000000,20.236182,0.882136,99,99,0,0,0,0,0
7,79999,17,70000,22,20000,40,9999,0.100000,99,0,0.000000,15,0.000000,28.868776,5.823481,99,99,0,0,0,0,0
7,79999,18,70000,86,0,40,9999,0.100000,99,0,0.000000,15,0.000000,30.567134,5.496030,99,99,0,0,0,0,0
7,79999,19,70000,22,20000,41,9999,0.100000,99,0,0.000000,15,4.000000,32.850089,9.084808,99,99,0,0,0,0,0
7,79999,20,70000,86,0,40,9999,0.100000,99,0,0.000000,15,2.000000,24.863439,9.006287,99,99,0,0,0,0,0
7,79999,21,70000,80,30000,40,9999,0.100000,99,0,0.000000,15,0.000000,34.469611,0.794450,99,99,0,0,0,0,0
7,79999,22,70000,83,0,40,9999,0.100000,99,0,0.000000,15,0.000000,20.879714,0.775289,99,99,0,0,0,0,0
7,79999,23,70000,78,0,0,9999,0.100000,99,0,0.721567,15,0.000000,26.923146,9.644666,99,99,0,1,0,0,0
7,79999,24,70000,91,0,40,9999,0.100000,99,0,0.000000,15,0.000000,22.165837,0.522378,99,99,0,0,0,0,0
7,79999,25,70000,23,0,40,9999,0.100000,99,0,0.000000,15,0.000000,34.467189,5.457101,99,99,0,0,0,0,0
7,79999,26,70000,79,0,40,9999,0.100000,99,0,0.000000,15,1.000000,22.388584,5.031837,99,99,0,0,0,0,0
7,79999,27,70000,78,0,40,9999,0.100000,99,0,0.000000,15,0.000000,30.234971,0.490270,99,99,0,0,0,0,0
7,79999,28,70000,93,50000,41,9999,0.100000,99,0,0.000000,15,3.000000,25.273144,13.907267,99,99,0,0,0,0,0
7,79999,29,70000,86,0,0,9999,0.100000,99,0,0.020277,15,0.000000,25.232901,0.123740,99,99,0,0,0,1,0
7,79999,30,70000,83,0,0,9999,0.100000,99,0,2.584519,15,0.000000,34.717961,0.924199,99,99,0,0,0,1,0
7,79999,31,70000,78,0,40,9999,0.100000,99,0,0.000000,15,0.000000,31.509629,7.649620,99,99,0,0,0,0,0
7,79999,32,70000,23,0,40,9999,0.100000,99,0,0.000000,15,1.000000,29.366271,7.471928,99,99,0,0,0,0,0
7,79999,33,70000,80,30000,40,9999,0.100000,99,0,0.000000,15,0.000000,22.395678,0.234708,99,99,0,0,0,0,0
7,79999,34,70000,91,0,40,9999,0.100000,99,0,0.000000,15,0.000000,30.313631,0.396276,99,99,0,0,0,0,0
7,79999,35,70000,31,0,40,9999,0.100000,99,0,0.000000,15,0.000000,34.773657,0.611775,99,99,0,0,0,0,0
7,79999,36,70000,78,0,0,9999,0.100000,99,0,0.285555,15,0.000000,13.392867,0.472792,99,99,0,0,0,1,0
7,79999,37,70000,93,50000,40,9999,0.100000,99,0,0.000000,15,1.000000,22.389187,7.510283,99,99,0,0,0,0,0
7,79999,38,70000,78,0,40,9999,0.100000,99,0,0.000000,16,2.000000,26.045115,6.325512,99,99,0,0,0,0,0
7,79999,39,70000,23,0,0,9999,0.100000,99,0,0.091389,15,0.000000,25.665950,0.393209,99,99,0,0,0,0,1
7,79999,40,70000,93,50000,41,9999,0.100000,99,0,0.000000,15,3.000000,28.004206,4.488900,99,99,0,0,0,0,0
7,79999,41,70000,80,30000,40,9999,0.100000,99,0,0.000000,15,2.000000,33.511700,21.715584,99,99,0,0,0,0,0
7,79999,42,70000,22,30000,40,9999,0.100000,99,0,0.000000,15,2.000000,33.226118,10.981131,99,99,0,0,0,0,0
7,79999,43,70000,78,40000,0,9999,0.100000,99,0,0.004778,15,0.000000,18.820777,0.138259,99,99,0,0,1,0,0
7,79999,44,70000,83,0,40,9999,0.100000,99,0,0.000000,15,1.000000,27.362022,10.066586,99,99,0,0,0,0,0
7,79999,45,70000,23,0,40,9999,0.100000,99,0,0.000000,15,0.000000,26.474230,0.650911,99,99,0,0,0,0,0
7,79999,46,70000,91,0,40,9999,0.100000,99,0,0.000000,15,2.000000,28.254708,12.606138,99,99,0,0,0,0,0
7,79999,47,70000,30,0,40,9999,0.100000,99,0,0.000000,15,3.000000,33.079835,5.692189,99,99,0,0,0,0,0
7,79999,48,70000,99,30000,40,9999,0.100000,99,0,0.000000,15,2.000000,27.591341,9.414613,99,99,0,0,0,0,0
7,79999,49,70000,93,50000,0,9999,0.100000,99,0,0.027294,15,0.000000,24.643912,0.208494,99,99,0,1,0,0,0
7,79999,50,70000,22,20000,2,9999,0.100000,99,0,27.808774,15,6.000000,23.296698,12.079114,99,99,0,1,0,0,0
7,79999,51,70000,22,20000,41,9999,0.100000,99,0,0.000000,15,3.000000,28.389286,14.650585,99,99,0,0,0,0,0
7,79999,52,70000,22,30000,40,9999,0.100000,99,0,0.000000,15,0.000000,26.521223,3.545783,99,99,0,0,0,0,0
7,79999,53,70000,22,20000,40,9999,0.100000,99,0,0.000000,16,0.000000,24.076643,1.486957,99,99,0,0,0,0,0
7,79999,54,70000,79,0,40,9999,0.100000,99,0,0.000000,15,2.000000,23.979161,5.367285,99,99,0,0,0,0,0
7,79999,55,70000,78,0,40,9999,0.100000,99,0,0.000000,15,0.000000,21.996823,0.683184,99,99,0,0,0,0,0
7,79999,56,70000,31,0,40,9999,0.100000,99,0,0.000000,15,2.000000,30.369642,8.259258,99,99,0,0,0,0,0
7,79999,57,70000,64,50000,40,9999,0.100000,99,0,0.000000,15,2.000000,32.570948,4.047744,99,99,0,0,0,0,0
7,79999,58,70000,83,0,40,9999,0.100000,99,0,0.000000,15,0.000000,13.882153,0.980338,99,99,0,0,0,0,0
7,79999,59,70000,22,20000,0,9999,0.100000,99,0,0.007903,15,0.000000,13.881201,0.155728,99,99,0,0,1,0,0
7,79999,60,70000,93,50000,0,9999,0.100000,99,0,0.147362,15,0.000000,26.243517,0.702021,99,99,0,0,0,0,1
7,79999,61,70000,22,30000,40,9999,0.100000,99,0,0.000000,15,0.000000,30.276052,0.320909,99,99,0,0,0,0,0
7,79999,62,70000,78,40000,40,9999,0.100000,99,0,0.000000,15,2.000000,24.753485,10.127977,99,99,0,0,0,0,0
7,79999,63,70000,64,50000,40,9999,0.100000,99,0,0.000000,15,0.000000,26.397609,1.049894,99,99,0,0,0,0,0
7,79999,64,70000,22,30000,40,9999,0.100000,99,0,0.000000,15,2.000000,29.393053,5.696762,99,99,0,0,0,0,0
7,79999,65,70000,86,0,40,9999,0.100000,99,0,0.000000,15,0.000000,26.711310,1.202380,99,99,0,0,0,0,0
7,79999,66,70000,78,40000,40,9999,0.100000,99,0,0.000000,15,0.000000,25.568648,0.388511,99,99,0,0,0,0,0
7,79999,67,70000,64,50000,40,9999,0.100000,99,0,0.000000,15,0.000000,29.757257,13.962259,99,99,0,0,0,0,0
7,79999,68,70000,80,30000,40,9999,0.100000,99,0,0.000000,15,1.000000,30.195503,8.139031,99,99,0,0,0,0,0
7,79999,69,70000,86,0,91,9999,0.100000,99,0,21.836941,15,4.000000,34.814958,12.616708,99,99,1,0,0,0,0
7,79999,70,70000,64,50000,0,9999,0.100000,99,0,0.136020,15,0.000000,24.300453,0.173046,99,99,0,0,0,0,1
7,79999,71,70000,30,0,40,9999,0.100000,99,0,0.000000,15,0.000000,26.172839,0.546590,99,99,0,0,0,0,0
7,79999,72,70000,31,0,40,9999,0.100000,99,0,0.000000,15,0.000000,25.461635,0.477588,99,99,0,0,0,0,0
7,79999,73,70000,93,50000,40,9999,0.100000,99,0,0.000000,15,1.000000,30.622806,8.501897,99,99,0,0,0,0,0
7,79999,74,70000,93,50000,40,9999,0.100000,99,0,0.000000,16,0.000000,28.008494,2.326584,99,99,0,0,0,0,0
7,79999,75,70000,86,0,40,9999,0.100000,99,0,0.000000,15,0.000000,28.177030,0.296733,99,99,0,0,0,0,0
7,79999,76,70000,78,0,40,9999,0.100000,99,0,0.000000,16,0.000000,20.922902,0.550483,99,99,0,0,0,0,0
7,79999,77,70000,31,0,40,9999,0.100000,99,0,0.000000,15,0.000000,25.844018,20.031774,99,99,0,0,0,0,0
7,79999,78,70000,22,20000,40,9999,0.100000,99,0,0.000000,15,0.000000,23.860891,1.537118,99,99,0,0,0,0,0
7,79999,79,70000,22,30000,40,9999,0.100000,99,0,0.000000,15,0.000000,24.334615,0.188528,99,99,0,0,0,0,0
7,79999,80,70000,93,50000,40,9999,0.100000,99,0,0.000000,15,2.000000,32.650584,10.525106,99,99,0,0,0,0,0
7,79999,81,70000,83,0,40,9999,0.100000,99,0,0.000000,15,1.000000,26.865434,2.751197,99,99,0,0,0,0,0
7,79999,82,70000,78,0,40,9999,0.100000,99,0,0.000000,15,0.000000,26.266913,23.935614,99,99,0,0,0,0,0
7,79999,83,70000,86,0,40,9999,0.100000,99,0,0.000000,15,0.000000,32.898022,0.821526,99,99,0,0,0,0,0
7,79999,84,70000,31,0,40,9999,0.100000,99,0,0.000000,15,0.000000,13.119020,0.719622,99,99,0,0,0,0,0
7,79999,85,70000,22,30000,40,9999,0.100000,99,0,0.000000,15,0.000000,34.966233,1.083907,99,99,0,0,0,0,0
7,79999,86,70000,83,0,40,9999,0.100000,99,0,0.000000,15,1.000000,27.885426,10.551710,99,99,0,0,0,0,0
7,79999,87,70000,91,0,40,9999,0.100000,99,0,0.000000,15,0.000000,19.603646,0.245798,99,99,0,0,0,0,0
7,79999,88,70000,30,0,40,9999,0.100000,99,0,0.000000,15,0.000000,13.634645,0.808012,99,99,0,0,0,0,0
7,79999,89,70000,83,0,40,9999,0.100000,99,0,0.000000,15,0.000000,34.223730,0.886360,99,99,0,0,0,0,0
7,79999,90,70000,93,50000,40,9999,0.100000,99,0,0.000000,15,2.000000,25.947671,8.551135,99,99,0,0,0,0,0
7,79999,91,70000,78,40000,40,9999,0.100000,99,0,0.000000,15,2.000000,35.499043,3.835959,99,99,0,0,0,0,0
7,79999,92,70000,79,0,40,9999,0.100000,99,0,0.000000,15,0.000000,25.856884,0.670097,99,99,0,0,0,0,0
7,79999,93,70000,83,0,41,9999,0.100000,99,0,0.000000,15,2.000000,16.673079,7.165410,99,99,0,0,0,0,0
7,79999,94,70000,78,40000,40,9999,0.100000,99,0,0.000000,15,1.000000,26.768768,2.739976,99,99,0,0,0,0,0
7,79999,95,70000,91,0,40,9999,0.100000,99,0,0.000000,15,0.000000,20.844265,1.206412,99,99,0,0,0,0,0
7,79999,96,70000,79,0,91,9999,0.100000,99,0,10.715216,15,2.000000,17.178248,2.469042,99,99,1,0,0,0,0
7,79999,97,70000,78,40000,40,9999,0.100000,99,0,0.000000,15,0.000000,21.226723,0.181400,99,99,0,0,0,0,0
7,79999,98,70000,83,0,40,9999,0.100000,99,0,0.000000,15,0.000000,26.210036,3.697184,99,99,0,0,0,0,0
7,79999,99,70000,53,60000,40,9999,0.100000,99,0,0.000000,16,1.000000,27.554443,10.587676,99,99,0,0,0,0,0
8,89999,0,80000,78,40000,0,9999,0.100000,99,0,0.002729,16,0.000000,17.797809,0.100542,99,99,0,0,1,0,0
8,89999,1,80000,86,0,40,9999,0.100000,99,0,0.000000,16,3.000000,33.172664,12.457172,99,99,0,0,0,0,0
8,89999,2,80000,93,50000,40,9999,0.100000,99,0,0.000000,16,0.000000,23.520197,4.969477,99,99,0,0,0,0,0
8,89999,3,80000,53,60000,0,9999,0.100000,99,0,0.866150,16,0.000000,28.413938,0.379664,99,99,0,0,0,0,1
8,89999,4,80000,86,0,40,9999,0.100000,99,0,0.000000,16,1.000000,26.697031,9.084070,99,99,0,0,0,0,0
8,89999,5,80000,22,20000,40,9999,0.100000,99,0,0.000000,16,0.000000,28.419510,5.551832,99,99,0,0,0,0,0
8,89999,6,80000,78,40000,40,9999,0.100000,99,0,0.000000,16,0.000000,17.253086,0.087140,99,99,0,0,0,0,0
8,89999,7,80000,5,70000,40,9999,0.100000,99,0,0.000000,16,0.000000,23.883042,23.734887,99,99,0,0,0,0,0
8,89999,8,80000,78,0,40,9999,0.100000,99,0,0.000000,16,0.000000,28.456586,0.201504,99,99,0,0,0,0,0
8,89999,9,80000,30,0,0,9999,0.100000,99,0,0.111365,16,0.000000,21.367298,0.169093,99,99,0,0,0,1,0
8,89999,10,80000,30,0,0,9999,0.100000,99,0,0.006507,16,0.000000,26.813064,0.113389,99,99,0,0,0,1,0
8,89999,11,80000,86,0,0,9999,0.100000,99,0,0.125596,16,0.000000,26.268337,0.766705,99,99,0,0,0,0,1
8,89999,12,80000,5,70000,40,9999,0.100000,99,0,0.000000,16,1.000000,25.096881,7.426255,99,99,0,0,0,0,0
8,89999,13,80000,99,30000,40,9999,0.100000,99,0,0.000000,16,1.000000,34.424967,9.830144,99,99,0,0,0,0,0
8,89999,14,80000,30,0,40,9999,0.100000,99,0,0.000000,16,0.000000,28.409275,0.450506,99,99,0,0,0,0,0
8,89999,15,80000,83,0,41,9999,0.100000,99,0,0.000000,16,3.000000,27.970100,14.639166,99,99,0,0,0,0,0
8,89999,16,80000,99,30000,40,9999,0.100000,99,0,0.000000,16,0.000000,20.522987,0.966037,99,99,0,0,0,0,0
8,89999,17,80000,31,0,40,9999,0.100000,99,0,0.000000,16,3.000000,29.424961,9.311413,99,99,0,0,0,0,0
8,89999,18,80000,53,60000,40,9999,0.100000,99,0,0.000000,16,2.000000,29.908399,12.623014,99,99,0,0,0,0,0
8,89999,19,80000,79,0,40,9999,0.100000,99,0,0.000000,16,2.000000,30.393940,5.728273,99,99,0,0,0,0,0
8,89999,20,80000,30,0,40,9999,0.100000,99,0,0.000000,16,1.000000,22.814285,4.278366,99,99,0,0,0,0,0
8,89999,21,80000,31,0,40,9999,0.100000,99,0,0.000000,16,1.000000,34.900016,2.795255,99,99,0,0,0,0,0
8,89999,22,80000,22,30000,40,9999,0.100000,99,0,0.000000,16,0.000000,20.916874,1.149477,99,99,0,0,0,0,0
8,89999,23,80000,86,0,0,9999,0.100000,99,0,0.109069,16,0.000000,26.189394,1.492918,99,99,0,1,0,0,0
8,89999,24,80000,86,0,40,9999,0.100000,99,0,0.000000,16,0.000000,22.380569,0.512233,99,99,0,0,0,0,0
8,89999,25,80000,91,0,40,9999,0.100000,99,0,0.000000,16,1.000000,34.811299,9.046088,99,99,0,0,0,0,0
8,89999,26,80000,83,0,40,9999,0.100000,99,0,0.000000,16,2.000000,20.531653,2.693916,99,99,0,0,0,0,0
8,89999,27,80000,78,40000,40,9999,0.100000,99,0,0.000000,16,0.000000,30.229924,0.493917,99,99,0,0,0,0,0
8,89999,28,80000,83,0,40,9999,0.100000,99,0,0.000000,16,0.000000,27.346035,1.260307,99,99,0,0,0,0,0
8,89999,29,80000,79,0,0,9999,0.100000,99,0,0.001942,16,0.000000,25.277883,0.089581,99,99,0,0,0,1,0
8,89999,30,80000,53,60000,40,9999,0.100000,99,0,0.000000,16,1.000000,35.122693,3.820184,99,99,0,0,0,0,0
8,89999,31,80000,79,0,40,9999,0.100000,99,0,0.000000,16,2.000000,31.006006,8.990621,99,99,0,0,0,0,0
8,89999,32,80000,53,60000,40,9999,0.065000,99,0,0.000000,16,0.000000,28.317733,3.312359,99,99,0,0,0,0,0
8,89999,33,80000,31,0,40,9999,0.100000,99,0,0.000000,16,0.000000,22.399607,0.239019,99,99,0,0,0,0,0
8,89999,34,80000,79,0,40,9999,0.100000,99,0,0.000000,16,0.000000,30.310430,0.344297,99,99,0,0,0,0,0
8,89999,35,80000,86,0,40,9999,0.100000,99,0,0.000000,16,0.000000,34.729215,0.279578,99,99,0,0,0,0,0
8,89999,36,80000,83,0,2,9999,0.100000,99,0,17.380734,16,3.000000,13.336189,3.598426,99,99,0,0,0,1,0
8,89999,37,80000,31,0,40,9999,0.100000,99,0,0.000000,16,2.000000,20.486028,3.083904,99,99,0,0,0,0,0
8,89999,38,80000,83,0,40,9999,0.100000,99,0,0.000000,16,0.000000,24.171261,0.393126,99,99,0,0,0,0,0
8,89999,39,80000,22,30000,0,9999,0.100000,99,0,0.025791,16,0.000000,26.009463,0.539583,99,99,0,0,0,0,1
8,89999,40,80000,53,60000,41,9999,0.100000,99,0,0.000000,16,5.000000,30.437693,13.952706,99,99,0,0,0,0,0
8,89999,41,80000,83,0,40,9999,0.100000,99,0,0.000000,16,0.000000,33.006262,0.864077,99,99,0,0,0,0,0
8,89999,42,80000,99,30000,40,9999,0.100000,99,0,0.000000,16,1.000000,30.821580,9.322396,99,99,0,0,0,0,0
8,89999,43,80000,50,70000,0,9999,0.100000,99,0,0.005722,16,0.000000,18.819668,0.136108,99,99,0,0,1,0,0
8,89999,44,80000,5,70000,40,9999,0.100000,99,0,0.000000,16,1.000000,26.723201,5.962072,99,99,0,0,0,0,0
8,89999,45,80000,50,70000,40,9999,0.100000,99,0,0.000000,16,0.000000,26.414408,0.629652,99,99,0,0,0,0,0
8,89999,46,80000,22,30000,40,9999,0.100000,99,0,0.000000,16,1.000000,26.028719,9.093746,99,99,0,0,0,0,0
8,89999,47,80000,91,0,40,9999,0.100000,99,0,0.000000,16,0.000000,31.156229,14.628717,99,99,0,0,0,0,0
8,89999,48,80000,50,70000,41,9999,0.100000,99,0,0.000000,16,3.000000,27.734466,10.153528,99,99,0,0,0,0,0
8,89999,49,80000,30,0,0,9999,0.100000,99,0,0.030928,16,0.000000,24.596959,0.218134,99,99,0,1,0,0,0
8,89999,50,80000,91,0,40,9999,0.100000,99,0,0.000000,16,1.000000,28.158783,3.402629,99,99,0,0,0,0,0
8,89999,51,80000,86,0,41,9999,0.100000,99,0,0.000000,16,3.000000,25.818761,9.397959,99,99,0,0,0,0,0
8,89999,52,80000,30,0,40,9999,0.100000,99,0,0.000000,16,2.000000,26.769048,7.151133,99,99,0,0,0,0,0
8,89999,53,80000,30,0,40,9999,0.100000,99,0,0.000000,16,0.000000,24.205561,0.220509,99,99,0,0,0,0,0
8,89999,54,80000,31,0,41,9999,0.100000,99,0,0.000000,16,3.000000,21.194793,11.674457,99,99,0,0,0,0,0
8,89999,55,80000,23,0,40,9999,0.100000,99,0,0.000000,16,0.000000,22.211678,0.629776,99,99,0,0,0,0,0
8,89999,56,80000,86,0,40,9999,0.100000,99,0,0.000000,16,3.000000,31.008814,10.550834,99,99,0,0,0,0,0
8,89999,57,80000,53,60000,0,9999,0.100000,99,0,0.072460,16,0.000000,34.643212,2.991246,99,99,0,0,0,1,0
8,89999,58,80000,99,30000,42,9999,0.100000,99,0,0.000000,16,3.000000,13.795776,3.888849,99,99,0,0,0,0,0
8,89999,59,80000,5,70000,0,9999,0.100000,99,0,0.007766,16,0.000000,13.879788,0.267512,99,99,0,0,1,0,0
8,89999,60,80000,78,40000,40,9999,0.100000,99,0,0.000000,16,0.000000,26.227598,0.707812,99,99,0,0,0,0,0
8,89999,61,80000,53,60000,40,9999,0.100000,99,0,0.000000,16,0.000000,30.271606,0.289601,99,99,0,0,0,0,0
8,89999,62,80000,5,70000,41,9999,0.100000,99,0,0.000000,16,3.000000,27.018738,12.087401,99,99,0,0,0,0,0
8,89999,63,80000,30,0,40,9999,0.100000,99,0,0.000000,16,0.000000,26.354168,0.702897,99,99,0,0,0,0,0
8,89999,64,80000,93,50000,40,9999,0.100000,99,0,0.000000,16,1.000000,27.497111,5.774802,99,99,0,0,0,0,0
8,89999,65,80000,91,0,40,9999,0.100000,99,0,0.000000,16,0.000000,26.404259,1.114925,99,99,0,0,0,0,0
8,89999,66,80000,50,70000,40,9999,0.100000,99,0,0.000000,16,0.000000,25.912359,0.507980,99,99,0,0,0,0,0
8,89999,67,80000,78,0,40,9999,0.100000,99,0,0.000000,16,3.000000,29.685228,12.573058,99,99,0,0,0,0,0
8,89999,68,80000,91,0,41,9999,0.100000,99,0,0.000000,16,4.000000,29.186281,13.505918,99,99,0,0,0,0,0
8,89999,69,80000,80,30000,40,9999,0.100000,99,0,0.000000,16,1.000000,34.438012,3.702411,99,99,0,0,0,0,0
8,89999,70,80000,93,50000,0,9999,0.100000,99,0,0.690784,16,0.000000,24.272492,0.211232,99,99,0,0,0,0,1
8,89999,71,80000,93,50000,40,9999,0.100000,99,0,0.000000,16,0.000000,26.173484,0.627670,99,99,0,0,0,0,0
8,89999,72,80000,22,30000,40,9999,0.100000,99,0,0.000000,16,0.000000,25.804729,0.604475,99,99,0,0,0,0,0
8,89999,73,80000,30,0,40,9999,0.100000,99,0,0.000000,16,2.000000,31.681012,9.461155,99,99,0,0,0,0,0
8,89999,74,80000,22,20000,40,9999,0.100000,99,0,0.000000,16,0.000000,28.305634,1.719278,99,99,0,0,0,0,0
8,89999,75,80000,99,30000,40,9999,0.100000,99,0,0.000000,16,0.000000,28.421524,0.211814,99,99,0,0,0,0,0
8,89999,76,80000,93,50000,40,9999,0.100000,99,0,0.000000,16,0.000000,20.941653,0.580744,99,99,0,0,0,0,0
8,89999,77,80000,5,70000,40,9999,0.100000,99,0,0.000000,16,1.000000,26.199099,22.409233,99,99,0,0,0,0,0
8,89999,78,80000,5,70000,40,9999,0.100000,99,0,0.000000,16,1.000000,23.561624,2.082146,99,99,0,0,0,0,0
8,89999,79,80000,83,0,40,9999,0.100000,99,0,0.000000,16,0.000000,24.318209,0.210289,99,99,0,0,0,0,0
8,89999,80,80000,83,0,41,9999,0.100000,99,0,0.000000,16,4.000000,31.700350,12.759981,99,99,0,0,0,0,0
8,89999,81,80000,91,0,40,9999,0.100000,99,0,0.000000,16,0.000000,27.016267,2.068534,99,99,0,0,0,0,0
8,89999,82,80000,50,70000,40,9999,0.100000,99,0,0.000000,16,0.000000,26.812067,19.762028,99,99,0,0,0,0,0
8,89999,83,80000,80,30000,40,9999,0.100000,99,0,0.000000,16,0.000000,33.148880,0.585103,99,99,0,0,0,0,0
8,89999,84,80000,78,40000,42,9999,0.100000,99,0,0.000000,16,3.000000,13.078059,3.751175,99,99,0,0,0,0,0
8,89999,85,80000,91,0,40,9999,0.100000,99,0,0.000000,16,1.000000,35.348672,5.995771,99,99,0,0,0,0,0
8,89999,86,80000,53,60000,40,9999,0.100000,99,0,0.000000,16,0.000000,28.358484,4.515654,99,99,0,0,0,0,0
8,89999,87,80000,22,20000,40,9999,0.100000,99,0,0.000000,16,0.000000,19.600190,0.243640,99,99,0,0,0,0,0
8,89999,88,80000,22,30000,42,9999,0.100000,99,0,0.000000,16,3.000000,13.561624,3.747792,99,99,0,0,0,0,0
8,89999,89,80000,22,20000,40,9999,0.100000,99,0,0.000000,16,2.000000,34.678326,10.135555,99,99,0,0,0,0,0
8,89999,90,80000,22,30000,40,9999,0.100000,99,0,0.000000,16,2.000000,27.983150,3.555606,99,99,0,0,0,0,0
8,89999,91,80000,79,0,40,9999,0.100000,99,0,0.000000,16,0.000000,36.471144,0.948481,99,99,0,0,0,0,0
8,89999,92,80000,78,40000,40,9999,0.100000,99,0,0.000000,16,0.000000,26.199942,0.852951,99,99,0,0,0,0,0
8,89999,93,80000,86,0,40,9999,0.100000,99,0,0.000000,16,1.000000,15.497864,4.360085,99,99,0,0,0,0,0
8,89999,94,80000,31,0,40,9999,0.100000,99,0,0.000000,16,0.000000,26.917566,2.085852,99,99,0,0,0,0,0
8,89999,95,80000,5,70000,40,9999,0.065000,99,0,0.000000,16,0.000000,20.925094,22.081617,99,99,0,0,0,0,0
8,89999,96,80000,31,0,90,9999,0.100000,99,0,4.799630,16,0.000000,18.727265,2.650356,99,99,1,0,0,0,0
8,89999,97,80000,83,0,40,9999,0.100000,99,0,0.000000,16,0.000000,21.221091,0.142456,99,99,0,0,0,0,0
8,89999,98,80000,78,0,41,9999,0.100000,99,0,0.000000,16,3.000000,26.691739,13.041750,99,99,0,0,0,0,0
8,89999,99,80000,22,30000,40,9999,0.100000,99,0,0.000000,16,1.000000,26.954233,7.372317,99,99,0,0,0,0,0
9,99999,0,90000,50,70000,0,9999,0.100000,99,0,0.001328,16,0.000000,17.798099,0.099083,99,99,0,0,1,0,0
9,99999,1,90000,78,40000,40,9999,0.100000,99,0,0.000000,16,0.000000,29.888773,8.869332,99,99,0,0,0,0,0
9,99999,2,90000,22,20000,40,9999,0.100000,99,0,0.000000,16,0.000000,23.470950,7.324439,99,99,0,0,0,0,0
9,99999,3,90000,50,70000,40,9999,0.100000,99,0,0.000000,16,0.000000,28.594852,0.184724,99,99,0,0,0,0,0
9,99999,4,90000,50,70000,40,9999,0.100000,99,0,0.000000,16,1.000000,28.075499,6.640650,99,99,0,0,0,0,0
9,99999,5,90000,53,60000,40,9999,0.100000,99,0,0.000000,16,3.000000,28.859872,9.081547,99,99,0,0,0,0,0
9,99999,6,90000,78,0,40,9999,0.100000,99,0,0.000000,16,0.000000,17.254293,0.091306,99,99,0,0,0,0,0
9,99999,7,90000,5,70000,40,9999,0.100000,99,0,0.000000,16,0.000000,23.814155,23.834635,99,99,0,0,0,0,0
9,99999,8,90000,22,30000,0,9999,0.100000,99,0,0.383624,16,0.000000,28.604403,0.589434,99,99,0,0,0,0,1
9,99999,9,90000,78,0,0,9999,0.100000,99,0,0.038869,16,0.000000,21.347250,0.152968,99,99,0,0,0,1,0
9,99999,10,90000,50,70000,0,9999,0.100000,99,0,0.018235,16,0.000000,26.812712,0.521375,99,99,0,0,0,1,0
9,99999,11,90000,5,70000,0,9999,0.100000,99,0,0.119864,16,0.000000,26.243821,0.874480,99,99,0,0,0,0,1
9,99999,12,90000,91,0,40,9999,0.100000,99,0,0.000000,16,1.000000,24.621260,5.057492,99,99,0,0,0,0,0
9,99999,13,90000,50,70000,40,9999,0.100000,99,0,0.000000,16,1.000000,33.365486,14.589954,99,99,0,0,0,0,0
9,99999,14,90000,80,30000,40,9999,0.100000,99,0,0.000000,16,0.000000,28.631351,0.373656,99,99,0,0,0,0,0
9,99999,15,90000,5,70000,40,9999,0.100000,99,0,0.000000,16,1.000000,24.931608,6.504602,99,99,0,0,0,0,0
9,99999,16,90000,93,50000,40,9999,0.100000,99,0,0.000000,16,0.000000,20.987310,1.121709,99,99,0,0,0,0,0
9,99999,17,90000,78,40000,41,9999,0.100000,99,0,0.000000,16,5.000000,32.382381,11.162372,99,99,0,0,0,0,0
9,99999,18,90000,78,0,41,9999,0.100000,99,0,0.000000,16,6.000000,31.585628,13.634219,99,99,0,0,0,0,0
9,99999,19,90000,53,60000,41,9999,0.100000,99,0,0.000000,16,4.000000,31.569787,10.720226,99,99,0,0,0,0,0
9,99999,20,90000,86,0,40,9999,0.100000,99,0,0.000000,16,0.000000,21.334728,9.470280,99,99,0,0,0,0,0
9,99999,21,90000,79,0,0,9999,0.100000,99,0,0.317652,16,0.000000,34.574356,1.767823,99,99,0,0,0,1,0
9,99999,22,90000,78,40000,40,9999,0.100000,99,0,0.000000,16,0.000000,21.030155,0.269044,99,99,0,0,0,0,0
9,99999,23,90000,93,50000,0,9999,0.100000,99,0,0.626887,16,0.000000,26.097024,1.008759,99,99,0,1,0,0,0
9,99999,24,90000,22,20000,40,9999,0.100000,99,0,0.000000,16,0.000000,22.582877,0.930612,99,99,0,0,0,0,0
9,99999,25,90000,91,0,40,9999,0.100000,99,0,0.000000,16,0.000000,33.878315,4.956321,99,99,0,0,0,0,0
9,99999,26,90000,91,0,40,9999,0.100000,99,0,0.000000,16,0.000000,18.222674,2.053732,99,99,0,0,0,0,0
9,99999,27,90000,91,0,40,9999,0.100000,99,0,0.000000,16,0.000000,30.221934,0.643580,99,99,0,0,0,0,0
9,99999,28,90000,53,60000,40,9999,0.100000,99,0,0.000000,16,0.000000,26.431895,1.007693,99,99,0,0,0,0,0
9,99999,29,90000,5,70000,0,9999,0.100000,99,0,0.001056,16,0.000000,25.280042,0.086071,99,99,0,0,0,1,0
9,99999,30,90000,83,0,40,9999,0.100000,99,0,0.000000,16,0.000000,34.491366,4.641554,99,99,0,0,0,0,0
9,99999,31,90000,91,0,40,9999,0.100000,99,0,0.000000,16,2.000000,33.174422,14.861089,99,99,0,0,0,0,0
9,99999,32,90000,53,60000,41,9999,0.100000,99,0,0.000000,16,3.000000,27.852620,5.874601,99,99,0,0,0,0,0
9,99999,33,90000,78,0,40,9999,0.100000,99,0,0.000000,16,0.000000,22.401582,0.237965,99,99,0,0,0,0,0
9,99999,34,90000,22,20000,40,9999,0.100000,99,0,0.000000,16,0.000000,30.307508,0.458099,99,99,0,0,0,0,0
9,99999,35,90000,31,0,40,9999,0.100000,99,0,0.000000,16,0.000000,34.708470,0.243181,99,99,0,0,0,0,0
9,99999,36,90000,53,60000,0,9999,0.100000,99,0,2.661776,16,0.000000,16.038601,1.305212,99,99,0,0,0,1,0
9,99999,37,90000,30,0,40,9999,0.100000,99,0,0.000000,16,0.000000,18.142864,1.553165,99,99,0,0,0,0,0
9,99999,38,90000,99,30000,0,9999,0.100000,99,0,0.000479,16,0.000000,23.966528,0.183457,99,99,0,0,0,0,1
9,99999,39,90000,30,0,0,9999,0.100000,99,0,3.743468,16,1.000000,26.502773,1.346047,99,99,0,0,0,0,1
9,99999,40,90000,80,30000,40,9999,0.100000,99,0,0.000000,16,1.000000,26.546929,1.874781,99,99,0,0,0,0,0
9,99999,41,90000,79,0,40,9999,0.100000,99,0,0.000000,16,0.000000,33.508820,0.340948,99,99,0,0,0,0,0
9,99999,42,90000,5,70000,40,9999,0.100000,99,0,0.000000,16,0.000000,30.209529,5.741598,99,99,0,0,0,0,0
9,99999,43,90000,91,0,0,9999,0.100000,99,0,0.003433,16,0.000000,18.818039,0.133761,99,99,0,0,1,0,0
9,99999,44,90000,22,30000,40,9999,0.100000,99,0,0.000000,16,0.000000,25.628398,2.741083,99,99,0,0,0,0,0
9,99999,45,90000,30,0,40,9999,0.100000,99,0,0.000000,16,0.000000,26.363025,0.679530,99,99,0,0,0,0,0
9,99999,46,90000,53,60000,40,9999,0.100000,99,0,0.000000,16,2.000000,24.589118,7.220019,99,99,0,0,0,0,0
9,99999,47,90000,93,50000,40,9999,0.100000,99,0,0.000000,16,0.000000,31.430381,6.952241,99,99,0,0,0,0,0
9,99999,48,90000,30,0,40,9999,0.100000,99,0,0.000000,16,0.000000,26.712562,6.585700,99,99,0,0,0,0,0
9,99999,49,90000,83,0,0,9999,0.100000,99,0,0.025792,16,0.000000,24.547545,0.214936,99,99,0,1,0,0,0
9,99999,50,90000,53,60000,40,9999,0.100000,99,0,0.000000,16,0.000000,26.970562,1.006094,99,99,0,0,0,0,0
9,99999,51,90000,31,0,41,9999,0.100000,99,0,0.000000,16,3.000000,23.599702,13.850224,99,99,0,0,0,0,0
9,99999,52,90000,78,40000,40,9999,0.100000,99,0,0.000000,16,1.000000,28.833213,7.405628,99,99,0,0,0,0,0
9,99999,53,90000,83,0,40,9999,0.100000,99,0,0.000000,16,0.000000,24.205998,0.233784,99,99,0,0,0,0,0
9,99999,54,90000,22,20000,40,9999,0.100000,99,0,0.000000,16,2.000000,19.466961,6.200354,99,99,0,0,0,0,0
9,99999,55,90000,79,0,40,9999,0.100000,99,0,0.000000,16,0.000000,22.413941,1.278800,99,99,0,0,0,0,0
9,99999,56,90000,78,0,40,9999,0.100000,99,0,0.000000,16,3.000000,28.883552,11.308023,99,99,0,0,0,0,0
9,99999,57,90000,78,0,40,9999,0.100000,99,0,0.000000,16,0.000000,34.610059,0.585954,99,99,0,0,0,0,0
9,99999,58,90000,30,0,40,9999,0.100000,99,0,0.000000,16,0.000000,16.261522,1.456865,99,99,0,0,0,0,0
9,99999,59,90000,80,30000,0,9999,0.100000,99,0,0.333742,16,0.000000,13.761104,0.320791,99,99,0,0,1,0,0
9,99999,60,90000,93,50000,40,9999,0.100000,99,0,0.000000,16,0.000000,26.213955,0.767453,99,99,0,0,0,0,0
9,99999,61,90000,79,0,40,9999,0.100000,99,0,0.000000,16,0.000000,30.271692,0.283303,99,99,0,0,0,0,0
9,99999,62,90000,50,70000,40,9999,0.100000,99,0,0.000000,16,1.000000,27.949114,14.405396,99,99,0,0,0,0,0
9,99999,63,90000,22,30000,40,9999,0.100000,99,0,0.000000,16,0.000000,26.311177,0.695983,99,99,0,0,0,0,0
9,99999,64,90000,30,0,41,9999,0.100000,99,0,0.000000,16,5.000000,28.516001,19.656671,99,99,0,0,0,0,0
9,99999,65,90000,30,0,40,9999,0.100000,99,0,0.000000,16,0.000000,26.329529,1.324034,99,99,0,0,0,0,0
9,99999,66,90000,22,30000,40,9999,0.100000,99,0,0.000000,16,0.000000,26.378420,1.043601,99,99,0,0,0,0,0
9,99999,67,90000,79,0,40,9999,0.100000,99,0,0.000000,16,2.000000,27.627424,6.645364,99,99,0,0,0,0,0
9,99999,68,90000,30,0,40,9999,0.100000,99,0,0.000000,16,1.000000,27.812247,11.117369,99,99,0,0,0,0,0
9,99999,69,90000,30,0,40,9999,0.100000,99,0,0.000000,16,1.000000,35.805975,10.139237,99,99,0,0,0,0,0
9,99999,70,90000,53,60000,40,9999,0.100000,99,0,0.000000,16,0.000000,24.136295,0.177602,99,99,0,0,0,0,0
9,99999,71,90000,22,20000,40,9999,0.100000,99,0,0.000000,16,0.000000,26.172368,0.661032,99,99,0,0,0,0,0
9,99999,72,90000,86,0,40,9999,0.100000,99,0,0.000000,16,0.000000,26.246021,0.973885,99,99,0,0,0,0,0
9,99999,73,90000,78,0,40,9999,0.100000,99,0,0.000000,16,2.000000,33.013200,11.780864,99,99,0,0,0,0,0
9,99999,74,90000,31,0,40,9999,0.100000,99,0,0.000000,16,0.000000,28.595773,0.189117,99,99,0,0,0,0,0
9,99999,75,90000,99,30000,40,9999,0.100000,99,0,0.000000,16,0.000000,28.586886,0.574328,99,99,0,0,0,0,0
9,99999,76,90000,99,30000,40,9999,0.100000,99,0,0.000000,16,0.000000,20.901554,0.403720,99,99,0,0,0,0,0
9,99999,77,90000,53,60000,40,9999,0.100000,99,0,0.000000,16,1.000000,27.344589,4.748058,99,99,0,0,0,0,0
9,99999,78,90000,22,30000,47,9999,0.100000,99,0,0.000000,16,18.000000,22.515524,18.488934,99,99,0,0,0,0,0
9,99999,79,90000,22,30000,40,9999,0.100000,99,0,0.000000,16,0.000000,24.206719,0.110530,99,99,0,0,0,0,0
9,99999,80,90000,93,50000,40,9999,0.100000,99,0,0.000000,16,2.000000,33.473862,9.215950,99,99,0,0,0,0,0
9,99999,81,90000,78,0,40,9999,0.100000,99,0,0.000000,16,0.000000,26.858740,2.127625,99,99,0,0,0,0,0
9,99999,82,90000,31,0,43,9999,0.100000,99,0,0.000000,16,11.000000,26.753571,21.524802,99,99,0,0,0,0,0
9,99999,83,90000,83,0,40,9999,0.100000,99,0,0.000000,16,0.000000,33.342275,0.637379,99,99,0,0,0,0,0
9,99999,84,90000,91,0,40,9999,0.100000,99,0,0.000000,16,0.000000,15.916186,1.305033,99,99,0,0,0,0,0
9,99999,85,90000,99,30000,40,9999,0.100000,99,0,0.000000,16,0.000000,34.407600,4.640124,99,99,0,0,0,0,0
9,99999,86,90000,86,0,40,9999,0.100000,99,0,0.000000,16,2.000000,28.294126,8.199273,99,99,0,0,0,0,0
9,99999,87,90000,5,70000,40,9999,0.100000,99,0,0.000000,16,0.000000,19.598924,0.231124,99,99,0,0,0,0,0
9,99999,88,90000,80,30000,40,9999,0.100000,99,0,0.000000,16,0.000000,16.144768,1.256540,99,99,0,0,0,0,0
9,99999,89,90000,93,50000,40,9999,0.100000,99,0,0.000000,16,2.000000,33.429710,10.727354,99,99,0,0,0,0,0
9,99999,90,90000,80,30000,40,9999,0.100000,99,0,0.000000,16,0.000000,25.989163,1.007927,99,99,0,0,0,0,0
9,99999,91,90000,31,0,40,9999,0.100000,99,0,0.000000,16,0.000000,36.018424,0.933678,99,99,0,0,0,0,0
9,99999,92,90000,78,0,40,9999,0.100000,99,0,0.000000,16,1.000000,26.685139,1.796029,99,99,0,0,0,0,0
9,99999,93,90000,91,0,40,9999,0.100000,99,0,0.000000,16,0.000000,14.575637,3.230335,99,99,0,0,0,0,0
9,99999,94,90000,83,0,40,9999,0.100000,99,0,0.000000,16,0.000000,26.760658,2.128889,99,99,0,0,0,0,0
9,99999,95,90000,30,0,40,9999,0.100000,99,0,0.000000,16,0.000000,21.296691,21.603823,99,99,0,0,0,0,0
9,99999,96,90000,99,30000,91,9999,0.100000,99,0,16.628942,16,3.000000,19.424980,3.530942,99,99,1,0,0,0,0
9,99999,97,90000,78,0,40,9999,0.100000,99,0,0.000000,16,0.000000,21.194241,0.137062,99,99,0,0,0,0,0
9,99999,98,90000,86,0,40,9999,0.100000,99,0,0.000000,16,1.000000,26.056246,7.946400,99,99,0,0,0,0,0
9,99999,99,90000,78,0,40,9999,0.100000,99,0,0.000000,16,1.000000,25.699538,13.351331,99,99,0,0,0,0,0
10,109999,0,100000,86,0,0,9999,0.100000,99,0,0.001267,16,0.000000,17.797699,0.098011,99,99,0,0,1,0,0
10,109999,1,100000,83,0,40,9999,0.100000,99,0,0.000000,16,0.000000,30.010391,8.302790,99,99,0,0,0,0,0
10,109999,2,100000,99,30000,40,9999,0.100000,99,0,0.000000,16,2.000000,22.827654,10.044859,99,99,0,0,0,0,0
10,109999,3,100000,91,0,40,9999,0.100000,99,0,0.000000,16,0.000000,28.739608,0.731591,99,99,0,0,0,0,0
10,109999,4,100000,53,60000,40,9999,0.100000,99,0,0.000000,16,2.000000,29.556142,6.358353,99,99,0,0,0,0,0
10,109999,5,100000,30,0,41,9999,0.100000,99,0,0.000000,16,4.000000,29.694034,8.940609,99,99,0,0,0,0,0
10,109999,6,100000,22,20000,40,9999,0.100000,99,0,0.000000,16,0.000000,17.255222,0.088481,99,99,0,0,0,0,0
10,109999,7,100000,83,0,40,9999,0.100000,99,0,0.000000,16,1.000000,23.778502,23.132146,99,99,0,0,0,0,0
10,109999,8,100000,79,0,0,9999,0.100000,99,0,1.347103,16,0.000000,28.710779,0.520169,99,99,0,0,0,0,1
10,109999,9,100000,53,60000,0,9999,0.100000,99,0,0.091816,16,0.000000,21.339092,0.155611,99,99,0,0,0,1,0
10,109999,10,100000,5,70000,0,9999,0.100000,99,0,0.580885,16,0.000000,26.832827,0.395798,99,99,0,0,0,1,0
10,109999,11,100000,30,0,0,9999,0.100000,99,0,0.014124,16,0.000000,26.216333,0.914035,99,99,0,0,0,0,1
10,109999,12,100000,91,0,41,9999,0.100000,99,0,0.000000,16,3.000000,25.772734,10.025991,99,99,0,0,0,0,0
10,109999,13,100000,30,0,40,9999,0.100000,99,0,0.000000,16,2.000000,34.412820,18.715978,99,99,0,0,0,0,0
10,109999,14,100000,78,0,40,9999,0.100000,99,0,0.000000,16,0.000000,28.823656,0.612586,99,99,0,0,0,0,0
10,109999,15,100000,80,30000,40,9999,0.100000,99,0,0.000000,16,1.000000,23.424063,6.868944,99,99,0,0,0,0,0
10,109999,16,100000,30,0,40,9999,0.100000,99,0,0.000000,16,0.000000,21.644750,1.286488,99,99,0,0,0,0,0
10,109999,17,100000,22,30000,41,9999,0.100000,99,0,0.000000,16,4.000000,31.967794,8.962200,99,99,0,0,0,0,0
10,109999,18,100000,30,0,40,9999,0.100000,99,0,0.000000,16,2.000000,25.834544,15.692006,99,99,0,0,0,0,0
10,109999,19,100000,22,30000,40,9999,0.100000,99,0,0.000000,16,1.000000,29.175356,6.699342,99,99,0,0,0,0,0
10,109999,20,100000,83,0,40,9999,0.100000,99,0,0.000000,16,1.000000,21.287042,7.580399,99,99,0,0,0,0,0
10,109999,21,100000,93,50000,40,9999,0.100000,99,0,0.000000,16,0.000000,35.103141,0.270038,99,99,0,0,0,0,0
10,109999,22,100000,22,20000,40,9999,0.100000,99,0,0.000000,16,0.000000,21.032618,0.423482,99,99,0,0,0,0,0
10,109999,23,100000,30,0,0,9999,0.100000,99,0,0.395313,16,0.000000,26.153214,0.876491,99,99,0,1,0,0,0
10,109999,24,100000,53,60000,40,9999,0.100000,99,0,0.000000,16,0.000000,22.860755,0.875514,99,99,0,0,0,0,0
10,109999,25,100000,83,0,40,9999,0.065000,99,0,0.000000,16,0.000000,34.115908,0.231101,99,99,0,0,0,0,0
10,109999,26,100000,30,0,40,9999,0.100000,99,0,0.000000,16,0.000000,17.935491,0.971526,99,99,0,0,0,0,0
10,109999,27,100000,78,0,40,9999,0.100000,99,0,0.000000,16,0.000000,30.224198,0.646244,99,99,0,0,0,0,0
10,109999,28,100000,31,0,40,9999,0.100000,99,0,0.000000,16,0.000000,25.655139,1.027881,99,99,0,0,0,0,0
10,109999,29,100000,86,0,0,9999,0.100000,99,0,0.001844,16,0.000000,25.281544,0.087557,99,99,0,0,0,1,0
10,109999,30,100000,78,0,0,9999,0.100000,99,0,0.165895,16,0.000000,35.320740,0.675392,99,99,0,0,0,1,0
10,109999,31,100000,53,60000,41,9999,0.100000,99,0,0.000000,16,4.000000,33.473965,8.026100,99,99,0,0,0,0,0
10,109999,32,100000,50,70000,41,9999,0.100000,99,0,0.000000,16,5.000000,26.491494,11.361678,99,99,0,0,0,0,0
10,109999,33,100000,79,0,40,9999,0.100000,99,0,0.000000,16,0.000000,22.404611,0.230152,99,99,0,0,0,0,0
10,109999,34,100000,80,30000,40,9999,0.100000,99,0,0.000000,16,0.000000,30.311003,0.452049,99,99,0,0,0,0,0
10,109999,35,100000,86,0,40,9999,0.100000,99,0,0.000000,16,0.000000,34.708670,0.234480,99,99,0,0,0,0,0
10,109999,36,100000,22,30000,40,9999,0.100000,99,0,0.000000,16,1.000000,16.900376,2.123130,99,99,0,0,0,0,0
10,109999,37,100000,78,0,40,9999,0.100000,99,0,0.000000,16,0.000000,17.974388,2.495000,99,99,0,0,0,0,0
10,109999,38,100000,83,0,0,9999,0.100000,99,0,0.001372,16,0.000000,23.866379,0.121201,99,99,0,0,0,0,1
10,109999,39,100000,79,0,0,9999,0.100000,99,0,0.712175,16,0.000000,27.300443,0.524837,99,99,0,0,0,0,1
10,109999,40,100000,79,0,40,9999,0.100000,99,0,0.000000,16,0.000000,27.415471,0.743881,99,99,0,0,0,0,0
10,109999,41,100000,53,60000,40,9999,0.100000,99,0,0.000000,16,0.000000,33.493680,0.225155,99,99,0,0,0,0,0
10,109999,42,100000,78,0,40,9999,0.100000,99,0,0.000000,16,2.000000,29.826547,11.194224,99,99,0,0,0,0,0
10,109999,43,100000,22,30000,0,9999,0.100000,99,0,0.004553,16,0.000000,18.817603,0.137246,99,99,0,0,1,0,0
10,109999,44,100000,86,0,40,9999,0.100000,99,0,0.000000,16,1.000000,25.810786,8.774793,99,99,0,0,0,0,0
10,109999,45,100000,80,30000,40,9999,0.100000,99,0,0.000000,16,0.000000,26.310806,0.663537,99,99,0,0,0,0,0
10,109999,46,100000,22,20000,40,9999,0.100000,99,0,0.000000,16,1.000000,26.299100,8.228070,99,99,0,0,0,0,0
10,109999,47,100000,99,30000,40,9999,0.100000,99,0,0.000000,16,2.000000,30.897903,5.485829,99,99,0,0,0,0,0
10,109999,48,100000,30,0,40,9999,0.100000,99,0,0.000000,16,2.000000,27.289868,6.602784,99,99,0,0,0,0,0
10,109999,49,100000,83,0,0,9999,0.100000,99,0,3.637149,16,1.000000,24.493867,1.428330,99,99,0,1,0,0,0
10,109999,50,100000,78,40000,40,9999,0.100000,99,0,0.000000,16,0.000000,26.199655,1.028858,99,99,0,0,0,0,0
10,109999,51,100000,86,0,40,9999,0.100000,99,0,0.000000,16,1.000000,21.827040,8.447108,99,99,0,0,0,0,0
10,109999,52,100000,86,0,40,9999,0.100000,99,0,0.000000,16,0.000000,28.508809,4.400187,99,99,0,0,0,0,0
10,109999,53,100000,91,0,40,9999,0.100000,99,0,0.000000,16,0.000000,24.205713,0.238880,99,99,0,0,0,0,0
10,109999,54,100000,99,30000,40,9999,0.100000,99,0,0.000000,16,1.000000,20.384352,4.938982,99,99,0,0,0,0,0
10,109999,55,100000,78,0,40,9999,0.100000,99,0,0.000000,16,0.000000,22.739737,1.633656,99,99,0,0,0,0,0
10,109999,56,100000,91,0,41,9999,0.100000,99,0,0.000000,16,4.000000,28.673096,9.685840,99,99,0,0,0,0,0
10,109999,57,100000,93,50000,40,9999,0.100000,99,0,0.000000,16,0.000000,34.825058,0.236709,99,99,0,0,0,0,0
10,109999,58,100000,99,30000,0,9999,0.100000,99,0,5.718816,16,1.000000,17.042036,1.551318,99,99,0,0,0,1,0
10,109999,59,100000,83,0,0,9999,0.100000,99,0,0.252494,16,0.000000,13.597324,0.253946,99,99,0,0,1,0,0
10,109999,60,100000,5,70000,40,9999,0.100000,99,0,0.000000,16,0.000000,26.196660,0.834433,99,99,0,0,0,0,0
10,109999,61,100000,53,60000,40,9999,0.100000,99,0,0.000000,16,0.000000,30.275147,0.276136,99,99,0,0,0,0,0
10,109999,62,100000,78,0,40,9999,0.100000,99,0,0.000000,16,2.000000,28.199473,6.187261,99,99,0,0,0,0,0
10,109999,63,100000,83,0,40,9999,0.100000,99,0,0.000000,16,0.000000,26.271108,0.674686,99,99,0,0,0,0,0
10,109999,64,100000,5,70000,41,9999,0.100000,99,0,0.000000,16,4.000000,28.243977,8.689955,99,99,0,0,0,0,0
10,109999,65,100000,86,0,40,9999,0.100000,99,0,0.000000,16,0.000000,26.398787,1.172189,99,99,0,0,0,0,0
10,109999,66,100000,22,30000,40,9999,0.100000,99,0,0.000000,16,0.000000,27.098302,0.275916,99,99,0,0,0,0,0
10,109999,67,100000,22,30000,40,9999,0.100000,99,0,0.000000,16,1.000000,27.772022,4.295482,99,99,0,0,0,0,0
10,109999,68,100000,31,0,41,9999,0.135000,99,0,0.000000,16,4.000000,29.061703,6.926943,99,99,0,0,0,0,0
10,109999,69,100000,30,0,40,9999,0.100000,99,0,0.000000,16,0.000000,35.979402,0.324313,99,99,0,0,0,0,0
10,109999,70,100000,86,0,40,9999,0.100000,99,0,0.000000,16,0.000000,24.075414,0.169060,99,99,0,0,0,0,0
10,109999,71,100000,22,30000,40,9999,0.100000,99,0,0.000000,16,0.000000,26.168136,0.862739,99,99,0,0,0,0,0
10,109999,72,100000,5,70000,40,9999,0.100000,99,0,0.000000,16,0.000000,26.834258,0.434368,99,99,0,0,0,0,0
10,109999,73,100000,22,30000,40,9999,0.100000,99,0,0.000000,16,3.000000,33.695400,9.491472,99,99,0,0,0,0,0
10,109999,74,100000,79,0,40,9999,0.100000,99,0,0.000000,16,0.000000,28.761651,0.448846,99,99,0,0,0,0,0
10,109999,75,100000,79,0,40,9999,0.100000,99,0,0.000000,16,0.000000,28.712968,1.451948,99,99,0,0,0,0,0
10,109999,76,100000,99,30000,40,9999,0.100000,99,0,0.000000,16,0.000000,20.884154,0.406318,99,99,0,0,0,0,0
10,109999,77,100000,22,30000,40,9999,0.100000,99,0,0.000000,16,0.000000,27.725856,0.216162,99,99,0,0,0,0,0
10,109999,78,100000,93,50000,40,9999,0.100000,99,0,0.000000,16,0.000000,28.099657,0.189687,99,99,0,0,0,0,0
10,109999,79,100000,50,70000,40,9999,0.100000,99,0,0.000000,16,0.000000,24.162346,0.095855,99,99,0,0,0,0,0
10,109999,80,100000,30,0,41,9999,0.100000,99,0,0.000000,16,4.000000,31.571974,8.101993,99,99,0,0,0,0,0
10,109999,81,100000,78,0,40,9999,0.100000,99,0,0.000000,16,0.000000,26.692856,1.978203,99,99,0,0,0,0,0
10,109999,82,100000,93,50000,42,9999,0.100000,99,0,0.000000,16,4.000000,18.849680,4.743522,99,99,0,0,0,0,0
10,109999,83,100000,31,0,40,9999,0.100000,99,0,0.000000,16,0.000000,33.561676,0.667933,99,99,0,0,0,0,0
10,109999,84,100000,99,30000,41,9999,0.100000,99,0,0.000000,16,2.000000,16.836970,2.356465,99,99,0,0,0,0,0
10,109999,85,100000,30,0,40,9999,0.100000,99,0,0.000000,16,0.000000,35.233119,1.885697,99,99,0,0,0,0,0
10,109999,86,100000,31,0,41,9999,0.100000,99,0,0.000000,16,3.000000,27.168345,11.747553,99,99,0,0,0,0,0
10,109999,87,100000,78,40000,40,9999,0.100000,99,0,0.000000,16,0.000000,19.598033,0.241464,99,99,0,0,0,0,0
10,109999,88,100000,80,30000,40,9999,0.100000,99,0,0.000000,16,1.000000,16.964971,1.819273,99,99,0,0,0,0,0
10,109999,89,100000,22,30000,40,9999,0.100000,99,0,0.000000,16,3.000000,33.306951,8.698703,99,99,0,0,0,0,0
10,109999,90,100000,80,30000,40,9999,0.100000,99,0,0.000000,16,0.000000,25.228786,1.002596,99,99,0,0,0,0,0
10,109999,91,100000,86,0,40,9999,0.100000,99,0,0.000000,16,0.000000,35.580815,0.947409,99,99,0,0,0,0,0
10,109999,92,100000,86,0,40,9999,0.100000,99,0,0.000000,16,0.000000,27.538749,0.526310,99,99,0,0,0,0,0
10,109999,93,100000,86,0,40,9999,0.100000,99,0,0.000000,16,0.000000,14.209765,2.217026,99,99,0,0,0,0,0
10,109999,94,100000,53,60000,40,9999,0.100000,99,0,0.000000,16,0.000000,26.598721,1.962866,99,99,0,0,0,0,0
10,109999,95,100000,80,30000,40,9999,0.100000,99,0,0.000000,16,0.000000,21.345605,22.475016,99,99,0,0,0,0,0
10,109999,96,100000,99,30000,90,9999,0.100000,99,0,12.334267,16,2.000000,22.245724,2.749554,99,99,1,0,0,0,0
10,109999,97,100000,78,0,40,9999,0.100000,99,0,0.000000,16,0.000000,21.184575,0.121990,99,99,0,0,0,0,0
10,109999,98,100000,22,20000,40,9999,0.100000,99,0,0.000000,16,2.000000,26.470017,10.225919,99,99,0,0,0,0,0
10,109999,99,100000,22,20000,40,9999,0.100000,99,0,0.000000,16,1.000000,25.822958,6.138315,99,99,0,0,0,0,0
11,119999,0,110000,91,0,0,9999,0.100000,99,0,0.077130,16,0.000000,17.797125,0.159566,99,99,0,0,1,0,0
11,119999,1,110000,79,0,40,9999,0.100000,99,0,0.000000,16,1.000000,29.104817,6.384455,99,99,0,0,0,0,0
11,119999,2,110000,30,0,40,9999,0.100000,99,0,0.000000,16,0.000000,23.496831,9.111588,99,99,0,0,0,0,0
11,119999,3,110000,50,70000,0,9999,0.100000,99,0,0.800045,16,0.000000,29.112200,0.451137,99,99,0,0,0,0,1
11,119999,4,110000,50,70000,40,9999,0.100000,99,0,0.000000,16,2.000000,28.261455,12.056697,99,99,0,0,0,0,0
11,119999,5,110000,22,30000,41,9999,0.100000,99,0,0.000000,16,3.000000,25.148007,12.480296,99,99,0,0,0,0,0
11,119999,6,110000,22,20000,40,9999,0.100000,99,0,0.000000,16,0.000000,17.255574,0.110217,99,99,0,0,0,0,0
11,119999,7,110000,86,0,41,9999,0.100000,99,0,0.000000,16,3.000000,24.154961,25.575567,99,99,0,0,0,0,0
11,119999,8,110000,53,60000,40,9999,0.100000,99,0,0.000000,16,0.000000,29.038783,0.260221,99,99,0,0,0,0,0
11,119999,9,110000,78,0,0,9999,0.100000,99,0,0.103597,16,0.000000,21.314691,0.121277,99,99,0,0,0,1,0
11,119999,10,110000,78,0,0,9999,0.100000,99,0,0.783128,16,0.000000,26.746950,0.483015,99,99,0,0,0,1,0
11,119999,11,110000,53,60000,0,9999,0.100000,99,0,0.313172,16,0.000000,26.214774,0.883778,99,99,0,0,0,0,1
11,119999,12,110000,79,0,40,9999,0.100000,99,0,0.000000,16,1.000000,29.047250,5.933824,99,99,0,0,0,0,0
11,119999,13,110000,5,70000,40,9999,0.100000,99,0,0.000000,16,3.000000,33.738912,15.700308,99,99,0,0,0,0,0
11,119999,14,110000,78,0,40,9999,0.100000,99,0,0.000000,16,0.000000,29.249643,0.519835,99,99,0,0,0,0,0
11,119999,15,110000,91,0,40,9999,0.100000,99,0,0.000000,16,1.000000,24.253867,8.043901,99,99,0,0,0,0,0
11,119999,16,110000,30,0,40,9999,0.100000,99,0,0.000000,16,0.000000,22.485049,1.175999,99,99,0,0,0,0,0
11,119999,17,110000,53,60000,40,9999,0.100000,99,0,0.000000,16,0.000000,29.393393,6.025387,99,99,0,0,0,0,0
11,119999,18,110000,22,20000,40,9999,0.100000,99,0,0.000000,16,1.000000,24.001744,23.517817,99,99,0,0,0,0,0
11,119999,19,110000,79,0,40,9999,0.100000,99,0,0.000000,16,0.000000,27.689487,6.299608,99,99,0,0,0,0,0
11,119999,20,110000,86,0,40,9999,0.100000,99,0,0.000000,16,1.000000,23.140746,13.363840,99,99,0,0,0,0,0
11,119999,21,110000,80,30000,0,9999,0.100000,99,0,0.038186,16,0.000000,35.068515,0.159348,99,99,0,0,0,1,0
11,119999,22,110000,78,0,40,9999,0.100000,99,0,0.000000,16,0.000000,20.982297,0.394435,99,99,0,0,0,0,0
11,119999,23,110000,86,0,1,9999,0.100000,99,0,11.433120,16,3.000000,26.227919,12.946320,99,99,0,1,0,0,0
11,119999,24,110000,5,70000,40,9999,0.100000,99,0,0.000000,16,0.000000,23.174203,0.964311,99,99,0,0,0,0,0
11,119999,25,110000,83,0,40,9999,0.100000,99,0,0.000000,16,0.000000,34.116486,0.227851,99,99,0,0,0,0,0
11,119999,26,110000,31,0,40,9999,0.100000,99,0,0.000000,16,1.000000,17.593169,2.653301,99,99,0,0,0,0,0
11,119999,27,110000,93,50000,40,9999,0.100000,99,0,0.000000,16,0.000000,30.229637,0.602853,99,99,0,0,0,0,0
11,119999,28,110000,82,90000,40,9999,0.100000,99,0,0.000000,16,0.000000,24.889320,1.328615,99,99,0,0,0,0,0
11,119999,29,110000,5,70000,0,9999,0.100000,99,0,0.001325,16,0.000000,25.283503,0.088453,99,99,0,0,0,1,0
11,119999,30,110000,91,0,40,9999,0.100000,99,0,0.000000,16,0.000000,35.293148,0.150526,99,99,0,0,0,0,0
11,119999,31,110000,93,50000,40,9999,0.100000,99,0,0.000000,16,2.000000,30.558839,6.181060,99,99,0,0,0,0,0
11,119999,32,110000,86,0,40,9999,0.100000,99,0,0.000000,16,0.000000,22.048289,5.777092,99,99,0,0,0,0,0
11,119999,33,110000,22,30000,40,9999,0.100000,99,0,0.000000,16,0.000000,22.406370,0.229096,99,99,0,0,0,0,0
11,119999,34,110000,22,30000,40,9999,0.100000,99,0,0.000000,16,0.000000,30.315482,0.429467,99,99,0,0,0,0,0
11,119999,35,110000,31,0,40,9999,0.100000,99,0,0.000000,16,0.000000,34.709264,0.229692,99,99,0,0,0,0,0
11,119999,36,110000,50,70000,40,9999,0.100000,99,0,0.000000,16,1.000000,18.852036,1.688265,99,99,0,0,0,0,0
11,119999,37,110000,80,30000,40,9999,0.100000,99,0,0.000000,16,1.000000,17.657633,1.543862,99,99,0,0,0,0,0
11,119999,38,110000,82,90000,0,9999,0.100000,99,0,0.000048,16,0.000000,23.825835,0.059914,99,99,0,0,0,0,1
11,119999,39,110000,82,90000,0,9999,0.100000,99,0,0.670445,16,0.000000,27.377377,0.462048,99,99,0,0,0,0,1
11,119999,40,110000,53,60000,40,9999,0.100000,99,0,0.000000,16,0.000000,27.478359,0.771314,99,99,0,0,0,0,0
11,119999,41,110000,83,0,40,9999,0.100000,99,0,0.000000,16,0.000000,33.494400,0.230730,99,99,0,0,0,0,0
11,119999,42,110000,22,20000,40,9999,0.100000,99,0,0.000000,16,1.000000,28.061826,6.096511,99,99,0,0,0,0,0
11,119999,43,110000,82,90000,0,9999,0.100000,99,0,0.005698,16,0.000000,18.816085,0.139529,99,99,0,0,1,0,0
11,119999,44,110000,30,0,40,9999,0.100000,99,0,0.000000,16,0.000000,24.947039,3.911567,99,99,0,0,0,0,0
11,119999,45,110000,79,0,40,9999,0.100000,99,0,0.000000,16,0.000000,26.268726,0.649522,99,99,0,0,0,0,0
11,119999,46,110000,22,30000,40,9999,0.100000,99,0,0.000000,16,0.000000,25.912976,4.497405,99,99,0,0,0,0,0
11,119999,47,110000,82,90000,40,9999,0.100000,99,0,0.000000,16,1.000000,29.102655,7.728976,99,99,0,0,0,0,0
11,119999,48,110000,86,0,40,9999,0.100000,99,0,0.000000,16,1.000000,29.302488,7.413765,99,99,0,0,0,0,0
11,119999,49,110000,22,20000,40,9999,0.100000,99,0,0.000000,16,2.000000,24.777002,12.693493,99,99,0,0,0,0,0
11,119999,50,110000,91,0,40,9999,0.100000,99,0,0.000000,16,0.000000,25.428909,1.029110,99,99,0,0,0,0,0
11,119999,51,110000,99,30000,40,9999,0.100000,99,0,0.000000,16,0.000000,22.099362,6.872658,99,99,0,0,0,0,0
11,119999,52,110000,86,0,40,9999,0.100000,99,0,0.000000,16,0.000000,28.927332,0.664114,99,99,0,0,0,0,0
11,119999,53,110000,31,0,40,9999,0.100000,99,0,0.000000,16,0.000000,24.206805,0.226534,99,99,0,0,0,0,0
11,119999,54,110000,79,0,40,9999,0.100000,99,0,0.000000,16,2.000000,21.048342,6.657835,99,99,0,0,0,0,0
11,119999,55,110000,80,30000,40,9999,0.100000,99,0,0.000000,16,0.000000,23.056112,1.616084,99,99,0,0,0,0,0
11,119999,56,110000,91,0,41,9999,0.100000,99,0,0.000000,16,4.000000,25.593463,10.459324,99,99,0,0,0,0,0
11,119999,57,110000,80,30000,40,9999,0.100000,99,0,0.000000,16,0.000000,34.788582,0.180642,99,99,0,0,0,0,0
11,119999,58,110000,50,70000,0,9999,0.100000,99,0,3.128854,16,1.000000,18.518401,1.236610,99,99,0,0,0,1,0
11,119999,59,110000,83,0,0,9999,0.100000,99,0,0.243485,16,0.000000,13.539658,0.239257,99,99,0,0,1,0,0
11,119999,60,110000,93,50000,40,9999,0.100000,99,0,0.000000,16,0.000000,26.212641,0.944278,99,99,0,0,0,0,0
11,119999,61,110000,50,70000,40,9999,0.100000,99,0,0.000000,16,0.000000,30.279159,0.263278,99,99,0,0,0,0,0
11,119999,62,110000,78,0,40,9999,0.100000,99,0,0.000000,16,1.000000,28.240677,9.523435,99,99,0,0,0,0,0
11,119999,63,110000,80,30000,40,9999,0.135000,99,0,0.000000,16,0.000000,26.248610,0.667759,99,99,0,0,0,0,0
11,119999,64,110000,91,0,40,9999,0.100000,99,0,0.000000,16,1.000000,31.288422,9.008888,99,99,0,0,0,0,0
11,119999,65,110000,5,70000,0,9999,0.100000,99,0,11.433227,16,1.000000,26.474021,9.757798,99,99,0,1,0,0,0
11,119999,66,110000,31,0,40,9999,0.100000,99,0,0.000000,16,0.000000,27.188541,0.247624,99,99,0,0,0,0,0
11,119999,67,110000,83,0,41,9999,0.100000,99,0,0.000000,16,4.000000,26.792985,10.884658,99,99,0,0,0,0,0
11,119999,68,110000,86,0,40,9999,0.100000,99,0,0.000000,16,3.000000,31.909009,10.249967,99,99,0,0,0,0,0
11,119999,69,110000,30,0,40,9999,0.100000,99,0,0.000000,16,0.000000,35.794560,0.231329,99,99,0,0,0,0,0
11,119999,70,110000,31,0,40,9999,0.100000,99,0,0.000000,16,0.000000,24.047803,0.163042,99,99,0,0,0,0,0
11,119999,71,110000,31,0,40,9999,0.100000,99,0,0.000000,16,0.000000,26.202217,1.475429,99,99,0,0,0,0,0
11,119999,72,110000,91,0,40,9999,0.100000,99,0,0.000000,16,0.000000,26.945161,0.400325,99,99,0,0,0,0,0
11,119999,73,110000,50,70000,40,9999,0.100000,99,0,0.000000,16,3.000000,30.402519,11.454669,99,99,0,0,0,0,0
11,119999,74,110000,79,0,40,9999,0.100000,99,0,0.000000,16,0.000000,29.156986,0.372734,99,99,0,0,0,0,0
11,119999,75,110000,30,0,40,9999,0.100000,99,0,0.000000,16,0.000000,29.048629,0.572288,99,99,0,0,0,0,0
11,119999,76,110000,99,30000,40,9999,0.100000,99,0,0.000000,16,0.000000,20.832531,0.219246,99,99,0,0,0,0,0
11,119999,77,110000,78,0,40,9999,0.100000,99,0,0.000000,16,0.000000,27.779437,0.220568,99,99,0,0,0,0,0
11,119999,78,110000,80,30000,40,9999,0.100000,99,0,0.000000,16,0.000000,28.099952,0.186420,99,99,0,0,0,0,0
11,119999,79,110000,78,0,40,9999,0.100000,99,0,0.000000,16,0.000000,24.142140,0.066293,99,99,0,0,0,0,0
11,119999,80,110000,80,30000,41,9999,0.100000,99,0,0.000000,16,5.000000,34.521822,12.383374,99,99,0,0,0,0,0
11,119999,81,110000,93,50000,40,9999,0.100000,99,0,0.000000,16,0.000000,26.652215,1.833031,99,99,0,0,0,0,0
11,119999,82,110000,93,50000,40,9999,0.100000,99,0,0.000000,16,0.000000,18.484914,0.247062,99,99,0,0,0,0,0
11,119999,83,110000,80,30000,40,9999,0.100000,99,0,0.000000,16,0.000000,33.797591,0.887064,99,99,0,0,0,0,0
11,119999,84,110000,30,0,40,9999,0.100000,99,0,0.000000,16,1.000000,19.040320,2.027604,99,99,0,0,0,0,0
