generation,iteration,robot,birthday,ancestor_id,ancestor_birthday,cell_id,age,sigma,maps,genomes,fitness,cells_in_map,dist_max,dist_pot_max,dist_total,com_rx,com_tx,obj_group1,obj_group2,obj_group3,obj_group4,obj_group5
0,9999,0,0,0,0,49,9999,0.100000,0,0,0.000000,0,5.000000,0.000000,8.262278,0,0,0,0,0,0,0
0,9999,1,0,1,0,49,9999,0.100000,0,0,0.000000,0,10.000000,0.000000,13.449579,0,0,0,0,0,0,0
0,9999,2,0,2,0,49,9999,0.100000,0,0,0.000000,0,7.000000,0.000000,8.448178,0,0,0,0,0,0,0
0,9999,3,0,3,0,49,9999,0.100000,0,0,0.000000,0,4.000000,0.000000,4.527837,0,0,0,0,0,0,0
0,9999,4,0,4,0,49,9999,0.100000,0,0,0.000000,0,6.000000,0.000000,12.191715,0,0,0,0,0,0,0
0,9999,5,0,5,0,49,9999,0.100000,0,0,0.000000,0,9.000000,0.000000,15.835350,0,0,0,0,0,0,0
0,9999,6,0,6,0,49,9999,0.100000,0,0,0.000000,0,7.000000,0.000000,11.751091,0,0,0,0,0,0,0
0,9999,7,0,7,0,49,9999,0.100000,0,0,0.000000,0,8.000000,0.000000,8.073578,0,0,0,0,0,0,0
0,9999,8,0,8,0,49,9999,0.100000,0,0,0.000000,0,9.000000,0.000000,14.015385,0,0,0,0,0,0,0
0,9999,9,0,9,0,49,9999,0.100000,0,0,0.000000,0,12.000000,0.000000,22.344464,0,0,0,0,0,0,0
0,9999,10,0,10,0,49,9999,0.100000,0,0,0.000000,0,2.000000,0.000000,3.991472,0,0,0,0,0,0,0
0,9999,11,0,11,0,49,9999,0.100000,0,0,0.000000,0,6.000000,0.000000,9.729620,0,0,0,0,0,0,0
0,9999,12,0,12,0,49,9999,0.100000,0,0,0.000000,0,4.000000,0.000000,4.858013,0,0,0,0,0,0,0
0,9999,13,0,13,0,49,9999,0.100000,0,0,0.000000,0,12.000000,0.000000,16.106601,0,0,0,0,0,0,0
0,9999,14,0,14,0,49,9999,0.100000,0,0,0.000000,0,11.000000,0.000000,15.949085,0,0,0,0,0,0,0
0,9999,15,0,15,0,49,9999,0.100000,0,0,0.000000,0,7.000000,0.000000,12.409896,0,0,0,0,0,0,0
0,9999,16,0,16,0,49,9999,0.100000,0,0,0.000000,0,8.000000,0.000000,15.355279,0,0,0,0,0,0,0
0,9999,17,0,17,0,49,9999,0.100000,0,0,0.000000,0,3.000000,0.000000,4.508409,0,0,0,0,0,0,0
0,9999,18,0,18,0,49,9999,0.100000,0,0,0.000000,0,2.000000,0.000000,8.048227,0,0,0,0,0,0,0
0,9999,19,0,19,0,49,9999,0.100000,0,0,0.000000,0,10.000000,0.000000,27.248332,0,0,0,0,0,0,0
0,9999,20,0,20,0,49,9999,0.100000,0,0,0.000000,0,8.000000,0.000000,20.472383,0,0,0,0,0,0,0
0,9999,21,0,21,0,49,9999,0.100000,0,0,0.000000,0,6.000000,0.000000,7.032392,0,0,0,0,0,0,0
0,9999,22,0,22,0,49,9999,0.100000,0,0,0.000000,0,3.000000,0.000000,7.076703,0,0,0,0,0,0,0
0,9999,23,0,23,0,49,9999,0.100000,0,0,0.000000,0,9.000000,0.000000,12.853518,0,0,0,0,0,0,0
0,9999,24,0,24,0,49,9999,0.100000,0,0,0.000000,0,8.000000,0.000000,13.613705,0,0,0,0,0,0,0
0,9999,25,0,25,0,49,9999,0.100000,0,0,0.000000,0,9.000000,0.000000,28.123136,0,0,0,0,0,0,0
0,9999,26,0,26,0,49,9999,0.100000,0,0,0.000000,0,7.000000,0.000000,8.895823,0,0,0,0,0,0,0
0,9999,27,0,27,0,49,9999,0.100000,0,0,0.000000,0,6.000000,0.000000,12.832367,0,0,0,0,0,0,0
0,9999,28,0,28,0,49,9999,0.100000,0,0,0.000000,0,5.000000,0.000000,6.468619,0,0,0,0,0,0,0
0,9999,29,0,29,0,49,9999,0.100000,0,0,0.000000,0,8.000000,0.000000,9.785056,0,0,0,0,0,0,0
0,9999,30,0,30,0,49,9999,0.100000,0,0,0.000000,0,10.000000,0.000000,17.890584,0,0,0,0,0,0,0
0,9999,31,0,31,0,49,9999,0.100000,0,0,0.000000,0,8.000000,0.000000,8.801296,0,0,0,0,0,0,0
0,9999,32,0,32,0,49,9999,0.100000,0,0,0.000000,0,9.000000,0.000000,21.031684,0,0,0,0,0,0,0
0,9999,33,0,33,0,49,9999,0.100000,0,0,0.000000,0,7.000000,0.000000,10.155567,0,0,0,0,0,0,0
0,9999,34,0,34,0,49,9999,0.100000,0,0,0.000000,0,9.000000,0.000000,18.444665,0,0,0,0,0,0,0
0,9999,35,0,35,0,49,9999,0.100000,0,0,0.000000,0,5.000000,0.000000,10.575660,0,0,0,0,0,0,0
0,9999,36,0,36,0,49,9999,0.100000,0,0,0.000000,0,5.000000,0.000000,7.151817,0,0,0,0,0,0,0
0,9999,37,0,37,0,49,9999,0.100000,0,0,0.000000,0,9.000000,0.000000,23.298636,0,0,0,0,0,0,0
0,9999,38,0,38,0,49,9999,0.100000,0,0,0.000000,0,1.000000,0.000000,2.855670,0,0,0,0,0,0,0
0,9999,39,0,39,0,49,9999,0.100000,0,0,0.000000,0,7.000000,0.000000,10.761128,0,0,0,0,0,0,0
0,9999,40,0,40,0,49,9999,0.100000,0,0,0.000000,0,10.000000,0.000000,24.230724,0,0,0,0,0,0,0
0,9999,41,0,41,0,49,9999,0.100000,0,0,0.000000,0,11.000000,0.000000,13.595269,0,0,0,0,0,0,0
0,9999,42,0,42,0,49,9999,0.100000,0,0,0.000000,0,7.000000,0.000000,8.732182,0,0,0,0,0,0,0
0,9999,43,0,43,0,49,9999,0.100000,0,0,0.000000,0,9.000000,0.000000,10.537249,0,0,0,0,0,0,0
0,9999,44,0,44,0,49,9999,0.100000,0,0,0.000000,0,7.000000,0.000000,8.671714,0,0,0,0,0,0,0
0,9999,45,0,45,0,49,9999,0.100000,0,0,0.000000,0,5.000000,0.000000,10.297166,0,0,0,0,0,0,0
0,9999,46,0,46,0,49,9999,0.100000,0,0,0.000000,0,6.000000,0.000000,10.120654,0,0,0,0,0,0,0
0,9999,47,0,47,0,49,9999,0.100000,0,0,0.000000,0,9.000000,0.000000,9.894422,0,0,0,0,0,0,0
0,9999,48,0,48,0,49,9999,0.100000,0,0,0.000000,0,9.000000,0.000000,19.851114,0,0,0,0,0,0,0
0,9999,49,0,49,0,49,9999,0.100000,0,0,0.000000,0,10.000000,0.000000,15.971049,0,0,0,0,0,0,0
0,9999,50,0,50,0,49,9999,0.100000,0,0,0.000000,0,7.000000,0.000000,9.840572,0,0,0,0,0,0,0
0,9999,51,0,51,0,49,9999,0.100000,0,0,0.000000,0,11.000000,0.000000,18.608028,0,0,0,0,0,0,0
0,9999,52,0,52,0,49,9999,0.100000,0,0,0.000000,0,6.000000,0.000000,8.550675,0,0,0,0,0,0,0
0,9999,53,0,53,0,49,9999,0.100000,0,0,0.000000,0,8.000000,0.000000,29.547254,0,0,0,0,0,0,0
0,9999,54,0,54,0,49,9999,0.100000,0,0,0.000000,0,5.000000,0.000000,7.904955,0,0,0,0,0,0,0
0,9999,55,0,55,0,49,9999,0.100000,0,0,0.000000,0,6.000000,0.000000,7.468763,0,0,0,0,0,0,0
0,9999,56,0,56,0,49,9999,0.100000,0,0,0.000000,0,15.000000,0.000000,29.935920,0,0,0,0,0,0,0
0,9999,57,0,57,0,49,9999,0.100000,0,0,0.000000,0,9.000000,0.000000,10.519722,0,0,0,0,0,0,0
0,9999,58,0,58,0,49,9999,0.100000,0,0,0.000000,0,9.000000,0.000000,14.653412,0,0,0,0,0,0,0
0,9999,59,0,59,0,49,9999,0.100000,0,0,0.000000,0,7.000000,0.000000,12.582654,0,0,0,0,0,0,0
0,9999,60,0,60,0,49,9999,0.100000,0,0,0.000000,0,8.000000,0.000000,13.167606,0,0,0,0,0,0,0
0,9999,61,0,61,0,49,9999,0.100000,0,0,0.000000,0,8.000000,0.000000,23.970803,0,0,0,0,0,0,0
0,9999,62,0,62,0,49,9999,0.100000,0,0,0.000000,0,12.000000,0.000000,27.156233,0,0,0,0,0,0,0
0,9999,63,0,63,0,49,9999,0.100000,0,0,0.000000,0,6.000000,0.000000,22.002506,0,0,0,0,0,0,0
0,9999,64,0,64,0,49,9999,0.100000,0,0,0.000000,0,6.000000,0.000000,8.333619,0,0,0,0,0,0,0
0,9999,65,0,65,0,49,9999,0.100000,0,0,0.000000,0,6.000000,0.000000,9.876728,0,0,0,0,0,0,0
0,9999,66,0,66,0,49,9999,0.100000,0,0,0.000000,0,10.000000,0.000000,11.521669,0,0,0,0,0,0,0
0,9999,67,0,67,0,49,9999,0.100000,0,0,0.000000,0,8.000000,0.000000,10.483181,0,0,0,0,0,0,0
0,9999,68,0,68,0,49,9999,0.100000,0,0,0.000000,0,8.000000,0.000000,17.496908,0,0,0,0,0,0,0
0,9999,69,0,69,0,49,9999,0.100000,0,0,0.000000,0,10.000000,0.000000,15.474646,0,0,0,0,0,0,0
0,9999,70,0,70,0,49,9999,0.100000,0,0,0.000000,0,3.000000,0.000000,7.198225,0,0,0,0,0,0,0
0,9999,71,0,71,0,49,9999,0.100000,0,0,0.000000,0,3.000000,0.000000,7.361871,0,0,0,0,0,0,0
0,9999,72,0,72,0,49,9999,0.100000,0,0,0.000000,0,3.000000,0.000000,14.447832,0,0,0,0,0,0,0
0,9999,73,0,73,0,49,9999,0.100000,0,0,0.000000,0,4.000000,0.000000,10.796723,0,0,0,0,0,0,0
0,9999,74,0,74,0,49,9999,0.100000,0,0,0.000000,0,9.000000,0.000000,9.810443,0,0,0,0,0,0,0
0,9999,75,0,75,0,49,9999,0.100000,0,0,0.000000,0,5.000000,0.000000,6.411685,0,0,0,0,0,0,0
0,9999,76,0,76,0,49,9999,0.100000,0,0,0.000000,0,9.000000,0.000000,12.499751,0,0,0,0,0,0,0
0,9999,77,0,77,0,49,9999,0.100000,0,0,0.000000,0,11.000000,0.000000,20.187844,0,0,0,0,0,0,0
0,9999,78,0,78,0,49,9999,0.100000,0,0,0.000000,0,7.000000,0.000000,7.714212,0,0,0,0,0,0,0
0,9999,79,0,79,0,49,9999,0.100000,0,0,0.000000,0,8.000000,0.000000,9.986095,0,0,0,0,0,0,0
0,9999,80,0,80,0,49,9999,0.100000,0,0,0.000000,0,11.000000,0.000000,14.356201,0,0,0,0,0,0,0
0,9999,81,0,81,0,49,9999,0.100000,0,0,0.000000,0,4.000000,0.000000,5.165010,0,0,0,0,0,0,0
0,9999,82,0,82,0,49,9999,0.100000,0,0,0.000000,0,9.000000,0.000000,12.451402,0,0,0,0,0,0,0
0,9999,83,0,83,0,49,9999,0.100000,0,0,0.000000,0,8.000000,0.000000,14.566553,0,0,0,0,0,0,0
0,9999,84,0,84,0,49,9999,0.100000,0,0,0.000000,0,9.000000,0.000000,17.111806,0,0,0,0,0,0,0
0,9999,85,0,85,0,49,9999,0.100000,0,0,0.000000,0,9.000000,0.000000,12.930097,0,0,0,0,0,0,0
0,9999,86,0,86,0,49,9999,0.100000,0,0,0.000000,0,6.000000,0.000000,9.304863,0,0,0,0,0,0,0
0,9999,87,0,87,0,49,9999,0.100000,0,0,0.000000,0,9.000000,0.000000,15.902008,0,0,0,0,0,0,0
0,9999,88,0,88,0,49,9999,0.100000,0,0,0.000000,0,7.000000,0.000000,23.558623,0,0,0,0,0,0,0
0,9999,89,0,89,0,49,9999,0.100000,0,0,0.000000,0,9.000000,0.000000,10.180566,0,0,0,0,0,0,0
0,9999,90,0,90,0,49,9999,0.100000,0,0,0.000000,0,10.000000,0.000000,15.097032,0,0,0,0,0,0,0
0,9999,91,0,91,0,49,9999,0.100000,0,0,0.000000,0,9.000000,0.000000,13.198041,0,0,0,0,0,0,0
0,9999,92,0,92,0,49,9999,0.100000,0,0,0.000000,0,5.000000,0.000000,12.985619,0,0,0,0,0,0,0
0,9999,93,0,93,0,49,9999,0.100000,0,0,0.000000,0,9.000000,0.000000,26.595603,0,0,0,0,0,0,0
0,9999,94,0,94,0,99,9999,0.100000,0,0,47.368421,0,8.000000,0.000000,19.134617,0,0,1,0,0,0,0
0,9999,95,0,95,0,49,9999,0.100000,0,0,0.000000,0,10.000000,0.000000,13.293631,0,0,0,0,0,0,0
0,9999,96,0,96,0,49,9999,0.100000,0,0,0.000000,0,10.000000,0.000000,29.158723,0,0,0,0,0,0,0
0,9999,97,0,97,0,49,9999,0.100000,0,0,0.000000,0,13.000000,0.000000,22.438813,0,0,0,0,0,0,0
0,9999,98,0,98,0,49,9999,0.100000,0,0,0.000000,0,5.000000,0.000000,6.577767,0,0,0,0,0,0,0
0,9999,99,0,99,0,49,9999,0.100000,0,0,0.000000,0,9.000000,0.000000,21.612762,0,0,0,0,0,0,0
1,19999,0,10000,91,0,49,9999,0.100000,0,0,0.000000,2,1.000000,0.000000,1.897683,0,0,0,0,0,0,0
1,19999,1,10000,49,0,40,9999,0.100000,0,0,0.000000,3,0.000000,0.000000,2.912112,0,0,0,0,0,0,0
1,19999,2,10000,91,0,49,9999,0.100000,0,0,0.000000,2,1.000000,0.000000,1.415400,0,0,0,0,0,0,0
1,19999,3,10000,58,0,40,9999,0.100000,0,0,0.000000,2,0.000000,0.000000,0.096523,0,0,0,0,0,0,0
1,19999,4,10000,31,0,40,9999,0.100000,0,0,0.000000,2,0.000000,0.000000,0.401785,0,0,0,0,0,0,0
1,19999,5,10000,49,0,40,9999,0.100000,0,0,0.000000,3,0.000000,0.000000,1.786428,0,0,0,0,0,0,0
1,19999,6,10000,9,0,40,9999,0.100000,0,0,0.000000,2,0.000000,0.000000,0.606699,0,0,0,0,0,0,0
1,19999,7,10000,91,0,40,9999,0.100000,0,0,0.000000,2,0.000000,0.000000,0.069234,0,0,0,0,0,0,0
1,19999,8,10000,9,0,40,9999,0.100000,0,0,0.000000,3,0.000000,0.000000,0.390351,0,0,0,0,0,0,0
1,19999,9,0,9,0,49,19999,0.100000,0,0,0.000000,1,1.000000,0.000000,5.600368,0,0,0,0,0,0,0
1,19999,10,10000,9,0,40,9999,0.100000,0,0,0.000000,2,0.000000,0.000000,0.092871,0,0,0,0,0,0,0
1,19999,11,10000,9,0,40,9999,0.100000,0,0,0.000000,2,0.000000,0.000000,1.151967,0,0,0,0,0,0,0
1,19999,12,10000,9,0,40,9999,0.100000,0,0,0.000000,3,0.000000,0.000000,0.281930,0,0,0,0,0,0,0
1,19999,13,10000,91,0,49,9999,0.100000,0,0,0.000000,2,6.000000,0.000000,14.235686,0,0,0,0,0,0,0
1,19999,14,10000,94,0,40,9999,0.100000,0,0,0.000000,3,0.000000,0.000000,0.205239,0,0,0,0,0,0,0
1,19999,15,10000,9,0,40,9999,0.100000,0,0,0.000000,2,0.000000,0.000000,1.274282,0,0,0,0,0,0,0
1,19999,16,10000,9,0,40,9999,0.100000,0,0,0.000000,2,0.000000,0.000000,2.241991,0,0,0,0,0,0,0
1,19999,17,10000,91,0,40,9999,0.100000,0,0,0.000000,2,0.000000,0.000000,0.364668,0,0,0,0,0,0,0
1,19999,18,10000,9,0,40,9999,0.100000,0,0,0.000000,3,0.000000,0.000000,0.514959,0,0,0,0,0,0,0
1,19999,19,10000,94,0,40,9999,0.100000,0,0,0.000000,3,0.000000,0.000000,3.849385,0,0,0,0,0,0,0
1,19999,20,10000,9,0,49,9999,0.100000,0,0,0.000000,3,2.000000,0.000000,7.589078,0,0,0,0,0,0,0
1,19999,21,10000,31,0,40,9999,0.100000,0,0,0.000000,2,0.000000,0.000000,0.892224,0,0,0,0,0,0,0
1,19999,22,10000,49,0,49,9999,0.100000,0,0,0.000000,3,3.000000,0.000000,13.374161,0,0,0,0,0,0,0
1,19999,23,0,23,0,49,19999,0.100000,0,0,0.000000,2,1.000000,0.000000,2.372489,0,0,0,0,0,0,0
1,19999,24,10000,91,0,40,9999,0.100000,0,0,0.000000,2,0.000000,0.000000,0.655598,0,0,0,0,0,0,0
1,19999,25,10000,9,0,49,9999,0.100000,0,0,0.000000,2,1.000000,0.000000,2.895513,0,0,0,0,0,0,0
1,19999,26,10000,94,0,40,9999,0.100000,0,0,0.000000,3,0.000000,0.000000,0.095019,0,0,0,0,0,0,0
1,19999,27,10000,9,0,40,9999,0.100000,0,0,0.000000,2,0.000000,0.000000,0.532633,0,0,0,0,0,0,0
1,19999,28,10000,31,0,40,9999,0.100000,0,0,0.000000,2,0.000000,0.000000,0.509272,0,0,0,0,0,0,0
1,19999,29,10000,49,0,40,9999,0.100000,0,0,0.000000,3,0.000000,0.000000,0.983650,0,0,0,0,0,0,0
1,19999,30,10000,9,0,49,9999,0.100000,0,0,0.000000,3,1.000000,0.000000,9.630970,0,0,0,0,0,0,0
1,19999,31,0,31,0,40,19999,0.100000,0,0,0.000000,2,0.000000,0.000000,0.142416,0,0,0,0,0,0,0
1,19999,32,0,32,0,9,19999,0.100000,0,0,0.000000,2,3.000000,0.000000,5.002872,0,0,0,0,0,22,0
1,19999,33,10000,31,0,40,9999,0.100000,0,0,0.000000,2,0.000000,0.000000,0.208126,0,0,0,0,0,0,0
1,19999,34,10000,91,0,49,9999,0.100000,0,0,0.000000,2,2.000000,0.000000,13.440484,0,0,0,0,0,0,0
1,19999,35,10000,31,0,40,9999,0.100000,0,0,0.000000,2,0.000000,0.000000,0.120273,0,0,0,0,0,0,0
1,19999,36,10000,49,0,40,9999,0.100000,0,0,0.000000,3,0.000000,0.000000,0.180465,0,0,0,0,0,0,0
1,19999,37,10000,91,0,49,9999,0.100000,0,0,0.000000,3,3.000000,0.000000,14.219717,0,0,0,0,0,0,0
1,19999,38,10000,9,0,40,9999,0.100000,0,0,0.000000,3,0.000000,0.000000,0.247208,0,0,0,0,0,0,0
1,19999,39,10000,9,0,49,9999,0.100000,0,0,0.000000,2,1.000000,0.000000,1.884625,0,0,0,0,0,0,0
1,19999,40,10000,94,0,49,9999,0.100000,0,0,0.000000,3,1.000000,0.000000,5.966078,0,0,0,0,0,0,0
1,19999,41,10000,9,0,40,9999,0.100000,0,0,0.000000,3,0.000000,0.000000,0.081586,0,0,0,0,0,0,0
1,19999,42,0,42,0,40,19999,0.100000,0,0,0.000000,2,0.000000,0.000000,1.701601,0,0,0,0,0,0,0
1,19999,43,10000,94,0,40,9999,0.100000,0,0,0.000000,3,0.000000,0.000000,0.124801,0,0,0,0,0,0,0
1,19999,44,10000,49,0,40,9999,0.100000,0,0,0.000000,3,0.000000,0.000000,1.173932,0,0,0,0,0,0,0
1,19999,45,10000,9,0,40,9999,0.100000,0,0,0.000000,3,0.000000,0.000000,1.815578,0,0,0,0,0,0,0
1,19999,46,0,46,0,40,19999,0.100000,0,0,0.000000,3,0.000000,0.000000,0.103865,0,0,0,0,0,0,0
1,19999,47,10000,49,0,9,9999,0.100000,0,0,0.000000,3,2.000000,0.000000,5.445195,0,0,0,0,0,1,0
1,19999,48,0,48,0,40,19999,0.100000,0,0,0.000000,2,0.000000,0.000000,4.302005,0,0,0,0,0,0,0
1,19999,49,10000,94,0,40,9999,0.100000,0,0,0.000000,3,0.000000,0.000000,0.174817,0,0,0,0,0,0,0
1,19999,50,10000,9,0,40,9999,0.100000,0,0,0.000000,3,0.000000,0.000000,0.075239,0,0,0,0,0,0,0
1,19999,51,10000,9,0,40,9999,0.100000,0,0,0.000000,3,0.000000,0.000000,1.337165,0,0,0,0,0,0,0
1,19999,52,10000,9,0,40,9999,0.100000,0,0,0.000000,3,0.000000,0.000000,1.142465,0,0,0,0,0,0,0
1,19999,53,10000,94,0,40,9999,0.100000,0,0,0.000000,3,0.000000,0.000000,22.159684,0,0,0,0,0,0,0
1,19999,54,10000,9,0,40,9999,0.100000,0,0,0.000000,3,0.000000,0.000000,2.859593,0,0,0,0,0,0,0
1,19999,55,10000,9,0,40,9999,0.100000,0,0,0.000000,3,0.000000,0.000000,0.216184,0,0,0,0,0,0,0
1,19999,56,0,56,0,40,19999,0.100000,0,0,0.000000,2,0.000000,0.000000,2.293303,0,0,0,0,0,0,0
1,19999,57,0,57,0,49,19999,0.100000,0,0,0.000000,2,1.000000,0.000000,13.701847,0,0,0,0,0,0,0
1,19999,58,0,58,0,40,19999,0.100000,0,0,0.000000,2,0.000000,0.000000,0.805664,0,0,0,0,0,0,0
1,19999,59,10000,49,0,49,9999,0.100000,0,0,0.000000,3,2.000000,0.000000,5.673537,0,0,0,0,0,0,0
1,19999,60,10000,49,0,49,9999,0.100000,0,0,0.000000,3,1.000000,0.000000,1.366036,0,0,0,0,0,0,0
1,19999,61,10000,49,0,40,9999,0.100000,0,0,0.000000,3,0.000000,0.000000,0.810884,0,0,0,0,0,0,0
1,19999,62,10000,9,0,49,9999,0.100000,0,0,0.000000,2,5.000000,0.000000,10.144145,0,0,0,0,0,0,0
1,19999,63,10000,31,0,40,9999,0.100000,0,0,0.000000,2,0.000000,0.000000,0.708999,0,0,0,0,0,0,0
1,19999,64,0,64,0,40,19999,0.100000,0,0,0.000000,2,0.000000,0.000000,0.245061,0,0,0,0,0,0,0
1,19999,65,10000,49,0,49,9999,0.100000,0,0,0.000000,3,3.000000,0.000000,8.359348,0,0,0,0,0,0,0
1,19999,66,10000,49,0,40,9999,0.100000,0,0,0.000000,3,0.000000,0.000000,1.384203,0,0,0,0,0,0,0
1,19999,67,10000,9,0,40,9999,0.100000,0,0,0.000000,3,0.000000,0.000000,0.851950,0,0,0,0,0,0,0
1,19999,68,10000,94,0,49,9999,0.100000,0,0,0.000000,3,3.000000,0.000000,6.613838,0,0,0,0,0,0,0
1,19999,69,10000,94,0,49,9999,0.100000,0,0,0.000000,3,2.000000,0.000000,5.387048,0,0,0,0,0,0,0
1,19999,70,10000,9,0,40,9999,0.100000,0,0,0.000000,3,0.000000,0.000000,0.587699,0,0,0,0,0,0,0
1,19999,71,10000,49,0,49,9999,0.100000,0,0,0.000000,3,1.000000,0.000000,9.892420,0,0,0,0,0,0,0
1,19999,72,10000,9,0,49,9999,0.100000,0,0,0.000000,2,1.000000,0.000000,9.049282,0,0,0,0,0,0,0
1,19999,73,10000,9,0,40,9999,0.100000,0,0,0.000000,3,0.000000,0.000000,0.764916,0,0,0,0,0,0,0
1,19999,74,10000,9,0,40,9999,0.100000,0,0,0.000000,3,0.000000,0.000000,1.125355,0,0,0,0,0,0,0
1,19999,75,10000,9,0,40,9999,0.100000,0,0,0.000000,2,0.000000,0.000000,0.704144,0,0,0,0,0,0,0
1,19999,76,10000,9,0,49,9999,0.100000,0,0,0.000000,3,1.000000,0.000000,4.598324,0,0,0,0,0,0,0
1,19999,77,10000,91,0,40,9999,0.100000,0,0,0.000000,2,0.000000,0.000000,1.520371,0,0,0,0,0,0,0
1,19999,78,10000,31,0,40,9999,0.100000,0,0,0.000000,2,0.000000,0.000000,0.312702,0,0,0,0,0,0,0
1,19999,79,10000,91,0,40,9999,0.100000,0,0,0.000000,2,0.000000,0.000000,0.534364,0,0,0,0,0,0,0
1,19999,80,10000,94,0,40,9999,0.100000,0,0,0.000000,3,0.000000,0.000000,0.665257,0,0,0,0,0,0,0
1,19999,81,10000,9,0,40,9999,0.100000,0,0,0.000000,2,0.000000,0.000000,0.068499,0,0,0,0,0,0,0
1,19999,82,10000,9,0,9,9999,0.100000,0,0,0.000000,2,1.000000,0.000000,3.158146,0,0,0,0,0,1,0
1,19999,83,10000,9,0,49,9999,0.065000,0,0,0.000000,3,1.000000,0.000000,2.131083,0,0,0,0,0,0,0
1,19999,84,0,84,0,49,19999,0.100000,0,0,0.000000,2,1.000000,0.000000,7.612963,0,0,0,0,0,0,0
1,19999,85,10000,49,0,49,9999,0.100000,0,0,0.000000,3,1.000000,0.000000,1.857488,0,0,0,0,0,0,0
1,19999,86,10000,91,0,40,9999,0.100000,0,0,0.000000,2,0.000000,0.000000,0.219600,0,0,0,0,0,0,0
1,19999,87,0,87,0,40,19999,0.100000,0,0,0.000000,3,0.000000,0.000000,7.119271,0,0,0,0,0,0,0
1,19999,88,10000,49,0,40,9999,0.100000,0,0,0.000000,3,0.000000,0.000000,1.572108,0,0,0,0,0,0,0
1,19999,89,10000,49,0,40,9999,0.100000,0,0,0.000000,3,0.000000,0.000000,2.459637,0,0,0,0,0,0,0
1,19999,90,10000,31,0,40,9999,0.100000,0,0,0.000000,2,0.000000,0.000000,0.834627,0,0,0,0,0,0,0
1,19999,91,10000,91,0,9,9999,0.100000,0,0,0.000000,2,1.000000,0.000000,8.777952,0,0,0,0,0,1,0
1,19999,92,10000,49,0,40,9999,0.100000,0,0,0.000000,3,0.000000,0.000000,0.153096,0,0,0,0,0,0,0
1,19999,93,10000,31,0,40,9999,0.100000,0,0,0.000000,2,0.000000,0.000000,2.819572,0,0,0,0,0,0,0
1,19999,94,10000,94,0,40,9999,0.100000,0,0,0.000000,3,0.000000,0.000000,0.950359,0,0,0,0,0,0,0
1,19999,95,10000,49,0,40,9999,0.100000,0,0,0.000000,3,0.000000,0.000000,0.163360,0,0,0,0,0,0,0
1,19999,96,10000,94,0,40,9999,0.100000,0,0,0.000000,3,0.000000,0.000000,0.252360,0,0,0,0,0,0,0
1,19999,97,10000,49,0,49,9999,0.100000,0,0,0.000000,3,5.000000,0.000000,21.338232,0,0,0,0,0,0,0
1,19999,98,10000,31,0,49,9999,0.100000,0,0,0.000000,2,5.000000,0.000000,11.756390,0,0,0,0,0,0,0
1,19999,99,10000,49,0,49,9999,0.100000,0,0,0.000000,3,2.000000,0.000000,2.499465,0,0,0,0,0,0,0
2,29999,0,20000,1,10000,40,9999,0.100000,0,0,0.000000,5,0.000000,0.000000,0.405368,0,0,0,0,0,0,0
2,29999,1,20000,7,10000,40,9999,0.100000,0,0,0.000000,5,0.000000,0.000000,1.629274,0,0,0,0,0,0,0
2,29999,2,20000,1,10000,40,9999,0.100000,0,0,0.000000,5,0.000000,0.000000,0.444470,0,0,0,0,0,0,0
2,29999,3,20000,1,10000,40,9999,0.100000,0,0,0.000000,5,0.000000,0.000000,0.093713,0,0,0,0,0,0,0
2,29999,4,20000,1,10000,40,9999,0.100000,0,0,0.000000,5,0.000000,0.000000,0.337401,0,0,0,0,0,0,0
2,29999,5,20000,7,10000,40,9999,0.100000,0,0,0.000000,5,0.000000,0.000000,0.154772,0,0,0,0,0,0,0
2,29999,6,20000,7,10000,40,9999,0.100000,0,0,0.000000,5,0.000000,0.000000,0.175705,0,0,0,0,0,0,0
2,29999,7,20000,9,0,40,9999,0.100000,0,0,0.000000,5,0.000000,0.000000,0.504051,0,0,0,0,0,0,0
2,29999,8,20000,9,0,40,9999,0.100000,0,0,0.000000,4,0.000000,0.000000,0.724831,0,0,0,0,0,0,0
2,29999,9,20000,29,10000,40,9999,0.100000,0,0,0.000000,5,0.000000,0.000000,4.757312,0,0,0,0,0,0,0
2,29999,10,20000,94,0,40,9999,0.100000,0,0,0.000000,5,0.000000,0.000000,0.765785,0,0,0,0,0,0,0
2,29999,11,20000,8,10000,40,9999,0.100000,0,0,0.000000,4,0.000000,0.000000,1.179782,0,0,0,0,0,0,0
2,29999,12,20000,97,10000,40,9999,0.100000,0,0,0.000000,5,0.000000,0.000000,0.512903,0,0,0,0,0,0,0
2,29999,13,20000,1,10000,49,9999,0.100000,0,0,0.000000,5,13.000000,0.000000,19.890498,0,0,0,0,0,0,0
2,29999,14,20000,8,10000,40,9999,0.100000,0,0,0.000000,5,0.000000,0.000000,0.219890,0,0,0,0,0,0,0
2,29999,15,20000,97,10000,40,9999,0.100000,0,0,0.000000,5,0.000000,0.000000,1.124841,0,0,0,0,0,0,0
2,29999,16,20000,29,10000,40,9999,0.100000,0,0,0.000000,5,0.000000,0.000000,1.908102,0,0,0,0,0,0,0
2,29999,17,20000,49,0,40,9999,0.100000,0,0,0.000000,5,0.000000,0.000000,0.727259,0,0,0,0,0,0,0
2,29999,18,20000,9,0,40,9999,0.100000,0,0,0.000000,5,0.000000,0.000000,0.467448,0,0,0,0,0,0,0
2,29999,19,20000,97,10000,40,9999,0.100000,0,0,0.000000,5,0.000000,0.000000,1.391357,0,0,0,0,0,0,0
2,29999,20,20000,94,0,49,9999,0.100000,0,0,0.000000,5,2.000000,0.000000,5.270435,0,0,0,0,0,0,0
2,29999,21,20000,9,0,40,9999,0.100000,0,0,0.000000,5,0.000000,0.000000,0.796068,0,0,0,0,0,0,0
2,29999,22,20000,8,10000,99,9999,0.100000,0,0,34.210526,5,4.000000,0.000000,10.183537,0,0,1,0,0,0,0
2,29999,23,20000,94,0,40,9999,0.100000,0,0,0.000000,5,0.000000,0.000000,2.349305,0,0,0,0,0,0,0
2,29999,24,20000,9,0,40,9999,0.100000,0,0,0.000000,5,0.000000,0.000000,0.276959,0,0,0,0,0,0,0
2,29999,25,20000,94,0,40,9999,0.100000,0,0,0.000000,5,0.000000,0.000000,0.146181,0,0,0,0,0,0,0
2,29999,26,20000,7,10000,40,9999,0.100000,0,0,0.000000,5,0.000000,0.000000,0.100720,0,0,0,0,0,0,0
2,29999,27,20000,94,0,40,9999,0.100000,0,0,0.000000,5,0.000000,0.000000,0.731016,0,0,0,0,0,0,0
2,29999,28,20000,94,0,49,9999,0.100000,0,0,0.000000,5,1.000000,0.000000,1.053216,0,0,0,0,0,0,0
2,29999,29,20000,9,0,40,9999,0.100000,0,0,0.000000,5,0.000000,0.000000,1.785869,0,0,0,0,0,0,0
2,29999,30,20000,1,10000,49,9999,0.100000,0,0,0.000000,5,5.000000,0.000000,8.790148,0,0,0,0,0,0,0
2,29999,31,20000,74,10000,49,9999,0.100000,0,0,0.000000,5,1.000000,0.000000,2.697818,0,0,0,0,0,0,0
2,29999,32,20000,7,10000,40,9999,0.100000,0,0,0.000000,5,0.000000,0.000000,0.895042,0,0,0,0,0,0,0
2,29999,33,20000,1,10000,40,9999,0.100000,0,0,0.000000,5,0.000000,0.000000,0.166951,0,0,0,0,0,0,0
2,29999,34,20000,74,10000,49,9999,0.100000,0,0,0.000000,5,1.000000,0.000000,16.934060,0,0,0,0,0,0,0
2,29999,35,20000,94,0,40,9999,0.100000,0,0,0.000000,5,0.000000,0.000000,0.145830,0,0,0,0,0,0,0
2,29999,36,20000,97,10000,40,9999,0.100000,0,0,0.000000,5,0.000000,0.000000,0.170617,0,0,0,0,0,0,0
2,29999,37,20000,9,0,49,9999,0.100000,0,0,0.000000,5,1.000000,0.000000,4.515987,0,0,0,0,0,0,0
2,29999,38,20000,74,10000,40,9999,0.100000,0,0,0.000000,5,0.000000,0.000000,0.187412,0,0,0,0,0,0,0
2,29999,39,20000,29,10000,40,9999,0.100000,0,0,0.000000,5,0.000000,0.000000,0.528637,0,0,0,0,0,0,0
2,29999,40,20000,7,10000,40,9999,0.100000,0,0,0.000000,5,0.000000,0.000000,3.774727,0,0,0,0,0,0,0
2,29999,41,20000,94,0,40,9999,0.100000,0,0,0.000000,5,0.000000,0.000000,0.079507,0,0,0,0,0,0,0
2,29999,42,20000,97,10000,40,9999,0.100000,0,0,0.000000,5,0.000000,0.000000,1.012129,0,0,0,0,0,0,0
2,29999,43,20000,7,10000,40,9999,0.100000,0,0,0.000000,5,0.000000,0.000000,0.762746,0,0,0,0,0,0,0
2,29999,44,20000,97,10000,40,9999,0.100000,0,0,0.000000,5,0.000000,0.000000,0.336927,0,0,0,0,0,0,0
2,29999,45,20000,9,0,40,9999,0.100000,0,0,0.000000,5,0.000000,0.000000,1.530075,0,0,0,0,0,0,0
2,29999,46,20000,94,0,40,9999,0.100000,0,0,0.000000,5,0.000000,0.000000,0.065678,0,0,0,0,0,0,0
2,29999,47,20000,9,0,40,9999,0.100000,0,0,0.000000,5,0.000000,0.000000,0.825748,0,0,0,0,0,0,0
2,29999,48,20000,94,0,40,9999,0.100000,0,0,0.000000,5,0.000000,0.000000,0.245171,0,0,0,0,0,0,0
2,29999,49,20000,85,10000,40,9999,0.100000,0,0,0.000000,5,0.000000,0.000000,0.220438,0,0,0,0,0,0,0
2,29999,50,20000,97,10000,40,9999,0.100000,0,0,0.000000,5,0.000000,0.000000,0.129118,0,0,0,0,0,0,0
2,29999,51,20000,49,0,40,9999,0.100000,0,0,0.000000,5,0.000000,0.000000,0.932123,0,0,0,0,0,0,0
2,29999,52,20000,9,0,40,9999,0.100000,0,0,0.000000,5,0.000000,0.000000,1.079235,0,0,0,0,0,0,0
2,29999,53,20000,1,10000,40,9999,0.100000,0,0,0.000000,5,0.000000,0.000000,22.116378,0,0,0,0,0,0,0
2,29999,54,20000,1,10000,40,9999,0.100000,0,0,0.000000,5,0.000000,0.000000,2.190133,0,0,0,0,0,0,0
2,29999,55,20000,49,0,40,9999,0.100000,0,0,0.000000,5,0.000000,0.000000,0.229337,0,0,0,0,0,0,0
2,29999,56,20000,7,10000,49,9999,0.100000,0,0,0.000000,5,6.000000,0.000000,15.465866,0,0,0,0,0,0,0
2,29999,57,20000,9,0,40,9999,0.100000,0,0,0.000000,5,0.000000,0.000000,0.894304,0,0,0,0,0,0,0
2,29999,58,20000,97,10000,40,9999,0.100000,0,0,0.000000,5,0.000000,0.000000,0.273272,0,0,0,0,0,0,0
2,29999,59,20000,94,0,49,9999,0.100000,0,0,0.000000,5,1.000000,0.000000,2.211793,0,0,0,0,0,0,0
2,29999,60,20000,1,10000,40,9999,0.100000,0,0,0.000000,5,0.000000,0.000000,0.265744,0,0,0,0,0,0,0
2,29999,61,20000,8,10000,40,9999,0.100000,0,0,0.000000,5,0.000000,0.000000,0.098994,0,0,0,0,0,0,0
2,29999,62,10000,9,0,49,19999,0.100000,0,0,0.000000,5,2.000000,0.000000,6.475956,0,0,0,0,0,0,0
2,29999,63,20000,94,0,40,9999,0.100000,0,0,0.000000,5,0.000000,0.000000,0.467579,0,0,0,0,0,0,0
2,29999,64,20000,1,10000,40,9999,0.100000,0,0,0.000000,5,0.000000,0.000000,0.328992,0,0,0,0,0,0,0
2,29999,65,20000,74,10000,49,9999,0.100000,0,0,0.000000,5,5.000000,0.000000,6.305623,0,0,0,0,0,0,0
2,29999,66,20000,29,10000,40,9999,0.100000,0,0,0.000000,5,0.000000,0.000000,0.663492,0,0,0,0,0,0,0
2,29999,67,20000,94,0,40,9999,0.100000,0,0,0.000000,5,0.000000,0.000000,0.409827,0,0,0,0,0,0,0
2,29999,68,20000,8,10000,40,9999,0.100000,0,0,0.000000,5,0.000000,0.000000,0.982612,0,0,0,0,0,0,0
2,29999,69,20000,49,0,40,9999,0.100000,0,0,0.000000,5,0.000000,0.000000,0.145449,0,0,0,0,0,0,0
2,29999,70,20000,94,0,40,9999,0.100000,0,0,0.000000,5,0.000000,0.000000,0.885019,0,0,0,0,0,0,0
2,29999,71,20000,94,0,49,9999,0.100000,0,0,0.000000,5,2.000000,0.000000,12.163227,0,0,0,0,0,0,0
2,29999,72,20000,94,0,40,9999,0.100000,0,0,0.000000,5,0.000000,0.000000,0.950832,0,0,0,0,0,0,0
2,29999,73,20000,7,10000,49,9999,0.100000,0,0,0.000000,5,1.000000,0.000000,6.427895,0,0,0,0,0,0,0
2,29999,74,20000,94,0,40,9999,0.100000,0,0,0.000000,5,0.000000,0.000000,0.902465,0,0,0,0,0,0,0
2,29999,75,20000,7,10000,40,9999,0.100000,0,0,0.000000,5,0.000000,0.000000,0.685646,0,0,0,0,0,0,0
2,29999,76,20000,29,10000,40,9999,0.100000,0,0,0.000000,5,0.000000,0.000000,1.308866,0,0,0,0,0,0,0
2,29999,77,20000,9,0,40,9999,0.100000,0,0,0.000000,5,0.000000,0.000000,1.756463,0,0,0,0,0,0,0
2,29999,78,20000,8,10000,40,9999,0.100000,0,0,0.000000,5,0.000000,0.000000,0.736752,0,0,0,0,0,0,0
2,29999,79,20000,97,10000,49,9999,0.100000,0,0,0.000000,5,3.000000,0.000000,8.403794,0,0,0,0,0,0,0
2,29999,80,20000,74,10000,40,9999,0.100000,0,0,0.000000,5,0.000000,0.000000,0.170365,0,0,0,0,0,0,0
2,29999,81,20000,94,0,40,9999,0.100000,0,0,0.000000,5,0.000000,0.000000,0.073116,0,0,0,0,0,0,0
2,29999,82,20000,1,10000,40,9999,0.100000,0,0,0.000000,5,0.000000,0.000000,0.698712,0,0,0,0,0,0,0
2,29999,83,20000,97,10000,40,9999,0.100000,0,0,0.000000,5,0.000000,0.000000,0.991054,0,0,0,0,0,0,0
2,29999,84,20000,74,10000,49,9999,0.100000,0,0,0.000000,5,1.000000,0.000000,2.682966,0,0,0,0,0,0,0
2,29999,85,20000,1,10000,49,9999,0.100000,0,0,0.000000,5,7.000000,0.000000,14.998234,0,0,0,0,0,0,0
2,29999,86,20000,49,0,40,9999,0.100000,0,0,0.000000,5,0.000000,0.000000,0.179149,0,0,0,0,0,0,0
2,29999,87,20000,1,10000,49,9999,0.100000,0,0,0.000000,5,9.000000,0.000000,13.807224,0,0,0,0,0,0,0
2,29999,88,20000,9,0,49,9999,0.100000,0,0,0.000000,5,1.000000,0.000000,1.157529,0,0,0,0,0,0,0
2,29999,89,20000,7,10000,40,9999,0.100000,0,0,0.000000,5,0.000000,0.000000,2.061873,0,0,0,0,0,0,0
2,29999,90,20000,74,10000,40,9999,0.100000,0,0,0.000000,5,0.000000,0.000000,0.503156,0,0,0,0,0,0,0
2,29999,91,20000,74,10000,40,9999,0.100000,0,0,0.000000,5,0.000000,0.000000,0.425723,0,0,0,0,0,0,0
2,29999,92,20000,49,0,40,9999,0.100000,0,0,0.000000,5,0.000000,0.000000,0.163786,0,0,0,0,0,0,0
2,29999,93,20000,1,10000,49,9999,0.100000,0,0,0.000000,5,4.000000,0.000000,9.929092,0,0,0,0,0,0,0
2,29999,94,20000,9,0,40,9999,0.100000,0,0,0.000000,5,0.000000,0.000000,0.466501,0,0,0,0,0,0,0
2,29999,95,20000,9,0,40,9999,0.100000,0,0,0.000000,5,0.000000,0.000000,0.167465,0,0,0,0,0,0,0
2,29999,96,20000,9,0,40,9999,0.100000,0,0,0.000000,5,0.000000,0.000000,0.242761,0,0,0,0,0,0,0
2,29999,97,20000,94,0,40,9999,0.100000,0,0,0.000000,5,0.000000,0.000000,0.079698,0,0,0,0,0,0,0
2,29999,98,20000,7,10000,40,9999,0.100000,0,0,0.000000,5,0.000000,0.000000,0.165396,0,0,0,0,0,0,0
2,29999,99,20000,1,10000,40,9999,0.100000,0,0,0.000000,5,0.000000,0.000000,0.732859,0,0,0,0,0,0,0
3,39999,0,30000,49,10000,40,9999,0.100000,0,0,0.000000,5,0.000000,0.000000,0.291863,0,0,0,0,0,0,0
3,39999,1,30000,41,20000,40,9999,0.065000,0,0,0.000000,5,0.000000,0.000000,0.384734,0,0,0,0,0,0,0
3,39999,2,30000,41,20000,40,9999,0.100000,0,0,0.000000,5,0.000000,0.000000,0.278419,0,0,0,0,0,0,0
3,39999,3,30000,49,10000,40,9999,0.100000,0,0,0.000000,5,0.000000,0.000000,0.096206,0,0,0,0,0,0,0
3,39999,4,30000,41,20000,40,9999,0.100000,0,0,0.000000,5,0.000000,0.000000,0.489250,0,0,0,0,0,0,0
3,39999,5,30000,9,0,40,9999,0.100000,0,0,0.000000,5,0.000000,0.000000,0.586993,0,0,0,0,0,0,0
3,39999,6,30000,9,0,40,9999,0.100000,0,0,0.000000,5,0.000000,0.000000,0.190258,0,0,0,0,0,0,0
3,39999,7,30000,94,0,40,9999,0.100000,0,0,0.000000,5,0.000000,0.000000,1.771886,0,0,0,0,0,0,0
3,39999,8,30000,85,10000,40,9999,0.100000,0,0,0.000000,5,0.000000,0.000000,0.873860,0,0,0,0,0,0,0
3,39999,9,30000,85,10000,40,9999,0.100000,0,0,0.000000,5,0.000000,0.000000,0.301894,0,0,0,0,0,0,0
3,39999,10,30000,49,10000,49,9999,0.100000,0,0,0.000000,5,1.000000,0.000000,8.636885,0,0,0,0,0,0,0
3,39999,11,30000,94,0,49,9999,0.100000,0,0,0.000000,5,2.000000,0.000000,5.707105,0,0,0,0,0,0,0
3,39999,12,30000,49,10000,40,9999,0.100000,0,0,0.000000,5,0.000000,0.000000,0.232545,0,0,0,0,0,0,0
3,39999,13,30000,1,10000,40,9999,0.100000,0,0,0.000000,5,0.000000,0.000000,1.410082,0,0,0,0,0,0,0
3,39999,14,30000,1,10000,40,9999,0.100000,0,0,0.000000,5,0.000000,0.000000,0.231634,0,0,0,0,0,0,0
3,39999,15,30000,85,10000,40,9999,0.100000,0,0,0.000000,5,0.000000,0.000000,1.388242,0,0,0,0,0,0,0
3,39999,16,30000,94,0,40,9999,0.100000,0,0,0.000000,5,0.000000,0.000000,0.880051,0,0,0,0,0,0,0
3,39999,17,30000,1,10000,49,9999,0.100000,0,0,0.000000,5,1.000000,0.000000,13.317030,0,0,0,0,0,0,0
3,39999,18,30000,1,10000,40,9999,0.100000,0,0,0.000000,5,0.000000,0.000000,0.420895,0,0,0,0,0,0,0
3,39999,19,30000,85,10000,49,9999,0.100000,0,0,0.000000,5,4.000000,0.000000,15.052186,0,0,0,0,0,0,0
3,39999,20,30000,9,0,40,9999,0.100000,0,0,0.000000,5,0.000000,0.000000,0.085968,0,0,0,0,0,0,0
3,39999,21,30000,94,0,40,9999,0.100000,0,0,0.000000,5,0.000000,0.000000,1.216519,0,0,0,0,0,0,0
3,39999,22,30000,9,0,49,9999,0.100000,0,0,0.000000,5,1.000000,0.000000,16.283770,0,0,0,0,0,0,0
3,39999,23,30000,1,10000,40,9999,0.100000,0,0,0.000000,5,0.000000,0.000000,2.063633,0,0,0,0,0,0,0
3,39999,24,30000,41,20000,40,9999,0.100000,0,0,0.000000,5,0.000000,0.000000,0.165701,0,0,0,0,0,0,0
3,39999,25,30000,41,20000,49,9999,0.100000,0,0,0.000000,5,7.000000,0.000000,15.760278,0,0,0,0,0,0,0
3,39999,26,30000,94,0,40,9999,0.100000,0,0,0.000000,5,0.000000,0.000000,0.403042,0,0,0,0,0,0,0
3,39999,27,30000,1,10000,40,9999,0.100000,0,0,0.000000,5,0.000000,0.000000,0.743379,0,0,0,0,0,0,0
3,39999,28,30000,1,10000,40,9999,0.100000,0,0,0.000000,5,0.000000,0.000000,0.599944,0,0,0,0,0,0,0
3,39999,29,30000,1,10000,40,9999,0.100000,0,0,0.000000,5,0.000000,0.000000,1.136621,0,0,0,0,0,0,0
3,39999,30,30000,41,20000,49,9999,0.100000,0,0,0.000000,5,2.000000,0.000000,7.824889,0,0,0,0,0,0,0
3,39999,31,30000,1,10000,9,9999,0.100000,0,0,34.210526,5,9.000000,0.000000,12.142731,0,0,0,1,0,0,0
3,39999,32,30000,85,10000,40,9999,0.100000,0,0,0.000000,5,0.000000,0.000000,1.211317,0,0,0,0,0,0,0
3,39999,33,30000,41,20000,40,9999,0.100000,0,0,0.000000,5,0.000000,0.000000,0.119648,0,0,0,0,0,0,0
3,39999,34,30000,49,10000,49,9999,0.100000,0,0,0.000000,5,2.000000,0.000000,10.946618,0,0,0,0,0,0,0
3,39999,35,30000,94,0,40,9999,0.100000,0,0,0.000000,5,0.000000,0.000000,0.128983,0,0,0,0,0,0,0
3,39999,36,30000,94,0,40,9999,0.100000,0,0,0.000000,5,0.000000,0.000000,0.195568,0,0,0,0,0,0,0
3,39999,37,30000,85,10000,40,9999,0.100000,0,0,0.000000,5,0.000000,0.000000,0.078534,0,0,0,0,0,0,0
3,39999,38,30000,9,0,40,9999,0.100000,0,0,0.000000,5,0.000000,0.000000,0.258697,0,0,0,0,0,0,0
3,39999,39,30000,9,0,40,9999,0.100000,0,0,0.000000,5,0.000000,0.000000,0.544933,0,0,0,0,0,0,0
3,39999,40,30000,85,10000,40,9999,0.100000,0,0,0.000000,5,0.000000,0.000000,0.490041,0,0,0,0,0,0,0
3,39999,41,30000,94,0,40,9999,0.100000,0,0,0.000000,5,0.000000,0.000000,0.078118,0,0,0,0,0,0,0
3,39999,42,30000,94,0,40,9999,0.100000,0,0,0.000000,5,0.000000,0.000000,0.877990,0,0,0,0,0,0,0
3,39999,43,30000,49,10000,40,9999,0.100000,0,0,0.000000,5,0.000000,0.000000,0.824056,0,0,0,0,0,0,0
3,39999,44,30000,49,10000,40,9999,0.100000,0,0,0.000000,5,0.000000,0.000000,0.237262,0,0,0,0,0,0,0
3,39999,45,30000,9,0,40,9999,0.100000,0,0,0.000000,5,0.000000,0.000000,1.772463,0,0,0,0,0,0,0
3,39999,46,30000,9,0,40,9999,0.100000,0,0,0.000000,5,0.000000,0.000000,0.098891,0,0,0,0,0,0,0
3,39999,47,30000,94,0,40,9999,0.100000,0,0,0.000000,5,0.000000,0.000000,0.095358,0,0,0,0,0,0,0
3,39999,48,30000,85,10000,40,9999,0.100000,0,0,0.000000,5,0.000000,0.000000,0.157161,0,0,0,0,0,0,0
3,39999,49,30000,1,10000,40,9999,0.100000,0,0,0.000000,5,0.000000,0.000000,0.193991,0,0,0,0,0,0,0
3,39999,50,30000,94,0,40,9999,0.100000,0,0,0.000000,5,0.000000,0.000000,0.105345,0,0,0,0,0,0,0
3,39999,51,30000,1,10000,40,9999,0.100000,0,0,0.000000,5,0.000000,0.000000,0.892272,0,0,0,0,0,0,0
3,39999,52,30000,94,0,40,9999,0.100000,0,0,0.000000,5,0.000000,0.000000,18.815585,0,0,0,0,0,0,0
3,39999,53,30000,1,10000,9,9999,0.100000,0,0,34.210526,5,8.000000,0.000000,16.582780,0,0,0,1,0,0,0
3,39999,54,30000,94,0,40,9999,0.100000,0,0,0.000000,5,0.000000,0.000000,2.085576,0,0,0,0,0,0,0
3,39999,55,30000,94,0,49,9999,0.100000,0,0,0.000000,5,6.000000,0.000000,12.349409,0,0,0,0,0,0,0
3,39999,56,30000,85,10000,49,9999,0.100000,0,0,0.000000,5,5.000000,0.000000,13.396980,0,0,0,0,0,0,0
3,39999,57,30000,94,0,40,9999,0.100000,0,0,0.000000,5,0.000000,0.000000,0.406822,0,0,0,0,0,0,0
3,39999,58,30000,94,0,40,9999,0.100000,0,0,0.000000,5,0.000000,0.000000,0.553263,0,0,0,0,0,0,0
3,39999,59,30000,85,10000,40,9999,0.100000,0,0,0.000000,5,0.000000,0.000000,0.536919,0,0,0,0,0,0,0
3,39999,60,30000,85,10000,40,9999,0.100000,0,0,0.000000,5,0.000000,0.000000,0.166092,0,0,0,0,0,0,0
3,39999,61,30000,41,20000,40,9999,0.100000,0,0,0.000000,5,0.000000,0.000000,0.323066,0,0,0,0,0,0,0
3,39999,62,30000,85,10000,40,9999,0.100000,0,0,0.000000,5,0.000000,0.000000,1.255616,0,0,0,0,0,0,0
3,39999,63,30000,41,20000,49,9999,0.100000,0,0,0.000000,5,5.000000,0.000000,12.409596,0,0,0,0,0,0,0
3,39999,64,30000,41,20000,40,9999,0.100000,0,0,0.000000,5,0.000000,0.000000,0.684254,0,0,0,0,0,0,0
3,39999,65,30000,1,10000,49,9999,0.100000,0,0,0.000000,5,2.000000,0.000000,4.526185,0,0,0,0,0,0,0
3,39999,66,30000,94,0,40,9999,0.100000,0,0,0.000000,5,0.000000,0.000000,0.678416,0,0,0,0,0,0,0
3,39999,67,30000,94,0,40,9999,0.100000,0,0,0.000000,5,0.000000,0.000000,0.215243,0,0,0,0,0,0,0
3,39999,68,30000,49,10000,40,9999,0.100000,0,0,0.000000,5,0.000000,0.000000,0.750695,0,0,0,0,0,0,0
3,39999,69,30000,1,10000,40,9999,0.100000,0,0,0.000000,5,0.000000,0.000000,0.855109,0,0,0,0,0,0,0
3,39999,70,30000,94,0,40,9999,0.100000,0,0,0.000000,5,0.000000,0.000000,0.078857,0,0,0,0,0,0,0
3,39999,71,30000,41,20000,99,9999,0.100000,0,0,34.210526,5,6.000000,0.000000,11.587386,0,0,1,0,0,0,0
3,39999,72,30000,41,20000,49,9999,0.100000,0,0,0.000000,5,3.000000,0.000000,6.781271,0,0,0,0,0,0,0
3,39999,73,30000,94,0,40,9999,0.100000,0,0,0.000000,5,0.000000,0.000000,9.043012,0,0,0,0,0,0,0
3,39999,74,30000,94,0,40,9999,0.100000,0,0,0.000000,5,0.000000,0.000000,0.641003,0,0,0,0,0,0,0
3,39999,75,30000,41,20000,40,9999,0.100000,0,0,0.000000,5,0.000000,0.000000,0.579484,0,0,0,0,0,0,0
3,39999,76,30000,85,10000,40,9999,0.100000,0,0,0.000000,5,0.000000,0.000000,0.814503,0,0,0,0,0,0,0
3,39999,77,30000,85,10000,40,9999,0.100000,0,0,0.000000,5,0.000000,0.000000,2.734896,0,0,0,0,0,0,0
3,39999,78,30000,94,0,40,9999,0.100000,0,0,0.000000,5,0.000000,0.000000,0.123493,0,0,0,0,0,0,0
3,39999,79,30000,9,0,40,9999,0.100000,0,0,0.000000,5,0.000000,0.000000,2.396622,0,0,0,0,0,0,0
3,39999,80,30000,41,20000,40,9999,0.100000,0,0,0.000000,5,0.000000,0.000000,0.204030,0,0,0,0,0,0,0
3,39999,81,30000,9,0,40,9999,0.100000,0,0,0.000000,5,0.000000,0.000000,0.080316,0,0,0,0,0,0,0
3,39999,82,30000,94,0,40,9999,0.100000,0,0,0.000000,5,0.000000,0.000000,0.503517,0,0,0,0,0,0,0
3,39999,83,30000,94,0,40,9999,0.100000,0,0,0.000000,5,0.000000,0.000000,0.888883,0,0,0,0,0,0,0
3,39999,84,30000,85,10000,49,9999,0.100000,0,0,0.000000,5,5.000000,0.000000,5.814589,0,0,0,0,0,0,0
3,39999,85,30000,94,0,40,9999,0.100000,0,0,0.000000,5,0.000000,0.000000,0.434624,0,0,0,0,0,0,0
3,39999,86,30000,85,10000,40,9999,0.100000,0,0,0.000000,5,0.000000,0.000000,0.146237,0,0,0,0,0,0,0
3,39999,87,30000,85,10000,40,9999,0.100000,0,0,0.000000,5,0.000000,0.000000,1.649383,0,0,0,0,0,0,0
3,39999,88,30000,85,10000,40,9999,0.100000,0,0,0.000000,5,0.000000,0.000000,0.625084,0,0,0,0,0,0,0
3,39999,89,30000,9,0,40,9999,0.100000,0,0,0.000000,5,0.000000,0.000000,0.101647,0,0,0,0,0,0,0
3,39999,90,30000,9,0,40,9999,0.100000,0,0,0.000000,5,0.000000,0.000000,0.516844,0,0,0,0,0,0,0
3,39999,91,30000,9,0,40,9999,0.100000,0,0,0.000000,5,0.000000,0.000000,0.190811,0,0,0,0,0,0,0
3,39999,92,30000,94,0,40,9999,0.100000,0,0,0.000000,5,0.000000,0.000000,0.178932,0,0,0,0,0,0,0
3,39999,93,30000,94,0,40,9999,0.100000,0,0,0.000000,5,0.000000,0.000000,0.336398,0,0,0,0,0,0,0
3,39999,94,30000,94,0,40,9999,0.100000,0,0,0.000000,5,0.000000,0.000000,0.238445,0,0,0,0,0,0,0
3,39999,95,30000,9,0,40,9999,0.100000,0,0,0.000000,5,0.000000,0.000000,0.094421,0,0,0,0,0,0,0
3,39999,96,30000,49,10000,40,9999,0.135000,0,0,0.000000,5,0.000000,0.000000,0.237156,0,0,0,0,0,0,0
3,39999,97,30000,41,20000,40,9999,0.100000,0,0,0.000000,5,0.000000,0.000000,0.082200,0,0,0,0,0,0,0
3,39999,98,30000,94,0,40,9999,0.100000,0,0,0.000000,5,0.000000,0.000000,0.102832,0,0,0,0,0,0,0
3,39999,99,30000,1,10000,40,9999,0.100000,0,0,0.000000,5,0.000000,0.000000,0.400797,0,0,0,0,0,0,0
4,49999,0,40000,41,20000,40,9999,0.100000,0,0,0.000000,5,0.000000,0.000000,0.368905,0,0,0,0,0,0,0
4,49999,1,40000,1,10000,40,9999,0.100000,0,0,0.000000,5,0.000000,0.000000,0.428885,0,0,0,0,0,0,0
4,49999,2,40000,41,20000,40,9999,0.100000,0,0,0.000000,5,0.000000,0.000000,0.435011,0,0,0,0,0,0,0
4,49999,3,40000,1,10000,40,9999,0.100000,0,0,0.000000,6,0.000000,0.000000,0.099710,0,0,0,0,0,0,0
4,49999,4,40000,1,10000,40,9999,0.100000,0,0,0.000000,6,0.000000,0.000000,0.592207,0,0,0,0,0,0,0
4,49999,5,40000,1,10000,49,9999,0.100000,0,0,0.000000,5,1.000000,0.000000,1.474196,0,0,0,0,0,0,0
4,49999,6,40000,1,10000,40,9999,0.135000,0,0,0.000000,6,0.000000,0.000000,0.134754,0,0,0,0,0,0,0
4,49999,7,40000,85,30000,40,9999,0.100000,0,0,0.000000,6,0.000000,0.000000,1.245584,0,0,0,0,0,0,0
4,49999,8,40000,94,0,40,9999,0.100000,0,0,0.000000,5,0.000000,0.000000,1.074271,0,0,0,0,0,0,0
4,49999,9,40000,13,30000,40,9999,0.100000,0,0,0.000000,6,0.000000,0.000000,0.256045,0,0,0,0,0,0,0
4,49999,10,40000,85,10000,40,9999,0.100000,0,0,0.000000,6,0.000000,0.000000,1.860414,0,0,0,0,0,0,0
4,49999,11,40000,1,10000,40,9999,0.100000,0,0,0.000000,5,0.000000,0.000000,3.001022,0,0,0,0,0,0,0
4,49999,12,40000,9,0,40,9999,0.100000,0,0,0.000000,6,0.000000,0.000000,0.197386,0,0,0,0,0,0,0
4,49999,13,40000,13,30000,99,9999,0.100000,0,0,64.773070,6,8.000000,0.000000,10.009000,0,0,1,0,0,0,0
4,49999,14,40000,94,0,40,9999,0.100000,0,0,0.000000,5,0.000000,0.000000,0.224535,0,0,0,0,0,0,0
4,49999,15,40000,85,10000,40,9999,0.100000,0,0,0.000000,6,0.000000,0.000000,1.323172,0,0,0,0,0,0,0
4,49999,16,40000,1,10000,40,9999,0.100000,0,0,0.000000,6,0.000000,0.000000,0.501864,0,0,0,0,0,0,0
4,49999,17,40000,1,10000,40,9999,0.100000,0,0,0.000000,6,0.000000,0.000000,4.235940,0,0,0,0,0,0,0
4,49999,18,40000,9,0,40,9999,0.100000,0,0,0.000000,5,0.000000,0.000000,0.422889,0,0,0,0,0,0,0
4,49999,19,40000,1,10000,40,9999,0.100000,0,0,0.000000,5,0.000000,0.000000,1.053130,0,0,0,0,0,0,0
4,49999,20,40000,85,10000,40,9999,0.100000,0,0,0.000000,6,0.000000,0.000000,0.088629,0,0,0,0,0,0,0
4,49999,21,40000,13,30000,40,9999,0.100000,0,0,0.000000,6,0.000000,0.000000,0.993239,0,0,0,0,0,0,0
4,49999,22,40000,85,10000,40,9999,0.100000,0,0,0.000000,6,0.000000,0.000000,22.821818,0,0,0,0,0,0,0
4,49999,23,40000,41,20000,49,9999,0.100000,0,0,0.000000,5,1.000000,0.000000,4.688206,0,0,0,0,0,0,0
4,49999,24,40000,1,10000,40,9999,0.100000,0,0,0.000000,6,0.000000,0.000000,0.135196,0,0,0,0,0,0,0
4,49999,25,40000,85,10000,49,9999,0.100000,0,0,0.000000,5,7.000000,0.000000,15.754622,0,0,0,0,0,0,0
4,49999,26,40000,85,10000,40,9999,0.100000,0,0,0.000000,6,0.000000,0.000000,0.068310,0,0,0,0,0,0,0
4,49999,27,40000,9,0,40,9999,0.100000,0,0,0.000000,5,0.000000,0.000000,0.061842,0,0,0,0,0,0,0
4,49999,28,40000,41,20000,40,9999,0.100000,0,0,0.000000,5,0.000000,0.000000,0.322857,0,0,0,0,0,0,0
4,49999,29,40000,41,20000,40,9999,0.100000,0,0,0.000000,5,0.000000,0.000000,1.450956,0,0,0,0,0,0,0
4,49999,30,40000,13,30000,49,9999,0.100000,0,0,0.000000,6,5.000000,0.000000,9.682349,0,0,0,0,0,0,0
4,49999,31,40000,85,10000,40,9999,0.100000,0,0,0.000000,5,0.000000,0.000000,0.495350,0,0,0,0,0,0,0
4,49999,32,40000,1,10000,40,9999,0.100000,0,0,0.000000,5,0.000000,0.000000,0.671252,0,0,0,0,0,0,0
4,49999,33,40000,1,10000,40,9999,0.100000,0,0,0.000000,5,0.000000,0.000000,0.119876,0,0,0,0,0,0,0
4,49999,34,40000,41,20000,49,9999,0.100000,0,0,0.000000,5,1.000000,0.000000,1.544657,0,0,0,0,0,0,0
4,49999,35,40000,94,0,40,9999,0.100000,0,0,0.000000,5,0.000000,0.000000,0.116030,0,0,0,0,0,0,0
4,49999,36,40000,41,20000,40,9999,0.100000,0,0,0.000000,5,0.000000,0.000000,0.187519,0,0,0,0,0,0,0
4,49999,37,40000,1,10000,40,9999,0.100000,0,0,0.000000,5,0.000000,0.000000,0.068271,0,0,0,0,0,0,0
4,49999,38,40000,94,0,40,9999,0.100000,0,0,0.000000,5,0.000000,0.000000,0.171906,0,0,0,0,0,0,0
4,49999,39,40000,41,20000,40,9999,0.100000,0,0,0.000000,5,0.000000,0.000000,0.548278,0,0,0,0,0,0,0
4,49999,40,40000,1,10000,40,9999,0.100000,0,0,0.000000,5,0.000000,0.000000,1.064928,0,0,0,0,0,0,0
4,49999,41,40000,9,0,40,9999,0.100000,0,0,0.000000,5,0.000000,0.000000,0.081767,0,0,0,0,0,0,0
4,49999,42,40000,41,20000,40,9999,0.100000,0,0,0.000000,6,0.000000,0.000000,0.509864,0,0,0,0,0,0,0
4,49999,43,40000,9,0,40,9999,0.100000,0,0,0.000000,6,0.000000,0.000000,0.632222,0,0,0,0,0,0,0
4,49999,44,40000,1,10000,40,9999,0.100000,0,0,0.000000,5,0.000000,0.000000,0.155484,0,0,0,0,0,0,0
4,49999,45,40000,9,0,40,9999,0.100000,0,0,0.000000,6,0.000000,0.000000,0.672650,0,0,0,0,0,0,0
4,49999,46,40000,85,10000,40,9999,0.100000,0,0,0.000000,6,0.000000,0.000000,0.135717,0,0,0,0,0,0,0
4,49999,47,40000,85,30000,40,9999,0.100000,0,0,0.000000,6,0.000000,0.000000,0.134453,0,0,0,0,0,0,0
4,49999,48,40000,41,20000,40,9999,0.100000,0,0,0.000000,5,0.000000,0.000000,0.125419,0,0,0,0,0,0,0
4,49999,49,40000,85,10000,40,9999,0.100000,0,0,0.000000,5,0.000000,0.000000,0.195887,0,0,0,0,0,0,0
4,49999,50,40000,94,0,40,9999,0.100000,0,0,0.000000,5,0.000000,0.000000,0.097140,0,0,0,0,0,0,0
4,49999,51,40000,41,20000,40,9999,0.100000,0,0,0.000000,5,0.000000,0.000000,1.250077,0,0,0,0,0,0,0
4,49999,52,40000,41,20000,40,9999,0.100000,0,0,0.000000,5,0.000000,0.000000,22.166593,0,0,0,0,0,0,0
4,49999,53,40000,94,0,40,9999,0.100000,0,0,0.000000,6,0.000000,0.000000,0.928810,0,0,0,0,0,0,0
4,49999,54,40000,85,10000,40,9999,0.100000,0,0,0.000000,5,0.000000,0.000000,1.195472,0,0,0,0,0,0,0
4,49999,55,40000,94,0,40,9999,0.100000,0,0,0.000000,5,0.000000,0.000000,0.213836,0,0,0,0,0,0,0
4,49999,56,40000,1,10000,49,9999,0.100000,0,0,0.000000,5,5.000000,0.000000,12.835992,0,0,0,0,0,0,0
4,49999,57,40000,13,30000,40,9999,0.100000,0,0,0.000000,6,0.000000,0.000000,0.510223,0,0,0,0,0,0,0
4,49999,58,40000,9,0,49,9999,0.100000,0,0,0.000000,5,1.000000,0.000000,1.461326,0,0,0,0,0,0,0
4,49999,59,40000,85,10000,40,9999,0.100000,0,0,0.000000,5,0.000000,0.000000,0.511046,0,0,0,0,0,0,0
4,49999,60,40000,13,30000,49,9999,0.100000,0,0,0.000000,6,2.000000,0.000000,5.364170,0,0,0,0,0,0,0
4,49999,61,40000,9,0,40,9999,0.100000,0,0,0.000000,5,0.000000,0.000000,0.133469,0,0,0,0,0,0,0
4,49999,62,40000,85,10000,49,9999,0.100000,0,0,0.000000,5,1.000000,0.000000,2.289520,0,0,0,0,0,0,0
4,49999,63,40000,13,30000,40,9999,0.100000,0,0,0.000000,6,0.000000,0.000000,0.458625,0,0,0,0,0,0,0
4,49999,64,40000,85,10000,49,9999,0.100000,0,0,0.000000,6,1.000000,0.000000,1.466979,0,0,0,0,0,0,0
4,49999,65,40000,94,0,49,9999,0.100000,0,0,0.000000,6,4.000000,0.000000,12.699056,0,0,0,0,0,0,0
4,49999,66,40000,41,20000,40,9999,0.100000,0,0,0.000000,5,0.000000,0.000000,0.712675,0,0,0,0,0,0,0
4,49999,67,40000,85,10000,40,9999,0.100000,0,0,0.000000,6,0.000000,0.000000,0.233947,0,0,0,0,0,0,0
4,49999,68,40000,41,20000,40,9999,0.100000,0,0,0.000000,5,0.000000,0.000000,1.232694,0,0,0,0,0,0,0
4,49999,69,40000,41,20000,49,9999,0.100000,0,0,0.000000,5,5.000000,0.000000,23.758269,0,0,0,0,0,0,0
4,49999,70,40000,1,10000,40,9999,0.100000,0,0,0.000000,5,0.000000,0.000000,0.160953,0,0,0,0,0,0,0
4,49999,71,40000,85,10000,49,9999,0.100000,0,0,0.000000,5,5.000000,0.000000,11.095022,0,0,0,0,0,0,0
4,49999,72,40000,1,10000,40,9999,0.100000,0,0,0.000000,5,0.000000,0.000000,0.222366,0,0,0,0,0,0,0
4,49999,73,40000,9,0,40,9999,0.100000,0,0,0.000000,6,0.000000,0.000000,0.686075,0,0,0,0,0,0,0
4,49999,74,40000,94,0,40,9999,0.100000,0,0,0.000000,6,0.000000,0.000000,0.502235,0,0,0,0,0,0,0
4,49999,75,40000,9,0,40,9999,0.100000,0,0,0.000000,6,0.000000,0.000000,1.638438,0,0,0,0,0,0,0
4,49999,76,40000,1,10000,40,9999,0.100000,0,0,0.000000,5,0.000000,0.000000,0.875261,0,0,0,0,0,0,0
4,49999,77,40000,9,0,40,9999,0.100000,0,0,0.000000,5,0.000000,0.000000,0.715241,0,0,0,0,0,0,0
4,49999,78,40000,94,0,40,9999,0.100000,0,0,0.000000,6,0.000000,0.000000,0.109607,0,0,0,0,0,0,0
4,49999,79,40000,94,0,40,9999,0.100000,0,0,0.000000,6,0.000000,0.000000,1.114968,0,0,0,0,0,0,0
4,49999,80,40000,1,10000,40,9999,0.100000,0,0,0.000000,5,0.000000,0.000000,0.227526,0,0,0,0,0,0,0
4,49999,81,40000,9,0,40,9999,0.100000,0,0,0.000000,5,0.000000,0.000000,0.082132,0,0,0,0,0,0,0
4,49999,82,40000,41,20000,40,9999,0.100000,0,0,0.000000,5,0.000000,0.000000,0.537661,0,0,0,0,0,0,0
4,49999,83,40000,85,10000,49,9999,0.100000,0,0,0.000000,6,1.000000,0.000000,4.043203,0,0,0,0,0,0,0
4,49999,84,40000,85,10000,49,9999,0.100000,0,0,0.000000,6,6.000000,0.000000,7.540321,0,0,0,0,0,0,0
4,49999,85,40000,13,30000,40,9999,0.100000,0,0,0.000000,6,0.000000,0.000000,0.395433,0,0,0,0,0,0,0
4,49999,86,40000,1,10000,40,9999,0.100000,0,0,0.000000,5,0.000000,0.000000,0.153910,0,0,0,0,0,0,0
4,49999,87,40000,1,10000,40,9999,0.100000,0,0,0.000000,5,0.000000,0.000000,0.620464,0,0,0,0,0,0,0
4,49999,88,40000,94,0,40,9999,0.100000,0,0,0.000000,5,0.000000,0.000000,0.382450,0,0,0,0,0,0,0
4,49999,89,40000,9,0,40,9999,0.100000,0,0,0.000000,6,0.000000,0.000000,0.216551,0,0,0,0,0,0,0
4,49999,90,40000,9,0,40,9999,0.100000,0,0,0.000000,6,0.000000,0.000000,0.516413,0,0,0,0,0,0,0
4,49999,91,40000,13,30000,40,9999,0.100000,0,0,0.000000,6,0.000000,0.000000,0.193973,0,0,0,0,0,0,0
4,49999,92,30000,94,0,40,19999,0.100000,0,0,0.000000,5,0.000000,0.000000,0.156107,0,0,0,0,0,0,0
4,49999,93,40000,41,20000,40,9999,0.100000,0,0,0.000000,6,0.000000,0.000000,0.256864,0,0,0,0,0,0,0
4,49999,94,40000,9,0,40,9999,0.100000,0,0,0.000000,6,0.000000,0.000000,0.239129,0,0,0,0,0,0,0
4,49999,95,40000,13,30000,40,9999,0.100000,0,0,0.000000,6,0.000000,0.000000,0.282272,0,0,0,0,0,0,0
4,49999,96,40000,1,10000,40,9999,0.100000,0,0,0.000000,5,0.000000,0.000000,0.246597,0,0,0,0,0,0,0
4,49999,97,40000,41,20000,40,9999,0.100000,0,0,0.000000,5,0.000000,0.000000,0.155166,0,0,0,0,0,0,0
4,49999,98,40000,9,0,40,9999,0.100000,0,0,0.000000,6,0.000000,0.000000,0.484160,0,0,0,0,0,0,0
4,49999,99,40000,41,20000,40,9999,0.100000,0,0,0.000000,5,0.000000,0.000000,0.460469,0,0,0,0,0,0,0
5,59999,0,50000,94,0,40,9999,0.100000,0,0,0.000000,6,0.000000,0.000000,0.671435,0,0,0,0,0,0,0
5,59999,1,50000,1,10000,40,9999,0.100000,0,0,0.000000,6,0.000000,0.000000,1.345734,0,0,0,0,0,0,0
5,59999,2,50000,13,30000,40,9999,0.100000,0,0,0.000000,6,0.000000,0.000000,2.074784,0,0,0,0,0,0,0
5,59999,3,50000,9,0,40,9999,0.100000,0,0,0.000000,6,0.000000,0.000000,0.096859,0,0,0,0,0,0,0
5,59999,4,50000,13,40000,40,9999,0.100000,0,0,0.000000,6,0.000000,0.000000,0.162725,0,0,0,0,0,0,0
5,59999,5,50000,13,30000,49,9999,0.100000,0,0,0.000000,6,4.000000,0.000000,5.017829,0,0,0,0,0,0,0
5,59999,6,50000,85,10000,40,9999,0.100000,0,0,0.000000,6,0.000000,0.000000,0.242775,0,0,0,0,0,0,0
5,59999,7,50000,9,0,40,9999,0.100000,0,0,0.000000,6,0.000000,0.000000,2.279499,0,0,0,0,0,0,0
5,59999,8,50000,85,30000,40,9999,0.100000,0,0,0.000000,6,0.000000,0.000000,1.069862,0,0,0,0,0,0,0
5,59999,9,50000,9,0,40,9999,0.100000,0,0,0.000000,6,0.000000,0.000000,0.340106,0,0,0,0,0,0,0
5,59999,10,50000,85,30000,40,9999,0.100000,0,0,0.000000,6,0.000000,0.000000,0.167087,0,0,0,0,0,0,0
5,59999,11,50000,13,30000,40,9999,0.100000,0,0,0.000000,6,0.000000,0.000000,0.322647,0,0,0,0,0,0,0
5,59999,12,50000,85,30000,40,9999,0.100000,0,0,0.000000,6,0.000000,0.000000,0.136271,0,0,0,0,0,0,0
5,59999,13,50000,13,40000,49,9999,0.100000,0,0,0.000000,6,4.000000,0.000000,12.200884,0,0,0,0,0,0,0
5,59999,14,50000,85,10000,40,9999,0.100000,0,0,0.000000,6,0.000000,0.000000,0.210956,0,0,0,0,0,0,0
5,59999,15,50000,1,10000,40,9999,0.100000,0,0,0.000000,6,0.000000,0.000000,1.301559,0,0,0,0,0,0,0
5,59999,16,50000,1,10000,40,9999,0.100000,0,0,0.000000,6,0.000000,0.000000,0.464044,0,0,0,0,0,0,0
5,59999,17,50000,9,0,40,9999,0.100000,0,0,0.000000,6,0.000000,0.000000,1.093538,0,0,0,0,0,0,0
5,59999,18,50000,9,0,40,9999,0.100000,0,0,0.000000,6,0.000000,0.000000,0.453730,0,0,0,0,0,0,0
5,59999,19,50000,13,40000,40,9999,0.100000,0,0,0.000000,6,0.000000,0.000000,1.539542,0,0,0,0,0,0,0
5,59999,20,50000,9,0,40,9999,0.100000,0,0,0.000000,6,0.000000,0.000000,0.241391,0,0,0,0,0,0,0
5,59999,21,50000,85,10000,40,9999,0.065000,0,0,0.000000,6,0.000000,0.000000,0.826237,0,0,0,0,0,0,0
5,59999,22,50000,9,0,40,9999,0.100000,0,0,0.000000,6,0.000000,0.000000,21.559028,0,0,0,0,0,0,0
5,59999,23,50000,85,30000,40,9999,0.100000,0,0,0.000000,6,0.000000,0.000000,6.399864,0,0,0,0,0,0,0
5,59999,24,50000,9,0,40,9999,0.100000,0,0,0.000000,6,0.000000,0.000000,0.685026,0,0,0,0,0,0,0
5,59999,25,50000,1,10000,40,9999,0.100000,0,0,0.000000,6,0.000000,0.000000,0.076763,0,0,0,0,0,0,0
5,59999,26,50000,1,10000,40,9999,0.100000,0,0,0.000000,6,0.000000,0.000000,0.088154,0,0,0,0,0,0,0
5,59999,27,50000,85,30000,40,9999,0.100000,0,0,0.000000,6,0.000000,0.000000,0.071161,0,0,0,0,0,0,0
5,59999,28,50000,1,10000,40,9999,0.100000,0,0,0.000000,6,0.000000,0.000000,0.114824,0,0,0,0,0,0,0
5,59999,29,50000,9,0,40,9999,0.100000,0,0,0.000000,6,0.000000,0.000000,0.222676,0,0,0,0,0,0,0
5,59999,30,50000,85,10000,40,9999,0.100000,0,0,0.000000,6,0.000000,0.000000,16.824650,0,0,0,0,0,0,0
5,59999,31,50000,9,0,40,9999,0.100000,0,0,0.000000,6,0.000000,0.000000,0.643766,0,0,0,0,0,0,0
5,59999,32,50000,9,0,40,9999,0.100000,0,0,0.000000,6,0.000000,0.000000,1.073809,0,0,0,0,0,0,0
5,59999,33,50000,13,40000,40,9999,0.100000,0,0,0.000000,6,0.000000,0.000000,0.118864,0,0,0,0,0,0,0
5,59999,34,50000,9,0,49,9999,0.100000,0,0,0.000000,6,4.000000,0.000000,4.627992,0,0,0,0,0,0,0
5,59999,35,50000,85,30000,40,9999,0.100000,0,0,0.000000,6,0.000000,0.000000,0.113452,0,0,0,0,0,0,0
5,59999,36,50000,85,30000,40,9999,0.100000,0,0,0.000000,6,0.000000,0.000000,0.170027,0,0,0,0,0,0,0
5,59999,37,50000,85,30000,40,9999,0.100000,0,0,0.000000,6,0.000000,0.000000,0.061457,0,0,0,0,0,0,0
5,59999,38,50000,1,10000,40,9999,0.100000,0,0,0.000000,6,0.000000,0.000000,0.465358,0,0,0,0,0,0,0
5,59999,39,50000,85,10000,40,9999,0.100000,0,0,0.000000,6,0.000000,0.000000,0.677706,0,0,0,0,0,0,0
5,59999,40,50000,13,30000,40,9999,0.100000,0,0,0.000000,6,0.000000,0.000000,1.362822,0,0,0,0,0,0,0
5,59999,41,40000,9,0,40,19999,0.100000,0,0,0.000000,6,0.000000,0.000000,0.125142,0,0,0,0,0,0,0
5,59999,42,50000,13,30000,40,9999,0.100000,0,0,0.000000,6,0.000000,0.000000,0.475323,0,0,0,0,0,0,0
5,59999,43,50000,85,10000,40,9999,0.100000,0,0,0.000000,6,0.000000,0.000000,0.557169,0,0,0,0,0,0,0
5,59999,44,50000,1,10000,40,9999,0.100000,0,0,0.000000,6,0.000000,0.000000,0.537296,0,0,0,0,0,0,0
5,59999,45,50000,13,30000,40,9999,0.100000,0,0,0.000000,6,0.000000,0.000000,0.160445,0,0,0,0,0,0,0
5,59999,46,50000,13,40000,40,9999,0.100000,0,0,0.000000,6,0.000000,0.000000,0.133867,0,0,0,0,0,0,0
5,59999,47,50000,9,0,40,9999,0.100000,0,0,0.000000,6,0.000000,0.000000,0.127116,0,0,0,0,0,0,0
5,59999,48,50000,85,10000,40,9999,0.100000,0,0,0.000000,6,0.000000,0.000000,0.341738,0,0,0,0,0,0,0
5,59999,49,50000,13,30000,40,9999,0.100000,0,0,0.000000,6,0.000000,0.000000,0.200350,0,0,0,0,0,0,0
5,59999,50,50000,13,30000,40,9999,0.100000,0,0,0.000000,6,0.000000,0.000000,0.092559,0,0,0,0,0,0,0
5,59999,51,50000,85,10000,40,9999,0.100000,0,0,0.000000,6,0.000000,0.000000,3.056636,0,0,0,0,0,0,0
5,59999,52,50000,85,10000,40,9999,0.100000,0,0,0.000000,6,0.000000,0.000000,22.095595,0,0,0,0,0,0,0
5,59999,53,50000,85,10000,40,9999,0.100000,0,0,0.000000,6,0.000000,0.000000,1.267495,0,0,0,0,0,0,0
5,59999,54,50000,9,0,40,9999,0.100000,0,0,0.000000,6,0.000000,0.000000,0.233758,0,0,0,0,0,0,0
5,59999,55,50000,85,10000,40,9999,0.100000,0,0,0.000000,6,0.000000,0.000000,0.206740,0,0,0,0,0,0,0
5,59999,56,50000,13,40000,40,9999,0.100000,0,0,0.000000,6,0.000000,0.000000,1.586615,0,0,0,0,0,0,0
5,59999,57,50000,1,10000,40,9999,0.100000,0,0,0.000000,6,0.000000,0.000000,0.574621,0,0,0,0,0,0,0
5,59999,58,50000,85,10000,49,9999,0.100000,0,0,0.000000,6,5.000000,0.000000,5.411812,0,0,0,0,0,0,0
5,59999,59,50000,13,40000,40,9999,0.100000,0,0,0.000000,6,0.000000,0.000000,0.503442,0,0,0,0,0,0,0
5,59999,60,50000,85,30000,40,9999,0.100000,0,0,0.000000,6,0.000000,0.000000,0.363066,0,0,0,0,0,0,0
5,59999,61,50000,13,30000,40,9999,0.100000,0,0,0.000000,6,0.000000,0.000000,0.132737,0,0,0,0,0,0,0
5,59999,62,50000,1,10000,40,9999,0.100000,0,0,0.000000,6,0.000000,0.000000,0.077928,0,0,0,0,0,0,0
5,59999,63,50000,1,10000,49,9999,0.100000,0,0,0.000000,6,5.000000,0.000000,11.667804,0,0,0,0,0,0,0
5,59999,64,50000,13,30000,49,9999,0.065000,0,0,0.000000,6,4.000000,0.000000,5.221940,0,0,0,0,0,0,0
5,59999,65,50000,85,10000,40,9999,0.100000,0,0,0.000000,6,0.000000,0.000000,0.338471,0,0,0,0,0,0,0
5,59999,66,50000,13,30000,40,9999,0.100000,0,0,0.000000,6,0.000000,0.000000,0.680450,0,0,0,0,0,0,0
5,59999,67,50000,13,40000,40,9999,0.100000,0,0,0.000000,6,0.000000,0.000000,0.745792,0,0,0,0,0,0,0
5,59999,68,50000,13,30000,40,9999,0.100000,0,0,0.000000,6,0.000000,0.000000,0.460823,0,0,0,0,0,0,0
5,59999,69,50000,13,30000,40,9999,0.100000,0,0,0.000000,6,0.000000,0.000000,0.638219,0,0,0,0,0,0,0
5,59999,70,50000,85,30000,40,9999,0.100000,0,0,0.000000,6,0.000000,0.000000,0.177802,0,0,0,0,0,0,0
5,59999,71,50000,13,30000,40,9999,0.100000,0,0,0.000000,6,0.000000,0.000000,11.703727,0,0,0,0,0,0,0
5,59999,72,50000,85,30000,40,9999,0.100000,0,0,0.000000,6,0.000000,0.000000,0.213355,0,0,0,0,0,0,0
5,59999,73,50000,85,30000,49,9999,0.100000,0,0,0.000000,6,1.000000,0.000000,3.909231,0,0,0,0,0,0,0
5,59999,74,50000,85,10000,40,9999,0.100000,0,0,0.000000,6,0.000000,0.000000,1.222693,0,0,0,0,0,0,0
5,59999,75,40000,9,0,40,19999,0.100000,0,0,0.000000,6,0.000000,0.000000,0.265647,0,0,0,0,0,0,0
5,59999,76,50000,9,0,49,9999,0.100000,0,0,0.000000,6,2.000000,0.000000,5.409857,0,0,0,0,0,0,0
5,59999,77,50000,9,0,40,9999,0.100000,0,0,0.000000,6,0.000000,0.000000,0.598111,0,0,0,0,0,0,0
5,59999,78,50000,13,40000,40,9999,0.100000,0,0,0.000000,6,0.000000,0.000000,0.108254,0,0,0,0,0,0,0
5,59999,79,50000,85,10000,40,9999,0.100000,0,0,0.000000,6,0.000000,0.000000,0.987191,0,0,0,0,0,0,0
5,59999,80,50000,13,40000,40,9999,0.100000,0,0,0.000000,6,0.000000,0.000000,0.474575,0,0,0,0,0,0,0
5,59999,81,50000,85,30000,40,9999,0.100000,0,0,0.000000,6,0.000000,0.000000,0.087678,0,0,0,0,0,0,0
5,59999,82,50000,85,10000,40,9999,0.100000,0,0,0.000000,6,0.000000,0.000000,0.845620,0,0,0,0,0,0,0
5,59999,83,50000,13,40000,40,9999,0.100000,0,0,0.000000,6,0.000000,0.000000,8.742032,0,0,0,0,0,0,0
5,59999,84,50000,1,10000,49,9999,0.100000,0,0,0.000000,6,2.000000,0.000000,4.146880,0,0,0,0,0,0,0
5,59999,85,50000,13,30000,40,9999,0.100000,0,0,0.000000,6,0.000000,0.000000,0.471804,0,0,0,0,0,0,0
5,59999,86,50000,85,10000,49,9999,0.100000,0,0,0.000000,6,5.000000,0.000000,11.613371,0,0,0,0,0,0,0
5,59999,87,50000,13,30000,40,9999,0.100000,0,0,0.000000,6,0.000000,0.000000,1.165770,0,0,0,0,0,0,0
5,59999,88,50000,85,10000,40,9999,0.100000,0,0,0.000000,6,0.000000,0.000000,0.289445,0,0,0,0,0,0,0
5,59999,89,50000,13,30000,40,9999,0.100000,0,0,0.000000,6,0.000000,0.000000,0.145059,0,0,0,0,0,0,0
5,59999,90,50000,85,10000,40,9999,0.100000,0,0,0.000000,6,0.000000,0.000000,0.507918,0,0,0,0,0,0,0
5,59999,91,50000,85,10000,40,9999,0.100000,0,0,0.000000,6,0.000000,0.000000,0.967071,0,0,0,0,0,0,0
5,59999,92,50000,85,10000,40,9999,0.100000,0,0,0.000000,6,0.000000,0.000000,0.126853,0,0,0,0,0,0,0
5,59999,93,50000,9,0,40,9999,0.100000,0,0,0.000000,6,0.000000,0.000000,0.579189,0,0,0,0,0,0,0
5,59999,94,50000,1,10000,40,9999,0.100000,0,0,0.000000,6,0.000000,0.000000,0.666828,0,0,0,0,0,0,0
5,59999,95,50000,13,40000,40,9999,0.100000,0,0,0.000000,6,0.000000,0.000000,0.237789,0,0,0,0,0,0,0
5,59999,96,50000,85,30000,40,9999,0.100000,0,0,0.000000,6,0.000000,0.000000,0.250392,0,0,0,0,0,0,0
5,59999,97,50000,85,30000,40,9999,0.100000,0,0,0.000000,6,0.000000,0.000000,0.604687,0,0,0,0,0,0,0
5,59999,98,50000,9,0,40,9999,0.100000,0,0,0.000000,6,0.000000,0.000000,0.856769,0,0,0,0,0,0,0
5,59999,99,50000,9,0,40,9999,0.100000,0,0,0.000000,6,0.000000,0.000000,0.515875,0,0,0,0,0,0,0
6,69999,0,60000,1,10000,40,9999,0.135000,0,0,0.000000,6,0.000000,0.000000,0.284231,0,0,0,0,0,0,0
6,69999,1,60000,13,30000,40,9999,0.100000,0,0,0.000000,6,0.000000,0.000000,1.798363,0,0,0,0,0,0,0
6,69999,2,60000,1,10000,40,9999,0.100000,0,0,0.000000,6,0.000000,0.000000,0.393594,0,0,0,0,0,0,0
6,69999,3,60000,13,40000,40,9999,0.100000,0,0,0.000000,6,0.000000,0.000000,0.097154,0,0,0,0,0,0,0
6,69999,4,60000,85,10000,40,9999,0.100000,0,0,0.000000,6,0.000000,0.000000,0.162797,0,0,0,0,0,0,0
6,69999,5,60000,85,10000,49,9999,0.100000,0,0,0.000000,6,1.000000,0.000000,1.177474,0,0,0,0,0,0,0
6,69999,6,60000,13,30000,40,9999,0.100000,0,0,0.000000,6,0.000000,0.000000,0.376582,0,0,0,0,0,0,0
6,69999,7,60000,13,40000,40,9999,0.100000,0,0,0.000000,6,0.000000,0.000000,3.754787,0,0,0,0,0,0,0
6,69999,8,60000,85,10000,40,9999,0.100000,0,0,0.000000,6,0.000000,0.000000,0.863478,0,0,0,0,0,0,0
6,69999,9,60000,9,0,40,9999,0.100000,0,0,0.000000,6,0.000000,0.000000,0.469189,0,0,0,0,0,0,0
6,69999,10,60000,1,10000,40,9999,0.100000,0,0,0.000000,6,0.000000,0.000000,0.879619,0,0,0,0,0,0,0
6,69999,11,60000,85,10000,40,9999,0.100000,0,0,0.000000,6,0.000000,0.000000,0.384308,0,0,0,0,0,0,0
6,69999,12,60000,85,30000,40,9999,0.100000,0,0,0.000000,6,0.000000,0.000000,0.168090,0,0,0,0,0,0,0
6,69999,13,60000,1,10000,49,9999,0.100000,0,0,0.000000,6,3.000000,0.000000,8.812344,0,0,0,0,0,0,0
6,69999,14,60000,85,10000,40,9999,0.100000,0,0,0.000000,6,0.000000,0.000000,0.220441,0,0,0,0,0,0,0
6,69999,15,60000,1,10000,40,9999,0.100000,0,0,0.000000,6,0.000000,0.000000,1.420090,0,0,0,0,0,0,0
6,69999,16,60000,13,30000,40,9999,0.100000,0,0,0.000000,6,0.000000,0.000000,0.506098,0,0,0,0,0,0,0
6,69999,17,60000,1,10000,40,9999,0.100000,0,0,0.000000,6,0.000000,0.000000,5.931261,0,0,0,0,0,0,0
6,69999,18,60000,13,30000,40,9999,0.100000,0,0,0.000000,6,0.000000,0.000000,0.753797,0,0,0,0,0,0,0
6,69999,19,60000,9,0,40,9999,0.100000,0,0,0.000000,6,0.000000,0.000000,1.850225,0,0,0,0,0,0,0
6,69999,20,60000,13,30000,40,9999,0.100000,0,0,0.000000,6,0.000000,0.000000,0.115045,0,0,0,0,0,0,0
6,69999,21,60000,85,10000,40,9999,0.100000,0,0,0.000000,6,0.000000,0.000000,0.962442,0,0,0,0,0,0,0
6,69999,22,60000,1,10000,40,9999,0.100000,0,0,0.000000,6,0.000000,0.000000,5.703196,0,0,0,0,0,0,0
6,69999,23,60000,1,10000,40,9999,0.100000,0,0,0.000000,6,0.000000,0.000000,2.996146,0,0,0,0,0,0,0
6,69999,24,60000,1,10000,40,9999,0.100000,0,0,0.000000,6,0.000000,0.000000,1.489978,0,0,0,0,0,0,0
6,69999,25,60000,85,10000,40,9999,0.100000,0,0,0.000000,6,0.000000,0.000000,0.077426,0,0,0,0,0,0,0
6,69999,26,60000,9,0,40,9999,0.100000,0,0,0.000000,6,0.000000,0.000000,0.516226,0,0,0,0,0,0,0
6,69999,27,60000,1,10000,40,9999,0.100000,0,0,0.000000,6,0.000000,0.000000,0.074302,0,0,0,0,0,0,0
6,69999,28,60000,9,0,49,9999,0.100000,0,0,0.000000,6,2.000000,0.000000,5.409844,0,0,0,0,0,0,0
6,69999,29,60000,13,30000,40,9999,0.100000,0,0,0.000000,6,0.000000,0.000000,0.196264,0,0,0,0,0,0,0
6,69999,30,60000,85,30000,40,9999,0.100000,0,0,0.000000,6,0.000000,0.000000,15.467795,0,0,0,0,0,0,0
6,69999,31,60000,1,10000,40,9999,0.100000,0,0,0.000000,6,0.000000,0.000000,0.770770,0,0,0,0,0,0,0
6,69999,32,60000,13,30000,49,9999,0.100000,0,0,0.000000,6,2.000000,0.000000,2.867190,0,0,0,0,0,0,0
6,69999,33,60000,13,40000,40,9999,0.100000,0,0,0.000000,6,0.000000,0.000000,0.432898,0,0,0,0,0,0,0
6,69999,34,60000,85,10000,40,9999,0.100000,0,0,0.000000,6,0.000000,0.000000,1.086182,0,0,0,0,0,0,0
6,69999,35,60000,9,0,40,9999,0.100000,0,0,0.000000,6,0.000000,0.000000,0.388349,0,0,0,0,0,0,0
6,69999,36,60000,13,40000,40,9999,0.100000,0,0,0.000000,6,0.000000,0.000000,0.307724,0,0,0,0,0,0,0
6,69999,37,60000,9,0,49,9999,0.100000,0,0,0.000000,6,7.000000,0.000000,15.557394,0,0,0,0,0,0,0
6,69999,38,60000,13,30000,40,9999,0.100000,0,0,0.000000,6,0.000000,0.000000,0.702179,0,0,0,0,0,0,0
6,69999,39,60000,23,50000,40,9999,0.100000,0,0,0.000000,6,0.000000,0.000000,0.319243,0,0,0,0,0,0,0
6,69999,40,60000,85,10000,40,9999,0.100000,0,0,0.000000,6,0.000000,0.000000,1.022248,0,0,0,0,0,0,0
6,69999,41,60000,1,10000,40,9999,0.100000,0,0,0.000000,6,0.000000,0.000000,0.142823,0,0,0,0,0,0,0
6,69999,42,60000,9,0,40,9999,0.100000,0,0,0.000000,6,0.000000,0.000000,0.697180,0,0,0,0,0,0,0
6,69999,43,60000,23,50000,40,9999,0.100000,0,0,0.000000,6,0.000000,0.000000,0.551775,0,0,0,0,0,0,0
6,69999,44,60000,85,10000,40,9999,0.100000,0,0,0.000000,6,0.000000,0.000000,16.583777,0,0,0,0,0,0,0
6,69999,45,60000,13,30000,40,9999,0.100000,0,0,0.000000,6,0.000000,0.000000,7.123494,0,0,0,0,0,0,0
6,69999,46,60000,13,30000,40,9999,0.100000,0,0,0.000000,6,0.000000,0.000000,0.145110,0,0,0,0,0,0,0
6,69999,47,60000,1,10000,40,9999,0.100000,0,0,0.000000,6,0.000000,0.000000,0.116444,0,0,0,0,0,0,0
6,69999,48,60000,13,40000,40,9999,0.100000,0,0,0.000000,6,0.000000,0.000000,0.397866,0,0,0,0,0,0,0
6,69999,49,60000,85,10000,40,9999,0.100000,0,0,0.000000,6,0.000000,0.000000,0.272035,0,0,0,0,0,0,0
6,69999,50,60000,85,10000,40,9999,0.100000,0,0,0.000000,6,0.000000,0.000000,0.092570,0,0,0,0,0,0,0
6,69999,51,60000,85,30000,40,9999,0.100000,0,0,0.000000,6,0.000000,0.000000,2.883888,0,0,0,0,0,0,0
6,69999,52,60000,1,10000,40,9999,0.100000,0,0,0.000000,6,0.000000,0.000000,17.254533,0,0,0,0,0,0,0
6,69999,53,60000,13,40000,49,9999,0.100000,0,0,0.000000,6,2.000000,0.000000,5.086946,0,0,0,0,0,0,0
6,69999,54,60000,13,30000,40,9999,0.100000,0,0,0.000000,6,0.000000,0.000000,0.259530,0,0,0,0,0,0,0
6,69999,55,60000,9,0,40,9999,0.100000,0,0,0.000000,6,0.000000,0.000000,0.601560,0,0,0,0,0,0,0
6,69999,56,60000,9,0,40,9999,0.100000,0,0,0.000000,6,0.000000,0.000000,1.298432,0,0,0,0,0,0,0
6,69999,57,60000,85,30000,40,9999,0.100000,0,0,0.000000,6,0.000000,0.000000,0.455451,0,0,0,0,0,0,0
6,69999,58,60000,13,40000,49,9999,0.100000,0,0,0.000000,6,1.000000,0.000000,1.483974,0,0,0,0,0,0,0
6,69999,59,60000,13,30000,40,9999,0.100000,0,0,0.000000,6,0.000000,0.000000,0.502942,0,0,0,0,0,0,0
6,69999,60,60000,13,30000,40,9999,0.100000,0,0,0.000000,6,0.000000,0.000000,0.203652,0,0,0,0,0,0,0
6,69999,61,60000,13,30000,40,9999,0.100000,0,0,0.000000,6,0.000000,0.000000,0.135831,0,0,0,0,0,0,0
6,69999,62,60000,85,30000,40,9999,0.100000,0,0,0.000000,6,0.000000,0.000000,0.076500,0,0,0,0,0,0,0
6,69999,63,60000,85,30000,40,9999,0.100000,0,0,0.000000,6,0.000000,0.000000,0.417438,0,0,0,0,0,0,0
6,69999,64,60000,13,40000,49,9999,0.100000,0,0,0.000000,6,1.000000,0.000000,1.366669,0,0,0,0,0,0,0
6,69999,65,60000,9,0,40,9999,0.100000,0,0,0.000000,6,0.000000,0.000000,0.352173,0,0,0,0,0,0,0
6,69999,66,60000,85,30000,40,9999,0.100000,0,0,0.000000,6,0.000000,0.000000,1.493397,0,0,0,0,0,0,0
6,69999,67,60000,1,10000,40,9999,0.100000,0,0,0.000000,6,0.000000,0.000000,1.303246,0,0,0,0,0,0,0
6,69999,68,60000,23,50000,40,9999,0.100000,0,0,0.000000,6,0.000000,0.000000,0.456506,0,0,0,0,0,0,0
6,69999,69,60000,13,30000,40,9999,0.100000,0,0,0.000000,6,0.000000,0.000000,0.678180,0,0,0,0,0,0,0
6,69999,70,60000,1,10000,40,9999,0.100000,0,0,0.000000,6,0.000000,0.000000,0.226294,0,0,0,0,0,0,0
6,69999,71,60000,85,30000,40,9999,0.100000,0,0,0.000000,6,0.000000,0.000000,17.227447,0,0,0,0,0,0,0
6,69999,72,60000,13,40000,49,9999,0.100000,0,0,0.000000,6,3.000000,0.000000,7.479968,0,0,0,0,0,0,0
6,69999,73,60000,13,40000,49,9999,0.100000,0,0,0.000000,6,1.000000,0.000000,7.371256,0,0,0,0,0,0,0
6,69999,74,60000,13,40000,40,9999,0.100000,0,0,0.000000,6,0.000000,0.000000,1.482340,0,0,0,0,0,0,0
6,69999,75,60000,85,30000,40,9999,0.100000,0,0,0.000000,6,0.000000,0.000000,0.278944,0,0,0,0,0,0,0
6,69999,76,60000,85,10000,49,9999,0.100000,0,0,0.000000,6,5.000000,0.000000,9.110427,0,0,0,0,0,0,0
6,69999,77,60000,1,10000,40,9999,0.100000,0,0,0.000000,6,0.000000,0.000000,0.681395,0,0,0,0,0,0,0
6,69999,78,60000,13,40000,40,9999,0.100000,0,0,0.000000,6,0.000000,0.000000,0.102812,0,0,0,0,0,0,0
6,69999,79,60000,85,10000,40,9999,0.100000,0,0,0.000000,6,0.000000,0.000000,0.964638,0,0,0,0,0,0,0
6,69999,80,60000,85,10000,40,9999,0.100000,0,0,0.000000,6,0.000000,0.000000,0.425057,0,0,0,0,0,0,0
6,69999,81,60000,85,10000,40,9999,0.100000,0,0,0.000000,6,0.000000,0.000000,0.091587,0,0,0,0,0,0,0
6,69999,82,60000,13,40000,40,9999,0.100000,0,0,0.000000,6,0.000000,0.000000,1.942449,0,0,0,0,0,0,0
6,69999,83,60000,1,10000,40,9999,0.100000,0,0,0.000000,6,0.000000,0.000000,3.356443,0,0,0,0,0,0,0
6,69999,84,60000,13,40000,40,9999,0.100000,0,0,0.000000,6,0.000000,0.000000,1.030707,0,0,0,0,0,0,0
6,69999,85,60000,13,40000,40,9999,0.100000,0,0,0.000000,6,0.000000,0.000000,0.437035,0,0,0,0,0,0,0
6,69999,86,60000,85,30000,40,9999,0.100000,0,0,0.000000,6,0.000000,0.000000,0.174275,0,0,0,0,0,0,0
6,69999,87,60000,85,10000,40,9999,0.100000,0,0,0.000000,6,0.000000,0.000000,0.680759,0,0,0,0,0,0,0
6,69999,88,60000,85,10000,40,9999,0.100000,0,0,0.000000,6,0.000000,0.000000,0.340113,0,0,0,0,0,0,0
6,69999,89,60000,23,50000,49,9999,0.100000,0,0,0.000000,6,5.000000,0.000000,10.978874,0,0,0,0,0,0,0
6,69999,90,60000,9,0,40,9999,0.100000,0,0,0.000000,6,0.000000,0.000000,1.203792,0,0,0,0,0,0,0
6,69999,91,60000,9,0,40,9999,0.100000,0,0,0.000000,6,0.000000,0.000000,1.149393,0,0,0,0,0,0,0
6,69999,92,60000,85,10000,40,9999,0.100000,0,0,0.000000,6,0.000000,0.000000,0.132354,0,0,0,0,0,0,0
6,69999,93,60000,9,0,40,9999,0.100000,0,0,0.000000,6,0.000000,0.000000,0.898255,0,0,0,0,0,0,0
6,69999,94,60000,13,30000,40,9999,0.100000,0,0,0.000000,6,0.000000,0.000000,0.942794,0,0,0,0,0,0,0
6,69999,95,60000,9,0,40,9999,0.100000,0,0,0.000000,6,0.000000,0.000000,1.124519,0,0,0,0,0,0,0
6,69999,96,60000,85,10000,40,9999,0.100000,0,0,0.000000,6,0.000000,0.000000,0.231802,0,0,0,0,0,0,0
6,69999,97,60000,13,40000,49,9999,0.100000,0,0,0.000000,6,5.000000,0.000000,11.551215,0,0,0,0,0,0,0
6,69999,98,60000,13,30000,40,9999,0.100000,0,0,0.000000,6,0.000000,0.000000,0.293984,0,0,0,0,0,0,0
6,69999,99,60000,1,10000,40,9999,0.100000,0,0,0.000000,6,0.000000,0.000000,0.235373,0,0,0,0,0,0,0
7,79999,0,70000,85,10000,40,9999,0.100000,0,0,0.000000,6,0.000000,0.000000,0.263190,0,0,0,0,0,0,0
7,79999,1,70000,1,10000,40,9999,0.100000,0,0,0.000000,6,0.000000,0.000000,0.135113,0,0,0,0,0,0,0
7,79999,2,70000,9,0,40,9999,0.100000,0,0,0.000000,6,0.000000,0.000000,0.304876,0,0,0,0,0,0,0
7,79999,3,70000,85,10000,40,9999,0.100000,0,0,0.000000,6,0.000000,0.000000,0.097244,0,0,0,0,0,0,0
7,79999,4,70000,13,40000,40,9999,0.100000,0,0,0.000000,6,0.000000,0.000000,0.161828,0,0,0,0,0,0,0
7,79999,5,70000,85,10000,49,9999,0.100000,0,0,0.000000,6,7.000000,0.000000,8.374167,0,0,0,0,0,0,0
7,79999,6,70000,85,10000,40,9999,0.100000,0,0,0.000000,6,0.000000,0.000000,0.252483,0,0,0,0,0,0,0
7,79999,7,70000,13,40000,40,9999,0.100000,0,0,0.000000,6,0.000000,0.000000,3.575233,0,0,0,0,0,0,0
7,79999,8,70000,13,30000,40,9999,0.100000,0,0,0.000000,6,0.000000,0.000000,0.654571,0,0,0,0,0,0,0
7,79999,9,70000,9,0,40,9999,0.100000,0,0,0.000000,6,0.000000,0.000000,0.287647,0,0,0,0,0,0,0
7,79999,10,70000,13,30000,40,9999,0.100000,0,0,0.000000,6,0.000000,0.000000,0.571807,0,0,0,0,0,0,0
7,79999,11,70000,85,10000,40,9999,0.100000,0,0,0.000000,6,0.000000,0.000000,0.452969,0,0,0,0,0,0,0
7,79999,12,70000,9,0,40,9999,0.100000,0,0,0.000000,6,0.000000,0.000000,0.502819,0,0,0,0,0,0,0
7,79999,13,70000,1,10000,40,9999,0.100000,0,0,0.000000,6,0.000000,0.000000,0.550151,0,0,0,0,0,0,0
7,79999,14,70000,13,30000,40,9999,0.100000,0,0,0.000000,6,0.000000,0.000000,0.227139,0,0,0,0,0,0,0
7,79999,15,70000,9,0,40,9999,0.100000,0,0,0.000000,6,0.000000,0.000000,1.413974,0,0,0,0,0,0,0
7,79999,16,70000,13,40000,40,9999,0.100000,0,0,0.000000,6,0.000000,0.000000,0.588221,0,0,0,0,0,0,0
7,79999,17,70000,9,0,40,9999,0.100000,0,0,0.000000,6,0.000000,0.000000,4.326728,0,0,0,0,0,0,0
7,79999,18,70000,23,50000,40,9999,0.100000,0,0,0.000000,6,0.000000,0.000000,0.394170,0,0,0,0,0,0,0
7,79999,19,70000,13,40000,40,9999,0.100000,0,0,0.000000,6,0.000000,0.000000,1.478330,0,0,0,0,0,0,0
7,79999,20,70000,85,10000,40,9999,0.100000,0,0,0.000000,6,0.000000,0.000000,0.086131,0,0,0,0,0,0,0
7,79999,21,70000,9,0,40,9999,0.100000,0,0,0.000000,6,0.000000,0.000000,1.028092,0,0,0,0,0,0,0
7,79999,22,70000,13,30000,40,9999,0.100000,0,0,0.000000,6,0.000000,0.000000,3.559321,0,0,0,0,0,0,0
7,79999,23,70000,13,40000,40,9999,0.100000,0,0,0.000000,6,0.000000,0.000000,1.308450,0,0,0,0,0,0,0
7,79999,24,70000,23,50000,40,9999,0.100000,0,0,0.000000,6,0.000000,0.000000,0.801701,0,0,0,0,0,0,0
7,79999,25,70000,13,40000,40,9999,0.100000,0,0,0.000000,6,0.000000,0.000000,0.076587,0,0,0,0,0,0,0
7,79999,26,70000,13,30000,40,9999,0.100000,0,0,0.000000,6,0.000000,0.000000,0.630570,0,0,0,0,0,0,0
7,79999,27,70000,13,30000,40,9999,0.100000,0,0,0.000000,6,0.000000,0.000000,0.123798,0,0,0,0,0,0,0
7,79999,28,70000,23,50000,40,9999,0.100000,0,0,0.000000,6,0.000000,0.000000,0.251877,0,0,0,0,0,0,0
7,79999,29,70000,85,10000,40,9999,0.100000,0,0,0.000000,6,0.000000,0.000000,0.200563,0,0,0,0,0,0,0
7,79999,30,70000,85,10000,40,9999,0.100000,0,0,0.000000,6,0.000000,0.000000,4.559504,0,0,0,0,0,0,0
7,79999,31,70000,1,10000,40,9999,0.100000,0,0,0.000000,6,0.000000,0.000000,0.386124,0,0,0,0,0,0,0
7,79999,32,70000,23,50000,40,9999,0.065000,0,0,0.000000,6,0.000000,0.000000,18.946045,0,0,0,0,0,0,0
7,79999,33,70000,85,10000,40,9999,0.100000,0,0,0.000000,6,0.000000,0.000000,0.296245,0,0,0,0,0,0,0
7,79999,34,70000,91,60000,49,9999,0.100000,0,0,0.000000,6,2.000000,0.000000,6.543015,0,0,0,0,0,0,0
7,79999,35,70000,13,30000,40,9999,0.100000,0,0,0.000000,6,0.000000,0.000000,0.796983,0,0,0,0,0,0,0
7,79999,36,70000,1,10000,40,9999,0.100000,0,0,0.000000,6,0.000000,0.000000,2.503269,0,0,0,0,0,0,0
7,79999,37,70000,9,0,40,9999,0.100000,0,0,0.000000,6,0.000000,0.000000,0.060567,0,0,0,0,0,0,0
7,79999,38,70000,85,10000,40,9999,0.100000,0,0,0.000000,6,0.000000,0.000000,0.203641,0,0,0,0,0,0,0
7,79999,39,70000,13,40000,40,9999,0.100000,0,0,0.000000,6,0.000000,0.000000,0.286641,0,0,0,0,0,0,0
7,79999,40,70000,91,60000,49,9999,0.100000,0,0,0.000000,6,3.000000,0.000000,6.952930,0,0,0,0,0,0,0
7,79999,41,70000,13,40000,40,9999,0.100000,0,0,0.000000,6,0.000000,0.000000,0.114446,0,0,0,0,0,0,0
7,79999,42,70000,85,10000,40,9999,0.100000,0,0,0.000000,6,0.000000,0.000000,0.853230,0,0,0,0,0,0,0
7,79999,43,70000,13,30000,40,9999,0.100000,0,0,0.000000,6,0.000000,0.000000,0.561073,0,0,0,0,0,0,0
7,79999,44,70000,13,40000,40,9999,0.100000,0,0,0.000000,6,0.000000,0.000000,15.577872,0,0,0,0,0,0,0
7,79999,45,70000,9,0,40,9999,0.100000,0,0,0.000000,6,0.000000,0.000000,3.617404,0,0,0,0,0,0,0
7,79999,46,70000,85,10000,40,9999,0.100000,0,0,0.000000,6,0.000000,0.000000,0.158506,0,0,0,0,0,0,0
7,79999,47,70000,13,30000,40,9999,0.100000,0,0,0.000000,6,0.000000,0.000000,0.391441,0,0,0,0,0,0,0
7,79999,48,70000,13,30000,40,9999,0.100000,0,0,0.000000,6,0.000000,0.000000,0.373573,0,0,0,0,0,0,0
7,79999,49,70000,13,30000,40,9999,0.100000,0,0,0.000000,6,0.000000,0.000000,0.423537,0,0,0,0,0,0,0
7,79999,50,70000,13,30000,40,9999,0.100000,0,0,0.000000,6,0.000000,0.000000,0.094324,0,0,0,0,0,0,0
7,79999,51,70000,13,30000,40,9999,0.100000,0,0,0.000000,6,0.000000,0.000000,0.054908,0,0,0,0,0,0,0
7,79999,52,70000,91,60000,40,9999,0.100000,0,0,0.000000,6,0.000000,0.000000,1.338828,0,0,0,0,0,0,0
7,79999,53,70000,1,10000,40,9999,0.100000,0,0,0.000000,6,0.000000,0.000000,3.098566,0,0,0,0,0,0,0
7,79999,54,70000,23,50000,40,9999,0.100000,0,0,0.000000,6,0.000000,0.000000,0.329367,0,0,0,0,0,0,0
7,79999,55,70000,1,10000,40,9999,0.100000,0,0,0.000000,6,0.000000,0.000000,0.832926,0,0,0,0,0,0,0
7,79999,56,70000,1,10000,40,9999,0.100000,0,0,0.000000,6,0.000000,0.000000,0.667973,0,0,0,0,0,0,0
7,79999,57,70000,23,50000,40,9999,0.100000,0,0,0.000000,6,0.000000,0.000000,0.367421,0,0,0,0,0,0,0
7,79999,58,70000,13,30000,49,9999,0.100000,0,0,0.000000,6,12.000000,0.000000,15.487127,0,0,0,0,0,0,0
7,79999,59,70000,13,40000,40,9999,0.100000,0,0,0.000000,6,0.000000,0.000000,0.524320,0,0,0,0,0,0,0
7,79999,60,70000,1,10000,40,9999,0.100000,0,0,0.000000,6,0.000000,0.000000,0.173058,0,0,0,0,0,0,0
7,79999,61,70000,91,60000,40,9999,0.100000,0,0,0.000000,6,0.000000,0.000000,0.141584,0,0,0,0,0,0,0
7,79999,62,70000,85,10000,40,9999,0.100000,0,0,0.000000,6,0.000000,0.000000,0.076037,0,0,0,0,0,0,0
7,79999,63,70000,85,10000,40,9999,0.100000,0,0,0.000000,6,0.000000,0.000000,0.509015,0,0,0,0,0,0,0
7,79999,64,70000,85,10000,9,9999,0.100000,0,0,0.000000,6,9.000000,0.000000,10.801291,0,0,0,0,0,0,1
7,79999,65,70000,13,30000,49,9999,0.100000,0,0,0.000000,6,8.000000,0.000000,20.427997,0,0,0,0,0,0,0
7,79999,66,70000,13,30000,40,9999,0.100000,0,0,0.000000,6,0.000000,0.000000,2.142046,0,0,0,0,0,0,0
7,79999,67,70000,23,50000,49,9999,0.100000,0,0,0.000000,6,2.000000,0.000000,4.211560,0,0,0,0,0,0,0
7,79999,68,70000,23,50000,40,9999,0.100000,0,0,0.000000,6,0.000000,0.000000,0.605708,0,0,0,0,0,0,0
7,79999,69,70000,13,30000,49,9999,0.100000,0,0,0.000000,6,5.000000,0.000000,11.895272,0,0,0,0,0,0,0
7,79999,70,70000,23,50000,40,9999,0.100000,0,0,0.000000,6,0.000000,0.000000,0.156325,0,0,0,0,0,0,0
7,79999,71,60000,85,30000,40,19999,0.100000,0,0,0.000000,6,0.000000,0.000000,2.222456,0,0,0,0,0,0,0
7,79999,72,70000,91,60000,40,9999,0.100000,0,0,0.000000,6,0.000000,0.000000,0.230007,0,0,0,0,0,0,0
7,79999,73,70000,13,40000,49,9999,0.100000,0,0,0.000000,6,1.000000,0.000000,4.497940,0,0,0,0,0,0,0
7,79999,74,70000,1,10000,40,9999,0.100000,0,0,0.000000,6,0.000000,0.000000,1.065779,0,0,0,0,0,0,0
7,79999,75,70000,9,0,40,9999,0.100000,0,0,0.000000,6,0.000000,0.000000,0.347326,0,0,0,0,0,0,0
7,79999,76,70000,23,50000,40,9999,0.100000,0,0,0.000000,6,0.000000,0.000000,0.225083,0,0,0,0,0,0,0
7,79999,77,70000,13,30000,40,9999,0.100000,0,0,0.000000,6,0.000000,0.000000,0.858096,0,0,0,0,0,0,0
7,79999,78,70000,13,40000,40,9999,0.100000,0,0,0.000000,6,0.000000,0.000000,0.101263,0,0,0,0,0,0,0
7,79999,79,70000,13,30000,40,9999,0.100000,0,0,0.000000,6,0.000000,0.000000,0.960989,0,0,0,0,0,0,0
7,79999,80,70000,23,50000,40,9999,0.100000,0,0,0.000000,6,0.000000,0.000000,0.072630,0,0,0,0,0,0,0
7,79999,81,70000,1,10000,40,9999,0.100000,0,0,0.000000,6,0.000000,0.000000,0.095176,0,0,0,0,0,0,0
7,79999,82,70000,85,10000,49,9999,0.100000,0,0,0.000000,6,1.000000,0.000000,3.615069,0,0,0,0,0,0,0
7,79999,83,70000,85,10000,40,9999,0.100000,0,0,0.000000,6,0.000000,0.000000,1.455595,0,0,0,0,0,0,0
7,79999,84,70000,23,50000,40,9999,0.100000,0,0,0.000000,6,0.000000,0.000000,1.692189,0,0,0,0,0,0,0
7,79999,85,70000,9,0,40,9999,0.100000,0,0,0.000000,6,0.000000,0.000000,0.065004,0,0,0,0,0,0,0
7,79999,86,70000,85,10000,40,9999,0.100000,0,0,0.000000,6,0.000000,0.000000,0.216957,0,0,0,0,0,0,0
7,79999,87,70000,1,10000,40,9999,0.100000,0,0,0.000000,6,0.000000,0.000000,0.350978,0,0,0,0,0,0,0
7,79999,88,70000,85,10000,40,9999,0.100000,0,0,0.000000,6,0.000000,0.000000,0.372266,0,0,0,0,0,0,0
7,79999,89,70000,13,40000,40,9999,0.100000,0,0,0.000000,6,0.000000,0.000000,0.287852,0,0,0,0,0,0,0
7,79999,90,70000,9,0,40,9999,0.100000,0,0,0.000000,6,0.000000,0.000000,1.647792,0,0,0,0,0,0,0
7,79999,91,70000,13,40000,49,9999,0.100000,0,0,0.000000,6,2.000000,0.000000,2.959776,0,0,0,0,0,0,0
7,79999,92,70000,9,0,40,9999,0.100000,0,0,0.000000,6,0.000000,0.000000,0.132888,0,0,0,0,0,0,0
7,79999,93,70000,23,50000,40,9999,0.100000,0,0,0.000000,6,0.000000,0.000000,0.864533,0,0,0,0,0,0,0
7,79999,94,70000,9,0,49,9999,0.100000,0,0,0.000000,6,1.000000,0.000000,3.130119,0,0,0,0,0,0,0
7,79999,95,70000,85,10000,49,9999,0.100000,0,0,0.000000,6,2.000000,0.000000,7.017031,0,0,0,0,0,0,0
7,79999,96,70000,13,40000,40,9999,0.100000,0,0,0.000000,6,0.000000,0.000000,0.234638,0,0,0,0,0,0,0
7,79999,97,70000,91,60000,49,9999,0.100000,0,0,0.000000,6,5.000000,0.000000,11.506512,0,0,0,0,0,0,0
7,79999,98,70000,1,10000,40,9999,0.100000,0,0,0.000000,6,0.000000,0.000000,0.285026,0,0,0,0,0,0,0
7,79999,99,70000,85,10000,40,9999,0.100000,0,0,0.000000,6,0.000000,0.000000,0.214254,0,0,0,0,0,0,0
8,89999,0,80000,9,0,40,9999,0.100000,0,0,0.000000,6,0.000000,0.000000,0.212578,0,0,0,0,0,0,0
8,89999,1,80000,23,50000,40,9999,0.100000,0,0,0.000000,6,0.000000,0.000000,2.485993,0,0,0,0,0,0,0
8,89999,2,80000,91,60000,40,9999,0.100000,0,0,0.000000,6,0.000000,0.000000,0.236889,0,0,0,0,0,0,0
8,89999,3,80000,91,60000,40,9999,0.100000,0,0,0.000000,6,0.000000,0.000000,0.097007,0,0,0,0,0,0,0
8,89999,4,80000,13,30000,40,9999,0.100000,0,0,0.000000,6,0.000000,0.000000,0.168120,0,0,0,0,0,0,0
8,89999,5,80000,85,10000,49,9999,0.100000,0,0,0.000000,6,3.000000,0.000000,9.280589,0,0,0,0,0,0,0
8,89999,6,80000,13,30000,40,9999,0.100000,0,0,0.000000,6,0.000000,0.000000,0.234795,0,0,0,0,0,0,0
8,89999,7,80000,91,60000,40,9999,0.100000,0,0,0.000000,6,0.000000,0.000000,3.271930,0,0,0,0,0,0,0
8,89999,8,80000,23,50000,40,9999,0.100000,0,0,0.000000,6,0.000000,0.000000,0.674046,0,0,0,0,0,0,0
8,89999,9,80000,23,50000,40,9999,0.100000,0,0,0.000000,6,0.000000,0.000000,0.393969,0,0,0,0,0,0,0
8,89999,10,80000,85,10000,40,9999,0.100000,0,0,0.000000,6,0.000000,0.000000,0.610761,0,0,0,0,0,0,0
8,89999,11,80000,13,40000,40,9999,0.100000,0,0,0.000000,6,0.000000,0.000000,0.447476,0,0,0,0,0,0,0
8,89999,12,80000,91,60000,40,9999,0.100000,0,0,0.000000,6,0.000000,0.000000,1.111673,0,0,0,0,0,0,0
8,89999,13,80000,85,10000,40,9999,0.100000,0,0,0.000000,6,0.000000,0.000000,0.430412,0,0,0,0,0,0,0
8,89999,14,80000,85,10000,40,9999,0.100000,0,0,0.000000,6,0.000000,0.000000,0.219628,0,0,0,0,0,0,0
8,89999,15,80000,23,50000,40,9999,0.100000,0,0,0.000000,6,0.000000,0.000000,2.486563,0,0,0,0,0,0,0
8,89999,16,80000,9,0,40,9999,0.100000,0,0,0.000000,6,0.000000,0.000000,0.587377,0,0,0,0,0,0,0
8,89999,17,80000,13,40000,40,9999,0.100000,0,0,0.000000,6,0.000000,0.000000,0.793839,0,0,0,0,0,0,0
8,89999,18,80000,91,60000,40,9999,0.100000,0,0,0.000000,6,0.000000,0.000000,0.440747,0,0,0,0,0,0,0
8,89999,19,80000,91,60000,40,9999,0.100000,0,0,0.000000,6,0.000000,0.000000,1.451377,0,0,0,0,0,0,0
8,89999,20,80000,91,60000,49,9999,0.100000,0,0,0.000000,6,6.000000,0.000000,13.165863,0,0,0,0,0,0,0
8,89999,21,80000,13,30000,40,9999,0.100000,0,0,0.000000,6,0.000000,0.000000,0.972551,0,0,0,0,0,0,0
8,89999,22,80000,23,50000,40,9999,0.100000,0,0,0.000000,6,0.000000,0.000000,0.340481,0,0,0,0,0,0,0
8,89999,23,80000,9,0,40,9999,0.100000,0,0,0.000000,6,0.000000,0.000000,1.078478,0,0,0,0,0,0,0
8,89999,24,80000,9,0,40,9999,0.100000,0,0,0.000000,6,0.000000,0.000000,0.543353,0,0,0,0,0,0,0
8,89999,25,80000,13,30000,40,9999,0.100000,0,0,0.000000,6,0.000000,0.000000,0.076238,0,0,0,0,0,0,0
8,89999,26,80000,13,40000,40,9999,0.100000,0,0,0.000000,6,0.000000,0.000000,0.319325,0,0,0,0,0,0,0
8,89999,27,80000,85,10000,40,9999,0.100000,0,0,0.000000,6,0.000000,0.000000,0.348479,0,0,0,0,0,0,0
8,89999,28,80000,91,60000,40,9999,0.100000,0,0,0.000000,6,0.000000,0.000000,0.228685,0,0,0,0,0,0,0
8,89999,29,80000,91,60000,40,9999,0.100000,0,0,0.000000,6,0.000000,0.000000,0.406728,0,0,0,0,0,0,0
8,89999,30,80000,85,10000,40,9999,0.100000,0,0,0.000000,6,0.000000,0.000000,0.100820,0,0,0,0,0,0,0
8,89999,31,80000,9,0,40,9999,0.100000,0,0,0.000000,6,0.000000,0.000000,1.142132,0,0,0,0,0,0,0
8,89999,32,80000,85,10000,40,9999,0.100000,0,0,0.000000,6,0.000000,0.000000,4.697140,0,0,0,0,0,0,0
8,89999,33,80000,91,60000,40,9999,0.100000,0,0,0.000000,6,0.000000,0.000000,0.208621,0,0,0,0,0,0,0
8,89999,34,80000,13,30000,49,9999,0.100000,0,0,0.000000,6,1.000000,0.000000,1.728747,0,0,0,0,0,0,0
8,89999,35,80000,13,30000,40,9999,0.100000,0,0,0.000000,6,0.000000,0.000000,0.709730,0,0,0,0,0,0,0
8,89999,36,80000,13,30000,40,9999,0.100000,0,0,0.000000,6,0.000000,0.000000,0.190730,0,0,0,0,0,0,0
8,89999,37,80000,9,0,40,9999,0.100000,0,0,0.000000,6,0.000000,0.000000,0.060224,0,0,0,0,0,0,0
8,89999,38,80000,91,60000,40,9999,0.100000,0,0,0.000000,6,0.000000,0.000000,0.433903,0,0,0,0,0,0,0
8,89999,39,80000,23,50000,40,9999,0.100000,0,0,0.000000,6,0.000000,0.000000,0.303060,0,0,0,0,0,0,0
8,89999,40,80000,9,0,49,9999,0.100000,0,0,0.000000,6,1.000000,0.000000,2.102811,0,0,0,0,0,0,0
8,89999,41,80000,91,60000,40,9999,0.100000,0,0,0.000000,6,0.000000,0.000000,0.074338,0,0,0,0,0,0,0
8,89999,42,80000,9,0,40,9999,0.100000,0,0,0.000000,6,0.000000,0.000000,0.754106,0,0,0,0,0,0,0
8,89999,43,80000,85,10000,40,9999,0.100000,0,0,0.000000,6,0.000000,0.000000,0.562291,0,0,0,0,0,0,0
8,89999,44,80000,9,0,40,9999,0.065000,0,0,0.000000,6,0.000000,0.000000,13.452245,0,0,0,0,0,0,0
8,89999,45,80000,9,0,40,9999,0.100000,0,0,0.000000,6,0.000000,0.000000,0.812086,0,0,0,0,0,0,0
8,89999,46,80000,13,30000,40,9999,0.100000,0,0,0.000000,6,0.000000,0.000000,0.079044,0,0,0,0,0,0,0
8,89999,47,80000,13,30000,40,9999,0.100000,0,0,0.000000,6,0.000000,0.000000,0.855284,0,0,0,0,0,0,0
8,89999,48,80000,13,30000,40,9999,0.100000,0,0,0.000000,6,0.000000,0.000000,0.934444,0,0,0,0,0,0,0
8,89999,49,80000,91,60000,49,9999,0.100000,0,0,0.000000,6,1.000000,0.000000,1.617187,0,0,0,0,0,0,0
8,89999,50,80000,9,0,40,9999,0.100000,0,0,0.000000,6,0.000000,0.000000,0.092127,0,0,0,0,0,0,0
8,89999,51,80000,13,40000,40,9999,0.100000,0,0,0.000000,6,0.000000,0.000000,0.109713,0,0,0,0,0,0,0
8,89999,52,80000,9,0,49,9999,0.100000,0,0,0.000000,6,4.000000,0.000000,10.325163,0,0,0,0,0,0,0
8,89999,53,80000,85,10000,40,9999,0.100000,0,0,0.000000,6,0.000000,0.000000,1.278869,0,0,0,0,0,0,0
8,89999,54,80000,13,30000,40,9999,0.100000,0,0,0.000000,6,0.000000,0.000000,0.276294,0,0,0,0,0,0,0
8,89999,55,80000,9,0,40,9999,0.100000,0,0,0.000000,6,0.000000,0.000000,0.971697,0,0,0,0,0,0,0
8,89999,56,80000,85,10000,49,9999,0.100000,0,0,0.000000,6,5.000000,0.000000,22.424096,0,0,0,0,0,0,0
8,89999,57,80000,91,60000,40,9999,0.100000,0,0,0.000000,6,0.000000,0.000000,0.409019,0,0,0,0,0,0,0
8,89999,58,80000,91,60000,40,9999,0.100000,0,0,0.000000,6,0.000000,0.000000,8.253007,0,0,0,0,0,0,0
8,89999,59,80000,13,30000,40,9999,0.100000,0,0,0.000000,6,0.000000,0.000000,0.492526,0,0,0,0,0,0,0
8,89999,60,80000,23,50000,40,9999,0.100000,0,0,0.000000,6,0.000000,0.000000,0.178720,0,0,0,0,0,0,0
8,89999,61,80000,85,10000,40,9999,0.100000,0,0,0.000000,6,0.000000,0.000000,0.217301,0,0,0,0,0,0,0
8,89999,62,80000,91,60000,40,9999,0.100000,0,0,0.000000,6,0.000000,0.000000,0.075881,0,0,0,0,0,0,0
8,89999,63,80000,23,50000,40,9999,0.100000,0,0,0.000000,6,0.000000,0.000000,0.414411,0,0,0,0,0,0,0
8,89999,64,80000,13,40000,49,9999,0.100000,0,0,0.000000,6,3.000000,0.000000,9.057186,0,0,0,0,0,0,0
8,89999,65,80000,13,40000,49,9999,0.100000,0,0,0.000000,6,4.000000,0.000000,11.342111,0,0,0,0,0,0,0
8,89999,66,80000,85,10000,40,9999,0.100000,0,0,0.000000,6,0.000000,0.000000,2.325339,0,0,0,0,0,0,0
8,89999,67,80000,85,10000,49,9999,0.100000,0,0,0.000000,6,1.000000,0.000000,10.638613,0,0,0,0,0,0,0
8,89999,68,80000,91,60000,40,9999,0.100000,0,0,0.000000,6,0.000000,0.000000,0.553668,0,0,0,0,0,0,0
8,89999,69,80000,85,10000,40,9999,0.100000,0,0,0.000000,6,0.000000,0.000000,0.888424,0,0,0,0,0,0,0
8,89999,70,80000,13,30000,49,9999,0.100000,0,0,0.000000,6,1.000000,0.000000,1.483306,0,0,0,0,0,0,0
8,89999,71,80000,91,60000,40,9999,0.100000,0,0,0.000000,6,0.000000,0.000000,0.268582,0,0,0,0,0,0,0
8,89999,72,80000,9,0,40,9999,0.100000,0,0,0.000000,6,0.000000,0.000000,0.234235,0,0,0,0,0,0,0
8,89999,73,80000,91,60000,40,9999,0.100000,0,0,0.000000,6,0.000000,0.000000,0.982425,0,0,0,0,0,0,0
8,89999,74,80000,23,50000,40,9999,0.100000,0,0,0.000000,6,0.000000,0.000000,1.974094,0,0,0,0,0,0,0
8,89999,75,80000,23,50000,40,9999,0.100000,0,0,0.000000,6,0.000000,0.000000,0.309224,0,0,0,0,0,0,0
8,89999,76,80000,9,0,40,9999,0.100000,0,0,0.000000,6,0.000000,0.000000,0.230632,0,0,0,0,0,0,0
8,89999,77,80000,13,40000,40,9999,0.100000,0,0,0.000000,6,0.000000,0.000000,0.710640,0,0,0,0,0,0,0
8,89999,78,80000,9,0,40,9999,0.100000,0,0,0.000000,6,0.000000,0.000000,0.109722,0,0,0,0,0,0,0
8,89999,79,80000,23,50000,40,9999,0.100000,0,0,0.000000,6,0.000000,0.000000,0.969460,0,0,0,0,0,0,0
8,89999,80,80000,91,60000,40,9999,0.100000,0,0,0.000000,6,0.000000,0.000000,0.142255,0,0,0,0,0,0,0
8,89999,81,80000,91,60000,40,9999,0.100000,0,0,0.000000,6,0.000000,0.000000,0.105204,0,0,0,0,0,0,0
8,89999,82,80000,85,10000,49,9999,0.100000,0,0,0.000000,6,4.000000,0.000000,14.415794,0,0,0,0,0,0,0
8,89999,83,80000,9,0,40,9999,0.100000,0,0,0.000000,6,0.000000,0.000000,1.203580,0,0,0,0,0,0,0
8,89999,84,80000,13,30000,40,9999,0.100000,0,0,0.000000,6,0.000000,0.000000,1.667426,0,0,0,0,0,0,0
8,89999,85,80000,13,40000,40,9999,0.100000,0,0,0.000000,6,0.000000,0.000000,0.065495,0,0,0,0,0,0,0
8,89999,86,80000,13,30000,40,9999,0.065000,0,0,0.000000,6,0.000000,0.000000,0.231917,0,0,0,0,0,0,0
8,89999,87,80000,85,10000,40,9999,0.100000,0,0,0.000000,6,0.000000,0.000000,0.537628,0,0,0,0,0,0,0
8,89999,88,80000,9,0,40,9999,0.100000,0,0,0.000000,6,0.000000,0.000000,0.330071,0,0,0,0,0,0,0
8,89999,89,80000,9,0,49,9999,0.100000,0,0,0.000000,6,5.000000,0.000000,11.951330,0,0,0,0,0,0,0
8,89999,90,80000,13,30000,40,9999,0.100000,0,0,0.000000,6,0.000000,0.000000,1.876058,0,0,0,0,0,0,0
8,89999,91,80000,85,10000,40,9999,0.100000,0,0,0.000000,6,0.000000,0.000000,1.289842,0,0,0,0,0,0,0
8,89999,92,80000,85,10000,40,9999,0.100000,0,0,0.000000,6,0.000000,0.000000,0.120580,0,0,0,0,0,0,0
8,89999,93,80000,13,30000,49,9999,0.100000,0,0,0.000000,6,4.000000,0.000000,18.044587,0,0,0,0,0,0,0
8,89999,94,80000,85,10000,40,9999,0.100000,0,0,0.000000,6,0.000000,0.000000,1.528071,0,0,0,0,0,0,0
8,89999,95,80000,91,60000,40,9999,0.100000,0,0,0.000000,6,0.000000,0.000000,0.977354,0,0,0,0,0,0,0
8,89999,96,80000,9,0,40,9999,0.100000,0,0,0.000000,6,0.000000,0.000000,0.251036,0,0,0,0,0,0,0
8,89999,97,80000,85,10000,40,9999,0.100000,0,0,0.000000,6,0.000000,0.000000,0.087110,0,0,0,0,0,0,0
8,89999,98,80000,85,10000,40,9999,0.100000,0,0,0.000000,6,0.000000,0.000000,0.262957,0,0,0,0,0,0,0
8,89999,99,80000,13,40000,40,9999,0.100000,0,0,0.000000,6,0.000000,0.000000,0.233322,0,0,0,0,0,0,0
9,99999,0,90000,85,10000,40,9999,0.100000,0,0,0.000000,6,0.000000,0.000000,0.484629,0,0,0,0,0,0,0
9,99999,1,90000,91,60000,40,9999,0.100000,0,0,0.000000,6,0.000000,0.000000,0.196770,0,0,0,0,0,0,0
9,99999,2,90000,13,30000,40,9999,0.100000,0,0,0.000000,6,0.000000,0.000000,0.709861,0,0,0,0,0,0,0
9,99999,3,90000,13,30000,40,9999,0.100000,0,0,0.000000,6,0.000000,0.000000,0.097324,0,0,0,0,0,0,0
9,99999,4,90000,85,10000,40,9999,0.100000,0,0,0.000000,6,0.000000,0.000000,0.164863,0,0,0,0,0,0,0
9,99999,5,90000,13,40000,49,9999,0.100000,0,0,0.000000,6,1.000000,0.000000,8.599672,0,0,0,0,0,0,0
9,99999,6,90000,9,0,40,9999,0.100000,0,0,0.000000,6,0.000000,0.000000,0.208099,0,0,0,0,0,0,0
9,99999,7,90000,13,40000,40,9999,0.100000,0,0,0.000000,6,0.000000,0.000000,3.265268,0,0,0,0,0,0,0
9,99999,8,90000,85,10000,40,9999,0.100000,0,0,0.000000,6,0.000000,0.000000,0.688546,0,0,0,0,0,0,0
9,99999,9,90000,85,10000,40,9999,0.100000,0,0,0.000000,6,0.000000,0.000000,0.173121,0,0,0,0,0,0,0
9,99999,10,90000,9,0,40,9999,0.100000,0,0,0.000000,6,0.000000,0.000000,6.401275,0,0,0,0,0,0,0
9,99999,11,90000,13,30000,40,9999,0.100000,0,0,0.000000,6,0.000000,0.000000,6.960527,0,0,0,0,0,0,0
9,99999,12,90000,13,30000,40,9999,0.100000,0,0,0.000000,6,0.000000,0.000000,0.542248,0,0,0,0,0,0,0
9,99999,13,90000,9,0,40,9999,0.100000,0,0,0.000000,6,0.000000,0.000000,0.307524,0,0,0,0,0,0,0
9,99999,14,90000,9,0,40,9999,0.100000,0,0,0.000000,6,0.000000,0.000000,0.211341,0,0,0,0,0,0,0
9,99999,15,90000,13,40000,40,9999,0.100000,0,0,0.000000,6,0.000000,0.000000,1.680297,0,0,0,0,0,0,0
9,99999,16,90000,23,50000,40,9999,0.100000,0,0,0.000000,6,0.000000,0.000000,0.866951,0,0,0,0,0,0,0
9,99999,17,90000,9,0,40,9999,0.100000,0,0,0.000000,6,0.000000,0.000000,2.306617,0,0,0,0,0,0,0
9,99999,18,90000,85,10000,49,9999,0.100000,0,0,0.000000,6,1.000000,0.000000,1.445739,0,0,0,0,0,0,0
9,99999,19,90000,85,10000,40,9999,0.100000,0,0,0.000000,6,0.000000,0.000000,1.340340,0,0,0,0,0,0,0
9,99999,20,90000,23,50000,40,9999,0.100000,0,0,0.000000,6,0.000000,0.000000,0.143196,0,0,0,0,0,0,0
9,99999,21,90000,23,50000,40,9999,0.100000,0,0,0.000000,6,0.000000,0.000000,0.989038,0,0,0,0,0,0,0
9,99999,22,90000,85,10000,40,9999,0.100000,0,0,0.000000,6,0.000000,0.000000,0.279011,0,0,0,0,0,0,0
9,99999,23,90000,91,60000,40,9999,0.100000,0,0,0.000000,6,0.000000,0.000000,1.404576,0,0,0,0,0,0,0
9,99999,24,90000,23,50000,40,9999,0.100000,0,0,0.000000,6,0.000000,0.000000,0.617281,0,0,0,0,0,0,0
9,99999,25,90000,9,0,40,9999,0.100000,0,0,0.000000,6,0.000000,0.000000,0.077488,0,0,0,0,0,0,0
9,99999,26,90000,9,0,40,9999,0.100000,0,0,0.000000,6,0.000000,0.000000,0.254085,0,0,0,0,0,0,0
9,99999,27,90000,85,10000,40,9999,0.100000,0,0,0.000000,6,0.000000,0.000000,0.353887,0,0,0,0,0,0,0
9,99999,28,90000,85,10000,40,9999,0.100000,0,0,0.000000,6,0.000000,0.000000,0.660746,0,0,0,0,0,0,0
9,99999,29,90000,85,10000,40,9999,0.100000,0,0,0.000000,6,0.000000,0.000000,6.444847,0,0,0,0,0,0,0
9,99999,30,90000,23,50000,40,9999,0.100000,0,0,0.000000,6,0.000000,0.000000,0.117094,0,0,0,0,0,0,0
9,99999,31,90000,13,30000,40,9999,0.100000,0,0,0.000000,6,0.000000,0.000000,1.115884,0,0,0,0,0,0,0
9,99999,32,90000,91,60000,49,9999,0.100000,0,0,0.000000,6,1.000000,0.000000,5.825386,0,0,0,0,0,0,0
9,99999,33,90000,91,60000,40,9999,0.100000,0,0,0.000000,6,0.000000,0.000000,0.160490,0,0,0,0,0,0,0
9,99999,34,90000,23,50000,40,9999,0.100000,0,0,0.000000,6,0.000000,0.000000,1.013683,0,0,0,0,0,0,0
9,99999,35,90000,85,10000,40,9999,0.100000,0,0,0.000000,6,0.000000,0.000000,0.360556,0,0,0,0,0,0,0
9,99999,36,90000,85,10000,49,9999,0.100000,0,0,0.000000,6,4.000000,0.000000,9.480149,0,0,0,0,0,0,0
9,99999,37,90000,13,40000,40,9999,0.100000,0,0,0.000000,6,0.000000,0.000000,0.304369,0,0,0,0,0,0,0
9,99999,38,90000,13,30000,49,9999,0.100000,0,0,0.000000,6,1.000000,0.000000,1.412249,0,0,0,0,0,0,0
9,99999,39,90000,91,60000,40,9999,0.100000,0,0,0.000000,6,0.000000,0.000000,0.493789,0,0,0,0,0,0,0
9,99999,40,90000,13,40000,49,9999,0.100000,0,0,0.000000,6,1.000000,0.000000,1.730084,0,0,0,0,0,0,0
9,99999,41,90000,13,30000,40,9999,0.100000,0,0,0.000000,6,0.000000,0.000000,0.105909,0,0,0,0,0,0,0
9,99999,42,90000,85,10000,40,9999,0.100000,0,0,0.000000,6,0.000000,0.000000,0.929569,0,0,0,0,0,0,0
9,99999,43,90000,23,50000,40,9999,0.100000,0,0,0.000000,6,0.000000,0.000000,0.551741,0,0,0,0,0,0,0
9,99999,44,90000,13,40000,40,9999,0.100000,0,0,0.000000,6,0.000000,0.000000,16.619082,0,0,0,0,0,0,0
9,99999,45,90000,85,10000,49,9999,0.100000,0,0,0.000000,6,11.000000,0.000000,13.177946,0,0,0,0,0,0,0
9,99999,46,90000,9,0,40,9999,0.100000,0,0,0.000000,6,0.000000,0.000000,0.094762,0,0,0,0,0,0,0
9,99999,47,90000,9,0,40,9999,0.100000,0,0,0.000000,6,0.000000,0.000000,0.881245,0,0,0,0,0,0,0
9,99999,48,90000,13,30000,40,9999,0.100000,0,0,0.000000,6,0.000000,0.000000,0.250877,0,0,0,0,0,0,0
9,99999,49,90000,85,10000,49,9999,0.100000,0,0,0.000000,6,2.000000,0.000000,3.649691,0,0,0,0,0,0,0
9,99999,50,90000,9,0,40,9999,0.100000,0,0,0.000000,6,0.000000,0.000000,0.093389,0,0,0,0,0,0,0
9,99999,51,90000,9,0,40,9999,0.100000,0,0,0.000000,6,0.000000,0.000000,0.063370,0,0,0,0,0,0,0
9,99999,52,90000,13,40000,40,9999,0.100000,0,0,0.000000,6,0.000000,0.000000,3.368662,0,0,0,0,0,0,0
9,99999,53,90000,85,10000,40,9999,0.100000,0,0,0.000000,6,0.000000,0.000000,2.264820,0,0,0,0,0,0,0
9,99999,54,90000,91,60000,40,9999,0.100000,0,0,0.000000,6,0.000000,0.000000,0.265755,0,0,0,0,0,0,0
9,99999,55,90000,13,40000,40,9999,0.100000,0,0,0.000000,6,0.000000,0.000000,0.824020,0,0,0,0,0,0,0
9,99999,56,90000,23,50000,40,9999,0.100000,0,0,0.000000,6,0.000000,0.000000,0.086685,0,0,0,0,0,0,0
9,99999,57,90000,9,0,40,9999,0.100000,0,0,0.000000,6,0.000000,0.000000,0.383101,0,0,0,0,0,0,0
9,99999,58,90000,13,30000,49,9999,0.100000,0,0,0.000000,6,1.000000,0.000000,16.416224,0,0,0,0,0,0,0
9,99999,59,90000,13,30000,40,9999,0.100000,0,0,0.000000,6,0.000000,0.000000,0.481609,0,0,0,0,0,0,0
9,99999,60,90000,91,60000,49,9999,0.100000,0,0,0.000000,6,1.000000,0.000000,8.627891,0,0,0,0,0,0,0
9,99999,61,90000,13,30000,40,9999,0.100000,0,0,0.000000,6,0.000000,0.000000,0.198515,0,0,0,0,0,0,0
9,99999,62,90000,91,60000,40,9999,0.100000,0,0,0.000000,6,0.000000,0.000000,0.073927,0,0,0,0,0,0,0
9,99999,63,90000,9,0,40,9999,0.100000,0,0,0.000000,6,0.000000,0.000000,0.447419,0,0,0,0,0,0,0
9,99999,64,90000,13,40000,40,9999,0.100000,0,0,0.000000,6,0.000000,0.000000,3.913466,0,0,0,0,0,0,0
9,99999,65,90000,91,60000,49,9999,0.100000,0,0,0.000000,6,1.000000,0.000000,2.473697,0,0,0,0,0,0,0
9,99999,66,90000,13,30000,40,9999,0.100000,0,0,0.000000,6,0.000000,0.000000,2.165149,0,0,0,0,0,0,0
9,99999,67,90000,13,30000,40,9999,0.100000,0,0,0.000000,6,0.000000,0.000000,0.757879,0,0,0,0,0,0,0
9,99999,68,90000,23,50000,40,9999,0.100000,0,0,0.000000,6,0.000000,0.000000,0.496301,0,0,0,0,0,0,0
9,99999,69,90000,9,0,40,9999,0.100000,0,0,0.000000,6,0.000000,0.000000,0.900807,0,0,0,0,0,0,0
9,99999,70,90000,23,50000,40,9999,0.100000,0,0,0.000000,6,0.000000,0.000000,1.059727,0,0,0,0,0,0,0
9,99999,71,90000,9,0,40,9999,0.100000,0,0,0.000000,6,0.000000,0.000000,0.190117,0,0,0,0,0,0,0
9,99999,72,90000,9,0,40,9999,0.100000,0,0,0.000000,6,0.000000,0.000000,0.233214,0,0,0,0,0,0,0
9,99999,73,90000,9,0,49,9999,0.100000,0,0,0.000000,6,1.000000,0.000000,5.234114,0,0,0,0,0,0,0
9,99999,74,90000,91,60000,40,9999,0.100000,0,0,0.000000,6,0.000000,0.000000,0.102123,0,0,0,0,0,0,0
9,99999,75,90000,13,40000,40,9999,0.100000,0,0,0.000000,6,0.000000,0.000000,0.305043,0,0,0,0,0,0,0
9,99999,76,90000,23,50000,40,9999,0.100000,0,0,0.000000,6,0.000000,0.000000,0.272219,0,0,0,0,0,0,0
9,99999,77,90000,85,10000,40,9999,0.100000,0,0,0.000000,6,0.000000,0.000000,2.196634,0,0,0,0,0,0,0
9,99999,78,90000,9,0,40,9999,0.100000,0,0,0.000000,6,0.000000,0.000000,0.123901,0,0,0,0,0,0,0
9,99999,79,90000,23,50000,40,9999,0.100000,0,0,0.000000,6,0.000000,0.000000,0.934265,0,0,0,0,0,0,0
9,99999,80,90000,13,40000,40,9999,0.100000,0,0,0.000000,6,0.000000,0.000000,0.089629,0,0,0,0,0,0,0
9,99999,81,90000,9,0,40,9999,0.100000,0,0,0.000000,6,0.000000,0.000000,0.146909,0,0,0,0,0,0,0
9,99999,82,90000,23,50000,49,9999,0.100000,0,0,0.000000,6,1.000000,0.000000,7.990558,0,0,0,0,0,0,0
9,99999,83,90000,91,60000,40,9999,0.100000,0,0,0.000000,6,0.000000,0.000000,1.614072,0,0,0,0,0,0,0
9,99999,84,90000,13,40000,40,9999,0.100000,0,0,0.000000,6,0.000000,0.000000,0.525508,0,0,0,0,0,0,0
9,99999,85,90000,13,40000,40,9999,0.100000,0,0,0.000000,6,0.000000,0.000000,0.065528,0,0,0,0,0,0,0
9,99999,86,90000,13,30000,40,9999,0.100000,0,0,0.000000,6,0.000000,0.000000,0.270693,0,0,0,0,0,0,0
9,99999,87,90000,13,40000,40,9999,0.100000,0,0,0.000000,6,0.000000,0.000000,0.170373,0,0,0,0,0,0,0
9,99999,88,90000,85,10000,40,9999,0.100000,0,0,0.000000,6,0.000000,0.000000,0.555320,0,0,0,0,0,0,0
9,99999,89,90000,91,60000,40,9999,0.100000,0,0,0.000000,6,0.000000,0.000000,1.326638,0,0,0,0,0,0,0
9,99999,90,90000,85,10000,40,9999,0.100000,0,0,0.000000,6,0.000000,0.000000,1.720087,0,0,0,0,0,0,0
9,99999,91,90000,9,0,40,9999,0.100000,0,0,0.000000,6,0.000000,0.000000,0.898508,0,0,0,0,0,0,0
9,99999,92,90000,13,30000,40,9999,0.100000,0,0,0.000000,6,0.000000,0.000000,0.094984,0,0,0,0,0,0,0
9,99999,93,90000,9,0,40,9999,0.100000,0,0,0.000000,6,0.000000,0.000000,0.878023,0,0,0,0,0,0,0
9,99999,94,90000,91,60000,40,9999,0.100000,0,0,0.000000,6,0.000000,0.000000,0.123064,0,0,0,0,0,0,0
9,99999,95,90000,13,30000,40,9999,0.100000,0,0,0.000000,6,0.000000,0.000000,0.835333,0,0,0,0,0,0,0
9,99999,96,90000,9,0,40,9999,0.100000,0,0,0.000000,6,0.000000,0.000000,0.244151,0,0,0,0,0,0,0
9,99999,97,90000,9,0,40,9999,0.100000,0,0,0.000000,6,0.000000,0.000000,0.120430,0,0,0,0,0,0,0
9,99999,98,90000,9,0,40,9999,0.100000,0,0,0.000000,6,0.000000,0.000000,0.509697,0,0,0,0,0,0,0
9,99999,99,90000,23,50000,40,9999,0.100000,0,0,0.000000,6,0.000000,0.000000,0.236100,0,0,0,0,0,0,0
10,109999,0,100000,9,0,40,9999,0.100000,0,0,0.000000,6,0.000000,0.000000,0.921442,0,0,0,0,0,0,0
10,109999,1,100000,13,40000,40,9999,0.100000,0,0,0.000000,6,0.000000,0.000000,0.214143,0,0,0,0,0,0,0
10,109999,2,100000,85,10000,40,9999,0.100000,0,0,0.000000,6,0.000000,0.000000,1.008953,0,0,0,0,0,0,0
10,109999,3,100000,23,50000,40,9999,0.100000,0,0,0.000000,6,0.000000,0.000000,0.094834,0,0,0,0,0,0,0
10,109999,4,100000,85,10000,40,9999,0.100000,0,0,0.000000,6,0.000000,0.000000,0.165236,0,0,0,0,0,0,0
10,109999,5,100000,9,0,9,9999,0.100000,0,0,34.210526,6,10.000000,0.000000,13.002494,0,0,0,1,0,0,0
10,109999,6,100000,13,30000,40,9999,0.100000,0,0,0.000000,6,0.000000,0.000000,0.257879,0,0,0,0,0,0,0
10,109999,7,100000,13,40000,40,9999,0.100000,0,0,0.000000,6,0.000000,0.000000,3.277074,0,0,0,0,0,0,0
10,109999,8,100000,13,40000,40,9999,0.100000,0,0,0.000000,6,0.000000,0.000000,0.523327,0,0,0,0,0,0,0
10,109999,9,100000,85,10000,40,9999,0.100000,0,0,0.000000,6,0.000000,0.000000,0.167134,0,0,0,0,0,0,0
10,109999,10,100000,85,10000,40,9999,0.100000,0,0,0.000000,6,0.000000,0.000000,2.028329,0,0,0,0,0,0,0
10,109999,11,100000,9,0,40,9999,0.100000,0,0,0.000000,6,0.000000,0.000000,1.421513,0,0,0,0,0,0,0
10,109999,12,100000,91,60000,40,9999,0.100000,0,0,0.000000,6,0.000000,0.000000,0.865812,0,0,0,0,0,0,0
10,109999,13,100000,85,10000,49,9999,0.100000,0,0,0.000000,6,1.000000,0.000000,1.629089,0,0,0,0,0,0,0
10,109999,14,100000,13,40000,40,9999,0.100000,0,0,0.000000,6,0.000000,0.000000,0.222590,0,0,0,0,0,0,0
10,109999,15,100000,23,50000,40,9999,0.100000,0,0,0.000000,6,0.000000,0.000000,1.354167,0,0,0,0,0,0,0
10,109999,16,100000,9,0,40,9999,0.100000,0,0,0.000000,6,0.000000,0.000000,2.172082,0,0,0,0,0,0,0
10,109999,17,100000,9,0,40,9999,0.100000,0,0,0.000000,6,0.000000,0.000000,1.151607,0,0,0,0,0,0,0
10,109999,18,100000,85,10000,49,9999,0.100000,0,0,0.000000,6,1.000000,0.000000,1.215550,0,0,0,0,0,0,0
10,109999,19,100000,13,30000,40,9999,0.100000,0,0,0.000000,6,0.000000,0.000000,1.084279,0,0,0,0,0,0,0
10,109999,20,100000,13,30000,40,9999,0.100000,0,0,0.000000,6,0.000000,0.000000,0.135573,0,0,0,0,0,0,0
10,109999,21,100000,85,10000,40,9999,0.100000,0,0,0.000000,6,0.000000,0.000000,0.947410,0,0,0,0,0,0,0
10,109999,22,100000,91,60000,40,9999,0.100000,0,0,0.000000,6,0.000000,0.000000,0.578035,0,0,0,0,0,0,0
10,109999,23,100000,13,40000,40,9999,0.100000,0,0,0.000000,6,0.000000,0.000000,1.178222,0,0,0,0,0,0,0
10,109999,24,100000,13,30000,40,9999,0.100000,0,0,0.000000,6,0.000000,0.000000,0.516652,0,0,0,0,0,0,0
10,109999,25,100000,91,60000,40,9999,0.100000,0,0,0.000000,6,0.000000,0.000000,0.143204,0,0,0,0,0,0,0
10,109999,26,100000,85,10000,40,9999,0.100000,0,0,0.000000,6,0.000000,0.000000,0.272615,0,0,0,0,0,0,0
10,109999,27,100000,23,50000,40,9999,0.100000,0,0,0.000000,6,0.000000,0.000000,0.306885,0,0,0,0,0,0,0
10,109999,28,100000,23,50000,40,9999,0.100000,0,0,0.000000,6,0.000000,0.000000,1.028949,0,0,0,0,0,0,0
10,109999,29,100000,9,0,40,9999,0.100000,0,0,0.000000,6,0.000000,0.000000,0.161269,0,0,0,0,0,0,0
10,109999,30,100000,13,30000,40,9999,0.100000,0,0,0.000000,6,0.000000,0.000000,0.727630,0,0,0,0,0,0,0
10,109999,31,100000,13,30000,40,9999,0.100000,0,0,0.000000,6,0.000000,0.000000,2.173866,0,0,0,0,0,0,0
10,109999,32,100000,85,10000,40,9999,0.100000,0,0,0.000000,6,0.000000,0.000000,1.076323,0,0,0,0,0,0,0
10,109999,33,100000,13,40000,49,9999,0.100000,0,0,0.000000,6,1.000000,0.000000,1.641755,0,0,0,0,0,0,0
10,109999,34,100000,91,60000,49,9999,0.100000,0,0,0.000000,6,2.000000,0.000000,3.003668,0,0,0,0,0,0,0
10,109999,35,100000,85,10000,40,9999,0.100000,0,0,0.000000,6,0.000000,0.000000,0.113420,0,0,0,0,0,0,0
10,109999,36,100000,85,10000,40,9999,0.100000,0,0,0.000000,6,0.000000,0.000000,0.395183,0,0,0,0,0,0,0
10,109999,37,100000,13,40000,40,9999,0.100000,0,0,0.000000,6,0.000000,0.000000,0.864804,0,0,0,0,0,0,0
10,109999,38,100000,85,10000,49,9999,0.100000,0,0,0.000000,6,1.000000,0.000000,1.125917,0,0,0,0,0,0,0
10,109999,39,100000,13,40000,40,9999,0.100000,0,0,0.000000,6,0.000000,0.000000,0.408716,0,0,0,0,0,0,0
10,109999,40,100000,13,30000,40,9999,0.100000,0,0,0.000000,6,0.000000,0.000000,0.739196,0,0,0,0,0,0,0
10,109999,41,100000,9,0,40,9999,0.100000,0,0,0.000000,6,0.000000,0.000000,0.102809,0,0,0,0,0,0,0
10,109999,42,100000,9,0,49,9999,0.100000,0,0,0.000000,6,5.000000,0.000000,11.168202,0,0,0,0,0,0,0
10,109999,43,100000,13,30000,40,9999,0.100000,0,0,0.000000,6,0.000000,0.000000,0.551451,0,0,0,0,0,0,0
10,109999,44,100000,91,60000,40,9999,0.100000,0,0,0.000000,6,0.000000,0.000000,14.181598,0,0,0,0,0,0,0
10,109999,45,100000,23,50000,49,9999,0.100000,0,0,0.000000,6,1.000000,0.000000,2.458389,0,0,0,0,0,0,0
10,109999,46,100000,85,10000,49,9999,0.100000,0,0,0.000000,6,5.000000,0.000000,11.957900,0,0,0,0,0,0,0
10,109999,47,100000,13,30000,40,9999,0.100000,0,0,0.000000,6,0.000000,0.000000,0.901499,0,0,0,0,0,0,0
10,109999,48,100000,13,40000,40,9999,0.100000,0,0,0.000000,6,0.000000,0.000000,0.304693,0,0,0,0,0,0,0
10,109999,49,100000,13,30000,9,9999,0.100000,0,0,34.210526,6,10.000000,0.000000,12.997867,0,0,0,1,0,0,0
10,109999,50,100000,13,40000,40,9999,0.100000,0,0,0.000000,6,0.000000,0.000000,0.092628,0,0,0,0,0,0,0
10,109999,51,100000,13,30000,40,9999,0.100000,0,0,0.000000,6,0.000000,0.000000,0.057972,0,0,0,0,0,0,0
10,109999,52,100000,13,30000,40,9999,0.100000,0,0,0.000000,6,0.000000,0.000000,0.578682,0,0,0,0,0,0,0
10,109999,53,100000,13,40000,40,9999,0.100000,0,0,0.000000,6,0.000000,0.000000,0.484720,0,0,0,0,0,0,0
10,109999,54,100000,23,50000,40,9999,0.100000,0,0,0.000000,6,0.000000,0.000000,0.273820,0,0,0,0,0,0,0
10,109999,55,100000,13,40000,40,9999,0.100000,0,0,0.000000,6,0.000000,0.000000,1.014199,0,0,0,0,0,0,0
10,109999,56,100000,13,40000,40,9999,0.100000,0,0,0.000000,6,0.000000,0.000000,0.084177,0,0,0,0,0,0,0
10,109999,57,100000,85,10000,40,9999,0.100000,0,0,0.000000,6,0.000000,0.000000,0.374928,0,0,0,0,0,0,0
10,109999,58,100000,91,60000,40,9999,0.100000,0,0,0.000000,6,0.000000,0.000000,2.191598,0,0,0,0,0,0,0
10,109999,59,100000,13,40000,40,9999,0.100000,0,0,0.000000,6,0.000000,0.000000,0.462083,0,0,0,0,0,0,0
10,109999,60,100000,13,30000,40,9999,0.100000,0,0,0.000000,6,0.000000,0.000000,0.378892,0,0,0,0,0,0,0
10,109999,61,100000,23,50000,40,9999,0.100000,0,0,0.000000,6,0.000000,0.000000,0.190273,0,0,0,0,0,0,0
10,109999,62,100000,91,60000,40,9999,0.100000,0,0,0.000000,6,0.000000,0.000000,0.074909,0,0,0,0,0,0,0
10,109999,63,100000,13,30000,40,9999,0.100000,0,0,0.000000,6,0.000000,0.000000,0.385434,0,0,0,0,0,0,0
10,109999,64,100000,85,10000,40,9999,0.100000,0,0,0.000000,6,0.000000,0.000000,3.215112,0,0,0,0,0,0,0
10,109999,65,100000,91,60000,49,9999,0.100000,0,0,0.000000,6,8.000000,0.000000,16.310811,0,0,0,0,0,0,0
10,109999,66,100000,13,40000,49,9999,0.100000,0,0,0.000000,6,1.000000,0.000000,4.163663,0,0,0,0,0,0,0
10,109999,67,100000,85,10000,49,9999,0.100000,0,0,0.000000,6,2.000000,0.000000,3.298627,0,0,0,0,0,0,0
10,109999,68,100000,13,30000,40,9999,0.100000,0,0,0.000000,6,0.000000,0.000000,0.563176,0,0,0,0,0,0,0
10,109999,69,100000,85,10000,40,9999,0.100000,0,0,0.000000,6,0.000000,0.000000,0.430821,0,0,0,0,0,0,0
10,109999,70,100000,85,10000,40,9999,0.100000,0,0,0.000000,6,0.000000,0.000000,0.485767,0,0,0,0,0,0,0
10,109999,71,100000,13,30000,49,9999,0.100000,0,0,0.000000,6,1.000000,0.000000,1.616327,0,0,0,0,0,0,0
10,109999,72,100000,13,30000,40,9999,0.100000,0,0,0.000000,6,0.000000,0.000000,0.207307,0,0,0,0,0,0,0
10,109999,73,100000,85,10000,49,9999,0.100000,0,0,0.000000,6,3.000000,0.000000,9.464265,0,0,0,0,0,0,0
10,109999,74,100000,9,0,40,9999,0.100000,0,0,0.000000,6,0.000000,0.000000,0.116744,0,0,0,0,0,0,0
10,109999,75,100000,9,0,49,9999,0.100000,0,0,0.000000,6,3.000000,0.000000,7.728785,0,0,0,0,0,0,0
10,109999,76,100000,9,0,40,9999,0.100000,0,0,0.000000,6,0.000000,0.000000,0.234124,0,0,0,0,0,0,0
10,109999,77,100000,91,60000,40,9999,0.100000,0,0,0.000000,6,0.000000,0.000000,1.652548,0,0,0,0,0,0,0
10,109999,78,100000,91,60000,49,9999,0.100000,0,0,0.000000,6,3.000000,0.000000,7.728416,0,0,0,0,0,0,0
10,109999,79,100000,9,0,40,9999,0.100000,0,0,0.000000,6,0.000000,0.000000,0.902756,0,0,0,0,0,0,0
10,109999,80,100000,23,50000,40,9999,0.100000,0,0,0.000000,6,0.000000,0.000000,0.082261,0,0,0,0,0,0,0
10,109999,81,100000,23,50000,49,9999,0.100000,0,0,0.000000,6,3.000000,0.000000,6.187029,0,0,0,0,0,0,0
10,109999,82,100000,13,30000,49,9999,0.135000,0,0,0.000000,6,1.000000,0.000000,9.130283,0,0,0,0,0,0,0
10,109999,83,100000,85,10000,40,9999,0.100000,0,0,0.000000,6,0.000000,0.000000,1.314355,0,0,0,0,0,0,0
10,109999,84,100000,13,30000,40,9999,0.100000,0,0,0.000000,6,0.000000,0.000000,0.550617,0,0,0,0,0,0,0
10,109999,85,100000,85,10000,40,9999,0.100000,0,0,0.000000,6,0.000000,0.000000,0.066015,0,0,0,0,0,0,0
10,109999,86,100000,23,50000,40,9999,0.100000,0,0,0.000000,6,0.000000,0.000000,0.207252,0,0,0,0,0,0,0
10,109999,87,100000,85,10000,40,9999,0.100000,0,0,0.000000,6,0.000000,0.000000,0.141321,0,0,0,0,0,0,0
10,109999,88,100000,13,30000,40,9999,0.100000,0,0,0.000000,6,0.000000,0.000000,0.801153,0,0,0,0,0,0,0
10,109999,89,100000,9,0,40,9999,0.100000,0,0,0.000000,6,0.000000,0.000000,0.561655,0,0,0,0,0,0,0
10,109999,90,100000,13,30000,49,9999,0.100000,0,0,0.000000,6,1.000000,0.000000,4.058218,0,0,0,0,0,0,0
10,109999,91,100000,13,30000,40,9999,0.100000,0,0,0.000000,6,0.000000,0.000000,3.850019,0,0,0,0,0,0,0
10,109999,92,100000,91,60000,40,9999,0.065000,0,0,0.000000,6,0.000000,0.000000,0.087666,0,0,0,0,0,0,0
10,109999,93,100000,9,0,49,9999,0.100000,0,0,0.000000,6,4.000000,0.000000,9.263659,0,0,0,0,0,0,0
10,109999,94,100000,85,10000,40,9999,0.100000,0,0,0.000000,6,0.000000,0.000000,0.464639,0,0,0,0,0,0,0
10,109999,95,100000,85,10000,40,9999,0.100000,0,0,0.000000,6,0.000000,0.000000,0.434013,0,0,0,0,0,0,0
10,109999,96,100000,13,40000,40,9999,0.100000,0,0,0.000000,6,0.000000,0.000000,0.235279,0,0,0,0,0,0,0
10,109999,97,100000,91,60000,49,9999,0.100000,0,0,0.000000,6,5.000000,0.000000,22.192581,0,0,0,0,0,0,0
10,109999,98,100000,13,30000,40,9999,0.100000,0,0,0.000000,6,0.000000,0.000000,1.084220,0,0,0,0,0,0,0
10,109999,99,100000,85,10000,40,9999,0.100000,0,0,0.000000,6,0.000000,0.000000,0.235926,0,0,0,0,0,0,0
11,119999,0,110000,13,40000,40,9999,0.100000,0,0,0.000000,6,0.000000,0.000000,1.138546,0,0,0,0,0,0,0
11,119999,1,110000,23,50000,40,9999,0.100000,0,0,0.000000,6,0.000000,0.000000,0.077844,0,0,0,0,0,0,0
11,119999,2,110000,85,10000,40,9999,0.100000,0,0,0.000000,6,0.000000,0.000000,2.306565,0,0,0,0,0,0,0
11,119999,3,110000,9,0,40,9999,0.100000,0,0,0.000000,6,0.000000,0.000000,0.094021,0,0,0,0,0,0,0
11,119999,4,110000,13,30000,40,9999,0.100000,0,0,0.000000,6,0.000000,0.000000,0.398232,0,0,0,0,0,0,0
11,119999,5,110000,23,50000,49,9999,0.100000,0,0,0.000000,6,2.000000,0.000000,8.709951,0,0,0,0,0,0,0
11,119999,6,110000,23,50000,40,9999,0.100000,0,0,0.000000,6,0.000000,0.000000,0.257868,0,0,0,0,0,0,0
11,119999,7,110000,85,10000,40,9999,0.100000,0,0,0.000000,6,0.000000,0.000000,3.381641,0,0,0,0,0,0,0
11,119999,8,110000,9,0,40,9999,0.100000,0,0,0.000000,6,0.000000,0.000000,0.390849,0,0,0,0,0,0,0
11,119999,9,110000,91,60000,40,9999,0.100000,0,0,0.000000,6,0.000000,0.000000,0.166445,0,0,0,0,0,0,0
11,119999,10,110000,9,0,40,9999,0.100000,0,0,0.000000,6,0.000000,0.000000,0.165434,0,0,0,0,0,0,0
11,119999,11,110000,9,0,40,9999,0.100000,0,0,0.000000,6,0.000000,0.000000,0.731016,0,0,0,0,0,0,0
11,119999,12,110000,13,40000,40,9999,0.100000,0,0,0.000000,6,0.000000,0.000000,0.152050,0,0,0,0,0,0,0
11,119999,13,110000,9,0,40,9999,0.100000,0,0,0.000000,6,0.000000,0.000000,0.539711,0,0,0,0,0,0,0
11,119999,14,110000,13,40000,40,9999,0.100000,0,0,0.000000,6,0.000000,0.000000,0.221727,0,0,0,0,0,0,0
11,119999,15,110000,23,50000,40,9999,0.135000,0,0,0.000000,6,0.000000,0.000000,4.457064,0,0,0,0,0,0,0
11,119999,16,110000,13,30000,40,9999,0.100000,0,0,0.000000,6,0.000000,0.000000,2.531217,0,0,0,0,0,0,0
11,119999,17,110000,13,30000,40,9999,0.100000,0,0,0.000000,6,0.000000,0.000000,0.540642,0,0,0,0,0,0,0
11,119999,18,110000,91,60000,40,9999,0.100000,0,0,0.000000,6,0.000000,0.000000,0.600013,0,0,0,0,0,0,0
11,119999,19,110000,85,10000,40,9999,0.100000,0,0,0.000000,6,0.000000,0.000000,0.271348,0,0,0,0,0,0,0
11,119999,20,110000,9,0,40,9999,0.100000,0,0,0.000000,6,0.000000,0.000000,0.113978,0,0,0,0,0,0,0
11,119999,21,110000,91,60000,40,9999,0.100000,0,0,0.000000,6,0.000000,0.000000,0.904537,0,0,0,0,0,0,0
11,119999,22,110000,23,50000,40,9999,0.100000,0,0,0.000000,6,0.000000,0.000000,0.861587,0,0,0,0,0,0,0
11,119999,23,110000,85,10000,40,9999,0.100000,0,0,0.000000,6,0.000000,0.000000,1.232197,0,0,0,0,0,0,0
11,119999,24,110000,91,60000,40,9999,0.100000,0,0,0.000000,6,0.000000,0.000000,0.638786,0,0,0,0,0,0,0
11,119999,25,110000,85,10000,40,9999,0.100000,0,0,0.000000,6,0.000000,0.000000,0.175932,0,0,0,0,0,0,0
11,119999,26,110000,9,0,40,9999,0.100000,0,0,0.000000,6,0.000000,0.000000,0.326121,0,0,0,0,0,0,0
11,119999,27,110000,23,50000,40,9999,0.100000,0,0,0.000000,6,0.000000,0.000000,0.398886,0,0,0,0,0,0,0
11,119999,28,110000,23,50000,40,9999,0.100000,0,0,0.000000,6,0.000000,0.000000,0.117149,0,0,0,0,0,0,0
11,119999,29,110000,9,0,40,9999,0.100000,0,0,0.000000,6,0.000000,0.000000,0.145339,0,0,0,0,0,0,0
11,119999,30,110000,85,10000,40,9999,0.100000,0,0,0.000000,6,0.000000,0.000000,0.673260,0,0,0,0,0,0,0
11,119999,31,110000,91,60000,40,9999,0.100000,0,0,0.000000,6,0.000000,0.000000,1.968227,0,0,0,0,0,0,0
11,119999,32,110000,91,60000,49,9999,0.100000,0,0,0.000000,6,1.000000,0.000000,5.109243,0,0,0,0,0,0,0
11,119999,33,110000,85,10000,40,9999,0.100000,0,0,0.000000,6,0.000000,0.000000,0.480919,0,0,0,0,0,0,0
11,119999,34,110000,13,30000,49,9999,0.100000,0,0,0.000000,6,4.000000,0.000000,8.731523,0,0,0,0,0,0,0
11,119999,35,110000,13,40000,40,9999,0.100000,0,0,0.000000,6,0.000000,0.000000,0.101281,0,0,0,0,0,0,0
11,119999,36,110000,9,0,40,9999,0.100000,0,0,0.000000,6,0.000000,0.000000,0.385620,0,0,0,0,0,0,0
11,119999,37,110000,85,10000,40,9999,0.100000,0,0,0.000000,6,0.000000,0.000000,0.785357,0,0,0,0,0,0,0
11,119999,38,110000,13,30000,40,9999,0.100000,0,0,0.000000,6,0.000000,0.000000,0.449315,0,0,0,0,0,0,0
11,119999,39,110000,13,40000,40,9999,0.100000,0,0,0.000000,6,0.000000,0.000000,0.432147,0,0,0,0,0,0,0
11,119999,40,110000,23,50000,49,9999,0.100000,0,0,0.000000,6,8.000000,0.000000,15.634194,0,0,0,0,0,0,0
11,119999,41,110000,13,30000,40,9999,0.100000,0,0,0.000000,6,0.000000,0.000000,0.100953,0,0,0,0,0,0,0
11,119999,42,110000,91,60000,40,9999,0.100000,0,0,0.000000,6,0.000000,0.000000,0.572628,0,0,0,0,0,0,0
11,119999,43,110000,13,30000,40,9999,0.100000,0,0,0.000000,6,0.000000,0.000000,0.545219,0,0,0,0,0,0,0
11,119999,44,110000,91,60000,40,9999,0.100000,0,0,0.000000,6,0.000000,0.000000,3.948647,0,0,0,0,0,0,0
11,119999,45,110000,9,0,40,9999,0.100000,0,0,0.000000,6,0.000000,0.000000,0.221541,0,0,0,0,0,0,0
11,119999,46,110000,91,60000,40,9999,0.100000,0,0,0.000000,6,0.000000,0.000000,0.089094,0,0,0,0,0,0,0
11,119999,47,110000,85,10000,49,9999,0.100000,0,0,0.000000,6,10.000000,0.000000,32.538352,0,0,0,0,0,0,0
11,119999,48,110000,9,0,40,9999,0.100000,0,0,0.000000,6,0.000000,0.000000,0.228278,0,0,0,0,0,0,0
11,119999,49,110000,85,10000,40,9999,0.100000,0,0,0.000000,6,0.000000,0.000000,0.541126,0,0,0,0,0,0,0
11,119999,50,110000,91,60000,40,9999,0.100000,0,0,0.000000,6,0.000000,0.000000,0.085088,0,0,0,0,0,0,0
11,119999,51,110000,9,0,40,9999,0.100000,0,0,0.000000,6,0.000000,0.000000,0.054512,0,0,0,0,0,0,0
11,119999,52,110000,91,60000,40,9999,0.100000,0,0,0.000000,6,0.000000,0.000000,0.972590,0,0,0,0,0,0,0
11,119999,53,110000,13,30000,49,9999,0.100000,0,0,0.000000,6,1.000000,0.000000,6.310706,0,0,0,0,0,0,0
11,119999,54,110000,13,30000,40,9999,0.100000,0,0,0.000000,6,0.000000,0.000000,0.388960,0,0,0,0,0,0,0
11,119999,55,110000,13,40000,40,9999,0.100000,0,0,0.000000,6,0.000000,0.000000,0.828802,0,0,0,0,0,0,0
11,119999,56,110000,85,10000,40,9999,0.100000,0,0,0.000000,6,0.000000,0.000000,0.088138,0,0,0,0,0,0,0
11,119999,57,110000,91,60000,40,9999,0.100000,0,0,0.000000,6,0.000000,0.000000,0.381411,0,0,0,0,0,0,0
11,119999,58,110000,13,40000,40,9999,0.100000,0,0,0.000000,6,0.000000,0.000000,0.232249,0,0,0,0,0,0,0
11,119999,59,110000,23,50000,40,9999,0.100000,0,0,0.000000,6,0.000000,0.000000,0.464016,0,0,0,0,0,0,0
11,119999,60,110000,13,30000,40,9999,0.100000,0,0,0.000000,6,0.000000,0.000000,0.302390,0,0,0,0,0,0,0
11,119999,61,110000,23,50000,40,9999,0.100000,0,0,0.000000,6,0.000000,0.000000,0.245630,0,0,0,0,0,0,0
11,119999,62,110000,13,40000,40,9999,0.100000,0,0,0.000000,6,0.000000,0.000000,0.074870,0,0,0,0,0,0,0
11,119999,63,110000,85,10000,40,9999,0.100000,0,0,0.000000,6,0.000000,0.000000,0.320569,0,0,0,0,0,0,0
11,119999,64,110000,13,40000,40,9999,0.100000,0,0,0.000000,6,0.000000,0.000000,3.631821,0,0,0,0,0,0,0
11,119999,65,110000,13,40000,40,9999,0.100000,0,0,0.000000,6,0.000000,0.000000,0.215290,0,0,0,0,0,0,0
11,119999,66,110000,13,40000,40,9999,0.100000,0,0,0.000000,6,0.000000,0.000000,4.005367,0,0,0,0,0,0,0
11,119999,67,110000,91,60000,40,9999,0.100000,0,0,0.000000,6,0.000000,0.000000,1.087785,0,0,0,0,0,0,0
11,119999,68,110000,13,30000,40,9999,0.100000,0,0,0.000000,6,0.000000,0.000000,0.587255,0,0,0,0,0,0,0
11,119999,69,110000,23,50000,40,9999,0.100000,0,0,0.000000,6,0.000000,0.000000,0.093775,0,0,0,0,0,0,0
11,119999,70,110000,91,60000,40,9999,0.100000,0,0,0.000000,6,0.000000,0.000000,0.728537,0,0,0,0,0,0,0
11,119999,71,110000,13,30000,40,9999,0.100000,0,0,0.000000,6,0.000000,0.000000,0.491689,0,0,0,0,0,0,0
11,119999,72,110000,91,60000,40,9999,0.100000,0,0,0.000000,6,0.000000,0.000000,0.203850,0,0,0,0,0,0,0
11,119999,73,110000,9,0,40,9999,0.100000,0,0,0.000000,6,0.000000,0.000000,0.151281,0,0,0,0,0,0,0
11,119999,74,110000,13,40000,40,9999,0.100000,0,0,0.000000,6,0.000000,0.000000,0.097272,0,0,0,0,0,0,0
11,119999,75,110000,23,50000,40,9999,0.100000,0,0,0.000000,6,0.000000,0.000000,0.431578,0,0,0,0,0,0,0
11,119999,76,110000,9,0,40,9999,0.100000,0,0,0.000000,6,0.000000,0.000000,0.223547,0,0,0,0,0,0,0
11,119999,77,110000,13,30000,40,9999,0.100000,0,0,0.000000,6,0.000000,0.000000,0.132357,0,0,0,0,0,0,0
11,119999,78,110000,13,30000,40,9999,0.100000,0,0,0.000000,6,0.000000,0.000000,0.155379,0,0,0,0,0,0,0
11,119999,79,110000,13,40000,40,9999,0.100000,0,0,0.000000,6,0.000000,0.000000,0.904547,0,0,0,0,0,0,0
11,119999,80,110000,85,10000,40,9999,0.100000,0,0,0.000000,6,0.000000,0.000000,0.075634,0,0,0,0,0,0,0
11,119999,81,110000,23,50000,49,9999,0.100000,0,0,0.000000,6,3.000000,0.000000,6.135195,0,0,0,0,0,0,0
11,119999,82,110000,91,60000,49,9999,0.100000,0,0,0.000000,6,1.000000,0.000000,1.842135,0,0,0,0,0,0,0
11,119999,83,110000,85,10000,40,9999,0.100000,0,0,0.000000,6,0.000000,0.000000,1.533075,0,0,0,0,0,0,0
11,119999,84,110000,9,0,40,9999,0.100000,0,0,0.000000,6,0.000000,0.000000,0.550459,0,0,0,0,0,0,0
11,119999,85,110000,9,0,40,9999,0.100000,0,0,0.000000,6,0.000000,0.000000,0.065287,0,0,0,0,0,0,0
11,119999,86,110000,85,10000,40,9999,0.100000,0,0,0.000000,6,0.000000,0.000000,0.143010,0,0,0,0,0,0,0
11,119999,87,110000,13,40000,40,9999,0.100000,0,0,0.000000,6,0.000000,0.000000,0.157894,0,0,0,0,0,0,0
11,119999,88,110000,23,50000,40,9999,0.100000,0,0,0.000000,6,0.000000,0.000000,0.130396,0,0,0,0,0,0,0
11,119999,89,110000,9,0,49,9999,0.100000,0,0,0.000000,6,1.000000,0.000000,4.152110,0,0,0,0,0,0,0
11,119999,90,110000,91,60000,40,9999,0.100000,0,0,0.000000,6,0.000000,0.000000,2.225742,0,0,0,0,0,0,0
11,119999,91,110000,85,10000,40,9999,0.100000,0,0,0.000000,6,0.000000,0.000000,0.110418,0,0,0,0,0,0,0
11,119999,92,110000,13,40000,40,9999,0.100000,0,0,0.000000,6,0.000000,0.000000,0.084400,0,0,0,0,0,0,0
11,119999,93,110000,13,40000,40,9999,0.100000,0,0,0.000000,6,0.000000,0.000000,0.934844,0,0,0,0,0,0,0
11,119999,94,110000,9,0,40,9999,0.100000,0,0,0.000000,6,0.000000,0.000000,0.109960,0,0,0,0,0,0,0
11,119999,95,110000,23,50000,40,9999,0.100000,0,0,0.000000,6,0.000000,0.000000,0.430364,0,0,0,0,0,0,0
11,119999,96,110000,23,50000,40,9999,0.100000,0,0,0.000000,6,0.000000,0.000000,0.245216,0,0,0,0,0,0,0
11,119999,97,110000,91,60000,40,9999,0.100000,0,0,0.000000,6,0.000000,0.000000,0.119795,0,0,0,0,0,0,0
11,119999,98,110000,13,40000,40,9999,0.100000,0,0,0.000000,6,0.000000,0.000000,0.315803,0,0,0,0,0,0,0
11,119999,99,110000,23,50000,40,9999,0.100000,0,0,0.000000,6,0.000000,0.000000,0.214698,0,0,0,0,0,0,0
12,129999,0,120000,13,30000,40,9999,0.100000,0,0,0.000000,6,0.000000,0.000000,0.231119,0,0,0,0,0,0,0
12,129999,1,120000,13,40000,40,9999,0.100000,0,0,0.000000,6,0.000000,0.000000,0.141406,0,0,0,0,0,0,0
12,129999,2,120000,13,30000,40,9999,0.100000,0,0,0.000000,6,0.000000,0.000000,1.040832,0,0,0,0,0,0,0
12,129999,3,120000,23,50000,40,9999,0.100000,0,0,0.000000,6,0.000000,0.000000,0.095973,0,0,0,0,0,0,0
12,129999,4,120000,9,0,40,9999,0.100000,0,0,0.000000,6,0.000000,0.000000,1.154396,0,0,0,0,0,0,0
12,129999,5,120000,91,60000,49,9999,0.100000,0,0,0.000000,6,4.000000,0.000000,13.387279,0,0,0,0,0,0,0
12,129999,6,120000,13,40000,40,9999,0.100000,0,0,0.000000,6,0.000000,0.000000,0.263120,0,0,0,0,0,0,0
12,129999,7,120000,23,50000,49,9999,0.100000,0,0,0.000000,6,1.000000,0.000000,2.149091,0,0,0,0,0,0,0
12,129999,8,120000,85,10000,40,9999,0.100000,0,0,0.000000,6,0.000000,0.000000,0.446137,0,0,0,0,0,0,0
12,129999,9,120000,85,10000,40,9999,0.100000,0,0,0.000000,6,0.000000,0.000000,0.149477,0,0,0,0,0,0,0
12,129999,10,120000,13,30000,40,9999,0.100000,0,0,0.000000,6,0.000000,0.000000,0.167472,0,0,0,0,0,0,0
12,129999,11,120000,13,40000,40,9999,0.100000,0,0,0.000000,6,0.000000,0.000000,1.127193,0,0,0,0,0,0,0
12,129999,12,120000,9,0,40,9999,0.100000,0,0,0.000000,6,0.000000,0.000000,0.158370,0,0,0,0,0,0,0
12,129999,13,120000,85,10000,40,9999,0.100000,0,0,0.000000,6,0.000000,0.000000,0.434326,0,0,0,0,0,0,0
12,129999,14,120000,9,0,40,9999,0.100000,0,0,0.000000,6,0.000000,0.000000,0.234649,0,0,0,0,0,0,0
12,129999,15,120000,13,30000,49,9999,0.100000,0,0,0.000000,6,1.000000,0.000000,7.004749,0,0,0,0,0,0,0
12,129999,16,120000,13,40000,40,9999,0.100000,0,0,0.000000,6,0.000000,0.000000,0.812856,0,0,0,0,0,0,0
12,129999,17,120000,13,30000,40,9999,0.100000,0,0,0.000000,6,0.000000,0.000000,1.069190,0,0,0,0,0,0,0
12,129999,18,120000,91,60000,40,9999,0.100000,0,0,0.000000,6,0.000000,0.000000,0.369743,0,0,0,0,0,0,0
12,129999,19,120000,9,0,40,9999,0.100000,0,0,0.000000,6,0.000000,0.000000,0.252147,0,0,0,0,0,0,0
12,129999,20,120000,13,40000,40,9999,0.100000,0,0,0.000000,6,0.000000,0.000000,0.093833,0,0,0,0,0,0,0
12,129999,21,120000,23,50000,40,9999,0.100000,0,0,0.000000,6,0.000000,0.000000,1.440818,0,0,0,0,0,0,0
12,129999,22,120000,13,30000,40,9999,0.100000,0,0,0.000000,6,0.000000,0.000000,1.465706,0,0,0,0,0,0,0
12,129999,23,120000,91,60000,40,9999,0.100000,0,0,0.000000,6,0.000000,0.000000,1.097615,0,0,0,0,0,0,0
12,129999,24,120000,13,30000,40,9999,0.100000,0,0,0.000000,6,0.000000,0.000000,1.130437,0,0,0,0,0,0,0
12,129999,25,120000,91,60000,40,9999,0.100000,0,0,0.000000,6,0.000000,0.000000,0.193228,0,0,0,0,0,0,0
12,129999,26,120000,85,10000,40,9999,0.100000,0,0,0.000000,6,0.000000,0.000000,0.398632,0,0,0,0,0,0,0
12,129999,27,120000,13,40000,40,9999,0.100000,0,0,0.000000,6,0.000000,0.000000,1.184439,0,0,0,0,0,0,0
12,129999,28,120000,91,60000,40,9999,0.100000,0,0,0.000000,6,0.000000,0.000000,0.256695,0,0,0,0,0,0,0
