generation,iteration,robot,birthday,ancestor_id,ancestor_birthday,cell_id,age,sigma,maps,genomes,fitness,cells_in_map,dist_max,dist_pot_max,dist_total,com_rx,com_tx,obj_group1,obj_group2,obj_group3,obj_group4,obj_group5
0,9999,0,0,0,0,40,9999,0.100000,99,99,0.000000,0,1.000000,12.280351,17.256974,99,99,0,0,0,0,0
0,9999,1,0,1,0,40,9999,0.100000,99,99,0.000000,0,1.000000,27.494285,10.973396,99,99,0,0,0,0,0
0,9999,2,0,2,0,40,9999,0.100000,99,99,0.000000,0,1.000000,27.610508,8.971122,99,99,0,0,0,0,0
0,9999,3,0,3,0,40,9999,0.100000,99,99,0.000000,0,1.000000,18.300602,6.670839,99,99,0,0,0,0,0
0,9999,4,0,4,0,40,9999,0.100000,99,99,0.000000,0,1.000000,27.321951,7.473905,99,99,0,0,0,0,0
0,9999,5,0,5,0,40,9999,0.100000,99,99,0.000000,0,2.000000,27.195930,4.276754,99,99,0,0,0,0,0
0,9999,6,0,6,0,40,9999,0.100000,99,99,0.000000,0,3.000000,30.600971,8.689872,99,99,0,0,0,0,0
0,9999,7,0,7,0,40,9999,0.100000,99,99,0.000000,0,1.000000,24.150972,9.260517,99,99,0,0,0,0,0
0,9999,8,0,8,0,0,9999,0.100000,99,99,4.063939,0,1.000000,28.280044,2.718651,99,99,0,0,1,0,0
0,9999,9,0,9,0,40,9999,0.100000,99,99,0.000000,0,2.000000,22.539936,8.397562,99,99,0,0,0,0,0
0,9999,10,0,10,0,0,9999,0.100000,99,99,1.824917,0,1.000000,31.027839,2.937817,99,99,0,1,0,0,0
0,9999,11,0,11,0,0,9999,0.100000,99,99,1.149840,0,1.000000,24.996666,5.346183,99,99,0,0,0,0,1
0,9999,12,0,12,0,40,9999,0.100000,99,99,0.000000,0,0.000000,28.300273,9.445536,99,99,0,0,0,0,0
0,9999,13,0,13,0,1,9999,0.100000,99,99,0.394900,0,3.000000,18.276473,6.268117,99,99,0,0,0,1,0
0,9999,14,0,14,0,40,9999,0.100000,99,99,0.000000,0,1.000000,23.124405,10.161836,99,99,0,0,0,0,0
0,9999,15,0,15,0,41,9999,0.100000,99,99,0.000000,0,3.000000,26.949631,10.942674,99,99,0,0,0,0,0
0,9999,16,0,16,0,40,9999,0.100000,99,99,0.000000,0,1.000000,27.065169,18.424479,99,99,0,0,0,0,0
0,9999,17,0,17,0,40,9999,0.100000,99,99,0.000000,0,2.000000,25.289539,3.639024,99,99,0,0,0,0,0
0,9999,18,0,18,0,0,9999,0.100000,99,99,0.062971,0,0.000000,29.932386,3.868959,99,99,0,0,1,0,0
0,9999,19,0,19,0,0,9999,0.100000,99,99,0.710221,0,0.000000,26.304907,2.053876,99,99,0,0,0,0,1
0,9999,20,0,20,0,40,9999,0.100000,99,99,0.000000,0,1.000000,25.134398,4.624730,99,99,0,0,0,0,0
0,9999,21,0,21,0,0,9999,0.100000,99,99,1.578781,0,1.000000,28.873262,1.838826,99,99,0,0,1,0,0
0,9999,22,0,22,0,40,9999,0.100000,99,99,0.000000,0,2.000000,27.844327,7.477753,99,99,0,0,0,0,0
0,9999,23,0,23,0,43,9999,0.100000,99,99,65.479538,0,10.000000,26.959363,20.518758,99,99,1,1,0,0,0
0,9999,24,0,24,0,40,9999,0.100000,99,99,0.000000,0,1.000000,27.947145,5.665059,99,99,0,0,0,0,0
0,9999,25,0,25,0,40,9999,0.100000,99,99,0.000000,0,0.000000,24.741099,3.091536,99,99,0,0,0,0,0
0,9999,26,0,26,0,0,9999,0.100000,99,99,0.317602,0,2.000000,27.042594,4.145848,99,99,0,0,0,1,0
0,9999,27,0,27,0,40,9999,0.100000,99,99,0.000000,0,0.000000,28.049931,0.456951,99,99,0,0,0,0,0
0,9999,28,0,28,0,40,9999,0.100000,99,99,0.000000,0,1.000000,27.947145,1.652071,99,99,0,0,0,0,0
0,9999,29,0,29,0,40,9999,0.100000,99,99,0.000000,0,0.000000,31.957231,0.990298,99,99,0,0,0,0,0
0,9999,30,0,30,0,1,9999,0.100000,99,99,11.596604,0,3.000000,25.432433,8.189981,99,99,0,1,0,0,0
0,9999,31,0,31,0,0,9999,0.100000,99,99,5.525183,0,0.000000,27.681912,3.995734,99,99,0,1,0,0,0
0,9999,32,0,32,0,40,9999,0.100000,99,99,0.000000,0,1.000000,28.106905,6.339352,99,99,0,0,0,0,0
0,9999,33,0,33,0,40,9999,0.100000,99,99,0.000000,0,0.000000,28.212358,0.854111,99,99,0,0,0,0,0
0,9999,34,0,34,0,90,9999,0.100000,99,99,8.411584,0,1.000000,35.763540,11.085841,99,99,1,0,0,0,0
0,9999,35,0,35,0,0,9999,0.100000,99,99,0.408445,0,0.000000,25.562133,0.712501,99,99,0,0,0,0,1
0,9999,36,0,36,0,40,9999,0.100000,99,99,0.000000,0,2.000000,23.507405,5.243289,99,99,0,0,0,0,0
0,9999,37,0,37,0,40,9999,0.100000,99,99,0.000000,0,1.000000,27.565022,4.420179,99,99,0,0,0,0,0
0,9999,38,0,38,0,40,9999,0.100000,99,99,0.000000,0,2.000000,24.312582,7.334355,99,99,0,0,0,0,0
0,9999,39,0,39,0,41,9999,0.100000,99,99,0.000000,0,2.000000,17.808969,6.356593,99,99,0,0,0,0,0
0,9999,40,0,40,0,40,9999,0.100000,99,99,0.000000,0,1.000000,28.847016,6.903608,99,99,0,0,0,0,0
0,9999,41,0,41,0,40,9999,0.100000,99,99,0.000000,0,0.000000,27.032909,3.164749,99,99,0,0,0,0,0
0,9999,42,0,42,0,40,9999,0.100000,99,99,0.000000,0,2.000000,29.448907,6.639905,99,99,0,0,0,0,0
0,9999,43,0,43,0,40,9999,0.100000,99,99,0.000000,0,0.000000,26.796726,1.818446,99,99,0,0,0,0,0
0,9999,44,0,44,0,0,9999,0.100000,99,99,0.000975,0,0.000000,19.928243,2.827298,99,99,0,0,0,0,1
0,9999,45,0,45,0,40,9999,0.100000,99,99,0.000000,0,1.000000,24.005713,6.082406,99,99,0,0,0,0,0
0,9999,46,0,46,0,0,9999,0.100000,99,99,1.369004,0,0.000000,28.717105,0.920244,99,99,0,0,0,1,0
0,9999,47,0,47,0,0,9999,0.100000,99,99,0.224908,0,2.000000,22.272327,4.335882,99,99,0,0,1,0,0
0,9999,48,0,48,0,40,9999,0.100000,99,99,0.000000,0,0.000000,22.167169,5.443403,99,99,0,0,0,0,0
0,9999,49,0,49,0,0,9999,0.100000,99,99,7.951274,0,1.000000,28.595160,6.642016,99,99,0,1,0,0,0
0,9999,50,0,50,0,0,9999,0.100000,99,99,0.007226,0,1.000000,14.604346,3.247628,99,99,0,0,0,1,0
0,9999,51,0,51,0,2,9999,0.100000,99,99,0.069687,0,5.000000,22.467959,11.644253,99,99,0,1,0,0,0
0,9999,52,0,52,0,1,9999,0.100000,99,99,0.150387,0,3.000000,19.360021,7.277867,99,99,0,0,0,1,0
0,9999,53,0,53,0,41,9999,0.100000,99,99,0.000000,0,4.000000,34.048285,9.323102,99,99,0,0,0,0,0
0,9999,54,0,54,0,40,9999,0.100000,99,99,0.000000,0,1.000000,32.194819,2.616698,99,99,0,0,0,0,0
0,9999,55,0,55,0,0,9999,0.100000,99,99,0.002038,0,0.000000,20.044899,1.712319,99,99,0,0,0,0,1
0,9999,56,0,56,0,2,9999,0.100000,99,99,12.009171,0,6.000000,21.808895,20.782078,99,99,0,1,0,0,0
0,9999,57,0,57,0,40,9999,0.100000,99,99,0.000000,0,1.000000,18.004998,3.724355,99,99,0,0,0,0,0
0,9999,58,0,58,0,41,9999,0.100000,99,99,0.000000,0,3.000000,26.137224,9.924979,99,99,0,0,0,0,0
0,9999,59,0,59,0,40,9999,0.100000,99,99,0.000000,0,0.000000,17.130919,1.221164,99,99,0,0,0,0,0
0,9999,60,0,60,0,2,9999,0.100000,99,99,0.011136,0,9.000000,32.625870,18.999870,99,99,0,0,1,0,0
0,9999,61,0,61,0,40,9999,0.100000,99,99,0.000000,0,2.000000,27.114321,2.821004,99,99,0,0,0,0,0
0,9999,62,0,62,0,40,9999,0.100000,99,99,0.000000,0,1.000000,25.021651,5.575647,99,99,0,0,0,0,0
0,9999,63,0,63,0,40,9999,0.100000,99,99,0.000000,0,2.000000,22.603571,11.866803,99,99,0,0,0,0,0
0,9999,64,0,64,0,41,9999,0.100000,99,99,0.000000,0,3.000000,27.837320,15.545952,99,99,0,0,0,0,0
0,9999,65,0,65,0,40,9999,0.100000,99,99,0.000000,0,2.000000,23.192801,5.418621,99,99,0,0,0,0,0
0,9999,66,0,66,0,0,9999,0.100000,99,99,1.659876,0,0.000000,29.068561,1.539534,99,99,0,0,0,1,0
0,9999,67,0,67,0,40,9999,0.100000,99,99,0.000000,0,1.000000,25.307514,3.912876,99,99,0,0,0,0,0
0,9999,68,0,68,0,41,9999,0.100000,99,99,0.000000,0,4.000000,26.601807,12.379090,99,99,0,0,0,0,0
0,9999,69,0,69,0,40,9999,0.100000,99,99,0.000000,0,2.000000,22.257651,13.157025,99,99,0,0,0,0,0
0,9999,70,0,70,0,40,9999,0.100000,99,99,0.000000,0,0.000000,20.960383,1.039664,99,99,0,0,0,0,0
0,9999,71,0,71,0,40,9999,0.100000,99,99,0.000000,0,0.000000,30.131567,4.250961,99,99,0,0,0,0,0
0,9999,72,0,72,0,41,9999,0.100000,99,99,0.000000,0,4.000000,26.455924,5.067840,99,99,0,0,0,0,0
0,9999,73,0,73,0,40,9999,0.100000,99,99,0.000000,0,1.000000,29.453535,5.715991,99,99,0,0,0,0,0
0,9999,74,0,74,0,40,9999,0.100000,99,99,0.000000,0,1.000000,26.549622,9.561039,99,99,0,0,0,0,0
0,9999,75,0,75,0,0,9999,0.100000,99,99,0.627652,0,0.000000,30.309603,0.530912,99,99,0,0,0,0,1
0,9999,76,0,76,0,40,9999,0.100000,99,99,0.000000,0,1.000000,22.624579,8.813959,99,99,0,0,0,0,0
0,9999,77,0,77,0,40,9999,0.100000,99,99,0.000000,0,1.000000,27.681912,4.041837,99,99,0,0,0,0,0
0,9999,78,0,78,0,40,9999,0.100000,99,99,0.000000,0,1.000000,27.532826,3.239209,99,99,0,0,0,0,0
0,9999,79,0,79,0,0,9999,0.100000,99,99,0.004646,0,0.000000,17.025667,1.173153,99,99,0,0,0,0,1
0,9999,80,0,80,0,0,9999,0.100000,99,99,9.937201,0,2.000000,31.343383,18.508942,99,99,0,1,0,0,0
0,9999,81,0,81,0,40,9999,0.100000,99,99,0.000000,0,3.000000,33.380548,17.654319,99,99,0,0,0,0,0
0,9999,82,0,82,0,0,9999,0.100000,99,99,1.412983,0,0.000000,23.729530,0.947420,99,99,0,0,1,0,0
0,9999,83,0,83,0,40,9999,0.100000,99,99,0.000000,0,1.000000,24.006427,10.411281,99,99,0,0,0,0,0
0,9999,84,0,84,0,0,9999,0.100000,99,99,0.090027,0,1.000000,23.536617,1.463735,99,99,0,1,0,0,0
0,9999,85,0,85,0,40,9999,0.100000,99,99,0.000000,0,1.000000,19.326307,6.005043,99,99,0,0,0,0,0
0,9999,86,0,86,0,40,9999,0.100000,99,99,0.000000,0,1.000000,30.306649,8.149423,99,99,0,0,0,0,0
0,9999,87,0,87,0,40,9999,0.100000,99,99,0.000000,0,1.000000,28.887562,11.128033,99,99,0,0,0,0,0
0,9999,88,0,88,0,40,9999,0.100000,99,99,0.000000,0,1.000000,22.747549,8.263785,99,99,0,0,0,0,0
0,9999,89,0,89,0,94,9999,0.100000,99,99,41.497280,0,10.000000,23.013839,16.948658,99,99,1,0,0,0,0
0,9999,90,0,90,0,40,9999,0.100000,99,99,0.000000,0,1.000000,26.144658,8.127541,99,99,0,0,0,0,0
0,9999,91,0,91,0,40,9999,0.100000,99,99,0.000000,0,0.000000,22.553884,5.172520,99,99,0,0,0,0,0
0,9999,92,0,92,0,40,9999,0.100000,99,99,0.000000,0,1.000000,27.833115,13.634715,99,99,0,0,0,0,0
0,9999,93,0,93,0,43,9999,0.100000,99,99,0.000000,0,8.000000,23.014607,17.308572,99,99,0,0,0,0,0
0,9999,94,0,94,0,40,9999,0.100000,99,99,0.000000,0,0.000000,21.569356,5.612655,99,99,0,0,0,0,0
0,9999,95,0,95,0,40,9999,0.100000,99,99,0.000000,0,1.000000,21.088733,9.550442,99,99,0,0,0,0,0
0,9999,96,0,96,0,40,9999,0.100000,99,99,0.000000,0,0.000000,27.734148,2.609002,99,99,0,0,0,0,0
0,9999,97,0,97,0,40,9999,0.100000,99,99,0.000000,0,2.000000,32.415397,5.146516,99,99,0,0,0,0,0
0,9999,98,0,98,0,40,9999,0.100000,99,99,0.000000,0,1.000000,26.051480,7.665033,99,99,0,0,0,0,0
0,9999,99,0,99,0,40,9999,0.100000,99,99,0.000000,0,2.000000,22.658989,5.660850,99,99,0,0,0,0,0
1,19999,0,10000,23,0,40,9999,0.100000,99,198,0.000000,1,1.000000,11.775153,7.727535,99,99,0,0,0,0,0
1,19999,1,10000,23,0,41,9999,0.100000,99,198,0.000000,1,3.000000,27.003620,12.712445,99,99,0,0,0,0,0
1,19999,2,10000,23,0,40,9999,0.100000,99,198,0.000000,1,1.000000,27.369765,4.580742,99,99,0,0,0,0,0
1,19999,3,10000,23,0,40,9999,0.100000,99,198,0.000000,1,1.000000,17.779459,2.225838,99,99,0,0,0,0,0
1,19999,4,10000,23,0,92,9999,0.100000,99,198,36.184735,1,8.000000,27.213503,15.404516,99,99,1,0,0,0,0
1,19999,5,10000,23,0,40,9999,0.100000,99,198,0.000000,1,0.000000,25.391047,0.738508,99,99,0,0,0,0,0
1,19999,6,10000,23,0,40,9999,0.100000,99,198,0.000000,1,1.000000,31.395136,5.551362,99,99,0,0,0,0,0
1,19999,7,10000,23,0,40,9999,0.100000,99,198,0.000000,1,1.000000,23.291943,12.042113,99,99,0,0,0,0,0
1,19999,8,10000,23,0,0,9999,0.100000,99,198,10.295714,1,2.000000,29.699747,6.495487,99,99,0,0,1,0,0
1,19999,9,10000,23,0,40,9999,0.100000,99,198,0.000000,1,0.000000,25.164236,4.162830,99,99,0,0,0,0,0
1,19999,10,10000,23,0,0,9999,0.100000,99,198,7.133051,1,1.000000,31.554411,1.917336,99,99,0,1,0,0,0
1,19999,11,10000,23,0,40,9999,0.100000,99,198,0.000000,1,1.000000,26.039250,9.535558,99,99,0,0,0,0,0
1,19999,12,10000,23,0,40,9999,0.100000,99,198,0.000000,1,2.000000,27.913975,8.124280,99,99,0,0,0,0,0
1,19999,13,10000,23,0,40,9999,0.100000,99,198,0.000000,1,0.000000,21.905208,0.444554,99,99,0,0,0,0,0
1,19999,14,10000,23,0,43,9999,0.100000,99,198,0.000000,1,9.000000,22.347412,10.251270,99,99,0,0,0,0,0
1,19999,15,10000,23,0,40,9999,0.100000,99,198,0.000000,1,0.000000,28.699163,0.477365,99,99,0,0,0,0,0
1,19999,16,10000,23,0,40,9999,0.100000,99,198,0.000000,1,1.000000,27.461364,12.032246,99,99,0,0,0,0,0
1,19999,17,10000,23,0,0,9999,0.100000,99,198,10.517844,1,2.000000,26.863507,5.935165,99,99,0,1,0,0,0
1,19999,18,10000,23,0,0,9999,0.100000,99,198,0.008866,1,0.000000,30.197740,0.132823,99,99,0,0,1,0,0
1,19999,19,10000,23,0,0,9999,0.100000,99,198,0.160667,1,0.000000,26.560300,0.368539,99,99,0,0,0,0,1
1,19999,20,10000,23,0,40,9999,0.100000,99,198,0.000000,1,1.000000,25.508174,9.934010,99,99,0,0,0,0,0
1,19999,21,10000,23,0,0,9999,0.100000,99,198,1.699998,1,0.000000,29.071353,0.479895,99,99,0,0,1,0,0
1,19999,22,10000,23,0,40,9999,0.100000,99,198,0.000000,1,0.000000,29.874882,0.194318,99,99,0,0,0,0,0
1,19999,23,10000,89,0,40,9999,0.100000,99,198,0.000000,1,0.000000,31.926791,5.313928,99,99,0,0,0,0,0
1,19999,24,10000,23,0,40,9999,0.100000,99,198,0.000000,1,2.000000,29.242480,9.272927,99,99,0,0,0,0,0
1,19999,25,10000,23,0,0,9999,0.100000,99,198,0.008190,1,0.000000,25.512259,3.216390,99,99,0,0,0,0,1
1,19999,26,10000,23,0,40,9999,0.100000,99,198,0.000000,1,0.000000,28.620401,1.249179,99,99,0,0,0,0,0
1,19999,27,10000,23,0,40,9999,0.100000,99,198,0.000000,1,0.000000,28.136026,0.222411,99,99,0,0,0,0,0
1,19999,28,10000,23,0,41,9999,0.100000,99,198,0.000000,1,4.000000,27.001077,9.532893,99,99,0,0,0,0,0
1,19999,29,10000,23,0,0,9999,0.100000,99,198,1.948313,1,0.000000,32.690108,0.303881,99,99,0,0,1,0,0
1,19999,30,10000,23,0,40,9999,0.100000,99,198,0.000000,1,2.000000,24.871293,12.678625,99,99,0,0,0,0,0
1,19999,31,10000,23,0,40,9999,0.100000,99,198,0.000000,1,1.000000,28.013924,2.696404,99,99,0,0,0,0,0
1,19999,32,10000,23,0,40,9999,0.100000,99,198,0.000000,1,0.000000,27.054067,0.359479,99,99,0,0,0,0,0
1,19999,33,10000,23,0,0,9999,0.100000,99,198,1.048335,1,0.000000,28.280836,0.494525,99,99,0,0,0,1,0
1,19999,34,10000,23,0,40,9999,0.100000,99,198,0.000000,1,1.000000,35.780581,8.148893,99,99,0,0,0,0,0
1,19999,35,10000,23,0,0,9999,0.100000,99,198,0.016331,1,0.000000,25.634418,0.408876,99,99,0,0,0,0,1
1,19999,36,10000,23,0,40,9999,0.100000,99,198,0.000000,1,0.000000,24.478145,1.035572,99,99,0,0,0,0,0
1,19999,37,10000,23,0,0,9999,0.100000,99,198,10.295714,1,2.000000,29.508585,5.426199,99,99,0,0,1,0,0
1,19999,38,10000,23,0,40,9999,0.100000,99,198,0.000000,1,1.000000,26.850967,5.219494,99,99,0,0,0,0,0
1,19999,39,10000,23,0,0,9999,0.100000,99,198,0.005155,1,0.000000,20.026298,1.258256,99,99,0,0,1,0,0
1,19999,40,10000,23,0,40,9999,0.100000,99,198,0.000000,1,0.000000,30.432225,1.000853,99,99,0,0,0,0,0
1,19999,41,10000,23,0,0,9999,0.100000,99,198,0.020328,1,0.000000,27.370971,5.705259,99,99,0,0,0,0,1
1,19999,42,10000,23,0,40,9999,0.100000,99,198,0.000000,1,1.000000,26.900212,9.944675,99,99,0,0,0,0,0
1,19999,43,10000,23,0,90,9999,0.100000,99,198,0.469122,1,1.000000,26.119987,3.063559,99,99,1,0,0,0,0
1,19999,44,10000,23,0,0,9999,0.100000,99,198,0.000086,1,0.000000,20.448835,0.081833,99,99,0,0,0,0,1
1,19999,45,10000,23,0,40,9999,0.100000,99,198,0.000000,1,0.000000,22.613383,0.967381,99,99,0,0,0,0,0
1,19999,46,10000,23,0,0,9999,0.100000,99,198,1.191137,1,0.000000,29.348994,0.208756,99,99,0,0,0,1,0
1,19999,47,10000,23,0,40,9999,0.100000,99,198,0.000000,1,0.000000,19.925880,0.855236,99,99,0,0,0,0,0
1,19999,48,10000,23,0,40,9999,0.100000,99,198,0.000000,1,2.000000,22.229655,9.219463,99,99,0,0,0,0,0
1,19999,49,10000,23,0,40,9999,0.100000,99,198,0.000000,1,0.000000,30.521925,3.336631,99,99,0,0,0,0,0
1,19999,50,10000,23,0,0,9999,0.100000,99,198,0.011043,1,0.000000,16.347842,0.139481,99,99,0,0,0,1,0
1,19999,51,10000,23,0,0,9999,0.100000,99,198,0.111634,1,0.000000,20.414304,0.764046,99,99,0,1,0,0,0
1,19999,52,10000,23,0,0,9999,0.100000,99,198,0.052716,1,0.000000,19.238279,0.116440,99,99,0,0,0,1,0
1,19999,53,10000,23,0,40,9999,0.100000,99,198,0.000000,1,0.000000,29.760981,1.054069,99,99,0,0,0,0,0
1,19999,54,10000,23,0,40,9999,0.100000,99,198,0.000000,1,0.000000,31.619911,0.536393,99,99,0,0,0,0,0
1,19999,55,10000,23,0,0,9999,0.100000,99,198,0.003393,1,0.000000,19.573586,0.066347,99,99,0,0,0,0,1
1,19999,56,10000,23,0,41,9999,0.100000,99,198,0.000000,1,4.000000,27.832942,14.176906,99,99,0,0,0,0,0
1,19999,57,10000,23,0,0,9999,0.100000,99,198,0.450681,1,0.000000,16.945916,0.636320,99,99,0,0,0,0,1
1,19999,58,10000,23,0,0,9999,0.100000,99,198,2.831875,1,1.000000,28.296124,1.831267,99,99,0,1,0,0,0
1,19999,59,10000,23,0,0,9999,0.100000,99,198,0.005013,1,0.000000,16.454265,0.063417,99,99,0,0,0,0,1
1,19999,60,10000,23,0,40,9999,0.100000,99,198,0.000000,1,0.000000,33.122487,0.295726,99,99,0,0,0,0,0
1,19999,61,10000,23,0,0,9999,0.100000,99,198,10.295748,1,2.000000,29.304343,5.041591,99,99,0,0,1,0,0
1,19999,62,10000,23,0,40,9999,0.100000,99,198,0.000000,1,1.000000,25.995069,5.058810,99,99,0,0,0,0,0
1,19999,63,10000,23,0,40,9999,0.100000,99,198,0.000000,1,0.000000,22.173343,7.603521,99,99,0,0,0,0,0
1,19999,64,10000,23,0,40,9999,0.100000,99,198,0.000000,1,0.000000,30.687862,0.966868,99,99,0,0,0,0,0
1,19999,65,10000,23,0,0,9999,0.100000,99,198,1.093872,1,0.000000,24.995315,0.742901,99,99,0,0,0,1,0
1,19999,66,10000,23,0,40,9999,0.100000,99,198,0.000000,1,0.000000,28.535381,0.489189,99,99,0,0,0,0,0
1,19999,67,10000,23,0,0,9999,0.100000,99,198,6.251867,1,1.000000,24.489754,7.767311,99,99,0,1,0,0,0
1,19999,68,10000,23,0,40,9999,0.100000,99,198,0.000000,1,2.000000,28.324941,8.953606,99,99,0,0,0,0,0
1,19999,69,10000,23,0,0,9999,0.100000,99,198,0.665450,1,0.000000,22.326977,5.366610,99,99,0,0,0,1,0
1,19999,70,10000,23,0,40,9999,0.100000,99,198,0.000000,1,0.000000,21.260475,2.392997,99,99,0,0,0,0,0
1,19999,71,10000,23,0,40,9999,0.100000,99,198,0.000000,1,0.000000,29.681552,0.619472,99,99,0,0,0,0,0
1,19999,72,10000,23,0,40,9999,0.100000,99,198,0.000000,1,0.000000,28.886319,2.384698,99,99,0,0,0,0,0
1,19999,73,10000,23,0,0,9999,0.100000,99,198,1.026358,1,0.000000,30.349600,2.738156,99,99,0,1,0,0,0
1,19999,74,10000,23,0,40,9999,0.100000,99,198,0.000000,1,0.000000,25.364930,3.214740,99,99,0,0,0,0,0
1,19999,75,10000,23,0,0,9999,0.100000,99,198,0.711262,1,0.000000,30.635162,0.141525,99,99,0,0,0,0,1
1,19999,76,10000,23,0,40,9999,0.100000,99,198,0.000000,1,1.000000,20.941018,12.434676,99,99,0,0,0,0,0
1,19999,77,10000,23,0,40,9999,0.100000,99,198,0.000000,1,0.000000,27.233909,1.007061,99,99,0,0,0,0,0
1,19999,78,10000,23,0,0,9999,0.100000,99,198,0.881836,1,0.000000,27.860130,0.175613,99,99,0,0,0,1,0
1,19999,79,10000,23,0,40,9999,0.100000,99,198,0.000000,1,0.000000,16.337257,0.140342,99,99,0,0,0,0,0
1,19999,80,10000,23,0,40,9999,0.100000,99,198,0.000000,1,1.000000,32.138220,9.726428,99,99,0,0,0,0,0
1,19999,81,10000,23,0,40,9999,0.100000,99,198,0.000000,1,1.000000,29.959021,10.820074,99,99,0,0,0,0,0
1,19999,82,10000,23,0,0,9999,0.100000,99,198,2.132934,1,0.000000,23.708809,0.520775,99,99,0,0,1,0,0
1,19999,83,10000,23,0,40,9999,0.100000,99,198,0.000000,1,1.000000,22.666068,10.878803,99,99,0,0,0,0,0
1,19999,84,10000,23,0,40,9999,0.100000,99,198,0.000000,1,0.000000,23.823987,1.767294,99,99,0,0,0,0,0
1,19999,85,10000,23,0,40,9999,0.100000,99,198,0.000000,1,0.000000,19.532592,0.189835,99,99,0,0,0,0,0
1,19999,86,10000,23,0,40,9999,0.100000,99,198,0.000000,1,1.000000,29.621171,19.814727,99,99,0,0,0,0,0
1,19999,87,10000,23,0,40,9999,0.100000,99,198,0.000000,1,2.000000,27.966377,9.819006,99,99,0,0,0,0,0
1,19999,88,10000,23,0,40,9999,0.100000,99,198,0.000000,1,2.000000,22.113447,9.686813,99,99,0,0,0,0,0
1,19999,89,10000,23,0,40,9999,0.100000,99,198,0.000000,1,0.000000,31.756598,3.490315,99,99,0,0,0,0,0
1,19999,90,10000,23,0,41,9999,0.100000,99,198,0.000000,1,3.000000,25.909837,8.700211,99,99,0,0,0,0,0
1,19999,91,10000,23,0,40,9999,0.100000,99,198,0.000000,1,0.000000,22.180343,0.447407,99,99,0,0,0,0,0
1,19999,92,10000,23,0,40,9999,0.100000,99,198,0.000000,1,1.000000,26.483733,2.789162,99,99,0,0,0,0,0
1,19999,93,10000,23,0,40,9999,0.100000,99,198,0.000000,1,0.000000,31.668192,3.495364,99,99,0,0,0,0,0
1,19999,94,10000,23,0,40,9999,0.100000,99,198,0.000000,1,0.000000,22.154100,9.453372,99,99,0,0,0,0,0
1,19999,95,10000,23,0,40,9999,0.100000,99,198,0.000000,1,1.000000,20.027635,10.472015,99,99,0,0,0,0,0
1,19999,96,10000,23,0,40,9999,0.100000,99,198,0.000000,1,0.000000,27.077964,2.079536,99,99,0,0,0,0,0
1,19999,97,10000,23,0,40,9999,0.100000,99,198,0.000000,1,2.000000,33.997232,8.309056,99,99,0,0,0,0,0
1,19999,98,10000,23,0,1,9999,0.100000,99,198,10.663558,1,5.000000,25.405904,11.235430,99,99,0,1,0,0,0
1,19999,99,10000,23,0,40,9999,0.100000,99,198,0.000000,1,0.000000,23.367097,0.665868,99,99,0,0,0,0,0
2,29999,0,20000,4,10000,0,9999,0.100000,99,297,0.008752,1,0.000000,11.586448,4.037438,99,99,0,0,0,1,0
2,29999,1,20000,4,10000,40,9999,0.100000,99,297,0.000000,2,1.000000,25.083644,5.691743,99,99,0,0,0,0,0
2,29999,2,20000,4,10000,40,9999,0.100000,99,297,0.000000,1,0.000000,28.119454,0.849385,99,99,0,0,0,0,0
2,29999,3,20000,4,10000,40,9999,0.100000,99,297,0.000000,1,1.000000,16.770506,1.688803,99,99,0,0,0,0,0
2,29999,4,20000,98,10000,41,9999,0.100000,99,297,0.000000,2,6.000000,34.375664,12.962477,99,99,0,0,0,0,0
2,29999,5,20000,4,10000,40,9999,0.100000,99,297,0.000000,1,0.000000,25.281477,1.057572,99,99,0,0,0,0,0
2,29999,6,20000,4,10000,0,9999,0.100000,99,297,6.418573,1,2.000000,33.209406,11.212337,99,99,0,1,0,0,0
2,29999,7,20000,4,10000,40,9999,0.100000,99,297,0.000000,1,2.000000,23.938092,10.661735,99,99,0,0,0,0,0
2,29999,8,20000,4,10000,40,9999,0.100000,99,297,0.000000,1,1.000000,29.480080,8.981708,99,99,0,0,0,0,0
2,29999,9,20000,4,10000,40,9999,0.100000,99,297,0.000000,1,1.000000,24.554872,13.042155,99,99,0,0,0,0,0
2,29999,10,20000,4,10000,0,9999,0.100000,99,297,6.369190,1,3.000000,33.014304,11.270888,99,99,0,1,0,0,0
2,29999,11,20000,4,10000,0,9999,0.100000,99,297,0.560577,2,0.000000,26.884695,5.502298,99,99,0,0,0,0,1
2,29999,12,20000,4,10000,40,9999,0.100000,99,297,0.000000,1,0.000000,25.873905,0.505787,99,99,0,0,0,0,0
2,29999,13,20000,4,10000,0,9999,0.100000,99,297,0.992797,2,0.000000,22.161446,0.324808,99,99,0,0,0,1,0
2,29999,14,20000,4,10000,40,9999,0.100000,99,297,0.000000,2,0.000000,29.946051,0.123335,99,99,0,0,0,0,0
2,29999,15,20000,4,10000,40,9999,0.100000,99,297,0.000000,1,0.000000,28.787740,0.304595,99,99,0,0,0,0,0
2,29999,16,20000,4,10000,0,9999,0.100000,99,297,0.002454,1,0.000000,26.106678,0.294975,99,99,0,0,0,0,1
2,29999,17,20000,4,10000,40,9999,0.100000,99,297,0.000000,2,0.000000,27.194871,0.675310,99,99,0,0,0,0,0
2,29999,18,20000,4,10000,0,9999,0.100000,99,297,0.010143,1,0.000000,30.197528,0.133342,99,99,0,0,1,0,0
2,29999,19,20000,4,10000,40,9999,0.100000,99,297,0.000000,1,0.000000,26.493268,0.596235,99,99,0,0,0,0,0
2,29999,20,20000,4,10000,40,9999,0.100000,99,297,0.000000,1,2.000000,25.907202,9.134439,99,99,0,0,0,0,0
2,29999,21,20000,4,10000,0,9999,0.100000,99,297,2.308190,1,0.000000,29.118555,0.545426,99,99,0,0,1,0,0
2,29999,22,20000,4,10000,0,9999,0.100000,99,297,0.048987,1,0.000000,29.854726,0.067921,99,99,0,0,0,1,0
2,29999,23,20000,4,10000,0,9999,0.100000,99,297,0.620272,2,3.000000,31.671514,8.608215,99,99,0,0,0,1,0
2,29999,24,20000,4,10000,40,9999,0.100000,99,297,0.000000,1,2.000000,26.396944,7.509733,99,99,0,0,0,0,0
2,29999,25,20000,4,10000,0,9999,0.100000,99,297,0.000002,2,0.000000,25.784925,0.081048,99,99,0,0,0,0,1
2,29999,26,20000,4,10000,0,9999,0.100000,99,297,0.755951,2,0.000000,28.489931,0.212777,99,99,0,0,0,1,0
2,29999,27,20000,4,10000,40,9999,0.100000,99,297,0.000000,1,0.000000,28.257737,0.188355,99,99,0,0,0,0,0
2,29999,28,20000,4,10000,0,9999,0.100000,99,297,2.718185,2,1.000000,25.077260,4.413083,99,99,0,0,0,1,0
2,29999,29,20000,4,10000,0,9999,0.100000,99,297,0.000000,2,3.000000,32.890904,8.736984,99,99,0,0,1,0,0
2,29999,30,20000,4,10000,40,9999,0.100000,99,297,0.000000,2,0.000000,24.776207,5.747218,99,99,0,0,0,0,0
2,29999,31,20000,4,10000,0,9999,0.100000,99,297,11.744454,2,1.000000,29.767427,3.332470,99,99,0,1,0,0,0
2,29999,32,20000,4,10000,40,9999,0.100000,99,297,0.000000,1,0.000000,26.878267,0.319705,99,99,0,0,0,0,0
2,29999,33,20000,4,10000,40,9999,0.100000,99,297,0.000000,2,0.000000,28.303064,0.755107,99,99,0,0,0,0,0
2,29999,34,20000,4,10000,40,9999,0.100000,99,297,0.000000,2,3.000000,34.499866,9.263944,99,99,0,0,0,0,0
2,29999,35,20000,4,10000,0,9999,0.100000,99,297,0.204229,1,0.000000,25.438972,0.214700,99,99,0,0,0,0,1
2,29999,36,20000,4,10000,40,9999,0.100000,99,297,0.000000,1,0.000000,23.691934,0.996131,99,99,0,0,0,0,0
2,29999,37,20000,4,10000,40,9999,0.100000,99,297,0.000000,2,0.000000,31.090681,8.193601,99,99,0,0,0,0,0
2,29999,38,20000,4,10000,40,9999,0.100000,99,297,0.000000,1,2.000000,25.933033,5.837495,99,99,0,0,0,0,0
2,29999,39,20000,4,10000,0,9999,0.100000,99,297,0.022620,2,0.000000,19.031229,0.183933,99,99,0,0,1,0,0
2,29999,40,20000,4,10000,40,9999,0.100000,99,297,0.000000,1,0.000000,30.632168,1.012969,99,99,0,0,0,0,0
2,29999,41,20000,4,10000,40,9999,0.100000,99,297,0.000000,2,0.000000,27.283340,0.602396,99,99,0,0,0,0,0
2,29999,42,20000,4,10000,40,9999,0.100000,99,297,0.000000,1,0.000000,26.248730,1.692848,99,99,0,0,0,0,0
2,29999,43,20000,4,10000,90,9999,0.100000,99,297,0.226351,2,0.000000,26.126405,1.053867,99,99,1,0,0,0,0
2,29999,44,20000,4,10000,0,9999,0.100000,99,297,0.105129,1,0.000000,20.448820,0.152724,99,99,0,0,0,0,1
2,29999,45,20000,4,10000,40,9999,0.100000,99,297,0.000000,1,0.000000,21.880267,0.959728,99,99,0,0,0,0,0
2,29999,46,20000,4,10000,40,9999,0.100000,99,297,0.000000,1,0.000000,29.512273,0.047598,99,99,0,0,0,0,0
2,29999,47,20000,4,10000,40,9999,0.100000,99,297,0.000000,2,0.000000,19.261906,0.149732,99,99,0,0,0,0,0
2,29999,48,20000,4,10000,40,9999,0.100000,99,297,0.000000,1,2.000000,24.513526,10.589241,99,99,0,0,0,0,0
2,29999,49,20000,4,10000,40,9999,0.100000,99,297,0.000000,2,1.000000,30.555561,3.310668,99,99,0,0,0,0,0
2,29999,50,20000,4,10000,0,9999,0.100000,99,297,0.005120,1,0.000000,16.345422,0.123058,99,99,0,0,0,1,0
2,29999,51,20000,4,10000,0,9999,0.100000,99,297,0.185213,2,0.000000,19.874707,0.167156,99,99,0,1,0,0,0
2,29999,52,20000,4,10000,0,9999,0.100000,99,297,0.044285,2,0.000000,19.243408,0.113185,99,99,0,0,0,1,0
2,29999,53,20000,4,10000,40,9999,0.100000,99,297,0.000000,2,0.000000,29.794577,1.402873,99,99,0,0,0,0,0
2,29999,54,20000,4,10000,0,9999,0.100000,99,297,0.028648,1,0.000000,31.679095,1.151921,99,99,0,0,0,0,1
2,29999,55,20000,4,10000,0,9999,0.100000,99,297,0.004274,1,0.000000,19.572885,0.066764,99,99,0,0,0,0,1
2,29999,56,20000,4,10000,40,9999,0.100000,99,297,0.000000,2,1.000000,27.375393,9.696113,99,99,0,0,0,0,0
2,29999,57,20000,4,10000,40,9999,0.100000,99,297,0.000000,2,1.000000,16.774982,1.789536,99,99,0,0,0,0,0
2,29999,58,20000,4,10000,40,9999,0.100000,99,297,0.000000,2,1.000000,29.557445,3.103020,99,99,0,0,0,0,0
2,29999,59,20000,4,10000,0,9999,0.100000,99,297,0.003081,2,0.000000,16.453832,0.062896,99,99,0,0,0,0,1
2,29999,60,20000,4,10000,0,9999,0.100000,99,297,0.000000,2,2.000000,33.141854,10.809397,99,99,0,0,1,0,0
2,29999,61,20000,4,10000,40,9999,0.100000,99,297,0.000000,2,0.000000,31.250020,8.370556,99,99,0,0,0,0,0
2,29999,62,20000,4,10000,40,9999,0.100000,99,297,0.000000,1,0.000000,27.098097,1.643996,99,99,0,0,0,0,0
2,29999,63,20000,4,10000,40,9999,0.100000,99,297,0.000000,1,0.000000,21.794602,1.872052,99,99,0,0,0,0,0
2,29999,64,20000,4,10000,40,9999,0.100000,99,297,0.000000,1,1.000000,30.915720,1.695611,99,99,0,0,0,0,0
2,29999,65,20000,4,10000,40,9999,0.100000,99,297,0.000000,2,1.000000,25.091148,1.507849,99,99,0,0,0,0,0
2,29999,66,20000,4,10000,40,9999,0.100000,99,297,0.000000,2,0.000000,28.508320,0.821737,99,99,0,0,0,0,0
2,29999,67,20000,4,10000,40,9999,0.100000,99,297,0.000000,2,2.000000,24.860479,14.511302,99,99,0,0,0,0,0
2,29999,68,20000,4,10000,40,9999,0.100000,99,297,0.000000,2,1.000000,26.860053,13.580124,99,99,0,0,0,0,0
2,29999,69,20000,4,10000,40,9999,0.100000,99,297,0.000000,2,0.000000,21.945102,0.653695,99,99,0,0,0,0,0
2,29999,70,20000,4,10000,40,9999,0.100000,99,297,0.000000,1,0.000000,21.608339,4.994884,99,99,0,0,0,0,0
2,29999,71,20000,4,10000,40,9999,0.100000,99,297,0.000000,1,0.000000,29.720042,0.724488,99,99,0,0,0,0,0
2,29999,72,20000,4,10000,40,9999,0.100000,99,297,0.000000,2,0.000000,29.040765,2.668092,99,99,0,0,0,0,0
2,29999,73,20000,4,10000,0,9999,0.100000,99,297,7.386358,2,1.000000,30.395842,2.253376,99,99,0,1,0,0,0
2,29999,74,20000,4,10000,40,9999,0.100000,99,297,0.000000,1,1.000000,25.086459,3.311550,99,99,0,0,0,0,0
2,29999,75,20000,4,10000,40,9999,0.100000,99,297,0.000000,1,0.000000,30.639837,0.344385,99,99,0,0,0,0,0
2,29999,76,20000,4,10000,40,9999,0.100000,99,297,0.000000,1,0.000000,21.437251,9.478908,99,99,0,0,0,0,0
2,29999,77,20000,4,10000,40,9999,0.100000,99,297,0.000000,1,0.000000,26.985220,0.839605,99,99,0,0,0,0,0
2,29999,78,20000,4,10000,41,9999,0.100000,99,297,0.000000,2,3.000000,27.971724,12.290625,99,99,0,0,0,0,0
2,29999,79,20000,4,10000,40,9999,0.100000,99,297,0.000000,2,0.000000,16.336723,0.139673,99,99,0,0,0,0,0
2,29999,80,20000,4,10000,40,9999,0.100000,99,297,0.000000,2,2.000000,30.993321,11.399966,99,99,0,0,0,0,0
2,29999,81,20000,4,10000,40,9999,0.100000,99,297,0.000000,1,2.000000,28.583991,14.289331,99,99,0,0,0,0,0
2,29999,82,20000,4,10000,0,9999,0.100000,99,297,1.036764,1,0.000000,23.721871,0.637024,99,99,0,0,1,0,0
2,29999,83,20000,4,10000,40,9999,0.100000,99,297,0.000000,1,1.000000,23.767142,10.168946,99,99,0,0,0,0,0
2,29999,84,20000,4,10000,0,9999,0.100000,99,297,3.891642,2,0.000000,24.640813,1.928222,99,99,0,1,0,0,0
2,29999,85,20000,4,10000,40,9999,0.100000,99,297,0.000000,1,0.000000,19.536715,0.169469,99,99,0,0,0,0,0
2,29999,86,20000,4,10000,40,9999,0.100000,99,297,0.000000,1,0.000000,28.405168,1.228012,99,99,0,0,0,0,0
2,29999,87,20000,4,10000,40,9999,0.100000,99,297,0.000000,1,1.000000,28.223637,5.549173,99,99,0,0,0,0,0
2,29999,88,20000,4,10000,43,9999,0.100000,99,297,0.000000,1,7.000000,20.887532,22.328332,99,99,0,0,0,0,0
2,29999,89,20000,4,10000,41,9999,0.100000,99,297,0.000000,2,5.000000,32.473837,9.781454,99,99,0,0,0,0,0
2,29999,90,20000,4,10000,40,9999,0.100000,99,297,0.000000,2,0.000000,22.770572,1.092228,99,99,0,0,0,0,0
2,29999,91,20000,4,10000,40,9999,0.100000,99,297,0.000000,1,0.000000,22.429573,0.317360,99,99,0,0,0,0,0
2,29999,92,20000,4,10000,40,9999,0.100000,99,297,0.000000,1,0.000000,25.626640,0.133588,99,99,0,0,0,0,0
2,29999,93,20000,4,10000,41,9999,0.100000,99,297,0.000000,2,4.000000,32.428329,9.748993,99,99,0,0,0,0,0
2,29999,94,20000,4,10000,40,9999,0.100000,99,297,0.000000,1,1.000000,22.414285,10.936843,99,99,0,0,0,0,0
2,29999,95,20000,4,10000,43,9999,0.100000,99,297,0.000000,1,8.000000,21.356921,14.109953,99,99,0,0,0,0,0
2,29999,96,20000,4,10000,40,9999,0.100000,99,297,0.000000,1,0.000000,26.987932,4.173615,99,99,0,0,0,0,0
2,29999,97,20000,4,10000,40,9999,0.100000,99,297,0.000000,1,1.000000,32.113946,9.916034,99,99,0,0,0,0,0
2,29999,98,20000,4,10000,40,9999,0.100000,99,297,0.000000,2,0.000000,30.702746,0.140333,99,99,0,0,0,0,0
2,29999,99,20000,4,10000,40,9999,0.100000,99,297,0.000000,1,0.000000,23.412229,0.876926,99,99,0,0,0,0,0
3,39999,0,30000,31,20000,0,9999,0.100000,99,396,0.149301,2,0.000000,12.414078,1.272346,99,99,0,0,0,1,0
3,39999,1,30000,31,20000,40,9999,0.100000,99,396,0.000000,2,1.000000,24.999156,2.744564,99,99,0,0,0,0,0
3,39999,2,30000,31,20000,41,9999,0.100000,99,396,0.000000,1,3.000000,28.430008,14.427304,99,99,0,0,0,0,0
3,39999,3,30000,31,20000,0,9999,0.100000,99,396,0.000049,1,0.000000,15.715176,1.967570,99,99,0,0,0,0,1
3,39999,4,30000,31,20000,0,9999,0.100000,99,396,0.073637,3,0.000000,30.601420,1.931985,99,99,0,0,0,0,1
3,39999,5,30000,31,20000,40,9999,0.100000,99,396,0.000000,1,0.000000,25.317378,1.505427,99,99,0,0,0,0,0
3,39999,6,30000,31,20000,40,9999,0.100000,99,396,0.000000,2,1.000000,35.282931,10.652566,99,99,0,0,0,0,0
3,39999,7,30000,31,20000,40,9999,0.100000,99,396,0.000000,1,1.000000,23.082790,8.859455,99,99,0,0,0,0,0
3,39999,8,30000,31,20000,40,9999,0.100000,99,396,0.000000,2,0.000000,29.300107,6.739375,99,99,0,0,0,0,0
3,39999,9,30000,31,20000,40,9999,0.100000,99,396,0.000000,1,1.000000,26.200812,8.561681,99,99,0,0,0,0,0
3,39999,10,30000,31,20000,40,9999,0.100000,99,396,0.000000,1,2.000000,32.261879,4.396847,99,99,0,0,0,0,0
3,39999,11,30000,31,20000,40,9999,0.100000,99,396,0.000000,2,0.000000,26.786589,0.619455,99,99,0,0,0,0,0
3,39999,12,30000,31,20000,0,9999,0.100000,99,396,0.274567,1,0.000000,25.836440,0.141191,99,99,0,0,0,0,1
3,39999,13,30000,31,20000,40,9999,0.100000,99,396,0.000000,3,0.000000,22.403706,0.485163,99,99,0,0,0,0,0
3,39999,14,30000,31,20000,40,9999,0.100000,99,396,0.000000,2,0.000000,29.945841,0.123331,99,99,0,0,0,0,0
3,39999,15,30000,31,20000,40,9999,0.100000,99,396,0.000000,1,0.000000,28.870354,0.344305,99,99,0,0,0,0,0
3,39999,16,30000,31,20000,40,9999,0.100000,99,396,0.000000,2,0.000000,26.078205,0.229366,99,99,0,0,0,0,0
3,39999,17,30000,31,20000,40,9999,0.100000,99,396,0.000000,2,0.000000,26.961141,0.924892,99,99,0,0,0,0,0
3,39999,18,30000,31,20000,0,9999,0.100000,99,396,0.008116,1,0.000000,30.197455,0.131065,99,99,0,0,1,0,0
3,39999,19,30000,31,20000,40,9999,0.100000,99,396,0.000000,2,0.000000,26.487247,0.504198,99,99,0,0,0,0,0
3,39999,20,30000,31,20000,40,9999,0.100000,99,396,0.000000,1,0.000000,26.530127,9.266198,99,99,0,0,0,0,0
3,39999,21,30000,31,20000,0,9999,0.100000,99,396,7.499039,1,1.000000,29.387904,2.193183,99,99,0,0,1,0,0
3,39999,22,30000,31,20000,0,9999,0.100000,99,396,0.041649,2,0.000000,29.869320,0.068509,99,99,0,0,0,1,0
3,39999,23,30000,31,20000,0,9999,0.100000,99,396,0.185226,3,0.000000,28.840775,0.851839,99,99,0,0,0,1,0
3,39999,24,30000,31,20000,40,9999,0.100000,99,396,0.000000,1,2.000000,27.389036,9.989633,99,99,0,0,0,0,0
3,39999,25,30000,31,20000,0,9999,0.100000,99,396,0.001355,2,0.000000,25.784089,0.082735,99,99,0,0,0,0,1
3,39999,26,30000,31,20000,40,9999,0.100000,99,396,0.000000,2,0.000000,28.580263,0.205068,99,99,0,0,0,0,0
3,39999,27,30000,31,20000,0,9999,0.100000,99,396,0.671708,1,0.000000,28.346753,0.179532,99,99,0,0,0,1,0
3,39999,28,30000,31,20000,0,9999,0.100000,99,396,2.508645,3,0.000000,25.128074,0.966377,99,99,0,0,0,1,0
3,39999,29,30000,31,20000,40,9999,0.100000,99,396,0.000000,2,1.000000,29.679045,5.849087,99,99,0,0,0,0,0
3,39999,30,30000,31,20000,40,9999,0.100000,99,396,0.000000,2,0.000000,24.077723,6.864273,99,99,0,0,0,0,0
3,39999,31,30000,73,20000,40,9999,0.100000,99,396,0.000000,2,0.000000,30.416984,6.634608,99,99,0,0,0,0,0
3,39999,32,30000,31,20000,40,9999,0.100000,99,396,0.000000,1,0.000000,26.824636,0.395752,99,99,0,0,0,0,0
3,39999,33,30000,31,20000,40,9999,0.100000,99,396,0.000000,2,0.000000,28.601576,0.633552,99,99,0,0,0,0,0
3,39999,34,30000,31,20000,40,9999,0.100000,99,396,0.000000,2,0.000000,31.966649,0.767504,99,99,0,0,0,0,0
3,39999,35,30000,31,20000,0,9999,0.100000,99,396,0.380662,1,0.000000,25.415448,0.343554,99,99,0,0,0,0,1
3,39999,36,30000,31,20000,40,9999,0.100000,99,396,0.000000,1,1.000000,22.933547,3.102628,99,99,0,0,0,0,0
3,39999,37,30000,31,20000,40,9999,0.100000,99,396,0.000000,2,0.000000,31.158631,8.178869,99,99,0,0,0,0,0
3,39999,38,30000,31,20000,40,9999,0.100000,99,396,0.000000,1,0.000000,24.941929,0.856044,99,99,0,0,0,0,0
3,39999,39,30000,31,20000,0,9999,0.100000,99,396,0.020939,2,0.000000,19.028882,0.188082,99,99,0,0,1,0,0
3,39999,40,30000,31,20000,40,9999,0.100000,99,396,0.000000,1,0.000000,30.860978,0.737148,99,99,0,0,0,0,0
3,39999,41,30000,31,20000,40,9999,0.100000,99,396,0.000000,2,0.000000,27.060203,1.439594,99,99,0,0,0,0,0
3,39999,42,30000,31,20000,40,9999,0.100000,99,396,0.000000,1,0.000000,26.305531,1.845672,99,99,0,0,0,0,0
3,39999,43,30000,31,20000,90,9999,0.100000,99,396,0.129758,2,0.000000,26.298313,6.937051,99,99,1,0,0,0,0
3,39999,44,30000,31,20000,0,9999,0.100000,99,396,0.004454,1,0.000000,20.507908,0.072297,99,99,0,0,0,0,1
3,39999,45,30000,31,20000,40,9999,0.100000,99,396,0.000000,1,0.000000,21.159246,0.923681,99,99,0,0,0,0,0
3,39999,46,30000,31,20000,40,9999,0.100000,99,396,0.000000,2,0.000000,29.519535,0.048731,99,99,0,0,0,0,0
3,39999,47,30000,31,20000,40,9999,0.100000,99,396,0.000000,2,0.000000,19.261190,0.154696,99,99,0,0,0,0,0
3,39999,48,30000,31,20000,40,9999,0.100000,99,396,0.000000,1,1.000000,23.569059,13.659453,99,99,0,0,0,0,0
3,39999,49,30000,31,20000,40,9999,0.100000,99,396,0.000000,2,0.000000,31.103951,1.097749,99,99,0,0,0,0,0
3,39999,50,30000,31,20000,0,9999,0.100000,99,396,0.005035,1,0.000000,16.344630,0.122156,99,99,0,0,0,1,0
3,39999,51,30000,31,20000,0,9999,0.100000,99,396,0.147443,2,0.000000,19.925137,0.160377,99,99,0,1,0,0,0
3,39999,52,30000,31,20000,0,9999,0.100000,99,396,0.038915,2,0.000000,19.245084,0.111702,99,99,0,0,0,1,0
3,39999,53,30000,31,20000,40,9999,0.100000,99,396,0.000000,2,0.000000,29.847370,19.377593,99,99,0,0,0,0,0
3,39999,54,30000,31,20000,40,9999,0.100000,99,396,0.000000,2,0.000000,31.665162,0.157791,99,99,0,0,0,0,0
3,39999,55,30000,31,20000,0,9999,0.100000,99,396,0.002756,1,0.000000,19.571918,0.065975,99,99,0,0,0,0,1
3,39999,56,30000,31,20000,40,9999,0.100000,99,396,0.000000,3,0.000000,27.107881,3.245846,99,99,0,0,0,0,0
3,39999,57,30000,31,20000,40,9999,0.100000,99,396,0.000000,2,0.000000,15.774282,1.745242,99,99,0,0,0,0,0
3,39999,58,30000,31,20000,0,9999,0.100000,99,396,0.768739,3,0.000000,30.559646,4.424866,99,99,0,1,0,0,0
3,39999,59,30000,31,20000,40,9999,0.100000,99,396,0.000000,2,0.000000,16.453284,0.063945,99,99,0,0,0,0,0
3,39999,60,30000,31,20000,40,9999,0.100000,99,396,0.000000,3,0.000000,30.651788,6.202804,99,99,0,0,0,0,0
3,39999,61,30000,31,20000,40,9999,0.100000,99,396,0.000000,2,0.000000,31.241152,8.284256,99,99,0,0,0,0,0
3,39999,62,30000,31,20000,0,9999,0.100000,99,396,0.320591,1,0.000000,26.712709,1.018948,99,99,0,0,0,0,1
3,39999,63,30000,31,20000,40,9999,0.100000,99,396,0.000000,1,0.000000,22.047435,2.249561,99,99,0,0,0,0,0
3,39999,64,30000,31,20000,40,9999,0.100000,99,396,0.000000,1,0.000000,31.307833,0.774105,99,99,0,0,0,0,0
3,39999,65,30000,31,20000,40,9999,0.100000,99,396,0.000000,2,0.000000,25.226792,1.019536,99,99,0,0,0,0,0
3,39999,66,30000,31,20000,40,9999,0.100000,99,396,0.000000,2,0.000000,28.693825,1.504036,99,99,0,0,0,0,0
3,39999,67,30000,31,20000,40,9999,0.100000,99,396,0.000000,2,2.000000,25.296915,11.498908,99,99,0,0,0,0,0
3,39999,68,30000,31,20000,41,9999,0.100000,99,396,0.000000,2,3.000000,27.263880,12.866437,99,99,0,0,0,0,0
3,39999,69,30000,31,20000,0,9999,0.100000,99,396,1.640485,2,0.000000,22.201193,0.848541,99,99,0,0,0,1,0
3,39999,70,30000,31,20000,40,9999,0.100000,99,396,0.000000,1,0.000000,21.910804,0.685395,99,99,0,0,0,0,0
3,39999,71,30000,31,20000,40,9999,0.065000,99,396,0.000000,1,1.000000,29.983516,2.254634,99,99,0,0,0,0,0
3,39999,72,30000,31,20000,40,9999,0.100000,99,396,0.000000,2,1.000000,29.284971,3.057611,99,99,0,0,0,0,0
3,39999,73,30000,31,20000,0,9999,0.100000,99,396,1.615394,2,0.000000,30.821417,1.538068,99,99,0,1,0,0,0
3,39999,74,30000,31,20000,40,9999,0.100000,99,396,0.000000,1,1.000000,24.971409,2.431009,99,99,0,0,0,0,0
3,39999,75,30000,31,20000,40,9999,0.100000,99,396,0.000000,2,0.000000,30.695607,1.581017,99,99,0,0,0,0,0
3,39999,76,30000,31,20000,40,9999,0.100000,99,396,0.000000,1,0.000000,21.105137,9.374811,99,99,0,0,0,0,0
3,39999,77,30000,31,20000,40,9999,0.100000,99,396,0.000000,1,1.000000,26.793292,10.822623,99,99,0,0,0,0,0
3,39999,78,30000,31,20000,40,9999,0.100000,99,396,0.000000,3,0.000000,28.060111,0.189955,99,99,0,0,0,0,0
3,39999,79,30000,31,20000,0,9999,0.100000,99,396,0.003678,2,0.000000,16.336422,0.140600,99,99,0,0,0,0,1
3,39999,80,30000,31,20000,40,9999,0.100000,99,396,0.000000,2,1.000000,28.805235,11.127869,99,99,0,0,0,0,0
3,39999,81,30000,31,20000,40,9999,0.100000,99,396,0.000000,1,1.000000,28.505532,10.690232,99,99,0,0,0,0,0
3,39999,82,30000,31,20000,0,9999,0.100000,99,396,2.195542,1,0.000000,24.138444,0.729567,99,99,0,0,1,0,0
3,39999,83,30000,31,20000,40,9999,0.100000,99,396,0.000000,1,1.000000,23.895142,11.652002,99,99,0,0,0,0,0
3,39999,84,30000,31,20000,0,9999,0.100000,99,396,2.239133,2,0.000000,24.397457,2.018674,99,99,0,1,0,0,0
3,39999,85,30000,31,20000,40,9999,0.100000,99,396,0.000000,1,0.000000,19.538757,0.159457,99,99,0,0,0,0,0
3,39999,86,30000,31,20000,40,9999,0.100000,99,396,0.000000,1,0.000000,28.601190,2.077782,99,99,0,0,0,0,0
3,39999,87,30000,31,20000,40,9999,0.100000,99,396,0.000000,1,0.000000,26.899214,6.549058,99,99,0,0,0,0,0
3,39999,88,30000,31,20000,40,9999,0.100000,99,396,0.000000,2,1.000000,22.503782,2.043023,99,99,0,0,0,0,0
3,39999,89,30000,31,20000,40,9999,0.100000,99,396,0.000000,3,2.000000,28.880874,9.422460,99,99,0,0,0,0,0
3,39999,90,30000,31,20000,40,9999,0.100000,99,396,0.000000,2,0.000000,21.785694,0.306002,99,99,0,0,0,0,0
3,39999,91,30000,31,20000,40,9999,0.100000,99,396,0.000000,1,0.000000,22.662575,0.481078,99,99,0,0,0,0,0
3,39999,92,30000,31,20000,40,9999,0.100000,99,396,0.000000,1,0.000000,25.622154,0.111345,99,99,0,0,0,0,0
3,39999,93,30000,31,20000,40,9999,0.100000,99,396,0.000000,3,1.000000,29.508264,1.596884,99,99,0,0,0,0,0
3,39999,94,30000,31,20000,40,9999,0.100000,99,396,0.000000,1,1.000000,23.906016,10.039346,99,99,0,0,0,0,0
3,39999,95,30000,31,20000,40,9999,0.100000,99,396,0.000000,2,2.000000,22.533843,2.708613,99,99,0,0,0,0,0
3,39999,96,30000,31,20000,40,9999,0.100000,99,396,0.000000,1,0.000000,26.882155,0.847747,99,99,0,0,0,0,0
3,39999,97,30000,31,20000,40,9999,0.100000,99,396,0.000000,1,0.000000,31.150216,10.716862,99,99,0,0,0,0,0
3,39999,98,30000,31,20000,40,9999,0.100000,99,396,0.000000,2,0.000000,30.702408,0.140374,99,99,0,0,0,0,0
3,39999,99,30000,31,20000,40,9999,0.100000,99,396,0.000000,1,0.000000,24.051181,17.074901,99,99,0,0,0,0,0
4,49999,0,40000,21,30000,0,9999,0.100000,99,495,0.076040,2,0.000000,12.482757,0.239296,99,99,0,0,0,1,0
4,49999,1,40000,21,30000,43,9999,0.100000,99,495,0.000000,2,10.000000,26.032434,13.840503,99,99,0,0,0,0,0
4,49999,2,40000,21,30000,0,9999,0.100000,99,495,0.325210,2,0.000000,25.148975,3.395219,99,99,0,0,0,0,1
4,49999,3,40000,21,30000,40,9999,0.100000,99,495,0.000000,2,0.000000,15.115879,3.948084,99,99,0,0,0,0,0
4,49999,4,40000,21,30000,0,9999,0.100000,99,495,0.033920,4,0.000000,31.087914,0.143382,99,99,0,0,0,0,1
4,49999,5,40000,21,30000,40,9999,0.100000,99,495,0.000000,1,0.000000,25.309124,2.260966,99,99,0,0,0,0,0
4,49999,6,40000,21,30000,40,9999,0.100000,99,495,0.000000,2,1.000000,35.737976,13.135925,99,99,0,0,0,0,0
4,49999,7,40000,21,30000,40,9999,0.100000,99,495,0.000000,1,1.000000,23.190508,9.822733,99,99,0,0,0,0,0
4,49999,8,40000,21,30000,41,9999,0.100000,99,495,0.000000,2,4.000000,29.082527,12.129429,99,99,0,0,0,0,0
4,49999,9,40000,21,30000,40,9999,0.100000,99,495,0.000000,1,0.000000,27.804305,5.501984,99,99,0,0,0,0,0
4,49999,10,40000,21,30000,40,9999,0.100000,99,495,0.000000,2,0.000000,30.669211,0.163682,99,99,0,0,0,0,0
4,49999,11,40000,21,30000,0,9999,0.100000,99,495,1.031433,2,0.000000,26.708778,0.679623,99,99,0,0,0,0,1
4,49999,12,40000,21,30000,40,9999,0.100000,99,495,0.000000,2,0.000000,25.862638,0.576665,99,99,0,0,0,0,0
4,49999,13,40000,21,30000,0,9999,0.100000,99,495,4.165009,3,0.000000,22.781022,0.709685,99,99,0,0,0,1,0
4,49999,14,40000,21,30000,40,9999,0.100000,99,495,0.000000,2,0.000000,29.945607,0.120916,99,99,0,0,0,0,0
4,49999,15,40000,21,30000,40,9999,0.100000,99,495,0.000000,1,0.000000,28.917737,0.481324,99,99,0,0,0,0,0
4,49999,16,40000,21,30000,0,9999,0.100000,99,495,2.200248,2,0.000000,26.106265,0.788821,99,99,0,0,0,0,1
4,49999,17,40000,21,30000,40,9999,0.100000,99,495,0.000000,2,0.000000,26.910329,0.924516,99,99,0,0,0,0,0
4,49999,18,40000,21,30000,0,9999,0.100000,99,495,0.007794,1,0.000000,30.197112,0.127848,99,99,0,0,1,0,0
4,49999,19,40000,21,30000,40,9999,0.100000,99,495,0.000000,2,0.000000,26.520846,0.912062,99,99,0,0,0,0,0
4,49999,20,40000,21,30000,1,9999,0.100000,99,495,0.119376,1,3.000000,27.020427,8.720301,99,99,0,1,0,0,0
4,49999,21,40000,28,30000,0,9999,0.100000,99,495,4.014047,1,1.000000,30.758370,2.502269,99,99,0,0,1,0,0
4,49999,22,40000,21,30000,0,9999,0.100000,99,495,0.039817,2,0.000000,29.881812,0.069022,99,99,0,0,0,1,0
4,49999,23,40000,21,30000,0,9999,0.100000,99,495,4.708698,3,2.000000,28.988034,2.688439,99,99,0,0,0,1,0
4,49999,24,40000,21,30000,40,9999,0.100000,99,495,0.000000,1,0.000000,25.476113,0.798526,99,99,0,0,0,0,0
4,49999,25,40000,21,30000,0,9999,0.100000,99,495,0.001973,2,0.000000,25.782552,0.086358,99,99,0,0,0,0,1
4,49999,26,40000,21,30000,0,9999,0.100000,99,495,0.370831,2,0.000000,28.636977,0.165272,99,99,0,0,0,1,0
4,49999,27,40000,21,30000,40,9999,0.100000,99,495,0.000000,2,0.000000,28.406169,0.148144,99,99,0,0,0,0,0
4,49999,28,40000,21,30000,40,9999,0.100000,99,495,0.000000,3,1.000000,25.862459,5.311084,99,99,0,0,0,0,0
4,49999,29,40000,21,30000,40,9999,0.100000,99,495,0.000000,2,1.000000,30.871344,2.974763,99,99,0,0,0,0,0
4,49999,30,40000,21,30000,40,9999,0.100000,99,495,0.000000,2,0.000000,24.305971,24.455204,99,99,0,0,0,0,0
4,49999,31,40000,21,30000,0,9999,0.100000,99,495,0.020801,2,1.000000,30.472633,7.423379,99,99,0,1,0,0,0
4,49999,32,40000,21,30000,40,9999,0.100000,99,495,0.000000,1,0.000000,26.766172,1.303151,99,99,0,0,0,0,0
4,49999,33,40000,21,30000,40,9999,0.100000,99,495,0.000000,2,2.000000,28.596745,2.481835,99,99,0,0,0,0,0
4,49999,34,40000,21,30000,40,9999,0.100000,99,495,0.000000,2,0.000000,31.841164,3.688540,99,99,0,0,0,0,0
4,49999,35,40000,21,30000,40,9999,0.100000,99,495,0.000000,1,0.000000,25.472514,1.102639,99,99,0,0,0,0,0
4,49999,36,40000,21,30000,41,9999,0.100000,99,495,0.000000,1,3.000000,24.457184,6.590628,99,99,0,0,0,0,0
4,49999,37,40000,21,30000,40,9999,0.100000,99,495,0.000000,2,0.000000,31.170370,8.084423,99,99,0,0,0,0,0
4,49999,38,40000,21,30000,41,9999,0.100000,99,495,0.000000,1,3.000000,25.559750,4.818601,99,99,0,0,0,0,0
4,49999,39,40000,21,30000,0,9999,0.100000,99,495,0.021669,2,0.000000,19.026497,0.187894,99,99,0,0,1,0,0
4,49999,40,40000,21,30000,40,9999,0.100000,99,495,0.000000,1,0.000000,30.995300,0.975022,99,99,0,0,0,0,0
4,49999,41,40000,21,30000,40,9999,0.100000,99,495,0.000000,2,0.000000,27.021986,0.936532,99,99,0,0,0,0,0
4,49999,42,40000,21,30000,40,9999,0.100000,99,495,0.000000,1,0.000000,26.199784,2.225481,99,99,0,0,0,0,0
4,49999,43,40000,21,30000,95,9999,0.100000,99,495,78.714804,2,15.000000,26.311942,21.706093,99,99,1,0,0,0,0
4,49999,44,40000,21,30000,0,9999,0.100000,99,495,0.004175,1,0.000000,20.505738,0.070668,99,99,0,0,0,0,1
4,49999,45,40000,21,30000,40,9999,0.100000,99,495,0.000000,1,0.000000,20.456683,0.888058,99,99,0,0,0,0,0
4,49999,46,40000,21,30000,40,9999,0.100000,99,495,0.000000,2,0.000000,29.525830,0.047462,99,99,0,0,0,0,0
4,49999,47,40000,21,30000,40,9999,0.100000,99,495,0.000000,2,0.000000,19.260331,0.154432,99,99,0,0,0,0,0
4,49999,48,40000,21,30000,40,9999,0.100000,99,495,0.000000,1,1.000000,22.330121,8.554879,99,99,0,0,0,0,0
4,49999,49,40000,21,30000,1,9999,0.100000,99,495,21.849965,2,4.000000,31.166790,4.502948,99,99,0,1,0,0,0
4,49999,50,40000,21,30000,0,9999,0.100000,99,495,0.003832,1,0.000000,16.343871,0.119667,99,99,0,0,0,1,0
4,49999,51,40000,21,30000,0,9999,0.100000,99,495,0.160075,2,0.000000,19.971229,0.148883,99,99,0,1,0,0,0
4,49999,52,40000,21,30000,0,9999,0.100000,99,495,0.033430,2,1.000000,19.246171,2.182578,99,99,0,0,0,1,0
4,49999,53,40000,21,30000,40,9999,0.100000,99,495,0.000000,2,3.000000,29.807802,10.124637,99,99,0,0,0,0,0
4,49999,54,40000,21,30000,40,9999,0.100000,99,495,0.000000,2,0.000000,31.588000,0.108792,99,99,0,0,0,0,0
4,49999,55,40000,21,30000,0,9999,0.100000,99,495,0.318476,1,0.000000,19.571246,0.212851,99,99,0,0,0,0,1
4,49999,56,40000,21,30000,40,9999,0.100000,99,495,0.000000,3,0.000000,27.115881,1.514842,99,99,0,0,0,0,0
4,49999,57,40000,21,30000,40,9999,0.100000,99,495,0.000000,2,0.000000,15.252937,2.313777,99,99,0,0,0,0,0
4,49999,58,40000,21,30000,40,9999,0.100000,99,495,0.000000,3,2.000000,30.616359,10.212086,99,99,0,0,0,0,0
4,49999,59,40000,21,30000,0,9999,0.100000,99,495,0.002504,2,0.000000,16.452695,0.063837,99,99,0,0,0,0,1
4,49999,60,40000,21,30000,40,9999,0.100000,99,495,0.000000,3,1.000000,31.196373,9.347698,99,99,0,0,0,0,0
4,49999,61,40000,21,30000,40,9999,0.100000,99,495,0.000000,2,0.000000,31.243728,8.732360,99,99,0,0,0,0,0
4,49999,62,40000,21,30000,40,9999,0.100000,99,495,0.000000,2,0.000000,26.629789,0.862569,99,99,0,0,0,0,0
4,49999,63,40000,21,30000,40,9999,0.100000,99,495,0.000000,1,0.000000,22.452315,3.498263,99,99,0,0,0,0,0
4,49999,64,40000,21,30000,40,9999,0.100000,99,495,0.000000,1,0.000000,31.345378,1.114913,99,99,0,0,0,0,0
4,49999,65,40000,21,30000,41,9999,0.100000,99,495,0.000000,2,3.000000,25.983637,4.943699,99,99,0,0,0,0,0
4,49999,66,40000,21,30000,40,9999,0.100000,99,495,0.000000,2,2.000000,28.727367,4.120527,99,99,0,0,0,0,0
4,49999,67,40000,21,30000,40,9999,0.100000,99,495,0.000000,2,1.000000,25.175504,14.864605,99,99,0,0,0,0,0
4,49999,68,40000,21,30000,40,9999,0.100000,99,495,0.000000,2,0.000000,30.479672,0.138613,99,99,0,0,0,0,0
4,49999,69,40000,21,30000,40,9999,0.100000,99,495,0.000000,2,0.000000,22.601902,1.308318,99,99,0,0,0,0,0
4,49999,70,40000,21,30000,40,9999,0.100000,99,495,0.000000,1,0.000000,22.316873,15.235255,99,99,0,0,0,0,0
4,49999,71,40000,21,30000,41,9999,0.100000,99,495,0.000000,1,4.000000,31.004263,10.308428,99,99,0,0,0,0,0
4,49999,72,40000,21,30000,40,9999,0.100000,99,495,0.000000,2,3.000000,30.690154,5.769927,99,99,0,0,0,0,0
4,49999,73,40000,21,30000,41,9999,0.100000,99,495,0.000000,2,4.000000,30.937374,4.332446,99,99,0,0,0,0,0
4,49999,74,40000,21,30000,43,9999,0.100000,99,495,0.000000,1,10.000000,26.403485,22.908962,99,99,0,0,0,0,0
4,49999,75,40000,21,30000,40,9999,0.100000,99,495,0.000000,2,0.000000,31.358732,0.105767,99,99,0,0,0,0,0
4,49999,76,40000,21,30000,94,9999,0.100000,99,495,63.603746,1,10.000000,21.327540,17.058496,99,99,1,0,0,0,0
4,49999,77,40000,21,30000,40,9999,0.100000,99,495,0.000000,1,2.000000,26.147872,13.304342,99,99,0,0,0,0,0
4,49999,78,40000,21,30000,40,9999,0.100000,99,495,0.000000,3,0.000000,28.124079,0.197880,99,99,0,0,0,0,0
4,49999,79,40000,21,30000,40,9999,0.100000,99,495,0.000000,2,0.000000,16.336037,0.140128,99,99,0,0,0,0,0
4,49999,80,40000,21,30000,40,9999,0.100000,99,495,0.000000,2,2.000000,29.639836,25.061540,99,99,0,0,0,0,0
4,49999,81,40000,21,30000,40,9999,0.100000,99,495,0.000000,1,1.000000,28.402921,7.474143,99,99,0,0,0,0,0
4,49999,82,40000,21,30000,0,9999,0.100000,99,495,0.002763,1,0.000000,24.394247,0.140178,99,99,0,0,1,0,0
4,49999,83,40000,21,30000,40,9999,0.100000,99,495,0.000000,1,0.000000,25.413424,9.768904,99,99,0,0,0,0,0
4,49999,84,40000,21,30000,40,9999,0.100000,99,495,0.000000,2,0.000000,24.650604,23.415213,99,99,0,0,0,0,0
4,49999,85,40000,21,30000,40,9999,0.100000,99,495,0.000000,1,0.000000,19.540192,0.151825,99,99,0,0,0,0,0
4,49999,86,40000,21,30000,40,9999,0.100000,99,495,0.000000,1,1.000000,28.825353,5.314728,99,99,0,0,0,0,0
4,49999,87,40000,21,30000,41,9999,0.100000,99,495,0.000000,1,3.000000,26.346638,8.182587,99,99,0,0,0,0,0
4,49999,88,40000,21,30000,40,9999,0.100000,99,495,0.000000,2,1.000000,23.739037,1.875851,99,99,0,0,0,0,0
4,49999,89,40000,21,30000,40,9999,0.100000,99,495,0.000000,3,2.000000,28.074240,10.868759,99,99,0,0,0,0,0
4,49999,90,40000,21,30000,40,9999,0.100000,99,495,0.000000,2,0.000000,21.595847,0.276070,99,99,0,0,0,0,0
4,49999,91,40000,21,30000,40,9999,0.100000,99,495,0.000000,1,0.000000,23.014871,0.535198,99,99,0,0,0,0,0
4,49999,92,40000,21,30000,40,9999,0.100000,99,495,0.000000,1,0.000000,25.645737,0.722369,99,99,0,0,0,0,0
4,49999,93,40000,21,30000,40,9999,0.100000,99,495,0.000000,3,0.000000,30.840670,0.140391,99,99,0,0,0,0,0
4,49999,94,40000,21,30000,40,9999,0.100000,99,495,0.000000,1,0.000000,24.760309,8.996261,99,99,0,0,0,0,0
4,49999,95,40000,21,30000,41,9999,0.100000,99,495,0.000000,2,4.000000,24.609791,12.143622,99,99,0,0,0,0,0
4,49999,96,40000,21,30000,40,9999,0.100000,99,495,0.000000,1,0.000000,26.818266,0.873644,99,99,0,0,0,0,0
4,49999,97,40000,21,30000,41,9999,0.100000,99,495,0.000000,1,4.000000,31.540646,14.781359,99,99,0,0,0,0,0
4,49999,98,40000,21,30000,40,9999,0.100000,99,495,0.000000,2,0.000000,30.701968,0.139658,99,99,0,0,0,0,0
4,49999,99,40000,21,30000,40,9999,0.100000,99,495,0.000000,1,0.000000,24.315580,20.257985,99,99,0,0,0,0,0
5,59999,0,50000,43,40000,0,9999,0.100000,99,594,0.167764,2,0.000000,12.469298,0.154024,99,99,0,0,0,1,0
5,59999,1,50000,43,40000,40,9999,0.100000,99,594,0.000000,3,0.000000,19.373451,1.065051,99,99,0,0,0,0,0
5,59999,2,50000,43,40000,40,9999,0.100000,99,594,0.000000,3,1.000000,25.699269,1.365498,99,99,0,0,0,0,0
5,59999,3,50000,43,40000,40,9999,0.100000,99,594,0.000000,2,0.000000,15.069834,7.112973,99,99,0,0,0,0,0
5,59999,4,50000,43,40000,0,9999,0.100000,99,594,0.112276,4,0.000000,31.077739,0.203670,99,99,0,0,0,0,1
5,59999,5,50000,43,40000,0,9999,0.100000,99,594,5.906982,1,1.000000,25.722605,1.254943,99,99,0,0,0,0,1
5,59999,6,50000,43,40000,40,9999,0.100000,99,594,0.000000,2,2.000000,34.954812,11.619100,99,99,0,0,0,0,0
5,59999,7,50000,43,40000,40,9999,0.100000,99,594,0.000000,1,2.000000,23.894533,10.806604,99,99,0,0,0,0,0
5,59999,8,50000,43,40000,40,9999,0.100000,99,594,0.000000,3,2.000000,28.384392,17.100062,99,99,0,0,0,0,0
5,59999,9,50000,43,40000,40,9999,0.100000,99,594,0.000000,1,0.000000,28.010459,7.565530,99,99,0,0,0,0,0
5,59999,10,50000,43,40000,40,9999,0.100000,99,594,0.000000,2,0.000000,30.660776,0.119526,99,99,0,0,0,0,0
5,59999,11,50000,43,40000,40,9999,0.100000,99,594,0.000000,2,0.000000,26.489306,0.842514,99,99,0,0,0,0,0
5,59999,12,50000,43,40000,1,9999,0.100000,99,594,15.723902,2,3.000000,26.209579,3.221382,99,99,0,0,0,0,1
5,59999,13,50000,43,40000,2,9999,0.100000,99,594,32.404702,3,6.000000,23.375474,6.556480,99,99,0,0,0,1,0
5,59999,14,50000,43,40000,40,9999,0.100000,99,594,0.000000,2,0.000000,29.945383,0.122196,99,99,0,0,0,0,0
5,59999,15,50000,43,40000,40,9999,0.100000,99,594,0.000000,1,0.000000,28.926768,0.507650,99,99,0,0,0,0,0
5,59999,16,50000,43,40000,41,9999,0.100000,99,594,0.000000,2,3.000000,26.442666,3.219007,99,99,0,0,0,0,0
5,59999,17,50000,43,40000,0,9999,0.100000,99,594,2.004266,2,0.000000,26.690416,1.100743,99,99,0,0,0,0,1
5,59999,18,50000,43,40000,0,9999,0.100000,99,594,0.007765,1,0.000000,30.196650,0.126176,99,99,0,0,1,0,0
5,59999,19,50000,43,40000,41,9999,0.100000,99,594,0.000000,2,3.000000,26.844784,3.437284,99,99,0,0,0,0,0
5,59999,20,50000,43,40000,0,9999,0.100000,99,594,0.923418,2,0.000000,25.448346,1.345419,99,99,0,1,0,0,0
5,59999,21,50000,43,40000,0,9999,0.100000,99,594,4.824367,1,0.000000,31.557225,1.227754,99,99,0,0,1,0,0
5,59999,22,50000,43,40000,40,9999,0.100000,99,594,0.000000,2,0.000000,29.890877,1.073551,99,99,0,0,0,0,0
5,59999,23,50000,43,40000,0,9999,0.100000,99,594,18.592800,3,3.000000,29.646600,5.024510,99,99,0,0,0,1,0
5,59999,24,50000,43,40000,40,9999,0.100000,99,594,0.000000,1,1.000000,25.706841,1.314478,99,99,0,0,0,0,0
5,59999,25,50000,43,40000,0,9999,0.100000,99,594,0.001629,2,0.000000,25.780442,0.086717,99,99,0,0,0,0,1
5,59999,26,50000,43,40000,40,9999,0.100000,99,594,0.000000,2,0.000000,28.653346,0.269351,99,99,0,0,0,0,0
5,59999,27,50000,43,40000,0,9999,0.100000,99,594,0.671500,2,0.000000,28.427781,0.222617,99,99,0,0,0,1,0
5,59999,28,50000,43,40000,40,9999,0.100000,99,594,0.000000,3,0.000000,25.937965,7.192060,99,99,0,0,0,0,0
5,59999,29,50000,43,40000,41,9999,0.100000,99,594,0.000000,2,4.000000,32.165916,4.938406,99,99,0,0,0,0,0
5,59999,30,50000,43,40000,40,9999,0.100000,99,594,0.000000,2,0.000000,24.322049,25.471362,99,99,0,0,0,0,0
5,59999,31,50000,43,40000,0,9999,0.100000,99,594,0.425268,2,0.000000,30.597857,0.178213,99,99,0,1,0,0,0
5,59999,32,50000,43,40000,40,9999,0.100000,99,594,0.000000,1,1.000000,26.184581,2.329099,99,99,0,0,0,0,0
5,59999,33,50000,43,40000,40,9999,0.100000,99,594,0.000000,2,3.000000,29.266977,5.504621,99,99,0,0,0,0,0
5,59999,34,50000,43,40000,40,9999,0.100000,99,594,0.000000,2,0.000000,30.939720,0.222392,99,99,0,0,0,0,0
5,59999,35,50000,43,40000,40,9999,0.100000,99,594,0.000000,2,1.000000,25.747128,1.588449,99,99,0,0,0,0,0
5,59999,36,50000,43,40000,40,9999,0.100000,99,594,0.000000,2,1.000000,28.108809,9.064875,99,99,0,0,0,0,0
5,59999,37,50000,43,40000,41,9999,0.100000,99,594,0.000000,2,5.000000,31.212669,12.307744,99,99,0,0,0,0,0
5,59999,38,50000,43,40000,40,9999,0.100000,99,594,0.000000,1,0.000000,28.794735,3.055581,99,99,0,0,0,0,0
5,59999,39,50000,43,40000,0,9999,0.100000,99,594,0.019268,2,0.000000,19.023911,0.190504,99,99,0,0,1,0,0
5,59999,40,50000,43,40000,40,9999,0.100000,99,594,0.000000,1,0.000000,31.235622,0.962124,99,99,0,0,0,0,0
5,59999,41,50000,43,40000,40,9999,0.100000,99,594,0.000000,2,0.000000,26.798517,1.149923,99,99,0,0,0,0,0
5,59999,42,50000,43,40000,41,9999,0.100000,99,594,0.000000,1,3.000000,26.633803,3.205369,99,99,0,0,0,0,0
5,59999,43,50000,76,40000,41,9999,0.100000,99,594,0.000000,3,4.000000,33.411505,13.280079,99,99,0,0,0,0,0
5,59999,44,50000,43,40000,0,9999,0.100000,99,594,0.004418,1,0.000000,20.503567,0.071070,99,99,0,0,0,0,1
5,59999,45,50000,43,40000,40,9999,0.100000,99,594,0.000000,1,0.000000,19.813034,0.448519,99,99,0,0,0,0,0
5,59999,46,50000,43,40000,0,9999,0.100000,99,594,1.655601,2,0.000000,29.531263,0.758306,99,99,0,0,0,1,0
5,59999,47,50000,43,40000,43,9999,0.100000,99,594,0.000000,2,8.000000,19.259357,16.529561,99,99,0,0,0,0,0
5,59999,48,50000,43,40000,42,9999,0.100000,99,594,0.000000,1,6.000000,23.306220,6.772353,99,99,0,0,0,0,0
5,59999,49,50000,43,40000,0,9999,0.100000,99,594,0.275449,3,0.000000,33.288630,1.276677,99,99,0,1,0,0,0
5,59999,50,50000,43,40000,0,9999,0.100000,99,594,0.003868,1,0.000000,16.343434,0.121001,99,99,0,0,0,1,0
5,59999,51,50000,43,40000,40,9999,0.100000,99,594,0.000000,2,0.000000,20.019789,0.794632,99,99,0,0,0,0,0
5,59999,52,50000,43,40000,0,9999,0.100000,99,594,0.040062,2,0.000000,19.246095,0.121371,99,99,0,0,0,1,0
5,59999,53,50000,43,40000,40,9999,0.100000,99,594,0.000000,2,3.000000,29.461966,5.181007,99,99,0,0,0,0,0
5,59999,54,50000,43,40000,40,9999,0.100000,99,594,0.000000,2,0.000000,31.577130,0.090427,99,99,0,0,0,0,0
5,59999,55,50000,43,40000,0,9999,0.100000,99,594,0.426664,1,0.000000,19.548646,0.732449,99,99,0,0,0,0,1
5,59999,56,50000,43,40000,40,9999,0.100000,99,594,0.000000,3,0.000000,26.891441,1.486553,99,99,0,0,0,0,0
5,59999,57,50000,43,40000,0,9999,0.100000,99,594,0.056101,2,0.000000,15.357358,0.707592,99,99,0,0,0,0,1
5,59999,58,50000,43,40000,40,9999,0.100000,99,594,0.000000,3,1.000000,28.673453,9.365033,99,99,0,0,0,0,0
5,59999,59,50000,43,40000,0,9999,0.100000,99,594,0.003228,2,0.000000,16.452119,0.063879,99,99,0,0,0,0,1
5,59999,60,50000,43,40000,40,9999,0.100000,99,594,0.000000,3,3.000000,31.143397,13.011212,99,99,0,0,0,0,0
5,59999,61,50000,43,40000,40,9999,0.100000,99,594,0.000000,2,1.000000,31.327546,11.286069,99,99,0,0,0,0,0
5,59999,62,50000,43,40000,40,9999,0.100000,99,594,0.000000,2,0.000000,26.410631,0.907767,99,99,0,0,0,0,0
5,59999,63,50000,43,40000,40,9999,0.100000,99,594,0.000000,1,0.000000,22.725578,10.374970,99,99,0,0,0,0,0
5,59999,64,50000,43,40000,40,9999,0.100000,99,594,0.000000,1,0.000000,31.620234,0.938732,99,99,0,0,0,0,0
5,59999,65,50000,43,40000,40,9999,0.100000,99,594,0.000000,2,0.000000,28.690504,1.754360,99,99,0,0,0,0,0
5,59999,66,50000,43,40000,40,9999,0.100000,99,594,0.000000,2,2.000000,29.317666,8.326027,99,99,0,0,0,0,0
5,59999,67,50000,43,40000,40,9999,0.100000,99,594,0.000000,2,1.000000,27.118562,14.426526,99,99,0,0,0,0,0
5,59999,68,50000,43,40000,40,9999,0.100000,99,594,0.000000,2,0.000000,30.479086,0.134217,99,99,0,0,0,0,0
5,59999,69,50000,43,40000,42,9999,0.100000,99,594,0.000000,2,6.000000,23.352489,6.614385,99,99,0,0,0,0,0
5,59999,70,50000,43,40000,40,9999,0.100000,99,594,0.000000,1,1.000000,21.929067,12.218726,99,99,0,0,0,0,0
5,59999,71,50000,43,40000,41,9999,0.100000,99,594,0.000000,2,4.000000,33.941740,4.678384,99,99,0,0,0,0,0
5,59999,72,50000,43,40000,40,9999,0.100000,99,594,0.000000,2,2.000000,33.737708,3.800053,99,99,0,0,0,0,0
5,59999,73,50000,43,40000,40,9999,0.100000,99,594,0.000000,3,2.000000,33.035924,3.977128,99,99,0,0,0,0,0
5,59999,74,50000,43,40000,40,9999,0.100000,99,594,0.000000,2,0.000000,28.785638,1.002239,99,99,0,0,0,0,0
5,59999,75,50000,43,40000,40,9999,0.100000,99,594,0.000000,2,0.000000,31.348077,0.087483,99,99,0,0,0,0,0
5,59999,76,50000,43,40000,41,9999,0.100000,99,594,0.000000,2,4.000000,29.823575,11.211489,99,99,0,0,0,0,0
5,59999,77,50000,43,40000,40,9999,0.100000,99,594,0.000000,1,0.000000,26.572433,23.878886,99,99,0,0,0,0,0
5,59999,78,50000,43,40000,40,9999,0.100000,99,594,0.000000,3,0.000000,28.153290,0.238645,99,99,0,0,0,0,0
5,59999,79,50000,43,40000,40,9999,0.100000,99,594,0.000000,2,0.000000,16.335694,0.140215,99,99,0,0,0,0,0
5,59999,80,50000,43,40000,40,9999,0.100000,99,594,0.000000,2,2.000000,28.669718,13.116650,99,99,0,0,0,0,0
5,59999,81,50000,43,40000,41,9999,0.100000,99,594,0.000000,1,4.000000,29.072043,6.027061,99,99,0,0,0,0,0
5,59999,82,50000,43,40000,2,9999,0.100000,99,594,0.002570,1,6.000000,24.390454,24.775410,99,99,0,0,1,0,0
5,59999,83,50000,43,40000,40,9999,0.100000,99,594,0.000000,1,1.000000,26.215180,3.261984,99,99,0,0,0,0,0
5,59999,84,50000,43,40000,40,9999,0.100000,99,594,0.000000,2,0.000000,24.875927,4.761720,99,99,0,0,0,0,0
5,59999,85,50000,43,40000,40,9999,0.100000,99,594,0.000000,1,0.000000,19.540420,0.162845,99,99,0,0,0,0,0
5,59999,86,50000,43,40000,40,9999,0.100000,99,594,0.000000,1,1.000000,29.394792,17.420185,99,99,0,0,0,0,0
5,59999,87,50000,43,40000,40,9999,0.100000,99,594,0.000000,1,2.000000,29.285488,18.399455,99,99,0,0,0,0,0
5,59999,88,50000,43,40000,41,9999,0.100000,99,594,0.000000,2,4.000000,25.114281,8.066970,99,99,0,0,0,0,0
5,59999,89,50000,43,40000,40,9999,0.100000,99,594,0.000000,3,1.000000,26.068082,8.380823,99,99,0,0,0,0,0
5,59999,90,50000,43,40000,40,9999,0.100000,99,594,0.000000,2,0.000000,21.439173,0.267235,99,99,0,0,0,0,0
5,59999,91,50000,43,40000,42,9999,0.100000,99,594,0.000000,1,6.000000,23.427149,6.465351,99,99,0,0,0,0,0
5,59999,92,50000,43,40000,41,9999,0.100000,99,594,0.000000,1,3.000000,26.001292,3.360054,99,99,0,0,0,0,0
5,59999,93,50000,43,40000,40,9999,0.100000,99,594,0.000000,3,0.000000,30.840529,0.143250,99,99,0,0,0,0,0
5,59999,94,50000,43,40000,40,9999,0.100000,99,594,0.000000,1,0.000000,24.533515,12.037009,99,99,0,0,0,0,0
5,59999,95,50000,43,40000,41,9999,0.100000,99,594,0.000000,3,3.000000,25.038277,15.103133,99,99,0,0,0,0,0
5,59999,96,50000,43,40000,40,9999,0.100000,99,594,0.000000,1,0.000000,26.596984,0.999452,99,99,0,0,0,0,0
5,59999,97,50000,43,40000,40,9999,0.100000,99,594,0.000000,2,0.000000,35.463674,0.231746,99,99,0,0,0,0,0
5,59999,98,50000,43,40000,40,9999,0.100000,99,594,0.000000,2,0.000000,30.701600,0.135185,99,99,0,0,0,0,0
5,59999,99,50000,43,40000,40,9999,0.100000,99,594,0.000000,1,0.000000,24.420062,20.171060,99,99,0,0,0,0,0
6,69999,0,60000,13,50000,0,9999,0.100000,99,693,0.001726,2,0.000000,12.511767,0.087149,99,99,0,0,0,1,0
6,69999,1,60000,13,50000,40,9999,0.100000,99,693,0.000000,3,0.000000,19.444434,1.425278,99,99,0,0,0,0,0
6,69999,2,60000,13,50000,43,9999,0.100000,99,693,0.000000,3,11.000000,26.775117,14.239262,99,99,0,0,0,0,0
6,69999,3,60000,13,50000,40,9999,0.100000,99,693,0.000000,2,0.000000,14.787485,5.497789,99,99,0,0,0,0,0
6,69999,4,60000,13,50000,40,9999,0.100000,99,693,0.000000,4,0.000000,31.089497,0.182623,99,99,0,0,0,0,0
6,69999,5,60000,13,50000,0,9999,0.100000,99,693,2.556084,2,0.000000,26.920233,0.498319,99,99,0,0,0,0,1
6,69999,6,60000,13,50000,0,9999,0.100000,99,693,0.141616,2,1.000000,33.517838,8.855918,99,99,0,1,0,0,0
6,69999,7,60000,13,50000,0,9999,0.100000,99,693,0.023355,1,1.000000,22.010298,4.616549,99,99,0,0,0,1,0
6,69999,8,60000,13,50000,40,9999,0.100000,99,693,0.000000,3,0.000000,28.882831,6.064841,99,99,0,0,0,0,0
6,69999,9,60000,13,50000,41,9999,0.100000,99,693,0.000000,1,4.000000,28.528516,7.566227,99,99,0,0,0,0,0
6,69999,10,60000,13,50000,0,9999,0.100000,99,693,0.145082,2,0.000000,30.671651,0.478923,99,99,0,0,0,0,1
6,69999,11,60000,13,50000,40,9999,0.100000,99,693,0.000000,2,0.000000,25.950137,0.678581,99,99,0,0,0,0,0
6,69999,12,60000,13,50000,0,9999,0.100000,99,693,0.195061,2,0.000000,28.664823,0.366136,99,99,0,0,0,0,1
6,69999,13,60000,23,50000,0,9999,0.100000,99,693,0.089724,3,0.000000,29.626255,0.399004,99,99,0,0,0,2,0
6,69999,14,60000,13,50000,40,9999,0.100000,99,693,0.000000,2,0.000000,29.945072,0.122929,99,99,0,0,0,0,0
6,69999,15,60000,13,50000,40,9999,0.100000,99,693,0.000000,1,0.000000,28.935730,0.586854,99,99,0,0,0,0,0
6,69999,16,60000,13,50000,40,9999,0.100000,99,693,0.000000,2,0.000000,28.856790,0.331509,99,99,0,0,0,0,0
6,69999,17,60000,13,50000,0,9999,0.100000,99,693,1.296501,2,0.000000,26.219539,0.998957,99,99,0,0,0,0,1
6,69999,18,60000,13,50000,0,9999,0.100000,99,693,0.007332,1,0.000000,30.196465,0.123878,99,99,0,0,1,0,0
6,69999,19,60000,13,50000,40,9999,0.100000,99,693,0.000000,2,0.000000,29.199508,1.026275,99,99,0,0,0,0,0
6,69999,20,60000,13,50000,0,9999,0.100000,99,693,8.694512,3,1.000000,25.336927,1.894261,99,99,0,1,0,0,0
6,69999,21,60000,13,50000,0,9999,0.100000,99,693,0.006989,1,0.000000,31.253645,0.104247,99,99,0,0,1,0,0
6,69999,22,60000,13,50000,0,9999,0.100000,99,693,0.000000,2,0.000000,30.846026,1.027217,99,99,0,0,0,1,0
6,69999,23,60000,13,50000,2,9999,0.100000,99,693,0.000000,3,8.000000,32.878777,25.426154,99,99,0,0,0,1,0
6,69999,24,60000,13,50000,40,9999,0.100000,99,693,0.000000,1,0.000000,26.841730,0.487697,99,99,0,0,0,0,0
6,69999,25,60000,13,50000,0,9999,0.100000,99,693,0.523040,2,0.000000,25.778733,0.138047,99,99,0,0,0,0,1
6,69999,26,60000,13,50000,0,9999,0.100000,99,693,0.973038,2,0.000000,28.662848,0.526529,99,99,0,0,0,1,0
6,69999,27,60000,13,50000,40,9999,0.100000,99,693,0.000000,2,0.000000,28.450140,0.380506,99,99,0,0,0,0,0
6,69999,28,60000,13,50000,40,9999,0.100000,99,693,0.000000,3,0.000000,25.991379,7.450500,99,99,0,0,0,0,0
6,69999,29,60000,13,50000,40,9999,0.100000,99,693,0.000000,3,0.000000,29.556484,0.702181,99,99,0,0,0,0,0
6,69999,30,60000,13,50000,40,9999,0.100000,99,693,0.000000,2,0.000000,24.080288,25.487812,99,99,0,0,0,0,0
6,69999,31,60000,13,50000,0,9999,0.100000,99,693,0.523061,2,0.000000,30.563348,0.173843,99,99,0,1,0,0,0
6,69999,32,60000,13,50000,40,9999,0.100000,99,693,0.000000,1,0.000000,27.143599,0.603669,99,99,0,0,0,0,0
6,69999,33,60000,13,50000,40,9999,0.100000,99,693,0.000000,2,3.000000,33.215126,14.659136,99,99,0,0,0,0,0
6,69999,34,60000,13,50000,40,9999,0.100000,99,693,0.000000,2,0.000000,30.949537,0.190548,99,99,0,0,0,0,0
6,69999,35,60000,13,50000,40,9999,0.100000,99,693,0.000000,2,0.000000,27.024183,0.772653,99,99,0,0,0,0,0
6,69999,36,60000,13,50000,41,9999,0.100000,99,693,0.000000,2,3.000000,27.107630,6.711399,99,99,0,0,0,0,0
6,69999,37,60000,13,50000,40,9999,0.100000,99,693,0.000000,3,0.000000,34.466732,5.248405,99,99,0,0,0,0,0
6,69999,38,60000,13,50000,40,9999,0.100000,99,693,0.000000,1,0.000000,28.946317,3.372305,99,99,0,0,0,0,0
6,69999,39,60000,13,50000,0,9999,0.100000,99,693,0.018669,2,0.000000,19.020683,0.192331,99,99,0,0,1,0,0
6,69999,40,60000,13,50000,40,9999,0.100000,99,693,0.000000,1,0.000000,31.509109,0.947340,99,99,0,0,0,0,0
6,69999,41,60000,13,50000,40,9999,0.100000,99,693,0.000000,2,0.000000,26.354568,1.201639,99,99,0,0,0,0,0
6,69999,42,60000,13,50000,40,9999,0.100000,99,693,0.000000,1,0.000000,29.020885,0.488586,99,99,0,0,0,0,0
6,69999,43,60000,13,50000,40,9999,0.100000,99,693,0.000000,4,2.000000,32.430959,9.437296,99,99,0,0,0,0,0
6,69999,44,60000,13,50000,0,9999,0.100000,99,693,0.004518,1,0.000000,20.501290,0.070085,99,99,0,0,0,0,1
6,69999,45,60000,13,50000,40,9999,0.100000,99,693,0.000000,1,0.000000,19.610930,1.080220,99,99,0,0,0,0,0
6,69999,46,60000,13,50000,0,9999,0.100000,99,693,0.000000,2,0.000000,30.125150,0.745035,99,99,0,0,0,1,0
6,69999,47,60000,13,50000,40,9999,0.100000,99,693,0.000000,3,0.000000,19.257869,0.153463,99,99,0,0,0,0,0
6,69999,48,60000,13,50000,0,9999,0.100000,99,693,0.000000,2,0.000000,29.687065,0.622542,99,99,0,0,0,1,0
6,69999,49,60000,13,50000,40,9999,0.100000,99,693,0.000000,3,1.000000,33.012695,2.898652,99,99,0,0,0,0,0
6,69999,50,60000,13,50000,0,9999,0.100000,99,693,0.003436,1,0.000000,16.342784,0.122065,99,99,0,0,0,1,0
6,69999,51,60000,13,50000,0,9999,0.100000,99,693,0.238316,3,0.000000,20.461599,0.306849,99,99,0,0,0,1,0
6,69999,52,60000,13,50000,40,9999,0.100000,99,693,0.000000,2,0.000000,19.246242,0.120572,99,99,0,0,0,0,0
6,69999,53,60000,13,50000,0,9999,0.100000,99,693,0.000000,2,3.000000,33.040013,11.161080,99,99,0,0,0,1,0
6,69999,54,60000,13,50000,40,9999,0.100000,99,693,0.000000,2,0.000000,31.590457,0.093291,99,99,0,0,0,0,0
6,69999,55,60000,13,50000,0,9999,0.100000,99,693,0.205995,1,0.000000,19.523244,0.575201,99,99,0,0,0,0,1
6,69999,56,60000,13,50000,40,9999,0.100000,99,693,0.000000,3,0.000000,26.453329,1.264749,99,99,0,0,0,0,0
6,69999,57,60000,13,50000,42,9999,0.100000,99,693,0.000000,2,4.000000,15.288636,10.302489,99,99,0,0,0,0,0
6,69999,58,60000,13,50000,40,9999,0.100000,99,693,0.000000,3,0.000000,28.403759,8.595707,99,99,0,0,0,0,0
6,69999,59,60000,13,50000,0,9999,0.100000,99,693,0.003042,2,0.000000,16.451458,0.064479,99,99,0,0,0,0,1
6,69999,60,60000,13,50000,40,9999,0.100000,99,693,0.000000,3,1.000000,32.662439,7.077478,99,99,0,0,0,0,0
6,69999,61,60000,13,50000,40,9999,0.100000,99,693,0.000000,2,1.000000,32.434788,1.864898,99,99,0,0,0,0,0
6,69999,62,60000,13,50000,40,9999,0.100000,99,693,0.000000,2,0.000000,25.836308,0.810333,99,99,0,0,0,0,0
6,69999,63,60000,13,50000,41,9999,0.100000,99,693,0.000000,1,4.000000,23.071614,6.816272,99,99,0,0,0,0,0
6,69999,64,60000,13,50000,40,9999,0.100000,99,693,0.000000,1,0.000000,31.908630,0.904264,99,99,0,0,0,0,0
6,69999,65,60000,13,50000,40,9999,0.100000,99,693,0.000000,2,0.000000,28.831042,1.766691,99,99,0,0,0,0,0
6,69999,66,60000,13,50000,41,9999,0.100000,99,693,0.000000,2,4.000000,29.982297,16.691410,99,99,0,0,0,0,0
6,69999,67,60000,13,50000,40,9999,0.100000,99,693,0.000000,2,0.000000,27.993054,5.124314,99,99,0,0,0,0,0
6,69999,68,60000,13,50000,40,9999,0.100000,99,693,0.000000,2,0.000000,30.478665,0.247998,99,99,0,0,0,0,0
6,69999,69,60000,13,50000,0,9999,0.100000,99,693,0.000000,3,0.000000,29.661404,0.366057,99,99,0,0,0,1,0
6,69999,70,60000,13,50000,40,9999,0.100000,99,693,0.000000,1,1.000000,22.568204,10.667402,99,99,0,0,0,0,0
6,69999,71,60000,13,50000,40,9999,0.100000,99,693,0.000000,2,0.000000,37.467392,0.100252,99,99,0,0,0,0,0
6,69999,72,60000,13,50000,40,9999,0.100000,99,693,0.000000,2,0.000000,35.932393,0.976197,99,99,0,0,0,0,0
6,69999,73,60000,13,50000,40,9999,0.100000,99,693,0.000000,3,0.000000,31.820610,6.136844,99,99,0,0,0,0,0
6,69999,74,60000,13,50000,40,9999,0.100000,99,693,0.000000,2,0.000000,28.878944,0.975307,99,99,0,0,0,0,0
6,69999,75,60000,13,50000,40,9999,0.100000,99,693,0.000000,2,0.000000,31.360879,0.099259,99,99,0,0,0,0,0
6,69999,76,60000,13,50000,40,9999,0.100000,99,693,0.000000,3,0.000000,26.571220,1.558911,99,99,0,0,0,0,0
6,69999,77,60000,13,50000,40,9999,0.100000,99,693,0.000000,1,0.000000,26.589904,23.793823,99,99,0,0,0,0,0
6,69999,78,60000,13,50000,40,9999,0.100000,99,693,0.000000,3,0.000000,28.192737,0.324538,99,99,0,0,0,0,0
6,69999,79,60000,13,50000,40,9999,0.100000,99,693,0.000000,2,0.000000,16.335344,0.140225,99,99,0,0,0,0,0
6,69999,80,60000,13,50000,41,9999,0.100000,99,693,0.000000,2,4.000000,28.581685,8.228491,99,99,0,0,0,0,0
6,69999,81,60000,13,50000,0,9999,0.100000,99,693,0.000000,2,3.000000,33.408632,11.761968,99,99,0,0,0,1,0
6,69999,82,60000,13,50000,2,9999,0.100000,99,693,0.002751,2,6.000000,24.386799,12.450736,99,99,0,0,1,0,0
6,69999,83,60000,13,50000,40,9999,0.100000,99,693,0.000000,1,1.000000,26.446125,3.482474,99,99,0,0,0,0,0
6,69999,84,60000,13,50000,40,9999,0.100000,99,693,0.000000,2,0.000000,25.248160,0.431878,99,99,0,0,0,0,0
6,69999,85,60000,13,50000,40,9999,0.100000,99,693,0.000000,1,0.000000,19.540850,0.163951,99,99,0,0,0,0,0
6,69999,86,60000,13,50000,41,9999,0.100000,99,693,0.000000,1,4.000000,29.261632,15.986883,99,99,0,0,0,0,0
6,69999,87,60000,13,50000,40,9999,0.100000,99,693,0.000000,1,2.000000,31.996846,5.437726,99,99,0,0,0,0,0
6,69999,88,60000,13,50000,40,9999,0.100000,99,693,0.000000,3,0.000000,29.861852,0.905777,99,99,0,0,0,0,0
6,69999,89,60000,13,50000,40,9999,0.100000,99,693,0.000000,3,1.000000,25.009742,8.658941,99,99,0,0,0,0,0
6,69999,90,60000,13,50000,43,9999,0.100000,99,693,0.000000,2,8.000000,21.581440,20.682392,99,99,0,0,0,0,0
6,69999,91,60000,13,50000,0,9999,0.100000,99,693,0.000000,2,0.000000,29.602080,0.396973,99,99,0,0,0,1,0
6,69999,92,60000,13,50000,40,9999,0.100000,99,693,0.000000,2,0.000000,28.490630,0.954212,99,99,0,0,0,0,0
6,69999,93,60000,13,50000,40,9999,0.100000,99,693,0.000000,3,0.000000,30.840110,0.137835,99,99,0,0,0,0,0
6,69999,94,60000,13,50000,40,9999,0.100000,99,693,0.000000,1,1.000000,24.666286,7.216352,99,99,0,0,0,0,0
6,69999,95,60000,13,50000,40,9999,0.100000,99,693,0.000000,3,1.000000,25.252078,12.395187,99,99,0,0,0,0,0
6,69999,96,60000,13,50000,40,9999,0.100000,99,693,0.000000,1,0.000000,26.094238,0.857664,99,99,0,0,0,0,0
6,69999,97,60000,13,50000,40,9999,0.100000,99,693,0.000000,2,0.000000,35.463339,0.236122,99,99,0,0,0,0,0
6,69999,98,60000,13,50000,40,9999,0.100000,99,693,0.000000,2,0.000000,30.701343,0.137209,99,99,0,0,0,0,0
6,69999,99,60000,13,50000,40,9999,0.100000,99,693,0.000000,1,0.000000,24.300590,20.619620,99,99,0,0,0,0,0
7,79999,0,70000,20,60000,0,9999,0.100000,99,792,0.001492,2,0.000000,12.512710,0.086326,99,99,0,0,0,1,0
7,79999,1,70000,20,60000,40,9999,0.100000,99,792,0.000000,3,0.000000,19.419739,0.837996,99,99,0,0,0,0,0
7,79999,2,70000,20,60000,40,9999,0.100000,99,792,0.000000,4,0.000000,29.809193,2.577071,99,99,0,0,0,0,0
7,79999,3,70000,20,60000,40,9999,0.100000,99,792,0.000000,2,0.000000,14.969234,1.132022,99,99,0,0,0,0,0
7,79999,4,70000,20,60000,40,9999,0.100000,99,792,0.000000,4,0.000000,31.101432,0.203147,99,99,0,0,0,0,0
7,79999,5,70000,20,60000,0,9999,0.100000,99,792,4.244499,2,0.000000,27.333295,0.863621,99,99,0,0,0,0,1
7,79999,6,70000,20,60000,40,9999,0.100000,99,792,0.000000,2,0.000000,33.949587,3.670311,99,99,0,0,0,0,0
7,79999,7,70000,20,60000,3,9999,0.100000,99,792,0.030390,2,7.000000,20.038054,15.515436,99,99,0,0,0,1,0
7,79999,8,70000,20,60000,40,9999,0.100000,99,792,0.000000,3,0.000000,28.200544,5.098138,99,99,0,0,0,0,0
7,79999,9,70000,20,60000,40,9999,0.100000,99,792,0.000000,2,0.000000,30.429984,0.319673,99,99,0,0,0,0,0
7,79999,10,70000,20,60000,0,9999,0.100000,99,792,0.231431,2,0.000000,30.684009,0.686481,99,99,0,0,0,0,1
7,79999,11,70000,20,60000,0,9999,0.100000,99,792,0.903543,2,0.000000,25.516699,0.512127,99,99,0,0,0,0,1
7,79999,12,70000,20,60000,40,9999,0.100000,99,792,0.000000,2,0.000000,28.734550,0.305575,99,99,0,0,0,0,0
7,79999,13,70000,20,60000,40,9999,0.100000,99,792,0.000000,3,0.000000,29.460331,5.609547,99,99,0,0,0,-1,0
7,79999,14,70000,20,60000,40,9999,0.100000,99,792,0.000000,2,0.000000,29.944769,0.121541,99,99,0,0,0,0,0
7,79999,15,70000,20,60000,40,9999,0.100000,99,792,0.000000,1,0.000000,28.842841,0.360024,99,99,0,0,0,0,0
7,79999,16,70000,20,60000,0,9999,0.100000,99,792,0.815477,2,0.000000,28.908286,0.272857,99,99,0,0,0,0,1
7,79999,17,70000,20,60000,40,9999,0.100000,99,792,0.000000,2,0.000000,25.870444,0.952965,99,99,0,0,0,0,0
7,79999,18,70000,20,60000,0,9999,0.100000,99,792,0.007190,1,0.000000,30.196324,0.120989,99,99,0,0,1,0,0
7,79999,19,70000,20,60000,40,9999,0.100000,99,792,0.000000,2,0.000000,29.249868,0.644835,99,99,0,0,0,0,0
7,79999,20,70000,5,60000,40,9999,0.100000,99,792,0.000000,3,1.000000,26.389280,5.936648,99,99,0,0,0,0,0
7,79999,21,70000,20,60000,0,9999,0.100000,99,792,0.005825,1,0.000000,31.255956,0.104799,99,99,0,0,1,0,0
7,79999,22,70000,20,60000,40,9999,0.100000,99,792,0.037721,2,0.000000,30.614673,0.998222,99,99,0,0,0,0,0
7,79999,23,70000,20,60000,40,9999,0.100000,99,792,0.000000,4,2.000000,32.939923,4.843822,99,99,0,0,0,0,0
7,79999,24,70000,20,60000,40,9999,0.100000,99,792,0.000000,1,0.000000,27.237540,0.882477,99,99,0,0,0,0,0
7,79999,25,70000,20,60000,0,9999,0.100000,99,792,0.776969,2,0.000000,25.865343,0.155394,99,99,0,0,0,0,1
7,79999,26,70000,20,60000,0,9999,0.100000,99,792,0.309657,2,0.000000,28.605780,0.245674,99,99,0,0,0,1,0
7,79999,27,70000,20,60000,40,9999,0.100000,99,792,0.000000,2,0.000000,28.428713,0.207441,99,99,0,0,0,0,0
7,79999,28,70000,20,60000,40,9999,0.100000,99,792,0.000000,3,0.000000,26.028527,8.131060,99,99,0,0,0,0,0
7,79999,29,70000,20,60000,42,9999,0.100000,99,792,0.000000,3,9.000000,29.557245,20.541048,99,99,0,0,0,0,0
7,79999,30,70000,20,60000,40,9999,0.100000,99,792,0.000000,2,0.000000,23.882229,25.584118,99,99,0,0,0,0,0
7,79999,31,70000,20,60000,1,9999,0.100000,99,792,30.052549,2,5.000000,30.530350,5.868618,99,99,0,1,0,0,0
7,79999,32,70000,20,60000,40,9999,0.100000,99,792,0.000000,1,0.000000,27.593888,0.899891,99,99,0,0,0,0,0
7,79999,33,70000,20,60000,40,9999,0.100000,99,792,0.000000,2,1.000000,35.660701,10.224155,99,99,0,0,0,0,0
7,79999,34,70000,20,60000,40,9999,0.100000,99,792,0.000000,2,0.000000,30.961343,0.224270,99,99,0,0,0,0,0
7,79999,35,70000,20,60000,40,9999,0.100000,99,792,0.000000,2,0.000000,27.465762,1.076332,99,99,0,0,0,0,0
7,79999,36,70000,20,60000,40,9999,0.100000,99,792,0.000000,2,0.000000,29.803317,2.817061,99,99,0,0,0,0,0
7,79999,37,70000,20,60000,40,9999,0.100000,99,792,0.000000,3,1.000000,34.310172,4.486395,99,99,0,0,0,0,0
7,79999,38,70000,20,60000,40,9999,0.100000,99,792,0.000000,1,0.000000,28.955659,3.285620,99,99,0,0,0,0,0
7,79999,39,70000,20,60000,40,9999,0.100000,99,792,0.000000,2,0.000000,19.016754,0.195796,99,99,0,0,0,0,0
7,79999,40,70000,20,60000,40,9999,0.100000,99,792,0.000000,1,0.000000,31.790835,3.206391,99,99,0,0,0,0,0
7,79999,41,70000,20,60000,40,9999,0.100000,99,792,0.000000,2,0.000000,26.041843,0.946228,99,99,0,0,0,0,0
7,79999,42,70000,20,60000,40,9999,0.100000,99,792,0.000000,1,0.000000,29.072870,0.437719,99,99,0,0,0,0,0
7,79999,43,70000,20,60000,40,9999,0.100000,99,792,0.000000,4,1.000000,31.760610,9.432317,99,99,0,0,0,0,0
7,79999,44,70000,20,60000,0,9999,0.100000,99,792,0.004781,1,0.000000,20.498842,0.071243,99,99,0,0,0,0,1
7,79999,45,70000,20,60000,40,9999,0.100000,99,792,0.000000,1,1.000000,19.193395,1.323269,99,99,0,0,0,0,0
7,79999,46,70000,20,60000,0,9999,0.100000,99,792,0.090281,2,3.000000,30.332775,7.046990,99,99,0,1,0,0,0
7,79999,47,70000,20,60000,0,9999,0.100000,99,792,0.011401,3,0.000000,19.255683,0.154105,99,99,0,0,1,0,0
7,79999,48,70000,20,60000,40,9999,0.100000,99,792,0.000000,3,2.000000,29.580739,9.457789,99,99,0,0,0,0,0
7,79999,49,70000,20,60000,40,9999,0.100000,99,792,0.000000,3,0.000000,33.762344,1.425691,99,99,0,0,0,0,0
7,79999,50,70000,20,60000,0,9999,0.100000,99,792,0.003597,1,0.000000,16.342136,0.122835,99,99,0,0,0,1,0
7,79999,51,70000,20,60000,0,9999,0.100000,99,792,0.249936,3,0.000000,20.667267,0.261726,99,99,0,0,0,1,0
7,79999,52,70000,20,60000,40,9999,0.100000,99,792,0.000000,3,0.000000,19.247890,0.115927,99,99,0,0,0,0,0
7,79999,53,70000,20,60000,40,9999,0.100000,99,792,0.000000,3,1.000000,36.161717,7.795059,99,99,0,0,0,0,0
7,79999,54,70000,20,60000,40,9999,0.100000,99,792,0.000000,2,0.000000,31.602884,0.117093,99,99,0,0,0,0,0
7,79999,55,70000,20,60000,0,9999,0.100000,99,792,0.308412,1,0.000000,19.455203,0.502924,99,99,0,0,0,0,1
7,79999,56,70000,20,60000,40,9999,0.100000,99,792,0.000000,3,0.000000,26.140342,1.401881,99,99,0,0,0,0,0
7,79999,57,70000,20,60000,40,9999,0.100000,99,792,0.000000,3,0.000000,15.432121,1.085649,99,99,0,0,0,0,0
7,79999,58,70000,20,60000,40,9999,0.100000,99,792,0.000000,3,1.000000,27.886979,10.547787,99,99,0,0,0,0,0
7,79999,59,70000,20,60000,0,9999,0.100000,99,792,0.003321,2,0.000000,16.450837,0.064455,99,99,0,0,0,0,1
7,79999,60,70000,20,60000,40,9999,0.100000,99,792,0.000000,3,1.000000,34.465868,14.566063,99,99,0,0,0,0,0
7,79999,61,70000,20,60000,40,9999,0.100000,99,792,0.000000,2,0.000000,33.614012,1.090747,99,99,0,0,0,0,0
7,79999,62,70000,20,60000,40,9999,0.100000,99,792,0.000000,2,0.000000,25.366047,0.955714,99,99,0,0,0,0,0
7,79999,63,70000,20,60000,40,9999,0.100000,99,792,0.000000,2,1.000000,26.507347,5.741258,99,99,0,0,0,0,0
7,79999,64,70000,20,60000,40,9999,0.100000,99,792,0.000000,1,3.000000,32.199149,11.785483,99,99,0,0,0,0,0
7,79999,65,70000,20,60000,40,9999,0.100000,99,792,0.000000,2,0.000000,28.841487,1.725131,99,99,0,0,0,0,0
7,79999,66,70000,20,60000,40,9999,0.100000,99,792,0.000000,3,0.000000,29.902771,5.760440,99,99,0,0,0,0,0
7,79999,67,70000,20,60000,40,9999,0.100000,99,792,0.000000,2,0.000000,28.042429,4.449783,99,99,0,0,0,0,0
7,79999,68,70000,20,60000,40,9999,0.100000,99,792,0.000000,2,0.000000,30.491687,0.205341,99,99,0,0,0,0,0
7,79999,69,70000,20,60000,42,9999,0.100000,99,792,0.000000,3,7.000000,29.555323,26.835143,99,99,0,0,0,0,0
7,79999,70,70000,20,60000,40,9999,0.100000,99,792,0.000000,1,1.000000,22.719288,11.269448,99,99,0,0,0,0,0
7,79999,71,70000,20,60000,40,9999,0.100000,99,792,0.000000,2,0.000000,37.467735,0.098032,99,99,0,0,0,0,0
7,79999,72,70000,20,60000,40,9999,0.100000,99,792,0.000000,2,0.000000,35.474315,0.934181,99,99,0,0,0,0,0
7,79999,73,70000,20,60000,40,9999,0.100000,99,792,0.000000,3,1.000000,31.945192,13.397940,99,99,0,0,0,0,0
7,79999,74,70000,20,60000,40,9999,0.100000,99,792,0.000000,2,0.000000,28.895837,1.026168,99,99,0,0,0,0,0
7,79999,75,70000,20,60000,40,9999,0.100000,99,792,0.000000,2,0.000000,31.373159,0.119963,99,99,0,0,0,0,0
7,79999,76,70000,20,60000,40,9999,0.100000,99,792,0.000000,3,0.000000,27.135819,1.049001,99,99,0,0,0,0,0
7,79999,77,70000,20,60000,40,9999,0.100000,99,792,0.000000,1,0.000000,26.604540,23.860856,99,99,0,0,0,0,0
7,79999,78,70000,20,60000,40,9999,0.100000,99,792,0.000000,3,0.000000,28.217856,0.185414,99,99,0,0,0,0,0
7,79999,79,70000,20,60000,40,9999,0.100000,99,792,0.000000,2,0.000000,16.335032,0.141355,99,99,0,0,0,0,0
7,79999,80,70000,20,60000,40,9999,0.100000,99,792,0.000000,3,2.000000,32.138138,12.044089,99,99,0,0,0,0,0
7,79999,81,70000,20,60000,40,9999,0.100000,99,792,0.000000,3,1.000000,35.493604,4.355918,99,99,0,0,0,0,0
7,79999,82,70000,20,60000,2,9999,0.100000,99,792,0.002467,2,6.000000,24.382892,12.445022,99,99,0,0,1,0,0
7,79999,83,70000,20,60000,40,9999,0.100000,99,792,0.000000,1,0.000000,25.383905,0.497480,99,99,0,0,0,0,0
7,79999,84,70000,20,60000,40,9999,0.100000,99,792,0.000000,2,0.000000,25.087492,0.398155,99,99,0,0,0,0,0
7,79999,85,70000,20,60000,40,9999,0.100000,99,792,0.000000,1,0.000000,19.543381,0.142321,99,99,0,0,0,0,0
7,79999,86,70000,20,60000,40,9999,0.100000,99,792,0.000000,2,3.000000,30.526824,8.124404,99,99,0,0,0,0,0
7,79999,87,70000,20,60000,40,9999,0.100000,99,792,0.000000,1,0.000000,30.573424,2.014707,99,99,0,0,0,0,0
7,79999,88,70000,20,60000,40,9999,0.100000,99,792,0.000000,3,0.000000,29.884574,0.868509,99,99,0,0,0,0,0
7,79999,89,70000,20,60000,40,9999,0.100000,99,792,0.000000,3,1.000000,24.502102,6.745902,99,99,0,0,0,0,0
7,79999,90,70000,20,60000,40,9999,0.100000,99,792,0.000000,3,0.000000,20.772456,0.485868,99,99,0,0,0,0,0
7,79999,91,70000,20,60000,40,9999,0.100000,99,792,0.000000,3,1.000000,29.330868,8.609621,99,99,0,0,0,0,0
7,79999,92,70000,20,60000,40,9999,0.100000,99,792,0.000000,2,0.000000,28.564166,0.660871,99,99,0,0,0,0,0
7,79999,93,70000,20,60000,40,9999,0.100000,99,792,0.000000,3,0.000000,30.839888,0.135039,99,99,0,0,0,0,0
7,79999,94,70000,20,60000,40,9999,0.100000,99,792,0.000000,1,2.000000,25.564661,9.552247,99,99,0,0,0,0,0
7,79999,95,70000,20,60000,40,9999,0.100000,99,792,0.000000,3,0.000000,24.194822,7.113442,99,99,0,0,0,0,0
7,79999,96,70000,20,60000,40,9999,0.100000,99,792,0.000000,1,0.000000,25.705491,0.780975,99,99,0,0,0,0,0
7,79999,97,70000,20,60000,40,9999,0.100000,99,792,0.000000,2,0.000000,35.463499,1.286794,99,99,0,0,0,0,0
7,79999,98,70000,20,60000,40,9999,0.100000,99,792,0.000000,2,0.000000,30.701219,0.144132,99,99,0,0,0,0,0
7,79999,99,70000,20,60000,40,9999,0.100000,99,792,0.000000,1,0.000000,24.379580,20.663403,99,99,0,0,0,0,0
8,89999,0,80000,31,70000,0,9999,0.100000,99,891,0.000335,2,0.000000,12.513616,0.088897,99,99,0,0,0,1,0
8,89999,1,80000,31,70000,41,9999,0.100000,99,891,0.000000,3,3.000000,19.389641,7.798741,99,99,0,0,0,0,0
8,89999,2,80000,31,70000,40,9999,0.100000,99,891,0.000000,4,0.000000,29.808534,2.359410,99,99,0,0,0,0,0
8,89999,3,80000,31,70000,40,9999,0.100000,99,891,0.000000,2,0.000000,15.701333,0.660992,99,99,0,0,0,0,0
8,89999,4,80000,31,70000,0,9999,0.100000,99,891,0.951203,4,0.000000,31.130373,0.686496,99,99,0,0,0,0,1
8,89999,5,80000,31,70000,0,9999,0.100000,99,891,3.404573,2,0.000000,28.105985,0.659508,99,99,0,0,0,0,1
8,89999,6,80000,31,70000,40,9999,0.100000,99,891,0.000000,2,1.000000,33.315601,7.360973,99,99,0,0,0,0,0
8,89999,7,80000,31,70000,0,9999,0.100000,99,891,0.023157,3,0.000000,20.035583,0.107162,99,99,0,0,0,1,0
8,89999,8,80000,31,70000,40,9999,0.100000,99,891,0.000000,3,2.000000,28.246520,14.102558,99,99,0,0,0,0,0
8,89999,9,80000,31,70000,40,9999,0.100000,99,891,0.000000,2,0.000000,30.438355,0.572606,99,99,0,0,0,0,0
8,89999,10,80000,31,70000,40,9999,0.100000,99,891,0.000000,2,0.000000,30.723935,0.967525,99,99,0,0,0,0,0
8,89999,11,80000,31,70000,0,9999,0.100000,99,891,1.223877,2,0.000000,25.177303,0.692691,99,99,0,0,0,0,1
8,89999,12,80000,31,70000,40,9999,0.100000,99,891,0.000000,2,0.000000,28.864657,0.266682,99,99,0,0,0,0,0
8,89999,13,80000,31,70000,40,9999,0.100000,99,891,0.000000,3,2.000000,28.894187,16.644046,99,99,0,0,0,0,0
8,89999,14,80000,31,70000,40,9999,0.100000,99,891,0.000000,2,0.000000,29.944564,0.140582,99,99,0,0,0,0,0
8,89999,15,80000,31,70000,40,9999,0.100000,99,891,0.000000,1,0.000000,28.743944,0.889781,99,99,0,0,0,0,0
8,89999,16,80000,31,70000,40,9999,0.100000,99,891,0.000000,2,0.000000,29.029602,0.156622,99,99,0,0,0,0,0
8,89999,17,80000,31,70000,40,9999,0.100000,99,891,0.000000,2,0.000000,25.587992,0.944568,99,99,0,0,0,0,0
8,89999,18,80000,31,70000,0,9999,0.100000,99,891,1.980360,1,0.000000,30.195963,0.500364,99,99,0,0,1,0,0
8,89999,19,80000,31,70000,0,9999,0.100000,99,891,0.076883,2,0.000000,29.352675,0.084549,99,99,0,0,0,0,1
8,89999,20,80000,31,70000,1,9999,0.100000,99,891,20.489561,3,4.000000,27.656928,10.292452,99,99,0,1,0,0,0
8,89999,21,80000,31,70000,0,9999,0.100000,99,891,1.217436,1,0.000000,31.258152,0.233967,99,99,0,0,1,0,0
8,89999,22,80000,31,70000,40,9999,0.100000,99,891,0.000000,2,0.000000,30.151359,0.202337,99,99,0,0,0,0,0
8,89999,23,80000,31,70000,40,9999,0.100000,99,891,0.000000,4,3.000000,32.305207,9.539825,99,99,0,0,0,0,0
8,89999,24,80000,31,70000,40,9999,0.100000,99,891,0.000000,1,0.000000,28.029477,0.611246,99,99,0,0,0,0,0
8,89999,25,80000,31,70000,0,9999,0.100000,99,891,0.453461,2,0.000000,25.968258,0.293989,99,99,0,0,0,0,1
8,89999,26,80000,31,70000,0,9999,0.100000,99,891,0.066708,2,0.000000,28.548517,0.776369,99,99,0,0,0,1,0
8,89999,27,80000,31,70000,40,9999,0.100000,99,891,0.000000,2,0.000000,28.400773,0.650409,99,99,0,0,0,0,0
8,89999,28,80000,31,70000,40,9999,0.100000,99,891,0.000000,3,0.000000,26.450386,6.414306,99,99,0,0,0,0,0
8,89999,29,80000,31,70000,41,9999,0.100000,99,891,0.000000,4,4.000000,29.113521,5.629312,99,99,0,0,0,0,0
8,89999,30,80000,31,70000,40,9999,0.100000,99,891,0.000000,2,0.000000,23.694787,25.631970,99,99,0,0,0,0,0
8,89999,31,80000,5,70000,0,9999,0.100000,99,891,0.038268,3,0.000000,33.213401,0.299210,99,99,0,1,0,0,0
8,89999,32,80000,31,70000,40,9999,0.100000,99,891,0.000000,1,0.000000,28.336947,0.831603,99,99,0,0,0,0,0
8,89999,33,80000,31,70000,40,9999,0.100000,99,891,0.000000,2,2.000000,34.417901,6.968190,99,99,0,0,0,0,0
8,89999,34,80000,31,70000,40,9999,0.100000,99,891,0.000000,2,0.000000,30.990734,1.014269,99,99,0,0,0,0,0
8,89999,35,80000,31,70000,40,9999,0.100000,99,891,0.000000,2,0.000000,28.218092,0.771696,99,99,0,0,0,0,0
8,89999,36,80000,31,70000,40,9999,0.100000,99,891,0.000000,2,0.000000,29.803037,2.691822,99,99,0,0,0,0,0
8,89999,37,80000,31,70000,40,9999,0.100000,99,891,0.000000,3,0.000000,34.272257,2.792492,99,99,0,0,0,0,0
8,89999,38,80000,31,70000,40,9999,0.100000,99,891,0.000000,1,0.000000,28.967687,3.215685,99,99,0,0,0,0,0
8,89999,39,80000,31,70000,0,9999,0.100000,99,891,0.356630,2,0.000000,18.995374,0.366596,99,99,0,0,1,0,0
8,89999,40,80000,31,70000,40,9999,0.100000,99,891,0.000000,1,1.000000,31.400305,3.195804,99,99,0,0,0,0,0
8,89999,41,80000,31,70000,40,9999,0.100000,99,891,0.000000,2,0.000000,25.784448,0.967407,99,99,0,0,0,0,0
8,89999,42,80000,31,70000,40,9999,0.100000,99,891,0.000000,1,0.000000,29.191963,0.130662,99,99,0,0,0,0,0
8,89999,43,80000,31,70000,40,9999,0.100000,99,891,0.000000,4,1.000000,31.214100,8.471690,99,99,0,0,0,0,0
8,89999,44,80000,31,70000,0,9999,0.100000,99,891,0.005187,1,0.000000,20.496401,0.071810,99,99,0,0,0,0,1
8,89999,45,80000,31,70000,40,9999,0.100000,99,891,0.000000,1,1.000000,18.368260,1.718827,99,99,0,0,0,0,0
8,89999,46,80000,31,70000,1,9999,0.100000,99,891,20.571117,3,4.000000,27.799050,7.363561,99,99,0,1,0,0,0
8,89999,47,80000,31,70000,40,9999,0.100000,99,891,0.000000,3,0.000000,19.243429,0.372153,99,99,0,0,0,0,0
8,89999,48,80000,31,70000,40,9999,0.100000,99,891,0.000000,3,1.000000,27.256335,6.779589,99,99,0,0,0,0,0
8,89999,49,80000,31,70000,40,9999,0.100000,99,891,0.000000,3,0.000000,33.767576,1.000835,99,99,0,0,0,0,0
8,89999,50,80000,31,70000,0,9999,0.100000,99,891,0.003644,1,0.000000,16.341589,0.123213,99,99,0,0,0,1,0
8,89999,51,80000,31,70000,2,9999,0.100000,99,891,0.077766,3,5.000000,20.828875,6.252468,99,99,0,0,0,1,0
8,89999,52,80000,31,70000,40,9999,0.100000,99,891,0.000000,3,0.000000,19.245434,0.115150,99,99,0,0,0,0,0
8,89999,53,80000,31,70000,40,9999,0.100000,99,891,0.000000,3,2.000000,34.963248,8.974070,99,99,0,0,0,0,0
8,89999,54,80000,31,70000,40,9999,0.100000,99,891,0.000000,2,0.000000,31.633157,0.171655,99,99,0,0,0,0,0
8,89999,55,80000,31,70000,0,9999,0.100000,99,891,0.002127,1,0.000000,19.367287,0.910959,99,99,0,0,0,0,1
8,89999,56,80000,31,70000,40,9999,0.100000,99,891,0.000000,3,2.000000,25.998224,5.532646,99,99,0,0,0,0,0
8,89999,57,80000,31,70000,40,9999,0.100000,99,891,0.000000,3,0.000000,15.718693,0.631638,99,99,0,0,0,0,0
8,89999,58,80000,31,70000,40,9999,0.100000,99,891,0.000000,3,1.000000,25.957317,7.453692,99,99,0,0,0,0,0
8,89999,59,80000,31,70000,0,9999,0.100000,99,891,0.002665,2,0.000000,16.450187,0.064216,99,99,0,0,0,0,1
8,89999,60,80000,31,70000,40,9999,0.100000,99,891,0.000000,3,0.000000,33.513440,4.149545,99,99,0,0,0,0,0
8,89999,61,80000,31,70000,40,9999,0.100000,99,891,0.000000,2,0.000000,34.033671,1.010343,99,99,0,0,0,0,0
8,89999,62,80000,31,70000,40,9999,0.100000,99,891,0.000000,2,0.000000,24.998071,0.964799,99,99,0,0,0,0,0
8,89999,63,80000,31,70000,40,9999,0.100000,99,891,0.000000,2,2.000000,27.142133,6.649193,99,99,0,0,0,0,0
8,89999,64,80000,31,70000,40,9999,0.100000,99,891,0.000000,1,0.000000,33.464226,1.998311,99,99,0,0,0,0,0
8,89999,65,80000,31,70000,40,9999,0.100000,99,891,0.000000,2,0.000000,28.854677,1.719095,99,99,0,0,0,0,0
8,89999,66,80000,31,70000,40,9999,0.100000,99,891,0.000000,3,1.000000,29.202648,6.228187,99,99,0,0,0,0,0
8,89999,67,80000,31,70000,40,9999,0.100000,99,891,0.000000,2,0.000000,28.056738,5.134758,99,99,0,0,0,0,0
8,89999,68,80000,31,70000,40,9999,0.100000,99,891,0.000000,2,0.000000,30.509277,0.355543,99,99,0,0,0,0,0
8,89999,69,80000,31,70000,40,9999,0.100000,99,891,0.000000,4,0.000000,29.887259,1.894496,99,99,0,0,0,0,0
8,89999,70,80000,31,70000,40,9999,0.100000,99,891,0.000000,1,1.000000,22.888843,4.543790,99,99,0,0,0,0,0
8,89999,71,80000,31,70000,40,9999,0.100000,99,891,0.000000,2,0.000000,37.468447,0.094746,99,99,0,0,0,0,0
8,89999,72,80000,31,70000,40,9999,0.100000,99,891,0.000000,2,0.000000,35.045861,0.934907,99,99,0,0,0,0,0
8,89999,73,80000,31,70000,40,9999,0.100000,99,891,0.000000,3,0.000000,31.797728,5.485173,99,99,0,0,0,0,0
8,89999,74,80000,31,70000,40,9999,0.100000,99,891,0.000000,2,0.000000,28.911453,1.042452,99,99,0,0,0,0,0
8,89999,75,80000,31,70000,40,9999,0.100000,99,891,0.000000,2,0.000000,31.403244,0.185821,99,99,0,0,0,0,0
8,89999,76,80000,31,70000,40,9999,0.100000,99,891,0.000000,3,0.000000,27.936193,0.589595,99,99,0,0,0,0,0
8,89999,77,80000,31,70000,40,9999,0.100000,99,891,0.000000,1,0.000000,26.639111,24.104764,99,99,0,0,0,0,0
8,89999,78,80000,31,70000,40,9999,0.100000,99,891,0.000000,3,0.000000,28.230287,0.902326,99,99,0,0,0,0,0
8,89999,79,80000,31,70000,40,9999,0.100000,99,891,0.000000,2,0.000000,16.334590,0.141306,99,99,0,0,0,0,0
8,89999,80,80000,31,70000,40,9999,0.100000,99,891,0.000000,3,0.000000,30.730691,7.123125,99,99,0,0,0,0,0
8,89999,81,80000,31,70000,40,9999,0.100000,99,891,0.000000,3,0.000000,34.836986,4.268600,99,99,0,0,0,0,0
8,89999,82,80000,31,70000,0,9999,0.100000,99,891,0.001492,2,0.000000,24.379037,0.138505,99,99,0,0,1,0,0
8,89999,83,80000,31,70000,40,9999,0.100000,99,891,0.000000,1,0.000000,25.604443,0.572490,99,99,0,0,0,0,0
8,89999,84,80000,31,70000,40,9999,0.100000,99,891,0.000000,2,0.000000,24.986277,0.451171,99,99,0,0,0,0,0
8,89999,85,80000,31,70000,40,9999,0.100000,99,891,0.000000,1,0.000000,19.541075,0.130208,99,99,0,0,0,0,0
8,89999,86,80000,31,70000,40,9999,0.100000,99,891,0.000000,2,0.000000,30.507257,1.499119,99,99,0,0,0,0,0
8,89999,87,80000,31,70000,40,9999,0.100000,99,891,0.000000,1,0.000000,30.642476,1.755608,99,99,0,0,0,0,0
8,89999,88,80000,31,70000,40,9999,0.100000,99,891,0.000000,3,0.000000,29.924009,0.776011,99,99,0,0,0,0,0
8,89999,89,80000,31,70000,40,9999,0.100000,99,891,0.000000,3,1.000000,26.175752,9.011956,99,99,0,0,0,0,0
8,89999,90,80000,31,70000,42,9999,0.100000,99,891,0.000000,3,5.000000,20.999753,6.118973,99,99,0,0,0,0,0
8,89999,91,80000,31,70000,40,9999,0.100000,99,891,0.000000,3,2.000000,27.708702,8.690774,99,99,0,0,0,0,0
8,89999,92,80000,31,70000,40,9999,0.100000,99,891,0.000000,2,0.000000,28.702719,1.600889,99,99,0,0,0,0,0
8,89999,93,80000,31,70000,40,9999,0.100000,99,891,0.000000,3,0.000000,30.839384,0.134162,99,99,0,0,0,0,0
8,89999,94,80000,31,70000,40,9999,0.100000,99,891,0.000000,1,0.000000,28.336194,2.575690,99,99,0,0,0,0,0
8,89999,95,80000,31,70000,40,9999,0.100000,99,891,0.000000,3,0.000000,24.103618,4.872018,99,99,0,0,0,0,0
8,89999,96,80000,31,70000,40,9999,0.100000,99,891,0.000000,1,0.000000,25.395460,0.767046,99,99,0,0,0,0,0
8,89999,97,80000,31,70000,40,9999,0.100000,99,891,0.000000,2,0.000000,35.776108,0.228645,99,99,0,0,0,0,0
8,89999,98,80000,31,70000,40,9999,0.100000,99,891,0.000000,2,0.000000,30.700723,0.132961,99,99,0,0,0,0,0
8,89999,99,80000,31,70000,40,9999,0.100000,99,891,0.000000,1,0.000000,24.468414,20.682111,99,99,0,0,0,0,0
9,99999,0,90000,46,80000,0,9999,0.100000,99,990,0.005407,2,0.000000,12.514236,0.106084,99,99,0,0,0,1,0
9,99999,1,90000,46,80000,40,9999,0.100000,99,990,0.000000,3,0.000000,19.188289,5.452618,99,99,0,0,0,0,0
9,99999,2,90000,46,80000,40,9999,0.100000,99,990,0.000000,4,0.000000,29.809681,2.323224,99,99,0,0,0,0,0
9,99999,3,90000,46,80000,40,9999,0.100000,99,990,0.000000,2,0.000000,15.316808,0.749191,99,99,0,0,0,0,0
9,99999,4,90000,46,80000,40,9999,0.100000,99,990,0.000000,4,0.000000,31.194152,0.845137,99,99,0,0,0,0,0
9,99999,5,90000,46,80000,0,9999,0.100000,99,990,1.508194,2,0.000000,28.657589,0.386452,99,99,0,0,0,0,1
9,99999,6,90000,46,80000,0,9999,0.100000,99,990,0.811109,2,0.000000,34.184052,1.080071,99,99,0,1,0,0,0
9,99999,7,90000,46,80000,0,9999,0.100000,99,990,0.029762,3,0.000000,20.033598,0.105542,99,99,0,0,0,1,0
9,99999,8,90000,46,80000,0,9999,0.100000,99,990,0.082250,3,0.000000,26.023289,4.439457,99,99,0,0,0,0,1
9,99999,9,90000,46,80000,40,9999,0.100000,99,990,0.000000,2,0.000000,30.447423,0.828522,99,99,0,0,0,0,0
9,99999,10,90000,46,80000,0,9999,0.100000,99,990,0.958378,2,0.000000,30.968112,0.919983,99,99,0,0,0,0,1
9,99999,11,90000,46,80000,40,9999,0.100000,99,990,0.000000,2,1.000000,24.807429,1.783088,99,99,0,0,0,0,0
9,99999,12,90000,46,80000,0,9999,0.100000,99,990,10.718754,2,2.000000,28.879148,2.408429,99,99,0,0,0,0,1
9,99999,13,90000,46,80000,40,9999,0.100000,99,990,0.000000,3,0.000000,29.682763,2.122268,99,99,0,0,0,0,0
9,99999,14,90000,46,80000,40,9999,0.100000,99,990,0.000000,2,0.000000,29.948666,0.129181,99,99,0,0,0,0,0
9,99999,15,90000,46,80000,40,9999,0.100000,99,990,0.000000,1,0.000000,28.142048,0.400588,99,99,0,0,0,0,0
9,99999,16,90000,46,80000,40,9999,0.100000,99,990,0.000000,2,2.000000,29.040045,2.273098,99,99,0,0,0,0,0
9,99999,17,90000,46,80000,0,9999,0.100000,99,990,2.968828,2,1.000000,25.291074,1.563156,99,99,0,0,0,0,1
9,99999,18,90000,46,80000,0,9999,0.100000,99,990,0.000413,1,0.000000,29.924012,0.109263,99,99,0,0,1,0,0
9,99999,19,90000,46,80000,40,9999,0.100000,99,990,0.000000,2,2.000000,29.355532,2.258611,99,99,0,0,0,0,0
9,99999,20,90000,46,80000,41,9999,0.100000,99,990,0.000000,3,4.000000,29.785539,6.141791,99,99,0,0,0,0,0
9,99999,21,90000,46,80000,0,9999,0.100000,99,990,0.800001,1,0.000000,31.194875,0.617602,99,99,0,0,1,0,0
9,99999,22,90000,46,80000,0,9999,0.100000,99,990,0.586155,2,0.000000,30.221806,0.229640,99,99,0,0,0,1,0
9,99999,23,90000,46,80000,40,9999,0.100000,99,990,0.000000,4,0.000000,30.698236,1.184720,99,99,0,0,0,0,0
9,99999,24,90000,46,80000,40,9999,0.100000,99,990,0.000000,1,0.000000,28.541038,0.794305,99,99,0,0,0,0,0
9,99999,25,90000,46,80000,40,9999,0.100000,99,990,0.000000,2,0.000000,26.127204,1.849302,99,99,0,0,0,0,0
9,99999,26,90000,46,80000,0,9999,0.100000,99,990,0.111237,2,0.000000,28.071886,0.430574,99,99,0,0,0,1,0
9,99999,27,90000,46,80000,40,9999,0.100000,99,990,0.000000,2,0.000000,28.018322,0.277659,99,99,0,0,0,0,0
9,99999,28,90000,46,80000,40,9999,0.100000,99,990,0.000000,3,1.000000,26.388250,9.179452,99,99,0,0,0,0,0
9,99999,29,90000,46,80000,40,9999,0.100000,99,990,0.000000,4,1.000000,30.693495,1.189279,99,99,0,0,0,0,0
9,99999,30,90000,46,80000,0,9999,0.100000,99,990,0.935249,2,1.000000,23.574479,21.761721,99,99,0,1,0,0,0
9,99999,31,90000,46,80000,0,9999,0.100000,99,990,0.869953,3,0.000000,33.168605,2.846448,99,99,0,1,0,0,0
9,99999,32,90000,46,80000,40,9999,0.100000,99,990,0.000000,1,0.000000,28.983111,0.707798,99,99,0,0,0,0,0
9,99999,33,90000,46,80000,40,9999,0.100000,99,990,0.000000,2,1.000000,32.564330,6.650376,99,99,0,0,0,0,0
9,99999,34,90000,46,80000,40,9999,0.100000,99,990,0.000000,2,0.000000,31.043901,1.020038,99,99,0,0,0,0,0
9,99999,35,90000,46,80000,40,9999,0.100000,99,990,0.000000,2,0.000000,28.817312,0.525283,99,99,0,0,0,0,0
9,99999,36,90000,46,80000,40,9999,0.100000,99,990,0.000000,2,0.000000,29.802953,2.644189,99,99,0,0,0,0,0
9,99999,37,90000,46,80000,40,9999,0.100000,99,990,0.000000,3,1.000000,33.893138,3.922961,99,99,0,0,0,0,0
9,99999,38,90000,46,80000,40,9999,0.100000,99,990,0.000000,1,0.000000,28.983895,3.124884,99,99,0,0,0,0,0
9,99999,39,90000,46,80000,40,9999,0.100000,99,990,0.000000,2,0.000000,19.025650,0.401410,99,99,0,0,0,0,0
9,99999,40,90000,46,80000,40,9999,0.100000,99,990,0.000000,1,0.000000,32.366439,0.233142,99,99,0,0,0,0,0
9,99999,41,90000,46,80000,40,9999,0.100000,99,990,0.000000,2,1.000000,25.510681,1.526561,99,99,0,0,0,0,0
9,99999,42,90000,46,80000,40,9999,0.100000,99,990,0.000000,1,2.000000,29.198351,2.258883,99,99,0,0,0,0,0
9,99999,43,90000,46,80000,40,9999,0.100000,99,990,0.000000,4,0.000000,32.473929,0.224013,99,99,0,0,0,0,0
9,99999,44,90000,46,80000,0,9999,0.100000,99,990,0.004717,1,0.000000,20.493796,0.072069,99,99,0,0,0,0,1
9,99999,45,90000,46,80000,40,9999,0.135000,99,990,0.000000,1,1.000000,17.630050,1.417188,99,99,0,0,0,0,0
9,99999,46,90000,20,80000,40,9999,0.100000,99,990,0.000000,3,0.000000,29.408859,8.452144,99,99,0,0,0,0,0
9,99999,47,90000,46,80000,0,9999,0.100000,99,990,0.374194,3,0.000000,19.269912,0.413377,99,99,0,0,1,0,0
9,99999,48,90000,46,80000,40,9999,0.100000,99,990,0.000000,3,1.000000,27.996432,4.607341,99,99,0,0,0,0,0
9,99999,49,90000,46,80000,40,9999,0.100000,99,990,0.000000,3,1.000000,33.885049,7.933195,99,99,0,0,0,0,0
9,99999,50,90000,46,80000,0,9999,0.100000,99,990,0.367326,1,0.000000,16.340985,0.229389,99,99,0,0,0,1,0
9,99999,51,90000,46,80000,0,9999,0.100000,99,990,0.131372,4,0.000000,26.765082,2.666627,99,99,0,0,0,1,0
9,99999,52,90000,46,80000,40,9999,0.100000,99,990,0.000000,3,0.000000,19.243393,0.115552,99,99,0,0,0,0,0
9,99999,53,90000,46,80000,40,9999,0.100000,99,990,0.000000,3,0.000000,32.535419,0.250212,99,99,0,0,0,0,0
9,99999,54,90000,46,80000,40,9999,0.100000,99,990,0.000000,2,0.000000,31.689841,0.265405,99,99,0,0,0,0,0
9,99999,55,90000,46,80000,0,9999,0.100000,99,990,0.025838,1,0.000000,19.103785,0.160771,99,99,0,0,0,0,1
9,99999,56,90000,46,80000,40,9999,0.100000,99,990,0.000000,3,1.000000,26.345169,8.295601,99,99,0,0,0,0,0
9,99999,57,90000,46,80000,40,9999,0.100000,99,990,0.000000,3,0.000000,15.250647,0.681742,99,99,0,0,0,0,0
9,99999,58,90000,46,80000,41,9999,0.100000,99,990,0.000000,3,4.000000,26.118806,13.234425,99,99,0,0,0,0,0
9,99999,59,90000,46,80000,0,9999,0.100000,99,990,0.003120,2,0.000000,16.449537,0.063882,99,99,0,0,0,0,1
9,99999,60,90000,46,80000,40,9999,0.100000,99,990,0.000000,3,1.000000,33.761653,13.535912,99,99,0,0,0,0,0
9,99999,61,90000,46,80000,40,9999,0.100000,99,990,0.000000,2,1.000000,34.480036,2.026906,99,99,0,0,0,0,0
9,99999,62,90000,46,80000,40,9999,0.100000,99,990,0.000000,2,1.000000,24.606227,1.597874,99,99,0,0,0,0,0
9,99999,63,90000,46,80000,40,9999,0.100000,99,990,0.000000,2,1.000000,24.864083,3.782112,99,99,0,0,0,0,0
9,99999,64,90000,46,80000,40,9999,0.100000,99,990,0.000000,1,0.000000,33.182060,5.784510,99,99,0,0,0,0,0
9,99999,65,90000,46,80000,40,9999,0.100000,99,990,0.000000,2,0.000000,28.871344,1.667496,99,99,0,0,0,0,0
9,99999,66,90000,46,80000,40,9999,0.100000,99,990,0.000000,3,0.000000,28.200581,0.621973,99,99,0,0,0,0,0
9,99999,67,90000,46,80000,40,9999,0.100000,99,990,0.000000,2,0.000000,28.129440,4.707985,99,99,0,0,0,0,0
9,99999,68,90000,46,80000,40,9999,0.100000,99,990,0.000000,2,0.000000,30.546418,0.140642,99,99,0,0,0,0,0
9,99999,69,90000,46,80000,40,9999,0.100000,99,990,0.000000,4,1.000000,30.452745,2.330977,99,99,0,0,0,0,0
9,99999,70,90000,46,80000,40,9999,0.100000,99,990,0.000000,1,1.000000,24.370119,6.565324,99,99,0,0,0,0,0
9,99999,71,90000,46,80000,40,9999,0.100000,99,990,0.000000,2,0.000000,37.469786,0.098553,99,99,0,0,0,0,0
9,99999,72,90000,46,80000,40,9999,0.100000,99,990,0.000000,2,0.000000,34.642457,1.985166,99,99,0,0,0,0,0
9,99999,73,90000,46,80000,40,9999,0.100000,99,990,0.000000,3,0.000000,31.484013,9.011608,99,99,0,0,0,0,0
9,99999,74,90000,46,80000,40,9999,0.100000,99,990,0.000000,2,0.000000,28.931288,1.013235,99,99,0,0,0,0,0
9,99999,75,90000,46,80000,40,9999,0.100000,99,990,0.000000,2,0.000000,31.465722,0.320520,99,99,0,0,0,0,0
9,99999,76,90000,46,80000,40,9999,0.100000,99,990,0.000000,3,0.000000,28.398992,1.227268,99,99,0,0,0,0,0
9,99999,77,90000,46,80000,40,9999,0.100000,99,990,0.000000,1,0.000000,26.531779,0.893355,99,99,0,0,0,0,0
9,99999,78,90000,46,80000,40,9999,0.100000,99,990,0.000000,3,0.000000,27.965156,0.820139,99,99,0,0,0,0,0
9,99999,79,90000,46,80000,40,9999,0.100000,99,990,0.000000,2,0.000000,16.334262,0.141605,99,99,0,0,0,0,0
9,99999,80,90000,46,80000,40,9999,0.100000,99,990,0.000000,3,1.000000,30.785147,8.565252,99,99,0,0,0,0,0
9,99999,81,90000,46,80000,40,9999,0.100000,99,990,0.000000,3,1.000000,34.389141,3.534238,99,99,0,0,0,0,0
9,99999,82,90000,46,80000,0,9999,0.100000,99,990,0.002030,2,0.000000,24.375361,0.139182,99,99,0,0,1,0,0
9,99999,83,90000,46,80000,40,9999,0.100000,99,990,0.000000,1,0.000000,25.886119,3.285073,99,99,0,0,0,0,0
9,99999,84,90000,46,80000,40,9999,0.100000,99,990,0.000000,2,2.000000,25.033292,14.982136,99,99,0,0,0,0,0
9,99999,85,90000,46,80000,40,9999,0.100000,99,990,0.000000,1,0.000000,19.539162,0.146286,99,99,0,0,0,0,0
9,99999,86,90000,46,80000,40,9999,0.100000,99,990,0.000000,2,0.000000,30.823057,1.190207,99,99,0,0,0,0,0
9,99999,87,90000,46,80000,40,9999,0.100000,99,990,0.000000,1,0.000000,30.901595,1.536719,99,99,0,0,0,0,0
9,99999,88,90000,46,80000,40,9999,0.100000,99,990,0.000000,3,0.000000,29.948447,0.565289,99,99,0,0,0,0,0
9,99999,89,90000,46,80000,40,9999,0.100000,99,990,0.000000,3,1.000000,26.888949,7.058009,99,99,0,0,0,0,0
9,99999,90,90000,46,80000,40,9999,0.100000,99,990,0.000000,3,0.000000,26.833041,0.300127,99,99,0,0,0,0,0
9,99999,91,90000,46,80000,40,9999,0.100000,99,990,0.000000,3,0.000000,28.210417,3.642975,99,99,0,0,0,0,0
9,99999,92,90000,46,80000,40,9999,0.100000,99,990,0.000000,2,2.000000,28.728671,3.907655,99,99,0,0,0,0,0
9,99999,93,90000,46,80000,40,9999,0.100000,99,990,0.000000,3,0.000000,30.839248,0.140245,99,99,0,0,0,0,0
9,99999,94,90000,46,80000,40,9999,0.100000,99,990,0.000000,1,0.000000,28.129389,3.366721,99,99,0,0,0,0,0
9,99999,95,90000,46,80000,40,9999,0.100000,99,990,0.000000,3,1.000000,23.303974,8.133293,99,99,0,0,0,0,0
9,99999,96,90000,46,80000,40,9999,0.100000,99,990,0.000000,1,1.000000,25.067055,1.577175,99,99,0,0,0,0,0
9,99999,97,90000,46,80000,40,9999,0.100000,99,990,0.000000,2,0.000000,35.776583,1.334973,99,99,0,0,0,0,0
9,99999,98,90000,46,80000,40,9999,0.100000,99,990,0.000000,2,0.000000,30.700384,0.141887,99,99,0,0,0,0,0
9,99999,99,90000,46,80000,40,9999,0.100000,99,990,0.000000,1,0.000000,24.235022,20.673070,99,99,0,0,0,0,0
10,109999,0,100000,12,90000,0,9999,0.100000,99,1089,1.041063,2,0.000000,12.513466,0.289833,99,99,0,0,0,1,0
10,109999,1,100000,12,90000,40,9999,0.100000,99,1089,0.000000,3,0.000000,19.156087,4.952076,99,99,0,0,0,0,0
10,109999,2,100000,12,90000,40,9999,0.100000,99,1089,0.000000,4,0.000000,29.807967,2.495371,99,99,0,0,0,0,0
10,109999,3,100000,12,90000,40,9999,0.100000,99,1089,0.000000,2,0.000000,14.802857,0.603125,99,99,0,0,0,0,0
10,109999,4,100000,12,90000,40,9999,0.100000,99,1089,0.000000,4,0.000000,31.106368,1.470556,99,99,0,0,0,0,0
10,109999,5,100000,12,90000,0,9999,0.100000,99,1089,4.813886,2,0.000000,28.871307,1.012555,99,99,0,0,0,0,1
10,109999,6,100000,12,90000,0,9999,0.100000,99,1089,2.424170,2,0.000000,34.283351,1.559455,99,99,0,1,0,0,0
10,109999,7,100000,12,90000,0,9999,0.100000,99,1089,0.029461,3,0.000000,20.031764,0.105965,99,99,0,0,0,1,0
10,109999,8,100000,12,90000,40,9999,0.100000,99,1089,0.000000,3,0.000000,26.424996,0.708367,99,99,0,0,0,0,0
10,109999,9,100000,12,90000,40,9999,0.100000,99,1089,0.000000,2,0.000000,30.488956,0.144096,99,99,0,0,0,0,0
10,109999,10,100000,12,90000,0,9999,0.100000,99,1089,1.908634,2,0.000000,30.932738,1.053450,99,99,0,0,0,0,1
10,109999,11,100000,12,90000,0,9999,0.100000,99,1089,3.724140,2,1.000000,24.685684,1.431783,99,99,0,0,0,0,1
10,109999,12,100000,17,90000,40,9999,0.100000,99,1089,0.000000,2,1.000000,30.573802,5.669842,99,99,0,0,0,0,0
10,109999,13,100000,12,90000,40,9999,0.100000,99,1089,0.000000,3,0.000000,29.549727,0.470597,99,99,0,0,0,0,0
10,109999,14,100000,12,90000,40,9999,0.100000,99,1089,0.000000,2,0.000000,29.953290,0.144853,99,99,0,0,0,0,0
10,109999,15,100000,12,90000,40,9999,0.100000,99,1089,0.000000,1,0.000000,28.071414,0.588183,99,99,0,0,0,0,0
10,109999,16,100000,12,90000,40,9999,0.100000,99,1089,0.000000,2,1.000000,30.717265,9.024143,99,99,0,0,0,0,0
10,109999,17,100000,12,90000,40,9999,0.100000,99,1089,0.000000,2,1.000000,25.154053,1.297231,99,99,0,0,0,0,0
10,109999,18,100000,12,90000,0,9999,0.100000,99,1089,6.968956,1,1.000000,29.921964,1.856366,99,99,0,0,1,0,0
10,109999,19,100000,12,90000,0,9999,0.100000,99,1089,6.811506,2,1.000000,30.993962,7.397921,99,99,0,0,0,0,1
10,109999,20,100000,12,90000,40,9999,0.100000,99,1089,0.000000,4,0.000000,30.369814,0.137450,99,99,0,0,0,0,0
10,109999,21,100000,12,90000,0,9999,0.100000,99,1089,7.240146,1,0.000000,31.187547,0.930527,99,99,0,0,1,0,0
10,109999,22,100000,12,90000,40,9999,0.100000,99,1089,0.000000,2,0.000000,30.111381,0.495792,99,99,0,0,0,0,0
10,109999,23,100000,12,90000,40,9999,0.100000,99,1089,0.000000,4,0.000000,30.668948,1.172373,99,99,0,0,0,0,0
10,109999,24,100000,12,90000,40,9999,0.100000,99,1089,0.000000,1,1.000000,28.691858,1.459285,99,99,0,0,0,0,0
10,109999,25,100000,12,90000,40,9999,0.100000,99,1089,0.000000,2,0.000000,26.055030,0.842972,99,99,0,0,0,0,0
10,109999,26,100000,12,90000,0,9999,0.100000,99,1089,1.230406,2,0.000000,28.028039,0.583013,99,99,0,0,0,1,0
10,109999,27,100000,12,90000,40,9999,0.100000,99,1089,0.000000,2,0.000000,27.999953,0.426589,99,99,0,0,0,0,0
10,109999,28,100000,12,90000,41,9999,0.100000,99,1089,0.000000,3,5.000000,26.457133,14.904124,99,99,0,0,0,0,0
10,109999,29,100000,12,90000,40,9999,0.100000,99,1089,0.000000,4,1.000000,30.651205,2.255135,99,99,0,0,0,0,0
10,109999,30,100000,12,90000,0,9999,0.100000,99,1089,0.554015,3,0.000000,23.544930,0.173470,99,99,0,1,0,0,0
10,109999,31,100000,12,90000,0,9999,0.100000,99,1089,0.587279,3,0.000000,33.228541,1.762485,99,99,0,1,0,0,0
10,109999,32,100000,12,90000,40,9999,0.100000,99,1089,0.000000,1,0.000000,29.342534,1.030659,99,99,0,0,0,0,0
10,109999,33,100000,12,90000,40,9999,0.100000,99,1089,0.000000,2,2.000000,31.265176,7.778597,99,99,0,0,0,0,0
10,109999,34,100000,12,90000,40,9999,0.100000,99,1089,0.000000,2,0.000000,30.923158,1.567086,99,99,0,0,0,0,0
10,109999,35,100000,12,90000,40,9999,0.100000,99,1089,0.000000,2,0.000000,29.070605,1.011058,99,99,0,0,0,0,0
10,109999,36,100000,12,90000,40,9999,0.100000,99,1089,0.000000,2,0.000000,29.802366,2.793933,99,99,0,0,0,0,0
10,109999,37,100000,12,90000,40,9999,0.100000,99,1089,0.000000,3,0.000000,35.302465,4.096116,99,99,0,0,0,0,0
10,109999,38,100000,12,90000,40,9999,0.100000,99,1089,0.000000,1,0.000000,29.000180,3.327910,99,99,0,0,0,0,0
10,109999,39,100000,12,90000,0,9999,0.100000,99,1089,0.270067,2,0.000000,19.087049,0.394393,99,99,0,0,1,0,0
10,109999,40,100000,12,90000,40,9999,0.100000,99,1089,0.000000,1,0.000000,32.367685,0.241924,99,99,0,0,0,0,0
10,109999,41,100000,12,90000,40,9999,0.100000,99,1089,0.000000,2,1.000000,25.379358,1.192038,99,99,0,0,0,0,0
10,109999,42,100000,12,90000,40,9999,0.100000,99,1089,0.000000,1,1.000000,30.871417,6.737964,99,99,0,0,0,0,0
10,109999,43,100000,12,90000,40,9999,0.100000,99,1089,0.000000,4,0.000000,32.419024,0.164047,99,99,0,0,0,0,0
10,109999,44,100000,12,90000,0,9999,0.100000,99,1089,0.005191,1,0.000000,20.491328,0.071978,99,99,0,0,0,0,1
10,109999,45,100000,12,90000,40,9999,0.100000,99,1089,0.000000,1,0.000000,17.315837,0.528198,99,99,0,0,0,0,0
10,109999,46,100000,12,90000,40,9999,0.100000,99,1089,0.000000,3,0.000000,29.707254,3.999024,99,99,0,0,0,0,0
10,109999,47,100000,12,90000,40,9999,0.100000,99,1089,0.000000,3,0.000000,19.316252,0.398386,99,99,0,0,0,0,0
10,109999,48,100000,12,90000,40,9999,0.100000,99,1089,0.000000,3,1.000000,28.309742,2.919134,99,99,0,0,0,0,0
10,109999,49,100000,12,90000,40,9999,0.100000,99,1089,0.000000,3,0.000000,33.264227,1.508916,99,99,0,0,0,0,0
10,109999,50,100000,12,90000,40,9999,0.100000,99,1089,0.000000,1,0.000000,16.307749,0.813041,99,99,0,0,0,0,0
10,109999,51,100000,12,90000,40,9999,0.100000,99,1089,0.000000,4,0.000000,26.891518,4.623936,99,99,0,0,0,0,0
10,109999,52,100000,12,90000,40,9999,0.100000,99,1089,0.000000,3,0.000000,19.241497,0.114925,99,99,0,0,0,0,0
10,109999,53,100000,12,90000,40,9999,0.100000,99,1089,0.000000,3,0.000000,32.484338,0.163388,99,99,0,0,0,0,0
10,109999,54,100000,12,90000,40,9999,0.100000,99,1089,0.000000,2,0.000000,31.539704,0.402852,99,99,0,0,0,0,0
10,109999,55,100000,12,90000,0,9999,0.100000,99,1089,0.382384,1,0.000000,19.115962,0.235766,99,99,0,0,0,0,1
10,109999,56,100000,12,90000,41,9999,0.100000,99,1089,0.000000,3,3.000000,25.554282,7.910024,99,99,0,0,0,0,0
10,109999,57,100000,12,90000,40,9999,0.100000,99,1089,0.000000,3,0.000000,14.721788,0.466073,99,99,0,0,0,0,0
10,109999,58,100000,12,90000,0,9999,0.100000,99,1089,0.140876,3,0.000000,26.533709,0.880692,99,99,0,0,0,0,1
10,109999,59,100000,12,90000,0,9999,0.100000,99,1089,0.003130,2,0.000000,16.448949,0.064631,99,99,0,0,0,0,1
10,109999,60,100000,12,90000,40,9999,0.100000,99,1089,0.000000,3,0.000000,34.189245,9.378986,99,99,0,0,0,0,0
10,109999,61,100000,12,90000,40,9999,0.100000,99,1089,0.000000,2,2.000000,35.179749,2.729549,99,99,0,0,0,0,0
10,109999,62,100000,12,90000,40,9999,0.100000,99,1089,0.000000,2,1.000000,24.482941,1.316585,99,99,0,0,0,0,0
10,109999,63,100000,12,90000,40,9999,0.100000,99,1089,0.000000,2,1.000000,24.058460,6.108027,99,99,0,0,0,0,0
10,109999,64,100000,12,90000,40,9999,0.100000,99,1089,0.000000,1,0.000000,33.360959,2.088503,99,99,0,0,0,0,0
10,109999,65,100000,12,90000,40,9999,0.100000,99,1089,0.000000,2,0.000000,28.887738,1.748385,99,99,0,0,0,0,0
10,109999,66,100000,12,90000,40,9999,0.100000,99,1089,0.000000,3,0.000000,28.162142,0.839321,99,99,0,0,0,0,0
10,109999,67,100000,12,90000,40,9999,0.100000,99,1089,0.000000,2,0.000000,28.205835,4.000401,99,99,0,0,0,0,0
10,109999,68,100000,12,90000,40,9999,0.100000,99,1089,0.000000,2,0.000000,30.545975,0.135764,99,99,0,0,0,0,0
10,109999,69,100000,12,90000,40,9999,0.100000,99,1089,0.000000,4,0.000000,30.222170,0.139860,99,99,0,0,0,0,0
10,109999,70,100000,12,90000,40,9999,0.100000,99,1089,0.000000,1,2.000000,25.623398,5.501124,99,99,0,0,0,0,0
10,109999,71,100000,12,90000,40,9999,0.100000,99,1089,0.000000,2,0.000000,37.469570,0.097931,99,99,0,0,0,0,0
10,109999,72,100000,12,90000,40,9999,0.100000,99,1089,0.000000,2,2.000000,35.183068,3.399184,99,99,0,0,0,0,0
10,109999,73,100000,12,90000,40,9999,0.100000,99,1089,0.000000,3,2.000000,31.222603,4.313620,99,99,0,0,0,0,0
10,109999,74,100000,12,90000,40,9999,0.100000,99,1089,0.000000,2,0.000000,28.950547,0.953464,99,99,0,0,0,0,0
10,109999,75,100000,12,90000,40,9999,0.100000,99,1089,0.000000,2,0.000000,31.349549,0.540479,99,99,0,0,0,0,0
10,109999,76,100000,12,90000,40,9999,0.100000,99,1089,0.000000,3,1.000000,28.477240,5.276734,99,99,0,0,0,0,0
10,109999,77,100000,12,90000,40,9999,0.100000,99,1089,0.000000,1,0.000000,26.860711,0.222047,99,99,0,0,0,0,0
10,109999,78,100000,12,90000,40,9999,0.100000,99,1089,0.000000,3,0.000000,27.976519,0.853582,99,99,0,0,0,0,0
10,109999,79,100000,12,90000,40,9999,0.100000,99,1089,0.000000,2,0.000000,16.333869,0.141108,99,99,0,0,0,0,0
10,109999,80,100000,12,90000,40,9999,0.100000,99,1089,0.000000,3,1.000000,31.658121,11.517382,99,99,0,0,0,0,0
10,109999,81,100000,12,90000,40,9999,0.100000,99,1089,0.000000,3,0.000000,35.558481,0.226954,99,99,0,0,0,0,0
10,109999,82,100000,12,90000,0,9999,0.100000,99,1089,0.001563,2,0.000000,24.371662,0.140510,99,99,0,0,1,0,0
10,109999,83,100000,12,90000,40,9999,0.100000,99,1089,0.000000,1,0.000000,25.788162,0.496621,99,99,0,0,0,0,0
10,109999,84,100000,12,90000,40,9999,0.100000,99,1089,0.000000,2,0.000000,23.962876,22.283016,99,99,0,0,0,0,0
10,109999,85,100000,12,90000,40,9999,0.100000,99,1089,0.000000,1,0.000000,19.537403,0.152300,99,99,0,0,0,0,0
10,109999,86,100000,12,90000,40,9999,0.100000,99,1089,0.000000,2,0.000000,30.792826,1.232288,99,99,0,0,0,0,0
10,109999,87,100000,12,90000,40,9999,0.100000,99,1089,0.000000,1,0.000000,30.876537,1.476924,99,99,0,0,0,0,0
10,109999,88,100000,12,90000,40,9999,0.100000,99,1089,0.000000,3,0.000000,29.953075,0.663933,99,99,0,0,0,0,0
10,109999,89,100000,12,90000,40,9999,0.100000,99,1089,0.000000,3,1.000000,26.880175,4.842729,99,99,0,0,0,0,0
10,109999,90,100000,12,90000,40,9999,0.100000,99,1089,0.000000,3,0.000000,26.992239,0.388427,99,99,0,0,0,0,0
10,109999,91,100000,12,90000,40,9999,0.100000,99,1089,0.000000,3,1.000000,28.533908,4.884702,99,99,0,0,0,0,0
10,109999,92,100000,12,90000,0,9999,0.100000,99,1089,6.527001,2,1.000000,30.402383,5.473432,99,99,0,0,0,0,1
10,109999,93,100000,12,90000,40,9999,0.100000,99,1089,0.000000,3,0.000000,30.838826,0.139882,99,99,0,0,0,0,0
10,109999,94,100000,12,90000,40,9999,0.100000,99,1089,0.000000,1,0.000000,28.149789,4.008569,99,99,0,0,0,0,0
10,109999,95,100000,12,90000,40,9999,0.100000,99,1089,0.000000,3,2.000000,21.957153,3.631089,99,99,0,0,0,0,0
10,109999,96,100000,12,90000,40,9999,0.100000,99,1089,0.000000,1,1.000000,24.938790,1.263434,99,99,0,0,0,0,0
10,109999,97,100000,12,90000,40,9999,0.100000,99,1089,0.000000,2,0.000000,36.196800,0.209054,99,99,0,0,0,0,0
10,109999,98,100000,12,90000,40,9999,0.100000,99,1089,0.000000,2,0.000000,30.700171,0.139972,99,99,0,0,0,0,0
10,109999,99,100000,12,90000,40,9999,0.100000,99,1089,0.000000,1,0.000000,24.396812,20.765954,99,99,0,0,0,0,0
11,119999,0,110000,21,100000,0,9999,0.100000,99,1188,0.938638,2,0.000000,12.331958,0.276787,99,99,0,0,0,1,0
11,119999,1,110000,21,100000,40,9999,0.100000,99,1188,0.000000,3,0.000000,19.066587,3.982853,99,99,0,0,0,0,0
11,119999,2,110000,21,100000,40,9999,0.100000,99,1188,0.000000,4,0.000000,29.810166,2.466304,99,99,0,0,0,0,0
11,119999,3,110000,21,100000,40,9999,0.100000,99,1188,0.000000,2,0.000000,14.573531,0.579808,99,99,0,0,0,0,0
11,119999,4,110000,21,100000,40,9999,0.100000,99,1188,0.000000,4,0.000000,31.615776,1.293064,99,99,0,0,0,0,0
11,119999,5,110000,21,100000,40,9999,0.100000,99,1188,0.000000,2,0.000000,29.482096,0.368939,99,99,0,0,0,0,0
11,119999,6,110000,21,100000,0,9999,0.100000,99,1188,1.544285,2,0.000000,33.604728,0.675180,99,99,0,1,0,0,0
11,119999,7,110000,21,100000,0,9999,0.100000,99,1188,0.028009,3,0.000000,20.030188,0.103344,99,99,0,0,0,1,0
11,119999,8,110000,21,100000,40,9999,0.100000,99,1188,0.000000,3,0.000000,26.545808,1.182837,99,99,0,0,0,0,0
11,119999,9,110000,21,100000,40,9999,0.100000,99,1188,0.000000,2,0.000000,30.488587,0.142111,99,99,0,0,0,0,0
11,119999,10,110000,21,100000,0,9999,0.100000,99,1188,2.846026,2,0.000000,31.388843,1.260102,99,99,0,0,0,0,1
11,119999,11,110000,21,100000,40,9999,0.100000,99,1188,0.000000,2,1.000000,24.468985,1.523106,99,99,0,0,0,0,0
11,119999,12,110000,21,100000,40,9999,0.100000,99,1188,0.000000,2,1.000000,31.317780,13.096834,99,99,0,0,0,0,0
11,119999,13,110000,21,100000,40,9999,0.100000,99,1188,0.000000,3,0.000000,29.531453,0.263602,99,99,0,0,0,0,0
11,119999,14,110000,21,100000,40,9999,0.100000,99,1188,0.000000,2,0.000000,29.959488,0.139212,99,99,0,0,0,0,0
11,119999,15,110000,21,100000,40,9999,0.100000,99,1188,0.000000,1,1.000000,27.734152,1.370376,99,99,0,0,0,0,0
11,119999,16,110000,21,100000,40,9999,0.065000,99,1188,0.000000,2,0.000000,29.788399,2.264682,99,99,0,0,0,0,0
11,119999,17,110000,21,100000,0,9999,0.100000,99,1188,3.876483,2,1.000000,24.914680,1.377767,99,99,0,0,0,0,1
11,119999,18,110000,21,100000,0,9999,0.100000,99,1188,0.020314,1,0.000000,29.727623,0.141068,99,99,0,0,1,0,0
11,119999,19,110000,21,100000,40,9999,0.100000,99,1188,0.000000,2,1.000000,31.952267,19.634005,99,99,0,0,0,0,0
11,119999,20,110000,21,100000,40,9999,0.100000,99,1188,0.000000,4,0.000000,30.369550,0.137260,99,99,0,0,0,0,0
11,119999,21,110000,18,100000,0,9999,0.100000,99,1188,0.239375,1,0.000000,31.931456,0.537575,99,99,0,0,1,0,0
11,119999,22,110000,21,100000,40,9999,0.100000,99,1188,0.000000,2,0.000000,30.140511,0.211165,99,99,0,0,0,0,0
11,119999,23,110000,21,100000,40,9999,0.100000,99,1188,0.000000,4,0.000000,31.148297,1.655122,99,99,0,0,0,0,0
11,119999,24,110000,21,100000,0,9999,0.100000,99,1188,0.957496,1,0.000000,29.349941,0.520885,99,99,0,0,0,0,1
11,119999,25,110000,21,100000,40,9999,0.100000,99,1188,0.000000,2,0.000000,26.217767,2.865568,99,99,0,0,0,0,0
11,119999,26,110000,21,100000,0,9999,0.100000,99,1188,4.142946,2,1.000000,27.740141,1.260663,99,99,0,0,0,1,0
11,119999,27,110000,21,100000,40,9999,0.100000,99,1188,0.000000,2,1.000000,27.750870,1.098086,99,99,0,0,0,0,0
11,119999,28,110000,21,100000,40,9999,0.100000,99,1188,0.000000,3,0.000000,31.470460,1.208588,99,99,0,0,0,0,0
11,119999,29,110000,21,100000,40,9999,0.100000,99,1188,0.000000,4,0.000000,32.469898,1.008741,99,99,0,0,0,0,0
11,119999,30,110000,21,100000,0,9999,0.100000,99,1188,0.144972,3,0.000000,23.507942,0.141699,99,99,0,1,0,0,0
11,119999,31,110000,21,100000,0,9999,0.100000,99,1188,2.952611,3,1.000000,33.161660,4.436228,99,99,0,1,0,0,0
11,119999,32,110000,21,100000,40,9999,0.100000,99,1188,0.000000,1,0.000000,29.830618,0.564064,99,99,0,0,0,0,0
11,119999,33,110000,21,100000,40,9999,0.100000,99,1188,0.000000,2,1.000000,29.471605,14.957370,99,99,0,0,0,0,0
11,119999,34,110000,21,100000,40,9999,0.100000,99,1188,0.000000,2,0.000000,31.514547,1.195324,99,99,0,0,0,0,0
11,119999,35,110000,21,100000,40,9999,0.100000,99,1188,0.000000,2,1.000000,29.623573,5.513379,99,99,0,0,0,0,0
11,119999,36,110000,21,100000,40,9999,0.100000,99,1188,0.000000,2,0.000000,29.803064,2.759733,99,99,0,0,0,0,0
11,119999,37,110000,21,100000,40,9999,0.100000,99,1188,0.000000,3,0.000000,35.256300,4.124063,99,99,0,0,0,0,0
11,119999,38,110000,21,100000,40,9999,0.100000,99,1188,0.000000,1,0.000000,29.015416,3.144528,99,99,0,0,0,0,0
11,119999,39,110000,21,100000,0,9999,0.100000,99,1188,0.398360,2,0.000000,19.180320,0.395459,99,99,0,0,1,0,0
11,119999,40,110000,21,100000,40,9999,0.100000,99,1188,0.000000,1,0.000000,32.369248,0.245102,99,99,0,0,0,0,0
11,119999,41,110000,21,100000,40,9999,0.100000,99,1188,0.000000,2,1.000000,25.130173,1.357735,99,99,0,0,0,0,0
11,119999,42,110000,21,100000,40,9999,0.100000,99,1188,0.000000,1,2.000000,31.735860,4.223207,99,99,0,0,0,0,0
11,119999,43,110000,21,100000,40,9999,0.100000,99,1188,0.000000,4,0.000000,32.355617,0.168747,99,99,0,0,0,0,0
11,119999,44,110000,21,100000,0,9999,0.100000,99,1188,0.005146,1,0.000000,20.488648,0.071671,99,99,0,0,0,0,1
11,119999,45,110000,21,100000,0,9999,0.100000,99,1188,0.274898,1,0.000000,17.283736,0.338216,99,99,0,0,1,0,0
11,119999,46,110000,21,100000,40,9999,0.100000,99,1188,0.000000,3,0.000000,29.727845,6.917032,99,99,0,0,0,0,0
11,119999,47,110000,21,100000,40,9999,0.100000,99,1188,0.000000,3,0.000000,19.374318,0.399570,99,99,0,0,0,0,0
11,119999,48,110000,21,100000,40,9999,0.100000,99,1188,0.000000,3,0.000000,29.239482,0.610141,99,99,0,0,0,0,0
11,119999,49,110000,21,100000,90,9999,0.100000,99,1188,4.413041,3,1.000000,33.196722,16.615844,99,99,1,0,0,0,0
11,119999,50,110000,21,100000,0,9999,0.100000,99,1188,0.060553,2,0.000000,16.545986,0.307531,99,99,0,0,0,1,0
