generation,iteration,robot,birthday,ancestor_id,ancestor_birthday,cell_id,age,sigma,maps,genomes,fitness,cells_in_map,dist_max,dist_pot_max,dist_total,com_rx,com_tx,obj_group1,obj_group2,obj_group3,obj_group4,obj_group5
0,9999,0,0,0,0,1,9999,0.100000,0,0,0.000000,0,10.000000,0.000000,11.690815,0,0,0,0,0,0,0
0,9999,1,0,1,0,1,9999,0.100000,0,0,0.000000,0,7.000000,0.000000,26.082348,0,0,0,0,0,0,0
0,9999,2,0,2,0,1,9999,0.100000,0,0,0.000000,0,12.000000,0.000000,17.619410,0,0,0,0,0,0,0
0,9999,3,0,3,0,1,9999,0.100000,0,0,0.000000,0,6.000000,0.000000,12.476533,0,0,0,0,0,0,0
0,9999,4,0,4,0,1,9999,0.100000,0,0,0.000000,0,11.000000,0.000000,19.914802,0,0,0,0,0,0,0
0,9999,5,0,5,0,1,9999,0.100000,0,0,0.000000,0,11.000000,0.000000,16.293989,0,0,0,0,0,0,0
0,9999,6,0,6,0,1,9999,0.100000,0,0,0.000000,0,5.000000,0.000000,13.483836,0,0,0,0,0,0,0
0,9999,7,0,7,0,1,9999,0.100000,0,0,0.000000,0,8.000000,0.000000,14.826808,0,0,0,0,0,0,0
0,9999,8,0,8,0,1,9999,0.100000,0,0,0.000000,0,4.000000,0.000000,15.676915,0,0,0,0,0,0,0
0,9999,9,0,9,0,1,9999,0.100000,0,0,0.000000,0,9.000000,0.000000,21.668109,0,0,0,0,0,0,0
0,9999,10,0,10,0,1,9999,0.100000,0,0,0.000000,0,8.000000,0.000000,15.183924,0,0,0,0,0,0,0
0,9999,11,0,11,0,1,9999,0.100000,0,0,0.000000,0,9.000000,0.000000,15.019443,0,0,0,0,0,0,0
0,9999,12,0,12,0,1,9999,0.100000,0,0,0.000000,0,8.000000,0.000000,19.525659,0,0,0,0,0,0,0
0,9999,13,0,13,0,1,9999,0.100000,0,0,0.000000,0,8.000000,0.000000,12.996496,0,0,0,0,0,0,0
0,9999,14,0,14,0,1,9999,0.100000,0,0,0.000000,0,5.000000,0.000000,26.114210,0,0,0,0,0,0,0
0,9999,15,0,15,0,1,9999,0.100000,0,0,0.000000,0,4.000000,0.000000,11.082719,0,0,0,0,0,0,0
0,9999,16,0,16,0,1,9999,0.100000,0,0,47.368421,0,8.000000,0.000000,28.560300,0,0,0,1,0,0,0
0,9999,17,0,17,0,1,9999,0.100000,0,0,0.000000,0,10.000000,0.000000,20.090072,0,0,0,0,0,0,0
0,9999,18,0,18,0,1,9999,0.100000,0,0,0.000000,0,7.000000,0.000000,17.441273,0,0,0,0,0,0,0
0,9999,19,0,19,0,1,9999,0.100000,0,0,0.000000,0,4.000000,0.000000,7.141196,0,0,0,0,0,0,0
0,9999,20,0,20,0,1,9999,0.100000,0,0,0.000000,0,9.000000,0.000000,21.795486,0,0,0,0,0,0,0
0,9999,21,0,21,0,1,9999,0.100000,0,0,47.368421,0,8.000000,0.000000,23.585855,0,0,0,1,0,0,0
0,9999,22,0,22,0,1,9999,0.100000,0,0,0.000000,0,9.000000,0.000000,20.415014,0,0,0,0,0,0,0
0,9999,23,0,23,0,1,9999,0.100000,0,0,0.000000,0,5.000000,0.000000,12.050532,0,0,0,0,0,0,0
0,9999,24,0,24,0,1,9999,0.100000,0,0,0.000000,0,9.000000,0.000000,11.716742,0,0,0,0,0,0,0
0,9999,25,0,25,0,1,9999,0.100000,0,0,0.000000,0,7.000000,0.000000,12.470681,0,0,0,0,0,0,0
0,9999,26,0,26,0,1,9999,0.100000,0,0,0.000000,0,10.000000,0.000000,13.197083,0,0,0,0,0,0,0
0,9999,27,0,27,0,1,9999,0.100000,0,0,0.000000,0,9.000000,0.000000,13.669028,0,0,0,0,0,0,0
0,9999,28,0,28,0,1,9999,0.100000,0,0,0.000000,0,3.000000,0.000000,17.433817,0,0,0,0,0,0,0
0,9999,29,0,29,0,1,9999,0.100000,0,0,0.000000,0,4.000000,0.000000,12.267578,0,0,0,0,0,0,0
0,9999,30,0,30,0,1,9999,0.100000,0,0,0.000000,0,6.000000,0.000000,23.836152,0,0,0,0,0,0,0
0,9999,31,0,31,0,1,9999,0.100000,0,0,0.000000,0,9.000000,0.000000,12.529622,0,0,0,0,0,0,0
0,9999,32,0,32,0,1,9999,0.100000,0,0,0.000000,0,4.000000,0.000000,10.838134,0,0,0,0,0,0,0
0,9999,33,0,33,0,1,9999,0.100000,0,0,0.000000,0,9.000000,0.000000,15.070159,0,0,0,0,0,0,0
0,9999,34,0,34,0,1,9999,0.100000,0,0,0.000000,0,9.000000,0.000000,13.547341,0,0,0,0,0,0,0
0,9999,35,0,35,0,1,9999,0.100000,0,0,0.000000,0,6.000000,0.000000,7.405348,0,0,0,0,0,0,0
0,9999,36,0,36,0,1,9999,0.100000,0,0,0.000000,0,7.000000,0.000000,19.514535,0,0,0,0,0,0,0
0,9999,37,0,37,0,3,9999,0.100000,0,0,64.787120,0,12.000000,0.000000,33.013330,0,0,1,0,0,0,0
0,9999,38,0,38,0,1,9999,0.100000,0,0,0.000000,0,3.000000,0.000000,11.769732,0,0,0,0,0,0,0
0,9999,39,0,39,0,1,9999,0.100000,0,0,0.000000,0,9.000000,0.000000,21.725232,0,0,0,0,0,0,0
0,9999,40,0,40,0,1,9999,0.100000,0,0,0.000000,0,9.000000,0.000000,14.068343,0,0,0,0,0,0,0
0,9999,41,0,41,0,1,9999,0.100000,0,0,0.000000,0,6.000000,0.000000,15.715077,0,0,0,0,0,0,0
0,9999,42,0,42,0,1,9999,0.100000,0,0,0.000000,0,5.000000,0.000000,17.165494,0,0,0,0,0,0,0
0,9999,43,0,43,0,1,9999,0.100000,0,0,0.000000,0,6.000000,0.000000,13.188338,0,0,0,0,0,0,0
0,9999,44,0,44,0,3,9999,0.100000,0,0,18.308993,0,8.000000,0.000000,17.662228,0,0,1,0,0,0,0
0,9999,45,0,45,0,1,9999,0.100000,0,0,0.000000,0,11.000000,0.000000,12.642838,0,0,0,0,0,0,0
0,9999,46,0,46,0,1,9999,0.100000,0,0,0.000000,0,4.000000,0.000000,9.800221,0,0,0,0,0,0,0
0,9999,47,0,47,0,1,9999,0.100000,0,0,0.000000,0,9.000000,0.000000,16.106950,0,0,0,0,0,0,0
0,9999,48,0,48,0,1,9999,0.100000,0,0,0.000000,0,6.000000,0.000000,7.604044,0,0,0,0,0,0,0
0,9999,49,0,49,0,1,9999,0.100000,0,0,0.000000,0,4.000000,0.000000,25.092186,0,0,0,0,0,0,0
0,9999,50,0,50,0,1,9999,0.100000,0,0,0.000000,0,8.000000,0.000000,21.753123,0,0,0,0,0,0,0
0,9999,51,0,51,0,1,9999,0.100000,0,0,0.000000,0,7.000000,0.000000,9.495208,0,0,0,0,0,0,0
0,9999,52,0,52,0,1,9999,0.100000,0,0,0.000000,0,9.000000,0.000000,14.086231,0,0,0,0,0,0,0
0,9999,53,0,53,0,1,9999,0.100000,0,0,0.000000,0,10.000000,0.000000,19.149833,0,0,0,0,0,0,0
0,9999,54,0,54,0,1,9999,0.100000,0,0,0.000000,0,4.000000,0.000000,10.434817,0,0,0,0,0,0,0
0,9999,55,0,55,0,1,9999,0.100000,0,0,0.000000,0,4.000000,0.000000,7.040181,0,0,0,0,0,0,0
0,9999,56,0,56,0,1,9999,0.100000,0,0,0.000000,0,5.000000,0.000000,16.030718,0,0,0,0,0,0,0
0,9999,57,0,57,0,1,9999,0.100000,0,0,0.000000,0,8.000000,0.000000,20.137173,0,0,0,0,0,0,0
0,9999,58,0,58,0,3,9999,0.100000,0,0,80.200086,0,12.000000,0.000000,28.335904,0,0,1,0,0,0,0
0,9999,59,0,59,0,1,9999,0.100000,0,0,0.000000,0,2.000000,0.000000,4.594729,0,0,0,0,0,0,0
0,9999,60,0,60,0,1,9999,0.100000,0,0,0.000000,0,11.000000,0.000000,29.239085,0,0,0,0,0,0,0
0,9999,61,0,61,0,1,9999,0.100000,0,0,0.000000,0,6.000000,0.000000,11.426967,0,0,0,0,0,0,0
0,9999,62,0,62,0,1,9999,0.100000,0,0,0.000000,0,7.000000,0.000000,11.087566,0,0,0,0,0,0,0
0,9999,63,0,63,0,1,9999,0.100000,0,0,0.000000,0,5.000000,0.000000,12.811795,0,0,0,0,0,0,0
0,9999,64,0,64,0,1,9999,0.100000,0,0,0.000000,0,11.000000,0.000000,13.523474,0,0,0,0,0,0,0
0,9999,65,0,65,0,1,9999,0.100000,0,0,0.000000,0,1.000000,0.000000,7.532476,0,0,0,0,0,0,0
0,9999,66,0,66,0,1,9999,0.100000,0,0,0.000000,0,9.000000,0.000000,15.734044,0,0,0,0,0,0,0
0,9999,67,0,67,0,1,9999,0.100000,0,0,0.000000,0,8.000000,0.000000,15.147051,0,0,0,0,0,0,0
0,9999,68,0,68,0,1,9999,0.100000,0,0,0.000000,0,8.000000,0.000000,15.221886,0,0,0,0,0,0,0
0,9999,69,0,69,0,1,9999,0.100000,0,0,0.000000,0,3.000000,0.000000,9.221513,0,0,0,0,0,0,0
0,9999,70,0,70,0,1,9999,0.100000,0,0,0.000000,0,3.000000,0.000000,4.782648,0,0,0,0,0,0,0
0,9999,71,0,71,0,1,9999,0.100000,0,0,0.000000,0,9.000000,0.000000,18.772981,0,0,0,0,0,0,0
0,9999,72,0,72,0,1,9999,0.100000,0,0,0.000000,0,7.000000,0.000000,22.289918,0,0,0,0,0,0,0
0,9999,73,0,73,0,1,9999,0.100000,0,0,0.000000,0,8.000000,0.000000,16.094855,0,0,0,0,0,0,0
0,9999,74,0,74,0,1,9999,0.100000,0,0,0.000000,0,7.000000,0.000000,11.102714,0,0,0,0,0,0,0
0,9999,75,0,75,0,1,9999,0.100000,0,0,0.000000,0,9.000000,0.000000,11.464008,0,0,0,0,0,0,0
0,9999,76,0,76,0,1,9999,0.100000,0,0,0.000000,0,6.000000,0.000000,10.117553,0,0,0,0,0,0,0
0,9999,77,0,77,0,1,9999,0.100000,0,0,0.000000,0,3.000000,0.000000,9.683829,0,0,0,0,0,0,0
0,9999,78,0,78,0,1,9999,0.100000,0,0,0.000000,0,9.000000,0.000000,10.757099,0,0,0,0,0,0,0
0,9999,79,0,79,0,1,9999,0.100000,0,0,0.000000,0,10.000000,0.000000,23.237347,0,0,0,0,0,0,0
0,9999,80,0,80,0,1,9999,0.100000,0,0,0.000000,0,8.000000,0.000000,18.748741,0,0,0,0,0,0,0
0,9999,81,0,81,0,1,9999,0.100000,0,0,0.000000,0,9.000000,0.000000,24.545310,0,0,0,0,0,0,0
0,9999,82,0,82,0,1,9999,0.100000,0,0,0.000000,0,4.000000,0.000000,11.675467,0,0,0,0,0,0,0
0,9999,83,0,83,0,1,9999,0.100000,0,0,0.000000,0,4.000000,0.000000,21.845959,0,0,0,0,0,0,0
0,9999,84,0,84,0,1,9999,0.100000,0,0,0.000000,0,8.000000,0.000000,15.482740,0,0,0,0,0,0,0
0,9999,85,0,85,0,1,9999,0.100000,0,0,0.000000,0,10.000000,0.000000,21.792021,0,0,0,0,0,0,0
0,9999,86,0,86,0,1,9999,0.100000,0,0,0.000000,0,5.000000,0.000000,18.974641,0,0,0,0,0,0,0
0,9999,87,0,87,0,1,9999,0.100000,0,0,0.000000,0,4.000000,0.000000,18.774185,0,0,0,0,0,0,0
0,9999,88,0,88,0,1,9999,0.100000,0,0,0.000000,0,6.000000,0.000000,7.396773,0,0,0,0,0,0,0
0,9999,89,0,89,0,1,9999,0.100000,0,0,0.000000,0,10.000000,0.000000,17.875012,0,0,0,0,0,0,0
0,9999,90,0,90,0,1,9999,0.100000,0,0,0.000000,0,3.000000,0.000000,14.466514,0,0,0,0,0,0,0
0,9999,91,0,91,0,1,9999,0.100000,0,0,0.000000,0,9.000000,0.000000,21.942547,0,0,0,0,0,0,0
0,9999,92,0,92,0,1,9999,0.100000,0,0,0.000000,0,12.000000,0.000000,24.841687,0,0,0,0,0,0,0
0,9999,93,0,93,0,1,9999,0.100000,0,0,0.000000,0,9.000000,0.000000,12.984462,0,0,0,0,0,0,0
0,9999,94,0,94,0,1,9999,0.100000,0,0,0.000000,0,6.000000,0.000000,7.298309,0,0,0,0,0,0,0
0,9999,95,0,95,0,1,9999,0.100000,0,0,0.000000,0,8.000000,0.000000,16.927119,0,0,0,0,0,0,0
0,9999,96,0,96,0,1,9999,0.100000,0,0,0.000000,0,2.000000,0.000000,11.049334,0,0,0,0,0,0,0
0,9999,97,0,97,0,1,9999,0.100000,0,0,0.000000,0,12.000000,0.000000,20.217424,0,0,0,0,0,0,0
0,9999,98,0,98,0,1,9999,0.100000,0,0,0.000000,0,9.000000,0.000000,20.681099,0,0,0,0,0,0,0
0,9999,99,0,99,0,1,9999,0.100000,0,0,0.000000,0,3.000000,0.000000,11.098836,0,0,0,0,0,0,0
1,19999,0,10000,0,0,0,9999,0.100000,0,0,0.000000,1,0.000000,0.000000,0.162237,0,0,0,0,0,0,0
1,19999,1,10000,1,0,1,9999,0.100000,0,0,0.000000,1,10.000000,0.000000,22.903766,0,0,0,0,0,0,0
1,19999,2,10000,2,0,1,9999,0.100000,0,0,0.000000,1,1.000000,0.000000,3.082876,0,0,0,0,0,0,0
1,19999,3,10000,0,0,1,9999,0.100000,0,0,0.000000,1,3.000000,0.000000,14.351048,0,0,0,0,0,0,0
1,19999,4,10000,0,0,1,9999,0.100000,0,0,0.000000,1,6.000000,0.000000,10.877273,0,0,0,0,0,0,0
1,19999,5,10000,0,0,1,9999,0.100000,0,0,0.000000,1,3.000000,0.000000,6.869639,0,0,0,0,0,0,0
1,19999,6,10000,1,0,1,9999,0.100000,0,0,0.000000,1,4.000000,0.000000,17.502267,0,0,0,0,0,0,0
1,19999,7,10000,0,0,0,9999,0.100000,0,0,0.000000,1,0.000000,0.000000,0.543100,0,0,0,0,0,0,0
1,19999,8,10000,0,0,3,9999,0.100000,0,0,70.652340,1,12.000000,0.000000,21.772879,0,0,1,0,0,0,0
1,19999,9,10000,0,0,1,9999,0.100000,0,0,0.000000,1,7.000000,0.000000,8.070381,0,0,0,0,0,0,0
1,19999,10,10000,0,0,1,9999,0.100000,0,0,0.000000,2,5.000000,0.000000,13.466201,0,0,0,0,0,0,0
1,19999,11,10000,0,0,1,9999,0.100000,0,0,0.000000,1,1.000000,0.000000,2.659355,0,0,0,0,0,0,0
1,19999,12,10000,0,0,1,9999,0.100000,0,0,0.000000,1,3.000000,0.000000,16.286747,0,0,0,0,0,0,0
1,19999,13,10000,0,0,1,9999,0.100000,0,0,0.000000,2,2.000000,0.000000,2.684795,0,0,0,0,0,0,0
1,19999,14,10000,0,0,1,9999,0.100000,0,0,0.000000,1,1.000000,0.000000,3.023363,0,0,0,0,0,0,0
1,19999,15,10000,0,0,0,9999,0.100000,0,0,0.000000,1,0.000000,0.000000,2.903868,0,0,0,0,0,0,0
1,19999,16,10000,0,0,1,9999,0.100000,0,0,0.000000,1,6.000000,0.000000,14.882767,0,0,0,0,0,0,0
1,19999,17,10000,0,0,1,9999,0.100000,0,0,0.000000,1,4.000000,0.000000,8.386854,0,0,0,0,0,0,0
1,19999,18,10000,0,0,1,9999,0.100000,0,0,0.000000,1,3.000000,0.000000,14.092453,0,0,0,0,0,0,0
1,19999,19,10000,0,0,1,9999,0.100000,0,0,0.000000,1,1.000000,0.000000,1.769601,0,0,0,0,0,0,0
1,19999,20,10000,0,0,1,9999,0.100000,0,0,0.000000,1,1.000000,0.000000,7.651831,0,0,0,0,0,0,0
1,19999,21,10000,0,0,1,9999,0.100000,0,0,0.000000,1,6.000000,0.000000,13.053125,0,0,0,0,0,0,0
1,19999,22,10000,58,0,1,9999,0.100000,0,0,0.000000,2,4.000000,0.000000,15.727370,0,0,0,0,0,0,0
1,19999,23,10000,0,0,1,9999,0.100000,0,0,0.000000,1,5.000000,0.000000,13.821709,0,0,0,0,0,0,0
1,19999,24,10000,58,0,0,9999,0.100000,0,0,0.000000,2,0.000000,0.000000,0.684442,0,0,0,0,0,0,0
1,19999,25,10000,2,0,1,9999,0.100000,0,0,0.000000,1,4.000000,0.000000,12.078242,0,0,0,0,0,0,0
1,19999,26,10000,58,0,1,9999,0.100000,0,0,0.000000,2,2.000000,0.000000,3.229593,0,0,0,0,0,0,0
1,19999,27,10000,0,0,0,9999,0.100000,0,0,0.000000,1,0.000000,0.000000,1.437251,0,0,0,0,0,0,0
1,19999,28,10000,0,0,1,9999,0.100000,0,0,0.000000,1,3.000000,0.000000,12.994818,0,0,0,0,0,0,0
1,19999,29,10000,0,0,1,9999,0.100000,0,0,0.000000,1,3.000000,0.000000,14.804100,0,0,0,0,0,0,0
1,19999,30,10000,0,0,0,9999,0.100000,0,0,0.000000,1,0.000000,0.000000,8.505745,0,0,0,0,0,0,0
1,19999,31,10000,0,0,1,9999,0.100000,0,0,0.000000,1,1.000000,0.000000,2.719269,0,0,0,0,0,0,0
1,19999,32,10000,0,0,0,9999,0.100000,0,0,0.000000,1,0.000000,0.000000,3.099539,0,0,0,0,0,0,0
1,19999,33,10000,0,0,1,9999,0.100000,0,0,0.000000,1,1.000000,0.000000,12.904331,0,0,0,0,0,0,0
1,19999,34,10000,0,0,0,9999,0.100000,0,0,0.000000,1,0.000000,0.000000,0.176690,0,0,0,0,0,0,0
1,19999,35,10000,0,0,0,9999,0.100000,0,0,0.000000,1,0.000000,0.000000,1.277386,0,0,0,0,0,0,0
1,19999,36,10000,0,0,1,9999,0.100000,0,0,0.000000,1,5.000000,0.000000,10.030984,0,0,0,0,0,0,0
1,19999,37,10000,0,0,0,9999,0.100000,0,0,0.000000,2,0.000000,0.000000,3.115150,0,0,0,0,0,0,0
1,19999,38,10000,0,0,1,9999,0.100000,0,0,0.000000,1,1.000000,0.000000,8.570891,0,0,0,0,0,0,0
1,19999,39,10000,0,0,1,9999,0.100000,0,0,0.000000,1,1.000000,0.000000,8.828137,0,0,0,0,0,0,0
1,19999,40,10000,0,0,1,9999,0.100000,0,0,0.000000,2,4.000000,0.000000,6.064531,0,0,0,0,0,0,0
1,19999,41,10000,0,0,0,9999,0.100000,0,0,0.000000,1,0.000000,0.000000,5.994643,0,0,0,0,0,0,0
1,19999,42,10000,0,0,1,9999,0.100000,0,0,0.000000,1,2.000000,0.000000,12.759640,0,0,0,0,0,0,0
1,19999,43,10000,0,0,0,9999,0.100000,0,0,0.000000,1,0.000000,0.000000,0.305859,0,0,0,0,0,0,0
1,19999,44,10000,0,0,1,9999,0.100000,0,0,0.000000,2,5.000000,0.000000,12.036936,0,0,0,0,0,0,0
1,19999,45,10000,58,0,1,9999,0.100000,0,0,0.000000,2,5.000000,0.000000,11.207309,0,0,0,0,0,0,0
1,19999,46,10000,0,0,1,9999,0.100000,0,0,0.000000,1,2.000000,0.000000,4.004803,0,0,0,0,0,0,0
1,19999,47,10000,58,0,1,9999,0.100000,0,0,0.000000,2,3.000000,0.000000,12.999460,0,0,0,0,0,0,0
1,19999,48,10000,0,0,0,9999,0.100000,0,0,0.000000,1,0.000000,0.000000,0.588546,0,0,0,0,0,0,0
1,19999,49,10000,0,0,1,9999,0.100000,0,0,0.000000,1,2.000000,0.000000,12.884448,0,0,0,0,0,0,0
1,19999,50,10000,0,0,1,9999,0.100000,0,0,0.000000,1,4.000000,0.000000,15.313265,0,0,0,0,0,0,0
1,19999,51,10000,0,0,1,9999,0.100000,0,0,0.000000,1,6.000000,0.000000,7.297859,0,0,0,0,0,0,0
1,19999,52,10000,0,0,0,9999,0.100000,0,0,0.000000,1,0.000000,0.000000,1.322754,0,0,0,0,0,0,0
1,19999,53,10000,0,0,0,9999,0.100000,0,0,0.000000,1,0.000000,0.000000,13.184922,0,0,0,0,0,0,0
1,19999,54,10000,0,0,3,9999,0.100000,0,0,58.467165,2,9.000000,0.000000,17.927046,0,0,1,0,0,0,0
1,19999,55,10000,0,0,1,9999,0.100000,0,0,0.000000,1,2.000000,0.000000,10.270948,0,0,0,0,0,0,0
1,19999,56,10000,0,0,1,9999,0.100000,0,0,0.000000,1,3.000000,0.000000,10.422572,0,0,0,0,0,0,0
1,19999,57,10000,0,0,1,9999,0.100000,0,0,0.000000,1,4.000000,0.000000,13.796534,0,0,0,0,0,0,0
1,19999,58,10000,58,0,3,9999,0.100000,0,0,20.500744,2,6.000000,0.000000,14.508530,0,0,1,0,0,0,0
1,19999,59,10000,0,0,0,9999,0.100000,0,0,0.000000,1,0.000000,0.000000,0.208458,0,0,0,0,0,0,0
1,19999,60,10000,0,0,1,9999,0.100000,0,0,0.000000,2,1.000000,0.000000,2.508431,0,0,0,0,0,0,0
1,19999,61,10000,0,0,0,9999,0.100000,0,0,0.000000,2,0.000000,0.000000,2.476144,0,0,0,0,0,0,0
1,19999,62,10000,0,0,1,9999,0.100000,0,0,0.000000,2,6.000000,0.000000,7.618994,0,0,0,0,0,0,0
1,19999,63,10000,0,0,0,9999,0.100000,0,0,0.000000,1,0.000000,0.000000,1.009098,0,0,0,0,0,0,0
1,19999,64,10000,0,0,0,9999,0.100000,0,0,0.000000,1,0.000000,0.000000,1.166549,0,0,0,0,0,0,0
1,19999,65,10000,0,0,1,9999,0.100000,0,0,0.000000,2,1.000000,0.000000,11.545147,0,0,0,0,0,0,0
1,19999,66,10000,58,0,1,9999,0.100000,0,0,0.000000,2,1.000000,0.000000,9.860715,0,0,0,0,0,0,0
1,19999,67,10000,0,0,0,9999,0.100000,0,0,0.000000,1,0.000000,0.000000,3.435786,0,0,0,0,0,0,0
1,19999,68,10000,0,0,1,9999,0.100000,0,0,0.000000,1,2.000000,0.000000,4.312241,0,0,0,0,0,0,0
1,19999,69,10000,0,0,1,9999,0.100000,0,0,0.000000,1,2.000000,0.000000,13.143137,0,0,0,0,0,0,0
1,19999,70,10000,0,0,0,9999,0.100000,0,0,0.000000,1,0.000000,0.000000,0.641708,0,0,0,0,0,0,0
1,19999,71,10000,0,0,0,9999,0.100000,0,0,0.000000,1,0.000000,0.000000,1.750518,0,0,0,0,0,0,0
1,19999,72,10000,0,0,1,9999,0.100000,0,0,0.000000,1,2.000000,0.000000,10.091209,0,0,0,0,0,0,0
1,19999,73,10000,0,0,1,9999,0.100000,0,0,0.000000,2,4.000000,0.000000,13.717228,0,0,0,0,0,0,0
1,19999,74,10000,0,0,0,9999,0.100000,0,0,0.000000,1,0.000000,0.000000,0.827053,0,0,0,0,0,0,0
1,19999,75,10000,0,0,0,9999,0.100000,0,0,0.000000,1,0.000000,0.000000,0.975193,0,0,0,0,0,0,0
1,19999,76,10000,0,0,1,9999,0.100000,0,0,0.000000,2,3.000000,0.000000,12.308418,0,0,0,0,0,0,0
1,19999,77,10000,0,0,1,9999,0.100000,0,0,0.000000,1,2.000000,0.000000,12.562890,0,0,0,0,0,0,0
1,19999,78,10000,58,0,0,9999,0.100000,0,0,0.000000,2,0.000000,0.000000,3.469810,0,0,0,0,0,0,0
1,19999,79,10000,0,0,1,9999,0.100000,0,0,0.000000,1,2.000000,0.000000,4.508888,0,0,0,0,0,0,0
1,19999,80,10000,0,0,1,9999,0.100000,0,0,0.000000,1,1.000000,0.000000,2.491937,0,0,0,0,0,0,0
1,19999,81,10000,0,0,1,9999,0.100000,0,0,0.000000,1,1.000000,0.000000,6.475394,0,0,0,0,0,0,0
1,19999,82,10000,0,0,1,9999,0.100000,0,0,0.000000,1,1.000000,0.000000,11.856540,0,0,0,0,0,0,0
1,19999,83,10000,0,0,1,9999,0.100000,0,0,0.000000,2,1.000000,0.000000,22.738411,0,0,0,0,0,0,0
1,19999,84,10000,0,0,1,9999,0.100000,0,0,0.000000,2,1.000000,0.000000,3.694357,0,0,0,0,0,0,0
1,19999,85,10000,0,0,0,9999,0.100000,0,0,0.000000,2,0.000000,0.000000,2.485613,0,0,0,0,0,0,0
1,19999,86,10000,0,0,1,9999,0.100000,0,0,0.000000,1,2.000000,0.000000,7.691613,0,0,0,0,0,0,0
1,19999,87,10000,0,0,1,9999,0.100000,0,0,0.000000,1,1.000000,0.000000,17.557226,0,0,0,0,0,0,0
1,19999,88,10000,0,0,0,9999,0.100000,0,0,0.000000,2,0.000000,0.000000,0.199161,0,0,0,0,0,0,0
1,19999,89,10000,0,0,0,9999,0.100000,0,0,0.000000,1,0.000000,0.000000,4.035283,0,0,0,0,0,0,0
1,19999,90,10000,0,0,3,9999,0.100000,0,0,36.654861,2,6.000000,0.000000,17.666088,0,0,1,0,0,0,0
1,19999,91,10000,0,0,1,9999,0.100000,0,0,0.000000,2,1.000000,0.000000,13.793609,0,0,0,0,0,0,0
1,19999,92,10000,0,0,1,9999,0.100000,0,0,0.000000,2,2.000000,0.000000,13.505731,0,0,0,0,0,0,0
1,19999,93,10000,0,0,1,9999,0.100000,0,0,0.000000,1,3.000000,0.000000,13.976794,0,0,0,0,0,0,0
1,19999,94,10000,58,0,0,9999,0.100000,0,0,0.000000,2,0.000000,0.000000,0.126975,0,0,0,0,0,0,0
1,19999,95,10000,58,0,1,9999,0.100000,0,0,0.000000,2,1.000000,0.000000,4.543533,0,0,0,0,0,0,0
1,19999,96,10000,0,0,1,9999,0.100000,0,0,0.000000,2,2.000000,0.000000,15.228031,0,0,0,0,0,0,0
1,19999,97,10000,0,0,1,9999,0.100000,0,0,0.000000,2,1.000000,0.000000,7.032726,0,0,0,0,0,0,0
1,19999,98,10000,58,0,1,9999,0.100000,0,0,0.000000,2,3.000000,0.000000,6.983838,0,0,0,0,0,0,0
1,19999,99,10000,0,0,1,9999,0.100000,0,0,0.000000,1,1.000000,0.000000,13.930107,0,0,0,0,0,0,0
2,29999,0,20000,75,10000,0,9999,0.100000,0,0,0.000000,3,0.000000,0.000000,0.187762,0,0,0,0,0,0,0
2,29999,1,20000,0,0,1,9999,0.100000,0,0,0.000000,3,2.000000,0.000000,13.254543,0,0,0,0,0,0,0
2,29999,2,20000,0,0,0,9999,0.100000,0,0,0.000000,2,0.000000,0.000000,0.918224,0,0,0,0,0,0,0
2,29999,3,20000,75,10000,1,9999,0.100000,0,0,0.000000,3,5.000000,0.000000,8.733515,0,0,0,0,0,0,0
2,29999,4,20000,0,0,1,9999,0.100000,0,0,0.000000,2,1.000000,0.000000,22.469380,0,0,0,0,0,0,0
2,29999,5,20000,0,0,1,9999,0.100000,0,0,0.000000,3,4.000000,0.000000,4.853299,0,0,0,0,0,0,0
2,29999,6,20000,58,0,1,9999,0.100000,0,0,34.210526,2,1.000000,0.000000,9.652781,0,0,0,1,0,0,0
2,29999,7,20000,58,0,0,9999,0.100000,0,0,0.000000,3,0.000000,0.000000,0.371422,0,0,0,0,0,0,0
2,29999,8,20000,0,0,1,9999,0.100000,0,0,0.000000,2,5.000000,0.000000,12.340338,0,0,0,0,0,0,0
2,29999,9,20000,0,0,0,9999,0.100000,0,0,0.000000,2,0.000000,0.000000,2.510400,0,0,0,0,0,0,0
2,29999,10,20000,58,0,0,9999,0.100000,0,0,0.000000,3,0.000000,0.000000,1.965028,0,0,0,0,0,0,0
2,29999,11,20000,43,10000,1,9999,0.100000,0,0,0.000000,3,6.000000,0.000000,15.450116,0,0,0,0,0,0,0
2,29999,12,20000,58,0,1,9999,0.100000,0,0,0.000000,2,1.000000,0.000000,5.429461,0,0,0,0,0,0,0
2,29999,13,20000,0,0,0,9999,0.100000,0,0,0.000000,3,0.000000,0.000000,0.267261,0,0,0,0,0,0,0
2,29999,14,20000,0,0,0,9999,0.100000,0,0,0.000000,3,0.000000,0.000000,1.126898,0,0,0,0,0,0,0
2,29999,15,20000,75,10000,1,9999,0.100000,0,0,0.000000,3,1.000000,0.000000,1.948500,0,0,0,0,0,0,0
2,29999,16,20000,75,10000,1,9999,0.100000,0,0,0.000000,3,2.000000,0.000000,5.802950,0,0,0,0,0,0,0
2,29999,17,20000,58,0,1,9999,0.100000,0,0,0.000000,2,1.000000,0.000000,2.183611,0,0,0,0,0,0,0
2,29999,18,20000,75,10000,0,9999,0.100000,0,0,0.000000,3,0.000000,0.000000,2.273598,0,0,0,0,0,0,0
2,29999,19,20000,58,0,0,9999,0.100000,0,0,0.000000,2,0.000000,0.000000,1.209938,0,0,0,0,0,0,0
2,29999,20,20000,0,0,0,9999,0.100000,0,0,0.000000,3,0.000000,0.000000,0.983373,0,0,0,0,0,0,0
2,29999,21,20000,58,0,1,9999,0.100000,0,0,0.000000,2,5.000000,0.000000,16.815138,0,0,0,0,0,0,0
2,29999,22,20000,58,0,1,9999,0.100000,0,0,0.000000,2,3.000000,0.000000,14.338405,0,0,0,0,0,0,0
2,29999,23,20000,0,0,1,9999,0.100000,0,0,0.000000,3,1.000000,0.000000,3.134656,0,0,0,0,0,0,0
2,29999,24,20000,0,0,0,9999,0.100000,0,0,0.000000,3,0.000000,0.000000,0.669739,0,0,0,0,0,0,0
2,29999,25,20000,58,0,1,9999,0.100000,0,0,0.000000,3,2.000000,0.000000,2.508598,0,0,0,0,0,0,0
2,29999,26,20000,58,0,1,9999,0.100000,0,0,0.000000,3,5.000000,0.000000,8.791628,0,0,0,0,0,0,0
2,29999,27,20000,0,0,0,9999,0.100000,0,0,0.000000,3,0.000000,0.000000,0.249450,0,0,0,0,0,0,0
2,29999,28,20000,58,0,1,9999,0.100000,0,0,0.000000,2,1.000000,0.000000,3.894650,0,0,0,0,0,0,0
2,29999,29,20000,58,0,1,9999,0.100000,0,0,0.000000,3,1.000000,0.000000,9.797321,0,0,0,0,0,0,0
2,29999,30,20000,58,0,1,9999,0.100000,0,0,0.000000,3,2.000000,0.000000,6.853065,0,0,0,0,0,0,0
2,29999,31,20000,75,10000,1,9999,0.100000,0,0,0.000000,3,1.000000,0.000000,5.042978,0,0,0,0,0,0,0
2,29999,32,20000,0,0,1,9999,0.100000,0,0,0.000000,3,11.000000,0.000000,14.030044,0,0,0,0,0,0,0
2,29999,33,20000,0,0,0,9999,0.100000,0,0,0.000000,3,0.000000,0.000000,6.644870,0,0,0,0,0,0,0
2,29999,34,20000,75,10000,0,9999,0.100000,0,0,0.000000,3,0.000000,0.000000,0.629800,0,0,0,0,0,0,0
2,29999,35,20000,75,10000,0,9999,0.100000,0,0,0.000000,3,0.000000,0.000000,0.575807,0,0,0,0,0,0,0
2,29999,36,20000,0,0,1,9999,0.100000,0,0,0.000000,2,1.000000,0.000000,6.551888,0,0,0,0,0,0,0
2,29999,37,20000,0,0,0,9999,0.100000,0,0,0.000000,3,0.000000,0.000000,0.971079,0,0,0,0,0,0,0
2,29999,38,20000,75,10000,1,9999,0.100000,0,0,0.000000,3,1.000000,0.000000,12.199481,0,0,0,0,0,0,0
2,29999,39,20000,75,10000,1,9999,0.100000,0,0,0.000000,3,2.000000,0.000000,19.244746,0,0,0,0,0,0,0
2,29999,40,20000,58,0,1,9999,0.100000,0,0,0.000000,3,4.000000,0.000000,10.470638,0,0,0,0,0,0,0
2,29999,41,20000,75,10000,1,9999,0.100000,0,0,0.000000,3,6.000000,0.000000,10.473963,0,0,0,0,0,0,0
2,29999,42,20000,58,0,0,9999,0.100000,0,0,0.000000,3,0.000000,0.000000,1.180939,0,0,0,0,0,0,0
2,29999,43,20000,0,0,0,9999,0.100000,0,0,0.000000,3,0.000000,0.000000,0.430033,0,0,0,0,0,0,0
2,29999,44,20000,75,10000,1,9999,0.100000,0,0,0.000000,3,3.000000,0.000000,10.756342,0,0,0,0,0,0,0
2,29999,45,20000,0,0,1,9999,0.100000,0,0,0.000000,3,4.000000,0.000000,15.439909,0,0,0,0,0,0,0
2,29999,46,20000,0,0,1,9999,0.100000,0,0,34.210526,3,2.000000,0.000000,11.568876,0,0,0,1,0,0,0
2,29999,47,20000,58,0,1,9999,0.100000,0,0,0.000000,3,1.000000,0.000000,11.020584,0,0,0,0,0,0,0
2,29999,48,20000,75,10000,0,9999,0.100000,0,0,0.000000,3,0.000000,0.000000,0.520930,0,0,0,0,0,0,0
2,29999,49,20000,0,0,1,9999,0.100000,0,0,0.000000,3,2.000000,0.000000,15.631460,0,0,0,0,0,0,0
2,29999,50,20000,58,0,1,9999,0.100000,0,0,0.000000,2,4.000000,0.000000,13.199357,0,0,0,0,0,0,0
2,29999,51,20000,58,0,0,9999,0.100000,0,0,0.000000,3,0.000000,0.000000,1.426526,0,0,0,0,0,0,0
2,29999,52,20000,75,10000,1,9999,0.100000,0,0,0.000000,3,2.000000,0.000000,4.858416,0,0,0,0,0,0,0
2,29999,53,20000,75,10000,1,9999,0.100000,0,0,0.000000,3,1.000000,0.000000,11.772958,0,0,0,0,0,0,0
2,29999,54,20000,75,10000,1,9999,0.100000,0,0,0.000000,3,1.000000,0.000000,2.569337,0,0,0,0,0,0,0
2,29999,55,20000,58,0,1,9999,0.100000,0,0,0.000000,3,3.000000,0.000000,9.593163,0,0,0,0,0,0,0
2,29999,56,20000,0,0,0,9999,0.100000,0,0,0.000000,3,0.000000,0.000000,1.306985,0,0,0,0,0,0,0
2,29999,57,20000,0,0,0,9999,0.100000,0,0,0.000000,3,0.000000,0.000000,6.753217,0,0,0,0,0,0,0
2,29999,58,20000,58,0,1,9999,0.100000,0,0,0.000000,3,4.000000,0.000000,13.359833,0,0,0,0,0,0,0
2,29999,59,20000,75,10000,0,9999,0.100000,0,0,0.000000,3,0.000000,0.000000,0.607546,0,0,0,0,0,0,0
2,29999,60,20000,75,10000,0,9999,0.100000,0,0,0.000000,3,0.000000,0.000000,1.951347,0,0,0,0,0,0,0
2,29999,61,20000,43,10000,0,9999,0.100000,0,0,0.000000,3,0.000000,0.000000,2.207543,0,0,0,0,0,0,0
2,29999,62,20000,0,0,0,9999,0.100000,0,0,0.000000,3,0.000000,0.000000,1.267657,0,0,0,0,0,0,0
2,29999,63,20000,75,10000,1,9999,0.100000,0,0,0.000000,3,1.000000,0.000000,1.456533,0,0,0,0,0,0,0
2,29999,64,20000,58,0,1,9999,0.065000,0,0,0.000000,3,1.000000,0.000000,4.644086,0,0,0,0,0,0,0
2,29999,65,20000,58,0,1,9999,0.100000,0,0,0.000000,3,2.000000,0.000000,12.688593,0,0,0,0,0,0,0
2,29999,66,20000,75,10000,1,9999,0.100000,0,0,0.000000,3,1.000000,0.000000,2.219971,0,0,0,0,0,0,0
2,29999,67,20000,75,10000,0,9999,0.100000,0,0,0.000000,3,0.000000,0.000000,0.626116,0,0,0,0,0,0,0
2,29999,68,20000,58,0,1,9999,0.100000,0,0,0.000000,3,2.000000,0.000000,5.306201,0,0,0,0,0,0,0
2,29999,69,20000,75,10000,1,9999,0.100000,0,0,0.000000,3,1.000000,0.000000,10.202896,0,0,0,0,0,0,0
2,29999,70,20000,75,10000,1,9999,0.100000,0,0,0.000000,3,1.000000,0.000000,3.542836,0,0,0,0,0,0,0
2,29999,71,20000,58,0,0,9999,0.100000,0,0,0.000000,3,0.000000,0.000000,1.474014,0,0,0,0,0,0,0
2,29999,72,20000,58,0,1,9999,0.100000,0,0,0.000000,3,1.000000,0.000000,2.468973,0,0,0,0,0,0,0
2,29999,73,20000,0,0,1,9999,0.100000,0,0,0.000000,3,6.000000,0.000000,12.125247,0,0,0,0,0,0,0
2,29999,74,20000,58,0,0,9999,0.100000,0,0,0.000000,3,0.000000,0.000000,1.358939,0,0,0,0,0,0,0
2,29999,75,20000,0,0,1,9999,0.100000,0,0,0.000000,3,1.000000,0.000000,14.276466,0,0,0,0,0,0,0
2,29999,76,20000,75,10000,1,9999,0.100000,0,0,0.000000,3,6.000000,0.000000,13.905188,0,0,0,0,0,0,0
2,29999,77,20000,58,0,1,9999,0.100000,0,0,0.000000,3,2.000000,0.000000,13.792459,0,0,0,0,0,0,0
2,29999,78,20000,75,10000,0,9999,0.100000,0,0,0.000000,3,0.000000,0.000000,1.331494,0,0,0,0,0,0,0
2,29999,79,20000,0,0,1,9999,0.100000,0,0,0.000000,3,5.000000,0.000000,7.563784,0,0,0,0,0,0,0
2,29999,80,20000,75,10000,0,9999,0.100000,0,0,0.000000,3,0.000000,0.000000,3.665641,0,0,0,0,0,0,0
2,29999,81,20000,58,0,0,9999,0.100000,0,0,0.000000,3,0.000000,0.000000,0.875111,0,0,0,0,0,0,0
2,29999,82,20000,75,10000,0,9999,0.100000,0,0,0.000000,3,0.000000,0.000000,1.021377,0,0,0,0,0,0,0
2,29999,83,20000,75,10000,1,9999,0.100000,0,0,0.000000,3,1.000000,0.000000,3.837060,0,0,0,0,0,0,0
2,29999,84,20000,75,10000,0,9999,0.100000,0,0,0.000000,3,0.000000,0.000000,2.957311,0,0,0,0,0,0,0
2,29999,85,20000,0,0,1,9999,0.100000,0,0,0.000000,3,1.000000,0.000000,7.598857,0,0,0,0,0,0,0
2,29999,86,20000,75,10000,0,9999,0.100000,0,0,0.000000,3,0.000000,0.000000,1.045028,0,0,0,0,0,0,0
2,29999,87,20000,58,0,1,9999,0.100000,0,0,0.000000,3,1.000000,0.000000,17.674037,0,0,0,0,0,0,0
2,29999,88,20000,58,0,0,9999,0.100000,0,0,0.000000,3,0.000000,0.000000,0.264361,0,0,0,0,0,0,0
2,29999,89,20000,0,0,0,9999,0.100000,0,0,0.000000,3,0.000000,0.000000,0.989367,0,0,0,0,0,0,0
2,29999,90,20000,0,0,1,9999,0.100000,0,0,0.000000,3,3.000000,0.000000,12.104760,0,0,0,0,0,0,0
2,29999,91,20000,58,0,1,9999,0.100000,0,0,0.000000,3,3.000000,0.000000,12.675697,0,0,0,0,0,0,0
2,29999,92,20000,0,0,1,9999,0.100000,0,0,0.000000,3,5.000000,0.000000,9.633562,0,0,0,0,0,0,0
2,29999,93,20000,0,0,0,9999,0.100000,0,0,0.000000,3,0.000000,0.000000,0.997076,0,0,0,0,0,0,0
2,29999,94,20000,0,0,0,9999,0.100000,0,0,0.000000,3,0.000000,0.000000,0.512384,0,0,0,0,0,0,0
2,29999,95,20000,58,0,3,9999,0.100000,0,0,72.437077,3,12.000000,0.000000,18.812586,0,0,1,0,0,0,0
2,29999,96,20000,75,10000,1,9999,0.100000,0,0,0.000000,3,2.000000,0.000000,5.864985,0,0,0,0,0,0,0
2,29999,97,20000,0,0,0,9999,0.100000,0,0,0.000000,3,0.000000,0.000000,1.022239,0,0,0,0,0,0,0
2,29999,98,20000,75,10000,1,9999,0.100000,0,0,0.000000,3,1.000000,0.000000,3.640732,0,0,0,0,0,0,0
2,29999,99,20000,0,0,1,9999,0.100000,0,0,0.000000,3,3.000000,0.000000,11.257496,0,0,0,0,0,0,0
3,39999,0,30000,0,0,0,9999,0.100000,0,0,0.000000,3,0.000000,0.000000,0.306485,0,0,0,0,0,0,0
3,39999,1,30000,0,0,1,9999,0.100000,0,0,0.000000,3,4.000000,0.000000,14.617597,0,0,0,0,0,0,0
3,39999,2,30000,0,0,0,9999,0.100000,0,0,0.000000,3,0.000000,0.000000,0.623229,0,0,0,0,0,0,0
3,39999,3,30000,58,0,1,9999,0.100000,0,0,0.000000,3,4.000000,0.000000,7.930644,0,0,0,0,0,0,0
3,39999,4,30000,58,0,1,9999,0.100000,0,0,0.000000,3,2.000000,0.000000,10.520654,0,0,0,0,0,0,0
3,39999,5,30000,0,20000,1,9999,0.100000,0,0,0.000000,3,2.000000,0.000000,5.463499,0,0,0,0,0,0,0
3,39999,6,30000,58,0,1,9999,0.100000,0,0,0.000000,3,2.000000,0.000000,16.765752,0,0,0,0,0,0,0
3,39999,7,30000,0,0,0,9999,0.100000,0,0,0.000000,3,0.000000,0.000000,0.431155,0,0,0,0,0,0,0
3,39999,8,30000,0,20000,1,9999,0.100000,0,0,0.000000,3,3.000000,0.000000,6.130488,0,0,0,0,0,0,0
3,39999,9,30000,0,20000,0,9999,0.100000,0,0,0.000000,3,0.000000,0.000000,0.475052,0,0,0,0,0,0,0
3,39999,10,30000,0,0,1,9999,0.100000,0,0,0.000000,3,1.000000,0.000000,4.284877,0,0,0,0,0,0,0
3,39999,11,30000,0,0,0,9999,0.100000,0,0,0.000000,3,0.000000,0.000000,15.292910,0,0,0,0,0,0,0
3,39999,12,30000,0,0,0,9999,0.100000,0,0,0.000000,3,0.000000,0.000000,0.924216,0,0,0,0,0,0,0
3,39999,13,30000,58,0,0,9999,0.100000,0,0,0.000000,3,0.000000,0.000000,0.237504,0,0,0,0,0,0,0
3,39999,14,30000,0,20000,0,9999,0.100000,0,0,0.000000,3,0.000000,0.000000,0.382652,0,0,0,0,0,0,0
3,39999,15,30000,0,0,0,9999,0.100000,0,0,0.000000,3,0.000000,0.000000,1.385796,0,0,0,0,0,0,0
3,39999,16,30000,58,0,1,9999,0.100000,0,0,0.000000,3,2.000000,0.000000,5.726872,0,0,0,0,0,0,0
3,39999,17,30000,58,0,0,9999,0.100000,0,0,0.000000,3,0.000000,0.000000,0.907435,0,0,0,0,0,0,0
3,39999,18,30000,58,0,1,9999,0.100000,0,0,0.000000,3,1.000000,0.000000,5.324998,0,0,0,0,0,0,0
3,39999,19,30000,0,20000,0,9999,0.100000,0,0,0.000000,3,0.000000,0.000000,0.821498,0,0,0,0,0,0,0
3,39999,20,30000,58,0,1,9999,0.100000,0,0,0.000000,3,3.000000,0.000000,17.691957,0,0,0,0,0,0,0
3,39999,21,30000,0,0,0,9999,0.100000,0,0,0.000000,3,0.000000,0.000000,1.036075,0,0,0,0,0,0,0
3,39999,22,30000,0,0,1,9999,0.100000,0,0,0.000000,3,1.000000,0.000000,14.677599,0,0,0,0,0,0,0
3,39999,23,30000,0,0,0,9999,0.100000,0,0,0.000000,3,0.000000,0.000000,0.743221,0,0,0,0,0,0,0
3,39999,24,30000,0,0,0,9999,0.100000,0,0,0.000000,3,0.000000,0.000000,0.586726,0,0,0,0,0,0,0
3,39999,25,30000,0,0,0,9999,0.100000,0,0,0.000000,3,0.000000,0.000000,0.555755,0,0,0,0,0,0,0
3,39999,26,30000,58,0,0,9999,0.100000,0,0,0.000000,3,0.000000,0.000000,1.150050,0,0,0,0,0,0,0
3,39999,27,30000,0,0,0,9999,0.100000,0,0,0.000000,3,0.000000,0.000000,0.220071,0,0,0,0,0,0,0
3,39999,28,30000,0,20000,0,9999,0.100000,0,0,0.000000,3,0.000000,0.000000,0.679530,0,0,0,0,0,0,0
3,39999,29,30000,0,0,0,9999,0.100000,0,0,0.000000,3,0.000000,0.000000,0.599725,0,0,0,0,0,0,0
3,39999,30,30000,0,0,1,9999,0.100000,0,0,0.000000,3,5.000000,0.000000,12.110958,0,0,0,0,0,0,0
3,39999,31,30000,58,0,0,9999,0.100000,0,0,0.000000,3,0.000000,0.000000,0.553803,0,0,0,0,0,0,0
3,39999,32,30000,0,0,0,9999,0.100000,0,0,0.000000,3,0.000000,0.000000,2.253687,0,0,0,0,0,0,0
3,39999,33,30000,58,0,1,9999,0.100000,0,0,0.000000,3,6.000000,0.000000,17.754354,0,0,0,0,0,0,0
3,39999,34,30000,0,0,1,9999,0.100000,0,0,0.000000,3,1.000000,0.000000,1.454962,0,0,0,0,0,0,0
3,39999,35,30000,0,20000,0,9999,0.100000,0,0,0.000000,3,0.000000,0.000000,0.608686,0,0,0,0,0,0,0
3,39999,36,30000,58,0,1,9999,0.100000,0,0,0.000000,3,1.000000,0.000000,4.303317,0,0,0,0,0,0,0
3,39999,37,30000,0,20000,0,9999,0.100000,0,0,0.000000,3,0.000000,0.000000,0.920599,0,0,0,0,0,0,0
3,39999,38,30000,0,0,1,9999,0.100000,0,0,0.000000,3,7.000000,0.000000,20.552132,0,0,0,0,0,0,0
3,39999,39,30000,0,20000,0,9999,0.100000,0,0,0.000000,3,0.000000,0.000000,8.088080,0,0,0,0,0,0,0
3,39999,40,30000,58,0,1,9999,0.100000,0,0,0.000000,3,5.000000,0.000000,13.054421,0,0,0,0,0,0,0
3,39999,41,30000,58,0,0,9999,0.100000,0,0,0.000000,3,0.000000,0.000000,2.334151,0,0,0,0,0,0,0
3,39999,42,30000,0,0,0,9999,0.100000,0,0,0.000000,3,0.000000,0.000000,0.557810,0,0,0,0,0,0,0
3,39999,43,30000,0,0,0,9999,0.100000,0,0,0.000000,3,0.000000,0.000000,0.494996,0,0,0,0,0,0,0
3,39999,44,30000,0,20000,0,9999,0.100000,0,0,0.000000,3,0.000000,0.000000,1.024119,0,0,0,0,0,0,0
3,39999,45,30000,58,0,1,9999,0.100000,0,0,0.000000,3,11.000000,0.000000,14.540044,0,0,0,0,0,0,0
3,39999,46,30000,58,0,1,9999,0.100000,0,0,0.000000,3,5.000000,0.000000,15.884915,0,0,0,0,0,0,0
3,39999,47,30000,0,20000,1,9999,0.100000,0,0,0.000000,3,4.000000,0.000000,15.744255,0,0,0,0,0,0,0
3,39999,48,30000,0,0,0,9999,0.100000,0,0,0.000000,3,0.000000,0.000000,0.462397,0,0,0,0,0,0,0
3,39999,49,30000,0,0,3,9999,0.100000,0,0,60.777260,3,11.000000,0.000000,20.988982,0,0,1,0,0,0,0
3,39999,50,30000,58,0,1,9999,0.100000,0,0,0.000000,3,16.000000,0.000000,26.530235,0,0,0,0,0,0,0
3,39999,51,30000,0,0,0,9999,0.100000,0,0,0.000000,3,0.000000,0.000000,0.691218,0,0,0,0,0,0,0
3,39999,52,30000,0,0,1,9999,0.100000,0,0,0.000000,3,3.000000,0.000000,13.478359,0,0,0,0,0,0,0
3,39999,53,30000,0,0,1,9999,0.100000,0,0,0.000000,3,1.000000,0.000000,12.944124,0,0,0,0,0,0,0
3,39999,54,30000,58,0,0,9999,0.100000,0,0,0.000000,3,0.000000,0.000000,1.014541,0,0,0,0,0,0,0
3,39999,55,30000,0,20000,1,9999,0.100000,0,0,0.000000,3,3.000000,0.000000,13.936530,0,0,0,0,0,0,0
3,39999,56,30000,31,20000,1,9999,0.100000,0,0,0.000000,3,1.000000,0.000000,6.712023,0,0,0,0,0,0,0
3,39999,57,30000,0,0,0,9999,0.100000,0,0,0.000000,3,0.000000,0.000000,7.163148,0,0,0,0,0,0,0
3,39999,58,30000,58,0,1,9999,0.100000,0,0,0.000000,3,1.000000,0.000000,11.038866,0,0,0,0,0,0,0
3,39999,59,30000,58,0,0,9999,0.100000,0,0,0.000000,3,0.000000,0.000000,0.153913,0,0,0,0,0,0,0
3,39999,60,30000,0,20000,0,9999,0.100000,0,0,0.000000,3,0.000000,0.000000,0.426682,0,0,0,0,0,0,0
3,39999,61,30000,0,20000,1,9999,0.100000,0,0,0.000000,3,12.000000,0.000000,13.091107,0,0,0,0,0,0,0
3,39999,62,30000,58,0,0,9999,0.100000,0,0,0.000000,3,0.000000,0.000000,2.015266,0,0,0,0,0,0,0
3,39999,63,30000,58,0,0,9999,0.100000,0,0,0.000000,3,0.000000,0.000000,0.930789,0,0,0,0,0,0,0
3,39999,64,30000,31,20000,0,9999,0.100000,0,0,0.000000,3,0.000000,0.000000,0.516212,0,0,0,0,0,0,0
3,39999,65,30000,58,0,0,9999,0.100000,0,0,0.000000,3,0.000000,0.000000,6.670649,0,0,0,0,0,0,0
3,39999,66,30000,58,0,0,9999,0.100000,0,0,0.000000,3,0.000000,0.000000,0.009551,0,0,0,0,0,0,0
3,39999,67,30000,0,0,0,9999,0.100000,0,0,0.000000,3,0.000000,0.000000,0.375350,0,0,0,0,0,0,0
3,39999,68,30000,0,0,1,9999,0.100000,0,0,0.000000,3,4.000000,0.000000,14.079097,0,0,0,0,0,0,0
3,39999,69,30000,58,0,1,9999,0.100000,0,0,0.000000,3,3.000000,0.000000,17.083897,0,0,0,0,0,0,0
3,39999,70,30000,0,20000,0,9999,0.100000,0,0,0.000000,3,0.000000,0.000000,0.211604,0,0,0,0,0,0,0
3,39999,71,30000,0,0,1,9999,0.100000,0,0,0.000000,3,1.000000,0.000000,12.571086,0,0,0,0,0,0,0
3,39999,72,30000,0,0,0,9999,0.100000,0,0,0.000000,3,0.000000,0.000000,1.384564,0,0,0,0,0,0,0
3,39999,73,30000,58,0,3,9999,0.100000,0,0,46.732775,3,3.000000,0.000000,9.849216,0,0,2,0,0,0,0
3,39999,74,30000,0,20000,0,9999,0.100000,0,0,0.000000,3,0.000000,0.000000,0.564821,0,0,0,0,0,0,0
3,39999,75,30000,0,20000,0,9999,0.100000,0,0,0.000000,3,0.000000,0.000000,3.864199,0,0,0,0,0,0,0
3,39999,76,30000,0,20000,1,9999,0.100000,0,0,0.000000,3,2.000000,0.000000,6.506704,0,0,0,0,0,0,0
3,39999,77,30000,0,20000,1,9999,0.100000,0,0,0.000000,3,2.000000,0.000000,10.783929,0,0,0,0,0,0,0
3,39999,78,30000,58,0,0,9999,0.100000,0,0,0.000000,3,0.000000,0.000000,0.562989,0,0,0,0,0,0,0
3,39999,79,30000,58,0,0,9999,0.100000,0,0,0.000000,3,0.000000,0.000000,1.162135,0,0,0,0,0,0,0
3,39999,80,30000,0,20000,1,9999,0.100000,0,0,0.000000,3,4.000000,0.000000,7.354629,0,0,0,0,0,0,0
3,39999,81,30000,0,20000,0,9999,0.100000,0,0,0.000000,3,0.000000,0.000000,1.291217,0,0,0,0,0,0,0
3,39999,82,30000,0,0,0,9999,0.100000,0,0,0.000000,3,0.000000,0.000000,0.372988,0,0,0,0,0,0,0
3,39999,83,30000,0,20000,0,9999,0.100000,0,0,0.000000,3,0.000000,0.000000,0.147603,0,0,0,0,0,0,0
3,39999,84,30000,0,20000,0,9999,0.100000,0,0,0.000000,3,0.000000,0.000000,1.209439,0,0,0,0,0,0,0
3,39999,85,30000,58,0,0,9999,0.100000,0,0,0.000000,3,0.000000,0.000000,3.171829,0,0,0,0,0,0,0
3,39999,86,30000,0,0,0,9999,0.100000,0,0,0.000000,3,0.000000,0.000000,0.568249,0,0,0,0,0,0,0
3,39999,87,30000,0,20000,1,9999,0.100000,0,0,0.000000,3,5.000000,0.000000,16.673830,0,0,0,0,0,0,0
3,39999,88,30000,0,20000,0,9999,0.100000,0,0,0.000000,3,0.000000,0.000000,0.317500,0,0,0,0,0,0,0
3,39999,89,30000,0,20000,0,9999,0.100000,0,0,0.000000,3,0.000000,0.000000,1.488528,0,0,0,0,0,0,0
3,39999,90,30000,58,0,1,9999,0.100000,0,0,0.000000,3,4.000000,0.000000,12.052471,0,0,0,0,0,0,0
3,39999,91,30000,0,20000,1,9999,0.100000,0,0,0.000000,3,3.000000,0.000000,11.615993,0,0,0,0,0,0,0
3,39999,92,30000,0,0,1,9999,0.100000,0,0,0.000000,3,1.000000,0.000000,5.111400,0,0,0,0,0,0,0
3,39999,93,30000,0,20000,1,9999,0.100000,0,0,0.000000,3,1.000000,0.000000,1.546871,0,0,0,0,0,0,0
3,39999,94,30000,58,0,1,9999,0.100000,0,0,0.000000,3,13.000000,0.000000,13.641729,0,0,0,0,0,0,0
3,39999,95,30000,58,0,1,9999,0.100000,0,0,0.000000,3,1.000000,0.000000,11.113173,0,0,0,0,0,0,0
3,39999,96,30000,31,20000,1,9999,0.100000,0,0,0.000000,3,4.000000,0.000000,14.284604,0,0,0,0,0,0,0
3,39999,97,30000,58,0,0,9999,0.100000,0,0,0.000000,3,0.000000,0.000000,1.034119,0,0,0,0,0,0,0
3,39999,98,30000,0,20000,1,9999,0.100000,0,0,0.000000,3,3.000000,0.000000,4.554384,0,0,0,0,0,0,0
3,39999,99,30000,0,20000,1,9999,0.100000,0,0,0.000000,3,1.000000,0.000000,11.064300,0,0,0,0,0,0,0
4,49999,0,40000,58,0,0,9999,0.100000,0,0,0.000000,3,0.000000,0.000000,0.314585,0,0,0,0,0,0,0
4,49999,1,40000,31,20000,1,9999,0.100000,0,0,0.000000,3,2.000000,0.000000,8.722921,0,0,0,0,0,0,0
4,49999,2,40000,58,0,0,9999,0.100000,0,0,0.000000,3,0.000000,0.000000,0.517250,0,0,0,0,0,0,0
4,49999,3,40000,0,20000,0,9999,0.100000,0,0,0.000000,3,0.000000,0.000000,9.672783,0,0,0,0,0,0,0
4,49999,4,40000,58,0,3,9999,0.100000,0,0,67.802985,3,9.000000,0.000000,20.026259,0,0,1,0,0,0,0
4,49999,5,40000,58,0,1,9999,0.100000,0,0,0.000000,3,4.000000,0.000000,8.616934,0,0,0,0,0,0,0
4,49999,6,40000,0,20000,1,9999,0.100000,0,0,0.000000,3,2.000000,0.000000,5.032471,0,0,0,0,0,0,0
4,49999,7,40000,31,20000,0,9999,0.100000,0,0,0.000000,3,0.000000,0.000000,0.452135,0,0,0,0,0,0,0
4,49999,8,40000,58,0,0,9999,0.100000,0,0,0.000000,3,0.000000,0.000000,1.673412,0,0,0,0,0,0,0
4,49999,9,40000,31,20000,1,9999,0.100000,0,0,0.000000,3,1.000000,0.000000,11.156095,0,0,0,0,0,0,0
4,49999,10,40000,0,20000,0,9999,0.100000,0,0,0.000000,3,0.000000,0.000000,1.120330,0,0,0,0,0,0,0
4,49999,11,40000,58,0,0,9999,0.100000,0,0,0.000000,3,0.000000,0.000000,0.499282,0,0,0,0,0,0,0
4,49999,12,40000,58,0,0,9999,0.100000,0,0,0.000000,3,0.000000,0.000000,5.729157,0,0,0,0,0,0,0
4,49999,13,40000,31,20000,0,9999,0.100000,0,0,0.000000,3,0.000000,0.000000,0.222334,0,0,0,0,0,0,0
4,49999,14,40000,0,20000,1,9999,0.100000,0,0,34.210526,3,8.000000,0.000000,12.441307,0,0,0,0,0,0,1
4,49999,15,40000,58,0,0,9999,0.100000,0,0,0.000000,3,0.000000,0.000000,1.188585,0,0,0,0,0,0,0
4,49999,16,40000,58,0,1,9999,0.100000,0,0,0.000000,3,5.000000,0.000000,10.303668,0,0,0,0,0,0,0
4,49999,17,40000,58,0,0,9999,0.100000,0,0,0.000000,3,0.000000,0.000000,0.922918,0,0,0,0,0,0,0
4,49999,18,40000,58,0,1,9999,0.100000,0,0,0.000000,3,4.000000,0.000000,22.873885,0,0,0,0,0,0,0
4,49999,19,40000,0,20000,1,9999,0.100000,0,0,34.210526,3,8.000000,0.000000,12.093837,0,0,0,0,0,0,1
4,49999,20,40000,58,0,0,9999,0.100000,0,0,0.000000,3,0.000000,0.000000,14.159314,0,0,0,0,0,0,0
4,49999,21,40000,0,20000,0,9999,0.100000,0,0,0.000000,3,0.000000,0.000000,0.628580,0,0,0,0,0,0,0
4,49999,22,40000,0,20000,0,9999,0.100000,0,0,0.000000,3,0.000000,0.000000,10.964547,0,0,0,0,0,0,0
4,49999,23,40000,0,20000,0,9999,0.100000,0,0,0.000000,3,0.000000,0.000000,0.643743,0,0,0,0,0,0,0
4,49999,24,40000,31,20000,0,9999,0.100000,0,0,0.000000,3,0.000000,0.000000,0.955969,0,0,0,0,0,0,0
4,49999,25,40000,58,0,0,9999,0.100000,0,0,0.000000,3,0.000000,0.000000,0.950091,0,0,0,0,0,0,0
4,49999,26,40000,31,20000,0,9999,0.100000,0,0,0.000000,3,0.000000,0.000000,1.546031,0,0,0,0,0,0,0
4,49999,27,40000,0,20000,0,9999,0.100000,0,0,0.000000,3,0.000000,0.000000,0.731686,0,0,0,0,0,0,0
4,49999,28,40000,58,0,0,9999,0.100000,0,0,0.000000,3,0.000000,0.000000,0.525343,0,0,0,0,0,0,0
4,49999,29,40000,0,20000,0,9999,0.100000,0,0,0.000000,3,0.000000,0.000000,0.391318,0,0,0,0,0,0,0
4,49999,30,40000,31,20000,1,9999,0.100000,0,0,0.000000,3,2.000000,0.000000,7.837113,0,0,0,0,0,0,0
4,49999,31,40000,31,20000,0,9999,0.100000,0,0,0.000000,3,0.000000,0.000000,1.028212,0,0,0,0,0,0,0
4,49999,32,40000,58,0,0,9999,0.100000,0,0,0.000000,3,0.000000,0.000000,1.411563,0,0,0,0,0,0,0
4,49999,33,40000,31,20000,1,9999,0.100000,0,0,0.000000,3,4.000000,0.000000,10.916999,0,0,0,0,0,0,0
4,49999,34,40000,0,20000,0,9999,0.100000,0,0,0.000000,3,0.000000,0.000000,0.619475,0,0,0,0,0,0,0
4,49999,35,40000,31,20000,0,9999,0.100000,0,0,0.000000,3,0.000000,0.000000,1.239422,0,0,0,0,0,0,0
4,49999,36,40000,0,20000,0,9999,0.100000,0,0,0.000000,3,0.000000,0.000000,1.515101,0,0,0,0,0,0,0
4,49999,37,40000,0,20000,0,9999,0.100000,0,0,0.000000,3,0.000000,0.000000,0.910281,0,0,0,0,0,0,0
4,49999,38,40000,31,20000,1,9999,0.100000,0,0,0.000000,3,1.000000,0.000000,1.382154,0,0,0,0,0,0,0
4,49999,39,40000,0,20000,0,9999,0.100000,0,0,0.000000,3,0.000000,0.000000,5.918325,0,0,0,0,0,0,0
4,49999,40,40000,31,20000,3,9999,0.100000,0,0,34.210526,3,9.000000,0.000000,23.614782,0,0,1,0,0,0,0
4,49999,41,40000,58,0,0,9999,0.100000,0,0,0.000000,3,0.000000,0.000000,1.483090,0,0,0,0,0,0,0
4,49999,42,40000,0,20000,1,9999,0.100000,0,0,34.210526,3,8.000000,0.000000,14.371088,0,0,0,0,0,0,1
4,49999,43,40000,31,20000,0,9999,0.100000,0,0,0.000000,3,0.000000,0.000000,0.327558,0,0,0,0,0,0,0
4,49999,44,40000,0,20000,0,9999,0.100000,0,0,0.000000,3,0.000000,0.000000,0.983198,0,0,0,0,0,0,0
4,49999,45,40000,31,20000,1,9999,0.100000,0,0,0.000000,3,1.000000,0.000000,10.548984,0,0,0,0,0,0,0
4,49999,46,40000,0,20000,0,9999,0.100000,0,0,0.000000,3,0.000000,0.000000,0.118743,0,0,0,0,0,0,0
4,49999,47,40000,0,20000,1,9999,0.100000,0,0,0.000000,3,1.000000,0.000000,12.380821,0,0,0,0,0,0,0
4,49999,48,40000,58,0,0,9999,0.100000,0,0,0.000000,3,0.000000,0.000000,0.838029,0,0,0,0,0,0,0
4,49999,49,40000,31,20000,1,9999,0.100000,0,0,0.000000,3,6.000000,0.000000,12.132720,0,0,0,0,0,0,0
4,49999,50,40000,0,20000,0,9999,0.100000,0,0,0.000000,3,0.000000,0.000000,2.140096,0,0,0,0,0,0,0
4,49999,51,40000,0,20000,1,9999,0.100000,0,0,0.000000,3,3.000000,0.000000,10.513979,0,0,0,0,0,0,0
4,49999,52,40000,58,0,1,9999,0.100000,0,0,0.000000,3,1.000000,0.000000,1.677039,0,0,0,0,0,0,0
4,49999,53,40000,58,0,1,9999,0.100000,0,0,0.000000,3,3.000000,0.000000,10.560639,0,0,0,0,0,0,0
4,49999,54,40000,58,0,1,9999,0.100000,0,0,0.000000,3,2.000000,0.000000,9.686013,0,0,0,0,0,0,0
4,49999,55,40000,31,20000,1,9999,0.100000,0,0,0.000000,3,4.000000,0.000000,24.062177,0,0,0,0,0,0,0
4,49999,56,40000,58,0,1,9999,0.100000,0,0,0.000000,3,1.000000,0.000000,3.876701,0,0,0,0,0,0,0
4,49999,57,40000,58,0,0,9999,0.100000,0,0,0.000000,3,0.000000,0.000000,5.963966,0,0,0,0,0,0,0
4,49999,58,40000,31,20000,0,9999,0.100000,0,0,0.000000,3,0.000000,0.000000,8.660425,0,0,0,0,0,0,0
4,49999,59,40000,31,20000,0,9999,0.100000,0,0,0.000000,3,0.000000,0.000000,0.121454,0,0,0,0,0,0,0
4,49999,60,40000,0,20000,0,9999,0.100000,0,0,0.000000,3,0.000000,0.000000,0.519162,0,0,0,0,0,0,0
4,49999,61,40000,58,0,1,9999,0.100000,0,0,0.000000,3,4.000000,0.000000,14.111302,0,0,0,0,0,0,0
4,49999,62,40000,58,0,1,9999,0.100000,0,0,0.000000,3,1.000000,0.000000,11.633936,0,0,0,0,0,0,0
4,49999,63,40000,0,20000,0,9999,0.100000,0,0,0.000000,3,0.000000,0.000000,0.785553,0,0,0,0,0,0,0
4,49999,64,40000,31,20000,0,9999,0.100000,0,0,0.000000,3,0.000000,0.000000,0.527152,0,0,0,0,0,0,0
4,49999,65,40000,31,20000,1,9999,0.100000,0,0,0.000000,3,4.000000,0.000000,10.336062,0,0,0,0,0,0,0
4,49999,66,40000,31,20000,0,9999,0.100000,0,0,0.000000,3,0.000000,0.000000,0.009556,0,0,0,0,0,0,0
4,49999,67,40000,0,20000,0,9999,0.100000,0,0,0.000000,3,0.000000,0.000000,0.691706,0,0,0,0,0,0,0
4,49999,68,40000,58,0,0,9999,0.100000,0,0,0.000000,3,0.000000,0.000000,0.700959,0,0,0,0,0,0,0
4,49999,69,40000,31,20000,3,9999,0.100000,0,0,64.242981,3,11.000000,0.000000,17.120181,0,0,1,0,0,0,0
4,49999,70,40000,31,20000,0,9999,0.100000,0,0,0.000000,3,0.000000,0.000000,0.211514,0,0,0,0,0,0,0
4,49999,71,40000,0,20000,1,9999,0.100000,0,0,0.000000,3,1.000000,0.000000,7.689853,0,0,0,0,0,0,0
4,49999,72,40000,0,20000,0,9999,0.100000,0,0,0.000000,3,0.000000,0.000000,0.575725,0,0,0,0,0,0,0
4,49999,73,40000,0,20000,1,9999,0.100000,0,0,0.000000,3,3.000000,0.000000,6.668735,0,0,0,0,0,0,0
4,49999,74,40000,31,20000,0,9999,0.100000,0,0,0.000000,3,0.000000,0.000000,0.400971,0,0,0,0,0,0,0
4,49999,75,40000,31,20000,0,9999,0.100000,0,0,0.000000,3,0.000000,0.000000,0.381738,0,0,0,0,0,0,0
4,49999,76,40000,31,20000,1,9999,0.100000,0,0,0.000000,3,1.000000,0.000000,3.798948,0,0,0,0,0,0,0
4,49999,77,40000,58,0,1,9999,0.100000,0,0,0.000000,3,4.000000,0.000000,15.588641,0,0,0,0,0,0,0
4,49999,78,40000,58,0,0,9999,0.135000,0,0,0.000000,3,0.000000,0.000000,1.044068,0,0,0,0,0,0,0
4,49999,79,40000,58,0,0,9999,0.100000,0,0,0.000000,3,0.000000,0.000000,1.516412,0,0,0,0,0,0,0
4,49999,80,40000,58,0,1,9999,0.100000,0,0,0.000000,3,7.000000,0.000000,12.927002,0,0,0,0,0,0,0
4,49999,81,40000,0,20000,0,9999,0.100000,0,0,0.000000,3,0.000000,0.000000,1.406974,0,0,0,0,0,0,0
4,49999,82,40000,0,20000,1,9999,0.100000,0,0,34.210526,3,8.000000,0.000000,11.343287,0,0,0,0,0,0,1
4,49999,83,40000,31,20000,0,9999,0.100000,0,0,0.000000,3,0.000000,0.000000,0.161702,0,0,0,0,0,0,0
4,49999,84,40000,0,20000,0,9999,0.100000,0,0,0.000000,3,0.000000,0.000000,1.716805,0,0,0,0,0,0,0
4,49999,85,40000,58,0,0,9999,0.100000,0,0,0.000000,3,0.000000,0.000000,1.569830,0,0,0,0,0,0,0
4,49999,86,40000,58,0,1,9999,0.100000,0,0,34.210526,3,8.000000,0.000000,13.828874,0,0,0,0,0,0,1
4,49999,87,40000,31,20000,1,9999,0.100000,0,0,0.000000,3,3.000000,0.000000,11.595050,0,0,0,0,0,0,0
4,49999,88,40000,0,20000,0,9999,0.100000,0,0,0.000000,3,0.000000,0.000000,0.251137,0,0,0,0,0,0,0
4,49999,89,40000,31,20000,1,9999,0.100000,0,0,0.000000,3,2.000000,0.000000,3.703544,0,0,0,0,0,0,0
4,49999,90,40000,0,20000,1,9999,0.100000,0,0,0.000000,3,1.000000,0.000000,10.693315,0,0,0,0,0,0,0
4,49999,91,40000,0,20000,0,9999,0.100000,0,0,0.000000,3,0.000000,0.000000,2.557675,0,0,0,0,0,0,0
4,49999,92,40000,31,20000,0,9999,0.100000,0,0,0.000000,3,0.000000,0.000000,0.745779,0,0,0,0,0,0,0
4,49999,93,40000,31,20000,0,9999,0.100000,0,0,0.000000,3,0.000000,0.000000,2.055110,0,0,0,0,0,0,0
4,49999,94,40000,58,0,1,9999,0.100000,0,0,0.000000,3,3.000000,0.000000,13.945991,0,0,0,0,0,0,0
4,49999,95,40000,58,0,1,9999,0.100000,0,0,0.000000,3,1.000000,0.000000,8.832196,0,0,0,0,0,0,0
4,49999,96,40000,31,20000,0,9999,0.100000,0,0,0.000000,3,0.000000,0.000000,0.436110,0,0,0,0,0,0,0
4,49999,97,40000,58,0,0,9999,0.100000,0,0,0.000000,3,0.000000,0.000000,1.067806,0,0,0,0,0,0,0
4,49999,98,40000,0,20000,1,9999,0.100000,0,0,0.000000,3,2.000000,0.000000,4.171682,0,0,0,0,0,0,0
4,49999,99,40000,58,0,1,9999,0.100000,0,0,0.000000,3,1.000000,0.000000,4.181237,0,0,0,0,0,0,0
5,59999,0,50000,31,20000,0,9999,0.100000,0,0,0.000000,3,0.000000,0.000000,0.287281,0,0,0,0,0,0,0
5,59999,1,50000,58,0,1,9999,0.100000,0,0,0.000000,3,3.000000,0.000000,9.544694,0,0,0,0,0,0,0
5,59999,2,50000,58,0,0,9999,0.100000,0,0,0.000000,3,0.000000,0.000000,0.521940,0,0,0,0,0,0,0
5,59999,3,50000,31,20000,1,9999,0.100000,0,0,0.000000,3,2.000000,0.000000,8.252061,0,0,0,0,0,0,0
5,59999,4,50000,58,0,3,9999,0.100000,0,0,23.374351,3,2.000000,0.000000,10.975705,0,0,1,0,0,0,0
5,59999,5,50000,0,20000,1,9999,0.100000,0,0,0.000000,3,1.000000,0.000000,12.976626,0,0,0,0,0,0,0
5,59999,6,50000,31,20000,1,9999,0.100000,0,0,0.000000,3,1.000000,0.000000,7.753643,0,0,0,0,0,0,0
5,59999,7,50000,31,20000,0,9999,0.100000,0,0,0.000000,3,0.000000,0.000000,0.275095,0,0,0,0,0,0,0
5,59999,8,50000,0,20000,0,9999,0.100000,0,0,0.000000,3,0.000000,0.000000,1.008768,0,0,0,0,0,0,0
5,59999,9,50000,31,20000,0,9999,0.100000,0,0,0.000000,3,0.000000,0.000000,5.118496,0,0,0,0,0,0,0
5,59999,10,50000,0,20000,0,9999,0.100000,0,0,0.000000,3,0.000000,0.000000,3.185430,0,0,0,0,0,0,0
5,59999,11,50000,0,20000,0,9999,0.100000,0,0,0.000000,3,0.000000,0.000000,0.360899,0,0,0,0,0,0,0
5,59999,12,50000,58,0,0,9999,0.100000,0,0,0.000000,3,0.000000,0.000000,1.423705,0,0,0,0,0,0,0
5,59999,13,50000,31,20000,0,9999,0.100000,0,0,0.000000,3,0.000000,0.000000,0.226055,0,0,0,0,0,0,0
5,59999,14,50000,31,20000,1,9999,0.100000,0,0,0.000000,3,5.000000,0.000000,13.064755,0,0,0,0,0,0,0
5,59999,15,50000,58,0,0,9999,0.100000,0,0,0.000000,3,0.000000,0.000000,2.301399,0,0,0,0,0,0,0
5,59999,16,50000,31,20000,0,9999,0.100000,0,0,0.000000,3,0.000000,0.000000,1.887806,0,0,0,0,0,0,0
5,59999,17,50000,58,0,1,9999,0.100000,0,0,0.000000,3,1.000000,0.000000,4.156562,0,0,0,0,0,0,0
5,59999,18,50000,31,20000,1,9999,0.100000,0,0,0.000000,3,1.000000,0.000000,2.513190,0,0,0,0,0,0,0
5,59999,19,50000,31,20000,0,9999,0.100000,0,0,0.000000,3,0.000000,0.000000,4.775294,0,0,0,0,0,0,0
5,59999,20,50000,58,0,0,9999,0.100000,0,0,0.000000,3,0.000000,0.000000,0.664635,0,0,0,0,0,0,0
5,59999,21,50000,58,0,0,9999,0.065000,0,0,0.000000,3,0.000000,0.000000,0.526454,0,0,0,0,0,0,0
5,59999,22,50000,31,20000,1,9999,0.100000,0,0,0.000000,3,2.000000,0.000000,9.017092,0,0,0,0,0,0,0
5,59999,23,50000,58,0,0,9999,0.100000,0,0,0.000000,3,0.000000,0.000000,0.721947,0,0,0,0,0,0,0
5,59999,24,50000,58,0,0,9999,0.100000,0,0,0.000000,3,0.000000,0.000000,0.812877,0,0,0,0,0,0,0
5,59999,25,50000,31,20000,0,9999,0.100000,0,0,0.000000,3,0.000000,0.000000,0.557416,0,0,0,0,0,0,0
5,59999,26,50000,58,0,0,9999,0.100000,0,0,0.000000,3,0.000000,0.000000,2.222582,0,0,0,0,0,0,0
5,59999,27,50000,0,20000,1,9999,0.100000,0,0,0.000000,3,1.000000,0.000000,1.711853,0,0,0,0,0,0,0
5,59999,28,50000,0,20000,0,9999,0.100000,0,0,0.000000,3,0.000000,0.000000,0.649383,0,0,0,0,0,0,0
5,59999,29,50000,31,20000,0,9999,0.100000,0,0,0.000000,3,0.000000,0.000000,0.613012,0,0,0,0,0,0,0
5,59999,30,50000,31,20000,0,9999,0.100000,0,0,0.000000,3,0.000000,0.000000,4.967172,0,0,0,0,0,0,0
5,59999,31,50000,31,20000,0,9999,0.100000,0,0,0.000000,3,0.000000,0.000000,0.555270,0,0,0,0,0,0,0
5,59999,32,50000,58,0,0,9999,0.100000,0,0,0.000000,3,0.000000,0.000000,3.130671,0,0,0,0,0,0,0
5,59999,33,50000,0,20000,1,9999,0.100000,0,0,0.000000,3,1.000000,0.000000,15.545840,0,0,0,0,0,0,0
5,59999,34,50000,31,20000,0,9999,0.100000,0,0,0.000000,3,0.000000,0.000000,1.134026,0,0,0,0,0,0,0
5,59999,35,50000,0,20000,1,9999,0.100000,0,0,0.000000,3,2.000000,0.000000,2.146825,0,0,0,0,0,0,0
5,59999,36,50000,31,20000,0,9999,0.100000,0,0,0.000000,3,0.000000,0.000000,1.195412,0,0,0,0,0,0,0
5,59999,37,50000,31,20000,0,9999,0.100000,0,0,0.000000,3,0.000000,0.000000,9.526154,0,0,0,0,0,0,0
5,59999,38,50000,31,20000,1,9999,0.100000,0,0,0.000000,3,2.000000,0.000000,3.572810,0,0,0,0,0,0,0
5,59999,39,50000,58,0,0,9999,0.100000,0,0,0.000000,3,0.000000,0.000000,1.276787,0,0,0,0,0,0,0
5,59999,40,50000,31,20000,1,9999,0.100000,0,0,0.000000,3,5.000000,0.000000,12.701236,0,0,0,0,0,0,0
5,59999,41,50000,31,20000,0,9999,0.100000,0,0,0.000000,3,0.000000,0.000000,3.337333,0,0,0,0,0,0,0
5,59999,42,50000,58,0,3,9999,0.100000,0,0,13.346221,3,3.000000,0.000000,10.615962,0,0,1,0,0,0,0
5,59999,43,50000,0,20000,0,9999,0.100000,0,0,0.000000,3,0.000000,0.000000,0.187593,0,0,0,0,0,0,0
5,59999,44,50000,31,20000,0,9999,0.100000,0,0,0.000000,3,0.000000,0.000000,1.894731,0,0,0,0,0,0,0
5,59999,45,50000,58,0,0,9999,0.100000,0,0,0.000000,3,0.000000,0.000000,3.648313,0,0,0,0,0,0,0
5,59999,46,50000,0,20000,0,9999,0.100000,0,0,0.000000,3,0.000000,0.000000,0.278612,0,0,0,0,0,0,0
5,59999,47,50000,0,20000,0,9999,0.100000,0,0,0.000000,3,0.000000,0.000000,12.669377,0,0,0,0,0,0,0
5,59999,48,50000,0,20000,1,9999,0.100000,0,0,0.000000,3,1.000000,0.000000,1.948359,0,0,0,0,0,0,0
5,59999,49,50000,58,0,1,9999,0.100000,0,0,0.000000,3,1.000000,0.000000,7.619417,0,0,0,0,0,0,0
5,59999,50,50000,0,20000,1,9999,0.100000,0,0,0.000000,3,2.000000,0.000000,6.529769,0,0,0,0,0,0,0
5,59999,51,50000,58,0,0,9999,0.100000,0,0,0.000000,3,0.000000,0.000000,3.695377,0,0,0,0,0,0,0
5,59999,52,50000,58,0,1,9999,0.100000,0,0,0.000000,3,1.000000,0.000000,4.571075,0,0,0,0,0,0,0
5,59999,53,50000,31,20000,1,9999,0.100000,0,0,0.000000,3,5.000000,0.000000,10.408748,0,0,0,0,0,0,0
5,59999,54,50000,31,20000,1,9999,0.100000,0,0,0.000000,3,2.000000,0.000000,8.210298,0,0,0,0,0,0,0
5,59999,55,50000,0,20000,0,9999,0.100000,0,0,0.000000,3,0.000000,0.000000,3.472271,0,0,0,0,0,0,0
5,59999,56,50000,0,20000,0,9999,0.100000,0,0,0.000000,3,0.000000,0.000000,5.504923,0,0,0,0,0,0,0
5,59999,57,50000,58,0,0,9999,0.100000,0,0,0.000000,3,0.000000,0.000000,5.893711,0,0,0,0,0,0,0
5,59999,58,50000,58,0,1,9999,0.100000,0,0,0.000000,3,1.000000,0.000000,11.448026,0,0,0,0,0,0,0
5,59999,59,50000,58,0,0,9999,0.100000,0,0,0.000000,3,0.000000,0.000000,0.252011,0,0,0,0,0,0,0
5,59999,60,50000,0,20000,0,9999,0.100000,0,0,0.000000,3,0.000000,0.000000,0.487274,0,0,0,0,0,0,0
5,59999,61,50000,0,20000,1,9999,0.100000,0,0,0.000000,3,3.000000,0.000000,10.909205,0,0,0,0,0,0,0
5,59999,62,50000,31,20000,1,9999,0.100000,0,0,0.000000,3,3.000000,0.000000,9.208047,0,0,0,0,0,0,0
5,59999,63,50000,0,20000,0,9999,0.100000,0,0,0.000000,3,0.000000,0.000000,1.723335,0,0,0,0,0,0,0
5,59999,64,50000,58,0,0,9999,0.100000,0,0,0.000000,3,0.000000,0.000000,0.471806,0,0,0,0,0,0,0
5,59999,65,50000,31,20000,1,9999,0.100000,0,0,0.000000,3,1.000000,0.000000,12.123593,0,0,0,0,0,0,0
5,59999,66,50000,58,0,0,9999,0.100000,0,0,0.000000,3,0.000000,0.000000,0.009584,0,0,0,0,0,0,0
5,59999,67,50000,58,0,0,9999,0.100000,0,0,0.000000,3,0.000000,0.000000,0.721778,0,0,0,0,0,0,0
5,59999,68,50000,0,20000,0,9999,0.100000,0,0,0.000000,3,0.000000,0.000000,9.691245,0,0,0,0,0,0,0
5,59999,69,50000,0,20000,0,9999,0.100000,0,0,0.000000,3,0.000000,0.000000,1.024462,0,0,0,0,0,0,0
5,59999,70,50000,58,0,1,9999,0.100000,0,0,0.000000,3,2.000000,0.000000,6.334898,0,0,0,0,0,0,0
5,59999,71,50000,58,0,0,9999,0.100000,0,0,0.000000,3,0.000000,0.000000,0.933905,0,0,0,0,0,0,0
5,59999,72,50000,0,20000,0,9999,0.100000,0,0,0.000000,3,0.000000,0.000000,0.425384,0,0,0,0,0,0,0
5,59999,73,50000,0,20000,0,9999,0.100000,0,0,0.000000,3,0.000000,0.000000,5.851280,0,0,0,0,0,0,0
5,59999,74,50000,31,20000,0,9999,0.100000,0,0,0.000000,3,0.000000,0.000000,0.504385,0,0,0,0,0,0,0
5,59999,75,50000,58,0,0,9999,0.100000,0,0,0.000000,3,0.000000,0.000000,0.309351,0,0,0,0,0,0,0
5,59999,76,50000,0,20000,1,9999,0.100000,0,0,0.000000,3,1.000000,0.000000,11.586240,0,0,0,0,0,0,0
5,59999,77,50000,58,0,3,9999,0.100000,0,0,70.370607,3,13.000000,0.000000,20.177953,0,0,1,0,0,0,0
5,59999,78,50000,31,20000,0,9999,0.100000,0,0,0.000000,3,0.000000,0.000000,0.807887,0,0,0,0,0,0,0
5,59999,79,50000,58,0,1,9999,0.100000,0,0,0.000000,3,1.000000,0.000000,7.280878,0,0,0,0,0,0,0
5,59999,80,50000,58,0,1,9999,0.100000,0,0,0.000000,3,1.000000,0.000000,6.120649,0,0,0,0,0,0,0
5,59999,81,50000,58,0,0,9999,0.100000,0,0,0.000000,3,0.000000,0.000000,0.675354,0,0,0,0,0,0,0
5,59999,82,50000,58,0,1,9999,0.100000,0,0,0.000000,3,6.000000,0.000000,13.157031,0,0,0,0,0,0,0
5,59999,83,50000,0,20000,0,9999,0.100000,0,0,0.000000,3,0.000000,0.000000,0.367763,0,0,0,0,0,0,0
5,59999,84,50000,0,20000,0,9999,0.100000,0,0,0.000000,3,0.000000,0.000000,0.247904,0,0,0,0,0,0,0
5,59999,85,50000,0,20000,0,9999,0.100000,0,0,0.000000,3,0.000000,0.000000,1.494772,0,0,0,0,0,0,0
5,59999,86,50000,31,20000,1,9999,0.100000,0,0,0.000000,3,5.000000,0.000000,7.931915,0,0,0,0,0,0,0
5,59999,87,50000,31,20000,0,9999,0.100000,0,0,0.000000,3,0.000000,0.000000,0.230747,0,0,0,0,0,0,0
5,59999,88,50000,0,20000,0,9999,0.100000,0,0,0.000000,3,0.000000,0.000000,0.196187,0,0,0,0,0,0,0
5,59999,89,50000,58,0,1,9999,0.100000,0,0,0.000000,3,3.000000,0.000000,6.433426,0,0,0,0,0,0,0
5,59999,90,50000,58,0,1,9999,0.100000,0,0,0.000000,3,1.000000,0.000000,10.817216,0,0,0,0,0,0,0
5,59999,91,50000,58,0,0,9999,0.100000,0,0,0.000000,3,0.000000,0.000000,3.414198,0,0,0,0,0,0,0
5,59999,92,50000,31,20000,0,9999,0.100000,0,0,0.000000,3,0.000000,0.000000,0.496922,0,0,0,0,0,0,0
5,59999,93,50000,31,20000,1,9999,0.100000,0,0,0.000000,3,1.000000,0.000000,3.491599,0,0,0,0,0,0,0
5,59999,94,50000,31,20000,1,9999,0.100000,0,0,0.000000,3,1.000000,0.000000,9.490684,0,0,0,0,0,0,0
5,59999,95,50000,58,0,0,9999,0.100000,0,0,0.000000,3,0.000000,0.000000,13.538833,0,0,0,0,0,0,0
5,59999,96,50000,31,20000,0,9999,0.100000,0,0,0.000000,3,0.000000,0.000000,0.408377,0,0,0,0,0,0,0
5,59999,97,50000,58,0,1,9999,0.100000,0,0,0.000000,3,5.000000,0.000000,10.703903,0,0,0,0,0,0,0
5,59999,98,50000,0,20000,0,9999,0.100000,0,0,0.000000,3,0.000000,0.000000,2.845088,0,0,0,0,0,0,0
5,59999,99,50000,31,20000,0,9999,0.100000,0,0,0.000000,3,0.000000,0.000000,0.405346,0,0,0,0,0,0,0
6,69999,0,60000,58,0,0,9999,0.100000,0,0,0.000000,3,0.000000,0.000000,0.284889,0,0,0,0,0,0,0
6,69999,1,60000,0,20000,1,9999,0.100000,0,0,0.000000,3,6.000000,0.000000,11.279432,0,0,0,0,0,0,0
6,69999,2,60000,0,20000,1,9999,0.100000,0,0,0.000000,3,1.000000,0.000000,7.747836,0,0,0,0,0,0,0
6,69999,3,60000,58,0,1,9999,0.100000,0,0,0.000000,3,2.000000,0.000000,15.813061,0,0,0,0,0,0,0
6,69999,4,60000,58,0,0,9999,0.100000,0,0,0.000000,3,0.000000,0.000000,7.824856,0,0,0,0,0,0,0
6,69999,5,60000,58,0,1,9999,0.100000,0,0,0.000000,3,1.000000,0.000000,6.737721,0,0,0,0,0,0,0
6,69999,6,60000,31,20000,1,9999,0.100000,0,0,0.000000,3,1.000000,0.000000,6.439402,0,0,0,0,0,0,0
6,69999,7,60000,0,20000,0,9999,0.100000,0,0,0.000000,3,0.000000,0.000000,0.846834,0,0,0,0,0,0,0
6,69999,8,60000,31,20000,0,9999,0.100000,0,0,0.000000,3,0.000000,0.000000,0.941446,0,0,0,0,0,0,0
6,69999,9,60000,58,0,1,9999,0.100000,0,0,0.000000,3,4.000000,0.000000,10.480294,0,0,0,0,0,0,0
6,69999,10,60000,58,0,1,9999,0.100000,0,0,0.000000,3,1.000000,0.000000,6.385191,0,0,0,0,0,0,0
6,69999,11,60000,0,20000,0,9999,0.100000,0,0,0.000000,3,0.000000,0.000000,0.365099,0,0,0,0,0,0,0
6,69999,12,60000,31,20000,0,9999,0.100000,0,0,0.000000,3,0.000000,0.000000,0.810201,0,0,0,0,0,0,0
6,69999,13,60000,58,0,0,9999,0.100000,0,0,0.000000,3,0.000000,0.000000,0.229148,0,0,0,0,0,0,0
6,69999,14,60000,0,20000,1,9999,0.100000,0,0,0.000000,3,5.000000,0.000000,10.571735,0,0,0,0,0,0,0
6,69999,15,60000,58,0,1,9999,0.100000,0,0,0.000000,3,1.000000,0.000000,4.767663,0,0,0,0,0,0,0
6,69999,16,60000,0,20000,0,9999,0.100000,0,0,0.000000,3,0.000000,0.000000,12.060943,0,0,0,0,0,0,0
6,69999,17,60000,31,20000,0,9999,0.100000,0,0,0.000000,3,0.000000,0.000000,3.212795,0,0,0,0,0,0,0
6,69999,18,60000,31,20000,0,9999,0.100000,0,0,0.000000,3,0.000000,0.000000,1.652847,0,0,0,0,0,0,0
6,69999,19,60000,58,0,1,9999,0.100000,0,0,0.000000,3,6.000000,0.000000,17.607720,0,0,0,0,0,0,0
6,69999,20,60000,0,20000,0,9999,0.100000,0,0,0.000000,3,0.000000,0.000000,0.396362,0,0,0,0,0,0,0
6,69999,21,60000,58,0,0,9999,0.100000,0,0,0.000000,3,0.000000,0.000000,0.455778,0,0,0,0,0,0,0
6,69999,22,60000,0,20000,1,9999,0.100000,0,0,0.000000,3,1.000000,0.000000,10.199419,0,0,0,0,0,0,0
6,69999,23,60000,0,20000,1,9999,0.100000,0,0,0.000000,3,5.000000,0.000000,11.279224,0,0,0,0,0,0,0
6,69999,24,60000,31,20000,0,9999,0.100000,0,0,0.000000,3,0.000000,0.000000,0.785181,0,0,0,0,0,0,0
6,69999,25,60000,0,20000,1,9999,0.100000,0,0,0.000000,3,3.000000,0.000000,8.462112,0,0,0,0,0,0,0
6,69999,26,60000,0,20000,1,9999,0.100000,0,0,0.000000,3,1.000000,0.000000,7.427762,0,0,0,0,0,0,0
6,69999,27,60000,31,20000,0,9999,0.100000,0,0,0.000000,3,0.000000,0.000000,0.241756,0,0,0,0,0,0,0
6,69999,28,60000,58,0,0,9999,0.100000,0,0,0.000000,3,0.000000,0.000000,6.401435,0,0,0,0,0,0,0
6,69999,29,60000,58,0,1,9999,0.100000,0,0,0.000000,3,1.000000,0.000000,1.555883,0,0,0,0,0,0,0
6,69999,30,60000,0,20000,1,9999,0.100000,0,0,0.000000,3,1.000000,0.000000,10.401355,0,0,0,0,0,0,0
6,69999,31,60000,0,20000,0,9999,0.100000,0,0,0.000000,3,0.000000,0.000000,0.555633,0,0,0,0,0,0,0
6,69999,32,60000,0,20000,0,9999,0.100000,0,0,0.000000,3,0.000000,0.000000,3.080206,0,0,0,0,0,0,0
6,69999,33,60000,58,0,1,9999,0.100000,0,0,0.000000,3,5.000000,0.000000,11.015653,0,0,0,0,0,0,0
6,69999,34,60000,31,20000,0,9999,0.100000,0,0,0.000000,3,0.000000,0.000000,0.792754,0,0,0,0,0,0,0
6,69999,35,60000,31,20000,0,9999,0.100000,0,0,0.000000,3,0.000000,0.000000,0.459289,0,0,0,0,0,0,0
6,69999,36,60000,0,20000,1,9999,0.100000,0,0,0.000000,3,3.000000,0.000000,8.039484,0,0,0,0,0,0,0
6,69999,37,60000,0,20000,1,9999,0.100000,0,0,0.000000,3,1.000000,0.000000,12.965925,0,0,0,0,0,0,0
6,69999,38,60000,31,20000,1,9999,0.100000,0,0,0.000000,3,8.000000,0.000000,9.977695,0,0,0,0,0,0,0
6,69999,39,60000,31,20000,0,9999,0.100000,0,0,0.000000,3,0.000000,0.000000,0.643749,0,0,0,0,0,0,0
6,69999,40,60000,31,20000,1,9999,0.100000,0,0,0.000000,3,4.000000,0.000000,10.948678,0,0,0,0,0,0,0
6,69999,41,60000,31,20000,1,9999,0.100000,0,0,0.000000,3,6.000000,0.000000,18.552356,0,0,0,0,0,0,0
6,69999,42,60000,0,20000,1,9999,0.065000,0,0,0.000000,3,5.000000,0.000000,12.208643,0,0,0,0,0,0,0
6,69999,43,60000,0,20000,0,9999,0.100000,0,0,0.000000,3,0.000000,0.000000,0.248626,0,0,0,0,0,0,0
6,69999,44,60000,58,0,0,9999,0.100000,0,0,0.000000,3,0.000000,0.000000,2.541625,0,0,0,0,0,0,0
6,69999,45,60000,58,0,1,9999,0.100000,0,0,0.000000,3,3.000000,0.000000,10.656237,0,0,0,0,0,0,0
6,69999,46,60000,0,20000,0,9999,0.100000,0,0,0.000000,3,0.000000,0.000000,0.164215,0,0,0,0,0,0,0
6,69999,47,60000,31,20000,1,9999,0.100000,0,0,0.000000,3,5.000000,0.000000,15.981832,0,0,0,0,0,0,0
6,69999,48,60000,31,20000,0,9999,0.100000,0,0,0.000000,3,0.000000,0.000000,0.252028,0,0,0,0,0,0,0
6,69999,49,60000,31,20000,1,9999,0.100000,0,0,0.000000,3,1.000000,0.000000,4.049712,0,0,0,0,0,0,0
6,69999,50,60000,0,20000,0,9999,0.100000,0,0,0.000000,3,0.000000,0.000000,3.214747,0,0,0,0,0,0,0
6,69999,51,60000,0,20000,0,9999,0.100000,0,0,0.000000,3,0.000000,0.000000,2.912039,0,0,0,0,0,0,0
6,69999,52,60000,0,20000,0,9999,0.100000,0,0,0.000000,3,0.000000,0.000000,3.159419,0,0,0,0,0,0,0
6,69999,53,60000,31,20000,1,9999,0.100000,0,0,0.000000,3,2.000000,0.000000,3.771974,0,0,0,0,0,0,0
6,69999,54,60000,31,20000,0,9999,0.100000,0,0,0.000000,3,0.000000,0.000000,3.771236,0,0,0,0,0,0,0
6,69999,55,60000,31,20000,0,9999,0.100000,0,0,0.000000,3,0.000000,0.000000,2.503316,0,0,0,0,0,0,0
6,69999,56,60000,31,20000,0,9999,0.100000,0,0,0.000000,3,0.000000,0.000000,5.615735,0,0,0,0,0,0,0
6,69999,57,60000,58,0,0,9999,0.100000,0,0,0.000000,3,0.000000,0.000000,5.966194,0,0,0,0,0,0,0
6,69999,58,60000,58,0,0,9999,0.100000,0,0,0.000000,3,0.000000,0.000000,0.725597,0,0,0,0,0,0,0
6,69999,59,60000,0,20000,0,9999,0.100000,0,0,0.000000,3,0.000000,0.000000,0.155315,0,0,0,0,0,0,0
6,69999,60,60000,0,20000,0,9999,0.100000,0,0,0.000000,3,0.000000,0.000000,0.490204,0,0,0,0,0,0,0
6,69999,61,60000,31,20000,1,9999,0.100000,0,0,0.000000,3,3.000000,0.000000,8.605301,0,0,0,0,0,0,0
6,69999,62,60000,58,0,0,9999,0.100000,0,0,0.000000,3,0.000000,0.000000,3.648869,0,0,0,0,0,0,0
6,69999,63,60000,0,20000,0,9999,0.100000,0,0,0.000000,3,0.000000,0.000000,1.305187,0,0,0,0,0,0,0
6,69999,64,60000,0,20000,0,9999,0.100000,0,0,0.000000,3,0.000000,0.000000,0.483375,0,0,0,0,0,0,0
6,69999,65,60000,0,20000,0,9999,0.100000,0,0,0.000000,3,0.000000,0.000000,11.182631,0,0,0,0,0,0,0
6,69999,66,60000,0,20000,0,9999,0.100000,0,0,0.000000,3,0.000000,0.000000,0.009688,0,0,0,0,0,0,0
6,69999,67,60000,31,20000,0,9999,0.100000,0,0,0.000000,3,0.000000,0.000000,0.684195,0,0,0,0,0,0,0
6,69999,68,60000,31,20000,0,9999,0.100000,0,0,0.000000,3,0.000000,0.000000,5.711723,0,0,0,0,0,0,0
6,69999,69,60000,0,20000,1,9999,0.100000,0,0,0.000000,3,4.000000,0.000000,10.454471,0,0,0,0,0,0,0
6,69999,70,60000,31,20000,1,9999,0.100000,0,0,0.000000,3,9.000000,0.000000,9.855642,0,0,0,0,0,0,0
6,69999,71,60000,58,0,0,9999,0.100000,0,0,0.000000,3,0.000000,0.000000,0.894110,0,0,0,0,0,0,0
6,69999,72,60000,58,0,0,9999,0.100000,0,0,0.000000,3,0.000000,0.000000,1.589667,0,0,0,0,0,0,0
6,69999,73,60000,31,20000,0,9999,0.100000,0,0,0.000000,3,0.000000,0.000000,2.956876,0,0,0,0,0,0,0
6,69999,74,60000,31,20000,1,9999,0.100000,0,0,0.000000,3,1.000000,0.000000,1.847286,0,0,0,0,0,0,0
6,69999,75,60000,31,20000,0,9999,0.100000,0,0,0.000000,3,0.000000,0.000000,0.315022,0,0,0,0,0,0,0
6,69999,76,60000,0,20000,0,9999,0.100000,0,0,0.000000,3,0.000000,0.000000,5.151414,0,0,0,0,0,0,0
6,69999,77,60000,0,20000,1,9999,0.100000,0,0,0.000000,3,2.000000,0.000000,9.226432,0,0,0,0,0,0,0
6,69999,78,60000,0,20000,0,9999,0.100000,0,0,0.000000,3,0.000000,0.000000,0.730592,0,0,0,0,0,0,0
6,69999,79,60000,0,20000,0,9999,0.100000,0,0,0.000000,3,0.000000,0.000000,2.759367,0,0,0,0,0,0,0
6,69999,80,60000,0,20000,1,9999,0.100000,0,0,0.000000,3,1.000000,0.000000,2.295108,0,0,0,0,0,0,0
6,69999,81,60000,58,0,0,9999,0.100000,0,0,0.000000,3,0.000000,0.000000,0.690885,0,0,0,0,0,0,0
6,69999,82,60000,0,20000,1,9999,0.100000,0,0,0.000000,3,2.000000,0.000000,4.225539,0,0,0,0,0,0,0
6,69999,83,60000,58,0,0,9999,0.100000,0,0,0.000000,3,0.000000,0.000000,0.211691,0,0,0,0,0,0,0
6,69999,84,60000,31,20000,0,9999,0.100000,0,0,0.000000,3,0.000000,0.000000,0.231032,0,0,0,0,0,0,0
6,69999,85,60000,0,20000,0,9999,0.100000,0,0,0.000000,3,0.000000,0.000000,0.695728,0,0,0,0,0,0,0
6,69999,86,60000,31,20000,1,9999,0.100000,0,0,0.000000,3,5.000000,0.000000,12.743390,0,0,0,0,0,0,0
6,69999,87,60000,31,20000,0,9999,0.100000,0,0,0.000000,3,0.000000,0.000000,0.250314,0,0,0,0,0,0,0
6,69999,88,60000,58,0,0,9999,0.100000,0,0,0.000000,3,0.000000,0.000000,0.197689,0,0,0,0,0,0,0
6,69999,89,60000,58,0,0,9999,0.100000,0,0,0.000000,3,0.000000,0.000000,3.367033,0,0,0,0,0,0,0
6,69999,90,60000,31,20000,1,9999,0.100000,0,0,0.000000,3,2.000000,0.000000,8.637641,0,0,0,0,0,0,0
6,69999,91,60000,58,0,0,9999,0.100000,0,0,0.000000,3,0.000000,0.000000,1.720195,0,0,0,0,0,0,0
6,69999,92,60000,58,0,0,9999,0.100000,0,0,0.000000,3,0.000000,0.000000,0.513464,0,0,0,0,0,0,0
6,69999,93,60000,58,0,1,9999,0.100000,0,0,0.000000,3,5.000000,0.000000,15.119387,0,0,0,0,0,0,0
6,69999,94,60000,31,20000,1,9999,0.100000,0,0,0.000000,3,3.000000,0.000000,11.730766,0,0,0,0,0,0,0
6,69999,95,60000,31,20000,1,9999,0.100000,0,0,0.000000,3,4.000000,0.000000,7.509509,0,0,0,0,0,0,0
6,69999,96,60000,31,20000,0,9999,0.100000,0,0,0.000000,3,0.000000,0.000000,0.664924,0,0,0,0,0,0,0
6,69999,97,60000,58,0,1,9999,0.100000,0,0,0.000000,3,4.000000,0.000000,5.714800,0,0,0,0,0,0,0
6,69999,98,60000,58,0,0,9999,0.100000,0,0,0.000000,3,0.000000,0.000000,2.942647,0,0,0,0,0,0,0
6,69999,99,60000,58,0,0,9999,0.100000,0,0,0.000000,3,0.000000,0.000000,0.232757,0,0,0,0,0,0,0
7,79999,0,70000,58,0,0,9999,0.100000,0,0,0.000000,3,0.000000,0.000000,0.192464,0,0,0,0,0,0,0
7,79999,1,70000,31,20000,0,9999,0.100000,0,0,0.000000,3,0.000000,0.000000,3.056415,0,0,0,0,0,0,0
7,79999,2,70000,31,20000,1,9999,0.100000,0,0,0.000000,3,1.000000,0.000000,3.437030,0,0,0,0,0,0,0
7,79999,3,70000,0,20000,0,9999,0.100000,0,0,0.000000,3,0.000000,0.000000,1.024559,0,0,0,0,0,0,0
7,79999,4,70000,0,20000,1,9999,0.100000,0,0,0.000000,3,4.000000,0.000000,9.525923,0,0,0,0,0,0,0
7,79999,5,70000,58,0,1,9999,0.100000,0,0,0.000000,3,2.000000,0.000000,10.401260,0,0,0,0,0,0,0
7,79999,6,70000,58,0,1,9999,0.100000,0,0,0.000000,3,2.000000,0.000000,5.049179,0,0,0,0,0,0,0
7,79999,7,70000,31,20000,1,9999,0.100000,0,0,0.000000,3,3.000000,0.000000,4.735735,0,0,0,0,0,0,0
7,79999,8,70000,31,20000,0,9999,0.100000,0,0,0.000000,3,0.000000,0.000000,0.905243,0,0,0,0,0,0,0
7,79999,9,70000,58,0,0,9999,0.100000,0,0,0.000000,3,0.000000,0.000000,7.703759,0,0,0,0,0,0,0
7,79999,10,70000,58,0,1,9999,0.100000,0,0,0.000000,3,4.000000,0.000000,5.213934,0,0,0,0,0,0,0
7,79999,11,70000,0,20000,1,9999,0.100000,0,0,0.000000,3,1.000000,0.000000,3.538970,0,0,0,0,0,0,0
7,79999,12,70000,31,20000,0,9999,0.100000,0,0,0.000000,3,0.000000,0.000000,2.665519,0,0,0,0,0,0,0
7,79999,13,70000,0,20000,0,9999,0.100000,0,0,0.000000,3,0.000000,0.000000,0.230550,0,0,0,0,0,0,0
7,79999,14,70000,58,0,0,9999,0.100000,0,0,0.000000,3,0.000000,0.000000,3.775644,0,0,0,0,0,0,0
7,79999,15,70000,58,0,1,9999,0.100000,0,0,0.000000,3,6.000000,0.000000,7.459028,0,0,0,0,0,0,0
7,79999,16,70000,31,20000,1,9999,0.100000,0,0,0.000000,3,6.000000,0.000000,8.119789,0,0,0,0,0,0,0
7,79999,17,70000,58,0,1,9999,0.100000,0,0,0.000000,3,1.000000,0.000000,6.206895,0,0,0,0,0,0,0
7,79999,18,70000,0,20000,0,9999,0.100000,0,0,0.000000,3,0.000000,0.000000,2.867114,0,0,0,0,0,0,0
7,79999,19,70000,0,20000,1,9999,0.100000,0,0,0.000000,3,1.000000,0.000000,19.373849,0,0,0,0,0,0,0
7,79999,20,70000,58,0,0,9999,0.100000,0,0,0.000000,3,0.000000,0.000000,0.382752,0,0,0,0,0,0,0
7,79999,21,70000,0,20000,1,9999,0.100000,0,0,0.000000,3,3.000000,0.000000,8.551173,0,0,0,0,0,0,0
7,79999,22,70000,58,0,1,9999,0.100000,0,0,0.000000,3,3.000000,0.000000,9.401134,0,0,0,0,0,0,0
7,79999,23,70000,58,0,1,9999,0.100000,0,0,0.000000,3,5.000000,0.000000,16.236400,0,0,0,0,0,0,0
7,79999,24,70000,58,0,0,9999,0.100000,0,0,0.000000,3,0.000000,0.000000,0.763511,0,0,0,0,0,0,0
7,79999,25,70000,0,20000,1,9999,0.100000,0,0,0.000000,3,2.000000,0.000000,12.145922,0,0,0,0,0,0,0
7,79999,26,70000,31,20000,0,9999,0.100000,0,0,0.000000,3,0.000000,0.000000,1.752110,0,0,0,0,0,0,0
7,79999,27,70000,31,20000,0,9999,0.100000,0,0,0.000000,3,0.000000,0.000000,0.352062,0,0,0,0,0,0,0
7,79999,28,70000,58,0,1,9999,0.100000,0,0,0.000000,3,5.000000,0.000000,8.533240,0,0,0,0,0,0,0
7,79999,29,70000,58,0,1,9999,0.100000,0,0,0.000000,3,6.000000,0.000000,7.313626,0,0,0,0,0,0,0
7,79999,30,70000,0,20000,0,9999,0.100000,0,0,0.000000,3,0.000000,0.000000,5.176829,0,0,0,0,0,0,0
7,79999,31,70000,0,20000,0,9999,0.100000,0,0,0.000000,3,0.000000,0.000000,0.614145,0,0,0,0,0,0,0
7,79999,32,70000,58,0,0,9999,0.100000,0,0,0.000000,3,0.000000,0.000000,0.766922,0,0,0,0,0,0,0
7,79999,33,70000,31,20000,1,9999,0.100000,0,0,0.000000,3,5.000000,0.000000,11.194496,0,0,0,0,0,0,0
7,79999,34,70000,0,20000,0,9999,0.100000,0,0,0.000000,3,0.000000,0.000000,0.909429,0,0,0,0,0,0,0
7,79999,35,70000,31,20000,0,9999,0.100000,0,0,0.000000,3,0.000000,0.000000,0.726617,0,0,0,0,0,0,0
7,79999,36,70000,0,20000,0,9999,0.100000,0,0,0.000000,3,0.000000,0.000000,4.210153,0,0,0,0,9,0,0
7,79999,37,70000,31,20000,0,9999,0.100000,0,0,0.000000,3,0.000000,0.000000,1.906293,0,0,0,0,0,0,0
7,79999,38,70000,31,20000,0,9999,0.100000,0,0,0.000000,3,0.000000,0.000000,1.503158,0,0,0,0,0,0,0
7,79999,39,70000,0,20000,0,9999,0.100000,0,0,0.000000,3,0.000000,0.000000,1.015683,0,0,0,0,0,0,0
7,79999,40,70000,0,20000,1,9999,0.100000,0,0,0.000000,3,4.000000,0.000000,12.548028,0,0,0,0,0,0,0
7,79999,41,70000,0,20000,1,9999,0.100000,0,0,0.000000,3,1.000000,0.000000,9.598416,0,0,0,0,0,0,0
7,79999,42,70000,0,20000,1,9999,0.100000,0,0,0.000000,3,2.000000,0.000000,8.986421,0,0,0,0,0,0,0
7,79999,43,70000,0,20000,0,9999,0.100000,0,0,0.000000,3,0.000000,0.000000,0.905116,0,0,0,0,0,0,0
7,79999,44,70000,0,20000,0,9999,0.100000,0,0,0.000000,3,0.000000,0.000000,1.954697,0,0,0,0,0,0,0
7,79999,45,70000,58,0,1,9999,0.100000,0,0,0.000000,3,1.000000,0.000000,6.711795,0,0,0,0,0,0,0
7,79999,46,70000,31,20000,0,9999,0.100000,0,0,0.000000,3,0.000000,0.000000,0.341789,0,0,0,0,0,0,0
7,79999,47,70000,0,20000,0,9999,0.100000,0,0,0.000000,3,0.000000,0.000000,0.960803,0,0,0,0,0,0,0
7,79999,48,70000,31,20000,0,9999,0.100000,0,0,0.000000,3,0.000000,0.000000,0.491167,0,0,0,0,0,0,0
7,79999,49,70000,0,20000,0,9999,0.100000,0,0,0.000000,3,0.000000,0.000000,0.908193,0,0,0,0,0,0,0
7,79999,50,70000,58,0,0,9999,0.100000,0,0,0.000000,3,0.000000,0.000000,2.006262,0,0,0,0,0,0,0
7,79999,51,70000,58,0,3,9999,0.100000,0,0,36.905392,3,4.000000,0.000000,15.305200,0,0,1,0,0,0,0
7,79999,52,70000,0,20000,0,9999,0.100000,0,0,0.000000,3,0.000000,0.000000,3.126260,0,0,0,0,0,0,0
7,79999,53,70000,0,20000,1,9999,0.100000,0,0,0.000000,3,1.000000,0.000000,3.933802,0,0,0,0,0,0,0
7,79999,54,70000,58,0,0,9999,0.100000,0,0,0.000000,3,0.000000,0.000000,1.017632,0,0,0,0,0,0,0
7,79999,55,70000,31,20000,0,9999,0.100000,0,0,0.000000,3,0.000000,0.000000,8.384402,0,0,0,0,0,0,0
7,79999,56,70000,31,20000,1,9999,0.100000,0,0,0.000000,3,1.000000,0.000000,5.722663,0,0,0,0,0,0,0
7,79999,57,70000,58,0,0,9999,0.100000,0,0,0.000000,3,0.000000,0.000000,5.739464,0,0,0,0,0,0,0
7,79999,58,70000,0,20000,1,9999,0.100000,0,0,0.000000,3,1.000000,0.000000,15.378816,0,0,0,0,0,0,0
7,79999,59,70000,58,0,0,9999,0.100000,0,0,0.000000,3,0.000000,0.000000,0.297930,0,0,0,0,0,0,0
7,79999,60,70000,31,20000,1,9999,0.100000,0,0,0.000000,3,4.000000,0.000000,7.743128,0,0,0,0,0,0,0
7,79999,61,70000,0,20000,1,9999,0.100000,0,0,0.000000,3,1.000000,0.000000,5.483402,0,0,0,0,9,0,0
7,79999,62,70000,58,0,1,9999,0.100000,0,0,0.000000,3,3.000000,0.000000,13.486287,0,0,0,0,0,0,0
7,79999,63,70000,31,20000,1,9999,0.100000,0,0,0.000000,3,5.000000,0.000000,6.820573,0,0,0,0,0,0,0
7,79999,64,70000,58,0,0,9999,0.100000,0,0,0.000000,3,0.000000,0.000000,0.361619,0,0,0,0,0,0,0
7,79999,65,70000,58,0,1,9999,0.100000,0,0,0.000000,3,6.000000,0.000000,11.496258,0,0,0,0,0,0,0
7,79999,66,70000,31,20000,0,9999,0.100000,0,0,0.000000,3,0.000000,0.000000,0.009556,0,0,0,0,0,0,0
7,79999,67,70000,58,0,0,9999,0.100000,0,0,0.000000,3,0.000000,0.000000,0.524969,0,0,0,0,0,0,0
7,79999,68,70000,31,20000,0,9999,0.100000,0,0,0.000000,3,0.000000,0.000000,0.977861,0,0,0,0,0,0,0
7,79999,69,70000,58,0,1,9999,0.100000,0,0,0.000000,3,3.000000,0.000000,7.872622,0,0,0,0,0,0,0
7,79999,70,70000,0,20000,0,9999,0.100000,0,0,0.000000,3,0.000000,0.000000,0.110853,0,0,0,0,0,0,0
7,79999,71,70000,31,20000,0,9999,0.100000,0,0,0.000000,3,0.000000,0.000000,0.884307,0,0,0,0,0,0,0
7,79999,72,70000,0,20000,1,9999,0.100000,0,0,0.000000,3,4.000000,0.000000,5.810012,0,0,0,0,0,0,0
7,79999,73,70000,31,20000,0,9999,0.100000,0,0,0.000000,3,0.000000,0.000000,1.030162,0,0,0,0,0,0,0
7,79999,74,70000,31,20000,1,9999,0.100000,0,0,0.000000,3,4.000000,0.000000,11.825987,0,0,0,0,0,0,0
7,79999,75,70000,31,20000,1,9999,0.100000,0,0,0.000000,3,3.000000,0.000000,7.614524,0,0,0,0,0,0,0
7,79999,76,70000,58,0,1,9999,0.100000,0,0,0.000000,3,4.000000,0.000000,9.970885,0,0,0,0,0,0,0
7,79999,77,70000,31,20000,1,9999,0.100000,0,0,0.000000,3,2.000000,0.000000,6.403072,0,0,0,0,0,0,0
7,79999,78,70000,58,0,0,9999,0.100000,0,0,0.000000,3,0.000000,0.000000,0.769955,0,0,0,0,0,0,0
7,79999,79,70000,58,0,0,9999,0.100000,0,0,0.000000,3,0.000000,0.000000,5.519994,0,0,0,0,0,0,0
7,79999,80,70000,31,20000,1,9999,0.100000,0,0,0.000000,3,7.000000,0.000000,13.764020,0,0,0,0,0,0,0
7,79999,81,70000,0,20000,0,9999,0.100000,0,0,0.000000,3,0.000000,0.000000,0.680326,0,0,0,0,0,0,0
7,79999,82,70000,58,0,1,9999,0.100000,0,0,0.000000,3,3.000000,0.000000,19.999362,0,0,0,0,0,0,0
7,79999,83,70000,31,20000,0,9999,0.100000,0,0,0.000000,3,0.000000,0.000000,0.552643,0,0,0,0,0,0,0
7,79999,84,70000,31,20000,0,9999,0.100000,0,0,0.000000,3,0.000000,0.000000,0.238402,0,0,0,0,0,0,0
7,79999,85,70000,58,0,0,9999,0.100000,0,0,0.000000,3,0.000000,0.000000,3.308669,0,0,0,0,0,0,0
7,79999,86,70000,58,0,0,9999,0.100000,0,0,0.000000,3,0.000000,0.000000,2.970943,0,0,0,0,0,0,0
7,79999,87,70000,0,20000,0,9999,0.100000,0,0,0.000000,3,0.000000,0.000000,0.238546,0,0,0,0,0,0,0
7,79999,88,70000,58,0,0,9999,0.100000,0,0,0.000000,3,0.000000,0.000000,0.704348,0,0,0,0,0,0,0
7,79999,89,70000,58,0,0,9999,0.100000,0,0,0.000000,3,0.000000,0.000000,1.596517,0,0,0,0,0,0,0
7,79999,90,70000,31,20000,1,9999,0.100000,0,0,0.000000,3,5.000000,0.000000,8.619533,0,0,0,0,0,0,0
7,79999,91,70000,0,20000,0,9999,0.100000,0,0,0.000000,3,0.000000,0.000000,1.252312,0,0,0,0,0,0,0
7,79999,92,70000,0,20000,0,9999,0.100000,0,0,0.000000,3,0.000000,0.000000,0.502068,0,0,0,0,0,0,0
7,79999,93,70000,31,20000,1,9999,0.100000,0,0,0.000000,3,1.000000,0.000000,6.645054,0,0,0,0,0,0,0
7,79999,94,70000,31,20000,1,9999,0.100000,0,0,0.000000,3,2.000000,0.000000,14.630592,0,0,0,0,0,0,0
7,79999,95,70000,31,20000,1,9999,0.100000,0,0,0.000000,3,1.000000,0.000000,4.309808,0,0,0,0,0,0,0
7,79999,96,70000,0,20000,1,9999,0.100000,0,0,0.000000,3,3.000000,0.000000,4.415499,0,0,0,0,0,0,0
7,79999,97,70000,31,20000,0,9999,0.100000,0,0,0.000000,3,0.000000,0.000000,3.464968,0,0,0,0,0,0,0
7,79999,98,70000,31,20000,0,9999,0.100000,0,0,0.000000,3,0.000000,0.000000,2.191635,0,0,0,0,0,0,0
7,79999,99,70000,31,20000,0,9999,0.100000,0,0,0.000000,3,0.000000,0.000000,0.578167,0,0,0,0,0,0,0
8,89999,0,80000,31,20000,0,9999,0.100000,0,0,0.000000,3,0.000000,0.000000,0.189260,0,0,0,0,0,0,0
8,89999,1,80000,31,20000,0,9999,0.100000,0,0,0.000000,3,0.000000,0.000000,1.009065,0,0,0,0,0,0,0
8,89999,2,80000,0,20000,1,9999,0.100000,0,0,0.000000,3,4.000000,0.000000,7.999536,0,0,0,0,0,0,0
8,89999,3,80000,0,20000,1,9999,0.100000,0,0,0.000000,3,2.000000,0.000000,4.441389,0,0,0,0,0,0,0
8,89999,4,80000,31,20000,0,9999,0.100000,0,0,0.000000,3,0.000000,0.000000,3.852005,0,0,0,0,0,0,0
8,89999,5,80000,58,0,1,9999,0.100000,0,0,0.000000,3,2.000000,0.000000,10.218939,0,0,0,0,0,0,0
8,89999,6,80000,31,20000,1,9999,0.100000,0,0,0.000000,3,1.000000,0.000000,2.751813,0,0,0,0,0,0,0
8,89999,7,80000,0,20000,1,9999,0.100000,0,0,0.000000,3,3.000000,0.000000,4.043915,0,0,0,0,0,0,0
8,89999,8,80000,0,20000,0,9999,0.100000,0,0,0.000000,3,0.000000,0.000000,2.728348,0,0,0,0,0,0,0
8,89999,9,80000,31,20000,1,9999,0.100000,0,0,0.000000,3,1.000000,0.000000,7.516538,0,0,0,0,0,0,0
8,89999,10,80000,58,0,1,9999,0.100000,0,0,0.000000,3,3.000000,0.000000,4.325935,0,0,0,0,0,0,0
8,89999,11,80000,31,20000,0,9999,0.100000,0,0,0.000000,3,0.000000,0.000000,0.093433,0,0,0,0,0,0,0
8,89999,12,80000,58,0,0,9999,0.100000,0,0,0.000000,3,0.000000,0.000000,0.590237,0,0,0,0,0,0,0
8,89999,13,80000,31,20000,0,9999,0.100000,0,0,0.000000,3,0.000000,0.000000,0.223779,0,0,0,0,0,0,0
8,89999,14,80000,58,0,1,9999,0.100000,0,0,0.000000,3,4.000000,0.000000,15.066443,0,0,0,0,0,0,0
8,89999,15,80000,31,20000,1,9999,0.100000,0,0,0.000000,3,2.000000,0.000000,5.777705,0,0,0,0,0,0,0
8,89999,16,80000,31,20000,1,9999,0.100000,0,0,0.000000,3,2.000000,0.000000,4.782863,0,0,0,0,0,0,0
8,89999,17,80000,0,20000,0,9999,0.100000,0,0,0.000000,3,0.000000,0.000000,2.985062,0,0,0,0,0,0,0
8,89999,18,80000,0,20000,1,9999,0.100000,0,0,0.000000,3,1.000000,0.000000,2.560468,0,0,0,0,0,0,0
8,89999,19,80000,31,20000,1,9999,0.100000,0,0,0.000000,3,11.000000,0.000000,13.969642,0,0,0,0,0,0,0
8,89999,20,80000,0,20000,0,9999,0.100000,0,0,0.000000,3,0.000000,0.000000,0.398004,0,0,0,0,0,0,0
8,89999,21,80000,58,0,0,9999,0.100000,0,0,0.000000,3,0.000000,0.000000,0.830786,0,0,0,0,0,0,0
8,89999,22,80000,58,0,1,9999,0.100000,0,0,0.000000,3,1.000000,0.000000,6.729614,0,0,0,0,0,0,0
8,89999,23,80000,0,20000,0,9999,0.100000,0,0,0.000000,3,0.000000,0.000000,1.969105,0,0,0,0,0,0,0
8,89999,24,80000,31,20000,0,9999,0.100000,0,0,0.000000,3,0.000000,0.000000,0.609209,0,0,0,0,0,0,0
8,89999,25,80000,58,0,1,9999,0.100000,0,0,0.000000,3,4.000000,0.000000,15.539354,0,0,0,0,1,0,0
8,89999,26,80000,58,0,1,9999,0.100000,0,0,0.000000,3,1.000000,0.000000,3.913394,0,0,0,0,0,0,0
8,89999,27,80000,58,0,1,9999,0.100000,0,0,0.000000,3,2.000000,0.000000,2.200516,0,0,0,0,0,0,0
8,89999,28,80000,31,20000,1,9999,0.100000,0,0,0.000000,3,2.000000,0.000000,4.485931,0,0,0,0,0,0,0
8,89999,29,80000,58,0,1,9999,0.100000,0,0,0.000000,3,4.000000,0.000000,12.709444,0,0,0,0,0,0,0
8,89999,30,80000,0,20000,1,9999,0.100000,0,0,0.000000,3,2.000000,0.000000,13.689557,0,0,0,0,0,0,0
8,89999,31,80000,31,20000,0,9999,0.100000,0,0,0.000000,3,0.000000,0.000000,0.465786,0,0,0,0,0,0,0
8,89999,32,80000,58,0,1,9999,0.100000,0,0,0.000000,3,11.000000,0.000000,14.342504,0,0,0,0,0,0,0
8,89999,33,80000,58,0,0,9999,0.100000,0,0,0.000000,3,0.000000,0.000000,2.917180,0,0,0,0,0,0,0
8,89999,34,80000,58,0,1,9999,0.100000,0,0,34.210526,3,7.000000,0.000000,13.984306,0,0,0,0,1,0,0
8,89999,35,80000,58,0,1,9999,0.100000,0,0,0.000000,3,2.000000,0.000000,2.716988,0,0,0,0,0,0,0
8,89999,36,80000,0,20000,1,9999,0.100000,0,0,0.000000,3,1.000000,0.000000,4.776065,0,0,0,0,1,0,0
8,89999,37,80000,58,0,0,9999,0.100000,0,0,0.000000,3,0.000000,0.000000,0.926886,0,0,0,0,0,0,0
8,89999,38,80000,31,20000,0,9999,0.100000,0,0,0.000000,3,0.000000,0.000000,0.355262,0,0,0,0,0,0,0
8,89999,39,80000,31,20000,1,9999,0.100000,0,0,34.210526,3,7.000000,0.000000,11.484788,0,0,0,0,2,0,0
8,89999,40,80000,0,20000,0,9999,0.100000,0,0,0.000000,3,0.000000,0.000000,9.875940,0,0,0,0,0,0,0
8,89999,41,80000,31,20000,1,9999,0.100000,0,0,0.000000,3,1.000000,0.000000,3.746737,0,0,0,0,0,0,0
8,89999,42,80000,58,0,1,9999,0.100000,0,0,0.000000,3,3.000000,0.000000,5.469682,0,0,0,0,0,0,0
8,89999,43,80000,31,20000,0,9999,0.100000,0,0,0.000000,3,0.000000,0.000000,0.075011,0,0,0,0,0,0,0
8,89999,44,80000,31,20000,1,9999,0.100000,0,0,0.000000,3,4.000000,0.000000,12.109139,0,0,0,0,0,0,0
8,89999,45,80000,58,0,1,9999,0.100000,0,0,0.000000,3,2.000000,0.000000,12.812974,0,0,0,0,0,0,0
8,89999,46,80000,31,20000,0,9999,0.100000,0,0,0.000000,3,0.000000,0.000000,1.076915,0,0,0,0,0,0,0
8,89999,47,80000,31,20000,0,9999,0.100000,0,0,0.000000,3,0.000000,0.000000,1.114395,0,0,0,0,0,0,0
8,89999,48,80000,58,0,1,9999,0.100000,0,0,0.000000,3,2.000000,0.000000,2.416114,0,0,0,0,0,0,0
8,89999,49,80000,58,0,0,9999,0.100000,0,0,0.000000,3,0.000000,0.000000,0.895615,0,0,0,0,0,0,0
8,89999,50,80000,0,20000,0,9999,0.100000,0,0,0.000000,3,0.000000,0.000000,4.679027,0,0,0,0,0,0,0
8,89999,51,80000,31,20000,1,9999,0.100000,0,0,0.000000,3,4.000000,0.000000,12.850718,0,0,0,0,0,0,0
8,89999,52,80000,58,0,1,9999,0.100000,0,0,0.000000,3,6.000000,0.000000,11.429059,0,0,0,0,0,0,0
8,89999,53,80000,0,20000,0,9999,0.100000,0,0,0.000000,3,0.000000,0.000000,1.416205,0,0,0,0,0,0,0
8,89999,54,80000,58,0,0,9999,0.100000,0,0,0.000000,3,0.000000,0.000000,1.020714,0,0,0,0,0,0,0
8,89999,55,80000,58,0,1,9999,0.100000,0,0,0.000000,3,1.000000,0.000000,8.152374,0,0,0,0,0,0,0
8,89999,56,80000,0,20000,1,9999,0.100000,0,0,0.000000,3,5.000000,0.000000,11.792699,0,0,0,0,0,0,0
8,89999,57,80000,58,0,0,9999,0.100000,0,0,0.000000,3,0.000000,0.000000,6.053356,0,0,0,0,0,0,0
8,89999,58,80000,0,20000,0,9999,0.100000,0,0,0.000000,3,0.000000,0.000000,12.139010,0,0,0,0,0,0,0
8,89999,59,80000,31,20000,0,9999,0.100000,0,0,0.000000,3,0.000000,0.000000,0.549497,0,0,0,0,0,0,0
8,89999,60,80000,0,20000,0,9999,0.100000,0,0,0.000000,3,0.000000,0.000000,5.730328,0,0,0,0,0,0,0
8,89999,61,80000,58,0,0,9999,0.100000,0,0,0.000000,3,0.000000,0.000000,1.946970,0,0,0,1,1,0,0
8,89999,62,80000,0,20000,1,9999,0.100000,0,0,0.000000,3,3.000000,0.000000,9.012818,0,0,0,0,0,0,0
8,89999,63,80000,58,0,1,9999,0.100000,0,0,0.000000,3,2.000000,0.000000,4.358211,0,0,0,0,0,0,0
8,89999,64,80000,31,20000,0,9999,0.100000,0,0,0.000000,3,0.000000,0.000000,0.317090,0,0,0,0,0,0,0
8,89999,65,80000,0,20000,1,9999,0.100000,0,0,0.000000,3,1.000000,0.000000,8.365789,0,0,0,0,0,0,0
8,89999,66,80000,31,20000,0,9999,0.100000,0,0,0.000000,3,0.000000,0.000000,0.009556,0,0,0,0,0,0,0
8,89999,67,80000,0,20000,0,9999,0.100000,0,0,0.000000,3,0.000000,0.000000,0.395278,0,0,0,0,0,0,0
8,89999,68,80000,0,20000,0,9999,0.135000,0,0,0.000000,3,0.000000,0.000000,0.063234,0,0,0,0,0,0,0
8,89999,69,80000,58,0,0,9999,0.100000,0,0,0.000000,3,0.000000,0.000000,3.707511,0,0,0,0,0,0,0
8,89999,70,80000,31,20000,0,9999,0.100000,0,0,0.000000,3,0.000000,0.000000,0.105564,0,0,0,0,0,0,0
8,89999,71,80000,58,0,1,9999,0.100000,0,0,0.000000,3,3.000000,0.000000,8.066530,0,0,0,0,0,0,0
8,89999,72,80000,58,0,1,9999,0.100000,0,0,0.000000,3,3.000000,0.000000,4.708306,0,0,0,0,0,0,0
8,89999,73,80000,0,20000,0,9999,0.100000,0,0,0.000000,3,0.000000,0.000000,0.985821,0,0,0,0,0,0,0
8,89999,74,80000,58,0,0,9999,0.100000,0,0,0.000000,3,0.000000,0.000000,1.280530,0,0,0,0,0,0,0
8,89999,75,80000,0,20000,1,9999,0.100000,0,0,0.000000,3,1.000000,0.000000,13.504082,0,0,0,0,0,0,0
8,89999,76,80000,31,20000,0,9999,0.100000,0,0,0.000000,3,0.000000,0.000000,0.247710,0,0,0,0,0,0,0
8,89999,77,80000,31,20000,1,9999,0.100000,0,0,0.000000,3,3.000000,0.000000,12.300900,0,0,0,0,0,0,0
8,89999,78,80000,31,20000,0,9999,0.100000,0,0,0.000000,3,0.000000,0.000000,0.612060,0,0,0,0,0,0,0
8,89999,79,80000,58,0,0,9999,0.100000,0,0,0.000000,3,0.000000,0.000000,0.385574,0,0,0,0,0,0,0
8,89999,80,80000,31,20000,0,9999,0.100000,0,0,0.000000,3,0.000000,0.000000,6.337895,0,0,0,0,0,0,0
8,89999,81,80000,0,20000,0,9999,0.100000,0,0,0.000000,3,0.000000,0.000000,0.673060,0,0,0,0,0,0,0
8,89999,82,80000,58,0,0,9999,0.100000,0,0,0.000000,3,0.000000,0.000000,8.957921,0,0,0,0,0,0,0
8,89999,83,80000,0,20000,1,9999,0.100000,0,0,0.000000,3,1.000000,0.000000,9.708181,0,0,0,0,0,0,0
8,89999,84,80000,58,0,0,9999,0.100000,0,0,0.000000,3,0.000000,0.000000,0.244165,0,0,0,0,0,0,0
8,89999,85,80000,0,20000,0,9999,0.100000,0,0,0.000000,3,0.000000,0.000000,2.808274,0,0,0,0,0,0,0
8,89999,86,80000,31,20000,1,9999,0.100000,0,0,0.000000,3,1.000000,0.000000,5.385343,0,0,0,0,0,0,0
8,89999,87,80000,0,20000,0,9999,0.100000,0,0,0.000000,3,0.000000,0.000000,0.314601,0,0,0,0,0,0,0
8,89999,88,80000,0,20000,0,9999,0.100000,0,0,0.000000,3,0.000000,0.000000,0.061159,0,0,0,0,0,0,0
8,89999,89,80000,31,20000,0,9999,0.100000,0,0,0.000000,3,0.000000,0.000000,1.382352,0,0,0,0,0,0,0
8,89999,90,80000,0,20000,0,9999,0.100000,0,0,0.000000,3,0.000000,0.000000,1.748142,0,0,0,0,0,0,0
8,89999,91,80000,31,20000,0,9999,0.100000,0,0,0.000000,3,0.000000,0.000000,0.491371,0,0,0,0,0,0,0
8,89999,92,80000,31,20000,0,9999,0.100000,0,0,0.000000,3,0.000000,0.000000,0.504603,0,0,0,0,0,0,0
8,89999,93,80000,58,0,1,9999,0.100000,0,0,0.000000,3,1.000000,0.000000,10.067031,0,0,0,0,0,0,0
8,89999,94,80000,31,20000,0,9999,0.100000,0,0,0.000000,3,0.000000,0.000000,9.573584,0,0,0,0,0,0,0
8,89999,95,80000,58,0,0,9999,0.100000,0,0,0.000000,3,0.000000,0.000000,0.609167,0,0,0,0,0,0,0
8,89999,96,80000,0,20000,1,9999,0.100000,0,0,0.000000,3,3.000000,0.000000,4.003869,0,0,0,0,0,0,0
8,89999,97,80000,0,20000,1,9999,0.100000,0,0,34.210526,3,7.000000,0.000000,18.245017,0,0,0,0,1,0,0
8,89999,98,80000,31,20000,0,9999,0.100000,0,0,0.000000,3,0.000000,0.000000,3.418151,0,0,0,0,0,0,0
8,89999,99,80000,31,20000,0,9999,0.100000,0,0,0.000000,3,0.000000,0.000000,1.065307,0,0,0,0,0,0,0
9,99999,0,90000,58,0,0,9999,0.100000,0,0,0.000000,3,0.000000,0.000000,0.170397,0,0,0,0,0,0,0
9,99999,1,90000,0,20000,0,9999,0.100000,0,0,0.000000,3,0.000000,0.000000,0.983812,0,0,0,0,0,0,0
9,99999,2,90000,31,20000,1,9999,0.100000,0,0,0.000000,3,1.000000,0.000000,8.854980,0,0,0,0,0,0,0
9,99999,3,90000,58,0,1,9999,0.100000,0,0,0.000000,3,1.000000,0.000000,2.908968,0,0,0,0,0,0,0
9,99999,4,90000,58,0,1,9999,0.100000,0,0,0.000000,3,1.000000,0.000000,5.194614,0,0,0,0,0,0,0
9,99999,5,90000,31,20000,1,9999,0.100000,0,0,0.000000,3,1.000000,0.000000,2.704073,0,0,0,0,0,0,0
9,99999,6,90000,31,20000,1,9999,0.100000,0,0,0.000000,3,4.000000,0.000000,9.466108,0,0,0,0,0,0,0
9,99999,7,90000,58,0,0,9999,0.100000,0,0,0.000000,3,0.000000,0.000000,1.046124,0,0,0,0,0,0,0
9,99999,8,90000,0,20000,1,9999,0.100000,0,0,0.000000,3,1.000000,0.000000,11.800902,0,0,0,0,0,0,0
9,99999,9,90000,31,20000,1,9999,0.100000,0,0,0.000000,3,2.000000,0.000000,11.494397,0,0,0,0,0,0,0
9,99999,10,90000,0,20000,0,9999,0.100000,0,0,0.000000,3,0.000000,0.000000,1.481616,0,0,0,0,0,0,0
9,99999,11,90000,31,20000,0,9999,0.100000,0,0,0.000000,3,0.000000,0.000000,0.093679,0,0,0,0,0,0,0
9,99999,12,90000,0,20000,0,9999,0.100000,0,0,0.000000,3,0.000000,0.000000,0.854953,0,0,0,0,0,0,0
9,99999,13,90000,58,0,0,9999,0.100000,0,0,0.000000,3,0.000000,0.000000,0.233822,0,0,0,0,0,0,0
9,99999,14,90000,31,20000,1,9999,0.100000,0,0,0.000000,3,4.000000,0.000000,11.608113,0,0,0,0,0,0,0
9,99999,15,90000,31,20000,0,9999,0.100000,0,0,0.000000,3,0.000000,0.000000,1.957936,0,0,0,0,0,0,0
9,99999,16,90000,31,20000,0,9999,0.100000,0,0,0.000000,3,0.000000,0.000000,0.865046,0,0,0,0,0,0,0
9,99999,17,90000,31,20000,1,9999,0.100000,0,0,0.000000,3,3.000000,0.000000,14.767855,0,0,0,0,0,0,0
9,99999,18,90000,58,0,0,9999,0.100000,0,0,0.000000,3,0.000000,0.000000,3.786789,0,0,0,0,0,0,0
9,99999,19,90000,0,20000,1,9999,0.100000,0,0,0.000000,3,1.000000,0.000000,3.260590,0,0,0,0,0,0,0
9,99999,20,90000,31,20000,0,9999,0.100000,0,0,0.000000,3,0.000000,0.000000,1.802614,0,0,0,0,0,0,0
9,99999,21,90000,0,20000,0,9999,0.100000,0,0,0.000000,3,0.000000,0.000000,1.721999,0,0,0,0,0,0,0
9,99999,22,90000,0,20000,1,9999,0.100000,0,0,0.000000,3,5.000000,0.000000,7.299315,0,0,0,0,0,0,0
9,99999,23,90000,58,0,0,9999,0.100000,0,0,0.000000,3,0.000000,0.000000,0.977923,0,0,0,0,0,0,0
9,99999,24,90000,0,20000,0,9999,0.100000,0,0,0.000000,3,0.000000,0.000000,0.839901,0,0,0,0,0,0,0
9,99999,25,90000,58,0,1,9999,0.100000,0,0,0.000000,3,1.000000,0.000000,15.975460,0,0,0,0,0,0,0
9,99999,26,90000,31,20000,0,9999,0.100000,0,0,0.000000,3,0.000000,0.000000,1.719732,0,0,0,0,0,0,0
9,99999,27,90000,0,20000,0,9999,0.100000,0,0,0.000000,3,0.000000,0.000000,0.979589,0,0,0,0,0,0,0
9,99999,28,90000,58,0,0,9999,0.100000,0,0,0.000000,3,0.000000,0.000000,0.996243,0,0,0,0,0,0,0
9,99999,29,90000,0,20000,1,9999,0.100000,0,0,0.000000,3,3.000000,0.000000,11.838609,0,0,0,0,0,0,0
9,99999,30,90000,0,20000,1,9999,0.100000,0,0,0.000000,3,1.000000,0.000000,10.109378,0,0,0,0,0,0,0
9,99999,31,90000,0,20000,0,9999,0.100000,0,0,0.000000,3,0.000000,0.000000,0.483208,0,0,0,0,0,0,0
9,99999,32,90000,31,20000,0,9999,0.100000,0,0,0.000000,3,0.000000,0.000000,0.742395,0,0,0,0,0,0,0
9,99999,33,90000,0,20000,1,9999,0.100000,0,0,0.000000,3,2.000000,0.000000,5.064808,0,0,0,0,0,0,0
9,99999,34,90000,58,0,1,9999,0.100000,0,0,0.000000,3,2.000000,0.000000,14.252895,0,0,0,0,0,0,0
9,99999,35,90000,0,20000,1,9999,0.100000,0,0,0.000000,3,1.000000,0.000000,1.183320,0,0,0,0,0,0,0
9,99999,36,90000,0,20000,0,9999,0.100000,0,0,0.000000,3,0.000000,0.000000,2.067011,0,0,0,0,0,0,0
9,99999,37,90000,31,20000,0,9999,0.100000,0,0,0.000000,3,0.000000,0.000000,1.178561,0,0,0,0,0,0,0
9,99999,38,90000,0,20000,0,9999,0.100000,0,0,0.000000,3,0.000000,0.000000,0.701728,0,0,0,0,0,0,0
9,99999,39,90000,58,0,1,9999,0.100000,0,0,0.000000,3,1.000000,0.000000,6.393955,0,0,0,0,0,0,0
9,99999,40,90000,58,0,1,9999,0.100000,0,0,0.000000,3,1.000000,0.000000,2.057208,0,0,0,0,0,0,0
9,99999,41,90000,31,20000,1,9999,0.100000,0,0,0.000000,3,1.000000,0.000000,1.200849,0,0,0,0,0,0,0
9,99999,42,90000,58,0,0,9999,0.100000,0,0,0.000000,3,0.000000,0.000000,0.134364,0,0,0,0,0,0,0
9,99999,43,90000,0,20000,0,9999,0.100000,0,0,0.000000,3,0.000000,0.000000,0.078095,0,0,0,0,0,0,0
9,99999,44,90000,0,20000,1,9999,0.100000,0,0,0.000000,3,1.000000,0.000000,10.088820,0,0,0,0,0,0,0
9,99999,45,90000,0,20000,1,9999,0.100000,0,0,0.000000,3,1.000000,0.000000,22.170366,0,0,0,0,0,0,0
9,99999,46,90000,0,20000,0,9999,0.100000,0,0,0.000000,3,0.000000,0.000000,0.489790,0,0,0,0,0,0,0
9,99999,47,90000,0,20000,0,9999,0.100000,0,0,0.000000,3,0.000000,0.000000,1.853860,0,0,0,0,0,0,0
9,99999,48,90000,0,20000,0,9999,0.100000,0,0,0.000000,3,0.000000,0.000000,1.143366,0,0,0,0,0,0,0
9,99999,49,90000,31,20000,1,9999,0.100000,0,0,0.000000,3,2.000000,0.000000,3.335151,0,0,0,0,0,0,0
9,99999,50,90000,0,20000,0,9999,0.100000,0,0,0.000000,3,0.000000,0.000000,2.221136,0,0,0,0,0,0,0
9,99999,51,90000,58,0,0,9999,0.100000,0,0,0.000000,3,0.000000,0.000000,0.318977,0,0,0,0,0,0,0
9,99999,52,90000,0,20000,1,9999,0.100000,0,0,0.000000,3,1.000000,0.000000,11.770241,0,0,0,0,0,0,0
9,99999,53,90000,0,20000,0,9999,0.100000,0,0,0.000000,3,0.000000,0.000000,1.109734,0,0,0,0,0,0,0
9,99999,54,90000,0,20000,0,9999,0.100000,0,0,0.000000,3,0.000000,0.000000,1.967940,0,0,0,0,0,0,0
9,99999,55,90000,58,0,1,9999,0.100000,0,0,0.000000,3,1.000000,0.000000,7.402619,0,0,0,0,0,0,0
9,99999,56,90000,31,20000,1,9999,0.100000,0,0,0.000000,3,2.000000,0.000000,9.018136,0,0,0,0,0,0,0
9,99999,57,90000,0,20000,0,9999,0.100000,0,0,0.000000,3,0.000000,0.000000,5.935870,0,0,0,0,0,0,0
9,99999,58,90000,31,20000,0,9999,0.100000,0,0,0.000000,3,0.000000,0.000000,9.945568,0,0,0,0,0,0,0
9,99999,59,90000,0,20000,0,9999,0.100000,0,0,0.000000,3,0.000000,0.000000,0.413219,0,0,0,0,0,0,0
9,99999,60,90000,58,0,0,9999,0.100000,0,0,0.000000,3,0.000000,0.000000,2.920968,0,0,0,0,0,0,0
9,99999,61,90000,31,20000,0,9999,0.100000,0,0,0.000000,3,0.000000,0.000000,7.968797,0,0,0,0,0,0,0
9,99999,62,90000,0,20000,0,9999,0.100000,0,0,0.000000,3,0.000000,0.000000,0.693224,0,0,0,0,0,0,0
9,99999,63,90000,31,20000,1,9999,0.100000,0,0,0.000000,3,1.000000,0.000000,6.982332,0,0,0,0,0,0,0
9,99999,64,90000,58,0,0,9999,0.100000,0,0,0.000000,3,0.000000,0.000000,0.245948,0,0,0,0,0,0,0
9,99999,65,90000,0,20000,1,9999,0.100000,0,0,0.000000,3,3.000000,0.000000,15.294081,0,0,0,0,0,0,0
9,99999,66,90000,58,0,1,9999,0.100000,0,0,0.000000,3,1.000000,0.000000,5.364934,0,0,0,0,0,0,0
9,99999,67,90000,0,20000,0,9999,0.100000,0,0,0.000000,3,0.000000,0.000000,0.677407,0,0,0,0,0,0,0
9,99999,68,90000,31,20000,0,9999,0.100000,0,0,0.000000,3,0.000000,0.000000,0.063961,0,0,0,0,0,0,0
9,99999,69,90000,58,0,1,9999,0.100000,0,0,0.000000,3,1.000000,0.000000,11.579621,0,0,0,0,0,0,0
9,99999,70,90000,0,20000,0,9999,0.100000,0,0,0.000000,3,0.000000,0.000000,0.101929,0,0,0,0,0,0,0
9,99999,71,90000,31,20000,1,9999,0.100000,0,0,0.000000,3,1.000000,0.000000,14.674022,0,0,0,0,0,0,0
9,99999,72,90000,31,20000,0,9999,0.100000,0,0,0.000000,3,0.000000,0.000000,1.865435,0,0,0,0,0,0,0
9,99999,73,90000,31,20000,0,9999,0.100000,0,0,0.000000,3,0.000000,0.000000,1.598430,0,0,0,0,0,0,0
9,99999,74,90000,31,20000,0,9999,0.100000,0,0,0.000000,3,0.000000,0.000000,1.697926,0,0,0,0,0,0,0
9,99999,75,90000,31,20000,0,9999,0.100000,0,0,0.000000,3,0.000000,0.000000,11.933472,0,0,0,0,0,0,0
9,99999,76,90000,58,0,0,9999,0.100000,0,0,0.000000,3,0.000000,0.000000,0.319431,0,0,0,0,0,0,0
9,99999,77,90000,0,20000,0,9999,0.100000,0,0,0.000000,3,0.000000,0.000000,1.050588,0,0,0,0,0,0,0
9,99999,78,90000,0,20000,0,9999,0.100000,0,0,0.000000,3,0.000000,0.000000,0.847665,0,0,0,0,0,0,0
9,99999,79,90000,58,0,0,9999,0.100000,0,0,0.000000,3,0.000000,0.000000,0.258124,0,0,0,0,0,0,0
9,99999,80,90000,58,0,0,9999,0.100000,0,0,0.000000,3,0.000000,0.000000,1.024089,0,0,0,0,0,0,0
9,99999,81,90000,31,20000,0,9999,0.100000,0,0,0.000000,3,0.000000,0.000000,1.890122,0,0,0,0,0,0,0
9,99999,82,90000,58,0,0,9999,0.100000,0,0,0.000000,3,0.000000,0.000000,0.787837,0,0,0,0,0,0,0
9,99999,83,90000,58,0,0,9999,0.100000,0,0,0.000000,3,0.000000,0.000000,0.434433,0,0,0,0,0,0,0
9,99999,84,90000,0,20000,0,9999,0.100000,0,0,0.000000,3,0.000000,0.000000,0.229300,0,0,0,0,0,0,0
9,99999,85,90000,31,20000,0,9999,0.100000,0,0,0.000000,3,0.000000,0.000000,2.515203,0,0,0,0,0,0,0
9,99999,86,90000,31,20000,1,9999,0.100000,0,0,0.000000,3,1.000000,0.000000,5.697657,0,0,0,0,0,0,0
9,99999,87,90000,31,20000,0,9999,0.100000,0,0,0.000000,3,0.000000,0.000000,2.911470,0,0,0,0,0,0,0
9,99999,88,90000,31,20000,0,9999,0.100000,0,0,0.000000,3,0.000000,0.000000,0.067057,0,0,0,0,0,0,0
9,99999,89,90000,58,0,0,9999,0.100000,0,0,0.000000,3,0.000000,0.000000,2.512949,0,0,0,0,0,0,0
9,99999,90,90000,0,20000,0,9999,0.065000,0,0,0.000000,3,0.000000,0.000000,1.031062,0,0,0,0,0,0,0
9,99999,91,90000,58,0,0,9999,0.100000,0,0,0.000000,3,0.000000,0.000000,0.741799,0,0,0,0,0,0,0
9,99999,92,90000,31,20000,0,9999,0.100000,0,0,0.000000,3,0.000000,0.000000,1.275817,0,0,0,0,0,0,0
9,99999,93,90000,0,20000,1,9999,0.100000,0,0,0.000000,3,5.000000,0.000000,12.336625,0,0,0,0,0,0,0
9,99999,94,90000,31,20000,1,9999,0.100000,0,0,0.000000,3,1.000000,0.000000,7.824089,0,0,0,0,0,0,0
9,99999,95,90000,31,20000,0,9999,0.100000,0,0,0.000000,3,0.000000,0.000000,1.394682,0,0,0,0,0,0,0
9,99999,96,90000,0,20000,0,9999,0.100000,0,0,0.000000,3,0.000000,0.000000,1.238878,0,0,0,0,0,0,0
9,99999,97,90000,0,20000,0,9999,0.100000,0,0,0.000000,3,0.000000,0.000000,4.723646,0,0,0,0,0,0,0
9,99999,98,90000,58,0,0,9999,0.100000,0,0,0.000000,3,0.000000,0.000000,1.565725,0,0,0,0,0,0,0
9,99999,99,90000,31,20000,0,9999,0.100000,0,0,0.000000,3,0.000000,0.000000,0.834610,0,0,0,0,0,0,0
10,109999,0,100000,0,20000,0,9999,0.100000,0,0,0.000000,3,0.000000,0.000000,0.174397,0,0,0,0,0,0,0
10,109999,1,100000,58,0,0,9999,0.100000,0,0,0.000000,3,0.000000,0.000000,0.827868,0,0,0,0,0,0,0
10,109999,2,100000,58,0,0,9999,0.135000,0,0,0.000000,3,0.000000,0.000000,1.492729,0,0,0,0,0,0,0
10,109999,3,100000,58,0,0,9999,0.100000,0,0,0.000000,3,0.000000,0.000000,0.062301,0,0,0,0,0,0,0
10,109999,4,100000,31,20000,0,9999,0.100000,0,0,0.000000,3,0.000000,0.000000,5.278327,0,0,0,0,0,0,0
10,109999,5,100000,0,20000,1,9999,0.100000,0,0,0.000000,3,5.000000,0.000000,8.336129,0,0,0,0,0,0,0
10,109999,6,100000,58,0,1,9999,0.100000,0,0,0.000000,3,1.000000,0.000000,4.336557,0,0,0,0,0,0,0
10,109999,7,100000,31,20000,0,9999,0.100000,0,0,0.000000,3,0.000000,0.000000,0.926393,0,0,0,0,0,0,0
10,109999,8,100000,0,20000,0,9999,0.100000,0,0,0.000000,3,0.000000,0.000000,12.450402,0,0,0,0,0,0,0
10,109999,9,100000,31,20000,0,9999,0.100000,0,0,0.000000,3,0.000000,0.000000,0.829498,0,0,0,0,0,0,0
10,109999,10,100000,58,0,0,9999,0.100000,0,0,0.000000,3,0.000000,0.000000,0.901827,0,0,0,0,0,0,0
10,109999,11,100000,0,20000,0,9999,0.100000,0,0,0.000000,3,0.000000,0.000000,0.061002,0,0,0,0,0,0,0
10,109999,12,100000,31,20000,0,9999,0.100000,0,0,0.000000,3,0.000000,0.000000,0.720703,0,0,0,0,0,0,0
10,109999,13,100000,31,20000,0,9999,0.100000,0,0,0.000000,3,0.000000,0.000000,0.233254,0,0,0,0,0,0,0
10,109999,14,100000,31,20000,1,9999,0.100000,0,0,0.000000,3,3.000000,0.000000,5.638527,0,0,0,0,0,0,0
10,109999,15,100000,0,20000,1,9999,0.100000,0,0,0.000000,3,1.000000,0.000000,9.876062,0,0,0,0,0,0,0
10,109999,16,100000,0,20000,0,9999,0.100000,0,0,0.000000,3,0.000000,0.000000,2.784760,0,0,0,0,0,0,0
10,109999,17,100000,31,20000,0,9999,0.100000,0,0,0.000000,3,0.000000,0.000000,12.334402,0,0,0,0,0,0,0
10,109999,18,100000,31,20000,1,9999,0.100000,0,0,0.000000,3,1.000000,0.000000,3.754921,0,0,0,0,0,0,0
10,109999,19,100000,31,20000,0,9999,0.100000,0,0,0.000000,3,0.000000,0.000000,2.960335,0,0,0,0,0,0,0
10,109999,20,100000,31,20000,0,9999,0.100000,0,0,0.000000,3,0.000000,0.000000,3.608459,0,0,0,0,0,0,0
10,109999,21,100000,58,0,0,9999,0.100000,0,0,0.000000,3,0.000000,0.000000,2.103167,0,0,0,0,0,0,0
10,109999,22,100000,0,20000,0,9999,0.100000,0,0,0.000000,3,0.000000,0.000000,0.938850,0,0,0,0,0,0,0
10,109999,23,100000,0,20000,0,9999,0.100000,0,0,0.000000,3,0.000000,0.000000,1.059908,0,0,0,0,0,0,0
10,109999,24,100000,58,0,0,9999,0.100000,0,0,0.000000,3,0.000000,0.000000,0.703081,0,0,0,0,0,0,0
10,109999,25,100000,31,20000,0,9999,0.100000,0,0,0.000000,3,0.000000,0.000000,0.500649,0,0,0,0,0,0,0
10,109999,26,100000,31,20000,0,9999,0.100000,0,0,0.000000,3,0.000000,0.000000,3.828735,0,0,0,0,0,0,0
10,109999,27,100000,31,20000,0,9999,0.100000,0,0,0.000000,3,0.000000,0.000000,0.073444,0,0,0,0,0,0,0
10,109999,28,100000,0,20000,0,9999,0.100000,0,0,0.000000,3,0.000000,0.000000,1.873450,0,0,0,0,0,0,0
10,109999,29,100000,58,0,1,9999,0.100000,0,0,0.000000,3,1.000000,0.000000,9.286077,0,0,0,0,0,0,0
10,109999,30,100000,58,0,1,9999,0.100000,0,0,0.000000,3,3.000000,0.000000,10.617022,0,0,0,0,0,0,0
10,109999,31,100000,31,20000,0,9999,0.100000,0,0,0.000000,3,0.000000,0.000000,2.853782,0,0,0,0,0,0,0
10,109999,32,100000,31,20000,0,9999,0.100000,0,0,0.000000,3,0.000000,0.000000,2.936077,0,0,0,0,0,0,0
10,109999,33,100000,0,20000,0,9999,0.100000,0,0,0.000000,3,0.000000,0.000000,0.986686,0,0,0,0,0,0,0
10,109999,34,100000,0,20000,1,9999,0.100000,0,0,0.000000,3,4.000000,0.000000,7.693525,0,0,0,0,0,0,0
10,109999,35,100000,0,20000,0,9999,0.100000,0,0,0.000000,3,0.000000,0.000000,0.075569,0,0,0,0,0,0,0
10,109999,36,100000,0,20000,0,9999,0.100000,0,0,0.000000,3,0.000000,0.000000,0.143337,0,0,0,0,0,0,0
10,109999,37,100000,58,0,0,9999,0.100000,0,0,0.000000,3,0.000000,0.000000,4.962165,0,0,0,0,0,0,0
10,109999,38,100000,58,0,1,9999,0.100000,0,0,0.000000,3,1.000000,0.000000,7.793313,0,0,0,0,0,0,0
10,109999,39,100000,31,20000,0,9999,0.100000,0,0,0.000000,3,0.000000,0.000000,0.744783,0,0,0,0,0,0,0
10,109999,40,100000,31,20000,0,9999,0.100000,0,0,0.000000,3,0.000000,0.000000,0.960799,0,0,0,0,0,0,0
10,109999,41,100000,31,20000,1,9999,0.100000,0,0,0.000000,3,1.000000,0.000000,12.731537,0,0,0,0,0,0,0
10,109999,42,100000,31,20000,0,9999,0.100000,0,0,0.000000,3,0.000000,0.000000,0.135138,0,0,0,0,0,0,0
10,109999,43,100000,31,20000,0,9999,0.100000,0,0,0.000000,3,0.000000,0.000000,0.075508,0,0,0,0,0,0,0
10,109999,44,100000,31,20000,1,9999,0.100000,0,0,0.000000,3,8.000000,0.000000,10.366543,0,0,0,0,0,0,0
10,109999,45,100000,58,0,0,9999,0.100000,0,0,0.000000,3,0.000000,0.000000,6.017933,0,0,0,0,0,0,0
10,109999,46,100000,0,20000,0,9999,0.100000,0,0,0.000000,3,0.000000,0.000000,0.771671,0,0,0,0,0,0,0
10,109999,47,100000,58,0,0,9999,0.100000,0,0,0.000000,3,0.000000,0.000000,4.922643,0,0,0,0,0,0,0
10,109999,48,100000,58,0,0,9999,0.100000,0,0,0.000000,3,0.000000,0.000000,0.117720,0,0,0,0,0,0,0
10,109999,49,100000,0,20000,1,9999,0.100000,0,0,0.000000,3,3.000000,0.000000,5.987308,0,0,0,0,0,0,0
10,109999,50,100000,31,20000,0,9999,0.065000,0,0,0.000000,3,0.000000,0.000000,5.282312,0,0,0,0,0,0,0
10,109999,51,100000,0,20000,0,9999,0.100000,0,0,0.000000,3,0.000000,0.000000,0.318794,0,0,0,0,0,0,0
10,109999,52,100000,58,0,0,9999,0.100000,0,0,0.000000,3,0.000000,0.000000,3.986120,0,0,0,0,0,0,0
10,109999,53,100000,0,20000,1,9999,0.100000,0,0,0.000000,3,1.000000,0.000000,3.303637,0,0,0,0,0,0,0
10,109999,54,100000,58,0,0,9999,0.100000,0,0,0.000000,3,0.000000,0.000000,0.921084,0,0,0,0,0,0,0
10,109999,55,100000,58,0,0,9999,0.100000,0,0,0.000000,3,0.000000,0.000000,0.772544,0,0,0,0,0,0,0
10,109999,56,100000,0,20000,0,9999,0.100000,0,0,0.000000,3,0.000000,0.000000,8.846464,0,0,0,0,0,0,0
10,109999,57,100000,0,20000,0,9999,0.100000,0,0,0.000000,3,0.000000,0.000000,6.452526,0,0,0,0,0,0,0
10,109999,58,100000,31,20000,1,9999,0.100000,0,0,0.000000,3,1.000000,0.000000,9.147115,0,0,0,0,0,0,0
10,109999,59,100000,31,20000,0,9999,0.100000,0,0,0.000000,3,0.000000,0.000000,0.757088,0,0,0,0,0,0,0
10,109999,60,100000,31,20000,1,9999,0.100000,0,0,0.000000,3,7.000000,0.000000,11.864266,0,0,0,0,0,0,0
10,109999,61,100000,58,0,0,9999,0.100000,0,0,0.000000,3,0.000000,0.000000,6.962165,0,0,0,0,0,0,0
10,109999,62,100000,0,20000,0,9999,0.100000,0,0,0.000000,3,0.000000,0.000000,0.330134,0,0,0,0,0,0,0
10,109999,63,100000,58,0,1,9999,0.100000,0,0,0.000000,3,1.000000,0.000000,4.630966,0,0,0,0,0,0,0
10,109999,64,100000,31,20000,0,9999,0.100000,0,0,0.000000,3,0.000000,0.000000,0.227991,0,0,0,0,0,0,0
10,109999,65,100000,58,0,1,9999,0.100000,0,0,0.000000,3,1.000000,0.000000,7.218608,0,0,0,0,0,0,0
10,109999,66,100000,0,20000,0,9999,0.100000,0,0,0.000000,3,0.000000,0.000000,2.118444,0,0,0,0,0,0,0
10,109999,67,100000,58,0,0,9999,0.100000,0,0,0.000000,3,0.000000,0.000000,0.593658,0,0,0,0,0,0,0
10,109999,68,100000,0,20000,0,9999,0.100000,0,0,0.000000,3,0.000000,0.000000,0.062953,0,0,0,0,0,0,0
10,109999,69,100000,31,20000,1,9999,0.100000,0,0,0.000000,3,5.000000,0.000000,8.559136,0,0,0,0,0,0,0
10,109999,70,100000,0,20000,0,9999,0.100000,0,0,0.000000,3,0.000000,0.000000,0.099688,0,0,0,0,0,0,0
10,109999,71,100000,0,20000,1,9999,0.100000,0,0,0.000000,3,10.000000,0.000000,29.913637,0,0,0,0,0,0,0
10,109999,72,100000,0,20000,0,9999,0.100000,0,0,0.000000,3,0.000000,0.000000,1.074527,0,0,0,0,0,0,0
10,109999,73,100000,0,20000,1,9999,0.135000,0,0,0.000000,3,1.000000,0.000000,8.351680,0,0,0,0,0,0,0
10,109999,74,100000,31,20000,0,9999,0.100000,0,0,0.000000,3,0.000000,0.000000,1.408584,0,0,0,0,0,0,0
10,109999,75,100000,0,20000,1,9999,0.100000,0,0,0.000000,3,1.000000,0.000000,11.347853,0,0,0,0,0,0,0
10,109999,76,100000,0,20000,0,9999,0.100000,0,0,0.000000,3,0.000000,0.000000,2.735754,0,0,0,0,0,0,0
10,109999,77,100000,31,20000,0,9999,0.100000,0,0,0.000000,3,0.000000,0.000000,0.899442,0,0,0,0,0,0,0
10,109999,78,100000,31,20000,0,9999,0.100000,0,0,0.000000,3,0.000000,0.000000,0.701812,0,0,0,0,0,0,0
10,109999,79,100000,31,20000,0,9999,0.100000,0,0,0.000000,3,0.000000,0.000000,0.129969,0,0,0,0,0,0,0
10,109999,80,100000,31,20000,0,9999,0.100000,0,0,0.000000,3,0.000000,0.000000,1.001701,0,0,0,0,0,0,0
10,109999,81,100000,31,20000,0,9999,0.100000,0,0,0.000000,3,0.000000,0.000000,1.829756,0,0,0,0,0,0,0
10,109999,82,100000,31,20000,1,9999,0.100000,0,0,0.000000,3,1.000000,0.000000,5.856788,0,0,0,0,0,0,0
10,109999,83,100000,31,20000,0,9999,0.100000,0,0,0.000000,3,0.000000,0.000000,1.073427,0,0,0,0,0,0,0
10,109999,84,100000,31,20000,0,9999,0.100000,0,0,0.000000,3,0.000000,0.000000,0.689546,0,0,0,0,0,0,0
10,109999,85,100000,0,20000,0,9999,0.100000,0,0,0.000000,3,0.000000,0.000000,3.006290,0,0,0,0,0,0,0
10,109999,86,100000,0,20000,0,9999,0.100000,0,0,0.000000,3,0.000000,0.000000,2.500646,0,0,0,0,0,0,0
10,109999,87,100000,0,20000,0,9999,0.100000,0,0,0.000000,3,0.000000,0.000000,3.578543,0,0,0,0,0,0,0
10,109999,88,100000,58,0,0,9999,0.100000,0,0,0.000000,3,0.000000,0.000000,0.062224,0,0,0,0,0,0,0
10,109999,89,100000,58,0,1,9999,0.100000,0,0,0.000000,3,5.000000,0.000000,9.325494,0,0,0,0,0,0,0
10,109999,90,100000,0,20000,0,9999,0.100000,0,0,0.000000,3,0.000000,0.000000,1.655029,0,0,0,0,0,0,0
10,109999,91,100000,0,20000,0,9999,0.100000,0,0,0.000000,3,0.000000,0.000000,0.654101,0,0,0,0,0,0,0
10,109999,92,100000,58,0,0,9999,0.100000,0,0,0.000000,3,0.000000,0.000000,1.045418,0,0,0,0,0,0,0
10,109999,93,100000,31,20000,1,9999,0.100000,0,0,0.000000,3,1.000000,0.000000,10.087679,0,0,0,0,0,0,0
10,109999,94,100000,31,20000,0,9999,0.100000,0,0,0.000000,3,0.000000,0.000000,4.724621,0,0,0,0,0,0,0
10,109999,95,100000,58,0,0,9999,0.100000,0,0,0.000000,3,0.000000,0.000000,1.029834,0,0,0,0,0,0,0
10,109999,96,100000,0,20000,0,9999,0.100000,0,0,0.000000,3,0.000000,0.000000,1.069757,0,0,0,0,0,0,0
10,109999,97,100000,31,20000,0,9999,0.100000,0,0,0.000000,3,0.000000,0.000000,0.457213,0,0,0,0,0,0,0
10,109999,98,100000,0,20000,1,9999,0.100000,0,0,0.000000,3,2.000000,0.000000,7.656384,0,0,0,0,0,0,0
10,109999,99,100000,58,0,1,9999,0.100000,0,0,0.000000,3,3.000000,0.000000,14.625728,0,0,0,0,0,0,0
11,119999,0,110000,0,20000,0,9999,0.100000,0,0,0.000000,3,0.000000,0.000000,0.181821,0,0,0,0,0,0,0
11,119999,1,110000,58,0,0,9999,0.100000,0,0,0.000000,3,0.000000,0.000000,0.916318,0,0,0,0,0,0,0
11,119999,2,110000,0,20000,0,9999,0.100000,0,0,0.000000,3,0.000000,0.000000,0.242519,0,0,0,0,0,0,0
11,119999,3,110000,31,20000,0,9999,0.100000,0,0,0.000000,3,0.000000,0.000000,0.044755,0,0,0,0,0,0,0
11,119999,4,110000,58,0,0,9999,0.100000,0,0,0.000000,3,0.000000,0.000000,0.983876,0,0,0,0,0,0,0
11,119999,5,110000,0,20000,1,9999,0.100000,0,0,0.000000,3,2.000000,0.000000,9.868422,0,0,0,0,0,0,0
11,119999,6,110000,31,20000,1,9999,0.100000,0,0,0.000000,3,4.000000,0.000000,11.826910,0,0,0,0,0,0,0
11,119999,7,110000,0,20000,0,9999,0.100000,0,0,0.000000,3,0.000000,0.000000,0.750107,0,0,0,0,0,0,0
11,119999,8,110000,58,0,1,9999,0.100000,0,0,0.000000,3,2.000000,0.000000,7.079364,0,0,0,0,0,0,0
11,119999,9,110000,0,20000,0,9999,0.100000,0,0,0.000000,3,0.000000,0.000000,0.507550,0,0,0,0,0,0,0
11,119999,10,110000,31,20000,0,9999,0.100000,0,0,0.000000,3,0.000000,0.000000,0.669485,0,0,0,0,0,0,0
11,119999,11,110000,31,20000,0,9999,0.100000,0,0,0.000000,3,0.000000,0.000000,0.092257,0,0,0,0,0,0,0
11,119999,12,110000,31,20000,0,9999,0.100000,0,0,0.000000,3,0.000000,0.000000,1.438840,0,0,0,0,0,0,0
11,119999,13,110000,31,20000,0,9999,0.100000,0,0,0.000000,3,0.000000,0.000000,0.224482,0,0,0,0,0,0,0
11,119999,14,110000,0,20000,1,9999,0.100000,0,0,0.000000,3,4.000000,0.000000,6.519628,0,0,0,0,0,0,0
11,119999,15,110000,31,20000,0,9999,0.100000,0,0,0.000000,3,0.000000,0.000000,1.349630,0,0,0,0,0,0,0
11,119999,16,110000,58,0,0,9999,0.100000,0,0,0.000000,3,0.000000,0.000000,0.238673,0,0,0,0,0,0,0
11,119999,17,110000,0,20000,0,9999,0.100000,0,0,0.000000,3,0.000000,0.000000,1.969965,0,0,0,0,0,0,0
11,119999,18,110000,0,20000,1,9999,0.135000,0,0,0.000000,3,1.000000,0.000000,18.050378,0,0,0,0,0,0,0
11,119999,19,110000,31,20000,1,9999,0.100000,0,0,0.000000,3,1.000000,0.000000,1.599624,0,0,0,0,0,0,0
11,119999,20,110000,31,20000,0,9999,0.100000,0,0,0.000000,3,0.000000,0.000000,3.557790,0,0,0,0,0,0,0
11,119999,21,110000,31,20000,0,9999,0.100000,0,0,0.000000,3,0.000000,0.000000,1.335029,0,0,0,0,0,0,0
11,119999,22,110000,31,20000,0,9999,0.100000,0,0,0.000000,3,0.000000,0.000000,0.918332,0,0,0,0,0,0,0
11,119999,23,110000,0,20000,1,9999,0.100000,0,0,0.000000,3,5.000000,0.000000,10.251517,0,0,0,0,0,0,0
11,119999,24,110000,31,20000,0,9999,0.100000,0,0,0.000000,3,0.000000,0.000000,0.421217,0,0,0,0,0,0,0
11,119999,25,110000,0,20000,0,9999,0.100000,0,0,0.000000,3,0.000000,0.000000,0.389375,0,0,0,0,0,0,0
11,119999,26,110000,0,20000,0,9999,0.100000,0,0,0.000000,3,0.000000,0.000000,0.738796,0,0,0,0,0,0,0
11,119999,27,110000,58,0,0,9999,0.100000,0,0,0.000000,3,0.000000,0.000000,0.057122,0,0,0,0,0,0,0
11,119999,28,110000,0,20000,0,9999,0.100000,0,0,0.000000,3,0.000000,0.000000,23.589848,0,0,0,0,0,0,0
11,119999,29,110000,31,20000,0,9999,0.065000,0,0,0.000000,3,0.000000,0.000000,4.649485,0,0,0,0,0,0,0
11,119999,30,110000,0,20000,1,9999,0.100000,0,0,0.000000,3,5.000000,0.000000,10.997907,0,0,0,0,0,0,0
11,119999,31,110000,31,20000,0,9999,0.100000,0,0,0.000000,3,0.000000,0.000000,0.724291,0,0,0,0,0,0,0
11,119999,32,110000,31,20000,0,9999,0.100000,0,0,0.000000,3,0.000000,0.000000,0.379994,0,0,0,0,0,0,0
11,119999,33,110000,0,20000,0,9999,0.100000,0,0,0.000000,3,0.000000,0.000000,0.952279,0,0,0,0,0,0,0
11,119999,34,110000,58,0,1,9999,0.100000,0,0,0.000000,3,6.000000,0.000000,16.365956,0,0,0,0,0,0,0
11,119999,35,110000,0,20000,0,9999,0.100000,0,0,0.000000,3,0.000000,0.000000,0.060819,0,0,0,0,0,0,0
11,119999,36,110000,58,0,0,9999,0.100000,0,0,0.000000,3,0.000000,0.000000,0.128635,0,0,0,0,0,0,0
11,119999,37,110000,31,20000,0,9999,0.100000,0,0,0.000000,3,0.000000,0.000000,5.210081,0,0,0,0,0,0,0
11,119999,38,110000,58,0,1,9999,0.100000,0,0,0.000000,3,1.000000,0.000000,3.660935,0,0,0,0,0,0,0
11,119999,39,110000,58,0,0,9999,0.100000,0,0,0.000000,3,0.000000,0.000000,0.414231,0,0,0,0,0,0,0
11,119999,40,110000,0,20000,1,9999,0.100000,0,0,0.000000,3,4.000000,0.000000,7.907299,0,0,0,0,0,0,0
11,119999,41,110000,0,20000,1,9999,0.100000,0,0,0.000000,3,1.000000,0.000000,5.705987,0,0,0,0,0,0,0
11,119999,42,110000,31,20000,0,9999,0.100000,0,0,0.000000,3,0.000000,0.000000,0.137447,0,0,0,0,0,0,0
11,119999,43,110000,0,20000,0,9999,0.100000,0,0,0.000000,3,0.000000,0.000000,0.083778,0,0,0,0,0,0,0
11,119999,44,110000,0,20000,0,9999,0.100000,0,0,0.000000,3,0.000000,0.000000,0.764890,0,0,0,0,0,0,0
11,119999,45,110000,31,20000,0,9999,0.100000,0,0,0.000000,3,0.000000,0.000000,0.786805,0,0,0,0,0,0,0
11,119999,46,110000,58,0,0,9999,0.100000,0,0,0.000000,3,0.000000,0.000000,0.231165,0,0,0,0,0,0,0
11,119999,47,110000,31,20000,0,9999,0.100000,0,0,0.000000,3,0.000000,0.000000,3.125739,0,0,0,0,0,0,0
11,119999,48,110000,0,20000,0,9999,0.100000,0,0,0.000000,3,0.000000,0.000000,0.073401,0,0,0,0,0,0,0
11,119999,49,110000,31,20000,1,9999,0.100000,0,0,0.000000,3,1.000000,0.000000,5.955102,0,0,0,0,0,0,0
11,119999,50,110000,0,20000,0,9999,0.100000,0,0,0.000000,3,0.000000,0.000000,3.377940,0,0,0,0,0,0,0
11,119999,51,110000,31,20000,0,9999,0.100000,0,0,0.000000,3,0.000000,0.000000,0.404441,0,0,0,0,0,0,0
11,119999,52,110000,0,20000,0,9999,0.100000,0,0,0.000000,3,0.000000,0.000000,3.727010,0,0,0,0,0,0,0
11,119999,53,110000,0,20000,1,9999,0.100000,0,0,0.000000,3,2.000000,0.000000,5.848587,0,0,0,0,0,0,0
11,119999,54,110000,0,20000,0,9999,0.100000,0,0,0.000000,3,0.000000,0.000000,0.282005,0,0,0,0,0,0,0
11,119999,55,110000,58,0,1,9999,0.100000,0,0,0.000000,3,1.000000,0.000000,3.533967,0,0,0,0,0,0,0
11,119999,56,110000,31,20000,1,9999,0.100000,0,0,0.000000,3,1.000000,0.000000,8.471769,0,0,0,0,0,0,0
11,119999,57,110000,0,20000,0,9999,0.100000,0,0,0.000000,3,0.000000,0.000000,6.471276,0,0,0,0,0,0,0
11,119999,58,110000,31,20000,0,9999,0.100000,0,0,0.000000,3,0.000000,0.000000,1.710444,0,0,0,0,0,0,0
11,119999,59,110000,0,20000,0,9999,0.100000,0,0,0.000000,3,0.000000,0.000000,0.216468,0,0,0,0,0,0,0
11,119999,60,110000,58,0,1,9999,0.100000,0,0,0.000000,3,3.000000,0.000000,7.607868,0,0,0,0,0,0,0
11,119999,61,110000,0,20000,0,9999,0.100000,0,0,0.000000,3,0.000000,0.000000,7.178383,0,0,0,0,0,0,0
11,119999,62,110000,58,0,0,9999,0.100000,0,0,0.000000,3,0.000000,0.000000,0.224549,0,0,0,0,0,0,0
11,119999,63,110000,31,20000,1,9999,0.100000,0,0,0.000000,3,2.000000,0.000000,19.643733,0,0,0,0,0,0,0
11,119999,64,110000,58,0,0,9999,0.100000,0,0,0.000000,3,0.000000,0.000000,0.211849,0,0,0,0,0,0,0
11,119999,65,110000,31,20000,0,9999,0.100000,0,0,0.000000,3,0.000000,0.000000,1.748050,0,0,0,0,0,0,0
11,119999,66,110000,31,20000,0,9999,0.100000,0,0,0.000000,3,0.000000,0.000000,0.430639,0,0,0,0,0,0,0
11,119999,67,110000,31,20000,0,9999,0.100000,0,0,0.000000,3,0.000000,0.000000,0.284232,0,0,0,0,0,0,0
11,119999,68,110000,58,0,0,9999,0.100000,0,0,0.000000,3,0.000000,0.000000,0.065774,0,0,0,0,0,0,0
11,119999,69,110000,31,20000,1,9999,0.100000,0,0,0.000000,3,1.000000,0.000000,4.977189,0,0,0,0,0,0,0
11,119999,70,110000,58,0,0,9999,0.100000,0,0,0.000000,3,0.000000,0.000000,0.095480,0,0,0,0,0,0,0
11,119999,71,110000,0,20000,0,9999,0.100000,0,0,0.000000,3,0.000000,0.000000,0.836892,0,0,0,0,0,0,0
11,119999,72,110000,58,0,0,9999,0.100000,0,0,0.000000,3,0.000000,0.000000,0.902323,0,0,0,0,0,0,0
11,119999,73,110000,31,20000,1,9999,0.100000,0,0,0.000000,3,1.000000,0.000000,3.130504,0,0,0,0,0,0,0
11,119999,74,110000,31,20000,0,9999,0.100000,0,0,0.000000,3,0.000000,0.000000,1.377023,0,0,0,0,0,0,0
11,119999,75,110000,58,0,1,9999,0.100000,0,0,0.000000,3,7.000000,0.000000,12.998829,0,0,0,0,0,0,0
11,119999,76,110000,31,20000,0,9999,0.100000,0,0,0.000000,3,0.000000,0.000000,2.032516,0,0,0,0,0,0,0
11,119999,77,110000,31,20000,0,9999,0.100000,0,0,0.000000,3,0.000000,0.000000,4.621534,0,0,0,0,0,0,0
11,119999,78,110000,31,20000,0,9999,0.100000,0,0,0.000000,3,0.000000,0.000000,0.406449,0,0,0,0,0,0,0
11,119999,79,110000,58,0,0,9999,0.100000,0,0,0.000000,3,0.000000,0.000000,0.130746,0,0,0,0,0,0,0
11,119999,80,110000,0,20000,0,9999,0.100000,0,0,0.000000,3,0.000000,0.000000,3.399000,0,0,0,0,0,0,0
11,119999,81,110000,58,0,0,9999,0.100000,0,0,0.000000,3,0.000000,0.000000,1.758479,0,0,0,0,0,0,0
11,119999,82,110000,0,20000,1,9999,0.100000,0,0,0.000000,3,4.000000,0.000000,11.417916,0,0,0,0,0,0,0
11,119999,83,110000,31,20000,0,9999,0.100000,0,0,0.000000,3,0.000000,0.000000,0.346473,0,0,0,0,0,0,0
11,119999,84,110000,58,0,0,9999,0.100000,0,0,0.000000,3,0.000000,0.000000,0.710681,0,0,0,0,0,0,0
11,119999,85,110000,58,0,0,9999,0.100000,0,0,0.000000,3,0.000000,0.000000,1.521429,0,0,0,0,0,0,0
11,119999,86,110000,58,0,1,9999,0.100000,0,0,0.000000,3,2.000000,0.000000,6.397206,0,0,0,0,0,0,0
11,119999,87,110000,31,20000,0,9999,0.100000,0,0,0.000000,3,0.000000,0.000000,0.905877,0,0,0,0,0,0,0
11,119999,88,110000,0,20000,0,9999,0.100000,0,0,0.000000,3,0.000000,0.000000,0.061314,0,0,0,0,0,0,0
11,119999,89,110000,58,0,1,9999,0.100000,0,0,0.000000,3,2.000000,0.000000,5.177514,0,0,0,0,0,0,0
11,119999,90,110000,58,0,1,9999,0.100000,0,0,0.000000,3,2.000000,0.000000,8.272400,0,0,0,0,0,0,0
11,119999,91,110000,0,20000,0,9999,0.100000,0,0,0.000000,3,0.000000,0.000000,0.456114,0,0,0,0,0,0,0
11,119999,92,110000,58,0,0,9999,0.100000,0,0,0.000000,3,0.000000,0.000000,1.038658,0,0,0,0,0,0,0
11,119999,93,110000,58,0,0,9999,0.100000,0,0,0.000000,3,0.000000,0.000000,8.579826,0,0,0,0,0,0,0
11,119999,94,110000,31,20000,0,9999,0.100000,0,0,0.000000,3,0.000000,0.000000,0.833132,0,0,0,0,0,0,0
11,119999,95,110000,58,0,0,9999,0.100000,0,0,0.000000,3,0.000000,0.000000,0.107553,0,0,0,0,0,0,0
11,119999,96,110000,58,0,0,9999,0.100000,0,0,0.000000,3,0.000000,0.000000,0.629309,0,0,0,0,0,0,0
11,119999,97,110000,31,20000,0,9999,0.100000,0,0,0.000000,3,0.000000,0.000000,0.168600,0,0,0,0,0,0,0
11,119999,98,110000,58,0,1,9999,0.100000,0,0,0.000000,3,4.000000,0.000000,9.448503,0,0,0,0,0,0,0
11,119999,99,110000,0,20000,1,9999,0.100000,0,0,0.000000,3,12.000000,0.000000,13.617533,0,0,0,0,0,0,0
12,129999,0,120000,58,0,0,9999,0.100000,0,0,0.000000,3,0.000000,0.000000,0.193057,0,0,0,0,0,0,0
12,129999,1,120000,0,20000,0,9999,0.100000,0,0,0.000000,3,0.000000,0.000000,1.023904,0,0,0,0,0,0,0
12,129999,2,120000,58,0,0,9999,0.100000,0,0,0.000000,3,0.000000,0.000000,0.239853,0,0,0,0,0,0,0
12,129999,3,120000,58,0,0,9999,0.100000,0,0,0.000000,3,0.000000,0.000000,0.400402,0,0,0,0,0,0,0
12,129999,4,120000,58,0,0,9999,0.100000,0,0,0.000000,3,0.000000,0.000000,0.992099,0,0,0,0,0,0,0
12,129999,5,120000,0,20000,0,9999,0.100000,0,0,0.000000,3,0.000000,0.000000,19.971880,0,0,0,0,0,0,0
12,129999,6,120000,0,20000,1,9999,0.100000,0,0,0.000000,3,6.000000,0.000000,11.805886,0,0,0,0,0,0,0
12,129999,7,120000,31,20000,0,9999,0.100000,0,0,0.000000,3,0.000000,0.000000,0.831435,0,0,0,0,0,0,0
12,129999,8,120000,31,20000,0,9999,0.100000,0,0,0.000000,3,0.000000,0.000000,1.571255,0,0,0,0,0,0,0
12,129999,9,120000,31,20000,0,9999,0.100000,0,0,0.000000,3,0.000000,0.000000,0.406100,0,0,0,0,0,0,0
12,129999,10,120000,31,20000,0,9999,0.100000,0,0,0.000000,3,0.000000,0.000000,0.733732,0,0,0,0,0,0,0
12,129999,11,120000,58,0,0,9999,0.100000,0,0,0.000000,3,0.000000,0.000000,0.093948,0,0,0,0,0,0,0
12,129999,12,120000,31,20000,0,9999,0.100000,0,0,0.000000,3,0.000000,0.000000,0.279312,0,0,0,0,0,0,0
12,129999,13,120000,31,20000,0,9999,0.100000,0,0,0.000000,3,0.000000,0.000000,0.238030,0,0,0,0,0,0,0
12,129999,14,120000,31,20000,1,9999,0.100000,0,0,0.000000,3,1.000000,0.000000,3.606102,0,0,0,0,0,0,0
12,129999,15,120000,0,20000,0,9999,0.100000,0,0,0.000000,3,0.000000,0.000000,0.522183,0,0,0,0,0,0,0
12,129999,16,120000,58,0,0,9999,0.100000,0,0,0.000000,3,0.000000,0.000000,0.421993,0,0,0,0,0,0,0
12,129999,17,120000,31,20000,0,9999,0.100000,0,0,0.000000,3,0.000000,0.000000,1.070063,0,0,0,0,0,0,0
12,129999,18,120000,0,20000,1,9999,0.100000,0,0,34.210526,3,10.000000,0.000000,19.803084,0,0,0,1,0,0,0
12,129999,19,120000,0,20000,0,9999,0.100000,0,0,0.000000,3,0.000000,0.000000,1.541464,0,0,0,0,0,0,0
12,129999,20,120000,0,20000,0,9999,0.100000,0,0,0.000000,3,0.000000,0.000000,0.735608,0,0,0,0,0,0,0
12,129999,21,120000,0,20000,0,9999,0.100000,0,0,0.000000,3,0.000000,0.000000,1.272612,0,0,0,0,0,0,0
12,129999,22,120000,31,20000,1,9999,0.100000,0,0,0.000000,3,3.000000,0.000000,9.195738,0,0,0,0,0,0,0
12,129999,23,120000,0,20000,1,9999,0.100000,0,0,0.000000,3,4.000000,0.000000,5.213966,0,0,0,0,0,0,0
12,129999,24,120000,58,0,0,9999,0.100000,0,0,0.000000,3,0.000000,0.000000,0.266438,0,0,0,0,0,0,0
12,129999,25,120000,0,20000,0,9999,0.100000,0,0,0.000000,3,0.000000,0.000000,0.512059,0,0,0,0,0,0,0
12,129999,26,120000,58,0,0,9999,0.100000,0,0,0.000000,3,0.000000,0.000000,0.817899,0,0,0,0,0,0,0
12,129999,27,120000,31,20000,0,9999,0.100000,0,0,0.000000,3,0.000000,0.000000,0.428006,0,0,0,0,0,0,0
12,129999,28,120000,58,0,0,9999,0.065000,0,0,0.000000,3,0.000000,0.000000,23.693939,0,0,0,0,0,0,0
12,129999,29,120000,31,20000,1,9999,0.100000,0,0,0.000000,3,1.000000,0.000000,2.633951,0,0,0,0,0,0,0
12,129999,30,120000,58,0,1,9999,0.100000,0,0,0.000000,3,4.000000,0.000000,10.641534,0,0,0,0,0,0,0
12,129999,31,120000,31,20000,0,9999,0.100000,0,0,0.000000,3,0.000000,0.000000,0.485789,0,0,0,0,0,0,0
12,129999,32,120000,0,20000,0,9999,0.100000,0,0,0.000000,3,0.000000,0.000000,0.285742,0,0,0,0,0,0,0
12,129999,33,120000,0,20000,0,9999,0.100000,0,0,0.000000,3,0.000000,0.000000,0.943220,0,0,0,0,0,0,0
12,129999,34,120000,58,0,0,9999,0.100000,0,0,0.000000,3,0.000000,0.000000,1.284800,0,0,0,0,0,0,0
12,129999,35,120000,31,20000,0,9999,0.100000,0,0,0.000000,3,0.000000,0.000000,0.337001,0,0,0,0,0,0,0
12,129999,36,120000,31,20000,0,9999,0.100000,0,0,0.000000,3,0.000000,0.000000,0.338604,0,0,0,0,0,0,0
12,129999,37,120000,0,20000,0,9999,0.100000,0,0,0.000000,3,0.000000,0.000000,10.827493,0,0,0,0,0,0,0
12,129999,38,120000,0,20000,0,9999,0.100000,0,0,0.000000,3,0.000000,0.000000,0.484338,0,0,0,0,0,0,0
12,129999,39,120000,0,20000,0,9999,0.135000,0,0,0.000000,3,0.000000,0.000000,0.351495,0,0,0,0,0,0,0
12,129999,40,120000,58,0,1,9999,0.100000,0,0,0.000000,3,14.000000,0.000000,15.878984,0,0,0,0,0,0,0
12,129999,41,120000,31,20000,0,9999,0.100000,0,0,0.000000,3,0.000000,0.000000,0.852020,0,0,0,0,0,0,0
12,129999,42,120000,31,20000,0,9999,0.100000,0,0,0.000000,3,0.000000,0.000000,0.136760,0,0,0,0,0,0,0
12,129999,43,120000,0,20000,0,9999,0.100000,0,0,0.000000,3,0.000000,0.000000,0.081243,0,0,0,0,0,0,0
12,129999,44,120000,31,20000,0,9999,0.100000,0,0,0.000000,3,0.000000,0.000000,0.849673,0,0,0,0,0,0,0
12,129999,45,120000,58,0,0,9999,0.100000,0,0,0.000000,3,0.000000,0.000000,0.336532,0,0,0,0,0,0,0
