generation,iteration,robot,birthday,ancestor_id,ancestor_birthday,cell_id,age,sigma,maps,genomes,fitness,cells_in_map,dist_max,dist_pot_max,dist_total,com_rx,com_tx,obj_group1,obj_group2,obj_group3,obj_group4,obj_group5
0,9999,0,0,0,0,0,9999,0.100000,99,0,0.039756,0,0.000000,22.134249,1.364176,99,99,0,0,1,0,0
0,9999,1,0,1,0,1,9999,0.100000,99,0,10.007540,0,3.000000,26.916264,4.523623,99,99,0,1,0,0,0
0,9999,2,0,2,0,40,9999,0.100000,99,0,0.000000,0,2.000000,26.942550,19.973104,99,99,0,0,0,0,0
0,9999,3,0,3,0,45,9999,0.100000,99,0,0.000000,0,6.000000,10.894427,9.427783,99,99,0,0,0,0,0
0,9999,4,0,4,0,5,9999,0.100000,99,0,76.692914,0,12.000000,22.041595,23.045272,99,99,0,1,0,0,0
0,9999,5,0,5,0,40,9999,0.100000,99,0,0.000000,0,2.000000,28.609675,9.890885,99,99,0,0,0,0,0
0,9999,6,0,6,0,40,9999,0.100000,99,0,0.000000,0,0.000000,24.410066,5.602454,99,99,0,0,0,0,0
0,9999,7,0,7,0,0,9999,0.100000,99,0,0.028771,0,0.000000,26.929265,0.897865,99,99,0,0,0,1,0
0,9999,8,0,8,0,2,9999,0.100000,99,0,0.000555,0,3.000000,12.517936,7.039819,99,99,0,0,1,0,0
0,9999,9,0,9,0,41,9999,0.100000,99,0,0.000000,0,2.000000,18.062258,9.730824,99,99,0,0,0,0,0
0,9999,10,0,10,0,40,9999,0.100000,99,0,0.000000,0,0.000000,29.553261,0.310420,99,99,0,0,0,0,0
0,9999,11,0,11,0,40,9999,0.100000,99,0,0.000000,0,1.000000,26.259459,11.034938,99,99,0,0,0,0,0
0,9999,12,0,12,0,40,9999,0.100000,99,0,0.000000,0,1.000000,25.623700,3.201786,99,99,0,0,0,0,0
0,9999,13,0,13,0,40,9999,0.100000,99,0,0.000000,0,1.000000,20.492378,4.182070,99,99,0,0,0,0,0
0,9999,14,0,14,0,40,9999,0.100000,99,0,0.000000,0,0.000000,32.395759,8.397049,99,99,0,0,0,0,0
0,9999,15,0,15,0,41,9999,0.100000,99,0,0.000000,0,4.000000,29.833810,30.886700,99,99,0,0,0,0,0
0,9999,16,0,16,0,40,9999,0.100000,99,0,0.000000,0,1.000000,25.121177,1.902664,99,99,0,0,0,0,0
0,9999,17,0,17,0,0,9999,0.100000,99,0,0.089151,0,1.000000,24.524806,2.670296,99,99,0,0,0,0,1
0,9999,18,0,18,0,0,9999,0.100000,99,0,0.002500,0,1.000000,29.795959,5.099790,99,99,0,0,0,0,1
0,9999,19,0,19,0,40,9999,0.100000,99,0,0.000000,0,1.000000,24.836778,10.788337,99,99,0,0,0,0,0
0,9999,20,0,20,0,40,9999,0.100000,99,0,0.000000,0,1.000000,30.164573,5.030245,99,99,0,0,0,0,0
0,9999,21,0,21,0,0,9999,0.100000,99,0,1.094949,0,0.000000,28.110770,0.602370,99,99,0,0,1,0,0
0,9999,22,0,22,0,41,9999,0.100000,99,0,27.923886,0,5.000000,32.041098,12.262808,99,99,1,0,0,0,1
0,9999,23,0,23,0,40,9999,0.100000,99,0,0.000000,0,1.000000,26.282800,2.532248,99,99,0,0,0,0,0
0,9999,24,0,24,0,0,9999,0.100000,99,0,0.521000,0,2.000000,29.131388,4.851157,99,99,0,0,1,0,0
0,9999,25,0,25,0,92,9999,0.100000,99,0,23.797469,0,6.000000,22.731850,14.853206,99,99,1,0,0,0,0
0,9999,26,0,26,0,40,9999,0.100000,99,0,0.000000,0,2.000000,21.788554,8.316310,99,99,0,0,0,0,0
0,9999,27,0,27,0,40,9999,0.100000,99,0,0.000000,0,1.000000,17.340981,2.779912,99,99,0,0,0,0,0
0,9999,28,0,28,0,42,9999,0.100000,99,0,0.000000,0,6.000000,28.199451,14.067002,99,99,0,0,0,0,0
0,9999,29,0,29,0,2,9999,0.100000,99,0,3.289255,0,7.000000,27.924564,12.228201,99,99,0,1,0,0,0
0,9999,30,0,30,0,40,9999,0.100000,99,0,0.000000,0,2.000000,27.117243,6.875258,99,99,0,0,0,0,0
0,9999,31,0,31,0,0,9999,0.100000,99,0,1.653614,0,0.000000,21.950732,0.785855,99,99,0,0,0,1,0
0,9999,32,0,32,0,0,9999,0.100000,99,0,0.212493,0,2.000000,25.089400,2.454160,99,99,0,0,1,0,0
0,9999,33,0,33,0,40,9999,0.100000,99,0,0.000000,0,0.000000,29.622436,18.560016,99,99,0,0,0,0,0
0,9999,34,0,34,0,0,9999,0.100000,99,0,0.013384,0,2.000000,24.358969,9.234402,99,99,0,0,0,0,1
0,9999,35,0,35,0,0,9999,0.100000,99,0,2.607441,0,1.000000,24.534442,5.450188,99,99,0,1,0,0,0
0,9999,36,0,36,0,91,9999,0.100000,99,0,27.196737,0,5.000000,27.452220,12.646832,99,99,1,0,0,0,0
0,9999,37,0,37,0,40,9999,0.100000,99,0,0.000000,0,2.000000,21.636151,3.669093,99,99,0,0,0,0,0
0,9999,38,0,38,0,40,9999,0.100000,99,0,0.000000,0,1.000000,17.017835,9.614159,99,99,0,0,0,0,0
0,9999,39,0,39,0,0,9999,0.100000,99,0,0.651308,0,0.000000,25.107614,0.992392,99,99,0,0,0,0,1
0,9999,40,0,40,0,90,9999,0.100000,99,0,20.641659,0,3.000000,30.369094,9.412095,99,99,2,0,0,0,0
0,9999,41,0,41,0,40,9999,0.100000,99,0,0.000000,0,2.000000,29.480503,10.382639,99,99,0,0,0,0,0
0,9999,42,0,42,0,42,9999,0.100000,99,0,0.000000,0,4.000000,16.453681,13.547345,99,99,0,0,0,0,0
0,9999,43,0,43,0,40,9999,0.100000,99,0,0.000000,0,2.000000,26.077624,5.210411,99,99,0,0,0,0,0
0,9999,44,0,44,0,40,9999,0.100000,99,0,0.000000,0,0.000000,31.080085,0.439187,99,99,0,0,0,0,0
0,9999,45,0,45,0,40,9999,0.100000,99,0,0.000000,0,2.000000,27.904748,12.262356,99,99,0,0,0,0,0
0,9999,46,0,46,0,43,9999,0.100000,99,0,0.000000,0,7.000000,17.789737,20.966944,99,99,0,0,0,0,0
0,9999,47,0,47,0,40,9999,0.100000,99,0,0.000000,0,0.000000,26.137224,2.050763,99,99,0,0,0,0,0
0,9999,48,0,48,0,40,9999,0.100000,99,0,0.000000,0,1.000000,29.940160,10.729953,99,99,0,0,0,0,0
0,9999,49,0,49,0,0,9999,0.100000,99,0,0.191006,0,0.000000,20.440307,1.662177,99,99,0,0,0,1,0
0,9999,50,0,50,0,40,9999,0.100000,99,0,0.000000,0,1.000000,26.324828,5.512273,99,99,0,0,0,0,0
0,9999,51,0,51,0,0,9999,0.100000,99,0,0.011774,0,0.000000,18.161495,1.697094,99,99,0,0,0,0,1
0,9999,52,0,52,0,0,9999,0.100000,99,0,0.002778,0,2.000000,28.517289,4.923173,99,99,0,0,0,1,0
0,9999,53,0,53,0,40,9999,0.100000,99,0,0.000000,0,1.000000,24.354442,11.481712,99,99,0,0,0,0,0
0,9999,54,0,54,0,40,9999,0.100000,99,0,0.000000,0,2.000000,30.932272,7.763896,99,99,0,0,0,0,0
0,9999,55,0,55,0,0,9999,0.100000,99,0,0.010783,0,1.000000,28.306829,7.704789,99,99,0,0,0,1,0
0,9999,56,0,56,0,40,9999,0.100000,99,0,0.000000,0,1.000000,29.678669,1.569072,99,99,0,0,0,0,0
0,9999,57,0,57,0,40,9999,0.100000,99,0,0.000000,0,0.000000,22.980755,4.448113,99,99,0,0,0,0,0
0,9999,58,0,58,0,46,9999,0.100000,99,0,0.000000,0,14.000000,19.718539,16.510069,99,99,0,0,0,0,0
0,9999,59,0,59,0,40,9999,0.100000,99,0,0.000000,0,2.000000,25.799051,9.014625,99,99,0,0,0,0,0
0,9999,60,0,60,0,40,9999,0.100000,99,0,0.000000,0,2.000000,28.333849,10.246808,99,99,0,0,0,0,0
0,9999,61,0,61,0,41,9999,0.100000,99,0,0.000000,0,3.000000,17.915807,6.401998,99,99,0,0,0,0,0
0,9999,62,0,62,0,40,9999,0.100000,99,0,5.541537,0,1.000000,32.314345,6.491504,99,99,0,0,0,0,0
0,9999,63,0,63,0,0,9999,0.100000,99,0,1.797588,0,1.000000,18.819297,3.483482,99,99,0,0,1,0,0
0,9999,64,0,64,0,40,9999,0.100000,99,0,15.914575,0,3.000000,30.537283,8.445764,99,99,0,0,0,0,0
0,9999,65,0,65,0,0,9999,0.100000,99,0,2.399491,0,1.000000,17.334848,2.381746,99,99,0,0,0,1,0
0,9999,66,0,66,0,0,9999,0.100000,99,0,0.628354,0,0.000000,19.577578,1.066115,99,99,0,1,0,0,0
0,9999,67,0,67,0,0,9999,0.100000,99,0,0.693077,0,1.000000,27.608237,2.167040,99,99,0,0,0,1,0
0,9999,68,0,68,0,40,9999,0.100000,99,0,0.000000,0,1.000000,22.480785,5.944228,99,99,0,0,0,0,0
0,9999,69,0,69,0,92,9999,0.100000,99,0,34.815148,0,6.000000,23.418271,16.197274,99,99,1,0,0,0,0
0,9999,70,0,70,0,2,9999,0.100000,99,0,0.042405,0,4.000000,15.481788,12.496843,99,99,0,0,1,0,0
0,9999,71,0,71,0,0,9999,0.100000,99,0,0.006787,0,1.000000,19.340771,1.890577,99,99,0,0,0,1,0
0,9999,72,0,72,0,40,9999,0.100000,99,0,0.000000,0,1.000000,22.909686,5.846251,99,99,0,0,0,0,0
0,9999,73,0,73,0,41,9999,0.100000,99,0,0.000000,0,2.000000,14.464303,3.223451,99,99,0,0,0,0,0
0,9999,74,0,74,0,40,9999,0.100000,99,0,0.000000,0,2.000000,23.951702,11.118898,99,99,0,0,0,0,0
0,9999,75,0,75,0,40,9999,0.100000,99,0,0.000000,0,0.000000,27.712425,1.270162,99,99,0,0,0,0,0
0,9999,76,0,76,0,40,9999,0.100000,99,0,0.000000,0,2.000000,22.868955,7.126706,99,99,0,0,0,0,0
0,9999,77,0,77,0,40,9999,0.100000,99,0,0.000000,0,1.000000,28.405434,4.910781,99,99,0,0,0,0,0
0,9999,78,0,78,0,95,9999,0.100000,99,0,51.813200,0,10.000000,18.286133,19.886300,99,99,1,0,0,0,0
0,9999,79,0,79,0,40,9999,0.100000,99,0,0.000000,0,0.000000,14.569464,5.094232,99,99,0,0,0,0,0
0,9999,80,0,80,0,40,9999,0.100000,99,0,0.000000,0,1.000000,20.255243,2.563487,99,99,0,0,0,0,0
0,9999,81,0,81,0,41,9999,0.100000,99,0,0.000000,0,4.000000,25.660460,9.804842,99,99,0,0,0,0,0
0,9999,82,0,82,0,42,9999,0.100000,99,0,0.000000,0,4.000000,17.779460,9.305605,99,99,0,0,0,0,0
0,9999,83,0,83,0,40,9999,0.100000,99,0,0.000000,0,1.000000,29.360010,7.192659,99,99,0,0,0,0,0
0,9999,84,0,84,0,40,9999,0.100000,99,0,0.000000,0,2.000000,25.749603,14.055937,99,99,0,0,0,0,0
0,9999,85,0,85,0,41,9999,0.100000,99,0,0.000000,0,2.000000,18.495881,8.000341,99,99,0,0,0,0,0
0,9999,86,0,86,0,40,9999,0.100000,99,0,0.000000,0,1.000000,24.358969,5.814286,99,99,0,0,0,0,0
0,9999,87,0,87,0,40,9999,0.100000,99,0,0.000000,0,1.000000,26.297546,5.219816,99,99,0,0,0,0,0
0,9999,88,0,88,0,40,9999,0.100000,99,0,0.000000,0,1.000000,18.105554,10.494693,99,99,0,0,0,0,0
0,9999,89,0,89,0,41,9999,0.100000,99,0,0.000000,0,3.000000,28.423083,21.935745,99,99,0,0,0,0,0
0,9999,90,0,90,0,40,9999,0.100000,99,0,0.000000,0,0.000000,30.242776,6.484509,99,99,0,0,0,0,0
0,9999,91,0,91,0,40,9999,0.100000,99,0,0.000000,0,1.000000,26.866832,2.351502,99,99,0,0,0,0,0
0,9999,92,0,92,0,40,9999,0.100000,99,0,0.000000,0,2.000000,28.279223,6.868667,99,99,0,0,0,0,0
0,9999,93,0,93,0,40,9999,0.100000,99,0,0.000000,0,1.000000,17.443118,10.896835,99,99,0,0,0,0,0
0,9999,94,0,94,0,40,9999,0.100000,99,0,0.000000,0,1.000000,24.262188,7.145903,99,99,0,0,0,0,0
0,9999,95,0,95,0,40,9999,0.100000,99,0,0.000000,0,1.000000,24.422205,11.794716,99,99,0,0,0,0,0
0,9999,96,0,96,0,40,9999,0.100000,99,0,0.000000,0,2.000000,25.795252,6.656244,99,99,0,0,0,0,0
0,9999,97,0,97,0,40,9999,0.100000,99,0,0.000000,0,1.000000,26.475436,9.786400,99,99,0,0,0,0,0
0,9999,98,0,98,0,40,9999,0.100000,99,0,0.000000,0,2.000000,28.926437,5.891590,99,99,0,0,0,0,0
0,9999,99,0,99,0,41,9999,0.100000,99,0,0.000000,0,5.000000,28.387224,19.239303,99,99,0,0,0,0,0
1,19999,0,0,0,0,0,19999,0.100000,99,0,0.001722,1,0.000000,22.795958,0.132524,99,99,0,0,1,0,0
1,19999,1,10000,1,0,0,9999,0.100000,99,0,5.083033,1,2.000000,29.359007,10.664653,99,99,0,1,0,0,0
1,19999,2,10000,70,0,40,9999,0.100000,99,0,0.000000,13,0.000000,25.853053,1.436955,99,99,0,0,0,0,0
1,19999,3,10000,70,0,0,9999,0.100000,99,0,0.003120,8,1.000000,17.162909,4.076292,99,99,0,0,0,1,0
1,19999,4,10000,4,0,0,9999,0.100000,99,0,8.861278,7,2.000000,29.071829,2.870653,99,99,0,1,0,0,0
1,19999,5,10000,62,0,0,9999,0.100000,99,0,0.123337,8,1.000000,28.885201,10.385383,99,99,0,1,0,0,0
1,19999,6,10000,22,0,1,9999,0.100000,99,0,0.073232,5,4.000000,23.865712,11.682866,99,99,0,0,1,0,0
1,19999,7,10000,70,0,0,9999,0.100000,99,0,0.004253,5,0.000000,26.598045,0.104397,99,99,0,0,0,1,0
1,19999,8,10000,64,0,0,9999,0.100000,99,0,1.600537,9,0.000000,15.588637,0.563598,99,99,0,0,1,0,0
1,19999,9,10000,15,0,40,9999,0.100000,99,0,0.000000,3,0.000000,20.656519,3.552169,99,99,0,0,0,0,0
1,19999,10,10000,22,0,40,9999,0.100000,99,0,0.000000,13,0.000000,29.706003,0.333511,99,99,0,0,0,0,0
1,19999,11,10000,1,0,40,9999,0.100000,99,0,0.000000,9,0.000000,25.749206,1.054982,99,99,0,0,0,0,0
1,19999,12,10000,29,0,40,9999,0.100000,99,0,0.000000,13,0.000000,25.365775,0.431809,99,99,0,0,0,0,0
1,19999,13,10000,1,0,40,9999,0.100000,99,0,0.000000,8,0.000000,21.416620,0.615835,99,99,0,0,0,0,0
1,19999,14,10000,82,0,40,9999,0.100000,99,0,0.000000,8,1.000000,32.856028,14.113830,99,99,0,0,0,0,0
1,19999,15,10000,1,0,90,9999,0.100000,99,0,20.054724,2,2.000000,28.877301,15.917355,99,99,1,0,0,0,0
1,19999,16,10000,70,0,40,9999,0.100000,99,0,0.000000,8,0.000000,25.102305,0.598129,99,99,0,0,0,0,0
1,19999,17,10000,82,0,40,9999,0.100000,99,0,0.000000,13,0.000000,25.471553,0.798642,99,99,0,0,0,0,0
1,19999,18,10000,36,0,0,9999,0.100000,99,0,0.035125,13,0.000000,29.569360,0.187949,99,99,0,0,0,0,1
1,19999,19,10000,1,0,41,9999,0.100000,99,0,0.000000,3,3.000000,25.521984,11.097784,99,99,0,0,0,0,0
1,19999,20,10000,82,0,40,9999,0.100000,99,0,0.000000,5,2.000000,29.788432,12.030135,99,99,0,0,0,0,0
1,19999,21,10000,47,0,0,9999,0.100000,99,0,1.568022,3,0.000000,28.513778,0.823301,99,99,0,0,1,0,0
1,19999,22,10000,1,0,0,9999,0.100000,99,0,0.001149,3,0.000000,33.426404,0.071960,99,99,0,0,0,0,1
1,19999,23,10000,25,0,0,9999,0.100000,99,0,1.627032,9,0.000000,25.580864,0.920065,99,99,0,0,0,0,1
1,19999,24,10000,46,0,41,9999,0.100000,99,0,0.000000,13,4.000000,31.164516,16.279695,99,99,0,0,0,0,0
1,19999,25,10000,25,0,40,9999,0.100000,99,0,0.000000,9,1.000000,26.340265,4.823599,99,99,0,0,0,0,0
1,19999,26,10000,62,0,40,9999,0.100000,99,0,0.000000,6,0.000000,22.673137,0.126236,99,99,0,0,0,0,0
1,19999,27,10000,25,0,0,9999,0.100000,99,0,2.201767,9,0.000000,15.476399,0.785104,99,99,0,0,0,1,0
1,19999,28,10000,3,0,1,9999,0.100000,99,0,9.984016,9,3.000000,23.730122,11.632679,99,99,0,0,1,0,0
1,19999,29,10000,1,0,40,9999,0.100000,99,0,0.000000,6,0.000000,30.226906,2.422861,99,99,0,0,0,0,0
1,19999,30,10000,22,0,40,9999,0.100000,99,0,0.000000,3,1.000000,25.476671,2.366354,99,99,0,0,0,0,0
1,19999,31,10000,1,0,0,9999,0.100000,99,0,1.718612,6,0.000000,21.929379,0.331614,99,99,0,0,0,1,0
1,19999,32,10000,62,0,0,9999,0.100000,99,0,0.001231,9,0.000000,23.015492,0.112146,99,99,0,0,1,0,0
1,19999,33,10000,4,0,40,9999,0.100000,99,0,0.000000,9,0.000000,29.444148,22.313064,99,99,0,0,0,0,0
1,19999,34,10000,29,0,0,9999,0.100000,99,0,0.005033,9,0.000000,21.698202,0.093024,99,99,0,0,0,0,1
1,19999,35,10000,1,0,0,9999,0.100000,99,0,1.804464,9,0.000000,24.204590,0.621210,99,99,0,1,0,0,0
1,19999,36,10000,25,0,40,9999,0.100000,99,0,0.000000,10,1.000000,30.498208,9.180542,99,99,0,0,0,0,0
1,19999,37,10000,78,0,40,9999,0.100000,99,0,0.000000,13,2.000000,20.755443,4.329241,99,99,0,0,0,0,0
1,19999,38,10000,4,0,40,9999,0.100000,99,0,0.000000,9,1.000000,18.076682,5.459438,99,99,0,0,0,0,0
1,19999,39,10000,4,0,40,9999,0.100000,99,0,0.000000,9,0.000000,24.937878,0.476903,99,99,0,0,0,0,0
1,19999,40,10000,69,0,90,9999,0.100000,99,0,10.361207,14,2.000000,31.721092,17.638953,99,99,1,0,0,0,0
1,19999,41,10000,58,0,40,9999,0.100000,99,0,0.000000,13,0.000000,28.054995,1.376338,99,99,0,0,0,0,0
1,19999,42,10000,36,0,0,9999,0.100000,99,0,1.246721,13,0.000000,19.844010,2.589625,99,99,0,0,0,1,0
1,19999,43,10000,15,0,41,9999,0.100000,99,0,0.000000,3,3.000000,28.087060,7.794365,99,99,0,0,0,0,0
1,19999,44,10000,58,0,40,9999,0.100000,99,0,0.000000,13,3.000000,31.338788,10.671511,99,99,0,0,0,0,0
1,19999,45,10000,4,0,40,9999,0.100000,99,0,0.000000,9,2.000000,29.890063,11.913304,99,99,0,0,0,0,0
1,19999,46,10000,22,0,40,9999,0.100000,99,0,0.000000,11,1.000000,12.642844,12.714185,99,99,0,0,0,0,0
1,19999,47,10000,47,0,0,9999,0.100000,99,0,0.939917,3,0.000000,25.681194,0.773175,99,99,0,0,0,0,1
1,19999,48,10000,3,0,40,9999,0.100000,99,0,0.000000,13,0.000000,29.219049,5.523935,99,99,0,0,0,0,0
1,19999,49,10000,29,0,40,9999,0.100000,99,0,0.000000,6,0.000000,20.569079,2.464359,99,99,0,0,0,0,0
1,19999,50,10000,1,0,40,9999,0.100000,99,0,0.000000,6,0.000000,25.640005,1.369368,99,99,0,0,0,0,0
1,19999,51,10000,1,0,0,9999,0.100000,99,0,0.271929,3,0.000000,17.674476,0.747053,99,99,0,0,0,0,1
1,19999,52,10000,1,0,0,9999,0.100000,99,0,0.001668,9,0.000000,30.079937,0.128091,99,99,0,0,0,1,0
1,19999,53,10000,47,0,40,9999,0.100000,99,0,0.000000,3,2.000000,25.751863,7.371774,99,99,0,0,0,0,0
1,19999,54,10000,22,0,40,9999,0.100000,99,0,0.000000,6,2.000000,30.983032,15.450559,99,99,0,0,0,0,0
1,19999,55,10000,46,0,0,9999,0.100000,99,0,0.076845,13,0.000000,27.200283,0.480001,99,99,0,0,0,1,0
1,19999,56,10000,29,0,40,9999,0.100000,99,0,0.000000,9,0.000000,30.767332,0.841550,99,99,0,0,0,0,0
1,19999,57,10000,25,0,40,9999,0.100000,99,0,0.000000,9,0.000000,22.681512,0.240071,99,99,0,0,0,0,0
1,19999,58,10000,25,0,40,9999,0.100000,99,0,0.000000,12,2.000000,28.914492,2.704451,99,99,0,0,0,0,0
1,19999,59,10000,29,0,41,9999,0.100000,99,0,0.000000,6,4.000000,23.524113,8.646720,99,99,0,0,0,0,0
1,19999,60,10000,15,0,41,9999,0.100000,99,0,0.000000,3,5.000000,29.686983,14.408547,99,99,0,0,0,0,0
1,19999,61,10000,22,0,40,9999,0.100000,99,0,0.000000,12,1.000000,17.896914,3.812935,99,99,0,0,0,0,0
1,19999,62,10000,62,0,41,9999,0.100000,99,0,0.000000,3,5.000000,33.468951,12.781460,99,99,0,0,0,0,0
1,19999,63,10000,29,0,1,9999,0.100000,99,0,7.386343,14,3.000000,17.889707,8.838023,99,99,0,0,1,0,0
1,19999,64,10000,70,0,40,9999,0.100000,99,0,0.000000,9,1.000000,33.234688,10.761626,99,99,0,0,0,0,0
1,19999,65,10000,62,0,40,9999,0.100000,99,0,0.000000,3,0.000000,15.721592,0.930529,99,99,0,0,0,0,0
1,19999,66,10000,29,0,0,9999,0.100000,99,0,0.606026,9,0.000000,19.528228,0.220274,99,99,0,1,0,0,0
1,19999,67,10000,64,0,40,9999,0.100000,99,0,0.000000,9,0.000000,27.192660,0.103872,99,99,0,0,0,0,0
1,19999,68,10000,1,0,0,9999,0.100000,99,0,0.008722,3,2.000000,21.081727,4.665614,99,99,0,0,1,0,0
1,19999,69,10000,46,0,42,9999,0.100000,99,0,0.000000,13,9.000000,29.902568,19.560117,99,99,0,0,0,0,0
1,19999,70,10000,22,0,0,9999,0.100000,99,0,0.131225,4,0.000000,19.595130,0.227693,99,99,0,0,1,0,0
1,19999,71,10000,82,0,40,9999,0.100000,99,0,0.000000,9,0.000000,20.506527,0.220478,99,99,0,0,0,0,0
1,19999,72,10000,22,0,40,9999,0.100000,99,0,0.000000,4,0.000000,21.790626,0.082774,99,99,0,0,0,0,0
1,19999,73,10000,64,0,40,9999,0.100000,99,0,0.000000,13,0.000000,15.407383,0.547544,99,99,0,0,0,0,0
1,19999,74,10000,82,0,40,9999,0.100000,99,0,0.000000,6,0.000000,24.415078,0.814860,99,99,0,0,0,0,0
1,19999,75,10000,22,0,40,9999,0.100000,99,0,0.000000,13,0.000000,27.419911,0.129235,99,99,0,0,0,0,0
1,19999,76,10000,29,0,41,9999,0.100000,99,0,0.000000,9,3.000000,22.274360,15.485532,99,99,0,0,0,0,0
1,19999,77,10000,64,0,0,9999,0.100000,99,0,0.339312,13,0.000000,27.637672,0.161945,99,99,0,0,0,1,0
1,19999,78,10000,78,0,40,9999,0.100000,99,0,0.000000,13,1.000000,26.060654,2.950990,99,99,0,0,0,0,0
1,19999,79,10000,29,0,40,9999,0.100000,99,0,0.000000,9,1.000000,14.152197,2.900835,99,99,0,0,0,0,0
1,19999,80,10000,1,0,0,9999,0.100000,99,0,0.034551,3,0.000000,20.990198,0.863006,99,99,0,0,0,1,0
1,19999,81,10000,70,0,40,9999,0.100000,99,0,0.000000,12,2.000000,29.625637,5.232328,99,99,0,0,0,0,0
1,19999,82,10000,70,0,40,9999,0.100000,99,0,0.000000,5,0.000000,16.921508,0.786193,99,99,0,0,0,0,0
1,19999,83,10000,82,0,40,9999,0.100000,99,0,0.000000,13,3.000000,30.997071,9.137962,99,99,0,0,0,0,0
1,19999,84,10000,1,0,40,9999,0.100000,99,0,0.000000,9,1.000000,25.006178,25.034198,99,99,0,0,0,0,0
1,19999,85,10000,36,0,40,9999,0.100000,99,0,0.000000,13,0.000000,17.967005,0.866149,99,99,0,0,0,0,0
1,19999,86,10000,70,0,40,9999,0.100000,99,0,0.000000,9,0.000000,23.168946,3.518069,99,99,0,0,0,0,0
1,19999,87,10000,1,0,40,9999,0.100000,99,0,0.000000,13,0.000000,25.413422,0.309970,99,99,0,0,0,0,0
1,19999,88,10000,47,0,40,9999,0.100000,99,0,0.000000,3,1.000000,16.426912,4.736945,99,99,0,0,0,0,0
1,19999,89,10000,29,0,0,9999,0.100000,99,0,4.646964,13,1.000000,29.533513,8.103056,99,99,0,1,0,0,0
1,19999,90,10000,62,0,40,9999,0.100000,99,0,0.000000,5,1.000000,30.861923,7.937656,99,99,0,0,0,0,0
1,19999,91,10000,64,0,40,9999,0.100000,99,0,0.000000,9,0.000000,25.954934,2.255006,99,99,0,0,0,0,0
1,19999,92,10000,1,0,40,9999,0.100000,99,0,0.000000,5,1.000000,30.174511,5.343929,99,99,0,0,0,0,0
1,19999,93,10000,1,0,41,9999,0.100000,99,0,0.000000,9,3.000000,17.665106,23.271878,99,99,0,0,0,0,0
1,19999,94,10000,15,0,40,9999,0.100000,99,0,0.000000,3,1.000000,25.263157,6.710964,99,99,0,0,0,0,0
1,19999,95,10000,62,0,41,9999,0.100000,99,0,0.000000,5,3.000000,24.232037,10.754867,99,99,0,0,0,0,0
1,19999,96,10000,70,0,40,9999,0.100000,99,0,0.000000,13,0.000000,27.549649,0.092235,99,99,0,0,0,0,0
1,19999,97,10000,82,0,40,9999,0.100000,99,0,0.000000,14,0.000000,28.230261,6.150692,99,99,0,0,0,0,0
1,19999,98,10000,82,0,40,9999,0.100000,99,0,0.000000,5,3.000000,28.994879,4.184099,99,99,0,0,0,0,0
1,19999,99,10000,70,0,40,9999,0.100000,99,0,0.000000,14,0.000000,28.072659,7.813224,99,99,0,0,0,0,0
2,29999,0,20000,46,0,0,9999,0.100000,99,0,0.005248,14,0.000000,22.792310,0.127155,99,99,0,0,1,0,0
2,29999,1,20000,64,0,40,9999,0.100000,99,0,0.000000,14,2.000000,27.303872,10.893620,99,99,0,0,0,0,0
2,29999,2,20000,40,0,40,9999,0.100000,99,0,0.000000,14,0.000000,25.678680,5.537611,99,99,0,0,0,0,0
2,29999,3,20000,25,0,0,9999,0.100000,99,0,0.105229,14,0.000000,17.668761,0.158331,99,99,0,0,0,1,0
2,29999,4,20000,82,0,0,9999,0.100000,99,0,0.000000,14,2.000000,30.842332,10.599013,99,99,0,1,0,0,0
2,29999,5,20000,64,0,40,9999,0.100000,99,0,0.000000,14,1.000000,29.593905,7.775503,99,99,0,0,0,0,0
2,29999,6,20000,46,0,0,9999,0.100000,99,0,0.059575,14,0.000000,19.666389,0.304892,99,99,0,0,1,0,0
2,29999,7,20000,3,0,0,9999,0.100000,99,0,0.010252,14,0.000000,26.598758,0.253470,99,99,0,0,0,1,0
2,29999,8,20000,4,0,0,9999,0.100000,99,0,0.011405,14,0.000000,15.318428,0.661628,99,99,0,0,1,0,0
2,29999,9,20000,29,0,40,9999,0.100000,99,0,0.000000,14,2.000000,21.209434,3.332222,99,99,0,0,0,0,0
2,29999,10,20000,58,0,40,9999,0.100000,99,0,0.000000,14,0.000000,29.863281,0.780660,99,99,0,0,0,0,0
2,29999,11,20000,29,0,40,9999,0.100000,99,0,0.000000,14,0.000000,25.576190,3.674488,99,99,0,0,0,0,0
2,29999,12,20000,25,0,40,9999,0.100000,99,0,0.000000,14,2.000000,25.233262,8.633008,99,99,0,0,0,0,0
2,29999,13,20000,4,0,40,9999,0.100000,99,0,0.000000,14,0.000000,21.739508,0.635727,99,99,0,0,0,0,0
2,29999,14,20000,29,0,40,9999,0.100000,99,0,0.000000,14,2.000000,33.202522,16.258283,99,99,0,0,0,0,0
2,29999,15,20000,64,0,41,9999,0.100000,99,0,0.000000,14,5.000000,27.901054,29.390014,99,99,0,0,0,0,0
2,29999,16,20000,46,0,40,9999,0.100000,99,0,0.000000,14,0.000000,24.939959,0.596905,99,99,0,0,0,0,0
2,29999,17,20000,3,0,0,9999,0.100000,99,0,3.500550,14,2.000000,26.210569,2.623925,99,99,0,0,0,0,1
2,29999,18,20000,22,0,0,9999,0.100000,99,0,0.221662,14,0.000000,29.698278,0.180917,99,99,0,0,0,0,1
2,29999,19,20000,40,0,40,9999,0.100000,99,0,0.000000,14,1.000000,26.437698,13.648530,99,99,0,0,0,0,0
2,29999,20,20000,64,0,40,9999,0.100000,99,0,0.000000,14,3.000000,31.250413,15.090147,99,99,0,0,0,0,0
2,29999,21,20000,3,0,40,9999,0.100000,99,0,0.000000,14,0.000000,28.699573,0.927589,99,99,0,0,0,0,0
2,29999,22,20000,3,0,0,9999,0.100000,99,0,0.063048,14,0.000000,33.424355,0.171805,99,99,0,0,0,0,1
2,29999,23,20000,40,0,40,9999,0.100000,99,0,0.000000,14,1.000000,26.435886,10.762573,99,99,0,0,0,0,0
2,29999,24,20000,46,0,2,9999,0.100000,99,0,0.251401,14,9.000000,29.756856,19.971741,99,99,0,0,0,1,0
2,29999,25,20000,25,0,40,9999,0.100000,99,0,0.000000,14,0.000000,25.076496,1.035237,99,99,0,0,0,0,0
2,29999,26,20000,69,0,0,9999,0.100000,99,0,0.003282,14,0.000000,22.675519,0.122807,99,99,0,0,1,0,0
2,29999,27,20000,70,0,0,9999,0.100000,99,0,1.424014,14,0.000000,14.933440,0.414695,99,99,0,0,0,1,0
2,29999,28,20000,58,0,40,9999,0.100000,99,0,0.000000,14,0.000000,20.600557,1.197621,99,99,0,0,0,0,0
2,29999,29,20000,58,0,40,9999,0.100000,99,0,0.000000,14,0.000000,29.603771,2.647157,99,99,0,0,0,0,0
2,29999,30,20000,64,0,40,9999,0.100000,99,0,0.000000,14,2.000000,26.456133,3.513353,99,99,0,0,0,0,0
2,29999,31,20000,22,0,40,9999,0.100000,99,0,0.000000,14,0.000000,22.126485,0.354862,99,99,0,0,0,0,0
2,29999,32,20000,78,0,40,9999,0.100000,99,0,0.000000,14,0.000000,23.018691,0.116997,99,99,0,0,0,0,0
2,29999,33,20000,28,10000,40,9999,0.100000,99,0,0.000000,14,1.000000,29.579928,19.021167,99,99,0,0,0,0,0
2,29999,34,20000,69,0,0,9999,0.100000,99,0,0.003120,14,0.000000,21.699044,0.088472,99,99,0,0,0,0,1
2,29999,35,20000,28,10000,0,9999,0.100000,99,0,7.773486,14,1.000000,24.384463,4.081597,99,99,0,1,0,0,0
2,29999,36,20000,40,0,40,9999,0.100000,99,0,0.000000,14,3.000000,30.202666,12.721208,99,99,0,0,0,0,0
2,29999,37,20000,64,0,40,9999,0.100000,99,0,0.000000,14,0.000000,20.237696,0.840449,99,99,0,0,0,0,0
2,29999,38,20000,46,0,0,9999,0.100000,99,0,2.655702,14,1.000000,16.775951,3.285076,99,99,0,0,1,0,0
2,29999,39,20000,69,0,40,9999,0.100000,99,0,0.000000,14,0.000000,24.774339,0.542734,99,99,0,0,0,0,0
2,29999,40,20000,58,0,40,9999,0.100000,99,0,0.000000,14,2.000000,32.806147,14.019770,99,99,0,0,0,0,0
2,29999,41,20000,3,0,40,9999,0.100000,99,0,0.000000,14,0.000000,28.266032,2.863655,99,99,0,0,0,0,0
2,29999,42,20000,64,0,0,9999,0.100000,99,0,1.475774,14,0.000000,20.119906,0.630967,99,99,0,0,0,1,0
2,29999,43,20000,40,0,40,9999,0.100000,99,0,0.000000,14,0.000000,28.172707,0.606907,99,99,0,0,0,0,0
2,29999,44,20000,4,0,40,9999,0.100000,99,0,0.000000,14,2.000000,34.230089,14.021035,99,99,0,0,0,0,0
2,29999,45,20000,58,0,40,9999,0.100000,99,0,0.000000,14,1.000000,30.672090,10.901684,99,99,0,0,0,0,0
2,29999,46,20000,46,0,0,9999,0.100000,99,0,1.306707,14,1.000000,12.758288,1.753000,99,99,0,0,0,0,1
2,29999,47,20000,28,10000,0,9999,0.100000,99,0,1.011484,14,0.000000,25.509246,0.914930,99,99,0,0,0,0,1
2,29999,48,20000,58,0,40,9999,0.100000,99,0,0.000000,14,0.000000,28.782876,11.338019,99,99,0,0,0,0,0
2,29999,49,20000,64,0,0,9999,0.100000,99,0,4.875577,14,0.000000,21.144325,1.238171,99,99,0,0,1,0,0
2,29999,50,20000,29,0,40,9999,0.100000,99,0,0.000000,14,2.000000,26.559836,3.296928,99,99,0,0,0,0,0
2,29999,51,20000,4,0,0,9999,0.100000,99,0,0.106078,14,0.000000,17.873170,2.527458,99,99,0,0,0,0,1
2,29999,52,20000,29,0,0,9999,0.100000,99,0,0.001027,14,0.000000,30.078079,0.131137,99,99,0,0,0,1,0
2,29999,53,20000,1,0,40,9999,0.100000,99,0,0.000000,14,0.000000,27.266153,4.344291,99,99,0,0,0,0,0
2,29999,54,20000,82,0,40,9999,0.100000,99,0,0.000000,14,0.000000,30.223924,0.449325,99,99,0,0,0,0,0
2,29999,55,20000,3,0,0,9999,0.100000,99,0,2.533971,14,0.000000,27.176950,0.743968,99,99,0,0,0,1,0
2,29999,56,20000,28,10000,40,9999,0.100000,99,0,0.000000,14,0.000000,31.461216,0.670589,99,99,0,0,0,0,0
2,29999,57,20000,22,0,40,9999,0.100000,99,0,0.000000,14,0.000000,22.642799,0.240438,99,99,0,0,0,0,0
2,29999,58,20000,3,0,0,9999,0.100000,99,0,0.000000,14,2.000000,30.743539,20.431082,99,99,0,1,0,0,0
2,29999,59,20000,82,0,40,9999,0.100000,99,0,0.000000,14,0.000000,24.539774,0.481180,99,99,0,0,0,0,0
2,29999,60,20000,78,0,0,9999,0.100000,99,0,0.639424,14,0.000000,28.413174,1.401047,99,99,0,0,1,0,0
2,29999,61,20000,28,10000,40,9999,0.100000,99,0,0.000000,14,1.000000,16.631173,6.720462,99,99,0,0,0,0,0
2,29999,62,20000,29,0,40,9999,0.100000,99,0,0.000000,14,2.000000,28.787943,21.718120,99,99,0,0,0,0,0
2,29999,63,20000,78,0,40,9999,0.100000,99,0,0.000000,14,1.000000,17.056024,1.336966,99,99,0,0,0,0,0
2,29999,64,20000,69,0,40,9999,0.100000,99,0,0.000000,14,3.000000,34.459203,13.824971,99,99,0,0,0,0,0
2,29999,65,20000,3,0,40,9999,0.100000,99,0,0.000000,14,0.000000,15.040921,0.467060,99,99,0,0,0,0,0
2,29999,66,20000,25,0,0,9999,0.100000,99,0,0.565040,14,0.000000,19.396147,0.233096,99,99,0,1,0,0,0
2,29999,67,20000,3,0,0,9999,0.100000,99,0,0.354256,14,0.000000,27.213159,0.110393,99,99,0,0,0,1,0
2,29999,68,20000,78,0,0,9999,0.100000,99,0,0.004892,14,0.000000,19.760557,0.122140,99,99,0,0,1,0,0
2,29999,69,20000,25,0,40,9999,0.100000,99,0,0.000000,14,1.000000,22.547801,6.810935,99,99,0,0,0,0,0
2,29999,70,20000,58,0,0,9999,0.100000,99,0,0.107432,14,0.000000,19.568572,0.229837,99,99,0,0,1,0,0
2,29999,71,20000,25,0,0,9999,0.100000,99,0,7.990360,14,1.000000,20.673477,1.594507,99,99,0,0,0,1,0
2,29999,72,20000,46,0,40,9999,0.100000,99,0,0.000000,14,0.000000,21.791458,0.085170,99,99,0,0,0,0,0
2,29999,73,20000,40,0,40,9999,0.100000,99,0,0.000000,14,0.000000,15.159483,0.360109,99,99,0,0,0,0,0
2,29999,74,20000,70,0,40,9999,0.100000,99,0,0.000000,14,1.000000,24.588299,4.885741,99,99,0,0,0,0,0
2,29999,75,20000,69,0,40,9999,0.100000,99,0,0.000000,14,0.000000,27.403457,0.352785,99,99,0,0,0,0,0
2,29999,76,20000,4,0,40,9999,0.100000,99,0,0.000000,14,0.000000,20.480070,1.437392,99,99,0,0,0,0,0
2,29999,77,20000,4,0,40,9999,0.100000,99,0,0.000000,14,0.000000,27.711384,0.149716,99,99,0,0,0,0,0
2,29999,78,20000,58,0,40,9999,0.100000,99,0,0.000000,14,0.000000,26.311246,0.352403,99,99,0,0,0,0,0
2,29999,79,20000,25,0,40,9999,0.100000,99,0,0.000000,14,0.000000,14.756405,0.501079,99,99,0,0,0,0,0
2,29999,80,20000,78,0,40,9999,0.100000,99,0,0.000000,14,2.000000,21.265352,2.617395,99,99,0,0,0,0,0
2,29999,81,20000,69,0,40,9999,0.100000,99,0,0.000000,14,0.000000,29.912828,1.039904,99,99,0,0,0,0,0
2,29999,82,20000,78,0,40,9999,0.100000,99,0,0.000000,14,0.000000,16.926207,0.546311,99,99,0,0,0,0,0
2,29999,83,20000,3,0,41,9999,0.100000,99,0,0.000000,14,5.000000,33.688381,14.317366,99,99,0,0,0,0,0
2,29999,84,20000,29,0,40,9999,0.100000,99,0,0.000000,14,1.000000,24.970133,12.053376,99,99,0,0,0,0,0
2,29999,85,20000,40,0,40,9999,0.100000,99,0,0.000000,14,0.000000,17.917093,0.140345,99,99,0,0,0,0,0
2,29999,86,20000,3,0,40,9999,0.100000,99,0,0.000000,14,0.000000,23.267751,7.075002,99,99,0,0,0,0,0
2,29999,87,20000,28,10000,40,9999,0.100000,99,0,0.000000,14,0.000000,25.252895,0.731458,99,99,0,0,0,0,0
2,29999,88,20000,28,10000,41,9999,0.100000,99,0,0.000000,14,3.000000,15.154320,21.049774,99,99,0,0,0,0,0
2,29999,89,20000,78,0,40,9999,0.100000,99,0,0.000000,14,3.000000,30.555291,12.796549,99,99,0,0,0,0,0
2,29999,90,20000,69,0,40,9999,0.100000,99,0,0.000000,14,2.000000,32.380590,15.986740,99,99,0,0,0,0,0
2,29999,91,20000,1,0,40,9999,0.100000,99,0,0.000000,14,2.000000,26.090727,3.518211,99,99,0,0,0,0,0
2,29999,92,20000,40,0,40,9999,0.100000,99,0,0.000000,14,3.000000,29.159668,10.292607,99,99,0,0,0,0,0
2,29999,93,20000,46,0,41,9999,0.100000,99,0,0.000000,14,2.000000,16.973926,5.749298,99,99,0,0,0,0,0
2,29999,94,20000,28,10000,40,9999,0.100000,99,0,0.000000,14,1.000000,24.823740,9.542854,99,99,0,0,0,0,0
2,29999,95,20000,46,0,40,9999,0.100000,99,0,0.000000,14,0.000000,21.119435,2.690577,99,99,0,0,0,0,0
2,29999,96,20000,78,0,40,9999,0.100000,99,0,0.000000,14,0.000000,27.537402,0.419840,99,99,0,0,0,0,0
2,29999,97,20000,29,0,40,9999,0.100000,99,0,0.000000,14,1.000000,28.112072,13.920528,99,99,0,0,0,0,0
2,29999,98,20000,82,0,41,9999,0.100000,99,0,0.000000,14,3.000000,26.055314,4.560216,99,99,0,0,0,0,0
2,29999,99,20000,28,10000,40,9999,0.100000,99,0,0.000000,14,2.000000,28.076584,21.573348,99,99,0,0,0,0,0
3,39999,0,30000,1,0,0,9999,0.100000,99,0,0.004778,14,0.000000,22.791022,0.126857,99,99,0,0,1,0,0
3,39999,1,30000,22,0,40,9999,0.100000,99,0,0.000000,14,0.000000,25.648762,0.552244,99,99,0,0,0,0,0
3,39999,2,30000,46,0,40,9999,0.100000,99,0,0.000000,14,1.000000,25.754056,4.584555,99,99,0,0,0,0,0
3,39999,3,30000,46,0,0,9999,0.100000,99,0,0.066486,14,0.000000,17.690334,0.133619,99,99,0,0,0,1,0
3,39999,4,30000,1,0,40,9999,0.100000,99,0,0.000000,14,3.000000,32.331953,11.641208,99,99,0,0,0,0,0
3,39999,5,30000,46,0,41,9999,0.100000,99,0,0.000000,14,4.000000,30.183149,8.419529,99,99,0,0,0,0,0
3,39999,6,30000,28,10000,0,9999,0.100000,99,0,0.151118,14,0.000000,19.703242,0.231552,99,99,0,0,1,0,0
3,39999,7,30000,4,0,0,9999,0.100000,99,0,2.825366,14,0.000000,26.607749,0.594488,99,99,0,0,0,1,0
3,39999,8,30000,29,0,3,9999,0.100000,99,0,25.967533,14,5.000000,15.552001,5.187146,99,99,0,0,1,0,0
3,39999,9,30000,4,0,0,9999,0.100000,99,0,0.098151,14,0.000000,21.553977,1.866978,99,99,0,0,0,1,0
3,39999,10,30000,58,0,40,9999,0.100000,99,0,0.000000,14,0.000000,30.041052,0.901597,99,99,0,0,0,0,0
3,39999,11,30000,3,0,40,9999,0.100000,99,0,0.000000,14,1.000000,25.137146,5.610604,99,99,0,0,0,0,0
3,39999,12,30000,29,0,40,9999,0.100000,99,0,0.000000,14,1.000000,25.104287,13.372364,99,99,0,0,0,0,0
3,39999,13,30000,46,0,40,9999,0.100000,99,0,0.000000,14,0.000000,22.170911,0.529557,99,99,0,0,0,0,0
3,39999,14,30000,29,0,40,9999,0.100000,99,0,0.000000,14,1.000000,32.173385,19.453078,99,99,0,0,0,0,0
3,39999,15,30000,22,0,41,9999,0.100000,99,0,0.000000,14,4.000000,25.738205,16.364666,99,99,0,0,0,0,0
3,39999,16,30000,69,0,40,9999,0.100000,99,0,0.000000,14,0.000000,24.788014,1.126268,99,99,0,0,0,0,0
3,39999,17,30000,4,0,40,9999,0.100000,99,0,0.000000,14,0.000000,28.507125,1.760318,99,99,0,0,0,0,0
3,39999,18,30000,82,0,0,9999,0.100000,99,0,0.277696,14,0.000000,29.754737,0.814458,99,99,0,0,0,0,1
3,39999,19,30000,46,0,41,9999,0.100000,99,0,0.000000,14,3.000000,26.928447,16.600074,99,99,0,0,0,0,0
3,39999,20,30000,22,0,41,9999,0.100000,99,0,0.000000,14,3.000000,27.729137,29.269511,99,99,0,0,0,0,0
3,39999,21,30000,29,0,40,9999,0.100000,99,0,0.000000,14,0.000000,28.766035,1.496272,99,99,0,0,0,0,0
3,39999,22,30000,25,0,0,9999,0.100000,99,0,0.004027,14,0.000000,33.415740,0.114346,99,99,0,0,0,0,1
3,39999,23,30000,28,10000,40,9999,0.100000,99,0,0.000000,14,1.000000,26.280329,14.644427,99,99,0,0,0,0,0
3,39999,24,30000,40,0,40,9999,0.100000,99,0,0.000000,14,2.000000,22.494621,5.159320,99,99,0,0,0,0,0
3,39999,25,30000,58,0,40,9999,0.100000,99,0,0.000000,14,0.000000,24.282289,0.998647,99,99,0,0,0,0,0
3,39999,26,30000,1,0,0,9999,0.100000,99,0,0.002292,14,0.000000,22.674065,0.116315,99,99,0,0,1,0,0
3,39999,27,30000,28,10000,40,9999,0.100000,99,0,0.000000,14,0.000000,14.726294,1.748508,99,99,0,0,0,0,0
3,39999,28,30000,82,0,40,9999,0.100000,99,0,0.000000,14,0.000000,20.952989,4.076493,99,99,0,0,0,0,0
3,39999,29,30000,22,0,0,9999,0.100000,99,0,0.000688,14,3.000000,29.708304,4.214889,99,99,0,0,0,1,0
3,39999,30,30000,1,0,41,9999,0.100000,99,0,0.000000,14,6.000000,28.740053,14.275907,99,99,0,0,0,0,0
3,39999,31,30000,46,0,0,9999,0.100000,99,0,1.807529,14,0.000000,22.375129,0.382499,99,99,0,0,0,1,0
3,39999,32,30000,82,0,40,9999,0.100000,99,0,0.000000,14,0.000000,23.020648,0.118278,99,99,0,0,0,0,0
3,39999,33,30000,82,0,40,9999,0.100000,99,0,0.000000,14,0.000000,29.634773,0.837768,99,99,0,0,0,0,0
3,39999,34,30000,3,0,0,9999,0.100000,99,0,0.346015,14,0.000000,21.699567,0.361132,99,99,0,0,0,0,1
3,39999,35,30000,78,0,0,9999,0.100000,99,0,1.468921,14,0.000000,26.040944,6.328597,99,99,0,1,0,0,0
3,39999,36,30000,78,0,40,9999,0.100000,99,0,0.000000,14,1.000000,27.706253,15.108498,99,99,0,0,0,0,0
3,39999,37,30000,46,0,40,9999,0.100000,99,0,0.000000,14,1.000000,19.966812,11.683199,99,99,0,0,0,0,0
3,39999,38,30000,40,0,0,9999,0.100000,99,0,5.741338,14,1.000000,17.682786,1.446441,99,99,0,0,1,0,0
3,39999,39,30000,1,0,0,9999,0.100000,99,0,1.627052,14,0.000000,24.627732,0.771490,99,99,0,0,0,0,1
3,39999,40,30000,64,0,1,9999,0.100000,99,0,0.112955,14,5.000000,32.604146,16.788289,99,99,0,0,0,0,1
3,39999,41,30000,69,0,41,9999,0.100000,99,0,0.000000,14,3.000000,27.910980,4.075412,99,99,0,0,0,0,0
3,39999,42,30000,3,0,0,9999,0.100000,99,0,3.595978,14,0.000000,19.855745,1.225436,99,99,0,0,0,1,0
3,39999,43,30000,22,0,0,9999,0.100000,99,0,4.207929,14,0.000000,28.273232,1.482912,99,99,0,0,1,0,0
3,39999,44,30000,58,0,40,9999,0.100000,99,0,0.000000,14,0.000000,36.437647,15.739834,99,99,0,0,0,0,0
3,39999,45,30000,4,0,40,9999,0.100000,99,0,0.000000,14,1.000000,30.196352,5.479893,99,99,0,0,0,0,0
3,39999,46,30000,4,0,0,9999,0.100000,99,0,1.766953,14,0.000000,12.581946,0.369382,99,99,0,0,0,0,1
3,39999,47,30000,29,0,40,9999,0.100000,99,0,0.000000,14,0.000000,25.353044,1.243148,99,99,0,0,0,0,0
3,39999,48,30000,40,0,40,9999,0.100000,99,0,0.000000,14,1.000000,29.215245,9.577163,99,99,0,0,0,0,0
3,39999,49,30000,29,0,0,9999,0.100000,99,0,2.744795,14,1.000000,21.493891,5.871555,99,99,0,0,1,0,0
3,39999,50,30000,58,0,0,9999,0.100000,99,0,0.001335,14,0.000000,28.950832,1.562567,99,99,0,0,0,0,1
3,39999,51,30000,40,0,40,9999,0.100000,99,0,0.000000,14,0.000000,17.953253,2.442319,99,99,0,0,0,0,0
3,39999,52,30000,3,0,40,9999,0.100000,99,0,0.000000,14,0.000000,30.076617,0.291698,99,99,0,0,0,0,0
3,39999,53,30000,4,0,40,9999,0.100000,99,0,0.000000,14,0.000000,27.100679,1.080588,99,99,0,0,0,0,0
3,39999,54,30000,46,0,40,9999,0.100000,99,0,0.000000,14,0.000000,30.281682,1.193372,99,99,0,0,0,0,0
3,39999,55,30000,40,0,40,9999,0.100000,99,0,0.000000,14,0.000000,27.068376,0.823183,99,99,0,0,0,0,0
3,39999,56,30000,40,0,40,9999,0.100000,99,0,0.000000,14,0.000000,31.990382,0.350447,99,99,0,0,0,0,0
3,39999,57,30000,3,0,40,9999,0.100000,99,0,0.000000,14,0.000000,22.607150,0.238449,99,99,0,0,0,0,0
3,39999,58,30000,64,0,40,9999,0.100000,99,0,0.000000,14,3.000000,29.161654,15.917438,99,99,0,0,0,0,0
3,39999,59,30000,25,0,40,9999,0.100000,99,0,0.000000,14,0.000000,24.400637,0.679258,99,99,0,0,0,0,0
3,39999,60,30000,82,0,40,9999,0.100000,99,0,0.000000,14,0.000000,28.497661,1.208545,99,99,0,0,0,0,0
3,39999,61,30000,25,0,40,9999,0.100000,99,0,0.000000,14,1.000000,17.701866,7.618722,99,99,0,0,0,0,0
3,39999,62,30000,1,0,40,9999,0.100000,99,0,0.000000,14,2.000000,29.808989,14.638420,99,99,0,0,0,0,0
3,39999,63,30000,64,0,40,9999,0.065000,99,0,0.000000,14,0.000000,17.692335,1.123331,99,99,0,0,0,0,0
3,39999,64,30000,28,10000,40,9999,0.100000,99,0,0.000000,14,0.000000,32.906845,0.090205,99,99,0,0,0,0,0
3,39999,65,30000,46,0,43,9999,0.100000,99,0,0.000000,14,5.000000,14.813589,6.711632,99,99,0,0,0,0,0
3,39999,66,30000,25,0,0,9999,0.100000,99,0,0.524470,14,0.000000,19.235131,0.244484,99,99,0,1,0,0,0
3,39999,67,30000,29,0,40,9999,0.100000,99,0,0.000000,14,0.000000,27.230568,0.117012,99,99,0,0,0,0,0
3,39999,68,30000,82,0,0,9999,0.100000,99,0,1.774964,14,0.000000,19.765120,0.309412,99,99,0,0,1,0,0
3,39999,69,30000,40,0,40,9999,0.100000,99,0,0.000000,14,2.000000,21.476532,4.866421,99,99,0,0,0,0,0
3,39999,70,30000,82,0,0,9999,0.100000,99,0,0.053316,14,0.000000,19.547172,0.240074,99,99,0,0,1,0,0
3,39999,71,30000,28,10000,40,9999,0.100000,99,0,0.000000,14,0.000000,20.971430,0.604482,99,99,0,0,0,0,0
3,39999,72,30000,25,0,40,9999,0.100000,99,0,0.000000,14,0.000000,21.791857,0.127081,99,99,0,0,0,0,0
3,39999,73,30000,64,0,43,9999,0.100000,99,0,0.000000,14,5.000000,15.294286,5.181683,99,99,0,0,0,0,0
3,39999,74,30000,69,0,40,9999,0.100000,99,0,0.000000,14,0.000000,26.287159,7.156346,99,99,0,0,0,0,0
3,39999,75,30000,25,0,0,9999,0.100000,99,0,2.503081,14,0.000000,27.494122,0.648950,99,99,0,0,0,1,0
3,39999,76,30000,64,0,40,9999,0.100000,99,0,0.000000,14,1.000000,20.837226,5.927274,99,99,0,0,0,0,0
3,39999,77,30000,82,0,0,9999,0.100000,99,0,0.319931,14,0.000000,27.781509,0.143743,99,99,0,0,0,1,0
3,39999,78,30000,3,0,40,9999,0.100000,99,0,0.000000,14,0.000000,26.387094,0.345454,99,99,0,0,0,0,0
3,39999,79,30000,25,0,40,9999,0.100000,99,0,0.000000,14,0.000000,14.538906,1.431681,99,99,0,0,0,0,0
3,39999,80,30000,29,0,43,9999,0.100000,99,0,0.000000,14,9.000000,21.526378,12.265833,99,99,0,0,0,0,0
3,39999,81,30000,40,0,41,9999,0.100000,99,0,0.000000,14,5.000000,30.009358,7.482511,99,99,0,0,0,0,0
3,39999,82,30000,40,0,0,9999,0.100000,99,0,0.221333,14,0.000000,16.971018,0.889079,99,99,0,0,0,0,1
3,39999,83,30000,1,0,40,9999,0.100000,99,0,0.000000,14,2.000000,28.290954,13.188163,99,99,0,0,0,0,0
3,39999,84,30000,3,0,40,9999,0.100000,99,0,0.000000,14,1.000000,25.878067,4.210543,99,99,0,0,0,0,0
3,39999,85,30000,58,0,40,9999,0.100000,99,0,0.000000,14,0.000000,17.938133,0.264113,99,99,0,0,0,0,0
3,39999,86,30000,78,0,41,9999,0.100000,99,0,0.000000,14,3.000000,23.162048,18.091477,99,99,0,0,0,0,0
3,39999,87,30000,28,10000,40,9999,0.100000,99,0,0.000000,14,0.000000,25.098651,2.153221,99,99,0,0,0,0,0
3,39999,88,30000,22,0,97,9999,0.100000,99,0,48.554477,14,13.000000,17.159186,22.740550,99,99,1,0,0,0,0
3,39999,89,30000,78,0,40,9999,0.100000,99,0,0.000000,14,0.000000,28.035438,16.600461,99,99,0,0,0,0,0
3,39999,90,30000,28,10000,40,9999,0.100000,99,0,0.000000,14,0.000000,30.168217,1.746452,99,99,0,0,0,0,0
3,39999,91,30000,69,0,42,9999,0.100000,99,0,0.000000,14,8.000000,28.307330,19.639122,99,99,0,0,0,0,0
3,39999,92,30000,64,0,40,9999,0.100000,99,0,0.000000,14,1.000000,26.062762,19.884363,99,99,0,0,0,0,0
3,39999,93,30000,40,0,40,9999,0.100000,99,0,0.000000,14,1.000000,17.694791,1.817548,99,99,0,0,0,0,0
3,39999,94,30000,46,0,41,9999,0.100000,99,0,0.000000,14,4.000000,25.151317,13.472736,99,99,0,0,0,0,0
3,39999,95,30000,4,0,40,9999,0.100000,99,0,0.000000,14,1.000000,21.431376,6.235946,99,99,0,0,0,0,0
3,39999,96,30000,3,0,40,9999,0.100000,99,0,0.000000,14,0.000000,27.743916,0.577855,99,99,0,0,0,0,0
3,39999,97,30000,64,0,42,9999,0.100000,99,0,0.000000,14,6.000000,27.834368,8.689231,99,99,0,0,0,0,0
3,39999,98,30000,40,0,40,9999,0.100000,99,0,0.000000,14,1.000000,22.547427,3.964006,99,99,0,0,0,0,0
3,39999,99,30000,3,0,40,9999,0.100000,99,0,0.000000,14,2.000000,25.629456,15.695544,99,99,0,0,0,0,0
4,49999,0,40000,58,0,0,9999,0.100000,99,0,0.204438,14,0.000000,22.789858,0.375959,99,99,0,0,1,0,0
4,49999,1,40000,46,0,40,9999,0.065000,99,0,0.000000,15,0.000000,25.542757,0.511871,99,99,0,0,0,0,0
4,49999,2,40000,3,0,40,9999,0.100000,99,0,0.000000,14,0.000000,25.165157,1.663852,99,99,0,0,0,0,0
4,49999,3,40000,28,10000,0,9999,0.100000,99,0,0.102743,14,0.000000,17.711306,0.113104,99,99,0,0,0,1,0
4,49999,4,40000,58,0,40,9999,0.100000,99,0,0.000000,14,1.000000,30.431205,7.297349,99,99,0,0,0,0,0
4,49999,5,40000,4,0,1,9999,0.100000,99,0,15.546043,14,3.000000,25.918426,7.430068,99,99,0,1,0,0,0
4,49999,6,40000,88,30000,0,9999,0.100000,99,0,3.421013,15,0.000000,19.723979,0.884302,99,99,0,0,1,0,0
4,49999,7,40000,25,0,0,9999,0.100000,99,0,5.128230,14,1.000000,26.299896,1.258498,99,99,0,0,0,1,0
4,49999,8,40000,40,0,0,9999,0.100000,99,0,1.176280,14,0.000000,19.935156,0.649290,99,99,0,0,1,0,0
4,49999,9,40000,4,0,0,9999,0.100000,99,0,1.735663,14,0.000000,21.181559,0.439577,99,99,0,0,0,1,0
4,49999,10,40000,8,30000,40,9999,0.100000,99,0,0.000000,14,0.000000,30.544014,0.465230,99,99,0,0,0,0,0
4,49999,11,40000,46,0,41,9999,0.100000,99,0,0.000000,14,5.000000,25.037092,13.303672,99,99,0,0,0,0,0
4,49999,12,40000,3,0,41,9999,0.100000,99,0,0.000000,14,5.000000,25.825437,8.108147,99,99,0,0,0,0,0
4,49999,13,40000,69,0,40,9999,0.100000,99,0,0.000000,14,0.000000,22.576697,0.276322,99,99,0,0,0,0,0
4,49999,14,40000,65,30000,41,9999,0.100000,99,0,0.000000,14,6.000000,31.164265,15.788085,99,99,0,0,0,0,0
4,49999,15,40000,1,0,40,9999,0.100000,99,0,0.000000,15,3.000000,30.365688,14.101042,99,99,0,0,0,0,0
4,49999,16,40000,88,30000,41,9999,0.100000,99,0,0.000000,15,4.000000,24.766188,9.789189,99,99,0,0,0,0,0
4,49999,17,40000,25,0,41,9999,0.100000,99,0,0.000000,15,4.000000,28.878880,7.116322,99,99,0,0,0,0,0
4,49999,18,40000,3,0,40,9999,0.100000,99,0,0.000000,15,0.000000,30.240185,0.406350,99,99,0,0,0,0,0
4,49999,19,40000,1,0,41,9999,0.100000,99,0,0.000000,15,3.000000,24.998267,13.271536,99,99,0,0,0,0,0
4,49999,20,40000,4,0,40,9999,0.100000,99,0,0.000000,14,0.000000,28.717125,2.733429,99,99,0,0,0,0,0
4,49999,21,40000,58,0,40,9999,0.100000,99,0,0.000000,14,1.000000,29.388062,2.415372,99,99,0,0,0,0,0
4,49999,22,40000,46,0,0,9999,0.100000,99,0,0.023781,14,0.000000,33.415395,0.100793,99,99,0,0,0,0,1
4,49999,23,40000,69,0,41,9999,0.100000,99,0,0.000000,14,3.000000,25.731015,13.324123,99,99,0,0,0,0,0
4,49999,24,40000,40,0,0,9999,0.100000,99,0,0.682261,14,0.000000,22.778398,0.387477,99,99,0,0,0,1,0
4,49999,25,40000,78,0,40,9999,0.100000,99,0,0.000000,14,0.000000,23.517271,1.020171,99,99,0,0,0,0,0
4,49999,26,40000,25,0,0,9999,0.100000,99,0,0.000419,15,0.000000,22.675396,0.121157,99,99,0,0,1,0,0
4,49999,27,40000,80,30000,40,9999,0.100000,99,0,0.000000,15,0.000000,14.457842,1.103613,99,99,0,0,0,0,0
4,49999,28,40000,22,0,40,9999,0.100000,99,0,0.000000,14,1.000000,21.105244,1.752112,99,99,0,0,0,0,0
4,49999,29,40000,25,0,0,9999,0.100000,99,0,0.007489,14,0.000000,30.589110,0.109053,99,99,0,0,0,1,0
4,49999,30,40000,58,0,41,9999,0.100000,99,0,0.000000,14,5.000000,26.142356,8.096095,99,99,0,0,0,0,0
4,49999,31,40000,25,0,40,9999,0.100000,99,0,0.000000,15,0.000000,22.698643,0.176641,99,99,0,0,0,0,0
4,49999,32,40000,3,0,40,9999,0.100000,99,0,0.000000,14,0.000000,23.023281,0.117971,99,99,0,0,0,0,0
4,49999,33,40000,88,30000,40,9999,0.100000,99,0,0.000000,15,0.000000,30.120610,0.613818,99,99,0,0,0,0,0
4,49999,34,40000,4,0,0,9999,0.100000,99,0,0.613676,14,0.000000,21.662905,2.489653,99,99,0,0,0,0,1
4,49999,35,40000,1,0,0,9999,0.100000,99,0,2.534312,14,1.000000,25.496900,14.497265,99,99,0,1,0,0,0
4,49999,36,40000,25,0,0,9999,0.100000,99,0,0.203325,14,2.000000,28.274137,6.705389,99,99,0,0,0,0,1
4,49999,37,40000,64,0,40,9999,0.100000,99,0,0.000000,14,1.000000,20.611584,6.220147,99,99,0,0,0,0,0
4,49999,38,40000,88,30000,0,9999,0.100000,99,0,0.506257,15,0.000000,18.858647,0.342309,99,99,0,0,1,0,0
4,49999,39,40000,22,0,0,9999,0.100000,99,0,1.686666,15,0.000000,24.628236,0.574963,99,99,0,0,0,0,1
4,49999,40,40000,82,0,0,9999,0.100000,99,0,0.719119,14,0.000000,28.418283,0.226230,99,99,0,0,0,0,1
4,49999,41,40000,64,0,40,9999,0.100000,99,0,0.000000,14,1.000000,26.106032,1.538703,99,99,0,0,0,0,0
4,49999,42,40000,25,0,0,9999,0.100000,99,0,3.165023,14,0.000000,19.799940,1.425207,99,99,0,0,0,1,0
4,49999,43,40000,46,0,0,9999,0.100000,99,0,0.236313,15,0.000000,29.051183,0.983184,99,99,0,0,1,0,0
4,49999,44,40000,4,0,40,9999,0.100000,99,0,0.000000,14,0.000000,36.142389,9.417241,99,99,0,0,0,0,0
4,49999,45,40000,69,0,42,9999,0.100000,99,0,0.000000,15,9.000000,30.882389,19.062782,99,99,0,0,0,0,0
4,49999,46,40000,28,10000,0,9999,0.100000,99,0,0.703733,14,0.000000,12.369532,0.222260,99,99,0,0,0,0,1
4,49999,47,40000,28,10000,40,9999,0.100000,99,0,0.000000,15,0.000000,25.362982,0.854465,99,99,0,0,0,0,0
4,49999,48,40000,1,0,40,9999,0.100000,99,0,0.000000,14,0.000000,30.865752,13.696658,99,99,0,0,0,0,0
4,49999,49,40000,46,0,41,9999,0.100000,99,0,0.000000,14,4.000000,21.514381,14.169452,99,99,0,0,0,0,0
4,49999,50,40000,80,30000,0,9999,0.100000,99,0,0.011366,15,0.000000,29.286837,0.153469,99,99,0,0,0,0,1
4,49999,51,40000,28,10000,40,9999,0.100000,99,0,0.000000,15,0.000000,18.068238,0.412331,99,99,0,0,0,0,0
4,49999,52,40000,80,30000,40,9999,0.100000,99,0,0.000000,15,0.000000,30.074931,0.168915,99,99,0,0,0,0,0
4,49999,53,40000,69,0,40,9999,0.100000,99,0,0.000000,14,0.000000,26.787348,1.996939,99,99,0,0,0,0,0
4,49999,54,40000,64,0,0,9999,0.100000,99,0,0.163682,14,0.000000,30.666188,0.523371,99,99,0,0,0,0,1
4,49999,55,40000,4,0,40,9999,0.100000,99,0,0.000000,14,0.000000,26.743091,2.165985,99,99,0,0,0,0,0
4,49999,56,40000,3,0,40,9999,0.100000,99,0,0.000000,15,0.000000,32.133466,0.368185,99,99,0,0,0,0,0
4,49999,57,40000,3,0,40,9999,0.100000,99,0,0.000000,15,0.000000,22.566549,0.959120,99,99,0,0,0,0,0
4,49999,58,40000,58,0,41,9999,0.100000,99,0,0.000000,14,5.000000,26.294550,21.879174,99,99,0,0,0,0,0
4,49999,59,40000,4,0,40,9999,0.100000,99,0,0.000000,14,0.000000,24.396617,0.501589,99,99,0,0,0,0,0
4,49999,60,40000,1,0,40,9999,0.100000,99,0,0.000000,14,1.000000,29.194760,1.597060,99,99,0,0,0,0,0
4,49999,61,40000,4,0,40,9999,0.100000,99,0,0.000000,15,1.000000,17.425338,8.017576,99,99,0,0,0,0,0
4,49999,62,40000,28,10000,40,9999,0.100000,99,0,0.000000,15,1.000000,27.781759,10.500750,99,99,0,0,0,0,0
4,49999,63,40000,4,0,40,9999,0.100000,99,0,0.000000,15,0.000000,18.663784,0.237362,99,99,0,0,0,0,0
4,49999,64,40000,8,30000,40,9999,0.100000,99,0,0.000000,15,0.000000,32.906272,0.095672,99,99,0,0,0,0,0
4,49999,65,40000,3,0,40,9999,0.100000,99,0,0.000000,14,0.000000,19.581742,0.675261,99,99,0,0,0,0,0
4,49999,66,40000,69,0,0,9999,0.100000,99,0,0.412295,15,0.000000,19.059966,0.250573,99,99,0,1,0,0,0
4,49999,67,40000,40,0,40,9999,0.100000,99,0,0.000000,14,0.000000,27.253451,0.124453,99,99,0,0,0,0,0
4,49999,68,40000,28,10000,0,9999,0.100000,99,0,0.507307,14,0.000000,19.964953,0.186980,99,99,0,0,1,0,0
4,49999,69,40000,28,10000,40,9999,0.100000,99,0,0.000000,15,0.000000,21.321164,2.528258,99,99,0,0,0,0,0
4,49999,70,40000,65,30000,0,9999,0.100000,99,0,0.087509,14,0.000000,19.536814,0.217891,99,99,0,0,1,0,0
4,49999,71,40000,46,0,40,9999,0.100000,99,0,0.000000,14,0.000000,20.856601,0.766188,99,99,0,0,0,0,0
4,49999,72,40000,64,0,40,9999,0.100000,99,0,0.000000,15,0.000000,21.764372,0.705883,99,99,0,0,0,0,0
4,49999,73,40000,69,0,40,9999,0.100000,99,0,0.000000,14,0.000000,19.747266,0.554991,99,99,0,0,0,0,0
4,49999,74,40000,4,0,40,9999,0.100000,99,0,0.000000,15,1.000000,25.740729,3.972939,99,99,0,0,0,0,0
4,49999,75,40000,40,0,0,9999,0.100000,99,0,1.714045,15,0.000000,27.195326,0.484847,99,99,0,0,0,1,0
4,49999,76,40000,88,30000,41,9999,0.100000,99,0,0.000000,15,3.000000,22.451532,7.696265,99,99,0,0,0,0,0
4,49999,77,40000,65,30000,0,9999,0.100000,99,0,0.252971,14,0.000000,27.839012,0.149595,99,99,0,0,0,1,0
4,49999,78,40000,8,30000,40,9999,0.100000,99,0,0.000000,15,0.000000,26.457811,0.341580,99,99,0,0,0,0,0
4,49999,79,40000,78,0,40,9999,0.100000,99,0,0.000000,15,0.000000,14.311606,1.414581,99,99,0,0,0,0,0
4,49999,80,40000,1,0,40,9999,0.100000,99,0,0.000000,14,1.000000,29.727933,2.004075,99,99,0,0,0,0,0
4,49999,81,40000,28,10000,40,9999,0.100000,99,0,0.000000,15,2.000000,24.581246,5.851746,99,99,0,0,0,0,0
4,49999,82,40000,64,0,0,9999,0.100000,99,0,0.177486,15,0.000000,16.997310,0.072263,99,99,0,0,0,0,1
4,49999,83,40000,22,0,40,9999,0.100000,99,0,0.000000,14,0.000000,28.138718,0.478685,99,99,0,0,0,0,0
4,49999,84,40000,69,0,40,9999,0.100000,99,0,0.000000,14,1.000000,26.170899,2.948125,99,99,0,0,0,0,0
4,49999,85,40000,25,0,40,9999,0.100000,99,0,0.000000,14,0.000000,17.952673,0.107255,99,99,0,0,0,0,0
4,49999,86,40000,46,0,40,9999,0.100000,99,0,0.000000,14,1.000000,25.374967,11.737572,99,99,0,0,0,0,0
4,49999,87,40000,1,0,40,9999,0.100000,99,0,0.000000,14,0.000000,24.872122,1.869439,99,99,0,0,0,0,0
4,49999,88,40000,25,0,41,9999,0.100000,99,0,0.000000,15,3.000000,28.086472,10.009163,99,99,0,0,0,0,0
4,49999,89,40000,25,0,40,9999,0.100000,99,0,0.000000,15,2.000000,27.911705,10.291903,99,99,0,0,0,0,0
4,49999,90,40000,1,0,40,9999,0.100000,99,0,0.000000,15,0.000000,30.524601,1.291491,99,99,0,0,0,0,0
4,49999,91,40000,28,10000,1,9999,0.100000,99,0,0.113746,15,4.000000,20.187616,18.176950,99,99,0,1,0,0,0
4,49999,92,40000,46,0,42,9999,0.100000,99,0,0.000000,14,6.000000,25.480265,15.614170,99,99,0,0,0,0,0
4,49999,93,40000,64,0,40,9999,0.100000,99,0,0.000000,15,0.000000,19.075841,0.664057,99,99,0,0,0,0,0
4,49999,94,40000,28,10000,41,9999,0.100000,99,0,0.000000,15,3.000000,25.319151,12.457712,99,99,0,0,0,0,0
4,49999,95,40000,46,0,0,9999,0.100000,99,0,3.098869,14,1.000000,21.323052,1.684878,99,99,0,0,1,0,0
4,49999,96,40000,25,0,40,9999,0.100000,99,0,0.000000,14,0.000000,27.470196,0.386929,99,99,0,0,0,0,0
4,49999,97,40000,3,0,40,9999,0.100000,99,0,0.000000,14,1.000000,22.504321,3.868935,99,99,0,0,0,0,0
4,49999,98,40000,78,0,40,9999,0.100000,99,0,0.000000,15,1.000000,22.081200,3.360309,99,99,0,0,0,0,0
4,49999,99,40000,8,30000,41,9999,0.100000,99,0,0.000000,15,4.000000,26.074126,6.037732,99,99,0,0,0,0,0
5,59999,0,50000,8,30000,0,9999,0.100000,99,0,2.939586,15,2.000000,22.806422,3.218475,99,99,0,0,1,0,0
5,59999,1,50000,1,0,40,9999,0.100000,99,0,0.000000,15,0.000000,25.453311,0.475470,99,99,0,0,0,0,0
5,59999,2,50000,3,0,0,9999,0.100000,99,0,1.904188,15,1.000000,24.838337,1.280741,99,99,0,0,0,0,1
5,59999,3,50000,22,0,0,9999,0.100000,99,0,0.371437,15,0.000000,17.730858,0.199597,99,99,0,0,0,1,0
5,59999,4,50000,78,0,40,9999,0.100000,99,0,0.000000,15,0.000000,31.745136,0.693714,99,99,0,0,0,0,0
5,59999,5,50000,80,30000,1,9999,0.100000,99,0,0.399357,15,4.000000,25.195656,7.064198,99,99,0,1,0,0,0
5,59999,6,50000,25,0,0,9999,0.100000,99,0,0.007150,15,0.000000,19.591904,1.234209,99,99,0,0,1,0,0
5,59999,7,50000,64,0,0,9999,0.100000,99,0,1.350943,15,0.000000,26.006045,0.803998,99,99,0,0,0,1,0
5,59999,8,50000,22,0,0,9999,0.100000,99,0,2.776825,15,0.000000,20.085555,0.891518,99,99,0,0,1,0,0
5,59999,9,50000,25,0,0,9999,0.100000,99,0,1.649423,15,0.000000,20.921887,0.418009,99,99,0,0,0,1,0
5,59999,10,50000,8,30000,40,9999,0.100000,99,0,0.000000,15,0.000000,30.614462,0.427065,99,99,0,0,0,0,0
5,59999,11,50000,80,30000,40,9999,0.100000,99,0,0.000000,15,1.000000,25.482223,10.206056,99,99,0,0,0,0,0
5,59999,12,50000,8,30000,40,9999,0.100000,99,0,0.000000,15,0.000000,29.866188,0.095037,99,99,0,0,0,0,0
5,59999,13,50000,3,0,40,9999,0.100000,99,0,0.000000,15,0.000000,22.743191,0.396552,99,99,0,0,0,0,0
5,59999,14,50000,1,0,40,9999,0.100000,99,0,0.000000,15,3.000000,29.092383,13.201641,99,99,0,0,0,0,0
5,59999,15,50000,88,30000,40,9999,0.100000,99,0,0.000000,15,1.000000,27.734184,7.498433,99,99,0,0,0,0,0
5,59999,16,50000,88,30000,41,9999,0.135000,99,0,0.000000,15,4.000000,26.523574,23.147751,99,99,0,0,0,0,0
5,59999,17,50000,80,30000,40,9999,0.100000,99,0,0.000000,15,1.000000,29.346219,12.692716,99,99,0,0,0,0,0
5,59999,18,50000,80,30000,0,9999,0.100000,99,0,0.313337,15,0.000000,30.313024,0.406411,99,99,0,0,0,0,1
5,59999,19,50000,78,0,40,9999,0.100000,99,0,0.000000,15,1.000000,27.107295,14.658304,99,99,0,0,0,0,0
5,59999,20,50000,58,0,40,9999,0.100000,99,0,0.000000,15,2.000000,29.343897,10.902464,99,99,0,0,0,0,0
5,59999,21,50000,3,0,40,9999,0.100000,99,0,0.000000,15,3.000000,29.390041,5.788252,99,99,0,0,0,0,0
5,59999,22,50000,46,0,0,9999,0.100000,99,0,0.120909,15,0.000000,33.428611,0.092111,99,99,0,0,0,0,1
5,59999,23,50000,8,30000,40,9999,0.100000,99,0,0.000000,15,2.000000,22.704392,3.424631,99,99,0,0,0,0,0
5,59999,24,50000,88,30000,0,9999,0.100000,99,0,1.354539,15,0.000000,22.851388,0.791655,99,99,0,0,0,1,0
5,59999,25,50000,8,30000,40,9999,0.100000,99,0,0.000000,15,0.000000,22.740964,0.960049,99,99,0,0,0,0,0
5,59999,26,50000,40,0,0,9999,0.100000,99,0,0.022268,15,0.000000,22.678067,0.134629,99,99,0,0,1,0,0
5,59999,27,50000,58,0,40,9999,0.100000,99,0,0.000000,15,0.000000,14.286933,1.559876,99,99,0,0,0,0,0
5,59999,28,50000,4,0,0,9999,0.100000,99,0,0.002583,15,1.000000,20.002091,2.216459,99,99,0,0,1,0,0
5,59999,29,50000,1,0,0,9999,0.100000,99,0,0.006430,15,0.000000,30.587203,0.108248,99,99,0,0,0,1,0
5,59999,30,50000,88,30000,41,9999,0.100000,99,0,0.000000,15,4.000000,28.493805,6.656494,99,99,0,0,0,0,0
5,59999,31,50000,80,30000,40,9999,0.100000,99,0,0.000000,15,0.000000,22.810490,0.283939,99,99,0,0,0,0,0
5,59999,32,50000,3,0,40,9999,0.135000,99,0,0.000000,15,0.000000,23.026626,0.127643,99,99,0,0,0,0,0
5,59999,33,50000,3,0,40,9999,0.100000,99,0,0.000000,15,0.000000,30.187519,0.706646,99,99,0,0,0,0,0
5,59999,34,50000,8,30000,0,9999,0.100000,99,0,2.205326,15,0.000000,21.629719,1.286816,99,99,0,0,0,0,1
5,59999,35,50000,22,0,42,9999,0.100000,99,0,0.000000,15,6.000000,25.818419,7.677318,99,99,0,0,0,0,0
5,59999,36,50000,25,0,0,9999,0.100000,99,0,0.372492,15,0.000000,26.251241,0.486976,99,99,0,0,0,0,1
5,59999,37,50000,78,0,40,9999,0.100000,99,0,0.000000,15,0.000000,19.447450,9.735162,99,99,0,0,0,0,0
5,59999,38,50000,5,40000,40,9999,0.100000,99,0,0.000000,15,0.000000,19.010187,0.513402,99,99,0,0,0,0,0
5,59999,39,50000,22,0,40,9999,0.100000,99,0,0.000000,15,0.000000,24.536495,1.068223,99,99,0,0,0,0,0
5,59999,40,50000,78,0,0,9999,0.100000,99,0,0.431998,15,0.000000,28.381124,0.161767,99,99,0,0,0,0,1
5,59999,41,50000,25,0,40,9999,0.100000,99,0,0.000000,15,0.000000,25.756179,2.447019,99,99,0,0,0,0,0
5,59999,42,50000,3,0,0,9999,0.100000,99,0,0.418920,15,0.000000,19.427409,0.538743,99,99,0,0,0,1,0
5,59999,43,50000,3,0,0,9999,0.100000,99,0,10.418509,15,2.000000,29.116061,4.108573,99,99,0,0,1,0,0
5,59999,44,50000,64,0,40,9999,0.100000,99,0,0.000000,15,0.000000,36.363060,6.050132,99,99,0,0,0,0,0
5,59999,45,50000,69,0,40,9999,0.100000,99,0,0.000000,15,0.000000,29.100141,0.196716,99,99,0,0,0,0,0
5,59999,46,50000,40,0,0,9999,0.100000,99,0,1.078190,15,0.000000,12.277633,0.187906,99,99,0,0,0,0,1
5,59999,47,50000,22,0,40,9999,0.100000,99,0,0.000000,15,1.000000,25.254445,1.436754,99,99,0,0,0,0,0
5,59999,48,50000,69,0,41,9999,0.100000,99,0,0.000000,15,4.000000,30.924950,20.457422,99,99,0,0,0,0,0
5,59999,49,50000,5,40000,40,9999,0.100000,99,0,0.000000,15,0.000000,22.340351,11.776673,99,99,0,0,0,0,0
5,59999,50,50000,25,0,0,9999,0.100000,99,0,0.014745,15,0.000000,29.280238,1.651389,99,99,0,0,0,0,1
5,59999,51,50000,46,0,40,9999,0.100000,99,0,0.000000,15,0.000000,18.053521,0.511608,99,99,0,0,0,0,0
5,59999,52,50000,3,0,40,9999,0.100000,99,0,0.000000,15,0.000000,30.072607,0.166448,99,99,0,0,0,0,0
5,59999,53,50000,3,0,40,9999,0.100000,99,0,0.000000,15,0.000000,26.546670,0.134844,99,99,0,0,0,0,0
5,59999,54,50000,80,30000,40,9999,0.100000,99,0,0.000000,15,0.000000,30.684427,0.435142,99,99,0,0,0,0,0
5,59999,55,50000,5,40000,40,9999,0.100000,99,0,0.000000,15,0.000000,26.308559,1.000413,99,99,0,0,0,0,0
5,59999,56,50000,40,0,40,9999,0.100000,99,0,0.000000,15,0.000000,32.260277,0.413901,99,99,0,0,0,0,0
5,59999,57,50000,64,0,40,9999,0.100000,99,0,0.000000,15,0.000000,22.518312,0.316161,99,99,0,0,0,0,0
5,59999,58,50000,78,0,40,9999,0.100000,99,0,0.000000,15,0.000000,31.726109,0.135121,99,99,0,0,0,0,0
5,59999,59,50000,1,0,40,9999,0.100000,99,0,0.000000,15,0.000000,24.311506,0.945743,99,99,0,0,0,0,0
5,59999,60,50000,88,30000,40,9999,0.100000,99,0,0.000000,15,2.000000,29.233769,7.788957,99,99,0,0,0,0,0
5,59999,61,50000,88,30000,40,9999,0.100000,99,0,0.000000,15,1.000000,18.719145,24.774750,99,99,0,0,0,0,0
5,59999,62,50000,5,40000,40,9999,0.100000,99,0,0.000000,15,2.000000,29.192465,8.646619,99,99,0,0,0,0,0
5,59999,63,50000,5,40000,0,9999,0.100000,99,0,1.808868,15,0.000000,18.809898,0.429509,99,99,0,0,1,0,0
5,59999,64,50000,69,0,40,9999,0.100000,99,0,0.000000,15,0.000000,32.907927,0.099169,99,99,0,0,0,0,0
5,59999,65,50000,1,0,40,9999,0.100000,99,0,0.000000,15,0.000000,19.808417,0.762211,99,99,0,0,0,0,0
5,59999,66,50000,5,40000,0,9999,0.100000,99,0,0.002646,15,0.000000,18.888904,0.456551,99,99,0,1,0,0,0
5,59999,67,50000,3,0,0,9999,0.100000,99,0,0.272404,15,0.000000,27.283025,0.143289,99,99,0,0,0,1,0
5,59999,68,50000,3,0,0,9999,0.100000,99,0,1.662154,15,0.000000,20.086581,0.412019,99,99,0,0,1,0,0
5,59999,69,50000,58,0,40,9999,0.100000,99,0,0.000000,15,0.000000,21.363483,0.797929,99,99,0,0,0,0,0
5,59999,70,50000,64,0,0,9999,0.100000,99,0,0.003320,15,0.000000,19.519626,0.191734,99,99,0,0,1,0,0
5,59999,71,50000,4,0,40,9999,0.100000,99,0,0.000000,15,0.000000,20.446549,0.576650,99,99,0,0,0,0,0
5,59999,72,50000,69,0,40,9999,0.100000,99,0,0.000000,15,0.000000,21.872460,1.812872,99,99,0,0,0,0,0
5,59999,73,50000,80,30000,40,9999,0.100000,99,0,0.000000,15,0.000000,19.944825,0.705599,99,99,0,0,0,0,0
5,59999,74,50000,5,40000,0,9999,0.100000,99,0,1.834570,15,1.000000,26.002028,2.781056,99,99,0,1,0,0,0
5,59999,75,50000,64,0,0,9999,0.100000,99,0,0.064130,15,0.000000,27.005527,0.102088,99,99,0,0,0,1,0
5,59999,76,50000,5,40000,40,9999,0.100000,99,0,0.000000,15,0.000000,19.505128,2.446306,99,99,0,0,0,0,0
5,59999,77,50000,5,40000,40,9999,0.100000,99,0,0.000000,15,0.000000,27.883611,0.156117,99,99,0,0,0,0,0
5,59999,78,50000,25,0,40,9999,0.100000,99,0,0.000000,15,0.000000,26.511162,0.397677,99,99,0,0,0,0,0
5,59999,79,50000,46,0,40,9999,0.100000,99,0,0.000000,15,0.000000,14.143160,1.409411,99,99,0,0,0,0,0
5,59999,80,50000,69,0,40,9999,0.100000,99,0,0.000000,15,0.000000,31.428313,0.139800,99,99,0,0,0,0,0
5,59999,81,50000,80,30000,41,9999,0.100000,99,0,0.000000,15,5.000000,25.366252,7.789896,99,99,0,0,0,0,0
5,59999,82,50000,80,30000,0,9999,0.100000,99,0,0.343797,15,0.000000,16.974985,0.758711,99,99,0,0,0,0,1
5,59999,83,50000,5,40000,40,9999,0.100000,99,0,0.000000,15,0.000000,28.083636,0.437673,99,99,0,0,0,0,0
5,59999,84,50000,80,30000,40,9999,0.100000,99,0,0.000000,15,0.000000,25.425987,1.264749,99,99,0,0,0,0,0
5,59999,85,50000,40,0,40,9999,0.100000,99,0,0.000000,15,0.000000,17.970040,0.191116,99,99,0,0,0,0,0
5,59999,86,50000,80,30000,41,9999,0.100000,99,0,0.000000,15,3.000000,24.521825,8.257532,99,99,0,0,0,0,0
5,59999,87,50000,5,40000,40,9999,0.100000,99,0,0.000000,15,0.000000,24.670188,1.459936,99,99,0,0,0,0,0
5,59999,88,50000,1,0,41,9999,0.100000,99,0,0.000000,15,5.000000,24.730607,20.980847,99,99,0,0,0,0,0
5,59999,89,50000,1,0,40,9999,0.100000,99,0,0.000000,15,1.000000,29.033845,12.985915,99,99,0,0,0,0,0
5,59999,90,50000,4,0,40,9999,0.100000,99,0,0.000000,15,0.000000,30.537211,1.282066,99,99,0,0,0,0,0
5,59999,91,50000,64,0,2,9999,0.100000,99,0,31.196983,15,6.000000,20.736422,7.674394,99,99,0,1,0,0,0
5,59999,92,50000,58,0,42,9999,0.100000,99,0,0.000000,15,7.000000,27.966063,21.196326,99,99,0,0,0,0,0
5,59999,93,50000,40,0,40,9999,0.100000,99,0,0.000000,15,0.000000,19.225686,0.851503,99,99,0,0,0,0,0
5,59999,94,50000,88,30000,40,9999,0.100000,99,0,0.000000,15,0.000000,24.555900,8.352230,99,99,0,0,0,0,0
5,59999,95,50000,80,30000,42,9999,0.100000,99,0,0.000000,15,6.000000,20.192024,8.507351,99,99,0,0,0,0,0
5,59999,96,50000,88,30000,40,9999,0.100000,99,0,0.000000,15,0.000000,27.273159,3.320682,99,99,0,0,0,0,0
5,59999,97,50000,78,0,40,9999,0.100000,99,0,0.000000,15,0.000000,22.730343,0.900809,99,99,0,0,0,0,0
5,59999,98,50000,25,0,41,9999,0.100000,99,0,0.000000,15,3.000000,20.860844,8.194822,99,99,0,0,0,0,0
5,59999,99,50000,40,0,40,9999,0.100000,99,0,0.000000,15,1.000000,25.058237,1.248539,99,99,0,0,0,0,0
6,69999,0,60000,69,0,40,9999,0.100000,99,0,0.000000,15,1.000000,25.557529,2.314177,99,99,0,0,0,0,0
6,69999,1,60000,88,30000,40,9999,0.100000,99,0,0.000000,15,0.000000,25.493740,0.424883,99,99,0,0,0,0,0
6,69999,2,60000,58,0,0,9999,0.100000,99,0,3.482537,15,2.000000,24.567510,2.308061,99,99,0,0,0,0,1
6,69999,3,60000,25,0,40,9999,0.100000,99,0,0.000000,15,0.000000,17.733547,0.147943,99,99,0,0,0,0,0
6,69999,4,60000,43,50000,40,9999,0.100000,99,0,0.000000,15,0.000000,32.077057,0.764513,99,99,0,0,0,0,0
6,69999,5,60000,8,30000,0,9999,0.100000,99,0,0.468203,15,0.000000,21.658697,0.252479,99,99,0,1,0,0,0
6,69999,6,60000,46,0,0,9999,0.100000,99,0,0.010803,15,0.000000,19.487531,0.279769,99,99,0,0,1,0,0
6,69999,7,60000,5,40000,0,9999,0.100000,99,0,1.488928,15,1.000000,26.291400,1.065914,99,99,0,0,0,1,0
6,69999,8,60000,91,50000,40,9999,0.100000,99,0,0.000000,15,0.000000,19.600765,0.624903,99,99,0,0,0,0,0
6,69999,9,60000,69,0,0,9999,0.100000,99,0,0.080632,15,0.000000,21.042370,0.140395,99,99,0,0,0,1,0
6,69999,10,60000,3,0,0,9999,0.100000,99,0,0.149171,15,0.000000,30.672758,0.451240,99,99,0,0,0,0,1
6,69999,11,60000,4,0,40,9999,0.100000,99,0,0.000000,15,2.000000,24.751206,14.969295,99,99,0,0,0,0,0
6,69999,12,60000,43,50000,40,9999,0.100000,99,0,0.000000,15,0.000000,29.866102,0.094048,99,99,0,0,0,0,0
6,69999,13,60000,5,40000,40,9999,0.100000,99,0,0.000000,15,0.000000,23.036765,0.456111,99,99,0,0,0,0,0
6,69999,14,60000,8,30000,41,9999,0.100000,99,0,0.000000,15,3.000000,26.434109,8.993098,99,99,0,0,0,0,0
6,69999,15,60000,46,0,42,9999,0.100000,99,0,0.000000,15,6.000000,27.474119,15.669806,99,99,0,0,0,0,0
6,69999,16,60000,8,30000,40,9999,0.100000,99,0,0.000000,15,2.000000,24.420581,5.619288,99,99,0,0,0,0,0
6,69999,17,60000,69,0,40,9999,0.100000,99,0,0.000000,15,0.000000,31.106329,0.979921,99,99,0,0,0,0,0
6,69999,18,60000,69,0,40,9999,0.100000,99,0,0.000000,15,0.000000,30.430326,0.375506,99,99,0,0,0,0,0
6,69999,19,60000,25,0,0,9999,0.100000,99,0,0.104848,15,2.000000,28.320613,6.293405,99,99,0,2,0,0,0
6,69999,20,60000,25,0,40,9999,0.100000,99,0,0.000000,15,2.000000,27.932950,12.404712,99,99,0,0,0,0,0
6,69999,21,60000,69,0,0,9999,0.100000,99,0,4.273657,15,2.000000,27.930775,5.246601,99,99,0,0,1,0,0
6,69999,22,60000,78,0,0,9999,0.100000,99,0,0.036871,15,0.000000,33.483069,0.099989,99,99,0,0,0,0,1
6,69999,23,60000,25,0,40,9999,0.100000,99,0,0.000000,15,1.000000,25.411957,2.593963,99,99,0,0,0,0,0
6,69999,24,60000,40,0,0,9999,0.100000,99,0,1.843236,15,0.000000,23.090544,0.796774,99,99,0,0,0,1,0
6,69999,25,60000,22,0,40,9999,0.100000,99,0,0.000000,15,0.000000,22.016715,1.002616,99,99,0,0,0,0,0
6,69999,26,60000,43,50000,0,9999,0.100000,99,0,0.000488,15,0.000000,22.688164,0.133295,99,99,0,0,1,0,0
6,69999,27,60000,8,30000,41,9999,0.100000,99,0,0.000000,15,2.000000,14.175110,3.014514,99,99,0,0,0,0,0
6,69999,28,60000,22,0,0,9999,0.100000,99,0,0.622710,15,0.000000,19.178523,0.448691,99,99,0,0,1,0,0
6,69999,29,60000,46,0,40,9999,0.100000,99,0,0.000000,15,0.000000,30.585271,0.140588,99,99,0,0,0,0,0
6,69999,30,60000,58,0,40,9999,0.100000,99,0,0.000000,15,0.000000,30.627498,6.253204,99,99,0,0,0,0,0
6,69999,31,60000,64,0,40,9999,0.100000,99,0,0.000000,15,0.000000,23.066324,0.379541,99,99,0,0,0,0,0
6,69999,32,60000,5,40000,40,9999,0.100000,99,0,0.000000,15,0.000000,23.033021,0.120277,99,99,0,0,0,0,0
6,69999,33,60000,88,30000,40,9999,0.100000,99,0,0.000000,15,0.000000,30.295936,0.701127,99,99,0,0,0,0,0
6,69999,34,60000,3,0,0,9999,0.100000,99,0,0.156055,15,0.000000,21.106588,1.054929,99,99,0,0,0,0,1
6,69999,35,60000,8,30000,40,9999,0.100000,99,0,0.000000,15,0.000000,19.352665,0.526302,99,99,0,0,0,0,0
6,69999,36,60000,69,0,0,9999,0.100000,99,0,0.147988,15,0.000000,26.386778,0.285312,99,99,0,0,0,0,1
6,69999,37,60000,58,0,40,9999,0.100000,99,0,0.000000,15,0.000000,19.185339,1.194056,99,99,0,0,0,0,0
6,69999,38,60000,78,0,0,9999,0.100000,99,0,1.538844,15,0.000000,19.218354,0.478683,99,99,0,0,1,0,0
6,69999,39,60000,22,0,40,9999,0.100000,99,0,0.000000,15,2.000000,24.301828,2.303234,99,99,0,0,0,0,0
6,69999,40,60000,43,50000,0,9999,0.100000,99,0,0.113085,15,0.000000,28.355940,0.096561,99,99,0,0,0,0,1
6,69999,41,60000,40,0,41,9999,0.100000,99,0,0.000000,15,4.000000,25.947527,13.454466,99,99,0,0,0,0,0
6,69999,42,60000,3,0,40,9999,0.100000,99,0,0.000000,15,0.000000,19.537630,0.119583,99,99,0,0,0,0,0
6,69999,43,60000,69,0,40,9999,0.100000,99,0,0.000000,15,1.000000,28.287762,1.735858,99,99,0,0,0,0,0
6,69999,44,60000,22,0,41,9999,0.100000,99,0,0.000000,15,5.000000,36.385591,15.048174,99,99,0,0,0,0,0
6,69999,45,60000,58,0,40,9999,0.100000,99,0,0.000000,15,0.000000,29.035766,0.104542,99,99,0,0,0,0,0
6,69999,46,60000,78,0,0,9999,0.100000,99,0,0.187507,15,0.000000,12.184378,0.090509,99,99,0,0,0,0,1
6,69999,47,60000,40,0,40,9999,0.100000,99,0,0.000000,15,2.000000,24.959260,2.396712,99,99,0,0,0,0,0
6,69999,48,60000,58,0,40,9999,0.100000,99,0,0.000000,15,1.000000,31.164723,7.092648,99,99,0,0,0,0,0
6,69999,49,60000,78,0,42,9999,0.100000,99,0,0.000000,15,7.000000,22.422389,12.651501,99,99,0,0,0,0,0
6,69999,50,60000,91,50000,40,9999,0.100000,99,0,0.000000,15,0.000000,28.946486,0.568661,99,99,0,0,0,0,0
6,69999,51,60000,69,0,43,9999,0.100000,99,0,0.000000,15,7.000000,17.809447,16.469678,99,99,0,0,0,0,0
6,69999,52,60000,3,0,0,9999,0.100000,99,0,0.003657,15,0.000000,30.070276,0.211528,99,99,0,0,0,1,0
6,69999,53,60000,88,30000,40,9999,0.100000,99,0,0.000000,15,0.000000,26.536319,0.126495,99,99,0,0,0,0,0
6,69999,54,60000,8,30000,40,9999,0.100000,99,0,0.000000,15,0.000000,30.727812,0.695536,99,99,0,0,0,0,0
6,69999,55,60000,3,0,40,9999,0.100000,99,0,0.000000,15,1.000000,26.477296,1.072667,99,99,0,0,0,0,0
6,69999,56,60000,40,0,40,9999,0.100000,99,0,0.000000,15,0.000000,32.389409,0.575809,99,99,0,0,0,0,0
6,69999,57,60000,58,0,0,9999,0.100000,99,0,0.000079,15,0.000000,22.427269,0.190187,99,99,0,0,0,0,1
6,69999,58,60000,80,30000,40,9999,0.100000,99,0,0.000000,15,0.000000,31.725465,0.137602,99,99,0,0,0,0,0
6,69999,59,60000,25,0,40,9999,0.100000,99,0,0.000000,15,2.000000,24.100129,2.300878,99,99,0,0,0,0,0
6,69999,60,60000,43,50000,40,9999,0.100000,99,0,0.000000,15,1.000000,27.835007,9.042383,99,99,0,0,0,0,0
6,69999,61,60000,43,50000,41,9999,0.100000,99,0,0.000000,15,3.000000,18.395008,10.035593,99,99,0,0,0,0,0
6,69999,62,60000,69,0,40,9999,0.100000,99,0,0.000000,15,2.000000,28.140734,11.694998,99,99,0,0,0,0,0
6,69999,63,60000,69,0,40,9999,0.100000,99,0,0.000000,15,0.000000,19.024138,0.364071,99,99,0,0,0,0,0
6,69999,64,60000,69,0,40,9999,0.100000,99,0,0.000000,15,0.000000,32.933513,0.110737,99,99,0,0,0,0,0
6,69999,65,60000,5,40000,0,9999,0.100000,99,0,0.187199,15,0.000000,19.371555,0.390388,99,99,0,0,1,0,0
6,69999,66,60000,69,0,0,9999,0.100000,99,0,0.126932,15,0.000000,18.612734,0.267776,99,99,0,1,0,0,0
6,69999,67,60000,69,0,0,9999,0.100000,99,0,0.543839,15,0.000000,27.324108,0.257189,99,99,0,0,0,1,0
6,69999,68,60000,80,30000,0,9999,0.100000,99,0,1.383401,15,0.000000,20.340985,0.404222,99,99,0,0,1,0,0
6,69999,69,60000,5,40000,40,9999,0.100000,99,0,0.000000,15,0.000000,20.925701,0.373198,99,99,0,0,0,0,0
6,69999,70,60000,40,0,0,9999,0.100000,99,0,0.018395,15,0.000000,19.520426,0.160687,99,99,0,0,1,0,0
6,69999,71,60000,8,30000,40,9999,0.100000,99,0,0.000000,15,0.000000,20.705285,0.127644,99,99,0,0,0,0,0
6,69999,72,60000,58,0,40,9999,0.100000,99,0,0.000000,15,0.000000,21.225892,0.168832,99,99,0,0,0,0,0
6,69999,73,60000,43,50000,40,9999,0.100000,99,0,0.000000,15,0.000000,19.485041,0.290480,99,99,0,0,0,0,0
6,69999,74,60000,80,30000,0,9999,0.100000,99,0,3.037764,15,0.000000,27.055484,1.380103,99,99,0,1,0,0,0
6,69999,75,60000,91,50000,0,9999,0.100000,99,0,0.136752,15,0.000000,26.993953,0.102710,99,99,0,0,0,1,0
6,69999,76,60000,5,40000,0,9999,0.100000,99,0,0.091054,15,0.000000,19.060705,0.516806,99,99,0,0,0,1,0
6,69999,77,60000,46,0,40,9999,0.100000,99,0,0.000000,15,0.000000,27.932211,0.274106,99,99,0,0,0,0,0
6,69999,78,60000,25,0,40,9999,0.100000,99,0,0.000000,15,0.000000,26.564803,0.737551,99,99,0,0,0,0,0
6,69999,79,60000,40,0,41,9999,0.100000,99,0,0.000000,15,2.000000,14.043874,3.342680,99,99,0,0,0,0,0
6,69999,80,60000,46,0,40,9999,0.100000,99,0,0.000000,15,0.000000,31.427809,0.140750,99,99,0,0,0,0,0
6,69999,81,60000,4,0,40,9999,0.100000,99,0,0.000000,15,0.000000,21.515377,0.266310,99,99,0,0,0,0,0
6,69999,82,60000,25,0,0,9999,0.100000,99,0,0.241353,15,0.000000,16.734593,0.509160,99,99,0,0,0,0,1
6,69999,83,60000,3,0,40,9999,0.100000,99,0,0.000000,15,0.000000,28.040940,0.380993,99,99,0,0,0,0,0
6,69999,84,60000,69,0,40,9999,0.100000,99,0,0.000000,15,0.000000,25.848359,1.810707,99,99,0,0,0,0,0
6,69999,85,60000,5,40000,0,9999,0.100000,99,0,0.257370,15,0.000000,17.967228,0.371264,99,99,0,0,0,1,0
6,69999,86,60000,80,30000,41,9999,0.100000,99,0,0.000000,15,5.000000,24.690653,10.307989,99,99,0,0,0,0,0
6,69999,87,60000,5,40000,40,9999,0.100000,99,0,0.000000,15,2.000000,24.629543,11.838801,99,99,0,0,0,0,0
6,69999,88,60000,8,30000,40,9999,0.100000,99,0,0.000000,15,0.000000,28.235683,22.140756,99,99,0,0,0,0,0
6,69999,89,60000,80,30000,41,9999,0.100000,99,0,0.000000,15,4.000000,30.115096,16.180072,99,99,0,0,0,0,0
6,69999,90,60000,4,0,40,9999,0.100000,99,0,0.000000,15,0.000000,30.574350,1.183994,99,99,0,0,0,0,0
6,69999,91,60000,43,50000,2,9999,0.100000,99,0,36.671255,15,7.000000,25.482400,19.274975,99,99,0,1,0,0,0
6,69999,92,60000,58,0,2,9999,0.100000,99,0,0.016569,15,8.000000,28.941571,16.693618,99,99,0,0,0,0,1
6,69999,93,60000,46,0,40,9999,0.100000,99,0,0.000000,15,0.000000,19.417481,0.670051,99,99,0,0,0,0,0
6,69999,94,60000,5,40000,41,9999,0.100000,99,0,0.000000,15,3.000000,24.281436,22.464719,99,99,0,0,0,0,0
6,69999,95,60000,80,30000,2,9999,0.100000,99,0,36.671255,15,7.000000,25.296770,12.794463,99,99,0,1,0,0,0
6,69999,96,60000,43,50000,40,9999,0.100000,99,0,0.000000,15,0.000000,27.260476,0.092130,99,99,0,0,0,0,0
6,69999,97,60000,88,30000,40,9999,0.100000,99,0,0.000000,15,0.000000,22.960315,0.882322,99,99,0,0,0,0,0
6,69999,98,60000,58,0,40,9999,0.100000,99,0,0.000000,15,1.000000,23.910951,7.018270,99,99,0,0,0,0,0
6,69999,99,60000,22,0,40,9999,0.100000,99,0,0.000000,15,2.000000,24.782792,2.326553,99,99,0,0,0,0,0
7,79999,0,70000,5,40000,40,9999,0.100000,99,0,0.000000,15,0.000000,27.431410,0.894934,99,99,0,0,0,0,0
7,79999,1,70000,4,0,40,9999,0.100000,99,0,0.000000,15,0.000000,25.364986,0.436038,99,99,0,0,0,0,0
7,79999,2,70000,4,0,0,9999,0.100000,99,0,0.504786,15,0.000000,23.966034,0.673004,99,99,0,0,0,0,1
7,79999,3,70000,46,0,0,9999,0.100000,99,0,0.770454,15,0.000000,17.786265,0.337484,99,99,0,0,0,1,0
7,79999,4,70000,91,60000,40,9999,0.100000,99,0,0.000000,15,0.000000,32.399205,0.714290,99,99,0,0,0,0,0
7,79999,5,70000,43,50000,0,9999,0.100000,99,0,5.071329,15,1.000000,21.675607,2.210592,99,99,0,1,0,0,0
7,79999,6,70000,40,0,0,9999,0.100000,99,0,0.006130,15,0.000000,19.513959,0.236404,99,99,0,0,1,0,0
7,79999,7,70000,80,30000,0,9999,0.100000,99,0,1.335220,15,1.000000,27.036302,1.076974,99,99,0,0,0,1,0
7,79999,8,70000,46,0,0,9999,0.100000,99,0,9.166725,15,1.000000,19.668757,4.164550,99,99,0,0,1,0,0
7,79999,9,70000,78,0,0,9999,0.100000,99,0,0.208802,15,0.000000,21.006314,0.331741,99,99,0,0,0,1,0
7,79999,10,70000,88,30000,40,9999,0.100000,99,0,0.000000,15,1.000000,30.749466,1.327620,99,99,0,0,0,0,0
7,79999,11,70000,40,0,40,9999,0.100000,99,0,0.000000,15,2.000000,24.161780,20.711399,99,99,0,0,0,0,0
7,79999,12,70000,3,0,40,9999,0.100000,99,0,0.000000,15,0.000000,29.866020,0.097052,99,99,0,0,0,0,0
7,79999,13,70000,5,40000,40,9999,0.100000,99,0,0.000000,15,0.000000,23.402803,0.451149,99,99,0,0,0,0,0
7,79999,14,70000,88,30000,40,9999,0.100000,99,0,0.000000,15,0.000000,29.951997,7.341421,99,99,0,0,0,0,0
7,79999,15,70000,64,0,40,9999,0.100000,99,0,0.000000,15,0.000000,32.296904,1.574614,99,99,0,0,0,0,0
7,79999,16,70000,46,0,40,9999,0.100000,99,0,0.000000,15,2.000000,23.644161,19.543546,99,99,0,0,0,0,0
7,79999,17,70000,46,0,40,9999,0.100000,99,0,0.000000,15,0.000000,31.377657,0.978533,99,99,0,0,0,0,0
7,79999,18,70000,43,50000,0,9999,0.100000,99,0,1.736774,15,1.000000,30.533041,1.223417,99,99,0,0,0,0,1
7,79999,19,70000,64,0,42,9999,0.100000,99,0,0.156610,15,7.000000,30.539411,15.444579,99,99,0,0,0,0,0
7,79999,20,70000,78,0,40,9999,0.100000,99,0,0.000000,15,2.000000,29.742180,16.447935,99,99,0,0,0,0,0
7,79999,21,70000,91,60000,0,9999,0.100000,99,0,0.259111,15,0.000000,29.920442,1.321465,99,99,0,0,1,0,0
7,79999,22,70000,58,0,0,9999,0.100000,99,0,0.345076,15,0.000000,33.527903,0.340052,99,99,0,0,0,0,1
7,79999,23,70000,69,0,40,9999,0.100000,99,0,0.000000,15,0.000000,27.289333,1.444565,99,99,0,0,0,0,0
7,79999,24,70000,46,0,1,9999,0.100000,99,0,1.870560,15,3.000000,23.458002,7.457051,99,99,0,0,0,1,0
7,79999,25,70000,69,0,40,9999,0.100000,99,0,0.000000,15,0.000000,21.258088,0.948672,99,99,0,0,0,0,0
7,79999,26,70000,22,0,0,9999,0.100000,99,0,0.659865,15,0.000000,22.689916,0.260574,99,99,0,0,1,0,0
7,79999,27,70000,22,0,40,9999,0.100000,99,0,0.000000,15,0.000000,15.305819,0.802478,99,99,0,0,0,0,0
7,79999,28,70000,64,0,40,9999,0.100000,99,0,0.000000,15,1.000000,18.990914,19.460403,99,99,0,0,0,0,0
7,79999,29,70000,58,0,0,9999,0.100000,99,0,0.550334,15,0.000000,30.632113,0.214123,99,99,0,0,0,1,0
7,79999,30,70000,58,0,40,9999,0.100000,99,0,0.000000,15,0.000000,30.367240,11.205885,99,99,0,0,0,0,0
7,79999,31,70000,5,40000,40,9999,0.100000,99,0,0.000000,15,0.000000,23.434418,0.381391,99,99,0,0,0,0,0
7,79999,32,70000,43,50000,40,9999,0.100000,99,0,0.000000,15,0.000000,23.035984,0.382298,99,99,0,0,0,0,0
7,79999,33,70000,78,0,40,9999,0.100000,99,0,0.000000,15,1.000000,30.397489,1.277234,99,99,0,0,0,0,0
7,79999,34,70000,58,0,0,9999,0.100000,99,0,2.884701,15,0.000000,21.098073,0.932250,99,99,0,0,0,0,1
7,79999,35,70000,88,30000,42,9999,0.100000,99,0,0.000000,15,6.000000,19.148783,7.500746,99,99,0,0,0,0,0
7,79999,36,70000,58,0,0,9999,0.100000,99,0,0.616552,15,0.000000,26.371785,0.175259,99,99,0,0,0,0,1
7,79999,37,70000,64,0,0,9999,0.100000,99,0,0.022054,15,0.000000,19.302894,0.141930,99,99,0,0,0,1,0
7,79999,38,70000,80,30000,0,9999,0.100000,99,0,1.503210,15,0.000000,19.374280,0.518761,99,99,0,0,1,0,0
7,79999,39,70000,5,40000,40,9999,0.100000,99,0,0.000000,15,0.000000,23.693098,0.508576,99,99,0,0,0,0,0
7,79999,40,70000,88,30000,40,9999,0.100000,99,0,0.000000,15,0.000000,28.375475,0.092047,99,99,0,0,0,0,0
7,79999,41,70000,46,0,40,9999,0.100000,99,0,0.000000,15,0.000000,29.921797,2.695991,99,99,0,0,0,0,0
7,79999,42,70000,4,0,40,9999,0.100000,99,0,0.000000,15,0.000000,19.543540,0.109635,99,99,0,0,0,0,0
7,79999,43,70000,3,0,40,9999,0.100000,99,0,0.000000,15,0.000000,29.519389,0.716396,99,99,0,0,0,0,0
7,79999,44,70000,78,0,0,9999,0.100000,99,0,0.874869,15,0.000000,32.217987,0.475919,99,99,0,1,0,0,0
7,79999,45,70000,78,0,0,9999,0.100000,99,0,0.114497,15,0.000000,29.060620,0.098782,99,99,0,0,0,0,1
7,79999,46,70000,69,0,40,9999,0.100000,99,0,0.000000,15,0.000000,12.181706,0.779389,99,99,0,0,0,0,0
7,79999,47,70000,64,0,40,9999,0.100000,99,0,0.000000,15,0.000000,24.379019,0.652573,99,99,0,0,0,0,0
7,79999,48,70000,58,0,40,9999,0.100000,99,0,0.000000,15,1.000000,30.672777,1.319572,99,99,0,0,0,0,0
7,79999,49,70000,43,50000,41,9999,0.100000,99,0,0.000000,15,3.000000,23.359702,10.252152,99,99,0,0,0,0,0
7,79999,50,70000,58,0,40,9999,0.100000,99,0,0.000000,15,0.000000,28.965467,0.470179,99,99,0,0,0,0,0
7,79999,51,70000,4,0,40,9999,0.100000,99,0,0.000000,15,0.000000,17.653757,0.571160,99,99,0,0,0,0,0
7,79999,52,70000,78,0,40,9999,0.100000,99,0,0.000000,15,0.000000,30.124079,0.618228,99,99,0,0,0,0,0
7,79999,53,70000,4,0,0,9999,0.100000,99,0,0.133753,15,0.000000,26.516606,0.123758,99,99,0,0,0,1,0
7,79999,54,70000,4,0,40,9999,0.100000,99,0,0.000000,15,1.000000,30.818014,1.382573,99,99,0,0,0,0,0
7,79999,55,70000,43,50000,40,9999,0.100000,99,0,0.000000,15,1.000000,27.200017,1.062466,99,99,0,0,0,0,0
7,79999,56,70000,64,0,0,9999,0.100000,99,0,0.014650,15,0.000000,32.644939,1.488565,99,99,0,0,0,1,0
7,79999,57,70000,4,0,0,9999,0.100000,99,0,0.026904,15,0.000000,22.426718,0.808372,99,99,0,0,0,0,1
7,79999,58,70000,78,0,40,9999,0.100000,99,0,0.000000,15,0.000000,31.724858,0.141082,99,99,0,0,0,0,0
7,79999,59,70000,80,30000,40,9999,0.100000,99,0,0.000000,15,0.000000,23.480225,0.789698,99,99,0,0,0,0,0
7,79999,60,70000,91,60000,40,9999,0.100000,99,0,0.000000,15,0.000000,29.712238,0.310164,99,99,0,0,0,0,0
7,79999,61,70000,64,0,40,9999,0.100000,99,0,0.000000,15,1.000000,20.977856,10.975242,99,99,0,0,0,0,0
7,79999,62,70000,91,60000,40,9999,0.100000,99,0,0.000000,15,1.000000,28.445891,9.225555,99,99,0,0,0,0,0
7,79999,63,70000,3,0,40,9999,0.100000,99,0,0.000000,15,0.000000,19.185876,0.447003,99,99,0,0,0,0,0
7,79999,64,70000,88,30000,40,9999,0.100000,99,0,0.000000,15,0.000000,32.981935,0.385926,99,99,0,0,0,0,0
7,79999,65,70000,25,0,40,9999,0.100000,99,0,0.000000,15,1.000000,19.436387,4.003436,99,99,0,0,0,0,0
7,79999,66,70000,91,60000,0,9999,0.100000,99,0,0.134737,15,0.000000,18.449359,0.280112,99,99,0,1,0,0,0
7,79999,67,70000,78,0,0,9999,0.100000,99,0,0.378095,15,0.000000,27.377263,0.191970,99,99,0,0,0,1,0
7,79999,68,70000,5,40000,0,9999,0.100000,99,0,1.598774,15,0.000000,20.520951,0.488806,99,99,0,0,1,0,0
7,79999,69,70000,43,50000,40,9999,0.100000,99,0,0.000000,15,0.000000,20.875889,0.933856,99,99,0,0,0,0,0
7,79999,70,70000,3,0,0,9999,0.100000,99,0,0.025867,15,0.000000,19.516918,0.144794,99,99,0,0,1,0,0
7,79999,71,70000,22,0,40,9999,0.100000,99,0,0.000000,15,0.000000,20.663165,0.364873,99,99,0,0,0,0,0
7,79999,72,70000,5,40000,40,9999,0.100000,99,0,0.000000,15,0.000000,21.221547,1.043569,99,99,0,0,0,0,0
7,79999,73,70000,58,0,40,9999,0.100000,99,0,0.000000,15,1.000000,19.551793,3.964177,99,99,0,0,0,0,0
7,79999,74,70000,64,0,0,9999,0.100000,99,0,0.013772,15,0.000000,26.188336,0.205612,99,99,0,1,0,0,0
7,79999,75,70000,58,0,40,9999,0.135000,99,0,0.000000,15,0.000000,26.970390,2.020217,99,99,0,0,0,0,0
7,79999,76,70000,91,60000,40,9999,0.100000,99,0,0.000000,15,0.000000,19.066974,0.091399,99,99,0,0,0,0,0
7,79999,77,70000,43,50000,40,9999,0.100000,99,0,0.000000,15,0.000000,28.002728,0.194049,99,99,0,0,0,0,0
7,79999,78,70000,43,50000,40,9999,0.100000,99,0,0.000000,15,0.000000,26.649499,0.772594,99,99,0,0,0,0,0
7,79999,79,70000,78,0,40,9999,0.100000,99,0,0.000000,15,0.000000,15.363973,1.270058,99,99,0,0,0,0,0
7,79999,80,70000,88,30000,40,9999,0.100000,99,0,0.000000,15,0.000000,31.427501,0.146021,99,99,0,0,0,0,0
7,79999,81,70000,46,0,40,9999,0.100000,99,0,0.000000,15,2.000000,21.533756,2.525791,99,99,0,0,0,0,0
7,79999,82,70000,4,0,0,9999,0.100000,99,0,0.945974,15,0.000000,16.605208,0.884942,99,99,0,0,0,0,1
7,79999,83,70000,5,40000,40,9999,0.100000,99,0,0.000000,15,0.000000,28.058437,0.369813,99,99,0,0,0,0,0
7,79999,84,70000,3,0,40,9999,0.100000,99,0,0.000000,15,1.000000,26.583085,1.082852,99,99,0,0,0,0,0
7,79999,85,70000,91,60000,40,9999,0.100000,99,0,0.000000,15,0.000000,18.015777,2.209735,99,99,0,0,0,0,0
7,79999,86,70000,22,0,41,9999,0.100000,99,0,0.000000,15,3.000000,24.672458,12.162170,99,99,0,0,0,0,0
7,79999,87,70000,58,0,40,9999,0.100000,99,0,0.000000,15,1.000000,24.655190,8.354114,99,99,0,0,0,0,0
7,79999,88,70000,3,0,42,9999,0.100000,99,0,0.000000,15,7.000000,28.307853,37.595268,99,99,0,0,0,0,0
7,79999,89,70000,4,0,40,9999,0.100000,99,0,0.000000,15,0.000000,31.155924,9.588676,99,99,0,-1,0,0,0
7,79999,90,70000,22,0,40,9999,0.100000,99,0,0.000000,15,1.000000,30.694381,2.314964,99,99,0,0,0,0,0
7,79999,91,70000,91,60000,40,9999,0.100000,99,0,0.000000,15,0.000000,30.191114,23.660942,99,99,0,0,0,0,0
7,79999,92,70000,64,0,0,9999,0.100000,99,0,0.013708,15,0.000000,28.980725,0.279607,99,99,0,0,0,0,1
7,79999,93,70000,88,30000,40,9999,0.100000,99,0,0.000000,15,0.000000,19.562364,0.553366,99,99,0,0,0,0,0
7,79999,94,70000,22,0,41,9999,0.100000,99,0,0.000000,15,4.000000,24.825545,17.702798,99,99,0,0,0,0,0
7,79999,95,70000,58,0,40,9999,0.100000,99,0,0.000000,15,0.000000,31.442137,7.507660,99,99,0,0,0,0,0
7,79999,96,70000,46,0,40,9999,0.100000,99,0,0.000000,15,0.000000,27.234973,0.092321,99,99,0,0,0,0,0
7,79999,97,70000,22,0,40,9999,0.100000,99,0,0.000000,15,0.000000,23.327792,0.860558,99,99,0,0,0,0,0
7,79999,98,70000,25,0,40,9999,0.100000,99,0,0.000000,15,2.000000,25.331713,6.987049,99,99,0,0,0,0,0
7,79999,99,70000,22,0,40,9999,0.100000,99,0,0.000000,15,0.000000,24.195758,0.823703,99,99,0,0,0,0,0
8,89999,0,80000,78,0,40,9999,0.100000,99,0,0.000000,15,1.000000,27.827554,3.040575,99,99,0,0,0,0,0
8,89999,1,80000,4,0,40,9999,0.100000,99,0,0.000000,15,0.000000,25.243946,0.419118,99,99,0,0,0,0,0
8,89999,2,80000,40,0,0,9999,0.100000,99,0,0.291314,15,0.000000,23.992761,0.723494,99,99,0,0,0,0,1
8,89999,3,80000,58,0,0,9999,0.100000,99,0,0.753809,15,0.000000,17.903932,0.216683,99,99,0,0,0,1,0
8,89999,4,80000,88,30000,40,9999,0.100000,99,0,0.000000,15,3.000000,32.687300,4.666052,99,99,0,0,0,0,0
8,89999,5,80000,69,0,1,9999,0.100000,99,0,17.454773,15,3.000000,21.279215,7.420143,99,99,0,1,0,0,0
8,89999,6,80000,64,0,0,9999,0.100000,99,0,0.014740,15,0.000000,19.535571,0.156651,99,99,0,0,1,0,0
8,89999,7,80000,80,30000,40,9999,0.100000,99,0,0.000000,15,0.000000,27.832753,21.392788,99,99,0,0,0,0,0
8,89999,8,80000,88,30000,40,9999,0.100000,99,0,0.000000,15,1.000000,18.023554,2.445619,99,99,0,0,0,0,0
8,89999,9,80000,58,0,0,9999,0.100000,99,0,3.019162,15,0.000000,20.909062,0.958934,99,99,0,0,0,1,0
8,89999,10,80000,95,60000,40,9999,0.100000,99,0,0.000000,15,0.000000,31.941341,0.569544,99,99,0,0,0,0,0
8,89999,11,80000,51,60000,40,9999,0.100000,99,0,0.000000,15,1.000000,22.272221,8.716499,99,99,0,0,0,0,0
8,89999,12,80000,64,0,40,9999,0.100000,99,0,0.000000,15,0.000000,29.865987,0.100218,99,99,0,0,0,0,0
8,89999,13,80000,69,0,40,9999,0.100000,99,0,0.000000,15,0.000000,23.775271,0.452738,99,99,0,0,0,0,0
8,89999,14,80000,64,0,40,9999,0.100000,99,0,0.000000,15,3.000000,29.559267,22.201567,99,99,0,0,0,0,0
8,89999,15,80000,80,30000,41,9999,0.100000,99,0,0.000000,15,4.000000,32.856067,5.049941,99,99,0,0,0,0,0
8,89999,16,80000,43,50000,0,9999,0.100000,99,0,0.100673,15,2.000000,22.414245,3.844167,99,99,0,0,0,0,1
8,89999,17,80000,25,0,40,9999,0.100000,99,0,0.000000,15,0.000000,31.662278,0.932382,99,99,0,0,0,0,0
8,89999,18,80000,95,60000,40,9999,0.100000,99,0,0.000000,15,0.000000,31.597739,0.455466,99,99,0,0,0,0,0
8,89999,19,80000,95,60000,0,9999,0.100000,99,0,0.054966,15,0.000000,30.455834,0.181401,99,99,0,1,0,0,0
8,89999,20,80000,43,50000,41,9999,0.100000,99,0,0.000000,15,4.000000,30.418993,25.489116,99,99,0,0,0,0,0
8,89999,21,80000,4,0,0,9999,0.100000,99,0,0.462671,15,0.000000,29.963699,1.329349,99,99,0,0,1,0,0
8,89999,22,80000,51,60000,0,9999,0.100000,99,0,0.054386,15,0.000000,33.637073,0.379892,99,99,0,0,0,0,1
8,89999,23,80000,46,0,40,9999,0.100000,99,0,0.000000,15,1.000000,27.672388,3.332790,99,99,0,0,0,0,0
8,89999,24,80000,88,30000,0,9999,0.100000,99,0,1.846372,15,0.000000,23.829786,0.731871,99,99,0,0,0,1,0
8,89999,25,80000,5,40000,40,9999,0.100000,99,0,0.000000,15,0.000000,20.553223,0.900353,99,99,0,0,0,0,0
8,89999,26,80000,40,0,0,9999,0.100000,99,0,0.517631,15,0.000000,22.596296,0.783171,99,99,0,0,1,0,0
8,89999,27,80000,95,60000,0,9999,0.100000,99,0,0.051721,15,0.000000,15.412310,1.784092,99,99,0,0,0,1,0
8,89999,28,80000,51,60000,40,9999,0.100000,99,0,0.000000,15,0.000000,18.803847,5.597722,99,99,0,0,0,0,0
8,89999,29,80000,80,30000,0,9999,0.100000,99,0,0.030845,15,0.000000,30.743078,0.369970,99,99,0,0,0,1,0
8,89999,30,80000,5,40000,40,9999,0.100000,99,0,0.000000,15,3.000000,30.437689,8.455928,99,99,0,0,0,0,0
8,89999,31,80000,58,0,40,9999,0.100000,99,0,0.000000,15,0.000000,23.806367,0.378606,99,99,0,0,0,0,0
8,89999,32,80000,64,0,40,9999,0.100000,99,0,0.000000,15,0.000000,22.840571,0.548666,99,99,0,0,0,0,0
8,89999,33,80000,4,0,40,9999,0.100000,99,0,0.000000,15,1.000000,31.477447,2.838789,99,99,0,0,0,0,0
8,89999,34,80000,51,60000,0,9999,0.100000,99,0,0.332285,15,0.000000,20.643234,0.378667,99,99,0,0,0,0,1
8,89999,35,80000,88,30000,40,9999,0.100000,99,0,0.000000,15,0.000000,15.427470,0.226455,99,99,0,0,0,0,0
8,89999,36,80000,69,0,0,9999,0.100000,99,0,0.556732,15,0.000000,26.299232,0.174761,99,99,0,0,0,0,1
8,89999,37,80000,80,30000,0,9999,0.100000,99,0,0.021152,15,0.000000,19.304151,0.138603,99,99,0,0,0,1,0
8,89999,38,80000,5,40000,0,9999,0.100000,99,0,2.709535,15,0.000000,19.477315,1.126681,99,99,0,0,1,0,0
8,89999,39,80000,25,0,40,9999,0.100000,99,0,0.000000,15,0.000000,23.715898,0.612361,99,99,0,0,0,0,0
8,89999,40,80000,40,0,0,9999,0.100000,99,0,0.153314,15,0.000000,28.392470,0.119450,99,99,0,0,0,0,1
8,89999,41,80000,5,40000,40,9999,0.100000,99,0,0.000000,15,0.000000,30.231008,1.317607,99,99,0,0,0,0,0
8,89999,42,80000,51,60000,40,9999,0.100000,99,0,0.000000,15,0.000000,19.539684,0.107208,99,99,0,0,0,0,0
8,89999,43,80000,80,30000,40,9999,0.100000,99,0,0.000000,15,0.000000,29.563243,0.748445,99,99,0,0,0,0,0
8,89999,44,80000,64,0,0,9999,0.100000,99,0,0.184603,15,0.000000,32.063972,0.160644,99,99,0,1,0,0,0
8,89999,45,80000,46,0,40,9999,0.100000,99,0,0.000000,15,0.000000,29.083114,0.125567,99,99,0,0,0,0,0
8,89999,46,80000,46,0,40,9999,0.100000,99,0,0.000000,15,0.000000,12.305285,0.377317,99,99,0,0,0,0,0
8,89999,47,80000,64,0,40,9999,0.100000,99,0,0.000000,15,0.000000,24.412615,0.944524,99,99,0,0,0,0,0
8,89999,48,80000,78,0,40,9999,0.100000,99,0,0.000000,15,0.000000,31.852286,0.484555,99,99,0,0,0,0,0
8,89999,49,80000,95,60000,40,9999,0.100000,99,0,0.000000,15,1.000000,21.146656,3.711124,99,99,0,0,0,0,0
8,89999,50,80000,69,0,40,9999,0.100000,99,0,0.000000,15,0.000000,29.144471,0.614511,99,99,0,0,0,0,0
8,89999,51,80000,43,50000,40,9999,0.100000,99,0,0.000000,15,0.000000,17.723019,0.525405,99,99,0,0,0,0,0
8,89999,52,80000,5,40000,40,9999,0.100000,99,0,0.000000,15,0.000000,30.248026,0.638455,99,99,0,0,0,0,0
8,89999,53,80000,69,0,0,9999,0.100000,99,0,0.123774,15,0.000000,26.496811,0.191814,99,99,0,0,0,1,0
8,89999,54,80000,64,0,40,9999,0.100000,99,0,0.000000,15,0.000000,32.022195,0.548990,99,99,0,0,0,0,0
8,89999,55,80000,58,0,40,9999,0.100000,99,0,0.000000,15,2.000000,27.986570,3.669731,99,99,0,0,0,0,0
8,89999,56,80000,5,40000,0,9999,0.100000,99,0,0.032710,15,0.000000,32.969417,0.137328,99,99,0,0,0,1,0
8,89999,57,80000,4,0,40,9999,0.100000,99,0,0.000000,15,0.000000,22.431697,0.186698,99,99,0,0,0,0,0
8,89999,58,80000,40,0,40,9999,0.100000,99,0,0.000000,15,0.000000,31.724756,0.138859,99,99,0,0,0,0,0
8,89999,59,80000,43,50000,40,9999,0.100000,99,0,0.000000,15,0.000000,23.504069,0.741758,99,99,0,0,0,0,0
8,89999,60,80000,25,0,40,9999,0.100000,99,0,0.000000,15,0.000000,29.755789,0.327853,99,99,0,0,0,0,0
8,89999,61,80000,43,50000,40,9999,0.100000,99,0,0.000000,15,1.000000,21.726683,5.664766,99,99,0,0,0,0,0
8,89999,62,80000,46,0,40,9999,0.100000,99,0,0.000000,15,1.000000,29.343951,13.543331,99,99,0,0,0,0,0
8,89999,63,80000,25,0,40,9999,0.100000,99,0,0.000000,15,0.000000,19.292656,0.839148,99,99,0,0,0,0,0
8,89999,64,80000,40,0,40,9999,0.100000,99,0,0.000000,15,0.000000,33.103798,0.401278,99,99,0,0,0,0,0
8,89999,65,80000,43,50000,0,9999,0.100000,99,0,1.019518,15,1.000000,17.834302,2.952330,99,99,0,0,1,0,0
8,89999,66,80000,80,30000,0,9999,0.100000,99,0,0.213961,15,0.000000,18.299761,0.255204,99,99,0,1,0,0,0
8,89999,67,80000,69,0,0,9999,0.100000,99,0,0.001017,15,0.000000,27.451128,0.215432,99,99,0,0,0,1,0
8,89999,68,80000,51,60000,0,9999,0.100000,99,0,2.853993,15,0.000000,20.646932,0.952795,99,99,0,0,1,0,0
8,89999,69,80000,46,0,40,9999,0.100000,99,0,0.000000,15,0.000000,20.412087,0.507239,99,99,0,0,0,0,0
8,89999,70,80000,64,0,0,9999,0.065000,99,0,0.024760,15,0.000000,19.511973,0.145406,99,99,0,0,1,0,0
8,89999,71,80000,78,0,40,9999,0.100000,99,0,0.000000,15,0.000000,20.577643,1.944832,99,99,0,0,0,0,0
8,89999,72,80000,43,50000,40,9999,0.100000,99,0,0.000000,15,0.000000,20.799438,0.387203,99,99,0,0,0,0,0
8,89999,73,80000,22,0,40,9999,0.100000,99,0,0.000000,15,1.000000,17.927137,5.402308,99,99,0,0,0,0,0
8,89999,74,80000,43,50000,0,9999,0.100000,99,0,0.140013,15,0.000000,26.182702,0.273362,99,99,0,1,0,0,0
8,89999,75,80000,80,30000,40,9999,0.100000,99,0,0.000000,15,0.000000,26.946008,0.626904,99,99,0,0,0,0,0
8,89999,76,80000,5,40000,40,9999,0.100000,99,0,0.000000,15,0.000000,19.063276,0.090994,99,99,0,0,0,0,0
8,89999,77,80000,25,0,40,9999,0.100000,99,0,0.000000,15,0.000000,28.074142,0.475555,99,99,0,0,0,0,0
8,89999,78,80000,64,0,40,9999,0.100000,99,0,0.000000,15,0.000000,26.718773,0.789336,99,99,0,0,0,0,0
8,89999,79,80000,25,0,40,9999,0.100000,99,0,0.000000,15,0.000000,15.489481,1.239500,99,99,0,0,0,0,0
8,89999,80,80000,25,0,40,9999,0.100000,99,0,0.000000,15,0.000000,31.427167,0.141870,99,99,0,0,0,0,0
8,89999,81,80000,51,60000,41,9999,0.100000,99,0,0.000000,15,3.000000,20.755358,8.030861,99,99,0,0,0,0,0
8,89999,82,80000,46,0,0,9999,0.100000,99,0,0.866707,15,0.000000,16.659079,0.729849,99,99,0,0,0,0,1
8,89999,83,80000,25,0,40,9999,0.100000,99,0,0.000000,15,0.000000,28.073350,0.372681,99,99,0,0,0,0,0
8,89999,84,80000,58,0,40,9999,0.100000,99,0,0.000000,15,0.000000,27.395196,0.946635,99,99,0,0,0,0,0
8,89999,85,80000,22,0,40,9999,0.100000,99,0,0.000000,15,0.000000,18.594063,0.290025,99,99,0,0,0,0,0
8,89999,86,80000,69,0,40,9999,0.100000,99,0,0.000000,15,0.000000,20.936138,0.701652,99,99,0,0,0,0,0
8,89999,87,80000,5,40000,40,9999,0.100000,99,0,0.000000,15,2.000000,23.469586,10.941739,99,99,0,0,0,0,0
8,89999,88,80000,64,0,40,9999,0.100000,99,0,0.000000,15,0.000000,28.406225,6.752858,99,99,0,0,0,0,0
8,89999,89,80000,51,60000,40,9999,0.100000,99,0,0.000000,15,0.000000,31.022435,8.978751,99,99,0,0,0,0,0
8,89999,90,80000,69,0,40,9999,0.100000,99,0,0.000000,15,0.000000,31.994859,0.827975,99,99,0,0,0,0,0
8,89999,91,80000,5,40000,40,9999,0.100000,99,0,0.000000,15,1.000000,30.343181,16.511776,99,99,0,0,0,0,0
8,89999,92,80000,78,0,0,9999,0.100000,99,0,0.012212,15,0.000000,29.159601,0.334899,99,99,0,0,0,0,1
8,89999,93,80000,78,0,40,9999,0.100000,99,0,0.000000,15,0.000000,19.658792,1.064060,99,99,0,0,0,0,0
8,89999,94,80000,69,0,40,9999,0.100000,99,0,0.000000,15,1.000000,21.105631,1.619290,99,99,0,0,0,0,0
8,89999,95,80000,88,30000,40,9999,0.100000,99,0,0.000000,15,0.000000,31.309399,6.837660,99,99,0,0,0,0,0
8,89999,96,80000,4,0,40,9999,0.100000,99,0,0.000000,15,0.000000,27.208094,0.205658,99,99,0,0,0,0,0
8,89999,97,80000,64,0,40,9999,0.100000,99,0,0.000000,15,0.000000,23.699018,0.842599,99,99,0,0,0,0,0
8,89999,98,80000,4,0,40,9999,0.100000,99,0,0.000000,15,0.000000,25.863551,8.742467,99,99,0,0,0,0,0
8,89999,99,80000,22,0,40,9999,0.100000,99,0,0.000000,15,0.000000,24.223038,0.818984,99,99,0,0,0,0,0
9,99999,0,90000,46,0,40,9999,0.100000,99,0,0.000000,15,0.000000,29.278682,1.668365,99,99,0,0,0,0,0
9,99999,1,90000,69,0,40,9999,0.100000,99,0,0.000000,15,0.000000,25.139373,0.440075,99,99,0,0,0,0,0
9,99999,2,90000,95,60000,0,9999,0.100000,99,0,2.182164,15,0.000000,24.082353,0.696698,99,99,0,0,0,0,1
9,99999,3,90000,22,0,0,9999,0.100000,99,0,0.074284,15,0.000000,18.004002,0.169547,99,99,0,0,0,1,0
9,99999,4,90000,4,0,41,9999,0.100000,99,0,0.000000,15,5.000000,30.122427,16.339717,99,99,0,0,0,0,0
9,99999,5,90000,78,0,0,9999,0.100000,99,0,0.790105,15,1.000000,23.960296,2.195648,99,99,0,0,0,0,1
9,99999,6,90000,46,0,0,9999,0.100000,99,0,0.002176,15,0.000000,19.543368,0.276767,99,99,0,0,1,0,0
9,99999,7,90000,4,0,40,9999,0.100000,99,0,0.000000,15,0.000000,28.229776,21.503892,99,99,0,0,0,0,0
9,99999,8,90000,25,0,40,9999,0.100000,99,0,0.000000,15,0.000000,18.909716,0.690034,99,99,0,0,0,0,0
9,99999,9,90000,46,0,0,9999,0.100000,99,0,0.178491,15,0.000000,21.193425,0.518499,99,99,0,0,0,1,0
9,99999,10,90000,22,0,40,9999,0.100000,99,0,0.000000,15,0.000000,31.994013,3.498151,99,99,0,0,0,0,0
9,99999,11,90000,78,0,40,9999,0.100000,99,0,0.000000,15,1.000000,23.392251,3.007294,99,99,0,0,0,0,0
9,99999,12,90000,88,70000,40,9999,0.100000,99,0,0.000000,15,0.000000,29.865939,0.102365,99,99,0,0,0,0,0
9,99999,13,90000,4,0,40,9999,0.100000,99,0,0.000000,15,1.000000,24.142685,3.115081,99,99,0,0,0,0,0
9,99999,14,90000,40,0,40,9999,0.100000,99,0,0.000000,15,1.000000,28.377081,10.410336,99,99,0,0,0,0,0
9,99999,15,90000,51,60000,41,9999,0.100000,99,0,0.000000,15,5.000000,30.235732,16.340193,99,99,0,0,0,0,0
9,99999,16,90000,43,50000,40,9999,0.100000,99,0,0.000000,15,0.000000,22.815901,0.466917,99,99,0,0,0,0,0
9,99999,17,90000,40,0,40,9999,0.100000,99,0,0.000000,15,0.000000,31.953507,0.872934,99,99,0,0,0,0,0
9,99999,18,90000,4,0,40,9999,0.100000,99,0,0.000000,15,0.000000,31.644650,0.431301,99,99,0,0,0,0,0
9,99999,19,90000,51,60000,40,9999,0.100000,99,0,0.000000,15,0.000000,30.437072,8.052457,99,99,0,0,0,0,0
9,99999,20,90000,64,0,40,9999,0.100000,99,0,0.000000,15,1.000000,30.340967,14.097326,99,99,0,0,0,0,0
9,99999,21,90000,25,0,1,9999,0.100000,99,0,36.144337,15,6.000000,30.033146,9.098261,99,99,0,0,1,0,0
9,99999,22,90000,58,0,0,9999,0.100000,99,0,0.001423,15,0.000000,33.435026,0.064919,99,99,0,0,0,0,1
9,99999,23,90000,25,0,2,9999,0.100000,99,0,1.286316,15,7.000000,29.134747,16.132760,99,99,0,0,1,0,0
9,99999,24,90000,43,50000,41,9999,0.100000,99,0,0.000000,15,5.000000,24.201249,14.366260,99,99,0,0,0,0,0
9,99999,25,90000,5,40000,0,9999,0.100000,99,0,0.005732,15,0.000000,19.893916,2.051846,99,99,0,0,1,0,0
9,99999,26,90000,5,40000,41,9999,0.100000,99,0,0.000000,15,3.000000,22.362876,3.591851,99,99,0,0,0,0,0
9,99999,27,90000,88,70000,0,9999,0.100000,99,0,0.067373,15,0.000000,15.534600,0.125301,99,99,0,0,0,1,0
9,99999,28,90000,95,60000,0,9999,0.100000,99,0,0.474962,15,1.000000,18.669172,4.828812,99,99,0,1,0,0,0
9,99999,29,90000,69,0,0,9999,0.100000,99,0,0.055550,15,0.000000,30.922441,0.428821,99,99,0,0,0,1,0
9,99999,30,90000,46,0,40,9999,0.100000,99,0,0.000000,15,0.000000,29.575718,1.464892,99,99,0,0,0,0,0
9,99999,31,90000,69,0,0,9999,0.100000,99,0,2.148995,15,1.000000,24.175037,4.942635,99,99,0,0,0,1,0
9,99999,32,90000,78,0,0,9999,0.100000,99,0,4.176543,15,2.000000,22.595461,3.060204,99,99,0,0,1,0,0
9,99999,33,90000,43,50000,40,9999,0.100000,99,0,0.000000,15,0.000000,31.523249,0.919754,99,99,0,0,0,0,0
9,99999,34,90000,88,70000,0,9999,0.100000,99,0,0.145333,15,0.000000,20.748674,0.304045,99,99,0,0,0,0,1
9,99999,35,90000,88,30000,40,9999,0.100000,99,0,0.000000,15,0.000000,15.426983,0.237647,99,99,0,0,0,0,0
9,99999,36,90000,58,0,0,9999,0.100000,99,0,0.497223,15,0.000000,26.218547,0.171726,99,99,0,0,0,0,1
9,99999,37,90000,25,0,0,9999,0.100000,99,0,0.022729,15,0.000000,19.300449,0.139983,99,99,0,0,0,1,0
9,99999,38,90000,40,0,0,9999,0.100000,99,0,0.026200,15,0.000000,19.192278,0.548836,99,99,0,0,1,0,0
9,99999,39,90000,46,0,40,9999,0.100000,99,0,0.000000,15,0.000000,23.801511,0.658522,99,99,0,0,0,0,0
9,99999,40,90000,25,0,0,9999,0.100000,99,0,0.396143,15,0.000000,28.410682,0.175765,99,99,0,0,0,0,1
9,99999,41,90000,43,50000,40,9999,0.100000,99,0,0.000000,15,0.000000,30.440811,1.422504,99,99,0,0,0,0,0
9,99999,42,90000,51,60000,40,9999,0.100000,99,0,0.000000,15,0.000000,19.535690,0.106234,99,99,0,0,0,0,0
9,99999,43,90000,51,60000,41,9999,0.100000,99,0,0.000000,15,6.000000,29.631373,8.855131,99,99,0,0,0,0,0
9,99999,44,90000,43,50000,41,9999,0.100000,99,0,0.000000,15,5.000000,32.086700,12.854971,99,99,0,0,0,0,0
9,99999,45,90000,88,70000,40,9999,0.100000,99,0,0.000000,15,1.000000,29.108732,3.309130,99,99,0,0,0,0,0
9,99999,46,90000,5,40000,40,9999,0.100000,99,0,0.000000,15,0.000000,12.522084,0.319927,99,99,0,0,0,0,0
9,99999,47,90000,4,0,40,9999,0.100000,99,0,0.000000,15,0.000000,24.506992,0.951008,99,99,0,0,0,0,0
9,99999,48,90000,25,0,40,9999,0.100000,99,0,0.000000,15,0.000000,31.891261,0.733725,99,99,0,0,0,0,0
9,99999,49,90000,88,30000,41,9999,0.100000,99,0,0.000000,15,3.000000,22.464106,10.285662,99,99,0,0,0,0,0
9,99999,50,90000,69,0,40,9999,0.100000,99,0,0.000000,15,0.000000,29.252657,0.987382,99,99,0,0,0,0,0
9,99999,51,90000,46,0,40,9999,0.100000,99,0,0.000000,15,0.000000,17.768076,0.435941,99,99,0,0,0,0,0
9,99999,52,90000,43,50000,40,9999,0.100000,99,0,0.000000,15,0.000000,30.441981,0.238445,99,99,0,0,0,0,0
9,99999,53,90000,88,70000,0,9999,0.100000,99,0,1.866622,15,0.000000,26.408928,0.585112,99,99,0,0,0,1,0
9,99999,54,90000,4,0,40,9999,0.100000,99,0,0.000000,15,0.000000,32.100077,1.003662,99,99,0,0,0,0,0
9,99999,55,90000,46,0,40,9999,0.100000,99,0,0.000000,15,0.000000,26.743262,1.096398,99,99,0,0,0,0,0
9,99999,56,90000,51,60000,0,9999,0.100000,99,0,0.000571,15,0.000000,32.976644,0.089756,99,99,0,0,0,1,0
9,99999,57,90000,4,0,40,9999,0.100000,99,0,0.000000,15,0.000000,22.418042,0.342008,99,99,0,0,0,0,0
9,99999,58,90000,51,60000,40,9999,0.100000,99,0,0.000000,15,0.000000,31.723912,0.146100,99,99,0,0,0,0,0
9,99999,59,90000,88,70000,40,9999,0.100000,99,0,0.000000,15,1.000000,23.587245,13.668190,99,99,0,0,0,0,0
9,99999,60,90000,22,0,41,9999,0.100000,99,0,0.000000,15,6.000000,29.823716,18.239003,99,99,0,0,0,0,0
9,99999,61,90000,58,0,40,9999,0.100000,99,0,0.000000,15,0.000000,20.276646,3.535966,99,99,0,0,0,0,0
9,99999,62,90000,95,60000,40,9999,0.100000,99,0,0.000000,15,2.000000,27.816577,17.950048,99,99,0,0,0,0,0
9,99999,63,90000,25,0,40,9999,0.100000,99,0,0.000000,15,0.000000,18.977711,0.234060,99,99,0,0,0,0,0
9,99999,64,90000,4,0,40,9999,0.100000,99,0,0.000000,15,0.000000,32.904239,0.118359,99,99,0,0,0,0,0
9,99999,65,90000,78,0,0,9999,0.100000,99,0,0.787215,15,0.000000,18.544782,0.571620,99,99,0,0,1,0,0
9,99999,66,90000,5,80000,40,9999,0.100000,99,0,0.000000,15,1.000000,18.199239,3.477577,99,99,0,0,0,0,0
9,99999,67,90000,46,0,0,9999,0.100000,99,0,0.335857,15,0.000000,27.384929,0.355222,99,99,0,0,0,1,0
9,99999,68,90000,51,60000,0,9999,0.100000,99,0,0.430504,15,0.000000,20.121834,0.448798,99,99,0,0,1,0,0
9,99999,69,90000,43,50000,40,9999,0.100000,99,0,0.000000,15,0.000000,20.580340,0.486284,99,99,0,0,0,0,0
9,99999,70,90000,5,80000,40,9999,0.100000,99,0,0.000000,15,0.000000,19.507183,0.320658,99,99,0,0,0,0,0
9,99999,71,90000,58,0,40,9999,0.100000,99,0,0.000000,15,0.000000,20.997675,0.373816,99,99,0,0,0,0,0
9,99999,72,90000,95,60000,40,9999,0.100000,99,0,0.000000,15,0.000000,20.858246,0.286074,99,99,0,0,0,0,0
9,99999,73,90000,88,70000,40,9999,0.100000,99,0,0.000000,15,0.000000,18.707550,0.691979,99,99,0,0,0,0,0
9,99999,74,90000,40,0,41,9999,0.100000,99,0,0.000000,15,5.000000,26.193370,22.374866,99,99,0,0,0,0,0
9,99999,75,90000,58,0,40,9999,0.100000,99,0,0.000000,15,0.000000,26.834150,1.122567,99,99,0,0,0,0,0
9,99999,76,90000,95,60000,40,9999,0.100000,99,0,0.000000,15,0.000000,19.059523,0.090100,99,99,0,0,0,0,0
9,99999,77,90000,95,60000,40,9999,0.100000,99,0,0.000000,15,0.000000,28.038299,0.683925,99,99,0,0,0,0,0
9,99999,78,90000,58,0,40,9999,0.100000,99,0,0.000000,15,0.000000,26.717858,1.268363,99,99,0,0,0,0,0
9,99999,79,90000,88,70000,40,9999,0.100000,99,0,0.000000,15,0.000000,15.667001,18.616386,99,99,0,0,0,0,0
9,99999,80,90000,22,0,40,9999,0.100000,99,0,0.000000,15,0.000000,31.426829,0.136396,99,99,0,0,0,0,0
9,99999,81,90000,46,0,40,9999,0.100000,99,0,0.000000,15,1.000000,23.825496,19.518125,99,99,0,0,0,0,0
9,99999,82,90000,40,0,0,9999,0.100000,99,0,0.075216,15,0.000000,16.698502,0.083557,99,99,0,0,0,0,1
9,99999,83,90000,4,0,40,9999,0.100000,99,0,0.000000,15,0.000000,28.089065,0.393035,99,99,0,0,0,0,0
9,99999,84,90000,46,0,40,9999,0.100000,99,0,0.000000,15,2.000000,28.180340,6.247014,99,99,0,0,0,0,0
9,99999,85,90000,69,0,40,9999,0.100000,99,0,0.000000,15,0.000000,18.674549,0.112833,99,99,0,0,0,0,0
9,99999,86,90000,64,0,40,9999,0.100000,99,0,0.000000,15,0.000000,20.979453,0.398696,99,99,0,0,0,0,0
9,99999,87,90000,64,0,40,9999,0.100000,99,0,0.000000,15,1.000000,22.375901,5.084455,99,99,0,0,0,0,0
9,99999,88,90000,88,30000,40,9999,0.100000,99,0,0.000000,15,0.000000,28.143822,1.949714,99,99,0,0,0,0,0
9,99999,89,90000,4,0,0,9999,0.100000,99,0,4.811157,15,3.000000,31.011093,10.565529,99,99,0,1,0,0,0
9,99999,90,90000,43,50000,40,9999,0.100000,99,0,0.000000,15,0.000000,31.989766,1.994412,99,99,0,0,0,0,0
9,99999,91,90000,78,0,40,9999,0.100000,99,0,0.000000,15,0.000000,29.039802,13.674221,99,99,0,0,0,0,0
9,99999,92,90000,69,0,0,9999,0.100000,99,0,0.008216,15,0.000000,29.250390,0.516617,99,99,0,0,0,0,1
9,99999,93,90000,95,60000,40,9999,0.100000,99,0,0.000000,15,0.000000,19.431499,0.584765,99,99,0,0,0,0,0
9,99999,94,90000,51,60000,40,9999,0.100000,99,0,0.000000,15,0.000000,20.215350,0.722140,99,99,0,0,0,0,0
9,99999,95,90000,22,0,1,9999,0.100000,99,0,4.931046,15,4.000000,31.288432,17.965604,99,99,0,1,0,0,0
9,99999,96,90000,88,30000,40,9999,0.100000,99,0,0.000000,15,1.000000,27.092829,3.178830,99,99,0,0,0,0,0
9,99999,97,90000,78,0,40,9999,0.100000,99,0,0.000000,15,1.000000,24.070323,5.435062,99,99,0,0,0,0,0
9,99999,98,90000,58,0,40,9999,0.100000,99,0,0.000000,15,1.000000,25.506633,8.201894,99,99,0,0,0,0,0
9,99999,99,90000,51,60000,40,9999,0.100000,99,0,0.000000,15,0.000000,24.313909,0.773044,99,99,0,0,0,0,0
10,109999,0,100000,88,30000,40,9999,0.100000,99,0,0.000000,15,0.000000,28.953382,1.021566,99,99,0,0,0,0,0
10,109999,1,100000,88,70000,40,9999,0.100000,99,0,0.000000,15,0.000000,25.057820,0.347001,99,99,0,0,0,0,0
10,109999,2,100000,69,0,0,9999,0.100000,99,0,0.813021,15,0.000000,24.066501,0.319842,99,99,0,0,0,0,1
10,109999,3,100000,5,80000,0,9999,0.100000,99,0,0.166184,15,0.000000,18.014747,0.566175,99,99,0,0,0,1,0
10,109999,4,100000,95,60000,41,9999,0.100000,99,0,0.000000,15,3.000000,28.139291,16.637366,99,99,0,0,0,0,0
10,109999,5,100000,40,0,0,9999,0.100000,99,0,0.223811,15,0.000000,22.502074,0.770151,99,99,0,0,0,0,1
10,109999,6,100000,40,0,0,9999,0.100000,99,0,0.010417,15,0.000000,19.550200,0.330924,99,99,0,0,1,0,0
10,109999,7,100000,78,0,0,9999,0.100000,99,0,0.068683,15,0.000000,28.548931,2.972662,99,99,0,0,0,1,0
10,109999,8,100000,46,0,41,9999,0.100000,99,0,0.000000,15,2.000000,18.806802,9.223704,99,99,0,0,0,0,0
10,109999,9,100000,4,0,0,9999,0.100000,99,0,0.131156,15,0.000000,21.126178,1.107410,99,99,0,0,0,1,0
10,109999,10,100000,69,0,0,9999,0.100000,99,0,0.036977,15,0.000000,31.906057,1.186372,99,99,0,0,0,0,1
10,109999,11,100000,58,0,40,9999,0.100000,99,0,0.000000,15,0.000000,23.222613,0.477476,99,99,0,0,0,0,0
10,109999,12,100000,46,0,40,9999,0.100000,99,0,0.000000,15,0.000000,29.865899,0.098529,99,99,0,0,0,0,0
10,109999,13,100000,43,50000,40,9999,0.100000,99,0,0.000000,15,0.000000,25.358591,1.627304,99,99,0,0,0,0,0
10,109999,14,100000,88,70000,40,9999,0.100000,99,0,0.000000,15,0.000000,27.695395,22.328496,99,99,0,0,0,0,0
10,109999,15,100000,88,70000,41,9999,0.100000,99,0,0.000000,15,3.000000,28.247398,16.645296,99,99,0,0,0,0,0
10,109999,16,100000,22,0,40,9999,0.100000,99,0,0.000000,15,0.000000,22.731404,0.528710,99,99,0,0,0,0,0
10,109999,17,100000,25,0,40,9999,0.100000,99,0,0.000000,15,1.000000,32.241802,13.062449,99,99,0,0,0,0,0
10,109999,18,100000,4,0,40,9999,0.100000,99,0,0.000000,15,0.000000,31.680556,0.650420,99,99,0,0,0,0,0
10,109999,19,100000,51,60000,40,9999,0.100000,99,0,0.000000,15,0.000000,30.810879,6.575975,99,99,0,0,0,0,0
10,109999,20,100000,46,0,40,9999,0.100000,99,0,0.000000,15,2.000000,29.642172,13.235344,99,99,0,0,0,0,0
10,109999,21,100000,46,0,0,9999,0.100000,99,0,1.386462,15,0.000000,26.031383,1.100118,99,99,0,0,1,0,0
10,109999,22,100000,4,0,0,9999,0.100000,99,0,0.000110,15,0.000000,33.434770,0.065836,99,99,0,0,0,0,1
10,109999,23,100000,40,0,0,9999,0.100000,99,0,1.704236,15,0.000000,28.962242,0.647837,99,99,0,0,1,0,0
10,109999,24,100000,88,30000,0,9999,0.100000,99,0,2.167526,15,0.000000,25.497561,1.375906,99,99,0,0,0,1,0
10,109999,25,100000,5,80000,0,9999,0.100000,99,0,0.030487,15,0.000000,19.491255,0.138939,99,99,0,0,1,0,0
10,109999,26,100000,58,0,40,9999,0.100000,99,0,0.000000,15,0.000000,21.117075,1.418813,99,99,0,0,0,0,0
10,109999,27,100000,88,70000,0,9999,0.100000,99,0,0.014794,15,0.000000,15.505874,0.097908,99,99,0,0,0,1,0
10,109999,28,100000,78,0,40,9999,0.100000,99,0,0.000000,15,1.000000,17.806986,2.534375,99,99,0,0,0,0,0
10,109999,29,100000,88,70000,0,9999,0.100000,99,0,0.024728,15,0.000000,30.891848,0.094248,99,99,0,0,0,1,0
10,109999,30,100000,78,0,40,9999,0.100000,99,0,0.000000,15,0.000000,29.317229,0.587719,99,99,0,0,0,0,0
10,109999,31,100000,88,30000,40,9999,0.100000,99,0,0.000000,15,0.000000,25.669895,0.852039,99,99,0,0,0,0,0
10,109999,32,100000,51,60000,40,9999,0.100000,99,0,0.000000,15,1.000000,21.304366,5.041872,99,99,0,0,0,0,0
10,109999,33,100000,88,70000,40,9999,0.100000,99,0,0.000000,15,0.000000,31.550419,0.928727,99,99,0,0,0,0,0
10,109999,34,100000,95,60000,40,9999,0.100000,99,0,0.000000,15,2.000000,20.880148,6.504724,99,99,0,0,0,0,0
10,109999,35,100000,22,0,40,9999,0.100000,99,0,0.000000,15,0.000000,15.426496,0.235493,99,99,0,0,0,0,0
10,109999,36,100000,5,80000,0,9999,0.100000,99,0,0.157478,15,0.000000,26.134280,0.105518,99,99,0,0,0,0,1
10,109999,37,100000,46,0,40,9999,0.100000,99,0,0.000000,15,0.000000,19.296714,0.131191,99,99,0,0,0,0,0
10,109999,38,100000,40,0,0,9999,0.100000,99,0,0.070134,15,0.000000,19.233042,0.454921,99,99,0,0,1,0,0
10,109999,39,100000,25,0,40,9999,0.100000,99,0,0.000000,15,1.000000,23.796630,4.070229,99,99,0,0,0,0,0
10,109999,40,100000,78,0,0,9999,0.100000,99,0,1.681846,15,0.000000,28.383605,0.482710,99,99,0,0,0,0,1
10,109999,41,100000,95,60000,40,9999,0.100000,99,0,0.000000,15,0.000000,30.675494,0.108144,99,99,0,0,0,0,0
10,109999,42,100000,64,0,0,9999,0.100000,99,0,0.019069,15,0.000000,19.531591,0.106070,99,99,0,0,0,1,0
10,109999,43,100000,78,0,40,9999,0.100000,99,0,0.000000,15,0.000000,25.705014,1.232240,99,99,0,0,0,0,0
10,109999,44,100000,46,0,41,9999,0.100000,99,0,0.000000,15,4.000000,29.168954,21.353509,99,99,0,0,0,0,0
10,109999,45,100000,4,0,40,9999,0.100000,99,0,0.000000,15,0.000000,29.102637,0.749992,99,99,0,0,0,0,0
10,109999,46,100000,64,0,40,9999,0.100000,99,0,0.000000,15,0.000000,12.687842,0.297447,99,99,0,0,0,0,0
10,109999,47,100000,69,0,40,9999,0.100000,99,0,0.000000,15,0.000000,24.475312,0.578311,99,99,0,0,0,0,0
10,109999,48,100000,5,80000,40,9999,0.100000,99,0,0.000000,15,3.000000,31.881059,5.662770,99,99,0,0,0,0,0
10,109999,49,100000,46,0,0,9999,0.100000,99,0,1.479865,15,0.000000,20.722780,1.928186,99,99,0,0,1,0,0
10,109999,50,100000,51,60000,40,9999,0.100000,99,0,0.000000,15,0.000000,29.168357,0.465088,99,99,0,0,0,0,0
10,109999,51,100000,78,0,43,9999,0.100000,99,0,0.000000,15,7.000000,17.735644,15.428455,99,99,0,0,0,0,0
10,109999,52,100000,43,50000,40,9999,0.100000,99,0,0.000000,15,0.000000,30.438723,0.155249,99,99,0,0,0,0,0
10,109999,53,100000,51,60000,43,9999,0.100000,99,0,0.000000,15,10.000000,26.177428,14.499571,99,99,0,0,0,0,0
10,109999,54,100000,64,0,40,9999,0.100000,99,0,0.000000,15,0.000000,32.052059,3.174320,99,99,0,0,0,0,0
10,109999,55,100000,4,0,40,9999,0.100000,99,0,0.000000,15,0.000000,26.211969,1.537547,99,99,0,0,0,0,0
10,109999,56,100000,43,50000,0,9999,0.100000,99,0,0.001861,15,0.000000,32.977424,0.103055,99,99,0,0,0,1,0
10,109999,57,100000,95,60000,40,9999,0.100000,99,0,0.000000,15,0.000000,22.275583,0.329494,99,99,0,0,0,0,0
10,109999,58,100000,51,60000,40,9999,0.100000,99,0,0.000000,15,0.000000,31.723453,0.140128,99,99,0,0,0,0,0
10,109999,59,100000,46,0,40,9999,0.100000,99,0,0.000000,15,1.000000,23.179768,22.320935,99,99,0,0,0,0,0
10,109999,60,100000,95,60000,40,9999,0.100000,99,0,0.000000,15,0.000000,25.858680,0.911209,99,99,0,0,0,0,0
10,109999,61,100000,22,0,40,9999,0.100000,99,0,0.000000,15,0.000000,20.449599,23.383750,99,99,0,0,0,0,0
10,109999,62,100000,40,0,40,9999,0.100000,99,0,0.000000,15,0.000000,28.534579,8.528990,99,99,0,0,0,0,0
10,109999,63,100000,88,70000,40,9999,0.100000,99,0,0.000000,15,0.000000,19.005670,0.187612,99,99,0,0,0,0,0
10,109999,64,100000,88,30000,40,9999,0.100000,99,0,0.000000,15,0.000000,32.904243,0.111511,99,99,0,0,0,0,0
10,109999,65,100000,69,0,0,9999,0.100000,99,0,3.075858,15,1.000000,18.575153,2.499735,99,99,0,0,1,0,0
10,109999,66,100000,25,0,0,9999,0.100000,99,0,0.027203,15,0.000000,19.133302,2.579598,99,99,0,0,1,0,0
10,109999,67,100000,43,90000,0,9999,0.100000,99,0,0.550409,15,0.000000,27.199656,0.247933,99,99,0,0,0,1,0
10,109999,68,100000,40,0,0,9999,0.100000,99,0,0.200109,15,0.000000,19.917615,0.141832,99,99,0,0,1,0,0
10,109999,69,100000,58,0,0,9999,0.100000,99,0,0.229755,15,0.000000,20.763932,1.733024,99,99,0,0,0,0,1
10,109999,70,100000,88,30000,40,9999,0.100000,99,0,0.000000,15,0.000000,19.504636,0.135613,99,99,0,0,0,0,0
10,109999,71,100000,95,60000,40,9999,0.100000,99,0,0.000000,15,0.000000,20.934870,0.134406,99,99,0,0,0,0,0
10,109999,72,100000,22,0,40,9999,0.100000,99,0,0.000000,15,0.000000,20.952905,2.120337,99,99,0,0,0,0,0
10,109999,73,100000,64,0,40,9999,0.100000,99,0,0.000000,15,1.000000,18.676991,4.324132,99,99,0,0,0,0,0
10,109999,74,100000,51,60000,41,9999,0.100000,99,0,0.000000,15,5.000000,26.996894,15.563448,99,99,0,0,0,0,0
10,109999,75,100000,95,60000,40,9999,0.100000,99,0,0.000000,15,0.000000,26.354736,0.821907,99,99,0,0,0,0,0
10,109999,76,100000,5,80000,40,9999,0.100000,99,0,0.000000,15,0.000000,19.055589,0.093893,99,99,0,0,0,0,0
10,109999,77,100000,95,60000,40,9999,0.100000,99,0,0.000000,15,0.000000,27.900833,0.211674,99,99,0,0,0,0,0
10,109999,78,100000,58,0,40,9999,0.100000,99,0,0.000000,15,0.000000,26.668043,1.228929,99,99,0,0,0,0,0
10,109999,79,100000,51,60000,40,9999,0.100000,99,0,0.000000,15,0.000000,15.491684,22.415822,99,99,0,0,0,0,0
10,109999,80,100000,25,0,40,9999,0.100000,99,0,0.000000,15,0.000000,31.426234,0.142295,99,99,0,0,0,0,0
10,109999,81,100000,64,0,40,9999,0.100000,99,0,0.000000,15,1.000000,24.651376,10.021799,99,99,0,0,0,0,0
10,109999,82,100000,43,90000,0,9999,0.100000,99,0,0.140672,15,0.000000,16.668116,0.081762,99,99,0,0,0,0,1
10,109999,83,100000,58,0,40,9999,0.100000,99,0,0.000000,15,0.000000,28.054869,0.667456,99,99,0,0,0,0,0
10,109999,84,100000,4,0,40,9999,0.100000,99,0,0.000000,15,0.000000,28.571124,0.266668,99,99,0,0,0,0,0
10,109999,85,100000,5,80000,40,9999,0.100000,99,0,0.000000,15,0.000000,18.681805,0.156544,99,99,0,0,0,0,0
10,109999,86,100000,78,0,40,9999,0.100000,99,0,0.000000,15,1.000000,21.061092,12.322375,99,99,0,0,0,0,0
10,109999,87,100000,88,30000,40,9999,0.100000,99,0,0.000000,15,0.000000,22.528902,5.181739,99,99,0,0,0,0,0
10,109999,88,100000,25,0,40,9999,0.100000,99,0,0.000000,15,0.000000,27.683958,0.186056,99,99,0,0,0,0,0
10,109999,89,100000,78,0,40,9999,0.100000,99,0,0.000000,15,3.000000,32.948085,11.674960,99,99,0,0,0,0,0
10,109999,90,100000,22,0,40,9999,0.100000,99,0,0.000000,15,0.000000,32.140837,0.545819,99,99,0,0,0,0,0
10,109999,91,100000,88,30000,40,9999,0.100000,99,0,0.000000,15,3.000000,29.148681,10.333130,99,99,0,0,0,0,0
10,109999,92,100000,5,80000,2,9999,0.100000,99,0,0.018066,15,8.000000,29.171110,16.808008,99,99,0,0,0,0,1
10,109999,93,100000,69,0,40,9999,0.100000,99,0,0.000000,15,0.000000,19.464730,0.694075,99,99,0,0,0,0,0
10,109999,94,100000,58,0,40,9999,0.100000,99,0,0.000000,15,0.000000,20.221343,0.121826,99,99,0,0,0,0,0
10,109999,95,100000,88,30000,40,9999,0.100000,99,0,0.000000,15,2.000000,33.194483,9.256106,99,99,0,0,0,0,0
10,109999,96,100000,78,0,0,9999,0.100000,99,0,0.175639,15,0.000000,26.474923,0.325739,99,99,0,0,0,1,0
10,109999,97,100000,69,0,40,9999,0.100000,99,0,0.000000,15,0.000000,25.257443,2.869687,99,99,0,0,0,0,0
10,109999,98,100000,95,60000,40,9999,0.100000,99,0,0.000000,15,0.000000,26.535211,0.521116,99,99,0,0,0,0,0
10,109999,99,100000,25,0,40,9999,0.100000,99,0,0.000000,15,0.000000,24.290772,0.432004,99,99,0,0,0,0,0
11,119999,0,110000,88,30000,40,9999,0.100000,99,0,0.000000,15,0.000000,28.975053,0.696021,99,99,0,0,0,0,0
11,119999,1,110000,58,0,40,9999,0.100000,99,0,0.000000,15,0.000000,25.060232,0.478884,99,99,0,0,0,0,0
11,119999,2,110000,88,30000,0,9999,0.100000,99,0,0.519677,15,0.000000,24.108901,0.147463,99,99,0,0,0,0,1
11,119999,3,110000,58,0,0,9999,0.100000,99,0,0.185238,15,0.000000,18.028589,0.248430,99,99,0,0,0,1,0
11,119999,4,110000,43,90000,41,9999,0.100000,99,0,0.000000,15,5.000000,28.671165,17.439997,99,99,0,0,0,0,0
11,119999,5,110000,69,0,0,9999,0.100000,99,0,0.064023,15,0.000000,22.346575,0.799920,99,99,0,0,0,0,1
11,119999,6,110000,64,0,0,9999,0.100000,99,0,0.008573,15,0.000000,19.552926,0.281640,99,99,0,0,1,0,0
11,119999,7,110000,51,60000,0,9999,0.100000,99,0,0.013656,15,0.000000,28.940948,0.107608,99,99,0,0,0,1,0
11,119999,8,110000,64,0,0,9999,0.100000,99,0,0.572140,15,0.000000,18.000811,2.340219,99,99,0,0,1,0,0
11,119999,9,110000,58,0,0,9999,0.100000,99,0,0.049354,15,0.000000,21.198731,1.663449,99,99,0,0,0,1,0
11,119999,10,110000,22,0,40,9999,0.100000,99,0,0.000000,15,1.000000,31.918150,6.747107,99,99,0,0,0,0,0
11,119999,11,110000,64,0,40,9999,0.100000,99,0,0.000000,15,0.000000,23.235952,0.522327,99,99,0,0,0,0,0
11,119999,12,110000,78,0,40,9999,0.100000,99,0,0.000000,15,0.000000,29.865880,0.100844,99,99,0,0,0,0,0
11,119999,13,110000,40,0,40,9999,0.100000,99,0,0.000000,15,0.000000,25.936004,1.773285,99,99,0,0,0,0,0
11,119999,14,110000,95,60000,40,9999,0.100000,99,0,0.000000,15,0.000000,27.780130,22.111790,99,99,0,0,0,0,0
11,119999,15,110000,5,80000,41,9999,0.100000,99,0,0.000000,15,5.000000,28.781578,17.467790,99,99,0,0,0,0,0
11,119999,16,110000,4,0,40,9999,0.100000,99,0,0.000000,15,0.000000,22.649316,0.504670,99,99,0,0,0,0,0
11,119999,17,110000,69,0,0,9999,0.100000,99,0,0.206158,15,0.000000,31.066933,3.877429,99,99,0,0,0,0,1
11,119999,18,110000,40,0,40,9999,0.100000,99,0,0.000000,15,0.000000,31.641437,2.620628,99,99,0,0,0,0,0
11,119999,19,110000,43,50000,41,9999,0.100000,99,0,0.000000,15,6.000000,31.224534,21.580001,99,99,0,0,0,0,0
11,119999,20,110000,88,30000,40,9999,0.100000,99,0,0.000000,15,2.000000,27.891384,14.678331,99,99,0,0,0,0,0
11,119999,21,110000,51,60000,0,9999,0.100000,99,0,0.663715,15,0.000000,26.376995,1.097485,99,99,0,0,1,0,0
11,119999,22,110000,46,0,0,9999,0.100000,99,0,0.407669,15,0.000000,33.434323,0.129006,99,99,0,0,0,0,1
11,119999,23,110000,78,0,0,9999,0.100000,99,0,0.927602,15,0.000000,29.034175,0.441839,99,99,0,0,1,0,0
11,119999,24,110000,51,60000,0,9999,0.100000,99,0,2.579107,15,0.000000,26.081514,0.775642,99,99,0,0,0,1,0
11,119999,25,110000,88,30000,0,9999,0.100000,99,0,0.025758,15,0.000000,19.484914,0.135915,99,99,0,0,1,0,0
11,119999,26,110000,51,60000,0,9999,0.100000,99,0,0.078588,15,0.000000,20.563540,0.548455,99,99,0,0,1,0,0
11,119999,27,110000,95,60000,0,9999,0.100000,99,0,0.011310,15,0.000000,15.478301,0.104923,99,99,0,0,0,1,0
11,119999,28,110000,46,0,40,9999,0.100000,99,0,0.000000,15,0.000000,18.246824,0.119785,99,99,0,0,0,0,0
11,119999,29,110000,4,0,0,9999,0.100000,99,0,0.071143,15,0.000000,30.905399,0.089781,99,99,0,0,0,1,0
11,119999,30,110000,4,0,40,9999,0.100000,99,0,0.000000,15,1.000000,29.242719,6.094984,99,99,0,0,0,0,0
11,119999,31,110000,64,0,40,9999,0.100000,99,0,0.000000,15,0.000000,26.314904,0.523921,99,99,0,0,0,0,0
11,119999,32,110000,43,50000,40,9999,0.100000,99,0,0.000000,15,0.000000,21.631626,0.371533,99,99,0,0,0,0,0
11,119999,33,110000,95,60000,40,9999,0.100000,99,0,0.000000,15,0.000000,31.520587,3.231068,99,99,0,0,0,0,0
11,119999,34,110000,88,30000,42,9999,0.100000,99,0,0.000000,15,5.000000,22.356072,17.704930,99,99,0,0,0,0,0
11,119999,35,110000,95,60000,40,9999,0.100000,99,0,0.000000,15,0.000000,15.425277,0.230599,99,99,0,0,0,0,0
11,119999,36,110000,78,0,0,9999,0.100000,99,0,0.027761,15,0.000000,26.123688,0.177728,99,99,0,0,0,0,1
11,119999,37,110000,5,80000,0,9999,0.100000,99,0,0.015330,15,0.000000,19.293768,0.120982,99,99,0,0,0,1,0
11,119999,38,110000,5,80000,0,9999,0.100000,99,0,0.215010,15,0.000000,19.237017,0.439176,99,99,0,0,1,0,0
11,119999,39,110000,22,0,40,9999,0.100000,99,0,0.000000,15,0.000000,23.855621,0.148850,99,99,0,0,0,0,0
11,119999,40,110000,69,0,0,9999,0.100000,99,0,0.628916,15,0.000000,28.100271,0.233211,99,99,0,0,0,0,1
11,119999,41,110000,51,60000,40,9999,0.100000,99,0,0.000000,15,0.000000,30.688552,0.103398,99,99,0,0,0,0,0
11,119999,42,110000,95,60000,40,9999,0.100000,99,0,0.000000,15,0.000000,19.528147,0.106929,99,99,0,0,0,0,0
11,119999,43,110000,43,90000,40,9999,0.100000,99,0,0.000000,15,0.000000,26.120964,1.039037,99,99,0,0,0,0,0
11,119999,44,110000,25,0,40,9999,0.100000,99,0,0.000000,15,1.000000,24.875534,19.945606,99,99,0,0,0,0,0
11,119999,45,110000,40,0,40,9999,0.100000,99,0,0.000000,15,0.000000,28.842902,0.223347,99,99,0,0,0,0,0
11,119999,46,110000,69,0,40,9999,0.100000,99,0,0.000000,15,0.000000,12.825075,0.286504,99,99,0,0,0,0,0
11,119999,47,110000,88,30000,40,9999,0.100000,99,0,0.000000,15,0.000000,24.501776,0.212021,99,99,0,0,0,0,0
11,119999,48,110000,69,0,40,9999,0.100000,99,0,0.000000,15,0.000000,28.925627,1.286483,99,99,0,0,0,0,0
11,119999,49,110000,43,50000,43,9999,0.100000,99,0,0.000000,15,8.000000,20.314617,12.268607,99,99,0,0,0,0,0
11,119999,50,110000,69,0,40,9999,0.100000,99,0,0.000000,15,0.000000,29.085017,0.936076,99,99,0,0,0,0,0
11,119999,51,110000,51,60000,40,9999,0.100000,99,0,0.000000,15,0.000000,17.709267,0.431540,99,99,0,0,0,0,0
11,119999,52,110000,64,0,40,9999,0.100000,99,0,0.000000,15,0.000000,30.451090,0.141340,99,99,0,0,0,0,0
11,119999,53,110000,43,50000,40,9999,0.100000,99,0,0.000000,15,0.000000,33.798712,0.914497,99,99,0,0,0,0,0
11,119999,54,110000,78,0,40,9999,0.100000,99,0,0.000000,15,0.000000,31.974177,1.834061,99,99,0,0,0,0,0
11,119999,55,110000,69,0,42,9999,0.100000,99,0,0.000000,15,6.000000,26.408108,6.803142,99,99,0,0,0,0,0
11,119999,56,110000,40,0,0,9999,0.100000,99,0,0.001778,15,0.000000,32.977951,0.101807,99,99,0,0,0,1,0
11,119999,57,110000,43,50000,40,9999,0.100000,99,0,0.000000,15,0.000000,22.123454,0.514869,99,99,0,0,0,0,0
11,119999,58,110000,64,0,40,9999,0.100000,99,0,0.000000,15,0.000000,31.723084,0.141713,99,99,0,0,0,0,0
11,119999,59,110000,5,80000,40,9999,0.100000,99,0,0.000000,15,0.000000,23.103137,23.070258,99,99,0,0,0,0,0
11,119999,60,110000,69,0,40,9999,0.100000,99,0,0.000000,15,0.000000,26.241433,0.660987,99,99,0,0,0,0,0
11,119999,61,110000,43,50000,40,9999,0.100000,99,0,0.000000,15,0.000000,20.289332,4.343062,99,99,0,0,0,0,0
11,119999,62,110000,95,60000,41,9999,0.100000,99,0,0.000000,15,3.000000,28.152957,10.040997,99,99,0,0,0,0,0
11,119999,63,110000,4,0,40,9999,0.100000,99,0,0.000000,15,0.000000,19.024833,0.176581,99,99,0,0,0,0,0
11,119999,64,110000,58,0,40,9999,0.065000,99,0,0.000000,15,0.000000,32.903812,0.193775,99,99,0,0,0,0,0
11,119999,65,110000,46,0,40,9999,0.100000,99,0,0.000000,15,0.000000,18.152392,4.800508,99,99,0,0,0,0,0
11,119999,66,110000,46,0,0,9999,0.100000,99,0,0.256258,15,0.000000,19.049609,0.218577,99,99,0,0,1,0,0
11,119999,67,110000,5,80000,0,9999,0.100000,99,0,0.496302,15,0.000000,27.309139,0.221072,99,99,0,0,0,1,0
11,119999,68,110000,64,0,0,9999,0.100000,99,0,0.127300,15,0.000000,19.931309,0.149207,99,99,0,0,1,0,0
11,119999,69,110000,4,0,0,9999,0.100000,99,0,0.581539,15,0.000000,20.146926,0.587618,99,99,0,0,0,0,1
11,119999,70,110000,43,50000,40,9999,0.100000,99,0,0.000000,15,0.000000,19.498966,0.135357,99,99,0,0,0,0,0
11,119999,71,110000,51,60000,40,9999,0.100000,99,0,0.000000,15,0.000000,20.974390,0.121497,99,99,0,0,0,0,0
11,119999,72,110000,88,30000,40,9999,0.100000,99,0,0.000000,15,0.000000,20.336363,2.528703,99,99,0,0,0,0,0
11,119999,73,110000,95,60000,40,9999,0.100000,99,0,0.000000,15,1.000000,18.064256,2.787786,99,99,0,0,0,0,0
11,119999,74,110000,88,30000,42,9999,0.100000,99,0,0.000000,15,6.000000,22.249708,11.061128,99,99,0,0,0,0,0
11,119999,75,110000,25,0,40,9999,0.100000,99,0,0.000000,15,2.000000,26.402674,8.434206,99,99,0,0,0,0,0
11,119999,76,110000,22,0,40,9999,0.100000,99,0,0.000000,15,0.000000,19.052412,0.095726,99,99,0,0,0,0,0
11,119999,77,110000,46,0,40,9999,0.100000,99,0,0.000000,15,0.000000,28.000433,0.191015,99,99,0,0,0,0,0
11,119999,78,110000,22,0,40,9999,0.100000,99,0,0.000000,15,0.000000,26.744725,1.136502,99,99,0,0,0,0,0
11,119999,79,110000,64,0,40,9999,0.100000,99,0,0.000000,15,0.000000,15.565276,22.222305,99,99,0,0,0,0,0
11,119999,80,110000,78,0,40,9999,0.100000,99,0,0.000000,15,0.000000,31.425758,0.136764,99,99,0,0,0,0,0
11,119999,81,110000,69,0,40,9999,0.100000,99,0,0.000000,15,0.000000,23.355762,0.839307,99,99,0,0,0,0,0
11,119999,82,110000,4,0,0,9999,0.100000,99,0,0.153341,15,0.000000,16.643186,0.080118,99,99,0,0,0,0,1
11,119999,83,110000,88,30000,40,9999,0.100000,99,0,0.000000,15,0.000000,27.770173,0.399521,99,99,0,0,0,0,0
11,119999,84,110000,40,0,40,9999,0.100000,99,0,0.000000,15,0.000000,28.709112,0.185040,99,99,0,0,0,0,0
11,119999,85,110000,95,60000,40,9999,0.100000,99,0,0.000000,15,0.000000,18.695879,0.126475,99,99,0,0,0,0,0
11,119999,86,110000,51,60000,40,9999,0.100000,99,0,0.000000,15,0.000000,20.482691,5.306611,99,99,0,0,0,0,0
11,119999,87,110000,46,0,40,9999,0.100000,99,0,0.000000,15,0.000000,22.498168,2.252072,99,99,0,0,0,0,0
11,119999,88,110000,22,0,42,9999,0.100000,99,0,0.000000,15,7.000000,27.786730,29.595791,99,99,0,0,0,0,0
11,119999,89,110000,69,0,40,9999,0.065000,99,0,0.000000,15,2.000000,30.534633,5.433046,99,99,0,0,0,0,0
