generation,iteration,robot,birthday,ancestor_id,ancestor_birthday,cell_id,age,sigma,maps,genomes,fitness,cells_in_map,dist_max,dist_pot_max,dist_total,com_rx,com_tx,obj_group1,obj_group2,obj_group3,obj_group4,obj_group5
0,9999,0,0,0,0,49,9999,0.100000,0,0,0.000000,0,3.000000,0.000000,10.703285,0,0,0,0,0,0,0
0,9999,1,0,1,0,99,9999,0.100000,0,0,47.368421,0,11.000000,0.000000,27.376118,0,0,1,0,0,0,0
0,9999,2,0,2,0,49,9999,0.100000,0,0,0.000000,0,4.000000,0.000000,11.500242,0,0,0,0,0,0,0
0,9999,3,0,3,0,49,9999,0.100000,0,0,0.000000,0,2.000000,0.000000,9.432914,0,0,0,0,0,0,0
0,9999,4,0,4,0,49,9999,0.100000,0,0,0.000000,0,7.000000,0.000000,12.594509,0,0,0,0,0,0,0
0,9999,5,0,5,0,49,9999,0.100000,0,0,0.000000,0,5.000000,0.000000,17.848387,0,0,0,0,0,0,0
0,9999,6,0,6,0,49,9999,0.100000,0,0,0.000000,0,4.000000,0.000000,12.422037,0,0,0,0,0,0,0
0,9999,7,0,7,0,99,9999,0.100000,0,0,47.368421,0,10.000000,0.000000,19.796706,0,0,1,0,0,0,0
0,9999,8,0,8,0,49,9999,0.100000,0,0,0.000000,0,8.000000,0.000000,10.604819,0,0,0,0,0,0,0
0,9999,9,0,9,0,49,9999,0.100000,0,0,0.000000,0,3.000000,0.000000,17.730643,0,0,0,0,0,0,0
0,9999,10,0,10,0,49,9999,0.100000,0,0,0.000000,0,3.000000,0.000000,9.645494,0,0,0,0,0,0,0
0,9999,11,0,11,0,49,9999,0.100000,0,0,0.000000,0,5.000000,0.000000,11.482651,0,0,0,0,0,0,0
0,9999,12,0,12,0,49,9999,0.100000,0,0,0.000000,0,7.000000,0.000000,8.775203,0,0,0,0,0,0,0
0,9999,13,0,13,0,49,9999,0.100000,0,0,0.000000,0,4.000000,0.000000,20.181937,0,0,0,0,0,0,0
0,9999,14,0,14,0,49,9999,0.100000,0,0,0.000000,0,11.000000,0.000000,22.187220,0,0,0,0,0,0,0
0,9999,15,0,15,0,49,9999,0.100000,0,0,0.000000,0,8.000000,0.000000,11.645731,0,0,0,0,0,0,0
0,9999,16,0,16,0,49,9999,0.100000,0,0,0.000000,0,6.000000,0.000000,20.211073,0,0,0,0,0,0,0
0,9999,17,0,17,0,49,9999,0.100000,0,0,0.000000,0,3.000000,0.000000,4.952845,0,0,0,0,0,0,0
0,9999,18,0,18,0,49,9999,0.100000,0,0,0.000000,0,11.000000,0.000000,27.589546,0,0,0,0,0,0,0
0,9999,19,0,19,0,49,9999,0.100000,0,0,0.000000,0,8.000000,0.000000,17.055680,0,0,0,0,0,0,0
0,9999,20,0,20,0,49,9999,0.100000,0,0,0.000000,0,12.000000,0.000000,18.285740,0,0,0,0,0,0,0
0,9999,21,0,21,0,49,9999,0.100000,0,0,0.000000,0,9.000000,0.000000,24.916942,0,0,0,0,0,0,0
0,9999,22,0,22,0,49,9999,0.100000,0,0,0.000000,0,2.000000,0.000000,12.483551,0,0,0,0,0,0,0
0,9999,23,0,23,0,49,9999,0.100000,0,0,0.000000,0,10.000000,0.000000,12.417607,0,0,0,0,0,0,0
0,9999,24,0,24,0,49,9999,0.100000,0,0,0.000000,0,6.000000,0.000000,17.654236,0,0,0,0,0,0,0
0,9999,25,0,25,0,99,9999,0.100000,0,0,47.368421,0,11.000000,0.000000,19.881463,0,0,1,0,0,0,0
0,9999,26,0,26,0,49,9999,0.100000,0,0,0.000000,0,4.000000,0.000000,14.709885,0,0,0,0,0,0,0
0,9999,27,0,27,0,49,9999,0.100000,0,0,0.000000,0,9.000000,0.000000,18.786999,0,0,0,0,0,0,0
0,9999,28,0,28,0,49,9999,0.100000,0,0,0.000000,0,2.000000,0.000000,10.611129,0,0,0,0,0,0,0
0,9999,29,0,29,0,49,9999,0.100000,0,0,0.000000,0,9.000000,0.000000,16.708694,0,0,0,0,0,0,0
0,9999,30,0,30,0,99,9999,0.100000,0,0,47.368421,0,9.000000,0.000000,20.289684,0,0,1,0,0,0,0
0,9999,31,0,31,0,49,9999,0.100000,0,0,0.000000,0,8.000000,0.000000,9.591001,0,0,0,0,0,0,0
0,9999,32,0,32,0,99,9999,0.100000,0,0,47.368421,0,12.000000,0.000000,21.931697,0,0,1,0,0,0,0
0,9999,33,0,33,0,49,9999,0.100000,0,0,0.000000,0,10.000000,0.000000,24.481456,0,0,0,0,0,0,0
0,9999,34,0,34,0,49,9999,0.100000,0,0,0.000000,0,4.000000,0.000000,10.234844,0,0,0,0,0,0,0
0,9999,35,0,35,0,49,9999,0.100000,0,0,0.000000,0,9.000000,0.000000,16.065025,0,0,0,0,0,0,0
0,9999,36,0,36,0,49,9999,0.100000,0,0,0.000000,0,9.000000,0.000000,21.050406,0,0,0,0,0,0,0
0,9999,37,0,37,0,49,9999,0.100000,0,0,0.000000,0,10.000000,0.000000,17.414882,0,0,0,0,0,0,0
0,9999,38,0,38,0,99,9999,0.100000,0,0,47.368421,0,9.000000,0.000000,21.051066,0,0,1,0,0,0,0
0,9999,39,0,39,0,49,9999,0.100000,0,0,0.000000,0,10.000000,0.000000,18.889274,0,0,0,0,0,0,0
0,9999,40,0,40,0,49,9999,0.100000,0,0,0.000000,0,8.000000,0.000000,11.742347,0,0,0,0,0,0,0
0,9999,41,0,41,0,49,9999,0.100000,0,0,0.000000,0,10.000000,0.000000,21.763375,0,0,0,0,0,0,0
0,9999,42,0,42,0,49,9999,0.100000,0,0,0.000000,0,10.000000,0.000000,16.906129,0,0,0,0,0,0,0
0,9999,43,0,43,0,49,9999,0.100000,0,0,0.000000,0,8.000000,0.000000,18.854373,0,0,0,0,0,0,0
0,9999,44,0,44,0,99,9999,0.100000,0,0,47.368421,0,16.000000,0.000000,40.365144,0,0,1,0,0,0,0
0,9999,45,0,45,0,49,9999,0.100000,0,0,0.000000,0,9.000000,0.000000,10.851593,0,0,0,0,0,0,0
0,9999,46,0,46,0,49,9999,0.100000,0,0,0.000000,0,3.000000,0.000000,18.241575,0,0,0,0,0,0,0
0,9999,47,0,47,0,49,9999,0.100000,0,0,0.000000,0,3.000000,0.000000,14.384994,0,0,0,0,0,0,0
0,9999,48,0,48,0,49,9999,0.100000,0,0,0.000000,0,10.000000,0.000000,15.476124,0,0,0,0,0,0,0
0,9999,49,0,49,0,49,9999,0.100000,0,0,0.000000,0,3.000000,0.000000,9.187380,0,0,0,0,0,0,0
0,9999,50,0,50,0,49,9999,0.100000,0,0,0.000000,0,10.000000,0.000000,13.901170,0,0,0,0,0,0,0
0,9999,51,0,51,0,49,9999,0.100000,0,0,0.000000,0,9.000000,0.000000,20.326984,0,0,0,0,0,0,0
0,9999,52,0,52,0,49,9999,0.100000,0,0,0.000000,0,2.000000,0.000000,6.342130,0,0,0,0,0,0,0
0,9999,53,0,53,0,49,9999,0.100000,0,0,0.000000,0,5.000000,0.000000,10.376485,0,0,0,0,0,0,0
0,9999,54,0,54,0,49,9999,0.100000,0,0,0.000000,0,4.000000,0.000000,22.175063,0,0,0,0,0,0,0
0,9999,55,0,55,0,49,9999,0.100000,0,0,0.000000,0,9.000000,0.000000,27.626279,0,0,0,0,0,0,0
0,9999,56,0,56,0,49,9999,0.100000,0,0,0.000000,0,7.000000,0.000000,8.339747,0,0,0,0,0,0,0
0,9999,57,0,57,0,49,9999,0.100000,0,0,0.000000,0,6.000000,0.000000,7.041690,0,0,0,0,0,0,0
0,9999,58,0,58,0,49,9999,0.100000,0,0,0.000000,0,8.000000,0.000000,13.785437,0,0,0,0,0,0,0
0,9999,59,0,59,0,49,9999,0.100000,0,0,0.000000,0,4.000000,0.000000,11.255879,0,0,0,0,0,0,0
0,9999,60,0,60,0,49,9999,0.100000,0,0,0.000000,0,3.000000,0.000000,11.177487,0,0,0,0,0,0,0
0,9999,61,0,61,0,49,9999,0.100000,0,0,0.000000,0,4.000000,0.000000,12.563570,0,0,0,0,0,0,0
0,9999,62,0,62,0,49,9999,0.100000,0,0,0.000000,0,9.000000,0.000000,19.723936,0,0,0,0,0,0,0
0,9999,63,0,63,0,49,9999,0.100000,0,0,0.000000,0,5.000000,0.000000,9.852502,0,0,0,0,0,0,0
0,9999,64,0,64,0,49,9999,0.100000,0,0,0.000000,0,5.000000,0.000000,6.600951,0,0,0,0,0,0,0
0,9999,65,0,65,0,49,9999,0.100000,0,0,0.000000,0,8.000000,0.000000,12.005153,0,0,0,0,0,0,0
0,9999,66,0,66,0,49,9999,0.100000,0,0,0.000000,0,9.000000,0.000000,11.748129,0,0,0,0,0,0,0
0,9999,67,0,67,0,49,9999,0.100000,0,0,0.000000,0,5.000000,0.000000,13.193040,0,0,0,0,0,0,0
0,9999,68,0,68,0,49,9999,0.100000,0,0,0.000000,0,4.000000,0.000000,14.685475,0,0,0,0,0,0,0
0,9999,69,0,69,0,49,9999,0.100000,0,0,0.000000,0,8.000000,0.000000,18.745486,0,0,0,0,0,0,0
0,9999,70,0,70,0,49,9999,0.100000,0,0,0.000000,0,9.000000,0.000000,14.711349,0,0,0,0,0,0,0
0,9999,71,0,71,0,49,9999,0.100000,0,0,0.000000,0,3.000000,0.000000,4.641026,0,0,0,0,0,0,0
0,9999,72,0,72,0,49,9999,0.100000,0,0,0.000000,0,9.000000,0.000000,15.024762,0,0,0,0,0,0,0
0,9999,73,0,73,0,99,9999,0.100000,0,0,47.368421,0,8.000000,0.000000,17.566862,0,0,1,0,0,0,0
0,9999,74,0,74,0,49,9999,0.100000,0,0,0.000000,0,10.000000,0.000000,25.699831,0,0,0,0,0,0,0
0,9999,75,0,75,0,49,9999,0.100000,0,0,0.000000,0,7.000000,0.000000,14.449644,0,0,0,0,0,0,0
0,9999,76,0,76,0,49,9999,0.100000,0,0,0.000000,0,11.000000,0.000000,16.493366,0,0,0,0,0,0,0
0,9999,77,0,77,0,49,9999,0.100000,0,0,0.000000,0,10.000000,0.000000,23.750548,0,0,0,0,0,0,0
0,9999,78,0,78,0,49,9999,0.100000,0,0,0.000000,0,10.000000,0.000000,11.405345,0,0,0,0,0,0,0
0,9999,79,0,79,0,49,9999,0.100000,0,0,0.000000,0,7.000000,0.000000,17.218724,0,0,0,0,0,0,0
0,9999,80,0,80,0,49,9999,0.100000,0,0,0.000000,0,6.000000,0.000000,20.634095,0,0,0,0,0,0,0
0,9999,81,0,81,0,49,9999,0.100000,0,0,0.000000,0,5.000000,0.000000,13.296312,0,0,0,0,0,0,0
0,9999,82,0,82,0,49,9999,0.100000,0,0,0.000000,0,9.000000,0.000000,16.576211,0,0,0,0,0,0,0
0,9999,83,0,83,0,49,9999,0.100000,0,0,0.000000,0,10.000000,0.000000,25.560859,0,0,0,0,0,0,0
0,9999,84,0,84,0,49,9999,0.100000,0,0,0.000000,0,8.000000,0.000000,20.719397,0,0,0,0,0,0,0
0,9999,85,0,85,0,49,9999,0.100000,0,0,0.000000,0,9.000000,0.000000,23.070367,0,0,0,0,0,0,0
0,9999,86,0,86,0,49,9999,0.100000,0,0,0.000000,0,10.000000,0.000000,23.810793,0,0,0,0,0,0,0
0,9999,87,0,87,0,49,9999,0.100000,0,0,0.000000,0,6.000000,0.000000,8.013786,0,0,0,0,0,0,0
0,9999,88,0,88,0,49,9999,0.100000,0,0,0.000000,0,3.000000,0.000000,4.827471,0,0,0,0,0,0,0
0,9999,89,0,89,0,49,9999,0.100000,0,0,0.000000,0,3.000000,0.000000,16.227854,0,0,0,0,0,0,0
0,9999,90,0,90,0,49,9999,0.100000,0,0,0.000000,0,10.000000,0.000000,11.315888,0,0,0,0,0,0,0
0,9999,91,0,91,0,99,9999,0.100000,0,0,47.368421,0,9.000000,0.000000,21.912431,0,0,1,0,0,0,0
0,9999,92,0,92,0,49,9999,0.100000,0,0,0.000000,0,11.000000,0.000000,12.769699,0,0,0,0,0,0,0
0,9999,93,0,93,0,49,9999,0.100000,0,0,0.000000,0,10.000000,0.000000,22.276184,0,0,0,0,0,0,0
0,9999,94,0,94,0,49,9999,0.100000,0,0,0.000000,0,10.000000,0.000000,26.439129,0,0,0,0,0,0,0
0,9999,95,0,95,0,49,9999,0.100000,0,0,0.000000,0,7.000000,0.000000,8.177903,0,0,0,0,0,0,0
0,9999,96,0,96,0,99,9999,0.100000,0,0,47.368421,0,10.000000,0.000000,23.635421,0,0,1,0,0,0,0
0,9999,97,0,97,0,49,9999,0.100000,0,0,0.000000,0,4.000000,0.000000,12.688329,0,0,0,0,0,0,0
0,9999,98,0,98,0,49,9999,0.100000,0,0,0.000000,0,9.000000,0.000000,13.520237,0,0,0,0,0,0,0
0,9999,99,0,99,0,49,9999,0.100000,0,0,0.000000,0,6.000000,0.000000,12.370759,0,0,0,0,0,0,0
1,19999,0,10000,0,0,40,9999,0.100000,0,0,0.000000,1,0.000000,0.000000,6.167443,0,0,0,0,0,0,0
1,19999,1,0,1,0,49,19999,0.100000,0,0,0.000000,2,3.000000,0.000000,13.829231,0,0,0,0,0,0,0
1,19999,2,10000,8,0,40,9999,0.100000,0,0,0.000000,3,0.000000,0.000000,0.955718,0,0,0,0,0,0,0
1,19999,3,10000,1,0,40,9999,0.100000,0,0,0.000000,3,0.000000,0.000000,6.480742,0,0,0,0,0,0,0
1,19999,4,10000,0,0,49,9999,0.100000,0,0,0.000000,2,1.000000,0.000000,9.407345,0,0,0,0,0,0,0
1,19999,5,10000,0,0,49,9999,0.100000,0,0,0.000000,3,1.000000,0.000000,3.493360,0,0,0,0,0,0,0
1,19999,6,10000,83,0,40,9999,0.100000,0,0,0.000000,3,0.000000,0.000000,0.009305,0,0,0,0,0,0,0
1,19999,7,0,7,0,49,19999,0.100000,0,0,0.000000,3,2.000000,0.000000,12.001686,0,0,0,0,0,0,0
1,19999,8,10000,0,0,40,9999,0.100000,0,0,0.000000,3,0.000000,0.000000,1.511610,0,0,0,0,0,0,0
1,19999,9,10000,20,0,40,9999,0.100000,0,0,0.000000,3,0.000000,0.000000,0.721062,0,0,0,0,0,0,0
1,19999,10,10000,1,0,9,9999,0.100000,0,0,34.210526,2,10.000000,0.000000,21.457598,0,0,0,0,1,0,0
1,19999,11,10000,0,0,40,9999,0.100000,0,0,0.000000,3,0.000000,0.000000,1.241976,0,0,0,0,0,0,0
1,19999,12,10000,1,0,40,9999,0.100000,0,0,0.000000,3,0.000000,0.000000,0.958941,0,0,0,0,0,0,0
1,19999,13,10000,20,0,49,9999,0.100000,0,0,0.000000,3,1.000000,0.000000,5.645296,0,0,0,0,0,0,0
1,19999,14,10000,20,0,40,9999,0.100000,0,0,0.000000,3,0.000000,0.000000,17.500023,0,0,0,0,0,0,0
1,19999,15,10000,0,0,40,9999,0.100000,0,0,0.000000,3,0.000000,0.000000,0.120105,0,0,0,0,0,0,0
1,19999,16,10000,83,0,49,9999,0.100000,0,0,0.000000,3,7.000000,0.000000,17.629403,0,0,0,0,0,0,0
1,19999,17,10000,0,0,40,9999,0.100000,0,0,0.000000,3,0.000000,0.000000,0.969054,0,0,0,0,0,0,0
1,19999,18,10000,1,0,49,9999,0.100000,0,0,0.000000,3,2.000000,0.000000,14.634616,0,0,0,0,0,0,0
1,19999,19,10000,0,0,49,9999,0.100000,0,0,0.000000,3,3.000000,0.000000,8.927788,0,0,0,0,0,0,0
1,19999,20,10000,20,0,40,9999,0.100000,0,0,0.000000,3,0.000000,0.000000,0.228167,0,0,0,0,0,0,0
1,19999,21,10000,1,0,49,9999,0.100000,0,0,0.000000,2,3.000000,0.000000,10.499321,0,0,0,0,0,0,0
1,19999,22,10000,83,0,49,9999,0.100000,0,0,0.000000,3,2.000000,0.000000,8.321745,0,0,0,0,0,0,0
1,19999,23,10000,1,0,40,9999,0.100000,0,0,0.000000,3,0.000000,0.000000,0.106847,0,0,0,0,0,0,0
1,19999,24,10000,83,0,40,9999,0.100000,0,0,0.000000,3,0.000000,0.000000,0.104702,0,0,0,0,0,0,0
1,19999,25,10000,83,0,40,9999,0.100000,0,0,0.000000,3,0.000000,0.000000,5.900161,0,0,0,0,0,0,0
1,19999,26,10000,1,0,9,9999,0.100000,0,0,34.210526,3,10.000000,0.000000,16.320037,0,0,0,0,1,0,0
1,19999,27,10000,83,0,40,9999,0.100000,0,0,0.000000,3,0.000000,0.000000,9.691905,0,0,0,0,0,0,0
1,19999,28,10000,0,0,40,9999,0.100000,0,0,0.000000,3,0.000000,0.000000,1.004903,0,0,0,0,0,0,0
1,19999,29,10000,1,0,99,9999,0.100000,0,0,34.210526,3,15.000000,0.000000,22.463402,0,0,1,0,0,0,0
1,19999,30,10000,20,0,49,9999,0.100000,0,0,0.000000,3,1.000000,0.000000,12.414322,0,0,0,0,0,0,0
1,19999,31,10000,1,0,40,9999,0.100000,0,0,0.000000,3,0.000000,0.000000,0.126999,0,0,0,0,0,0,0
1,19999,32,10000,1,0,40,9999,0.100000,0,0,0.000000,2,0.000000,0.000000,5.512233,0,0,0,0,0,0,0
1,19999,33,10000,20,0,49,9999,0.100000,0,0,0.000000,3,2.000000,0.000000,11.341704,0,0,0,0,0,0,0
1,19999,34,10000,0,0,49,9999,0.100000,0,0,0.000000,3,3.000000,0.000000,3.828586,0,0,0,0,0,0,0
1,19999,35,10000,0,0,99,9999,0.100000,0,0,34.210526,3,14.000000,0.000000,22.577094,0,0,1,0,0,0,0
1,19999,36,10000,1,0,49,9999,0.100000,0,0,0.000000,3,6.000000,0.000000,12.766874,0,0,0,0,0,0,0
1,19999,37,10000,20,0,49,9999,0.100000,0,0,0.000000,3,1.000000,0.000000,15.169998,0,0,0,0,0,0,0
1,19999,38,10000,20,0,49,9999,0.100000,0,0,0.000000,3,1.000000,0.000000,6.107784,0,0,0,0,0,0,0
1,19999,39,10000,8,0,49,9999,0.100000,0,0,0.000000,3,1.000000,0.000000,13.489231,0,0,0,0,0,0,0
1,19999,40,10000,0,0,40,9999,0.100000,0,0,0.000000,3,0.000000,0.000000,0.119503,0,0,0,0,0,0,0
1,19999,41,10000,1,0,40,9999,0.100000,0,0,0.000000,3,0.000000,0.000000,13.893045,0,0,0,0,0,0,0
1,19999,42,10000,1,0,49,9999,0.100000,0,0,0.000000,2,2.000000,0.000000,12.808531,0,0,0,0,0,0,0
1,19999,43,10000,0,0,49,9999,0.100000,0,0,0.000000,3,1.000000,0.000000,13.910168,0,0,0,0,0,0,0
1,19999,44,10000,0,0,49,9999,0.100000,0,0,0.000000,3,1.000000,0.000000,8.490615,0,0,0,0,0,0,0
1,19999,45,10000,83,0,40,9999,0.100000,0,0,0.000000,3,0.000000,0.000000,7.138333,0,0,0,0,0,0,0
1,19999,46,10000,8,0,49,9999,0.100000,0,0,0.000000,3,1.000000,0.000000,6.623076,0,0,0,0,0,0,0
1,19999,47,10000,20,0,49,9999,0.100000,0,0,0.000000,3,1.000000,0.000000,7.627224,0,0,0,0,0,0,0
1,19999,48,0,48,0,40,19999,0.100000,0,0,0.000000,3,0.000000,0.000000,0.510869,0,0,0,0,0,0,0
1,19999,49,10000,8,0,49,9999,0.100000,0,0,0.000000,3,3.000000,0.000000,10.562396,0,0,0,0,0,0,0
1,19999,50,10000,0,0,40,9999,0.100000,0,0,0.000000,3,0.000000,0.000000,0.976901,0,0,0,0,0,0,0
1,19999,51,10000,20,0,49,9999,0.100000,0,0,0.000000,3,1.000000,0.000000,10.572452,0,0,0,0,0,0,0
1,19999,52,10000,1,0,40,9999,0.100000,0,0,0.000000,3,0.000000,0.000000,0.546819,0,0,0,0,0,0,0
1,19999,53,10000,0,0,40,9999,0.100000,0,0,0.000000,3,0.000000,0.000000,0.540758,0,0,0,0,0,0,0
1,19999,54,10000,0,0,40,9999,0.100000,0,0,0.000000,3,0.000000,0.000000,23.543877,0,0,0,0,0,0,0
1,19999,55,10000,1,0,40,9999,0.100000,0,0,0.000000,3,0.000000,0.000000,0.256141,0,0,0,0,0,0,0
1,19999,56,10000,20,0,49,9999,0.100000,0,0,0.000000,3,1.000000,0.000000,1.622213,0,0,0,0,0,0,0
1,19999,57,10000,20,0,40,9999,0.100000,0,0,0.000000,3,0.000000,0.000000,0.139404,0,0,0,0,0,0,0
1,19999,58,10000,83,0,40,9999,0.100000,0,0,0.000000,3,0.000000,0.000000,0.143141,0,0,0,0,0,0,0
1,19999,59,0,59,0,49,19999,0.100000,0,0,0.000000,3,8.000000,0.000000,11.225630,0,0,0,0,0,0,0
1,19999,60,10000,20,0,40,9999,0.100000,0,0,0.000000,3,0.000000,0.000000,2.460554,0,0,0,0,0,0,0
1,19999,61,10000,20,0,40,9999,0.100000,0,0,0.000000,3,0.000000,0.000000,0.817691,0,0,0,0,0,0,0
1,19999,62,10000,1,0,49,9999,0.100000,0,0,0.000000,3,1.000000,0.000000,6.265348,0,0,0,0,0,0,0
1,19999,63,10000,1,0,49,9999,0.100000,0,0,0.000000,2,1.000000,0.000000,5.040427,0,0,0,0,0,0,0
1,19999,64,10000,8,0,9,9999,0.100000,0,0,34.210526,3,10.000000,0.000000,16.323350,0,0,0,0,1,0,0
1,19999,65,10000,0,0,49,9999,0.100000,0,0,0.000000,3,4.000000,0.000000,14.885702,0,0,0,0,0,0,0
1,19999,66,10000,1,0,40,9999,0.100000,0,0,0.000000,3,0.000000,0.000000,0.901782,0,0,0,0,0,0,0
1,19999,67,0,67,0,40,19999,0.100000,0,0,0.000000,3,0.000000,0.000000,7.079058,0,0,0,0,0,0,0
1,19999,68,10000,0,0,40,9999,0.100000,0,0,0.000000,3,0.000000,0.000000,5.489830,0,0,0,0,0,0,0
1,19999,69,10000,83,0,40,9999,0.100000,0,0,0.000000,3,0.000000,0.000000,3.452310,0,0,0,0,0,0,0
1,19999,70,10000,1,0,0,9999,0.100000,0,0,0.000000,3,0.000000,0.000000,5.004467,0,0,0,1,0,0,0
1,19999,71,10000,83,0,40,9999,0.100000,0,0,0.000000,3,0.000000,0.000000,0.488159,0,0,0,0,0,0,0
1,19999,72,10000,72,0,40,9999,0.100000,0,0,0.000000,3,0.000000,0.000000,0.979550,0,0,0,0,0,0,0
1,19999,73,10000,83,0,49,9999,0.100000,0,0,0.000000,3,2.000000,0.000000,7.748794,0,0,0,0,0,0,0
1,19999,74,10000,1,0,49,9999,0.100000,0,0,0.000000,3,2.000000,0.000000,3.131404,0,0,0,0,0,0,0
1,19999,75,10000,8,0,49,9999,0.100000,0,0,0.000000,3,1.000000,0.000000,3.324702,0,0,0,0,0,0,0
1,19999,76,10000,8,0,49,9999,0.100000,0,0,0.000000,3,1.000000,0.000000,11.343565,0,0,0,0,0,0,0
1,19999,77,10000,0,0,49,9999,0.100000,0,0,0.000000,3,1.000000,0.000000,14.740573,0,0,0,0,0,0,0
1,19999,78,10000,20,0,40,9999,0.100000,0,0,0.000000,3,0.000000,0.000000,0.241881,0,0,0,0,0,0,0
1,19999,79,10000,1,0,49,9999,0.100000,0,0,0.000000,3,1.000000,0.000000,3.345354,0,0,0,0,0,0,0
1,19999,80,10000,8,0,99,9999,0.100000,0,0,34.210526,3,3.000000,0.000000,11.599909,0,0,1,0,0,0,0
1,19999,81,10000,20,0,49,9999,0.100000,0,0,0.000000,3,3.000000,0.000000,12.778622,0,0,0,0,0,0,0
1,19999,82,10000,20,0,40,9999,0.100000,0,0,0.000000,3,0.000000,0.000000,0.207013,0,0,0,0,0,0,0
1,19999,83,10000,83,0,40,9999,0.100000,0,0,0.000000,3,0.000000,0.000000,1.171542,0,0,0,0,0,0,0
1,19999,84,10000,20,0,49,9999,0.100000,0,0,0.000000,3,4.000000,0.000000,15.302165,0,0,0,0,0,0,0
1,19999,85,10000,8,0,49,9999,0.100000,0,0,0.000000,3,4.000000,0.000000,12.422621,0,0,0,0,0,0,0
1,19999,86,10000,8,0,40,9999,0.100000,0,0,0.000000,3,0.000000,0.000000,0.977491,0,0,0,0,0,0,0
1,19999,87,10000,20,0,40,9999,0.100000,0,0,0.000000,3,0.000000,0.000000,0.101661,0,0,0,0,0,0,0
1,19999,88,10000,0,0,49,9999,0.100000,0,0,0.000000,3,3.000000,0.000000,3.495074,0,0,0,0,0,0,0
1,19999,89,10000,8,0,40,9999,0.100000,0,0,0.000000,3,0.000000,0.000000,6.346380,0,0,0,0,0,0,0
1,19999,90,10000,0,0,49,9999,0.100000,0,0,0.000000,3,1.000000,0.000000,2.043135,0,0,0,0,0,0,0
1,19999,91,10000,20,0,40,9999,0.100000,0,0,0.000000,3,0.000000,0.000000,9.977754,0,0,0,0,0,0,0
1,19999,92,10000,0,0,40,9999,0.100000,0,0,0.000000,3,0.000000,0.000000,0.120066,0,0,0,0,0,0,0
1,19999,93,10000,1,0,40,9999,0.100000,0,0,0.000000,3,0.000000,0.000000,13.664100,0,0,0,0,0,0,0
1,19999,94,10000,0,0,99,9999,0.100000,0,0,34.210526,3,6.000000,0.000000,21.495482,0,0,1,0,0,0,0
1,19999,95,10000,0,0,49,9999,0.100000,0,0,0.000000,3,1.000000,0.000000,1.630839,0,0,0,0,0,0,0
1,19999,96,10000,20,0,49,9999,0.100000,0,0,0.000000,3,3.000000,0.000000,19.429570,0,0,0,0,0,0,0
1,19999,97,10000,1,0,40,9999,0.100000,0,0,0.000000,2,0.000000,0.000000,0.681541,0,0,0,0,0,0,0
1,19999,98,10000,0,0,49,9999,0.135000,0,0,0.000000,3,2.000000,0.000000,7.017933,0,0,0,0,0,0,0
1,19999,99,10000,1,0,40,9999,0.100000,0,0,0.000000,3,0.000000,0.000000,0.801968,0,0,0,0,0,0,0
2,29999,0,20000,0,10000,99,9999,0.100000,0,0,34.210526,5,9.000000,0.000000,22.120511,0,0,1,0,0,0,0
2,29999,1,20000,9,10000,40,9999,0.100000,0,0,0.000000,5,0.000000,0.000000,6.928887,0,0,0,0,0,0,0
2,29999,2,20000,83,0,49,9999,0.100000,0,0,0.000000,5,1.000000,0.000000,17.445810,0,0,0,0,0,0,0
2,29999,3,20000,83,0,49,9999,0.100000,0,0,0.000000,5,2.000000,0.000000,8.934761,0,0,0,0,0,0,0
2,29999,4,20000,0,10000,49,9999,0.100000,0,0,0.000000,5,1.000000,0.000000,5.658106,0,0,0,0,0,0,0
2,29999,5,20000,3,10000,49,9999,0.100000,0,0,0.000000,5,1.000000,0.000000,4.090517,0,0,0,0,0,0,0
2,29999,6,20000,72,10000,40,9999,0.100000,0,0,0.000000,5,0.000000,0.000000,0.009278,0,0,0,0,0,0,0
2,29999,7,20000,0,0,49,9999,0.100000,0,0,0.000000,6,1.000000,0.000000,8.120307,0,0,0,0,0,0,0
2,29999,8,20000,23,10000,40,9999,0.100000,0,0,0.000000,6,0.000000,0.000000,1.674259,0,0,0,0,0,0,0
2,29999,9,20000,83,0,40,9999,0.100000,0,0,0.000000,4,0.000000,0.000000,0.601418,0,0,0,0,0,0,0
2,29999,10,20000,72,10000,49,9999,0.100000,0,0,0.000000,5,1.000000,0.000000,10.741286,0,0,0,0,0,0,0
2,29999,11,20000,0,10000,40,9999,0.100000,0,0,0.000000,6,0.000000,0.000000,0.856820,0,0,0,0,0,0,0
2,29999,12,20000,0,0,49,9999,0.100000,0,0,0.000000,5,2.000000,0.000000,4.127438,0,0,0,0,0,0,0
2,29999,13,20000,0,10000,40,9999,0.100000,0,0,0.000000,5,0.000000,0.000000,3.762864,0,0,0,0,0,0,0
2,29999,14,20000,0,10000,49,9999,0.100000,0,0,0.000000,5,1.000000,0.000000,13.881247,0,0,0,0,0,0,0
2,29999,15,20000,0,10000,40,9999,0.100000,0,0,0.000000,5,0.000000,0.000000,0.131628,0,0,0,0,0,0,0
2,29999,16,20000,0,0,40,9999,0.100000,0,0,0.000000,6,0.000000,0.000000,4.533337,0,0,0,0,0,0,0
2,29999,17,20000,3,10000,40,9999,0.100000,0,0,0.000000,5,0.000000,0.000000,1.156016,0,0,0,0,0,0,0
2,29999,18,20000,83,0,40,9999,0.100000,0,0,0.000000,6,0.000000,0.000000,7.346978,0,0,0,0,0,0,0
2,29999,19,20000,83,0,49,9999,0.100000,0,0,0.000000,6,3.000000,0.000000,12.610686,0,0,0,0,0,0,0
2,29999,20,20000,0,0,40,9999,0.100000,0,0,0.000000,6,0.000000,0.000000,0.402130,0,0,0,0,0,0,0
2,29999,21,20000,72,10000,49,9999,0.100000,0,0,0.000000,5,2.000000,0.000000,7.111178,0,0,0,0,0,0,0
2,29999,22,20000,20,0,49,9999,0.100000,0,0,0.000000,5,1.000000,0.000000,10.229071,0,0,0,0,0,0,0
2,29999,23,20000,3,10000,40,9999,0.100000,0,0,0.000000,5,0.000000,0.000000,0.109793,0,0,0,0,0,0,0
2,29999,24,20000,3,10000,40,9999,0.100000,0,0,0.000000,5,0.000000,0.000000,0.099902,0,0,0,0,0,0,0
2,29999,25,20000,20,0,40,9999,0.100000,0,0,0.000000,5,0.000000,0.000000,7.958158,0,0,0,0,0,0,0
2,29999,26,20000,0,10000,49,9999,0.100000,0,0,0.000000,5,1.000000,0.000000,7.444088,0,0,0,0,0,0,0
2,29999,27,20000,83,10000,49,9999,0.100000,0,0,0.000000,6,1.000000,0.000000,10.416640,0,0,0,0,0,0,0
2,29999,28,20000,83,0,40,9999,0.100000,0,0,0.000000,6,0.000000,0.000000,0.648328,0,0,0,0,0,0,0
2,29999,29,20000,83,10000,49,9999,0.100000,0,0,0.000000,6,5.000000,0.000000,13.639334,0,0,0,0,0,0,0
2,29999,30,20000,0,0,49,9999,0.100000,0,0,0.000000,6,3.000000,0.000000,7.291661,0,0,0,0,0,0,0
2,29999,31,20000,3,10000,40,9999,0.100000,0,0,0.000000,5,0.000000,0.000000,0.155366,0,0,0,0,0,0,0
2,29999,32,20000,0,0,40,9999,0.100000,0,0,0.000000,6,0.000000,0.000000,2.540210,0,0,0,0,0,0,0
2,29999,33,20000,20,0,40,9999,0.100000,0,0,0.000000,5,0.000000,0.000000,3.399870,0,0,0,0,0,0,0
2,29999,34,20000,0,10000,49,9999,0.100000,0,0,0.000000,6,2.000000,0.000000,3.288941,0,0,0,0,0,0,0
2,29999,35,20000,20,0,40,9999,0.100000,0,0,0.000000,5,0.000000,0.000000,10.293760,0,0,0,0,0,0,0
2,29999,36,20000,72,10000,49,9999,0.100000,0,0,0.000000,5,3.000000,0.000000,9.883124,0,0,0,0,0,0,0
2,29999,37,20000,20,0,40,9999,0.100000,0,0,0.000000,6,0.000000,0.000000,7.347557,0,0,0,0,0,0,0
2,29999,38,20000,83,0,99,9999,0.100000,0,0,0.000000,6,1.000000,0.000000,7.583119,0,0,1,0,0,0,0
2,29999,39,20000,0,10000,40,9999,0.100000,0,0,0.000000,5,0.000000,0.000000,0.046159,0,0,0,0,0,0,0
2,29999,40,20000,0,0,40,9999,0.100000,0,0,0.000000,6,0.000000,0.000000,0.126429,0,0,0,0,0,0,0
2,29999,41,20000,3,10000,49,9999,0.100000,0,0,0.000000,5,3.000000,0.000000,11.787067,0,0,0,0,0,0,0
2,29999,42,20000,83,10000,49,9999,0.100000,0,0,0.000000,6,2.000000,0.000000,4.998897,0,0,0,0,0,0,0
2,29999,43,20000,0,10000,40,9999,0.100000,0,0,0.000000,6,0.000000,0.000000,11.997703,0,0,0,0,0,0,0
2,29999,44,20000,3,10000,49,9999,0.100000,0,0,0.000000,5,3.000000,0.000000,5.584277,0,0,0,0,0,0,0
2,29999,45,20000,83,0,40,9999,0.100000,0,0,0.000000,6,0.000000,0.000000,6.392686,0,0,0,0,0,0,0
2,29999,46,20000,0,10000,49,9999,0.100000,0,0,0.000000,5,1.000000,0.000000,9.377775,0,0,0,0,0,0,0
2,29999,47,20000,0,0,40,9999,0.100000,0,0,0.000000,5,0.000000,0.000000,4.217378,0,0,0,0,0,0,0
2,29999,48,20000,0,10000,40,9999,0.100000,0,0,0.000000,6,0.000000,0.000000,0.711704,0,0,0,0,0,0,0
2,29999,49,20000,20,0,49,9999,0.100000,0,0,0.000000,6,2.000000,0.000000,2.533960,0,0,0,0,0,0,0
2,29999,50,20000,0,0,40,9999,0.100000,0,0,0.000000,6,0.000000,0.000000,0.937475,0,0,0,0,0,0,0
2,29999,51,20000,83,10000,40,9999,0.100000,0,0,0.000000,6,0.000000,0.000000,4.202864,0,0,0,0,0,0,0
2,29999,52,20000,83,0,40,9999,0.100000,0,0,0.000000,5,0.000000,0.000000,0.741942,0,0,0,0,0,0,0
2,29999,53,20000,72,10000,40,9999,0.100000,0,0,0.000000,5,0.000000,0.000000,0.540997,0,0,0,0,0,0,0
2,29999,54,20000,23,10000,49,9999,0.100000,0,0,0.000000,6,1.000000,0.000000,23.617728,0,0,0,0,0,0,0
2,29999,55,20000,83,10000,40,9999,0.100000,0,0,0.000000,6,0.000000,0.000000,0.228565,0,0,0,0,0,0,0
2,29999,56,20000,0,10000,40,9999,0.100000,0,0,0.000000,6,0.000000,0.000000,0.469632,0,0,0,0,0,0,0
2,29999,57,20000,0,0,40,9999,0.100000,0,0,0.000000,6,0.000000,0.000000,0.130844,0,0,0,0,0,0,0
2,29999,58,20000,0,10000,40,9999,0.100000,0,0,0.000000,6,0.000000,0.000000,0.142402,0,0,0,0,0,0,0
2,29999,59,20000,20,10000,90,9999,0.100000,0,0,0.000000,6,0.000000,0.000000,7.613473,0,0,1,0,0,0,0
2,29999,60,20000,20,0,40,9999,0.100000,0,0,0.000000,5,0.000000,0.000000,2.282802,0,0,0,0,0,0,0
2,29999,61,20000,0,10000,40,9999,0.100000,0,0,0.000000,6,0.000000,0.000000,1.111269,0,0,0,0,0,0,0
2,29999,62,20000,83,10000,49,9999,0.100000,0,0,0.000000,6,2.000000,0.000000,8.533814,0,0,0,0,0,0,0
2,29999,63,20000,3,10000,99,9999,0.100000,0,0,34.210526,5,10.000000,0.000000,17.268590,0,0,1,0,0,0,0
2,29999,64,20000,83,0,49,9999,0.135000,0,0,0.000000,5,4.000000,0.000000,12.563227,0,0,0,0,0,0,0
2,29999,65,20000,83,0,49,9999,0.100000,0,0,0.000000,6,2.000000,0.000000,7.329187,0,0,0,0,0,0,0
2,29999,66,20000,83,10000,40,9999,0.100000,0,0,0.000000,6,0.000000,0.000000,0.587855,0,0,0,0,0,0,0
2,29999,67,20000,83,0,49,9999,0.100000,0,0,0.000000,6,1.000000,0.000000,2.657010,0,0,0,0,0,0,0
2,29999,68,20000,0,0,40,9999,0.100000,0,0,0.000000,5,0.000000,0.000000,4.908894,0,0,0,0,0,0,0
2,29999,69,20000,83,0,40,9999,0.100000,0,0,0.000000,6,0.000000,0.000000,1.366705,0,0,0,0,0,0,0
2,29999,70,20000,20,0,40,9999,0.100000,0,0,0.000000,6,0.000000,0.000000,8.745459,0,0,0,0,0,0,0
2,29999,71,20000,20,0,40,9999,0.100000,0,0,0.000000,6,0.000000,0.000000,1.088137,0,0,0,0,0,0,0
2,29999,72,20000,3,10000,40,9999,0.100000,0,0,0.000000,5,0.000000,0.000000,0.394482,0,0,0,0,0,0,0
2,29999,73,20000,83,0,40,9999,0.100000,0,0,0.000000,6,0.000000,0.000000,6.228520,0,0,0,0,0,0,0
2,29999,74,20000,20,0,40,9999,0.100000,0,0,0.000000,5,0.000000,0.000000,0.169857,0,0,0,0,0,0,0
2,29999,75,20000,0,10000,40,9999,0.100000,0,0,0.000000,6,0.000000,0.000000,0.485800,0,0,0,0,0,0,0
2,29999,76,20000,20,0,40,9999,0.100000,0,0,0.000000,6,0.000000,0.000000,17.921020,0,0,0,0,0,0,0
2,29999,77,20000,83,10000,40,9999,0.100000,0,0,0.000000,6,0.000000,0.000000,6.685905,0,0,0,0,0,0,0
2,29999,78,20000,23,10000,49,9999,0.100000,0,0,0.000000,6,2.000000,0.000000,6.767571,0,0,0,0,0,0,0
2,29999,79,20000,0,10000,40,9999,0.100000,0,0,0.000000,6,0.000000,0.000000,0.216712,0,0,0,0,0,0,0
2,29999,80,20000,0,10000,40,9999,0.100000,0,0,0.000000,5,0.000000,0.000000,6.882590,0,0,0,0,0,0,0
2,29999,81,20000,20,0,40,9999,0.100000,0,0,0.000000,6,0.000000,0.000000,9.564514,0,0,0,0,0,0,0
2,29999,82,20000,0,0,40,9999,0.100000,0,0,0.000000,6,0.000000,0.000000,0.232026,0,0,0,0,0,0,0
2,29999,83,20000,20,0,40,9999,0.100000,0,0,0.000000,6,0.000000,0.000000,0.558478,0,0,0,0,0,0,0
2,29999,84,20000,83,0,49,9999,0.100000,0,0,0.000000,6,4.000000,0.000000,10.882277,0,0,0,0,0,0,0
2,29999,85,20000,83,0,49,9999,0.100000,0,0,0.000000,5,4.000000,0.000000,11.944416,0,0,0,0,0,0,0
2,29999,86,20000,0,10000,40,9999,0.100000,0,0,0.000000,6,0.000000,0.000000,0.984156,0,0,0,0,0,0,0
2,29999,87,20000,83,0,40,9999,0.100000,0,0,0.000000,6,0.000000,0.000000,0.100425,0,0,0,0,0,0,0
2,29999,88,20000,20,0,49,9999,0.100000,0,0,0.000000,6,2.000000,0.000000,2.781121,0,0,0,0,0,0,0
2,29999,89,20000,20,0,40,9999,0.100000,0,0,0.000000,5,0.000000,0.000000,7.164599,0,0,0,0,0,0,0
2,29999,90,20000,0,0,40,9999,0.100000,0,0,0.000000,6,0.000000,0.000000,1.772700,0,0,0,0,0,0,0
2,29999,91,20000,23,10000,49,9999,0.100000,0,0,0.000000,6,1.000000,0.000000,10.022773,0,0,0,0,0,0,0
2,29999,92,20000,20,0,40,9999,0.100000,0,0,0.000000,6,0.000000,0.000000,0.144930,0,0,0,0,0,0,0
2,29999,93,20000,83,0,49,9999,0.100000,0,0,0.000000,6,7.000000,0.000000,17.628223,0,0,0,0,0,0,0
2,29999,94,20000,0,10000,49,9999,0.100000,0,0,0.000000,6,3.000000,0.000000,7.747196,0,0,0,0,0,0,0
2,29999,95,20000,83,0,40,9999,0.100000,0,0,0.000000,6,0.000000,0.000000,1.083971,0,0,0,0,0,0,0
2,29999,96,20000,83,10000,49,9999,0.100000,0,0,0.000000,6,1.000000,0.000000,7.457161,0,0,0,0,0,0,0
2,29999,97,20000,20,0,49,9999,0.100000,0,0,0.000000,5,1.000000,0.000000,3.166472,0,0,0,0,0,0,0
2,29999,98,20000,83,10000,49,9999,0.100000,0,0,0.000000,6,2.000000,0.000000,24.453065,0,0,0,0,0,0,0
2,29999,99,20000,0,0,99,9999,0.100000,0,0,34.210526,6,3.000000,0.000000,13.400282,0,0,1,0,0,0,0
3,39999,0,30000,20,0,49,9999,0.100000,0,0,0.000000,6,4.000000,0.000000,11.349202,0,0,0,0,0,0,0
3,39999,1,30000,20,0,49,9999,0.100000,0,0,0.000000,6,1.000000,0.000000,8.281429,0,0,0,0,0,0,0
3,39999,2,30000,20,10000,40,9999,0.100000,0,0,0.000000,6,0.000000,0.000000,0.846961,0,0,0,0,0,0,0
3,39999,3,30000,0,10000,49,9999,0.100000,0,0,0.000000,6,2.000000,0.000000,12.815761,0,0,0,0,0,0,0
3,39999,4,30000,20,0,40,9999,0.100000,0,0,0.000000,6,0.000000,0.000000,1.822916,0,0,0,0,0,0,0
3,39999,5,30000,20,0,49,9999,0.100000,0,0,0.000000,6,1.000000,0.000000,10.053144,0,0,0,0,0,0,0
3,39999,6,30000,83,10000,40,9999,0.100000,0,0,0.000000,6,0.000000,0.000000,0.079547,0,0,0,0,0,0,0
3,39999,7,30000,20,0,49,9999,0.100000,0,0,0.000000,6,1.000000,0.000000,10.750437,0,0,0,0,0,0,0
3,39999,8,30000,0,10000,40,9999,0.100000,0,0,0.000000,6,0.000000,0.000000,0.539510,0,0,0,0,0,0,0
3,39999,9,30000,83,10000,40,9999,0.100000,0,0,0.000000,6,0.000000,0.000000,3.763307,0,0,0,0,0,0,0
3,39999,10,30000,20,10000,49,9999,0.100000,0,0,0.000000,6,1.000000,0.000000,11.347879,0,0,0,0,0,0,0
3,39999,11,30000,20,0,40,9999,0.100000,0,0,0.000000,6,0.000000,0.000000,0.805161,0,0,0,0,0,0,0
3,39999,12,30000,20,0,40,9999,0.100000,0,0,0.000000,6,0.000000,0.000000,4.445626,0,0,0,0,0,0,0
3,39999,13,30000,83,0,49,9999,0.100000,0,0,0.000000,6,2.000000,0.000000,8.286053,0,0,0,0,0,0,0
3,39999,14,30000,83,0,49,9999,0.100000,0,0,0.000000,6,3.000000,0.000000,9.796099,0,0,0,0,0,0,0
3,39999,15,30000,20,0,40,9999,0.100000,0,0,0.000000,6,0.000000,0.000000,0.152380,0,0,0,0,0,0,0
3,39999,16,30000,0,0,40,9999,0.100000,0,0,0.000000,6,0.000000,0.000000,1.011836,0,0,0,0,0,0,0
3,39999,17,30000,83,0,49,9999,0.100000,0,0,0.000000,6,1.000000,0.000000,4.574709,0,0,0,0,0,0,0
3,39999,18,30000,83,10000,99,9999,0.100000,0,0,0.000000,6,3.000000,0.000000,5.131316,0,0,1,0,0,0,0
3,39999,19,30000,20,0,40,9999,0.100000,0,0,0.000000,6,0.000000,0.000000,6.947052,0,0,0,0,0,0,0
3,39999,20,30000,83,0,40,9999,0.100000,0,0,0.000000,6,0.000000,0.000000,0.952661,0,0,0,0,0,0,0
3,39999,21,30000,0,10000,49,9999,0.100000,0,0,0.000000,6,2.000000,0.000000,7.320635,0,0,0,0,0,0,0
3,39999,22,30000,83,10000,49,9999,0.100000,0,0,0.000000,6,2.000000,0.000000,9.131118,0,0,0,0,0,0,0
3,39999,23,30000,20,0,40,9999,0.100000,0,0,0.000000,6,0.000000,0.000000,0.106934,0,0,0,0,0,0,0
3,39999,24,30000,20,0,40,9999,0.100000,0,0,0.000000,6,0.000000,0.000000,0.108026,0,0,0,0,0,0,0
3,39999,25,30000,0,0,40,9999,0.100000,0,0,0.000000,6,0.000000,0.000000,6.201999,0,0,0,0,0,0,0
3,39999,26,30000,0,0,40,9999,0.100000,0,0,0.000000,6,0.000000,0.000000,4.770522,0,0,0,0,0,0,0
3,39999,27,30000,20,0,40,9999,0.100000,0,0,0.000000,6,0.000000,0.000000,9.594660,0,0,0,0,0,0,0
3,39999,28,30000,0,10000,40,9999,0.100000,0,0,0.000000,6,0.000000,0.000000,0.415897,0,0,0,0,0,0,0
3,39999,29,30000,20,10000,40,9999,0.100000,0,0,0.000000,6,0.000000,0.000000,3.491930,0,0,0,0,0,0,0
3,39999,30,30000,83,10000,49,9999,0.100000,0,0,0.000000,6,1.000000,0.000000,13.311274,0,0,0,0,0,0,0
3,39999,31,30000,0,10000,40,9999,0.100000,0,0,0.000000,6,0.000000,0.000000,0.170882,0,0,0,0,0,0,0
3,39999,32,30000,20,0,40,9999,0.100000,0,0,0.000000,6,0.000000,0.000000,0.175917,0,0,0,0,0,0,0
3,39999,33,30000,20,0,49,9999,0.100000,0,0,0.000000,6,1.000000,0.000000,11.082559,0,0,0,0,0,0,0
3,39999,34,30000,20,0,40,9999,0.100000,0,0,0.000000,6,0.000000,0.000000,2.628837,0,0,0,0,0,0,0
3,39999,35,30000,0,0,40,9999,0.100000,0,0,0.000000,6,0.000000,0.000000,9.544579,0,0,0,0,0,0,0
3,39999,36,30000,0,0,49,9999,0.100000,0,0,0.000000,6,1.000000,0.000000,4.992775,0,0,0,0,0,0,0
3,39999,37,30000,83,0,40,9999,0.100000,0,0,0.000000,6,0.000000,0.000000,5.022384,0,0,0,0,0,0,0
3,39999,38,30000,0,0,49,9999,0.100000,0,0,0.000000,6,1.000000,0.000000,5.103691,0,0,0,0,0,0,0
3,39999,39,30000,83,10000,40,9999,0.100000,0,0,0.000000,6,0.000000,0.000000,0.009667,0,0,0,0,0,0,0
3,39999,40,30000,20,0,40,9999,0.100000,0,0,0.000000,6,0.000000,0.000000,0.120924,0,0,0,0,0,0,0
3,39999,41,30000,20,0,49,9999,0.100000,0,0,0.000000,6,5.000000,0.000000,7.971227,0,0,0,0,0,0,0
3,39999,42,30000,83,10000,49,9999,0.100000,0,0,0.000000,6,1.000000,0.000000,1.520976,0,0,0,0,0,0,0
3,39999,43,30000,0,0,40,9999,0.100000,0,0,0.000000,6,0.000000,0.000000,7.958825,0,0,0,0,0,0,0
3,39999,44,30000,0,0,40,9999,0.100000,0,0,0.000000,6,0.000000,0.000000,0.426439,0,0,0,0,0,0,0
3,39999,45,30000,20,0,40,9999,0.100000,0,0,0.000000,6,0.000000,0.000000,7.913220,0,0,0,0,0,0,0
3,39999,46,30000,0,0,40,9999,0.100000,0,0,0.000000,6,0.000000,0.000000,7.725872,0,0,0,0,0,0,0
3,39999,47,30000,83,10000,49,9999,0.100000,0,0,0.000000,6,3.000000,0.000000,12.330443,0,0,0,0,0,0,0
3,39999,48,30000,20,10000,40,9999,0.100000,0,0,0.000000,6,0.000000,0.000000,1.780939,0,0,0,0,0,0,0
3,39999,49,30000,20,10000,40,9999,0.100000,0,0,0.000000,6,0.000000,0.000000,1.270464,0,0,0,0,0,0,0
3,39999,50,30000,0,10000,40,9999,0.100000,0,0,0.000000,6,0.000000,0.000000,1.931710,0,0,0,0,0,0,0
3,39999,51,30000,83,10000,49,9999,0.100000,0,0,0.000000,6,7.000000,0.000000,14.734306,0,0,0,0,0,0,0
3,39999,52,30000,0,0,40,9999,0.100000,0,0,0.000000,6,0.000000,0.000000,0.574555,0,0,0,0,0,0,0
3,39999,53,30000,0,0,40,9999,0.100000,0,0,0.000000,6,0.000000,0.000000,0.515218,0,0,0,0,0,0,0
3,39999,54,30000,20,10000,40,9999,0.100000,0,0,0.000000,6,0.000000,0.000000,6.256528,0,0,0,0,0,0,0
3,39999,55,30000,20,0,40,9999,0.100000,0,0,0.000000,6,0.000000,0.000000,0.231497,0,0,0,0,0,0,0
3,39999,56,30000,20,10000,40,9999,0.100000,0,0,0.000000,6,0.000000,0.000000,0.450122,0,0,0,0,0,0,0
3,39999,57,30000,20,10000,40,9999,0.100000,0,0,0.000000,6,0.000000,0.000000,0.126588,0,0,0,0,0,0,0
3,39999,58,30000,20,10000,40,9999,0.100000,0,0,0.000000,6,0.000000,0.000000,0.131966,0,0,0,0,0,0,0
3,39999,59,30000,0,0,40,9999,0.100000,0,0,0.000000,6,0.000000,0.000000,5.793189,0,0,0,0,0,0,0
3,39999,60,30000,20,10000,49,9999,0.100000,0,0,0.000000,6,3.000000,0.000000,4.848768,0,0,0,0,0,0,0
3,39999,61,30000,20,0,40,9999,0.100000,0,0,0.000000,6,0.000000,0.000000,0.727901,0,0,0,0,0,0,0
3,39999,62,30000,0,10000,49,9999,0.100000,0,0,0.000000,6,1.000000,0.000000,3.870118,0,0,0,0,0,0,0
3,39999,63,30000,0,0,49,9999,0.100000,0,0,0.000000,6,3.000000,0.000000,10.682764,0,0,0,0,0,0,0
3,39999,64,30000,20,0,49,9999,0.100000,0,0,0.000000,6,6.000000,0.000000,13.150195,0,0,0,0,0,0,0
3,39999,65,30000,83,10000,40,9999,0.100000,0,0,0.000000,6,0.000000,0.000000,4.824666,0,0,0,0,0,0,0
3,39999,66,30000,20,0,40,9999,0.100000,0,0,0.000000,6,0.000000,0.000000,0.599692,0,0,0,0,0,0,0
3,39999,67,30000,20,10000,40,9999,0.100000,0,0,0.000000,6,0.000000,0.000000,0.712295,0,0,0,0,0,0,0
3,39999,68,30000,20,0,40,9999,0.100000,0,0,0.000000,6,0.000000,0.000000,3.736475,0,0,0,0,0,0,0
3,39999,69,30000,83,10000,40,9999,0.100000,0,0,0.000000,6,0.000000,0.000000,1.386147,0,0,0,0,0,0,0
3,39999,70,30000,20,10000,40,9999,0.100000,0,0,0.000000,6,0.000000,0.000000,8.000240,0,0,0,0,0,0,0
3,39999,71,30000,0,10000,40,9999,0.100000,0,0,0.000000,6,0.000000,0.000000,0.320874,0,0,0,0,0,0,0
3,39999,72,30000,83,10000,40,9999,0.100000,0,0,0.000000,6,0.000000,0.000000,0.171579,0,0,0,0,0,0,0
3,39999,73,30000,83,0,40,9999,0.100000,0,0,0.000000,6,0.000000,0.000000,6.197206,0,0,0,0,0,0,0
3,39999,74,30000,0,10000,40,9999,0.100000,0,0,0.000000,6,0.000000,0.000000,0.184505,0,0,0,0,0,0,0
3,39999,75,30000,0,0,40,9999,0.135000,0,0,0.000000,6,0.000000,0.000000,0.198418,0,0,0,0,0,0,0
3,39999,76,30000,20,10000,49,9999,0.100000,0,0,0.000000,6,1.000000,0.000000,15.831694,0,0,0,0,0,0,0
3,39999,77,30000,0,0,40,9999,0.100000,0,0,0.000000,6,0.000000,0.000000,1.777024,0,0,0,0,0,0,0
3,39999,78,30000,83,10000,49,9999,0.100000,0,0,0.000000,6,1.000000,0.000000,2.300284,0,0,0,0,0,0,0
3,39999,79,30000,20,0,40,9999,0.100000,0,0,0.000000,6,0.000000,0.000000,0.158117,0,0,0,0,0,0,0
3,39999,80,30000,20,0,49,9999,0.100000,0,0,0.000000,6,1.000000,0.000000,9.556321,0,0,0,0,0,0,0
3,39999,81,30000,20,0,49,9999,0.100000,0,0,0.000000,6,6.000000,0.000000,17.065518,0,0,0,0,0,0,0
3,39999,82,30000,20,10000,40,9999,0.100000,0,0,0.000000,6,0.000000,0.000000,0.214441,0,0,0,0,0,0,0
3,39999,83,30000,0,0,40,9999,0.100000,0,0,0.000000,6,0.000000,0.000000,0.559624,0,0,0,0,0,0,0
3,39999,84,30000,0,10000,40,9999,0.100000,0,0,0.000000,6,0.000000,0.000000,3.325201,0,0,0,0,0,0,0
3,39999,85,30000,20,10000,40,9999,0.100000,0,0,0.000000,6,0.000000,0.000000,1.245239,0,0,0,0,0,0,0
3,39999,86,30000,20,0,40,9999,0.100000,0,0,0.000000,6,0.000000,0.000000,0.398564,0,0,0,0,0,0,0
3,39999,87,30000,83,0,40,9999,0.100000,0,0,0.000000,6,0.000000,0.000000,0.094197,0,0,0,0,0,0,0
3,39999,88,30000,0,0,40,9999,0.100000,0,0,0.000000,6,0.000000,0.000000,3.893334,0,0,0,0,0,0,0
3,39999,89,30000,20,10000,49,9999,0.100000,0,0,0.000000,6,1.000000,0.000000,5.353597,0,0,0,0,0,0,0
3,39999,90,30000,83,0,49,9999,0.100000,0,0,0.000000,6,1.000000,0.000000,7.238957,0,0,0,0,0,0,0
3,39999,91,30000,20,0,49,9999,0.100000,0,0,0.000000,6,4.000000,0.000000,9.424962,0,0,0,0,0,0,0
3,39999,92,30000,0,10000,40,9999,0.100000,0,0,0.000000,6,0.000000,0.000000,0.116340,0,0,0,0,0,0,0
3,39999,93,30000,83,10000,40,9999,0.100000,0,0,0.000000,6,0.000000,0.000000,6.934224,0,0,0,0,0,0,0
3,39999,94,30000,0,0,49,9999,0.100000,0,0,0.000000,6,1.000000,0.000000,8.605322,0,0,0,0,0,0,0
3,39999,95,30000,83,10000,40,9999,0.100000,0,0,0.000000,6,0.000000,0.000000,0.952153,0,0,0,0,0,0,0
3,39999,96,30000,83,0,40,9999,0.100000,0,0,0.000000,6,0.000000,0.000000,6.161276,0,0,0,0,0,0,0
3,39999,97,30000,0,10000,40,9999,0.100000,0,0,0.000000,6,0.000000,0.000000,3.071076,0,0,0,0,0,0,0
3,39999,98,30000,20,0,40,9999,0.100000,0,0,0.000000,6,0.000000,0.000000,23.878362,0,0,0,0,0,0,0
3,39999,99,30000,0,0,49,9999,0.100000,0,0,0.000000,6,1.000000,0.000000,8.441074,0,0,0,0,0,0,0
4,49999,0,40000,83,0,49,9999,0.100000,0,0,0.000000,6,8.000000,0.000000,11.165336,0,0,0,0,0,0,0
4,49999,1,40000,83,0,49,9999,0.100000,0,0,0.000000,6,2.000000,0.000000,6.882366,0,0,0,0,0,0,0
4,49999,2,40000,0,0,40,9999,0.100000,0,0,0.000000,6,0.000000,0.000000,0.579342,0,0,0,0,0,0,0
4,49999,3,40000,83,10000,40,9999,0.100000,0,0,0.000000,6,0.000000,0.000000,9.092706,0,0,0,0,0,0,0
4,49999,4,40000,0,0,40,9999,0.100000,0,0,0.000000,6,0.000000,0.000000,0.810625,0,0,0,0,0,0,0
4,49999,5,40000,83,0,40,9999,0.100000,0,0,0.000000,6,0.000000,0.000000,5.632248,0,0,0,0,0,0,0
4,49999,6,40000,83,0,40,9999,0.100000,0,0,0.000000,6,0.000000,0.000000,0.009081,0,0,0,0,0,0,0
4,49999,7,40000,20,0,49,9999,0.100000,0,0,0.000000,6,2.000000,0.000000,9.716716,0,0,0,0,0,0,0
4,49999,8,40000,20,0,40,9999,0.100000,0,0,0.000000,6,0.000000,0.000000,0.652782,0,0,0,0,0,0,0
4,49999,9,40000,0,10000,40,9999,0.100000,0,0,0.000000,6,0.000000,0.000000,0.855177,0,0,0,0,0,0,0
4,49999,10,40000,83,10000,40,9999,0.100000,0,0,0.000000,6,0.000000,0.000000,7.291928,0,0,0,0,0,0,0
4,49999,11,40000,20,0,40,9999,0.100000,0,0,0.000000,6,0.000000,0.000000,0.794500,0,0,0,0,0,0,0
4,49999,12,40000,83,10000,40,9999,0.100000,0,0,0.000000,6,0.000000,0.000000,3.710152,0,0,0,0,0,0,0
4,49999,13,40000,83,0,49,9999,0.100000,0,0,0.000000,6,1.000000,0.000000,5.867000,0,0,0,0,0,0,0
4,49999,14,40000,20,10000,40,9999,0.100000,0,0,0.000000,6,0.000000,0.000000,0.184768,0,0,0,0,0,0,0
4,49999,15,40000,83,10000,40,9999,0.100000,0,0,0.000000,6,0.000000,0.000000,0.170865,0,0,0,0,0,0,0
4,49999,16,40000,83,0,40,9999,0.100000,0,0,0.000000,6,0.000000,0.000000,0.978892,0,0,0,0,0,0,0
4,49999,17,40000,0,0,49,9999,0.100000,0,0,0.000000,6,2.000000,0.000000,13.962132,0,0,0,0,0,0,0
4,49999,18,40000,0,0,99,9999,0.100000,0,0,0.000000,6,1.000000,0.000000,7.067418,0,0,1,0,0,0,0
4,49999,19,40000,83,10000,49,9999,0.100000,0,0,0.000000,6,7.000000,0.000000,12.008895,0,0,0,0,0,0,0
4,49999,20,40000,0,0,49,9999,0.100000,0,0,0.000000,6,1.000000,0.000000,1.952902,0,0,0,0,0,0,0
4,49999,21,40000,83,10000,49,9999,0.100000,0,0,0.000000,6,5.000000,0.000000,9.612027,0,0,0,0,0,0,0
4,49999,22,40000,20,10000,40,9999,0.100000,0,0,0.000000,6,0.000000,0.000000,8.011635,0,0,0,0,0,0,0
4,49999,23,40000,78,30000,40,9999,0.100000,0,0,0.000000,6,0.000000,0.000000,0.109765,0,0,0,0,0,0,0
4,49999,24,40000,83,0,40,9999,0.100000,0,0,0.000000,6,0.000000,0.000000,0.108565,0,0,0,0,0,0,0
4,49999,25,40000,0,0,40,9999,0.100000,0,0,0.000000,6,0.000000,0.000000,7.704201,0,0,0,0,0,0,0
4,49999,26,40000,20,10000,40,9999,0.100000,0,0,0.000000,6,0.000000,0.000000,9.537635,0,0,0,0,0,0,0
4,49999,27,40000,20,10000,40,9999,0.100000,0,0,0.000000,6,0.000000,0.000000,8.226372,0,0,0,0,0,0,0
4,49999,28,40000,83,0,40,9999,0.100000,0,0,0.000000,6,0.000000,0.000000,0.717633,0,0,0,0,0,0,0
4,49999,29,40000,0,10000,40,9999,0.100000,0,0,0.000000,6,0.000000,0.000000,0.703830,0,0,0,0,0,0,0
4,49999,30,40000,20,0,40,9999,0.100000,0,0,0.000000,6,0.000000,0.000000,5.853493,0,0,0,0,0,0,0
4,49999,31,40000,20,10000,40,9999,0.100000,0,0,0.000000,6,0.000000,0.000000,0.176602,0,0,0,0,0,0,0
4,49999,32,40000,0,0,40,9999,0.100000,0,0,0.000000,6,0.000000,0.000000,0.200732,0,0,0,0,0,0,0
4,49999,33,40000,83,0,40,9999,0.100000,0,0,0.000000,6,0.000000,0.000000,5.147746,0,0,0,0,0,0,0
4,49999,34,40000,0,10000,49,9999,0.100000,0,0,0.000000,6,1.000000,0.000000,8.438970,0,0,0,0,0,0,0
4,49999,35,40000,0,10000,40,9999,0.100000,0,0,0.000000,6,0.000000,0.000000,10.723978,0,0,0,0,0,0,0
4,49999,36,40000,20,0,49,9999,0.100000,0,0,0.000000,6,1.000000,0.000000,2.620955,0,0,0,0,0,0,0
4,49999,37,40000,83,10000,49,9999,0.100000,0,0,0.000000,6,1.000000,0.000000,9.327941,0,0,0,0,0,0,0
4,49999,38,40000,0,10000,49,9999,0.100000,0,0,0.000000,6,5.000000,0.000000,9.155842,0,0,0,0,0,0,0
4,49999,39,40000,83,10000,40,9999,0.100000,0,0,0.000000,6,0.000000,0.000000,0.009609,0,0,0,0,0,0,0
4,49999,40,40000,83,0,40,9999,0.100000,0,0,0.000000,6,0.000000,0.000000,0.122158,0,0,0,0,0,0,0
4,49999,41,40000,0,10000,40,9999,0.100000,0,0,0.000000,6,0.000000,0.000000,2.223851,0,0,0,0,0,0,0
4,49999,42,40000,78,30000,49,9999,0.100000,0,0,0.000000,6,2.000000,0.000000,16.449101,0,0,0,0,0,0,0
4,49999,43,40000,20,10000,40,9999,0.100000,0,0,0.000000,6,0.000000,0.000000,1.092434,0,0,0,0,0,0,0
4,49999,44,40000,83,0,40,9999,0.100000,0,0,0.000000,6,0.000000,0.000000,0.352705,0,0,0,0,0,0,0
4,49999,45,40000,0,10000,49,9999,0.100000,0,0,0.000000,6,1.000000,0.000000,5.596345,0,0,0,0,0,0,0
4,49999,46,40000,20,0,49,9999,0.100000,0,0,0.000000,6,1.000000,0.000000,7.623609,0,0,0,0,0,0,0
4,49999,47,40000,0,0,40,9999,0.100000,0,0,0.000000,6,0.000000,0.000000,4.023001,0,0,0,0,0,0,0
4,49999,48,40000,83,10000,40,9999,0.100000,0,0,0.000000,6,0.000000,0.000000,0.347342,0,0,0,0,0,0,0
4,49999,49,40000,83,10000,40,9999,0.100000,0,0,0.000000,6,0.000000,0.000000,7.687341,0,0,0,0,0,0,0
4,49999,50,40000,0,10000,40,9999,0.100000,0,0,0.000000,6,0.000000,0.000000,16.003641,0,0,0,0,0,0,0
4,49999,51,40000,83,0,49,9999,0.100000,0,0,0.000000,6,3.000000,0.000000,15.061267,0,0,0,0,0,0,0
4,49999,52,40000,83,10000,40,9999,0.100000,0,0,0.000000,6,0.000000,0.000000,0.852396,0,0,0,0,0,0,0
4,49999,53,40000,20,10000,40,9999,0.100000,0,0,0.000000,6,0.000000,0.000000,0.495210,0,0,0,0,0,0,0
4,49999,54,40000,83,0,40,9999,0.100000,0,0,0.000000,6,0.000000,0.000000,0.973558,0,0,0,0,0,0,0
4,49999,55,40000,20,0,40,9999,0.100000,0,0,0.000000,6,0.000000,0.000000,0.249601,0,0,0,0,0,0,0
4,49999,56,40000,20,10000,40,9999,0.100000,0,0,0.000000,6,0.000000,0.000000,0.359467,0,0,0,0,0,0,0
4,49999,57,40000,83,0,40,9999,0.100000,0,0,0.000000,6,0.000000,0.000000,0.151309,0,0,0,0,0,0,0
4,49999,58,40000,20,0,40,9999,0.100000,0,0,0.000000,6,0.000000,0.000000,0.126242,0,0,0,0,0,0,0
4,49999,59,40000,83,0,40,9999,0.100000,0,0,0.000000,6,0.000000,0.000000,5.728187,0,0,0,0,0,0,0
4,49999,60,40000,83,10000,49,9999,0.100000,0,0,0.000000,6,7.000000,0.000000,8.361921,0,0,0,0,0,0,0
4,49999,61,40000,0,0,40,9999,0.100000,0,0,0.000000,6,0.000000,0.000000,0.399211,0,0,0,0,0,0,0
4,49999,62,40000,0,10000,40,9999,0.100000,0,0,0.000000,6,0.000000,0.000000,1.867557,0,0,0,0,0,0,0
4,49999,63,40000,20,10000,49,9999,0.100000,0,0,0.000000,6,1.000000,0.000000,8.050174,0,0,0,0,0,0,0
4,49999,64,40000,83,0,40,9999,0.100000,0,0,0.000000,6,0.000000,0.000000,6.744092,0,0,0,0,0,0,0
4,49999,65,40000,20,10000,40,9999,0.100000,0,0,0.000000,6,0.000000,0.000000,15.238966,0,0,0,0,0,0,0
4,49999,66,40000,20,10000,40,9999,0.100000,0,0,0.000000,6,0.000000,0.000000,0.694846,0,0,0,0,0,0,0
4,49999,67,40000,83,10000,40,9999,0.100000,0,0,0.000000,6,0.000000,0.000000,1.038176,0,0,0,0,0,0,0
4,49999,68,40000,0,0,40,9999,0.100000,0,0,0.000000,6,0.000000,0.000000,3.518609,0,0,0,0,0,0,0
4,49999,69,40000,0,0,40,9999,0.100000,0,0,0.000000,6,0.000000,0.000000,1.489900,0,0,0,0,0,0,0
4,49999,70,40000,83,0,49,9999,0.100000,0,0,0.000000,6,1.000000,0.000000,6.798182,0,0,0,0,0,0,0
4,49999,71,40000,83,0,40,9999,0.100000,0,0,0.000000,6,0.000000,0.000000,0.490748,0,0,0,0,0,0,0
4,49999,72,40000,83,10000,40,9999,0.100000,0,0,0.000000,6,0.000000,0.000000,0.175277,0,0,0,0,0,0,0
4,49999,73,40000,20,10000,49,9999,0.100000,0,0,0.000000,6,5.000000,0.000000,9.592326,0,0,0,0,0,0,0
4,49999,74,40000,83,10000,40,9999,0.100000,0,0,0.000000,6,0.000000,0.000000,0.347615,0,0,0,0,0,0,0
4,49999,75,40000,0,0,40,9999,0.100000,0,0,0.000000,6,0.000000,0.000000,0.198232,0,0,0,0,0,0,0
4,49999,76,40000,83,10000,49,9999,0.100000,0,0,0.000000,6,4.000000,0.000000,17.538769,0,0,0,0,0,0,0
4,49999,77,40000,20,0,40,9999,0.100000,0,0,0.000000,6,0.000000,0.000000,0.771207,0,0,0,0,0,0,0
4,49999,78,40000,78,30000,40,9999,0.100000,0,0,0.000000,6,0.000000,0.000000,0.126778,0,0,0,0,0,0,0
4,49999,79,40000,20,10000,40,9999,0.100000,0,0,0.000000,6,0.000000,0.000000,0.152840,0,0,0,0,0,0,0
4,49999,80,40000,0,10000,49,9999,0.100000,0,0,0.000000,6,2.000000,0.000000,9.713780,0,0,0,0,0,0,0
4,49999,81,40000,20,10000,49,9999,0.100000,0,0,0.000000,6,1.000000,0.000000,1.380733,0,0,0,0,0,0,0
4,49999,82,40000,0,10000,40,9999,0.100000,0,0,0.000000,6,0.000000,0.000000,0.212771,0,0,0,0,0,0,0
4,49999,83,40000,0,10000,40,9999,0.100000,0,0,0.000000,6,0.000000,0.000000,0.530945,0,0,0,0,0,0,0
4,49999,84,40000,83,0,40,9999,0.100000,0,0,0.000000,6,0.000000,0.000000,3.582011,0,0,0,0,0,0,0
4,49999,85,40000,83,10000,49,9999,0.100000,0,0,0.000000,6,1.000000,0.000000,3.754860,0,0,0,0,0,0,0
4,49999,86,40000,83,0,40,9999,0.100000,0,0,0.000000,6,0.000000,0.000000,0.344795,0,0,0,0,0,0,0
4,49999,87,40000,83,10000,40,9999,0.100000,0,0,0.000000,6,0.000000,0.000000,0.086945,0,0,0,0,0,0,0
4,49999,88,40000,0,0,40,9999,0.100000,0,0,0.000000,6,0.000000,0.000000,6.114478,0,0,0,0,0,0,0
4,49999,89,40000,83,0,49,9999,0.100000,0,0,0.000000,6,2.000000,0.000000,7.106698,0,0,0,0,0,0,0
4,49999,90,40000,0,0,49,9999,0.100000,0,0,0.000000,6,1.000000,0.000000,5.866649,0,0,0,0,0,0,0
4,49999,91,40000,83,0,49,9999,0.100000,0,0,0.000000,6,2.000000,0.000000,9.111476,0,0,0,0,0,0,0
4,49999,92,40000,78,30000,40,9999,0.100000,0,0,0.000000,6,0.000000,0.000000,0.141407,0,0,0,0,0,0,0
4,49999,93,40000,20,10000,40,9999,0.065000,0,0,0.000000,6,0.000000,0.000000,0.995723,0,0,0,0,0,0,0
4,49999,94,40000,83,0,49,9999,0.100000,0,0,0.000000,6,1.000000,0.000000,5.949199,0,0,0,0,0,0,0
4,49999,95,40000,0,10000,40,9999,0.100000,0,0,0.000000,6,0.000000,0.000000,0.714754,0,0,0,0,0,0,0
4,49999,96,40000,83,0,40,9999,0.100000,0,0,0.000000,6,0.000000,0.000000,6.464558,0,0,0,0,0,0,0
4,49999,97,40000,20,10000,40,9999,0.100000,0,0,0.000000,6,0.000000,0.000000,0.574952,0,0,0,0,0,0,0
4,49999,98,40000,83,10000,40,9999,0.100000,0,0,0.000000,6,0.000000,0.000000,23.988423,0,0,0,0,0,0,0
4,49999,99,40000,20,0,40,9999,0.100000,0,0,0.000000,6,0.000000,0.000000,5.978368,0,0,0,0,0,0,0
5,59999,0,50000,20,10000,40,9999,0.100000,0,0,0.000000,6,0.000000,0.000000,1.309308,0,0,0,0,0,0,0
5,59999,1,50000,0,0,49,9999,0.100000,0,0,0.000000,6,8.000000,0.000000,20.986923,0,0,0,0,0,0,0
5,59999,2,50000,83,0,40,9999,0.100000,0,0,0.000000,6,0.000000,0.000000,0.903432,0,0,0,0,0,0,0
5,59999,3,50000,0,0,40,9999,0.100000,0,0,0.000000,6,0.000000,0.000000,9.014197,0,0,0,0,0,0,0
5,59999,4,50000,83,0,40,9999,0.100000,0,0,0.000000,6,0.000000,0.000000,1.000017,0,0,0,0,0,0,0
5,59999,5,50000,83,0,40,9999,0.100000,0,0,0.000000,6,0.000000,0.000000,5.280414,0,0,0,0,0,0,0
5,59999,6,50000,20,10000,40,9999,0.100000,0,0,0.000000,6,0.000000,0.000000,0.009135,0,0,0,0,0,0,0
5,59999,7,50000,0,0,49,9999,0.100000,0,0,0.000000,6,1.000000,0.000000,9.329490,0,0,0,0,0,0,0
5,59999,8,50000,0,10000,40,9999,0.100000,0,0,0.000000,6,0.000000,0.000000,0.696684,0,0,0,0,0,0,0
5,59999,9,50000,78,30000,40,9999,0.100000,0,0,0.000000,6,0.000000,0.000000,0.790227,0,0,0,0,0,0,0
5,59999,10,50000,78,30000,49,9999,0.100000,0,0,0.000000,6,2.000000,0.000000,3.712342,0,0,0,0,0,0,0
5,59999,11,50000,83,0,40,9999,0.100000,0,0,0.000000,6,0.000000,0.000000,0.804397,0,0,0,0,0,0,0
5,59999,12,50000,83,0,40,9999,0.100000,0,0,0.000000,6,0.000000,0.000000,0.753202,0,0,0,0,0,0,0
5,59999,13,50000,0,0,49,9999,0.100000,0,0,0.000000,6,1.000000,0.000000,3.587680,0,0,0,0,0,0,0
5,59999,14,50000,0,10000,40,9999,0.100000,0,0,0.000000,6,0.000000,0.000000,0.234827,0,0,0,0,0,0,0
5,59999,15,50000,83,10000,40,9999,0.100000,0,0,0.000000,6,0.000000,0.000000,0.184822,0,0,0,0,0,0,0
5,59999,16,50000,83,0,40,9999,0.100000,0,0,0.000000,6,0.000000,0.000000,0.955682,0,0,0,0,0,0,0
5,59999,17,40000,0,0,40,19999,0.100000,0,0,0.000000,6,0.000000,0.000000,7.781208,0,0,0,0,0,0,0
5,59999,18,50000,0,0,49,9999,0.100000,0,0,0.000000,6,1.000000,0.000000,6.487598,0,0,0,0,0,0,0
5,59999,19,50000,83,10000,40,9999,0.100000,0,0,0.000000,6,0.000000,0.000000,0.146749,0,0,0,0,0,0,0
5,59999,20,50000,20,10000,40,9999,0.100000,0,0,0.000000,6,0.000000,0.000000,0.128135,0,0,0,0,0,0,0
5,59999,21,50000,78,30000,49,9999,0.100000,0,0,0.000000,6,2.000000,0.000000,12.358293,0,0,0,0,0,0,0
5,59999,22,50000,83,0,49,9999,0.100000,0,0,0.000000,6,1.000000,0.000000,7.649592,0,0,0,0,0,0,0
5,59999,23,50000,83,0,40,9999,0.100000,0,0,0.000000,6,0.000000,0.000000,0.106114,0,0,0,0,0,0,0
5,59999,24,50000,20,10000,40,9999,0.100000,0,0,0.000000,6,0.000000,0.000000,0.125890,0,0,0,0,0,0,0
5,59999,25,50000,83,10000,40,9999,0.100000,0,0,0.000000,6,0.000000,0.000000,6.273524,0,0,0,0,0,0,0
5,59999,26,50000,78,30000,49,9999,0.100000,0,0,0.000000,6,2.000000,0.000000,5.178111,0,0,0,0,0,0,0
5,59999,27,50000,83,10000,40,9999,0.100000,0,0,0.000000,6,0.000000,0.000000,8.640352,0,0,0,0,0,0,0
5,59999,28,50000,83,0,40,9999,0.100000,0,0,0.000000,6,0.000000,0.000000,1.644996,0,0,0,0,0,0,0
5,59999,29,50000,0,10000,40,9999,0.100000,0,0,0.000000,6,0.000000,0.000000,0.072139,0,0,0,0,0,0,0
5,59999,30,50000,0,0,40,9999,0.100000,0,0,0.000000,6,0.000000,0.000000,7.434044,0,0,0,0,0,0,0
5,59999,31,50000,83,0,40,9999,0.100000,0,0,0.000000,6,0.000000,0.000000,0.182108,0,0,0,0,0,0,0
5,59999,32,50000,0,10000,40,9999,0.100000,0,0,0.000000,6,0.000000,0.000000,0.178016,0,0,0,0,0,0,0
5,59999,33,50000,0,10000,40,9999,0.100000,0,0,0.000000,6,0.000000,0.000000,3.842384,0,0,0,0,0,0,0
5,59999,34,50000,0,0,40,9999,0.100000,0,0,0.000000,6,0.000000,0.000000,1.084093,0,0,0,0,0,0,0
5,59999,35,50000,78,30000,49,9999,0.100000,0,0,0.000000,6,2.000000,0.000000,16.215845,0,0,0,0,0,0,0
5,59999,36,50000,20,10000,40,9999,0.100000,0,0,0.000000,6,0.000000,0.000000,0.186028,0,0,0,0,0,0,0
5,59999,37,50000,83,10000,40,9999,0.100000,0,0,0.000000,6,0.000000,0.000000,0.892668,0,0,0,0,0,0,0
5,59999,38,50000,0,0,49,9999,0.100000,0,0,0.000000,6,2.000000,0.000000,10.902708,0,0,0,0,0,0,0
5,59999,39,50000,83,0,40,9999,0.100000,0,0,0.000000,6,0.000000,0.000000,0.009846,0,0,0,0,0,0,0
5,59999,40,50000,83,0,40,9999,0.100000,0,0,0.000000,6,0.000000,0.000000,0.125454,0,0,0,0,0,0,0
5,59999,41,50000,0,0,40,9999,0.100000,0,0,0.000000,6,0.000000,0.000000,2.212326,0,0,0,0,0,0,0
5,59999,42,50000,83,10000,40,9999,0.100000,0,0,0.000000,6,0.000000,0.000000,22.800571,0,0,0,0,0,0,0
5,59999,43,50000,0,10000,40,9999,0.100000,0,0,0.000000,6,0.000000,0.000000,1.319609,0,0,0,0,0,0,0
5,59999,44,50000,78,30000,40,9999,0.100000,0,0,0.000000,6,0.000000,0.000000,0.375944,0,0,0,0,0,0,0
5,59999,45,50000,83,0,40,9999,0.100000,0,0,0.000000,6,0.000000,0.000000,6.491605,0,0,0,0,0,0,0
5,59999,46,50000,0,0,40,9999,0.100000,0,0,0.000000,6,0.000000,0.000000,3.483532,0,0,0,0,0,0,0
5,59999,47,50000,20,10000,40,9999,0.100000,0,0,0.000000,6,0.000000,0.000000,3.415851,0,0,0,0,0,0,0
5,59999,48,50000,78,30000,40,9999,0.100000,0,0,0.000000,6,0.000000,0.000000,0.332285,0,0,0,0,0,0,0
5,59999,49,50000,20,10000,40,9999,0.100000,0,0,0.000000,6,0.000000,0.000000,5.803409,0,0,0,0,0,0,0
5,59999,50,50000,83,10000,49,9999,0.100000,0,0,0.000000,6,2.000000,0.000000,8.156433,0,0,0,0,0,0,0
5,59999,51,50000,0,0,49,9999,0.100000,0,0,0.000000,6,2.000000,0.000000,12.997720,0,0,0,0,0,0,0
5,59999,52,50000,0,10000,40,9999,0.100000,0,0,0.000000,6,0.000000,0.000000,0.926736,0,0,0,0,0,0,0
5,59999,53,50000,78,30000,40,9999,0.100000,0,0,0.000000,6,0.000000,0.000000,0.503043,0,0,0,0,0,0,0
5,59999,54,50000,0,0,40,9999,0.100000,0,0,0.000000,6,0.000000,0.000000,1.081259,0,0,0,0,0,0,0
5,59999,55,50000,0,0,40,9999,0.100000,0,0,0.000000,6,0.000000,0.000000,0.237625,0,0,0,0,0,0,0
5,59999,56,50000,83,10000,49,9999,0.100000,0,0,0.000000,6,1.000000,0.000000,1.262257,0,0,0,0,0,0,0
5,59999,57,50000,0,0,40,9999,0.100000,0,0,0.000000,6,0.000000,0.000000,0.122433,0,0,0,0,0,0,0
5,59999,58,50000,83,10000,40,9999,0.100000,0,0,0.000000,6,0.000000,0.000000,0.133155,0,0,0,0,0,0,0
5,59999,59,50000,83,10000,49,9999,0.100000,0,0,0.000000,6,2.000000,0.000000,6.868124,0,0,0,0,0,0,0
5,59999,60,50000,83,0,40,9999,0.100000,0,0,0.000000,6,0.000000,0.000000,1.010126,0,0,0,0,0,0,0
5,59999,61,50000,0,10000,40,9999,0.100000,0,0,0.000000,6,0.000000,0.000000,0.300094,0,0,0,0,0,0,0
5,59999,62,50000,83,0,40,9999,0.100000,0,0,0.000000,6,0.000000,0.000000,5.197053,0,0,0,0,0,0,0
5,59999,63,50000,78,30000,49,9999,0.100000,0,0,0.000000,6,2.000000,0.000000,11.438982,0,0,0,0,0,0,0
5,59999,64,50000,83,10000,40,9999,0.100000,0,0,0.000000,6,0.000000,0.000000,4.655372,0,0,0,0,0,0,0
5,59999,65,50000,0,10000,40,9999,0.100000,0,0,0.000000,6,0.000000,0.000000,16.155154,0,0,0,0,0,0,0
5,59999,66,50000,20,10000,40,9999,0.100000,0,0,0.000000,6,0.000000,0.000000,0.678864,0,0,0,0,0,0,0
5,59999,67,50000,0,10000,40,9999,0.100000,0,0,0.000000,6,0.000000,0.000000,0.980341,0,0,0,0,0,0,0
5,59999,68,50000,83,0,49,9999,0.100000,0,0,0.000000,6,2.000000,0.000000,16.588498,0,0,0,0,0,0,0
5,59999,69,50000,83,0,40,9999,0.100000,0,0,0.000000,6,0.000000,0.000000,1.387475,0,0,0,0,0,0,0
5,59999,70,50000,83,0,40,9999,0.135000,0,0,0.000000,6,0.000000,0.000000,6.602451,0,0,0,0,0,0,0
5,59999,71,50000,0,10000,40,9999,0.100000,0,0,0.000000,6,0.000000,0.000000,0.518351,0,0,0,0,0,0,0
5,59999,72,50000,0,0,40,9999,0.100000,0,0,0.000000,6,0.000000,0.000000,0.101158,0,0,0,0,0,0,0
5,59999,73,50000,83,0,49,9999,0.100000,0,0,0.000000,6,2.000000,0.000000,12.467028,0,0,0,0,0,0,0
5,59999,74,50000,78,30000,40,9999,0.100000,0,0,0.000000,6,0.000000,0.000000,0.440452,0,0,0,0,0,0,0
5,59999,75,50000,20,10000,40,9999,0.100000,0,0,0.000000,6,0.000000,0.000000,0.128867,0,0,0,0,0,0,0
5,59999,76,50000,0,0,40,9999,0.100000,0,0,0.000000,6,0.000000,0.000000,9.332016,0,0,0,0,0,0,0
5,59999,77,50000,0,10000,40,9999,0.100000,0,0,0.000000,6,0.000000,0.000000,0.676339,0,0,0,0,0,0,0
5,59999,78,50000,20,10000,40,9999,0.100000,0,0,0.000000,6,0.000000,0.000000,0.124964,0,0,0,0,0,0,0
5,59999,79,50000,83,0,40,9999,0.100000,0,0,0.000000,6,0.000000,0.000000,0.118630,0,0,0,0,0,0,0
5,59999,80,50000,78,30000,49,9999,0.100000,0,0,0.000000,6,1.000000,0.000000,9.316734,0,0,0,0,0,0,0
5,59999,81,50000,78,30000,40,9999,0.100000,0,0,0.000000,6,0.000000,0.000000,0.129911,0,0,0,0,0,0,0
5,59999,82,50000,83,10000,40,9999,0.100000,0,0,0.000000,6,0.000000,0.000000,0.207430,0,0,0,0,0,0,0
5,59999,83,50000,83,10000,40,9999,0.100000,0,0,0.000000,6,0.000000,0.000000,0.516257,0,0,0,0,0,0,0
5,59999,84,50000,20,10000,40,9999,0.100000,0,0,0.000000,6,0.000000,0.000000,2.722040,0,0,0,0,0,0,0
5,59999,85,50000,0,0,40,9999,0.100000,0,0,0.000000,6,0.000000,0.000000,1.016257,0,0,0,0,0,0,0
5,59999,86,50000,0,10000,40,9999,0.100000,0,0,0.000000,6,0.000000,0.000000,0.370648,0,0,0,0,0,0,0
5,59999,87,50000,0,10000,40,9999,0.100000,0,0,0.000000,6,0.000000,0.000000,0.088621,0,0,0,0,0,0,0
5,59999,88,50000,83,0,40,9999,0.100000,0,0,0.000000,6,0.000000,0.000000,1.047645,0,0,0,0,0,0,0
5,59999,89,50000,78,30000,49,9999,0.100000,0,0,0.000000,6,6.000000,0.000000,11.948738,0,0,0,0,0,0,0
5,59999,90,50000,0,10000,40,9999,0.100000,0,0,0.000000,6,0.000000,0.000000,0.105995,0,0,0,0,0,0,0
5,59999,91,50000,0,10000,49,9999,0.100000,0,0,0.000000,6,1.000000,0.000000,6.867073,0,0,0,0,0,0,0
5,59999,92,50000,83,0,40,9999,0.100000,0,0,0.000000,6,0.000000,0.000000,0.130488,0,0,0,0,0,0,0
5,59999,93,50000,0,10000,40,9999,0.100000,0,0,0.000000,6,0.000000,0.000000,0.618868,0,0,0,0,0,0,0
5,59999,94,50000,20,10000,40,9999,0.100000,0,0,0.000000,6,0.000000,0.000000,8.049185,0,0,0,0,0,0,0
5,59999,95,50000,0,0,40,9999,0.100000,0,0,0.000000,6,0.000000,0.000000,0.653488,0,0,0,0,0,0,0
5,59999,96,50000,20,10000,49,9999,0.100000,0,0,0.000000,6,2.000000,0.000000,17.959554,0,0,0,0,0,0,0
5,59999,97,50000,20,10000,40,9999,0.100000,0,0,0.000000,6,0.000000,0.000000,1.385305,0,0,0,0,0,0,0
5,59999,98,50000,78,30000,40,9999,0.100000,0,0,0.000000,6,0.000000,0.000000,23.924281,0,0,0,0,0,0,0
5,59999,99,50000,83,0,40,9999,0.100000,0,0,0.000000,6,0.000000,0.000000,6.585431,0,0,0,0,0,0,0
6,69999,0,60000,20,10000,49,9999,0.100000,0,0,0.000000,6,1.000000,0.000000,1.413326,0,0,0,0,0,0,0
6,69999,1,60000,83,0,40,9999,0.100000,0,0,0.000000,6,0.000000,0.000000,5.619889,0,0,0,0,0,0,0
6,69999,2,60000,0,0,40,9999,0.100000,0,0,0.000000,6,0.000000,0.000000,0.185968,0,0,0,0,0,0,0
6,69999,3,60000,83,10000,40,9999,0.100000,0,0,0.000000,6,0.000000,0.000000,1.435240,0,0,0,0,0,0,0
6,69999,4,60000,0,0,40,9999,0.100000,0,0,0.000000,6,0.000000,0.000000,1.117717,0,0,0,0,0,0,0
6,69999,5,60000,83,0,49,9999,0.100000,0,0,0.000000,6,1.000000,0.000000,6.111799,0,0,0,0,0,0,0
6,69999,6,60000,0,0,40,9999,0.100000,0,0,0.000000,6,0.000000,0.000000,0.009028,0,0,0,0,0,0,0
6,69999,7,60000,20,10000,49,9999,0.100000,0,0,0.000000,6,1.000000,0.000000,6.527327,0,0,0,0,0,0,0
6,69999,8,60000,20,10000,40,9999,0.100000,0,0,0.000000,6,0.000000,0.000000,0.841416,0,0,0,0,0,0,0
6,69999,9,60000,0,10000,40,9999,0.100000,0,0,0.000000,6,0.000000,0.000000,0.817035,0,0,0,0,0,0,0
6,69999,10,60000,20,10000,40,9999,0.100000,0,0,0.000000,6,0.000000,0.000000,7.353028,0,0,0,0,0,0,0
6,69999,11,60000,0,10000,40,9999,0.100000,0,0,0.000000,6,0.000000,0.000000,0.769681,0,0,0,0,0,0,0
6,69999,12,60000,83,10000,40,9999,0.100000,0,0,0.000000,6,0.000000,0.000000,0.819476,0,0,0,0,0,0,0
6,69999,13,60000,83,0,40,9999,0.100000,0,0,0.000000,6,0.000000,0.000000,0.200082,0,0,0,0,0,0,0
6,69999,14,60000,20,10000,40,9999,0.100000,0,0,0.000000,6,0.000000,0.000000,0.221513,0,0,0,0,0,0,0
6,69999,15,60000,83,0,40,9999,0.100000,0,0,0.000000,6,0.000000,0.000000,0.163225,0,0,0,0,0,0,0
6,69999,16,60000,0,10000,40,9999,0.100000,0,0,0.000000,6,0.000000,0.000000,0.900752,0,0,0,0,0,0,0
6,69999,17,60000,0,0,49,9999,0.100000,0,0,0.000000,6,1.000000,0.000000,8.428509,0,0,0,0,0,0,0
6,69999,18,60000,20,10000,40,9999,0.100000,0,0,0.000000,6,0.000000,0.000000,10.449869,0,0,0,0,0,0,0
6,69999,19,60000,0,10000,40,9999,0.100000,0,0,0.000000,6,0.000000,0.000000,0.141560,0,0,0,0,0,0,0
6,69999,20,60000,83,0,40,9999,0.100000,0,0,0.000000,6,0.000000,0.000000,0.124762,0,0,0,0,0,0,0
6,69999,21,60000,0,10000,49,9999,0.100000,0,0,0.000000,6,3.000000,0.000000,10.924029,0,0,0,0,0,0,0
6,69999,22,60000,83,10000,49,9999,0.100000,0,0,0.000000,6,1.000000,0.000000,7.259743,0,0,0,0,0,0,0
6,69999,23,60000,83,10000,40,9999,0.100000,0,0,0.000000,6,0.000000,0.000000,0.108812,0,0,0,0,0,0,0
6,69999,24,60000,20,10000,40,9999,0.100000,0,0,0.000000,6,0.000000,0.000000,0.109864,0,0,0,0,0,0,0
6,69999,25,60000,0,0,40,9999,0.100000,0,0,0.000000,6,0.000000,0.000000,7.511180,0,0,0,0,0,0,0
6,69999,26,60000,0,0,40,9999,0.100000,0,0,0.000000,6,0.000000,0.000000,0.798350,0,0,0,0,0,0,0
6,69999,27,60000,83,10000,40,9999,0.100000,0,0,0.000000,6,0.000000,0.000000,6.772383,0,0,0,0,0,0,0
6,69999,28,60000,20,10000,40,9999,0.100000,0,0,0.000000,6,0.000000,0.000000,1.447935,0,0,0,0,0,0,0
6,69999,29,60000,83,0,40,9999,0.100000,0,0,0.000000,6,0.000000,0.000000,0.087404,0,0,0,0,0,0,0
6,69999,30,60000,0,10000,40,9999,0.100000,0,0,0.000000,6,0.000000,0.000000,1.214933,0,0,0,0,0,0,0
6,69999,31,60000,78,30000,40,9999,0.100000,0,0,0.000000,6,0.000000,0.000000,0.157216,0,0,0,0,0,0,0
6,69999,32,60000,83,0,40,9999,0.100000,0,0,0.000000,6,0.000000,0.000000,0.178657,0,0,0,0,0,0,0
6,69999,33,60000,78,30000,49,9999,0.100000,0,0,0.000000,6,13.000000,0.000000,16.864647,0,0,0,0,0,0,0
6,69999,34,60000,20,10000,40,9999,0.100000,0,0,0.000000,6,0.000000,0.000000,1.217378,0,0,0,0,0,0,0
6,69999,35,60000,20,10000,40,9999,0.100000,0,0,0.000000,6,0.000000,0.000000,15.930102,0,0,0,0,0,0,0
6,69999,36,60000,0,0,40,9999,0.100000,0,0,0.000000,6,0.000000,0.000000,0.146662,0,0,0,0,0,0,0
6,69999,37,60000,83,0,40,9999,0.100000,0,0,0.000000,6,0.000000,0.000000,2.934586,0,0,0,0,0,0,0
6,69999,38,60000,0,0,49,9999,0.100000,0,0,0.000000,6,1.000000,0.000000,7.179373,0,0,0,0,0,0,0
6,69999,39,60000,0,0,40,9999,0.100000,0,0,0.000000,6,0.000000,0.000000,0.009823,0,0,0,0,0,0,0
6,69999,40,60000,0,0,40,9999,0.100000,0,0,0.000000,6,0.000000,0.000000,0.124701,0,0,0,0,0,0,0
6,69999,41,60000,83,0,40,9999,0.100000,0,0,0.000000,6,0.000000,0.000000,1.913740,0,0,0,0,0,0,0
6,69999,42,60000,0,0,40,9999,0.100000,0,0,0.000000,6,0.000000,0.000000,23.231125,0,0,0,0,0,0,0
6,69999,43,60000,0,10000,40,9999,0.100000,0,0,0.000000,6,0.000000,0.000000,1.281369,0,0,0,0,0,0,0
6,69999,44,60000,20,10000,40,9999,0.100000,0,0,0.000000,6,0.000000,0.000000,0.410265,0,0,0,0,0,0,0
6,69999,45,60000,78,30000,40,9999,0.100000,0,0,0.000000,6,0.000000,0.000000,7.258855,0,0,0,0,0,0,0
6,69999,46,60000,0,0,40,9999,0.100000,0,0,0.000000,6,0.000000,0.000000,3.966110,0,0,0,0,0,0,0
6,69999,47,60000,83,0,40,9999,0.100000,0,0,0.000000,6,0.000000,0.000000,0.705747,0,0,0,0,0,0,0
6,69999,48,60000,83,0,40,9999,0.100000,0,0,0.000000,6,0.000000,0.000000,0.360080,0,0,0,0,0,0,0
6,69999,49,60000,83,10000,40,9999,0.100000,0,0,0.000000,6,0.000000,0.000000,7.834836,0,0,0,0,0,0,0
6,69999,50,60000,20,10000,40,9999,0.135000,0,0,0.000000,6,0.000000,0.000000,0.975379,0,0,0,0,0,0,0
6,69999,51,60000,83,10000,49,9999,0.100000,0,0,0.000000,6,2.000000,0.000000,15.361112,0,0,0,0,0,0,0
6,69999,52,60000,78,30000,40,9999,0.100000,0,0,0.000000,6,0.000000,0.000000,1.164516,0,0,0,0,0,0,0
6,69999,53,60000,83,10000,40,9999,0.100000,0,0,0.000000,6,0.000000,0.000000,0.481190,0,0,0,0,0,0,0
6,69999,54,60000,78,30000,40,9999,0.100000,0,0,0.000000,6,0.000000,0.000000,0.658073,0,0,0,0,0,0,0
6,69999,55,60000,78,30000,40,9999,0.100000,0,0,0.000000,6,0.000000,0.000000,0.244000,0,0,0,0,0,0,0
6,69999,56,60000,0,10000,40,9999,0.100000,0,0,0.000000,6,0.000000,0.000000,2.603097,0,0,0,0,0,0,0
6,69999,57,60000,0,0,40,9999,0.100000,0,0,0.000000,6,0.000000,0.000000,0.119452,0,0,0,0,0,0,0
6,69999,58,60000,83,10000,40,9999,0.100000,0,0,0.000000,6,0.000000,0.000000,0.146591,0,0,0,0,0,0,0
6,69999,59,60000,20,10000,40,9999,0.100000,0,0,0.000000,6,0.000000,0.000000,8.300039,0,0,0,0,0,0,0
6,69999,60,60000,83,0,40,9999,0.100000,0,0,0.000000,6,0.000000,0.000000,1.010306,0,0,0,0,0,0,0
6,69999,61,60000,83,10000,40,9999,0.100000,0,0,0.000000,6,0.000000,0.000000,1.208956,0,0,0,0,0,0,0
6,69999,62,60000,78,30000,49,9999,0.100000,0,0,0.000000,6,7.000000,0.000000,10.514992,0,0,0,0,0,0,0
6,69999,63,60000,0,10000,49,9999,0.100000,0,0,0.000000,6,1.000000,0.000000,8.064768,0,0,0,0,0,0,0
6,69999,64,60000,20,10000,40,9999,0.100000,0,0,0.000000,6,0.000000,0.000000,3.500353,0,0,0,0,0,0,0
6,69999,65,60000,0,10000,40,9999,0.100000,0,0,0.000000,6,0.000000,0.000000,14.679275,0,0,0,0,0,0,0
6,69999,66,60000,0,0,40,9999,0.100000,0,0,0.000000,6,0.000000,0.000000,0.695377,0,0,0,0,0,0,0
6,69999,67,60000,0,0,40,9999,0.100000,0,0,0.000000,6,0.000000,0.000000,0.790722,0,0,0,0,0,0,0
6,69999,68,60000,0,10000,40,9999,0.100000,0,0,0.000000,6,0.000000,0.000000,9.840889,0,0,0,0,0,0,0
6,69999,69,60000,0,0,40,9999,0.100000,0,0,0.000000,6,0.000000,0.000000,1.024427,0,0,0,0,0,0,0
6,69999,70,60000,83,10000,40,9999,0.100000,0,0,0.000000,6,0.000000,0.000000,6.753135,0,0,0,0,0,0,0
6,69999,71,60000,83,0,40,9999,0.100000,0,0,0.000000,6,0.000000,0.000000,0.245508,0,0,0,0,0,0,0
6,69999,72,60000,0,10000,40,9999,0.100000,0,0,0.000000,6,0.000000,0.000000,0.086918,0,0,0,0,0,0,0
6,69999,73,60000,20,10000,49,9999,0.100000,0,0,0.000000,6,3.000000,0.000000,11.026955,0,0,0,0,0,0,0
6,69999,74,60000,83,0,40,9999,0.100000,0,0,0.000000,6,0.000000,0.000000,0.409149,0,0,0,0,0,0,0
6,69999,75,60000,20,10000,40,9999,0.100000,0,0,0.000000,6,0.000000,0.000000,0.106350,0,0,0,0,0,0,0
6,69999,76,60000,78,30000,49,9999,0.100000,0,0,0.000000,6,1.000000,0.000000,3.674437,0,0,0,0,0,0,0
6,69999,77,60000,83,10000,40,9999,0.100000,0,0,0.000000,6,0.000000,0.000000,1.337887,0,0,0,0,0,0,0
6,69999,78,60000,0,0,40,9999,0.100000,0,0,0.000000,6,0.000000,0.000000,0.125487,0,0,0,0,0,0,0
6,69999,79,60000,20,10000,40,9999,0.100000,0,0,0.000000,6,0.000000,0.000000,0.091996,0,0,0,0,0,0,0
6,69999,80,60000,83,10000,49,9999,0.100000,0,0,0.000000,6,1.000000,0.000000,6.621587,0,0,0,0,0,0,0
6,69999,81,60000,78,30000,40,9999,0.100000,0,0,0.000000,6,0.000000,0.000000,0.127613,0,0,0,0,0,0,0
6,69999,82,60000,78,30000,40,9999,0.100000,0,0,0.000000,6,0.000000,0.000000,0.150411,0,0,0,0,0,0,0
6,69999,83,60000,0,0,40,9999,0.100000,0,0,0.000000,6,0.000000,0.000000,0.516833,0,0,0,0,0,0,0
6,69999,84,60000,0,0,40,9999,0.100000,0,0,0.000000,6,0.000000,0.000000,1.942420,0,0,0,0,0,0,0
6,69999,85,60000,20,10000,40,9999,0.100000,0,0,0.000000,6,0.000000,0.000000,1.039277,0,0,0,0,0,0,0
6,69999,86,60000,0,0,40,9999,0.100000,0,0,0.000000,6,0.000000,0.000000,0.379363,0,0,0,0,0,0,0
6,69999,87,60000,83,0,40,9999,0.100000,0,0,0.000000,6,0.000000,0.000000,0.088444,0,0,0,0,0,0,0
6,69999,88,60000,20,10000,40,9999,0.100000,0,0,0.000000,6,0.000000,0.000000,1.140510,0,0,0,0,0,0,0
6,69999,89,60000,83,0,40,9999,0.100000,0,0,0.000000,6,0.000000,0.000000,6.982440,0,0,0,0,0,0,0
6,69999,90,60000,78,30000,40,9999,0.100000,0,0,0.000000,6,0.000000,0.000000,0.077832,0,0,0,0,0,0,0
6,69999,91,60000,78,30000,40,9999,0.100000,0,0,0.000000,6,0.000000,0.000000,1.196542,0,0,0,0,0,0,0
6,69999,92,60000,0,0,40,9999,0.100000,0,0,0.000000,6,0.000000,0.000000,0.123165,0,0,0,0,0,0,0
6,69999,93,60000,20,10000,40,9999,0.100000,0,0,0.000000,6,0.000000,0.000000,0.649418,0,0,0,0,0,0,0
6,69999,94,60000,78,30000,49,9999,0.100000,0,0,0.000000,6,1.000000,0.000000,5.137441,0,0,0,0,0,0,0
6,69999,95,60000,0,0,40,9999,0.100000,0,0,0.000000,6,0.000000,0.000000,0.604261,0,0,0,0,0,0,0
6,69999,96,60000,83,0,49,9999,0.100000,0,0,0.000000,6,2.000000,0.000000,9.065026,0,0,0,0,0,0,0
6,69999,97,60000,0,0,40,9999,0.100000,0,0,0.000000,6,0.000000,0.000000,0.170504,0,0,0,0,0,0,0
6,69999,98,60000,0,0,40,9999,0.100000,0,0,0.000000,6,0.000000,0.000000,23.857519,0,0,0,0,0,0,0
6,69999,99,60000,0,0,40,9999,0.100000,0,0,0.000000,6,0.000000,0.000000,5.702272,0,0,0,0,0,0,0
7,79999,0,70000,83,10000,40,9999,0.100000,0,0,0.000000,6,0.000000,0.000000,2.985247,0,0,0,0,0,0,0
7,79999,1,70000,83,10000,49,9999,0.100000,0,0,0.000000,6,1.000000,0.000000,4.505845,0,0,0,0,0,0,0
7,79999,2,70000,0,10000,40,9999,0.100000,0,0,0.000000,6,0.000000,0.000000,0.423164,0,0,0,0,0,0,0
7,79999,3,70000,0,10000,40,9999,0.100000,0,0,0.000000,6,0.000000,0.000000,1.836596,0,0,0,0,0,0,0
7,79999,4,70000,0,0,40,9999,0.100000,0,0,0.000000,6,0.000000,0.000000,1.664686,0,0,0,0,0,0,0
7,79999,5,70000,0,0,49,9999,0.100000,0,0,0.000000,6,5.000000,0.000000,9.637817,0,0,0,0,0,0,0
7,79999,6,70000,83,0,40,9999,0.100000,0,0,0.000000,6,0.000000,0.000000,0.009111,0,0,0,0,0,0,0
7,79999,7,70000,0,0,49,9999,0.100000,0,0,0.000000,6,2.000000,0.000000,6.224585,0,0,0,0,0,0,0
7,79999,8,70000,78,30000,40,9999,0.100000,0,0,0.000000,6,0.000000,0.000000,1.013105,0,0,0,0,0,0,0
7,79999,9,70000,20,10000,40,9999,0.100000,0,0,0.000000,6,0.000000,0.000000,0.507393,0,0,0,0,0,0,0
7,79999,10,70000,83,10000,49,9999,0.100000,0,0,0.000000,6,2.000000,0.000000,9.959267,0,0,0,0,0,0,0
7,79999,11,70000,83,10000,40,9999,0.100000,0,0,0.000000,6,0.000000,0.000000,6.597113,0,0,0,0,0,0,0
7,79999,12,70000,20,10000,40,9999,0.100000,0,0,0.000000,6,0.000000,0.000000,1.348743,0,0,0,0,0,0,0
7,79999,13,70000,78,30000,40,9999,0.065000,0,0,0.000000,6,0.000000,0.000000,0.526523,0,0,0,0,0,0,0
7,79999,14,70000,20,10000,40,9999,0.100000,0,0,0.000000,6,0.000000,0.000000,0.212688,0,0,0,0,0,0,0
7,79999,15,70000,78,30000,40,9999,0.100000,0,0,0.000000,6,0.000000,0.000000,0.113873,0,0,0,0,0,0,0
7,79999,16,70000,83,0,49,9999,0.100000,0,0,0.000000,6,3.000000,0.000000,8.327131,0,0,0,0,0,0,0
7,79999,17,70000,20,10000,40,9999,0.100000,0,0,0.000000,6,0.000000,0.000000,3.905295,0,0,0,0,0,0,0
7,79999,18,70000,83,10000,40,9999,0.100000,0,0,0.000000,6,0.000000,0.000000,9.184382,0,0,0,0,0,0,0
7,79999,19,70000,20,10000,40,9999,0.100000,0,0,0.000000,6,0.000000,0.000000,0.139705,0,0,0,0,0,0,0
7,79999,20,70000,83,10000,40,9999,0.100000,0,0,0.000000,6,0.000000,0.000000,0.125839,0,0,0,0,0,0,0
7,79999,21,70000,20,10000,49,9999,0.100000,0,0,0.000000,6,1.000000,0.000000,10.842746,0,0,0,0,0,0,0
7,79999,22,70000,78,30000,49,9999,0.100000,0,0,0.000000,6,1.000000,0.000000,14.579698,0,0,0,0,0,0,0
7,79999,23,70000,20,10000,40,9999,0.100000,0,0,0.000000,6,0.000000,0.000000,0.110344,0,0,0,0,0,0,0
7,79999,24,70000,0,10000,40,9999,0.100000,0,0,0.000000,6,0.000000,0.000000,0.114677,0,0,0,0,0,0,0
7,79999,25,70000,20,10000,49,9999,0.100000,0,0,0.000000,6,1.000000,0.000000,9.702619,0,0,0,0,0,0,0
7,79999,26,70000,0,0,40,9999,0.100000,0,0,0.000000,6,0.000000,0.000000,1.282259,0,0,0,0,0,0,0
7,79999,27,70000,0,10000,49,9999,0.100000,0,0,0.000000,6,1.000000,0.000000,6.168619,0,0,0,0,0,0,0
7,79999,28,70000,83,10000,40,9999,0.100000,0,0,0.000000,6,0.000000,0.000000,1.851114,0,0,0,0,0,0,0
7,79999,29,70000,0,10000,40,9999,0.100000,0,0,0.000000,6,0.000000,0.000000,0.084507,0,0,0,0,0,0,0
7,79999,30,70000,83,0,40,9999,0.100000,0,0,0.000000,6,0.000000,0.000000,1.750498,0,0,0,0,0,0,0
7,79999,31,70000,83,0,40,9999,0.100000,0,0,0.000000,6,0.000000,0.000000,0.104805,0,0,0,0,0,0,0
7,79999,32,70000,83,10000,40,9999,0.100000,0,0,0.000000,6,0.000000,0.000000,0.271947,0,0,0,0,0,0,0
7,79999,33,70000,0,10000,40,9999,0.100000,0,0,0.000000,6,0.000000,0.000000,0.557152,0,0,0,0,0,0,0
7,79999,34,70000,0,10000,40,9999,0.100000,0,0,0.000000,6,0.000000,0.000000,1.959227,0,0,0,0,0,0,0
7,79999,35,70000,83,10000,49,9999,0.100000,0,0,0.000000,6,5.000000,0.000000,15.693525,0,0,0,0,0,0,0
7,79999,36,70000,0,0,40,9999,0.100000,0,0,0.000000,6,0.000000,0.000000,0.173249,0,0,0,0,0,0,0
7,79999,37,70000,0,10000,49,9999,0.100000,0,0,0.000000,6,1.000000,0.000000,12.800343,0,0,0,0,0,0,0
7,79999,38,70000,83,0,40,9999,0.100000,0,0,0.000000,6,0.000000,0.000000,7.284275,0,0,0,0,0,0,0
7,79999,39,70000,78,30000,40,9999,0.100000,0,0,0.000000,6,0.000000,0.000000,0.009855,0,0,0,0,0,0,0
7,79999,40,70000,78,30000,40,9999,0.100000,0,0,0.000000,6,0.000000,0.000000,0.119097,0,0,0,0,0,0,0
7,79999,41,70000,20,10000,40,9999,0.100000,0,0,0.000000,6,0.000000,0.000000,1.295682,0,0,0,0,0,0,0
7,79999,42,70000,0,10000,40,9999,0.100000,0,0,0.000000,6,0.000000,0.000000,21.418509,0,0,0,0,0,0,0
7,79999,43,70000,20,10000,49,9999,0.100000,0,0,0.000000,6,1.000000,0.000000,3.157042,0,0,0,0,0,0,0
7,79999,44,70000,0,0,40,9999,0.100000,0,0,0.000000,6,0.000000,0.000000,0.444710,0,0,0,0,0,0,0
7,79999,45,70000,0,10000,49,9999,0.100000,0,0,0.000000,6,1.000000,0.000000,5.742035,0,0,0,0,0,0,0
7,79999,46,70000,78,30000,49,9999,0.100000,0,0,0.000000,6,2.000000,0.000000,6.763263,0,0,0,0,0,0,0
7,79999,47,70000,20,10000,40,9999,0.100000,0,0,0.000000,6,0.000000,0.000000,0.307489,0,0,0,0,0,0,0
7,79999,48,70000,0,10000,40,9999,0.100000,0,0,0.000000,6,0.000000,0.000000,0.339275,0,0,0,0,0,0,0
7,79999,49,70000,78,30000,40,9999,0.100000,0,0,0.000000,6,0.000000,0.000000,3.893593,0,0,0,0,0,0,0
7,79999,50,70000,83,10000,40,9999,0.100000,0,0,0.000000,6,0.000000,0.000000,0.985787,0,0,0,0,0,0,0
7,79999,51,70000,0,0,49,9999,0.100000,0,0,0.000000,6,2.000000,0.000000,13.047368,0,0,0,0,0,0,0
7,79999,52,70000,83,0,40,9999,0.100000,0,0,0.000000,6,0.000000,0.000000,0.806505,0,0,0,0,0,0,0
7,79999,53,70000,20,10000,40,9999,0.100000,0,0,0.000000,6,0.000000,0.000000,0.373717,0,0,0,0,0,0,0
7,79999,54,70000,83,10000,40,9999,0.100000,0,0,0.000000,6,0.000000,0.000000,0.981639,0,0,0,0,0,0,0
7,79999,55,70000,83,0,40,9999,0.100000,0,0,0.000000,6,0.000000,0.000000,0.249388,0,0,0,0,0,0,0
7,79999,56,70000,20,10000,40,9999,0.100000,0,0,0.000000,6,0.000000,0.000000,0.384973,0,0,0,0,0,0,0
7,79999,57,70000,83,10000,40,9999,0.100000,0,0,0.000000,6,0.000000,0.000000,0.291695,0,0,0,0,0,0,0
7,79999,58,70000,20,10000,40,9999,0.100000,0,0,0.000000,6,0.000000,0.000000,0.155138,0,0,0,0,0,0,0
7,79999,59,70000,83,0,40,9999,0.100000,0,0,0.000000,6,0.000000,0.000000,6.517010,0,0,0,0,0,0,0
7,79999,60,70000,20,10000,40,9999,0.100000,0,0,0.000000,6,0.000000,0.000000,1.047621,0,0,0,0,0,0,0
7,79999,61,70000,0,0,40,9999,0.100000,0,0,0.000000,6,0.000000,0.000000,1.140378,0,0,0,0,0,0,0
7,79999,62,70000,0,10000,40,9999,0.100000,0,0,0.000000,6,0.000000,0.000000,1.245676,0,0,0,0,0,0,0
7,79999,63,70000,0,10000,40,9999,0.100000,0,0,0.000000,6,0.000000,0.000000,6.288373,0,0,0,0,0,0,0
7,79999,64,70000,83,0,40,9999,0.100000,0,0,0.000000,6,0.000000,0.000000,2.173220,0,0,0,0,0,0,0
7,79999,65,70000,78,30000,49,9999,0.100000,0,0,0.000000,6,1.000000,0.000000,5.744962,0,0,0,0,0,0,0
7,79999,66,70000,20,10000,40,9999,0.100000,0,0,0.000000,6,0.000000,0.000000,0.670717,0,0,0,0,0,0,0
7,79999,67,70000,20,10000,40,9999,0.100000,0,0,0.000000,6,0.000000,0.000000,0.906502,0,0,0,0,0,0,0
7,79999,68,70000,83,10000,99,9999,0.100000,0,0,34.210526,6,10.000000,0.000000,17.829319,0,0,1,0,0,0,0
7,79999,69,70000,20,10000,40,9999,0.100000,0,0,0.000000,6,0.000000,0.000000,0.839620,0,0,0,0,0,0,0
7,79999,70,70000,20,10000,40,9999,0.100000,0,0,0.000000,6,0.000000,0.000000,8.499355,0,0,0,0,0,0,0
7,79999,71,70000,0,10000,40,9999,0.100000,0,0,0.000000,6,0.000000,0.000000,0.457955,0,0,0,0,0,0,0
7,79999,72,70000,0,0,40,9999,0.100000,0,0,0.000000,6,0.000000,0.000000,0.095028,0,0,0,0,0,0,0
7,79999,73,70000,83,10000,49,9999,0.100000,0,0,0.000000,6,1.000000,0.000000,10.761250,0,0,0,0,0,0,0
7,79999,74,70000,78,30000,40,9999,0.100000,0,0,0.000000,6,0.000000,0.000000,0.463058,0,0,0,0,0,0,0
7,79999,75,70000,0,0,40,9999,0.100000,0,0,0.000000,6,0.000000,0.000000,0.127324,0,0,0,0,0,0,0
7,79999,76,70000,78,30000,49,9999,0.100000,0,0,0.000000,6,1.000000,0.000000,6.035623,0,0,0,0,0,0,0
7,79999,77,60000,83,10000,49,19999,0.100000,0,0,0.000000,6,1.000000,0.000000,5.206313,0,0,0,0,0,0,0
7,79999,78,70000,83,0,40,9999,0.100000,0,0,0.000000,6,0.000000,0.000000,0.131720,0,0,0,0,0,0,0
7,79999,79,70000,83,10000,40,9999,0.100000,0,0,0.000000,6,0.000000,0.000000,0.089250,0,0,0,0,0,0,0
7,79999,80,70000,20,10000,49,9999,0.100000,0,0,0.000000,6,3.000000,0.000000,8.779934,0,0,0,0,0,0,0
7,79999,81,70000,83,10000,40,9999,0.100000,0,0,0.000000,6,0.000000,0.000000,0.127470,0,0,0,0,0,0,0
7,79999,82,70000,0,10000,40,9999,0.100000,0,0,0.000000,6,0.000000,0.000000,0.087382,0,0,0,0,0,0,0
7,79999,83,70000,20,10000,40,9999,0.100000,0,0,0.000000,6,0.000000,0.000000,0.528853,0,0,0,0,0,0,0
7,79999,84,70000,0,0,40,9999,0.100000,0,0,0.000000,6,0.000000,0.000000,1.926934,0,0,0,0,0,0,0
7,79999,85,70000,83,10000,40,9999,0.100000,0,0,0.000000,6,0.000000,0.000000,1.004113,0,0,0,0,0,0,0
7,79999,86,70000,0,10000,40,9999,0.100000,0,0,0.000000,6,0.000000,0.000000,0.355758,0,0,0,0,0,0,0
7,79999,87,70000,0,0,40,9999,0.100000,0,0,0.000000,6,0.000000,0.000000,0.121418,0,0,0,0,0,0,0
7,79999,88,70000,0,10000,40,9999,0.100000,0,0,0.000000,6,0.000000,0.000000,1.616478,0,0,0,0,0,0,0
7,79999,89,70000,0,10000,49,9999,0.100000,0,0,0.000000,6,3.000000,0.000000,9.150108,0,0,0,0,0,0,0
7,79999,90,70000,20,10000,40,9999,0.100000,0,0,0.000000,6,0.000000,0.000000,0.106731,0,0,0,0,0,0,0
7,79999,91,70000,0,10000,40,9999,0.100000,0,0,0.000000,6,0.000000,0.000000,1.741323,0,0,0,0,0,0,0
7,79999,92,70000,0,0,40,9999,0.100000,0,0,0.000000,6,0.000000,0.000000,0.138800,0,0,0,0,0,0,0
7,79999,93,70000,0,0,40,9999,0.100000,0,0,0.000000,6,0.000000,0.000000,0.438362,0,0,0,0,0,0,0
7,79999,94,70000,0,0,49,9999,0.100000,0,0,0.000000,6,3.000000,0.000000,8.100872,0,0,0,0,0,0,0
7,79999,95,70000,0,0,40,9999,0.100000,0,0,0.000000,6,0.000000,0.000000,0.559250,0,0,0,0,0,0,0
7,79999,96,70000,83,0,40,9999,0.100000,0,0,0.000000,6,0.000000,0.000000,9.446862,0,0,0,0,0,0,0
7,79999,97,70000,78,30000,40,9999,0.100000,0,0,0.000000,6,0.000000,0.000000,0.377558,0,0,0,0,0,0,0
7,79999,98,70000,0,0,40,9999,0.100000,0,0,0.000000,6,0.000000,0.000000,23.905649,0,0,0,0,0,0,0
7,79999,99,70000,83,0,49,9999,0.100000,0,0,0.000000,6,2.000000,0.000000,16.063268,0,0,0,0,0,0,0
8,89999,0,80000,0,0,40,9999,0.100000,0,0,0.000000,6,0.000000,0.000000,2.185146,0,0,0,0,0,0,0
8,89999,1,80000,83,0,40,9999,0.100000,0,0,0.000000,6,0.000000,0.000000,1.830316,0,0,0,0,0,0,0
8,89999,2,80000,83,0,40,9999,0.100000,0,0,0.000000,6,0.000000,0.000000,0.356958,0,0,0,0,0,0,0
8,89999,3,80000,83,10000,40,9999,0.100000,0,0,0.000000,6,0.000000,0.000000,2.167983,0,0,0,0,0,0,0
8,89999,4,80000,0,10000,40,9999,0.100000,0,0,0.000000,6,0.000000,0.000000,2.257756,0,0,0,0,0,0,0
8,89999,5,80000,0,0,49,9999,0.100000,0,0,0.000000,6,1.000000,0.000000,13.171157,0,0,0,0,0,0,0
8,89999,6,80000,83,0,40,9999,0.100000,0,0,0.000000,6,0.000000,0.000000,0.009096,0,0,0,0,0,0,0
8,89999,7,80000,0,10000,40,9999,0.100000,0,0,0.000000,6,0.000000,0.000000,0.913968,0,0,0,0,0,0,0
8,89999,8,80000,20,10000,40,9999,0.100000,0,0,0.000000,6,0.000000,0.000000,0.894497,0,0,0,0,0,0,0
8,89999,9,80000,0,10000,40,9999,0.100000,0,0,0.000000,6,0.000000,0.000000,0.593132,0,0,0,0,0,0,0
8,89999,10,80000,0,10000,40,9999,0.100000,0,0,0.000000,6,0.000000,0.000000,0.458737,0,0,0,0,0,0,0
8,89999,11,80000,83,10000,40,9999,0.100000,0,0,0.000000,6,0.000000,0.000000,0.950931,0,0,0,0,0,0,0
8,89999,12,80000,78,30000,40,9999,0.100000,0,0,0.000000,6,0.000000,0.000000,1.427123,0,0,0,0,0,0,0
8,89999,13,80000,83,0,40,9999,0.100000,0,0,0.000000,6,0.000000,0.000000,0.667079,0,0,0,0,0,0,0
8,89999,14,80000,83,10000,40,9999,0.100000,0,0,0.000000,6,0.000000,0.000000,0.238493,0,0,0,0,0,0,0
8,89999,15,80000,83,10000,40,9999,0.100000,0,0,0.000000,6,0.000000,0.000000,0.109974,0,0,0,0,0,0,0
8,89999,16,80000,0,10000,40,9999,0.100000,0,0,0.000000,6,0.000000,0.000000,7.704691,0,0,0,0,0,0,0
8,89999,17,80000,83,10000,49,9999,0.100000,0,0,0.000000,6,2.000000,0.000000,7.201202,0,0,0,0,0,0,0
8,89999,18,80000,83,0,40,9999,0.100000,0,0,0.000000,6,0.000000,0.000000,8.577667,0,0,0,0,0,0,0
8,89999,19,80000,83,10000,40,9999,0.100000,0,0,0.000000,6,0.000000,0.000000,0.136103,0,0,0,0,0,0,0
8,89999,20,80000,78,30000,40,9999,0.100000,0,0,0.000000,6,0.000000,0.000000,0.150298,0,0,0,0,0,0,0
8,89999,21,80000,83,10000,49,9999,0.100000,0,0,0.000000,6,2.000000,0.000000,18.890332,0,0,0,0,0,0,0
8,89999,22,80000,83,10000,40,9999,0.100000,0,0,0.000000,6,0.000000,0.000000,1.844603,0,0,0,0,0,0,0
8,89999,23,80000,83,0,40,9999,0.100000,0,0,0.000000,6,0.000000,0.000000,0.108913,0,0,0,0,0,0,0
8,89999,24,80000,83,10000,40,9999,0.100000,0,0,0.000000,6,0.000000,0.000000,0.118301,0,0,0,0,0,0,0
8,89999,25,80000,0,0,49,9999,0.100000,0,0,0.000000,6,2.000000,0.000000,6.358281,0,0,0,0,0,0,0
8,89999,26,80000,20,10000,40,9999,0.100000,0,0,0.000000,6,0.000000,0.000000,1.395674,0,0,0,0,0,0,0
8,89999,27,80000,83,10000,40,9999,0.100000,0,0,0.000000,6,0.000000,0.000000,8.330195,0,0,0,0,0,0,0
8,89999,28,80000,78,30000,40,9999,0.135000,0,0,0.000000,6,0.000000,0.000000,2.166836,0,0,0,0,0,0,0
8,89999,29,80000,83,0,40,9999,0.100000,0,0,0.000000,6,0.000000,0.000000,0.081560,0,0,0,0,0,0,0
8,89999,30,80000,78,30000,49,9999,0.100000,0,0,0.000000,6,1.000000,0.000000,5.951698,0,0,0,0,0,0,0
8,89999,31,80000,0,10000,40,9999,0.100000,0,0,0.000000,6,0.000000,0.000000,0.105576,0,0,0,0,0,0,0
8,89999,32,80000,83,10000,40,9999,0.100000,0,0,0.000000,6,0.000000,0.000000,0.326351,0,0,0,0,0,0,0
8,89999,33,80000,0,10000,40,9999,0.100000,0,0,0.000000,6,0.000000,0.000000,0.610186,0,0,0,0,0,0,0
8,89999,34,80000,83,10000,49,9999,0.100000,0,0,0.000000,6,1.000000,0.000000,4.043466,0,0,0,0,0,0,0
8,89999,35,80000,0,0,49,9999,0.100000,0,0,0.000000,6,1.000000,0.000000,5.606485,0,0,0,0,0,0,0
8,89999,36,80000,0,0,40,9999,0.100000,0,0,0.000000,6,0.000000,0.000000,0.180845,0,0,0,0,0,0,0
8,89999,37,80000,20,10000,49,9999,0.100000,0,0,0.000000,6,1.000000,0.000000,18.424706,0,0,0,0,0,0,0
8,89999,38,80000,20,10000,40,9999,0.100000,0,0,0.000000,6,0.000000,0.000000,8.619146,0,0,0,0,0,0,0
8,89999,39,80000,83,10000,40,9999,0.100000,0,0,0.000000,6,0.000000,0.000000,3.855752,0,0,0,0,0,0,0
8,89999,40,80000,83,0,40,9999,0.100000,0,0,0.000000,6,0.000000,0.000000,0.121564,0,0,0,0,0,0,0
8,89999,41,80000,0,10000,40,9999,0.100000,0,0,0.000000,6,0.000000,0.000000,0.451129,0,0,0,0,0,0,0
8,89999,42,80000,83,0,40,9999,0.100000,0,0,0.000000,6,0.000000,0.000000,20.487836,0,0,0,0,0,0,0
8,89999,43,80000,78,30000,40,9999,0.100000,0,0,0.000000,6,0.000000,0.000000,2.969341,0,0,0,0,0,0,0
8,89999,44,80000,78,30000,40,9999,0.100000,0,0,0.000000,6,0.000000,0.000000,0.572641,0,0,0,0,0,0,0
8,89999,45,80000,20,10000,40,9999,0.100000,0,0,0.000000,6,0.000000,0.000000,7.693061,0,0,0,0,0,0,0
8,89999,46,80000,0,0,49,9999,0.100000,0,0,0.000000,6,1.000000,0.000000,17.665967,0,0,0,0,0,0,0
8,89999,47,80000,83,10000,40,9999,0.100000,0,0,0.000000,6,0.000000,0.000000,0.352558,0,0,0,0,0,0,0
8,89999,48,80000,83,0,40,9999,0.100000,0,0,0.000000,6,0.000000,0.000000,0.333860,0,0,0,0,0,0,0
8,89999,49,80000,0,10000,49,9999,0.100000,0,0,0.000000,6,1.000000,0.000000,4.756902,0,0,0,0,0,0,0
8,89999,50,80000,0,10000,40,9999,0.100000,0,0,0.000000,6,0.000000,0.000000,0.919316,0,0,0,0,0,0,0
8,89999,51,80000,0,10000,40,9999,0.100000,0,0,0.000000,6,0.000000,0.000000,6.853961,0,0,0,0,0,0,0
8,89999,52,80000,83,0,40,9999,0.100000,0,0,0.000000,6,0.000000,0.000000,0.781297,0,0,0,0,0,0,0
8,89999,53,80000,78,30000,40,9999,0.100000,0,0,0.000000,6,0.000000,0.000000,0.371210,0,0,0,0,0,0,0
8,89999,54,80000,83,10000,40,9999,0.100000,0,0,0.000000,6,0.000000,0.000000,1.043073,0,0,0,0,0,0,0
8,89999,55,80000,78,30000,40,9999,0.100000,0,0,0.000000,6,0.000000,0.000000,0.240435,0,0,0,0,0,0,0
8,89999,56,80000,20,10000,40,9999,0.100000,0,0,0.000000,6,0.000000,0.000000,0.433668,0,0,0,0,0,0,0
8,89999,57,80000,78,30000,40,9999,0.100000,0,0,0.000000,6,0.000000,0.000000,0.425877,0,0,0,0,0,0,0
8,89999,58,80000,20,10000,40,9999,0.100000,0,0,0.000000,6,0.000000,0.000000,0.208587,0,0,0,0,0,0,0
8,89999,59,80000,78,30000,40,9999,0.100000,0,0,0.000000,6,0.000000,0.000000,7.173457,0,0,0,0,0,0,0
8,89999,60,80000,83,10000,40,9999,0.100000,0,0,0.000000,6,0.000000,0.000000,1.129571,0,0,0,0,0,0,0
8,89999,61,80000,20,10000,40,9999,0.100000,0,0,0.000000,6,0.000000,0.000000,1.052054,0,0,0,0,0,0,0
8,89999,62,80000,0,10000,40,9999,0.100000,0,0,0.000000,6,0.000000,0.000000,1.538506,0,0,0,0,0,0,0
8,89999,63,80000,0,0,49,9999,0.100000,0,0,0.000000,6,2.000000,0.000000,10.925100,0,0,0,0,0,0,0
8,89999,64,80000,78,30000,40,9999,0.100000,0,0,0.000000,6,0.000000,0.000000,1.047405,0,0,0,0,0,0,0
8,89999,65,80000,83,10000,49,9999,0.100000,0,0,0.000000,6,2.000000,0.000000,6.911896,0,0,0,0,0,0,0
8,89999,66,80000,83,10000,40,9999,0.100000,0,0,0.000000,6,0.000000,0.000000,0.690802,0,0,0,0,0,0,0
8,89999,67,80000,83,0,40,9999,0.100000,0,0,0.000000,6,0.000000,0.000000,0.383885,0,0,0,0,0,0,0
8,89999,68,80000,83,10000,40,9999,0.100000,0,0,0.000000,6,0.000000,0.000000,7.306659,0,0,0,0,0,0,0
8,89999,69,80000,83,10000,40,9999,0.100000,0,0,0.000000,6,0.000000,0.000000,0.863824,0,0,0,0,0,0,0
8,89999,70,80000,83,0,40,9999,0.100000,0,0,0.000000,6,0.000000,0.000000,6.193942,0,0,0,0,0,0,0
8,89999,71,80000,0,0,40,9999,0.100000,0,0,0.000000,6,0.000000,0.000000,0.517758,0,0,0,0,0,0,0
8,89999,72,80000,0,0,40,9999,0.100000,0,0,0.000000,6,0.000000,0.000000,0.092451,0,0,0,0,0,0,0
8,89999,73,80000,0,0,49,9999,0.100000,0,0,0.000000,6,2.000000,0.000000,18.952753,0,0,0,0,0,0,0
8,89999,74,80000,83,10000,40,9999,0.100000,0,0,0.000000,6,0.000000,0.000000,0.165686,0,0,0,0,0,0,0
8,89999,75,80000,78,30000,40,9999,0.100000,0,0,0.000000,6,0.000000,0.000000,0.121366,0,0,0,0,0,0,0
8,89999,76,80000,83,0,40,9999,0.100000,0,0,0.000000,6,0.000000,0.000000,3.136320,0,0,0,0,0,0,0
8,89999,77,80000,78,30000,40,9999,0.100000,0,0,0.000000,6,0.000000,0.000000,14.791047,0,0,0,0,0,0,0
8,89999,78,80000,83,10000,40,9999,0.100000,0,0,0.000000,6,0.000000,0.000000,0.131469,0,0,0,0,0,0,0
8,89999,79,80000,78,30000,40,9999,0.100000,0,0,0.000000,6,0.000000,0.000000,0.092054,0,0,0,0,0,0,0
8,89999,80,80000,78,30000,49,9999,0.100000,0,0,0.000000,6,2.000000,0.000000,10.062045,0,0,0,0,0,0,0
8,89999,81,80000,83,0,40,9999,0.100000,0,0,0.000000,6,0.000000,0.000000,0.128443,0,0,0,0,0,0,0
8,89999,82,80000,83,0,40,9999,0.100000,0,0,0.000000,6,0.000000,0.000000,0.089722,0,0,0,0,0,0,0
8,89999,83,80000,78,30000,40,9999,0.100000,0,0,0.000000,6,0.000000,0.000000,0.555901,0,0,0,0,0,0,0
8,89999,84,80000,0,10000,40,9999,0.100000,0,0,0.000000,6,0.000000,0.000000,1.930577,0,0,0,0,0,0,0
8,89999,85,80000,20,10000,49,9999,0.100000,0,0,0.000000,6,1.000000,0.000000,4.839456,0,0,0,0,0,0,0
8,89999,86,80000,0,0,40,9999,0.100000,0,0,0.000000,6,0.000000,0.000000,0.353136,0,0,0,0,0,0,0
8,89999,87,80000,83,0,40,9999,0.100000,0,0,0.000000,6,0.000000,0.000000,0.147404,0,0,0,0,0,0,0
8,89999,88,80000,0,10000,40,9999,0.100000,0,0,0.000000,6,0.000000,0.000000,2.716432,0,0,0,0,0,0,0
8,89999,89,80000,83,10000,40,9999,0.100000,0,0,0.000000,6,0.000000,0.000000,0.709387,0,0,0,0,0,0,0
8,89999,90,80000,83,10000,40,9999,0.100000,0,0,0.000000,6,0.000000,0.000000,0.148161,0,0,0,0,0,0,0
8,89999,91,80000,0,10000,49,9999,0.100000,0,0,0.000000,6,1.000000,0.000000,7.218230,0,0,0,0,0,0,0
8,89999,92,80000,0,0,40,9999,0.100000,0,0,0.000000,6,0.000000,0.000000,0.143339,0,0,0,0,0,0,0
8,89999,93,80000,20,10000,40,9999,0.100000,0,0,0.000000,6,0.000000,0.000000,0.591985,0,0,0,0,0,0,0
8,89999,94,80000,0,10000,49,9999,0.100000,0,0,0.000000,6,2.000000,0.000000,9.849747,0,0,0,0,0,0,0
8,89999,95,80000,0,0,40,9999,0.100000,0,0,0.000000,6,0.000000,0.000000,0.576046,0,0,0,0,0,0,0
8,89999,96,80000,78,30000,40,9999,0.100000,0,0,0.000000,6,0.000000,0.000000,8.063259,0,0,0,0,0,0,0
8,89999,97,80000,20,10000,40,9999,0.100000,0,0,0.000000,6,0.000000,0.000000,0.253601,0,0,0,0,0,0,0
8,89999,98,80000,0,10000,40,9999,0.100000,0,0,0.000000,6,0.000000,0.000000,23.912249,0,0,0,0,0,0,0
8,89999,99,80000,83,10000,40,9999,0.100000,0,0,0.000000,6,0.000000,0.000000,14.687913,0,0,0,0,0,0,0
9,99999,0,90000,83,0,40,9999,0.100000,0,0,0.000000,6,0.000000,0.000000,2.218636,0,0,0,0,0,0,0
9,99999,1,90000,83,0,9,9999,0.100000,0,0,0.000000,6,1.000000,0.000000,10.194103,0,0,0,0,0,1,0
9,99999,2,90000,83,0,40,9999,0.100000,0,0,0.000000,6,0.000000,0.000000,0.649046,0,0,0,0,0,0,0
9,99999,3,90000,20,10000,40,9999,0.100000,0,0,0.000000,6,0.000000,0.000000,2.392981,0,0,0,0,0,0,0
9,99999,4,90000,0,0,40,9999,0.100000,0,0,0.000000,6,0.000000,0.000000,2.098229,0,0,0,0,0,0,0
9,99999,5,90000,0,10000,40,9999,0.100000,0,0,0.000000,6,0.000000,0.000000,16.647272,0,0,0,0,0,0,0
9,99999,6,90000,78,30000,40,9999,0.100000,0,0,0.000000,6,0.000000,0.000000,2.297548,0,0,0,0,0,0,0
9,99999,7,90000,0,10000,40,9999,0.100000,0,0,0.000000,6,0.000000,0.000000,0.890543,0,0,0,0,0,0,0
9,99999,8,90000,20,10000,40,9999,0.100000,0,0,0.000000,6,0.000000,0.000000,0.587505,0,0,0,0,0,0,0
9,99999,9,90000,83,10000,40,9999,0.100000,0,0,0.000000,6,0.000000,0.000000,0.715296,0,0,0,0,0,0,0
9,99999,10,90000,78,30000,9,9999,0.100000,0,0,0.000000,6,8.000000,0.000000,18.090420,0,0,0,0,0,1,0
9,99999,11,90000,78,30000,40,9999,0.100000,0,0,0.000000,6,0.000000,0.000000,13.227159,0,0,0,0,0,0,0
9,99999,12,90000,20,10000,40,9999,0.100000,0,0,0.000000,6,0.000000,0.000000,1.485771,0,0,0,0,0,0,0
9,99999,13,90000,78,30000,40,9999,0.100000,0,0,0.000000,6,0.000000,0.000000,0.661571,0,0,0,0,0,0,0
9,99999,14,90000,78,30000,40,9999,0.100000,0,0,0.000000,6,0.000000,0.000000,0.259183,0,0,0,0,0,0,0
9,99999,15,90000,0,0,40,9999,0.100000,0,0,0.000000,6,0.000000,0.000000,0.104612,0,0,0,0,0,0,0
9,99999,16,90000,0,0,40,9999,0.100000,0,0,0.000000,6,0.000000,0.000000,5.465279,0,0,0,0,0,0,0
9,99999,17,90000,0,0,49,9999,0.100000,0,0,0.000000,6,1.000000,0.000000,3.465118,0,0,0,0,0,0,0
9,99999,18,90000,0,0,49,9999,0.100000,0,0,0.000000,6,1.000000,0.000000,7.272462,0,0,0,0,0,0,0
9,99999,19,90000,78,30000,40,9999,0.100000,0,0,0.000000,6,0.000000,0.000000,0.139580,0,0,0,0,0,0,0
9,99999,20,90000,83,0,40,9999,0.100000,0,0,0.000000,6,0.000000,0.000000,0.251546,0,0,0,0,0,0,0
9,99999,21,90000,83,0,49,9999,0.100000,0,0,0.000000,6,5.000000,0.000000,15.298396,0,0,0,0,0,0,0
9,99999,22,90000,83,0,40,9999,0.100000,0,0,0.000000,6,0.000000,0.000000,0.113956,0,0,0,0,0,0,0
9,99999,23,90000,83,10000,40,9999,0.100000,0,0,0.000000,6,0.000000,0.000000,0.108352,0,0,0,0,0,0,0
9,99999,24,90000,0,10000,40,9999,0.100000,0,0,0.000000,6,0.000000,0.000000,0.123157,0,0,0,0,0,0,0
9,99999,25,90000,83,0,49,9999,0.100000,0,0,0.000000,6,2.000000,0.000000,9.882807,0,0,0,0,0,0,0
9,99999,26,90000,83,10000,49,9999,0.100000,0,0,0.000000,6,2.000000,0.000000,5.265726,0,0,0,0,0,0,0
9,99999,27,90000,0,0,49,9999,0.100000,0,0,0.000000,6,1.000000,0.000000,6.979598,0,0,0,0,0,0,0
9,99999,28,90000,20,10000,40,9999,0.100000,0,0,0.000000,6,0.000000,0.000000,2.391825,0,0,0,0,0,0,0
9,99999,29,90000,0,10000,40,9999,0.135000,0,0,0.000000,6,0.000000,0.000000,0.090292,0,0,0,0,0,0,0
9,99999,30,90000,83,10000,49,9999,0.100000,0,0,0.000000,6,3.000000,0.000000,3.859840,0,0,0,0,0,0,0
9,99999,31,90000,20,10000,40,9999,0.100000,0,0,0.000000,6,0.000000,0.000000,0.106056,0,0,0,0,0,0,0
9,99999,32,90000,0,10000,40,9999,0.100000,0,0,0.000000,6,0.000000,0.000000,0.186182,0,0,0,0,0,0,0
9,99999,33,90000,20,10000,40,9999,0.100000,0,0,0.000000,6,0.000000,0.000000,1.425972,0,0,0,0,0,0,0
9,99999,34,90000,78,30000,40,9999,0.100000,0,0,0.000000,6,0.000000,0.000000,2.213932,0,0,0,0,0,0,0
9,99999,35,90000,20,10000,49,9999,0.100000,0,0,0.000000,6,1.000000,0.000000,3.793438,0,0,0,0,0,0,0
9,99999,36,90000,20,10000,40,9999,0.100000,0,0,0.000000,6,0.000000,0.000000,0.221186,0,0,0,0,0,0,0
9,99999,37,90000,78,30000,40,9999,0.100000,0,0,0.000000,6,0.000000,0.000000,18.998456,0,0,0,0,0,0,0
9,99999,38,90000,83,10000,40,9999,0.100000,0,0,0.000000,6,0.000000,0.000000,9.292429,0,0,0,0,0,0,0
9,99999,39,90000,20,10000,40,9999,0.100000,0,0,0.000000,6,0.000000,0.000000,8.887720,0,0,0,0,0,0,0
9,99999,40,90000,20,10000,40,9999,0.100000,0,0,0.000000,6,0.000000,0.000000,0.117837,0,0,0,0,0,0,0
9,99999,41,90000,20,10000,0,9999,0.100000,0,0,0.000000,6,0.000000,0.000000,7.695154,0,0,0,0,0,1,0
9,99999,42,90000,83,0,40,9999,0.100000,0,0,0.000000,6,0.000000,0.000000,19.120795,0,0,0,0,0,0,0
9,99999,43,90000,0,10000,40,9999,0.100000,0,0,0.000000,6,0.000000,0.000000,2.805866,0,0,0,0,0,0,0
9,99999,44,90000,83,0,40,9999,0.100000,0,0,0.000000,6,0.000000,0.000000,0.496988,0,0,0,0,0,0,0
9,99999,45,90000,78,30000,40,9999,0.100000,0,0,0.000000,6,0.000000,0.000000,6.727386,0,0,0,0,0,0,0
9,99999,46,90000,20,10000,40,9999,0.100000,0,0,0.000000,6,0.000000,0.000000,22.718182,0,0,0,0,0,0,0
9,99999,47,90000,78,30000,40,9999,0.100000,0,0,0.000000,6,0.000000,0.000000,0.409555,0,0,0,0,0,0,0
9,99999,48,90000,20,10000,40,9999,0.100000,0,0,0.000000,6,0.000000,0.000000,0.360345,0,0,0,0,0,0,0
9,99999,49,90000,0,10000,40,9999,0.100000,0,0,0.000000,6,0.000000,0.000000,1.252907,0,0,0,0,0,0,0
9,99999,50,90000,83,10000,40,9999,0.100000,0,0,0.000000,6,0.000000,0.000000,0.918013,0,0,0,0,0,0,0
9,99999,51,90000,78,30000,49,9999,0.100000,0,0,0.000000,6,3.000000,0.000000,5.440594,0,0,0,0,0,0,0
9,99999,52,90000,0,10000,40,9999,0.100000,0,0,0.000000,6,0.000000,0.000000,0.688902,0,0,0,0,0,0,0
9,99999,53,90000,78,30000,40,9999,0.100000,0,0,0.000000,6,0.000000,0.000000,0.243668,0,0,0,0,0,0,0
9,99999,54,90000,20,10000,49,9999,0.100000,0,0,0.000000,6,2.000000,0.000000,6.332520,0,0,0,0,0,0,0
9,99999,55,90000,83,10000,40,9999,0.100000,0,0,0.000000,6,0.000000,0.000000,0.231481,0,0,0,0,0,0,0
9,99999,56,90000,83,0,40,9999,0.100000,0,0,0.000000,6,0.000000,0.000000,0.455125,0,0,0,0,0,0,0
9,99999,57,90000,20,10000,40,9999,0.100000,0,0,0.000000,6,0.000000,0.000000,0.245427,0,0,0,0,0,0,0
9,99999,58,90000,83,0,40,9999,0.100000,0,0,0.000000,6,0.000000,0.000000,0.133025,0,0,0,0,0,0,0
9,99999,59,90000,20,10000,40,9999,0.100000,0,0,0.000000,6,0.000000,0.000000,8.054174,0,0,0,0,0,0,0
9,99999,60,90000,0,10000,40,9999,0.100000,0,0,0.000000,6,0.000000,0.000000,1.173692,0,0,0,0,0,0,0
9,99999,61,90000,83,10000,40,9999,0.100000,0,0,0.000000,6,0.000000,0.000000,0.810317,0,0,0,0,0,0,0
9,99999,62,90000,0,10000,49,9999,0.100000,0,0,0.000000,6,1.000000,0.000000,6.381740,0,0,0,0,0,0,0
9,99999,63,90000,78,30000,49,9999,0.100000,0,0,0.000000,6,3.000000,0.000000,3.878968,0,0,0,0,0,0,0
9,99999,64,90000,83,10000,49,9999,0.100000,0,0,0.000000,6,3.000000,0.000000,16.355286,0,0,0,0,0,0,0
9,99999,65,90000,20,10000,40,9999,0.100000,0,0,0.000000,6,0.000000,0.000000,0.984999,0,0,0,0,0,0,0
9,99999,66,90000,83,10000,40,9999,0.100000,0,0,0.000000,6,0.000000,0.000000,0.669722,0,0,0,0,0,0,0
9,99999,67,90000,83,0,9,9999,0.100000,0,0,0.000000,6,1.000000,0.000000,8.408090,0,0,0,0,0,1,0
9,99999,68,90000,83,0,40,9999,0.100000,0,0,0.000000,6,0.000000,0.000000,6.827186,0,0,0,0,0,0,0
9,99999,69,90000,0,10000,40,9999,0.100000,0,0,0.000000,6,0.000000,0.000000,0.839648,0,0,0,0,0,0,0
9,99999,70,90000,83,10000,40,9999,0.100000,0,0,0.000000,6,0.000000,0.000000,7.190881,0,0,0,0,0,0,0
9,99999,71,90000,78,30000,40,9999,0.100000,0,0,0.000000,6,0.000000,0.000000,1.936964,0,0,0,0,0,0,0
9,99999,72,90000,0,0,40,9999,0.100000,0,0,0.000000,6,0.000000,0.000000,0.115058,0,0,0,0,0,0,0
9,99999,73,90000,20,10000,49,9999,0.100000,0,0,0.000000,6,11.000000,0.000000,18.305268,0,0,0,0,0,0,0
9,99999,74,90000,78,30000,40,9999,0.100000,0,0,0.000000,6,0.000000,0.000000,0.177014,0,0,0,0,0,0,0
9,99999,75,90000,83,0,40,9999,0.100000,0,0,0.000000,6,0.000000,0.000000,0.146214,0,0,0,0,0,0,0
9,99999,76,90000,20,10000,40,9999,0.100000,0,0,0.000000,6,0.000000,0.000000,1.493929,0,0,0,0,0,0,0
9,99999,77,90000,20,10000,49,9999,0.100000,0,0,0.000000,6,1.000000,0.000000,2.871071,0,0,0,0,0,0,0
9,99999,78,90000,83,0,40,9999,0.100000,0,0,0.000000,6,0.000000,0.000000,0.124105,0,0,0,0,0,0,0
9,99999,79,90000,20,10000,40,9999,0.100000,0,0,0.000000,6,0.000000,0.000000,0.106882,0,0,0,0,0,0,0
9,99999,80,90000,83,0,40,9999,0.100000,0,0,0.000000,6,0.000000,0.000000,2.918117,0,0,0,0,0,0,0
9,99999,81,90000,20,10000,40,9999,0.100000,0,0,0.000000,6,0.000000,0.000000,0.127729,0,0,0,0,0,0,0
9,99999,82,90000,83,10000,40,9999,0.100000,0,0,0.000000,6,0.000000,0.000000,0.092863,0,0,0,0,0,0,0
9,99999,83,90000,83,0,40,9999,0.100000,0,0,0.000000,6,0.000000,0.000000,0.518774,0,0,0,0,0,0,0
9,99999,84,90000,83,10000,40,9999,0.100000,0,0,0.000000,6,0.000000,0.000000,1.764025,0,0,0,0,0,0,0
9,99999,85,90000,83,10000,40,9999,0.100000,0,0,0.000000,6,0.000000,0.000000,0.496789,0,0,0,0,0,0,0
9,99999,86,90000,0,10000,40,9999,0.100000,0,0,0.000000,6,0.000000,0.000000,0.501492,0,0,0,0,0,0,0
9,99999,87,90000,0,10000,40,9999,0.100000,0,0,0.000000,6,0.000000,0.000000,0.092609,0,0,0,0,0,0,0
9,99999,88,90000,0,0,40,9999,0.100000,0,0,0.000000,6,0.000000,0.000000,6.003176,0,0,0,0,0,0,0
9,99999,89,90000,0,10000,40,9999,0.100000,0,0,0.000000,6,0.000000,0.000000,0.590558,0,0,0,0,0,0,0
9,99999,90,90000,0,0,40,9999,0.100000,0,0,0.000000,6,0.000000,0.000000,0.328361,0,0,0,0,0,0,0
9,99999,91,90000,20,10000,49,9999,0.100000,0,0,0.000000,6,2.000000,0.000000,7.691605,0,0,0,0,0,0,0
9,99999,92,90000,78,30000,40,9999,0.100000,0,0,0.000000,6,0.000000,0.000000,0.112916,0,0,0,0,0,0,0
9,99999,93,90000,78,30000,40,9999,0.100000,0,0,0.000000,6,0.000000,0.000000,0.678567,0,0,0,0,0,0,0
9,99999,94,90000,83,10000,49,9999,0.100000,0,0,0.000000,6,6.000000,0.000000,13.593610,0,0,0,0,0,0,0
9,99999,95,90000,0,10000,40,9999,0.100000,0,0,0.000000,6,0.000000,0.000000,0.591083,0,0,0,0,0,0,0
9,99999,96,90000,20,10000,49,9999,0.100000,0,0,0.000000,6,2.000000,0.000000,21.065768,0,0,0,0,0,0,0
9,99999,97,90000,0,10000,40,9999,0.100000,0,0,0.000000,6,0.000000,0.000000,0.434553,0,0,0,0,0,0,0
9,99999,98,90000,0,0,40,9999,0.100000,0,0,0.000000,6,0.000000,0.000000,23.914128,0,0,0,0,0,0,0
9,99999,99,90000,0,10000,49,9999,0.100000,0,0,0.000000,6,1.000000,0.000000,8.261354,0,0,0,0,0,0,0
10,109999,0,100000,0,0,49,9999,0.100000,0,0,0.000000,6,5.000000,0.000000,13.086049,0,0,0,0,0,0,0
10,109999,1,100000,83,0,40,9999,0.100000,0,0,0.000000,6,0.000000,0.000000,7.362114,0,0,0,0,0,0,0
10,109999,2,100000,78,30000,49,9999,0.100000,0,0,0.000000,6,13.000000,0.000000,15.914578,0,0,0,0,0,0,0
10,109999,3,100000,0,0,40,9999,0.100000,0,0,0.000000,6,0.000000,0.000000,1.532294,0,0,0,0,0,0,0
10,109999,4,100000,0,0,40,9999,0.100000,0,0,0.000000,6,0.000000,0.000000,1.428834,0,0,0,0,0,0,0
10,109999,5,100000,83,0,49,9999,0.100000,0,0,0.000000,6,3.000000,0.000000,14.082220,0,0,0,0,0,0,0
10,109999,6,100000,83,0,40,9999,0.100000,0,0,0.000000,6,0.000000,0.000000,1.669539,0,0,0,0,0,0,0
10,109999,7,100000,83,10000,40,9999,0.100000,0,0,0.000000,6,0.000000,0.000000,0.950802,0,0,0,0,0,0,0
10,109999,8,100000,78,30000,40,9999,0.100000,0,0,0.000000,6,0.000000,0.000000,4.500827,0,0,0,0,0,0,0
10,109999,9,100000,20,10000,40,9999,0.100000,0,0,0.000000,6,0.000000,0.000000,0.702777,0,0,0,0,0,0,0
10,109999,10,100000,20,10000,49,9999,0.100000,0,0,0.000000,6,3.000000,0.000000,8.756723,0,0,0,0,0,0,0
10,109999,11,100000,83,10000,40,9999,0.100000,0,0,0.000000,6,0.000000,0.000000,11.630526,0,0,0,0,0,0,0
10,109999,12,100000,0,10000,40,9999,0.100000,0,0,0.000000,6,0.000000,0.000000,1.027984,0,0,0,0,0,0,0
10,109999,13,100000,0,0,40,9999,0.100000,0,0,0.000000,6,0.000000,0.000000,0.776515,0,0,0,0,0,0,0
10,109999,14,100000,0,0,40,9999,0.100000,0,0,0.000000,6,0.000000,0.000000,0.294723,0,0,0,0,0,0,0
10,109999,15,100000,83,10000,40,9999,0.100000,0,0,0.000000,6,0.000000,0.000000,0.102714,0,0,0,0,0,0,0
10,109999,16,100000,83,10000,40,9999,0.100000,0,0,0.000000,6,0.000000,0.000000,5.733545,0,0,0,0,0,0,0
10,109999,17,100000,20,10000,40,9999,0.100000,0,0,0.000000,6,0.000000,0.000000,3.699079,0,0,0,0,0,0,0
10,109999,18,100000,20,10000,40,9999,0.100000,0,0,0.000000,6,0.000000,0.000000,9.498006,0,0,0,0,0,0,0
10,109999,19,100000,0,10000,40,9999,0.100000,0,0,0.000000,6,0.000000,0.000000,0.140123,0,0,0,0,0,0,0
10,109999,20,100000,78,30000,40,9999,0.100000,0,0,0.000000,6,0.000000,0.000000,0.164707,0,0,0,0,0,0,0
10,109999,21,100000,78,30000,49,9999,0.100000,0,0,0.000000,6,1.000000,0.000000,12.208594,0,0,0,0,0,0,0
10,109999,22,100000,20,10000,40,9999,0.100000,0,0,0.000000,6,0.000000,0.000000,0.079262,0,0,0,0,0,0,0
10,109999,23,100000,83,0,40,9999,0.100000,0,0,0.000000,6,0.000000,0.000000,0.143164,0,0,0,0,0,0,0
10,109999,24,100000,78,30000,40,9999,0.100000,0,0,0.000000,6,0.000000,0.000000,0.117287,0,0,0,0,0,0,0
10,109999,25,100000,20,10000,49,9999,0.100000,0,0,0.000000,6,1.000000,0.000000,5.032650,0,0,0,0,0,0,0
10,109999,26,100000,78,30000,40,9999,0.100000,0,0,0.000000,6,0.000000,0.000000,7.928176,0,0,0,0,0,0,0
10,109999,27,100000,83,0,40,9999,0.100000,0,0,0.000000,6,0.000000,0.000000,6.343038,0,0,0,0,0,0,0
10,109999,28,100000,78,30000,40,9999,0.100000,0,0,0.000000,6,0.000000,0.000000,1.498254,0,0,0,0,0,0,0
10,109999,29,100000,0,10000,40,9999,0.100000,0,0,0.000000,6,0.000000,0.000000,0.085213,0,0,0,0,0,0,0
10,109999,30,100000,83,0,40,9999,0.100000,0,0,0.000000,6,0.000000,0.000000,1.101681,0,0,0,0,0,0,0
10,109999,31,100000,0,0,40,9999,0.100000,0,0,0.000000,6,0.000000,0.000000,0.118140,0,0,0,0,0,0,0
10,109999,32,100000,78,30000,40,9999,0.100000,0,0,0.000000,6,0.000000,0.000000,0.702688,0,0,0,0,0,0,0
10,109999,33,100000,0,10000,49,9999,0.100000,0,0,0.000000,6,11.000000,0.000000,19.225952,0,0,0,0,0,0,0
10,109999,34,100000,20,10000,40,9999,0.100000,0,0,0.000000,6,0.000000,0.000000,1.062180,0,0,0,0,0,0,0
10,109999,35,100000,0,0,40,9999,0.100000,0,0,0.000000,6,0.000000,0.000000,2.577431,0,0,0,0,0,0,0
10,109999,36,100000,0,0,40,9999,0.100000,0,0,0.000000,6,0.000000,0.000000,0.139989,0,0,0,0,0,0,0
10,109999,37,100000,83,0,49,9999,0.100000,0,0,0.000000,6,4.000000,0.000000,14.959210,0,0,0,0,0,0,0
10,109999,38,100000,83,0,40,9999,0.100000,0,0,0.000000,6,0.000000,0.000000,5.979961,0,0,0,0,0,0,0
10,109999,39,100000,83,0,40,9999,0.100000,0,0,0.000000,6,0.000000,0.000000,0.251815,0,0,0,0,0,0,0
10,109999,40,100000,83,10000,40,9999,0.100000,0,0,0.000000,6,0.000000,0.000000,0.112229,0,0,0,0,0,0,0
10,109999,41,100000,78,30000,40,9999,0.065000,0,0,0.000000,6,0.000000,0.000000,7.607133,0,0,0,0,0,0,0
10,109999,42,100000,83,10000,49,9999,0.100000,0,0,0.000000,6,2.000000,0.000000,3.758092,0,0,0,0,0,0,0
10,109999,43,100000,83,0,49,9999,0.100000,0,0,0.000000,6,3.000000,0.000000,9.103969,0,0,0,0,0,0,0
10,109999,44,100000,78,30000,40,9999,0.135000,0,0,0.000000,6,0.000000,0.000000,0.708273,0,0,0,0,0,0,0
10,109999,45,100000,78,30000,40,9999,0.100000,0,0,0.000000,6,0.000000,0.000000,7.038285,0,0,0,0,0,0,0
10,109999,46,100000,83,10000,40,9999,0.100000,0,0,0.000000,6,0.000000,0.000000,23.108594,0,0,0,0,0,0,0
10,109999,47,100000,20,10000,40,9999,0.100000,0,0,0.000000,6,0.000000,0.000000,0.435404,0,0,0,0,0,0,0
10,109999,48,100000,83,10000,40,9999,0.100000,0,0,0.000000,6,0.000000,0.000000,0.329859,0,0,0,0,0,0,0
10,109999,49,100000,0,10000,40,9999,0.100000,0,0,0.000000,6,0.000000,0.000000,1.056490,0,0,0,0,0,0,0
10,109999,50,100000,0,10000,49,9999,0.100000,0,0,0.000000,6,3.000000,0.000000,11.256234,0,0,0,0,0,0,0
10,109999,51,100000,83,10000,40,9999,0.100000,0,0,0.000000,6,0.000000,0.000000,2.752191,0,0,0,0,0,0,0
10,109999,52,100000,0,10000,40,9999,0.100000,0,0,0.000000,6,0.000000,0.000000,0.663022,0,0,0,0,0,0,0
10,109999,53,100000,20,10000,40,9999,0.100000,0,0,0.000000,6,0.000000,0.000000,0.208407,0,0,0,0,0,0,0
10,109999,54,100000,20,10000,49,9999,0.100000,0,0,0.000000,6,2.000000,0.000000,13.579647,0,0,0,0,0,0,0
10,109999,55,100000,0,0,40,9999,0.100000,0,0,0.000000,6,0.000000,0.000000,0.242353,0,0,0,0,0,0,0
10,109999,56,100000,0,0,40,9999,0.100000,0,0,0.000000,6,0.000000,0.000000,0.551027,0,0,0,0,0,0,0
10,109999,57,100000,20,10000,40,9999,0.100000,0,0,0.000000,6,0.000000,0.000000,0.216519,0,0,0,0,0,0,0
10,109999,58,100000,0,10000,40,9999,0.100000,0,0,0.000000,6,0.000000,0.000000,0.098281,0,0,0,0,0,0,0
10,109999,59,100000,78,30000,49,9999,0.100000,0,0,0.000000,6,1.000000,0.000000,6.480912,0,0,0,0,0,0,0
10,109999,60,100000,0,0,49,9999,0.100000,0,0,0.000000,6,3.000000,0.000000,7.619362,0,0,0,0,0,0,0
10,109999,61,100000,83,0,40,9999,0.100000,0,0,0.000000,6,0.000000,0.000000,0.428569,0,0,0,0,0,0,0
10,109999,62,100000,78,30000,49,9999,0.100000,0,0,0.000000,6,1.000000,0.000000,10.927894,0,0,0,0,0,0,0
10,109999,63,100000,0,0,40,9999,0.100000,0,0,0.000000,6,0.000000,0.000000,0.823666,0,0,0,0,0,0,0
10,109999,64,100000,83,0,49,9999,0.100000,0,0,0.000000,6,1.000000,0.000000,10.147109,0,0,0,0,0,0,0
10,109999,65,100000,83,10000,40,9999,0.100000,0,0,0.000000,6,0.000000,0.000000,0.944507,0,0,0,0,0,0,0
10,109999,66,100000,83,0,40,9999,0.100000,0,0,0.000000,6,0.000000,0.000000,0.657223,0,0,0,0,0,0,0
10,109999,67,100000,83,10000,40,9999,0.100000,0,0,0.000000,6,0.000000,0.000000,8.082532,0,0,0,0,0,0,0
10,109999,68,100000,0,0,49,9999,0.100000,0,0,0.000000,6,1.000000,0.000000,5.041498,0,0,0,0,0,0,0
10,109999,69,100000,83,10000,40,9999,0.100000,0,0,0.000000,6,0.000000,0.000000,0.853460,0,0,0,0,0,0,0
10,109999,70,100000,83,10000,40,9999,0.100000,0,0,0.000000,6,0.000000,0.000000,7.244707,0,0,0,0,0,0,0
10,109999,71,100000,83,0,40,9999,0.100000,0,0,0.000000,6,0.000000,0.000000,2.350937,0,0,0,0,0,0,0
10,109999,72,100000,0,0,49,9999,0.100000,0,0,0.000000,6,2.000000,0.000000,4.684603,0,0,0,0,0,0,0
10,109999,73,100000,83,0,49,9999,0.100000,0,0,0.000000,6,3.000000,0.000000,9.425858,0,0,0,0,0,0,0
10,109999,74,100000,0,0,40,9999,0.100000,0,0,0.000000,6,0.000000,0.000000,0.175762,0,0,0,0,0,0,0
10,109999,75,100000,0,0,49,9999,0.100000,0,0,0.000000,6,2.000000,0.000000,2.639705,0,0,0,0,0,0,0
10,109999,76,100000,83,10000,49,9999,0.100000,0,0,0.000000,6,3.000000,0.000000,8.893718,0,0,0,0,0,0,0
10,109999,77,100000,83,0,49,9999,0.100000,0,0,0.000000,6,2.000000,0.000000,11.336222,0,0,0,0,0,0,0
10,109999,78,100000,0,10000,40,9999,0.100000,0,0,0.000000,6,0.000000,0.000000,0.127673,0,0,0,0,0,0,0
10,109999,79,100000,78,30000,49,9999,0.100000,0,0,0.000000,6,1.000000,0.000000,1.493989,0,0,0,0,0,0,0
10,109999,80,100000,78,30000,40,9999,0.100000,0,0,0.000000,6,0.000000,0.000000,1.682366,0,0,0,0,0,0,0
10,109999,81,100000,20,10000,40,9999,0.100000,0,0,0.000000,6,0.000000,0.000000,0.123448,0,0,0,0,0,0,0
10,109999,82,100000,0,10000,40,9999,0.100000,0,0,0.000000,6,0.000000,0.000000,0.097634,0,0,0,0,0,0,0
10,109999,83,100000,78,30000,40,9999,0.100000,0,0,0.000000,6,0.000000,0.000000,0.529090,0,0,0,0,0,0,0
10,109999,84,100000,83,10000,40,9999,0.100000,0,0,0.000000,6,0.000000,0.000000,1.568332,0,0,0,0,0,0,0
10,109999,85,100000,83,10000,40,9999,0.100000,0,0,0.000000,6,0.000000,0.000000,0.387032,0,0,0,0,0,0,0
10,109999,86,100000,78,30000,40,9999,0.100000,0,0,0.000000,6,0.000000,0.000000,0.681891,0,0,0,0,0,0,0
10,109999,87,100000,0,10000,40,9999,0.100000,0,0,0.000000,6,0.000000,0.000000,0.074371,0,0,0,0,0,0,0
10,109999,88,100000,0,0,40,9999,0.100000,0,0,0.000000,6,0.000000,0.000000,6.180689,0,0,0,0,0,0,0
10,109999,89,100000,20,10000,40,9999,0.100000,0,0,0.000000,6,0.000000,0.000000,0.912648,0,0,0,0,0,0,0
10,109999,90,100000,20,10000,40,9999,0.135000,0,0,0.000000,6,0.000000,0.000000,0.222801,0,0,0,0,0,0,0
10,109999,91,100000,78,30000,49,9999,0.100000,0,0,0.000000,6,2.000000,0.000000,12.256883,0,0,0,0,0,0,0
10,109999,92,100000,0,0,40,9999,0.100000,0,0,0.000000,6,0.000000,0.000000,0.338241,0,0,0,0,0,0,0
10,109999,93,100000,0,0,40,9999,0.100000,0,0,0.000000,6,0.000000,0.000000,0.551529,0,0,0,0,0,0,0
10,109999,94,100000,78,30000,40,9999,0.100000,0,0,0.000000,6,0.000000,0.000000,0.225582,0,0,0,0,0,0,0
10,109999,95,100000,20,10000,40,9999,0.100000,0,0,0.000000,6,0.000000,0.000000,0.600464,0,0,0,0,0,0,0
10,109999,96,100000,0,0,40,9999,0.100000,0,0,0.000000,6,0.000000,0.000000,6.871165,0,0,0,0,0,0,0
10,109999,97,100000,0,0,40,9999,0.100000,0,0,0.000000,6,0.000000,0.000000,0.649813,0,0,0,0,0,0,0
10,109999,98,100000,20,10000,40,9999,0.100000,0,0,0.000000,6,0.000000,0.000000,23.820177,0,0,0,0,0,0,0
10,109999,99,100000,83,0,40,9999,0.100000,0,0,0.000000,6,0.000000,0.000000,6.981956,0,0,0,0,0,0,0
11,119999,0,110000,78,30000,49,9999,0.100000,0,0,0.000000,6,1.000000,0.000000,3.610243,0,0,0,0,0,0,0
11,119999,1,110000,78,30000,40,9999,0.100000,0,0,0.000000,6,0.000000,0.000000,7.980709,0,0,0,0,0,0,0
11,119999,2,110000,0,10000,40,9999,0.100000,0,0,0.000000,6,0.000000,0.000000,2.766328,0,0,0,0,0,0,0
11,119999,3,110000,83,0,40,9999,0.100000,0,0,0.000000,6,0.000000,0.000000,1.597310,0,0,0,0,0,0,0
11,119999,4,110000,83,0,40,9999,0.100000,0,0,0.000000,6,0.000000,0.000000,1.689620,0,0,0,0,0,0,0
11,119999,5,110000,83,0,40,9999,0.100000,0,0,0.000000,6,0.000000,0.000000,2.908925,0,0,0,0,0,0,0
11,119999,6,110000,83,10000,49,9999,0.100000,0,0,0.000000,6,3.000000,0.000000,10.218635,0,0,0,0,0,0,0
11,119999,7,110000,83,0,49,9999,0.100000,0,0,0.000000,6,1.000000,0.000000,2.967946,0,0,0,0,0,0,0
11,119999,8,110000,0,0,40,9999,0.100000,0,0,0.000000,6,0.000000,0.000000,1.826577,0,0,0,0,0,0,0
11,119999,9,110000,78,30000,40,9999,0.100000,0,0,0.000000,6,0.000000,0.000000,0.788491,0,0,0,0,0,0,0
11,119999,10,110000,0,10000,40,9999,0.100000,0,0,0.000000,6,0.000000,0.000000,1.699635,0,0,0,0,0,0,0
11,119999,11,110000,0,10000,40,9999,0.100000,0,0,0.000000,6,0.000000,0.000000,14.299943,0,0,0,0,0,0,0
11,119999,12,110000,83,0,40,9999,0.100000,0,0,0.000000,6,0.000000,0.000000,0.992300,0,0,0,0,0,0,0
11,119999,13,110000,0,0,49,9999,0.100000,0,0,0.000000,6,1.000000,0.000000,1.691006,0,0,0,0,0,0,0
11,119999,14,110000,83,0,40,9999,0.100000,0,0,0.000000,6,0.000000,0.000000,0.299186,0,0,0,0,0,0,0
11,119999,15,110000,83,10000,40,9999,0.100000,0,0,0.000000,6,0.000000,0.000000,0.099113,0,0,0,0,0,0,0
11,119999,16,110000,83,10000,40,9999,0.100000,0,0,0.000000,6,0.000000,0.000000,1.191067,0,0,0,0,0,0,0
11,119999,17,110000,83,0,49,9999,0.100000,0,0,0.000000,6,1.000000,0.000000,5.946540,0,0,0,0,0,0,0
11,119999,18,110000,0,0,49,9999,0.100000,0,0,0.000000,6,1.000000,0.000000,10.732411,0,0,0,0,0,0,0
11,119999,19,110000,20,10000,40,9999,0.100000,0,0,0.000000,6,0.000000,0.000000,0.141607,0,0,0,0,0,0,0
11,119999,20,110000,0,0,49,9999,0.100000,0,0,0.000000,6,1.000000,0.000000,1.911847,0,0,0,0,0,0,0
11,119999,21,110000,78,30000,49,9999,0.100000,0,0,0.000000,6,2.000000,0.000000,15.888929,0,0,0,0,0,0,0
11,119999,22,110000,0,10000,40,9999,0.100000,0,0,0.000000,6,0.000000,0.000000,0.081196,0,0,0,0,0,0,0
11,119999,23,110000,20,10000,40,9999,0.100000,0,0,0.000000,6,0.000000,0.000000,0.124194,0,0,0,0,0,0,0
11,119999,24,110000,83,10000,40,9999,0.100000,0,0,0.000000,6,0.000000,0.000000,0.110968,0,0,0,0,0,0,0
11,119999,25,110000,83,10000,49,9999,0.100000,0,0,0.000000,6,1.000000,0.000000,14.145025,0,0,0,0,0,0,0
11,119999,26,110000,20,10000,49,9999,0.100000,0,0,0.000000,6,2.000000,0.000000,5.719067,0,0,0,0,0,0,0
11,119999,27,110000,0,10000,40,9999,0.100000,0,0,0.000000,6,0.000000,0.000000,5.810219,0,0,0,0,0,0,0
11,119999,28,110000,78,30000,40,9999,0.100000,0,0,0.000000,6,0.000000,0.000000,1.591201,0,0,0,0,0,0,0
11,119999,29,110000,83,10000,40,9999,0.100000,0,0,0.000000,6,0.000000,0.000000,0.084900,0,0,0,0,0,0,0
11,119999,30,110000,20,10000,49,9999,0.100000,0,0,0.000000,6,2.000000,0.000000,8.604717,0,0,0,0,0,0,0
11,119999,31,110000,20,10000,40,9999,0.100000,0,0,0.000000,6,0.000000,0.000000,0.165865,0,0,0,0,0,0,0
11,119999,32,110000,83,0,40,9999,0.100000,0,0,0.000000,6,0.000000,0.000000,0.385934,0,0,0,0,0,0,0
11,119999,33,110000,20,10000,40,9999,0.100000,0,0,0.000000,6,0.000000,0.000000,23.954509,0,0,0,0,0,0,0
11,119999,34,110000,78,30000,40,9999,0.100000,0,0,0.000000,6,0.000000,0.000000,0.803475,0,0,0,0,0,0,0
11,119999,35,110000,0,10000,40,9999,0.100000,0,0,0.000000,6,0.000000,0.000000,1.725326,0,0,0,0,0,0,0
11,119999,36,110000,83,0,49,9999,0.100000,0,0,0.000000,6,1.000000,0.000000,1.982882,0,0,0,0,0,0,0
11,119999,37,110000,83,0,40,9999,0.100000,0,0,0.000000,6,0.000000,0.000000,1.984007,0,0,0,0,0,0,0
11,119999,38,110000,83,0,40,9999,0.100000,0,0,0.000000,6,0.000000,0.000000,8.246380,0,0,0,0,0,0,0
11,119999,39,110000,20,10000,40,9999,0.100000,0,0,0.000000,6,0.000000,0.000000,0.232425,0,0,0,0,0,0,0
11,119999,40,110000,0,0,40,9999,0.100000,0,0,0.000000,6,0.000000,0.000000,0.120981,0,0,0,0,0,0,0
11,119999,41,110000,0,0,49,9999,0.100000,0,0,0.000000,6,1.000000,0.000000,5.430929,0,0,0,0,0,0,0
11,119999,42,110000,78,30000,49,9999,0.100000,0,0,0.000000,6,1.000000,0.000000,2.185229,0,0,0,0,0,0,0
11,119999,43,110000,0,10000,40,9999,0.100000,0,0,0.000000,6,0.000000,0.000000,2.885266,0,0,0,0,0,0,0
11,119999,44,110000,78,30000,40,9999,0.100000,0,0,0.000000,6,0.000000,0.000000,1.917203,0,0,0,0,0,0,0
11,119999,45,110000,78,30000,40,9999,0.100000,0,0,0.000000,6,0.000000,0.000000,6.211477,0,0,0,0,0,0,0
11,119999,46,110000,83,0,49,9999,0.100000,0,0,0.000000,6,1.000000,0.000000,10.801495,0,0,0,0,0,0,0
11,119999,47,110000,0,0,40,9999,0.100000,0,0,0.000000,6,0.000000,0.000000,0.625951,0,0,0,0,0,0,0
11,119999,48,110000,20,10000,40,9999,0.100000,0,0,0.000000,6,0.000000,0.000000,0.337136,0,0,0,0,0,0,0
11,119999,49,110000,83,10000,40,9999,0.100000,0,0,0.000000,6,0.000000,0.000000,0.965335,0,0,0,0,0,0,0
11,119999,50,110000,20,10000,40,9999,0.100000,0,0,0.000000,6,0.000000,0.000000,1.902576,0,0,0,0,0,0,0
11,119999,51,110000,0,0,40,9999,0.100000,0,0,0.000000,6,0.000000,0.000000,2.270037,0,0,0,0,0,0,0
11,119999,52,110000,83,0,40,9999,0.100000,0,0,0.000000,6,0.000000,0.000000,0.688388,0,0,0,0,0,0,0
11,119999,53,110000,83,10000,40,9999,0.100000,0,0,0.000000,6,0.000000,0.000000,0.214215,0,0,0,0,0,0,0
11,119999,54,110000,0,0,40,9999,0.100000,0,0,0.000000,6,0.000000,0.000000,0.395467,0,0,0,0,0,0,0
11,119999,55,110000,20,10000,40,9999,0.135000,0,0,0.000000,6,0.000000,0.000000,0.239261,0,0,0,0,0,0,0
11,119999,56,110000,78,30000,40,9999,0.100000,0,0,0.000000,6,0.000000,0.000000,0.488092,0,0,0,0,0,0,0
11,119999,57,110000,20,10000,40,9999,0.100000,0,0,0.000000,6,0.000000,0.000000,0.256005,0,0,0,0,0,0,0
11,119999,58,110000,20,10000,40,9999,0.100000,0,0,0.000000,6,0.000000,0.000000,0.098365,0,0,0,0,0,0,0
11,119999,59,110000,78,30000,40,9999,0.100000,0,0,0.000000,6,0.000000,0.000000,3.310242,0,0,0,0,0,0,0
11,119999,60,110000,0,0,40,9999,0.100000,0,0,0.000000,6,0.000000,0.000000,1.961765,0,0,0,0,0,0,0
11,119999,61,110000,0,0,40,9999,0.100000,0,0,0.000000,6,0.000000,0.000000,0.566019,0,0,0,0,0,0,0
11,119999,62,110000,78,30000,49,9999,0.100000,0,0,0.000000,6,4.000000,0.000000,12.592229,0,0,0,0,0,0,0
11,119999,63,110000,20,10000,49,9999,0.100000,0,0,0.000000,6,4.000000,0.000000,14.878754,0,0,0,0,0,0,0
11,119999,64,110000,0,0,49,9999,0.100000,0,0,0.000000,6,2.000000,0.000000,10.092413,0,0,0,0,0,0,0
11,119999,65,110000,20,10000,40,9999,0.100000,0,0,0.000000,6,0.000000,0.000000,0.884719,0,0,0,0,0,0,0
11,119999,66,110000,83,10000,40,9999,0.100000,0,0,0.000000,6,0.000000,0.000000,0.648685,0,0,0,0,0,0,0
11,119999,67,110000,20,10000,40,9999,0.100000,0,0,0.000000,6,0.000000,0.000000,9.658722,0,0,0,0,0,0,0
11,119999,68,110000,83,0,40,9999,0.100000,0,0,0.000000,6,0.000000,0.000000,0.344040,0,0,0,0,0,0,0
11,119999,69,110000,78,30000,40,9999,0.100000,0,0,0.000000,6,0.000000,0.000000,0.840651,0,0,0,0,0,0,0
11,119999,70,110000,20,10000,40,9999,0.100000,0,0,0.000000,6,0.000000,0.000000,7.972927,0,0,0,0,0,0,0
11,119999,71,110000,83,10000,40,9999,0.100000,0,0,0.000000,6,0.000000,0.000000,0.215176,0,0,0,0,0,0,0
11,119999,72,110000,83,10000,40,9999,0.100000,0,0,0.000000,6,0.000000,0.000000,1.361856,0,0,0,0,0,0,0
11,119999,73,110000,0,0,49,9999,0.100000,0,0,0.000000,6,3.000000,0.000000,5.940168,0,0,0,0,0,0,0
11,119999,74,110000,0,0,40,9999,0.100000,0,0,0.000000,6,0.000000,0.000000,0.171450,0,0,0,0,0,0,0
11,119999,75,110000,83,10000,49,9999,0.100000,0,0,0.000000,6,1.000000,0.000000,2.187720,0,0,0,0,0,0,0
11,119999,76,110000,83,0,40,9999,0.065000,0,0,0.000000,6,0.000000,0.000000,1.143036,0,0,0,0,0,0,0
11,119999,77,110000,78,30000,40,9999,0.100000,0,0,0.000000,6,0.000000,0.000000,3.090958,0,0,0,0,0,0,0
11,119999,78,110000,20,10000,40,9999,0.100000,0,0,0.000000,6,0.000000,0.000000,0.126672,0,0,0,0,0,0,0
11,119999,79,110000,0,0,49,9999,0.100000,0,0,0.000000,6,1.000000,0.000000,2.145785,0,0,0,0,0,0,0
11,119999,80,110000,20,10000,49,9999,0.100000,0,0,0.000000,6,3.000000,0.000000,10.259894,0,0,0,0,0,0,0
11,119999,81,110000,78,30000,40,9999,0.100000,0,0,0.000000,6,0.000000,0.000000,0.126379,0,0,0,0,0,0,0
11,119999,82,110000,0,10000,40,9999,0.100000,0,0,0.000000,6,0.000000,0.000000,0.109519,0,0,0,0,0,0,0
11,119999,83,110000,83,0,40,9999,0.100000,0,0,0.000000,6,0.000000,0.000000,0.516399,0,0,0,0,0,0,0
11,119999,84,110000,0,10000,40,9999,0.100000,0,0,0.000000,6,0.000000,0.000000,1.677384,0,0,0,0,0,0,0
11,119999,85,110000,0,0,49,9999,0.100000,0,0,0.000000,6,1.000000,0.000000,1.787755,0,0,0,0,0,0,0
11,119999,86,110000,0,10000,40,9999,0.100000,0,0,0.000000,6,0.000000,0.000000,0.721526,0,0,0,0,0,0,0
11,119999,87,110000,83,10000,40,9999,0.100000,0,0,0.000000,6,0.000000,0.000000,0.077320,0,0,0,0,0,0,0
11,119999,88,110000,83,10000,40,9999,0.100000,0,0,0.000000,6,0.000000,0.000000,6.468684,0,0,0,0,0,0,0
11,119999,89,110000,20,10000,40,9999,0.100000,0,0,0.000000,6,0.000000,0.000000,1.257019,0,0,0,0,0,0,0
11,119999,90,110000,0,0,49,9999,0.135000,0,0,0.000000,6,1.000000,0.000000,1.839252,0,0,0,0,0,0,0
11,119999,91,110000,20,10000,40,9999,0.100000,0,0,0.000000,6,0.000000,0.000000,5.588893,0,0,0,0,0,0,0
11,119999,92,110000,78,30000,40,9999,0.100000,0,0,0.000000,6,0.000000,0.000000,0.331460,0,0,0,0,0,0,0
11,119999,93,110000,0,0,40,9999,0.100000,0,0,0.000000,6,0.000000,0.000000,0.539705,0,0,0,0,0,0,0
11,119999,94,110000,20,10000,40,9999,0.100000,0,0,0.000000,6,0.000000,0.000000,0.235551,0,0,0,0,0,0,0
11,119999,95,110000,20,10000,40,9999,0.100000,0,0,0.000000,6,0.000000,0.000000,2.832202,0,0,0,0,0,0,0
11,119999,96,110000,20,10000,49,9999,0.100000,0,0,0.000000,6,1.000000,0.000000,11.408476,0,0,0,0,0,0,0
11,119999,97,110000,0,0,40,9999,0.100000,0,0,0.000000,6,0.000000,0.000000,0.108322,0,0,0,0,0,0,0
11,119999,98,110000,0,10000,40,9999,0.100000,0,0,0.000000,6,0.000000,0.000000,23.597182,0,0,0,0,0,0,0
11,119999,99,110000,0,0,40,9999,0.100000,0,0,0.000000,6,0.000000,0.000000,0.398146,0,0,0,0,0,0,0
12,129999,0,120000,20,10000,49,9999,0.100000,0,0,0.000000,6,1.000000,0.000000,5.699101,0,0,0,0,0,0,0
12,129999,1,120000,78,30000,40,9999,0.100000,0,0,0.000000,6,0.000000,0.000000,7.253877,0,0,0,0,0,0,0
12,129999,2,120000,83,0,40,9999,0.100000,0,0,0.000000,6,0.000000,0.000000,2.568335,0,0,0,0,0,0,0
12,129999,3,120000,78,30000,40,9999,0.100000,0,0,0.000000,6,0.000000,0.000000,1.970248,0,0,0,0,0,0,0
12,129999,4,120000,0,10000,40,9999,0.100000,0,0,0.000000,6,0.000000,0.000000,0.885312,0,0,0,0,0,0,0
12,129999,5,120000,83,10000,40,9999,0.100000,0,0,0.000000,6,0.000000,0.000000,1.635271,0,0,0,0,0,0,0
12,129999,6,120000,20,10000,49,9999,0.100000,0,0,0.000000,6,3.000000,0.000000,7.056463,0,0,0,0,0,0,0
12,129999,7,120000,83,0,49,9999,0.100000,0,0,0.000000,6,3.000000,0.000000,7.789392,0,0,0,0,0,0,0
12,129999,8,120000,20,10000,40,9999,0.100000,0,0,0.000000,6,0.000000,0.000000,5.418160,0,0,0,0,0,0,0
12,129999,9,120000,83,0,40,9999,0.100000,0,0,0.000000,6,0.000000,0.000000,0.721216,0,0,0,0,0,0,0
12,129999,10,120000,83,0,40,9999,0.100000,0,0,0.000000,6,0.000000,0.000000,0.988273,0,0,0,0,0,0,0
12,129999,11,120000,0,10000,40,9999,0.100000,0,0,0.000000,6,0.000000,0.000000,14.518084,0,0,0,0,0,0,0
12,129999,12,120000,83,10000,40,9999,0.100000,0,0,0.000000,6,0.000000,0.000000,1.340567,0,0,0,0,0,0,0
12,129999,13,120000,0,10000,40,9999,0.135000,0,0,0.000000,6,0.000000,0.000000,0.587817,0,0,0,0,0,0,0
12,129999,14,120000,0,10000,40,9999,0.100000,0,0,0.000000,6,0.000000,0.000000,0.100017,0,0,0,0,0,0,0
12,129999,15,120000,0,0,40,9999,0.100000,0,0,0.000000,6,0.000000,0.000000,0.095109,0,0,0,0,0,0,0
12,129999,16,120000,0,10000,40,9999,0.100000,0,0,0.000000,6,0.000000,0.000000,0.956243,0,0,0,0,0,0,0
12,129999,17,120000,0,0,49,9999,0.100000,0,0,0.000000,6,1.000000,0.000000,4.734580,0,0,0,0,0,0,0
12,129999,18,120000,78,30000,99,9999,0.100000,0,0,34.210526,6,3.000000,0.000000,18.802801,0,0,1,0,0,0,0
12,129999,19,120000,83,0,40,9999,0.100000,0,0,0.000000,6,0.000000,0.000000,0.148955,0,0,0,0,0,0,0
12,129999,20,120000,78,30000,40,9999,0.100000,0,0,0.000000,6,0.000000,0.000000,0.827258,0,0,0,0,0,0,0
12,129999,21,120000,20,10000,49,9999,0.100000,0,0,0.000000,6,2.000000,0.000000,5.991901,0,0,0,0,0,0,0
12,129999,22,120000,78,30000,40,9999,0.100000,0,0,0.000000,6,0.000000,0.000000,0.082668,0,0,0,0,0,0,0
12,129999,23,120000,20,10000,40,9999,0.100000,0,0,0.000000,6,0.000000,0.000000,0.137224,0,0,0,0,0,0,0
12,129999,24,120000,20,10000,40,9999,0.100000,0,0,0.000000,6,0.000000,0.000000,0.220823,0,0,0,0,0,0,0
12,129999,25,120000,83,10000,40,9999,0.100000,0,0,0.000000,6,0.000000,0.000000,8.195563,0,0,0,0,0,0,0
12,129999,26,120000,83,0,49,9999,0.100000,0,0,0.000000,6,1.000000,0.000000,5.540099,0,0,0,0,0,0,0
12,129999,27,120000,20,10000,40,9999,0.100000,0,0,0.000000,6,0.000000,0.000000,8.757701,0,0,0,0,0,0,0
12,129999,28,120000,0,10000,40,9999,0.100000,0,0,0.000000,6,0.000000,0.000000,1.935136,0,0,0,0,0,0,0
12,129999,29,120000,0,10000,40,9999,0.100000,0,0,0.000000,6,0.000000,0.000000,0.099102,0,0,0,0,0,0,0
12,129999,30,120000,0,0,49,9999,0.100000,0,0,0.000000,6,1.000000,0.000000,7.012290,0,0,0,0,0,0,0
12,129999,31,120000,78,30000,40,9999,0.100000,0,0,0.000000,6,0.000000,0.000000,0.166521,0,0,0,0,0,0,0
12,129999,32,120000,20,10000,40,9999,0.100000,0,0,0.000000,6,0.000000,0.000000,0.456937,0,0,0,0,0,0,0
12,129999,33,120000,83,10000,40,9999,0.100000,0,0,0.000000,6,0.000000,0.000000,24.024566,0,0,0,0,0,0,0
