generation,iteration,robot,birthday,ancestor_id,ancestor_birthday,cell_id,age,sigma,maps,genomes,fitness,cells_in_map,dist_max,dist_pot_max,dist_total,com_rx,com_tx,obj_group1,obj_group2,obj_group3,obj_group4,obj_group5
0,9999,0,0,0,0,40,9999,0.100000,99,99,0.000000,0,1.000000,22.371338,6.580833,99,99,0,0,0,0,0
0,9999,1,0,1,0,40,9999,0.100000,99,99,0.000000,0,2.000000,28.901058,11.651656,99,99,0,0,0,0,0
0,9999,2,0,2,0,40,9999,0.100000,99,99,0.000000,0,1.000000,18.452810,3.017548,99,99,0,0,0,0,0
0,9999,3,0,3,0,0,9999,0.100000,99,99,0.549039,0,1.000000,25.440207,1.891610,99,99,0,0,0,1,0
0,9999,4,0,4,0,40,9999,0.100000,99,99,0.000000,0,1.000000,28.041342,7.104112,99,99,0,0,0,0,0
0,9999,5,0,5,0,40,9999,0.100000,99,99,0.000000,0,1.000000,26.228986,11.570123,99,99,0,0,0,0,0
0,9999,6,0,6,0,41,9999,0.100000,99,99,0.000000,0,3.000000,15.966574,18.930075,99,99,0,0,0,0,0
0,9999,7,0,7,0,1,9999,0.100000,99,99,40.104578,0,6.000000,28.999211,10.607321,99,99,0,1,0,0,0
0,9999,8,0,8,0,41,9999,0.100000,99,99,0.000000,0,3.000000,23.147243,6.761680,99,99,0,0,0,0,0
0,9999,9,0,9,0,90,9999,0.100000,99,99,1.117163,0,0.000000,23.685394,1.858779,99,99,1,0,0,0,0
0,9999,10,0,10,0,40,9999,0.100000,99,99,0.000000,0,2.000000,28.032471,8.305253,99,99,0,0,0,0,0
0,9999,11,0,11,0,41,9999,0.100000,99,99,0.000000,0,2.000000,17.823043,13.863132,99,99,0,0,0,0,0
0,9999,12,0,12,0,40,9999,0.100000,99,99,0.000000,0,1.000000,19.170605,11.218116,99,99,0,0,0,0,0
0,9999,13,0,13,0,0,9999,0.100000,99,99,0.003416,0,1.000000,14.272002,2.426597,99,99,0,0,1,0,0
0,9999,14,0,14,0,90,9999,0.100000,99,99,1.987538,0,1.000000,29.961212,4.170411,99,99,1,0,0,0,0
0,9999,15,0,15,0,40,9999,0.100000,99,99,0.000000,0,3.000000,30.860729,9.346951,99,99,0,0,0,0,0
0,9999,16,0,16,0,99,9999,0.100000,99,99,83.786431,0,17.000000,15.604463,25.411286,99,99,1,0,0,0,0
0,9999,17,0,17,0,0,9999,0.100000,99,99,0.009070,0,0.000000,21.427161,1.757670,99,99,0,0,1,0,0
0,9999,18,0,18,0,40,9999,0.100000,99,99,0.000000,0,1.000000,22.608727,9.641599,99,99,0,0,0,0,0
0,9999,19,0,19,0,41,9999,0.100000,99,99,0.000000,0,6.000000,34.943536,15.661136,99,99,0,0,0,0,0
0,9999,20,0,20,0,40,9999,0.100000,99,99,0.000000,0,0.000000,24.436759,5.395192,99,99,0,0,0,0,0
0,9999,21,0,21,0,40,9999,0.100000,99,99,0.000000,0,0.000000,23.623509,3.651313,99,99,0,0,0,0,0
0,9999,22,0,22,0,91,9999,0.100000,99,99,0.602764,0,2.000000,13.244996,8.085000,99,99,1,0,0,0,0
0,9999,23,0,23,0,99,9999,0.100000,99,99,80.013732,0,16.000000,14.080441,26.839336,99,99,1,0,0,0,0
0,9999,24,0,24,0,40,9999,0.100000,99,99,0.000000,0,2.000000,24.650939,8.955884,99,99,0,0,0,0,0
0,9999,25,0,25,0,0,9999,0.100000,99,99,0.383697,0,0.000000,23.752505,1.006431,99,99,0,0,0,1,0
0,9999,26,0,26,0,40,9999,0.100000,99,99,0.000000,0,1.000000,17.093659,6.216270,99,99,0,0,0,0,0
0,9999,27,0,27,0,0,9999,0.100000,99,99,0.027791,0,1.000000,27.901117,2.616017,99,99,0,1,0,0,0
0,9999,28,0,28,0,40,9999,0.100000,99,99,0.000000,0,2.000000,23.314654,17.532848,99,99,0,0,0,0,0
0,9999,29,0,29,0,40,9999,0.100000,99,99,0.000000,0,1.000000,15.280152,5.979813,99,99,0,0,0,0,0
0,9999,30,0,30,0,41,9999,0.100000,99,99,0.000000,0,5.000000,33.900628,10.236914,99,99,0,0,0,0,0
0,9999,31,0,31,0,40,9999,0.100000,99,99,0.000000,0,1.000000,20.744766,4.213152,99,99,0,0,0,0,0
0,9999,32,0,32,0,40,9999,0.100000,99,99,0.000000,0,2.000000,25.241063,15.634865,99,99,0,0,0,0,0
0,9999,33,0,33,0,0,9999,0.100000,99,99,0.011521,0,2.000000,23.179530,10.660538,99,99,0,0,0,1,0
0,9999,34,0,34,0,0,9999,0.100000,99,99,0.009894,0,0.000000,31.071782,1.349520,99,99,0,0,0,0,1
0,9999,35,0,35,0,42,9999,0.100000,99,99,0.000000,0,8.000000,30.431349,11.091409,99,99,0,0,0,0,0
0,9999,36,0,36,0,41,9999,0.100000,99,99,0.000000,0,2.000000,18.487638,8.957721,99,99,0,0,0,0,0
0,9999,37,0,37,0,91,9999,0.100000,99,99,36.136825,0,6.000000,28.785633,15.833394,99,99,1,0,0,0,0
0,9999,38,0,38,0,40,9999,0.100000,99,99,0.000000,0,2.000000,19.861541,10.391931,99,99,0,0,0,0,0
0,9999,39,0,39,0,41,9999,0.100000,99,99,0.000000,0,3.000000,22.681088,14.292461,99,99,0,0,0,0,0
0,9999,40,0,40,0,40,9999,0.100000,99,99,0.000000,0,1.000000,22.316655,12.892305,99,99,0,0,0,0,0
0,9999,41,0,41,0,40,9999,0.100000,99,99,0.000000,0,0.000000,20.761506,7.053087,99,99,0,0,0,0,0
0,9999,42,0,42,0,40,9999,0.100000,99,99,0.000000,0,1.000000,22.461942,2.804072,99,99,0,0,0,0,0
0,9999,43,0,43,0,90,9999,0.100000,99,99,10.876499,0,3.000000,33.263921,17.194439,99,99,1,0,0,0,0
0,9999,44,0,44,0,1,9999,0.100000,99,99,0.038815,0,3.000000,21.936499,10.100518,99,99,0,0,0,0,1
0,9999,45,0,45,0,0,9999,0.100000,99,99,0.016254,0,1.000000,23.110301,2.901265,99,99,0,0,0,0,1
0,9999,46,0,46,0,40,9999,0.100000,99,99,0.000000,0,3.000000,31.664025,12.993879,99,99,0,0,0,0,0
0,9999,47,0,47,0,40,9999,0.100000,99,99,0.000000,0,2.000000,22.658989,11.447883,99,99,0,0,0,0,0
0,9999,48,0,48,0,98,9999,0.100000,99,99,76.422838,0,14.000000,16.621933,20.987851,99,99,1,0,0,0,0
0,9999,49,0,49,0,92,9999,0.100000,99,99,45.291946,0,8.000000,27.507142,16.519824,99,99,1,0,0,0,0
0,9999,50,0,50,0,40,9999,0.100000,99,99,0.000000,0,2.000000,26.297546,7.544731,99,99,0,0,0,0,0
0,9999,51,0,51,0,0,9999,0.100000,99,99,0.009829,0,0.000000,27.620443,1.738854,99,99,0,0,0,1,0
0,9999,52,0,52,0,90,9999,0.100000,99,99,6.156457,0,2.000000,28.777114,10.278132,99,99,1,0,0,0,0
0,9999,53,0,53,0,40,9999,0.100000,99,99,0.000000,0,2.000000,26.530275,13.853927,99,99,0,0,0,0,0
0,9999,54,0,54,0,40,9999,0.100000,99,99,0.000000,0,2.000000,28.593009,4.082988,99,99,0,0,0,0,0
0,9999,55,0,55,0,40,9999,0.100000,99,99,0.000000,0,3.000000,29.220042,6.988385,99,99,0,0,0,0,0
0,9999,56,0,56,0,0,9999,0.100000,99,99,0.004519,0,0.000000,24.135416,0.531795,99,99,0,0,0,0,1
0,9999,57,0,57,0,40,9999,0.100000,99,99,0.000000,0,1.000000,29.120669,10.532920,99,99,0,0,0,0,0
0,9999,58,0,58,0,0,9999,0.100000,99,99,1.052638,0,0.000000,25.996250,1.283090,99,99,0,0,1,0,0
0,9999,59,0,59,0,40,9999,0.100000,99,99,0.000000,0,0.000000,21.882761,14.927219,99,99,0,0,0,0,0
0,9999,60,0,60,0,40,9999,0.100000,99,99,0.000000,0,1.000000,23.908630,12.104290,99,99,0,0,0,0,0
0,9999,61,0,61,0,40,9999,0.100000,99,99,0.000000,0,3.000000,29.869826,5.291682,99,99,0,0,0,0,0
0,9999,62,0,62,0,40,9999,0.100000,99,99,0.000000,0,1.000000,27.628386,1.938814,99,99,0,0,0,0,0
0,9999,63,0,63,0,2,9999,0.100000,99,99,9.074753,0,3.000000,14.237924,4.238077,99,99,0,1,0,0,0
0,9999,64,0,64,0,40,9999,0.100000,99,99,0.000000,0,1.000000,17.690254,3.937186,99,99,0,0,0,0,0
0,9999,65,0,65,0,40,9999,0.100000,99,99,0.000000,0,1.000000,21.548593,7.961072,99,99,0,0,0,0,0
0,9999,66,0,66,0,40,9999,0.100000,99,99,0.000000,0,1.000000,23.041856,2.697266,99,99,0,0,0,0,0
0,9999,67,0,67,0,43,9999,0.100000,99,99,0.000000,0,7.000000,18.321658,12.253739,99,99,0,0,0,0,0
0,9999,68,0,68,0,41,9999,0.100000,99,99,0.000000,0,3.000000,17.564390,18.734660,99,99,0,0,0,0,0
0,9999,69,0,69,0,97,9999,0.100000,99,99,82.568567,0,17.000000,22.240915,23.071272,99,99,1,0,0,0,0
0,9999,70,0,70,0,40,9999,0.100000,99,99,0.000000,0,1.000000,24.556098,6.091788,99,99,0,0,0,0,0
0,9999,71,0,71,0,0,9999,0.100000,99,99,0.128934,0,2.000000,19.381365,2.756366,99,99,0,0,0,0,1
0,9999,72,0,72,0,97,9999,0.100000,99,99,61.542561,0,12.000000,16.181424,23.384698,99,99,1,0,0,0,0
0,9999,73,0,73,0,40,9999,0.100000,99,99,0.000000,0,1.000000,19.481034,12.100699,99,99,0,0,0,0,0
0,9999,74,0,74,0,40,9999,0.100000,99,99,0.000000,0,1.000000,30.263267,6.389449,99,99,0,0,0,0,0
0,9999,75,0,75,0,0,9999,0.100000,99,99,0.241624,0,0.000000,27.317044,1.020900,99,99,0,1,0,0,0
0,9999,76,0,76,0,40,9999,0.100000,99,99,0.000000,0,1.000000,28.593009,5.277131,99,99,0,0,0,0,0
0,9999,77,0,77,0,0,9999,0.100000,99,99,0.032987,0,2.000000,26.654429,5.483084,99,99,0,0,1,0,0
0,9999,78,0,78,0,40,9999,0.100000,99,99,0.000000,0,1.000000,28.595160,6.281688,99,99,0,0,0,0,0
0,9999,79,0,79,0,40,9999,0.100000,99,99,0.000000,0,2.000000,23.039172,5.624855,99,99,0,0,0,0,0
0,9999,80,0,80,0,40,9999,0.100000,99,99,0.000000,0,2.000000,26.100311,6.057172,99,99,0,0,0,0,0
0,9999,81,0,81,0,91,9999,0.100000,99,99,26.694286,0,4.000000,28.209887,16.507010,99,99,1,0,0,0,0
0,9999,82,0,82,0,41,9999,0.100000,99,99,0.000000,0,2.000000,16.216912,9.790315,99,99,0,0,0,0,0
0,9999,83,0,83,0,0,9999,0.100000,99,99,0.001409,0,0.000000,13.905125,0.774658,99,99,0,0,0,1,0
0,9999,84,0,84,0,40,9999,0.100000,99,99,0.000000,0,0.000000,19.066973,4.486531,99,99,0,0,0,0,0
0,9999,85,0,85,0,40,9999,0.100000,99,99,0.000000,0,0.000000,33.644450,7.741310,99,99,0,0,0,0,0
0,9999,86,0,86,0,91,9999,0.100000,99,99,28.622724,0,4.000000,32.067624,22.008025,99,99,1,0,0,0,0
0,9999,87,0,87,0,41,9999,0.100000,99,99,0.000000,0,3.000000,26.610840,8.382472,99,99,0,0,0,0,0
0,9999,88,0,88,0,41,9999,0.100000,99,99,0.000000,0,3.000000,20.818965,12.298498,99,99,0,0,0,0,0
0,9999,89,0,89,0,40,9999,0.100000,99,99,0.000000,0,1.000000,23.819551,9.212627,99,99,0,0,0,0,0
0,9999,90,0,90,0,40,9999,0.100000,99,99,0.000000,0,2.000000,31.703917,5.109812,99,99,0,0,0,0,0
0,9999,91,0,91,0,40,9999,0.100000,99,99,0.000000,0,1.000000,17.467262,11.325152,99,99,0,0,0,0,0
0,9999,92,0,92,0,40,9999,0.100000,99,99,0.000000,0,1.000000,25.415577,6.494853,99,99,0,0,0,0,0
0,9999,93,0,93,0,40,9999,0.100000,99,99,0.000000,0,0.000000,18.065358,1.522517,99,99,0,0,0,0,0
0,9999,94,0,94,0,41,9999,0.100000,99,99,0.000000,0,3.000000,21.907981,9.305799,99,99,0,0,0,0,0
0,9999,95,0,95,0,91,9999,0.100000,99,99,9.445208,0,3.000000,26.671233,8.306745,99,99,1,0,0,0,0
0,9999,96,0,96,0,40,9999,0.100000,99,99,0.000000,0,2.000000,32.844912,4.129563,99,99,0,0,0,0,0
0,9999,97,0,97,0,40,9999,0.100000,99,99,0.000000,0,2.000000,29.096858,5.306293,99,99,0,0,0,0,0
0,9999,98,0,98,0,40,9999,0.100000,99,99,0.000000,0,1.000000,30.806009,8.363576,99,99,0,0,0,0,0
0,9999,99,0,99,0,40,9999,0.100000,99,99,0.000000,0,1.000000,19.847842,10.012667,99,99,0,0,0,0,0
1,19999,0,10000,16,0,40,9999,0.100000,99,198,0.000000,1,2.000000,22.570029,12.991287,99,99,0,0,0,0,0
1,19999,1,10000,16,0,42,9999,0.100000,99,198,0.000000,1,7.000000,30.802085,14.933583,99,99,0,0,0,0,0
1,19999,2,10000,16,0,41,9999,0.100000,99,198,0.000000,1,2.000000,17.327872,15.020125,99,99,0,0,0,0,0
1,19999,3,10000,16,0,0,9999,0.100000,99,198,1.738499,1,0.000000,24.536007,0.531919,99,99,0,0,0,1,0
1,19999,4,10000,16,0,40,9999,0.100000,99,198,0.000000,1,1.000000,27.434294,12.953367,99,99,0,0,0,0,0
1,19999,5,10000,16,0,40,9999,0.100000,99,198,0.000000,1,0.000000,26.697510,12.890185,99,99,0,0,0,0,0
1,19999,6,10000,16,0,40,9999,0.100000,99,198,0.000000,1,1.000000,17.077046,14.215481,99,99,0,0,0,0,0
1,19999,7,10000,16,0,40,9999,0.100000,99,198,0.000000,1,3.000000,34.937711,16.729106,99,99,0,0,0,0,0
1,19999,8,10000,16,0,0,9999,0.100000,99,198,0.086633,1,0.000000,19.547093,0.813990,99,99,0,0,0,0,1
1,19999,9,10000,16,0,92,9999,0.100000,99,198,32.322050,1,6.000000,23.311152,21.469153,99,99,1,0,0,0,0
1,19999,10,10000,16,0,40,9999,0.100000,99,198,0.000000,1,2.000000,29.816653,16.122963,99,99,0,0,0,0,0
1,19999,11,10000,16,0,40,9999,0.100000,99,198,0.000000,1,2.000000,20.294161,8.247963,99,99,0,0,0,0,0
1,19999,12,10000,16,0,41,9999,0.100000,99,198,0.000000,1,3.000000,20.157565,14.587427,99,99,0,0,0,0,0
1,19999,13,10000,16,0,0,9999,0.100000,99,198,0.001780,1,0.000000,14.554200,0.119449,99,99,0,0,1,0,0
1,19999,14,10000,16,0,90,9999,0.100000,99,198,1.173587,1,0.000000,31.712762,0.878284,99,99,1,0,0,0,0
1,19999,15,10000,16,0,40,9999,0.100000,99,198,0.000000,1,3.000000,33.241101,16.435715,99,99,0,0,0,0,0
1,19999,16,10000,69,0,40,9999,0.100000,99,198,0.000000,1,2.000000,26.481872,15.100552,99,99,0,0,0,0,0
1,19999,17,10000,16,0,0,9999,0.100000,99,198,1.248604,1,0.000000,21.149545,0.200823,99,99,0,0,1,0,0
1,19999,18,10000,16,0,40,9999,0.100000,99,198,0.000000,1,0.000000,23.715031,1.931487,99,99,0,0,0,0,0
1,19999,19,10000,16,0,40,9999,0.100000,99,198,0.000000,1,1.000000,29.612470,11.198001,99,99,0,0,0,0,0
1,19999,20,10000,16,0,40,9999,0.100000,99,198,0.000000,1,0.000000,24.360260,0.746314,99,99,0,0,0,0,0
1,19999,21,10000,16,0,40,9999,0.100000,99,198,0.000000,1,1.000000,23.975915,13.263780,99,99,0,0,0,0,0
1,19999,22,10000,16,0,90,9999,0.100000,99,198,0.125755,1,0.000000,15.445489,0.729817,99,99,1,0,0,0,0
1,19999,23,10000,16,0,40,9999,0.100000,99,198,0.000000,1,0.000000,27.442574,1.335395,99,99,0,0,0,0,0
1,19999,24,10000,16,0,40,9999,0.100000,99,198,0.000000,1,2.000000,25.460523,24.559372,99,99,0,0,0,0,0
1,19999,25,10000,16,0,0,9999,0.100000,99,198,0.967574,1,0.000000,23.396967,0.877750,99,99,0,0,0,1,0
1,19999,26,10000,16,0,41,9999,0.100000,99,198,0.000000,1,3.000000,18.017675,13.225799,99,99,0,0,0,0,0
1,19999,27,10000,16,0,0,9999,0.100000,99,198,0.036433,1,0.000000,27.254760,2.163053,99,99,0,1,0,0,0
1,19999,28,10000,16,0,40,9999,0.100000,99,198,0.000000,1,2.000000,24.583181,12.554293,99,99,0,0,0,0,0
1,19999,29,10000,16,0,41,9999,0.100000,99,198,0.000000,1,3.000000,16.824563,15.613392,99,99,0,0,0,0,0
1,19999,30,10000,16,0,40,9999,0.100000,99,198,0.000000,1,1.000000,28.823516,12.554614,99,99,0,0,0,0,0
1,19999,31,10000,16,0,0,9999,0.100000,99,198,0.014319,1,0.000000,21.689487,1.424316,99,99,0,0,0,0,1
1,19999,32,10000,16,0,41,9999,0.100000,99,198,0.000000,1,3.000000,23.402765,4.943724,99,99,0,0,0,0,0
1,19999,33,10000,16,0,0,9999,0.100000,99,198,0.870604,1,0.000000,23.988736,0.483789,99,99,0,0,0,1,0
1,19999,34,10000,16,0,0,9999,0.100000,99,198,2.564607,1,0.000000,31.013876,2.352955,99,99,0,0,0,0,1
1,19999,35,10000,16,0,0,9999,0.100000,99,198,0.061840,1,0.000000,34.797579,1.640059,99,99,0,1,0,0,0
1,19999,36,10000,16,0,41,9999,0.100000,99,198,0.000000,1,2.000000,18.716742,3.966361,99,99,0,0,0,0,0
1,19999,37,10000,16,0,91,9999,0.100000,99,198,32.076479,1,6.000000,31.006870,21.178083,99,99,1,0,0,0,0
1,19999,38,10000,16,0,41,9999,0.100000,99,198,0.000000,1,2.000000,18.741223,15.587195,99,99,0,0,0,0,0
1,19999,39,10000,16,0,40,9999,0.100000,99,198,0.000000,1,1.000000,21.987140,13.387811,99,99,0,0,0,0,0
1,19999,40,10000,16,0,40,9999,0.100000,99,198,0.000000,1,1.000000,22.258501,12.928687,99,99,0,0,0,0,0
1,19999,41,10000,16,0,40,9999,0.100000,99,198,0.000000,1,2.000000,19.985271,12.889716,99,99,0,0,0,0,0
1,19999,42,10000,16,0,40,9999,0.100000,99,198,0.000000,1,0.000000,24.049450,0.445037,99,99,0,0,0,0,0
1,19999,43,10000,16,0,0,9999,0.100000,99,198,0.394674,1,0.000000,34.574199,1.065654,99,99,0,0,1,0,0
1,19999,44,10000,16,0,40,9999,0.100000,99,198,0.000000,1,1.000000,18.925609,2.356542,99,99,0,0,0,0,0
1,19999,45,10000,16,0,40,9999,0.100000,99,198,0.000000,1,0.000000,23.909051,1.564314,99,99,0,0,0,0,0
1,19999,46,10000,16,0,40,9999,0.100000,99,198,0.000000,1,1.000000,31.117726,3.765798,99,99,0,0,0,0,0
1,19999,47,10000,16,0,40,9999,0.100000,99,198,0.000000,1,0.000000,24.095842,0.563624,99,99,0,0,0,0,0
1,19999,48,10000,16,0,40,9999,0.100000,99,198,0.000000,1,3.000000,29.076573,15.809553,99,99,0,0,0,0,0
1,19999,49,10000,16,0,40,9999,0.100000,99,198,0.000000,1,3.000000,32.786194,15.007755,99,99,0,0,0,0,0
1,19999,50,10000,16,0,40,9999,0.100000,99,198,0.000000,1,0.000000,25.895684,0.983547,99,99,0,0,0,0,0
1,19999,51,10000,16,0,0,9999,0.100000,99,198,0.078721,1,0.000000,26.844217,0.153038,99,99,0,0,0,1,0
1,19999,52,10000,16,0,40,9999,0.100000,99,198,0.000000,1,3.000000,30.225969,19.627121,99,99,0,0,0,0,0
1,19999,53,10000,16,0,41,9999,0.100000,99,198,0.000000,1,6.000000,29.070360,13.585879,99,99,0,0,0,0,0
1,19999,54,10000,16,0,40,9999,0.100000,99,198,0.000000,1,0.000000,26.968559,0.132097,99,99,0,0,0,0,0
1,19999,55,10000,16,0,40,9999,0.100000,99,198,0.000000,1,3.000000,31.230328,14.603102,99,99,0,0,0,0,0
1,19999,56,10000,16,0,0,9999,0.100000,99,198,0.005125,1,0.000000,24.416947,0.141441,99,99,0,0,0,0,1
1,19999,57,10000,16,0,40,9999,0.100000,99,198,0.000000,1,1.000000,27.589145,6.106247,99,99,0,0,0,0,0
1,19999,58,10000,16,0,0,9999,0.100000,99,198,0.891419,1,0.000000,25.779486,0.340794,99,99,0,0,1,0,0
1,19999,59,10000,16,0,1,9999,0.100000,99,198,0.083916,1,3.000000,22.443239,7.871066,99,99,0,0,0,0,1
1,19999,60,10000,16,0,40,9999,0.100000,99,198,0.000000,1,0.000000,24.446296,0.259567,99,99,0,0,0,0,0
1,19999,61,10000,16,0,40,9999,0.100000,99,198,0.000000,1,0.000000,26.723704,0.191104,99,99,0,0,0,0,0
1,19999,62,10000,16,0,40,9999,0.100000,99,198,0.000000,1,0.000000,26.819640,0.383429,99,99,0,0,0,0,0
1,19999,63,10000,16,0,42,9999,0.100000,99,198,0.000000,1,4.000000,17.294477,15.792157,99,99,0,0,0,0,0
1,19999,64,10000,16,0,42,9999,0.100000,99,198,0.000000,1,5.000000,17.873808,17.301502,99,99,0,0,0,0,0
1,19999,65,10000,16,0,41,9999,0.100000,99,198,0.000000,1,3.000000,20.991155,12.403859,99,99,0,0,0,0,0
1,19999,66,10000,16,0,40,9999,0.100000,99,198,0.000000,1,0.000000,23.949901,1.283833,99,99,0,0,0,0,0
1,19999,67,10000,16,0,92,9999,0.100000,99,198,0.000000,1,7.000000,22.350662,19.189554,99,99,1,0,0,0,0
1,19999,68,10000,16,0,0,9999,0.100000,99,198,0.253165,1,0.000000,17.372103,1.491263,99,99,0,1,0,0,0
1,19999,69,10000,16,0,40,9999,0.100000,99,198,0.000000,1,1.000000,32.076883,23.408919,99,99,0,0,0,0,0
1,19999,70,10000,16,0,40,9999,0.100000,99,198,0.000000,1,1.000000,24.109030,2.875359,99,99,0,0,0,0,0
1,19999,71,10000,16,0,40,9999,0.100000,99,198,0.000000,1,1.000000,20.668098,5.668219,99,99,0,0,0,0,0
1,19999,72,10000,16,0,40,9999,0.100000,99,198,0.000000,1,2.000000,26.818247,2.894195,99,99,0,0,0,0,0
1,19999,73,10000,16,0,40,9999,0.100000,99,198,0.000000,1,1.000000,20.236304,5.067417,99,99,0,0,0,0,0
1,19999,74,10000,16,0,40,9999,0.100000,99,198,0.000000,1,0.000000,29.319267,13.256449,99,99,0,0,0,0,0
1,19999,75,10000,16,0,0,9999,0.100000,99,198,0.140652,1,0.000000,26.644953,0.149282,99,99,0,1,0,0,0
1,19999,76,10000,16,0,40,9999,0.100000,99,198,0.000000,1,3.000000,29.204394,16.359858,99,99,0,0,0,0,0
1,19999,77,10000,16,0,0,9999,0.100000,99,198,0.002157,1,0.000000,26.511008,0.152216,99,99,0,0,1,0,0
1,19999,78,10000,16,0,41,9999,0.100000,99,198,0.000000,1,4.000000,28.872790,12.677546,99,99,0,0,0,0,0
1,19999,79,10000,16,0,40,9999,0.100000,99,198,0.000000,1,1.000000,24.920509,3.658427,99,99,0,0,0,0,0
1,19999,80,10000,16,0,40,9999,0.100000,99,198,0.000000,1,0.000000,23.992251,0.984705,99,99,0,0,0,0,0
1,19999,81,10000,16,0,41,9999,0.100000,99,198,0.000000,1,4.000000,30.671148,19.044928,99,99,0,0,0,0,0
1,19999,82,10000,16,0,40,9999,0.100000,99,198,0.000000,1,0.000000,16.917005,3.619039,99,99,0,0,0,0,0
1,19999,83,10000,16,0,0,9999,0.100000,99,198,0.000161,1,0.000000,13.673821,0.174902,99,99,0,0,0,1,0
1,19999,84,10000,16,0,97,9999,0.100000,99,198,76.511488,1,16.000000,19.829101,27.946542,99,99,1,0,0,0,0
1,19999,85,10000,16,0,41,9999,0.100000,99,198,0.000000,1,4.000000,33.204366,15.314284,99,99,0,0,0,0,0
1,19999,86,10000,16,0,42,9999,0.100000,99,198,0.000000,1,8.000000,35.984145,17.593090,99,99,0,0,0,0,0
1,19999,87,10000,16,0,42,9999,0.100000,99,198,0.000000,1,5.000000,23.306598,17.876537,99,99,0,0,0,0,0
1,19999,88,10000,16,0,40,9999,0.100000,99,198,0.000000,1,0.000000,23.480454,1.369084,99,99,0,0,0,0,0
1,19999,89,10000,16,0,41,9999,0.100000,99,198,0.000000,1,3.000000,24.818427,12.405745,99,99,0,0,0,0,0
1,19999,90,10000,16,0,40,9999,0.100000,99,198,0.000000,1,1.000000,31.644293,18.642118,99,99,0,0,0,0,0
1,19999,91,10000,16,0,40,9999,0.100000,99,198,0.000000,1,1.000000,18.558416,14.470306,99,99,0,0,0,0,0
1,19999,92,10000,16,0,40,9999,0.100000,99,198,0.000000,1,1.000000,25.000837,23.363988,99,99,0,0,0,0,0
1,19999,93,10000,16,0,40,9999,0.100000,99,198,0.000000,1,1.000000,18.059800,2.409506,99,99,0,0,0,0,0
1,19999,94,10000,16,0,41,9999,0.100000,99,198,0.000000,1,3.000000,18.967435,16.513987,99,99,0,0,0,0,0
1,19999,95,10000,16,0,0,9999,0.100000,99,198,0.243361,1,1.000000,29.511287,2.299369,99,99,0,1,0,0,0
1,19999,96,10000,16,0,40,9999,0.100000,99,198,0.000000,1,3.000000,34.687428,19.181637,99,99,0,0,0,0,0
1,19999,97,10000,16,0,40,9999,0.100000,99,198,0.000000,1,0.000000,27.310431,6.229299,99,99,0,0,0,0,0
1,19999,98,10000,16,0,40,9999,0.100000,99,198,0.000000,1,2.000000,29.952945,14.118527,99,99,0,0,0,0,0
1,19999,99,10000,16,0,41,9999,0.100000,99,198,0.000000,1,4.000000,21.216613,17.292163,99,99,0,0,0,0,0
2,29999,0,20000,84,10000,40,9999,0.100000,99,297,0.000000,1,1.000000,22.149502,16.226120,99,99,0,0,0,0,0
2,29999,1,20000,84,10000,40,9999,0.100000,99,297,0.000000,2,1.000000,27.744297,11.175880,99,99,0,0,0,0,0
2,29999,2,20000,84,10000,40,9999,0.100000,99,297,0.000000,1,1.000000,19.159783,15.698486,99,99,0,0,0,0,0
2,29999,3,20000,84,10000,0,9999,0.100000,99,297,1.299719,1,0.000000,24.194377,0.452860,99,99,0,0,0,1,0
2,29999,4,20000,84,10000,40,9999,0.100000,99,297,0.000000,1,0.000000,26.247681,13.182470,99,99,0,0,0,0,0
2,29999,5,20000,84,10000,40,9999,0.100000,99,297,0.000000,1,1.000000,26.537505,14.120876,99,99,0,0,0,0,0
2,29999,6,20000,84,10000,41,9999,0.100000,99,297,0.000000,2,2.000000,18.259030,14.455793,99,99,0,0,0,0,0
2,29999,7,20000,84,10000,40,9999,0.100000,99,297,0.000000,2,1.000000,32.640004,18.634295,99,99,0,0,0,0,0
2,29999,8,20000,84,10000,0,9999,0.100000,99,297,0.065993,2,0.000000,19.005840,0.153678,99,99,0,0,0,0,1
2,29999,9,20000,84,10000,40,9999,0.100000,99,297,0.000000,2,0.000000,26.147560,15.618814,99,99,0,0,0,0,0
2,29999,10,20000,84,10000,40,9999,0.100000,99,297,0.000000,1,1.000000,30.946225,16.527233,99,99,0,0,0,0,0
2,29999,11,20000,84,10000,40,9999,0.100000,99,297,0.000000,1,0.000000,20.949406,0.841310,99,99,0,0,0,0,0
2,29999,12,20000,84,10000,40,9999,0.100000,99,297,0.000000,2,0.000000,21.584845,12.999633,99,99,0,0,0,0,0
2,29999,13,20000,84,10000,0,9999,0.100000,99,297,0.001895,1,0.000000,14.555716,0.117645,99,99,0,0,1,0,0
2,29999,14,20000,84,10000,90,9999,0.100000,99,297,0.359689,1,0.000000,31.984453,0.806853,99,99,1,0,0,0,0
2,29999,15,20000,84,10000,40,9999,0.100000,99,297,0.000000,1,2.000000,31.343492,14.392344,99,99,0,0,0,0,0
2,29999,16,20000,84,10000,40,9999,0.100000,99,297,0.000000,2,0.000000,24.908786,9.167150,99,99,0,0,0,0,0
2,29999,17,20000,84,10000,0,9999,0.100000,99,297,3.137933,1,0.000000,21.082833,0.312069,99,99,0,0,1,0,0
2,29999,18,20000,84,10000,40,9999,0.100000,99,297,0.000000,1,0.000000,24.509504,1.962586,99,99,0,0,0,0,0
2,29999,19,20000,84,10000,40,9999,0.100000,99,297,0.000000,2,3.000000,28.696797,14.377277,99,99,0,0,0,0,0
2,29999,20,20000,84,10000,40,9999,0.100000,99,297,0.000000,1,0.000000,23.917314,0.629658,99,99,0,0,0,0,0
2,29999,21,20000,84,10000,40,9999,0.100000,99,297,0.000000,1,1.000000,23.987932,13.582814,99,99,0,0,0,0,0
2,29999,22,20000,84,10000,90,9999,0.100000,99,297,0.013251,2,0.000000,15.537801,0.766628,99,99,1,0,0,0,0
2,29999,23,20000,84,10000,40,9999,0.100000,99,297,0.000000,2,0.000000,26.584085,1.017801,99,99,0,0,0,0,0
2,29999,24,20000,84,10000,43,9999,0.100000,99,297,0.000000,1,8.000000,24.774906,9.259398,99,99,0,0,0,0,0
2,29999,25,20000,84,10000,0,9999,0.100000,99,297,0.647972,1,0.000000,23.218832,0.715234,99,99,0,0,0,1,0
2,29999,26,20000,84,10000,40,9999,0.100000,99,297,0.000000,2,0.000000,18.615085,14.475056,99,99,0,0,0,0,0
2,29999,27,20000,84,10000,41,9999,0.100000,99,297,28.263676,1,4.000000,27.176877,19.636954,99,99,1,1,0,0,0
2,29999,28,20000,84,10000,40,9999,0.100000,99,297,0.000000,1,1.000000,25.533921,13.739950,99,99,0,0,0,0,0
2,29999,29,20000,84,10000,40,9999,0.100000,99,297,0.000000,2,0.000000,17.194051,1.783880,99,99,0,0,0,0,0
2,29999,30,20000,84,10000,40,9999,0.100000,99,297,0.000000,2,1.000000,27.697021,12.986166,99,99,0,0,0,0,0
2,29999,31,20000,84,10000,0,9999,0.100000,99,297,0.550389,2,0.000000,21.370985,0.901942,99,99,0,0,0,0,1
2,29999,32,20000,84,10000,40,9999,0.100000,99,297,0.000000,2,0.000000,21.034267,0.517438,99,99,0,0,0,0,0
2,29999,33,20000,84,10000,0,9999,0.100000,99,297,0.253991,1,0.000000,24.221642,0.489558,99,99,0,0,0,1,0
2,29999,34,20000,84,10000,41,9999,0.100000,99,297,0.000000,1,6.000000,31.349994,9.010399,99,99,0,0,0,0,0
2,29999,35,20000,84,10000,41,9999,0.100000,99,297,0.000000,2,5.000000,35.317697,18.208609,99,99,0,0,0,0,0
2,29999,36,20000,84,10000,40,9999,0.100000,99,297,0.000000,2,0.000000,20.395923,0.772870,99,99,0,0,0,0,0
2,29999,37,20000,84,10000,41,9999,0.100000,99,297,0.000000,1,4.000000,30.165260,15.370867,99,99,0,0,0,0,0
2,29999,38,20000,84,10000,40,9999,0.100000,99,297,0.000000,2,0.000000,20.509801,14.310053,99,99,0,0,0,0,0
2,29999,39,20000,84,10000,40,9999,0.100000,99,297,0.000000,2,1.000000,21.554122,16.484572,99,99,0,0,0,0,0
2,29999,40,20000,84,10000,40,9999,0.100000,99,297,0.000000,1,2.000000,22.651031,15.420774,99,99,0,0,0,0,0
2,29999,41,20000,84,10000,40,9999,0.100000,99,297,0.000000,1,0.000000,22.129050,13.134586,99,99,0,0,0,0,0
2,29999,42,20000,84,10000,40,9999,0.100000,99,297,0.000000,1,0.000000,24.242162,0.429618,99,99,0,0,0,0,0
2,29999,43,20000,84,10000,0,9999,0.100000,99,297,0.001362,2,0.000000,33.990673,0.102861,99,99,0,0,1,0,0
2,29999,44,20000,84,10000,40,9999,0.100000,99,297,0.000000,2,0.000000,18.916737,0.066230,99,99,0,0,0,0,0
2,29999,45,20000,84,10000,40,9999,0.100000,99,297,0.000000,2,0.000000,24.627781,1.155955,99,99,0,0,0,0,0
2,29999,46,20000,84,10000,0,9999,0.100000,99,297,0.001675,1,0.000000,31.236848,1.139540,99,99,0,0,0,0,1
2,29999,47,20000,84,10000,40,9999,0.100000,99,297,0.000000,1,0.000000,24.252173,0.469429,99,99,0,0,0,0,0
2,29999,48,20000,84,10000,91,9999,0.100000,99,297,18.706613,2,3.000000,25.898805,20.755142,99,99,1,0,0,0,0
2,29999,49,20000,84,10000,41,9999,0.100000,99,297,0.000000,2,5.000000,29.575898,16.237303,99,99,0,0,0,0,0
2,29999,50,20000,84,10000,40,9999,0.100000,99,297,0.000000,1,0.000000,25.162374,1.015765,99,99,0,0,0,0,0
2,29999,51,20000,84,10000,0,9999,0.100000,99,297,0.007549,1,0.000000,26.813423,0.354648,99,99,0,0,0,1,0
2,29999,52,20000,84,10000,40,9999,0.100000,99,297,0.000000,2,1.000000,27.325382,14.778327,99,99,0,0,0,0,0
2,29999,53,20000,84,10000,40,9999,0.065000,99,297,0.000000,2,0.000000,24.562171,1.423461,99,99,0,0,0,0,0
2,29999,54,20000,84,10000,40,9999,0.100000,99,297,0.000000,1,0.000000,26.942287,0.692538,99,99,0,0,0,0,0
2,29999,55,20000,84,10000,40,9999,0.100000,99,297,0.000000,1,1.000000,30.475413,16.496079,99,99,0,0,0,0,0
2,29999,56,20000,84,10000,40,9999,0.100000,99,297,0.000000,1,0.000000,24.492592,0.390425,99,99,0,0,0,0,0
2,29999,57,20000,84,10000,40,9999,0.100000,99,297,0.000000,1,1.000000,26.133233,19.237949,99,99,0,0,0,0,0
2,29999,58,20000,84,10000,0,9999,0.100000,99,297,1.295736,1,0.000000,25.621031,0.637051,99,99,0,0,1,0,0
2,29999,59,20000,84,10000,0,9999,0.100000,99,297,0.697610,2,0.000000,24.647617,0.743126,99,99,0,0,0,0,1
2,29999,60,20000,84,10000,40,9999,0.100000,99,297,0.000000,1,0.000000,24.524855,0.391664,99,99,0,0,0,0,0
2,29999,61,20000,84,10000,40,9999,0.100000,99,297,0.000000,2,0.000000,26.688963,0.403803,99,99,0,0,0,0,0
2,29999,62,20000,84,10000,40,9999,0.100000,99,297,0.000000,1,0.000000,26.788221,1.239524,99,99,0,0,0,0,0
2,29999,63,20000,84,10000,40,9999,0.100000,99,297,0.000000,2,0.000000,17.564006,2.011205,99,99,0,0,0,0,0
2,29999,64,20000,84,10000,40,9999,0.100000,99,297,0.000000,2,1.000000,22.421523,15.650851,99,99,0,0,0,0,0
2,29999,65,20000,84,10000,40,9999,0.100000,99,297,0.000000,2,1.000000,23.457357,13.627104,99,99,0,0,0,0,0
2,29999,66,20000,84,10000,40,9999,0.100000,99,297,0.000000,1,0.000000,24.224576,0.668488,99,99,0,0,0,0,0
2,29999,67,20000,84,10000,40,9999,0.100000,99,297,0.000000,2,1.000000,26.483081,15.622879,99,99,0,0,0,0,0
2,29999,68,20000,84,10000,0,9999,0.100000,99,297,0.168693,2,0.000000,17.598290,0.346616,99,99,0,1,0,0,0
2,29999,69,20000,84,10000,40,9999,0.100000,99,297,0.000000,2,0.000000,31.266030,23.622705,99,99,0,0,0,0,0
2,29999,70,20000,84,10000,40,9999,0.100000,99,297,0.000000,1,0.000000,24.575905,0.534042,99,99,0,0,0,0,0
2,29999,71,20000,84,10000,40,9999,0.100000,99,297,0.000000,2,1.000000,21.596861,3.645649,99,99,0,0,0,0,0
2,29999,72,20000,84,10000,40,9999,0.100000,99,297,0.000000,2,0.000000,24.638441,1.051610,99,99,0,0,0,0,0
2,29999,73,20000,84,10000,40,9999,0.100000,99,297,0.000000,1,2.000000,21.554845,4.589220,99,99,0,0,0,0,0
2,29999,74,20000,84,10000,40,9999,0.100000,99,297,0.000000,1,3.000000,29.364454,16.698126,99,99,0,0,0,0,0
2,29999,75,20000,84,10000,0,9999,0.100000,99,297,0.238834,1,0.000000,26.689424,0.295754,99,99,0,1,0,0,0
2,29999,76,20000,84,10000,40,9999,0.100000,99,297,0.000000,2,2.000000,26.183646,11.430443,99,99,0,0,0,0,0
2,29999,77,20000,84,10000,0,9999,0.100000,99,297,0.073408,1,0.000000,26.588827,0.265245,99,99,0,0,1,0,0
2,29999,78,20000,84,10000,40,9999,0.100000,99,297,0.000000,2,0.000000,26.150880,2.076240,99,99,0,0,0,0,0
2,29999,79,20000,84,10000,40,9999,0.100000,99,297,0.000000,1,1.000000,24.625295,4.780522,99,99,0,0,0,0,0
2,29999,80,20000,84,10000,40,9999,0.100000,99,297,0.000000,1,0.000000,24.698437,1.074703,99,99,0,0,0,0,0
2,29999,81,20000,84,10000,40,9999,0.100000,99,297,0.000000,2,1.000000,27.646412,13.769709,99,99,0,0,0,0,0
2,29999,82,20000,84,10000,40,9999,0.100000,99,297,0.000000,2,0.000000,17.470837,0.384121,99,99,0,0,0,0,0
2,29999,83,20000,84,10000,0,9999,0.100000,99,297,0.000083,1,0.000000,13.673082,0.181574,99,99,0,0,0,1,0
2,29999,84,20000,9,10000,40,9999,0.100000,99,297,0.000000,2,2.000000,27.521060,16.846797,99,99,0,0,0,0,0
2,29999,85,20000,84,10000,40,9999,0.100000,99,297,0.000000,2,1.000000,29.198108,15.198595,99,99,0,0,0,0,0
2,29999,86,20000,84,10000,41,9999,0.100000,99,297,0.000000,2,5.000000,28.363423,18.371581,99,99,0,0,0,0,0
2,29999,87,20000,84,10000,42,9999,0.100000,99,297,0.000000,1,6.000000,26.197874,19.459638,99,99,0,0,0,0,0
2,29999,88,20000,84,10000,40,9999,0.100000,99,297,0.000000,2,0.000000,23.295222,1.410223,99,99,0,0,0,0,0
2,29999,89,20000,84,10000,40,9999,0.100000,99,297,0.000000,2,2.000000,26.820625,16.930439,99,99,0,0,0,0,0
2,29999,90,20000,84,10000,40,9999,0.100000,99,297,0.000000,1,1.000000,31.844293,16.680808,99,99,0,0,0,0,0
2,29999,91,20000,84,10000,40,9999,0.100000,99,297,0.000000,1,1.000000,19.297753,14.580193,99,99,0,0,0,0,0
2,29999,92,20000,84,10000,43,9999,0.100000,99,297,0.000000,1,8.000000,25.010631,8.967523,99,99,0,0,0,0,0
2,29999,93,20000,84,10000,40,9999,0.100000,99,297,0.000000,1,0.000000,19.159452,0.085886,99,99,0,0,0,0,0
2,29999,94,20000,84,10000,40,9999,0.100000,99,297,0.000000,1,2.000000,21.699483,15.906104,99,99,0,0,0,0,0
2,29999,95,20000,84,10000,0,9999,0.100000,99,297,0.013620,2,0.000000,30.725715,0.181184,99,99,0,1,0,0,0
2,29999,96,20000,84,10000,41,9999,0.100000,99,297,0.000000,1,4.000000,31.395783,14.073421,99,99,0,0,0,0,0
2,29999,97,20000,84,10000,1,9999,0.100000,99,297,18.618021,1,3.000000,26.726102,18.449704,99,99,0,1,0,0,0
2,29999,98,20000,84,10000,41,9999,0.100000,99,297,0.000000,1,4.000000,28.170977,17.019290,99,99,0,0,0,0,0
2,29999,99,20000,84,10000,40,9999,0.100000,99,297,0.000000,2,0.000000,23.680701,13.042360,99,99,0,0,0,0,0
3,39999,0,30000,27,20000,40,9999,0.100000,99,396,0.000000,1,0.000000,21.583901,16.665408,99,99,0,0,0,0,0
3,39999,1,30000,27,20000,0,9999,0.100000,99,396,3.039008,2,1.000000,25.963940,3.163720,99,99,0,0,1,0,0
3,39999,2,30000,27,20000,40,9999,0.100000,99,396,0.000000,1,1.000000,20.343887,14.625480,99,99,0,0,0,0,0
3,39999,3,30000,27,20000,0,9999,0.100000,99,396,2.779717,1,0.000000,23.922988,0.876184,99,99,0,0,0,1,0
3,39999,4,30000,27,20000,40,9999,0.100000,99,396,0.000000,1,1.000000,25.753550,16.079966,99,99,0,0,0,0,0
3,39999,5,30000,27,20000,40,9999,0.100000,99,396,0.000000,1,0.000000,25.025757,11.609358,99,99,0,0,0,0,0
3,39999,6,30000,27,20000,40,9999,0.100000,99,396,0.000000,2,1.000000,19.572565,15.199515,99,99,0,0,0,0,0
3,39999,7,30000,27,20000,40,9999,0.100000,99,396,0.000000,2,3.000000,32.358643,15.655218,99,99,0,0,0,0,0
3,39999,8,30000,27,20000,0,9999,0.100000,99,396,0.013194,2,0.000000,19.016936,0.161494,99,99,0,0,0,0,1
3,39999,9,30000,27,20000,40,9999,0.100000,99,396,0.000000,3,2.000000,26.398191,16.615961,99,99,0,0,0,0,0
3,39999,10,30000,27,20000,40,9999,0.100000,99,396,0.000000,1,2.000000,30.429518,16.602461,99,99,0,0,0,0,0
3,39999,11,30000,27,20000,40,9999,0.100000,99,396,0.000000,1,0.000000,20.326070,0.508469,99,99,0,0,0,0,0
3,39999,12,30000,27,20000,40,9999,0.100000,99,396,0.000000,2,0.000000,21.327688,2.929335,99,99,0,0,0,0,0
3,39999,13,30000,27,20000,0,9999,0.100000,99,396,0.003049,1,0.000000,14.557188,0.116089,99,99,0,0,1,0,0
3,39999,14,30000,27,20000,90,9999,0.100000,99,396,4.756028,1,0.000000,32.053220,1.628244,99,99,1,0,0,0,0
3,39999,15,30000,27,20000,40,9999,0.100000,99,396,0.000000,1,2.000000,28.726475,12.334381,99,99,0,0,0,0,0
3,39999,16,30000,27,20000,40,9999,0.100000,99,396,0.000000,2,0.000000,24.504635,2.954414,99,99,0,0,0,0,0
3,39999,17,30000,27,20000,0,9999,0.100000,99,396,1.610956,1,0.000000,20.880703,0.243878,99,99,0,0,1,0,0
3,39999,18,30000,27,20000,40,9999,0.100000,99,396,0.000000,1,0.000000,24.778467,2.570897,99,99,0,0,0,0,0
3,39999,19,30000,27,20000,42,9999,0.100000,99,396,0.000000,2,6.000000,26.104834,16.240727,99,99,0,0,0,0,0
3,39999,20,30000,27,20000,40,9999,0.100000,99,396,0.000000,1,0.000000,23.596755,0.973694,99,99,0,0,0,0,0
3,39999,21,30000,27,20000,40,9999,0.100000,99,396,0.000000,1,0.000000,23.875204,13.883494,99,99,0,0,0,0,0
3,39999,22,30000,27,20000,90,9999,0.100000,99,396,2.403651,2,0.000000,15.621446,1.083014,99,99,1,0,0,0,0
3,39999,23,30000,27,20000,40,9999,0.100000,99,396,0.000000,2,0.000000,25.819373,1.009024,99,99,0,0,0,0,0
3,39999,24,30000,27,20000,40,9999,0.100000,99,396,0.000000,2,0.000000,19.864271,1.032716,99,99,0,0,0,0,0
3,39999,25,30000,27,20000,0,9999,0.100000,99,396,0.655962,1,0.000000,23.107542,0.736424,99,99,0,0,0,1,0
3,39999,26,30000,27,20000,40,9999,0.100000,99,396,0.000000,2,1.000000,17.981790,13.258674,99,99,0,0,0,0,0
3,39999,27,30000,48,20000,40,9999,0.100000,99,396,0.000000,2,1.000000,28.080987,10.480370,99,99,0,0,0,0,0
3,39999,28,30000,27,20000,40,9999,0.100000,99,396,0.000000,1,1.000000,24.631392,12.172142,99,99,0,0,0,0,0
3,39999,29,30000,27,20000,40,9999,0.100000,99,396,0.000000,2,0.000000,17.345769,0.898931,99,99,0,0,0,0,0
3,39999,30,30000,27,20000,40,9999,0.100000,99,396,0.000000,2,0.000000,26.720593,13.142650,99,99,0,0,0,0,0
3,39999,31,30000,27,20000,0,9999,0.100000,99,396,0.233267,2,0.000000,21.404187,0.758303,99,99,0,0,0,0,1
3,39999,32,30000,27,20000,40,9999,0.100000,99,396,0.000000,2,0.000000,20.642466,0.315634,99,99,0,0,0,0,0
3,39999,33,30000,27,20000,0,9999,0.100000,99,396,0.784341,1,0.000000,24.282716,2.734969,99,99,0,0,0,1,0
3,39999,34,30000,27,20000,40,9999,0.100000,99,396,0.000000,2,0.000000,25.048111,1.835888,99,99,0,0,0,0,0
3,39999,35,30000,27,20000,40,9999,0.100000,99,396,0.000000,3,2.000000,30.172449,12.836664,99,99,0,0,0,0,0
3,39999,36,30000,27,20000,40,9999,0.100000,99,396,0.000000,2,0.000000,20.320680,0.777134,99,99,0,0,0,0,0
3,39999,37,30000,27,20000,40,9999,0.100000,99,396,0.000000,2,0.000000,27.037483,11.578380,99,99,0,0,0,0,0
3,39999,38,30000,27,20000,41,9999,0.100000,99,396,0.000000,2,4.000000,20.799922,15.696863,99,99,0,0,0,0,0
3,39999,39,30000,27,20000,40,9999,0.100000,99,396,0.000000,2,0.000000,22.350588,13.465056,99,99,0,0,0,0,0
3,39999,40,30000,27,20000,41,9999,0.100000,99,396,0.000000,1,3.000000,24.037273,6.465364,99,99,0,0,0,0,0
3,39999,41,30000,27,20000,40,9999,0.100000,99,396,0.000000,1,0.000000,22.649870,11.882152,99,99,0,0,0,0,0
3,39999,42,30000,27,20000,40,9999,0.100000,99,396,0.000000,1,2.000000,24.300772,12.490710,99,99,0,0,0,0,0
3,39999,43,30000,27,20000,0,9999,0.100000,99,396,0.002108,2,0.000000,33.989182,0.102636,99,99,0,0,1,0,0
3,39999,44,30000,27,20000,40,9999,0.100000,99,396,0.000000,2,0.000000,18.923734,0.060803,99,99,0,0,0,0,0
3,39999,45,30000,27,20000,41,9999,0.100000,99,396,0.000000,2,5.000000,24.938003,7.854616,99,99,0,0,0,0,0
3,39999,46,30000,27,20000,0,9999,0.100000,99,396,0.001491,2,0.000000,31.223607,0.070818,99,99,0,0,0,0,1
3,39999,47,30000,27,20000,40,9999,0.100000,99,396,0.000000,1,0.000000,24.307955,0.551558,99,99,0,0,0,0,0
3,39999,48,30000,27,20000,40,9999,0.100000,99,396,0.000000,3,2.000000,25.643018,17.527387,99,99,0,0,0,0,0
3,39999,49,30000,27,20000,41,9999,0.100000,99,396,0.000000,3,4.000000,26.082576,18.081893,99,99,0,0,0,0,0
3,39999,50,30000,27,20000,40,9999,0.100000,99,396,0.000000,1,0.000000,24.384903,0.993475,99,99,0,0,0,0,0
3,39999,51,30000,27,20000,1,9999,0.100000,99,396,7.511838,1,4.000000,26.830521,4.726336,99,99,0,0,0,1,0
3,39999,52,30000,27,20000,40,9999,0.100000,99,396,0.000000,3,0.000000,26.140505,12.678321,99,99,0,0,0,0,0
3,39999,53,30000,27,20000,40,9999,0.100000,99,396,0.000000,2,0.000000,24.808472,1.805182,99,99,0,0,0,0,0
3,39999,54,30000,27,20000,41,9999,0.100000,99,396,0.000000,1,4.000000,26.972241,5.033396,99,99,0,0,0,0,0
3,39999,55,30000,27,20000,40,9999,0.100000,99,396,0.000000,1,1.000000,29.331750,13.878414,99,99,0,0,0,0,0
3,39999,56,30000,27,20000,0,9999,0.100000,99,396,0.087601,2,0.000000,24.734475,0.404999,99,99,0,0,0,0,1
3,39999,57,30000,27,20000,40,9999,0.100000,99,396,0.000000,1,0.000000,24.935499,4.471903,99,99,0,0,0,0,0
3,39999,58,30000,27,20000,40,9999,0.100000,99,396,0.000000,1,0.000000,25.665385,1.250822,99,99,0,0,0,0,0
3,39999,59,30000,27,20000,0,9999,0.100000,99,396,0.545118,3,0.000000,24.983277,1.229592,99,99,0,0,0,0,1
3,39999,60,30000,27,20000,40,9999,0.100000,99,396,0.000000,1,0.000000,24.806313,0.859689,99,99,0,0,0,0,0
3,39999,61,30000,27,20000,41,9999,0.100000,99,396,0.000000,2,4.000000,26.692308,4.476722,99,99,0,0,0,0,0
3,39999,62,30000,27,20000,41,9999,0.100000,99,396,0.000000,1,4.000000,26.975879,5.207191,99,99,0,0,0,0,0
3,39999,63,30000,27,20000,40,9999,0.100000,99,396,0.000000,3,0.000000,17.279638,0.601256,99,99,0,0,0,0,0
3,39999,64,30000,27,20000,40,9999,0.100000,99,396,0.000000,2,1.000000,21.019032,15.427992,99,99,0,0,0,0,0
3,39999,65,30000,27,20000,40,9999,0.100000,99,396,0.000000,2,1.000000,23.016029,13.401654,99,99,0,0,0,0,0
3,39999,66,30000,27,20000,40,9999,0.100000,99,396,0.000000,1,0.000000,24.278080,0.798198,99,99,0,0,0,0,0
3,39999,67,30000,27,20000,40,9999,0.100000,99,396,0.000000,3,1.000000,25.774905,17.528156,99,99,0,0,0,0,0
3,39999,68,30000,27,20000,0,9999,0.100000,99,396,9.287055,2,1.000000,17.661688,2.588380,99,99,0,1,0,0,0
3,39999,69,30000,27,20000,40,9999,0.065000,99,396,0.000000,2,0.000000,31.346968,23.706200,99,99,0,0,0,0,0
3,39999,70,30000,27,20000,40,9999,0.100000,99,396,0.000000,1,0.000000,24.380876,0.970917,99,99,0,0,0,0,0
3,39999,71,30000,27,20000,40,9999,0.100000,99,396,0.000000,2,0.000000,20.871395,0.593928,99,99,0,0,0,0,0
3,39999,72,30000,27,20000,40,9999,0.100000,99,396,0.000000,2,0.000000,23.826050,1.004917,99,99,0,0,0,0,0
3,39999,73,30000,27,20000,40,9999,0.100000,99,396,0.000000,1,0.000000,21.003157,1.071700,99,99,0,0,0,0,0
3,39999,74,30000,27,20000,40,9999,0.100000,99,396,0.000000,2,2.000000,26.534170,16.862392,99,99,0,0,0,0,0
3,39999,75,30000,27,20000,0,9999,0.100000,99,396,0.375261,1,0.000000,26.931828,0.450392,99,99,0,1,0,0,0
3,39999,76,30000,27,20000,40,9999,0.100000,99,396,0.000000,2,1.000000,25.873440,17.581037,99,99,0,0,0,0,0
3,39999,77,30000,27,20000,0,9999,0.100000,99,396,0.089890,1,0.000000,26.816568,0.155593,99,99,0,0,1,0,0
3,39999,78,30000,27,20000,41,9999,0.100000,99,396,0.000000,2,4.000000,26.540370,4.264826,99,99,0,0,0,0,0
3,39999,79,30000,27,20000,40,9999,0.100000,99,396,0.000000,1,0.000000,24.960163,0.747597,99,99,0,0,0,0,0
3,39999,80,30000,27,20000,40,9999,0.100000,99,396,0.000000,1,0.000000,24.948435,1.364362,99,99,0,0,0,0,0
3,39999,81,30000,27,20000,40,9999,0.100000,99,396,0.000000,3,0.000000,26.069707,12.004937,99,99,0,0,0,0,0
3,39999,82,30000,27,20000,40,9999,0.100000,99,396,0.000000,2,1.000000,17.531394,3.526875,99,99,0,0,0,0,0
3,39999,83,30000,27,20000,0,9999,0.100000,99,396,0.000528,1,0.000000,13.672430,0.176778,99,99,0,0,0,1,0
3,39999,84,30000,27,20000,40,9999,0.100000,99,396,0.000000,2,1.000000,28.150570,12.709502,99,99,0,0,0,0,0
3,39999,85,30000,27,20000,40,9999,0.100000,99,396,0.000000,2,1.000000,29.373206,13.034313,99,99,0,0,0,0,0
3,39999,86,30000,27,20000,40,9999,0.100000,99,396,0.000000,3,2.000000,26.375275,16.029226,99,99,0,0,0,0,0
3,39999,87,30000,27,20000,40,9999,0.100000,99,396,0.000000,1,0.000000,29.856412,0.109078,99,99,0,0,0,0,0
3,39999,88,30000,27,20000,40,9999,0.100000,99,396,0.000000,2,0.000000,23.181417,1.450266,99,99,0,0,0,0,0
3,39999,89,30000,27,20000,41,9999,0.100000,99,396,0.000000,2,4.000000,27.554565,15.406874,99,99,0,0,0,0,0
3,39999,90,30000,27,20000,40,9999,0.100000,99,396,0.000000,1,1.000000,31.131237,15.201118,99,99,0,0,0,0,0
3,39999,91,30000,27,20000,40,9999,0.100000,99,396,0.000000,1,0.000000,18.773372,14.529658,99,99,0,0,0,0,0
3,39999,92,30000,27,20000,41,9999,0.100000,99,396,0.000000,2,3.000000,20.364151,5.720667,99,99,0,0,0,0,0
3,39999,93,30000,27,20000,40,9999,0.100000,99,396,0.000000,1,0.000000,19.174821,0.071727,99,99,0,0,0,0,0
3,39999,94,30000,27,20000,40,9999,0.100000,99,396,0.000000,2,0.000000,19.707314,15.780674,99,99,0,0,0,0,0
3,39999,95,30000,27,20000,0,9999,0.100000,99,396,0.035697,2,0.000000,30.675199,0.171375,99,99,0,1,0,0,0
3,39999,96,30000,27,20000,40,9999,0.100000,99,396,0.000000,2,1.000000,27.593999,13.624188,99,99,0,0,0,0,0
3,39999,97,30000,27,20000,40,9999,0.100000,99,396,0.000000,2,0.000000,26.168153,14.838511,99,99,0,0,0,0,0
3,39999,98,30000,27,20000,40,9999,0.100000,99,396,0.000000,2,0.000000,24.792169,14.116666,99,99,0,0,0,0,0
3,39999,99,30000,27,20000,40,9999,0.100000,99,396,0.000000,2,0.000000,23.416183,12.891392,99,99,0,0,0,0,0
4,49999,0,40000,68,30000,40,9999,0.100000,99,495,0.000000,1,1.000000,20.991692,14.858896,99,99,0,0,0,0,0
4,49999,1,40000,68,30000,0,9999,0.100000,99,495,0.627396,3,0.000000,25.680505,1.261470,99,99,0,0,1,0,0
4,49999,2,40000,68,30000,40,9999,0.100000,99,495,0.000000,1,1.000000,20.483713,15.951107,99,99,0,0,0,0,0
4,49999,3,40000,68,30000,0,9999,0.100000,99,495,6.810599,1,1.000000,23.604317,1.763811,99,99,0,0,0,1,0
4,49999,4,40000,68,30000,40,9999,0.100000,99,495,0.000000,1,1.000000,25.778947,14.967752,99,99,0,0,0,0,0
4,49999,5,40000,68,30000,40,9999,0.100000,99,495,0.000000,1,1.000000,25.671823,12.645907,99,99,0,0,0,0,0
4,49999,6,40000,68,30000,40,9999,0.100000,99,495,0.000000,2,1.000000,19.047294,14.952336,99,99,0,0,0,0,0
4,49999,7,40000,68,30000,40,9999,0.100000,99,495,0.000000,2,0.000000,30.350326,14.222456,99,99,0,0,0,0,0
4,49999,8,40000,68,30000,0,9999,0.100000,99,495,0.002893,2,0.000000,19.019176,0.170005,99,99,0,0,0,0,1
4,49999,9,40000,68,30000,41,9999,0.100000,99,495,0.000000,3,3.000000,25.717932,15.100487,99,99,0,0,0,0,0
4,49999,10,40000,68,30000,40,9999,0.100000,99,495,0.000000,1,1.000000,31.344329,14.695625,99,99,0,0,0,0,0
4,49999,11,40000,68,30000,41,9999,0.100000,99,495,0.000000,1,3.000000,20.321519,3.982502,99,99,0,0,0,0,0
4,49999,12,40000,68,30000,40,9999,0.100000,99,495,0.000000,2,0.000000,21.531756,1.784448,99,99,0,0,0,0,0
4,49999,13,40000,68,30000,0,9999,0.100000,99,495,0.006458,1,0.000000,14.558961,0.122035,99,99,0,0,1,0,0
4,49999,14,40000,68,30000,90,9999,0.100000,99,495,0.113546,1,0.000000,32.929536,0.533213,99,99,1,0,0,0,0
4,49999,15,40000,68,30000,40,9999,0.100000,99,495,0.000000,1,2.000000,26.946945,13.798615,99,99,0,0,0,0,0
4,49999,16,40000,68,30000,40,9999,0.100000,99,495,0.000000,2,2.000000,24.149503,3.093343,99,99,0,0,0,0,0
4,49999,17,40000,68,30000,41,9999,0.100000,99,495,0.000000,1,3.000000,20.981611,16.649240,99,99,0,0,0,0,0
4,49999,18,40000,68,30000,40,9999,0.100000,99,495,0.000000,1,0.000000,25.380066,0.592905,99,99,0,0,0,0,0
4,49999,19,40000,68,30000,44,9999,0.100000,99,495,0.000000,2,14.000000,29.749005,22.235053,99,99,0,0,0,0,0
4,49999,20,40000,68,30000,40,9999,0.100000,99,495,0.000000,1,1.000000,23.269982,1.655800,99,99,0,0,0,0,0
4,49999,21,40000,68,30000,40,9999,0.100000,99,495,0.000000,1,0.000000,23.727095,13.961425,99,99,0,0,0,0,0
4,49999,22,40000,68,30000,91,9999,0.100000,99,495,10.566951,2,2.000000,16.035022,2.861025,99,99,1,0,0,0,0
4,49999,23,40000,68,30000,40,9999,0.100000,99,495,0.000000,2,0.000000,25.052261,0.978973,99,99,0,0,0,0,0
4,49999,24,40000,68,30000,40,9999,0.100000,99,495,0.000000,2,2.000000,19.773344,5.630221,99,99,0,0,0,0,0
4,49999,25,40000,68,30000,0,9999,0.100000,99,495,0.703953,1,0.000000,22.990358,0.697437,99,99,0,0,0,1,0
4,49999,26,40000,68,30000,40,9999,0.100000,99,495,0.000000,2,1.000000,19.112106,15.530439,99,99,0,0,0,0,0
4,49999,27,40000,68,30000,40,9999,0.100000,99,495,0.000000,3,1.000000,27.473408,11.854191,99,99,0,0,0,0,0
4,49999,28,40000,68,30000,40,9999,0.100000,99,495,0.000000,1,1.000000,24.242798,13.626668,99,99,0,0,0,0,0
4,49999,29,40000,68,30000,41,9999,0.100000,99,495,0.000000,2,3.000000,17.111722,6.403534,99,99,0,0,0,0,0
4,49999,30,40000,68,30000,40,9999,0.100000,99,495,0.000000,2,1.000000,26.374207,11.365318,99,99,0,0,0,0,0
4,49999,31,40000,68,30000,0,9999,0.100000,99,495,0.215502,2,0.000000,21.420120,1.347108,99,99,0,0,0,0,1
4,49999,32,40000,68,30000,41,9999,0.100000,99,495,0.000000,2,3.000000,20.692635,17.059207,99,99,0,0,0,0,0
4,49999,33,40000,68,30000,0,9999,0.100000,99,495,0.179602,1,0.000000,24.506807,0.127782,99,99,0,0,0,1,0
4,49999,34,40000,68,30000,44,9999,0.100000,99,495,0.000000,3,12.000000,25.308267,12.962289,99,99,0,0,0,0,0
4,49999,35,40000,68,30000,40,9999,0.100000,99,495,0.000000,4,2.000000,28.023151,14.794395,99,99,0,0,0,0,0
4,49999,36,40000,68,30000,40,9999,0.100000,99,495,0.000000,2,0.000000,20.128468,0.490689,99,99,0,0,0,0,0
4,49999,37,40000,68,30000,40,9999,0.100000,99,495,0.000000,3,1.000000,26.909072,13.343365,99,99,0,0,0,0,0
4,49999,38,40000,68,30000,40,9999,0.100000,99,495,0.000000,2,2.000000,23.392875,5.901563,99,99,0,0,0,0,0
4,49999,39,40000,68,30000,40,9999,0.100000,99,495,0.000000,2,2.000000,23.051636,9.970911,99,99,0,0,0,0,0
4,49999,40,40000,68,30000,40,9999,0.100000,99,495,0.000000,2,0.000000,21.675268,3.622507,99,99,0,0,0,0,0
4,49999,41,40000,68,30000,40,9999,0.100000,99,495,0.000000,1,0.000000,22.579332,11.412249,99,99,0,0,0,0,0
4,49999,42,40000,68,30000,40,9999,0.100000,99,495,0.000000,1,1.000000,21.927592,13.187071,99,99,0,0,0,0,0
4,49999,43,40000,68,30000,0,9999,0.100000,99,495,0.002125,2,0.000000,33.987420,0.103566,99,99,0,0,1,0,0
4,49999,44,40000,68,30000,40,9999,0.100000,99,495,0.000000,2,0.000000,18.925340,0.064131,99,99,0,0,0,0,0
4,49999,45,40000,68,30000,43,9999,0.100000,99,495,0.000000,3,8.000000,19.343775,9.002739,99,99,0,0,0,0,0
4,49999,46,40000,68,30000,0,9999,0.100000,99,495,0.000909,2,0.000000,31.223038,0.068735,99,99,0,0,0,0,1
4,49999,47,40000,68,30000,40,9999,0.100000,99,495,0.000000,1,0.000000,24.564984,0.465959,99,99,0,0,0,0,0
4,49999,48,40000,68,30000,42,9999,0.100000,99,495,0.000000,4,7.000000,26.029111,19.209598,99,99,0,0,0,0,0
4,49999,49,40000,68,30000,40,9999,0.100000,99,495,0.000000,3,1.000000,28.491658,15.395905,99,99,0,0,0,0,0
4,49999,50,40000,68,30000,40,9999,0.100000,99,495,0.000000,1,0.000000,23.631733,0.987831,99,99,0,0,0,0,0
4,49999,51,40000,68,30000,0,9999,0.100000,99,495,2.170487,2,0.000000,29.903165,1.173707,99,99,0,0,0,1,0
4,49999,52,40000,68,30000,40,9999,0.100000,99,495,0.000000,3,1.000000,26.185759,12.201512,99,99,0,0,0,0,0
4,49999,53,40000,68,30000,40,9999,0.100000,99,495,0.000000,2,0.000000,25.038522,1.665915,99,99,0,0,0,0,0
4,49999,54,40000,68,30000,40,9999,0.100000,99,495,0.000000,2,0.000000,30.137205,1.412105,99,99,0,0,0,0,0
4,49999,55,40000,68,30000,40,9999,0.100000,99,495,0.000000,1,1.000000,28.406487,12.893901,99,99,0,0,0,0,0
4,49999,56,40000,68,30000,0,9999,0.100000,99,495,0.092096,2,0.000000,24.796303,0.129522,99,99,0,0,0,0,1
4,49999,57,40000,68,30000,40,9999,0.100000,99,495,0.000000,1,0.000000,25.152300,1.295040,99,99,0,0,0,0,0
4,49999,58,40000,68,30000,40,9999,0.100000,99,495,0.000000,2,0.000000,25.405014,1.089631,99,99,0,0,0,0,0
4,49999,59,40000,68,30000,0,9999,0.100000,99,495,0.968591,3,0.000000,25.552478,0.622574,99,99,0,0,0,0,1
4,49999,60,40000,68,30000,40,9999,0.100000,99,495,0.000000,1,0.000000,24.946913,1.015079,99,99,0,0,0,0,0
4,49999,61,40000,68,30000,40,9999,0.100000,99,495,0.000000,2,0.000000,29.672369,1.069338,99,99,0,0,0,0,0
4,49999,62,40000,68,30000,40,9999,0.100000,99,495,0.000000,2,0.000000,30.067467,2.262391,99,99,0,0,0,0,0
4,49999,63,40000,68,30000,41,9999,0.100000,99,495,0.000000,3,2.000000,17.034680,5.966400,99,99,0,0,0,0,0
4,49999,64,40000,68,30000,40,9999,0.100000,99,495,0.000000,2,1.000000,21.757722,13.018571,99,99,0,0,0,0,0
4,49999,65,40000,68,30000,40,9999,0.100000,99,495,0.000000,2,0.000000,23.375887,11.759262,99,99,0,0,0,0,0
4,49999,66,40000,68,30000,40,9999,0.100000,99,495,0.000000,1,0.000000,24.415129,0.114042,99,99,0,0,0,0,0
4,49999,67,40000,68,30000,40,9999,0.100000,99,495,0.000000,3,1.000000,26.428774,15.171517,99,99,0,0,0,0,0
4,49999,68,40000,51,30000,4,9999,0.100000,99,495,47.207503,2,9.000000,19.524339,18.879312,99,99,0,1,0,0,0
4,49999,69,40000,68,30000,40,9999,0.100000,99,495,0.000000,2,0.000000,31.426417,7.916924,99,99,0,0,0,0,0
4,49999,70,40000,68,30000,40,9999,0.100000,99,495,0.000000,1,1.000000,24.087191,2.055971,99,99,0,0,0,0,0
4,49999,71,40000,68,30000,40,9999,0.100000,99,495,0.000000,2,0.000000,20.902562,1.087511,99,99,0,0,0,0,0
4,49999,72,40000,68,30000,40,9999,0.100000,99,495,0.000000,2,0.000000,23.076325,0.964999,99,99,0,0,0,0,0
4,49999,73,40000,68,30000,40,9999,0.100000,99,495,0.000000,1,0.000000,20.983607,2.041025,99,99,0,0,0,0,0
4,49999,74,40000,68,30000,40,9999,0.100000,99,495,0.000000,2,1.000000,24.788212,13.391151,99,99,0,0,0,0,0
4,49999,75,40000,68,30000,0,9999,0.100000,99,495,0.113558,1,0.000000,27.328167,0.307137,99,99,0,1,0,0,0
4,49999,76,40000,68,30000,40,9999,0.100000,99,495,0.000000,2,1.000000,27.000358,14.045805,99,99,0,0,0,0,0
4,49999,77,40000,68,30000,0,9999,0.100000,99,495,0.066170,1,0.000000,26.900630,0.129015,99,99,0,0,1,0,0
4,49999,78,40000,68,30000,40,9999,0.100000,99,495,0.000000,2,0.000000,29.408050,1.086002,99,99,0,0,0,0,0
4,49999,79,40000,68,30000,40,9999,0.100000,99,495,0.000000,1,0.000000,25.318763,0.509430,99,99,0,0,0,0,0
4,49999,80,40000,68,30000,40,9999,0.100000,99,495,0.000000,1,0.000000,25.205358,1.249447,99,99,0,0,0,0,0
4,49999,81,40000,68,30000,40,9999,0.100000,99,495,0.000000,3,1.000000,25.917716,14.676819,99,99,0,0,0,0,0
4,49999,82,40000,68,30000,4,9999,0.100000,99,495,46.160351,2,9.000000,19.372212,18.860158,99,99,0,1,0,0,0
4,49999,83,40000,68,30000,0,9999,0.100000,99,495,0.002431,1,0.000000,13.671841,0.195036,99,99,0,0,0,1,0
4,49999,84,40000,68,30000,40,9999,0.100000,99,495,0.000000,2,1.000000,27.802332,12.953854,99,99,0,0,0,0,0
4,49999,85,40000,68,30000,40,9999,0.100000,99,495,0.000000,2,2.000000,28.940729,15.779951,99,99,0,0,0,0,0
4,49999,86,40000,68,30000,41,9999,0.100000,99,495,0.000000,4,3.000000,28.244446,16.187747,99,99,0,0,0,0,0
4,49999,87,40000,68,30000,40,9999,0.100000,99,495,0.000000,2,0.000000,29.856389,0.111884,99,99,0,0,0,0,0
4,49999,88,40000,68,30000,40,9999,0.100000,99,495,0.000000,2,0.000000,23.058845,1.380952,99,99,0,0,0,0,0
4,49999,89,40000,68,30000,40,9999,0.100000,99,495,0.000000,2,0.000000,31.128755,1.001210,99,99,0,0,0,0,0
4,49999,90,40000,68,30000,40,9999,0.100000,99,495,0.000000,1,1.000000,30.237809,14.035264,99,99,0,0,0,0,0
4,49999,91,40000,68,30000,40,9999,0.100000,99,495,0.000000,1,0.000000,18.490550,14.479891,99,99,0,0,0,0,0
4,49999,92,40000,68,30000,44,9999,0.100000,99,495,0.000000,3,9.000000,20.931908,10.057348,99,99,0,0,0,0,0
4,49999,93,40000,68,30000,40,9999,0.100000,99,495,0.000000,1,0.000000,19.177783,0.068380,99,99,0,0,0,0,0
4,49999,94,40000,68,30000,40,9999,0.100000,99,495,0.000000,2,1.000000,20.032881,14.559212,99,99,0,0,0,0,0
4,49999,95,40000,68,30000,0,9999,0.100000,99,495,2.611006,2,0.000000,30.616936,0.737983,99,99,0,1,0,0,0
4,49999,96,40000,68,30000,40,9999,0.100000,99,495,0.000000,2,0.000000,27.419917,12.080345,99,99,0,0,0,0,0
4,49999,97,40000,68,30000,40,9999,0.065000,99,495,0.000000,2,1.000000,26.467656,15.099144,99,99,0,0,0,0,0
4,49999,98,40000,68,30000,40,9999,0.100000,99,495,0.000000,2,1.000000,24.615869,17.338042,99,99,0,0,0,0,0
4,49999,99,40000,68,30000,40,9999,0.100000,99,495,0.000000,2,1.000000,23.715840,15.434254,99,99,0,0,0,0,0
5,59999,0,50000,68,40000,40,9999,0.100000,99,594,0.000000,1,1.000000,22.726957,13.366933,99,99,0,0,0,0,0
5,59999,1,50000,68,40000,0,9999,0.100000,99,594,0.340074,3,0.000000,25.726902,0.627641,99,99,0,0,1,0,0
5,59999,2,50000,68,40000,40,9999,0.100000,99,594,0.000000,1,1.000000,21.251459,15.659884,99,99,0,0,0,0,0
5,59999,3,50000,68,40000,0,9999,0.100000,99,594,1.534548,1,0.000000,23.320753,0.628704,99,99,0,0,0,1,0
5,59999,4,50000,68,40000,40,9999,0.100000,99,594,0.000000,1,0.000000,25.651225,11.973193,99,99,0,0,0,0,0
5,59999,5,50000,68,40000,40,9999,0.100000,99,594,0.000000,1,1.000000,27.032831,13.074262,99,99,0,0,0,0,0
5,59999,6,50000,68,40000,41,9999,0.100000,99,594,0.000000,2,3.000000,19.105887,15.279001,99,99,0,0,0,0,0
5,59999,7,50000,68,40000,40,9999,0.100000,99,594,0.000000,2,1.000000,30.216349,12.567969,99,99,0,0,0,0,0
5,59999,8,50000,68,40000,0,9999,0.100000,99,594,0.002614,2,0.000000,19.018939,0.162556,99,99,0,0,0,0,1
5,59999,9,50000,68,40000,40,9999,0.100000,99,594,0.000000,4,2.000000,23.845049,13.240449,99,99,0,0,0,0,0
5,59999,10,50000,68,40000,40,9999,0.100000,99,594,0.000000,1,0.000000,30.814513,12.659437,99,99,0,0,0,0,0
5,59999,11,50000,68,40000,40,9999,0.100000,99,594,0.000000,2,0.000000,23.231409,1.751195,99,99,0,0,0,0,0
5,59999,12,50000,68,40000,40,9999,0.100000,99,594,0.000000,2,0.000000,21.497859,1.708894,99,99,0,0,0,0,0
5,59999,13,50000,68,40000,0,9999,0.100000,99,594,11.712942,1,1.000000,14.563154,2.004568,99,99,0,0,1,0,0
5,59999,14,50000,68,40000,90,9999,0.100000,99,594,0.209784,1,0.000000,32.976793,0.506188,99,99,1,0,0,0,0
5,59999,15,50000,68,40000,40,9999,0.100000,99,594,0.000000,1,1.000000,26.038985,13.003706,99,99,0,0,0,0,0
5,59999,16,50000,68,40000,40,9999,0.100000,99,594,0.000000,2,0.000000,23.563446,0.460566,99,99,0,0,0,0,0
5,59999,17,50000,68,40000,40,9999,0.100000,99,594,0.000000,2,1.000000,22.322648,16.813420,99,99,0,0,0,0,0
5,59999,18,50000,68,40000,0,9999,0.100000,99,594,1.229301,1,0.000000,25.707471,2.124210,99,99,0,0,0,0,1
5,59999,19,50000,68,40000,40,9999,0.100000,99,594,0.000000,3,1.000000,29.876929,6.201259,99,99,0,0,0,0,0
5,59999,20,50000,68,40000,40,9999,0.100000,99,594,0.000000,1,0.000000,23.024181,0.797432,99,99,0,0,0,0,0
5,59999,21,50000,68,40000,40,9999,0.100000,99,594,0.000000,1,1.000000,23.905543,17.074635,99,99,0,0,0,0,0
5,59999,22,50000,68,40000,92,9999,0.100000,99,594,29.899483,2,5.000000,17.795682,6.065116,99,99,1,0,0,0,0
5,59999,23,50000,68,40000,40,9999,0.100000,99,594,0.000000,2,0.000000,24.324784,1.004614,99,99,0,0,0,0,0
5,59999,24,50000,68,40000,40,9999,0.100000,99,594,0.000000,2,0.000000,21.376733,0.913183,99,99,0,0,0,0,0
5,59999,25,50000,68,40000,0,9999,0.100000,99,594,0.656987,1,0.000000,22.861995,0.669933,99,99,0,0,0,1,0
5,59999,26,50000,68,40000,40,9999,0.100000,99,594,0.000000,2,1.000000,19.394999,12.944920,99,99,0,0,0,0,0
5,59999,27,50000,68,40000,40,9999,0.100000,99,594,0.000000,3,1.000000,26.921175,11.345858,99,99,0,0,0,0,0
5,59999,28,50000,68,40000,40,9999,0.100000,99,594,0.000000,1,0.000000,24.786221,11.602436,99,99,0,0,0,0,0
5,59999,29,50000,68,40000,40,9999,0.100000,99,594,0.000000,2,1.000000,15.212863,1.990055,99,99,0,0,0,0,0
5,59999,30,50000,68,40000,40,9999,0.100000,99,594,0.000000,2,0.000000,25.439904,12.827966,99,99,0,0,0,0,0
5,59999,31,50000,68,40000,0,9999,0.100000,99,594,0.532250,2,0.000000,21.391548,0.191927,99,99,0,0,0,0,1
5,59999,32,50000,68,40000,40,9999,0.100000,99,594,0.000000,2,2.000000,20.490460,14.627643,99,99,0,0,0,0,0
5,59999,33,50000,68,40000,0,9999,0.100000,99,594,0.073585,1,0.000000,24.526831,0.121999,99,99,0,0,0,1,0
5,59999,34,50000,68,40000,40,9999,0.135000,99,594,0.000000,4,0.000000,16.225299,0.239694,99,99,0,0,0,0,0
5,59999,35,50000,68,40000,40,9999,0.100000,99,594,0.000000,4,0.000000,28.380424,14.092256,99,99,0,0,0,0,0
5,59999,36,50000,68,40000,40,9999,0.100000,99,594,0.000000,2,1.000000,19.920591,6.116972,99,99,0,0,0,0,0
5,59999,37,50000,68,40000,40,9999,0.100000,99,594,0.000000,3,1.000000,25.694949,12.883002,99,99,0,0,0,0,0
5,59999,38,50000,68,40000,40,9999,0.100000,99,594,0.000000,2,0.000000,23.879717,0.240467,99,99,0,0,0,0,0
5,59999,39,50000,68,40000,40,9999,0.100000,99,594,0.000000,2,0.000000,24.496855,5.097526,99,99,0,0,0,0,0
5,59999,40,50000,68,40000,40,9999,0.100000,99,594,0.000000,2,0.000000,21.644302,3.415058,99,99,0,0,0,0,0
5,59999,41,50000,68,40000,40,9999,0.100000,99,594,0.000000,1,1.000000,22.285512,13.809497,99,99,0,0,0,0,0
5,59999,42,50000,68,40000,42,9999,0.100000,99,594,0.000000,1,5.000000,21.875773,16.719887,99,99,0,0,0,0,0
5,59999,43,50000,68,40000,0,9999,0.100000,99,594,0.003265,2,0.000000,33.985489,0.103893,99,99,0,0,1,0,0
5,59999,44,50000,68,40000,40,9999,0.100000,99,594,0.000000,2,0.000000,18.925662,0.058890,99,99,0,0,0,0,0
5,59999,45,50000,68,40000,40,9999,0.100000,99,594,0.000000,4,0.000000,11.666767,0.167602,99,99,0,0,0,0,0
5,59999,46,50000,68,40000,0,9999,0.100000,99,594,0.001414,2,0.000000,31.223319,0.069112,99,99,0,0,0,0,1
5,59999,47,50000,68,40000,40,9999,0.100000,99,594,0.000000,1,0.000000,24.592243,0.594726,99,99,0,0,0,0,0
5,59999,48,50000,68,40000,40,9999,0.100000,99,594,0.000000,5,0.000000,19.283834,0.231035,99,99,0,0,0,0,0
5,59999,49,50000,68,40000,40,9999,0.100000,99,594,0.000000,3,1.000000,29.460601,12.735625,99,99,0,0,0,0,0
5,59999,50,50000,68,40000,40,9999,0.100000,99,594,0.000000,1,0.000000,22.883268,1.416359,99,99,0,0,0,0,0
5,59999,51,50000,68,40000,0,9999,0.100000,99,594,0.023573,2,0.000000,30.148934,0.901005,99,99,0,0,0,1,0
5,59999,52,50000,68,40000,40,9999,0.100000,99,594,0.000000,3,1.000000,24.711518,14.089656,99,99,0,0,0,0,0
5,59999,53,50000,68,40000,40,9999,0.100000,99,594,0.000000,2,0.000000,25.521506,1.263018,99,99,0,0,0,0,0
5,59999,54,50000,68,40000,40,9999,0.100000,99,594,0.000000,2,0.000000,30.331936,4.189090,99,99,0,0,0,0,0
5,59999,55,50000,68,40000,40,9999,0.100000,99,594,0.000000,1,2.000000,29.074293,13.803227,99,99,0,0,0,0,0
5,59999,56,50000,68,40000,0,9999,0.100000,99,594,0.113414,2,0.000000,24.857763,0.176464,99,99,0,0,0,0,1
5,59999,57,50000,68,40000,40,9999,0.100000,99,594,0.000000,1,0.000000,25.321622,0.671099,99,99,0,0,0,0,0
5,59999,58,50000,68,40000,40,9999,0.100000,99,594,0.000000,2,0.000000,25.511554,0.498287,99,99,0,0,0,0,0
5,59999,59,50000,68,40000,40,9999,0.100000,99,594,0.000000,3,0.000000,25.864470,0.685069,99,99,0,0,0,0,0
5,59999,60,50000,68,40000,40,9999,0.100000,99,594,0.000000,1,0.000000,25.025184,1.055373,99,99,0,0,0,0,0
5,59999,61,50000,68,40000,40,9999,0.100000,99,594,0.000000,2,0.000000,29.970218,0.812403,99,99,0,0,0,0,0
5,59999,62,50000,68,40000,40,9999,0.100000,99,594,0.000000,2,0.000000,30.302557,3.660184,99,99,0,0,0,0,0
5,59999,63,50000,68,40000,41,9999,0.100000,99,594,0.000000,4,2.000000,14.954704,3.088362,99,99,0,0,0,0,0
5,59999,64,50000,68,40000,40,9999,0.100000,99,594,0.000000,2,1.000000,23.154320,16.679663,99,99,0,0,0,0,0
5,59999,65,50000,68,40000,40,9999,0.100000,99,594,0.000000,2,1.000000,23.997209,14.861746,99,99,0,0,0,0,0
5,59999,66,50000,68,40000,40,9999,0.100000,99,594,0.000000,1,0.000000,24.416606,0.102176,99,99,0,0,0,0,0
5,59999,67,50000,68,40000,40,9999,0.100000,99,594,0.000000,3,1.000000,25.784086,15.506773,99,99,0,0,0,0,0
5,59999,68,50000,82,40000,40,9999,0.100000,99,594,0.000000,3,2.000000,26.297551,13.699011,99,99,0,0,0,0,0
5,59999,69,50000,68,40000,40,9999,0.100000,99,594,0.000000,2,0.000000,30.789908,2.351188,99,99,0,0,0,0,0
5,59999,70,50000,68,40000,40,9999,0.100000,99,594,0.000000,1,0.000000,23.731790,0.577229,99,99,0,0,0,0,0
5,59999,71,50000,68,40000,40,9999,0.100000,99,594,0.000000,2,0.000000,20.831536,1.159317,99,99,0,0,0,0,0
5,59999,72,50000,68,40000,40,9999,0.100000,99,594,0.000000,2,0.000000,22.339863,0.782900,99,99,0,0,0,0,0
5,59999,73,50000,68,40000,40,9999,0.100000,99,594,0.000000,1,0.000000,20.911376,1.857545,99,99,0,0,0,0,0
5,59999,74,50000,68,40000,40,9999,0.100000,99,594,0.000000,2,2.000000,24.692810,6.868916,99,99,0,0,0,0,0
5,59999,75,50000,68,40000,0,9999,0.100000,99,594,0.955203,1,0.000000,27.564573,0.435236,99,99,0,1,0,0,0
5,59999,76,50000,68,40000,40,9999,0.100000,99,594,0.000000,2,2.000000,28.598745,14.800749,99,99,0,0,0,0,0
5,59999,77,50000,68,40000,0,9999,0.100000,99,594,0.111717,1,0.000000,26.947099,0.151859,99,99,0,0,1,0,0
5,59999,78,50000,68,40000,40,9999,0.100000,99,594,0.000000,2,0.000000,29.766514,1.016568,99,99,0,0,0,0,0
5,59999,79,50000,68,40000,40,9999,0.100000,99,594,0.000000,1,0.000000,25.741754,1.234547,99,99,0,0,0,0,0
5,59999,80,50000,68,40000,40,9999,0.100000,99,594,0.000000,1,0.000000,25.682685,1.138499,99,99,0,0,0,0,0
5,59999,81,50000,68,40000,40,9999,0.100000,99,594,0.000000,3,2.000000,26.961889,12.714444,99,99,0,0,0,0,0
5,59999,82,50000,68,40000,40,9999,0.100000,99,594,0.000000,3,1.000000,25.733433,17.873611,99,99,0,0,0,0,0
5,59999,83,50000,68,40000,0,9999,0.100000,99,594,0.437438,1,0.000000,13.670884,0.217500,99,99,0,0,0,1,0
5,59999,84,50000,68,40000,40,9999,0.100000,99,594,0.000000,2,2.000000,28.104847,13.202453,99,99,0,0,0,0,0
5,59999,85,50000,68,40000,40,9999,0.100000,99,594,0.000000,2,1.000000,27.093816,16.046523,99,99,0,0,0,0,0
5,59999,86,50000,68,40000,40,9999,0.100000,99,594,0.000000,4,1.000000,28.136656,15.368335,99,99,0,0,0,0,0
5,59999,87,50000,68,40000,40,9999,0.100000,99,594,0.000000,2,0.000000,29.856248,0.099613,99,99,0,0,0,0,0
5,59999,88,50000,68,40000,40,9999,0.100000,99,594,0.000000,2,0.000000,22.925398,1.362548,99,99,0,0,0,0,0
5,59999,89,50000,68,40000,40,9999,0.100000,99,594,0.000000,2,0.000000,31.403108,0.973813,99,99,0,0,0,0,0
5,59999,90,50000,68,40000,40,9999,0.100000,99,594,0.000000,1,2.000000,30.412467,9.178864,99,99,0,0,0,0,0
5,59999,91,50000,68,40000,40,9999,0.100000,99,594,0.000000,1,1.000000,18.843334,16.109272,99,99,0,0,0,0,0
5,59999,92,50000,68,40000,40,9999,0.100000,99,594,0.000000,3,2.000000,26.911375,3.417453,99,99,0,0,0,0,0
5,59999,93,50000,68,40000,40,9999,0.100000,99,594,0.000000,1,0.000000,19.177091,0.068013,99,99,0,0,0,0,0
5,59999,94,50000,68,40000,41,9999,0.100000,99,594,0.000000,2,3.000000,19.925728,13.173571,99,99,0,0,0,0,0
5,59999,95,50000,68,40000,0,9999,0.100000,99,594,1.175734,2,0.000000,30.613624,0.568833,99,99,0,1,0,0,0
5,59999,96,50000,68,40000,40,9999,0.100000,99,594,0.000000,2,2.000000,27.487149,11.452305,99,99,0,0,0,0,0
5,59999,97,50000,68,40000,40,9999,0.100000,99,594,0.000000,2,1.000000,26.148191,17.671170,99,99,0,0,0,0,0
5,59999,98,50000,68,40000,40,9999,0.100000,99,594,0.000000,2,2.000000,25.315680,15.287545,99,99,0,0,0,0,0
5,59999,99,50000,68,40000,40,9999,0.100000,99,594,0.000000,2,1.000000,24.377949,15.511833,99,99,0,0,0,0,0
6,69999,0,60000,22,50000,40,9999,0.100000,99,693,0.000000,1,2.000000,22.169619,16.906175,99,99,0,0,0,0,0
6,69999,1,60000,22,50000,0,9999,0.100000,99,693,0.868334,3,0.000000,25.562159,0.925342,99,99,0,0,1,0,0
6,69999,2,60000,22,50000,40,9999,0.100000,99,693,0.000000,1,2.000000,20.770740,16.342112,99,99,0,0,0,0,0
6,69999,3,60000,22,50000,40,9999,0.100000,99,693,0.000000,1,2.000000,22.982035,4.138028,99,99,0,0,0,0,0
6,69999,4,60000,22,50000,40,9999,0.100000,99,693,0.000000,1,2.000000,25.282139,13.840680,99,99,0,0,0,0,0
6,69999,5,60000,22,50000,40,9999,0.100000,99,693,0.000000,1,1.000000,26.756585,12.639216,99,99,0,0,0,0,0
6,69999,6,60000,22,50000,41,9999,0.100000,99,693,0.000000,2,3.000000,22.223382,17.712774,99,99,0,0,0,0,0
6,69999,7,60000,22,50000,40,9999,0.100000,99,693,0.000000,2,1.000000,28.858658,13.019356,99,99,0,0,0,0,0
6,69999,8,60000,22,50000,0,9999,0.100000,99,693,0.002771,2,0.000000,19.018716,0.168986,99,99,0,0,0,0,1
6,69999,9,60000,22,50000,40,9999,0.100000,99,693,0.000000,4,1.000000,25.928904,12.882635,99,99,0,0,0,0,0
6,69999,10,60000,22,50000,40,9999,0.100000,99,693,0.000000,1,0.000000,30.767541,12.384668,99,99,0,0,0,0,0
6,69999,11,60000,22,50000,40,9999,0.100000,99,693,0.000000,2,0.000000,23.705605,0.558682,99,99,0,0,0,0,0
6,69999,12,60000,22,50000,40,9999,0.100000,99,693,0.000000,2,0.000000,21.471327,1.724535,99,99,0,0,0,0,0
6,69999,13,60000,22,50000,0,9999,0.100000,99,693,0.187928,1,0.000000,13.117240,0.440335,99,99,0,0,1,0,0
6,69999,14,60000,22,50000,90,9999,0.100000,99,693,0.347668,1,0.000000,32.999138,0.500062,99,99,1,0,0,0,0
6,69999,15,60000,22,50000,41,9999,0.100000,99,693,0.000000,1,3.000000,26.980659,14.416818,99,99,0,0,0,0,0
6,69999,16,60000,22,50000,0,9999,0.100000,99,693,4.614348,2,1.000000,23.277534,2.413921,99,99,0,0,0,1,0
6,69999,17,60000,22,50000,41,9999,0.100000,99,693,0.000000,3,4.000000,21.164064,20.954826,99,99,0,0,0,0,0
6,69999,18,60000,22,50000,40,9999,0.100000,99,693,0.000000,2,2.000000,26.415903,2.539876,99,99,0,0,0,0,0
6,69999,19,60000,22,50000,40,9999,0.065000,99,693,0.000000,3,0.000000,30.078217,1.660014,99,99,0,0,0,0,0
6,69999,20,60000,22,50000,41,9999,0.100000,99,693,0.000000,1,3.000000,22.652234,12.238023,99,99,0,0,0,0,0
6,69999,21,60000,22,50000,40,9999,0.100000,99,693,0.000000,1,1.000000,25.120414,17.785304,99,99,0,0,0,0,0
6,69999,22,60000,13,50000,91,9999,0.100000,99,693,19.869096,3,3.000000,23.025967,4.136680,99,99,1,0,0,0,0
6,69999,23,60000,22,50000,40,9999,0.100000,99,693,0.000000,2,0.000000,23.551965,0.813767,99,99,0,0,0,0,0
6,69999,24,60000,22,50000,40,9999,0.100000,99,693,0.000000,2,0.000000,21.843739,0.706864,99,99,0,0,0,0,0
6,69999,25,60000,22,50000,0,9999,0.100000,99,693,2.085289,1,0.000000,22.748246,0.802072,99,99,0,0,0,1,0
6,69999,26,60000,22,50000,40,9999,0.100000,99,693,0.000000,2,2.000000,19.977804,10.608880,99,99,0,0,0,0,0
6,69999,27,60000,22,50000,40,9999,0.100000,99,693,0.000000,3,1.000000,26.149527,11.911325,99,99,0,0,0,0,0
6,69999,28,60000,22,50000,40,9999,0.100000,99,693,0.000000,1,0.000000,24.902122,12.522772,99,99,0,0,0,0,0
6,69999,29,60000,22,50000,40,9999,0.100000,99,693,0.000000,2,0.000000,14.460862,0.230159,99,99,0,0,0,0,0
6,69999,30,60000,22,50000,40,9999,0.100000,99,693,0.000000,2,0.000000,25.626074,12.019487,99,99,0,0,0,0,0
6,69999,31,60000,22,50000,0,9999,0.100000,99,693,0.382664,2,0.000000,21.307310,0.147649,99,99,0,0,0,0,1
6,69999,32,60000,22,50000,41,9999,0.100000,99,693,0.000000,2,4.000000,22.829368,6.511119,99,99,0,0,0,0,0
6,69999,33,60000,22,50000,0,9999,0.100000,99,693,0.263652,1,0.000000,24.539349,0.146212,99,99,0,0,0,1,0
6,69999,34,60000,22,50000,40,9999,0.100000,99,693,0.000000,4,0.000000,16.223686,0.231645,99,99,0,0,0,0,0
6,69999,35,60000,22,50000,40,9999,0.100000,99,693,0.000000,4,1.000000,29.327022,11.907173,99,99,0,0,0,0,0
6,69999,36,60000,22,50000,40,9999,0.100000,99,693,0.000000,2,0.000000,20.749117,0.473721,99,99,0,0,0,0,0
6,69999,37,60000,22,50000,40,9999,0.100000,99,693,0.000000,3,1.000000,25.953153,11.843555,99,99,0,0,0,0,0
6,69999,38,60000,22,50000,40,9999,0.100000,99,693,0.000000,2,0.000000,23.924095,0.256225,99,99,0,0,0,0,0
6,69999,39,60000,22,50000,40,9999,0.100000,99,693,0.000000,2,0.000000,24.512544,5.884467,99,99,0,0,0,0,0
6,69999,40,60000,22,50000,40,9999,0.100000,99,693,0.000000,2,0.000000,21.614877,3.466101,99,99,0,0,0,0,0
6,69999,41,60000,22,50000,40,9999,0.100000,99,693,0.000000,1,0.000000,23.073171,12.381860,99,99,0,0,0,0,0
6,69999,42,60000,22,50000,40,9999,0.100000,99,693,0.000000,2,2.000000,26.280910,2.595691,99,99,0,0,0,0,0
6,69999,43,60000,22,50000,0,9999,0.100000,99,693,0.000511,2,0.000000,33.983316,0.102402,99,99,0,0,1,0,0
6,69999,44,60000,22,50000,40,9999,0.100000,99,693,0.000000,2,0.000000,18.925719,0.059943,99,99,0,0,0,0,0
6,69999,45,60000,22,50000,40,9999,0.100000,99,693,0.000000,4,0.000000,11.665663,0.170496,99,99,0,0,0,0,0
6,69999,46,60000,22,50000,0,9999,0.100000,99,693,0.001073,2,0.000000,31.223132,0.067350,99,99,0,0,0,0,1
6,69999,47,60000,22,50000,40,9999,0.100000,99,693,0.000000,1,0.000000,24.606298,0.608227,99,99,0,0,0,0,0
6,69999,48,60000,22,50000,40,9999,0.100000,99,693,0.000000,5,0.000000,19.282271,0.238399,99,99,0,0,0,0,0
6,69999,49,60000,22,50000,40,9999,0.100000,99,693,0.000000,3,1.000000,30.123462,14.706157,99,99,0,0,0,0,0
6,69999,50,60000,22,50000,40,9999,0.100000,99,693,0.000000,1,0.000000,22.423810,0.995751,99,99,0,0,0,0,0
6,69999,51,60000,22,50000,0,9999,0.100000,99,693,0.214002,2,0.000000,30.102731,0.460664,99,99,0,0,0,1,0
6,69999,52,60000,22,50000,40,9999,0.100000,99,693,0.000000,3,1.000000,24.895748,13.425951,99,99,0,0,0,0,0
6,69999,53,60000,22,50000,0,9999,0.100000,99,693,0.281373,2,1.000000,26.333260,3.334019,99,99,0,0,0,0,1
6,69999,54,60000,22,50000,40,9999,0.100000,99,693,0.000000,2,0.000000,30.197293,3.619822,99,99,0,0,0,0,0
6,69999,55,60000,22,50000,40,9999,0.100000,99,693,0.000000,1,1.000000,27.343538,14.301120,99,99,0,0,0,0,0
6,69999,56,60000,22,50000,96,9999,0.100000,99,693,63.158911,2,17.000000,24.969077,23.993653,99,99,1,0,0,0,0
6,69999,57,60000,22,50000,40,9999,0.100000,99,693,0.000000,1,0.000000,25.255168,0.978730,99,99,0,0,0,0,0
6,69999,58,60000,22,50000,40,9999,0.100000,99,693,0.000000,2,0.000000,25.394910,0.840289,99,99,0,0,0,0,0
6,69999,59,60000,22,50000,41,9999,0.135000,99,693,0.000000,3,4.000000,26.395514,15.810307,99,99,0,0,0,0,0
6,69999,60,60000,22,50000,40,9999,0.100000,99,693,0.000000,1,0.000000,25.148511,1.246242,99,99,0,0,0,0,0
6,69999,61,60000,22,50000,40,9999,0.100000,99,693,0.000000,2,0.000000,30.010032,0.513045,99,99,0,0,0,0,0
6,69999,62,60000,22,50000,40,9999,0.100000,99,693,0.000000,2,2.000000,30.413378,5.269359,99,99,0,0,0,0,0
6,69999,63,60000,22,50000,40,9999,0.100000,99,693,0.000000,4,0.000000,12.760081,0.522012,99,99,0,0,0,0,0
6,69999,64,60000,22,50000,41,9999,0.100000,99,693,0.000000,2,3.000000,23.038533,20.248873,99,99,0,0,0,0,0
6,69999,65,60000,22,50000,40,9999,0.100000,99,693,0.000000,2,0.000000,24.150069,14.140083,99,99,0,0,0,0,0
6,69999,66,60000,22,50000,40,9999,0.100000,99,693,0.000000,1,0.000000,24.430277,0.157013,99,99,0,0,0,0,0
6,69999,67,60000,22,50000,40,9999,0.100000,99,693,0.000000,3,1.000000,24.242879,10.750017,99,99,0,0,0,0,0
6,69999,68,60000,22,50000,40,9999,0.100000,99,693,0.000000,4,1.000000,24.492074,12.701516,99,99,0,0,0,0,0
6,69999,69,60000,22,50000,40,9999,0.100000,99,693,0.000000,2,0.000000,30.702127,12.064484,99,99,0,0,0,0,0
6,69999,70,60000,22,50000,40,9999,0.100000,99,693,0.000000,1,1.000000,23.483969,2.153796,99,99,0,0,0,0,0
6,69999,71,60000,22,50000,40,9999,0.100000,99,693,0.000000,2,0.000000,20.736449,0.514894,99,99,0,0,0,0,0
6,69999,72,60000,22,50000,40,9999,0.100000,99,693,0.000000,2,0.000000,22.012727,0.514947,99,99,0,0,0,0,0
6,69999,73,60000,22,50000,40,9999,0.100000,99,693,0.000000,1,0.000000,20.710885,0.256470,99,99,0,0,0,0,0
6,69999,74,60000,22,50000,40,9999,0.100000,99,693,0.000000,2,2.000000,23.035691,5.548361,99,99,0,0,0,0,0
6,69999,75,60000,22,50000,0,9999,0.100000,99,693,1.665570,1,2.000000,27.859314,3.119193,99,99,0,1,0,0,0
6,69999,76,60000,22,50000,40,9999,0.100000,99,693,0.000000,2,1.000000,28.774696,12.490936,99,99,0,0,0,0,0
6,69999,77,60000,22,50000,0,9999,0.100000,99,693,0.161895,1,0.000000,27.019673,0.196650,99,99,0,0,1,0,0
6,69999,78,60000,22,50000,40,9999,0.100000,99,693,0.000000,2,0.000000,29.905994,1.338231,99,99,0,0,0,0,0
6,69999,79,60000,22,50000,41,9999,0.100000,99,693,0.000000,1,5.000000,26.449044,16.615832,99,99,0,0,0,0,0
6,69999,80,60000,22,50000,42,9999,0.100000,99,693,0.000000,1,6.000000,26.470164,24.695223,99,99,0,0,0,0,0
6,69999,81,60000,22,50000,40,9999,0.100000,99,693,0.000000,3,0.000000,24.996410,14.878362,99,99,0,0,0,0,0
6,69999,82,60000,22,50000,40,9999,0.100000,99,693,0.000000,3,2.000000,25.194078,17.030270,99,99,0,0,0,0,0
6,69999,83,60000,22,50000,0,9999,0.100000,99,693,0.331204,1,0.000000,13.707153,0.173435,99,99,0,0,0,1,0
6,69999,84,60000,22,50000,40,9999,0.100000,99,693,0.000000,2,2.000000,26.684358,13.893358,99,99,0,0,0,0,0
6,69999,85,60000,22,50000,40,9999,0.100000,99,693,0.000000,2,2.000000,26.785373,12.831495,99,99,0,0,0,0,0
6,69999,86,60000,22,50000,90,9999,0.100000,99,693,3.378582,4,2.000000,27.575701,14.651583,99,99,1,0,0,0,0
6,69999,87,60000,22,50000,40,9999,0.100000,99,693,0.000000,2,0.000000,29.856174,0.109063,99,99,0,0,0,0,0
6,69999,88,60000,22,50000,40,9999,0.100000,99,693,0.000000,2,0.000000,22.806363,1.369701,99,99,0,0,0,0,0
6,69999,89,60000,22,50000,40,9999,0.100000,99,693,0.000000,2,0.000000,31.690958,0.902661,99,99,0,0,0,0,0
6,69999,90,60000,22,50000,43,9999,0.100000,99,693,0.000000,1,9.000000,28.041521,16.610030,99,99,0,0,0,0,0
6,69999,91,60000,22,50000,40,9999,0.100000,99,693,0.000000,1,1.000000,18.926081,11.067960,99,99,0,0,0,0,0
6,69999,92,60000,22,50000,40,9999,0.100000,99,693,0.000000,3,1.000000,28.957402,14.645522,99,99,0,0,0,0,0
6,69999,93,60000,22,50000,40,9999,0.100000,99,693,0.000000,1,0.000000,19.176592,0.069480,99,99,0,0,0,0,0
6,69999,94,60000,22,50000,41,9999,0.100000,99,693,0.000000,2,3.000000,22.864318,5.228073,99,99,0,0,0,0,0
6,69999,95,60000,22,50000,0,9999,0.100000,99,693,1.764483,2,0.000000,30.536264,0.730531,99,99,0,1,0,0,0
6,69999,96,60000,22,50000,40,9999,0.100000,99,693,0.000000,2,2.000000,27.984118,13.814301,99,99,0,0,0,0,0
6,69999,97,60000,22,50000,40,9999,0.100000,99,693,0.000000,2,0.000000,25.577305,11.622369,99,99,0,0,0,0,0
6,69999,98,60000,22,50000,40,9999,0.100000,99,693,0.000000,2,2.000000,24.638245,17.596153,99,99,0,0,0,0,0
6,69999,99,60000,22,50000,40,9999,0.100000,99,693,0.000000,2,2.000000,24.128815,14.219322,99,99,0,0,0,0,0
7,79999,0,70000,56,60000,40,9999,0.100000,99,792,0.000000,1,1.000000,22.878616,16.784277,99,99,0,0,0,0,0
7,79999,1,70000,56,60000,0,9999,0.100000,99,792,5.268607,3,1.000000,24.997734,2.374959,99,99,0,0,1,0,0
7,79999,2,70000,56,60000,42,9999,0.100000,99,792,0.000000,1,5.000000,22.741031,20.508217,99,99,0,0,0,0,0
7,79999,3,70000,56,60000,41,9999,0.100000,99,792,0.000000,2,3.000000,24.515375,16.346802,99,99,0,0,0,0,0
7,79999,4,70000,56,60000,40,9999,0.100000,99,792,0.000000,1,2.000000,24.579951,19.986322,99,99,0,0,0,0,0
7,79999,5,70000,56,60000,40,9999,0.100000,99,792,0.000000,1,2.000000,26.528607,11.953561,99,99,0,0,0,0,0
7,79999,6,70000,56,60000,40,9999,0.100000,99,792,0.000000,2,1.000000,20.932737,7.463989,99,99,0,0,0,0,0
7,79999,7,70000,56,60000,40,9999,0.100000,99,792,0.000000,2,2.000000,27.679561,15.104387,99,99,0,0,0,0,0
7,79999,8,70000,56,60000,0,9999,0.100000,99,792,0.002686,2,0.000000,19.018414,0.175645,99,99,0,0,0,0,1
7,79999,9,70000,56,60000,40,9999,0.100000,99,792,0.000000,4,2.000000,25.522287,13.581915,99,99,0,0,0,0,0
7,79999,10,70000,56,60000,40,9999,0.100000,99,792,0.000000,1,1.000000,30.906757,13.344420,99,99,0,0,0,0,0
7,79999,11,70000,56,60000,40,9999,0.100000,99,792,0.000000,2,0.000000,23.982077,0.604308,99,99,0,0,0,0,0
7,79999,12,70000,56,60000,40,9999,0.100000,99,792,0.000000,2,1.000000,21.507975,2.156856,99,99,0,0,0,0,0
7,79999,13,70000,56,60000,44,9999,0.100000,99,792,0.000000,1,6.000000,13.276108,14.379974,99,99,0,0,0,0,0
7,79999,14,70000,56,60000,90,9999,0.100000,99,792,0.210019,1,0.000000,33.007193,0.509138,99,99,1,0,0,0,0
7,79999,15,70000,56,60000,40,9999,0.100000,99,792,0.000000,2,1.000000,24.223591,14.053367,99,99,0,0,0,0,0
7,79999,16,70000,56,60000,40,9999,0.100000,99,792,0.000000,3,2.000000,24.490002,2.338880,99,99,0,0,0,0,0
7,79999,17,70000,56,60000,40,9999,0.100000,99,792,0.000000,3,1.000000,24.229556,15.807267,99,99,0,0,0,0,0
7,79999,18,70000,56,60000,40,9999,0.100000,99,792,0.000000,2,0.000000,28.456603,0.781699,99,99,0,0,0,0,0
7,79999,19,70000,56,60000,40,9999,0.100000,99,792,0.000000,3,0.000000,30.064471,1.427510,99,99,0,0,0,0,0
7,79999,20,70000,56,60000,40,9999,0.100000,99,792,0.000000,2,2.000000,24.359888,3.824335,99,99,0,0,0,0,0
7,79999,21,70000,56,60000,0,9999,0.100000,99,792,11.215717,1,2.000000,24.436801,6.174201,99,99,0,0,0,1,0
7,79999,22,70000,56,60000,90,9999,0.100000,99,792,11.664043,3,2.000000,26.723057,13.074177,99,99,1,0,0,0,0
7,79999,23,70000,56,60000,40,9999,0.100000,99,792,0.000000,2,0.000000,23.177421,0.519549,99,99,0,0,0,0,0
7,79999,24,70000,56,60000,40,9999,0.100000,99,792,0.000000,2,0.000000,22.038954,0.702810,99,99,0,0,0,0,0
7,79999,25,70000,56,60000,0,9999,0.100000,99,792,1.144390,1,0.000000,22.348554,0.713012,99,99,0,0,0,1,0
7,79999,26,70000,56,60000,40,9999,0.100000,99,792,0.000000,2,1.000000,21.872741,12.622095,99,99,0,0,0,0,0
7,79999,27,70000,56,60000,40,9999,0.100000,99,792,0.000000,3,0.000000,25.931936,11.580544,99,99,0,0,0,0,0
7,79999,28,70000,56,60000,42,9999,0.100000,99,792,0.000000,1,6.000000,24.799872,18.849458,99,99,0,0,0,0,0
7,79999,29,70000,56,60000,40,9999,0.100000,99,792,0.000000,2,0.000000,14.460129,0.225057,99,99,0,0,0,0,0
7,79999,30,70000,56,60000,40,9999,0.100000,99,792,0.000000,2,2.000000,25.780556,9.154670,99,99,0,0,0,0,0
7,79999,31,70000,56,60000,0,9999,0.100000,99,792,0.581353,2,0.000000,21.243744,0.400847,99,99,0,0,0,0,1
7,79999,32,70000,56,60000,40,9999,0.100000,99,792,0.000000,2,2.000000,26.372538,4.084394,99,99,0,0,0,0,0
7,79999,33,70000,56,60000,40,9999,0.100000,99,792,0.000000,1,0.000000,24.527071,0.119406,99,99,0,0,0,0,0
7,79999,34,70000,56,60000,40,9999,0.100000,99,792,0.000000,4,0.000000,16.222749,0.245321,99,99,0,0,0,0,0
7,79999,35,70000,56,60000,40,9999,0.100000,99,792,0.000000,4,1.000000,28.225310,15.670618,99,99,0,0,0,0,0
7,79999,36,70000,56,60000,40,9999,0.100000,99,792,0.000000,2,0.000000,20.655209,1.728024,99,99,0,0,0,0,0
7,79999,37,70000,56,60000,40,9999,0.100000,99,792,0.000000,3,1.000000,26.008783,11.865217,99,99,0,0,0,0,0
7,79999,38,70000,56,60000,40,9999,0.100000,99,792,0.000000,2,0.000000,23.988872,0.268507,99,99,0,0,0,0,0
7,79999,39,70000,56,60000,40,9999,0.100000,99,792,0.000000,2,0.000000,25.165136,24.354406,99,99,0,0,0,0,0
7,79999,40,70000,56,60000,40,9999,0.100000,99,792,0.000000,2,1.000000,21.655141,3.936115,99,99,0,0,0,0,0
7,79999,41,70000,56,60000,41,9999,0.100000,99,792,0.000000,1,4.000000,23.011186,21.126938,99,99,0,0,0,0,0
7,79999,42,70000,56,60000,40,9999,0.100000,99,792,0.000000,2,0.000000,28.316365,0.889739,99,99,0,0,0,0,0
7,79999,43,70000,56,60000,0,9999,0.100000,99,792,0.000873,2,0.000000,33.981925,0.103110,99,99,0,0,1,0,0
7,79999,44,70000,56,60000,40,9999,0.100000,99,792,0.000000,2,0.000000,18.925636,0.061879,99,99,0,0,0,0,0
7,79999,45,70000,56,60000,40,9999,0.100000,99,792,0.000000,4,0.000000,11.665325,0.177512,99,99,0,0,0,0,0
7,79999,46,70000,56,60000,0,9999,0.100000,99,792,0.001320,2,0.000000,31.223066,0.071644,99,99,0,0,0,0,1
7,79999,47,70000,56,60000,40,9999,0.100000,99,792,0.000000,1,0.000000,24.609595,0.152480,99,99,0,0,0,0,0
7,79999,48,70000,56,60000,40,9999,0.100000,99,792,0.000000,5,0.000000,19.278895,0.250062,99,99,0,0,0,0,0
7,79999,49,70000,56,60000,40,9999,0.100000,99,792,0.000000,3,3.000000,29.996092,16.622655,99,99,0,0,0,0,0
7,79999,50,70000,56,60000,40,9999,0.100000,99,792,0.000000,1,0.000000,23.008058,0.665712,99,99,0,0,0,0,0
7,79999,51,70000,56,60000,0,9999,0.100000,99,792,0.172786,2,0.000000,30.090736,0.376772,99,99,0,0,0,1,0
7,79999,52,70000,56,60000,40,9999,0.100000,99,792,0.000000,3,0.000000,25.152606,14.508561,99,99,0,0,0,0,0
7,79999,53,70000,56,60000,41,9999,0.100000,99,792,0.000000,3,5.000000,28.203939,16.257491,99,99,0,0,0,0,0
7,79999,54,70000,56,60000,40,9999,0.100000,99,792,0.000000,2,0.000000,30.184784,3.756696,99,99,0,0,0,0,0
7,79999,55,70000,56,60000,40,9999,0.100000,99,792,0.000000,1,2.000000,27.585380,14.664746,99,99,0,0,0,0,0
7,79999,56,70000,22,60000,40,9999,0.100000,99,792,0.000000,3,3.000000,32.194848,14.222860,99,99,0,0,0,0,0
7,79999,57,70000,56,60000,40,9999,0.100000,99,792,0.000000,1,2.000000,24.884264,2.445949,99,99,0,0,0,0,0
7,79999,58,70000,56,60000,40,9999,0.100000,99,792,0.000000,2,1.000000,24.928116,2.276975,99,99,0,0,0,0,0
7,79999,59,70000,56,60000,40,9999,0.100000,99,792,0.000000,4,0.000000,25.983527,12.161169,99,99,0,0,0,0,0
7,79999,60,70000,56,60000,40,9999,0.100000,99,792,0.000000,1,0.000000,25.567714,1.047944,99,99,0,0,0,0,0
7,79999,61,70000,56,60000,40,9999,0.100000,99,792,0.000000,2,0.000000,29.998798,0.451141,99,99,0,0,0,0,0
7,79999,62,70000,56,60000,40,9999,0.100000,99,792,0.000000,2,0.000000,29.988441,2.242425,99,99,0,0,0,0,0
7,79999,63,70000,56,60000,40,9999,0.100000,99,792,0.000000,4,0.000000,12.927199,0.775935,99,99,0,0,0,0,0
7,79999,64,70000,56,60000,40,9999,0.100000,99,792,0.000000,3,2.000000,24.176064,14.315050,99,99,0,0,0,0,0
7,79999,65,70000,56,60000,40,9999,0.100000,99,792,0.000000,2,1.000000,24.714231,20.790718,99,99,0,0,0,0,0
7,79999,66,70000,56,60000,0,9999,0.100000,99,792,0.084847,1,0.000000,24.389123,0.155439,99,99,0,0,0,1,0
7,79999,67,70000,56,60000,40,9999,0.100000,99,792,0.000000,3,0.000000,23.545340,12.460518,99,99,0,0,0,0,0
7,79999,68,70000,56,60000,40,9999,0.100000,99,792,0.000000,4,1.000000,23.314279,12.928234,99,99,0,0,0,0,0
7,79999,69,70000,56,60000,40,9999,0.100000,99,792,0.000000,2,1.000000,30.817062,7.520784,99,99,0,0,0,0,0
7,79999,70,70000,56,60000,40,9999,0.100000,99,792,0.000000,1,2.000000,24.443696,2.524111,99,99,0,0,0,0,0
7,79999,71,70000,56,60000,40,9999,0.100000,99,792,0.000000,2,0.000000,20.543967,0.540658,99,99,0,0,0,0,0
7,79999,72,70000,56,60000,40,9999,0.100000,99,792,0.000000,2,0.000000,22.207847,0.511531,99,99,0,0,0,0,0
7,79999,73,70000,56,60000,40,9999,0.100000,99,792,0.000000,1,0.000000,20.622861,0.466882,99,99,0,0,0,0,0
7,79999,74,70000,56,60000,40,9999,0.100000,99,792,0.000000,2,2.000000,24.494520,4.406530,99,99,0,0,0,0,0
7,79999,75,70000,56,60000,41,9999,0.100000,99,792,0.000000,1,4.000000,29.036862,15.861114,99,99,0,0,0,0,0
7,79999,76,70000,56,60000,40,9999,0.100000,99,792,0.000000,2,3.000000,28.945239,16.973050,99,99,0,0,0,0,0
7,79999,77,70000,56,60000,0,9999,0.100000,99,792,0.183316,1,0.000000,27.130635,0.218594,99,99,0,0,1,0,0
7,79999,78,70000,56,60000,40,9999,0.100000,99,792,0.000000,2,0.000000,29.893472,1.175017,99,99,0,0,0,0,0
7,79999,79,70000,56,60000,90,9999,0.100000,99,792,12.717061,2,2.000000,25.433188,4.915879,99,99,1,0,0,0,0
7,79999,80,70000,56,60000,0,9999,0.100000,99,792,0.104105,2,0.000000,28.014954,1.680950,99,99,0,0,0,0,1
7,79999,81,70000,56,60000,40,9999,0.100000,99,792,0.000000,3,1.000000,24.344834,13.261638,99,99,0,0,0,0,0
7,79999,82,70000,56,60000,40,9999,0.100000,99,792,0.000000,3,0.000000,26.104185,10.771467,99,99,0,0,0,0,0
7,79999,83,70000,56,60000,0,9999,0.100000,99,792,0.026346,1,0.000000,13.786287,0.180417,99,99,0,0,0,1,0
7,79999,84,70000,56,60000,40,9999,0.100000,99,792,0.000000,2,0.000000,25.083399,12.323323,99,99,0,0,0,0,0
7,79999,85,70000,56,60000,40,9999,0.100000,99,792,0.000000,2,2.000000,28.292633,13.812057,99,99,0,0,0,0,0
7,79999,86,70000,56,60000,92,9999,0.100000,99,792,32.995214,5,6.000000,26.207761,19.841766,99,99,1,0,0,0,0
7,79999,87,70000,56,60000,40,9999,0.135000,99,792,0.000000,2,0.000000,29.856063,0.110530,99,99,0,0,0,0,0
7,79999,88,70000,56,60000,40,9999,0.100000,99,792,0.000000,2,0.000000,22.406530,1.316717,99,99,0,0,0,0,0
7,79999,89,70000,56,60000,40,9999,0.100000,99,792,0.000000,2,0.000000,31.969927,0.949750,99,99,0,0,0,0,0
7,79999,90,70000,56,60000,40,9999,0.100000,99,792,0.000000,2,0.000000,22.776285,0.863451,99,99,0,0,0,0,0
7,79999,91,70000,56,60000,40,9999,0.100000,99,792,0.000000,1,1.000000,19.359653,11.312949,99,99,0,0,0,0,0
7,79999,92,70000,56,60000,40,9999,0.100000,99,792,0.000000,3,0.000000,30.024859,0.996109,99,99,0,0,0,0,0
7,79999,93,70000,56,60000,40,9999,0.100000,99,792,0.000000,1,0.000000,19.176054,0.071006,99,99,0,0,0,0,0
7,79999,94,70000,56,60000,41,9999,0.100000,99,792,0.000000,2,3.000000,26.463477,14.892294,99,99,0,0,0,0,0
7,79999,95,70000,56,60000,0,9999,0.100000,99,792,2.965582,2,0.000000,30.841351,2.386741,99,99,0,1,0,0,0
7,79999,96,70000,56,60000,40,9999,0.100000,99,792,0.000000,2,1.000000,26.239130,13.921731,99,99,0,0,0,0,0
7,79999,97,70000,56,60000,40,9999,0.100000,99,792,0.000000,2,1.000000,26.091876,13.583169,99,99,0,0,0,0,0
7,79999,98,70000,56,60000,40,9999,0.100000,99,792,0.000000,2,0.000000,24.336392,12.164996,99,99,0,0,0,0,0
7,79999,99,70000,56,60000,41,9999,0.100000,99,792,0.000000,2,3.000000,22.636838,12.105909,99,99,0,0,0,0,0
8,89999,0,80000,86,70000,40,9999,0.100000,99,891,0.000000,1,1.000000,23.190592,12.148023,99,99,0,0,0,0,0
8,89999,1,80000,86,70000,2,9999,0.100000,99,891,38.316519,3,7.000000,26.810067,16.961932,99,99,0,0,1,0,0
8,89999,2,80000,86,70000,40,9999,0.100000,99,891,0.000000,2,1.000000,26.471808,16.939200,99,99,0,0,0,0,0
8,89999,3,80000,86,70000,40,9999,0.100000,99,891,0.000000,3,2.000000,23.056584,16.740591,99,99,0,0,0,0,0
8,89999,4,80000,86,70000,40,9999,0.100000,99,891,0.000000,1,1.000000,26.344756,17.176056,99,99,0,0,0,0,0
8,89999,5,80000,86,70000,40,9999,0.100000,99,891,0.000000,1,1.000000,25.181728,11.533459,99,99,0,0,0,0,0
8,89999,6,80000,86,70000,40,9999,0.100000,99,891,0.000000,2,1.000000,21.910829,9.416238,99,99,0,0,0,0,0
8,89999,7,80000,86,70000,40,9999,0.100000,99,891,0.000000,2,1.000000,28.174139,12.884707,99,99,0,0,0,0,0
8,89999,8,80000,86,70000,0,9999,0.100000,99,891,0.002832,2,0.000000,19.018063,0.178791,99,99,0,0,0,0,1
8,89999,9,80000,86,70000,40,9999,0.100000,99,891,0.000000,4,1.000000,26.432081,8.799921,99,99,0,0,0,0,0
8,89999,10,80000,86,70000,40,9999,0.100000,99,891,0.000000,1,1.000000,31.228745,14.683457,99,99,0,0,0,0,0
8,89999,11,80000,86,70000,40,9999,0.100000,99,891,0.000000,2,0.000000,24.344102,0.644386,99,99,0,0,0,0,0
8,89999,12,80000,86,70000,93,9999,0.100000,99,891,29.733105,2,7.000000,22.128670,17.339469,99,99,1,0,0,0,0
8,89999,13,80000,86,70000,40,9999,0.100000,99,891,0.000000,2,2.000000,19.410560,10.066199,99,99,0,0,0,0,0
8,89999,14,80000,86,70000,90,9999,0.100000,99,891,0.541142,1,0.000000,33.031329,0.493075,99,99,1,0,0,0,0
8,89999,15,80000,86,70000,40,9999,0.100000,99,891,0.000000,2,1.000000,24.588061,16.637291,99,99,0,0,0,0,0
8,89999,16,80000,86,70000,40,9999,0.100000,99,891,0.000000,3,0.000000,26.497650,0.694648,99,99,0,0,0,0,0
8,89999,17,80000,86,70000,40,9999,0.100000,99,891,0.000000,3,0.000000,23.813450,1.473078,99,99,0,0,0,0,0
8,89999,18,80000,86,70000,40,9999,0.100000,99,891,0.000000,2,0.000000,29.102644,0.158277,99,99,0,0,0,0,0
8,89999,19,80000,86,70000,40,9999,0.100000,99,891,0.000000,3,0.000000,30.057991,1.395165,99,99,0,0,0,0,0
8,89999,20,80000,86,70000,0,9999,0.100000,99,891,3.122097,2,0.000000,26.711065,0.777800,99,99,0,0,0,1,0
8,89999,21,80000,86,70000,40,9999,0.100000,99,891,0.000000,2,0.000000,26.879163,1.140503,99,99,0,0,0,0,0
8,89999,22,80000,86,70000,40,9999,0.100000,99,891,0.000000,3,1.000000,25.675204,14.349315,99,99,0,0,0,0,0
8,89999,23,80000,86,70000,40,9999,0.100000,99,891,0.000000,2,0.000000,23.395094,0.520755,99,99,0,0,0,0,0
8,89999,24,80000,86,70000,40,9999,0.100000,99,891,0.000000,2,0.000000,22.228276,0.657275,99,99,0,0,0,0,0
8,89999,25,80000,86,70000,0,9999,0.100000,99,891,1.492862,1,0.000000,22.124996,0.732423,99,99,0,0,0,1,0
8,89999,26,80000,86,70000,40,9999,0.100000,99,891,0.000000,2,1.000000,23.276432,15.790477,99,99,0,0,0,0,0
8,89999,27,80000,86,70000,40,9999,0.100000,99,891,0.000000,3,1.000000,25.619104,11.510828,99,99,0,0,0,0,0
8,89999,28,80000,86,70000,40,9999,0.100000,99,891,0.000000,2,1.000000,31.232496,4.974252,99,99,0,0,0,0,0
8,89999,29,80000,86,70000,40,9999,0.100000,99,891,0.000000,2,0.000000,14.457122,0.224584,99,99,0,0,0,0,0
8,89999,30,80000,86,70000,40,9999,0.100000,99,891,0.000000,2,2.000000,24.647844,18.689423,99,99,0,0,0,0,0
8,89999,31,80000,86,70000,0,9999,0.100000,99,891,1.341828,2,0.000000,21.137141,0.802913,99,99,0,0,0,0,1
8,89999,32,80000,86,70000,0,9999,0.100000,99,891,0.184120,2,0.000000,28.421016,1.214630,99,99,0,0,0,0,1
8,89999,33,80000,86,70000,40,9999,0.100000,99,891,0.000000,2,0.000000,24.519997,0.793101,99,99,0,0,0,0,0
8,89999,34,80000,86,70000,40,9999,0.100000,99,891,0.000000,4,0.000000,16.220313,0.244262,99,99,0,0,0,0,0
8,89999,35,80000,86,70000,40,9999,0.100000,99,891,0.000000,4,1.000000,27.891275,14.873292,99,99,0,0,0,0,0
8,89999,36,80000,86,70000,40,9999,0.100000,99,891,0.000000,2,0.000000,20.615601,1.393861,99,99,0,0,0,0,0
8,89999,37,80000,86,70000,40,9999,0.100000,99,891,0.000000,3,0.000000,26.243884,12.091040,99,99,0,0,0,0,0
8,89999,38,80000,86,70000,40,9999,0.100000,99,891,0.000000,2,0.000000,24.050204,0.238673,99,99,0,0,0,0,0
8,89999,39,80000,86,70000,40,9999,0.100000,99,891,0.000000,2,1.000000,24.557191,8.660465,99,99,0,0,0,0,0
8,89999,40,80000,86,70000,40,9999,0.100000,99,891,0.000000,2,1.000000,22.253848,8.160085,99,99,0,0,0,0,0
8,89999,41,80000,86,70000,40,9999,0.100000,99,891,0.000000,2,2.000000,27.026304,18.462401,99,99,0,0,0,0,0
8,89999,42,80000,86,70000,40,9999,0.100000,99,891,0.000000,2,0.000000,29.027552,0.162271,99,99,0,0,0,0,0
8,89999,43,80000,86,70000,0,9999,0.100000,99,891,0.002401,2,0.000000,33.980687,0.105298,99,99,0,0,1,0,0
8,89999,44,80000,86,70000,40,9999,0.100000,99,891,0.000000,2,0.000000,18.925524,0.061797,99,99,0,0,0,0,0
8,89999,45,80000,86,70000,40,9999,0.100000,99,891,0.000000,4,0.000000,11.667129,0.180179,99,99,0,0,0,0,0
8,89999,46,80000,86,70000,0,9999,0.100000,99,891,0.631371,2,0.000000,31.223040,0.191573,99,99,0,0,0,0,1
8,89999,47,80000,86,70000,0,9999,0.100000,99,891,0.910667,1,0.000000,24.611667,0.633645,99,99,0,0,0,1,0
8,89999,48,80000,86,70000,40,9999,0.100000,99,891,0.000000,5,0.000000,19.278287,0.231573,99,99,0,0,0,0,0
8,89999,49,80000,86,70000,40,9999,0.100000,99,891,0.000000,3,1.000000,28.936312,13.762072,99,99,0,0,0,0,0
8,89999,50,80000,86,70000,40,9999,0.100000,99,891,0.000000,1,0.000000,23.226027,0.698554,99,99,0,0,0,0,0
8,89999,51,80000,86,70000,0,9999,0.100000,99,891,0.016149,2,0.000000,30.081947,0.351972,99,99,0,0,0,1,0
8,89999,52,80000,86,70000,40,9999,0.100000,99,891,0.000000,3,1.000000,26.015724,12.065566,99,99,0,0,0,0,0
8,89999,53,80000,86,70000,41,9999,0.100000,99,891,0.000000,4,3.000000,26.122396,16.411882,99,99,0,0,0,0,0
8,89999,54,80000,86,70000,40,9999,0.100000,99,891,0.000000,2,0.000000,30.175662,2.908394,99,99,0,0,0,0,0
8,89999,55,80000,86,70000,40,9999,0.100000,99,891,0.000000,1,2.000000,29.970506,20.037808,99,99,0,0,0,0,0
8,89999,56,80000,86,70000,40,9999,0.100000,99,891,0.000000,3,0.000000,28.661691,13.304766,99,99,0,0,0,0,0
8,89999,57,80000,86,70000,2,9999,0.100000,99,891,38.316519,1,7.000000,26.933197,15.320430,99,99,0,0,1,0,0
8,89999,58,80000,86,70000,2,9999,0.100000,99,891,38.316519,2,7.000000,26.865249,18.070977,99,99,0,0,1,0,0
8,89999,59,80000,86,70000,40,9999,0.100000,99,891,0.000000,4,1.000000,25.417137,15.741669,99,99,0,0,0,0,0
8,89999,60,80000,86,70000,40,9999,0.100000,99,891,0.000000,1,0.000000,26.136047,1.014761,99,99,0,0,0,0,0
8,89999,61,80000,86,70000,40,9999,0.100000,99,891,0.000000,2,0.000000,29.988898,0.474465,99,99,0,0,0,0,0
8,89999,62,80000,86,70000,40,9999,0.100000,99,891,0.000000,2,0.000000,30.024956,3.181826,99,99,0,0,0,0,0
8,89999,63,80000,86,70000,40,9999,0.100000,99,891,0.000000,4,0.000000,13.376550,0.393100,99,99,0,0,0,0,0
8,89999,64,80000,86,70000,40,9999,0.100000,99,891,0.000000,3,2.000000,21.537677,6.729513,99,99,0,0,0,0,0
8,89999,65,80000,86,70000,40,9999,0.100000,99,891,0.000000,2,2.000000,25.804238,14.427283,99,99,0,0,0,0,0
8,89999,66,80000,86,70000,40,9999,0.100000,99,891,0.000000,2,0.000000,24.362706,0.819840,99,99,0,0,0,0,0
8,89999,67,80000,86,70000,40,9999,0.100000,99,891,0.000000,3,0.000000,23.483261,12.233596,99,99,0,0,0,0,0
8,89999,68,80000,86,70000,40,9999,0.100000,99,891,0.000000,4,1.000000,24.142047,12.719950,99,99,0,0,0,0,0
8,89999,69,80000,86,70000,0,9999,0.100000,99,891,10.524791,2,1.000000,31.285249,8.537465,99,99,0,1,0,0,0
8,89999,70,80000,86,70000,40,9999,0.100000,99,891,0.000000,1,0.000000,26.343085,1.037302,99,99,0,0,0,0,0
8,89999,71,80000,86,70000,40,9999,0.100000,99,891,0.000000,2,2.000000,20.402143,2.907659,99,99,0,0,0,0,0
8,89999,72,80000,86,70000,40,9999,0.100000,99,891,0.000000,2,0.000000,22.397045,0.502235,99,99,0,0,0,0,0
8,89999,73,80000,86,70000,40,9999,0.100000,99,891,0.000000,1,0.000000,20.494351,0.791167,99,99,0,0,0,0,0
8,89999,74,80000,86,70000,41,9999,0.100000,99,891,0.000000,2,3.000000,26.728988,7.835642,99,99,0,0,0,0,0
8,89999,75,80000,86,70000,40,9999,0.100000,99,891,0.000000,2,2.000000,27.164839,13.941434,99,99,0,0,0,0,0
8,89999,76,80000,86,70000,40,9999,0.100000,99,891,0.000000,2,1.000000,29.150329,14.516378,99,99,0,0,0,0,0
8,89999,77,80000,86,70000,0,9999,0.100000,99,891,0.405693,1,0.000000,27.253636,0.406871,99,99,0,0,1,0,0
8,89999,78,80000,86,70000,40,9999,0.100000,99,891,0.000000,2,0.000000,29.886777,1.147160,99,99,0,0,0,0,0
8,89999,79,80000,86,70000,90,9999,0.100000,99,891,6.902742,3,2.000000,27.535641,6.625749,99,99,1,0,0,0,0
8,89999,80,80000,86,70000,40,9999,0.100000,99,891,0.000000,3,0.000000,28.566044,1.260140,99,99,0,0,0,0,0
8,89999,81,80000,86,70000,41,9999,0.100000,99,891,0.000000,3,4.000000,24.768390,16.133770,99,99,0,0,0,0,0
8,89999,82,80000,86,70000,40,9999,0.100000,99,891,0.000000,3,0.000000,26.130775,11.476362,99,99,0,0,0,0,0
8,89999,83,80000,86,70000,0,9999,0.100000,99,891,0.008764,1,0.000000,13.867577,0.134601,99,99,0,0,0,1,0
8,89999,84,80000,86,70000,40,9999,0.100000,99,891,0.000000,2,0.000000,25.175454,12.764534,99,99,0,0,0,0,0
8,89999,85,80000,86,70000,40,9999,0.100000,99,891,0.000000,2,1.000000,30.206968,12.538072,99,99,0,0,0,0,0
8,89999,86,80000,79,70000,40,9999,0.100000,99,891,0.000000,6,0.000000,27.843652,11.915200,99,99,0,0,0,0,0
8,89999,87,80000,86,70000,40,9999,0.100000,99,891,0.000000,2,0.000000,29.855965,0.108668,99,99,0,0,0,0,0
8,89999,88,80000,86,70000,40,9999,0.100000,99,891,0.000000,2,0.000000,22.180604,1.710458,99,99,0,0,0,0,0
8,89999,89,80000,86,70000,40,9999,0.100000,99,891,0.000000,2,0.000000,32.279298,0.737484,99,99,0,0,0,0,0
8,89999,90,80000,86,70000,40,9999,0.100000,99,891,0.000000,2,0.000000,22.394060,0.743082,99,99,0,0,0,0,0
8,89999,91,80000,86,70000,43,9999,0.100000,99,891,0.000000,1,8.000000,20.868247,28.976594,99,99,0,0,0,0,0
8,89999,92,80000,86,70000,40,9999,0.100000,99,891,0.000000,3,0.000000,30.018625,0.977050,99,99,0,0,0,0,0
8,89999,93,80000,86,70000,40,9999,0.100000,99,891,0.000000,1,0.000000,19.175528,0.071099,99,99,0,0,0,0,0
8,89999,94,80000,86,70000,40,9999,0.100000,99,891,0.000000,2,0.000000,25.972955,13.028091,99,99,0,0,0,0,0
8,89999,95,80000,86,70000,40,9999,0.100000,99,891,0.000000,2,1.000000,31.018107,3.995192,99,99,0,0,0,0,0
8,89999,96,80000,86,70000,40,9999,0.100000,99,891,0.000000,2,0.000000,25.439822,10.427045,99,99,0,0,0,0,0
8,89999,97,80000,86,70000,40,9999,0.100000,99,891,0.000000,2,1.000000,24.875456,14.358368,99,99,0,0,0,0,0
8,89999,98,80000,86,70000,40,9999,0.100000,99,891,0.000000,2,2.000000,24.179406,12.646911,99,99,0,0,0,0,0
8,89999,99,80000,86,70000,40,9999,0.100000,99,891,0.000000,2,1.000000,20.336117,11.564896,99,99,0,0,0,0,0
9,99999,0,90000,1,80000,40,9999,0.100000,99,990,0.000000,1,1.000000,21.661113,7.714617,99,99,0,0,0,0,0
9,99999,1,90000,58,80000,40,9999,0.100000,99,990,0.000000,4,2.000000,29.795922,15.572016,99,99,0,0,0,0,0
9,99999,2,90000,1,80000,41,9999,0.100000,99,990,0.000000,2,3.000000,26.763908,14.809766,99,99,0,0,0,0,0
9,99999,3,90000,57,80000,40,9999,0.100000,99,990,0.000000,3,0.000000,22.396735,6.913606,99,99,0,0,0,0,0
9,99999,4,90000,58,80000,41,9999,0.100000,99,990,0.000000,1,3.000000,25.957454,15.673019,99,99,0,0,0,0,0
9,99999,5,90000,57,80000,40,9999,0.100000,99,990,0.000000,1,1.000000,24.651021,11.786351,99,99,0,0,0,0,0
9,99999,6,90000,58,80000,40,9999,0.100000,99,990,0.000000,2,2.000000,22.297870,10.242979,99,99,0,0,0,0,0
9,99999,7,90000,1,80000,40,9999,0.100000,99,990,0.000000,2,2.000000,28.122209,16.955726,99,99,0,0,0,0,0
9,99999,8,90000,58,80000,0,9999,0.100000,99,990,0.002376,2,0.000000,19.017688,0.179613,99,99,0,0,0,0,1
9,99999,9,90000,57,80000,40,9999,0.100000,99,990,0.000000,4,1.000000,25.318133,15.259090,99,99,0,0,0,0,0
9,99999,10,90000,1,80000,40,9999,0.100000,99,990,0.000000,1,1.000000,31.907264,15.238690,99,99,0,0,0,0,0
9,99999,11,90000,1,80000,40,9999,0.100000,99,990,0.000000,2,0.000000,24.786768,0.584822,99,99,0,0,0,0,0
9,99999,12,90000,57,80000,40,9999,0.100000,99,990,0.000000,3,1.000000,26.215490,14.492012,99,99,0,0,0,0,0
9,99999,13,90000,57,80000,40,9999,0.100000,99,990,0.000000,3,1.000000,21.283034,8.758017,99,99,0,0,0,0,0
9,99999,14,90000,58,80000,90,9999,0.100000,99,990,0.137887,1,0.000000,33.005944,0.509000,99,99,1,0,0,0,0
9,99999,15,90000,57,80000,40,9999,0.100000,99,990,0.000000,2,1.000000,24.230076,15.978307,99,99,0,0,0,0,0
9,99999,16,90000,1,80000,41,9999,0.100000,99,990,0.000000,3,4.000000,27.048644,5.108371,99,99,0,0,0,0,0
9,99999,17,90000,57,80000,43,9999,0.100000,99,990,0.000000,3,9.000000,24.690958,10.219189,99,99,0,0,0,0,0
9,99999,18,90000,58,80000,40,9999,0.100000,99,990,0.000000,2,0.000000,29.191022,0.172238,99,99,0,0,0,0,0
9,99999,19,90000,1,80000,40,9999,0.100000,99,990,0.000000,3,0.000000,30.056601,1.437399,99,99,0,0,0,0,0
9,99999,20,90000,1,80000,1,9999,0.100000,99,990,9.158197,3,4.000000,27.258504,4.878432,99,99,0,0,0,1,0
9,99999,21,90000,1,80000,41,9999,0.100000,99,990,0.000000,2,4.000000,27.425215,4.938518,99,99,0,0,0,0,0
9,99999,22,90000,1,80000,40,9999,0.100000,99,990,0.000000,4,2.000000,26.079323,19.315475,99,99,0,0,0,0,0
9,99999,23,90000,57,80000,40,9999,0.100000,99,990,0.000000,2,0.000000,23.617733,0.831919,99,99,0,0,0,0,0
9,99999,24,90000,58,80000,40,9999,0.100000,99,990,0.000000,2,0.000000,22.409899,0.676273,99,99,0,0,0,0,0
9,99999,25,90000,57,80000,0,9999,0.100000,99,990,0.568917,1,0.000000,21.866406,0.613533,99,99,0,0,0,1,0
9,99999,26,90000,1,80000,40,9999,0.100000,99,990,0.000000,2,0.000000,23.656364,12.905278,99,99,0,0,0,0,0
9,99999,27,90000,57,80000,40,9999,0.100000,99,990,0.000000,3,1.000000,25.028379,10.271224,99,99,0,0,0,0,0
9,99999,28,90000,1,80000,40,9999,0.100000,99,990,0.000000,2,0.000000,31.211911,1.819598,99,99,0,0,0,0,0
9,99999,29,90000,1,80000,40,9999,0.100000,99,990,0.000000,2,0.000000,14.457730,0.230699,99,99,0,0,0,0,0
9,99999,30,90000,57,80000,40,9999,0.100000,99,990,0.000000,2,1.000000,26.297793,13.580212,99,99,0,0,0,0,0
9,99999,31,90000,57,80000,0,9999,0.100000,99,990,0.156714,2,0.000000,20.824439,1.023902,99,99,0,0,0,0,1
9,99999,32,90000,57,80000,0,9999,0.100000,99,990,0.163181,3,0.000000,28.837754,0.167754,99,99,0,0,0,0,1
9,99999,33,90000,58,80000,3,9999,0.100000,99,990,49.728180,2,9.000000,24.720591,10.099459,99,99,0,0,0,1,0
9,99999,34,90000,58,80000,40,9999,0.100000,99,990,0.000000,4,0.000000,16.219791,0.233785,99,99,0,0,0,0,0
9,99999,35,90000,57,80000,40,9999,0.100000,99,990,0.000000,4,2.000000,27.697006,15.578725,99,99,0,0,0,0,0
9,99999,36,90000,1,80000,40,9999,0.100000,99,990,0.000000,2,0.000000,20.208802,1.507928,99,99,0,0,0,0,0
9,99999,37,90000,1,80000,40,9999,0.100000,99,990,0.000000,3,0.000000,26.202713,11.445163,99,99,0,0,0,0,0
9,99999,38,90000,57,80000,40,9999,0.100000,99,990,0.000000,2,0.000000,24.049369,0.226293,99,99,0,0,0,0,0
9,99999,39,90000,58,80000,40,9999,0.100000,99,990,0.000000,2,0.000000,23.576448,8.351166,99,99,0,0,0,0,0
9,99999,40,90000,1,80000,40,9999,0.100000,99,990,0.000000,2,0.000000,21.632404,1.685069,99,99,0,0,0,0,0
9,99999,41,90000,1,80000,41,9999,0.100000,99,990,0.000000,2,3.000000,25.224529,14.576509,99,99,0,0,0,0,0
9,99999,42,90000,58,80000,40,9999,0.100000,99,990,0.000000,2,0.000000,29.115175,0.171662,99,99,0,0,0,0,0
9,99999,43,90000,58,80000,0,9999,0.100000,99,990,0.002247,2,0.000000,33.979365,0.104446,99,99,0,0,1,0,0
9,99999,44,90000,58,80000,40,9999,0.100000,99,990,0.000000,2,0.000000,18.925409,0.063266,99,99,0,0,0,0,0
9,99999,45,90000,58,80000,40,9999,0.100000,99,990,0.000000,4,0.000000,11.666327,0.171970,99,99,0,0,0,0,0
9,99999,46,90000,1,80000,0,9999,0.100000,99,990,0.327400,2,0.000000,31.163591,0.127419,99,99,0,0,0,0,1
9,99999,47,90000,57,80000,43,9999,0.100000,99,990,0.000000,2,9.000000,24.755919,9.876760,99,99,0,0,0,0,0
9,99999,48,90000,57,80000,40,9999,0.100000,99,990,0.000000,5,0.000000,19.277207,0.230414,99,99,0,0,0,0,0
9,99999,49,90000,57,80000,40,9999,0.100000,99,990,0.000000,3,1.000000,29.412360,16.957096,99,99,0,0,0,0,0
9,99999,50,90000,58,80000,40,9999,0.100000,99,990,0.000000,1,0.000000,23.449432,1.008652,99,99,0,0,0,0,0
9,99999,51,90000,58,80000,40,9999,0.100000,99,990,0.000000,2,0.000000,30.081479,0.447890,99,99,0,0,0,0,0
9,99999,52,90000,57,80000,40,9999,0.100000,99,990,0.000000,3,1.000000,25.662694,15.591421,99,99,0,0,0,0,0
9,99999,53,90000,57,80000,40,9999,0.100000,99,990,0.000000,4,2.000000,28.158147,14.628876,99,99,0,0,0,0,0
9,99999,54,90000,1,80000,40,9999,0.100000,99,990,0.000000,2,0.000000,30.175189,3.200872,99,99,0,0,0,0,0
9,99999,55,90000,57,80000,40,9999,0.100000,99,990,0.000000,1,2.000000,27.963660,17.408016,99,99,0,0,0,0,0
9,99999,56,90000,1,80000,40,9999,0.100000,99,990,0.000000,3,2.000000,28.129696,16.361533,99,99,0,0,0,0,0
9,99999,57,90000,1,80000,40,9999,0.100000,99,990,0.000000,2,2.000000,30.385845,14.101430,99,99,0,0,0,0,0
9,99999,58,90000,57,80000,40,9999,0.100000,99,990,0.000000,3,3.000000,33.271240,15.902048,99,99,0,-1,0,0,0
9,99999,59,90000,58,80000,40,9999,0.100000,99,990,0.000000,4,0.000000,26.424394,11.696103,99,99,0,0,0,0,0
9,99999,60,90000,58,80000,40,9999,0.100000,99,990,0.000000,1,0.000000,26.707995,0.554226,99,99,0,0,0,0,0
9,99999,61,90000,57,80000,0,9999,0.100000,99,990,0.017005,2,0.000000,29.988230,0.568134,99,99,0,0,0,1,0
9,99999,62,90000,57,80000,40,9999,0.100000,99,990,0.000000,2,0.000000,30.046739,1.972934,99,99,0,0,0,0,0
9,99999,63,90000,1,80000,40,9999,0.100000,99,990,0.000000,4,0.000000,13.459109,0.376022,99,99,0,0,0,0,0
9,99999,64,90000,57,80000,40,9999,0.100000,99,990,0.000000,3,0.000000,20.444076,11.099229,99,99,0,0,0,0,0
9,99999,65,90000,58,80000,40,9999,0.100000,99,990,0.000000,2,0.000000,25.000460,10.117559,99,99,0,0,0,0,0
9,99999,66,90000,57,80000,43,9999,0.100000,99,990,0.000000,2,10.000000,24.685456,10.482138,99,99,0,0,0,0,0
9,99999,67,90000,58,80000,40,9999,0.100000,99,990,0.000000,3,0.000000,23.233320,11.911289,99,99,0,0,0,0,0
9,99999,68,90000,57,80000,40,9999,0.100000,99,990,0.000000,4,1.000000,25.049080,11.028786,99,99,0,0,0,0,0
9,99999,69,90000,58,80000,0,9999,0.100000,99,990,9.110502,3,2.000000,32.694224,15.158083,99,99,0,1,0,0,0
9,99999,70,90000,58,80000,41,9999,0.100000,99,990,0.000000,1,4.000000,26.894143,5.545199,99,99,0,0,0,0,0
9,99999,71,90000,1,80000,40,9999,0.100000,99,990,0.000000,2,0.000000,20.883212,1.031390,99,99,0,0,0,0,0
9,99999,72,90000,58,80000,40,9999,0.100000,99,990,0.000000,2,0.000000,22.578443,0.498052,99,99,0,0,0,0,0
9,99999,73,90000,57,80000,40,9999,0.100000,99,990,0.000000,1,0.000000,20.057609,0.633755,99,99,0,0,0,0,0
9,99999,74,90000,1,80000,40,9999,0.100000,99,990,0.000000,2,2.000000,29.605566,6.710984,99,99,0,0,0,0,0
9,99999,75,90000,57,80000,40,9999,0.100000,99,990,0.000000,3,2.000000,26.285436,15.685521,99,99,0,0,0,0,0
9,99999,76,90000,57,80000,41,9999,0.100000,99,990,0.000000,2,4.000000,28.547940,16.823714,99,99,0,0,0,0,0
9,99999,77,90000,58,80000,0,9999,0.100000,99,990,0.169451,1,0.000000,27.599217,0.194960,99,99,0,0,1,0,0
9,99999,78,90000,57,80000,40,9999,0.100000,99,990,0.000000,2,0.000000,29.885193,1.170199,99,99,0,0,0,0,0
9,99999,79,90000,57,80000,90,9999,0.100000,99,990,1.878164,3,0.000000,29.758275,4.100260,99,99,1,0,0,0,0
9,99999,80,90000,57,80000,40,9999,0.100000,99,990,0.000000,3,0.000000,28.827858,0.188121,99,99,0,0,0,0,0
9,99999,81,90000,1,80000,41,9999,0.100000,99,990,0.000000,3,4.000000,28.180189,9.803016,99,99,0,0,0,0,0
9,99999,82,90000,57,80000,40,9999,0.100000,99,990,0.000000,3,1.000000,25.584862,13.594777,99,99,0,0,0,0,0
9,99999,83,90000,1,80000,0,9999,0.100000,99,990,0.010495,1,0.000000,13.892406,0.126007,99,99,0,0,0,1,0
9,99999,84,90000,57,80000,40,9999,0.100000,99,990,0.000000,2,1.000000,25.054620,15.328913,99,99,0,0,0,0,0
9,99999,85,90000,58,80000,41,9999,0.100000,99,990,0.000000,2,4.000000,30.672084,15.954377,99,99,0,0,0,0,0
9,99999,86,90000,58,80000,40,9999,0.100000,99,990,0.000000,6,2.000000,27.574513,15.810681,99,99,0,0,0,0,0
9,99999,87,90000,58,80000,40,9999,0.100000,99,990,0.000000,2,0.000000,29.855948,0.105192,99,99,0,0,0,0,0
9,99999,88,90000,57,80000,40,9999,0.100000,99,990,0.000000,2,0.000000,21.996940,0.618184,99,99,0,0,0,0,0
9,99999,89,90000,1,80000,40,9999,0.100000,99,990,0.000000,2,0.000000,32.388280,0.346955,99,99,0,0,0,0,0
9,99999,90,90000,57,80000,40,9999,0.100000,99,990,0.000000,2,0.000000,21.896124,2.143507,99,99,0,0,0,0,0
9,99999,91,90000,1,80000,41,9999,0.100000,99,990,0.000000,2,4.000000,28.051074,11.533342,99,99,0,0,0,0,0
9,99999,92,90000,57,80000,40,9999,0.100000,99,990,0.000000,3,0.000000,30.017255,0.994087,99,99,0,0,0,0,0
9,99999,93,90000,57,80000,40,9999,0.100000,99,990,0.000000,1,0.000000,19.174970,0.072229,99,99,0,0,0,0,0
9,99999,94,90000,58,80000,41,9999,0.100000,99,990,0.000000,2,3.000000,26.165313,18.080351,99,99,0,0,0,0,0
9,99999,95,90000,58,80000,40,9999,0.100000,99,990,4.259533,2,2.000000,32.574244,9.333037,99,99,0,0,0,0,0
9,99999,96,90000,57,80000,40,9999,0.100000,99,990,0.000000,2,1.000000,25.358291,11.578140,99,99,0,0,0,0,0
9,99999,97,90000,1,80000,40,9999,0.135000,99,990,0.000000,2,2.000000,24.590074,17.019610,99,99,0,0,0,0,0
9,99999,98,90000,1,80000,41,9999,0.100000,99,990,0.000000,2,4.000000,26.760684,6.177101,99,99,0,0,0,0,0
9,99999,99,90000,57,80000,40,9999,0.100000,99,990,0.000000,2,1.000000,21.907588,9.504614,99,99,0,0,0,0,0
10,109999,0,100000,33,90000,40,9999,0.100000,99,1089,0.000000,1,1.000000,21.230781,9.317240,99,99,0,0,0,0,0
10,109999,1,100000,33,90000,41,9999,0.100000,99,1089,0.000000,4,3.000000,28.298828,14.240009,99,99,0,0,0,0,0
10,109999,2,100000,33,90000,40,9999,0.100000,99,1089,0.000000,2,1.000000,28.931455,16.226696,99,99,0,0,0,0,0
10,109999,3,100000,33,90000,40,9999,0.100000,99,1089,0.000000,3,0.000000,21.790776,7.108340,99,99,0,0,0,0,0
10,109999,4,100000,33,90000,40,9999,0.100000,99,1089,0.000000,1,0.000000,28.940393,2.913184,99,99,0,0,0,0,0
10,109999,5,100000,33,90000,40,9999,0.100000,99,1089,0.000000,1,0.000000,25.325370,11.360094,99,99,0,0,0,0,0
10,109999,6,100000,33,90000,40,9999,0.100000,99,1089,0.000000,2,2.000000,25.050436,12.452855,99,99,0,0,0,0,0
10,109999,7,100000,33,90000,42,9999,0.100000,99,1089,0.000000,2,7.000000,28.699785,16.715068,99,99,0,0,0,0,0
10,109999,8,100000,33,90000,0,9999,0.100000,99,1089,0.001814,2,0.000000,19.017397,0.179145,99,99,0,0,0,0,1
10,109999,9,100000,33,90000,40,9999,0.100000,99,1089,0.000000,4,1.000000,25.166151,14.385425,99,99,0,0,0,0,0
10,109999,10,100000,33,90000,40,9999,0.100000,99,1089,0.000000,1,2.000000,31.805562,19.947858,99,99,0,0,0,0,0
10,109999,11,100000,33,90000,40,9999,0.100000,99,1089,0.000000,2,0.000000,25.179344,0.397097,99,99,0,0,0,0,0
10,109999,12,100000,33,90000,40,9999,0.100000,99,1089,0.000000,3,2.000000,24.901349,12.912921,99,99,0,0,0,0,0
10,109999,13,100000,33,90000,40,9999,0.100000,99,1089,0.000000,3,0.000000,22.567184,8.371269,99,99,0,0,0,0,0
10,109999,14,100000,33,90000,90,9999,0.100000,99,1089,0.242321,1,0.000000,33.037041,0.537484,99,99,1,0,0,0,0
10,109999,15,100000,33,90000,40,9999,0.100000,99,1089,0.000000,2,2.000000,25.315067,11.240600,99,99,0,0,0,0,0
10,109999,16,100000,33,90000,0,9999,0.100000,99,1089,0.763671,4,0.000000,28.775234,2.149641,99,99,0,0,0,1,0
10,109999,17,100000,33,90000,41,9999,0.100000,99,1089,0.000000,4,5.000000,32.778170,13.913166,99,99,0,0,0,0,0
10,109999,18,100000,33,90000,40,9999,0.135000,99,1089,0.000000,2,0.000000,29.284595,0.157670,99,99,0,0,0,0,0
10,109999,19,100000,33,90000,40,9999,0.100000,99,1089,0.000000,3,0.000000,30.058801,1.399258,99,99,0,0,0,0,0
10,109999,20,100000,33,90000,40,9999,0.100000,99,1089,0.000000,4,0.000000,29.032349,2.018080,99,99,0,0,0,0,0
10,109999,21,100000,33,90000,40,9999,0.100000,99,1089,0.000000,3,0.000000,29.247763,2.352232,99,99,0,0,0,0,0
10,109999,22,100000,33,90000,41,9999,0.100000,99,1089,0.000000,4,3.000000,24.966340,14.439159,99,99,0,0,0,0,0
10,109999,23,100000,33,90000,40,9999,0.100000,99,1089,0.000000,2,0.000000,23.925743,0.952298,99,99,0,0,0,0,0
10,109999,24,100000,33,90000,40,9999,0.100000,99,1089,0.000000,2,0.000000,22.590819,1.158002,99,99,0,0,0,0,0
10,109999,25,100000,33,90000,0,9999,0.100000,99,1089,0.123209,1,0.000000,21.721413,0.314639,99,99,0,0,0,1,0
10,109999,26,100000,33,90000,40,9999,0.100000,99,1089,0.000000,2,2.000000,23.509371,11.543022,99,99,0,0,0,0,0
10,109999,27,100000,33,90000,40,9999,0.100000,99,1089,0.000000,3,1.000000,24.278929,9.050833,99,99,0,0,0,0,0
10,109999,28,100000,33,90000,40,9999,0.100000,99,1089,0.000000,2,0.000000,31.188670,1.746511,99,99,0,0,0,0,0
10,109999,29,100000,33,90000,40,9999,0.100000,99,1089,0.000000,2,0.000000,14.456093,0.235992,99,99,0,0,0,0,0
10,109999,30,100000,33,90000,40,9999,0.100000,99,1089,0.000000,2,0.000000,26.047678,11.863381,99,99,0,0,0,0,0
10,109999,31,100000,33,90000,0,9999,0.100000,99,1089,0.352070,2,0.000000,20.538306,0.242509,99,99,0,0,0,0,1
10,109999,32,100000,33,90000,0,9999,0.100000,99,1089,0.118539,3,0.000000,28.837628,0.167100,99,99,0,0,0,0,1
10,109999,33,100000,20,90000,41,9999,0.100000,99,1089,0.000000,3,4.000000,32.660789,19.532498,99,99,0,0,0,0,0
10,109999,34,100000,33,90000,40,9999,0.100000,99,1089,0.000000,4,0.000000,16.217041,0.232887,99,99,0,0,0,0,0
10,109999,35,100000,33,90000,40,9999,0.100000,99,1089,0.000000,4,1.000000,29.120116,12.476568,99,99,0,0,0,0,0
10,109999,36,100000,33,90000,40,9999,0.100000,99,1089,0.000000,2,0.000000,19.951725,1.494578,99,99,0,0,0,0,0
10,109999,37,100000,33,90000,40,9999,0.100000,99,1089,0.000000,3,0.000000,26.073473,12.616789,99,99,0,0,0,0,0
10,109999,38,100000,33,90000,40,9999,0.100000,99,1089,0.000000,2,0.000000,24.050170,0.238366,99,99,0,0,0,0,0
10,109999,39,100000,33,90000,40,9999,0.100000,99,1089,0.000000,2,0.000000,23.407741,8.922074,99,99,0,0,0,0,0
10,109999,40,100000,33,90000,40,9999,0.100000,99,1089,0.000000,2,0.000000,21.077620,0.890083,99,99,0,0,0,0,0
10,109999,41,100000,33,90000,41,9999,0.100000,99,1089,0.000000,2,4.000000,28.389836,14.941799,99,99,0,0,0,0,0
10,109999,42,100000,33,90000,40,9999,0.100000,99,1089,0.000000,2,0.000000,29.208761,0.158218,99,99,0,0,0,0,0
10,109999,43,100000,33,90000,0,9999,0.100000,99,1089,0.028664,2,0.000000,33.977198,0.423560,99,99,0,0,1,0,0
10,109999,44,100000,33,90000,40,9999,0.100000,99,1089,0.000000,2,0.000000,18.925337,0.063444,99,99,0,0,0,0,0
10,109999,45,100000,33,90000,40,9999,0.100000,99,1089,0.000000,4,0.000000,11.665986,0.165738,99,99,0,0,0,0,0
10,109999,46,100000,33,90000,0,9999,0.100000,99,1089,0.510850,2,0.000000,31.148992,0.186784,99,99,0,0,0,0,1
10,109999,47,100000,33,90000,41,9999,0.100000,99,1089,0.000000,3,6.000000,32.546301,14.323922,99,99,0,0,0,0,0
10,109999,48,100000,33,90000,40,9999,0.100000,99,1089,0.000000,5,0.000000,19.274521,0.245792,99,99,0,0,0,0,0
10,109999,49,100000,33,90000,40,9999,0.100000,99,1089,0.000000,3,1.000000,31.286851,17.603892,99,99,0,0,0,0,0
10,109999,50,100000,33,90000,40,9999,0.100000,99,1089,0.000000,1,0.000000,23.772406,0.848087,99,99,0,0,0,0,0
10,109999,51,100000,33,90000,0,9999,0.100000,99,1089,0.121848,3,0.000000,30.082764,0.372821,99,99,0,0,0,1,0
10,109999,52,100000,33,90000,40,9999,0.100000,99,1089,0.000000,3,2.000000,24.565179,10.959636,99,99,0,0,0,0,0
10,109999,53,100000,33,90000,42,9999,0.100000,99,1089,0.000000,4,6.000000,28.301981,16.545481,99,99,0,0,0,0,0
10,109999,54,100000,33,90000,40,9999,0.100000,99,1089,0.000000,2,0.000000,30.175978,3.134849,99,99,0,0,0,0,0
10,109999,55,100000,33,90000,40,9999,0.100000,99,1089,0.000000,1,1.000000,28.158002,17.481692,99,99,0,0,0,0,0
10,109999,56,100000,33,90000,42,9999,0.100000,99,1089,0.000000,3,8.000000,29.858256,25.325702,99,99,0,0,0,0,0
10,109999,57,100000,33,90000,40,9999,0.100000,99,1089,0.000000,2,2.000000,29.460935,6.785421,99,99,0,0,0,0,0
10,109999,58,100000,33,90000,40,9999,0.100000,99,1089,0.007727,3,0.000000,33.819637,0.817224,99,99,0,0,0,0,0
10,109999,59,100000,33,90000,41,9999,0.100000,99,1089,0.000000,4,4.000000,26.117663,17.049833,99,99,0,0,0,0,0
10,109999,60,100000,33,90000,40,9999,0.100000,99,1089,0.000000,1,0.000000,27.030776,0.265362,99,99,0,0,0,0,0
10,109999,61,100000,33,90000,40,9999,0.100000,99,1089,0.000000,3,0.000000,29.989222,0.475961,99,99,0,0,0,0,0
10,109999,62,100000,33,90000,40,9999,0.100000,99,1089,0.000000,2,0.000000,30.058830,0.510412,99,99,0,0,0,0,0
10,109999,63,100000,33,90000,40,9999,0.100000,99,1089,0.000000,4,0.000000,13.480529,0.350108,99,99,0,0,0,0,0
10,109999,64,100000,33,90000,40,9999,0.100000,99,1089,0.000000,3,0.000000,19.917529,8.766220,99,99,0,0,0,0,0
10,109999,65,100000,33,90000,40,9999,0.100000,99,1089,0.000000,2,2.000000,25.116117,11.444480,99,99,0,0,0,0,0
10,109999,66,100000,33,90000,41,9999,0.100000,99,1089,0.000000,3,5.000000,32.923402,19.405194,99,99,0,0,0,0,0
10,109999,67,100000,33,90000,40,9999,0.100000,99,1089,0.000000,3,2.000000,23.575284,15.544646,99,99,0,0,0,0,0
10,109999,68,100000,33,90000,40,9999,0.100000,99,1089,0.000000,4,0.000000,25.215272,9.944374,99,99,0,0,0,0,0
10,109999,69,100000,33,90000,40,9999,0.100000,99,1089,0.000000,3,3.000000,30.405744,12.745889,99,99,0,0,0,0,0
10,109999,70,100000,33,90000,40,9999,0.100000,99,1089,0.000000,2,2.000000,28.586737,16.807121,99,99,0,0,0,0,0
10,109999,71,100000,33,90000,40,9999,0.100000,99,1089,0.000000,2,0.000000,21.458434,1.229665,99,99,0,0,0,0,0
10,109999,72,100000,33,90000,40,9999,0.100000,99,1089,0.000000,2,0.000000,22.759978,0.937998,99,99,0,0,0,0,0
10,109999,73,100000,33,90000,40,9999,0.100000,99,1089,0.000000,1,0.000000,19.811820,0.353998,99,99,0,0,0,0,0
10,109999,74,100000,33,90000,40,9999,0.135000,99,1089,0.000000,2,0.000000,31.443769,1.183189,99,99,0,0,0,0,0
10,109999,75,100000,33,90000,40,9999,0.100000,99,1089,0.000000,3,2.000000,27.147061,17.397495,99,99,0,0,0,0,0
10,109999,76,100000,33,90000,43,9999,0.100000,99,1089,0.000000,2,10.000000,26.747825,28.212217,99,99,0,0,0,0,0
10,109999,77,100000,33,90000,0,9999,0.100000,99,1089,0.187316,1,0.000000,27.679561,0.181171,99,99,0,0,1,0,0
10,109999,78,100000,33,90000,40,9999,0.100000,99,1089,0.000000,2,0.000000,29.887067,1.156220,99,99,0,0,0,0,0
10,109999,79,100000,33,90000,90,9999,0.100000,99,1089,5.791395,3,1.000000,29.935007,1.608766,99,99,1,0,0,0,0
10,109999,80,100000,33,90000,40,9999,0.100000,99,1089,0.000000,3,0.000000,28.825851,0.178513,99,99,0,0,0,0,0
10,109999,81,100000,33,90000,40,9999,0.100000,99,1089,0.000000,3,1.000000,30.562703,14.790567,99,99,0,0,0,0,0
10,109999,82,100000,33,90000,40,9999,0.100000,99,1089,0.000000,3,1.000000,25.714784,14.899769,99,99,0,0,0,0,0
10,109999,83,100000,33,90000,0,9999,0.100000,99,1089,0.005008,1,0.000000,13.914749,0.124208,99,99,0,0,0,1,0
10,109999,84,100000,33,90000,40,9999,0.100000,99,1089,0.000000,2,2.000000,24.432288,15.020212,99,99,0,0,0,0,0
10,109999,85,100000,33,90000,40,9999,0.100000,99,1089,0.000000,2,0.000000,28.985164,7.133288,99,99,0,0,0,0,0
10,109999,86,100000,33,90000,40,9999,0.100000,99,1089,0.000000,6,1.000000,29.435818,3.326376,99,99,0,0,0,0,0
10,109999,87,100000,33,90000,40,9999,0.100000,99,1089,0.000000,2,0.000000,29.855842,0.109265,99,99,0,0,0,0,0
10,109999,88,100000,33,90000,40,9999,0.100000,99,1089,0.000000,2,0.000000,21.841244,0.312946,99,99,0,0,0,0,0
10,109999,89,100000,33,90000,40,9999,0.100000,99,1089,0.000000,2,0.000000,32.455029,0.305672,99,99,0,0,0,0,0
10,109999,90,100000,33,90000,40,9999,0.100000,99,1089,0.000000,2,0.000000,21.089297,0.763856,99,99,0,0,0,0,0
10,109999,91,100000,33,90000,40,9999,0.100000,99,1089,0.000000,3,2.000000,30.437946,10.326483,99,99,0,0,0,0,0
10,109999,92,100000,33,90000,40,9999,0.100000,99,1089,0.000000,3,0.000000,30.019572,0.978814,99,99,0,0,0,0,0
10,109999,93,100000,33,90000,40,9999,0.100000,99,1089,0.000000,1,0.000000,19.174525,0.073186,99,99,0,0,0,0,0
10,109999,94,100000,33,90000,41,9999,0.100000,99,1089,0.000000,2,4.000000,27.060849,15.294944,99,99,0,0,0,0,0
10,109999,95,100000,33,90000,40,9999,0.100000,99,1089,0.000000,3,3.000000,30.221337,13.810623,99,99,0,0,0,0,0
10,109999,96,100000,33,90000,40,9999,0.100000,99,1089,0.000000,2,0.000000,26.109789,10.893320,99,99,0,0,0,0,0
10,109999,97,100000,33,90000,40,9999,0.100000,99,1089,0.000000,2,1.000000,25.140959,14.842916,99,99,0,0,0,0,0
10,109999,98,100000,33,90000,40,9999,0.100000,99,1089,0.000000,2,0.000000,28.512022,2.518549,99,99,0,0,0,0,0
10,109999,99,100000,33,90000,40,9999,0.100000,99,1089,0.000000,2,1.000000,23.214672,9.567509,99,99,0,0,0,0,0
11,119999,0,110000,79,100000,40,9999,0.100000,99,1188,0.000000,1,1.000000,21.950400,10.263920,99,99,0,0,0,0,0
11,119999,1,110000,79,100000,40,9999,0.100000,99,1188,0.000000,5,1.000000,25.536425,11.248135,99,99,0,0,0,0,0
11,119999,2,110000,79,100000,42,9999,0.100000,99,1188,0.000000,2,7.000000,29.665802,13.736337,99,99,0,0,0,0,0
11,119999,3,110000,79,100000,40,9999,0.100000,99,1188,0.000000,3,0.000000,21.981983,8.675575,99,99,0,0,0,0,0
11,119999,4,110000,79,100000,41,9999,0.100000,99,1188,0.000000,1,4.000000,28.513713,8.179246,99,99,0,0,0,0,0
11,119999,5,110000,79,100000,40,9999,0.100000,99,1188,0.000000,1,2.000000,25.242062,15.214220,99,99,0,0,0,0,0
11,119999,6,110000,79,100000,40,9999,0.100000,99,1188,0.000000,2,1.000000,25.786610,10.270675,99,99,0,0,0,0,0
11,119999,7,110000,79,100000,41,9999,0.100000,99,1188,0.000000,3,4.000000,24.068193,14.697154,99,99,0,0,0,0,0
11,119999,8,110000,79,100000,0,9999,0.100000,99,1188,0.002607,2,0.000000,19.017300,0.181598,99,99,0,0,0,0,1
11,119999,9,110000,79,100000,42,9999,0.100000,99,1188,0.000000,4,7.000000,24.792909,15.410467,99,99,0,0,0,0,0
11,119999,10,110000,79,100000,40,9999,0.100000,99,1188,0.000000,1,1.000000,29.637103,13.220207,99,99,0,0,0,0,0
11,119999,11,110000,79,100000,40,9999,0.100000,99,1188,0.000000,2,0.000000,25.328498,0.434716,99,99,0,0,0,0,0
11,119999,12,110000,79,100000,41,9999,0.100000,99,1188,0.000000,3,3.000000,25.695757,20.873249,99,99,0,0,0,0,0
11,119999,13,110000,79,100000,40,9999,0.100000,99,1188,0.000000,3,1.000000,22.754701,9.684659,99,99,0,0,0,0,0
11,119999,14,110000,79,100000,90,9999,0.100000,99,1188,0.066209,1,0.000000,33.068111,0.533752,99,99,1,0,0,0,0
11,119999,15,110000,79,100000,40,9999,0.100000,99,1188,0.000000,2,0.000000,25.912893,13.491094,99,99,0,0,0,0,0
11,119999,16,110000,79,100000,0,9999,0.100000,99,1188,0.301905,4,0.000000,28.372707,0.879116,99,99,0,0,0,1,0
11,119999,17,110000,79,100000,40,9999,0.100000,99,1188,0.000000,4,0.000000,27.737795,12.061604,99,99,0,0,0,0,0
11,119999,18,110000,79,100000,40,9999,0.100000,99,1188,0.000000,2,0.000000,29.372300,0.156641,99,99,0,0,0,0,0
11,119999,19,110000,79,100000,40,9999,0.100000,99,1188,0.000000,3,0.000000,30.059459,1.564272,99,99,0,0,0,0,0
11,119999,20,110000,79,100000,40,9999,0.100000,99,1188,0.000000,4,0.000000,28.619890,1.255059,99,99,0,0,0,0,0
11,119999,21,110000,79,100000,40,9999,0.100000,99,1188,0.000000,3,1.000000,28.829812,1.178089,99,99,0,0,0,0,0
11,119999,22,110000,79,100000,40,9999,0.100000,99,1188,0.000000,5,1.000000,25.313842,12.866571,99,99,0,0,0,0,0
11,119999,23,110000,79,100000,40,9999,0.100000,99,1188,0.000000,2,0.000000,24.314969,2.158859,99,99,0,0,0,0,0
11,119999,24,110000,79,100000,40,9999,0.100000,99,1188,0.000000,2,0.000000,22.857566,2.141304,99,99,0,0,0,0,0
11,119999,25,110000,79,100000,0,9999,0.100000,99,1188,0.302207,1,0.000000,21.682550,0.302454,99,99,0,0,0,1,0
11,119999,26,110000,79,100000,40,9999,0.100000,99,1188,0.000000,2,1.000000,25.541317,8.250466,99,99,0,0,0,0,0
11,119999,27,110000,79,100000,41,9999,0.100000,99,1188,0.000000,3,3.000000,24.292176,7.496402,99,99,0,0,0,0,0
11,119999,28,110000,79,100000,40,9999,0.100000,99,1188,0.000000,2,0.000000,31.164123,1.539652,99,99,0,0,0,0,0
11,119999,29,110000,79,100000,40,9999,0.065000,99,1188,0.000000,2,0.000000,14.455789,0.232117,99,99,0,0,0,0,0
11,119999,30,110000,79,100000,41,9999,0.100000,99,1188,0.000000,2,4.000000,25.931975,17.603155,99,99,0,0,0,0,0
11,119999,31,110000,79,100000,0,9999,0.100000,99,1188,0.568157,2,0.000000,20.479186,0.258880,99,99,0,0,0,0,1
11,119999,32,110000,79,100000,0,9999,0.100000,99,1188,0.123031,3,0.000000,28.834477,0.155086,99,99,0,0,0,0,1
11,119999,33,110000,79,100000,40,9999,0.100000,99,1188,0.000000,4,2.000000,31.189975,14.115324,99,99,0,0,0,0,0
11,119999,34,110000,79,100000,40,9999,0.100000,99,1188,0.000000,4,0.000000,16.217104,0.237862,99,99,0,0,0,0,0
11,119999,35,110000,79,100000,40,9999,0.100000,99,1188,0.000000,4,0.000000,29.106581,12.562233,99,99,0,0,0,0,0
11,119999,36,110000,79,100000,40,9999,0.100000,99,1188,0.000000,2,0.000000,19.873444,1.512943,99,99,0,0,0,0,0
11,119999,37,110000,79,100000,40,9999,0.100000,99,1188,0.000000,3,0.000000,25.913457,12.035056,99,99,0,0,0,0,0
11,119999,38,110000,79,100000,40,9999,0.100000,99,1188,0.000000,2,0.000000,24.050996,0.237974,99,99,0,0,0,0,0
11,119999,39,110000,79,100000,40,9999,0.100000,99,1188,0.000000,2,0.000000,22.945538,8.517640,99,99,0,0,0,0,0
11,119999,40,110000,79,100000,40,9999,0.100000,99,1188,0.000000,2,0.000000,21.009623,0.562281,99,99,0,0,0,0,0
11,119999,41,110000,79,100000,40,9999,0.100000,99,1188,0.000000,2,0.000000,25.571038,9.048414,99,99,0,0,0,0,0
11,119999,42,110000,79,100000,40,9999,0.135000,99,1188,0.000000,2,0.000000,29.296549,0.157846,99,99,0,0,0,0,0
11,119999,43,110000,79,100000,0,9999,0.100000,99,1188,0.010830,2,0.000000,33.883752,0.146546,99,99,0,0,1,0,0
11,119999,44,110000,79,100000,40,9999,0.100000,99,1188,0.000000,2,0.000000,18.925582,0.064379,99,99,0,0,0,0,0
11,119999,45,110000,79,100000,40,9999,0.100000,99,1188,0.000000,4,0.000000,11.666665,0.178293,99,99,0,0,0,0,0
