generation,iteration,robot,birthday,ancestor_id,ancestor_birthday,cell_id,age,sigma,maps,genomes,fitness,cells_in_map,dist_max,dist_pot_max,dist_total,com_rx,com_tx,obj_group1,obj_group2,obj_group3,obj_group4,obj_group5
0,9999,0,0,0,0,1,9999,0.100000,0,0,0.000000,0,7.000000,0.000000,20.860976,0,0,0,0,0,0,0
0,9999,1,0,1,0,1,9999,0.100000,0,0,0.000000,0,6.000000,0.000000,18.591695,0,0,0,0,0,0,0
0,9999,2,0,2,0,1,9999,0.100000,0,0,0.000000,0,10.000000,0.000000,15.500189,0,0,0,0,0,0,0
0,9999,3,0,3,0,1,9999,0.100000,0,0,0.000000,0,6.000000,0.000000,13.768581,0,0,0,0,0,0,0
0,9999,4,0,4,0,3,9999,0.100000,0,0,81.865595,0,9.000000,0.000000,30.085318,0,0,1,0,0,0,0
0,9999,5,0,5,0,1,9999,0.100000,0,0,0.000000,0,6.000000,0.000000,8.687635,0,0,0,0,0,0,0
0,9999,6,0,6,0,1,9999,0.100000,0,0,0.000000,0,10.000000,0.000000,23.931114,0,0,0,0,0,0,0
0,9999,7,0,7,0,1,9999,0.100000,0,0,0.000000,0,6.000000,0.000000,6.740698,0,0,0,0,0,0,0
0,9999,8,0,8,0,1,9999,0.100000,0,0,0.000000,0,6.000000,0.000000,13.495170,0,0,0,0,0,0,0
0,9999,9,0,9,0,1,9999,0.100000,0,0,0.000000,0,7.000000,0.000000,8.776486,0,0,0,0,0,0,0
0,9999,10,0,10,0,1,9999,0.100000,0,0,0.000000,0,3.000000,0.000000,11.599567,0,0,0,0,0,0,0
0,9999,11,0,11,0,1,9999,0.100000,0,0,0.000000,0,10.000000,0.000000,15.026423,0,0,0,0,0,0,0
0,9999,12,0,12,0,1,9999,0.100000,0,0,0.000000,0,9.000000,0.000000,23.211211,0,0,0,0,0,0,0
0,9999,13,0,13,0,1,9999,0.100000,0,0,0.000000,0,8.000000,0.000000,12.528680,0,0,0,0,0,0,0
0,9999,14,0,14,0,1,9999,0.100000,0,0,0.000000,0,5.000000,0.000000,14.860731,0,0,0,0,0,0,0
0,9999,15,0,15,0,1,9999,0.100000,0,0,0.000000,0,10.000000,0.000000,11.307189,0,0,0,0,0,0,0
0,9999,16,0,16,0,1,9999,0.100000,0,0,0.000000,0,5.000000,0.000000,13.532664,0,0,0,0,0,0,0
0,9999,17,0,17,0,1,9999,0.100000,0,0,0.000000,0,10.000000,0.000000,17.156550,0,0,0,0,0,0,0
0,9999,18,0,18,0,1,9999,0.100000,0,0,0.000000,0,4.000000,0.000000,11.992114,0,0,0,0,0,0,0
0,9999,19,0,19,0,1,9999,0.100000,0,0,0.000000,0,11.000000,0.000000,14.608180,0,0,0,0,0,0,0
0,9999,20,0,20,0,1,9999,0.100000,0,0,0.000000,0,8.000000,0.000000,11.547978,0,0,0,0,0,0,0
0,9999,21,0,21,0,1,9999,0.100000,0,0,0.000000,0,8.000000,0.000000,14.416354,0,0,0,0,0,0,0
0,9999,22,0,22,0,1,9999,0.100000,0,0,0.000000,0,2.000000,0.000000,10.656197,0,0,0,0,0,0,0
0,9999,23,0,23,0,1,9999,0.100000,0,0,0.000000,0,9.000000,0.000000,11.247177,0,0,0,0,0,0,0
0,9999,24,0,24,0,1,9999,0.100000,0,0,0.000000,0,7.000000,0.000000,15.719387,0,0,0,0,0,0,0
0,9999,25,0,25,0,1,9999,0.100000,0,0,0.000000,0,6.000000,0.000000,17.251342,0,0,0,0,0,0,0
0,9999,26,0,26,0,1,9999,0.100000,0,0,0.000000,0,5.000000,0.000000,17.103327,0,0,0,0,0,0,0
0,9999,27,0,27,0,1,9999,0.100000,0,0,0.000000,0,10.000000,0.000000,22.929594,0,0,0,0,0,0,0
0,9999,28,0,28,0,1,9999,0.100000,0,0,0.000000,0,2.000000,0.000000,8.880023,0,0,0,0,0,0,0
0,9999,29,0,29,0,1,9999,0.100000,0,0,0.000000,0,11.000000,0.000000,17.966871,0,0,0,0,0,0,0
0,9999,30,0,30,0,1,9999,0.100000,0,0,0.000000,0,11.000000,0.000000,28.528668,0,0,0,0,0,0,0
0,9999,31,0,31,0,1,9999,0.100000,0,0,0.000000,0,2.000000,0.000000,4.125843,0,0,0,0,0,0,0
0,9999,32,0,32,0,1,9999,0.100000,0,0,0.000000,0,10.000000,0.000000,10.853090,0,0,0,0,0,0,0
0,9999,33,0,33,0,1,9999,0.100000,0,0,0.000000,0,13.000000,0.000000,20.043409,0,0,0,0,0,0,0
0,9999,34,0,34,0,1,9999,0.100000,0,0,0.000000,0,3.000000,0.000000,10.794524,0,0,0,0,0,0,0
0,9999,35,0,35,0,1,9999,0.100000,0,0,0.000000,0,8.000000,0.000000,10.891054,0,0,0,0,0,0,0
0,9999,36,0,36,0,1,9999,0.100000,0,0,0.000000,0,4.000000,0.000000,9.810044,0,0,0,0,0,0,0
0,9999,37,0,37,0,1,9999,0.100000,0,0,0.000000,0,2.000000,0.000000,8.199866,0,0,0,0,0,0,0
0,9999,38,0,38,0,1,9999,0.100000,0,0,0.000000,0,6.000000,0.000000,10.761304,0,0,0,0,0,0,0
0,9999,39,0,39,0,1,9999,0.100000,0,0,0.000000,0,5.000000,0.000000,23.940109,0,0,0,0,0,0,0
0,9999,40,0,40,0,1,9999,0.100000,0,0,0.000000,0,11.000000,0.000000,17.553408,0,0,0,0,0,0,0
0,9999,41,0,41,0,1,9999,0.100000,0,0,0.000000,0,5.000000,0.000000,13.227373,0,0,0,0,0,0,0
0,9999,42,0,42,0,1,9999,0.100000,0,0,0.000000,0,10.000000,0.000000,22.949499,0,0,0,0,0,0,0
0,9999,43,0,43,0,1,9999,0.100000,0,0,0.000000,0,8.000000,0.000000,15.275188,0,0,0,0,0,0,0
0,9999,44,0,44,0,1,9999,0.100000,0,0,0.000000,0,9.000000,0.000000,20.996228,0,0,0,0,0,0,0
0,9999,45,0,45,0,1,9999,0.100000,0,0,0.000000,0,5.000000,0.000000,16.818556,0,0,0,0,0,0,0
0,9999,46,0,46,0,1,9999,0.100000,0,0,0.000000,0,9.000000,0.000000,10.806585,0,0,0,0,0,0,0
0,9999,47,0,47,0,1,9999,0.100000,0,0,0.000000,0,10.000000,0.000000,27.488391,0,0,0,0,0,0,0
0,9999,48,0,48,0,1,9999,0.100000,0,0,0.000000,0,11.000000,0.000000,16.381423,0,0,0,0,0,0,0
0,9999,49,0,49,0,1,9999,0.100000,0,0,0.000000,0,6.000000,0.000000,9.190268,0,0,0,0,0,0,0
0,9999,50,0,50,0,1,9999,0.100000,0,0,0.000000,0,5.000000,0.000000,7.022222,0,0,0,0,0,0,0
0,9999,51,0,51,0,1,9999,0.100000,0,0,0.000000,0,10.000000,0.000000,20.642118,0,0,0,0,0,0,0
0,9999,52,0,52,0,1,9999,0.100000,0,0,0.000000,0,9.000000,0.000000,31.419507,0,0,0,0,0,0,0
0,9999,53,0,53,0,1,9999,0.100000,0,0,0.000000,0,7.000000,0.000000,14.411240,0,0,0,0,0,0,0
0,9999,54,0,54,0,1,9999,0.100000,0,0,0.000000,0,8.000000,0.000000,16.472788,0,0,0,0,0,0,0
0,9999,55,0,55,0,1,9999,0.100000,0,0,0.000000,0,2.000000,0.000000,15.294664,0,0,0,0,0,0,0
0,9999,56,0,56,0,1,9999,0.100000,0,0,0.000000,0,9.000000,0.000000,13.630426,0,0,0,0,0,0,0
0,9999,57,0,57,0,1,9999,0.100000,0,0,0.000000,0,9.000000,0.000000,11.029016,0,0,0,0,0,0,0
0,9999,58,0,58,0,1,9999,0.100000,0,0,0.000000,0,4.000000,0.000000,16.087509,0,0,0,0,0,0,0
0,9999,59,0,59,0,1,9999,0.100000,0,0,0.000000,0,8.000000,0.000000,10.411272,0,0,0,0,0,0,0
0,9999,60,0,60,0,1,9999,0.100000,0,0,0.000000,0,8.000000,0.000000,14.195973,0,0,0,0,0,0,0
0,9999,61,0,61,0,1,9999,0.100000,0,0,0.000000,0,2.000000,0.000000,7.778048,0,0,0,0,0,0,0
0,9999,62,0,62,0,1,9999,0.100000,0,0,0.000000,0,8.000000,0.000000,15.892278,0,0,0,0,0,0,0
0,9999,63,0,63,0,1,9999,0.100000,0,0,0.000000,0,6.000000,0.000000,15.650806,0,0,0,0,0,0,0
0,9999,64,0,64,0,1,9999,0.100000,0,0,0.000000,0,5.000000,0.000000,11.113916,0,0,0,0,0,0,0
0,9999,65,0,65,0,1,9999,0.100000,0,0,0.000000,0,6.000000,0.000000,14.147509,0,0,0,0,0,0,0
0,9999,66,0,66,0,1,9999,0.100000,0,0,0.000000,0,8.000000,0.000000,10.774746,0,0,0,0,0,0,0
0,9999,67,0,67,0,1,9999,0.100000,0,0,0.000000,0,7.000000,0.000000,8.589091,0,0,0,0,0,0,0
0,9999,68,0,68,0,1,9999,0.100000,0,0,0.000000,0,10.000000,0.000000,18.220795,0,0,0,0,0,0,0
0,9999,69,0,69,0,1,9999,0.100000,0,0,47.368421,0,8.000000,0.000000,22.090369,0,0,0,1,0,0,0
0,9999,70,0,70,0,1,9999,0.100000,0,0,47.368421,0,11.000000,0.000000,22.447655,0,0,0,1,0,0,0
0,9999,71,0,71,0,1,9999,0.100000,0,0,0.000000,0,6.000000,0.000000,13.622321,0,0,0,0,0,0,0
0,9999,72,0,72,0,1,9999,0.100000,0,0,0.000000,0,10.000000,0.000000,18.259230,0,0,0,0,0,0,0
0,9999,73,0,73,0,1,9999,0.100000,0,0,0.000000,0,11.000000,0.000000,20.206977,0,0,0,0,0,0,0
0,9999,74,0,74,0,1,9999,0.100000,0,0,0.000000,0,13.000000,0.000000,26.597435,0,0,0,0,0,0,0
0,9999,75,0,75,0,1,9999,0.100000,0,0,0.000000,0,10.000000,0.000000,28.955145,0,0,0,0,0,0,0
0,9999,76,0,76,0,1,9999,0.100000,0,0,0.000000,0,6.000000,0.000000,15.827964,0,0,0,0,0,0,0
0,9999,77,0,77,0,1,9999,0.100000,0,0,0.000000,0,10.000000,0.000000,14.858037,0,0,0,0,0,0,0
0,9999,78,0,78,0,1,9999,0.100000,0,0,0.000000,0,6.000000,0.000000,13.380012,0,0,0,0,0,0,0
0,9999,79,0,79,0,1,9999,0.100000,0,0,0.000000,0,7.000000,0.000000,20.514309,0,0,0,0,0,0,0
0,9999,80,0,80,0,1,9999,0.100000,0,0,0.000000,0,9.000000,0.000000,18.597701,0,0,0,0,0,0,0
0,9999,81,0,81,0,1,9999,0.100000,0,0,47.368421,0,11.000000,0.000000,25.380646,0,0,0,1,0,0,0
0,9999,82,0,82,0,1,9999,0.100000,0,0,0.000000,0,8.000000,0.000000,19.473309,0,0,0,0,0,0,0
0,9999,83,0,83,0,1,9999,0.100000,0,0,0.000000,0,6.000000,0.000000,15.206736,0,0,0,0,0,0,0
0,9999,84,0,84,0,1,9999,0.100000,0,0,0.000000,0,5.000000,0.000000,11.122013,0,0,0,0,0,0,0
0,9999,85,0,85,0,1,9999,0.100000,0,0,47.368421,0,8.000000,0.000000,20.609540,0,0,0,1,0,0,0
0,9999,86,0,86,0,1,9999,0.100000,0,0,0.000000,0,5.000000,0.000000,21.505714,0,0,0,0,0,0,0
0,9999,87,0,87,0,1,9999,0.100000,0,0,0.000000,0,6.000000,0.000000,15.864137,0,0,0,0,0,0,0
0,9999,88,0,88,0,1,9999,0.100000,0,0,0.000000,0,11.000000,0.000000,22.928847,0,0,0,0,0,0,0
0,9999,89,0,89,0,1,9999,0.100000,0,0,0.000000,0,9.000000,0.000000,17.795926,0,0,0,0,0,0,0
0,9999,90,0,90,0,1,9999,0.100000,0,0,0.000000,0,5.000000,0.000000,23.178132,0,0,0,0,0,0,0
0,9999,91,0,91,0,1,9999,0.100000,0,0,0.000000,0,5.000000,0.000000,5.865957,0,0,0,0,0,0,0
0,9999,92,0,92,0,1,9999,0.100000,0,0,0.000000,0,10.000000,0.000000,18.730627,0,0,0,0,0,0,0
0,9999,93,0,93,0,1,9999,0.100000,0,0,0.000000,0,7.000000,0.000000,9.551255,0,0,0,0,0,0,0
0,9999,94,0,94,0,1,9999,0.100000,0,0,0.000000,0,5.000000,0.000000,12.922463,0,0,0,0,0,0,0
0,9999,95,0,95,0,1,9999,0.100000,0,0,0.000000,0,4.000000,0.000000,11.110884,0,0,0,0,0,0,0
0,9999,96,0,96,0,1,9999,0.100000,0,0,0.000000,0,6.000000,0.000000,13.513207,0,0,0,0,0,0,0
0,9999,97,0,97,0,1,9999,0.100000,0,0,0.000000,0,12.000000,0.000000,35.486811,0,0,0,0,0,0,0
0,9999,98,0,98,0,1,9999,0.100000,0,0,0.000000,0,7.000000,0.000000,16.009255,0,0,0,0,0,0,0
0,9999,99,0,99,0,1,9999,0.100000,0,0,0.000000,0,10.000000,0.000000,18.604721,0,0,0,0,0,0,0
1,19999,0,10000,0,0,1,9999,0.100000,0,0,0.000000,1,1.000000,0.000000,10.522157,0,0,0,0,0,0,0
1,19999,1,10000,1,0,1,9999,0.100000,0,0,0.000000,1,3.000000,0.000000,9.447871,0,0,0,0,0,0,0
1,19999,2,10000,0,0,0,9999,0.100000,0,0,0.000000,1,0.000000,0.000000,3.319377,0,0,0,0,0,0,0
1,19999,3,10000,15,0,1,9999,0.100000,0,0,34.210526,2,5.000000,0.000000,14.072543,0,0,0,1,0,0,0
1,19999,4,10000,4,0,1,9999,0.100000,0,0,0.000000,2,4.000000,0.000000,11.577065,0,0,0,0,0,0,0
1,19999,5,10000,15,0,1,9999,0.100000,0,0,0.000000,2,2.000000,0.000000,7.523388,0,0,0,0,0,0,0
1,19999,6,10000,0,0,1,9999,0.100000,0,0,0.000000,1,1.000000,0.000000,11.882564,0,0,0,0,0,0,0
1,19999,7,10000,4,0,1,9999,0.100000,0,0,0.000000,2,1.000000,0.000000,1.712142,0,0,0,0,0,0,0
1,19999,8,10000,15,0,0,9999,0.100000,0,0,0.000000,2,0.000000,0.000000,1.351882,0,0,0,0,0,0,0
1,19999,9,10000,15,0,0,9999,0.100000,0,0,0.000000,2,0.000000,0.000000,0.077382,0,0,0,0,0,0,0
1,19999,10,10000,35,0,1,9999,0.100000,0,0,0.000000,1,4.000000,0.000000,17.797668,0,0,0,0,0,0,0
1,19999,11,10000,15,0,0,9999,0.100000,0,0,0.000000,2,0.000000,0.000000,0.878321,0,0,0,0,0,0,0
1,19999,12,10000,15,0,0,9999,0.100000,0,0,0.000000,2,0.000000,0.000000,0.800643,0,0,0,0,0,0,0
1,19999,13,10000,15,0,0,9999,0.100000,0,0,0.000000,2,0.000000,0.000000,0.778831,0,0,0,0,0,0,0
1,19999,14,10000,15,0,3,9999,0.100000,0,0,69.072977,2,8.000000,0.000000,18.100857,0,0,1,0,0,0,0
1,19999,15,10000,15,0,0,9999,0.100000,0,0,0.000000,2,0.000000,0.000000,0.162079,0,0,0,0,0,0,0
1,19999,16,10000,4,0,0,9999,0.100000,0,0,0.000000,2,0.000000,0.000000,6.107812,0,0,0,0,0,0,0
1,19999,17,10000,35,0,1,9999,0.100000,0,0,0.000000,1,1.000000,0.000000,9.749794,0,0,0,0,0,0,0
1,19999,18,10000,35,0,1,9999,0.100000,0,0,0.000000,1,3.000000,0.000000,13.950737,0,0,0,0,0,0,0
1,19999,19,10000,4,0,1,9999,0.100000,0,0,0.000000,2,1.000000,0.000000,7.690867,0,0,0,0,0,0,0
1,19999,20,10000,35,0,1,9999,0.100000,0,0,0.000000,1,1.000000,0.000000,1.783155,0,0,0,0,0,0,0
1,19999,21,10000,15,0,0,9999,0.100000,0,0,0.000000,2,0.000000,0.000000,1.206275,0,0,0,0,0,0,0
1,19999,22,10000,15,0,1,9999,0.100000,0,0,0.000000,2,1.000000,0.000000,7.088086,0,0,0,0,0,0,0
1,19999,23,10000,4,0,0,9999,0.100000,0,0,0.000000,2,0.000000,0.000000,0.506976,0,0,0,0,0,0,0
1,19999,24,10000,35,0,1,9999,0.100000,0,0,0.000000,1,3.000000,0.000000,12.059082,0,0,0,0,0,0,0
1,19999,25,10000,4,0,1,9999,0.100000,0,0,0.000000,2,1.000000,0.000000,17.725047,0,0,0,0,0,0,0
1,19999,26,10000,35,0,1,9999,0.100000,0,0,0.000000,1,1.000000,0.000000,11.393514,0,0,0,0,0,0,0
1,19999,27,10000,35,0,0,9999,0.100000,0,0,0.000000,1,0.000000,0.000000,0.616914,0,0,0,0,0,0,0
1,19999,28,10000,4,0,0,9999,0.100000,0,0,0.000000,2,0.000000,0.000000,11.609372,0,0,0,0,0,0,0
1,19999,29,10000,4,0,0,9999,0.100000,0,0,0.000000,2,0.000000,0.000000,0.178687,0,0,0,0,0,0,0
1,19999,30,10000,4,0,1,9999,0.100000,0,0,0.000000,2,5.000000,0.000000,14.759708,0,0,0,0,0,0,0
1,19999,31,10000,4,0,0,9999,0.100000,0,0,0.000000,2,0.000000,0.000000,4.808960,0,0,0,0,0,0,0
1,19999,32,10000,15,0,0,9999,0.100000,0,0,0.000000,2,0.000000,0.000000,0.203033,0,0,0,0,0,0,0
1,19999,33,10000,15,0,0,9999,0.100000,0,0,0.000000,2,0.000000,0.000000,1.036278,0,0,0,0,0,0,0
1,19999,34,10000,15,0,1,9999,0.100000,0,0,0.000000,2,1.000000,0.000000,6.943149,0,0,0,0,0,0,0
1,19999,35,10000,35,0,0,9999,0.065000,0,0,0.000000,1,0.000000,0.000000,0.666584,0,0,0,0,0,0,0
1,19999,36,10000,4,0,1,9999,0.100000,0,0,0.000000,2,2.000000,0.000000,11.155262,0,0,0,0,0,0,0
1,19999,37,10000,4,0,3,9999,0.100000,0,0,50.928677,2,9.000000,0.000000,18.300386,0,0,2,0,0,0,0
1,19999,38,10000,4,0,0,9999,0.100000,0,0,0.000000,2,0.000000,0.000000,1.149960,0,0,0,0,0,0,0
1,19999,39,10000,35,0,1,9999,0.100000,0,0,0.000000,1,1.000000,0.000000,2.132795,0,0,0,0,0,0,0
1,19999,40,10000,15,0,0,9999,0.100000,0,0,0.000000,2,0.000000,0.000000,2.416363,0,0,0,0,0,0,0
1,19999,41,10000,35,0,1,9999,0.100000,0,0,0.000000,1,1.000000,0.000000,4.155725,0,0,0,0,0,0,0
1,19999,42,10000,4,0,0,9999,0.100000,0,0,0.000000,2,0.000000,0.000000,7.690322,0,0,0,0,0,0,0
1,19999,43,10000,4,0,1,9999,0.100000,0,0,0.000000,2,3.000000,0.000000,10.518714,0,0,0,0,0,0,0
1,19999,44,10000,4,0,1,9999,0.100000,0,0,0.000000,2,3.000000,0.000000,12.104622,0,0,0,0,0,0,0
1,19999,45,10000,35,0,1,9999,0.100000,0,0,0.000000,1,1.000000,0.000000,1.936386,0,0,0,0,0,0,0
1,19999,46,10000,15,0,0,9999,0.100000,0,0,0.000000,2,0.000000,0.000000,0.244251,0,0,0,0,0,0,0
1,19999,47,10000,4,0,1,9999,0.100000,0,0,0.000000,2,2.000000,0.000000,5.643334,0,0,0,0,0,0,0
1,19999,48,10000,4,0,0,9999,0.100000,0,0,0.000000,2,0.000000,0.000000,0.807300,0,0,0,0,0,0,0
1,19999,49,10000,35,0,0,9999,0.100000,0,0,0.000000,1,0.000000,0.000000,1.600750,0,0,0,0,0,0,0
1,19999,50,10000,4,0,0,9999,0.100000,0,0,0.000000,2,0.000000,0.000000,0.517112,0,0,0,0,0,0,0
1,19999,51,10000,15,0,1,9999,0.100000,0,0,0.000000,2,1.000000,0.000000,3.449323,0,0,0,0,0,0,0
1,19999,52,10000,15,0,1,9999,0.100000,0,0,0.000000,2,4.000000,0.000000,16.739100,0,0,0,0,0,0,0
1,19999,53,10000,4,0,1,9999,0.100000,0,0,0.000000,2,5.000000,0.000000,10.136535,0,0,0,0,0,0,0
1,19999,54,10000,4,0,1,9999,0.100000,0,0,0.000000,2,3.000000,0.000000,6.765422,0,0,0,0,0,0,0
1,19999,55,10000,35,0,1,9999,0.100000,0,0,0.000000,1,2.000000,0.000000,13.349863,0,0,0,0,0,0,0
1,19999,56,10000,35,0,1,9999,0.100000,0,0,0.000000,2,2.000000,0.000000,14.033281,0,0,0,0,0,0,0
1,19999,57,10000,35,0,1,9999,0.100000,0,0,0.000000,1,2.000000,0.000000,12.221034,0,0,0,0,0,0,0
1,19999,58,10000,15,0,1,9999,0.100000,0,0,0.000000,2,1.000000,0.000000,5.228446,0,0,0,0,0,0,0
1,19999,59,10000,15,0,0,9999,0.100000,0,0,0.000000,2,0.000000,0.000000,0.120636,0,0,0,0,0,0,0
1,19999,60,10000,4,0,1,9999,0.100000,0,0,0.000000,2,3.000000,0.000000,7.304693,0,0,0,0,0,0,0
1,19999,61,10000,4,0,0,9999,0.100000,0,0,0.000000,2,0.000000,0.000000,1.156587,0,0,0,0,0,0,0
1,19999,62,10000,35,0,1,9999,0.100000,0,0,0.000000,1,1.000000,0.000000,6.408864,0,0,0,0,0,0,0
1,19999,63,10000,4,0,1,9999,0.100000,0,0,0.000000,2,1.000000,0.000000,5.996307,0,0,0,0,0,0,0
1,19999,64,10000,4,0,1,9999,0.100000,0,0,0.000000,2,4.000000,0.000000,15.858385,0,0,0,0,0,0,0
1,19999,65,10000,15,0,1,9999,0.100000,0,0,0.000000,2,3.000000,0.000000,12.496223,0,0,0,0,0,0,0
1,19999,66,10000,15,0,0,9999,0.100000,0,0,0.000000,2,0.000000,0.000000,0.781242,0,0,0,0,0,0,0
1,19999,67,10000,15,0,0,9999,0.100000,0,0,0.000000,2,0.000000,0.000000,0.068056,0,0,0,0,0,0,0
1,19999,68,10000,15,0,0,9999,0.100000,0,0,0.000000,2,0.000000,0.000000,0.373084,0,0,0,0,0,0,0
1,19999,69,10000,15,0,0,9999,0.100000,0,0,0.000000,2,0.000000,0.000000,1.392902,0,0,0,0,0,0,0
1,19999,70,10000,4,0,1,9999,0.100000,0,0,0.000000,2,1.000000,0.000000,5.185747,0,0,0,0,0,0,0
1,19999,71,10000,35,0,1,9999,0.100000,0,0,0.000000,1,1.000000,0.000000,4.376864,0,0,0,0,0,0,0
1,19999,72,10000,15,0,0,9999,0.100000,0,0,0.000000,2,0.000000,0.000000,1.240367,0,0,0,0,0,0,0
1,19999,73,10000,35,0,0,9999,0.100000,0,0,0.000000,1,0.000000,0.000000,10.820283,0,0,0,0,0,0,0
1,19999,74,10000,15,0,0,9999,0.100000,0,0,0.000000,2,0.000000,0.000000,2.314049,0,0,0,0,0,0,0
1,19999,75,10000,15,0,1,9999,0.100000,0,0,0.000000,2,1.000000,0.000000,10.812342,0,0,0,0,0,0,0
1,19999,76,10000,15,0,1,9999,0.100000,0,0,0.000000,2,4.000000,0.000000,8.826557,0,0,0,0,0,0,0
1,19999,77,10000,4,0,0,9999,0.100000,0,0,0.000000,2,0.000000,0.000000,0.505162,0,0,0,0,0,0,0
1,19999,78,10000,35,0,1,9999,0.100000,0,0,0.000000,1,1.000000,0.000000,13.174354,0,0,0,0,0,0,0
1,19999,79,10000,4,0,1,9999,0.100000,0,0,0.000000,2,1.000000,0.000000,5.661237,0,0,0,0,0,0,0
1,19999,80,10000,4,0,1,9999,0.100000,0,0,0.000000,2,2.000000,0.000000,5.016435,0,0,0,0,0,0,0
1,19999,81,10000,4,0,1,9999,0.100000,0,0,0.000000,2,1.000000,0.000000,7.047616,0,0,0,0,0,0,0
1,19999,82,10000,15,0,0,9999,0.100000,0,0,0.000000,2,0.000000,0.000000,2.246705,0,0,0,0,0,0,0
1,19999,83,10000,4,0,1,9999,0.100000,0,0,0.000000,2,2.000000,0.000000,9.104901,0,0,0,0,0,0,0
1,19999,84,10000,4,0,1,9999,0.100000,0,0,0.000000,2,1.000000,0.000000,1.337336,0,0,0,0,0,0,0
1,19999,85,10000,15,0,3,9999,0.100000,0,0,7.470376,2,1.000000,0.000000,15.796401,0,0,2,0,0,0,0
1,19999,86,10000,4,0,3,9999,0.100000,0,0,34.210526,2,3.000000,0.000000,9.104751,0,0,1,0,0,0,0
1,19999,87,10000,15,0,1,9999,0.100000,0,0,0.000000,2,1.000000,0.000000,7.937519,0,0,0,0,0,0,0
1,19999,88,10000,15,0,1,9999,0.100000,0,0,0.000000,2,1.000000,0.000000,12.315570,0,0,0,0,0,0,0
1,19999,89,10000,35,0,1,9999,0.100000,0,0,0.000000,1,1.000000,0.000000,15.652181,0,0,0,0,0,0,0
1,19999,90,10000,4,0,1,9999,0.100000,0,0,0.000000,2,1.000000,0.000000,1.989005,0,0,0,0,0,0,0
1,19999,91,10000,4,0,1,9999,0.100000,0,0,0.000000,2,2.000000,0.000000,2.450898,0,0,0,0,0,0,0
1,19999,92,10000,4,0,0,9999,0.100000,0,0,0.000000,2,0.000000,0.000000,1.167769,0,0,0,0,0,0,0
1,19999,93,10000,4,0,0,9999,0.100000,0,0,0.000000,2,0.000000,0.000000,0.395953,0,0,0,0,0,0,0
1,19999,94,10000,35,0,1,9999,0.100000,0,0,0.000000,2,10.000000,0.000000,17.756189,0,0,0,0,0,0,0
1,19999,95,10000,4,0,1,9999,0.100000,0,0,0.000000,2,2.000000,0.000000,10.444039,0,0,0,0,0,0,0
1,19999,96,10000,4,0,1,9999,0.100000,0,0,34.210526,2,4.000000,0.000000,8.181051,0,0,0,1,0,0,0
1,19999,97,10000,4,0,1,9999,0.100000,0,0,0.000000,2,1.000000,0.000000,4.585027,0,0,0,0,0,0,0
1,19999,98,10000,4,0,0,9999,0.100000,0,0,0.000000,2,0.000000,0.000000,0.502627,0,0,0,0,0,0,0
1,19999,99,10000,15,0,1,9999,0.100000,0,0,0.000000,2,3.000000,0.000000,7.785196,0,0,0,0,0,0,0
2,29999,0,20000,15,0,1,9999,0.100000,0,0,0.000000,2,3.000000,0.000000,10.098902,0,0,0,0,0,0,0
2,29999,1,20000,47,10000,0,9999,0.100000,0,0,0.000000,3,0.000000,0.000000,4.985201,0,0,0,0,0,0,0
2,29999,2,20000,47,10000,1,9999,0.100000,0,0,0.000000,3,1.000000,0.000000,5.907671,0,0,0,0,0,0,0
2,29999,3,20000,15,0,1,9999,0.100000,0,0,0.000000,3,1.000000,0.000000,14.070694,0,0,0,0,0,0,0
2,29999,4,20000,15,0,1,9999,0.100000,0,0,0.000000,3,4.000000,0.000000,8.192409,0,0,0,0,0,0,0
2,29999,5,20000,15,0,1,9999,0.100000,0,0,0.000000,3,2.000000,0.000000,11.672187,0,0,0,0,0,0,0
2,29999,6,20000,4,0,0,9999,0.100000,0,0,0.000000,2,0.000000,0.000000,5.654330,0,0,0,0,0,0,0
2,29999,7,20000,4,0,1,9999,0.100000,0,0,0.000000,2,2.000000,0.000000,8.154573,0,0,0,0,0,0,0
2,29999,8,20000,11,10000,1,9999,0.100000,0,0,0.000000,3,2.000000,0.000000,4.626422,0,0,0,0,0,0,0
2,29999,9,20000,47,10000,0,9999,0.100000,0,0,0.000000,3,0.000000,0.000000,0.077542,0,0,0,0,0,0,0
2,29999,10,20000,4,0,1,9999,0.100000,0,0,0.000000,2,1.000000,0.000000,4.680005,0,0,0,0,0,0,0
2,29999,11,20000,15,0,0,9999,0.100000,0,0,0.000000,3,0.000000,0.000000,0.903848,0,0,0,0,0,0,0
2,29999,12,20000,47,10000,0,9999,0.100000,0,0,0.000000,3,0.000000,0.000000,1.218405,0,0,0,0,0,0,0
2,29999,13,20000,15,10000,1,9999,0.100000,0,0,0.000000,3,4.000000,0.000000,9.249494,0,0,0,0,0,0,0
2,29999,14,20000,15,10000,1,9999,0.100000,0,0,0.000000,3,4.000000,0.000000,20.066360,0,0,0,0,0,0,0
2,29999,15,20000,4,0,0,9999,0.100000,0,0,0.000000,3,0.000000,0.000000,0.160809,0,0,0,0,0,0,0
2,29999,16,20000,11,10000,1,9999,0.100000,0,0,0.000000,3,1.000000,0.000000,5.165236,0,0,0,0,0,0,0
2,29999,17,20000,15,10000,1,9999,0.100000,0,0,0.000000,3,1.000000,0.000000,4.198604,0,0,0,0,0,0,0
2,29999,18,20000,15,10000,0,9999,0.100000,0,0,0.000000,3,0.000000,0.000000,4.644475,0,0,0,0,0,0,0
2,29999,19,20000,4,0,1,9999,0.100000,0,0,0.000000,3,1.000000,0.000000,6.090917,0,0,0,0,0,0,0
2,29999,20,20000,15,10000,0,9999,0.100000,0,0,0.000000,3,0.000000,0.000000,13.700913,0,0,0,0,0,0,0
2,29999,21,20000,4,0,0,9999,0.100000,0,0,0.000000,3,0.000000,0.000000,1.236899,0,0,0,0,0,0,0
2,29999,22,20000,15,0,1,9999,0.100000,0,0,0.000000,3,1.000000,0.000000,8.690048,0,0,0,0,0,0,0
2,29999,23,20000,4,0,0,9999,0.100000,0,0,0.000000,3,0.000000,0.000000,0.504440,0,0,0,0,0,0,0
2,29999,24,20000,48,10000,1,9999,0.100000,0,0,0.000000,3,3.000000,0.000000,7.389292,0,0,0,0,0,0,0
2,29999,25,20000,47,10000,1,9999,0.100000,0,0,0.000000,3,1.000000,0.000000,16.224174,0,0,0,0,0,0,0
2,29999,26,20000,4,0,1,9999,0.100000,0,0,0.000000,3,1.000000,0.000000,7.951573,0,0,0,0,0,0,0
2,29999,27,20000,4,0,0,9999,0.100000,0,0,0.000000,3,0.000000,0.000000,0.266147,0,0,0,0,0,0,0
2,29999,28,20000,15,0,1,9999,0.100000,0,0,0.000000,3,1.000000,0.000000,23.553003,0,0,0,0,0,0,0
2,29999,29,20000,11,10000,0,9999,0.100000,0,0,0.000000,3,0.000000,0.000000,0.185799,0,0,0,0,0,0,0
2,29999,30,20000,15,0,0,9999,0.100000,0,0,0.000000,3,0.000000,0.000000,0.569444,0,0,0,0,0,0,0
2,29999,31,20000,47,10000,1,9999,0.100000,0,0,0.000000,3,1.000000,0.000000,9.910889,0,0,0,0,0,0,0
2,29999,32,20000,4,0,0,9999,0.100000,0,0,0.000000,3,0.000000,0.000000,0.214154,0,0,0,0,0,0,0
2,29999,33,20000,48,10000,0,9999,0.100000,0,0,0.000000,3,0.000000,0.000000,0.979800,0,0,0,0,0,0,0
2,29999,34,20000,4,0,1,9999,0.100000,0,0,0.000000,3,1.000000,0.000000,10.265014,0,0,0,0,0,0,0
2,29999,35,20000,15,0,0,9999,0.100000,0,0,0.000000,3,0.000000,0.000000,0.769578,0,0,0,0,0,0,0
2,29999,36,20000,15,0,0,9999,0.100000,0,0,0.000000,3,0.000000,0.000000,10.944116,0,0,0,0,0,0,0
2,29999,37,20000,4,0,0,9999,0.100000,0,0,0.000000,3,0.000000,0.000000,4.209705,0,0,0,0,0,0,0
2,29999,38,20000,15,0,1,9999,0.100000,0,0,0.000000,3,2.000000,0.000000,4.077406,0,0,0,0,0,0,0
2,29999,39,20000,48,10000,0,9999,0.100000,0,0,0.000000,3,0.000000,0.000000,15.191574,0,0,0,0,0,0,0
2,29999,40,20000,11,10000,0,9999,0.100000,0,0,0.000000,3,0.000000,0.000000,3.159545,0,0,0,0,0,0,0
2,29999,41,20000,4,0,0,9999,0.100000,0,0,0.000000,3,0.000000,0.000000,0.828230,0,0,0,0,0,0,0
2,29999,42,20000,4,0,0,9999,0.100000,0,0,0.000000,3,0.000000,0.000000,8.551516,0,0,0,0,0,0,0
2,29999,43,20000,47,10000,1,9999,0.100000,0,0,0.000000,3,2.000000,0.000000,8.663187,0,0,0,0,0,0,0
2,29999,44,20000,15,0,1,9999,0.100000,0,0,0.000000,3,1.000000,0.000000,6.680626,0,0,0,0,0,0,0
2,29999,45,20000,4,0,0,9999,0.100000,0,0,0.000000,3,0.000000,0.000000,1.450699,0,0,0,0,0,0,0
2,29999,46,20000,47,10000,0,9999,0.100000,0,0,0.000000,3,0.000000,0.000000,0.049077,0,0,0,0,0,0,0
2,29999,47,20000,47,10000,0,9999,0.100000,0,0,0.000000,3,0.000000,0.000000,0.191855,0,0,0,0,0,0,0
2,29999,48,20000,4,0,1,9999,0.100000,0,0,0.000000,3,1.000000,0.000000,6.360296,0,0,0,0,0,0,0
2,29999,49,20000,47,10000,0,9999,0.100000,0,0,0.000000,3,0.000000,0.000000,1.009077,0,0,0,0,0,0,0
2,29999,50,20000,4,0,0,9999,0.100000,0,0,0.000000,3,0.000000,0.000000,0.387801,0,0,0,0,0,0,0
2,29999,51,20000,4,0,0,9999,0.100000,0,0,0.000000,3,0.000000,0.000000,2.022704,0,0,0,0,0,0,0
2,29999,52,20000,4,0,1,9999,0.100000,0,0,0.000000,3,3.000000,0.000000,8.333100,0,0,0,0,0,0,0
2,29999,53,20000,15,0,1,9999,0.100000,0,0,0.000000,3,4.000000,0.000000,12.121620,0,0,0,0,0,0,0
2,29999,54,20000,47,10000,1,9999,0.100000,0,0,0.000000,3,2.000000,0.000000,5.988127,0,0,0,0,0,0,0
2,29999,55,20000,47,10000,1,9999,0.100000,0,0,0.000000,3,3.000000,0.000000,17.538780,0,0,0,0,0,0,0
2,29999,56,20000,15,10000,1,9999,0.100000,0,0,0.000000,3,3.000000,0.000000,11.951652,0,0,0,0,0,0,0
2,29999,57,20000,15,10000,1,9999,0.100000,0,0,0.000000,3,4.000000,0.000000,8.657285,0,0,0,0,0,0,0
2,29999,58,20000,4,0,3,9999,0.100000,0,0,31.180472,3,4.000000,0.000000,15.352605,0,0,1,0,0,0,0
2,29999,59,20000,15,10000,0,9999,0.100000,0,0,0.000000,3,0.000000,0.000000,0.039589,0,0,0,0,0,0,0
2,29999,60,20000,47,10000,1,9999,0.100000,0,0,0.000000,3,2.000000,0.000000,8.921455,0,0,0,0,0,0,0
2,29999,61,20000,4,0,1,9999,0.100000,0,0,0.000000,3,1.000000,0.000000,1.856496,0,0,0,0,0,0,0
2,29999,62,20000,47,10000,0,9999,0.100000,0,0,0.000000,3,0.000000,0.000000,2.342216,0,0,0,0,0,0,0
2,29999,63,20000,4,0,0,9999,0.100000,0,0,0.000000,3,0.000000,0.000000,2.720577,0,0,0,0,0,0,0
2,29999,64,20000,4,0,0,9999,0.100000,0,0,0.000000,3,0.000000,0.000000,12.186096,0,0,0,0,0,0,0
2,29999,65,20000,47,10000,1,9999,0.100000,0,0,0.000000,3,2.000000,0.000000,13.101913,0,0,0,0,0,0,0
2,29999,66,20000,11,10000,0,9999,0.100000,0,0,0.000000,3,0.000000,0.000000,0.785497,0,0,0,0,0,0,0
2,29999,67,20000,47,10000,0,9999,0.100000,0,0,0.000000,3,0.000000,0.000000,0.066755,0,0,0,0,0,0,0
2,29999,68,20000,47,10000,0,9999,0.100000,0,0,0.000000,3,0.000000,0.000000,0.350081,0,0,0,0,0,0,0
2,29999,69,20000,15,10000,0,9999,0.100000,0,0,0.000000,3,0.000000,0.000000,0.326269,0,0,0,0,0,0,0
2,29999,70,20000,4,0,0,9999,0.100000,0,0,0.000000,3,0.000000,0.000000,8.223120,0,0,0,0,0,0,0
2,29999,71,20000,4,0,1,9999,0.100000,0,0,0.000000,3,1.000000,0.000000,3.435852,0,0,0,0,0,0,0
2,29999,72,20000,15,10000,1,9999,0.100000,0,0,0.000000,3,1.000000,0.000000,2.241402,0,0,0,0,0,0,0
2,29999,73,20000,15,10000,1,9999,0.100000,0,0,0.000000,3,1.000000,0.000000,3.400309,0,0,0,0,0,0,0
2,29999,74,20000,4,0,0,9999,0.100000,0,0,0.000000,3,0.000000,0.000000,0.219342,0,0,0,0,0,0,0
2,29999,75,20000,15,10000,0,9999,0.100000,0,0,0.000000,3,0.000000,0.000000,10.583075,0,0,0,0,0,0,0
2,29999,76,20000,15,10000,1,9999,0.100000,0,0,0.000000,3,1.000000,0.000000,9.887164,0,0,0,0,0,0,0
2,29999,77,20000,4,0,0,9999,0.100000,0,0,0.000000,3,0.000000,0.000000,0.732489,0,0,0,0,0,0,0
2,29999,78,20000,47,10000,1,9999,0.100000,0,0,0.000000,3,2.000000,0.000000,10.054371,0,0,0,0,0,0,0
2,29999,79,20000,4,0,1,9999,0.100000,0,0,0.000000,3,7.000000,0.000000,13.682249,0,0,0,0,0,0,0
2,29999,80,20000,15,10000,1,9999,0.100000,0,0,0.000000,3,1.000000,0.000000,7.263196,0,0,0,0,0,0,0
2,29999,81,20000,15,10000,1,9999,0.100000,0,0,0.000000,3,1.000000,0.000000,11.148929,0,0,0,0,0,0,0
2,29999,82,20000,4,0,0,9999,0.100000,0,0,0.000000,3,0.000000,0.000000,6.829129,0,0,0,0,0,0,0
2,29999,83,20000,4,0,1,9999,0.100000,0,0,0.000000,3,4.000000,0.000000,8.430691,0,0,0,0,0,0,0
2,29999,84,20000,15,0,0,9999,0.100000,0,0,0.000000,3,0.000000,0.000000,1.167070,0,0,0,0,0,0,0
2,29999,85,20000,47,10000,1,9999,0.100000,0,0,0.000000,3,3.000000,0.000000,10.196446,0,0,0,0,0,0,0
2,29999,86,20000,4,0,0,9999,0.100000,0,0,0.000000,3,0.000000,0.000000,1.705707,0,0,0,0,0,0,0
2,29999,87,20000,4,0,1,9999,0.100000,0,0,0.000000,3,1.000000,0.000000,10.267035,0,0,0,0,0,0,0
2,29999,88,20000,15,0,0,9999,0.100000,0,0,0.000000,3,0.000000,0.000000,9.962538,0,0,0,0,0,0,0
2,29999,89,20000,4,0,1,9999,0.100000,0,0,0.000000,3,1.000000,0.000000,17.492050,0,0,0,0,0,0,0
2,29999,90,20000,4,0,1,9999,0.100000,0,0,0.000000,3,5.000000,0.000000,13.654825,0,0,0,0,0,0,0
2,29999,91,20000,11,10000,0,9999,0.100000,0,0,0.000000,3,0.000000,0.000000,0.706801,0,0,0,0,0,0,0
2,29999,92,20000,15,10000,0,9999,0.100000,0,0,0.000000,3,0.000000,0.000000,1.176614,0,0,0,0,0,0,0
2,29999,93,20000,4,0,1,9999,0.100000,0,0,0.000000,3,1.000000,0.000000,22.429032,0,0,0,0,0,0,0
2,29999,94,20000,47,10000,1,9999,0.100000,0,0,0.000000,3,5.000000,0.000000,13.228589,0,0,0,1,0,0,0
2,29999,95,20000,4,0,1,9999,0.100000,0,0,0.000000,3,2.000000,0.000000,14.858036,0,0,0,0,0,0,0
2,29999,96,20000,4,0,1,9999,0.100000,0,0,0.000000,3,2.000000,0.000000,4.360675,0,0,0,0,0,0,0
2,29999,97,20000,47,10000,0,9999,0.100000,0,0,0.000000,3,0.000000,0.000000,4.639574,0,0,0,0,0,0,0
2,29999,98,20000,15,10000,0,9999,0.100000,0,0,0.000000,3,0.000000,0.000000,0.049642,0,0,0,0,0,0,0
2,29999,99,20000,47,10000,1,9999,0.100000,0,0,0.000000,3,1.000000,0.000000,5.811879,0,0,0,0,0,0,0
3,39999,0,30000,47,10000,1,9999,0.100000,0,0,0.000000,3,6.000000,0.000000,17.501935,0,0,0,0,0,0,0
3,39999,1,30000,4,0,0,9999,0.100000,0,0,0.000000,3,0.000000,0.000000,0.350128,0,0,0,0,0,0,0
3,39999,2,30000,4,0,0,9999,0.100000,0,0,0.000000,3,0.000000,0.000000,6.112370,0,0,0,0,0,0,0
3,39999,3,30000,15,10000,1,9999,0.100000,0,0,0.000000,3,2.000000,0.000000,11.117500,0,0,0,0,0,0,0
3,39999,4,30000,47,10000,1,9999,0.100000,0,0,0.000000,3,1.000000,0.000000,2.394704,0,0,0,0,0,0,0
3,39999,5,30000,4,0,1,9999,0.100000,0,0,0.000000,3,1.000000,0.000000,5.695361,0,0,0,0,0,0,0
3,39999,6,30000,15,10000,1,9999,0.100000,0,0,0.000000,3,2.000000,0.000000,16.548736,0,0,0,0,0,0,0
3,39999,7,30000,47,10000,0,9999,0.100000,0,0,0.000000,3,0.000000,0.000000,4.744792,0,0,0,0,0,0,0
3,39999,8,30000,4,0,1,9999,0.100000,0,0,34.210526,3,2.000000,0.000000,3.297760,0,0,0,0,0,1,0
3,39999,9,30000,47,10000,0,9999,0.100000,0,0,0.000000,3,0.000000,0.000000,0.076385,0,0,0,0,0,0,0
3,39999,10,30000,4,0,0,9999,0.100000,0,0,0.000000,3,0.000000,0.000000,3.380135,0,0,0,0,0,0,0
3,39999,11,30000,15,10000,0,9999,0.100000,0,0,0.000000,3,0.000000,0.000000,2.551896,0,0,0,0,0,0,0
3,39999,12,30000,15,10000,0,9999,0.100000,0,0,0.000000,3,0.000000,0.000000,0.742101,0,0,0,0,0,0,0
3,39999,13,30000,4,0,1,9999,0.100000,0,0,0.000000,3,1.000000,0.000000,5.462447,0,0,0,0,0,0,0
3,39999,14,30000,15,10000,1,9999,0.100000,0,0,0.000000,3,2.000000,0.000000,14.149718,0,0,0,0,0,0,0
3,39999,15,30000,15,10000,0,9999,0.100000,0,0,0.000000,3,0.000000,0.000000,0.154971,0,0,0,0,0,0,0
3,39999,16,30000,4,0,1,9999,0.100000,0,0,0.000000,3,3.000000,0.000000,8.223892,0,0,0,0,0,0,0
3,39999,17,30000,47,10000,0,9999,0.100000,0,0,0.000000,3,0.000000,0.000000,1.987801,0,0,0,0,0,0,0
3,39999,18,30000,47,10000,1,9999,0.100000,0,0,0.000000,3,5.000000,0.000000,9.080029,0,0,0,0,0,0,0
3,39999,19,30000,47,10000,1,9999,0.100000,0,0,0.000000,3,2.000000,0.000000,5.754842,0,0,0,0,0,0,0
3,39999,20,30000,47,10000,1,9999,0.100000,0,0,0.000000,3,4.000000,0.000000,15.379077,0,0,0,0,0,0,0
3,39999,21,30000,15,10000,0,9999,0.100000,0,0,0.000000,3,0.000000,0.000000,1.196044,0,0,0,0,0,0,0
3,39999,22,30000,4,0,1,9999,0.100000,0,0,0.000000,3,3.000000,0.000000,9.557808,0,0,0,0,0,0,0
3,39999,23,30000,47,10000,0,9999,0.100000,0,0,0.000000,3,0.000000,0.000000,0.515436,0,0,0,0,0,0,0
3,39999,24,30000,47,10000,1,9999,0.100000,0,0,34.210526,3,4.000000,0.000000,12.599190,0,0,0,0,0,1,0
3,39999,25,30000,4,0,1,9999,0.100000,0,0,0.000000,3,4.000000,0.000000,15.504601,0,0,0,0,0,0,0
3,39999,26,30000,15,10000,0,9999,0.100000,0,0,0.000000,3,0.000000,0.000000,2.781591,0,0,0,0,0,0,0
3,39999,27,30000,15,10000,0,9999,0.100000,0,0,0.000000,3,0.000000,0.000000,0.247249,0,0,0,0,0,0,0
3,39999,28,30000,4,0,0,9999,0.100000,0,0,0.000000,3,0.000000,0.000000,1.548905,0,0,0,0,0,0,0
3,39999,29,30000,15,10000,0,9999,0.100000,0,0,0.000000,3,0.000000,0.000000,0.169364,0,0,0,0,0,0,0
3,39999,30,30000,47,10000,0,9999,0.100000,0,0,0.000000,3,0.000000,0.000000,0.134411,0,0,0,0,0,0,0
3,39999,31,30000,4,0,0,9999,0.100000,0,0,0.000000,3,0.000000,0.000000,0.454557,0,0,0,0,0,0,0
3,39999,32,30000,47,10000,0,9999,0.100000,0,0,0.000000,3,0.000000,0.000000,0.214675,0,0,0,0,0,0,0
3,39999,33,30000,47,10000,0,9999,0.100000,0,0,0.000000,3,0.000000,0.000000,1.043448,0,0,0,0,0,0,0
3,39999,34,30000,15,10000,0,9999,0.100000,0,0,0.000000,3,0.000000,0.000000,9.988299,0,0,0,0,0,0,0
3,39999,35,30000,4,0,0,9999,0.100000,0,0,0.000000,3,0.000000,0.000000,0.674123,0,0,0,0,0,0,0
3,39999,36,30000,4,0,1,9999,0.100000,0,0,0.000000,3,3.000000,0.000000,8.458446,0,0,0,0,0,0,0
3,39999,37,30000,4,0,1,9999,0.100000,0,0,0.000000,3,5.000000,0.000000,8.222261,0,0,0,0,0,0,0
3,39999,38,30000,4,0,1,9999,0.100000,0,0,0.000000,3,1.000000,0.000000,9.171186,0,0,0,0,0,0,0
3,39999,39,30000,15,10000,0,9999,0.100000,0,0,0.000000,3,0.000000,0.000000,2.693152,0,0,0,0,0,0,0
3,39999,40,30000,4,0,1,9999,0.100000,0,0,0.000000,3,1.000000,0.000000,4.305237,0,0,0,0,0,0,0
3,39999,41,30000,47,10000,0,9999,0.100000,0,0,0.000000,3,0.000000,0.000000,0.968139,0,0,0,0,0,0,0
3,39999,42,30000,4,0,1,9999,0.100000,0,0,0.000000,3,1.000000,0.000000,15.297256,0,0,0,0,0,0,0
3,39999,43,30000,47,10000,1,9999,0.100000,0,0,0.000000,3,2.000000,0.000000,7.288601,0,0,0,0,0,0,0
3,39999,44,30000,15,10000,0,9999,0.100000,0,0,0.000000,3,0.000000,0.000000,5.391416,0,0,0,0,0,0,0
3,39999,45,30000,4,0,1,9999,0.100000,0,0,0.000000,3,3.000000,0.000000,6.132072,0,0,0,0,0,0,0
3,39999,46,30000,4,0,0,9999,0.100000,0,0,0.000000,3,0.000000,0.000000,0.048552,0,0,0,0,0,0,0
3,39999,47,30000,15,10000,0,9999,0.100000,0,0,0.000000,3,0.000000,0.000000,0.154898,0,0,0,0,0,0,0
3,39999,48,30000,4,0,0,9999,0.100000,0,0,0.000000,3,0.000000,0.000000,1.609865,0,0,0,0,0,0,0
3,39999,49,30000,47,10000,1,9999,0.100000,0,0,0.000000,3,6.000000,0.000000,11.020445,0,0,0,0,0,0,0
3,39999,50,30000,15,10000,0,9999,0.100000,0,0,0.000000,3,0.000000,0.000000,0.127136,0,0,0,0,0,0,0
3,39999,51,30000,4,0,1,9999,0.100000,0,0,0.000000,3,4.000000,0.000000,8.354713,0,0,0,0,0,0,0
3,39999,52,30000,15,10000,1,9999,0.100000,0,0,34.210526,3,2.000000,0.000000,3.101132,0,0,0,0,0,1,0
3,39999,53,30000,47,10000,0,9999,0.100000,0,0,0.000000,3,0.000000,0.000000,1.019043,0,0,0,0,0,0,0
3,39999,54,30000,4,0,1,9999,0.100000,0,0,0.000000,3,7.000000,0.000000,10.196237,0,0,0,0,0,0,0
3,39999,55,30000,4,0,1,9999,0.100000,0,0,0.000000,3,1.000000,0.000000,6.037014,0,0,0,0,0,0,0
3,39999,56,30000,15,10000,0,9999,0.100000,0,0,0.000000,3,0.000000,0.000000,1.671464,0,0,0,0,0,0,0
3,39999,57,30000,47,10000,0,9999,0.100000,0,0,0.000000,3,0.000000,0.000000,1.589991,0,0,0,0,0,0,0
3,39999,58,30000,4,0,1,9999,0.100000,0,0,0.000000,3,3.000000,0.000000,9.550117,0,0,0,0,0,0,0
3,39999,59,30000,15,10000,0,9999,0.100000,0,0,0.000000,3,0.000000,0.000000,0.039631,0,0,0,0,0,0,0
3,39999,60,30000,47,10000,1,9999,0.100000,0,0,0.000000,3,1.000000,0.000000,10.598347,0,0,0,0,0,0,0
3,39999,61,30000,4,0,0,9999,0.100000,0,0,0.000000,3,0.000000,0.000000,0.511929,0,0,0,0,0,0,0
3,39999,62,30000,15,10000,1,9999,0.100000,0,0,0.000000,3,1.000000,0.000000,5.886085,0,0,0,0,0,0,0
3,39999,63,30000,47,10000,0,9999,0.100000,0,0,0.000000,3,0.000000,0.000000,15.005326,0,0,0,0,0,0,0
3,39999,64,30000,4,0,1,9999,0.100000,0,0,0.000000,3,1.000000,0.000000,11.917385,0,0,0,0,0,0,0
3,39999,65,30000,47,10000,1,9999,0.100000,0,0,0.000000,3,6.000000,0.000000,11.234387,0,0,0,0,0,0,0
3,39999,66,30000,15,10000,0,9999,0.100000,0,0,0.000000,3,0.000000,0.000000,0.786467,0,0,0,0,0,0,0
3,39999,67,30000,4,0,0,9999,0.100000,0,0,0.000000,3,0.000000,0.000000,0.066351,0,0,0,0,0,0,0
3,39999,68,30000,4,0,0,9999,0.100000,0,0,0.000000,3,0.000000,0.000000,0.364033,0,0,0,0,0,0,0
3,39999,69,30000,15,10000,0,9999,0.100000,0,0,0.000000,3,0.000000,0.000000,2.237662,0,0,0,0,0,0,0
3,39999,70,30000,47,10000,1,9999,0.100000,0,0,0.000000,3,1.000000,0.000000,8.376574,0,0,0,0,0,0,0
3,39999,71,30000,47,10000,1,9999,0.100000,0,0,0.000000,3,3.000000,0.000000,5.348776,0,0,0,0,0,0,0
3,39999,72,30000,15,10000,0,9999,0.100000,0,0,0.000000,3,0.000000,0.000000,1.431730,0,0,0,0,0,0,0
3,39999,73,30000,47,10000,0,9999,0.100000,0,0,0.000000,3,0.000000,0.000000,2.833312,0,0,0,0,0,0,0
3,39999,74,30000,15,10000,0,9999,0.100000,0,0,0.000000,3,0.000000,0.000000,0.210898,0,0,0,0,0,0,0
3,39999,75,30000,4,0,0,9999,0.100000,0,0,0.000000,3,0.000000,0.000000,2.290308,0,0,0,0,0,0,0
3,39999,76,30000,4,0,1,9999,0.100000,0,0,0.000000,3,7.000000,0.000000,28.243153,0,0,0,0,0,0,0
3,39999,77,30000,15,10000,1,9999,0.100000,0,0,0.000000,3,1.000000,0.000000,1.831437,0,0,0,0,0,0,0
3,39999,78,30000,4,0,1,9999,0.100000,0,0,0.000000,3,6.000000,0.000000,13.457408,0,0,0,0,0,0,0
3,39999,79,30000,4,0,1,9999,0.100000,0,0,0.000000,3,1.000000,0.000000,7.138935,0,0,0,0,0,0,0
3,39999,80,30000,47,10000,1,9999,0.100000,0,0,0.000000,3,3.000000,0.000000,7.465882,0,0,0,0,0,0,0
3,39999,81,30000,15,10000,0,9999,0.100000,0,0,0.000000,3,0.000000,0.000000,9.362605,0,0,0,0,0,0,0
3,39999,82,30000,4,0,0,9999,0.100000,0,0,0.000000,3,0.000000,0.000000,0.183664,0,0,0,0,0,0,0
3,39999,83,30000,47,10000,0,9999,0.100000,0,0,0.000000,3,0.000000,0.000000,1.603921,0,0,0,0,0,0,0
3,39999,84,30000,4,0,1,9999,0.100000,0,0,0.000000,3,3.000000,0.000000,4.847072,0,0,0,0,0,0,0
3,39999,85,30000,47,10000,1,9999,0.100000,0,0,0.000000,3,2.000000,0.000000,9.231823,0,0,0,0,0,0,0
3,39999,86,30000,4,0,1,9999,0.100000,0,0,0.000000,3,3.000000,0.000000,7.836572,0,0,0,0,0,0,0
3,39999,87,30000,4,0,1,9999,0.100000,0,0,0.000000,3,1.000000,0.000000,8.683371,0,0,0,0,0,0,0
3,39999,88,30000,4,0,1,9999,0.100000,0,0,0.000000,3,1.000000,0.000000,4.182231,0,0,0,0,0,0,0
3,39999,89,30000,4,0,1,9999,0.100000,0,0,0.000000,3,1.000000,0.000000,4.458311,0,0,0,0,0,0,0
3,39999,90,30000,47,10000,1,9999,0.100000,0,0,0.000000,3,2.000000,0.000000,14.272851,0,0,0,0,0,0,0
3,39999,91,30000,15,10000,0,9999,0.100000,0,0,0.000000,3,0.000000,0.000000,0.088711,0,0,0,0,0,0,0
3,39999,92,30000,4,0,1,9999,0.100000,0,0,0.000000,3,3.000000,0.000000,4.723742,0,0,0,0,0,0,0
3,39999,93,30000,47,10000,1,9999,0.100000,0,0,0.000000,3,2.000000,0.000000,6.360679,0,0,0,0,0,0,0
3,39999,94,30000,4,0,1,9999,0.100000,0,0,0.000000,3,1.000000,0.000000,8.398650,0,0,0,0,0,0,0
3,39999,95,30000,4,0,1,9999,0.100000,0,0,34.210526,3,2.000000,0.000000,3.415230,0,0,0,0,0,1,0
3,39999,96,30000,47,10000,3,9999,0.100000,0,0,55.349200,3,3.000000,0.000000,10.837911,0,0,1,0,0,0,0
3,39999,97,30000,4,0,1,9999,0.100000,0,0,0.000000,3,1.000000,0.000000,8.322909,0,0,0,0,0,0,0
3,39999,98,30000,4,0,0,9999,0.100000,0,0,0.000000,3,0.000000,0.000000,0.047599,0,0,0,0,0,0,0
3,39999,99,30000,15,10000,0,9999,0.100000,0,0,0.000000,3,0.000000,0.000000,0.209686,0,0,0,0,0,0,0
4,49999,0,40000,47,10000,1,9999,0.100000,0,0,0.000000,3,4.000000,0.000000,8.758841,0,0,0,0,0,0,0
4,49999,1,40000,15,10000,0,9999,0.100000,0,0,0.000000,3,0.000000,0.000000,0.273194,0,0,0,0,0,0,0
4,49999,2,40000,47,10000,0,9999,0.100000,0,0,0.000000,3,0.000000,0.000000,3.606622,0,0,0,0,0,0,0
4,49999,3,40000,47,10000,1,9999,0.100000,0,0,0.000000,3,1.000000,0.000000,6.689730,0,0,0,0,0,0,0
4,49999,4,40000,4,0,0,9999,0.100000,0,0,0.000000,3,0.000000,0.000000,0.110217,0,0,0,0,0,0,0
4,49999,5,40000,4,0,3,9999,0.100000,0,0,36.466303,3,5.000000,0.000000,16.443427,0,0,1,0,0,0,0
4,49999,6,40000,4,0,1,9999,0.100000,0,0,0.000000,3,1.000000,0.000000,10.686976,0,0,0,0,0,0,0
4,49999,7,40000,47,10000,1,9999,0.100000,0,0,0.000000,3,1.000000,0.000000,4.481431,0,0,0,0,0,0,0
4,49999,8,40000,47,10000,1,9999,0.100000,0,0,0.000000,3,1.000000,0.000000,6.700637,0,0,0,0,0,0,0
4,49999,9,40000,47,10000,0,9999,0.100000,0,0,0.000000,3,0.000000,0.000000,0.075865,0,0,0,0,0,0,0
4,49999,10,40000,47,10000,1,9999,0.100000,0,0,0.000000,3,9.000000,0.000000,12.309884,0,0,0,0,0,0,0
4,49999,11,40000,47,10000,0,9999,0.100000,0,0,0.000000,3,0.000000,0.000000,0.961449,0,0,0,0,0,0,0
4,49999,12,40000,47,10000,0,9999,0.100000,0,0,0.000000,3,0.000000,0.000000,0.751801,0,0,0,0,0,0,0
4,49999,13,40000,4,0,0,9999,0.100000,0,0,0.000000,3,0.000000,0.000000,3.143442,0,0,0,0,0,0,0
4,49999,14,40000,4,0,0,9999,0.100000,0,0,0.000000,3,0.000000,0.000000,5.821711,0,0,0,0,0,0,0
4,49999,15,40000,4,0,0,9999,0.100000,0,0,0.000000,3,0.000000,0.000000,0.149983,0,0,0,0,0,0,0
4,49999,16,40000,47,10000,1,9999,0.100000,0,0,0.000000,3,6.000000,0.000000,10.298501,0,0,0,0,0,0,0
4,49999,17,40000,4,0,0,9999,0.100000,0,0,0.000000,3,0.000000,0.000000,0.142194,0,0,0,0,0,0,0
4,49999,18,40000,4,0,1,9999,0.100000,0,0,0.000000,3,1.000000,0.000000,4.389839,0,0,0,0,0,0,0
4,49999,19,40000,15,10000,1,9999,0.100000,0,0,0.000000,3,3.000000,0.000000,12.232025,0,0,0,0,0,0,0
4,49999,20,40000,4,0,1,9999,0.100000,0,0,0.000000,3,3.000000,0.000000,4.147968,0,0,0,0,0,0,0
4,49999,21,40000,4,0,0,9999,0.100000,0,0,0.000000,3,0.000000,0.000000,1.217910,0,0,0,0,0,0,0
4,49999,22,40000,15,10000,0,9999,0.100000,0,0,0.000000,3,0.000000,0.000000,3.152684,0,0,0,0,0,0,0
4,49999,23,40000,4,0,0,9999,0.100000,0,0,0.000000,3,0.000000,0.000000,0.497076,0,0,0,0,0,0,0
4,49999,24,40000,15,10000,1,9999,0.100000,0,0,0.000000,3,2.000000,0.000000,9.929371,0,0,0,0,0,0,0
4,49999,25,40000,15,10000,1,9999,0.100000,0,0,0.000000,3,2.000000,0.000000,5.327323,0,0,0,0,0,0,0
4,49999,26,40000,47,10000,0,9999,0.100000,0,0,0.000000,3,0.000000,0.000000,2.660019,0,0,0,0,0,0,0
4,49999,27,40000,15,10000,0,9999,0.100000,0,0,0.000000,3,0.000000,0.000000,0.227966,0,0,0,0,0,0,0
4,49999,28,40000,47,10000,0,9999,0.100000,0,0,0.000000,3,0.000000,0.000000,0.704691,0,0,0,0,0,0,0
4,49999,29,40000,15,10000,0,9999,0.100000,0,0,0.000000,3,0.000000,0.000000,0.717889,0,0,0,0,0,0,0
4,49999,30,40000,4,0,0,9999,0.100000,0,0,0.000000,3,0.000000,0.000000,0.132236,0,0,0,0,0,0,0
4,49999,31,40000,15,10000,0,9999,0.100000,0,0,0.000000,3,0.000000,0.000000,0.495195,0,0,0,0,0,0,0
4,49999,32,40000,47,10000,0,9999,0.100000,0,0,0.000000,3,0.000000,0.000000,0.801084,0,0,0,0,0,0,0
4,49999,33,40000,4,0,0,9999,0.100000,0,0,0.000000,3,0.000000,0.000000,1.011005,0,0,0,0,0,0,0
4,49999,34,40000,15,10000,0,9999,0.100000,0,0,0.000000,3,0.000000,0.000000,3.448018,0,0,0,0,0,0,0
4,49999,35,40000,47,10000,0,9999,0.100000,0,0,0.000000,3,0.000000,0.000000,0.678470,0,0,0,0,0,0,0
4,49999,36,40000,47,10000,0,9999,0.100000,0,0,0.000000,3,0.000000,0.000000,2.069236,0,0,0,0,0,0,0
4,49999,37,40000,15,10000,1,9999,0.100000,0,0,0.000000,3,3.000000,0.000000,17.043251,0,0,0,0,0,0,0
4,49999,38,40000,47,10000,1,9999,0.100000,0,0,0.000000,3,2.000000,0.000000,7.282878,0,0,0,0,0,0,0
4,49999,39,40000,4,0,0,9999,0.100000,0,0,0.000000,3,0.000000,0.000000,0.572745,0,0,0,0,0,0,0
4,49999,40,40000,47,10000,1,9999,0.100000,0,0,0.000000,3,1.000000,0.000000,11.174325,0,0,0,0,0,0,0
4,49999,41,40000,4,0,0,9999,0.100000,0,0,0.000000,3,0.000000,0.000000,0.337702,0,0,0,0,0,0,0
4,49999,42,40000,47,10000,0,9999,0.100000,0,0,0.000000,3,0.000000,0.000000,11.731045,0,0,0,0,0,0,0
4,49999,43,40000,47,10000,1,9999,0.100000,0,0,0.000000,3,1.000000,0.000000,8.441041,0,0,0,0,0,0,0
4,49999,44,40000,15,10000,0,9999,0.100000,0,0,0.000000,3,0.000000,0.000000,6.268801,0,0,0,0,0,0,0
4,49999,45,40000,15,10000,0,9999,0.100000,0,0,0.000000,3,0.000000,0.000000,0.732502,0,0,0,0,0,0,0
4,49999,46,40000,47,10000,0,9999,0.100000,0,0,0.000000,3,0.000000,0.000000,0.047754,0,0,0,0,0,0,0
4,49999,47,40000,15,10000,0,9999,0.100000,0,0,0.000000,3,0.000000,0.000000,0.105385,0,0,0,0,0,0,0
4,49999,48,40000,4,0,0,9999,0.100000,0,0,0.000000,3,0.000000,0.000000,0.722964,0,0,0,0,0,0,0
4,49999,49,40000,47,10000,1,9999,0.100000,0,0,0.000000,3,2.000000,0.000000,12.917813,0,0,0,0,0,0,0
4,49999,50,40000,47,10000,0,9999,0.100000,0,0,0.000000,3,0.000000,0.000000,0.117951,0,0,0,0,0,0,0
4,49999,51,40000,47,10000,0,9999,0.100000,0,0,0.000000,3,0.000000,0.000000,0.938509,0,0,0,0,0,0,0
4,49999,52,40000,4,0,1,9999,0.100000,0,0,0.000000,3,2.000000,0.000000,4.173386,0,0,0,0,0,0,0
4,49999,53,40000,15,10000,0,9999,0.100000,0,0,0.000000,3,0.000000,0.000000,1.033770,0,0,0,0,0,0,0
4,49999,54,40000,15,10000,0,9999,0.100000,0,0,0.000000,3,0.000000,0.000000,1.661894,0,0,0,0,0,0,0
4,49999,55,40000,47,10000,1,9999,0.100000,0,0,0.000000,3,1.000000,0.000000,4.274929,0,0,0,0,0,0,0
4,49999,56,40000,15,10000,0,9999,0.100000,0,0,0.000000,3,0.000000,0.000000,0.997794,0,0,0,0,0,0,0
4,49999,57,40000,15,10000,0,9999,0.100000,0,0,0.000000,3,0.000000,0.000000,1.247260,0,0,0,0,0,0,0
4,49999,58,40000,4,0,1,9999,0.100000,0,0,0.000000,3,2.000000,0.000000,5.214332,0,0,0,0,0,0,0
4,49999,59,40000,15,10000,0,9999,0.100000,0,0,0.000000,3,0.000000,0.000000,0.039434,0,0,0,0,0,0,0
4,49999,60,40000,15,10000,1,9999,0.100000,0,0,0.000000,3,2.000000,0.000000,16.001505,0,0,0,0,0,0,0
4,49999,61,40000,15,10000,0,9999,0.100000,0,0,0.000000,3,0.000000,0.000000,6.530590,0,0,0,0,0,0,0
4,49999,62,40000,47,10000,1,9999,0.100000,0,0,0.000000,3,3.000000,0.000000,13.593092,0,0,0,0,0,0,0
4,49999,63,40000,4,0,1,9999,0.100000,0,0,0.000000,3,2.000000,0.000000,18.082488,0,0,0,0,0,0,0
4,49999,64,40000,4,0,1,9999,0.100000,0,0,0.000000,3,1.000000,0.000000,11.414883,0,0,0,0,0,0,0
4,49999,65,40000,15,10000,1,9999,0.100000,0,0,0.000000,3,2.000000,0.000000,7.717906,0,0,0,0,0,0,0
4,49999,66,40000,4,0,0,9999,0.100000,0,0,0.000000,3,0.000000,0.000000,0.778581,0,0,0,0,0,0,0
4,49999,67,40000,15,10000,0,9999,0.100000,0,0,0.000000,3,0.000000,0.000000,0.066961,0,0,0,0,0,0,0
4,49999,68,40000,47,10000,0,9999,0.100000,0,0,0.000000,3,0.000000,0.000000,0.364096,0,0,0,0,0,0,0
4,49999,69,40000,15,10000,1,9999,0.100000,0,0,0.000000,3,2.000000,0.000000,7.545866,0,0,0,0,0,0,0
4,49999,70,40000,15,10000,0,9999,0.100000,0,0,0.000000,3,0.000000,0.000000,6.207284,0,0,0,0,0,0,0
4,49999,71,40000,15,10000,0,9999,0.100000,0,0,0.000000,3,0.000000,0.000000,0.564598,0,0,0,0,0,0,0
4,49999,72,40000,15,10000,0,9999,0.100000,0,0,0.000000,3,0.000000,0.000000,1.148396,0,0,0,0,0,0,0
4,49999,73,40000,4,0,0,9999,0.100000,0,0,0.000000,3,0.000000,0.000000,1.653371,0,0,0,0,0,0,0
4,49999,74,40000,47,10000,0,9999,0.100000,0,0,0.000000,3,0.000000,0.000000,0.222253,0,0,0,0,0,0,0
4,49999,75,40000,4,0,0,9999,0.100000,0,0,0.000000,3,0.000000,0.000000,8.621413,0,0,0,0,0,0,0
4,49999,76,40000,15,10000,1,9999,0.100000,0,0,0.000000,3,7.000000,0.000000,27.340070,0,0,0,0,0,0,0
4,49999,77,40000,4,0,0,9999,0.100000,0,0,0.000000,3,0.000000,0.000000,1.197614,0,0,0,0,0,0,0
4,49999,78,40000,47,10000,1,9999,0.100000,0,0,0.000000,3,3.000000,0.000000,8.654159,0,0,0,0,0,0,0
4,49999,79,40000,47,10000,1,9999,0.100000,0,0,0.000000,3,3.000000,0.000000,9.295316,0,0,0,0,0,0,0
4,49999,80,40000,4,0,1,9999,0.100000,0,0,0.000000,3,5.000000,0.000000,11.899578,0,0,0,0,0,0,0
4,49999,81,40000,4,0,1,9999,0.100000,0,0,0.000000,3,1.000000,0.000000,7.592448,0,0,0,0,0,0,0
4,49999,82,40000,15,10000,0,9999,0.100000,0,0,0.000000,3,0.000000,0.000000,0.111859,0,0,0,0,0,0,0
4,49999,83,40000,47,10000,0,9999,0.100000,0,0,0.000000,3,0.000000,0.000000,0.891608,0,0,0,0,0,0,0
4,49999,84,40000,15,10000,0,9999,0.100000,0,0,0.000000,3,0.000000,0.000000,0.629274,0,0,0,0,0,0,0
4,49999,85,40000,47,10000,1,9999,0.100000,0,0,0.000000,3,1.000000,0.000000,5.338808,0,0,0,0,0,0,0
4,49999,86,40000,47,10000,1,9999,0.100000,0,0,0.000000,3,3.000000,0.000000,7.345780,0,0,0,0,0,0,0
4,49999,87,40000,47,10000,3,9999,0.100000,0,0,33.810869,3,6.000000,0.000000,17.768804,0,0,1,0,0,0,0
4,49999,88,40000,15,10000,1,9999,0.100000,0,0,0.000000,3,2.000000,0.000000,16.614907,0,0,0,0,0,0,0
4,49999,89,40000,4,0,0,9999,0.100000,0,0,0.000000,3,0.000000,0.000000,1.161273,0,0,0,0,0,0,0
4,49999,90,40000,47,10000,0,9999,0.100000,0,0,0.000000,3,0.000000,0.000000,0.237864,0,0,0,0,0,0,0
4,49999,91,40000,15,10000,0,9999,0.100000,0,0,0.000000,3,0.000000,0.000000,0.076079,0,0,0,0,0,0,0
4,49999,92,40000,47,10000,0,9999,0.100000,0,0,0.000000,3,0.000000,0.000000,0.241576,0,0,0,0,0,0,0
4,49999,93,40000,4,0,0,9999,0.100000,0,0,0.000000,3,0.000000,0.000000,0.772070,0,0,0,0,0,0,0
4,49999,94,40000,4,0,1,9999,0.100000,0,0,0.000000,3,1.000000,0.000000,8.412894,0,0,0,0,0,0,0
4,49999,95,40000,15,10000,1,9999,0.100000,0,0,0.000000,3,2.000000,0.000000,13.450695,0,0,0,0,0,0,0
4,49999,96,40000,47,10000,0,9999,0.100000,0,0,0.000000,3,0.000000,0.000000,5.139869,0,0,0,0,0,0,0
4,49999,97,40000,47,10000,1,9999,0.100000,0,0,0.000000,3,1.000000,0.000000,6.165773,0,0,0,0,0,0,0
4,49999,98,40000,4,0,0,9999,0.100000,0,0,0.000000,3,0.000000,0.000000,0.045682,0,0,0,0,0,0,0
4,49999,99,40000,15,10000,0,9999,0.100000,0,0,0.000000,3,0.000000,0.000000,0.184031,0,0,0,0,0,0,0
5,59999,0,50000,4,0,0,9999,0.100000,0,0,0.000000,3,0.000000,0.000000,0.529566,0,0,0,0,0,0,0
5,59999,1,50000,15,10000,0,9999,0.100000,0,0,0.000000,3,0.000000,0.000000,0.259407,0,0,0,0,0,0,0
5,59999,2,50000,15,10000,0,9999,0.100000,0,0,0.000000,3,0.000000,0.000000,1.461074,0,0,0,0,0,0,0
5,59999,3,50000,4,0,1,9999,0.100000,0,0,0.000000,3,2.000000,0.000000,15.466445,0,0,0,0,0,0,0
5,59999,4,50000,15,10000,0,9999,0.100000,0,0,0.000000,3,0.000000,0.000000,0.107879,0,0,0,0,0,0,0
5,59999,5,50000,15,10000,1,9999,0.100000,0,0,0.000000,3,3.000000,0.000000,13.318275,0,0,0,0,0,0,0
5,59999,6,50000,47,10000,0,9999,0.100000,0,0,0.000000,3,0.000000,0.000000,3.401376,0,0,0,0,0,0,0
5,59999,7,50000,15,10000,0,9999,0.100000,0,0,0.000000,3,0.000000,0.000000,1.109705,0,0,0,0,0,0,0
5,59999,8,50000,47,10000,1,9999,0.100000,0,0,0.000000,3,2.000000,0.000000,4.120458,0,0,0,0,0,0,0
5,59999,9,50000,4,0,0,9999,0.100000,0,0,0.000000,3,0.000000,0.000000,0.076347,0,0,0,0,0,0,0
5,59999,10,50000,15,10000,0,9999,0.100000,0,0,0.000000,3,0.000000,0.000000,0.726018,0,0,0,0,0,0,0
5,59999,11,50000,47,10000,0,9999,0.100000,0,0,0.000000,3,0.000000,0.000000,0.962051,0,0,0,0,0,0,0
5,59999,12,50000,47,10000,0,9999,0.100000,0,0,0.000000,3,0.000000,0.000000,0.833321,0,0,0,0,0,0,0
5,59999,13,50000,4,0,1,9999,0.100000,0,0,0.000000,3,1.000000,0.000000,4.979648,0,0,0,0,0,0,0
5,59999,14,50000,15,10000,1,9999,0.100000,0,0,0.000000,3,1.000000,0.000000,4.303028,0,0,0,0,0,0,0
5,59999,15,50000,47,10000,0,9999,0.100000,0,0,0.000000,3,0.000000,0.000000,0.155800,0,0,0,0,0,0,0
5,59999,16,50000,47,10000,1,9999,0.100000,0,0,0.000000,3,2.000000,0.000000,9.244964,0,0,0,0,0,0,0
5,59999,17,50000,4,0,0,9999,0.100000,0,0,0.000000,3,0.000000,0.000000,0.173637,0,0,0,0,0,0,0
5,59999,18,50000,15,10000,1,9999,0.100000,0,0,0.000000,3,1.000000,0.000000,9.842316,0,0,0,0,0,0,0
5,59999,19,50000,4,0,0,9999,0.100000,0,0,0.000000,3,0.000000,0.000000,0.799251,0,0,0,0,0,0,0
5,59999,20,50000,47,10000,0,9999,0.100000,0,0,0.000000,3,0.000000,0.000000,0.243247,0,0,0,0,0,0,0
5,59999,21,50000,4,0,0,9999,0.100000,0,0,0.000000,3,0.000000,0.000000,1.221371,0,0,0,0,0,0,0
5,59999,22,50000,47,10000,0,9999,0.100000,0,0,0.000000,3,0.000000,0.000000,1.662350,0,0,0,0,0,0,0
5,59999,23,50000,4,0,0,9999,0.100000,0,0,0.000000,3,0.000000,0.000000,0.493351,0,0,0,0,0,0,0
5,59999,24,50000,15,10000,3,9999,0.100000,0,0,0.000000,3,1.000000,0.000000,13.430598,0,0,1,0,0,0,0
5,59999,25,50000,15,10000,0,9999,0.100000,0,0,0.000000,3,0.000000,0.000000,0.996148,0,0,0,0,0,0,0
5,59999,26,50000,15,10000,0,9999,0.100000,0,0,0.000000,3,0.000000,0.000000,1.932845,0,0,0,0,0,0,0
5,59999,27,50000,15,10000,0,9999,0.100000,0,0,0.000000,3,0.000000,0.000000,0.230421,0,0,0,0,0,0,0
5,59999,28,50000,47,10000,0,9999,0.100000,0,0,0.000000,3,0.000000,0.000000,0.569088,0,0,0,0,0,0,0
5,59999,29,50000,4,0,0,9999,0.100000,0,0,0.000000,3,0.000000,0.000000,0.798089,0,0,0,0,0,0,0
5,59999,30,50000,47,10000,0,9999,0.100000,0,0,0.000000,3,0.000000,0.000000,0.127469,0,0,0,0,0,0,0
5,59999,31,50000,47,10000,0,9999,0.100000,0,0,0.000000,3,0.000000,0.000000,8.461116,0,0,0,0,0,0,0
5,59999,32,50000,4,0,0,9999,0.100000,0,0,0.000000,3,0.000000,0.000000,0.806411,0,0,0,0,0,0,0
5,59999,33,50000,4,0,0,9999,0.100000,0,0,0.000000,3,0.000000,0.000000,1.029953,0,0,0,0,0,0,0
5,59999,34,50000,4,0,1,9999,0.100000,0,0,0.000000,3,5.000000,0.000000,8.634129,0,0,0,0,0,0,0
5,59999,35,50000,4,0,0,9999,0.100000,0,0,0.000000,3,0.000000,0.000000,0.735593,0,0,0,0,0,0,0
5,59999,36,50000,4,0,0,9999,0.100000,0,0,0.000000,3,0.000000,0.000000,1.148617,0,0,0,0,0,0,0
5,59999,37,50000,47,10000,1,9999,0.100000,0,0,0.000000,3,2.000000,0.000000,8.450149,0,0,0,0,0,0,0
5,59999,38,50000,15,10000,0,9999,0.100000,0,0,0.000000,3,0.000000,0.000000,14.017646,0,0,0,0,0,0,0
5,59999,39,50000,4,0,0,9999,0.100000,0,0,0.000000,3,0.000000,0.000000,0.539812,0,0,0,0,0,0,0
5,59999,40,50000,4,0,1,9999,0.100000,0,0,0.000000,3,2.000000,0.000000,17.344065,0,0,0,0,0,0,0
5,59999,41,50000,47,10000,0,9999,0.100000,0,0,0.000000,3,0.000000,0.000000,0.275053,0,0,0,0,0,0,0
5,59999,42,50000,47,10000,1,9999,0.100000,0,0,0.000000,3,1.000000,0.000000,4.129356,0,0,0,0,0,0,0
5,59999,43,50000,47,10000,1,9999,0.100000,0,0,0.000000,3,18.000000,0.000000,25.974750,0,0,0,0,0,0,0
5,59999,44,50000,4,0,1,9999,0.100000,0,0,0.000000,3,1.000000,0.000000,15.042079,0,0,0,0,0,0,0
5,59999,45,50000,47,10000,0,9999,0.100000,0,0,0.000000,3,0.000000,0.000000,0.736390,0,0,0,0,0,0,0
5,59999,46,50000,15,10000,0,9999,0.100000,0,0,0.000000,3,0.000000,0.000000,0.047471,0,0,0,0,0,0,0
5,59999,47,50000,4,0,0,9999,0.100000,0,0,0.000000,3,0.000000,0.000000,0.221620,0,0,0,0,0,0,0
5,59999,48,50000,15,10000,0,9999,0.100000,0,0,0.000000,3,0.000000,0.000000,1.100976,0,0,0,0,0,0,0
5,59999,49,50000,15,10000,0,9999,0.100000,0,0,0.000000,3,0.000000,0.000000,22.060236,0,0,0,0,0,0,0
5,59999,50,50000,47,10000,0,9999,0.100000,0,0,0.000000,3,0.000000,0.000000,0.109288,0,0,0,0,0,0,0
5,59999,51,50000,47,10000,0,9999,0.100000,0,0,0.000000,3,0.000000,0.000000,1.267673,0,0,0,0,0,0,0
5,59999,52,50000,4,0,1,9999,0.100000,0,0,34.210526,3,1.000000,0.000000,5.698909,0,0,0,0,1,0,0
5,59999,53,50000,4,0,0,9999,0.100000,0,0,0.000000,3,0.000000,0.000000,0.998896,0,0,0,0,0,0,0
5,59999,54,50000,47,10000,1,9999,0.100000,0,0,0.000000,3,3.000000,0.000000,7.193664,0,0,0,0,0,0,0
5,59999,55,50000,47,10000,0,9999,0.100000,0,0,0.000000,3,0.000000,0.000000,1.108678,0,0,0,0,0,0,0
5,59999,56,50000,15,10000,1,9999,0.100000,0,0,0.000000,3,1.000000,0.000000,4.578272,0,0,0,0,0,0,0
5,59999,57,50000,15,10000,0,9999,0.100000,0,0,0.000000,3,0.000000,0.000000,1.363211,0,0,0,0,0,0,0
5,59999,58,50000,4,0,1,9999,0.100000,0,0,0.000000,3,2.000000,0.000000,5.531820,0,0,0,0,0,0,0
5,59999,59,50000,47,10000,0,9999,0.100000,0,0,0.000000,3,0.000000,0.000000,0.038933,0,0,0,0,0,0,0
5,59999,60,50000,47,10000,1,9999,0.100000,0,0,0.000000,3,1.000000,0.000000,3.150401,0,0,0,0,0,0,0
5,59999,61,50000,4,0,0,9999,0.100000,0,0,0.000000,3,0.000000,0.000000,5.806223,0,0,0,0,0,0,0
5,59999,62,50000,4,0,1,9999,0.100000,0,0,0.000000,3,2.000000,0.000000,13.647251,0,0,0,0,0,0,0
5,59999,63,50000,15,10000,1,9999,0.100000,0,0,0.000000,3,2.000000,0.000000,15.664938,0,0,0,0,0,0,0
5,59999,64,50000,47,10000,0,9999,0.100000,0,0,0.000000,3,0.000000,0.000000,2.072233,0,0,0,0,0,0,0
5,59999,65,50000,4,0,0,9999,0.100000,0,0,0.000000,3,0.000000,0.000000,6.844245,0,0,0,0,0,0,0
5,59999,66,50000,4,0,0,9999,0.100000,0,0,0.000000,3,0.000000,0.000000,0.771374,0,0,0,0,0,0,0
5,59999,67,50000,47,10000,0,9999,0.100000,0,0,0.000000,3,0.000000,0.000000,0.069984,0,0,0,0,0,0,0
5,59999,68,50000,47,10000,0,9999,0.100000,0,0,0.000000,3,0.000000,0.000000,0.419551,0,0,0,0,0,0,0
5,59999,69,50000,15,10000,1,9999,0.100000,0,0,0.000000,3,1.000000,0.000000,7.187270,0,0,0,0,0,0,0
5,59999,70,50000,47,10000,0,9999,0.100000,0,0,0.000000,3,0.000000,0.000000,8.073748,0,0,0,0,0,0,0
5,59999,71,50000,4,0,0,9999,0.100000,0,0,0.000000,3,0.000000,0.000000,0.574271,0,0,0,0,0,0,0
5,59999,72,50000,4,0,0,9999,0.100000,0,0,0.000000,3,0.000000,0.000000,1.082368,0,0,0,0,0,0,0
5,59999,73,50000,15,10000,0,9999,0.100000,0,0,0.000000,3,0.000000,0.000000,0.919833,0,0,0,0,0,0,0
5,59999,74,50000,4,0,0,9999,0.100000,0,0,0.000000,3,0.000000,0.000000,0.233644,0,0,0,0,0,0,0
5,59999,75,50000,15,10000,1,9999,0.100000,0,0,0.000000,3,3.000000,0.000000,12.229067,0,0,0,0,0,0,0
5,59999,76,50000,47,10000,1,9999,0.100000,0,0,0.000000,3,2.000000,0.000000,11.659082,0,0,0,0,0,0,0
5,59999,77,50000,4,0,0,9999,0.100000,0,0,0.000000,3,0.000000,0.000000,0.928658,0,0,0,0,0,0,0
5,59999,78,50000,15,10000,1,9999,0.100000,0,0,0.000000,3,1.000000,0.000000,8.837916,0,0,0,0,0,0,0
5,59999,79,50000,15,10000,0,9999,0.100000,0,0,0.000000,3,0.000000,0.000000,1.102795,0,0,0,0,0,0,0
5,59999,80,50000,47,10000,1,9999,0.100000,0,0,0.000000,3,1.000000,0.000000,14.641096,0,0,0,0,0,0,0
5,59999,81,50000,47,10000,1,9999,0.100000,0,0,0.000000,3,1.000000,0.000000,4.332543,0,0,0,0,0,0,0
5,59999,82,50000,47,10000,0,9999,0.100000,0,0,0.000000,3,0.000000,0.000000,0.099957,0,0,0,0,0,0,0
5,59999,83,50000,4,0,0,9999,0.100000,0,0,0.000000,3,0.000000,0.000000,0.940635,0,0,0,0,0,0,0
5,59999,84,50000,15,10000,0,9999,0.100000,0,0,0.000000,3,0.000000,0.000000,0.602450,0,0,0,0,0,0,0
5,59999,85,50000,15,10000,1,9999,0.100000,0,0,0.000000,3,4.000000,0.000000,11.534031,0,0,0,0,0,0,0
5,59999,86,50000,4,0,1,9999,0.100000,0,0,0.000000,3,1.000000,0.000000,4.603014,0,0,0,0,0,0,0
5,59999,87,50000,15,10000,0,9999,0.100000,0,0,0.000000,3,0.000000,0.000000,6.113466,0,0,0,0,0,0,0
5,59999,88,50000,15,10000,0,9999,0.100000,0,0,0.000000,3,0.000000,0.000000,14.322505,0,0,0,0,0,0,0
5,59999,89,50000,15,10000,0,9999,0.100000,0,0,0.000000,3,0.000000,0.000000,0.724103,0,0,0,0,0,0,0
5,59999,90,50000,15,10000,0,9999,0.100000,0,0,0.000000,3,0.000000,0.000000,0.238966,0,0,0,0,0,0,0
5,59999,91,50000,47,10000,0,9999,0.100000,0,0,0.000000,3,0.000000,0.000000,0.075332,0,0,0,0,0,0,0
5,59999,92,50000,4,0,0,9999,0.100000,0,0,0.000000,3,0.000000,0.000000,0.233463,0,0,0,0,0,0,0
5,59999,93,50000,4,0,0,9999,0.100000,0,0,0.000000,3,0.000000,0.000000,0.820403,0,0,0,0,0,0,0
5,59999,94,50000,15,10000,1,9999,0.100000,0,0,0.000000,3,1.000000,0.000000,8.239827,0,0,0,0,0,0,0
5,59999,95,50000,4,0,1,9999,0.100000,0,0,0.000000,3,1.000000,0.000000,8.913654,0,0,0,0,0,0,0
5,59999,96,50000,47,10000,1,9999,0.100000,0,0,0.000000,3,2.000000,0.000000,8.094222,0,0,0,0,0,0,0
5,59999,97,50000,4,0,0,9999,0.100000,0,0,0.000000,3,0.000000,0.000000,2.980179,0,0,0,0,0,0,0
5,59999,98,50000,47,10000,0,9999,0.135000,0,0,0.000000,3,0.000000,0.000000,0.044397,0,0,0,0,0,0,0
5,59999,99,50000,15,10000,0,9999,0.100000,0,0,0.000000,3,0.000000,0.000000,0.216668,0,0,0,0,0,0,0
6,69999,0,60000,4,0,0,9999,0.100000,0,0,0.000000,3,0.000000,0.000000,0.509719,0,0,0,0,0,0,0
6,69999,1,60000,47,10000,0,9999,0.100000,0,0,0.000000,3,0.000000,0.000000,0.262756,0,0,0,0,0,0,0
6,69999,2,60000,15,10000,0,9999,0.100000,0,0,0.000000,3,0.000000,0.000000,2.142716,0,0,0,0,0,0,0
6,69999,3,60000,15,10000,1,9999,0.100000,0,0,0.000000,3,1.000000,0.000000,5.851661,0,0,0,0,0,0,0
6,69999,4,60000,47,10000,0,9999,0.100000,0,0,0.000000,3,0.000000,0.000000,0.110774,0,0,0,0,0,0,0
6,69999,5,60000,47,10000,1,9999,0.100000,0,0,0.000000,3,1.000000,0.000000,6.809364,0,0,0,0,0,0,0
6,69999,6,60000,4,0,1,9999,0.100000,0,0,0.000000,3,2.000000,0.000000,7.170300,0,0,0,0,0,0,0
6,69999,7,60000,15,10000,1,9999,0.100000,0,0,0.000000,3,6.000000,0.000000,11.520998,0,0,0,0,0,0,0
6,69999,8,60000,4,0,1,9999,0.100000,0,0,0.000000,3,1.000000,0.000000,4.332965,0,0,0,0,0,0,0
6,69999,9,60000,15,10000,0,9999,0.100000,0,0,0.000000,3,0.000000,0.000000,0.075002,0,0,0,0,0,0,0
6,69999,10,60000,4,0,0,9999,0.100000,0,0,0.000000,3,0.000000,0.000000,0.726558,0,0,0,0,0,0,0
6,69999,11,60000,15,10000,0,9999,0.100000,0,0,0.000000,3,0.000000,0.000000,0.990802,0,0,0,0,0,0,0
6,69999,12,60000,47,10000,0,9999,0.100000,0,0,0.000000,3,0.000000,0.000000,0.830804,0,0,0,0,0,0,0
6,69999,13,60000,47,10000,1,9999,0.100000,0,0,0.000000,3,3.000000,0.000000,6.022577,0,0,0,0,0,0,0
6,69999,14,60000,4,0,0,9999,0.100000,0,0,0.000000,3,0.000000,0.000000,4.808367,0,0,0,0,0,0,0
6,69999,15,60000,15,10000,0,9999,0.100000,0,0,0.000000,3,0.000000,0.000000,0.159139,0,0,0,0,0,0,0
6,69999,16,60000,15,10000,0,9999,0.100000,0,0,0.000000,3,0.000000,0.000000,1.485164,0,0,0,0,0,0,0
6,69999,17,60000,47,10000,0,9999,0.100000,0,0,0.000000,3,0.000000,0.000000,0.121401,0,0,0,0,0,0,0
6,69999,18,60000,4,0,0,9999,0.100000,0,0,0.000000,3,0.000000,0.000000,4.384079,0,0,0,0,0,0,0
6,69999,19,60000,47,10000,0,9999,0.100000,0,0,0.000000,3,0.000000,0.000000,1.726364,0,0,0,0,0,0,0
6,69999,20,60000,47,10000,0,9999,0.100000,0,0,0.000000,3,0.000000,0.000000,0.243025,0,0,0,0,0,0,0
6,69999,21,60000,15,10000,0,9999,0.065000,0,0,0.000000,3,0.000000,0.000000,1.221463,0,0,0,0,0,0,0
6,69999,22,60000,15,10000,0,9999,0.100000,0,0,0.000000,3,0.000000,0.000000,1.617985,0,0,0,0,0,0,0
6,69999,23,60000,47,10000,0,9999,0.100000,0,0,0.000000,3,0.000000,0.000000,0.488885,0,0,0,0,0,0,0
6,69999,24,60000,15,10000,1,9999,0.100000,0,0,0.000000,3,1.000000,0.000000,14.985037,0,0,0,0,0,0,0
6,69999,25,60000,4,0,0,9999,0.100000,0,0,0.000000,3,0.000000,0.000000,0.982153,0,0,0,0,0,0,0
6,69999,26,60000,47,10000,0,9999,0.100000,0,0,0.000000,3,0.000000,0.000000,3.677094,0,0,0,0,0,0,0
6,69999,27,60000,4,0,0,9999,0.100000,0,0,0.000000,3,0.000000,0.000000,0.239178,0,0,0,0,0,0,0
6,69999,28,60000,47,10000,0,9999,0.100000,0,0,0.000000,3,0.000000,0.000000,0.980262,0,0,0,0,0,0,0
6,69999,29,60000,4,0,0,9999,0.100000,0,0,0.000000,3,0.000000,0.000000,0.687834,0,0,0,0,0,0,0
6,69999,30,60000,47,10000,0,9999,0.100000,0,0,0.000000,3,0.000000,0.000000,0.117381,0,0,0,0,0,0,0
6,69999,31,60000,15,10000,1,9999,0.100000,0,0,0.000000,3,1.000000,0.000000,2.587329,0,0,0,0,0,0,0
6,69999,32,60000,47,10000,0,9999,0.100000,0,0,0.000000,3,0.000000,0.000000,0.664465,0,0,0,0,0,0,0
6,69999,33,60000,15,10000,0,9999,0.100000,0,0,0.000000,3,0.000000,0.000000,0.945589,0,0,0,0,0,0,0
6,69999,34,60000,47,10000,1,9999,0.100000,0,0,0.000000,3,8.000000,0.000000,28.814873,0,0,0,0,0,0,0
6,69999,35,60000,47,10000,0,9999,0.100000,0,0,0.000000,3,0.000000,0.000000,0.735916,0,0,0,0,0,0,0
6,69999,36,60000,4,0,1,9999,0.100000,0,0,0.000000,3,1.000000,0.000000,7.920806,0,0,0,0,0,0,0
6,69999,37,60000,15,10000,0,9999,0.100000,0,0,0.000000,3,0.000000,0.000000,1.087681,0,0,0,0,0,0,0
6,69999,38,60000,47,10000,1,9999,0.100000,0,0,0.000000,3,1.000000,0.000000,8.100197,0,0,0,0,0,0,0
6,69999,39,60000,15,10000,0,9999,0.100000,0,0,0.000000,3,0.000000,0.000000,0.538252,0,0,0,0,0,0,0
6,69999,40,60000,15,10000,1,9999,0.100000,0,0,0.000000,3,4.000000,0.000000,12.438636,0,0,0,0,0,0,0
6,69999,41,60000,15,10000,0,9999,0.100000,0,0,0.000000,3,0.000000,0.000000,1.299326,0,0,0,0,0,0,0
6,69999,42,60000,4,0,1,9999,0.100000,0,0,0.000000,3,1.000000,0.000000,1.918764,0,0,0,0,0,0,0
6,69999,43,60000,47,10000,3,9999,0.100000,0,0,0.000000,3,3.000000,0.000000,5.046521,0,0,1,0,0,0,0
6,69999,44,60000,47,10000,1,9999,0.100000,0,0,0.000000,3,2.000000,0.000000,10.989654,0,0,0,0,0,0,0
6,69999,45,60000,4,0,1,9999,0.100000,0,0,34.210526,3,11.000000,0.000000,13.236650,0,0,0,0,0,1,0
6,69999,46,60000,47,10000,0,9999,0.100000,0,0,0.000000,3,0.000000,0.000000,0.048041,0,0,0,0,0,0,0
6,69999,47,60000,47,10000,0,9999,0.065000,0,0,0.000000,3,0.000000,0.000000,1.640368,0,0,0,0,0,0,0
6,69999,48,60000,4,0,1,9999,0.100000,0,0,0.000000,3,1.000000,0.000000,5.859919,0,0,0,0,0,0,0
6,69999,49,60000,47,10000,0,9999,0.100000,0,0,0.000000,3,0.000000,0.000000,21.587313,0,0,0,0,0,0,0
6,69999,50,60000,4,0,0,9999,0.100000,0,0,0.000000,3,0.000000,0.000000,0.108626,0,0,0,0,0,0,0
6,69999,51,60000,47,10000,0,9999,0.100000,0,0,0.000000,3,0.000000,0.000000,0.989503,0,0,0,0,0,0,0
6,69999,52,60000,4,0,1,9999,0.100000,0,0,0.000000,3,1.000000,0.000000,10.285427,0,0,0,0,0,0,0
6,69999,53,60000,15,10000,0,9999,0.100000,0,0,0.000000,3,0.000000,0.000000,1.044323,0,0,0,0,0,0,0
6,69999,54,60000,4,0,0,9999,0.100000,0,0,0.000000,3,0.000000,0.000000,1.306918,0,0,0,0,0,0,0
6,69999,55,60000,15,10000,1,9999,0.100000,0,0,0.000000,3,5.000000,0.000000,11.811353,0,0,0,0,0,0,0
6,69999,56,60000,15,10000,1,9999,0.100000,0,0,0.000000,3,2.000000,0.000000,21.748135,0,0,0,0,0,0,0
6,69999,57,60000,15,10000,0,9999,0.100000,0,0,0.000000,3,0.000000,0.000000,2.041870,0,0,0,0,0,0,0
6,69999,58,60000,47,10000,1,9999,0.100000,0,0,0.000000,3,6.000000,0.000000,9.184169,0,0,0,0,0,0,0
6,69999,59,60000,47,10000,0,9999,0.100000,0,0,0.000000,3,0.000000,0.000000,0.038744,0,0,0,0,0,0,0
6,69999,60,60000,15,10000,0,9999,0.100000,0,0,0.000000,3,0.000000,0.000000,0.580989,0,0,0,0,0,0,0
6,69999,61,60000,47,10000,1,9999,0.100000,0,0,0.000000,3,1.000000,0.000000,8.047143,0,0,0,0,0,0,0
6,69999,62,60000,47,10000,1,9999,0.100000,0,0,0.000000,3,1.000000,0.000000,13.084393,0,0,0,0,0,0,0
6,69999,63,60000,4,0,1,9999,0.100000,0,0,0.000000,3,3.000000,0.000000,16.750399,0,0,0,0,0,0,0
6,69999,64,60000,4,0,0,9999,0.100000,0,0,0.000000,3,0.000000,0.000000,0.956904,0,0,0,0,0,0,0
6,69999,65,60000,47,10000,1,9999,0.100000,0,0,0.000000,3,4.000000,0.000000,14.819936,0,0,0,0,0,0,0
6,69999,66,60000,4,0,0,9999,0.100000,0,0,0.000000,3,0.000000,0.000000,0.763449,0,0,0,0,0,0,0
6,69999,67,60000,15,10000,0,9999,0.135000,0,0,0.000000,3,0.000000,0.000000,0.070306,0,0,0,0,0,0,0
6,69999,68,60000,15,10000,0,9999,0.100000,0,0,0.000000,3,0.000000,0.000000,0.435049,0,0,0,0,0,0,0
6,69999,69,60000,47,10000,1,9999,0.100000,0,0,0.000000,3,1.000000,0.000000,4.765217,0,0,0,0,0,0,0
6,69999,70,60000,4,0,1,9999,0.100000,0,0,0.000000,3,1.000000,0.000000,2.825763,0,0,0,0,0,0,0
6,69999,71,60000,15,10000,1,9999,0.100000,0,0,34.210526,3,11.000000,0.000000,13.328578,0,0,0,0,0,1,0
6,69999,72,60000,15,10000,0,9999,0.100000,0,0,0.000000,3,0.000000,0.000000,1.180174,0,0,0,0,0,0,0
6,69999,73,60000,15,10000,0,9999,0.100000,0,0,0.000000,3,0.000000,0.000000,1.105107,0,0,0,0,0,0,0
6,69999,74,60000,47,10000,0,9999,0.100000,0,0,0.000000,3,0.000000,0.000000,0.221879,0,0,0,0,0,0,0
6,69999,75,60000,47,10000,3,9999,0.100000,0,0,38.543287,3,1.000000,0.000000,5.261615,0,0,1,0,0,0,0
6,69999,76,60000,4,0,1,9999,0.100000,0,0,0.000000,3,1.000000,0.000000,4.504476,0,0,0,0,0,0,0
6,69999,77,60000,15,10000,0,9999,0.100000,0,0,0.000000,3,0.000000,0.000000,1.092474,0,0,0,0,0,0,0
6,69999,78,60000,47,10000,0,9999,0.100000,0,0,0.000000,3,0.000000,0.000000,1.621715,0,0,0,0,0,0,0
6,69999,79,60000,4,0,0,9999,0.100000,0,0,0.000000,3,0.000000,0.000000,1.349880,0,0,0,0,0,0,0
6,69999,80,60000,47,10000,1,9999,0.100000,0,0,0.000000,3,1.000000,0.000000,9.954443,0,0,0,0,0,0,0
6,69999,81,60000,47,10000,0,9999,0.100000,0,0,0.000000,3,0.000000,0.000000,2.916122,0,0,0,0,0,0,0
6,69999,82,60000,4,0,0,9999,0.100000,0,0,0.000000,3,0.000000,0.000000,0.100065,0,0,0,0,0,0,0
6,69999,83,60000,15,10000,0,9999,0.100000,0,0,0.000000,3,0.000000,0.000000,1.027934,0,0,0,0,0,0,0
6,69999,84,60000,4,0,1,9999,0.100000,0,0,34.210526,3,12.000000,0.000000,12.816278,0,0,0,0,0,1,0
6,69999,85,60000,4,0,1,9999,0.100000,0,0,0.000000,3,7.000000,0.000000,9.938260,0,0,0,0,0,0,0
6,69999,86,60000,47,10000,1,9999,0.100000,0,0,0.000000,3,1.000000,0.000000,3.246919,0,0,0,0,0,0,0
6,69999,87,60000,47,10000,1,9999,0.100000,0,0,0.000000,3,7.000000,0.000000,13.160509,0,0,0,0,0,0,0
6,69999,88,60000,4,0,0,9999,0.100000,0,0,0.000000,3,0.000000,0.000000,6.756026,0,0,0,0,0,0,0
6,69999,89,60000,15,10000,0,9999,0.100000,0,0,0.000000,3,0.000000,0.000000,0.983979,0,0,0,0,0,0,0
6,69999,90,60000,47,10000,0,9999,0.100000,0,0,0.000000,3,0.000000,0.000000,0.242981,0,0,0,0,0,0,0
6,69999,91,60000,15,10000,0,9999,0.100000,0,0,0.000000,3,0.000000,0.000000,0.074930,0,0,0,0,0,0,0
6,69999,92,60000,15,10000,0,9999,0.100000,0,0,0.000000,3,0.000000,0.000000,0.224102,0,0,0,0,0,0,0
6,69999,93,60000,15,10000,1,9999,0.100000,0,0,34.210526,3,12.000000,0.000000,12.604500,0,0,0,0,0,1,0
6,69999,94,60000,47,10000,1,9999,0.100000,0,0,0.000000,3,2.000000,0.000000,5.793013,0,0,0,0,0,0,0
6,69999,95,60000,4,0,1,9999,0.100000,0,0,0.000000,3,1.000000,0.000000,11.939470,0,0,0,0,0,0,0
6,69999,96,60000,15,10000,1,9999,0.100000,0,0,0.000000,3,4.000000,0.000000,11.505929,0,0,0,0,0,0,0
6,69999,97,60000,4,0,1,9999,0.100000,0,0,0.000000,3,1.000000,0.000000,5.055642,0,0,0,0,0,0,0
6,69999,98,60000,15,10000,0,9999,0.100000,0,0,0.000000,3,0.000000,0.000000,0.043223,0,0,0,0,0,0,0
6,69999,99,60000,15,10000,0,9999,0.100000,0,0,0.000000,3,0.000000,0.000000,0.196145,0,0,0,0,0,0,0
7,79999,0,70000,15,10000,0,9999,0.135000,0,0,0.000000,3,0.000000,0.000000,1.479703,0,0,0,0,0,0,0
7,79999,1,70000,47,10000,0,9999,0.100000,0,0,0.000000,3,0.000000,0.000000,0.484689,0,0,0,0,0,0,0
7,79999,2,70000,4,0,1,9999,0.100000,0,0,0.000000,3,3.000000,0.000000,4.284020,0,0,0,0,0,0,0
7,79999,3,70000,4,0,1,9999,0.100000,0,0,0.000000,3,1.000000,0.000000,4.078610,0,0,0,0,0,0,0
7,79999,4,70000,4,0,0,9999,0.100000,0,0,0.000000,3,0.000000,0.000000,0.109389,0,0,0,0,0,0,0
7,79999,5,70000,15,10000,0,9999,0.100000,0,0,0.000000,3,0.000000,0.000000,5.007230,0,0,0,0,0,0,0
7,79999,6,70000,47,10000,1,9999,0.100000,0,0,0.000000,3,3.000000,0.000000,11.088491,0,0,0,0,0,0,0
7,79999,7,70000,15,10000,1,9999,0.100000,0,0,0.000000,3,6.000000,0.000000,12.560929,0,0,0,0,0,0,0
7,79999,8,70000,15,10000,1,9999,0.100000,0,0,0.000000,3,4.000000,0.000000,13.764059,0,0,0,0,0,0,0
7,79999,9,70000,15,10000,0,9999,0.100000,0,0,0.000000,3,0.000000,0.000000,0.084900,0,0,0,0,0,0,0
7,79999,10,70000,4,0,0,9999,0.100000,0,0,0.000000,3,0.000000,0.000000,0.863593,0,0,0,0,0,0,0
7,79999,11,70000,15,10000,0,9999,0.100000,0,0,0.000000,3,0.000000,0.000000,1.525321,0,0,0,0,0,0,0
7,79999,12,70000,4,0,0,9999,0.100000,0,0,0.000000,3,0.000000,0.000000,1.356015,0,0,0,0,0,0,0
7,79999,13,70000,47,10000,0,9999,0.100000,0,0,0.000000,3,0.000000,0.000000,1.217698,0,0,0,0,0,0,0
7,79999,14,70000,15,10000,1,9999,0.100000,0,0,0.000000,3,1.000000,0.000000,2.570322,0,0,0,0,0,0,0
7,79999,15,70000,4,0,0,9999,0.100000,0,0,0.000000,3,0.000000,0.000000,0.150561,0,0,0,0,0,0,0
7,79999,16,70000,4,0,0,9999,0.100000,0,0,0.000000,3,0.000000,0.000000,0.009277,0,0,0,0,0,0,0
7,79999,17,70000,15,10000,0,9999,0.100000,0,0,0.000000,3,0.000000,0.000000,0.125071,0,0,0,0,0,0,0
7,79999,18,70000,47,10000,1,9999,0.100000,0,0,0.000000,3,1.000000,0.000000,9.755918,0,0,0,0,0,0,0
7,79999,19,70000,47,10000,0,9999,0.100000,0,0,0.000000,3,0.000000,0.000000,0.441804,0,0,0,0,0,0,0
7,79999,20,70000,15,10000,0,9999,0.100000,0,0,0.000000,3,0.000000,0.000000,0.363965,0,0,0,0,0,0,0
7,79999,21,70000,4,0,0,9999,0.100000,0,0,0.000000,3,0.000000,0.000000,1.235914,0,0,0,0,0,0,0
7,79999,22,70000,47,10000,1,9999,0.135000,0,0,0.000000,3,1.000000,0.000000,5.036617,0,0,0,0,0,0,0
7,79999,23,70000,4,0,0,9999,0.100000,0,0,0.000000,3,0.000000,0.000000,0.499835,0,0,0,0,0,0,0
7,79999,24,70000,4,0,1,9999,0.100000,0,0,0.000000,3,2.000000,0.000000,14.090487,0,0,0,0,0,0,0
7,79999,25,70000,47,10000,1,9999,0.100000,0,0,0.000000,3,6.000000,0.000000,10.086489,0,0,0,0,0,0,0
7,79999,26,70000,4,0,1,9999,0.100000,0,0,0.000000,3,5.000000,0.000000,15.885365,0,0,0,0,0,0,0
7,79999,27,70000,15,10000,0,9999,0.100000,0,0,0.000000,3,0.000000,0.000000,0.246432,0,0,0,0,0,0,0
7,79999,28,70000,47,10000,1,9999,0.100000,0,0,0.000000,3,1.000000,0.000000,1.109702,0,0,0,0,0,0,0
7,79999,29,70000,47,10000,0,9999,0.100000,0,0,0.000000,3,0.000000,0.000000,1.135812,0,0,0,0,0,0,0
7,79999,30,70000,15,10000,0,9999,0.100000,0,0,0.000000,3,0.000000,0.000000,0.131646,0,0,0,0,0,0,0
7,79999,31,70000,15,10000,1,9999,0.100000,0,0,0.000000,3,1.000000,0.000000,3.472758,0,0,0,0,0,0,0
7,79999,32,70000,47,10000,0,9999,0.100000,0,0,0.000000,3,0.000000,0.000000,0.942768,0,0,0,0,0,0,0
7,79999,33,70000,4,0,0,9999,0.100000,0,0,0.000000,3,0.000000,0.000000,1.354779,0,0,0,0,0,0,0
7,79999,34,70000,47,10000,1,9999,0.100000,0,0,0.000000,3,1.000000,0.000000,2.919582,0,0,0,0,0,0,0
7,79999,35,70000,47,10000,0,9999,0.100000,0,0,0.000000,3,0.000000,0.000000,0.896187,0,0,0,0,0,0,0
7,79999,36,70000,15,10000,1,9999,0.100000,0,0,0.000000,3,1.000000,0.000000,3.979373,0,0,0,0,0,0,0
7,79999,37,70000,4,0,0,9999,0.100000,0,0,0.000000,3,0.000000,0.000000,0.086319,0,0,0,0,0,0,0
7,79999,38,70000,4,0,0,9999,0.100000,0,0,0.000000,3,0.000000,0.000000,9.688377,0,0,0,0,0,0,0
7,79999,39,70000,15,10000,0,9999,0.100000,0,0,0.000000,3,0.000000,0.000000,0.587847,0,0,0,0,0,0,0
7,79999,40,70000,47,10000,1,9999,0.100000,0,0,0.000000,3,1.000000,0.000000,7.293313,0,0,0,0,0,0,0
7,79999,41,70000,4,0,0,9999,0.100000,0,0,0.000000,3,0.000000,0.000000,6.000825,0,0,0,0,0,0,0
7,79999,42,70000,4,0,1,9999,0.100000,0,0,0.000000,3,3.000000,0.000000,13.375807,0,0,0,0,0,0,0
7,79999,43,70000,4,0,0,9999,0.100000,0,0,0.000000,3,0.000000,0.000000,0.597278,0,0,0,0,0,0,0
7,79999,44,70000,47,10000,1,9999,0.100000,0,0,0.000000,3,2.000000,0.000000,6.885678,0,0,0,0,0,0,0
7,79999,45,70000,4,0,1,9999,0.100000,0,0,0.000000,3,1.000000,0.000000,10.590640,0,0,0,0,0,0,0
7,79999,46,70000,4,0,0,9999,0.100000,0,0,0.000000,3,0.000000,0.000000,0.048152,0,0,0,0,0,0,0
7,79999,47,70000,47,10000,0,9999,0.100000,0,0,0.000000,3,0.000000,0.000000,0.342150,0,0,0,0,0,0,0
7,79999,48,70000,15,10000,1,9999,0.100000,0,0,0.000000,3,3.000000,0.000000,4.512870,0,0,0,0,0,0,0
7,79999,49,70000,47,10000,0,9999,0.100000,0,0,0.000000,3,0.000000,0.000000,21.364994,0,0,0,0,0,0,0
7,79999,50,70000,47,10000,0,9999,0.100000,0,0,0.000000,3,0.000000,0.000000,0.127852,0,0,0,0,0,0,0
7,79999,51,70000,4,0,0,9999,0.100000,0,0,0.000000,3,0.000000,0.000000,1.100489,0,0,0,0,0,0,0
7,79999,52,70000,47,10000,1,9999,0.100000,0,0,0.000000,3,1.000000,0.000000,9.613401,0,0,0,0,0,0,0
7,79999,53,70000,15,10000,0,9999,0.100000,0,0,0.000000,3,0.000000,0.000000,1.420119,0,0,0,0,0,0,0
7,79999,54,70000,47,10000,0,9999,0.100000,0,0,0.000000,3,0.000000,0.000000,1.198233,0,0,0,0,0,0,0
7,79999,55,70000,15,10000,1,9999,0.100000,0,0,0.000000,3,6.000000,0.000000,12.550683,0,0,0,0,0,0,0
7,79999,56,70000,4,0,0,9999,0.100000,0,0,0.000000,3,0.000000,0.000000,21.707371,0,0,0,0,0,0,0
7,79999,57,70000,47,10000,0,9999,0.100000,0,0,0.000000,3,0.000000,0.000000,1.230629,0,0,0,0,0,0,0
7,79999,58,70000,4,0,1,9999,0.100000,0,0,0.000000,3,1.000000,0.000000,1.788435,0,0,0,0,0,0,0
7,79999,59,70000,4,0,0,9999,0.100000,0,0,0.000000,3,0.000000,0.000000,0.038819,0,0,0,0,0,0,0
7,79999,60,70000,4,0,0,9999,0.100000,0,0,0.000000,3,0.000000,0.000000,0.691998,0,0,0,0,0,0,0
7,79999,61,70000,15,10000,1,9999,0.100000,0,0,0.000000,3,1.000000,0.000000,1.593113,0,0,0,0,0,0,0
7,79999,62,70000,15,10000,1,9999,0.100000,0,0,0.000000,3,1.000000,0.000000,7.691061,0,0,0,0,0,0,0
7,79999,63,70000,47,10000,1,9999,0.100000,0,0,0.000000,3,5.000000,0.000000,8.782165,0,0,0,0,0,0,0
7,79999,64,70000,15,10000,1,9999,0.100000,0,0,0.000000,3,1.000000,0.000000,4.382751,0,0,0,0,0,0,0
7,79999,65,70000,15,10000,1,9999,0.100000,0,0,0.000000,3,1.000000,0.000000,3.023808,0,0,0,0,0,0,0
7,79999,66,70000,4,0,0,9999,0.100000,0,0,0.000000,3,0.000000,0.000000,0.761148,0,0,0,0,0,0,0
7,79999,67,70000,47,10000,0,9999,0.100000,0,0,0.000000,3,0.000000,0.000000,0.083714,0,0,0,0,0,0,0
7,79999,68,70000,15,10000,0,9999,0.100000,0,0,0.000000,3,0.000000,0.000000,0.742292,0,0,0,0,0,0,0
7,79999,69,70000,15,10000,1,9999,0.135000,0,0,0.000000,3,4.000000,0.000000,18.100022,0,0,0,0,0,0,0
7,79999,70,70000,4,0,1,9999,0.100000,0,0,0.000000,3,1.000000,0.000000,7.202239,0,0,0,0,0,0,0
7,79999,71,70000,4,0,0,9999,0.100000,0,0,0.000000,3,0.000000,0.000000,5.492074,0,0,0,0,0,0,0
7,79999,72,70000,4,0,0,9999,0.100000,0,0,0.000000,3,0.000000,0.000000,1.149272,0,0,0,0,0,0,0
7,79999,73,70000,47,10000,1,9999,0.100000,0,0,0.000000,3,2.000000,0.000000,5.727856,0,0,0,0,0,0,0
7,79999,74,70000,47,10000,0,9999,0.100000,0,0,0.000000,3,0.000000,0.000000,0.217097,0,0,0,0,0,0,0
7,79999,75,70000,15,10000,1,9999,0.100000,0,0,0.000000,3,1.000000,0.000000,14.690728,0,0,0,0,0,0,0
7,79999,76,70000,4,0,1,9999,0.100000,0,0,0.000000,3,1.000000,0.000000,6.212830,0,0,0,0,0,0,0
7,79999,77,70000,15,10000,1,9999,0.100000,0,0,0.000000,3,3.000000,0.000000,3.486354,0,0,0,0,0,0,0
7,79999,78,70000,47,10000,0,9999,0.100000,0,0,0.000000,3,0.000000,0.000000,0.009273,0,0,0,0,0,0,0
7,79999,79,70000,4,0,1,9999,0.100000,0,0,0.000000,3,1.000000,0.000000,5.198245,0,0,0,0,0,0,0
7,79999,80,70000,4,0,1,9999,0.100000,0,0,0.000000,3,1.000000,0.000000,5.203031,0,0,0,0,0,0,0
7,79999,81,70000,47,10000,0,9999,0.100000,0,0,0.000000,3,0.000000,0.000000,0.131848,0,0,0,0,0,0,0
7,79999,82,70000,15,10000,0,9999,0.100000,0,0,0.000000,3,0.000000,0.000000,0.101384,0,0,0,0,0,0,0
7,79999,83,70000,4,0,0,9999,0.100000,0,0,0.000000,3,0.000000,0.000000,1.226511,0,0,0,0,0,0,0
7,79999,84,70000,15,10000,0,9999,0.100000,0,0,0.000000,3,0.000000,0.000000,1.723148,0,0,0,0,0,0,0
7,79999,85,70000,15,10000,1,9999,0.100000,0,0,0.000000,3,8.000000,0.000000,11.505960,0,0,0,0,0,0,0
7,79999,86,70000,15,10000,1,9999,0.100000,0,0,0.000000,3,1.000000,0.000000,3.931633,0,0,0,0,0,0,0
7,79999,87,70000,47,10000,1,9999,0.100000,0,0,0.000000,3,2.000000,0.000000,6.320613,0,0,0,0,0,0,0
7,79999,88,70000,15,10000,1,9999,0.100000,0,0,0.000000,3,1.000000,0.000000,12.896586,0,0,0,0,0,0,0
7,79999,89,70000,15,10000,1,9999,0.100000,0,0,0.000000,3,3.000000,0.000000,3.375621,0,0,0,0,0,0,0
7,79999,90,70000,4,0,0,9999,0.100000,0,0,0.000000,3,0.000000,0.000000,0.239293,0,0,0,0,0,0,0
7,79999,91,70000,47,10000,0,9999,0.100000,0,0,0.000000,3,0.000000,0.000000,0.075370,0,0,0,0,0,0,0
7,79999,92,70000,4,0,0,9999,0.100000,0,0,0.000000,3,0.000000,0.000000,0.228262,0,0,0,0,0,0,0
7,79999,93,70000,15,10000,1,9999,0.100000,0,0,0.000000,3,1.000000,0.000000,7.900296,0,0,0,0,0,0,0
7,79999,94,70000,4,0,1,9999,0.100000,0,0,0.000000,3,2.000000,0.000000,10.500323,0,0,0,0,0,0,0
7,79999,95,70000,15,10000,0,9999,0.100000,0,0,0.000000,3,0.000000,0.000000,18.523351,0,0,0,0,0,0,0
7,79999,96,70000,15,10000,0,9999,0.100000,0,0,0.000000,3,0.000000,0.000000,3.743612,0,0,0,0,0,0,0
7,79999,97,70000,4,0,1,9999,0.100000,0,0,0.000000,3,1.000000,0.000000,7.874996,0,0,0,0,0,0,0
7,79999,98,70000,4,0,0,9999,0.100000,0,0,0.000000,3,0.000000,0.000000,0.041968,0,0,0,0,0,0,0
7,79999,99,70000,15,10000,0,9999,0.100000,0,0,0.000000,3,0.000000,0.000000,0.261632,0,0,0,0,0,0,0
8,89999,0,80000,47,10000,0,9999,0.100000,0,0,0.000000,3,0.000000,0.000000,1.326693,0,0,0,0,0,0,0
8,89999,1,80000,15,10000,0,9999,0.100000,0,0,0.000000,3,0.000000,0.000000,0.483996,0,0,0,0,0,0,0
8,89999,2,80000,4,0,0,9999,0.100000,0,0,0.000000,3,0.000000,0.000000,1.025215,0,0,0,0,0,0,0
8,89999,3,80000,15,10000,1,9999,0.100000,0,0,0.000000,3,1.000000,0.000000,16.944306,0,0,0,0,0,0,0
8,89999,4,80000,47,10000,0,9999,0.100000,0,0,0.000000,3,0.000000,0.000000,0.105386,0,0,0,0,0,0,0
8,89999,5,80000,15,10000,0,9999,0.100000,0,0,0.000000,3,0.000000,0.000000,1.490112,0,0,0,0,0,0,0
8,89999,6,80000,15,10000,1,9999,0.100000,0,0,0.000000,3,8.000000,0.000000,11.148446,0,0,0,0,0,0,0
8,89999,7,80000,4,0,1,9999,0.100000,0,0,0.000000,3,1.000000,0.000000,14.920401,0,0,0,0,0,0,0
8,89999,8,80000,4,0,1,9999,0.100000,0,0,0.000000,3,5.000000,0.000000,13.851413,0,0,0,0,0,0,0
8,89999,9,80000,15,10000,0,9999,0.100000,0,0,0.000000,3,0.000000,0.000000,0.618833,0,0,0,0,0,0,0
8,89999,10,80000,15,10000,0,9999,0.100000,0,0,0.000000,3,0.000000,0.000000,1.404409,0,0,0,0,0,0,0
8,89999,11,80000,4,0,0,9999,0.100000,0,0,0.000000,3,0.000000,0.000000,1.848944,0,0,0,0,0,0,0
8,89999,12,80000,4,0,0,9999,0.100000,0,0,0.000000,3,0.000000,0.000000,3.405987,0,0,0,0,0,0,0
8,89999,13,80000,4,0,0,9999,0.100000,0,0,0.000000,3,0.000000,0.000000,0.684161,0,0,0,0,0,0,0
8,89999,14,80000,4,0,1,9999,0.100000,0,0,0.000000,3,1.000000,0.000000,5.165597,0,0,0,0,0,0,0
8,89999,15,80000,47,10000,0,9999,0.100000,0,0,0.000000,3,0.000000,0.000000,0.184184,0,0,0,0,0,0,0
8,89999,16,80000,4,0,0,9999,0.100000,0,0,0.000000,3,0.000000,0.000000,0.009257,0,0,0,0,0,0,0
8,89999,17,80000,15,10000,0,9999,0.100000,0,0,0.000000,3,0.000000,0.000000,0.125145,0,0,0,0,0,0,0
8,89999,18,80000,4,0,0,9999,0.100000,0,0,0.000000,3,0.000000,0.000000,7.444900,0,0,0,0,0,0,0
8,89999,19,80000,4,0,0,9999,0.100000,0,0,0.000000,3,0.000000,0.000000,0.109286,0,0,0,0,0,0,0
8,89999,20,80000,15,10000,0,9999,0.100000,0,0,0.000000,3,0.000000,0.000000,0.224638,0,0,0,0,0,0,0
8,89999,21,80000,4,0,0,9999,0.100000,0,0,0.000000,3,0.000000,0.000000,1.533346,0,0,0,0,0,0,0
8,89999,22,80000,15,10000,1,9999,0.100000,0,0,0.000000,3,1.000000,0.000000,13.612098,0,0,0,0,0,0,0
8,89999,23,80000,47,10000,0,9999,0.100000,0,0,0.000000,3,0.000000,0.000000,1.428576,0,0,0,0,0,0,0
8,89999,24,80000,4,0,1,9999,0.100000,0,0,0.000000,3,1.000000,0.000000,5.705797,0,0,0,0,0,0,0
8,89999,25,80000,4,0,0,9999,0.100000,0,0,0.000000,3,0.000000,0.000000,21.957406,0,0,0,0,0,0,0
8,89999,26,80000,4,0,1,9999,0.100000,0,0,0.000000,3,4.000000,0.000000,7.242509,0,0,0,0,0,0,0
8,89999,27,80000,47,10000,0,9999,0.100000,0,0,0.000000,3,0.000000,0.000000,0.225173,0,0,0,0,0,0,0
8,89999,28,80000,4,0,0,9999,0.100000,0,0,0.000000,3,0.000000,0.000000,0.910088,0,0,0,0,0,0,0
8,89999,29,80000,15,10000,0,9999,0.100000,0,0,0.000000,3,0.000000,0.000000,0.627859,0,0,0,0,0,0,0
8,89999,30,80000,4,0,0,9999,0.100000,0,0,0.000000,3,0.000000,0.000000,0.157591,0,0,0,0,0,0,0
8,89999,31,80000,15,10000,0,9999,0.100000,0,0,0.000000,3,0.000000,0.000000,0.726980,0,0,0,0,0,0,0
8,89999,32,80000,4,0,0,9999,0.100000,0,0,0.000000,3,0.000000,0.000000,0.719137,0,0,0,0,0,0,0
8,89999,33,80000,4,0,0,9999,0.100000,0,0,0.000000,3,0.000000,0.000000,0.849168,0,0,0,0,0,0,0
8,89999,34,80000,15,10000,0,9999,0.100000,0,0,0.000000,3,0.000000,0.000000,0.865349,0,0,0,0,0,0,0
8,89999,35,80000,15,10000,0,9999,0.100000,0,0,0.000000,3,0.000000,0.000000,2.735949,0,0,0,0,0,0,0
8,89999,36,80000,15,10000,0,9999,0.100000,0,0,0.000000,3,0.000000,0.000000,2.359760,0,0,0,0,0,0,0
8,89999,37,80000,15,10000,0,9999,0.100000,0,0,0.000000,3,0.000000,0.000000,0.091115,0,0,0,0,0,0,0
8,89999,38,80000,15,10000,1,9999,0.100000,0,0,0.000000,3,3.000000,0.000000,21.251967,0,0,0,0,0,0,0
8,89999,39,80000,15,10000,0,9999,0.100000,0,0,0.000000,3,0.000000,0.000000,1.452990,0,0,0,0,0,0,0
8,89999,40,80000,4,0,1,9999,0.100000,0,0,0.000000,3,3.000000,0.000000,7.315522,0,0,0,0,0,0,0
8,89999,41,80000,15,10000,0,9999,0.100000,0,0,0.000000,3,0.000000,0.000000,3.622446,0,0,0,0,0,0,0
8,89999,42,80000,15,10000,0,9999,0.100000,0,0,0.000000,3,0.000000,0.000000,4.588361,0,0,0,0,0,0,0
8,89999,43,80000,4,0,0,9999,0.100000,0,0,0.000000,3,0.000000,0.000000,0.484486,0,0,0,0,0,0,0
8,89999,44,80000,15,10000,0,9999,0.100000,0,0,0.000000,3,0.000000,0.000000,3.962480,0,0,0,0,0,0,0
8,89999,45,80000,47,10000,1,9999,0.100000,0,0,0.000000,3,2.000000,0.000000,9.868038,0,0,0,0,0,0,0
8,89999,46,80000,47,10000,0,9999,0.100000,0,0,0.000000,3,0.000000,0.000000,0.047131,0,0,0,0,0,0,0
8,89999,47,80000,47,10000,0,9999,0.100000,0,0,0.000000,3,0.000000,0.000000,0.096628,0,0,0,0,0,0,0
8,89999,48,80000,15,10000,0,9999,0.100000,0,0,0.000000,3,0.000000,0.000000,1.190643,0,0,0,0,0,0,0
8,89999,49,80000,4,0,0,9999,0.100000,0,0,0.000000,3,0.000000,0.000000,16.037766,0,0,0,0,0,0,0
8,89999,50,80000,4,0,0,9999,0.100000,0,0,0.000000,3,0.000000,0.000000,0.153812,0,0,0,0,0,0,0
8,89999,51,80000,47,10000,0,9999,0.100000,0,0,0.000000,3,0.000000,0.000000,0.714906,0,0,0,0,0,0,0
8,89999,52,80000,4,0,1,9999,0.100000,0,0,0.000000,3,3.000000,0.000000,9.442950,0,0,0,0,0,0,0
8,89999,53,80000,15,10000,1,9999,0.100000,0,0,0.000000,3,3.000000,0.000000,5.081991,0,0,0,0,0,0,0
8,89999,54,80000,47,10000,0,9999,0.100000,0,0,0.000000,3,0.000000,0.000000,0.754016,0,0,0,0,0,0,0
8,89999,55,80000,47,10000,1,9999,0.100000,0,0,0.000000,3,4.000000,0.000000,19.616476,0,0,0,0,0,0,0
8,89999,56,80000,4,0,1,9999,0.100000,0,0,0.000000,3,1.000000,0.000000,5.410824,0,0,0,0,0,0,0
8,89999,57,80000,4,0,0,9999,0.100000,0,0,0.000000,3,0.000000,0.000000,1.091398,0,0,0,0,0,0,0
8,89999,58,80000,47,10000,0,9999,0.100000,0,0,0.000000,3,0.000000,0.000000,0.126025,0,0,0,0,0,0,0
8,89999,59,80000,4,0,0,9999,0.100000,0,0,0.000000,3,0.000000,0.000000,0.037860,0,0,0,0,0,0,0
8,89999,60,80000,15,10000,0,9999,0.100000,0,0,0.000000,3,0.000000,0.000000,0.781489,0,0,0,0,0,0,0
8,89999,61,80000,47,10000,0,9999,0.100000,0,0,0.000000,3,0.000000,0.000000,1.380258,0,0,0,0,0,0,0
8,89999,62,80000,4,0,1,9999,0.100000,0,0,0.000000,3,2.000000,0.000000,4.100753,0,0,0,0,0,0,0
8,89999,63,80000,15,10000,1,9999,0.100000,0,0,0.000000,3,4.000000,0.000000,13.183069,0,0,0,0,0,0,0
8,89999,64,80000,4,0,0,9999,0.100000,0,0,0.000000,3,0.000000,0.000000,3.326934,0,0,0,0,0,0,0
8,89999,65,80000,47,10000,0,9999,0.100000,0,0,0.000000,3,0.000000,0.000000,1.725866,0,0,0,0,0,0,0
8,89999,66,80000,47,10000,0,9999,0.100000,0,0,0.000000,3,0.000000,0.000000,1.171546,0,0,0,0,0,0,0
8,89999,67,80000,15,10000,0,9999,0.100000,0,0,0.000000,3,0.000000,0.000000,0.160664,0,0,0,0,0,0,0
8,89999,68,80000,15,10000,0,9999,0.100000,0,0,0.000000,3,0.000000,0.000000,4.236569,0,0,0,0,0,0,0
8,89999,69,80000,47,10000,0,9999,0.100000,0,0,0.000000,3,0.000000,0.000000,9.045411,0,0,0,0,0,0,0
8,89999,70,80000,4,0,1,9999,0.100000,0,0,0.000000,3,1.000000,0.000000,5.979860,0,0,0,0,0,0,0
8,89999,71,80000,47,10000,0,9999,0.100000,0,0,0.000000,3,0.000000,0.000000,1.939981,0,0,0,0,0,0,0
8,89999,72,80000,47,10000,0,9999,0.100000,0,0,0.000000,3,0.000000,0.000000,1.057911,0,0,0,0,0,0,0
8,89999,73,80000,4,0,1,9999,0.100000,0,0,0.000000,3,2.000000,0.000000,3.635520,0,0,0,0,0,0,0
8,89999,74,80000,47,10000,0,9999,0.100000,0,0,0.000000,3,0.000000,0.000000,0.218194,0,0,0,0,0,0,0
8,89999,75,80000,4,0,1,9999,0.100000,0,0,0.000000,3,1.000000,0.000000,8.672632,0,0,0,0,0,0,0
8,89999,76,80000,4,0,1,9999,0.100000,0,0,0.000000,3,1.000000,0.000000,7.652523,0,0,0,0,0,0,0
8,89999,77,80000,47,10000,0,9999,0.100000,0,0,0.000000,3,0.000000,0.000000,1.251135,0,0,0,0,0,0,0
8,89999,78,80000,4,0,0,9999,0.100000,0,0,0.000000,3,0.000000,0.000000,0.009204,0,0,0,0,0,0,0
8,89999,79,80000,4,0,1,9999,0.100000,0,0,0.000000,3,5.000000,0.000000,12.506748,0,0,0,0,0,0,0
8,89999,80,80000,15,10000,1,9999,0.100000,0,0,0.000000,3,3.000000,0.000000,15.794541,0,0,0,0,0,0,0
8,89999,81,80000,4,0,0,9999,0.100000,0,0,0.000000,3,0.000000,0.000000,0.138423,0,0,0,0,0,0,0
8,89999,82,80000,15,10000,0,9999,0.100000,0,0,0.000000,3,0.000000,0.000000,0.296758,0,0,0,0,0,0,0
8,89999,83,80000,15,10000,0,9999,0.100000,0,0,0.000000,3,0.000000,0.000000,1.109507,0,0,0,0,0,0,0
8,89999,84,80000,4,0,0,9999,0.100000,0,0,0.000000,3,0.000000,0.000000,0.009352,0,0,0,0,0,0,0
8,89999,85,80000,15,10000,0,9999,0.100000,0,0,0.000000,3,0.000000,0.000000,0.245940,0,0,0,0,0,0,0
8,89999,86,80000,15,10000,0,9999,0.100000,0,0,0.000000,3,0.000000,0.000000,0.919785,0,0,0,0,0,0,0
8,89999,87,80000,15,10000,1,9999,0.100000,0,0,0.000000,3,3.000000,0.000000,14.994156,0,0,0,0,0,0,0
8,89999,88,80000,4,0,0,9999,0.100000,0,0,0.000000,3,0.000000,0.000000,3.734965,0,0,0,0,0,0,0
8,89999,89,80000,15,10000,0,9999,0.100000,0,0,0.000000,3,0.000000,0.000000,1.104135,0,0,0,0,0,0,0
8,89999,90,80000,15,10000,0,9999,0.100000,0,0,0.000000,3,0.000000,0.000000,0.239869,0,0,0,0,0,0,0
8,89999,91,80000,47,10000,0,9999,0.100000,0,0,0.000000,3,0.000000,0.000000,0.076276,0,0,0,0,0,0,0
8,89999,92,80000,4,0,0,9999,0.100000,0,0,0.000000,3,0.000000,0.000000,0.235979,0,0,0,0,0,0,0
8,89999,93,80000,15,10000,1,9999,0.100000,0,0,0.000000,3,1.000000,0.000000,5.571497,0,0,0,0,0,0,0
8,89999,94,80000,4,0,1,9999,0.100000,0,0,0.000000,3,1.000000,0.000000,6.682261,0,0,0,0,0,0,0
8,89999,95,80000,47,10000,0,9999,0.100000,0,0,0.000000,3,0.000000,0.000000,10.949814,0,0,0,0,0,0,0
8,89999,96,80000,4,0,0,9999,0.100000,0,0,0.000000,3,0.000000,0.000000,5.599172,0,0,0,0,0,0,0
8,89999,97,80000,4,0,1,9999,0.100000,0,0,0.000000,3,2.000000,0.000000,4.636624,0,0,0,0,0,0,0
8,89999,98,80000,4,0,0,9999,0.100000,0,0,0.000000,3,0.000000,0.000000,0.040321,0,0,0,0,0,0,0
8,89999,99,80000,47,10000,1,9999,0.100000,0,0,0.000000,3,1.000000,0.000000,5.599936,0,0,0,0,0,0,0
9,99999,0,90000,47,10000,0,9999,0.100000,0,0,0.000000,3,0.000000,0.000000,1.254232,0,0,0,0,0,0,0
9,99999,1,90000,15,10000,0,9999,0.100000,0,0,0.000000,3,0.000000,0.000000,0.404595,0,0,0,0,0,0,0
9,99999,2,90000,47,10000,1,9999,0.100000,0,0,0.000000,3,5.000000,0.000000,6.535121,0,0,0,0,0,0,0
9,99999,3,90000,47,10000,1,9999,0.100000,0,0,0.000000,3,2.000000,0.000000,10.746529,0,0,0,0,0,0,0
9,99999,4,90000,15,10000,0,9999,0.100000,0,0,0.000000,3,0.000000,0.000000,0.108586,0,0,0,0,0,0,0
9,99999,5,90000,47,10000,1,9999,0.100000,0,0,0.000000,3,1.000000,0.000000,12.058476,0,0,0,0,0,0,0
9,99999,6,90000,47,10000,0,9999,0.100000,0,0,0.000000,3,0.000000,0.000000,1.005860,0,0,0,0,0,0,0
9,99999,7,90000,4,0,1,9999,0.100000,0,0,0.000000,3,14.000000,0.000000,22.311460,0,0,0,0,0,0,0
9,99999,8,90000,15,10000,0,9999,0.100000,0,0,0.000000,3,0.000000,0.000000,4.955028,0,0,0,0,0,0,0
9,99999,9,90000,4,0,0,9999,0.100000,0,0,0.000000,3,0.000000,0.000000,0.550991,0,0,0,0,0,0,0
9,99999,10,90000,4,0,0,9999,0.100000,0,0,0.000000,3,0.000000,0.000000,3.767004,0,0,0,0,0,0,0
9,99999,11,90000,4,0,0,9999,0.100000,0,0,0.000000,3,0.000000,0.000000,3.198104,0,0,0,0,0,0,0
9,99999,12,90000,47,10000,1,9999,0.100000,0,0,0.000000,3,1.000000,0.000000,6.852418,0,0,0,0,0,0,0
9,99999,13,90000,4,0,0,9999,0.100000,0,0,0.000000,3,0.000000,0.000000,0.415062,0,0,0,0,0,0,0
9,99999,14,90000,47,10000,1,9999,0.100000,0,0,0.000000,3,2.000000,0.000000,11.609648,0,0,0,0,0,0,0
9,99999,15,90000,4,0,0,9999,0.100000,0,0,0.000000,3,0.000000,0.000000,0.149604,0,0,0,0,0,0,0
9,99999,16,90000,15,10000,1,9999,0.100000,0,0,0.000000,3,4.000000,0.000000,12.936505,0,0,0,0,0,0,0
9,99999,17,90000,4,0,0,9999,0.135000,0,0,0.000000,3,0.000000,0.000000,0.118241,0,0,0,0,0,0,0
9,99999,18,90000,4,0,1,9999,0.100000,0,0,0.000000,3,1.000000,0.000000,9.102886,0,0,0,0,0,0,0
9,99999,19,90000,15,10000,0,9999,0.100000,0,0,0.000000,3,0.000000,0.000000,0.101403,0,0,0,0,0,0,0
9,99999,20,90000,47,10000,0,9999,0.100000,0,0,0.000000,3,0.000000,0.000000,0.247769,0,0,0,0,0,0,0
9,99999,21,90000,15,10000,1,9999,0.100000,0,0,0.000000,3,1.000000,0.000000,2.711297,0,0,0,0,0,0,0
9,99999,22,90000,15,10000,1,9999,0.100000,0,0,0.000000,3,2.000000,0.000000,3.667565,0,0,0,0,0,0,0
9,99999,23,90000,15,10000,1,9999,0.135000,0,0,0.000000,3,13.000000,0.000000,13.935809,0,0,0,0,0,0,0
9,99999,24,90000,15,10000,1,9999,0.100000,0,0,0.000000,3,2.000000,0.000000,10.118659,0,0,0,0,0,0,0
9,99999,25,90000,15,10000,0,9999,0.100000,0,0,0.000000,3,0.000000,0.000000,21.059438,0,0,0,0,0,0,0
9,99999,26,90000,47,10000,1,9999,0.100000,0,0,0.000000,3,2.000000,0.000000,4.042981,0,0,0,0,0,0,0
9,99999,27,90000,15,10000,0,9999,0.100000,0,0,0.000000,3,0.000000,0.000000,0.235308,0,0,0,0,0,0,0
9,99999,28,90000,15,10000,1,9999,0.100000,0,0,0.000000,3,2.000000,0.000000,3.397685,0,0,0,0,0,0,0
9,99999,29,90000,47,10000,0,9999,0.100000,0,0,0.000000,3,0.000000,0.000000,0.417663,0,0,0,0,0,0,0
9,99999,30,90000,15,10000,0,9999,0.100000,0,0,0.000000,3,0.000000,0.000000,0.214609,0,0,0,0,0,0,0
9,99999,31,90000,47,10000,1,9999,0.100000,0,0,0.000000,3,1.000000,0.000000,2.101763,0,0,0,0,0,0,0
9,99999,32,90000,4,0,0,9999,0.100000,0,0,0.000000,3,0.000000,0.000000,0.427333,0,0,0,0,0,0,0
9,99999,33,90000,4,0,1,9999,0.100000,0,0,0.000000,3,1.000000,0.000000,3.681570,0,0,0,0,0,0,0
9,99999,34,90000,4,0,1,9999,0.100000,0,0,0.000000,3,1.000000,0.000000,3.096316,0,0,0,0,0,0,0
9,99999,35,90000,47,10000,1,9999,0.100000,0,0,0.000000,3,3.000000,0.000000,10.300757,0,0,0,0,0,0,0
9,99999,36,90000,4,0,1,9999,0.100000,0,0,0.000000,3,2.000000,0.000000,3.671054,0,0,0,0,0,0,0
9,99999,37,90000,15,10000,0,9999,0.100000,0,0,0.000000,3,0.000000,0.000000,0.087170,0,0,0,0,0,0,0
9,99999,38,90000,47,10000,1,9999,0.100000,0,0,0.000000,3,2.000000,0.000000,12.611107,0,0,0,0,0,0,0
9,99999,39,90000,4,0,0,9999,0.100000,0,0,0.000000,3,0.000000,0.000000,0.478893,0,0,0,0,0,0,0
9,99999,40,90000,4,0,1,9999,0.100000,0,0,0.000000,3,3.000000,0.000000,7.835421,0,0,0,0,0,0,0
9,99999,41,90000,47,10000,1,9999,0.100000,0,0,0.000000,3,1.000000,0.000000,6.431956,0,0,0,0,0,0,0
9,99999,42,90000,15,10000,0,9999,0.100000,0,0,0.000000,3,0.000000,0.000000,3.759030,0,0,0,0,0,0,0
9,99999,43,90000,47,10000,0,9999,0.100000,0,0,0.000000,3,0.000000,0.000000,0.474446,0,0,0,0,0,0,0
9,99999,44,90000,4,0,1,9999,0.100000,0,0,0.000000,3,1.000000,0.000000,5.385985,0,0,0,0,0,0,0
9,99999,45,90000,15,10000,0,9999,0.100000,0,0,0.000000,3,0.000000,0.000000,2.562231,0,0,0,0,0,0,0
9,99999,46,90000,15,10000,0,9999,0.100000,0,0,0.000000,3,0.000000,0.000000,0.047619,0,0,0,0,0,0,0
9,99999,47,90000,15,10000,0,9999,0.100000,0,0,0.000000,3,0.000000,0.000000,0.095530,0,0,0,0,0,0,0
9,99999,48,90000,4,0,1,9999,0.100000,0,0,0.000000,3,5.000000,0.000000,6.563166,0,0,0,0,0,0,0
9,99999,49,90000,47,10000,0,9999,0.100000,0,0,0.000000,3,0.000000,0.000000,8.169708,0,0,0,0,0,0,0
9,99999,50,90000,4,0,0,9999,0.100000,0,0,0.000000,3,0.000000,0.000000,0.467023,0,0,0,0,0,0,0
9,99999,51,90000,47,10000,0,9999,0.100000,0,0,0.000000,3,0.000000,0.000000,0.421122,0,0,0,0,0,0,0
9,99999,52,90000,47,10000,1,9999,0.100000,0,0,0.000000,3,6.000000,0.000000,12.682083,0,0,0,0,0,0,0
9,99999,53,90000,4,0,0,9999,0.100000,0,0,0.000000,3,0.000000,0.000000,2.154716,0,0,0,18,0,0,0
9,99999,54,90000,4,0,0,9999,0.100000,0,0,0.000000,3,0.000000,0.000000,0.575453,0,0,0,0,0,0,0
9,99999,55,90000,4,0,1,9999,0.100000,0,0,0.000000,3,5.000000,0.000000,5.244671,0,0,0,0,0,0,0
9,99999,56,90000,15,10000,0,9999,0.100000,0,0,0.000000,3,0.000000,0.000000,5.781620,0,0,0,1,0,0,0
9,99999,57,90000,47,10000,0,9999,0.100000,0,0,0.000000,3,0.000000,0.000000,1.217065,0,0,0,0,0,0,0
9,99999,58,90000,15,10000,0,9999,0.100000,0,0,0.000000,3,0.000000,0.000000,0.113980,0,0,0,0,0,0,0
9,99999,59,90000,15,10000,0,9999,0.100000,0,0,0.000000,3,0.000000,0.000000,0.037151,0,0,0,0,0,0,0
9,99999,60,90000,47,10000,0,9999,0.100000,0,0,0.000000,3,0.000000,0.000000,0.505814,0,0,0,0,0,0,0
9,99999,61,90000,4,0,1,9999,0.100000,0,0,0.000000,3,2.000000,0.000000,3.041602,0,0,0,0,0,0,0
9,99999,62,90000,15,10000,1,9999,0.100000,0,0,0.000000,3,3.000000,0.000000,18.535961,0,0,0,0,0,0,0
9,99999,63,90000,47,10000,1,9999,0.100000,0,0,0.000000,3,1.000000,0.000000,4.106527,0,0,0,0,0,0,0
9,99999,64,90000,4,0,1,9999,0.100000,0,0,0.000000,3,2.000000,0.000000,2.855013,0,0,0,0,0,0,0
9,99999,65,90000,47,10000,0,9999,0.100000,0,0,0.000000,3,0.000000,0.000000,2.650475,0,0,0,0,0,0,0
9,99999,66,90000,4,0,1,9999,0.100000,0,0,0.000000,3,1.000000,0.000000,1.790895,0,0,0,0,0,0,0
9,99999,67,90000,4,0,0,9999,0.100000,0,0,0.000000,3,0.000000,0.000000,0.162114,0,0,0,0,0,0,0
9,99999,68,90000,4,0,0,9999,0.100000,0,0,0.000000,3,0.000000,0.000000,0.878228,0,0,0,0,0,0,0
9,99999,69,90000,4,0,0,9999,0.100000,0,0,0.000000,3,0.000000,0.000000,7.080861,0,0,0,0,0,0,0
9,99999,70,90000,4,0,1,9999,0.100000,0,0,0.000000,3,9.000000,0.000000,11.821906,0,0,0,0,0,0,0
9,99999,71,90000,47,10000,1,9999,0.100000,0,0,0.000000,3,1.000000,0.000000,2.687050,0,0,0,0,0,0,0
9,99999,72,90000,4,0,0,9999,0.100000,0,0,0.000000,3,0.000000,0.000000,1.163967,0,0,0,0,0,0,0
9,99999,73,90000,47,10000,1,9999,0.100000,0,0,0.000000,3,13.000000,0.000000,14.510234,0,0,0,0,0,0,0
9,99999,74,90000,47,10000,0,9999,0.100000,0,0,0.000000,3,0.000000,0.000000,0.229570,0,0,0,0,0,0,0
9,99999,75,90000,15,10000,1,9999,0.100000,0,0,0.000000,3,2.000000,0.000000,18.933578,0,0,0,0,0,0,0
9,99999,76,90000,4,0,1,9999,0.100000,0,0,0.000000,3,2.000000,0.000000,10.196753,0,0,0,0,0,0,0
9,99999,77,90000,15,10000,1,9999,0.100000,0,0,0.000000,3,5.000000,0.000000,6.711237,0,0,0,0,0,0,0
9,99999,78,90000,4,0,1,9999,0.100000,0,0,0.000000,3,1.000000,0.000000,3.877034,0,0,0,0,0,0,0
9,99999,79,90000,4,0,1,9999,0.100000,0,0,0.000000,3,1.000000,0.000000,4.169855,0,0,0,0,0,0,0
9,99999,80,90000,4,0,1,9999,0.100000,0,0,0.000000,3,3.000000,0.000000,17.366710,0,0,0,0,0,0,0
9,99999,81,90000,4,0,0,9999,0.100000,0,0,0.000000,3,0.000000,0.000000,0.144032,0,0,0,0,0,0,0
9,99999,82,90000,4,0,0,9999,0.100000,0,0,0.000000,3,0.000000,0.000000,0.334953,0,0,0,0,0,0,0
9,99999,83,90000,4,0,0,9999,0.100000,0,0,0.000000,3,0.000000,0.000000,0.571551,0,0,0,0,0,0,0
9,99999,84,90000,47,10000,0,9999,0.100000,0,0,0.000000,3,0.000000,0.000000,0.009290,0,0,0,0,0,0,0
9,99999,85,90000,47,10000,0,9999,0.100000,0,0,0.000000,3,0.000000,0.000000,0.241572,0,0,0,0,0,0,0
9,99999,86,90000,4,0,1,9999,0.100000,0,0,0.000000,3,1.000000,0.000000,10.237131,0,0,0,0,0,0,0
9,99999,87,90000,4,0,0,9999,0.100000,0,0,0.000000,3,0.000000,0.000000,3.288820,0,0,0,0,0,0,0
9,99999,88,90000,4,0,0,9999,0.100000,0,0,0.000000,3,0.000000,0.000000,1.985695,0,0,0,0,0,0,0
9,99999,89,90000,47,10000,1,9999,0.100000,0,0,0.000000,3,5.000000,0.000000,6.508332,0,0,0,0,0,0,0
9,99999,90,90000,47,10000,0,9999,0.100000,0,0,0.000000,3,0.000000,0.000000,0.234774,0,0,0,0,0,0,0
9,99999,91,90000,15,10000,0,9999,0.100000,0,0,0.000000,3,0.000000,0.000000,0.075611,0,0,0,0,0,0,0
9,99999,92,90000,47,10000,0,9999,0.100000,0,0,0.000000,3,0.000000,0.000000,0.229501,0,0,0,0,0,0,0
9,99999,93,90000,47,10000,0,9999,0.100000,0,0,0.000000,3,0.000000,0.000000,4.759070,0,0,0,0,0,0,0
9,99999,94,90000,47,10000,1,9999,0.100000,0,0,0.000000,3,1.000000,0.000000,3.577667,0,0,0,0,0,0,0
9,99999,95,90000,47,10000,1,9999,0.100000,0,0,0.000000,3,1.000000,0.000000,11.737908,0,0,0,0,0,0,0
9,99999,96,90000,15,10000,1,9999,0.100000,0,0,0.000000,3,1.000000,0.000000,4.284083,0,0,0,0,0,0,0
9,99999,97,90000,4,0,1,9999,0.100000,0,0,0.000000,3,1.000000,0.000000,13.808121,0,0,0,0,0,0,0
9,99999,98,90000,15,10000,0,9999,0.100000,0,0,0.000000,3,0.000000,0.000000,0.039954,0,0,0,0,0,0,0
9,99999,99,90000,47,10000,0,9999,0.100000,0,0,0.000000,3,0.000000,0.000000,1.868687,0,0,0,18,0,0,0
10,109999,0,100000,15,10000,0,9999,0.100000,0,0,0.000000,3,0.000000,0.000000,1.024360,0,0,0,0,0,0,0
10,109999,1,100000,4,0,0,9999,0.100000,0,0,0.000000,3,0.000000,0.000000,0.632746,0,0,0,0,0,0,0
10,109999,2,100000,4,0,1,9999,0.100000,0,0,0.000000,3,1.000000,0.000000,7.772272,0,0,0,0,0,1,0
10,109999,3,100000,4,0,1,9999,0.100000,0,0,0.000000,3,2.000000,0.000000,9.769164,0,0,0,0,0,0,0
10,109999,4,100000,15,10000,0,9999,0.100000,0,0,0.000000,3,0.000000,0.000000,0.108278,0,0,0,0,0,0,0
10,109999,5,100000,47,10000,1,9999,0.100000,0,0,0.000000,3,2.000000,0.000000,12.042601,0,0,0,0,0,0,0
10,109999,6,100000,4,0,0,9999,0.100000,0,0,0.000000,3,0.000000,0.000000,0.975257,0,0,0,0,0,0,0
10,109999,7,100000,47,10000,1,9999,0.100000,0,0,0.000000,3,1.000000,0.000000,4.315694,0,0,0,0,0,0,0
10,109999,8,100000,4,0,0,9999,0.100000,0,0,0.000000,3,0.000000,0.000000,1.387292,0,0,0,0,0,0,0
10,109999,9,100000,47,10000,0,9999,0.100000,0,0,0.000000,3,0.000000,0.000000,2.635577,0,0,0,0,0,0,0
10,109999,10,100000,47,10000,1,9999,0.100000,0,0,0.000000,3,6.000000,0.000000,10.276430,0,0,0,0,0,0,0
10,109999,11,100000,4,0,1,9999,0.100000,0,0,0.000000,3,1.000000,0.000000,3.555150,0,0,0,0,0,0,0
10,109999,12,100000,15,10000,1,9999,0.100000,0,0,0.000000,3,1.000000,0.000000,3.677120,0,0,0,0,0,0,0
10,109999,13,100000,4,0,0,9999,0.100000,0,0,0.000000,3,0.000000,0.000000,0.501024,0,0,0,0,0,0,0
10,109999,14,100000,47,10000,1,9999,0.100000,0,0,0.000000,3,1.000000,0.000000,8.319594,0,0,0,0,0,0,0
10,109999,15,100000,4,0,0,9999,0.100000,0,0,0.000000,3,0.000000,0.000000,0.156144,0,0,0,0,0,0,0
10,109999,16,100000,4,0,1,9999,0.100000,0,0,0.000000,3,2.000000,0.000000,13.682690,0,0,0,0,0,0,0
10,109999,17,100000,15,10000,0,9999,0.100000,0,0,0.000000,3,0.000000,0.000000,0.120884,0,0,0,0,0,0,0
10,109999,18,100000,47,10000,1,9999,0.100000,0,0,0.000000,3,1.000000,0.000000,5.395874,0,0,0,0,0,0,0
10,109999,19,100000,15,10000,0,9999,0.135000,0,0,0.000000,3,0.000000,0.000000,0.157518,0,0,0,0,0,0,0
10,109999,20,100000,15,10000,0,9999,0.065000,0,0,0.000000,3,0.000000,0.000000,0.237254,0,0,0,0,0,0,0
10,109999,21,100000,15,10000,1,9999,0.100000,0,0,0.000000,3,1.000000,0.000000,2.733282,0,0,0,0,0,0,0
10,109999,22,100000,15,10000,0,9999,0.100000,0,0,0.000000,3,0.000000,0.000000,0.441944,0,0,0,0,0,0,0
10,109999,23,100000,15,10000,0,9999,0.100000,0,0,0.000000,3,0.000000,0.000000,0.985790,0,0,0,0,0,0,0
10,109999,24,100000,4,0,1,9999,0.100000,0,0,0.000000,3,2.000000,0.000000,8.626365,0,0,0,0,0,0,0
10,109999,25,100000,15,10000,0,9999,0.100000,0,0,0.000000,3,0.000000,0.000000,15.831346,0,0,0,0,0,0,0
10,109999,26,100000,4,0,1,9999,0.100000,0,0,0.000000,3,1.000000,0.000000,2.618217,0,0,0,0,0,0,0
10,109999,27,100000,4,0,0,9999,0.100000,0,0,0.000000,3,0.000000,0.000000,0.247295,0,0,0,0,0,0,0
10,109999,28,100000,15,10000,0,9999,0.100000,0,0,0.000000,3,0.000000,0.000000,0.759933,0,0,0,0,0,0,0
10,109999,29,100000,15,10000,0,9999,0.100000,0,0,0.000000,3,0.000000,0.000000,0.936768,0,0,0,0,0,0,0
10,109999,30,100000,4,0,0,9999,0.100000,0,0,0.000000,3,0.000000,0.000000,0.555183,0,0,0,0,0,0,0
10,109999,31,100000,4,0,0,9999,0.100000,0,0,0.000000,3,0.000000,0.000000,0.545028,0,0,0,0,0,0,0
10,109999,32,100000,4,0,0,9999,0.065000,0,0,0.000000,3,0.000000,0.000000,0.923685,0,0,0,0,0,0,0
10,109999,33,100000,15,10000,0,9999,0.100000,0,0,0.000000,3,0.000000,0.000000,0.950729,0,0,0,0,0,0,0
10,109999,34,100000,4,0,0,9999,0.100000,0,0,0.000000,3,0.000000,0.000000,0.835113,0,0,0,0,0,0,0
10,109999,35,100000,4,0,1,9999,0.100000,0,0,0.000000,3,1.000000,0.000000,3.788635,0,0,0,0,0,0,0
10,109999,36,100000,4,0,0,9999,0.100000,0,0,0.000000,3,0.000000,0.000000,0.333911,0,0,0,0,0,0,0
10,109999,37,100000,47,10000,0,9999,0.100000,0,0,0.000000,3,0.000000,0.000000,0.087667,0,0,0,0,0,0,0
10,109999,38,100000,47,10000,1,9999,0.100000,0,0,0.000000,3,4.000000,0.000000,8.888686,0,0,0,0,0,0,0
10,109999,39,100000,15,10000,0,9999,0.100000,0,0,0.000000,3,0.000000,0.000000,0.848770,0,0,0,0,0,0,0
10,109999,40,100000,4,0,1,9999,0.100000,0,0,0.000000,3,1.000000,0.000000,3.285519,0,0,0,0,0,0,0
10,109999,41,100000,4,0,0,9999,0.100000,0,0,0.000000,3,0.000000,0.000000,1.196039,0,0,0,0,0,0,0
10,109999,42,100000,15,10000,0,9999,0.100000,0,0,0.000000,3,0.000000,0.000000,3.429849,0,0,0,0,0,0,0
10,109999,43,100000,47,10000,0,9999,0.100000,0,0,0.000000,3,0.000000,0.000000,0.815454,0,0,0,0,0,0,0
10,109999,44,100000,15,10000,1,9999,0.100000,0,0,0.000000,3,1.000000,0.000000,5.012029,0,0,0,0,0,0,0
10,109999,45,100000,15,10000,0,9999,0.100000,0,0,0.000000,3,0.000000,0.000000,5.274646,0,0,0,0,0,0,0
10,109999,46,100000,15,10000,0,9999,0.100000,0,0,0.000000,3,0.000000,0.000000,0.046886,0,0,0,0,0,0,0
10,109999,47,100000,4,0,0,9999,0.100000,0,0,0.000000,3,0.000000,0.000000,0.153295,0,0,0,0,0,0,0
10,109999,48,100000,15,10000,1,9999,0.100000,0,0,0.000000,3,4.000000,0.000000,11.713528,0,0,0,0,0,1,0
10,109999,49,100000,47,10000,0,9999,0.100000,0,0,0.000000,3,0.000000,0.000000,6.845879,0,0,0,0,0,0,0
10,109999,50,100000,4,0,1,9999,0.100000,0,0,0.000000,3,18.000000,0.000000,20.043481,0,0,0,0,0,0,0
10,109999,51,100000,4,0,0,9999,0.100000,0,0,0.000000,3,0.000000,0.000000,0.716887,0,0,0,0,0,0,0
10,109999,52,100000,4,0,1,9999,0.100000,0,0,0.000000,3,1.000000,0.000000,3.630924,0,0,0,0,0,0,0
10,109999,53,100000,15,10000,1,9999,0.100000,0,0,0.000000,3,2.000000,0.000000,4.079203,0,0,0,0,0,0,0
10,109999,54,100000,47,10000,0,9999,0.100000,0,0,0.000000,3,0.000000,0.000000,1.320501,0,0,0,0,0,0,0
10,109999,55,100000,4,0,0,9999,0.100000,0,0,0.000000,3,0.000000,0.000000,0.135215,0,0,0,0,0,0,0
10,109999,56,100000,4,0,0,9999,0.100000,0,0,0.000000,3,0.000000,0.000000,8.048453,0,0,0,0,0,0,0
10,109999,57,100000,4,0,0,9999,0.100000,0,0,0.000000,3,0.000000,0.000000,4.351681,0,0,0,0,0,0,0
10,109999,58,100000,47,10000,0,9999,0.100000,0,0,0.000000,3,0.000000,0.000000,0.220127,0,0,0,0,0,0,0
10,109999,59,100000,47,10000,0,9999,0.100000,0,0,0.000000,3,0.000000,0.000000,0.036858,0,0,0,0,0,0,0
10,109999,60,100000,4,0,0,9999,0.100000,0,0,0.000000,3,0.000000,0.000000,1.102153,0,0,0,0,0,0,0
10,109999,61,100000,4,0,0,9999,0.100000,0,0,0.000000,3,0.000000,0.000000,0.304629,0,0,0,0,0,0,0
10,109999,62,100000,15,10000,1,9999,0.100000,0,0,0.000000,3,4.000000,0.000000,16.237796,0,0,0,0,0,0,0
10,109999,63,100000,15,10000,1,9999,0.100000,0,0,0.000000,3,3.000000,0.000000,14.134217,0,0,0,0,0,0,0
10,109999,64,100000,47,10000,0,9999,0.100000,0,0,0.000000,3,0.000000,0.000000,0.478732,0,0,0,0,0,0,0
10,109999,65,100000,4,0,0,9999,0.100000,0,0,0.000000,3,0.000000,0.000000,2.768840,0,0,0,0,0,0,0
10,109999,66,100000,47,10000,1,9999,0.100000,0,0,0.000000,3,1.000000,0.000000,1.709864,0,0,0,0,0,0,0
10,109999,67,100000,4,0,0,9999,0.100000,0,0,0.000000,3,0.000000,0.000000,1.847982,0,0,0,0,0,0,0
10,109999,68,100000,4,0,0,9999,0.100000,0,0,0.000000,3,0.000000,0.000000,0.728619,0,0,0,0,0,0,0
10,109999,69,100000,47,10000,1,9999,0.100000,0,0,0.000000,3,1.000000,0.000000,7.936690,0,0,0,0,0,0,0
10,109999,70,100000,15,10000,0,9999,0.100000,0,0,0.000000,3,0.000000,0.000000,6.397549,0,0,0,0,0,0,0
10,109999,71,100000,15,10000,1,9999,0.100000,0,0,0.000000,3,1.000000,0.000000,5.937330,0,0,0,0,0,0,0
10,109999,72,100000,15,10000,0,9999,0.100000,0,0,0.000000,3,0.000000,0.000000,2.828899,0,0,0,0,0,0,0
10,109999,73,100000,15,10000,0,9999,0.100000,0,0,0.000000,3,0.000000,0.000000,1.609558,0,0,0,0,0,0,0
10,109999,74,100000,47,10000,0,9999,0.100000,0,0,0.000000,3,0.000000,0.000000,0.219259,0,0,0,0,0,0,0
10,109999,75,100000,4,0,1,9999,0.100000,0,0,0.000000,3,3.000000,0.000000,13.255446,0,0,0,0,0,0,0
10,109999,76,100000,4,0,1,9999,0.100000,0,0,0.000000,3,4.000000,0.000000,16.090166,0,0,0,0,0,0,0
10,109999,77,100000,15,10000,0,9999,0.100000,0,0,0.000000,3,0.000000,0.000000,6.757707,0,0,0,0,0,0,0
10,109999,78,100000,47,10000,1,9999,0.100000,0,0,0.000000,3,2.000000,0.000000,6.912795,0,0,0,0,0,0,0
10,109999,79,100000,15,10000,1,9999,0.100000,0,0,0.000000,3,2.000000,0.000000,8.739125,0,0,0,0,0,0,0
10,109999,80,100000,15,10000,1,9999,0.100000,0,0,0.000000,3,3.000000,0.000000,12.420069,0,0,0,0,0,0,0
10,109999,81,100000,47,10000,0,9999,0.100000,0,0,0.000000,3,0.000000,0.000000,0.170764,0,0,0,0,0,0,0
10,109999,82,100000,4,0,0,9999,0.100000,0,0,0.000000,3,0.000000,0.000000,0.712661,0,0,0,0,0,0,0
10,109999,83,100000,15,10000,0,9999,0.100000,0,0,0.000000,3,0.000000,0.000000,0.727661,0,0,0,0,0,0,0
10,109999,84,100000,47,10000,0,9999,0.100000,0,0,0.000000,3,0.000000,0.000000,0.009331,0,0,0,0,0,0,0
10,109999,85,100000,15,10000,0,9999,0.100000,0,0,0.000000,3,0.000000,0.000000,0.231792,0,0,0,0,0,0,0
10,109999,86,100000,47,10000,1,9999,0.100000,0,0,0.000000,3,2.000000,0.000000,12.705547,0,0,0,0,0,0,0
10,109999,87,100000,15,10000,1,9999,0.100000,0,0,0.000000,3,1.000000,0.000000,15.095851,0,0,0,0,0,0,0
10,109999,88,100000,47,10000,1,9999,0.100000,0,0,0.000000,3,1.000000,0.000000,6.756786,0,0,0,0,0,0,0
10,109999,89,100000,4,0,1,9999,0.100000,0,0,0.000000,3,1.000000,0.000000,10.357063,0,0,0,0,0,1,0
10,109999,90,100000,15,10000,0,9999,0.100000,0,0,0.000000,3,0.000000,0.000000,0.235040,0,0,0,0,0,0,0
10,109999,91,100000,4,0,0,9999,0.100000,0,0,0.000000,3,0.000000,0.000000,0.077143,0,0,0,0,0,0,0
10,109999,92,100000,15,10000,0,9999,0.100000,0,0,0.000000,3,0.000000,0.000000,0.225019,0,0,0,0,0,0,0
10,109999,93,100000,47,10000,0,9999,0.100000,0,0,0.000000,3,0.000000,0.000000,6.508372,0,0,0,0,0,0,0
10,109999,94,100000,4,0,1,9999,0.100000,0,0,0.000000,3,2.000000,0.000000,5.026449,0,0,0,0,0,0,0
10,109999,95,100000,15,10000,1,9999,0.100000,0,0,0.000000,3,4.000000,0.000000,16.372148,0,0,0,0,0,0,0
10,109999,96,100000,47,10000,0,9999,0.100000,0,0,0.000000,3,0.000000,0.000000,2.676688,0,0,0,0,0,0,0
10,109999,97,100000,15,10000,1,9999,0.100000,0,0,0.000000,3,1.000000,0.000000,7.480793,0,0,0,0,0,0,0
10,109999,98,100000,4,0,0,9999,0.100000,0,0,0.000000,3,0.000000,0.000000,0.039937,0,0,0,0,0,0,0
10,109999,99,100000,47,10000,0,9999,0.100000,0,0,0.000000,3,0.000000,0.000000,0.443906,0,0,0,0,0,0,0
11,119999,0,110000,4,0,0,9999,0.100000,0,0,0.000000,3,0.000000,0.000000,1.206468,0,0,0,0,0,0,0
11,119999,1,110000,47,10000,0,9999,0.100000,0,0,0.000000,3,0.000000,0.000000,2.718776,0,0,0,0,0,0,0
11,119999,2,110000,4,0,1,9999,0.100000,0,0,0.000000,3,3.000000,0.000000,9.101948,0,0,0,0,0,0,0
11,119999,3,110000,4,0,1,9999,0.100000,0,0,0.000000,3,3.000000,0.000000,13.590558,0,0,0,0,0,0,0
11,119999,4,110000,47,10000,0,9999,0.100000,0,0,0.000000,3,0.000000,0.000000,0.108199,0,0,0,0,0,0,0
11,119999,5,110000,4,0,1,9999,0.100000,0,0,0.000000,3,2.000000,0.000000,16.937894,0,0,0,0,0,0,0
11,119999,6,110000,47,10000,0,9999,0.100000,0,0,0.000000,3,0.000000,0.000000,0.780409,0,0,0,0,0,0,0
11,119999,7,110000,15,10000,0,9999,0.100000,0,0,0.000000,3,0.000000,0.000000,0.242670,0,0,0,0,0,0,0
11,119999,8,110000,47,10000,0,9999,0.100000,0,0,0.000000,3,0.000000,0.000000,1.922140,0,0,0,0,0,0,0
11,119999,9,110000,47,10000,1,9999,0.100000,0,0,34.210526,3,10.000000,0.000000,14.597760,0,0,0,0,1,0,0
11,119999,10,110000,15,10000,0,9999,0.100000,0,0,0.000000,3,0.000000,0.000000,2.810127,0,0,0,0,0,0,0
11,119999,11,110000,15,10000,1,9999,0.100000,0,0,0.000000,3,1.000000,0.000000,2.788322,0,0,0,0,0,0,0
11,119999,12,110000,4,0,0,9999,0.100000,0,0,0.000000,3,0.000000,0.000000,0.577034,0,0,0,0,0,0,0
11,119999,13,110000,15,10000,0,9999,0.100000,0,0,0.000000,3,0.000000,0.000000,0.648082,0,0,0,0,0,0,0
11,119999,14,110000,15,10000,1,9999,0.100000,0,0,0.000000,3,6.000000,0.000000,14.620344,0,0,0,0,0,0,0
11,119999,15,110000,15,10000,0,9999,0.100000,0,0,0.000000,3,0.000000,0.000000,0.155806,0,0,0,0,0,0,0
11,119999,16,110000,4,0,0,9999,0.100000,0,0,0.000000,3,0.000000,0.000000,1.869172,0,0,0,0,0,0,0
11,119999,17,110000,15,10000,0,9999,0.100000,0,0,0.000000,3,0.000000,0.000000,0.118413,0,0,0,0,0,0,0
11,119999,18,110000,15,10000,1,9999,0.100000,0,0,0.000000,3,1.000000,0.000000,8.788240,0,0,0,0,0,0,0
11,119999,19,110000,4,0,0,9999,0.100000,0,0,0.000000,3,0.000000,0.000000,0.127112,0,0,0,0,0,0,0
11,119999,20,110000,4,0,0,9999,0.100000,0,0,0.000000,3,0.000000,0.000000,0.233565,0,0,0,0,0,0,0
11,119999,21,110000,15,10000,1,9999,0.100000,0,0,0.000000,3,1.000000,0.000000,2.441209,0,0,0,0,0,0,0
11,119999,22,110000,4,0,0,9999,0.100000,0,0,0.000000,3,0.000000,0.000000,0.249863,0,0,0,0,0,0,0
11,119999,23,110000,47,10000,0,9999,0.100000,0,0,0.000000,3,0.000000,0.000000,1.221347,0,0,0,0,0,0,0
11,119999,24,110000,47,10000,1,9999,0.100000,0,0,0.000000,3,1.000000,0.000000,8.765897,0,0,0,0,0,0,0
11,119999,25,110000,47,10000,0,9999,0.100000,0,0,0.000000,3,0.000000,0.000000,0.867105,0,0,0,0,0,0,0
11,119999,26,110000,47,10000,0,9999,0.100000,0,0,0.000000,3,0.000000,0.000000,6.656577,0,0,0,0,0,0,0
11,119999,27,110000,4,0,0,9999,0.100000,0,0,0.000000,3,0.000000,0.000000,0.240297,0,0,0,0,0,0,0
11,119999,28,110000,15,10000,0,9999,0.100000,0,0,0.000000,3,0.000000,0.000000,0.746216,0,0,0,0,0,0,0
11,119999,29,110000,4,0,1,9999,0.100000,0,0,0.000000,3,1.000000,0.000000,1.693834,0,0,0,0,0,0,0
11,119999,30,110000,47,10000,0,9999,0.135000,0,0,0.000000,3,0.000000,0.000000,0.292271,0,0,0,0,0,0,0
11,119999,31,110000,47,10000,0,9999,0.100000,0,0,0.000000,3,0.000000,0.000000,0.543378,0,0,0,0,0,0,0
11,119999,32,110000,47,10000,1,9999,0.100000,0,0,0.000000,3,1.000000,0.000000,1.494047,0,0,0,0,0,0,0
11,119999,33,110000,4,0,0,9999,0.100000,0,0,0.000000,3,0.000000,0.000000,0.350575,0,0,0,0,0,0,0
11,119999,34,110000,15,10000,0,9999,0.100000,0,0,0.000000,3,0.000000,0.000000,0.688462,0,0,0,0,0,0,0
11,119999,35,110000,47,10000,0,9999,0.100000,0,0,0.000000,3,0.000000,0.000000,0.951604,0,0,0,0,0,0,0
11,119999,36,110000,4,0,0,9999,0.100000,0,0,0.000000,3,0.000000,0.000000,0.009635,0,0,0,0,0,0,0
11,119999,37,110000,47,10000,0,9999,0.100000,0,0,0.000000,3,0.000000,0.000000,0.087789,0,0,0,0,0,0,0
11,119999,38,110000,15,10000,1,9999,0.100000,0,0,0.000000,3,1.000000,0.000000,8.755603,0,0,0,0,0,0,0
11,119999,39,110000,15,10000,0,9999,0.100000,0,0,0.000000,3,0.000000,0.000000,0.902032,0,0,0,0,0,0,0
11,119999,40,110000,47,10000,1,9999,0.100000,0,0,0.000000,3,1.000000,0.000000,2.385699,0,0,0,0,0,0,0
11,119999,41,110000,4,0,0,9999,0.100000,0,0,0.000000,3,0.000000,0.000000,3.819820,0,0,0,0,0,0,0
11,119999,42,110000,4,0,1,9999,0.100000,0,0,34.210526,3,10.000000,0.000000,14.843044,0,0,0,0,1,0,0
11,119999,43,110000,47,10000,0,9999,0.100000,0,0,0.000000,3,0.000000,0.000000,2.403479,0,0,0,0,0,0,0
11,119999,44,110000,47,10000,1,9999,0.100000,0,0,0.000000,3,1.000000,0.000000,12.546119,0,0,0,0,0,0,0
11,119999,45,110000,15,10000,1,9999,0.100000,0,0,0.000000,3,1.000000,0.000000,10.156330,0,0,0,0,0,0,0
11,119999,46,110000,4,0,0,9999,0.100000,0,0,0.000000,3,0.000000,0.000000,0.047710,0,0,0,0,0,0,0
11,119999,47,110000,15,10000,0,9999,0.100000,0,0,0.000000,3,0.000000,0.000000,0.098526,0,0,0,0,0,0,0
11,119999,48,110000,4,0,0,9999,0.100000,0,0,0.000000,3,0.000000,0.000000,6.653922,0,0,0,0,0,0,0
11,119999,49,110000,47,10000,0,9999,0.100000,0,0,0.000000,3,0.000000,0.000000,0.337115,0,0,0,0,0,0,0
11,119999,50,110000,4,0,0,9999,0.100000,0,0,0.000000,3,0.000000,0.000000,0.200795,0,0,0,0,0,0,0
11,119999,51,110000,47,10000,1,9999,0.100000,0,0,0.000000,3,1.000000,0.000000,2.058173,0,0,0,0,0,0,0
11,119999,52,110000,47,10000,1,9999,0.100000,0,0,0.000000,3,1.000000,0.000000,6.317683,0,0,0,0,0,0,0
11,119999,53,110000,15,10000,0,9999,0.100000,0,0,0.000000,3,0.000000,0.000000,2.783343,0,0,0,0,0,0,0
11,119999,54,110000,4,0,1,9999,0.100000,0,0,0.000000,3,1.000000,0.000000,2.269474,0,0,0,0,0,0,0
11,119999,55,110000,47,10000,0,9999,0.100000,0,0,0.000000,3,0.000000,0.000000,0.135650,0,0,0,0,0,0,0
11,119999,56,110000,15,10000,0,9999,0.100000,0,0,0.000000,3,0.000000,0.000000,6.151866,0,0,0,0,0,0,0
11,119999,57,110000,47,10000,0,9999,0.100000,0,0,0.000000,3,0.000000,0.000000,1.906515,0,0,0,0,0,0,0
11,119999,58,110000,4,0,0,9999,0.100000,0,0,0.000000,3,0.000000,0.000000,0.230181,0,0,0,0,0,0,0
11,119999,59,110000,15,10000,0,9999,0.100000,0,0,0.000000,3,0.000000,0.000000,0.036968,0,0,0,0,0,0,0
11,119999,60,110000,4,0,0,9999,0.135000,0,0,0.000000,3,0.000000,0.000000,0.337458,0,0,0,0,0,0,0
11,119999,61,110000,4,0,0,9999,0.100000,0,0,0.000000,3,0.000000,0.000000,0.283298,0,0,0,0,0,0,0
11,119999,62,110000,47,10000,1,9999,0.100000,0,0,0.000000,3,7.000000,0.000000,15.218772,0,0,0,0,0,0,0
11,119999,63,110000,15,10000,1,9999,0.100000,0,0,0.000000,3,3.000000,0.000000,13.271834,0,0,0,0,0,0,0
11,119999,64,110000,15,10000,0,9999,0.100000,0,0,0.000000,3,0.000000,0.000000,0.498470,0,0,0,0,0,0,0
11,119999,65,110000,4,0,1,9999,0.100000,0,0,0.000000,3,6.000000,0.000000,9.362705,0,0,0,0,0,0,0
11,119999,66,110000,15,10000,1,9999,0.100000,0,0,0.000000,3,1.000000,0.000000,1.622589,0,0,0,0,0,0,0
11,119999,67,110000,47,10000,1,9999,0.100000,0,0,34.210526,3,10.000000,0.000000,17.236641,0,0,0,0,1,0,0
11,119999,68,110000,15,10000,0,9999,0.100000,0,0,0.000000,3,0.000000,0.000000,0.009633,0,0,0,0,0,0,0
11,119999,69,110000,4,0,1,9999,0.100000,0,0,0.000000,3,2.000000,0.000000,9.576334,0,0,0,0,0,0,0
11,119999,70,110000,47,10000,1,9999,0.100000,0,0,0.000000,3,3.000000,0.000000,13.963471,0,0,0,0,0,0,0
11,119999,71,110000,47,10000,0,9999,0.100000,0,0,0.000000,3,0.000000,0.000000,17.381772,0,0,0,0,0,0,0
11,119999,72,110000,15,10000,1,9999,0.100000,0,0,0.000000,3,1.000000,0.000000,5.579824,0,0,0,0,0,0,0
11,119999,73,110000,15,10000,0,9999,0.100000,0,0,0.000000,3,0.000000,0.000000,1.876472,0,0,0,0,0,0,0
11,119999,74,110000,4,0,0,9999,0.100000,0,0,0.000000,3,0.000000,0.000000,0.210847,0,0,0,0,0,0,0
11,119999,75,110000,4,0,1,9999,0.100000,0,0,0.000000,3,5.000000,0.000000,9.740925,0,0,0,0,0,0,0
11,119999,76,110000,47,10000,1,9999,0.100000,0,0,0.000000,3,7.000000,0.000000,15.545963,0,0,0,0,0,0,0
11,119999,77,110000,4,0,0,9999,0.100000,0,0,0.000000,3,0.000000,0.000000,5.934942,0,0,0,0,0,0,0
11,119999,78,110000,47,10000,1,9999,0.100000,0,0,0.000000,3,5.000000,0.000000,8.799351,0,0,0,0,0,0,0
11,119999,79,110000,15,10000,1,9999,0.100000,0,0,0.000000,3,3.000000,0.000000,7.716853,0,0,0,0,0,0,0
11,119999,80,110000,47,10000,0,9999,0.100000,0,0,0.000000,3,0.000000,0.000000,6.771263,0,0,0,0,0,0,0
11,119999,81,110000,4,0,0,9999,0.100000,0,0,0.000000,3,0.000000,0.000000,1.939453,0,0,0,0,0,0,0
11,119999,82,110000,15,10000,0,9999,0.100000,0,0,0.000000,3,0.000000,0.000000,0.829236,0,0,0,0,0,0,0
11,119999,83,110000,4,0,0,9999,0.100000,0,0,0.000000,3,0.000000,0.000000,0.909501,0,0,0,0,0,0,0
11,119999,84,110000,47,10000,0,9999,0.100000,0,0,0.000000,3,0.000000,0.000000,0.009372,0,0,0,0,0,0,0
11,119999,85,110000,15,10000,0,9999,0.100000,0,0,0.000000,3,0.000000,0.000000,0.246920,0,0,0,0,0,0,0
11,119999,86,110000,4,0,0,9999,0.100000,0,0,0.000000,3,0.000000,0.000000,1.866644,0,0,0,0,0,0,0
11,119999,87,110000,15,10000,0,9999,0.100000,0,0,0.000000,3,0.000000,0.000000,15.012467,0,0,0,0,0,0,0
11,119999,88,110000,4,0,0,9999,0.100000,0,0,0.000000,3,0.000000,0.000000,3.807778,0,0,0,0,0,0,0
11,119999,89,110000,47,10000,0,9999,0.100000,0,0,0.000000,3,0.000000,0.000000,6.247261,0,0,0,0,0,0,0
11,119999,90,110000,4,0,0,9999,0.100000,0,0,0.000000,3,0.000000,0.000000,0.242811,0,0,0,0,0,0,0
11,119999,91,110000,4,0,0,9999,0.100000,0,0,0.000000,3,0.000000,0.000000,0.076935,0,0,0,0,0,0,0
11,119999,92,110000,4,0,0,9999,0.100000,0,0,0.000000,3,0.000000,0.000000,0.236355,0,0,0,0,0,0,0
11,119999,93,110000,4,0,1,9999,0.100000,0,0,0.000000,3,1.000000,0.000000,7.619261,0,0,0,0,0,0,0
11,119999,94,110000,4,0,1,9999,0.100000,0,0,0.000000,3,1.000000,0.000000,5.253535,0,0,0,0,0,0,0
11,119999,95,110000,47,10000,1,9999,0.100000,0,0,0.000000,3,5.000000,0.000000,12.541335,0,0,0,0,0,0,0
11,119999,96,110000,15,10000,1,9999,0.100000,0,0,0.000000,3,1.000000,0.000000,7.273438,0,0,0,0,0,0,0
11,119999,97,110000,15,10000,1,9999,0.100000,0,0,0.000000,3,1.000000,0.000000,12.381974,0,0,0,0,0,0,0
11,119999,98,110000,15,10000,0,9999,0.100000,0,0,0.000000,3,0.000000,0.000000,0.040648,0,0,0,0,0,0,0
11,119999,99,110000,15,10000,1,9999,0.100000,0,0,0.000000,3,2.000000,0.000000,3.470919,0,0,0,0,0,0,0
12,129999,0,120000,47,10000,0,9999,0.100000,0,0,0.000000,3,0.000000,0.000000,0.670019,0,0,0,0,0,0,0
12,129999,1,120000,15,10000,0,9999,0.100000,0,0,0.000000,3,0.000000,0.000000,2.529453,0,0,0,0,0,0,0
12,129999,2,120000,15,10000,0,9999,0.100000,0,0,0.000000,3,0.000000,0.000000,2.271659,0,0,0,0,0,0,0
12,129999,3,120000,47,10000,1,9999,0.100000,0,0,0.000000,3,1.000000,0.000000,10.846954,0,0,0,0,0,0,0
12,129999,4,120000,47,10000,0,9999,0.100000,0,0,0.000000,3,0.000000,0.000000,0.109421,0,0,0,0,0,0,0
12,129999,5,120000,4,0,1,9999,0.100000,0,0,0.000000,3,2.000000,0.000000,11.311056,0,0,0,0,0,0,0
12,129999,6,120000,47,10000,0,9999,0.100000,0,0,0.000000,3,0.000000,0.000000,0.623049,0,0,0,0,0,0,0
12,129999,7,120000,15,10000,0,9999,0.100000,0,0,0.000000,3,0.000000,0.000000,0.233827,0,0,0,0,0,0,0
12,129999,8,120000,4,0,1,9999,0.100000,0,0,0.000000,3,9.000000,0.000000,12.871227,0,0,0,0,0,0,0
12,129999,9,120000,47,10000,0,9999,0.100000,0,0,0.000000,3,0.000000,0.000000,7.250777,0,0,0,0,0,0,0
12,129999,10,120000,15,10000,0,9999,0.100000,0,0,0.000000,3,0.000000,0.000000,2.760691,0,0,0,0,0,0,0
12,129999,11,120000,15,10000,0,9999,0.100000,0,0,0.000000,3,0.000000,0.000000,14.165319,0,0,0,0,0,0,0
12,129999,12,120000,15,10000,1,9999,0.100000,0,0,0.000000,3,5.000000,0.000000,17.009139,0,0,0,0,0,0,0
12,129999,13,120000,15,10000,1,9999,0.065000,0,0,0.000000,3,2.000000,0.000000,3.923249,0,0,0,0,0,0,0
12,129999,14,120000,15,10000,0,9999,0.100000,0,0,0.000000,3,0.000000,0.000000,6.384156,0,0,0,0,0,0,0
12,129999,15,120000,4,0,0,9999,0.100000,0,0,0.000000,3,0.000000,0.000000,0.148685,0,0,0,0,0,0,0
12,129999,16,120000,15,10000,0,9999,0.100000,0,0,0.000000,3,0.000000,0.000000,1.221858,0,0,0,0,0,0,0
12,129999,17,120000,4,0,0,9999,0.100000,0,0,0.000000,3,0.000000,0.000000,0.117534,0,0,0,0,0,0,0
12,129999,18,120000,4,0,1,9999,0.100000,0,0,0.000000,3,1.000000,0.000000,11.029542,0,0,0,0,0,0,0
12,129999,19,120000,4,0,0,9999,0.135000,0,0,0.000000,3,0.000000,0.000000,0.121775,0,0,0,0,0,0,0
12,129999,20,120000,15,10000,0,9999,0.100000,0,0,0.000000,3,0.000000,0.000000,0.241338,0,0,0,0,0,0,0
12,129999,21,120000,4,0,1,9999,0.100000,0,0,0.000000,3,1.000000,0.000000,2.284134,0,0,0,0,0,0,0
12,129999,22,120000,15,10000,0,9999,0.100000,0,0,0.000000,3,0.000000,0.000000,0.368138,0,0,0,0,0,0,0
12,129999,23,120000,4,0,0,9999,0.100000,0,0,0.000000,3,0.000000,0.000000,1.007930,0,0,0,0,0,0,0
12,129999,24,120000,47,10000,1,9999,0.100000,0,0,0.000000,3,1.000000,0.000000,14.126715,0,0,0,0,0,0,0
12,129999,25,120000,15,10000,0,9999,0.100000,0,0,0.000000,3,0.000000,0.000000,0.648701,0,0,0,0,0,0,0
12,129999,26,120000,4,0,0,9999,0.100000,0,0,0.000000,3,0.000000,0.000000,3.747355,0,0,0,0,0,0,0
12,129999,27,120000,4,0,0,9999,0.100000,0,0,0.000000,3,0.000000,0.000000,0.223479,0,0,0,0,0,0,0
12,129999,28,120000,47,10000,0,9999,0.100000,0,0,0.000000,3,0.000000,0.000000,0.985942,0,0,0,0,0,0,0
12,129999,29,120000,4,0,0,9999,0.100000,0,0,0.000000,3,0.000000,0.000000,0.609395,0,0,0,0,0,0,0
12,129999,30,120000,4,0,0,9999,0.100000,0,0,0.000000,3,0.000000,0.000000,0.215879,0,0,0,0,0,0,0
12,129999,31,120000,15,10000,0,9999,0.100000,0,0,0.000000,3,0.000000,0.000000,0.790750,0,0,0,0,0,0,0
12,129999,32,120000,15,10000,0,9999,0.100000,0,0,0.000000,3,0.000000,0.000000,0.712171,0,0,0,0,0,0,0
12,129999,33,120000,4,0,0,9999,0.100000,0,0,0.000000,3,0.000000,0.000000,0.341867,0,0,0,0,0,0,0
12,129999,34,120000,4,0,0,9999,0.100000,0,0,0.000000,3,0.000000,0.000000,0.888072,0,0,0,0,0,0,0
12,129999,35,120000,4,0,0,9999,0.100000,0,0,0.000000,3,0.000000,0.000000,0.284294,0,0,0,0,0,0,0
12,129999,36,120000,47,10000,0,9999,0.100000,0,0,0.000000,3,0.000000,0.000000,0.009176,0,0,0,0,0,0,0
12,129999,37,120000,15,10000,0,9999,0.100000,0,0,0.000000,3,0.000000,0.000000,0.083853,0,0,0,0,0,0,0
12,129999,38,120000,4,0,1,9999,0.100000,0,0,0.000000,3,1.000000,0.000000,12.519350,0,0,0,0,0,0,0
12,129999,39,120000,47,10000,0,9999,0.100000,0,0,0.000000,3,0.000000,0.000000,0.743594,0,0,0,0,0,0,0
12,129999,40,120000,4,0,1,9999,0.100000,0,0,0.000000,3,1.000000,0.000000,1.660008,0,0,0,0,0,0,0
12,129999,41,120000,4,0,0,9999,0.100000,0,0,0.000000,3,0.000000,0.000000,0.916534,0,0,0,0,0,0,0
12,129999,42,120000,47,10000,1,9999,0.100000,0,0,0.000000,3,1.000000,0.000000,9.350132,0,0,0,0,0,0,0
12,129999,43,120000,4,0,1,9999,0.100000,0,0,0.000000,3,1.000000,0.000000,3.080534,0,0,0,0,0,0,0
12,129999,44,120000,4,0,1,9999,0.100000,0,0,0.000000,3,1.000000,0.000000,17.597774,0,0,0,0,0,0,0
12,129999,45,120000,47,10000,1,9999,0.100000,0,0,0.000000,3,1.000000,0.000000,7.326002,0,0,0,0,0,0,0
