generation,iteration,robot,birthday,ancestor_id,ancestor_birthday,cell_id,age,sigma,maps,genomes,fitness,cells_in_map,dist_max,dist_pot_max,dist_total,com_rx,com_tx,obj_group1,obj_group2,obj_group3,obj_group4,obj_group5
0,9999,0,0,0,0,49,9999,0.100000,0,0,0.000000,0,11.000000,0.000000,13.484779,0,0,0,0,0,0,0
0,9999,1,0,1,0,49,9999,0.100000,0,0,0.000000,0,9.000000,0.000000,18.619117,0,0,0,0,0,0,0
0,9999,2,0,2,0,49,9999,0.100000,0,0,0.000000,0,7.000000,0.000000,17.476901,0,0,0,0,0,0,0
0,9999,3,0,3,0,49,9999,0.100000,0,0,0.000000,0,5.000000,0.000000,12.780845,0,0,0,0,0,0,0
0,9999,4,0,4,0,49,9999,0.100000,0,0,0.000000,0,2.000000,0.000000,10.432642,0,0,0,0,0,0,0
0,9999,5,0,5,0,49,9999,0.100000,0,0,0.000000,0,6.000000,0.000000,23.970963,0,0,0,0,0,0,0
0,9999,6,0,6,0,49,9999,0.100000,0,0,0.000000,0,4.000000,0.000000,14.292866,0,0,0,0,0,0,0
0,9999,7,0,7,0,49,9999,0.100000,0,0,0.000000,0,8.000000,0.000000,10.744773,0,0,0,0,0,0,0
0,9999,8,0,8,0,49,9999,0.100000,0,0,0.000000,0,2.000000,0.000000,4.459489,0,0,0,0,0,0,0
0,9999,9,0,9,0,49,9999,0.100000,0,0,0.000000,0,5.000000,0.000000,6.350739,0,0,0,0,0,0,0
0,9999,10,0,10,0,99,9999,0.100000,0,0,47.368421,0,10.000000,0.000000,21.365542,0,0,1,0,0,0,0
0,9999,11,0,11,0,49,9999,0.100000,0,0,0.000000,0,10.000000,0.000000,17.926470,0,0,0,0,0,0,0
0,9999,12,0,12,0,49,9999,0.100000,0,0,0.000000,0,10.000000,0.000000,20.679480,0,0,0,0,0,0,0
0,9999,13,0,13,0,49,9999,0.100000,0,0,0.000000,0,8.000000,0.000000,9.594648,0,0,0,0,0,0,0
0,9999,14,0,14,0,49,9999,0.100000,0,0,0.000000,0,1.000000,0.000000,5.077742,0,0,0,0,0,0,0
0,9999,15,0,15,0,49,9999,0.100000,0,0,0.000000,0,6.000000,0.000000,6.763372,0,0,0,0,0,0,0
0,9999,16,0,16,0,49,9999,0.100000,0,0,0.000000,0,10.000000,0.000000,30.229359,0,0,0,0,0,0,0
0,9999,17,0,17,0,49,9999,0.100000,0,0,0.000000,0,12.000000,0.000000,26.615126,0,0,0,0,0,0,0
0,9999,18,0,18,0,49,9999,0.100000,0,0,0.000000,0,12.000000,0.000000,17.914718,0,0,0,0,0,0,0
0,9999,19,0,19,0,49,9999,0.100000,0,0,0.000000,0,8.000000,0.000000,9.889755,0,0,0,0,0,0,0
0,9999,20,0,20,0,49,9999,0.100000,0,0,0.000000,0,8.000000,0.000000,18.311332,0,0,0,0,0,0,0
0,9999,21,0,21,0,49,9999,0.100000,0,0,0.000000,0,6.000000,0.000000,10.611217,0,0,0,0,0,0,0
0,9999,22,0,22,0,49,9999,0.100000,0,0,0.000000,0,10.000000,0.000000,16.431438,0,0,0,0,0,0,0
0,9999,23,0,23,0,49,9999,0.100000,0,0,0.000000,0,10.000000,0.000000,13.494803,0,0,0,0,0,0,0
0,9999,24,0,24,0,49,9999,0.100000,0,0,0.000000,0,4.000000,0.000000,6.194212,0,0,0,0,0,0,0
0,9999,25,0,25,0,49,9999,0.100000,0,0,0.000000,0,5.000000,0.000000,6.123231,0,0,0,0,0,0,0
0,9999,26,0,26,0,49,9999,0.100000,0,0,0.000000,0,13.000000,0.000000,18.198133,0,0,0,0,0,0,0
0,9999,27,0,27,0,49,9999,0.100000,0,0,0.000000,0,8.000000,0.000000,16.713713,0,0,0,0,0,0,0
0,9999,28,0,28,0,99,9999,0.100000,0,0,47.368421,0,11.000000,0.000000,26.074356,0,0,1,0,0,0,0
0,9999,29,0,29,0,49,9999,0.100000,0,0,0.000000,0,9.000000,0.000000,13.102264,0,0,0,0,0,0,0
0,9999,30,0,30,0,49,9999,0.100000,0,0,0.000000,0,3.000000,0.000000,4.572762,0,0,0,0,0,0,0
0,9999,31,0,31,0,49,9999,0.100000,0,0,0.000000,0,9.000000,0.000000,12.095453,0,0,0,0,0,0,0
0,9999,32,0,32,0,49,9999,0.100000,0,0,0.000000,0,13.000000,0.000000,21.913413,0,0,0,0,0,0,0
0,9999,33,0,33,0,49,9999,0.100000,0,0,0.000000,0,13.000000,0.000000,23.876564,0,0,0,0,0,0,0
0,9999,34,0,34,0,49,9999,0.100000,0,0,0.000000,0,7.000000,0.000000,13.402697,0,0,0,0,0,0,0
0,9999,35,0,35,0,49,9999,0.100000,0,0,0.000000,0,8.000000,0.000000,12.588768,0,0,0,0,0,0,0
0,9999,36,0,36,0,49,9999,0.100000,0,0,0.000000,0,10.000000,0.000000,12.900630,0,0,0,0,0,0,0
0,9999,37,0,37,0,99,9999,0.100000,0,0,47.368421,0,10.000000,0.000000,15.441940,0,0,1,0,0,0,0
0,9999,38,0,38,0,49,9999,0.100000,0,0,0.000000,0,10.000000,0.000000,15.604478,0,0,0,0,0,0,0
0,9999,39,0,39,0,49,9999,0.100000,0,0,0.000000,0,9.000000,0.000000,11.625296,0,0,0,0,0,0,0
0,9999,40,0,40,0,49,9999,0.100000,0,0,0.000000,0,8.000000,0.000000,25.660855,0,0,0,0,0,0,0
0,9999,41,0,41,0,49,9999,0.100000,0,0,0.000000,0,8.000000,0.000000,21.428563,0,0,0,0,0,0,0
0,9999,42,0,42,0,49,9999,0.100000,0,0,0.000000,0,4.000000,0.000000,9.615596,0,0,0,0,0,0,0
0,9999,43,0,43,0,49,9999,0.100000,0,0,0.000000,0,9.000000,0.000000,26.603738,0,0,0,0,0,0,0
0,9999,44,0,44,0,49,9999,0.100000,0,0,0.000000,0,4.000000,0.000000,5.052566,0,0,0,0,0,0,0
0,9999,45,0,45,0,49,9999,0.100000,0,0,0.000000,0,8.000000,0.000000,17.466583,0,0,0,0,0,0,0
0,9999,46,0,46,0,49,9999,0.100000,0,0,0.000000,0,8.000000,0.000000,9.244792,0,0,0,0,0,0,0
0,9999,47,0,47,0,49,9999,0.100000,0,0,0.000000,0,7.000000,0.000000,8.021407,0,0,0,0,0,0,0
0,9999,48,0,48,0,49,9999,0.100000,0,0,0.000000,0,9.000000,0.000000,17.141082,0,0,0,0,0,0,0
0,9999,49,0,49,0,49,9999,0.100000,0,0,0.000000,0,12.000000,0.000000,13.811678,0,0,0,0,0,0,0
0,9999,50,0,50,0,49,9999,0.100000,0,0,0.000000,0,4.000000,0.000000,12.415203,0,0,0,0,0,0,0
0,9999,51,0,51,0,49,9999,0.100000,0,0,0.000000,0,5.000000,0.000000,8.794804,0,0,0,0,0,0,0
0,9999,52,0,52,0,99,9999,0.100000,0,0,47.368421,0,8.000000,0.000000,27.691751,0,0,1,0,0,0,0
0,9999,53,0,53,0,49,9999,0.100000,0,0,0.000000,0,6.000000,0.000000,9.146461,0,0,0,0,0,0,0
0,9999,54,0,54,0,49,9999,0.100000,0,0,0.000000,0,7.000000,0.000000,22.249931,0,0,0,0,0,0,0
0,9999,55,0,55,0,49,9999,0.100000,0,0,0.000000,0,8.000000,0.000000,16.864078,0,0,0,0,0,0,0
0,9999,56,0,56,0,49,9999,0.100000,0,0,0.000000,0,9.000000,0.000000,17.422977,0,0,0,0,0,0,0
0,9999,57,0,57,0,49,9999,0.100000,0,0,0.000000,0,4.000000,0.000000,5.327221,0,0,0,0,0,0,0
0,9999,58,0,58,0,49,9999,0.100000,0,0,0.000000,0,9.000000,0.000000,18.283862,0,0,0,0,0,0,0
0,9999,59,0,59,0,49,9999,0.100000,0,0,0.000000,0,7.000000,0.000000,19.170087,0,0,0,0,0,0,0
0,9999,60,0,60,0,49,9999,0.100000,0,0,0.000000,0,6.000000,0.000000,9.157830,0,0,0,0,0,0,0
0,9999,61,0,61,0,49,9999,0.100000,0,0,0.000000,0,7.000000,0.000000,12.503601,0,0,0,0,0,0,0
0,9999,62,0,62,0,49,9999,0.100000,0,0,0.000000,0,7.000000,0.000000,17.698799,0,0,0,0,0,0,0
0,9999,63,0,63,0,49,9999,0.100000,0,0,0.000000,0,9.000000,0.000000,11.158290,0,0,0,0,0,0,0
0,9999,64,0,64,0,49,9999,0.100000,0,0,0.000000,0,8.000000,0.000000,10.426373,0,0,0,0,0,0,0
0,9999,65,0,65,0,49,9999,0.100000,0,0,0.000000,0,7.000000,0.000000,8.784487,0,0,0,0,0,0,0
0,9999,66,0,66,0,49,9999,0.100000,0,0,0.000000,0,9.000000,0.000000,12.679643,0,0,0,0,0,0,0
0,9999,67,0,67,0,49,9999,0.100000,0,0,0.000000,0,3.000000,0.000000,8.194540,0,0,0,0,0,0,0
0,9999,68,0,68,0,49,9999,0.100000,0,0,0.000000,0,5.000000,0.000000,14.241526,0,0,0,0,0,0,0
0,9999,69,0,69,0,49,9999,0.100000,0,0,0.000000,0,5.000000,0.000000,12.768594,0,0,0,0,0,0,0
0,9999,70,0,70,0,49,9999,0.100000,0,0,0.000000,0,13.000000,0.000000,19.256254,0,0,0,0,0,0,0
0,9999,71,0,71,0,49,9999,0.100000,0,0,0.000000,0,7.000000,0.000000,20.183308,0,0,0,0,0,0,0
0,9999,72,0,72,0,49,9999,0.100000,0,0,0.000000,0,4.000000,0.000000,12.170456,0,0,0,0,0,0,0
0,9999,73,0,73,0,49,9999,0.100000,0,0,0.000000,0,11.000000,0.000000,19.624743,0,0,0,0,0,0,0
0,9999,74,0,74,0,49,9999,0.100000,0,0,0.000000,0,10.000000,0.000000,15.448952,0,0,0,0,0,0,0
0,9999,75,0,75,0,49,9999,0.100000,0,0,0.000000,0,12.000000,0.000000,18.868584,0,0,0,0,0,0,0
0,9999,76,0,76,0,49,9999,0.100000,0,0,0.000000,0,2.000000,0.000000,7.104741,0,0,0,0,0,0,0
0,9999,77,0,77,0,49,9999,0.100000,0,0,0.000000,0,10.000000,0.000000,14.240672,0,0,0,0,0,0,0
0,9999,78,0,78,0,49,9999,0.100000,0,0,0.000000,0,1.000000,0.000000,15.064434,0,0,0,0,0,0,0
0,9999,79,0,79,0,49,9999,0.100000,0,0,0.000000,0,10.000000,0.000000,12.046589,0,0,0,0,0,0,0
0,9999,80,0,80,0,49,9999,0.100000,0,0,0.000000,0,12.000000,0.000000,17.137716,0,0,0,0,0,0,0
0,9999,81,0,81,0,49,9999,0.100000,0,0,0.000000,0,7.000000,0.000000,12.177712,0,0,0,0,0,0,0
0,9999,82,0,82,0,49,9999,0.100000,0,0,0.000000,0,4.000000,0.000000,15.260961,0,0,0,0,0,0,0
0,9999,83,0,83,0,49,9999,0.100000,0,0,0.000000,0,8.000000,0.000000,15.611299,0,0,0,0,0,0,0
0,9999,84,0,84,0,49,9999,0.100000,0,0,0.000000,0,8.000000,0.000000,10.800496,0,0,0,0,0,0,0
0,9999,85,0,85,0,49,9999,0.100000,0,0,0.000000,0,10.000000,0.000000,14.232796,0,0,0,0,0,0,0
0,9999,86,0,86,0,49,9999,0.100000,0,0,0.000000,0,9.000000,0.000000,16.182329,0,0,0,0,0,0,0
0,9999,87,0,87,0,49,9999,0.100000,0,0,0.000000,0,6.000000,0.000000,26.387249,0,0,0,0,0,0,0
0,9999,88,0,88,0,49,9999,0.100000,0,0,0.000000,0,3.000000,0.000000,10.250002,0,0,0,0,0,0,0
0,9999,89,0,89,0,49,9999,0.100000,0,0,0.000000,0,6.000000,0.000000,8.380439,0,0,0,0,0,0,0
0,9999,90,0,90,0,49,9999,0.100000,0,0,0.000000,0,9.000000,0.000000,10.299402,0,0,0,0,0,0,0
0,9999,91,0,91,0,49,9999,0.100000,0,0,0.000000,0,9.000000,0.000000,12.925086,0,0,0,0,0,0,0
0,9999,92,0,92,0,49,9999,0.100000,0,0,0.000000,0,2.000000,0.000000,3.809861,0,0,0,0,0,0,0
0,9999,93,0,93,0,49,9999,0.100000,0,0,0.000000,0,7.000000,0.000000,7.972528,0,0,0,0,0,0,0
0,9999,94,0,94,0,49,9999,0.100000,0,0,0.000000,0,9.000000,0.000000,19.963115,0,0,0,0,0,0,0
0,9999,95,0,95,0,49,9999,0.100000,0,0,0.000000,0,9.000000,0.000000,11.541744,0,0,0,0,0,0,0
0,9999,96,0,96,0,49,9999,0.100000,0,0,0.000000,0,9.000000,0.000000,25.661246,0,0,0,0,0,0,0
0,9999,97,0,97,0,49,9999,0.100000,0,0,0.000000,0,7.000000,0.000000,19.098454,0,0,0,0,0,0,0
0,9999,98,0,98,0,49,9999,0.100000,0,0,0.000000,0,2.000000,0.000000,10.208431,0,0,0,0,0,0,0
0,9999,99,0,99,0,49,9999,0.100000,0,0,0.000000,0,7.000000,0.000000,16.915231,0,0,0,0,0,0,0
1,19999,0,10000,0,0,40,9999,0.100000,0,0,0.000000,2,0.000000,0.000000,0.990355,0,0,0,0,0,0,0
1,19999,1,0,1,0,49,19999,0.100000,0,0,0.000000,1,1.000000,0.000000,15.581282,0,0,0,0,0,0,0
1,19999,2,0,2,0,49,19999,0.100000,0,0,0.000000,1,1.000000,0.000000,12.207824,0,0,0,0,0,0,0
1,19999,3,10000,91,0,49,9999,0.100000,0,0,0.000000,3,1.000000,0.000000,13.054421,0,0,0,0,0,0,0
1,19999,4,10000,0,0,49,9999,0.100000,0,0,0.000000,2,7.000000,0.000000,16.998278,0,0,0,0,0,0,0
1,19999,5,0,5,0,40,19999,0.100000,0,0,0.000000,2,0.000000,0.000000,8.930359,0,0,0,0,0,0,0
1,19999,6,10000,0,0,49,9999,0.100000,0,0,0.000000,3,1.000000,0.000000,2.561083,0,0,0,0,0,0,0
1,19999,7,10000,47,0,40,9999,0.100000,0,0,0.000000,2,0.000000,0.000000,0.373197,0,0,0,0,0,0,0
1,19999,8,10000,52,0,40,9999,0.100000,0,0,0.000000,3,0.000000,0.000000,0.275377,0,0,0,0,0,0,0
1,19999,9,10000,73,0,40,9999,0.100000,0,0,0.000000,3,0.000000,0.000000,0.429869,0,0,0,0,0,0,0
1,19999,10,10000,73,0,49,9999,0.100000,0,0,0.000000,3,6.000000,0.000000,25.176255,0,0,0,0,0,0,0
1,19999,11,10000,0,0,49,9999,0.100000,0,0,0.000000,2,1.000000,0.000000,15.582882,0,0,0,0,0,0,0
1,19999,12,0,12,0,40,19999,0.100000,0,0,0.000000,2,0.000000,0.000000,1.750175,0,0,0,0,0,0,0
1,19999,13,10000,73,0,49,9999,0.100000,0,0,0.000000,3,5.000000,0.000000,18.296467,0,0,0,0,0,0,0
1,19999,14,10000,0,0,40,9999,0.100000,0,0,0.000000,3,0.000000,0.000000,0.786589,0,0,0,0,0,0,0
1,19999,15,10000,73,0,40,9999,0.100000,0,0,0.000000,3,0.000000,0.000000,0.229784,0,0,0,0,0,0,0
1,19999,16,10000,1,0,40,9999,0.100000,0,0,0.000000,1,0.000000,0.000000,4.829397,0,0,0,0,0,0,0
1,19999,17,10000,52,0,49,9999,0.100000,0,0,0.000000,3,4.000000,0.000000,6.393466,0,0,0,0,0,0,0
1,19999,18,0,18,0,40,19999,0.100000,0,0,0.000000,3,0.000000,0.000000,5.801465,0,0,0,0,0,0,0
1,19999,19,10000,91,0,40,9999,0.100000,0,0,0.000000,3,0.000000,0.000000,0.273726,0,0,0,0,0,0,0
1,19999,20,10000,73,0,49,9999,0.100000,0,0,0.000000,3,5.000000,0.000000,17.502934,0,0,0,0,0,0,0
1,19999,21,10000,91,0,40,9999,0.100000,0,0,0.000000,3,0.000000,0.000000,0.490330,0,0,0,0,0,0,0
1,19999,22,0,22,0,40,19999,0.100000,0,0,0.000000,2,0.000000,0.000000,0.124963,0,0,0,0,0,0,0
1,19999,23,10000,0,0,40,9999,0.100000,0,0,0.000000,3,0.000000,0.000000,0.371175,0,0,0,0,0,0,0
1,19999,24,10000,24,0,40,9999,0.100000,0,0,0.000000,2,0.000000,0.000000,0.193033,0,0,0,0,0,0,0
1,19999,25,10000,80,0,40,9999,0.100000,0,0,0.000000,3,0.000000,0.000000,0.098714,0,0,0,0,0,0,0
1,19999,26,10000,75,0,40,9999,0.100000,0,0,0.000000,3,0.000000,0.000000,0.143084,0,0,0,0,0,0,0
1,19999,27,10000,91,0,49,9999,0.100000,0,0,0.000000,3,7.000000,0.000000,19.911592,0,0,0,0,0,0,0
1,19999,28,10000,75,0,49,9999,0.100000,0,0,0.000000,3,3.000000,0.000000,15.455729,0,0,0,0,0,0,0
1,19999,29,0,29,0,40,19999,0.100000,0,0,0.000000,2,0.000000,0.000000,0.279808,0,0,0,0,0,0,0
1,19999,30,10000,73,0,40,9999,0.100000,0,0,0.000000,3,0.000000,0.000000,0.134345,0,0,0,0,0,0,0
1,19999,31,10000,0,0,49,9999,0.100000,0,0,0.000000,3,3.000000,0.000000,22.088277,0,0,0,0,0,0,0
1,19999,32,10000,0,0,40,9999,0.100000,0,0,0.000000,3,0.000000,0.000000,0.104599,0,0,0,0,0,0,0
1,19999,33,10000,0,0,40,9999,0.100000,0,0,0.000000,2,0.000000,0.000000,1.283984,0,0,0,0,0,0,0
1,19999,34,10000,73,0,49,9999,0.100000,0,0,0.000000,3,3.000000,0.000000,23.041441,0,0,0,0,0,0,0
1,19999,35,10000,0,0,40,9999,0.100000,0,0,0.000000,2,0.000000,0.000000,6.992508,0,0,0,0,0,0,0
1,19999,36,10000,73,0,40,9999,0.100000,0,0,0.000000,3,0.000000,0.000000,4.027242,0,0,0,0,0,0,0
1,19999,37,10000,73,0,49,9999,0.100000,0,0,0.000000,3,5.000000,0.000000,25.494311,0,0,0,0,0,0,0
1,19999,38,10000,24,0,40,9999,0.100000,0,0,0.000000,2,0.000000,0.000000,2.638985,0,0,0,0,0,0,0
1,19999,39,10000,0,0,40,9999,0.100000,0,0,0.000000,2,0.000000,0.000000,0.587790,0,0,0,0,0,0,0
1,19999,40,10000,0,0,49,9999,0.100000,0,0,0.000000,2,2.000000,0.000000,9.768230,0,0,0,0,0,0,0
1,19999,41,10000,73,0,49,9999,0.100000,0,0,0.000000,3,7.000000,0.000000,11.592316,0,0,0,0,0,0,0
1,19999,42,10000,0,0,49,9999,0.100000,0,0,0.000000,2,1.000000,0.000000,4.082898,0,0,0,0,0,0,0
1,19999,43,10000,73,0,49,9999,0.100000,0,0,0.000000,3,5.000000,0.000000,12.522311,0,0,0,0,0,0,0
1,19999,44,10000,73,0,49,9999,0.100000,0,0,0.000000,3,4.000000,0.000000,9.288702,0,0,0,0,0,0,0
1,19999,45,10000,91,0,49,9999,0.100000,0,0,0.000000,3,2.000000,0.000000,4.247675,0,0,0,0,0,0,0
1,19999,46,10000,73,0,40,9999,0.100000,0,0,0.000000,3,0.000000,0.000000,0.143740,0,0,0,0,0,0,0
1,19999,47,10000,47,0,40,9999,0.100000,0,0,0.000000,2,0.000000,0.000000,0.153750,0,0,0,0,0,0,0
1,19999,48,10000,0,0,49,9999,0.100000,0,0,0.000000,3,2.000000,0.000000,9.822168,0,0,0,0,0,0,0
1,19999,49,10000,52,0,40,9999,0.100000,0,0,0.000000,3,0.000000,0.000000,0.130966,0,0,0,0,0,0,0
1,19999,50,0,50,0,40,19999,0.100000,0,0,0.000000,2,0.000000,0.000000,0.503139,0,0,0,0,0,0,0
1,19999,51,10000,73,0,40,9999,0.100000,0,0,0.000000,3,0.000000,0.000000,0.737401,0,0,0,0,0,0,0
1,19999,52,10000,73,0,40,9999,0.100000,0,0,0.000000,3,0.000000,0.000000,0.071713,0,0,0,0,0,0,0
1,19999,53,10000,0,0,49,9999,0.100000,0,0,0.000000,2,3.000000,0.000000,13.888878,0,0,0,0,0,0,0
1,19999,54,10000,91,0,49,9999,0.100000,0,0,0.000000,3,3.000000,0.000000,16.778645,0,0,0,0,0,0,0
1,19999,55,10000,0,0,49,9999,0.100000,0,0,0.000000,2,6.000000,0.000000,15.494437,0,0,0,0,0,0,0
1,19999,56,10000,52,0,40,9999,0.100000,0,0,0.000000,3,0.000000,0.000000,0.090845,0,0,0,0,0,0,0
1,19999,57,10000,91,0,40,9999,0.100000,0,0,0.000000,3,0.000000,0.000000,0.799137,0,0,0,0,0,0,0
1,19999,58,10000,22,0,49,9999,0.100000,0,0,0.000000,2,2.000000,0.000000,3.312320,0,0,0,0,0,0,0
1,19999,59,10000,75,0,49,9999,0.100000,0,0,0.000000,3,3.000000,0.000000,5.443848,0,0,0,0,0,0,0
1,19999,60,10000,73,0,40,9999,0.100000,0,0,0.000000,3,0.000000,0.000000,0.072691,0,0,0,0,0,0,0
1,19999,61,10000,73,0,40,9999,0.100000,0,0,0.000000,3,0.000000,0.000000,0.212332,0,0,0,0,0,0,0
1,19999,62,0,62,0,40,19999,0.100000,0,0,0.000000,3,0.000000,0.000000,0.484206,0,0,0,0,0,0,0
1,19999,63,10000,52,0,40,9999,0.100000,0,0,0.000000,3,0.000000,0.000000,0.508376,0,0,0,0,0,0,0
1,19999,64,10000,91,0,40,9999,0.100000,0,0,0.000000,3,0.000000,0.000000,0.193423,0,0,0,0,0,0,0
1,19999,65,10000,47,0,40,9999,0.100000,0,0,0.000000,2,0.000000,0.000000,0.625842,0,0,0,0,0,0,0
1,19999,66,10000,1,0,49,9999,0.100000,0,0,0.000000,1,2.000000,0.000000,12.647632,0,0,0,0,0,0,0
1,19999,67,10000,73,0,40,9999,0.100000,0,0,0.000000,3,0.000000,0.000000,0.121134,0,0,0,0,0,0,0
1,19999,68,0,68,0,40,19999,0.100000,0,0,0.000000,3,0.000000,0.000000,0.957582,0,0,0,0,0,0,0
1,19999,69,10000,91,0,49,9999,0.100000,0,0,0.000000,3,3.000000,0.000000,21.680620,0,0,0,0,0,0,0
1,19999,70,10000,73,0,49,9999,0.100000,0,0,0.000000,3,5.000000,0.000000,6.065430,0,0,0,0,0,0,0
1,19999,71,10000,52,0,40,9999,0.100000,0,0,0.000000,3,0.000000,0.000000,0.186352,0,0,0,0,0,0,0
1,19999,72,10000,73,0,40,9999,0.100000,0,0,0.000000,3,0.000000,0.000000,0.457165,0,0,0,0,0,0,0
1,19999,73,10000,0,0,40,9999,0.100000,0,0,0.000000,3,0.000000,0.000000,1.024296,0,0,0,0,0,0,0
1,19999,74,10000,91,0,40,9999,0.100000,0,0,0.000000,3,0.000000,0.000000,0.112018,0,0,0,0,0,0,0
1,19999,75,10000,52,0,49,9999,0.100000,0,0,0.000000,3,4.000000,0.000000,4.839791,0,0,0,0,0,0,0
1,19999,76,10000,52,0,40,9999,0.100000,0,0,0.000000,3,0.000000,0.000000,0.149283,0,0,0,0,0,0,0
1,19999,77,10000,91,0,40,9999,0.100000,0,0,0.000000,3,0.000000,0.000000,1.029037,0,0,0,0,0,0,0
1,19999,78,10000,1,0,40,9999,0.100000,0,0,0.000000,1,0.000000,0.000000,6.701426,0,0,0,0,0,0,0
1,19999,79,10000,0,0,49,9999,0.100000,0,0,0.000000,3,5.000000,0.000000,7.332907,0,0,0,0,0,0,0
1,19999,80,10000,52,0,40,9999,0.100000,0,0,0.000000,3,0.000000,0.000000,0.525914,0,0,0,0,0,0,0
1,19999,81,10000,0,0,40,9999,0.100000,0,0,0.000000,3,0.000000,0.000000,0.272757,0,0,0,0,0,0,0
1,19999,82,10000,1,0,40,9999,0.100000,0,0,0.000000,1,0.000000,0.000000,2.718409,0,0,0,0,0,0,0
1,19999,83,10000,80,0,40,9999,0.100000,0,0,0.000000,3,0.000000,0.000000,6.210527,0,0,0,0,0,0,0
1,19999,84,10000,73,0,40,9999,0.100000,0,0,0.000000,3,0.000000,0.000000,1.772235,0,0,0,0,0,0,0
1,19999,85,10000,0,0,49,9999,0.100000,0,0,0.000000,3,3.000000,0.000000,18.993888,0,0,0,0,0,0,0
1,19999,86,10000,73,0,40,9999,0.100000,0,0,0.000000,3,0.000000,0.000000,1.141664,0,0,0,0,0,0,0
1,19999,87,10000,73,0,49,9999,0.100000,0,0,0.000000,3,1.000000,0.000000,4.292648,0,0,0,0,0,0,0
1,19999,88,10000,52,0,40,9999,0.100000,0,0,0.000000,3,0.000000,0.000000,3.843294,0,0,0,0,0,0,0
1,19999,89,10000,73,0,40,9999,0.100000,0,0,0.000000,3,0.000000,0.000000,0.733569,0,0,0,0,0,0,0
1,19999,90,10000,73,0,49,9999,0.100000,0,0,0.000000,3,2.000000,0.000000,2.960554,0,0,0,0,0,0,0
1,19999,91,10000,0,0,40,9999,0.100000,0,0,0.000000,3,0.000000,0.000000,0.449366,0,0,0,0,0,0,0
1,19999,92,0,92,0,40,19999,0.100000,0,0,0.000000,2,0.000000,0.000000,1.148719,0,0,0,0,0,0,0
1,19999,93,10000,52,0,40,9999,0.100000,0,0,0.000000,3,0.000000,0.000000,0.124412,0,0,0,0,0,0,0
1,19999,94,10000,73,0,40,9999,0.100000,0,0,0.000000,3,0.000000,0.000000,1.539373,0,0,0,0,0,0,0
1,19999,95,10000,80,0,40,9999,0.100000,0,0,0.000000,3,0.000000,0.000000,0.764136,0,0,0,0,0,0,0
1,19999,96,10000,91,0,99,9999,0.100000,0,0,34.210526,3,6.000000,0.000000,15.004845,0,0,1,0,0,0,0
1,19999,97,10000,0,0,49,9999,0.100000,0,0,0.000000,3,1.000000,0.000000,15.343621,0,0,0,0,0,0,0
1,19999,98,10000,73,0,49,9999,0.100000,0,0,0.000000,3,1.000000,0.000000,12.255010,0,0,0,0,0,0,0
1,19999,99,10000,73,0,49,9999,0.100000,0,0,0.000000,3,1.000000,0.000000,10.130916,0,0,0,0,0,0,0
2,29999,0,20000,0,10000,40,9999,0.100000,0,0,0.000000,4,0.000000,0.000000,0.623933,0,0,0,0,0,0,0
2,29999,1,20000,52,0,49,9999,0.100000,0,0,0.000000,4,2.000000,0.000000,10.245312,0,0,0,0,0,0,0
2,29999,2,20000,75,0,49,9999,0.100000,0,0,0.000000,5,5.000000,0.000000,15.018435,0,0,0,0,0,0,0
2,29999,3,20000,73,0,49,9999,0.100000,0,0,0.000000,5,2.000000,0.000000,27.730004,0,0,0,0,0,0,0
2,29999,4,20000,38,10000,40,9999,0.100000,0,0,0.000000,5,0.000000,0.000000,2.092827,0,0,0,0,0,0,0
2,29999,5,20000,73,0,40,9999,0.100000,0,0,0.000000,5,0.000000,0.000000,1.007651,0,0,0,0,0,0,0
2,29999,6,20000,75,0,40,9999,0.100000,0,0,0.000000,5,0.000000,0.000000,1.034069,0,0,0,0,0,0,0
2,29999,7,20000,75,0,40,9999,0.100000,0,0,0.000000,5,0.000000,0.000000,0.812908,0,0,0,0,0,0,0
2,29999,8,20000,52,0,40,9999,0.100000,0,0,0.000000,5,0.000000,0.000000,0.176401,0,0,0,0,0,0,0
2,29999,9,20000,52,0,40,9999,0.100000,0,0,0.000000,5,0.000000,0.000000,0.306558,0,0,0,0,0,0,0
2,29999,10,20000,23,10000,49,9999,0.100000,0,0,0.000000,5,3.000000,0.000000,8.250280,0,0,0,0,0,0,0
2,29999,11,20000,38,10000,40,9999,0.100000,0,0,0.000000,5,0.000000,0.000000,9.670460,0,0,0,0,0,0,0
2,29999,12,20000,23,10000,40,9999,0.100000,0,0,0.000000,5,0.000000,0.000000,0.665933,0,0,0,0,0,0,0
2,29999,13,20000,75,0,40,9999,0.100000,0,0,0.000000,5,0.000000,0.000000,0.120754,0,0,0,0,0,0,0
2,29999,14,20000,75,0,40,9999,0.100000,0,0,0.000000,5,0.000000,0.000000,0.595477,0,0,0,0,0,0,0
2,29999,15,20000,75,0,49,9999,0.100000,0,0,0.000000,5,6.000000,0.000000,12.916456,0,0,0,0,0,0,0
2,29999,16,20000,0,10000,40,9999,0.100000,0,0,0.000000,5,0.000000,0.000000,0.009820,0,0,0,0,0,0,0
2,29999,17,20000,73,0,40,9999,0.100000,0,0,0.000000,5,0.000000,0.000000,0.170887,0,0,0,0,0,0,0
2,29999,18,20000,23,10000,40,9999,0.100000,0,0,0.000000,5,0.000000,0.000000,0.193816,0,0,0,0,0,0,0
2,29999,19,20000,52,0,49,9999,0.100000,0,0,0.000000,5,1.000000,0.000000,1.232582,0,0,0,0,0,0,0
2,29999,20,20000,75,0,40,9999,0.100000,0,0,0.000000,3,0.000000,0.000000,0.237364,0,0,0,0,0,0,0
2,29999,21,20000,38,10000,40,9999,0.100000,0,0,0.000000,5,0.000000,0.000000,0.256416,0,0,0,0,0,0,0
2,29999,22,20000,73,0,40,9999,0.100000,0,0,0.000000,5,0.000000,0.000000,0.153056,0,0,0,0,0,0,0
2,29999,23,20000,23,10000,40,9999,0.100000,0,0,0.000000,5,0.000000,0.000000,0.213069,0,0,0,0,0,0,0
2,29999,24,20000,73,0,40,9999,0.100000,0,0,0.000000,4,0.000000,0.000000,0.186715,0,0,0,0,0,0,0
2,29999,25,20000,75,0,49,9999,0.100000,0,0,0.000000,5,5.000000,0.000000,10.618164,0,0,0,0,0,0,0
2,29999,26,20000,38,10000,40,9999,0.100000,0,0,0.000000,5,0.000000,0.000000,0.151626,0,0,0,0,0,0,0
2,29999,27,20000,73,0,49,9999,0.100000,0,0,0.000000,5,2.000000,0.000000,6.427713,0,0,0,0,0,0,0
2,29999,28,20000,52,0,49,9999,0.100000,0,0,0.000000,5,3.000000,0.000000,13.316470,0,0,0,0,0,0,0
2,29999,29,20000,75,0,40,9999,0.100000,0,0,0.000000,5,0.000000,0.000000,1.165074,0,0,0,0,0,0,0
2,29999,30,20000,52,0,40,9999,0.100000,0,0,0.000000,5,0.000000,0.000000,0.140032,0,0,0,0,0,0,0
2,29999,31,20000,73,0,49,9999,0.100000,0,0,0.000000,4,7.000000,0.000000,24.211031,0,0,0,0,0,0,0
2,29999,32,20000,73,0,40,9999,0.100000,0,0,0.000000,5,0.000000,0.000000,0.104819,0,0,0,0,0,0,0
2,29999,33,20000,52,0,40,9999,0.100000,0,0,0.000000,5,0.000000,0.000000,1.007407,0,0,0,0,0,0,0
2,29999,34,20000,52,0,40,9999,0.100000,0,0,0.000000,5,0.000000,0.000000,1.729724,0,0,0,0,0,0,0
2,29999,35,20000,75,0,49,9999,0.100000,0,0,0.000000,5,1.000000,0.000000,2.191600,0,0,0,0,0,0,0
2,29999,36,20000,38,10000,40,9999,0.100000,0,0,0.000000,5,0.000000,0.000000,2.735616,0,0,0,0,0,0,0
2,29999,37,20000,38,10000,40,9999,0.100000,0,0,0.000000,5,0.000000,0.000000,11.971466,0,0,0,0,0,0,0
2,29999,38,20000,73,0,40,9999,0.100000,0,0,0.000000,5,0.000000,0.000000,0.828109,0,0,0,0,0,0,0
2,29999,39,20000,23,10000,40,9999,0.100000,0,0,0.000000,5,0.000000,0.000000,0.641835,0,0,0,0,0,0,0
2,29999,40,20000,73,0,49,9999,0.100000,0,0,0.000000,5,1.000000,0.000000,2.748281,0,0,0,0,0,0,0
2,29999,41,20000,73,0,40,9999,0.100000,0,0,0.000000,5,0.000000,0.000000,0.242368,0,0,0,0,0,0,0
2,29999,42,20000,38,10000,49,9999,0.100000,0,0,0.000000,5,1.000000,0.000000,1.213936,0,0,0,0,0,0,0
2,29999,43,20000,75,0,49,9999,0.100000,0,0,0.000000,5,3.000000,0.000000,20.425579,0,0,0,0,0,0,0
2,29999,44,20000,52,0,40,9999,0.100000,0,0,0.000000,5,0.000000,0.000000,0.275873,0,0,0,0,0,0,0
2,29999,45,20000,23,10000,40,9999,0.100000,0,0,0.000000,5,0.000000,0.000000,0.570872,0,0,0,0,0,0,0
2,29999,46,20000,23,10000,40,9999,0.100000,0,0,0.000000,5,0.000000,0.000000,0.118749,0,0,0,0,0,0,0
2,29999,47,20000,52,0,40,9999,0.100000,0,0,0.000000,5,0.000000,0.000000,0.142941,0,0,0,0,0,0,0
2,29999,48,20000,52,0,49,9999,0.100000,0,0,0.000000,5,3.000000,0.000000,4.216398,0,0,0,0,0,0,0
2,29999,49,20000,75,0,40,9999,0.100000,0,0,0.000000,5,0.000000,0.000000,0.131081,0,0,0,0,0,0,0
2,29999,50,20000,52,0,40,9999,0.100000,0,0,0.000000,5,0.000000,0.000000,0.513795,0,0,0,0,0,0,0
2,29999,51,10000,73,0,40,19999,0.100000,0,0,0.000000,5,0.000000,0.000000,0.785264,0,0,0,0,0,0,0
2,29999,52,20000,38,10000,40,9999,0.100000,0,0,0.000000,5,0.000000,0.000000,0.631358,0,0,0,0,0,0,0
2,29999,53,20000,52,0,49,9999,0.100000,0,0,0.000000,5,4.000000,0.000000,19.788435,0,0,0,0,0,0,0
2,29999,54,20000,23,10000,49,9999,0.100000,0,0,0.000000,5,5.000000,0.000000,8.569392,0,0,0,0,0,0,0
2,29999,55,20000,38,10000,40,9999,0.100000,0,0,0.000000,5,0.000000,0.000000,0.418468,0,0,0,0,0,0,0
2,29999,56,20000,52,0,40,9999,0.100000,0,0,0.000000,5,0.000000,0.000000,0.090362,0,0,0,0,0,0,0
2,29999,57,20000,38,10000,40,9999,0.100000,0,0,0.000000,5,0.000000,0.000000,1.219766,0,0,0,0,0,0,0
2,29999,58,20000,52,0,40,9999,0.100000,0,0,0.000000,5,0.000000,0.000000,0.634368,0,0,0,0,0,0,0
2,29999,59,20000,73,0,40,9999,0.100000,0,0,0.000000,5,0.000000,0.000000,1.249117,0,0,0,0,0,0,0
2,29999,60,20000,73,0,40,9999,0.100000,0,0,0.000000,5,0.000000,0.000000,0.071657,0,0,0,0,0,0,0
2,29999,61,20000,52,0,40,9999,0.100000,0,0,0.000000,5,0.000000,0.000000,0.196027,0,0,0,0,0,0,0
2,29999,62,20000,75,0,40,9999,0.100000,0,0,0.000000,5,0.000000,0.000000,0.144810,0,0,0,0,0,0,0
2,29999,63,20000,75,0,49,9999,0.100000,0,0,0.000000,5,7.000000,0.000000,14.933416,0,0,0,0,0,0,0
2,29999,64,20000,75,0,40,9999,0.100000,0,0,0.000000,5,0.000000,0.000000,0.196943,0,0,0,0,0,0,0
2,29999,65,20000,38,10000,40,9999,0.100000,0,0,0.000000,5,0.000000,0.000000,0.629252,0,0,0,0,0,0,0
2,29999,66,20000,73,0,49,9999,0.100000,0,0,0.000000,5,5.000000,0.000000,16.783525,0,0,0,0,0,0,0
2,29999,67,20000,75,0,40,9999,0.100000,0,0,0.000000,5,0.000000,0.000000,0.123268,0,0,0,0,0,0,0
2,29999,68,20000,52,0,49,9999,0.100000,0,0,0.000000,5,3.000000,0.000000,13.731084,0,0,0,0,0,0,0
2,29999,69,20000,52,0,49,9999,0.100000,0,0,0.000000,4,1.000000,0.000000,9.100304,0,0,0,0,0,0,0
2,29999,70,20000,52,0,40,9999,0.100000,0,0,0.000000,5,0.000000,0.000000,0.926548,0,0,0,0,0,0,0
2,29999,71,20000,23,10000,40,9999,0.100000,0,0,0.000000,5,0.000000,0.000000,0.583584,0,0,0,0,0,0,0
2,29999,72,20000,23,10000,40,9999,0.100000,0,0,0.000000,5,0.000000,0.000000,0.119538,0,0,0,0,0,0,0
2,29999,73,20000,75,0,40,9999,0.100000,0,0,0.000000,5,0.000000,0.000000,0.981291,0,0,0,0,0,0,0
2,29999,74,20000,23,10000,40,9999,0.100000,0,0,0.000000,5,0.000000,0.000000,0.103265,0,0,0,0,0,0,0
2,29999,75,20000,73,0,40,9999,0.100000,0,0,0.000000,5,0.000000,0.000000,0.775013,0,0,0,0,0,0,0
2,29999,76,20000,0,10000,40,9999,0.100000,0,0,0.000000,4,0.000000,0.000000,0.153206,0,0,0,0,0,0,0
2,29999,77,20000,0,10000,40,9999,0.100000,0,0,0.000000,5,0.000000,0.000000,0.980373,0,0,0,0,0,0,0
2,29999,78,20000,73,0,40,9999,0.100000,0,0,0.000000,5,0.000000,0.000000,0.951849,0,0,0,0,0,0,0
2,29999,79,20000,23,10000,40,9999,0.100000,0,0,0.000000,5,0.000000,0.000000,0.963626,0,0,0,0,0,0,0
2,29999,80,20000,73,0,49,9999,0.100000,0,0,0.000000,5,11.000000,0.000000,24.151485,0,0,0,0,0,0,0
2,29999,81,20000,73,0,40,9999,0.100000,0,0,0.000000,5,0.000000,0.000000,1.133155,0,0,0,0,0,0,0
2,29999,82,20000,75,0,40,9999,0.100000,0,0,0.000000,5,0.000000,0.000000,1.939975,0,0,0,0,0,0,0
2,29999,83,20000,52,0,49,9999,0.100000,0,0,0.000000,5,1.000000,0.000000,5.941722,0,0,0,0,0,0,0
2,29999,84,20000,80,10000,49,9999,0.100000,0,0,0.000000,5,1.000000,0.000000,2.448412,0,0,0,0,0,0,0
2,29999,85,20000,73,0,49,9999,0.100000,0,0,0.000000,5,2.000000,0.000000,3.514774,0,0,0,0,0,0,0
2,29999,86,20000,75,0,49,9999,0.100000,0,0,0.000000,5,1.000000,0.000000,1.776034,0,0,0,0,0,0,0
2,29999,87,20000,75,0,40,9999,0.100000,0,0,0.000000,5,0.000000,0.000000,1.334481,0,0,0,0,0,0,0
2,29999,88,20000,75,0,40,9999,0.100000,0,0,0.000000,5,0.000000,0.000000,1.455326,0,0,0,0,0,0,0
2,29999,89,20000,80,10000,40,9999,0.100000,0,0,0.000000,5,0.000000,0.000000,0.676331,0,0,0,0,0,0,0
2,29999,90,20000,23,10000,49,9999,0.100000,0,0,0.000000,5,1.000000,0.000000,4.584115,0,0,0,0,0,0,0
2,29999,91,20000,52,0,40,9999,0.100000,0,0,0.000000,5,0.000000,0.000000,1.372528,0,0,0,0,0,0,0
2,29999,92,20000,80,10000,49,9999,0.100000,0,0,0.000000,5,1.000000,0.000000,8.007908,0,0,0,0,0,0,0
2,29999,93,20000,52,0,40,9999,0.100000,0,0,0.000000,5,0.000000,0.000000,0.137033,0,0,0,0,0,0,0
2,29999,94,20000,23,10000,40,9999,0.100000,0,0,0.000000,5,0.000000,0.000000,0.827811,0,0,0,0,0,0,0
2,29999,95,20000,23,10000,40,9999,0.100000,0,0,0.000000,5,0.000000,0.000000,0.681965,0,0,0,0,0,0,0
2,29999,96,20000,23,10000,49,9999,0.100000,0,0,0.000000,5,1.000000,0.000000,9.889266,0,0,0,0,0,0,0
2,29999,97,20000,52,0,49,9999,0.100000,0,0,0.000000,5,6.000000,0.000000,10.723510,0,0,0,0,0,0,0
2,29999,98,20000,23,10000,40,9999,0.100000,0,0,0.000000,5,0.000000,0.000000,2.793110,0,0,0,0,0,0,0
2,29999,99,20000,75,0,40,9999,0.100000,0,0,0.000000,5,0.000000,0.000000,0.115439,0,0,0,0,0,0,0
3,39999,0,30000,73,0,40,9999,0.100000,0,0,0.000000,5,0.000000,0.000000,0.547988,0,0,0,0,0,0,0
3,39999,1,30000,17,10000,40,9999,0.100000,0,0,0.000000,5,0.000000,0.000000,7.443340,0,0,0,0,0,0,0
3,39999,2,30000,52,0,49,9999,0.100000,0,0,0.000000,5,5.000000,0.000000,10.929472,0,0,0,0,0,0,0
3,39999,3,30000,17,10000,40,9999,0.100000,0,0,0.000000,5,0.000000,0.000000,5.716676,0,0,0,0,0,0,0
3,39999,4,30000,23,10000,40,9999,0.100000,0,0,0.000000,5,0.000000,0.000000,2.087050,0,0,0,0,0,0,0
3,39999,5,30000,23,10000,40,9999,0.100000,0,0,0.000000,5,0.000000,0.000000,0.484596,0,0,0,0,0,0,0
3,39999,6,30000,17,10000,40,9999,0.100000,0,0,0.000000,5,0.000000,0.000000,0.988661,0,0,0,0,0,0,0
3,39999,7,30000,73,0,40,9999,0.100000,0,0,0.000000,5,0.000000,0.000000,0.740374,0,0,0,0,0,0,0
3,39999,8,30000,17,10000,40,9999,0.065000,0,0,0.000000,5,0.000000,0.000000,0.180844,0,0,0,0,0,0,0
3,39999,9,30000,73,0,40,9999,0.100000,0,0,0.000000,5,0.000000,0.000000,0.278066,0,0,0,0,0,0,0
3,39999,10,30000,52,0,49,9999,0.100000,0,0,0.000000,5,1.000000,0.000000,1.604773,0,0,0,0,0,0,0
3,39999,11,30000,23,10000,40,9999,0.100000,0,0,0.000000,5,0.000000,0.000000,15.247519,0,0,0,0,0,0,0
3,39999,12,30000,38,10000,40,9999,0.100000,0,0,0.000000,5,0.000000,0.000000,0.949039,0,0,0,0,0,0,0
3,39999,13,30000,23,10000,40,9999,0.100000,0,0,0.000000,5,0.000000,0.000000,0.121201,0,0,0,0,0,0,0
3,39999,14,30000,23,10000,40,9999,0.100000,0,0,0.000000,5,0.000000,0.000000,0.632919,0,0,0,0,0,0,0
3,39999,15,30000,17,10000,40,9999,0.100000,0,0,0.000000,5,0.000000,0.000000,0.504074,0,0,0,0,0,0,0
3,39999,16,30000,23,10000,40,9999,0.100000,0,0,0.000000,5,0.000000,0.000000,0.009789,0,0,0,0,0,0,0
3,39999,17,30000,91,20000,40,9999,0.100000,0,0,0.000000,5,0.000000,0.000000,0.170295,0,0,0,0,0,0,0
3,39999,18,30000,52,0,40,9999,0.100000,0,0,0.000000,5,0.000000,0.000000,0.181620,0,0,0,0,0,0,0
3,39999,19,30000,23,10000,49,9999,0.100000,0,0,0.000000,5,1.000000,0.000000,1.325155,0,0,0,0,0,0,0
3,39999,20,30000,17,10000,40,9999,0.100000,0,0,0.000000,5,0.000000,0.000000,0.226047,0,0,0,0,0,0,0
3,39999,21,30000,17,10000,40,9999,0.100000,0,0,0.000000,5,0.000000,0.000000,0.125920,0,0,0,0,0,0,0
3,39999,22,30000,17,10000,40,9999,0.100000,0,0,0.000000,5,0.000000,0.000000,0.417714,0,0,0,0,0,0,0
3,39999,23,30000,23,10000,40,9999,0.100000,0,0,0.000000,5,0.000000,0.000000,0.221207,0,0,0,0,0,0,0
3,39999,24,30000,17,10000,40,9999,0.100000,0,0,0.000000,5,0.000000,0.000000,0.186503,0,0,0,0,0,0,0
3,39999,25,30000,38,10000,40,9999,0.100000,0,0,0.000000,5,0.000000,0.000000,0.110388,0,0,0,0,0,0,0
3,39999,26,30000,38,10000,40,9999,0.100000,0,0,0.000000,5,0.000000,0.000000,0.113180,0,0,0,0,0,0,0
3,39999,27,30000,73,0,40,9999,0.100000,0,0,0.000000,5,0.000000,0.000000,0.238261,0,0,0,0,0,0,0
3,39999,28,30000,73,0,40,9999,0.100000,0,0,0.000000,5,0.000000,0.000000,0.245357,0,0,0,0,0,0,0
3,39999,29,30000,52,0,49,9999,0.100000,0,0,0.000000,5,1.000000,0.000000,1.306977,0,0,0,0,0,0,0
3,39999,30,30000,38,10000,40,9999,0.100000,0,0,0.000000,5,0.000000,0.000000,0.140225,0,0,0,0,0,0,0
3,39999,31,30000,73,0,40,9999,0.100000,0,0,0.000000,5,0.000000,0.000000,0.908252,0,0,0,0,0,0,0
3,39999,32,30000,73,0,40,9999,0.100000,0,0,0.000000,5,0.000000,0.000000,0.101533,0,0,0,0,0,0,0
3,39999,33,30000,38,10000,40,9999,0.100000,0,0,0.000000,5,0.000000,0.000000,0.996965,0,0,0,0,0,0,0
3,39999,34,30000,17,10000,40,9999,0.100000,0,0,0.000000,5,0.000000,0.000000,1.821139,0,0,0,0,0,0,0
3,39999,35,30000,38,10000,40,9999,0.100000,0,0,0.000000,5,0.000000,0.000000,3.118227,0,0,0,0,0,0,0
3,39999,36,30000,52,0,40,9999,0.100000,0,0,0.000000,5,0.000000,0.000000,0.786503,0,0,0,0,0,0,0
3,39999,37,30000,52,0,40,9999,0.100000,0,0,0.000000,5,0.000000,0.000000,3.061305,0,0,0,0,0,0,0
3,39999,38,30000,23,10000,40,9999,0.100000,0,0,0.000000,5,0.000000,0.000000,0.979873,0,0,0,0,0,0,0
3,39999,39,30000,73,0,40,9999,0.100000,0,0,0.000000,5,0.000000,0.000000,1.874868,0,0,0,0,0,0,0
3,39999,40,30000,38,10000,40,9999,0.100000,0,0,0.000000,5,0.000000,0.000000,7.238624,0,0,0,0,0,0,0
3,39999,41,30000,38,10000,40,9999,0.100000,0,0,0.000000,5,0.000000,0.000000,1.138414,0,0,0,0,0,0,0
3,39999,42,30000,73,0,40,9999,0.100000,0,0,0.000000,5,0.000000,0.000000,1.382135,0,0,0,0,0,0,0
3,39999,43,30000,38,10000,49,9999,0.100000,0,0,0.000000,5,2.000000,0.000000,9.090368,0,0,0,0,0,0,0
3,39999,44,30000,38,10000,40,9999,0.100000,0,0,0.000000,5,0.000000,0.000000,0.273905,0,0,0,0,0,0,0
3,39999,45,30000,73,0,40,9999,0.100000,0,0,0.000000,5,0.000000,0.000000,0.186774,0,0,0,0,0,0,0
3,39999,46,30000,91,20000,40,9999,0.100000,0,0,0.000000,5,0.000000,0.000000,0.114695,0,0,0,0,0,0,0
3,39999,47,30000,38,10000,49,9999,0.100000,0,0,0.000000,5,7.000000,0.000000,19.435186,0,0,0,0,0,0,0
3,39999,48,30000,17,10000,49,9999,0.100000,0,0,0.000000,5,3.000000,0.000000,4.399336,0,0,0,0,0,0,0
3,39999,49,30000,52,0,40,9999,0.100000,0,0,0.000000,5,0.000000,0.000000,0.090125,0,0,0,0,0,0,0
3,39999,50,30000,38,10000,40,9999,0.100000,0,0,0.000000,5,0.000000,0.000000,0.545175,0,0,0,0,0,0,0
3,39999,51,30000,73,0,40,9999,0.100000,0,0,0.000000,5,0.000000,0.000000,0.798069,0,0,0,0,0,0,0
3,39999,52,30000,73,0,49,9999,0.100000,0,0,0.000000,5,7.000000,0.000000,15.408292,0,0,0,0,0,0,0
3,39999,53,30000,73,0,40,9999,0.100000,0,0,0.000000,5,0.000000,0.000000,13.080479,0,0,0,0,0,0,0
3,39999,54,30000,52,0,49,9999,0.100000,0,0,0.000000,5,1.000000,0.000000,11.652410,0,0,0,0,0,0,0
3,39999,55,30000,38,10000,40,9999,0.100000,0,0,0.000000,5,0.000000,0.000000,0.410976,0,0,0,0,0,0,0
3,39999,56,30000,23,10000,49,9999,0.100000,0,0,0.000000,5,5.000000,0.000000,11.291950,0,0,0,0,0,0,0
3,39999,57,30000,23,10000,40,9999,0.100000,0,0,0.000000,5,0.000000,0.000000,1.048323,0,0,0,0,0,0,0
3,39999,58,30000,73,0,40,9999,0.100000,0,0,0.000000,5,0.000000,0.000000,0.889500,0,0,0,0,0,0,0
3,39999,59,30000,73,0,40,9999,0.100000,0,0,0.000000,5,0.000000,0.000000,0.952251,0,0,0,0,0,0,0
3,39999,60,30000,23,10000,40,9999,0.100000,0,0,0.000000,5,0.000000,0.000000,0.072911,0,0,0,0,0,0,0
3,39999,61,30000,52,0,40,9999,0.135000,0,0,0.000000,5,0.000000,0.000000,0.161741,0,0,0,0,0,0,0
3,39999,62,30000,17,10000,40,9999,0.100000,0,0,0.000000,5,0.000000,0.000000,0.153832,0,0,0,0,0,0,0
3,39999,63,30000,17,10000,40,9999,0.100000,0,0,0.000000,5,0.000000,0.000000,0.461907,0,0,0,0,0,0,0
3,39999,64,30000,38,10000,40,9999,0.100000,0,0,0.000000,5,0.000000,0.000000,0.177519,0,0,0,0,0,0,0
3,39999,65,30000,17,10000,40,9999,0.100000,0,0,0.000000,5,0.000000,0.000000,0.592265,0,0,0,0,0,0,0
3,39999,66,30000,73,0,40,9999,0.100000,0,0,0.000000,5,0.000000,0.000000,1.096674,0,0,0,0,0,0,0
3,39999,67,30000,23,10000,40,9999,0.100000,0,0,0.000000,5,0.000000,0.000000,0.123590,0,0,0,0,0,0,0
3,39999,68,30000,91,20000,40,9999,0.100000,0,0,0.000000,5,0.000000,0.000000,1.304766,0,0,0,0,0,0,0
3,39999,69,30000,52,0,40,9999,0.100000,0,0,0.000000,5,0.000000,0.000000,1.235316,0,0,0,0,0,0,0
3,39999,70,30000,17,10000,40,9999,0.100000,0,0,0.000000,5,0.000000,0.000000,1.104369,0,0,0,0,0,0,0
3,39999,71,30000,17,10000,40,9999,0.100000,0,0,0.000000,5,0.000000,0.000000,1.545089,0,0,0,0,0,0,0
3,39999,72,30000,91,20000,40,9999,0.100000,0,0,0.000000,5,0.000000,0.000000,0.121929,0,0,0,0,0,0,0
3,39999,73,30000,38,10000,40,9999,0.100000,0,0,0.000000,5,0.000000,0.000000,0.951834,0,0,0,0,0,0,0
3,39999,74,30000,17,10000,40,9999,0.100000,0,0,0.000000,5,0.000000,0.000000,0.153043,0,0,0,0,0,0,0
3,39999,75,30000,17,10000,40,9999,0.100000,0,0,0.000000,5,0.000000,0.000000,0.780554,0,0,0,0,0,0,0
3,39999,76,30000,38,10000,40,9999,0.100000,0,0,0.000000,5,0.000000,0.000000,0.229253,0,0,0,0,0,0,0
3,39999,77,30000,23,10000,40,9999,0.100000,0,0,0.000000,5,0.000000,0.000000,0.945743,0,0,0,0,0,0,0
3,39999,78,30000,52,0,40,9999,0.100000,0,0,0.000000,5,0.000000,0.000000,1.123982,0,0,0,0,0,0,0
3,39999,79,30000,17,10000,40,9999,0.100000,0,0,0.000000,5,0.000000,0.000000,0.583312,0,0,0,0,0,0,0
3,39999,80,30000,73,0,40,9999,0.100000,0,0,0.000000,5,0.000000,0.000000,0.337637,0,0,0,0,0,0,0
3,39999,81,30000,52,0,40,9999,0.100000,0,0,0.000000,5,0.000000,0.000000,0.070190,0,0,0,0,0,0,0
3,39999,82,30000,17,10000,49,9999,0.100000,0,0,0.000000,5,3.000000,0.000000,8.723158,0,0,0,0,0,0,0
3,39999,83,30000,38,10000,40,9999,0.100000,0,0,0.000000,5,0.000000,0.000000,0.212602,0,0,0,0,0,0,0
3,39999,84,30000,17,10000,40,9999,0.100000,0,0,0.000000,5,0.000000,0.000000,0.617177,0,0,0,0,0,0,0
3,39999,85,30000,17,10000,40,9999,0.100000,0,0,0.000000,5,0.000000,0.000000,0.118968,0,0,0,0,0,0,0
3,39999,86,30000,38,10000,49,9999,0.100000,0,0,0.000000,5,1.000000,0.000000,1.338729,0,0,0,0,0,0,0
3,39999,87,30000,73,0,40,9999,0.100000,0,0,0.000000,5,0.000000,0.000000,1.215618,0,0,0,0,0,0,0
3,39999,88,30000,38,10000,49,9999,0.100000,0,0,0.000000,5,8.000000,0.000000,13.042238,0,0,0,0,0,0,0
3,39999,89,30000,17,10000,40,9999,0.100000,0,0,0.000000,5,0.000000,0.000000,0.652362,0,0,0,0,0,0,0
3,39999,90,30000,73,0,40,9999,0.100000,0,0,0.000000,5,0.000000,0.000000,3.073945,0,0,0,0,0,0,0
3,39999,91,30000,91,20000,40,9999,0.100000,0,0,0.000000,5,0.000000,0.000000,0.074588,0,0,0,0,0,0,0
3,39999,92,30000,38,10000,40,9999,0.100000,0,0,0.000000,5,0.000000,0.000000,0.617354,0,0,0,0,0,0,0
3,39999,93,30000,91,20000,40,9999,0.100000,0,0,0.000000,5,0.000000,0.000000,0.134620,0,0,0,0,0,0,0
3,39999,94,30000,73,0,40,9999,0.100000,0,0,0.000000,5,0.000000,0.000000,0.834730,0,0,0,0,0,0,0
3,39999,95,30000,17,10000,40,9999,0.100000,0,0,0.000000,5,0.000000,0.000000,0.578004,0,0,0,0,0,0,0
3,39999,96,30000,38,10000,40,9999,0.100000,0,0,0.000000,5,0.000000,0.000000,7.722214,0,0,0,0,0,0,0
3,39999,97,30000,38,10000,40,9999,0.100000,0,0,0.000000,5,0.000000,0.000000,0.843531,0,0,0,0,0,0,0
3,39999,98,30000,38,10000,49,9999,0.100000,0,0,0.000000,5,1.000000,0.000000,15.686829,0,0,0,0,0,0,0
3,39999,99,30000,73,0,40,9999,0.100000,0,0,0.000000,5,0.000000,0.000000,0.113667,0,0,0,0,0,0,0
4,49999,0,40000,38,10000,40,9999,0.100000,0,0,0.000000,5,0.000000,0.000000,0.529817,0,0,0,0,0,0,0
4,49999,1,40000,52,0,40,9999,0.100000,0,0,0.000000,5,0.000000,0.000000,2.494546,0,0,0,0,0,0,0
4,49999,2,40000,38,10000,49,9999,0.100000,0,0,0.000000,5,1.000000,0.000000,4.385763,0,0,0,0,0,0,0
4,49999,3,40000,73,0,40,9999,0.100000,0,0,0.000000,5,0.000000,0.000000,0.126761,0,0,0,0,0,0,0
4,49999,4,40000,73,0,40,9999,0.100000,0,0,0.000000,5,0.000000,0.000000,1.949822,0,0,0,0,0,0,0
4,49999,5,40000,17,10000,40,9999,0.100000,0,0,0.000000,5,0.000000,0.000000,0.510624,0,0,0,0,0,0,0
4,49999,6,40000,38,10000,49,9999,0.100000,0,0,0.000000,5,6.000000,0.000000,6.484360,0,0,0,0,0,0,0
4,49999,7,40000,38,10000,40,9999,0.100000,0,0,0.000000,5,0.000000,0.000000,0.716194,0,0,0,0,0,0,0
4,49999,8,40000,91,20000,40,9999,0.100000,0,0,0.000000,5,0.000000,0.000000,0.204295,0,0,0,0,0,0,0
4,49999,9,40000,38,10000,40,9999,0.100000,0,0,0.000000,5,0.000000,0.000000,0.272575,0,0,0,0,0,0,0
4,49999,10,40000,73,0,40,9999,0.100000,0,0,0.000000,5,0.000000,0.000000,0.912317,0,0,0,0,0,0,0
4,49999,11,40000,73,0,49,9999,0.100000,0,0,0.000000,5,6.000000,0.000000,22.021572,0,0,0,0,0,0,0
4,49999,12,40000,17,10000,40,9999,0.100000,0,0,0.000000,5,0.000000,0.000000,0.953470,0,0,0,0,0,0,0
4,49999,13,40000,91,20000,40,9999,0.100000,0,0,0.000000,5,0.000000,0.000000,0.139421,0,0,0,0,0,0,0
4,49999,14,40000,38,10000,40,9999,0.100000,0,0,0.000000,5,0.000000,0.000000,0.543785,0,0,0,0,0,0,0
4,49999,15,40000,17,10000,40,9999,0.100000,0,0,0.000000,5,0.000000,0.000000,1.250172,0,0,0,0,0,0,0
4,49999,16,40000,17,10000,40,9999,0.100000,0,0,0.000000,5,0.000000,0.000000,0.009729,0,0,0,0,0,0,0
4,49999,17,40000,52,0,40,9999,0.100000,0,0,0.000000,5,0.000000,0.000000,0.177461,0,0,0,0,0,0,0
4,49999,18,40000,17,10000,40,9999,0.100000,0,0,0.000000,5,0.000000,0.000000,0.211457,0,0,0,0,0,0,0
4,49999,19,40000,52,0,40,9999,0.100000,0,0,0.000000,5,0.000000,0.000000,0.400153,0,0,0,0,0,0,0
4,49999,20,40000,91,20000,40,9999,0.100000,0,0,0.000000,5,0.000000,0.000000,0.232172,0,0,0,0,0,0,0
4,49999,21,40000,17,10000,40,9999,0.100000,0,0,0.000000,5,0.000000,0.000000,0.113808,0,0,0,0,0,0,0
4,49999,22,40000,73,0,40,9999,0.100000,0,0,0.000000,5,0.000000,0.000000,0.610809,0,0,0,0,0,0,0
4,49999,23,40000,91,20000,40,9999,0.100000,0,0,0.000000,5,0.000000,0.000000,0.682640,0,0,0,0,0,0,0
4,49999,24,40000,73,0,40,9999,0.100000,0,0,0.000000,5,0.000000,0.000000,0.188961,0,0,0,0,0,0,0
4,49999,25,40000,17,10000,40,9999,0.100000,0,0,0.000000,5,0.000000,0.000000,0.101867,0,0,0,0,0,0,0
4,49999,26,40000,52,0,40,9999,0.100000,0,0,0.000000,5,0.000000,0.000000,0.122114,0,0,0,0,0,0,0
4,49999,27,40000,73,0,40,9999,0.100000,0,0,0.000000,5,0.000000,0.000000,1.094169,0,0,0,0,0,0,0
4,49999,28,40000,73,0,40,9999,0.100000,0,0,0.000000,5,0.000000,0.000000,1.519574,0,0,0,0,0,0,0
4,49999,29,40000,52,0,40,9999,0.100000,0,0,0.000000,5,0.000000,0.000000,0.310505,0,0,0,0,0,0,0
4,49999,30,40000,91,20000,40,9999,0.100000,0,0,0.000000,5,0.000000,0.000000,0.145624,0,0,0,0,0,0,0
4,49999,31,40000,38,10000,49,9999,0.100000,0,0,0.000000,5,1.000000,0.000000,2.100876,0,0,0,0,0,0,0
4,49999,32,40000,73,0,40,9999,0.100000,0,0,0.000000,5,0.000000,0.000000,0.103924,0,0,0,0,0,0,0
4,49999,33,40000,17,10000,40,9999,0.100000,0,0,0.000000,5,0.000000,0.000000,1.188986,0,0,0,0,0,0,0
4,49999,34,40000,52,0,40,9999,0.100000,0,0,0.000000,5,0.000000,0.000000,1.470426,0,0,0,0,0,0,0
4,49999,35,40000,73,0,49,9999,0.100000,0,0,0.000000,5,2.000000,0.000000,10.764625,0,0,0,0,0,0,0
4,49999,36,40000,38,10000,40,9999,0.100000,0,0,0.000000,5,0.000000,0.000000,0.622400,0,0,0,0,0,0,0
4,49999,37,40000,73,0,49,9999,0.100000,0,0,0.000000,5,1.000000,0.000000,3.105362,0,0,0,0,0,0,0
4,49999,38,40000,52,0,40,9999,0.100000,0,0,0.000000,5,0.000000,0.000000,1.706012,0,0,0,0,0,0,0
4,49999,39,40000,17,10000,49,9999,0.100000,0,0,0.000000,5,3.000000,0.000000,17.475264,0,0,0,0,0,0,0
4,49999,40,40000,17,10000,49,9999,0.065000,0,0,0.000000,5,2.000000,0.000000,17.208075,0,0,0,0,0,0,0
4,49999,41,40000,17,10000,40,9999,0.100000,0,0,0.000000,5,0.000000,0.000000,0.320523,0,0,0,0,0,0,0
4,49999,42,40000,52,0,49,9999,0.100000,0,0,0.000000,5,6.000000,0.000000,6.447521,0,0,0,0,0,0,0
4,49999,43,40000,17,10000,99,9999,0.100000,0,0,34.210526,5,7.000000,0.000000,21.682018,0,0,1,0,0,0,0
4,49999,44,40000,91,20000,40,9999,0.100000,0,0,0.000000,5,0.000000,0.000000,0.279699,0,0,0,0,0,0,0
4,49999,45,40000,91,20000,40,9999,0.100000,0,0,0.000000,5,0.000000,0.000000,0.851787,0,0,0,0,0,0,0
4,49999,46,40000,17,10000,40,9999,0.100000,0,0,0.000000,5,0.000000,0.000000,0.118632,0,0,0,0,0,0,0
4,49999,47,40000,17,10000,40,9999,0.100000,0,0,0.000000,5,0.000000,0.000000,0.143164,0,0,0,0,0,0,0
4,49999,48,40000,52,0,49,9999,0.100000,0,0,0.000000,5,3.000000,0.000000,4.302013,0,0,0,0,0,0,0
4,49999,49,40000,52,0,40,9999,0.100000,0,0,0.000000,5,0.000000,0.000000,0.091548,0,0,0,0,0,0,0
4,49999,50,40000,17,10000,40,9999,0.100000,0,0,0.000000,5,0.000000,0.000000,0.555183,0,0,0,0,0,0,0
4,49999,51,40000,91,20000,40,9999,0.100000,0,0,0.000000,5,0.000000,0.000000,1.218552,0,0,0,0,0,0,0
4,49999,52,40000,73,0,40,9999,0.100000,0,0,0.000000,5,0.000000,0.000000,1.202465,0,0,0,0,0,0,0
4,49999,53,40000,52,0,40,9999,0.100000,0,0,0.000000,5,0.000000,0.000000,4.064642,0,0,0,0,0,0,0
4,49999,54,40000,38,10000,40,9999,0.100000,0,0,0.000000,5,0.000000,0.000000,22.570090,0,0,0,0,0,0,0
4,49999,55,40000,38,10000,49,9999,0.100000,0,0,0.000000,5,6.000000,0.000000,13.166094,0,0,0,0,0,0,0
4,49999,56,40000,17,10000,40,9999,0.100000,0,0,0.000000,5,0.000000,0.000000,0.101949,0,0,0,0,0,0,0
4,49999,57,40000,52,0,49,9999,0.100000,0,0,0.000000,5,6.000000,0.000000,6.454925,0,0,0,0,0,0,0
4,49999,58,40000,91,20000,49,9999,0.100000,0,0,0.000000,5,1.000000,0.000000,2.196213,0,0,0,0,0,0,0
4,49999,59,40000,17,10000,40,9999,0.100000,0,0,0.000000,5,0.000000,0.000000,1.226480,0,0,0,0,0,0,0
4,49999,60,40000,91,20000,40,9999,0.100000,0,0,0.000000,5,0.000000,0.000000,0.077258,0,0,0,0,0,0,0
4,49999,61,40000,17,10000,40,9999,0.100000,0,0,0.000000,5,0.000000,0.000000,0.135439,0,0,0,0,0,0,0
4,49999,62,40000,38,10000,40,9999,0.100000,0,0,0.000000,5,0.000000,0.000000,0.153791,0,0,0,0,0,0,0
4,49999,63,40000,91,20000,0,9999,0.100000,0,0,0.000000,5,0.000000,0.000000,2.939613,0,0,0,0,0,2,0
4,49999,64,40000,73,0,40,9999,0.100000,0,0,0.000000,5,0.000000,0.000000,0.148997,0,0,0,0,0,0,0
4,49999,65,40000,17,10000,49,9999,0.100000,0,0,0.000000,5,8.000000,0.000000,16.484400,0,0,0,0,0,0,0
4,49999,66,40000,17,10000,40,9999,0.100000,0,0,0.000000,5,0.000000,0.000000,1.009867,0,0,0,0,0,0,0
4,49999,67,40000,52,0,40,9999,0.100000,0,0,0.000000,5,0.000000,0.000000,0.198396,0,0,0,0,0,0,0
4,49999,68,40000,91,20000,49,9999,0.100000,0,0,0.000000,5,6.000000,0.000000,6.439180,0,0,0,0,0,0,0
4,49999,69,40000,17,10000,40,9999,0.100000,0,0,0.000000,5,0.000000,0.000000,0.099846,0,0,0,0,0,0,0
4,49999,70,40000,17,10000,49,9999,0.100000,0,0,0.000000,5,3.000000,0.000000,3.723488,0,0,0,0,0,0,0
4,49999,71,40000,91,20000,40,9999,0.100000,0,0,0.000000,5,0.000000,0.000000,0.418463,0,0,0,0,0,0,0
4,49999,72,40000,52,0,40,9999,0.100000,0,0,0.000000,5,0.000000,0.000000,0.516440,0,0,0,0,0,0,0
4,49999,73,40000,73,0,40,9999,0.100000,0,0,0.000000,5,0.000000,0.000000,0.948328,0,0,0,0,0,0,0
4,49999,74,40000,17,10000,40,9999,0.100000,0,0,0.000000,5,0.000000,0.000000,0.200874,0,0,0,0,0,0,0
4,49999,75,40000,73,0,40,9999,0.100000,0,0,0.000000,5,0.000000,0.000000,3.206974,0,0,0,0,0,0,0
4,49999,76,40000,91,20000,40,9999,0.100000,0,0,0.000000,5,0.000000,0.000000,0.156852,0,0,0,0,0,0,0
4,49999,77,40000,73,0,40,9999,0.100000,0,0,0.000000,5,0.000000,0.000000,0.891621,0,0,0,0,0,0,0
4,49999,78,40000,73,0,40,9999,0.100000,0,0,0.000000,5,0.000000,0.000000,5.397317,0,0,0,0,0,0,0
4,49999,79,40000,52,0,49,9999,0.100000,0,0,0.000000,5,3.000000,0.000000,3.345106,0,0,0,0,0,0,0
4,49999,80,40000,91,20000,49,9999,0.100000,0,0,0.000000,5,12.000000,0.000000,24.392436,0,0,0,0,0,0,0
4,49999,81,40000,38,10000,40,9999,0.100000,0,0,0.000000,5,0.000000,0.000000,0.100659,0,0,0,0,0,0,0
4,49999,82,40000,17,10000,49,9999,0.100000,0,0,0.000000,5,3.000000,0.000000,5.111056,0,0,0,0,0,0,0
4,49999,83,40000,38,10000,0,9999,0.100000,0,0,0.000000,5,0.000000,0.000000,0.573209,0,0,0,0,0,2,0
4,49999,84,40000,38,10000,40,9999,0.100000,0,0,0.000000,5,0.000000,0.000000,0.294077,0,0,0,0,0,0,0
4,49999,85,40000,38,10000,40,9999,0.100000,0,0,0.000000,5,0.000000,0.000000,0.118255,0,0,0,0,0,0,0
4,49999,86,40000,73,0,40,9999,0.100000,0,0,0.000000,5,0.000000,0.000000,0.230621,0,0,0,0,0,0,0
4,49999,87,40000,17,10000,40,9999,0.100000,0,0,0.000000,5,0.000000,0.000000,1.189945,0,0,0,0,0,0,0
4,49999,88,40000,52,0,49,9999,0.100000,0,0,0.000000,5,2.000000,0.000000,8.794624,0,0,0,0,0,0,0
4,49999,89,40000,91,20000,40,9999,0.100000,0,0,0.000000,5,0.000000,0.000000,0.644958,0,0,0,0,0,0,0
4,49999,90,40000,91,20000,49,9999,0.100000,0,0,0.000000,5,3.000000,0.000000,4.802884,0,0,0,0,0,0,0
4,49999,91,40000,73,0,40,9999,0.100000,0,0,0.000000,5,0.000000,0.000000,0.076531,0,0,0,0,0,0,0
4,49999,92,40000,38,10000,40,9999,0.100000,0,0,0.000000,5,0.000000,0.000000,0.779673,0,0,0,0,0,0,0
4,49999,93,40000,73,0,40,9999,0.100000,0,0,0.000000,5,0.000000,0.000000,0.144878,0,0,0,0,0,0,0
4,49999,94,40000,91,20000,40,9999,0.100000,0,0,0.000000,5,0.000000,0.000000,0.848208,0,0,0,0,0,0,0
4,49999,95,40000,38,10000,49,9999,0.100000,0,0,0.000000,5,1.000000,0.000000,6.022913,0,0,0,0,0,0,0
4,49999,96,40000,91,20000,49,9999,0.100000,0,0,0.000000,5,1.000000,0.000000,1.442311,0,0,0,0,0,0,0
4,49999,97,40000,38,10000,49,9999,0.100000,0,0,0.000000,5,1.000000,0.000000,4.241284,0,0,0,0,0,0,0
4,49999,98,40000,38,10000,40,9999,0.100000,0,0,0.000000,5,0.000000,0.000000,0.118364,0,0,0,0,0,0,0
4,49999,99,40000,17,10000,40,9999,0.100000,0,0,0.000000,5,0.000000,0.000000,0.130162,0,0,0,0,0,0,0
5,59999,0,50000,17,10000,40,9999,0.100000,0,0,0.000000,5,0.000000,0.000000,0.600604,0,0,0,0,0,0,0
5,59999,1,50000,73,0,40,9999,0.100000,0,0,0.000000,5,0.000000,0.000000,0.464764,0,0,0,0,0,0,0
5,59999,2,50000,52,0,40,9999,0.100000,0,0,0.000000,5,0.000000,0.000000,0.218642,0,0,0,0,0,0,0
5,59999,3,50000,17,10000,40,9999,0.100000,0,0,0.000000,5,0.000000,0.000000,0.126218,0,0,0,0,0,0,0
5,59999,4,50000,17,10000,40,9999,0.100000,0,0,0.000000,5,0.000000,0.000000,1.805523,0,0,0,0,0,0,0
5,59999,5,50000,38,10000,40,9999,0.100000,0,0,0.000000,5,0.000000,0.000000,0.424702,0,0,0,0,0,0,0
5,59999,6,50000,91,20000,0,9999,0.100000,0,0,0.000000,5,0.000000,0.000000,1.922038,0,0,0,0,0,2,0
5,59999,7,50000,91,20000,40,9999,0.100000,0,0,0.000000,5,0.000000,0.000000,0.689514,0,0,0,0,0,0,0
5,59999,8,50000,91,20000,40,9999,0.100000,0,0,0.000000,5,0.000000,0.000000,0.198873,0,0,0,0,0,0,0
5,59999,9,50000,17,10000,40,9999,0.100000,0,0,0.000000,5,0.000000,0.000000,0.576694,0,0,0,0,0,0,0
5,59999,10,50000,38,10000,40,9999,0.100000,0,0,0.000000,5,0.000000,0.000000,0.811426,0,0,0,0,0,0,0
5,59999,11,50000,91,20000,40,9999,0.100000,0,0,0.000000,5,0.000000,0.000000,17.631886,0,0,0,0,0,0,0
5,59999,12,50000,91,20000,40,9999,0.100000,0,0,0.000000,5,0.000000,0.000000,1.220257,0,0,0,0,0,0,0
5,59999,13,50000,91,20000,40,9999,0.065000,0,0,0.000000,5,0.000000,0.000000,0.165562,0,0,0,0,0,0,0
5,59999,14,50000,38,10000,40,9999,0.100000,0,0,0.000000,5,0.000000,0.000000,0.236188,0,0,0,0,0,0,0
5,59999,15,50000,73,0,40,9999,0.100000,0,0,0.000000,5,0.000000,0.000000,0.773259,0,0,0,0,0,0,0
5,59999,16,50000,52,0,40,9999,0.100000,0,0,0.000000,5,0.000000,0.000000,0.009768,0,0,0,0,0,0,0
5,59999,17,50000,38,10000,40,9999,0.100000,0,0,0.000000,5,0.000000,0.000000,0.189721,0,0,0,0,0,0,0
5,59999,18,50000,38,10000,40,9999,0.100000,0,0,0.000000,5,0.000000,0.000000,0.279435,0,0,0,0,0,0,0
5,59999,19,50000,91,20000,40,9999,0.100000,0,0,0.000000,5,0.000000,0.000000,0.322068,0,0,0,0,0,0,0
5,59999,20,50000,91,20000,40,9999,0.100000,0,0,0.000000,5,0.000000,0.000000,0.234770,0,0,0,0,0,0,0
5,59999,21,50000,73,0,40,9999,0.100000,0,0,0.000000,5,0.000000,0.000000,0.099562,0,0,0,0,0,0,0
5,59999,22,50000,38,10000,40,9999,0.100000,0,0,0.000000,5,0.000000,0.000000,0.562706,0,0,0,0,0,0,0
5,59999,23,50000,38,10000,40,9999,0.100000,0,0,0.000000,5,0.000000,0.000000,1.211610,0,0,0,0,0,0,0
5,59999,24,50000,73,0,40,9999,0.100000,0,0,0.000000,5,0.000000,0.000000,0.198060,0,0,0,0,0,0,0
5,59999,25,50000,73,0,40,9999,0.100000,0,0,0.000000,5,0.000000,0.000000,0.099216,0,0,0,0,0,0,0
5,59999,26,50000,52,0,40,9999,0.100000,0,0,0.000000,5,0.000000,0.000000,0.106999,0,0,0,0,0,0,0
5,59999,27,50000,73,0,40,9999,0.100000,0,0,0.000000,5,0.000000,0.000000,0.383423,0,0,0,0,0,0,0
5,59999,28,50000,73,0,40,9999,0.100000,0,0,0.000000,5,0.000000,0.000000,0.854352,0,0,0,0,0,0,0
5,59999,29,50000,73,0,40,9999,0.100000,0,0,0.000000,5,0.000000,0.000000,0.141780,0,0,0,0,0,0,0
5,59999,30,50000,52,0,40,9999,0.100000,0,0,0.000000,5,0.000000,0.000000,0.146599,0,0,0,0,0,0,0
5,59999,31,50000,17,10000,49,9999,0.100000,0,0,0.000000,5,2.000000,0.000000,3.690956,0,0,0,0,0,0,0
5,59999,32,50000,52,0,40,9999,0.100000,0,0,0.000000,5,0.000000,0.000000,0.106117,0,0,0,0,0,0,0
5,59999,33,50000,52,0,40,9999,0.100000,0,0,0.000000,5,0.000000,0.000000,1.017395,0,0,0,0,0,0,0
5,59999,34,50000,91,20000,40,9999,0.100000,0,0,0.000000,5,0.000000,0.000000,2.469500,0,0,0,0,0,0,0
5,59999,35,50000,91,20000,49,9999,0.100000,0,0,0.000000,5,3.000000,0.000000,5.870296,0,0,0,0,0,0,0
5,59999,36,50000,38,10000,0,9999,0.100000,0,0,0.000000,5,0.000000,0.000000,0.226405,0,0,0,0,0,0,1
5,59999,37,50000,52,0,49,9999,0.100000,0,0,0.000000,5,2.000000,0.000000,10.522178,0,0,0,0,0,0,0
5,59999,38,50000,17,10000,40,9999,0.100000,0,0,0.000000,5,0.000000,0.000000,0.933512,0,0,0,0,0,0,0
5,59999,39,50000,52,0,49,9999,0.100000,0,0,0.000000,5,1.000000,0.000000,10.409019,0,0,0,0,0,0,0
5,59999,40,50000,73,0,49,9999,0.100000,0,0,0.000000,5,9.000000,0.000000,13.310944,0,0,0,0,0,0,0
5,59999,41,50000,91,20000,40,9999,0.065000,0,0,0.000000,5,0.000000,0.000000,0.358168,0,0,0,0,0,0,0
5,59999,42,50000,52,0,0,9999,0.100000,0,0,0.000000,5,0.000000,0.000000,2.453160,0,0,0,0,0,2,0
5,59999,43,50000,52,0,49,9999,0.100000,0,0,0.000000,5,2.000000,0.000000,11.261177,0,0,0,0,0,0,0
5,59999,44,50000,91,20000,40,9999,0.100000,0,0,0.000000,5,0.000000,0.000000,0.275923,0,0,0,0,0,0,0
5,59999,45,50000,17,10000,40,9999,0.100000,0,0,0.000000,5,0.000000,0.000000,0.989090,0,0,0,0,0,0,0
5,59999,46,50000,91,20000,40,9999,0.100000,0,0,0.000000,5,0.000000,0.000000,0.114264,0,0,0,0,0,0,0
5,59999,47,50000,38,10000,40,9999,0.100000,0,0,0.000000,5,0.000000,0.000000,0.144452,0,0,0,0,0,0,0
5,59999,48,50000,91,20000,49,9999,0.100000,0,0,0.000000,5,3.000000,0.000000,4.064883,0,0,0,0,0,0,0
5,59999,49,50000,52,0,40,9999,0.100000,0,0,0.000000,5,0.000000,0.000000,0.093928,0,0,0,0,0,0,0
5,59999,50,50000,17,10000,40,9999,0.100000,0,0,0.000000,5,0.000000,0.000000,0.522754,0,0,0,0,0,0,0
5,59999,51,50000,91,20000,40,9999,0.100000,0,0,0.000000,5,0.000000,0.000000,0.842932,0,0,0,0,0,0,0
5,59999,52,50000,73,0,40,9999,0.100000,0,0,0.000000,5,0.000000,0.000000,0.992112,0,0,0,0,0,0,0
5,59999,53,50000,91,20000,40,9999,0.100000,0,0,0.000000,5,0.000000,0.000000,3.557126,0,0,0,0,0,0,0
5,59999,54,50000,38,10000,49,9999,0.100000,0,0,0.000000,5,2.000000,0.000000,10.618661,0,0,0,0,0,0,0
5,59999,55,50000,91,20000,49,9999,0.100000,0,0,0.000000,5,3.000000,0.000000,15.636078,0,0,0,0,0,0,0
5,59999,56,50000,52,0,40,9999,0.100000,0,0,0.000000,5,0.000000,0.000000,0.094180,0,0,0,0,0,0,0
5,59999,57,50000,38,10000,0,9999,0.100000,0,0,0.000000,5,0.000000,0.000000,6.603497,0,0,0,0,0,2,0
5,59999,58,50000,38,10000,49,9999,0.100000,0,0,0.000000,5,2.000000,0.000000,3.632262,0,0,0,0,0,0,0
5,59999,59,50000,38,10000,40,9999,0.100000,0,0,0.000000,5,0.000000,0.000000,1.238826,0,0,0,0,0,0,0
5,59999,60,50000,38,10000,40,9999,0.100000,0,0,0.000000,5,0.000000,0.000000,0.082400,0,0,0,0,0,0,0
5,59999,61,50000,17,10000,40,9999,0.100000,0,0,0.000000,5,0.000000,0.000000,0.125658,0,0,0,0,0,0,0
5,59999,62,50000,73,0,49,9999,0.100000,0,0,0.000000,5,7.000000,0.000000,14.613396,0,0,0,0,0,0,0
5,59999,63,40000,91,20000,40,19999,0.100000,0,0,0.000000,5,0.000000,0.000000,12.806936,0,0,0,0,0,0,0
5,59999,64,50000,73,0,40,9999,0.100000,0,0,0.000000,5,0.000000,0.000000,0.144905,0,0,0,0,0,0,0
5,59999,65,50000,73,0,40,9999,0.100000,0,0,0.000000,5,0.000000,0.000000,0.451202,0,0,0,0,0,0,0
5,59999,66,50000,91,20000,40,9999,0.100000,0,0,0.000000,5,0.000000,0.000000,3.079027,0,0,0,0,0,0,0
5,59999,67,50000,38,10000,40,9999,0.100000,0,0,0.000000,5,0.000000,0.000000,0.138663,0,0,0,0,0,0,0
5,59999,68,50000,17,10000,9,9999,0.100000,0,0,0.000000,5,6.000000,0.000000,17.047204,0,0,0,0,0,2,0
5,59999,69,50000,17,10000,40,9999,0.100000,0,0,0.000000,5,0.000000,0.000000,1.388510,0,0,0,0,0,0,0
5,59999,70,50000,73,0,40,9999,0.100000,0,0,0.000000,5,0.000000,0.000000,1.471675,0,0,0,0,0,0,0
5,59999,71,50000,91,20000,40,9999,0.100000,0,0,0.000000,5,0.000000,0.000000,0.156596,0,0,0,0,0,0,0
5,59999,72,50000,38,10000,49,9999,0.100000,0,0,0.000000,5,2.000000,0.000000,4.715175,0,0,0,0,0,0,0
5,59999,73,50000,52,0,40,9999,0.100000,0,0,0.000000,5,0.000000,0.000000,0.896617,0,0,0,0,0,0,0
5,59999,74,50000,17,10000,40,9999,0.100000,0,0,0.000000,5,0.000000,0.000000,0.202115,0,0,0,0,0,0,0
5,59999,75,50000,17,10000,49,9999,0.100000,0,0,0.000000,5,1.000000,0.000000,6.189739,0,0,0,0,0,0,0
5,59999,76,50000,38,10000,40,9999,0.100000,0,0,0.000000,5,0.000000,0.000000,0.162299,0,0,0,0,0,0,0
5,59999,77,50000,17,10000,40,9999,0.100000,0,0,0.000000,5,0.000000,0.000000,3.064304,0,0,0,0,0,0,0
5,59999,78,50000,17,10000,40,9999,0.100000,0,0,0.000000,5,0.000000,0.000000,0.104254,0,0,0,0,0,0,0
5,59999,79,50000,38,10000,49,9999,0.100000,0,0,0.000000,5,1.000000,0.000000,1.592162,0,0,0,0,0,0,0
5,59999,80,50000,73,0,0,9999,0.100000,0,0,0.000000,5,0.000000,0.000000,0.238062,0,0,0,0,0,0,1
5,59999,81,50000,73,0,49,9999,0.100000,0,0,0.000000,5,5.000000,0.000000,10.629136,0,0,0,0,0,0,0
5,59999,82,50000,38,10000,40,9999,0.100000,0,0,0.000000,5,0.000000,0.000000,2.315498,0,0,0,0,0,0,0
5,59999,83,50000,38,10000,40,9999,0.100000,0,0,0.000000,5,0.000000,0.000000,0.720304,0,0,0,0,0,0,0
5,59999,84,50000,52,0,40,9999,0.100000,0,0,0.000000,5,0.000000,0.000000,0.275023,0,0,0,0,0,0,0
5,59999,85,50000,17,10000,40,9999,0.100000,0,0,0.000000,5,0.000000,0.000000,0.118206,0,0,0,0,0,0,0
5,59999,86,40000,73,0,40,19999,0.100000,0,0,0.000000,5,0.000000,0.000000,0.205899,0,0,0,0,0,0,0
5,59999,87,50000,91,20000,40,9999,0.100000,0,0,0.000000,5,0.000000,0.000000,1.464167,0,0,0,0,0,0,0
5,59999,88,50000,52,0,49,9999,0.100000,0,0,0.000000,5,4.000000,0.000000,24.269179,0,0,0,0,0,0,0
5,59999,89,50000,91,20000,40,9999,0.100000,0,0,0.000000,5,0.000000,0.000000,0.911161,0,0,0,0,0,0,0
5,59999,90,50000,38,10000,40,9999,0.100000,0,0,0.000000,5,0.000000,0.000000,1.649211,0,0,0,0,0,0,0
5,59999,91,50000,17,10000,40,9999,0.100000,0,0,0.000000,5,0.000000,0.000000,0.081883,0,0,0,0,0,0,0
5,59999,92,50000,91,20000,40,9999,0.100000,0,0,0.000000,5,0.000000,0.000000,0.673965,0,0,0,0,0,0,0
5,59999,93,50000,91,20000,40,9999,0.100000,0,0,0.000000,5,0.000000,0.000000,0.136885,0,0,0,0,0,0,0
5,59999,94,50000,73,0,40,9999,0.100000,0,0,0.000000,5,0.000000,0.000000,0.720255,0,0,0,0,0,0,0
5,59999,95,50000,91,20000,40,9999,0.100000,0,0,0.000000,5,0.000000,0.000000,0.446297,0,0,0,0,0,0,0
5,59999,96,50000,91,20000,40,9999,0.100000,0,0,0.000000,5,0.000000,0.000000,0.630685,0,0,0,0,0,0,0
5,59999,97,50000,52,0,49,9999,0.100000,0,0,0.000000,5,17.000000,0.000000,23.162721,0,0,0,0,0,0,0
5,59999,98,50000,73,0,40,9999,0.100000,0,0,0.000000,5,0.000000,0.000000,0.168562,0,0,0,0,0,0,0
5,59999,99,50000,52,0,40,9999,0.100000,0,0,0.000000,5,0.000000,0.000000,0.118026,0,0,0,0,0,0,0
6,69999,0,60000,17,10000,40,9999,0.100000,0,0,0.000000,5,0.000000,0.000000,0.554958,0,0,0,0,0,0,0
6,69999,1,60000,17,10000,49,9999,0.100000,0,0,0.000000,5,1.000000,0.000000,2.582990,0,0,0,0,0,0,0
6,69999,2,60000,52,0,40,9999,0.100000,0,0,0.000000,5,0.000000,0.000000,0.564851,0,0,0,0,0,0,0
6,69999,3,60000,52,0,40,9999,0.100000,0,0,0.000000,5,0.000000,0.000000,0.131383,0,0,0,0,0,0,0
6,69999,4,60000,52,0,40,9999,0.100000,0,0,0.000000,5,0.000000,0.000000,1.534529,0,0,0,0,0,0,0
6,69999,5,60000,73,0,40,9999,0.100000,0,0,0.000000,5,0.000000,0.000000,1.439026,0,0,0,0,0,0,0
6,69999,6,60000,17,10000,9,9999,0.065000,0,0,0.000000,5,3.000000,0.000000,6.177529,0,0,0,0,0,1,0
6,69999,7,60000,91,20000,40,9999,0.100000,0,0,0.000000,5,0.000000,0.000000,0.578636,0,0,0,0,0,0,0
6,69999,8,60000,73,0,40,9999,0.100000,0,0,0.000000,5,0.000000,0.000000,0.158589,0,0,0,0,0,0,0
6,69999,9,60000,52,0,40,9999,0.100000,0,0,0.000000,5,0.000000,0.000000,0.592345,0,0,0,0,0,0,0
6,69999,10,60000,91,20000,40,9999,0.100000,0,0,0.000000,5,0.000000,0.000000,0.651436,0,0,0,0,0,0,0
6,69999,11,60000,52,0,49,9999,0.100000,0,0,0.000000,5,1.000000,0.000000,3.276502,0,0,0,0,0,0,0
6,69999,12,60000,52,0,40,9999,0.100000,0,0,0.000000,5,0.000000,0.000000,1.097961,0,0,0,0,0,0,0
6,69999,13,60000,73,0,40,9999,0.100000,0,0,0.000000,5,0.000000,0.000000,0.125305,0,0,0,0,0,0,0
6,69999,14,60000,38,10000,40,9999,0.100000,0,0,0.000000,5,0.000000,0.000000,0.235240,0,0,0,0,0,0,0
6,69999,15,60000,73,0,40,9999,0.100000,0,0,0.000000,5,0.000000,0.000000,1.100512,0,0,0,0,0,0,0
6,69999,16,60000,73,0,40,9999,0.100000,0,0,0.000000,5,0.000000,0.000000,0.009730,0,0,0,0,0,0,0
6,69999,17,60000,38,10000,40,9999,0.100000,0,0,0.000000,5,0.000000,0.000000,0.185196,0,0,0,0,0,0,0
6,69999,18,60000,17,10000,40,9999,0.100000,0,0,0.000000,5,0.000000,0.000000,1.736621,0,0,0,0,0,0,0
6,69999,19,60000,91,20000,40,9999,0.100000,0,0,0.000000,5,0.000000,0.000000,0.264712,0,0,0,0,0,0,0
6,69999,20,60000,52,0,40,9999,0.100000,0,0,0.000000,5,0.000000,0.000000,0.233531,0,0,0,0,0,0,0
6,69999,21,60000,73,0,40,9999,0.100000,0,0,0.000000,5,0.000000,0.000000,0.115676,0,0,0,0,0,0,0
6,69999,22,60000,73,0,40,9999,0.100000,0,0,0.000000,5,0.000000,0.000000,0.533959,0,0,0,0,0,0,0
6,69999,23,60000,73,0,40,9999,0.100000,0,0,0.000000,5,0.000000,0.000000,0.470908,0,0,0,0,0,0,0
6,69999,24,60000,52,0,40,9999,0.100000,0,0,0.000000,5,0.000000,0.000000,0.189577,0,0,0,0,0,0,0
6,69999,25,60000,91,20000,40,9999,0.100000,0,0,0.000000,5,0.000000,0.000000,0.108691,0,0,0,0,0,0,0
6,69999,26,60000,17,10000,40,9999,0.100000,0,0,0.000000,5,0.000000,0.000000,0.258022,0,0,0,0,0,0,0
6,69999,27,60000,17,10000,40,9999,0.100000,0,0,0.000000,5,0.000000,0.000000,0.604664,0,0,0,0,0,0,0
6,69999,28,60000,91,20000,40,9999,0.100000,0,0,0.000000,5,0.000000,0.000000,0.780317,0,0,0,0,0,0,0
6,69999,29,60000,52,0,40,9999,0.100000,0,0,0.000000,5,0.000000,0.000000,0.120207,0,0,0,0,0,0,0
6,69999,30,60000,38,10000,40,9999,0.100000,0,0,0.000000,5,0.000000,0.000000,0.142640,0,0,0,0,0,0,0
6,69999,31,60000,17,10000,49,9999,0.100000,0,0,0.000000,5,5.000000,0.000000,5.700467,0,0,0,0,0,0,0
6,69999,32,60000,52,0,40,9999,0.100000,0,0,0.000000,5,0.000000,0.000000,0.103207,0,0,0,0,0,0,0
6,69999,33,60000,73,0,49,9999,0.100000,0,0,0.000000,5,3.000000,0.000000,6.307228,0,0,0,0,0,0,0
6,69999,34,60000,38,10000,49,9999,0.100000,0,0,0.000000,5,2.000000,0.000000,16.196668,0,0,0,0,0,0,0
6,69999,35,60000,17,10000,40,9999,0.100000,0,0,0.000000,5,0.000000,0.000000,0.351004,0,0,0,0,0,0,0
6,69999,36,60000,52,0,40,9999,0.100000,0,0,0.000000,5,0.000000,0.000000,0.214786,0,0,0,0,0,0,0
6,69999,37,60000,73,0,49,9999,0.100000,0,0,0.000000,5,3.000000,0.000000,21.884547,0,0,0,0,0,0,0
6,69999,38,60000,73,0,49,9999,0.100000,0,0,0.000000,5,6.000000,0.000000,14.671100,0,0,0,0,0,0,0
6,69999,39,60000,17,10000,49,9999,0.100000,0,0,0.000000,5,1.000000,0.000000,10.023166,0,0,0,0,0,0,0
6,69999,40,60000,38,10000,40,9999,0.100000,0,0,0.000000,5,0.000000,0.000000,0.784405,0,0,0,0,0,0,0
6,69999,41,60000,17,10000,40,9999,0.100000,0,0,0.000000,5,0.000000,0.000000,0.248493,0,0,0,0,0,0,0
6,69999,42,60000,73,0,9,9999,0.100000,0,0,0.000000,5,3.000000,0.000000,5.088140,0,0,0,0,0,1,0
6,69999,43,60000,38,10000,49,9999,0.100000,0,0,0.000000,5,2.000000,0.000000,7.200812,0,0,0,0,0,0,0
6,69999,44,60000,52,0,40,9999,0.100000,0,0,0.000000,5,0.000000,0.000000,0.270376,0,0,0,0,0,0,0
6,69999,45,60000,38,10000,49,9999,0.100000,0,0,0.000000,5,1.000000,0.000000,2.840887,0,0,0,0,0,0,0
6,69999,46,60000,17,10000,40,9999,0.100000,0,0,0.000000,5,0.000000,0.000000,0.107275,0,0,0,0,0,0,0
6,69999,47,60000,91,20000,40,9999,0.100000,0,0,0.000000,5,0.000000,0.000000,0.142710,0,0,0,0,0,0,0
6,69999,48,60000,38,10000,49,9999,0.100000,0,0,0.000000,5,3.000000,0.000000,4.172830,0,0,0,0,0,0,0
6,69999,49,60000,38,10000,40,9999,0.100000,0,0,0.000000,5,0.000000,0.000000,0.287415,0,0,0,0,0,0,0
6,69999,50,60000,38,10000,40,9999,0.100000,0,0,0.000000,5,0.000000,0.000000,0.498993,0,0,0,0,0,0,0
6,69999,51,60000,17,10000,40,9999,0.100000,0,0,0.000000,5,0.000000,0.000000,0.724514,0,0,0,0,0,0,0
6,69999,52,60000,38,10000,40,9999,0.100000,0,0,0.000000,5,0.000000,0.000000,1.113973,0,0,0,0,0,0,0
6,69999,53,60000,52,0,40,9999,0.100000,0,0,0.000000,5,0.000000,0.000000,3.388456,0,0,0,0,0,0,0
6,69999,54,60000,38,10000,49,9999,0.100000,0,0,0.000000,5,1.000000,0.000000,1.592962,0,0,0,0,0,0,0
6,69999,55,60000,17,10000,49,9999,0.100000,0,0,0.000000,5,1.000000,0.000000,2.107323,0,0,0,0,0,0,0
6,69999,56,60000,38,10000,40,9999,0.100000,0,0,0.000000,5,0.000000,0.000000,0.094596,0,0,0,0,0,0,0
6,69999,57,60000,73,0,9,9999,0.100000,0,0,0.000000,5,3.000000,0.000000,18.230598,0,0,0,0,0,1,0
6,69999,58,60000,17,10000,49,9999,0.100000,0,0,0.000000,5,5.000000,0.000000,5.728923,0,0,0,0,0,0,0
6,69999,59,60000,38,10000,40,9999,0.100000,0,0,0.000000,5,0.000000,0.000000,1.205277,0,0,0,0,0,0,0
6,69999,60,60000,52,0,40,9999,0.100000,0,0,0.000000,5,0.000000,0.000000,0.080017,0,0,0,0,0,0,0
6,69999,61,60000,17,10000,40,9999,0.100000,0,0,0.000000,5,0.000000,0.000000,0.124695,0,0,0,0,0,0,0
6,69999,62,60000,38,10000,40,9999,0.100000,0,0,0.000000,5,0.000000,0.000000,0.138849,0,0,0,0,0,0,0
6,69999,63,60000,38,10000,49,9999,0.100000,0,0,0.000000,5,1.000000,0.000000,8.994078,0,0,0,0,0,0,0
6,69999,64,60000,38,10000,40,9999,0.100000,0,0,0.000000,5,0.000000,0.000000,0.143372,0,0,0,0,0,0,0
6,69999,65,60000,52,0,40,9999,0.100000,0,0,0.000000,5,0.000000,0.000000,0.377734,0,0,0,0,0,0,0
6,69999,66,60000,73,0,49,9999,0.100000,0,0,0.000000,5,1.000000,0.000000,1.817143,0,0,0,0,0,0,0
6,69999,67,60000,73,0,40,9999,0.100000,0,0,0.000000,5,0.000000,0.000000,0.140968,0,0,0,0,0,0,0
6,69999,68,60000,17,10000,9,9999,0.100000,0,0,0.000000,5,3.000000,0.000000,4.931586,0,0,0,0,0,1,0
6,69999,69,60000,73,0,40,9999,0.100000,0,0,0.000000,5,0.000000,0.000000,0.092985,0,0,0,0,0,0,0
6,69999,70,60000,73,0,40,9999,0.100000,0,0,0.000000,5,0.000000,0.000000,0.738344,0,0,0,0,0,0,0
6,69999,71,60000,38,10000,40,9999,0.100000,0,0,0.000000,5,0.000000,0.000000,0.157366,0,0,0,0,0,0,0
6,69999,72,60000,38,10000,40,9999,0.100000,0,0,0.000000,5,0.000000,0.000000,0.078056,0,0,0,0,0,0,0
6,69999,73,60000,17,10000,49,9999,0.100000,0,0,0.000000,5,1.000000,0.000000,1.843540,0,0,0,0,0,0,0
6,69999,74,60000,38,10000,40,9999,0.100000,0,0,0.000000,5,0.000000,0.000000,0.204870,0,0,0,0,0,0,0
6,69999,75,60000,38,10000,49,9999,0.100000,0,0,0.000000,5,1.000000,0.000000,3.202881,0,0,0,0,0,0,0
6,69999,76,60000,38,10000,40,9999,0.100000,0,0,0.000000,5,0.000000,0.000000,0.156419,0,0,0,0,0,0,0
6,69999,77,60000,91,20000,40,9999,0.100000,0,0,0.000000,5,0.000000,0.000000,4.314071,0,0,0,0,0,0,0
6,69999,78,60000,73,0,40,9999,0.100000,0,0,0.000000,5,0.000000,0.000000,0.105088,0,0,0,0,0,0,0
6,69999,79,60000,38,10000,40,9999,0.100000,0,0,0.000000,5,0.000000,0.000000,0.740305,0,0,0,0,0,0,0
6,69999,80,60000,38,10000,40,9999,0.100000,0,0,0.000000,5,0.000000,0.000000,0.230579,0,0,0,0,0,0,0
6,69999,81,60000,52,0,40,9999,0.100000,0,0,0.000000,5,0.000000,0.000000,0.101193,0,0,0,0,0,0,0
6,69999,82,60000,91,20000,49,9999,0.100000,0,0,0.000000,5,1.000000,0.000000,4.023397,0,0,0,0,0,0,0
6,69999,83,60000,91,20000,49,9999,0.100000,0,0,0.000000,5,1.000000,0.000000,2.392918,0,0,0,0,0,0,0
6,69999,84,60000,17,10000,40,9999,0.100000,0,0,0.000000,5,0.000000,0.000000,0.299167,0,0,0,0,0,0,0
6,69999,85,60000,17,10000,40,9999,0.100000,0,0,0.000000,5,0.000000,0.000000,0.117435,0,0,0,0,0,0,0
6,69999,86,60000,17,10000,40,9999,0.100000,0,0,0.000000,5,0.000000,0.000000,0.171454,0,0,0,0,0,0,0
6,69999,87,50000,91,20000,40,19999,0.100000,0,0,0.000000,5,0.000000,0.000000,2.657853,0,0,0,0,0,0,0
6,69999,88,60000,52,0,40,9999,0.100000,0,0,0.000000,5,0.000000,0.000000,20.177390,0,0,0,0,0,0,0
6,69999,89,60000,52,0,49,9999,0.100000,0,0,0.000000,5,2.000000,0.000000,6.555811,0,0,0,0,0,0,0
6,69999,90,60000,52,0,40,9999,0.100000,0,0,0.000000,5,0.000000,0.000000,1.159611,0,0,0,0,0,0,0
6,69999,91,60000,38,10000,40,9999,0.100000,0,0,0.000000,5,0.000000,0.000000,0.085526,0,0,0,0,0,0,0
6,69999,92,60000,91,20000,49,9999,0.100000,0,0,0.000000,5,2.000000,0.000000,2.829446,0,0,0,0,0,0,0
6,69999,93,60000,52,0,40,9999,0.100000,0,0,0.000000,5,0.000000,0.000000,0.121734,0,0,0,0,0,0,0
6,69999,94,60000,17,10000,40,9999,0.100000,0,0,0.000000,5,0.000000,0.000000,0.700616,0,0,0,0,0,0,0
6,69999,95,60000,52,0,40,9999,0.100000,0,0,0.000000,5,0.000000,0.000000,0.128547,0,0,0,0,0,0,0
6,69999,96,60000,52,0,49,9999,0.100000,0,0,0.000000,5,1.000000,0.000000,2.328866,0,0,0,0,0,0,0
6,69999,97,60000,91,20000,49,9999,0.100000,0,0,0.000000,5,1.000000,0.000000,3.067880,0,0,0,0,0,0,0
6,69999,98,60000,52,0,49,9999,0.100000,0,0,0.000000,5,2.000000,0.000000,2.198135,0,0,0,0,0,0,0
6,69999,99,60000,91,20000,40,9999,0.100000,0,0,0.000000,5,0.000000,0.000000,0.106260,0,0,0,0,0,0,0
7,79999,0,70000,38,10000,40,9999,0.100000,0,0,0.000000,5,0.000000,0.000000,0.809651,0,0,0,0,0,0,0
7,79999,1,70000,91,20000,9,9999,0.100000,0,0,0.000000,5,1.000000,0.000000,1.568023,0,0,0,0,0,2,0
7,79999,2,70000,91,20000,40,9999,0.100000,0,0,0.000000,5,0.000000,0.000000,0.517447,0,0,0,0,0,0,0
7,79999,3,70000,52,0,40,9999,0.100000,0,0,0.000000,5,0.000000,0.000000,0.118184,0,0,0,0,0,0,0
7,79999,4,70000,52,0,40,9999,0.100000,0,0,0.000000,5,0.000000,0.000000,1.752622,0,0,0,0,0,0,0
7,79999,5,70000,91,20000,40,9999,0.100000,0,0,0.000000,5,0.000000,0.000000,0.355319,0,0,0,0,0,0,0
7,79999,6,70000,91,20000,40,9999,0.100000,0,0,0.000000,5,0.000000,0.000000,2.506106,0,0,0,0,0,0,0
7,79999,7,70000,38,10000,40,9999,0.100000,0,0,0.000000,5,0.000000,0.000000,0.555236,0,0,0,0,0,0,0
7,79999,8,70000,91,20000,40,9999,0.100000,0,0,0.000000,5,0.000000,0.000000,0.129258,0,0,0,0,0,0,0
7,79999,9,70000,38,10000,40,9999,0.100000,0,0,0.000000,5,0.000000,0.000000,1.079754,0,0,0,0,0,0,0
7,79999,10,70000,91,20000,40,9999,0.100000,0,0,0.000000,5,0.000000,0.000000,0.642395,0,0,0,0,0,0,0
7,79999,11,70000,73,0,40,9999,0.100000,0,0,0.000000,5,0.000000,0.000000,0.867688,0,0,0,0,0,0,0
7,79999,12,70000,91,20000,40,9999,0.100000,0,0,0.000000,5,0.000000,0.000000,1.969055,0,0,0,0,0,0,0
7,79999,13,70000,73,0,40,9999,0.100000,0,0,0.000000,5,0.000000,0.000000,0.097660,0,0,0,0,0,0,0
7,79999,14,70000,91,20000,40,9999,0.100000,0,0,0.000000,5,0.000000,0.000000,0.229813,0,0,0,0,0,0,0
7,79999,15,70000,17,10000,40,9999,0.100000,0,0,0.000000,5,0.000000,0.000000,0.304017,0,0,0,0,0,0,0
7,79999,16,70000,38,10000,40,9999,0.100000,0,0,0.000000,5,0.000000,0.000000,0.009881,0,0,0,0,0,0,0
7,79999,17,70000,17,10000,40,9999,0.100000,0,0,0.000000,5,0.000000,0.000000,0.080310,0,0,0,0,0,0,0
7,79999,18,70000,73,0,40,9999,0.100000,0,0,0.000000,5,0.000000,0.000000,0.082923,0,0,0,0,0,0,0
7,79999,19,70000,73,0,40,9999,0.100000,0,0,0.000000,5,0.000000,0.000000,0.275667,0,0,0,0,0,0,0
7,79999,20,70000,38,10000,40,9999,0.100000,0,0,0.000000,5,0.000000,0.000000,0.236340,0,0,0,0,0,0,0
7,79999,21,70000,38,10000,40,9999,0.100000,0,0,0.000000,5,0.000000,0.000000,0.098424,0,0,0,0,0,0,0
7,79999,22,70000,17,10000,40,9999,0.100000,0,0,0.000000,5,0.000000,0.000000,0.937185,0,0,0,0,0,0,0
7,79999,23,70000,17,10000,40,9999,0.100000,0,0,0.000000,5,0.000000,0.000000,0.173659,0,0,0,0,0,0,0
7,79999,24,70000,38,10000,40,9999,0.100000,0,0,0.000000,5,0.000000,0.000000,0.189979,0,0,0,0,0,0,0
7,79999,25,70000,52,0,40,9999,0.100000,0,0,0.000000,5,0.000000,0.000000,0.105245,0,0,0,0,0,0,0
7,79999,26,70000,73,0,40,9999,0.100000,0,0,0.000000,5,0.000000,0.000000,0.205812,0,0,0,0,0,0,0
7,79999,27,70000,52,0,40,9999,0.100000,0,0,0.000000,5,0.000000,0.000000,0.412929,0,0,0,0,0,0,0
7,79999,28,70000,17,10000,40,9999,0.100000,0,0,0.000000,5,0.000000,0.000000,1.167851,0,0,0,0,0,0,0
7,79999,29,70000,38,10000,40,9999,0.100000,0,0,0.000000,5,0.000000,0.000000,0.127554,0,0,0,0,0,0,0
7,79999,30,70000,17,10000,40,9999,0.100000,0,0,0.000000,5,0.000000,0.000000,0.834585,0,0,0,0,0,0,0
7,79999,31,70000,17,10000,49,9999,0.100000,0,0,0.000000,5,2.000000,0.000000,6.396250,0,0,0,0,0,0,0
7,79999,32,70000,17,10000,40,9999,0.100000,0,0,0.000000,5,0.000000,0.000000,0.098603,0,0,0,0,0,0,0
7,79999,33,70000,91,20000,49,9999,0.100000,0,0,0.000000,5,6.000000,0.000000,11.490312,0,0,0,0,0,0,0
7,79999,34,70000,91,20000,49,9999,0.100000,0,0,0.000000,5,4.000000,0.000000,4.799662,0,0,0,0,0,0,0
7,79999,35,70000,73,0,40,9999,0.100000,0,0,0.000000,5,0.000000,0.000000,0.291948,0,0,0,0,0,0,0
7,79999,36,70000,17,10000,9,9999,0.100000,0,0,0.000000,5,3.000000,0.000000,5.687799,0,0,0,1,0,0,0
7,79999,37,70000,91,20000,49,9999,0.100000,0,0,0.000000,5,2.000000,0.000000,7.931920,0,0,0,0,0,0,0
7,79999,38,70000,73,0,40,9999,0.100000,0,0,0.000000,5,0.000000,0.000000,15.769946,0,0,0,0,0,0,0
7,79999,39,70000,38,10000,49,9999,0.100000,0,0,0.000000,5,3.000000,0.000000,11.320831,0,0,0,0,0,0,0
7,79999,40,70000,91,20000,40,9999,0.100000,0,0,0.000000,5,0.000000,0.000000,0.444578,0,0,0,0,0,0,0
7,79999,41,70000,73,0,40,9999,0.100000,0,0,0.000000,5,0.000000,0.000000,0.224621,0,0,0,0,0,0,0
7,79999,42,70000,73,0,40,9999,0.100000,0,0,0.000000,5,0.000000,0.000000,1.502565,0,0,0,0,0,0,0
7,79999,43,70000,73,0,40,9999,0.100000,0,0,0.000000,5,0.000000,0.000000,0.861105,0,0,0,0,0,0,0
7,79999,44,70000,91,20000,40,9999,0.100000,0,0,0.000000,5,0.000000,0.000000,0.216408,0,0,0,0,0,0,0
7,79999,45,70000,91,20000,40,9999,0.100000,0,0,0.000000,5,0.000000,0.000000,1.453517,0,0,0,0,0,0,0
7,79999,46,70000,38,10000,40,9999,0.100000,0,0,0.000000,5,0.000000,0.000000,0.104424,0,0,0,0,0,0,0
7,79999,47,70000,17,10000,40,9999,0.100000,0,0,0.000000,5,0.000000,0.000000,0.129184,0,0,0,0,0,0,0
7,79999,48,70000,38,10000,40,9999,0.100000,0,0,0.000000,5,0.000000,0.000000,4.021276,0,0,0,0,0,0,0
7,79999,49,70000,52,0,40,9999,0.100000,0,0,0.000000,5,0.000000,0.000000,0.173372,0,0,0,0,0,0,0
7,79999,50,70000,38,10000,40,9999,0.100000,0,0,0.000000,5,0.000000,0.000000,1.895375,0,0,0,0,0,0,0
7,79999,51,70000,52,0,40,9999,0.100000,0,0,0.000000,5,0.000000,0.000000,0.578202,0,0,0,0,0,0,0
7,79999,52,70000,17,10000,40,9999,0.100000,0,0,0.000000,5,0.000000,0.000000,2.108641,0,0,0,0,0,0,0
7,79999,53,70000,52,0,40,9999,0.100000,0,0,0.000000,5,0.000000,0.000000,14.061004,0,0,0,0,0,0,0
7,79999,54,70000,52,0,49,9999,0.100000,0,0,0.000000,5,3.000000,0.000000,6.403435,0,0,0,0,0,0,0
7,79999,55,70000,91,20000,49,9999,0.100000,0,0,0.000000,5,2.000000,0.000000,17.276463,0,0,0,0,0,0,0
7,79999,56,70000,91,20000,40,9999,0.100000,0,0,0.000000,5,0.000000,0.000000,0.095123,0,0,0,0,0,0,0
7,79999,57,70000,17,10000,40,9999,0.100000,0,0,0.000000,5,0.000000,0.000000,22.018757,0,0,0,0,0,0,0
7,79999,58,70000,91,20000,49,9999,0.100000,0,0,0.000000,5,2.000000,0.000000,6.232920,0,0,0,0,0,0,0
7,79999,59,70000,73,0,40,9999,0.100000,0,0,0.000000,5,0.000000,0.000000,0.237383,0,0,0,0,0,0,0
7,79999,60,70000,17,10000,40,9999,0.100000,0,0,0.000000,5,0.000000,0.000000,0.082573,0,0,0,0,0,0,0
7,79999,61,70000,52,0,40,9999,0.100000,0,0,0.000000,5,0.000000,0.000000,0.123102,0,0,0,0,0,0,0
7,79999,62,70000,52,0,49,9999,0.100000,0,0,0.000000,5,7.000000,0.000000,14.526715,0,0,0,0,0,0,0
7,79999,63,70000,73,0,9,9999,0.100000,0,0,0.000000,5,1.000000,0.000000,1.468873,0,0,0,0,0,1,0
7,79999,64,70000,17,10000,40,9999,0.100000,0,0,0.000000,5,0.000000,0.000000,0.137330,0,0,0,0,0,0,0
7,79999,65,70000,52,0,40,9999,0.100000,0,0,0.000000,5,0.000000,0.000000,0.322662,0,0,0,0,0,0,0
7,79999,66,70000,17,10000,49,9999,0.100000,0,0,0.000000,5,2.000000,0.000000,6.561139,0,0,0,0,0,0,0
7,79999,67,70000,38,10000,40,9999,0.100000,0,0,0.000000,5,0.000000,0.000000,0.138435,0,0,0,0,0,0,0
7,79999,68,70000,91,20000,40,9999,0.100000,0,0,0.000000,5,0.000000,0.000000,1.116480,0,0,0,0,0,0,0
7,79999,69,70000,52,0,40,9999,0.100000,0,0,0.000000,5,0.000000,0.000000,0.090242,0,0,0,0,0,0,0
7,79999,70,70000,91,20000,40,9999,0.100000,0,0,0.000000,5,0.000000,0.000000,0.360381,0,0,0,0,0,0,0
7,79999,71,70000,73,0,40,9999,0.100000,0,0,0.000000,5,0.000000,0.000000,0.167509,0,0,0,0,0,0,0
7,79999,72,70000,73,0,40,9999,0.100000,0,0,0.000000,5,0.000000,0.000000,0.095017,0,0,0,0,0,0,0
7,79999,73,70000,17,10000,40,9999,0.100000,0,0,0.000000,5,0.000000,0.000000,0.090488,0,0,0,0,0,0,0
7,79999,74,70000,17,10000,40,9999,0.100000,0,0,0.000000,5,0.000000,0.000000,0.631353,0,0,0,0,0,0,0
7,79999,75,70000,17,10000,49,9999,0.100000,0,0,0.000000,5,2.000000,0.000000,7.070651,0,0,0,0,0,0,0
7,79999,76,70000,38,10000,40,9999,0.100000,0,0,0.000000,5,0.000000,0.000000,0.154908,0,0,0,0,0,0,0
7,79999,77,70000,38,10000,40,9999,0.100000,0,0,0.000000,5,0.000000,0.000000,0.958768,0,0,0,0,0,0,0
7,79999,78,70000,73,0,40,9999,0.100000,0,0,0.000000,5,0.000000,0.000000,0.112133,0,0,0,0,0,0,0
7,79999,79,70000,17,10000,40,9999,0.100000,0,0,0.000000,5,0.000000,0.000000,0.345312,0,0,0,0,0,0,0
7,79999,80,70000,52,0,40,9999,0.100000,0,0,0.000000,5,0.000000,0.000000,0.210576,0,0,0,0,0,0,0
7,79999,81,70000,73,0,49,9999,0.100000,0,0,0.000000,5,5.000000,0.000000,10.633815,0,0,0,0,0,0,0
7,79999,82,70000,73,0,40,9999,0.100000,0,0,0.000000,5,0.000000,0.000000,0.462521,0,0,0,0,0,0,0
7,79999,83,70000,73,0,9,9999,0.100000,0,0,0.000000,5,1.000000,0.000000,1.187407,0,0,0,0,0,1,0
7,79999,84,70000,91,20000,40,9999,0.100000,0,0,0.000000,5,0.000000,0.000000,0.290601,0,0,0,0,0,0,0
7,79999,85,70000,17,10000,40,9999,0.100000,0,0,0.000000,5,0.000000,0.000000,0.117042,0,0,0,0,0,0,0
7,79999,86,70000,38,10000,40,9999,0.100000,0,0,0.000000,5,0.000000,0.000000,0.131726,0,0,0,0,0,0,0
7,79999,87,70000,38,10000,49,9999,0.100000,0,0,0.000000,5,1.000000,0.000000,20.208313,0,0,0,0,0,0,0
7,79999,88,70000,73,0,49,9999,0.100000,0,0,0.000000,5,2.000000,0.000000,16.434050,0,0,0,0,0,0,0
7,79999,89,70000,38,10000,40,9999,0.100000,0,0,0.000000,5,0.000000,0.000000,0.759055,0,0,0,0,0,0,0
7,79999,90,70000,38,10000,40,9999,0.100000,0,0,0.000000,5,0.000000,0.000000,1.520430,0,0,0,0,0,0,0
7,79999,91,70000,38,10000,40,9999,0.100000,0,0,0.000000,5,0.000000,0.000000,0.087145,0,0,0,0,0,0,0
7,79999,92,70000,91,20000,40,9999,0.100000,0,0,0.000000,5,0.000000,0.000000,0.735447,0,0,0,0,0,0,0
7,79999,93,70000,38,10000,40,9999,0.100000,0,0,0.000000,5,0.000000,0.000000,0.123215,0,0,0,0,0,0,0
7,79999,94,70000,38,10000,40,9999,0.100000,0,0,0.000000,5,0.000000,0.000000,0.556198,0,0,0,0,0,0,0
7,79999,95,70000,38,10000,40,9999,0.100000,0,0,0.000000,5,0.000000,0.000000,0.070311,0,0,0,0,0,0,0
7,79999,96,70000,91,20000,9,9999,0.100000,0,0,0.000000,5,1.000000,0.000000,1.253279,0,0,0,0,0,1,0
7,79999,97,70000,52,0,40,9999,0.100000,0,0,0.000000,5,0.000000,0.000000,0.995743,0,0,0,0,0,0,0
7,79999,98,70000,52,0,40,9999,0.100000,0,0,0.000000,5,0.000000,0.000000,0.643215,0,0,0,0,0,0,0
7,79999,99,70000,52,0,40,9999,0.100000,0,0,0.000000,5,0.000000,0.000000,0.101486,0,0,0,0,0,0,0
8,89999,0,80000,73,0,40,9999,0.100000,0,0,0.000000,5,0.000000,0.000000,0.911333,0,0,0,0,0,0,0
8,89999,1,80000,17,10000,49,9999,0.100000,0,0,0.000000,5,1.000000,0.000000,1.870866,0,0,0,0,0,0,0
8,89999,2,80000,73,0,49,9999,0.100000,0,0,0.000000,5,1.000000,0.000000,1.597338,0,0,0,0,0,0,0
8,89999,3,80000,91,20000,40,9999,0.100000,0,0,0.000000,5,0.000000,0.000000,0.118577,0,0,0,0,0,0,0
8,89999,4,80000,38,10000,40,9999,0.100000,0,0,0.000000,5,0.000000,0.000000,1.842107,0,0,0,0,0,0,0
8,89999,5,80000,17,10000,40,9999,0.100000,0,0,0.000000,5,0.000000,0.000000,0.356699,0,0,0,0,0,0,0
8,89999,6,80000,91,20000,49,9999,0.100000,0,0,0.000000,5,3.000000,0.000000,10.450882,0,0,0,0,0,0,0
8,89999,7,80000,73,0,40,9999,0.100000,0,0,0.000000,5,0.000000,0.000000,0.549007,0,0,0,0,0,0,0
8,89999,8,80000,38,10000,40,9999,0.100000,0,0,0.000000,5,0.000000,0.000000,0.112043,0,0,0,0,0,0,0
8,89999,9,80000,38,10000,9,9999,0.100000,0,0,34.210526,5,5.000000,0.000000,6.637236,0,0,0,0,1,0,0
8,89999,10,80000,91,20000,40,9999,0.100000,0,0,0.000000,5,0.000000,0.000000,0.745076,0,0,0,0,0,0,0
8,89999,11,80000,91,20000,40,9999,0.100000,0,0,0.000000,5,0.000000,0.000000,1.169519,0,0,0,0,0,0,0
8,89999,12,80000,91,20000,40,9999,0.100000,0,0,0.000000,5,0.000000,0.000000,1.326444,0,0,0,0,0,0,0
8,89999,13,80000,38,10000,40,9999,0.100000,0,0,0.000000,5,0.000000,0.000000,0.074791,0,0,0,0,0,0,0
8,89999,14,80000,73,0,40,9999,0.100000,0,0,0.000000,5,0.000000,0.000000,0.468149,0,0,0,0,0,0,0
8,89999,15,80000,17,10000,49,9999,0.100000,0,0,0.000000,5,1.000000,0.000000,1.295674,0,0,0,0,0,0,0
8,89999,16,80000,17,10000,40,9999,0.100000,0,0,0.000000,5,0.000000,0.000000,0.009722,0,0,0,0,0,0,0
8,89999,17,80000,38,10000,40,9999,0.100000,0,0,0.000000,5,0.000000,0.000000,0.080791,0,0,0,0,0,0,0
8,89999,18,80000,38,10000,40,9999,0.100000,0,0,0.000000,5,0.000000,0.000000,0.083923,0,0,0,0,0,0,0
8,89999,19,80000,52,0,40,9999,0.100000,0,0,0.000000,5,0.000000,0.000000,0.273742,0,0,0,0,0,0,0
8,89999,20,80000,91,20000,40,9999,0.100000,0,0,0.000000,5,0.000000,0.000000,0.237625,0,0,0,0,0,0,0
8,89999,21,80000,91,20000,40,9999,0.100000,0,0,0.000000,5,0.000000,0.000000,0.094905,0,0,0,0,0,0,0
8,89999,22,80000,17,10000,40,9999,0.100000,0,0,0.000000,5,0.000000,0.000000,1.288224,0,0,0,0,0,0,0
8,89999,23,80000,52,0,40,9999,0.100000,0,0,0.000000,5,0.000000,0.000000,0.182707,0,0,0,0,0,0,0
8,89999,24,80000,73,0,40,9999,0.100000,0,0,0.000000,5,0.000000,0.000000,0.195499,0,0,0,0,0,0,0
8,89999,25,80000,17,10000,40,9999,0.100000,0,0,0.000000,5,0.000000,0.000000,0.099745,0,0,0,0,0,0,0
8,89999,26,80000,52,0,40,9999,0.100000,0,0,0.000000,5,0.000000,0.000000,0.155745,0,0,0,0,0,0,0
8,89999,27,80000,38,10000,49,9999,0.100000,0,0,0.000000,5,1.000000,0.000000,1.416484,0,0,0,0,0,0,0
8,89999,28,80000,52,0,49,9999,0.100000,0,0,0.000000,5,1.000000,0.000000,2.110173,0,0,0,0,0,0,0
8,89999,29,80000,52,0,40,9999,0.100000,0,0,0.000000,5,0.000000,0.000000,0.114559,0,0,0,0,0,0,0
8,89999,30,80000,91,20000,9,9999,0.100000,0,0,34.210526,5,6.000000,0.000000,13.124510,0,0,0,1,0,0,0
8,89999,31,80000,91,20000,40,9999,0.100000,0,0,0.000000,5,0.000000,0.000000,0.132659,0,0,0,0,0,0,0
8,89999,32,80000,73,0,40,9999,0.100000,0,0,0.000000,5,0.000000,0.000000,0.100839,0,0,0,0,0,0,0
8,89999,33,80000,38,10000,49,9999,0.100000,0,0,0.000000,5,4.000000,0.000000,13.577177,0,0,0,0,0,0,0
8,89999,34,80000,73,0,40,9999,0.100000,0,0,0.000000,5,0.000000,0.000000,1.209972,0,0,0,0,0,0,0
8,89999,35,80000,17,10000,40,9999,0.100000,0,0,0.000000,5,0.000000,0.000000,0.234492,0,0,0,0,0,0,0
8,89999,36,80000,91,20000,49,9999,0.100000,0,0,0.000000,5,4.000000,0.000000,5.635218,0,0,0,0,0,0,0
8,89999,37,80000,17,10000,49,9999,0.100000,0,0,0.000000,5,1.000000,0.000000,9.142633,0,0,0,0,0,0,0
8,89999,38,80000,38,10000,40,9999,0.100000,0,0,0.000000,5,0.000000,0.000000,8.956135,0,0,0,0,0,0,0
8,89999,39,80000,73,0,49,9999,0.100000,0,0,0.000000,5,2.000000,0.000000,17.768781,0,0,0,0,0,0,0
8,89999,40,80000,91,20000,40,9999,0.100000,0,0,0.000000,5,0.000000,0.000000,0.266026,0,0,0,0,0,0,0
8,89999,41,80000,73,0,40,9999,0.100000,0,0,0.000000,5,0.000000,0.000000,0.210426,0,0,0,0,0,0,0
8,89999,42,80000,73,0,49,9999,0.100000,0,0,0.000000,5,1.000000,0.000000,4.410301,0,0,0,0,0,0,0
8,89999,43,80000,38,10000,9,9999,0.100000,0,0,34.210526,5,5.000000,0.000000,6.224950,0,0,0,0,1,0,0
8,89999,44,80000,17,10000,40,9999,0.100000,0,0,0.000000,5,0.000000,0.000000,0.075945,0,0,0,0,0,0,0
8,89999,45,80000,38,10000,40,9999,0.100000,0,0,0.000000,5,0.000000,0.000000,0.750864,0,0,0,0,0,0,0
8,89999,46,80000,73,0,40,9999,0.100000,0,0,0.000000,5,0.000000,0.000000,0.114160,0,0,0,0,0,0,0
8,89999,47,80000,91,20000,40,9999,0.100000,0,0,0.000000,5,0.000000,0.000000,0.135345,0,0,0,0,0,0,0
8,89999,48,80000,38,10000,40,9999,0.100000,0,0,0.000000,5,0.000000,0.000000,3.772670,0,0,0,0,0,0,0
8,89999,49,80000,17,10000,40,9999,0.100000,0,0,0.000000,5,0.000000,0.000000,0.117432,0,0,0,0,0,0,0
8,89999,50,80000,91,20000,40,9999,0.100000,0,0,0.000000,5,0.000000,0.000000,0.080563,0,0,0,0,0,0,0
8,89999,51,80000,73,0,40,9999,0.100000,0,0,0.000000,5,0.000000,0.000000,0.378613,0,0,0,0,0,0,0
8,89999,52,80000,73,0,49,9999,0.100000,0,0,0.000000,5,1.000000,0.000000,2.250835,0,0,0,0,0,0,0
8,89999,53,80000,73,0,49,9999,0.100000,0,0,0.000000,5,1.000000,0.000000,2.700494,0,0,0,0,0,0,0
8,89999,54,80000,73,0,49,9999,0.100000,0,0,0.000000,5,5.000000,0.000000,6.470983,0,0,0,0,0,0,0
8,89999,55,80000,17,10000,49,9999,0.100000,0,0,0.000000,5,1.000000,0.000000,17.611803,0,0,0,0,0,0,0
8,89999,56,80000,52,0,40,9999,0.100000,0,0,0.000000,5,0.000000,0.000000,0.111236,0,0,0,0,0,0,0
8,89999,57,80000,73,0,49,9999,0.100000,0,0,0.000000,5,1.000000,0.000000,6.439711,0,0,0,0,0,0,0
8,89999,58,80000,38,10000,40,9999,0.100000,0,0,0.000000,5,0.000000,0.000000,1.414700,0,0,0,0,0,0,0
8,89999,59,80000,52,0,40,9999,0.100000,0,0,0.000000,5,0.000000,0.000000,0.225986,0,0,0,0,0,0,0
8,89999,60,80000,73,0,40,9999,0.100000,0,0,0.000000,5,0.000000,0.000000,0.083750,0,0,0,0,0,0,0
8,89999,61,80000,17,10000,40,9999,0.100000,0,0,0.000000,5,0.000000,0.000000,0.122326,0,0,0,0,0,0,0
8,89999,62,80000,38,10000,40,9999,0.100000,0,0,0.000000,5,0.000000,0.000000,0.118562,0,0,0,0,0,0,0
8,89999,63,80000,52,0,49,9999,0.100000,0,0,0.000000,5,1.000000,0.000000,1.547530,0,0,0,0,0,0,0
8,89999,64,80000,73,0,40,9999,0.100000,0,0,0.000000,5,0.000000,0.000000,0.144632,0,0,0,0,0,0,0
8,89999,65,80000,73,0,49,9999,0.100000,0,0,0.000000,5,8.000000,0.000000,16.829171,0,0,0,0,0,0,0
8,89999,66,80000,38,10000,49,9999,0.100000,0,0,0.000000,5,2.000000,0.000000,5.972557,0,0,0,0,0,0,0
8,89999,67,80000,52,0,40,9999,0.100000,0,0,0.000000,5,0.000000,0.000000,0.516909,0,0,0,0,0,0,0
8,89999,68,80000,17,10000,49,9999,0.100000,0,0,0.000000,5,1.000000,0.000000,3.148424,0,0,0,0,0,0,0
8,89999,69,80000,52,0,40,9999,0.100000,0,0,0.000000,5,0.000000,0.000000,0.088362,0,0,0,0,0,0,0
8,89999,70,80000,91,20000,40,9999,0.100000,0,0,0.000000,5,0.000000,0.000000,0.441323,0,0,0,0,0,0,0
8,89999,71,80000,38,10000,40,9999,0.100000,0,0,0.000000,5,0.000000,0.000000,0.172367,0,0,0,0,0,0,0
8,89999,72,80000,17,10000,40,9999,0.100000,0,0,0.000000,5,0.000000,0.000000,0.101312,0,0,0,0,0,0,0
8,89999,73,80000,38,10000,40,9999,0.100000,0,0,0.000000,5,0.000000,0.000000,0.295718,0,0,0,0,0,0,0
8,89999,74,80000,38,10000,40,9999,0.100000,0,0,0.000000,5,0.000000,0.000000,1.039316,0,0,0,0,0,0,0
8,89999,75,80000,91,20000,49,9999,0.100000,0,0,0.000000,5,1.000000,0.000000,1.688575,0,0,0,0,0,0,0
8,89999,76,80000,73,0,40,9999,0.100000,0,0,0.000000,5,0.000000,0.000000,0.148050,0,0,0,0,0,0,0
8,89999,77,80000,73,0,49,9999,0.100000,0,0,0.000000,5,4.000000,0.000000,15.784550,0,0,0,0,0,0,0
8,89999,78,80000,73,0,40,9999,0.100000,0,0,0.000000,5,0.000000,0.000000,0.148406,0,0,0,0,0,0,0
8,89999,79,80000,38,10000,40,9999,0.100000,0,0,0.000000,5,0.000000,0.000000,0.479088,0,0,0,0,0,0,0
8,89999,80,80000,73,0,40,9999,0.100000,0,0,0.000000,5,0.000000,0.000000,0.130115,0,0,0,0,0,0,0
8,89999,81,80000,17,10000,40,9999,0.100000,0,0,0.000000,5,0.000000,0.000000,0.099683,0,0,0,0,0,0,0
8,89999,82,80000,73,0,40,9999,0.100000,0,0,0.000000,5,0.000000,0.000000,0.646947,0,0,0,0,0,0,0
8,89999,83,80000,91,20000,49,9999,0.100000,0,0,0.000000,5,1.000000,0.000000,1.214108,0,0,0,0,0,0,0
8,89999,84,80000,73,0,40,9999,0.100000,0,0,0.000000,5,0.000000,0.000000,0.298102,0,0,0,0,0,0,0
8,89999,85,80000,73,0,40,9999,0.100000,0,0,0.000000,5,0.000000,0.000000,0.116122,0,0,0,0,0,0,0
8,89999,86,80000,73,0,40,9999,0.100000,0,0,0.000000,5,0.000000,0.000000,0.142662,0,0,0,0,0,0,0
8,89999,87,80000,52,0,9,9999,0.100000,0,0,34.210526,5,6.000000,0.000000,12.830324,0,0,0,1,0,0,0
8,89999,88,80000,17,10000,40,9999,0.100000,0,0,0.000000,5,0.000000,0.000000,1.631804,0,0,0,0,0,0,0
8,89999,89,80000,73,0,9,9999,0.100000,0,0,34.210526,5,5.000000,0.000000,5.939628,0,0,0,0,1,0,0
8,89999,90,80000,38,10000,40,9999,0.100000,0,0,0.000000,5,0.000000,0.000000,1.658115,0,0,0,0,0,0,0
8,89999,91,80000,17,10000,40,9999,0.100000,0,0,0.000000,5,0.000000,0.000000,0.088217,0,0,0,0,0,0,0
8,89999,92,80000,73,0,40,9999,0.100000,0,0,0.000000,5,0.000000,0.000000,0.607785,0,0,0,0,0,0,0
8,89999,93,80000,52,0,40,9999,0.100000,0,0,0.000000,5,0.000000,0.000000,0.115616,0,0,0,0,0,0,0
8,89999,94,80000,38,10000,40,9999,0.100000,0,0,0.000000,5,0.000000,0.000000,0.661705,0,0,0,0,0,0,0
8,89999,95,80000,73,0,40,9999,0.100000,0,0,0.000000,5,0.000000,0.000000,0.072555,0,0,0,0,0,0,0
8,89999,96,80000,38,10000,49,9999,0.100000,0,0,0.000000,5,1.000000,0.000000,1.390450,0,0,0,0,0,0,0
8,89999,97,80000,91,20000,40,9999,0.100000,0,0,0.000000,5,0.000000,0.000000,1.022963,0,0,0,0,0,0,0
8,89999,98,80000,38,10000,40,9999,0.100000,0,0,0.000000,5,0.000000,0.000000,0.845672,0,0,0,0,0,0,0
8,89999,99,80000,38,10000,40,9999,0.100000,0,0,0.000000,5,0.000000,0.000000,0.148596,0,0,0,0,0,0,0
9,99999,0,90000,17,10000,40,9999,0.100000,0,0,0.000000,5,0.000000,0.000000,1.107339,0,0,0,0,0,0,0
9,99999,1,90000,91,20000,49,9999,0.100000,0,0,0.000000,5,1.000000,0.000000,1.548081,0,0,0,0,0,0,0
9,99999,2,90000,52,0,40,9999,0.100000,0,0,0.000000,5,0.000000,0.000000,0.354166,0,0,0,0,0,0,0
9,99999,3,90000,17,10000,40,9999,0.100000,0,0,0.000000,5,0.000000,0.000000,0.119141,0,0,0,0,0,0,0
9,99999,4,90000,52,0,40,9999,0.100000,0,0,0.000000,5,0.000000,0.000000,4.560675,0,0,0,0,0,0,0
9,99999,5,90000,73,0,40,9999,0.100000,0,0,0.000000,5,0.000000,0.000000,0.369843,0,0,0,0,0,0,0
9,99999,6,90000,91,20000,49,9999,0.100000,0,0,0.000000,5,2.000000,0.000000,16.229222,0,0,0,0,0,0,0
9,99999,7,90000,17,10000,40,9999,0.100000,0,0,0.000000,5,0.000000,0.000000,0.334015,0,0,0,0,0,0,0
9,99999,8,90000,52,0,40,9999,0.100000,0,0,0.000000,5,0.000000,0.000000,0.118111,0,0,0,0,0,0,0
9,99999,9,90000,52,0,49,9999,0.100000,0,0,0.000000,5,2.000000,0.000000,3.937550,0,0,0,0,0,0,0
9,99999,10,90000,17,10000,40,9999,0.100000,0,0,0.000000,5,0.000000,0.000000,0.744286,0,0,0,0,0,0,0
9,99999,11,90000,52,0,40,9999,0.100000,0,0,0.000000,5,0.000000,0.000000,0.891302,0,0,0,0,0,0,0
9,99999,12,90000,38,10000,40,9999,0.100000,0,0,0.000000,5,0.000000,0.000000,1.170977,0,0,0,0,0,0,0
9,99999,13,90000,91,20000,40,9999,0.100000,0,0,0.000000,5,0.000000,0.000000,0.072829,0,0,0,0,0,0,0
9,99999,14,90000,17,10000,40,9999,0.100000,0,0,0.000000,5,0.000000,0.000000,0.080644,0,0,0,0,0,0,0
9,99999,15,90000,52,0,40,9999,0.100000,0,0,0.000000,5,0.000000,0.000000,0.184898,0,0,0,0,0,0,0
9,99999,16,90000,52,0,40,9999,0.100000,0,0,0.000000,5,0.000000,0.000000,0.009609,0,0,0,0,0,0,0
9,99999,17,90000,17,10000,40,9999,0.100000,0,0,0.000000,5,0.000000,0.000000,0.081259,0,0,0,0,0,0,0
9,99999,18,90000,17,10000,40,9999,0.100000,0,0,0.000000,5,0.000000,0.000000,0.085352,0,0,0,0,0,0,0
9,99999,19,90000,91,20000,40,9999,0.100000,0,0,0.000000,5,0.000000,0.000000,0.266033,0,0,0,0,0,0,0
9,99999,20,90000,73,0,40,9999,0.100000,0,0,0.000000,5,0.000000,0.000000,0.234282,0,0,0,0,0,0,0
9,99999,21,90000,91,20000,40,9999,0.100000,0,0,0.000000,5,0.000000,0.000000,0.639746,0,0,0,0,0,0,0
9,99999,22,90000,17,10000,49,9999,0.100000,0,0,0.000000,5,1.000000,0.000000,1.745098,0,0,0,0,0,0,0
9,99999,23,90000,38,10000,40,9999,0.100000,0,0,0.000000,5,0.000000,0.000000,0.175374,0,0,0,0,0,0,0
9,99999,24,90000,91,20000,40,9999,0.100000,0,0,0.000000,5,0.000000,0.000000,0.190040,0,0,0,0,0,0,0
9,99999,25,90000,38,10000,40,9999,0.100000,0,0,0.000000,5,0.000000,0.000000,0.105970,0,0,0,0,0,0,0
9,99999,26,90000,73,0,40,9999,0.100000,0,0,0.000000,5,0.000000,0.000000,0.338530,0,0,0,0,0,0,0
9,99999,27,90000,52,0,40,9999,0.100000,0,0,0.000000,5,0.000000,0.000000,0.161291,0,0,0,0,0,0,0
9,99999,28,90000,17,10000,40,9999,0.100000,0,0,0.000000,5,0.000000,0.000000,0.361634,0,0,0,0,0,0,0
9,99999,29,90000,38,10000,40,9999,0.100000,0,0,0.000000,5,0.000000,0.000000,0.113168,0,0,0,0,0,0,0
9,99999,30,90000,73,0,99,9999,0.100000,0,0,34.210526,5,3.000000,0.000000,22.739526,0,0,1,0,0,0,0
9,99999,31,90000,73,0,40,9999,0.100000,0,0,0.000000,5,0.000000,0.000000,0.315548,0,0,0,0,0,0,0
9,99999,32,90000,52,0,40,9999,0.100000,0,0,0.000000,5,0.000000,0.000000,0.098800,0,0,0,0,0,0,0
9,99999,33,90000,17,10000,49,9999,0.100000,0,0,0.000000,5,4.000000,0.000000,12.778304,0,0,0,0,0,0,0
9,99999,34,90000,52,0,40,9999,0.100000,0,0,0.000000,5,0.000000,0.000000,1.391805,0,0,0,0,0,0,0
9,99999,35,90000,91,20000,40,9999,0.065000,0,0,0.000000,5,0.000000,0.000000,0.254926,0,0,0,0,0,0,0
9,99999,36,90000,17,10000,49,9999,0.100000,0,0,0.000000,5,1.000000,0.000000,3.450924,0,0,0,0,0,0,0
9,99999,37,90000,17,10000,40,9999,0.100000,0,0,0.000000,5,0.000000,0.000000,0.076406,0,0,0,0,0,0,0
9,99999,38,90000,17,10000,40,9999,0.100000,0,0,0.000000,5,0.000000,0.000000,0.244371,0,0,0,0,0,0,0
9,99999,39,90000,17,10000,40,9999,0.100000,0,0,0.000000,5,0.000000,0.000000,3.899335,0,0,0,0,0,0,0
9,99999,40,90000,52,0,40,9999,0.100000,0,0,0.000000,5,0.000000,0.000000,0.243576,0,0,0,0,0,0,0
9,99999,41,90000,91,20000,40,9999,0.100000,0,0,0.000000,5,0.000000,0.000000,0.222271,0,0,0,0,0,0,0
9,99999,42,90000,17,10000,49,9999,0.100000,0,0,0.000000,5,1.000000,0.000000,4.698442,0,0,0,0,0,0,0
9,99999,43,90000,17,10000,49,9999,0.100000,0,0,0.000000,5,6.000000,0.000000,10.332853,0,0,0,0,0,0,0
9,99999,44,90000,38,10000,40,9999,0.100000,0,0,0.000000,5,0.000000,0.000000,0.077949,0,0,0,0,0,0,0
9,99999,45,90000,38,10000,40,9999,0.100000,0,0,0.000000,5,0.000000,0.000000,0.975007,0,0,0,0,0,0,0
9,99999,46,90000,17,10000,49,9999,0.100000,0,0,0.000000,5,1.000000,0.000000,1.192289,0,0,0,0,0,0,0
9,99999,47,90000,17,10000,40,9999,0.100000,0,0,0.000000,5,0.000000,0.000000,0.135264,0,0,0,0,0,0,0
9,99999,48,90000,91,20000,40,9999,0.100000,0,0,0.000000,5,0.000000,0.000000,3.615523,0,0,0,0,0,0,0
9,99999,49,90000,52,0,40,9999,0.100000,0,0,0.000000,5,0.000000,0.000000,0.289049,0,0,0,0,0,0,0
9,99999,50,90000,17,10000,40,9999,0.100000,0,0,0.000000,5,0.000000,0.000000,0.081975,0,0,0,0,0,0,0
9,99999,51,90000,52,0,40,9999,0.100000,0,0,0.000000,5,0.000000,0.000000,0.075322,0,0,0,0,0,0,0
9,99999,52,90000,38,10000,40,9999,0.100000,0,0,0.000000,5,0.000000,0.000000,0.533166,0,0,0,0,0,0,0
9,99999,53,90000,73,0,49,9999,0.100000,0,0,0.000000,5,1.000000,0.000000,1.388851,0,0,0,0,0,0,0
9,99999,54,90000,91,20000,40,9999,0.100000,0,0,0.000000,5,0.000000,0.000000,7.271993,0,0,0,0,0,0,0
9,99999,55,90000,17,10000,49,9999,0.100000,0,0,0.000000,5,1.000000,0.000000,4.153836,0,0,0,0,0,0,0
9,99999,56,90000,52,0,40,9999,0.100000,0,0,0.000000,5,0.000000,0.000000,0.136491,0,0,0,0,0,0,0
9,99999,57,80000,73,0,9,19999,0.100000,0,0,34.210526,5,8.000000,0.000000,23.145393,0,0,0,0,0,1,0
9,99999,58,90000,38,10000,40,9999,0.100000,0,0,0.000000,5,0.000000,0.000000,1.598380,0,0,0,0,0,0,0
9,99999,59,90000,91,20000,40,9999,0.100000,0,0,0.000000,5,0.000000,0.000000,0.225725,0,0,0,0,0,0,0
9,99999,60,90000,73,0,40,9999,0.100000,0,0,0.000000,5,0.000000,0.000000,0.081663,0,0,0,0,0,0,0
9,99999,61,90000,38,10000,40,9999,0.100000,0,0,0.000000,5,0.000000,0.000000,0.122348,0,0,0,0,0,0,0
9,99999,62,90000,17,10000,40,9999,0.100000,0,0,0.000000,5,0.000000,0.000000,0.336648,0,0,0,0,0,0,0
9,99999,63,90000,91,20000,49,9999,0.100000,0,0,0.000000,5,1.000000,0.000000,1.390872,0,0,0,0,0,0,0
9,99999,64,90000,73,0,40,9999,0.100000,0,0,0.000000,5,0.000000,0.000000,0.136610,0,0,0,0,0,0,0
9,99999,65,90000,52,0,49,9999,0.100000,0,0,0.000000,5,8.000000,0.000000,16.958799,0,0,0,0,0,0,0
9,99999,66,90000,38,10000,40,9999,0.100000,0,0,0.000000,5,0.000000,0.000000,0.152666,0,0,0,0,0,0,0
9,99999,67,90000,91,20000,40,9999,0.100000,0,0,0.000000,5,0.000000,0.000000,0.965013,0,0,0,0,0,0,0
9,99999,68,90000,38,10000,49,9999,0.100000,0,0,0.000000,5,2.000000,0.000000,12.279797,0,0,0,0,0,0,0
9,99999,69,90000,91,20000,40,9999,0.100000,0,0,0.000000,5,0.000000,0.000000,0.194921,0,0,0,0,0,0,0
9,99999,70,90000,17,10000,49,9999,0.100000,0,0,0.000000,5,2.000000,0.000000,2.337260,0,0,0,0,0,0,0
9,99999,71,90000,73,0,40,9999,0.100000,0,0,0.000000,5,0.000000,0.000000,0.171059,0,0,0,0,0,0,0
9,99999,72,90000,52,0,40,9999,0.100000,0,0,0.000000,5,0.000000,0.000000,0.076605,0,0,0,0,0,0,0
9,99999,73,90000,73,0,40,9999,0.100000,0,0,0.000000,5,0.000000,0.000000,0.334545,0,0,0,0,0,0,0
9,99999,74,90000,38,10000,40,9999,0.100000,0,0,0.000000,5,0.000000,0.000000,1.037911,0,0,0,0,0,0,0
9,99999,75,90000,17,10000,40,9999,0.100000,0,0,0.000000,5,0.000000,0.000000,0.562063,0,0,0,0,0,0,0
9,99999,76,90000,38,10000,40,9999,0.100000,0,0,0.000000,5,0.000000,0.000000,0.145737,0,0,0,0,0,0,0
9,99999,77,90000,38,10000,49,9999,0.100000,0,0,0.000000,5,2.000000,0.000000,2.759277,0,0,0,0,0,0,0
9,99999,78,80000,73,0,40,19999,0.100000,0,0,0.000000,5,0.000000,0.000000,0.161822,0,0,0,0,0,0,0
9,99999,79,90000,52,0,49,9999,0.100000,0,0,0.000000,5,2.000000,0.000000,2.482409,0,0,0,0,0,0,0
9,99999,80,90000,73,0,0,9999,0.100000,0,0,0.000000,5,0.000000,0.000000,0.132394,0,0,0,0,0,0,1
9,99999,81,90000,17,10000,40,9999,0.100000,0,0,0.000000,5,0.000000,0.000000,0.099831,0,0,0,0,0,0,0
9,99999,82,90000,73,0,40,9999,0.100000,0,0,0.000000,5,0.000000,0.000000,0.637407,0,0,0,0,0,0,0
9,99999,83,90000,38,10000,49,9999,0.100000,0,0,0.000000,5,1.000000,0.000000,1.120555,0,0,0,0,0,0,0
9,99999,84,90000,73,0,49,9999,0.100000,0,0,0.000000,5,1.000000,0.000000,1.957165,0,0,0,0,0,0,0
9,99999,85,90000,73,0,40,9999,0.100000,0,0,0.000000,5,0.000000,0.000000,0.116843,0,0,0,0,0,0,0
9,99999,86,90000,73,0,40,9999,0.100000,0,0,0.000000,5,0.000000,0.000000,0.115003,0,0,0,0,0,0,0
9,99999,87,90000,91,20000,40,9999,0.100000,0,0,0.000000,5,0.000000,0.000000,10.974380,0,0,0,0,0,0,0
9,99999,88,90000,91,20000,49,9999,0.100000,0,0,0.000000,5,1.000000,0.000000,6.957171,0,0,0,0,0,0,0
9,99999,89,90000,52,0,49,9999,0.100000,0,0,0.000000,5,3.000000,0.000000,10.342614,0,0,0,0,0,0,0
9,99999,90,90000,17,10000,49,9999,0.100000,0,0,0.000000,5,2.000000,0.000000,2.415588,0,0,0,0,0,0,0
9,99999,91,90000,17,10000,40,9999,0.100000,0,0,0.000000,5,0.000000,0.000000,0.089294,0,0,0,0,0,0,0
9,99999,92,90000,17,10000,40,9999,0.100000,0,0,0.000000,5,0.000000,0.000000,0.627052,0,0,0,0,0,0,0
9,99999,93,90000,73,0,40,9999,0.100000,0,0,0.000000,5,0.000000,0.000000,0.366666,0,0,0,0,0,0,0
9,99999,94,90000,73,0,40,9999,0.100000,0,0,0.000000,5,0.000000,0.000000,0.570544,0,0,0,0,0,0,0
9,99999,95,90000,52,0,40,9999,0.100000,0,0,0.000000,5,0.000000,0.000000,0.070829,0,0,0,0,0,0,0
9,99999,96,90000,17,10000,49,9999,0.100000,0,0,0.000000,5,1.000000,0.000000,1.258526,0,0,0,0,0,0,0
9,99999,97,90000,52,0,40,9999,0.100000,0,0,0.000000,5,0.000000,0.000000,0.971272,0,0,0,0,0,0,0
9,99999,98,90000,52,0,40,9999,0.100000,0,0,0.000000,5,0.000000,0.000000,0.946004,0,0,0,0,0,0,0
9,99999,99,90000,38,10000,49,9999,0.100000,0,0,0.000000,5,1.000000,0.000000,2.607186,0,0,0,0,0,0,0
10,109999,0,100000,38,10000,40,9999,0.100000,0,0,0.000000,5,0.000000,0.000000,0.622398,0,0,0,0,0,0,0
10,109999,1,100000,38,10000,49,9999,0.100000,0,0,0.000000,5,1.000000,0.000000,2.191790,0,0,0,0,0,0,0
10,109999,2,100000,52,0,40,9999,0.100000,0,0,0.000000,5,0.000000,0.000000,0.722928,0,0,0,0,0,0,0
10,109999,3,100000,38,10000,40,9999,0.100000,0,0,0.000000,5,0.000000,0.000000,0.116591,0,0,0,0,0,0,0
10,109999,4,100000,91,20000,40,9999,0.100000,0,0,0.000000,5,0.000000,0.000000,1.375088,0,0,0,0,0,0,0
10,109999,5,100000,91,20000,40,9999,0.100000,0,0,0.000000,5,0.000000,0.000000,0.419002,0,0,0,0,0,0,0
10,109999,6,100000,73,0,40,9999,0.100000,0,0,0.000000,5,0.000000,0.000000,6.391837,0,0,0,0,0,0,0
10,109999,7,100000,38,10000,40,9999,0.100000,0,0,0.000000,5,0.000000,0.000000,0.291162,0,0,0,0,0,0,0
10,109999,8,100000,52,0,40,9999,0.100000,0,0,0.000000,5,0.000000,0.000000,0.290253,0,0,0,0,0,0,0
10,109999,9,100000,52,0,40,9999,0.100000,0,0,0.000000,5,0.000000,0.000000,0.145083,0,0,0,0,0,0,0
10,109999,10,100000,91,20000,40,9999,0.100000,0,0,0.000000,5,0.000000,0.000000,1.296019,0,0,0,0,0,0,0
10,109999,11,100000,38,10000,40,9999,0.100000,0,0,0.000000,5,0.000000,0.000000,0.763882,0,0,0,0,0,0,0
10,109999,12,100000,52,0,40,9999,0.100000,0,0,0.000000,5,0.000000,0.000000,1.316169,0,0,0,0,0,0,0
10,109999,13,100000,17,10000,40,9999,0.100000,0,0,0.000000,5,0.000000,0.000000,0.224739,0,0,0,0,0,0,0
10,109999,14,100000,38,10000,40,9999,0.100000,0,0,0.000000,5,0.000000,0.000000,0.152752,0,0,0,0,0,0,0
10,109999,15,100000,17,10000,40,9999,0.100000,0,0,0.000000,5,0.000000,0.000000,0.574483,0,0,0,0,0,0,0
10,109999,16,100000,38,10000,40,9999,0.100000,0,0,0.000000,5,0.000000,0.000000,0.009611,0,0,0,0,0,0,0
10,109999,17,100000,52,0,40,9999,0.100000,0,0,0.000000,5,0.000000,0.000000,0.082542,0,0,0,0,0,0,0
10,109999,18,100000,38,10000,40,9999,0.100000,0,0,0.000000,5,0.000000,0.000000,0.087189,0,0,0,0,0,0,0
10,109999,19,100000,91,20000,40,9999,0.100000,0,0,0.000000,5,0.000000,0.000000,0.257000,0,0,0,0,0,0,0
10,109999,20,100000,52,0,40,9999,0.100000,0,0,0.000000,5,0.000000,0.000000,0.266695,0,0,0,0,0,0,0
10,109999,21,100000,17,10000,40,9999,0.100000,0,0,0.000000,5,0.000000,0.000000,0.549094,0,0,0,0,0,0,0
10,109999,22,100000,91,20000,49,9999,0.100000,0,0,0.000000,5,2.000000,0.000000,2.859189,0,0,0,0,0,0,0
10,109999,23,100000,38,10000,40,9999,0.100000,0,0,0.000000,5,0.000000,0.000000,0.176605,0,0,0,0,0,0,0
10,109999,24,100000,91,20000,40,9999,0.100000,0,0,0.000000,5,0.000000,0.000000,0.198042,0,0,0,0,0,0,0
10,109999,25,100000,73,0,40,9999,0.100000,0,0,0.000000,5,0.000000,0.000000,0.098809,0,0,0,0,0,0,0
10,109999,26,100000,52,0,40,9999,0.100000,0,0,0.000000,5,0.000000,0.000000,0.345622,0,0,0,0,0,0,0
10,109999,27,100000,17,10000,40,9999,0.100000,0,0,0.000000,5,0.000000,0.000000,0.565711,0,0,0,0,0,0,0
10,109999,28,100000,91,20000,40,9999,0.100000,0,0,0.000000,5,0.000000,0.000000,0.789916,0,0,0,0,0,0,0
10,109999,29,100000,38,10000,40,9999,0.100000,0,0,0.000000,5,0.000000,0.000000,0.131850,0,0,0,0,0,0,0
10,109999,30,100000,73,0,49,9999,0.100000,0,0,0.000000,5,1.000000,0.000000,1.947545,0,0,0,0,0,0,0
10,109999,31,100000,91,20000,40,9999,0.100000,0,0,0.000000,5,0.000000,0.000000,0.246689,0,0,0,0,0,0,0
10,109999,32,100000,52,0,40,9999,0.100000,0,0,0.000000,5,0.000000,0.000000,0.097485,0,0,0,0,0,0,0
10,109999,33,100000,38,10000,49,9999,0.100000,0,0,0.000000,5,2.000000,0.000000,20.099397,0,0,0,0,0,0,0
10,109999,34,100000,38,10000,49,9999,0.100000,0,0,0.000000,5,1.000000,0.000000,1.732726,0,0,0,0,0,0,0
10,109999,35,100000,52,0,49,9999,0.100000,0,0,0.000000,5,4.000000,0.000000,5.640924,0,0,0,0,0,0,0
10,109999,36,100000,38,10000,40,9999,0.100000,0,0,0.000000,5,0.000000,0.000000,0.522441,0,0,0,0,0,0,0
10,109999,37,100000,91,20000,40,9999,0.100000,0,0,0.000000,5,0.000000,0.000000,0.157838,0,0,0,0,0,0,0
10,109999,38,100000,91,20000,40,9999,0.100000,0,0,0.000000,5,0.000000,0.000000,0.448009,0,0,0,0,0,0,0
10,109999,39,100000,17,10000,40,9999,0.100000,0,0,0.000000,5,0.000000,0.000000,1.377332,0,0,0,0,0,0,0
10,109999,40,100000,52,0,40,9999,0.100000,0,0,0.000000,5,0.000000,0.000000,0.243712,0,0,0,0,0,0,0
10,109999,41,100000,91,20000,40,9999,0.100000,0,0,0.000000,5,0.000000,0.000000,0.231189,0,0,0,0,0,0,0
10,109999,42,100000,17,10000,49,9999,0.100000,0,0,0.000000,5,2.000000,0.000000,4.598305,0,0,0,0,0,0,0
10,109999,43,100000,17,10000,49,9999,0.100000,0,0,0.000000,5,2.000000,0.000000,17.275084,0,0,0,0,0,0,0
10,109999,44,100000,38,10000,40,9999,0.135000,0,0,0.000000,5,0.000000,0.000000,0.079098,0,0,0,0,0,0,0
10,109999,45,100000,91,20000,40,9999,0.100000,0,0,0.000000,5,0.000000,0.000000,0.807492,0,0,0,0,0,0,0
10,109999,46,100000,73,0,40,9999,0.100000,0,0,0.000000,5,0.000000,0.000000,0.440437,0,0,0,0,0,0,0
10,109999,47,100000,52,0,40,9999,0.100000,0,0,0.000000,5,0.000000,0.000000,0.098770,0,0,0,0,0,0,0
10,109999,48,100000,52,0,40,9999,0.100000,0,0,0.000000,5,0.000000,0.000000,3.489703,0,0,0,0,0,0,0
10,109999,49,100000,91,20000,40,9999,0.100000,0,0,0.000000,5,0.000000,0.000000,0.348760,0,0,0,0,0,0,0
10,109999,50,100000,73,0,40,9999,0.100000,0,0,0.000000,5,0.000000,0.000000,0.084894,0,0,0,0,0,0,0
10,109999,51,100000,73,0,40,9999,0.100000,0,0,0.000000,5,0.000000,0.000000,0.208517,0,0,0,0,0,0,0
10,109999,52,100000,91,20000,40,9999,0.100000,0,0,0.000000,5,0.000000,0.000000,0.916238,0,0,0,0,0,0,0
10,109999,53,100000,38,10000,49,9999,0.100000,0,0,0.000000,5,2.000000,0.000000,3.097917,0,0,0,0,0,0,0
10,109999,54,100000,52,0,40,9999,0.100000,0,0,0.000000,5,0.000000,0.000000,1.134977,0,0,0,0,0,0,0
10,109999,55,100000,73,0,40,9999,0.100000,0,0,0.000000,5,0.000000,0.000000,0.473452,0,0,0,0,0,0,0
10,109999,56,100000,38,10000,40,9999,0.100000,0,0,0.000000,5,0.000000,0.000000,0.102257,0,0,0,0,0,0,0
10,109999,57,100000,17,10000,49,9999,0.100000,0,0,0.000000,5,2.000000,0.000000,8.451913,0,0,0,0,0,0,0
10,109999,58,100000,38,10000,40,9999,0.100000,0,0,0.000000,5,0.000000,0.000000,1.639812,0,0,0,0,0,0,0
10,109999,59,100000,91,20000,40,9999,0.100000,0,0,0.000000,5,0.000000,0.000000,0.233375,0,0,0,0,0,0,0
10,109999,60,100000,91,20000,49,9999,0.100000,0,0,0.000000,5,5.000000,0.000000,11.101820,0,0,0,0,0,0,0
10,109999,61,100000,17,10000,40,9999,0.100000,0,0,0.000000,5,0.000000,0.000000,0.119754,0,0,0,0,0,0,0
10,109999,62,100000,38,10000,40,9999,0.100000,0,0,0.000000,5,0.000000,0.000000,0.314095,0,0,0,0,0,0,0
10,109999,63,100000,91,20000,49,9999,0.100000,0,0,0.000000,5,1.000000,0.000000,2.053142,0,0,0,0,0,0,0
10,109999,64,100000,38,10000,40,9999,0.100000,0,0,0.000000,5,0.000000,0.000000,0.133701,0,0,0,0,0,0,0
10,109999,65,100000,52,0,40,9999,0.100000,0,0,0.000000,5,0.000000,0.000000,0.364126,0,0,0,0,0,0,0
10,109999,66,100000,73,0,40,9999,0.100000,0,0,0.000000,5,0.000000,0.000000,0.121054,0,0,0,0,0,0,0
10,109999,67,100000,52,0,40,9999,0.100000,0,0,0.000000,5,0.000000,0.000000,0.744618,0,0,0,0,0,0,0
10,109999,68,100000,17,10000,49,9999,0.100000,0,0,0.000000,5,4.000000,0.000000,10.105096,0,0,0,0,0,0,0
10,109999,69,100000,52,0,40,9999,0.100000,0,0,0.000000,5,0.000000,0.000000,0.104103,0,0,0,0,0,0,0
10,109999,70,100000,91,20000,40,9999,0.100000,0,0,0.000000,5,0.000000,0.000000,2.406491,0,0,0,0,0,0,0
10,109999,71,100000,17,10000,40,9999,0.100000,0,0,0.000000,5,0.000000,0.000000,0.165345,0,0,0,0,0,0,0
10,109999,72,100000,17,10000,49,9999,0.100000,0,0,0.000000,5,2.000000,0.000000,4.606189,0,0,0,0,0,0,0
10,109999,73,100000,38,10000,40,9999,0.100000,0,0,0.000000,5,0.000000,0.000000,0.575247,0,0,0,0,0,0,0
10,109999,74,100000,73,0,49,9999,0.100000,0,0,0.000000,5,2.000000,0.000000,3.354722,0,0,0,0,0,0,0
10,109999,75,100000,91,20000,40,9999,0.100000,0,0,0.000000,5,0.000000,0.000000,0.749061,0,0,0,0,0,0,0
10,109999,76,100000,91,20000,40,9999,0.100000,0,0,0.000000,5,0.000000,0.000000,0.147503,0,0,0,0,0,0,0
10,109999,77,100000,52,0,49,9999,0.100000,0,0,0.000000,5,1.000000,0.000000,3.367622,0,0,0,0,0,0,0
10,109999,78,100000,17,10000,40,9999,0.100000,0,0,0.000000,5,0.000000,0.000000,0.181307,0,0,0,0,0,0,0
10,109999,79,100000,91,20000,40,9999,0.100000,0,0,0.000000,5,0.000000,0.000000,2.043957,0,0,0,0,0,0,0
10,109999,80,100000,52,0,40,9999,0.100000,0,0,0.000000,5,0.000000,0.000000,0.266336,0,0,0,0,0,0,0
10,109999,81,100000,17,10000,49,9999,0.100000,0,0,0.000000,5,5.000000,0.000000,10.638174,0,0,0,0,0,0,0
10,109999,82,100000,52,0,40,9999,0.100000,0,0,0.000000,5,0.000000,0.000000,0.665551,0,0,0,0,0,0,0
10,109999,83,100000,38,10000,49,9999,0.100000,0,0,0.000000,5,1.000000,0.000000,1.818677,0,0,0,0,0,0,0
10,109999,84,100000,52,0,40,9999,0.100000,0,0,0.000000,5,0.000000,0.000000,1.167515,0,0,0,0,0,0,0
10,109999,85,100000,91,20000,40,9999,0.100000,0,0,0.000000,5,0.000000,0.000000,0.116485,0,0,0,0,0,0,0
10,109999,86,100000,91,20000,40,9999,0.100000,0,0,0.000000,5,0.000000,0.000000,0.166842,0,0,0,0,0,0,0
10,109999,87,100000,73,0,49,9999,0.100000,0,0,0.000000,5,3.000000,0.000000,7.004813,0,0,0,0,0,0,0
10,109999,88,100000,91,20000,49,9999,0.100000,0,0,0.000000,5,1.000000,0.000000,11.716122,0,0,0,0,0,0,0
10,109999,89,100000,73,0,49,9999,0.100000,0,0,0.000000,5,5.000000,0.000000,21.596471,0,0,0,0,0,0,0
10,109999,90,100000,38,10000,40,9999,0.100000,0,0,0.000000,5,0.000000,0.000000,3.733349,0,0,0,0,0,0,0
10,109999,91,100000,73,0,40,9999,0.100000,0,0,0.000000,5,0.000000,0.000000,0.090147,0,0,0,0,0,0,0
10,109999,92,100000,17,10000,40,9999,0.100000,0,0,0.000000,5,0.000000,0.000000,0.669458,0,0,0,0,0,0,0
10,109999,93,100000,38,10000,40,9999,0.100000,0,0,0.000000,5,0.000000,0.000000,0.615431,0,0,0,0,0,0,0
10,109999,94,100000,17,10000,40,9999,0.100000,0,0,0.000000,5,0.000000,0.000000,0.593839,0,0,0,0,0,0,0
10,109999,95,100000,38,10000,40,9999,0.100000,0,0,0.000000,5,0.000000,0.000000,0.071202,0,0,0,0,0,0,0
10,109999,96,100000,91,20000,49,9999,0.100000,0,0,0.000000,5,5.000000,0.000000,13.403531,0,0,0,0,0,0,0
10,109999,97,100000,73,0,40,9999,0.100000,0,0,0.000000,5,0.000000,0.000000,1.011199,0,0,0,0,0,0,0
10,109999,98,100000,91,20000,40,9999,0.100000,0,0,0.000000,5,0.000000,0.000000,0.935040,0,0,0,0,0,0,0
10,109999,99,100000,38,10000,40,9999,0.100000,0,0,0.000000,5,0.000000,0.000000,0.720531,0,0,0,0,0,0,0
11,119999,0,110000,38,10000,40,9999,0.100000,0,0,0.000000,5,0.000000,0.000000,0.432901,0,0,0,0,0,0,0
11,119999,1,110000,73,0,40,9999,0.100000,0,0,0.000000,5,0.000000,0.000000,0.921700,0,0,0,0,0,0,0
11,119999,2,110000,52,0,49,9999,0.100000,0,0,0.000000,5,1.000000,0.000000,1.576998,0,0,0,0,0,0,0
11,119999,3,110000,52,0,40,9999,0.100000,0,0,0.000000,5,0.000000,0.000000,0.116297,0,0,0,0,0,0,0
11,119999,4,110000,91,20000,40,9999,0.100000,0,0,0.000000,5,0.000000,0.000000,2.993061,0,0,0,0,0,0,0
11,119999,5,110000,91,20000,40,9999,0.100000,0,0,0.000000,5,0.000000,0.000000,1.620799,0,0,0,0,0,0,0
11,119999,6,110000,91,20000,49,9999,0.100000,0,0,0.000000,5,1.000000,0.000000,2.177383,0,0,0,0,0,0,0
11,119999,7,110000,17,10000,40,9999,0.100000,0,0,0.000000,5,0.000000,0.000000,0.247093,0,0,0,0,0,0,0
11,119999,8,110000,73,0,40,9999,0.100000,0,0,0.000000,5,0.000000,0.000000,0.446070,0,0,0,0,0,0,0
11,119999,9,110000,52,0,40,9999,0.100000,0,0,0.000000,5,0.000000,0.000000,0.140138,0,0,0,0,0,0,0
11,119999,10,110000,52,0,40,9999,0.100000,0,0,0.000000,5,0.000000,0.000000,0.284634,0,0,0,0,0,0,0
11,119999,11,110000,38,10000,40,9999,0.065000,0,0,0.000000,5,0.000000,0.000000,0.738498,0,0,0,0,0,0,0
11,119999,12,110000,38,10000,40,9999,0.100000,0,0,0.000000,5,0.000000,0.000000,10.063423,0,0,0,0,0,0,0
11,119999,13,100000,17,10000,40,19999,0.100000,0,0,0.000000,5,0.000000,0.000000,0.185140,0,0,0,0,0,0,0
11,119999,14,110000,52,0,40,9999,0.100000,0,0,0.000000,5,0.000000,0.000000,0.526394,0,0,0,0,0,0,0
11,119999,15,110000,38,10000,49,9999,0.100000,0,0,0.000000,5,1.000000,0.000000,1.332577,0,0,0,0,0,0,0
11,119999,16,110000,73,0,40,9999,0.100000,0,0,0.000000,5,0.000000,0.000000,0.009595,0,0,0,0,0,0,0
11,119999,17,110000,52,0,40,9999,0.100000,0,0,0.000000,5,0.000000,0.000000,0.082013,0,0,0,0,0,0,0
11,119999,18,110000,38,10000,40,9999,0.100000,0,0,0.000000,5,0.000000,0.000000,0.086332,0,0,0,0,0,0,0
11,119999,19,110000,17,10000,40,9999,0.100000,0,0,0.000000,5,0.000000,0.000000,0.197831,0,0,0,0,0,0,0
11,119999,20,110000,17,10000,40,9999,0.100000,0,0,0.000000,5,0.000000,0.000000,0.331346,0,0,0,0,0,0,0
11,119999,21,110000,73,0,40,9999,0.100000,0,0,0.000000,5,0.000000,0.000000,0.698142,0,0,0,0,0,0,0
11,119999,22,110000,48,100000,40,9999,0.100000,0,0,0.000000,5,0.000000,0.000000,0.331951,0,0,0,0,0,0,0
11,119999,23,110000,38,10000,40,9999,0.100000,0,0,0.000000,5,0.000000,0.000000,0.191252,0,0,0,0,0,0,0
11,119999,24,110000,73,0,40,9999,0.100000,0,0,0.000000,5,0.000000,0.000000,0.194125,0,0,0,0,0,0,0
11,119999,25,110000,17,10000,40,9999,0.100000,0,0,0.000000,5,0.000000,0.000000,0.101955,0,0,0,0,0,0,0
11,119999,26,110000,73,0,40,9999,0.100000,0,0,0.000000,5,0.000000,0.000000,0.217963,0,0,0,0,0,0,0
11,119999,27,110000,52,0,49,9999,0.100000,0,0,0.000000,5,1.000000,0.000000,1.403633,0,0,0,0,0,0,0
11,119999,28,110000,17,10000,49,9999,0.100000,0,0,0.000000,5,1.000000,0.000000,1.978670,0,0,0,0,0,0,0
11,119999,29,110000,73,0,40,9999,0.100000,0,0,0.000000,5,0.000000,0.000000,0.134248,0,0,0,0,0,0,0
11,119999,30,110000,38,10000,40,9999,0.100000,0,0,0.000000,5,0.000000,0.000000,0.434341,0,0,0,0,0,0,0
11,119999,31,110000,38,10000,40,9999,0.100000,0,0,0.000000,5,0.000000,0.000000,0.195290,0,0,0,0,0,0,0
11,119999,32,110000,38,10000,40,9999,0.100000,0,0,0.000000,5,0.000000,0.000000,0.098649,0,0,0,0,0,0,0
11,119999,33,110000,73,0,49,9999,0.100000,0,0,0.000000,5,3.000000,0.000000,13.228787,0,0,0,0,0,0,0
11,119999,34,110000,52,0,49,9999,0.100000,0,0,0.000000,5,3.000000,0.000000,7.377312,0,0,0,0,0,0,0
11,119999,35,110000,73,0,49,9999,0.100000,0,0,0.000000,5,1.000000,0.000000,3.279512,0,0,0,0,0,0,0
11,119999,36,110000,73,0,40,9999,0.100000,0,0,0.000000,5,0.000000,0.000000,0.231131,0,0,0,0,0,0,0
11,119999,37,110000,17,10000,40,9999,0.100000,0,0,0.000000,5,0.000000,0.000000,0.586149,0,0,0,0,0,0,0
11,119999,38,110000,73,0,40,9999,0.100000,0,0,0.000000,5,0.000000,0.000000,1.904619,0,0,0,0,0,0,0
11,119999,39,110000,17,10000,49,9999,0.100000,0,0,0.000000,5,1.000000,0.000000,2.972207,0,0,0,0,0,0,0
11,119999,40,110000,91,20000,40,9999,0.100000,0,0,0.000000,5,0.000000,0.000000,0.232050,0,0,0,0,0,0,0
11,119999,41,110000,52,0,40,9999,0.100000,0,0,0.000000,5,0.000000,0.000000,0.225841,0,0,0,0,0,0,0
11,119999,42,110000,52,0,49,9999,0.100000,0,0,0.000000,5,1.000000,0.000000,3.535685,0,0,0,0,0,0,0
11,119999,43,110000,73,0,40,9999,0.100000,0,0,0.000000,5,0.000000,0.000000,1.458187,0,0,0,0,0,0,0
11,119999,44,110000,91,20000,40,9999,0.100000,0,0,0.000000,5,0.000000,0.000000,0.075670,0,0,0,0,0,0,0
11,119999,45,110000,17,10000,40,9999,0.065000,0,0,0.000000,5,0.000000,0.000000,0.777801,0,0,0,0,0,0,0
11,119999,46,110000,91,20000,40,9999,0.100000,0,0,0.000000,5,0.000000,0.000000,0.197458,0,0,0,0,0,0,0
11,119999,47,110000,73,0,40,9999,0.100000,0,0,0.000000,5,0.000000,0.000000,0.107909,0,0,0,0,0,0,0
11,119999,48,110000,38,10000,49,9999,0.100000,0,0,0.000000,5,1.000000,0.000000,8.676802,0,0,0,0,0,0,0
11,119999,49,110000,73,0,40,9999,0.100000,0,0,0.000000,5,0.000000,0.000000,0.274819,0,0,0,0,0,0,0
11,119999,50,110000,73,0,40,9999,0.100000,0,0,0.000000,5,0.000000,0.000000,0.087158,0,0,0,0,0,0,0
11,119999,51,110000,17,10000,40,9999,0.100000,0,0,0.000000,5,0.000000,0.000000,0.370037,0,0,0,0,0,0,0
11,119999,52,110000,52,0,49,9999,0.100000,0,0,0.000000,5,1.000000,0.000000,2.232028,0,0,0,0,0,0,0
11,119999,53,110000,17,10000,40,9999,0.100000,0,0,0.000000,5,0.000000,0.000000,0.217364,0,0,0,0,0,0,0
11,119999,54,110000,17,10000,40,9999,0.100000,0,0,0.000000,5,0.000000,0.000000,2.244638,0,0,0,0,0,0,0
11,119999,55,110000,52,0,40,9999,0.100000,0,0,0.000000,5,0.000000,0.000000,0.419061,0,0,0,0,0,0,0
11,119999,56,110000,17,10000,40,9999,0.100000,0,0,0.000000,5,0.000000,0.000000,0.122562,0,0,0,0,0,0,0
11,119999,57,110000,38,10000,40,9999,0.100000,0,0,0.000000,5,0.000000,0.000000,0.174595,0,0,0,0,0,0,0
11,119999,58,110000,73,0,40,9999,0.100000,0,0,0.000000,5,0.000000,0.000000,3.742258,0,0,0,0,0,0,0
11,119999,59,110000,38,10000,40,9999,0.100000,0,0,0.000000,5,0.000000,0.000000,0.235259,0,0,0,0,0,0,0
11,119999,60,110000,17,10000,40,9999,0.100000,0,0,0.000000,5,0.000000,0.000000,0.080346,0,0,0,0,0,0,0
11,119999,61,110000,38,10000,40,9999,0.100000,0,0,0.000000,5,0.000000,0.000000,0.119832,0,0,0,0,0,0,0
11,119999,62,110000,38,10000,40,9999,0.100000,0,0,0.000000,5,0.000000,0.000000,0.451035,0,0,0,0,0,0,0
11,119999,63,110000,17,10000,40,9999,0.100000,0,0,0.000000,5,0.000000,0.000000,0.642736,0,0,0,0,0,0,0
11,119999,64,110000,73,0,40,9999,0.100000,0,0,0.000000,5,0.000000,0.000000,0.096165,0,0,0,0,0,0,0
11,119999,65,110000,52,0,40,9999,0.100000,0,0,0.000000,5,0.000000,0.000000,0.274561,0,0,0,0,0,0,0
11,119999,66,110000,52,0,40,9999,0.100000,0,0,0.000000,5,0.000000,0.000000,0.116756,0,0,0,0,0,0,0
11,119999,67,110000,17,10000,49,9999,0.100000,0,0,0.000000,5,1.000000,0.000000,2.118536,0,0,0,0,0,0,0
11,119999,68,110000,91,20000,49,9999,0.100000,0,0,0.000000,5,1.000000,0.000000,6.277088,0,0,0,0,0,0,0
11,119999,69,110000,91,20000,40,9999,0.100000,0,0,0.000000,5,0.000000,0.000000,0.092824,0,0,0,0,0,0,0
11,119999,70,100000,91,20000,40,19999,0.100000,0,0,0.000000,5,0.000000,0.000000,0.645453,0,0,0,0,0,0,0
11,119999,71,100000,17,10000,40,19999,0.100000,0,0,0.000000,5,0.000000,0.000000,0.169395,0,0,0,0,0,0,0
11,119999,72,110000,73,0,40,9999,0.100000,0,0,0.000000,5,0.000000,0.000000,0.450332,0,0,0,0,0,0,0
11,119999,73,110000,52,0,40,9999,0.100000,0,0,0.000000,5,0.000000,0.000000,0.322841,0,0,0,0,0,0,0
11,119999,74,110000,52,0,40,9999,0.100000,0,0,0.000000,5,0.000000,0.000000,0.163864,0,0,0,0,0,0,0
11,119999,75,110000,52,0,40,9999,0.100000,0,0,0.000000,5,0.000000,0.000000,1.081292,0,0,0,0,0,0,0
11,119999,76,110000,91,20000,40,9999,0.100000,0,0,0.000000,5,0.000000,0.000000,0.160085,0,0,0,0,0,0,0
11,119999,77,110000,91,20000,40,9999,0.100000,0,0,0.000000,5,0.000000,0.000000,0.759213,0,0,0,0,0,0,0
11,119999,78,110000,17,10000,40,9999,0.100000,0,0,0.000000,5,0.000000,0.000000,0.489952,0,0,0,0,0,0,0
11,119999,79,110000,91,20000,40,9999,0.100000,0,0,0.000000,5,0.000000,0.000000,0.848298,0,0,0,0,0,0,0
11,119999,80,110000,91,20000,40,9999,0.100000,0,0,0.000000,5,0.000000,0.000000,0.291811,0,0,0,0,0,0,0
11,119999,81,110000,73,0,40,9999,0.100000,0,0,0.000000,5,0.000000,0.000000,0.100322,0,0,0,0,0,0,0
11,119999,82,110000,91,20000,40,9999,0.100000,0,0,0.000000,5,0.000000,0.000000,0.749915,0,0,0,0,0,0,0
11,119999,83,110000,38,10000,40,9999,0.100000,0,0,0.000000,5,0.000000,0.000000,2.532504,0,0,0,0,0,0,0
11,119999,84,110000,48,100000,40,9999,0.100000,0,0,0.000000,5,0.000000,0.000000,0.523772,0,0,0,0,0,0,0
11,119999,85,110000,38,10000,40,9999,0.100000,0,0,0.000000,5,0.000000,0.000000,0.116149,0,0,0,0,0,0,0
11,119999,86,110000,38,10000,40,9999,0.100000,0,0,0.000000,5,0.000000,0.000000,0.197266,0,0,0,0,0,0,0
11,119999,87,110000,73,0,40,9999,0.100000,0,0,0.000000,5,0.000000,0.000000,0.149085,0,0,0,0,0,0,0
11,119999,88,110000,52,0,49,9999,0.100000,0,0,0.000000,5,3.000000,0.000000,12.514848,0,0,0,0,0,0,0
11,119999,89,110000,91,20000,49,9999,0.100000,0,0,0.000000,5,3.000000,0.000000,10.981391,0,0,0,0,0,0,0
11,119999,90,110000,17,10000,40,9999,0.100000,0,0,0.000000,5,0.000000,0.000000,3.547400,0,0,0,0,0,0,0
11,119999,91,110000,52,0,40,9999,0.100000,0,0,0.000000,5,0.000000,0.000000,0.089900,0,0,0,0,0,0,0
11,119999,92,110000,17,10000,40,9999,0.100000,0,0,0.000000,5,0.000000,0.000000,0.744952,0,0,0,0,0,0,0
11,119999,93,110000,73,0,40,9999,0.100000,0,0,0.000000,5,0.000000,0.000000,0.511979,0,0,0,0,0,0,0
11,119999,94,110000,38,10000,40,9999,0.100000,0,0,0.000000,5,0.000000,0.000000,0.715983,0,0,0,0,0,0,0
11,119999,95,110000,38,10000,40,9999,0.100000,0,0,0.000000,5,0.000000,0.000000,0.074079,0,0,0,0,0,0,0
11,119999,96,110000,73,0,40,9999,0.100000,0,0,0.000000,5,0.000000,0.000000,1.147989,0,0,0,0,0,0,0
11,119999,97,110000,38,10000,40,9999,0.100000,0,0,0.000000,5,0.000000,0.000000,0.987850,0,0,0,0,0,0,0
11,119999,98,110000,52,0,40,9999,0.100000,0,0,0.000000,5,0.000000,0.000000,0.965838,0,0,0,0,0,0,0
11,119999,99,110000,17,10000,40,9999,0.100000,0,0,0.000000,5,0.000000,0.000000,0.152613,0,0,0,0,0,0,0
12,129999,0,120000,38,10000,40,9999,0.100000,0,0,0.000000,5,0.000000,0.000000,0.219941,0,0,0,0,0,0,0
12,129999,1,120000,73,0,40,9999,0.100000,0,0,0.000000,5,0.000000,0.000000,0.902561,0,0,0,0,0,0,0
12,129999,2,120000,38,10000,40,9999,0.100000,0,0,0.000000,5,0.000000,0.000000,2.299895,0,0,0,0,0,0,0
12,129999,3,120000,52,0,40,9999,0.100000,0,0,0.000000,5,0.000000,0.000000,0.147440,0,0,0,0,0,0,0
12,129999,4,120000,73,0,40,9999,0.100000,0,0,0.000000,5,0.000000,0.000000,2.545368,0,0,0,0,0,0,0
12,129999,5,120000,52,0,49,9999,0.100000,0,0,0.000000,5,2.000000,0.000000,16.200530,0,0,0,0,0,0,0
12,129999,6,120000,73,0,49,9999,0.100000,0,0,0.000000,5,1.000000,0.000000,4.878447,0,0,0,0,0,0,0
12,129999,7,120000,73,0,40,9999,0.100000,0,0,0.000000,5,0.000000,0.000000,0.178090,0,0,0,0,0,0,0
12,129999,8,120000,52,0,49,9999,0.100000,0,0,0.000000,5,1.000000,0.000000,1.841816,0,0,0,0,0,0,0
12,129999,9,110000,52,0,40,19999,0.100000,0,0,0.000000,5,0.000000,0.000000,0.139939,0,0,0,0,0,0,0
12,129999,10,120000,73,0,49,9999,0.100000,0,0,0.000000,5,2.000000,0.000000,3.580782,0,0,0,0,0,0,0
12,129999,11,120000,52,0,40,9999,0.100000,0,0,0.000000,5,0.000000,0.000000,0.739378,0,0,0,0,0,0,0
12,129999,12,120000,52,0,40,9999,0.100000,0,0,0.000000,5,0.000000,0.000000,22.888628,0,0,0,0,0,0,0
12,129999,13,120000,52,0,49,9999,0.100000,0,0,0.000000,5,1.000000,0.000000,1.687364,0,0,0,0,0,0,0
12,129999,14,120000,73,0,40,9999,0.100000,0,0,0.000000,5,0.000000,0.000000,0.101853,0,0,0,0,0,0,0
12,129999,15,120000,38,10000,40,9999,0.100000,0,0,0.000000,5,0.000000,0.000000,0.711731,0,0,0,0,0,0,0
12,129999,16,120000,38,10000,40,9999,0.100000,0,0,0.000000,5,0.000000,0.000000,0.009744,0,0,0,0,0,0,0
12,129999,17,120000,48,100000,40,9999,0.100000,0,0,0.000000,5,0.000000,0.000000,0.082236,0,0,0,0,0,0,0
12,129999,18,120000,38,10000,40,9999,0.100000,0,0,0.000000,5,0.000000,0.000000,0.084922,0,0,0,0,0,0,0
12,129999,19,120000,38,10000,49,9999,0.100000,0,0,0.000000,5,2.000000,0.000000,3.542807,0,0,0,0,0,0,0
12,129999,20,120000,73,0,40,9999,0.100000,0,0,0.000000,5,0.000000,0.000000,0.225631,0,0,0,0,0,0,0
12,129999,21,120000,38,10000,40,9999,0.100000,0,0,0.000000,5,0.000000,0.000000,0.795142,0,0,0,0,0,0,0
12,129999,22,120000,48,100000,40,9999,0.100000,0,0,0.000000,5,0.000000,0.000000,0.801381,0,0,0,0,0,0,0
12,129999,23,120000,48,100000,40,9999,0.100000,0,0,0.000000,5,0.000000,0.000000,0.196215,0,0,0,0,0,0,0
12,129999,24,120000,48,100000,40,9999,0.100000,0,0,0.000000,5,0.000000,0.000000,0.160122,0,0,0,0,0,0,0
12,129999,25,120000,73,0,40,9999,0.100000,0,0,0.000000,5,0.000000,0.000000,0.144410,0,0,0,0,0,0,0
12,129999,26,120000,17,10000,40,9999,0.100000,0,0,0.000000,5,0.000000,0.000000,0.185830,0,0,0,0,0,0,0
12,129999,27,120000,38,10000,40,9999,0.065000,0,0,0.000000,5,0.000000,0.000000,0.804670,0,0,0,0,0,0,0
12,129999,28,120000,48,100000,40,9999,0.100000,0,0,0.000000,5,0.000000,0.000000,3.164975,0,0,0,0,0,0,0
12,129999,29,120000,73,0,49,9999,0.100000,0,0,0.000000,5,3.000000,0.000000,3.853568,0,0,0,0,0,0,0
12,129999,30,120000,38,10000,40,9999,0.100000,0,0,0.000000,5,0.000000,0.000000,0.889070,0,0,0,0,0,0,0
12,129999,31,120000,17,10000,40,9999,0.100000,0,0,0.000000,5,0.000000,0.000000,0.181543,0,0,0,0,0,0,0
