generation,iteration,robot,birthday,ancestor_id,ancestor_birthday,cell_id,age,sigma,maps,genomes,fitness,cells_in_map,dist_max,dist_pot_max,dist_total,com_rx,com_tx,obj_group1,obj_group2,obj_group3,obj_group4,obj_group5
0,9999,0,0,0,0,49,9999,0.100000,0,0,0.000000,0,11.000000,0.000000,18.818151,0,0,0,0,0,0,0
0,9999,1,0,1,0,49,9999,0.100000,0,0,0.000000,0,10.000000,0.000000,15.097166,0,0,0,0,0,0,0
0,9999,2,0,2,0,49,9999,0.100000,0,0,0.000000,0,8.000000,0.000000,13.231544,0,0,0,0,0,0,0
0,9999,3,0,3,0,49,9999,0.100000,0,0,0.000000,0,5.000000,0.000000,10.094560,0,0,0,0,0,0,0
0,9999,4,0,4,0,49,9999,0.100000,0,0,0.000000,0,6.000000,0.000000,10.377599,0,0,0,0,0,0,0
0,9999,5,0,5,0,99,9999,0.100000,0,0,47.368421,0,10.000000,0.000000,15.941880,0,0,1,0,0,0,0
0,9999,6,0,6,0,49,9999,0.100000,0,0,0.000000,0,8.000000,0.000000,10.614585,0,0,0,0,0,0,0
0,9999,7,0,7,0,49,9999,0.100000,0,0,0.000000,0,8.000000,0.000000,9.145899,0,0,0,0,0,0,0
0,9999,8,0,8,0,49,9999,0.100000,0,0,0.000000,0,7.000000,0.000000,16.790342,0,0,0,0,0,0,0
0,9999,9,0,9,0,49,9999,0.100000,0,0,0.000000,0,7.000000,0.000000,14.054291,0,0,0,0,0,0,0
0,9999,10,0,10,0,49,9999,0.100000,0,0,0.000000,0,11.000000,0.000000,16.475200,0,0,0,0,0,0,0
0,9999,11,0,11,0,49,9999,0.100000,0,0,0.000000,0,9.000000,0.000000,12.608560,0,0,0,0,0,0,0
0,9999,12,0,12,0,49,9999,0.100000,0,0,0.000000,0,7.000000,0.000000,8.731920,0,0,0,0,0,0,0
0,9999,13,0,13,0,49,9999,0.100000,0,0,0.000000,0,9.000000,0.000000,22.583585,0,0,0,0,0,0,0
0,9999,14,0,14,0,49,9999,0.100000,0,0,0.000000,0,5.000000,0.000000,16.638927,0,0,0,0,0,0,0
0,9999,15,0,15,0,49,9999,0.100000,0,0,0.000000,0,9.000000,0.000000,27.750910,0,0,0,0,0,0,0
0,9999,16,0,16,0,49,9999,0.100000,0,0,0.000000,0,4.000000,0.000000,6.048226,0,0,0,0,0,0,0
0,9999,17,0,17,0,49,9999,0.100000,0,0,0.000000,0,5.000000,0.000000,12.049262,0,0,0,0,0,0,0
0,9999,18,0,18,0,49,9999,0.100000,0,0,0.000000,0,4.000000,0.000000,14.484830,0,0,0,0,0,0,0
0,9999,19,0,19,0,49,9999,0.100000,0,0,0.000000,0,4.000000,0.000000,5.605744,0,0,0,0,0,0,0
0,9999,20,0,20,0,49,9999,0.100000,0,0,0.000000,0,9.000000,0.000000,24.169195,0,0,0,0,0,0,0
0,9999,21,0,21,0,49,9999,0.100000,0,0,0.000000,0,6.000000,0.000000,11.286988,0,0,0,0,0,0,0
0,9999,22,0,22,0,49,9999,0.100000,0,0,0.000000,0,7.000000,0.000000,11.268311,0,0,0,0,0,0,0
0,9999,23,0,23,0,49,9999,0.100000,0,0,0.000000,0,4.000000,0.000000,5.808891,0,0,0,0,0,0,0
0,9999,24,0,24,0,49,9999,0.100000,0,0,0.000000,0,6.000000,0.000000,6.682862,0,0,0,0,0,0,0
0,9999,25,0,25,0,49,9999,0.100000,0,0,0.000000,0,11.000000,0.000000,17.384437,0,0,0,0,0,0,0
0,9999,26,0,26,0,49,9999,0.100000,0,0,0.000000,0,10.000000,0.000000,17.886855,0,0,0,0,0,0,0
0,9999,27,0,27,0,49,9999,0.100000,0,0,0.000000,0,7.000000,0.000000,11.696574,0,0,0,0,0,0,0
0,9999,28,0,28,0,49,9999,0.100000,0,0,0.000000,0,8.000000,0.000000,16.831287,0,0,0,0,0,0,0
0,9999,29,0,29,0,49,9999,0.100000,0,0,0.000000,0,6.000000,0.000000,10.100685,0,0,0,0,0,0,0
0,9999,30,0,30,0,49,9999,0.100000,0,0,0.000000,0,8.000000,0.000000,25.627618,0,0,0,0,0,0,0
0,9999,31,0,31,0,99,9999,0.100000,0,0,47.368421,0,9.000000,0.000000,27.663728,0,0,1,0,0,0,0
0,9999,32,0,32,0,49,9999,0.100000,0,0,0.000000,0,8.000000,0.000000,13.471756,0,0,0,0,0,0,0
0,9999,33,0,33,0,49,9999,0.100000,0,0,0.000000,0,7.000000,0.000000,9.542753,0,0,0,0,0,0,0
0,9999,34,0,34,0,49,9999,0.100000,0,0,0.000000,0,4.000000,0.000000,5.048400,0,0,0,0,0,0,0
0,9999,35,0,35,0,49,9999,0.100000,0,0,0.000000,0,6.000000,0.000000,17.508547,0,0,0,0,0,0,0
0,9999,36,0,36,0,49,9999,0.100000,0,0,0.000000,0,11.000000,0.000000,18.036486,0,0,0,0,0,0,0
0,9999,37,0,37,0,49,9999,0.100000,0,0,0.000000,0,6.000000,0.000000,10.463119,0,0,0,0,0,0,0
0,9999,38,0,38,0,49,9999,0.100000,0,0,0.000000,0,11.000000,0.000000,13.212317,0,0,0,0,0,0,0
0,9999,39,0,39,0,49,9999,0.100000,0,0,0.000000,0,3.000000,0.000000,7.385014,0,0,0,0,0,0,0
0,9999,40,0,40,0,49,9999,0.100000,0,0,0.000000,0,5.000000,0.000000,11.328210,0,0,0,0,0,0,0
0,9999,41,0,41,0,49,9999,0.100000,0,0,0.000000,0,6.000000,0.000000,25.646544,0,0,0,0,0,0,0
0,9999,42,0,42,0,49,9999,0.100000,0,0,0.000000,0,8.000000,0.000000,11.188350,0,0,0,0,0,0,0
0,9999,43,0,43,0,49,9999,0.100000,0,0,0.000000,0,10.000000,0.000000,23.701481,0,0,0,0,0,0,0
0,9999,44,0,44,0,49,9999,0.100000,0,0,0.000000,0,9.000000,0.000000,15.671858,0,0,0,0,0,0,0
0,9999,45,0,45,0,49,9999,0.100000,0,0,0.000000,0,6.000000,0.000000,15.434539,0,0,0,0,0,0,0
0,9999,46,0,46,0,49,9999,0.100000,0,0,0.000000,0,7.000000,0.000000,7.730348,0,0,0,0,0,0,0
0,9999,47,0,47,0,49,9999,0.100000,0,0,0.000000,0,9.000000,0.000000,13.474478,0,0,0,0,0,0,0
0,9999,48,0,48,0,9,9999,0.100000,0,0,47.368421,0,9.000000,0.000000,20.862954,0,0,0,1,0,0,0
0,9999,49,0,49,0,49,9999,0.100000,0,0,0.000000,0,8.000000,0.000000,12.187712,0,0,0,0,0,0,0
0,9999,50,0,50,0,49,9999,0.100000,0,0,0.000000,0,10.000000,0.000000,12.708242,0,0,0,0,0,0,0
0,9999,51,0,51,0,49,9999,0.100000,0,0,0.000000,0,10.000000,0.000000,20.177471,0,0,0,0,0,0,0
0,9999,52,0,52,0,49,9999,0.100000,0,0,0.000000,0,6.000000,0.000000,10.143208,0,0,0,0,0,0,0
0,9999,53,0,53,0,49,9999,0.100000,0,0,0.000000,0,8.000000,0.000000,13.180771,0,0,0,0,0,0,0
0,9999,54,0,54,0,49,9999,0.100000,0,0,0.000000,0,6.000000,0.000000,18.146681,0,0,0,0,0,0,0
0,9999,55,0,55,0,49,9999,0.100000,0,0,0.000000,0,9.000000,0.000000,17.103264,0,0,0,0,0,0,0
0,9999,56,0,56,0,49,9999,0.100000,0,0,0.000000,0,8.000000,0.000000,8.762151,0,0,0,0,0,0,0
0,9999,57,0,57,0,49,9999,0.100000,0,0,0.000000,0,9.000000,0.000000,11.492843,0,0,0,0,0,0,0
0,9999,58,0,58,0,9,9999,0.100000,0,0,47.368421,0,9.000000,0.000000,18.455259,0,0,0,1,0,0,0
0,9999,59,0,59,0,49,9999,0.100000,0,0,0.000000,0,10.000000,0.000000,22.300674,0,0,0,0,0,0,0
0,9999,60,0,60,0,49,9999,0.100000,0,0,0.000000,0,15.000000,0.000000,42.148639,0,0,0,0,0,0,0
0,9999,61,0,61,0,49,9999,0.100000,0,0,0.000000,0,10.000000,0.000000,24.745340,0,0,0,0,0,0,0
0,9999,62,0,62,0,49,9999,0.100000,0,0,0.000000,0,7.000000,0.000000,17.195595,0,0,0,0,0,0,0
0,9999,63,0,63,0,99,9999,0.100000,0,0,47.368421,0,9.000000,0.000000,15.408687,0,0,1,0,0,0,0
0,9999,64,0,64,0,49,9999,0.100000,0,0,0.000000,0,10.000000,0.000000,24.173816,0,0,0,0,0,0,0
0,9999,65,0,65,0,49,9999,0.100000,0,0,0.000000,0,4.000000,0.000000,14.355855,0,0,0,0,0,0,0
0,9999,66,0,66,0,49,9999,0.100000,0,0,0.000000,0,10.000000,0.000000,21.011548,0,0,0,0,0,0,0
0,9999,67,0,67,0,49,9999,0.100000,0,0,0.000000,0,7.000000,0.000000,7.986166,0,0,0,0,0,0,0
0,9999,68,0,68,0,49,9999,0.100000,0,0,0.000000,0,8.000000,0.000000,15.043255,0,0,0,0,0,0,0
0,9999,69,0,69,0,49,9999,0.100000,0,0,0.000000,0,6.000000,0.000000,10.516883,0,0,0,0,0,0,0
0,9999,70,0,70,0,49,9999,0.100000,0,0,0.000000,0,4.000000,0.000000,11.723842,0,0,0,0,0,0,0
0,9999,71,0,71,0,49,9999,0.100000,0,0,0.000000,0,8.000000,0.000000,15.793791,0,0,0,0,0,0,0
0,9999,72,0,72,0,49,9999,0.100000,0,0,0.000000,0,6.000000,0.000000,14.427456,0,0,0,0,0,0,0
0,9999,73,0,73,0,49,9999,0.100000,0,0,0.000000,0,3.000000,0.000000,5.125828,0,0,0,0,0,0,0
0,9999,74,0,74,0,49,9999,0.100000,0,0,0.000000,0,9.000000,0.000000,20.609946,0,0,0,0,0,0,0
0,9999,75,0,75,0,49,9999,0.100000,0,0,0.000000,0,7.000000,0.000000,34.537221,0,0,0,0,0,0,0
0,9999,76,0,76,0,49,9999,0.100000,0,0,0.000000,0,7.000000,0.000000,18.254600,0,0,0,0,0,0,0
0,9999,77,0,77,0,49,9999,0.100000,0,0,0.000000,0,10.000000,0.000000,16.696999,0,0,0,0,0,0,0
0,9999,78,0,78,0,49,9999,0.100000,0,0,0.000000,0,10.000000,0.000000,17.454002,0,0,0,0,0,0,0
0,9999,79,0,79,0,49,9999,0.100000,0,0,0.000000,0,13.000000,0.000000,19.451164,0,0,0,0,0,0,0
0,9999,80,0,80,0,49,9999,0.100000,0,0,0.000000,0,8.000000,0.000000,10.007950,0,0,0,0,0,0,0
0,9999,81,0,81,0,49,9999,0.100000,0,0,0.000000,0,6.000000,0.000000,10.555661,0,0,0,0,0,0,0
0,9999,82,0,82,0,49,9999,0.100000,0,0,0.000000,0,3.000000,0.000000,8.131962,0,0,0,0,0,0,0
0,9999,83,0,83,0,49,9999,0.100000,0,0,0.000000,0,5.000000,0.000000,21.457768,0,0,0,0,0,0,0
0,9999,84,0,84,0,49,9999,0.100000,0,0,0.000000,0,5.000000,0.000000,25.922532,0,0,0,0,0,0,0
0,9999,85,0,85,0,49,9999,0.100000,0,0,0.000000,0,10.000000,0.000000,30.010037,0,0,0,0,0,0,0
0,9999,86,0,86,0,49,9999,0.100000,0,0,0.000000,0,10.000000,0.000000,17.271848,0,0,0,0,0,0,0
0,9999,87,0,87,0,49,9999,0.100000,0,0,0.000000,0,9.000000,0.000000,13.517095,0,0,0,0,0,0,0
0,9999,88,0,88,0,49,9999,0.100000,0,0,0.000000,0,11.000000,0.000000,17.130454,0,0,0,0,0,0,0
0,9999,89,0,89,0,49,9999,0.100000,0,0,0.000000,0,5.000000,0.000000,8.298348,0,0,0,0,0,0,0
0,9999,90,0,90,0,49,9999,0.100000,0,0,0.000000,0,11.000000,0.000000,15.620420,0,0,0,0,0,0,0
0,9999,91,0,91,0,49,9999,0.100000,0,0,0.000000,0,10.000000,0.000000,25.382888,0,0,0,0,0,0,0
0,9999,92,0,92,0,49,9999,0.100000,0,0,0.000000,0,6.000000,0.000000,8.477169,0,0,0,0,0,0,0
0,9999,93,0,93,0,49,9999,0.100000,0,0,0.000000,0,10.000000,0.000000,10.631086,0,0,0,0,0,0,0
0,9999,94,0,94,0,49,9999,0.100000,0,0,0.000000,0,7.000000,0.000000,15.111251,0,0,0,0,0,0,0
0,9999,95,0,95,0,49,9999,0.100000,0,0,0.000000,0,5.000000,0.000000,11.007459,0,0,0,0,0,0,0
0,9999,96,0,96,0,49,9999,0.100000,0,0,0.000000,0,6.000000,0.000000,13.652529,0,0,0,0,0,0,0
0,9999,97,0,97,0,99,9999,0.100000,0,0,47.368421,0,9.000000,0.000000,21.229904,0,0,1,0,0,0,0
0,9999,98,0,98,0,49,9999,0.100000,0,0,0.000000,0,8.000000,0.000000,14.385002,0,0,0,0,0,0,0
0,9999,99,0,99,0,49,9999,0.100000,0,0,0.000000,0,4.000000,0.000000,8.003486,0,0,0,0,0,0,0
1,19999,0,10000,6,0,40,9999,0.100000,0,0,0.000000,3,0.000000,0.000000,0.375480,0,0,0,0,0,0,0
1,19999,1,10000,25,0,49,9999,0.100000,0,0,0.000000,3,1.000000,0.000000,1.817799,0,0,0,0,0,0,0
1,19999,2,10000,5,0,49,9999,0.100000,0,0,0.000000,3,2.000000,0.000000,17.325718,0,0,0,0,0,0,0
1,19999,3,10000,5,0,49,9999,0.100000,0,0,0.000000,3,2.000000,0.000000,24.435851,0,0,0,0,0,0,0
1,19999,4,10000,10,0,40,9999,0.100000,0,0,0.000000,2,0.000000,0.000000,0.464064,0,0,0,0,0,0,0
1,19999,5,10000,10,0,40,9999,0.100000,0,0,0.000000,2,0.000000,0.000000,0.216634,0,0,0,0,0,0,0
1,19999,6,10000,6,0,40,9999,0.100000,0,0,0.000000,3,0.000000,0.000000,0.618139,0,0,0,0,0,0,0
1,19999,7,10000,6,0,40,9999,0.100000,0,0,0.000000,3,0.000000,0.000000,0.878877,0,0,0,0,0,0,0
1,19999,8,10000,25,0,49,9999,0.100000,0,0,0.000000,3,1.000000,0.000000,7.015818,0,0,0,0,0,0,0
1,19999,9,10000,63,0,40,9999,0.100000,0,0,0.000000,3,0.000000,0.000000,3.639581,0,0,0,0,0,0,0
1,19999,10,10000,10,0,40,9999,0.100000,0,0,0.000000,1,0.000000,0.000000,1.404865,0,0,0,0,0,0,0
1,19999,11,10000,6,0,40,9999,0.100000,0,0,0.000000,3,0.000000,0.000000,0.190290,0,0,0,0,0,0,0
1,19999,12,10000,5,0,40,9999,0.100000,0,0,0.000000,3,0.000000,0.000000,0.852862,0,0,0,0,0,0,0
1,19999,13,10000,6,0,49,9999,0.100000,0,0,0.000000,3,2.000000,0.000000,7.538751,0,0,0,0,0,0,0
1,19999,14,10000,25,0,49,9999,0.100000,0,0,0.000000,3,3.000000,0.000000,7.483083,0,0,0,0,0,0,0
1,19999,15,10000,6,0,49,9999,0.100000,0,0,0.000000,3,1.000000,0.000000,5.383138,0,0,0,0,0,0,0
1,19999,16,10000,63,0,40,9999,0.100000,0,0,0.000000,3,0.000000,0.000000,0.294873,0,0,0,0,0,0,0
1,19999,17,10000,38,0,49,9999,0.100000,0,0,0.000000,3,1.000000,0.000000,15.739148,0,0,0,0,0,0,0
1,19999,18,10000,38,0,40,9999,0.100000,0,0,0.000000,3,0.000000,0.000000,0.271657,0,0,0,0,0,0,0
1,19999,19,10000,5,0,49,9999,0.100000,0,0,0.000000,3,1.000000,0.000000,1.642566,0,0,0,0,0,0,0
1,19999,20,10000,38,0,40,9999,0.100000,0,0,0.000000,3,0.000000,0.000000,0.669458,0,0,0,0,0,0,0
1,19999,21,10000,25,0,49,9999,0.100000,0,0,0.000000,3,3.000000,0.000000,16.066931,0,0,0,0,0,0,0
1,19999,22,10000,38,0,40,9999,0.100000,0,0,0.000000,3,0.000000,0.000000,0.608411,0,0,0,0,0,0,0
1,19999,23,10000,6,0,40,9999,0.100000,0,0,0.000000,3,0.000000,0.000000,0.086804,0,0,0,0,0,0,0
1,19999,24,10000,25,0,40,9999,0.100000,0,0,0.000000,3,0.000000,0.000000,0.193067,0,0,0,0,0,0,0
1,19999,25,10000,63,0,49,9999,0.100000,0,0,0.000000,3,1.000000,0.000000,7.632889,0,0,0,0,0,0,0
1,19999,26,10000,5,0,40,9999,0.100000,0,0,0.000000,3,0.000000,0.000000,1.955884,0,0,0,0,0,0,0
1,19999,27,10000,5,0,49,9999,0.100000,0,0,0.000000,3,1.000000,0.000000,2.629136,0,0,0,0,0,0,0
1,19999,28,10000,63,0,49,9999,0.100000,0,0,0.000000,3,4.000000,0.000000,11.813826,0,0,0,0,0,0,0
1,19999,29,10000,63,0,40,9999,0.100000,0,0,0.000000,3,0.000000,0.000000,4.508656,0,0,0,0,0,0,0
1,19999,30,10000,6,0,49,9999,0.100000,0,0,0.000000,3,1.000000,0.000000,24.102337,0,0,0,0,0,0,0
1,19999,31,10000,63,0,49,9999,0.100000,0,0,0.000000,3,5.000000,0.000000,15.805184,0,0,0,0,0,0,0
1,19999,32,10000,25,0,40,9999,0.100000,0,0,0.000000,3,0.000000,0.000000,1.707977,0,0,0,0,0,0,0
1,19999,33,10000,38,0,40,9999,0.100000,0,0,0.000000,3,0.000000,0.000000,0.439154,0,0,0,0,0,0,0
1,19999,34,10000,5,0,40,9999,0.100000,0,0,0.000000,3,0.000000,0.000000,1.761557,0,0,0,0,0,0,0
1,19999,35,10000,5,0,49,9999,0.100000,0,0,0.000000,3,2.000000,0.000000,23.355828,0,0,0,0,0,0,0
1,19999,36,10000,5,0,40,9999,0.100000,0,0,0.000000,3,0.000000,0.000000,9.196100,0,0,0,0,0,0,0
1,19999,37,10000,38,0,49,9999,0.100000,0,0,0.000000,3,3.000000,0.000000,12.944367,0,0,0,0,0,0,0
1,19999,38,10000,38,0,40,9999,0.100000,0,0,0.000000,3,0.000000,0.000000,1.097362,0,0,0,0,0,0,0
1,19999,39,10000,10,0,40,9999,0.100000,0,0,0.000000,3,0.000000,0.000000,0.288159,0,0,0,0,0,0,0
1,19999,40,10000,25,0,49,9999,0.100000,0,0,0.000000,3,1.000000,0.000000,13.079839,0,0,0,0,0,0,0
1,19999,41,10000,38,0,49,9999,0.100000,0,0,0.000000,3,1.000000,0.000000,12.471725,0,0,0,0,0,0,0
1,19999,42,10000,63,0,40,9999,0.100000,0,0,0.000000,3,0.000000,0.000000,0.409443,0,0,0,0,0,0,0
1,19999,43,10000,63,0,40,9999,0.100000,0,0,0.000000,3,0.000000,0.000000,1.376765,0,0,0,0,0,0,0
1,19999,44,10000,38,0,49,9999,0.100000,0,0,0.000000,3,1.000000,0.000000,5.945026,0,0,0,0,0,0,0
1,19999,45,10000,38,0,40,9999,0.100000,0,0,0.000000,3,0.000000,0.000000,0.454037,0,0,0,0,0,0,0
1,19999,46,10000,5,0,40,9999,0.100000,0,0,0.000000,3,0.000000,0.000000,0.498591,0,0,0,0,0,0,0
1,19999,47,10000,63,0,40,9999,0.100000,0,0,0.000000,3,0.000000,0.000000,0.612916,0,0,0,0,0,0,0
1,19999,48,10000,5,0,99,9999,0.100000,0,0,34.210526,3,1.000000,0.000000,12.677269,0,0,1,0,0,0,0
1,19999,49,10000,38,0,40,9999,0.100000,0,0,0.000000,3,0.000000,0.000000,1.733474,0,0,0,0,0,0,0
1,19999,50,10000,38,0,49,9999,0.100000,0,0,0.000000,3,3.000000,0.000000,16.455190,0,0,0,0,0,0,0
1,19999,51,10000,5,0,49,9999,0.100000,0,0,0.000000,3,1.000000,0.000000,2.592337,0,0,0,0,0,0,0
1,19999,52,10000,38,0,49,9999,0.100000,0,0,0.000000,3,3.000000,0.000000,11.400727,0,0,0,0,0,0,0
1,19999,53,10000,38,0,49,9999,0.100000,0,0,0.000000,3,1.000000,0.000000,4.453180,0,0,0,0,0,0,0
1,19999,54,10000,26,0,49,9999,0.100000,0,0,0.000000,3,3.000000,0.000000,10.535292,0,0,0,0,0,0,0
1,19999,55,10000,63,0,49,9999,0.100000,0,0,0.000000,3,1.000000,0.000000,1.886632,0,0,0,0,0,0,0
1,19999,56,10000,25,0,40,9999,0.100000,0,0,0.000000,3,0.000000,0.000000,1.555663,0,0,0,0,0,0,0
1,19999,57,10000,38,0,40,9999,0.100000,0,0,0.000000,3,0.000000,0.000000,3.807767,0,0,0,0,0,0,0
1,19999,58,10000,25,0,49,9999,0.100000,0,0,0.000000,3,5.000000,0.000000,7.505290,0,0,0,0,0,0,0
1,19999,59,10000,6,0,49,9999,0.100000,0,0,0.000000,3,1.000000,0.000000,10.825608,0,0,0,0,0,0,0
1,19999,60,10000,5,0,49,9999,0.100000,0,0,0.000000,3,7.000000,0.000000,18.160398,0,0,0,0,0,0,0
1,19999,61,10000,5,0,49,9999,0.100000,0,0,0.000000,3,2.000000,0.000000,4.377579,0,0,0,0,0,0,0
1,19999,62,10000,38,0,40,9999,0.100000,0,0,0.000000,3,0.000000,0.000000,0.580010,0,0,0,0,0,0,0
1,19999,63,10000,38,0,40,9999,0.100000,0,0,0.000000,3,0.000000,0.000000,0.089776,0,0,0,0,0,0,0
1,19999,64,10000,38,0,40,9999,0.100000,0,0,0.000000,3,0.000000,0.000000,1.076589,0,0,0,0,0,0,0
1,19999,65,10000,5,0,40,9999,0.100000,0,0,0.000000,3,0.000000,0.000000,2.127161,0,0,0,0,0,0,0
1,19999,66,10000,63,0,49,9999,0.100000,0,0,0.000000,3,2.000000,0.000000,11.998837,0,0,0,0,0,0,0
1,19999,67,10000,38,0,40,9999,0.100000,0,0,0.000000,3,0.000000,0.000000,0.141571,0,0,0,0,0,0,0
1,19999,68,10000,38,0,40,9999,0.100000,0,0,0.000000,3,0.000000,0.000000,6.117162,0,0,0,0,0,0,0
1,19999,69,10000,5,0,49,9999,0.100000,0,0,0.000000,3,2.000000,0.000000,9.689130,0,0,0,0,0,0,0
1,19999,70,10000,38,0,40,9999,0.100000,0,0,0.000000,3,0.000000,0.000000,0.257320,0,0,0,0,0,0,0
1,19999,71,10000,38,0,40,9999,0.100000,0,0,0.000000,3,0.000000,0.000000,3.925243,0,0,0,0,0,0,0
1,19999,72,10000,38,0,49,9999,0.100000,0,0,0.000000,3,4.000000,0.000000,15.676531,0,0,0,0,0,0,0
1,19999,73,10000,38,0,40,9999,0.100000,0,0,0.000000,3,0.000000,0.000000,0.409993,0,0,0,0,0,0,0
1,19999,74,10000,25,0,49,9999,0.100000,0,0,0.000000,3,1.000000,0.000000,1.093947,0,0,0,0,0,0,0
1,19999,75,10000,63,0,49,9999,0.100000,0,0,0.000000,3,3.000000,0.000000,10.842230,0,0,0,0,0,0,0
1,19999,76,10000,38,0,40,9999,0.100000,0,0,0.000000,3,0.000000,0.000000,0.301111,0,0,0,0,0,0,0
1,19999,77,10000,10,0,40,9999,0.100000,0,0,0.000000,2,0.000000,0.000000,2.776884,0,0,0,0,0,0,0
1,19999,78,10000,25,0,40,9999,0.100000,0,0,0.000000,3,0.000000,0.000000,3.610419,0,0,0,0,0,0,0
1,19999,79,10000,63,0,49,9999,0.100000,0,0,0.000000,3,6.000000,0.000000,8.073146,0,0,0,0,0,0,0
1,19999,80,10000,63,0,40,9999,0.100000,0,0,0.000000,3,0.000000,0.000000,2.592709,0,0,0,0,0,0,0
1,19999,81,10000,5,0,49,9999,0.100000,0,0,0.000000,3,1.000000,0.000000,2.592998,0,0,0,0,0,0,0
1,19999,82,10000,38,0,40,9999,0.100000,0,0,0.000000,3,0.000000,0.000000,1.880799,0,0,0,0,0,0,0
1,19999,83,10000,63,0,49,9999,0.100000,0,0,0.000000,3,1.000000,0.000000,12.951871,0,0,0,0,0,0,0
1,19999,84,10000,25,0,49,9999,0.100000,0,0,0.000000,3,1.000000,0.000000,11.461475,0,0,0,0,0,0,0
1,19999,85,10000,38,0,40,9999,0.100000,0,0,0.000000,3,0.000000,0.000000,1.543366,0,0,0,0,0,0,0
1,19999,86,10000,5,0,40,9999,0.100000,0,0,0.000000,3,0.000000,0.000000,5.485984,0,0,0,0,0,0,0
1,19999,87,10000,38,0,40,9999,0.100000,0,0,0.000000,3,0.000000,0.000000,0.125429,0,0,0,0,0,0,0
1,19999,88,10000,38,0,49,9999,0.100000,0,0,0.000000,3,3.000000,0.000000,13.505301,0,0,0,0,0,0,0
1,19999,89,10000,38,0,49,9999,0.100000,0,0,0.000000,3,4.000000,0.000000,7.762438,0,0,0,0,0,0,0
1,19999,90,10000,38,0,40,9999,0.100000,0,0,0.000000,3,0.000000,0.000000,1.505789,0,0,0,0,0,0,0
1,19999,91,0,91,0,49,19999,0.100000,0,0,0.000000,3,1.000000,0.000000,1.826880,0,0,0,0,0,0,0
1,19999,92,10000,25,0,40,9999,0.100000,0,0,0.000000,3,0.000000,0.000000,0.980904,0,0,0,0,0,0,0
1,19999,93,10000,25,0,40,9999,0.100000,0,0,0.000000,3,0.000000,0.000000,0.102335,0,0,0,0,0,0,0
1,19999,94,10000,38,0,49,9999,0.100000,0,0,0.000000,3,3.000000,0.000000,4.096756,0,0,0,0,0,0,0
1,19999,95,10000,6,0,49,9999,0.100000,0,0,0.000000,3,1.000000,0.000000,2.539969,0,0,0,0,0,0,0
1,19999,96,10000,38,0,49,9999,0.100000,0,0,0.000000,3,4.000000,0.000000,7.602604,0,0,0,0,0,0,0
1,19999,97,10000,25,0,40,9999,0.100000,0,0,0.000000,3,0.000000,0.000000,2.607223,0,0,0,0,0,0,0
1,19999,98,10000,6,0,49,9999,0.100000,0,0,0.000000,3,1.000000,0.000000,6.663834,0,0,0,0,0,0,0
1,19999,99,10000,25,0,49,9999,0.100000,0,0,0.000000,3,1.000000,0.000000,8.118841,0,0,0,0,0,0,0
2,29999,0,20000,25,0,49,9999,0.100000,0,0,0.000000,5,1.000000,0.000000,1.930168,0,0,0,0,0,0,0
2,29999,1,20000,63,0,40,9999,0.100000,0,0,0.000000,5,0.000000,0.000000,0.239241,0,0,0,0,0,0,0
2,29999,2,20000,6,10000,40,9999,0.100000,0,0,0.000000,5,0.000000,0.000000,0.632778,0,0,0,0,0,0,0
2,29999,3,20000,63,0,49,9999,0.100000,0,0,0.000000,4,2.000000,0.000000,11.720248,0,0,0,0,0,0,0
2,29999,4,20000,63,0,40,9999,0.100000,0,0,0.000000,5,0.000000,0.000000,0.312412,0,0,0,0,0,0,0
2,29999,5,20000,6,10000,49,9999,0.100000,0,0,0.000000,5,2.000000,0.000000,2.403444,0,0,0,0,0,0,0
2,29999,6,20000,6,10000,40,9999,0.100000,0,0,0.000000,4,0.000000,0.000000,0.969165,0,0,0,0,0,0,0
2,29999,7,20000,38,10000,49,9999,0.100000,0,0,0.000000,5,1.000000,0.000000,3.020631,0,0,0,0,0,0,0
2,29999,8,20000,63,0,40,9999,0.100000,0,0,0.000000,5,0.000000,0.000000,1.022033,0,0,0,0,0,0,0
2,29999,9,20000,38,10000,49,9999,0.100000,0,0,0.000000,5,1.000000,0.000000,3.844451,0,0,0,0,0,0,0
2,29999,10,20000,63,0,40,9999,0.100000,0,0,0.000000,5,0.000000,0.000000,1.279050,0,0,0,0,0,0,0
2,29999,11,20000,38,0,40,9999,0.100000,0,0,0.000000,5,0.000000,0.000000,0.180502,0,0,0,0,0,0,0
2,29999,12,20000,25,0,40,9999,0.100000,0,0,0.000000,5,0.000000,0.000000,0.945670,0,0,0,0,0,0,0
2,29999,13,20000,25,0,49,9999,0.100000,0,0,0.000000,5,2.000000,0.000000,3.610135,0,0,0,0,0,0,0
2,29999,14,20000,63,0,40,9999,0.100000,0,0,0.000000,5,0.000000,0.000000,2.098332,0,0,0,0,0,0,0
2,29999,15,20000,25,0,49,9999,0.100000,0,0,0.000000,5,1.000000,0.000000,3.130843,0,0,0,0,0,0,0
2,29999,16,20000,63,0,40,9999,0.100000,0,0,0.000000,5,0.000000,0.000000,0.085857,0,0,0,0,0,0,0
2,29999,17,20000,38,0,49,9999,0.100000,0,0,0.000000,5,2.000000,0.000000,8.536227,0,0,0,0,0,0,0
2,29999,18,20000,6,10000,40,9999,0.100000,0,0,0.000000,5,0.000000,0.000000,0.448618,0,0,0,0,0,0,0
2,29999,19,20000,63,0,49,9999,0.100000,0,0,0.000000,5,1.000000,0.000000,1.788932,0,0,0,0,0,0,0
2,29999,20,20000,6,10000,40,9999,0.100000,0,0,0.000000,5,0.000000,0.000000,0.414015,0,0,0,0,0,0,0
2,29999,21,20000,63,0,40,9999,0.100000,0,0,0.000000,5,0.000000,0.000000,0.836007,0,0,0,0,0,0,0
2,29999,22,20000,38,10000,40,9999,0.100000,0,0,0.000000,5,0.000000,0.000000,0.242380,0,0,0,0,0,0,0
2,29999,23,20000,6,10000,40,9999,0.100000,0,0,0.000000,5,0.000000,0.000000,0.078868,0,0,0,0,0,0,0
2,29999,24,20000,25,0,40,9999,0.100000,0,0,0.000000,5,0.000000,0.000000,0.195398,0,0,0,0,0,0,0
2,29999,25,20000,63,0,49,9999,0.100000,0,0,0.000000,5,8.000000,0.000000,15.956828,0,0,0,0,0,0,0
2,29999,26,20000,6,10000,40,9999,0.100000,0,0,0.000000,4,0.000000,0.000000,1.681138,0,0,0,0,0,0,0
2,29999,27,20000,38,10000,40,9999,0.100000,0,0,0.000000,5,0.000000,0.000000,1.563715,0,0,0,0,0,0,0
2,29999,28,20000,6,10000,49,9999,0.100000,0,0,0.000000,5,1.000000,0.000000,3.825332,0,0,0,0,0,0,0
2,29999,29,20000,25,0,49,9999,0.100000,0,0,0.000000,5,1.000000,0.000000,6.886139,0,0,0,0,0,0,0
2,29999,30,20000,63,0,40,9999,0.100000,0,0,0.000000,4,0.000000,0.000000,13.642484,0,0,0,0,0,0,0
2,29999,31,20000,38,0,40,9999,0.100000,0,0,0.000000,5,0.000000,0.000000,7.759236,0,0,0,0,0,0,0
2,29999,32,20000,25,0,40,9999,0.100000,0,0,0.000000,4,0.000000,0.000000,0.897483,0,0,0,0,0,0,0
2,29999,33,20000,38,0,40,9999,0.100000,0,0,0.000000,5,0.000000,0.000000,0.774985,0,0,0,0,0,0,0
2,29999,34,20000,25,0,40,9999,0.100000,0,0,0.000000,5,0.000000,0.000000,2.064387,0,0,0,0,0,0,0
2,29999,35,20000,63,0,49,9999,0.100000,0,0,0.000000,5,1.000000,0.000000,16.821100,0,0,0,0,0,0,0
2,29999,36,20000,25,0,49,9999,0.100000,0,0,0.000000,5,1.000000,0.000000,2.121007,0,0,0,0,0,0,0
2,29999,37,20000,63,0,49,9999,0.100000,0,0,0.000000,5,3.000000,0.000000,16.633682,0,0,0,0,0,0,0
2,29999,38,20000,25,0,40,9999,0.100000,0,0,0.000000,5,0.000000,0.000000,0.932553,0,0,0,0,0,0,0
2,29999,39,20000,20,10000,40,9999,0.100000,0,0,0.000000,5,0.000000,0.000000,0.258272,0,0,0,0,0,0,0
2,29999,40,20000,63,0,40,9999,0.100000,0,0,0.000000,5,0.000000,0.000000,10.755508,0,0,0,0,0,0,0
2,29999,41,20000,25,0,40,9999,0.100000,0,0,0.000000,5,0.000000,0.000000,0.098243,0,0,0,0,0,0,0
2,29999,42,20000,63,0,40,9999,0.100000,0,0,0.000000,5,0.000000,0.000000,0.732422,0,0,0,0,0,0,0
2,29999,43,20000,25,0,40,9999,0.100000,0,0,0.000000,5,0.000000,0.000000,1.553407,0,0,0,0,0,0,0
2,29999,44,20000,38,10000,40,9999,0.100000,0,0,0.000000,5,0.000000,0.000000,8.770418,0,0,0,0,0,0,0
2,29999,45,20000,38,10000,40,9999,0.100000,0,0,0.000000,5,0.000000,0.000000,1.047018,0,0,0,0,0,0,0
2,29999,46,20000,63,0,49,9999,0.100000,0,0,0.000000,5,1.000000,0.000000,1.948194,0,0,0,0,0,0,0
2,29999,47,20000,25,0,40,9999,0.100000,0,0,0.000000,5,0.000000,0.000000,0.945533,0,0,0,0,0,0,0
2,29999,48,20000,38,0,40,9999,0.100000,0,0,0.000000,5,0.000000,0.000000,0.243086,0,0,0,0,0,0,0
2,29999,49,20000,63,0,49,9999,0.100000,0,0,0.000000,5,1.000000,0.000000,4.315417,0,0,0,0,0,0,0
2,29999,50,20000,63,0,49,9999,0.100000,0,0,0.000000,5,2.000000,0.000000,6.525105,0,0,0,0,0,0,0
2,29999,51,20000,25,10000,40,9999,0.100000,0,0,0.000000,5,0.000000,0.000000,1.868865,0,0,0,0,0,0,0
2,29999,52,20000,63,0,49,9999,0.100000,0,0,0.000000,4,1.000000,0.000000,6.812438,0,0,0,0,0,0,0
2,29999,53,20000,63,0,40,9999,0.100000,0,0,0.000000,5,0.000000,0.000000,0.265947,0,0,0,0,0,0,0
2,29999,54,20000,25,0,49,9999,0.100000,0,0,0.000000,4,4.000000,0.000000,10.157797,0,0,0,0,0,0,0
2,29999,55,20000,6,10000,49,9999,0.100000,0,0,0.000000,5,1.000000,0.000000,4.602327,0,0,0,0,0,0,0
2,29999,56,10000,25,0,49,19999,0.100000,0,0,0.000000,5,5.000000,0.000000,10.351981,0,0,0,0,0,0,0
2,29999,57,20000,38,0,40,9999,0.100000,0,0,0.000000,5,0.000000,0.000000,0.651255,0,0,0,0,0,0,0
2,29999,58,20000,25,0,40,9999,0.100000,0,0,0.000000,5,0.000000,0.000000,0.135052,0,0,0,0,0,0,0
2,29999,59,20000,63,0,40,9999,0.100000,0,0,0.000000,5,0.000000,0.000000,1.368678,0,0,0,0,0,0,0
2,29999,60,20000,63,0,49,9999,0.100000,0,0,0.000000,5,2.000000,0.000000,8.642632,0,0,0,0,0,0,0
2,29999,61,20000,63,0,40,9999,0.100000,0,0,0.000000,5,0.000000,0.000000,0.240619,0,0,0,0,0,0,0
2,29999,62,20000,38,0,49,9999,0.100000,0,0,0.000000,5,7.000000,0.000000,16.348355,0,0,0,0,0,0,0
2,29999,63,20000,25,0,40,9999,0.100000,0,0,0.000000,5,0.000000,0.000000,0.085755,0,0,0,0,0,0,0
2,29999,64,20000,6,10000,40,9999,0.100000,0,0,0.000000,5,0.000000,0.000000,5.503706,0,0,0,0,0,0,0
2,29999,65,20000,6,10000,40,9999,0.100000,0,0,0.000000,5,0.000000,0.000000,0.343806,0,0,0,0,0,0,0
2,29999,66,20000,6,10000,49,9999,0.100000,0,0,0.000000,5,1.000000,0.000000,4.998783,0,0,0,0,0,0,0
2,29999,67,20000,6,10000,40,9999,0.100000,0,0,0.000000,5,0.000000,0.000000,0.200818,0,0,0,0,0,0,0
2,29999,68,20000,25,0,49,9999,0.100000,0,0,0.000000,5,2.000000,0.000000,8.522978,0,0,0,0,0,0,0
2,29999,69,20000,6,10000,40,9999,0.100000,0,0,0.000000,5,0.000000,0.000000,1.215341,0,0,0,0,0,0,0
2,29999,70,20000,38,10000,40,9999,0.100000,0,0,0.000000,5,0.000000,0.000000,0.237635,0,0,0,0,0,0,0
2,29999,71,20000,25,10000,40,9999,0.100000,0,0,0.000000,5,0.000000,0.000000,0.485637,0,0,0,0,0,0,0
2,29999,72,20000,38,10000,40,9999,0.100000,0,0,0.000000,5,0.000000,0.000000,7.616598,0,0,0,0,0,0,0
2,29999,73,20000,25,0,40,9999,0.100000,0,0,0.000000,5,0.000000,0.000000,0.139543,0,0,0,0,0,0,0
2,29999,74,20000,25,0,40,9999,0.100000,0,0,0.000000,5,0.000000,0.000000,0.883398,0,0,0,0,0,0,0
2,29999,75,20000,63,0,40,9999,0.100000,0,0,0.000000,5,0.000000,0.000000,0.009308,0,0,0,0,0,0,0
2,29999,76,20000,38,0,40,9999,0.100000,0,0,0.000000,5,0.000000,0.000000,0.571025,0,0,0,0,0,0,0
2,29999,77,20000,63,0,40,9999,0.100000,0,0,0.000000,5,0.000000,0.000000,0.828831,0,0,0,0,0,0,0
2,29999,78,20000,38,0,40,9999,0.100000,0,0,0.000000,5,0.000000,0.000000,0.795982,0,0,0,0,0,0,0
2,29999,79,20000,25,0,40,9999,0.100000,0,0,0.000000,5,0.000000,0.000000,0.814620,0,0,0,0,0,0,0
2,29999,80,20000,38,0,40,9999,0.100000,0,0,0.000000,5,0.000000,0.000000,2.278934,0,0,0,0,0,0,0
2,29999,81,20000,25,0,49,9999,0.100000,0,0,0.000000,5,1.000000,0.000000,1.433915,0,0,0,0,0,0,0
2,29999,82,20000,63,0,40,9999,0.100000,0,0,0.000000,5,0.000000,0.000000,0.252933,0,0,0,0,0,0,0
2,29999,83,20000,6,10000,49,9999,0.100000,0,0,0.000000,5,1.000000,0.000000,13.285932,0,0,0,0,0,0,0
2,29999,84,20000,38,0,49,9999,0.100000,0,0,0.000000,5,1.000000,0.000000,1.498587,0,0,0,0,0,0,0
2,29999,85,20000,25,0,49,9999,0.100000,0,0,0.000000,5,1.000000,0.000000,2.447922,0,0,0,0,0,0,0
2,29999,86,20000,25,0,49,9999,0.100000,0,0,0.000000,5,1.000000,0.000000,7.345338,0,0,0,0,0,0,0
2,29999,87,20000,63,0,40,9999,0.100000,0,0,0.000000,5,0.000000,0.000000,0.111214,0,0,0,0,0,0,0
2,29999,88,20000,38,0,49,9999,0.100000,0,0,0.000000,5,1.000000,0.000000,1.831687,0,0,0,0,0,0,0
2,29999,89,20000,25,0,9,9999,0.100000,0,0,34.210526,5,10.000000,0.000000,23.706018,0,0,0,1,0,0,0
2,29999,90,20000,6,10000,40,9999,0.100000,0,0,0.000000,5,0.000000,0.000000,0.876046,0,0,0,0,0,0,0
2,29999,91,20000,38,0,40,9999,0.100000,0,0,0.000000,5,0.000000,0.000000,1.385206,0,0,0,0,0,0,0
2,29999,92,20000,63,0,40,9999,0.100000,0,0,0.000000,5,0.000000,0.000000,0.634010,0,0,0,0,0,0,0
2,29999,93,20000,6,10000,40,9999,0.100000,0,0,0.000000,5,0.000000,0.000000,0.163300,0,0,0,0,0,0,0
2,29999,94,20000,38,0,40,9999,0.100000,0,0,0.000000,5,0.000000,0.000000,1.239941,0,0,0,0,0,0,0
2,29999,95,20000,38,10000,40,9999,0.100000,0,0,0.000000,5,0.000000,0.000000,0.489118,0,0,0,0,0,0,0
2,29999,96,20000,25,0,9,9999,0.100000,0,0,34.210526,5,10.000000,0.000000,12.869445,0,0,0,1,0,0,0
2,29999,97,20000,6,10000,40,9999,0.100000,0,0,0.000000,5,0.000000,0.000000,0.192898,0,0,0,0,0,0,0
2,29999,98,20000,6,10000,40,9999,0.100000,0,0,0.000000,5,0.000000,0.000000,2.431077,0,0,0,0,0,0,0
2,29999,99,20000,38,10000,40,9999,0.100000,0,0,0.000000,5,0.000000,0.000000,0.688851,0,0,0,0,0,0,0
3,39999,0,30000,25,10000,49,9999,0.100000,0,0,0.000000,5,1.000000,0.000000,12.969978,0,0,0,0,0,0,0
3,39999,1,30000,63,0,49,9999,0.100000,0,0,0.000000,5,2.000000,0.000000,3.507518,0,0,0,0,0,0,0
3,39999,2,30000,25,10000,49,9999,0.100000,0,0,0.000000,5,2.000000,0.000000,5.819506,0,0,0,0,0,0,0
3,39999,3,30000,51,10000,49,9999,0.100000,0,0,0.000000,5,4.000000,0.000000,18.430277,0,0,0,0,0,0,0
3,39999,4,30000,51,10000,40,9999,0.100000,0,0,0.000000,5,0.000000,0.000000,0.201666,0,0,0,0,0,0,0
3,39999,5,30000,51,10000,49,9999,0.100000,0,0,0.000000,5,6.000000,0.000000,15.712848,0,0,0,0,0,0,0
3,39999,6,30000,6,10000,49,9999,0.100000,0,0,0.000000,5,4.000000,0.000000,8.419567,0,0,0,0,0,0,0
3,39999,7,30000,6,10000,40,9999,0.100000,0,0,0.000000,5,0.000000,0.000000,9.990894,0,0,0,0,0,0,0
3,39999,8,30000,63,0,49,9999,0.100000,0,0,0.000000,5,1.000000,0.000000,4.013194,0,0,0,0,0,0,0
3,39999,9,30000,6,10000,49,9999,0.100000,0,0,0.000000,5,5.000000,0.000000,10.670085,0,0,0,0,0,0,0
3,39999,10,30000,51,10000,40,9999,0.100000,0,0,0.000000,5,0.000000,0.000000,2.186357,0,0,0,0,0,0,0
3,39999,11,30000,63,0,49,9999,0.100000,0,0,0.000000,5,3.000000,0.000000,15.087688,0,0,0,0,0,0,0
3,39999,12,30000,51,10000,49,9999,0.100000,0,0,0.000000,5,3.000000,0.000000,4.305787,0,0,0,0,0,0,0
3,39999,13,30000,25,10000,49,9999,0.100000,0,0,0.000000,5,1.000000,0.000000,3.883666,0,0,0,0,0,0,0
3,39999,14,30000,63,0,49,9999,0.100000,0,0,0.000000,5,1.000000,0.000000,4.129149,0,0,0,0,0,0,0
3,39999,15,30000,63,0,49,9999,0.100000,0,0,0.000000,5,1.000000,0.000000,12.312928,0,0,0,0,0,0,0
3,39999,16,30000,6,10000,40,9999,0.100000,0,0,0.000000,5,0.000000,0.000000,0.084990,0,0,0,0,0,0,0
3,39999,17,30000,51,10000,49,9999,0.100000,0,0,0.000000,5,3.000000,0.000000,4.758361,0,0,0,0,0,0,0
3,39999,18,30000,63,0,40,9999,0.100000,0,0,0.000000,5,0.000000,0.000000,0.424993,0,0,0,0,0,0,0
3,39999,19,30000,51,10000,49,9999,0.100000,0,0,0.000000,5,1.000000,0.000000,1.614294,0,0,0,0,0,0,0
3,39999,20,30000,38,10000,40,9999,0.100000,0,0,0.000000,5,0.000000,0.000000,0.556713,0,0,0,0,0,0,0
3,39999,21,30000,6,10000,49,9999,0.100000,0,0,0.000000,5,3.000000,0.000000,4.508895,0,0,0,0,0,0,0
3,39999,22,30000,38,10000,40,9999,0.100000,0,0,0.000000,5,0.000000,0.000000,0.162641,0,0,0,0,0,0,0
3,39999,23,30000,63,0,40,9999,0.100000,0,0,0.000000,5,0.000000,0.000000,0.086714,0,0,0,0,0,0,0
3,39999,24,30000,63,0,40,9999,0.100000,0,0,0.000000,5,0.000000,0.000000,0.186179,0,0,0,0,0,0,0
3,39999,25,30000,38,10000,40,9999,0.100000,0,0,0.000000,5,0.000000,0.000000,1.553100,0,0,0,0,0,0,0
3,39999,26,30000,51,10000,49,9999,0.100000,0,0,0.000000,5,2.000000,0.000000,2.341430,0,0,0,0,0,0,0
3,39999,27,30000,6,10000,49,9999,0.100000,0,0,0.000000,5,2.000000,0.000000,9.390308,0,0,0,0,0,0,0
3,39999,28,30000,6,10000,40,9999,0.100000,0,0,0.000000,5,0.000000,0.000000,4.793374,0,0,0,0,0,0,0
3,39999,29,30000,63,0,49,9999,0.100000,0,0,0.000000,5,1.000000,0.000000,2.032056,0,0,0,0,0,0,0
3,39999,30,30000,6,10000,40,9999,0.100000,0,0,0.000000,5,0.000000,0.000000,0.768898,0,0,0,0,0,0,0
3,39999,31,30000,38,10000,40,9999,0.100000,0,0,0.000000,5,0.000000,0.000000,8.595263,0,0,0,0,0,0,0
3,39999,32,30000,25,10000,40,9999,0.100000,0,0,0.000000,5,0.000000,0.000000,0.629624,0,0,0,0,0,0,0
3,39999,33,30000,51,10000,40,9999,0.100000,0,0,0.000000,5,0.000000,0.000000,0.923249,0,0,0,0,0,0,0
3,39999,34,30000,51,10000,40,9999,0.100000,0,0,0.000000,5,0.000000,0.000000,1.210425,0,0,0,0,0,0,0
3,39999,35,30000,6,10000,49,9999,0.100000,0,0,0.000000,5,2.000000,0.000000,4.971396,0,0,0,0,0,0,0
3,39999,36,30000,6,10000,49,9999,0.100000,0,0,0.000000,5,2.000000,0.000000,7.230394,0,0,0,0,0,0,0
3,39999,37,30000,51,10000,49,9999,0.100000,0,0,0.000000,5,3.000000,0.000000,28.740548,0,0,0,0,0,0,0
3,39999,38,30000,38,10000,40,9999,0.100000,0,0,0.000000,5,0.000000,0.000000,0.417441,0,0,0,0,0,0,0
3,39999,39,30000,25,10000,40,9999,0.100000,0,0,0.000000,5,0.000000,0.000000,0.212144,0,0,0,0,0,0,0
3,39999,40,30000,38,10000,49,9999,0.100000,0,0,0.000000,5,6.000000,0.000000,15.475410,0,0,0,0,0,0,0
3,39999,41,30000,38,10000,40,9999,0.100000,0,0,0.000000,5,0.000000,0.000000,0.115338,0,0,0,0,0,0,0
3,39999,42,30000,51,10000,49,9999,0.100000,0,0,0.000000,5,3.000000,0.000000,4.675978,0,0,0,0,0,0,0
3,39999,43,30000,6,10000,40,9999,0.100000,0,0,0.000000,5,0.000000,0.000000,2.301609,0,0,0,0,0,0,0
3,39999,44,30000,63,0,49,9999,0.100000,0,0,0.000000,5,3.000000,0.000000,13.723511,0,0,0,0,0,0,0
3,39999,45,30000,6,10000,40,9999,0.100000,0,0,0.000000,5,0.000000,0.000000,2.004059,0,0,0,0,0,0,0
3,39999,46,30000,51,10000,40,9999,0.100000,0,0,0.000000,5,0.000000,0.000000,1.333170,0,0,0,0,0,0,0
3,39999,47,30000,51,10000,40,9999,0.100000,0,0,0.000000,5,0.000000,0.000000,0.716542,0,0,0,0,0,0,0
3,39999,48,30000,38,10000,40,9999,0.100000,0,0,0.000000,5,0.000000,0.000000,0.185113,0,0,0,0,0,0,0
3,39999,49,30000,63,0,49,9999,0.100000,0,0,0.000000,5,1.000000,0.000000,2.020941,0,0,0,0,0,0,0
3,39999,50,30000,38,10000,49,9999,0.100000,0,0,0.000000,5,2.000000,0.000000,10.539059,0,0,0,0,0,0,0
3,39999,51,30000,25,10000,49,9999,0.100000,0,0,0.000000,5,1.000000,0.000000,2.746984,0,0,0,0,0,0,0
3,39999,52,30000,6,10000,49,9999,0.100000,0,0,0.000000,5,4.000000,0.000000,5.001633,0,0,0,0,0,0,0
3,39999,53,30000,38,10000,40,9999,0.100000,0,0,0.000000,5,0.000000,0.000000,1.815736,0,0,0,0,0,0,0
3,39999,54,30000,6,10000,49,9999,0.100000,0,0,0.000000,5,4.000000,0.000000,5.087522,0,0,0,0,0,0,0
3,39999,55,30000,63,0,40,9999,0.100000,0,0,0.000000,5,0.000000,0.000000,1.052146,0,0,0,0,0,0,0
3,39999,56,30000,38,10000,40,9999,0.100000,0,0,0.000000,5,0.000000,0.000000,0.657537,0,0,0,0,0,0,0
3,39999,57,30000,51,10000,40,9999,0.100000,0,0,0.000000,5,0.000000,0.000000,0.683881,0,0,0,0,0,0,0
3,39999,58,30000,38,10000,40,9999,0.100000,0,0,0.000000,5,0.000000,0.000000,0.122883,0,0,0,0,0,0,0
3,39999,59,30000,63,0,49,9999,0.100000,0,0,0.000000,5,1.000000,0.000000,2.078547,0,0,0,0,0,0,0
3,39999,60,30000,6,10000,49,9999,0.100000,0,0,0.000000,5,1.000000,0.000000,7.015674,0,0,0,0,0,0,0
3,39999,61,30000,6,10000,40,9999,0.100000,0,0,0.000000,5,0.000000,0.000000,0.817921,0,0,0,0,0,0,0
3,39999,62,30000,38,10000,49,9999,0.100000,0,0,0.000000,5,1.000000,0.000000,5.555207,0,0,0,0,0,0,0
3,39999,63,30000,51,10000,40,9999,0.100000,0,0,0.000000,5,0.000000,0.000000,0.108728,0,0,0,0,0,0,0
3,39999,64,30000,6,10000,49,9999,0.100000,0,0,0.000000,5,2.000000,0.000000,9.652526,0,0,0,0,0,0,0
3,39999,65,30000,38,10000,40,9999,0.100000,0,0,0.000000,5,0.000000,0.000000,1.123562,0,0,0,0,0,0,0
3,39999,66,30000,25,10000,40,9999,0.100000,0,0,0.000000,5,0.000000,0.000000,2.778570,0,0,0,0,0,0,0
3,39999,67,30000,25,10000,40,9999,0.100000,0,0,0.000000,5,0.000000,0.000000,0.853040,0,0,0,0,0,0,0
3,39999,68,30000,63,0,49,9999,0.100000,0,0,0.000000,5,3.000000,0.000000,16.671377,0,0,0,0,0,0,0
3,39999,69,30000,38,10000,49,9999,0.100000,0,0,0.000000,5,2.000000,0.000000,4.475773,0,0,0,0,0,0,0
3,39999,70,30000,6,10000,40,9999,0.100000,0,0,0.000000,5,0.000000,0.000000,0.187766,0,0,0,0,0,0,0
3,39999,71,30000,51,10000,40,9999,0.100000,0,0,0.000000,5,0.000000,0.000000,0.438994,0,0,0,0,0,0,0
3,39999,72,30000,51,10000,49,9999,0.100000,0,0,0.000000,5,2.000000,0.000000,10.751716,0,0,0,0,0,0,0
3,39999,73,30000,6,10000,49,9999,0.100000,0,0,0.000000,5,1.000000,0.000000,7.963259,0,0,0,0,0,0,0
3,39999,74,30000,25,10000,40,9999,0.100000,0,0,0.000000,5,0.000000,0.000000,0.883283,0,0,0,0,0,0,0
3,39999,75,30000,63,0,40,9999,0.100000,0,0,0.000000,5,0.000000,0.000000,0.009235,0,0,0,0,0,0,0
3,39999,76,30000,63,0,40,9999,0.100000,0,0,0.000000,5,0.000000,0.000000,0.783358,0,0,0,0,0,0,0
3,39999,77,30000,6,10000,40,9999,0.100000,0,0,0.000000,5,0.000000,0.000000,1.632944,0,0,0,0,0,0,0
3,39999,78,30000,38,10000,40,9999,0.100000,0,0,0.000000,5,0.000000,0.000000,0.520388,0,0,0,0,0,0,0
3,39999,79,30000,51,10000,49,9999,0.100000,0,0,0.000000,5,2.000000,0.000000,2.109408,0,0,0,0,0,0,0
3,39999,80,30000,38,10000,40,9999,0.100000,0,0,0.000000,5,0.000000,0.000000,0.655264,0,0,0,0,0,0,0
3,39999,81,30000,51,10000,49,9999,0.100000,0,0,0.000000,5,1.000000,0.000000,1.389499,0,0,0,0,0,0,0
3,39999,82,30000,6,10000,40,9999,0.100000,0,0,0.000000,5,0.000000,0.000000,2.199671,0,0,0,0,0,0,0
3,39999,83,30000,51,10000,49,9999,0.100000,0,0,0.000000,5,3.000000,0.000000,22.033008,0,0,0,0,0,0,0
3,39999,84,30000,38,10000,49,9999,0.100000,0,0,0.000000,5,1.000000,0.000000,1.378075,0,0,0,0,0,0,0
3,39999,85,30000,25,10000,49,9999,0.100000,0,0,0.000000,5,1.000000,0.000000,11.347021,0,0,0,0,0,0,0
3,39999,86,30000,6,10000,40,9999,0.100000,0,0,0.000000,5,0.000000,0.000000,1.012820,0,0,0,0,0,0,0
3,39999,87,30000,63,0,40,9999,0.100000,0,0,0.000000,5,0.000000,0.000000,0.101965,0,0,0,0,0,0,0
3,39999,88,30000,38,10000,40,9999,0.100000,0,0,0.000000,5,0.000000,0.000000,1.581621,0,0,0,0,0,0,0
3,39999,89,30000,63,0,49,9999,0.100000,0,0,0.000000,5,2.000000,0.000000,11.778115,0,0,0,0,0,0,0
3,39999,90,30000,38,10000,40,9999,0.100000,0,0,0.000000,5,0.000000,0.000000,0.373589,0,0,0,0,0,0,0
3,39999,91,30000,6,10000,49,9999,0.100000,0,0,0.000000,5,1.000000,0.000000,2.424978,0,0,0,0,0,0,0
3,39999,92,30000,63,0,40,9999,0.100000,0,0,0.000000,5,0.000000,0.000000,0.731613,0,0,0,0,0,0,0
3,39999,93,30000,25,10000,40,9999,0.100000,0,0,0.000000,5,0.000000,0.000000,0.108282,0,0,0,0,0,0,0
3,39999,94,30000,25,10000,49,9999,0.100000,0,0,0.000000,5,5.000000,0.000000,19.890036,0,0,0,0,0,0,0
3,39999,95,30000,6,10000,40,9999,0.100000,0,0,0.000000,5,0.000000,0.000000,0.427729,0,0,0,0,0,0,0
3,39999,96,30000,63,0,40,9999,0.100000,0,0,0.000000,5,0.000000,0.000000,0.342487,0,0,0,0,0,0,0
3,39999,97,30000,63,0,40,9999,0.100000,0,0,0.000000,5,0.000000,0.000000,0.658057,0,0,0,0,0,0,0
3,39999,98,30000,6,10000,40,9999,0.100000,0,0,0.000000,5,0.000000,0.000000,2.099885,0,0,0,0,0,0,0
3,39999,99,30000,25,10000,40,9999,0.100000,0,0,0.000000,5,0.000000,0.000000,0.640803,0,0,0,0,0,0,0
4,49999,0,40000,38,10000,40,9999,0.100000,0,0,0.000000,5,0.000000,0.000000,2.453138,0,0,0,0,0,0,0
4,49999,1,40000,25,10000,40,9999,0.100000,0,0,0.000000,5,0.000000,0.000000,0.262840,0,0,0,0,0,0,0
4,49999,2,40000,38,10000,49,9999,0.100000,0,0,0.000000,5,1.000000,0.000000,5.700169,0,0,0,0,0,0,0
4,49999,3,40000,63,0,40,9999,0.100000,0,0,0.000000,5,0.000000,0.000000,6.225939,0,0,0,0,0,0,0
4,49999,4,40000,51,10000,40,9999,0.100000,0,0,0.000000,5,0.000000,0.000000,0.215747,0,0,0,0,0,0,0
4,49999,5,40000,63,0,49,9999,0.100000,0,0,0.000000,5,1.000000,0.000000,2.176003,0,0,0,0,0,0,0
4,49999,6,40000,6,10000,40,9999,0.100000,0,0,0.000000,5,0.000000,0.000000,0.880787,0,0,0,0,0,0,0
4,49999,7,40000,25,10000,49,9999,0.100000,0,0,0.000000,5,5.000000,0.000000,11.888759,0,0,0,0,0,0,0
4,49999,8,40000,38,10000,40,9999,0.100000,0,0,0.000000,5,0.000000,0.000000,1.926534,0,0,0,0,0,0,0
4,49999,9,40000,25,10000,49,9999,0.100000,0,0,0.000000,5,2.000000,0.000000,4.472315,0,0,0,0,0,0,0
4,49999,10,40000,51,10000,49,9999,0.100000,0,0,0.000000,5,1.000000,0.000000,2.295706,0,0,0,0,0,0,0
4,49999,11,40000,38,10000,49,9999,0.100000,0,0,0.000000,5,12.000000,0.000000,22.929631,0,0,0,0,0,0,0
4,49999,12,40000,38,10000,49,9999,0.100000,0,0,0.000000,5,1.000000,0.000000,1.979596,0,0,0,0,0,0,0
4,49999,13,40000,51,10000,49,9999,0.100000,0,0,0.000000,5,2.000000,0.000000,4.865887,0,0,0,0,0,0,0
4,49999,14,40000,25,10000,40,9999,0.100000,0,0,0.000000,5,0.000000,0.000000,0.508099,0,0,0,0,0,0,0
4,49999,15,40000,63,0,49,9999,0.100000,0,0,0.000000,5,3.000000,0.000000,3.833784,0,0,0,0,0,0,0
4,49999,16,40000,6,10000,40,9999,0.100000,0,0,0.000000,5,0.000000,0.000000,0.280001,0,0,0,0,0,0,0
4,49999,17,40000,63,0,49,9999,0.100000,0,0,0.000000,5,1.000000,0.000000,1.977103,0,0,0,0,0,0,0
4,49999,18,40000,51,10000,40,9999,0.100000,0,0,0.000000,5,0.000000,0.000000,0.243500,0,0,0,0,0,0,0
4,49999,19,40000,25,10000,49,9999,0.100000,0,0,0.000000,5,1.000000,0.000000,1.563345,0,0,0,0,0,0,0
4,49999,20,40000,25,10000,40,9999,0.100000,0,0,0.000000,5,0.000000,0.000000,3.653171,0,0,0,0,0,0,0
4,49999,21,40000,63,0,49,9999,0.100000,0,0,0.000000,5,1.000000,0.000000,1.943038,0,0,0,0,0,0,0
4,49999,22,40000,51,10000,40,9999,0.100000,0,0,0.000000,5,0.000000,0.000000,0.157310,0,0,0,0,0,0,0
4,49999,23,40000,63,0,40,9999,0.100000,0,0,0.000000,5,0.000000,0.000000,3.734693,0,0,0,0,0,0,0
4,49999,24,40000,38,10000,40,9999,0.100000,0,0,0.000000,5,0.000000,0.000000,0.175420,0,0,0,0,0,0,0
4,49999,25,40000,38,10000,40,9999,0.100000,0,0,0.000000,5,0.000000,0.000000,2.801282,0,0,0,0,0,0,0
4,49999,26,40000,49,30000,40,9999,0.100000,0,0,0.000000,5,0.000000,0.000000,0.444750,0,0,0,0,0,0,0
4,49999,27,40000,63,0,40,9999,0.100000,0,0,0.000000,5,0.000000,0.000000,0.269657,0,0,0,0,0,0,0
4,49999,28,40000,63,0,49,9999,0.100000,0,0,0.000000,5,1.000000,0.000000,5.628149,0,0,0,0,0,0,0
4,49999,29,40000,63,0,40,9999,0.100000,0,0,0.000000,5,0.000000,0.000000,0.941037,0,0,0,0,0,0,0
4,49999,30,40000,6,10000,49,9999,0.100000,0,0,0.000000,5,1.000000,0.000000,2.112044,0,0,0,0,0,0,0
4,49999,31,40000,51,10000,49,9999,0.100000,0,0,0.000000,5,3.000000,0.000000,23.718886,0,0,0,0,0,0,0
4,49999,32,40000,6,10000,49,9999,0.100000,0,0,0.000000,5,1.000000,0.000000,4.052420,0,0,0,0,0,0,0
4,49999,33,40000,63,0,40,9999,0.100000,0,0,0.000000,5,0.000000,0.000000,1.177759,0,0,0,0,0,0,0
4,49999,34,40000,25,10000,40,9999,0.065000,0,0,0.000000,5,0.000000,0.000000,0.114981,0,0,0,0,0,0,0
4,49999,35,40000,63,0,40,9999,0.100000,0,0,0.000000,5,0.000000,0.000000,0.098496,0,0,0,0,0,0,0
4,49999,36,40000,63,0,49,9999,0.100000,0,0,0.000000,5,2.000000,0.000000,10.743766,0,0,0,0,0,0,0
4,49999,37,40000,25,10000,49,9999,0.100000,0,0,0.000000,5,2.000000,0.000000,9.030325,0,0,0,0,0,0,0
4,49999,38,40000,49,30000,40,9999,0.100000,0,0,0.000000,5,0.000000,0.000000,0.324589,0,0,0,0,0,0,0
4,49999,39,40000,51,10000,40,9999,0.100000,0,0,0.000000,5,0.000000,0.000000,0.198021,0,0,0,0,0,0,0
4,49999,40,40000,63,0,99,9999,0.100000,0,0,32.323268,5,6.000000,0.000000,16.030942,0,0,1,0,0,0,0
4,49999,41,40000,25,10000,40,9999,0.100000,0,0,0.000000,5,0.000000,0.000000,0.091018,0,0,0,0,0,0,0
4,49999,42,40000,51,10000,49,9999,0.100000,0,0,0.000000,5,1.000000,0.000000,1.975588,0,0,0,0,0,0,0
4,49999,43,40000,38,10000,49,9999,0.100000,0,0,0.000000,5,1.000000,0.000000,2.401635,0,0,0,0,0,0,0
4,49999,44,40000,63,0,49,9999,0.100000,0,0,0.000000,5,2.000000,0.000000,4.858508,0,0,0,0,0,0,0
4,49999,45,40000,25,10000,40,9999,0.100000,0,0,0.000000,5,0.000000,0.000000,18.814490,0,0,0,0,0,0,0
4,49999,46,40000,63,0,40,9999,0.100000,0,0,0.000000,5,0.000000,0.000000,0.478910,0,0,0,0,0,0,0
4,49999,47,40000,6,10000,40,9999,0.100000,0,0,0.000000,5,0.000000,0.000000,0.976187,0,0,0,0,0,0,0
4,49999,48,40000,51,10000,40,9999,0.100000,0,0,0.000000,5,0.000000,0.000000,0.260972,0,0,0,0,0,0,0
4,49999,49,40000,38,10000,40,9999,0.100000,0,0,0.000000,5,0.000000,0.000000,0.162031,0,0,0,0,0,0,0
4,49999,50,40000,63,0,40,9999,0.100000,0,0,0.000000,5,0.000000,0.000000,1.399908,0,0,0,0,0,0,0
4,49999,51,40000,38,10000,49,9999,0.100000,0,0,0.000000,5,1.000000,0.000000,2.461205,0,0,0,0,0,0,0
4,49999,52,40000,6,10000,49,9999,0.100000,0,0,0.000000,5,1.000000,0.000000,8.739093,0,0,0,0,0,0,0
4,49999,53,40000,63,0,49,9999,0.100000,0,0,0.000000,5,1.000000,0.000000,3.836320,0,0,0,0,0,0,0
4,49999,54,40000,6,10000,40,9999,0.100000,0,0,0.000000,5,0.000000,0.000000,0.899468,0,0,0,0,0,0,0
4,49999,55,40000,6,10000,40,9999,0.100000,0,0,0.000000,5,0.000000,0.000000,2.163314,0,0,0,0,0,0,0
4,49999,56,40000,38,10000,40,9999,0.135000,0,0,0.000000,5,0.000000,0.000000,1.318409,0,0,0,0,0,0,0
4,49999,57,40000,25,10000,40,9999,0.100000,0,0,0.000000,5,0.000000,0.000000,0.879472,0,0,0,0,0,0,0
4,49999,58,40000,25,10000,40,9999,0.100000,0,0,0.000000,5,0.000000,0.000000,0.227991,0,0,0,0,0,0,0
4,49999,59,40000,38,10000,40,9999,0.100000,0,0,0.000000,5,0.000000,0.000000,0.348179,0,0,0,0,0,0,0
4,49999,60,40000,25,10000,49,9999,0.100000,0,0,0.000000,5,1.000000,0.000000,13.075722,0,0,0,0,0,0,0
4,49999,61,40000,6,10000,40,9999,0.100000,0,0,0.000000,5,0.000000,0.000000,0.247704,0,0,0,0,0,0,0
4,49999,62,40000,51,10000,49,9999,0.100000,0,0,0.000000,5,3.000000,0.000000,4.894071,0,0,0,0,0,0,0
4,49999,63,40000,6,10000,40,9999,0.100000,0,0,0.000000,5,0.000000,0.000000,0.131480,0,0,0,0,0,0,0
4,49999,64,40000,51,10000,49,9999,0.100000,0,0,0.000000,5,1.000000,0.000000,2.021224,0,0,0,0,0,0,0
4,49999,65,40000,6,10000,40,9999,0.100000,0,0,0.000000,5,0.000000,0.000000,0.076684,0,0,0,0,0,0,0
4,49999,66,40000,6,10000,40,9999,0.100000,0,0,0.000000,5,0.000000,0.000000,5.833221,0,0,0,0,0,0,0
4,49999,67,40000,25,10000,49,9999,0.100000,0,0,0.000000,5,12.000000,0.000000,15.949351,0,0,0,0,0,0,0
4,49999,68,40000,51,10000,49,9999,0.100000,0,0,0.000000,5,3.000000,0.000000,32.286820,0,0,0,0,0,0,0
4,49999,69,40000,63,0,40,9999,0.100000,0,0,0.000000,5,0.000000,0.000000,2.951172,0,0,0,0,0,0,0
4,49999,70,40000,51,10000,40,9999,0.100000,0,0,0.000000,5,0.000000,0.000000,0.182612,0,0,0,0,0,0,0
4,49999,71,40000,63,0,40,9999,0.100000,0,0,0.000000,5,0.000000,0.000000,3.380924,0,0,0,0,0,0,0
4,49999,72,40000,63,0,49,9999,0.100000,0,0,0.000000,5,2.000000,0.000000,6.174619,0,0,0,0,0,0,0
4,49999,73,40000,6,10000,40,9999,0.100000,0,0,0.000000,5,0.000000,0.000000,0.088680,0,0,0,0,0,0,0
4,49999,74,40000,63,0,9,9999,0.100000,0,0,34.210526,5,11.000000,0.000000,17.773261,0,0,0,1,0,0,0
4,49999,75,40000,25,10000,40,9999,0.100000,0,0,0.000000,5,0.000000,0.000000,0.009311,0,0,0,0,0,0,0
4,49999,76,40000,38,10000,49,9999,0.100000,0,0,0.000000,5,1.000000,0.000000,1.825457,0,0,0,0,0,0,0
4,49999,77,40000,51,10000,40,9999,0.100000,0,0,0.000000,5,0.000000,0.000000,0.145605,0,0,0,0,0,0,0
4,49999,78,40000,63,0,40,9999,0.100000,0,0,0.000000,5,0.000000,0.000000,2.191763,0,0,0,0,0,0,0
4,49999,79,40000,63,0,40,9999,0.100000,0,0,0.000000,5,0.000000,0.000000,0.305957,0,0,0,0,0,0,0
4,49999,80,40000,38,10000,40,9999,0.100000,0,0,0.000000,5,0.000000,0.000000,3.827704,0,0,0,0,0,0,0
4,49999,81,40000,63,0,49,9999,0.100000,0,0,0.000000,5,1.000000,0.000000,1.246505,0,0,0,0,0,0,0
4,49999,82,40000,6,10000,40,9999,0.100000,0,0,0.000000,5,0.000000,0.000000,0.785619,0,0,0,0,0,0,0
4,49999,83,40000,63,0,49,9999,0.100000,0,0,0.000000,5,3.000000,0.000000,11.220803,0,0,0,0,0,0,0
4,49999,84,40000,25,10000,49,9999,0.100000,0,0,0.000000,5,1.000000,0.000000,1.227584,0,0,0,0,0,0,0
4,49999,85,40000,25,10000,40,9999,0.100000,0,0,0.000000,5,0.000000,0.000000,0.218455,0,0,0,0,0,0,0
4,49999,86,40000,25,10000,40,9999,0.100000,0,0,0.000000,5,0.000000,0.000000,1.625954,0,0,0,0,0,0,0
4,49999,87,40000,63,0,40,9999,0.100000,0,0,0.000000,5,0.000000,0.000000,0.137894,0,0,0,0,0,0,0
4,49999,88,40000,25,10000,40,9999,0.100000,0,0,0.000000,5,0.000000,0.000000,5.011720,0,0,0,0,0,0,0
4,49999,89,40000,25,10000,49,9999,0.100000,0,0,0.000000,5,2.000000,0.000000,9.182074,0,0,0,0,0,0,0
4,49999,90,40000,6,10000,40,9999,0.100000,0,0,0.000000,5,0.000000,0.000000,0.288552,0,0,0,0,0,0,0
4,49999,91,40000,63,0,49,9999,0.100000,0,0,0.000000,5,1.000000,0.000000,2.256341,0,0,0,0,0,0,0
4,49999,92,40000,6,10000,9,9999,0.100000,0,0,34.210526,5,11.000000,0.000000,16.035129,0,0,0,1,0,0,0
4,49999,93,40000,63,0,40,9999,0.100000,0,0,0.000000,5,0.000000,0.000000,0.118452,0,0,0,0,0,0,0
4,49999,94,40000,25,10000,40,9999,0.100000,0,0,0.000000,5,0.000000,0.000000,0.821974,0,0,0,0,0,0,0
4,49999,95,40000,6,10000,40,9999,0.100000,0,0,0.000000,5,0.000000,0.000000,1.090875,0,0,0,0,0,0,0
4,49999,96,40000,63,0,40,9999,0.100000,0,0,0.000000,5,0.000000,0.000000,0.414535,0,0,0,0,0,0,0
4,49999,97,40000,25,10000,40,9999,0.100000,0,0,0.000000,5,0.000000,0.000000,0.303812,0,0,0,0,0,0,0
4,49999,98,40000,63,0,49,9999,0.100000,0,0,0.000000,5,1.000000,0.000000,18.661828,0,0,0,0,0,0,0
4,49999,99,40000,6,10000,40,9999,0.100000,0,0,0.000000,5,0.000000,0.000000,0.407314,0,0,0,0,0,0,0
5,59999,0,50000,6,10000,40,9999,0.100000,0,0,0.000000,5,0.000000,0.000000,1.011857,0,0,0,0,0,0,0
5,59999,1,50000,6,10000,40,9999,0.100000,0,0,0.000000,5,0.000000,0.000000,0.616568,0,0,0,0,0,0,0
5,59999,2,50000,63,0,49,9999,0.100000,0,0,0.000000,5,2.000000,0.000000,20.199181,0,0,0,0,0,0,0
5,59999,3,50000,6,10000,40,9999,0.100000,0,0,0.000000,5,0.000000,0.000000,1.940642,0,0,0,0,0,0,0
5,59999,4,50000,63,0,40,9999,0.100000,0,0,0.000000,5,0.000000,0.000000,0.185756,0,0,0,0,0,0,0
5,59999,5,50000,63,0,40,9999,0.100000,0,0,0.000000,5,0.000000,0.000000,0.086332,0,0,0,0,0,0,0
5,59999,6,50000,25,10000,49,9999,0.100000,0,0,0.000000,5,3.000000,0.000000,18.183116,0,0,0,0,0,0,0
5,59999,7,50000,6,10000,40,9999,0.100000,0,0,0.000000,5,0.000000,0.000000,3.965072,0,0,0,0,0,0,0
5,59999,8,50000,49,30000,49,9999,0.100000,0,0,0.000000,5,2.000000,0.000000,18.569702,0,0,0,0,0,0,0
5,59999,9,40000,25,10000,49,19999,0.100000,0,0,0.000000,5,5.000000,0.000000,6.492358,0,0,0,0,0,0,0
5,59999,10,50000,25,10000,49,9999,0.100000,0,0,0.000000,5,1.000000,0.000000,3.047492,0,0,0,0,0,0,0
5,59999,11,50000,63,0,9,9999,0.100000,0,0,11.847184,5,2.000000,0.000000,18.587817,0,0,0,1,0,0,0
5,59999,12,50000,25,10000,49,9999,0.100000,0,0,0.000000,5,1.000000,0.000000,1.689966,0,0,0,0,0,0,0
5,59999,13,50000,38,10000,49,9999,0.100000,0,0,0.000000,5,1.000000,0.000000,2.082252,0,0,0,0,0,0,0
5,59999,14,50000,25,10000,40,9999,0.100000,0,0,0.000000,5,0.000000,0.000000,0.535046,0,0,0,0,0,0,0
5,59999,15,50000,38,10000,49,9999,0.100000,0,0,0.000000,5,1.000000,0.000000,2.075067,0,0,0,0,0,0,0
5,59999,16,50000,38,10000,40,9999,0.100000,0,0,0.000000,5,0.000000,0.000000,1.313924,0,0,0,0,0,0,0
5,59999,17,50000,6,10000,49,9999,0.100000,0,0,0.000000,5,1.000000,0.000000,1.648454,0,0,0,0,0,0,0
5,59999,18,50000,38,10000,40,9999,0.100000,0,0,0.000000,5,0.000000,0.000000,0.212788,0,0,0,0,0,0,0
5,59999,19,50000,38,10000,40,9999,0.100000,0,0,0.000000,5,0.000000,0.000000,0.224523,0,0,0,0,0,0,0
5,59999,20,50000,38,10000,40,9999,0.100000,0,0,0.000000,5,0.000000,0.000000,0.554747,0,0,0,0,0,0,0
5,59999,21,50000,6,10000,49,9999,0.100000,0,0,0.000000,5,1.000000,0.000000,1.630714,0,0,0,0,0,0,0
5,59999,22,50000,6,10000,40,9999,0.100000,0,0,0.000000,5,0.000000,0.000000,0.171879,0,0,0,0,0,0,0
5,59999,23,50000,25,10000,40,9999,0.100000,0,0,0.000000,5,0.000000,0.000000,0.550519,0,0,0,0,0,0,0
5,59999,24,50000,38,10000,40,9999,0.100000,0,0,0.000000,5,0.000000,0.000000,0.184967,0,0,0,0,0,0,0
5,59999,25,50000,25,10000,40,9999,0.100000,0,0,0.000000,5,0.000000,0.000000,0.322118,0,0,0,0,0,0,0
5,59999,26,50000,25,10000,49,9999,0.100000,0,0,0.000000,5,4.000000,0.000000,4.208323,0,0,0,0,0,0,0
5,59999,27,50000,25,10000,40,9999,0.100000,0,0,0.000000,5,0.000000,0.000000,0.301786,0,0,0,0,0,0,0
5,59999,28,50000,25,10000,40,9999,0.100000,0,0,0.000000,5,0.000000,0.000000,0.132150,0,0,0,0,0,0,0
5,59999,29,50000,63,0,40,9999,0.100000,0,0,0.000000,5,0.000000,0.000000,0.726994,0,0,0,0,0,0,0
5,59999,30,50000,63,0,40,9999,0.100000,0,0,0.000000,5,0.000000,0.000000,4.152714,0,0,0,0,0,0,0
5,59999,31,50000,6,10000,49,9999,0.100000,0,0,0.000000,5,5.000000,0.000000,25.241558,0,0,0,0,0,0,0
5,59999,32,50000,49,30000,40,9999,0.100000,0,0,0.000000,5,0.000000,0.000000,3.564040,0,0,0,0,0,0,0
5,59999,33,50000,6,10000,40,9999,0.100000,0,0,0.000000,5,0.000000,0.000000,0.527092,0,0,0,0,0,0,0
5,59999,34,50000,17,40000,40,9999,0.100000,0,0,0.000000,5,0.000000,0.000000,0.162045,0,0,0,0,0,0,0
5,59999,35,50000,25,10000,40,9999,0.100000,0,0,0.000000,5,0.000000,0.000000,0.095979,0,0,0,0,0,0,0
5,59999,36,50000,6,10000,49,9999,0.100000,0,0,0.000000,5,2.000000,0.000000,7.491981,0,0,0,0,0,0,0
5,59999,37,50000,38,10000,49,9999,0.100000,0,0,0.000000,5,3.000000,0.000000,6.341031,0,0,0,0,0,0,0
5,59999,38,50000,63,0,40,9999,0.100000,0,0,0.000000,5,0.000000,0.000000,0.681155,0,0,0,0,0,0,0
5,59999,39,50000,6,10000,40,9999,0.100000,0,0,0.000000,5,0.000000,0.000000,0.198591,0,0,0,0,0,0,0
5,59999,40,50000,25,10000,99,9999,0.100000,0,0,34.210526,5,1.000000,0.000000,14.597217,0,0,1,0,0,0,0
5,59999,41,50000,63,0,40,9999,0.100000,0,0,0.000000,5,0.000000,0.000000,0.192886,0,0,0,0,0,0,0
5,59999,42,50000,63,0,49,9999,0.100000,0,0,0.000000,5,1.000000,0.000000,1.707239,0,0,0,0,0,0,0
5,59999,43,50000,17,40000,49,9999,0.100000,0,0,0.000000,5,1.000000,0.000000,2.416645,0,0,0,0,0,0,0
5,59999,44,50000,38,10000,40,9999,0.100000,0,0,0.000000,5,0.000000,0.000000,1.160255,0,0,0,0,0,0,0
5,59999,45,50000,17,40000,49,9999,0.100000,0,0,0.000000,5,2.000000,0.000000,6.391557,0,0,0,0,0,0,0
5,59999,46,50000,17,40000,40,9999,0.100000,0,0,0.000000,5,0.000000,0.000000,0.751791,0,0,0,0,0,0,0
5,59999,47,50000,25,10000,40,9999,0.100000,0,0,0.000000,5,0.000000,0.000000,0.454607,0,0,0,0,0,0,0
5,59999,48,50000,6,10000,40,9999,0.100000,0,0,0.000000,5,0.000000,0.000000,0.193821,0,0,0,0,0,0,0
5,59999,49,50000,25,10000,40,9999,0.100000,0,0,0.000000,5,0.000000,0.000000,0.394646,0,0,0,0,0,0,0
5,59999,50,50000,63,0,49,9999,0.100000,0,0,0.000000,5,1.000000,0.000000,5.365821,0,0,0,0,0,0,0
5,59999,51,50000,25,10000,49,9999,0.100000,0,0,0.000000,5,2.000000,0.000000,4.409474,0,0,0,0,0,0,0
5,59999,52,50000,63,0,49,9999,0.100000,0,0,0.000000,5,7.000000,0.000000,19.028828,0,0,0,0,0,0,0
5,59999,53,50000,25,10000,40,9999,0.100000,0,0,0.000000,5,0.000000,0.000000,1.285363,0,0,0,0,0,0,0
5,59999,54,50000,63,0,40,9999,0.100000,0,0,0.000000,5,0.000000,0.000000,1.082880,0,0,0,0,0,0,0
5,59999,55,50000,25,10000,40,9999,0.100000,0,0,0.000000,5,0.000000,0.000000,0.178479,0,0,0,0,0,0,0
5,59999,56,50000,6,10000,40,9999,0.100000,0,0,0.000000,5,0.000000,0.000000,0.653219,0,0,0,0,0,0,0
5,59999,57,50000,6,10000,40,9999,0.100000,0,0,0.000000,5,0.000000,0.000000,0.878375,0,0,0,0,0,0,0
5,59999,58,50000,25,10000,40,9999,0.100000,0,0,0.000000,5,0.000000,0.000000,1.535029,0,0,0,0,0,0,0
5,59999,59,50000,63,0,49,9999,0.100000,0,0,0.000000,5,4.000000,0.000000,4.164528,0,0,0,0,0,0,0
5,59999,60,50000,63,0,49,9999,0.100000,0,0,0.000000,5,3.000000,0.000000,7.647283,0,0,0,0,0,0,0
5,59999,61,50000,6,10000,40,9999,0.100000,0,0,0.000000,5,0.000000,0.000000,0.208400,0,0,0,0,0,0,0
5,59999,62,50000,38,10000,40,9999,0.100000,0,0,0.000000,5,0.000000,0.000000,1.823511,0,0,0,0,0,0,0
5,59999,63,50000,25,10000,40,9999,0.100000,0,0,0.000000,5,0.000000,0.000000,0.088177,0,0,0,0,0,0,0
5,59999,64,50000,38,10000,49,9999,0.100000,0,0,0.000000,5,1.000000,0.000000,1.690254,0,0,0,0,0,0,0
5,59999,65,50000,6,10000,40,9999,0.100000,0,0,0.000000,5,0.000000,0.000000,0.398970,0,0,0,0,0,0,0
5,59999,66,50000,63,0,49,9999,0.100000,0,0,0.000000,5,1.000000,0.000000,3.301445,0,0,0,0,0,0,0
5,59999,67,50000,25,10000,9,9999,0.100000,0,0,11.845218,5,2.000000,0.000000,13.031071,0,0,0,1,0,0,0
5,59999,68,50000,6,10000,49,9999,0.100000,0,0,0.000000,5,2.000000,0.000000,12.591963,0,0,0,0,0,0,0
5,59999,69,50000,63,0,40,9999,0.100000,0,0,0.000000,5,0.000000,0.000000,1.606601,0,0,0,0,0,0,0
5,59999,70,50000,6,10000,40,9999,0.100000,0,0,0.000000,5,0.000000,0.000000,0.188279,0,0,0,0,0,0,0
5,59999,71,50000,17,40000,49,9999,0.100000,0,0,0.000000,5,1.000000,0.000000,3.428106,0,0,0,0,0,0,0
5,59999,72,50000,17,40000,49,9999,0.100000,0,0,0.000000,5,6.000000,0.000000,9.359349,0,0,0,0,0,0,0
5,59999,73,50000,63,0,40,9999,0.100000,0,0,0.000000,5,0.000000,0.000000,0.087576,0,0,0,0,0,0,0
5,59999,74,50000,6,10000,49,9999,0.065000,0,0,0.000000,5,1.000000,0.000000,8.686234,0,0,0,0,0,0,0
5,59999,75,50000,6,10000,49,9999,0.100000,0,0,0.000000,5,3.000000,0.000000,7.984929,0,0,0,0,0,0,0
5,59999,76,50000,63,0,40,9999,0.100000,0,0,0.000000,5,0.000000,0.000000,0.404473,0,0,0,0,0,0,0
5,59999,77,50000,25,10000,40,9999,0.100000,0,0,0.000000,5,0.000000,0.000000,0.144141,0,0,0,0,0,0,0
5,59999,78,50000,38,10000,40,9999,0.100000,0,0,0.000000,5,0.000000,0.000000,8.990765,0,0,0,0,0,0,0
5,59999,79,50000,63,0,49,9999,0.100000,0,0,0.000000,5,4.000000,0.000000,4.135335,0,0,0,0,0,0,0
5,59999,80,50000,6,10000,40,9999,0.100000,0,0,0.000000,5,0.000000,0.000000,0.240463,0,0,0,0,0,0,0
5,59999,81,50000,38,10000,40,9999,0.100000,0,0,0.000000,5,0.000000,0.000000,1.351475,0,0,0,0,0,0,0
5,59999,82,50000,17,40000,40,9999,0.100000,0,0,0.000000,5,0.000000,0.000000,0.420398,0,0,0,0,0,0,0
5,59999,83,50000,38,10000,40,9999,0.100000,0,0,0.000000,5,0.000000,0.000000,5.617708,0,0,0,0,0,0,0
5,59999,84,50000,17,40000,40,9999,0.100000,0,0,0.000000,5,0.000000,0.000000,0.291939,0,0,0,0,0,0,0
5,59999,85,50000,17,40000,40,9999,0.100000,0,0,0.000000,5,0.000000,0.000000,0.210897,0,0,0,0,0,0,0
5,59999,86,50000,38,10000,40,9999,0.100000,0,0,0.000000,5,0.000000,0.000000,1.166706,0,0,0,0,0,0,0
5,59999,87,50000,63,0,40,9999,0.100000,0,0,0.000000,5,0.000000,0.000000,0.212107,0,0,0,0,0,0,0
5,59999,88,50000,17,40000,40,9999,0.100000,0,0,0.000000,5,0.000000,0.000000,7.257903,0,0,0,0,0,0,0
5,59999,89,50000,38,10000,49,9999,0.100000,0,0,0.000000,5,1.000000,0.000000,6.434516,0,0,0,0,0,0,0
5,59999,90,50000,6,10000,40,9999,0.100000,0,0,0.000000,5,0.000000,0.000000,0.648344,0,0,0,0,0,0,0
5,59999,91,50000,63,0,49,9999,0.100000,0,0,0.000000,5,2.000000,0.000000,3.746974,0,0,0,0,0,0,0
5,59999,92,50000,63,0,40,9999,0.100000,0,0,0.000000,5,0.000000,0.000000,0.676600,0,0,0,0,0,0,0
5,59999,93,50000,63,0,40,9999,0.100000,0,0,0.000000,5,0.000000,0.000000,0.094052,0,0,0,0,0,0,0
5,59999,94,50000,38,10000,49,9999,0.100000,0,0,0.000000,5,4.000000,0.000000,4.362565,0,0,0,0,0,0,0
5,59999,95,50000,25,10000,49,9999,0.100000,0,0,0.000000,5,4.000000,0.000000,13.420912,0,0,0,0,0,0,0
5,59999,96,50000,25,10000,40,9999,0.100000,0,0,0.000000,5,0.000000,0.000000,0.337357,0,0,0,0,0,0,0
5,59999,97,50000,63,0,40,9999,0.100000,0,0,0.000000,5,0.000000,0.000000,0.216830,0,0,0,0,0,0,0
5,59999,98,50000,6,10000,40,9999,0.100000,0,0,0.000000,5,0.000000,0.000000,2.667112,0,0,0,0,0,0,0
5,59999,99,50000,25,10000,40,9999,0.100000,0,0,0.000000,5,0.000000,0.000000,0.307729,0,0,0,0,0,0,0
6,69999,0,60000,38,10000,40,9999,0.100000,0,0,0.000000,5,0.000000,0.000000,1.011844,0,0,0,0,0,0,0
6,69999,1,60000,38,10000,40,9999,0.100000,0,0,0.000000,5,0.000000,0.000000,0.531379,0,0,0,0,0,0,0
6,69999,2,60000,25,10000,49,9999,0.100000,0,0,0.000000,5,1.000000,0.000000,11.272443,0,0,0,0,0,0,0
6,69999,3,60000,25,10000,40,9999,0.100000,0,0,0.000000,5,0.000000,0.000000,0.277046,0,0,0,0,0,0,0
6,69999,4,60000,38,10000,40,9999,0.100000,0,0,0.000000,5,0.000000,0.000000,0.227932,0,0,0,0,0,0,0
6,69999,5,60000,17,40000,40,9999,0.100000,0,0,0.000000,5,0.000000,0.000000,0.084140,0,0,0,0,0,0,0
6,69999,6,60000,6,10000,49,9999,0.100000,0,0,0.000000,5,2.000000,0.000000,8.261119,0,0,0,0,0,0,0
6,69999,7,60000,38,10000,40,9999,0.100000,0,0,0.000000,5,0.000000,0.000000,0.261174,0,0,0,0,0,0,0
6,69999,8,60000,17,40000,49,9999,0.100000,0,0,0.000000,5,1.000000,0.000000,6.174009,0,0,0,0,0,0,0
6,69999,9,60000,63,0,40,9999,0.100000,0,0,0.000000,5,0.000000,0.000000,0.954896,0,0,0,0,0,0,0
6,69999,10,60000,38,10000,49,9999,0.100000,0,0,0.000000,5,3.000000,0.000000,5.756644,0,0,0,0,0,0,0
6,69999,11,60000,17,40000,40,9999,0.100000,0,0,0.000000,5,0.000000,0.000000,24.036633,0,0,0,0,0,0,0
6,69999,12,60000,6,10000,40,9999,0.100000,0,0,0.000000,5,0.000000,0.000000,0.685891,0,0,0,0,0,0,0
6,69999,13,60000,63,0,49,9999,0.100000,0,0,0.000000,5,6.000000,0.000000,12.505837,0,0,0,0,0,0,0
6,69999,14,60000,6,10000,40,9999,0.100000,0,0,0.000000,5,0.000000,0.000000,0.544767,0,0,0,0,0,0,0
6,69999,15,60000,38,10000,49,9999,0.100000,0,0,0.000000,5,6.000000,0.000000,10.550485,0,0,0,0,0,0,0
6,69999,16,60000,25,10000,40,9999,0.100000,0,0,0.000000,5,0.000000,0.000000,0.570874,0,0,0,0,0,0,0
6,69999,17,60000,25,10000,40,9999,0.100000,0,0,0.000000,5,0.000000,0.000000,0.577230,0,0,0,0,0,0,0
6,69999,18,60000,38,10000,40,9999,0.100000,0,0,0.000000,5,0.000000,0.000000,0.215312,0,0,0,0,0,0,0
6,69999,19,60000,25,10000,40,9999,0.100000,0,0,0.000000,5,0.000000,0.000000,0.537680,0,0,0,0,0,0,0
6,69999,20,60000,17,40000,40,9999,0.100000,0,0,0.000000,5,0.000000,0.000000,0.523379,0,0,0,0,0,0,0
6,69999,21,60000,17,40000,40,9999,0.100000,0,0,0.000000,5,0.000000,0.000000,0.608515,0,0,0,0,0,0,0
6,69999,22,60000,25,10000,40,9999,0.100000,0,0,0.000000,5,0.000000,0.000000,0.159498,0,0,0,0,0,0,0
6,69999,23,60000,17,40000,40,9999,0.100000,0,0,0.000000,5,0.000000,0.000000,0.802324,0,0,0,0,0,0,0
6,69999,24,60000,17,40000,40,9999,0.100000,0,0,0.000000,5,0.000000,0.000000,0.214861,0,0,0,0,0,0,0
6,69999,25,60000,17,40000,40,9999,0.100000,0,0,0.000000,5,0.000000,0.000000,0.317818,0,0,0,0,0,0,0
6,69999,26,60000,63,0,49,9999,0.100000,0,0,0.000000,5,1.000000,0.000000,1.286084,0,0,0,0,0,0,0
6,69999,27,60000,38,10000,40,9999,0.100000,0,0,0.000000,5,0.000000,0.000000,0.249312,0,0,0,0,0,0,0
6,69999,28,60000,6,10000,40,9999,0.100000,0,0,0.000000,5,0.000000,0.000000,0.131437,0,0,0,0,0,0,0
6,69999,29,60000,38,10000,40,9999,0.100000,0,0,0.000000,5,0.000000,0.000000,1.301566,0,0,0,0,0,0,0
6,69999,30,60000,63,0,49,9999,0.100000,0,0,0.000000,5,1.000000,0.000000,3.616150,0,0,0,0,0,0,0
6,69999,31,60000,17,40000,49,9999,0.100000,0,0,0.000000,5,4.000000,0.000000,15.083452,0,0,0,0,0,0,0
6,69999,32,60000,38,10000,40,9999,0.100000,0,0,0.000000,5,0.000000,0.000000,1.237707,0,0,0,0,0,0,0
6,69999,33,60000,25,10000,40,9999,0.100000,0,0,0.000000,5,0.000000,0.000000,1.322532,0,0,0,0,0,0,0
6,69999,34,60000,6,10000,40,9999,0.100000,0,0,0.000000,5,0.000000,0.000000,2.649770,0,0,0,0,0,0,0
6,69999,35,60000,17,40000,40,9999,0.100000,0,0,0.000000,5,0.000000,0.000000,0.091946,0,0,0,0,0,0,0
6,69999,36,50000,6,10000,40,19999,0.100000,0,0,0.000000,5,0.000000,0.000000,5.053016,0,0,0,0,0,0,0
6,69999,37,60000,6,10000,40,9999,0.100000,0,0,0.000000,5,0.000000,0.000000,1.243530,0,0,0,0,0,0,0
6,69999,38,60000,63,0,40,9999,0.100000,0,0,0.000000,5,0.000000,0.000000,0.364770,0,0,0,0,0,0,0
6,69999,39,50000,6,10000,40,19999,0.100000,0,0,0.000000,5,0.000000,0.000000,0.189554,0,0,0,0,0,0,0
6,69999,40,60000,25,10000,49,9999,0.100000,0,0,0.000000,5,2.000000,0.000000,15.261679,0,0,0,0,0,0,0
6,69999,41,60000,25,10000,40,9999,0.100000,0,0,0.000000,5,0.000000,0.000000,0.458764,0,0,0,0,0,0,0
6,69999,42,60000,17,40000,40,9999,0.100000,0,0,0.000000,5,0.000000,0.000000,0.567155,0,0,0,0,0,0,0
6,69999,43,60000,25,10000,40,9999,0.100000,0,0,0.000000,5,0.000000,0.000000,4.840284,0,0,0,0,0,0,0
6,69999,44,60000,17,40000,40,9999,0.100000,0,0,0.000000,5,0.000000,0.000000,0.620924,0,0,0,0,0,0,0
6,69999,45,60000,6,10000,40,9999,0.100000,0,0,0.000000,5,0.000000,0.000000,3.332731,0,0,0,0,0,0,0
6,69999,46,60000,6,10000,40,9999,0.100000,0,0,0.000000,5,0.000000,0.000000,1.348209,0,0,0,0,0,0,0
6,69999,47,60000,38,10000,40,9999,0.100000,0,0,0.000000,5,0.000000,0.000000,0.197285,0,0,0,0,0,0,0
6,69999,48,60000,63,0,40,9999,0.100000,0,0,0.000000,5,0.000000,0.000000,0.194715,0,0,0,0,0,0,0
6,69999,49,60000,25,10000,40,9999,0.100000,0,0,0.000000,5,0.000000,0.000000,1.194517,0,0,0,0,0,0,0
6,69999,50,60000,6,10000,40,9999,0.100000,0,0,0.000000,5,0.000000,0.000000,1.348874,0,0,0,0,0,0,0
6,69999,51,60000,25,10000,40,9999,0.100000,0,0,0.000000,5,0.000000,0.000000,2.850701,0,0,0,0,0,0,0
6,69999,52,60000,38,10000,40,9999,0.100000,0,0,0.000000,5,0.000000,0.000000,0.499616,0,0,0,0,0,0,0
6,69999,53,60000,38,10000,40,9999,0.100000,0,0,0.000000,5,0.000000,0.000000,2.519498,0,0,0,0,0,0,0
6,69999,54,60000,25,10000,40,9999,0.100000,0,0,0.000000,5,0.000000,0.000000,0.685987,0,0,0,0,0,0,0
6,69999,55,60000,63,0,40,9999,0.100000,0,0,0.000000,5,0.000000,0.000000,0.151589,0,0,0,0,0,0,0
6,69999,56,60000,6,10000,40,9999,0.100000,0,0,0.000000,5,0.000000,0.000000,0.185931,0,0,0,0,0,0,0
6,69999,57,60000,6,10000,40,9999,0.100000,0,0,0.000000,5,0.000000,0.000000,0.237614,0,0,0,0,0,0,0
6,69999,58,60000,38,10000,40,9999,0.100000,0,0,0.000000,5,0.000000,0.000000,1.248240,0,0,0,0,0,0,0
6,69999,59,60000,63,0,49,9999,0.100000,0,0,0.000000,5,1.000000,0.000000,1.253008,0,0,0,0,0,0,0
6,69999,60,60000,38,10000,49,9999,0.100000,0,0,0.000000,5,7.000000,0.000000,16.209060,0,0,0,0,0,0,0
6,69999,61,60000,17,40000,40,9999,0.100000,0,0,0.000000,5,0.000000,0.000000,0.133033,0,0,0,0,0,0,0
6,69999,62,60000,63,0,40,9999,0.100000,0,0,0.000000,5,0.000000,0.000000,0.980114,0,0,0,0,0,0,0
6,69999,63,60000,17,40000,40,9999,0.100000,0,0,0.000000,5,0.000000,0.000000,0.102676,0,0,0,0,0,0,0
6,69999,64,60000,25,10000,49,9999,0.100000,0,0,0.000000,5,7.000000,0.000000,16.826768,0,0,0,0,0,0,0
6,69999,65,60000,17,40000,40,9999,0.100000,0,0,0.000000,5,0.000000,0.000000,2.761237,0,0,0,0,0,0,0
6,69999,66,60000,17,40000,49,9999,0.100000,0,0,0.000000,5,4.000000,0.000000,11.539141,0,0,0,0,0,0,0
6,69999,67,60000,63,0,40,9999,0.100000,0,0,0.000000,5,0.000000,0.000000,0.469842,0,0,0,0,0,0,0
6,69999,68,60000,25,10000,49,9999,0.100000,0,0,0.000000,5,1.000000,0.000000,20.896358,0,0,0,0,0,0,0
6,69999,69,60000,6,10000,40,9999,0.100000,0,0,0.000000,5,0.000000,0.000000,0.232974,0,0,0,0,0,0,0
6,69999,70,60000,17,40000,40,9999,0.100000,0,0,0.000000,5,0.000000,0.000000,0.181959,0,0,0,0,0,0,0
6,69999,71,60000,17,40000,40,9999,0.100000,0,0,0.000000,5,0.000000,0.000000,0.169286,0,0,0,0,0,0,0
6,69999,72,60000,38,10000,40,9999,0.100000,0,0,0.000000,5,0.000000,0.000000,0.255948,0,0,0,0,0,0,0
6,69999,73,60000,38,10000,40,9999,0.100000,0,0,0.000000,5,0.000000,0.000000,0.086498,0,0,0,0,0,0,0
6,69999,74,60000,25,10000,40,9999,0.100000,0,0,0.000000,5,0.000000,0.000000,3.454106,0,0,0,0,0,0,0
6,69999,75,60000,38,10000,49,9999,0.100000,0,0,0.000000,5,5.000000,0.000000,25.539300,0,0,0,0,0,0,0
6,69999,76,50000,63,0,49,19999,0.100000,0,0,0.000000,5,1.000000,0.000000,8.944707,0,0,0,0,0,0,0
6,69999,77,60000,6,10000,40,9999,0.100000,0,0,0.000000,5,0.000000,0.000000,0.151501,0,0,0,0,0,0,0
6,69999,78,60000,25,10000,40,9999,0.100000,0,0,0.000000,5,0.000000,0.000000,21.040359,0,0,0,0,0,0,0
6,69999,79,60000,63,0,49,9999,0.100000,0,0,0.000000,5,1.000000,0.000000,1.227972,0,0,0,0,0,0,0
6,69999,80,60000,17,40000,40,9999,0.100000,0,0,0.000000,5,0.000000,0.000000,0.237843,0,0,0,0,0,0,0
6,69999,81,60000,25,10000,49,9999,0.100000,0,0,0.000000,5,1.000000,0.000000,6.505057,0,0,0,0,0,0,0
6,69999,82,60000,6,10000,40,9999,0.100000,0,0,0.000000,5,0.000000,0.000000,1.338584,0,0,0,0,0,0,0
6,69999,83,60000,17,40000,40,9999,0.100000,0,0,0.000000,5,0.000000,0.000000,1.798999,0,0,0,0,0,0,0
6,69999,84,60000,63,0,40,9999,0.100000,0,0,0.000000,5,0.000000,0.000000,0.864290,0,0,0,0,0,0,0
6,69999,85,60000,63,0,40,9999,0.100000,0,0,0.000000,5,0.000000,0.000000,0.202400,0,0,0,0,0,0,0
6,69999,86,60000,25,10000,49,9999,0.100000,0,0,0.000000,5,2.000000,0.000000,4.580849,0,0,0,0,0,0,0
6,69999,87,60000,25,10000,40,9999,0.100000,0,0,0.000000,5,0.000000,0.000000,0.123899,0,0,0,0,0,0,0
6,69999,88,60000,6,10000,40,9999,0.100000,0,0,0.000000,5,0.000000,0.000000,11.861288,0,0,0,0,0,0,0
6,69999,89,60000,17,40000,49,9999,0.100000,0,0,0.000000,5,1.000000,0.000000,14.779032,0,0,0,0,0,0,0
6,69999,90,60000,6,10000,40,9999,0.100000,0,0,0.000000,5,0.000000,0.000000,0.323110,0,0,0,0,0,0,0
6,69999,91,60000,63,0,49,9999,0.100000,0,0,0.000000,5,1.000000,0.000000,5.474046,0,0,0,0,0,0,0
6,69999,92,60000,63,0,40,9999,0.100000,0,0,0.000000,5,0.000000,0.000000,1.721606,0,0,0,0,0,0,0
6,69999,93,60000,6,10000,40,9999,0.100000,0,0,0.000000,5,0.000000,0.000000,0.093275,0,0,0,0,0,0,0
6,69999,94,60000,6,10000,49,9999,0.100000,0,0,0.000000,5,1.000000,0.000000,1.428240,0,0,0,0,0,0,0
6,69999,95,60000,25,10000,49,9999,0.100000,0,0,0.000000,5,4.000000,0.000000,14.990946,0,0,0,0,0,0,0
6,69999,96,60000,17,40000,40,9999,0.100000,0,0,0.000000,5,0.000000,0.000000,0.553710,0,0,0,0,0,0,0
6,69999,97,60000,63,0,40,9999,0.100000,0,0,0.000000,5,0.000000,0.000000,0.127667,0,0,0,0,0,0,0
6,69999,98,60000,25,10000,49,9999,0.100000,0,0,0.000000,5,1.000000,0.000000,2.976268,0,0,0,0,0,0,0
6,69999,99,60000,63,0,40,9999,0.100000,0,0,0.000000,5,0.000000,0.000000,0.283248,0,0,0,0,0,0,0
7,79999,0,70000,38,10000,40,9999,0.100000,0,0,0.000000,5,0.000000,0.000000,0.974212,0,0,0,0,0,0,0
7,79999,1,70000,6,10000,40,9999,0.100000,0,0,0.000000,5,0.000000,0.000000,0.464898,0,0,0,0,0,0,0
7,79999,2,70000,6,10000,49,9999,0.100000,0,0,0.000000,5,2.000000,0.000000,14.452642,0,0,0,0,0,0,0
7,79999,3,70000,63,0,40,9999,0.100000,0,0,0.000000,5,0.000000,0.000000,0.258041,0,0,0,0,0,0,0
7,79999,4,70000,63,0,40,9999,0.100000,0,0,0.000000,5,0.000000,0.000000,0.183737,0,0,0,0,0,0,0
7,79999,5,70000,17,40000,40,9999,0.100000,0,0,0.000000,5,0.000000,0.000000,0.085579,0,0,0,0,0,0,0
7,79999,6,70000,25,10000,40,9999,0.100000,0,0,0.000000,5,0.000000,0.000000,0.558293,0,0,0,0,0,0,0
7,79999,7,70000,38,10000,40,9999,0.100000,0,0,0.000000,5,0.000000,0.000000,0.250245,0,0,0,0,0,0,0
7,79999,8,70000,17,40000,49,9999,0.100000,0,0,0.000000,5,1.000000,0.000000,14.681106,0,0,0,0,0,0,0
7,79999,9,70000,25,10000,40,9999,0.100000,0,0,0.000000,5,0.000000,0.000000,1.079795,0,0,0,0,0,0,0
7,79999,10,70000,38,10000,40,9999,0.100000,0,0,0.000000,5,0.000000,0.000000,1.114205,0,0,0,0,0,0,0
7,79999,11,70000,38,10000,49,9999,0.100000,0,0,0.000000,5,7.000000,0.000000,38.447832,0,0,0,0,0,0,0
7,79999,12,70000,6,10000,40,9999,0.100000,0,0,0.000000,5,0.000000,0.000000,0.213714,0,0,0,0,0,0,0
7,79999,13,70000,6,10000,40,9999,0.100000,0,0,0.000000,5,0.000000,0.000000,0.543299,0,0,0,0,0,0,0
7,79999,14,70000,38,10000,40,9999,0.100000,0,0,0.000000,5,0.000000,0.000000,0.513096,0,0,0,0,0,0,0
7,79999,15,70000,63,0,40,9999,0.100000,0,0,0.000000,5,0.000000,0.000000,0.664412,0,0,0,0,0,0,0
7,79999,16,70000,63,0,40,9999,0.100000,0,0,0.000000,5,0.000000,0.000000,1.478195,0,0,0,0,0,0,0
7,79999,17,70000,17,40000,40,9999,0.100000,0,0,0.000000,5,0.000000,0.000000,0.123052,0,0,0,0,0,0,0
7,79999,18,70000,17,40000,40,9999,0.100000,0,0,0.000000,5,0.000000,0.000000,0.215550,0,0,0,0,0,0,0
7,79999,19,70000,63,0,40,9999,0.100000,0,0,0.000000,5,0.000000,0.000000,0.610256,0,0,0,0,0,0,0
7,79999,20,70000,17,40000,40,9999,0.100000,0,0,0.000000,5,0.000000,0.000000,0.338527,0,0,0,0,0,0,0
7,79999,21,70000,25,10000,40,9999,0.100000,0,0,0.000000,5,0.000000,0.000000,0.163013,0,0,0,0,0,0,0
7,79999,22,70000,25,10000,40,9999,0.100000,0,0,0.000000,5,0.000000,0.000000,0.161532,0,0,0,0,0,0,0
7,79999,23,70000,38,10000,40,9999,0.100000,0,0,0.000000,5,0.000000,0.000000,0.913081,0,0,0,0,0,0,0
7,79999,24,70000,38,10000,40,9999,0.100000,0,0,0.000000,5,0.000000,0.000000,0.220786,0,0,0,0,0,0,0
7,79999,25,70000,38,10000,40,9999,0.100000,0,0,0.000000,5,0.000000,0.000000,0.309231,0,0,0,0,0,0,0
7,79999,26,70000,25,10000,49,9999,0.100000,0,0,0.000000,5,1.000000,0.000000,1.204276,0,0,0,0,0,0,0
7,79999,27,70000,6,10000,40,9999,0.100000,0,0,0.000000,5,0.000000,0.000000,0.231254,0,0,0,0,0,0,0
7,79999,28,70000,63,0,40,9999,0.100000,0,0,0.000000,5,0.000000,0.000000,0.129440,0,0,0,0,0,0,0
7,79999,29,70000,17,40000,49,9999,0.100000,0,0,0.000000,5,2.000000,0.000000,13.607052,0,0,0,0,0,0,0
7,79999,30,70000,17,40000,40,9999,0.100000,0,0,0.000000,5,0.000000,0.000000,0.982961,0,0,0,0,0,0,0
7,79999,31,70000,38,10000,49,9999,0.100000,0,0,0.000000,5,5.000000,0.000000,9.597635,0,0,0,0,0,0,0
7,79999,32,70000,17,40000,40,9999,0.100000,0,0,0.000000,5,0.000000,0.000000,0.647628,0,0,0,0,0,0,0
7,79999,33,70000,25,10000,40,9999,0.100000,0,0,0.000000,5,0.000000,0.000000,2.465448,0,0,0,0,0,0,0
7,79999,34,70000,6,10000,40,9999,0.100000,0,0,0.000000,5,0.000000,0.000000,1.090274,0,0,0,0,0,0,0
7,79999,35,60000,17,40000,40,19999,0.100000,0,0,0.000000,5,0.000000,0.000000,0.243746,0,0,0,0,0,0,0
7,79999,36,70000,6,10000,40,9999,0.100000,0,0,0.000000,5,0.000000,0.000000,4.366295,0,0,0,0,0,0,0
7,79999,37,70000,17,40000,49,9999,0.100000,0,0,0.000000,5,2.000000,0.000000,10.490093,0,0,0,0,0,0,0
7,79999,38,70000,17,40000,40,9999,0.100000,0,0,0.000000,5,0.000000,0.000000,0.391435,0,0,0,0,0,0,0
7,79999,39,70000,17,40000,40,9999,0.100000,0,0,0.000000,5,0.000000,0.000000,0.333692,0,0,0,0,0,0,0
7,79999,40,70000,17,40000,40,9999,0.100000,0,0,0.000000,5,0.000000,0.000000,1.650196,0,0,0,0,0,0,0
7,79999,41,70000,6,10000,40,9999,0.100000,0,0,0.000000,5,0.000000,0.000000,0.187036,0,0,0,0,0,0,0
7,79999,42,70000,63,0,40,9999,0.100000,0,0,0.000000,5,0.000000,0.000000,0.120477,0,0,0,0,0,0,0
7,79999,43,70000,17,40000,49,9999,0.100000,0,0,0.000000,5,3.000000,0.000000,23.867954,0,0,0,0,0,0,0
7,79999,44,70000,6,10000,40,9999,0.100000,0,0,0.000000,5,0.000000,0.000000,0.849025,0,0,0,0,0,0,0
7,79999,45,70000,17,40000,40,9999,0.100000,0,0,0.000000,5,0.000000,0.000000,0.770292,0,0,0,0,0,0,0
7,79999,46,70000,6,10000,40,9999,0.100000,0,0,0.000000,5,0.000000,0.000000,1.816659,0,0,0,0,0,0,0
7,79999,47,70000,6,10000,40,9999,0.100000,0,0,0.000000,5,0.000000,0.000000,0.087890,0,0,0,0,0,0,0
7,79999,48,70000,63,0,40,9999,0.100000,0,0,0.000000,5,0.000000,0.000000,0.236294,0,0,0,0,0,0,0
7,79999,49,70000,6,10000,40,9999,0.100000,0,0,0.000000,5,0.000000,0.000000,0.825542,0,0,0,0,0,0,0
7,79999,50,70000,63,0,40,9999,0.100000,0,0,0.000000,5,0.000000,0.000000,1.790461,0,0,0,0,0,0,0
7,79999,51,70000,25,10000,40,9999,0.100000,0,0,0.000000,5,0.000000,0.000000,1.849687,0,0,0,0,0,0,0
7,79999,52,70000,6,10000,40,9999,0.100000,0,0,0.000000,5,0.000000,0.000000,0.578218,0,0,0,0,0,0,0
7,79999,53,70000,17,40000,40,9999,0.100000,0,0,0.000000,5,0.000000,0.000000,1.124855,0,0,0,0,0,0,0
7,79999,54,70000,17,40000,40,9999,0.100000,0,0,0.000000,5,0.000000,0.000000,0.772908,0,0,0,0,0,0,0
7,79999,55,70000,17,40000,40,9999,0.100000,0,0,0.000000,5,0.000000,0.000000,0.207978,0,0,0,0,0,0,0
7,79999,56,70000,6,10000,40,9999,0.100000,0,0,0.000000,5,0.000000,0.000000,0.168577,0,0,0,0,0,0,0
7,79999,57,70000,25,10000,49,9999,0.100000,0,0,0.000000,5,3.000000,0.000000,4.002044,0,0,0,0,0,0,0
7,79999,58,70000,38,10000,40,9999,0.100000,0,0,0.000000,5,0.000000,0.000000,0.113962,0,0,0,0,0,0,0
7,79999,59,70000,6,10000,49,9999,0.100000,0,0,0.000000,5,1.000000,0.000000,1.262898,0,0,0,0,0,0,0
7,79999,60,70000,63,0,49,9999,0.100000,0,0,0.000000,5,1.000000,0.000000,5.309220,0,0,0,0,0,0,0
7,79999,61,70000,17,40000,49,9999,0.100000,0,0,0.000000,5,8.000000,0.000000,17.468816,0,0,0,0,0,0,0
7,79999,62,60000,63,0,40,19999,0.100000,0,0,0.000000,5,0.000000,0.000000,0.108914,0,0,0,0,0,0,0
7,79999,63,70000,38,10000,40,9999,0.100000,0,0,0.000000,5,0.000000,0.000000,0.880583,0,0,0,0,0,0,0
7,79999,64,70000,25,10000,40,9999,0.100000,0,0,0.000000,5,0.000000,0.000000,0.203246,0,0,0,0,0,0,0
7,79999,65,70000,6,10000,40,9999,0.100000,0,0,0.000000,5,0.000000,0.000000,0.454012,0,0,0,0,0,0,0
7,79999,66,70000,63,0,49,9999,0.100000,0,0,0.000000,5,1.000000,0.000000,7.801547,0,0,0,0,0,0,0
7,79999,67,70000,25,10000,40,9999,0.100000,0,0,0.000000,5,0.000000,0.000000,0.484926,0,0,0,0,0,0,0
7,79999,68,70000,25,10000,40,9999,0.100000,0,0,0.000000,5,0.000000,0.000000,22.631429,0,0,0,0,0,0,0
7,79999,69,70000,63,0,40,9999,0.100000,0,0,0.000000,5,0.000000,0.000000,0.244534,0,0,0,0,0,0,0
7,79999,70,70000,63,0,40,9999,0.100000,0,0,0.000000,5,0.000000,0.000000,1.672937,0,0,0,0,0,0,0
7,79999,71,70000,63,0,40,9999,0.100000,0,0,0.000000,5,0.000000,0.000000,0.195063,0,0,0,0,0,0,0
7,79999,72,70000,17,40000,40,9999,0.100000,0,0,0.000000,5,0.000000,0.000000,0.389227,0,0,0,0,0,0,0
7,79999,73,70000,63,0,40,9999,0.100000,0,0,0.000000,5,0.000000,0.000000,0.208883,0,0,0,0,0,0,0
7,79999,74,70000,17,40000,40,9999,0.100000,0,0,0.000000,5,0.000000,0.000000,0.629705,0,0,0,0,0,0,0
7,79999,75,70000,6,10000,40,9999,0.100000,0,0,0.000000,5,0.000000,0.000000,0.216691,0,0,0,0,0,0,0
7,79999,76,70000,63,0,49,9999,0.100000,0,0,0.000000,5,1.000000,0.000000,11.000654,0,0,0,0,0,0,0
7,79999,77,70000,25,10000,40,9999,0.100000,0,0,0.000000,5,0.000000,0.000000,0.156497,0,0,0,0,0,0,0
7,79999,78,70000,25,10000,49,9999,0.100000,0,0,0.000000,5,3.000000,0.000000,6.136314,0,0,0,0,0,0,0
7,79999,79,70000,17,40000,49,9999,0.100000,0,0,0.000000,5,1.000000,0.000000,1.172054,0,0,0,0,0,0,0
7,79999,80,70000,38,10000,40,9999,0.100000,0,0,0.000000,5,0.000000,0.000000,0.241608,0,0,0,0,0,0,0
7,79999,81,70000,38,10000,40,9999,0.100000,0,0,0.000000,5,0.000000,0.000000,1.236032,0,0,0,0,0,0,0
7,79999,82,70000,25,10000,49,9999,0.100000,0,0,0.000000,5,2.000000,0.000000,5.340189,0,0,0,0,0,0,0
7,79999,83,70000,63,0,40,9999,0.100000,0,0,0.000000,5,0.000000,0.000000,0.648733,0,0,0,0,0,0,0
7,79999,84,70000,38,10000,40,9999,0.100000,0,0,0.000000,5,0.000000,0.000000,0.965982,0,0,0,0,0,0,0
7,79999,85,70000,63,0,40,9999,0.100000,0,0,0.000000,5,0.000000,0.000000,3.410346,0,0,0,0,0,0,0
7,79999,86,70000,17,40000,49,9999,0.100000,0,0,0.000000,5,1.000000,0.000000,5.904675,0,0,0,0,0,0,0
7,79999,87,70000,63,0,40,9999,0.100000,0,0,0.000000,5,0.000000,0.000000,0.099156,0,0,0,0,0,0,0
7,79999,88,70000,38,10000,49,9999,0.100000,0,0,0.000000,5,3.000000,0.000000,4.310162,0,0,0,0,0,0,0
7,79999,89,70000,38,10000,49,9999,0.100000,0,0,0.000000,5,1.000000,0.000000,12.971264,0,0,0,0,0,0,0
7,79999,90,70000,17,40000,40,9999,0.100000,0,0,0.000000,5,0.000000,0.000000,0.308496,0,0,0,0,0,0,0
7,79999,91,70000,25,10000,40,9999,0.100000,0,0,0.000000,5,0.000000,0.000000,3.727867,0,0,0,0,0,0,0
7,79999,92,70000,38,10000,49,9999,0.100000,0,0,0.000000,5,1.000000,0.000000,7.043850,0,0,0,0,0,0,0
7,79999,93,70000,38,10000,40,9999,0.100000,0,0,0.000000,5,0.000000,0.000000,0.093738,0,0,0,0,0,0,0
7,79999,94,70000,6,10000,49,9999,0.100000,0,0,0.000000,5,1.000000,0.000000,1.364651,0,0,0,0,0,0,0
7,79999,95,70000,63,0,49,9999,0.100000,0,0,0.000000,5,7.000000,0.000000,11.693880,0,0,0,0,0,0,0
7,79999,96,70000,17,40000,40,9999,0.100000,0,0,0.000000,5,0.000000,0.000000,0.856877,0,0,0,0,0,0,0
7,79999,97,70000,63,0,40,9999,0.100000,0,0,0.000000,5,0.000000,0.000000,0.117514,0,0,0,0,0,0,0
7,79999,98,70000,63,0,40,9999,0.100000,0,0,0.000000,5,0.000000,0.000000,0.945382,0,0,0,0,0,0,0
7,79999,99,70000,17,40000,40,9999,0.100000,0,0,0.000000,5,0.000000,0.000000,0.277806,0,0,0,0,0,0,0
8,89999,0,80000,6,10000,40,9999,0.100000,0,0,0.000000,5,0.000000,0.000000,0.960762,0,0,0,0,0,0,0
8,89999,1,80000,17,40000,40,9999,0.100000,0,0,0.000000,5,0.000000,0.000000,0.413854,0,0,0,0,0,0,0
8,89999,2,80000,25,10000,49,9999,0.100000,0,0,0.000000,5,2.000000,0.000000,11.892110,0,0,0,0,0,0,0
8,89999,3,70000,63,0,40,19999,0.100000,0,0,0.000000,5,0.000000,0.000000,0.256596,0,0,0,0,0,0,0
8,89999,4,80000,25,10000,40,9999,0.100000,0,0,0.000000,5,0.000000,0.000000,0.492756,0,0,0,0,0,0,0
8,89999,5,80000,25,10000,40,9999,0.100000,0,0,0.000000,5,0.000000,0.000000,0.083535,0,0,0,0,0,0,0
8,89999,6,80000,25,10000,40,9999,0.100000,0,0,0.000000,5,0.000000,0.000000,0.611686,0,0,0,0,0,0,0
8,89999,7,80000,17,40000,40,9999,0.100000,0,0,0.000000,5,0.000000,0.000000,0.254881,0,0,0,0,0,0,0
8,89999,8,80000,38,10000,49,9999,0.100000,0,0,0.000000,5,1.000000,0.000000,6.548274,0,0,0,0,0,0,0
8,89999,9,80000,17,40000,40,9999,0.100000,0,0,0.000000,5,0.000000,0.000000,1.015145,0,0,0,0,0,0,0
8,89999,10,80000,25,10000,49,9999,0.100000,0,0,0.000000,5,1.000000,0.000000,1.415573,0,0,0,0,0,0,0
8,89999,11,80000,63,0,40,9999,0.100000,0,0,0.000000,5,0.000000,0.000000,1.660590,0,0,0,0,0,0,0
8,89999,12,80000,25,10000,40,9999,0.100000,0,0,0.000000,5,0.000000,0.000000,0.482575,0,0,0,0,0,0,0
8,89999,13,80000,25,10000,40,9999,0.100000,0,0,0.000000,5,0.000000,0.000000,0.413997,0,0,0,0,0,0,0
8,89999,14,80000,25,10000,40,9999,0.100000,0,0,0.000000,5,0.000000,0.000000,0.583841,0,0,0,0,0,0,0
8,89999,15,80000,25,10000,40,9999,0.100000,0,0,0.000000,5,0.000000,0.000000,0.480186,0,0,0,0,0,0,0
8,89999,16,80000,17,40000,40,9999,0.100000,0,0,0.000000,5,0.000000,0.000000,0.474723,0,0,0,0,0,0,0
8,89999,17,80000,63,0,40,9999,0.100000,0,0,0.000000,5,0.000000,0.000000,0.310244,0,0,0,0,0,0,0
8,89999,18,80000,6,10000,40,9999,0.100000,0,0,0.000000,5,0.000000,0.000000,0.222842,0,0,0,0,0,0,0
8,89999,19,80000,63,0,40,9999,0.100000,0,0,0.000000,5,0.000000,0.000000,0.439048,0,0,0,0,0,0,0
8,89999,20,80000,25,10000,40,9999,0.100000,0,0,0.000000,5,0.000000,0.000000,0.322248,0,0,0,0,0,0,0
8,89999,21,80000,17,40000,40,9999,0.100000,0,0,0.000000,5,0.000000,0.000000,0.353244,0,0,0,0,0,0,0
8,89999,22,80000,17,40000,40,9999,0.100000,0,0,0.000000,5,0.000000,0.000000,0.229758,0,0,0,0,0,0,0
8,89999,23,80000,17,40000,40,9999,0.100000,0,0,0.000000,5,0.000000,0.000000,0.857743,0,0,0,0,0,0,0
8,89999,24,80000,6,10000,40,9999,0.100000,0,0,0.000000,5,0.000000,0.000000,0.173999,0,0,0,0,0,0,0
8,89999,25,80000,17,40000,40,9999,0.100000,0,0,0.000000,5,0.000000,0.000000,0.304547,0,0,0,0,0,0,0
8,89999,26,80000,25,10000,40,9999,0.100000,0,0,0.000000,5,0.000000,0.000000,0.445385,0,0,0,0,0,0,0
8,89999,27,80000,38,10000,40,9999,0.100000,0,0,0.000000,5,0.000000,0.000000,0.227870,0,0,0,0,0,0,0
8,89999,28,80000,25,10000,40,9999,0.100000,0,0,0.000000,5,0.000000,0.000000,0.135239,0,0,0,0,0,0,0
8,89999,29,80000,25,10000,49,9999,0.100000,0,0,0.000000,5,3.000000,0.000000,8.493223,0,0,0,0,0,0,0
8,89999,30,80000,63,0,40,9999,0.100000,0,0,0.000000,5,0.000000,0.000000,0.610655,0,0,0,0,0,0,0
8,89999,31,80000,38,10000,49,9999,0.100000,0,0,0.000000,5,1.000000,0.000000,3.317939,0,0,0,0,0,0,0
8,89999,32,80000,25,10000,40,9999,0.100000,0,0,0.000000,5,0.000000,0.000000,0.686841,0,0,0,0,0,0,0
8,89999,33,80000,38,10000,40,9999,0.100000,0,0,0.000000,5,0.000000,0.000000,0.708471,0,0,0,0,0,0,0
8,89999,34,80000,17,40000,40,9999,0.100000,0,0,0.000000,5,0.000000,0.000000,2.648239,0,0,0,0,0,0,0
8,89999,35,80000,17,40000,40,9999,0.100000,0,0,0.000000,5,0.000000,0.000000,0.211966,0,0,0,0,0,0,0
8,89999,36,80000,17,40000,49,9999,0.100000,0,0,0.000000,5,1.000000,0.000000,3.328054,0,0,0,0,0,0,0
8,89999,37,80000,6,10000,49,9999,0.100000,0,0,0.000000,5,1.000000,0.000000,5.960431,0,0,0,0,0,0,0
8,89999,38,80000,63,0,40,9999,0.100000,0,0,0.000000,5,0.000000,0.000000,0.271338,0,0,0,0,0,0,0
8,89999,39,80000,38,10000,40,9999,0.100000,0,0,0.000000,5,0.000000,0.000000,0.289524,0,0,0,0,0,0,0
8,89999,40,80000,17,40000,40,9999,0.100000,0,0,0.000000,5,0.000000,0.000000,1.965748,0,0,0,0,0,0,0
8,89999,41,80000,6,10000,40,9999,0.100000,0,0,0.000000,5,0.000000,0.000000,0.455442,0,0,0,0,0,0,0
8,89999,42,80000,63,0,40,9999,0.100000,0,0,0.000000,5,0.000000,0.000000,0.368051,0,0,0,0,0,0,0
8,89999,43,80000,25,10000,49,9999,0.100000,0,0,0.000000,5,3.000000,0.000000,10.674199,0,0,0,0,0,0,0
8,89999,44,80000,17,40000,40,9999,0.100000,0,0,0.000000,5,0.000000,0.000000,0.908972,0,0,0,0,0,0,0
8,89999,45,80000,63,0,40,9999,0.100000,0,0,0.000000,5,0.000000,0.000000,0.830128,0,0,0,0,0,0,0
8,89999,46,80000,63,0,49,9999,0.100000,0,0,0.000000,5,1.000000,0.000000,1.615672,0,0,0,0,0,0,0
8,89999,47,80000,38,10000,40,9999,0.100000,0,0,0.000000,5,0.000000,0.000000,0.111001,0,0,0,0,0,0,0
8,89999,48,80000,25,10000,40,9999,0.100000,0,0,0.000000,5,0.000000,0.000000,0.285845,0,0,0,0,0,0,0
8,89999,49,80000,63,0,40,9999,0.100000,0,0,0.000000,5,0.000000,0.000000,1.315537,0,0,0,0,0,0,0
8,89999,50,80000,38,10000,40,9999,0.100000,0,0,0.000000,5,0.000000,0.000000,0.598836,0,0,0,0,0,0,0
8,89999,51,80000,38,10000,49,9999,0.100000,0,0,0.000000,5,4.000000,0.000000,12.705475,0,0,0,0,0,0,0
8,89999,52,80000,38,10000,40,9999,0.100000,0,0,0.000000,5,0.000000,0.000000,0.328116,0,0,0,0,0,0,0
8,89999,53,80000,63,0,40,9999,0.100000,0,0,0.000000,5,0.000000,0.000000,0.880722,0,0,0,0,0,0,0
8,89999,54,80000,17,40000,40,9999,0.100000,0,0,0.000000,5,0.000000,0.000000,1.047709,0,0,0,0,0,0,0
8,89999,55,80000,25,10000,40,9999,0.100000,0,0,0.000000,5,0.000000,0.000000,0.310833,0,0,0,0,0,0,0
8,89999,56,80000,25,10000,40,9999,0.100000,0,0,0.000000,5,0.000000,0.000000,0.183487,0,0,0,0,0,0,0
8,89999,57,80000,38,10000,40,9999,0.100000,0,0,0.000000,5,0.000000,0.000000,0.323709,0,0,0,0,0,0,0
8,89999,58,80000,17,40000,40,9999,0.100000,0,0,0.000000,5,0.000000,0.000000,0.113194,0,0,0,0,0,0,0
8,89999,59,80000,25,10000,40,9999,0.100000,0,0,0.000000,5,0.000000,0.000000,0.627489,0,0,0,0,0,0,0
8,89999,60,80000,38,10000,40,9999,0.100000,0,0,0.000000,5,0.000000,0.000000,2.385629,0,0,0,0,0,0,0
8,89999,61,80000,63,0,40,9999,0.100000,0,0,0.000000,5,0.000000,0.000000,0.130367,0,0,0,0,0,0,0
8,89999,62,80000,25,10000,40,9999,0.100000,0,0,0.000000,5,0.000000,0.000000,0.108980,0,0,0,0,0,0,0
8,89999,63,80000,6,10000,40,9999,0.100000,0,0,0.000000,5,0.000000,0.000000,0.959397,0,0,0,0,0,0,0
8,89999,64,80000,25,10000,40,9999,0.100000,0,0,0.000000,5,0.000000,0.000000,0.481769,0,0,0,0,0,0,0
8,89999,65,80000,25,10000,40,9999,0.100000,0,0,0.000000,5,0.000000,0.000000,0.856758,0,0,0,0,0,0,0
8,89999,66,80000,25,10000,49,9999,0.100000,0,0,0.000000,5,1.000000,0.000000,6.188742,0,0,0,0,0,0,0
8,89999,67,80000,25,10000,40,9999,0.100000,0,0,0.000000,5,0.000000,0.000000,0.418826,0,0,0,0,0,0,0
8,89999,68,80000,38,10000,49,9999,0.100000,0,0,0.000000,5,1.000000,0.000000,8.024362,0,0,0,0,0,0,0
8,89999,69,80000,6,10000,40,9999,0.100000,0,0,0.000000,5,0.000000,0.000000,0.213992,0,0,0,0,0,0,0
8,89999,70,80000,17,40000,40,9999,0.100000,0,0,0.000000,5,0.000000,0.000000,0.269979,0,0,0,0,0,0,0
8,89999,71,80000,38,10000,40,9999,0.100000,0,0,0.000000,5,0.000000,0.000000,0.187901,0,0,0,0,0,0,0
8,89999,72,80000,38,10000,40,9999,0.100000,0,0,0.000000,5,0.000000,0.000000,0.290047,0,0,0,0,0,0,0
8,89999,73,80000,6,10000,40,9999,0.100000,0,0,0.000000,5,0.000000,0.000000,0.174791,0,0,0,0,0,0,0
8,89999,74,80000,63,0,40,9999,0.100000,0,0,0.000000,5,0.000000,0.000000,0.362192,0,0,0,0,0,0,0
8,89999,75,80000,38,10000,40,9999,0.100000,0,0,0.000000,5,0.000000,0.000000,0.412480,0,0,0,0,0,0,0
8,89999,76,80000,38,10000,40,9999,0.100000,0,0,0.000000,5,0.000000,0.000000,11.422889,0,0,0,0,0,0,0
8,89999,77,80000,63,0,40,9999,0.100000,0,0,0.000000,5,0.000000,0.000000,0.155330,0,0,0,0,0,0,0
8,89999,78,80000,63,0,40,9999,0.100000,0,0,0.000000,5,0.000000,0.000000,0.313392,0,0,0,0,0,0,0
8,89999,79,80000,38,10000,40,9999,0.100000,0,0,0.000000,5,0.000000,0.000000,0.267296,0,0,0,0,0,0,0
8,89999,80,80000,63,0,40,9999,0.100000,0,0,0.000000,5,0.000000,0.000000,0.254367,0,0,0,0,0,0,0
8,89999,81,80000,17,40000,40,9999,0.100000,0,0,0.000000,5,0.000000,0.000000,1.117524,0,0,0,0,0,0,0
8,89999,82,80000,63,0,40,9999,0.100000,0,0,0.000000,5,0.000000,0.000000,4.436928,0,0,0,0,0,0,0
8,89999,83,80000,38,10000,40,9999,0.100000,0,0,0.000000,5,0.000000,0.000000,2.305188,0,0,0,0,0,0,0
8,89999,84,80000,38,10000,40,9999,0.100000,0,0,0.000000,5,0.000000,0.000000,0.906917,0,0,0,0,0,0,0
8,89999,85,80000,17,40000,40,9999,0.100000,0,0,0.000000,5,0.000000,0.000000,0.187570,0,0,0,0,0,0,0
8,89999,86,80000,25,10000,40,9999,0.100000,0,0,0.000000,5,0.000000,0.000000,0.737351,0,0,0,0,0,0,0
8,89999,87,80000,63,0,40,9999,0.100000,0,0,0.000000,5,0.000000,0.000000,0.097770,0,0,0,0,0,0,0
8,89999,88,80000,63,0,40,9999,0.100000,0,0,0.000000,5,0.000000,0.000000,2.197623,0,0,0,0,0,0,0
8,89999,89,80000,17,40000,49,9999,0.100000,0,0,0.000000,5,2.000000,0.000000,12.364093,0,0,0,0,0,0,0
8,89999,90,80000,38,10000,40,9999,0.100000,0,0,0.000000,5,0.000000,0.000000,0.167530,0,0,0,0,0,0,0
8,89999,91,80000,6,10000,40,9999,0.100000,0,0,0.000000,5,0.000000,0.000000,0.844724,0,0,0,0,0,0,0
8,89999,92,80000,63,0,40,9999,0.100000,0,0,0.000000,5,0.000000,0.000000,7.726511,0,0,0,0,0,0,0
8,89999,93,80000,63,0,49,9999,0.100000,0,0,0.000000,5,6.000000,0.000000,13.391427,0,0,0,0,0,0,0
8,89999,94,80000,38,10000,40,9999,0.100000,0,0,0.000000,5,0.000000,0.000000,0.722822,0,0,0,0,0,0,0
8,89999,95,80000,63,0,49,9999,0.100000,0,0,0.000000,5,4.000000,0.000000,10.163192,0,0,0,0,0,0,0
8,89999,96,80000,17,40000,40,9999,0.100000,0,0,0.000000,5,0.000000,0.000000,1.346417,0,0,0,0,0,0,0
8,89999,97,80000,63,0,40,9999,0.100000,0,0,0.000000,5,0.000000,0.000000,0.236137,0,0,0,0,0,0,0
8,89999,98,80000,6,10000,40,9999,0.100000,0,0,0.000000,5,0.000000,0.000000,0.472254,0,0,0,0,0,0,0
8,89999,99,80000,17,40000,40,9999,0.100000,0,0,0.000000,5,0.000000,0.000000,0.280253,0,0,0,0,0,0,0
9,99999,0,90000,38,10000,40,9999,0.100000,0,0,0.000000,5,0.000000,0.000000,1.033452,0,0,0,0,0,0,0
9,99999,1,90000,6,10000,40,9999,0.100000,0,0,0.000000,5,0.000000,0.000000,0.363047,0,0,0,0,0,0,0
9,99999,2,90000,17,40000,40,9999,0.100000,0,0,0.000000,5,0.000000,0.000000,5.537793,0,0,0,0,0,0,0
9,99999,3,90000,6,10000,40,9999,0.100000,0,0,0.000000,5,0.000000,0.000000,0.255333,0,0,0,0,0,0,0
9,99999,4,90000,6,80000,40,9999,0.100000,0,0,0.000000,5,0.000000,0.000000,0.638304,0,0,0,0,0,0,0
9,99999,5,90000,38,10000,40,9999,0.100000,0,0,0.000000,5,0.000000,0.000000,0.089252,0,0,0,0,0,0,0
9,99999,6,90000,17,40000,40,9999,0.100000,0,0,0.000000,5,0.000000,0.000000,0.783709,0,0,0,0,0,0,0
9,99999,7,90000,6,10000,40,9999,0.100000,0,0,0.000000,5,0.000000,0.000000,0.252990,0,0,0,0,0,0,0
9,99999,8,90000,17,40000,40,9999,0.100000,0,0,0.000000,5,0.000000,0.000000,2.086765,0,0,0,0,0,0,0
9,99999,9,90000,17,40000,40,9999,0.100000,0,0,0.000000,5,0.000000,0.000000,1.046579,0,0,0,0,0,0,0
9,99999,10,90000,17,40000,40,9999,0.100000,0,0,0.000000,5,0.000000,0.000000,0.888481,0,0,0,0,0,0,0
9,99999,11,90000,17,40000,40,9999,0.100000,0,0,0.000000,5,0.000000,0.000000,1.130356,0,0,0,0,0,0,0
9,99999,12,90000,38,10000,40,9999,0.100000,0,0,0.000000,5,0.000000,0.000000,0.887186,0,0,0,0,0,0,0
9,99999,13,90000,25,10000,49,9999,0.100000,0,0,0.000000,5,2.000000,0.000000,4.197678,0,0,0,0,0,0,0
9,99999,14,90000,17,40000,40,9999,0.100000,0,0,0.000000,5,0.000000,0.000000,0.484301,0,0,0,0,0,0,0
9,99999,15,90000,6,10000,49,9999,0.100000,0,0,0.000000,5,2.000000,0.000000,3.270557,0,0,0,0,0,0,0
9,99999,16,90000,25,10000,40,9999,0.100000,0,0,0.000000,5,0.000000,0.000000,1.171343,0,0,0,0,0,0,0
9,99999,17,90000,25,10000,40,9999,0.100000,0,0,0.000000,5,0.000000,0.000000,0.601458,0,0,0,0,0,0,0
9,99999,18,90000,17,40000,40,9999,0.100000,0,0,0.000000,5,0.000000,0.000000,0.274086,0,0,0,0,0,0,0
9,99999,19,80000,63,0,49,19999,0.100000,0,0,0.000000,5,5.000000,0.000000,5.486945,0,0,0,0,0,0,0
9,99999,20,90000,6,10000,40,9999,0.100000,0,0,0.000000,5,0.000000,0.000000,0.326944,0,0,0,0,0,0,0
9,99999,21,90000,63,0,40,9999,0.100000,0,0,0.000000,5,0.000000,0.000000,0.549799,0,0,0,0,0,0,0
9,99999,22,90000,6,10000,40,9999,0.100000,0,0,0.000000,5,0.000000,0.000000,0.312438,0,0,0,0,0,0,0
9,99999,23,90000,17,40000,49,9999,0.100000,0,0,0.000000,5,4.000000,0.000000,5.452086,0,0,0,0,0,0,0
9,99999,24,90000,25,10000,40,9999,0.100000,0,0,0.000000,5,0.000000,0.000000,0.168430,0,0,0,0,0,0,0
9,99999,25,90000,17,40000,40,9999,0.100000,0,0,0.000000,5,0.000000,0.000000,0.303968,0,0,0,0,0,0,0
9,99999,26,90000,38,10000,40,9999,0.100000,0,0,0.000000,5,0.000000,0.000000,0.847699,0,0,0,0,0,0,0
9,99999,27,90000,17,40000,40,9999,0.100000,0,0,0.000000,5,0.000000,0.000000,0.216190,0,0,0,0,0,0,0
9,99999,28,90000,6,10000,40,9999,0.100000,0,0,0.000000,5,0.000000,0.000000,0.136064,0,0,0,0,0,0,0
9,99999,29,90000,6,10000,49,9999,0.100000,0,0,0.000000,5,3.000000,0.000000,9.136406,0,0,0,0,0,0,0
9,99999,30,90000,6,10000,40,9999,0.100000,0,0,0.000000,5,0.000000,0.000000,0.900926,0,0,0,0,0,0,0
9,99999,31,80000,38,10000,40,19999,0.100000,0,0,0.000000,5,0.000000,0.000000,3.230081,0,0,0,0,0,0,0
9,99999,32,90000,25,10000,40,9999,0.100000,0,0,0.000000,5,0.000000,0.000000,0.706951,0,0,0,0,0,0,0
9,99999,33,90000,6,10000,40,9999,0.100000,0,0,0.000000,5,0.000000,0.000000,1.052919,0,0,0,0,0,0,0
9,99999,34,90000,6,10000,49,9999,0.100000,0,0,0.000000,5,1.000000,0.000000,1.681878,0,0,0,0,0,0,0
9,99999,35,90000,25,10000,40,9999,0.100000,0,0,0.000000,5,0.000000,0.000000,0.332576,0,0,0,0,0,0,0
9,99999,36,90000,17,40000,49,9999,0.100000,0,0,0.000000,5,2.000000,0.000000,3.384633,0,0,0,0,0,0,0
9,99999,37,90000,6,10000,40,9999,0.100000,0,0,0.000000,5,0.000000,0.000000,0.993534,0,0,0,0,0,0,0
9,99999,38,90000,63,0,40,9999,0.100000,0,0,0.000000,5,0.000000,0.000000,0.203759,0,0,0,0,0,0,0
9,99999,39,90000,25,10000,40,9999,0.100000,0,0,0.000000,5,0.000000,0.000000,0.415335,0,0,0,0,0,0,0
9,99999,40,90000,25,10000,40,9999,0.100000,0,0,0.000000,5,0.000000,0.000000,1.704848,0,0,0,0,0,0,0
9,99999,41,90000,25,10000,40,9999,0.100000,0,0,0.000000,5,0.000000,0.000000,0.739370,0,0,0,0,0,0,0
9,99999,42,90000,38,10000,40,9999,0.100000,0,0,0.000000,5,0.000000,0.000000,0.551661,0,0,0,0,0,0,0
9,99999,43,90000,63,0,40,9999,0.100000,0,0,0.000000,5,0.000000,0.000000,0.822604,0,0,0,0,0,0,0
9,99999,44,90000,17,40000,40,9999,0.100000,0,0,0.000000,5,0.000000,0.000000,0.983522,0,0,0,0,0,0,0
9,99999,45,90000,38,10000,40,9999,0.100000,0,0,0.000000,5,0.000000,0.000000,0.393351,0,0,0,0,0,0,0
9,99999,46,90000,25,10000,40,9999,0.100000,0,0,0.000000,5,0.000000,0.000000,4.698623,0,0,0,0,0,0,0
9,99999,47,90000,6,80000,40,9999,0.100000,0,0,0.000000,5,0.000000,0.000000,0.393099,0,0,0,0,0,0,0
9,99999,48,90000,6,80000,40,9999,0.100000,0,0,0.000000,5,0.000000,0.000000,0.134575,0,0,0,0,0,0,0
9,99999,49,90000,6,10000,49,9999,0.100000,0,0,0.000000,5,1.000000,0.000000,2.408141,0,0,0,0,0,0,0
9,99999,50,90000,63,0,40,9999,0.100000,0,0,0.000000,5,0.000000,0.000000,1.305745,0,0,0,0,0,0,0
9,99999,51,90000,63,0,49,9999,0.100000,0,0,0.000000,5,4.000000,0.000000,8.289494,0,0,0,0,0,0,0
9,99999,52,90000,17,40000,40,9999,0.100000,0,0,0.000000,5,0.000000,0.000000,0.285113,0,0,0,0,0,0,0
9,99999,53,90000,6,10000,40,9999,0.100000,0,0,0.000000,5,0.000000,0.000000,1.012151,0,0,0,0,0,0,0
9,99999,54,90000,6,10000,49,9999,0.100000,0,0,0.000000,5,1.000000,0.000000,1.785973,0,0,0,0,0,0,0
9,99999,55,90000,6,10000,40,9999,0.100000,0,0,0.000000,5,0.000000,0.000000,0.385137,0,0,0,0,0,0,0
9,99999,56,90000,17,40000,40,9999,0.100000,0,0,0.000000,5,0.000000,0.000000,0.180508,0,0,0,0,0,0,0
9,99999,57,90000,6,10000,40,9999,0.100000,0,0,0.000000,5,0.000000,0.000000,0.448882,0,0,0,0,0,0,0
9,99999,58,90000,63,0,40,9999,0.100000,0,0,0.000000,5,0.000000,0.000000,0.111977,0,0,0,0,0,0,0
9,99999,59,90000,38,10000,40,9999,0.100000,0,0,0.000000,5,0.000000,0.000000,1.078378,0,0,0,0,0,0,0
9,99999,60,90000,6,10000,49,9999,0.100000,0,0,0.000000,5,1.000000,0.000000,6.569914,0,0,0,0,0,0,0
9,99999,61,90000,17,40000,40,9999,0.100000,0,0,0.000000,5,0.000000,0.000000,0.127341,0,0,0,0,0,0,0
9,99999,62,90000,17,40000,40,9999,0.100000,0,0,0.000000,5,0.000000,0.000000,0.110188,0,0,0,0,0,0,0
9,99999,63,90000,6,80000,40,9999,0.100000,0,0,0.000000,5,0.000000,0.000000,1.081766,0,0,0,0,0,0,0
9,99999,64,90000,38,10000,40,9999,0.100000,0,0,0.000000,5,0.000000,0.000000,0.659187,0,0,0,0,0,0,0
9,99999,65,90000,25,10000,40,9999,0.100000,0,0,0.000000,5,0.000000,0.000000,0.884716,0,0,0,0,0,0,0
9,99999,66,90000,25,10000,40,9999,0.100000,0,0,0.000000,5,0.000000,0.000000,9.499582,0,0,0,0,0,0,0
9,99999,67,90000,25,10000,40,9999,0.100000,0,0,0.000000,5,0.000000,0.000000,0.406080,0,0,0,0,0,0,0
9,99999,68,90000,63,0,40,9999,0.100000,0,0,0.000000,5,0.000000,0.000000,1.392640,0,0,0,0,0,0,0
9,99999,69,90000,6,10000,40,9999,0.100000,0,0,0.000000,5,0.000000,0.000000,0.171943,0,0,0,0,0,0,0
9,99999,70,90000,63,0,40,9999,0.100000,0,0,0.000000,5,0.000000,0.000000,0.386394,0,0,0,0,0,0,0
9,99999,71,90000,38,10000,40,9999,0.100000,0,0,0.000000,5,0.000000,0.000000,0.149857,0,0,0,0,0,0,0
9,99999,72,90000,63,0,40,9999,0.100000,0,0,0.000000,5,0.000000,0.000000,0.231944,0,0,0,0,0,0,0
9,99999,73,90000,17,40000,40,9999,0.100000,0,0,0.000000,5,0.000000,0.000000,0.345554,0,0,0,0,0,0,0
9,99999,74,90000,63,0,40,9999,0.100000,0,0,0.000000,5,0.000000,0.000000,0.369579,0,0,0,0,0,0,0
9,99999,75,90000,6,80000,40,9999,0.100000,0,0,0.000000,5,0.000000,0.000000,0.176718,0,0,0,0,0,0,0
9,99999,76,90000,17,40000,49,9999,0.100000,0,0,0.000000,5,5.000000,0.000000,12.843601,0,0,0,0,0,0,0
9,99999,77,90000,25,10000,40,9999,0.100000,0,0,0.000000,5,0.000000,0.000000,0.153872,0,0,0,0,0,0,0
9,99999,78,90000,63,0,40,9999,0.100000,0,0,0.000000,5,0.000000,0.000000,0.489938,0,0,0,0,0,0,0
9,99999,79,90000,63,0,40,9999,0.100000,0,0,0.000000,5,0.000000,0.000000,0.750049,0,0,0,0,0,0,0
9,99999,80,90000,25,10000,40,9999,0.100000,0,0,0.000000,5,0.000000,0.000000,0.263710,0,0,0,0,0,0,0
9,99999,81,90000,17,40000,49,9999,0.100000,0,0,0.000000,5,5.000000,0.000000,6.097292,0,0,0,0,0,0,0
9,99999,82,90000,6,10000,49,9999,0.100000,0,0,0.000000,5,1.000000,0.000000,7.250253,0,0,0,0,0,0,0
9,99999,83,90000,17,40000,49,9999,0.100000,0,0,0.000000,5,1.000000,0.000000,1.604773,0,0,0,0,0,0,0
9,99999,84,80000,38,10000,49,19999,0.100000,0,0,0.000000,5,5.000000,0.000000,5.699419,0,0,0,0,0,0,0
9,99999,85,90000,25,10000,40,9999,0.100000,0,0,0.000000,5,0.000000,0.000000,0.183555,0,0,0,0,0,0,0
9,99999,86,90000,17,40000,40,9999,0.100000,0,0,0.000000,5,0.000000,0.000000,1.723803,0,0,0,0,0,0,0
9,99999,87,90000,63,0,40,9999,0.100000,0,0,0.000000,5,0.000000,0.000000,0.094633,0,0,0,0,0,0,0
9,99999,88,90000,63,0,40,9999,0.100000,0,0,0.000000,5,0.000000,0.000000,1.852786,0,0,0,0,0,0,0
9,99999,89,90000,38,10000,49,9999,0.100000,0,0,0.000000,5,2.000000,0.000000,16.127961,0,0,0,0,0,0,0
9,99999,90,90000,38,10000,40,9999,0.065000,0,0,0.000000,5,0.000000,0.000000,0.128953,0,0,0,0,0,0,0
9,99999,91,90000,17,40000,49,9999,0.100000,0,0,0.000000,5,2.000000,0.000000,8.319346,0,0,0,0,0,0,0
9,99999,92,90000,63,0,40,9999,0.100000,0,0,0.000000,5,0.000000,0.000000,1.692453,0,0,0,0,0,0,0
9,99999,93,90000,17,40000,40,9999,0.100000,0,0,0.000000,5,0.000000,0.000000,0.094599,0,0,0,0,0,0,0
9,99999,94,90000,25,10000,40,9999,0.100000,0,0,0.000000,5,0.000000,0.000000,1.113815,0,0,0,0,0,0,0
9,99999,95,90000,38,10000,40,9999,0.100000,0,0,0.000000,5,0.000000,0.000000,1.745863,0,0,0,0,0,0,0
9,99999,96,90000,38,10000,40,9999,0.100000,0,0,0.000000,5,0.000000,0.000000,0.884890,0,0,0,0,0,0,0
9,99999,97,90000,25,10000,49,9999,0.100000,0,0,0.000000,5,7.000000,0.000000,14.861233,0,0,0,0,0,0,0
9,99999,98,90000,63,0,40,9999,0.100000,0,0,0.000000,5,0.000000,0.000000,0.838396,0,0,0,0,0,0,0
9,99999,99,90000,17,40000,40,9999,0.100000,0,0,0.000000,5,0.000000,0.000000,0.293584,0,0,0,0,0,0,0
10,109999,0,100000,63,0,40,9999,0.100000,0,0,0.000000,5,0.000000,0.000000,0.981675,0,0,0,0,0,0,0
10,109999,1,100000,6,10000,40,9999,0.100000,0,0,0.000000,5,0.000000,0.000000,0.340750,0,0,0,0,0,0,0
10,109999,2,100000,17,40000,40,9999,0.100000,0,0,0.000000,5,0.000000,0.000000,4.763000,0,0,0,0,0,0,0
10,109999,3,100000,6,10000,40,9999,0.100000,0,0,0.000000,5,0.000000,0.000000,0.271381,0,0,0,0,0,0,0
10,109999,4,100000,25,10000,40,9999,0.100000,0,0,0.000000,5,0.000000,0.000000,0.444579,0,0,0,0,0,0,0
10,109999,5,100000,63,0,40,9999,0.100000,0,0,0.000000,5,0.000000,0.000000,0.083310,0,0,0,0,0,0,0
10,109999,6,100000,63,0,40,9999,0.100000,0,0,0.000000,5,0.000000,0.000000,2.274305,0,0,0,0,0,0,0
10,109999,7,100000,63,0,40,9999,0.100000,0,0,0.000000,5,0.000000,0.000000,0.266553,0,0,0,0,0,0,0
10,109999,8,100000,25,10000,40,9999,0.100000,0,0,0.000000,5,0.000000,0.000000,0.377039,0,0,0,0,0,0,0
10,109999,9,100000,63,0,40,9999,0.100000,0,0,0.000000,5,0.000000,0.000000,1.060766,0,0,0,0,0,0,0
10,109999,10,100000,25,10000,40,9999,0.100000,0,0,0.000000,5,0.000000,0.000000,0.806579,0,0,0,0,0,0,0
10,109999,11,100000,6,80000,40,9999,0.100000,0,0,0.000000,5,0.000000,0.000000,1.148927,0,0,0,0,0,0,0
10,109999,12,100000,6,10000,40,9999,0.100000,0,0,0.000000,5,0.000000,0.000000,1.406455,0,0,0,0,0,0,0
10,109999,13,100000,17,40000,49,9999,0.100000,0,0,0.000000,5,1.000000,0.000000,9.506795,0,0,0,0,0,0,0
10,109999,14,100000,25,10000,40,9999,0.100000,0,0,0.000000,5,0.000000,0.000000,0.470876,0,0,0,0,0,0,0
10,109999,15,100000,17,40000,40,9999,0.100000,0,0,0.000000,5,0.000000,0.000000,8.286566,0,0,0,0,0,0,0
10,109999,16,100000,6,80000,40,9999,0.100000,0,0,0.000000,5,0.000000,0.000000,0.576339,0,0,0,0,0,0,0
10,109999,17,100000,6,10000,40,9999,0.100000,0,0,0.000000,5,0.000000,0.000000,0.881899,0,0,0,0,0,0,0
10,109999,18,100000,6,10000,40,9999,0.100000,0,0,0.000000,5,0.000000,0.000000,0.251102,0,0,0,0,0,0,0
10,109999,19,100000,63,0,49,9999,0.100000,0,0,0.000000,5,2.000000,0.000000,2.382513,0,0,0,0,0,0,0
10,109999,20,100000,6,10000,49,9999,0.100000,0,0,0.000000,5,1.000000,0.000000,4.167396,0,0,0,0,0,0,0
10,109999,21,100000,25,10000,40,9999,0.100000,0,0,0.000000,5,0.000000,0.000000,0.488977,0,0,0,0,0,0,0
10,109999,22,100000,17,40000,40,9999,0.100000,0,0,0.000000,5,0.000000,0.000000,0.258219,0,0,0,0,0,0,0
10,109999,23,100000,25,10000,49,9999,0.100000,0,0,0.000000,5,2.000000,0.000000,2.307769,0,0,0,0,0,0,0
10,109999,24,100000,17,40000,40,9999,0.100000,0,0,0.000000,5,0.000000,0.000000,0.199418,0,0,0,0,0,0,0
10,109999,25,100000,17,40000,40,9999,0.100000,0,0,0.000000,5,0.000000,0.000000,0.312153,0,0,0,0,0,0,0
10,109999,26,100000,17,40000,49,9999,0.100000,0,0,0.000000,5,1.000000,0.000000,1.554952,0,0,0,0,0,0,0
10,109999,27,100000,6,10000,40,9999,0.100000,0,0,0.000000,5,0.000000,0.000000,0.690186,0,0,0,0,0,0,0
10,109999,28,100000,6,10000,40,9999,0.100000,0,0,0.000000,5,0.000000,0.000000,0.135074,0,0,0,0,0,0,0
10,109999,29,100000,17,40000,40,9999,0.100000,0,0,0.000000,5,0.000000,0.000000,3.629562,0,0,0,0,0,0,0
10,109999,30,100000,25,10000,49,9999,0.100000,0,0,0.000000,5,1.000000,0.000000,1.503830,0,0,0,0,0,0,0
10,109999,31,100000,17,40000,40,9999,0.100000,0,0,0.000000,5,0.000000,0.000000,3.146171,0,0,0,0,0,0,0
10,109999,32,100000,17,40000,40,9999,0.100000,0,0,0.000000,5,0.000000,0.000000,0.653102,0,0,0,0,0,0,0
10,109999,33,100000,63,0,49,9999,0.100000,0,0,0.000000,5,1.000000,0.000000,1.585647,0,0,0,0,0,0,0
10,109999,34,100000,6,80000,40,9999,0.100000,0,0,0.000000,5,0.000000,0.000000,1.643702,0,0,0,0,0,0,0
10,109999,35,100000,6,10000,40,9999,0.100000,0,0,0.000000,5,0.000000,0.000000,0.337386,0,0,0,0,0,0,0
10,109999,36,100000,17,40000,40,9999,0.100000,0,0,0.000000,5,0.000000,0.000000,0.085221,0,0,0,0,0,0,0
10,109999,37,100000,17,40000,40,9999,0.100000,0,0,0.000000,5,0.000000,0.000000,0.962695,0,0,0,0,0,0,0
10,109999,38,100000,6,80000,40,9999,0.100000,0,0,0.000000,5,0.000000,0.000000,1.134097,0,0,0,0,0,0,0
10,109999,39,100000,6,10000,40,9999,0.100000,0,0,0.000000,5,0.000000,0.000000,0.429819,0,0,0,0,0,0,0
10,109999,40,100000,6,10000,40,9999,0.100000,0,0,0.000000,5,0.000000,0.000000,0.914445,0,0,0,0,0,0,0
10,109999,41,100000,63,0,40,9999,0.100000,0,0,0.000000,5,0.000000,0.000000,0.504414,0,0,0,0,0,0,0
10,109999,42,100000,6,10000,40,9999,0.100000,0,0,0.000000,5,0.000000,0.000000,0.644886,0,0,0,0,0,0,0
10,109999,43,100000,6,10000,40,9999,0.100000,0,0,0.000000,5,0.000000,0.000000,0.942038,0,0,0,0,0,0,0
10,109999,44,100000,25,10000,40,9999,0.100000,0,0,0.000000,5,0.000000,0.000000,0.976009,0,0,0,0,0,0,0
10,109999,45,100000,63,0,40,9999,0.100000,0,0,0.000000,5,0.000000,0.000000,0.087583,0,0,0,0,0,0,0
10,109999,46,100000,6,80000,40,9999,0.100000,0,0,0.000000,5,0.000000,0.000000,5.753341,0,0,0,0,0,0,0
10,109999,47,100000,17,40000,40,9999,0.100000,0,0,0.000000,5,0.000000,0.000000,0.848061,0,0,0,0,0,0,0
10,109999,48,100000,6,10000,40,9999,0.100000,0,0,0.000000,5,0.000000,0.000000,0.203107,0,0,0,0,0,0,0
10,109999,49,100000,6,10000,49,9999,0.100000,0,0,0.000000,5,2.000000,0.000000,3.020828,0,0,0,0,0,0,0
10,109999,50,100000,63,0,40,9999,0.100000,0,0,0.000000,5,0.000000,0.000000,0.757842,0,0,0,0,0,0,0
10,109999,51,100000,25,10000,40,9999,0.100000,0,0,0.000000,5,0.000000,0.000000,1.099610,0,0,0,0,0,0,0
10,109999,52,100000,25,10000,40,9999,0.100000,0,0,0.000000,5,0.000000,0.000000,0.962600,0,0,0,0,0,0,0
10,109999,53,100000,6,10000,40,9999,0.100000,0,0,0.000000,5,0.000000,0.000000,1.087676,0,0,0,0,0,0,0
10,109999,54,100000,25,10000,49,9999,0.100000,0,0,0.000000,5,4.000000,0.000000,7.115753,0,0,0,0,0,0,0
10,109999,55,100000,25,10000,40,9999,0.100000,0,0,0.000000,5,0.000000,0.000000,1.050361,0,0,0,0,0,0,0
10,109999,56,100000,6,80000,49,9999,0.100000,0,0,0.000000,5,5.000000,0.000000,10.487773,0,0,0,0,0,0,0
10,109999,57,100000,6,10000,40,9999,0.100000,0,0,0.000000,5,0.000000,0.000000,0.941005,0,0,0,0,0,0,0
10,109999,58,100000,25,10000,40,9999,0.100000,0,0,0.000000,5,0.000000,0.000000,0.113522,0,0,0,0,0,0,0
10,109999,59,100000,6,10000,49,9999,0.100000,0,0,0.000000,5,1.000000,0.000000,1.644581,0,0,0,0,0,0,0
10,109999,60,100000,6,80000,49,9999,0.100000,0,0,0.000000,5,1.000000,0.000000,13.864404,0,0,0,0,0,0,0
10,109999,61,100000,17,40000,40,9999,0.100000,0,0,0.000000,5,0.000000,0.000000,0.121644,0,0,0,0,0,0,0
10,109999,62,100000,63,0,49,9999,0.100000,0,0,0.000000,5,8.000000,0.000000,18.078971,0,0,0,0,0,0,0
10,109999,63,100000,25,10000,40,9999,0.100000,0,0,0.000000,5,0.000000,0.000000,1.156892,0,0,0,0,0,0,0
10,109999,64,100000,25,10000,40,9999,0.100000,0,0,0.000000,5,0.000000,0.000000,0.980776,0,0,0,0,0,0,0
10,109999,65,100000,6,10000,40,9999,0.100000,0,0,0.000000,5,0.000000,0.000000,0.192942,0,0,0,0,0,0,0
10,109999,66,100000,6,10000,40,9999,0.100000,0,0,0.000000,5,0.000000,0.000000,1.168597,0,0,0,0,0,0,0
10,109999,67,100000,6,80000,40,9999,0.065000,0,0,0.000000,5,0.000000,0.000000,0.444823,0,0,0,0,0,0,0
10,109999,68,100000,6,80000,40,9999,0.100000,0,0,0.000000,5,0.000000,0.000000,1.343884,0,0,0,0,0,0,0
10,109999,69,100000,25,10000,40,9999,0.100000,0,0,0.000000,5,0.000000,0.000000,0.201585,0,0,0,0,0,0,0
10,109999,70,100000,63,0,40,9999,0.100000,0,0,0.000000,5,0.000000,0.000000,0.398039,0,0,0,0,0,0,0
10,109999,71,100000,6,80000,40,9999,0.100000,0,0,0.000000,5,0.000000,0.000000,0.151372,0,0,0,0,0,0,0
10,109999,72,100000,25,10000,40,9999,0.100000,0,0,0.000000,5,0.000000,0.000000,0.522920,0,0,0,0,0,0,0
10,109999,73,100000,17,40000,40,9999,0.100000,0,0,0.000000,5,0.000000,0.000000,1.084360,0,0,0,0,0,0,0
10,109999,74,100000,6,10000,40,9999,0.100000,0,0,0.000000,5,0.000000,0.000000,1.127436,0,0,0,0,0,0,0
10,109999,75,100000,17,40000,40,9999,0.100000,0,0,0.000000,5,0.000000,0.000000,0.178533,0,0,0,0,0,0,0
10,109999,76,100000,25,10000,49,9999,0.100000,0,0,0.000000,5,1.000000,0.000000,6.924514,0,0,0,0,0,0,0
10,109999,77,100000,6,10000,40,9999,0.100000,0,0,0.000000,5,0.000000,0.000000,0.150777,0,0,0,0,0,0,0
10,109999,78,100000,6,80000,40,9999,0.100000,0,0,0.000000,5,0.000000,0.000000,0.851196,0,0,0,0,0,0,0
10,109999,79,100000,25,10000,49,9999,0.100000,0,0,0.000000,5,1.000000,0.000000,1.542036,0,0,0,0,0,0,0
10,109999,80,100000,25,10000,40,9999,0.100000,0,0,0.000000,5,0.000000,0.000000,0.274567,0,0,0,0,0,0,0
10,109999,81,100000,17,40000,49,9999,0.100000,0,0,0.000000,5,2.000000,0.000000,3.116639,0,0,0,0,0,0,0
10,109999,82,100000,17,40000,40,9999,0.100000,0,0,0.000000,5,0.000000,0.000000,0.084515,0,0,0,0,0,0,0
10,109999,83,100000,6,10000,40,9999,0.100000,0,0,0.000000,5,0.000000,0.000000,1.638289,0,0,0,0,0,0,0
10,109999,84,100000,17,40000,49,9999,0.100000,0,0,0.000000,5,2.000000,0.000000,2.557633,0,0,0,0,0,0,0
10,109999,85,100000,25,10000,40,9999,0.100000,0,0,0.000000,5,0.000000,0.000000,0.175198,0,0,0,0,0,0,0
10,109999,86,100000,6,80000,40,9999,0.100000,0,0,0.000000,5,0.000000,0.000000,3.569434,0,0,0,0,0,0,0
10,109999,87,100000,6,10000,40,9999,0.100000,0,0,0.000000,5,0.000000,0.000000,0.095152,0,0,0,0,0,0,0
10,109999,88,100000,6,10000,40,9999,0.100000,0,0,0.000000,5,0.000000,0.000000,0.583915,0,0,0,0,0,0,0
10,109999,89,100000,6,80000,49,9999,0.100000,0,0,0.000000,5,3.000000,0.000000,11.066439,0,0,0,0,0,0,0
10,109999,90,100000,6,10000,40,9999,0.100000,0,0,0.000000,5,0.000000,0.000000,0.587038,0,0,0,0,0,0,0
10,109999,91,100000,25,10000,49,9999,0.100000,0,0,0.000000,5,1.000000,0.000000,19.218526,0,0,0,0,0,0,0
10,109999,92,100000,25,10000,40,9999,0.100000,0,0,0.000000,5,0.000000,0.000000,5.967120,0,0,0,0,0,0,0
10,109999,93,100000,6,10000,40,9999,0.100000,0,0,0.000000,5,0.000000,0.000000,0.094799,0,0,0,0,0,0,0
10,109999,94,100000,17,40000,49,9999,0.100000,0,0,0.000000,5,1.000000,0.000000,1.966686,0,0,0,0,0,0,0
10,109999,95,100000,25,10000,49,9999,0.100000,0,0,0.000000,5,1.000000,0.000000,5.782226,0,0,0,0,0,0,0
10,109999,96,100000,25,10000,40,9999,0.100000,0,0,0.000000,5,0.000000,0.000000,0.887508,0,0,0,0,0,0,0
10,109999,97,100000,63,0,49,9999,0.100000,0,0,0.000000,5,7.000000,0.000000,15.393504,0,0,0,0,0,0,0
10,109999,98,100000,6,80000,49,9999,0.100000,0,0,0.000000,5,1.000000,0.000000,1.565898,0,0,0,0,0,0,0
10,109999,99,100000,17,40000,40,9999,0.100000,0,0,0.000000,5,0.000000,0.000000,0.284025,0,0,0,0,0,0,0
11,119999,0,110000,6,10000,40,9999,0.100000,0,0,0.000000,5,0.000000,0.000000,0.988922,0,0,0,0,0,0,0
11,119999,1,110000,17,40000,40,9999,0.100000,0,0,0.000000,5,0.000000,0.000000,0.392338,0,0,0,0,0,0,0
11,119999,2,110000,6,10000,40,9999,0.100000,0,0,0.000000,5,0.000000,0.000000,0.984314,0,0,0,0,0,0,0
11,119999,3,110000,17,40000,40,9999,0.100000,0,0,0.000000,5,0.000000,0.000000,0.268587,0,0,0,0,0,0,0
11,119999,4,110000,6,10000,40,9999,0.100000,0,0,0.000000,5,0.000000,0.000000,0.342804,0,0,0,0,0,0,0
11,119999,5,110000,63,0,40,9999,0.100000,0,0,0.000000,5,0.000000,0.000000,0.082777,0,0,0,0,0,0,0
11,119999,6,110000,6,10000,40,9999,0.100000,0,0,0.000000,5,0.000000,0.000000,0.342111,0,0,0,0,0,0,0
11,119999,7,110000,63,0,40,9999,0.100000,0,0,0.000000,5,0.000000,0.000000,0.259178,0,0,0,0,0,0,0
11,119999,8,110000,17,40000,40,9999,0.100000,0,0,0.000000,5,0.000000,0.000000,0.502211,0,0,0,0,0,0,0
11,119999,9,110000,6,10000,40,9999,0.100000,0,0,0.000000,5,0.000000,0.000000,1.188062,0,0,0,0,0,0,0
11,119999,10,110000,63,0,40,9999,0.100000,0,0,0.000000,5,0.000000,0.000000,1.005293,0,0,0,0,0,0,0
11,119999,11,110000,63,0,40,9999,0.100000,0,0,0.000000,5,0.000000,0.000000,1.126117,0,0,0,0,0,0,0
11,119999,12,110000,6,10000,40,9999,0.100000,0,0,0.000000,5,0.000000,0.000000,0.695292,0,0,0,0,0,0,0
11,119999,13,110000,6,10000,49,9999,0.100000,0,0,0.000000,5,1.000000,0.000000,5.715430,0,0,0,0,0,0,0
11,119999,14,110000,63,0,40,9999,0.100000,0,0,0.000000,5,0.000000,0.000000,0.500096,0,0,0,0,0,0,0
11,119999,15,110000,63,0,49,9999,0.100000,0,0,0.000000,5,2.000000,0.000000,8.999988,0,0,0,0,0,0,0
11,119999,16,110000,6,80000,40,9999,0.100000,0,0,0.000000,5,0.000000,0.000000,0.607862,0,0,0,0,0,0,0
11,119999,17,110000,6,10000,40,9999,0.100000,0,0,0.000000,5,0.000000,0.000000,0.901805,0,0,0,0,0,0,0
11,119999,18,110000,17,40000,40,9999,0.100000,0,0,0.000000,5,0.000000,0.000000,0.868741,0,0,0,0,0,0,0
11,119999,19,110000,17,40000,40,9999,0.100000,0,0,0.000000,5,0.000000,0.000000,0.687668,0,0,0,0,0,0,0
11,119999,20,110000,6,10000,40,9999,0.100000,0,0,0.000000,5,0.000000,0.000000,0.328976,0,0,0,0,0,0,0
11,119999,21,110000,25,10000,40,9999,0.100000,0,0,0.000000,5,0.000000,0.000000,0.542400,0,0,0,0,0,0,0
11,119999,22,110000,25,10000,40,9999,0.100000,0,0,0.000000,5,0.000000,0.000000,0.209869,0,0,0,0,0,0,0
11,119999,23,110000,17,40000,40,9999,0.100000,0,0,0.000000,5,0.000000,0.000000,0.723751,0,0,0,0,0,0,0
11,119999,24,110000,6,10000,40,9999,0.100000,0,0,0.000000,5,0.000000,0.000000,0.196764,0,0,0,0,0,0,0
11,119999,25,110000,6,80000,40,9999,0.100000,0,0,0.000000,5,0.000000,0.000000,0.295894,0,0,0,0,0,0,0
11,119999,26,110000,63,0,40,9999,0.100000,0,0,0.000000,5,0.000000,0.000000,0.572158,0,0,0,0,0,0,0
11,119999,27,110000,25,10000,40,9999,0.100000,0,0,0.000000,5,0.000000,0.000000,0.917494,0,0,0,0,0,0,0
11,119999,28,110000,6,10000,40,9999,0.100000,0,0,0.000000,5,0.000000,0.000000,0.138051,0,0,0,0,0,0,0
11,119999,29,110000,17,40000,40,9999,0.100000,0,0,0.000000,5,0.000000,0.000000,1.375347,0,0,0,0,0,0,0
11,119999,30,110000,17,40000,40,9999,0.100000,0,0,0.000000,5,0.000000,0.000000,0.367327,0,0,0,0,0,0,0
11,119999,31,110000,17,40000,40,9999,0.100000,0,0,0.000000,5,0.000000,0.000000,0.286999,0,0,0,0,0,0,0
11,119999,32,110000,6,10000,40,9999,0.100000,0,0,0.000000,5,0.000000,0.000000,0.593670,0,0,0,0,0,0,0
11,119999,33,110000,25,10000,40,9999,0.100000,0,0,0.000000,5,0.000000,0.000000,0.334099,0,0,0,0,0,0,0
11,119999,34,110000,6,80000,40,9999,0.100000,0,0,0.000000,5,0.000000,0.000000,2.049568,0,0,0,0,0,0,0
11,119999,35,110000,63,0,40,9999,0.100000,0,0,0.000000,5,0.000000,0.000000,0.449667,0,0,0,0,0,0,0
11,119999,36,110000,63,0,40,9999,0.100000,0,0,0.000000,5,0.000000,0.000000,0.084340,0,0,0,0,0,0,0
11,119999,37,110000,6,10000,40,9999,0.100000,0,0,0.000000,5,0.000000,0.000000,1.277916,0,0,0,0,0,0,0
11,119999,38,110000,6,80000,40,9999,0.100000,0,0,0.000000,5,0.000000,0.000000,0.659331,0,0,0,0,0,0,0
11,119999,39,110000,17,40000,40,9999,0.100000,0,0,0.000000,5,0.000000,0.000000,0.352381,0,0,0,0,0,0,0
11,119999,40,110000,6,10000,40,9999,0.100000,0,0,0.000000,5,0.000000,0.000000,0.913368,0,0,0,0,0,0,0
11,119999,41,110000,63,0,40,9999,0.100000,0,0,0.000000,5,0.000000,0.000000,0.762644,0,0,0,0,0,0,0
11,119999,42,110000,17,40000,40,9999,0.100000,0,0,0.000000,5,0.000000,0.000000,0.655104,0,0,0,0,0,0,0
11,119999,43,110000,6,10000,40,9999,0.100000,0,0,0.000000,5,0.000000,0.000000,2.904473,0,0,0,0,0,0,0
11,119999,44,110000,17,40000,40,9999,0.100000,0,0,0.000000,5,0.000000,0.000000,0.722704,0,0,0,0,0,0,0
11,119999,45,110000,17,40000,40,9999,0.100000,0,0,0.000000,5,0.000000,0.000000,0.087279,0,0,0,0,0,0,0
11,119999,46,110000,17,40000,40,9999,0.100000,0,0,0.000000,5,0.000000,0.000000,3.315643,0,0,0,0,0,0,0
11,119999,47,110000,6,10000,40,9999,0.100000,0,0,0.000000,5,0.000000,0.000000,0.477998,0,0,0,0,0,0,0
11,119999,48,110000,17,40000,40,9999,0.100000,0,0,0.000000,5,0.000000,0.000000,0.255262,0,0,0,0,0,0,0
11,119999,49,110000,6,10000,49,9999,0.100000,0,0,0.000000,5,1.000000,0.000000,6.070129,0,0,0,0,0,0,0
11,119999,50,110000,25,10000,40,9999,0.100000,0,0,0.000000,5,0.000000,0.000000,0.443715,0,0,0,0,0,0,0
11,119999,51,110000,17,40000,40,9999,0.100000,0,0,0.000000,5,0.000000,0.000000,0.986553,0,0,0,0,0,0,0
11,119999,52,110000,17,40000,40,9999,0.100000,0,0,0.000000,5,0.000000,0.000000,0.951528,0,0,0,0,0,0,0
11,119999,53,110000,63,0,40,9999,0.100000,0,0,0.000000,5,0.000000,0.000000,1.161356,0,0,0,0,0,0,0
11,119999,54,110000,25,10000,49,9999,0.100000,0,0,0.000000,5,1.000000,0.000000,5.565372,0,0,0,0,0,0,0
11,119999,55,110000,6,10000,40,9999,0.100000,0,0,0.000000,5,0.000000,0.000000,1.016721,0,0,0,0,0,0,0
11,119999,56,110000,17,40000,40,9999,0.100000,0,0,0.000000,5,0.000000,0.000000,0.192674,0,0,0,0,0,0,0
11,119999,57,110000,6,10000,49,9999,0.100000,0,0,0.000000,5,1.000000,0.000000,1.431412,0,0,0,0,0,0,0
11,119999,58,110000,6,80000,40,9999,0.135000,0,0,0.000000,5,0.000000,0.000000,0.112302,0,0,0,0,0,0,0
11,119999,59,110000,6,10000,40,9999,0.100000,0,0,0.000000,5,0.000000,0.000000,0.879320,0,0,0,0,0,0,0
11,119999,60,110000,17,40000,40,9999,0.100000,0,0,0.000000,5,0.000000,0.000000,15.402075,0,0,0,0,0,0,0
11,119999,61,110000,25,10000,49,9999,0.100000,0,0,0.000000,5,8.000000,0.000000,17.527136,0,0,0,0,0,0,0
11,119999,62,110000,17,40000,40,9999,0.100000,0,0,0.000000,5,0.000000,0.000000,0.109921,0,0,0,0,0,0,0
11,119999,63,110000,6,10000,40,9999,0.100000,0,0,0.000000,5,0.000000,0.000000,1.079759,0,0,0,0,0,0,0
11,119999,64,110000,63,0,40,9999,0.100000,0,0,0.000000,5,0.000000,0.000000,0.934686,0,0,0,0,0,0,0
11,119999,65,110000,63,0,40,9999,0.100000,0,0,0.000000,5,0.000000,0.000000,0.283860,0,0,0,0,0,0,0
11,119999,66,110000,6,10000,40,9999,0.100000,0,0,0.000000,5,0.000000,0.000000,2.072495,0,0,0,0,0,0,0
11,119999,67,110000,6,80000,40,9999,0.100000,0,0,0.000000,5,0.000000,0.000000,0.404259,0,0,0,0,0,0,0
11,119999,68,110000,17,40000,40,9999,0.100000,0,0,0.000000,5,0.000000,0.000000,1.158785,0,0,0,0,0,0,0
11,119999,69,110000,25,10000,40,9999,0.100000,0,0,0.000000,5,0.000000,0.000000,0.254865,0,0,0,0,0,0,0
11,119999,70,110000,17,40000,40,9999,0.100000,0,0,0.000000,5,0.000000,0.000000,0.645639,0,0,0,0,0,0,0
11,119999,71,110000,6,10000,49,9999,0.100000,0,0,0.000000,5,1.000000,0.000000,24.121939,0,0,0,0,0,0,0
11,119999,72,110000,17,40000,40,9999,0.100000,0,0,0.000000,5,0.000000,0.000000,0.226945,0,0,0,0,0,0,0
11,119999,73,110000,17,40000,49,9999,0.100000,0,0,0.000000,5,1.000000,0.000000,3.274107,0,0,0,0,0,0,0
11,119999,74,110000,25,10000,40,9999,0.100000,0,0,0.000000,5,0.000000,0.000000,1.125757,0,0,0,0,0,0,0
11,119999,75,110000,63,0,49,9999,0.100000,0,0,0.000000,5,8.000000,0.000000,16.673290,0,0,0,0,0,0,0
11,119999,76,110000,17,40000,49,9999,0.100000,0,0,0.000000,5,2.000000,0.000000,30.691292,0,0,0,0,0,0,0
11,119999,77,110000,63,0,40,9999,0.100000,0,0,0.000000,5,0.000000,0.000000,0.148994,0,0,0,0,0,0,0
11,119999,78,110000,6,10000,49,9999,0.100000,0,0,0.000000,5,1.000000,0.000000,1.387201,0,0,0,0,0,0,0
11,119999,79,110000,17,40000,40,9999,0.100000,0,0,0.000000,5,0.000000,0.000000,0.401419,0,0,0,0,0,0,0
11,119999,80,110000,25,10000,40,9999,0.100000,0,0,0.000000,5,0.000000,0.000000,0.231756,0,0,0,0,0,0,0
11,119999,81,110000,6,10000,40,9999,0.100000,0,0,0.000000,5,0.000000,0.000000,1.176407,0,0,0,0,0,0,0
11,119999,82,110000,63,0,40,9999,0.100000,0,0,0.000000,5,0.000000,0.000000,0.083980,0,0,0,0,0,0,0
11,119999,83,110000,25,10000,40,9999,0.100000,0,0,0.000000,5,0.000000,0.000000,2.057054,0,0,0,0,0,0,0
11,119999,84,110000,6,10000,40,9999,0.100000,0,0,0.000000,5,0.000000,0.000000,0.569812,0,0,0,0,0,0,0
11,119999,85,110000,17,40000,40,9999,0.100000,0,0,0.000000,5,0.000000,0.000000,0.152999,0,0,0,0,0,0,0
11,119999,86,110000,6,80000,40,9999,0.100000,0,0,0.000000,5,0.000000,0.000000,2.799792,0,0,0,0,0,0,0
11,119999,87,100000,6,10000,40,19999,0.100000,0,0,0.000000,5,0.000000,0.000000,0.094864,0,0,0,0,0,0,0
11,119999,88,110000,63,0,49,9999,0.100000,0,0,0.000000,5,1.000000,0.000000,1.315223,0,0,0,0,0,0,0
11,119999,89,110000,63,0,40,9999,0.100000,0,0,0.000000,5,0.000000,0.000000,3.263078,0,0,0,0,0,0,0
11,119999,90,110000,6,10000,40,9999,0.100000,0,0,0.000000,5,0.000000,0.000000,0.404647,0,0,0,0,0,0,0
11,119999,91,110000,6,80000,40,9999,0.100000,0,0,0.000000,5,0.000000,0.000000,0.181776,0,0,0,0,0,0,0
11,119999,92,110000,6,80000,40,9999,0.100000,0,0,0.000000,5,0.000000,0.000000,4.818791,0,0,0,0,0,0,0
11,119999,93,110000,63,0,40,9999,0.100000,0,0,0.000000,5,0.000000,0.000000,0.095171,0,0,0,0,0,0,0
11,119999,94,110000,6,80000,40,9999,0.100000,0,0,0.000000,5,0.000000,0.000000,0.847805,0,0,0,0,0,0,0
11,119999,95,110000,17,40000,40,9999,0.100000,0,0,0.000000,5,0.000000,0.000000,0.559055,0,0,0,0,0,0,0
11,119999,96,110000,6,10000,49,9999,0.100000,0,0,0.000000,5,7.000000,0.000000,15.842722,0,0,0,0,0,0,0
11,119999,97,110000,6,80000,40,9999,0.100000,0,0,0.000000,5,0.000000,0.000000,0.924997,0,0,0,0,0,0,0
11,119999,98,110000,17,40000,40,9999,0.100000,0,0,0.000000,5,0.000000,0.000000,0.465249,0,0,0,0,0,0,0
11,119999,99,110000,63,0,40,9999,0.100000,0,0,0.000000,5,0.000000,0.000000,0.907739,0,0,0,0,0,0,0
12,129999,0,120000,17,40000,40,9999,0.100000,0,0,0.000000,5,0.000000,0.000000,0.943087,0,0,0,0,0,0,0
12,129999,1,120000,17,40000,40,9999,0.100000,0,0,0.000000,5,0.000000,0.000000,0.291442,0,0,0,0,0,0,0
12,129999,2,120000,6,10000,40,9999,0.100000,0,0,0.000000,5,0.000000,0.000000,1.007241,0,0,0,0,0,0,0
12,129999,3,120000,6,10000,40,9999,0.100000,0,0,0.000000,5,0.000000,0.000000,0.411480,0,0,0,0,0,0,0
12,129999,4,120000,63,0,40,9999,0.100000,0,0,0.000000,5,0.000000,0.000000,0.348004,0,0,0,0,0,0,0
12,129999,5,120000,25,10000,40,9999,0.100000,0,0,0.000000,5,0.000000,0.000000,0.082306,0,0,0,0,0,0,0
12,129999,6,120000,25,10000,40,9999,0.100000,0,0,0.000000,5,0.000000,0.000000,0.499145,0,0,0,0,0,0,0
12,129999,7,120000,6,10000,40,9999,0.100000,0,0,0.000000,5,0.000000,0.000000,0.339013,0,0,0,0,0,0,0
12,129999,8,120000,6,10000,40,9999,0.100000,0,0,0.000000,5,0.000000,0.000000,0.403199,0,0,0,0,0,0,0
12,129999,9,120000,6,10000,40,9999,0.100000,0,0,0.000000,5,0.000000,0.000000,1.224686,0,0,0,0,0,0,0
12,129999,10,120000,25,10000,40,9999,0.100000,0,0,0.000000,5,0.000000,0.000000,0.618153,0,0,0,0,0,0,0
12,129999,11,120000,63,0,40,9999,0.100000,0,0,0.000000,5,0.000000,0.000000,1.118111,0,0,0,0,0,0,0
12,129999,12,120000,6,80000,40,9999,0.100000,0,0,0.000000,5,0.000000,0.000000,0.674770,0,0,0,0,0,0,0
12,129999,13,120000,25,10000,40,9999,0.100000,0,0,0.000000,5,0.000000,0.000000,2.753539,0,0,0,0,0,0,0
12,129999,14,120000,25,10000,40,9999,0.100000,0,0,0.000000,5,0.000000,0.000000,0.452827,0,0,0,0,0,0,0
12,129999,15,120000,25,10000,40,9999,0.100000,0,0,0.000000,5,0.000000,0.000000,2.214293,0,0,0,0,0,0,0
12,129999,16,120000,6,80000,40,9999,0.100000,0,0,0.000000,5,0.000000,0.000000,0.407933,0,0,0,0,0,0,0
12,129999,17,120000,17,40000,40,9999,0.100000,0,0,0.000000,5,0.000000,0.000000,0.862525,0,0,0,0,0,0,0
12,129999,18,120000,17,40000,49,9999,0.100000,0,0,0.000000,5,1.000000,0.000000,3.164413,0,0,0,0,0,0,0
12,129999,19,120000,6,10000,40,9999,0.100000,0,0,0.000000,5,0.000000,0.000000,0.579909,0,0,0,0,0,0,0
12,129999,20,120000,25,10000,40,9999,0.100000,0,0,0.000000,5,0.000000,0.000000,0.197958,0,0,0,0,0,0,0
12,129999,21,120000,6,80000,40,9999,0.100000,0,0,0.000000,5,0.000000,0.000000,0.547840,0,0,0,0,0,0,0
12,129999,22,120000,25,10000,40,9999,0.100000,0,0,0.000000,5,0.000000,0.000000,0.206402,0,0,0,0,0,0,0
12,129999,23,120000,63,0,40,9999,0.100000,0,0,0.000000,5,0.000000,0.000000,0.522476,0,0,0,0,0,0,0
12,129999,24,120000,63,0,40,9999,0.100000,0,0,0.000000,5,0.000000,0.000000,0.242147,0,0,0,0,0,0,0
12,129999,25,120000,6,80000,40,9999,0.100000,0,0,0.000000,5,0.000000,0.000000,0.330301,0,0,0,0,0,0,0
12,129999,26,120000,17,40000,40,9999,0.100000,0,0,0.000000,5,0.000000,0.000000,0.484680,0,0,0,0,0,0,0
12,129999,27,120000,6,80000,40,9999,0.100000,0,0,0.000000,5,0.000000,0.000000,0.691398,0,0,0,0,0,0,0
