generation,iteration,robot,birthday,ancestor_id,ancestor_birthday,cell_id,age,sigma,maps,genomes,fitness,cells_in_map,dist_max,dist_pot_max,dist_total,com_rx,com_tx,obj_group1,obj_group2,obj_group3,obj_group4,obj_group5
0,9999,0,0,0,0,1,9999,0.100000,0,0,0.000000,0,6.000000,0.000000,8.559641,0,0,0,0,0,0,0
0,9999,1,0,1,0,1,9999,0.100000,0,0,0.000000,0,2.000000,0.000000,12.285965,0,0,0,0,0,0,0
0,9999,2,0,2,0,1,9999,0.100000,0,0,0.000000,0,7.000000,0.000000,26.013882,0,0,0,0,0,0,0
0,9999,3,0,3,0,1,9999,0.100000,0,0,0.000000,0,7.000000,0.000000,13.733003,0,0,0,0,0,0,0
0,9999,4,0,4,0,1,9999,0.100000,0,0,0.000000,0,7.000000,0.000000,17.796446,0,0,0,0,0,0,0
0,9999,5,0,5,0,1,9999,0.100000,0,0,0.000000,0,9.000000,0.000000,17.375064,0,0,0,0,0,0,0
0,9999,6,0,6,0,1,9999,0.100000,0,0,0.000000,0,12.000000,0.000000,27.033938,0,0,0,0,0,0,0
0,9999,7,0,7,0,1,9999,0.100000,0,0,0.000000,0,5.000000,0.000000,11.882997,0,0,0,0,0,0,0
0,9999,8,0,8,0,1,9999,0.100000,0,0,0.000000,0,8.000000,0.000000,24.639397,0,0,0,0,0,0,0
0,9999,9,0,9,0,1,9999,0.100000,0,0,0.000000,0,12.000000,0.000000,22.048921,0,0,0,0,0,0,0
0,9999,10,0,10,0,1,9999,0.100000,0,0,0.000000,0,5.000000,0.000000,12.686431,0,0,0,0,0,0,0
0,9999,11,0,11,0,1,9999,0.100000,0,0,0.000000,0,8.000000,0.000000,14.930761,0,0,0,0,0,0,0
0,9999,12,0,12,0,1,9999,0.100000,0,0,0.000000,0,5.000000,0.000000,8.085373,0,0,0,0,0,0,0
0,9999,13,0,13,0,1,9999,0.100000,0,0,0.000000,0,7.000000,0.000000,14.934188,0,0,0,0,0,0,0
0,9999,14,0,14,0,1,9999,0.100000,0,0,0.000000,0,6.000000,0.000000,17.769256,0,0,0,0,0,0,0
0,9999,15,0,15,0,1,9999,0.100000,0,0,0.000000,0,8.000000,0.000000,22.843836,0,0,0,0,0,0,0
0,9999,16,0,16,0,3,9999,0.100000,0,0,45.107277,0,10.000000,0.000000,26.848003,0,0,1,0,0,0,0
0,9999,17,0,17,0,1,9999,0.100000,0,0,0.000000,0,11.000000,0.000000,14.835368,0,0,0,0,0,0,0
0,9999,18,0,18,0,1,9999,0.100000,0,0,0.000000,0,5.000000,0.000000,12.385836,0,0,0,0,0,0,0
0,9999,19,0,19,0,1,9999,0.100000,0,0,0.000000,0,6.000000,0.000000,14.375959,0,0,0,0,0,0,0
0,9999,20,0,20,0,1,9999,0.100000,0,0,0.000000,0,9.000000,0.000000,17.555567,0,0,0,0,0,0,0
0,9999,21,0,21,0,1,9999,0.100000,0,0,0.000000,0,7.000000,0.000000,15.930615,0,0,0,0,0,0,0
0,9999,22,0,22,0,1,9999,0.100000,0,0,0.000000,0,11.000000,0.000000,22.819882,0,0,0,0,0,0,0
0,9999,23,0,23,0,1,9999,0.100000,0,0,0.000000,0,4.000000,0.000000,16.172457,0,0,0,0,0,0,0
0,9999,24,0,24,0,1,9999,0.100000,0,0,0.000000,0,12.000000,0.000000,15.232627,0,0,0,0,0,0,0
0,9999,25,0,25,0,1,9999,0.100000,0,0,0.000000,0,7.000000,0.000000,16.470614,0,0,0,0,0,0,0
0,9999,26,0,26,0,1,9999,0.100000,0,0,0.000000,0,9.000000,0.000000,14.882830,0,0,0,0,0,0,0
0,9999,27,0,27,0,1,9999,0.100000,0,0,0.000000,0,9.000000,0.000000,10.995378,0,0,0,0,0,0,0
0,9999,28,0,28,0,1,9999,0.100000,0,0,0.000000,0,10.000000,0.000000,16.179426,0,0,0,0,0,0,0
0,9999,29,0,29,0,1,9999,0.100000,0,0,0.000000,0,7.000000,0.000000,12.932423,0,0,0,0,0,0,0
0,9999,30,0,30,0,1,9999,0.100000,0,0,0.000000,0,10.000000,0.000000,15.095487,0,0,0,0,0,0,0
0,9999,31,0,31,0,1,9999,0.100000,0,0,0.000000,0,9.000000,0.000000,18.128443,0,0,0,0,0,0,0
0,9999,32,0,32,0,1,9999,0.100000,0,0,0.000000,0,2.000000,0.000000,11.653902,0,0,0,0,0,0,0
0,9999,33,0,33,0,1,9999,0.100000,0,0,0.000000,0,7.000000,0.000000,13.238347,0,0,0,0,0,0,0
0,9999,34,0,34,0,1,9999,0.100000,0,0,0.000000,0,6.000000,0.000000,7.951238,0,0,0,0,0,0,0
0,9999,35,0,35,0,1,9999,0.100000,0,0,0.000000,0,8.000000,0.000000,24.873769,0,0,0,0,0,0,0
0,9999,36,0,36,0,1,9999,0.100000,0,0,0.000000,0,11.000000,0.000000,14.809479,0,0,0,0,0,0,0
0,9999,37,0,37,0,1,9999,0.100000,0,0,0.000000,0,8.000000,0.000000,23.804470,0,0,0,0,0,0,0
0,9999,38,0,38,0,1,9999,0.100000,0,0,0.000000,0,6.000000,0.000000,7.719830,0,0,0,0,0,0,0
0,9999,39,0,39,0,1,9999,0.100000,0,0,0.000000,0,7.000000,0.000000,15.404370,0,0,0,0,0,0,0
0,9999,40,0,40,0,1,9999,0.100000,0,0,0.000000,0,3.000000,0.000000,10.757726,0,0,0,0,0,0,0
0,9999,41,0,41,0,1,9999,0.100000,0,0,0.000000,0,10.000000,0.000000,31.660377,0,0,0,0,0,0,0
0,9999,42,0,42,0,1,9999,0.100000,0,0,0.000000,0,6.000000,0.000000,18.714059,0,0,0,0,0,0,0
0,9999,43,0,43,0,1,9999,0.100000,0,0,0.000000,0,6.000000,0.000000,11.213233,0,0,0,0,0,0,0
0,9999,44,0,44,0,1,9999,0.100000,0,0,0.000000,0,9.000000,0.000000,11.245565,0,0,0,0,0,0,0
0,9999,45,0,45,0,1,9999,0.100000,0,0,0.000000,0,10.000000,0.000000,16.198927,0,0,0,0,0,0,0
0,9999,46,0,46,0,1,9999,0.100000,0,0,0.000000,0,3.000000,0.000000,10.341681,0,0,0,0,0,0,0
0,9999,47,0,47,0,1,9999,0.100000,0,0,0.000000,0,9.000000,0.000000,15.896736,0,0,0,0,0,0,0
0,9999,48,0,48,0,1,9999,0.100000,0,0,0.000000,0,5.000000,0.000000,10.007862,0,0,0,0,0,0,0
0,9999,49,0,49,0,1,9999,0.100000,0,0,0.000000,0,10.000000,0.000000,20.305254,0,0,0,0,0,0,0
0,9999,50,0,50,0,1,9999,0.100000,0,0,0.000000,0,8.000000,0.000000,14.242661,0,0,0,0,0,0,0
0,9999,51,0,51,0,1,9999,0.100000,0,0,0.000000,0,9.000000,0.000000,19.406616,0,0,0,0,0,0,0
0,9999,52,0,52,0,1,9999,0.100000,0,0,0.000000,0,10.000000,0.000000,15.299047,0,0,0,0,0,0,0
0,9999,53,0,53,0,1,9999,0.100000,0,0,0.000000,0,5.000000,0.000000,15.596118,0,0,0,0,0,0,0
0,9999,54,0,54,0,1,9999,0.100000,0,0,0.000000,0,6.000000,0.000000,23.278013,0,0,0,0,0,0,0
0,9999,55,0,55,0,1,9999,0.100000,0,0,0.000000,0,7.000000,0.000000,22.939958,0,0,0,0,0,0,0
0,9999,56,0,56,0,1,9999,0.100000,0,0,0.000000,0,9.000000,0.000000,15.385924,0,0,0,0,0,0,0
0,9999,57,0,57,0,1,9999,0.100000,0,0,0.000000,0,8.000000,0.000000,13.889225,0,0,0,0,0,0,0
0,9999,58,0,58,0,1,9999,0.100000,0,0,0.000000,0,4.000000,0.000000,5.036445,0,0,0,0,0,0,0
0,9999,59,0,59,0,1,9999,0.100000,0,0,0.000000,0,8.000000,0.000000,19.548983,0,0,0,0,0,0,0
0,9999,60,0,60,0,1,9999,0.100000,0,0,0.000000,0,9.000000,0.000000,21.562856,0,0,0,0,0,0,0
0,9999,61,0,61,0,1,9999,0.100000,0,0,0.000000,0,12.000000,0.000000,15.796136,0,0,0,0,0,0,0
0,9999,62,0,62,0,1,9999,0.100000,0,0,0.000000,0,3.000000,0.000000,11.253129,0,0,0,0,0,0,0
0,9999,63,0,63,0,1,9999,0.100000,0,0,0.000000,0,4.000000,0.000000,6.662450,0,0,0,0,0,0,0
0,9999,64,0,64,0,1,9999,0.100000,0,0,0.000000,0,6.000000,0.000000,9.913870,0,0,0,0,0,0,0
0,9999,65,0,65,0,1,9999,0.100000,0,0,0.000000,0,5.000000,0.000000,15.087484,0,0,0,0,0,0,0
0,9999,66,0,66,0,1,9999,0.100000,0,0,0.000000,0,5.000000,0.000000,20.708493,0,0,0,0,0,0,0
0,9999,67,0,67,0,1,9999,0.100000,0,0,0.000000,0,9.000000,0.000000,15.705640,0,0,0,0,0,0,0
0,9999,68,0,68,0,1,9999,0.100000,0,0,0.000000,0,4.000000,0.000000,14.601668,0,0,0,0,0,0,0
0,9999,69,0,69,0,1,9999,0.100000,0,0,0.000000,0,8.000000,0.000000,14.501336,0,0,0,0,0,0,0
0,9999,70,0,70,0,1,9999,0.100000,0,0,0.000000,0,7.000000,0.000000,17.779246,0,0,0,0,0,0,0
0,9999,71,0,71,0,1,9999,0.100000,0,0,0.000000,0,7.000000,0.000000,14.731349,0,0,0,0,0,0,0
0,9999,72,0,72,0,1,9999,0.100000,0,0,0.000000,0,4.000000,0.000000,5.625571,0,0,0,0,0,0,0
0,9999,73,0,73,0,1,9999,0.100000,0,0,0.000000,0,7.000000,0.000000,21.946483,0,0,0,0,0,0,0
0,9999,74,0,74,0,1,9999,0.100000,0,0,0.000000,0,2.000000,0.000000,8.871635,0,0,0,0,0,0,0
0,9999,75,0,75,0,1,9999,0.100000,0,0,0.000000,0,9.000000,0.000000,20.904811,0,0,0,0,0,0,0
0,9999,76,0,76,0,1,9999,0.100000,0,0,0.000000,0,7.000000,0.000000,16.706706,0,0,0,0,0,0,0
0,9999,77,0,77,0,1,9999,0.100000,0,0,0.000000,0,6.000000,0.000000,17.789006,0,0,0,0,0,0,0
0,9999,78,0,78,0,1,9999,0.100000,0,0,0.000000,0,8.000000,0.000000,21.618723,0,0,0,0,0,0,0
0,9999,79,0,79,0,1,9999,0.100000,0,0,0.000000,0,8.000000,0.000000,16.940896,0,0,0,0,0,0,0
0,9999,80,0,80,0,1,9999,0.100000,0,0,0.000000,0,10.000000,0.000000,23.332883,0,0,0,0,0,0,0
0,9999,81,0,81,0,1,9999,0.100000,0,0,0.000000,0,8.000000,0.000000,15.598106,0,0,0,0,0,0,0
0,9999,82,0,82,0,1,9999,0.100000,0,0,0.000000,0,10.000000,0.000000,30.785224,0,0,0,0,0,0,0
0,9999,83,0,83,0,1,9999,0.100000,0,0,0.000000,0,9.000000,0.000000,18.487604,0,0,0,0,0,0,0
0,9999,84,0,84,0,3,9999,0.100000,0,0,32.284633,0,8.000000,0.000000,22.988335,0,0,1,0,0,0,0
0,9999,85,0,85,0,1,9999,0.100000,0,0,0.000000,0,7.000000,0.000000,8.002304,0,0,0,0,0,0,0
0,9999,86,0,86,0,1,9999,0.100000,0,0,0.000000,0,9.000000,0.000000,18.647239,0,0,0,0,0,0,0
0,9999,87,0,87,0,1,9999,0.100000,0,0,0.000000,0,3.000000,0.000000,6.423789,0,0,0,0,0,0,0
0,9999,88,0,88,0,1,9999,0.100000,0,0,0.000000,0,3.000000,0.000000,12.065033,0,0,0,0,0,0,0
0,9999,89,0,89,0,1,9999,0.100000,0,0,0.000000,0,11.000000,0.000000,32.005819,0,0,0,0,0,0,0
0,9999,90,0,90,0,1,9999,0.100000,0,0,0.000000,0,9.000000,0.000000,18.486459,0,0,0,0,0,0,0
0,9999,91,0,91,0,1,9999,0.100000,0,0,0.000000,0,11.000000,0.000000,16.059305,0,0,0,0,0,0,0
0,9999,92,0,92,0,1,9999,0.100000,0,0,0.000000,0,10.000000,0.000000,16.098360,0,0,0,0,0,0,0
0,9999,93,0,93,0,1,9999,0.100000,0,0,0.000000,0,6.000000,0.000000,10.668015,0,0,0,0,0,0,0
0,9999,94,0,94,0,1,9999,0.100000,0,0,0.000000,0,9.000000,0.000000,13.711189,0,0,0,0,0,0,0
0,9999,95,0,95,0,1,9999,0.100000,0,0,0.000000,0,5.000000,0.000000,11.250314,0,0,0,0,0,0,0
0,9999,96,0,96,0,1,9999,0.100000,0,0,0.000000,0,9.000000,0.000000,10.602847,0,0,0,0,0,0,0
0,9999,97,0,97,0,1,9999,0.100000,0,0,0.000000,0,9.000000,0.000000,23.564444,0,0,0,0,0,0,0
0,9999,98,0,98,0,1,9999,0.100000,0,0,0.000000,0,5.000000,0.000000,18.940482,0,0,0,0,0,0,0
0,9999,99,0,99,0,1,9999,0.100000,0,0,0.000000,0,5.000000,0.000000,23.966804,0,0,0,0,0,0,0
1,19999,0,10000,16,0,0,9999,0.100000,0,0,0.000000,2,0.000000,0.000000,1.314171,0,0,0,0,0,0,0
1,19999,1,10000,9,0,1,9999,0.100000,0,0,0.000000,2,4.000000,0.000000,13.299746,0,0,0,0,0,0,0
1,19999,2,10000,9,0,1,9999,0.100000,0,0,0.000000,2,1.000000,0.000000,5.488329,0,0,0,0,0,0,0
1,19999,3,10000,16,0,1,9999,0.100000,0,0,0.000000,2,3.000000,0.000000,16.075934,0,0,0,0,0,0,0
1,19999,4,10000,16,0,1,9999,0.100000,0,0,0.000000,2,1.000000,0.000000,2.917454,0,0,0,0,0,0,0
1,19999,5,10000,16,0,1,9999,0.100000,0,0,0.000000,2,4.000000,0.000000,21.777834,0,0,0,0,0,0,0
1,19999,6,10000,9,0,1,9999,0.100000,0,0,0.000000,2,4.000000,0.000000,13.643493,0,0,0,0,0,0,0
1,19999,7,10000,9,0,1,9999,0.100000,0,0,0.000000,2,2.000000,0.000000,10.162497,0,0,0,0,0,0,0
1,19999,8,10000,9,0,3,9999,0.100000,0,0,34.210526,2,10.000000,0.000000,25.118957,0,0,1,0,0,0,0
1,19999,9,10000,16,0,0,9999,0.100000,0,0,0.000000,2,0.000000,0.000000,0.507016,0,0,0,0,0,0,0
1,19999,10,10000,9,0,0,9999,0.100000,0,0,0.000000,2,0.000000,0.000000,0.348840,0,0,0,0,0,0,0
1,19999,11,10000,9,0,1,9999,0.100000,0,0,0.000000,2,1.000000,0.000000,15.081838,0,0,0,0,0,0,0
1,19999,12,10000,9,0,0,9999,0.100000,0,0,0.000000,2,0.000000,0.000000,0.487427,0,0,0,0,0,0,0
1,19999,13,10000,16,0,3,9999,0.100000,0,0,34.004116,2,3.000000,0.000000,16.974212,0,0,1,0,0,0,0
1,19999,14,10000,9,0,1,9999,0.100000,0,0,0.000000,2,1.000000,0.000000,20.849678,0,0,0,0,0,0,0
1,19999,15,10000,9,0,1,9999,0.135000,0,0,0.000000,2,1.000000,0.000000,7.879850,0,0,0,0,0,0,0
1,19999,16,10000,9,0,1,9999,0.100000,0,0,0.000000,2,1.000000,0.000000,15.889863,0,0,0,0,0,0,0
1,19999,17,10000,16,0,0,9999,0.100000,0,0,0.000000,2,0.000000,0.000000,0.412510,0,0,0,0,0,0,0
1,19999,18,10000,9,0,1,9999,0.100000,0,0,0.000000,2,1.000000,0.000000,9.208619,0,0,0,0,0,0,0
1,19999,19,10000,9,0,1,9999,0.100000,0,0,0.000000,2,2.000000,0.000000,10.574311,0,0,0,0,0,0,0
1,19999,20,10000,9,0,1,9999,0.100000,0,0,0.000000,2,4.000000,0.000000,17.229236,0,0,0,0,0,0,0
1,19999,21,10000,9,0,1,9999,0.100000,0,0,0.000000,2,6.000000,0.000000,23.745984,0,0,0,0,0,0,0
1,19999,22,10000,9,0,1,9999,0.100000,0,0,0.000000,2,6.000000,0.000000,25.552881,0,0,0,0,0,0,0
1,19999,23,10000,9,0,1,9999,0.100000,0,0,0.000000,2,2.000000,0.000000,8.081569,0,0,0,0,0,0,0
1,19999,24,10000,9,0,1,9999,0.100000,0,0,0.000000,2,2.000000,0.000000,5.349257,0,0,0,0,0,0,0
1,19999,25,10000,9,0,1,9999,0.100000,0,0,0.000000,2,2.000000,0.000000,12.402332,0,0,0,0,0,0,0
1,19999,26,10000,9,0,0,9999,0.100000,0,0,0.000000,2,0.000000,0.000000,0.376008,0,0,0,0,0,0,0
1,19999,27,10000,9,0,0,9999,0.100000,0,0,0.000000,2,0.000000,0.000000,0.163891,0,0,0,0,0,0,0
1,19999,28,10000,9,0,0,9999,0.100000,0,0,0.000000,2,0.000000,0.000000,1.280566,0,0,0,0,0,0,0
1,19999,29,10000,9,0,0,9999,0.100000,0,0,0.000000,2,0.000000,0.000000,1.072383,0,0,0,0,0,0,0
1,19999,30,10000,9,0,0,9999,0.100000,0,0,0.000000,2,0.000000,0.000000,13.722967,0,0,0,0,0,0,0
1,19999,31,10000,9,0,1,9999,0.100000,0,0,0.000000,2,4.000000,0.000000,7.137861,0,0,0,0,0,0,0
1,19999,32,10000,9,0,0,9999,0.100000,0,0,0.000000,2,0.000000,0.000000,0.453849,0,0,0,0,0,0,0
1,19999,33,10000,9,0,1,9999,0.100000,0,0,0.000000,2,4.000000,0.000000,15.510208,0,0,0,0,0,0,0
1,19999,34,10000,9,0,0,9999,0.100000,0,0,0.000000,2,0.000000,0.000000,0.797887,0,0,0,0,0,0,0
1,19999,35,10000,9,0,1,9999,0.100000,0,0,0.000000,2,2.000000,0.000000,16.338505,0,0,0,0,0,0,0
1,19999,36,10000,9,0,0,9999,0.100000,0,0,0.000000,2,0.000000,0.000000,0.354489,0,0,0,0,0,0,0
1,19999,37,10000,9,0,1,9999,0.100000,0,0,0.000000,2,2.000000,0.000000,19.954826,0,0,0,0,0,0,0
1,19999,38,10000,9,0,1,9999,0.100000,0,0,0.000000,2,1.000000,0.000000,1.575765,0,0,0,0,0,0,0
1,19999,39,10000,9,0,1,9999,0.100000,0,0,0.000000,2,2.000000,0.000000,17.346788,0,0,0,0,0,0,0
1,19999,40,10000,9,0,1,9999,0.100000,0,0,0.000000,2,1.000000,0.000000,14.107381,0,0,0,0,0,0,0
1,19999,41,10000,9,0,1,9999,0.100000,0,0,0.000000,2,3.000000,0.000000,15.381956,0,0,0,0,0,0,0
1,19999,42,10000,9,0,1,9999,0.100000,0,0,0.000000,2,2.000000,0.000000,14.150189,0,0,0,0,0,0,0
1,19999,43,10000,9,0,0,9999,0.100000,0,0,0.000000,2,0.000000,0.000000,1.181177,0,0,0,0,0,0,0
1,19999,44,10000,9,0,0,9999,0.100000,0,0,0.000000,2,0.000000,0.000000,0.695460,0,0,0,0,0,0,0
1,19999,45,10000,9,0,1,9999,0.100000,0,0,0.000000,2,3.000000,0.000000,11.649767,0,0,0,0,0,0,0
1,19999,46,10000,9,0,0,9999,0.100000,0,0,0.000000,2,0.000000,0.000000,0.313286,0,0,0,0,0,0,0
1,19999,47,10000,9,0,1,9999,0.100000,0,0,0.000000,2,2.000000,0.000000,9.815753,0,0,0,0,0,0,0
1,19999,48,10000,9,0,1,9999,0.100000,0,0,0.000000,2,8.000000,0.000000,17.342331,0,0,0,0,0,0,0
1,19999,49,10000,9,0,1,9999,0.100000,0,0,0.000000,2,4.000000,0.000000,16.237322,0,0,0,0,0,0,0
1,19999,50,10000,9,0,1,9999,0.100000,0,0,0.000000,2,4.000000,0.000000,6.775807,0,0,0,0,0,0,0
1,19999,51,10000,9,0,1,9999,0.100000,0,0,0.000000,2,4.000000,0.000000,20.755086,0,0,0,0,0,0,0
1,19999,52,10000,9,0,1,9999,0.100000,0,0,0.000000,2,5.000000,0.000000,17.129282,0,0,0,0,0,0,0
1,19999,53,10000,9,0,0,9999,0.100000,0,0,0.000000,2,0.000000,0.000000,11.094740,0,0,0,0,0,0,0
1,19999,54,10000,9,0,1,9999,0.100000,0,0,0.000000,2,5.000000,0.000000,17.722785,0,0,0,0,0,0,0
1,19999,55,10000,9,0,1,9999,0.100000,0,0,0.000000,2,2.000000,0.000000,15.226243,0,0,0,0,0,0,0
1,19999,56,10000,9,0,1,9999,0.100000,0,0,0.000000,2,2.000000,0.000000,13.376358,0,0,0,0,0,0,0
1,19999,57,10000,9,0,0,9999,0.100000,0,0,0.000000,2,0.000000,0.000000,0.506999,0,0,0,0,0,0,0
1,19999,58,10000,9,0,0,9999,0.100000,0,0,0.000000,2,0.000000,0.000000,2.342076,0,0,0,0,0,0,0
1,19999,59,10000,9,0,1,9999,0.100000,0,0,0.000000,2,2.000000,0.000000,17.190948,0,0,0,0,0,0,0
1,19999,60,10000,9,0,1,9999,0.100000,0,0,0.000000,2,5.000000,0.000000,18.261003,0,0,0,0,0,0,0
1,19999,61,10000,9,0,1,9999,0.100000,0,0,0.000000,2,2.000000,0.000000,6.359451,0,0,0,0,0,0,0
1,19999,62,10000,9,0,1,9999,0.100000,0,0,0.000000,2,1.000000,0.000000,11.508707,0,0,0,0,0,0,0
1,19999,63,10000,9,0,0,9999,0.100000,0,0,0.000000,2,0.000000,0.000000,0.784228,0,0,0,0,0,0,0
1,19999,64,10000,9,0,1,9999,0.100000,0,0,0.000000,2,1.000000,0.000000,3.235381,0,0,0,0,0,0,0
1,19999,65,10000,9,0,1,9999,0.100000,0,0,0.000000,2,2.000000,0.000000,5.871443,0,0,0,0,0,0,0
1,19999,66,10000,9,0,1,9999,0.100000,0,0,0.000000,2,1.000000,0.000000,15.593612,0,0,0,0,0,0,0
1,19999,67,10000,9,0,0,9999,0.100000,0,0,0.000000,2,0.000000,0.000000,1.747712,0,0,0,0,0,0,0
1,19999,68,10000,9,0,1,9999,0.100000,0,0,0.000000,2,2.000000,0.000000,6.903342,0,0,0,0,0,0,0
1,19999,69,10000,9,0,1,9999,0.100000,0,0,0.000000,2,7.000000,0.000000,23.093198,0,0,0,0,0,0,0
1,19999,70,10000,9,0,0,9999,0.100000,0,0,0.000000,2,0.000000,0.000000,0.438434,0,0,0,0,0,0,0
1,19999,71,10000,9,0,1,9999,0.100000,0,0,0.000000,2,1.000000,0.000000,25.442653,0,0,0,0,0,0,0
1,19999,72,10000,9,0,1,9999,0.100000,0,0,0.000000,2,13.000000,0.000000,15.295301,0,0,0,0,0,0,0
1,19999,73,10000,9,0,1,9999,0.100000,0,0,0.000000,2,2.000000,0.000000,11.817620,0,0,0,0,0,0,0
1,19999,74,10000,9,0,1,9999,0.100000,0,0,0.000000,2,1.000000,0.000000,5.804899,0,0,0,0,0,0,0
1,19999,75,10000,9,0,0,9999,0.100000,0,0,0.000000,2,0.000000,0.000000,0.582602,0,0,0,0,0,0,0
1,19999,76,10000,9,0,1,9999,0.100000,0,0,0.000000,2,1.000000,0.000000,6.092918,0,0,0,0,0,0,0
1,19999,77,10000,9,0,1,9999,0.100000,0,0,0.000000,2,3.000000,0.000000,16.256464,0,0,0,0,0,0,0
1,19999,78,10000,9,0,1,9999,0.100000,0,0,0.000000,2,4.000000,0.000000,15.226687,0,0,0,0,0,0,0
1,19999,79,10000,9,0,3,9999,0.100000,0,0,38.063631,2,3.000000,0.000000,23.501070,0,0,1,0,0,0,0
1,19999,80,10000,9,0,1,9999,0.100000,0,0,0.000000,2,5.000000,0.000000,13.215741,0,0,0,0,0,0,0
1,19999,81,10000,9,0,1,9999,0.100000,0,0,0.000000,2,4.000000,0.000000,17.927749,0,0,0,0,0,0,0
1,19999,82,10000,9,0,1,9999,0.065000,0,0,0.000000,2,7.000000,0.000000,14.056476,0,0,0,0,0,0,0
1,19999,83,10000,9,0,1,9999,0.100000,0,0,0.000000,2,4.000000,0.000000,18.427211,0,0,0,0,0,0,0
1,19999,84,10000,9,0,1,9999,0.100000,0,0,0.000000,2,1.000000,0.000000,11.375895,0,0,0,0,0,0,0
1,19999,85,10000,9,0,0,9999,0.100000,0,0,0.000000,2,0.000000,0.000000,1.276512,0,0,0,0,0,0,0
1,19999,86,10000,9,0,1,9999,0.100000,0,0,0.000000,2,3.000000,0.000000,14.937107,0,0,0,0,0,0,0
1,19999,87,10000,9,0,0,9999,0.100000,0,0,0.000000,2,0.000000,0.000000,0.455892,0,0,0,0,0,0,0
1,19999,88,10000,9,0,0,9999,0.100000,0,0,0.000000,2,0.000000,0.000000,0.446986,0,0,0,0,0,0,0
1,19999,89,10000,9,0,1,9999,0.100000,0,0,0.000000,2,9.000000,0.000000,16.484656,0,0,0,0,0,0,0
1,19999,90,10000,9,0,1,9999,0.100000,0,0,0.000000,2,1.000000,0.000000,4.677972,0,0,0,0,0,0,0
1,19999,91,10000,9,0,1,9999,0.100000,0,0,0.000000,2,2.000000,0.000000,13.067974,0,0,0,0,0,0,0
1,19999,92,10000,9,0,1,9999,0.100000,0,0,0.000000,2,3.000000,0.000000,18.682709,0,0,0,0,0,0,0
1,19999,93,10000,9,0,1,9999,0.100000,0,0,0.000000,2,2.000000,0.000000,17.009727,0,0,0,0,0,0,0
1,19999,94,10000,9,0,1,9999,0.100000,0,0,0.000000,2,7.000000,0.000000,19.748697,0,0,0,0,0,0,0
1,19999,95,10000,9,0,1,9999,0.100000,0,0,0.000000,2,1.000000,0.000000,4.478969,0,0,0,0,0,0,0
1,19999,96,10000,9,0,0,9999,0.100000,0,0,0.000000,2,0.000000,0.000000,0.472443,0,0,0,0,0,0,0
1,19999,97,10000,9,0,1,9999,0.100000,0,0,0.000000,2,1.000000,0.000000,3.862858,0,0,0,0,0,0,0
1,19999,98,10000,9,0,1,9999,0.100000,0,0,0.000000,2,4.000000,0.000000,14.166124,0,0,0,0,0,0,0
1,19999,99,10000,9,0,1,9999,0.100000,0,0,0.000000,2,2.000000,0.000000,13.210345,0,0,0,0,0,0,0
2,29999,0,20000,9,0,1,9999,0.100000,0,0,0.000000,3,6.000000,0.000000,7.262686,0,0,0,0,0,0,0
2,29999,1,20000,9,10000,1,9999,0.100000,0,0,0.000000,3,1.000000,0.000000,14.382089,0,0,0,0,0,0,0
2,29999,2,20000,9,0,1,9999,0.065000,0,0,0.000000,3,1.000000,0.000000,4.389472,0,0,0,0,0,0,0
2,29999,3,20000,9,0,1,9999,0.100000,0,0,0.000000,3,2.000000,0.000000,14.430160,0,0,0,0,0,0,0
2,29999,4,20000,9,0,0,9999,0.100000,0,0,0.000000,3,0.000000,0.000000,0.979632,0,0,0,0,0,0,0
2,29999,5,20000,9,0,0,9999,0.100000,0,0,0.000000,3,0.000000,0.000000,21.073511,0,0,0,0,0,0,0
2,29999,6,20000,9,0,1,9999,0.100000,0,0,34.210526,3,3.000000,0.000000,15.461134,0,0,0,1,0,0,0
2,29999,7,20000,9,0,1,9999,0.100000,0,0,0.000000,3,2.000000,0.000000,8.038420,0,0,0,0,0,0,0
2,29999,8,20000,9,10000,1,9999,0.100000,0,0,0.000000,3,1.000000,0.000000,10.333467,0,0,0,0,0,0,0
2,29999,9,20000,9,0,0,9999,0.100000,0,0,0.000000,3,0.000000,0.000000,0.193445,0,0,0,0,0,0,0
2,29999,10,20000,9,10000,0,9999,0.100000,0,0,0.000000,3,0.000000,0.000000,0.456378,0,0,0,0,0,0,0
2,29999,11,20000,9,0,1,9999,0.100000,0,0,0.000000,3,2.000000,0.000000,10.409872,0,0,0,0,0,0,0
2,29999,12,20000,9,0,1,9999,0.100000,0,0,0.000000,3,1.000000,0.000000,1.940802,0,0,0,0,0,0,0
2,29999,13,20000,9,10000,1,9999,0.100000,0,0,0.000000,3,1.000000,0.000000,12.416134,0,0,0,0,0,0,0
2,29999,14,20000,9,0,1,9999,0.100000,0,0,0.000000,3,1.000000,0.000000,5.637136,0,0,0,0,0,0,0
2,29999,15,20000,9,0,1,9999,0.100000,0,0,0.000000,3,1.000000,0.000000,4.058911,0,0,0,0,0,0,0
2,29999,16,20000,9,10000,1,9999,0.100000,0,0,0.000000,3,1.000000,0.000000,8.075416,0,0,0,0,0,0,0
2,29999,17,20000,9,0,0,9999,0.100000,0,0,0.000000,3,0.000000,0.000000,0.187301,0,0,0,0,0,0,0
2,29999,18,20000,9,10000,1,9999,0.100000,0,0,0.000000,3,9.000000,0.000000,10.377788,0,0,0,0,0,0,0
2,29999,19,20000,9,10000,1,9999,0.100000,0,0,0.000000,3,1.000000,0.000000,1.931463,0,0,0,0,0,0,0
2,29999,20,20000,9,10000,1,9999,0.100000,0,0,0.000000,3,2.000000,0.000000,13.766884,0,0,0,0,0,0,0
2,29999,21,20000,9,0,0,9999,0.100000,0,0,0.000000,3,0.000000,0.000000,1.136974,0,0,0,0,0,0,0
2,29999,22,20000,9,10000,0,9999,0.100000,0,0,0.000000,3,0.000000,0.000000,0.931421,0,0,0,0,0,0,0
2,29999,23,20000,9,10000,1,9999,0.100000,0,0,0.000000,3,2.000000,0.000000,25.821456,0,0,0,0,0,0,0
2,29999,24,20000,9,10000,0,9999,0.100000,0,0,0.000000,3,0.000000,0.000000,0.264860,0,0,0,0,0,0,0
2,29999,25,20000,9,10000,0,9999,0.100000,0,0,0.000000,3,0.000000,0.000000,1.765011,0,0,0,0,0,0,0
2,29999,26,20000,9,0,0,9999,0.065000,0,0,0.000000,3,0.000000,0.000000,0.416971,0,0,0,0,0,0,0
2,29999,27,20000,9,10000,0,9999,0.100000,0,0,0.000000,3,0.000000,0.000000,0.170814,0,0,0,0,0,0,0
2,29999,28,20000,9,10000,1,9999,0.100000,0,0,0.000000,3,5.000000,0.000000,6.693123,0,0,0,0,0,0,0
2,29999,29,20000,9,10000,1,9999,0.100000,0,0,0.000000,3,3.000000,0.000000,4.024590,0,0,0,0,0,0,0
2,29999,30,20000,9,0,0,9999,0.100000,0,0,0.000000,3,0.000000,0.000000,1.371024,0,0,0,0,0,0,0
2,29999,31,20000,9,10000,0,9999,0.100000,0,0,0.000000,3,0.000000,0.000000,2.023664,0,0,0,0,0,0,0
2,29999,32,20000,9,0,0,9999,0.100000,0,0,0.000000,3,0.000000,0.000000,0.466948,0,0,0,0,0,0,0
2,29999,33,20000,9,0,1,9999,0.100000,0,0,0.000000,3,3.000000,0.000000,13.545747,0,0,0,0,0,0,0
2,29999,34,20000,9,0,1,9999,0.100000,0,0,0.000000,3,1.000000,0.000000,4.755166,0,0,0,0,0,0,0
2,29999,35,20000,9,0,1,9999,0.100000,0,0,0.000000,3,2.000000,0.000000,16.620114,0,0,0,0,0,0,0
2,29999,36,20000,9,0,0,9999,0.100000,0,0,0.000000,3,0.000000,0.000000,0.177742,0,0,0,0,0,0,0
2,29999,37,20000,9,10000,0,9999,0.100000,0,0,0.000000,3,0.000000,0.000000,11.761072,0,0,0,0,0,0,0
2,29999,38,20000,9,10000,1,9999,0.100000,0,0,0.000000,3,1.000000,0.000000,2.208040,0,0,0,0,0,0,0
2,29999,39,20000,9,0,1,9999,0.100000,0,0,0.000000,3,2.000000,0.000000,15.248657,0,0,0,0,0,0,0
2,29999,40,20000,9,0,1,9999,0.100000,0,0,0.000000,3,3.000000,0.000000,15.235563,0,0,0,0,0,0,0
2,29999,41,20000,9,0,1,9999,0.100000,0,0,0.000000,3,1.000000,0.000000,13.957677,0,0,0,0,0,0,0
2,29999,42,20000,9,10000,1,9999,0.100000,0,0,0.000000,3,1.000000,0.000000,8.588641,0,0,0,0,0,0,0
2,29999,43,20000,9,0,0,9999,0.100000,0,0,0.000000,3,0.000000,0.000000,1.756652,0,0,0,0,0,0,0
2,29999,44,20000,9,10000,0,9999,0.100000,0,0,0.000000,3,0.000000,0.000000,0.689558,0,0,0,0,0,0,0
2,29999,45,20000,9,10000,0,9999,0.100000,0,0,0.000000,3,0.000000,0.000000,0.915501,0,0,0,0,0,0,0
2,29999,46,20000,9,10000,0,9999,0.100000,0,0,0.000000,3,0.000000,0.000000,0.277104,0,0,0,0,0,0,0
2,29999,47,20000,9,0,0,9999,0.100000,0,0,0.000000,3,0.000000,0.000000,0.609429,0,0,0,0,0,0,0
2,29999,48,20000,9,0,1,9999,0.100000,0,0,0.000000,3,1.000000,0.000000,14.085759,0,0,0,0,0,0,0
2,29999,49,20000,9,10000,0,9999,0.100000,0,0,0.000000,3,0.000000,0.000000,0.904458,0,0,0,0,0,0,0
2,29999,50,20000,9,10000,0,9999,0.100000,0,0,0.000000,3,0.000000,0.000000,0.232209,0,0,0,0,0,0,0
2,29999,51,20000,9,10000,1,9999,0.100000,0,0,0.000000,3,3.000000,0.000000,15.688265,0,0,0,0,0,0,0
2,29999,52,20000,9,10000,1,9999,0.100000,0,0,34.210526,3,4.000000,0.000000,12.895089,0,0,0,1,0,0,0
2,29999,53,20000,9,10000,0,9999,0.100000,0,0,0.000000,3,0.000000,0.000000,8.580668,0,0,0,0,0,0,0
2,29999,54,20000,9,10000,1,9999,0.100000,0,0,0.000000,3,5.000000,0.000000,17.268456,0,0,0,0,0,0,0
2,29999,55,20000,9,10000,1,9999,0.100000,0,0,0.000000,3,2.000000,0.000000,10.640298,0,0,0,0,0,0,0
2,29999,56,20000,9,10000,0,9999,0.100000,0,0,0.000000,3,0.000000,0.000000,2.199788,0,0,0,0,0,0,0
2,29999,57,20000,9,10000,1,9999,0.100000,0,0,0.000000,3,1.000000,0.000000,2.025221,0,0,0,0,0,0,0
2,29999,58,20000,9,0,1,9999,0.100000,0,0,0.000000,3,7.000000,0.000000,17.983147,0,0,0,0,0,0,0
2,29999,59,20000,9,0,3,9999,0.100000,0,0,43.473662,3,5.000000,0.000000,28.751039,0,0,1,0,0,0,0
2,29999,60,20000,9,0,1,9999,0.100000,0,0,0.000000,3,2.000000,0.000000,7.284975,0,0,0,0,0,0,0
2,29999,61,20000,9,10000,0,9999,0.100000,0,0,0.000000,3,0.000000,0.000000,0.446696,0,0,0,0,0,0,0
2,29999,62,20000,9,10000,1,9999,0.100000,0,0,0.000000,3,10.000000,0.000000,12.484080,0,0,0,0,0,0,0
2,29999,63,20000,9,0,0,9999,0.100000,0,0,0.000000,3,0.000000,0.000000,0.310853,0,0,0,0,0,0,0
2,29999,64,20000,9,0,1,9999,0.100000,0,0,0.000000,3,1.000000,0.000000,2.587497,0,0,0,0,0,0,0
2,29999,65,20000,9,0,1,9999,0.100000,0,0,0.000000,3,5.000000,0.000000,6.361557,0,0,0,0,0,0,0
2,29999,66,20000,9,0,1,9999,0.100000,0,0,0.000000,3,1.000000,0.000000,12.950024,0,0,0,0,0,0,0
2,29999,67,20000,9,0,0,9999,0.100000,0,0,0.000000,3,0.000000,0.000000,0.161306,0,0,0,0,0,0,0
2,29999,68,20000,9,0,0,9999,0.100000,0,0,0.000000,3,0.000000,0.000000,0.284197,0,0,0,0,0,0,0
2,29999,69,20000,9,10000,0,9999,0.100000,0,0,0.000000,3,0.000000,0.000000,0.362495,0,0,0,0,0,0,0
2,29999,70,20000,9,10000,1,9999,0.100000,0,0,0.000000,3,1.000000,0.000000,1.499304,0,0,0,0,0,0,0
2,29999,71,20000,9,0,1,9999,0.100000,0,0,0.000000,3,1.000000,0.000000,11.774035,0,0,0,0,0,0,0
2,29999,72,20000,9,0,0,9999,0.100000,0,0,0.000000,3,0.000000,0.000000,0.267600,0,0,0,0,0,0,0
2,29999,73,20000,9,10000,1,9999,0.100000,0,0,0.000000,3,1.000000,0.000000,8.527920,0,0,0,0,0,0,0
2,29999,74,20000,9,0,0,9999,0.100000,0,0,0.000000,3,0.000000,0.000000,0.532686,0,0,0,0,0,0,0
2,29999,75,20000,9,10000,1,9999,0.100000,0,0,0.000000,3,1.000000,0.000000,2.442947,0,0,0,0,0,0,0
2,29999,76,20000,9,10000,1,9999,0.100000,0,0,0.000000,3,1.000000,0.000000,3.892880,0,0,0,0,0,0,0
2,29999,77,20000,9,0,1,9999,0.100000,0,0,0.000000,3,1.000000,0.000000,14.517277,0,0,0,0,0,0,0
2,29999,78,20000,9,10000,1,9999,0.100000,0,0,0.000000,3,1.000000,0.000000,10.983254,0,0,0,0,0,0,0
2,29999,79,20000,9,10000,1,9999,0.100000,0,0,0.000000,3,1.000000,0.000000,12.045500,0,0,0,0,0,0,0
2,29999,80,20000,9,0,0,9999,0.100000,0,0,0.000000,3,0.000000,0.000000,1.627424,0,0,0,0,0,0,0
2,29999,81,20000,9,0,1,9999,0.100000,0,0,0.000000,3,2.000000,0.000000,12.541326,0,0,0,0,0,0,0
2,29999,82,20000,9,10000,0,9999,0.100000,0,0,0.000000,3,0.000000,0.000000,1.056781,0,0,0,0,0,0,0
2,29999,83,20000,9,10000,3,9999,0.100000,0,0,65.451273,3,11.000000,0.000000,22.721945,0,0,1,0,0,0,0
2,29999,84,20000,9,10000,1,9999,0.100000,0,0,0.000000,3,1.000000,0.000000,11.448915,0,0,0,0,0,0,0
2,29999,85,20000,9,0,1,9999,0.100000,0,0,0.000000,3,3.000000,0.000000,4.126268,0,0,0,0,0,0,0
2,29999,86,20000,9,0,3,9999,0.100000,0,0,51.548266,3,3.000000,0.000000,22.744741,0,0,2,0,0,0,0
2,29999,87,20000,9,0,0,9999,0.100000,0,0,0.000000,3,0.000000,0.000000,0.493727,0,0,0,0,0,0,0
2,29999,88,20000,9,0,0,9999,0.100000,0,0,0.000000,3,0.000000,0.000000,0.413678,0,0,0,0,0,0,0
2,29999,89,20000,9,0,1,9999,0.100000,0,0,0.000000,3,1.000000,0.000000,2.742942,0,0,0,0,0,0,0
2,29999,90,20000,9,10000,0,9999,0.100000,0,0,0.000000,3,0.000000,0.000000,0.811842,0,0,0,0,0,0,0
2,29999,91,20000,9,10000,0,9999,0.100000,0,0,0.000000,3,0.000000,0.000000,1.061164,0,0,0,0,0,0,0
2,29999,92,20000,9,0,1,9999,0.100000,0,0,0.000000,3,3.000000,0.000000,16.670206,0,0,0,0,0,0,0
2,29999,93,20000,9,0,1,9999,0.100000,0,0,0.000000,3,8.000000,0.000000,22.260290,0,0,0,0,0,0,0
2,29999,94,20000,9,0,0,9999,0.100000,0,0,0.000000,3,0.000000,0.000000,0.701559,0,0,0,0,0,0,0
2,29999,95,20000,9,0,0,9999,0.100000,0,0,0.000000,3,0.000000,0.000000,0.859530,0,0,0,0,0,0,0
2,29999,96,20000,9,0,0,9999,0.100000,0,0,0.000000,3,0.000000,0.000000,1.386181,0,0,0,0,0,0,0
2,29999,97,20000,9,10000,0,9999,0.100000,0,0,0.000000,3,0.000000,0.000000,0.098937,0,0,0,0,0,0,0
2,29999,98,20000,9,0,1,9999,0.100000,0,0,0.000000,3,1.000000,0.000000,16.763174,0,0,0,0,0,0,0
2,29999,99,20000,9,0,1,9999,0.100000,0,0,0.000000,3,1.000000,0.000000,12.719365,0,0,0,0,0,0,0
