generation,iteration,robot,birthday,ancestor_id,ancestor_birthday,cell_id,age,sigma,maps,genomes,fitness,cells_in_map,dist_max,dist_pot_max,dist_total,com_rx,com_tx,obj_group1,obj_group2,obj_group3,obj_group4,obj_group5
0,9999,0,0,0,0,49,9999,0.100000,0,0,0.000000,0,4.000000,0.000000,10.520890,0,0,0,0,0,0,0
0,9999,1,0,1,0,49,9999,0.100000,0,0,0.000000,0,9.000000,0.000000,18.199136,0,0,0,0,0,0,0
0,9999,2,0,2,0,49,9999,0.100000,0,0,0.000000,0,7.000000,0.000000,14.903578,0,0,0,0,0,0,0
0,9999,3,0,3,0,49,9999,0.100000,0,0,0.000000,0,11.000000,0.000000,16.205648,0,0,0,0,0,0,0
0,9999,4,0,4,0,49,9999,0.100000,0,0,0.000000,0,9.000000,0.000000,13.082153,0,0,0,0,0,0,0
0,9999,5,0,5,0,49,9999,0.100000,0,0,0.000000,0,7.000000,0.000000,16.316759,0,0,0,0,0,0,0
0,9999,6,0,6,0,49,9999,0.100000,0,0,0.000000,0,13.000000,0.000000,29.332552,0,0,0,0,0,0,0
0,9999,7,0,7,0,49,9999,0.100000,0,0,0.000000,0,5.000000,0.000000,8.409813,0,0,0,0,0,0,0
0,9999,8,0,8,0,49,9999,0.100000,0,0,0.000000,0,1.000000,0.000000,15.271594,0,0,0,0,0,0,0
0,9999,9,0,9,0,49,9999,0.100000,0,0,0.000000,0,4.000000,0.000000,20.964998,0,0,0,0,0,0,0
0,9999,10,0,10,0,49,9999,0.100000,0,0,0.000000,0,11.000000,0.000000,15.121132,0,0,0,0,0,0,0
0,9999,11,0,11,0,49,9999,0.100000,0,0,0.000000,0,11.000000,0.000000,24.358859,0,0,0,0,0,0,0
0,9999,12,0,12,0,49,9999,0.100000,0,0,0.000000,0,10.000000,0.000000,19.161380,0,0,0,0,0,0,0
0,9999,13,0,13,0,49,9999,0.100000,0,0,0.000000,0,2.000000,0.000000,6.425135,0,0,0,0,0,0,0
0,9999,14,0,14,0,49,9999,0.100000,0,0,0.000000,0,10.000000,0.000000,13.950618,0,0,0,0,0,0,0
0,9999,15,0,15,0,49,9999,0.100000,0,0,0.000000,0,6.000000,0.000000,7.636412,0,0,0,0,0,0,0
0,9999,16,0,16,0,49,9999,0.100000,0,0,0.000000,0,10.000000,0.000000,15.093385,0,0,0,0,0,0,0
0,9999,17,0,17,0,49,9999,0.100000,0,0,0.000000,0,15.000000,0.000000,27.704653,0,0,0,0,0,0,0
0,9999,18,0,18,0,49,9999,0.100000,0,0,0.000000,0,4.000000,0.000000,4.490870,0,0,0,0,0,0,0
0,9999,19,0,19,0,49,9999,0.100000,0,0,0.000000,0,9.000000,0.000000,13.824408,0,0,0,0,0,0,0
0,9999,20,0,20,0,49,9999,0.100000,0,0,0.000000,0,13.000000,0.000000,25.760958,0,0,0,0,0,0,0
0,9999,21,0,21,0,99,9999,0.100000,0,0,47.368421,0,9.000000,0.000000,19.017223,0,0,1,0,0,0,0
0,9999,22,0,22,0,49,9999,0.100000,0,0,0.000000,0,1.000000,0.000000,11.562947,0,0,0,0,0,0,0
0,9999,23,0,23,0,49,9999,0.100000,0,0,0.000000,0,8.000000,0.000000,8.911680,0,0,0,0,0,0,0
0,9999,24,0,24,0,49,9999,0.100000,0,0,0.000000,0,10.000000,0.000000,21.726025,0,0,0,0,0,0,0
0,9999,25,0,25,0,49,9999,0.100000,0,0,0.000000,0,1.000000,0.000000,4.084302,0,0,0,0,0,0,0
0,9999,26,0,26,0,49,9999,0.100000,0,0,0.000000,0,2.000000,0.000000,2.884981,0,0,0,0,0,0,0
0,9999,27,0,27,0,49,9999,0.100000,0,0,0.000000,0,9.000000,0.000000,13.606725,0,0,0,0,0,0,0
0,9999,28,0,28,0,49,9999,0.100000,0,0,0.000000,0,4.000000,0.000000,7.018313,0,0,0,0,0,0,0
0,9999,29,0,29,0,49,9999,0.100000,0,0,0.000000,0,10.000000,0.000000,17.572925,0,0,0,0,0,0,0
0,9999,30,0,30,0,49,9999,0.100000,0,0,0.000000,0,4.000000,0.000000,8.653416,0,0,0,0,0,0,0
0,9999,31,0,31,0,49,9999,0.100000,0,0,0.000000,0,3.000000,0.000000,4.126476,0,0,0,0,0,0,0
0,9999,32,0,32,0,49,9999,0.100000,0,0,0.000000,0,7.000000,0.000000,22.345888,0,0,0,0,0,0,0
0,9999,33,0,33,0,49,9999,0.100000,0,0,0.000000,0,10.000000,0.000000,19.663106,0,0,0,0,0,0,0
0,9999,34,0,34,0,49,9999,0.100000,0,0,0.000000,0,6.000000,0.000000,12.782161,0,0,0,0,0,0,0
0,9999,35,0,35,0,49,9999,0.100000,0,0,0.000000,0,6.000000,0.000000,16.385463,0,0,0,0,0,0,0
0,9999,36,0,36,0,49,9999,0.100000,0,0,0.000000,0,9.000000,0.000000,17.269416,0,0,0,0,0,0,0
0,9999,37,0,37,0,49,9999,0.100000,0,0,0.000000,0,6.000000,0.000000,15.977626,0,0,0,0,0,0,0
0,9999,38,0,38,0,49,9999,0.100000,0,0,0.000000,0,7.000000,0.000000,11.950752,0,0,0,0,0,0,0
0,9999,39,0,39,0,49,9999,0.100000,0,0,0.000000,0,7.000000,0.000000,19.193706,0,0,0,0,0,0,0
0,9999,40,0,40,0,49,9999,0.100000,0,0,0.000000,0,7.000000,0.000000,15.687631,0,0,0,0,0,0,0
0,9999,41,0,41,0,49,9999,0.100000,0,0,0.000000,0,13.000000,0.000000,15.531520,0,0,0,0,0,0,0
0,9999,42,0,42,0,49,9999,0.100000,0,0,0.000000,0,3.000000,0.000000,12.676743,0,0,0,0,0,0,0
0,9999,43,0,43,0,49,9999,0.100000,0,0,0.000000,0,8.000000,0.000000,16.538029,0,0,0,0,0,0,0
0,9999,44,0,44,0,49,9999,0.100000,0,0,0.000000,0,6.000000,0.000000,11.386787,0,0,0,0,0,0,0
0,9999,45,0,45,0,49,9999,0.100000,0,0,0.000000,0,10.000000,0.000000,11.142956,0,0,0,0,0,0,0
0,9999,46,0,46,0,49,9999,0.100000,0,0,0.000000,0,8.000000,0.000000,11.716660,0,0,0,0,0,0,0
0,9999,47,0,47,0,49,9999,0.100000,0,0,0.000000,0,8.000000,0.000000,8.437741,0,0,0,0,0,0,0
0,9999,48,0,48,0,49,9999,0.100000,0,0,0.000000,0,4.000000,0.000000,24.910299,0,0,0,0,0,0,0
0,9999,49,0,49,0,49,9999,0.100000,0,0,0.000000,0,10.000000,0.000000,11.411691,0,0,0,0,0,0,0
0,9999,50,0,50,0,49,9999,0.100000,0,0,0.000000,0,4.000000,0.000000,8.106584,0,0,0,0,0,0,0
0,9999,51,0,51,0,49,9999,0.100000,0,0,0.000000,0,8.000000,0.000000,10.697248,0,0,0,0,0,0,0
0,9999,52,0,52,0,49,9999,0.100000,0,0,0.000000,0,4.000000,0.000000,6.760785,0,0,0,0,0,0,0
0,9999,53,0,53,0,49,9999,0.100000,0,0,0.000000,0,11.000000,0.000000,22.498296,0,0,0,0,0,0,0
0,9999,54,0,54,0,49,9999,0.100000,0,0,0.000000,0,11.000000,0.000000,20.812275,0,0,0,0,0,0,0
0,9999,55,0,55,0,49,9999,0.100000,0,0,0.000000,0,10.000000,0.000000,15.885922,0,0,0,0,0,0,0
0,9999,56,0,56,0,49,9999,0.100000,0,0,0.000000,0,7.000000,0.000000,15.309192,0,0,0,0,0,0,0
0,9999,57,0,57,0,49,9999,0.100000,0,0,0.000000,0,3.000000,0.000000,3.640530,0,0,0,0,0,0,0
0,9999,58,0,58,0,49,9999,0.100000,0,0,0.000000,0,8.000000,0.000000,8.873570,0,0,0,0,0,0,0
0,9999,59,0,59,0,49,9999,0.100000,0,0,0.000000,0,7.000000,0.000000,9.079390,0,0,0,0,0,0,0
0,9999,60,0,60,0,49,9999,0.100000,0,0,0.000000,0,9.000000,0.000000,10.737200,0,0,0,0,0,0,0
0,9999,61,0,61,0,49,9999,0.100000,0,0,0.000000,0,12.000000,0.000000,21.707956,0,0,0,0,0,0,0
0,9999,62,0,62,0,49,9999,0.100000,0,0,0.000000,0,11.000000,0.000000,23.648263,0,0,0,0,0,0,0
0,9999,63,0,63,0,49,9999,0.100000,0,0,0.000000,0,11.000000,0.000000,31.841595,0,0,0,0,0,0,0
0,9999,64,0,64,0,49,9999,0.100000,0,0,0.000000,0,9.000000,0.000000,12.627510,0,0,0,0,0,0,0
0,9999,65,0,65,0,49,9999,0.100000,0,0,0.000000,0,3.000000,0.000000,6.106458,0,0,0,0,0,0,0
0,9999,66,0,66,0,49,9999,0.100000,0,0,0.000000,0,7.000000,0.000000,15.162833,0,0,0,0,0,0,0
0,9999,67,0,67,0,49,9999,0.100000,0,0,0.000000,0,9.000000,0.000000,9.854741,0,0,0,0,0,0,0
0,9999,68,0,68,0,49,9999,0.100000,0,0,0.000000,0,2.000000,0.000000,11.940301,0,0,0,0,0,0,0
0,9999,69,0,69,0,49,9999,0.100000,0,0,0.000000,0,5.000000,0.000000,17.214027,0,0,0,0,0,0,0
0,9999,70,0,70,0,49,9999,0.100000,0,0,0.000000,0,5.000000,0.000000,5.401966,0,0,0,0,0,0,0
0,9999,71,0,71,0,49,9999,0.100000,0,0,0.000000,0,9.000000,0.000000,10.277264,0,0,0,0,0,0,0
0,9999,72,0,72,0,49,9999,0.100000,0,0,0.000000,0,9.000000,0.000000,23.636170,0,0,0,0,0,0,0
0,9999,73,0,73,0,49,9999,0.100000,0,0,0.000000,0,5.000000,0.000000,10.772987,0,0,0,0,0,0,0
0,9999,74,0,74,0,49,9999,0.100000,0,0,0.000000,0,14.000000,0.000000,31.190228,0,0,0,0,0,0,0
0,9999,75,0,75,0,49,9999,0.100000,0,0,0.000000,0,11.000000,0.000000,24.254285,0,0,0,0,0,0,0
0,9999,76,0,76,0,49,9999,0.100000,0,0,0.000000,0,7.000000,0.000000,8.559697,0,0,0,0,0,0,0
0,9999,77,0,77,0,49,9999,0.100000,0,0,0.000000,0,8.000000,0.000000,16.780506,0,0,0,0,0,0,0
0,9999,78,0,78,0,99,9999,0.100000,0,0,47.368421,0,8.000000,0.000000,29.543825,0,0,1,0,0,0,0
0,9999,79,0,79,0,49,9999,0.100000,0,0,0.000000,0,8.000000,0.000000,15.320118,0,0,0,0,0,0,0
0,9999,80,0,80,0,49,9999,0.100000,0,0,0.000000,0,4.000000,0.000000,4.977042,0,0,0,0,0,0,0
0,9999,81,0,81,0,49,9999,0.100000,0,0,0.000000,0,6.000000,0.000000,20.659547,0,0,0,0,0,0,0
0,9999,82,0,82,0,49,9999,0.100000,0,0,0.000000,0,4.000000,0.000000,10.179647,0,0,0,0,0,0,0
0,9999,83,0,83,0,49,9999,0.100000,0,0,0.000000,0,9.000000,0.000000,12.477977,0,0,0,0,0,0,0
0,9999,84,0,84,0,49,9999,0.100000,0,0,0.000000,0,7.000000,0.000000,21.528583,0,0,0,0,0,0,0
0,9999,85,0,85,0,49,9999,0.100000,0,0,0.000000,0,4.000000,0.000000,10.890276,0,0,0,0,0,0,0
0,9999,86,0,86,0,49,9999,0.100000,0,0,0.000000,0,12.000000,0.000000,21.511643,0,0,0,0,0,0,0
0,9999,87,0,87,0,49,9999,0.100000,0,0,0.000000,0,7.000000,0.000000,8.577573,0,0,0,0,0,0,0
0,9999,88,0,88,0,49,9999,0.100000,0,0,0.000000,0,10.000000,0.000000,19.142184,0,0,0,0,0,0,0
0,9999,89,0,89,0,49,9999,0.100000,0,0,0.000000,0,12.000000,0.000000,16.690048,0,0,0,0,0,0,0
0,9999,90,0,90,0,49,9999,0.100000,0,0,0.000000,0,4.000000,0.000000,5.619786,0,0,0,0,0,0,0
0,9999,91,0,91,0,49,9999,0.100000,0,0,0.000000,0,13.000000,0.000000,27.875055,0,0,0,0,0,0,0
0,9999,92,0,92,0,49,9999,0.100000,0,0,0.000000,0,7.000000,0.000000,12.011163,0,0,0,0,0,0,0
0,9999,93,0,93,0,49,9999,0.100000,0,0,0.000000,0,11.000000,0.000000,15.186893,0,0,0,0,0,0,0
0,9999,94,0,94,0,49,9999,0.100000,0,0,0.000000,0,10.000000,0.000000,12.102840,0,0,0,0,0,0,0
0,9999,95,0,95,0,49,9999,0.100000,0,0,0.000000,0,11.000000,0.000000,15.300657,0,0,0,0,0,0,0
0,9999,96,0,96,0,49,9999,0.100000,0,0,0.000000,0,6.000000,0.000000,11.523563,0,0,0,0,0,0,0
0,9999,97,0,97,0,49,9999,0.100000,0,0,0.000000,0,10.000000,0.000000,40.647003,0,0,0,0,0,0,0
0,9999,98,0,98,0,49,9999,0.100000,0,0,0.000000,0,5.000000,0.000000,5.767557,0,0,0,0,0,0,0
0,9999,99,0,99,0,49,9999,0.100000,0,0,0.000000,0,8.000000,0.000000,10.346556,0,0,0,0,0,0,0
1,19999,0,10000,0,0,49,9999,0.100000,0,0,0.000000,2,5.000000,0.000000,5.608582,0,0,0,0,0,0,0
1,19999,1,0,1,0,49,19999,0.100000,0,0,0.000000,3,3.000000,0.000000,15.671777,0,0,0,0,0,0,0
1,19999,2,10000,24,0,49,9999,0.100000,0,0,0.000000,3,1.000000,0.000000,6.531627,0,0,0,0,0,0,0
1,19999,3,10000,7,0,49,9999,0.065000,0,0,0.000000,2,3.000000,0.000000,9.019458,0,0,0,0,0,0,0
1,19999,4,10000,45,0,40,9999,0.100000,0,0,0.000000,2,0.000000,0.000000,3.847991,0,0,0,0,0,0,0
1,19999,5,10000,45,0,49,9999,0.100000,0,0,0.000000,3,1.000000,0.000000,6.522567,0,0,0,0,0,0,0
1,19999,6,10000,78,0,49,9999,0.100000,0,0,0.000000,3,2.000000,0.000000,15.220939,0,0,0,0,0,0,0
1,19999,7,10000,10,0,40,9999,0.100000,0,0,0.000000,2,0.000000,0.000000,0.336390,0,0,0,0,0,0,0
1,19999,8,10000,24,0,49,9999,0.100000,0,0,0.000000,3,2.000000,0.000000,11.893614,0,0,0,0,0,0,0
1,19999,9,10000,7,0,40,9999,0.100000,0,0,0.000000,2,0.000000,0.000000,2.698855,0,0,0,0,0,0,0
1,19999,10,10000,10,0,40,9999,0.100000,0,0,0.000000,1,0.000000,0.000000,4.576999,0,0,0,0,0,0,0
1,19999,11,10000,45,0,40,9999,0.100000,0,0,0.000000,3,0.000000,0.000000,0.690677,0,0,0,0,0,0,0
1,19999,12,10000,45,0,40,9999,0.100000,0,0,0.000000,3,0.000000,0.000000,3.947266,0,0,0,0,0,0,0
1,19999,13,10000,45,0,40,9999,0.100000,0,0,0.000000,3,0.000000,0.000000,1.154935,0,0,0,0,0,0,0
1,19999,14,10000,3,0,40,9999,0.100000,0,0,0.000000,3,0.000000,0.000000,0.666881,0,0,0,0,0,0,0
1,19999,15,10000,45,0,40,9999,0.100000,0,0,0.000000,3,0.000000,0.000000,0.165222,0,0,0,0,0,0,0
1,19999,16,10000,3,0,40,9999,0.100000,0,0,0.000000,3,0.000000,0.000000,0.164265,0,0,0,0,0,0,0
1,19999,17,10000,24,0,9,9999,0.100000,0,0,0.000000,3,2.000000,0.000000,6.534967,0,0,0,0,0,0,1
1,19999,18,10000,45,0,40,9999,0.100000,0,0,0.000000,3,0.000000,0.000000,0.171056,0,0,0,0,0,0,0
1,19999,19,10000,24,0,40,9999,0.100000,0,0,0.000000,3,0.000000,0.000000,1.019516,0,0,0,0,0,0,0
1,19999,20,10000,41,0,49,9999,0.100000,0,0,0.000000,3,1.000000,0.000000,15.289098,0,0,0,0,0,0,0
1,19999,21,10000,41,0,49,9999,0.100000,0,0,0.000000,3,1.000000,0.000000,8.773336,0,0,0,0,0,0,0
1,19999,22,10000,24,0,49,9999,0.100000,0,0,0.000000,3,3.000000,0.000000,10.649259,0,0,0,0,0,0,0
1,19999,23,10000,41,0,40,9999,0.100000,0,0,0.000000,3,0.000000,0.000000,0.666635,0,0,0,0,0,0,0
1,19999,24,10000,45,0,99,9999,0.100000,0,0,55.515663,3,4.000000,0.000000,14.857664,0,0,1,0,0,0,0
1,19999,25,10000,45,0,40,9999,0.100000,0,0,0.000000,3,0.000000,0.000000,0.608254,0,0,0,0,0,0,0
1,19999,26,10000,45,0,40,9999,0.100000,0,0,0.000000,3,0.000000,0.000000,1.043207,0,0,0,0,0,0,0
1,19999,27,10000,41,0,40,9999,0.100000,0,0,0.000000,3,0.000000,0.000000,0.787348,0,0,0,0,0,0,0
1,19999,28,10000,41,0,40,9999,0.100000,0,0,0.000000,3,0.000000,0.000000,0.197631,0,0,0,0,0,0,0
1,19999,29,10000,41,0,40,9999,0.100000,0,0,0.000000,3,0.000000,0.000000,0.076766,0,0,0,0,0,0,0
1,19999,30,10000,24,0,9,9999,0.100000,0,0,34.210526,3,5.000000,0.000000,11.330311,0,0,0,0,1,0,0
1,19999,31,10000,24,0,40,9999,0.100000,0,0,0.000000,3,0.000000,0.000000,0.268187,0,0,0,0,0,0,0
1,19999,32,10000,45,0,40,9999,0.100000,0,0,0.000000,3,0.000000,0.000000,23.664167,0,0,0,0,0,0,0
1,19999,33,10000,3,0,49,9999,0.100000,0,0,0.000000,3,6.000000,0.000000,13.019921,0,0,0,0,0,0,0
1,19999,34,10000,3,0,49,9999,0.100000,0,0,0.000000,3,1.000000,0.000000,20.091269,0,0,0,0,0,0,0
1,19999,35,10000,45,0,9,9999,0.100000,0,0,34.210526,3,5.000000,0.000000,6.901262,0,0,0,1,0,0,0
1,19999,36,10000,3,0,49,9999,0.100000,0,0,0.000000,2,2.000000,0.000000,4.267503,0,0,0,0,0,0,0
1,19999,37,10000,45,0,49,9999,0.100000,0,0,0.000000,2,1.000000,0.000000,6.966085,0,0,0,0,0,0,0
1,19999,38,0,38,0,40,19999,0.100000,0,0,0.000000,3,0.000000,0.000000,0.174895,0,0,0,0,0,0,0
1,19999,39,10000,3,0,49,9999,0.100000,0,0,0.000000,3,5.000000,0.000000,5.721821,0,0,0,0,0,0,0
1,19999,40,10000,24,0,40,9999,0.100000,0,0,0.000000,3,0.000000,0.000000,0.500790,0,0,0,0,0,0,0
1,19999,41,10000,3,0,40,9999,0.100000,0,0,0.000000,3,0.000000,0.000000,0.090248,0,0,0,0,0,0,0
1,19999,42,10000,45,0,40,9999,0.100000,0,0,0.000000,3,0.000000,0.000000,6.631259,0,0,0,0,0,0,0
1,19999,43,10000,3,0,40,9999,0.100000,0,0,0.000000,3,0.000000,0.000000,0.881110,0,0,0,0,0,0,0
1,19999,44,10000,78,0,9,9999,0.100000,0,0,34.210526,3,4.000000,0.000000,13.517400,0,0,0,0,1,0,0
1,19999,45,10000,45,0,9,9999,0.100000,0,0,0.000000,2,1.000000,0.000000,4.283706,0,0,0,0,0,0,1
1,19999,46,10000,41,0,40,9999,0.100000,0,0,0.000000,3,0.000000,0.000000,2.188063,0,0,0,0,0,0,0
1,19999,47,10000,3,0,40,9999,0.100000,0,0,0.000000,3,0.000000,0.000000,0.345978,0,0,0,0,0,0,0
1,19999,48,10000,45,0,49,9999,0.100000,0,0,0.000000,2,4.000000,0.000000,5.505026,0,0,0,0,0,0,0
1,19999,49,10000,41,0,9,9999,0.100000,0,0,0.000000,3,1.000000,0.000000,2.997259,0,0,0,0,0,0,1
1,19999,50,10000,41,0,40,9999,0.100000,0,0,0.000000,3,0.000000,0.000000,1.011588,0,0,0,0,0,0,0
1,19999,51,10000,24,0,40,9999,0.100000,0,0,0.000000,3,0.000000,0.000000,0.146445,0,0,0,0,0,0,0
1,19999,52,10000,3,0,9,9999,0.100000,0,0,34.210526,3,4.000000,0.000000,14.315452,0,0,0,0,1,0,0
1,19999,53,10000,3,0,49,9999,0.100000,0,0,0.000000,3,3.000000,0.000000,10.745439,0,0,0,0,0,0,0
1,19999,54,10000,78,0,49,9999,0.100000,0,0,0.000000,3,4.000000,0.000000,12.257926,0,0,0,0,0,0,0
1,19999,55,10000,45,0,49,9999,0.100000,0,0,0.000000,2,1.000000,0.000000,3.328276,0,0,0,0,0,0,0
1,19999,56,10000,3,0,49,9999,0.100000,0,0,0.000000,3,4.000000,0.000000,7.510127,0,0,0,0,0,0,0
1,19999,57,0,57,0,40,19999,0.100000,0,0,0.000000,2,0.000000,0.000000,0.158324,0,0,0,0,0,0,0
1,19999,58,10000,41,0,40,9999,0.100000,0,0,0.000000,3,0.000000,0.000000,0.105970,0,0,0,0,0,0,0
1,19999,59,10000,24,0,40,9999,0.100000,0,0,0.000000,3,0.000000,0.000000,0.266849,0,0,0,0,0,0,0
1,19999,60,10000,45,0,40,9999,0.100000,0,0,0.000000,2,0.000000,0.000000,0.094299,0,0,0,0,0,0,0
1,19999,61,10000,41,0,49,9999,0.100000,0,0,0.000000,3,2.000000,0.000000,18.598260,0,0,0,0,0,0,0
1,19999,62,0,62,0,49,19999,0.100000,0,0,0.000000,3,11.000000,0.000000,34.564241,0,0,0,0,0,0,0
1,19999,63,10000,3,0,49,9999,0.100000,0,0,0.000000,3,2.000000,0.000000,5.135666,0,0,0,0,0,0,0
1,19999,64,10000,45,0,40,9999,0.100000,0,0,0.000000,3,0.000000,0.000000,0.171084,0,0,0,0,0,0,0
1,19999,65,0,65,0,40,19999,0.100000,0,0,0.000000,2,0.000000,0.000000,1.859776,0,0,0,0,0,0,0
1,19999,66,10000,45,0,49,9999,0.100000,0,0,0.000000,2,2.000000,0.000000,12.085849,0,0,0,0,0,0,0
1,19999,67,10000,24,0,40,9999,0.100000,0,0,0.000000,3,0.000000,0.000000,0.354970,0,0,0,0,0,0,0
1,19999,68,10000,24,0,49,9999,0.100000,0,0,0.000000,3,1.000000,0.000000,1.343888,0,0,0,0,0,0,0
1,19999,69,10000,45,0,40,9999,0.100000,0,0,0.000000,3,0.000000,0.000000,0.208882,0,0,0,0,0,0,0
1,19999,70,10000,41,0,40,9999,0.100000,0,0,0.000000,3,0.000000,0.000000,0.257137,0,0,0,0,0,0,0
1,19999,71,10000,41,0,40,9999,0.100000,0,0,0.000000,3,0.000000,0.000000,0.565852,0,0,0,0,0,0,0
1,19999,72,10000,41,0,49,9999,0.100000,0,0,0.000000,3,1.000000,0.000000,4.127365,0,0,0,0,0,0,0
1,19999,73,10000,24,0,40,9999,0.100000,0,0,0.000000,3,0.000000,0.000000,0.125241,0,0,0,0,0,0,0
1,19999,74,10000,3,0,49,9999,0.100000,0,0,0.000000,2,4.000000,0.000000,15.690411,0,0,0,0,0,0,0
1,19999,75,10000,24,0,49,9999,0.100000,0,0,0.000000,3,3.000000,0.000000,17.415740,0,0,0,0,0,0,0
1,19999,76,10000,45,0,40,9999,0.100000,0,0,0.000000,3,0.000000,0.000000,0.521924,0,0,0,0,0,0,0
1,19999,77,0,77,0,40,19999,0.100000,0,0,0.000000,3,0.000000,0.000000,0.234517,0,0,0,0,0,0,0
1,19999,78,10000,3,0,49,9999,0.100000,0,0,0.000000,3,1.000000,0.000000,16.069385,0,0,0,0,0,0,0
1,19999,79,10000,3,0,49,9999,0.100000,0,0,0.000000,3,6.000000,0.000000,13.516486,0,0,0,0,0,0,0
1,19999,80,10000,3,0,49,9999,0.100000,0,0,0.000000,3,4.000000,0.000000,5.318424,0,0,0,0,0,0,0
1,19999,81,0,81,0,9,19999,0.100000,0,0,34.210526,3,5.000000,0.000000,9.510716,0,0,0,1,0,0,0
1,19999,82,10000,3,0,49,9999,0.100000,0,0,0.000000,3,3.000000,0.000000,11.253232,0,0,0,0,0,0,0
1,19999,83,10000,24,0,49,9999,0.100000,0,0,0.000000,3,4.000000,0.000000,16.337896,0,0,0,0,0,0,0
1,19999,84,10000,24,0,40,9999,0.100000,0,0,0.000000,3,0.000000,0.000000,0.422158,0,0,0,0,0,0,0
1,19999,85,10000,3,0,40,9999,0.100000,0,0,0.000000,3,0.000000,0.000000,1.125394,0,0,0,0,0,0,0
1,19999,86,10000,41,0,49,9999,0.100000,0,0,0.000000,3,1.000000,0.000000,6.694730,0,0,0,0,0,0,0
1,19999,87,10000,45,0,49,9999,0.100000,0,0,0.000000,3,1.000000,0.000000,5.417298,0,0,0,0,0,0,0
1,19999,88,10000,3,0,49,9999,0.100000,0,0,0.000000,3,3.000000,0.000000,17.600730,0,0,0,0,0,0,0
1,19999,89,0,89,0,49,19999,0.100000,0,0,0.000000,3,5.000000,0.000000,12.261607,0,0,0,0,0,0,0
1,19999,90,10000,24,0,40,9999,0.100000,0,0,0.000000,3,0.000000,0.000000,0.164988,0,0,0,0,0,0,0
1,19999,91,0,91,0,49,19999,0.100000,0,0,0.000000,3,3.000000,0.000000,9.018247,0,0,0,0,0,0,0
1,19999,92,10000,24,0,40,9999,0.100000,0,0,0.000000,3,0.000000,0.000000,0.154172,0,0,0,0,0,0,0
1,19999,93,10000,3,0,40,9999,0.100000,0,0,0.000000,3,0.000000,0.000000,1.019822,0,0,0,0,0,0,0
1,19999,94,10000,41,0,9,9999,0.100000,0,0,0.000000,3,2.000000,0.000000,13.071518,0,0,0,0,0,0,1
1,19999,95,10000,45,0,49,9999,0.100000,0,0,0.000000,3,8.000000,0.000000,20.757944,0,0,0,0,0,0,0
1,19999,96,10000,41,0,49,9999,0.100000,0,0,0.000000,3,1.000000,0.000000,15.171445,0,0,0,0,0,0,0
1,19999,97,10000,45,0,40,9999,0.100000,0,0,0.000000,3,0.000000,0.000000,4.340305,0,0,0,0,0,0,0
1,19999,98,10000,45,0,40,9999,0.100000,0,0,0.000000,3,0.000000,0.000000,0.422581,0,0,0,0,0,0,0
1,19999,99,10000,41,0,40,9999,0.100000,0,0,0.000000,3,0.000000,0.000000,0.631572,0,0,0,0,0,0,0
2,29999,0,20000,41,0,40,9999,0.100000,0,0,0.000000,3,0.000000,0.000000,0.826275,0,0,0,0,0,0,0
2,29999,1,20000,41,0,40,9999,0.100000,0,0,0.000000,5,0.000000,0.000000,1.343388,0,0,0,0,0,0,0
2,29999,2,20000,3,0,40,9999,0.100000,0,0,0.000000,3,0.000000,0.000000,0.130741,0,0,0,0,0,0,0
2,29999,3,20000,3,0,49,9999,0.100000,0,0,0.000000,3,3.000000,0.000000,13.529969,0,0,0,0,0,0,0
2,29999,4,20000,11,10000,40,9999,0.100000,0,0,0.000000,6,0.000000,0.000000,3.543710,0,0,0,0,0,0,0
2,29999,5,20000,41,0,40,9999,0.100000,0,0,0.000000,6,0.000000,0.000000,10.068494,0,0,0,0,0,0,0
2,29999,6,20000,3,0,49,9999,0.100000,0,0,0.000000,5,2.000000,0.000000,13.716093,0,0,0,0,0,0,0
2,29999,7,20000,42,10000,40,9999,0.100000,0,0,0.000000,5,0.000000,0.000000,0.118092,0,0,0,0,0,0,0
2,29999,8,20000,64,10000,49,9999,0.100000,0,0,0.000000,6,2.000000,0.000000,6.723362,0,0,0,0,0,0,0
2,29999,9,20000,11,10000,40,9999,0.100000,0,0,0.000000,6,0.000000,0.000000,0.806282,0,0,0,0,0,0,0
2,29999,10,20000,64,10000,49,9999,0.100000,0,0,0.000000,5,2.000000,0.000000,3.908921,0,0,0,0,0,0,0
2,29999,11,20000,11,10000,40,9999,0.100000,0,0,0.000000,6,0.000000,0.000000,1.130156,0,0,0,0,0,0,0
2,29999,12,20000,11,10000,49,9999,0.100000,0,0,0.000000,6,3.000000,0.000000,9.392921,0,0,0,0,0,0,0
2,29999,13,20000,41,0,40,9999,0.100000,0,0,0.000000,5,0.000000,0.000000,0.847345,0,0,0,0,0,0,0
2,29999,14,20000,42,10000,49,9999,0.100000,0,0,0.000000,6,6.000000,0.000000,14.836572,0,0,0,0,0,0,0
2,29999,15,20000,11,10000,40,9999,0.100000,0,0,0.000000,6,0.000000,0.000000,0.375059,0,0,0,0,0,0,0
2,29999,16,20000,41,0,49,9999,0.100000,0,0,0.000000,6,7.000000,0.000000,15.988746,0,0,0,0,0,0,0
2,29999,17,20000,24,0,40,9999,0.100000,0,0,0.000000,3,0.000000,0.000000,1.018509,0,0,0,0,0,0,0
2,29999,18,20000,42,10000,40,9999,0.100000,0,0,0.000000,5,0.000000,0.000000,0.203946,0,0,0,0,0,0,0
2,29999,19,20000,24,0,40,9999,0.100000,0,0,0.000000,6,0.000000,0.000000,2.598739,0,0,0,0,0,0,0
2,29999,20,20000,24,0,49,9999,0.100000,0,0,0.000000,5,6.000000,0.000000,16.612850,0,0,0,0,0,0,0
2,29999,21,20000,3,0,49,9999,0.100000,0,0,0.000000,3,2.000000,0.000000,4.913539,0,0,0,0,0,0,0
2,29999,22,20000,24,0,40,9999,0.100000,0,0,0.000000,5,0.000000,0.000000,0.100856,0,0,0,0,0,0,0
2,29999,23,20000,24,0,40,9999,0.100000,0,0,0.000000,6,0.000000,0.000000,0.422390,0,0,0,0,0,0,0
2,29999,24,20000,3,0,40,9999,0.100000,0,0,0.000000,6,0.000000,0.000000,5.726049,0,0,0,0,0,0,0
2,29999,25,20000,3,0,40,9999,0.100000,0,0,0.000000,6,0.000000,0.000000,0.531493,0,0,0,0,0,0,0
2,29999,26,20000,26,10000,40,9999,0.100000,0,0,0.000000,4,0.000000,0.000000,0.643249,0,0,0,0,0,0,0
2,29999,27,20000,42,10000,49,9999,0.100000,0,0,0.000000,6,1.000000,0.000000,2.424022,0,0,0,0,0,0,0
2,29999,28,20000,41,0,40,9999,0.100000,0,0,0.000000,6,0.000000,0.000000,0.387642,0,0,0,0,0,0,0
2,29999,29,20000,29,10000,40,9999,0.100000,0,0,0.000000,6,0.000000,0.000000,0.337625,0,0,0,0,0,0,0
2,29999,30,20000,3,0,49,9999,0.100000,0,0,0.000000,5,2.000000,0.000000,9.036330,0,0,0,0,0,0,0
2,29999,31,20000,42,10000,40,9999,0.100000,0,0,0.000000,6,0.000000,0.000000,0.159113,0,0,0,0,0,0,0
2,29999,32,20000,64,10000,49,9999,0.100000,0,0,0.000000,5,2.000000,0.000000,11.869477,0,0,0,0,0,0,0
2,29999,33,20000,42,10000,40,9999,0.100000,0,0,0.000000,6,0.000000,0.000000,2.660793,0,0,0,0,0,0,0
2,29999,34,20000,42,10000,40,9999,0.100000,0,0,0.000000,6,0.000000,0.000000,3.421147,0,0,0,0,0,0,0
2,29999,35,20000,24,0,49,9999,0.100000,0,0,0.000000,4,2.000000,0.000000,8.577149,0,0,0,0,0,0,0
2,29999,36,20000,42,10000,40,9999,0.100000,0,0,0.000000,5,0.000000,0.000000,2.094923,0,0,0,0,0,0,0
2,29999,37,20000,3,0,49,9999,0.100000,0,0,0.000000,5,1.000000,0.000000,5.868406,0,0,0,0,0,0,0
2,29999,38,20000,42,10000,40,9999,0.100000,0,0,0.000000,6,0.000000,0.000000,0.359405,0,0,0,0,0,0,0
2,29999,39,20000,41,0,40,9999,0.100000,0,0,0.000000,6,0.000000,0.000000,0.588082,0,0,0,0,0,0,0
2,29999,40,20000,24,10000,40,9999,0.100000,0,0,0.000000,6,0.000000,0.000000,1.262636,0,0,0,0,0,0,0
2,29999,41,20000,42,10000,40,9999,0.100000,0,0,0.000000,6,0.000000,0.000000,0.595168,0,0,0,0,0,0,0
2,29999,42,20000,26,10000,49,9999,0.100000,0,0,0.000000,5,3.000000,0.000000,7.355931,0,0,0,0,0,0,0
2,29999,43,20000,3,0,40,9999,0.100000,0,0,0.000000,5,0.000000,0.000000,0.964530,0,0,0,0,0,0,0
2,29999,44,20000,41,0,49,9999,0.100000,0,0,0.000000,5,9.000000,0.000000,22.341750,0,0,0,0,0,0,0
2,29999,45,20000,11,10000,49,9999,0.100000,0,0,0.000000,6,3.000000,0.000000,9.110060,0,0,0,0,0,0,0
2,29999,46,20000,24,0,49,9999,0.065000,0,0,0.000000,5,1.000000,0.000000,4.947636,0,0,0,0,0,0,0
2,29999,47,20000,41,0,40,9999,0.100000,0,0,0.000000,6,0.000000,0.000000,1.198594,0,0,0,0,0,0,0
2,29999,48,20000,3,0,40,9999,0.100000,0,0,0.000000,6,0.000000,0.000000,0.750213,0,0,0,0,0,0,0
2,29999,49,20000,24,0,40,9999,0.100000,0,0,0.000000,5,0.000000,0.000000,6.601355,0,0,0,0,0,0,0
2,29999,50,20000,41,0,40,9999,0.100000,0,0,0.000000,5,0.000000,0.000000,0.448989,0,0,0,0,0,0,0
2,29999,51,20000,42,10000,40,9999,0.100000,0,0,0.000000,5,0.000000,0.000000,0.276955,0,0,0,0,0,0,0
2,29999,52,20000,64,10000,49,9999,0.100000,0,0,0.000000,5,5.000000,0.000000,10.082198,0,0,0,0,0,0,0
2,29999,53,20000,42,10000,49,9999,0.100000,0,0,0.000000,5,1.000000,0.000000,12.719694,0,0,0,0,0,0,0
2,29999,54,20000,3,0,49,9999,0.100000,0,0,0.000000,5,3.000000,0.000000,4.957267,0,0,0,0,0,0,0
2,29999,55,20000,24,0,40,9999,0.100000,0,0,0.000000,5,0.000000,0.000000,0.518803,0,0,0,0,0,0,0
2,29999,56,20000,24,0,49,9999,0.100000,0,0,0.000000,6,1.000000,0.000000,6.256769,0,0,0,0,0,0,0
2,29999,57,20000,11,10000,40,9999,0.100000,0,0,0.000000,6,0.000000,0.000000,0.189354,0,0,0,0,0,0,0
2,29999,58,20000,3,0,40,9999,0.100000,0,0,0.000000,6,0.000000,0.000000,0.793695,0,0,0,0,0,0,0
2,29999,59,20000,11,10000,40,9999,0.100000,0,0,0.000000,6,0.000000,0.000000,0.529679,0,0,0,0,0,0,0
2,29999,60,20000,42,10000,40,9999,0.100000,0,0,0.000000,5,0.000000,0.000000,0.159848,0,0,0,0,0,0,0
2,29999,61,20000,41,0,49,9999,0.100000,0,0,0.000000,5,2.000000,0.000000,10.948401,0,0,0,0,0,0,0
2,29999,62,20000,11,10000,49,9999,0.100000,0,0,0.000000,6,1.000000,0.000000,6.536603,0,0,0,0,0,0,0
2,29999,63,20000,51,10000,40,9999,0.100000,0,0,0.000000,5,0.000000,0.000000,3.003655,0,0,0,0,0,0,0
2,29999,64,20000,24,0,40,9999,0.100000,0,0,0.000000,5,0.000000,0.000000,1.349732,0,0,0,0,0,0,0
2,29999,65,20000,3,0,40,9999,0.100000,0,0,0.000000,6,0.000000,0.000000,0.092644,0,0,0,0,0,0,0
2,29999,66,20000,42,10000,49,9999,0.100000,0,0,0.000000,6,2.000000,0.000000,10.385736,0,0,0,0,0,0,0
2,29999,67,20000,3,0,49,9999,0.100000,0,0,0.000000,6,1.000000,0.000000,1.147367,0,0,0,0,0,0,0
2,29999,68,20000,24,10000,40,9999,0.100000,0,0,0.000000,6,0.000000,0.000000,0.397040,0,0,0,0,0,0,0
2,29999,69,20000,3,0,40,9999,0.100000,0,0,0.000000,5,0.000000,0.000000,0.086894,0,0,0,0,0,0,0
2,29999,70,20000,41,0,40,9999,0.100000,0,0,0.000000,6,0.000000,0.000000,0.633838,0,0,0,0,0,0,0
2,29999,71,20000,11,10000,40,9999,0.100000,0,0,0.000000,6,0.000000,0.000000,0.324424,0,0,0,0,0,0,0
2,29999,72,20000,41,0,40,9999,0.100000,0,0,0.000000,6,0.000000,0.000000,0.835763,0,0,0,0,0,0,0
2,29999,73,20000,3,0,40,9999,0.100000,0,0,0.000000,5,0.000000,0.000000,0.536714,0,0,0,0,0,0,0
2,29999,74,20000,64,10000,40,9999,0.100000,0,0,0.000000,6,0.000000,0.000000,1.893148,0,0,0,0,0,0,0
2,29999,75,20000,11,10000,49,9999,0.100000,0,0,0.000000,6,1.000000,0.000000,11.873653,0,0,0,0,0,0,0
2,29999,76,20000,41,0,40,9999,0.100000,0,0,0.000000,6,0.000000,0.000000,1.043215,0,0,0,0,0,0,0
2,29999,77,20000,42,10000,40,9999,0.100000,0,0,0.000000,5,0.000000,0.000000,0.388730,0,0,0,0,0,0,0
2,29999,78,20000,41,0,40,9999,0.100000,0,0,0.000000,6,0.000000,0.000000,7.494789,0,0,0,0,0,0,0
2,29999,79,20000,29,10000,40,9999,0.100000,0,0,0.000000,6,0.000000,0.000000,7.505809,0,0,0,0,0,0,0
2,29999,80,20000,42,10000,40,9999,0.100000,0,0,0.000000,6,0.000000,0.000000,0.661068,0,0,0,0,0,0,0
2,29999,81,20000,3,0,40,9999,0.100000,0,0,0.000000,6,0.000000,0.000000,16.215447,0,0,0,0,0,0,0
2,29999,82,20000,42,10000,40,9999,0.100000,0,0,0.000000,5,0.000000,0.000000,0.139773,0,0,0,0,0,0,0
2,29999,83,20000,42,10000,49,9999,0.100000,0,0,0.000000,5,3.000000,0.000000,7.530797,0,0,0,0,0,0,0
2,29999,84,20000,24,0,40,9999,0.100000,0,0,0.000000,5,0.000000,0.000000,0.551986,0,0,0,0,0,0,0
2,29999,85,20000,42,10000,40,9999,0.100000,0,0,0.000000,6,0.000000,0.000000,0.581547,0,0,0,0,0,0,0
2,29999,86,20000,11,10000,40,9999,0.100000,0,0,0.000000,6,0.000000,0.000000,1.188214,0,0,0,0,0,0,0
2,29999,87,20000,41,0,49,9999,0.100000,0,0,0.000000,6,1.000000,0.000000,1.651388,0,0,0,0,0,0,0
2,29999,88,20000,64,10000,40,9999,0.100000,0,0,0.000000,6,0.000000,0.000000,0.340758,0,0,0,0,0,0,0
2,29999,89,20000,42,10000,49,9999,0.100000,0,0,0.000000,5,1.000000,0.000000,5.271396,0,0,0,0,0,0,0
2,29999,90,20000,42,10000,40,9999,0.100000,0,0,0.000000,6,0.000000,0.000000,0.246148,0,0,0,0,0,0,0
2,29999,91,20000,42,10000,40,9999,0.100000,0,0,0.000000,6,0.000000,0.000000,1.025283,0,0,0,0,0,0,0
2,29999,92,20000,24,0,40,9999,0.100000,0,0,0.000000,5,0.000000,0.000000,1.454023,0,0,0,0,0,0,0
2,29999,93,20000,41,0,49,9999,0.100000,0,0,0.000000,5,3.000000,0.000000,10.781314,0,0,0,0,0,0,0
2,29999,94,20000,64,10000,49,9999,0.100000,0,0,0.000000,5,5.000000,0.000000,7.001514,0,0,0,0,0,0,0
2,29999,95,20000,11,10000,40,9999,0.100000,0,0,0.000000,6,0.000000,0.000000,1.060932,0,0,0,0,0,0,0
2,29999,96,20000,3,0,40,9999,0.100000,0,0,0.000000,5,0.000000,0.000000,21.642491,0,0,0,0,0,0,0
2,29999,97,20000,24,0,40,9999,0.100000,0,0,0.000000,6,0.000000,0.000000,2.095870,0,0,0,0,0,0,0
2,29999,98,20000,42,10000,40,9999,0.100000,0,0,0.000000,5,0.000000,0.000000,1.364633,0,0,0,0,0,0,0
2,29999,99,20000,42,10000,49,9999,0.100000,0,0,0.000000,5,1.000000,0.000000,7.124698,0,0,0,0,0,0,0
3,39999,0,30000,3,0,40,9999,0.100000,0,0,0.000000,6,0.000000,0.000000,0.654273,0,0,0,0,0,0,0
3,39999,1,30000,11,10000,40,9999,0.100000,0,0,0.000000,6,0.000000,0.000000,0.366171,0,0,0,0,0,0,0
3,39999,2,30000,42,10000,40,9999,0.100000,0,0,0.000000,6,0.000000,0.000000,0.121492,0,0,0,0,0,0,0
3,39999,3,30000,41,10000,49,9999,0.100000,0,0,0.000000,6,2.000000,0.000000,9.836986,0,0,0,0,0,0,0
3,39999,4,30000,41,10000,40,9999,0.100000,0,0,0.000000,6,0.000000,0.000000,1.112003,0,0,0,0,0,0,0
3,39999,5,30000,11,10000,49,9999,0.100000,0,0,0.000000,6,1.000000,0.000000,12.285116,0,0,0,0,0,0,0
3,39999,6,30000,41,10000,49,9999,0.100000,0,0,0.000000,6,3.000000,0.000000,11.065493,0,0,0,0,0,0,0
3,39999,7,30000,41,10000,40,9999,0.100000,0,0,0.000000,6,0.000000,0.000000,0.106531,0,0,0,0,0,0,0
3,39999,8,30000,41,10000,40,9999,0.100000,0,0,0.000000,6,0.000000,0.000000,0.920175,0,0,0,0,0,0,0
3,39999,9,30000,41,10000,40,9999,0.100000,0,0,0.000000,6,0.000000,0.000000,0.140394,0,0,0,0,0,0,0
3,39999,10,30000,24,10000,40,9999,0.100000,0,0,0.000000,6,0.000000,0.000000,2.928016,0,0,0,0,0,0,0
3,39999,11,30000,24,10000,40,9999,0.100000,0,0,0.000000,6,0.000000,0.000000,0.772843,0,0,0,0,0,0,0
3,39999,12,30000,24,10000,49,9999,0.100000,0,0,0.000000,6,2.000000,0.000000,5.936757,0,0,0,0,0,0,0
3,39999,13,30000,41,0,40,9999,0.100000,0,0,0.000000,6,0.000000,0.000000,0.854636,0,0,0,0,0,0,0
3,39999,14,30000,41,0,49,9999,0.100000,0,0,0.000000,6,2.000000,0.000000,4.522882,0,0,0,0,0,0,0
3,39999,15,30000,41,0,40,9999,0.100000,0,0,0.000000,6,0.000000,0.000000,0.512969,0,0,0,0,0,0,0
3,39999,16,30000,42,10000,40,9999,0.100000,0,0,0.000000,6,0.000000,0.000000,0.098810,0,0,0,0,0,0,0
3,39999,17,30000,42,10000,40,9999,0.100000,0,0,0.000000,6,0.000000,0.000000,1.276582,0,0,0,0,0,0,0
3,39999,18,30000,3,0,40,9999,0.100000,0,0,0.000000,6,0.000000,0.000000,0.142857,0,0,0,0,0,0,0
3,39999,19,30000,3,0,40,9999,0.100000,0,0,0.000000,6,0.000000,0.000000,3.048115,0,0,0,0,0,0,0
3,39999,20,30000,41,0,49,9999,0.100000,0,0,0.000000,6,5.000000,0.000000,5.288518,0,0,0,0,0,0,0
3,39999,21,30000,42,10000,49,9999,0.100000,0,0,0.000000,6,3.000000,0.000000,8.399866,0,0,0,0,0,0,0
3,39999,22,30000,42,10000,40,9999,0.100000,0,0,0.000000,6,0.000000,0.000000,0.098936,0,0,0,0,0,0,0
3,39999,23,30000,42,10000,40,9999,0.100000,0,0,0.000000,6,0.000000,0.000000,0.332946,0,0,0,0,0,0,0
3,39999,24,30000,41,0,49,9999,0.100000,0,0,0.000000,6,1.000000,0.000000,12.201307,0,0,0,0,0,0,0
3,39999,25,30000,11,10000,40,9999,0.135000,0,0,0.000000,6,0.000000,0.000000,0.152330,0,0,0,0,0,0,0
3,39999,26,30000,41,0,40,9999,0.100000,0,0,0.000000,6,0.000000,0.000000,0.758399,0,0,0,0,0,0,0
3,39999,27,30000,3,0,40,9999,0.100000,0,0,0.000000,6,0.000000,0.000000,1.021096,0,0,0,0,0,0,0
3,39999,28,30000,41,10000,40,9999,0.100000,0,0,0.000000,6,0.000000,0.000000,0.368344,0,0,0,0,0,0,0
3,39999,29,30000,42,10000,49,9999,0.100000,0,0,0.000000,6,14.000000,0.000000,15.155989,0,0,0,0,0,0,0
3,39999,30,30000,42,10000,49,9999,0.100000,0,0,0.000000,6,2.000000,0.000000,6.917307,0,0,0,0,0,0,0
3,39999,31,30000,3,0,40,9999,0.100000,0,0,0.000000,6,0.000000,0.000000,0.156344,0,0,0,0,0,0,0
3,39999,32,30000,41,10000,40,9999,0.100000,0,0,0.000000,6,0.000000,0.000000,1.217374,0,0,0,0,0,0,0
3,39999,33,30000,11,10000,40,9999,0.100000,0,0,0.000000,6,0.000000,0.000000,0.569384,0,0,0,0,0,0,0
3,39999,34,30000,24,10000,49,9999,0.100000,0,0,0.000000,6,5.000000,0.000000,10.544356,0,0,0,0,0,0,0
3,39999,35,30000,41,0,49,9999,0.100000,0,0,0.000000,6,2.000000,0.000000,13.569289,0,0,0,0,0,0,0
3,39999,36,30000,41,10000,49,9999,0.100000,0,0,0.000000,6,2.000000,0.000000,5.784258,0,0,0,0,0,0,0
3,39999,37,30000,11,10000,40,9999,0.100000,0,0,0.000000,6,0.000000,0.000000,2.453844,0,0,0,0,0,0,0
3,39999,38,30000,24,10000,40,9999,0.100000,0,0,0.000000,6,0.000000,0.000000,0.475076,0,0,0,0,0,0,0
3,39999,39,30000,41,10000,40,9999,0.100000,0,0,0.000000,6,0.000000,0.000000,0.889231,0,0,0,0,0,0,0
3,39999,40,30000,24,10000,40,9999,0.100000,0,0,0.000000,6,0.000000,0.000000,0.363995,0,0,0,0,0,0,0
3,39999,41,30000,41,10000,40,9999,0.100000,0,0,0.000000,6,0.000000,0.000000,1.025140,0,0,0,0,0,0,0
3,39999,42,30000,42,10000,49,9999,0.100000,0,0,0.000000,6,9.000000,0.000000,19.767514,0,0,0,0,0,0,0
3,39999,43,30000,42,10000,40,9999,0.100000,0,0,0.000000,6,0.000000,0.000000,1.909780,0,0,0,0,0,0,0
3,39999,44,30000,42,10000,49,9999,0.100000,0,0,0.000000,6,1.000000,0.000000,6.908920,0,0,0,0,0,0,0
3,39999,45,20000,11,10000,40,19999,0.100000,0,0,0.000000,6,0.000000,0.000000,1.097441,0,0,0,0,0,0,0
3,39999,46,30000,11,10000,49,9999,0.100000,0,0,0.000000,6,6.000000,0.000000,13.092713,0,0,0,0,0,0,0
3,39999,47,30000,3,0,40,9999,0.100000,0,0,0.000000,6,0.000000,0.000000,0.775184,0,0,0,0,0,0,0
3,39999,48,30000,42,10000,40,9999,0.100000,0,0,0.000000,6,0.000000,0.000000,0.405809,0,0,0,0,0,0,0
3,39999,49,30000,3,0,40,9999,0.100000,0,0,0.000000,6,0.000000,0.000000,8.945093,0,0,0,0,0,0,0
3,39999,50,30000,3,0,40,9999,0.100000,0,0,0.000000,6,0.000000,0.000000,0.527153,0,0,0,0,0,0,0
3,39999,51,30000,11,10000,40,9999,0.100000,0,0,0.000000,6,0.000000,0.000000,0.144431,0,0,0,0,0,0,0
3,39999,52,30000,41,10000,49,9999,0.100000,0,0,0.000000,6,2.000000,0.000000,5.361105,0,0,0,0,0,0,0
3,39999,53,30000,24,10000,49,9999,0.100000,0,0,0.000000,6,3.000000,0.000000,11.242665,0,0,0,0,0,0,0
3,39999,54,30000,41,10000,40,9999,0.100000,0,0,0.000000,6,0.000000,0.000000,0.174502,0,0,0,0,0,0,0
3,39999,55,30000,41,0,40,9999,0.100000,0,0,0.000000,6,0.000000,0.000000,0.539618,0,0,0,0,0,0,0
3,39999,56,30000,3,0,49,9999,0.100000,0,0,0.000000,6,3.000000,0.000000,6.103415,0,0,0,0,0,0,0
3,39999,57,30000,11,10000,40,9999,0.100000,0,0,0.000000,6,0.000000,0.000000,0.169352,0,0,0,0,0,0,0
3,39999,58,30000,11,10000,40,9999,0.100000,0,0,0.000000,6,0.000000,0.000000,2.133251,0,0,0,0,0,0,0
3,39999,59,30000,24,10000,40,9999,0.100000,0,0,0.000000,6,0.000000,0.000000,0.205350,0,0,0,0,0,0,0
3,39999,60,30000,24,10000,40,9999,0.100000,0,0,0.000000,6,0.000000,0.000000,0.324329,0,0,0,0,0,0,0
3,39999,61,30000,42,10000,49,9999,0.100000,0,0,0.000000,6,3.000000,0.000000,17.280989,0,0,0,0,0,0,0
3,39999,62,30000,24,10000,40,9999,0.100000,0,0,0.000000,6,0.000000,0.000000,1.458890,0,0,0,0,0,0,0
3,39999,63,30000,42,10000,40,9999,0.100000,0,0,0.000000,6,0.000000,0.000000,1.470881,0,0,0,0,0,0,0
3,39999,64,30000,11,10000,40,9999,0.100000,0,0,0.000000,6,0.000000,0.000000,4.997208,0,0,0,0,0,0,0
3,39999,65,30000,41,0,40,9999,0.100000,0,0,0.000000,6,0.000000,0.000000,0.090869,0,0,0,0,0,0,0
3,39999,66,30000,24,10000,49,9999,0.100000,0,0,0.000000,6,1.000000,0.000000,3.865906,0,0,0,0,0,0,0
3,39999,67,30000,24,10000,49,9999,0.100000,0,0,0.000000,6,1.000000,0.000000,4.078269,0,0,0,0,0,0,0
3,39999,68,30000,11,10000,40,9999,0.100000,0,0,0.000000,6,0.000000,0.000000,0.536857,0,0,0,0,0,0,0
3,39999,69,30000,24,10000,40,9999,0.100000,0,0,0.000000,6,0.000000,0.000000,0.085487,0,0,0,0,0,0,0
3,39999,70,30000,41,0,40,9999,0.100000,0,0,0.000000,6,0.000000,0.000000,0.274468,0,0,0,0,0,0,0
3,39999,71,30000,24,10000,40,9999,0.100000,0,0,0.000000,6,0.000000,0.000000,2.150595,0,0,0,0,0,0,0
3,39999,72,30000,11,10000,40,9999,0.100000,0,0,0.000000,6,0.000000,0.000000,0.855788,0,0,0,0,0,0,0
3,39999,73,30000,42,10000,40,9999,0.100000,0,0,0.000000,6,0.000000,0.000000,2.351947,0,0,0,0,0,0,0
3,39999,74,30000,11,10000,40,9999,0.100000,0,0,0.000000,6,0.000000,0.000000,1.201181,0,0,0,0,0,0,0
3,39999,75,30000,41,0,49,9999,0.100000,0,0,0.000000,6,1.000000,0.000000,15.355360,0,0,0,0,0,0,0
3,39999,76,30000,3,0,40,9999,0.100000,0,0,0.000000,6,0.000000,0.000000,1.896961,0,0,0,0,0,0,0
3,39999,77,30000,42,10000,40,9999,0.100000,0,0,0.000000,6,0.000000,0.000000,0.491241,0,0,0,0,0,0,0
3,39999,78,30000,41,0,49,9999,0.100000,0,0,0.000000,6,1.000000,0.000000,7.812628,0,0,0,0,0,0,0
3,39999,79,30000,42,10000,49,9999,0.100000,0,0,0.000000,6,2.000000,0.000000,11.860751,0,0,0,0,0,0,0
3,39999,80,30000,41,0,40,9999,0.100000,0,0,0.000000,6,0.000000,0.000000,0.556353,0,0,0,0,0,0,0
3,39999,81,30000,42,10000,49,9999,0.100000,0,0,0.000000,6,4.000000,0.000000,14.133446,0,0,0,0,0,0,0
3,39999,82,30000,24,10000,40,9999,0.100000,0,0,0.000000,6,0.000000,0.000000,0.130025,0,0,0,0,0,0,0
3,39999,83,30000,11,10000,49,9999,0.100000,0,0,0.000000,6,1.000000,0.000000,8.794008,0,0,0,0,0,0,0
3,39999,84,30000,11,10000,40,9999,0.100000,0,0,0.000000,6,0.000000,0.000000,0.662845,0,0,0,0,0,0,0
3,39999,85,30000,41,10000,40,9999,0.100000,0,0,0.000000,6,0.000000,0.000000,0.289965,0,0,0,0,0,0,0
3,39999,86,30000,42,10000,40,9999,0.100000,0,0,0.000000,6,0.000000,0.000000,1.161886,0,0,0,0,0,0,0
3,39999,87,30000,41,10000,40,9999,0.100000,0,0,0.000000,6,0.000000,0.000000,2.836003,0,0,0,0,0,0,0
3,39999,88,30000,41,10000,40,9999,0.100000,0,0,0.000000,6,0.000000,0.000000,0.301135,0,0,0,0,0,0,0
3,39999,89,30000,42,10000,40,9999,0.100000,0,0,0.000000,6,0.000000,0.000000,4.562410,0,0,0,0,0,0,0
3,39999,90,30000,11,10000,40,9999,0.100000,0,0,0.000000,6,0.000000,0.000000,0.207427,0,0,0,0,0,0,0
3,39999,91,30000,24,10000,40,9999,0.100000,0,0,0.000000,6,0.000000,0.000000,0.961752,0,0,0,0,0,0,0
3,39999,92,30000,3,0,40,9999,0.100000,0,0,0.000000,6,0.000000,0.000000,0.152803,0,0,0,0,0,0,0
3,39999,93,30000,3,0,49,9999,0.100000,0,0,0.000000,6,5.000000,0.000000,10.403585,0,0,0,0,0,0,0
3,39999,94,30000,41,10000,40,9999,0.100000,0,0,0.000000,6,0.000000,0.000000,0.884835,0,0,0,0,0,0,0
3,39999,95,30000,11,10000,40,9999,0.100000,0,0,0.000000,6,0.000000,0.000000,0.962766,0,0,0,0,0,0,0
3,39999,96,30000,11,10000,40,9999,0.100000,0,0,0.000000,6,0.000000,0.000000,20.666335,0,0,0,0,0,0,0
3,39999,97,30000,11,10000,40,9999,0.100000,0,0,0.000000,6,0.000000,0.000000,1.348405,0,0,0,0,0,0,0
3,39999,98,30000,3,0,40,9999,0.100000,0,0,0.000000,6,0.000000,0.000000,0.430472,0,0,0,0,0,0,0
3,39999,99,30000,41,10000,40,9999,0.100000,0,0,0.000000,6,0.000000,0.000000,2.344584,0,0,0,0,0,0,0
4,49999,0,40000,11,10000,49,9999,0.100000,0,0,0.000000,6,1.000000,0.000000,1.152571,0,0,0,0,0,0,0
4,49999,1,40000,3,0,49,9999,0.100000,0,0,0.000000,6,1.000000,0.000000,1.970953,0,0,0,0,0,0,0
4,49999,2,40000,41,0,40,9999,0.100000,0,0,0.000000,6,0.000000,0.000000,0.141703,0,0,0,0,0,0,0
4,49999,3,40000,24,10000,49,9999,0.100000,0,0,0.000000,6,1.000000,0.000000,3.104973,0,0,0,0,0,0,0
4,49999,4,40000,42,10000,49,9999,0.100000,0,0,0.000000,6,2.000000,0.000000,3.311350,0,0,0,0,0,0,0
4,49999,5,40000,24,10000,49,9999,0.100000,0,0,0.000000,6,2.000000,0.000000,8.565308,0,0,0,0,0,0,0
4,49999,6,40000,11,10000,49,9999,0.100000,0,0,0.000000,6,4.000000,0.000000,6.384294,0,0,0,0,0,0,0
4,49999,7,40000,3,0,40,9999,0.100000,0,0,0.000000,6,0.000000,0.000000,0.105481,0,0,0,0,0,0,0
4,49999,8,40000,42,10000,40,9999,0.100000,0,0,0.000000,6,0.000000,0.000000,0.237388,0,0,0,0,0,0,0
4,49999,9,40000,11,10000,40,9999,0.100000,0,0,0.000000,6,0.000000,0.000000,0.136411,0,0,0,0,0,0,0
4,49999,10,40000,24,10000,49,9999,0.100000,0,0,0.000000,6,2.000000,0.000000,10.914736,0,0,0,0,0,0,0
4,49999,11,40000,3,0,40,9999,0.100000,0,0,0.000000,6,0.000000,0.000000,1.029683,0,0,0,0,0,0,0
4,49999,12,40000,42,10000,49,9999,0.100000,0,0,0.000000,6,3.000000,0.000000,12.653845,0,0,0,0,0,0,0
4,49999,13,40000,24,10000,40,9999,0.100000,0,0,0.000000,6,0.000000,0.000000,0.872212,0,0,0,0,0,0,0
4,49999,14,40000,3,0,40,9999,0.100000,0,0,0.000000,6,0.000000,0.000000,11.194102,0,0,0,0,0,0,0
4,49999,15,40000,3,0,40,9999,0.100000,0,0,0.000000,6,0.000000,0.000000,0.747718,0,0,0,0,0,0,0
4,49999,16,40000,11,10000,40,9999,0.100000,0,0,0.000000,6,0.000000,0.000000,0.090611,0,0,0,0,0,0,0
4,49999,17,40000,41,0,40,9999,0.100000,0,0,0.000000,6,0.000000,0.000000,1.022961,0,0,0,0,0,0,0
4,49999,18,40000,42,10000,40,9999,0.100000,0,0,0.000000,6,0.000000,0.000000,0.102285,0,0,0,0,0,0,0
4,49999,19,40000,41,0,40,9999,0.100000,0,0,0.000000,6,0.000000,0.000000,1.202172,0,0,0,0,0,0,0
4,49999,20,40000,11,10000,40,9999,0.100000,0,0,0.000000,6,0.000000,0.000000,0.219576,0,0,0,0,0,0,0
4,49999,21,40000,3,0,40,9999,0.100000,0,0,0.000000,6,0.000000,0.000000,0.661617,0,0,0,0,0,0,0
4,49999,22,40000,41,10000,40,9999,0.100000,0,0,0.000000,6,0.000000,0.000000,0.098939,0,0,0,0,0,0,0
4,49999,23,40000,42,10000,40,9999,0.100000,0,0,0.000000,6,0.000000,0.000000,0.290517,0,0,0,0,0,0,0
4,49999,24,40000,24,10000,40,9999,0.100000,0,0,0.000000,6,0.000000,0.000000,0.725013,0,0,0,0,0,0,0
4,49999,25,40000,3,0,40,9999,0.100000,0,0,0.000000,6,0.000000,0.000000,0.187383,0,0,0,0,0,0,0
4,49999,26,40000,3,0,40,9999,0.100000,0,0,0.000000,6,0.000000,0.000000,0.647906,0,0,0,0,0,0,0
4,49999,27,40000,42,10000,40,9999,0.100000,0,0,0.000000,6,0.000000,0.000000,1.031341,0,0,0,0,0,0,0
4,49999,28,40000,42,10000,40,9999,0.100000,0,0,0.000000,6,0.000000,0.000000,0.636477,0,0,0,0,0,0,0
4,49999,29,40000,24,10000,49,9999,0.100000,0,0,0.000000,6,1.000000,0.000000,1.692579,0,0,0,0,0,0,0
4,49999,30,40000,11,10000,49,9999,0.100000,0,0,0.000000,6,1.000000,0.000000,3.055252,0,0,0,0,0,0,0
4,49999,31,40000,42,10000,40,9999,0.100000,0,0,0.000000,6,0.000000,0.000000,0.168869,0,0,0,0,0,0,0
4,49999,32,40000,11,10000,40,9999,0.100000,0,0,0.000000,6,0.000000,0.000000,1.271802,0,0,0,0,0,0,0
4,49999,33,40000,42,10000,40,9999,0.100000,0,0,0.000000,6,0.000000,0.000000,0.180138,0,0,0,0,0,0,0
4,49999,34,40000,3,0,40,9999,0.100000,0,0,0.000000,6,0.000000,0.000000,0.676026,0,0,0,0,0,0,0
4,49999,35,40000,11,10000,49,9999,0.100000,0,0,0.000000,6,1.000000,0.000000,1.827733,0,0,0,0,0,0,0
4,49999,36,40000,24,10000,49,9999,0.100000,0,0,0.000000,6,1.000000,0.000000,2.000558,0,0,0,0,0,0,0
4,49999,37,40000,11,10000,40,9999,0.100000,0,0,0.000000,6,0.000000,0.000000,0.079438,0,0,0,0,0,0,0
4,49999,38,40000,11,10000,40,9999,0.100000,0,0,0.000000,6,0.000000,0.000000,0.679459,0,0,0,0,0,0,0
4,49999,39,40000,42,10000,49,9999,0.100000,0,0,0.000000,6,1.000000,0.000000,1.306969,0,0,0,0,0,0,0
4,49999,40,40000,41,10000,40,9999,0.100000,0,0,0.000000,6,0.000000,0.000000,0.438107,0,0,0,0,0,0,0
4,49999,41,40000,11,10000,40,9999,0.100000,0,0,0.000000,6,0.000000,0.000000,1.070354,0,0,0,0,0,0,0
4,49999,42,40000,42,10000,40,9999,0.100000,0,0,0.000000,6,0.000000,0.000000,1.058025,0,0,0,0,0,0,0
4,49999,43,40000,11,10000,40,9999,0.100000,0,0,0.000000,6,0.000000,0.000000,2.541952,0,0,0,0,0,0,0
4,49999,44,40000,3,0,49,9999,0.100000,0,0,0.000000,6,2.000000,0.000000,8.417920,0,0,0,0,0,0,0
4,49999,45,40000,42,10000,40,9999,0.100000,0,0,0.000000,6,0.000000,0.000000,1.014057,0,0,0,0,0,0,0
4,49999,46,40000,42,10000,40,9999,0.100000,0,0,0.000000,6,0.000000,0.000000,0.144912,0,0,0,0,0,0,0
4,49999,47,40000,41,0,49,9999,0.100000,0,0,0.000000,6,2.000000,0.000000,4.192740,0,0,0,0,0,0,0
4,49999,48,40000,41,0,40,9999,0.100000,0,0,0.000000,6,0.000000,0.000000,0.987336,0,0,0,0,0,0,0
4,49999,49,40000,3,0,49,9999,0.100000,0,0,0.000000,6,1.000000,0.000000,4.267087,0,0,0,0,0,0,0
4,49999,50,40000,41,10000,40,9999,0.100000,0,0,0.000000,6,0.000000,0.000000,0.245992,0,0,0,0,0,0,0
4,49999,51,40000,42,10000,40,9999,0.100000,0,0,0.000000,6,0.000000,0.000000,0.143976,0,0,0,0,0,0,0
4,49999,52,40000,42,10000,49,9999,0.100000,0,0,0.000000,6,2.000000,0.000000,8.101769,0,0,0,0,0,0,0
4,49999,53,40000,11,10000,49,9999,0.100000,0,0,0.000000,6,5.000000,0.000000,9.656018,0,0,0,0,0,0,0
4,49999,54,40000,24,10000,40,9999,0.100000,0,0,0.000000,6,0.000000,0.000000,0.170183,0,0,0,0,0,0,0
4,49999,55,40000,24,10000,40,9999,0.100000,0,0,0.000000,6,0.000000,0.000000,0.560103,0,0,0,0,0,0,0
4,49999,56,40000,11,10000,40,9999,0.100000,0,0,0.000000,6,0.000000,0.000000,0.747807,0,0,0,0,0,0,0
4,49999,57,40000,42,10000,40,9999,0.100000,0,0,0.000000,6,0.000000,0.000000,0.189082,0,0,0,0,0,0,0
4,49999,58,40000,41,10000,49,9999,0.100000,0,0,0.000000,6,8.000000,0.000000,17.213427,0,0,0,0,0,0,0
4,49999,59,40000,11,10000,40,9999,0.100000,0,0,0.000000,6,0.000000,0.000000,0.145351,0,0,0,0,0,0,0
4,49999,60,40000,3,0,40,9999,0.100000,0,0,0.000000,6,0.000000,0.000000,0.234647,0,0,0,0,0,0,0
4,49999,61,40000,41,0,49,9999,0.100000,0,0,0.000000,6,3.000000,0.000000,15.088906,0,0,0,0,0,0,0
4,49999,62,40000,3,0,40,9999,0.100000,0,0,0.000000,6,0.000000,0.000000,5.398782,0,0,0,0,0,0,0
4,49999,63,40000,24,10000,40,9999,0.100000,0,0,0.000000,6,0.000000,0.000000,1.374834,0,0,0,0,0,0,0
4,49999,64,40000,41,0,40,9999,0.100000,0,0,0.000000,6,0.000000,0.000000,1.430895,0,0,0,0,0,0,0
4,49999,65,40000,3,0,40,9999,0.100000,0,0,0.000000,6,0.000000,0.000000,0.086253,0,0,0,0,0,0,0
4,49999,66,40000,11,10000,40,9999,0.100000,0,0,0.000000,6,0.000000,0.000000,0.900662,0,0,0,0,0,0,0
4,49999,67,40000,41,0,49,9999,0.100000,0,0,0.000000,6,5.000000,0.000000,13.295652,0,0,0,0,0,0,0
4,49999,68,40000,42,10000,40,9999,0.100000,0,0,0.000000,6,0.000000,0.000000,0.507221,0,0,0,0,0,0,0
4,49999,69,40000,42,10000,40,9999,0.100000,0,0,0.000000,6,0.000000,0.000000,0.085333,0,0,0,0,0,0,0
4,49999,70,40000,41,10000,40,9999,0.100000,0,0,0.000000,6,0.000000,0.000000,0.141932,0,0,0,0,0,0,0
4,49999,71,40000,24,10000,49,9999,0.100000,0,0,0.000000,6,1.000000,0.000000,6.752526,0,0,0,0,0,0,0
4,49999,72,40000,41,0,40,9999,0.100000,0,0,0.000000,6,0.000000,0.000000,0.865579,0,0,0,0,0,0,0
4,49999,73,40000,3,0,40,9999,0.100000,0,0,0.000000,6,0.000000,0.000000,0.083528,0,0,0,0,0,0,0
4,49999,74,40000,41,10000,40,9999,0.100000,0,0,0.000000,6,0.000000,0.000000,4.334078,0,0,0,0,0,0,0
4,49999,75,40000,41,0,49,9999,0.100000,0,0,0.000000,6,8.000000,0.000000,15.407985,0,0,0,0,0,0,0
4,49999,76,40000,3,0,40,9999,0.100000,0,0,0.000000,6,0.000000,0.000000,0.675355,0,0,0,0,0,0,0
4,49999,77,40000,41,0,40,9999,0.100000,0,0,0.000000,6,0.000000,0.000000,0.686256,0,0,0,0,0,0,0
4,49999,78,40000,41,0,49,9999,0.100000,0,0,0.000000,6,1.000000,0.000000,8.473775,0,0,0,0,0,0,0
4,49999,79,40000,42,10000,49,9999,0.100000,0,0,0.000000,6,1.000000,0.000000,8.319150,0,0,0,0,0,0,0
4,49999,80,40000,42,10000,49,9999,0.100000,0,0,0.000000,6,1.000000,0.000000,1.100151,0,0,0,0,0,0,0
4,49999,81,40000,11,10000,49,9999,0.100000,0,0,0.000000,6,2.000000,0.000000,9.393249,0,0,0,0,0,0,0
4,49999,82,40000,3,0,49,9999,0.100000,0,0,0.000000,6,1.000000,0.000000,2.884568,0,0,0,0,0,0,0
4,49999,83,40000,24,10000,49,9999,0.100000,0,0,0.000000,6,2.000000,0.000000,4.006828,0,0,0,0,0,0,0
4,49999,84,40000,24,10000,40,9999,0.100000,0,0,0.000000,6,0.000000,0.000000,0.821229,0,0,0,0,0,0,0
4,49999,85,40000,42,10000,40,9999,0.100000,0,0,0.000000,6,0.000000,0.000000,0.475513,0,0,0,0,0,0,0
4,49999,86,40000,11,10000,49,9999,0.100000,0,0,0.000000,6,1.000000,0.000000,1.580175,0,0,0,0,0,0,0
4,49999,87,40000,3,0,40,9999,0.100000,0,0,0.000000,6,0.000000,0.000000,1.869921,0,0,0,0,0,0,0
4,49999,88,40000,41,0,40,9999,0.100000,0,0,0.000000,6,0.000000,0.000000,0.288865,0,0,0,0,0,0,0
4,49999,89,40000,41,10000,40,9999,0.100000,0,0,0.000000,6,0.000000,0.000000,8.348107,0,0,0,0,0,0,0
4,49999,90,40000,24,10000,40,9999,0.100000,0,0,0.000000,6,0.000000,0.000000,0.192923,0,0,0,0,0,0,0
4,49999,91,40000,11,10000,40,9999,0.100000,0,0,0.000000,6,0.000000,0.000000,1.032892,0,0,0,0,0,0,0
4,49999,92,40000,3,0,40,9999,0.100000,0,0,0.000000,6,0.000000,0.000000,0.158821,0,0,0,0,0,0,0
4,49999,93,40000,11,10000,49,9999,0.100000,0,0,0.000000,6,3.000000,0.000000,10.130865,0,0,0,0,0,0,0
4,49999,94,40000,24,10000,40,9999,0.100000,0,0,0.000000,6,0.000000,0.000000,0.990060,0,0,0,0,0,0,0
4,49999,95,40000,41,0,49,9999,0.100000,0,0,0.000000,6,1.000000,0.000000,1.320688,0,0,0,0,0,0,0
4,49999,96,40000,41,0,40,9999,0.100000,0,0,0.000000,6,0.000000,0.000000,21.074859,0,0,0,0,0,0,0
4,49999,97,40000,24,10000,49,9999,0.100000,0,0,0.000000,6,3.000000,0.000000,9.558699,0,0,0,0,0,0,0
4,49999,98,40000,11,10000,40,9999,0.100000,0,0,0.000000,6,0.000000,0.000000,1.170224,0,0,0,0,0,0,0
4,49999,99,40000,42,10000,49,9999,0.100000,0,0,0.000000,6,1.000000,0.000000,12.509799,0,0,0,0,0,0,0
5,59999,0,50000,3,0,40,9999,0.100000,0,0,0.000000,6,0.000000,0.000000,0.519702,0,0,0,0,0,0,0
5,59999,1,50000,42,10000,40,9999,0.100000,0,0,0.000000,6,0.000000,0.000000,0.468470,0,0,0,0,0,0,0
5,59999,2,50000,42,10000,40,9999,0.100000,0,0,0.000000,6,0.000000,0.000000,0.876326,0,0,0,0,0,0,0
5,59999,3,50000,3,0,49,9999,0.100000,0,0,0.000000,6,2.000000,0.000000,5.893631,0,0,0,0,0,0,0
5,59999,4,50000,95,40000,9,9999,0.135000,0,0,56.476284,6,4.000000,0.000000,9.681956,0,0,0,1,0,0,0
5,59999,5,50000,42,10000,49,9999,0.100000,0,0,0.000000,6,3.000000,0.000000,12.621525,0,0,0,0,0,0,0
5,59999,6,50000,41,0,40,9999,0.100000,0,0,0.000000,6,0.000000,0.000000,0.233061,0,0,0,0,0,0,0
5,59999,7,50000,42,10000,40,9999,0.100000,0,0,0.000000,6,0.000000,0.000000,0.636135,0,0,0,0,0,0,0
5,59999,8,50000,41,0,40,9999,0.100000,0,0,0.000000,6,0.000000,0.000000,3.003826,0,0,0,0,0,0,0
5,59999,9,50000,24,10000,40,9999,0.100000,0,0,0.000000,6,0.000000,0.000000,0.140858,0,0,0,0,0,0,0
5,59999,10,50000,1,40000,49,9999,0.100000,0,0,0.000000,6,2.000000,0.000000,5.340926,0,0,0,0,0,0,0
5,59999,11,50000,41,10000,49,9999,0.100000,0,0,0.000000,6,4.000000,0.000000,13.410817,0,0,0,0,0,0,0
5,59999,12,50000,41,0,40,9999,0.100000,0,0,0.000000,6,0.000000,0.000000,2.649937,0,0,0,0,0,0,0
5,59999,13,50000,41,10000,40,9999,0.100000,0,0,0.000000,6,0.000000,0.000000,0.770418,0,0,0,0,0,0,0
5,59999,14,50000,42,10000,40,9999,0.100000,0,0,0.000000,6,0.000000,0.000000,6.895091,0,0,0,0,0,0,0
5,59999,15,50000,24,10000,40,9999,0.100000,0,0,0.000000,6,0.000000,0.000000,1.276400,0,0,0,0,0,0,0
5,59999,16,50000,42,10000,40,9999,0.100000,0,0,0.000000,6,0.000000,0.000000,0.090293,0,0,0,0,0,0,0
5,59999,17,50000,42,10000,40,9999,0.100000,0,0,0.000000,6,0.000000,0.000000,4.094990,0,0,0,0,0,0,0
5,59999,18,50000,42,10000,40,9999,0.100000,0,0,0.000000,6,0.000000,0.000000,0.095575,0,0,0,0,0,0,0
5,59999,19,50000,41,10000,40,9999,0.100000,0,0,0.000000,6,0.000000,0.000000,1.276264,0,0,0,0,0,0,0
5,59999,20,50000,11,10000,40,9999,0.100000,0,0,0.000000,6,0.000000,0.000000,0.246482,0,0,0,0,0,0,0
5,59999,21,50000,11,10000,40,9999,0.100000,0,0,0.000000,6,0.000000,0.000000,0.916039,0,0,0,0,0,0,0
5,59999,22,50000,41,10000,40,9999,0.100000,0,0,0.000000,6,0.000000,0.000000,0.336739,0,0,0,0,0,0,0
5,59999,23,50000,42,10000,40,9999,0.100000,0,0,0.000000,6,0.000000,0.000000,0.826399,0,0,0,0,0,0,0
5,59999,24,50000,41,0,40,9999,0.135000,0,0,0.000000,6,0.000000,0.000000,0.262551,0,0,0,0,0,0,0
5,59999,25,50000,42,10000,40,9999,0.100000,0,0,0.000000,6,0.000000,0.000000,0.152647,0,0,0,0,0,0,0
5,59999,26,50000,41,10000,40,9999,0.100000,0,0,0.000000,6,0.000000,0.000000,0.653717,0,0,0,0,0,0,0
5,59999,27,50000,3,0,49,9999,0.100000,0,0,0.000000,6,2.000000,0.000000,4.580620,0,0,0,0,0,0,0
5,59999,28,50000,42,10000,40,9999,0.100000,0,0,0.000000,6,0.000000,0.000000,0.292747,0,0,0,0,0,0,0
5,59999,29,50000,41,10000,40,9999,0.100000,0,0,0.000000,6,0.000000,0.000000,2.419114,0,0,0,0,0,0,0
5,59999,30,50000,3,0,40,9999,0.100000,0,0,0.000000,6,0.000000,0.000000,1.647996,0,0,0,0,0,0,0
5,59999,31,50000,11,10000,40,9999,0.100000,0,0,0.000000,6,0.000000,0.000000,0.547308,0,0,0,0,0,0,0
5,59999,32,50000,41,0,49,9999,0.100000,0,0,0.000000,6,2.000000,0.000000,4.548504,0,0,0,0,0,0,0
5,59999,33,50000,42,10000,40,9999,0.065000,0,0,0.000000,6,0.000000,0.000000,0.430610,0,0,0,0,0,0,0
5,59999,34,50000,24,10000,40,9999,0.100000,0,0,0.000000,6,0.000000,0.000000,0.628803,0,0,0,0,0,0,0
5,59999,35,50000,41,10000,49,9999,0.100000,0,0,0.000000,6,3.000000,0.000000,7.539994,0,0,0,0,0,0,0
5,59999,36,50000,3,0,49,9999,0.100000,0,0,0.000000,6,2.000000,0.000000,7.705798,0,0,0,0,0,0,0
5,59999,37,50000,41,10000,40,9999,0.100000,0,0,0.000000,6,0.000000,0.000000,0.083885,0,0,0,0,0,0,0
5,59999,38,50000,41,10000,40,9999,0.100000,0,0,0.000000,6,0.000000,0.000000,1.993004,0,0,0,0,0,0,0
5,59999,39,50000,11,10000,40,9999,0.100000,0,0,0.000000,6,0.000000,0.000000,0.709050,0,0,0,0,0,0,0
5,59999,40,50000,95,40000,40,9999,0.100000,0,0,0.000000,6,0.000000,0.000000,0.153175,0,0,0,0,0,0,0
5,59999,41,50000,11,10000,40,9999,0.100000,0,0,0.000000,6,0.000000,0.000000,1.171094,0,0,0,0,0,0,0
5,59999,42,50000,3,0,40,9999,0.100000,0,0,0.000000,6,0.000000,0.000000,0.338082,0,0,0,0,0,0,0
5,59999,43,50000,1,40000,40,9999,0.100000,0,0,0.000000,6,0.000000,0.000000,0.994056,0,0,0,0,0,0,0
5,59999,44,50000,24,10000,49,9999,0.100000,0,0,0.000000,6,3.000000,0.000000,6.804957,0,0,0,0,0,0,0
5,59999,45,50000,3,0,40,9999,0.100000,0,0,0.000000,6,0.000000,0.000000,1.004114,0,0,0,0,0,0,0
5,59999,46,50000,11,10000,40,9999,0.100000,0,0,0.000000,6,0.000000,0.000000,0.182223,0,0,0,0,0,0,0
5,59999,47,50000,3,0,40,9999,0.100000,0,0,0.000000,6,0.000000,0.000000,1.159102,0,0,0,0,0,0,0
5,59999,48,50000,3,0,40,9999,0.100000,0,0,0.000000,6,0.000000,0.000000,0.406832,0,0,0,0,0,0,0
5,59999,49,50000,3,0,40,9999,0.100000,0,0,0.000000,6,0.000000,0.000000,1.214907,0,0,0,0,0,0,0
5,59999,50,50000,95,40000,40,9999,0.100000,0,0,0.000000,6,0.000000,0.000000,1.645103,0,0,0,0,0,0,0
5,59999,51,50000,3,0,40,9999,0.100000,0,0,0.000000,6,0.000000,0.000000,0.143708,0,0,0,0,0,0,0
5,59999,52,50000,24,10000,9,9999,0.100000,0,0,34.210526,6,4.000000,0.000000,9.991401,0,0,0,1,0,0,0
5,59999,53,50000,3,0,40,9999,0.100000,0,0,0.000000,6,0.000000,0.000000,1.133002,0,0,0,0,0,0,0
5,59999,54,50000,11,10000,40,9999,0.100000,0,0,0.000000,6,0.000000,0.000000,0.175335,0,0,0,0,0,0,0
5,59999,55,50000,11,10000,40,9999,0.100000,0,0,0.000000,6,0.000000,0.000000,0.550453,0,0,0,0,0,0,0
5,59999,56,50000,24,10000,40,9999,0.100000,0,0,0.000000,6,0.000000,0.000000,0.901129,0,0,0,0,0,0,0
5,59999,57,50000,11,10000,40,9999,0.100000,0,0,0.000000,6,0.000000,0.000000,0.224479,0,0,0,0,0,0,0
5,59999,58,50000,42,10000,40,9999,0.100000,0,0,0.000000,6,0.000000,0.000000,0.509340,0,0,0,0,0,0,0
5,59999,59,50000,41,10000,40,9999,0.100000,0,0,0.000000,6,0.000000,0.000000,0.148808,0,0,0,0,0,0,0
5,59999,60,50000,1,40000,40,9999,0.100000,0,0,0.000000,6,0.000000,0.000000,0.944826,0,0,0,0,0,0,0
5,59999,61,50000,41,10000,49,9999,0.100000,0,0,0.000000,6,1.000000,0.000000,1.391450,0,0,0,0,0,0,0
5,59999,62,50000,42,10000,40,9999,0.100000,0,0,0.000000,6,0.000000,0.000000,8.447401,0,0,0,0,0,0,0
5,59999,63,50000,41,10000,40,9999,0.100000,0,0,0.000000,6,0.000000,0.000000,1.640168,0,0,0,0,0,0,0
5,59999,64,50000,41,0,40,9999,0.100000,0,0,0.000000,6,0.000000,0.000000,0.235008,0,0,0,0,0,0,0
5,59999,65,50000,95,40000,40,9999,0.100000,0,0,0.000000,6,0.000000,0.000000,0.085411,0,0,0,0,0,0,0
5,59999,66,50000,24,10000,40,9999,0.100000,0,0,0.000000,6,0.000000,0.000000,0.913776,0,0,0,0,0,0,0
5,59999,67,50000,42,10000,40,9999,0.100000,0,0,0.000000,6,0.000000,0.000000,0.745663,0,0,0,0,0,0,0
5,59999,68,50000,24,10000,40,9999,0.100000,0,0,0.000000,6,0.000000,0.000000,0.656042,0,0,0,0,0,0,0
5,59999,69,50000,24,10000,40,9999,0.100000,0,0,0.000000,6,0.000000,0.000000,0.287501,0,0,0,0,0,0,0
5,59999,70,50000,24,10000,40,9999,0.100000,0,0,0.000000,6,0.000000,0.000000,0.184668,0,0,0,0,0,0,0
5,59999,71,50000,11,10000,40,9999,0.100000,0,0,0.000000,6,0.000000,0.000000,3.972696,0,0,0,0,0,0,0
5,59999,72,50000,11,10000,40,9999,0.100000,0,0,0.000000,6,0.000000,0.000000,0.866087,0,0,0,0,0,0,0
5,59999,73,50000,41,0,40,9999,0.100000,0,0,0.000000,6,0.000000,0.000000,0.082388,0,0,0,0,0,0,0
5,59999,74,50000,95,40000,40,9999,0.100000,0,0,0.000000,6,0.000000,0.000000,2.101528,0,0,0,0,0,0,0
5,59999,75,50000,41,10000,49,9999,0.100000,0,0,0.000000,6,1.000000,0.000000,2.851990,0,0,0,0,0,0,0
5,59999,76,50000,3,0,40,9999,0.100000,0,0,0.000000,6,0.000000,0.000000,0.641583,0,0,0,0,0,0,0
5,59999,77,50000,24,10000,40,9999,0.100000,0,0,0.000000,6,0.000000,0.000000,1.587641,0,0,0,0,0,0,0
5,59999,78,50000,95,40000,49,9999,0.100000,0,0,0.000000,6,2.000000,0.000000,14.319118,0,0,0,0,0,0,0
5,59999,79,50000,41,10000,49,9999,0.100000,0,0,0.000000,6,2.000000,0.000000,8.504217,0,0,0,0,0,0,0
5,59999,80,50000,24,10000,40,9999,0.100000,0,0,0.000000,6,0.000000,0.000000,0.512001,0,0,0,0,0,0,0
5,59999,81,50000,3,0,49,9999,0.100000,0,0,0.000000,6,2.000000,0.000000,12.789727,0,0,0,0,0,0,0
5,59999,82,50000,24,10000,49,9999,0.100000,0,0,0.000000,6,1.000000,0.000000,2.884751,0,0,0,0,0,0,0
5,59999,83,50000,11,10000,40,9999,0.100000,0,0,0.000000,6,0.000000,0.000000,1.619925,0,0,0,0,0,0,0
5,59999,84,50000,41,10000,40,9999,0.100000,0,0,0.000000,6,0.000000,0.000000,1.390598,0,0,0,0,0,0,0
5,59999,85,50000,42,10000,40,9999,0.100000,0,0,0.000000,6,0.000000,0.000000,0.498183,0,0,0,0,0,0,0
5,59999,86,50000,41,10000,40,9999,0.100000,0,0,0.000000,6,0.000000,0.000000,2.530413,0,0,0,0,0,0,0
5,59999,87,50000,3,0,40,9999,0.100000,0,0,0.000000,6,0.000000,0.000000,0.232405,0,0,0,0,0,0,0
5,59999,88,50000,42,10000,40,9999,0.100000,0,0,0.000000,6,0.000000,0.000000,0.803121,0,0,0,0,0,0,0
5,59999,89,50000,11,10000,40,9999,0.100000,0,0,0.000000,6,0.000000,0.000000,3.752807,0,0,0,0,0,0,0
5,59999,90,50000,42,10000,40,9999,0.100000,0,0,0.000000,6,0.000000,0.000000,0.340740,0,0,0,0,0,0,0
5,59999,91,50000,24,10000,40,9999,0.100000,0,0,0.000000,6,0.000000,0.000000,1.005918,0,0,0,0,0,0,0
5,59999,92,50000,42,10000,49,9999,0.100000,0,0,0.000000,6,6.000000,0.000000,27.376643,0,0,0,0,0,0,0
5,59999,93,50000,41,10000,49,9999,0.100000,0,0,0.000000,6,1.000000,0.000000,14.918346,0,0,0,0,0,0,0
5,59999,94,50000,42,10000,40,9999,0.100000,0,0,0.000000,6,0.000000,0.000000,0.929903,0,0,0,0,0,0,0
5,59999,95,50000,24,10000,40,9999,0.100000,0,0,0.000000,6,0.000000,0.000000,2.189286,0,0,0,0,0,0,0
5,59999,96,50000,3,0,49,9999,0.100000,0,0,0.000000,6,1.000000,0.000000,6.891039,0,0,0,0,0,0,0
5,59999,97,50000,41,10000,40,9999,0.100000,0,0,0.000000,6,0.000000,0.000000,1.031783,0,0,0,0,0,0,0
5,59999,98,50000,95,40000,40,9999,0.100000,0,0,0.000000,6,0.000000,0.000000,1.350229,0,0,0,0,0,0,0
5,59999,99,50000,3,0,40,9999,0.100000,0,0,0.000000,6,0.000000,0.000000,2.540439,0,0,0,0,0,0,0
6,69999,0,60000,11,10000,40,9999,0.100000,0,0,0.000000,6,0.000000,0.000000,0.380232,0,0,0,0,0,0,0
6,69999,1,60000,41,10000,40,9999,0.100000,0,0,0.000000,6,0.000000,0.000000,0.311328,0,0,0,0,0,0,0
6,69999,2,60000,42,10000,49,9999,0.100000,0,0,0.000000,6,1.000000,0.000000,3.301859,0,0,0,0,0,0,0
6,69999,3,60000,3,0,49,9999,0.100000,0,0,0.000000,6,10.000000,0.000000,25.673914,0,0,0,0,0,0,0
6,69999,4,60000,41,10000,49,9999,0.100000,0,0,0.000000,6,1.000000,0.000000,9.824447,0,0,0,0,0,0,0
6,69999,5,60000,11,10000,49,9999,0.100000,0,0,0.000000,6,1.000000,0.000000,9.420959,0,0,0,0,0,0,0
6,69999,6,60000,11,10000,40,9999,0.100000,0,0,0.000000,6,0.000000,0.000000,0.236367,0,0,0,0,0,0,0
6,69999,7,60000,11,10000,49,9999,0.100000,0,0,0.000000,6,1.000000,0.000000,2.073235,0,0,0,0,0,0,0
6,69999,8,60000,95,40000,40,9999,0.100000,0,0,0.000000,6,0.000000,0.000000,3.398533,0,0,0,0,0,0,0
6,69999,9,60000,41,10000,40,9999,0.100000,0,0,0.000000,6,0.000000,0.000000,0.152181,0,0,0,0,0,0,0
6,69999,10,60000,24,10000,49,9999,0.100000,0,0,0.000000,6,1.000000,0.000000,8.703774,0,0,0,0,0,0,0
6,69999,11,60000,11,10000,40,9999,0.100000,0,0,0.000000,6,0.000000,0.000000,3.090947,0,0,0,0,0,0,0
6,69999,12,60000,95,40000,40,9999,0.100000,0,0,0.000000,6,0.000000,0.000000,1.895661,0,0,0,0,0,0,0
6,69999,13,60000,42,10000,40,9999,0.100000,0,0,0.000000,6,0.000000,0.000000,0.373699,0,0,0,0,0,0,0
6,69999,14,60000,24,10000,40,9999,0.100000,0,0,0.000000,6,0.000000,0.000000,0.592324,0,0,0,0,0,0,0
6,69999,15,60000,3,0,40,9999,0.100000,0,0,0.000000,6,0.000000,0.000000,0.563049,0,0,0,0,0,0,0
6,69999,16,60000,24,10000,40,9999,0.100000,0,0,0.000000,6,0.000000,0.000000,0.089523,0,0,0,0,0,0,0
6,69999,17,60000,42,10000,49,9999,0.100000,0,0,0.000000,6,4.000000,0.000000,21.372202,0,0,0,0,0,0,0
6,69999,18,60000,41,10000,40,9999,0.100000,0,0,0.000000,6,0.000000,0.000000,0.091429,0,0,0,0,0,0,0
6,69999,19,60000,11,10000,40,9999,0.100000,0,0,0.000000,6,0.000000,0.000000,0.540139,0,0,0,0,0,0,0
6,69999,20,60000,42,10000,40,9999,0.100000,0,0,0.000000,6,0.000000,0.000000,0.234918,0,0,0,0,0,0,0
6,69999,21,60000,41,10000,40,9999,0.100000,0,0,0.000000,6,0.000000,0.000000,0.924919,0,0,0,0,0,0,0
6,69999,22,60000,41,10000,49,9999,0.100000,0,0,0.000000,6,1.000000,0.000000,1.820022,0,0,0,0,0,0,0
6,69999,23,60000,95,40000,40,9999,0.065000,0,0,0.000000,6,0.000000,0.000000,2.178880,0,0,0,0,0,0,0
6,69999,24,60000,41,10000,40,9999,0.100000,0,0,0.000000,6,0.000000,0.000000,0.263830,0,0,0,0,0,0,0
6,69999,25,60000,42,10000,40,9999,0.100000,0,0,0.000000,6,0.000000,0.000000,0.135999,0,0,0,0,0,0,0
6,69999,26,60000,24,10000,40,9999,0.100000,0,0,0.000000,6,0.000000,0.000000,0.598092,0,0,0,0,0,0,0
6,69999,27,60000,95,40000,49,9999,0.100000,0,0,0.000000,6,1.000000,0.000000,1.588677,0,0,0,0,0,0,0
6,69999,28,60000,42,10000,40,9999,0.100000,0,0,0.000000,6,0.000000,0.000000,0.164379,0,0,0,0,0,0,0
6,69999,29,60000,24,10000,40,9999,0.100000,0,0,0.000000,6,0.000000,0.000000,0.457451,0,0,0,0,0,0,0
6,69999,30,60000,24,10000,40,9999,0.100000,0,0,0.000000,6,0.000000,0.000000,3.204634,0,0,0,0,0,0,0
6,69999,31,60000,24,10000,40,9999,0.100000,0,0,0.000000,6,0.000000,0.000000,0.447145,0,0,0,0,0,0,0
6,69999,32,60000,42,10000,49,9999,0.100000,0,0,0.000000,6,1.000000,0.000000,1.575127,0,0,0,0,0,0,0
6,69999,33,60000,11,10000,40,9999,0.100000,0,0,0.000000,6,0.000000,0.000000,0.194575,0,0,0,0,0,0,0
6,69999,34,60000,11,10000,40,9999,0.100000,0,0,0.000000,6,0.000000,0.000000,0.636156,0,0,0,0,0,0,0
6,69999,35,60000,41,10000,49,9999,0.100000,0,0,0.000000,6,3.000000,0.000000,3.792067,0,0,0,0,0,0,0
6,69999,36,60000,24,10000,49,9999,0.100000,0,0,0.000000,6,2.000000,0.000000,9.269618,0,0,0,0,0,0,0
6,69999,37,60000,42,10000,40,9999,0.100000,0,0,0.000000,6,0.000000,0.000000,0.092246,0,0,0,0,0,0,0
6,69999,38,60000,95,40000,40,9999,0.100000,0,0,0.000000,6,0.000000,0.000000,0.831928,0,0,0,0,0,0,0
6,69999,39,60000,3,0,40,9999,0.100000,0,0,0.000000,6,0.000000,0.000000,0.540411,0,0,0,0,0,0,0
6,69999,40,60000,42,10000,40,9999,0.100000,0,0,0.000000,6,0.000000,0.000000,0.160778,0,0,0,0,0,0,0
6,69999,41,60000,42,10000,40,9999,0.100000,0,0,0.000000,6,0.000000,0.000000,0.822119,0,0,0,0,0,0,0
6,69999,42,60000,24,10000,40,9999,0.100000,0,0,0.000000,6,0.000000,0.000000,0.254938,0,0,0,0,0,0,0
6,69999,43,60000,11,10000,40,9999,0.100000,0,0,0.000000,6,0.000000,0.000000,0.236507,0,0,0,0,0,0,0
6,69999,44,60000,3,0,49,9999,0.100000,0,0,0.000000,6,1.000000,0.000000,5.129271,0,0,0,0,0,0,0
6,69999,45,60000,41,10000,40,9999,0.100000,0,0,0.000000,6,0.000000,0.000000,0.979171,0,0,0,0,0,0,0
6,69999,46,60000,42,10000,40,9999,0.065000,0,0,0.000000,6,0.000000,0.000000,0.172861,0,0,0,0,0,0,0
6,69999,47,60000,95,40000,49,9999,0.100000,0,0,0.000000,6,2.000000,0.000000,13.340358,0,0,0,0,0,0,0
6,69999,48,60000,3,0,40,9999,0.100000,0,0,0.000000,6,0.000000,0.000000,0.859282,0,0,0,0,0,0,0
6,69999,49,60000,95,40000,49,9999,0.100000,0,0,0.000000,6,1.000000,0.000000,8.267503,0,0,0,0,0,0,0
6,69999,50,60000,95,40000,40,9999,0.100000,0,0,0.000000,6,0.000000,0.000000,0.163806,0,0,0,0,0,0,0
6,69999,51,60000,11,10000,40,9999,0.100000,0,0,0.000000,6,0.000000,0.000000,0.143866,0,0,0,0,0,0,0
6,69999,52,60000,3,0,49,9999,0.100000,0,0,0.000000,6,2.000000,0.000000,8.170188,0,0,0,0,0,0,0
6,69999,53,60000,41,10000,40,9999,0.100000,0,0,0.000000,6,0.000000,0.000000,1.045512,0,0,0,0,0,0,0
6,69999,54,60000,42,10000,40,9999,0.100000,0,0,0.000000,6,0.000000,0.000000,0.177896,0,0,0,0,0,0,0
6,69999,55,60000,24,10000,40,9999,0.100000,0,0,0.000000,6,0.000000,0.000000,0.620763,0,0,0,0,0,0,0
6,69999,56,60000,24,10000,40,9999,0.100000,0,0,0.000000,6,0.000000,0.000000,0.955757,0,0,0,0,0,0,0
6,69999,57,60000,95,40000,49,9999,0.100000,0,0,0.000000,6,1.000000,0.000000,1.216354,0,0,0,0,0,0,0
6,69999,58,60000,11,10000,40,9999,0.100000,0,0,0.000000,6,0.000000,0.000000,0.222674,0,0,0,0,0,0,0
6,69999,59,60000,24,10000,40,9999,0.100000,0,0,0.000000,6,0.000000,0.000000,0.160592,0,0,0,0,0,0,0
6,69999,60,60000,24,10000,40,9999,0.100000,0,0,0.000000,6,0.000000,0.000000,1.920449,0,0,0,0,0,0,0
6,69999,61,60000,42,10000,40,9999,0.100000,0,0,0.000000,6,0.000000,0.000000,1.034687,0,0,0,0,0,0,0
6,69999,62,60000,95,40000,40,9999,0.100000,0,0,0.000000,6,0.000000,0.000000,3.170971,0,0,0,0,0,0,0
6,69999,63,60000,11,10000,40,9999,0.100000,0,0,0.000000,6,0.000000,0.000000,1.161483,0,0,0,0,0,0,0
6,69999,64,60000,11,10000,40,9999,0.100000,0,0,0.000000,6,0.000000,0.000000,0.247820,0,0,0,0,0,0,0
6,69999,65,60000,11,10000,40,9999,0.100000,0,0,0.000000,6,0.000000,0.000000,0.086523,0,0,0,0,0,0,0
6,69999,66,60000,24,10000,40,9999,0.100000,0,0,0.000000,6,0.000000,0.000000,1.207897,0,0,0,0,0,0,0
6,69999,67,60000,11,10000,40,9999,0.100000,0,0,0.000000,6,0.000000,0.000000,0.848088,0,0,0,0,0,0,0
6,69999,68,60000,95,40000,40,9999,0.100000,0,0,0.000000,6,0.000000,0.000000,0.587819,0,0,0,0,0,0,0
6,69999,69,60000,24,10000,49,9999,0.100000,0,0,0.000000,6,1.000000,0.000000,1.829703,0,0,0,0,0,0,0
6,69999,70,60000,11,10000,40,9999,0.100000,0,0,0.000000,6,0.000000,0.000000,0.094860,0,0,0,0,0,0,0
6,69999,71,60000,86,50000,49,9999,0.100000,0,0,0.000000,6,2.000000,0.000000,6.182778,0,0,0,0,0,0,0
6,69999,72,60000,24,10000,40,9999,0.100000,0,0,0.000000,6,0.000000,0.000000,0.881215,0,0,0,0,0,0,0
6,69999,73,60000,24,10000,40,9999,0.100000,0,0,0.000000,6,0.000000,0.000000,0.082012,0,0,0,0,0,0,0
6,69999,74,60000,42,10000,49,9999,0.100000,0,0,0.000000,6,1.000000,0.000000,4.323430,0,0,0,0,0,0,0
6,69999,75,60000,11,10000,40,9999,0.100000,0,0,0.000000,6,0.000000,0.000000,0.210658,0,0,0,0,0,0,0
6,69999,76,60000,95,40000,40,9999,0.100000,0,0,0.000000,6,0.000000,0.000000,0.645213,0,0,0,0,0,0,0
6,69999,77,60000,24,10000,40,9999,0.100000,0,0,0.000000,6,0.000000,0.000000,0.646159,0,0,0,0,0,0,0
6,69999,78,60000,11,10000,49,9999,0.100000,0,0,0.000000,6,2.000000,0.000000,11.970228,0,0,0,0,0,0,0
6,69999,79,60000,24,10000,49,9999,0.100000,0,0,0.000000,6,1.000000,0.000000,4.156331,0,0,0,0,0,0,0
6,69999,80,60000,11,10000,40,9999,0.100000,0,0,0.000000,6,0.000000,0.000000,0.365464,0,0,0,0,0,0,0
6,69999,81,60000,86,50000,49,9999,0.100000,0,0,0.000000,6,2.000000,0.000000,6.110300,0,0,0,0,0,0,0
6,69999,82,60000,11,10000,40,9999,0.100000,0,0,0.000000,6,0.000000,0.000000,0.116427,0,0,0,0,0,0,0
6,69999,83,60000,3,0,40,9999,0.100000,0,0,0.000000,6,0.000000,0.000000,0.860929,0,0,0,0,0,0,0
6,69999,84,60000,11,10000,40,9999,0.100000,0,0,0.000000,6,0.000000,0.000000,0.636553,0,0,0,0,0,0,0
6,69999,85,60000,41,10000,40,9999,0.100000,0,0,0.000000,6,0.000000,0.000000,0.542591,0,0,0,0,0,0,0
6,69999,86,60000,42,10000,49,9999,0.100000,0,0,0.000000,6,8.000000,0.000000,9.588319,0,0,0,0,0,0,0
6,69999,87,60000,11,10000,40,9999,0.100000,0,0,0.000000,6,0.000000,0.000000,0.244015,0,0,0,0,0,0,0
6,69999,88,60000,42,10000,40,9999,0.100000,0,0,0.000000,6,0.000000,0.000000,2.175871,0,0,0,0,0,0,0
6,69999,89,60000,86,50000,40,9999,0.100000,0,0,0.000000,6,0.000000,0.000000,6.405018,0,0,0,0,0,0,0
6,69999,90,60000,95,40000,40,9999,0.100000,0,0,0.000000,6,0.000000,0.000000,0.182870,0,0,0,0,0,0,0
6,69999,91,60000,3,0,49,9999,0.100000,0,0,0.000000,6,10.000000,0.000000,21.927432,0,0,0,0,0,0,0
6,69999,92,60000,42,10000,40,9999,0.100000,0,0,0.000000,6,0.000000,0.000000,0.152648,0,0,0,0,0,0,0
6,69999,93,60000,41,10000,49,9999,0.100000,0,0,0.000000,6,2.000000,0.000000,6.842100,0,0,0,0,0,0,0
6,69999,94,60000,3,0,40,9999,0.100000,0,0,0.000000,6,0.000000,0.000000,0.910890,0,0,0,0,0,0,0
6,69999,95,60000,42,10000,49,9999,0.100000,0,0,0.000000,6,8.000000,0.000000,9.705841,0,0,0,0,0,0,0
6,69999,96,60000,42,10000,40,9999,0.100000,0,0,0.000000,6,0.000000,0.000000,6.234823,0,0,0,0,0,0,0
6,69999,97,60000,24,10000,40,9999,0.100000,0,0,0.000000,6,0.000000,0.000000,2.491035,0,0,0,0,0,0,0
6,69999,98,60000,11,10000,40,9999,0.100000,0,0,0.000000,6,0.000000,0.000000,1.336217,0,0,0,0,0,0,0
6,69999,99,60000,42,10000,49,9999,0.100000,0,0,0.000000,6,1.000000,0.000000,5.454100,0,0,0,0,0,0,0
7,79999,0,70000,11,10000,40,9999,0.100000,0,0,0.000000,6,0.000000,0.000000,0.465448,0,0,0,0,0,0,0
7,79999,1,70000,3,0,40,9999,0.100000,0,0,0.000000,6,0.000000,0.000000,0.455412,0,0,0,0,0,0,0
7,79999,2,70000,86,50000,40,9999,0.100000,0,0,0.000000,6,0.000000,0.000000,0.327092,0,0,0,0,0,0,0
7,79999,3,70000,11,10000,40,9999,0.100000,0,0,0.000000,6,0.000000,0.000000,1.279354,0,0,0,0,0,0,0
7,79999,4,70000,86,50000,49,9999,0.100000,0,0,0.000000,6,3.000000,0.000000,10.620628,0,0,0,0,0,0,0
7,79999,5,70000,3,0,49,9999,0.100000,0,0,0.000000,6,1.000000,0.000000,4.199082,0,0,0,0,0,0,0
7,79999,6,70000,11,10000,40,9999,0.100000,0,0,0.000000,6,0.000000,0.000000,0.234669,0,0,0,0,0,0,0
7,79999,7,70000,86,50000,49,9999,0.100000,0,0,0.000000,6,1.000000,0.000000,1.832827,0,0,0,0,0,0,0
7,79999,8,70000,11,10000,40,9999,0.100000,0,0,0.000000,6,0.000000,0.000000,0.691155,0,0,0,0,0,0,0
7,79999,9,70000,3,0,40,9999,0.100000,0,0,0.000000,6,0.000000,0.000000,0.153550,0,0,0,0,0,0,0
7,79999,10,70000,11,10000,40,9999,0.100000,0,0,0.000000,6,0.000000,0.000000,6.498791,0,0,0,0,0,0,0
7,79999,11,70000,86,50000,49,9999,0.100000,0,0,0.000000,6,1.000000,0.000000,2.129512,0,0,0,0,0,0,0
7,79999,12,70000,24,10000,49,9999,0.100000,0,0,0.000000,6,4.000000,0.000000,6.799387,0,0,0,0,0,0,0
7,79999,13,70000,11,10000,40,9999,0.100000,0,0,0.000000,6,0.000000,0.000000,0.351204,0,0,0,0,0,0,0
7,79999,14,70000,42,10000,40,9999,0.100000,0,0,0.000000,6,0.000000,0.000000,0.993629,0,0,0,0,0,0,0
7,79999,15,70000,86,50000,49,9999,0.100000,0,0,0.000000,6,6.000000,0.000000,9.478816,0,0,0,0,0,0,0
7,79999,16,70000,11,10000,49,9999,0.100000,0,0,0.000000,6,10.000000,0.000000,20.454141,0,0,0,0,0,0,0
7,79999,17,70000,3,0,49,9999,0.100000,0,0,0.000000,6,2.000000,0.000000,6.099835,0,0,0,0,0,0,0
7,79999,18,70000,24,10000,40,9999,0.100000,0,0,0.000000,6,0.000000,0.000000,0.089738,0,0,0,0,0,0,0
7,79999,19,70000,86,50000,40,9999,0.100000,0,0,0.000000,6,0.000000,0.000000,3.620749,0,0,0,0,0,0,0
7,79999,20,70000,42,10000,40,9999,0.100000,0,0,0.000000,6,0.000000,0.000000,0.237563,0,0,0,0,0,0,0
7,79999,21,70000,11,10000,40,9999,0.100000,0,0,0.000000,6,0.000000,0.000000,1.049785,0,0,0,0,0,0,0
7,79999,22,70000,42,10000,49,9999,0.100000,0,0,0.000000,6,1.000000,0.000000,1.171940,0,0,0,0,0,0,0
7,79999,23,70000,11,10000,40,9999,0.100000,0,0,0.000000,6,0.000000,0.000000,1.132906,0,0,0,0,0,0,0
7,79999,24,70000,11,10000,40,9999,0.100000,0,0,0.000000,6,0.000000,0.000000,0.348773,0,0,0,0,0,0,0
7,79999,25,70000,24,10000,40,9999,0.100000,0,0,0.000000,6,0.000000,0.000000,0.137947,0,0,0,0,0,0,0
7,79999,26,70000,86,50000,40,9999,0.100000,0,0,0.000000,6,0.000000,0.000000,0.626501,0,0,0,0,0,0,0
7,79999,27,70000,42,10000,40,9999,0.100000,0,0,0.000000,6,0.000000,0.000000,0.182314,0,0,0,0,0,0,0
7,79999,28,70000,3,0,40,9999,0.100000,0,0,0.000000,6,0.000000,0.000000,0.228929,0,0,0,0,0,0,0
7,79999,29,70000,24,10000,40,9999,0.100000,0,0,0.000000,6,0.000000,0.000000,0.180424,0,0,0,0,0,0,0
7,79999,30,70000,42,10000,40,9999,0.100000,0,0,0.000000,6,0.000000,0.000000,0.992736,0,0,0,0,0,0,0
7,79999,31,70000,11,10000,40,9999,0.100000,0,0,0.000000,6,0.000000,0.000000,0.145112,0,0,0,0,0,0,0
7,79999,32,70000,3,0,49,9999,0.100000,0,0,0.000000,6,3.000000,0.000000,16.871082,0,0,0,0,0,0,0
7,79999,33,70000,3,0,40,9999,0.100000,0,0,0.000000,6,0.000000,0.000000,0.207686,0,0,0,0,0,0,0
7,79999,34,70000,11,10000,40,9999,0.100000,0,0,0.000000,6,0.000000,0.000000,0.177241,0,0,0,0,0,0,0
7,79999,35,70000,42,10000,40,9999,0.100000,0,0,0.000000,6,0.000000,0.000000,0.135846,0,0,0,0,0,0,0
7,79999,36,70000,24,10000,49,9999,0.100000,0,0,0.000000,6,8.000000,0.000000,23.334426,0,0,0,0,0,0,0
7,79999,37,70000,42,10000,40,9999,0.100000,0,0,0.000000,6,0.000000,0.000000,0.094654,0,0,0,0,0,0,0
7,79999,38,70000,11,10000,40,9999,0.100000,0,0,0.000000,6,0.000000,0.000000,0.241855,0,0,0,0,0,0,0
7,79999,39,70000,95,40000,40,9999,0.100000,0,0,0.000000,6,0.000000,0.000000,0.608260,0,0,0,0,0,0,0
7,79999,40,70000,42,10000,40,9999,0.100000,0,0,0.000000,6,0.000000,0.000000,0.154883,0,0,0,0,0,0,0
7,79999,41,70000,86,50000,49,9999,0.100000,0,0,0.000000,6,1.000000,0.000000,4.354992,0,0,0,0,0,0,0
7,79999,42,70000,42,10000,40,9999,0.100000,0,0,0.000000,6,0.000000,0.000000,0.767920,0,0,0,0,0,0,0
7,79999,43,70000,42,10000,40,9999,0.100000,0,0,0.000000,6,0.000000,0.000000,0.188833,0,0,0,0,0,0,0
7,79999,44,70000,86,50000,49,9999,0.100000,0,0,0.000000,6,3.000000,0.000000,8.025203,0,0,0,0,0,0,0
7,79999,45,70000,95,40000,40,9999,0.100000,0,0,0.000000,6,0.000000,0.000000,0.878280,0,0,0,0,0,0,0
7,79999,46,70000,86,50000,40,9999,0.100000,0,0,0.000000,6,0.000000,0.000000,0.170452,0,0,0,0,0,0,0
7,79999,47,70000,95,40000,49,9999,0.100000,0,0,0.000000,6,1.000000,0.000000,10.423129,0,0,0,0,0,0,0
7,79999,48,70000,42,10000,49,9999,0.100000,0,0,0.000000,6,10.000000,0.000000,12.180744,0,0,0,0,0,0,0
7,79999,49,70000,3,0,40,9999,0.100000,0,0,0.000000,6,0.000000,0.000000,2.743775,0,0,0,0,0,0,0
7,79999,50,70000,95,40000,40,9999,0.100000,0,0,0.000000,6,0.000000,0.000000,0.083190,0,0,0,0,0,0,0
7,79999,51,70000,95,40000,40,9999,0.100000,0,0,0.000000,6,0.000000,0.000000,0.144281,0,0,0,0,0,0,0
7,79999,52,70000,95,40000,49,9999,0.100000,0,0,0.000000,6,8.000000,0.000000,28.973131,0,0,0,0,0,0,0
7,79999,53,70000,95,40000,40,9999,0.100000,0,0,0.000000,6,0.000000,0.000000,1.041385,0,0,0,0,0,0,0
7,79999,54,70000,42,10000,40,9999,0.100000,0,0,0.000000,6,0.000000,0.000000,0.176607,0,0,0,0,0,0,0
7,79999,55,70000,24,10000,40,9999,0.100000,0,0,0.000000,6,0.000000,0.000000,0.587851,0,0,0,0,0,0,0
7,79999,56,70000,11,10000,49,9999,0.100000,0,0,0.000000,6,1.000000,0.000000,1.893319,0,0,0,0,0,0,0
7,79999,57,70000,42,10000,40,9999,0.100000,0,0,0.000000,6,0.000000,0.000000,0.316003,0,0,0,0,0,0,0
7,79999,58,70000,24,10000,40,9999,0.100000,0,0,0.000000,6,0.000000,0.000000,0.292166,0,0,0,0,0,0,0
7,79999,59,70000,86,50000,40,9999,0.100000,0,0,0.000000,6,0.000000,0.000000,0.161977,0,0,0,0,0,0,0
7,79999,60,70000,3,0,40,9999,0.100000,0,0,0.000000,6,0.000000,0.000000,2.712791,0,0,0,0,0,0,0
7,79999,61,70000,95,40000,40,9999,0.100000,0,0,0.000000,6,0.000000,0.000000,1.011620,0,0,0,0,0,0,0
7,79999,62,70000,86,50000,40,9999,0.100000,0,0,0.000000,6,0.000000,0.000000,1.770505,0,0,0,0,0,0,0
7,79999,63,70000,95,40000,40,9999,0.100000,0,0,0.000000,6,0.000000,0.000000,0.237960,0,0,0,0,0,0,0
7,79999,64,70000,11,10000,40,9999,0.100000,0,0,0.000000,6,0.000000,0.000000,0.249508,0,0,0,0,0,0,0
7,79999,65,70000,95,40000,40,9999,0.100000,0,0,0.000000,6,0.000000,0.000000,0.180070,0,0,0,0,0,0,0
7,79999,66,70000,95,40000,40,9999,0.100000,0,0,0.000000,6,0.000000,0.000000,5.008601,0,0,0,0,0,0,0
7,79999,67,70000,24,10000,49,9999,0.100000,0,0,0.000000,6,1.000000,0.000000,12.943934,0,0,0,0,0,0,0
7,79999,68,70000,95,40000,40,9999,0.100000,0,0,0.000000,6,0.000000,0.000000,0.485767,0,0,0,0,0,0,0
7,79999,69,70000,3,0,49,9999,0.100000,0,0,0.000000,6,1.000000,0.000000,1.163774,0,0,0,0,0,0,0
7,79999,70,70000,24,10000,40,9999,0.100000,0,0,0.000000,6,0.000000,0.000000,0.094129,0,0,0,0,0,0,0
7,79999,71,70000,3,0,49,9999,0.100000,0,0,0.000000,6,1.000000,0.000000,11.022668,0,0,0,0,0,0,0
7,79999,72,70000,3,0,40,9999,0.100000,0,0,0.000000,6,0.000000,0.000000,0.870944,0,0,0,0,0,0,0
7,79999,73,70000,3,0,40,9999,0.100000,0,0,0.000000,6,0.000000,0.000000,0.084962,0,0,0,0,0,0,0
7,79999,74,70000,11,10000,49,9999,0.100000,0,0,0.000000,6,1.000000,0.000000,10.645359,0,0,0,0,0,0,0
7,79999,75,70000,11,10000,40,9999,0.100000,0,0,0.000000,6,0.000000,0.000000,0.205352,0,0,0,0,0,0,0
7,79999,76,70000,3,0,49,9999,0.100000,0,0,0.000000,6,4.000000,0.000000,8.949590,0,0,0,0,0,0,0
7,79999,77,70000,95,40000,40,9999,0.100000,0,0,0.000000,6,0.000000,0.000000,1.844558,0,0,0,0,0,0,0
7,79999,78,70000,42,10000,49,9999,0.100000,0,0,0.000000,6,3.000000,0.000000,9.698931,0,0,0,0,0,0,0
7,79999,79,70000,86,50000,49,9999,0.100000,0,0,0.000000,6,1.000000,0.000000,4.903732,0,0,0,0,0,0,0
7,79999,80,70000,95,40000,40,9999,0.100000,0,0,0.000000,6,0.000000,0.000000,0.478435,0,0,0,0,0,0,0
7,79999,81,70000,11,10000,49,9999,0.100000,0,0,0.000000,6,3.000000,0.000000,9.002035,0,0,0,0,0,0,0
7,79999,82,70000,42,10000,40,9999,0.100000,0,0,0.000000,6,0.000000,0.000000,0.113472,0,0,0,0,0,0,0
7,79999,83,70000,95,40000,49,9999,0.100000,0,0,0.000000,6,1.000000,0.000000,1.759470,0,0,0,0,0,0,0
7,79999,84,70000,24,10000,40,9999,0.100000,0,0,0.000000,6,0.000000,0.000000,1.141755,0,0,0,0,0,0,0
7,79999,85,70000,86,50000,40,9999,0.100000,0,0,0.000000,6,0.000000,0.000000,0.394037,0,0,0,0,0,0,0
7,79999,86,70000,11,10000,40,9999,0.100000,0,0,0.000000,6,0.000000,0.000000,1.518369,0,0,0,0,0,0,0
7,79999,87,70000,95,40000,40,9999,0.100000,0,0,0.000000,6,0.000000,0.000000,0.238442,0,0,0,0,0,0,0
7,79999,88,70000,11,10000,40,9999,0.100000,0,0,0.000000,6,0.000000,0.000000,0.774723,0,0,0,0,0,0,0
7,79999,89,70000,11,10000,40,9999,0.100000,0,0,0.000000,6,0.000000,0.000000,3.975161,0,0,0,0,0,0,0
7,79999,90,70000,42,10000,40,9999,0.100000,0,0,0.000000,6,0.000000,0.000000,0.170484,0,0,0,0,0,0,0
7,79999,91,70000,95,40000,40,9999,0.100000,0,0,0.000000,6,0.000000,0.000000,1.000786,0,0,0,0,0,0,0
7,79999,92,70000,3,0,40,9999,0.100000,0,0,0.000000,6,0.000000,0.000000,0.152355,0,0,0,0,0,0,0
7,79999,93,70000,95,40000,49,9999,0.100000,0,0,0.000000,6,2.000000,0.000000,11.315523,0,0,0,0,0,0,0
7,79999,94,70000,95,40000,40,9999,0.100000,0,0,0.000000,6,0.000000,0.000000,1.882581,0,0,0,0,0,0,0
7,79999,95,70000,24,10000,40,9999,0.100000,0,0,0.000000,6,0.000000,0.000000,1.475386,0,0,0,0,0,0,0
7,79999,96,70000,11,10000,40,9999,0.100000,0,0,0.000000,6,0.000000,0.000000,0.203244,0,0,0,0,0,0,0
7,79999,97,70000,42,10000,40,9999,0.100000,0,0,0.000000,6,0.000000,0.000000,1.029873,0,0,0,0,0,0,0
7,79999,98,70000,11,10000,40,9999,0.100000,0,0,0.000000,6,0.000000,0.000000,0.378340,0,0,0,0,0,0,0
7,79999,99,70000,3,0,40,9999,0.100000,0,0,0.000000,6,0.000000,0.000000,3.265471,0,0,0,0,0,0,0
8,89999,0,80000,42,10000,40,9999,0.100000,0,0,0.000000,6,0.000000,0.000000,0.464413,0,0,0,0,0,0,0
8,89999,1,80000,86,50000,40,9999,0.100000,0,0,0.000000,6,0.000000,0.000000,0.323834,0,0,0,0,0,0,0
8,89999,2,80000,11,10000,49,9999,0.100000,0,0,0.000000,6,1.000000,0.000000,1.597205,0,0,0,0,0,0,0
8,89999,3,80000,3,0,49,9999,0.100000,0,0,0.000000,6,1.000000,0.000000,5.207205,0,0,0,0,0,0,0
8,89999,4,80000,24,10000,49,9999,0.100000,0,0,0.000000,6,3.000000,0.000000,7.449386,0,0,0,0,0,0,0
8,89999,5,80000,11,10000,40,9999,0.100000,0,0,0.000000,6,0.000000,0.000000,3.150070,0,0,0,0,0,0,0
8,89999,6,80000,24,10000,40,9999,0.100000,0,0,0.000000,6,0.000000,0.000000,0.240265,0,0,0,0,0,0,0
8,89999,7,80000,11,10000,49,9999,0.100000,0,0,0.000000,6,1.000000,0.000000,1.536369,0,0,0,0,0,0,0
8,89999,8,80000,42,10000,40,9999,0.100000,0,0,0.000000,6,0.000000,0.000000,0.230990,0,0,0,0,0,0,0
8,89999,9,80000,86,50000,40,9999,0.100000,0,0,0.000000,6,0.000000,0.000000,0.146402,0,0,0,0,0,0,0
8,89999,10,80000,86,50000,49,9999,0.100000,0,0,0.000000,6,1.000000,0.000000,4.135053,0,0,0,0,0,0,0
8,89999,11,80000,42,10000,49,9999,0.100000,0,0,0.000000,6,1.000000,0.000000,7.913587,0,0,0,0,0,0,0
8,89999,12,80000,3,0,49,9999,0.100000,0,0,0.000000,6,1.000000,0.000000,5.069541,0,0,0,0,0,0,0
8,89999,13,80000,95,40000,49,9999,0.100000,0,0,0.000000,6,3.000000,0.000000,3.586249,0,0,0,0,0,0,0
8,89999,14,80000,86,50000,49,9999,0.100000,0,0,0.000000,6,8.000000,0.000000,9.443169,0,0,0,0,0,0,0
8,89999,15,80000,3,0,49,9999,0.100000,0,0,0.000000,6,2.000000,0.000000,5.627711,0,0,0,0,0,0,0
8,89999,16,80000,42,10000,40,9999,0.100000,0,0,0.000000,6,0.000000,0.000000,0.089726,0,0,0,0,0,0,0
8,89999,17,80000,86,50000,40,9999,0.100000,0,0,0.000000,6,0.000000,0.000000,1.423228,0,0,0,0,0,0,0
8,89999,18,80000,42,10000,40,9999,0.100000,0,0,0.000000,6,0.000000,0.000000,0.086334,0,0,0,0,0,0,0
8,89999,19,80000,24,10000,49,9999,0.100000,0,0,0.000000,6,8.000000,0.000000,17.651347,0,0,0,0,0,0,0
8,89999,20,80000,24,10000,40,9999,0.100000,0,0,0.000000,6,0.000000,0.000000,0.241138,0,0,0,0,0,0,0
8,89999,21,80000,11,10000,40,9999,0.100000,0,0,0.000000,6,0.000000,0.000000,1.757100,0,0,0,0,0,0,0
8,89999,22,80000,42,10000,49,9999,0.100000,0,0,0.000000,6,1.000000,0.000000,1.139814,0,0,0,0,0,0,0
8,89999,23,80000,11,10000,40,9999,0.100000,0,0,0.000000,6,0.000000,0.000000,3.125483,0,0,0,0,0,0,0
8,89999,24,80000,95,40000,40,9999,0.100000,0,0,0.000000,6,0.000000,0.000000,0.289812,0,0,0,0,0,0,0
8,89999,25,80000,42,10000,40,9999,0.100000,0,0,0.000000,6,0.000000,0.000000,0.859779,0,0,0,0,0,0,0
8,89999,26,80000,3,0,49,9999,0.100000,0,0,0.000000,6,2.000000,0.000000,3.035256,0,0,0,0,0,0,0
8,89999,27,80000,86,50000,40,9999,0.100000,0,0,0.000000,6,0.000000,0.000000,0.363185,0,0,0,0,0,0,0
8,89999,28,80000,11,10000,40,9999,0.100000,0,0,0.000000,6,0.000000,0.000000,0.263363,0,0,0,0,0,0,0
8,89999,29,80000,86,50000,40,9999,0.100000,0,0,0.000000,6,0.000000,0.000000,0.185607,0,0,0,0,0,0,0
8,89999,30,80000,24,10000,40,9999,0.100000,0,0,0.000000,6,0.000000,0.000000,1.254730,0,0,0,0,0,0,0
8,89999,31,80000,42,10000,40,9999,0.100000,0,0,0.000000,6,0.000000,0.000000,0.141551,0,0,0,0,0,0,0
8,89999,32,80000,24,10000,40,9999,0.100000,0,0,0.000000,6,0.000000,0.000000,12.443117,0,0,0,0,0,0,0
8,89999,33,80000,86,50000,40,9999,0.100000,0,0,0.000000,6,0.000000,0.000000,0.160827,0,0,0,0,0,0,0
8,89999,34,80000,3,0,40,9999,0.100000,0,0,0.000000,6,0.000000,0.000000,0.126765,0,0,0,0,0,0,0
8,89999,35,80000,86,50000,40,9999,0.100000,0,0,0.000000,6,0.000000,0.000000,0.133695,0,0,0,0,0,0,0
8,89999,36,80000,95,40000,49,9999,0.100000,0,0,0.000000,6,8.000000,0.000000,43.624314,0,0,0,0,0,0,0
8,89999,37,80000,42,10000,40,9999,0.100000,0,0,0.000000,6,0.000000,0.000000,0.093523,0,0,0,0,0,0,0
8,89999,38,80000,3,0,40,9999,0.100000,0,0,0.000000,6,0.000000,0.000000,0.111577,0,0,0,0,0,0,0
8,89999,39,80000,86,50000,40,9999,0.100000,0,0,0.000000,6,0.000000,0.000000,0.408307,0,0,0,0,0,0,0
8,89999,40,80000,3,0,40,9999,0.100000,0,0,0.000000,6,0.000000,0.000000,0.154365,0,0,0,0,0,0,0
8,89999,41,80000,3,0,40,9999,0.100000,0,0,0.000000,6,0.000000,0.000000,3.009731,0,0,0,0,0,0,0
8,89999,42,80000,95,40000,40,9999,0.100000,0,0,0.000000,6,0.000000,0.000000,3.023767,0,0,0,0,0,0,0
8,89999,43,80000,3,0,40,9999,0.100000,0,0,0.000000,6,0.000000,0.000000,0.207730,0,0,0,0,0,0,0
8,89999,44,80000,3,0,40,9999,0.100000,0,0,0.000000,6,0.000000,0.000000,7.232874,0,0,0,0,0,0,0
8,89999,45,80000,11,10000,40,9999,0.100000,0,0,0.000000,6,0.000000,0.000000,2.592367,0,0,0,0,0,0,0
8,89999,46,80000,42,10000,40,9999,0.100000,0,0,0.000000,6,0.000000,0.000000,0.098991,0,0,0,0,0,0,0
8,89999,47,80000,3,0,49,9999,0.100000,0,0,0.000000,6,3.000000,0.000000,7.966420,0,0,0,0,0,0,0
8,89999,48,80000,3,0,49,9999,0.100000,0,0,0.000000,6,11.000000,0.000000,13.764414,0,0,0,0,0,0,0
8,89999,49,80000,42,10000,40,9999,0.100000,0,0,0.000000,6,0.000000,0.000000,1.440552,0,0,0,0,0,0,0
8,89999,50,80000,3,0,40,9999,0.100000,0,0,0.000000,6,0.000000,0.000000,0.076975,0,0,0,0,0,0,0
8,89999,51,80000,24,10000,40,9999,0.100000,0,0,0.000000,6,0.000000,0.000000,0.143625,0,0,0,0,0,0,0
8,89999,52,80000,86,50000,40,9999,0.100000,0,0,0.000000,6,0.000000,0.000000,8.221303,0,0,0,0,0,0,0
8,89999,53,80000,95,40000,40,9999,0.100000,0,0,0.000000,6,0.000000,0.000000,1.219304,0,0,0,0,0,0,0
8,89999,54,80000,3,0,40,9999,0.100000,0,0,0.000000,6,0.000000,0.000000,0.184195,0,0,0,0,0,0,0
8,89999,55,80000,95,40000,49,9999,0.100000,0,0,0.000000,6,1.000000,0.000000,1.751617,0,0,0,0,0,0,0
8,89999,56,80000,86,50000,40,9999,0.100000,0,0,0.000000,6,0.000000,0.000000,1.631018,0,0,0,0,0,0,0
8,89999,57,80000,11,10000,49,9999,0.100000,0,0,0.000000,6,1.000000,0.000000,1.487686,0,0,0,0,0,0,0
8,89999,58,80000,24,10000,40,9999,0.100000,0,0,0.000000,6,0.000000,0.000000,0.212645,0,0,0,0,0,0,0
8,89999,59,80000,95,40000,40,9999,0.100000,0,0,0.000000,6,0.000000,0.000000,0.140141,0,0,0,0,0,0,0
8,89999,60,80000,86,50000,40,9999,0.100000,0,0,0.000000,6,0.000000,0.000000,2.118893,0,0,0,0,0,0,0
8,89999,61,80000,24,10000,40,9999,0.100000,0,0,0.000000,6,0.000000,0.000000,0.922348,0,0,0,0,0,0,0
8,89999,62,80000,86,50000,40,9999,0.100000,0,0,0.000000,6,0.000000,0.000000,0.135148,0,0,0,0,0,0,0
8,89999,63,80000,95,40000,40,9999,0.100000,0,0,0.000000,6,0.000000,0.000000,0.249172,0,0,0,0,0,0,0
8,89999,64,80000,3,0,40,9999,0.100000,0,0,0.000000,6,0.000000,0.000000,0.461347,0,0,0,0,0,0,0
8,89999,65,80000,11,10000,40,9999,0.100000,0,0,0.000000,6,0.000000,0.000000,0.268971,0,0,0,0,0,0,0
8,89999,66,80000,86,50000,40,9999,0.100000,0,0,0.000000,6,0.000000,0.000000,3.437072,0,0,0,0,0,0,0
8,89999,67,80000,11,10000,49,9999,0.100000,0,0,0.000000,6,2.000000,0.000000,14.757024,0,0,0,0,0,0,0
8,89999,68,80000,3,0,49,9999,0.100000,0,0,0.000000,6,3.000000,0.000000,3.290834,0,0,0,0,0,0,0
8,89999,69,80000,11,10000,49,9999,0.100000,0,0,0.000000,6,1.000000,0.000000,1.188479,0,0,0,0,0,0,0
8,89999,70,80000,42,10000,40,9999,0.100000,0,0,0.000000,6,0.000000,0.000000,0.092594,0,0,0,0,0,0,0
8,89999,71,80000,24,10000,40,9999,0.100000,0,0,0.000000,6,0.000000,0.000000,2.574630,0,0,0,0,0,0,0
8,89999,72,80000,95,40000,49,9999,0.100000,0,0,0.000000,6,1.000000,0.000000,2.464971,0,0,0,0,0,0,0
8,89999,73,80000,11,10000,40,9999,0.100000,0,0,0.000000,6,0.000000,0.000000,0.084725,0,0,0,0,0,0,0
8,89999,74,80000,42,10000,40,9999,0.100000,0,0,0.000000,6,0.000000,0.000000,2.631660,0,0,0,0,0,0,0
8,89999,75,80000,3,0,40,9999,0.100000,0,0,0.000000,6,0.000000,0.000000,0.198699,0,0,0,0,0,0,0
8,89999,76,80000,42,10000,40,9999,0.100000,0,0,0.000000,6,0.000000,0.000000,0.247824,0,0,0,0,0,0,0
8,89999,77,80000,95,40000,40,9999,0.100000,0,0,0.000000,6,0.000000,0.000000,0.132271,0,0,0,0,0,0,0
8,89999,78,80000,3,0,49,9999,0.100000,0,0,0.000000,6,3.000000,0.000000,8.998395,0,0,0,0,0,0,0
8,89999,79,80000,24,10000,40,9999,0.100000,0,0,0.000000,6,0.000000,0.000000,2.802924,0,0,0,0,0,0,0
8,89999,80,80000,11,10000,40,9999,0.100000,0,0,0.000000,6,0.000000,0.000000,0.243569,0,0,0,0,0,0,0
8,89999,81,80000,86,50000,49,9999,0.100000,0,0,0.000000,6,2.000000,0.000000,7.738762,0,0,0,0,0,0,0
8,89999,82,80000,11,10000,40,9999,0.100000,0,0,0.000000,6,0.000000,0.000000,0.184853,0,0,0,0,0,0,0
8,89999,83,80000,86,50000,40,9999,0.100000,0,0,0.000000,6,0.000000,0.000000,1.529306,0,0,0,0,0,0,0
8,89999,84,80000,42,10000,40,9999,0.100000,0,0,0.000000,6,0.000000,0.000000,0.094883,0,0,0,0,0,0,0
8,89999,85,80000,11,10000,49,9999,0.100000,0,0,0.000000,6,2.000000,0.000000,3.082022,0,0,0,0,0,0,0
8,89999,86,80000,11,10000,40,9999,0.100000,0,0,0.000000,6,0.000000,0.000000,0.715316,0,0,0,0,0,0,0
8,89999,87,80000,95,40000,49,9999,0.100000,0,0,0.000000,6,1.000000,0.000000,4.599076,0,0,0,0,0,0,0
8,89999,88,80000,86,50000,40,9999,0.100000,0,0,0.000000,6,0.000000,0.000000,0.810231,0,0,0,0,0,0,0
8,89999,89,80000,24,10000,40,9999,0.100000,0,0,0.000000,6,0.000000,0.000000,4.568067,0,0,0,0,0,0,0
8,89999,90,80000,11,10000,40,9999,0.100000,0,0,0.000000,6,0.000000,0.000000,0.115309,0,0,0,0,0,0,0
8,89999,91,80000,95,40000,40,9999,0.100000,0,0,0.000000,6,0.000000,0.000000,0.962607,0,0,0,0,0,0,0
8,89999,92,80000,86,50000,40,9999,0.100000,0,0,0.000000,6,0.000000,0.000000,0.149883,0,0,0,0,0,0,0
8,89999,93,80000,24,10000,40,9999,0.100000,0,0,0.000000,6,0.000000,0.000000,3.265284,0,0,0,0,0,0,0
8,89999,94,80000,86,50000,40,9999,0.100000,0,0,0.000000,6,0.000000,0.000000,1.895952,0,0,0,0,0,0,0
8,89999,95,80000,42,10000,40,9999,0.100000,0,0,0.000000,6,0.000000,0.000000,0.846653,0,0,0,0,0,0,0
8,89999,96,80000,86,50000,40,9999,0.100000,0,0,0.000000,6,0.000000,0.000000,0.185026,0,0,0,0,0,0,0
8,89999,97,80000,86,50000,49,9999,0.100000,0,0,0.000000,6,3.000000,0.000000,8.781399,0,0,0,0,0,0,0
8,89999,98,80000,24,10000,40,9999,0.100000,0,0,0.000000,6,0.000000,0.000000,0.118979,0,0,0,0,0,0,0
8,89999,99,80000,86,50000,40,9999,0.100000,0,0,0.000000,6,0.000000,0.000000,2.299903,0,0,0,0,0,0,0
9,99999,0,90000,3,0,40,9999,0.100000,0,0,0.000000,6,0.000000,0.000000,1.173232,0,0,0,0,0,0,0
9,99999,1,90000,24,10000,40,9999,0.100000,0,0,0.000000,6,0.000000,0.000000,0.347894,0,0,0,0,0,0,0
9,99999,2,90000,95,40000,40,9999,0.100000,0,0,0.000000,6,0.000000,0.000000,0.343068,0,0,0,0,0,0,0
9,99999,3,90000,86,50000,49,9999,0.100000,0,0,0.000000,6,2.000000,0.000000,3.918434,0,0,0,0,0,0,0
9,99999,4,90000,42,10000,40,9999,0.100000,0,0,0.000000,6,0.000000,0.000000,2.149800,0,0,0,0,0,0,0
9,99999,5,90000,24,10000,40,9999,0.100000,0,0,0.000000,6,0.000000,0.000000,3.192608,0,0,0,0,0,0,0
9,99999,6,90000,95,40000,40,9999,0.100000,0,0,0.000000,6,0.000000,0.000000,0.229852,0,0,0,0,0,0,0
9,99999,7,90000,42,10000,40,9999,0.100000,0,0,0.000000,6,0.000000,0.000000,1.141987,0,0,0,0,0,0,0
9,99999,8,90000,86,50000,40,9999,0.100000,0,0,0.000000,6,0.000000,0.000000,0.293024,0,0,0,0,0,0,0
9,99999,9,90000,24,10000,40,9999,0.100000,0,0,0.000000,6,0.000000,0.000000,0.146069,0,0,0,0,0,0,0
9,99999,10,90000,42,10000,49,9999,0.100000,0,0,0.000000,6,2.000000,0.000000,8.135883,0,0,0,0,0,0,0
9,99999,11,90000,3,0,40,9999,0.100000,0,0,0.000000,6,0.000000,0.000000,1.393548,0,0,0,0,0,0,0
9,99999,12,90000,3,0,49,9999,0.100000,0,0,0.000000,6,3.000000,0.000000,7.054313,0,0,0,0,0,0,0
9,99999,13,90000,11,10000,9,9999,0.100000,0,0,34.210526,6,8.000000,0.000000,16.043754,0,0,0,0,0,1,0
9,99999,14,90000,42,10000,40,9999,0.100000,0,0,0.000000,6,0.000000,0.000000,0.809819,0,0,0,0,0,0,0
9,99999,15,90000,3,0,49,9999,0.100000,0,0,0.000000,6,1.000000,0.000000,5.141879,0,0,0,0,0,0,0
9,99999,16,90000,86,50000,40,9999,0.100000,0,0,0.000000,6,0.000000,0.000000,0.089502,0,0,0,0,0,0,0
9,99999,17,90000,86,50000,40,9999,0.100000,0,0,0.000000,6,0.000000,0.000000,0.559442,0,0,0,0,0,0,0
9,99999,18,90000,3,0,40,9999,0.100000,0,0,0.000000,6,0.000000,0.000000,0.087727,0,0,0,0,0,0,0
9,99999,19,90000,86,50000,40,9999,0.100000,0,0,0.000000,6,0.000000,0.000000,0.353192,0,0,0,0,0,0,0
9,99999,20,90000,11,10000,40,9999,0.100000,0,0,0.000000,6,0.000000,0.000000,0.233435,0,0,0,0,0,0,0
9,99999,21,90000,86,50000,49,9999,0.100000,0,0,0.000000,6,1.000000,0.000000,3.884231,0,0,0,0,0,0,0
9,99999,22,90000,11,10000,40,9999,0.100000,0,0,0.000000,6,0.000000,0.000000,0.913222,0,0,0,0,0,0,0
9,99999,23,90000,24,10000,49,9999,0.100000,0,0,0.000000,6,1.000000,0.000000,1.558898,0,0,0,0,0,0,0
9,99999,24,90000,11,10000,40,9999,0.100000,0,0,0.000000,6,0.000000,0.000000,0.133747,0,0,0,0,0,0,0
9,99999,25,90000,95,40000,49,9999,0.100000,0,0,0.000000,6,4.000000,0.000000,12.105560,0,0,0,0,0,0,0
9,99999,26,90000,3,0,9,9999,0.100000,0,0,34.210526,6,8.000000,0.000000,20.224612,0,0,0,0,0,1,0
9,99999,27,90000,86,50000,49,9999,0.100000,0,0,0.000000,6,1.000000,0.000000,1.269753,0,0,0,0,0,0,0
9,99999,28,90000,3,0,40,9999,0.100000,0,0,0.000000,6,0.000000,0.000000,0.236482,0,0,0,0,0,0,0
9,99999,29,90000,42,10000,40,9999,0.100000,0,0,0.000000,6,0.000000,0.000000,0.866941,0,0,0,0,0,0,0
9,99999,30,90000,95,40000,49,9999,0.100000,0,0,0.000000,6,5.000000,0.000000,18.501521,0,0,0,0,0,0,0
9,99999,31,90000,95,40000,40,9999,0.100000,0,0,0.000000,6,0.000000,0.000000,0.145564,0,0,0,0,0,0,0
9,99999,32,90000,11,10000,49,9999,0.100000,0,0,0.000000,6,1.000000,0.000000,13.365678,0,0,0,0,0,0,0
9,99999,33,90000,24,10000,40,9999,0.100000,0,0,0.000000,6,0.000000,0.000000,0.375913,0,0,0,0,0,0,0
9,99999,34,90000,3,0,40,9999,0.100000,0,0,0.000000,6,0.000000,0.000000,1.182813,0,0,0,0,0,0,0
9,99999,35,90000,86,50000,40,9999,0.100000,0,0,0.000000,6,0.000000,0.000000,0.146248,0,0,0,0,0,0,0
9,99999,36,90000,42,10000,9,9999,0.100000,0,0,0.000000,6,7.000000,0.000000,29.651335,0,0,0,1,0,0,0
9,99999,37,90000,95,40000,40,9999,0.100000,0,0,0.000000,6,0.000000,0.000000,0.106119,0,0,0,0,0,0,0
9,99999,38,90000,86,50000,40,9999,0.100000,0,0,0.000000,6,0.000000,0.000000,0.109200,0,0,0,0,0,0,0
9,99999,39,90000,24,10000,40,9999,0.100000,0,0,0.000000,6,0.000000,0.000000,0.671095,0,0,0,0,0,0,0
9,99999,40,90000,95,40000,40,9999,0.100000,0,0,0.000000,6,0.000000,0.000000,0.499950,0,0,0,0,0,0,0
9,99999,41,90000,95,40000,40,9999,0.100000,0,0,0.000000,6,0.000000,0.000000,3.021248,0,0,0,0,0,0,0
9,99999,42,90000,3,0,40,9999,0.100000,0,0,0.000000,6,0.000000,0.000000,1.976436,0,0,0,0,0,0,0
9,99999,43,90000,3,0,40,9999,0.100000,0,0,0.000000,6,0.000000,0.000000,0.334658,0,0,0,0,0,0,0
9,99999,44,90000,86,50000,49,9999,0.100000,0,0,0.000000,6,4.000000,0.000000,17.500461,0,0,0,0,0,0,0
9,99999,45,90000,11,10000,40,9999,0.100000,0,0,0.000000,6,0.000000,0.000000,7.901994,0,0,0,0,0,0,0
9,99999,46,90000,24,10000,40,9999,0.100000,0,0,0.000000,6,0.000000,0.000000,0.126991,0,0,0,0,0,0,0
9,99999,47,90000,24,10000,40,9999,0.100000,0,0,0.000000,6,0.000000,0.000000,0.469646,0,0,0,0,0,0,0
9,99999,48,90000,86,50000,40,9999,0.100000,0,0,0.000000,6,0.000000,0.000000,0.844559,0,0,0,0,0,0,0
9,99999,49,90000,42,10000,49,9999,0.100000,0,0,0.000000,6,1.000000,0.000000,5.129060,0,0,0,0,0,0,0
9,99999,50,90000,3,0,40,9999,0.100000,0,0,0.000000,6,0.000000,0.000000,0.079942,0,0,0,0,0,0,0
9,99999,51,90000,24,10000,40,9999,0.100000,0,0,0.000000,6,0.000000,0.000000,0.140877,0,0,0,0,0,0,0
9,99999,52,90000,3,0,49,9999,0.100000,0,0,0.000000,6,3.000000,0.000000,10.195622,0,0,0,0,0,0,0
9,99999,53,90000,3,0,49,9999,0.100000,0,0,0.000000,6,2.000000,0.000000,7.554060,0,0,0,0,0,0,0
9,99999,54,90000,3,0,40,9999,0.100000,0,0,0.000000,6,0.000000,0.000000,0.183576,0,0,0,0,0,0,0
9,99999,55,90000,42,10000,49,9999,0.100000,0,0,0.000000,6,8.000000,0.000000,19.036463,0,0,0,0,0,0,0
9,99999,56,90000,11,10000,49,9999,0.100000,0,0,0.000000,6,1.000000,0.000000,2.446683,0,0,0,0,0,0,0
9,99999,57,90000,24,10000,40,9999,0.100000,0,0,0.000000,6,0.000000,0.000000,0.492848,0,0,0,0,0,0,0
9,99999,58,90000,3,0,40,9999,0.100000,0,0,0.000000,6,0.000000,0.000000,0.325882,0,0,0,0,0,0,0
9,99999,59,90000,95,40000,40,9999,0.100000,0,0,0.000000,6,0.000000,0.000000,0.139940,0,0,0,0,0,0,0
9,99999,60,90000,11,10000,40,9999,0.100000,0,0,0.000000,6,0.000000,0.000000,2.424954,0,0,0,0,0,0,0
9,99999,61,90000,42,10000,49,9999,0.100000,0,0,0.000000,6,3.000000,0.000000,7.865756,0,0,0,0,0,0,0
9,99999,62,90000,3,0,40,9999,0.100000,0,0,0.000000,6,0.000000,0.000000,0.900528,0,0,0,0,0,0,0
9,99999,63,90000,86,50000,40,9999,0.100000,0,0,0.000000,6,0.000000,0.000000,0.235511,0,0,0,0,0,0,0
9,99999,64,90000,95,40000,40,9999,0.100000,0,0,0.000000,6,0.000000,0.000000,0.297238,0,0,0,0,0,0,0
9,99999,65,90000,95,40000,40,9999,0.100000,0,0,0.000000,6,0.000000,0.000000,0.341171,0,0,0,0,0,0,0
9,99999,66,90000,95,40000,40,9999,0.100000,0,0,0.000000,6,0.000000,0.000000,0.134193,0,0,0,0,0,0,0
9,99999,67,90000,86,50000,40,9999,0.100000,0,0,0.000000,6,0.000000,0.000000,3.894890,0,0,0,0,0,0,0
9,99999,68,90000,3,0,9,9999,0.100000,0,0,34.210526,6,8.000000,0.000000,17.147125,0,0,0,0,0,1,0
9,99999,69,90000,95,40000,40,9999,0.100000,0,0,0.000000,6,0.000000,0.000000,0.955796,0,0,0,0,0,0,0
9,99999,70,90000,86,50000,40,9999,0.100000,0,0,0.000000,6,0.000000,0.000000,1.616715,0,0,0,0,0,0,0
9,99999,71,90000,42,10000,49,9999,0.100000,0,0,0.000000,6,2.000000,0.000000,7.609787,0,0,0,0,0,0,0
9,99999,72,90000,86,50000,49,9999,0.100000,0,0,0.000000,6,2.000000,0.000000,3.502220,0,0,0,0,0,0,0
9,99999,73,90000,86,50000,40,9999,0.100000,0,0,0.000000,6,0.000000,0.000000,0.088055,0,0,0,0,0,0,0
9,99999,74,90000,24,10000,49,9999,0.100000,0,0,0.000000,6,1.000000,0.000000,8.056454,0,0,0,0,0,0,0
9,99999,75,90000,86,50000,40,9999,0.100000,0,0,0.000000,6,0.000000,0.000000,0.197644,0,0,0,0,0,0,0
9,99999,76,90000,86,50000,40,9999,0.100000,0,0,0.000000,6,0.000000,0.000000,0.744377,0,0,0,0,0,0,0
9,99999,77,90000,95,40000,40,9999,0.100000,0,0,0.000000,6,0.000000,0.000000,0.130877,0,0,0,0,0,0,0
9,99999,78,90000,86,50000,49,9999,0.100000,0,0,0.000000,6,2.000000,0.000000,5.374429,0,0,0,0,0,0,0
9,99999,79,90000,3,0,40,9999,0.100000,0,0,0.000000,6,0.000000,0.000000,9.691927,0,0,0,0,0,0,0
9,99999,80,90000,3,0,40,9999,0.100000,0,0,0.000000,6,0.000000,0.000000,0.364236,0,0,0,0,0,0,0
9,99999,81,90000,95,40000,49,9999,0.100000,0,0,0.000000,6,4.000000,0.000000,12.628408,0,0,0,0,0,0,0
9,99999,82,90000,42,10000,40,9999,0.100000,0,0,0.000000,6,0.000000,0.000000,0.153392,0,0,0,0,0,0,0
9,99999,83,90000,11,10000,49,9999,0.100000,0,0,0.000000,6,1.000000,0.000000,1.472154,0,0,0,0,0,0,0
9,99999,84,90000,24,10000,40,9999,0.100000,0,0,0.000000,6,0.000000,0.000000,0.094623,0,0,0,0,0,0,0
9,99999,85,90000,3,0,9,9999,0.100000,0,0,34.210526,6,8.000000,0.000000,21.421268,0,0,0,0,0,1,0
9,99999,86,90000,95,40000,40,9999,0.100000,0,0,0.000000,6,0.000000,0.000000,1.635149,0,0,0,0,0,0,0
9,99999,87,90000,24,10000,49,9999,0.100000,0,0,0.000000,6,2.000000,0.000000,5.313666,0,0,0,0,0,0,0
9,99999,88,90000,3,0,49,9999,0.100000,0,0,0.000000,6,1.000000,0.000000,1.225710,0,0,0,0,0,0,0
9,99999,89,90000,24,10000,40,9999,0.100000,0,0,0.000000,6,0.000000,0.000000,3.993448,0,0,0,0,0,0,0
9,99999,90,90000,42,10000,40,9999,0.100000,0,0,0.000000,6,0.000000,0.000000,0.143631,0,0,0,0,0,0,0
9,99999,91,90000,86,50000,40,9999,0.100000,0,0,0.000000,6,0.000000,0.000000,0.946361,0,0,0,0,0,0,0
9,99999,92,90000,3,0,40,9999,0.100000,0,0,0.000000,6,0.000000,0.000000,0.146599,0,0,0,0,0,0,0
9,99999,93,90000,3,0,49,9999,0.100000,0,0,0.000000,6,1.000000,0.000000,10.590320,0,0,0,0,0,0,0
9,99999,94,90000,24,10000,40,9999,0.100000,0,0,0.000000,6,0.000000,0.000000,0.912207,0,0,0,0,0,0,0
9,99999,95,90000,24,10000,40,9999,0.100000,0,0,0.000000,6,0.000000,0.000000,1.498881,0,0,0,0,0,0,0
9,99999,96,90000,11,10000,40,9999,0.100000,0,0,0.000000,6,0.000000,0.000000,0.165668,0,0,0,0,0,0,0
9,99999,97,90000,24,10000,49,9999,0.100000,0,0,0.000000,6,3.000000,0.000000,5.326199,0,0,0,0,0,0,0
9,99999,98,90000,95,40000,40,9999,0.100000,0,0,0.000000,6,0.000000,0.000000,0.765785,0,0,0,0,0,0,0
9,99999,99,90000,24,10000,40,9999,0.100000,0,0,0.000000,6,0.000000,0.000000,2.689686,0,0,0,0,0,0,0
10,109999,0,100000,11,10000,40,9999,0.100000,0,0,0.000000,6,0.000000,0.000000,1.787793,0,0,0,0,0,0,0
10,109999,1,100000,86,50000,40,9999,0.100000,0,0,0.000000,6,0.000000,0.000000,0.350793,0,0,0,0,0,0,0
10,109999,2,100000,24,10000,40,9999,0.100000,0,0,0.000000,6,0.000000,0.000000,0.286392,0,0,0,0,0,0,0
10,109999,3,100000,95,40000,49,9999,0.100000,0,0,0.000000,6,1.000000,0.000000,1.478597,0,0,0,0,0,0,0
10,109999,4,100000,3,0,40,9999,0.100000,0,0,0.000000,6,0.000000,0.000000,2.256180,0,0,0,0,0,0,0
10,109999,5,100000,42,10000,40,9999,0.100000,0,0,0.000000,6,0.000000,0.000000,2.967605,0,0,0,0,0,0,0
10,109999,6,100000,24,10000,40,9999,0.100000,0,0,0.000000,6,0.000000,0.000000,0.232169,0,0,0,0,0,0,0
10,109999,7,100000,95,40000,49,9999,0.100000,0,0,0.000000,6,1.000000,0.000000,1.335211,0,0,0,0,0,0,0
10,109999,8,100000,11,10000,40,9999,0.100000,0,0,0.000000,6,0.000000,0.000000,0.363096,0,0,0,0,0,0,0
10,109999,9,100000,86,50000,40,9999,0.100000,0,0,0.000000,6,0.000000,0.000000,0.141902,0,0,0,0,0,0,0
10,109999,10,100000,42,10000,49,9999,0.100000,0,0,0.000000,6,1.000000,0.000000,11.517698,0,0,0,0,0,0,0
10,109999,11,100000,3,0,40,9999,0.100000,0,0,0.000000,6,0.000000,0.000000,1.524852,0,0,0,0,0,0,0
10,109999,12,100000,24,10000,40,9999,0.100000,0,0,0.000000,6,0.000000,0.000000,0.623633,0,0,0,0,0,0,0
10,109999,13,100000,11,10000,40,9999,0.100000,0,0,0.000000,6,0.000000,0.000000,7.520883,0,0,0,0,0,0,0
10,109999,14,100000,24,10000,40,9999,0.100000,0,0,0.000000,6,0.000000,0.000000,0.653675,0,0,0,0,0,0,0
10,109999,15,100000,42,10000,49,9999,0.100000,0,0,0.000000,6,3.000000,0.000000,10.028047,0,0,0,0,0,0,0
10,109999,16,100000,86,50000,40,9999,0.100000,0,0,0.000000,6,0.000000,0.000000,0.090127,0,0,0,0,0,0,0
10,109999,17,100000,24,10000,40,9999,0.100000,0,0,0.000000,6,0.000000,0.000000,0.575500,0,0,0,0,0,0,0
10,109999,18,100000,24,10000,40,9999,0.100000,0,0,0.000000,6,0.000000,0.000000,0.116000,0,0,0,0,0,0,0
10,109999,19,100000,86,50000,40,9999,0.100000,0,0,0.000000,6,0.000000,0.000000,0.279649,0,0,0,0,0,0,0
10,109999,20,100000,86,50000,40,9999,0.100000,0,0,0.000000,6,0.000000,0.000000,0.229890,0,0,0,0,0,0,0
10,109999,21,100000,24,10000,49,9999,0.100000,0,0,0.000000,6,2.000000,0.000000,6.855960,0,0,0,0,0,0,0
10,109999,22,100000,95,40000,49,9999,0.100000,0,0,0.000000,6,1.000000,0.000000,1.088310,0,0,0,0,0,0,0
10,109999,23,100000,11,10000,40,9999,0.100000,0,0,0.000000,6,0.000000,0.000000,3.668987,0,0,0,0,0,0,0
10,109999,24,100000,24,10000,40,9999,0.100000,0,0,0.000000,6,0.000000,0.000000,0.119995,0,0,0,0,0,0,0
10,109999,25,100000,11,10000,49,9999,0.100000,0,0,0.000000,6,2.000000,0.000000,4.421839,0,0,0,0,0,0,0
10,109999,26,100000,86,50000,49,9999,0.100000,0,0,0.000000,6,3.000000,0.000000,12.805189,0,0,0,0,0,0,0
10,109999,27,100000,24,10000,40,9999,0.100000,0,0,0.000000,6,0.000000,0.000000,0.216227,0,0,0,0,0,0,0
10,109999,28,100000,86,50000,40,9999,0.100000,0,0,0.000000,6,0.000000,0.000000,0.143774,0,0,0,0,0,0,0
10,109999,29,100000,24,10000,40,9999,0.100000,0,0,0.000000,6,0.000000,0.000000,0.821413,0,0,0,0,0,0,0
10,109999,30,100000,95,40000,49,9999,0.100000,0,0,0.000000,6,1.000000,0.000000,7.970516,0,0,0,0,0,0,0
10,109999,31,100000,3,0,40,9999,0.100000,0,0,0.000000,6,0.000000,0.000000,0.153654,0,0,0,0,0,0,0
10,109999,32,100000,24,10000,40,9999,0.100000,0,0,0.000000,6,0.000000,0.000000,0.188633,0,0,0,0,0,0,0
10,109999,33,100000,3,0,40,9999,0.100000,0,0,0.000000,6,0.000000,0.000000,0.274692,0,0,0,0,0,0,0
10,109999,34,100000,42,10000,40,9999,0.100000,0,0,0.000000,6,0.000000,0.000000,1.122100,0,0,0,0,0,0,0
10,109999,35,100000,86,50000,40,9999,0.100000,0,0,0.000000,6,0.000000,0.000000,0.140117,0,0,0,0,0,0,0
10,109999,36,100000,24,10000,49,9999,0.100000,0,0,0.000000,6,2.000000,0.000000,8.245051,0,0,0,0,0,0,0
10,109999,37,100000,95,40000,40,9999,0.100000,0,0,0.000000,6,0.000000,0.000000,0.174769,0,0,0,0,0,0,0
10,109999,38,100000,42,10000,40,9999,0.100000,0,0,0.000000,6,0.000000,0.000000,0.105575,0,0,0,0,0,0,0
10,109999,39,100000,95,40000,40,9999,0.100000,0,0,0.000000,6,0.000000,0.000000,3.417475,0,0,0,0,0,0,0
10,109999,40,100000,24,10000,40,9999,0.100000,0,0,0.000000,6,0.000000,0.000000,0.503707,0,0,0,0,0,0,0
10,109999,41,100000,95,40000,40,9999,0.100000,0,0,0.000000,6,0.000000,0.000000,3.007055,0,0,0,0,0,0,0
10,109999,42,100000,42,10000,40,9999,0.100000,0,0,0.000000,6,0.000000,0.000000,0.181093,0,0,0,0,0,0,0
10,109999,43,100000,42,10000,49,9999,0.100000,0,0,0.000000,6,1.000000,0.000000,1.377291,0,0,0,0,0,0,0
10,109999,44,100000,95,40000,49,9999,0.100000,0,0,0.000000,6,5.000000,0.000000,10.518773,0,0,0,0,0,0,0
10,109999,45,100000,86,50000,40,9999,0.100000,0,0,0.000000,6,0.000000,0.000000,10.651268,0,0,0,0,0,0,0
10,109999,46,100000,95,40000,40,9999,0.100000,0,0,0.000000,6,0.000000,0.000000,0.139948,0,0,0,0,0,0,0
10,109999,47,100000,95,40000,40,9999,0.100000,0,0,0.000000,6,0.000000,0.000000,0.309981,0,0,0,0,0,0,0
10,109999,48,100000,86,50000,40,9999,0.100000,0,0,0.000000,6,0.000000,0.000000,1.574325,0,0,0,0,0,0,0
10,109999,49,100000,95,40000,49,9999,0.100000,0,0,0.000000,6,2.000000,0.000000,4.740829,0,0,0,0,0,0,0
10,109999,50,100000,24,10000,40,9999,0.100000,0,0,0.000000,6,0.000000,0.000000,0.127158,0,0,0,0,0,0,0
10,109999,51,100000,24,10000,40,9999,0.100000,0,0,0.000000,6,0.000000,0.000000,0.142120,0,0,0,0,0,0,0
10,109999,52,100000,24,10000,49,9999,0.100000,0,0,0.000000,6,2.000000,0.000000,5.461692,0,0,0,0,0,0,0
10,109999,53,100000,3,0,49,9999,0.100000,0,0,0.000000,6,4.000000,0.000000,4.889924,0,0,0,0,0,0,0
10,109999,54,100000,24,10000,40,9999,0.065000,0,0,0.000000,6,0.000000,0.000000,0.183551,0,0,0,0,0,0,0
10,109999,55,100000,3,0,49,9999,0.100000,0,0,0.000000,6,2.000000,0.000000,5.619359,0,0,0,0,0,0,0
10,109999,56,100000,24,10000,49,9999,0.100000,0,0,0.000000,6,13.000000,0.000000,28.882372,0,0,0,0,0,0,0
10,109999,57,100000,95,40000,40,9999,0.100000,0,0,0.000000,6,0.000000,0.000000,0.578874,0,0,0,0,0,0,0
10,109999,58,100000,42,10000,40,9999,0.100000,0,0,0.000000,6,0.000000,0.000000,0.250199,0,0,0,0,0,0,0
10,109999,59,100000,3,0,40,9999,0.100000,0,0,0.000000,6,0.000000,0.000000,0.161833,0,0,0,0,0,0,0
10,109999,60,100000,3,0,40,9999,0.100000,0,0,0.000000,6,0.000000,0.000000,3.579379,0,0,0,0,0,0,0
10,109999,61,100000,11,10000,49,9999,0.100000,0,0,0.000000,6,5.000000,0.000000,6.073905,0,0,0,0,0,0,0
10,109999,62,100000,11,10000,49,9999,0.100000,0,0,0.000000,6,1.000000,0.000000,1.348058,0,0,0,0,0,0,0
10,109999,63,100000,86,50000,40,9999,0.100000,0,0,0.000000,6,0.000000,0.000000,0.245885,0,0,0,0,0,0,0
10,109999,64,100000,11,10000,40,9999,0.100000,0,0,0.000000,6,0.000000,0.000000,0.268668,0,0,0,0,0,0,0
10,109999,65,100000,11,10000,40,9999,0.100000,0,0,0.000000,6,0.000000,0.000000,0.113849,0,0,0,0,0,0,0
10,109999,66,100000,24,10000,40,9999,0.135000,0,0,0.000000,6,0.000000,0.000000,0.162634,0,0,0,0,0,0,0
10,109999,67,100000,86,50000,40,9999,0.100000,0,0,0.000000,6,0.000000,0.000000,3.559752,0,0,0,0,0,0,0
10,109999,68,100000,11,10000,49,9999,0.100000,0,0,0.000000,6,3.000000,0.000000,10.866635,0,0,0,0,0,0,0
10,109999,69,100000,11,10000,49,9999,0.100000,0,0,0.000000,6,3.000000,0.000000,13.562004,0,0,0,0,0,0,0
10,109999,70,100000,42,10000,40,9999,0.100000,0,0,0.000000,6,0.000000,0.000000,0.092078,0,0,0,0,0,0,0
10,109999,71,100000,11,10000,49,9999,0.100000,0,0,0.000000,6,1.000000,0.000000,1.736757,0,0,0,0,0,0,0
10,109999,72,100000,95,40000,49,9999,0.100000,0,0,0.000000,6,2.000000,0.000000,6.272149,0,0,0,0,0,0,0
10,109999,73,100000,86,50000,40,9999,0.100000,0,0,0.000000,6,0.000000,0.000000,0.114816,0,0,0,0,0,0,0
10,109999,74,100000,3,0,49,9999,0.100000,0,0,0.000000,6,1.000000,0.000000,6.718767,0,0,0,0,0,0,0
10,109999,75,100000,24,10000,40,9999,0.100000,0,0,0.000000,6,0.000000,0.000000,0.197165,0,0,0,0,0,0,0
10,109999,76,100000,95,40000,40,9999,0.100000,0,0,0.000000,6,0.000000,0.000000,0.752381,0,0,0,0,0,0,0
10,109999,77,100000,86,50000,40,9999,0.100000,0,0,0.000000,6,0.000000,0.000000,0.153928,0,0,0,0,0,0,0
10,109999,78,100000,3,0,49,9999,0.100000,0,0,0.000000,6,1.000000,0.000000,7.000132,0,0,0,0,0,0,0
10,109999,79,100000,86,50000,40,9999,0.100000,0,0,0.000000,6,0.000000,0.000000,6.139483,0,0,0,0,0,0,0
10,109999,80,100000,24,10000,40,9999,0.100000,0,0,0.000000,6,0.000000,0.000000,0.504666,0,0,0,0,0,0,0
10,109999,81,100000,3,0,40,9999,0.100000,0,0,0.000000,6,0.000000,0.000000,8.865149,0,0,0,0,0,0,0
10,109999,82,100000,3,0,40,9999,0.100000,0,0,0.000000,6,0.000000,0.000000,0.112841,0,0,0,0,0,0,0
10,109999,83,100000,42,10000,49,9999,0.100000,0,0,0.000000,6,3.000000,0.000000,4.818591,0,0,0,0,0,0,0
10,109999,84,100000,86,50000,40,9999,0.100000,0,0,0.000000,6,0.000000,0.000000,0.091902,0,0,0,0,0,0,0
10,109999,85,100000,42,10000,49,9999,0.100000,0,0,0.000000,6,3.000000,0.000000,15.524275,0,0,0,0,0,0,0
10,109999,86,100000,86,50000,40,9999,0.065000,0,0,0.000000,6,0.000000,0.000000,1.854194,0,0,0,0,0,0,0
10,109999,87,100000,11,10000,40,9999,0.100000,0,0,0.000000,6,0.000000,0.000000,0.684030,0,0,0,0,0,0,0
10,109999,88,100000,24,10000,40,9999,0.100000,0,0,0.000000,6,0.000000,0.000000,1.470586,0,0,0,0,0,0,0
10,109999,89,100000,42,10000,40,9999,0.100000,0,0,0.000000,6,0.000000,0.000000,4.281507,0,0,0,0,0,0,0
10,109999,90,100000,86,50000,40,9999,0.100000,0,0,0.000000,6,0.000000,0.000000,0.130433,0,0,0,0,0,0,0
10,109999,91,100000,3,0,40,9999,0.100000,0,0,0.000000,6,0.000000,0.000000,0.934294,0,0,0,0,0,0,0
10,109999,92,100000,86,50000,40,9999,0.100000,0,0,0.000000,6,0.000000,0.000000,0.148135,0,0,0,0,0,0,0
10,109999,93,100000,3,0,49,9999,0.100000,0,0,0.000000,6,5.000000,0.000000,9.076291,0,0,0,0,0,0,0
10,109999,94,100000,86,50000,40,9999,0.100000,0,0,0.000000,6,0.000000,0.000000,0.919587,0,0,0,0,0,0,0
10,109999,95,100000,86,50000,49,9999,0.100000,0,0,0.000000,6,1.000000,0.000000,1.816265,0,0,0,0,0,0,0
10,109999,96,100000,42,10000,40,9999,0.100000,0,0,0.000000,6,0.000000,0.000000,0.135404,0,0,0,0,0,0,0
10,109999,97,100000,42,10000,49,9999,0.100000,0,0,0.000000,6,2.000000,0.000000,9.766309,0,0,0,0,0,0,0
10,109999,98,100000,42,10000,40,9999,0.100000,0,0,0.000000,6,0.000000,0.000000,0.705314,0,0,0,0,0,0,0
10,109999,99,100000,95,40000,49,9999,0.100000,0,0,0.000000,6,2.000000,0.000000,14.452183,0,0,0,0,0,0,0
11,119999,0,110000,95,40000,49,9999,0.100000,0,0,0.000000,6,1.000000,0.000000,1.516606,0,0,0,0,0,0,0
11,119999,1,110000,11,10000,40,9999,0.100000,0,0,0.000000,6,0.000000,0.000000,0.309671,0,0,0,0,0,0,0
11,119999,2,110000,86,50000,40,9999,0.100000,0,0,0.000000,6,0.000000,0.000000,0.534874,0,0,0,0,0,0,0
11,119999,3,110000,3,0,49,9999,0.100000,0,0,0.000000,6,2.000000,0.000000,3.337026,0,0,0,0,0,0,0
11,119999,4,110000,95,40000,49,9999,0.100000,0,0,0.000000,6,1.000000,0.000000,1.593667,0,0,0,0,0,0,0
11,119999,5,110000,95,40000,40,9999,0.100000,0,0,0.000000,6,0.000000,0.000000,1.186418,0,0,0,0,0,0,0
11,119999,6,110000,42,10000,40,9999,0.100000,0,0,0.000000,6,0.000000,0.000000,0.242214,0,0,0,0,0,0,0
11,119999,7,110000,95,40000,49,9999,0.100000,0,0,0.000000,6,1.000000,0.000000,1.599545,0,0,0,0,0,0,0
11,119999,8,110000,42,10000,49,9999,0.100000,0,0,0.000000,6,1.000000,0.000000,1.313198,0,0,0,0,0,0,0
11,119999,9,110000,24,10000,40,9999,0.100000,0,0,0.000000,6,0.000000,0.000000,0.144371,0,0,0,0,0,0,0
11,119999,10,110000,86,50000,40,9999,0.100000,0,0,0.000000,6,0.000000,0.000000,3.144366,0,0,0,0,0,0,0
11,119999,11,110000,3,0,40,9999,0.100000,0,0,0.000000,6,0.000000,0.000000,1.432201,0,0,0,0,0,0,0
11,119999,12,110000,86,50000,40,9999,0.100000,0,0,0.000000,6,0.000000,0.000000,0.619811,0,0,0,0,0,0,0
11,119999,13,110000,3,0,49,9999,0.100000,0,0,0.000000,6,3.000000,0.000000,15.729601,0,0,0,0,0,0,0
11,119999,14,110000,86,50000,40,9999,0.100000,0,0,0.000000,6,0.000000,0.000000,0.734582,0,0,0,0,0,0,0
11,119999,15,110000,86,50000,49,9999,0.100000,0,0,0.000000,6,1.000000,0.000000,2.982708,0,0,0,0,0,0,0
11,119999,16,110000,3,0,49,9999,0.100000,0,0,0.000000,6,10.000000,0.000000,20.462995,0,0,0,0,0,0,0
11,119999,17,110000,11,10000,40,9999,0.065000,0,0,0.000000,6,0.000000,0.000000,0.617724,0,0,0,0,0,0,0
11,119999,18,110000,86,50000,40,9999,0.100000,0,0,0.000000,6,0.000000,0.000000,0.186702,0,0,0,0,0,0,0
11,119999,19,110000,11,10000,40,9999,0.100000,0,0,0.000000,6,0.000000,0.000000,0.143310,0,0,0,0,0,0,0
11,119999,20,110000,95,40000,40,9999,0.100000,0,0,0.000000,6,0.000000,0.000000,0.219700,0,0,0,0,0,0,0
11,119999,21,110000,3,0,49,9999,0.100000,0,0,0.000000,6,3.000000,0.000000,5.187893,0,0,0,0,0,0,0
11,119999,22,110000,42,10000,49,9999,0.100000,0,0,0.000000,6,1.000000,0.000000,1.552624,0,0,0,0,0,0,0
11,119999,23,110000,24,10000,40,9999,0.100000,0,0,0.000000,6,0.000000,0.000000,3.748359,0,0,0,0,0,0,0
11,119999,24,110000,11,10000,40,9999,0.100000,0,0,0.000000,6,0.000000,0.000000,0.128055,0,0,0,0,0,0,0
11,119999,25,110000,86,50000,40,9999,0.100000,0,0,0.000000,6,0.000000,0.000000,1.557811,0,0,0,0,0,0,0
11,119999,26,110000,95,40000,40,9999,0.100000,0,0,0.000000,6,0.000000,0.000000,9.210109,0,0,0,0,0,0,0
11,119999,27,110000,24,10000,40,9999,0.100000,0,0,0.000000,6,0.000000,0.000000,0.220847,0,0,0,0,0,0,0
11,119999,28,110000,95,40000,40,9999,0.100000,0,0,0.000000,6,0.000000,0.000000,0.126265,0,0,0,0,0,0,0
11,119999,29,110000,11,10000,40,9999,0.100000,0,0,0.000000,6,0.000000,0.000000,0.815915,0,0,0,0,0,0,0
11,119999,30,110000,24,10000,40,9999,0.100000,0,0,0.000000,6,0.000000,0.000000,2.734991,0,0,0,0,0,0,0
11,119999,31,110000,24,10000,40,9999,0.100000,0,0,0.000000,6,0.000000,0.000000,0.154067,0,0,0,0,0,0,0
11,119999,32,110000,3,0,40,9999,0.100000,0,0,0.000000,6,0.000000,0.000000,0.084512,0,0,0,0,0,0,0
11,119999,33,110000,42,10000,40,9999,0.100000,0,0,0.000000,6,0.000000,0.000000,0.121875,0,0,0,0,0,0,0
11,119999,34,110000,3,0,40,9999,0.100000,0,0,0.000000,6,0.000000,0.000000,0.961603,0,0,0,0,0,0,0
11,119999,35,110000,24,10000,40,9999,0.100000,0,0,0.000000,6,0.000000,0.000000,0.170212,0,0,0,0,0,0,0
11,119999,36,110000,3,0,49,9999,0.100000,0,0,0.000000,6,3.000000,0.000000,16.546049,0,0,0,0,0,0,0
11,119999,37,110000,42,10000,40,9999,0.100000,0,0,0.000000,6,0.000000,0.000000,0.239179,0,0,0,0,0,0,0
11,119999,38,110000,86,50000,40,9999,0.100000,0,0,0.000000,6,0.000000,0.000000,0.102723,0,0,0,0,0,0,0
11,119999,39,110000,24,10000,49,9999,0.100000,0,0,0.000000,6,1.000000,0.000000,1.802734,0,0,0,0,0,0,0
11,119999,40,110000,42,10000,49,9999,0.100000,0,0,0.000000,6,5.000000,0.000000,11.384556,0,0,0,0,0,0,0
11,119999,41,110000,11,10000,40,9999,0.100000,0,0,0.000000,6,0.000000,0.000000,3.237089,0,0,0,0,0,0,0
11,119999,42,110000,95,40000,40,9999,0.100000,0,0,0.000000,6,0.000000,0.000000,0.143271,0,0,0,0,0,0,0
11,119999,43,110000,95,40000,49,9999,0.100000,0,0,0.000000,6,1.000000,0.000000,19.282597,0,0,0,0,0,0,0
11,119999,44,110000,11,10000,40,9999,0.100000,0,0,0.000000,6,0.000000,0.000000,1.881228,0,0,0,0,0,0,0
11,119999,45,110000,24,10000,49,9999,0.100000,0,0,0.000000,6,1.000000,0.000000,1.417769,0,0,0,0,0,0,0
11,119999,46,110000,24,10000,40,9999,0.100000,0,0,0.000000,6,0.000000,0.000000,0.160043,0,0,0,0,0,0,0
11,119999,47,110000,11,10000,40,9999,0.100000,0,0,0.000000,6,0.000000,0.000000,0.533212,0,0,0,0,0,0,0
11,119999,48,110000,42,10000,49,9999,0.100000,0,0,0.000000,6,1.000000,0.000000,1.479458,0,0,0,0,0,0,0
11,119999,49,110000,11,10000,40,9999,0.100000,0,0,0.000000,6,0.000000,0.000000,1.342036,0,0,0,0,0,0,0
11,119999,50,110000,24,10000,40,9999,0.100000,0,0,0.000000,6,0.000000,0.000000,0.101238,0,0,0,0,0,0,0
11,119999,51,110000,3,0,40,9999,0.100000,0,0,0.000000,6,0.000000,0.000000,0.141306,0,0,0,0,0,0,0
11,119999,52,110000,11,10000,49,9999,0.100000,0,0,0.000000,6,9.000000,0.000000,27.408183,0,0,0,0,0,0,0
11,119999,53,110000,11,10000,40,9999,0.100000,0,0,0.000000,6,0.000000,0.000000,1.028132,0,0,0,0,0,0,0
11,119999,54,110000,24,10000,40,9999,0.100000,0,0,0.000000,6,0.000000,0.000000,0.182180,0,0,0,0,0,0,0
11,119999,55,110000,86,50000,49,9999,0.100000,0,0,0.000000,6,1.000000,0.000000,1.821807,0,0,0,0,0,0,0
11,119999,56,110000,11,10000,49,9999,0.100000,0,0,0.000000,6,2.000000,0.000000,3.786486,0,0,0,0,0,0,0
11,119999,57,110000,3,0,40,9999,0.100000,0,0,0.000000,6,0.000000,0.000000,0.654783,0,0,0,0,0,0,0
11,119999,58,110000,11,10000,40,9999,0.100000,0,0,0.000000,6,0.000000,0.000000,0.139065,0,0,0,0,0,0,0
11,119999,59,110000,95,40000,40,9999,0.100000,0,0,0.000000,6,0.000000,0.000000,0.153875,0,0,0,0,0,0,0
11,119999,60,110000,95,40000,40,9999,0.100000,0,0,0.000000,6,0.000000,0.000000,0.362634,0,0,0,0,0,0,0
11,119999,61,110000,11,10000,40,9999,0.100000,0,0,0.000000,6,0.000000,0.000000,1.300860,0,0,0,0,0,0,0
11,119999,62,110000,42,10000,40,9999,0.100000,0,0,0.000000,6,0.000000,0.000000,1.036796,0,0,0,0,0,0,0
11,119999,63,110000,11,10000,40,9999,0.100000,0,0,0.000000,6,0.000000,0.000000,0.235284,0,0,0,0,0,0,0
11,119999,64,110000,3,0,49,9999,0.100000,0,0,0.000000,6,2.000000,0.000000,7.302904,0,0,0,0,0,0,0
11,119999,65,110000,95,40000,40,9999,0.100000,0,0,0.000000,6,0.000000,0.000000,0.096533,0,0,0,0,0,0,0
11,119999,66,110000,3,0,40,9999,0.100000,0,0,0.000000,6,0.000000,0.000000,0.136661,0,0,0,0,0,0,0
11,119999,67,110000,24,10000,40,9999,0.100000,0,0,0.000000,6,0.000000,0.000000,12.248461,0,0,0,0,0,0,0
11,119999,68,110000,24,10000,49,9999,0.100000,0,0,0.000000,6,1.000000,0.000000,3.030040,0,0,0,0,0,0,0
11,119999,69,110000,95,40000,49,9999,0.100000,0,0,0.000000,6,1.000000,0.000000,1.572446,0,0,0,0,0,0,0
11,119999,70,110000,3,0,40,9999,0.100000,0,0,0.000000,6,0.000000,0.000000,0.091565,0,0,0,0,0,0,0
11,119999,71,110000,11,10000,49,9999,0.100000,0,0,0.000000,6,7.000000,0.000000,16.697667,0,0,0,0,0,0,0
11,119999,72,110000,24,10000,49,9999,0.100000,0,0,0.000000,6,3.000000,0.000000,11.988581,0,0,0,0,0,0,0
11,119999,73,110000,42,10000,40,9999,0.100000,0,0,0.000000,6,0.000000,0.000000,0.189998,0,0,0,0,0,0,0
11,119999,74,110000,42,10000,40,9999,0.100000,0,0,0.000000,6,0.000000,0.000000,3.812569,0,0,0,0,0,0,0
11,119999,75,110000,86,50000,40,9999,0.100000,0,0,0.000000,6,0.000000,0.000000,0.203649,0,0,0,0,0,0,0
11,119999,76,110000,11,10000,40,9999,0.100000,0,0,0.000000,6,0.000000,0.000000,0.795281,0,0,0,0,0,0,0
11,119999,77,110000,86,50000,40,9999,0.100000,0,0,0.000000,6,0.000000,0.000000,0.139854,0,0,0,0,0,0,0
11,119999,78,110000,95,40000,40,9999,0.100000,0,0,0.000000,6,0.000000,0.000000,9.883345,0,0,0,0,0,0,0
11,119999,79,110000,11,10000,40,9999,0.100000,0,0,0.000000,6,0.000000,0.000000,3.058064,0,0,0,0,0,0,0
11,119999,80,110000,3,0,49,9999,0.100000,0,0,0.000000,6,1.000000,0.000000,1.303770,0,0,0,0,0,0,0
11,119999,81,110000,24,10000,40,9999,0.100000,0,0,0.000000,6,0.000000,0.000000,2.695497,0,0,0,0,0,0,0
11,119999,82,110000,3,0,49,9999,0.100000,0,0,0.000000,6,1.000000,0.000000,2.698668,0,0,0,0,0,0,0
11,119999,83,110000,3,0,49,9999,0.100000,0,0,0.000000,6,2.000000,0.000000,4.975853,0,0,0,0,0,0,0
11,119999,84,110000,24,10000,40,9999,0.100000,0,0,0.000000,6,0.000000,0.000000,0.088329,0,0,0,0,0,0,0
11,119999,85,110000,11,10000,49,9999,0.135000,0,0,0.000000,6,2.000000,0.000000,7.586034,0,0,0,0,0,0,0
11,119999,86,110000,86,50000,49,9999,0.100000,0,0,0.000000,6,1.000000,0.000000,2.907684,0,0,0,0,0,0,0
11,119999,87,110000,11,10000,40,9999,0.100000,0,0,0.000000,6,0.000000,0.000000,0.850196,0,0,0,0,0,0,0
11,119999,88,110000,3,0,49,9999,0.100000,0,0,0.000000,6,10.000000,0.000000,20.475773,0,0,0,0,0,0,0
11,119999,89,110000,11,10000,40,9999,0.100000,0,0,0.000000,6,0.000000,0.000000,5.279482,0,0,0,0,0,0,0
11,119999,90,110000,86,50000,40,9999,0.100000,0,0,0.000000,6,0.000000,0.000000,0.143948,0,0,0,0,0,0,0
11,119999,91,110000,42,10000,40,9999,0.100000,0,0,0.000000,6,0.000000,0.000000,0.816385,0,0,0,0,0,0,0
11,119999,92,110000,95,40000,40,9999,0.100000,0,0,0.000000,6,0.000000,0.000000,0.147350,0,0,0,0,0,0,0
11,119999,93,110000,86,50000,40,9999,0.100000,0,0,0.000000,6,0.000000,0.000000,1.899964,0,0,0,0,0,0,0
11,119999,94,110000,95,40000,40,9999,0.100000,0,0,0.000000,6,0.000000,0.000000,2.402310,0,0,0,0,0,0,0
11,119999,95,110000,95,40000,49,9999,0.065000,0,0,0.000000,6,9.000000,0.000000,18.940838,0,0,0,0,0,0,0
11,119999,96,110000,24,10000,40,9999,0.100000,0,0,0.000000,6,0.000000,0.000000,0.145670,0,0,0,0,0,0,0
11,119999,97,110000,86,50000,49,9999,0.100000,0,0,0.000000,6,5.000000,0.000000,15.733977,0,0,0,0,0,0,0
11,119999,98,110000,42,10000,40,9999,0.100000,0,0,0.000000,6,0.000000,0.000000,0.736098,0,0,0,0,0,0,0
11,119999,99,110000,24,10000,49,9999,0.100000,0,0,0.000000,6,7.000000,0.000000,34.139864,0,0,0,0,0,0,0
12,129999,0,120000,95,40000,49,9999,0.100000,0,0,0.000000,6,2.000000,0.000000,2.292526,0,0,0,0,0,0,0
12,129999,1,120000,95,40000,40,9999,0.100000,0,0,0.000000,6,0.000000,0.000000,0.325843,0,0,0,0,0,0,0
12,129999,2,120000,3,0,40,9999,0.100000,0,0,0.000000,6,0.000000,0.000000,0.357587,0,0,0,0,0,0,0
12,129999,3,120000,11,10000,49,9999,0.100000,0,0,0.000000,6,3.000000,0.000000,7.206392,0,0,0,0,0,0,0
12,129999,4,120000,42,10000,40,9999,0.100000,0,0,0.000000,6,0.000000,0.000000,3.390393,0,0,0,0,0,0,0
12,129999,5,120000,42,10000,40,9999,0.100000,0,0,0.000000,6,0.000000,0.000000,2.217182,0,0,0,0,0,0,0
12,129999,6,120000,3,0,40,9999,0.100000,0,0,0.000000,6,0.000000,0.000000,0.233709,0,0,0,0,0,0,0
12,129999,7,120000,3,0,49,9999,0.100000,0,0,0.000000,6,1.000000,0.000000,1.607498,0,0,0,0,0,0,0
12,129999,8,120000,11,10000,49,9999,0.100000,0,0,0.000000,6,2.000000,0.000000,2.343503,0,0,0,0,0,0,0
12,129999,9,120000,86,50000,40,9999,0.100000,0,0,0.000000,6,0.000000,0.000000,0.147477,0,0,0,0,0,0,0
12,129999,10,120000,86,50000,40,9999,0.100000,0,0,0.000000,6,0.000000,0.000000,3.142049,0,0,0,0,0,0,0
12,129999,11,120000,3,0,40,9999,0.100000,0,0,0.000000,6,0.000000,0.000000,1.449647,0,0,0,0,0,0,0
12,129999,12,120000,95,40000,40,9999,0.100000,0,0,0.000000,6,0.000000,0.000000,0.640020,0,0,0,0,0,0,0
12,129999,13,120000,42,10000,49,9999,0.100000,0,0,0.000000,6,1.000000,0.000000,8.377660,0,0,0,0,0,0,0
12,129999,14,120000,24,10000,40,9999,0.100000,0,0,0.000000,6,0.000000,0.000000,0.807457,0,0,0,0,0,0,0
12,129999,15,120000,86,50000,49,9999,0.100000,0,0,0.000000,6,1.000000,0.000000,5.144810,0,0,0,0,0,0,0
12,129999,16,120000,95,40000,40,9999,0.100000,0,0,0.000000,6,0.000000,0.000000,0.583177,0,0,0,0,0,0,0
12,129999,17,120000,95,40000,40,9999,0.100000,0,0,0.000000,6,0.000000,0.000000,0.618260,0,0,0,0,0,0,0
12,129999,18,120000,95,40000,40,9999,0.100000,0,0,0.000000,6,0.000000,0.000000,0.118681,0,0,0,0,0,0,0
12,129999,19,120000,24,10000,40,9999,0.100000,0,0,0.000000,6,0.000000,0.000000,0.209202,0,0,0,0,0,0,0
12,129999,20,120000,42,10000,40,9999,0.100000,0,0,0.000000,6,0.000000,0.000000,0.241090,0,0,0,0,0,0,0
12,129999,21,120000,24,10000,49,9999,0.100000,0,0,0.000000,6,3.000000,0.000000,6.584605,0,0,0,0,0,0,0
12,129999,22,120000,11,10000,49,9999,0.100000,0,0,0.000000,6,1.000000,0.000000,1.562408,0,0,0,0,0,0,0
12,129999,23,120000,42,10000,40,9999,0.100000,0,0,0.000000,6,0.000000,0.000000,3.568825,0,0,0,0,0,0,0
12,129999,24,120000,86,50000,40,9999,0.100000,0,0,0.000000,6,0.000000,0.000000,0.129058,0,0,0,0,0,0,0
12,129999,25,120000,95,40000,40,9999,0.100000,0,0,0.000000,6,0.000000,0.000000,6.284308,0,0,0,0,0,0,0
