generation,iteration,robot,birthday,ancestor_id,ancestor_birthday,cell_id,age,sigma,maps,genomes,fitness,cells_in_map,dist_max,dist_pot_max,dist_total,com_rx,com_tx,obj_group1,obj_group2,obj_group3,obj_group4,obj_group5
0,9999,0,0,0,0,40,9999,0.100000,99,99,0.000000,0,1.000000,21.827088,4.550175,99,99,0,0,0,0,0
0,9999,1,0,1,0,0,9999,0.100000,99,99,1.423765,0,2.000000,22.946814,5.703487,99,99,0,0,1,0,0
0,9999,2,0,2,0,0,9999,0.100000,99,99,0.401294,0,0.000000,27.650496,0.400336,99,99,0,0,0,0,1
0,9999,3,0,3,0,41,9999,0.100000,99,99,0.000000,0,5.000000,24.689452,11.003064,99,99,0,0,0,0,0
0,9999,4,0,4,0,0,9999,0.100000,99,99,0.002022,0,0.000000,28.804787,0.724469,99,99,0,0,0,1,0
0,9999,5,0,5,0,41,9999,0.100000,99,99,0.000000,0,3.000000,22.775758,8.432067,99,99,0,0,0,0,0
0,9999,6,0,6,0,40,9999,0.100000,99,99,0.000000,0,0.000000,14.257934,1.265765,99,99,0,0,0,0,0
0,9999,7,0,7,0,40,9999,0.100000,99,99,0.000000,0,0.000000,25.667801,2.160349,99,99,0,0,0,0,0
0,9999,8,0,8,0,40,9999,0.100000,99,99,0.000000,0,1.000000,18.354639,12.776626,99,99,0,0,0,0,0
0,9999,9,0,9,0,40,9999,0.100000,99,99,0.000000,0,1.000000,17.184706,6.389388,99,99,0,0,0,0,0
0,9999,10,0,10,0,0,9999,0.100000,99,99,0.683193,0,0.000000,21.427161,0.857663,99,99,0,1,0,0,0
0,9999,11,0,11,0,41,9999,0.100000,99,99,0.000000,0,3.000000,20.486181,9.888170,99,99,0,0,0,0,0
0,9999,12,0,12,0,0,9999,0.100000,99,99,0.000589,0,0.000000,28.203571,1.061480,99,99,0,0,0,1,0
0,9999,13,0,13,0,40,9999,0.100000,99,99,0.000000,0,2.000000,21.511733,8.205793,99,99,0,0,0,0,0
0,9999,14,0,14,0,93,9999,0.100000,99,99,53.495285,0,10.000000,24.173567,18.239044,99,99,1,0,0,0,0
0,9999,15,0,15,0,42,9999,0.100000,99,99,0.000000,0,6.000000,25.631059,11.756029,99,99,0,0,0,0,0
0,9999,16,0,16,0,0,9999,0.100000,99,99,0.061536,0,0.000000,16.020797,1.288922,99,99,0,0,0,1,0
0,9999,17,0,17,0,42,9999,0.100000,99,99,0.000000,0,6.000000,27.376133,16.711709,99,99,0,0,0,0,0
0,9999,18,0,18,0,0,9999,0.100000,99,99,0.001637,0,1.000000,22.453514,8.250817,99,99,0,0,1,0,0
0,9999,19,0,19,0,41,9999,0.100000,99,99,0.000000,0,2.000000,16.276942,8.006611,99,99,0,0,0,0,0
0,9999,20,0,20,0,40,9999,0.100000,99,99,0.000000,0,0.000000,29.990498,15.001394,99,99,0,0,0,0,0
0,9999,21,0,21,0,40,9999,0.100000,99,99,0.000000,0,1.000000,26.329422,13.813144,99,99,0,0,0,0,0
0,9999,22,0,22,0,40,9999,0.100000,99,99,0.000000,0,1.000000,29.910048,7.653294,99,99,0,0,0,0,0
0,9999,23,0,23,0,0,9999,0.100000,99,99,0.002323,0,0.000000,17.624303,0.424937,99,99,0,0,0,1,0
0,9999,24,0,24,0,40,9999,0.100000,99,99,0.000000,0,2.000000,30.800240,9.785386,99,99,0,0,0,0,0
0,9999,25,0,25,0,0,9999,0.100000,99,99,0.009757,0,0.000000,29.870833,1.138108,99,99,0,0,0,0,1
0,9999,26,0,26,0,94,9999,0.100000,99,99,64.818818,0,11.000000,25.211837,21.906038,99,99,1,0,0,0,0
0,9999,27,0,27,0,40,9999,0.100000,99,99,0.000000,0,0.000000,19.362158,0.516978,99,99,0,0,0,0,0
0,9999,28,0,28,0,41,9999,0.100000,99,99,0.000000,0,3.000000,18.028076,15.758461,99,99,0,0,0,0,0
0,9999,29,0,29,0,0,9999,0.100000,99,99,0.119928,0,0.000000,32.645087,0.331890,99,99,0,0,0,0,1
0,9999,30,0,30,0,40,9999,0.100000,99,99,0.000000,0,2.000000,24.536162,6.268284,99,99,0,0,0,0,0
0,9999,31,0,31,0,40,9999,0.100000,99,99,0.000000,0,0.000000,30.064397,1.085751,99,99,0,0,0,0,0
0,9999,32,0,32,0,40,9999,0.100000,99,99,0.000000,0,0.000000,28.458873,7.266111,99,99,0,0,0,0,0
0,9999,33,0,33,0,0,9999,0.100000,99,99,0.011848,0,3.000000,31.848798,10.063287,99,99,0,0,0,0,1
0,9999,34,0,34,0,40,9999,0.100000,99,99,0.000000,0,2.000000,21.423222,10.208128,99,99,0,0,0,0,0
0,9999,35,0,35,0,40,9999,0.100000,99,99,0.000000,0,2.000000,19.881296,11.906313,99,99,0,0,0,0,0
0,9999,36,0,36,0,41,9999,0.100000,99,99,0.000000,0,3.000000,15.280152,12.621938,99,99,0,0,0,0,0
0,9999,37,0,37,0,41,9999,0.100000,99,99,0.000000,0,6.000000,33.052115,15.139554,99,99,0,0,0,0,0
0,9999,38,0,38,0,42,9999,0.100000,99,99,0.000000,0,4.000000,15.135173,8.086407,99,99,0,0,0,0,0
0,9999,39,0,39,0,41,9999,0.100000,99,99,0.000000,0,2.000000,18.736132,9.286609,99,99,0,0,0,0,0
0,9999,40,0,40,0,40,9999,0.100000,99,99,0.000000,0,0.000000,21.186599,1.470364,99,99,0,0,0,0,0
0,9999,41,0,41,0,0,9999,0.100000,99,99,0.041815,0,0.000000,33.380548,1.224421,99,99,0,0,1,0,0
0,9999,42,0,42,0,41,9999,0.100000,99,99,0.000000,0,4.000000,22.076837,9.268063,99,99,0,0,0,0,0
0,9999,43,0,43,0,40,9999,0.100000,99,99,0.000000,0,1.000000,17.527284,7.910721,99,99,0,0,0,0,0
0,9999,44,0,44,0,93,9999,0.100000,99,99,44.843239,0,10.000000,28.962067,23.682796,99,99,1,0,0,0,0
0,9999,45,0,45,0,40,9999,0.100000,99,99,0.000000,0,2.000000,22.078493,6.324494,99,99,0,0,0,0,0
0,9999,46,0,46,0,0,9999,0.100000,99,99,1.003203,0,1.000000,21.903781,4.419249,99,99,0,0,0,0,1
0,9999,47,0,47,0,94,9999,0.100000,99,99,46.677777,0,10.000000,21.536464,15.314154,99,99,1,0,0,0,0
0,9999,48,0,48,0,40,9999,0.100000,99,99,0.000000,0,2.000000,23.029965,6.757738,99,99,0,0,0,0,0
0,9999,49,0,49,0,41,9999,0.100000,99,99,0.000000,0,3.000000,28.117671,11.780718,99,99,0,0,0,0,0
0,9999,50,0,50,0,41,9999,0.100000,99,99,0.000000,0,2.000000,17.382412,13.331343,99,99,0,0,0,0,0
0,9999,51,0,51,0,40,9999,0.100000,99,99,0.000000,0,1.000000,29.662146,3.729896,99,99,0,0,0,0,0
0,9999,52,0,52,0,0,9999,0.100000,99,99,7.169840,0,1.000000,25.670673,4.122581,99,99,0,1,0,0,0
0,9999,53,0,53,0,41,9999,0.100000,99,99,0.000000,0,3.000000,27.216562,9.075264,99,99,0,0,0,0,0
0,9999,54,0,54,0,40,9999,0.100000,99,99,0.000000,0,2.000000,26.638510,15.540365,99,99,0,0,0,0,0
0,9999,55,0,55,0,40,9999,0.100000,99,99,0.000000,0,1.000000,34.763077,13.205767,99,99,0,0,0,0,0
0,9999,56,0,56,0,40,9999,0.100000,99,99,0.000000,0,1.000000,23.980701,17.757941,99,99,0,0,0,0,0
0,9999,57,0,57,0,40,9999,0.100000,99,99,0.000000,0,2.000000,19.363760,9.712877,99,99,0,0,0,0,0
0,9999,58,0,58,0,40,9999,0.100000,99,99,0.000000,0,0.000000,24.241138,1.078666,99,99,0,0,0,0,0
0,9999,59,0,59,0,40,9999,0.100000,99,99,0.000000,0,1.000000,22.141252,8.120371,99,99,0,0,0,0,0
0,9999,60,0,60,0,40,9999,0.100000,99,99,0.000000,0,1.000000,29.568597,2.151128,99,99,0,0,0,0,0
0,9999,61,0,61,0,2,9999,0.100000,99,99,0.000328,0,5.000000,21.923926,10.815786,99,99,0,0,0,0,1
0,9999,62,0,62,0,40,9999,0.100000,99,99,0.000000,0,1.000000,21.350771,3.461289,99,99,0,0,0,0,0
0,9999,63,0,63,0,40,9999,0.100000,99,99,0.000000,0,2.000000,19.183681,5.285933,99,99,0,0,0,0,0
0,9999,64,0,64,0,41,9999,0.100000,99,99,0.000000,0,2.000000,18.910668,12.761934,99,99,0,0,0,0,0
0,9999,65,0,65,0,0,9999,0.100000,99,99,0.240660,0,0.000000,26.420110,1.287833,99,99,0,0,0,1,0
0,9999,66,0,66,0,0,9999,0.100000,99,99,0.958364,0,2.000000,25.861904,3.451745,99,99,0,1,0,0,0
0,9999,67,0,67,0,40,9999,0.100000,99,99,0.000000,0,0.000000,32.192341,14.176230,99,99,0,0,0,0,0
0,9999,68,0,68,0,40,9999,0.100000,99,99,0.000000,0,0.000000,28.738463,0.549755,99,99,0,0,0,0,0
0,9999,69,0,69,0,0,9999,0.100000,99,99,0.095502,0,0.000000,23.066752,0.377682,99,99,0,0,0,0,1
0,9999,70,0,70,0,41,9999,0.100000,99,99,0.000000,0,5.000000,27.557335,7.325568,99,99,0,0,0,0,0
0,9999,71,0,71,0,42,9999,0.100000,99,99,0.000000,0,4.000000,14.346263,15.843067,99,99,0,0,0,0,0
0,9999,72,0,72,0,41,9999,0.100000,99,99,0.000000,0,5.000000,28.361373,15.160267,99,99,0,0,0,0,0
0,9999,73,0,73,0,41,9999,0.100000,99,99,0.000000,0,5.000000,28.322118,14.084265,99,99,0,0,0,0,0
0,9999,74,0,74,0,0,9999,0.100000,99,99,0.000971,0,2.000000,23.600000,9.247823,99,99,0,0,0,0,1
0,9999,75,0,75,0,40,9999,0.100000,99,99,0.000000,0,0.000000,27.552493,0.597096,99,99,0,0,0,0,0
0,9999,76,0,76,0,0,9999,0.100000,99,99,1.987098,0,1.000000,27.622996,2.508774,99,99,0,0,1,0,0
0,9999,77,0,77,0,40,9999,0.100000,99,99,0.000000,0,2.000000,26.814577,6.718948,99,99,0,0,0,0,0
0,9999,78,0,78,0,41,9999,0.100000,99,99,0.000000,0,3.000000,25.255163,13.301702,99,99,0,0,0,0,0
0,9999,79,0,79,0,0,9999,0.100000,99,99,0.000000,0,2.000000,26.324828,7.171115,99,99,0,1,0,0,0
0,9999,80,0,80,0,40,9999,0.100000,99,99,0.000000,0,0.000000,20.272780,7.712987,99,99,0,0,0,0,0
0,9999,81,0,81,0,90,9999,0.100000,99,99,5.882192,0,1.000000,33.693248,7.293605,99,99,1,0,0,0,0
0,9999,82,0,82,0,40,9999,0.100000,99,99,0.000000,0,1.000000,25.227935,5.819063,99,99,0,0,0,0,0
0,9999,83,0,83,0,40,9999,0.100000,99,99,0.000000,0,1.000000,17.496666,5.883497,99,99,0,0,0,0,0
0,9999,84,0,84,0,40,9999,0.100000,99,99,0.000000,0,0.000000,27.139720,1.911903,99,99,0,0,0,0,0
0,9999,85,0,85,0,40,9999,0.100000,99,99,0.000000,0,1.000000,12.039608,3.269707,99,99,0,0,0,0,0
0,9999,86,0,86,0,90,9999,0.100000,99,99,17.340394,0,1.000000,22.656224,10.652560,99,99,1,0,0,0,0
0,9999,87,0,87,0,1,9999,0.100000,99,99,5.324980,0,2.000000,18.778383,3.432907,99,99,0,0,0,1,0
0,9999,88,0,88,0,40,9999,0.100000,99,99,0.000000,0,0.000000,31.526031,3.238771,99,99,0,0,0,0,0
0,9999,89,0,89,0,0,9999,0.100000,99,99,1.172259,0,2.000000,23.078226,6.056703,99,99,0,1,0,0,0
0,9999,90,0,90,0,42,9999,0.100000,99,99,0.000000,0,7.000000,23.230646,13.545019,99,99,0,0,0,0,0
0,9999,91,0,91,0,43,9999,0.100000,99,99,42.625985,0,9.000000,27.172362,19.636478,99,99,0,1,1,0,0
0,9999,92,0,92,0,40,9999,0.100000,99,99,0.000000,0,2.000000,20.741508,11.116473,99,99,0,0,0,0,0
0,9999,93,0,93,0,40,9999,0.100000,99,99,0.000000,0,0.000000,24.458907,6.113846,99,99,0,0,0,0,0
0,9999,94,0,94,0,41,9999,0.100000,99,99,0.000000,0,4.000000,26.818145,13.994044,99,99,0,0,0,0,0
0,9999,95,0,95,0,40,9999,0.100000,99,99,0.000000,0,1.000000,20.568822,6.706684,99,99,0,0,0,0,0
0,9999,96,0,96,0,2,9999,0.100000,99,99,43.807414,0,7.000000,27.351081,12.994073,99,99,0,1,0,0,0
0,9999,97,0,97,0,40,9999,0.100000,99,99,0.000000,0,1.000000,24.046352,6.528944,99,99,0,0,0,0,0
0,9999,98,0,98,0,41,9999,0.100000,99,99,0.000000,0,3.000000,26.479381,11.864623,99,99,0,0,0,0,0
0,9999,99,0,99,0,0,9999,0.100000,99,99,0.187123,0,1.000000,19.330059,1.424416,99,99,0,0,0,1,0
1,19999,0,10000,26,0,40,9999,0.100000,99,198,0.000000,1,1.000000,22.824631,8.264372,99,99,0,0,0,0,0
1,19999,1,10000,26,0,0,9999,0.100000,99,198,0.010199,1,0.000000,20.840606,0.140097,99,99,0,0,1,0,0
1,19999,2,10000,26,0,0,9999,0.100000,99,198,1.115581,1,0.000000,27.910104,0.954449,99,99,0,0,0,0,1
1,19999,3,10000,26,0,40,9999,0.100000,99,198,0.000000,1,2.000000,27.159835,4.636873,99,99,0,0,0,0,0
1,19999,4,10000,26,0,40,9999,0.100000,99,198,0.000000,1,0.000000,28.777395,4.496748,99,99,0,0,0,0,0
1,19999,5,10000,26,0,40,9999,0.100000,99,198,0.000000,1,0.000000,22.676413,2.290239,99,99,0,0,0,0,0
1,19999,6,10000,26,0,41,9999,0.100000,99,198,0.000000,1,2.000000,13.854331,8.725346,99,99,0,0,0,0,0
1,19999,7,10000,26,0,41,9999,0.100000,99,198,0.000000,1,5.000000,26.155196,14.599543,99,99,0,0,0,0,0
1,19999,8,10000,26,0,1,9999,0.100000,99,198,0.176773,1,3.000000,17.513020,8.963265,99,99,0,0,0,0,1
1,19999,9,10000,26,0,40,9999,0.100000,99,198,0.000000,1,0.000000,17.022124,3.997713,99,99,0,0,0,0,0
1,19999,10,10000,26,0,0,9999,0.100000,99,198,0.846295,1,0.000000,21.566217,0.581941,99,99,0,1,0,0,0
1,19999,11,10000,26,0,40,9999,0.100000,99,198,0.000000,1,0.000000,17.452328,3.157404,99,99,0,0,0,0,0
1,19999,12,10000,26,0,0,9999,0.100000,99,198,0.002406,1,0.000000,28.286029,0.110008,99,99,0,0,0,1,0
1,19999,13,10000,26,0,40,9999,0.100000,99,198,0.000000,1,0.000000,22.298828,1.002274,99,99,0,0,0,0,0
1,19999,14,10000,26,0,0,9999,0.100000,99,198,0.847376,1,1.000000,32.817551,5.261947,99,99,0,0,1,0,0
1,19999,15,10000,26,0,40,9999,0.100000,99,198,0.000000,1,1.000000,30.176114,5.571561,99,99,0,0,0,0,0
1,19999,16,10000,26,0,0,9999,0.100000,99,198,0.027421,1,0.000000,16.078869,0.235998,99,99,0,0,0,1,0
1,19999,17,10000,26,0,40,9999,0.100000,99,198,0.000000,1,0.000000,21.621735,0.762738,99,99,0,0,0,0,0
1,19999,18,10000,26,0,0,9999,0.100000,99,198,0.016971,1,0.000000,23.627741,0.148144,99,99,0,0,1,0,0
1,19999,19,10000,26,0,40,9999,0.100000,99,198,0.000000,1,0.000000,16.750825,0.417903,99,99,0,0,0,0,0
1,19999,20,10000,26,0,40,9999,0.100000,99,198,0.000000,1,2.000000,30.444480,7.239958,99,99,0,0,0,0,0
1,19999,21,10000,26,0,40,9999,0.100000,99,198,0.000000,1,1.000000,26.896802,6.388890,99,99,0,0,0,0,0
1,19999,22,10000,26,0,40,9999,0.100000,99,198,0.000000,1,0.000000,28.988523,0.771287,99,99,0,0,0,0,0
1,19999,23,10000,26,0,0,9999,0.100000,99,198,1.173650,1,0.000000,17.413156,0.175299,99,99,0,0,0,1,0
1,19999,24,10000,26,0,40,9999,0.100000,99,198,0.000000,1,0.000000,30.674253,1.460488,99,99,0,0,0,0,0
1,19999,25,10000,26,0,0,9999,0.100000,99,198,0.000049,1,0.000000,29.079203,0.203154,99,99,0,0,0,0,1
1,19999,26,10000,14,0,40,9999,0.100000,99,198,0.000000,1,0.000000,31.132016,10.813614,99,99,0,0,0,0,0
1,19999,27,10000,26,0,40,9999,0.100000,99,198,0.000000,1,0.000000,19.106330,0.213657,99,99,0,0,0,0,0
1,19999,28,10000,26,0,44,9999,0.100000,99,198,0.000000,1,10.000000,19.947899,15.776817,99,99,0,0,0,0,0
1,19999,29,10000,26,0,0,9999,0.100000,99,198,0.306939,1,0.000000,32.832049,0.109255,99,99,0,0,0,0,1
1,19999,30,10000,26,0,0,9999,0.100000,99,198,0.127570,1,0.000000,26.647860,1.084191,99,99,0,0,0,0,1
1,19999,31,10000,26,0,40,9999,0.100000,99,198,0.000000,1,0.000000,29.891720,1.491821,99,99,0,0,0,0,0
1,19999,32,10000,26,0,40,9999,0.100000,99,198,0.000000,1,0.000000,28.720551,0.064868,99,99,0,0,0,0,0
1,19999,33,10000,26,0,0,9999,0.100000,99,198,0.206497,1,0.000000,30.601640,0.570178,99,99,0,0,0,0,1
1,19999,34,10000,26,0,40,9999,0.100000,99,198,0.000000,1,0.000000,22.400409,6.335543,99,99,0,0,0,0,0
1,19999,35,10000,26,0,41,9999,0.100000,99,198,0.000000,1,2.000000,17.813308,14.525265,99,99,0,0,0,0,0
1,19999,36,10000,26,0,40,9999,0.100000,99,198,0.000000,1,1.000000,15.331572,6.712538,99,99,0,0,0,0,0
1,19999,37,10000,26,0,40,9999,0.100000,99,198,0.000000,1,2.000000,33.136765,17.037873,99,99,0,0,0,0,0
1,19999,38,10000,26,0,0,9999,0.100000,99,198,0.011195,1,0.000000,12.156038,2.601616,99,99,0,0,0,1,0
1,19999,39,10000,26,0,40,9999,0.100000,99,198,0.000000,1,0.000000,16.707235,1.637870,99,99,0,0,0,0,0
1,19999,40,10000,26,0,40,9999,0.100000,99,198,0.000000,1,0.000000,20.675536,1.786936,99,99,0,0,0,0,0
1,19999,41,10000,26,0,1,9999,0.100000,99,198,0.052156,1,6.000000,33.623528,13.174055,99,99,0,0,1,0,0
1,19999,42,10000,26,0,0,9999,0.100000,99,198,16.312803,1,2.000000,24.653713,11.751968,99,99,0,1,0,0,0
1,19999,43,10000,26,0,40,9999,0.100000,99,198,0.000000,1,0.000000,16.745451,1.103801,99,99,0,0,0,0,0
1,19999,44,10000,26,0,40,9999,0.100000,99,198,0.000000,1,1.000000,33.024738,2.083431,99,99,0,0,0,0,0
1,19999,45,10000,26,0,40,9999,0.100000,99,198,0.000000,1,0.000000,23.494926,4.050983,99,99,0,0,0,0,0
1,19999,46,10000,26,0,40,9999,0.100000,99,198,0.000000,1,0.000000,20.210464,0.520546,99,99,0,0,0,0,0
1,19999,47,10000,26,0,40,9999,0.100000,99,198,0.000000,1,2.000000,29.145660,6.737910,99,99,0,0,0,0,0
1,19999,48,10000,26,0,40,9999,0.100000,99,198,0.000000,1,2.000000,20.863245,10.661874,99,99,0,0,0,0,0
1,19999,49,10000,26,0,40,9999,0.100000,99,198,0.000000,1,3.000000,30.053277,7.400455,99,99,0,0,0,0,0
1,19999,50,10000,26,0,41,9999,0.100000,99,198,0.000000,1,2.000000,16.975816,11.198277,99,99,0,0,0,0,0
1,19999,51,10000,26,0,40,9999,0.100000,99,198,0.000000,1,0.000000,28.973790,0.636535,99,99,0,0,0,0,0
1,19999,52,10000,26,0,3,9999,0.100000,99,198,51.242111,1,10.000000,26.611141,20.079215,99,99,0,1,0,0,0
1,19999,53,10000,26,0,0,9999,0.100000,99,198,2.648328,1,2.000000,25.617153,13.339340,99,99,0,1,0,0,0
1,19999,54,10000,26,0,3,9999,0.100000,99,198,51.237364,1,9.000000,26.592450,17.689150,99,99,0,1,0,0,0
1,19999,55,10000,26,0,40,9999,0.100000,99,198,0.000000,1,0.000000,35.491151,2.931809,99,99,0,0,0,0,0
1,19999,56,10000,26,0,40,9999,0.100000,99,198,0.000000,1,0.000000,24.428433,3.926441,99,99,0,0,0,0,0
1,19999,57,10000,26,0,40,9999,0.100000,99,198,0.000000,1,0.000000,20.627509,0.149024,99,99,0,0,0,0,0
1,19999,58,10000,26,0,40,9999,0.100000,99,198,0.000000,1,0.000000,23.888145,1.522487,99,99,0,0,0,0,0
1,19999,59,10000,26,0,40,9999,0.100000,99,198,0.000000,1,0.000000,23.544418,5.572313,99,99,0,0,0,0,0
1,19999,60,10000,26,0,40,9999,0.100000,99,198,0.000000,1,0.000000,30.772642,0.882716,99,99,0,0,0,0,0
1,19999,61,10000,26,0,40,9999,0.100000,99,198,0.000000,1,0.000000,26.793884,0.120978,99,99,0,0,0,0,0
1,19999,62,10000,26,0,0,9999,0.100000,99,198,0.006292,1,1.000000,21.132663,2.983267,99,99,0,0,1,0,0
1,19999,63,10000,26,0,40,9999,0.100000,99,198,0.000000,1,0.000000,20.463680,0.634124,99,99,0,0,0,0,0
1,19999,64,10000,26,0,40,9999,0.100000,99,198,0.000000,1,0.000000,16.834488,0.868264,99,99,0,0,0,0,0
1,19999,65,10000,26,0,0,9999,0.100000,99,198,0.000004,1,1.000000,26.225829,2.159526,99,99,0,0,0,1,0
1,19999,66,10000,26,0,40,9999,0.100000,99,198,0.000000,1,0.000000,23.522493,1.332981,99,99,0,0,0,0,0
1,19999,67,10000,26,0,40,9999,0.100000,99,198,0.000000,1,1.000000,32.322897,5.192312,99,99,0,0,0,0,0
1,19999,68,10000,26,0,40,9999,0.100000,99,198,0.000000,1,0.000000,28.721541,0.180732,99,99,0,0,0,0,0
1,19999,69,10000,26,0,0,9999,0.100000,99,198,1.207489,1,0.000000,23.138244,0.431297,99,99,0,0,0,0,1
1,19999,70,10000,26,0,0,9999,0.100000,99,198,0.003298,1,0.000000,33.004636,0.517819,99,99,0,0,0,1,0
1,19999,71,10000,26,0,40,9999,0.100000,99,198,0.000000,1,0.000000,17.649562,10.276443,99,99,0,0,0,0,0
1,19999,72,10000,26,0,40,9999,0.100000,99,198,0.000000,1,2.000000,24.912852,23.222086,99,99,0,0,0,0,0
1,19999,73,10000,26,0,40,9999,0.100000,99,198,0.000000,1,0.000000,26.335818,7.665404,99,99,0,0,0,0,0
1,19999,74,10000,26,0,0,9999,0.100000,99,198,0.002548,1,0.000000,26.479133,0.074273,99,99,0,0,0,0,1
1,19999,75,10000,26,0,40,9999,0.100000,99,198,0.000000,1,1.000000,27.965134,2.755752,99,99,0,0,0,0,0
1,19999,76,10000,26,0,0,9999,0.100000,99,198,2.434845,1,0.000000,27.836837,0.425825,99,99,0,0,1,0,0
1,19999,77,10000,26,0,40,9999,0.100000,99,198,0.000000,1,0.000000,25.275828,3.149792,99,99,0,0,0,0,0
1,19999,78,10000,26,0,40,9999,0.100000,99,198,0.000000,1,2.000000,27.709634,10.717461,99,99,0,0,0,0,0
1,19999,79,10000,26,0,40,9999,0.100000,99,198,0.000000,1,2.000000,28.316758,4.343846,99,99,0,0,0,0,0
1,19999,80,10000,26,0,40,9999,0.100000,99,198,0.000000,1,1.000000,19.450892,18.639752,99,99,0,0,0,0,0
1,19999,81,10000,26,0,40,9999,0.100000,99,198,0.000000,1,0.000000,35.301456,6.346433,99,99,0,0,0,0,0
1,19999,82,10000,26,0,45,9999,0.100000,99,198,0.000000,1,14.000000,26.599126,15.660425,99,99,0,0,0,0,0
1,19999,83,10000,26,0,40,9999,0.100000,99,198,0.000000,1,0.000000,17.211007,10.690437,99,99,0,0,0,0,0
1,19999,84,10000,26,0,40,9999,0.100000,99,198,0.000000,1,0.000000,27.687723,0.287845,99,99,0,0,0,0,0
1,19999,85,10000,26,0,40,9999,0.100000,99,198,0.000000,1,0.000000,13.102332,0.172450,99,99,0,0,0,0,0
1,19999,86,10000,26,0,90,9999,0.100000,99,198,0.311639,1,0.000000,23.408955,5.532207,99,99,1,0,0,0,0
1,19999,87,10000,26,0,40,9999,0.100000,99,198,0.000000,1,0.000000,17.324049,1.385009,99,99,0,0,0,0,0
1,19999,88,10000,26,0,40,9999,0.100000,99,198,0.000000,1,0.000000,31.913485,0.922292,99,99,0,0,0,0,0
1,19999,89,10000,26,0,0,9999,0.100000,99,198,7.759410,1,1.000000,25.054321,3.733108,99,99,0,1,0,0,0
1,19999,90,10000,26,0,40,9999,0.100000,99,198,0.000000,1,0.000000,27.993134,0.637063,99,99,0,0,0,0,0
1,19999,91,10000,26,0,40,9999,0.100000,99,198,0.000000,1,0.000000,32.857178,1.576236,99,99,0,0,0,0,0
1,19999,92,10000,26,0,0,9999,0.100000,99,198,0.006712,1,0.000000,20.427080,0.122314,99,99,0,0,0,1,0
1,19999,93,10000,26,0,40,9999,0.100000,99,198,0.000000,1,0.000000,25.107766,2.552282,99,99,0,0,0,0,0
1,19999,94,10000,26,0,40,9999,0.100000,99,198,0.000000,1,1.000000,24.969837,16.901696,99,99,0,0,0,0,0
1,19999,95,10000,26,0,41,9999,0.100000,99,198,0.000000,1,3.000000,22.421560,11.325929,99,99,0,0,0,0,0
1,19999,96,10000,26,0,40,9999,0.100000,99,198,0.000000,1,1.000000,33.291356,3.364872,99,99,0,0,0,0,0
1,19999,97,10000,26,0,40,9999,0.100000,99,198,0.000000,1,1.000000,23.824854,8.625031,99,99,0,0,0,0,0
1,19999,98,10000,26,0,41,9999,0.100000,99,198,0.000000,1,4.000000,29.153062,9.694094,99,99,0,0,0,0,0
1,19999,99,10000,26,0,40,9999,0.100000,99,198,0.000000,1,0.000000,20.323557,0.066048,99,99,0,0,0,0,0
2,29999,0,20000,52,10000,40,9999,0.100000,99,297,0.000000,1,0.000000,22.309253,11.899633,99,99,0,0,0,0,0
2,29999,1,20000,52,10000,0,9999,0.100000,99,297,0.023498,1,0.000000,20.839855,0.197162,99,99,0,0,1,0,0
2,29999,2,20000,52,10000,0,9999,0.100000,99,297,1.591653,1,0.000000,28.015574,0.950295,99,99,0,0,0,0,1
2,29999,3,20000,52,10000,40,9999,0.100000,99,297,0.000000,2,0.000000,24.536690,5.176516,99,99,0,0,0,0,0
2,29999,4,20000,52,10000,40,9999,0.100000,99,297,0.000000,2,2.000000,27.886346,13.183976,99,99,0,0,0,0,0
2,29999,5,20000,52,10000,40,9999,0.100000,99,297,0.000000,2,0.000000,22.185547,1.004382,99,99,0,0,0,0,0
2,29999,6,20000,52,10000,40,9999,0.100000,99,297,0.000000,2,0.000000,16.337174,0.310659,99,99,0,0,0,0,0
2,29999,7,20000,52,10000,41,9999,0.100000,99,297,0.000000,2,4.000000,28.800109,6.759126,99,99,0,0,0,0,0
2,29999,8,20000,52,10000,0,9999,0.100000,99,297,0.109493,2,0.000000,19.899281,0.113694,99,99,0,0,0,0,1
2,29999,9,20000,52,10000,40,9999,0.100000,99,297,0.000000,1,0.000000,17.590056,6.842712,99,99,0,0,0,0,0
2,29999,10,20000,52,10000,0,9999,0.100000,99,297,1.530843,1,0.000000,21.367731,0.516405,99,99,0,1,0,0,0
2,29999,11,20000,52,10000,0,9999,0.100000,99,297,0.405590,2,0.000000,17.224286,2.498603,99,99,0,0,0,1,0
2,29999,12,20000,52,10000,0,9999,0.100000,99,297,0.011608,1,0.000000,28.282942,0.418716,99,99,0,0,0,1,0
2,29999,13,20000,52,10000,40,9999,0.100000,99,297,0.000000,1,0.000000,21.538301,0.937524,99,99,0,0,0,0,0
2,29999,14,20000,52,10000,0,9999,0.100000,99,297,1.150197,2,0.000000,32.394964,0.833337,99,99,0,0,1,0,0
2,29999,15,20000,52,10000,40,9999,0.100000,99,297,0.000000,2,3.000000,29.521804,7.517211,99,99,0,0,0,0,0
2,29999,16,20000,52,10000,0,9999,0.100000,99,297,0.015529,1,0.000000,16.137050,0.223050,99,99,0,0,0,1,0
2,29999,17,20000,52,10000,40,9999,0.100000,99,297,0.000000,2,0.000000,21.297047,0.690480,99,99,0,0,0,0,0
2,29999,18,20000,52,10000,0,9999,0.100000,99,297,0.014216,1,0.000000,23.626560,0.147153,99,99,0,0,1,0,0
2,29999,19,20000,52,10000,40,9999,0.100000,99,297,0.000000,2,0.000000,16.708600,0.626202,99,99,0,0,0,0,0
2,29999,20,20000,52,10000,40,9999,0.100000,99,297,0.000000,1,1.000000,30.756629,6.194956,99,99,0,0,0,0,0
2,29999,21,20000,52,10000,40,9999,0.100000,99,297,0.000000,1,1.000000,27.894591,5.984258,99,99,0,0,0,0,0
2,29999,22,20000,52,10000,40,9999,0.100000,99,297,0.000000,1,0.000000,29.093848,0.896148,99,99,0,0,0,0,0
2,29999,23,20000,52,10000,0,9999,0.100000,99,297,1.306641,1,0.000000,17.344375,0.207262,99,99,0,0,0,1,0
2,29999,24,20000,52,10000,40,9999,0.100000,99,297,0.000000,1,0.000000,31.102746,1.164276,99,99,0,0,0,0,0
2,29999,25,20000,52,10000,0,9999,0.100000,99,297,0.000221,1,0.000000,29.078526,0.205003,99,99,0,0,0,0,1
2,29999,26,20000,52,10000,40,9999,0.100000,99,297,0.000000,2,0.000000,31.480541,8.578606,99,99,0,0,0,0,0
2,29999,27,20000,52,10000,40,9999,0.100000,99,297,0.000000,1,0.000000,19.042833,0.219075,99,99,0,0,0,0,0
2,29999,28,20000,52,10000,40,9999,0.100000,99,297,0.000000,2,1.000000,28.896781,4.684158,99,99,0,0,0,0,0
2,29999,29,20000,52,10000,0,9999,0.100000,99,297,0.228138,1,0.000000,32.864834,0.101677,99,99,0,0,0,0,1
2,29999,30,20000,52,10000,0,9999,0.100000,99,297,0.260363,2,0.000000,26.922391,0.301915,99,99,0,0,0,0,1
2,29999,31,20000,52,10000,40,9999,0.100000,99,297,0.000000,1,0.000000,30.216434,0.462849,99,99,0,0,0,0,0
2,29999,32,20000,52,10000,40,9999,0.100000,99,297,0.000000,1,0.000000,28.719660,0.064694,99,99,0,0,0,0,0
2,29999,33,20000,52,10000,0,9999,0.100000,99,297,0.098348,1,0.000000,30.984568,0.556018,99,99,0,0,0,0,1
2,29999,34,20000,52,10000,40,9999,0.100000,99,297,0.000000,1,2.000000,21.756886,10.653655,99,99,0,0,0,0,0
2,29999,35,20000,52,10000,41,9999,0.100000,99,297,0.000000,2,3.000000,20.131118,12.292881,99,99,0,0,0,0,0
2,29999,36,20000,52,10000,0,9999,0.100000,99,297,0.005566,2,0.000000,15.276640,3.165157,99,99,0,0,0,0,1
2,29999,37,20000,52,10000,40,9999,0.100000,99,297,0.000000,2,3.000000,31.782214,25.111409,99,99,0,0,0,0,0
2,29999,38,20000,52,10000,0,9999,0.100000,99,297,0.364074,2,0.000000,12.587517,0.291395,99,99,0,0,0,1,0
2,29999,39,20000,52,10000,40,9999,0.100000,99,297,0.000000,2,0.000000,16.634354,0.189419,99,99,0,0,0,0,0
2,29999,40,20000,52,10000,40,9999,0.100000,99,297,0.000000,1,0.000000,20.506598,0.769002,99,99,0,0,0,0,0
2,29999,41,20000,52,10000,0,9999,0.100000,99,297,1.074991,2,0.000000,34.206003,0.443638,99,99,0,0,1,0,0
2,29999,42,20000,52,10000,0,9999,0.100000,99,297,7.970372,2,1.000000,25.556257,2.534534,99,99,0,1,0,0,0
2,29999,43,20000,52,10000,40,9999,0.100000,99,297,0.000000,1,0.000000,16.910478,0.192315,99,99,0,0,0,0,0
2,29999,44,20000,52,10000,40,9999,0.135000,99,297,0.000000,2,0.000000,32.673823,0.944812,99,99,0,0,0,0,0
2,29999,45,20000,52,10000,40,9999,0.100000,99,297,0.000000,1,0.000000,23.413888,4.221737,99,99,0,0,0,0,0
2,29999,46,20000,52,10000,40,9999,0.100000,99,297,0.000000,2,0.000000,20.059495,0.678964,99,99,0,0,0,0,0
2,29999,47,20000,52,10000,41,9999,0.100000,99,297,0.000000,2,3.000000,28.071809,9.923352,99,99,0,0,0,0,0
2,29999,48,20000,52,10000,40,9999,0.100000,99,297,0.000000,1,2.000000,21.798590,15.846927,99,99,0,0,0,0,0
2,29999,49,20000,52,10000,40,9999,0.100000,99,297,0.000000,1,1.000000,28.774390,4.376727,99,99,0,0,0,0,0
2,29999,50,20000,52,10000,42,9999,0.100000,99,297,0.000000,1,4.000000,18.768394,8.919042,99,99,0,0,0,0,0
2,29999,51,20000,52,10000,40,9999,0.100000,99,297,0.000000,1,0.000000,29.079813,0.736165,99,99,0,0,0,0,0
2,29999,52,20000,54,10000,40,9999,0.100000,99,297,0.000000,2,1.000000,31.519862,11.302908,99,99,0,0,0,0,0
2,29999,53,20000,52,10000,1,9999,0.100000,99,297,26.060015,2,5.000000,24.019702,8.869639,99,99,0,1,0,0,0
2,29999,54,20000,52,10000,90,9999,0.100000,99,297,16.412698,2,3.000000,30.936082,11.803829,99,99,1,0,0,0,0
2,29999,55,20000,52,10000,40,9999,0.100000,99,297,0.000000,1,1.000000,35.822903,6.022671,99,99,0,0,0,0,0
2,29999,56,20000,52,10000,40,9999,0.100000,99,297,0.000000,1,2.000000,24.045921,5.792327,99,99,0,0,0,0,0
2,29999,57,20000,52,10000,40,9999,0.100000,99,297,0.000000,1,0.000000,20.625401,0.996321,99,99,0,0,0,0,0
2,29999,58,20000,52,10000,0,9999,0.100000,99,297,0.196217,1,0.000000,23.680246,0.498694,99,99,0,0,0,0,1
2,29999,59,20000,52,10000,40,9999,0.100000,99,297,0.000000,1,2.000000,24.367446,4.117591,99,99,0,0,0,0,0
2,29999,60,20000,52,10000,40,9999,0.100000,99,297,0.000000,1,0.000000,31.160650,0.776654,99,99,0,0,0,0,0
2,29999,61,20000,52,10000,40,9999,0.100000,99,297,0.000000,2,0.000000,26.771081,0.273094,99,99,0,0,0,0,0
2,29999,62,20000,52,10000,0,9999,0.100000,99,297,0.001932,2,0.000000,19.303217,0.176734,99,99,0,0,1,0,0
2,29999,63,20000,52,10000,40,9999,0.100000,99,297,0.000000,1,0.000000,20.579156,0.571509,99,99,0,0,0,0,0
2,29999,64,20000,52,10000,42,9999,0.100000,99,297,0.000000,2,4.000000,16.349526,6.187632,99,99,0,0,0,0,0
2,29999,65,20000,52,10000,0,9999,0.100000,99,297,0.000294,1,0.000000,25.316234,0.064213,99,99,0,0,0,1,0
2,29999,66,20000,52,10000,2,9999,0.100000,99,297,26.060015,2,5.000000,23.741645,9.867975,99,99,0,1,0,0,0
2,29999,67,20000,52,10000,40,9999,0.100000,99,297,0.000000,1,0.000000,31.751252,5.613099,99,99,0,0,0,0,0
2,29999,68,20000,52,10000,40,9999,0.100000,99,297,0.000000,1,0.000000,28.719014,0.326958,99,99,0,0,0,0,0
2,29999,69,20000,52,10000,40,9999,0.100000,99,297,0.000000,1,0.000000,23.243434,0.329626,99,99,0,0,0,0,0
2,29999,70,20000,52,10000,0,9999,0.100000,99,297,0.289990,2,2.000000,32.872161,5.568055,99,99,0,0,0,1,0
2,29999,71,20000,52,10000,41,9999,0.100000,99,297,0.000000,2,2.000000,18.116533,9.155692,99,99,0,0,0,0,0
2,29999,72,20000,52,10000,40,9999,0.100000,99,297,0.000000,2,1.000000,25.917796,19.153250,99,99,0,0,0,0,0
2,29999,73,20000,52,10000,1,9999,0.100000,99,297,9.214460,2,4.000000,26.595070,23.073438,99,99,0,1,0,0,0
2,29999,74,20000,52,10000,0,9999,0.100000,99,297,0.280842,1,0.000000,26.479105,0.182011,99,99,0,0,0,0,1
2,29999,75,20000,52,10000,40,9999,0.100000,99,297,0.000000,1,0.000000,27.937063,1.561885,99,99,0,0,0,0,0
2,29999,76,20000,52,10000,40,9999,0.100000,99,297,0.000000,1,0.000000,27.455461,0.416246,99,99,0,0,0,0,0
2,29999,77,20000,52,10000,41,9999,0.100000,99,297,0.000000,1,3.000000,25.678468,6.880519,99,99,0,0,0,0,0
2,29999,78,20000,52,10000,40,9999,0.100000,99,297,0.000000,2,1.000000,26.048432,11.280628,99,99,0,0,0,0,0
2,29999,79,20000,52,10000,40,9999,0.100000,99,297,0.000000,2,2.000000,26.289475,8.402526,99,99,0,0,0,0,0
2,29999,80,20000,52,10000,40,9999,0.100000,99,297,0.000000,1,0.000000,19.553420,23.787484,99,99,0,0,0,0,0
2,29999,81,20000,52,10000,40,9999,0.100000,99,297,0.000000,2,2.000000,35.347932,7.782182,99,99,0,0,0,0,0
2,29999,82,20000,52,10000,40,9999,0.100000,99,297,0.000000,2,0.000000,13.235417,0.827388,99,99,0,0,0,0,0
2,29999,83,20000,52,10000,40,9999,0.100000,99,297,0.000000,1,0.000000,17.842107,14.355853,99,99,0,0,0,0,0
2,29999,84,20000,52,10000,0,9999,0.100000,99,297,1.212524,1,0.000000,27.449442,0.432454,99,99,0,0,1,0,0
2,29999,85,20000,52,10000,40,9999,0.100000,99,297,0.000000,1,0.000000,13.098235,0.338300,99,99,0,0,0,0,0
2,29999,86,20000,52,10000,92,9999,0.100000,99,297,36.794649,1,7.000000,22.910181,11.655123,99,99,1,0,0,0,0
2,29999,87,20000,52,10000,40,9999,0.100000,99,297,0.000000,2,0.000000,17.147748,1.061231,99,99,0,0,0,0,0
2,29999,88,20000,52,10000,40,9999,0.100000,99,297,0.000000,1,0.000000,32.214197,4.170341,99,99,0,0,0,0,0
2,29999,89,20000,52,10000,40,9999,0.100000,99,297,0.000000,1,2.000000,26.488374,5.798249,99,99,0,0,0,0,0
2,29999,90,20000,52,10000,40,9999,0.100000,99,297,0.000000,2,0.000000,27.442048,0.785130,99,99,0,0,0,0,0
2,29999,91,20000,52,10000,40,9999,0.100000,99,297,0.000000,2,0.000000,32.925500,0.820424,99,99,0,0,0,0,0
2,29999,92,20000,52,10000,0,9999,0.100000,99,297,0.004081,2,0.000000,20.427540,0.155641,99,99,0,0,0,1,0
2,29999,93,20000,52,10000,40,9999,0.100000,99,297,0.000000,1,0.000000,25.099403,0.165047,99,99,0,0,0,0,0
2,29999,94,20000,52,10000,41,9999,0.100000,99,297,0.000000,2,3.000000,24.140645,13.867785,99,99,0,0,0,0,0
2,29999,95,20000,52,10000,40,9999,0.100000,99,297,0.000000,2,1.000000,22.337910,15.036682,99,99,0,0,0,0,0
2,29999,96,20000,52,10000,40,9999,0.100000,99,297,0.000000,2,0.000000,32.886507,0.975784,99,99,0,0,0,0,0
2,29999,97,20000,52,10000,40,9999,0.100000,99,297,0.000000,1,1.000000,25.345706,2.442164,99,99,0,0,0,0,0
2,29999,98,20000,52,10000,40,9999,0.100000,99,297,0.000000,2,1.000000,26.312258,12.295566,99,99,0,0,0,0,0
2,29999,99,20000,52,10000,40,9999,0.100000,99,297,0.000000,2,0.000000,20.323559,0.090984,99,99,0,0,0,0,0
3,39999,0,30000,86,20000,40,9999,0.100000,99,396,0.000000,1,0.000000,21.986288,5.572002,99,99,0,0,0,0,0
3,39999,1,30000,86,20000,0,9999,0.100000,99,396,0.009388,1,0.000000,20.834736,0.147428,99,99,0,0,1,0,0
3,39999,2,30000,86,20000,0,9999,0.100000,99,396,1.409090,1,0.000000,28.164445,0.524648,99,99,0,0,0,0,1
3,39999,3,30000,86,20000,40,9999,0.100000,99,396,0.000000,2,2.000000,24.854125,4.305532,99,99,0,0,0,0,0
3,39999,4,30000,86,20000,40,9999,0.100000,99,396,0.000000,2,1.000000,26.417726,5.844638,99,99,0,0,0,0,0
3,39999,5,30000,86,20000,40,9999,0.100000,99,396,0.000000,2,0.000000,21.426138,0.940536,99,99,0,0,0,0,0
3,39999,6,30000,86,20000,40,9999,0.100000,99,396,0.000000,2,0.000000,16.338376,0.318236,99,99,0,0,0,0,0
3,39999,7,30000,86,20000,40,9999,0.100000,99,396,0.000000,2,3.000000,32.837829,4.774634,99,99,0,0,0,0,0
3,39999,8,30000,86,20000,0,9999,0.100000,99,396,1.294775,3,0.000000,19.849472,0.638823,99,99,0,0,0,0,1
3,39999,9,30000,86,20000,40,9999,0.100000,99,396,0.000000,1,0.000000,17.566962,5.028138,99,99,0,0,0,0,0
3,39999,10,30000,86,20000,0,9999,0.100000,99,396,1.669245,1,0.000000,21.566720,0.542427,99,99,0,1,0,0,0
3,39999,11,30000,86,20000,0,9999,0.100000,99,396,1.579717,3,0.000000,16.770640,0.366008,99,99,0,0,0,1,0
3,39999,12,30000,86,20000,0,9999,0.100000,99,396,0.011674,1,0.000000,28.350750,0.109885,99,99,0,0,0,1,0
3,39999,13,30000,86,20000,40,9999,0.100000,99,396,0.000000,1,0.000000,20.826309,0.919201,99,99,0,0,0,0,0
3,39999,14,30000,86,20000,0,9999,0.100000,99,396,0.388375,2,0.000000,32.557217,0.645462,99,99,0,0,1,0,0
3,39999,15,30000,86,20000,40,9999,0.100000,99,396,0.000000,2,2.000000,29.163595,8.594087,99,99,0,0,0,0,0
3,39999,16,30000,86,20000,0,9999,0.100000,99,396,0.160734,1,0.000000,16.133094,0.210071,99,99,0,0,0,1,0
3,39999,17,30000,86,20000,40,9999,0.100000,99,396,0.000000,2,0.000000,21.478662,0.719298,99,99,0,0,0,0,0
3,39999,18,30000,86,20000,0,9999,0.100000,99,396,0.015429,1,0.000000,23.624672,0.142279,99,99,0,0,1,0,0
3,39999,19,30000,86,20000,40,9999,0.100000,99,396,0.000000,2,0.000000,16.519114,0.544190,99,99,0,0,0,0,0
3,39999,20,30000,86,20000,40,9999,0.100000,99,396,0.000000,1,2.000000,29.283157,8.708366,99,99,0,0,0,0,0
3,39999,21,30000,86,20000,40,9999,0.100000,99,396,0.000000,1,0.000000,27.019985,7.734910,99,99,0,0,0,0,0
3,39999,22,30000,86,20000,40,9999,0.100000,99,396,0.000000,1,0.000000,29.192729,9.256820,99,99,0,0,0,0,0
3,39999,23,30000,86,20000,40,9999,0.100000,99,396,0.000000,1,0.000000,17.249651,1.329982,99,99,0,0,0,0,0
3,39999,24,30000,86,20000,40,9999,0.100000,99,396,0.000000,1,0.000000,31.407583,1.720309,99,99,0,0,0,0,0
3,39999,25,30000,86,20000,0,9999,0.100000,99,396,0.000589,1,0.000000,29.077911,0.203606,99,99,0,0,0,0,1
3,39999,26,30000,86,20000,40,9999,0.100000,99,396,0.000000,2,0.000000,31.804394,8.487889,99,99,0,0,0,0,0
3,39999,27,30000,86,20000,40,9999,0.100000,99,396,0.000000,1,0.000000,18.970509,0.232015,99,99,0,0,0,0,0
3,39999,28,30000,86,20000,43,9999,0.100000,99,396,0.000000,3,12.000000,29.985145,16.237503,99,99,0,0,0,0,0
3,39999,29,30000,86,20000,0,9999,0.100000,99,396,0.812851,1,0.000000,32.900859,0.194894,99,99,0,0,0,0,1
3,39999,30,30000,86,20000,0,9999,0.100000,99,396,0.395704,2,0.000000,26.950441,0.352479,99,99,0,0,0,0,1
3,39999,31,30000,86,20000,40,9999,0.100000,99,396,0.000000,1,0.000000,30.482574,0.574315,99,99,0,0,0,0,0
3,39999,32,30000,86,20000,40,9999,0.100000,99,396,0.000000,1,0.000000,28.718850,0.064894,99,99,0,0,0,0,0
3,39999,33,30000,86,20000,0,9999,0.100000,99,396,0.466934,1,0.000000,31.274263,0.711897,99,99,0,0,0,0,1
3,39999,34,30000,86,20000,41,9999,0.100000,99,396,0.000000,1,3.000000,19.850806,8.273806,99,99,0,0,0,0,0
3,39999,35,30000,86,20000,40,9999,0.100000,99,396,0.000000,2,0.000000,20.083281,2.593462,99,99,0,0,0,0,0
3,39999,36,30000,86,20000,0,9999,0.100000,99,396,0.000831,3,0.000000,14.705257,0.077289,99,99,0,0,0,0,1
3,39999,37,30000,86,20000,0,9999,0.100000,99,396,2.485009,2,1.000000,29.447830,4.319283,99,99,0,1,0,0,0
3,39999,38,30000,86,20000,0,9999,0.100000,99,396,0.378501,2,0.000000,12.480360,0.233332,99,99,0,0,0,1,0
3,39999,39,30000,86,20000,40,9999,0.100000,99,396,0.000000,2,0.000000,16.624310,0.197450,99,99,0,0,0,0,0
3,39999,40,30000,86,20000,40,9999,0.100000,99,396,0.000000,1,0.000000,20.491887,1.458609,99,99,0,0,0,0,0
3,39999,41,30000,86,20000,0,9999,0.100000,99,396,1.164774,2,0.000000,34.323765,0.449101,99,99,0,0,1,0,0
3,39999,42,30000,86,20000,1,9999,0.100000,99,396,22.626691,2,4.000000,26.778005,6.419373,99,99,0,1,0,0,0
3,39999,43,30000,86,20000,40,9999,0.100000,99,396,0.000000,1,0.000000,16.898689,0.223928,99,99,0,0,0,0,0
3,39999,44,30000,86,20000,40,9999,0.100000,99,396,0.000000,2,0.000000,32.832891,0.719643,99,99,0,0,0,0,0
3,39999,45,30000,86,20000,41,9999,0.135000,99,396,0.000000,1,3.000000,24.077271,9.097029,99,99,0,0,0,0,0
3,39999,46,30000,86,20000,40,9999,0.100000,99,396,0.000000,2,0.000000,20.020431,0.737561,99,99,0,0,0,0,0
3,39999,47,30000,86,20000,40,9999,0.100000,99,396,0.000000,3,1.000000,24.902347,7.457478,99,99,0,0,0,0,0
3,39999,48,30000,86,20000,40,9999,0.100000,99,396,0.000000,1,0.000000,21.572865,8.834440,99,99,0,0,0,0,0
3,39999,49,30000,86,20000,40,9999,0.100000,99,396,0.000000,1,1.000000,30.195698,3.721768,99,99,0,0,0,0,0
3,39999,50,30000,86,20000,40,9999,0.100000,99,396,0.000000,2,0.000000,17.469175,3.863299,99,99,0,0,0,0,0
3,39999,51,30000,86,20000,40,9999,0.100000,99,396,0.000000,1,0.000000,29.173144,0.742018,99,99,0,0,0,0,0
3,39999,52,30000,86,20000,40,9999,0.100000,99,396,0.000000,3,2.000000,30.581756,11.286289,99,99,0,0,0,0,0
3,39999,53,30000,86,20000,40,9999,0.100000,99,396,0.000000,3,0.000000,28.443276,5.539369,99,99,0,0,0,0,0
3,39999,54,30000,86,20000,40,9999,0.100000,99,396,0.000000,3,0.000000,32.301175,4.517214,99,99,0,0,0,0,0
3,39999,55,30000,86,20000,40,9999,0.100000,99,396,0.000000,1,0.000000,34.184117,0.435569,99,99,0,0,0,0,0
3,39999,56,30000,86,20000,40,9999,0.100000,99,396,0.000000,1,0.000000,25.529009,3.984730,99,99,0,0,0,0,0
3,39999,57,30000,86,20000,40,9999,0.100000,99,396,0.000000,1,0.000000,20.619279,0.145906,99,99,0,0,0,0,0
3,39999,58,30000,86,20000,0,9999,0.100000,99,396,0.000203,2,0.000000,23.793994,0.099399,99,99,0,0,0,0,1
3,39999,59,30000,86,20000,40,9999,0.100000,99,396,0.000000,1,0.000000,25.133917,5.139202,99,99,0,0,0,0,0
3,39999,60,30000,86,20000,40,9999,0.100000,99,396,0.000000,1,0.000000,31.457038,0.926399,99,99,0,0,0,0,0
3,39999,61,30000,86,20000,40,9999,0.100000,99,396,0.000000,2,0.000000,26.739973,0.389959,99,99,0,0,0,0,0
3,39999,62,30000,86,20000,0,9999,0.100000,99,396,0.003245,2,0.000000,19.312784,0.177342,99,99,0,0,1,0,0
3,39999,63,30000,86,20000,40,9999,0.100000,99,396,0.000000,1,0.000000,20.571452,2.729919,99,99,0,0,0,0,0
3,39999,64,30000,86,20000,41,9999,0.100000,99,396,0.000000,3,2.000000,16.034716,3.844963,99,99,0,0,0,0,0
3,39999,65,30000,86,20000,0,9999,0.100000,99,396,0.000018,1,0.000000,25.316234,0.063969,99,99,0,0,0,1,0
3,39999,66,30000,86,20000,40,9999,0.100000,99,396,0.000000,3,2.000000,28.112457,9.255515,99,99,0,0,0,0,0
3,39999,67,30000,86,20000,0,9999,0.100000,99,396,0.082641,1,1.000000,31.298963,2.328640,99,99,0,0,1,0,0
3,39999,68,30000,86,20000,40,9999,0.100000,99,396,0.000000,1,0.000000,28.754767,0.185922,99,99,0,0,0,0,0
3,39999,69,30000,86,20000,40,9999,0.100000,99,396,0.000000,2,0.000000,23.384895,0.092723,99,99,0,0,0,0,0
3,39999,70,30000,86,20000,0,9999,0.100000,99,396,0.037204,2,0.000000,33.001558,0.482812,99,99,0,0,0,1,0
3,39999,71,30000,86,20000,40,9999,0.100000,99,396,0.000000,2,0.000000,20.547550,8.571864,99,99,0,0,0,0,0
3,39999,72,30000,86,20000,40,9999,0.100000,99,396,0.000000,2,1.000000,24.750473,9.666718,99,99,0,0,0,0,0
3,39999,73,30000,86,20000,1,9999,0.100000,99,396,20.643681,3,4.000000,28.740756,4.376359,99,99,0,1,0,0,0
3,39999,74,30000,86,20000,0,9999,0.100000,99,396,0.936449,1,0.000000,26.574840,0.599548,99,99,0,0,0,0,1
3,39999,75,30000,86,20000,40,9999,0.100000,99,396,0.000000,1,0.000000,28.149529,1.286933,99,99,0,0,0,0,0
3,39999,76,30000,86,20000,40,9999,0.100000,99,396,0.000000,2,0.000000,27.240460,0.321969,99,99,0,0,0,0,0
3,39999,77,30000,86,20000,40,9999,0.100000,99,396,0.000000,1,1.000000,28.608796,21.754727,99,99,0,0,0,0,0
3,39999,78,30000,86,20000,40,9999,0.100000,99,396,0.000000,2,1.000000,26.727612,14.992497,99,99,0,0,0,0,0
3,39999,79,30000,86,20000,40,9999,0.100000,99,396,0.000000,2,0.000000,26.813312,0.503117,99,99,0,0,0,0,0
3,39999,80,30000,86,20000,40,9999,0.100000,99,396,0.000000,1,0.000000,19.454365,23.728504,99,99,0,0,0,0,0
3,39999,81,30000,86,20000,40,9999,0.100000,99,396,0.000000,2,1.000000,33.810046,8.433829,99,99,0,0,0,0,0
3,39999,82,30000,86,20000,40,9999,0.100000,99,396,0.000000,2,0.000000,13.125570,0.846690,99,99,0,0,0,0,0
3,39999,83,30000,86,20000,40,9999,0.100000,99,396,0.000000,1,0.000000,17.699100,6.781276,99,99,0,0,0,0,0
3,39999,84,30000,86,20000,0,9999,0.100000,99,396,0.714143,2,0.000000,27.496249,0.226583,99,99,0,0,1,0,0
3,39999,85,30000,86,20000,40,9999,0.100000,99,396,0.000000,1,0.000000,12.988523,0.549938,99,99,0,0,0,0,0
3,39999,86,30000,66,20000,90,9999,0.100000,99,396,0.203362,2,0.000000,27.059588,1.384159,99,99,1,0,0,0,0
3,39999,87,30000,86,20000,40,9999,0.100000,99,396,0.000000,2,0.000000,16.937862,0.343479,99,99,0,0,0,0,0
3,39999,88,30000,86,20000,40,9999,0.100000,99,396,0.000000,1,0.000000,31.837285,4.852832,99,99,0,0,0,0,0
3,39999,89,30000,86,20000,41,9999,0.100000,99,396,0.000000,2,4.000000,28.496730,4.226896,99,99,0,0,0,0,0
3,39999,90,30000,86,20000,40,9999,0.100000,99,396,0.000000,2,0.000000,26.920927,0.615642,99,99,0,0,0,0,0
3,39999,91,30000,86,20000,40,9999,0.100000,99,396,0.000000,2,0.000000,33.084744,0.565512,99,99,0,0,0,0,0
3,39999,92,30000,86,20000,0,9999,0.100000,99,396,0.002609,2,0.000000,20.429530,0.134557,99,99,0,0,0,1,0
3,39999,93,30000,86,20000,40,9999,0.100000,99,396,0.000000,1,0.000000,25.099217,0.166199,99,99,0,0,0,0,0
3,39999,94,30000,86,20000,40,9999,0.100000,99,396,0.000000,2,2.000000,22.200336,8.230166,99,99,0,0,0,0,0
3,39999,95,30000,86,20000,40,9999,0.100000,99,396,0.000000,2,0.000000,21.492066,7.165048,99,99,0,0,0,0,0
3,39999,96,30000,86,20000,40,9999,0.100000,99,396,0.000000,2,0.000000,33.041387,0.782247,99,99,0,0,0,0,0
3,39999,97,30000,86,20000,1,9999,0.100000,99,396,22.625891,1,4.000000,26.603857,6.257413,99,99,0,1,0,0,0
3,39999,98,30000,86,20000,40,9999,0.100000,99,396,0.000000,2,0.000000,25.565436,7.256313,99,99,0,0,0,0,0
3,39999,99,30000,86,20000,40,9999,0.100000,99,396,0.000000,2,0.000000,20.321459,0.093906,99,99,0,0,0,0,0
4,49999,0,40000,42,30000,40,9999,0.100000,99,495,0.000000,1,2.000000,22.036660,13.036797,99,99,0,0,0,0,0
4,49999,1,40000,42,30000,3,9999,0.100000,99,495,39.083732,1,7.000000,20.834022,10.631424,99,99,0,0,1,0,0
4,49999,2,40000,42,30000,0,9999,0.100000,99,495,1.680027,1,0.000000,28.103555,0.520350,99,99,0,0,0,0,1
4,49999,3,40000,42,30000,40,9999,0.100000,99,495,0.000000,2,0.000000,22.448495,4.645547,99,99,0,0,0,0,0
4,49999,4,40000,42,30000,40,9999,0.100000,99,495,0.000000,2,0.000000,26.870489,5.268324,99,99,0,0,0,0,0
4,49999,5,40000,42,30000,40,9999,0.100000,99,495,0.000000,2,0.000000,20.725635,0.939867,99,99,0,0,0,0,0
4,49999,6,40000,42,30000,0,9999,0.100000,99,495,0.306060,2,0.000000,16.416851,0.667288,99,99,0,0,0,1,0
4,49999,7,40000,42,30000,40,9999,0.100000,99,495,0.000000,2,0.000000,31.867080,1.125512,99,99,0,0,0,0,0
4,49999,8,40000,42,30000,0,9999,0.100000,99,495,1.416612,3,0.000000,19.478479,0.886383,99,99,0,0,0,0,1
4,49999,9,40000,42,30000,40,9999,0.100000,99,495,0.000000,1,0.000000,17.599557,10.753900,99,99,0,0,0,0,0
4,49999,10,40000,42,30000,0,9999,0.100000,99,495,1.754404,1,0.000000,21.812496,0.523832,99,99,0,1,0,0,0
4,49999,11,40000,42,30000,0,9999,0.100000,99,495,0.623197,3,0.000000,16.766956,0.179256,99,99,0,0,0,1,0
4,49999,12,40000,42,30000,0,9999,0.100000,99,495,0.020208,1,0.000000,28.353844,0.175521,99,99,0,0,0,1,0
4,49999,13,40000,42,30000,40,9999,0.100000,99,495,0.000000,1,1.000000,20.158225,3.660390,99,99,0,0,0,0,0
4,49999,14,40000,42,30000,0,9999,0.100000,99,495,0.501946,2,0.000000,32.648706,0.724991,99,99,0,0,1,0,0
4,49999,15,40000,42,30000,40,9999,0.100000,99,495,0.000000,2,1.000000,29.776824,4.091236,99,99,0,0,0,0,0
4,49999,16,40000,42,30000,40,9999,0.100000,99,495,0.000000,1,0.000000,16.183984,0.766583,99,99,0,0,0,0,0
4,49999,17,40000,42,30000,40,9999,0.100000,99,495,0.000000,2,0.000000,21.716884,0.705095,99,99,0,0,0,0,0
4,49999,18,40000,42,30000,0,9999,0.100000,99,495,0.012618,1,0.000000,23.622892,0.140928,99,99,0,0,1,0,0
4,49999,19,40000,42,30000,40,9999,0.100000,99,495,0.000000,2,0.000000,16.442796,0.315475,99,99,0,0,0,0,0
4,49999,20,40000,42,30000,40,9999,0.100000,99,495,0.000000,1,1.000000,30.767356,7.969598,99,99,0,0,0,0,0
4,49999,21,40000,42,30000,40,9999,0.065000,99,495,0.000000,1,0.000000,26.880110,8.830344,99,99,0,0,0,0,0
4,49999,22,40000,42,30000,40,9999,0.100000,99,495,0.000000,1,0.000000,29.019521,0.833486,99,99,0,0,0,0,0
4,49999,23,40000,42,30000,40,9999,0.100000,99,495,0.000000,2,0.000000,16.910763,0.363194,99,99,0,0,0,0,0
4,49999,24,40000,42,30000,40,9999,0.100000,99,495,0.000000,1,0.000000,31.720213,2.110114,99,99,0,0,0,0,0
4,49999,25,40000,42,30000,0,9999,0.100000,99,495,0.483437,1,0.000000,29.076926,0.172053,99,99,0,0,0,0,1
4,49999,26,40000,42,30000,40,9999,0.100000,99,495,0.000000,2,0.000000,32.129025,8.216143,99,99,0,0,0,0,0
4,49999,27,40000,42,30000,40,9999,0.100000,99,495,0.000000,1,0.000000,18.875264,0.212699,99,99,0,0,0,0,0
4,49999,28,40000,42,30000,40,9999,0.100000,99,495,0.000000,4,0.000000,19.797387,2.549904,99,99,0,0,0,0,0
4,49999,29,40000,42,30000,0,9999,0.100000,99,495,0.004524,1,0.000000,32.984862,0.077565,99,99,0,0,0,0,1
4,49999,30,40000,42,30000,0,9999,0.100000,99,495,0.153551,2,0.000000,27.147142,0.142573,99,99,0,0,0,0,1
4,49999,31,40000,42,30000,40,9999,0.100000,99,495,0.000000,1,0.000000,30.775171,0.767732,99,99,0,0,0,0,0
4,49999,32,40000,42,30000,40,9999,0.100000,99,495,0.000000,1,0.000000,28.717504,0.118478,99,99,0,0,0,0,0
4,49999,33,40000,42,30000,0,9999,0.100000,99,495,1.679812,1,0.000000,31.589667,0.843992,99,99,0,0,0,0,1
4,49999,34,40000,42,30000,41,9999,0.100000,99,495,0.000000,2,4.000000,19.868914,12.623436,99,99,0,0,0,0,0
4,49999,35,40000,42,30000,40,9999,0.100000,99,495,0.000000,2,0.000000,19.624775,1.676221,99,99,0,0,0,0,0
4,49999,36,40000,42,30000,0,9999,0.100000,99,495,0.114739,3,0.000000,14.706194,0.086815,99,99,0,0,0,0,1
4,49999,37,40000,42,30000,0,9999,0.100000,99,495,0.009688,3,0.000000,29.361964,0.175790,99,99,0,1,0,0,0
4,49999,38,40000,42,30000,0,9999,0.100000,99,495,0.989337,2,0.000000,12.465923,0.434837,99,99,0,0,0,1,0
4,49999,39,40000,42,30000,40,9999,0.100000,99,495,0.000000,2,0.000000,16.665403,0.811541,99,99,0,0,0,0,0
4,49999,40,40000,42,30000,40,9999,0.100000,99,495,0.000000,1,0.000000,19.970244,0.784728,99,99,0,0,0,0,0
4,49999,41,40000,42,30000,0,9999,0.100000,99,495,1.043019,2,0.000000,34.386938,0.414473,99,99,0,0,1,0,0
4,49999,42,40000,97,30000,40,9999,0.100000,99,495,0.000000,3,2.000000,31.133280,9.907632,99,99,0,0,0,0,0
4,49999,43,40000,42,30000,40,9999,0.100000,99,495,0.000000,1,0.000000,16.936605,1.192032,99,99,0,0,0,0,0
4,49999,44,40000,42,30000,40,9999,0.100000,99,495,0.000000,2,0.000000,32.920618,0.812778,99,99,0,0,0,0,0
4,49999,45,40000,42,30000,3,9999,0.100000,99,495,39.048303,2,7.000000,21.028112,11.872745,99,99,0,0,1,0,0
4,49999,46,40000,42,30000,40,9999,0.100000,99,495,0.000000,2,0.000000,19.653173,0.913940,99,99,0,0,0,0,0
4,49999,47,40000,42,30000,40,9999,0.100000,99,495,0.000000,3,0.000000,26.152005,10.148015,99,99,0,0,0,0,0
4,49999,48,40000,42,30000,40,9999,0.100000,99,495,0.000000,1,0.000000,21.559993,9.608228,99,99,0,0,0,0,0
4,49999,49,40000,42,30000,40,9999,0.100000,99,495,0.000000,1,0.000000,31.452060,1.479587,99,99,0,0,0,0,0
4,49999,50,40000,42,30000,40,9999,0.100000,99,495,0.000000,3,0.000000,16.757602,3.741757,99,99,0,0,0,0,0
4,49999,51,40000,42,30000,40,9999,0.100000,99,495,0.000000,1,0.000000,29.069243,0.696681,99,99,0,0,0,0,0
4,49999,52,40000,42,30000,40,9999,0.100000,99,495,0.000000,3,0.000000,29.709828,1.964764,99,99,0,0,0,0,0
4,49999,53,40000,42,30000,40,9999,0.100000,99,495,0.000000,4,0.000000,27.677888,12.076749,99,99,0,0,0,0,0
4,49999,54,40000,42,30000,40,9999,0.100000,99,495,0.000000,3,0.000000,32.735823,9.339195,99,99,0,0,0,0,0
4,49999,55,40000,42,30000,41,9999,0.100000,99,495,0.000000,1,6.000000,34.247362,13.445159,99,99,0,0,0,0,0
4,49999,56,40000,42,30000,40,9999,0.100000,99,495,0.000000,1,1.000000,26.032923,8.798828,99,99,0,0,0,0,0
4,49999,57,40000,42,30000,3,9999,0.100000,99,495,39.078129,1,7.000000,20.617398,11.998526,99,99,0,0,1,0,0
4,49999,58,40000,42,30000,0,9999,0.100000,99,495,0.005554,2,0.000000,23.784461,0.091937,99,99,0,0,0,0,1
4,49999,59,40000,42,30000,41,9999,0.100000,99,495,0.000000,1,5.000000,25.546662,10.556843,99,99,0,0,0,0,0
4,49999,60,40000,42,30000,40,9999,0.100000,99,495,0.000000,1,0.000000,31.779644,0.893940,99,99,0,0,0,0,0
4,49999,61,40000,42,30000,40,9999,0.100000,99,495,0.000000,2,0.000000,26.876224,0.127056,99,99,0,0,0,0,0
4,49999,62,40000,42,30000,0,9999,0.100000,99,495,0.001702,2,0.000000,19.321543,0.170898,99,99,0,0,1,0,0
4,49999,63,40000,42,30000,40,9999,0.100000,99,495,0.000000,1,0.000000,20.116698,2.759750,99,99,0,0,0,0,0
4,49999,64,40000,42,30000,41,9999,0.100000,99,495,0.000000,3,3.000000,15.893285,4.499284,99,99,0,0,0,0,0
4,49999,65,40000,42,30000,0,9999,0.100000,99,495,0.002636,1,0.000000,25.316285,1.625397,99,99,0,0,0,1,0
4,49999,66,40000,42,30000,40,9999,0.100000,99,495,0.000000,3,2.000000,25.788888,14.190258,99,99,0,0,0,0,0
4,49999,67,40000,42,30000,0,9999,0.100000,99,495,0.096961,2,0.000000,31.369193,0.158680,99,99,0,0,1,0,0
4,49999,68,40000,42,30000,40,9999,0.100000,99,495,0.000000,1,0.000000,28.761672,0.194327,99,99,0,0,0,0,0
4,49999,69,40000,42,30000,40,9999,0.100000,99,495,0.000000,2,0.000000,23.383828,0.082985,99,99,0,0,0,0,0
4,49999,70,40000,42,30000,0,9999,0.100000,99,495,0.038261,2,2.000000,33.107512,5.705460,99,99,0,0,0,1,0
4,49999,71,40000,42,30000,40,9999,0.100000,99,495,0.000000,2,0.000000,20.182732,0.757538,99,99,0,0,0,0,0
4,49999,72,40000,42,30000,40,9999,0.100000,99,495,0.000000,2,1.000000,26.222007,5.106493,99,99,0,0,0,0,0
4,49999,73,40000,42,30000,0,9999,0.100000,99,495,13.189612,3,2.000000,30.364484,5.004634,99,99,0,1,0,0,0
4,49999,74,40000,42,30000,0,9999,0.100000,99,495,0.051251,1,0.000000,26.857233,1.631560,99,99,0,0,0,0,1
4,49999,75,40000,42,30000,40,9999,0.100000,99,495,0.000000,1,0.000000,28.319298,0.644110,99,99,0,0,0,0,0
4,49999,76,40000,42,30000,40,9999,0.100000,99,495,0.000000,2,0.000000,27.033867,0.137499,99,99,0,0,0,0,0
4,49999,77,40000,42,30000,40,9999,0.100000,99,495,0.000000,1,0.000000,28.135518,1.710865,99,99,0,0,0,0,0
4,49999,78,40000,42,30000,41,9999,0.100000,99,495,0.000000,2,4.000000,26.055105,20.038779,99,99,0,0,0,0,0
4,49999,79,40000,42,30000,40,9999,0.100000,99,495,0.000000,2,0.000000,27.007045,0.284807,99,99,0,0,0,0,0
4,49999,80,40000,42,30000,40,9999,0.100000,99,495,0.000000,1,0.000000,19.006578,22.394078,99,99,0,0,0,0,0
4,49999,81,40000,42,30000,40,9999,0.100000,99,495,0.000000,2,0.000000,33.108440,5.574996,99,99,0,0,0,0,0
4,49999,82,40000,42,30000,40,9999,0.100000,99,495,0.000000,2,1.000000,13.031000,3.826857,99,99,0,0,0,0,0
4,49999,83,40000,42,30000,41,9999,0.100000,99,495,0.000000,1,3.000000,17.575747,15.218460,99,99,0,0,0,0,0
4,49999,84,40000,42,30000,0,9999,0.100000,99,495,0.571760,2,0.000000,27.334619,0.132559,99,99,0,0,1,0,0
4,49999,85,40000,42,30000,40,9999,0.100000,99,495,0.000000,1,0.000000,12.974671,1.360378,99,99,0,0,0,0,0
4,49999,86,40000,42,30000,40,9999,0.100000,99,495,0.000000,2,0.000000,27.204481,3.045895,99,99,0,0,0,0,0
4,49999,87,40000,42,30000,40,9999,0.100000,99,495,0.000000,2,0.000000,16.990012,0.176218,99,99,0,0,0,0,0
4,49999,88,40000,42,30000,40,9999,0.100000,99,495,0.000000,1,1.000000,30.948657,5.561258,99,99,0,0,0,0,0
4,49999,89,40000,42,30000,40,9999,0.100000,99,495,0.000000,3,2.000000,30.140929,5.163812,99,99,0,0,0,0,0
4,49999,90,40000,42,30000,40,9999,0.100000,99,495,0.000000,2,0.000000,26.668502,0.248443,99,99,0,0,0,0,0
4,49999,91,40000,42,30000,40,9999,0.100000,99,495,0.000000,2,0.000000,33.173399,0.698183,99,99,0,0,0,0,0
4,49999,92,40000,42,30000,40,9999,0.100000,99,495,0.000000,2,0.000000,20.435826,0.156272,99,99,0,0,0,0,0
4,49999,93,40000,42,30000,40,9999,0.100000,99,495,0.000000,1,0.000000,25.099129,0.162315,99,99,0,0,0,0,0
4,49999,94,40000,42,30000,40,9999,0.100000,99,495,0.000000,2,1.000000,20.774477,14.522963,99,99,0,0,0,0,0
4,49999,95,40000,42,30000,40,9999,0.100000,99,495,0.000000,2,0.000000,21.999779,12.932368,99,99,0,0,0,0,0
4,49999,96,40000,42,30000,40,9999,0.100000,99,495,0.000000,2,0.000000,33.127627,0.815999,99,99,0,0,0,0,0
4,49999,97,40000,42,30000,40,9999,0.100000,99,495,0.000000,2,2.000000,30.872524,6.301782,99,99,0,0,0,0,0
4,49999,98,40000,42,30000,40,9999,0.100000,99,495,0.000000,2,1.000000,25.782789,7.683095,99,99,0,0,0,0,0
4,49999,99,40000,42,30000,0,9999,0.135000,99,495,0.004309,2,0.000000,20.321148,0.086762,99,99,0,0,0,1,0
5,59999,0,50000,1,40000,40,9999,0.100000,99,594,0.000000,1,2.000000,22.060695,11.785665,99,99,0,0,0,0,0
5,59999,1,50000,57,40000,40,9999,0.100000,99,594,0.000000,2,1.000000,27.317986,5.516655,99,99,0,0,0,0,0
5,59999,2,50000,1,40000,0,9999,0.100000,99,594,4.809595,1,2.000000,28.240886,2.399495,99,99,0,0,0,0,1
5,59999,3,50000,1,40000,40,9999,0.100000,99,594,0.000000,2,1.000000,22.915634,8.804888,99,99,0,0,0,0,0
5,59999,4,50000,1,40000,40,9999,0.100000,99,594,0.000000,2,1.000000,27.462905,8.514471,99,99,0,0,0,0,0
5,59999,5,50000,1,40000,40,9999,0.100000,99,594,0.000000,2,1.000000,20.039483,4.064247,99,99,0,0,0,0,0
5,59999,6,50000,1,40000,40,9999,0.100000,99,594,0.000000,3,0.000000,16.102072,0.671776,99,99,0,0,0,0,0
5,59999,7,50000,1,40000,40,9999,0.100000,99,594,0.000000,2,0.000000,31.613848,1.241310,99,99,0,0,0,0,0
5,59999,8,50000,1,40000,40,9999,0.100000,99,594,0.000000,3,0.000000,18.877705,1.103059,99,99,0,0,0,0,0
5,59999,9,50000,1,40000,41,9999,0.100000,99,594,0.000000,1,3.000000,17.497369,18.778360,99,99,0,0,0,0,0
5,59999,10,50000,1,40000,0,9999,0.100000,99,594,1.734291,1,0.000000,22.041700,0.491196,99,99,0,1,0,0,0
5,59999,11,50000,1,40000,0,9999,0.100000,99,594,0.403536,3,0.000000,16.766664,0.365511,99,99,0,0,0,1,0
5,59999,12,50000,1,40000,40,9999,0.100000,99,594,0.000000,1,0.000000,28.361575,0.447017,99,99,0,0,0,0,0
5,59999,13,50000,1,40000,40,9999,0.100000,99,594,0.000000,1,1.000000,21.120530,7.872146,99,99,0,0,0,0,0
5,59999,14,50000,1,40000,0,9999,0.100000,99,594,0.058697,2,0.000000,32.704556,0.711035,99,99,0,0,1,0,0
5,59999,15,50000,1,40000,40,9999,0.100000,99,594,0.000000,2,0.000000,29.391847,7.946517,99,99,0,0,0,0,0
5,59999,16,50000,1,40000,40,9999,0.100000,99,594,0.000000,2,0.000000,15.919003,0.810707,99,99,0,0,0,0,0
5,59999,17,50000,1,40000,40,9999,0.100000,99,594,0.000000,2,0.000000,21.956244,0.631956,99,99,0,0,0,0,0
5,59999,18,50000,1,40000,0,9999,0.100000,99,594,0.013278,1,0.000000,23.620841,0.137903,99,99,0,0,1,0,0
5,59999,19,50000,1,40000,40,9999,0.100000,99,594,0.000000,2,0.000000,16.433795,0.478960,99,99,0,0,0,0,0
5,59999,20,50000,1,40000,40,9999,0.100000,99,594,0.000000,1,1.000000,32.197364,11.137045,99,99,0,0,0,0,0
5,59999,21,50000,1,40000,0,9999,0.100000,99,594,0.005657,1,1.000000,27.388945,5.168781,99,99,0,0,1,0,0
5,59999,22,50000,1,40000,40,9999,0.100000,99,594,0.000000,1,2.000000,29.013044,14.255263,99,99,0,0,0,0,0
5,59999,23,50000,1,40000,40,9999,0.100000,99,594,0.000000,2,0.000000,17.021382,0.495541,99,99,0,0,0,0,0
5,59999,24,50000,1,40000,40,9999,0.100000,99,594,0.000000,1,1.000000,31.907838,1.598288,99,99,0,0,0,0,0
5,59999,25,50000,1,40000,0,9999,0.100000,99,594,0.745374,1,0.000000,28.979264,0.191369,99,99,0,0,0,0,1
5,59999,26,50000,1,40000,40,9999,0.100000,99,594,0.000000,2,1.000000,31.824722,3.125944,99,99,0,0,0,0,0
5,59999,27,50000,1,40000,40,9999,0.100000,99,594,0.000000,1,0.000000,18.808784,0.213823,99,99,0,0,0,0,0
5,59999,28,50000,1,40000,40,9999,0.100000,99,594,0.000000,4,0.000000,19.248111,2.442531,99,99,0,0,0,0,0
5,59999,29,50000,1,40000,0,9999,0.100000,99,594,0.001179,1,3.000000,32.985254,7.419450,99,99,0,0,0,0,1
5,59999,30,50000,1,40000,40,9999,0.100000,99,594,0.000000,2,0.000000,27.195156,0.175989,99,99,0,0,0,0,0
5,59999,31,50000,1,40000,40,9999,0.100000,99,594,0.000000,1,0.000000,30.908425,0.985662,99,99,0,0,0,0,0
5,59999,32,50000,1,40000,40,9999,0.100000,99,594,0.000000,1,0.000000,28.643563,0.125986,99,99,0,0,0,0,0
5,59999,33,50000,1,40000,0,9999,0.100000,99,594,3.435245,1,1.000000,31.725415,1.145070,99,99,0,0,0,0,1
5,59999,34,50000,1,40000,40,9999,0.100000,99,594,0.000000,2,0.000000,21.579652,6.836472,99,99,0,0,0,0,0
5,59999,35,50000,1,40000,40,9999,0.100000,99,594,0.000000,2,0.000000,19.030856,2.679248,99,99,0,0,0,0,0
5,59999,36,50000,1,40000,0,9999,0.100000,99,594,0.534943,3,0.000000,14.714924,0.221499,99,99,0,0,0,0,1
5,59999,37,50000,1,40000,0,9999,0.100000,99,594,0.008505,3,0.000000,29.370490,0.210391,99,99,0,1,0,0,0
5,59999,38,50000,1,40000,0,9999,0.100000,99,594,2.428378,2,1.000000,12.708234,1.192239,99,99,0,0,0,1,0
5,59999,39,50000,1,40000,1,9999,0.100000,99,594,1.775193,2,3.000000,16.287661,8.356655,99,99,0,0,0,1,0
5,59999,40,50000,1,40000,40,9999,0.100000,99,594,0.000000,1,0.000000,19.500556,0.864617,99,99,0,0,0,0,0
5,59999,41,50000,1,40000,0,9999,0.100000,99,594,1.181468,2,0.000000,34.435012,0.428933,99,99,0,0,1,0,0
5,59999,42,50000,1,40000,40,9999,0.100000,99,594,0.000000,4,0.000000,29.139232,1.406707,99,99,0,0,0,0,0
5,59999,43,50000,1,40000,40,9999,0.100000,99,594,0.000000,1,0.000000,16.503526,0.713054,99,99,0,0,0,0,0
5,59999,44,50000,1,40000,40,9999,0.100000,99,594,0.000000,2,0.000000,32.972995,0.708809,99,99,0,0,0,0,0
5,59999,45,50000,1,40000,40,9999,0.100000,99,594,0.000000,3,2.000000,28.028896,7.871990,99,99,0,0,0,0,0
5,59999,46,50000,1,40000,0,9999,0.100000,99,594,0.405595,2,0.000000,19.102718,0.802088,99,99,0,0,0,0,1
5,59999,47,50000,1,40000,40,9999,0.100000,99,594,0.000000,3,0.000000,26.295910,9.017758,99,99,0,0,0,0,0
5,59999,48,50000,1,40000,40,9999,0.100000,99,594,0.000000,1,2.000000,21.187114,13.237006,99,99,0,0,0,0,0
5,59999,49,50000,1,40000,40,9999,0.100000,99,594,0.000000,1,1.000000,31.101535,1.368091,99,99,0,0,0,0,0
5,59999,50,50000,1,40000,40,9999,0.100000,99,594,0.000000,3,0.000000,16.167796,3.486797,99,99,0,0,0,0,0
5,59999,51,50000,1,40000,40,9999,0.100000,99,594,0.000000,1,2.000000,29.051826,2.544370,99,99,0,0,0,0,0
5,59999,52,50000,1,40000,40,9999,0.100000,99,594,0.000000,3,0.000000,29.344241,0.453162,99,99,0,0,0,0,0
5,59999,53,50000,1,40000,40,9999,0.100000,99,594,0.000000,4,1.000000,27.946422,9.829559,99,99,0,0,0,0,0
5,59999,54,50000,1,40000,40,9999,0.100000,99,594,0.000000,3,1.000000,32.608570,22.262211,99,99,0,0,0,0,0
5,59999,55,50000,1,40000,40,9999,0.100000,99,594,0.000000,2,0.000000,34.295128,0.418343,99,99,0,0,0,0,0
5,59999,56,50000,1,40000,40,9999,0.100000,99,594,0.000000,1,1.000000,25.675314,10.989332,99,99,0,0,0,0,0
5,59999,57,50000,1,40000,40,9999,0.100000,99,594,0.000000,2,1.000000,28.159911,8.952994,99,99,0,0,0,0,0
5,59999,58,50000,1,40000,40,9999,0.100000,99,594,0.000000,2,0.000000,23.783533,0.091230,99,99,0,0,0,0,0
5,59999,59,50000,1,40000,40,9999,0.100000,99,594,0.000000,2,1.000000,21.885877,10.905310,99,99,0,0,0,0,0
5,59999,60,50000,1,40000,40,9999,0.100000,99,594,0.000000,1,1.000000,31.915890,1.208329,99,99,0,0,0,0,0
5,59999,61,50000,1,40000,0,9999,0.100000,99,594,0.209021,2,0.000000,26.921680,0.175714,99,99,0,0,0,0,1
5,59999,62,50000,1,40000,0,9999,0.100000,99,594,0.001748,2,0.000000,19.329326,0.167897,99,99,0,0,1,0,0
5,59999,63,50000,1,40000,40,9999,0.100000,99,594,0.000000,1,0.000000,19.650277,3.903810,99,99,0,0,0,0,0
5,59999,64,50000,1,40000,41,9999,0.100000,99,594,0.000000,3,2.000000,12.856156,10.205750,99,99,0,0,0,0,0
5,59999,65,50000,1,40000,40,9999,0.100000,99,594,0.000000,1,0.000000,25.316909,0.094094,99,99,0,0,0,0,0
5,59999,66,50000,1,40000,41,9999,0.100000,99,594,0.000000,3,5.000000,24.863620,24.060367,99,99,0,0,0,0,0
5,59999,67,50000,1,40000,0,9999,0.100000,99,594,0.007557,2,0.000000,31.375508,0.134199,99,99,0,0,1,0,0
5,59999,68,50000,1,40000,40,9999,0.100000,99,594,0.000000,1,0.000000,28.762966,0.415573,99,99,0,0,0,0,0
5,59999,69,50000,1,40000,0,9999,0.100000,99,594,0.003068,2,0.000000,23.383309,0.092316,99,99,0,0,0,0,1
5,59999,70,50000,1,40000,0,9999,0.100000,99,594,0.067416,2,0.000000,33.106321,0.230740,99,99,0,0,0,1,0
5,59999,71,50000,1,40000,40,9999,0.100000,99,594,0.000000,2,0.000000,19.771137,0.836231,99,99,0,0,0,0,0
5,59999,72,50000,1,40000,40,9999,0.100000,99,594,0.000000,2,1.000000,26.702009,17.120547,99,99,0,0,0,0,0
5,59999,73,50000,1,40000,40,9999,0.100000,99,594,0.000000,4,0.000000,32.052621,1.300611,99,99,0,0,0,0,0
5,59999,74,50000,1,40000,40,9999,0.100000,99,594,0.000000,1,0.000000,26.892447,0.706908,99,99,0,0,0,0,0
5,59999,75,50000,1,40000,40,9999,0.100000,99,594,0.000000,1,2.000000,28.427423,2.406841,99,99,0,0,0,0,0
5,59999,76,50000,1,40000,0,9999,0.100000,99,594,0.937821,2,0.000000,27.066863,0.210202,99,99,0,0,1,0,0
5,59999,77,50000,1,40000,40,9999,0.100000,99,594,0.000000,1,2.000000,28.498579,3.107118,99,99,0,0,0,0,0
5,59999,78,50000,1,40000,41,9999,0.100000,99,594,0.000000,2,3.000000,26.600392,22.686299,99,99,0,0,0,0,0
5,59999,79,50000,1,40000,40,9999,0.100000,99,594,0.000000,2,0.000000,27.139384,1.216607,99,99,0,0,0,0,0
5,59999,80,50000,1,40000,40,9999,0.100000,99,594,0.000000,1,0.000000,18.950155,7.250646,99,99,0,0,0,0,0
5,59999,81,50000,1,40000,0,9999,0.100000,99,594,1.775253,2,0.000000,33.109926,0.860339,99,99,0,0,1,0,0
5,59999,82,50000,1,40000,45,9999,0.100000,99,594,0.000000,2,8.000000,13.180050,36.099512,99,99,0,0,0,0,0
5,59999,83,50000,1,40000,40,9999,0.100000,99,594,0.000000,2,0.000000,19.932347,23.926073,99,99,0,0,0,0,0
5,59999,84,50000,1,40000,40,9999,0.100000,99,594,0.000000,2,0.000000,27.376060,0.176310,99,99,0,0,0,0,0
5,59999,85,50000,1,40000,40,9999,0.100000,99,594,0.000000,1,1.000000,13.216007,1.875754,99,99,0,0,0,0,0
5,59999,86,50000,1,40000,40,9999,0.100000,99,594,0.000000,3,0.000000,26.728469,0.862846,99,99,0,0,0,0,0
5,59999,87,50000,1,40000,40,9999,0.100000,99,594,0.000000,2,0.000000,16.996810,0.525183,99,99,0,0,0,0,0
5,59999,88,50000,1,40000,40,9999,0.100000,99,594,0.000000,1,0.000000,32.031010,6.896723,99,99,0,0,0,0,0
5,59999,89,50000,1,40000,0,9999,0.100000,99,594,1.881675,3,0.000000,31.848144,1.316818,99,99,0,1,0,0,0
5,59999,90,50000,1,40000,40,9999,0.100000,99,594,0.000000,2,0.000000,26.707606,0.269613,99,99,0,0,0,0,0
5,59999,91,50000,1,40000,40,9999,0.100000,99,594,0.000000,2,0.000000,33.224808,0.564780,99,99,0,0,0,0,0
5,59999,92,50000,1,40000,40,9999,0.100000,99,594,0.000000,2,0.000000,20.432182,0.128318,99,99,0,0,0,0,0
5,59999,93,50000,1,40000,0,9999,0.100000,99,594,0.002607,1,0.000000,25.099596,0.106858,99,99,0,0,0,1,0
5,59999,94,50000,1,40000,40,9999,0.100000,99,594,0.000000,2,1.000000,20.698217,17.197389,99,99,0,0,0,0,0
5,59999,95,50000,1,40000,40,9999,0.100000,99,594,0.000000,2,1.000000,21.498041,8.073064,99,99,0,0,0,0,0
5,59999,96,50000,1,40000,40,9999,0.100000,99,594,0.000000,2,0.000000,33.174985,0.759810,99,99,0,0,0,0,0
5,59999,97,50000,1,40000,0,9999,0.100000,99,594,0.757523,2,0.000000,28.995492,0.968621,99,99,0,0,0,1,0
5,59999,98,50000,1,40000,40,9999,0.100000,99,594,0.000000,2,1.000000,26.793627,5.547283,99,99,0,0,0,0,0
5,59999,99,50000,1,40000,0,9999,0.100000,99,594,0.002871,2,0.000000,20.317130,0.090039,99,99,0,0,0,1,0
6,69999,0,60000,2,50000,40,9999,0.100000,99,693,0.000000,1,2.000000,20.461845,15.945154,99,99,0,0,0,0,0
6,69999,1,60000,2,50000,41,9999,0.100000,99,693,0.000000,3,3.000000,26.302935,10.996311,99,99,0,0,0,0,0
6,69999,2,60000,33,50000,0,9999,0.100000,99,693,0.031422,1,0.000000,26.507302,0.386209,99,99,0,0,0,0,1
6,69999,3,60000,2,50000,40,9999,0.100000,99,693,0.000000,2,0.000000,22.097999,1.853963,99,99,0,0,0,0,0
6,69999,4,60000,2,50000,40,9999,0.100000,99,693,0.000000,2,0.000000,26.631324,2.727095,99,99,0,0,0,0,0
6,69999,5,60000,2,50000,40,9999,0.100000,99,693,0.000000,2,0.000000,21.368361,5.606810,99,99,0,0,0,0,0
6,69999,6,60000,2,50000,4,9999,0.100000,99,693,39.055561,3,7.000000,16.450894,8.083068,99,99,0,0,0,1,0
6,69999,7,60000,2,50000,40,9999,0.100000,99,693,0.000000,2,0.000000,31.310714,1.286873,99,99,0,0,0,0,0
6,69999,8,60000,2,50000,0,9999,0.100000,99,693,3.491827,3,1.000000,18.386117,2.293252,99,99,0,0,0,0,1
6,69999,9,60000,2,50000,0,9999,0.100000,99,693,0.037902,2,1.000000,18.432960,5.040796,99,99,0,0,0,0,1
6,69999,10,60000,2,50000,0,9999,0.100000,99,693,1.466854,1,0.000000,22.236093,0.457842,99,99,0,1,0,0,0
6,69999,11,60000,2,50000,0,9999,0.100000,99,693,2.165574,3,0.000000,16.999288,1.305442,99,99,0,0,0,1,0
6,69999,12,60000,2,50000,0,9999,0.100000,99,693,0.356652,2,0.000000,28.391305,0.290108,99,99,0,0,0,1,0
6,69999,13,60000,2,50000,40,9999,0.100000,99,693,0.000000,1,0.000000,21.724909,0.968885,99,99,0,0,0,0,0
6,69999,14,60000,2,50000,0,9999,0.100000,99,693,2.526895,2,0.000000,32.778487,1.439743,99,99,0,0,1,0,0
6,69999,15,60000,2,50000,40,9999,0.100000,99,693,0.000000,2,1.000000,29.679434,15.111467,99,99,0,0,0,0,0
6,69999,16,60000,2,50000,44,9999,0.100000,99,693,0.000000,2,7.000000,16.322593,8.268246,99,99,0,0,0,0,0
6,69999,17,60000,2,50000,40,9999,0.100000,99,693,0.000000,2,0.000000,22.146445,0.609475,99,99,0,0,0,0,0
6,69999,18,60000,2,50000,0,9999,0.100000,99,693,0.011658,1,0.000000,23.619115,0.139963,99,99,0,0,1,0,0
6,69999,19,60000,2,50000,40,9999,0.100000,99,693,0.000000,2,1.000000,16.652437,7.110769,99,99,0,0,0,0,0
6,69999,20,60000,2,50000,40,9999,0.100000,99,693,0.000000,1,0.000000,31.985976,10.883759,99,99,0,0,0,0,0
6,69999,21,60000,2,50000,0,9999,0.100000,99,693,0.010295,2,0.000000,28.634439,0.122837,99,99,0,0,1,0,0
6,69999,22,60000,2,50000,40,9999,0.100000,99,693,0.000000,1,0.000000,27.041895,0.401457,99,99,0,0,0,0,0
6,69999,23,60000,2,50000,40,9999,0.100000,99,693,0.000000,2,0.000000,17.282514,1.981902,99,99,0,0,0,0,0
6,69999,24,60000,2,50000,40,9999,0.100000,99,693,0.000000,1,1.000000,32.037166,2.256514,99,99,0,0,0,0,0
6,69999,25,60000,2,50000,0,9999,0.100000,99,693,0.539447,1,0.000000,28.839654,0.152138,99,99,0,0,0,0,1
6,69999,26,60000,2,50000,40,9999,0.100000,99,693,0.000000,2,1.000000,32.204233,3.518549,99,99,0,0,0,0,0
6,69999,27,60000,2,50000,40,9999,0.100000,99,693,0.000000,1,0.000000,18.740282,2.028939,99,99,0,0,0,0,0
6,69999,28,60000,2,50000,41,9999,0.100000,99,693,0.000000,4,2.000000,18.739551,8.018567,99,99,0,0,0,0,0
6,69999,29,60000,2,50000,0,9999,0.100000,99,693,0.000844,1,0.000000,32.985173,0.076442,99,99,0,0,0,0,1
6,69999,30,60000,2,50000,40,9999,0.100000,99,693,0.000000,2,0.000000,27.256887,0.162962,99,99,0,0,0,0,0
6,69999,31,60000,2,50000,40,9999,0.100000,99,693,0.000000,1,1.000000,31.005776,1.226263,99,99,0,0,0,0,0
6,69999,32,60000,2,50000,40,9999,0.100000,99,693,0.000000,1,0.000000,28.549134,0.107317,99,99,0,0,0,0,0
6,69999,33,60000,2,50000,0,9999,0.100000,99,693,5.961061,1,1.000000,31.832956,1.539897,99,99,0,0,0,0,1
6,69999,34,60000,2,50000,40,9999,0.100000,99,693,0.000000,2,1.000000,22.179558,9.310315,99,99,0,0,0,0,0
6,69999,35,60000,2,50000,40,9999,0.100000,99,693,0.000000,2,1.000000,18.792467,2.610394,99,99,0,0,0,0,0
6,69999,36,60000,2,50000,0,9999,0.100000,99,693,0.058634,3,0.000000,14.901864,0.184461,99,99,0,0,0,0,1
6,69999,37,60000,2,50000,0,9999,0.100000,99,693,0.074881,3,0.000000,29.448844,0.200365,99,99,0,1,0,0,0
6,69999,38,60000,2,50000,0,9999,0.100000,99,693,0.010300,2,0.000000,12.664461,1.105318,99,99,0,0,0,1,0
6,69999,39,60000,2,50000,44,9999,0.100000,99,693,0.000000,3,7.000000,16.583084,7.932139,99,99,0,0,0,0,0
6,69999,40,60000,2,50000,40,9999,0.100000,99,693,0.000000,1,1.000000,19.036863,2.708593,99,99,0,0,0,0,0
6,69999,41,60000,2,50000,0,9999,0.100000,99,693,0.648503,2,0.000000,34.488548,0.275579,99,99,0,0,1,0,0
6,69999,42,60000,2,50000,40,9999,0.100000,99,693,0.000000,4,0.000000,29.077141,1.028565,99,99,0,0,0,0,0
6,69999,43,60000,2,50000,43,9999,0.100000,99,693,0.000000,1,7.000000,16.740123,7.776092,99,99,0,0,0,0,0
6,69999,44,60000,2,50000,40,9999,0.100000,99,693,0.000000,2,0.000000,33.044567,1.667520,99,99,0,0,0,0,0
6,69999,45,60000,2,50000,40,9999,0.100000,99,693,0.000000,3,2.000000,26.079928,11.708935,99,99,0,0,0,0,0
6,69999,46,60000,2,50000,40,9999,0.100000,99,693,0.000000,2,1.000000,18.614527,2.706979,99,99,0,0,0,0,0
6,69999,47,60000,2,50000,40,9999,0.100000,99,693,0.000000,3,1.000000,26.353801,14.106701,99,99,0,0,0,0,0
6,69999,48,60000,2,50000,41,9999,0.100000,99,693,0.000000,1,3.000000,19.288931,18.013816,99,99,0,0,0,0,0
6,69999,49,60000,2,50000,40,9999,0.100000,99,693,0.000000,1,1.000000,30.774797,2.900912,99,99,0,0,0,0,0
6,69999,50,60000,2,50000,40,9999,0.100000,99,693,0.000000,3,0.000000,15.574418,3.743326,99,99,0,0,0,0,0
6,69999,51,60000,2,50000,40,9999,0.100000,99,693,0.000000,1,0.000000,27.262716,0.474058,99,99,0,0,0,0,0
6,69999,52,60000,2,50000,40,9999,0.100000,99,693,0.000000,3,0.000000,29.152204,0.417260,99,99,0,0,0,0,0
6,69999,53,60000,2,50000,41,9999,0.100000,99,693,0.000000,4,3.000000,26.743411,8.705103,99,99,0,0,0,0,0
6,69999,54,60000,2,50000,40,9999,0.100000,99,693,0.000000,3,1.000000,32.386931,21.644617,99,99,0,0,0,0,0
6,69999,55,60000,2,50000,40,9999,0.100000,99,693,0.000000,2,1.000000,34.348560,3.692176,99,99,0,0,0,0,0
6,69999,56,60000,2,50000,40,9999,0.100000,99,693,0.000000,1,0.000000,26.605394,14.591158,99,99,0,0,0,0,0
6,69999,57,60000,2,50000,41,9999,0.100000,99,693,0.000000,2,5.000000,26.437286,14.939082,99,99,0,0,0,0,0
6,69999,58,60000,2,50000,0,9999,0.100000,99,693,0.003026,2,0.000000,23.781838,0.092321,99,99,0,0,0,0,1
6,69999,59,60000,2,50000,40,9999,0.100000,99,693,0.000000,2,2.000000,22.246571,11.038715,99,99,0,0,0,0,0
6,69999,60,60000,2,50000,40,9999,0.100000,99,693,0.000000,1,1.000000,32.024851,1.662073,99,99,0,0,0,0,0
6,69999,61,60000,2,50000,0,9999,0.100000,99,693,0.164140,3,0.000000,27.013933,0.120869,99,99,0,0,0,0,1
6,69999,62,60000,2,50000,0,9999,0.100000,99,693,0.004465,2,0.000000,19.337103,0.167548,99,99,0,0,1,0,0
6,69999,63,60000,2,50000,40,9999,0.100000,99,693,0.000000,1,1.000000,19.170459,4.389970,99,99,0,0,0,0,0
6,69999,64,60000,2,50000,40,9999,0.100000,99,693,0.000000,3,0.000000,11.701884,13.640474,99,99,0,0,0,0,0
6,69999,65,60000,2,50000,0,9999,0.100000,99,693,0.001654,2,0.000000,25.313377,0.092678,99,99,0,0,0,1,0
6,69999,66,60000,2,50000,41,9999,0.100000,99,693,0.000000,4,5.000000,23.797576,20.678952,99,99,0,0,0,0,0
6,69999,67,60000,2,50000,0,9999,0.100000,99,693,0.009702,2,0.000000,31.379263,0.135367,99,99,0,0,1,0,0
6,69999,68,60000,2,50000,40,9999,0.100000,99,693,0.000000,1,0.000000,28.820563,0.239050,99,99,0,0,0,0,0
6,69999,69,60000,2,50000,40,9999,0.100000,99,693,0.000000,2,0.000000,23.382048,0.091350,99,99,0,0,0,0,0
6,69999,70,60000,2,50000,40,9999,0.100000,99,693,0.000000,2,0.000000,33.107808,0.216667,99,99,0,0,0,0,0
6,69999,71,60000,2,50000,40,9999,0.100000,99,693,0.000000,2,2.000000,19.312757,18.918838,99,99,0,0,0,0,0
6,69999,72,60000,2,50000,40,9999,0.100000,99,693,0.000000,2,0.000000,26.425557,13.323958,99,99,0,0,0,0,0
6,69999,73,60000,2,50000,0,9999,0.100000,99,693,3.323474,4,0.000000,32.490819,1.068482,99,99,0,1,0,0,0
6,69999,74,60000,2,50000,41,9999,0.100000,99,693,0.000000,2,4.000000,27.151668,9.800619,99,99,0,0,0,0,0
6,69999,75,60000,2,50000,40,9999,0.100000,99,693,0.000000,1,0.000000,26.752041,1.400698,99,99,0,0,0,0,0
6,69999,76,60000,2,50000,40,9999,0.100000,99,693,0.000000,2,0.000000,27.209534,0.240583,99,99,0,0,0,0,0
6,69999,77,60000,2,50000,40,9999,0.100000,99,693,0.000000,1,0.000000,26.852366,1.256137,99,99,0,0,0,0,0
6,69999,78,60000,2,50000,40,9999,0.100000,99,693,0.000000,2,1.000000,25.037517,15.092457,99,99,0,0,0,0,0
6,69999,79,60000,2,50000,40,9999,0.100000,99,693,0.000000,2,0.000000,27.248284,1.219961,99,99,0,0,0,0,0
6,69999,80,60000,2,50000,42,9999,0.100000,99,693,0.000000,1,5.000000,19.264878,16.676293,99,99,0,0,0,0,0
6,69999,81,60000,2,50000,0,9999,0.100000,99,693,3.397071,3,0.000000,33.434328,0.695202,99,99,0,0,1,0,0
6,69999,82,60000,2,50000,45,9999,0.100000,99,693,0.000000,3,8.000000,13.582358,19.467821,99,99,0,0,0,0,0
6,69999,83,60000,2,50000,40,9999,0.100000,99,693,0.000000,2,2.000000,19.667229,17.140918,99,99,0,0,0,0,0
6,69999,84,60000,2,50000,0,9999,0.100000,99,693,0.965903,2,0.000000,27.518327,0.183963,99,99,0,0,1,0,0
6,69999,85,60000,2,50000,40,9999,0.100000,99,693,0.000000,1,0.000000,13.012866,0.902029,99,99,0,0,0,0,0
6,69999,86,60000,2,50000,40,9999,0.100000,99,693,0.000000,3,0.000000,27.088765,0.214542,99,99,0,0,0,0,0
6,69999,87,60000,2,50000,40,9999,0.100000,99,693,0.000000,2,0.000000,17.240283,4.060639,99,99,0,0,0,0,0
6,69999,88,60000,2,50000,0,9999,0.100000,99,693,0.001890,1,2.000000,31.596650,8.128091,99,99,0,0,0,1,0
6,69999,89,60000,2,50000,40,9999,0.100000,99,693,0.000000,3,0.000000,32.279776,1.121817,99,99,0,0,0,0,0
6,69999,90,60000,2,50000,40,9999,0.100000,99,693,0.000000,2,0.000000,26.855107,0.332389,99,99,0,0,0,0,0
6,69999,91,60000,2,50000,40,9999,0.100000,99,693,0.000000,2,0.000000,33.296420,1.877768,99,99,0,0,0,0,0
6,69999,92,60000,2,50000,0,9999,0.100000,99,693,0.004971,2,0.000000,20.433421,0.155026,99,99,0,0,0,1,0
6,69999,93,60000,2,50000,40,9999,0.100000,99,693,0.000000,2,0.000000,25.096446,0.104808,99,99,0,0,0,0,0
6,69999,94,60000,2,50000,40,9999,0.100000,99,693,0.000000,2,2.000000,22.113007,12.048764,99,99,0,0,0,0,0
6,69999,95,60000,2,50000,40,9999,0.100000,99,693,0.000000,2,1.000000,22.287462,11.925488,99,99,0,0,0,0,0
6,69999,96,60000,2,50000,40,9999,0.100000,99,693,0.000000,2,2.000000,33.244328,9.958033,99,99,0,0,0,0,0
6,69999,97,60000,2,50000,40,9999,0.100000,99,693,0.000000,3,0.000000,29.066399,0.753638,99,99,0,0,0,0,0
6,69999,98,60000,2,50000,40,9999,0.100000,99,693,0.000000,2,0.000000,28.088373,0.124692,99,99,0,0,0,0,0
6,69999,99,60000,2,50000,40,9999,0.100000,99,693,0.000000,2,0.000000,20.315121,0.086806,99,99,0,0,0,0,0
7,79999,0,70000,6,60000,42,9999,0.065000,99,792,0.000000,1,5.000000,20.036392,15.748984,99,99,0,0,0,0,0
7,79999,1,70000,6,60000,40,9999,0.100000,99,792,0.000000,4,1.000000,23.928420,13.514275,99,99,0,0,0,0,0
7,79999,2,70000,6,60000,0,9999,0.100000,99,792,0.412053,1,0.000000,26.427353,0.427836,99,99,0,0,0,0,1
7,79999,3,70000,6,60000,40,9999,0.100000,99,792,0.000000,2,0.000000,21.582555,0.949365,99,99,0,0,0,0,0
7,79999,4,70000,6,60000,41,9999,0.100000,99,792,0.000000,2,4.000000,26.586205,15.654343,99,99,0,0,0,0,0
7,79999,5,70000,6,60000,40,9999,0.100000,99,792,0.000000,2,0.000000,20.730794,8.735493,99,99,0,0,0,0,0
7,79999,6,70000,33,60000,0,9999,0.100000,99,792,2.392576,4,1.000000,24.248320,1.137282,99,99,0,0,0,1,0
7,79999,7,70000,6,60000,40,9999,0.100000,99,792,0.000000,2,1.000000,30.995765,2.400991,99,99,0,0,0,0,0
7,79999,8,70000,6,60000,0,9999,0.100000,99,792,0.279287,3,0.000000,19.018755,0.583059,99,99,0,0,0,0,1
7,79999,9,70000,6,60000,0,9999,0.100000,99,792,0.124711,3,0.000000,19.022533,0.175180,99,99,0,0,0,0,1
7,79999,10,70000,6,60000,0,9999,0.100000,99,792,1.648309,1,0.000000,22.419332,0.498691,99,99,0,1,0,0,0
7,79999,11,70000,6,60000,41,9999,0.100000,99,792,0.000000,3,2.000000,17.616867,14.572188,99,99,0,0,0,0,0
7,79999,12,70000,6,60000,0,9999,0.100000,99,792,1.212169,2,0.000000,28.435185,0.492176,99,99,0,0,0,1,0
7,79999,13,70000,6,60000,40,9999,0.100000,99,792,0.000000,1,0.000000,20.988992,0.926190,99,99,0,0,0,0,0
7,79999,14,70000,6,60000,0,9999,0.100000,99,792,2.460759,2,0.000000,32.801631,1.470454,99,99,0,0,1,0,0
7,79999,15,70000,6,60000,0,9999,0.135000,99,792,0.012318,2,3.000000,29.423504,11.190717,99,99,0,0,1,0,0
7,79999,16,70000,6,60000,40,9999,0.100000,99,792,0.000000,3,1.000000,24.272249,1.434203,99,99,0,0,0,0,0
7,79999,17,70000,6,60000,40,9999,0.100000,99,792,0.000000,2,0.000000,22.323024,0.651900,99,99,0,0,0,0,0
7,79999,18,70000,6,60000,0,9999,0.100000,99,792,0.014118,1,0.000000,23.617661,0.133630,99,99,0,0,1,0,0
7,79999,19,70000,6,60000,40,9999,0.100000,99,792,0.000000,2,0.000000,17.297557,4.382281,99,99,0,0,0,0,0
7,79999,20,70000,6,60000,40,9999,0.100000,99,792,0.000000,1,0.000000,31.922417,12.884748,99,99,0,0,0,0,0
7,79999,21,70000,6,60000,0,9999,0.100000,99,792,0.009294,2,0.000000,28.631146,0.123843,99,99,0,0,1,0,0
7,79999,22,70000,6,60000,40,9999,0.100000,99,792,0.000000,1,0.000000,26.927865,0.479120,99,99,0,0,0,0,0
7,79999,23,70000,6,60000,0,9999,0.100000,99,792,0.005375,2,0.000000,17.393532,1.532985,99,99,0,0,0,1,0
7,79999,24,70000,6,60000,41,9999,0.100000,99,792,0.000000,1,6.000000,31.947174,10.471323,99,99,0,0,0,0,0
7,79999,25,70000,6,60000,40,9999,0.100000,99,792,0.000000,1,0.000000,28.734723,0.137463,99,99,0,0,0,0,0
7,79999,26,70000,6,60000,0,9999,0.100000,99,792,0.339447,2,0.000000,31.985487,3.666669,99,99,0,0,0,0,1
7,79999,27,70000,6,60000,40,9999,0.100000,99,792,0.000000,1,0.000000,19.198197,0.505617,99,99,0,0,0,0,0
7,79999,28,70000,6,60000,41,9999,0.100000,99,792,0.000000,4,4.000000,20.035515,11.054845,99,99,0,0,0,0,0
7,79999,29,70000,6,60000,0,9999,0.100000,99,792,0.000968,1,0.000000,32.984995,0.076641,99,99,0,0,0,0,1
7,79999,30,70000,6,60000,0,9999,0.100000,99,792,0.153698,2,0.000000,27.301396,0.187275,99,99,0,0,0,0,1
7,79999,31,70000,6,60000,40,9999,0.100000,99,792,0.000000,1,0.000000,30.948210,0.469946,99,99,0,0,0,0,0
7,79999,32,70000,6,60000,0,9999,0.100000,99,792,0.491938,1,0.000000,28.476920,0.106728,99,99,0,0,0,0,1
7,79999,33,70000,6,60000,40,9999,0.100000,99,792,0.000000,1,0.000000,31.692235,0.295876,99,99,0,0,0,0,0
7,79999,34,70000,6,60000,40,9999,0.100000,99,792,0.000000,2,2.000000,23.481703,13.355436,99,99,0,0,0,0,0
7,79999,35,70000,6,60000,40,9999,0.100000,99,792,0.000000,2,0.000000,19.446282,0.582972,99,99,0,0,0,0,0
7,79999,36,70000,6,60000,0,9999,0.100000,99,792,0.434611,3,0.000000,15.008092,0.606149,99,99,0,0,0,0,1
7,79999,37,70000,6,60000,0,9999,0.100000,99,792,0.021091,3,0.000000,29.514326,0.299331,99,99,0,1,0,0,0
7,79999,38,70000,6,60000,0,9999,0.100000,99,792,0.011703,2,0.000000,11.974329,0.312614,99,99,0,0,0,1,0
7,79999,39,70000,6,60000,40,9999,0.100000,99,792,0.000000,4,1.000000,24.218472,1.150340,99,99,0,0,0,0,0
7,79999,40,70000,6,60000,40,9999,0.100000,99,792,0.000000,1,0.000000,19.697127,0.488898,99,99,0,0,0,0,0
7,79999,41,70000,6,60000,0,9999,0.100000,99,792,0.011992,2,0.000000,34.551222,0.071234,99,99,0,0,1,0,0
7,79999,42,70000,6,60000,40,9999,0.100000,99,792,0.000000,4,0.000000,29.172012,2.900696,99,99,0,0,0,0,0
7,79999,43,70000,6,60000,40,9999,0.100000,99,792,0.000000,2,0.000000,24.209597,1.036056,99,99,0,0,0,0,0
7,79999,44,70000,6,60000,40,9999,0.100000,99,792,0.000000,2,0.000000,33.069535,1.727106,99,99,0,0,0,0,0
7,79999,45,70000,6,60000,40,9999,0.100000,99,792,0.000000,3,0.000000,25.408885,2.377450,99,99,0,0,0,0,0
7,79999,46,70000,6,60000,40,9999,0.100000,99,792,0.000000,2,0.000000,19.264070,0.588037,99,99,0,0,0,0,0
7,79999,47,70000,6,60000,41,9999,0.100000,99,792,0.000000,3,3.000000,25.286576,9.133702,99,99,0,0,0,0,0
7,79999,48,70000,6,60000,40,9999,0.100000,99,792,0.000000,2,1.000000,20.368837,17.631895,99,99,0,0,0,0,0
7,79999,49,70000,6,60000,41,9999,0.100000,99,792,0.000000,1,4.000000,30.363641,6.857207,99,99,0,0,0,0,0
7,79999,50,70000,6,60000,40,9999,0.100000,99,792,0.000000,3,0.000000,14.817917,3.741258,99,99,0,0,0,0,0
7,79999,51,70000,6,60000,40,9999,0.100000,99,792,0.000000,1,0.000000,27.129872,0.451011,99,99,0,0,0,0,0
7,79999,52,70000,6,60000,40,9999,0.100000,99,792,0.000000,3,0.000000,29.009067,0.371500,99,99,0,0,0,0,0
7,79999,53,70000,6,60000,40,9999,0.100000,99,792,0.000000,4,2.000000,23.174560,7.946509,99,99,0,0,0,0,0
7,79999,54,70000,6,60000,40,9999,0.100000,99,792,0.000000,3,0.000000,32.058939,2.194145,99,99,0,0,0,0,0
7,79999,55,70000,6,60000,40,9999,0.100000,99,792,0.000000,2,0.000000,34.308315,0.072283,99,99,0,0,0,0,0
7,79999,56,70000,6,60000,40,9999,0.100000,99,792,0.000000,1,0.000000,27.172008,7.423889,99,99,0,0,0,0,0
7,79999,57,70000,6,60000,41,9999,0.100000,99,792,0.000000,3,3.000000,23.764079,17.545937,99,99,0,0,0,0,0
7,79999,58,70000,6,60000,40,9999,0.100000,99,792,0.000000,2,0.000000,23.779807,0.487602,99,99,0,0,0,0,0
7,79999,59,70000,6,60000,40,9999,0.100000,99,792,0.000000,2,1.000000,22.783235,12.875713,99,99,0,0,0,0,0
7,79999,60,70000,6,60000,40,9999,0.100000,99,792,0.000000,1,0.000000,31.875368,0.413561,99,99,0,0,0,0,0
7,79999,61,70000,6,60000,40,9999,0.100000,99,792,0.000000,3,0.000000,27.067977,0.367750,99,99,0,0,0,0,0
7,79999,62,70000,6,60000,3,9999,0.100000,99,792,0.000555,2,8.000000,19.345589,16.511121,99,99,0,0,1,0,0
7,79999,63,70000,6,60000,40,9999,0.100000,99,792,0.000000,1,0.000000,19.910690,1.222369,99,99,0,0,0,0,0
7,79999,64,70000,6,60000,43,9999,0.065000,99,792,0.000000,3,4.000000,10.742595,9.240364,99,99,0,0,0,0,0
7,79999,65,70000,6,60000,0,9999,0.100000,99,792,0.002305,2,0.000000,25.310308,0.091766,99,99,0,0,0,1,0
7,79999,66,70000,6,60000,40,9999,0.100000,99,792,0.000000,5,1.000000,19.473560,14.300351,99,99,0,0,0,0,0
7,79999,67,70000,6,60000,40,9999,0.100000,99,792,0.000000,2,0.000000,31.382900,0.140993,99,99,0,0,0,0,0
7,79999,68,70000,6,60000,40,9999,0.100000,99,792,0.000000,1,0.000000,28.886859,0.692013,99,99,0,0,0,0,0
7,79999,69,70000,6,60000,0,9999,0.100000,99,792,0.170220,2,0.000000,23.380615,0.120471,99,99,0,0,0,0,1
7,79999,70,70000,6,60000,0,9999,0.100000,99,792,0.022492,3,2.000000,33.109428,5.604965,99,99,0,0,0,1,0
7,79999,71,70000,6,60000,40,9999,0.100000,99,792,0.000000,2,1.000000,20.131037,8.338289,99,99,0,0,0,0,0
7,79999,72,70000,6,60000,40,9999,0.100000,99,792,0.000000,2,0.000000,26.989335,6.121055,99,99,0,0,0,0,0
7,79999,73,70000,6,60000,0,9999,0.100000,99,792,2.743283,4,0.000000,32.866361,0.731993,99,99,0,1,0,0,0
7,79999,74,70000,6,60000,40,9999,0.100000,99,792,0.000000,3,0.000000,27.184131,0.186588,99,99,0,0,0,0,0
7,79999,75,70000,6,60000,40,9999,0.100000,99,792,0.000000,1,0.000000,26.854313,0.908931,99,99,0,0,0,0,0
7,79999,76,70000,6,60000,40,9999,0.100000,99,792,0.000000,2,0.000000,27.370283,0.335453,99,99,0,0,0,0,0
7,79999,77,70000,6,60000,40,9999,0.100000,99,792,0.000000,1,0.000000,26.744784,0.326581,99,99,0,0,0,0,0
7,79999,78,70000,6,60000,40,9999,0.100000,99,792,0.000000,2,1.000000,25.248889,9.919730,99,99,0,0,0,0,0
7,79999,79,70000,6,60000,41,9999,0.100000,99,792,0.000000,2,5.000000,27.233070,13.083690,99,99,0,0,0,0,0
7,79999,80,70000,6,60000,40,9999,0.100000,99,792,0.000000,2,0.000000,18.432489,1.214074,99,99,0,0,0,0,0
7,79999,81,70000,6,60000,0,9999,0.100000,99,792,2.844710,3,0.000000,33.804624,0.591906,99,99,0,0,1,0,0
7,79999,82,70000,6,60000,48,9999,0.100000,99,792,0.000000,3,13.000000,14.776898,14.408835,99,99,0,0,0,0,0
7,79999,83,70000,6,60000,43,9999,0.100000,99,792,0.000000,2,7.000000,20.618498,12.499751,99,99,0,0,0,0,0
7,79999,84,70000,6,60000,0,9999,0.100000,99,792,1.704206,2,0.000000,27.674958,0.245938,99,99,0,0,1,0,0
7,79999,85,70000,6,60000,0,9999,0.100000,99,792,0.000394,1,1.000000,12.406002,10.251217,99,99,0,1,0,0,0
7,79999,86,70000,6,60000,40,9999,0.100000,99,792,0.000000,3,0.000000,27.121301,0.179701,99,99,0,0,0,0,0
7,79999,87,70000,6,60000,41,9999,0.100000,99,792,0.000000,2,2.000000,18.026483,20.179338,99,99,0,0,0,0,0
7,79999,88,70000,6,60000,40,9999,0.100000,99,792,0.000000,2,2.000000,33.287563,4.468391,99,99,0,0,0,0,0
7,79999,89,70000,6,60000,40,9999,0.100000,99,792,0.000000,3,0.000000,32.658402,0.739339,99,99,0,0,0,0,0
7,79999,90,70000,6,60000,40,9999,0.100000,99,792,0.000000,2,0.000000,27.021305,0.497861,99,99,0,0,0,0,0
7,79999,91,70000,6,60000,40,9999,0.100000,99,792,0.000000,2,0.000000,33.322199,2.090971,99,99,0,0,0,0,0
7,79999,92,70000,6,60000,0,9999,0.100000,99,792,0.003653,2,0.000000,20.429612,0.159479,99,99,0,0,0,1,0
7,79999,93,70000,6,60000,40,9999,0.100000,99,792,0.000000,2,0.000000,25.093671,0.104461,99,99,0,0,0,0,0
7,79999,94,70000,6,60000,42,9999,0.100000,99,792,0.000000,2,6.000000,19.890098,22.630520,99,99,0,0,0,0,0
7,79999,95,70000,6,60000,40,9999,0.100000,99,792,0.000000,2,0.000000,23.169177,12.363415,99,99,0,0,0,0,0
7,79999,96,70000,6,60000,40,9999,0.100000,99,792,0.000000,2,0.000000,32.324073,4.942256,99,99,0,0,0,0,0
7,79999,97,70000,6,60000,41,9999,0.100000,99,792,0.000000,3,6.000000,29.143948,14.599537,99,99,0,0,0,0,0
7,79999,98,70000,6,60000,40,9999,0.100000,99,792,0.000000,2,0.000000,28.085460,1.962093,99,99,0,0,0,0,0
7,79999,99,70000,6,60000,40,9999,0.100000,99,792,0.000000,2,0.000000,20.310974,0.095204,99,99,0,0,0,0,0
8,89999,0,80000,81,70000,40,9999,0.100000,99,891,0.000000,2,0.000000,23.757417,6.171038,99,99,0,0,0,0,0
8,89999,1,80000,81,70000,40,9999,0.100000,99,891,0.000000,4,0.000000,22.617911,5.034897,99,99,0,0,0,0,0
8,89999,2,80000,81,70000,40,9999,0.100000,99,891,0.000000,1,2.000000,26.264828,2.519716,99,99,0,0,0,0,0
8,89999,3,80000,81,70000,40,9999,0.100000,99,891,0.000000,2,0.000000,20.852648,0.920320,99,99,0,0,0,0,0
8,89999,4,80000,81,70000,40,9999,0.100000,99,891,0.000000,3,1.000000,30.326207,6.543731,99,99,0,0,0,0,0
8,89999,5,80000,81,70000,40,9999,0.100000,99,891,0.000000,2,0.000000,20.320476,5.609609,99,99,0,0,0,0,0
8,89999,6,80000,81,70000,0,9999,0.100000,99,891,2.605690,4,0.000000,25.261215,1.195846,99,99,0,0,0,1,0
8,89999,7,80000,81,70000,41,9999,0.100000,99,891,0.000000,2,5.000000,30.526632,10.707519,99,99,0,0,0,0,0
8,89999,8,80000,81,70000,0,9999,0.100000,99,891,0.953112,3,0.000000,18.838463,0.479949,99,99,0,0,0,0,1
8,89999,9,80000,81,70000,0,9999,0.100000,99,891,0.286731,3,0.000000,18.998976,0.366078,99,99,0,0,0,0,1
8,89999,10,80000,81,70000,0,9999,0.100000,99,891,1.731657,1,0.000000,22.621980,0.471383,99,99,0,1,0,0,0
8,89999,11,80000,81,70000,40,9999,0.100000,99,891,0.000000,3,0.000000,18.085830,1.200935,99,99,0,0,0,0,0
8,89999,12,80000,81,70000,0,9999,0.100000,99,891,0.351908,2,0.000000,28.580244,1.199771,99,99,0,0,0,1,0
8,89999,13,80000,81,70000,40,9999,0.100000,99,891,0.000000,1,0.000000,20.290850,2.366151,99,99,0,0,0,0,0
8,89999,14,80000,81,70000,0,9999,0.100000,99,891,2.050901,2,0.000000,32.871527,1.331070,99,99,0,0,1,0,0
8,89999,15,80000,81,70000,0,9999,0.100000,99,891,0.011674,3,0.000000,31.491071,0.129353,99,99,0,0,1,0,0
8,89999,16,80000,81,70000,40,9999,0.100000,99,891,0.000000,3,0.000000,25.308487,0.921513,99,99,0,0,0,0,0
8,89999,17,80000,81,70000,40,9999,0.100000,99,891,0.000000,2,0.000000,22.525304,0.607873,99,99,0,0,0,0,0
8,89999,18,80000,81,70000,0,9999,0.100000,99,891,0.668715,1,0.000000,23.615891,0.322719,99,99,0,0,1,0,0
8,89999,19,80000,81,70000,40,9999,0.100000,99,891,0.000000,2,0.000000,17.873868,0.345908,99,99,0,0,0,0,0
8,89999,20,80000,81,70000,40,9999,0.100000,99,891,0.000000,1,0.000000,32.423613,9.606025,99,99,0,0,0,0,0
8,89999,21,80000,81,70000,0,9999,0.100000,99,891,0.010009,2,0.000000,28.627623,0.122844,99,99,0,0,1,0,0
8,89999,22,80000,81,70000,0,9999,0.100000,99,891,5.487208,1,2.000000,26.741092,2.444452,99,99,0,0,0,0,1
8,89999,23,80000,81,70000,40,9999,0.100000,99,891,0.000000,2,0.000000,16.958011,1.275223,99,99,0,0,0,0,0
8,89999,24,80000,81,70000,40,9999,0.100000,99,891,0.000000,2,0.000000,38.012774,3.473130,99,99,0,0,0,0,0
8,89999,25,80000,81,70000,0,9999,0.100000,99,891,0.546641,2,0.000000,28.634356,0.147815,99,99,0,0,0,0,1
8,89999,26,80000,81,70000,0,9999,0.100000,99,891,0.323181,3,0.000000,31.415033,0.110956,99,99,0,0,0,0,1
8,89999,27,80000,81,70000,40,9999,0.100000,99,891,0.000000,1,0.000000,19.168327,0.341588,99,99,0,0,0,0,0
8,89999,28,80000,81,70000,40,9999,0.100000,99,891,0.000000,4,0.000000,19.897424,3.398989,99,99,0,0,0,0,0
8,89999,29,80000,81,70000,0,9999,0.100000,99,891,0.000946,1,0.000000,32.984723,0.075735,99,99,0,0,0,0,1
8,89999,30,80000,81,70000,0,9999,0.100000,99,891,0.286327,2,0.000000,27.366009,0.217293,99,99,0,0,0,0,1
8,89999,31,80000,81,70000,40,9999,0.100000,99,891,0.000000,1,0.000000,30.840415,0.324747,99,99,0,0,0,0,0
8,89999,32,80000,81,70000,40,9999,0.100000,99,891,0.000000,2,0.000000,28.409568,0.120190,99,99,0,0,0,0,0
8,89999,33,80000,81,70000,40,9999,0.100000,99,891,0.000000,2,0.000000,31.602043,0.117281,99,99,0,0,0,0,0
8,89999,34,80000,81,70000,41,9999,0.100000,99,891,0.000000,2,3.000000,22.553276,13.017407,99,99,0,0,0,0,0
8,89999,35,80000,81,70000,40,9999,0.100000,99,891,0.000000,2,0.000000,19.288954,0.548835,99,99,0,0,0,0,0
8,89999,36,80000,81,70000,0,9999,0.100000,99,891,0.198741,3,0.000000,15.003756,0.681659,99,99,0,0,0,0,1
8,89999,37,80000,81,70000,40,9999,0.100000,99,891,0.000000,3,1.000000,29.699908,3.973293,99,99,0,0,0,0,0
8,89999,38,80000,81,70000,40,9999,0.100000,99,891,0.000000,2,0.000000,12.006682,0.470009,99,99,0,0,0,0,0
8,89999,39,80000,81,70000,40,9999,0.100000,99,891,0.000000,4,0.000000,25.219203,0.681274,99,99,0,0,0,0,0
8,89999,40,80000,81,70000,40,9999,0.100000,99,891,0.000000,1,0.000000,19.552668,0.518884,99,99,0,0,0,0,0
8,89999,41,80000,81,70000,0,9999,0.100000,99,891,0.810401,2,0.000000,34.557487,0.221848,99,99,0,0,1,0,0
8,89999,42,80000,81,70000,40,9999,0.100000,99,891,0.000000,4,0.000000,29.322159,1.032573,99,99,0,0,0,0,0
8,89999,43,80000,81,70000,40,9999,0.100000,99,891,0.000000,2,0.000000,25.158733,0.608082,99,99,0,0,0,0,0
8,89999,44,80000,81,70000,40,9999,0.100000,99,891,0.000000,2,0.000000,33.136735,1.574580,99,99,0,0,0,0,0
8,89999,45,80000,81,70000,40,9999,0.100000,99,891,0.000000,3,0.000000,25.263707,0.981788,99,99,0,0,0,0,0
8,89999,46,80000,81,70000,40,9999,0.100000,99,891,0.000000,2,0.000000,19.094047,0.649894,99,99,0,0,0,0,0
8,89999,47,80000,81,70000,40,9999,0.100000,99,891,0.000000,3,0.000000,27.068066,2.486796,99,99,0,0,0,0,0
8,89999,48,80000,81,70000,40,9999,0.100000,99,891,0.000000,2,0.000000,19.977747,13.489673,99,99,0,0,0,0,0
8,89999,49,80000,81,70000,40,9999,0.100000,99,891,0.000000,2,0.000000,29.796979,3.330480,99,99,0,0,0,0,0
8,89999,50,80000,81,70000,0,9999,0.100000,99,891,0.305178,3,0.000000,14.316004,2.789605,99,99,0,1,0,0,0
8,89999,51,80000,81,70000,40,9999,0.100000,99,891,0.000000,1,2.000000,26.938789,2.385651,99,99,0,0,0,0,0
8,89999,52,80000,81,70000,40,9999,0.100000,99,891,0.000000,3,0.000000,28.869413,0.381725,99,99,0,0,0,0,0
8,89999,53,80000,81,70000,40,9999,0.100000,99,891,0.000000,4,1.000000,22.760788,6.996346,99,99,0,0,0,0,0
8,89999,54,80000,81,70000,40,9999,0.100000,99,891,0.000000,3,0.000000,31.178282,0.121510,99,99,0,0,0,0,0
8,89999,55,80000,81,70000,40,9999,0.100000,99,891,0.000000,2,0.000000,34.313131,0.250120,99,99,0,0,0,0,0
8,89999,56,80000,81,70000,40,9999,0.100000,99,891,0.000000,1,2.000000,26.417628,2.714089,99,99,0,0,0,0,0
8,89999,57,80000,81,70000,40,9999,0.100000,99,891,0.000000,3,1.000000,21.508810,8.768150,99,99,0,0,0,0,0
8,89999,58,80000,81,70000,0,9999,0.100000,99,891,0.012323,2,0.000000,23.783690,1.867209,99,99,0,0,0,0,1
8,89999,59,80000,81,70000,40,9999,0.100000,99,891,0.000000,2,1.000000,22.120094,7.529713,99,99,0,0,0,0,0
8,89999,60,80000,81,70000,40,9999,0.100000,99,891,0.000000,1,0.000000,31.807654,0.102248,99,99,0,0,0,0,0
8,89999,61,80000,81,70000,40,9999,0.100000,99,891,0.000000,3,0.000000,27.127939,0.301333,99,99,0,0,0,0,0
8,89999,62,80000,81,70000,0,9999,0.100000,99,891,0.001778,3,0.000000,19.353760,0.160909,99,99,0,0,1,0,0
8,89999,63,80000,81,70000,40,9999,0.100000,99,891,0.000000,1,0.000000,19.773874,1.012333,99,99,0,0,0,0,0
8,89999,64,80000,81,70000,40,9999,0.100000,99,891,0.000000,3,0.000000,15.087724,0.713703,99,99,0,0,0,0,0
8,89999,65,80000,81,70000,0,9999,0.100000,99,891,0.001784,2,1.000000,25.307032,2.414508,99,99,0,0,0,1,0
8,89999,66,80000,81,70000,40,9999,0.100000,99,891,0.000000,5,0.000000,18.307091,9.963620,99,99,0,0,0,0,0
8,89999,67,80000,81,70000,40,9999,0.100000,99,891,0.000000,2,0.000000,31.383527,0.136232,99,99,0,0,0,0,0
8,89999,68,80000,81,70000,40,9999,0.100000,99,891,0.000000,1,0.000000,28.971349,0.643690,99,99,0,0,0,0,0
8,89999,69,80000,81,70000,40,9999,0.100000,99,891,0.000000,2,0.000000,23.390060,0.179608,99,99,0,0,0,0,0
8,89999,70,80000,81,70000,0,9999,0.100000,99,891,0.021931,3,2.000000,33.108323,11.005564,99,99,0,0,0,1,0
8,89999,71,80000,81,70000,40,9999,0.100000,99,891,0.000000,2,0.000000,19.319367,1.474660,99,99,0,0,0,0,0
8,89999,72,80000,81,70000,40,9999,0.100000,99,891,0.000000,2,2.000000,26.912614,16.981343,99,99,0,0,0,0,0
8,89999,73,80000,81,70000,0,9999,0.135000,99,891,2.232767,4,0.000000,33.186053,0.687641,99,99,0,1,0,0,0
8,89999,74,80000,81,70000,40,9999,0.100000,99,891,0.000000,3,0.000000,27.214294,0.039547,99,99,0,0,0,0,0
8,89999,75,80000,81,70000,40,9999,0.100000,99,891,0.000000,1,2.000000,26.675714,3.515171,99,99,0,0,0,0,0
8,89999,76,80000,81,70000,0,9999,0.100000,99,891,0.950901,2,0.000000,27.595553,0.259208,99,99,0,0,1,0,0
8,89999,77,80000,81,70000,40,9999,0.100000,99,891,0.000000,1,2.000000,26.565689,2.417758,99,99,0,0,0,0,0
8,89999,78,80000,81,70000,40,9999,0.100000,99,891,0.000000,2,0.000000,23.773900,0.548881,99,99,0,0,0,0,0
8,89999,79,80000,81,70000,41,9999,0.100000,99,891,0.000000,3,5.000000,26.978285,5.948576,99,99,0,0,0,0,0
8,89999,80,80000,81,70000,40,9999,0.100000,99,891,0.000000,2,0.000000,17.650660,0.668536,99,99,0,0,0,0,0
8,89999,81,80000,73,70000,0,9999,0.100000,99,891,2.271938,3,0.000000,34.115849,0.557093,99,99,0,0,1,0,0
8,89999,82,80000,81,70000,40,9999,0.100000,99,891,0.000000,4,0.000000,27.255152,2.795992,99,99,0,0,0,0,0
8,89999,83,80000,81,70000,40,9999,0.100000,99,891,0.000000,3,0.000000,17.451989,6.621300,99,99,0,0,0,0,0
8,89999,84,80000,81,70000,40,9999,0.100000,99,891,0.000000,2,0.000000,27.868672,0.192088,99,99,0,0,0,0,0
8,89999,85,80000,81,70000,40,9999,0.100000,99,891,0.000000,2,0.000000,13.839617,1.699026,99,99,0,0,0,0,0
8,89999,86,80000,81,70000,40,9999,0.100000,99,891,0.000000,3,0.000000,27.146203,1.006852,99,99,0,0,0,0,0
8,89999,87,80000,81,70000,40,9999,0.100000,99,891,0.000000,2,0.000000,19.953988,6.263082,99,99,0,0,0,0,0
8,89999,88,80000,81,70000,40,9999,0.100000,99,891,0.000000,2,0.000000,31.888047,2.518753,99,99,0,0,0,0,0
8,89999,89,80000,81,70000,40,9999,0.100000,99,891,0.000000,3,0.000000,32.980649,0.726080,99,99,0,0,0,0,0
8,89999,90,80000,81,70000,40,9999,0.100000,99,891,0.000000,2,0.000000,27.290156,2.512015,99,99,0,0,0,0,0
8,89999,91,80000,81,70000,40,9999,0.100000,99,891,0.000000,2,0.000000,33.388934,2.054658,99,99,0,0,0,0,0
8,89999,92,80000,81,70000,0,9999,0.100000,99,891,0.001071,2,0.000000,20.439108,0.128002,99,99,0,0,0,1,0
8,89999,93,80000,81,70000,40,9999,0.100000,99,891,0.000000,2,0.000000,25.090692,0.104148,99,99,0,0,0,0,0
8,89999,94,80000,81,70000,40,9999,0.100000,99,891,0.000000,3,0.000000,17.723851,18.209643,99,99,0,0,0,0,0
8,89999,95,80000,81,70000,40,9999,0.100000,99,891,0.000000,2,1.000000,22.734534,8.043132,99,99,0,0,0,0,0
8,89999,96,80000,81,70000,40,9999,0.100000,99,891,0.000000,2,0.000000,32.209897,6.301008,99,99,0,0,0,0,0
8,89999,97,80000,81,70000,40,9999,0.100000,99,891,0.000000,4,0.000000,29.334155,0.980512,99,99,0,0,0,0,0
8,89999,98,80000,81,70000,40,9999,0.100000,99,891,0.000000,2,0.000000,28.082354,0.127551,99,99,0,0,0,0,0
8,89999,99,80000,81,70000,40,9999,0.100000,99,891,0.000000,2,0.000000,20.312929,0.088160,99,99,0,0,0,0,0
9,99999,0,90000,22,80000,40,9999,0.100000,99,990,0.000000,2,1.000000,23.238905,6.925152,99,99,0,0,0,0,0
9,99999,1,90000,22,80000,40,9999,0.100000,99,990,0.000000,4,0.000000,22.210236,8.188428,99,99,0,0,0,0,0
9,99999,2,90000,22,80000,40,9999,0.100000,99,990,0.000000,2,1.000000,24.525118,1.968842,99,99,0,0,0,0,0
9,99999,3,90000,22,80000,40,9999,0.100000,99,990,0.000000,2,0.000000,20.178084,2.026205,99,99,0,0,0,0,0
9,99999,4,90000,22,80000,40,9999,0.100000,99,990,0.000000,3,0.000000,31.122006,8.775167,99,99,0,0,0,0,0
9,99999,5,90000,22,80000,40,9999,0.100000,99,990,0.000000,2,0.000000,20.929328,6.566861,99,99,0,0,0,0,0
9,99999,6,90000,22,80000,0,9999,0.100000,99,990,13.093247,4,2.000000,25.771949,5.516124,99,99,0,0,0,1,0
9,99999,7,90000,22,80000,40,9999,0.100000,99,990,0.000000,2,0.000000,29.785887,0.990731,99,99,0,0,0,0,0
9,99999,8,90000,22,80000,0,9999,0.100000,99,990,5.264655,3,1.000000,18.651911,1.578232,99,99,0,0,0,0,1
9,99999,9,90000,22,80000,0,9999,0.100000,99,990,0.006358,3,0.000000,19.003123,0.215900,99,99,0,0,0,0,1
9,99999,10,90000,22,80000,0,9999,0.100000,99,990,1.645374,1,0.000000,22.730234,0.453280,99,99,0,1,0,0,0
9,99999,11,90000,22,80000,40,9999,0.100000,99,990,0.000000,3,0.000000,18.440016,0.234304,99,99,0,0,0,0,0
9,99999,12,90000,22,80000,0,9999,0.100000,99,990,0.529204,2,0.000000,28.583362,0.973241,99,99,0,0,0,1,0
9,99999,13,90000,22,80000,40,9999,0.100000,99,990,0.000000,1,0.000000,20.003069,2.777825,99,99,0,0,0,0,0
9,99999,14,90000,22,80000,0,9999,0.100000,99,990,1.577485,2,0.000000,32.951805,1.567189,99,99,0,0,1,0,0
9,99999,15,90000,22,80000,0,9999,0.100000,99,990,0.008729,3,0.000000,31.497141,0.131491,99,99,0,0,1,0,0
9,99999,16,90000,22,80000,0,9999,0.100000,99,990,13.169042,3,2.000000,25.832825,4.418030,99,99,0,0,0,1,0
9,99999,17,90000,22,80000,40,9999,0.100000,99,990,0.000000,2,0.000000,22.634668,0.610570,99,99,0,0,0,0,0
9,99999,18,90000,22,80000,0,9999,0.100000,99,990,2.477206,1,1.000000,23.483243,2.458137,99,99,0,0,1,0,0
9,99999,19,90000,22,80000,40,9999,0.100000,99,990,0.000000,2,0.000000,17.851561,0.251972,99,99,0,0,0,0,0
9,99999,20,90000,22,80000,40,9999,0.100000,99,990,0.000000,1,0.000000,32.240654,7.632209,99,99,0,0,0,0,0
9,99999,21,90000,22,80000,0,9999,0.100000,99,990,0.000894,2,0.000000,28.624426,0.121192,99,99,0,0,1,0,0
9,99999,22,90000,6,80000,0,9999,0.100000,99,990,4.829836,2,1.000000,25.105730,1.896345,99,99,0,0,0,0,1
9,99999,23,90000,22,80000,40,9999,0.100000,99,990,0.000000,2,0.000000,17.726599,0.248737,99,99,0,0,0,0,0
9,99999,24,90000,22,80000,40,9999,0.100000,99,990,0.000000,2,0.000000,38.016606,3.381477,99,99,0,0,0,0,0
9,99999,25,90000,22,80000,40,9999,0.100000,99,990,0.000000,2,0.000000,28.520103,0.147491,99,99,0,0,0,0,0
9,99999,26,90000,22,80000,0,9999,0.100000,99,990,0.334683,3,0.000000,31.374819,0.115756,99,99,0,0,0,0,1
9,99999,27,90000,22,80000,40,9999,0.100000,99,990,0.000000,1,0.000000,19.170749,0.085187,99,99,0,0,0,0,0
9,99999,28,90000,22,80000,40,9999,0.100000,99,990,0.000000,4,1.000000,19.030007,1.795998,99,99,0,0,0,0,0
9,99999,29,90000,22,80000,0,9999,0.100000,99,990,0.000479,1,0.000000,32.984251,0.075068,99,99,0,0,0,0,1
9,99999,30,90000,22,80000,0,9999,0.100000,99,990,1.516203,2,0.000000,27.429666,1.042765,99,99,0,0,0,0,1
9,99999,31,90000,22,80000,40,9999,0.100000,99,990,0.000000,1,0.000000,30.784965,0.331140,99,99,0,0,0,0,0
9,99999,32,90000,22,80000,0,9999,0.100000,99,990,0.530475,2,0.000000,28.335045,0.128990,99,99,0,0,0,0,1
9,99999,33,90000,22,80000,40,9999,0.100000,99,990,0.000000,2,0.000000,31.569208,0.120080,99,99,0,0,0,0,0
9,99999,34,90000,22,80000,40,9999,0.100000,99,990,0.000000,2,1.000000,19.815711,4.305187,99,99,0,0,0,0,0
9,99999,35,90000,22,80000,40,9999,0.100000,99,990,0.000000,2,1.000000,19.094896,1.533823,99,99,0,0,0,0,0
9,99999,36,90000,22,80000,0,9999,0.100000,99,990,0.205651,3,0.000000,14.931403,0.698616,99,99,0,0,0,0,1
9,99999,37,90000,22,80000,40,9999,0.100000,99,990,0.000000,3,0.000000,28.785727,16.653750,99,99,0,0,0,0,0
9,99999,38,90000,22,80000,40,9999,0.100000,99,990,0.000000,3,0.000000,11.998410,0.611359,99,99,0,0,0,0,0
9,99999,39,90000,22,80000,0,9999,0.100000,99,990,12.166446,4,2.000000,25.712149,5.775086,99,99,0,0,0,1,0
9,99999,40,90000,22,80000,40,9999,0.100000,99,990,0.000000,1,1.000000,19.351411,1.501809,99,99,0,0,0,0,0
9,99999,41,90000,22,80000,40,9999,0.100000,99,990,0.000000,2,0.000000,34.674409,0.196817,99,99,0,0,0,0,0
9,99999,42,90000,22,80000,40,9999,0.100000,99,990,0.000000,4,0.000000,29.076801,0.572532,99,99,0,0,0,0,0
9,99999,43,90000,22,80000,0,9999,0.100000,99,990,13.169042,2,2.000000,25.633788,5.846213,99,99,0,0,0,1,0
9,99999,44,90000,22,80000,40,9999,0.100000,99,990,0.000000,2,0.000000,33.196872,1.998959,99,99,0,0,0,0,0
9,99999,45,90000,22,80000,40,9999,0.100000,99,990,0.000000,3,0.000000,25.796057,8.347430,99,99,0,0,0,0,0
9,99999,46,90000,22,80000,40,9999,0.100000,99,990,0.000000,2,1.000000,18.902000,1.589370,99,99,0,0,0,0,0
9,99999,47,90000,22,80000,40,9999,0.100000,99,990,0.000000,3,0.000000,27.335452,0.067465,99,99,0,0,0,0,0
9,99999,48,90000,22,80000,40,9999,0.100000,99,990,0.000000,2,1.000000,19.675645,6.102649,99,99,0,0,0,0,0
9,99999,49,90000,22,80000,40,9999,0.100000,99,990,0.000000,2,0.000000,29.801732,3.381756,99,99,0,0,0,0,0
9,99999,50,90000,22,80000,0,9999,0.100000,99,990,6.986530,4,0.000000,14.564635,2.530402,99,99,0,1,0,0,0
9,99999,51,90000,22,80000,40,9999,0.100000,99,990,0.000000,1,1.000000,25.369038,3.197185,99,99,0,0,0,0,0
9,99999,52,90000,22,80000,40,9999,0.100000,99,990,0.000000,3,0.000000,28.707422,0.370459,99,99,0,0,0,0,0
9,99999,53,90000,22,80000,40,9999,0.100000,99,990,0.000000,4,1.000000,21.515108,7.103256,99,99,0,0,0,0,0
9,99999,54,90000,22,80000,40,9999,0.100000,99,990,0.000000,3,0.000000,31.130414,0.130451,99,99,0,0,0,0,0
9,99999,55,90000,22,80000,0,9999,0.100000,99,990,0.529722,2,0.000000,34.426459,0.268816,99,99,0,0,1,0,0
9,99999,56,90000,22,80000,40,9999,0.100000,99,990,0.000000,1,1.000000,24.716858,1.934013,99,99,0,0,0,0,0
9,99999,57,90000,22,80000,40,9999,0.100000,99,990,0.000000,3,0.000000,21.458501,11.196213,99,99,0,0,0,0,0
9,99999,58,90000,22,80000,40,9999,0.100000,99,990,0.000000,2,0.000000,23.595040,0.729512,99,99,0,0,0,0,0
9,99999,59,90000,22,80000,40,9999,0.100000,99,990,0.000000,2,1.000000,22.045034,12.304634,99,99,0,0,0,0,0
9,99999,60,90000,22,80000,40,9999,0.100000,99,990,0.000000,1,0.000000,31.781207,0.113565,99,99,0,0,0,0,0
9,99999,61,90000,22,80000,40,9999,0.100000,99,990,0.000000,3,0.000000,27.212060,5.420207,99,99,0,0,0,0,0
9,99999,62,90000,22,80000,0,9999,0.100000,99,990,0.002360,3,0.000000,19.361931,0.158424,99,99,0,0,1,0,0
9,99999,63,90000,22,80000,40,9999,0.100000,99,990,0.000000,1,1.000000,19.557996,1.605742,99,99,0,0,0,0,0
9,99999,64,90000,22,80000,40,9999,0.100000,99,990,0.000000,3,0.000000,15.015899,0.736580,99,99,0,0,0,0,0
9,99999,65,90000,22,80000,40,9999,0.100000,99,990,0.000000,2,0.000000,25.303832,0.090820,99,99,0,0,0,0,0
9,99999,66,90000,22,80000,40,9999,0.100000,99,990,0.000000,5,1.000000,17.922117,7.060349,99,99,0,0,0,0,0
9,99999,67,90000,22,80000,40,9999,0.100000,99,990,0.000000,2,0.000000,31.389248,0.134075,99,99,0,0,0,0,0
9,99999,68,90000,22,80000,40,9999,0.100000,99,990,0.000000,1,0.000000,28.837747,0.549347,99,99,0,0,0,0,0
9,99999,69,90000,22,80000,0,9999,0.100000,99,990,2.722885,2,0.000000,23.401876,0.644157,99,99,0,0,0,0,1
9,99999,70,90000,22,80000,0,9999,0.100000,99,990,0.029900,3,0.000000,33.106497,0.181892,99,99,0,0,0,1,0
9,99999,71,90000,22,80000,40,9999,0.100000,99,990,0.000000,2,0.000000,19.279735,0.009209,99,99,0,0,0,0,0
9,99999,72,90000,22,80000,40,9999,0.100000,99,990,0.000000,2,2.000000,25.480029,19.923426,99,99,0,0,0,0,0
9,99999,73,90000,22,80000,0,9999,0.100000,99,990,0.648039,4,0.000000,33.430583,0.429099,99,99,0,1,0,0,0
9,99999,74,90000,22,80000,40,9999,0.100000,99,990,0.000000,3,0.000000,27.218044,0.015032,99,99,0,0,0,0,0
9,99999,75,90000,22,80000,40,9999,0.100000,99,990,0.000000,1,1.000000,24.804153,2.119717,99,99,0,0,0,0,0
9,99999,76,90000,22,80000,0,9999,0.100000,99,990,3.448990,2,0.000000,27.737604,0.638632,99,99,0,0,1,0,0
9,99999,77,90000,22,80000,40,9999,0.100000,99,990,0.000000,1,1.000000,24.887543,1.963993,99,99,0,0,0,0,0
9,99999,78,90000,22,80000,40,9999,0.100000,99,990,0.000000,2,0.000000,23.807048,1.005511,99,99,0,0,0,0,0
9,99999,79,90000,22,80000,43,9999,0.100000,99,990,0.000000,3,10.000000,26.918312,10.336286,99,99,0,0,0,0,0
9,99999,80,90000,22,80000,40,9999,0.100000,99,990,0.000000,2,0.000000,17.275751,1.223516,99,99,0,0,0,0,0
9,99999,81,90000,22,80000,0,9999,0.100000,99,990,0.760039,3,0.000000,34.394854,0.315923,99,99,0,0,1,0,0
9,99999,82,90000,22,80000,40,9999,0.100000,99,990,0.000000,4,1.000000,26.924757,4.682344,99,99,0,0,0,0,0
9,99999,83,90000,22,80000,40,9999,0.100000,99,990,0.000000,3,0.000000,17.543454,4.431150,99,99,0,0,0,0,0
9,99999,84,90000,22,80000,40,9999,0.100000,99,990,0.000000,2,0.000000,27.992105,0.392018,99,99,0,0,0,0,0
9,99999,85,90000,22,80000,40,9999,0.100000,99,990,0.000000,2,1.000000,14.342083,7.875153,99,99,0,0,0,0,0
9,99999,86,90000,22,80000,0,9999,0.100000,99,990,0.126565,3,0.000000,27.343009,0.833196,99,99,0,0,0,0,1
9,99999,87,90000,22,80000,40,9999,0.100000,99,990,0.000000,2,0.000000,18.991574,1.677568,99,99,0,0,0,0,0
9,99999,88,90000,22,80000,40,9999,0.100000,99,990,0.000000,2,0.000000,31.838308,2.535065,99,99,0,0,0,0,0
9,99999,89,90000,22,80000,40,9999,0.100000,99,990,0.000000,3,0.000000,33.227287,0.473328,99,99,0,0,0,0,0
9,99999,90,90000,22,80000,40,9999,0.100000,99,990,0.000000,2,0.000000,27.471983,0.963466,99,99,0,0,0,0,0
9,99999,91,90000,22,80000,40,9999,0.100000,99,990,0.000000,2,0.000000,33.435617,2.417168,99,99,0,0,0,0,0
9,99999,92,90000,22,80000,0,9999,0.100000,99,990,0.002367,2,0.000000,20.437769,0.113946,99,99,0,0,0,1,0
9,99999,93,90000,22,80000,0,9999,0.100000,99,990,0.002642,2,0.000000,25.087746,0.105199,99,99,0,0,0,1,0
9,99999,94,90000,22,80000,42,9999,0.100000,99,990,0.000000,3,5.000000,17.020629,19.191287,99,99,0,0,0,0,0
9,99999,95,90000,22,80000,40,9999,0.100000,99,990,0.000000,2,2.000000,21.939439,7.599952,99,99,0,0,0,0,0
9,99999,96,90000,22,80000,40,9999,0.100000,99,990,0.000000,2,1.000000,31.720414,5.804401,99,99,0,0,0,0,0
9,99999,97,90000,22,80000,40,9999,0.100000,99,990,0.000000,4,0.000000,29.300354,0.878264,99,99,0,0,0,0,0
9,99999,98,90000,22,80000,40,9999,0.100000,99,990,0.000000,2,0.000000,28.079516,0.140217,99,99,0,0,0,0,0
9,99999,99,90000,22,80000,40,9999,0.100000,99,990,0.000000,2,0.000000,20.309884,0.092531,99,99,0,0,0,0,0
10,109999,0,100000,43,90000,40,9999,0.100000,99,1089,0.000000,2,0.000000,23.322720,6.972187,99,99,0,0,0,0,0
10,109999,1,100000,16,90000,40,9999,0.100000,99,1089,0.000000,4,1.000000,21.969926,8.580031,99,99,0,0,0,0,0
10,109999,2,100000,16,90000,40,9999,0.100000,99,1089,0.000000,2,0.000000,23.474644,0.797431,99,99,0,0,0,0,0
10,109999,3,100000,43,90000,40,9999,0.100000,99,1089,0.000000,2,0.000000,19.621462,9.688471,99,99,0,0,0,0,0
10,109999,4,100000,16,90000,40,9999,0.100000,99,1089,0.000000,3,0.000000,31.430011,6.385083,99,99,0,0,0,0,0
10,109999,5,100000,16,90000,40,9999,0.100000,99,1089,0.000000,2,0.000000,20.828052,8.131509,99,99,0,0,0,0,0
10,109999,6,100000,16,90000,40,9999,0.100000,99,1089,0.000000,4,1.000000,27.166544,5.124283,99,99,0,0,0,0,0
10,109999,7,100000,43,90000,40,9999,0.100000,99,1089,0.000000,2,0.000000,29.736024,0.960627,99,99,0,0,0,0,0
10,109999,8,100000,16,90000,0,9999,0.100000,99,1089,3.751796,3,1.000000,18.474851,1.529668,99,99,0,0,0,0,1
10,109999,9,100000,43,90000,0,9999,0.100000,99,1089,0.061214,3,0.000000,19.043953,0.162932,99,99,0,0,0,0,1
10,109999,10,100000,43,90000,0,9999,0.100000,99,1089,0.336549,1,1.000000,22.879195,1.949501,99,99,0,1,0,0,0
10,109999,11,100000,43,90000,40,9999,0.100000,99,1089,0.000000,3,0.000000,18.484211,1.056522,99,99,0,0,0,0,0
10,109999,12,100000,43,90000,40,9999,0.100000,99,1089,0.000000,2,0.000000,28.655585,1.681190,99,99,0,0,0,0,0
10,109999,13,100000,43,90000,40,9999,0.100000,99,1089,0.000000,1,0.000000,20.203786,3.246270,99,99,0,0,0,0,0
10,109999,14,100000,43,90000,40,9999,0.100000,99,1089,0.000000,2,0.000000,33.192979,1.596689,99,99,0,0,0,0,0
10,109999,15,100000,43,90000,0,9999,0.100000,99,1089,0.008403,3,0.000000,31.503025,0.135266,99,99,0,0,1,0,0
10,109999,16,100000,43,90000,42,9999,0.100000,99,1089,0.000000,3,7.000000,28.248178,20.649690,99,99,0,0,0,0,0
10,109999,17,100000,16,90000,40,9999,0.100000,99,1089,0.000000,2,1.000000,22.783461,2.343941,99,99,0,0,0,0,0
10,109999,18,100000,16,90000,40,9999,0.100000,99,1089,0.000000,1,0.000000,23.315637,1.137780,99,99,0,0,0,0,0
10,109999,19,100000,16,90000,40,9999,0.100000,99,1089,0.000000,2,0.000000,17.855063,0.239572,99,99,0,0,0,0,0
10,109999,20,100000,16,90000,40,9999,0.100000,99,1089,0.000000,1,1.000000,31.918833,6.929680,99,99,0,0,0,0,0
10,109999,21,100000,43,90000,0,9999,0.100000,99,1089,0.008748,2,0.000000,28.619387,0.120884,99,99,0,0,1,0,0
10,109999,22,100000,16,90000,0,9999,0.100000,99,1089,1.525446,2,0.000000,24.096651,0.864857,99,99,0,0,0,0,1
10,109999,23,100000,16,90000,40,9999,0.100000,99,1089,0.000000,2,0.000000,17.727132,0.268259,99,99,0,0,0,0,0
10,109999,24,100000,43,90000,40,9999,0.100000,99,1089,0.000000,2,0.000000,38.012358,3.397055,99,99,0,0,0,0,0
10,109999,25,100000,43,90000,0,9999,0.100000,99,1089,0.518625,2,0.000000,28.405344,0.142109,99,99,0,0,0,0,1
10,109999,26,100000,43,90000,40,9999,0.100000,99,1089,0.000000,3,0.000000,31.331062,0.115487,99,99,0,0,0,0,0
10,109999,27,100000,16,90000,40,9999,0.100000,99,1089,0.000000,1,0.000000,19.209653,0.160178,99,99,0,0,0,0,0
10,109999,28,100000,43,90000,42,9999,0.100000,99,1089,0.000000,4,4.000000,18.819717,7.231535,99,99,0,0,0,0,0
10,109999,29,100000,16,90000,0,9999,0.100000,99,1089,0.000724,1,0.000000,32.983770,0.074230,99,99,0,0,0,0,1
10,109999,30,100000,16,90000,0,9999,0.100000,99,1089,2.145263,2,0.000000,28.216951,0.547299,99,99,0,0,0,0,1
10,109999,31,100000,16,90000,40,9999,0.100000,99,1089,0.000000,1,0.000000,30.728409,0.314266,99,99,0,0,0,0,0
10,109999,32,100000,43,90000,40,9999,0.100000,99,1089,0.000000,2,0.000000,28.262747,0.131590,99,99,0,0,0,0,0
10,109999,33,100000,16,90000,0,9999,0.100000,99,1089,0.324076,2,0.000000,31.531948,0.114054,99,99,0,0,0,0,1
10,109999,34,100000,16,90000,40,9999,0.100000,99,1089,0.000000,2,1.000000,19.420987,15.630584,99,99,0,0,0,0,0
10,109999,35,100000,16,90000,40,9999,0.100000,99,1089,0.000000,2,1.000000,18.926818,1.240544,99,99,0,0,0,0,0
10,109999,36,100000,43,90000,0,9999,0.100000,99,1089,0.201333,3,0.000000,14.856964,0.672051,99,99,0,0,0,0,1
10,109999,37,100000,43,90000,0,9999,0.100000,99,1089,0.896789,3,0.000000,28.921753,1.545314,99,99,0,1,0,0,0
10,109999,38,100000,43,90000,40,9999,0.100000,99,1089,0.000000,3,0.000000,12.033403,2.411579,99,99,0,0,0,0,0
10,109999,39,100000,16,90000,40,9999,0.100000,99,1089,0.000000,5,1.000000,27.110021,5.021176,99,99,0,0,0,0,0
10,109999,40,100000,43,90000,40,9999,0.100000,99,1089,0.000000,1,0.000000,19.188118,1.149156,99,99,0,0,0,0,0
10,109999,41,100000,43,90000,0,9999,0.100000,99,1089,0.000000,3,0.000000,34.777022,3.993436,99,99,0,0,1,0,0
10,109999,42,100000,16,90000,0,9999,0.100000,99,1089,0.047539,4,0.000000,29.004661,0.169264,99,99,0,0,0,1,0
10,109999,43,100000,16,90000,40,9999,0.100000,99,1089,0.000000,3,2.000000,27.009627,5.443735,99,99,0,0,0,0,0
10,109999,44,100000,43,90000,40,9999,0.100000,99,1089,0.000000,2,0.000000,33.458522,2.407268,99,99,0,0,0,0,0
10,109999,45,100000,43,90000,41,9999,0.100000,99,1089,0.000000,3,3.000000,25.244887,7.110753,99,99,0,0,0,0,0
10,109999,46,100000,43,90000,40,9999,0.100000,99,1089,0.000000,2,1.000000,18.725650,1.294193,99,99,0,0,0,0,0
10,109999,47,100000,43,90000,40,9999,0.100000,99,1089,0.000000,3,0.000000,27.321177,0.009369,99,99,0,0,0,0,0
10,109999,48,100000,16,90000,40,9999,0.100000,99,1089,0.000000,2,1.000000,18.597492,7.252474,99,99,0,0,0,0,0
10,109999,49,100000,16,90000,40,9999,0.100000,99,1089,0.000000,2,0.000000,29.798254,3.159390,99,99,0,0,0,0,0
10,109999,50,100000,43,90000,0,9999,0.100000,99,1089,3.072521,4,0.000000,15.126937,1.101578,99,99,0,1,0,0,0
10,109999,51,100000,43,90000,40,9999,0.100000,99,1089,0.000000,1,2.000000,24.443670,24.501254,99,99,0,0,0,0,0
10,109999,52,100000,16,90000,40,9999,0.100000,99,1089,0.000000,3,0.000000,28.542499,0.346500,99,99,0,0,0,0,0
10,109999,53,100000,16,90000,40,9999,0.100000,99,1089,0.000000,4,0.000000,22.762630,6.346837,99,99,0,0,0,0,0
10,109999,54,100000,43,90000,40,9999,0.100000,99,1089,0.000000,3,0.000000,31.080149,0.132102,99,99,0,0,0,0,0
10,109999,55,100000,16,90000,40,9999,0.100000,99,1089,0.000000,3,0.000000,34.523341,1.244914,99,99,0,0,0,0,0
10,109999,56,100000,16,90000,40,9999,0.100000,99,1089,0.000000,1,0.000000,23.676437,0.902084,99,99,0,0,0,0,0
10,109999,57,100000,43,90000,40,9999,0.100000,99,1089,0.000000,3,0.000000,21.477814,6.597464,99,99,0,0,0,0,0
10,109999,58,100000,16,90000,40,9999,0.100000,99,1089,0.000000,2,0.000000,23.814098,0.424539,99,99,0,0,0,0,0
10,109999,59,100000,16,90000,41,9999,0.100000,99,1089,0.000000,2,3.000000,21.101387,14.934428,99,99,0,0,0,0,0
10,109999,60,100000,16,90000,40,9999,0.100000,99,1089,0.000000,1,0.000000,31.749228,0.116588,99,99,0,0,0,0,0
10,109999,61,100000,43,90000,40,9999,0.100000,99,1089,0.000000,3,1.000000,27.883475,3.193453,99,99,0,0,0,0,0
10,109999,62,100000,43,90000,0,9999,0.100000,99,1089,0.002504,3,0.000000,19.370237,0.155978,99,99,0,0,1,0,0
10,109999,63,100000,43,90000,40,9999,0.100000,99,1089,0.000000,1,0.000000,19.403811,1.141575,99,99,0,0,0,0,0
10,109999,64,100000,43,90000,40,9999,0.100000,99,1089,0.000000,3,0.000000,14.942381,0.683169,99,99,0,0,0,0,0
10,109999,65,100000,43,90000,40,9999,0.100000,99,1089,0.000000,2,0.000000,25.300523,0.089776,99,99,0,0,0,0,0
10,109999,66,100000,16,90000,40,9999,0.100000,99,1089,0.000000,5,1.000000,18.514960,12.187139,99,99,0,0,0,0,0
10,109999,67,100000,43,90000,40,9999,0.100000,99,1089,0.000000,2,0.000000,31.395067,0.138794,99,99,0,0,0,0,0
10,109999,68,100000,43,90000,40,9999,0.100000,99,1089,0.000000,1,0.000000,28.831454,0.302034,99,99,0,0,0,0,0
10,109999,69,100000,16,90000,0,9999,0.100000,99,1089,1.508782,2,0.000000,23.595402,0.538387,99,99,0,0,0,0,1
10,109999,70,100000,16,90000,0,9999,0.100000,99,1089,0.027446,3,2.000000,33.104840,10.968011,99,99,0,0,0,1,0
10,109999,71,100000,16,90000,40,9999,0.100000,99,1089,0.000000,2,0.000000,19.279624,0.786640,99,99,0,0,0,0,0
10,109999,72,100000,43,90000,40,9999,0.100000,99,1089,0.000000,2,0.000000,24.315450,0.530241,99,99,0,0,0,0,0
10,109999,73,100000,16,90000,0,9999,0.100000,99,1089,1.074688,4,0.000000,33.523311,0.536572,99,99,0,1,0,0,0
10,109999,74,100000,43,90000,40,9999,0.100000,99,1089,0.000000,3,0.000000,27.216319,0.009251,99,99,0,0,0,0,0
10,109999,75,100000,16,90000,40,9999,0.100000,99,1089,0.000000,1,0.000000,23.740750,1.581082,99,99,0,0,0,0,0
10,109999,76,100000,43,90000,0,9999,0.100000,99,1089,0.000000,2,0.000000,28.253256,9.577910,99,99,0,0,1,0,0
10,109999,77,100000,16,90000,40,9999,0.100000,99,1089,0.000000,1,0.000000,23.864346,2.600403,99,99,0,0,0,0,0
10,109999,78,100000,16,90000,40,9999,0.100000,99,1089,0.000000,2,0.000000,24.049633,0.546767,99,99,0,0,0,0,0
10,109999,79,100000,16,90000,40,9999,0.100000,99,1089,0.000000,4,0.000000,30.316832,0.857562,99,99,0,0,0,0,0
10,109999,80,100000,16,90000,40,9999,0.100000,99,1089,0.000000,2,0.000000,16.707851,0.835099,99,99,0,0,0,0,0
10,109999,81,100000,43,90000,0,9999,0.100000,99,1089,0.745930,3,0.000000,34.498351,0.326752,99,99,0,0,1,0,0
10,109999,82,100000,43,90000,40,9999,0.100000,99,1089,0.000000,4,0.000000,28.016207,2.577914,99,99,0,0,0,0,0
10,109999,83,100000,16,90000,40,9999,0.100000,99,1089,0.000000,3,0.000000,17.832344,5.631187,99,99,0,0,0,0,0
10,109999,84,100000,43,90000,0,9999,0.100000,99,1089,0.000000,2,1.000000,28.266488,7.180287,99,99,0,0,1,0,0
10,109999,85,100000,43,90000,40,9999,0.100000,99,1089,0.000000,2,0.000000,15.415564,0.952648,99,99,0,0,0,0,0
10,109999,86,100000,43,90000,0,9999,0.100000,99,1089,0.025226,4,0.000000,27.292863,0.195224,99,99,0,0,0,0,1
10,109999,87,100000,43,90000,40,9999,0.100000,99,1089,0.000000,2,0.000000,18.871000,0.153832,99,99,0,0,0,0,0
10,109999,88,100000,16,90000,40,9999,0.100000,99,1089,0.000000,2,0.000000,31.856312,2.523149,99,99,0,0,0,0,0
10,109999,89,100000,16,90000,40,9999,0.100000,99,1089,0.000000,3,0.000000,33.318068,0.603443,99,99,0,0,0,0,0
10,109999,90,100000,16,90000,2,9999,0.100000,99,1089,0.000000,2,7.000000,28.237076,18.978690,99,99,0,0,1,0,0
10,109999,91,100000,43,90000,40,9999,0.100000,99,1089,0.000000,2,0.000000,33.723887,3.100772,99,99,0,0,0,0,0
10,109999,92,100000,43,90000,0,9999,0.100000,99,1089,0.006752,2,0.000000,20.440040,0.168866,99,99,0,0,0,1,0
10,109999,93,100000,43,90000,0,9999,0.100000,99,1089,0.002378,2,0.000000,25.084775,0.102930,99,99,0,0,0,1,0
10,109999,94,100000,16,90000,41,9999,0.100000,99,1089,0.000000,4,2.000000,17.439929,20.926847,99,99,0,0,0,0,0
10,109999,95,100000,16,90000,40,9999,0.100000,99,1089,0.000000,2,1.000000,21.253635,5.905769,99,99,0,0,0,0,0
10,109999,96,100000,16,90000,40,9999,0.100000,99,1089,0.000000,2,0.000000,30.745884,5.062991,99,99,0,0,0,0,0
10,109999,97,100000,43,90000,40,9999,0.100000,99,1089,0.000000,4,0.000000,29.170281,0.128847,99,99,0,0,0,0,0
10,109999,98,100000,16,90000,40,9999,0.100000,99,1089,0.000000,2,0.000000,28.075340,0.129688,99,99,0,0,0,0,0
10,109999,99,100000,16,90000,40,9999,0.100000,99,1089,0.000000,2,0.000000,20.309019,0.082718,99,99,0,0,0,0,0
11,119999,0,110000,8,100000,40,9999,0.100000,99,1188,0.000000,2,0.000000,22.416143,6.701692,99,99,0,0,0,0,0
11,119999,1,110000,8,100000,40,9999,0.100000,99,1188,0.000000,4,2.000000,20.711816,21.006321,99,99,0,0,0,0,0
11,119999,2,110000,8,100000,0,9999,0.100000,99,1188,0.107061,2,0.000000,23.122913,0.762871,99,99,0,0,0,0,1
11,119999,3,110000,8,100000,40,9999,0.100000,99,1188,0.000000,2,1.000000,18.903091,8.072303,99,99,0,0,0,0,0
11,119999,4,110000,8,100000,40,9999,0.100000,99,1188,0.000000,3,1.000000,31.341353,4.681101,99,99,0,0,0,0,0
11,119999,5,110000,8,100000,40,9999,0.100000,99,1188,0.000000,2,1.000000,21.111838,8.864939,99,99,0,0,0,0,0
11,119999,6,110000,8,100000,40,9999,0.100000,99,1188,0.000000,4,0.000000,26.451003,1.321927,99,99,0,0,0,0,0
11,119999,7,110000,8,100000,40,9999,0.100000,99,1188,0.000000,2,0.000000,30.028988,1.335037,99,99,0,0,0,0,0
11,119999,8,110000,50,100000,0,9999,0.100000,99,1188,0.202031,3,0.000000,18.437127,0.697483,99,99,0,0,0,0,1
11,119999,9,110000,8,100000,0,9999,0.100000,99,1188,0.315194,3,0.000000,19.082262,0.112433,99,99,0,0,0,0,1
11,119999,10,110000,8,100000,0,9999,0.100000,99,1188,2.582000,1,1.000000,23.838132,1.881328,99,99,0,1,0,0,0
11,119999,11,110000,8,100000,40,9999,0.100000,99,1188,0.000000,3,0.000000,18.530988,0.276836,99,99,0,0,0,0,0
11,119999,12,110000,8,100000,0,9999,0.100000,99,1188,0.274069,2,2.000000,29.015737,4.939270,99,99,0,0,0,0,1
11,119999,13,110000,8,100000,40,9999,0.100000,99,1188,0.000000,1,0.000000,19.556156,7.559847,99,99,0,0,0,0,0
11,119999,14,110000,8,100000,0,9999,0.100000,99,1188,2.796073,3,1.000000,33.361199,8.411947,99,99,0,0,1,0,0
11,119999,15,110000,8,100000,0,9999,0.100000,99,1188,0.006568,3,0.000000,31.508297,0.131757,99,99,0,0,1,0,0
11,119999,16,110000,8,100000,40,9999,0.100000,99,1188,0.000000,3,0.000000,26.908143,1.387296,99,99,0,0,0,0,0
11,119999,17,110000,8,100000,40,9999,0.100000,99,1188,0.000000,2,0.000000,24.201126,6.812401,99,99,0,0,0,0,0
11,119999,18,110000,8,100000,40,9999,0.100000,99,1188,0.000000,2,0.000000,23.185592,0.715536,99,99,0,0,0,0,0
11,119999,19,110000,8,100000,40,9999,0.100000,99,1188,0.000000,2,0.000000,17.864525,0.200865,99,99,0,0,0,0,0
11,119999,20,110000,8,100000,40,9999,0.100000,99,1188,0.000000,1,1.000000,31.246267,2.959638,99,99,0,0,0,0,0
11,119999,21,110000,8,100000,0,9999,0.100000,99,1188,0.011485,2,0.000000,28.616171,0.084150,99,99,0,0,1,0,0
11,119999,22,110000,8,100000,40,9999,0.100000,99,1188,0.000000,2,0.000000,23.806016,0.761108,99,99,0,0,0,0,0
11,119999,23,110000,8,100000,40,9999,0.100000,99,1188,0.000000,2,0.000000,17.722095,0.276422,99,99,0,0,0,0,0
11,119999,24,110000,8,100000,40,9999,0.100000,99,1188,0.000000,2,0.000000,38.014198,3.496996,99,99,0,0,0,0,0
11,119999,25,110000,8,100000,0,9999,0.100000,99,1188,0.486949,2,0.000000,28.294121,0.126576,99,99,0,0,0,0,1
11,119999,26,110000,8,100000,0,9999,0.100000,99,1188,0.314578,3,0.000000,31.289056,0.118460,99,99,0,0,0,0,1
11,119999,27,110000,8,100000,40,9999,0.100000,99,1188,0.000000,1,0.000000,19.244548,0.100720,99,99,0,0,0,0,0
11,119999,28,110000,8,100000,43,9999,0.100000,99,1188,0.000000,4,9.000000,21.809282,10.641674,99,99,0,0,0,0,0
11,119999,29,110000,8,100000,0,9999,0.100000,99,1188,0.000917,1,0.000000,32.983149,0.074768,99,99,0,0,0,0,1
11,119999,30,110000,8,100000,0,9999,0.100000,99,1188,1.467157,2,0.000000,28.622766,2.806884,99,99,0,0,0,0,1
11,119999,31,110000,8,100000,40,9999,0.100000,99,1188,0.000000,1,0.000000,30.679291,0.312696,99,99,0,0,0,0,0
11,119999,32,110000,8,100000,40,9999,0.100000,99,1188,0.000000,2,0.000000,28.195835,0.120714,99,99,0,0,0,0,0
11,119999,33,110000,8,100000,40,9999,0.100000,99,1188,0.000000,2,0.000000,31.494900,0.111240,99,99,0,0,0,0,0
11,119999,34,110000,8,100000,40,9999,0.100000,99,1188,0.000000,2,2.000000,19.134922,17.160752,99,99,0,0,0,0,0
11,119999,35,110000,8,100000,40,9999,0.100000,99,1188,0.000000,2,0.000000,18.864748,0.762134,99,99,0,0,0,0,0
11,119999,36,110000,8,100000,0,9999,0.100000,99,1188,0.106337,3,0.000000,14.783824,0.774122,99,99,0,0,0,0,1
11,119999,37,110000,8,100000,0,9999,0.100000,99,1188,0.254166,3,0.000000,28.598374,0.149518,99,99,0,1,0,0,0
11,119999,38,110000,8,100000,40,9999,0.100000,99,1188,0.000000,3,0.000000,12.717201,5.929942,99,99,0,0,0,0,0
11,119999,39,110000,8,100000,41,9999,0.100000,99,1188,0.000000,5,5.000000,25.910171,14.248274,99,99,0,0,0,0,0
11,119999,40,110000,8,100000,40,9999,0.100000,99,1188,0.000000,1,0.000000,19.123788,0.964225,99,99,0,0,0,0,0
11,119999,41,110000,8,100000,40,9999,0.100000,99,1188,0.000000,3,0.000000,34.764431,3.956486,99,99,0,0,0,0,0
11,119999,42,110000,8,100000,0,9999,0.100000,99,1188,0.015635,4,0.000000,29.018017,0.153404,99,99,0,0,0,1,0
11,119999,43,110000,8,100000,40,9999,0.100000,99,1188,0.000000,3,1.000000,24.198041,2.943115,99,99,0,0,0,0,0
11,119999,44,110000,8,100000,0,9999,0.100000,99,1188,6.521100,2,1.000000,33.612818,6.011947,99,99,0,0,1,0,0
11,119999,45,110000,8,100000,40,9999,0.100000,99,1188,0.000000,3,0.000000,22.685026,6.009364,99,99,0,0,0,0,0
11,119999,46,110000,8,100000,40,9999,0.100000,99,1188,0.000000,2,0.000000,18.669528,0.778566,99,99,0,0,0,0,0
11,119999,47,110000,8,100000,40,9999,0.100000,99,1188,0.000000,3,0.000000,27.321130,0.009280,99,99,0,0,0,0,0
11,119999,48,110000,8,100000,40,9999,0.100000,99,1188,0.000000,2,1.000000,17.786987,22.026535,99,99,0,0,0,0,0
11,119999,49,110000,8,100000,40,9999,0.100000,99,1188,0.000000,2,0.000000,29.801577,3.106357,99,99,0,0,0,0,0
11,119999,50,110000,8,100000,0,9999,0.100000,99,1188,2.674430,4,0.000000,15.696588,1.750154,99,99,0,1,0,0,0
11,119999,51,110000,8,100000,40,9999,0.100000,99,1188,0.000000,1,2.000000,24.258745,8.186988,99,99,0,0,0,0,0
11,119999,52,110000,8,100000,40,9999,0.100000,99,1188,0.000000,3,0.000000,28.379037,0.325278,99,99,0,0,0,0,0
