generation,iteration,robot,birthday,ancestor_id,ancestor_birthday,cell_id,age,sigma,maps,genomes,fitness,cells_in_map,dist_max,dist_pot_max,dist_total,com_rx,com_tx,obj_group1,obj_group2,obj_group3,obj_group4,obj_group5
0,9999,0,0,0,0,49,9999,0.100000,0,0,0.000000,0,6.000000,0.000000,9.480754,0,0,0,0,0,0,0
0,9999,1,0,1,0,49,9999,0.100000,0,0,0.000000,0,10.000000,0.000000,17.760112,0,0,0,0,0,0,0
0,9999,2,0,2,0,49,9999,0.100000,0,0,0.000000,0,8.000000,0.000000,9.625268,0,0,0,0,0,0,0
0,9999,3,0,3,0,49,9999,0.100000,0,0,0.000000,0,4.000000,0.000000,4.712881,0,0,0,0,0,0,0
0,9999,4,0,4,0,49,9999,0.100000,0,0,0.000000,0,6.000000,0.000000,18.986921,0,0,0,0,0,0,0
0,9999,5,0,5,0,49,9999,0.100000,0,0,0.000000,0,9.000000,0.000000,22.716225,0,0,0,0,0,0,0
0,9999,6,0,6,0,49,9999,0.100000,0,0,0.000000,0,7.000000,0.000000,10.789184,0,0,0,0,0,0,0
0,9999,7,0,7,0,49,9999,0.100000,0,0,0.000000,0,8.000000,0.000000,8.095017,0,0,0,0,0,0,0
0,9999,8,0,8,0,49,9999,0.100000,0,0,0.000000,0,9.000000,0.000000,19.686336,0,0,0,0,0,0,0
0,9999,9,0,9,0,99,9999,0.100000,0,0,47.368421,0,12.000000,0.000000,34.293643,0,0,1,0,0,0,0
0,9999,10,0,10,0,49,9999,0.100000,0,0,0.000000,0,2.000000,0.000000,4.522567,0,0,0,0,0,0,0
0,9999,11,0,11,0,49,9999,0.100000,0,0,0.000000,0,6.000000,0.000000,8.938707,0,0,0,0,0,0,0
0,9999,12,0,12,0,49,9999,0.100000,0,0,0.000000,0,4.000000,0.000000,4.955814,0,0,0,0,0,0,0
0,9999,13,0,13,0,49,9999,0.100000,0,0,0.000000,0,12.000000,0.000000,19.871978,0,0,0,0,0,0,0
0,9999,14,0,14,0,49,9999,0.100000,0,0,0.000000,0,11.000000,0.000000,19.517467,0,0,0,0,0,0,0
0,9999,15,0,15,0,49,9999,0.100000,0,0,0.000000,0,7.000000,0.000000,13.263518,0,0,0,0,0,0,0
0,9999,16,0,16,0,49,9999,0.100000,0,0,0.000000,0,8.000000,0.000000,9.843336,0,0,0,0,0,0,0
0,9999,17,0,17,0,49,9999,0.100000,0,0,0.000000,0,3.000000,0.000000,3.687428,0,0,0,0,0,0,0
0,9999,18,0,18,0,49,9999,0.100000,0,0,0.000000,0,2.000000,0.000000,7.903711,0,0,0,0,0,0,0
0,9999,19,0,19,0,49,9999,0.100000,0,0,0.000000,0,9.000000,0.000000,17.979889,0,0,0,0,0,0,0
0,9999,20,0,20,0,49,9999,0.100000,0,0,0.000000,0,8.000000,0.000000,19.450591,0,0,0,0,0,0,0
0,9999,21,0,21,0,49,9999,0.100000,0,0,0.000000,0,6.000000,0.000000,6.867321,0,0,0,0,0,0,0
0,9999,22,0,22,0,49,9999,0.100000,0,0,0.000000,0,3.000000,0.000000,7.148904,0,0,0,0,0,0,0
0,9999,23,0,23,0,49,9999,0.100000,0,0,0.000000,0,7.000000,0.000000,9.529346,0,0,0,0,0,0,0
0,9999,24,0,24,0,49,9999,0.100000,0,0,0.000000,0,8.000000,0.000000,15.205668,0,0,0,0,0,0,0
0,9999,25,0,25,0,49,9999,0.100000,0,0,0.000000,0,9.000000,0.000000,27.954270,0,0,0,0,0,0,0
0,9999,26,0,26,0,49,9999,0.100000,0,0,0.000000,0,7.000000,0.000000,8.672049,0,0,0,0,0,0,0
0,9999,27,0,27,0,49,9999,0.100000,0,0,0.000000,0,6.000000,0.000000,10.878092,0,0,0,0,0,0,0
0,9999,28,0,28,0,49,9999,0.100000,0,0,0.000000,0,5.000000,0.000000,5.787057,0,0,0,0,0,0,0
0,9999,29,0,29,0,49,9999,0.100000,0,0,0.000000,0,8.000000,0.000000,9.345176,0,0,0,0,0,0,0
0,9999,30,0,30,0,49,9999,0.100000,0,0,0.000000,0,10.000000,0.000000,13.614855,0,0,0,0,0,0,0
0,9999,31,0,31,0,49,9999,0.100000,0,0,0.000000,0,8.000000,0.000000,12.123969,0,0,0,0,0,0,0
0,9999,32,0,32,0,49,9999,0.100000,0,0,0.000000,0,9.000000,0.000000,20.542809,0,0,0,0,0,0,0
0,9999,33,0,33,0,49,9999,0.100000,0,0,0.000000,0,7.000000,0.000000,10.394692,0,0,0,0,0,0,0
0,9999,34,0,34,0,49,9999,0.100000,0,0,0.000000,0,9.000000,0.000000,16.774309,0,0,0,0,0,0,0
0,9999,35,0,35,0,49,9999,0.100000,0,0,0.000000,0,4.000000,0.000000,6.594652,0,0,0,0,0,0,0
0,9999,36,0,36,0,49,9999,0.100000,0,0,0.000000,0,5.000000,0.000000,7.084982,0,0,0,0,0,0,0
0,9999,37,0,37,0,49,9999,0.100000,0,0,0.000000,0,9.000000,0.000000,23.342385,0,0,0,0,0,0,0
0,9999,38,0,38,0,49,9999,0.100000,0,0,0.000000,0,1.000000,0.000000,6.677376,0,0,0,0,0,0,0
0,9999,39,0,39,0,49,9999,0.100000,0,0,0.000000,0,7.000000,0.000000,12.086966,0,0,0,0,0,0,0
0,9999,40,0,40,0,49,9999,0.100000,0,0,0.000000,0,10.000000,0.000000,24.058053,0,0,0,0,0,0,0
0,9999,41,0,41,0,49,9999,0.100000,0,0,0.000000,0,11.000000,0.000000,13.522322,0,0,0,0,0,0,0
0,9999,42,0,42,0,49,9999,0.100000,0,0,0.000000,0,7.000000,0.000000,8.755331,0,0,0,0,0,0,0
0,9999,43,0,43,0,49,9999,0.100000,0,0,0.000000,0,9.000000,0.000000,10.534967,0,0,0,0,0,0,0
0,9999,44,0,44,0,49,9999,0.100000,0,0,0.000000,0,7.000000,0.000000,7.702313,0,0,0,0,0,0,0
0,9999,45,0,45,0,49,9999,0.100000,0,0,0.000000,0,5.000000,0.000000,19.042401,0,0,0,0,0,0,0
0,9999,46,0,46,0,49,9999,0.100000,0,0,0.000000,0,6.000000,0.000000,12.310526,0,0,0,0,0,0,0
0,9999,47,0,47,0,49,9999,0.100000,0,0,0.000000,0,9.000000,0.000000,9.597891,0,0,0,0,0,0,0
0,9999,48,0,48,0,49,9999,0.100000,0,0,0.000000,0,9.000000,0.000000,18.472961,0,0,0,0,0,0,0
0,9999,49,0,49,0,49,9999,0.100000,0,0,0.000000,0,10.000000,0.000000,16.052061,0,0,0,0,0,0,0
0,9999,50,0,50,0,49,9999,0.100000,0,0,0.000000,0,7.000000,0.000000,9.861733,0,0,0,0,0,0,0
0,9999,51,0,51,0,49,9999,0.100000,0,0,0.000000,0,11.000000,0.000000,21.034263,0,0,0,0,0,0,0
0,9999,52,0,52,0,49,9999,0.100000,0,0,0.000000,0,6.000000,0.000000,7.861379,0,0,0,0,0,0,0
0,9999,53,0,53,0,49,9999,0.100000,0,0,0.000000,0,8.000000,0.000000,13.255274,0,0,0,0,0,0,0
0,9999,54,0,54,0,49,9999,0.100000,0,0,0.000000,0,5.000000,0.000000,7.758642,0,0,0,0,0,0,0
0,9999,55,0,55,0,49,9999,0.100000,0,0,0.000000,0,6.000000,0.000000,7.465615,0,0,0,0,0,0,0
0,9999,56,0,56,0,49,9999,0.100000,0,0,0.000000,0,9.000000,0.000000,13.555699,0,0,0,0,0,0,0
0,9999,57,0,57,0,49,9999,0.100000,0,0,0.000000,0,9.000000,0.000000,11.376862,0,0,0,0,0,0,0
0,9999,58,0,58,0,49,9999,0.100000,0,0,0.000000,0,9.000000,0.000000,26.912087,0,0,0,0,0,0,0
0,9999,59,0,59,0,49,9999,0.100000,0,0,0.000000,0,7.000000,0.000000,15.293269,0,0,0,0,0,0,0
0,9999,60,0,60,0,49,9999,0.100000,0,0,0.000000,0,8.000000,0.000000,13.545977,0,0,0,0,0,0,0
0,9999,61,0,61,0,49,9999,0.100000,0,0,0.000000,0,5.000000,0.000000,8.674005,0,0,0,0,0,0,0
0,9999,62,0,62,0,49,9999,0.100000,0,0,0.000000,0,12.000000,0.000000,18.079787,0,0,0,0,0,0,0
0,9999,63,0,63,0,49,9999,0.100000,0,0,0.000000,0,2.000000,0.000000,11.958070,0,0,0,0,0,0,0
0,9999,64,0,64,0,49,9999,0.100000,0,0,0.000000,0,6.000000,0.000000,8.050502,0,0,0,0,0,0,0
0,9999,65,0,65,0,49,9999,0.100000,0,0,0.000000,0,7.000000,0.000000,12.843158,0,0,0,0,0,0,0
0,9999,66,0,66,0,49,9999,0.100000,0,0,0.000000,0,10.000000,0.000000,11.508642,0,0,0,0,0,0,0
0,9999,67,0,67,0,49,9999,0.100000,0,0,0.000000,0,8.000000,0.000000,10.685462,0,0,0,0,0,0,0
0,9999,68,0,68,0,49,9999,0.100000,0,0,0.000000,0,8.000000,0.000000,16.924055,0,0,0,0,0,0,0
0,9999,69,0,69,0,49,9999,0.100000,0,0,0.000000,0,10.000000,0.000000,14.985406,0,0,0,0,0,0,0
0,9999,70,0,70,0,49,9999,0.100000,0,0,0.000000,0,3.000000,0.000000,7.467500,0,0,0,0,0,0,0
0,9999,71,0,71,0,49,9999,0.100000,0,0,0.000000,0,3.000000,0.000000,7.451874,0,0,0,0,0,0,0
0,9999,72,0,72,0,49,9999,0.100000,0,0,0.000000,0,2.000000,0.000000,14.147463,0,0,0,0,0,0,0
0,9999,73,0,73,0,49,9999,0.100000,0,0,0.000000,0,2.000000,0.000000,5.727311,0,0,0,0,0,0,0
0,9999,74,0,74,0,49,9999,0.100000,0,0,0.000000,0,9.000000,0.000000,9.702077,0,0,0,0,0,0,0
0,9999,75,0,75,0,49,9999,0.100000,0,0,0.000000,0,5.000000,0.000000,6.521602,0,0,0,0,0,0,0
0,9999,76,0,76,0,49,9999,0.100000,0,0,0.000000,0,9.000000,0.000000,11.903524,0,0,0,0,0,0,0
0,9999,77,0,77,0,49,9999,0.100000,0,0,0.000000,0,11.000000,0.000000,22.093973,0,0,0,0,0,0,0
0,9999,78,0,78,0,49,9999,0.100000,0,0,0.000000,0,7.000000,0.000000,7.714665,0,0,0,0,0,0,0
0,9999,79,0,79,0,49,9999,0.100000,0,0,0.000000,0,8.000000,0.000000,9.955593,0,0,0,0,0,0,0
0,9999,80,0,80,0,49,9999,0.100000,0,0,0.000000,0,11.000000,0.000000,14.590753,0,0,0,0,0,0,0
0,9999,81,0,81,0,49,9999,0.100000,0,0,0.000000,0,7.000000,0.000000,18.689384,0,0,0,0,0,0,0
0,9999,82,0,82,0,49,9999,0.100000,0,0,0.000000,0,10.000000,0.000000,16.945475,0,0,0,0,0,0,0
0,9999,83,0,83,0,49,9999,0.100000,0,0,0.000000,0,6.000000,0.000000,14.156063,0,0,0,0,0,0,0
0,9999,84,0,84,0,49,9999,0.100000,0,0,0.000000,0,9.000000,0.000000,17.996131,0,0,0,0,0,0,0
0,9999,85,0,85,0,49,9999,0.100000,0,0,0.000000,0,10.000000,0.000000,17.625157,0,0,0,0,0,0,0
0,9999,86,0,86,0,49,9999,0.100000,0,0,0.000000,0,6.000000,0.000000,11.053525,0,0,0,0,0,0,0
0,9999,87,0,87,0,49,9999,0.100000,0,0,0.000000,0,9.000000,0.000000,16.498066,0,0,0,0,0,0,0
0,9999,88,0,88,0,49,9999,0.100000,0,0,0.000000,0,7.000000,0.000000,15.557852,0,0,0,0,0,0,0
0,9999,89,0,89,0,49,9999,0.100000,0,0,0.000000,0,14.000000,0.000000,22.346916,0,0,0,0,0,0,0
0,9999,90,0,90,0,49,9999,0.100000,0,0,0.000000,0,10.000000,0.000000,13.104430,0,0,0,0,0,0,0
0,9999,91,0,91,0,49,9999,0.100000,0,0,0.000000,0,9.000000,0.000000,13.520515,0,0,0,0,0,0,0
0,9999,92,0,92,0,49,9999,0.100000,0,0,0.000000,0,5.000000,0.000000,12.363747,0,0,0,0,0,0,0
0,9999,93,0,93,0,49,9999,0.100000,0,0,0.000000,0,8.000000,0.000000,27.016866,0,0,0,0,0,0,0
0,9999,94,0,94,0,49,9999,0.100000,0,0,0.000000,0,4.000000,0.000000,16.566640,0,0,0,0,0,0,0
0,9999,95,0,95,0,49,9999,0.100000,0,0,0.000000,0,10.000000,0.000000,17.341273,0,0,0,0,0,0,0
0,9999,96,0,96,0,49,9999,0.100000,0,0,0.000000,0,10.000000,0.000000,29.229757,0,0,0,0,0,0,0
0,9999,97,0,97,0,49,9999,0.100000,0,0,0.000000,0,13.000000,0.000000,22.587199,0,0,0,0,0,0,0
0,9999,98,0,98,0,49,9999,0.100000,0,0,0.000000,0,5.000000,0.000000,6.590735,0,0,0,0,0,0,0
0,9999,99,0,99,0,49,9999,0.100000,0,0,0.000000,0,8.000000,0.000000,25.169663,0,0,0,0,0,0,0
1,19999,0,10000,0,0,40,9999,0.100000,0,0,0.000000,1,0.000000,0.000000,1.114383,0,0,0,0,0,0,0
1,19999,1,10000,1,0,40,9999,0.100000,0,0,0.000000,3,0.000000,0.000000,1.121479,0,0,0,0,0,0,0
1,19999,2,10000,0,0,40,9999,0.100000,0,0,0.000000,2,0.000000,0.000000,1.393726,0,0,0,0,0,0,0
1,19999,3,10000,80,0,40,9999,0.100000,0,0,0.000000,3,0.000000,0.000000,0.407549,0,0,0,0,0,0,0
1,19999,4,10000,97,0,49,9999,0.100000,0,0,0.000000,3,1.000000,0.000000,7.782115,0,0,0,0,0,0,0
1,19999,5,10000,1,0,49,9999,0.100000,0,0,0.000000,3,6.000000,0.000000,11.174187,0,0,0,0,0,0,0
1,19999,6,10000,49,0,40,9999,0.100000,0,0,0.000000,3,0.000000,0.000000,0.097076,0,0,0,0,0,0,0
1,19999,7,10000,8,0,40,9999,0.100000,0,0,0.000000,3,0.000000,0.000000,0.120894,0,0,0,0,0,0,0
1,19999,8,0,8,0,40,19999,0.100000,0,0,0.000000,3,0.000000,0.000000,2.588346,0,0,0,0,0,0,0
1,19999,9,10000,9,0,49,9999,0.100000,0,0,0.000000,3,3.000000,0.000000,13.652279,0,0,0,0,0,0,0
1,19999,10,10000,1,0,40,9999,0.100000,0,0,0.000000,3,0.000000,0.000000,0.769561,0,0,0,0,0,0,0
1,19999,11,10000,1,0,40,9999,0.100000,0,0,0.000000,3,0.000000,0.000000,0.076739,0,0,0,0,0,0,0
1,19999,12,10000,97,0,40,9999,0.100000,0,0,0.000000,3,0.000000,0.000000,0.164887,0,0,0,0,0,0,0
1,19999,13,10000,8,0,49,9999,0.100000,0,0,0.000000,3,2.000000,0.000000,6.576130,0,0,0,0,0,0,0
1,19999,14,10000,80,0,49,9999,0.100000,0,0,0.000000,3,2.000000,0.000000,4.769280,0,0,0,0,0,0,0
1,19999,15,10000,1,0,40,9999,0.100000,0,0,0.000000,3,0.000000,0.000000,1.243471,0,0,0,0,0,0,0
1,19999,16,10000,0,0,40,9999,0.100000,0,0,0.000000,3,0.000000,0.000000,2.015786,0,0,0,0,0,0,0
1,19999,17,10000,97,0,40,9999,0.100000,0,0,0.000000,3,0.000000,0.000000,0.366586,0,0,0,0,0,0,0
1,19999,18,10000,8,0,49,9999,0.100000,0,0,0.000000,3,2.000000,0.000000,10.558352,0,0,0,0,0,0,0
1,19999,19,10000,1,0,40,9999,0.100000,0,0,0.000000,3,0.000000,0.000000,0.915132,0,0,0,0,0,0,0
1,19999,20,0,20,0,49,19999,0.100000,0,0,0.000000,3,1.000000,0.000000,4.942431,0,0,0,0,0,0,0
1,19999,21,10000,1,0,40,9999,0.100000,0,0,0.000000,3,0.000000,0.000000,1.303095,0,0,0,0,0,0,0
1,19999,22,10000,97,0,40,9999,0.100000,0,0,0.000000,3,0.000000,0.000000,3.513825,0,0,0,0,0,0,0
1,19999,23,10000,9,0,40,9999,0.100000,0,0,0.000000,3,0.000000,0.000000,0.152808,0,0,0,0,0,0,0
1,19999,24,10000,1,0,40,9999,0.100000,0,0,0.000000,3,0.000000,0.000000,0.551272,0,0,0,0,0,0,0
1,19999,25,10000,80,0,49,9999,0.100000,0,0,0.000000,3,1.000000,0.000000,5.273897,0,0,0,0,0,0,0
1,19999,26,0,26,0,40,19999,0.100000,0,0,0.000000,2,0.000000,0.000000,0.206764,0,0,0,0,0,0,0
1,19999,27,10000,97,0,40,9999,0.100000,0,0,0.000000,3,0.000000,0.000000,0.157103,0,0,0,0,0,0,0
1,19999,28,10000,1,0,40,9999,0.100000,0,0,0.000000,3,0.000000,0.000000,0.079419,0,0,0,0,0,0,0
1,19999,29,10000,80,0,40,9999,0.100000,0,0,0.000000,3,0.000000,0.000000,0.569749,0,0,0,0,0,0,0
1,19999,30,10000,80,0,40,9999,0.100000,0,0,0.000000,3,0.000000,0.000000,0.990069,0,0,0,0,0,0,0
1,19999,31,10000,1,0,49,9999,0.100000,0,0,0.000000,3,6.000000,0.000000,12.905243,0,0,0,0,0,0,0
1,19999,32,10000,1,0,49,9999,0.065000,0,0,0.000000,3,1.000000,0.000000,1.792374,0,0,0,0,0,0,0
1,19999,33,10000,9,0,40,9999,0.100000,0,0,0.000000,3,0.000000,0.000000,0.086670,0,0,0,0,0,0,0
1,19999,34,10000,2,0,49,9999,0.100000,0,0,0.000000,2,2.000000,0.000000,8.566449,0,0,0,0,0,0,0
1,19999,35,0,35,0,40,19999,0.100000,0,0,0.000000,3,0.000000,0.000000,4.848557,0,0,0,0,0,0,0
1,19999,36,10000,31,0,40,9999,0.100000,0,0,0.000000,3,0.000000,0.000000,0.158263,0,0,0,0,0,0,0
1,19999,37,10000,80,0,49,9999,0.100000,0,0,0.000000,3,4.000000,0.000000,7.809533,0,0,0,0,0,0,0
1,19999,38,10000,80,0,40,9999,0.100000,0,0,0.000000,3,0.000000,0.000000,2.731472,0,0,0,0,0,0,0
1,19999,39,10000,2,0,40,9999,0.100000,0,0,0.000000,2,0.000000,0.000000,1.766993,0,0,0,0,0,0,0
1,19999,40,10000,9,0,49,9999,0.100000,0,0,0.000000,3,4.000000,0.000000,20.802278,0,0,0,0,0,0,0
1,19999,41,10000,1,0,40,9999,0.100000,0,0,0.000000,3,0.000000,0.000000,0.386251,0,0,0,0,0,0,0
1,19999,42,10000,31,0,40,9999,0.100000,0,0,0.000000,3,0.000000,0.000000,0.603437,0,0,0,0,0,0,0
1,19999,43,10000,80,0,40,9999,0.100000,0,0,0.000000,3,0.000000,0.000000,0.121526,0,0,0,0,0,0,0
1,19999,44,10000,1,0,40,9999,0.100000,0,0,0.000000,3,0.000000,0.000000,0.120973,0,0,0,0,0,0,0
1,19999,45,10000,2,0,40,9999,0.100000,0,0,0.000000,2,0.000000,0.000000,22.982486,0,0,0,0,0,0,0
1,19999,46,10000,8,0,40,9999,0.100000,0,0,0.000000,3,0.000000,0.000000,1.674972,0,0,0,0,0,0,0
1,19999,47,10000,97,0,9,9999,0.100000,0,0,0.000000,3,1.000000,0.000000,4.987900,0,0,0,0,0,1,0
1,19999,48,0,48,0,49,19999,0.100000,0,0,0.000000,3,2.000000,0.000000,5.433426,0,0,0,0,0,0,0
1,19999,49,10000,9,0,40,9999,0.100000,0,0,0.000000,3,0.000000,0.000000,0.996605,0,0,0,0,0,0,0
1,19999,50,0,50,0,40,19999,0.100000,0,0,0.000000,3,0.000000,0.000000,0.129928,0,0,0,0,0,0,0
1,19999,51,10000,97,0,49,9999,0.100000,0,0,0.000000,3,1.000000,0.000000,4.126811,0,0,0,0,0,0,0
1,19999,52,10000,97,0,40,9999,0.100000,0,0,0.000000,3,0.000000,0.000000,0.336674,0,0,0,0,0,0,0
1,19999,53,10000,8,0,40,9999,0.100000,0,0,0.000000,3,0.000000,0.000000,0.658284,0,0,0,0,0,0,0
1,19999,54,10000,80,0,40,9999,0.100000,0,0,0.000000,3,0.000000,0.000000,2.098878,0,0,0,0,0,0,0
1,19999,55,0,55,0,40,19999,0.100000,0,0,0.000000,3,0.000000,0.000000,0.221551,0,0,0,0,0,0,0
1,19999,56,10000,1,0,49,9999,0.100000,0,0,0.000000,3,3.000000,0.000000,7.824865,0,0,0,0,0,0,0
1,19999,57,10000,49,0,49,9999,0.100000,0,0,0.000000,3,1.000000,0.000000,3.585371,0,0,0,0,0,0,0
1,19999,58,10000,1,0,49,9999,0.100000,0,0,0.000000,3,1.000000,0.000000,12.490438,0,0,0,0,0,0,0
1,19999,59,10000,97,0,49,9999,0.100000,0,0,0.000000,3,2.000000,0.000000,5.865802,0,0,0,0,0,0,0
1,19999,60,10000,8,0,40,9999,0.100000,0,0,0.000000,3,0.000000,0.000000,1.030853,0,0,0,0,0,0,0
1,19999,61,10000,1,0,40,9999,0.100000,0,0,0.000000,3,0.000000,0.000000,0.334485,0,0,0,0,0,0,0
1,19999,62,10000,8,0,40,9999,0.100000,0,0,0.000000,3,0.000000,0.000000,1.045448,0,0,0,0,0,0,0
1,19999,63,10000,8,0,40,9999,0.100000,0,0,0.000000,3,0.000000,0.000000,0.494398,0,0,0,0,0,0,0
1,19999,64,10000,1,0,40,9999,0.100000,0,0,0.000000,3,0.000000,0.000000,0.201046,0,0,0,0,0,0,0
1,19999,65,10000,1,0,40,9999,0.100000,0,0,0.000000,3,0.000000,0.000000,0.125838,0,0,0,0,0,0,0
1,19999,66,10000,8,0,40,9999,0.100000,0,0,0.000000,3,0.000000,0.000000,0.952917,0,0,0,0,0,0,0
1,19999,67,10000,31,0,40,9999,0.100000,0,0,0.000000,3,0.000000,0.000000,0.542143,0,0,0,0,0,0,0
1,19999,68,10000,80,0,49,9999,0.100000,0,0,0.000000,3,1.000000,0.000000,3.018040,0,0,0,0,0,0,0
1,19999,69,10000,9,0,49,9999,0.100000,0,0,0.000000,3,2.000000,0.000000,4.443683,0,0,0,0,0,0,0
1,19999,70,10000,1,0,40,9999,0.100000,0,0,0.000000,3,0.000000,0.000000,0.980146,0,0,0,0,0,0,0
1,19999,71,10000,80,0,40,9999,0.100000,0,0,0.000000,3,0.000000,0.000000,8.379942,0,0,0,0,0,0,0
1,19999,72,10000,97,0,49,9999,0.100000,0,0,0.000000,3,2.000000,0.000000,5.506710,0,0,0,0,0,0,0
1,19999,73,10000,1,0,40,9999,0.100000,0,0,0.000000,3,0.000000,0.000000,1.068897,0,0,0,0,0,0,0
1,19999,74,10000,1,0,49,9999,0.100000,0,0,0.000000,3,6.000000,0.000000,12.660542,0,0,0,0,0,0,0
1,19999,75,10000,8,0,40,9999,0.100000,0,0,0.000000,3,0.000000,0.000000,0.208782,0,0,0,0,0,0,0
1,19999,76,10000,8,0,49,9999,0.100000,0,0,0.000000,3,2.000000,0.000000,10.244729,0,0,0,0,0,0,0
1,19999,77,10000,9,0,40,9999,0.100000,0,0,0.000000,3,0.000000,0.000000,0.116654,0,0,0,0,0,0,0
1,19999,78,10000,49,0,40,9999,0.100000,0,0,0.000000,3,0.000000,0.000000,0.256411,0,0,0,0,0,0,0
1,19999,79,10000,80,0,40,9999,0.100000,0,0,0.000000,3,0.000000,0.000000,0.366399,0,0,0,0,0,0,0
1,19999,80,10000,8,0,49,9999,0.100000,0,0,0.000000,3,5.000000,0.000000,12.017601,0,0,0,0,0,0,0
1,19999,81,10000,8,0,40,9999,0.100000,0,0,0.000000,3,0.000000,0.000000,0.403631,0,0,0,0,0,0,0
1,19999,82,10000,1,0,9,9999,0.100000,0,0,0.000000,3,1.000000,0.000000,3.768905,0,0,0,0,0,1,0
1,19999,83,10000,80,0,40,9999,0.100000,0,0,0.000000,3,0.000000,0.000000,2.110843,0,0,0,0,0,0,0
1,19999,84,0,84,0,49,19999,0.100000,0,0,0.000000,3,3.000000,0.000000,6.026136,0,0,0,0,0,0,0
1,19999,85,10000,97,0,40,9999,0.100000,0,0,0.000000,3,0.000000,0.000000,1.125981,0,0,0,0,0,0,0
1,19999,86,10000,1,0,40,9999,0.100000,0,0,0.000000,3,0.000000,0.000000,0.098991,0,0,0,0,0,0,0
1,19999,87,10000,49,0,49,9999,0.100000,0,0,0.000000,3,8.000000,0.000000,10.715067,0,0,0,0,0,0,0
1,19999,88,10000,8,0,40,9999,0.100000,0,0,0.000000,3,0.000000,0.000000,0.073633,0,0,0,0,0,0,0
1,19999,89,10000,8,0,40,9999,0.100000,0,0,0.000000,3,0.000000,0.000000,0.494760,0,0,0,0,0,0,0
1,19999,90,0,90,0,40,19999,0.100000,0,0,0.000000,2,0.000000,0.000000,0.999555,0,0,0,0,0,0,0
1,19999,91,10000,97,0,9,9999,0.100000,0,0,0.000000,3,1.000000,0.000000,7.675528,0,0,0,0,0,1,0
1,19999,92,10000,9,0,40,9999,0.100000,0,0,0.000000,3,0.000000,0.000000,0.301198,0,0,0,0,0,0,0
1,19999,93,10000,1,0,40,9999,0.100000,0,0,0.000000,3,0.000000,0.000000,0.338088,0,0,0,0,0,0,0
1,19999,94,10000,94,0,49,9999,0.100000,0,0,0.000000,3,1.000000,0.000000,20.828002,0,0,0,0,0,0,0
1,19999,95,10000,1,0,49,9999,0.100000,0,0,0.000000,3,4.000000,0.000000,9.579520,0,0,0,0,0,0,0
1,19999,96,10000,80,0,49,9999,0.100000,0,0,0.000000,3,1.000000,0.000000,5.049498,0,0,0,0,0,0,0
1,19999,97,10000,8,0,49,9999,0.100000,0,0,0.000000,3,5.000000,0.000000,11.460051,0,0,0,0,0,0,0
1,19999,98,10000,97,0,40,9999,0.100000,0,0,0.000000,3,0.000000,0.000000,0.244506,0,0,0,0,0,0,0
1,19999,99,10000,8,0,40,9999,0.100000,0,0,0.000000,3,0.000000,0.000000,18.320653,0,0,0,0,0,0,0
2,29999,0,20000,49,0,40,9999,0.100000,0,0,0.000000,4,0.000000,0.000000,1.898678,0,0,0,0,0,0,0
2,29999,1,20000,9,0,40,9999,0.100000,0,0,0.000000,6,0.000000,0.000000,1.811086,0,0,0,0,0,0,0
2,29999,2,20000,49,0,49,9999,0.100000,0,0,0.000000,5,1.000000,0.000000,3.667985,0,0,0,0,0,0,0
2,29999,3,20000,8,0,40,9999,0.100000,0,0,0.000000,6,0.000000,0.000000,0.310360,0,0,0,0,0,0,0
2,29999,4,20000,78,10000,49,9999,0.100000,0,0,0.000000,6,1.000000,0.000000,6.875212,0,0,0,0,0,0,0
2,29999,5,20000,78,10000,9,9999,0.100000,0,0,0.000000,6,2.000000,0.000000,3.380801,0,0,0,1,0,0,0
2,29999,6,20000,8,0,40,9999,0.100000,0,0,0.000000,6,0.000000,0.000000,0.100200,0,0,0,0,0,0,0
2,29999,7,20000,8,0,40,9999,0.100000,0,0,0.000000,6,0.000000,0.000000,0.095052,0,0,0,0,0,0,0
2,29999,8,20000,9,0,40,9999,0.100000,0,0,0.000000,6,0.000000,0.000000,0.379927,0,0,0,0,0,0,0
2,29999,9,20000,49,0,40,9999,0.100000,0,0,0.000000,6,0.000000,0.000000,23.820730,0,0,0,0,0,0,0
2,29999,10,20000,1,0,40,9999,0.100000,0,0,0.000000,5,0.000000,0.000000,0.961402,0,0,0,0,0,0,0
2,29999,11,20000,2,10000,40,9999,0.100000,0,0,0.000000,6,0.000000,0.000000,0.087598,0,0,0,0,0,0,0
2,29999,12,20000,8,0,40,9999,0.100000,0,0,0.000000,6,0.000000,0.000000,0.083672,0,0,0,0,0,0,0
2,29999,13,20000,1,0,40,9999,0.100000,0,0,0.000000,5,0.000000,0.000000,2.899820,0,0,0,0,0,0,0
2,29999,14,20000,1,0,40,9999,0.100000,0,0,0.000000,6,0.000000,0.000000,0.727148,0,0,0,0,0,0,0
2,29999,15,20000,9,0,40,9999,0.100000,0,0,0.000000,6,0.000000,0.000000,0.947220,0,0,0,0,0,0,0
2,29999,16,20000,2,10000,40,9999,0.100000,0,0,0.000000,6,0.000000,0.000000,0.808492,0,0,0,0,0,0,0
2,29999,17,20000,77,10000,40,9999,0.100000,0,0,0.000000,6,0.000000,0.000000,0.336461,0,0,0,0,0,0,0
2,29999,18,20000,49,10000,40,9999,0.100000,0,0,0.000000,6,0.000000,0.000000,2.840037,0,0,0,0,0,0,0
2,29999,19,20000,2,10000,99,9999,0.100000,0,0,34.210526,6,10.000000,0.000000,15.052490,0,0,1,0,0,0,0
2,29999,20,20000,2,10000,40,9999,0.100000,0,0,0.000000,6,0.000000,0.000000,0.859405,0,0,0,0,0,0,0
2,29999,21,20000,78,10000,40,9999,0.100000,0,0,0.000000,6,0.000000,0.000000,0.289379,0,0,0,0,0,0,0
2,29999,22,20000,86,10000,49,9999,0.100000,0,0,0.000000,6,3.000000,0.000000,11.215136,0,0,0,0,0,0,0
2,29999,23,20000,9,0,40,9999,0.100000,0,0,0.000000,4,0.000000,0.000000,0.349175,0,0,0,0,0,0,0
2,29999,24,20000,78,10000,40,9999,0.100000,0,0,0.000000,6,0.000000,0.000000,0.568316,0,0,0,0,0,0,0
2,29999,25,20000,49,0,49,9999,0.100000,0,0,0.000000,6,4.000000,0.000000,5.142909,0,0,0,0,0,0,0
2,29999,26,20000,78,10000,40,9999,0.100000,0,0,0.000000,6,0.000000,0.000000,0.246162,0,0,0,0,0,0,0
2,29999,27,20000,86,10000,40,9999,0.100000,0,0,0.000000,6,0.000000,0.000000,0.212047,0,0,0,0,0,0,0
2,29999,28,20000,2,10000,40,9999,0.100000,0,0,0.000000,6,0.000000,0.000000,0.323895,0,0,0,0,0,0,0
2,29999,29,20000,2,10000,40,9999,0.100000,0,0,0.000000,6,0.000000,0.000000,0.587072,0,0,0,0,0,0,0
2,29999,30,20000,9,0,40,9999,0.100000,0,0,0.000000,5,0.000000,0.000000,0.991695,0,0,0,0,0,0,0
2,29999,31,20000,2,10000,9,9999,0.100000,0,0,0.000000,6,5.000000,0.000000,9.946073,0,0,0,1,0,0,0
2,29999,32,20000,1,0,40,9999,0.100000,0,0,0.000000,6,0.000000,0.000000,0.271507,0,0,0,0,0,0,0
2,29999,33,20000,2,10000,40,9999,0.100000,0,0,0.000000,6,0.000000,0.000000,0.086009,0,0,0,0,0,0,0
2,29999,34,20000,9,0,49,9999,0.100000,0,0,0.000000,6,2.000000,0.000000,15.010525,0,0,0,0,0,0,0
2,29999,35,20000,1,0,49,9999,0.100000,0,0,0.000000,6,2.000000,0.000000,9.142289,0,0,0,0,0,0,0
2,29999,36,20000,9,0,40,9999,0.100000,0,0,0.000000,6,0.000000,0.000000,0.176669,0,0,0,0,0,0,0
2,29999,37,20000,1,0,49,9999,0.100000,0,0,0.000000,6,1.000000,0.000000,2.082386,0,0,0,0,0,0,0
2,29999,38,20000,9,0,40,9999,0.100000,0,0,0.000000,6,0.000000,0.000000,1.688041,0,0,0,0,0,0,0
2,29999,39,20000,9,0,40,9999,0.100000,0,0,0.000000,6,0.000000,0.000000,0.471999,0,0,0,0,0,0,0
2,29999,40,20000,49,0,49,9999,0.100000,0,0,0.000000,6,6.000000,0.000000,20.038395,0,0,0,0,0,0,0
2,29999,41,20000,49,10000,40,9999,0.100000,0,0,0.000000,6,0.000000,0.000000,0.385873,0,0,0,0,0,0,0
2,29999,42,20000,2,10000,40,9999,0.100000,0,0,0.000000,6,0.000000,0.000000,0.391734,0,0,0,0,0,0,0
2,29999,43,20000,86,10000,40,9999,0.100000,0,0,0.000000,6,0.000000,0.000000,0.120326,0,0,0,0,0,0,0
2,29999,44,20000,97,10000,40,9999,0.100000,0,0,0.000000,6,0.000000,0.000000,0.119081,0,0,0,0,0,0,0
2,29999,45,20000,9,0,40,9999,0.100000,0,0,0.000000,6,0.000000,0.000000,14.773610,0,0,0,0,0,0,0
2,29999,46,20000,2,10000,40,9999,0.100000,0,0,0.000000,6,0.000000,0.000000,1.114673,0,0,0,0,0,0,0
2,29999,47,20000,8,0,49,9999,0.100000,0,0,0.000000,6,2.000000,0.000000,8.944623,0,0,0,0,0,0,0
2,29999,48,20000,49,0,40,9999,0.100000,0,0,0.000000,6,0.000000,0.000000,1.666296,0,0,0,0,0,0,0
2,29999,49,20000,8,0,40,9999,0.100000,0,0,0.000000,6,0.000000,0.000000,0.472365,0,0,0,0,0,0,0
2,29999,50,20000,2,10000,40,9999,0.100000,0,0,0.000000,6,0.000000,0.000000,0.176503,0,0,0,0,0,0,0
2,29999,51,20000,8,0,40,9999,0.100000,0,0,0.000000,6,0.000000,0.000000,1.680594,0,0,0,0,0,0,0
2,29999,52,20000,1,0,40,9999,0.100000,0,0,0.000000,6,0.000000,0.000000,0.334962,0,0,0,0,0,0,0
2,29999,53,20000,2,10000,49,9999,0.100000,0,0,0.000000,5,3.000000,0.000000,4.786699,0,0,0,0,0,0,0
2,29999,54,20000,1,0,40,9999,0.100000,0,0,0.000000,6,0.000000,0.000000,0.249678,0,0,0,0,0,0,0
2,29999,55,20000,1,10000,40,9999,0.100000,0,0,0.000000,6,0.000000,0.000000,1.458732,0,0,0,0,0,0,0
2,29999,56,20000,49,10000,49,9999,0.100000,0,0,0.000000,6,1.000000,0.000000,9.499103,0,0,0,0,0,0,0
2,29999,57,20000,78,10000,40,9999,0.100000,0,0,0.000000,6,0.000000,0.000000,0.786449,0,0,0,0,0,0,0
2,29999,58,20000,9,0,49,9999,0.100000,0,0,0.000000,5,1.000000,0.000000,6.354403,0,0,0,0,0,0,0
2,29999,59,20000,78,10000,49,9999,0.100000,0,0,0.000000,6,2.000000,0.000000,9.582516,0,0,0,0,0,0,0
2,29999,60,20000,1,0,40,9999,0.100000,0,0,0.000000,6,0.000000,0.000000,1.200331,0,0,0,0,0,0,0
2,29999,61,20000,49,0,40,9999,0.100000,0,0,0.000000,6,0.000000,0.000000,0.315662,0,0,0,0,0,0,0
2,29999,62,20000,78,10000,40,9999,0.100000,0,0,0.000000,6,0.000000,0.000000,0.974959,0,0,0,0,0,0,0
2,29999,63,20000,78,10000,40,9999,0.100000,0,0,0.000000,6,0.000000,0.000000,0.602268,0,0,0,0,0,0,0
2,29999,64,20000,1,0,40,9999,0.100000,0,0,0.000000,6,0.000000,0.000000,0.566679,0,0,0,0,0,0,0
2,29999,65,20000,49,10000,40,9999,0.100000,0,0,0.000000,6,0.000000,0.000000,0.142872,0,0,0,0,0,0,0
2,29999,66,20000,8,0,40,9999,0.100000,0,0,0.000000,6,0.000000,0.000000,0.933815,0,0,0,0,0,0,0
2,29999,67,20000,49,0,40,9999,0.100000,0,0,0.000000,5,0.000000,0.000000,0.173442,0,0,0,0,0,0,0
2,29999,68,20000,49,0,40,9999,0.100000,0,0,0.000000,6,0.000000,0.000000,4.920948,0,0,0,0,0,0,0
2,29999,69,20000,1,0,40,9999,0.100000,0,0,0.000000,6,0.000000,0.000000,0.443478,0,0,0,0,0,0,0
2,29999,70,20000,2,10000,40,9999,0.100000,0,0,0.000000,6,0.000000,0.000000,2.051304,0,0,0,0,0,0,0
2,29999,71,20000,49,0,49,9999,0.100000,0,0,0.000000,6,1.000000,0.000000,9.525308,0,0,0,0,0,0,0
2,29999,72,20000,2,10000,40,9999,0.100000,0,0,0.000000,6,0.000000,0.000000,3.952917,0,0,0,0,0,0,0
2,29999,73,20000,9,0,40,9999,0.100000,0,0,0.000000,6,0.000000,0.000000,1.610898,0,0,0,0,0,0,0
2,29999,74,20000,8,0,40,9999,0.100000,0,0,0.000000,6,0.000000,0.000000,0.224306,0,0,0,0,0,0,0
2,29999,75,20000,1,0,40,9999,0.100000,0,0,0.000000,6,0.000000,0.000000,0.259350,0,0,0,0,0,0,0
2,29999,76,20000,97,10000,49,9999,0.100000,0,0,0.000000,6,5.000000,0.000000,7.717323,0,0,0,0,0,0,0
2,29999,77,20000,77,10000,40,9999,0.100000,0,0,0.000000,6,0.000000,0.000000,0.117072,0,0,0,0,0,0,0
2,29999,78,20000,78,10000,40,9999,0.100000,0,0,0.000000,6,0.000000,0.000000,0.379187,0,0,0,0,0,0,0
2,29999,79,20000,8,0,40,9999,0.100000,0,0,0.000000,6,0.000000,0.000000,0.609133,0,0,0,0,0,0,0
2,29999,80,20000,8,0,40,9999,0.100000,0,0,0.000000,6,0.000000,0.000000,0.599509,0,0,0,0,0,0,0
2,29999,81,20000,78,10000,49,9999,0.100000,0,0,0.000000,6,3.000000,0.000000,7.354325,0,0,0,0,0,0,0
2,29999,82,20000,9,0,40,9999,0.100000,0,0,0.000000,6,0.000000,0.000000,0.128903,0,0,0,0,0,0,0
2,29999,83,20000,2,10000,40,9999,0.100000,0,0,0.000000,6,0.000000,0.000000,0.220225,0,0,0,0,0,0,0
2,29999,84,20000,1,0,49,9999,0.100000,0,0,0.000000,6,2.000000,0.000000,8.051007,0,0,0,0,0,0,0
2,29999,85,20000,1,10000,40,9999,0.100000,0,0,0.000000,6,0.000000,0.000000,1.166170,0,0,0,0,0,0,0
2,29999,86,20000,1,0,40,9999,0.100000,0,0,0.000000,5,0.000000,0.000000,0.136932,0,0,0,0,0,0,0
2,29999,87,20000,8,0,40,9999,0.100000,0,0,0.000000,6,0.000000,0.000000,0.150230,0,0,0,0,0,0,0
2,29999,88,20000,2,10000,40,9999,0.100000,0,0,0.000000,6,0.000000,0.000000,0.084358,0,0,0,0,0,0,0
2,29999,89,20000,8,0,49,9999,0.100000,0,0,0.000000,6,5.000000,0.000000,24.367461,0,0,0,0,0,0,0
2,29999,90,20000,2,10000,40,9999,0.100000,0,0,0.000000,6,0.000000,0.000000,0.941982,0,0,0,0,0,0,0
2,29999,91,20000,9,0,49,9999,0.100000,0,0,0.000000,6,2.000000,0.000000,6.569997,0,0,0,0,0,0,0
2,29999,92,20000,2,10000,40,9999,0.100000,0,0,0.000000,6,0.000000,0.000000,0.567049,0,0,0,0,0,0,0
2,29999,93,20000,8,0,40,9999,0.100000,0,0,0.000000,6,0.000000,0.000000,0.397031,0,0,0,0,0,0,0
2,29999,94,20000,49,10000,40,9999,0.100000,0,0,0.000000,6,0.000000,0.000000,22.766202,0,0,0,0,0,0,0
2,29999,95,20000,9,0,40,9999,0.100000,0,0,0.000000,6,0.000000,0.000000,2.197881,0,0,0,0,0,0,0
2,29999,96,20000,1,0,49,9999,0.100000,0,0,0.000000,6,1.000000,0.000000,1.971887,0,0,0,0,0,0,0
2,29999,97,20000,97,10000,40,9999,0.100000,0,0,0.000000,6,0.000000,0.000000,0.821522,0,0,0,0,0,0,0
2,29999,98,20000,78,10000,40,9999,0.100000,0,0,0.000000,6,0.000000,0.000000,0.145335,0,0,0,0,0,0,0
2,29999,99,10000,8,0,40,19999,0.100000,0,0,0.000000,6,0.000000,0.000000,0.901578,0,0,0,0,0,0,0
3,39999,0,30000,49,10000,40,9999,0.100000,0,0,0.000000,6,0.000000,0.000000,0.598632,0,0,0,0,0,0,0
3,39999,1,30000,0,20000,40,9999,0.100000,0,0,0.000000,6,0.000000,0.000000,0.962378,0,0,0,0,0,0,0
3,39999,2,30000,97,10000,49,9999,0.100000,0,0,0.000000,6,1.000000,0.000000,8.993830,0,0,0,0,0,0,0
3,39999,3,30000,0,20000,40,9999,0.100000,0,0,0.000000,6,0.000000,0.000000,0.073209,0,0,0,0,0,0,0
3,39999,4,30000,8,0,49,9999,0.100000,0,0,0.000000,6,2.000000,0.000000,7.933831,0,0,0,0,0,0,0
3,39999,5,30000,97,10000,40,9999,0.100000,0,0,0.000000,6,0.000000,0.000000,1.012065,0,0,0,0,0,0,0
3,39999,6,30000,0,20000,40,9999,0.100000,0,0,0.000000,6,0.000000,0.000000,0.099129,0,0,0,0,0,0,0
3,39999,7,30000,1,0,40,9999,0.100000,0,0,0.000000,6,0.000000,0.000000,0.259450,0,0,0,0,0,0,0
3,39999,8,30000,97,10000,40,9999,0.100000,0,0,0.000000,6,0.000000,0.000000,0.082955,0,0,0,0,0,0,0
3,39999,9,30000,49,10000,40,9999,0.100000,0,0,0.000000,6,0.000000,0.000000,24.165511,0,0,0,0,0,0,0
3,39999,10,30000,97,10000,40,9999,0.100000,0,0,0.000000,6,0.000000,0.000000,1.383779,0,0,0,0,0,0,0
3,39999,11,30000,1,0,40,9999,0.100000,0,0,0.000000,6,0.000000,0.000000,0.642831,0,0,0,0,0,0,0
3,39999,12,30000,1,0,40,9999,0.100000,0,0,0.000000,6,0.000000,0.000000,0.104224,0,0,0,0,0,0,0
3,39999,13,30000,49,10000,40,9999,0.100000,0,0,0.000000,6,0.000000,0.000000,0.388088,0,0,0,0,0,0,0
3,39999,14,30000,0,20000,40,9999,0.100000,0,0,0.000000,6,0.000000,0.000000,0.745324,0,0,0,0,0,0,0
3,39999,15,30000,49,10000,40,9999,0.100000,0,0,0.000000,6,0.000000,0.000000,3.143575,0,0,0,0,0,0,0
3,39999,16,30000,9,0,40,9999,0.100000,0,0,0.000000,6,0.000000,0.000000,1.893433,0,0,0,0,0,0,0
3,39999,17,30000,49,10000,40,9999,0.100000,0,0,0.000000,6,0.000000,0.000000,0.467196,0,0,0,0,0,0,0
3,39999,18,30000,8,0,49,9999,0.100000,0,0,0.000000,6,1.000000,0.000000,7.072822,0,0,0,0,0,0,0
3,39999,19,30000,9,0,49,9999,0.100000,0,0,0.000000,6,3.000000,0.000000,15.536903,0,0,0,0,0,0,0
3,39999,20,30000,8,0,40,9999,0.100000,0,0,0.000000,6,0.000000,0.000000,0.851121,0,0,0,0,0,0,0
3,39999,21,30000,9,0,40,9999,0.100000,0,0,0.000000,6,0.000000,0.000000,0.159001,0,0,0,0,0,0,0
3,39999,22,30000,0,20000,40,9999,0.100000,0,0,0.000000,6,0.000000,0.000000,0.519574,0,0,0,0,0,0,0
3,39999,23,30000,8,0,40,9999,0.100000,0,0,0.000000,6,0.000000,0.000000,2.755325,0,0,0,0,0,0,0
3,39999,24,30000,9,0,40,9999,0.135000,0,0,0.000000,6,0.000000,0.000000,0.371062,0,0,0,0,0,0,0
3,39999,25,30000,9,0,40,9999,0.100000,0,0,0.000000,6,0.000000,0.000000,0.649135,0,0,0,0,0,0,0
3,39999,26,30000,97,10000,40,9999,0.100000,0,0,0.000000,6,0.000000,0.000000,0.086635,0,0,0,0,0,0,0
3,39999,27,30000,9,0,40,9999,0.100000,0,0,0.000000,6,0.000000,0.000000,0.076330,0,0,0,0,0,0,0
3,39999,28,30000,97,10000,40,9999,0.100000,0,0,0.000000,6,0.000000,0.000000,0.760910,0,0,0,0,0,0,0
3,39999,29,30000,9,0,40,9999,0.100000,0,0,0.000000,6,0.000000,0.000000,0.495072,0,0,0,0,0,0,0
3,39999,30,30000,97,10000,40,9999,0.100000,0,0,0.000000,6,0.000000,0.000000,0.956314,0,0,0,0,0,0,0
3,39999,31,30000,1,0,49,9999,0.100000,0,0,0.000000,6,2.000000,0.000000,5.730182,0,0,0,0,0,0,0
3,39999,32,30000,97,10000,40,9999,0.100000,0,0,0.000000,6,0.000000,0.000000,0.852825,0,0,0,0,0,0,0
3,39999,33,30000,8,0,40,9999,0.100000,0,0,0.000000,6,0.000000,0.000000,0.085959,0,0,0,0,0,0,0
3,39999,34,30000,9,0,40,9999,0.100000,0,0,0.000000,6,0.000000,0.000000,21.939782,0,0,0,0,0,0,0
3,39999,35,30000,97,10000,40,9999,0.100000,0,0,0.000000,6,0.000000,0.000000,1.122482,0,0,0,0,0,0,0
3,39999,36,30000,0,20000,40,9999,0.100000,0,0,0.000000,6,0.000000,0.000000,0.142306,0,0,0,0,0,0,0
3,39999,37,30000,1,0,40,9999,0.100000,0,0,0.000000,6,0.000000,0.000000,1.146833,0,0,0,0,0,0,0
3,39999,38,30000,1,0,40,9999,0.100000,0,0,0.000000,6,0.000000,0.000000,0.124128,0,0,0,0,0,0,0
3,39999,39,30000,9,0,40,9999,0.100000,0,0,0.000000,6,0.000000,0.000000,0.204017,0,0,0,0,0,0,0
3,39999,40,30000,97,10000,49,9999,0.065000,0,0,0.000000,6,4.000000,0.000000,13.618541,0,0,0,0,0,0,0
3,39999,41,30000,9,0,40,9999,0.100000,0,0,0.000000,6,0.000000,0.000000,0.264942,0,0,0,0,0,0,0
3,39999,42,30000,49,10000,40,9999,0.100000,0,0,0.000000,6,0.000000,0.000000,0.980726,0,0,0,0,0,0,0
3,39999,43,30000,49,10000,40,9999,0.100000,0,0,0.000000,6,0.000000,0.000000,0.121601,0,0,0,0,0,0,0
3,39999,44,30000,49,10000,40,9999,0.100000,0,0,0.000000,6,0.000000,0.000000,0.112548,0,0,0,0,0,0,0
3,39999,45,30000,0,20000,40,9999,0.100000,0,0,0.000000,6,0.000000,0.000000,0.970786,0,0,0,0,0,0,0
3,39999,46,30000,1,0,40,9999,0.100000,0,0,0.000000,6,0.000000,0.000000,0.655315,0,0,0,0,0,0,0
3,39999,47,30000,97,10000,49,9999,0.100000,0,0,0.000000,6,3.000000,0.000000,10.295331,0,0,0,0,0,0,0
3,39999,48,30000,1,0,40,9999,0.100000,0,0,0.000000,6,0.000000,0.000000,2.215160,0,0,0,0,0,0,0
3,39999,49,30000,8,0,40,9999,0.100000,0,0,0.000000,6,0.000000,0.000000,0.592076,0,0,0,0,0,0,0
3,39999,50,30000,8,0,40,9999,0.100000,0,0,0.000000,6,0.000000,0.000000,0.152651,0,0,0,0,0,0,0
3,39999,51,30000,0,20000,40,9999,0.100000,0,0,0.000000,6,0.000000,0.000000,0.483878,0,0,0,0,0,0,0
3,39999,52,30000,49,10000,40,9999,0.100000,0,0,0.000000,6,0.000000,0.000000,0.346622,0,0,0,0,0,0,0
3,39999,53,30000,97,10000,40,9999,0.100000,0,0,0.000000,6,0.000000,0.000000,0.235154,0,0,0,0,0,0,0
3,39999,54,30000,8,0,40,9999,0.100000,0,0,0.000000,6,0.000000,0.000000,0.745445,0,0,0,0,0,0,0
3,39999,55,30000,97,10000,49,9999,0.100000,0,0,0.000000,6,1.000000,0.000000,2.357709,0,0,0,0,0,0,0
3,39999,56,30000,0,20000,40,9999,0.100000,0,0,0.000000,6,0.000000,0.000000,5.291200,0,0,0,0,0,0,0
3,39999,57,30000,0,20000,40,9999,0.100000,0,0,0.000000,6,0.000000,0.000000,0.787495,0,0,0,0,0,0,0
3,39999,58,30000,49,10000,40,9999,0.100000,0,0,0.000000,6,0.000000,0.000000,0.563450,0,0,0,0,0,0,0
3,39999,59,30000,1,0,49,9999,0.100000,0,0,0.000000,6,2.000000,0.000000,6.707198,0,0,0,0,0,0,0
3,39999,60,30000,97,10000,40,9999,0.100000,0,0,0.000000,6,0.000000,0.000000,0.677086,0,0,0,0,0,0,0
3,39999,61,30000,0,20000,40,9999,0.100000,0,0,0.000000,6,0.000000,0.000000,0.291984,0,0,0,0,0,0,0
3,39999,62,30000,9,0,40,9999,0.100000,0,0,0.000000,6,0.000000,0.000000,1.002712,0,0,0,0,0,0,0
3,39999,63,30000,8,0,40,9999,0.100000,0,0,0.000000,6,0.000000,0.000000,0.293824,0,0,0,0,0,0,0
3,39999,64,30000,49,10000,40,9999,0.100000,0,0,0.000000,6,0.000000,0.000000,0.466079,0,0,0,0,0,0,0
3,39999,65,30000,9,0,40,9999,0.100000,0,0,0.000000,6,0.000000,0.000000,0.103395,0,0,0,0,0,0,0
3,39999,66,30000,0,20000,40,9999,0.100000,0,0,0.000000,6,0.000000,0.000000,0.936210,0,0,0,0,0,0,0
3,39999,67,30000,9,0,40,9999,0.100000,0,0,0.000000,6,0.000000,0.000000,0.400329,0,0,0,0,0,0,0
3,39999,68,30000,9,0,40,9999,0.100000,0,0,0.000000,6,0.000000,0.000000,3.365621,0,0,0,0,0,0,0
3,39999,69,30000,0,20000,40,9999,0.100000,0,0,0.000000,6,0.000000,0.000000,0.298439,0,0,0,0,0,0,0
3,39999,70,30000,0,20000,40,9999,0.100000,0,0,0.000000,6,0.000000,0.000000,0.875163,0,0,0,0,0,0,0
3,39999,71,30000,0,20000,40,9999,0.100000,0,0,0.000000,6,0.000000,0.000000,5.797038,0,0,0,0,0,0,0
3,39999,72,30000,8,0,49,9999,0.100000,0,0,0.000000,6,1.000000,0.000000,5.480109,0,0,0,0,0,0,0
3,39999,73,30000,8,0,49,9999,0.100000,0,0,0.000000,6,1.000000,0.000000,3.757806,0,0,0,0,0,0,0
3,39999,74,30000,49,10000,40,9999,0.100000,0,0,0.000000,6,0.000000,0.000000,0.160574,0,0,0,0,0,0,0
3,39999,75,30000,49,10000,40,9999,0.100000,0,0,0.000000,6,0.000000,0.000000,0.534346,0,0,0,0,0,0,0
3,39999,76,30000,8,0,40,9999,0.100000,0,0,0.000000,6,0.000000,0.000000,3.282994,0,0,0,0,0,0,0
3,39999,77,30000,49,10000,40,9999,0.100000,0,0,0.000000,6,0.000000,0.000000,0.116943,0,0,0,0,0,0,0
3,39999,78,30000,1,0,40,9999,0.100000,0,0,0.000000,6,0.000000,0.000000,0.251347,0,0,0,0,0,0,0
3,39999,79,30000,1,0,40,9999,0.100000,0,0,0.000000,6,0.000000,0.000000,0.414435,0,0,0,0,0,0,0
3,39999,80,30000,0,20000,40,9999,0.100000,0,0,0.000000,6,0.000000,0.000000,0.686188,0,0,0,0,0,0,0
3,39999,81,30000,97,10000,49,9999,0.100000,0,0,0.000000,6,3.000000,0.000000,7.227084,0,0,0,0,0,0,0
3,39999,82,30000,9,0,40,9999,0.100000,0,0,0.000000,6,0.000000,0.000000,0.107827,0,0,0,0,0,0,0
3,39999,83,30000,0,20000,40,9999,0.100000,0,0,0.000000,6,0.000000,0.000000,0.223566,0,0,0,0,0,0,0
3,39999,84,30000,9,0,49,9999,0.100000,0,0,0.000000,6,1.000000,0.000000,2.713897,0,0,0,0,0,0,0
3,39999,85,30000,49,10000,40,9999,0.100000,0,0,0.000000,6,0.000000,0.000000,1.152278,0,0,0,0,0,0,0
3,39999,86,30000,9,0,40,9999,0.100000,0,0,0.000000,6,0.000000,0.000000,0.223208,0,0,0,0,0,0,0
3,39999,87,30000,49,10000,40,9999,0.100000,0,0,0.000000,6,0.000000,0.000000,0.117279,0,0,0,0,0,0,0
3,39999,88,30000,49,10000,40,9999,0.100000,0,0,0.000000,6,0.000000,0.000000,0.330867,0,0,0,0,0,0,0
3,39999,89,30000,8,0,40,9999,0.100000,0,0,0.000000,6,0.000000,0.000000,1.157647,0,0,0,0,0,0,0
3,39999,90,30000,49,10000,40,9999,0.100000,0,0,0.000000,6,0.000000,0.000000,0.939940,0,0,0,0,0,0,0
3,39999,91,30000,9,0,40,9999,0.100000,0,0,0.000000,6,0.000000,0.000000,1.249149,0,0,0,0,0,0,0
3,39999,92,30000,8,0,40,9999,0.100000,0,0,0.000000,6,0.000000,0.000000,0.569238,0,0,0,0,0,0,0
3,39999,93,30000,97,10000,49,9999,0.100000,0,0,0.000000,6,4.000000,0.000000,9.849965,0,0,0,0,0,0,0
3,39999,94,30000,0,20000,40,9999,0.100000,0,0,0.000000,6,0.000000,0.000000,22.578343,0,0,0,0,0,0,0
3,39999,95,30000,97,10000,40,9999,0.100000,0,0,0.000000,6,0.000000,0.000000,0.352186,0,0,0,0,0,0,0
3,39999,96,30000,1,0,49,9999,0.100000,0,0,0.000000,6,1.000000,0.000000,1.676398,0,0,0,0,0,0,0
3,39999,97,30000,9,0,40,9999,0.100000,0,0,0.000000,6,0.000000,0.000000,0.798843,0,0,0,0,0,0,0
3,39999,98,30000,1,0,40,9999,0.100000,0,0,0.000000,6,0.000000,0.000000,0.125295,0,0,0,0,0,0,0
3,39999,99,30000,9,0,40,9999,0.100000,0,0,0.000000,6,0.000000,0.000000,0.141713,0,0,0,0,0,0,0
4,49999,0,40000,9,0,40,9999,0.100000,0,0,0.000000,6,0.000000,0.000000,1.105308,0,0,0,0,0,0,0
4,49999,1,40000,9,0,40,9999,0.100000,0,0,0.000000,6,0.000000,0.000000,2.220106,0,0,0,0,0,0,0
4,49999,2,40000,5,20000,49,9999,0.100000,0,0,0.000000,6,2.000000,0.000000,7.661642,0,0,0,0,0,0,0
4,49999,3,40000,49,10000,40,9999,0.100000,0,0,0.000000,6,0.000000,0.000000,0.072443,0,0,0,0,0,0,0
4,49999,4,40000,49,10000,49,9999,0.100000,0,0,0.000000,6,1.000000,0.000000,3.259020,0,0,0,0,0,0,0
4,49999,5,40000,5,20000,49,9999,0.100000,0,0,0.000000,6,1.000000,0.000000,3.548729,0,0,0,0,0,0,0
4,49999,6,30000,0,20000,40,19999,0.100000,0,0,0.000000,6,0.000000,0.000000,0.069580,0,0,0,0,0,0,0
4,49999,7,40000,49,10000,40,9999,0.100000,0,0,0.000000,6,0.000000,0.000000,0.211589,0,0,0,0,0,0,0
4,49999,8,40000,0,20000,40,9999,0.100000,0,0,0.000000,6,0.000000,0.000000,0.085571,0,0,0,0,0,0,0
4,49999,9,40000,97,10000,40,9999,0.100000,0,0,0.000000,6,0.000000,0.000000,23.802624,0,0,0,0,0,0,0
4,49999,10,40000,49,10000,40,9999,0.100000,0,0,0.000000,6,0.000000,0.000000,0.532241,0,0,0,0,0,0,0
4,49999,11,40000,9,0,49,9999,0.100000,0,0,0.000000,6,1.000000,0.000000,5.093653,0,0,0,0,0,0,0
4,49999,12,40000,8,0,40,9999,0.100000,0,0,0.000000,6,0.000000,0.000000,0.126823,0,0,0,0,0,0,0
4,49999,13,40000,49,10000,49,9999,0.100000,0,0,0.000000,6,1.000000,0.000000,1.621632,0,0,0,0,0,0,0
4,49999,14,40000,0,20000,40,9999,0.100000,0,0,0.000000,6,0.000000,0.000000,1.128553,0,0,0,0,0,0,0
4,49999,15,40000,49,10000,40,9999,0.100000,0,0,0.000000,6,0.000000,0.000000,0.734218,0,0,0,0,0,0,0
4,49999,16,40000,9,0,40,9999,0.100000,0,0,0.000000,6,0.000000,0.000000,0.474530,0,0,0,0,0,0,0
4,49999,17,40000,0,20000,40,9999,0.100000,0,0,0.000000,6,0.000000,0.000000,0.667006,0,0,0,0,0,0,0
4,49999,18,40000,49,10000,40,9999,0.100000,0,0,0.000000,6,0.000000,0.000000,3.809964,0,0,0,0,0,0,0
4,49999,19,40000,97,10000,40,9999,0.100000,0,0,0.000000,6,0.000000,0.000000,17.146276,0,0,0,0,0,0,0
4,49999,20,40000,49,10000,40,9999,0.100000,0,0,0.000000,6,0.000000,0.000000,1.783313,0,0,0,0,0,0,0
4,49999,21,40000,8,0,40,9999,0.100000,0,0,0.000000,6,0.000000,0.000000,0.132568,0,0,0,0,0,0,0
4,49999,22,40000,0,20000,40,9999,0.100000,0,0,0.000000,6,0.000000,0.000000,0.696060,0,0,0,0,0,0,0
4,49999,23,40000,0,20000,49,9999,0.100000,0,0,0.000000,6,1.000000,0.000000,2.062655,0,0,0,0,0,0,0
4,49999,24,40000,5,20000,40,9999,0.100000,0,0,0.000000,6,0.000000,0.000000,0.094817,0,0,0,0,0,0,0
4,49999,25,40000,0,20000,49,9999,0.100000,0,0,0.000000,6,6.000000,0.000000,12.593245,0,0,0,0,0,0,0
4,49999,26,40000,5,20000,40,9999,0.100000,0,0,0.000000,6,0.000000,0.000000,0.086110,0,0,0,0,0,0,0
4,49999,27,40000,8,0,40,9999,0.100000,0,0,0.000000,6,0.000000,0.000000,0.075284,0,0,0,0,0,0,0
4,49999,28,40000,97,10000,49,9999,0.100000,0,0,0.000000,6,1.000000,0.000000,3.559037,0,0,0,0,0,0,0
4,49999,29,40000,0,20000,40,9999,0.100000,0,0,0.000000,6,0.000000,0.000000,0.131665,0,0,0,0,0,0,0
4,49999,30,40000,8,0,40,9999,0.100000,0,0,0.000000,6,0.000000,0.000000,0.909989,0,0,0,0,0,0,0
4,49999,31,40000,8,0,40,9999,0.100000,0,0,0.000000,6,0.000000,0.000000,0.111198,0,0,0,0,0,0,0
4,49999,32,40000,97,10000,40,9999,0.100000,0,0,0.000000,6,0.000000,0.000000,0.774852,0,0,0,0,0,0,0
4,49999,33,40000,8,0,40,9999,0.100000,0,0,0.000000,6,0.000000,0.000000,0.086215,0,0,0,0,0,0,0
4,49999,34,40000,49,10000,40,9999,0.100000,0,0,0.000000,6,0.000000,0.000000,6.555899,0,0,0,0,0,0,0
4,49999,35,40000,5,20000,49,9999,0.100000,0,0,0.000000,6,1.000000,0.000000,3.833301,0,0,0,0,0,0,0
4,49999,36,40000,5,20000,40,9999,0.100000,0,0,0.000000,6,0.000000,0.000000,0.137612,0,0,0,0,0,0,0
4,49999,37,40000,97,10000,40,9999,0.100000,0,0,0.000000,6,0.000000,0.000000,0.370410,0,0,0,0,0,0,0
4,49999,38,40000,8,0,40,9999,0.100000,0,0,0.000000,6,0.000000,0.000000,0.172690,0,0,0,0,0,0,0
4,49999,39,40000,49,10000,40,9999,0.100000,0,0,0.000000,6,0.000000,0.000000,0.380290,0,0,0,0,0,0,0
4,49999,40,40000,0,20000,49,9999,0.100000,0,0,0.000000,6,1.000000,0.000000,4.018521,0,0,0,0,0,0,0
4,49999,41,40000,9,0,40,9999,0.100000,0,0,0.000000,6,0.000000,0.000000,0.754810,0,0,0,0,0,0,0
4,49999,42,40000,5,20000,40,9999,0.100000,0,0,0.000000,6,0.000000,0.000000,0.954778,0,0,0,0,0,0,0
4,49999,43,40000,9,0,40,9999,0.100000,0,0,0.000000,6,0.000000,0.000000,0.121445,0,0,0,0,0,0,0
4,49999,44,40000,5,20000,40,9999,0.100000,0,0,0.000000,6,0.000000,0.000000,0.060676,0,0,0,0,0,0,0
4,49999,45,40000,49,10000,49,9999,0.100000,0,0,0.000000,6,1.000000,0.000000,2.333701,0,0,0,0,0,0,0
4,49999,46,40000,0,20000,40,9999,0.100000,0,0,0.000000,6,0.000000,0.000000,0.219902,0,0,0,0,0,0,0
4,49999,47,40000,9,0,49,9999,0.100000,0,0,0.000000,6,1.000000,0.000000,1.439158,0,0,0,0,0,0,0
4,49999,48,40000,0,20000,40,9999,0.100000,0,0,0.000000,6,0.000000,0.000000,0.169554,0,0,0,0,0,0,0
4,49999,49,40000,0,20000,49,9999,0.100000,0,0,0.000000,6,7.000000,0.000000,8.814329,0,0,0,0,0,0,0
4,49999,50,40000,8,0,40,9999,0.100000,0,0,0.000000,6,0.000000,0.000000,0.096725,0,0,0,0,0,0,0
4,49999,51,40000,5,20000,40,9999,0.100000,0,0,0.000000,6,0.000000,0.000000,1.293432,0,0,0,0,0,0,0
4,49999,52,40000,0,20000,40,9999,0.100000,0,0,0.000000,6,0.000000,0.000000,0.307355,0,0,0,0,0,0,0
4,49999,53,40000,9,0,40,9999,0.100000,0,0,0.000000,6,0.000000,0.000000,0.245679,0,0,0,0,0,0,0
4,49999,54,40000,0,20000,49,9999,0.100000,0,0,0.000000,6,1.000000,0.000000,2.514284,0,0,0,0,0,0,0
4,49999,55,40000,9,0,40,9999,0.100000,0,0,0.000000,6,0.000000,0.000000,0.107583,0,0,0,0,0,0,0
4,49999,56,40000,9,0,49,9999,0.100000,0,0,0.000000,6,1.000000,0.000000,2.462071,0,0,0,0,0,0,0
4,49999,57,40000,49,10000,40,9999,0.100000,0,0,0.000000,6,0.000000,0.000000,1.158515,0,0,0,0,0,0,0
4,49999,58,40000,8,0,40,9999,0.100000,0,0,0.000000,6,0.000000,0.000000,2.423860,0,0,0,0,0,0,0
4,49999,59,40000,0,20000,49,9999,0.100000,0,0,0.000000,6,1.000000,0.000000,14.363704,0,0,0,0,0,0,0
4,49999,60,40000,9,0,40,9999,0.100000,0,0,0.000000,6,0.000000,0.000000,0.889131,0,0,0,0,0,0,0
4,49999,61,40000,97,10000,40,9999,0.100000,0,0,0.000000,6,0.000000,0.000000,0.305398,0,0,0,0,0,0,0
4,49999,62,40000,0,20000,40,9999,0.100000,0,0,0.000000,6,0.000000,0.000000,0.993090,0,0,0,0,0,0,0
4,49999,63,40000,8,0,40,9999,0.100000,0,0,0.000000,6,0.000000,0.000000,0.235406,0,0,0,0,0,0,0
4,49999,64,40000,0,20000,40,9999,0.100000,0,0,0.000000,6,0.000000,0.000000,0.665873,0,0,0,0,0,0,0
4,49999,65,40000,49,10000,40,9999,0.100000,0,0,0.000000,6,0.000000,0.000000,0.459931,0,0,0,0,0,0,0
4,49999,66,40000,0,20000,49,9999,0.100000,0,0,0.000000,6,1.000000,0.000000,1.906298,0,0,0,0,0,0,0
4,49999,67,40000,8,0,40,9999,0.100000,0,0,0.000000,6,0.000000,0.000000,0.275137,0,0,0,0,0,0,0
4,49999,68,40000,97,10000,40,9999,0.100000,0,0,0.000000,6,0.000000,0.000000,1.665119,0,0,0,0,0,0,0
4,49999,69,40000,97,10000,40,9999,0.100000,0,0,0.000000,6,0.000000,0.000000,0.259044,0,0,0,0,0,0,0
4,49999,70,40000,0,20000,40,9999,0.135000,0,0,0.000000,6,0.000000,0.000000,0.096342,0,0,0,0,0,0,0
4,49999,71,40000,5,20000,40,9999,0.100000,0,0,0.000000,6,0.000000,0.000000,7.691752,0,0,0,0,0,0,0
4,49999,72,40000,49,10000,40,9999,0.100000,0,0,0.000000,6,0.000000,0.000000,0.843391,0,0,0,0,0,0,0
4,49999,73,40000,5,20000,40,9999,0.100000,0,0,0.000000,6,0.000000,0.000000,3.851354,0,0,0,0,0,0,0
4,49999,74,40000,97,10000,40,9999,0.100000,0,0,0.000000,6,0.000000,0.000000,0.101539,0,0,0,0,0,0,0
4,49999,75,40000,9,0,49,9999,0.100000,0,0,0.000000,6,1.000000,0.000000,2.786593,0,0,0,0,0,0,0
4,49999,76,40000,8,0,40,9999,0.100000,0,0,0.000000,6,0.000000,0.000000,3.354937,0,0,0,0,0,0,0
4,49999,77,40000,97,10000,40,9999,0.100000,0,0,0.000000,6,0.000000,0.000000,0.117102,0,0,0,0,0,0,0
4,49999,78,40000,97,10000,40,9999,0.100000,0,0,0.000000,6,0.000000,0.000000,0.224028,0,0,0,0,0,0,0
4,49999,79,40000,8,0,40,9999,0.100000,0,0,0.000000,6,0.000000,0.000000,0.368600,0,0,0,0,0,0,0
4,49999,80,40000,8,0,40,9999,0.100000,0,0,0.000000,6,0.000000,0.000000,1.763984,0,0,0,0,0,0,0
4,49999,81,40000,49,10000,49,9999,0.100000,0,0,0.000000,6,3.000000,0.000000,13.928365,0,0,0,0,0,0,0
4,49999,82,40000,8,0,40,9999,0.100000,0,0,0.000000,6,0.000000,0.000000,0.100000,0,0,0,0,0,0,0
4,49999,83,40000,5,20000,49,9999,0.100000,0,0,0.000000,6,3.000000,0.000000,7.280708,0,0,0,0,0,0,0
4,49999,84,40000,0,20000,49,9999,0.100000,0,0,0.000000,6,7.000000,0.000000,15.620059,0,0,0,0,0,0,0
4,49999,85,40000,97,10000,49,9999,0.100000,0,0,0.000000,6,1.000000,0.000000,2.878780,0,0,0,0,0,0,0
4,49999,86,40000,5,20000,40,9999,0.100000,0,0,0.000000,6,0.000000,0.000000,0.094440,0,0,0,0,0,0,0
4,49999,87,40000,49,10000,40,9999,0.100000,0,0,0.000000,6,0.000000,0.000000,0.091275,0,0,0,0,0,0,0
4,49999,88,40000,8,0,40,9999,0.100000,0,0,0.000000,6,0.000000,0.000000,0.880977,0,0,0,0,0,0,0
4,49999,89,40000,0,20000,49,9999,0.100000,0,0,0.000000,6,4.000000,0.000000,14.084695,0,0,0,0,0,0,0
4,49999,90,40000,49,10000,40,9999,0.100000,0,0,0.000000,6,0.000000,0.000000,0.903138,0,0,0,0,0,0,0
4,49999,91,40000,97,10000,49,9999,0.100000,0,0,0.000000,6,9.000000,0.000000,19.816842,0,0,0,0,0,0,0
4,49999,92,40000,97,10000,40,9999,0.100000,0,0,0.000000,6,0.000000,0.000000,0.482070,0,0,0,0,0,0,0
4,49999,93,40000,8,0,40,9999,0.100000,0,0,0.000000,6,0.000000,0.000000,0.086101,0,0,0,0,0,0,0
4,49999,94,40000,9,0,40,9999,0.100000,0,0,0.000000,6,0.000000,0.000000,22.802831,0,0,0,0,0,0,0
4,49999,95,40000,0,20000,40,9999,0.100000,0,0,0.000000,6,0.000000,0.000000,0.874411,0,0,0,0,0,0,0
4,49999,96,40000,9,0,40,9999,0.100000,0,0,0.000000,6,0.000000,0.000000,0.257252,0,0,0,0,0,0,0
4,49999,97,40000,97,10000,49,9999,0.100000,0,0,0.000000,6,1.000000,0.000000,1.961940,0,0,0,0,0,0,0
4,49999,98,40000,49,10000,40,9999,0.100000,0,0,0.000000,6,0.000000,0.000000,0.136986,0,0,0,0,0,0,0
4,49999,99,40000,97,10000,40,9999,0.100000,0,0,0.000000,6,0.000000,0.000000,0.105342,0,0,0,0,0,0,0
5,59999,0,50000,5,20000,40,9999,0.100000,0,0,0.000000,6,0.000000,0.000000,2.005854,0,0,0,0,0,0,0
5,59999,1,50000,49,10000,40,9999,0.100000,0,0,0.000000,6,0.000000,0.000000,1.243150,0,0,0,0,0,0,0
5,59999,2,50000,9,0,49,9999,0.100000,0,0,0.000000,6,5.000000,0.000000,13.899353,0,0,0,0,0,0,0
5,59999,3,50000,5,20000,40,9999,0.100000,0,0,0.000000,6,0.000000,0.000000,0.073113,0,0,0,0,0,0,0
5,59999,4,50000,9,0,40,9999,0.100000,0,0,0.000000,6,0.000000,0.000000,0.514129,0,0,0,0,0,0,0
5,59999,5,50000,8,0,40,9999,0.100000,0,0,0.000000,6,0.000000,0.000000,0.124595,0,0,0,0,0,0,0
5,59999,6,50000,9,0,40,9999,0.100000,0,0,0.000000,6,0.000000,0.000000,0.068362,0,0,0,0,0,0,0
5,59999,7,50000,8,0,40,9999,0.100000,0,0,0.000000,6,0.000000,0.000000,0.212723,0,0,0,0,0,0,0
5,59999,8,50000,49,10000,40,9999,0.100000,0,0,0.000000,6,0.000000,0.000000,0.104744,0,0,0,0,0,0,0
5,59999,9,50000,5,20000,40,9999,0.100000,0,0,0.000000,6,0.000000,0.000000,23.866526,0,0,0,0,0,0,0
5,59999,10,50000,5,20000,49,9999,0.100000,0,0,0.000000,6,1.000000,0.000000,6.029256,0,0,0,0,0,0,0
5,59999,11,50000,0,20000,49,9999,0.100000,0,0,0.000000,6,1.000000,0.000000,13.439546,0,0,0,0,0,0,0
5,59999,12,50000,0,20000,40,9999,0.100000,0,0,0.000000,6,0.000000,0.000000,0.431167,0,0,0,0,0,0,0
5,59999,13,50000,9,0,40,9999,0.100000,0,0,0.000000,6,0.000000,0.000000,0.613988,0,0,0,0,0,0,0
5,59999,14,50000,5,20000,40,9999,0.100000,0,0,0.000000,6,0.000000,0.000000,0.852546,0,0,0,0,0,0,0
5,59999,15,50000,0,20000,40,9999,0.100000,0,0,0.000000,6,0.000000,0.000000,0.520109,0,0,0,0,0,0,0
5,59999,16,50000,9,0,40,9999,0.100000,0,0,0.000000,6,0.000000,0.000000,0.752610,0,0,0,0,0,0,0
5,59999,17,50000,49,10000,49,9999,0.100000,0,0,0.000000,6,1.000000,0.000000,5.977910,0,0,0,0,0,0,0
5,59999,18,50000,9,0,40,9999,0.100000,0,0,0.000000,6,0.000000,0.000000,3.191572,0,0,0,0,0,0,0
5,59999,19,50000,9,0,40,9999,0.100000,0,0,0.000000,6,0.000000,0.000000,1.319227,0,0,0,0,0,0,0
5,59999,20,50000,97,10000,40,9999,0.100000,0,0,0.000000,6,0.000000,0.000000,0.737724,0,0,0,0,0,0,0
5,59999,21,50000,49,10000,40,9999,0.100000,0,0,0.000000,6,0.000000,0.000000,0.178217,0,0,0,0,0,0,0
5,59999,22,50000,0,20000,40,9999,0.100000,0,0,0.000000,6,0.000000,0.000000,0.656088,0,0,0,0,0,0,0
5,59999,23,50000,9,0,49,9999,0.100000,0,0,0.000000,6,1.000000,0.000000,2.158612,0,0,0,0,0,0,0
5,59999,24,50000,9,0,40,9999,0.100000,0,0,0.000000,6,0.000000,0.000000,0.093011,0,0,0,0,0,0,0
5,59999,25,50000,9,0,40,9999,0.100000,0,0,0.000000,6,0.000000,0.000000,0.095411,0,0,0,0,0,0,0
5,59999,26,50000,8,0,40,9999,0.100000,0,0,0.000000,6,0.000000,0.000000,0.087429,0,0,0,0,0,0,0
5,59999,27,50000,0,20000,40,9999,0.100000,0,0,0.000000,6,0.000000,0.000000,0.073931,0,0,0,0,0,0,0
5,59999,28,40000,97,10000,49,19999,0.100000,0,0,0.000000,6,2.000000,0.000000,5.039515,0,0,0,0,0,0,0
5,59999,29,50000,97,10000,40,9999,0.100000,0,0,0.000000,6,0.000000,0.000000,0.327658,0,0,0,0,0,0,0
5,59999,30,50000,97,10000,40,9999,0.100000,0,0,0.000000,6,0.000000,0.000000,0.900642,0,0,0,0,0,0,0
5,59999,31,50000,5,20000,40,9999,0.100000,0,0,0.000000,6,0.000000,0.000000,0.118017,0,0,0,0,0,0,0
5,59999,32,50000,49,10000,40,9999,0.100000,0,0,0.000000,6,0.000000,0.000000,0.919152,0,0,0,0,0,0,0
5,59999,33,50000,0,20000,40,9999,0.100000,0,0,0.000000,6,0.000000,0.000000,0.087105,0,0,0,0,0,0,0
5,59999,34,50000,97,10000,40,9999,0.100000,0,0,0.000000,6,0.000000,0.000000,0.930953,0,0,0,0,0,0,0
5,59999,35,50000,97,10000,49,9999,0.100000,0,0,0.000000,6,1.000000,0.000000,1.826458,0,0,0,0,0,0,0
5,59999,36,50000,5,20000,40,9999,0.100000,0,0,0.000000,6,0.000000,0.000000,0.372403,0,0,0,0,0,0,0
5,59999,37,50000,5,20000,40,9999,0.100000,0,0,0.000000,6,0.000000,0.000000,0.366047,0,0,0,0,0,0,0
5,59999,38,50000,97,10000,40,9999,0.100000,0,0,0.000000,6,0.000000,0.000000,0.438078,0,0,0,0,0,0,0
5,59999,39,50000,49,10000,40,9999,0.100000,0,0,0.000000,6,0.000000,0.000000,0.394366,0,0,0,0,0,0,0
5,59999,40,50000,49,10000,49,9999,0.100000,0,0,0.000000,6,1.000000,0.000000,3.831170,0,0,0,0,0,0,0
5,59999,41,50000,9,0,40,9999,0.100000,0,0,0.000000,6,0.000000,0.000000,0.154586,0,0,0,0,0,0,0
5,59999,42,50000,97,10000,40,9999,0.100000,0,0,0.000000,6,0.000000,0.000000,1.031849,0,0,0,0,0,0,0
5,59999,43,50000,5,20000,40,9999,0.100000,0,0,0.000000,6,0.000000,0.000000,0.125406,0,0,0,0,0,0,0
5,59999,44,50000,49,10000,40,9999,0.100000,0,0,0.000000,6,0.000000,0.000000,0.065484,0,0,0,0,0,0,0
5,59999,45,50000,5,20000,49,9999,0.100000,0,0,0.000000,6,1.000000,0.000000,6.786531,0,0,0,0,0,0,0
5,59999,46,50000,5,20000,40,9999,0.100000,0,0,0.000000,6,0.000000,0.000000,0.629813,0,0,0,0,0,0,0
5,59999,47,50000,49,10000,40,9999,0.100000,0,0,0.000000,6,0.000000,0.000000,1.823346,0,0,0,0,0,0,0
5,59999,48,50000,5,20000,40,9999,0.100000,0,0,0.000000,6,0.000000,0.000000,0.167304,0,0,0,0,0,0,0
5,59999,49,50000,5,20000,40,9999,0.100000,0,0,0.000000,6,0.000000,0.000000,1.000994,0,0,0,0,0,0,0
5,59999,50,50000,8,0,40,9999,0.100000,0,0,0.000000,6,0.000000,0.000000,0.097435,0,0,0,0,0,0,0
5,59999,51,40000,5,20000,40,19999,0.100000,0,0,0.000000,6,0.000000,0.000000,1.088851,0,0,0,0,0,0,0
5,59999,52,50000,9,0,49,9999,0.100000,0,0,0.000000,6,1.000000,0.000000,4.472727,0,0,0,0,0,0,0
5,59999,53,50000,8,0,40,9999,0.100000,0,0,0.000000,6,0.000000,0.000000,0.237274,0,0,0,0,0,0,0
5,59999,54,50000,49,10000,49,9999,0.100000,0,0,0.000000,6,1.000000,0.000000,1.762149,0,0,0,0,0,0,0
5,59999,55,50000,49,10000,40,9999,0.100000,0,0,0.000000,6,0.000000,0.000000,0.112735,0,0,0,0,0,0,0
5,59999,56,50000,97,10000,49,9999,0.100000,0,0,0.000000,6,2.000000,0.000000,7.398783,0,0,0,0,0,0,0
5,59999,57,50000,49,10000,40,9999,0.100000,0,0,0.000000,6,0.000000,0.000000,1.845614,0,0,0,0,0,0,0
5,59999,58,50000,97,10000,49,9999,0.100000,0,0,0.000000,6,6.000000,0.000000,13.180673,0,0,0,0,0,0,0
5,59999,59,50000,8,0,40,9999,0.100000,0,0,0.000000,6,0.000000,0.000000,4.934549,0,0,0,0,0,0,0
5,59999,60,50000,49,10000,40,9999,0.100000,0,0,0.000000,6,0.000000,0.000000,1.944331,0,0,0,0,0,0,0
5,59999,61,50000,97,10000,40,9999,0.100000,0,0,0.000000,6,0.000000,0.000000,0.298667,0,0,0,0,0,0,0
5,59999,62,50000,97,10000,40,9999,0.100000,0,0,0.000000,6,0.000000,0.000000,0.997840,0,0,0,0,0,0,0
5,59999,63,50000,5,20000,40,9999,0.065000,0,0,0.000000,6,0.000000,0.000000,0.238466,0,0,0,0,0,0,0
5,59999,64,50000,5,20000,40,9999,0.100000,0,0,0.000000,6,0.000000,0.000000,0.827231,0,0,0,0,0,0,0
5,59999,65,50000,0,20000,40,9999,0.100000,0,0,0.000000,6,0.000000,0.000000,1.454102,0,0,0,0,0,0,0
5,59999,66,50000,8,0,40,9999,0.100000,0,0,0.000000,6,0.000000,0.000000,7.112384,0,0,0,0,0,0,0
5,59999,67,50000,8,0,40,9999,0.100000,0,0,0.000000,6,0.000000,0.000000,0.792252,0,0,0,0,0,0,0
5,59999,68,50000,97,10000,40,9999,0.100000,0,0,0.000000,6,0.000000,0.000000,20.119752,0,0,0,0,0,0,0
5,59999,69,50000,8,0,40,9999,0.100000,0,0,0.000000,6,0.000000,0.000000,0.320024,0,0,0,0,0,0,0
5,59999,70,50000,0,20000,40,9999,0.100000,0,0,0.000000,6,0.000000,0.000000,0.097287,0,0,0,0,0,0,0
5,59999,71,50000,49,10000,40,9999,0.100000,0,0,0.000000,6,0.000000,0.000000,8.039115,0,0,0,0,0,0,0
5,59999,72,50000,8,0,40,9999,0.100000,0,0,0.000000,6,0.000000,0.000000,0.614341,0,0,0,0,0,0,0
5,59999,73,50000,5,20000,40,9999,0.100000,0,0,0.000000,6,0.000000,0.000000,1.976108,0,0,0,0,0,0,0
5,59999,74,50000,8,0,40,9999,0.100000,0,0,0.000000,6,0.000000,0.000000,0.101348,0,0,0,0,0,0,0
5,59999,75,50000,8,0,49,9999,0.100000,0,0,0.000000,6,1.000000,0.000000,1.906702,0,0,0,0,0,0,0
5,59999,76,50000,0,20000,40,9999,0.100000,0,0,0.000000,6,0.000000,0.000000,2.883594,0,0,0,0,0,0,0
5,59999,77,50000,5,20000,40,9999,0.100000,0,0,0.000000,6,0.000000,0.000000,0.117708,0,0,0,0,0,0,0
5,59999,78,50000,9,0,40,9999,0.100000,0,0,0.000000,6,0.000000,0.000000,0.222184,0,0,0,0,0,0,0
5,59999,79,50000,49,10000,40,9999,0.100000,0,0,0.000000,6,0.000000,0.000000,0.719407,0,0,0,0,0,0,0
5,59999,80,50000,49,10000,40,9999,0.100000,0,0,0.000000,6,0.000000,0.000000,0.428477,0,0,0,0,0,0,0
5,59999,81,50000,8,0,40,9999,0.100000,0,0,0.000000,6,0.000000,0.000000,0.271888,0,0,0,0,0,0,0
5,59999,82,50000,97,10000,40,9999,0.100000,0,0,0.000000,6,0.000000,0.000000,0.098176,0,0,0,0,0,0,0
5,59999,83,50000,97,10000,40,9999,0.100000,0,0,0.000000,6,0.000000,0.000000,1.831152,0,0,0,0,0,0,0
5,59999,84,50000,49,10000,40,9999,0.100000,0,0,0.000000,6,0.000000,0.000000,0.969580,0,0,0,0,0,0,0
5,59999,85,50000,97,10000,40,9999,0.100000,0,0,0.000000,6,0.000000,0.000000,2.230272,0,0,0,0,0,0,0
5,59999,86,50000,97,10000,40,9999,0.100000,0,0,0.000000,6,0.000000,0.000000,0.092471,0,0,0,0,0,0,0
5,59999,87,50000,97,10000,40,9999,0.100000,0,0,0.000000,6,0.000000,0.000000,0.083336,0,0,0,0,0,0,0
5,59999,88,50000,0,20000,40,9999,0.100000,0,0,0.000000,6,0.000000,0.000000,1.482443,0,0,0,0,0,0,0
5,59999,89,50000,5,20000,49,9999,0.100000,0,0,0.000000,6,4.000000,0.000000,31.498698,0,0,0,0,0,0,0
5,59999,90,50000,5,20000,49,9999,0.100000,0,0,0.000000,6,4.000000,0.000000,6.482943,0,0,0,0,0,0,0
5,59999,91,50000,8,0,40,9999,0.100000,0,0,0.000000,6,0.000000,0.000000,0.179656,0,0,0,0,0,0,0
5,59999,92,50000,97,10000,40,9999,0.100000,0,0,0.000000,6,0.000000,0.000000,0.471465,0,0,0,0,0,0,0
5,59999,93,50000,97,10000,49,9999,0.100000,0,0,0.000000,6,4.000000,0.000000,9.939374,0,0,0,0,0,0,0
5,59999,94,50000,5,20000,40,9999,0.065000,0,0,0.000000,6,0.000000,0.000000,13.441519,0,0,0,0,0,0,0
5,59999,95,50000,97,10000,40,9999,0.100000,0,0,0.000000,6,0.000000,0.000000,0.539681,0,0,0,0,0,0,0
5,59999,96,50000,0,20000,40,9999,0.100000,0,0,0.000000,6,0.000000,0.000000,0.294843,0,0,0,0,0,0,0
5,59999,97,50000,9,0,49,9999,0.100000,0,0,0.000000,6,5.000000,0.000000,12.254523,0,0,0,0,0,0,0
5,59999,98,50000,8,0,40,9999,0.100000,0,0,0.000000,6,0.000000,0.000000,0.145475,0,0,0,0,0,0,0
5,59999,99,50000,97,10000,40,9999,0.100000,0,0,0.000000,6,0.000000,0.000000,0.105086,0,0,0,0,0,0,0
6,69999,0,60000,8,0,40,9999,0.100000,0,0,0.000000,6,0.000000,0.000000,1.203165,0,0,0,0,0,0,0
6,69999,1,60000,97,10000,40,9999,0.100000,0,0,0.000000,6,0.000000,0.000000,0.791530,0,0,0,0,0,0,0
6,69999,2,60000,97,10000,40,9999,0.100000,0,0,0.000000,6,0.000000,0.000000,9.245569,0,0,0,0,0,0,0
6,69999,3,60000,5,20000,40,9999,0.100000,0,0,0.000000,6,0.000000,0.000000,0.073003,0,0,0,0,0,0,0
6,69999,4,60000,5,20000,40,9999,0.100000,0,0,0.000000,6,0.000000,0.000000,0.486386,0,0,0,0,0,0,0
6,69999,5,60000,0,20000,40,9999,0.100000,0,0,0.000000,6,0.000000,0.000000,0.120298,0,0,0,0,0,0,0
6,69999,6,60000,9,0,40,9999,0.100000,0,0,0.000000,6,0.000000,0.000000,0.086949,0,0,0,0,0,0,0
6,69999,7,60000,90,50000,40,9999,0.100000,0,0,0.000000,6,0.000000,0.000000,0.226247,0,0,0,0,0,0,0
6,69999,8,60000,97,10000,40,9999,0.100000,0,0,0.000000,6,0.000000,0.000000,0.307321,0,0,0,0,0,0,0
6,69999,9,60000,49,10000,40,9999,0.100000,0,0,0.000000,6,0.000000,0.000000,24.104872,0,0,0,0,0,0,0
6,69999,10,60000,97,10000,49,9999,0.100000,0,0,0.000000,6,1.000000,0.000000,6.133452,0,0,0,0,0,0,0
6,69999,11,60000,49,10000,40,9999,0.100000,0,0,0.000000,6,0.000000,0.000000,7.149381,0,0,0,0,0,0,0
6,69999,12,60000,97,10000,40,9999,0.100000,0,0,0.000000,6,0.000000,0.000000,0.148105,0,0,0,0,0,0,0
6,69999,13,60000,97,10000,40,9999,0.100000,0,0,0.000000,6,0.000000,0.000000,0.162309,0,0,0,0,0,0,0
6,69999,14,60000,9,0,40,9999,0.100000,0,0,0.000000,6,0.000000,0.000000,0.701633,0,0,0,0,0,0,0
6,69999,15,60000,8,0,40,9999,0.100000,0,0,0.000000,6,0.000000,0.000000,1.147575,0,0,0,0,0,0,0
6,69999,16,60000,49,10000,40,9999,0.100000,0,0,0.000000,6,0.000000,0.000000,0.526436,0,0,0,0,0,0,0
6,69999,17,60000,97,10000,40,9999,0.100000,0,0,0.000000,6,0.000000,0.000000,1.540298,0,0,0,0,0,0,0
6,69999,18,60000,8,0,40,9999,0.100000,0,0,0.000000,6,0.000000,0.000000,2.454284,0,0,0,0,0,0,0
6,69999,19,60000,8,0,49,9999,0.100000,0,0,0.000000,6,4.000000,0.000000,12.704801,0,0,0,0,0,0,0
6,69999,20,60000,9,0,40,9999,0.100000,0,0,0.000000,6,0.000000,0.000000,2.878351,0,0,0,0,0,0,0
6,69999,21,60000,9,0,40,9999,0.100000,0,0,0.000000,6,0.000000,0.000000,0.730269,0,0,0,0,0,0,0
6,69999,22,60000,5,20000,40,9999,0.100000,0,0,0.000000,6,0.000000,0.000000,0.276860,0,0,0,0,0,0,0
6,69999,23,60000,97,10000,40,9999,0.100000,0,0,0.000000,6,0.000000,0.000000,7.093861,0,0,0,0,0,0,0
6,69999,24,60000,0,20000,40,9999,0.100000,0,0,0.000000,6,0.000000,0.000000,0.093641,0,0,0,0,0,0,0
6,69999,25,60000,8,0,40,9999,0.100000,0,0,0.000000,6,0.000000,0.000000,0.094943,0,0,0,0,0,0,0
6,69999,26,60000,97,10000,40,9999,0.100000,0,0,0.000000,6,0.000000,0.000000,0.114125,0,0,0,0,0,0,0
6,69999,27,60000,8,0,40,9999,0.100000,0,0,0.000000,6,0.000000,0.000000,0.107190,0,0,0,0,0,0,0
6,69999,28,60000,0,20000,49,9999,0.100000,0,0,0.000000,6,2.000000,0.000000,5.395662,0,0,0,0,0,0,0
6,69999,29,60000,8,0,49,9999,0.100000,0,0,0.000000,6,2.000000,0.000000,5.673925,0,0,0,0,0,0,0
6,69999,30,60000,9,0,49,9999,0.100000,0,0,0.000000,6,3.000000,0.000000,5.558060,0,0,0,0,0,0,0
6,69999,31,60000,5,20000,40,9999,0.100000,0,0,0.000000,6,0.000000,0.000000,0.119595,0,0,0,0,0,0,0
6,69999,32,60000,9,0,49,9999,0.100000,0,0,0.000000,6,1.000000,0.000000,1.261556,0,0,0,0,0,0,0
6,69999,33,60000,8,0,40,9999,0.100000,0,0,0.000000,6,0.000000,0.000000,0.099962,0,0,0,0,0,0,0
6,69999,34,60000,49,10000,40,9999,0.100000,0,0,0.000000,6,0.000000,0.000000,0.843220,0,0,0,0,0,0,0
6,69999,35,60000,5,20000,49,9999,0.100000,0,0,0.000000,6,1.000000,0.000000,1.533437,0,0,0,0,0,0,0
6,69999,36,60000,49,10000,40,9999,0.100000,0,0,0.000000,6,0.000000,0.000000,0.511608,0,0,0,0,0,0,0
6,69999,37,60000,9,0,40,9999,0.100000,0,0,0.000000,6,0.000000,0.000000,0.394542,0,0,0,0,0,0,0
6,69999,38,60000,0,20000,40,9999,0.100000,0,0,0.000000,6,0.000000,0.000000,0.810605,0,0,0,0,0,0,0
6,69999,39,60000,97,10000,40,9999,0.100000,0,0,0.000000,6,0.000000,0.000000,0.285237,0,0,0,0,0,0,0
6,69999,40,60000,5,20000,40,9999,0.100000,0,0,0.000000,6,0.000000,0.000000,1.049908,0,0,0,0,0,0,0
6,69999,41,60000,0,20000,40,9999,0.100000,0,0,0.000000,6,0.000000,0.000000,0.168286,0,0,0,0,0,0,0
6,69999,42,60000,9,0,40,9999,0.100000,0,0,0.000000,6,0.000000,0.000000,1.046081,0,0,0,0,0,0,0
6,69999,43,60000,9,0,40,9999,0.100000,0,0,0.000000,6,0.000000,0.000000,0.123567,0,0,0,0,0,0,0
6,69999,44,60000,49,10000,40,9999,0.100000,0,0,0.000000,6,0.000000,0.000000,0.060363,0,0,0,0,0,0,0
6,69999,45,60000,97,10000,40,9999,0.100000,0,0,0.000000,6,0.000000,0.000000,6.462897,0,0,0,0,0,0,0
6,69999,46,60000,49,10000,40,9999,0.100000,0,0,0.000000,6,0.000000,0.000000,0.421206,0,0,0,0,0,0,0
6,69999,47,60000,0,20000,40,9999,0.100000,0,0,0.000000,6,0.000000,0.000000,0.730562,0,0,0,0,0,0,0
6,69999,48,60000,5,20000,40,9999,0.100000,0,0,0.000000,6,0.000000,0.000000,0.167635,0,0,0,0,0,0,0
6,69999,49,60000,9,0,40,9999,0.100000,0,0,0.000000,6,0.000000,0.000000,0.987864,0,0,0,0,0,0,0
6,69999,50,60000,8,0,40,9999,0.100000,0,0,0.000000,6,0.000000,0.000000,0.092728,0,0,0,0,0,0,0
6,69999,51,60000,8,0,40,9999,0.100000,0,0,0.000000,6,0.000000,0.000000,0.637139,0,0,0,0,0,0,0
6,69999,52,60000,8,0,40,9999,0.100000,0,0,0.000000,6,0.000000,0.000000,13.768134,0,0,0,0,0,0,0
6,69999,53,60000,9,0,40,9999,0.100000,0,0,0.000000,6,0.000000,0.000000,0.232886,0,0,0,0,0,0,0
6,69999,54,60000,97,10000,49,9999,0.100000,0,0,0.000000,6,1.000000,0.000000,1.547343,0,0,0,0,0,0,0
6,69999,55,60000,97,10000,40,9999,0.100000,0,0,0.000000,6,0.000000,0.000000,0.096549,0,0,0,0,0,0,0
6,69999,56,60000,49,10000,40,9999,0.100000,0,0,0.000000,6,0.000000,0.000000,0.151150,0,0,0,0,0,0,0
6,69999,57,60000,49,10000,40,9999,0.100000,0,0,0.000000,6,0.000000,0.000000,1.131620,0,0,0,0,0,0,0
6,69999,58,60000,49,10000,40,9999,0.100000,0,0,0.000000,6,0.000000,0.000000,0.232566,0,0,0,0,0,0,0
6,69999,59,60000,0,20000,49,9999,0.100000,0,0,0.000000,6,1.000000,0.000000,5.517806,0,0,0,0,0,0,0
6,69999,60,60000,0,20000,40,9999,0.100000,0,0,0.000000,6,0.000000,0.000000,0.708813,0,0,0,0,0,0,0
6,69999,61,60000,0,20000,40,9999,0.100000,0,0,0.000000,6,0.000000,0.000000,0.311816,0,0,0,0,0,0,0
6,69999,62,60000,8,0,40,9999,0.100000,0,0,0.000000,6,0.000000,0.000000,0.702241,0,0,0,0,0,0,0
6,69999,63,60000,0,20000,40,9999,0.100000,0,0,0.000000,6,0.000000,0.000000,0.239215,0,0,0,0,0,0,0
6,69999,64,60000,49,10000,40,9999,0.100000,0,0,0.000000,6,0.000000,0.000000,0.441952,0,0,0,0,0,0,0
6,69999,65,60000,97,10000,40,9999,0.100000,0,0,0.000000,6,0.000000,0.000000,0.995568,0,0,0,0,0,0,0
6,69999,66,60000,49,10000,49,9999,0.100000,0,0,0.000000,6,4.000000,0.000000,8.250798,0,0,0,0,0,0,0
6,69999,67,60000,5,20000,49,9999,0.100000,0,0,0.000000,6,1.000000,0.000000,1.573850,0,0,0,0,0,0,0
6,69999,68,60000,97,10000,49,9999,0.100000,0,0,0.000000,6,1.000000,0.000000,23.261286,0,0,0,0,0,0,0
6,69999,69,60000,5,20000,40,9999,0.100000,0,0,0.000000,6,0.000000,0.000000,0.513103,0,0,0,0,0,0,0
6,69999,70,60000,9,0,40,9999,0.100000,0,0,0.000000,6,0.000000,0.000000,0.100049,0,0,0,0,0,0,0
6,69999,71,60000,49,10000,40,9999,0.100000,0,0,0.000000,6,0.000000,0.000000,7.718667,0,0,0,0,0,0,0
6,69999,72,60000,0,20000,40,9999,0.100000,0,0,0.000000,6,0.000000,0.000000,0.577251,0,0,0,0,0,0,0
6,69999,73,60000,8,0,40,9999,0.100000,0,0,0.000000,6,0.000000,0.000000,0.707716,0,0,0,0,0,0,0
6,69999,74,60000,97,10000,40,9999,0.135000,0,0,0.000000,6,0.000000,0.000000,0.102041,0,0,0,0,0,0,0
6,69999,75,60000,0,20000,49,9999,0.100000,0,0,0.000000,6,1.000000,0.000000,1.709311,0,0,0,0,0,0,0
6,69999,76,60000,97,10000,40,9999,0.100000,0,0,0.000000,6,0.000000,0.000000,1.750422,0,0,0,0,0,0,0
6,69999,77,60000,8,0,40,9999,0.100000,0,0,0.000000,6,0.000000,0.000000,0.118012,0,0,0,0,0,0,0
6,69999,78,60000,5,20000,40,9999,0.100000,0,0,0.000000,6,0.000000,0.000000,1.748607,0,0,0,0,0,0,0
6,69999,79,60000,8,0,49,9999,0.100000,0,0,0.000000,6,2.000000,0.000000,7.032434,0,0,0,0,0,0,0
6,69999,80,60000,0,20000,40,9999,0.100000,0,0,0.000000,6,0.000000,0.000000,0.477030,0,0,0,0,0,0,0
6,69999,81,60000,49,10000,40,9999,0.100000,0,0,0.000000,6,0.000000,0.000000,0.250952,0,0,0,0,0,0,0
6,69999,82,60000,0,20000,40,9999,0.100000,0,0,0.000000,6,0.000000,0.000000,0.118614,0,0,0,0,0,0,0
6,69999,83,60000,8,0,40,9999,0.100000,0,0,0.000000,6,0.000000,0.000000,0.077594,0,0,0,0,0,0,0
6,69999,84,60000,5,20000,40,9999,0.100000,0,0,0.000000,6,0.000000,0.000000,1.065667,0,0,0,0,0,0,0
6,69999,85,60000,8,0,40,9999,0.100000,0,0,0.000000,6,0.000000,0.000000,0.533936,0,0,0,0,0,0,0
6,69999,86,60000,0,20000,40,9999,0.100000,0,0,0.000000,6,0.000000,0.000000,0.377795,0,0,0,0,0,0,0
6,69999,87,60000,9,0,40,9999,0.100000,0,0,0.000000,6,0.000000,0.000000,0.079271,0,0,0,0,0,0,0
6,69999,88,60000,0,20000,40,9999,0.100000,0,0,0.000000,6,0.000000,0.000000,1.534685,0,0,0,0,0,0,0
6,69999,89,60000,8,0,40,9999,0.100000,0,0,0.000000,6,0.000000,0.000000,5.025532,0,0,0,0,0,0,0
6,69999,90,60000,5,20000,49,9999,0.100000,0,0,0.000000,6,3.000000,0.000000,4.280895,0,0,0,0,0,0,0
6,69999,91,60000,9,0,40,9999,0.100000,0,0,0.000000,6,0.000000,0.000000,0.315666,0,0,0,0,0,0,0
6,69999,92,60000,0,20000,40,9999,0.100000,0,0,0.000000,6,0.000000,0.000000,0.910780,0,0,0,0,0,0,0
6,69999,93,60000,5,20000,40,9999,0.100000,0,0,0.000000,6,0.000000,0.000000,0.122542,0,0,0,0,0,0,0
6,69999,94,60000,9,0,40,9999,0.100000,0,0,0.000000,6,0.000000,0.000000,1.200352,0,0,0,0,0,0,0
6,69999,95,60000,9,0,40,9999,0.100000,0,0,0.000000,6,0.000000,0.000000,0.475026,0,0,0,0,0,0,0
6,69999,96,60000,0,20000,40,9999,0.100000,0,0,0.000000,6,0.000000,0.000000,0.337926,0,0,0,0,0,0,0
6,69999,97,60000,97,10000,40,9999,0.100000,0,0,0.000000,6,0.000000,0.000000,0.241501,0,0,0,0,0,0,0
6,69999,98,60000,5,20000,40,9999,0.100000,0,0,0.000000,6,0.000000,0.000000,0.173955,0,0,0,0,0,0,0
6,69999,99,60000,90,50000,40,9999,0.100000,0,0,0.000000,6,0.000000,0.000000,0.154424,0,0,0,0,0,0,0
7,79999,0,70000,90,50000,40,9999,0.100000,0,0,0.000000,6,0.000000,0.000000,2.060794,0,0,0,0,0,0,0
7,79999,1,70000,49,10000,40,9999,0.100000,0,0,0.000000,6,0.000000,0.000000,0.474135,0,0,0,0,0,0,0
7,79999,2,70000,0,20000,49,9999,0.100000,0,0,0.000000,6,1.000000,0.000000,2.662014,0,0,0,0,0,0,0
7,79999,3,70000,90,50000,40,9999,0.100000,0,0,0.000000,6,0.000000,0.000000,0.072826,0,0,0,0,0,0,0
7,79999,4,70000,0,20000,40,9999,0.100000,0,0,0.000000,6,0.000000,0.000000,0.499396,0,0,0,0,0,0,0
7,79999,5,70000,49,10000,40,9999,0.100000,0,0,0.000000,6,0.000000,0.000000,1.168766,0,0,0,0,0,0,0
7,79999,6,70000,9,0,40,9999,0.100000,0,0,0.000000,6,0.000000,0.000000,0.064974,0,0,0,0,0,0,0
7,79999,7,70000,9,0,40,9999,0.100000,0,0,0.000000,6,0.000000,0.000000,0.211731,0,0,0,0,0,0,0
7,79999,8,70000,9,0,49,9999,0.100000,0,0,0.000000,6,1.000000,0.000000,1.988662,0,0,0,0,0,0,0
7,79999,9,70000,5,20000,40,9999,0.100000,0,0,0.000000,6,0.000000,0.000000,24.146391,0,0,0,0,0,0,0
7,79999,10,70000,8,0,40,9999,0.100000,0,0,0.000000,6,0.000000,0.000000,0.990082,0,0,0,0,0,0,0
7,79999,11,70000,90,50000,40,9999,0.100000,0,0,0.000000,6,0.000000,0.000000,0.479944,0,0,0,0,0,0,0
7,79999,12,70000,90,50000,40,9999,0.100000,0,0,0.000000,6,0.000000,0.000000,0.247033,0,0,0,0,0,0,0
7,79999,13,70000,5,20000,40,9999,0.100000,0,0,0.000000,6,0.000000,0.000000,0.091281,0,0,0,0,0,0,0
7,79999,14,70000,5,20000,40,9999,0.100000,0,0,0.000000,6,0.000000,0.000000,0.843361,0,0,0,0,0,0,0
7,79999,15,70000,0,20000,40,9999,0.100000,0,0,0.000000,6,0.000000,0.000000,2.435065,0,0,0,0,0,0,0
7,79999,16,70000,0,20000,49,9999,0.100000,0,0,0.000000,6,1.000000,0.000000,8.169749,0,0,0,0,0,0,0
7,79999,17,70000,49,10000,40,9999,0.100000,0,0,0.000000,6,0.000000,0.000000,0.806421,0,0,0,0,0,0,0
7,79999,18,70000,8,0,40,9999,0.100000,0,0,0.000000,6,0.000000,0.000000,2.940182,0,0,0,0,0,0,0
7,79999,19,70000,90,50000,40,9999,0.100000,0,0,0.000000,6,0.000000,0.000000,0.728326,0,0,0,0,0,0,0
7,79999,20,70000,90,50000,40,9999,0.100000,0,0,0.000000,6,0.000000,0.000000,0.070748,0,0,0,0,0,0,0
7,79999,21,70000,90,50000,49,9999,0.100000,0,0,0.000000,6,1.000000,0.000000,2.709531,0,0,0,0,0,0,0
7,79999,22,70000,90,50000,40,9999,0.100000,0,0,0.000000,6,0.000000,0.000000,0.346776,0,0,0,0,0,0,0
7,79999,23,70000,0,20000,49,9999,0.100000,0,0,0.000000,6,1.000000,0.000000,2.380496,0,0,0,0,0,0,0
7,79999,24,70000,8,0,40,9999,0.100000,0,0,0.000000,6,0.000000,0.000000,0.094066,0,0,0,0,0,0,0
7,79999,25,70000,49,10000,40,9999,0.100000,0,0,0.000000,6,0.000000,0.000000,0.093194,0,0,0,0,0,0,0
7,79999,26,70000,0,20000,40,9999,0.100000,0,0,0.000000,6,0.000000,0.000000,0.157554,0,0,0,0,0,0,0
7,79999,27,70000,8,0,40,9999,0.100000,0,0,0.000000,6,0.000000,0.000000,0.153406,0,0,0,0,0,0,0
7,79999,28,70000,8,0,49,9999,0.100000,0,0,0.000000,6,2.000000,0.000000,2.834463,0,0,0,0,0,0,0
7,79999,29,70000,9,0,40,9999,0.100000,0,0,0.000000,6,0.000000,0.000000,0.886695,0,0,0,0,0,0,0
7,79999,30,70000,8,0,49,9999,0.100000,0,0,0.000000,6,3.000000,0.000000,4.817138,0,0,0,0,0,0,0
7,79999,31,70000,90,50000,40,9999,0.100000,0,0,0.000000,6,0.000000,0.000000,0.805884,0,0,0,0,0,0,0
7,79999,32,70000,0,20000,49,9999,0.100000,0,0,0.000000,6,1.000000,0.000000,9.433154,0,0,0,0,0,0,0
7,79999,33,70000,5,20000,40,9999,0.100000,0,0,0.000000,6,0.000000,0.000000,0.095403,0,0,0,0,0,0,0
7,79999,34,70000,0,20000,40,9999,0.100000,0,0,0.000000,6,0.000000,0.000000,2.134843,0,0,0,0,0,0,0
7,79999,35,70000,8,0,49,9999,0.100000,0,0,0.000000,6,9.000000,0.000000,18.441659,0,0,0,0,0,0,0
7,79999,36,70000,9,0,40,9999,0.100000,0,0,0.000000,6,0.000000,0.000000,0.582503,0,0,0,0,0,0,0
7,79999,37,70000,8,0,40,9999,0.100000,0,0,0.000000,6,0.000000,0.000000,0.406714,0,0,0,0,0,0,0
7,79999,38,70000,8,0,40,9999,0.100000,0,0,0.000000,6,0.000000,0.000000,0.583018,0,0,0,0,0,0,0
7,79999,39,70000,9,0,40,9999,0.100000,0,0,0.000000,6,0.000000,0.000000,0.132559,0,0,0,0,0,0,0
7,79999,40,70000,9,0,40,9999,0.100000,0,0,0.000000,6,0.000000,0.000000,0.928642,0,0,0,0,0,0,0
7,79999,41,70000,49,10000,40,9999,0.100000,0,0,0.000000,6,0.000000,0.000000,0.132926,0,0,0,0,0,0,0
7,79999,42,70000,8,0,40,9999,0.100000,0,0,0.000000,6,0.000000,0.000000,0.747161,0,0,0,0,0,0,0
7,79999,43,70000,9,0,40,9999,0.065000,0,0,0.000000,6,0.000000,0.000000,0.123442,0,0,0,0,0,0,0
7,79999,44,70000,0,20000,40,9999,0.100000,0,0,0.000000,6,0.000000,0.000000,0.065615,0,0,0,0,0,0,0
7,79999,45,70000,0,20000,40,9999,0.100000,0,0,0.000000,6,0.000000,0.000000,2.302161,0,0,0,0,0,0,0
7,79999,46,70000,90,50000,49,9999,0.100000,0,0,0.000000,6,6.000000,0.000000,13.927886,0,0,0,0,0,0,0
7,79999,47,70000,5,20000,40,9999,0.100000,0,0,0.000000,6,0.000000,0.000000,0.320069,0,0,0,0,0,0,0
7,79999,48,70000,90,50000,40,9999,0.100000,0,0,0.000000,6,0.000000,0.000000,0.169691,0,0,0,0,0,0,0
7,79999,49,70000,0,20000,40,9999,0.100000,0,0,0.000000,6,0.000000,0.000000,0.941004,0,0,0,0,0,0,0
7,79999,50,70000,90,50000,40,9999,0.100000,0,0,0.000000,6,0.000000,0.000000,0.092196,0,0,0,0,0,0,0
7,79999,51,70000,8,0,40,9999,0.100000,0,0,0.000000,6,0.000000,0.000000,0.203764,0,0,0,0,0,0,0
7,79999,52,70000,8,0,40,9999,0.100000,0,0,0.000000,6,0.000000,0.000000,2.371899,0,0,0,0,0,0,0
7,79999,53,70000,90,50000,40,9999,0.100000,0,0,0.000000,6,0.000000,0.000000,0.241529,0,0,0,0,0,0,0
7,79999,54,70000,0,20000,40,9999,0.100000,0,0,0.000000,6,0.000000,0.000000,1.299539,0,0,0,0,0,0,0
7,79999,55,70000,5,20000,49,9999,0.100000,0,0,0.000000,6,1.000000,0.000000,1.215681,0,0,0,0,0,0,0
7,79999,56,70000,9,0,40,9999,0.100000,0,0,0.000000,6,0.000000,0.000000,0.120406,0,0,0,0,0,0,0
7,79999,57,70000,5,20000,40,9999,0.100000,0,0,0.000000,6,0.000000,0.000000,1.047775,0,0,0,0,0,0,0
7,79999,58,70000,5,20000,40,9999,0.100000,0,0,0.000000,6,0.000000,0.000000,0.371953,0,0,0,0,0,0,0
7,79999,59,70000,5,20000,40,9999,0.100000,0,0,0.000000,6,0.000000,0.000000,1.329640,0,0,0,0,0,0,0
7,79999,60,70000,9,0,40,9999,0.100000,0,0,0.000000,6,0.000000,0.000000,0.591331,0,0,0,0,0,0,0
7,79999,61,70000,5,20000,40,9999,0.100000,0,0,0.000000,6,0.000000,0.000000,0.321471,0,0,0,0,0,0,0
7,79999,62,70000,0,20000,40,9999,0.100000,0,0,0.000000,6,0.000000,0.000000,0.779827,0,0,0,0,0,0,0
7,79999,63,70000,90,50000,40,9999,0.100000,0,0,0.000000,6,0.000000,0.000000,0.285082,0,0,0,0,0,0,0
7,79999,64,70000,9,0,40,9999,0.100000,0,0,0.000000,6,0.000000,0.000000,0.625388,0,0,0,0,0,0,0
7,79999,65,70000,8,0,40,9999,0.100000,0,0,0.000000,6,0.000000,0.000000,0.366717,0,0,0,0,0,0,0
7,79999,66,70000,5,20000,40,9999,0.100000,0,0,0.000000,6,0.000000,0.000000,0.154365,0,0,0,0,0,0,0
7,79999,67,70000,0,20000,49,9999,0.100000,0,0,0.000000,6,5.000000,0.000000,9.716972,0,0,0,0,0,0,0
7,79999,68,70000,90,50000,49,9999,0.100000,0,0,0.000000,6,5.000000,0.000000,9.744182,0,0,0,0,0,0,0
7,79999,69,70000,5,20000,40,9999,0.100000,0,0,0.000000,6,0.000000,0.000000,0.241346,0,0,0,0,0,0,0
7,79999,70,70000,90,50000,40,9999,0.100000,0,0,0.000000,6,0.000000,0.000000,0.141318,0,0,0,0,0,0,0
7,79999,71,70000,49,10000,40,9999,0.100000,0,0,0.000000,6,0.000000,0.000000,19.364807,0,0,0,0,0,0,0
7,79999,72,70000,0,20000,40,9999,0.100000,0,0,0.000000,6,0.000000,0.000000,0.597819,0,0,0,0,0,0,0
7,79999,73,70000,49,10000,40,9999,0.100000,0,0,0.000000,6,0.000000,0.000000,0.431961,0,0,0,0,0,0,0
7,79999,74,70000,9,0,40,9999,0.100000,0,0,0.000000,6,0.000000,0.000000,0.101911,0,0,0,0,0,0,0
7,79999,75,70000,49,10000,40,9999,0.100000,0,0,0.000000,6,0.000000,0.000000,1.333759,0,0,0,0,0,0,0
7,79999,76,70000,90,50000,40,9999,0.100000,0,0,0.000000,6,0.000000,0.000000,1.666234,0,0,0,0,0,0,0
7,79999,77,70000,90,50000,40,9999,0.100000,0,0,0.000000,6,0.000000,0.000000,0.117713,0,0,0,0,0,0,0
7,79999,78,70000,8,0,40,9999,0.100000,0,0,0.000000,6,0.000000,0.000000,0.660897,0,0,0,0,0,0,0
7,79999,79,70000,0,20000,40,9999,0.100000,0,0,0.000000,6,0.000000,0.000000,1.800028,0,0,0,0,0,0,0
7,79999,80,70000,5,20000,40,9999,0.100000,0,0,0.000000,6,0.000000,0.000000,0.266896,0,0,0,0,0,0,0
7,79999,81,70000,49,10000,40,9999,0.100000,0,0,0.000000,6,0.000000,0.000000,0.718355,0,0,0,0,0,0,0
7,79999,82,70000,49,10000,40,9999,0.100000,0,0,0.000000,6,0.000000,0.000000,0.188634,0,0,0,0,0,0,0
7,79999,83,70000,0,20000,40,9999,0.100000,0,0,0.000000,6,0.000000,0.000000,0.077945,0,0,0,0,0,0,0
7,79999,84,70000,9,0,40,9999,0.100000,0,0,0.000000,6,0.000000,0.000000,0.676028,0,0,0,0,0,0,0
7,79999,85,70000,5,20000,40,9999,0.100000,0,0,0.000000,6,0.000000,0.000000,0.154546,0,0,0,0,0,0,0
7,79999,86,70000,49,10000,40,9999,0.100000,0,0,0.000000,6,0.000000,0.000000,0.127407,0,0,0,0,0,0,0
7,79999,87,70000,0,20000,40,9999,0.100000,0,0,0.000000,6,0.000000,0.000000,0.081988,0,0,0,0,0,0,0
7,79999,88,70000,5,20000,40,9999,0.100000,0,0,0.000000,6,0.000000,0.000000,0.312792,0,0,0,0,0,0,0
7,79999,89,70000,8,0,40,9999,0.100000,0,0,0.000000,6,0.000000,0.000000,0.300799,0,0,0,0,0,0,0
7,79999,90,70000,8,0,49,9999,0.100000,0,0,0.000000,6,3.000000,0.000000,7.542844,0,0,0,0,0,0,0
7,79999,91,70000,8,0,40,9999,0.100000,0,0,0.000000,6,0.000000,0.000000,0.175429,0,0,0,0,0,0,0
7,79999,92,70000,90,50000,40,9999,0.100000,0,0,0.000000,6,0.000000,0.000000,0.059902,0,0,0,0,0,0,0
7,79999,93,70000,49,10000,40,9999,0.100000,0,0,0.000000,6,0.000000,0.000000,0.170645,0,0,0,0,0,0,0
7,79999,94,70000,90,50000,40,9999,0.100000,0,0,0.000000,6,0.000000,0.000000,0.145111,0,0,0,0,0,0,0
7,79999,95,70000,9,0,40,9999,0.100000,0,0,0.000000,6,0.000000,0.000000,0.432347,0,0,0,0,0,0,0
7,79999,96,70000,0,20000,40,9999,0.100000,0,0,0.000000,6,0.000000,0.000000,0.294809,0,0,0,0,0,0,0
7,79999,97,70000,0,20000,40,9999,0.100000,0,0,0.000000,6,0.000000,0.000000,0.127531,0,0,0,0,0,0,0
7,79999,98,70000,9,0,40,9999,0.100000,0,0,0.000000,6,0.000000,0.000000,0.430982,0,0,0,0,0,0,0
7,79999,99,70000,8,0,40,9999,0.100000,0,0,0.000000,6,0.000000,0.000000,0.208513,0,0,0,0,0,0,0
8,89999,0,80000,49,10000,40,9999,0.100000,0,0,0.000000,6,0.000000,0.000000,0.434250,0,0,0,0,0,0,0
8,89999,1,80000,0,20000,49,9999,0.100000,0,0,0.000000,6,1.000000,0.000000,1.098558,0,0,0,0,0,0,0
8,89999,2,80000,90,50000,40,9999,0.100000,0,0,0.000000,6,0.000000,0.000000,0.525312,0,0,0,0,0,0,0
8,89999,3,80000,5,20000,40,9999,0.100000,0,0,0.000000,6,0.000000,0.000000,0.089253,0,0,0,0,0,0,0
8,89999,4,80000,5,20000,40,9999,0.100000,0,0,0.000000,6,0.000000,0.000000,0.493549,0,0,0,0,0,0,0
8,89999,5,80000,49,10000,49,9999,0.100000,0,0,0.000000,6,1.000000,0.000000,1.963121,0,0,0,0,0,0,0
8,89999,6,80000,8,0,40,9999,0.100000,0,0,0.000000,6,0.000000,0.000000,0.063759,0,0,0,0,0,0,0
8,89999,7,80000,49,10000,40,9999,0.100000,0,0,0.000000,6,0.000000,0.000000,0.169811,0,0,0,0,0,0,0
8,89999,8,80000,0,20000,49,9999,0.100000,0,0,0.000000,6,2.000000,0.000000,2.764828,0,0,0,0,0,0,0
8,89999,9,80000,90,50000,40,9999,0.100000,0,0,0.000000,6,0.000000,0.000000,23.882315,0,0,0,0,0,0,0
8,89999,10,80000,9,0,40,9999,0.100000,0,0,0.000000,6,0.000000,0.000000,0.970711,0,0,0,0,0,0,0
8,89999,11,80000,5,20000,40,9999,0.100000,0,0,0.000000,6,0.000000,0.000000,0.396384,0,0,0,0,0,0,0
8,89999,12,80000,90,50000,40,9999,0.100000,0,0,0.000000,6,0.000000,0.000000,0.768119,0,0,0,0,0,0,0
8,89999,13,80000,9,0,40,9999,0.100000,0,0,0.000000,6,0.000000,0.000000,0.070737,0,0,0,0,0,0,0
8,89999,14,80000,0,20000,49,9999,0.100000,0,0,0.000000,6,1.000000,0.000000,4.360744,0,0,0,0,0,0,0
8,89999,15,80000,49,10000,40,9999,0.100000,0,0,0.000000,6,0.000000,0.000000,1.619696,0,0,0,0,0,0,0
8,89999,16,80000,8,0,40,9999,0.100000,0,0,0.000000,6,0.000000,0.000000,1.272784,0,0,0,0,0,0,0
8,89999,17,80000,90,50000,40,9999,0.100000,0,0,0.000000,6,0.000000,0.000000,0.991808,0,0,0,0,0,0,0
8,89999,18,80000,0,20000,40,9999,0.100000,0,0,0.000000,6,0.000000,0.000000,2.789838,0,0,0,0,0,0,0
8,89999,19,80000,90,50000,40,9999,0.100000,0,0,0.000000,6,0.000000,0.000000,0.145683,0,0,0,0,0,0,0
8,89999,20,80000,8,0,40,9999,0.100000,0,0,0.000000,6,0.000000,0.000000,0.070659,0,0,0,0,0,0,0
8,89999,21,80000,0,20000,49,9999,0.100000,0,0,0.000000,6,2.000000,0.000000,6.572861,0,0,0,0,0,0,0
8,89999,22,80000,8,0,40,9999,0.100000,0,0,0.000000,6,0.000000,0.000000,0.109105,0,0,0,0,0,0,0
8,89999,23,80000,5,20000,40,9999,0.100000,0,0,0.000000,6,0.000000,0.000000,0.532080,0,0,0,0,0,0,0
8,89999,24,80000,8,0,40,9999,0.100000,0,0,0.000000,6,0.000000,0.000000,0.095774,0,0,0,0,0,0,0
8,89999,25,80000,5,20000,40,9999,0.100000,0,0,0.000000,6,0.000000,0.000000,0.102154,0,0,0,0,0,0,0
8,89999,26,80000,8,0,40,9999,0.100000,0,0,0.000000,6,0.000000,0.000000,0.498850,0,0,0,0,0,0,0
8,89999,27,80000,0,20000,40,9999,0.100000,0,0,0.000000,6,0.000000,0.000000,0.397453,0,0,0,0,0,0,0
8,89999,28,80000,0,20000,40,9999,0.100000,0,0,0.000000,6,0.000000,0.000000,0.239417,0,0,0,0,0,0,0
8,89999,29,80000,90,50000,40,9999,0.100000,0,0,0.000000,6,0.000000,0.000000,0.802526,0,0,0,0,0,0,0
8,89999,30,80000,8,0,49,9999,0.100000,0,0,0.000000,6,2.000000,0.000000,2.752156,0,0,0,0,0,0,0
8,89999,31,80000,9,0,40,9999,0.100000,0,0,0.000000,6,0.000000,0.000000,0.931854,0,0,0,0,0,0,0
8,89999,32,80000,0,20000,40,9999,0.100000,0,0,0.000000,6,0.000000,0.000000,6.495110,0,0,0,0,0,0,0
8,89999,33,80000,5,20000,40,9999,0.100000,0,0,0.000000,6,0.000000,0.000000,0.094909,0,0,0,0,0,0,0
8,89999,34,80000,9,0,40,9999,0.100000,0,0,0.000000,6,0.000000,0.000000,0.151952,0,0,0,0,0,0,0
8,89999,35,80000,90,50000,9,9999,0.100000,0,0,0.000000,6,3.000000,0.000000,5.785816,0,0,0,0,1,0,0
8,89999,36,80000,0,20000,40,9999,0.100000,0,0,0.000000,6,0.000000,0.000000,0.650124,0,0,0,0,0,0,0
8,89999,37,80000,90,50000,40,9999,0.100000,0,0,0.000000,6,0.000000,0.000000,0.447406,0,0,0,0,0,0,0
8,89999,38,80000,8,0,40,9999,0.065000,0,0,0.000000,6,0.000000,0.000000,0.996187,0,0,0,0,0,0,0
8,89999,39,80000,8,0,40,9999,0.100000,0,0,0.000000,6,0.000000,0.000000,0.271814,0,0,0,0,0,0,0
8,89999,40,80000,8,0,40,9999,0.100000,0,0,0.000000,6,0.000000,0.000000,0.958018,0,0,0,0,0,0,0
8,89999,41,80000,0,20000,40,9999,0.100000,0,0,0.000000,6,0.000000,0.000000,0.101970,0,0,0,0,0,0,0
8,89999,42,80000,9,0,40,9999,0.100000,0,0,0.000000,6,0.000000,0.000000,0.663851,0,0,0,0,0,0,0
8,89999,43,80000,5,20000,40,9999,0.100000,0,0,0.000000,6,0.000000,0.000000,0.125108,0,0,0,0,0,0,0
8,89999,44,80000,9,0,40,9999,0.100000,0,0,0.000000,6,0.000000,0.000000,0.096402,0,0,0,0,0,0,0
8,89999,45,80000,0,20000,40,9999,0.100000,0,0,0.000000,6,0.000000,0.000000,11.016069,0,0,0,0,0,0,0
8,89999,46,80000,49,10000,40,9999,0.100000,0,0,0.000000,6,0.000000,0.000000,0.594759,0,0,0,0,0,0,0
8,89999,47,80000,9,0,40,9999,0.100000,0,0,0.000000,6,0.000000,0.000000,0.245605,0,0,0,0,0,0,0
8,89999,48,80000,8,0,40,9999,0.100000,0,0,0.000000,6,0.000000,0.000000,0.172837,0,0,0,0,0,0,0
8,89999,49,80000,90,50000,40,9999,0.100000,0,0,0.000000,6,0.000000,0.000000,0.902926,0,0,0,0,0,0,0
8,89999,50,80000,8,0,40,9999,0.100000,0,0,0.000000,6,0.000000,0.000000,0.093373,0,0,0,0,0,0,0
8,89999,51,80000,49,10000,49,9999,0.100000,0,0,0.000000,6,1.000000,0.000000,1.287521,0,0,0,0,0,0,0
8,89999,52,80000,9,0,40,9999,0.100000,0,0,0.000000,6,0.000000,0.000000,1.466015,0,0,0,0,0,0,0
8,89999,53,80000,0,20000,40,9999,0.100000,0,0,0.000000,6,0.000000,0.000000,0.244176,0,0,0,0,0,0,0
8,89999,54,80000,0,20000,0,9999,0.100000,0,0,0.000000,6,0.000000,0.000000,2.349031,0,0,0,0,1,0,0
8,89999,55,80000,90,50000,40,9999,0.100000,0,0,0.000000,6,0.000000,0.000000,1.184750,0,0,0,0,0,0,0
8,89999,56,80000,49,10000,40,9999,0.100000,0,0,0.000000,6,0.000000,0.000000,0.106499,0,0,0,0,0,0,0
8,89999,57,80000,9,0,49,9999,0.100000,0,0,0.000000,6,1.000000,0.000000,8.848300,0,0,0,0,0,0,0
8,89999,58,80000,90,50000,40,9999,0.100000,0,0,0.000000,6,0.000000,0.000000,0.542753,0,0,0,0,0,0,0
8,89999,59,80000,90,50000,40,9999,0.100000,0,0,0.000000,6,0.000000,0.000000,0.438111,0,0,0,0,0,0,0
8,89999,60,80000,5,20000,40,9999,0.100000,0,0,0.000000,6,0.000000,0.000000,0.833163,0,0,0,0,0,0,0
8,89999,61,80000,9,0,40,9999,0.100000,0,0,0.000000,6,0.000000,0.000000,0.381115,0,0,0,0,0,0,0
8,89999,62,80000,8,0,40,9999,0.100000,0,0,0.000000,6,0.000000,0.000000,0.778620,0,0,0,0,0,0,0
8,89999,63,80000,90,50000,40,9999,0.100000,0,0,0.000000,6,0.000000,0.000000,0.307081,0,0,0,0,0,0,0
8,89999,64,80000,0,20000,40,9999,0.100000,0,0,0.000000,6,0.000000,0.000000,1.732188,0,0,0,0,0,0,0
8,89999,65,80000,0,20000,40,9999,0.100000,0,0,0.000000,6,0.000000,0.000000,0.185465,0,0,0,0,0,0,0
8,89999,66,80000,8,0,40,9999,0.100000,0,0,0.000000,6,0.000000,0.000000,0.153431,0,0,0,0,0,0,0
8,89999,67,80000,5,20000,49,9999,0.100000,0,0,0.000000,6,1.000000,0.000000,16.777195,0,0,0,0,0,0,0
8,89999,68,80000,90,50000,49,9999,0.100000,0,0,0.000000,6,1.000000,0.000000,5.269407,0,0,0,0,0,0,0
8,89999,69,80000,8,0,40,9999,0.100000,0,0,0.000000,6,0.000000,0.000000,0.283051,0,0,0,0,0,0,0
8,89999,70,80000,8,0,40,9999,0.100000,0,0,0.000000,6,0.000000,0.000000,0.163588,0,0,0,0,0,0,0
8,89999,71,80000,90,50000,40,9999,0.100000,0,0,0.000000,6,0.000000,0.000000,19.441123,0,0,0,0,0,0,0
8,89999,72,80000,90,50000,40,9999,0.100000,0,0,0.000000,6,0.000000,0.000000,0.597576,0,0,0,0,0,0,0
8,89999,73,80000,49,10000,40,9999,0.100000,0,0,0.000000,6,0.000000,0.000000,0.414254,0,0,0,0,0,0,0
8,89999,74,80000,90,50000,40,9999,0.100000,0,0,0.000000,6,0.000000,0.000000,0.099510,0,0,0,0,0,0,0
8,89999,75,80000,5,20000,9,9999,0.100000,0,0,0.000000,6,2.000000,0.000000,5.630385,0,0,0,0,1,0,0
8,89999,76,80000,49,10000,40,9999,0.100000,0,0,0.000000,6,0.000000,0.000000,1.429422,0,0,0,0,0,0,0
8,89999,77,70000,90,50000,40,19999,0.100000,0,0,0.000000,6,0.000000,0.000000,0.118023,0,0,0,0,0,0,0
8,89999,78,80000,8,0,40,9999,0.100000,0,0,0.000000,6,0.000000,0.000000,0.289654,0,0,0,0,0,0,0
8,89999,79,80000,8,0,49,9999,0.100000,0,0,0.000000,6,1.000000,0.000000,2.226605,0,0,0,0,0,0,0
8,89999,80,80000,49,10000,40,9999,0.100000,0,0,0.000000,6,0.000000,0.000000,0.947782,0,0,0,0,0,0,0
8,89999,81,80000,90,50000,40,9999,0.100000,0,0,0.000000,6,0.000000,0.000000,1.331671,0,0,0,0,0,0,0
8,89999,82,80000,5,20000,40,9999,0.100000,0,0,0.000000,6,0.000000,0.000000,0.290952,0,0,0,0,0,0,0
8,89999,83,80000,5,20000,40,9999,0.100000,0,0,0.000000,6,0.000000,0.000000,0.079184,0,0,0,0,0,0,0
8,89999,84,80000,0,20000,40,9999,0.100000,0,0,0.000000,6,0.000000,0.000000,0.875919,0,0,0,0,0,0,0
8,89999,85,80000,5,20000,40,9999,0.100000,0,0,0.000000,6,0.000000,0.000000,0.134704,0,0,0,0,0,0,0
8,89999,86,80000,0,20000,40,9999,0.100000,0,0,0.000000,6,0.000000,0.000000,0.127110,0,0,0,0,0,0,0
8,89999,87,80000,90,50000,40,9999,0.100000,0,0,0.000000,6,0.000000,0.000000,0.104416,0,0,0,0,0,0,0
8,89999,88,80000,5,20000,40,9999,0.100000,0,0,0.000000,6,0.000000,0.000000,0.394722,0,0,0,0,0,0,0
8,89999,89,80000,5,20000,40,9999,0.100000,0,0,0.000000,6,0.000000,0.000000,0.166270,0,0,0,0,0,0,0
8,89999,90,80000,5,20000,40,9999,0.100000,0,0,0.000000,6,0.000000,0.000000,0.161886,0,0,0,0,0,0,0
8,89999,91,80000,90,50000,40,9999,0.100000,0,0,0.000000,6,0.000000,0.000000,0.230269,0,0,0,0,0,0,0
8,89999,92,80000,90,50000,40,9999,0.100000,0,0,0.000000,6,0.000000,0.000000,0.059479,0,0,0,0,0,0,0
8,89999,93,80000,49,10000,49,9999,0.100000,0,0,0.000000,6,5.000000,0.000000,10.986360,0,0,0,0,0,0,0
8,89999,94,80000,90,50000,40,9999,0.100000,0,0,0.000000,6,0.000000,0.000000,0.158895,0,0,0,0,0,0,0
8,89999,95,80000,0,20000,40,9999,0.100000,0,0,0.000000,6,0.000000,0.000000,0.473087,0,0,0,0,0,0,0
8,89999,96,80000,49,10000,40,9999,0.100000,0,0,0.000000,6,0.000000,0.000000,0.305644,0,0,0,0,0,0,0
8,89999,97,80000,0,20000,40,9999,0.100000,0,0,0.000000,6,0.000000,0.000000,0.108482,0,0,0,0,0,0,0
8,89999,98,80000,5,20000,40,9999,0.100000,0,0,0.000000,6,0.000000,0.000000,0.441563,0,0,0,0,0,0,0
8,89999,99,80000,0,20000,40,9999,0.100000,0,0,0.000000,6,0.000000,0.000000,0.505599,0,0,0,0,0,0,0
9,99999,0,90000,90,50000,40,9999,0.100000,0,0,0.000000,6,0.000000,0.000000,0.740214,0,0,0,0,0,0,0
9,99999,1,90000,5,20000,49,9999,0.100000,0,0,0.000000,6,1.000000,0.000000,1.679302,0,0,0,0,0,0,0
9,99999,2,90000,5,20000,40,9999,0.100000,0,0,0.000000,6,0.000000,0.000000,0.931340,0,0,0,0,0,0,0
9,99999,3,90000,9,0,40,9999,0.100000,0,0,0.000000,6,0.000000,0.000000,0.114539,0,0,0,0,0,0,0
9,99999,4,90000,90,50000,40,9999,0.100000,0,0,0.000000,6,0.000000,0.000000,0.491780,0,0,0,0,0,0,0
9,99999,5,90000,9,0,40,9999,0.100000,0,0,0.000000,6,0.000000,0.000000,1.092428,0,0,0,0,0,0,0
9,99999,6,90000,49,10000,40,9999,0.100000,0,0,0.000000,6,0.000000,0.000000,0.061497,0,0,0,0,0,0,0
9,99999,7,90000,5,20000,40,9999,0.100000,0,0,0.000000,6,0.000000,0.000000,0.156029,0,0,0,0,0,0,0
9,99999,8,90000,0,20000,40,9999,0.100000,0,0,0.000000,6,0.000000,0.000000,1.800324,0,0,0,0,0,0,0
9,99999,9,90000,0,20000,49,9999,0.100000,0,0,0.000000,6,5.000000,0.000000,35.045339,0,0,0,0,0,0,0
9,99999,10,90000,5,20000,40,9999,0.100000,0,0,0.000000,6,0.000000,0.000000,1.372346,0,0,0,0,0,0,0
9,99999,11,90000,8,0,40,9999,0.100000,0,0,0.000000,6,0.000000,0.000000,0.900278,0,0,0,0,0,0,0
9,99999,12,90000,90,50000,40,9999,0.100000,0,0,0.000000,6,0.000000,0.000000,0.729858,0,0,0,0,0,0,0
9,99999,13,90000,8,0,40,9999,0.100000,0,0,0.000000,6,0.000000,0.000000,0.095397,0,0,0,0,0,0,0
9,99999,14,90000,8,0,49,9999,0.100000,0,0,0.000000,6,1.000000,0.000000,1.733323,0,0,0,0,0,0,0
9,99999,15,90000,5,20000,49,9999,0.100000,0,0,0.000000,6,1.000000,0.000000,10.505602,0,0,0,0,0,0,0
9,99999,16,90000,0,20000,40,9999,0.100000,0,0,0.000000,6,0.000000,0.000000,0.232412,0,0,0,0,0,0,0
9,99999,17,90000,90,50000,40,9999,0.100000,0,0,0.000000,6,0.000000,0.000000,1.199552,0,0,0,0,0,0,0
9,99999,18,90000,90,50000,40,9999,0.100000,0,0,0.000000,6,0.000000,0.000000,2.810207,0,0,0,0,0,0,0
9,99999,19,90000,0,20000,40,9999,0.100000,0,0,0.000000,6,0.000000,0.000000,0.701732,0,0,0,0,0,0,0
9,99999,20,90000,90,50000,40,9999,0.100000,0,0,0.000000,6,0.000000,0.000000,0.069646,0,0,0,0,0,0,0
9,99999,21,90000,5,20000,40,9999,0.100000,0,0,0.000000,6,0.000000,0.000000,0.573283,0,0,0,0,0,0,0
9,99999,22,90000,8,0,40,9999,0.100000,0,0,0.000000,6,0.000000,0.000000,0.240549,0,0,0,0,0,0,0
9,99999,23,90000,49,10000,40,9999,0.100000,0,0,0.000000,6,0.000000,0.000000,0.916378,0,0,0,0,0,0,0
9,99999,24,90000,90,50000,40,9999,0.100000,0,0,0.000000,6,0.000000,0.000000,0.097505,0,0,0,0,0,0,0
9,99999,25,90000,0,20000,40,9999,0.100000,0,0,0.000000,6,0.000000,0.000000,0.098887,0,0,0,0,0,0,0
9,99999,26,90000,8,0,40,9999,0.100000,0,0,0.000000,6,0.000000,0.000000,0.238509,0,0,0,0,0,0,0
9,99999,27,90000,49,10000,40,9999,0.100000,0,0,0.000000,6,0.000000,0.000000,0.221769,0,0,0,0,0,0,0
9,99999,28,90000,5,20000,40,9999,0.100000,0,0,0.000000,6,0.000000,0.000000,0.280329,0,0,0,0,0,0,0
9,99999,29,90000,0,20000,40,9999,0.100000,0,0,0.000000,6,0.000000,0.000000,1.888695,0,0,0,0,0,0,0
9,99999,30,90000,0,20000,40,9999,0.100000,0,0,0.000000,6,0.000000,0.000000,2.739638,0,0,0,0,0,0,0
9,99999,31,90000,0,20000,40,9999,0.100000,0,0,0.000000,6,0.000000,0.000000,1.212007,0,0,0,0,0,0,0
9,99999,32,90000,9,0,0,9999,0.100000,0,0,0.000000,6,0.000000,0.000000,4.373426,0,0,0,0,1,0,0
9,99999,33,90000,5,20000,40,9999,0.100000,0,0,0.000000,6,0.000000,0.000000,0.107827,0,0,0,0,0,0,0
9,99999,34,90000,5,20000,40,9999,0.100000,0,0,0.000000,6,0.000000,0.000000,0.220899,0,0,0,0,0,0,0
9,99999,35,90000,5,20000,40,9999,0.100000,0,0,0.000000,6,0.000000,0.000000,0.316073,0,0,0,0,0,0,0
9,99999,36,90000,5,20000,40,9999,0.100000,0,0,0.000000,6,0.000000,0.000000,0.632001,0,0,0,0,0,0,0
9,99999,37,90000,90,50000,40,9999,0.100000,0,0,0.000000,6,0.000000,0.000000,0.434262,0,0,0,0,0,0,0
9,99999,38,90000,5,20000,40,9999,0.065000,0,0,0.000000,6,0.000000,0.000000,0.443599,0,0,0,0,0,0,0
9,99999,39,90000,0,20000,40,9999,0.100000,0,0,0.000000,6,0.000000,0.000000,0.505726,0,0,0,0,0,0,0
9,99999,40,90000,5,20000,40,9999,0.100000,0,0,0.000000,6,0.000000,0.000000,2.796961,0,0,0,0,0,0,0
9,99999,41,90000,5,20000,40,9999,0.100000,0,0,0.000000,6,0.000000,0.000000,0.130530,0,0,0,0,0,0,0
9,99999,42,90000,49,10000,40,9999,0.100000,0,0,0.000000,6,0.000000,0.000000,1.043564,0,0,0,0,0,0,0
9,99999,43,90000,5,20000,40,9999,0.100000,0,0,0.000000,6,0.000000,0.000000,0.124229,0,0,0,0,0,0,0
9,99999,44,90000,8,0,40,9999,0.100000,0,0,0.000000,6,0.000000,0.000000,0.058431,0,0,0,0,0,0,0
9,99999,45,90000,5,20000,40,9999,0.100000,0,0,0.000000,6,0.000000,0.000000,1.438273,0,0,0,0,0,0,0
9,99999,46,90000,9,0,40,9999,0.100000,0,0,0.000000,6,0.000000,0.000000,1.388979,0,0,0,0,0,0,0
9,99999,47,90000,8,0,40,9999,0.100000,0,0,0.000000,6,0.000000,0.000000,0.830317,0,0,0,0,0,0,0
9,99999,48,90000,0,20000,40,9999,0.100000,0,0,0.000000,6,0.000000,0.000000,0.174696,0,0,0,0,0,0,0
9,99999,49,90000,5,20000,40,9999,0.100000,0,0,0.000000,6,0.000000,0.000000,0.887362,0,0,0,0,0,0,0
9,99999,50,90000,9,0,40,9999,0.100000,0,0,0.000000,6,0.000000,0.000000,0.089117,0,0,0,0,0,0,0
9,99999,51,90000,90,50000,49,9999,0.100000,0,0,0.000000,6,1.000000,0.000000,1.769729,0,0,0,0,0,0,0
9,99999,52,90000,8,0,40,9999,0.100000,0,0,0.000000,6,0.000000,0.000000,1.342394,0,0,0,0,0,0,0
9,99999,53,90000,9,0,40,9999,0.100000,0,0,0.000000,6,0.000000,0.000000,0.231857,0,0,0,0,0,0,0
9,99999,54,90000,9,0,49,9999,0.100000,0,0,0.000000,6,1.000000,0.000000,2.203010,0,0,0,0,0,0,0
9,99999,55,90000,8,0,40,9999,0.100000,0,0,0.000000,6,0.000000,0.000000,1.043819,0,0,0,0,0,0,0
9,99999,56,90000,49,10000,40,9999,0.100000,0,0,0.000000,6,0.000000,0.000000,0.106217,0,0,0,0,0,0,0
9,99999,57,90000,90,50000,49,9999,0.100000,0,0,0.000000,6,1.000000,0.000000,4.426325,0,0,0,0,0,0,0
9,99999,58,90000,90,50000,40,9999,0.100000,0,0,0.000000,6,0.000000,0.000000,1.553366,0,0,0,0,0,0,0
9,99999,59,90000,8,0,40,9999,0.100000,0,0,0.000000,6,0.000000,0.000000,2.775300,0,0,0,0,0,0,0
9,99999,60,90000,90,50000,40,9999,0.100000,0,0,0.000000,6,0.000000,0.000000,0.530375,0,0,0,0,0,0,0
9,99999,61,90000,5,20000,40,9999,0.100000,0,0,0.000000,6,0.000000,0.000000,0.316245,0,0,0,0,0,0,0
9,99999,62,90000,0,20000,40,9999,0.100000,0,0,0.000000,6,0.000000,0.000000,0.814644,0,0,0,0,0,0,0
9,99999,63,90000,90,50000,40,9999,0.100000,0,0,0.000000,6,0.000000,0.000000,0.401629,0,0,0,0,0,0,0
9,99999,64,90000,9,0,49,9999,0.100000,0,0,0.000000,6,1.000000,0.000000,7.457340,0,0,0,0,0,0,0
9,99999,65,90000,90,50000,40,9999,0.100000,0,0,0.000000,6,0.000000,0.000000,0.182899,0,0,0,0,0,0,0
9,99999,66,90000,9,0,40,9999,0.100000,0,0,0.000000,6,0.000000,0.000000,0.142052,0,0,0,0,0,0,0
9,99999,67,90000,9,0,49,9999,0.100000,0,0,0.000000,6,1.000000,0.000000,8.247158,0,0,0,0,0,0,0
9,99999,68,90000,5,20000,49,9999,0.100000,0,0,0.000000,6,2.000000,0.000000,7.309969,0,0,0,0,0,0,0
9,99999,69,90000,0,20000,40,9999,0.100000,0,0,0.000000,6,0.000000,0.000000,1.021915,0,0,0,0,0,0,0
9,99999,70,90000,8,0,40,9999,0.100000,0,0,0.000000,6,0.000000,0.000000,0.362973,0,0,0,0,0,0,0
9,99999,71,90000,5,20000,40,9999,0.100000,0,0,0.000000,6,0.000000,0.000000,19.485834,0,0,0,0,0,0,0
9,99999,72,90000,8,0,40,9999,0.100000,0,0,0.000000,6,0.000000,0.000000,0.593053,0,0,0,0,0,0,0
9,99999,73,90000,49,10000,40,9999,0.100000,0,0,0.000000,6,0.000000,0.000000,1.062615,0,0,0,0,0,0,0
9,99999,74,90000,90,50000,40,9999,0.100000,0,0,0.000000,6,0.000000,0.000000,0.100073,0,0,0,0,0,0,0
9,99999,75,90000,49,10000,49,9999,0.100000,0,0,0.000000,6,1.000000,0.000000,7.127727,0,0,0,0,0,0,0
9,99999,76,90000,9,0,40,9999,0.100000,0,0,0.000000,6,0.000000,0.000000,1.289938,0,0,0,0,0,0,0
9,99999,77,90000,90,50000,40,9999,0.100000,0,0,0.000000,6,0.000000,0.000000,0.121557,0,0,0,0,0,0,0
9,99999,78,90000,90,50000,40,9999,0.100000,0,0,0.000000,6,0.000000,0.000000,0.265586,0,0,0,0,0,0,0
9,99999,79,90000,5,20000,49,9999,0.100000,0,0,0.000000,6,1.000000,0.000000,1.822089,0,0,0,0,0,0,0
9,99999,80,90000,49,10000,49,9999,0.100000,0,0,0.000000,6,1.000000,0.000000,1.604331,0,0,0,0,0,0,0
9,99999,81,90000,49,10000,40,9999,0.100000,0,0,0.000000,6,0.000000,0.000000,0.889834,0,0,0,0,0,0,0
9,99999,82,90000,0,20000,40,9999,0.100000,0,0,0.000000,6,0.000000,0.000000,0.167362,0,0,0,0,0,0,0
9,99999,83,90000,49,10000,40,9999,0.100000,0,0,0.000000,6,0.000000,0.000000,0.080637,0,0,0,0,0,0,0
9,99999,84,90000,0,20000,40,9999,0.100000,0,0,0.000000,6,0.000000,0.000000,1.317136,0,0,0,0,0,0,0
9,99999,85,90000,8,0,40,9999,0.100000,0,0,0.000000,6,0.000000,0.000000,0.162580,0,0,0,0,0,0,0
9,99999,86,90000,49,10000,40,9999,0.100000,0,0,0.000000,6,0.000000,0.000000,0.127189,0,0,0,0,0,0,0
9,99999,87,90000,90,50000,40,9999,0.100000,0,0,0.000000,6,0.000000,0.000000,0.102520,0,0,0,0,0,0,0
9,99999,88,90000,9,0,49,9999,0.100000,0,0,0.000000,6,8.000000,0.000000,11.315668,0,0,0,0,0,0,0
9,99999,89,90000,49,10000,40,9999,0.100000,0,0,0.000000,6,0.000000,0.000000,0.139811,0,0,0,0,0,0,0
9,99999,90,90000,8,0,40,9999,0.100000,0,0,0.000000,6,0.000000,0.000000,0.165245,0,0,0,0,0,0,0
9,99999,91,90000,5,20000,40,9999,0.100000,0,0,0.000000,6,0.000000,0.000000,0.229973,0,0,0,0,0,0,0
9,99999,92,90000,5,20000,40,9999,0.100000,0,0,0.000000,6,0.000000,0.000000,0.059382,0,0,0,0,0,0,0
9,99999,93,90000,5,20000,40,9999,0.100000,0,0,0.000000,6,0.000000,0.000000,0.268642,0,0,0,0,0,0,0
9,99999,94,90000,9,0,40,9999,0.100000,0,0,0.000000,6,0.000000,0.000000,0.238894,0,0,0,0,0,0,0
9,99999,95,90000,90,50000,40,9999,0.100000,0,0,0.000000,6,0.000000,0.000000,1.470132,0,0,0,0,0,0,0
9,99999,96,90000,9,0,40,9999,0.100000,0,0,0.000000,6,0.000000,0.000000,0.276550,0,0,0,0,0,0,0
9,99999,97,90000,0,20000,49,9999,0.100000,0,0,0.000000,6,5.000000,0.000000,23.632997,0,0,0,0,0,0,0
9,99999,98,90000,0,20000,40,9999,0.100000,0,0,0.000000,6,0.000000,0.000000,0.106544,0,0,0,0,0,0,0
9,99999,99,90000,8,0,40,9999,0.100000,0,0,0.000000,6,0.000000,0.000000,0.366366,0,0,0,0,0,0,0
10,109999,0,100000,9,0,40,9999,0.100000,0,0,0.000000,6,0.000000,0.000000,1.020885,0,0,0,0,0,0,0
10,109999,1,100000,49,10000,40,9999,0.100000,0,0,0.000000,6,0.000000,0.000000,0.768189,0,0,0,0,0,0,0
10,109999,2,100000,0,20000,49,9999,0.100000,0,0,0.000000,6,1.000000,0.000000,1.770636,0,0,0,0,0,0,0
10,109999,3,100000,8,0,40,9999,0.100000,0,0,0.000000,6,0.000000,0.000000,0.129268,0,0,0,0,0,0,0
10,109999,4,100000,8,0,49,9999,0.100000,0,0,0.000000,6,2.000000,0.000000,6.411650,0,0,0,0,0,0,0
10,109999,5,100000,90,50000,40,9999,0.100000,0,0,0.000000,6,0.000000,0.000000,0.493580,0,0,0,0,0,0,0
10,109999,6,100000,90,50000,40,9999,0.100000,0,0,0.000000,6,0.000000,0.000000,0.063020,0,0,0,0,0,0,0
10,109999,7,100000,90,50000,40,9999,0.100000,0,0,0.000000,6,0.000000,0.000000,0.090708,0,0,0,0,0,0,0
10,109999,8,100000,90,50000,40,9999,0.100000,0,0,0.000000,6,0.000000,0.000000,0.872614,0,0,0,0,0,0,0
10,109999,9,100000,5,20000,40,9999,0.100000,0,0,0.000000,6,0.000000,0.000000,24.253119,0,0,0,0,0,0,0
10,109999,10,100000,5,20000,40,9999,0.100000,0,0,0.000000,6,0.000000,0.000000,0.859919,0,0,0,0,0,0,0
10,109999,11,100000,8,0,40,9999,0.100000,0,0,0.000000,6,0.000000,0.000000,0.513449,0,0,0,0,0,0,0
10,109999,12,100000,49,10000,40,9999,0.100000,0,0,0.000000,6,0.000000,0.000000,0.663296,0,0,0,0,0,0,0
10,109999,13,100000,8,0,40,9999,0.100000,0,0,0.000000,6,0.000000,0.000000,0.086366,0,0,0,0,0,0,0
10,109999,14,100000,9,0,40,9999,0.100000,0,0,0.000000,6,0.000000,0.000000,0.782248,0,0,0,0,0,0,0
10,109999,15,100000,8,0,40,9999,0.100000,0,0,0.000000,6,0.000000,0.000000,1.166648,0,0,0,0,0,0,0
10,109999,16,100000,8,0,40,9999,0.100000,0,0,0.000000,6,0.000000,0.000000,0.172288,0,0,0,0,0,0,0
10,109999,17,100000,8,0,40,9999,0.100000,0,0,0.000000,6,0.000000,0.000000,0.089759,0,0,0,0,0,0,0
10,109999,18,100000,8,0,40,9999,0.100000,0,0,0.000000,6,0.000000,0.000000,2.651957,0,0,0,0,0,0,0
10,109999,19,100000,90,50000,40,9999,0.100000,0,0,0.000000,6,0.000000,0.000000,1.339423,0,0,0,0,0,0,0
10,109999,20,100000,5,20000,40,9999,0.100000,0,0,0.000000,6,0.000000,0.000000,0.070632,0,0,0,0,0,0,0
10,109999,21,100000,90,50000,40,9999,0.100000,0,0,0.000000,6,0.000000,0.000000,0.348061,0,0,0,0,0,0,0
10,109999,22,100000,9,0,40,9999,0.100000,0,0,0.000000,6,0.000000,0.000000,0.169195,0,0,0,0,0,0,0
10,109999,23,100000,8,0,49,9999,0.100000,0,0,0.000000,6,1.000000,0.000000,1.688881,0,0,0,0,0,0,0
10,109999,24,100000,90,50000,40,9999,0.100000,0,0,0.000000,6,0.000000,0.000000,0.097821,0,0,0,0,0,0,0
10,109999,25,100000,90,50000,40,9999,0.100000,0,0,0.000000,6,0.000000,0.000000,0.149874,0,0,0,0,0,0,0
10,109999,26,100000,5,20000,40,9999,0.065000,0,0,0.000000,6,0.000000,0.000000,0.209472,0,0,0,0,0,0,0
10,109999,27,100000,9,0,40,9999,0.100000,0,0,0.000000,6,0.000000,0.000000,0.208400,0,0,0,0,0,0,0
10,109999,28,100000,90,50000,40,9999,0.100000,0,0,0.000000,6,0.000000,0.000000,0.321104,0,0,0,0,0,0,0
10,109999,29,100000,0,20000,40,9999,0.100000,0,0,0.000000,6,0.000000,0.000000,0.837292,0,0,0,0,0,0,0
10,109999,30,100000,8,0,40,9999,0.100000,0,0,0.000000,6,0.000000,0.000000,3.365735,0,0,0,0,0,0,0
10,109999,31,100000,90,50000,40,9999,0.100000,0,0,0.000000,6,0.000000,0.000000,0.861010,0,0,0,0,0,0,0
10,109999,32,100000,90,50000,40,9999,0.100000,0,0,0.000000,6,0.000000,0.000000,0.536395,0,0,0,0,0,0,0
10,109999,33,100000,5,20000,40,9999,0.100000,0,0,0.000000,6,0.000000,0.000000,0.105158,0,0,0,0,0,0,0
10,109999,34,100000,8,0,49,9999,0.100000,0,0,0.000000,6,1.000000,0.000000,1.433852,0,0,0,0,0,0,0
10,109999,35,100000,5,20000,40,9999,0.100000,0,0,0.000000,6,0.000000,0.000000,0.356555,0,0,0,0,0,0,0
10,109999,36,100000,49,10000,40,9999,0.100000,0,0,0.000000,6,0.000000,0.000000,0.621104,0,0,0,0,0,0,0
10,109999,37,100000,90,50000,40,9999,0.100000,0,0,0.000000,6,0.000000,0.000000,0.408158,0,0,0,0,0,0,0
10,109999,38,100000,0,20000,40,9999,0.100000,0,0,0.000000,6,0.000000,0.000000,0.393303,0,0,0,0,0,0,0
10,109999,39,100000,8,0,40,9999,0.100000,0,0,0.000000,6,0.000000,0.000000,0.614297,0,0,0,0,0,0,0
10,109999,40,100000,90,50000,40,9999,0.100000,0,0,0.000000,6,0.000000,0.000000,0.347690,0,0,0,0,0,0,0
10,109999,41,100000,90,50000,40,9999,0.100000,0,0,0.000000,6,0.000000,0.000000,0.124587,0,0,0,0,0,0,0
10,109999,42,100000,90,50000,40,9999,0.100000,0,0,0.000000,6,0.000000,0.000000,1.875122,0,0,0,0,0,0,0
10,109999,43,100000,9,0,40,9999,0.100000,0,0,0.000000,6,0.000000,0.000000,0.123338,0,0,0,0,0,0,0
10,109999,44,100000,90,50000,40,9999,0.100000,0,0,0.000000,6,0.000000,0.000000,0.058092,0,0,0,0,0,0,0
10,109999,45,100000,90,50000,40,9999,0.100000,0,0,0.000000,6,0.000000,0.000000,0.477626,0,0,0,0,0,0,0
10,109999,46,100000,8,0,40,9999,0.100000,0,0,0.000000,6,0.000000,0.000000,0.548218,0,0,0,0,0,0,0
10,109999,47,100000,49,10000,40,9999,0.100000,0,0,0.000000,6,0.000000,0.000000,0.392522,0,0,0,0,0,0,0
10,109999,48,100000,90,50000,40,9999,0.100000,0,0,0.000000,6,0.000000,0.000000,0.174897,0,0,0,0,0,0,0
10,109999,49,100000,49,10000,40,9999,0.100000,0,0,0.000000,6,0.000000,0.000000,2.110559,0,0,0,0,0,0,0
10,109999,50,100000,8,0,40,9999,0.100000,0,0,0.000000,6,0.000000,0.000000,0.079142,0,0,0,0,0,0,0
10,109999,51,100000,9,0,40,9999,0.100000,0,0,0.000000,6,0.000000,0.000000,0.837234,0,0,0,0,0,0,0
10,109999,52,100000,9,0,40,9999,0.100000,0,0,0.000000,6,0.000000,0.000000,1.436706,0,0,0,0,0,0,0
10,109999,53,100000,5,20000,40,9999,0.100000,0,0,0.000000,6,0.000000,0.000000,0.228169,0,0,0,0,0,0,0
10,109999,54,100000,5,20000,49,9999,0.100000,0,0,0.000000,6,1.000000,0.000000,3.571832,0,0,0,0,0,0,0
10,109999,55,100000,0,20000,40,9999,0.100000,0,0,0.000000,6,0.000000,0.000000,1.157673,0,0,0,0,0,0,0
10,109999,56,100000,0,20000,40,9999,0.100000,0,0,0.000000,6,0.000000,0.000000,0.104647,0,0,0,0,0,0,0
10,109999,57,100000,8,0,40,9999,0.100000,0,0,0.000000,6,0.000000,0.000000,0.983114,0,0,0,0,0,0,0
10,109999,58,100000,9,0,49,9999,0.100000,0,0,0.000000,6,1.000000,0.000000,2.060354,0,0,0,0,0,0,0
10,109999,59,100000,8,0,40,9999,0.100000,0,0,0.000000,6,0.000000,0.000000,0.805148,0,0,0,0,0,0,0
10,109999,60,100000,9,0,40,9999,0.100000,0,0,0.000000,6,0.000000,0.000000,0.601506,0,0,0,0,0,0,0
10,109999,61,100000,5,20000,40,9999,0.100000,0,0,0.000000,6,0.000000,0.000000,0.311601,0,0,0,0,0,0,0
10,109999,62,100000,5,20000,40,9999,0.100000,0,0,0.000000,6,0.000000,0.000000,0.760575,0,0,0,0,0,0,0
10,109999,63,100000,8,0,40,9999,0.100000,0,0,0.000000,6,0.000000,0.000000,0.405963,0,0,0,0,0,0,0
10,109999,64,100000,90,50000,49,9999,0.100000,0,0,0.000000,6,2.000000,0.000000,3.753775,0,0,0,0,0,0,0
10,109999,65,100000,49,10000,40,9999,0.100000,0,0,0.000000,6,0.000000,0.000000,0.278600,0,0,0,0,0,0,0
10,109999,66,100000,90,50000,40,9999,0.100000,0,0,0.000000,6,0.000000,0.000000,0.119664,0,0,0,0,0,0,0
10,109999,67,100000,9,0,40,9999,0.100000,0,0,0.000000,6,0.000000,0.000000,0.500176,0,0,0,0,0,0,0
10,109999,68,100000,90,50000,49,9999,0.100000,0,0,0.000000,6,1.000000,0.000000,4.296280,0,0,0,0,0,0,0
10,109999,69,100000,49,10000,40,9999,0.100000,0,0,0.000000,6,0.000000,0.000000,0.086659,0,0,0,0,0,0,0
10,109999,70,100000,8,0,40,9999,0.100000,0,0,0.000000,6,0.000000,0.000000,0.467588,0,0,0,0,0,0,0
10,109999,71,100000,49,10000,40,9999,0.100000,0,0,0.000000,6,0.000000,0.000000,19.346359,0,0,0,0,0,0,0
10,109999,72,100000,8,0,40,9999,0.100000,0,0,0.000000,6,0.000000,0.000000,0.601674,0,0,0,0,0,0,0
10,109999,73,100000,49,10000,40,9999,0.100000,0,0,0.000000,6,0.000000,0.000000,0.294695,0,0,0,0,0,0,0
10,109999,74,100000,0,20000,40,9999,0.100000,0,0,0.000000,6,0.000000,0.000000,0.096194,0,0,0,0,0,0,0
10,109999,75,100000,9,0,49,9999,0.100000,0,0,0.000000,6,1.000000,0.000000,21.773055,0,0,0,0,0,0,0
10,109999,76,100000,5,20000,40,9999,0.100000,0,0,0.000000,6,0.000000,0.000000,1.164486,0,0,0,0,0,0,0
10,109999,77,100000,5,20000,40,9999,0.100000,0,0,0.000000,6,0.000000,0.000000,0.274271,0,0,0,0,0,0,0
10,109999,78,100000,8,0,40,9999,0.100000,0,0,0.000000,6,0.000000,0.000000,0.231476,0,0,0,0,0,0,0
10,109999,79,100000,5,20000,49,9999,0.100000,0,0,0.000000,6,1.000000,0.000000,12.342444,0,0,0,0,0,0,0
10,109999,80,100000,90,50000,40,9999,0.100000,0,0,0.000000,6,0.000000,0.000000,0.633517,0,0,0,0,0,0,0
10,109999,81,100000,8,0,40,9999,0.100000,0,0,0.000000,6,0.000000,0.000000,0.097741,0,0,0,0,0,0,0
10,109999,82,100000,9,0,40,9999,0.100000,0,0,0.000000,6,0.000000,0.000000,0.127181,0,0,0,0,0,0,0
10,109999,83,100000,0,20000,49,9999,0.100000,0,0,0.000000,6,3.000000,0.000000,6.984297,0,0,0,0,0,0,0
10,109999,84,100000,90,50000,49,9999,0.100000,0,0,0.000000,6,7.000000,0.000000,15.625034,0,0,0,0,0,0,0
10,109999,85,100000,8,0,40,9999,0.100000,0,0,0.000000,6,0.000000,0.000000,0.153054,0,0,0,0,0,0,0
10,109999,86,100000,8,0,40,9999,0.100000,0,0,0.000000,6,0.000000,0.000000,0.127321,0,0,0,0,0,0,0
10,109999,87,100000,49,10000,40,9999,0.135000,0,0,0.000000,6,0.000000,0.000000,0.090948,0,0,0,0,0,0,0
10,109999,88,100000,5,20000,40,9999,0.100000,0,0,0.000000,6,0.000000,0.000000,1.835895,0,0,0,0,0,0,0
10,109999,89,100000,90,50000,40,9999,0.100000,0,0,0.000000,6,0.000000,0.000000,0.256289,0,0,0,0,0,0,0
10,109999,90,100000,0,20000,40,9999,0.100000,0,0,0.000000,6,0.000000,0.000000,0.107213,0,0,0,0,0,0,0
10,109999,91,100000,90,50000,40,9999,0.100000,0,0,0.000000,6,0.000000,0.000000,0.133077,0,0,0,0,0,0,0
10,109999,92,100000,0,20000,40,9999,0.100000,0,0,0.000000,6,0.000000,0.000000,0.059873,0,0,0,0,0,0,0
10,109999,93,100000,0,20000,40,9999,0.100000,0,0,0.000000,6,0.000000,0.000000,0.273069,0,0,0,0,0,0,0
10,109999,94,100000,5,20000,40,9999,0.100000,0,0,0.000000,6,0.000000,0.000000,0.237083,0,0,0,0,0,0,0
10,109999,95,100000,9,0,49,9999,0.100000,0,0,0.000000,6,3.000000,0.000000,10.005239,0,0,0,0,0,0,0
10,109999,96,100000,9,0,40,9999,0.100000,0,0,0.000000,6,0.000000,0.000000,0.170241,0,0,0,0,0,0,0
10,109999,97,100000,0,20000,40,9999,0.100000,0,0,0.000000,6,0.000000,0.000000,0.144526,0,0,0,0,0,0,0
10,109999,98,100000,90,50000,40,9999,0.100000,0,0,0.000000,6,0.000000,0.000000,0.306635,0,0,0,0,0,0,0
10,109999,99,100000,49,10000,40,9999,0.100000,0,0,0.000000,6,0.000000,0.000000,0.355553,0,0,0,0,0,0,0
11,119999,0,110000,5,20000,49,9999,0.100000,0,0,0.000000,6,1.000000,0.000000,2.737537,0,0,0,0,0,0,0
11,119999,1,110000,9,0,40,9999,0.100000,0,0,0.000000,6,0.000000,0.000000,1.341567,0,0,0,0,0,0,0
11,119999,2,110000,9,0,40,9999,0.100000,0,0,0.000000,6,0.000000,0.000000,1.042675,0,0,0,0,0,0,0
11,119999,3,110000,5,20000,40,9999,0.100000,0,0,0.000000,6,0.000000,0.000000,0.147908,0,0,0,0,0,0,0
11,119999,4,110000,8,0,40,9999,0.100000,0,0,0.000000,6,0.000000,0.000000,0.514463,0,0,0,0,0,0,0
11,119999,5,110000,90,50000,40,9999,0.100000,0,0,0.000000,6,0.000000,0.000000,0.365063,0,0,0,0,0,0,0
11,119999,6,110000,9,0,40,9999,0.100000,0,0,0.000000,6,0.000000,0.000000,0.076212,0,0,0,0,0,0,0
11,119999,7,110000,49,10000,40,9999,0.100000,0,0,0.000000,6,0.000000,0.000000,0.082583,0,0,0,0,0,0,0
11,119999,8,110000,8,0,49,9999,0.100000,0,0,0.000000,6,5.000000,0.000000,6.766341,0,0,0,0,0,0,0
11,119999,9,110000,90,50000,40,9999,0.100000,0,0,0.000000,6,0.000000,0.000000,24.325320,0,0,0,0,0,0,0
11,119999,10,110000,49,10000,40,9999,0.100000,0,0,0.000000,6,0.000000,0.000000,1.366387,0,0,0,0,0,0,0
11,119999,11,110000,49,10000,40,9999,0.100000,0,0,0.000000,6,0.000000,0.000000,0.486408,0,0,0,0,0,0,0
11,119999,12,110000,49,10000,40,9999,0.100000,0,0,0.000000,6,0.000000,0.000000,0.618129,0,0,0,0,0,0,0
11,119999,13,110000,8,0,40,9999,0.100000,0,0,0.000000,6,0.000000,0.000000,0.074971,0,0,0,0,0,0,0
11,119999,14,110000,90,50000,40,9999,0.100000,0,0,0.000000,6,0.000000,0.000000,0.454680,0,0,0,0,0,0,0
11,119999,15,110000,0,20000,49,9999,0.100000,0,0,0.000000,6,1.000000,0.000000,2.607729,0,0,0,0,0,0,0
11,119999,16,110000,49,10000,40,9999,0.100000,0,0,0.000000,6,0.000000,0.000000,0.344645,0,0,0,0,0,0,0
11,119999,17,110000,9,0,40,9999,0.100000,0,0,0.000000,6,0.000000,0.000000,0.321150,0,0,0,0,0,0,0
11,119999,18,110000,0,20000,40,9999,0.100000,0,0,0.000000,6,0.000000,0.000000,3.013687,0,0,0,0,0,0,0
11,119999,19,110000,5,20000,40,9999,0.100000,0,0,0.000000,6,0.000000,0.000000,1.397240,0,0,0,0,0,0,0
11,119999,20,110000,0,20000,40,9999,0.100000,0,0,0.000000,6,0.000000,0.000000,0.069816,0,0,0,0,0,0,0
11,119999,21,110000,49,10000,40,9999,0.100000,0,0,0.000000,6,0.000000,0.000000,0.371123,0,0,0,0,0,0,0
11,119999,22,110000,49,10000,40,9999,0.100000,0,0,0.000000,6,0.000000,0.000000,0.106309,0,0,0,0,0,0,0
11,119999,23,110000,90,50000,40,9999,0.100000,0,0,0.000000,6,0.000000,0.000000,0.965478,0,0,0,0,0,0,0
11,119999,24,110000,8,0,40,9999,0.100000,0,0,0.000000,6,0.000000,0.000000,0.097590,0,0,0,0,0,0,0
11,119999,25,110000,0,20000,40,9999,0.100000,0,0,0.000000,6,0.000000,0.000000,0.291601,0,0,0,0,0,0,0
11,119999,26,110000,8,0,40,9999,0.100000,0,0,0.000000,6,0.000000,0.000000,0.247645,0,0,0,0,0,0,0
11,119999,27,110000,0,20000,40,9999,0.100000,0,0,0.000000,6,0.000000,0.000000,0.237372,0,0,0,0,0,0,0
11,119999,28,110000,0,20000,40,9999,0.100000,0,0,0.000000,6,0.000000,0.000000,0.336753,0,0,0,0,0,0,0
11,119999,29,110000,5,20000,40,9999,0.100000,0,0,0.000000,6,0.000000,0.000000,0.430020,0,0,0,0,0,0,0
11,119999,30,110000,5,20000,40,9999,0.100000,0,0,0.000000,6,0.000000,0.000000,1.530705,0,0,0,0,0,0,0
11,119999,31,110000,8,0,40,9999,0.135000,0,0,0.000000,6,0.000000,0.000000,1.352317,0,0,0,0,0,0,0
11,119999,32,110000,9,0,40,9999,0.100000,0,0,0.000000,6,0.000000,0.000000,0.143597,0,0,0,0,0,0,0
11,119999,33,110000,90,50000,40,9999,0.100000,0,0,0.000000,6,0.000000,0.000000,0.101986,0,0,0,0,0,0,0
11,119999,34,110000,49,10000,40,9999,0.100000,0,0,0.000000,6,0.000000,0.000000,0.180615,0,0,0,0,0,0,0
11,119999,35,110000,0,20000,40,9999,0.100000,0,0,0.000000,6,0.000000,0.000000,0.421857,0,0,0,0,0,0,0
11,119999,36,110000,5,20000,40,9999,0.100000,0,0,0.000000,6,0.000000,0.000000,0.155298,0,0,0,0,0,0,0
11,119999,37,110000,8,0,40,9999,0.100000,0,0,0.000000,6,0.000000,0.000000,0.375030,0,0,0,0,0,0,0
11,119999,38,110000,5,20000,40,9999,0.100000,0,0,0.000000,6,0.000000,0.000000,0.259147,0,0,0,0,0,0,0
11,119999,39,110000,9,0,49,9999,0.100000,0,0,0.000000,6,1.000000,0.000000,1.810954,0,0,0,0,0,0,0
11,119999,40,110000,0,20000,49,9999,0.100000,0,0,0.000000,6,1.000000,0.000000,2.040123,0,0,0,0,0,0,0
11,119999,41,110000,90,50000,40,9999,0.100000,0,0,0.000000,6,0.000000,0.000000,0.099005,0,0,0,0,0,0,0
11,119999,42,110000,9,0,40,9999,0.100000,0,0,0.000000,6,0.000000,0.000000,0.416212,0,0,0,0,0,0,0
11,119999,43,110000,8,0,40,9999,0.100000,0,0,0.000000,6,0.000000,0.000000,0.123210,0,0,0,0,0,0,0
11,119999,44,110000,0,20000,40,9999,0.100000,0,0,0.000000,6,0.000000,0.000000,0.058374,0,0,0,0,0,0,0
11,119999,45,110000,9,0,40,9999,0.100000,0,0,0.000000,6,0.000000,0.000000,0.425983,0,0,0,0,0,0,0
11,119999,46,110000,0,20000,40,9999,0.100000,0,0,0.000000,6,0.000000,0.000000,0.216032,0,0,0,0,0,0,0
11,119999,47,110000,9,0,40,9999,0.100000,0,0,0.000000,6,0.000000,0.000000,0.330897,0,0,0,0,0,0,0
11,119999,48,110000,9,0,40,9999,0.100000,0,0,0.000000,6,0.000000,0.000000,0.173530,0,0,0,0,0,0,0
11,119999,49,110000,49,10000,49,9999,0.100000,0,0,0.000000,6,1.000000,0.000000,5.873358,0,0,0,0,0,0,0
11,119999,50,110000,90,50000,40,9999,0.100000,0,0,0.000000,6,0.000000,0.000000,0.087241,0,0,0,0,0,0,0
11,119999,51,110000,49,10000,40,9999,0.100000,0,0,0.000000,6,0.000000,0.000000,0.520577,0,0,0,0,0,0,0
11,119999,52,110000,90,50000,40,9999,0.100000,0,0,0.000000,6,0.000000,0.000000,1.310318,0,0,0,0,0,0,0
11,119999,53,110000,49,10000,40,9999,0.100000,0,0,0.000000,6,0.000000,0.000000,0.250529,0,0,0,0,0,0,0
11,119999,54,110000,49,10000,40,9999,0.100000,0,0,0.000000,6,0.000000,0.000000,1.532154,0,0,0,0,0,0,0
11,119999,55,110000,0,20000,40,9999,0.100000,0,0,0.000000,6,0.000000,0.000000,1.170982,0,0,0,0,0,0,0
11,119999,56,110000,8,0,40,9999,0.100000,0,0,0.000000,6,0.000000,0.000000,0.102883,0,0,0,0,0,0,0
11,119999,57,110000,9,0,40,9999,0.100000,0,0,0.000000,6,0.000000,0.000000,2.174115,0,0,0,0,0,0,0
11,119999,58,110000,49,10000,40,9999,0.100000,0,0,0.000000,6,0.000000,0.000000,0.237637,0,0,0,0,0,0,0
11,119999,59,110000,0,20000,40,9999,0.100000,0,0,0.000000,6,0.000000,0.000000,0.793555,0,0,0,0,0,0,0
11,119999,60,110000,9,0,49,9999,0.100000,0,0,0.000000,6,1.000000,0.000000,1.860633,0,0,0,0,0,0,0
11,119999,61,110000,0,20000,40,9999,0.100000,0,0,0.000000,6,0.000000,0.000000,0.330319,0,0,0,0,0,0,0
11,119999,62,110000,5,20000,40,9999,0.100000,0,0,0.000000,6,0.000000,0.000000,0.782559,0,0,0,0,0,0,0
11,119999,63,110000,5,20000,40,9999,0.100000,0,0,0.000000,6,0.000000,0.000000,0.378376,0,0,0,0,0,0,0
11,119999,64,110000,9,0,40,9999,0.100000,0,0,0.000000,6,0.000000,0.000000,0.889125,0,0,0,0,0,0,0
11,119999,65,110000,5,20000,40,9999,0.100000,0,0,0.000000,6,0.000000,0.000000,0.186464,0,0,0,0,0,0,0
11,119999,66,110000,90,50000,40,9999,0.100000,0,0,0.000000,6,0.000000,0.000000,0.123799,0,0,0,0,0,0,0
11,119999,67,110000,5,20000,40,9999,0.100000,0,0,0.000000,6,0.000000,0.000000,0.396857,0,0,0,0,0,0,0
11,119999,68,110000,9,0,49,9999,0.100000,0,0,0.000000,6,2.000000,0.000000,6.435726,0,0,0,0,0,0,0
11,119999,69,110000,0,20000,40,9999,0.100000,0,0,0.000000,6,0.000000,0.000000,0.278940,0,0,0,0,0,0,0
11,119999,70,110000,5,20000,40,9999,0.100000,0,0,0.000000,6,0.000000,0.000000,1.485484,0,0,0,0,0,0,0
11,119999,71,110000,49,10000,40,9999,0.100000,0,0,0.000000,6,0.000000,0.000000,14.862259,0,0,0,0,0,0,0
11,119999,72,110000,49,10000,40,9999,0.100000,0,0,0.000000,6,0.000000,0.000000,0.616208,0,0,0,0,0,0,0
11,119999,73,110000,90,50000,40,9999,0.100000,0,0,0.000000,6,0.000000,0.000000,0.396902,0,0,0,0,0,0,0
11,119999,74,110000,49,10000,40,9999,0.100000,0,0,0.000000,6,0.000000,0.000000,0.295057,0,0,0,0,0,0,0
11,119999,75,110000,9,0,40,9999,0.100000,0,0,0.000000,6,0.000000,0.000000,2.786887,0,0,0,0,0,0,0
11,119999,76,110000,8,0,40,9999,0.100000,0,0,0.000000,6,0.000000,0.000000,1.085184,0,0,0,0,0,0,0
11,119999,77,110000,0,20000,40,9999,0.100000,0,0,0.000000,6,0.000000,0.000000,0.381603,0,0,0,0,0,0,0
11,119999,78,110000,5,20000,40,9999,0.100000,0,0,0.000000,6,0.000000,0.000000,0.223471,0,0,0,0,0,0,0
11,119999,79,110000,5,20000,49,9999,0.100000,0,0,0.000000,6,1.000000,0.000000,2.637341,0,0,0,0,0,0,0
11,119999,80,110000,5,20000,40,9999,0.100000,0,0,0.000000,6,0.000000,0.000000,0.300057,0,0,0,0,0,0,0
11,119999,81,110000,90,50000,40,9999,0.100000,0,0,0.000000,6,0.000000,0.000000,0.088233,0,0,0,0,0,0,0
11,119999,82,110000,0,20000,40,9999,0.100000,0,0,0.000000,6,0.000000,0.000000,0.127494,0,0,0,0,0,0,0
11,119999,83,110000,5,20000,40,9999,0.100000,0,0,0.000000,6,0.000000,0.000000,0.082995,0,0,0,0,0,0,0
11,119999,84,110000,8,0,40,9999,0.100000,0,0,0.000000,6,0.000000,0.000000,0.114985,0,0,0,0,0,0,0
11,119999,85,110000,9,0,40,9999,0.100000,0,0,0.000000,6,0.000000,0.000000,0.142305,0,0,0,0,0,0,0
11,119999,86,110000,90,50000,40,9999,0.100000,0,0,0.000000,6,0.000000,0.000000,0.126989,0,0,0,0,0,0,0
11,119999,87,110000,5,20000,40,9999,0.100000,0,0,0.000000,6,0.000000,0.000000,0.268428,0,0,0,0,0,0,0
11,119999,88,110000,90,50000,40,9999,0.100000,0,0,0.000000,6,0.000000,0.000000,1.775139,0,0,0,0,0,0,0
11,119999,89,110000,90,50000,40,9999,0.100000,0,0,0.000000,6,0.000000,0.000000,0.159180,0,0,0,0,0,0,0
11,119999,90,110000,8,0,40,9999,0.100000,0,0,0.000000,6,0.000000,0.000000,0.102199,0,0,0,0,0,0,0
11,119999,91,110000,5,20000,40,9999,0.100000,0,0,0.000000,6,0.000000,0.000000,0.132200,0,0,0,0,0,0,0
11,119999,92,110000,49,10000,40,9999,0.100000,0,0,0.000000,6,0.000000,0.000000,0.059763,0,0,0,0,0,0,0
11,119999,93,110000,8,0,40,9999,0.100000,0,0,0.000000,6,0.000000,0.000000,0.306752,0,0,0,0,0,0,0
11,119999,94,110000,90,50000,40,9999,0.100000,0,0,0.000000,6,0.000000,0.000000,0.226062,0,0,0,0,0,0,0
11,119999,95,110000,0,20000,49,9999,0.100000,0,0,0.000000,6,1.000000,0.000000,5.099318,0,0,0,0,0,0,0
11,119999,96,110000,8,0,40,9999,0.100000,0,0,0.000000,6,0.000000,0.000000,0.113445,0,0,0,0,0,0,0
11,119999,97,110000,8,0,40,9999,0.100000,0,0,0.000000,6,0.000000,0.000000,0.114367,0,0,0,0,0,0,0
11,119999,98,110000,0,20000,40,9999,0.100000,0,0,0.000000,6,0.000000,0.000000,0.522318,0,0,0,0,0,0,0
11,119999,99,110000,5,20000,40,9999,0.100000,0,0,0.000000,6,0.000000,0.000000,0.377719,0,0,0,0,0,0,0
12,129999,0,120000,9,0,40,9999,0.100000,0,0,0.000000,6,0.000000,0.000000,1.448135,0,0,0,0,0,0,0
12,129999,1,120000,90,50000,40,9999,0.100000,0,0,0.000000,6,0.000000,0.000000,0.940831,0,0,0,0,0,0,0
12,129999,2,120000,0,20000,40,9999,0.100000,0,0,0.000000,6,0.000000,0.000000,0.537234,0,0,0,0,0,0,0
12,129999,3,120000,9,0,40,9999,0.100000,0,0,0.000000,6,0.000000,0.000000,0.139314,0,0,0,0,0,0,0
12,129999,4,120000,5,20000,40,9999,0.100000,0,0,0.000000,6,0.000000,0.000000,0.500240,0,0,0,0,0,0,0
12,129999,5,120000,8,0,40,9999,0.100000,0,0,0.000000,6,0.000000,0.000000,0.377636,0,0,0,0,0,0,0
12,129999,6,120000,8,0,40,9999,0.100000,0,0,0.000000,6,0.000000,0.000000,0.061448,0,0,0,0,0,0,0
12,129999,7,120000,5,20000,40,9999,0.100000,0,0,0.000000,6,0.000000,0.000000,0.084963,0,0,0,0,0,0,0
12,129999,8,120000,9,0,49,9999,0.100000,0,0,0.000000,6,11.000000,0.000000,12.509785,0,0,0,0,0,0,0
12,129999,9,120000,8,0,40,9999,0.100000,0,0,0.000000,6,0.000000,0.000000,24.308156,0,0,0,0,0,0,0
12,129999,10,120000,8,0,40,9999,0.100000,0,0,0.000000,6,0.000000,0.000000,1.515249,0,0,0,0,0,0,0
12,129999,11,120000,90,50000,40,9999,0.100000,0,0,0.000000,6,0.000000,0.000000,0.523812,0,0,0,0,0,0,0
12,129999,12,120000,8,0,40,9999,0.100000,0,0,0.000000,6,0.000000,0.000000,0.557826,0,0,0,0,0,0,0
12,129999,13,120000,0,20000,40,9999,0.100000,0,0,0.000000,6,0.000000,0.000000,0.094784,0,0,0,0,0,0,0
12,129999,14,120000,8,0,40,9999,0.100000,0,0,0.000000,6,0.000000,0.000000,0.371469,0,0,0,0,0,0,0
12,129999,15,120000,90,50000,49,9999,0.100000,0,0,0.000000,6,1.000000,0.000000,4.141153,0,0,0,0,0,0,0
12,129999,16,120000,5,20000,40,9999,0.100000,0,0,0.000000,6,0.000000,0.000000,0.357174,0,0,0,0,0,0,0
12,129999,17,120000,9,0,40,9999,0.100000,0,0,0.000000,6,0.000000,0.000000,0.155562,0,0,0,0,0,0,0
12,129999,18,120000,49,10000,40,9999,0.100000,0,0,0.000000,6,0.000000,0.000000,2.696602,0,0,0,0,0,0,0
12,129999,19,120000,5,20000,40,9999,0.100000,0,0,0.000000,6,0.000000,0.000000,0.159945,0,0,0,0,0,0,0
12,129999,20,120000,0,20000,40,9999,0.100000,0,0,0.000000,6,0.000000,0.000000,0.069331,0,0,0,0,0,0,0
12,129999,21,120000,90,50000,40,9999,0.100000,0,0,0.000000,6,0.000000,0.000000,1.028637,0,0,0,0,0,0,0
12,129999,22,120000,8,0,40,9999,0.100000,0,0,0.000000,6,0.000000,0.000000,0.087796,0,0,0,0,0,0,0
12,129999,23,120000,8,0,40,9999,0.100000,0,0,0.000000,6,0.000000,0.000000,0.581088,0,0,0,0,0,0,0
12,129999,24,120000,49,10000,40,9999,0.100000,0,0,0.000000,6,0.000000,0.000000,0.096448,0,0,0,0,0,0,0
12,129999,25,120000,90,50000,40,9999,0.100000,0,0,0.000000,6,0.000000,0.000000,0.122909,0,0,0,0,0,0,0
12,129999,26,120000,49,10000,40,9999,0.100000,0,0,0.000000,6,0.000000,0.000000,0.231347,0,0,0,0,0,0,0
12,129999,27,120000,90,50000,40,9999,0.100000,0,0,0.000000,6,0.000000,0.000000,0.217213,0,0,0,0,0,0,0
12,129999,28,120000,9,0,40,9999,0.100000,0,0,0.000000,6,0.000000,0.000000,0.317713,0,0,0,0,0,0,0
12,129999,29,120000,9,0,40,9999,0.100000,0,0,0.000000,6,0.000000,0.000000,1.820310,0,0,0,0,0,0,0
12,129999,30,120000,5,20000,40,9999,0.100000,0,0,0.000000,6,0.000000,0.000000,0.400105,0,0,0,0,0,0,0
12,129999,31,120000,9,0,40,9999,0.100000,0,0,0.000000,6,0.000000,0.000000,1.884342,0,0,0,0,0,0,0
12,129999,32,120000,49,10000,40,9999,0.100000,0,0,0.000000,6,0.000000,0.000000,0.145195,0,0,0,0,0,0,0
12,129999,33,120000,49,10000,40,9999,0.100000,0,0,0.000000,6,0.000000,0.000000,0.111197,0,0,0,0,0,0,0
12,129999,34,120000,9,0,40,9999,0.100000,0,0,0.000000,6,0.000000,0.000000,0.213160,0,0,0,0,0,0,0
12,129999,35,120000,0,20000,49,9999,0.100000,0,0,0.000000,6,1.000000,0.000000,2.633579,0,0,0,0,0,0,0
12,129999,36,120000,8,0,40,9999,0.100000,0,0,0.000000,6,0.000000,0.000000,0.164079,0,0,0,0,0,0,0
12,129999,37,120000,8,0,40,9999,0.100000,0,0,0.000000,6,0.000000,0.000000,0.389411,0,0,0,0,0,0,0
