generation,iteration,robot,birthday,ancestor_id,ancestor_birthday,cell_id,age,sigma,maps,genomes,fitness,cells_in_map,dist_max,dist_pot_max,dist_total,com_rx,com_tx,obj_group1,obj_group2,obj_group3,obj_group4,obj_group5
0,9999,0,0,0,0,49,9999,0.100000,0,0,0.000000,0,6.000000,0.000000,15.956653,0,0,0,0,0,0,0
0,9999,1,0,1,0,49,9999,0.100000,0,0,0.000000,0,8.000000,0.000000,9.578878,0,0,0,0,0,0,0
0,9999,2,0,2,0,99,9999,0.100000,0,0,47.368421,0,11.000000,0.000000,26.059575,0,0,1,0,0,0,0
0,9999,3,0,3,0,49,9999,0.100000,0,0,0.000000,0,9.000000,0.000000,17.434491,0,0,0,0,0,0,0
0,9999,4,0,4,0,49,9999,0.100000,0,0,0.000000,0,11.000000,0.000000,19.985572,0,0,0,0,0,0,0
0,9999,5,0,5,0,49,9999,0.100000,0,0,0.000000,0,9.000000,0.000000,15.764694,0,0,0,0,0,0,0
0,9999,6,0,6,0,49,9999,0.100000,0,0,0.000000,0,12.000000,0.000000,19.637104,0,0,0,0,0,0,0
0,9999,7,0,7,0,49,9999,0.100000,0,0,0.000000,0,3.000000,0.000000,3.213068,0,0,0,0,0,0,0
0,9999,8,0,8,0,49,9999,0.100000,0,0,0.000000,0,10.000000,0.000000,22.219872,0,0,0,0,0,0,0
0,9999,9,0,9,0,49,9999,0.100000,0,0,0.000000,0,7.000000,0.000000,12.909665,0,0,0,0,0,0,0
0,9999,10,0,10,0,99,9999,0.100000,0,0,47.368421,0,12.000000,0.000000,32.737460,0,0,1,0,0,0,0
0,9999,11,0,11,0,49,9999,0.100000,0,0,0.000000,0,13.000000,0.000000,25.111344,0,0,0,0,0,0,0
0,9999,12,0,12,0,49,9999,0.100000,0,0,0.000000,0,4.000000,0.000000,15.793051,0,0,0,0,0,0,0
0,9999,13,0,13,0,49,9999,0.100000,0,0,0.000000,0,4.000000,0.000000,11.494105,0,0,0,0,0,0,0
0,9999,14,0,14,0,99,9999,0.100000,0,0,47.368421,0,8.000000,0.000000,24.330550,0,0,1,0,0,0,0
0,9999,15,0,15,0,49,9999,0.100000,0,0,0.000000,0,10.000000,0.000000,16.916930,0,0,0,0,0,0,0
0,9999,16,0,16,0,49,9999,0.100000,0,0,0.000000,0,11.000000,0.000000,22.493160,0,0,0,0,0,0,0
0,9999,17,0,17,0,49,9999,0.100000,0,0,0.000000,0,3.000000,0.000000,4.316550,0,0,0,0,0,0,0
0,9999,18,0,18,0,49,9999,0.100000,0,0,0.000000,0,11.000000,0.000000,19.757957,0,0,0,0,0,0,0
0,9999,19,0,19,0,49,9999,0.100000,0,0,0.000000,0,13.000000,0.000000,24.590667,0,0,0,0,0,0,0
0,9999,20,0,20,0,49,9999,0.100000,0,0,0.000000,0,6.000000,0.000000,21.832264,0,0,0,0,0,0,0
0,9999,21,0,21,0,49,9999,0.100000,0,0,0.000000,0,3.000000,0.000000,8.366765,0,0,0,0,0,0,0
0,9999,22,0,22,0,49,9999,0.100000,0,0,0.000000,0,11.000000,0.000000,23.825478,0,0,0,0,0,0,0
0,9999,23,0,23,0,49,9999,0.100000,0,0,0.000000,0,12.000000,0.000000,24.456777,0,0,0,0,0,0,0
0,9999,24,0,24,0,49,9999,0.100000,0,0,0.000000,0,12.000000,0.000000,33.115818,0,0,0,0,0,0,0
0,9999,25,0,25,0,99,9999,0.100000,0,0,47.368421,0,8.000000,0.000000,25.988254,0,0,1,0,0,0,0
0,9999,26,0,26,0,9,9999,0.100000,0,0,47.368421,0,10.000000,0.000000,16.445783,0,0,0,1,0,0,0
0,9999,27,0,27,0,49,9999,0.100000,0,0,0.000000,0,3.000000,0.000000,10.176992,0,0,0,0,0,0,0
0,9999,28,0,28,0,49,9999,0.100000,0,0,0.000000,0,11.000000,0.000000,21.766129,0,0,0,0,0,0,0
0,9999,29,0,29,0,49,9999,0.100000,0,0,0.000000,0,2.000000,0.000000,10.391715,0,0,0,0,0,0,0
0,9999,30,0,30,0,49,9999,0.100000,0,0,0.000000,0,8.000000,0.000000,8.486431,0,0,0,0,0,0,0
0,9999,31,0,31,0,49,9999,0.100000,0,0,0.000000,0,9.000000,0.000000,19.283561,0,0,0,0,0,0,0
0,9999,32,0,32,0,49,9999,0.100000,0,0,0.000000,0,3.000000,0.000000,13.086738,0,0,0,0,0,0,0
0,9999,33,0,33,0,49,9999,0.100000,0,0,0.000000,0,7.000000,0.000000,20.921713,0,0,0,0,0,0,0
0,9999,34,0,34,0,99,9999,0.100000,0,0,47.368421,0,8.000000,0.000000,18.908641,0,0,1,0,0,0,0
0,9999,35,0,35,0,49,9999,0.100000,0,0,0.000000,0,10.000000,0.000000,16.350286,0,0,0,0,0,0,0
0,9999,36,0,36,0,49,9999,0.100000,0,0,0.000000,0,3.000000,0.000000,5.290238,0,0,0,0,0,0,0
0,9999,37,0,37,0,49,9999,0.100000,0,0,0.000000,0,9.000000,0.000000,29.198540,0,0,0,0,0,0,0
0,9999,38,0,38,0,49,9999,0.100000,0,0,0.000000,0,11.000000,0.000000,21.588885,0,0,0,0,0,0,0
0,9999,39,0,39,0,49,9999,0.100000,0,0,0.000000,0,9.000000,0.000000,12.602113,0,0,0,0,0,0,0
0,9999,40,0,40,0,49,9999,0.100000,0,0,0.000000,0,3.000000,0.000000,3.802653,0,0,0,0,0,0,0
0,9999,41,0,41,0,49,9999,0.100000,0,0,0.000000,0,8.000000,0.000000,10.901426,0,0,0,0,0,0,0
0,9999,42,0,42,0,49,9999,0.100000,0,0,0.000000,0,9.000000,0.000000,14.795000,0,0,0,0,0,0,0
0,9999,43,0,43,0,49,9999,0.100000,0,0,0.000000,0,4.000000,0.000000,15.368851,0,0,0,0,0,0,0
0,9999,44,0,44,0,49,9999,0.100000,0,0,0.000000,0,9.000000,0.000000,15.082167,0,0,0,0,0,0,0
0,9999,45,0,45,0,49,9999,0.100000,0,0,0.000000,0,10.000000,0.000000,14.551007,0,0,0,0,0,0,0
0,9999,46,0,46,0,49,9999,0.100000,0,0,0.000000,0,10.000000,0.000000,25.831314,0,0,0,0,0,0,0
0,9999,47,0,47,0,99,9999,0.100000,0,0,47.368421,0,8.000000,0.000000,16.186302,0,0,1,0,0,0,0
0,9999,48,0,48,0,49,9999,0.100000,0,0,0.000000,0,6.000000,0.000000,24.280717,0,0,0,0,0,0,0
0,9999,49,0,49,0,49,9999,0.100000,0,0,0.000000,0,9.000000,0.000000,16.787341,0,0,0,0,0,0,0
0,9999,50,0,50,0,49,9999,0.100000,0,0,0.000000,0,8.000000,0.000000,19.630212,0,0,0,0,0,0,0
0,9999,51,0,51,0,49,9999,0.100000,0,0,0.000000,0,12.000000,0.000000,17.281884,0,0,0,0,0,0,0
0,9999,52,0,52,0,49,9999,0.100000,0,0,0.000000,0,8.000000,0.000000,16.748148,0,0,0,0,0,0,0
0,9999,53,0,53,0,9,9999,0.100000,0,0,47.368421,0,10.000000,0.000000,20.482897,0,0,0,1,0,0,0
0,9999,54,0,54,0,49,9999,0.100000,0,0,0.000000,0,8.000000,0.000000,11.280110,0,0,0,0,0,0,0
0,9999,55,0,55,0,49,9999,0.100000,0,0,0.000000,0,6.000000,0.000000,23.692214,0,0,0,0,0,0,0
0,9999,56,0,56,0,49,9999,0.100000,0,0,0.000000,0,10.000000,0.000000,16.100784,0,0,0,0,0,0,0
0,9999,57,0,57,0,49,9999,0.100000,0,0,0.000000,0,5.000000,0.000000,11.613078,0,0,0,0,0,0,0
0,9999,58,0,58,0,49,9999,0.100000,0,0,0.000000,0,9.000000,0.000000,22.029649,0,0,0,0,0,0,0
0,9999,59,0,59,0,49,9999,0.100000,0,0,0.000000,0,11.000000,0.000000,22.039237,0,0,0,0,0,0,0
0,9999,60,0,60,0,49,9999,0.100000,0,0,0.000000,0,4.000000,0.000000,12.536224,0,0,0,0,0,0,0
0,9999,61,0,61,0,49,9999,0.100000,0,0,0.000000,0,1.000000,0.000000,2.914920,0,0,0,0,0,0,0
0,9999,62,0,62,0,49,9999,0.100000,0,0,0.000000,0,8.000000,0.000000,18.088883,0,0,0,0,0,0,0
0,9999,63,0,63,0,49,9999,0.100000,0,0,0.000000,0,10.000000,0.000000,12.358580,0,0,0,0,0,0,0
0,9999,64,0,64,0,49,9999,0.100000,0,0,0.000000,0,4.000000,0.000000,10.625077,0,0,0,0,0,0,0
0,9999,65,0,65,0,49,9999,0.100000,0,0,0.000000,0,1.000000,0.000000,10.223249,0,0,0,0,0,0,0
0,9999,66,0,66,0,49,9999,0.100000,0,0,0.000000,0,5.000000,0.000000,13.369117,0,0,0,0,0,0,0
0,9999,67,0,67,0,49,9999,0.100000,0,0,0.000000,0,9.000000,0.000000,12.630963,0,0,0,0,0,0,0
0,9999,68,0,68,0,49,9999,0.100000,0,0,0.000000,0,10.000000,0.000000,22.574858,0,0,0,0,0,0,0
0,9999,69,0,69,0,49,9999,0.100000,0,0,0.000000,0,11.000000,0.000000,16.596600,0,0,0,0,0,0,0
0,9999,70,0,70,0,99,9999,0.100000,0,0,47.368421,0,8.000000,0.000000,29.992904,0,0,1,0,0,0,0
0,9999,71,0,71,0,49,9999,0.100000,0,0,0.000000,0,2.000000,0.000000,16.686066,0,0,0,0,0,0,0
0,9999,72,0,72,0,49,9999,0.100000,0,0,0.000000,0,6.000000,0.000000,15.669136,0,0,0,0,0,0,0
0,9999,73,0,73,0,49,9999,0.100000,0,0,0.000000,0,10.000000,0.000000,17.092869,0,0,0,0,0,0,0
0,9999,74,0,74,0,49,9999,0.100000,0,0,0.000000,0,13.000000,0.000000,21.672373,0,0,0,0,0,0,0
0,9999,75,0,75,0,99,9999,0.100000,0,0,47.368421,0,9.000000,0.000000,24.292331,0,0,1,0,0,0,0
0,9999,76,0,76,0,49,9999,0.100000,0,0,0.000000,0,8.000000,0.000000,17.433998,0,0,0,0,0,0,0
0,9999,77,0,77,0,49,9999,0.100000,0,0,0.000000,0,1.000000,0.000000,2.430291,0,0,0,0,0,0,0
0,9999,78,0,78,0,49,9999,0.100000,0,0,0.000000,0,10.000000,0.000000,16.754169,0,0,0,0,0,0,0
0,9999,79,0,79,0,49,9999,0.100000,0,0,0.000000,0,11.000000,0.000000,19.164540,0,0,0,0,0,0,0
0,9999,80,0,80,0,49,9999,0.100000,0,0,0.000000,0,11.000000,0.000000,24.271433,0,0,0,0,0,0,0
0,9999,81,0,81,0,49,9999,0.100000,0,0,0.000000,0,3.000000,0.000000,15.059890,0,0,0,0,0,0,0
0,9999,82,0,82,0,49,9999,0.100000,0,0,0.000000,0,6.000000,0.000000,21.504583,0,0,0,0,0,0,0
0,9999,83,0,83,0,49,9999,0.100000,0,0,0.000000,0,13.000000,0.000000,27.863084,0,0,0,0,0,0,0
0,9999,84,0,84,0,49,9999,0.100000,0,0,0.000000,0,4.000000,0.000000,14.067567,0,0,0,0,0,0,0
0,9999,85,0,85,0,49,9999,0.100000,0,0,0.000000,0,11.000000,0.000000,26.909965,0,0,0,0,0,0,0
0,9999,86,0,86,0,49,9999,0.100000,0,0,0.000000,0,9.000000,0.000000,16.324727,0,0,0,0,0,0,0
0,9999,87,0,87,0,49,9999,0.100000,0,0,0.000000,0,2.000000,0.000000,5.043582,0,0,0,0,0,0,0
0,9999,88,0,88,0,49,9999,0.100000,0,0,0.000000,0,5.000000,0.000000,8.435600,0,0,0,0,0,0,0
0,9999,89,0,89,0,49,9999,0.100000,0,0,0.000000,0,9.000000,0.000000,30.611818,0,0,0,0,0,0,0
0,9999,90,0,90,0,49,9999,0.100000,0,0,0.000000,0,8.000000,0.000000,25.889485,0,0,0,0,0,0,0
0,9999,91,0,91,0,49,9999,0.100000,0,0,0.000000,0,6.000000,0.000000,17.900991,0,0,0,0,0,0,0
0,9999,92,0,92,0,49,9999,0.100000,0,0,0.000000,0,11.000000,0.000000,18.916059,0,0,0,0,0,0,0
0,9999,93,0,93,0,49,9999,0.100000,0,0,0.000000,0,9.000000,0.000000,10.549507,0,0,0,0,0,0,0
0,9999,94,0,94,0,49,9999,0.100000,0,0,0.000000,0,13.000000,0.000000,27.174572,0,0,0,0,0,0,0
0,9999,95,0,95,0,49,9999,0.100000,0,0,0.000000,0,9.000000,0.000000,15.250887,0,0,0,0,0,0,0
0,9999,96,0,96,0,49,9999,0.100000,0,0,0.000000,0,10.000000,0.000000,18.370896,0,0,0,0,0,0,0
0,9999,97,0,97,0,49,9999,0.100000,0,0,0.000000,0,11.000000,0.000000,20.773642,0,0,0,0,0,0,0
0,9999,98,0,98,0,49,9999,0.100000,0,0,0.000000,0,8.000000,0.000000,9.235246,0,0,0,0,0,0,0
0,9999,99,0,99,0,49,9999,0.100000,0,0,0.000000,0,9.000000,0.000000,19.223546,0,0,0,0,0,0,0
1,19999,0,10000,2,0,49,9999,0.100000,0,0,0.000000,3,2.000000,0.000000,19.909232,0,0,0,0,0,0,0
1,19999,1,10000,26,0,40,9999,0.100000,0,0,0.000000,3,0.000000,0.000000,0.852574,0,0,0,0,0,0,0
1,19999,2,10000,2,0,49,9999,0.100000,0,0,0.000000,1,2.000000,0.000000,9.505931,0,0,0,0,0,0,0
1,19999,3,10000,67,0,49,9999,0.100000,0,0,0.000000,3,1.000000,0.000000,17.377654,0,0,0,0,0,0,0
1,19999,4,10000,2,0,99,9999,0.100000,0,0,34.210526,3,16.000000,0.000000,31.168738,0,0,1,0,0,0,0
1,19999,5,10000,67,0,40,9999,0.100000,0,0,0.000000,3,0.000000,0.000000,0.851359,0,0,0,0,0,0,0
1,19999,6,10000,67,0,49,9999,0.100000,0,0,0.000000,3,3.000000,0.000000,5.962219,0,0,0,0,0,0,0
1,19999,7,10000,3,0,40,9999,0.100000,0,0,0.000000,3,0.000000,0.000000,2.684179,0,0,0,0,0,0,0
1,19999,8,10000,2,0,49,9999,0.100000,0,0,0.000000,3,5.000000,0.000000,15.235774,0,0,0,0,0,0,0
1,19999,9,10000,2,0,40,9999,0.100000,0,0,0.000000,3,0.000000,0.000000,3.326857,0,0,0,0,0,0,0
1,19999,10,10000,2,0,49,9999,0.100000,0,0,0.000000,3,5.000000,0.000000,11.630018,0,0,0,0,0,0,0
1,19999,11,10000,2,0,40,9999,0.100000,0,0,0.000000,2,0.000000,0.000000,0.481076,0,0,0,0,0,0,0
1,19999,12,10000,2,0,49,9999,0.100000,0,0,0.000000,3,2.000000,0.000000,15.986406,0,0,0,0,0,0,0
1,19999,13,10000,2,0,40,9999,0.100000,0,0,0.000000,3,0.000000,0.000000,5.380211,0,0,0,0,0,0,0
1,19999,14,10000,3,0,49,9999,0.100000,0,0,0.000000,3,5.000000,0.000000,14.198657,0,0,0,0,0,0,0
1,19999,15,10000,26,0,49,9999,0.100000,0,0,0.000000,3,5.000000,0.000000,12.197737,0,0,0,0,0,0,0
1,19999,16,10000,2,0,99,9999,0.100000,0,0,34.210526,3,3.000000,0.000000,25.361757,0,0,1,0,0,0,0
1,19999,17,10000,3,0,40,9999,0.100000,0,0,0.000000,3,0.000000,0.000000,0.562562,0,0,0,0,0,0,0
1,19999,18,0,18,0,49,19999,0.100000,0,0,0.000000,3,1.000000,0.000000,8.772636,0,0,0,0,0,0,0
1,19999,19,10000,2,0,49,9999,0.100000,0,0,0.000000,3,8.000000,0.000000,24.224295,0,0,0,0,0,0,0
1,19999,20,10000,3,0,40,9999,0.100000,0,0,0.000000,3,0.000000,0.000000,0.975714,0,0,0,0,0,0,0
1,19999,21,10000,2,0,49,9999,0.100000,0,0,0.000000,3,1.000000,0.000000,6.931310,0,0,0,0,0,0,0
1,19999,22,10000,3,0,49,9999,0.100000,0,0,0.000000,3,1.000000,0.000000,2.904991,0,0,0,0,0,0,0
1,19999,23,10000,2,0,49,9999,0.100000,0,0,0.000000,3,2.000000,0.000000,20.433703,0,0,0,0,0,0,0
1,19999,24,10000,3,0,49,9999,0.100000,0,0,0.000000,3,1.000000,0.000000,9.170916,0,0,0,0,0,0,0
1,19999,25,10000,3,0,49,9999,0.100000,0,0,0.000000,3,1.000000,0.000000,8.398649,0,0,0,0,0,0,0
1,19999,26,10000,26,0,40,9999,0.100000,0,0,0.000000,3,0.000000,0.000000,0.851554,0,0,0,0,0,0,0
1,19999,27,10000,2,0,40,9999,0.100000,0,0,0.000000,3,0.000000,0.000000,0.162099,0,0,0,0,0,0,0
1,19999,28,10000,0,0,49,9999,0.100000,0,0,0.000000,3,1.000000,0.000000,21.150614,0,0,0,0,0,0,0
1,19999,29,10000,67,0,49,9999,0.100000,0,0,0.000000,3,1.000000,0.000000,3.720529,0,0,0,0,0,0,0
1,19999,30,10000,67,0,49,9999,0.100000,0,0,0.000000,3,2.000000,0.000000,7.842628,0,0,0,0,0,0,0
1,19999,31,10000,0,0,40,9999,0.100000,0,0,0.000000,3,0.000000,0.000000,15.497824,0,0,0,0,0,0,0
1,19999,32,10000,32,0,40,9999,0.100000,0,0,0.000000,2,0.000000,0.000000,2.723473,0,0,0,0,0,0,0
1,19999,33,10000,3,0,40,9999,0.100000,0,0,0.000000,3,0.000000,0.000000,0.892170,0,0,0,0,0,0,0
1,19999,34,10000,2,0,40,9999,0.100000,0,0,0.000000,3,0.000000,0.000000,7.993323,0,0,0,0,0,0,0
1,19999,35,10000,0,0,49,9999,0.100000,0,0,0.000000,3,2.000000,0.000000,25.817073,0,0,0,0,0,0,0
1,19999,36,10000,26,0,40,9999,0.100000,0,0,0.000000,3,0.000000,0.000000,0.808245,0,0,0,0,0,0,0
1,19999,37,10000,3,0,49,9999,0.100000,0,0,0.000000,3,2.000000,0.000000,15.708611,0,0,0,0,0,0,0
1,19999,38,10000,2,0,40,9999,0.100000,0,0,0.000000,3,0.000000,0.000000,1.608894,0,0,0,0,0,0,0
1,19999,39,10000,0,0,49,9999,0.100000,0,0,0.000000,3,2.000000,0.000000,16.797569,0,0,0,0,0,0,0
1,19999,40,10000,3,0,40,9999,0.100000,0,0,0.000000,3,0.000000,0.000000,0.639318,0,0,0,0,0,0,0
1,19999,41,0,41,0,40,19999,0.100000,0,0,0.000000,3,0.000000,0.000000,0.767708,0,0,0,0,0,0,0
1,19999,42,10000,67,0,40,9999,0.100000,0,0,0.000000,3,0.000000,0.000000,5.886682,0,0,0,0,0,0,0
1,19999,43,10000,67,0,49,9999,0.100000,0,0,0.000000,3,3.000000,0.000000,6.973034,0,0,0,0,0,0,0
1,19999,44,10000,26,0,49,9999,0.100000,0,0,0.000000,3,3.000000,0.000000,8.639486,0,0,0,0,0,0,0
1,19999,45,10000,2,0,49,9999,0.100000,0,0,0.000000,3,2.000000,0.000000,11.313190,0,0,0,0,0,0,0
1,19999,46,10000,67,0,49,9999,0.100000,0,0,0.000000,3,1.000000,0.000000,4.347467,0,0,0,0,0,0,0
1,19999,47,10000,3,0,49,9999,0.100000,0,0,0.000000,3,1.000000,0.000000,11.789732,0,0,0,0,0,0,0
1,19999,48,10000,2,0,40,9999,0.065000,0,0,0.000000,3,0.000000,0.000000,3.323448,0,0,0,0,0,0,0
1,19999,49,10000,67,0,40,9999,0.100000,0,0,0.000000,3,0.000000,0.000000,2.038710,0,0,0,0,0,0,0
1,19999,50,10000,2,0,99,9999,0.100000,0,0,34.210526,3,2.000000,0.000000,9.565049,0,0,1,0,0,0,0
1,19999,51,10000,0,0,49,9999,0.100000,0,0,0.000000,3,5.000000,0.000000,15.261451,0,0,0,0,0,0,0
1,19999,52,10000,3,0,49,9999,0.100000,0,0,0.000000,3,4.000000,0.000000,12.428907,0,0,0,0,0,0,0
1,19999,53,10000,26,0,49,9999,0.100000,0,0,0.000000,3,1.000000,0.000000,8.176849,0,0,0,0,0,0,0
1,19999,54,10000,67,0,40,9999,0.100000,0,0,0.000000,3,0.000000,0.000000,0.737824,0,0,0,0,0,0,0
1,19999,55,10000,67,0,49,9999,0.100000,0,0,0.000000,3,3.000000,0.000000,12.987430,0,0,0,0,0,0,0
1,19999,56,10000,2,0,49,9999,0.100000,0,0,0.000000,3,1.000000,0.000000,3.662157,0,0,0,0,0,0,0
1,19999,57,10000,2,0,49,9999,0.100000,0,0,0.000000,3,2.000000,0.000000,17.618078,0,0,0,0,0,0,0
1,19999,58,10000,2,0,49,9999,0.100000,0,0,0.000000,3,3.000000,0.000000,10.884650,0,0,0,0,0,0,0
1,19999,59,10000,2,0,49,9999,0.100000,0,0,0.000000,3,1.000000,0.000000,4.486095,0,0,0,0,0,0,0
1,19999,60,10000,2,0,99,9999,0.100000,0,0,48.155355,3,8.000000,0.000000,13.073750,0,0,1,0,0,0,0
1,19999,61,0,61,0,49,19999,0.100000,0,0,0.000000,3,2.000000,0.000000,2.572793,0,0,0,0,0,0,0
1,19999,62,10000,0,0,49,9999,0.100000,0,0,0.000000,3,1.000000,0.000000,16.558368,0,0,0,0,0,0,0
1,19999,63,10000,0,0,40,9999,0.100000,0,0,0.000000,3,0.000000,0.000000,0.300510,0,0,0,0,0,0,0
1,19999,64,10000,3,0,99,9999,0.100000,0,0,34.210526,3,12.000000,0.000000,18.939672,0,0,1,0,0,0,0
1,19999,65,10000,2,0,49,9999,0.100000,0,0,0.000000,3,2.000000,0.000000,2.957503,0,0,0,0,0,0,0
1,19999,66,10000,3,0,49,9999,0.100000,0,0,0.000000,3,2.000000,0.000000,12.194655,0,0,0,0,0,0,0
1,19999,67,10000,11,0,40,9999,0.100000,0,0,0.000000,3,0.000000,0.000000,1.132898,0,0,0,0,0,0,0
1,19999,68,10000,2,0,49,9999,0.100000,0,0,0.000000,3,1.000000,0.000000,13.894331,0,0,0,0,0,0,0
1,19999,69,10000,2,0,40,9999,0.100000,0,0,0.000000,3,0.000000,0.000000,0.955244,0,0,0,0,0,0,0
1,19999,70,10000,2,0,49,9999,0.100000,0,0,0.000000,3,1.000000,0.000000,7.103047,0,0,0,0,0,0,0
1,19999,71,10000,2,0,49,9999,0.100000,0,0,0.000000,3,2.000000,0.000000,9.019693,0,0,0,0,0,0,0
1,19999,72,10000,0,0,49,9999,0.100000,0,0,0.000000,3,3.000000,0.000000,19.066257,0,0,0,0,0,0,0
1,19999,73,10000,2,0,49,9999,0.100000,0,0,0.000000,3,5.000000,0.000000,24.682445,0,0,0,0,0,0,0
1,19999,74,10000,3,0,40,9999,0.100000,0,0,0.000000,3,0.000000,0.000000,0.172231,0,0,0,0,0,0,0
1,19999,75,10000,0,0,49,9999,0.100000,0,0,0.000000,3,1.000000,0.000000,20.761761,0,0,0,0,0,0,0
1,19999,76,10000,2,0,49,9999,0.100000,0,0,0.000000,3,4.000000,0.000000,18.664793,0,0,0,0,0,0,0
1,19999,77,10000,67,0,49,9999,0.100000,0,0,0.000000,3,2.000000,0.000000,3.424298,0,0,0,0,0,0,0
1,19999,78,10000,0,0,49,9999,0.100000,0,0,0.000000,3,3.000000,0.000000,15.902980,0,0,0,0,0,0,0
1,19999,79,0,79,0,49,19999,0.100000,0,0,0.000000,3,2.000000,0.000000,5.755893,0,0,0,0,0,0,0
1,19999,80,10000,67,0,49,9999,0.100000,0,0,0.000000,3,1.000000,0.000000,17.828092,0,0,0,0,0,0,0
1,19999,81,10000,2,0,40,9999,0.100000,0,0,0.000000,3,0.000000,0.000000,0.288161,0,0,0,0,0,0,0
1,19999,82,10000,67,0,49,9999,0.100000,0,0,0.000000,3,3.000000,0.000000,17.410676,0,0,0,0,0,0,0
1,19999,83,10000,3,0,40,9999,0.100000,0,0,0.000000,3,0.000000,0.000000,0.584612,0,0,0,0,0,0,0
1,19999,84,10000,0,0,99,9999,0.100000,0,0,68.421053,3,12.000000,0.000000,24.384502,0,0,2,0,0,0,0
1,19999,85,10000,67,0,49,9999,0.100000,0,0,0.000000,3,4.000000,0.000000,11.570233,0,0,0,0,0,0,0
1,19999,86,0,86,0,40,19999,0.100000,0,0,0.000000,3,0.000000,0.000000,0.122066,0,0,0,0,0,0,0
1,19999,87,10000,2,0,40,9999,0.100000,0,0,0.000000,3,0.000000,0.000000,2.129083,0,0,0,0,0,0,0
1,19999,88,10000,26,0,40,9999,0.100000,0,0,0.000000,3,0.000000,0.000000,0.157213,0,0,0,0,0,0,0
1,19999,89,10000,67,0,49,9999,0.100000,0,0,0.000000,3,4.000000,0.000000,7.174535,0,0,0,0,0,0,0
1,19999,90,10000,2,0,49,9999,0.100000,0,0,0.000000,3,3.000000,0.000000,25.256119,0,0,0,0,0,0,0
1,19999,91,10000,3,0,49,9999,0.100000,0,0,0.000000,3,3.000000,0.000000,12.441836,0,0,0,0,0,0,0
1,19999,92,10000,2,0,49,9999,0.100000,0,0,0.000000,3,4.000000,0.000000,18.745119,0,0,0,0,0,0,0
1,19999,93,10000,0,0,40,9999,0.100000,0,0,0.000000,3,0.000000,0.000000,1.717362,0,0,0,0,0,0,0
1,19999,94,10000,26,0,49,9999,0.100000,0,0,0.000000,3,4.000000,0.000000,8.488384,0,0,0,0,0,0,0
1,19999,95,10000,2,0,40,9999,0.100000,0,0,0.000000,3,0.000000,0.000000,1.447616,0,0,0,0,0,0,0
1,19999,96,0,96,0,40,19999,0.100000,0,0,0.000000,3,0.000000,0.000000,5.141153,0,0,0,0,0,0,0
1,19999,97,10000,0,0,40,9999,0.100000,0,0,0.000000,3,0.000000,0.000000,0.589050,0,0,0,0,0,0,0
1,19999,98,10000,0,0,49,9999,0.135000,0,0,0.000000,3,4.000000,0.000000,4.591746,0,0,0,0,0,0,0
1,19999,99,10000,67,0,49,9999,0.100000,0,0,0.000000,3,4.000000,0.000000,15.416039,0,0,0,0,0,0,0
2,29999,0,20000,0,0,49,9999,0.100000,0,0,0.000000,3,3.000000,0.000000,16.229093,0,0,0,0,0,0,0
2,29999,1,20000,2,0,40,9999,0.100000,0,0,0.000000,5,0.000000,0.000000,0.501785,0,0,0,0,0,0,0
2,29999,2,20000,2,0,40,9999,0.100000,0,0,0.000000,6,0.000000,0.000000,1.849257,0,0,0,0,0,0,0
2,29999,3,10000,67,0,40,19999,0.100000,0,0,0.000000,3,0.000000,0.000000,17.943743,0,0,0,0,0,0,0
2,29999,4,20000,26,10000,49,9999,0.100000,0,0,0.000000,6,2.000000,0.000000,9.796416,0,0,0,0,0,0,0
2,29999,5,20000,2,0,49,9999,0.100000,0,0,0.000000,4,1.000000,0.000000,6.445190,0,0,0,0,0,0,0
2,29999,6,20000,2,0,40,9999,0.100000,0,0,0.000000,6,0.000000,0.000000,21.793810,0,0,0,0,0,0,0
2,29999,7,20000,48,10000,49,9999,0.065000,0,0,0.000000,6,1.000000,0.000000,2.781141,0,0,0,0,0,0,0
2,29999,8,20000,0,0,40,9999,0.100000,0,0,0.000000,6,0.000000,0.000000,0.707656,0,0,0,0,0,0,0
2,29999,9,20000,67,10000,49,9999,0.100000,0,0,0.000000,6,3.000000,0.000000,18.844890,0,0,0,0,0,0,0
2,29999,10,20000,2,0,49,9999,0.100000,0,0,0.000000,6,1.000000,0.000000,3.260806,0,0,0,0,0,0,0
2,29999,11,20000,1,10000,40,9999,0.100000,0,0,0.000000,6,0.000000,0.000000,0.486482,0,0,0,0,0,0,0
2,29999,12,20000,84,10000,49,9999,0.100000,0,0,0.000000,6,1.000000,0.000000,9.784501,0,0,0,0,0,0,0
2,29999,13,20000,1,10000,40,9999,0.100000,0,0,0.000000,6,0.000000,0.000000,0.561374,0,0,0,0,0,0,0
2,29999,14,20000,0,0,40,9999,0.100000,0,0,0.000000,3,0.000000,0.000000,0.881284,0,0,0,0,0,0,0
2,29999,15,20000,0,0,49,9999,0.100000,0,0,0.000000,6,3.000000,0.000000,12.085622,0,0,0,0,0,0,0
2,29999,16,20000,26,0,49,9999,0.100000,0,0,0.000000,6,5.000000,0.000000,8.658205,0,0,0,0,0,0,0
2,29999,17,20000,5,10000,40,9999,0.100000,0,0,0.000000,6,0.000000,0.000000,0.573986,0,0,0,0,0,0,0
2,29999,18,20000,1,10000,49,9999,0.100000,0,0,0.000000,6,8.000000,0.000000,12.097442,0,0,0,0,0,0,0
2,29999,19,20000,2,0,49,9999,0.100000,0,0,0.000000,3,3.000000,0.000000,21.776998,0,0,0,0,0,0,0
2,29999,20,20000,0,0,40,9999,0.100000,0,0,0.000000,6,0.000000,0.000000,1.276634,0,0,0,0,0,0,0
2,29999,21,20000,26,0,49,9999,0.100000,0,0,0.000000,6,1.000000,0.000000,4.689271,0,0,0,0,0,0,0
2,29999,22,20000,0,0,40,9999,0.100000,0,0,0.000000,6,0.000000,0.000000,2.367321,0,0,0,0,0,0,0
2,29999,23,20000,26,0,49,9999,0.100000,0,0,0.000000,6,3.000000,0.000000,9.550491,0,0,0,0,0,0,0
2,29999,24,20000,26,10000,49,9999,0.100000,0,0,0.000000,6,4.000000,0.000000,9.222360,0,0,0,0,0,0,0
2,29999,25,20000,26,10000,49,9999,0.100000,0,0,0.000000,6,7.000000,0.000000,19.437575,0,0,0,0,0,0,0
2,29999,26,20000,2,0,9,9999,0.100000,0,0,0.000000,6,1.000000,0.000000,5.649539,0,0,0,1,0,0,0
2,29999,27,20000,26,10000,40,9999,0.100000,0,0,0.000000,6,0.000000,0.000000,0.107246,0,0,0,0,0,0,0
2,29999,28,20000,84,10000,49,9999,0.100000,0,0,0.000000,6,1.000000,0.000000,20.868444,0,0,0,0,0,0,0
2,29999,29,20000,48,10000,40,9999,0.065000,0,0,0.000000,6,0.000000,0.000000,0.199323,0,0,0,0,0,0,0
2,29999,30,20000,26,10000,99,9999,0.100000,0,0,34.210526,6,6.000000,0.000000,11.632692,0,0,1,0,0,0,0
2,29999,31,20000,2,0,49,9999,0.100000,0,0,0.000000,6,1.000000,0.000000,14.789392,0,0,0,0,0,0,0
2,29999,32,20000,84,10000,49,9999,0.100000,0,0,0.000000,6,1.000000,0.000000,2.767992,0,0,0,0,0,0,0
2,29999,33,20000,1,10000,40,9999,0.100000,0,0,0.000000,6,0.000000,0.000000,0.406657,0,0,0,0,0,0,0
2,29999,34,20000,48,10000,40,9999,0.065000,0,0,0.000000,6,0.000000,0.000000,8.564285,0,0,0,0,0,0,0
2,29999,35,20000,84,10000,49,9999,0.100000,0,0,0.000000,6,2.000000,0.000000,18.375872,0,0,0,0,0,0,0
2,29999,36,20000,2,0,40,9999,0.100000,0,0,0.000000,6,0.000000,0.000000,1.032206,0,0,0,0,0,0,0
2,29999,37,20000,0,0,49,9999,0.100000,0,0,0.000000,6,2.000000,0.000000,15.738499,0,0,0,0,0,0,0
2,29999,38,20000,84,10000,49,9999,0.100000,0,0,0.000000,6,1.000000,0.000000,2.636326,0,0,0,0,0,0,0
2,29999,39,20000,84,10000,40,9999,0.100000,0,0,0.000000,6,0.000000,0.000000,13.460305,0,0,0,0,0,0,0
2,29999,40,20000,26,10000,40,9999,0.100000,0,0,0.000000,6,0.000000,0.000000,0.839940,0,0,0,0,0,0,0
2,29999,41,20000,26,10000,40,9999,0.100000,0,0,0.000000,6,0.000000,0.000000,1.585404,0,0,0,0,0,0,0
2,29999,42,20000,1,10000,40,9999,0.100000,0,0,0.000000,6,0.000000,0.000000,6.510446,0,0,0,0,0,0,0
2,29999,43,20000,26,0,40,9999,0.100000,0,0,0.000000,6,0.000000,0.000000,0.652915,0,0,0,0,0,0,0
2,29999,44,20000,26,0,49,9999,0.100000,0,0,0.000000,6,4.000000,0.000000,13.072944,0,0,0,0,0,0,0
2,29999,45,20000,0,0,40,9999,0.100000,0,0,0.000000,6,0.000000,0.000000,1.717427,0,0,0,0,0,0,0
2,29999,46,20000,48,10000,49,9999,0.065000,0,0,0.000000,6,1.000000,0.000000,3.783166,0,0,0,0,0,0,0
2,29999,47,20000,1,10000,99,9999,0.100000,0,0,34.210526,6,3.000000,0.000000,12.042214,0,0,1,0,0,0,0
2,29999,48,20000,2,0,40,9999,0.100000,0,0,0.000000,6,0.000000,0.000000,1.542885,0,0,0,0,0,0,0
2,29999,49,20000,26,0,49,9999,0.100000,0,0,0.000000,6,1.000000,0.000000,2.366601,0,0,0,0,0,0,0
2,29999,50,20000,67,10000,49,9999,0.100000,0,0,0.000000,6,4.000000,0.000000,10.064908,0,0,0,0,0,0,0
2,29999,51,20000,1,10000,99,9999,0.100000,0,0,34.210526,6,6.000000,0.000000,9.637309,0,0,1,0,0,0,0
2,29999,52,20000,48,10000,49,9999,0.065000,0,0,0.000000,6,3.000000,0.000000,21.015258,0,0,0,0,0,0,0
2,29999,53,20000,26,0,49,9999,0.100000,0,0,0.000000,6,2.000000,0.000000,5.516178,0,0,0,0,0,0,0
2,29999,54,20000,1,10000,40,9999,0.100000,0,0,0.000000,6,0.000000,0.000000,0.403957,0,0,0,0,0,0,0
2,29999,55,20000,26,0,49,9999,0.100000,0,0,0.000000,6,2.000000,0.000000,6.185049,0,0,0,0,0,0,0
2,29999,56,20000,1,10000,49,9999,0.100000,0,0,0.000000,6,1.000000,0.000000,3.826803,0,0,0,0,0,0,0
2,29999,57,20000,26,10000,49,9999,0.100000,0,0,0.000000,6,1.000000,0.000000,6.540505,0,0,0,0,0,0,0
2,29999,58,20000,26,0,49,9999,0.100000,0,0,0.000000,6,2.000000,0.000000,12.027217,0,0,0,0,0,0,0
2,29999,59,20000,2,0,40,9999,0.100000,0,0,0.000000,6,0.000000,0.000000,0.489740,0,0,0,0,0,0,0
2,29999,60,20000,26,0,49,9999,0.100000,0,0,0.000000,6,5.000000,0.000000,12.836076,0,0,0,0,0,0,0
2,29999,61,20000,26,0,9,9999,0.100000,0,0,34.210526,6,9.000000,0.000000,12.038330,0,0,0,0,1,0,0
2,29999,62,20000,1,10000,49,9999,0.100000,0,0,0.000000,6,3.000000,0.000000,15.087289,0,0,0,0,0,0,0
2,29999,63,20000,67,10000,40,9999,0.100000,0,0,0.000000,6,0.000000,0.000000,0.364889,0,0,0,0,0,0,0
2,29999,64,20000,1,10000,49,9999,0.100000,0,0,0.000000,6,2.000000,0.000000,6.564910,0,0,0,0,0,0,0
2,29999,65,20000,2,0,9,9999,0.100000,0,0,34.210526,6,9.000000,0.000000,12.816307,0,0,0,0,1,0,0
2,29999,66,20000,26,0,49,9999,0.100000,0,0,0.000000,6,3.000000,0.000000,10.436070,0,0,0,0,0,0,0
2,29999,67,20000,84,10000,40,9999,0.100000,0,0,0.000000,6,0.000000,0.000000,0.663561,0,0,0,0,0,0,0
2,29999,68,20000,0,0,49,9999,0.100000,0,0,0.000000,6,1.000000,0.000000,5.216666,0,0,0,0,0,0,0
2,29999,69,20000,1,10000,40,9999,0.100000,0,0,0.000000,6,0.000000,0.000000,1.232433,0,0,0,0,0,0,0
2,29999,70,20000,48,10000,40,9999,0.065000,0,0,0.000000,6,0.000000,0.000000,6.848557,0,0,0,0,0,0,0
2,29999,71,20000,26,0,40,9999,0.100000,0,0,0.000000,6,0.000000,0.000000,0.423581,0,0,0,0,0,0,0
2,29999,72,20000,13,10000,49,9999,0.100000,0,0,0.000000,6,4.000000,0.000000,12.682183,0,0,0,0,0,0,0
2,29999,73,20000,26,0,49,9999,0.100000,0,0,0.000000,6,2.000000,0.000000,7.794638,0,0,0,0,0,0,0
2,29999,74,20000,0,0,40,9999,0.100000,0,0,0.000000,6,0.000000,0.000000,0.167770,0,0,0,0,0,0,0
2,29999,75,20000,1,10000,49,9999,0.100000,0,0,0.000000,6,1.000000,0.000000,5.778001,0,0,0,0,0,0,0
2,29999,76,20000,26,10000,49,9999,0.100000,0,0,0.000000,6,4.000000,0.000000,10.903989,0,0,0,0,0,0,0
2,29999,77,20000,26,0,9,9999,0.100000,0,0,34.210526,6,9.000000,0.000000,12.567730,0,0,0,0,1,0,0
2,29999,78,20000,0,0,49,9999,0.100000,0,0,0.000000,6,2.000000,0.000000,14.057774,0,0,0,0,0,0,0
2,29999,79,20000,2,0,49,9999,0.100000,0,0,0.000000,6,5.000000,0.000000,19.112538,0,0,0,0,0,0,0
2,29999,80,20000,13,10000,49,9999,0.100000,0,0,0.000000,6,7.000000,0.000000,12.368108,0,0,0,0,0,0,0
2,29999,81,20000,67,10000,40,9999,0.100000,0,0,0.000000,6,0.000000,0.000000,0.080188,0,0,0,0,0,0,0
2,29999,82,20000,84,10000,49,9999,0.100000,0,0,0.000000,6,3.000000,0.000000,12.888308,0,0,0,0,0,0,0
2,29999,83,20000,2,0,40,9999,0.100000,0,0,0.000000,6,0.000000,0.000000,0.583873,0,0,0,0,0,0,0
2,29999,84,20000,84,10000,49,9999,0.100000,0,0,0.000000,6,3.000000,0.000000,18.018556,0,0,0,0,0,0,0
2,29999,85,20000,86,0,9,9999,0.100000,0,0,34.210526,6,5.000000,0.000000,14.741746,0,0,0,0,1,0,0
2,29999,86,20000,1,10000,40,9999,0.100000,0,0,0.000000,6,0.000000,0.000000,0.545640,0,0,0,0,0,0,0
2,29999,87,20000,13,10000,49,9999,0.100000,0,0,0.000000,6,1.000000,0.000000,3.668913,0,0,0,0,0,0,0
2,29999,88,20000,26,0,40,9999,0.100000,0,0,0.000000,6,0.000000,0.000000,0.317945,0,0,0,0,0,0,0
2,29999,89,20000,48,10000,9,9999,0.065000,0,0,34.210526,6,4.000000,0.000000,5.774307,0,0,0,0,1,0,0
2,29999,90,20000,2,0,49,9999,0.100000,0,0,0.000000,6,1.000000,0.000000,17.509124,0,0,0,0,0,0,0
2,29999,91,20000,0,0,49,9999,0.100000,0,0,0.000000,6,1.000000,0.000000,20.515253,0,0,0,0,0,0,0
2,29999,92,20000,48,10000,99,9999,0.065000,0,0,34.210526,6,11.000000,0.000000,22.118268,0,0,1,0,0,0,0
2,29999,93,20000,1,10000,40,9999,0.100000,0,0,0.000000,6,0.000000,0.000000,0.409527,0,0,0,0,0,0,0
2,29999,94,20000,0,0,40,9999,0.100000,0,0,0.000000,6,0.000000,0.000000,0.083265,0,0,0,0,0,0,0
2,29999,95,20000,26,0,40,9999,0.135000,0,0,0.000000,6,0.000000,0.000000,0.314374,0,0,0,0,0,0,0
2,29999,96,20000,26,0,49,9999,0.100000,0,0,0.000000,6,3.000000,0.000000,7.739114,0,0,0,0,0,0,0
2,29999,97,20000,2,0,40,9999,0.100000,0,0,0.000000,6,0.000000,0.000000,0.614360,0,0,0,0,0,0,0
2,29999,98,20000,0,0,9,9999,0.100000,0,0,34.210526,6,4.000000,0.000000,19.906287,0,0,0,0,1,0,0
2,29999,99,20000,26,10000,49,9999,0.100000,0,0,0.000000,6,6.000000,0.000000,10.844960,0,0,0,0,0,0,0
3,39999,0,30000,1,10000,49,9999,0.100000,0,0,0.000000,6,1.000000,0.000000,7.413095,0,0,0,0,0,0,0
3,39999,1,30000,67,10000,40,9999,0.100000,0,0,0.000000,6,0.000000,0.000000,0.826865,0,0,0,0,0,0,0
3,39999,2,30000,1,10000,40,9999,0.100000,0,0,0.000000,6,0.000000,0.000000,1.019834,0,0,0,0,0,0,0
3,39999,3,30000,93,20000,49,9999,0.100000,0,0,0.000000,6,2.000000,0.000000,19.578331,0,0,0,0,0,0,0
3,39999,4,30000,26,0,40,9999,0.100000,0,0,0.000000,6,0.000000,0.000000,0.927750,0,0,0,0,0,0,0
3,39999,5,30000,1,10000,40,9999,0.100000,0,0,0.000000,6,0.000000,0.000000,0.985353,0,0,0,0,0,0,0
3,39999,6,30000,26,0,40,9999,0.100000,0,0,0.000000,6,0.000000,0.000000,21.441640,0,0,0,0,0,0,0
3,39999,7,30000,13,10000,49,9999,0.100000,0,0,0.000000,6,1.000000,0.000000,3.249705,0,0,0,0,0,0,0
3,39999,8,30000,26,0,40,9999,0.100000,0,0,0.000000,6,0.000000,0.000000,0.551359,0,0,0,0,0,0,0
3,39999,9,30000,84,10000,40,9999,0.100000,0,0,0.000000,6,0.000000,0.000000,0.201717,0,0,0,0,0,0,0
3,39999,10,30000,1,10000,40,9999,0.100000,0,0,0.000000,6,0.000000,0.000000,0.548875,0,0,0,0,0,0,0
3,39999,11,30000,26,0,40,9999,0.100000,0,0,0.000000,6,0.000000,0.000000,0.765652,0,0,0,0,0,0,0
3,39999,12,30000,13,10000,49,9999,0.100000,0,0,0.000000,6,3.000000,0.000000,19.468985,0,0,0,0,0,0,0
3,39999,13,30000,93,20000,40,9999,0.100000,0,0,0.000000,6,0.000000,0.000000,0.528217,0,0,0,0,0,0,0
3,39999,14,30000,84,10000,40,9999,0.100000,0,0,0.000000,6,0.000000,0.000000,0.994665,0,0,0,0,0,0,0
3,39999,15,30000,93,20000,49,9999,0.100000,0,0,0.000000,6,1.000000,0.000000,8.721948,0,0,0,0,0,0,0
3,39999,16,30000,93,20000,40,9999,0.100000,0,0,0.000000,6,0.000000,0.000000,1.250127,0,0,0,0,0,0,0
3,39999,17,30000,26,0,40,9999,0.100000,0,0,0.000000,6,0.000000,0.000000,2.456823,0,0,0,0,0,0,0
3,39999,18,30000,67,10000,49,9999,0.100000,0,0,0.000000,6,1.000000,0.000000,4.868024,0,0,0,0,0,0,0
3,39999,19,30000,26,0,49,9999,0.100000,0,0,0.000000,6,2.000000,0.000000,7.070378,0,0,0,0,0,0,0
3,39999,20,30000,13,10000,40,9999,0.100000,0,0,0.000000,6,0.000000,0.000000,2.130680,0,0,0,0,0,0,0
3,39999,21,30000,13,10000,40,9999,0.100000,0,0,0.000000,6,0.000000,0.000000,0.871320,0,0,0,0,0,0,0
3,39999,22,30000,1,10000,49,9999,0.100000,0,0,0.000000,6,1.000000,0.000000,3.704088,0,0,0,0,0,0,0
3,39999,23,30000,67,10000,49,9999,0.100000,0,0,0.000000,6,3.000000,0.000000,9.202103,0,0,0,0,0,0,0
3,39999,24,30000,13,10000,49,9999,0.100000,0,0,0.000000,6,3.000000,0.000000,12.609566,0,0,0,0,0,0,0
3,39999,25,30000,84,10000,49,9999,0.065000,0,0,0.000000,6,7.000000,0.000000,7.462247,0,0,0,0,0,0,0
3,39999,26,30000,1,10000,49,9999,0.100000,0,0,0.000000,6,6.000000,0.000000,10.472822,0,0,0,0,0,0,0
3,39999,27,30000,13,10000,40,9999,0.100000,0,0,0.000000,6,0.000000,0.000000,1.059185,0,0,0,0,0,0,0
3,39999,28,30000,26,0,49,9999,0.100000,0,0,0.000000,6,3.000000,0.000000,5.889317,0,0,0,0,0,0,0
3,39999,29,30000,0,0,40,9999,0.100000,0,0,0.000000,6,0.000000,0.000000,0.687752,0,0,0,0,0,0,0
3,39999,30,30000,26,0,49,9999,0.100000,0,0,0.000000,6,2.000000,0.000000,4.808718,0,0,0,0,0,0,0
3,39999,31,30000,93,20000,40,9999,0.100000,0,0,0.000000,6,0.000000,0.000000,0.432150,0,0,0,0,0,0,0
3,39999,32,30000,0,0,49,9999,0.100000,0,0,0.000000,6,1.000000,0.000000,1.972619,0,0,0,0,0,0,0
3,39999,33,30000,93,20000,40,9999,0.100000,0,0,0.000000,6,0.000000,0.000000,0.737597,0,0,0,0,0,0,0
3,39999,34,30000,67,10000,49,9999,0.100000,0,0,0.000000,6,4.000000,0.000000,14.492910,0,0,0,0,0,0,0
3,39999,35,30000,84,10000,49,9999,0.100000,0,0,0.000000,6,2.000000,0.000000,17.975167,0,0,0,0,0,0,0
3,39999,36,30000,26,0,40,9999,0.100000,0,0,0.000000,6,0.000000,0.000000,0.739213,0,0,0,0,0,0,0
3,39999,37,30000,1,10000,40,9999,0.100000,0,0,0.000000,6,0.000000,0.000000,0.989579,0,0,0,0,0,0,0
3,39999,38,30000,13,10000,40,9999,0.100000,0,0,0.000000,6,0.000000,0.000000,1.239446,0,0,0,0,0,0,0
3,39999,39,30000,0,0,40,9999,0.100000,0,0,0.000000,6,0.000000,0.000000,13.702154,0,0,0,0,0,0,0
3,39999,40,30000,26,0,40,9999,0.100000,0,0,0.000000,6,0.000000,0.000000,0.679710,0,0,0,0,0,0,0
3,39999,41,30000,26,0,40,9999,0.100000,0,0,0.000000,6,0.000000,0.000000,0.147536,0,0,0,0,0,0,0
3,39999,42,30000,26,0,40,9999,0.100000,0,0,0.000000,6,0.000000,0.000000,0.290941,0,0,0,0,0,0,0
3,39999,43,30000,84,10000,49,9999,0.100000,0,0,0.000000,6,1.000000,0.000000,1.577198,0,0,0,0,0,0,0
3,39999,44,30000,1,10000,40,9999,0.100000,0,0,0.000000,6,0.000000,0.000000,0.784331,0,0,0,0,0,0,0
3,39999,45,30000,13,10000,49,9999,0.100000,0,0,0.000000,6,6.000000,0.000000,7.256095,0,0,0,0,0,0,0
3,39999,46,30000,1,10000,40,9999,0.100000,0,0,0.000000,6,0.000000,0.000000,0.754169,0,0,0,0,0,0,0
3,39999,47,30000,1,10000,49,9999,0.100000,0,0,0.000000,6,3.000000,0.000000,13.827176,0,0,0,0,0,0,0
3,39999,48,30000,0,0,49,9999,0.100000,0,0,0.000000,6,1.000000,0.000000,6.145663,0,0,0,0,0,0,0
3,39999,49,30000,26,0,40,9999,0.100000,0,0,0.000000,6,0.000000,0.000000,0.682276,0,0,0,0,0,0,0
3,39999,50,30000,84,10000,49,9999,0.100000,0,0,0.000000,6,5.000000,0.000000,17.411173,0,0,0,0,0,0,0
3,39999,51,30000,93,20000,49,9999,0.100000,0,0,0.000000,6,2.000000,0.000000,12.736914,0,0,0,0,0,0,0
3,39999,52,30000,84,10000,49,9999,0.100000,0,0,0.000000,6,1.000000,0.000000,10.589841,0,0,0,0,0,0,0
3,39999,53,30000,26,0,40,9999,0.100000,0,0,0.000000,6,0.000000,0.000000,0.144458,0,0,0,0,0,0,0
3,39999,54,30000,0,0,40,9999,0.100000,0,0,0.000000,6,0.000000,0.000000,0.264701,0,0,0,0,0,0,0
3,39999,55,30000,13,10000,49,9999,0.100000,0,0,0.000000,6,1.000000,0.000000,1.606011,0,0,0,0,0,0,0
3,39999,56,30000,84,10000,49,9999,0.100000,0,0,0.000000,6,1.000000,0.000000,5.978281,0,0,0,0,0,0,0
3,39999,57,30000,93,20000,40,9999,0.100000,0,0,0.000000,6,0.000000,0.000000,0.868387,0,0,0,0,0,0,0
3,39999,58,30000,1,10000,49,9999,0.100000,0,0,0.000000,6,1.000000,0.000000,4.986851,0,0,0,0,0,0,0
3,39999,59,30000,84,10000,40,9999,0.100000,0,0,0.000000,6,0.000000,0.000000,0.422227,0,0,0,0,0,0,0
3,39999,60,30000,1,10000,49,9999,0.100000,0,0,0.000000,6,1.000000,0.000000,19.026562,0,0,0,0,0,0,0
3,39999,61,30000,13,10000,49,9999,0.100000,0,0,0.000000,6,6.000000,0.000000,20.405258,0,0,0,0,0,0,0
3,39999,62,30000,0,0,40,9999,0.100000,0,0,0.000000,6,0.000000,0.000000,6.013890,0,0,0,0,0,0,0
3,39999,63,30000,1,10000,40,9999,0.100000,0,0,0.000000,6,0.000000,0.000000,0.317567,0,0,0,0,0,0,0
3,39999,64,30000,84,10000,49,9999,0.100000,0,0,0.000000,6,1.000000,0.000000,14.916333,0,0,0,0,0,0,0
3,39999,65,30000,1,10000,49,9999,0.100000,0,0,0.000000,6,2.000000,0.000000,9.622503,0,0,0,0,0,0,0
3,39999,66,30000,1,10000,40,9999,0.100000,0,0,0.000000,6,0.000000,0.000000,0.993655,0,0,0,0,0,0,0
3,39999,67,30000,26,0,49,9999,0.100000,0,0,0.000000,6,12.000000,0.000000,16.076982,0,0,0,0,0,0,0
3,39999,68,30000,67,10000,40,9999,0.100000,0,0,0.000000,6,0.000000,0.000000,7.302234,0,0,0,0,0,0,0
3,39999,69,30000,26,0,40,9999,0.100000,0,0,0.000000,6,0.000000,0.000000,0.697889,0,0,0,0,0,0,0
3,39999,70,30000,13,10000,49,9999,0.100000,0,0,0.000000,6,4.000000,0.000000,12.387548,0,0,0,0,0,0,0
3,39999,71,30000,84,10000,40,9999,0.100000,0,0,0.000000,6,0.000000,0.000000,0.629163,0,0,0,0,0,0,0
3,39999,72,30000,0,0,49,9999,0.100000,0,0,0.000000,6,2.000000,0.000000,13.102044,0,0,0,0,0,0,0
3,39999,73,30000,0,0,49,9999,0.100000,0,0,0.000000,6,2.000000,0.000000,11.789321,0,0,0,0,0,0,0
3,39999,74,30000,93,20000,40,9999,0.100000,0,0,0.000000,6,0.000000,0.000000,0.286220,0,0,0,0,0,0,0
3,39999,75,30000,0,0,40,9999,0.100000,0,0,0.000000,6,0.000000,0.000000,2.277946,0,0,0,0,0,0,0
3,39999,76,30000,84,10000,49,9999,0.100000,0,0,0.000000,6,1.000000,0.000000,11.644184,0,0,0,0,0,0,0
3,39999,77,30000,93,20000,49,9999,0.100000,0,0,0.000000,6,3.000000,0.000000,7.097403,0,0,0,0,0,0,0
3,39999,78,30000,1,10000,49,9999,0.100000,0,0,0.000000,6,7.000000,0.000000,10.642046,0,0,0,0,0,0,0
3,39999,79,30000,26,0,49,9999,0.100000,0,0,0.000000,6,1.000000,0.000000,5.687225,0,0,0,0,0,0,0
3,39999,80,30000,1,10000,40,9999,0.100000,0,0,0.000000,6,0.000000,0.000000,2.446558,0,0,0,0,0,0,0
3,39999,81,30000,1,10000,40,9999,0.100000,0,0,0.000000,6,0.000000,0.000000,0.122946,0,0,0,0,0,0,0
3,39999,82,30000,0,0,40,9999,0.100000,0,0,0.000000,6,0.000000,0.000000,2.052461,0,0,0,0,0,0,0
3,39999,83,30000,0,0,40,9999,0.100000,0,0,0.000000,6,0.000000,0.000000,0.800626,0,0,0,0,0,0,0
3,39999,84,30000,1,10000,49,9999,0.100000,0,0,0.000000,6,1.000000,0.000000,10.236801,0,0,0,0,0,0,0
3,39999,85,30000,13,10000,40,9999,0.100000,0,0,0.000000,6,0.000000,0.000000,0.998380,0,0,0,0,0,0,0
3,39999,86,30000,67,10000,40,9999,0.135000,0,0,0.000000,6,0.000000,0.000000,0.303491,0,0,0,0,0,0,0
3,39999,87,30000,13,10000,49,9999,0.100000,0,0,0.000000,6,1.000000,0.000000,4.099925,0,0,0,0,0,0,0
3,39999,88,30000,13,10000,40,9999,0.100000,0,0,0.000000,6,0.000000,0.000000,1.157855,0,0,0,0,0,0,0
3,39999,89,30000,13,10000,49,9999,0.100000,0,0,0.000000,6,4.000000,0.000000,18.739174,0,0,0,0,0,0,0
3,39999,90,30000,84,10000,40,9999,0.100000,0,0,0.000000,6,0.000000,0.000000,5.071200,0,0,0,0,0,0,0
3,39999,91,30000,67,10000,49,9999,0.100000,0,0,0.000000,6,4.000000,0.000000,18.987237,0,0,0,0,0,0,0
3,39999,92,30000,0,0,49,9999,0.100000,0,0,0.000000,6,7.000000,0.000000,23.968698,0,0,0,0,0,0,0
3,39999,93,30000,84,10000,40,9999,0.100000,0,0,0.000000,6,0.000000,0.000000,0.665214,0,0,0,0,0,0,0
3,39999,94,30000,84,10000,40,9999,0.100000,0,0,0.000000,6,0.000000,0.000000,1.463340,0,0,0,0,0,0,0
3,39999,95,30000,13,10000,40,9999,0.100000,0,0,0.000000,6,0.000000,0.000000,0.182064,0,0,0,0,0,0,0
3,39999,96,30000,1,10000,49,9999,0.100000,0,0,0.000000,6,1.000000,0.000000,5.352105,0,0,0,0,0,0,0
3,39999,97,30000,26,0,40,9999,0.100000,0,0,0.000000,6,0.000000,0.000000,0.538568,0,0,0,0,0,0,0
3,39999,98,30000,84,10000,49,9999,0.100000,0,0,0.000000,6,1.000000,0.000000,8.583151,0,0,0,0,0,0,0
3,39999,99,30000,84,10000,49,9999,0.100000,0,0,0.000000,6,1.000000,0.000000,22.080522,0,0,0,0,0,0,0
4,49999,0,40000,1,10000,49,9999,0.100000,0,0,0.000000,6,3.000000,0.000000,21.649316,0,0,0,0,0,0,0
4,49999,1,40000,0,0,40,9999,0.100000,0,0,0.000000,6,0.000000,0.000000,0.138122,0,0,0,0,0,0,0
4,49999,2,40000,1,10000,49,9999,0.100000,0,0,0.000000,6,1.000000,0.000000,1.917786,0,0,0,0,0,0,0
4,49999,3,40000,26,0,49,9999,0.100000,0,0,0.000000,6,2.000000,0.000000,13.081005,0,0,0,0,0,0,0
4,49999,4,40000,93,20000,40,9999,0.100000,0,0,0.000000,6,0.000000,0.000000,0.794186,0,0,0,0,0,0,0
4,49999,5,30000,1,10000,49,19999,0.100000,0,0,0.000000,6,3.000000,0.000000,11.881783,0,0,0,0,0,0,0
4,49999,6,40000,13,10000,49,9999,0.100000,0,0,0.000000,6,1.000000,0.000000,4.031664,0,0,0,0,0,0,0
4,49999,7,40000,0,0,49,9999,0.100000,0,0,0.000000,6,2.000000,0.000000,6.665275,0,0,0,0,0,0,0
4,49999,8,40000,1,10000,40,9999,0.100000,0,0,0.000000,6,0.000000,0.000000,0.562897,0,0,0,0,0,0,0
4,49999,9,40000,13,10000,40,9999,0.100000,0,0,0.000000,6,0.000000,0.000000,0.194625,0,0,0,0,0,0,0
4,49999,10,40000,1,10000,40,9999,0.100000,0,0,0.000000,6,0.000000,0.000000,0.809094,0,0,0,0,0,0,0
4,49999,11,40000,13,10000,40,9999,0.100000,0,0,0.000000,6,0.000000,0.000000,1.721711,0,0,0,0,0,0,0
4,49999,12,40000,0,0,40,9999,0.100000,0,0,0.000000,6,0.000000,0.000000,10.111550,0,0,0,0,0,0,0
4,49999,13,40000,13,10000,40,9999,0.100000,0,0,0.000000,6,0.000000,0.000000,0.532878,0,0,0,0,0,0,0
4,49999,14,40000,93,20000,49,9999,0.100000,0,0,0.000000,6,3.000000,0.000000,9.208563,0,0,0,0,0,0,0
4,49999,15,40000,0,0,40,9999,0.100000,0,0,0.000000,6,0.000000,0.000000,1.560184,0,0,0,0,0,0,0
4,49999,16,40000,0,0,49,9999,0.100000,0,0,0.000000,6,1.000000,0.000000,1.322462,0,0,0,0,0,0,0
4,49999,17,40000,84,10000,40,9999,0.100000,0,0,0.000000,6,0.000000,0.000000,0.702845,0,0,0,0,0,0,0
4,49999,18,40000,93,20000,40,9999,0.100000,0,0,0.000000,6,0.000000,0.000000,5.415860,0,0,0,0,0,0,0
4,49999,19,40000,93,20000,49,9999,0.100000,0,0,0.000000,6,2.000000,0.000000,9.583371,0,0,0,0,0,0,0
4,49999,20,40000,84,10000,49,9999,0.100000,0,0,0.000000,6,2.000000,0.000000,7.074171,0,0,0,0,0,0,0
4,49999,21,40000,0,0,49,9999,0.100000,0,0,0.000000,6,4.000000,0.000000,11.145409,0,0,0,0,0,0,0
4,49999,22,40000,84,10000,40,9999,0.100000,0,0,0.000000,6,0.000000,0.000000,0.148977,0,0,0,0,0,0,0
4,49999,23,40000,1,10000,40,9999,0.100000,0,0,0.000000,6,0.000000,0.000000,4.211692,0,0,0,0,0,0,0
4,49999,24,40000,84,10000,49,9999,0.100000,0,0,0.000000,6,3.000000,0.000000,6.968923,0,0,0,0,0,0,0
4,49999,25,40000,84,10000,40,9999,0.100000,0,0,0.000000,6,0.000000,0.000000,1.216205,0,0,0,0,0,0,0
4,49999,26,40000,84,10000,9,9999,0.100000,0,0,34.210526,6,3.000000,0.000000,5.795547,0,0,0,0,0,1,0
4,49999,27,40000,1,10000,49,9999,0.100000,0,0,0.000000,6,2.000000,0.000000,4.080585,0,0,0,0,0,0,0
4,49999,28,40000,1,10000,49,9999,0.100000,0,0,0.000000,6,9.000000,0.000000,12.484060,0,0,0,0,0,0,0
4,49999,29,40000,84,10000,49,9999,0.100000,0,0,0.000000,6,6.000000,0.000000,7.947271,0,0,0,0,0,0,0
4,49999,30,40000,13,10000,40,9999,0.100000,0,0,0.000000,6,0.000000,0.000000,1.026270,0,0,0,0,0,0,0
4,49999,31,40000,84,10000,9,9999,0.100000,0,0,34.210526,6,3.000000,0.000000,6.252912,0,0,0,0,0,1,0
4,49999,32,40000,13,10000,49,9999,0.100000,0,0,0.000000,6,1.000000,0.000000,6.257248,0,0,0,0,0,0,0
4,49999,33,40000,84,10000,9,9999,0.100000,0,0,34.210526,6,2.000000,0.000000,6.147354,0,0,0,0,0,1,0
4,49999,34,40000,93,20000,49,9999,0.100000,0,0,0.000000,6,2.000000,0.000000,12.289734,0,0,0,0,0,0,0
4,49999,35,40000,26,0,49,9999,0.100000,0,0,0.000000,6,2.000000,0.000000,6.587641,0,0,0,0,0,0,0
4,49999,36,40000,26,0,49,9999,0.100000,0,0,0.000000,6,1.000000,0.000000,12.493978,0,0,0,0,0,0,0
4,49999,37,40000,1,10000,40,9999,0.100000,0,0,0.000000,6,0.000000,0.000000,0.984280,0,0,0,0,0,0,0
4,49999,38,40000,93,20000,40,9999,0.100000,0,0,0.000000,6,0.000000,0.000000,0.883494,0,0,0,0,0,0,0
4,49999,39,40000,26,0,49,9999,0.100000,0,0,0.000000,6,5.000000,0.000000,6.255171,0,0,0,0,0,0,0
4,49999,40,40000,26,0,49,9999,0.100000,0,0,0.000000,6,6.000000,0.000000,10.537689,0,0,0,0,0,0,0
4,49999,41,40000,1,10000,40,9999,0.100000,0,0,0.000000,6,0.000000,0.000000,0.128153,0,0,0,0,0,0,0
4,49999,42,40000,0,0,9,9999,0.100000,0,0,34.210526,6,3.000000,0.000000,6.332516,0,0,0,0,0,1,0
4,49999,43,40000,0,0,49,9999,0.100000,0,0,0.000000,6,1.000000,0.000000,2.128781,0,0,0,0,0,0,0
4,49999,44,40000,84,10000,49,9999,0.100000,0,0,0.000000,6,2.000000,0.000000,2.894084,0,0,0,0,0,0,0
4,49999,45,40000,13,10000,40,9999,0.100000,0,0,0.000000,6,0.000000,0.000000,0.234004,0,0,0,0,0,0,0
4,49999,46,40000,0,0,40,9999,0.100000,0,0,0.000000,6,0.000000,0.000000,0.646254,0,0,0,0,0,0,0
4,49999,47,40000,84,10000,49,9999,0.100000,0,0,0.000000,6,1.000000,0.000000,6.524096,0,0,0,0,0,0,0
4,49999,48,40000,93,20000,49,9999,0.100000,0,0,0.000000,6,3.000000,0.000000,4.281939,0,0,0,0,0,0,0
4,49999,49,40000,93,20000,40,9999,0.100000,0,0,0.000000,6,0.000000,0.000000,0.685068,0,0,0,0,0,0,0
4,49999,50,40000,1,10000,49,9999,0.100000,0,0,0.000000,6,5.000000,0.000000,7.444261,0,0,0,0,0,0,0
4,49999,51,40000,0,0,49,9999,0.100000,0,0,0.000000,6,4.000000,0.000000,8.058131,0,0,0,0,0,0,0
4,49999,52,40000,93,20000,49,9999,0.100000,0,0,0.000000,6,3.000000,0.000000,8.482909,0,0,0,0,0,0,0
4,49999,53,40000,0,0,40,9999,0.100000,0,0,0.000000,6,0.000000,0.000000,0.135697,0,0,0,0,0,0,0
4,49999,54,40000,13,10000,40,9999,0.100000,0,0,0.000000,6,0.000000,0.000000,0.192432,0,0,0,0,0,0,0
4,49999,55,40000,0,0,49,9999,0.100000,0,0,0.000000,6,4.000000,0.000000,7.341759,0,0,0,0,0,0,0
4,49999,56,40000,13,10000,49,9999,0.100000,0,0,0.000000,6,1.000000,0.000000,1.652456,0,0,0,0,0,0,0
4,49999,57,40000,26,0,40,9999,0.100000,0,0,0.000000,6,0.000000,0.000000,0.940720,0,0,0,0,0,0,0
4,49999,58,40000,13,10000,49,9999,0.100000,0,0,0.000000,6,2.000000,0.000000,9.065043,0,0,0,0,0,0,0
4,49999,59,40000,84,10000,40,9999,0.100000,0,0,0.000000,6,0.000000,0.000000,0.424364,0,0,0,0,0,0,0
4,49999,60,40000,1,10000,49,9999,0.100000,0,0,0.000000,6,1.000000,0.000000,14.078647,0,0,0,0,0,0,0
4,49999,61,40000,1,10000,49,9999,0.100000,0,0,0.000000,6,1.000000,0.000000,7.379248,0,0,0,0,0,0,0
4,49999,62,40000,26,0,49,9999,0.100000,0,0,0.000000,6,2.000000,0.000000,9.725796,0,0,0,0,0,0,0
4,49999,63,40000,13,10000,49,9999,0.100000,0,0,0.000000,6,4.000000,0.000000,13.918115,0,0,0,0,0,0,0
4,49999,64,40000,26,0,49,9999,0.100000,0,0,0.000000,6,5.000000,0.000000,12.312036,0,0,0,0,0,0,0
4,49999,65,40000,84,10000,49,9999,0.100000,0,0,0.000000,6,1.000000,0.000000,9.466521,0,0,0,0,0,0,0
4,49999,66,40000,93,20000,40,9999,0.100000,0,0,0.000000,6,0.000000,0.000000,0.780404,0,0,0,0,0,0,0
4,49999,67,40000,0,0,49,9999,0.100000,0,0,0.000000,6,3.000000,0.000000,5.231647,0,0,0,0,0,0,0
4,49999,68,40000,93,20000,49,9999,0.100000,0,0,0.000000,6,1.000000,0.000000,3.745841,0,0,0,0,0,0,0
4,49999,69,40000,84,10000,49,9999,0.100000,0,0,0.000000,6,1.000000,0.000000,1.948893,0,0,0,0,0,0,0
4,49999,70,40000,26,0,49,9999,0.100000,0,0,0.000000,6,1.000000,0.000000,3.966390,0,0,0,0,0,0,0
4,49999,71,40000,93,20000,49,9999,0.100000,0,0,0.000000,6,2.000000,0.000000,2.841402,0,0,0,0,0,0,0
4,49999,72,40000,1,10000,49,9999,0.100000,0,0,0.000000,6,6.000000,0.000000,7.823498,0,0,0,0,0,0,0
4,49999,73,40000,93,20000,49,9999,0.100000,0,0,0.000000,6,2.000000,0.000000,10.252869,0,0,0,0,0,0,0
4,49999,74,40000,84,10000,40,9999,0.100000,0,0,0.000000,6,0.000000,0.000000,1.529224,0,0,0,0,0,0,0
4,49999,75,40000,93,20000,40,9999,0.100000,0,0,0.000000,6,0.000000,0.000000,0.140765,0,0,0,0,0,0,0
4,49999,76,40000,84,10000,49,9999,0.100000,0,0,0.000000,6,3.000000,0.000000,7.530595,0,0,0,0,0,0,0
4,49999,77,40000,84,10000,49,9999,0.100000,0,0,0.000000,6,1.000000,0.000000,14.702296,0,0,0,0,0,0,0
4,49999,78,40000,26,0,49,9999,0.100000,0,0,0.000000,6,2.000000,0.000000,5.848419,0,0,0,0,0,0,0
4,49999,79,40000,46,30000,49,9999,0.100000,0,0,0.000000,6,1.000000,0.000000,4.175748,0,0,0,0,0,0,0
4,49999,80,40000,13,10000,49,9999,0.100000,0,0,0.000000,6,16.000000,0.000000,22.548111,0,0,0,0,0,0,0
4,49999,81,40000,0,0,40,9999,0.100000,0,0,0.000000,6,0.000000,0.000000,0.279200,0,0,0,0,0,0,0
4,49999,82,40000,93,20000,40,9999,0.100000,0,0,0.000000,6,0.000000,0.000000,1.052606,0,0,0,0,0,0,0
4,49999,83,40000,13,10000,40,9999,0.100000,0,0,0.000000,6,0.000000,0.000000,2.050311,0,0,0,0,0,0,0
4,49999,84,40000,1,10000,49,9999,0.100000,0,0,0.000000,6,2.000000,0.000000,9.025997,0,0,0,0,0,0,0
4,49999,85,40000,0,0,40,9999,0.100000,0,0,0.000000,6,0.000000,0.000000,1.039430,0,0,0,0,0,0,0
4,49999,86,40000,93,20000,40,9999,0.100000,0,0,0.000000,6,0.000000,0.000000,0.308030,0,0,0,0,0,0,0
4,49999,87,40000,13,10000,40,9999,0.100000,0,0,0.000000,6,0.000000,0.000000,0.950250,0,0,0,0,0,0,0
4,49999,88,40000,84,10000,49,9999,0.100000,0,0,0.000000,6,1.000000,0.000000,1.361771,0,0,0,0,0,0,0
4,49999,89,40000,1,10000,99,9999,0.100000,0,0,34.210526,6,6.000000,0.000000,17.232380,0,0,1,0,0,0,0
4,49999,90,40000,26,0,40,9999,0.100000,0,0,0.000000,6,0.000000,0.000000,3.887534,0,0,0,0,0,0,0
4,49999,91,40000,84,10000,49,9999,0.100000,0,0,0.000000,6,2.000000,0.000000,24.427260,0,0,0,0,0,0,0
4,49999,92,40000,0,0,49,9999,0.100000,0,0,0.000000,6,2.000000,0.000000,18.609653,0,0,0,0,0,0,0
4,49999,93,40000,84,10000,40,9999,0.100000,0,0,0.000000,6,0.000000,0.000000,0.505460,0,0,0,0,0,0,0
4,49999,94,40000,26,0,49,9999,0.100000,0,0,0.000000,6,3.000000,0.000000,4.072450,0,0,0,0,0,0,0
4,49999,95,40000,26,0,40,9999,0.100000,0,0,0.000000,6,0.000000,0.000000,0.153622,0,0,0,0,0,0,0
4,49999,96,40000,46,30000,49,9999,0.100000,0,0,0.000000,6,1.000000,0.000000,6.070643,0,0,0,0,0,0,0
4,49999,97,40000,0,0,40,9999,0.100000,0,0,0.000000,6,0.000000,0.000000,1.234806,0,0,0,0,0,0,0
4,49999,98,40000,13,10000,40,9999,0.100000,0,0,0.000000,6,0.000000,0.000000,0.980301,0,0,0,0,0,0,0
4,49999,99,40000,84,10000,49,9999,0.100000,0,0,0.000000,6,2.000000,0.000000,14.420442,0,0,0,0,0,0,0
5,59999,0,50000,0,0,49,9999,0.100000,0,0,0.000000,6,8.000000,0.000000,24.930555,0,0,0,0,0,0,0
5,59999,1,50000,46,30000,40,9999,0.100000,0,0,0.000000,6,0.000000,0.000000,0.070621,0,0,0,0,0,0,0
5,59999,2,50000,46,30000,40,9999,0.100000,0,0,0.000000,6,0.000000,0.000000,3.521337,0,0,0,0,0,0,0
5,59999,3,50000,93,20000,49,9999,0.100000,0,0,0.000000,6,1.000000,0.000000,6.464784,0,0,0,0,0,0,0
5,59999,4,50000,46,30000,40,9999,0.100000,0,0,0.000000,6,0.000000,0.000000,0.658181,0,0,0,0,0,0,0
5,59999,5,50000,26,0,49,9999,0.100000,0,0,0.000000,6,1.000000,0.000000,16.842319,0,0,0,0,0,0,0
5,59999,6,50000,93,20000,49,9999,0.100000,0,0,0.000000,6,4.000000,0.000000,15.529508,0,0,0,0,0,0,0
5,59999,7,50000,1,10000,49,9999,0.100000,0,0,0.000000,6,10.000000,0.000000,10.833074,0,0,0,0,0,0,0
5,59999,8,50000,84,10000,40,9999,0.100000,0,0,0.000000,6,0.000000,0.000000,1.015903,0,0,0,0,0,0,0
5,59999,9,50000,26,0,40,9999,0.100000,0,0,0.000000,6,0.000000,0.000000,0.719669,0,0,0,0,0,0,0
5,59999,10,50000,46,30000,40,9999,0.100000,0,0,0.000000,6,0.000000,0.000000,0.511884,0,0,0,0,0,0,0
5,59999,11,50000,26,0,40,9999,0.100000,0,0,0.000000,6,0.000000,0.000000,0.828021,0,0,0,0,0,0,0
5,59999,12,50000,46,30000,49,9999,0.100000,0,0,0.000000,6,1.000000,0.000000,6.557785,0,0,0,0,0,0,0
5,59999,13,50000,26,0,40,9999,0.135000,0,0,0.000000,6,0.000000,0.000000,0.509565,0,0,0,0,0,0,0
5,59999,14,50000,26,0,49,9999,0.100000,0,0,0.000000,6,4.000000,0.000000,10.352493,0,0,0,0,0,0,0
5,59999,15,50000,1,10000,40,9999,0.065000,0,0,0.000000,6,0.000000,0.000000,0.430695,0,0,0,0,0,0,0
5,59999,16,50000,46,30000,40,9999,0.100000,0,0,0.000000,6,0.000000,0.000000,1.143225,0,0,0,0,0,0,0
5,59999,17,50000,93,20000,40,9999,0.100000,0,0,0.000000,6,0.000000,0.000000,0.957453,0,0,0,0,0,0,0
5,59999,18,50000,26,0,40,9999,0.100000,0,0,0.000000,6,0.000000,0.000000,4.087025,0,0,0,0,0,0,0
5,59999,19,50000,1,10000,49,9999,0.100000,0,0,0.000000,6,8.000000,0.000000,18.028814,0,0,0,0,0,0,0
5,59999,20,50000,0,0,49,9999,0.100000,0,0,0.000000,6,17.000000,0.000000,23.060734,0,0,0,0,0,0,0
5,59999,21,50000,84,10000,49,9999,0.100000,0,0,0.000000,6,9.000000,0.000000,10.388632,0,0,0,0,0,0,0
5,59999,22,50000,0,0,40,9999,0.100000,0,0,0.000000,6,0.000000,0.000000,0.079304,0,0,0,0,0,0,0
5,59999,23,50000,84,10000,40,9999,0.100000,0,0,0.000000,6,0.000000,0.000000,5.083742,0,0,0,0,0,0,0
5,59999,24,50000,93,20000,49,9999,0.100000,0,0,0.000000,6,5.000000,0.000000,7.503386,0,0,0,0,0,0,0
5,59999,25,50000,93,20000,40,9999,0.100000,0,0,0.000000,6,0.000000,0.000000,1.099641,0,0,0,0,0,0,0
5,59999,26,40000,84,10000,49,19999,0.100000,0,0,0.000000,6,4.000000,0.000000,17.852829,0,0,0,0,0,0,0
5,59999,27,50000,1,10000,49,9999,0.100000,0,0,0.000000,6,8.000000,0.000000,10.019368,0,0,0,0,0,0,0
5,59999,28,50000,46,30000,40,9999,0.100000,0,0,0.000000,6,0.000000,0.000000,8.530515,0,0,0,0,0,0,0
5,59999,29,50000,0,0,9,9999,0.100000,0,0,0.000000,6,5.000000,0.000000,18.046005,0,0,0,1,0,0,0
5,59999,30,50000,93,20000,40,9999,0.100000,0,0,0.000000,6,0.000000,0.000000,0.986727,0,0,0,0,0,0,0
5,59999,31,50000,93,20000,49,9999,0.100000,0,0,0.000000,6,3.000000,0.000000,9.986185,0,0,0,0,0,0,0
5,59999,32,50000,1,10000,49,9999,0.100000,0,0,0.000000,6,1.000000,0.000000,1.604079,0,0,0,0,0,0,0
5,59999,33,50000,0,0,49,9999,0.100000,0,0,0.000000,6,4.000000,0.000000,19.118912,0,0,0,0,0,0,0
5,59999,34,50000,1,10000,40,9999,0.100000,0,0,0.000000,6,0.000000,0.000000,1.631667,0,0,0,0,0,0,0
5,59999,35,50000,84,10000,49,9999,0.100000,0,0,0.000000,6,3.000000,0.000000,13.918684,0,0,0,0,0,0,0
5,59999,36,50000,0,0,40,9999,0.100000,0,0,0.000000,6,0.000000,0.000000,2.337418,0,0,0,0,0,0,0
5,59999,37,50000,93,20000,40,9999,0.100000,0,0,0.000000,6,0.000000,0.000000,0.906367,0,0,0,0,0,0,0
5,59999,38,50000,26,0,40,9999,0.100000,0,0,0.000000,6,0.000000,0.000000,1.068572,0,0,0,0,0,0,0
5,59999,39,50000,84,10000,49,9999,0.100000,0,0,0.000000,6,2.000000,0.000000,15.218081,0,0,0,0,0,0,0
5,59999,40,50000,46,30000,99,9999,0.100000,0,0,34.210526,6,2.000000,0.000000,11.845144,0,0,1,0,0,0,0
5,59999,41,50000,46,30000,40,9999,0.100000,0,0,0.000000,6,0.000000,0.000000,0.255310,0,0,0,0,0,0,0
5,59999,42,50000,1,10000,49,9999,0.100000,0,0,0.000000,6,4.000000,0.000000,9.878115,0,0,0,0,0,0,0
5,59999,43,50000,93,20000,49,9999,0.100000,0,0,0.000000,6,1.000000,0.000000,8.451400,0,0,0,0,0,0,0
5,59999,44,50000,84,10000,40,9999,0.100000,0,0,0.000000,6,0.000000,0.000000,1.703071,0,0,0,0,0,0,0
5,59999,45,50000,84,10000,40,9999,0.100000,0,0,0.000000,6,0.000000,0.000000,0.238555,0,0,0,0,0,0,0
5,59999,46,50000,26,0,40,9999,0.100000,0,0,0.000000,6,0.000000,0.000000,0.623979,0,0,0,0,0,0,0
5,59999,47,50000,26,0,40,9999,0.100000,0,0,0.000000,6,0.000000,0.000000,1.354197,0,0,0,0,0,0,0
5,59999,48,50000,46,30000,49,9999,0.100000,0,0,0.000000,6,3.000000,0.000000,5.925423,0,0,0,0,0,0,0
5,59999,49,50000,93,20000,40,9999,0.100000,0,0,0.000000,6,0.000000,0.000000,0.736900,0,0,0,0,0,0,0
5,59999,50,50000,26,0,49,9999,0.100000,0,0,0.000000,6,3.000000,0.000000,9.196939,0,0,0,0,0,0,0
5,59999,51,50000,84,10000,49,9999,0.100000,0,0,0.000000,6,3.000000,0.000000,12.900140,0,0,0,0,0,0,0
5,59999,52,50000,93,20000,49,9999,0.100000,0,0,0.000000,6,2.000000,0.000000,7.914654,0,0,0,0,0,0,0
5,59999,53,50000,26,0,40,9999,0.100000,0,0,0.000000,6,0.000000,0.000000,0.136488,0,0,0,0,0,0,0
5,59999,54,50000,0,0,40,9999,0.100000,0,0,0.000000,6,0.000000,0.000000,0.136289,0,0,0,0,0,0,0
5,59999,55,50000,93,20000,40,9999,0.100000,0,0,0.000000,6,0.000000,0.000000,0.064699,0,0,0,0,0,0,0
5,59999,56,50000,1,10000,40,9999,0.100000,0,0,0.000000,6,0.000000,0.000000,0.844413,0,0,0,0,0,0,0
5,59999,57,50000,93,20000,40,9999,0.100000,0,0,0.000000,6,0.000000,0.000000,6.929331,0,0,0,0,0,0,0
5,59999,58,50000,1,10000,49,9999,0.100000,0,0,0.000000,6,7.000000,0.000000,15.362085,0,0,0,0,0,0,0
5,59999,59,50000,26,0,49,9999,0.100000,0,0,0.000000,6,1.000000,0.000000,7.797804,0,0,0,0,0,0,0
5,59999,60,50000,93,20000,40,9999,0.100000,0,0,0.000000,6,0.000000,0.000000,1.763340,0,0,0,0,0,0,0
5,59999,61,50000,0,0,40,9999,0.100000,0,0,0.000000,6,0.000000,0.000000,8.164349,0,0,0,0,0,0,0
5,59999,62,50000,93,20000,49,9999,0.100000,0,0,0.000000,6,4.000000,0.000000,14.300386,0,0,0,0,0,0,0
5,59999,63,50000,84,10000,49,9999,0.100000,0,0,0.000000,6,1.000000,0.000000,6.431267,0,0,0,0,0,0,0
5,59999,64,50000,1,10000,40,9999,0.100000,0,0,0.000000,6,0.000000,0.000000,1.932610,0,0,0,0,0,0,0
5,59999,65,50000,84,10000,49,9999,0.100000,0,0,0.000000,6,2.000000,0.000000,12.462282,0,0,0,0,0,0,0
5,59999,66,50000,0,0,49,9999,0.100000,0,0,0.000000,6,3.000000,0.000000,11.350297,0,0,0,0,0,0,0
5,59999,67,50000,26,0,49,9999,0.100000,0,0,0.000000,6,3.000000,0.000000,3.781076,0,0,0,0,0,0,0
5,59999,68,50000,93,20000,40,9999,0.100000,0,0,0.000000,6,0.000000,0.000000,5.293027,0,0,0,0,0,0,0
5,59999,69,50000,1,10000,40,9999,0.100000,0,0,0.000000,6,0.000000,0.000000,0.887698,0,0,0,0,0,0,0
5,59999,70,50000,46,30000,49,9999,0.100000,0,0,0.000000,6,7.000000,0.000000,8.409530,0,0,0,0,0,0,0
5,59999,71,50000,0,0,40,9999,0.100000,0,0,0.000000,6,0.000000,0.000000,3.721118,0,0,0,0,0,0,0
5,59999,72,50000,26,0,9,9999,0.100000,0,0,0.000000,6,4.000000,0.000000,12.096683,0,0,0,1,0,0,0
5,59999,73,50000,84,10000,49,9999,0.100000,0,0,0.000000,6,1.000000,0.000000,10.042802,0,0,0,0,0,0,0
5,59999,74,50000,26,0,40,9999,0.100000,0,0,0.000000,6,0.000000,0.000000,0.380425,0,0,0,0,0,0,0
5,59999,75,50000,1,10000,40,9999,0.100000,0,0,0.000000,6,0.000000,0.000000,0.141902,0,0,0,0,0,0,0
5,59999,76,50000,84,10000,40,9999,0.100000,0,0,0.000000,6,0.000000,0.000000,3.625611,0,0,0,0,0,0,0
5,59999,77,50000,26,0,49,9999,0.100000,0,0,0.000000,6,2.000000,0.000000,12.256461,0,0,0,0,0,0,0
5,59999,78,50000,46,30000,49,9999,0.100000,0,0,0.000000,6,3.000000,0.000000,11.022603,0,0,0,0,0,0,0
5,59999,79,50000,1,10000,49,9999,0.100000,0,0,0.000000,6,1.000000,0.000000,10.023895,0,0,0,0,0,0,0
5,59999,80,50000,26,0,40,9999,0.100000,0,0,0.000000,6,0.000000,0.000000,0.123951,0,0,0,0,0,0,0
5,59999,81,50000,0,0,40,9999,0.100000,0,0,0.000000,6,0.000000,0.000000,0.467752,0,0,0,0,0,0,0
5,59999,82,50000,0,0,40,9999,0.135000,0,0,0.000000,6,0.000000,0.000000,0.693863,0,0,0,0,0,0,0
5,59999,83,50000,93,20000,40,9999,0.100000,0,0,0.000000,6,0.000000,0.000000,0.713624,0,0,0,0,0,0,0
5,59999,84,50000,0,0,49,9999,0.100000,0,0,0.000000,6,1.000000,0.000000,20.545907,0,0,0,0,0,0,0
5,59999,85,50000,46,30000,40,9999,0.100000,0,0,0.000000,6,0.000000,0.000000,1.415152,0,0,0,0,0,0,0
5,59999,86,50000,1,10000,40,9999,0.100000,0,0,0.000000,6,0.000000,0.000000,0.289495,0,0,0,0,0,0,0
5,59999,87,50000,1,10000,40,9999,0.100000,0,0,0.000000,6,0.000000,0.000000,0.570923,0,0,0,0,0,0,0
5,59999,88,50000,46,30000,40,9999,0.100000,0,0,0.000000,6,0.000000,0.000000,0.941930,0,0,0,0,0,0,0
5,59999,89,50000,1,10000,49,9999,0.100000,0,0,0.000000,6,3.000000,0.000000,13.512213,0,0,0,0,0,0,0
5,59999,90,50000,46,30000,49,9999,0.100000,0,0,0.000000,6,1.000000,0.000000,4.614380,0,0,0,0,0,0,0
5,59999,91,50000,93,20000,49,9999,0.100000,0,0,0.000000,6,2.000000,0.000000,9.255359,0,0,0,0,0,0,0
5,59999,92,50000,93,20000,49,9999,0.100000,0,0,0.000000,6,3.000000,0.000000,11.603367,0,0,0,0,0,0,0
5,59999,93,50000,84,10000,40,9999,0.100000,0,0,0.000000,6,0.000000,0.000000,0.432197,0,0,0,0,0,0,0
5,59999,94,50000,0,0,40,9999,0.100000,0,0,0.000000,6,0.000000,0.000000,0.530066,0,0,0,0,0,0,0
5,59999,95,50000,93,20000,40,9999,0.100000,0,0,0.000000,6,0.000000,0.000000,0.283967,0,0,0,0,0,0,0
5,59999,96,50000,84,10000,40,9999,0.100000,0,0,0.000000,6,0.000000,0.000000,4.274119,0,0,0,0,0,0,0
5,59999,97,50000,84,10000,40,9999,0.100000,0,0,0.000000,6,0.000000,0.000000,1.017534,0,0,0,0,0,0,0
5,59999,98,50000,84,10000,40,9999,0.100000,0,0,0.000000,6,0.000000,0.000000,0.853904,0,0,0,0,0,0,0
5,59999,99,50000,0,0,49,9999,0.100000,0,0,0.000000,6,1.000000,0.000000,3.190764,0,0,0,0,0,0,0
6,69999,0,60000,84,10000,49,9999,0.100000,0,0,0.000000,6,1.000000,0.000000,18.132219,0,0,0,0,0,0,0
6,69999,1,60000,46,30000,40,9999,0.100000,0,0,0.000000,6,0.000000,0.000000,0.245523,0,0,0,0,0,0,0
6,69999,2,60000,0,0,40,9999,0.100000,0,0,0.000000,6,0.000000,0.000000,3.411655,0,0,0,0,0,0,0
6,69999,3,60000,26,0,40,9999,0.100000,0,0,0.000000,6,0.000000,0.000000,1.214017,0,0,0,0,0,0,0
6,69999,4,60000,26,0,40,9999,0.100000,0,0,0.000000,6,0.000000,0.000000,0.573372,0,0,0,0,0,0,0
6,69999,5,60000,0,0,49,9999,0.100000,0,0,0.000000,6,1.000000,0.000000,9.044480,0,0,0,0,0,0,0
6,69999,6,60000,1,10000,49,9999,0.100000,0,0,0.000000,6,2.000000,0.000000,2.317732,0,0,0,0,0,0,0
6,69999,7,60000,26,0,40,9999,0.100000,0,0,0.000000,6,0.000000,0.000000,0.227115,0,0,0,0,0,0,0
6,69999,8,60000,0,0,49,9999,0.100000,0,0,0.000000,6,1.000000,0.000000,2.716201,0,0,0,0,0,0,0
6,69999,9,60000,26,0,49,9999,0.100000,0,0,0.000000,6,2.000000,0.000000,2.763634,0,0,0,0,0,0,0
6,69999,10,60000,26,0,40,9999,0.100000,0,0,0.000000,6,0.000000,0.000000,0.454110,0,0,0,0,0,0,0
6,69999,11,60000,0,0,40,9999,0.100000,0,0,0.000000,6,0.000000,0.000000,0.833017,0,0,0,0,0,0,0
6,69999,12,60000,1,10000,49,9999,0.100000,0,0,0.000000,6,1.000000,0.000000,7.421388,0,0,0,0,0,0,0
6,69999,13,60000,84,10000,40,9999,0.100000,0,0,0.000000,6,0.000000,0.000000,0.511041,0,0,0,0,0,0,0
6,69999,14,60000,1,10000,49,9999,0.100000,0,0,0.000000,6,2.000000,0.000000,17.889845,0,0,0,0,0,0,0
6,69999,15,60000,26,0,40,9999,0.100000,0,0,0.000000,6,0.000000,0.000000,0.565786,0,0,0,0,0,0,0
6,69999,16,60000,84,10000,40,9999,0.100000,0,0,0.000000,6,0.000000,0.000000,0.976413,0,0,0,0,0,0,0
6,69999,17,60000,93,20000,49,9999,0.100000,0,0,0.000000,6,1.000000,0.000000,1.509980,0,0,0,0,0,0,0
6,69999,18,60000,0,0,40,9999,0.100000,0,0,0.000000,6,0.000000,0.000000,4.240937,0,0,0,0,0,0,0
6,69999,19,60000,26,0,40,9999,0.100000,0,0,0.000000,6,0.000000,0.000000,0.452563,0,0,0,0,0,0,0
6,69999,20,60000,1,10000,40,9999,0.100000,0,0,0.000000,6,0.000000,0.000000,3.262642,0,0,0,0,0,0,0
6,69999,21,60000,84,10000,40,9999,0.100000,0,0,0.000000,6,0.000000,0.000000,0.666474,0,0,0,0,0,0,0
6,69999,22,60000,46,30000,40,9999,0.100000,0,0,0.000000,6,0.000000,0.000000,0.093277,0,0,0,0,0,0,0
6,69999,23,60000,1,10000,49,9999,0.100000,0,0,0.000000,6,2.000000,0.000000,5.353174,0,0,0,0,0,0,0
6,69999,24,60000,0,0,40,9999,0.100000,0,0,0.000000,6,0.000000,0.000000,0.240167,0,0,0,0,0,0,0
6,69999,25,60000,46,30000,40,9999,0.100000,0,0,0.000000,6,0.000000,0.000000,0.840698,0,0,0,0,0,0,0
6,69999,26,60000,84,10000,49,9999,0.100000,0,0,0.000000,6,2.000000,0.000000,18.645242,0,0,0,0,0,0,0
6,69999,27,60000,46,30000,40,9999,0.100000,0,0,0.000000,6,0.000000,0.000000,0.230076,0,0,0,0,0,0,0
6,69999,28,60000,84,10000,49,9999,0.100000,0,0,0.000000,6,4.000000,0.000000,15.529512,0,0,0,0,0,0,0
6,69999,29,60000,46,30000,49,9999,0.100000,0,0,0.000000,6,4.000000,0.000000,11.848301,0,0,0,0,0,0,0
6,69999,30,60000,1,10000,40,9999,0.100000,0,0,0.000000,6,0.000000,0.000000,1.290703,0,0,0,0,0,0,0
6,69999,31,60000,1,10000,49,9999,0.100000,0,0,0.000000,6,2.000000,0.000000,6.407449,0,0,0,0,0,0,0
6,69999,32,60000,84,10000,49,9999,0.100000,0,0,0.000000,6,1.000000,0.000000,1.620068,0,0,0,0,0,0,0
6,69999,33,60000,84,10000,49,9999,0.100000,0,0,0.000000,6,4.000000,0.000000,20.043508,0,0,0,0,0,0,0
6,69999,34,60000,26,0,40,9999,0.100000,0,0,0.000000,6,0.000000,0.000000,2.240706,0,0,0,0,0,0,0
6,69999,35,60000,84,10000,49,9999,0.100000,0,0,0.000000,6,5.000000,0.000000,14.748989,0,0,0,0,0,0,0
6,69999,36,60000,26,0,40,9999,0.100000,0,0,0.000000,6,0.000000,0.000000,1.075598,0,0,0,0,0,0,0
6,69999,37,60000,46,30000,40,9999,0.100000,0,0,0.000000,6,0.000000,0.000000,0.577320,0,0,0,0,0,0,0
6,69999,38,60000,0,0,40,9999,0.100000,0,0,0.000000,6,0.000000,0.000000,1.026265,0,0,0,0,0,0,0
6,69999,39,60000,1,10000,49,9999,0.100000,0,0,0.000000,6,4.000000,0.000000,6.575216,0,0,0,0,0,0,0
6,69999,40,60000,93,20000,49,9999,0.100000,0,0,0.000000,6,2.000000,0.000000,10.966320,0,0,0,0,0,0,0
6,69999,41,60000,93,20000,49,9999,0.100000,0,0,0.000000,6,2.000000,0.000000,2.753948,0,0,0,0,0,0,0
6,69999,42,60000,1,10000,40,9999,0.100000,0,0,0.000000,6,0.000000,0.000000,1.385248,0,0,0,0,0,0,0
6,69999,43,60000,26,0,40,9999,0.100000,0,0,0.000000,6,0.000000,0.000000,2.981712,0,0,0,0,0,0,0
6,69999,44,60000,46,30000,40,9999,0.100000,0,0,0.000000,6,0.000000,0.000000,0.446671,0,0,0,0,0,0,0
6,69999,45,60000,93,20000,40,9999,0.100000,0,0,0.000000,6,0.000000,0.000000,0.234301,0,0,0,0,0,0,0
6,69999,46,60000,0,0,40,9999,0.100000,0,0,0.000000,6,0.000000,0.000000,0.632061,0,0,0,0,0,0,0
6,69999,47,60000,1,10000,40,9999,0.100000,0,0,0.000000,6,0.000000,0.000000,0.780581,0,0,0,0,0,0,0
6,69999,48,60000,93,20000,40,9999,0.100000,0,0,0.000000,6,0.000000,0.000000,2.807802,0,0,0,0,0,0,0
6,69999,49,60000,1,10000,40,9999,0.100000,0,0,0.000000,6,0.000000,0.000000,0.724821,0,0,0,0,0,0,0
6,69999,50,60000,46,30000,49,9999,0.100000,0,0,0.000000,6,1.000000,0.000000,6.591518,0,0,0,0,0,0,0
6,69999,51,60000,26,0,49,9999,0.100000,0,0,0.000000,6,4.000000,0.000000,9.869798,0,0,0,0,0,0,0
6,69999,52,60000,84,10000,40,9999,0.100000,0,0,0.000000,6,0.000000,0.000000,0.451242,0,0,0,0,0,0,0
6,69999,53,60000,93,20000,40,9999,0.100000,0,0,0.000000,6,0.000000,0.000000,0.132490,0,0,0,0,0,0,0
6,69999,54,60000,26,0,40,9999,0.100000,0,0,0.000000,6,0.000000,0.000000,0.138514,0,0,0,0,0,0,0
6,69999,55,60000,0,0,40,9999,0.065000,0,0,0.000000,6,0.000000,0.000000,0.078699,0,0,0,0,0,0,0
6,69999,56,60000,84,10000,40,9999,0.100000,0,0,0.000000,6,0.000000,0.000000,0.818861,0,0,0,0,0,0,0
6,69999,57,60000,26,0,40,9999,0.100000,0,0,0.000000,6,0.000000,0.000000,0.355036,0,0,0,0,0,0,0
6,69999,58,60000,1,10000,40,9999,0.100000,0,0,0.000000,6,0.000000,0.000000,0.979785,0,0,0,0,0,0,0
6,69999,59,60000,0,0,49,9999,0.100000,0,0,0.000000,6,2.000000,0.000000,3.138340,0,0,0,0,0,0,0
6,69999,60,60000,93,20000,40,9999,0.100000,0,0,0.000000,6,0.000000,0.000000,1.275900,0,0,0,0,0,0,0
6,69999,61,60000,0,0,49,9999,0.100000,0,0,0.000000,6,1.000000,0.000000,9.598079,0,0,0,0,0,0,0
6,69999,62,60000,0,0,49,9999,0.100000,0,0,0.000000,6,3.000000,0.000000,3.319144,0,0,0,0,0,0,0
6,69999,63,60000,84,10000,49,9999,0.135000,0,0,0.000000,6,3.000000,0.000000,15.312121,0,0,0,0,0,0,0
6,69999,64,60000,26,0,40,9999,0.100000,0,0,0.000000,6,0.000000,0.000000,7.108430,0,0,0,0,0,0,0
6,69999,65,60000,1,10000,40,9999,0.100000,0,0,0.000000,6,0.000000,0.000000,7.422638,0,0,0,0,0,0,0
6,69999,66,60000,46,30000,49,9999,0.100000,0,0,0.000000,6,2.000000,0.000000,4.896572,0,0,0,0,0,0,0
6,69999,67,60000,46,30000,40,9999,0.100000,0,0,0.000000,6,0.000000,0.000000,0.235187,0,0,0,0,0,0,0
6,69999,68,60000,26,0,40,9999,0.100000,0,0,0.000000,6,0.000000,0.000000,3.749015,0,0,0,0,0,0,0
6,69999,69,60000,46,30000,40,9999,0.100000,0,0,0.000000,6,0.000000,0.000000,0.563617,0,0,0,0,0,0,0
6,69999,70,60000,84,10000,40,9999,0.100000,0,0,0.000000,6,0.000000,0.000000,0.308849,0,0,0,0,0,0,0
6,69999,71,60000,84,10000,40,9999,0.100000,0,0,0.000000,6,0.000000,0.000000,0.737082,0,0,0,0,0,0,0
6,69999,72,60000,0,0,49,9999,0.100000,0,0,0.000000,6,2.000000,0.000000,10.352379,0,0,0,0,0,0,0
6,69999,73,60000,1,10000,49,9999,0.100000,0,0,0.000000,6,3.000000,0.000000,7.101695,0,0,0,0,0,0,0
6,69999,74,60000,93,20000,40,9999,0.100000,0,0,0.000000,6,0.000000,0.000000,0.375298,0,0,0,0,0,0,0
6,69999,75,60000,84,10000,40,9999,0.100000,0,0,0.000000,6,0.000000,0.000000,0.140570,0,0,0,0,0,0,0
6,69999,76,60000,0,0,40,9999,0.100000,0,0,0.000000,6,0.000000,0.000000,0.099789,0,0,0,0,0,0,0
6,69999,77,60000,93,20000,49,9999,0.100000,0,0,0.000000,6,2.000000,0.000000,12.592277,0,0,0,0,0,0,0
6,69999,78,60000,93,20000,49,9999,0.100000,0,0,0.000000,6,2.000000,0.000000,6.826695,0,0,0,0,0,0,0
6,69999,79,60000,26,0,40,9999,0.100000,0,0,0.000000,6,0.000000,0.000000,0.690706,0,0,0,0,0,0,0
6,69999,80,60000,84,10000,40,9999,0.100000,0,0,0.000000,6,0.000000,0.000000,0.154110,0,0,0,0,0,0,0
6,69999,81,60000,0,0,40,9999,0.100000,0,0,0.000000,6,0.000000,0.000000,0.894651,0,0,0,0,0,0,0
6,69999,82,60000,1,10000,49,9999,0.100000,0,0,0.000000,6,3.000000,0.000000,4.271015,0,0,0,0,0,0,0
6,69999,83,60000,46,30000,40,9999,0.100000,0,0,0.000000,6,0.000000,0.000000,0.705709,0,0,0,0,0,0,0
6,69999,84,60000,93,20000,49,9999,0.100000,0,0,0.000000,6,4.000000,0.000000,8.510683,0,0,0,0,0,0,0
6,69999,85,60000,46,30000,40,9999,0.100000,0,0,0.000000,6,0.000000,0.000000,1.389440,0,0,0,0,0,0,0
6,69999,86,60000,0,0,40,9999,0.100000,0,0,0.000000,6,0.000000,0.000000,0.486806,0,0,0,0,0,0,0
6,69999,87,60000,46,30000,40,9999,0.100000,0,0,0.000000,6,0.000000,0.000000,1.033299,0,0,0,0,0,0,0
6,69999,88,60000,0,0,40,9999,0.100000,0,0,0.000000,6,0.000000,0.000000,0.769298,0,0,0,0,0,0,0
6,69999,89,60000,93,20000,49,9999,0.100000,0,0,0.000000,6,1.000000,0.000000,2.079308,0,0,0,0,0,0,0
6,69999,90,60000,46,30000,49,9999,0.100000,0,0,0.000000,6,1.000000,0.000000,4.185809,0,0,0,0,0,0,0
6,69999,91,60000,26,0,49,9999,0.100000,0,0,0.000000,6,2.000000,0.000000,11.589516,0,0,0,0,0,0,0
6,69999,92,60000,0,0,49,9999,0.100000,0,0,0.000000,6,2.000000,0.000000,10.599989,0,0,0,0,0,0,0
6,69999,93,60000,1,10000,49,9999,0.100000,0,0,0.000000,6,1.000000,0.000000,3.869012,0,0,0,0,0,0,0
6,69999,94,60000,46,30000,40,9999,0.100000,0,0,0.000000,6,0.000000,0.000000,0.235929,0,0,0,0,0,0,0
6,69999,95,60000,26,0,49,9999,0.100000,0,0,0.000000,6,2.000000,0.000000,2.825334,0,0,0,0,0,0,0
6,69999,96,60000,1,10000,40,9999,0.100000,0,0,0.000000,6,0.000000,0.000000,3.471696,0,0,0,0,0,0,0
6,69999,97,60000,46,30000,40,9999,0.100000,0,0,0.000000,6,0.000000,0.000000,0.755257,0,0,0,0,0,0,0
6,69999,98,60000,84,10000,40,9999,0.100000,0,0,0.000000,6,0.000000,0.000000,0.509407,0,0,0,0,0,0,0
6,69999,99,60000,84,10000,40,9999,0.100000,0,0,0.000000,6,0.000000,0.000000,0.127409,0,0,0,0,0,0,0
7,79999,0,70000,84,10000,49,9999,0.100000,0,0,0.000000,6,1.000000,0.000000,9.545686,0,0,0,0,0,0,0
7,79999,1,70000,46,30000,40,9999,0.100000,0,0,0.000000,6,0.000000,0.000000,0.258054,0,0,0,0,0,0,0
7,79999,2,70000,1,10000,40,9999,0.100000,0,0,0.000000,6,0.000000,0.000000,0.248847,0,0,0,0,0,0,0
7,79999,3,70000,1,10000,40,9999,0.100000,0,0,0.000000,6,0.000000,0.000000,0.978097,0,0,0,0,0,0,0
7,79999,4,70000,26,0,40,9999,0.100000,0,0,0.000000,6,0.000000,0.000000,0.514723,0,0,0,0,0,0,0
7,79999,5,70000,93,20000,40,9999,0.100000,0,0,0.000000,6,0.000000,0.000000,11.043419,0,0,0,0,0,0,0
7,79999,6,70000,93,20000,40,9999,0.100000,0,0,0.000000,6,0.000000,0.000000,0.448372,0,0,0,0,0,0,0
7,79999,7,70000,84,10000,40,9999,0.100000,0,0,0.000000,6,0.000000,0.000000,0.235924,0,0,0,0,0,0,0
7,79999,8,70000,0,0,40,9999,0.100000,0,0,0.000000,6,0.000000,0.000000,0.607953,0,0,0,0,0,0,0
7,79999,9,70000,26,0,40,9999,0.100000,0,0,0.000000,6,0.000000,0.000000,0.806711,0,0,0,0,0,0,0
7,79999,10,70000,46,30000,40,9999,0.100000,0,0,0.000000,6,0.000000,0.000000,0.555777,0,0,0,0,0,0,0
7,79999,11,70000,26,0,40,9999,0.100000,0,0,0.000000,6,0.000000,0.000000,0.799988,0,0,0,0,0,0,0
7,79999,12,70000,26,0,49,9999,0.100000,0,0,0.000000,6,2.000000,0.000000,8.818173,0,0,0,0,0,0,0
7,79999,13,70000,26,0,40,9999,0.100000,0,0,0.000000,6,0.000000,0.000000,0.508092,0,0,0,0,0,0,0
7,79999,14,70000,84,10000,40,9999,0.100000,0,0,0.000000,6,0.000000,0.000000,3.188552,0,0,0,0,0,0,0
7,79999,15,70000,1,10000,40,9999,0.100000,0,0,0.000000,6,0.000000,0.000000,1.445738,0,0,0,0,0,0,0
7,79999,16,70000,84,10000,40,9999,0.100000,0,0,0.000000,6,0.000000,0.000000,0.281143,0,0,0,0,0,0,0
7,79999,17,70000,46,30000,40,9999,0.100000,0,0,0.000000,6,0.000000,0.000000,4.833644,0,0,0,0,0,0,0
7,79999,18,70000,0,0,40,9999,0.100000,0,0,0.000000,6,0.000000,0.000000,5.589881,0,0,0,0,0,0,0
7,79999,19,70000,93,20000,40,9999,0.100000,0,0,0.000000,6,0.000000,0.000000,0.228904,0,0,0,0,0,0,0
7,79999,20,70000,93,20000,40,9999,0.100000,0,0,0.000000,6,0.000000,0.000000,3.594223,0,0,0,0,0,0,0
7,79999,21,70000,46,30000,40,9999,0.100000,0,0,0.000000,6,0.000000,0.000000,0.664809,0,0,0,0,0,0,0
7,79999,22,70000,0,0,40,9999,0.100000,0,0,0.000000,6,0.000000,0.000000,0.489671,0,0,0,0,0,0,0
7,79999,23,70000,46,30000,40,9999,0.100000,0,0,0.000000,6,0.000000,0.000000,2.821403,0,0,0,0,0,0,0
7,79999,24,70000,84,10000,40,9999,0.100000,0,0,0.000000,6,0.000000,0.000000,0.228565,0,0,0,0,0,0,0
7,79999,25,70000,1,10000,40,9999,0.100000,0,0,0.000000,6,0.000000,0.000000,0.792391,0,0,0,0,0,0,0
7,79999,26,70000,84,10000,49,9999,0.100000,0,0,0.000000,6,2.000000,0.000000,5.883998,0,0,0,0,0,0,0
7,79999,27,70000,1,10000,40,9999,0.100000,0,0,0.000000,6,0.000000,0.000000,0.226056,0,0,0,0,0,0,0
7,79999,28,70000,1,10000,49,9999,0.100000,0,0,0.000000,6,3.000000,0.000000,4.493972,0,0,0,0,0,0,0
7,79999,29,70000,93,20000,40,9999,0.100000,0,0,0.000000,6,0.000000,0.000000,6.846626,0,0,0,0,0,0,0
7,79999,30,70000,93,20000,40,9999,0.100000,0,0,0.000000,6,0.000000,0.000000,1.496898,0,0,0,0,0,0,0
7,79999,31,70000,84,10000,49,9999,0.100000,0,0,0.000000,6,1.000000,0.000000,4.533129,0,0,0,0,0,0,0
7,79999,32,70000,93,20000,40,9999,0.100000,0,0,0.000000,6,0.000000,0.000000,0.662056,0,0,0,0,0,0,0
7,79999,33,70000,46,30000,49,9999,0.100000,0,0,0.000000,6,6.000000,0.000000,13.886707,0,0,0,0,0,0,0
7,79999,34,70000,0,0,49,9999,0.100000,0,0,0.000000,6,1.000000,0.000000,7.322813,0,0,0,0,0,0,0
7,79999,35,70000,93,20000,49,9999,0.100000,0,0,0.000000,6,2.000000,0.000000,20.976243,0,0,0,0,0,0,0
7,79999,36,70000,26,0,40,9999,0.100000,0,0,0.000000,6,0.000000,0.000000,0.863888,0,0,0,0,0,0,0
7,79999,37,70000,84,10000,40,9999,0.100000,0,0,0.000000,6,0.000000,0.000000,0.466740,0,0,0,0,0,0,0
7,79999,38,70000,0,0,40,9999,0.100000,0,0,0.000000,6,0.000000,0.000000,1.102919,0,0,0,0,0,0,0
7,79999,39,70000,1,10000,49,9999,0.100000,0,0,0.000000,6,6.000000,0.000000,14.497114,0,0,0,0,0,0,0
7,79999,40,70000,0,0,49,9999,0.100000,0,0,0.000000,6,2.000000,0.000000,15.208099,0,0,0,0,0,0,0
7,79999,41,70000,0,0,40,9999,0.100000,0,0,0.000000,6,0.000000,0.000000,0.731890,0,0,0,0,0,0,0
7,79999,42,70000,84,10000,49,9999,0.100000,0,0,0.000000,6,1.000000,0.000000,1.896183,0,0,0,0,0,0,0
7,79999,43,70000,26,0,49,9999,0.100000,0,0,0.000000,6,1.000000,0.000000,1.428218,0,0,0,0,0,0,0
7,79999,44,70000,93,20000,40,9999,0.100000,0,0,0.000000,6,0.000000,0.000000,0.524758,0,0,0,0,0,0,0
7,79999,45,70000,0,0,40,9999,0.100000,0,0,0.000000,6,0.000000,0.000000,0.240522,0,0,0,0,0,0,0
7,79999,46,70000,46,30000,40,9999,0.100000,0,0,0.000000,6,0.000000,0.000000,0.655108,0,0,0,0,0,0,0
7,79999,47,70000,46,30000,40,9999,0.100000,0,0,0.000000,6,0.000000,0.000000,0.579165,0,0,0,0,0,0,0
7,79999,48,70000,84,10000,40,9999,0.100000,0,0,0.000000,6,0.000000,0.000000,2.930808,0,0,0,0,0,0,0
7,79999,49,70000,84,10000,40,9999,0.100000,0,0,0.000000,6,0.000000,0.000000,0.731550,0,0,0,0,0,0,0
7,79999,50,70000,46,30000,49,9999,0.100000,0,0,0.000000,6,1.000000,0.000000,3.450316,0,0,0,0,0,0,0
7,79999,51,70000,26,0,40,9999,0.100000,0,0,0.000000,6,0.000000,0.000000,0.993071,0,0,0,0,0,0,0
7,79999,52,70000,1,10000,40,9999,0.100000,0,0,0.000000,6,0.000000,0.000000,0.938002,0,0,0,0,0,0,0
7,79999,53,70000,46,30000,40,9999,0.100000,0,0,0.000000,6,0.000000,0.000000,0.133929,0,0,0,0,0,0,0
7,79999,54,70000,26,0,40,9999,0.100000,0,0,0.000000,6,0.000000,0.000000,0.161553,0,0,0,0,0,0,0
7,79999,55,70000,46,30000,40,9999,0.100000,0,0,0.000000,6,0.000000,0.000000,0.082120,0,0,0,0,0,0,0
7,79999,56,70000,46,30000,49,9999,0.100000,0,0,0.000000,6,16.000000,0.000000,22.761635,0,0,0,0,0,0,0
7,79999,57,70000,0,0,40,9999,0.100000,0,0,0.000000,6,0.000000,0.000000,0.257553,0,0,0,0,0,0,0
7,79999,58,70000,0,0,40,9999,0.100000,0,0,0.000000,6,0.000000,0.000000,1.025478,0,0,0,0,0,0,0
7,79999,59,70000,93,20000,40,9999,0.100000,0,0,0.000000,6,0.000000,0.000000,1.223605,0,0,0,0,0,0,0
7,79999,60,70000,84,10000,40,9999,0.100000,0,0,0.000000,6,0.000000,0.000000,0.534419,0,0,0,0,0,0,0
7,79999,61,70000,1,10000,40,9999,0.100000,0,0,0.000000,6,0.000000,0.000000,6.241830,0,0,0,0,0,0,0
7,79999,62,70000,46,30000,40,9999,0.100000,0,0,0.000000,6,0.000000,0.000000,0.237208,0,0,0,0,0,0,0
7,79999,63,70000,0,0,49,9999,0.100000,0,0,0.000000,6,1.000000,0.000000,13.116142,0,0,0,0,0,0,0
7,79999,64,70000,46,30000,49,9999,0.100000,0,0,0.000000,6,1.000000,0.000000,6.673795,0,0,0,0,0,0,0
7,79999,65,70000,84,10000,49,9999,0.100000,0,0,0.000000,6,1.000000,0.000000,11.467419,0,0,0,0,0,0,0
7,79999,66,70000,46,30000,49,9999,0.100000,0,0,0.000000,6,3.000000,0.000000,9.908879,0,0,0,0,0,0,0
7,79999,67,70000,26,0,40,9999,0.100000,0,0,0.000000,6,0.000000,0.000000,0.228537,0,0,0,0,0,0,0
7,79999,68,70000,1,10000,40,9999,0.100000,0,0,0.000000,6,0.000000,0.000000,5.079494,0,0,0,0,0,0,0
7,79999,69,70000,84,10000,40,9999,0.100000,0,0,0.000000,6,0.000000,0.000000,0.604343,0,0,0,0,0,0,0
7,79999,70,70000,0,0,40,9999,0.100000,0,0,0.000000,6,0.000000,0.000000,0.255092,0,0,0,0,0,0,0
7,79999,71,70000,26,0,49,9999,0.100000,0,0,0.000000,6,1.000000,0.000000,8.120569,0,0,0,0,0,0,0
7,79999,72,70000,26,0,49,9999,0.100000,0,0,0.000000,6,5.000000,0.000000,10.652259,0,0,0,0,0,0,0
7,79999,73,70000,46,30000,40,9999,0.100000,0,0,0.000000,6,0.000000,0.000000,2.534758,0,0,0,0,0,0,0
7,79999,74,70000,0,0,40,9999,0.100000,0,0,0.000000,6,0.000000,0.000000,0.341107,0,0,0,0,0,0,0
7,79999,75,70000,1,10000,40,9999,0.100000,0,0,0.000000,6,0.000000,0.000000,0.139684,0,0,0,0,0,0,0
7,79999,76,70000,1,10000,40,9999,0.100000,0,0,0.000000,6,0.000000,0.000000,0.650969,0,0,0,0,0,0,0
7,79999,77,70000,46,30000,40,9999,0.100000,0,0,0.000000,6,0.000000,0.000000,2.772954,0,0,0,0,0,0,0
7,79999,78,70000,0,0,40,9999,0.100000,0,0,0.000000,6,0.000000,0.000000,0.533535,0,0,0,0,0,0,0
7,79999,79,70000,93,20000,40,9999,0.100000,0,0,0.000000,6,0.000000,0.000000,1.187016,0,0,0,0,0,0,0
7,79999,80,70000,26,0,40,9999,0.100000,0,0,0.000000,6,0.000000,0.000000,0.158232,0,0,0,0,0,0,0
7,79999,81,70000,1,10000,49,9999,0.100000,0,0,0.000000,6,1.000000,0.000000,2.673758,0,0,0,0,0,0,0
7,79999,82,70000,1,10000,40,9999,0.100000,0,0,0.000000,6,0.000000,0.000000,0.242132,0,0,0,0,0,0,0
7,79999,83,70000,26,0,40,9999,0.100000,0,0,0.000000,6,0.000000,0.000000,0.688120,0,0,0,0,0,0,0
7,79999,84,70000,84,10000,49,9999,0.100000,0,0,0.000000,6,1.000000,0.000000,11.445664,0,0,0,0,0,0,0
7,79999,85,70000,0,0,49,9999,0.100000,0,0,0.000000,6,1.000000,0.000000,2.696472,0,0,0,0,0,0,0
7,79999,86,70000,26,0,40,9999,0.100000,0,0,0.000000,6,0.000000,0.000000,0.436535,0,0,0,0,0,0,0
7,79999,87,70000,1,10000,40,9999,0.100000,0,0,0.000000,6,0.000000,0.000000,0.364530,0,0,0,0,0,0,0
7,79999,88,70000,84,10000,40,9999,0.100000,0,0,0.000000,6,0.000000,0.000000,0.381331,0,0,0,0,0,0,0
7,79999,89,70000,1,10000,49,9999,0.100000,0,0,0.000000,6,1.000000,0.000000,5.672104,0,0,0,0,0,0,0
7,79999,90,70000,0,0,40,9999,0.100000,0,0,0.000000,6,0.000000,0.000000,9.116928,0,0,0,0,0,0,0
7,79999,91,70000,93,20000,49,9999,0.100000,0,0,0.000000,6,1.000000,0.000000,2.155013,0,0,0,0,0,0,0
7,79999,92,70000,26,0,49,9999,0.100000,0,0,0.000000,6,1.000000,0.000000,12.227195,0,0,0,0,0,0,0
7,79999,93,70000,26,0,40,9999,0.100000,0,0,0.000000,6,0.000000,0.000000,0.614954,0,0,0,0,0,0,0
7,79999,94,70000,46,30000,40,9999,0.100000,0,0,0.000000,6,0.000000,0.000000,0.650798,0,0,0,0,0,0,0
7,79999,95,70000,84,10000,40,9999,0.100000,0,0,0.000000,6,0.000000,0.000000,0.700224,0,0,0,0,0,0,0
7,79999,96,70000,93,20000,40,9999,0.100000,0,0,0.000000,6,0.000000,0.000000,3.349042,0,0,0,0,0,0,0
7,79999,97,70000,84,10000,40,9999,0.100000,0,0,0.000000,6,0.000000,0.000000,0.768326,0,0,0,0,0,0,0
7,79999,98,70000,26,0,40,9999,0.100000,0,0,0.000000,6,0.000000,0.000000,0.498108,0,0,0,0,0,0,0
7,79999,99,70000,84,10000,40,9999,0.100000,0,0,0.000000,6,0.000000,0.000000,0.175225,0,0,0,0,0,0,0
8,89999,0,80000,84,10000,49,9999,0.100000,0,0,0.000000,6,4.000000,0.000000,5.334140,0,0,0,0,0,0,0
8,89999,1,80000,84,10000,40,9999,0.100000,0,0,0.000000,6,0.000000,0.000000,0.264951,0,0,0,0,0,0,0
8,89999,2,80000,46,30000,40,9999,0.100000,0,0,0.000000,6,0.000000,0.000000,0.231816,0,0,0,0,0,0,0
8,89999,3,80000,26,0,40,9999,0.100000,0,0,0.000000,6,0.000000,0.000000,0.998737,0,0,0,0,0,0,0
8,89999,4,80000,93,20000,40,9999,0.100000,0,0,0.000000,6,0.000000,0.000000,0.302977,0,0,0,0,0,0,0
8,89999,5,80000,1,10000,49,9999,0.100000,0,0,0.000000,6,1.000000,0.000000,3.662041,0,0,0,0,0,0,0
8,89999,6,80000,84,10000,40,9999,0.100000,0,0,0.000000,6,0.000000,0.000000,0.933395,0,0,0,0,0,0,0
8,89999,7,80000,0,0,40,9999,0.100000,0,0,0.000000,6,0.000000,0.000000,0.241758,0,0,0,0,0,0,0
8,89999,8,80000,93,20000,40,9999,0.100000,0,0,0.000000,6,0.000000,0.000000,0.591405,0,0,0,0,0,0,0
8,89999,9,80000,93,20000,40,9999,0.100000,0,0,0.000000,6,0.000000,0.000000,6.144484,0,0,0,0,0,0,0
8,89999,10,80000,84,10000,40,9999,0.100000,0,0,0.000000,6,0.000000,0.000000,0.543254,0,0,0,0,0,0,0
8,89999,11,80000,26,0,40,9999,0.100000,0,0,0.000000,6,0.000000,0.000000,0.902097,0,0,0,0,0,0,0
8,89999,12,80000,0,0,49,9999,0.100000,0,0,0.000000,6,2.000000,0.000000,10.261917,0,0,0,0,0,0,0
8,89999,13,80000,93,20000,40,9999,0.100000,0,0,0.000000,6,0.000000,0.000000,0.501467,0,0,0,0,0,0,0
8,89999,14,80000,84,10000,49,9999,0.100000,0,0,0.000000,6,1.000000,0.000000,3.400893,0,0,0,0,0,0,0
8,89999,15,80000,26,0,40,9999,0.100000,0,0,0.000000,6,0.000000,0.000000,2.345806,0,0,0,0,0,0,0
8,89999,16,80000,93,20000,40,9999,0.100000,0,0,0.000000,6,0.000000,0.000000,0.195392,0,0,0,0,0,0,0
8,89999,17,80000,84,10000,40,9999,0.100000,0,0,0.000000,6,0.000000,0.000000,17.065820,0,0,0,0,0,0,0
8,89999,18,80000,46,30000,49,9999,0.100000,0,0,0.000000,6,1.000000,0.000000,4.813883,0,0,0,0,0,0,0
8,89999,19,80000,93,20000,40,9999,0.100000,0,0,0.000000,6,0.000000,0.000000,0.235499,0,0,0,0,0,0,0
8,89999,20,80000,46,30000,40,9999,0.100000,0,0,0.000000,6,0.000000,0.000000,3.565571,0,0,0,0,0,0,0
8,89999,21,80000,26,0,40,9999,0.100000,0,0,0.000000,6,0.000000,0.000000,0.652838,0,0,0,0,0,0,0
8,89999,22,80000,1,10000,40,9999,0.100000,0,0,0.000000,6,0.000000,0.000000,0.147370,0,0,0,0,0,0,0
8,89999,23,80000,84,10000,49,9999,0.100000,0,0,0.000000,6,2.000000,0.000000,8.528715,0,0,0,0,0,0,0
8,89999,24,80000,26,0,40,9999,0.100000,0,0,0.000000,6,0.000000,0.000000,0.235317,0,0,0,0,0,0,0
8,89999,25,80000,46,30000,40,9999,0.100000,0,0,0.000000,6,0.000000,0.000000,0.797142,0,0,0,0,0,0,0
8,89999,26,80000,1,10000,40,9999,0.100000,0,0,0.000000,6,0.000000,0.000000,1.011574,0,0,0,0,0,0,0
8,89999,27,80000,93,20000,40,9999,0.100000,0,0,0.000000,6,0.000000,0.000000,0.232761,0,0,0,0,0,0,0
8,89999,28,80000,0,0,49,9999,0.100000,0,0,0.000000,6,2.000000,0.000000,15.112350,0,0,0,0,0,0,0
8,89999,29,80000,84,10000,49,9999,0.100000,0,0,0.000000,6,7.000000,0.000000,20.592732,0,0,0,0,0,0,0
8,89999,30,80000,0,0,49,9999,0.100000,0,0,0.000000,6,3.000000,0.000000,6.604349,0,0,0,0,0,0,0
8,89999,31,80000,0,0,40,9999,0.100000,0,0,0.000000,6,0.000000,0.000000,0.889033,0,0,0,0,0,0,0
8,89999,32,80000,46,30000,49,9999,0.100000,0,0,0.000000,6,5.000000,0.000000,7.994693,0,0,0,0,0,0,0
8,89999,33,80000,1,10000,49,9999,0.100000,0,0,0.000000,6,1.000000,0.000000,9.018982,0,0,0,0,0,0,0
8,89999,34,80000,46,30000,49,9999,0.100000,0,0,0.000000,6,1.000000,0.000000,2.461985,0,0,0,0,0,0,0
8,89999,35,80000,93,20000,40,9999,0.100000,0,0,0.000000,6,0.000000,0.000000,21.263659,0,0,0,0,0,0,0
8,89999,36,80000,84,10000,40,9999,0.100000,0,0,0.000000,6,0.000000,0.000000,1.412071,0,0,0,0,0,0,0
8,89999,37,80000,26,0,40,9999,0.100000,0,0,0.000000,6,0.000000,0.000000,0.432160,0,0,0,0,0,0,0
8,89999,38,80000,0,0,40,9999,0.100000,0,0,0.000000,6,0.000000,0.000000,1.032825,0,0,0,0,0,0,0
8,89999,39,80000,26,0,49,9999,0.100000,0,0,0.000000,6,19.000000,0.000000,22.775852,0,0,0,0,0,0,0
8,89999,40,80000,26,0,40,9999,0.100000,0,0,0.000000,6,0.000000,0.000000,5.214410,0,0,0,0,0,0,0
8,89999,41,80000,84,10000,40,9999,0.100000,0,0,0.000000,6,0.000000,0.000000,0.508080,0,0,0,0,0,0,0
8,89999,42,80000,46,30000,49,9999,0.100000,0,0,0.000000,6,4.000000,0.000000,5.837900,0,0,0,0,0,0,0
8,89999,43,80000,84,10000,40,9999,0.100000,0,0,0.000000,6,0.000000,0.000000,0.653702,0,0,0,0,0,0,0
8,89999,44,80000,84,10000,40,9999,0.100000,0,0,0.000000,6,0.000000,0.000000,0.956927,0,0,0,0,0,0,0
8,89999,45,80000,84,10000,40,9999,0.100000,0,0,0.000000,6,0.000000,0.000000,0.230970,0,0,0,0,0,0,0
8,89999,46,80000,26,0,40,9999,0.100000,0,0,0.000000,6,0.000000,0.000000,0.741133,0,0,0,0,0,0,0
8,89999,47,80000,93,20000,40,9999,0.100000,0,0,0.000000,6,0.000000,0.000000,0.349712,0,0,0,0,0,0,0
8,89999,48,80000,1,10000,49,9999,0.100000,0,0,0.000000,6,2.000000,0.000000,6.669744,0,0,0,0,0,0,0
8,89999,49,80000,93,20000,40,9999,0.100000,0,0,0.000000,6,0.000000,0.000000,0.671067,0,0,0,0,0,0,0
8,89999,50,80000,1,10000,40,9999,0.100000,0,0,0.000000,6,0.000000,0.000000,0.785609,0,0,0,0,0,0,0
8,89999,51,80000,84,10000,40,9999,0.100000,0,0,0.000000,6,0.000000,0.000000,1.439793,0,0,0,0,0,0,0
8,89999,52,80000,1,10000,40,9999,0.100000,0,0,0.000000,6,0.000000,0.000000,1.513635,0,0,0,0,0,0,0
8,89999,53,80000,84,10000,40,9999,0.100000,0,0,0.000000,6,0.000000,0.000000,0.133965,0,0,0,0,0,0,0
8,89999,54,80000,93,20000,40,9999,0.100000,0,0,0.000000,6,0.000000,0.000000,0.156367,0,0,0,0,0,0,0
8,89999,55,80000,84,10000,40,9999,0.100000,0,0,0.000000,6,0.000000,0.000000,0.086679,0,0,0,0,0,0,0
8,89999,56,80000,0,0,40,9999,0.100000,0,0,0.000000,6,0.000000,0.000000,0.236340,0,0,0,0,0,0,0
8,89999,57,80000,26,0,40,9999,0.100000,0,0,0.000000,6,0.000000,0.000000,7.727625,0,0,0,0,0,0,0
8,89999,58,80000,0,0,49,9999,0.100000,0,0,0.000000,6,6.000000,0.000000,10.557141,0,0,0,0,0,0,0
8,89999,59,80000,46,30000,40,9999,0.100000,0,0,0.000000,6,0.000000,0.000000,1.553954,0,0,0,0,0,0,0
8,89999,60,80000,0,0,40,9999,0.100000,0,0,0.000000,6,0.000000,0.000000,0.156065,0,0,0,0,0,0,0
8,89999,61,80000,93,20000,49,9999,0.100000,0,0,0.000000,6,1.000000,0.000000,6.682716,0,0,0,0,0,0,0
8,89999,62,80000,0,0,40,9999,0.100000,0,0,0.000000,6,0.000000,0.000000,0.240155,0,0,0,0,0,0,0
8,89999,63,80000,46,30000,49,9999,0.100000,0,0,0.000000,6,1.000000,0.000000,5.184675,0,0,0,0,0,0,0
8,89999,64,80000,0,0,49,9999,0.100000,0,0,0.000000,6,15.000000,0.000000,32.081918,0,0,0,0,0,0,0
8,89999,65,80000,26,0,49,9999,0.100000,0,0,0.000000,6,1.000000,0.000000,8.095126,0,0,0,0,0,0,0
8,89999,66,80000,93,20000,49,9999,0.100000,0,0,0.000000,6,6.000000,0.000000,6.538692,0,0,0,0,0,0,0
8,89999,67,80000,84,10000,40,9999,0.100000,0,0,0.000000,6,0.000000,0.000000,0.243355,0,0,0,0,0,0,0
8,89999,68,80000,93,20000,40,9999,0.100000,0,0,0.000000,6,0.000000,0.000000,7.602734,0,0,0,0,0,0,0
8,89999,69,80000,1,10000,40,9999,0.100000,0,0,0.000000,6,0.000000,0.000000,0.623316,0,0,0,0,0,0,0
8,89999,70,80000,0,0,40,9999,0.100000,0,0,0.000000,6,0.000000,0.000000,0.179114,0,0,0,0,0,0,0
8,89999,71,80000,1,10000,40,9999,0.100000,0,0,0.000000,6,0.000000,0.000000,2.937954,0,0,0,0,0,0,0
8,89999,72,80000,84,10000,40,9999,0.100000,0,0,0.000000,6,0.000000,0.000000,1.510237,0,0,0,0,0,0,0
8,89999,73,80000,84,10000,40,9999,0.100000,0,0,0.000000,6,0.000000,0.000000,2.188111,0,0,0,0,0,0,0
8,89999,74,80000,0,0,40,9999,0.100000,0,0,0.000000,6,0.000000,0.000000,0.558745,0,0,0,0,0,0,0
8,89999,75,80000,84,10000,40,9999,0.100000,0,0,0.000000,6,0.000000,0.000000,0.135074,0,0,0,0,0,0,0
8,89999,76,80000,1,10000,40,9999,0.100000,0,0,0.000000,6,0.000000,0.000000,1.296972,0,0,0,0,0,0,0
8,89999,77,80000,1,10000,49,9999,0.100000,0,0,0.000000,6,1.000000,0.000000,3.032972,0,0,0,0,0,0,0
8,89999,78,80000,84,10000,40,9999,0.100000,0,0,0.000000,6,0.000000,0.000000,0.237212,0,0,0,0,0,0,0
8,89999,79,80000,84,10000,49,9999,0.100000,0,0,0.000000,6,1.000000,0.000000,3.616604,0,0,0,0,0,0,0
8,89999,80,80000,26,0,40,9999,0.100000,0,0,0.000000,6,0.000000,0.000000,0.129151,0,0,0,0,0,0,0
8,89999,81,80000,1,10000,40,9999,0.100000,0,0,0.000000,6,0.000000,0.000000,1.211355,0,0,0,0,0,0,0
8,89999,82,80000,0,0,40,9999,0.100000,0,0,0.000000,6,0.000000,0.000000,0.221461,0,0,0,0,0,0,0
8,89999,83,80000,84,10000,40,9999,0.100000,0,0,0.000000,6,0.000000,0.000000,1.082743,0,0,0,0,0,0,0
8,89999,84,80000,46,30000,49,9999,0.100000,0,0,0.000000,6,6.000000,0.000000,10.412048,0,0,0,0,0,0,0
8,89999,85,80000,93,20000,49,9999,0.100000,0,0,0.000000,6,4.000000,0.000000,10.266633,0,0,0,0,0,0,0
8,89999,86,80000,1,10000,40,9999,0.100000,0,0,0.000000,6,0.000000,0.000000,0.401805,0,0,0,0,0,0,0
8,89999,87,80000,0,0,49,9999,0.100000,0,0,0.000000,6,4.000000,0.000000,5.101752,0,0,0,0,0,0,0
8,89999,88,80000,0,0,40,9999,0.100000,0,0,0.000000,6,0.000000,0.000000,0.224431,0,0,0,0,0,0,0
8,89999,89,80000,0,0,40,9999,0.100000,0,0,0.000000,6,0.000000,0.000000,0.174099,0,0,0,0,0,0,0
8,89999,90,80000,26,0,49,9999,0.100000,0,0,0.000000,6,3.000000,0.000000,6.042412,0,0,0,0,0,0,0
8,89999,91,80000,1,10000,40,9999,0.100000,0,0,0.000000,6,0.000000,0.000000,0.686700,0,0,0,0,0,0,0
8,89999,92,80000,26,0,49,9999,0.135000,0,0,0.000000,6,14.000000,0.000000,21.055253,0,0,0,0,0,0,0
8,89999,93,80000,46,30000,40,9999,0.100000,0,0,0.000000,6,0.000000,0.000000,0.534993,0,0,0,0,0,0,0
8,89999,94,80000,1,10000,40,9999,0.100000,0,0,0.000000,6,0.000000,0.000000,1.303767,0,0,0,0,0,0,0
8,89999,95,80000,46,30000,40,9999,0.100000,0,0,0.000000,6,0.000000,0.000000,0.648700,0,0,0,0,0,0,0
8,89999,96,80000,0,0,40,9999,0.100000,0,0,0.000000,6,0.000000,0.000000,4.901980,0,0,0,0,0,0,0
8,89999,97,80000,1,10000,40,9999,0.100000,0,0,0.000000,6,0.000000,0.000000,0.776012,0,0,0,0,0,0,0
8,89999,98,80000,1,10000,40,9999,0.100000,0,0,0.000000,6,0.000000,0.000000,0.486835,0,0,0,0,0,0,0
8,89999,99,80000,1,10000,40,9999,0.100000,0,0,0.000000,6,0.000000,0.000000,0.691449,0,0,0,0,0,0,0
9,99999,0,90000,46,30000,40,9999,0.100000,0,0,0.000000,6,0.000000,0.000000,0.849158,0,0,0,0,0,0,0
9,99999,1,90000,1,10000,40,9999,0.100000,0,0,0.000000,6,0.000000,0.000000,0.362329,0,0,0,0,0,0,0
9,99999,2,90000,84,10000,40,9999,0.100000,0,0,0.000000,6,0.000000,0.000000,0.222627,0,0,0,0,0,0,0
9,99999,3,90000,1,10000,40,9999,0.100000,0,0,0.000000,6,0.000000,0.000000,0.924473,0,0,0,0,0,0,0
9,99999,4,90000,26,0,49,9999,0.100000,0,0,0.000000,6,1.000000,0.000000,2.039971,0,0,0,0,0,0,0
9,99999,5,90000,46,30000,49,9999,0.100000,0,0,0.000000,6,1.000000,0.000000,2.844905,0,0,0,0,0,0,0
9,99999,6,90000,93,20000,49,9999,0.100000,0,0,0.000000,6,1.000000,0.000000,1.587482,0,0,0,0,0,0,0
9,99999,7,90000,26,0,40,9999,0.100000,0,0,0.000000,6,0.000000,0.000000,0.231376,0,0,0,0,0,0,0
9,99999,8,90000,84,10000,40,9999,0.100000,0,0,0.000000,6,0.000000,0.000000,5.544375,0,0,0,0,0,0,0
9,99999,9,90000,1,10000,40,9999,0.100000,0,0,0.000000,6,0.000000,0.000000,0.356913,0,0,0,0,0,0,0
9,99999,10,90000,93,20000,49,9999,0.100000,0,0,0.000000,6,1.000000,0.000000,2.154233,0,0,0,0,0,0,0
9,99999,11,90000,93,20000,49,9999,0.100000,0,0,0.000000,6,7.000000,0.000000,10.743035,0,0,0,0,0,0,0
9,99999,12,90000,1,10000,49,9999,0.100000,0,0,0.000000,6,4.000000,0.000000,11.869862,0,0,0,0,0,0,0
9,99999,13,90000,84,10000,40,9999,0.100000,0,0,0.000000,6,0.000000,0.000000,0.520088,0,0,0,0,0,0,0
9,99999,14,90000,84,10000,49,9999,0.100000,0,0,0.000000,6,1.000000,0.000000,2.354084,0,0,0,0,0,0,0
9,99999,15,90000,46,30000,49,9999,0.100000,0,0,0.000000,6,1.000000,0.000000,4.103648,0,0,0,0,0,0,0
9,99999,16,90000,1,10000,40,9999,0.100000,0,0,0.000000,6,0.000000,0.000000,0.144675,0,0,0,0,0,0,0
9,99999,17,90000,93,20000,40,9999,0.100000,0,0,0.000000,6,0.000000,0.000000,8.036831,0,0,0,0,0,0,0
9,99999,18,90000,46,30000,49,9999,0.100000,0,0,0.000000,6,1.000000,0.000000,4.536958,0,0,0,0,0,0,0
9,99999,19,90000,93,20000,40,9999,0.100000,0,0,0.000000,6,0.000000,0.000000,0.251758,0,0,0,0,0,0,0
9,99999,20,90000,93,20000,40,9999,0.100000,0,0,0.000000,6,0.000000,0.000000,0.223614,0,0,0,0,0,0,0
9,99999,21,90000,0,0,40,9999,0.100000,0,0,0.000000,6,0.000000,0.000000,0.668256,0,0,0,0,0,0,0
9,99999,22,90000,0,0,40,9999,0.100000,0,0,0.000000,6,0.000000,0.000000,0.184211,0,0,0,0,0,0,0
9,99999,23,90000,1,10000,49,9999,0.100000,0,0,0.000000,6,1.000000,0.000000,4.329117,0,0,0,0,0,0,0
9,99999,24,90000,93,20000,40,9999,0.100000,0,0,0.000000,6,0.000000,0.000000,0.251236,0,0,0,0,0,0,0
9,99999,25,90000,1,10000,40,9999,0.100000,0,0,0.000000,6,0.000000,0.000000,0.867149,0,0,0,0,0,0,0
9,99999,26,90000,26,0,40,9999,0.100000,0,0,0.000000,6,0.000000,0.000000,3.282638,0,0,0,0,0,0,0
9,99999,27,90000,93,20000,40,9999,0.100000,0,0,0.000000,6,0.000000,0.000000,0.236519,0,0,0,0,0,0,0
9,99999,28,90000,84,10000,40,9999,0.100000,0,0,0.000000,6,0.000000,0.000000,14.301581,0,0,0,0,0,0,0
9,99999,29,90000,84,10000,49,9999,0.100000,0,0,0.000000,6,9.000000,0.000000,9.809952,0,0,0,0,0,0,0
9,99999,30,90000,93,20000,49,9999,0.100000,0,0,0.000000,6,6.000000,0.000000,16.745651,0,0,0,0,0,0,0
9,99999,31,90000,26,0,49,9999,0.100000,0,0,0.000000,6,1.000000,0.000000,2.173659,0,0,0,0,0,0,0
9,99999,32,90000,93,20000,40,9999,0.100000,0,0,0.000000,6,0.000000,0.000000,0.615690,0,0,0,0,0,0,0
9,99999,33,90000,93,20000,49,9999,0.100000,0,0,0.000000,6,1.000000,0.000000,10.721389,0,0,0,0,0,0,0
9,99999,34,90000,84,10000,49,9999,0.100000,0,0,0.000000,6,2.000000,0.000000,17.025785,0,0,0,0,0,0,0
9,99999,35,90000,93,20000,40,9999,0.100000,0,0,0.000000,6,0.000000,0.000000,21.670522,0,0,0,0,0,0,0
9,99999,36,90000,46,30000,40,9999,0.100000,0,0,0.000000,6,0.000000,0.000000,1.132481,0,0,0,0,0,0,0
9,99999,37,90000,46,30000,40,9999,0.100000,0,0,0.000000,6,0.000000,0.000000,0.459235,0,0,0,0,0,0,0
9,99999,38,90000,84,10000,49,9999,0.100000,0,0,0.000000,6,1.000000,0.000000,2.184424,0,0,0,0,0,0,0
9,99999,39,90000,0,0,49,9999,0.100000,0,0,0.000000,6,20.000000,0.000000,25.698037,0,0,0,0,0,0,0
9,99999,40,90000,26,0,49,9999,0.100000,0,0,0.000000,6,1.000000,0.000000,7.195767,0,0,0,0,0,0,0
9,99999,41,90000,46,30000,40,9999,0.100000,0,0,0.000000,6,0.000000,0.000000,0.852040,0,0,0,0,0,0,0
9,99999,42,90000,26,0,40,9999,0.100000,0,0,0.000000,6,0.000000,0.000000,0.882098,0,0,0,0,0,0,0
9,99999,43,90000,46,30000,40,9999,0.100000,0,0,0.000000,6,0.000000,0.000000,0.371074,0,0,0,0,0,0,0
9,99999,44,90000,84,10000,40,9999,0.100000,0,0,0.000000,6,0.000000,0.000000,0.802206,0,0,0,0,0,0,0
9,99999,45,90000,26,0,40,9999,0.100000,0,0,0.000000,6,0.000000,0.000000,0.237330,0,0,0,0,0,0,0
9,99999,46,90000,46,30000,40,9999,0.100000,0,0,0.000000,6,0.000000,0.000000,0.672473,0,0,0,0,0,0,0
9,99999,47,90000,0,0,40,9999,0.100000,0,0,0.000000,6,0.000000,0.000000,0.381658,0,0,0,0,0,0,0
9,99999,48,90000,84,10000,40,9999,0.100000,0,0,0.000000,6,0.000000,0.000000,1.009474,0,0,0,0,0,0,0
9,99999,49,90000,0,0,49,9999,0.100000,0,0,0.000000,6,1.000000,0.000000,2.125938,0,0,0,0,0,0,0
9,99999,50,90000,1,10000,49,9999,0.100000,0,0,0.000000,6,1.000000,0.000000,2.152082,0,0,0,0,0,0,0
9,99999,51,90000,26,0,40,9999,0.100000,0,0,0.000000,6,0.000000,0.000000,1.347799,0,0,0,0,0,0,0
9,99999,52,90000,46,30000,40,9999,0.100000,0,0,0.000000,6,0.000000,0.000000,0.875350,0,0,0,0,0,0,0
9,99999,53,90000,0,0,40,9999,0.100000,0,0,0.000000,6,0.000000,0.000000,0.951534,0,0,0,0,0,0,0
9,99999,54,90000,84,10000,40,9999,0.065000,0,0,0.000000,6,0.000000,0.000000,0.204477,0,0,0,0,0,0,0
9,99999,55,90000,93,20000,40,9999,0.100000,0,0,0.000000,6,0.000000,0.000000,0.084878,0,0,0,0,0,0,0
9,99999,56,90000,46,30000,40,9999,0.100000,0,0,0.000000,6,0.000000,0.000000,0.238768,0,0,0,0,0,0,0
9,99999,57,90000,93,20000,49,9999,0.100000,0,0,0.000000,6,2.000000,0.000000,4.456408,0,0,0,0,0,0,0
9,99999,58,90000,26,0,49,9999,0.100000,0,0,0.000000,6,1.000000,0.000000,5.898367,0,0,0,0,0,0,0
9,99999,59,90000,84,10000,49,9999,0.100000,0,0,0.000000,6,1.000000,0.000000,2.361305,0,0,0,0,0,0,0
9,99999,60,90000,0,0,40,9999,0.100000,0,0,0.000000,6,0.000000,0.000000,0.115846,0,0,0,0,0,0,0
9,99999,61,90000,93,20000,49,9999,0.100000,0,0,0.000000,6,3.000000,0.000000,10.286202,0,0,0,0,0,0,0
9,99999,62,90000,26,0,40,9999,0.100000,0,0,0.000000,6,0.000000,0.000000,0.229189,0,0,0,0,0,0,0
9,99999,63,90000,93,20000,49,9999,0.100000,0,0,0.000000,6,4.000000,0.000000,7.814578,0,0,0,0,0,0,0
9,99999,64,90000,46,30000,49,9999,0.135000,0,0,0.000000,6,1.000000,0.000000,9.065359,0,0,0,0,0,0,0
9,99999,65,90000,26,0,49,9999,0.100000,0,0,0.000000,6,2.000000,0.000000,6.635249,0,0,0,0,0,0,0
9,99999,66,90000,93,20000,40,9999,0.100000,0,0,0.000000,6,0.000000,0.000000,0.354445,0,0,0,0,0,0,0
9,99999,67,90000,46,30000,40,9999,0.100000,0,0,0.000000,6,0.000000,0.000000,0.247979,0,0,0,0,0,0,0
9,99999,68,90000,0,0,40,9999,0.100000,0,0,0.000000,6,0.000000,0.000000,3.724531,0,0,0,0,0,0,0
9,99999,69,90000,0,0,40,9999,0.100000,0,0,0.000000,6,0.000000,0.000000,0.664551,0,0,0,0,0,0,0
9,99999,70,90000,1,10000,40,9999,0.100000,0,0,0.000000,6,0.000000,0.000000,0.140784,0,0,0,0,0,0,0
9,99999,71,90000,93,20000,40,9999,0.100000,0,0,0.000000,6,0.000000,0.000000,2.294948,0,0,0,0,0,0,0
9,99999,72,90000,46,30000,40,9999,0.100000,0,0,0.000000,6,0.000000,0.000000,0.620939,0,0,0,0,0,0,0
9,99999,73,90000,1,10000,49,9999,0.100000,0,0,0.000000,6,1.000000,0.000000,2.274036,0,0,0,0,0,0,0
9,99999,74,90000,1,10000,40,9999,0.100000,0,0,0.000000,6,0.000000,0.000000,3.655794,0,0,0,0,0,0,0
9,99999,75,90000,46,30000,40,9999,0.100000,0,0,0.000000,6,0.000000,0.000000,0.139300,0,0,0,0,0,0,0
9,99999,76,90000,26,0,40,9999,0.100000,0,0,0.000000,6,0.000000,0.000000,0.677807,0,0,0,0,0,0,0
9,99999,77,90000,1,10000,49,9999,0.100000,0,0,0.000000,6,1.000000,0.000000,3.407480,0,0,0,0,0,0,0
9,99999,78,90000,26,0,40,9999,0.100000,0,0,0.000000,6,0.000000,0.000000,0.462744,0,0,0,0,0,0,0
9,99999,79,90000,46,30000,40,9999,0.100000,0,0,0.000000,6,0.000000,0.000000,2.183467,0,0,0,0,0,0,0
9,99999,80,90000,93,20000,40,9999,0.100000,0,0,0.000000,6,0.000000,0.000000,0.052834,0,0,0,0,0,0,0
9,99999,81,90000,93,20000,40,9999,0.100000,0,0,0.000000,6,0.000000,0.000000,2.365180,0,0,0,0,0,0,0
9,99999,82,90000,0,0,40,9999,0.100000,0,0,0.000000,6,0.000000,0.000000,0.242404,0,0,0,0,0,0,0
9,99999,83,90000,93,20000,40,9999,0.100000,0,0,0.000000,6,0.000000,0.000000,5.421504,0,0,0,0,0,0,0
9,99999,84,90000,0,0,49,9999,0.100000,0,0,0.000000,6,6.000000,0.000000,6.668767,0,0,0,0,0,0,0
9,99999,85,90000,26,0,49,9999,0.100000,0,0,0.000000,6,15.000000,0.000000,21.277134,0,0,0,0,0,0,0
9,99999,86,90000,84,10000,40,9999,0.100000,0,0,0.000000,6,0.000000,0.000000,0.425153,0,0,0,0,0,0,0
9,99999,87,90000,26,0,40,9999,0.100000,0,0,0.000000,6,0.000000,0.000000,1.420265,0,0,0,0,0,0,0
9,99999,88,90000,26,0,40,9999,0.100000,0,0,0.000000,6,0.000000,0.000000,0.176661,0,0,0,0,0,0,0
9,99999,89,90000,84,10000,40,9999,0.100000,0,0,0.000000,6,0.000000,0.000000,0.235042,0,0,0,0,0,0,0
9,99999,90,90000,46,30000,49,9999,0.100000,0,0,0.000000,6,3.000000,0.000000,9.503497,0,0,0,0,0,0,0
9,99999,91,90000,84,10000,49,9999,0.100000,0,0,0.000000,6,1.000000,0.000000,2.225608,0,0,0,0,0,0,0
9,99999,92,90000,93,20000,49,9999,0.100000,0,0,0.000000,6,4.000000,0.000000,10.882269,0,0,0,0,0,0,0
9,99999,93,90000,46,30000,40,9999,0.100000,0,0,0.000000,6,0.000000,0.000000,2.374478,0,0,0,0,0,0,0
9,99999,94,90000,0,0,40,9999,0.100000,0,0,0.000000,6,0.000000,0.000000,0.717944,0,0,0,0,0,0,0
9,99999,95,90000,93,20000,40,9999,0.100000,0,0,0.000000,6,0.000000,0.000000,0.986298,0,0,0,0,0,0,0
9,99999,96,90000,84,10000,40,9999,0.100000,0,0,0.000000,6,0.000000,0.000000,4.932832,0,0,0,0,0,0,0
9,99999,97,90000,93,20000,40,9999,0.100000,0,0,0.000000,6,0.000000,0.000000,0.848444,0,0,0,0,0,0,0
9,99999,98,90000,84,10000,40,9999,0.100000,0,0,0.000000,6,0.000000,0.000000,0.501390,0,0,0,0,0,0,0
9,99999,99,90000,46,30000,40,9999,0.100000,0,0,0.000000,6,0.000000,0.000000,0.296304,0,0,0,0,0,0,0
10,109999,0,100000,93,20000,40,9999,0.100000,0,0,0.000000,6,0.000000,0.000000,0.535458,0,0,0,0,0,0,0
10,109999,1,100000,26,0,40,9999,0.100000,0,0,0.000000,6,0.000000,0.000000,1.333364,0,0,0,0,0,0,0
10,109999,2,100000,0,0,49,9999,0.100000,0,0,0.000000,6,1.000000,0.000000,1.444432,0,0,0,0,0,0,0
10,109999,3,100000,26,0,40,9999,0.100000,0,0,0.000000,6,0.000000,0.000000,0.958175,0,0,0,0,0,0,0
10,109999,4,100000,26,0,40,9999,0.100000,0,0,0.000000,6,0.000000,0.000000,1.624615,0,0,0,0,0,0,0
10,109999,5,100000,46,30000,49,9999,0.100000,0,0,0.000000,6,2.000000,0.000000,7.022495,0,0,0,0,0,0,0
10,109999,6,100000,0,0,49,9999,0.100000,0,0,0.000000,6,1.000000,0.000000,7.078112,0,0,0,0,0,0,0
10,109999,7,100000,1,10000,40,9999,0.100000,0,0,0.000000,6,0.000000,0.000000,0.232346,0,0,0,0,0,0,0
10,109999,8,100000,84,10000,40,9999,0.100000,0,0,0.000000,6,0.000000,0.000000,3.138238,0,0,0,0,0,0,0
10,109999,9,100000,26,0,40,9999,0.100000,0,0,0.000000,6,0.000000,0.000000,1.392263,0,0,0,0,0,0,0
10,109999,10,100000,26,0,40,9999,0.100000,0,0,0.000000,6,0.000000,0.000000,1.413270,0,0,0,0,0,0,0
10,109999,11,100000,46,30000,49,9999,0.100000,0,0,0.000000,6,3.000000,0.000000,6.024541,0,0,0,0,0,0,0
10,109999,12,100000,93,20000,49,9999,0.100000,0,0,0.000000,6,1.000000,0.000000,8.402422,0,0,0,0,0,0,0
10,109999,13,100000,26,0,40,9999,0.100000,0,0,0.000000,6,0.000000,0.000000,0.514089,0,0,0,0,0,0,0
10,109999,14,100000,93,20000,49,9999,0.100000,0,0,0.000000,6,3.000000,0.000000,5.259206,0,0,0,0,0,0,0
10,109999,15,100000,0,0,49,9999,0.100000,0,0,0.000000,6,3.000000,0.000000,6.193277,0,0,0,0,0,0,0
10,109999,16,100000,84,10000,40,9999,0.100000,0,0,0.000000,6,0.000000,0.000000,0.143822,0,0,0,0,0,0,0
10,109999,17,100000,46,30000,40,9999,0.100000,0,0,0.000000,6,0.000000,0.000000,1.817319,0,0,0,0,0,0,0
10,109999,18,100000,0,0,49,9999,0.100000,0,0,0.000000,6,1.000000,0.000000,3.334703,0,0,0,0,0,0,0
10,109999,19,100000,46,30000,40,9999,0.100000,0,0,0.000000,6,0.000000,0.000000,0.237474,0,0,0,0,0,0,0
10,109999,20,100000,93,20000,40,9999,0.100000,0,0,0.000000,6,0.000000,0.000000,0.110608,0,0,0,0,0,0,0
10,109999,21,100000,93,20000,40,9999,0.100000,0,0,0.000000,6,0.000000,0.000000,0.693546,0,0,0,0,0,0,0
10,109999,22,100000,84,10000,40,9999,0.100000,0,0,0.000000,6,0.000000,0.000000,0.291658,0,0,0,0,0,0,0
10,109999,23,100000,84,10000,40,9999,0.100000,0,0,0.000000,6,0.000000,0.000000,2.475654,0,0,0,0,0,0,0
10,109999,24,100000,84,10000,40,9999,0.100000,0,0,0.000000,6,0.000000,0.000000,0.234177,0,0,0,0,0,0,0
10,109999,25,100000,26,0,40,9999,0.100000,0,0,0.000000,6,0.000000,0.000000,1.421102,0,0,0,0,0,0,0
10,109999,26,100000,26,0,49,9999,0.100000,0,0,0.000000,6,2.000000,0.000000,15.599691,0,0,0,0,0,0,0
10,109999,27,100000,46,30000,40,9999,0.100000,0,0,0.000000,6,0.000000,0.000000,0.229003,0,0,0,0,0,0,0
10,109999,28,100000,46,30000,49,9999,0.100000,0,0,0.000000,6,8.000000,0.000000,12.023800,0,0,0,0,0,0,0
10,109999,29,100000,46,30000,40,9999,0.100000,0,0,0.000000,6,0.000000,0.000000,0.193241,0,0,0,0,0,0,0
10,109999,30,100000,1,10000,49,9999,0.100000,0,0,0.000000,6,2.000000,0.000000,6.656183,0,0,0,0,0,0,0
10,109999,31,100000,46,30000,40,9999,0.100000,0,0,0.000000,6,0.000000,0.000000,0.474711,0,0,0,0,0,0,0
10,109999,32,100000,46,30000,40,9999,0.100000,0,0,0.000000,6,0.000000,0.000000,0.458867,0,0,0,0,0,0,0
10,109999,33,100000,1,10000,40,9999,0.100000,0,0,0.000000,6,0.000000,0.000000,4.145687,0,0,0,0,0,0,0
10,109999,34,100000,26,0,49,9999,0.100000,0,0,0.000000,6,2.000000,0.000000,9.034052,0,0,0,0,0,0,0
10,109999,35,100000,1,10000,49,9999,0.100000,0,0,0.000000,6,1.000000,0.000000,17.842490,0,0,0,0,0,0,0
10,109999,36,100000,26,0,49,9999,0.100000,0,0,0.000000,6,1.000000,0.000000,6.425219,0,0,0,0,0,0,0
10,109999,37,100000,0,0,40,9999,0.100000,0,0,0.000000,6,0.000000,0.000000,0.456892,0,0,0,0,0,0,0
10,109999,38,100000,0,0,40,9999,0.100000,0,0,0.000000,6,0.000000,0.000000,1.663010,0,0,0,0,0,0,0
10,109999,39,100000,93,20000,49,9999,0.100000,0,0,0.000000,6,2.000000,0.000000,3.333965,0,0,0,0,0,0,0
10,109999,40,100000,93,20000,49,9999,0.100000,0,0,0.000000,6,2.000000,0.000000,15.264908,0,0,0,0,0,0,0
10,109999,41,100000,1,10000,49,9999,0.100000,0,0,0.000000,6,1.000000,0.000000,1.950141,0,0,0,0,0,0,0
10,109999,42,100000,46,30000,40,9999,0.100000,0,0,0.000000,6,0.000000,0.000000,0.875558,0,0,0,0,0,0,0
10,109999,43,100000,84,10000,40,9999,0.100000,0,0,0.000000,6,0.000000,0.000000,1.078198,0,0,0,0,0,0,0
10,109999,44,100000,0,0,40,9999,0.100000,0,0,0.000000,6,0.000000,0.000000,0.652868,0,0,0,0,0,0,0
10,109999,45,100000,26,0,40,9999,0.100000,0,0,0.000000,6,0.000000,0.000000,0.232838,0,0,0,0,0,0,0
10,109999,46,100000,0,0,40,9999,0.100000,0,0,0.000000,6,0.000000,0.000000,0.661421,0,0,0,0,0,0,0
10,109999,47,100000,26,0,40,9999,0.100000,0,0,0.000000,6,0.000000,0.000000,0.360542,0,0,0,0,0,0,0
10,109999,48,100000,0,0,40,9999,0.100000,0,0,0.000000,6,0.000000,0.000000,1.021068,0,0,0,0,0,0,0
10,109999,49,100000,84,10000,40,9999,0.100000,0,0,0.000000,6,0.000000,0.000000,1.302584,0,0,0,0,0,0,0
10,109999,50,100000,93,20000,40,9999,0.100000,0,0,0.000000,6,0.000000,0.000000,0.492147,0,0,0,0,0,0,0
10,109999,51,100000,46,30000,40,9999,0.100000,0,0,0.000000,6,0.000000,0.000000,1.705749,0,0,0,0,0,0,0
10,109999,52,100000,26,0,40,9999,0.100000,0,0,0.000000,6,0.000000,0.000000,1.610870,0,0,0,0,0,0,0
10,109999,53,100000,26,0,40,9999,0.100000,0,0,0.000000,6,0.000000,0.000000,0.141302,0,0,0,0,0,0,0
10,109999,54,100000,26,0,40,9999,0.100000,0,0,0.000000,6,0.000000,0.000000,0.575208,0,0,0,0,0,0,0
10,109999,55,100000,1,10000,40,9999,0.100000,0,0,0.000000,6,0.000000,0.000000,0.082889,0,0,0,0,0,0,0
10,109999,56,100000,93,20000,40,9999,0.100000,0,0,0.000000,6,0.000000,0.000000,0.232367,0,0,0,0,0,0,0
10,109999,57,100000,93,20000,49,9999,0.100000,0,0,0.000000,6,4.000000,0.000000,6.633330,0,0,0,0,0,0,0
10,109999,58,100000,0,0,49,9999,0.100000,0,0,0.000000,6,12.000000,0.000000,12.273804,0,0,0,0,0,0,0
10,109999,59,100000,1,10000,49,9999,0.100000,0,0,0.000000,6,1.000000,0.000000,3.649290,0,0,0,0,0,0,0
10,109999,60,100000,93,20000,40,9999,0.100000,0,0,0.000000,6,0.000000,0.000000,0.119000,0,0,0,0,0,0,0
10,109999,61,100000,1,10000,40,9999,0.100000,0,0,0.000000,6,0.000000,0.000000,7.844381,0,0,0,0,0,0,0
10,109999,62,100000,1,10000,40,9999,0.100000,0,0,0.000000,6,0.000000,0.000000,0.233093,0,0,0,0,0,0,0
10,109999,63,100000,84,10000,40,9999,0.100000,0,0,0.000000,6,0.000000,0.000000,1.627681,0,0,0,0,0,0,0
10,109999,64,100000,26,0,40,9999,0.100000,0,0,0.000000,6,0.000000,0.000000,1.657988,0,0,0,0,0,0,0
10,109999,65,100000,46,30000,40,9999,0.100000,0,0,0.000000,6,0.000000,0.000000,5.078566,0,0,0,0,0,0,0
10,109999,66,100000,1,10000,40,9999,0.100000,0,0,0.000000,6,0.000000,0.000000,0.209502,0,0,0,0,0,0,0
10,109999,67,100000,84,10000,40,9999,0.100000,0,0,0.000000,6,0.000000,0.000000,0.226143,0,0,0,0,0,0,0
10,109999,68,100000,26,0,40,9999,0.100000,0,0,0.000000,6,0.000000,0.000000,3.432379,0,0,0,0,0,0,0
10,109999,69,100000,1,10000,40,9999,0.100000,0,0,0.000000,6,0.000000,0.000000,1.346982,0,0,0,0,0,0,0
10,109999,70,100000,26,0,40,9999,0.100000,0,0,0.000000,6,0.000000,0.000000,0.134888,0,0,0,0,0,0,0
10,109999,71,100000,1,10000,40,9999,0.100000,0,0,0.000000,6,0.000000,0.000000,6.193632,0,0,0,0,0,0,0
10,109999,72,100000,26,0,40,9999,0.100000,0,0,0.000000,6,0.000000,0.000000,3.383057,0,0,0,0,0,0,0
10,109999,73,100000,84,10000,49,9999,0.100000,0,0,0.000000,6,1.000000,0.000000,2.926801,0,0,0,0,0,0,0
10,109999,74,100000,84,10000,49,9999,0.100000,0,0,0.000000,6,2.000000,0.000000,17.802028,0,0,0,0,0,0,0
10,109999,75,100000,26,0,40,9999,0.100000,0,0,0.000000,6,0.000000,0.000000,0.824207,0,0,0,0,0,0,0
10,109999,76,100000,93,20000,49,9999,0.100000,0,0,0.000000,6,1.000000,0.000000,8.920678,0,0,0,0,0,0,0
10,109999,77,100000,46,30000,49,9999,0.100000,0,0,0.000000,6,2.000000,0.000000,7.743506,0,0,0,0,0,0,0
10,109999,78,100000,1,10000,40,9999,0.100000,0,0,0.000000,6,0.000000,0.000000,0.640641,0,0,0,0,0,0,0
10,109999,79,100000,26,0,40,9999,0.100000,0,0,0.000000,6,0.000000,0.000000,1.890324,0,0,0,0,0,0,0
10,109999,80,100000,0,0,40,9999,0.100000,0,0,0.000000,6,0.000000,0.000000,0.052379,0,0,0,0,0,0,0
10,109999,81,100000,26,0,40,9999,0.100000,0,0,0.000000,6,0.000000,0.000000,1.335559,0,0,0,0,0,0,0
10,109999,82,100000,1,10000,40,9999,0.100000,0,0,0.000000,6,0.000000,0.000000,0.251636,0,0,0,0,0,0,0
10,109999,83,100000,93,20000,40,9999,0.100000,0,0,0.000000,6,0.000000,0.000000,3.140977,0,0,0,0,0,0,0
10,109999,84,100000,46,30000,40,9999,0.100000,0,0,0.000000,6,0.000000,0.000000,0.236765,0,0,0,0,0,0,0
10,109999,85,100000,93,20000,40,9999,0.100000,0,0,0.000000,6,0.000000,0.000000,2.349318,0,0,0,0,0,0,0
10,109999,86,100000,46,30000,40,9999,0.100000,0,0,0.000000,6,0.000000,0.000000,0.425594,0,0,0,0,0,0,0
10,109999,87,100000,0,0,40,9999,0.100000,0,0,0.000000,6,0.000000,0.000000,0.617979,0,0,0,0,0,0,0
10,109999,88,100000,84,10000,40,9999,0.100000,0,0,0.000000,6,0.000000,0.000000,0.151152,0,0,0,0,0,0,0
10,109999,89,100000,0,0,40,9999,0.100000,0,0,0.000000,6,0.000000,0.000000,0.373963,0,0,0,0,0,0,0
10,109999,90,100000,0,0,49,9999,0.100000,0,0,0.000000,6,4.000000,0.000000,6.968595,0,0,0,0,0,0,0
10,109999,91,100000,0,0,40,9999,0.100000,0,0,0.000000,6,0.000000,0.000000,0.403425,0,0,0,0,0,0,0
10,109999,92,100000,0,0,40,9999,0.100000,0,0,0.000000,6,0.000000,0.000000,4.332396,0,0,0,0,0,0,0
10,109999,93,100000,0,0,40,9999,0.100000,0,0,0.000000,6,0.000000,0.000000,1.820327,0,0,0,0,0,0,0
10,109999,94,100000,1,10000,40,9999,0.100000,0,0,0.000000,6,0.000000,0.000000,1.338419,0,0,0,0,0,0,0
10,109999,95,100000,26,0,49,9999,0.100000,0,0,0.000000,6,1.000000,0.000000,6.976606,0,0,0,0,0,0,0
10,109999,96,100000,0,0,40,9999,0.100000,0,0,0.000000,6,0.000000,0.000000,5.101862,0,0,0,0,0,0,0
10,109999,97,100000,0,0,40,9999,0.100000,0,0,0.000000,6,0.000000,0.000000,1.333817,0,0,0,0,0,0,0
10,109999,98,100000,1,10000,40,9999,0.100000,0,0,0.000000,6,0.000000,0.000000,0.514656,0,0,0,0,0,0,0
10,109999,99,100000,93,20000,40,9999,0.100000,0,0,0.000000,6,0.000000,0.000000,0.714333,0,0,0,0,0,0,0
11,119999,0,110000,46,30000,49,9999,0.100000,0,0,0.000000,6,1.000000,0.000000,2.084874,0,0,0,0,0,0,0
11,119999,1,110000,1,10000,40,9999,0.100000,0,0,0.000000,6,0.000000,0.000000,2.896159,0,0,0,0,0,0,0
11,119999,2,110000,46,30000,40,9999,0.100000,0,0,0.000000,6,0.000000,0.000000,0.353865,0,0,0,0,0,0,0
11,119999,3,110000,26,0,40,9999,0.100000,0,0,0.000000,6,0.000000,0.000000,0.913715,0,0,0,0,0,0,0
11,119999,4,110000,1,10000,40,9999,0.100000,0,0,0.000000,6,0.000000,0.000000,0.566322,0,0,0,0,0,0,0
11,119999,5,110000,46,30000,40,9999,0.100000,0,0,0.000000,6,0.000000,0.000000,1.661997,0,0,0,0,0,0,0
11,119999,6,110000,46,30000,40,9999,0.100000,0,0,0.000000,6,0.000000,0.000000,0.695912,0,0,0,0,0,0,0
11,119999,7,110000,84,10000,40,9999,0.100000,0,0,0.000000,6,0.000000,0.000000,0.245172,0,0,0,0,0,0,0
11,119999,8,110000,26,0,49,9999,0.100000,0,0,0.000000,6,1.000000,0.000000,11.226028,0,0,0,0,0,0,0
11,119999,9,110000,84,10000,40,9999,0.100000,0,0,0.000000,6,0.000000,0.000000,3.522380,0,0,0,0,0,0,0
11,119999,10,110000,46,30000,40,9999,0.100000,0,0,0.000000,6,0.000000,0.000000,0.531241,0,0,0,0,0,0,0
11,119999,11,110000,1,10000,49,9999,0.100000,0,0,0.000000,6,6.000000,0.000000,9.963599,0,0,0,0,0,0,0
11,119999,12,110000,1,10000,40,9999,0.100000,0,0,0.000000,6,0.000000,0.000000,1.951160,0,0,0,0,0,0,0
11,119999,13,110000,0,0,40,9999,0.100000,0,0,0.000000,6,0.000000,0.000000,0.520911,0,0,0,0,0,0,0
11,119999,14,110000,0,0,49,9999,0.100000,0,0,0.000000,6,1.000000,0.000000,3.064239,0,0,0,0,0,0,0
11,119999,15,110000,26,0,40,9999,0.100000,0,0,0.000000,6,0.000000,0.000000,2.841610,0,0,0,0,0,0,0
11,119999,16,110000,1,10000,40,9999,0.100000,0,0,0.000000,6,0.000000,0.000000,0.131686,0,0,0,0,0,0,0
11,119999,17,110000,84,10000,40,9999,0.100000,0,0,0.000000,6,0.000000,0.000000,1.755897,0,0,0,0,0,0,0
11,119999,18,110000,93,20000,49,9999,0.100000,0,0,0.000000,6,1.000000,0.000000,3.666031,0,0,0,0,0,0,0
11,119999,19,110000,0,0,40,9999,0.100000,0,0,0.000000,6,0.000000,0.000000,0.235220,0,0,0,0,0,0,0
11,119999,20,110000,26,0,40,9999,0.100000,0,0,0.000000,6,0.000000,0.000000,0.128611,0,0,0,0,0,0,0
11,119999,21,110000,0,0,40,9999,0.100000,0,0,0.000000,6,0.000000,0.000000,0.674246,0,0,0,0,0,0,0
11,119999,22,110000,0,0,40,9999,0.100000,0,0,0.000000,6,0.000000,0.000000,0.282851,0,0,0,0,0,0,0
11,119999,23,110000,26,0,40,9999,0.100000,0,0,0.000000,6,0.000000,0.000000,1.751146,0,0,0,0,0,0,0
11,119999,24,110000,0,0,40,9999,0.100000,0,0,0.000000,6,0.000000,0.000000,0.238107,0,0,0,0,0,0,0
11,119999,25,110000,93,20000,49,9999,0.100000,0,0,0.000000,6,5.000000,0.000000,11.576642,0,0,0,0,0,0,0
11,119999,26,110000,93,20000,49,9999,0.100000,0,0,0.000000,6,2.000000,0.000000,20.118728,0,0,0,0,0,0,0
11,119999,27,110000,1,10000,40,9999,0.100000,0,0,0.000000,6,0.000000,0.000000,0.231828,0,0,0,0,0,0,0
11,119999,28,110000,0,0,49,9999,0.100000,0,0,0.000000,6,2.000000,0.000000,15.804216,0,0,0,0,0,0,0
11,119999,29,110000,0,0,40,9999,0.100000,0,0,0.000000,6,0.000000,0.000000,0.198256,0,0,0,0,0,0,0
11,119999,30,110000,84,10000,40,9999,0.100000,0,0,0.000000,6,0.000000,0.000000,2.262445,0,0,0,0,0,0,0
11,119999,31,110000,93,20000,40,9999,0.100000,0,0,0.000000,6,0.000000,0.000000,0.708730,0,0,0,0,0,0,0
11,119999,32,110000,93,20000,49,9999,0.100000,0,0,0.000000,6,1.000000,0.000000,1.962806,0,0,0,0,0,0,0
11,119999,33,110000,26,0,40,9999,0.100000,0,0,0.000000,6,0.000000,0.000000,1.913040,0,0,0,0,0,0,0
11,119999,34,110000,0,0,49,9999,0.100000,0,0,0.000000,6,1.000000,0.000000,3.301985,0,0,0,0,0,0,0
11,119999,35,110000,1,10000,49,9999,0.100000,0,0,0.000000,6,3.000000,0.000000,9.995922,0,0,0,0,0,0,0
11,119999,36,110000,46,30000,49,9999,0.100000,0,0,0.000000,6,3.000000,0.000000,4.574977,0,0,0,0,0,0,0
11,119999,37,110000,84,10000,40,9999,0.100000,0,0,0.000000,6,0.000000,0.000000,0.395180,0,0,0,0,0,0,0
11,119999,38,110000,46,30000,40,9999,0.100000,0,0,0.000000,6,0.000000,0.000000,0.342860,0,0,0,0,0,0,0
11,119999,39,110000,93,20000,40,9999,0.100000,0,0,0.000000,6,0.000000,0.000000,2.128757,0,0,0,0,0,0,0
11,119999,40,110000,46,30000,49,9999,0.100000,0,0,0.000000,6,1.000000,0.000000,6.333120,0,0,0,0,0,0,0
11,119999,41,110000,1,10000,40,9999,0.100000,0,0,0.000000,6,0.000000,0.000000,0.486175,0,0,0,0,0,0,0
11,119999,42,110000,46,30000,40,9999,0.100000,0,0,0.000000,6,0.000000,0.000000,0.917926,0,0,0,0,0,0,0
11,119999,43,110000,26,0,40,9999,0.100000,0,0,0.000000,6,0.000000,0.000000,1.408735,0,0,0,0,0,0,0
11,119999,44,110000,26,0,40,9999,0.100000,0,0,0.000000,6,0.000000,0.000000,0.262332,0,0,0,0,0,0,0
11,119999,45,110000,26,0,40,9999,0.100000,0,0,0.000000,6,0.000000,0.000000,0.237634,0,0,0,0,0,0,0
11,119999,46,110000,84,10000,40,9999,0.100000,0,0,0.000000,6,0.000000,0.000000,0.863068,0,0,0,0,0,0,0
11,119999,47,110000,46,30000,40,9999,0.100000,0,0,0.000000,6,0.000000,0.000000,0.761456,0,0,0,0,0,0,0
11,119999,48,110000,93,20000,40,9999,0.100000,0,0,0.000000,6,0.000000,0.000000,1.012816,0,0,0,0,0,0,0
11,119999,49,110000,26,0,40,9999,0.100000,0,0,0.000000,6,0.000000,0.000000,0.366187,0,0,0,0,0,0,0
11,119999,50,110000,84,10000,40,9999,0.100000,0,0,0.000000,6,0.000000,0.000000,0.540448,0,0,0,0,0,0,0
11,119999,51,110000,46,30000,40,9999,0.100000,0,0,0.000000,6,0.000000,0.000000,0.940668,0,0,0,0,0,0,0
11,119999,52,110000,46,30000,49,9999,0.100000,0,0,0.000000,6,6.000000,0.000000,12.098276,0,0,0,0,0,0,0
11,119999,53,110000,0,0,40,9999,0.100000,0,0,0.000000,6,0.000000,0.000000,0.138788,0,0,0,0,0,0,0
11,119999,54,110000,46,30000,40,9999,0.100000,0,0,0.000000,6,0.000000,0.000000,1.603286,0,0,0,0,0,0,0
11,119999,55,110000,93,20000,40,9999,0.100000,0,0,0.000000,6,0.000000,0.000000,0.080756,0,0,0,0,0,0,0
11,119999,56,110000,1,10000,40,9999,0.100000,0,0,0.000000,6,0.000000,0.000000,0.231370,0,0,0,0,0,0,0
11,119999,57,110000,84,10000,40,9999,0.100000,0,0,0.000000,6,0.000000,0.000000,0.799359,0,0,0,0,0,0,0
11,119999,58,110000,93,20000,40,9999,0.100000,0,0,0.000000,6,0.000000,0.000000,0.100371,0,0,0,0,0,0,0
11,119999,59,110000,84,10000,40,9999,0.100000,0,0,0.000000,6,0.000000,0.000000,0.820038,0,0,0,0,0,0,0
11,119999,60,110000,46,30000,40,9999,0.100000,0,0,0.000000,6,0.000000,0.000000,0.120716,0,0,0,0,0,0,0
11,119999,61,110000,93,20000,49,9999,0.100000,0,0,0.000000,6,1.000000,0.000000,9.579561,0,0,0,0,0,0,0
11,119999,62,110000,93,20000,40,9999,0.100000,0,0,0.000000,6,0.000000,0.000000,0.241541,0,0,0,0,0,0,0
11,119999,63,110000,93,20000,40,9999,0.100000,0,0,0.000000,6,0.000000,0.000000,1.332074,0,0,0,0,0,0,0
11,119999,64,110000,84,10000,40,9999,0.100000,0,0,0.000000,6,0.000000,0.000000,1.441227,0,0,0,0,0,0,0
11,119999,65,110000,1,10000,40,9999,0.100000,0,0,0.000000,6,0.000000,0.000000,5.715893,0,0,0,0,0,0,0
11,119999,66,110000,1,10000,40,9999,0.100000,0,0,0.000000,6,0.000000,0.000000,0.208486,0,0,0,0,0,0,0
11,119999,67,110000,46,30000,40,9999,0.100000,0,0,0.000000,6,0.000000,0.000000,0.242306,0,0,0,0,0,0,0
11,119999,68,110000,26,0,40,9999,0.100000,0,0,0.000000,6,0.000000,0.000000,4.175255,0,0,0,0,0,0,0
11,119999,69,110000,26,0,40,9999,0.100000,0,0,0.000000,6,0.000000,0.000000,2.727121,0,0,0,0,0,0,0
11,119999,70,110000,84,10000,40,9999,0.100000,0,0,0.000000,6,0.000000,0.000000,0.149088,0,0,0,0,0,0,0
11,119999,71,110000,26,0,40,9999,0.100000,0,0,0.000000,6,0.000000,0.000000,0.331197,0,0,0,0,0,0,0
11,119999,72,110000,1,10000,49,9999,0.100000,0,0,0.000000,6,5.000000,0.000000,8.598761,0,0,0,0,0,0,0
11,119999,73,110000,26,0,49,9999,0.100000,0,0,0.000000,6,2.000000,0.000000,3.666873,0,0,0,0,0,0,0
11,119999,74,110000,46,30000,49,9999,0.100000,0,0,0.000000,6,6.000000,0.000000,7.495837,0,0,0,0,0,0,0
11,119999,75,110000,46,30000,40,9999,0.100000,0,0,0.000000,6,0.000000,0.000000,0.139821,0,0,0,0,0,0,0
11,119999,76,110000,93,20000,40,9999,0.100000,0,0,0.000000,6,0.000000,0.000000,0.540954,0,0,0,0,0,0,0
11,119999,77,110000,46,30000,49,9999,0.100000,0,0,0.000000,6,5.000000,0.000000,10.322555,0,0,0,0,0,0,0
11,119999,78,110000,84,10000,40,9999,0.100000,0,0,0.000000,6,0.000000,0.000000,0.670441,0,0,0,0,0,0,0
11,119999,79,110000,1,10000,40,9999,0.100000,0,0,0.000000,6,0.000000,0.000000,1.534937,0,0,0,0,0,0,0
11,119999,80,110000,0,0,40,9999,0.100000,0,0,0.000000,6,0.000000,0.000000,0.054235,0,0,0,0,0,0,0
11,119999,81,110000,1,10000,40,9999,0.100000,0,0,0.000000,6,0.000000,0.000000,1.251182,0,0,0,0,0,0,0
11,119999,82,110000,0,0,40,9999,0.100000,0,0,0.000000,6,0.000000,0.000000,0.300432,0,0,0,0,0,0,0
11,119999,83,110000,0,0,40,9999,0.100000,0,0,0.000000,6,0.000000,0.000000,1.424756,0,0,0,0,0,0,0
11,119999,84,110000,93,20000,40,9999,0.100000,0,0,0.000000,6,0.000000,0.000000,0.229256,0,0,0,0,0,0,0
11,119999,85,110000,93,20000,49,9999,0.100000,0,0,0.000000,6,18.000000,0.000000,20.576672,0,0,0,0,0,0,0
11,119999,86,110000,0,0,40,9999,0.100000,0,0,0.000000,6,0.000000,0.000000,0.343685,0,0,0,0,0,0,0
11,119999,87,110000,1,10000,49,9999,0.100000,0,0,0.000000,6,2.000000,0.000000,2.277039,0,0,0,0,0,0,0
11,119999,88,110000,84,10000,40,9999,0.100000,0,0,0.000000,6,0.000000,0.000000,0.150676,0,0,0,0,0,0,0
11,119999,89,110000,0,0,40,9999,0.100000,0,0,0.000000,6,0.000000,0.000000,0.615724,0,0,0,0,0,0,0
11,119999,90,110000,46,30000,40,9999,0.100000,0,0,0.000000,6,0.000000,0.000000,0.862023,0,0,0,0,0,0,0
11,119999,91,110000,84,10000,40,9999,0.100000,0,0,0.000000,6,0.000000,0.000000,0.860376,0,0,0,0,0,0,0
11,119999,92,110000,26,0,40,9999,0.100000,0,0,0.000000,6,0.000000,0.000000,2.796852,0,0,0,0,0,0,0
11,119999,93,110000,93,20000,40,9999,0.100000,0,0,0.000000,6,0.000000,0.000000,4.277993,0,0,0,0,0,0,0
11,119999,94,110000,46,30000,40,9999,0.100000,0,0,0.000000,6,0.000000,0.000000,0.617779,0,0,0,0,0,0,0
11,119999,95,110000,0,0,40,9999,0.100000,0,0,0.000000,6,0.000000,0.000000,1.068967,0,0,0,0,0,0,0
11,119999,96,110000,1,10000,40,9999,0.100000,0,0,0.000000,6,0.000000,0.000000,5.883335,0,0,0,0,0,0,0
11,119999,97,110000,0,0,40,9999,0.100000,0,0,0.000000,6,0.000000,0.000000,3.038838,0,0,0,0,0,0,0
11,119999,98,110000,0,0,40,9999,0.100000,0,0,0.000000,6,0.000000,0.000000,0.504640,0,0,0,0,0,0,0
11,119999,99,110000,84,10000,40,9999,0.100000,0,0,0.000000,6,0.000000,0.000000,0.300033,0,0,0,0,0,0,0
12,129999,0,120000,84,10000,40,9999,0.100000,0,0,0.000000,6,0.000000,0.000000,0.372004,0,0,0,0,0,0,0
12,129999,1,120000,1,10000,40,9999,0.100000,0,0,0.000000,6,0.000000,0.000000,2.742468,0,0,0,0,0,0,0
12,129999,2,120000,0,0,49,9999,0.100000,0,0,0.000000,6,1.000000,0.000000,4.988011,0,0,0,0,0,0,0
12,129999,3,120000,93,20000,40,9999,0.100000,0,0,0.000000,6,0.000000,0.000000,0.872291,0,0,0,0,0,0,0
12,129999,4,120000,84,10000,40,9999,0.100000,0,0,0.000000,6,0.000000,0.000000,0.422746,0,0,0,0,0,0,0
12,129999,5,120000,93,20000,40,9999,0.100000,0,0,0.000000,6,0.000000,0.000000,0.482475,0,0,0,0,0,0,0
12,129999,6,120000,1,10000,40,9999,0.065000,0,0,0.000000,6,0.000000,0.000000,1.310939,0,0,0,0,0,0,0
12,129999,7,120000,0,0,40,9999,0.100000,0,0,0.000000,6,0.000000,0.000000,0.240802,0,0,0,0,0,0,0
12,129999,8,120000,1,10000,49,9999,0.100000,0,0,0.000000,6,3.000000,0.000000,7.381788,0,0,0,0,0,0,0
12,129999,9,120000,0,0,40,9999,0.100000,0,0,0.000000,6,0.000000,0.000000,2.188970,0,0,0,0,0,0,0
12,129999,10,120000,1,10000,40,9999,0.100000,0,0,0.000000,6,0.000000,0.000000,0.381897,0,0,0,0,0,0,0
12,129999,11,120000,26,0,49,9999,0.100000,0,0,0.000000,6,8.000000,0.000000,11.984885,0,0,0,0,0,0,0
12,129999,12,120000,93,20000,40,9999,0.100000,0,0,0.000000,6,0.000000,0.000000,0.933360,0,0,0,0,0,0,0
12,129999,13,120000,84,10000,40,9999,0.100000,0,0,0.000000,6,0.000000,0.000000,0.542301,0,0,0,0,0,0,0
12,129999,14,120000,84,10000,40,9999,0.100000,0,0,0.000000,6,0.000000,0.000000,0.894265,0,0,0,0,0,0,0
12,129999,15,120000,46,30000,40,9999,0.100000,0,0,0.000000,6,0.000000,0.000000,4.591307,0,0,0,0,0,0,0
12,129999,16,120000,93,20000,40,9999,0.100000,0,0,0.000000,6,0.000000,0.000000,0.189418,0,0,0,0,0,0,0
12,129999,17,120000,93,20000,40,9999,0.100000,0,0,0.000000,6,0.000000,0.000000,1.076726,0,0,0,0,0,0,0
12,129999,18,120000,26,0,40,9999,0.100000,0,0,0.000000,6,0.000000,0.000000,2.767249,0,0,0,0,0,0,0
12,129999,19,120000,46,30000,40,9999,0.100000,0,0,0.000000,6,0.000000,0.000000,0.238740,0,0,0,0,0,0,0
12,129999,20,120000,1,10000,40,9999,0.100000,0,0,0.000000,6,0.000000,0.000000,0.120731,0,0,0,0,0,0,0
12,129999,21,120000,84,10000,40,9999,0.100000,0,0,0.000000,6,0.000000,0.000000,0.708175,0,0,0,0,0,0,0
12,129999,22,120000,93,20000,40,9999,0.100000,0,0,0.000000,6,0.000000,0.000000,0.207351,0,0,0,0,0,0,0
12,129999,23,120000,0,0,40,9999,0.100000,0,0,0.000000,6,0.000000,0.000000,2.242683,0,0,0,0,0,0,0
12,129999,24,120000,46,30000,40,9999,0.100000,0,0,0.000000,6,0.000000,0.000000,0.232125,0,0,0,0,0,0,0
12,129999,25,120000,0,0,40,9999,0.100000,0,0,0.000000,6,0.000000,0.000000,1.283353,0,0,0,0,0,0,0
12,129999,26,120000,26,0,40,9999,0.100000,0,0,0.000000,6,0.000000,0.000000,22.635185,0,0,0,0,0,0,0
12,129999,27,120000,84,10000,40,9999,0.100000,0,0,0.000000,6,0.000000,0.000000,0.231453,0,0,0,0,0,0,0
12,129999,28,120000,1,10000,49,9999,0.100000,0,0,0.000000,6,1.000000,0.000000,3.020920,0,0,0,0,0,0,0
12,129999,29,120000,93,20000,40,9999,0.100000,0,0,0.000000,6,0.000000,0.000000,0.191611,0,0,0,0,0,0,0
12,129999,30,120000,26,0,40,9999,0.100000,0,0,0.000000,6,0.000000,0.000000,3.425620,0,0,0,0,0,0,0
12,129999,31,120000,26,0,40,9999,0.100000,0,0,0.000000,6,0.000000,0.000000,0.925598,0,0,0,0,0,0,0
