generation,iteration,robot,birthday,ancestor_id,ancestor_birthday,cell_id,age,sigma,maps,genomes,fitness,cells_in_map,dist_max,dist_pot_max,dist_total,com_rx,com_tx,obj_group1,obj_group2,obj_group3,obj_group4,obj_group5
0,9999,0,0,0,0,41,9999,0.100000,99,0,0.000000,0,4.000000,22.906200,8.086129,99,99,0,0,0,0,0
0,9999,1,0,1,0,40,9999,0.100000,99,0,0.000000,0,0.000000,33.691560,4.000868,99,99,0,0,0,0,0
0,9999,2,0,2,0,40,9999,0.100000,99,0,0.000000,0,2.000000,30.256604,9.480747,99,99,0,0,0,0,0
0,9999,3,0,3,0,40,9999,0.100000,99,0,0.000000,0,0.000000,21.947385,5.328921,99,99,0,0,0,0,0
0,9999,4,0,4,0,40,9999,0.100000,99,0,0.000000,0,1.000000,26.643617,8.245164,99,99,0,0,0,0,0
0,9999,5,0,5,0,42,9999,0.100000,99,0,38.145127,0,6.000000,22.020815,9.442141,99,99,1,0,0,1,0
0,9999,6,0,6,0,40,9999,0.100000,99,0,0.000000,0,0.000000,25.044268,2.894240,99,99,0,0,0,0,0
0,9999,7,0,7,0,0,9999,0.100000,99,0,0.271670,0,0.000000,16.545991,0.674701,99,99,0,0,0,1,0
0,9999,8,0,8,0,0,9999,0.100000,99,0,19.704533,0,3.000000,29.946178,11.141982,99,99,0,1,0,0,0
0,9999,9,0,9,0,40,9999,0.100000,99,0,0.000000,0,1.000000,23.758644,5.977394,99,99,0,0,0,0,0
0,9999,10,0,10,0,40,9999,0.100000,99,0,0.000000,0,3.000000,28.988944,3.697950,99,99,0,0,0,0,0
0,9999,11,0,11,0,41,9999,0.100000,99,0,0.000000,0,4.000000,20.421612,9.356135,99,99,0,0,0,0,0
0,9999,12,0,12,0,0,9999,0.100000,99,0,0.523643,0,0.000000,23.473307,0.300487,99,99,0,0,0,0,1
0,9999,13,0,13,0,41,9999,0.100000,99,0,0.000000,0,2.000000,17.357309,15.554867,99,99,0,0,0,0,0
0,9999,14,0,14,0,40,9999,0.100000,99,0,0.000000,0,0.000000,28.640011,8.768434,99,99,0,0,0,0,0
0,9999,15,0,15,0,40,9999,0.100000,99,0,0.000000,0,0.000000,17.034913,17.736982,99,99,0,0,0,0,0
0,9999,16,0,16,0,0,9999,0.100000,99,0,0.004162,0,1.000000,27.679932,2.557609,99,99,0,0,0,0,1
0,9999,17,0,17,0,40,9999,0.100000,99,0,0.000000,0,0.000000,22.210242,6.711145,99,99,0,0,0,0,0
0,9999,18,0,18,0,0,9999,0.100000,99,0,0.032579,0,2.000000,24.202112,6.544731,99,99,0,0,0,1,0
0,9999,19,0,19,0,40,9999,0.100000,99,0,0.000000,0,0.000000,25.530937,1.658176,99,99,0,0,0,0,0
0,9999,20,0,20,0,40,9999,0.100000,99,0,0.000000,0,1.000000,30.718349,11.404718,99,99,0,0,0,0,0
0,9999,21,0,21,0,40,9999,0.100000,99,0,0.000000,0,1.000000,21.859595,4.470323,99,99,0,0,0,0,0
0,9999,22,0,22,0,40,9999,0.100000,99,0,0.000000,0,0.000000,24.988329,16.803348,99,99,0,0,0,0,0
0,9999,23,0,23,0,40,9999,0.100000,99,0,0.000000,0,0.000000,20.239629,1.400386,99,99,0,0,0,0,0
0,9999,24,0,24,0,40,9999,0.100000,99,0,0.000000,0,0.000000,27.982492,0.583588,99,99,0,0,0,0,0
0,9999,25,0,25,0,1,9999,0.100000,99,0,8.077524,0,4.000000,30.155645,15.899989,99,99,0,0,1,0,0
0,9999,26,0,26,0,41,9999,0.100000,99,0,0.000000,0,2.000000,15.028917,5.695677,99,99,0,0,0,0,0
0,9999,27,0,27,0,0,9999,0.100000,99,0,1.653987,0,1.000000,31.646247,3.610430,99,99,0,0,0,1,0
0,9999,28,0,28,0,41,9999,0.100000,99,0,0.000000,0,4.000000,21.681181,8.377321,99,99,0,0,0,0,0
0,9999,29,0,29,0,41,9999,0.100000,99,0,0.000000,0,4.000000,27.442763,7.148665,99,99,0,0,0,0,0
0,9999,30,0,30,0,41,9999,0.100000,99,0,0.000000,0,2.000000,16.407027,16.128239,99,99,0,0,0,0,0
0,9999,31,0,31,0,94,9999,0.100000,99,0,68.819435,0,13.000000,25.212166,20.402455,99,99,1,0,0,0,0
0,9999,32,0,32,0,0,9999,0.100000,99,0,4.263880,0,1.000000,31.048753,3.769586,99,99,0,0,0,1,0
0,9999,33,0,33,0,1,9999,0.100000,99,0,0.069231,0,2.000000,16.688796,7.934078,99,99,0,0,1,0,0
0,9999,34,0,34,0,40,9999,0.100000,99,0,0.000000,0,0.000000,27.560182,0.672496,99,99,0,0,0,0,0
0,9999,35,0,35,0,40,9999,0.100000,99,0,0.000000,0,2.000000,25.454773,9.437590,99,99,0,0,0,0,0
0,9999,36,0,36,0,40,9999,0.100000,99,0,0.000000,0,1.000000,26.524527,6.774751,99,99,0,0,0,0,0
0,9999,37,0,37,0,41,9999,0.100000,99,0,0.000000,0,4.000000,22.664912,8.931385,99,99,0,0,0,0,0
0,9999,38,0,38,0,0,9999,0.100000,99,0,0.212977,0,1.000000,27.348775,1.737365,99,99,0,0,1,0,0
0,9999,39,0,39,0,0,9999,0.100000,99,0,0.443252,0,1.000000,25.195394,4.422656,99,99,0,0,0,0,1
0,9999,40,0,40,0,40,9999,0.100000,99,0,0.000000,0,2.000000,19.544108,8.822145,99,99,0,0,0,0,0
0,9999,41,0,41,0,41,9999,0.100000,99,0,0.000000,0,6.000000,30.728000,27.636420,99,99,0,0,0,0,0
0,9999,42,0,42,0,42,9999,0.100000,99,0,0.000000,0,7.000000,22.952220,12.394897,99,99,0,0,0,0,0
0,9999,43,0,43,0,40,9999,0.100000,99,0,0.000000,0,2.000000,30.235859,6.712076,99,99,0,0,0,0,0
0,9999,44,0,44,0,40,9999,0.100000,99,0,0.000000,0,0.000000,29.516660,5.784970,99,99,0,0,0,0,0
0,9999,45,0,45,0,40,9999,0.100000,99,0,0.000000,0,1.000000,21.360018,8.637392,99,99,0,0,0,0,0
0,9999,46,0,46,0,0,9999,0.100000,99,0,2.131622,0,1.000000,28.611824,1.862915,99,99,0,0,1,0,0
0,9999,47,0,47,0,0,9999,0.100000,99,0,0.000743,0,1.000000,22.419742,2.911029,99,99,0,0,0,0,1
0,9999,48,0,48,0,40,9999,0.100000,99,0,0.000000,0,1.000000,28.353474,8.905452,99,99,0,0,0,0,0
0,9999,49,0,49,0,40,9999,0.100000,99,0,0.000000,0,1.000000,18.036168,3.738335,99,99,0,0,0,0,0
0,9999,50,0,50,0,40,9999,0.100000,99,0,0.000000,0,1.000000,28.004999,3.781208,99,99,0,0,0,0,0
0,9999,51,0,51,0,41,9999,0.100000,99,0,0.000000,0,5.000000,30.099751,12.204935,99,99,0,0,0,0,0
0,9999,52,0,52,0,40,9999,0.100000,99,0,0.000000,0,1.000000,20.151355,4.894767,99,99,0,0,0,0,0
0,9999,53,0,53,0,40,9999,0.100000,99,0,0.000000,0,1.000000,32.157843,5.028396,99,99,0,0,0,0,0
0,9999,54,0,54,0,40,9999,0.100000,99,0,0.000000,0,2.000000,21.269871,9.052185,99,99,0,0,0,0,0
0,9999,55,0,55,0,41,9999,0.100000,99,0,0.000000,0,4.000000,24.453373,9.044346,99,99,0,0,0,0,0
0,9999,56,0,56,0,0,9999,0.100000,99,0,0.000364,0,0.000000,16.082762,0.608598,99,99,0,0,0,1,0
0,9999,57,0,57,0,0,9999,0.100000,99,0,0.225698,0,0.000000,23.184840,1.037345,99,99,0,0,1,0,0
0,9999,58,0,58,0,0,9999,0.100000,99,0,1.899240,0,1.000000,27.951323,2.458832,99,99,0,1,0,0,0
0,9999,59,0,59,0,40,9999,0.100000,99,0,0.000000,0,1.000000,14.925444,11.846294,99,99,0,0,0,0,0
0,9999,60,0,60,0,40,9999,0.100000,99,0,0.000000,0,0.000000,30.112186,4.648728,99,99,0,0,0,0,0
0,9999,61,0,61,0,40,9999,0.100000,99,0,0.000000,0,1.000000,15.728002,15.412747,99,99,0,0,0,0,0
0,9999,62,0,62,0,0,9999,0.100000,99,0,1.254096,0,1.000000,30.552615,8.132677,99,99,0,1,0,0,0
0,9999,63,0,63,0,42,9999,0.100000,99,0,37.966497,0,7.000000,23.287964,12.857773,99,99,1,0,0,0,1
0,9999,64,0,64,0,40,9999,0.100000,99,0,0.000000,0,1.000000,26.719450,4.993839,99,99,0,0,0,0,0
0,9999,65,0,65,0,40,9999,0.100000,99,0,0.000000,0,2.000000,25.922625,10.493524,99,99,0,0,0,0,0
0,9999,66,0,66,0,40,9999,0.100000,99,0,0.000000,0,1.000000,27.857211,8.983379,99,99,0,0,0,0,0
0,9999,67,0,67,0,0,9999,0.100000,99,0,0.667846,0,0.000000,18.772685,2.476996,99,99,0,1,0,0,0
0,9999,68,0,68,0,40,9999,0.100000,99,0,0.000000,0,1.000000,30.602184,7.221274,99,99,0,0,0,0,0
0,9999,69,0,69,0,40,9999,0.100000,99,0,0.000000,0,2.000000,28.529976,8.588205,99,99,0,0,0,0,0
0,9999,70,0,70,0,40,9999,0.100000,99,0,0.000000,0,2.000000,25.118201,10.557953,99,99,0,0,0,0,0
0,9999,71,0,71,0,40,9999,0.100000,99,0,0.000000,0,1.000000,29.327959,9.830712,99,99,0,0,0,0,0
0,9999,72,0,72,0,40,9999,0.100000,99,0,0.000000,0,1.000000,20.530432,3.589345,99,99,0,0,0,0,0
0,9999,73,0,73,0,40,9999,0.100000,99,0,0.000000,0,1.000000,23.148764,5.702162,99,99,0,0,0,0,0
0,9999,74,0,74,0,0,9999,0.100000,99,0,0.023358,0,1.000000,18.709191,2.104627,99,99,0,1,0,0,0
0,9999,75,0,75,0,41,9999,0.100000,99,0,0.000000,0,4.000000,30.700242,12.449863,99,99,0,0,0,0,0
0,9999,76,0,76,0,40,9999,0.100000,99,0,0.000000,0,1.000000,16.700746,3.979291,99,99,0,0,0,0,0
0,9999,77,0,77,0,1,9999,0.100000,99,0,4.719273,0,2.000000,18.784646,7.643418,99,99,0,1,0,0,0
0,9999,78,0,78,0,40,9999,0.100000,99,0,0.000000,0,1.000000,23.908990,10.050660,99,99,0,0,0,0,0
0,9999,79,0,79,0,41,9999,0.100000,99,0,0.000000,0,3.000000,14.560702,9.067667,99,99,0,0,0,0,0
0,9999,80,0,80,0,40,9999,0.100000,99,0,0.000000,0,1.000000,31.275808,3.949834,99,99,0,0,0,0,0
0,9999,81,0,81,0,0,9999,0.100000,99,0,0.107028,0,0.000000,25.802848,1.469630,99,99,0,0,0,1,0
0,9999,82,0,82,0,0,9999,0.100000,99,0,0.625231,0,1.000000,20.466136,1.502667,99,99,0,0,0,0,1
0,9999,83,0,83,0,41,9999,0.100000,99,0,0.000000,0,4.000000,28.748867,13.894152,99,99,0,0,0,0,0
0,9999,84,0,84,0,40,9999,0.100000,99,0,0.000000,0,1.000000,25.641611,4.923401,99,99,0,0,0,0,0
0,9999,85,0,85,0,46,9999,0.100000,99,0,0.000000,0,9.000000,13.330165,15.950960,99,99,0,0,0,0,0
0,9999,86,0,86,0,0,9999,0.100000,99,0,1.257656,0,3.000000,30.278067,6.412953,99,99,0,0,1,0,0
0,9999,87,0,87,0,40,9999,0.100000,99,0,0.000000,0,2.000000,33.482760,3.371175,99,99,0,0,0,0,0
0,9999,88,0,88,0,40,9999,0.100000,99,0,0.000000,0,2.000000,28.245548,4.987581,99,99,0,0,0,0,0
0,9999,89,0,89,0,0,9999,0.100000,99,0,9.225686,0,1.000000,20.720075,3.342734,99,99,0,1,0,0,0
0,9999,90,0,90,0,40,9999,0.100000,99,0,0.000000,0,1.000000,25.121177,8.996318,99,99,0,0,0,0,0
0,9999,91,0,91,0,40,9999,0.100000,99,0,0.000000,0,1.000000,28.785633,3.897022,99,99,0,0,0,0,0
0,9999,92,0,92,0,1,9999,0.100000,99,0,24.890841,0,3.000000,21.030866,10.998906,99,99,0,1,0,0,0
0,9999,93,0,93,0,0,9999,0.100000,99,0,0.002670,0,0.000000,14.326662,0.688985,99,99,0,0,0,1,0
0,9999,94,0,94,0,40,9999,0.100000,99,0,0.000000,0,1.000000,18.631338,5.044618,99,99,0,0,0,0,0
0,9999,95,0,95,0,0,9999,0.100000,99,0,0.429117,0,2.000000,24.458561,3.510480,99,99,0,1,0,0,0
0,9999,96,0,96,0,40,9999,0.100000,99,0,0.000000,0,1.000000,20.231813,5.657406,99,99,0,0,0,0,0
0,9999,97,0,97,0,94,9999,0.100000,99,0,48.392091,0,10.000000,19.763708,15.900034,99,99,1,0,0,0,0
0,9999,98,0,98,0,41,9999,0.100000,99,0,0.000000,0,3.000000,16.350590,13.644193,99,99,0,0,0,0,0
0,9999,99,0,99,0,40,9999,0.100000,99,0,0.000000,0,1.000000,26.397561,4.829380,99,99,0,0,0,0,0
1,19999,0,10000,0,0,40,9999,0.100000,99,0,0.000000,1,1.000000,26.497151,1.460508,99,99,0,0,0,0,0
1,19999,1,10000,0,0,0,9999,0.100000,99,0,0.207449,2,2.000000,33.711757,8.820821,99,99,0,0,0,1,0
1,19999,2,10000,0,0,40,9999,0.100000,99,0,0.000000,6,2.000000,30.609387,12.364377,99,99,0,0,0,0,0
1,19999,3,10000,81,0,40,9999,0.100000,99,0,0.000000,3,0.000000,22.167903,4.217446,99,99,0,0,0,0,0
1,19999,4,10000,30,0,40,9999,0.100000,99,0,0.000000,6,0.000000,26.774278,1.176939,99,99,0,0,0,0,0
1,19999,5,10000,1,0,0,9999,0.100000,99,0,3.276759,6,0.000000,26.918667,0.997622,99,99,0,0,0,1,0
1,19999,6,10000,1,0,40,9999,0.100000,99,0,0.000000,6,0.000000,24.536835,0.530031,99,99,0,0,0,0,0
1,19999,7,10000,42,0,40,9999,0.100000,99,0,0.000000,6,0.000000,16.547402,0.869252,99,99,0,0,0,0,0
1,19999,8,10000,63,0,1,9999,0.100000,99,0,22.750886,6,4.000000,31.187724,4.719831,99,99,0,1,0,0,0
1,19999,9,10000,0,0,0,9999,0.100000,99,0,1.021757,3,0.000000,23.690057,0.249042,99,99,0,0,0,0,1
1,19999,10,10000,81,0,40,9999,0.100000,99,0,0.000000,3,1.000000,26.858063,1.161380,99,99,0,0,0,0,0
1,19999,11,10000,0,0,1,9999,0.100000,99,0,0.058355,4,2.000000,18.123665,8.703927,99,99,0,0,0,1,0
1,19999,12,10000,1,0,40,9999,0.100000,99,0,0.000000,7,0.000000,23.460040,0.437294,99,99,0,0,0,0,0
1,19999,13,10000,85,0,40,9999,0.100000,99,0,0.000000,7,0.000000,17.720705,15.332646,99,99,0,0,0,0,0
1,19999,14,10000,81,0,40,9999,0.100000,99,0,0.000000,3,0.000000,29.253961,4.297787,99,99,0,0,0,0,0
1,19999,15,10000,92,0,40,9999,0.100000,99,0,0.000000,7,1.000000,17.130675,13.476629,99,99,0,0,0,0,0
1,19999,16,10000,1,0,0,9999,0.100000,99,0,0.004256,6,0.000000,27.867720,0.088791,99,99,0,0,0,0,1
1,19999,17,10000,8,0,40,9999,0.100000,99,0,0.000000,7,0.000000,22.291501,5.821842,99,99,0,0,0,0,0
1,19999,18,10000,0,0,0,9999,0.100000,99,0,0.838166,3,0.000000,26.411322,0.376535,99,99,0,0,0,1,0
1,19999,19,10000,30,0,40,9999,0.100000,99,0,0.000000,6,0.000000,25.031120,0.307938,99,99,0,0,0,0,0
1,19999,20,10000,26,0,40,9999,0.100000,99,0,0.000000,6,1.000000,31.611531,5.831709,99,99,0,0,0,0,0
1,19999,21,10000,5,0,40,9999,0.100000,99,0,0.000000,6,2.000000,22.806580,17.801468,99,99,0,0,0,0,0
1,19999,22,10000,26,0,41,9999,0.100000,99,0,0.000000,7,3.000000,24.461100,14.234399,99,99,0,0,0,0,0
1,19999,23,10000,8,0,40,9999,0.100000,99,0,0.000000,6,0.000000,20.453116,0.395351,99,99,0,0,0,0,0
1,19999,24,10000,1,0,42,9999,0.100000,99,0,0.000000,4,7.000000,27.961343,16.896073,99,99,0,0,0,0,0
1,19999,25,10000,85,0,0,9999,0.100000,99,0,1.432380,7,0.000000,26.232623,0.879761,99,99,0,0,1,0,0
1,19999,26,10000,63,0,40,9999,0.100000,99,0,0.000000,6,1.000000,17.122350,5.617487,99,99,0,0,0,0,0
1,19999,27,10000,0,0,40,9999,0.100000,99,0,0.000000,4,2.000000,31.656044,10.246316,99,99,0,0,0,0,0
1,19999,28,10000,1,0,1,9999,0.100000,99,0,0.005676,7,3.000000,21.379449,3.837112,99,99,0,0,1,0,0
1,19999,29,10000,92,0,41,9999,0.100000,99,0,0.000000,6,4.000000,30.984701,4.786527,99,99,0,0,0,0,0
1,19999,30,10000,63,0,41,9999,0.100000,99,0,0.000000,6,2.000000,17.129412,11.698946,99,99,0,0,0,0,0
1,19999,31,10000,8,0,40,9999,0.100000,99,0,0.000000,7,2.000000,31.824076,6.864530,99,99,0,0,0,0,0
1,19999,32,10000,26,0,0,9999,0.100000,99,0,1.081112,7,0.000000,32.063937,0.314071,99,99,0,0,0,1,0
1,19999,33,10000,5,0,1,9999,0.100000,99,0,13.289107,7,2.000000,18.328003,3.026756,99,99,0,0,1,0,0
1,19999,34,0,34,0,40,19999,0.100000,99,0,0.000000,4,0.000000,27.238422,0.077615,99,99,0,0,0,0,0
1,19999,35,10000,26,0,41,9999,0.100000,99,0,0.000000,7,3.000000,27.221301,9.220860,99,99,0,0,0,0,0
1,19999,36,10000,18,0,40,9999,0.100000,99,0,0.000000,3,1.000000,26.730575,23.184873,99,99,0,0,0,0,0
1,19999,37,10000,92,0,40,9999,0.100000,99,0,0.000000,7,1.000000,20.599944,20.647314,99,99,0,0,0,0,0
1,19999,38,10000,31,0,0,9999,0.100000,99,0,0.018071,7,0.000000,26.216971,0.715403,99,99,0,0,1,0,0
1,19999,39,10000,0,0,0,9999,0.100000,99,0,0.007313,4,0.000000,24.343229,0.895350,99,99,0,0,0,0,1
1,19999,40,10000,1,0,40,9999,0.100000,99,0,0.000000,6,0.000000,21.739908,1.248893,99,99,0,0,0,0,0
1,19999,41,10000,31,0,0,9999,0.100000,99,0,0.000083,7,1.000000,29.654576,4.210019,99,99,0,0,0,0,1
1,19999,42,10000,27,0,40,9999,0.100000,99,0,0.000000,5,0.000000,21.190368,2.326302,99,99,0,0,0,0,0
1,19999,43,10000,31,0,40,9999,0.100000,99,0,0.000000,7,0.000000,28.454842,0.768064,99,99,0,0,0,0,0
1,19999,44,10000,1,0,0,9999,0.100000,99,0,0.246357,3,0.000000,29.153985,0.307091,99,99,0,0,1,0,0
1,19999,45,10000,85,0,40,9999,0.100000,99,0,0.000000,7,2.000000,20.910699,12.110470,99,99,0,0,0,0,0
1,19999,46,10000,8,0,40,9999,0.100000,99,0,0.000000,6,0.000000,28.580117,0.572813,99,99,0,0,0,0,0
1,19999,47,10000,8,0,0,9999,0.100000,99,0,0.002406,6,0.000000,21.157939,0.091661,99,99,0,0,0,0,1
1,19999,48,10000,42,0,40,9999,0.100000,99,0,0.000000,6,0.000000,28.844113,4.862425,99,99,0,0,0,0,0
1,19999,49,10000,1,0,40,9999,0.100000,99,0,0.000000,5,0.000000,16.440308,1.618772,99,99,0,0,0,0,0
1,19999,50,10000,1,0,40,9999,0.100000,99,0,0.000000,7,0.000000,26.428273,1.419242,99,99,0,0,0,0,0
1,19999,51,10000,42,0,40,9999,0.100000,99,0,0.000000,6,0.000000,30.271647,4.163826,99,99,0,0,0,0,0
1,19999,52,10000,1,0,40,9999,0.100000,99,0,0.000000,6,0.000000,21.218541,7.747622,99,99,0,0,0,0,0
1,19999,53,10000,31,0,40,9999,0.100000,99,0,0.000000,7,1.000000,30.856018,7.653555,99,99,0,0,0,0,0
1,19999,54,10000,18,0,40,9999,0.100000,99,0,0.000000,3,0.000000,19.916389,12.495179,99,99,0,0,0,0,0
1,19999,55,10000,42,0,0,9999,0.100000,99,0,0.000487,6,0.000000,27.118068,0.099038,99,99,0,0,0,0,1
1,19999,56,10000,31,0,0,9999,0.100000,99,0,0.104574,7,1.000000,15.952659,1.987510,99,99,0,0,0,1,0
1,19999,57,10000,30,0,0,9999,0.100000,99,0,3.607501,6,0.000000,22.918201,0.762066,99,99,0,0,1,0,0
1,19999,58,10000,8,0,0,9999,0.100000,99,0,0.929026,6,0.000000,27.461188,0.954806,99,99,0,1,0,0,0
1,19999,59,10000,42,0,40,9999,0.100000,99,0,0.000000,5,0.000000,16.599896,7.181293,99,99,0,0,0,0,0
1,19999,60,0,60,0,40,19999,0.100000,99,0,0.000000,3,0.000000,30.793183,1.009080,99,99,0,0,0,0,0
1,19999,61,10000,92,0,43,9999,0.100000,99,0,0.000000,7,5.000000,14.835366,18.125862,99,99,0,0,0,0,0
1,19999,62,10000,8,0,0,9999,0.100000,99,0,0.158061,7,0.000000,30.086011,0.152039,99,99,0,1,0,0,0
1,19999,63,10000,63,0,0,9999,0.100000,99,0,0.359572,5,0.000000,28.559233,0.134595,99,99,0,0,0,0,1
1,19999,64,10000,0,0,40,9999,0.100000,99,0,0.000000,3,2.000000,25.839457,6.442783,99,99,0,0,0,0,0
1,19999,65,10000,8,0,40,9999,0.100000,99,0,0.000000,7,1.000000,28.019710,12.384357,99,99,0,0,0,0,0
1,19999,66,10000,8,0,40,9999,0.100000,99,0,0.000000,6,0.000000,27.068398,1.416732,99,99,0,0,0,0,0
1,19999,67,10000,42,0,0,9999,0.100000,99,0,0.098534,6,0.000000,18.098536,0.150842,99,99,0,1,0,0,0
1,19999,68,10000,0,0,40,9999,0.100000,99,0,0.000000,3,0.000000,32.041825,0.026374,99,99,0,0,0,0,0
1,19999,69,10000,8,0,40,9999,0.100000,99,0,0.000000,7,1.000000,27.158333,7.651320,99,99,0,0,0,0,0
1,19999,70,10000,63,0,40,9999,0.100000,99,0,0.000000,5,0.000000,24.171340,0.761481,99,99,0,0,0,0,0
1,19999,71,10000,1,0,40,9999,0.100000,99,0,0.000000,7,3.000000,30.211211,7.837235,99,99,0,0,0,0,0
1,19999,72,10000,42,0,40,9999,0.100000,99,0,0.000000,6,1.000000,19.945079,3.319412,99,99,0,0,0,0,0
1,19999,73,10000,63,0,40,9999,0.100000,99,0,0.000000,6,0.000000,24.319262,5.200994,99,99,0,0,0,0,0
1,19999,74,10000,1,0,0,9999,0.100000,99,0,0.022241,7,0.000000,19.262458,0.140956,99,99,0,1,0,0,0
1,19999,75,10000,5,0,41,9999,0.100000,99,0,0.000000,7,4.000000,29.654852,17.588873,99,99,0,0,0,0,0
1,19999,76,10000,92,0,41,9999,0.100000,99,0,0.000000,7,2.000000,18.062829,2.945016,99,99,0,0,0,0,0
1,19999,77,10000,0,0,0,9999,0.100000,99,0,0.005489,6,0.000000,17.193445,0.238801,99,99,0,1,0,0,0
1,19999,78,10000,1,0,40,9999,0.100000,99,0,0.000000,3,1.000000,22.510287,5.533555,99,99,0,0,0,0,0
1,19999,79,10000,63,0,40,9999,0.100000,99,0,0.000000,6,1.000000,10.819514,1.775683,99,99,0,0,0,0,0
1,19999,80,10000,92,0,40,9999,0.100000,99,0,0.000000,7,0.000000,32.255443,0.521580,99,99,0,0,0,0,0
1,19999,81,10000,81,0,0,9999,0.100000,99,0,0.486582,3,0.000000,25.337805,0.820616,99,99,0,0,0,1,0
1,19999,82,10000,42,0,0,9999,0.100000,99,0,1.002968,6,0.000000,21.387464,0.321279,99,99,0,0,0,0,1
1,19999,83,10000,42,0,40,9999,0.100000,99,0,0.000000,6,0.000000,31.630680,1.167686,99,99,0,0,0,0,0
1,19999,84,10000,0,0,40,9999,0.100000,99,0,0.000000,3,0.000000,25.826294,0.173688,99,99,0,0,0,0,0
1,19999,85,10000,26,0,1,9999,0.100000,99,0,16.607842,6,3.000000,22.129496,3.422468,99,99,0,1,0,0,0
1,19999,86,10000,63,0,41,9999,0.100000,99,0,0.000000,6,4.000000,27.195452,9.871941,99,99,0,0,0,0,0
1,19999,87,10000,63,0,0,9999,0.100000,99,0,0.000000,6,1.000000,33.664825,1.487052,99,99,0,0,0,1,0
1,19999,88,10000,85,0,0,9999,0.100000,99,0,0.746113,6,0.000000,26.630020,0.651913,99,99,0,0,1,0,0
1,19999,89,10000,31,0,0,9999,0.100000,99,0,2.196786,7,0.000000,21.805301,0.880904,99,99,0,1,0,0,0
1,19999,90,10000,63,0,43,9999,0.100000,99,0,0.000000,6,10.000000,25.924354,20.716574,99,99,0,0,0,0,0
1,19999,91,10000,92,0,40,9999,0.100000,99,0,0.000000,6,1.000000,27.352521,23.527598,99,99,0,0,0,0,0
1,19999,92,10000,1,0,41,9999,0.100000,99,0,0.000000,6,3.000000,22.020028,3.478280,99,99,0,0,0,0,0
1,19999,93,10000,1,0,0,9999,0.100000,99,0,0.005145,7,0.000000,14.227464,0.135803,99,99,0,0,0,1,0
1,19999,94,10000,8,0,40,9999,0.100000,99,0,0.000000,7,1.000000,19.354086,9.500377,99,99,0,0,0,0,0
1,19999,95,10000,8,0,0,9999,0.100000,99,0,0.610424,6,0.000000,26.587989,0.160318,99,99,0,1,0,0,0
1,19999,96,10000,92,0,40,9999,0.100000,99,0,0.000000,6,1.000000,21.549799,10.156906,99,99,0,0,0,0,0
1,19999,97,10000,26,0,40,9999,0.100000,99,0,0.000000,7,0.000000,28.638638,5.059021,99,99,0,0,0,0,0
1,19999,98,10000,85,0,41,9999,0.100000,99,0,0.000000,7,2.000000,18.463664,3.376308,99,99,0,0,0,0,0
1,19999,99,10000,8,0,40,9999,0.100000,99,0,0.000000,6,1.000000,28.109434,8.151418,99,99,0,0,0,0,0
2,29999,0,20000,92,0,40,9999,0.100000,99,0,0.000000,7,1.000000,25.340740,1.326631,99,99,0,0,0,0,0
2,29999,1,20000,1,0,0,9999,0.100000,99,0,0.099906,7,0.000000,33.068355,0.100519,99,99,0,0,0,1,0
2,29999,2,20000,85,0,41,9999,0.100000,99,0,0.000000,7,4.000000,30.645307,7.897707,99,99,0,0,0,0,0
2,29999,3,20000,85,0,43,9999,0.100000,99,0,0.000000,7,9.000000,22.357150,16.524016,99,99,0,0,0,0,0
2,29999,4,20000,1,0,0,9999,0.100000,99,0,1.208269,7,0.000000,25.919587,1.703364,99,99,0,0,1,0,0
2,29999,5,20000,85,0,0,9999,0.100000,99,0,0.720442,7,0.000000,26.192442,1.136070,99,99,0,0,0,1,0
2,29999,6,20000,5,0,40,9999,0.100000,99,0,0.000000,7,0.000000,24.578295,0.482742,99,99,0,0,0,0,0
2,29999,7,20000,28,0,0,9999,0.100000,99,0,0.420042,7,0.000000,16.730964,0.808302,99,99,0,0,0,1,0
2,29999,8,20000,31,0,40,9999,0.100000,99,0,0.000000,7,0.000000,34.355990,4.901643,99,99,0,0,0,0,0
2,29999,9,20000,5,0,0,9999,0.100000,99,0,0.876652,7,0.000000,23.748534,0.235153,99,99,0,0,0,0,1
2,29999,10,20000,1,0,0,9999,0.100000,99,0,1.119438,7,0.000000,25.912816,0.986989,99,99,0,0,0,1,0
2,29999,11,20000,5,0,40,9999,0.100000,99,0,0.000000,7,0.000000,16.671705,0.276632,99,99,0,0,0,0,0
2,29999,12,20000,1,0,40,9999,0.100000,99,0,0.000000,7,0.000000,23.529280,0.530915,99,99,0,0,0,0,0
2,29999,13,20000,28,0,1,9999,0.100000,99,0,0.764454,7,2.000000,17.827851,15.850109,99,99,0,1,0,0,0
2,29999,14,20000,31,0,91,9999,0.100000,99,0,24.948340,7,6.000000,28.667868,27.766543,99,99,1,0,0,0,0
2,29999,15,20000,85,0,40,9999,0.100000,99,0,0.000000,7,1.000000,17.431279,21.824699,99,99,0,0,0,0,0
2,29999,16,20000,28,0,0,9999,0.100000,99,0,0.012960,7,0.000000,27.868549,0.090256,99,99,0,0,0,0,1
2,29999,17,20000,8,0,40,9999,0.100000,99,0,0.000000,7,2.000000,22.648649,7.683197,99,99,0,0,0,0,0
2,29999,18,20000,92,0,0,9999,0.100000,99,0,0.001726,7,0.000000,26.606621,0.095728,99,99,0,0,0,1,0
2,29999,19,20000,5,0,40,9999,0.100000,99,0,0.000000,7,0.000000,25.067395,0.302096,99,99,0,0,0,0,0
2,29999,20,20000,31,0,40,9999,0.100000,99,0,0.000000,7,1.000000,31.257528,4.739260,99,99,0,0,0,0,0
2,29999,21,20000,85,0,40,9999,0.100000,99,0,0.000000,7,0.000000,23.478465,2.180563,99,99,0,0,0,0,0
2,29999,22,20000,31,0,40,9999,0.100000,99,0,0.000000,7,1.000000,28.019699,6.254983,99,99,0,0,0,0,0
2,29999,23,20000,90,10000,40,9999,0.100000,99,0,0.000000,7,0.000000,20.462281,0.431223,99,99,0,0,0,0,0
2,29999,24,20000,85,0,0,9999,0.100000,99,0,0.031163,7,0.000000,27.790670,0.176156,99,99,0,0,0,0,1
2,29999,25,20000,8,0,0,9999,0.100000,99,0,0.802994,7,0.000000,26.203033,0.238459,99,99,0,0,1,0,0
2,29999,26,20000,92,0,41,9999,0.100000,99,0,0.000000,7,2.000000,17.714459,2.823433,99,99,0,0,0,0,0
2,29999,27,20000,1,0,40,9999,0.100000,99,0,0.000000,7,0.000000,32.663006,0.509244,99,99,0,0,0,0,0
2,29999,28,20000,1,0,0,9999,0.100000,99,0,0.282528,7,0.000000,21.362929,0.171444,99,99,0,0,1,0,0
2,29999,29,20000,29,10000,0,9999,0.100000,99,0,0.214511,7,0.000000,34.203970,4.925313,99,99,0,1,0,0,0
2,29999,30,20000,5,0,40,9999,0.100000,99,0,0.000000,7,1.000000,15.611358,5.915137,99,99,0,0,0,0,0
2,29999,31,20000,31,0,0,9999,0.100000,99,0,0.005556,7,1.000000,30.100883,4.709869,99,99,0,0,0,0,1
2,29999,32,20000,28,0,40,9999,0.100000,99,0,0.000000,7,0.000000,32.343969,0.155006,99,99,0,0,0,0,0
2,29999,33,20000,92,0,3,9999,0.100000,99,0,5.254547,7,7.000000,17.822748,15.247946,99,99,0,0,1,0,0
2,29999,34,20000,28,0,40,9999,0.100000,99,0,0.000000,7,0.000000,27.239992,0.078435,99,99,0,0,0,0,0
2,29999,35,20000,8,0,40,9999,0.100000,99,0,0.000000,7,2.000000,30.677961,7.747004,99,99,0,0,0,0,0
2,29999,36,20000,8,0,40,9999,0.100000,99,0,0.000000,7,1.000000,25.895532,3.793575,99,99,0,0,0,0,0
2,29999,37,20000,31,0,0,9999,0.100000,99,0,3.807924,7,1.000000,21.820780,17.899151,99,99,0,1,0,0,0
2,29999,38,20000,28,0,0,9999,0.100000,99,0,0.000479,7,0.000000,25.825866,0.740618,99,99,0,0,1,0,0
2,29999,39,20000,5,0,0,9999,0.100000,99,0,0.047891,7,0.000000,24.197468,0.322219,99,99,0,0,0,0,1
2,29999,40,20000,8,0,40,9999,0.100000,99,0,0.000000,7,1.000000,22.089871,7.757047,99,99,0,0,0,0,0
2,29999,41,20000,5,0,40,9999,0.100000,99,0,0.000000,7,0.000000,29.821733,0.089963,99,99,0,0,0,0,0
2,29999,42,20000,8,0,41,9999,0.100000,99,0,0.000000,7,3.000000,21.397145,5.693210,99,99,0,0,0,0,0
2,29999,43,20000,5,0,40,9999,0.100000,99,0,0.000000,7,0.000000,28.640752,3.108073,99,99,0,0,0,0,0
2,29999,44,20000,92,0,40,9999,0.100000,99,0,0.000000,7,0.000000,29.338475,0.845277,99,99,0,0,0,0,0
2,29999,45,20000,85,0,41,9999,0.100000,99,0,0.000000,7,2.000000,18.934857,19.671493,99,99,0,0,0,0,0
2,29999,46,20000,1,0,0,9999,0.100000,99,0,3.617543,7,0.000000,28.766897,1.169229,99,99,0,0,1,0,0
2,29999,47,20000,8,0,0,9999,0.100000,99,0,0.001462,7,0.000000,21.155802,0.090740,99,99,0,0,0,0,1
2,29999,48,20000,92,0,40,9999,0.100000,99,0,0.000000,7,2.000000,28.011004,8.817373,99,99,0,0,0,0,0
2,29999,49,20000,92,0,40,9999,0.100000,99,0,0.000000,7,0.000000,16.624899,1.747170,99,99,0,0,0,0,0
2,29999,50,20000,28,0,40,9999,0.100000,99,0,0.000000,7,0.000000,26.200134,0.165490,99,99,0,0,0,0,0
2,29999,51,20000,8,0,40,9999,0.100000,99,0,0.000000,7,3.000000,29.940240,7.138669,99,99,0,0,0,0,0
2,29999,52,20000,85,0,40,9999,0.100000,99,0,0.000000,7,0.000000,21.598326,0.197059,99,99,0,0,0,0,0
2,29999,53,20000,8,0,40,9999,0.100000,99,0,0.000000,7,0.000000,31.208707,4.258544,99,99,0,0,0,0,0
2,29999,54,20000,28,0,0,9999,0.100000,99,0,10.333448,7,2.000000,20.279311,8.009520,99,99,0,1,0,0,0
2,29999,55,20000,1,0,40,9999,0.100000,99,0,0.000000,7,0.000000,27.120171,0.113792,99,99,0,0,0,0,0
2,29999,56,20000,92,0,40,9999,0.100000,99,0,0.000000,7,1.000000,14.940052,3.800579,99,99,0,0,0,0,0
2,29999,57,20000,85,0,41,9999,0.100000,99,0,0.000000,7,4.000000,22.883308,17.706874,99,99,0,0,0,0,0
2,29999,58,20000,92,0,0,9999,0.100000,99,0,0.115687,7,2.000000,27.014734,4.381376,99,99,0,1,0,0,0
2,29999,59,20000,5,0,40,9999,0.100000,99,0,0.000000,7,1.000000,15.855688,4.226041,99,99,0,0,0,0,0
2,29999,60,20000,28,0,40,9999,0.100000,99,0,0.000000,7,0.000000,31.045481,0.700915,99,99,0,0,0,0,0
2,29999,61,20000,61,10000,40,9999,0.100000,99,0,0.000000,7,1.000000,15.222737,1.635002,99,99,0,0,0,0,0
2,29999,62,20000,61,10000,0,9999,0.100000,99,0,1.182293,7,0.000000,30.051371,0.567313,99,99,0,1,0,0,0
2,29999,63,20000,5,0,0,9999,0.100000,99,0,0.449885,7,0.000000,28.517110,0.231568,99,99,0,0,0,0,1
2,29999,64,20000,85,0,40,9999,0.100000,99,0,0.000000,7,1.000000,23.098653,1.469692,99,99,0,0,0,0,0
2,29999,65,20000,5,0,40,9999,0.100000,99,0,0.000000,7,0.000000,27.088679,20.466242,99,99,0,0,0,0,0
2,29999,66,20000,1,0,40,9999,0.100000,99,0,0.000000,7,0.000000,26.290093,1.615162,99,99,0,0,0,0,0
2,29999,67,20000,5,0,41,9999,0.100000,99,0,0.000000,7,2.000000,18.122969,3.936086,99,99,0,0,0,0,0
2,29999,68,20000,5,0,40,9999,0.100000,99,0,0.000000,7,0.000000,32.041730,0.026285,99,99,0,0,0,0,0
2,29999,69,20000,5,0,40,9999,0.100000,99,0,0.000000,7,1.000000,26.621739,18.591418,99,99,0,0,0,0,0
2,29999,70,20000,31,0,40,9999,0.100000,99,0,0.000000,7,0.000000,23.855382,0.104989,99,99,0,0,0,0,0
2,29999,71,20000,5,0,40,9999,0.100000,99,0,0.000000,7,0.000000,28.422083,0.230694,99,99,0,0,0,0,0
2,29999,72,20000,28,0,41,9999,0.100000,99,0,0.000000,7,2.000000,18.881052,14.340876,99,99,0,0,0,0,0
2,29999,73,20000,28,0,40,9999,0.100000,99,0,0.000000,7,0.000000,24.020103,0.182611,99,99,0,0,0,0,0
2,29999,74,20000,61,10000,0,9999,0.100000,99,0,0.005173,7,0.000000,19.260150,3.497285,99,99,0,1,0,0,0
2,29999,75,20000,31,0,40,9999,0.100000,99,0,0.000000,7,1.000000,34.114541,9.077769,99,99,0,0,0,0,0
2,29999,76,20000,29,10000,40,9999,0.100000,99,0,0.000000,7,1.000000,17.557193,1.330886,99,99,0,0,0,0,0
2,29999,77,20000,1,0,40,9999,0.100000,99,0,0.000000,7,1.000000,17.220899,2.459987,99,99,0,0,0,0,0
2,29999,78,20000,5,0,3,9999,0.100000,99,0,0.117679,7,9.000000,22.316369,19.718061,99,99,0,0,1,0,0
2,29999,79,20000,31,0,40,9999,0.100000,99,0,0.000000,7,0.000000,11.918849,0.999498,99,99,0,0,0,0,0
2,29999,80,20000,85,0,0,9999,0.100000,99,0,0.008383,7,0.000000,32.629431,0.245667,99,99,0,0,0,1,0
2,29999,81,20000,28,0,0,9999,0.100000,99,0,0.649545,7,0.000000,25.383647,0.223310,99,99,0,0,0,1,0
2,29999,82,20000,85,0,40,9999,0.100000,99,0,0.000000,7,0.000000,21.531660,1.801900,99,99,0,0,0,0,0
2,29999,83,20000,1,0,40,9999,0.100000,99,0,0.000000,7,0.000000,31.348937,0.870583,99,99,0,0,0,0,0
2,29999,84,20000,1,0,40,9999,0.100000,99,0,0.000000,7,0.000000,25.868222,0.231969,99,99,0,0,0,0,0
2,29999,85,20000,8,0,0,9999,0.100000,99,0,4.341830,7,1.000000,25.261183,2.062049,99,99,0,1,0,0,0
2,29999,86,20000,85,0,41,9999,0.100000,99,0,0.000000,7,4.000000,26.314574,7.764744,99,99,0,0,0,0,0
2,29999,87,20000,1,0,40,9999,0.100000,99,0,0.000000,7,1.000000,34.583451,2.449042,99,99,0,0,0,0,0
2,29999,88,20000,28,0,0,9999,0.100000,99,0,3.161641,7,0.000000,26.840464,1.023907,99,99,0,0,1,0,0
2,29999,89,20000,92,0,40,9999,0.100000,99,0,0.000000,7,1.000000,22.132386,2.001969,99,99,0,0,0,0,0
2,29999,90,20000,8,0,40,9999,0.100000,99,0,0.000000,7,0.000000,25.856142,1.113023,99,99,0,0,0,0,0
2,29999,91,20000,92,0,40,9999,0.100000,99,0,0.000000,7,1.000000,26.767972,15.659955,99,99,0,0,0,0,0
2,29999,92,20000,92,0,40,9999,0.100000,99,0,0.000000,7,1.000000,25.248307,1.837877,99,99,0,0,0,0,0
2,29999,93,20000,28,0,0,9999,0.100000,99,0,0.331595,7,0.000000,14.222246,0.549031,99,99,0,0,0,1,0
2,29999,94,20000,85,0,41,9999,0.100000,99,0,0.000000,7,2.000000,18.826282,16.880073,99,99,0,0,0,0,0
2,29999,95,20000,5,0,0,9999,0.100000,99,0,0.607588,7,0.000000,26.524733,0.160470,99,99,0,1,0,0,0
2,29999,96,20000,85,0,40,9999,0.100000,99,0,0.000000,7,2.000000,22.779821,10.830478,99,99,0,0,0,0,0
2,29999,97,20000,28,0,40,9999,0.100000,99,0,0.000000,7,0.000000,28.190255,0.479070,99,99,0,0,0,0,0
2,29999,98,20000,85,0,40,9999,0.100000,99,0,0.000000,7,1.000000,18.063796,1.490121,99,99,0,0,0,0,0
2,29999,99,20000,1,0,40,9999,0.100000,99,0,0.000000,7,0.000000,28.142327,4.922892,99,99,0,0,0,0,0
3,39999,0,30000,90,10000,40,9999,0.100000,99,0,0.000000,7,0.000000,25.487913,0.857754,99,99,0,0,0,0,0
3,39999,1,30000,8,0,0,9999,0.100000,99,0,0.203734,7,0.000000,33.067820,0.517740,99,99,0,0,0,1,0
3,39999,2,30000,31,0,40,9999,0.100000,99,0,0.000000,7,0.000000,26.095632,10.829411,99,99,0,0,0,0,0
3,39999,3,30000,29,10000,40,9999,0.100000,99,0,0.000000,7,0.000000,31.222144,1.201457,99,99,0,0,0,0,0
3,39999,4,30000,29,10000,0,9999,0.100000,99,0,1.013181,7,0.000000,25.704444,0.748392,99,99,0,0,1,0,0
3,39999,5,30000,5,0,0,9999,0.100000,99,0,0.453607,7,0.000000,26.304826,0.631259,99,99,0,0,0,1,0
3,39999,6,30000,5,0,42,9999,0.100000,99,0,0.000000,7,6.000000,24.609562,25.612744,99,99,0,0,0,0,0
3,39999,7,30000,92,0,40,9999,0.100000,99,0,0.000000,9,0.000000,16.847901,0.809881,99,99,0,0,0,0,0
3,39999,8,30000,8,0,40,9999,0.100000,99,0,0.000000,7,0.000000,34.835337,8.276834,99,99,0,0,0,0,0
3,39999,9,30000,90,10000,40,9999,0.100000,99,0,0.000000,9,0.000000,23.797431,0.330935,99,99,0,0,0,0,0
3,39999,10,30000,1,0,0,9999,0.100000,99,0,0.173146,7,0.000000,25.826326,1.098117,99,99,0,0,0,1,0
3,39999,11,30000,14,20000,0,9999,0.100000,99,0,1.996094,9,0.000000,16.785034,0.480577,99,99,0,0,0,1,0
3,39999,12,30000,29,10000,0,9999,0.100000,99,0,1.083973,9,0.000000,23.592586,0.892595,99,99,0,0,0,0,1
3,39999,13,30000,90,10000,43,9999,0.100000,99,0,0.000000,9,6.000000,18.121235,6.859015,99,99,0,0,0,0,0
3,39999,14,30000,90,10000,41,9999,0.100000,99,0,0.000000,8,6.000000,32.507091,17.955748,99,99,0,0,0,0,0
3,39999,15,30000,14,20000,40,9999,0.100000,99,0,0.000000,9,1.000000,16.411446,7.666752,99,99,0,0,0,0,0
3,39999,16,30000,33,20000,0,9999,0.100000,99,0,0.113147,9,0.000000,27.869528,0.133866,99,99,0,0,0,0,1
3,39999,17,30000,90,10000,41,9999,0.100000,99,0,0.000000,7,3.000000,24.984237,16.983718,99,99,0,0,0,0,0
3,39999,18,30000,92,0,0,9999,0.100000,99,0,0.001487,7,0.000000,26.605682,0.091475,99,99,0,0,0,1,0
3,39999,19,30000,1,0,40,9999,0.100000,99,0,0.000000,9,0.000000,25.133063,0.457325,99,99,0,0,0,0,0
3,39999,20,30000,1,0,40,9999,0.100000,99,0,0.000000,8,2.000000,32.069531,18.220752,99,99,0,0,0,0,0
3,39999,21,30000,92,0,40,9999,0.100000,99,0,0.000000,9,0.000000,24.064164,0.393851,99,99,0,0,0,0,0
3,39999,22,30000,1,0,40,9999,0.100000,99,0,0.000000,7,0.000000,29.319174,17.488294,99,99,0,0,0,0,0
3,39999,23,30000,29,10000,40,9999,0.100000,99,0,0.000000,9,0.000000,20.609644,0.239034,99,99,0,0,0,0,0
3,39999,24,30000,90,10000,0,9999,0.100000,99,0,0.023583,7,0.000000,27.846607,0.142906,99,99,0,0,0,0,1
3,39999,25,30000,5,0,0,9999,0.100000,99,0,0.061182,9,0.000000,26.248160,0.206839,99,99,0,0,1,0,0
3,39999,26,30000,90,10000,40,9999,0.100000,99,0,0.000000,7,1.000000,15.602248,5.345339,99,99,0,0,0,0,0
3,39999,27,30000,5,0,40,9999,0.100000,99,0,0.000000,8,2.000000,32.665466,6.673814,99,99,0,0,0,0,0
3,39999,28,30000,92,0,0,9999,0.100000,99,0,2.081377,9,0.000000,21.329043,0.610490,99,99,0,0,1,0,0
3,39999,29,30000,8,0,0,9999,0.100000,99,0,1.614116,9,0.000000,34.688051,1.027723,99,99,0,1,0,0,0
3,39999,30,30000,90,10000,40,9999,0.100000,99,0,0.000000,7,0.000000,14.106976,2.666571,99,99,0,0,0,0,0
3,39999,31,30000,14,20000,0,9999,0.100000,99,0,0.087061,9,0.000000,29.960892,0.126335,99,99,0,0,0,0,1
3,39999,32,30000,90,10000,40,9999,0.100000,99,0,0.000000,9,0.000000,32.423771,0.098995,99,99,0,0,0,0,0
3,39999,33,30000,14,20000,44,9999,0.100000,99,0,0.000000,9,8.000000,18.053051,16.865400,99,99,0,0,0,0,0
3,39999,34,30000,92,0,40,9999,0.100000,99,0,0.000000,9,1.000000,27.242530,4.641750,99,99,0,0,0,0,0
3,39999,35,30000,29,10000,41,9999,0.100000,99,0,0.000000,7,4.000000,28.476910,11.847967,99,99,0,0,0,0,0
3,39999,36,30000,92,0,40,9999,0.100000,99,0,0.000000,9,0.000000,26.017289,0.801518,99,99,0,0,0,0,0
3,39999,37,30000,5,0,40,9999,0.100000,99,0,0.000000,9,0.000000,22.760739,1.061752,99,99,0,0,0,0,0
3,39999,38,30000,5,0,0,9999,0.100000,99,0,0.000699,9,0.000000,25.396731,0.757926,99,99,0,0,1,0,0
3,39999,39,30000,31,0,40,9999,0.100000,99,0,0.000000,9,0.000000,24.205977,0.369868,99,99,0,0,0,0,0
3,39999,40,30000,8,0,40,9999,0.100000,99,0,0.000000,7,1.000000,22.209586,24.427623,99,99,0,0,0,0,0
3,39999,41,30000,33,20000,40,9999,0.100000,99,0,0.000000,9,0.000000,29.822479,0.206458,99,99,0,0,0,0,0
3,39999,42,30000,31,0,40,9999,0.100000,99,0,0.000000,7,0.000000,22.191018,0.742631,99,99,0,0,0,0,0
3,39999,43,30000,1,0,40,9999,0.100000,99,0,0.000000,9,0.000000,29.466382,1.774610,99,99,0,0,0,0,0
3,39999,44,30000,33,20000,0,9999,0.100000,99,0,0.076239,9,0.000000,29.823157,1.086303,99,99,0,0,1,0,0
3,39999,45,30000,29,10000,41,9999,0.100000,99,0,0.000000,9,4.000000,19.368586,10.383410,99,99,0,0,0,0,0
3,39999,46,30000,1,0,40,9999,0.100000,99,0,0.000000,9,0.000000,29.609479,1.516902,99,99,0,0,0,0,0
3,39999,47,30000,8,0,0,9999,0.100000,99,0,0.006705,7,0.000000,21.154806,0.092251,99,99,0,0,0,0,1
3,39999,48,30000,8,0,40,9999,0.100000,99,0,0.000000,9,1.000000,30.588007,3.808671,99,99,0,0,0,0,0
3,39999,49,30000,8,0,40,9999,0.100000,99,0,0.000000,9,0.000000,16.718432,1.155304,99,99,0,0,0,0,0
3,39999,50,30000,1,0,40,9999,0.100000,99,0,0.000000,9,0.000000,26.170315,0.130236,99,99,0,0,0,0,0
3,39999,51,30000,5,0,40,9999,0.100000,99,0,0.000000,9,0.000000,26.745450,0.900590,99,99,0,0,0,0,0
3,39999,52,30000,14,20000,40,9999,0.100000,99,0,0.000000,9,0.000000,21.573329,0.578054,99,99,0,0,0,0,0
3,39999,53,30000,33,20000,40,9999,0.100000,99,0,0.000000,9,2.000000,31.413986,7.618277,99,99,0,0,0,0,0
3,39999,54,30000,8,0,0,9999,0.100000,99,0,13.018450,9,2.000000,20.645533,2.918682,99,99,0,1,0,0,0
3,39999,55,30000,90,10000,40,9999,0.100000,99,0,0.000000,7,0.000000,27.164108,0.137023,99,99,0,0,0,0,0
3,39999,56,30000,31,0,40,9999,0.100000,99,0,0.000000,9,0.000000,14.263197,1.826470,99,99,0,0,0,0,0
3,39999,57,30000,31,0,40,9999,0.100000,99,0,0.000000,9,1.000000,21.958720,8.399575,99,99,0,0,0,0,0
3,39999,58,30000,1,0,1,9999,0.100000,99,0,16.193697,9,3.000000,26.977158,3.864896,99,99,0,1,0,0,0
3,39999,59,30000,14,20000,40,9999,0.100000,99,0,0.000000,9,0.000000,16.809140,0.717518,99,99,0,0,0,0,0
3,39999,60,30000,31,0,40,9999,0.100000,99,0,0.000000,8,0.000000,31.101628,0.792792,99,99,0,0,0,0,0
3,39999,61,30000,5,0,40,9999,0.100000,99,0,0.000000,9,0.000000,14.235698,1.812602,99,99,0,0,0,0,0
3,39999,62,30000,5,0,0,9999,0.100000,99,0,4.537014,9,1.000000,30.405081,1.970742,99,99,0,1,0,0,0
3,39999,63,30000,8,0,0,9999,0.100000,99,0,0.515031,9,0.000000,28.475042,0.232162,99,99,0,0,0,0,1
3,39999,64,30000,8,0,40,9999,0.100000,99,0,0.000000,7,0.000000,22.617176,0.724578,99,99,0,0,0,0,0
3,39999,65,30000,14,20000,41,9999,0.100000,99,0,0.000000,8,3.000000,26.827951,8.841155,99,99,0,0,0,0,0
3,39999,66,30000,14,20000,41,9999,0.100000,99,0,0.000000,9,5.000000,26.336632,14.567221,99,99,0,0,0,0,0
3,39999,67,30000,5,0,40,9999,0.100000,99,0,0.000000,9,2.000000,20.915765,2.858151,99,99,0,0,0,0,0
3,39999,68,30000,5,0,40,9999,0.100000,99,0,0.000000,7,0.000000,32.041807,0.026205,99,99,0,0,0,0,0
3,39999,69,30000,29,10000,40,9999,0.100000,99,0,0.000000,9,0.000000,25.472356,1.853427,99,99,0,0,0,0,0
3,39999,70,30000,33,20000,0,9999,0.100000,99,0,0.924853,9,0.000000,23.863210,0.271045,99,99,0,0,0,0,1
3,39999,71,30000,33,20000,40,9999,0.100000,99,0,0.000000,9,0.000000,28.353124,0.230346,99,99,0,0,0,0,0
3,39999,72,30000,5,0,40,9999,0.100000,99,0,0.000000,9,0.000000,17.103965,10.215136,99,99,0,0,0,0,0
3,39999,73,30000,90,10000,40,9999,0.100000,99,0,0.000000,9,0.000000,24.023282,0.340725,99,99,0,0,0,0,0
3,39999,74,30000,8,0,0,9999,0.100000,99,0,0.023253,9,0.000000,19.259106,0.150188,99,99,0,1,0,0,0
3,39999,75,30000,92,0,41,9999,0.100000,99,0,0.000000,9,5.000000,34.102960,12.463488,99,99,0,0,0,0,0
3,39999,76,30000,1,0,0,9999,0.100000,99,0,2.671418,9,0.000000,17.788462,0.900255,99,99,0,0,1,0,0
3,39999,77,30000,29,10000,3,9999,0.100000,99,0,0.540102,9,6.000000,17.887452,7.088340,99,99,0,1,0,0,0
3,39999,78,30000,14,20000,40,9999,0.100000,99,0,0.000000,9,0.000000,21.900433,2.702038,99,99,0,0,0,0,0
3,39999,79,30000,1,0,40,9999,0.100000,99,0,0.000000,9,0.000000,12.669498,0.998173,99,99,0,0,0,0,0
3,39999,80,30000,31,0,0,9999,0.100000,99,0,0.009462,9,0.000000,32.684050,0.123959,99,99,0,0,0,1,0
3,39999,81,30000,92,0,0,9999,0.100000,99,0,0.523912,7,0.000000,25.485201,0.547473,99,99,0,0,0,1,0
3,39999,82,30000,90,10000,0,9999,0.100000,99,0,0.002452,9,0.000000,22.245586,1.577869,99,99,0,0,0,0,1
3,39999,83,30000,33,20000,40,9999,0.100000,99,0,0.000000,9,0.000000,31.180218,0.654393,99,99,0,0,0,0,0
3,39999,84,30000,92,0,40,9999,0.100000,99,0,0.000000,7,0.000000,25.955903,0.691357,99,99,0,0,0,0,0
3,39999,85,30000,31,0,0,9999,0.100000,99,0,0.502256,9,0.000000,26.399493,1.054706,99,99,0,1,0,0,0
3,39999,86,30000,5,0,44,9999,0.100000,99,0,0.000000,9,11.000000,24.180149,17.665150,99,99,0,0,0,0,0
3,39999,87,30000,29,10000,40,9999,0.100000,99,0,0.000000,7,0.000000,35.759290,0.231147,99,99,0,0,0,0,0
3,39999,88,30000,29,10000,2,9999,0.100000,99,0,0.006954,7,7.000000,26.825571,17.775640,99,99,0,0,1,0,0
3,39999,89,30000,29,10000,0,9999,0.100000,99,0,3.622165,9,0.000000,22.619841,1.144388,99,99,0,1,0,0,0
3,39999,90,30000,31,0,43,9999,0.100000,99,0,0.000000,9,9.000000,25.427957,19.245130,99,99,0,0,0,0,0
3,39999,91,30000,29,10000,40,9999,0.100000,99,0,0.000000,7,0.000000,25.548190,0.856810,99,99,0,0,0,0,0
3,39999,92,30000,1,0,40,9999,0.100000,99,0,0.000000,9,0.000000,26.437943,0.884897,99,99,0,0,0,0,0
3,39999,93,30000,8,0,0,9999,0.100000,99,0,0.544670,9,0.000000,14.192396,0.902574,99,99,0,0,0,1,0
3,39999,94,30000,33,20000,40,9999,0.100000,99,0,0.000000,9,1.000000,18.959656,2.389896,99,99,0,0,0,0,0
3,39999,95,30000,31,0,0,9999,0.100000,99,0,2.177767,9,0.000000,26.448399,0.715484,99,99,0,1,0,0,0
3,39999,96,30000,1,0,40,9999,0.100000,99,0,0.000000,7,0.000000,23.556327,1.527304,99,99,0,0,0,0,0
3,39999,97,30000,90,10000,40,9999,0.100000,99,0,0.000000,9,0.000000,28.060435,7.398753,99,99,0,0,0,0,0
3,39999,98,30000,8,0,40,9999,0.100000,99,0,0.000000,9,0.000000,18.294527,1.082323,99,99,0,0,0,0,0
3,39999,99,30000,8,0,40,9999,0.100000,99,0,0.000000,9,1.000000,28.189687,7.194060,99,99,0,0,0,0,0
4,49999,0,40000,29,10000,40,9999,0.100000,99,0,0.000000,9,0.000000,25.640164,0.869635,99,99,0,0,0,0,0
4,49999,1,40000,33,20000,0,9999,0.100000,99,0,0.116865,9,0.000000,33.001346,0.546034,99,99,0,0,0,1,0
4,49999,2,40000,92,0,40,9999,0.100000,99,0,0.000000,9,0.000000,26.267665,16.670638,99,99,0,0,0,0,0
4,49999,3,40000,77,30000,40,9999,0.100000,99,0,0.000000,11,0.000000,31.166236,1.308948,99,99,0,0,0,0,0
4,49999,4,40000,14,20000,0,9999,0.100000,99,0,0.615788,11,0.000000,25.980893,0.476097,99,99,0,0,1,0,0
4,49999,5,40000,31,0,0,9999,0.100000,99,0,0.766444,9,0.000000,26.308032,0.526001,99,99,0,0,0,1,0
4,49999,6,40000,33,20000,40,9999,0.100000,99,0,0.000000,12,0.000000,24.567789,0.439132,99,99,0,0,0,0,0
4,49999,7,40000,90,10000,41,9999,0.100000,99,0,0.000000,9,3.000000,17.466876,10.181520,99,99,0,0,0,0,0
4,49999,8,40000,8,0,40,9999,0.100000,99,0,0.000000,12,0.000000,34.703446,7.635000,99,99,0,0,0,0,0
4,49999,9,40000,29,10000,0,9999,0.100000,99,0,0.533520,11,0.000000,23.865741,0.198419,99,99,0,0,0,0,1
4,49999,10,40000,90,10000,0,9999,0.100000,99,0,0.336889,9,0.000000,25.625304,0.236726,99,99,0,0,0,1,0
4,49999,11,40000,90,10000,40,9999,0.100000,99,0,0.000000,11,1.000000,17.188317,2.449679,99,99,0,0,0,0,0
4,49999,12,40000,92,0,42,9999,0.100000,99,0,0.000000,9,6.000000,23.691616,13.843109,99,99,0,0,0,0,0
4,49999,13,40000,31,0,40,9999,0.100000,99,0,0.000000,11,0.000000,21.986753,5.508469,99,99,0,0,0,0,0
4,49999,14,40000,5,0,40,9999,0.100000,99,0,0.000000,12,1.000000,27.946338,21.134773,99,99,0,0,0,0,0
4,49999,15,40000,86,30000,44,9999,0.100000,99,0,0.000000,11,8.000000,18.028081,34.166039,99,99,0,0,0,0,0
4,49999,16,40000,92,0,0,9999,0.100000,99,0,0.010120,11,0.000000,27.916969,0.087228,99,99,0,0,0,0,1
4,49999,17,40000,92,0,41,9999,0.100000,99,0,0.000000,9,5.000000,25.952522,16.181675,99,99,0,0,0,0,0
4,49999,18,40000,31,0,0,9999,0.100000,99,0,0.001015,9,0.000000,26.604526,0.091914,99,99,0,0,0,1,0
4,49999,19,40000,92,0,40,9999,0.100000,99,0,0.000000,11,1.000000,25.302940,6.094422,99,99,0,0,0,0,0
4,49999,20,40000,86,30000,0,9999,0.100000,99,0,0.470089,12,0.000000,30.467365,2.373921,99,99,0,0,1,0,0
4,49999,21,40000,5,0,40,9999,0.100000,99,0,0.000000,11,0.000000,24.097179,0.420665,99,99,0,0,0,0,0
4,49999,22,40000,29,10000,40,9999,0.100000,99,0,0.000000,11,0.000000,30.070332,1.799448,99,99,0,0,0,0,0
4,49999,23,40000,5,0,40,9999,0.100000,99,0,0.000000,12,0.000000,20.679259,0.236519,99,99,0,0,0,0,0
4,49999,24,40000,29,10000,0,9999,0.100000,99,0,0.005407,9,0.000000,27.873260,0.178523,99,99,0,0,0,0,1
4,49999,25,40000,86,30000,40,9999,0.100000,99,0,0.000000,12,0.000000,26.253427,0.208696,99,99,0,0,0,0,0
4,49999,26,40000,90,10000,0,9999,0.100000,99,0,0.535916,11,1.000000,17.047670,2.082408,99,99,0,0,0,1,0
4,49999,27,40000,86,30000,40,9999,0.100000,99,0,0.000000,11,0.000000,33.151502,0.911973,99,99,0,0,0,0,0
4,49999,28,40000,31,0,0,9999,0.100000,99,0,1.455049,12,0.000000,20.830900,0.528689,99,99,0,0,1,0,0
4,49999,29,40000,14,20000,0,9999,0.100000,99,0,0.456746,12,0.000000,34.587568,0.688613,99,99,0,1,0,0,0
4,49999,30,40000,8,0,40,9999,0.135000,99,0,0.000000,11,0.000000,14.277198,2.077290,99,99,0,0,0,0,0
4,49999,31,40000,86,30000,40,9999,0.100000,99,0,0.000000,11,0.000000,29.971877,0.236688,99,99,0,0,0,0,0
4,49999,32,40000,29,10000,40,9999,0.100000,99,0,0.000000,9,0.000000,32.422258,0.100179,99,99,0,0,0,0,0
4,49999,33,40000,33,30000,0,9999,0.100000,99,0,4.064416,12,1.000000,18.430195,1.817135,99,99,0,0,1,0,0
4,49999,34,40000,5,0,40,9999,0.100000,99,0,0.000000,11,0.000000,26.794311,1.915156,99,99,0,0,0,0,0
4,49999,35,40000,31,0,40,9999,0.100000,99,0,0.000000,11,2.000000,30.656045,6.187872,99,99,0,0,0,0,0
4,49999,36,40000,92,0,40,9999,0.100000,99,0,0.000000,11,0.000000,26.086269,0.950716,99,99,0,0,0,0,0
4,49999,37,40000,33,20000,0,9999,0.100000,99,0,0.600661,11,0.000000,23.202947,2.431122,99,99,0,1,0,0,0
4,49999,38,40000,29,10000,0,9999,0.100000,99,0,0.046397,12,0.000000,24.960720,0.794678,99,99,0,0,1,0,0
4,49999,39,40000,31,0,40,9999,0.100000,99,0,0.000000,11,0.000000,24.342269,0.251337,99,99,0,0,0,0,0
4,49999,40,40000,33,20000,43,9999,0.100000,99,0,0.000000,9,8.000000,23.399275,18.750067,99,99,0,0,0,0,0
4,49999,41,40000,1,0,40,9999,0.100000,99,0,0.000000,12,0.000000,29.828660,0.556218,99,99,0,0,0,0,0
4,49999,42,40000,33,30000,40,9999,0.100000,99,0,0.000000,12,0.000000,21.628027,0.680382,99,99,0,0,0,0,0
4,49999,43,40000,31,0,40,9999,0.100000,99,0,0.000000,12,0.000000,30.221412,1.689639,99,99,0,0,0,0,0
4,49999,44,40000,8,0,40,9999,0.100000,99,0,0.000000,9,0.000000,30.567443,3.111511,99,99,0,0,0,0,0
4,49999,45,40000,92,0,0,9999,0.100000,99,0,1.323431,9,1.000000,22.257099,5.554155,99,99,0,1,0,0,0
4,49999,46,40000,90,10000,40,9999,0.100000,99,0,0.000000,9,0.000000,30.346747,1.245725,99,99,0,0,0,0,0
4,49999,47,40000,31,0,40,9999,0.100000,99,0,0.000000,11,0.000000,21.153032,0.091522,99,99,0,0,0,0,0
4,49999,48,40000,77,30000,40,9999,0.100000,99,0,0.000000,12,1.000000,29.234212,2.983214,99,99,0,0,0,0,0
4,49999,49,40000,8,0,41,9999,0.100000,99,0,0.000000,9,2.000000,17.345303,7.259649,99,99,0,0,0,0,0
4,49999,50,40000,33,20000,0,9999,0.100000,99,0,0.054580,12,0.000000,26.173228,0.130217,99,99,0,0,1,0,0
4,49999,51,40000,31,0,40,9999,0.100000,99,0,0.000000,12,1.000000,27.206518,7.192370,99,99,0,0,0,0,0
4,49999,52,40000,29,10000,40,9999,0.100000,99,0,0.000000,12,0.000000,21.089010,0.531278,99,99,0,0,0,0,0
4,49999,53,40000,1,0,40,9999,0.100000,99,0,0.000000,11,0.000000,30.489200,5.001108,99,99,0,0,0,0,0
4,49999,54,40000,5,0,40,9999,0.100000,99,0,0.000000,9,1.000000,22.431240,22.719952,99,99,0,0,0,0,0
4,49999,55,40000,14,20000,40,9999,0.100000,99,0,0.000000,12,0.000000,27.185859,0.140917,99,99,0,0,0,0,0
4,49999,56,40000,14,20000,40,9999,0.065000,99,0,0.000000,9,0.000000,13.489655,1.441525,99,99,0,0,0,0,0
4,49999,57,40000,90,10000,40,9999,0.100000,99,0,0.000000,11,0.000000,23.126797,13.086575,99,99,0,0,0,0,0
4,49999,58,40000,31,0,40,9999,0.100000,99,0,16.136138,9,3.000000,29.324665,8.807492,99,99,0,1,0,0,1
4,49999,59,40000,8,0,40,9999,0.100000,99,0,0.000000,12,1.000000,17.344239,5.844082,99,99,0,0,0,0,0
4,49999,60,40000,90,10000,40,9999,0.100000,99,0,0.000000,9,1.000000,31.013535,2.019177,99,99,0,0,0,0,0
4,49999,61,40000,90,10000,0,9999,0.100000,99,0,0.004827,12,1.000000,13.430882,2.828777,99,99,0,0,0,1,0
4,49999,62,40000,29,10000,0,9999,0.100000,99,0,0.289754,12,1.000000,29.429560,2.134567,99,99,0,1,0,0,0
4,49999,63,40000,8,0,2,9999,0.100000,99,0,0.411684,9,7.000000,28.586241,15.357555,99,99,0,0,0,0,1
4,49999,64,40000,92,0,40,9999,0.100000,99,0,0.000000,9,0.000000,22.291807,0.570055,99,99,0,0,0,0,0
4,49999,65,40000,31,0,0,9999,0.100000,99,0,16.012585,9,3.000000,29.150769,6.503308,99,99,0,1,0,0,0
4,49999,66,40000,1,0,40,9999,0.100000,99,0,0.000000,11,0.000000,26.040350,1.508836,99,99,0,0,0,0,0
4,49999,67,40000,1,0,40,9999,0.100000,99,0,0.000000,11,1.000000,22.591003,7.886230,99,99,0,0,0,0,0
4,49999,68,40000,33,20000,40,9999,0.100000,99,0,0.000000,12,0.000000,32.041745,0.026204,99,99,0,0,0,0,0
4,49999,69,40000,90,10000,40,9999,0.100000,99,0,0.000000,11,0.000000,25.869643,1.998736,99,99,0,0,0,0,0
4,49999,70,40000,31,0,40,9999,0.100000,99,0,0.000000,11,0.000000,23.993046,0.291625,99,99,0,0,0,0,0
4,49999,71,40000,77,30000,40,9999,0.100000,99,0,0.000000,11,0.000000,28.477012,0.232296,99,99,0,0,0,0,0
4,49999,72,40000,8,0,40,9999,0.100000,99,0,0.000000,12,1.000000,17.146908,9.854881,99,99,0,0,0,0,0
4,49999,73,40000,14,20000,0,9999,0.100000,99,0,0.887248,12,0.000000,24.155291,0.271768,99,99,0,0,0,0,1
4,49999,74,40000,90,10000,0,9999,0.100000,99,0,0.027189,12,0.000000,19.259097,0.150482,99,99,0,1,0,0,0
4,49999,75,40000,90,10000,40,9999,0.100000,99,0,0.000000,9,0.000000,29.697588,0.851055,99,99,0,0,0,0,0
4,49999,76,40000,1,0,40,9999,0.100000,99,0,0.000000,11,1.000000,18.166953,1.841790,99,99,0,0,0,0,0
4,49999,77,40000,29,10000,0,9999,0.100000,99,0,2.374574,10,0.000000,21.811241,5.145128,99,99,0,1,0,0,0
4,49999,78,40000,90,10000,43,9999,0.100000,99,0,0.000000,9,9.000000,21.774531,19.394892,99,99,0,0,0,0,0
4,49999,79,40000,90,10000,40,9999,0.100000,99,0,0.000000,9,0.000000,13.442793,1.023220,99,99,0,0,0,0,0
4,49999,80,40000,8,0,0,9999,0.100000,99,0,0.009664,9,0.000000,32.682278,0.119045,99,99,0,0,0,1,0
4,49999,81,40000,5,0,40,9999,0.100000,99,0,0.000000,11,0.000000,25.454347,0.687077,99,99,0,0,0,0,0
4,49999,82,40000,5,0,0,9999,0.100000,99,0,0.002544,12,0.000000,22.319409,0.117414,99,99,0,0,0,0,1
4,49999,83,40000,31,0,40,9999,0.100000,99,0,0.000000,10,1.000000,31.079811,1.683800,99,99,0,0,0,0,0
4,49999,84,40000,8,0,0,9999,0.100000,99,0,0.795702,9,0.000000,25.968806,0.983413,99,99,0,0,0,1,0
4,49999,85,40000,92,0,0,9999,0.100000,99,0,0.619712,10,0.000000,26.743090,4.064671,99,99,0,1,0,0,0
4,49999,86,40000,92,0,40,9999,0.100000,99,0,0.000000,11,0.000000,18.426821,0.233073,99,99,0,0,0,0,0
4,49999,87,40000,5,0,40,9999,0.100000,99,0,0.000000,9,0.000000,35.758888,0.232024,99,99,0,0,0,0,0
4,49999,88,40000,31,0,40,9999,0.100000,99,0,0.000000,12,1.000000,27.425167,3.354936,99,99,0,0,0,0,0
4,49999,89,40000,92,0,40,9999,0.100000,99,0,0.000000,11,0.000000,23.399151,2.558817,99,99,0,0,0,0,0
4,49999,90,40000,77,30000,40,9999,0.100000,99,0,0.000000,11,0.000000,24.992777,1.200149,99,99,0,0,0,0,0
4,49999,91,40000,90,10000,40,9999,0.100000,99,0,0.000000,9,0.000000,25.974018,0.330063,99,99,0,0,0,0,0
4,49999,92,40000,33,20000,40,9999,0.100000,99,0,0.000000,11,0.000000,26.602876,3.165647,99,99,0,0,0,0,0
4,49999,93,40000,29,10000,0,9999,0.100000,99,0,0.478586,12,0.000000,14.282955,0.792954,99,99,0,0,0,1,0
4,49999,94,40000,31,0,0,9999,0.100000,99,0,0.004079,11,0.000000,20.152660,0.098689,99,99,0,0,0,0,1
4,49999,95,40000,14,20000,0,9999,0.100000,99,0,1.174616,11,0.000000,26.936392,0.675584,99,99,0,1,0,0,0
4,49999,96,40000,1,0,40,9999,0.100000,99,0,0.000000,12,0.000000,23.721195,2.318865,99,99,0,0,0,0,0
4,49999,97,40000,8,0,40,9999,0.100000,99,0,0.000000,12,0.000000,28.206496,0.509750,99,99,0,0,0,0,0
4,49999,98,40000,29,10000,40,9999,0.100000,99,0,0.000000,12,1.000000,18.671390,2.028755,99,99,0,0,0,0,0
4,49999,99,40000,14,20000,40,9999,0.100000,99,0,0.000000,11,1.000000,27.583578,7.928792,99,99,0,0,0,0,0
5,59999,0,50000,29,10000,40,9999,0.100000,99,0,0.000000,12,0.000000,25.916033,0.567132,99,99,0,0,0,0,0
5,59999,1,50000,31,0,0,9999,0.100000,99,0,0.094660,12,0.000000,32.938963,0.534472,99,99,0,0,0,1,0
5,59999,2,50000,29,10000,40,9999,0.100000,99,0,0.000000,12,1.000000,25.931142,5.352833,99,99,0,0,0,0,0
5,59999,3,50000,33,30000,40,9999,0.100000,99,0,0.000000,12,0.000000,30.963759,1.246001,99,99,0,0,0,0,0
5,59999,4,50000,29,10000,0,9999,0.100000,99,0,6.007883,12,0.000000,26.153369,0.833303,99,99,0,0,1,0,0
5,59999,5,50000,31,0,0,9999,0.100000,99,0,1.190675,12,0.000000,26.286838,0.274493,99,99,0,0,0,1,0
5,59999,6,50000,33,20000,40,9999,0.100000,99,0,0.000000,12,0.000000,24.489988,0.369746,99,99,0,0,0,0,0
5,59999,7,50000,29,10000,40,9999,0.100000,99,0,0.000000,12,2.000000,19.321782,2.876383,99,99,0,0,0,0,0
5,59999,8,50000,5,0,40,9999,0.100000,99,0,0.000000,12,0.000000,34.564907,4.995213,99,99,0,0,0,0,0
5,59999,9,50000,8,0,40,9999,0.100000,99,0,0.000000,12,0.000000,23.852175,0.130297,99,99,0,0,0,0,0
5,59999,10,50000,29,10000,0,9999,0.100000,99,0,0.668533,12,0.000000,25.621615,0.405886,99,99,0,0,0,1,0
5,59999,11,50000,86,30000,44,9999,0.100000,99,0,0.000000,12,9.000000,18.765591,11.116384,99,99,0,0,0,0,0
5,59999,12,50000,77,30000,40,9999,0.100000,99,0,0.000000,12,0.000000,23.689731,0.119566,99,99,0,0,0,0,0
5,59999,13,50000,31,0,0,9999,0.100000,99,0,3.819890,12,1.000000,22.345594,5.251555,99,99,0,1,0,0,0
5,59999,14,50000,31,0,40,9999,0.100000,99,0,0.000000,12,2.000000,28.629267,4.412274,99,99,0,0,0,0,0
5,59999,15,50000,92,0,41,9999,0.100000,99,0,0.000000,12,3.000000,16.870204,13.698521,99,99,0,0,0,0,0
5,59999,16,50000,29,10000,0,9999,0.100000,99,0,0.058455,12,0.000000,27.921486,0.980584,99,99,0,0,0,0,1
5,59999,17,50000,8,0,40,9999,0.100000,99,0,0.000000,12,1.000000,25.759021,14.811855,99,99,0,0,0,0,0
5,59999,18,50000,92,0,0,9999,0.100000,99,0,0.459179,12,0.000000,26.603536,1.358165,99,99,0,0,0,1,0
5,59999,19,50000,5,0,0,9999,0.100000,99,0,0.002359,12,0.000000,25.608770,0.535709,99,99,0,0,0,1,0
5,59999,20,50000,77,30000,0,9999,0.100000,99,0,2.157279,12,0.000000,30.951860,0.522939,99,99,0,0,1,0,0
5,59999,21,50000,92,0,0,9999,0.100000,99,0,0.208811,12,0.000000,24.064310,0.598489,99,99,0,0,0,0,1
5,59999,22,50000,8,0,40,9999,0.100000,99,0,0.000000,12,3.000000,30.069480,7.294511,99,99,0,0,0,0,0
5,59999,23,50000,14,20000,0,9999,0.100000,99,0,0.783739,12,0.000000,20.762893,0.629792,99,99,0,0,0,0,1
5,59999,24,50000,29,10000,40,9999,0.100000,99,0,0.000000,12,0.000000,27.906625,0.342287,99,99,0,0,0,0,0
5,59999,25,50000,77,30000,0,9999,0.100000,99,0,0.050354,12,0.000000,26.257701,0.206990,99,99,0,0,1,0,0
5,59999,26,50000,8,0,4,9999,0.100000,99,0,0.017391,12,8.000000,18.662146,20.150950,99,99,0,0,0,1,0
5,59999,27,50000,31,0,40,9999,0.100000,99,0,0.000000,12,0.000000,33.088501,0.971767,99,99,0,0,0,0,0
5,59999,28,50000,31,0,0,9999,0.100000,99,0,1.662769,12,0.000000,20.377842,0.418837,99,99,0,0,1,0,0
5,59999,29,50000,77,30000,40,9999,0.100000,99,0,0.000000,12,0.000000,34.476469,0.228260,99,99,0,0,0,0,0
5,59999,30,50000,33,20000,40,9999,0.100000,99,0,0.000000,12,0.000000,14.267930,1.249015,99,99,0,0,0,0,0
5,59999,31,50000,33,20000,0,9999,0.100000,99,0,7.075158,12,1.000000,30.017146,3.360703,99,99,0,0,0,0,1
5,59999,32,50000,8,0,40,9999,0.100000,99,0,0.000000,12,0.000000,32.420656,0.101147,99,99,0,0,0,0,0
5,59999,33,50000,77,30000,0,9999,0.100000,99,0,0.632325,12,0.000000,19.391944,0.941722,99,99,0,0,1,0,0
5,59999,34,50000,14,20000,40,9999,0.100000,99,0,0.000000,12,0.000000,27.179361,3.718677,99,99,0,0,0,0,0
5,59999,35,50000,29,10000,40,9999,0.100000,99,0,0.000000,12,1.000000,31.345826,7.509726,99,99,0,0,0,0,0
5,59999,36,50000,5,0,40,9999,0.100000,99,0,0.000000,12,0.000000,26.159966,0.532301,99,99,0,0,0,0,0
5,59999,37,50000,77,30000,4,9999,0.100000,99,0,53.670206,12,10.000000,23.691057,12.178655,99,99,0,1,0,0,0
5,59999,38,50000,14,20000,0,9999,0.100000,99,0,0.047214,12,0.000000,24.492616,0.792028,99,99,0,0,1,0,0
5,59999,39,50000,33,30000,40,9999,0.100000,99,0,0.000000,12,0.000000,24.483390,0.237723,99,99,0,0,0,0,0
5,59999,40,50000,5,0,41,9999,0.100000,99,0,0.000000,12,4.000000,30.470927,7.668544,99,99,0,0,0,0,0
5,59999,41,50000,31,0,2,9999,0.100000,99,0,7.105932,12,9.000000,29.875874,21.338280,99,99,0,0,0,0,1
5,59999,42,50000,77,30000,40,9999,0.100000,99,0,0.000000,12,0.000000,21.153791,0.478805,99,99,0,0,0,0,0
5,59999,43,50000,1,0,40,9999,0.100000,99,0,0.000000,12,0.000000,30.178493,1.403706,99,99,0,0,0,0,0
5,59999,44,50000,14,20000,40,9999,0.100000,99,0,0.000000,12,0.000000,30.355964,2.303138,99,99,0,0,0,0,0
5,59999,45,50000,90,10000,0,9999,0.100000,99,0,4.094202,12,0.000000,22.712763,1.534304,99,99,0,1,0,0,0
5,59999,46,50000,29,10000,40,9999,0.100000,99,0,0.000000,12,0.000000,30.234805,1.008183,99,99,0,0,0,0,0
5,59999,47,50000,33,30000,0,9999,0.100000,99,0,0.056502,12,0.000000,21.151887,0.408243,99,99,0,0,0,0,1
5,59999,48,50000,14,20000,40,9999,0.100000,99,0,0.000000,12,1.000000,30.377093,3.201849,99,99,0,0,0,0,0
5,59999,49,50000,33,30000,40,9999,0.100000,99,0,0.000000,12,1.000000,19.000829,16.704840,99,99,0,0,0,0,0
5,59999,50,50000,33,30000,40,9999,0.100000,99,0,0.000000,12,0.000000,26.175502,0.127798,99,99,0,0,0,0,0
5,59999,51,50000,1,0,40,9999,0.100000,99,0,0.000000,12,0.000000,28.845701,1.522862,99,99,0,0,0,0,0
5,59999,52,50000,33,30000,40,9999,0.100000,99,0,0.000000,12,0.000000,20.624956,0.834587,99,99,0,0,0,0,0
5,59999,53,50000,1,0,40,9999,0.100000,99,0,0.000000,12,1.000000,30.218994,4.235086,99,99,0,0,0,0,0
5,59999,54,50000,92,0,94,9999,0.100000,99,0,55.451805,12,11.000000,21.676065,20.730205,99,99,1,0,0,0,0
5,59999,55,50000,5,0,0,9999,0.100000,99,0,0.053719,12,0.000000,27.216827,0.419221,99,99,0,0,0,0,1
5,59999,56,50000,33,30000,0,9999,0.100000,99,0,0.002108,12,0.000000,12.765916,0.169560,99,99,0,0,0,1,0
5,59999,57,50000,77,30000,41,9999,0.100000,99,0,0.000000,12,3.000000,22.888645,10.968250,99,99,0,0,0,0,0
5,59999,58,50000,14,20000,40,9999,0.100000,99,0,0.000000,12,2.000000,29.428354,7.614204,99,99,0,0,0,0,0
5,59999,59,50000,90,10000,41,9999,0.100000,99,0,0.000000,12,3.000000,18.829330,13.366409,99,99,0,0,0,0,0
5,59999,60,50000,33,30000,41,9999,0.100000,99,0,0.000000,12,4.000000,30.636837,7.664190,99,99,0,0,0,0,0
5,59999,61,50000,14,20000,40,9999,0.100000,99,0,0.000000,12,1.000000,12.546684,15.202883,99,99,0,0,0,0,0
5,59999,62,50000,8,0,0,9999,0.100000,99,0,4.997952,12,0.000000,30.231968,2.244306,99,99,0,1,0,0,0
5,59999,63,50000,33,30000,0,9999,0.100000,99,0,1.021688,12,0.000000,28.677529,0.284747,99,99,0,0,0,0,1
5,59999,64,50000,8,0,40,9999,0.100000,99,0,0.000000,12,0.000000,22.157709,0.689095,99,99,0,0,0,0,0
5,59999,65,50000,1,0,40,9999,0.100000,99,0,0.000000,12,1.000000,30.074547,5.016466,99,99,0,0,0,0,0
5,59999,66,50000,8,0,40,9999,0.100000,99,0,0.000000,12,0.000000,26.035172,0.760174,99,99,0,0,0,0,0
5,59999,67,50000,86,30000,40,9999,0.100000,99,0,0.000000,12,0.000000,22.941294,1.935217,99,99,0,0,0,0,0
5,59999,68,50000,14,20000,40,9999,0.100000,99,0,0.000000,12,0.000000,32.041823,0.684060,99,99,0,0,0,0,0
5,59999,69,50000,33,30000,40,9999,0.100000,99,0,0.000000,12,0.000000,26.027679,2.255511,99,99,0,0,0,0,0
5,59999,70,50000,8,0,0,9999,0.100000,99,0,0.679723,12,0.000000,24.150860,0.439564,99,99,0,0,0,0,1
5,59999,71,50000,29,10000,40,9999,0.100000,99,0,0.000000,12,0.000000,28.565449,0.266530,99,99,0,0,0,0,0
5,59999,72,50000,90,10000,40,9999,0.100000,99,0,0.000000,12,0.000000,18.619409,17.007790,99,99,0,0,0,0,0
5,59999,73,50000,33,20000,40,9999,0.100000,99,0,0.000000,12,0.000000,24.296963,0.184723,99,99,0,0,0,0,0
5,59999,74,50000,86,30000,0,9999,0.100000,99,0,0.043501,12,0.000000,19.256156,0.142042,99,99,0,1,0,0,0
5,59999,75,50000,5,0,90,9999,0.100000,99,0,1.996028,12,2.000000,29.744631,11.386415,99,99,1,0,0,0,0
5,59999,76,50000,14,20000,40,9999,0.100000,99,0,0.000000,12,0.000000,19.129792,1.029543,99,99,0,0,0,0,0
5,59999,77,50000,33,20000,40,9999,0.100000,99,0,0.000000,12,1.000000,22.142950,5.217059,99,99,0,0,0,0,0
5,59999,78,50000,92,0,40,9999,0.100000,99,0,0.000000,12,0.000000,21.407176,0.774220,99,99,0,0,0,0,0
5,59999,79,50000,8,0,40,9999,0.100000,99,0,0.000000,12,0.000000,14.224979,1.009373,99,99,0,0,0,0,0
5,59999,80,50000,92,0,0,9999,0.100000,99,0,0.008497,12,0.000000,32.680436,0.117563,99,99,0,0,0,1,0
5,59999,81,50000,86,30000,40,9999,0.100000,99,0,0.000000,12,0.000000,25.201280,0.144646,99,99,0,0,0,0,0
5,59999,82,50000,92,0,0,9999,0.100000,99,0,0.002207,12,0.000000,22.320008,2.045243,99,99,0,0,0,0,1
5,59999,83,50000,8,0,40,9999,0.100000,99,0,0.000000,12,3.000000,30.705351,4.987370,99,99,0,0,0,0,0
5,59999,84,50000,29,10000,40,9999,0.100000,99,0,0.000000,12,0.000000,25.762398,0.584241,99,99,0,0,0,0,0
5,59999,85,50000,77,30000,0,9999,0.100000,99,0,1.060537,12,0.000000,27.081868,1.011079,99,99,0,1,0,0,0
5,59999,86,50000,31,0,40,9999,0.100000,99,0,0.000000,12,0.000000,18.423684,0.242804,99,99,0,0,0,0,0
5,59999,87,50000,5,0,40,9999,0.100000,99,0,0.000000,12,0.000000,35.758570,0.217050,99,99,0,0,0,0,0
5,59999,88,50000,5,0,0,9999,0.100000,99,0,0.018213,12,0.000000,26.892611,0.401356,99,99,0,0,1,0,0
5,59999,89,50000,1,0,3,9999,0.100000,99,0,53.669904,12,10.000000,23.885041,11.839543,99,99,0,1,0,0,0
5,59999,90,50000,29,10000,40,9999,0.100000,99,0,0.000000,12,0.000000,24.567462,1.305471,99,99,0,0,0,0,0
5,59999,91,50000,78,40000,40,9999,0.100000,99,0,0.000000,12,0.000000,26.085563,1.098615,99,99,0,0,0,0,0
5,59999,92,50000,8,0,40,9999,0.065000,99,0,0.000000,12,0.000000,26.987453,0.837932,99,99,0,0,0,0,0
5,59999,93,50000,31,0,0,9999,0.100000,99,0,0.464144,12,0.000000,14.287596,0.801761,99,99,0,0,0,1,0
5,59999,94,50000,1,0,40,9999,0.100000,99,0,0.000000,12,0.000000,20.151249,0.156871,99,99,0,0,0,0,0
5,59999,95,50000,8,0,0,9999,0.100000,99,0,1.114310,12,0.000000,27.319269,1.589885,99,99,0,1,0,0,0
5,59999,96,50000,14,20000,40,9999,0.100000,99,0,0.000000,12,0.000000,24.120775,1.320602,99,99,0,0,0,0,0
5,59999,97,50000,33,30000,40,9999,0.100000,99,0,0.000000,12,0.000000,28.291367,0.479633,99,99,0,0,0,0,0
5,59999,98,50000,29,10000,40,9999,0.100000,99,0,0.000000,12,0.000000,19.630516,1.041691,99,99,0,0,0,0,0
5,59999,99,50000,31,0,40,9999,0.100000,99,0,0.000000,12,1.000000,27.300982,9.006668,99,99,0,0,0,0,0
6,69999,0,60000,31,0,40,9999,0.100000,99,0,0.000000,12,0.000000,26.259889,0.389655,99,99,0,0,0,0,0
6,69999,1,60000,5,0,0,9999,0.100000,99,0,0.084394,12,0.000000,32.886076,0.509753,99,99,0,0,0,1,0
6,69999,2,60000,78,40000,40,9999,0.100000,99,0,0.000000,13,1.000000,27.148396,7.169540,99,99,0,0,0,0,0
6,69999,3,60000,33,20000,40,9999,0.100000,99,0,0.000000,12,0.000000,30.827515,1.585631,99,99,0,0,0,0,0
6,69999,4,60000,92,0,0,9999,0.100000,99,0,0.878599,13,0.000000,26.702354,1.873312,99,99,0,0,1,0,0
6,69999,5,60000,5,0,0,9999,0.100000,99,0,0.573332,12,0.000000,26.425329,0.189406,99,99,0,0,0,1,0
6,69999,6,60000,58,40000,40,9999,0.100000,99,0,0.000000,12,0.000000,24.391954,0.257267,99,99,0,0,0,0,0
6,69999,7,60000,14,20000,40,9999,0.100000,99,0,0.000000,12,0.000000,20.520736,0.362931,99,99,0,0,0,0,0
6,69999,8,60000,89,50000,40,9999,0.100000,99,0,0.000000,13,0.000000,34.670898,3.791420,99,99,0,0,0,0,0
6,69999,9,60000,14,20000,0,9999,0.100000,99,0,0.112807,12,0.000000,23.798721,0.111265,99,99,0,0,0,0,1
6,69999,10,60000,33,30000,0,9999,0.100000,99,0,0.163183,12,0.000000,25.501750,0.176244,99,99,0,0,0,1,0
6,69999,11,60000,78,40000,40,9999,0.100000,99,0,0.000000,13,0.000000,15.703772,0.228910,99,99,0,0,0,0,0
6,69999,12,60000,33,20000,40,9999,0.100000,99,0,0.000000,13,0.000000,23.646719,0.081329,99,99,0,0,0,0,0
6,69999,13,60000,33,30000,0,9999,0.100000,99,0,1.124725,12,0.000000,23.147286,0.672981,99,99,0,1,0,0,0
6,69999,14,60000,33,30000,41,9999,0.100000,99,0,0.000000,13,5.000000,28.099968,22.428708,99,99,0,0,0,0,0
6,69999,15,60000,33,30000,41,9999,0.100000,99,0,0.000000,12,3.000000,20.290413,13.513075,99,99,0,0,0,0,0
6,69999,16,60000,31,0,40,9999,0.100000,99,0,0.000000,12,1.000000,27.952956,4.461297,99,99,0,0,0,0,0
6,69999,17,60000,58,40000,40,9999,0.100000,99,0,0.000000,13,1.000000,27.114716,5.523282,99,99,0,0,0,0,0
6,69999,18,60000,92,0,0,9999,0.100000,99,0,0.536135,13,0.000000,26.145559,0.626113,99,99,0,0,0,1,0
6,69999,19,60000,5,0,0,9999,0.100000,99,0,0.618564,13,0.000000,25.588973,0.819194,99,99,0,0,0,1,0
6,69999,20,60000,58,40000,0,9999,0.100000,99,0,0.593253,13,0.000000,30.801818,0.706151,99,99,0,0,1,0,0
6,69999,21,60000,37,50000,40,9999,0.100000,99,0,0.000000,13,0.000000,23.997801,0.607456,99,99,0,0,0,0,0
6,69999,22,60000,31,0,40,9999,0.100000,99,0,0.000000,13,0.000000,29.913992,1.119923,99,99,0,0,0,0,0
6,69999,23,60000,92,0,0,9999,0.100000,99,0,0.797352,13,0.000000,21.009790,0.252956,99,99,0,0,0,0,1
6,69999,24,60000,78,40000,0,9999,0.100000,99,0,0.145624,13,0.000000,28.074210,0.902916,99,99,0,0,0,0,1
6,69999,25,60000,89,50000,0,9999,0.100000,99,0,0.054022,13,0.000000,26.261909,0.202006,99,99,0,0,1,0,0
6,69999,26,60000,33,20000,0,9999,0.100000,99,0,0.393523,13,0.000000,19.176485,1.041473,99,99,0,0,0,1,0
6,69999,27,60000,78,40000,40,9999,0.100000,99,0,0.000000,12,0.000000,33.035124,0.880397,99,99,0,0,0,0,0
6,69999,28,60000,14,20000,0,9999,0.100000,99,0,1.731105,12,0.000000,20.013904,0.417584,99,99,0,0,1,0,0
6,69999,29,60000,31,0,42,9999,0.100000,99,0,0.000000,13,10.000000,34.457007,20.844193,99,99,0,0,0,0,0
6,69999,30,60000,77,30000,40,9999,0.100000,99,0,0.000000,12,0.000000,14.283671,1.284536,99,99,0,0,0,0,0
6,69999,31,60000,78,40000,40,9999,0.100000,99,0,0.000000,13,0.000000,31.013011,0.602016,99,99,0,0,0,0,0
6,69999,32,60000,33,30000,0,9999,0.100000,99,0,0.010785,13,0.000000,32.419177,0.101216,99,99,0,0,0,1,0
6,69999,33,60000,33,20000,0,9999,0.100000,99,0,1.083218,13,0.000000,19.697693,0.739069,99,99,0,0,1,0,0
6,69999,34,60000,58,40000,0,9999,0.100000,99,0,1.179064,13,0.000000,27.344922,2.039637,99,99,0,1,0,0,0
6,69999,35,60000,11,50000,40,9999,0.100000,99,0,0.000000,13,1.000000,30.950694,26.720119,99,99,0,0,0,0,0
6,69999,36,60000,8,0,40,9999,0.100000,99,0,0.000000,13,0.000000,26.362247,0.387527,99,99,0,0,0,0,0
6,69999,37,60000,31,0,40,9999,0.100000,99,0,0.000000,13,1.000000,32.345830,3.705805,99,99,0,0,0,0,0
6,69999,38,60000,29,10000,0,9999,0.100000,99,0,0.000489,13,0.000000,24.069819,0.745375,99,99,0,0,1,0,0
6,69999,39,60000,33,30000,0,9999,0.100000,99,0,1.252169,13,0.000000,24.563809,0.402431,99,99,0,0,0,0,1
6,69999,40,60000,92,0,40,9999,0.100000,99,0,0.000000,13,0.000000,29.817244,2.026771,99,99,0,0,0,0,0
6,69999,41,60000,33,30000,40,9999,0.100000,99,0,0.000000,13,1.000000,29.658426,14.431655,99,99,0,0,0,0,0
6,69999,42,60000,86,30000,40,9999,0.100000,99,0,0.000000,12,0.000000,20.772871,0.470214,99,99,0,0,0,0,0
6,69999,43,60000,33,30000,40,9999,0.100000,99,0,0.000000,13,0.000000,30.026068,1.474554,99,99,0,0,0,0,0
6,69999,44,60000,77,30000,40,9999,0.100000,99,0,0.000000,12,0.000000,30.219763,2.770968,99,99,0,0,0,0,0
6,69999,45,60000,78,40000,0,9999,0.100000,99,0,2.251508,13,0.000000,23.144858,1.480985,99,99,0,1,0,0,0
6,69999,46,60000,33,20000,40,9999,0.100000,99,0,0.000000,13,0.000000,30.085073,1.104263,99,99,0,0,0,0,0
6,69999,47,60000,33,20000,0,9999,0.100000,99,0,0.096527,13,0.000000,21.164674,0.350078,99,99,0,0,0,0,1
6,69999,48,60000,92,0,40,9999,0.100000,99,0,0.000000,13,1.000000,30.313162,4.093127,99,99,0,0,0,0,0
6,69999,49,60000,11,50000,40,9999,0.100000,99,0,0.000000,13,1.000000,18.652740,20.835945,99,99,0,0,0,0,0
6,69999,50,60000,5,0,40,9999,0.100000,99,0,0.000000,12,0.000000,26.178130,0.123751,99,99,0,0,0,0,0
6,69999,51,60000,29,10000,42,9999,0.100000,99,0,0.000000,13,7.000000,29.138408,10.751245,99,99,0,0,0,0,0
6,69999,52,60000,33,20000,40,9999,0.100000,99,0,0.000000,13,0.000000,20.257355,0.386194,99,99,0,0,0,0,0
6,69999,53,60000,58,40000,40,9999,0.100000,99,0,0.000000,13,2.000000,29.948999,9.414069,99,99,0,0,0,0,0
6,69999,54,60000,5,0,40,9999,0.100000,99,0,0.000000,13,1.000000,29.753401,5.846941,99,99,0,0,0,0,0
6,69999,55,60000,58,40000,40,9999,0.100000,99,0,0.000000,13,0.000000,27.367917,0.661536,99,99,0,0,0,0,0
6,69999,56,60000,8,0,40,9999,0.100000,99,0,0.000000,13,0.000000,12.769089,1.181402,99,99,0,0,0,0,0
6,69999,57,60000,33,30000,40,9999,0.100000,99,0,0.000000,12,0.000000,25.858085,0.212247,99,99,0,0,0,0,0
6,69999,58,60000,33,30000,40,9999,0.100000,99,0,0.000000,13,1.000000,29.440377,11.117965,99,99,0,0,0,0,0
6,69999,59,60000,77,30000,42,9999,0.100000,99,0,0.000000,12,4.000000,15.126164,15.210701,99,99,0,0,0,0,0
6,69999,60,60000,11,50000,40,9999,0.100000,99,0,0.000000,13,0.000000,29.834310,3.040033,99,99,0,0,0,0,0
6,69999,61,60000,33,20000,0,9999,0.100000,99,0,0.051127,13,1.000000,13.314610,19.558823,99,99,0,0,0,1,0
6,69999,62,60000,5,0,0,9999,0.100000,99,0,0.441018,13,0.000000,30.166967,2.135841,99,99,0,1,0,0,0
6,69999,63,60000,92,0,0,9999,0.100000,99,0,0.470961,12,0.000000,28.895901,0.216983,99,99,0,0,0,0,1
6,69999,64,60000,29,10000,40,9999,0.100000,99,0,0.000000,12,0.000000,22.135219,0.659447,99,99,0,0,0,0,0
6,69999,65,60000,29,10000,90,9999,0.100000,99,0,0.000000,13,3.000000,30.553850,11.445559,99,99,1,0,0,0,0
6,69999,66,60000,58,40000,40,9999,0.100000,99,0,0.000000,13,0.000000,26.291189,0.620218,99,99,0,0,0,0,0
6,69999,67,60000,11,50000,40,9999,0.100000,99,0,0.000000,13,0.000000,23.370546,2.232270,99,99,0,0,0,0,0
6,69999,68,60000,31,0,40,9999,0.100000,99,0,0.000000,13,0.000000,31.795328,2.806753,99,99,0,0,0,0,0
6,69999,69,60000,31,0,41,9999,0.100000,99,0,0.000000,13,4.000000,26.771419,9.852792,99,99,0,0,0,0,0
6,69999,70,60000,8,0,40,9999,0.100000,99,0,0.000000,13,0.000000,24.208615,0.417159,99,99,0,0,0,0,0
6,69999,71,60000,92,0,40,9999,0.100000,99,0,0.000000,13,0.000000,28.764534,0.169562,99,99,0,0,0,0,0
6,69999,72,60000,78,40000,40,9999,0.100000,99,0,0.000000,12,1.000000,18.583609,14.318473,99,99,0,0,0,0,0
6,69999,73,60000,37,50000,40,9999,0.100000,99,0,0.000000,13,0.000000,24.365189,0.439516,99,99,0,0,0,0,0
6,69999,74,60000,78,40000,0,9999,0.100000,99,0,0.000142,13,0.000000,19.257003,0.145702,99,99,0,1,0,0,0
6,69999,75,60000,33,20000,90,9999,0.100000,99,0,0.000000,13,2.000000,28.730246,17.641952,99,99,1,0,0,0,0
6,69999,76,60000,33,20000,40,9999,0.100000,99,0,0.000000,13,0.000000,19.438779,0.883884,99,99,0,0,0,0,0
6,69999,77,60000,58,40000,40,9999,0.100000,99,0,0.000000,13,1.000000,22.986010,4.391207,99,99,0,0,0,0,0
6,69999,78,60000,37,50000,40,9999,0.100000,99,0,0.000000,13,0.000000,21.367503,0.975121,99,99,0,0,0,0,0
6,69999,79,60000,58,40000,40,9999,0.100000,99,0,0.000000,13,0.000000,14.967130,1.490554,99,99,0,0,0,0,0
6,69999,80,60000,78,40000,40,9999,0.100000,99,0,0.000000,12,0.000000,32.678847,0.122161,99,99,0,0,0,0,0
6,69999,81,60000,29,10000,41,9999,0.100000,99,0,0.000000,13,3.000000,25.179204,7.973392,99,99,0,0,0,0,0
6,69999,82,60000,33,20000,0,9999,0.100000,99,0,0.043096,13,0.000000,22.320512,2.063758,99,99,0,0,0,0,1
6,69999,83,60000,78,40000,40,9999,0.100000,99,0,0.000000,13,2.000000,30.022291,4.604829,99,99,0,0,0,0,0
6,69999,84,60000,8,0,40,9999,0.100000,99,0,0.000000,12,0.000000,25.755312,0.725998,99,99,0,0,0,0,0
6,69999,85,60000,75,50000,40,9999,0.100000,99,0,0.000000,13,0.000000,27.327742,0.946350,99,99,0,0,0,0,0
6,69999,86,60000,5,0,40,9999,0.100000,99,0,0.000000,12,0.000000,18.420438,0.241662,99,99,0,0,0,0,0
6,69999,87,60000,14,20000,40,9999,0.100000,99,0,0.000000,13,0.000000,35.758799,0.229584,99,99,0,0,0,0,0
6,69999,88,60000,58,40000,40,9999,0.100000,99,0,0.000000,13,2.000000,26.960226,7.786937,99,99,0,0,0,0,0
6,69999,89,60000,58,40000,40,9999,0.100000,99,0,0.000000,13,2.000000,32.401162,8.762186,99,99,0,0,0,0,0
6,69999,90,60000,92,0,40,9999,0.100000,99,0,0.000000,12,0.000000,24.102188,1.307326,99,99,0,0,0,0,0
6,69999,91,60000,33,20000,41,9999,0.100000,99,0,0.000000,13,4.000000,26.922805,9.345838,99,99,0,0,0,0,0
6,69999,92,60000,14,20000,0,9999,0.100000,99,0,1.196509,13,0.000000,27.343568,0.804708,99,99,0,1,0,0,0
6,69999,93,60000,5,0,0,9999,0.100000,99,0,0.389026,13,0.000000,14.313124,0.754787,99,99,0,0,0,1,0
6,69999,94,60000,11,50000,40,9999,0.100000,99,0,0.000000,13,0.000000,20.173400,0.677864,99,99,0,0,0,0,0
6,69999,95,60000,33,30000,0,9999,0.100000,99,0,0.300944,13,0.000000,27.449094,2.476238,99,99,0,0,0,0,1
6,69999,96,60000,11,50000,40,9999,0.100000,99,0,0.000000,13,0.000000,24.063860,1.458232,99,99,0,0,0,0,0
6,69999,97,60000,33,30000,40,9999,0.100000,99,0,0.000000,13,0.000000,28.441394,0.400628,99,99,0,0,0,0,0
6,69999,98,60000,37,50000,40,9999,0.100000,99,0,0.000000,13,0.000000,19.937146,0.980441,99,99,0,0,0,0,0
6,69999,99,60000,86,30000,40,9999,0.100000,99,0,0.000000,12,0.000000,26.033218,0.613848,99,99,0,0,0,0,0
7,79999,0,70000,78,40000,40,9999,0.100000,99,0,0.000000,13,0.000000,26.407384,0.390868,99,99,0,0,0,0,0
7,79999,1,70000,5,0,0,9999,0.100000,99,0,0.086717,13,0.000000,32.835002,0.525543,99,99,0,0,0,1,0
7,79999,2,70000,29,10000,1,9999,0.100000,99,0,1.081485,13,3.000000,27.427172,4.208527,99,99,0,0,1,0,0
7,79999,3,70000,37,50000,40,9999,0.100000,99,0,0.000000,13,3.000000,30.758784,5.497142,99,99,0,0,0,0,0
7,79999,4,70000,78,40000,41,9999,0.100000,99,0,0.000000,13,3.000000,27.365562,4.694147,99,99,0,0,0,0,0
7,79999,5,70000,33,20000,0,9999,0.100000,99,0,0.497979,13,0.000000,26.530078,0.172533,99,99,0,0,0,1,0
7,79999,6,70000,78,40000,40,9999,0.100000,99,0,0.000000,13,0.000000,24.336377,0.326681,99,99,0,0,0,0,0
7,79999,7,70000,14,20000,40,9999,0.100000,99,0,0.000000,13,0.000000,20.727189,0.283907,99,99,0,0,0,0,0
7,79999,8,70000,58,40000,40,9999,0.100000,99,0,0.000000,13,0.000000,34.637137,7.581892,99,99,0,0,0,0,0
7,79999,9,70000,31,0,0,9999,0.100000,99,0,0.106723,13,0.000000,23.770678,0.138153,99,99,0,0,0,0,1
7,79999,10,70000,33,30000,0,9999,0.100000,99,0,0.144144,13,0.000000,25.500667,0.184843,99,99,0,0,0,1,0
7,79999,11,70000,78,40000,40,9999,0.100000,99,0,0.000000,13,0.000000,15.701954,0.228588,99,99,0,0,0,0,0
7,79999,12,70000,33,30000,40,9999,0.100000,99,0,0.000000,13,0.000000,23.624754,0.126894,99,99,0,0,0,0,0
7,79999,13,70000,5,0,40,9999,0.100000,99,0,0.000000,13,0.000000,23.610137,0.679937,99,99,0,0,0,0,0
7,79999,14,70000,5,0,40,9999,0.100000,99,0,0.000000,13,2.000000,25.557001,25.744463,99,99,0,0,0,0,0
7,79999,15,70000,8,0,40,9999,0.100000,99,0,0.000000,13,1.000000,21.262612,7.691338,99,99,0,0,0,0,0
7,79999,16,70000,33,20000,40,9999,0.100000,99,0,0.000000,13,0.000000,26.372049,0.701954,99,99,0,0,0,0,0
7,79999,17,70000,58,40000,41,9999,0.100000,99,0,0.000000,13,3.000000,27.496229,4.464661,99,99,0,0,0,0,0
7,79999,18,70000,33,30000,40,9999,0.100000,99,0,0.000000,13,0.000000,26.107675,1.602153,99,99,0,0,0,0,0
7,79999,19,70000,37,50000,0,9999,0.100000,99,0,0.042001,13,0.000000,25.257162,0.553920,99,99,0,0,0,1,0
7,79999,20,70000,29,10000,0,9999,0.100000,99,0,13.776411,13,2.000000,30.697356,2.968940,99,99,0,0,1,0,0
7,79999,21,70000,75,50000,40,9999,0.100000,99,0,0.000000,13,0.000000,23.962601,0.500614,99,99,0,0,0,0,0
7,79999,22,70000,75,50000,40,9999,0.100000,99,0,0.000000,13,1.000000,29.780319,7.594128,99,99,0,0,0,0,0
7,79999,23,70000,58,40000,0,9999,0.100000,99,0,0.129439,13,0.000000,21.189438,0.122046,99,99,0,0,0,0,1
7,79999,24,70000,92,0,0,9999,0.100000,99,0,0.634868,13,0.000000,28.345667,0.595316,99,99,0,0,0,0,1
7,79999,25,70000,5,0,0,9999,0.100000,99,0,0.060512,13,0.000000,26.266323,0.195849,99,99,0,0,1,0,0
7,79999,26,70000,75,50000,40,9999,0.100000,99,0,0.000000,13,2.000000,20.057801,7.683131,99,99,0,0,0,0,0
7,79999,27,70000,92,0,40,9999,0.100000,99,0,0.000000,13,0.000000,32.984659,0.887031,99,99,0,0,0,0,0
7,79999,28,70000,8,0,40,9999,0.100000,99,0,0.000000,13,0.000000,19.660991,0.456064,99,99,0,0,0,0,0
7,79999,29,70000,78,40000,40,9999,0.100000,99,0,0.000000,13,0.000000,34.475961,0.235665,99,99,0,0,0,0,0
7,79999,30,70000,5,0,40,9999,0.100000,99,0,0.000000,13,0.000000,14.321890,3.073278,99,99,0,0,0,0,0
7,79999,31,70000,14,20000,40,9999,0.100000,99,0,0.000000,13,1.000000,31.075494,5.477105,99,99,0,0,0,0,0
7,79999,32,70000,14,20000,0,9999,0.100000,99,0,0.008230,13,0.000000,32.417466,0.103274,99,99,0,0,0,1,0
7,79999,33,70000,92,0,2,9999,0.100000,99,0,33.579135,13,6.000000,19.682295,6.940286,99,99,0,0,1,0,0
7,79999,34,70000,75,50000,0,9999,0.100000,99,0,0.281031,13,0.000000,27.916555,0.145910,99,99,0,1,0,0,0
7,79999,35,70000,37,50000,40,9999,0.100000,99,0,0.000000,13,0.000000,30.892657,5.314806,99,99,0,0,0,0,0
7,79999,36,70000,78,40000,40,9999,0.100000,99,0,0.000000,13,0.000000,26.466800,0.545614,99,99,0,0,0,0,0
7,79999,37,70000,29,10000,40,9999,0.100000,99,0,0.000000,13,3.000000,31.766264,14.106810,99,99,0,0,0,0,0
7,79999,38,70000,14,20000,0,9999,0.100000,99,0,0.001022,13,0.000000,23.660204,0.780011,99,99,0,0,1,0,0
7,79999,39,70000,58,40000,0,9999,0.100000,99,0,1.259903,13,0.000000,24.917262,0.377053,99,99,0,0,0,0,1
7,79999,40,70000,92,0,40,9999,0.100000,99,0,0.000000,13,0.000000,29.802221,0.191487,99,99,0,0,0,0,0
7,79999,41,70000,14,20000,40,9999,0.100000,99,0,0.000000,13,0.000000,29.197199,5.720544,99,99,0,0,0,0,0
7,79999,42,70000,29,10000,40,9999,0.100000,99,0,0.000000,13,0.000000,20.410071,0.505114,99,99,0,0,0,0,0
7,79999,43,70000,92,0,40,9999,0.100000,99,0,0.000000,13,1.000000,29.905453,9.920619,99,99,0,0,0,0,0
7,79999,44,70000,29,10000,40,9999,0.100000,99,0,0.000000,13,1.000000,30.055966,5.071538,99,99,0,0,0,0,0
7,79999,45,70000,33,20000,0,9999,0.100000,99,0,1.101757,13,0.000000,23.429237,2.438999,99,99,0,1,0,0,0
7,79999,46,70000,58,40000,40,9999,0.100000,99,0,0.000000,13,1.000000,29.993495,5.034239,99,99,0,0,0,0,0
7,79999,47,70000,37,50000,0,9999,0.100000,99,0,0.001981,13,0.000000,21.170574,0.624826,99,99,0,0,0,0,1
7,79999,48,70000,37,50000,1,9999,0.100000,99,0,34.665171,13,6.000000,29.330246,16.094867,99,99,0,1,0,0,0
7,79999,49,70000,8,0,40,9999,0.100000,99,0,0.000000,13,1.000000,19.325914,11.153209,99,99,0,0,0,0,0
7,79999,50,70000,31,0,40,9999,0.100000,99,0,0.000000,13,0.000000,26.180855,0.123352,99,99,0,0,0,0,0
7,79999,51,70000,31,0,40,9999,0.100000,99,0,0.000000,13,1.000000,30.290043,3.079629,99,99,0,0,0,0,0
7,79999,52,70000,33,20000,0,9999,0.100000,99,0,1.948839,13,0.000000,19.903608,0.423806,99,99,0,0,1,0,0
7,79999,53,70000,58,40000,40,9999,0.100000,99,0,0.000000,13,1.000000,29.211793,5.993660,99,99,0,0,0,0,0
7,79999,54,70000,14,20000,40,9999,0.100000,99,0,0.000000,13,0.000000,28.464170,1.657699,99,99,0,0,0,0,0
7,79999,55,70000,78,40000,40,9999,0.100000,99,0,0.000000,13,0.000000,27.612377,0.291332,99,99,0,0,0,0,0
7,79999,56,70000,11,50000,0,9999,0.100000,99,0,0.018369,13,0.000000,12.731485,0.865725,99,99,0,0,0,1,0
7,79999,57,70000,29,10000,0,9999,0.100000,99,0,0.911034,13,0.000000,25.863216,0.343510,99,99,0,0,0,1,0
7,79999,58,70000,92,0,40,9999,0.100000,99,0,0.000000,13,0.000000,28.906323,5.585020,99,99,0,0,0,0,0
7,79999,59,70000,11,50000,41,9999,0.100000,99,0,0.000000,13,3.000000,16.899016,11.619223,99,99,0,0,0,0,0
7,79999,60,70000,78,40000,40,9999,0.100000,99,0,0.000000,13,0.000000,29.764097,1.239153,99,99,0,0,0,0,0
7,79999,61,70000,78,40000,40,9999,0.100000,99,0,0.000000,13,0.000000,12.230659,0.948826,99,99,0,0,0,0,0
7,79999,62,70000,5,0,2,9999,0.100000,99,0,34.723366,13,7.000000,29.500296,24.605394,99,99,0,1,0,0,0
7,79999,63,70000,14,20000,0,9999,0.100000,99,0,0.240103,13,0.000000,28.987319,0.217280,99,99,0,0,0,0,1
7,79999,64,70000,5,0,40,9999,0.100000,99,0,0.000000,13,0.000000,22.139755,0.680138,99,99,0,0,0,0,0
7,79999,65,70000,58,40000,40,9999,0.100000,99,0,0.000000,13,0.000000,28.387572,2.907292,99,99,0,0,0,0,0
7,79999,66,70000,5,0,40,9999,0.100000,99,0,0.000000,13,0.000000,26.393061,1.104657,99,99,0,0,0,0,0
7,79999,67,70000,11,50000,40,9999,0.100000,99,0,0.000000,13,0.000000,23.567076,2.806207,99,99,0,0,0,0,0
7,79999,68,70000,8,0,40,9999,0.100000,99,0,0.000000,13,3.000000,31.775095,14.054052,99,99,0,0,0,0,0
7,79999,69,70000,58,40000,40,9999,0.100000,99,0,0.000000,13,2.000000,30.161606,4.884290,99,99,0,0,0,0,0
7,79999,70,70000,8,0,40,9999,0.100000,99,0,0.000000,13,0.000000,24.555847,0.386562,99,99,0,0,0,0,0
7,79999,71,70000,5,0,40,9999,0.100000,99,0,0.000000,13,0.000000,28.833774,0.149302,99,99,0,0,0,0,0
7,79999,72,70000,33,30000,40,9999,0.100000,99,0,0.000000,13,1.000000,20.011901,4.741244,99,99,0,0,0,0,0
7,79999,73,70000,37,50000,40,9999,0.100000,99,0,0.000000,13,0.000000,24.715277,0.393097,99,99,0,0,0,0,0
7,79999,74,70000,37,50000,0,9999,0.100000,99,0,0.026004,13,0.000000,19.253496,0.140131,99,99,0,1,0,0,0
7,79999,75,70000,8,0,40,9999,0.100000,99,0,0.000000,13,0.000000,28.663046,5.805559,99,99,0,0,0,0,0
7,79999,76,70000,37,50000,42,9999,0.100000,99,0,0.000000,13,6.000000,19.421580,6.996395,99,99,0,0,0,0,0
7,79999,77,70000,78,40000,0,9999,0.100000,99,0,1.010315,13,0.000000,23.445158,0.655674,99,99,0,1,0,0,0
7,79999,78,70000,75,50000,40,9999,0.100000,99,0,0.000000,13,0.000000,21.382845,0.852655,99,99,0,0,0,0,0
7,79999,79,70000,75,50000,40,9999,0.100000,99,0,0.000000,13,0.000000,14.169119,0.009405,99,99,0,0,0,0,0
7,79999,80,70000,11,50000,40,9999,0.100000,99,0,0.000000,13,0.000000,32.676941,0.117326,99,99,0,0,0,0,0
7,79999,81,70000,11,50000,40,9999,0.100000,99,0,0.000000,13,0.000000,24.912581,0.176205,99,99,0,0,0,0,0
7,79999,82,70000,8,0,0,9999,0.100000,99,0,0.056279,13,0.000000,22.329558,0.162008,99,99,0,0,0,0,1
7,79999,83,70000,37,50000,40,9999,0.100000,99,0,0.000000,13,0.000000,29.787563,0.713307,99,99,0,0,0,0,0
7,79999,84,70000,5,0,40,9999,0.100000,99,0,0.000000,13,0.000000,25.433877,0.206428,99,99,0,0,0,0,0
7,79999,85,70000,75,50000,40,9999,0.100000,99,0,0.000000,13,0.000000,27.691550,1.123505,99,99,0,0,0,0,0
7,79999,86,70000,58,40000,40,9999,0.100000,99,0,0.000000,13,0.000000,18.417232,0.240670,99,99,0,0,0,0,0
7,79999,87,70000,8,0,40,9999,0.100000,99,0,0.000000,13,0.000000,35.759531,0.229049,99,99,0,0,0,0,0
7,79999,88,70000,33,30000,94,9999,0.100000,99,0,57.694235,13,11.000000,24.976917,19.784601,99,99,1,0,0,0,0
7,79999,89,70000,33,30000,40,9999,0.100000,99,0,0.000000,13,0.000000,31.144068,6.671518,99,99,0,0,0,0,0
7,79999,90,70000,92,0,40,9999,0.100000,99,0,0.000000,13,0.000000,23.692491,1.317385,99,99,0,0,0,0,0
7,79999,91,70000,37,50000,40,9999,0.100000,99,0,0.000000,13,1.000000,30.237371,6.343472,99,99,0,0,0,0,0
7,79999,92,70000,29,10000,0,9999,0.100000,99,0,0.204333,13,0.000000,27.706997,0.981544,99,99,0,1,0,0,0
7,79999,93,70000,33,30000,0,9999,0.100000,99,0,0.005096,13,0.000000,14.363819,1.028003,99,99,0,0,0,1,0
7,79999,94,70000,33,30000,40,9999,0.100000,99,0,0.000000,13,0.000000,20.227002,0.356812,99,99,0,0,0,0,0
7,79999,95,70000,11,50000,0,9999,0.100000,99,0,0.185711,13,0.000000,27.289818,0.222499,99,99,0,0,0,0,1
7,79999,96,70000,92,0,40,9999,0.100000,99,0,0.000000,13,0.000000,24.033286,1.569991,99,99,0,0,0,0,0
7,79999,97,70000,58,40000,40,9999,0.100000,99,0,0.000000,13,0.000000,28.458051,0.351762,99,99,0,0,0,0,0
7,79999,98,70000,11,50000,42,9999,0.100000,99,0,0.000000,13,6.000000,19.926303,6.938506,99,99,0,0,0,0,0
7,79999,99,70000,75,50000,40,9999,0.100000,99,0,0.000000,13,0.000000,25.985492,2.582103,99,99,0,0,0,0,0
8,89999,0,80000,31,0,40,9999,0.100000,99,0,0.000000,13,0.000000,26.510704,0.444993,99,99,0,0,0,0,0
8,89999,1,80000,31,0,0,9999,0.100000,99,0,0.093053,13,0.000000,32.777865,0.534384,99,99,0,0,0,1,0
8,89999,2,80000,31,0,40,9999,0.100000,99,0,0.000000,13,0.000000,30.683784,0.986563,99,99,0,0,0,0,0
8,89999,3,80000,33,30000,40,9999,0.100000,99,0,0.000000,13,2.000000,30.071224,7.892279,99,99,0,0,0,0,0
8,89999,4,80000,14,20000,0,9999,0.100000,99,0,0.767216,13,0.000000,30.512606,0.986971,99,99,0,0,1,0,0
8,89999,5,80000,29,10000,0,9999,0.100000,99,0,0.974887,13,0.000000,26.637654,0.260092,99,99,0,0,0,1,0
8,89999,6,80000,11,50000,40,9999,0.100000,99,0,0.000000,13,0.000000,24.215877,0.305341,99,99,0,0,0,0,0
8,89999,7,80000,11,50000,40,9999,0.100000,99,0,0.000000,13,0.000000,20.775623,0.282468,99,99,0,0,0,0,0
8,89999,8,80000,37,50000,40,9999,0.100000,99,0,0.000000,13,0.000000,34.825706,9.045683,99,99,0,0,0,0,0
8,89999,9,80000,58,40000,0,9999,0.100000,99,0,0.111184,13,0.000000,23.684935,0.143868,99,99,0,0,0,0,1
8,89999,10,80000,92,0,0,9999,0.100000,99,0,0.009828,13,0.000000,25.506848,0.148967,99,99,0,0,0,1,0
8,89999,11,80000,37,50000,40,9999,0.100000,99,0,0.000000,13,0.000000,15.701056,0.232402,99,99,0,0,0,0,0
8,89999,12,80000,33,20000,40,9999,0.100000,99,0,0.000000,13,0.000000,23.547742,0.135921,99,99,0,0,0,0,0
8,89999,13,80000,75,50000,0,9999,0.100000,99,0,0.090559,13,0.000000,24.066953,2.340718,99,99,0,1,0,0,0
8,89999,14,80000,5,0,40,9999,0.100000,99,0,0.000000,13,0.000000,26.380337,24.515488,99,99,0,0,0,0,0
8,89999,15,80000,31,0,0,9999,0.100000,99,0,0.048677,13,1.000000,21.619964,3.039980,99,99,0,0,0,0,1
8,89999,16,80000,14,20000,40,9999,0.100000,99,0,0.000000,13,0.000000,26.500488,0.693302,99,99,0,0,0,0,0
8,89999,17,80000,33,20000,40,9999,0.100000,99,0,0.000000,13,0.000000,30.848487,1.312586,99,99,0,0,0,0,0
8,89999,18,80000,37,50000,40,9999,0.100000,99,0,0.000000,13,1.000000,26.397123,1.204062,99,99,0,0,0,0,0
8,89999,19,80000,78,40000,0,9999,0.100000,99,0,0.002543,13,0.000000,25.210326,0.610335,99,99,0,0,0,1,0
8,89999,20,80000,33,20000,0,9999,0.100000,99,0,0.008840,13,0.000000,31.571742,0.149381,99,99,0,0,1,0,0
8,89999,21,80000,33,30000,40,9999,0.100000,99,0,0.000000,13,0.000000,23.866843,0.380826,99,99,0,0,0,0,0
8,89999,22,80000,14,20000,40,9999,0.100000,99,0,0.000000,13,3.000000,30.510168,6.378257,99,99,0,0,0,0,0
8,89999,23,80000,29,10000,0,9999,0.100000,99,0,0.117635,13,0.000000,21.221420,0.111312,99,99,0,0,0,0,1
8,89999,24,80000,92,0,0,9999,0.100000,99,0,2.491044,13,0.000000,28.319989,0.936548,99,99,0,0,0,0,1
8,89999,25,80000,78,40000,0,9999,0.100000,99,0,0.082999,13,0.000000,26.275250,0.176478,99,99,0,0,1,0,0
8,89999,26,80000,14,20000,40,9999,0.100000,99,0,0.000000,13,0.000000,22.305127,0.470788,99,99,0,0,0,0,0
8,89999,27,80000,8,0,40,9999,0.100000,99,0,0.000000,13,0.000000,32.927469,0.974076,99,99,0,0,0,0,0
8,89999,28,80000,29,10000,0,9999,0.100000,99,0,1.973386,13,0.000000,19.265376,0.473849,99,99,0,0,1,0,0
8,89999,29,80000,5,0,40,9999,0.100000,99,0,0.000000,13,0.000000,34.613406,0.091411,99,99,0,0,0,0,0
8,89999,30,80000,5,0,40,9999,0.100000,99,0,0.000000,13,0.000000,14.701622,3.182587,99,99,0,0,0,0,0
8,89999,31,80000,33,20000,40,9999,0.100000,99,0,0.000000,13,2.000000,29.572935,5.321231,99,99,0,0,0,0,0
8,89999,32,80000,8,0,0,9999,0.100000,99,0,0.010346,13,0.000000,32.416059,0.101160,99,99,0,0,0,1,0
8,89999,33,80000,31,0,0,9999,0.100000,99,0,2.304758,13,0.000000,23.014665,0.743885,99,99,0,0,1,0,0
8,89999,34,80000,75,50000,0,9999,0.100000,99,0,0.229124,13,0.000000,27.875420,0.137812,99,99,0,1,0,0,0
8,89999,35,80000,33,20000,40,9999,0.100000,99,0,0.000000,13,1.000000,30.976677,8.244351,99,99,0,0,0,0,0
8,89999,36,80000,5,0,40,9999,0.100000,99,0,0.000000,13,0.000000,26.569572,0.734749,99,99,0,0,0,0,0
8,89999,37,80000,14,20000,40,9999,0.100000,99,0,0.000000,13,2.000000,33.154175,11.623702,99,99,0,0,0,0,0
8,89999,38,80000,33,30000,0,9999,0.100000,99,0,0.004226,13,0.000000,23.191108,0.607068,99,99,0,0,1,0,0
8,89999,39,80000,92,0,0,9999,0.100000,99,0,0.346473,13,0.000000,25.211609,0.182751,99,99,0,0,0,0,1
8,89999,40,80000,78,40000,40,9999,0.100000,99,0,0.000000,13,0.000000,29.802352,0.215384,99,99,0,0,0,0,0
8,89999,41,80000,33,30000,40,9999,0.100000,99,0,0.000000,13,0.000000,29.268400,1.490755,99,99,0,0,0,0,0
8,89999,42,80000,75,50000,40,9999,0.100000,99,0,0.000000,13,0.000000,20.007571,0.528826,99,99,0,0,0,0,0
8,89999,43,80000,14,20000,41,9999,0.100000,99,0,0.000000,13,5.000000,30.536191,7.621471,99,99,0,0,0,0,0
8,89999,44,80000,29,10000,42,9999,0.100000,99,0,0.000000,13,7.000000,30.683997,8.478759,99,99,0,0,0,0,0
8,89999,45,80000,5,0,40,9999,0.100000,99,0,0.000000,13,0.000000,23.423640,13.988768,99,99,0,0,0,0,0
8,89999,46,80000,14,20000,40,9999,0.100000,99,0,0.000000,13,0.000000,30.554273,1.339518,99,99,0,0,0,0,0
8,89999,47,80000,75,50000,0,9999,0.100000,99,0,0.272198,13,0.000000,21.089966,0.139931,99,99,0,0,0,0,1
8,89999,48,80000,75,50000,40,9999,0.100000,99,0,0.000000,13,2.000000,31.366629,20.656596,99,99,0,0,0,0,0
8,89999,49,80000,29,10000,43,9999,0.100000,99,0,0.000000,13,7.000000,20.040795,8.889288,99,99,0,0,0,0,0
8,89999,50,80000,8,0,40,9999,0.100000,99,0,0.000000,13,0.000000,26.188470,0.088071,99,99,0,0,0,0,0
8,89999,51,80000,58,40000,40,9999,0.100000,99,0,0.000000,13,2.000000,30.793486,7.448339,99,99,0,0,0,0,0
8,89999,52,80000,75,50000,40,9999,0.100000,99,0,0.000000,13,0.000000,19.507160,0.432498,99,99,0,0,0,0,0
8,89999,53,80000,5,0,43,9999,0.100000,99,0,0.000000,13,12.000000,29.214876,14.216325,99,99,0,0,0,0,0
8,89999,54,80000,33,20000,41,9999,0.100000,99,0,0.000000,13,3.000000,28.404339,4.224389,99,99,0,0,0,0,0
8,89999,55,80000,75,50000,40,9999,0.100000,99,0,0.000000,13,0.000000,27.587805,0.727732,99,99,0,0,0,0,0
8,89999,56,80000,31,0,0,9999,0.100000,99,0,0.005438,13,1.000000,12.525380,4.159148,99,99,0,0,0,1,0
8,89999,57,80000,8,0,40,9999,0.100000,99,0,0.000000,13,1.000000,25.977935,1.127902,99,99,0,0,0,0,0
8,89999,58,80000,33,30000,40,9999,0.100000,99,0,0.000000,13,0.000000,29.332935,6.357972,99,99,0,0,0,0,0
8,89999,59,80000,48,70000,40,9999,0.100000,99,0,0.000000,13,0.000000,20.089555,0.972703,99,99,0,0,0,0,0
8,89999,60,80000,8,0,40,9999,0.100000,99,0,0.000000,13,0.000000,29.779946,1.230970,99,99,0,0,0,0,0
8,89999,61,80000,29,10000,41,9999,0.100000,99,0,0.000000,13,2.000000,11.885013,7.674427,99,99,0,0,0,0,0
8,89999,62,80000,29,10000,40,9999,0.100000,99,0,0.000000,13,0.000000,29.830855,6.734932,99,99,0,0,0,0,0
8,89999,63,80000,92,0,40,9999,0.100000,99,0,0.000000,13,0.000000,29.001638,0.419287,99,99,0,0,0,0,0
8,89999,64,80000,48,70000,40,9999,0.100000,99,0,0.000000,13,0.000000,22.096843,0.749860,99,99,0,0,0,0,0
8,89999,65,80000,11,50000,40,9999,0.100000,99,0,0.000000,13,0.000000,28.306712,2.595846,99,99,0,0,0,0,0
8,89999,66,80000,31,0,40,9999,0.100000,99,0,0.000000,13,0.000000,26.493121,1.491895,99,99,0,0,0,0,0
8,89999,67,80000,37,50000,0,9999,0.100000,99,0,1.881982,13,0.000000,23.708592,0.408257,99,99,0,1,0,0,0
8,89999,68,80000,8,0,40,9999,0.100000,99,0,0.000000,13,2.000000,33.041305,11.793845,99,99,0,0,0,0,0
8,89999,69,80000,78,40000,40,9999,0.100000,99,0,0.000000,13,0.000000,29.852982,1.125976,99,99,0,0,0,0,0
8,89999,70,80000,8,0,40,9999,0.100000,99,0,0.000000,13,0.000000,24.855906,0.144109,99,99,0,0,0,0,0
8,89999,71,80000,78,40000,0,9999,0.100000,99,0,0.799265,13,0.000000,28.819173,0.395135,99,99,0,0,0,0,1
8,89999,72,80000,78,40000,40,9999,0.100000,99,0,0.000000,13,0.000000,21.878340,0.607547,99,99,0,0,0,0,0
8,89999,73,80000,29,10000,40,9999,0.100000,99,0,0.000000,13,0.000000,25.011956,0.153837,99,99,0,0,0,0,0
8,89999,74,80000,75,50000,0,9999,0.100000,99,0,0.071435,13,0.000000,19.248001,0.141095,99,99,0,1,0,0,0
8,89999,75,80000,8,0,40,9999,0.100000,99,0,0.000000,13,0.000000,28.565211,3.400823,99,99,0,0,0,0,0
8,89999,76,80000,33,30000,40,9999,0.100000,99,0,0.000000,13,0.000000,22.788259,0.850893,99,99,0,0,0,0,0
8,89999,77,80000,92,0,40,9999,0.100000,99,0,0.000000,13,0.000000,23.898430,2.430735,99,99,0,0,0,0,0
8,89999,78,80000,58,40000,40,9999,0.100000,99,0,0.000000,13,0.000000,21.341163,0.811651,99,99,0,0,0,0,0
8,89999,79,80000,33,20000,40,9999,0.100000,99,0,0.000000,13,0.000000,14.169303,0.009483,99,99,0,0,0,0,0
8,89999,80,80000,8,0,40,9999,0.100000,99,0,0.000000,13,0.000000,32.675330,0.119969,99,99,0,0,0,0,0
8,89999,81,80000,37,50000,40,9999,0.100000,99,0,0.000000,13,0.000000,24.861143,0.107150,99,99,0,0,0,0,0
8,89999,82,80000,48,70000,40,9999,0.100000,99,0,0.000000,13,0.000000,22.337260,2.006914,99,99,0,0,0,0,0
8,89999,83,80000,33,20000,40,9999,0.100000,99,0,0.000000,13,0.000000,29.806652,0.696911,99,99,0,0,0,0,0
8,89999,84,80000,75,50000,40,9999,0.100000,99,0,0.000000,13,0.000000,25.396545,0.144784,99,99,0,0,0,0,0
8,89999,85,80000,78,40000,40,9999,0.100000,99,0,0.000000,13,0.000000,27.912233,0.968758,99,99,0,0,0,0,0
8,89999,86,80000,92,0,40,9999,0.100000,99,0,0.000000,13,0.000000,18.415395,0.236722,99,99,0,0,0,0,0
8,89999,87,80000,37,50000,40,9999,0.100000,99,0,0.000000,13,0.000000,35.759855,0.228480,99,99,0,0,0,0,0
8,89999,88,80000,75,50000,91,9999,0.100000,99,0,31.526962,13,6.000000,29.515142,28.870705,99,99,1,0,0,0,0
8,89999,89,80000,31,0,40,9999,0.100000,99,0,0.000000,13,1.000000,30.248157,9.156008,99,99,0,0,0,0,0
8,89999,90,80000,29,10000,43,9999,0.100000,99,0,0.000000,13,9.000000,23.223690,19.279675,99,99,0,0,0,0,0
8,89999,91,80000,33,20000,40,9999,0.100000,99,0,0.000000,13,3.000000,30.006590,7.596439,99,99,0,0,0,0,0
8,89999,92,80000,48,70000,0,9999,0.100000,99,0,0.269550,13,0.000000,27.698546,0.313760,99,99,0,1,0,0,0
8,89999,93,80000,11,50000,0,9999,0.100000,99,0,0.046566,13,0.000000,14.749877,0.288026,99,99,0,0,0,1,0
8,89999,94,80000,8,0,40,9999,0.100000,99,0,0.000000,13,0.000000,20.160093,0.155197,99,99,0,0,0,0,0
8,89999,95,80000,31,0,0,9999,0.100000,99,0,0.671394,13,0.000000,27.339359,0.184234,99,99,0,0,0,0,1
8,89999,96,80000,5,0,40,9999,0.100000,99,0,0.000000,13,0.000000,23.944112,1.641859,99,99,0,0,0,0,0
8,89999,97,80000,33,30000,40,9999,0.100000,99,0,0.000000,13,0.000000,28.374203,0.586156,99,99,0,0,0,0,0
8,89999,98,80000,29,10000,40,9999,0.100000,99,0,0.000000,13,0.000000,23.235664,0.609401,99,99,0,0,0,0,0
8,89999,99,80000,48,70000,0,9999,0.100000,99,0,5.744649,13,1.000000,26.124622,1.145072,99,99,0,0,0,1,0
9,99999,0,90000,14,20000,40,9999,0.100000,99,0,0.000000,13,0.000000,26.719362,0.647843,99,99,0,0,0,0,0
9,99999,1,90000,29,10000,0,9999,0.100000,99,0,0.239431,13,0.000000,32.724410,0.540066,99,99,0,0,0,1,0
9,99999,2,90000,78,40000,0,9999,0.100000,99,0,1.004116,13,0.000000,30.541964,1.204691,99,99,0,0,1,0,0
9,99999,3,90000,11,50000,40,9999,0.100000,99,0,0.000000,13,1.000000,30.316512,3.064723,99,99,0,0,0,0,0
9,99999,4,90000,33,30000,40,9999,0.100000,99,0,0.000000,13,0.000000,30.432790,1.405304,99,99,0,0,0,0,0
9,99999,5,90000,8,0,0,9999,0.100000,99,0,2.227825,13,0.000000,26.863854,0.436623,99,99,0,0,0,1,0
9,99999,6,90000,37,50000,40,9999,0.100000,99,0,0.000000,13,0.000000,24.092876,0.742211,99,99,0,0,0,0,0
9,99999,7,90000,11,50000,40,9999,0.100000,99,0,0.000000,13,0.000000,20.821757,0.234748,99,99,0,0,0,0,0
9,99999,8,90000,37,50000,40,9999,0.100000,99,0,0.000000,13,0.000000,34.846332,8.972278,99,99,0,0,0,0,0
9,99999,9,90000,5,0,0,9999,0.100000,99,0,0.504565,13,0.000000,23.588174,0.618829,99,99,0,0,0,0,1
9,99999,10,90000,33,30000,0,9999,0.100000,99,0,0.002807,13,0.000000,25.509369,0.137759,99,99,0,0,0,1,0
9,99999,11,90000,48,70000,40,9999,0.100000,99,0,0.000000,13,0.000000,15.698863,0.230675,99,99,0,0,0,0,0
9,99999,12,90000,29,10000,40,9999,0.100000,99,0,0.000000,13,0.000000,23.457098,0.527993,99,99,0,0,0,0,0
9,99999,13,90000,5,0,0,9999,0.100000,99,0,0.813397,13,0.000000,24.701259,0.463647,99,99,0,1,0,0,0
9,99999,14,90000,14,20000,40,9999,0.100000,99,0,0.000000,13,0.000000,26.452794,24.009966,99,99,0,0,0,0,0
9,99999,15,90000,58,40000,0,9999,0.100000,99,0,0.077374,13,0.000000,22.451021,0.110929,99,99,0,0,0,0,1
9,99999,16,90000,33,20000,40,9999,0.100000,99,0,0.000000,13,0.000000,26.694799,0.572327,99,99,0,0,0,0,0
9,99999,17,90000,75,50000,40,9999,0.100000,99,0,0.000000,13,0.000000,30.656606,1.578883,99,99,0,0,0,0,0
9,99999,18,90000,75,50000,40,9999,0.100000,99,0,0.000000,13,1.000000,27.114060,1.233345,99,99,0,0,0,0,0
9,99999,19,90000,33,20000,0,9999,0.100000,99,0,0.116549,13,0.000000,25.209992,0.563424,99,99,0,0,0,1,0
9,99999,20,90000,5,0,0,9999,0.100000,99,0,0.021100,13,0.000000,31.566235,0.169654,99,99,0,0,1,0,0
9,99999,21,90000,5,0,40,9999,0.100000,99,0,0.000000,13,0.000000,23.762135,0.887212,99,99,0,0,0,0,0
9,99999,22,90000,37,50000,42,9999,0.100000,99,0,0.000000,13,7.000000,29.931127,23.235462,99,99,0,0,0,0,0
9,99999,23,90000,37,50000,0,9999,0.100000,99,0,0.121567,13,0.000000,21.246409,0.118833,99,99,0,0,0,0,1
9,99999,24,90000,58,40000,0,9999,0.100000,99,0,3.413340,13,1.000000,28.200799,1.322666,99,99,0,0,0,0,1
9,99999,25,90000,29,10000,0,9999,0.100000,99,0,1.496100,13,0.000000,26.280734,0.441104,99,99,0,0,1,0,0
9,99999,26,90000,33,20000,0,9999,0.100000,99,0,0.016892,13,1.000000,22.422249,2.500308,99,99,0,0,0,1,0
9,99999,27,90000,37,50000,40,9999,0.100000,99,0,0.000000,13,0.000000,32.874458,0.930172,99,99,0,0,0,0,0
9,99999,28,90000,29,10000,0,9999,0.100000,99,0,2.114144,13,0.000000,18.858914,0.484197,99,99,0,0,1,0,0
9,99999,29,90000,31,0,40,9999,0.100000,99,0,0.000000,13,0.000000,34.619409,0.094303,99,99,0,0,0,0,0
9,99999,30,90000,37,50000,40,9999,0.100000,99,0,0.000000,13,0.000000,14.934905,1.886185,99,99,0,0,0,0,0
9,99999,31,90000,75,50000,40,9999,0.100000,99,0,0.000000,13,2.000000,29.079147,2.579148,99,99,0,0,0,0,0
9,99999,32,90000,33,30000,0,9999,0.100000,99,0,0.010015,13,0.000000,32.414355,0.103553,99,99,0,0,0,1,0
9,99999,33,90000,33,20000,0,9999,0.100000,99,0,1.574189,13,0.000000,23.308751,0.672558,99,99,0,0,1,0,0
9,99999,34,90000,48,70000,0,9999,0.100000,99,0,1.216326,13,0.000000,27.845138,0.526676,99,99,0,1,0,0,0
9,99999,35,90000,11,50000,40,9999,0.100000,99,0,0.000000,13,2.000000,31.130433,25.141059,99,99,0,0,0,0,0
9,99999,36,90000,14,20000,40,9999,0.100000,99,0,0.000000,13,0.000000,26.786903,1.393027,99,99,0,0,0,0,0
9,99999,37,90000,33,20000,40,9999,0.100000,99,0,0.000000,13,1.000000,32.583430,9.735152,99,99,0,0,0,0,0
9,99999,38,90000,48,70000,40,9999,0.100000,99,0,0.000000,13,0.000000,23.040120,2.502512,99,99,0,0,0,0,0
9,99999,39,90000,78,40000,0,9999,0.100000,99,0,0.693400,13,0.000000,25.273953,0.213516,99,99,0,0,0,0,1
9,99999,40,90000,58,40000,40,9999,0.100000,99,0,0.000000,13,0.000000,29.802146,0.258591,99,99,0,0,0,0,0
9,99999,41,90000,58,40000,40,9999,0.100000,99,0,0.000000,13,2.000000,28.935842,2.803387,99,99,0,0,0,0,0
9,99999,42,90000,8,0,40,9999,0.100000,99,0,0.000000,13,0.000000,19.594660,0.535422,99,99,0,0,0,0,0
9,99999,43,90000,29,10000,40,9999,0.100000,99,0,0.000000,13,0.000000,28.604132,0.209065,99,99,0,0,0,0,0
9,99999,44,90000,8,0,40,9999,0.100000,99,0,0.000000,13,0.000000,25.824554,0.229147,99,99,0,0,0,0,0
9,99999,45,90000,29,10000,0,9999,0.100000,99,0,0.996745,13,1.000000,22.885659,6.571292,99,99,0,1,0,0,0
9,99999,46,90000,75,50000,40,9999,0.100000,99,0,0.000000,13,0.000000,30.821778,0.981188,99,99,0,0,0,0,0
9,99999,47,90000,29,10000,0,9999,0.100000,99,0,0.801708,13,0.000000,21.081737,0.434526,99,99,0,0,0,0,1
9,99999,48,90000,78,40000,40,9999,0.100000,99,0,0.000000,13,1.000000,32.711771,5.972476,99,99,0,0,0,0,0
9,99999,49,90000,58,40000,40,9999,0.100000,99,0,0.000000,13,0.000000,12.493723,0.513895,99,99,0,0,0,0,0
9,99999,50,90000,29,10000,40,9999,0.100000,99,0,0.000000,13,0.000000,26.189639,0.594618,99,99,0,0,0,0,0
9,99999,51,90000,33,20000,40,9999,0.100000,99,0,0.000000,13,0.000000,31.319873,0.969665,99,99,0,0,0,0,0
9,99999,52,90000,11,50000,40,9999,0.100000,99,0,0.000000,13,0.000000,19.100273,0.453636,99,99,0,0,0,0,0
9,99999,53,90000,33,30000,40,9999,0.100000,99,0,0.000000,13,0.000000,35.635585,0.228145,99,99,0,0,0,0,0
9,99999,54,90000,78,40000,40,9999,0.100000,99,0,0.000000,13,0.000000,31.111495,0.133956,99,99,0,0,0,0,0
9,99999,55,90000,31,0,40,9999,0.100000,99,0,0.000000,13,1.000000,27.474725,1.500885,99,99,0,0,0,0,0
9,99999,56,90000,8,0,0,9999,0.100000,99,0,0.072861,13,0.000000,11.622705,0.289556,99,99,0,0,0,1,0
9,99999,57,90000,48,70000,40,9999,0.100000,99,0,0.000000,13,1.000000,26.711260,1.139756,99,99,0,0,0,0,0
9,99999,58,90000,5,0,40,9999,0.100000,99,0,0.000000,13,1.000000,29.537034,4.584940,99,99,0,0,0,0,0
9,99999,59,90000,37,50000,40,9999,0.100000,99,0,0.000000,13,0.000000,19.964579,0.477424,99,99,0,0,0,0,0
9,99999,60,90000,5,0,40,9999,0.100000,99,0,0.000000,13,0.000000,29.769454,1.589177,99,99,0,0,0,0,0
9,99999,61,90000,33,30000,41,9999,0.100000,99,0,0.000000,13,2.000000,14.670610,8.044275,99,99,0,0,0,0,0
9,99999,62,90000,8,0,40,9999,0.065000,99,0,0.000000,13,1.000000,30.450313,6.451369,99,99,0,0,0,0,0
9,99999,63,90000,37,50000,0,9999,0.100000,99,0,7.431876,13,2.000000,28.900485,2.311864,99,99,0,0,0,0,1
9,99999,64,90000,5,0,40,9999,0.100000,99,0,0.000000,13,0.000000,22.060986,0.673157,99,99,0,0,0,0,0
9,99999,65,90000,75,50000,40,9999,0.100000,99,0,0.000000,13,1.000000,28.196273,1.948054,99,99,0,0,0,0,0
9,99999,66,90000,78,40000,40,9999,0.100000,99,0,0.000000,13,0.000000,26.711930,2.588519,99,99,0,0,0,0,0
9,99999,67,90000,58,40000,90,9999,0.100000,99,0,4.048846,13,1.000000,23.743975,12.667769,99,99,1,0,0,0,0
9,99999,68,90000,88,80000,40,9999,0.100000,99,0,0.000000,13,1.000000,32.470917,10.032809,99,99,0,0,0,0,0
9,99999,69,90000,29,10000,40,9999,0.100000,99,0,0.000000,13,2.000000,29.914329,5.601975,99,99,0,0,0,0,0
9,99999,70,90000,37,50000,40,9999,0.100000,99,0,0.000000,13,0.000000,24.925250,0.386956,99,99,0,0,0,0,0
9,99999,71,90000,33,20000,40,9999,0.100000,99,0,0.000000,13,2.000000,28.690446,2.133190,99,99,0,0,0,0,0
9,99999,72,90000,29,10000,40,9999,0.100000,99,0,0.000000,13,1.000000,22.026234,1.436915,99,99,0,0,0,0,0
9,99999,73,90000,58,40000,40,9999,0.100000,99,0,0.000000,13,0.000000,25.077705,0.190181,99,99,0,0,0,0,0
9,99999,74,90000,8,0,0,9999,0.100000,99,0,0.078216,13,0.000000,19.235611,0.144649,99,99,0,1,0,0,0
9,99999,75,90000,8,0,40,9999,0.100000,99,0,0.000000,13,1.000000,28.303672,3.243676,99,99,0,0,0,0,0
9,99999,76,90000,78,40000,40,9999,0.100000,99,0,0.000000,13,0.000000,23.077852,0.774219,99,99,0,0,0,0,0
9,99999,77,90000,29,10000,40,9999,0.100000,99,0,0.000000,13,0.000000,24.501809,0.579274,99,99,0,0,0,0,0
9,99999,78,90000,5,0,44,9999,0.100000,99,0,0.000000,13,9.000000,21.306422,18.677814,99,99,0,0,0,0,0
9,99999,79,90000,75,50000,40,9999,0.100000,99,0,0.000000,13,0.000000,14.169356,0.009460,99,99,0,0,0,0,0
9,99999,80,90000,58,40000,40,9999,0.100000,99,0,0.000000,13,0.000000,32.673406,0.119421,99,99,0,0,0,0,0
9,99999,81,90000,33,20000,40,9999,0.100000,99,0,0.000000,13,0.000000,24.852273,0.133944,99,99,0,0,0,0,0
9,99999,82,90000,31,0,40,9999,0.100000,99,0,0.000000,13,0.000000,22.347695,0.163945,99,99,0,0,0,0,0
9,99999,83,90000,58,40000,40,9999,0.100000,99,0,0.000000,13,0.000000,29.795487,0.927014,99,99,0,0,0,0,0
9,99999,84,90000,33,30000,40,9999,0.100000,99,0,0.000000,13,0.000000,25.394571,0.158817,99,99,0,0,0,0,0
9,99999,85,90000,11,50000,40,9999,0.100000,99,0,0.000000,13,1.000000,27.670049,1.431089,99,99,0,0,0,0,0
9,99999,86,90000,14,20000,40,9999,0.100000,99,0,0.000000,13,0.000000,18.412315,0.237955,99,99,0,0,0,0,0
9,99999,87,90000,31,0,40,9999,0.100000,99,0,0.000000,13,0.000000,35.760728,0.220730,99,99,0,0,0,0,0
9,99999,88,90000,11,50000,40,9999,0.100000,99,0,0.000000,13,3.000000,31.551788,16.669424,99,99,0,0,0,0,0
9,99999,89,90000,29,10000,40,9999,0.100000,99,0,0.000000,13,1.000000,29.344480,4.974641,99,99,0,0,0,0,0
9,99999,90,90000,33,30000,40,9999,0.100000,99,0,0.000000,13,0.000000,23.068155,1.516123,99,99,0,0,0,0,0
9,99999,91,90000,78,40000,40,9999,0.100000,99,0,0.000000,13,0.000000,28.725713,0.791294,99,99,0,0,0,0,0
9,99999,92,90000,48,70000,0,9999,0.100000,99,0,7.189034,13,0.000000,27.694470,1.433515,99,99,0,1,0,0,0
9,99999,93,90000,58,40000,0,9999,0.100000,99,0,0.114121,13,0.000000,14.862695,0.253751,99,99,0,0,0,1,0
9,99999,94,90000,11,50000,40,9999,0.100000,99,0,0.000000,13,0.000000,20.141743,0.401775,99,99,0,0,0,0,0
9,99999,95,90000,31,0,0,9999,0.100000,99,0,0.813450,13,0.000000,27.425580,0.137755,99,99,0,0,0,0,1
9,99999,96,90000,8,0,40,9999,0.100000,99,0,0.000000,13,0.000000,23.842369,6.072459,99,99,0,0,0,0,0
9,99999,97,90000,11,50000,40,9999,0.100000,99,0,0.000000,13,1.000000,28.185441,2.160834,99,99,0,0,0,0,0
9,99999,98,90000,48,70000,40,9999,0.100000,99,0,0.000000,13,0.000000,23.535320,0.497669,99,99,0,0,0,0,0
9,99999,99,90000,31,0,0,9999,0.100000,99,0,5.747041,13,1.000000,26.839116,1.165843,99,99,0,0,0,1,0
10,109999,0,100000,78,40000,40,9999,0.100000,99,0,0.000000,13,0.000000,27.200659,0.937515,99,99,0,0,0,0,0
10,109999,1,100000,88,80000,0,9999,0.100000,99,0,0.219906,13,0.000000,32.643347,0.548359,99,99,0,0,0,1,0
10,109999,2,100000,5,0,40,9999,0.100000,99,0,0.000000,13,1.000000,30.601432,2.145299,99,99,0,0,0,0,0
10,109999,3,100000,33,30000,40,9999,0.100000,99,0,0.000000,13,0.000000,31.234569,0.985376,99,99,0,0,0,0,0
10,109999,4,100000,31,0,0,9999,0.100000,99,0,5.030592,13,0.000000,30.426220,2.371606,99,99,0,0,1,0,0
10,109999,5,100000,88,80000,0,9999,0.100000,99,0,3.209273,13,0.000000,27.203999,0.672602,99,99,0,0,0,1,0
10,109999,6,100000,5,0,40,9999,0.100000,99,0,0.000000,13,0.000000,23.608100,0.218122,99,99,0,0,0,0,0
10,109999,7,100000,33,20000,40,9999,0.100000,99,0,0.000000,13,0.000000,20.837895,0.228765,99,99,0,0,0,0,0
10,109999,8,100000,37,50000,40,9999,0.100000,99,0,0.000000,13,0.000000,34.827855,8.760150,99,99,0,0,0,0,0
10,109999,9,100000,78,40000,0,9999,0.100000,99,0,0.184908,13,0.000000,23.169659,0.102992,99,99,0,0,0,0,1
10,109999,10,100000,58,40000,0,9999,0.100000,99,0,0.002636,13,0.000000,25.510850,0.137013,99,99,0,0,0,1,0
10,109999,11,100000,5,0,40,9999,0.100000,99,0,0.000000,13,0.000000,15.696922,0.236560,99,99,0,0,0,0,0
10,109999,12,100000,11,50000,40,9999,0.100000,99,0,0.000000,13,0.000000,23.055472,0.099914,99,99,0,0,0,0,0
10,109999,13,100000,11,50000,40,9999,0.100000,99,0,0.000000,13,0.000000,24.897229,7.819484,99,99,0,0,0,0,0
10,109999,14,100000,11,50000,40,9999,0.100000,99,0,0.000000,13,1.000000,26.650255,23.076405,99,99,0,0,0,0,0
10,109999,15,100000,11,50000,0,9999,0.100000,99,0,0.051538,13,0.000000,22.442198,0.088072,99,99,0,0,0,0,1
10,109999,16,100000,11,50000,40,9999,0.100000,99,0,0.000000,13,0.000000,26.923241,0.496939,99,99,0,0,0,0,0
10,109999,17,100000,29,10000,40,9999,0.100000,99,0,0.000000,13,1.000000,30.770336,2.879344,99,99,0,0,0,0,0
10,109999,18,100000,31,0,40,9999,0.100000,99,0,0.000000,13,0.000000,27.745907,0.580312,99,99,0,0,0,0,0
10,109999,19,100000,33,20000,0,9999,0.100000,99,0,0.269819,13,0.000000,25.184380,0.804468,99,99,0,0,0,1,0
10,109999,20,100000,78,40000,0,9999,0.100000,99,0,0.276737,13,0.000000,31.559358,0.327880,99,99,0,0,1,0,0
10,109999,21,100000,31,0,40,9999,0.100000,99,0,0.000000,13,0.000000,23.418900,0.117621,99,99,0,0,0,0,0
10,109999,22,100000,29,10000,40,9999,0.100000,99,0,0.000000,13,0.000000,30.555913,2.742384,99,99,0,0,0,0,0
10,109999,23,100000,33,20000,0,9999,0.100000,99,0,0.104656,13,0.000000,21.272718,0.116246,99,99,0,0,0,0,1
10,109999,24,100000,33,20000,0,9999,0.100000,99,0,0.043324,13,0.000000,27.869829,0.711686,99,99,0,0,0,0,1
10,109999,25,100000,33,30000,0,9999,0.100000,99,0,0.025480,13,0.000000,26.059538,0.157047,99,99,0,0,1,0,0
10,109999,26,100000,11,50000,0,9999,0.100000,99,0,0.131480,13,0.000000,23.146268,0.128585,99,99,0,0,0,1,0
10,109999,27,100000,11,50000,40,9999,0.100000,99,0,0.000000,13,0.000000,32.792777,0.934563,99,99,0,0,0,0,0
10,109999,28,100000,33,20000,0,9999,0.100000,99,0,1.943431,13,0.000000,18.433188,0.469028,99,99,0,0,1,0,0
10,109999,29,100000,37,50000,40,9999,0.100000,99,0,0.000000,13,0.000000,34.627206,0.093386,99,99,0,0,0,0,0
10,109999,30,100000,11,50000,0,9999,0.100000,99,0,0.000670,13,0.000000,15.034075,1.734910,99,99,0,0,0,1,0
10,109999,31,100000,31,0,40,9999,0.100000,99,0,0.000000,13,1.000000,28.349773,1.499650,99,99,0,0,0,0,0
10,109999,32,100000,31,0,0,9999,0.100000,99,0,0.009194,13,0.000000,32.412700,0.104081,99,99,0,0,0,1,0
10,109999,33,100000,33,30000,0,9999,0.100000,99,0,0.815672,13,0.000000,23.533917,0.569204,99,99,0,0,1,0,0
10,109999,34,100000,5,0,0,9999,0.100000,99,0,0.242703,13,0.000000,27.736254,0.699661,99,99,0,1,0,0,0
10,109999,35,100000,58,40000,40,9999,0.100000,99,0,0.000000,13,1.000000,30.302289,5.499380,99,99,0,0,0,0,0
10,109999,36,100000,37,50000,40,9999,0.100000,99,0,0.000000,13,0.000000,27.188584,2.662468,99,99,0,0,0,0,0
10,109999,37,100000,58,40000,42,9999,0.100000,99,0,0.000000,13,8.000000,33.584837,19.973303,99,99,0,0,0,0,0
10,109999,38,100000,29,10000,0,9999,0.100000,99,0,0.003448,13,0.000000,23.016950,1.479907,99,99,0,0,1,0,0
10,109999,39,100000,31,0,0,9999,0.100000,99,0,0.832627,13,0.000000,25.371726,0.207432,99,99,0,0,0,0,1
10,109999,40,100000,88,80000,40,9999,0.100000,99,0,0.000000,13,0.000000,29.802210,0.215979,99,99,0,0,0,0,0
10,109999,41,100000,31,0,40,9999,0.100000,99,0,0.000000,13,1.000000,28.258062,1.748539,99,99,0,0,0,0,0
10,109999,42,100000,31,0,40,9999,0.100000,99,0,0.000000,13,0.000000,19.163820,0.525560,99,99,0,0,0,0,0
10,109999,43,100000,8,0,40,9999,0.100000,99,0,0.000000,13,0.000000,28.559494,0.275582,99,99,0,0,0,0,0
10,109999,44,100000,78,40000,40,9999,0.100000,99,0,0.000000,13,0.000000,25.825304,0.233793,99,99,0,0,0,0,0
10,109999,45,100000,37,50000,0,9999,0.100000,99,0,0.483993,13,0.000000,24.082913,0.562046,99,99,0,1,0,0,0
10,109999,46,100000,11,50000,40,9999,0.100000,99,0,0.000000,13,0.000000,31.059658,0.992475,99,99,0,0,0,0,0
10,109999,47,100000,78,40000,0,9999,0.100000,99,0,2.792566,13,0.000000,21.119427,0.988204,99,99,0,0,0,0,1
10,109999,48,100000,11,50000,40,9999,0.100000,99,0,0.000000,13,0.000000,33.974216,0.787542,99,99,0,0,0,0,0
10,109999,49,100000,88,80000,40,9999,0.100000,99,0,0.000000,13,0.000000,12.151713,3.163112,99,99,0,0,0,0,0
10,109999,50,100000,33,20000,40,9999,0.100000,99,0,0.000000,13,0.000000,25.872016,0.149374,99,99,0,0,0,0,0
10,109999,51,100000,33,20000,40,9999,0.100000,99,0,0.000000,13,0.000000,31.597787,1.323253,99,99,0,0,0,0,0
10,109999,52,100000,37,50000,40,9999,0.100000,99,0,0.000000,13,0.000000,18.673431,0.428931,99,99,0,0,0,0,0
10,109999,53,100000,48,70000,40,9999,0.100000,99,0,0.000000,13,0.000000,35.636942,0.211784,99,99,0,0,0,0,0
10,109999,54,100000,58,40000,40,9999,0.100000,99,0,0.000000,13,0.000000,31.110830,0.136985,99,99,0,0,0,0,0
10,109999,55,100000,48,70000,40,9999,0.100000,99,0,0.000000,13,0.000000,27.181736,0.914370,99,99,0,0,0,0,0
10,109999,56,100000,58,40000,42,9999,0.100000,99,0,0.000000,13,3.000000,11.478133,9.191048,99,99,0,0,0,0,0
10,109999,57,100000,67,90000,0,9999,0.100000,99,0,0.091997,13,0.000000,27.320172,0.472177,99,99,0,0,0,1,0
10,109999,58,100000,48,70000,40,9999,0.100000,99,0,0.000000,13,1.000000,28.475194,1.499201,99,99,0,0,0,0,0
10,109999,59,100000,5,0,40,9999,0.100000,99,0,0.000000,13,0.000000,20.015229,2.444176,99,99,0,0,0,0,0
10,109999,60,100000,33,20000,40,9999,0.100000,99,0,0.000000,13,0.000000,29.769726,1.361063,99,99,0,0,0,0,0
10,109999,61,100000,31,0,40,9999,0.100000,99,0,0.000000,13,0.000000,12.665914,8.246037,99,99,0,0,0,0,0
10,109999,62,100000,31,0,40,9999,0.100000,99,0,0.000000,13,0.000000,30.141212,2.917947,99,99,0,0,0,0,0
10,109999,63,100000,78,40000,0,9999,0.100000,99,0,5.884797,13,1.000000,28.188963,1.519283,99,99,0,0,0,0,1
10,109999,64,100000,33,20000,40,9999,0.100000,99,0,0.000000,13,0.000000,22.028330,0.634925,99,99,0,0,0,0,0
10,109999,65,100000,33,30000,40,9999,0.100000,99,0,0.000000,13,0.000000,27.740446,2.064189,99,99,0,0,0,0,0
10,109999,66,100000,5,0,40,9999,0.100000,99,0,0.000000,13,0.000000,27.114364,4.133019,99,99,0,0,0,0,0
10,109999,67,100000,88,80000,40,9999,0.100000,99,0,0.000000,13,0.000000,24.307576,2.045424,99,99,0,0,0,0,0
10,109999,68,100000,33,20000,40,9999,0.100000,99,0,0.000000,13,1.000000,33.471418,2.785175,99,99,0,0,0,0,0
10,109999,69,100000,58,40000,40,9999,0.100000,99,0,0.000000,13,0.000000,30.421841,1.017065,99,99,0,0,0,0,0
10,109999,70,100000,37,50000,40,9999,0.100000,99,0,0.000000,13,0.000000,25.022659,0.445022,99,99,0,0,0,0,0
10,109999,71,100000,31,0,40,9999,0.100000,99,0,0.000000,13,1.000000,27.989404,1.398400,99,99,0,0,0,0,0
10,109999,72,100000,8,0,40,9999,0.100000,99,0,0.000000,13,0.000000,23.009158,0.131887,99,99,0,0,0,0,0
10,109999,73,100000,11,50000,40,9999,0.100000,99,0,0.000000,13,0.000000,25.168995,0.367080,99,99,0,0,0,0,0
10,109999,74,100000,67,90000,0,9999,0.065000,99,0,0.054834,13,0.000000,19.223029,0.146123,99,99,0,1,0,0,0
10,109999,75,100000,33,20000,40,9999,0.100000,99,0,0.000000,13,0.000000,27.648520,0.910742,99,99,0,0,0,0,0
10,109999,76,100000,67,90000,40,9999,0.100000,99,0,0.000000,13,0.000000,23.316897,0.648519,99,99,0,0,0,0,0
10,109999,77,100000,31,0,0,9999,0.100000,99,0,0.449190,13,0.000000,24.711400,3.966843,99,99,0,1,0,0,0
10,109999,78,100000,48,70000,40,9999,0.100000,99,0,0.000000,13,0.000000,21.341161,2.557627,99,99,0,0,0,0,0
10,109999,79,100000,29,10000,40,9999,0.100000,99,0,0.000000,13,0.000000,14.169411,0.009452,99,99,0,0,0,0,0
10,109999,80,100000,29,10000,40,9999,0.100000,99,0,0.000000,13,0.000000,32.671534,0.119033,99,99,0,0,0,0,0
10,109999,81,100000,11,50000,40,9999,0.100000,99,0,0.000000,13,0.000000,24.830267,0.151783,99,99,0,0,0,0,0
10,109999,82,100000,33,30000,40,9999,0.100000,99,0,0.000000,13,0.000000,22.342549,0.127693,99,99,0,0,0,0,0
10,109999,83,100000,33,20000,40,9999,0.100000,99,0,0.000000,13,0.000000,29.804784,0.791429,99,99,0,0,0,0,0
10,109999,84,100000,5,0,40,9999,0.100000,99,0,0.000000,13,0.000000,25.372349,0.230821,99,99,0,0,0,0,0
10,109999,85,100000,67,90000,40,9999,0.100000,99,0,0.000000,13,0.000000,27.381897,0.874238,99,99,0,0,0,0,0
10,109999,86,100000,67,90000,40,9999,0.100000,99,0,0.000000,13,0.000000,18.410636,0.242865,99,99,0,0,0,0,0
10,109999,87,100000,11,50000,40,9999,0.100000,99,0,0.000000,13,0.000000,35.762350,0.220888,99,99,0,0,0,0,0
10,109999,88,100000,33,20000,40,9999,0.100000,99,0,0.000000,13,0.000000,28.566971,1.531952,99,99,0,0,0,0,0
10,109999,89,100000,11,50000,40,9999,0.100000,99,0,0.000000,13,0.000000,27.819040,6.271230,99,99,0,0,0,0,0
10,109999,90,100000,5,0,40,9999,0.100000,99,0,0.000000,13,0.000000,22.918446,0.735020,99,99,0,0,0,0,0
10,109999,91,100000,8,0,40,9999,0.100000,99,0,0.000000,13,0.000000,28.681466,1.210470,99,99,0,0,0,0,0
10,109999,92,100000,78,40000,0,9999,0.100000,99,0,0.281904,13,0.000000,26.773734,0.228061,99,99,0,1,0,0,0
10,109999,93,100000,78,40000,40,9999,0.100000,99,0,0.000000,13,0.000000,14.963998,0.327946,99,99,0,0,0,0,0
10,109999,94,100000,88,80000,40,9999,0.100000,99,0,0.000000,13,0.000000,20.239766,0.801046,99,99,0,0,0,0,0
10,109999,95,100000,75,50000,0,9999,0.100000,99,0,0.918780,13,0.000000,27.512410,0.291651,99,99,0,0,0,0,1
10,109999,96,100000,5,0,40,9999,0.100000,99,0,0.000000,13,0.000000,23.308915,0.098569,99,99,0,0,0,0,0
10,109999,97,100000,88,80000,40,9999,0.100000,99,0,0.000000,13,1.000000,27.516809,1.464822,99,99,0,0,0,0,0
10,109999,98,100000,33,20000,40,9999,0.100000,99,0,0.000000,13,0.000000,23.752822,0.417572,99,99,0,0,0,0,0
10,109999,99,100000,8,0,40,9999,0.100000,99,0,0.000000,13,0.000000,27.458123,0.467506,99,99,0,0,0,0,0
11,119999,0,110000,31,0,40,9999,0.100000,99,0,0.000000,13,0.000000,27.883501,0.897944,99,99,0,0,0,0,0
11,119999,1,110000,78,90000,0,9999,0.100000,99,0,1.563950,13,0.000000,32.563317,0.653019,99,99,0,0,0,1,0
11,119999,2,110000,8,0,40,9999,0.100000,99,0,0.000000,13,0.000000,29.547374,1.551080,99,99,0,0,0,0,0
11,119999,3,110000,78,40000,40,9999,0.100000,99,0,0.000000,13,0.000000,31.516361,1.257832,99,99,0,0,0,0,0
11,119999,4,110000,11,50000,40,9999,0.100000,99,0,0.000000,13,0.000000,29.662863,1.354996,99,99,0,0,0,0,0
11,119999,5,110000,78,90000,0,9999,0.100000,99,0,2.620384,13,0.000000,27.599817,0.784114,99,99,0,0,0,1,0
11,119999,6,110000,29,10000,40,9999,0.100000,99,0,0.000000,13,0.000000,23.547500,0.212822,99,99,0,0,0,0,0
11,119999,7,110000,31,0,40,9999,0.100000,99,0,0.000000,13,0.000000,20.845885,0.196705,99,99,0,0,0,0,0
11,119999,8,110000,8,0,40,9999,0.100000,99,0,0.000000,13,0.000000,34.814870,9.011034,99,99,0,0,0,0,0
11,119999,9,110000,88,80000,0,9999,0.100000,99,0,0.184274,13,0.000000,23.109149,0.103571,99,99,0,0,0,0,1
11,119999,10,110000,8,0,0,9999,0.100000,99,0,0.003042,13,0.000000,25.512243,0.137271,99,99,0,0,0,1,0
11,119999,11,110000,88,80000,40,9999,0.100000,99,0,0.000000,13,0.000000,15.694965,0.239450,99,99,0,0,0,0,0
11,119999,12,110000,78,90000,40,9999,0.100000,99,0,0.000000,13,0.000000,22.993997,0.101206,99,99,0,0,0,0,0
11,119999,13,110000,48,70000,40,9999,0.100000,99,0,0.000000,13,0.000000,24.959020,2.495824,99,99,0,0,0,0,0
11,119999,14,110000,29,10000,40,9999,0.100000,99,0,0.000000,13,1.000000,26.822183,20.684346,99,99,0,0,0,0,0
11,119999,15,110000,11,50000,40,9999,0.100000,99,0,0.000000,13,0.000000,22.446893,0.251080,99,99,0,0,0,0,0
11,119999,16,110000,5,0,40,9999,0.100000,99,0,0.000000,13,0.000000,27.043546,0.514608,99,99,0,0,0,0,0
11,119999,17,110000,78,90000,40,9999,0.100000,99,0,0.000000,13,2.000000,29.436286,24.977654,99,99,0,0,0,0,0
11,119999,18,110000,5,0,40,9999,0.100000,99,0,0.000000,13,0.000000,27.970618,0.364803,99,99,0,0,0,0,0
11,119999,19,110000,67,90000,0,9999,0.100000,99,0,0.008649,13,0.000000,25.208967,0.120136,99,99,0,0,0,1,0
11,119999,20,110000,78,40000,0,9999,0.100000,99,0,1.041566,13,0.000000,31.331037,0.355189,99,99,0,0,1,0,0
11,119999,21,110000,67,90000,40,9999,0.100000,99,0,0.000000,13,0.000000,23.358313,0.115584,99,99,0,0,0,0,0
11,119999,22,110000,37,50000,40,9999,0.100000,99,0,0.000000,13,0.000000,30.968356,0.517665,99,99,0,0,0,0,0
11,119999,23,110000,5,0,0,9999,0.100000,99,0,0.192203,13,0.000000,21.293202,0.138680,99,99,0,0,0,0,1
11,119999,24,110000,5,0,0,9999,0.100000,99,0,0.138549,13,0.000000,28.031809,0.171223,99,99,0,0,0,0,1
11,119999,25,110000,8,0,40,9999,0.100000,99,0,0.000000,13,0.000000,26.064899,0.152509,99,99,0,0,0,0,0
11,119999,26,110000,67,90000,40,9999,0.100000,99,0,0.000000,13,0.000000,23.194572,0.299733,99,99,0,0,0,0,0
11,119999,27,110000,78,90000,40,9999,0.100000,99,0,0.000000,13,0.000000,32.712194,1.051674,99,99,0,0,0,0,0
11,119999,28,110000,67,90000,0,9999,0.100000,99,0,2.038456,13,0.000000,18.034670,0.471774,99,99,0,0,1,0,0
11,119999,29,110000,78,90000,40,9999,0.100000,99,0,0.000000,13,0.000000,34.635460,0.099022,99,99,0,0,0,0,0
11,119999,30,110000,78,40000,0,9999,0.100000,99,0,0.000814,13,0.000000,15.244904,0.098986,99,99,0,0,0,1,0
11,119999,31,110000,37,50000,0,9999,0.100000,99,0,0.487424,13,0.000000,27.681514,2.547991,99,99,0,0,0,0,1
11,119999,32,110000,11,50000,40,9999,0.100000,99,0,0.000000,13,0.000000,32.411145,0.107084,99,99,0,0,0,0,0
11,119999,33,110000,5,0,0,9999,0.100000,99,0,2.337087,13,0.000000,23.683800,0.811072,99,99,0,0,1,0,0
11,119999,34,110000,31,0,40,9999,0.100000,99,0,0.000000,13,0.000000,28.170353,0.625070,99,99,0,0,0,0,0
11,119999,35,110000,8,0,40,9999,0.100000,99,0,0.000000,13,1.000000,29.055038,7.247687,99,99,0,0,0,0,0
11,119999,36,110000,78,40000,40,9999,0.100000,99,0,0.000000,13,0.000000,27.632502,2.107773,99,99,0,0,0,0,0
11,119999,37,110000,5,0,40,9999,0.100000,99,0,0.000000,13,1.000000,33.187917,6.594159,99,99,0,0,0,0,0
11,119999,38,110000,88,80000,0,9999,0.100000,99,0,0.055670,13,0.000000,22.840133,0.497193,99,99,0,0,1,0,0
11,119999,39,110000,37,50000,0,9999,0.100000,99,0,2.100862,13,0.000000,25.406406,0.365126,99,99,0,0,0,0,1
11,119999,40,110000,29,10000,40,9999,0.100000,99,0,0.000000,13,0.000000,29.802363,0.223004,99,99,0,0,0,0,0
11,119999,41,110000,29,10000,40,9999,0.100000,99,0,0.000000,13,0.000000,27.596253,4.094095,99,99,0,0,0,0,0
11,119999,42,110000,8,0,40,9999,0.100000,99,0,0.000000,13,0.000000,18.758341,0.512793,99,99,0,0,0,0,0
11,119999,43,110000,48,70000,40,9999,0.100000,99,0,0.000000,13,0.000000,28.499656,0.131656,99,99,0,0,0,0,0
11,119999,44,110000,5,0,40,9999,0.100000,99,0,0.000000,13,0.000000,25.826007,0.228023,99,99,0,0,0,0,0
11,119999,45,110000,5,0,0,9999,0.100000,99,0,0.397417,13,0.000000,24.021919,0.780812,99,99,0,1,0,0,0
11,119999,46,110000,31,0,40,9999,0.100000,99,0,0.000000,13,0.000000,31.326892,0.900931,99,99,0,0,0,0,0
11,119999,47,110000,88,80000,0,9999,0.100000,99,0,1.232900,13,0.000000,21.347534,0.361082,99,99,0,0,0,0,1
11,119999,48,110000,31,0,40,9999,0.100000,99,0,0.000000,13,0.000000,34.301773,0.890163,99,99,0,0,0,0,0
11,119999,49,110000,11,50000,40,9999,0.100000,99,0,0.000000,13,0.000000,11.917873,2.189513,99,99,0,0,0,0,0
11,119999,50,110000,37,50000,0,9999,0.100000,99,0,0.022411,13,0.000000,25.875955,0.143937,99,99,0,0,1,0,0
11,119999,51,110000,29,10000,40,9999,0.100000,99,0,0.000000,13,0.000000,31.769251,0.791573,99,99,0,0,0,0,0
11,119999,52,110000,67,90000,40,9999,0.100000,99,0,0.000000,13,0.000000,18.273328,0.437443,99,99,0,0,0,0,0
11,119999,53,110000,78,40000,40,9999,0.100000,99,0,0.000000,13,0.000000,35.637890,0.227292,99,99,0,0,0,0,0
11,119999,54,110000,33,20000,40,9999,0.100000,99,0,0.000000,13,0.000000,31.110435,0.136514,99,99,0,0,0,0,0
11,119999,55,110000,78,90000,40,9999,0.135000,99,0,0.000000,13,0.000000,27.447183,0.214751,99,99,0,0,0,0,0
11,119999,56,110000,67,90000,41,9999,0.100000,99,0,0.000000,13,2.000000,13.871207,7.088694,99,99,0,0,0,0,0
11,119999,57,110000,88,80000,0,9999,0.100000,99,0,0.024439,13,0.000000,27.489305,0.173237,99,99,0,0,0,1,0
11,119999,58,110000,78,40000,41,9999,0.100000,99,0,0.000000,13,4.000000,27.798763,8.164383,99,99,0,0,0,0,0
11,119999,59,110000,31,0,41,9999,0.100000,99,0,0.000000,13,3.000000,20.120468,4.241361,99,99,0,0,0,0,0
11,119999,60,110000,48,70000,40,9999,0.100000,99,0,0.000000,13,0.000000,29.779665,1.360915,99,99,0,0,0,0,0
11,119999,61,110000,8,0,43,9999,0.100000,99,0,0.000000,13,5.000000,12.098918,10.735648,99,99,0,0,0,0,0
11,119999,62,110000,78,90000,40,9999,0.100000,99,0,0.000000,13,1.000000,30.878908,3.611827,99,99,0,0,0,0,0
11,119999,63,110000,78,40000,40,9999,0.100000,99,0,0.000000,13,0.000000,27.519051,3.784664,99,99,0,0,0,0,0
11,119999,64,110000,67,90000,40,9999,0.100000,99,0,0.000000,13,0.000000,21.915985,0.801528,99,99,0,0,0,0,0
11,119999,65,110000,78,40000,41,9999,0.100000,99,0,0.000000,13,5.000000,27.748067,8.026898,99,99,0,0,0,0,0
11,119999,66,110000,33,20000,40,9999,0.100000,99,0,0.000000,13,0.000000,27.618125,2.951837,99,99,0,0,0,0,0
11,119999,67,110000,78,90000,40,9999,0.100000,99,0,0.000000,13,0.000000,24.915438,1.949376,99,99,0,0,0,0,0
11,119999,68,110000,33,20000,40,9999,0.100000,99,0,0.000000,13,1.000000,33.163181,3.435600,99,99,0,0,0,0,0
11,119999,69,110000,67,90000,40,9999,0.100000,99,0,0.000000,13,0.000000,30.624051,1.102920,99,99,0,0,0,0,0
11,119999,70,110000,8,0,40,9999,0.100000,99,0,0.000000,13,0.000000,25.050798,0.796024,99,99,0,0,0,0,0
11,119999,71,110000,48,70000,40,9999,0.100000,99,0,0.000000,13,0.000000,27.319815,0.850516,99,99,0,0,0,0,0
11,119999,72,110000,58,40000,0,9999,0.100000,99,0,0.159743,13,0.000000,23.047887,0.360178,99,99,0,0,0,1,0
11,119999,73,110000,8,0,40,9999,0.100000,99,0,0.000000,13,0.000000,25.186260,0.574132,99,99,0,0,0,0,0
11,119999,74,110000,48,70000,0,9999,0.100000,99,0,0.004904,13,0.000000,19.216750,0.147535,99,99,0,1,0,0,0
11,119999,75,110000,67,90000,40,9999,0.100000,99,0,0.000000,13,0.000000,27.839062,0.501866,99,99,0,0,0,0,0
11,119999,76,110000,5,0,40,9999,0.100000,99,0,0.000000,13,0.000000,23.458903,0.738745,99,99,0,0,0,0,0
11,119999,77,110000,11,50000,41,9999,0.100000,99,0,0.000000,13,4.000000,24.636040,16.831771,99,99,0,0,0,0,0
11,119999,78,110000,8,0,40,9999,0.100000,99,0,0.000000,13,0.000000,21.461835,1.964904,99,99,0,0,0,0,0
11,119999,79,110000,58,40000,40,9999,0.100000,99,0,0.000000,13,0.000000,14.169563,0.009448,99,99,0,0,0,0,0
11,119999,80,110000,78,40000,0,9999,0.100000,99,0,0.006648,13,0.000000,32.669786,0.117222,99,99,0,0,0,1,0
11,119999,81,110000,88,80000,40,9999,0.100000,99,0,0.000000,13,0.000000,24.821006,0.112028,99,99,0,0,0,0,0
11,119999,82,110000,67,90000,0,9999,0.100000,99,0,0.526989,13,0.000000,22.349132,0.318544,99,99,0,0,0,0,1
11,119999,83,110000,5,0,40,9999,0.100000,99,0,0.000000,13,0.000000,29.806624,0.800436,99,99,0,0,0,0,0
