generation,iteration,robot,birthday,ancestor_id,ancestor_birthday,cell_id,age,sigma,maps,genomes,fitness,cells_in_map,dist_max,dist_pot_max,dist_total,com_rx,com_tx,obj_group1,obj_group2,obj_group3,obj_group4,obj_group5
0,9999,0,0,0,0,2,9999,0.100000,99,0,28.212557,0,6.000000,25.367498,7.251300,99,99,0,1,0,0,0
0,9999,1,0,1,0,40,9999,0.100000,99,0,0.000000,0,1.000000,27.310401,11.069284,99,99,0,0,0,0,0
0,9999,2,0,2,0,92,9999,0.100000,99,0,13.131491,0,4.000000,18.746428,12.550729,99,99,1,0,0,0,0
0,9999,3,0,3,0,40,9999,0.100000,99,0,0.000000,0,1.000000,31.280977,8.711424,99,99,0,0,0,0,0
0,9999,4,0,4,0,40,9999,0.100000,99,0,0.000000,0,0.000000,16.428841,1.451943,99,99,0,0,0,0,0
0,9999,5,0,5,0,40,9999,0.100000,99,0,0.000000,0,1.000000,26.928379,4.751890,99,99,0,0,0,0,0
0,9999,6,0,6,0,40,9999,0.100000,99,0,0.000000,0,1.000000,31.566873,6.673558,99,99,0,0,0,0,0
0,9999,7,0,7,0,0,9999,0.100000,99,0,0.774612,0,0.000000,31.821549,0.892383,99,99,0,0,0,1,0
0,9999,8,0,8,0,0,9999,0.100000,99,0,0.331612,0,1.000000,28.703208,3.027919,99,99,0,1,0,0,0
0,9999,9,0,9,0,40,9999,0.100000,99,0,0.000000,0,2.000000,19.280086,11.363990,99,99,0,0,0,0,0
0,9999,10,0,10,0,0,9999,0.100000,99,0,0.003817,0,0.000000,15.731492,1.210906,99,99,0,0,0,1,0
0,9999,11,0,11,0,0,9999,0.100000,99,0,0.527899,0,0.000000,25.877657,1.130952,99,99,0,0,1,0,0
0,9999,12,0,12,0,95,9999,0.100000,99,0,69.248212,0,13.000000,21.002273,22.545991,99,99,1,0,0,0,0
0,9999,13,0,13,0,40,9999,0.100000,99,0,0.000000,0,2.000000,23.318033,13.439438,99,99,0,0,0,0,0
0,9999,14,0,14,0,40,9999,0.100000,99,0,0.000000,0,2.000000,22.416924,10.692549,99,99,0,0,0,0,0
0,9999,15,0,15,0,90,9999,0.100000,99,0,1.122996,0,1.000000,33.829814,2.683672,99,99,1,0,0,0,0
0,9999,16,0,16,0,0,9999,0.100000,99,0,1.701115,0,1.000000,16.926038,2.235276,99,99,0,0,0,1,0
0,9999,17,0,17,0,95,9999,0.100000,99,0,0.178210,0,15.000000,27.344163,18.796044,99,99,1,0,0,0,0
0,9999,18,0,18,0,94,9999,0.100000,99,0,60.014733,0,11.000000,23.831124,25.306292,99,99,1,0,0,0,0
0,9999,19,0,19,0,1,9999,0.100000,99,0,0.006052,0,5.000000,29.860010,13.678890,99,99,0,0,0,1,0
0,9999,20,0,20,0,40,9999,0.100000,99,0,0.000000,0,2.000000,25.981239,10.081854,99,99,0,0,0,0,0
0,9999,21,0,21,0,42,9999,0.100000,99,0,0.000000,0,3.000000,13.420526,13.143729,99,99,0,0,0,0,0
0,9999,22,0,22,0,42,9999,0.100000,99,0,0.000000,0,4.000000,18.115417,8.714156,99,99,0,0,0,0,0
0,9999,23,0,23,0,41,9999,0.100000,99,0,0.000000,0,4.000000,27.051979,9.178403,99,99,0,0,0,0,0
0,9999,24,0,24,0,40,9999,0.100000,99,0,0.000000,0,2.000000,28.560711,9.645186,99,99,0,0,0,0,0
0,9999,25,0,25,0,40,9999,0.100000,99,0,0.000000,0,1.000000,19.126335,7.755458,99,99,0,0,0,0,0
0,9999,26,0,26,0,90,9999,0.100000,99,0,7.709122,0,2.000000,31.433618,9.746942,99,99,1,0,0,0,0
0,9999,27,0,27,0,40,9999,0.100000,99,0,0.000000,0,2.000000,21.936499,8.697229,99,99,0,0,0,0,0
0,9999,28,0,28,0,40,9999,0.100000,99,0,0.000000,0,3.000000,29.886176,6.930573,99,99,0,0,0,0,0
0,9999,29,0,29,0,40,9999,0.100000,99,0,0.000000,0,1.000000,29.872846,3.431618,99,99,0,0,0,0,0
0,9999,30,0,30,0,41,9999,0.100000,99,0,0.000000,0,4.000000,30.529491,13.415204,99,99,0,0,0,0,0
0,9999,31,0,31,0,40,9999,0.100000,99,0,0.000000,0,1.000000,23.106105,7.974904,99,99,0,0,0,0,0
0,9999,32,0,32,0,40,9999,0.100000,99,0,0.000000,0,0.000000,18.723531,8.247382,99,99,0,0,0,0,0
0,9999,33,0,33,0,40,9999,0.100000,99,0,0.000000,0,2.000000,29.445565,9.292627,99,99,0,0,0,0,0
0,9999,34,0,34,0,41,9999,0.100000,99,0,0.000000,0,3.000000,24.571548,8.155369,99,99,0,0,0,0,0
0,9999,35,0,35,0,0,9999,0.100000,99,0,0.024311,0,0.000000,23.559130,1.362646,99,99,0,0,0,0,1
0,9999,36,0,36,0,40,9999,0.100000,99,0,0.000000,0,2.000000,22.419340,14.723010,99,99,0,0,0,0,0
0,9999,37,0,37,0,41,9999,0.100000,99,0,0.000000,0,4.000000,19.091755,17.977123,99,99,0,0,0,0,0
0,9999,38,0,38,0,40,9999,0.100000,99,0,0.000000,0,0.000000,28.695454,4.806049,99,99,0,0,0,0,0
0,9999,39,0,39,0,92,9999,0.100000,99,0,50.812704,0,9.000000,31.247353,12.693710,99,99,1,0,0,0,0
0,9999,40,0,40,0,99,9999,0.100000,99,0,87.185708,0,17.000000,13.569314,25.633414,99,99,1,0,0,0,0
0,9999,41,0,41,0,90,9999,0.100000,99,0,5.991494,0,0.000000,22.452309,6.125964,99,99,1,0,0,0,0
0,9999,42,0,42,0,40,9999,0.100000,99,0,0.000000,0,1.000000,22.587295,12.754255,99,99,0,0,0,0,0
0,9999,43,0,43,0,40,9999,0.100000,99,0,0.000000,0,1.000000,27.182549,6.648115,99,99,0,0,0,0,0
0,9999,44,0,44,0,91,9999,0.100000,99,0,34.558022,0,3.000000,25.261062,16.998537,99,99,2,0,0,0,0
0,9999,45,0,45,0,40,9999,0.100000,99,0,0.000000,0,1.000000,18.140025,2.331596,99,99,0,0,0,0,0
0,9999,46,0,46,0,40,9999,0.100000,99,0,0.000000,0,2.000000,21.583609,5.561601,99,99,0,0,0,0,0
0,9999,47,0,47,0,40,9999,0.100000,99,0,0.000000,0,2.000000,31.030454,8.652657,99,99,0,0,0,0,0
0,9999,48,0,48,0,0,9999,0.100000,99,0,0.013794,0,0.000000,17.623647,0.927885,99,99,0,0,0,0,1
0,9999,49,0,49,0,41,9999,0.100000,99,0,0.000000,0,2.000000,16.264982,13.228116,99,99,0,0,0,0,0
0,9999,50,0,50,0,0,9999,0.100000,99,0,0.030317,0,0.000000,27.555911,1.226653,99,99,0,1,0,0,0
0,9999,51,0,51,0,97,9999,0.100000,99,0,70.897704,0,14.000000,17.854935,19.797026,99,99,1,0,0,0,0
0,9999,52,0,52,0,90,9999,0.100000,99,0,0.557019,0,1.000000,25.512898,7.489811,99,99,1,0,0,0,0
0,9999,53,0,53,0,0,9999,0.100000,99,0,0.012689,0,1.000000,22.252755,1.999605,99,99,0,0,0,0,1
0,9999,54,0,54,0,40,9999,0.100000,99,0,0.000000,0,1.000000,30.101990,11.342412,99,99,0,0,0,0,0
0,9999,55,0,55,0,44,9999,0.100000,99,0,0.000000,0,5.000000,10.943398,12.354353,99,99,0,0,0,0,0
0,9999,56,0,56,0,93,9999,0.100000,99,0,38.839048,0,8.000000,23.096946,15.757996,99,99,1,0,0,0,0
0,9999,57,0,57,0,93,9999,0.100000,99,0,51.924848,0,10.000000,26.347783,18.310809,99,99,1,0,0,0,0
0,9999,58,0,58,0,40,9999,0.100000,99,0,0.000000,0,0.000000,22.850292,18.256439,99,99,0,0,0,0,0
0,9999,59,0,59,0,40,9999,0.100000,99,0,0.000000,0,1.000000,25.467385,6.513564,99,99,0,0,0,0,0
0,9999,60,0,60,0,0,9999,0.100000,99,0,0.005436,0,2.000000,30.112185,12.765761,99,99,0,1,0,0,0
0,9999,61,0,61,0,41,9999,0.100000,99,0,0.000000,0,4.000000,31.572436,16.802343,99,99,0,0,0,0,0
0,9999,62,0,62,0,40,9999,0.100000,99,0,0.000000,0,1.000000,20.151354,2.978370,99,99,0,0,0,0,0
0,9999,63,0,63,0,40,9999,0.100000,99,0,0.000000,0,1.000000,18.683317,4.482363,99,99,0,0,0,0,0
0,9999,64,0,64,0,91,9999,0.100000,99,0,19.749768,0,3.000000,21.860017,5.144845,99,99,1,0,0,0,0
0,9999,65,0,65,0,40,9999,0.100000,99,0,0.000000,0,1.000000,25.823084,1.634482,99,99,0,0,0,0,0
0,9999,66,0,66,0,40,9999,0.100000,99,0,0.000000,0,1.000000,23.240091,4.753478,99,99,0,0,0,0,0
0,9999,67,0,67,0,40,9999,0.100000,99,0,0.000000,0,2.000000,27.647663,12.497499,99,99,0,0,0,0,0
0,9999,68,0,68,0,40,9999,0.100000,99,0,0.000000,0,2.000000,33.407905,11.763523,99,99,0,0,0,0,0
0,9999,69,0,69,0,40,9999,0.100000,99,0,0.000000,0,1.000000,26.351758,9.538718,99,99,0,0,0,0,0
0,9999,70,0,70,0,40,9999,0.100000,99,0,0.000000,0,1.000000,16.888396,5.974341,99,99,0,0,0,0,0
0,9999,71,0,71,0,40,9999,0.100000,99,0,0.000000,0,0.000000,19.411164,5.036575,99,99,0,0,0,0,0
0,9999,72,0,72,0,40,9999,0.100000,99,0,0.000000,0,1.000000,26.003125,5.298458,99,99,0,0,0,0,0
0,9999,73,0,73,0,0,9999,0.100000,99,0,0.185118,0,0.000000,23.559498,1.094911,99,99,0,0,0,0,1
0,9999,74,0,74,0,41,9999,0.100000,99,0,0.000000,0,2.000000,12.580698,25.671266,99,99,0,0,0,0,0
0,9999,75,0,75,0,40,9999,0.100000,99,0,0.000000,0,2.000000,33.125094,11.288561,99,99,0,0,0,0,0
0,9999,76,0,76,0,93,9999,0.100000,99,0,47.274652,0,9.000000,22.257651,21.200514,99,99,1,0,0,0,0
0,9999,77,0,77,0,41,9999,0.100000,99,0,0.000000,0,4.000000,32.355536,22.357686,99,99,0,0,0,0,0
0,9999,78,0,78,0,0,9999,0.100000,99,0,0.019982,0,0.000000,25.821820,1.587380,99,99,0,0,1,0,0
0,9999,79,0,79,0,40,9999,0.100000,99,0,0.000000,0,2.000000,32.729936,8.050252,99,99,0,0,0,0,0
0,9999,80,0,80,0,40,9999,0.100000,99,0,0.000000,0,1.000000,25.344380,22.831189,99,99,0,0,0,0,0
0,9999,81,0,81,0,40,9999,0.100000,99,0,0.000000,0,0.000000,15.622277,9.915457,99,99,0,0,0,0,0
0,9999,82,0,82,0,92,9999,0.100000,99,0,17.374489,0,5.000000,23.585654,10.376579,99,99,1,0,0,0,0
0,9999,83,0,83,0,1,9999,0.100000,99,0,24.623773,0,5.000000,27.029386,12.165863,99,99,0,1,0,0,0
0,9999,84,0,84,0,40,9999,0.100000,99,0,0.000000,0,0.000000,16.860029,1.196668,99,99,0,0,0,0,0
0,9999,85,0,85,0,40,9999,0.100000,99,0,0.000000,0,0.000000,19.093404,11.376927,99,99,0,0,0,0,0
0,9999,86,0,86,0,40,9999,0.100000,99,0,0.000000,0,2.000000,26.714664,8.773927,99,99,0,0,0,0,0
0,9999,87,0,87,0,0,9999,0.100000,99,0,4.002424,0,1.000000,24.710540,5.047514,99,99,0,1,0,0,0
0,9999,88,0,88,0,40,9999,0.100000,99,0,0.000000,0,2.000000,25.731815,8.968647,99,99,0,0,0,0,0
0,9999,89,0,89,0,40,9999,0.100000,99,0,0.000000,0,0.000000,19.180959,5.960790,99,99,0,0,0,0,0
0,9999,90,0,90,0,40,9999,0.100000,99,0,0.000000,0,0.000000,32.330473,5.847949,99,99,0,0,0,0,0
0,9999,91,0,91,0,40,9999,0.100000,99,0,0.000000,0,2.000000,25.654073,10.050825,99,99,0,0,0,0,0
0,9999,92,0,92,0,40,9999,0.100000,99,0,0.000000,0,0.000000,26.124516,8.079248,99,99,0,0,0,0,0
0,9999,93,0,93,0,40,9999,0.100000,99,0,0.000000,0,1.000000,25.953056,1.819042,99,99,0,0,0,0,0
0,9999,94,0,94,0,40,9999,0.100000,99,0,0.000000,0,0.000000,24.710540,10.373991,99,99,0,0,0,0,0
0,9999,95,0,95,0,40,9999,0.100000,99,0,0.000000,0,1.000000,29.173158,8.947990,99,99,0,0,0,0,0
0,9999,96,0,96,0,40,9999,0.100000,99,0,0.000000,0,1.000000,19.154780,2.148733,99,99,0,0,0,0,0
0,9999,97,0,97,0,40,9999,0.100000,99,0,0.000000,0,1.000000,15.727128,7.258179,99,99,0,0,0,0,0
0,9999,98,0,98,0,95,9999,0.100000,99,0,68.088947,0,13.000000,22.571794,18.949208,99,99,1,0,0,0,0
0,9999,99,0,99,0,40,9999,0.100000,99,0,0.000000,0,0.000000,29.331322,2.061795,99,99,0,0,0,0,0
1,19999,0,0,0,0,40,19999,0.100000,99,0,0.000000,1,0.000000,30.635830,0.533149,99,99,0,0,0,0,0
1,19999,1,10000,32,0,40,9999,0.100000,99,0,0.000000,9,1.000000,27.094890,10.100725,99,99,0,0,0,0,0
1,19999,2,10000,0,0,96,9999,0.100000,99,0,76.398588,7,14.000000,21.777419,24.209240,99,99,1,0,0,0,0
1,19999,3,10000,17,0,40,9999,0.100000,99,0,0.000000,5,1.000000,29.966601,10.542272,99,99,0,0,0,0,0
1,19999,4,10000,98,0,0,9999,0.100000,99,0,0.001873,10,0.000000,16.843103,1.381684,99,99,0,0,0,0,1
1,19999,5,10000,16,0,40,9999,0.100000,99,0,0.000000,11,1.000000,25.532482,1.923276,99,99,0,0,0,0,0
1,19999,6,10000,76,0,40,9999,0.100000,99,0,0.000000,9,2.000000,32.243257,3.516306,99,99,0,0,0,0,0
1,19999,7,10000,16,0,0,9999,0.100000,99,0,2.122639,9,0.000000,31.486248,0.688756,99,99,0,0,0,1,0
1,19999,8,10000,16,0,41,9999,0.100000,99,0,0.000000,10,5.000000,30.572238,14.772728,99,99,0,0,0,0,0
1,19999,9,10000,0,0,40,9999,0.100000,99,0,0.000000,8,1.000000,16.702428,3.308341,99,99,0,0,0,0,0
1,19999,10,10000,10,0,0,9999,0.100000,99,0,0.864902,3,0.000000,15.329623,0.417311,99,99,0,0,0,1,0
1,19999,11,10000,22,0,0,9999,0.100000,99,0,8.516629,5,1.000000,25.470192,1.864522,99,99,0,0,1,0,0
1,19999,12,10000,0,0,41,9999,0.100000,99,0,0.000000,11,4.000000,30.695494,13.118595,99,99,0,0,0,0,0
1,19999,13,10000,0,0,40,9999,0.100000,99,0,0.000000,2,1.000000,24.307711,22.693286,99,99,0,0,0,0,0
1,19999,14,10000,2,0,91,9999,0.100000,99,0,0.000000,7,4.000000,24.673957,14.565436,99,99,1,0,0,0,0
1,19999,15,10000,26,0,90,9999,0.100000,99,0,0.463982,11,0.000000,34.965147,0.874235,99,99,1,0,0,0,0
1,19999,16,10000,32,0,0,9999,0.100000,99,0,1.007773,9,0.000000,17.807010,0.244182,99,99,0,0,0,1,0
1,19999,17,10000,10,0,90,9999,0.100000,99,0,0.561132,4,0.000000,34.789953,1.735313,99,99,1,0,0,0,0
1,19999,18,10000,32,0,40,9999,0.100000,99,0,0.000000,11,1.000000,28.770668,8.916256,99,99,0,0,0,0,0
1,19999,19,10000,55,0,0,9999,0.100000,99,0,0.084217,11,0.000000,24.594824,0.653928,99,99,0,0,0,1,0
1,19999,20,10000,76,0,41,9999,0.100000,99,0,0.000000,11,4.000000,28.049051,19.169422,99,99,0,0,0,0,0
1,19999,21,10000,76,0,40,9999,0.100000,99,0,0.000000,9,1.000000,16.357569,16.267199,99,99,0,0,0,0,0
1,19999,22,10000,17,0,40,9999,0.100000,99,0,0.000000,5,0.000000,19.992318,7.210153,99,99,0,0,0,0,0
1,19999,23,10000,76,0,40,9999,0.100000,99,0,0.000000,11,0.000000,24.385348,0.993640,99,99,0,0,0,0,0
1,19999,24,10000,26,0,40,9999,0.100000,99,0,0.000000,11,2.000000,26.141377,12.479870,99,99,0,0,0,0,0
1,19999,25,10000,0,0,40,9999,0.100000,99,0,0.000000,2,2.000000,20.904221,10.043436,99,99,0,0,0,0,0
1,19999,26,10000,44,0,40,9999,0.100000,99,0,0.000000,10,3.000000,32.032707,15.738878,99,99,0,0,0,0,0
1,19999,27,10000,22,0,40,9999,0.100000,99,0,0.000000,9,0.000000,21.032347,3.498042,99,99,0,0,0,0,0
1,19999,28,10000,82,0,40,9999,0.100000,99,0,0.000000,9,1.000000,30.539839,8.641300,99,99,0,0,0,0,0
1,19999,29,10000,32,0,0,9999,0.100000,99,0,6.430153,5,2.000000,28.982490,3.660573,99,99,0,0,1,0,0
1,19999,30,10000,26,0,40,9999,0.100000,99,0,0.000000,10,1.000000,28.077423,7.541966,99,99,0,0,0,0,0
1,19999,31,10000,44,0,40,9999,0.100000,99,0,0.000000,10,1.000000,23.036323,21.260942,99,99,0,0,0,0,0
1,19999,32,10000,0,0,42,9999,0.100000,99,0,0.000000,2,5.000000,18.825489,9.210048,99,99,0,0,0,0,0
1,19999,33,10000,82,0,40,9999,0.100000,99,0,0.000000,8,1.000000,30.939063,1.088272,99,99,0,0,0,0,0
1,19999,34,10000,51,0,40,9999,0.100000,99,0,0.000000,8,0.000000,23.933442,2.157158,99,99,0,0,0,0,0
1,19999,35,10000,16,0,0,9999,0.100000,99,0,0.414980,9,0.000000,23.831920,0.892026,99,99,0,0,0,0,1
1,19999,36,10000,98,0,41,9999,0.100000,99,0,0.000000,10,3.000000,22.416861,4.224829,99,99,0,0,0,0,0
1,19999,37,10000,26,0,40,9999,0.100000,99,0,0.000000,11,0.000000,19.924552,10.523851,99,99,0,0,0,0,0
1,19999,38,10000,76,0,1,9999,0.100000,99,0,0.566853,9,4.000000,28.484127,9.777619,99,99,0,1,0,0,0
1,19999,39,10000,40,0,90,9999,0.100000,99,0,7.073180,11,3.000000,35.088309,11.184100,99,99,1,0,0,0,0
1,19999,40,10000,40,0,40,9999,0.100000,99,0,0.000000,11,2.000000,26.914209,8.483529,99,99,0,0,0,0,0
1,19999,41,10000,23,0,93,9999,0.100000,99,0,49.252130,11,9.000000,23.129124,18.104858,99,99,1,0,0,0,0
1,19999,42,10000,64,0,1,9999,0.100000,99,0,0.077847,9,3.000000,22.763492,14.436221,99,99,0,0,0,0,1
1,19999,43,10000,23,0,40,9999,0.100000,99,0,0.000000,11,1.000000,28.131736,4.576515,99,99,0,0,0,0,0
1,19999,44,10000,76,0,40,9999,0.100000,99,0,0.000000,9,2.000000,26.482639,8.703518,99,99,0,0,0,0,0
1,19999,45,10000,32,0,40,9999,0.100000,99,0,0.000000,11,0.000000,17.826170,0.159522,99,99,0,0,0,0,0
1,19999,46,10000,11,0,40,9999,0.100000,99,0,0.000000,8,0.000000,19.565608,0.443493,99,99,0,0,0,0,0
1,19999,47,10000,32,0,40,9999,0.100000,99,0,0.000000,9,1.000000,30.887770,1.343575,99,99,0,0,0,0,0
1,19999,48,10000,16,0,40,9999,0.100000,99,0,0.000000,11,0.000000,17.284625,0.092539,99,99,0,0,0,0,0
1,19999,49,10000,0,0,40,9999,0.100000,99,0,0.000000,9,2.000000,19.079374,12.303868,99,99,0,0,0,0,0
1,19999,50,10000,76,0,0,9999,0.100000,99,0,0.035951,9,0.000000,26.783241,0.167167,99,99,0,1,0,0,0
1,19999,51,10000,51,0,40,9999,0.100000,99,0,0.000000,5,1.000000,28.636523,7.086709,99,99,0,0,0,0,0
1,19999,52,10000,26,0,90,9999,0.100000,99,0,0.511389,10,1.000000,24.912281,4.346300,99,99,1,0,0,0,0
1,19999,53,10000,26,0,0,9999,0.100000,99,0,0.292661,11,0.000000,21.723166,0.119288,99,99,0,0,0,0,1
1,19999,54,10000,22,0,40,9999,0.100000,99,0,0.000000,9,1.000000,29.558683,15.185631,99,99,0,0,0,0,0
1,19999,55,10000,11,0,40,9999,0.100000,99,0,0.000000,6,1.000000,15.683527,9.534933,99,99,0,0,0,0,0
1,19999,56,10000,32,0,40,9999,0.100000,99,0,0.000000,10,1.000000,29.912842,19.299359,99,99,0,0,0,0,0
1,19999,57,10000,23,0,40,9999,0.100000,99,0,0.000000,11,2.000000,32.160203,11.376352,99,99,0,0,0,0,0
1,19999,58,10000,22,0,40,9999,0.100000,99,0,0.000000,6,0.000000,23.004061,19.981075,99,99,0,0,0,0,0
1,19999,59,10000,98,0,0,9999,0.100000,99,0,0.019835,11,1.000000,26.158853,4.267217,99,99,0,0,1,0,0
1,19999,60,10000,44,0,0,9999,0.100000,99,0,0.241666,11,0.000000,29.143588,0.183830,99,99,0,1,0,0,0
1,19999,61,10000,32,0,0,9999,0.100000,99,0,0.422179,6,2.000000,35.434676,4.886356,99,99,0,0,1,0,0
1,19999,62,10000,76,0,95,9999,0.100000,99,0,72.311172,11,12.000000,21.378391,21.140000,99,99,1,0,0,0,0
1,19999,63,10000,32,0,40,9999,0.100000,99,0,0.000000,11,1.000000,19.364162,11.022543,99,99,0,0,0,0,0
1,19999,64,10000,16,0,40,9999,0.100000,99,0,0.000000,9,0.000000,24.435662,5.622296,99,99,0,0,0,0,0
1,19999,65,10000,32,0,40,9999,0.100000,99,0,0.000000,9,0.000000,24.603135,1.080984,99,99,0,0,0,0,0
1,19999,66,10000,26,0,40,9999,0.100000,99,0,0.000000,11,2.000000,23.484554,5.494761,99,99,0,0,0,0,0
1,19999,67,10000,98,0,40,9999,0.100000,99,0,0.000000,10,0.000000,29.422187,5.795980,99,99,0,0,0,0,0
1,19999,68,10000,23,0,40,9999,0.100000,99,0,0.000000,11,1.000000,30.824846,7.620953,99,99,0,0,0,0,0
1,19999,69,10000,51,0,40,9999,0.100000,99,0,0.000000,10,1.000000,25.044025,6.385345,99,99,0,0,0,0,0
1,19999,70,10000,22,0,40,9999,0.100000,99,0,0.000000,7,1.000000,18.656417,6.513568,99,99,0,0,0,0,0
1,19999,71,10000,26,0,40,9999,0.100000,99,0,0.000000,10,1.000000,19.204307,4.924483,99,99,0,0,0,0,0
1,19999,72,10000,55,0,40,9999,0.100000,99,0,0.000000,11,0.000000,24.731072,1.381255,99,99,0,0,0,0,0
1,19999,73,10000,39,0,40,9999,0.100000,99,0,0.000000,11,0.000000,23.428992,0.304796,99,99,0,0,0,0,0
1,19999,74,10000,55,0,44,9999,0.100000,99,0,0.000000,9,6.000000,13.411492,13.697293,99,99,0,0,0,0,0
1,19999,75,10000,98,0,40,9999,0.100000,99,0,0.000000,11,1.000000,34.533727,10.950024,99,99,0,0,0,0,0
1,19999,76,10000,76,0,42,9999,0.100000,99,0,0.000000,8,8.000000,29.593992,17.368720,99,99,0,0,0,0,0
1,19999,77,10000,22,0,40,9999,0.100000,99,0,0.000000,10,2.000000,29.098090,9.470584,99,99,0,0,0,0,0
1,19999,78,10000,98,0,40,9999,0.100000,99,0,0.000000,11,0.000000,25.205279,0.163240,99,99,0,0,0,0,0
1,19999,79,10000,44,0,40,9999,0.100000,99,0,0.000000,11,0.000000,31.290829,0.804770,99,99,0,0,0,0,0
1,19999,80,10000,22,0,40,9999,0.100000,99,0,0.000000,10,0.000000,24.808296,8.279171,99,99,0,0,0,0,0
1,19999,81,10000,40,0,41,9999,0.100000,99,0,0.000000,11,2.000000,15.623141,9.388463,99,99,0,0,0,0,0
1,19999,82,10000,55,0,41,9999,0.100000,99,0,0.000000,8,5.000000,28.943413,11.581905,99,99,0,0,0,0,0
1,19999,83,10000,44,0,40,9999,0.100000,99,0,0.000000,11,1.000000,30.149703,23.590550,99,99,0,0,0,0,0
1,19999,84,10000,0,0,40,9999,0.100000,99,0,0.000000,8,0.000000,16.695364,0.529186,99,99,0,0,0,0,0
1,19999,85,10000,55,0,40,9999,0.100000,99,0,0.000000,11,2.000000,19.412936,9.719463,99,99,0,0,0,0,0
1,19999,86,10000,32,0,40,9999,0.100000,99,0,0.000000,11,2.000000,24.813545,23.240182,99,99,0,0,0,0,0
1,19999,87,10000,40,0,0,9999,0.100000,99,0,0.100375,11,0.000000,24.981492,0.174695,99,99,0,1,0,0,0
1,19999,88,10000,23,0,41,9999,0.100000,99,0,0.000000,11,3.000000,26.946898,6.093321,99,99,0,0,0,0,0
1,19999,89,10000,23,0,43,9999,0.100000,99,0,0.000000,11,6.000000,18.621622,22.152632,99,99,0,0,0,0,0
1,19999,90,10000,32,0,41,9999,0.100000,99,0,0.000000,9,4.000000,31.682563,11.453114,99,99,0,0,0,0,0
1,19999,91,10000,0,0,40,9999,0.100000,99,0,0.000000,8,0.000000,23.682312,3.153997,99,99,0,0,0,0,0
1,19999,92,10000,55,0,40,9999,0.100000,99,0,0.000000,11,0.000000,26.498233,10.539133,99,99,0,0,0,0,0
1,19999,93,10000,51,0,40,9999,0.100000,99,0,0.000000,11,0.000000,24.611650,1.260252,99,99,0,0,0,0,0
1,19999,94,10000,32,0,41,9999,0.100000,99,0,0.000000,11,3.000000,24.110064,7.584246,99,99,0,0,0,0,0
1,19999,95,10000,51,0,40,9999,0.100000,99,0,0.000000,11,1.000000,29.942174,6.532021,99,99,0,0,0,0,0
1,19999,96,10000,39,0,40,9999,0.100000,99,0,0.000000,11,0.000000,17.312259,0.081786,99,99,0,0,0,0,0
1,19999,97,10000,87,0,40,9999,0.100000,99,0,0.000000,11,0.000000,15.761222,5.971498,99,99,0,0,0,0,0
1,19999,98,10000,22,0,40,9999,0.100000,99,0,0.000000,9,3.000000,30.927338,8.812785,99,99,0,0,0,0,0
1,19999,99,10000,26,0,40,9999,0.100000,99,0,0.000000,11,2.000000,29.214753,10.618756,99,99,0,0,0,0,0
2,29999,0,20000,44,0,40,9999,0.100000,99,0,0.000000,11,0.000000,30.776621,0.536371,99,99,0,0,0,0,0
2,29999,1,20000,26,0,40,9999,0.100000,99,0,0.000000,11,0.000000,27.767381,5.168950,99,99,0,0,0,0,0
2,29999,2,20000,40,0,41,9999,0.100000,99,0,0.000000,11,4.000000,30.262074,10.362319,99,99,0,0,0,0,0
2,29999,3,20000,0,0,40,9999,0.100000,99,0,0.000000,11,1.000000,30.317852,13.794153,99,99,0,0,0,0,0
2,29999,4,20000,23,0,40,9999,0.100000,99,0,0.000000,11,0.000000,17.378971,0.399777,99,99,0,0,0,0,0
2,29999,5,20000,44,0,0,9999,0.100000,99,0,0.863483,11,0.000000,23.692818,6.019254,99,99,0,0,1,0,0
2,29999,6,20000,51,0,0,9999,0.100000,99,0,1.525908,11,1.000000,34.235621,1.831022,99,99,0,0,1,0,0
2,29999,7,20000,40,0,0,9999,0.100000,99,0,0.183510,11,0.000000,31.469948,0.570224,99,99,0,0,0,1,0
2,29999,8,20000,87,0,40,9999,0.100000,99,0,0.000000,11,1.000000,28.199258,5.239254,99,99,0,0,0,0,0
2,29999,9,20000,23,0,41,9999,0.100000,99,0,0.000000,12,3.000000,15.185329,4.470922,99,99,0,0,0,0,0
2,29999,10,20000,0,0,42,9999,0.100000,99,0,0.000000,12,4.000000,15.084964,9.852156,99,99,0,0,0,0,0
2,29999,11,20000,55,0,0,9999,0.100000,99,0,0.175814,11,1.000000,23.698270,8.526798,99,99,0,0,0,0,1
2,29999,12,20000,26,0,40,9999,0.100000,99,0,0.000000,11,2.000000,28.905608,8.560792,99,99,0,0,0,0,0
2,29999,13,20000,23,0,40,9999,0.100000,99,0,0.000000,12,0.000000,24.333149,15.005858,99,99,0,0,0,0,0
2,29999,14,20000,40,0,40,9999,0.100000,99,0,0.000000,11,0.000000,27.238956,2.005013,99,99,0,0,0,0,0
2,29999,15,20000,87,0,90,9999,0.100000,99,0,0.530282,11,0.000000,35.149627,2.317216,99,99,1,0,0,0,0
2,29999,16,20000,55,0,0,9999,0.100000,99,0,0.775215,11,0.000000,18.000716,0.159816,99,99,0,0,0,1,0
2,29999,17,20000,44,0,90,9999,0.100000,99,0,13.876181,12,2.000000,34.919676,9.382167,99,99,1,0,0,0,0
2,29999,18,20000,57,0,41,9999,0.100000,99,0,0.000000,11,3.000000,28.406987,10.334143,99,99,0,0,0,0,0
2,29999,19,20000,0,0,0,9999,0.100000,99,0,1.437982,11,0.000000,24.197018,0.639078,99,99,0,0,0,1,0
2,29999,20,20000,23,0,40,9999,0.100000,99,0,0.000000,11,3.000000,32.185876,16.746784,99,99,0,0,0,0,0
2,29999,21,20000,44,0,42,9999,0.100000,99,0,0.000000,11,5.000000,17.309730,9.169460,99,99,0,0,0,0,0
2,29999,22,20000,55,0,41,9999,0.100000,99,0,0.000000,11,4.000000,20.375563,11.168218,99,99,0,0,0,0,0
2,29999,23,20000,0,0,40,9999,0.100000,99,0,0.000000,11,0.000000,23.616081,0.904894,99,99,0,0,0,0,0
2,29999,24,20000,26,0,40,9999,0.100000,99,0,0.000000,11,1.000000,27.858009,6.288462,99,99,0,0,0,0,0
2,29999,25,20000,0,0,40,9999,0.100000,99,0,0.000000,11,0.000000,23.611333,2.489770,99,99,0,0,0,0,0
2,29999,26,20000,51,0,40,9999,0.100000,99,0,0.000000,11,1.000000,29.601873,4.735255,99,99,0,0,0,0,0
2,29999,27,20000,51,0,40,9999,0.100000,99,0,0.000000,11,2.000000,20.638921,6.848609,99,99,0,0,0,0,0
2,29999,28,20000,11,10000,40,9999,0.100000,99,0,0.000000,11,0.000000,30.541322,1.728595,99,99,0,0,0,0,0
2,29999,29,20000,62,10000,0,9999,0.100000,99,0,5.585935,12,3.000000,31.436695,6.716609,99,99,0,0,1,0,0
2,29999,30,20000,40,0,40,9999,0.100000,99,0,0.000000,11,3.000000,29.918585,13.697540,99,99,0,0,0,0,0
2,29999,31,20000,26,0,40,9999,0.100000,99,0,0.000000,11,1.000000,24.281021,10.101549,99,99,0,0,0,0,0
2,29999,32,20000,32,10000,40,9999,0.100000,99,0,0.000000,11,0.000000,14.706838,4.372167,99,99,0,0,0,0,0
2,29999,33,20000,23,0,40,9999,0.100000,99,0,0.000000,11,0.000000,30.912292,0.900912,99,99,0,0,0,0,0
2,29999,34,20000,57,0,40,9999,0.100000,99,0,0.000000,11,0.000000,23.782616,0.579960,99,99,0,0,0,0,0
2,29999,35,20000,51,0,0,9999,0.100000,99,0,0.276448,11,0.000000,23.905824,1.001088,99,99,0,0,0,0,1
2,29999,36,20000,87,0,40,9999,0.100000,99,0,0.000000,11,0.000000,24.396212,0.210580,99,99,0,0,0,0,0
2,29999,37,20000,98,0,42,9999,0.100000,99,0,0.000000,11,5.000000,19.380287,10.967214,99,99,0,0,0,0,0
2,29999,38,20000,0,0,0,9999,0.100000,99,0,3.781813,11,0.000000,30.735731,0.471109,99,99,0,1,0,0,0
2,29999,39,20000,0,0,40,9999,0.100000,99,0,0.000000,11,1.000000,31.627968,10.541017,99,99,0,0,0,0,0
2,29999,40,20000,40,0,91,9999,0.100000,99,0,25.031667,11,3.000000,26.271051,14.936324,99,99,1,0,0,0,0
2,29999,41,20000,44,0,40,9999,0.100000,99,0,0.000000,11,3.000000,30.033772,11.999012,99,99,0,0,0,0,0
2,29999,42,20000,23,0,40,9999,0.100000,99,0,0.000000,12,1.000000,22.937943,17.689345,99,99,0,0,0,0,0
2,29999,43,20000,32,10000,40,9999,0.100000,99,0,0.000000,12,2.000000,27.738279,8.037154,99,99,0,0,0,0,0
2,29999,44,20000,2,10000,41,9999,0.100000,99,0,0.000000,12,4.000000,28.791204,10.063864,99,99,0,0,0,0,0
2,29999,45,20000,26,0,40,9999,0.100000,99,0,0.000000,11,0.000000,17.794503,0.149405,99,99,0,0,0,0,0
2,29999,46,20000,62,10000,40,9999,0.100000,99,0,0.000000,12,0.000000,19.527099,0.356606,99,99,0,0,0,0,0
2,29999,47,20000,23,0,40,9999,0.100000,99,0,0.000000,11,0.000000,30.815333,1.061832,99,99,0,0,0,0,0
2,29999,48,20000,51,0,0,9999,0.100000,99,0,0.592065,11,0.000000,17.284540,0.156014,99,99,0,0,0,0,1
2,29999,49,20000,98,0,40,9999,0.100000,99,0,0.000000,11,1.000000,16.853980,4.048132,99,99,0,0,0,0,0
2,29999,50,20000,98,0,0,9999,0.100000,99,0,0.033413,11,0.000000,26.823783,0.165252,99,99,0,1,0,0,0
2,29999,51,20000,51,0,40,9999,0.100000,99,0,0.000000,11,1.000000,27.840827,5.530714,99,99,0,0,0,0,0
2,29999,52,20000,57,0,90,9999,0.100000,99,0,2.008766,12,0.000000,25.671323,0.734952,99,99,1,0,0,0,0
2,29999,53,20000,57,0,40,9999,0.100000,99,0,0.000000,11,2.000000,21.679915,4.804538,99,99,0,0,0,0,0
2,29999,54,20000,23,0,40,9999,0.100000,99,0,0.000000,11,1.000000,30.329343,18.855012,99,99,0,0,0,0,0
2,29999,55,20000,23,0,40,9999,0.100000,99,0,0.000000,11,1.000000,17.182605,15.604376,99,99,0,0,0,0,0
2,29999,56,20000,2,10000,90,9999,0.100000,99,0,6.967887,11,3.000000,29.748070,17.165660,99,99,1,0,0,0,0
2,29999,57,20000,11,10000,40,9999,0.100000,99,0,0.000000,12,3.000000,32.504426,11.206041,99,99,0,0,0,0,0
2,29999,58,20000,23,0,40,9999,0.100000,99,0,0.000000,12,1.000000,22.818805,16.721874,99,99,0,0,0,0,0
2,29999,59,20000,98,0,0,9999,0.100000,99,0,1.108299,11,0.000000,25.401715,0.430617,99,99,0,0,1,0,0
2,29999,60,20000,98,0,0,9999,0.100000,99,0,8.067295,11,2.000000,29.173937,10.878374,99,99,0,1,0,0,0
2,29999,61,20000,62,10000,40,9999,0.100000,99,0,0.000000,12,0.000000,34.396774,1.120586,99,99,0,0,0,0,0
2,29999,62,20000,57,0,40,9999,0.100000,99,0,0.000000,11,1.000000,31.231968,7.698505,99,99,0,0,0,0,0
2,29999,63,20000,55,0,40,9999,0.100000,99,0,0.000000,11,2.000000,19.380963,14.947712,99,99,0,0,0,0,0
2,29999,64,20000,23,0,40,9999,0.100000,99,0,0.000000,11,0.000000,23.679945,6.621047,99,99,0,0,0,0,0
2,29999,65,20000,32,10000,40,9999,0.100000,99,0,0.000000,12,0.000000,24.115601,1.194918,99,99,0,0,0,0,0
2,29999,66,20000,87,0,40,9999,0.100000,99,0,0.000000,11,0.000000,24.361581,6.526688,99,99,0,0,0,0,0
2,29999,67,20000,0,0,41,9999,0.100000,99,0,0.000000,11,4.000000,29.021960,14.305893,99,99,0,0,0,0,0
2,29999,68,20000,44,0,41,9999,0.100000,99,0,0.000000,11,4.000000,31.757094,7.517728,99,99,0,0,0,0,0
2,29999,69,20000,0,0,40,9999,0.100000,99,0,0.000000,11,1.000000,24.294551,4.437888,99,99,0,0,0,0,0
2,29999,70,20000,44,0,40,9999,0.100000,99,0,0.000000,11,1.000000,19.923216,10.620501,99,99,0,0,0,0,0
2,29999,71,20000,55,0,40,9999,0.100000,99,0,0.000000,11,2.000000,19.769176,13.789907,99,99,0,0,0,0,0
2,29999,72,20000,51,0,40,9999,0.100000,99,0,0.000000,11,0.000000,24.269151,1.070290,99,99,0,0,0,0,0
2,29999,73,20000,23,0,40,9999,0.100000,99,0,0.000000,11,0.000000,23.338731,0.386908,99,99,0,0,0,0,0
2,29999,74,20000,23,0,42,9999,0.100000,99,0,0.000000,11,4.000000,16.172311,14.625448,99,99,0,0,0,0,0
2,29999,75,20000,26,0,40,9999,0.100000,99,0,0.000000,11,2.000000,33.853994,11.341532,99,99,0,0,0,0,0
2,29999,76,20000,26,0,43,9999,0.100000,99,0,0.000000,12,8.000000,21.734185,11.671391,99,99,0,0,0,0,0
2,29999,77,20000,40,0,40,9999,0.100000,99,0,0.000000,12,3.000000,31.595003,6.882700,99,99,0,0,0,0,0
2,29999,78,20000,51,0,40,9999,0.100000,99,0,0.000000,11,0.000000,25.194047,0.304300,99,99,0,0,0,0,0
2,29999,79,20000,98,0,40,9999,0.100000,99,0,0.000000,11,0.000000,31.253982,0.670112,99,99,0,0,0,0,0
2,29999,80,20000,57,0,40,9999,0.100000,99,0,0.000000,12,1.000000,24.215323,19.572751,99,99,0,0,0,0,0
2,29999,81,20000,32,10000,43,9999,0.100000,99,0,0.000000,12,6.000000,18.219237,7.589275,99,99,0,0,0,0,0
2,29999,82,20000,0,0,41,9999,0.100000,99,0,0.000000,11,3.000000,26.557548,4.366449,99,99,0,0,0,0,0
2,29999,83,20000,44,0,0,9999,0.100000,99,0,8.845224,11,2.000000,29.749152,14.233361,99,99,0,1,0,0,0
2,29999,84,20000,26,0,40,9999,0.100000,99,0,0.000000,12,0.000000,16.650339,0.386502,99,99,0,0,0,0,0
2,29999,85,20000,0,0,40,9999,0.100000,99,0,0.000000,12,1.000000,18.022672,13.449019,99,99,0,0,0,0,0
2,29999,86,20000,26,0,40,9999,0.100000,99,0,0.000000,11,0.000000,23.354580,22.614814,99,99,0,0,0,0,0
2,29999,87,20000,44,0,0,9999,0.100000,99,0,0.077433,11,0.000000,25.021825,0.178446,99,99,0,1,0,0,0
2,29999,88,20000,51,0,40,9999,0.100000,99,0,0.000000,11,0.000000,30.619555,0.974753,99,99,0,0,0,0,0
2,29999,89,20000,57,0,41,9999,0.100000,99,0,0.000000,12,4.000000,20.974626,13.584518,99,99,0,0,0,0,0
2,29999,90,20000,40,0,40,9999,0.100000,99,0,0.000000,11,3.000000,30.611034,11.346045,99,99,0,0,0,0,0
2,29999,91,20000,89,10000,40,9999,0.100000,99,0,0.000000,12,0.000000,23.811315,1.357532,99,99,0,0,0,0,0
2,29999,92,20000,23,0,40,9999,0.100000,99,0,0.000000,11,1.000000,27.083387,12.830217,99,99,0,0,0,0,0
2,29999,93,20000,26,0,40,9999,0.100000,99,0,0.000000,12,0.000000,24.097593,2.483952,99,99,0,0,0,0,0
2,29999,94,20000,11,10000,40,9999,0.100000,99,0,0.000000,11,0.000000,21.813610,0.937754,99,99,0,0,0,0,0
2,29999,95,20000,51,0,41,9999,0.100000,99,0,0.000000,11,4.000000,30.321920,11.197608,99,99,0,0,0,0,0
2,29999,96,20000,0,0,40,9999,0.100000,99,0,0.000000,12,0.000000,17.311641,0.172449,99,99,0,0,0,0,0
2,29999,97,20000,0,0,40,9999,0.100000,99,0,0.000000,12,0.000000,15.780974,5.829606,99,99,0,0,0,0,0
2,29999,98,20000,11,10000,40,9999,0.100000,99,0,0.000000,12,1.000000,30.012402,6.605286,99,99,0,0,0,0,0
2,29999,99,20000,98,0,40,9999,0.100000,99,0,0.000000,11,2.000000,30.499108,8.299331,99,99,0,0,0,0,0
3,39999,0,30000,23,0,40,9999,0.100000,99,0,0.000000,12,0.000000,30.893050,0.545694,99,99,0,0,0,0,0
3,39999,1,30000,62,10000,40,9999,0.100000,99,0,0.000000,12,2.000000,27.813001,11.744714,99,99,0,0,0,0,0
3,39999,2,30000,17,20000,40,9999,0.100000,99,0,0.000000,13,0.000000,26.324701,6.463905,99,99,0,0,0,0,0
3,39999,3,30000,10,20000,40,9999,0.100000,99,0,0.000000,12,0.000000,30.121395,3.640409,99,99,0,0,0,0,0
3,39999,4,30000,0,0,40,9999,0.100000,99,0,0.000000,12,0.000000,17.211957,0.238573,99,99,0,0,0,0,0
3,39999,5,30000,62,10000,3,9999,0.100000,99,0,38.638611,12,8.000000,22.965673,16.333070,99,99,0,0,1,0,0
3,39999,6,30000,0,0,40,9999,0.100000,99,0,0.000000,12,0.000000,33.796278,2.337101,99,99,0,0,0,0,0
3,39999,7,30000,62,10000,40,9999,0.100000,99,0,0.000000,12,0.000000,31.738325,1.273676,99,99,0,0,0,0,0
3,39999,8,30000,57,0,40,9999,0.100000,99,0,0.000000,12,0.000000,27.332593,7.418939,99,99,0,0,0,0,0
3,39999,9,30000,44,0,40,9999,0.100000,99,0,0.000000,12,0.000000,11.450645,0.334875,99,99,0,0,0,0,0
3,39999,10,30000,57,0,40,9999,0.100000,99,0,0.000000,12,0.000000,11.054005,1.285373,99,99,0,0,0,0,0
3,39999,11,30000,2,10000,0,9999,0.100000,99,0,0.544555,12,0.000000,22.786872,0.122867,99,99,0,0,0,0,1
3,39999,12,30000,23,0,41,9999,0.100000,99,0,0.000000,12,3.000000,27.874514,5.665603,99,99,0,0,0,0,0
3,39999,13,30000,10,20000,0,9999,0.100000,99,0,3.592475,12,1.000000,23.800475,4.546832,99,99,0,0,0,1,0
3,39999,14,30000,0,0,40,9999,0.100000,99,0,0.000000,12,0.000000,26.297348,0.994286,99,99,0,0,0,0,0
3,39999,15,30000,23,0,0,9999,0.100000,99,0,0.921736,12,0.000000,35.021372,3.588024,99,99,0,0,1,0,0
3,39999,16,30000,0,0,0,9999,0.100000,99,0,0.567555,12,0.000000,18.125890,0.133285,99,99,0,0,0,1,0
3,39999,17,30000,32,10000,40,9999,0.100000,99,0,0.000000,12,0.000000,34.007037,1.850768,99,99,0,0,0,0,0
3,39999,18,30000,17,20000,40,9999,0.100000,99,0,0.000000,12,0.000000,30.036905,6.263952,99,99,0,0,0,0,0
3,39999,19,30000,0,0,40,9999,0.100000,99,0,0.000000,12,0.000000,23.921638,0.886409,99,99,0,0,0,0,0
3,39999,20,30000,62,10000,40,9999,0.100000,99,0,0.000000,12,2.000000,31.738056,11.385620,99,99,0,0,0,0,0
3,39999,21,30000,23,0,40,9999,0.100000,99,0,0.000000,12,1.000000,20.831653,15.251422,99,99,0,0,0,0,0
3,39999,22,30000,37,20000,92,9999,0.100000,99,0,18.077092,12,5.000000,19.693541,9.173741,99,99,1,0,0,0,0
3,39999,23,30000,2,10000,40,9999,0.100000,99,0,0.000000,12,0.000000,23.083878,0.529142,99,99,0,0,0,0,0
3,39999,24,30000,37,20000,40,9999,0.100000,99,0,0.000000,12,2.000000,28.358214,10.302480,99,99,0,0,0,0,0
3,39999,25,30000,0,0,3,9999,0.100000,99,0,38.638757,12,8.000000,22.852612,17.658223,99,99,0,0,1,0,0
3,39999,26,30000,0,0,40,9999,0.100000,99,0,0.000000,12,2.000000,28.997616,12.951930,99,99,0,0,0,0,0
3,39999,27,30000,2,10000,40,9999,0.100000,99,0,0.000000,12,1.000000,21.875112,10.480877,99,99,0,0,0,0,0
3,39999,28,30000,44,0,40,9999,0.100000,99,0,0.000000,12,0.000000,31.287785,0.807204,99,99,0,0,0,0,0
3,39999,29,30000,57,0,0,9999,0.100000,99,0,1.513577,12,0.000000,33.619043,1.908315,99,99,0,0,1,0,0
3,39999,30,30000,89,10000,41,9999,0.100000,99,0,0.000000,12,5.000000,31.007254,23.973962,99,99,0,0,0,0,0
3,39999,31,30000,0,0,40,9999,0.100000,99,0,0.000000,12,0.000000,23.064498,8.238424,99,99,0,0,0,0,0
3,39999,32,30000,40,0,44,9999,0.100000,99,0,0.000000,12,7.000000,14.513135,12.034649,99,99,0,0,0,0,0
3,39999,33,30000,23,0,40,9999,0.100000,99,0,0.000000,12,0.000000,31.322644,1.391267,99,99,0,0,0,0,0
3,39999,34,30000,44,0,40,9999,0.100000,99,0,0.000000,12,0.000000,23.592537,0.398131,99,99,0,0,0,0,0
3,39999,35,30000,2,10000,40,9999,0.100000,99,0,0.000000,12,0.000000,23.982344,0.550197,99,99,0,0,0,0,0
3,39999,36,30000,40,0,0,9999,0.100000,99,0,1.044100,12,0.000000,24.441824,0.293390,99,99,0,0,0,0,1
3,39999,37,30000,37,20000,40,9999,0.100000,99,0,0.000000,12,1.000000,23.237215,6.211202,99,99,0,0,0,0,0
3,39999,38,30000,57,0,40,9999,0.100000,99,0,0.000000,12,0.000000,30.722144,1.637112,99,99,0,0,0,0,0
3,39999,39,30000,11,10000,41,9999,0.100000,99,0,0.000000,12,5.000000,32.121061,19.574725,99,99,0,0,0,0,0
3,39999,40,30000,11,10000,40,9999,0.100000,99,0,0.000000,12,2.000000,26.185173,7.684262,99,99,0,0,0,0,0
3,39999,41,30000,0,0,41,9999,0.100000,99,0,0.000000,12,3.000000,27.842401,17.348608,99,99,0,0,0,0,0
3,39999,42,30000,32,10000,45,9999,0.100000,99,0,0.000000,12,13.000000,22.229659,15.962862,99,99,0,0,0,0,0
3,39999,43,30000,83,20000,40,9999,0.100000,99,0,0.000000,13,1.000000,27.987072,10.574654,99,99,0,0,0,0,0
3,39999,44,30000,62,10000,40,9999,0.100000,99,0,0.000000,12,1.000000,27.219673,7.910488,99,99,0,0,0,0,0
3,39999,45,30000,10,20000,40,9999,0.100000,99,0,0.000000,12,0.000000,17.770326,0.132255,99,99,0,0,0,0,0
3,39999,46,30000,40,0,40,9999,0.100000,99,0,0.000000,12,0.000000,19.315961,0.255809,99,99,0,0,0,0,0
3,39999,47,30000,44,0,40,9999,0.100000,99,0,0.000000,12,0.000000,31.206889,1.747704,99,99,0,0,0,0,0
3,39999,48,30000,62,10000,0,9999,0.100000,99,0,0.404415,12,0.000000,17.195814,0.134611,99,99,0,0,0,0,1
3,39999,49,30000,32,10000,41,9999,0.100000,99,0,0.000000,12,3.000000,17.540959,5.253562,99,99,0,0,0,0,0
3,39999,50,30000,62,10000,0,9999,0.100000,99,0,0.033388,12,0.000000,26.870575,0.166746,99,99,0,1,0,0,0
3,39999,51,30000,62,10000,41,9999,0.100000,99,0,0.000000,12,3.000000,26.729250,11.178023,99,99,0,0,0,0,0
3,39999,52,30000,17,20000,90,9999,0.100000,99,0,0.564259,12,0.000000,25.460284,1.424394,99,99,1,0,0,0,0
3,39999,53,30000,44,0,40,9999,0.100000,99,0,0.000000,12,0.000000,22.914711,0.634513,99,99,0,0,0,0,0
3,39999,54,30000,32,10000,41,9999,0.100000,99,0,0.000000,12,4.000000,31.177412,17.355929,99,99,0,0,0,0,0
3,39999,55,30000,37,20000,40,9999,0.100000,99,0,0.000000,12,1.000000,16.640931,5.798538,99,99,0,0,0,0,0
3,39999,56,30000,11,10000,40,9999,0.100000,99,0,0.000000,12,3.000000,31.436219,14.584308,99,99,0,0,0,0,0
3,39999,57,30000,40,0,40,9999,0.100000,99,0,0.000000,12,1.000000,30.191729,11.832630,99,99,0,0,0,0,0
3,39999,58,30000,40,0,40,9999,0.065000,99,0,0.000000,12,0.000000,22.300999,22.890743,99,99,0,0,0,0,0
3,39999,59,30000,62,10000,40,9999,0.100000,99,0,0.000000,12,0.000000,25.254066,0.882544,99,99,0,0,0,0,0
3,39999,60,30000,62,10000,40,9999,0.100000,99,0,0.000000,12,1.000000,29.820069,8.761560,99,99,0,0,0,0,0
3,39999,61,30000,11,10000,40,9999,0.100000,99,0,0.000000,12,0.000000,34.025042,1.491978,99,99,0,0,0,0,0
3,39999,62,30000,10,20000,40,9999,0.100000,99,0,0.000000,12,2.000000,30.867059,17.680690,99,99,0,0,0,0,0
3,39999,63,30000,40,0,41,9999,0.100000,99,0,0.000000,12,3.000000,21.692456,9.526323,99,99,0,0,0,0,0
3,39999,64,30000,37,20000,3,9999,0.100000,99,0,38.638757,12,8.000000,23.104599,15.972490,99,99,0,0,1,0,0
3,39999,65,30000,57,0,40,9999,0.100000,99,0,0.000000,12,0.000000,23.753894,2.799900,99,99,0,0,0,0,0
3,39999,66,30000,23,0,40,9999,0.100000,99,0,0.000000,12,2.000000,24.497063,14.666153,99,99,0,0,0,0,0
3,39999,67,30000,44,0,91,9999,0.100000,99,0,20.794626,12,3.000000,28.309712,10.773532,99,99,1,0,0,0,0
3,39999,68,30000,2,10000,40,9999,0.100000,99,0,0.000000,12,0.000000,33.922190,2.224935,99,99,0,0,0,0,0
3,39999,69,30000,76,20000,40,9999,0.100000,99,0,0.000000,12,0.000000,25.380291,3.131625,99,99,0,0,0,0,0
3,39999,70,30000,17,20000,43,9999,0.100000,99,0,0.000000,12,7.000000,20.886098,12.624696,99,99,0,0,0,0,0
3,39999,71,30000,11,10000,41,9999,0.065000,99,0,0.000000,12,3.000000,21.570239,10.114852,99,99,0,0,0,0,0
3,39999,72,30000,2,10000,40,9999,0.100000,99,0,0.000000,12,0.000000,23.873073,2.378079,99,99,0,0,0,0,0
3,39999,73,30000,11,10000,40,9999,0.100000,99,0,0.000000,12,0.000000,23.150747,0.148597,99,99,0,0,0,0,0
3,39999,74,30000,10,20000,42,9999,0.100000,99,0,0.000000,12,6.000000,20.663646,9.687590,99,99,0,0,0,0,0
3,39999,75,30000,17,20000,40,9999,0.100000,99,0,0.000000,12,3.000000,32.940442,14.356785,99,99,0,0,0,0,0
3,39999,76,30000,0,0,40,9999,0.100000,99,0,0.000000,12,0.000000,29.875259,0.104965,99,99,0,0,0,0,0
3,39999,77,30000,40,0,40,9999,0.100000,99,0,0.000000,12,0.000000,33.768868,1.867722,99,99,0,0,0,0,0
3,39999,78,30000,83,20000,0,9999,0.100000,99,0,1.248899,12,0.000000,25.066868,0.545484,99,99,0,0,1,0,0
3,39999,79,30000,40,0,0,9999,0.100000,99,0,0.520217,12,0.000000,31.566767,1.120624,99,99,0,0,0,1,0
3,39999,80,30000,0,0,40,9999,0.100000,99,0,0.000000,12,1.000000,23.536111,11.837641,99,99,0,0,0,0,0
3,39999,81,30000,0,0,40,9999,0.100000,99,0,0.000000,13,0.000000,12.029895,0.335723,99,99,0,0,0,0,0
3,39999,82,30000,0,0,40,9999,0.100000,99,0,0.000000,12,0.000000,22.773311,2.377230,99,99,0,0,0,0,0
3,39999,83,30000,23,0,40,9999,0.100000,99,0,0.000000,12,2.000000,28.152811,18.529985,99,99,0,0,0,0,0
3,39999,84,30000,44,0,40,9999,0.100000,99,0,0.000000,12,0.000000,16.689175,0.253172,99,99,0,0,0,0,0
3,39999,85,30000,37,20000,96,9999,0.100000,99,0,50.151930,12,12.000000,18.982533,17.450824,99,99,1,0,0,0,0
3,39999,86,30000,11,10000,40,9999,0.100000,99,0,0.000000,12,0.000000,23.701012,11.627896,99,99,0,0,0,0,0
3,39999,87,30000,44,0,0,9999,0.100000,99,0,2.079088,12,0.000000,25.061667,0.840803,99,99,0,1,0,0,0
3,39999,88,30000,0,0,40,9999,0.100000,99,0,0.000000,12,0.000000,30.840647,1.000089,99,99,0,0,0,0,0
3,39999,89,30000,10,20000,40,9999,0.100000,99,0,0.000000,13,0.000000,17.263084,6.694626,99,99,0,0,0,0,0
3,39999,90,30000,44,0,40,9999,0.100000,99,0,0.000000,12,1.000000,30.393640,11.958392,99,99,0,0,0,0,0
3,39999,91,30000,62,10000,40,9999,0.100000,99,0,0.000000,12,0.000000,23.911053,1.530457,99,99,0,0,0,0,0
3,39999,92,30000,23,0,40,9999,0.100000,99,0,0.000000,12,2.000000,26.832540,10.749541,99,99,0,0,0,0,0
3,39999,93,30000,0,0,40,9999,0.100000,99,0,0.000000,12,0.000000,23.933700,5.343317,99,99,0,0,0,0,0
3,39999,94,30000,57,0,40,9999,0.100000,99,0,0.000000,12,0.000000,21.094402,0.288960,99,99,0,0,0,0,0
3,39999,95,30000,76,20000,40,9999,0.100000,99,0,0.000000,12,0.000000,34.326854,0.366599,99,99,0,0,0,0,0
3,39999,96,30000,40,0,40,9999,0.100000,99,0,0.000000,12,0.000000,17.201460,0.134900,99,99,0,0,0,0,0
3,39999,97,30000,76,20000,40,9999,0.100000,99,0,0.000000,12,0.000000,15.706595,6.131912,99,99,0,0,0,0,0
3,39999,98,30000,83,20000,40,9999,0.100000,99,0,0.000000,12,1.000000,28.442302,11.361931,99,99,0,0,0,0,0
3,39999,99,30000,2,10000,94,9999,0.100000,99,0,76.757949,12,13.000000,28.453925,28.805918,99,99,1,0,0,0,0
4,49999,0,40000,83,20000,40,9999,0.100000,99,0,0.000000,13,0.000000,30.985571,0.540985,99,99,0,0,0,0,0
4,49999,1,40000,76,20000,40,9999,0.100000,99,0,0.000000,14,1.000000,26.364559,6.586105,99,99,0,0,0,0,0
4,49999,2,40000,2,10000,41,9999,0.100000,99,0,0.000000,14,3.000000,25.928199,8.495474,99,99,0,0,0,0,0
4,49999,3,40000,17,20000,41,9999,0.100000,99,0,0.000000,13,4.000000,29.999565,11.410728,99,99,0,0,0,0,0
4,49999,4,40000,2,20000,40,9999,0.100000,99,0,0.000000,14,0.000000,17.114615,0.245449,99,99,0,0,0,0,0
4,49999,5,40000,0,0,41,9999,0.100000,99,0,0.000000,14,4.000000,29.690044,16.687318,99,99,0,0,0,0,0
4,49999,6,40000,0,0,40,9999,0.100000,99,0,0.000000,13,0.000000,33.654572,1.290350,99,99,0,0,0,0,0
4,49999,7,40000,76,20000,40,9999,0.100000,99,0,0.000000,14,1.000000,32.271516,6.022366,99,99,0,0,0,0,0
4,49999,8,40000,2,20000,40,9999,0.100000,99,0,0.000000,13,2.000000,28.177235,12.531371,99,99,0,0,0,0,0
4,49999,9,40000,2,20000,0,9999,0.100000,99,0,0.057998,14,0.000000,11.515568,0.716534,99,99,0,0,0,1,0
4,49999,10,40000,2,20000,40,9999,0.100000,99,0,0.000000,14,0.000000,11.404879,1.115142,99,99,0,0,0,0,0
4,49999,11,40000,57,0,0,9999,0.065000,99,0,0.483729,14,0.000000,22.724788,0.489206,99,99,0,0,0,0,1
4,49999,12,40000,62,10000,40,9999,0.100000,99,0,0.000000,13,0.000000,25.110514,1.126508,99,99,0,0,0,0,0
4,49999,13,40000,40,0,0,9999,0.100000,99,0,1.209418,14,0.000000,23.241167,1.225819,99,99,0,0,0,1,0
4,49999,14,40000,17,20000,40,9999,0.100000,99,0,0.000000,14,0.000000,25.530915,1.020112,99,99,0,0,0,0,0
4,49999,15,40000,83,20000,0,9999,0.100000,99,0,0.037470,14,0.000000,34.566428,0.543975,99,99,0,0,1,0,0
4,49999,16,40000,83,20000,0,9999,0.100000,99,0,0.529383,14,0.000000,18.233097,0.132699,99,99,0,0,0,1,0
4,49999,17,40000,40,0,40,9999,0.100000,99,0,0.000000,13,0.000000,33.702521,2.370262,99,99,0,0,0,0,0
4,49999,18,40000,44,0,40,9999,0.100000,99,0,0.000000,14,3.000000,30.113616,12.270679,99,99,0,0,0,0,0
4,49999,19,40000,81,20000,40,9999,0.100000,99,0,0.000000,14,0.000000,23.722117,1.228917,99,99,0,0,0,0,0
4,49999,20,40000,17,20000,40,9999,0.100000,99,0,0.000000,14,1.000000,31.954840,2.419082,99,99,0,0,0,0,0
4,49999,21,40000,62,10000,41,9999,0.100000,99,0,0.000000,13,4.000000,19.782276,9.840359,99,99,0,0,0,0,0
4,49999,22,40000,2,20000,40,9999,0.100000,99,0,0.000000,14,2.000000,23.012465,18.751431,99,99,0,0,0,0,0
4,49999,23,40000,2,10000,40,9999,0.100000,99,0,0.000000,14,0.000000,23.294974,0.530652,99,99,0,0,0,0,0
4,49999,24,40000,2,10000,40,9999,0.100000,99,0,0.000000,14,3.000000,29.712230,12.050139,99,99,0,0,0,0,0
4,49999,25,40000,44,0,40,9999,0.100000,99,0,0.000000,14,3.000000,30.508455,11.585334,99,99,0,0,0,0,0
4,49999,26,40000,17,20000,41,9999,0.100000,99,0,0.000000,14,4.000000,29.210822,16.919707,99,99,0,0,0,0,0
4,49999,27,40000,0,0,40,9999,0.100000,99,0,0.000000,14,1.000000,23.331600,8.892936,99,99,0,0,0,0,0
4,49999,28,40000,10,20000,40,9999,0.100000,99,0,0.000000,13,0.000000,31.500194,0.780056,99,99,0,0,0,0,0
4,49999,29,40000,0,0,0,9999,0.100000,99,0,1.366315,14,0.000000,33.448262,1.703276,99,99,0,0,1,0,0
4,49999,30,40000,2,20000,40,9999,0.100000,99,0,0.000000,14,3.000000,36.774065,9.425530,99,99,0,0,0,0,0
4,49999,31,40000,2,10000,40,9999,0.100000,99,0,0.000000,14,1.000000,23.563566,5.867913,99,99,0,0,0,0,0
4,49999,32,40000,2,20000,41,9999,0.100000,99,0,0.000000,14,3.000000,21.142958,9.062151,99,99,0,0,0,0,0
4,49999,33,40000,10,20000,40,9999,0.100000,99,0,0.000000,14,0.000000,31.987632,2.707766,99,99,0,0,0,0,0
4,49999,34,40000,83,20000,40,9999,0.100000,99,0,0.000000,14,0.000000,23.470944,1.112474,99,99,0,0,0,0,0
4,49999,35,40000,2,20000,40,9999,0.100000,99,0,0.000000,14,0.000000,24.108363,0.849901,99,99,0,0,0,0,0
4,49999,36,40000,81,20000,0,9999,0.100000,99,0,2.908125,14,0.000000,24.504862,0.677235,99,99,0,0,0,0,1
4,49999,37,40000,40,0,40,9999,0.100000,99,0,0.000000,14,1.000000,24.260457,18.769916,99,99,0,0,0,0,0
4,49999,38,40000,76,20000,0,9999,0.100000,99,0,0.465334,14,2.000000,31.159147,8.906980,99,99,0,0,0,1,0
4,49999,39,40000,57,0,90,9999,0.100000,99,0,17.771782,14,2.000000,36.650124,12.508155,99,99,1,0,0,0,0
4,49999,40,40000,0,0,40,9999,0.100000,99,0,0.000000,14,0.000000,23.751315,23.906107,99,99,0,0,0,0,0
4,49999,41,40000,10,20000,40,9999,0.100000,99,0,0.000000,14,1.000000,31.178540,16.921780,99,99,0,0,0,0,0
4,49999,42,40000,17,20000,40,9999,0.100000,99,0,0.000000,14,1.000000,31.882272,3.854590,99,99,0,0,0,0,0
4,49999,43,40000,0,0,41,9999,0.100000,99,0,0.000000,14,4.000000,26.898692,13.035152,99,99,0,0,0,0,0
4,49999,44,40000,99,30000,41,9999,0.100000,99,0,0.000000,14,4.000000,28.111175,9.518969,99,99,0,0,0,0,0
4,49999,45,40000,17,20000,40,9999,0.100000,99,0,0.000000,14,0.000000,17.839003,0.147228,99,99,0,0,0,0,0
4,49999,46,40000,76,20000,40,9999,0.100000,99,0,0.000000,14,0.000000,19.234091,0.271315,99,99,0,0,0,0,0
4,49999,47,40000,81,20000,40,9999,0.100000,99,0,0.000000,14,1.000000,31.866011,3.132154,99,99,0,0,0,0,0
4,49999,48,40000,44,0,0,9999,0.100000,99,0,0.366490,14,0.000000,17.133621,0.151086,99,99,0,0,0,0,1
4,49999,49,40000,2,10000,40,9999,0.100000,99,0,0.000000,14,1.000000,14.321557,3.965109,99,99,0,0,0,0,0
4,49999,50,40000,17,20000,0,9999,0.100000,99,0,0.034768,14,0.000000,26.915011,0.167100,99,99,0,1,0,0,0
4,49999,51,40000,10,20000,40,9999,0.100000,99,0,0.000000,14,0.000000,23.412553,6.019591,99,99,0,0,0,0,0
4,49999,52,40000,17,20000,90,9999,0.100000,99,0,1.158803,14,0.000000,25.734073,0.956043,99,99,1,0,0,0,0
4,49999,53,40000,2,20000,40,9999,0.100000,99,0,0.000000,14,0.000000,23.126009,0.677397,99,99,0,0,0,0,0
4,49999,54,40000,0,0,40,9999,0.100000,99,0,0.000000,14,2.000000,35.530510,17.309853,99,99,0,0,0,0,0
4,49999,55,40000,57,0,41,9999,0.100000,99,0,0.000000,14,3.000000,15.636621,9.242749,99,99,0,0,0,0,0
4,49999,56,40000,83,20000,40,9999,0.100000,99,0,0.000000,14,3.000000,29.605367,14.026712,99,99,0,0,0,0,0
4,49999,57,40000,81,20000,40,9999,0.100000,99,0,0.000000,14,3.000000,30.737133,9.854019,99,99,0,0,0,0,0
4,49999,58,40000,99,30000,40,9999,0.100000,99,0,0.000000,14,0.000000,22.219443,22.971060,99,99,0,0,0,0,0
4,49999,59,40000,2,10000,46,9999,0.100000,99,0,0.000000,14,16.000000,24.967946,19.438246,99,99,0,0,0,0,0
4,49999,60,40000,40,0,42,9999,0.100000,99,0,0.000000,14,7.000000,29.346160,12.463389,99,99,0,0,0,0,0
4,49999,61,40000,83,20000,40,9999,0.100000,99,0,0.000000,14,1.000000,33.777397,3.875637,99,99,0,0,0,0,0
4,49999,62,40000,2,10000,41,9999,0.100000,99,0,0.000000,14,4.000000,30.406457,15.784700,99,99,0,0,0,0,0
4,49999,63,40000,57,0,41,9999,0.100000,99,0,0.000000,14,4.000000,25.229447,6.028340,99,99,0,0,0,0,0
4,49999,64,40000,17,20000,40,9999,0.100000,99,0,0.000000,14,3.000000,31.343638,7.903594,99,99,0,0,0,0,0
4,49999,65,40000,44,0,40,9999,0.100000,99,0,0.000000,14,0.000000,23.408508,2.219458,99,99,0,0,0,0,0
4,49999,66,40000,83,20000,40,9999,0.100000,99,0,0.000000,14,1.000000,25.536370,10.310332,99,99,0,0,0,0,0
4,49999,67,40000,57,0,40,9999,0.100000,99,0,0.000000,14,0.000000,28.465167,12.027926,99,99,0,0,0,0,0
4,49999,68,40000,81,20000,40,9999,0.100000,99,0,0.000000,14,0.000000,33.749900,1.756296,99,99,0,0,0,0,0
4,49999,69,40000,64,30000,0,9999,0.100000,99,0,4.772142,14,1.000000,25.087716,1.459675,99,99,0,0,1,0,0
4,49999,70,40000,44,0,40,9999,0.100000,99,0,0.000000,14,1.000000,28.061570,7.243766,99,99,0,0,0,0,0
4,49999,71,40000,64,30000,40,9999,0.100000,99,0,0.000000,14,1.000000,25.136277,5.444489,99,99,0,0,0,0,0
4,49999,72,40000,81,20000,40,9999,0.100000,99,0,0.000000,14,0.000000,23.951727,1.463044,99,99,0,0,0,0,0
4,49999,73,40000,99,30000,40,9999,0.100000,99,0,0.000000,14,0.000000,23.062635,0.276131,99,99,0,0,0,0,0
4,49999,74,40000,44,0,40,9999,0.100000,99,0,0.000000,14,0.000000,26.200856,0.227783,99,99,0,0,0,0,0
4,49999,75,40000,81,20000,41,9999,0.100000,99,0,0.000000,14,4.000000,29.624787,14.756742,99,99,0,0,0,0,0
4,49999,76,40000,76,20000,40,9999,0.100000,99,0,0.000000,14,0.000000,29.875185,0.111160,99,99,0,0,0,0,0
4,49999,77,40000,76,20000,40,9999,0.100000,99,0,0.000000,14,0.000000,33.597643,1.660669,99,99,0,0,0,0,0
4,49999,78,40000,76,20000,40,9999,0.100000,99,0,0.000000,14,1.000000,24.823443,6.870920,99,99,0,0,0,0,0
4,49999,79,40000,2,20000,41,9999,0.100000,99,0,0.000000,14,4.000000,32.149890,10.721205,99,99,0,0,0,0,0
4,49999,80,40000,17,20000,40,9999,0.100000,99,0,0.000000,14,2.000000,23.491075,15.179562,99,99,0,0,0,0,0
4,49999,81,40000,40,0,43,9999,0.100000,99,0,0.000000,14,5.000000,11.962271,12.874610,99,99,0,0,0,0,0
4,49999,82,40000,83,20000,40,9999,0.100000,99,0,0.000000,14,1.000000,22.453600,3.470036,99,99,0,0,0,0,0
4,49999,83,40000,76,20000,40,9999,0.100000,99,0,0.000000,14,0.000000,27.578871,3.801274,99,99,0,0,0,0,0
4,49999,84,40000,44,0,40,9999,0.100000,99,0,0.000000,14,0.000000,16.784963,0.261691,99,99,0,0,0,0,0
4,49999,85,40000,40,0,91,9999,0.100000,99,0,25.753029,14,5.000000,26.608481,14.410900,99,99,1,0,0,0,0
4,49999,86,40000,64,30000,40,9999,0.100000,99,0,0.000000,14,0.000000,23.983280,3.129062,99,99,0,0,0,0,0
4,49999,87,40000,57,0,0,9999,0.100000,99,0,0.011879,14,0.000000,25.691524,0.180430,99,99,0,1,0,0,0
4,49999,88,40000,17,20000,40,9999,0.100000,99,0,0.000000,14,0.000000,31.088179,0.985992,99,99,0,0,0,0,0
4,49999,89,40000,76,20000,40,9999,0.100000,99,0,0.000000,14,1.000000,17.471368,11.024019,99,99,0,0,0,0,0
4,49999,90,40000,81,20000,41,9999,0.100000,99,0,0.000000,14,5.000000,29.072279,14.447230,99,99,0,0,0,0,0
4,49999,91,40000,99,30000,40,9999,0.100000,99,0,0.000000,14,0.000000,24.286137,0.722170,99,99,0,0,0,0,0
4,49999,92,40000,0,0,41,9999,0.100000,99,0,0.000000,14,3.000000,26.333004,12.046582,99,99,0,0,0,0,0
4,49999,93,40000,76,20000,40,9999,0.100000,99,0,0.000000,14,1.000000,23.675084,10.691767,99,99,0,0,0,0,0
4,49999,94,40000,0,0,40,9999,0.100000,99,0,0.000000,14,0.000000,21.014827,0.462565,99,99,0,0,0,0,0
4,49999,95,40000,2,20000,40,9999,0.100000,99,0,0.000000,14,0.000000,34.317249,0.229834,99,99,0,0,0,0,0
4,49999,96,40000,99,30000,40,9999,0.100000,99,0,0.000000,14,0.000000,17.123904,0.146987,99,99,0,0,0,0,0
4,49999,97,40000,44,0,40,9999,0.100000,99,0,0.000000,14,0.000000,15.702584,5.657093,99,99,0,0,0,0,0
4,49999,98,40000,83,20000,40,9999,0.100000,99,0,0.000000,14,0.000000,28.263556,4.050431,99,99,0,0,0,0,0
4,49999,99,40000,99,30000,40,9999,0.100000,99,0,0.000000,14,0.000000,34.866926,1.616321,99,99,0,0,0,0,0
5,59999,0,50000,17,20000,40,9999,0.100000,99,0,0.000000,14,0.000000,31.052200,0.553197,99,99,0,0,0,0,0
5,59999,1,50000,57,0,40,9999,0.100000,99,0,0.000000,14,1.000000,27.328365,10.778978,99,99,0,0,0,0,0
5,59999,2,50000,40,0,40,9999,0.100000,99,0,0.000000,14,2.000000,29.151857,11.377437,99,99,0,0,0,0,0
5,59999,3,50000,64,30000,40,9999,0.100000,99,0,0.000000,14,0.000000,33.914708,0.935173,99,99,0,0,0,0,0
5,59999,4,50000,64,30000,40,9999,0.100000,99,0,0.000000,15,0.000000,17.026059,0.631073,99,99,0,0,0,0,0
5,59999,5,50000,10,20000,40,9999,0.100000,99,0,0.000000,14,1.000000,30.175971,16.318779,99,99,0,0,0,0,0
5,59999,6,50000,83,20000,40,9999,0.100000,99,0,0.000000,14,0.000000,33.721177,4.899691,99,99,0,0,0,0,0
5,59999,7,50000,10,20000,40,9999,0.100000,99,0,0.000000,14,0.000000,32.575727,1.702567,99,99,0,0,0,0,0
5,59999,8,50000,81,20000,41,9999,0.100000,99,0,0.000000,15,5.000000,27.730632,12.612231,99,99,0,0,0,0,0
5,59999,9,50000,76,20000,0,9999,0.100000,99,0,0.064371,14,0.000000,11.723982,0.289663,99,99,0,0,0,1,0
5,59999,10,50000,0,0,40,9999,0.100000,99,0,0.000000,14,0.000000,11.636545,0.634661,99,99,0,0,0,0,0
5,59999,11,50000,2,20000,0,9999,0.100000,99,0,0.147217,14,0.000000,22.742976,1.039011,99,99,0,0,0,0,1
5,59999,12,50000,2,10000,40,9999,0.100000,99,0,0.000000,14,0.000000,24.381543,2.412674,99,99,0,0,0,0,0
5,59999,13,50000,75,40000,40,9999,0.100000,99,0,0.000000,15,0.000000,23.303907,0.788299,99,99,0,0,0,0,0
5,59999,14,50000,99,30000,40,9999,0.100000,99,0,0.000000,14,0.000000,24.746489,2.703752,99,99,0,0,0,0,0
5,59999,15,50000,57,0,0,9999,0.100000,99,0,2.084006,14,0.000000,34.509843,0.804942,99,99,0,0,1,0,0
5,59999,16,50000,10,20000,0,9999,0.100000,99,0,0.543137,15,0.000000,18.341158,0.136715,99,99,0,0,0,1,0
5,59999,17,50000,76,20000,40,9999,0.100000,99,0,0.000000,14,0.000000,33.782986,2.787810,99,99,0,0,0,0,0
5,59999,18,50000,44,0,40,9999,0.100000,99,0,0.000000,15,1.000000,32.281873,4.452864,99,99,0,0,0,0,0
5,59999,19,50000,76,20000,0,9999,0.100000,99,0,0.400374,14,0.000000,23.819120,0.638511,99,99,0,0,0,1,0
5,59999,20,50000,2,10000,40,9999,0.100000,99,0,0.000000,14,0.000000,32.832311,0.793610,99,99,0,0,0,0,0
5,59999,21,50000,40,0,43,9999,0.100000,99,0,0.000000,15,6.000000,18.978892,9.012823,99,99,0,0,0,0,0
5,59999,22,50000,0,0,40,9999,0.100000,99,0,0.000000,14,0.000000,22.864913,21.195158,99,99,0,0,0,0,0
5,59999,23,50000,64,30000,40,9999,0.100000,99,0,0.000000,14,0.000000,23.510802,0.594232,99,99,0,0,0,0,0
5,59999,24,50000,0,0,40,9999,0.100000,99,0,0.000000,14,0.000000,32.326595,5.523156,99,99,0,0,0,0,0
5,59999,25,50000,21,40000,40,9999,0.100000,99,0,0.000000,15,0.000000,27.750596,11.153757,99,99,0,0,0,0,0
5,59999,26,50000,0,0,41,9999,0.100000,99,0,0.000000,14,4.000000,30.333578,7.843567,99,99,0,0,0,0,0
5,59999,27,50000,64,30000,40,9999,0.100000,99,0,0.000000,14,1.000000,22.527085,7.583865,99,99,0,0,0,0,0
5,59999,28,50000,40,0,40,9999,0.100000,99,0,0.000000,14,0.000000,31.690548,0.739005,99,99,0,0,0,0,0
5,59999,29,50000,40,0,0,9999,0.100000,99,0,1.583716,14,0.000000,33.287897,1.255390,99,99,0,0,1,0,0
5,59999,30,50000,64,30000,40,9999,0.100000,99,0,0.000000,14,0.000000,34.969275,6.043275,99,99,0,0,0,0,0
5,59999,31,50000,0,0,40,9999,0.100000,99,0,0.000000,14,1.000000,24.759373,20.340087,99,99,0,0,0,0,0
5,59999,32,50000,44,0,40,9999,0.100000,99,0,0.000000,14,2.000000,24.622891,4.230233,99,99,0,0,0,0,0
5,59999,33,50000,81,20000,40,9999,0.100000,99,0,0.000000,15,0.000000,32.611496,0.452195,99,99,0,0,0,0,0
5,59999,34,50000,83,20000,40,9999,0.100000,99,0,0.000000,14,0.000000,23.329635,0.561919,99,99,0,0,0,0,0
5,59999,35,50000,44,0,0,9999,0.100000,99,0,0.274186,14,0.000000,24.400368,4.847879,99,99,0,0,0,0,1
5,59999,36,50000,99,30000,40,9999,0.100000,99,0,0.000000,15,0.000000,24.743588,2.782120,99,99,0,0,0,0,0
5,59999,37,50000,57,0,40,9999,0.100000,99,0,0.000000,14,1.000000,23.659811,3.799855,99,99,0,0,0,0,0
5,59999,38,50000,64,30000,0,9999,0.100000,99,0,0.352147,15,0.000000,32.624147,0.495650,99,99,0,0,0,1,0
5,59999,39,50000,83,20000,40,9999,0.100000,99,0,0.000000,14,2.000000,35.144877,12.713121,99,99,0,0,0,0,0
5,59999,40,50000,40,0,40,9999,0.100000,99,0,0.000000,14,0.000000,23.442027,10.356798,99,99,0,0,0,0,0
5,59999,41,50000,99,30000,40,9999,0.100000,99,0,0.000000,14,3.000000,30.761168,15.042273,99,99,0,0,0,0,0
5,59999,42,50000,76,20000,40,9999,0.100000,99,0,0.000000,14,0.000000,32.495876,1.688603,99,99,0,0,0,0,0
5,59999,43,50000,59,40000,41,9999,0.100000,99,0,0.000000,15,5.000000,29.822548,12.900701,99,99,0,0,0,0,0
5,59999,44,50000,2,20000,40,9999,0.100000,99,0,0.000000,14,0.000000,24.242972,3.081444,99,99,0,0,0,0,0
5,59999,45,50000,81,20000,40,9999,0.100000,99,0,0.000000,14,0.000000,17.936314,0.158177,99,99,0,0,0,0,0
5,59999,46,50000,99,30000,40,9999,0.100000,99,0,0.000000,15,0.000000,19.163257,0.268838,99,99,0,0,0,0,0
5,59999,47,50000,2,10000,40,9999,0.100000,99,0,0.000000,14,0.000000,32.648746,1.048026,99,99,0,0,0,0,0
5,59999,48,50000,0,0,0,9999,0.100000,99,0,0.356285,15,0.000000,17.077682,0.156720,99,99,0,0,0,0,1
5,59999,49,50000,83,20000,42,9999,0.100000,99,0,0.000000,14,4.000000,15.923968,6.694137,99,99,0,0,0,0,0
5,59999,50,50000,99,30000,0,9999,0.100000,99,0,0.030816,14,0.000000,26.957144,0.170067,99,99,0,1,0,0,0
5,59999,51,50000,64,30000,40,9999,0.100000,99,0,0.000000,15,0.000000,22.921428,5.152820,99,99,0,0,0,0,0
5,59999,52,50000,57,0,90,9999,0.100000,99,0,0.332985,15,0.000000,25.640808,0.567580,99,99,1,0,0,0,0
5,59999,53,50000,17,20000,40,9999,0.100000,99,0,0.000000,14,0.000000,23.341903,0.825277,99,99,0,0,0,0,0
5,59999,54,50000,76,20000,40,9999,0.100000,99,0,0.000000,14,2.000000,33.854627,16.809272,99,99,0,0,0,0,0
5,59999,55,50000,44,0,41,9999,0.100000,99,0,0.000000,14,3.000000,18.824121,7.762410,99,99,0,0,0,0,0
5,59999,56,50000,2,20000,40,9999,0.100000,99,0,0.000000,14,2.000000,27.694305,11.783655,99,99,0,0,0,0,0
5,59999,57,50000,64,30000,40,9999,0.065000,99,0,0.000000,15,1.000000,32.883606,4.447020,99,99,0,0,0,0,0
5,59999,58,50000,99,30000,41,9999,0.100000,99,0,0.000000,15,3.000000,22.176513,8.629618,99,99,0,0,0,0,0
5,59999,59,50000,99,30000,40,9999,0.100000,99,0,0.000000,15,0.000000,29.819210,3.210952,99,99,0,0,0,0,0
5,59999,60,50000,0,0,41,9999,0.100000,99,0,0.000000,15,4.000000,35.877313,16.005237,99,99,0,0,0,0,0
5,59999,61,50000,10,20000,40,9999,0.100000,99,0,0.000000,14,0.000000,33.676516,3.779873,99,99,0,0,0,0,0
5,59999,62,50000,83,20000,40,9999,0.100000,99,0,0.000000,15,3.000000,28.830570,17.833790,99,99,0,0,0,0,0
5,59999,63,50000,59,40000,40,9999,0.100000,99,0,0.000000,15,0.000000,25.323149,0.931462,99,99,0,0,0,0,0
5,59999,64,50000,57,0,40,9999,0.100000,99,0,0.000000,14,1.000000,29.483781,12.373842,99,99,0,0,0,0,0
5,59999,65,50000,0,0,40,9999,0.100000,99,0,0.000000,14,0.000000,23.524863,0.420972,99,99,0,0,0,0,0
5,59999,66,50000,2,10000,41,9999,0.100000,99,0,0.000000,14,3.000000,26.027362,11.597942,99,99,0,0,0,0,0
5,59999,67,50000,40,0,41,9999,0.100000,99,0,0.000000,15,3.000000,28.352563,10.775176,99,99,0,0,0,0,0
5,59999,68,50000,2,10000,40,9999,0.100000,99,0,0.000000,14,0.000000,33.595307,1.525178,99,99,0,0,0,0,0
5,59999,69,50000,2,10000,0,9999,0.100000,99,0,1.353515,15,0.000000,25.158497,0.895676,99,99,0,0,1,0,0
5,59999,70,50000,2,10000,40,9999,0.100000,99,0,0.000000,15,2.000000,27.988719,9.564800,99,99,0,0,0,0,0
5,59999,71,50000,64,30000,40,9999,0.100000,99,0,0.000000,14,0.000000,24.885464,0.906407,99,99,0,0,0,0,0
5,59999,72,50000,44,0,40,9999,0.100000,99,0,0.000000,14,0.000000,24.062562,1.026256,99,99,0,0,0,0,0
5,59999,73,50000,0,0,40,9999,0.100000,99,0,0.000000,15,0.000000,23.006566,0.369547,99,99,0,0,0,0,0
5,59999,74,50000,44,0,40,9999,0.100000,99,0,0.000000,14,0.000000,26.201903,0.229990,99,99,0,0,0,0,0
5,59999,75,50000,21,40000,40,9999,0.100000,99,0,0.000000,15,0.000000,34.183112,5.698062,99,99,0,0,0,0,0
5,59999,76,50000,81,20000,40,9999,0.100000,99,0,0.000000,15,0.000000,29.875051,0.102830,99,99,0,0,0,0,0
5,59999,77,50000,10,20000,40,9999,0.100000,99,0,0.000000,15,0.000000,33.439798,1.543134,99,99,0,0,0,0,0
5,59999,78,50000,2,10000,40,9999,0.100000,99,0,0.000000,15,0.000000,24.848326,3.865541,99,99,0,0,0,0,0
5,59999,79,50000,0,0,41,9999,0.100000,99,0,0.000000,15,4.000000,29.606119,15.501105,99,99,0,0,0,0,0
5,59999,80,50000,76,20000,40,9999,0.100000,99,0,0.000000,15,1.000000,23.497280,5.035023,99,99,0,0,0,0,0
5,59999,81,50000,40,0,40,9999,0.100000,99,0,0.000000,15,0.000000,17.842883,7.215757,99,99,0,0,0,0,0
5,59999,82,50000,17,20000,41,9999,0.100000,99,0,0.000000,14,4.000000,23.613501,7.266872,99,99,0,0,0,0,0
5,59999,83,50000,21,40000,40,9999,0.100000,99,0,0.000000,15,1.000000,27.166903,10.783980,99,99,0,0,0,0,0
5,59999,84,50000,2,10000,40,9999,0.100000,99,0,0.000000,15,0.000000,16.890885,0.275844,99,99,0,0,0,0,0
5,59999,85,50000,21,40000,40,9999,0.100000,99,0,0.000000,15,0.000000,27.374307,7.066530,99,99,0,0,0,0,0
5,59999,86,50000,64,30000,45,9999,0.100000,99,0,0.000000,14,13.000000,24.282384,15.370788,99,99,0,0,0,0,0
5,59999,87,50000,0,0,0,9999,0.100000,99,0,0.019744,15,0.000000,25.726875,0.186916,99,99,0,1,0,0,0
5,59999,88,50000,2,20000,40,9999,0.100000,99,0,0.000000,14,0.000000,31.352896,0.974214,99,99,0,0,0,0,0
5,59999,89,50000,83,20000,42,9999,0.100000,99,0,0.000000,15,4.000000,18.156923,8.337591,99,99,0,0,0,0,0
5,59999,90,50000,99,30000,40,9999,0.100000,99,0,0.000000,15,1.000000,31.258833,14.362754,99,99,0,0,0,0,0
5,59999,91,50000,83,20000,40,9999,0.100000,99,0,0.000000,15,1.000000,24.580815,3.748523,99,99,0,0,0,0,0
5,59999,92,50000,2,20000,40,9999,0.100000,99,0,0.000000,15,2.000000,23.816788,8.625486,99,99,0,0,0,0,0
5,59999,93,50000,83,20000,40,9999,0.100000,99,0,0.000000,15,0.000000,24.473884,0.009050,99,99,0,0,0,0,0
5,59999,94,50000,0,0,40,9999,0.100000,99,0,0.000000,15,0.000000,20.928924,1.046718,99,99,0,0,0,0,0
5,59999,95,50000,83,20000,40,9999,0.100000,99,0,0.000000,14,0.000000,34.318208,0.201337,99,99,0,0,0,0,0
5,59999,96,50000,10,20000,40,9999,0.100000,99,0,0.000000,15,0.000000,17.053107,0.157445,99,99,0,0,0,0,0
5,59999,97,50000,99,30000,40,9999,0.100000,99,0,0.000000,15,0.000000,15.731634,5.943268,99,99,0,0,0,0,0
5,59999,98,50000,39,40000,40,9999,0.100000,99,0,0.000000,15,0.000000,27.784560,9.180226,99,99,0,0,0,0,0
5,59999,99,50000,83,20000,40,9999,0.100000,99,0,0.000000,15,0.000000,34.721349,2.736706,99,99,0,0,0,0,0
6,69999,0,60000,2,10000,40,9999,0.100000,99,0,0.000000,15,0.000000,31.097555,0.522988,99,99,0,0,0,0,0
6,69999,1,60000,64,30000,40,9999,0.100000,99,0,0.000000,15,0.000000,28.768465,9.718021,99,99,0,0,0,0,0
6,69999,2,60000,2,10000,41,9999,0.100000,99,0,0.000000,16,3.000000,28.188105,13.948109,99,99,0,0,0,0,0
6,69999,3,60000,99,30000,40,9999,0.100000,99,0,0.000000,16,0.000000,34.319328,1.137696,99,99,0,0,0,0,0
6,69999,4,60000,99,30000,40,9999,0.100000,99,0,0.000000,16,0.000000,16.933520,1.005098,99,99,0,0,0,0,0
6,69999,5,60000,10,20000,40,9999,0.100000,99,0,0.000000,16,2.000000,29.168034,16.504179,99,99,0,0,0,0,0
6,69999,6,60000,81,20000,40,9999,0.100000,99,0,0.000000,16,0.000000,34.019614,0.975559,99,99,0,0,0,0,0
6,69999,7,60000,39,40000,40,9999,0.100000,99,0,0.000000,16,0.000000,32.298935,0.482623,99,99,0,0,0,0,0
6,69999,8,60000,40,0,41,9999,0.100000,99,0,0.000000,15,4.000000,30.682239,10.901332,99,99,0,0,0,0,0
6,69999,9,60000,0,0,0,9999,0.100000,99,0,0.319818,16,0.000000,11.791436,0.411135,99,99,0,0,0,1,0
6,69999,10,60000,2,10000,40,9999,0.100000,99,0,0.000000,16,0.000000,11.692852,2.172410,99,99,0,0,0,0,0
6,69999,11,60000,0,0,0,9999,0.100000,99,0,0.455906,16,0.000000,22.655606,0.145281,99,99,0,0,0,0,1
6,69999,12,60000,0,0,41,9999,0.100000,99,0,0.000000,15,5.000000,24.326694,8.396798,99,99,0,0,0,0,0
6,69999,13,60000,64,30000,0,9999,0.100000,99,0,12.447109,16,2.000000,23.243745,2.909360,99,99,0,0,0,1,0
6,69999,14,60000,40,0,40,9999,0.100000,99,0,0.000000,15,2.000000,25.225880,8.731528,99,99,0,0,0,0,0
6,69999,15,60000,59,40000,45,9999,0.100000,99,0,0.000000,15,18.000000,34.195887,20.420338,99,99,0,0,0,0,0
6,69999,16,60000,57,0,0,9999,0.100000,99,0,0.553535,16,0.000000,18.455276,0.141090,99,99,0,0,0,1,0
6,69999,17,60000,0,0,40,9999,0.100000,99,0,0.000000,15,0.000000,33.568267,9.263378,99,99,0,0,0,0,0
6,69999,18,60000,0,0,40,9999,0.100000,99,0,0.000000,15,0.000000,33.581832,0.873882,99,99,0,0,0,0,0
6,69999,19,60000,2,10000,40,9999,0.100000,99,0,0.000000,16,2.000000,23.746882,2.719021,99,99,0,0,0,0,0
6,69999,20,60000,57,0,40,9999,0.100000,99,0,0.000000,16,0.000000,33.065962,0.825535,99,99,0,0,0,0,0
6,69999,21,60000,21,40000,40,9999,0.100000,99,0,0.000000,15,0.000000,22.908665,13.640408,99,99,0,0,0,0,0
6,69999,22,60000,0,0,40,9999,0.100000,99,0,0.000000,15,2.000000,23.184591,21.608114,99,99,0,0,0,0,0
6,69999,23,60000,59,40000,40,9999,0.100000,99,0,0.000000,15,0.000000,23.769691,0.996306,99,99,0,0,0,0,0
6,69999,24,60000,10,20000,0,9999,0.100000,99,0,2.320345,16,0.000000,32.308746,7.304152,99,99,0,0,1,0,0
6,69999,25,60000,64,30000,40,9999,0.100000,99,0,0.000000,16,1.000000,27.983363,8.312667,99,99,0,0,0,0,0
6,69999,26,60000,39,40000,41,9999,0.100000,99,0,0.000000,16,5.000000,33.646425,9.888386,99,99,0,0,0,0,0
6,69999,27,60000,2,10000,40,9999,0.100000,99,0,0.000000,16,0.000000,21.832964,4.174463,99,99,0,0,0,0,0
6,69999,28,60000,0,0,40,9999,0.100000,99,0,0.000000,15,0.000000,31.888368,0.921050,99,99,0,0,0,0,0
6,69999,29,60000,75,40000,40,9999,0.100000,99,0,0.000000,16,0.000000,33.069060,8.608973,99,99,0,0,0,0,0
6,69999,30,60000,0,0,0,9999,0.100000,99,0,0.151201,16,0.000000,34.438438,1.393794,99,99,0,0,1,0,0
6,69999,31,60000,0,0,40,9999,0.100000,99,0,0.000000,16,1.000000,25.383419,22.464483,99,99,0,0,0,0,0
6,69999,32,60000,39,40000,40,9999,0.100000,99,0,0.000000,16,2.000000,24.543368,14.238433,99,99,0,0,0,0,0
6,69999,33,60000,0,0,40,9999,0.100000,99,0,0.000000,15,0.000000,32.530735,1.214493,99,99,0,0,0,0,0
6,69999,34,60000,57,0,40,9999,0.100000,99,0,0.000000,15,0.000000,23.096069,0.339832,99,99,0,0,0,0,0
6,69999,35,60000,83,20000,0,9999,0.100000,99,0,0.390505,16,0.000000,24.928954,0.247248,99,99,0,0,0,0,1
6,69999,36,60000,0,0,40,9999,0.100000,99,0,0.000000,16,0.000000,25.074251,0.251206,99,99,0,0,0,0,0
6,69999,37,60000,57,0,40,9999,0.100000,99,0,0.000000,16,0.000000,25.236009,0.279334,99,99,0,0,0,0,0
6,69999,38,60000,83,20000,0,9999,0.100000,99,0,1.148825,15,0.000000,32.558674,2.636743,99,99,0,0,0,1,0
6,69999,39,60000,64,30000,41,9999,0.100000,99,0,0.000000,16,5.000000,33.870802,10.442749,99,99,0,0,0,0,0
6,69999,40,60000,0,0,40,9999,0.100000,99,0,0.000000,16,0.000000,22.935858,0.170544,99,99,0,0,0,0,0
6,69999,41,60000,44,0,40,9999,0.100000,99,0,0.000000,16,3.000000,29.204691,7.320891,99,99,0,0,0,0,0
6,69999,42,60000,59,40000,40,9999,0.100000,99,0,0.000000,15,0.000000,32.209788,0.625176,99,99,0,0,0,0,0
6,69999,43,60000,57,0,40,9999,0.100000,99,0,0.000000,16,2.000000,28.204093,7.045830,99,99,0,0,0,0,0
6,69999,44,60000,81,20000,41,9999,0.100000,99,0,0.000000,16,5.000000,24.507839,8.734444,99,99,0,0,0,0,0
6,69999,45,60000,0,0,40,9999,0.100000,99,0,0.000000,15,0.000000,18.043789,0.161083,99,99,0,0,0,0,0
6,69999,46,60000,10,20000,40,9999,0.100000,99,0,0.000000,16,0.000000,19.091868,0.250571,99,99,0,0,0,0,0
6,69999,47,60000,44,0,40,9999,0.100000,99,0,0.000000,16,0.000000,32.433924,0.152520,99,99,0,0,0,0,0
6,69999,48,60000,57,0,0,9999,0.100000,99,0,0.335928,16,0.000000,17.022536,0.144190,99,99,0,0,0,0,1
6,69999,49,60000,81,20000,43,9999,0.100000,99,0,0.000000,16,6.000000,18.121934,9.843454,99,99,0,0,0,0,0
6,69999,50,60000,21,40000,0,9999,0.100000,99,0,0.008524,16,0.000000,26.998127,0.161425,99,99,0,1,0,0,0
6,69999,51,60000,44,0,40,9999,0.100000,99,0,0.000000,16,0.000000,22.517349,0.133253,99,99,0,0,0,0,0
6,69999,52,60000,59,40000,90,9999,0.100000,99,0,1.690384,16,0.000000,25.633548,0.750705,99,99,1,0,0,0,0
6,69999,53,60000,57,0,40,9999,0.100000,99,0,0.000000,16,0.000000,23.602521,1.152444,99,99,0,0,0,0,0
6,69999,54,60000,99,30000,40,9999,0.100000,99,0,0.000000,16,1.000000,32.232884,13.637548,99,99,0,0,0,0,0
6,69999,55,60000,2,10000,41,9999,0.100000,99,0,0.000000,16,4.000000,19.345190,8.852593,99,99,0,0,0,0,0
6,69999,56,60000,44,0,40,9999,0.100000,99,0,0.000000,15,2.000000,29.180946,8.306967,99,99,0,0,0,0,0
6,69999,57,60000,86,50000,40,9999,0.100000,99,0,0.000000,16,0.000000,33.841454,0.976067,99,99,0,0,0,0,0
6,69999,58,60000,40,0,44,9999,0.100000,99,0,0.000000,16,8.000000,18.594557,10.254393,99,99,0,0,0,0,0
6,69999,59,60000,59,40000,40,9999,0.100000,99,0,0.000000,16,0.000000,29.821939,3.038405,99,99,0,0,0,0,0
6,69999,60,60000,0,0,40,9999,0.100000,99,0,0.000000,16,1.000000,33.947375,10.423512,99,99,0,0,0,0,0
6,69999,61,60000,59,40000,44,9999,0.100000,99,0,0.000000,16,17.000000,33.355092,19.991842,99,99,0,0,0,0,0
6,69999,62,60000,0,0,41,9999,0.100000,99,0,0.000000,16,5.000000,25.008335,11.031817,99,99,0,0,0,0,0
6,69999,63,60000,99,30000,40,9999,0.100000,99,0,0.000000,15,0.000000,25.597533,2.252918,99,99,0,0,0,0,0
6,69999,64,60000,81,20000,40,9999,0.100000,99,0,0.000000,16,2.000000,30.195263,12.657145,99,99,0,0,0,0,0
6,69999,65,60000,59,40000,40,9999,0.135000,99,0,0.000000,16,2.000000,23.460474,2.767170,99,99,0,0,0,0,0
6,69999,66,60000,64,30000,40,9999,0.100000,99,0,0.000000,16,0.000000,24.756153,3.598220,99,99,0,0,0,0,0
6,69999,67,60000,0,0,41,9999,0.100000,99,0,0.000000,16,4.000000,25.189379,7.518499,99,99,0,0,0,0,0
6,69999,68,60000,2,10000,40,9999,0.100000,99,0,0.000000,15,0.000000,33.425961,4.044582,99,99,0,0,0,0,0
6,69999,69,60000,99,30000,0,9999,0.100000,99,0,0.307139,16,0.000000,25.466597,0.535114,99,99,0,0,1,0,0
6,69999,70,60000,81,20000,40,9999,0.100000,99,0,0.000000,16,2.000000,30.420269,16.307199,99,99,0,0,0,0,0
6,69999,71,60000,81,20000,40,9999,0.100000,99,0,0.000000,16,0.000000,25.221459,0.542656,99,99,0,0,0,0,0
6,69999,72,60000,81,20000,40,9999,0.100000,99,0,0.000000,16,2.000000,23.984538,2.875907,99,99,0,0,0,0,0
6,69999,73,60000,99,30000,40,9999,0.100000,99,0,0.000000,15,0.000000,22.788588,0.141475,99,99,0,0,0,0,0
6,69999,74,60000,39,40000,40,9999,0.100000,99,0,0.000000,16,0.000000,26.202652,0.222722,99,99,0,0,0,0,0
6,69999,75,60000,81,20000,40,9999,0.100000,99,0,0.000000,16,1.000000,34.813741,13.777368,99,99,0,0,0,0,0
6,69999,76,60000,83,20000,40,9999,0.100000,99,0,0.000000,16,0.000000,29.874927,0.100254,99,99,0,0,0,0,0
6,69999,77,60000,59,40000,40,9999,0.100000,99,0,0.000000,16,0.000000,33.241848,3.837157,99,99,0,0,0,0,0
6,69999,78,60000,75,40000,40,9999,0.100000,99,0,0.000000,16,0.000000,25.378711,1.509526,99,99,0,0,0,0,0
6,69999,79,60000,39,40000,42,9999,0.100000,99,0,0.000000,16,9.000000,33.101552,49.740666,99,99,0,0,0,0,0
6,69999,80,60000,44,0,40,9999,0.100000,99,0,0.000000,16,0.000000,24.788744,0.265083,99,99,0,0,0,0,0
6,69999,81,60000,57,0,42,9999,0.100000,99,0,0.000000,16,4.000000,17.845665,13.364692,99,99,0,0,0,0,0
6,69999,82,60000,2,10000,41,9999,0.100000,99,0,0.000000,16,4.000000,23.959072,7.345499,99,99,0,0,0,0,0
6,69999,83,60000,99,30000,40,9999,0.100000,99,0,0.000000,16,2.000000,28.545530,12.548686,99,99,0,0,0,0,0
6,69999,84,60000,81,20000,40,9999,0.100000,99,0,0.000000,16,0.000000,17.003824,0.282572,99,99,0,0,0,0,0
6,69999,85,60000,81,20000,41,9999,0.100000,99,0,0.000000,16,4.000000,27.441788,12.797368,99,99,0,0,0,0,0
6,69999,86,60000,39,40000,40,9999,0.100000,99,0,0.000000,16,0.000000,12.809532,0.207610,99,99,0,0,0,0,0
6,69999,87,60000,44,0,0,9999,0.100000,99,0,0.019651,16,0.000000,25.758453,0.183105,99,99,0,1,0,0,0
6,69999,88,60000,2,10000,40,9999,0.100000,99,0,0.000000,16,0.000000,31.640044,0.914070,99,99,0,0,0,0,0
6,69999,89,60000,39,40000,43,9999,0.100000,99,0,0.000000,16,7.000000,19.601129,10.900242,99,99,0,0,0,0,0
6,69999,90,60000,75,40000,40,9999,0.100000,99,0,0.000000,16,0.000000,32.343257,0.978048,99,99,0,0,0,0,0
6,69999,91,60000,44,0,40,9999,0.100000,99,0,0.000000,16,0.000000,25.461539,0.402505,99,99,0,0,0,0,0
6,69999,92,60000,59,40000,40,9999,0.100000,99,0,0.000000,16,1.000000,25.051950,9.343816,99,99,0,0,0,0,0
6,69999,93,60000,39,40000,40,9999,0.100000,99,0,0.000000,16,1.000000,24.473771,18.292355,99,99,0,0,0,0,0
6,69999,94,60000,86,50000,0,9999,0.100000,99,0,0.001811,16,0.000000,20.827866,0.840890,99,99,0,0,0,0,1
6,69999,95,60000,10,20000,40,9999,0.100000,99,0,0.000000,16,0.000000,34.318076,0.203259,99,99,0,0,0,0,0
6,69999,96,60000,21,40000,40,9999,0.100000,99,0,0.000000,16,0.000000,16.982565,0.150068,99,99,0,0,0,0,0
6,69999,97,60000,21,40000,40,9999,0.100000,99,0,0.000000,16,0.000000,15.667174,5.706193,99,99,0,0,0,0,0
6,69999,98,60000,57,0,41,9999,0.100000,99,0,0.000000,16,3.000000,28.290780,12.430261,99,99,0,0,0,0,0
6,69999,99,60000,83,20000,44,9999,0.100000,99,0,0.000000,16,18.000000,34.311310,28.393002,99,99,0,0,0,0,0
7,79999,0,70000,10,20000,40,9999,0.100000,99,0,0.000000,16,0.000000,31.127718,0.521453,99,99,0,0,0,0,0
7,79999,1,70000,75,40000,40,9999,0.100000,99,0,0.000000,16,3.000000,28.622671,10.569107,99,99,0,0,0,0,0
7,79999,2,70000,2,10000,41,9999,0.100000,99,0,0.000000,17,4.000000,30.105968,12.902232,99,99,0,0,0,0,0
7,79999,3,70000,44,0,41,9999,0.100000,99,0,0.000000,16,4.000000,34.787429,7.862804,99,99,0,0,0,0,0
7,79999,4,70000,21,40000,0,9999,0.100000,99,0,0.017682,17,0.000000,16.846023,2.238081,99,99,0,0,0,0,1
7,79999,5,70000,44,0,41,9999,0.100000,99,0,0.000000,17,6.000000,29.580398,11.202224,99,99,0,0,0,0,0
7,79999,6,70000,2,10000,40,9999,0.100000,99,0,0.000000,16,0.000000,34.043637,0.961828,99,99,0,0,0,0,0
7,79999,7,70000,10,20000,40,9999,0.100000,99,0,0.000000,17,0.000000,32.310378,0.894128,99,99,0,0,0,0,0
7,79999,8,70000,0,0,41,9999,0.100000,99,0,0.000000,16,4.000000,26.681075,12.714824,99,99,0,0,0,0,0
7,79999,9,70000,39,40000,0,9999,0.100000,99,0,0.006324,17,0.000000,11.667175,0.150180,99,99,0,0,0,1,0
7,79999,10,70000,21,40000,40,9999,0.100000,99,0,0.000000,18,0.000000,11.595302,0.148607,99,99,0,0,0,0,0
7,79999,11,70000,59,40000,0,9999,0.100000,99,0,0.437802,18,0.000000,22.598519,0.142884,99,99,0,0,0,0,1
7,79999,12,70000,64,30000,40,9999,0.100000,99,0,0.000000,16,0.000000,29.606619,2.448692,99,99,0,0,0,0,0
7,79999,13,70000,10,20000,1,9999,0.100000,99,0,16.583860,17,3.000000,24.796201,3.371850,99,99,0,0,0,1,0
7,79999,14,70000,44,0,40,9999,0.100000,99,0,0.000000,16,0.000000,25.137202,1.201855,99,99,0,0,0,0,0
7,79999,15,70000,81,20000,46,9999,0.100000,99,0,0.000000,17,18.000000,28.087804,22.559007,99,99,0,0,0,0,0
7,79999,16,70000,57,0,0,9999,0.100000,99,0,1.655886,17,0.000000,18.572941,0.942360,99,99,0,0,0,1,0
7,79999,17,70000,40,0,40,9999,0.100000,99,0,0.000000,17,0.000000,33.318027,3.126050,99,99,0,0,0,0,0
7,79999,18,70000,99,30000,40,9999,0.100000,99,0,0.000000,17,0.000000,33.924582,0.914933,99,99,0,0,0,0,0
7,79999,19,70000,15,60000,41,9999,0.100000,99,0,0.000000,17,3.000000,25.192383,3.383854,99,99,0,0,0,0,0
7,79999,20,70000,39,40000,40,9999,0.100000,99,0,0.000000,17,0.000000,33.338599,0.852711,99,99,0,0,0,0,0
7,79999,21,70000,40,0,40,9999,0.100000,99,0,0.000000,17,1.000000,23.618100,4.922438,99,99,0,0,0,0,0
7,79999,22,70000,21,40000,42,9999,0.100000,99,0,0.000000,17,7.000000,24.154580,17.971855,99,99,0,0,0,0,0
7,79999,23,70000,15,60000,40,9999,0.100000,99,0,0.000000,17,0.000000,24.081956,2.830994,99,99,0,0,0,0,0
7,79999,24,70000,49,60000,0,9999,0.100000,99,0,0.483849,17,0.000000,32.858675,0.468468,99,99,0,0,1,0,0
7,79999,25,70000,99,30000,41,9999,0.100000,99,0,0.000000,17,4.000000,29.106169,15.217177,99,99,0,0,0,0,0
7,79999,26,70000,40,0,40,9999,0.100000,99,0,0.000000,17,3.000000,29.865314,11.261769,99,99,0,0,0,0,0
7,79999,27,70000,0,0,41,9999,0.100000,99,0,0.000000,17,3.000000,21.773960,10.719958,99,99,0,0,0,0,0
7,79999,28,70000,0,0,2,9999,0.100000,99,0,0.023798,16,8.000000,32.183830,11.114064,99,99,0,1,0,0,0
7,79999,29,70000,44,0,40,9999,0.100000,99,0,0.000000,17,1.000000,32.683566,3.959548,99,99,0,0,0,0,0
7,79999,30,70000,83,20000,40,9999,0.100000,99,0,0.000000,16,1.000000,34.442888,2.026211,99,99,0,0,0,0,0
7,79999,31,70000,75,40000,40,9999,0.100000,99,0,0.000000,17,1.000000,24.722502,9.415133,99,99,0,0,0,0,0
7,79999,32,70000,39,40000,45,9999,0.100000,99,0,0.000000,17,14.000000,25.596921,25.220164,99,99,0,0,0,0,0
7,79999,33,70000,83,20000,0,9999,0.100000,99,0,0.172161,16,0.000000,32.349597,0.617264,99,99,0,0,0,1,0
7,79999,34,70000,0,0,40,9999,0.100000,99,0,0.000000,17,0.000000,22.971338,0.345755,99,99,0,0,0,0,0
7,79999,35,70000,83,20000,0,9999,0.100000,99,0,0.914982,17,0.000000,25.119691,0.626051,99,99,0,0,0,0,1
7,79999,36,70000,10,20000,40,9999,0.100000,99,0,0.000000,17,0.000000,25.246656,0.597651,99,99,0,0,0,0,0
7,79999,37,70000,59,40000,40,9999,0.100000,99,0,0.000000,17,0.000000,25.389532,0.569925,99,99,0,0,0,0,0
7,79999,38,70000,0,0,40,9999,0.100000,99,0,0.000000,16,0.000000,32.566033,0.298264,99,99,0,0,0,0,0
7,79999,39,70000,75,40000,40,9999,0.100000,99,0,0.000000,17,3.000000,29.751139,11.447958,99,99,0,0,0,0,0
7,79999,40,70000,83,20000,40,9999,0.100000,99,0,0.000000,17,0.000000,22.839421,0.176124,99,99,0,0,0,0,0
7,79999,41,70000,15,60000,91,9999,0.100000,99,0,8.287581,17,4.000000,25.650049,12.271552,99,99,1,0,0,0,0
7,79999,42,70000,21,40000,40,9999,0.100000,99,0,0.000000,17,0.000000,32.232348,1.048096,99,99,0,0,0,0,0
7,79999,43,70000,59,40000,41,9999,0.100000,99,0,0.000000,16,3.000000,27.198135,7.056493,99,99,0,0,0,0,0
7,79999,44,70000,2,10000,40,9999,0.100000,99,0,0.000000,17,0.000000,29.770809,1.435936,99,99,0,0,0,0,0
7,79999,45,70000,86,50000,40,9999,0.100000,99,0,0.000000,17,0.000000,18.159936,0.319129,99,99,0,0,0,0,0
7,79999,46,70000,99,30000,40,9999,0.100000,99,0,0.000000,17,0.000000,19.052651,0.342999,99,99,0,0,0,0,0
7,79999,47,70000,0,0,40,9999,0.100000,99,0,0.000000,17,0.000000,32.433436,0.424092,99,99,0,0,0,0,0
7,79999,48,70000,99,30000,40,9999,0.100000,99,0,0.000000,16,0.000000,16.967698,0.154223,99,99,0,0,0,0,0
7,79999,49,70000,64,30000,99,9999,0.100000,99,0,68.728640,17,17.000000,12.111952,23.691884,99,99,1,0,0,0,0
7,79999,50,70000,41,60000,0,9999,0.100000,99,0,0.025578,17,0.000000,27.039159,0.163124,99,99,0,1,0,0,0
7,79999,51,70000,49,60000,40,9999,0.100000,99,0,0.000000,17,0.000000,22.483692,0.136762,99,99,0,0,0,0,0
7,79999,52,70000,2,10000,40,9999,0.100000,99,0,0.000000,17,2.000000,25.867684,13.739738,99,99,0,0,0,0,0
7,79999,53,70000,64,30000,41,9999,0.100000,99,0,0.000000,17,4.000000,23.937256,11.002227,99,99,0,0,0,0,0
7,79999,54,70000,86,50000,40,9999,0.135000,99,0,0.000000,17,2.000000,32.662992,9.823395,99,99,0,0,0,0,0
7,79999,55,70000,0,0,40,9999,0.100000,99,0,0.000000,17,1.000000,17.773493,11.601807,99,99,0,0,0,0,0
7,79999,56,70000,75,40000,40,9999,0.100000,99,0,0.000000,17,3.000000,29.021654,10.347381,99,99,0,0,0,0,0
7,79999,57,70000,2,10000,40,9999,0.100000,99,0,0.000000,17,0.000000,33.903446,0.907244,99,99,0,0,0,0,0
7,79999,58,70000,44,0,47,9999,0.100000,99,0,0.000000,17,9.000000,10.933622,10.578170,99,99,0,0,0,0,0
7,79999,59,70000,59,40000,40,9999,0.100000,99,0,0.000000,17,0.000000,29.857928,1.572349,99,99,0,0,0,0,0
7,79999,60,70000,57,0,0,9999,0.100000,99,0,5.141786,17,1.000000,34.388931,1.944455,99,99,0,0,1,0,0
7,79999,61,70000,75,40000,41,9999,0.100000,99,0,0.000000,17,2.000000,16.703091,4.260227,99,99,0,0,0,0,0
7,79999,62,70000,13,60000,41,9999,0.100000,99,0,0.000000,18,4.000000,27.175375,9.127589,99,99,0,0,0,0,0
7,79999,63,70000,10,20000,40,9999,0.100000,99,0,0.000000,17,0.000000,25.764057,2.158233,99,99,0,0,0,0,0
7,79999,64,70000,0,0,40,9999,0.100000,99,0,0.000000,17,2.000000,32.985446,11.654150,99,99,0,0,0,0,0
7,79999,65,70000,59,40000,41,9999,0.100000,99,0,0.000000,17,3.000000,24.974157,3.406932,99,99,0,0,0,0,0
7,79999,66,70000,59,40000,40,9999,0.100000,99,0,0.000000,17,0.000000,25.442592,2.249081,99,99,0,0,0,0,0
7,79999,67,70000,59,40000,40,9999,0.100000,99,0,0.000000,17,1.000000,24.880277,10.335725,99,99,0,0,0,0,0
7,79999,68,70000,75,40000,40,9999,0.100000,99,0,0.000000,17,0.000000,33.417848,2.490564,99,99,0,0,0,0,0
7,79999,69,70000,10,20000,0,9999,0.100000,99,0,0.940268,17,0.000000,25.634095,0.671096,99,99,0,0,1,0,0
7,79999,70,70000,86,50000,40,9999,0.100000,99,0,0.000000,17,3.000000,32.062416,10.667147,99,99,0,0,0,0,0
7,79999,71,70000,21,40000,40,9999,0.100000,99,0,0.000000,16,0.000000,25.397806,0.543840,99,99,0,0,0,0,0
7,79999,72,70000,64,30000,41,9999,0.100000,99,0,0.000000,18,3.000000,25.383535,3.401520,99,99,0,0,0,0,0
7,79999,73,70000,81,20000,40,9999,0.100000,99,0,0.000000,17,0.000000,22.712460,0.148087,99,99,0,0,0,0,0
7,79999,74,70000,81,20000,40,9999,0.100000,99,0,0.000000,17,0.000000,26.203430,0.224054,99,99,0,0,0,0,0
7,79999,75,70000,44,0,40,9999,0.100000,99,0,0.000000,17,3.000000,34.109465,8.520053,99,99,0,0,0,0,0
7,79999,76,70000,15,60000,40,9999,0.100000,99,0,0.000000,17,0.000000,29.874830,0.100947,99,99,0,0,0,0,0
7,79999,77,70000,44,0,40,9999,0.100000,99,0,0.000000,17,0.000000,33.166377,1.031498,99,99,0,0,0,0,0
7,79999,78,70000,59,40000,40,9999,0.100000,99,0,0.000000,17,0.000000,25.460245,2.611579,99,99,0,0,0,0,0
7,79999,79,70000,86,50000,40,9999,0.100000,99,0,0.000000,17,3.000000,32.214176,10.437536,99,99,0,0,0,0,0
7,79999,80,70000,10,20000,40,9999,0.100000,99,0,0.000000,17,0.000000,24.997489,0.546610,99,99,0,0,0,0,0
7,79999,81,70000,39,40000,40,9999,0.100000,99,0,0.000000,17,0.000000,18.567765,3.091559,99,99,0,0,0,0,0
7,79999,82,70000,81,20000,40,9999,0.100000,99,0,0.000000,17,1.000000,23.410203,13.473503,99,99,0,0,0,0,0
7,79999,83,70000,86,50000,41,9999,0.100000,99,0,0.000000,17,4.000000,30.887461,8.016664,99,99,0,0,0,0,0
7,79999,84,70000,39,40000,40,9999,0.100000,99,0,0.000000,17,0.000000,17.121251,0.590033,99,99,0,0,0,0,0
7,79999,85,70000,0,0,41,9999,0.100000,99,0,0.000000,17,6.000000,31.349267,14.948370,99,99,0,0,0,0,0
7,79999,86,70000,0,0,40,9999,0.100000,99,0,0.000000,17,0.000000,12.808619,0.210029,99,99,0,0,0,0,0
7,79999,87,70000,86,50000,0,9999,0.100000,99,0,1.023366,17,0.000000,25.791148,0.580487,99,99,0,1,0,0,0
7,79999,88,70000,64,30000,40,9999,0.100000,99,0,0.000000,17,1.000000,31.920671,5.448630,99,99,0,0,0,0,0
7,79999,89,70000,40,0,40,9999,0.100000,99,0,0.000000,17,1.000000,25.010270,17.548899,99,99,0,0,0,0,0
7,79999,90,70000,59,40000,40,9999,0.100000,99,0,0.000000,17,1.000000,32.331441,2.790067,99,99,0,0,0,0,0
7,79999,91,70000,0,0,40,9999,0.100000,99,0,0.000000,17,0.000000,25.595443,0.555151,99,99,0,0,0,0,0
7,79999,92,70000,81,20000,40,9999,0.100000,99,0,0.000000,17,2.000000,23.820371,8.099006,99,99,0,0,0,0,0
7,79999,93,70000,21,40000,40,9999,0.100000,99,0,0.000000,17,0.000000,24.823648,10.653317,99,99,0,0,0,0,0
7,79999,94,70000,64,30000,0,9999,0.100000,99,0,0.278701,17,0.000000,20.781221,0.284669,99,99,0,0,0,0,1
7,79999,95,70000,39,40000,40,9999,0.100000,99,0,0.000000,17,0.000000,34.313657,0.236423,99,99,0,0,0,0,0
7,79999,96,70000,57,0,40,9999,0.100000,99,0,0.000000,17,0.000000,16.913757,0.137671,99,99,0,0,0,0,0
7,79999,97,70000,59,40000,40,9999,0.100000,99,0,0.000000,17,0.000000,15.671443,5.810740,99,99,0,0,0,0,0
7,79999,98,70000,86,50000,40,9999,0.100000,99,0,0.000000,17,1.000000,25.979872,6.841796,99,99,0,0,0,0,0
7,79999,99,70000,57,0,40,9999,0.100000,99,0,0.000000,18,1.000000,23.869166,5.205040,99,99,0,0,0,0,0
8,89999,0,80000,21,40000,40,9999,0.100000,99,0,0.000000,18,0.000000,31.149794,0.490487,99,99,0,0,0,0,0
8,89999,1,80000,40,0,40,9999,0.100000,99,0,0.000000,18,3.000000,28.539931,6.878568,99,99,0,0,0,0,0
8,89999,2,80000,39,40000,41,9999,0.100000,99,0,0.000000,18,5.000000,28.648619,11.918622,99,99,0,0,0,0,0
8,89999,3,80000,44,0,40,9999,0.100000,99,0,0.000000,18,0.000000,38.015978,3.029741,99,99,0,0,0,0,0
8,89999,4,80000,86,50000,0,9999,0.100000,99,0,0.008851,18,0.000000,16.806136,0.096769,99,99,0,0,0,0,1
8,89999,5,80000,15,60000,40,9999,0.100000,99,0,0.000000,18,3.000000,35.889834,5.840579,99,99,0,0,0,0,0
8,89999,6,80000,86,50000,40,9999,0.100000,99,0,0.000000,18,0.000000,34.060793,1.343142,99,99,0,0,0,0,0
8,89999,7,80000,10,20000,40,9999,0.100000,99,0,0.000000,18,0.000000,32.269703,2.652636,99,99,0,0,0,0,0
8,89999,8,80000,15,60000,40,9999,0.100000,99,0,0.000000,18,1.000000,31.365090,6.806418,99,99,0,0,0,0,0
8,89999,9,80000,0,0,0,9999,0.100000,99,0,0.002568,18,0.000000,11.666480,0.168587,99,99,0,0,0,1,0
8,89999,10,80000,99,30000,40,9999,0.100000,99,0,0.000000,19,0.000000,11.594082,0.175992,99,99,0,0,0,0,0
8,89999,11,80000,44,0,0,9999,0.100000,99,0,0.485361,18,0.000000,22.538916,0.140163,99,99,0,0,0,0,1
8,89999,12,80000,99,30000,40,9999,0.100000,99,0,0.000000,18,0.000000,29.834782,0.131009,99,99,0,0,0,0,0
8,89999,13,80000,21,40000,0,9999,0.100000,99,0,7.631830,18,1.000000,27.099072,1.787651,99,99,0,0,0,1,0
8,89999,14,80000,13,60000,40,9999,0.100000,99,0,0.000000,18,2.000000,24.844666,4.406463,99,99,0,0,0,0,0
8,89999,15,80000,40,0,40,9999,0.100000,99,0,0.000000,18,3.000000,32.538836,4.197122,99,99,0,0,0,0,0
8,89999,16,80000,21,40000,48,9999,0.100000,99,0,0.000000,18,16.000000,18.924108,17.549450,99,99,0,0,0,0,0
8,89999,17,80000,21,40000,40,9999,0.100000,99,0,0.000000,18,3.000000,32.943841,8.472680,99,99,0,0,0,0,0
8,89999,18,80000,2,10000,40,9999,0.100000,99,0,0.000000,18,0.000000,34.322103,1.034133,99,99,0,0,0,0,0
8,89999,19,80000,49,60000,40,9999,0.100000,99,0,0.000000,18,1.000000,27.442270,1.724347,99,99,0,0,0,0,0
8,89999,20,80000,13,60000,40,9999,0.100000,99,0,0.000000,18,0.000000,33.646046,0.933716,99,99,0,0,0,0,0
8,89999,21,80000,86,50000,40,9999,0.100000,99,0,0.000000,18,2.000000,24.049145,7.617275,99,99,0,0,0,0,0
8,89999,22,80000,86,50000,40,9999,0.100000,99,0,0.000000,18,0.000000,19.047379,1.475009,99,99,0,0,0,0,0
8,89999,23,80000,49,60000,40,9999,0.100000,99,0,0.000000,18,2.000000,24.679420,4.084770,99,99,0,0,0,0,0
8,89999,24,80000,40,0,0,9999,0.100000,99,0,0.862015,18,0.000000,32.884149,0.638642,99,99,0,0,1,0,0
8,89999,25,80000,10,20000,41,9999,0.100000,99,0,0.000000,18,6.000000,29.614140,13.289083,99,99,0,0,0,0,0
8,89999,26,80000,49,60000,40,9999,0.100000,99,0,0.000000,18,1.000000,30.107133,6.371708,99,99,0,0,0,0,0
8,89999,27,80000,41,60000,40,9999,0.100000,99,0,0.000000,19,1.000000,24.396627,3.960604,99,99,0,0,0,0,0
8,89999,28,80000,99,30000,0,9999,0.100000,99,0,0.580978,18,0.000000,29.218196,0.182259,99,99,0,1,0,0,0
8,89999,29,80000,40,0,40,9999,0.100000,99,0,0.000000,18,0.000000,31.937379,2.050909,99,99,0,0,0,0,0
8,89999,30,80000,2,10000,40,9999,0.100000,99,0,0.000000,18,3.000000,32.561983,3.946733,99,99,0,0,0,0,0
8,89999,31,80000,10,20000,40,9999,0.100000,99,0,0.000000,18,0.000000,26.241667,2.462505,99,99,0,0,0,0,0
8,89999,32,80000,99,30000,40,9999,0.100000,99,0,0.000000,18,0.000000,11.914768,0.178174,99,99,0,0,0,0,0
8,89999,33,80000,13,60000,0,9999,0.100000,99,0,0.044321,18,0.000000,32.327938,0.152670,99,99,0,0,0,1,0
8,89999,34,80000,49,60000,40,9999,0.100000,99,0,0.000000,18,0.000000,22.844192,0.357469,99,99,0,0,0,0,0
8,89999,35,80000,40,0,0,9999,0.100000,99,0,1.162651,18,0.000000,25.348570,2.757194,99,99,0,0,0,0,1
8,89999,36,80000,41,60000,40,9999,0.100000,99,0,0.000000,18,0.000000,25.470231,2.036661,99,99,0,0,0,0,0
8,89999,37,80000,59,40000,40,9999,0.100000,99,0,0.000000,18,1.000000,25.606921,1.578521,99,99,0,0,0,0,0
8,89999,38,80000,86,50000,40,9999,0.100000,99,0,0.000000,19,0.000000,32.550500,0.114758,99,99,0,0,0,0,0
8,89999,39,80000,99,30000,42,9999,0.100000,99,0,0.000000,18,7.000000,29.992781,11.740197,99,99,0,0,0,0,0
8,89999,40,80000,57,0,40,9999,0.100000,99,0,0.000000,18,0.000000,22.740529,0.191556,99,99,0,0,0,0,0
8,89999,41,80000,44,0,41,9999,0.100000,99,0,0.000000,18,3.000000,28.089541,5.173404,99,99,0,0,0,0,0
8,89999,42,80000,15,60000,40,9999,0.100000,99,0,0.000000,18,0.000000,32.185773,2.220385,99,99,0,0,0,0,0
8,89999,43,80000,2,10000,40,9999,0.100000,99,0,0.000000,19,0.000000,23.726978,2.626768,99,99,0,0,0,0,0
8,89999,44,80000,10,20000,40,9999,0.100000,99,0,0.000000,18,0.000000,29.702456,0.694851,99,99,0,0,0,0,0
8,89999,45,80000,99,60000,0,9999,0.100000,99,0,1.512516,18,0.000000,18.316418,0.669413,99,99,0,0,0,1,0
8,89999,46,80000,64,30000,40,9999,0.100000,99,0,0.000000,18,0.000000,18.988194,0.337102,99,99,0,0,0,0,0
8,89999,47,80000,0,0,40,9999,0.100000,99,0,0.000000,18,0.000000,32.355731,2.042832,99,99,0,0,0,0,0
8,89999,48,80000,13,60000,40,9999,0.100000,99,0,0.000000,18,0.000000,16.952579,0.507211,99,99,0,0,0,0,0
8,89999,49,80000,49,60000,40,9999,0.100000,99,0,0.000000,19,1.000000,27.693111,3.671288,99,99,0,0,0,0,0
8,89999,50,80000,0,0,0,9999,0.100000,99,0,0.015420,18,0.000000,27.076212,0.158614,99,99,0,1,0,0,0
8,89999,51,80000,15,60000,40,9999,0.100000,99,0,0.000000,18,0.000000,22.447454,0.130513,99,99,0,0,0,0,0
8,89999,52,80000,49,60000,40,9999,0.100000,99,0,0.000000,18,2.000000,26.076246,8.412028,99,99,0,0,0,0,0
8,89999,53,80000,57,0,40,9999,0.100000,99,0,0.000000,18,0.000000,20.715045,0.331213,99,99,0,0,0,0,0
8,89999,54,80000,86,50000,40,9999,0.100000,99,0,0.000000,18,1.000000,30.089217,7.287670,99,99,0,0,0,0,0
8,89999,55,80000,15,60000,41,9999,0.100000,99,0,0.000000,18,2.000000,18.314784,9.380683,99,99,0,0,0,0,0
8,89999,56,80000,0,0,40,9999,0.100000,99,0,0.000000,18,2.000000,27.763749,11.002983,99,99,0,0,0,0,0
8,89999,57,80000,15,60000,40,9999,0.100000,99,0,0.000000,19,0.000000,33.919435,1.156807,99,99,0,0,0,0,0
8,89999,58,80000,10,20000,40,9999,0.100000,99,0,0.000000,18,0.000000,19.428088,0.605362,99,99,0,0,0,0,0
8,89999,59,80000,21,40000,40,9999,0.100000,99,0,0.000000,18,0.000000,29.844828,0.267434,99,99,0,0,0,0,0
8,89999,60,80000,41,60000,0,9999,0.100000,99,0,17.092099,18,3.000000,32.560943,3.855749,99,99,0,0,1,0,0
8,89999,61,80000,49,60000,49,9999,0.100000,99,0,0.000000,18,16.000000,14.081793,23.593081,99,99,0,0,0,0,0
8,89999,62,80000,2,10000,41,9999,0.100000,99,0,0.000000,18,4.000000,25.068731,11.371293,99,99,0,0,0,0,0
8,89999,63,80000,59,40000,41,9999,0.100000,99,0,0.000000,19,4.000000,26.108275,6.824713,99,99,0,0,0,0,0
8,89999,64,80000,86,50000,40,9999,0.100000,99,0,0.000000,18,1.000000,31.500657,4.898918,99,99,0,0,0,0,0
8,89999,65,80000,49,60000,40,9999,0.100000,99,0,0.000000,18,1.000000,27.259350,1.785033,99,99,0,0,0,0,0
8,89999,66,80000,39,40000,41,9999,0.100000,99,0,0.000000,19,5.000000,26.011484,9.196665,99,99,0,0,0,0,0
8,89999,67,80000,10,20000,40,9999,0.100000,99,0,0.000000,18,0.000000,23.247516,13.229558,99,99,0,0,0,0,0
8,89999,68,80000,39,40000,40,9999,0.100000,99,0,0.000000,18,0.000000,33.320269,3.947639,99,99,0,0,0,0,0
8,89999,69,80000,40,0,0,9999,0.100000,99,0,2.565013,19,0.000000,25.920307,1.045682,99,99,0,0,1,0,0
8,89999,70,80000,41,60000,40,9999,0.100000,99,0,0.000000,19,2.000000,29.494461,13.772407,99,99,0,0,0,0,0
8,89999,71,80000,13,60000,40,9999,0.100000,99,0,0.000000,18,0.000000,25.676708,0.842126,99,99,0,0,0,0,0
8,89999,72,80000,39,40000,40,9999,0.100000,99,0,0.000000,19,1.000000,27.612487,1.818514,99,99,0,0,0,0,0
8,89999,73,80000,99,30000,40,9999,0.100000,99,0,0.000000,18,0.000000,22.632755,0.154648,99,99,0,0,0,0,0
8,89999,74,80000,10,20000,40,9999,0.100000,99,0,0.000000,18,0.000000,26.205146,0.226141,99,99,0,0,0,0,0
8,89999,75,80000,64,30000,40,9999,0.100000,99,0,0.000000,18,2.000000,30.851283,19.340085,99,99,0,0,0,0,0
8,89999,76,80000,13,60000,40,9999,0.100000,99,0,0.000000,19,0.000000,29.874708,0.101842,99,99,0,0,0,0,0
8,89999,77,80000,64,30000,40,9999,0.100000,99,0,0.000000,18,0.000000,33.185036,0.863151,99,99,0,0,0,0,0
8,89999,78,80000,10,20000,40,9999,0.100000,99,0,0.000000,18,0.000000,25.858509,3.179310,99,99,0,0,0,0,0
8,89999,79,80000,49,60000,40,9999,0.100000,99,0,0.000000,18,2.000000,29.501494,10.430209,99,99,0,0,0,0,0
8,89999,80,80000,13,60000,40,9999,0.100000,99,0,0.000000,18,1.000000,25.228447,4.747830,99,99,0,0,0,0,0
8,89999,81,80000,41,60000,41,9999,0.100000,99,0,0.000000,18,3.000000,18.664667,4.984652,99,99,0,0,0,0,0
8,89999,82,80000,86,50000,40,9999,0.100000,99,0,0.000000,18,0.000000,22.509238,1.005435,99,99,0,0,0,0,0
8,89999,83,80000,39,40000,40,9999,0.100000,99,0,0.000000,18,2.000000,30.147524,7.396713,99,99,0,0,0,0,0
8,89999,84,80000,41,60000,40,9999,0.100000,99,0,0.000000,18,0.000000,17.537263,0.697697,99,99,0,0,0,0,0
8,89999,85,80000,99,30000,41,9999,0.100000,99,0,0.000000,18,5.000000,28.837689,10.608623,99,99,0,0,0,0,0
8,89999,86,80000,86,50000,40,9999,0.100000,99,0,0.000000,18,0.000000,12.806037,0.207445,99,99,0,0,0,0,0
8,89999,87,80000,0,0,40,9999,0.100000,99,0,0.000000,19,0.000000,25.773993,8.490018,99,99,0,0,0,0,0
8,89999,88,80000,99,30000,40,9999,0.100000,99,0,0.000000,18,1.000000,31.178530,13.431118,99,99,0,0,0,0,0
8,89999,89,80000,13,60000,0,9999,0.100000,99,0,0.047767,18,1.000000,25.327156,1.942570,99,99,0,1,0,0,0
8,89999,90,80000,49,60000,40,9999,0.100000,99,0,0.000000,18,0.000000,32.071294,0.859950,99,99,0,0,0,0,0
8,89999,91,80000,86,50000,40,9999,0.100000,99,0,0.000000,18,1.000000,25.807313,1.391473,99,99,0,0,0,0,0
8,89999,92,80000,41,60000,40,9999,0.100000,99,0,0.000000,18,0.000000,22.356862,3.008974,99,99,0,0,0,0,0
8,89999,93,80000,49,70000,40,9999,0.100000,99,0,0.000000,19,1.000000,25.765349,9.164522,99,99,0,0,0,0,0
8,89999,94,80000,21,40000,0,9999,0.100000,99,0,0.709687,19,0.000000,20.761010,0.269478,99,99,0,0,0,0,1
8,89999,95,80000,57,0,40,9999,0.100000,99,0,0.000000,18,0.000000,34.314393,0.265577,99,99,0,0,0,0,0
8,89999,96,80000,0,0,40,9999,0.100000,99,0,0.000000,19,0.000000,16.893481,0.095390,99,99,0,0,0,0,0
8,89999,97,80000,40,0,40,9999,0.100000,99,0,0.000000,18,0.000000,15.703576,5.661545,99,99,0,0,0,0,0
8,89999,98,80000,57,0,41,9999,0.100000,99,0,0.000000,18,4.000000,26.004759,14.475314,99,99,0,0,0,0,0
8,89999,99,80000,44,0,40,9999,0.100000,99,0,0.000000,18,1.000000,24.248869,3.157975,99,99,0,0,0,0,0
9,99999,0,90000,44,0,40,9999,0.100000,99,0,0.000000,19,0.000000,31.155479,0.479547,99,99,0,0,0,0,0
9,99999,1,90000,0,0,40,9999,0.100000,99,0,0.000000,19,2.000000,26.665713,13.856776,99,99,0,0,0,0,0
9,99999,2,90000,99,60000,41,9999,0.100000,99,0,0.000000,19,4.000000,24.445579,7.235006,99,99,0,0,0,0,0
9,99999,3,90000,99,30000,40,9999,0.100000,99,0,0.000000,19,0.000000,37.986512,0.102922,99,99,0,0,0,0,0
9,99999,4,90000,39,40000,0,9999,0.100000,99,0,0.250999,19,0.000000,16.803106,0.199202,99,99,0,0,0,0,1
9,99999,5,90000,44,0,40,9999,0.100000,99,0,0.000000,19,0.000000,37.903487,0.238184,99,99,0,0,0,0,0
9,99999,6,90000,99,60000,40,9999,0.100000,99,0,0.000000,19,0.000000,34.212002,0.753757,99,99,0,0,0,0,0
9,99999,7,90000,49,60000,40,9999,0.100000,99,0,0.000000,19,0.000000,32.213483,1.469323,99,99,0,0,0,0,0
9,99999,8,90000,39,40000,40,9999,0.100000,99,0,0.000000,19,1.000000,30.493065,3.139925,99,99,0,0,0,0,0
9,99999,9,90000,2,10000,0,9999,0.100000,99,0,0.003555,19,0.000000,11.667527,0.159251,99,99,0,0,0,1,0
9,99999,10,90000,86,50000,40,9999,0.100000,99,0,0.000000,19,0.000000,11.594745,0.169539,99,99,0,0,0,0,0
9,99999,11,90000,44,0,0,9999,0.100000,99,0,0.354740,19,0.000000,22.475693,0.107787,99,99,0,0,0,0,1
9,99999,12,90000,21,40000,40,9999,0.100000,99,0,0.000000,19,0.000000,29.841725,0.181356,99,99,0,0,0,0,0
9,99999,13,90000,10,20000,0,9999,0.100000,99,0,7.159360,19,1.000000,28.325770,1.682486,99,99,0,0,0,1,0
9,99999,14,90000,40,0,41,9999,0.100000,99,0,0.000000,19,5.000000,27.613590,11.697404,99,99,0,0,0,0,0
9,99999,15,90000,57,0,0,9999,0.100000,99,0,2.005680,19,3.000000,29.277302,8.389937,99,99,0,0,1,0,0
9,99999,16,90000,10,20000,40,9999,0.100000,99,0,0.000000,19,0.000000,33.382231,0.492484,99,99,0,0,0,0,0
9,99999,17,90000,0,0,40,9999,0.100000,99,0,0.000000,19,3.000000,29.548920,6.834132,99,99,0,0,0,0,0
9,99999,18,90000,41,60000,41,9999,0.100000,99,0,0.000000,19,4.000000,34.811931,7.404230,99,99,0,0,0,0,0
9,99999,19,90000,10,20000,40,9999,0.100000,99,0,0.000000,19,1.000000,28.665275,1.629080,99,99,0,0,0,0,0
9,99999,20,90000,2,10000,40,9999,0.100000,99,0,0.000000,19,0.000000,34.026519,0.952126,99,99,0,0,0,0,0
9,99999,21,90000,60,80000,40,9999,0.100000,99,0,0.000000,19,1.000000,26.155261,4.787552,99,99,0,0,0,0,0
9,99999,22,90000,15,60000,40,9999,0.100000,99,0,0.000000,19,0.000000,18.471339,1.354543,99,99,0,0,0,0,0
9,99999,23,90000,57,0,40,9999,0.100000,99,0,0.000000,19,2.000000,26.782165,6.260681,99,99,0,0,0,0,0
9,99999,24,90000,49,70000,0,9999,0.100000,99,0,0.988817,19,0.000000,32.933134,0.256597,99,99,0,0,1,0,0
9,99999,25,90000,64,30000,41,9999,0.100000,99,0,0.000000,19,3.000000,28.051743,13.299583,99,99,0,0,0,0,0
9,99999,26,90000,86,50000,40,9999,0.100000,99,0,0.000000,19,1.000000,29.126512,6.419181,99,99,0,0,0,0,0
9,99999,27,90000,0,0,40,9999,0.100000,99,0,0.000000,19,0.000000,22.893949,0.519550,99,99,0,0,0,0,0
9,99999,28,90000,64,30000,0,9999,0.100000,99,0,0.570791,19,0.000000,29.278310,0.156648,99,99,0,1,0,0,0
9,99999,29,90000,2,10000,40,9999,0.100000,99,0,0.000000,19,0.000000,31.935242,2.086510,99,99,0,0,0,0,0
9,99999,30,90000,21,40000,40,9999,0.100000,99,0,0.000000,19,2.000000,29.449951,6.776049,99,99,0,0,0,0,0
9,99999,31,90000,49,60000,40,9999,0.100000,99,0,0.000000,19,0.000000,26.350165,2.187100,99,99,0,0,0,0,0
9,99999,32,90000,40,0,40,9999,0.100000,99,0,0.000000,19,0.000000,11.914480,0.189170,99,99,0,0,0,0,0
9,99999,33,90000,57,0,0,9999,0.100000,99,0,0.052959,19,0.000000,32.324273,0.143403,99,99,0,0,0,1,0
9,99999,34,90000,15,60000,40,9999,0.100000,99,0,0.000000,19,0.000000,22.697532,0.310225,99,99,0,0,0,0,0
9,99999,35,90000,0,0,40,9999,0.100000,99,0,0.000000,19,1.000000,26.233060,8.553951,99,99,0,0,0,0,0
9,99999,36,90000,64,30000,40,9999,0.100000,99,0,0.000000,19,1.000000,26.350429,1.624896,99,99,0,0,0,0,0
9,99999,37,90000,10,20000,0,9999,0.100000,99,0,0.635714,19,1.000000,26.586881,1.318810,99,99,0,0,0,0,1
9,99999,38,90000,15,60000,40,9999,0.100000,99,0,0.000000,19,0.000000,32.547094,0.114847,99,99,0,0,0,0,0
9,99999,39,90000,99,30000,40,9999,0.100000,99,0,0.000000,19,0.000000,32.304830,0.584338,99,99,0,0,0,0,0
9,99999,40,90000,40,0,40,9999,0.100000,99,0,0.000000,19,0.000000,22.628752,0.141167,99,99,0,0,0,0,0
9,99999,41,90000,60,80000,40,9999,0.100000,99,0,0.000000,19,1.000000,25.319079,5.213628,99,99,0,0,0,0,0
9,99999,42,90000,0,0,40,9999,0.100000,99,0,0.000000,19,0.000000,32.072753,0.936263,99,99,0,0,0,0,0
9,99999,43,90000,40,0,40,9999,0.100000,99,0,0.000000,19,0.000000,22.931639,0.993900,99,99,0,0,0,0,0
9,99999,44,90000,64,30000,40,9999,0.100000,99,0,0.000000,19,0.000000,29.693327,1.564287,99,99,0,0,0,0,0
9,99999,45,90000,40,0,0,9999,0.100000,99,0,1.515045,19,0.000000,18.203251,0.710622,99,99,0,0,0,1,0
9,99999,46,90000,15,60000,40,9999,0.100000,99,0,0.000000,19,0.000000,18.971771,0.236156,99,99,0,0,0,0,0
9,99999,47,90000,59,40000,40,9999,0.100000,99,0,0.000000,19,0.000000,32.153254,1.144682,99,99,0,0,0,0,0
9,99999,48,90000,60,80000,40,9999,0.100000,99,0,0.000000,19,0.000000,16.955680,2.358922,99,99,0,0,0,0,0
9,99999,49,90000,86,50000,41,9999,0.100000,99,0,0.000000,19,3.000000,26.008993,12.399828,99,99,0,0,0,0,0
9,99999,50,90000,44,0,0,9999,0.100000,99,0,5.578728,19,1.000000,27.113121,2.080339,99,99,0,1,0,0,0
9,99999,51,90000,60,80000,40,9999,0.100000,99,0,0.000000,19,0.000000,22.412931,0.093590,99,99,0,0,0,0,0
9,99999,52,90000,0,0,40,9999,0.100000,99,0,0.000000,19,2.000000,26.373691,7.178378,99,99,0,0,0,0,0
9,99999,53,90000,16,80000,40,9999,0.100000,99,0,0.000000,19,0.000000,20.723618,0.315214,99,99,0,0,0,0,0
9,99999,54,90000,41,60000,40,9999,0.100000,99,0,0.000000,19,2.000000,29.771998,11.892349,99,99,0,0,0,0,0
9,99999,55,90000,99,30000,40,9999,0.100000,99,0,0.000000,19,0.000000,20.201818,8.443632,99,99,0,0,0,0,0
9,99999,56,90000,59,40000,41,9999,0.100000,99,0,0.000000,19,4.000000,28.190738,12.107375,99,99,0,0,0,0,0
9,99999,57,90000,59,40000,40,9999,0.100000,99,0,0.000000,19,0.000000,34.079704,0.693948,99,99,0,0,0,0,0
9,99999,58,90000,40,0,40,9999,0.100000,99,0,0.000000,19,0.000000,19.708110,0.255662,99,99,0,0,0,0,0
9,99999,59,90000,99,30000,40,9999,0.100000,99,0,0.000000,19,0.000000,29.845601,0.398812,99,99,0,0,0,0,0
9,99999,60,90000,49,60000,40,9999,0.100000,99,0,0.000000,19,2.000000,29.326309,5.513672,99,99,0,0,0,0,0
9,99999,61,90000,86,50000,40,9999,0.100000,99,0,0.000000,19,2.000000,29.239178,9.681344,99,99,0,0,0,0,0
9,99999,62,90000,41,60000,40,9999,0.100000,99,0,0.000000,19,0.000000,25.322014,1.410868,99,99,0,0,0,0,0
9,99999,63,90000,10,20000,40,9999,0.100000,99,0,0.000000,19,0.000000,22.980348,0.649054,99,99,0,0,0,0,0
9,99999,64,90000,40,0,40,9999,0.100000,99,0,0.000000,19,2.000000,30.421375,7.101922,99,99,0,0,0,0,0
9,99999,65,90000,0,0,40,9999,0.100000,99,0,0.000000,19,1.000000,28.489551,1.711447,99,99,0,0,0,0,0
9,99999,66,90000,49,70000,40,9999,0.100000,99,0,0.000000,19,1.000000,30.984723,1.370258,99,99,0,0,0,0,0
9,99999,67,90000,59,40000,40,9999,0.100000,99,0,0.000000,19,1.000000,22.951597,5.734296,99,99,0,0,0,0,0
9,99999,68,90000,57,0,40,9999,0.100000,99,0,0.000000,19,0.000000,33.215228,6.513129,99,99,0,0,0,0,0
9,99999,69,90000,39,40000,40,9999,0.100000,99,0,0.000000,19,0.000000,26.263772,0.967331,99,99,0,0,0,0,0
9,99999,70,90000,39,40000,41,9999,0.100000,99,0,0.000000,19,5.000000,29.273948,18.136787,99,99,0,0,0,0,0
9,99999,71,90000,86,50000,0,9999,0.100000,99,0,0.917753,19,0.000000,26.017879,0.910524,99,99,0,0,1,0,0
9,99999,72,90000,40,0,40,9999,0.100000,99,0,0.000000,19,1.000000,28.833340,1.683909,99,99,0,0,0,0,0
9,99999,73,90000,99,60000,40,9999,0.100000,99,0,0.000000,19,0.000000,22.546469,0.109477,99,99,0,0,0,0,0
9,99999,74,90000,49,70000,40,9999,0.100000,99,0,0.000000,19,0.000000,26.204380,0.225832,99,99,0,0,0,0,0
9,99999,75,90000,64,30000,40,9999,0.100000,99,0,0.000000,19,2.000000,29.713656,15.343164,99,99,0,0,0,0,0
9,99999,76,90000,57,0,40,9999,0.100000,99,0,0.000000,19,0.000000,29.874627,0.096928,99,99,0,0,0,0,0
9,99999,77,90000,59,40000,40,9999,0.100000,99,0,0.000000,19,0.000000,33.170196,0.431367,99,99,0,0,0,0,0
9,99999,78,90000,57,0,40,9999,0.100000,99,0,0.000000,19,0.000000,26.192098,2.558761,99,99,0,0,0,0,0
9,99999,79,90000,0,0,40,9999,0.100000,99,0,0.000000,19,1.000000,28.681392,15.081860,99,99,0,0,0,0,0
9,99999,80,90000,59,40000,40,9999,0.100000,99,0,0.000000,19,1.000000,26.190992,1.766664,99,99,0,0,0,0,0
9,99999,81,90000,21,40000,40,9999,0.100000,99,0,0.000000,19,0.000000,20.601367,1.332045,99,99,0,0,0,0,0
9,99999,82,90000,21,40000,40,9999,0.100000,99,0,0.000000,19,0.000000,21.753738,0.923354,99,99,0,0,0,0,0
9,99999,83,90000,21,40000,41,9999,0.100000,99,0,0.000000,19,4.000000,29.671426,15.415005,99,99,0,0,0,0,0
9,99999,84,90000,10,20000,40,9999,0.100000,99,0,0.000000,19,0.000000,17.122705,0.646863,99,99,0,0,0,0,0
9,99999,85,90000,16,80000,40,9999,0.100000,99,0,0.000000,19,1.000000,26.835655,9.705797,99,99,0,0,0,0,0
9,99999,86,90000,41,60000,40,9999,0.100000,99,0,0.000000,19,0.000000,12.804521,0.210128,99,99,0,0,0,0,0
9,99999,87,90000,86,50000,40,9999,0.100000,99,0,0.000000,19,2.000000,26.177244,15.628399,99,99,0,0,0,0,0
9,99999,88,90000,0,0,40,9999,0.100000,99,0,0.000000,19,0.000000,31.338201,5.241338,99,99,0,0,0,0,0
9,99999,89,90000,41,60000,0,9999,0.100000,99,0,0.023040,19,1.000000,26.506796,2.250715,99,99,0,1,0,0,0
9,99999,90,90000,49,70000,40,9999,0.100000,99,0,0.000000,19,0.000000,32.068750,0.890228,99,99,0,0,0,0,0
9,99999,91,90000,64,30000,40,9999,0.100000,99,0,0.000000,19,1.000000,26.785419,1.340237,99,99,0,0,0,0,0
9,99999,92,90000,41,60000,40,9999,0.100000,99,0,0.000000,19,0.000000,23.052959,2.196142,99,99,0,0,0,0,0
9,99999,93,90000,57,0,40,9999,0.100000,99,0,0.000000,19,0.000000,26.618443,1.092115,99,99,0,0,0,0,0
9,99999,94,90000,49,70000,0,9999,0.100000,99,0,0.313430,19,0.000000,20.997843,0.113060,99,99,0,0,0,0,1
9,99999,95,90000,21,40000,40,9999,0.100000,99,0,0.000000,19,0.000000,34.332045,0.253051,99,99,0,0,0,0,0
9,99999,96,90000,0,0,40,9999,0.100000,99,0,0.000000,19,0.000000,16.894195,0.203109,99,99,0,0,0,0,0
9,99999,97,90000,49,60000,40,9999,0.100000,99,0,0.000000,19,0.000000,15.705593,6.033144,99,99,0,0,0,0,0
9,99999,98,90000,0,0,40,9999,0.100000,99,0,0.000000,19,1.000000,29.132124,23.783955,99,99,0,0,0,0,0
9,99999,99,90000,10,20000,40,9999,0.100000,99,0,0.000000,19,2.000000,25.761559,13.449698,99,99,0,0,0,0,0
10,109999,0,100000,49,70000,40,9999,0.100000,99,0,0.000000,19,0.000000,31.157003,0.507230,99,99,0,0,0,0,0
10,109999,1,100000,57,0,41,9999,0.100000,99,0,0.000000,19,5.000000,28.721836,9.573428,99,99,0,0,0,0,0
10,109999,2,100000,99,60000,40,9999,0.100000,99,0,0.000000,19,0.000000,24.413346,2.341992,99,99,0,0,0,0,0
10,109999,3,100000,41,60000,40,9999,0.100000,99,0,0.000000,19,0.000000,37.990390,0.095255,99,99,0,0,0,0,0
10,109999,4,100000,44,0,0,9999,0.100000,99,0,0.260378,19,0.000000,16.748969,0.199777,99,99,0,0,0,0,1
10,109999,5,100000,44,0,40,9999,0.100000,99,0,0.000000,19,0.000000,37.916816,0.283726,99,99,0,0,0,0,0
10,109999,6,100000,0,0,40,9999,0.100000,99,0,0.000000,19,0.000000,34.245861,0.241081,99,99,0,0,0,0,0
10,109999,7,100000,86,50000,40,9999,0.100000,99,0,0.000000,19,0.000000,32.068911,1.140203,99,99,0,0,0,0,0
10,109999,8,100000,39,40000,40,9999,0.100000,99,0,0.000000,19,0.000000,31.813300,0.486862,99,99,0,0,0,0,0
10,109999,9,100000,59,40000,40,9999,0.100000,99,0,0.000000,19,0.000000,11.668189,0.173333,99,99,0,0,0,0,0
10,109999,10,100000,15,60000,0,9999,0.100000,99,0,0.002137,19,0.000000,11.595339,0.104263,99,99,0,0,0,1,0
10,109999,11,100000,2,10000,0,9999,0.100000,99,0,0.224010,19,0.000000,22.426181,0.086560,99,99,0,0,0,0,1
10,109999,12,100000,59,40000,40,9999,0.100000,99,0,0.000000,19,0.000000,29.838131,0.985372,99,99,0,0,0,0,0
10,109999,13,100000,2,10000,0,9999,0.100000,99,0,3.878757,19,0.000000,29.553911,1.120111,99,99,0,0,0,1,0
10,109999,14,100000,16,80000,41,9999,0.100000,99,0,0.000000,19,3.000000,25.369390,12.309798,99,99,0,0,0,0,0
10,109999,15,100000,40,0,0,9999,0.100000,99,0,4.799471,19,0.000000,31.514474,0.898907,99,99,0,0,1,0,0
10,109999,16,100000,10,20000,40,9999,0.100000,99,0,0.000000,19,0.000000,33.346161,0.570685,99,99,0,0,0,0,0
10,109999,17,100000,57,0,40,9999,0.100000,99,0,0.000000,19,0.000000,31.687271,1.559380,99,99,0,0,0,0,0
10,109999,18,100000,86,50000,40,9999,0.100000,99,0,0.000000,19,0.000000,37.797282,0.926363,99,99,0,0,0,0,0
10,109999,19,100000,60,80000,40,9999,0.100000,99,0,0.000000,19,0.000000,29.861030,1.057244,99,99,0,0,0,0,0
10,109999,20,100000,0,0,40,9999,0.100000,99,0,0.000000,19,3.000000,34.454055,5.179197,99,99,0,0,0,0,0
10,109999,21,100000,59,40000,40,9999,0.100000,99,0,0.000000,19,0.000000,24.182030,8.607209,99,99,0,0,0,0,0
10,109999,22,100000,59,40000,41,9999,0.100000,99,0,0.000000,19,2.000000,18.070397,2.643437,99,99,0,0,0,0,0
10,109999,23,100000,41,60000,41,9999,0.100000,99,0,0.000000,19,4.000000,29.567238,7.612795,99,99,0,0,0,0,0
10,109999,24,100000,60,80000,0,9999,0.100000,99,0,0.905080,19,0.000000,32.867834,0.398970,99,99,0,0,1,0,0
10,109999,25,100000,21,40000,40,9999,0.100000,99,0,0.000000,19,2.000000,26.108989,11.873139,99,99,0,0,0,0,0
10,109999,26,100000,15,60000,41,9999,0.100000,99,0,0.000000,19,4.000000,29.544772,13.645325,99,99,0,0,0,0,0
10,109999,27,100000,39,40000,40,9999,0.100000,99,0,0.000000,19,0.000000,22.558781,0.526522,99,99,0,0,0,0,0
10,109999,28,100000,0,0,0,9999,0.100000,99,0,0.561421,19,0.000000,29.345592,0.167321,99,99,0,1,0,0,0
10,109999,29,100000,57,0,40,9999,0.100000,99,0,0.000000,19,0.000000,31.947495,1.848601,99,99,0,0,0,0,0
10,109999,30,100000,16,80000,40,9999,0.100000,99,0,0.000000,19,1.000000,31.236018,1.391716,99,99,0,0,0,0,0
10,109999,31,100000,44,0,40,9999,0.100000,99,0,0.000000,19,0.000000,26.743582,3.029996,99,99,0,0,0,0,0
10,109999,32,100000,40,0,40,9999,0.100000,99,0,0.000000,19,0.000000,11.914587,0.188157,99,99,0,0,0,0,0
10,109999,33,100000,2,10000,0,9999,0.100000,99,0,0.518705,19,0.000000,32.336012,0.219191,99,99,0,0,0,1,0
10,109999,34,100000,99,30000,40,9999,0.100000,99,0,0.000000,19,0.000000,22.594134,0.289921,99,99,0,0,0,0,0
10,109999,35,100000,44,0,40,9999,0.100000,99,0,0.000000,19,0.000000,26.507689,1.116173,99,99,0,0,0,0,0
10,109999,36,100000,99,60000,40,9999,0.100000,99,0,0.000000,19,0.000000,27.516250,0.797222,99,99,0,0,0,0,0
10,109999,37,100000,99,60000,0,9999,0.100000,99,0,0.329084,19,0.000000,27.691645,0.490506,99,99,0,0,0,0,1
10,109999,38,100000,86,50000,40,9999,0.100000,99,0,0.000000,19,0.000000,32.557906,0.288290,99,99,0,0,0,0,0
10,109999,39,100000,21,40000,40,9999,0.100000,99,0,0.000000,19,0.000000,32.398832,0.677424,99,99,0,0,0,0,0
10,109999,40,100000,10,20000,40,9999,0.100000,99,0,0.000000,19,0.000000,22.547778,0.112788,99,99,0,0,0,0,0
10,109999,41,100000,39,40000,41,9999,0.100000,99,0,0.000000,19,5.000000,25.834068,7.966369,99,99,0,0,0,0,0
10,109999,42,100000,40,0,40,9999,0.100000,99,0,0.000000,19,0.000000,31.924579,0.531190,99,99,0,0,0,0,0
10,109999,43,100000,99,60000,40,9999,0.100000,99,0,0.000000,19,0.000000,22.177129,0.946364,99,99,0,0,0,0,0
10,109999,44,100000,99,60000,40,9999,0.100000,99,0,0.000000,19,3.000000,29.647147,7.977477,99,99,0,0,0,0,0
10,109999,45,100000,2,10000,0,9999,0.100000,99,0,1.115897,19,0.000000,17.847853,0.366419,99,99,0,0,0,1,0
10,109999,46,100000,99,30000,40,9999,0.100000,99,0,0.000000,19,0.000000,18.962210,0.229919,99,99,0,0,0,0,0
10,109999,47,100000,57,0,40,9999,0.100000,99,0,0.000000,19,0.000000,32.002909,1.171930,99,99,0,0,0,0,0
10,109999,48,100000,99,30000,40,9999,0.100000,99,0,0.000000,19,0.000000,16.775233,0.318100,99,99,0,0,0,0,0
10,109999,49,100000,60,80000,41,9999,0.100000,99,0,0.000000,19,3.000000,27.473848,8.346850,99,99,0,0,0,0,0
10,109999,50,100000,99,30000,2,9999,0.100000,99,0,40.881589,19,7.000000,28.397479,9.802663,99,99,0,1,0,0,0
10,109999,51,100000,44,0,40,9999,0.100000,99,0,0.000000,19,0.000000,22.381646,0.073138,99,99,0,0,0,0,0
10,109999,52,100000,16,80000,41,9999,0.100000,99,0,0.000000,19,3.000000,27.629136,10.635010,99,99,0,0,0,0,0
10,109999,53,100000,21,40000,40,9999,0.100000,99,0,0.000000,19,0.000000,20.799177,0.301902,99,99,0,0,0,0,0
10,109999,54,100000,99,60000,40,9999,0.100000,99,0,0.000000,19,1.000000,27.605508,8.144314,99,99,0,0,0,0,0
10,109999,55,100000,57,0,40,9999,0.100000,99,0,0.000000,19,0.000000,20.287969,2.072448,99,99,0,0,0,0,0
10,109999,56,100000,99,60000,40,9999,0.100000,99,0,0.000000,19,0.000000,31.924264,1.037065,99,99,0,0,0,0,0
10,109999,57,100000,2,10000,40,9999,0.100000,99,0,0.000000,19,0.000000,34.132028,4.965713,99,99,0,0,0,0,0
10,109999,58,100000,15,60000,40,9999,0.100000,99,0,0.000000,19,0.000000,19.750264,0.257942,99,99,0,0,0,0,0
10,109999,59,100000,60,80000,40,9999,0.100000,99,0,0.000000,19,0.000000,29.810117,2.573984,99,99,0,0,0,0,0
10,109999,60,100000,49,70000,40,9999,0.100000,99,0,0.000000,19,1.000000,31.377507,1.167329,99,99,0,0,0,0,0
10,109999,61,100000,41,60000,40,9999,0.100000,99,0,0.000000,19,2.000000,27.344857,5.123082,99,99,0,0,0,0,0
10,109999,62,100000,10,20000,40,9999,0.100000,99,0,0.000000,19,0.000000,24.676720,0.998518,99,99,0,0,0,0,0
10,109999,63,100000,2,10000,40,9999,0.100000,99,0,0.000000,19,0.000000,22.633322,0.640647,99,99,0,0,0,0,0
10,109999,64,100000,44,0,40,9999,0.100000,99,0,0.000000,19,1.000000,27.514332,3.545751,99,99,0,0,0,0,0
10,109999,65,100000,0,0,40,9999,0.100000,99,0,0.000000,19,0.000000,29.707237,1.169501,99,99,0,0,0,0,0
10,109999,66,100000,49,70000,40,9999,0.100000,99,0,0.000000,19,2.000000,30.659751,3.413914,99,99,0,0,0,0,0
10,109999,67,100000,59,40000,40,9999,0.100000,99,0,0.000000,19,1.000000,23.956226,5.687536,99,99,0,0,0,0,0
10,109999,68,100000,59,40000,40,9999,0.100000,99,0,0.000000,19,0.000000,33.132886,4.291689,99,99,0,0,0,0,0
10,109999,69,100000,41,60000,40,9999,0.100000,99,0,0.000000,19,0.000000,26.608404,0.615855,99,99,0,0,0,0,0
10,109999,70,100000,41,60000,40,9999,0.100000,99,0,0.000000,19,3.000000,34.385514,9.332266,99,99,0,0,0,0,0
10,109999,71,100000,15,60000,0,9999,0.100000,99,0,1.236588,19,0.000000,26.456896,0.596390,99,99,0,0,1,0,0
10,109999,72,100000,0,0,40,9999,0.100000,99,0,0.000000,19,0.000000,30.014445,1.209257,99,99,0,0,0,0,0
10,109999,73,100000,21,40000,40,9999,0.100000,99,0,0.000000,19,0.000000,22.482014,0.079088,99,99,0,0,0,0,0
10,109999,74,100000,16,80000,40,9999,0.100000,99,0,0.000000,19,0.000000,26.205166,0.222607,99,99,0,0,0,0,0
10,109999,75,100000,0,0,41,9999,0.100000,99,0,0.000000,19,5.000000,28.486718,13.004847,99,99,0,0,0,0,0
10,109999,76,100000,57,0,40,9999,0.100000,99,0,0.000000,19,0.000000,29.874502,0.099637,99,99,0,0,0,0,0
10,109999,77,100000,39,40000,40,9999,0.100000,99,0,0.000000,19,0.000000,33.097041,0.565589,99,99,0,0,0,0,0
10,109999,78,100000,44,0,40,9999,0.100000,99,0,0.000000,19,0.000000,26.932116,6.675465,99,99,0,0,0,0,0
10,109999,79,100000,40,0,40,9999,0.100000,99,0,0.000000,19,2.000000,28.219578,9.792859,99,99,0,0,0,0,0
10,109999,80,100000,40,0,40,9999,0.100000,99,0,0.000000,19,0.000000,27.361020,1.091174,99,99,0,0,0,0,0
10,109999,81,100000,44,0,40,9999,0.100000,99,0,0.000000,19,0.000000,20.968834,1.184002,99,99,0,0,0,0,0
10,109999,82,100000,15,60000,40,9999,0.100000,99,0,0.000000,19,0.000000,21.049817,0.917214,99,99,0,0,0,0,0
10,109999,83,100000,57,0,40,9999,0.100000,99,0,0.000000,19,0.000000,33.732435,0.913239,99,99,0,0,0,0,0
10,109999,84,100000,99,30000,40,9999,0.100000,99,0,0.000000,19,1.000000,16.710036,2.416375,99,99,0,0,0,0,0
10,109999,85,100000,64,30000,41,9999,0.100000,99,0,0.000000,19,4.000000,28.087037,10.038445,99,99,0,0,0,0,0
10,109999,86,100000,57,0,40,9999,0.100000,99,0,0.000000,19,0.000000,12.803001,0.216237,99,99,0,0,0,0,0
10,109999,87,100000,21,40000,42,9999,0.100000,99,0,0.000000,19,8.000000,28.400406,11.288585,99,99,0,0,0,0,0
10,109999,88,100000,16,80000,40,9999,0.100000,99,0,0.000000,19,0.000000,31.530372,0.893626,99,99,0,0,0,0,0
10,109999,89,100000,16,80000,40,9999,0.100000,99,0,0.000000,19,0.000000,27.928803,3.650969,99,99,0,0,0,0,0
10,109999,90,100000,0,0,40,9999,0.100000,99,0,0.000000,19,0.000000,32.082301,0.840729,99,99,0,0,0,0,0
10,109999,91,100000,59,40000,40,9999,0.100000,99,0,0.000000,19,0.000000,27.939997,0.599082,99,99,0,0,0,0,0
10,109999,92,100000,40,0,40,9999,0.100000,99,0,0.000000,19,0.000000,23.219866,4.562423,99,99,0,0,0,0,0
10,109999,93,100000,21,40000,40,9999,0.100000,99,0,0.000000,19,0.000000,26.880747,0.574636,99,99,0,0,0,0,0
10,109999,94,100000,16,80000,0,9999,0.100000,99,0,0.244892,19,0.000000,21.072157,0.112711,99,99,0,0,0,0,1
10,109999,95,100000,86,50000,40,9999,0.100000,99,0,0.000000,19,0.000000,34.359358,0.235369,99,99,0,0,0,0,0
10,109999,96,100000,99,60000,40,9999,0.100000,99,0,0.000000,19,0.000000,16.853827,0.158142,99,99,0,0,0,0,0
10,109999,97,100000,60,80000,40,9999,0.100000,99,0,0.000000,19,0.000000,15.717924,5.894760,99,99,0,0,0,0,0
10,109999,98,100000,0,0,40,9999,0.100000,99,0,0.000000,19,1.000000,29.997818,23.550590,99,99,0,0,0,0,0
10,109999,99,100000,2,10000,40,9999,0.100000,99,0,0.000000,19,0.000000,24.147006,1.926344,99,99,0,0,0,0,0
11,119999,0,110000,59,40000,40,9999,0.100000,99,0,0.000000,19,0.000000,31.131112,0.500637,99,99,0,0,0,0,0
11,119999,1,110000,40,0,41,9999,0.100000,99,0,0.000000,19,4.000000,33.016829,14.234794,99,99,0,0,0,0,0
11,119999,2,110000,0,0,40,9999,0.100000,99,0,0.000000,19,2.000000,24.569909,8.861059,99,99,0,0,0,0,0
11,119999,3,110000,40,0,40,9999,0.100000,99,0,0.000000,19,0.000000,37.988734,0.166350,99,99,0,0,0,0,0
11,119999,4,110000,59,40000,0,9999,0.100000,99,0,1.083590,19,0.000000,16.701545,0.417587,99,99,0,0,0,0,1
11,119999,5,110000,49,70000,40,9999,0.100000,99,0,0.000000,19,0.000000,37.916436,0.795832,99,99,0,0,0,0,0
11,119999,6,110000,40,0,40,9999,0.100000,99,0,0.000000,19,0.000000,34.247853,0.234299,99,99,0,0,0,0,0
11,119999,7,110000,49,70000,40,9999,0.100000,99,0,0.000000,19,0.000000,32.042777,2.369136,99,99,0,0,0,0,0
11,119999,8,110000,60,80000,40,9999,0.100000,99,0,0.000000,19,0.000000,31.778199,5.504221,99,99,0,0,0,0,0
11,119999,9,110000,44,0,0,9999,0.100000,99,0,0.000939,19,0.000000,11.661776,0.157593,99,99,0,0,0,1,0
11,119999,10,110000,86,50000,40,9999,0.100000,99,0,0.000000,19,0.000000,11.589140,0.106352,99,99,0,0,0,0,0
11,119999,11,110000,99,60000,0,9999,0.100000,99,0,0.052290,19,0.000000,22.396208,0.074706,99,99,0,0,0,0,1
11,119999,12,110000,99,60000,40,9999,0.100000,99,0,0.000000,19,0.000000,29.805899,0.399837,99,99,0,0,0,0,0
11,119999,13,110000,60,80000,0,9999,0.100000,99,0,6.165456,19,1.000000,30.309293,1.500819,99,99,0,0,0,1,0
11,119999,14,110000,49,70000,41,9999,0.100000,99,0,0.000000,19,3.000000,28.279759,9.501971,99,99,0,0,0,0,0
11,119999,15,110000,16,80000,1,9999,0.065000,99,0,32.374197,19,6.000000,31.041459,6.457804,99,99,0,0,1,0,0
11,119999,16,110000,0,0,40,9999,0.100000,99,0,0.000000,19,0.000000,33.215288,0.439339,99,99,0,0,0,0,0
11,119999,17,110000,57,0,40,9999,0.100000,99,0,0.000000,19,1.000000,31.649966,5.303525,99,99,0,0,0,0,0
11,119999,18,110000,10,20000,40,9999,0.100000,99,0,0.000000,19,0.000000,37.796348,1.400687,99,99,0,0,0,0,0
11,119999,19,110000,50,100000,40,9999,0.100000,99,0,0.000000,19,1.000000,30.609865,1.458676,99,99,0,0,0,0,0
11,119999,20,110000,21,40000,40,9999,0.100000,99,0,0.000000,19,2.000000,36.386149,3.442693,99,99,0,0,0,0,0
11,119999,21,110000,57,0,40,9999,0.100000,99,0,0.000000,19,0.000000,24.327606,6.587486,99,99,0,0,0,0,0
11,119999,22,110000,60,80000,40,9999,0.100000,99,0,0.000000,19,0.000000,16.862189,0.228886,99,99,0,0,0,0,0
11,119999,23,110000,41,60000,41,9999,0.100000,99,0,0.000000,19,3.000000,24.990677,7.409666,99,99,0,0,0,0,0
11,119999,24,110000,41,60000,0,9999,0.100000,99,0,0.390539,19,0.000000,32.852401,0.214879,99,99,0,0,1,0,0
11,119999,25,110000,15,60000,41,9999,0.100000,99,0,0.000000,19,3.000000,25.373038,7.789962,99,99,0,0,0,0,0
11,119999,26,110000,41,60000,40,9999,0.100000,99,0,0.000000,19,1.000000,32.200556,8.579601,99,99,0,0,0,0,0
11,119999,27,110000,0,0,40,9999,0.100000,99,0,0.000000,19,0.000000,22.223757,0.528980,99,99,0,0,0,0,0
11,119999,28,110000,99,60000,0,9999,0.100000,99,0,0.227674,19,0.000000,29.417330,0.147646,99,99,0,1,0,0,0
11,119999,29,110000,2,10000,40,9999,0.100000,99,0,0.000000,19,0.000000,31.887979,2.267638,99,99,0,0,0,0,0
11,119999,30,110000,41,60000,41,9999,0.100000,99,0,0.000000,19,6.000000,30.573031,7.347073,99,99,0,0,0,0,0
11,119999,31,110000,0,0,40,9999,0.100000,99,0,0.000000,19,1.000000,26.551212,3.732975,99,99,0,0,0,0,0
11,119999,32,110000,39,40000,40,9999,0.100000,99,0,0.000000,19,0.000000,11.914863,0.185834,99,99,0,0,0,0,0
11,119999,33,110000,49,70000,0,9999,0.100000,99,0,0.092771,19,0.000000,32.284124,3.209639,99,99,0,0,0,1,0
11,119999,34,110000,2,10000,40,9999,0.100000,99,0,0.000000,19,0.000000,22.535306,0.276240,99,99,0,0,0,0,0
11,119999,35,110000,41,60000,40,9999,0.100000,99,0,0.000000,19,0.000000,26.589154,0.832124,99,99,0,0,0,0,0
11,119999,36,110000,39,40000,40,9999,0.100000,99,0,0.000000,19,0.000000,27.927728,1.061049,99,99,0,0,0,0,0
11,119999,37,110000,0,0,0,9999,0.100000,99,0,1.477430,19,0.000000,28.130440,0.529644,99,99,0,0,0,0,1
11,119999,38,110000,40,0,40,9999,0.100000,99,0,0.000000,19,0.000000,32.501811,0.780913,99,99,0,0,0,0,0
11,119999,39,110000,44,0,40,9999,0.100000,99,0,0.000000,19,0.000000,32.551167,0.794724,99,99,0,0,0,0,0
11,119999,40,110000,0,0,40,9999,0.100000,99,0,0.000000,19,0.000000,22.500949,0.098017,99,99,0,0,0,0,0
11,119999,41,110000,0,0,40,9999,0.100000,99,0,0.000000,19,0.000000,30.270423,0.137881,99,99,0,0,0,0,0
11,119999,42,110000,99,60000,40,9999,0.100000,99,0,0.000000,19,0.000000,31.894378,1.250209,99,99,0,0,0,0,0
11,119999,43,110000,86,50000,40,9999,0.100000,99,0,0.000000,19,0.000000,21.469012,0.935408,99,99,0,0,0,0,0
11,119999,44,110000,44,0,41,9999,0.100000,99,0,0.000000,19,3.000000,26.336523,6.454857,99,99,0,0,0,0,0
11,119999,45,110000,60,80000,40,9999,0.100000,99,0,0.000000,19,0.000000,17.846446,1.861099,99,99,0,0,0,0,0
11,119999,46,110000,59,40000,40,9999,0.100000,99,0,0.000000,19,0.000000,18.955557,0.219451,99,99,0,0,0,0,0
11,119999,47,110000,50,100000,40,9999,0.100000,99,0,0.000000,19,0.000000,31.975656,3.755676,99,99,0,0,0,0,0
11,119999,48,110000,40,0,40,9999,0.100000,99,0,0.000000,19,0.000000,16.619860,0.438256,99,99,0,0,0,0,0
11,119999,49,110000,0,0,40,9999,0.100000,99,0,0.000000,19,1.000000,25.005985,6.319323,99,99,0,0,0,0,0
11,119999,50,110000,21,40000,0,9999,0.100000,99,0,1.678164,19,0.000000,31.793465,2.534417,99,99,0,1,0,0,0
11,119999,51,110000,2,10000,40,9999,0.100000,99,0,0.000000,19,0.000000,22.361482,0.061053,99,99,0,0,0,0,0
11,119999,52,110000,2,10000,40,9999,0.100000,99,0,0.000000,19,3.000000,30.264994,16.395123,99,99,0,0,0,0,0
11,119999,53,110000,86,50000,40,9999,0.100000,99,0,0.000000,19,0.000000,20.866589,0.276163,99,99,0,0,0,0,0
11,119999,54,110000,10,20000,41,9999,0.100000,99,0,0.000000,19,5.000000,26.542797,12.770311,99,99,0,0,0,0,0
11,119999,55,110000,44,0,41,9999,0.100000,99,0,0.000000,19,4.000000,19.532290,8.467736,99,99,0,0,0,0,0
11,119999,56,110000,44,0,40,9999,0.100000,99,0,0.000000,19,0.000000,31.906563,4.956549,99,99,0,0,0,0,0
11,119999,57,110000,15,60000,40,9999,0.100000,99,0,0.000000,19,0.000000,33.538037,6.944926,99,99,0,0,0,0,0
11,119999,58,110000,0,0,40,9999,0.100000,99,0,0.000000,19,0.000000,19.790351,0.284403,99,99,0,0,0,0,0
11,119999,59,110000,99,30000,40,9999,0.100000,99,0,0.000000,19,0.000000,29.675316,0.949327,99,99,0,0,0,0,0
11,119999,60,110000,50,100000,41,9999,0.100000,99,0,0.000000,19,6.000000,30.786594,6.413197,99,99,0,0,0,0,0
11,119999,61,110000,60,80000,40,9999,0.100000,99,0,0.000000,19,0.000000,25.242843,3.038462,99,99,0,0,0,0,0
11,119999,62,110000,59,40000,40,9999,0.100000,99,0,0.000000,19,0.000000,23.909573,0.970182,99,99,0,0,0,0,0
11,119999,63,110000,21,40000,40,9999,0.100000,99,0,0.000000,19,0.000000,22.297299,0.643239,99,99,0,0,0,0,0
11,119999,64,110000,10,20000,40,9999,0.100000,99,0,0.000000,19,0.000000,26.416531,8.098347,99,99,0,0,0,0,0
11,119999,65,110000,16,80000,40,9999,0.100000,99,0,0.000000,19,1.000000,30.465309,1.529809,99,99,0,0,0,0,0
11,119999,66,110000,41,60000,41,9999,0.100000,99,0,0.000000,19,4.000000,30.149601,20.660556,99,99,0,0,0,0,0
11,119999,67,110000,44,0,41,9999,0.100000,99,0,0.000000,19,3.000000,22.984682,5.966738,99,99,0,0,0,0,0
11,119999,68,110000,99,60000,40,9999,0.100000,99,0,0.000000,19,0.000000,33.172151,3.475063,99,99,0,0,0,0,0
11,119999,69,110000,21,40000,40,9999,0.100000,99,0,0.000000,19,0.000000,26.719410,0.609226,99,99,0,0,0,0,0
11,119999,70,110000,86,50000,40,9999,0.100000,99,0,0.000000,19,0.000000,30.975786,8.717806,99,99,0,0,0,0,0
11,119999,71,110000,2,10000,0,9999,0.100000,99,0,0.791264,19,0.000000,26.608346,0.556272,99,99,0,0,1,0,0
11,119999,72,110000,0,0,40,9999,0.100000,99,0,0.000000,19,1.000000,30.761239,1.550234,99,99,0,0,0,0,0
11,119999,73,110000,60,80000,40,9999,0.100000,99,0,0.000000,19,0.000000,22.444078,0.065505,99,99,0,0,0,0,0
11,119999,74,110000,99,60000,40,9999,0.100000,99,0,0.000000,19,0.000000,26.207069,0.484700,99,99,0,0,0,0,0
