generation,iteration,robot,birthday,ancestor_id,ancestor_birthday,cell_id,age,sigma,maps,genomes,fitness,cells_in_map,dist_max,dist_pot_max,dist_total,com_rx,com_tx,obj_group1,obj_group2,obj_group3,obj_group4,obj_group5
0,9999,0,0,0,0,1,9999,0.100000,0,0,0.000000,0,9.000000,0.000000,12.210750,0,0,0,0,0,0,0
0,9999,1,0,1,0,1,9999,0.100000,0,0,0.000000,0,10.000000,0.000000,17.560418,0,0,0,0,0,0,0
0,9999,2,0,2,0,1,9999,0.100000,0,0,0.000000,0,8.000000,0.000000,9.477845,0,0,0,0,0,0,0
0,9999,3,0,3,0,1,9999,0.100000,0,0,0.000000,0,8.000000,0.000000,16.468273,0,0,0,0,0,0,0
0,9999,4,0,4,0,1,9999,0.100000,0,0,0.000000,0,9.000000,0.000000,24.523236,0,0,0,0,0,0,0
0,9999,5,0,5,0,1,9999,0.100000,0,0,0.000000,0,6.000000,0.000000,13.144283,0,0,0,0,0,0,0
0,9999,6,0,6,0,1,9999,0.100000,0,0,0.000000,0,12.000000,0.000000,29.584198,0,0,0,0,0,0,0
0,9999,7,0,7,0,1,9999,0.100000,0,0,0.000000,0,4.000000,0.000000,5.318545,0,0,0,0,0,0,0
0,9999,8,0,8,0,1,9999,0.100000,0,0,0.000000,0,9.000000,0.000000,10.260207,0,0,0,0,0,0,0
0,9999,9,0,9,0,1,9999,0.100000,0,0,0.000000,0,5.000000,0.000000,7.872759,0,0,0,0,0,0,0
0,9999,10,0,10,0,1,9999,0.100000,0,0,0.000000,0,8.000000,0.000000,23.054517,0,0,0,0,0,0,0
0,9999,11,0,11,0,1,9999,0.100000,0,0,0.000000,0,12.000000,0.000000,18.864745,0,0,0,0,0,0,0
0,9999,12,0,12,0,1,9999,0.100000,0,0,0.000000,0,6.000000,0.000000,12.081956,0,0,0,0,0,0,0
0,9999,13,0,13,0,1,9999,0.100000,0,0,0.000000,0,10.000000,0.000000,16.111990,0,0,0,0,0,0,0
0,9999,14,0,14,0,1,9999,0.100000,0,0,0.000000,0,4.000000,0.000000,14.272149,0,0,0,0,0,0,0
0,9999,15,0,15,0,1,9999,0.100000,0,0,0.000000,0,7.000000,0.000000,9.820459,0,0,0,0,0,0,0
0,9999,16,0,16,0,1,9999,0.100000,0,0,0.000000,0,3.000000,0.000000,10.025206,0,0,0,0,0,0,0
0,9999,17,0,17,0,1,9999,0.100000,0,0,0.000000,0,8.000000,0.000000,17.852257,0,0,0,0,0,0,0
0,9999,18,0,18,0,1,9999,0.100000,0,0,0.000000,0,7.000000,0.000000,16.314421,0,0,0,0,0,0,0
0,9999,19,0,19,0,1,9999,0.100000,0,0,0.000000,0,7.000000,0.000000,14.483378,0,0,0,0,0,0,0
0,9999,20,0,20,0,1,9999,0.100000,0,0,0.000000,0,10.000000,0.000000,12.673557,0,0,0,0,0,0,0
0,9999,21,0,21,0,1,9999,0.100000,0,0,0.000000,0,8.000000,0.000000,10.129232,0,0,0,0,0,0,0
0,9999,22,0,22,0,1,9999,0.100000,0,0,0.000000,0,9.000000,0.000000,21.876259,0,0,0,0,0,0,0
0,9999,23,0,23,0,1,9999,0.100000,0,0,0.000000,0,6.000000,0.000000,8.914700,0,0,0,0,0,0,0
0,9999,24,0,24,0,1,9999,0.100000,0,0,0.000000,0,10.000000,0.000000,11.893101,0,0,0,0,0,0,0
0,9999,25,0,25,0,1,9999,0.100000,0,0,0.000000,0,7.000000,0.000000,9.249958,0,0,0,0,0,0,0
0,9999,26,0,26,0,1,9999,0.100000,0,0,0.000000,0,8.000000,0.000000,16.976907,0,0,0,0,0,0,0
0,9999,27,0,27,0,1,9999,0.100000,0,0,0.000000,0,7.000000,0.000000,7.236286,0,0,0,0,0,0,0
0,9999,28,0,28,0,1,9999,0.100000,0,0,0.000000,0,12.000000,0.000000,17.788392,0,0,0,0,0,0,0
0,9999,29,0,29,0,1,9999,0.100000,0,0,0.000000,0,2.000000,0.000000,9.050772,0,0,0,0,0,0,0
0,9999,30,0,30,0,1,9999,0.100000,0,0,0.000000,0,6.000000,0.000000,6.708481,0,0,0,0,0,0,0
0,9999,31,0,31,0,1,9999,0.100000,0,0,0.000000,0,8.000000,0.000000,23.808747,0,0,0,0,0,0,0
0,9999,32,0,32,0,1,9999,0.100000,0,0,0.000000,0,10.000000,0.000000,11.162537,0,0,0,0,0,0,0
0,9999,33,0,33,0,1,9999,0.100000,0,0,0.000000,0,9.000000,0.000000,15.300714,0,0,0,0,0,0,0
0,9999,34,0,34,0,1,9999,0.100000,0,0,0.000000,0,8.000000,0.000000,16.494990,0,0,0,0,0,0,0
0,9999,35,0,35,0,1,9999,0.100000,0,0,0.000000,0,8.000000,0.000000,18.598281,0,0,0,0,0,0,0
0,9999,36,0,36,0,1,9999,0.100000,0,0,0.000000,0,1.000000,0.000000,8.526393,0,0,0,0,0,0,0
0,9999,37,0,37,0,1,9999,0.100000,0,0,0.000000,0,10.000000,0.000000,20.388401,0,0,0,0,0,0,0
0,9999,38,0,38,0,3,9999,0.100000,0,0,47.368421,0,9.000000,0.000000,14.517897,0,0,1,0,0,0,0
0,9999,39,0,39,0,1,9999,0.100000,0,0,0.000000,0,10.000000,0.000000,14.304536,0,0,0,0,0,0,0
0,9999,40,0,40,0,1,9999,0.100000,0,0,0.000000,0,10.000000,0.000000,15.603720,0,0,0,0,0,0,0
0,9999,41,0,41,0,1,9999,0.100000,0,0,0.000000,0,10.000000,0.000000,14.699062,0,0,0,0,0,0,0
0,9999,42,0,42,0,1,9999,0.100000,0,0,0.000000,0,9.000000,0.000000,23.138205,0,0,0,0,0,0,0
0,9999,43,0,43,0,1,9999,0.100000,0,0,0.000000,0,10.000000,0.000000,24.927311,0,0,0,0,0,0,0
0,9999,44,0,44,0,1,9999,0.100000,0,0,0.000000,0,10.000000,0.000000,13.770306,0,0,0,0,0,0,0
0,9999,45,0,45,0,1,9999,0.100000,0,0,0.000000,0,9.000000,0.000000,15.320832,0,0,0,0,0,0,0
0,9999,46,0,46,0,1,9999,0.100000,0,0,0.000000,0,3.000000,0.000000,15.758733,0,0,0,0,0,0,0
0,9999,47,0,47,0,1,9999,0.100000,0,0,0.000000,0,10.000000,0.000000,21.858708,0,0,0,0,0,0,0
0,9999,48,0,48,0,1,9999,0.100000,0,0,0.000000,0,9.000000,0.000000,18.328473,0,0,0,0,0,0,0
0,9999,49,0,49,0,1,9999,0.100000,0,0,0.000000,0,9.000000,0.000000,16.622649,0,0,0,0,0,0,0
0,9999,50,0,50,0,1,9999,0.100000,0,0,0.000000,0,10.000000,0.000000,21.105115,0,0,0,0,0,0,0
0,9999,51,0,51,0,1,9999,0.100000,0,0,0.000000,0,9.000000,0.000000,9.926610,0,0,0,0,0,0,0
0,9999,52,0,52,0,1,9999,0.100000,0,0,0.000000,0,4.000000,0.000000,4.982384,0,0,0,0,0,0,0
0,9999,53,0,53,0,1,9999,0.100000,0,0,0.000000,0,8.000000,0.000000,10.499678,0,0,0,0,0,0,0
0,9999,54,0,54,0,1,9999,0.100000,0,0,0.000000,0,5.000000,0.000000,6.263142,0,0,0,0,0,0,0
0,9999,55,0,55,0,1,9999,0.100000,0,0,0.000000,0,9.000000,0.000000,10.432249,0,0,0,0,0,0,0
0,9999,56,0,56,0,1,9999,0.100000,0,0,0.000000,0,9.000000,0.000000,16.449223,0,0,0,0,0,0,0
0,9999,57,0,57,0,1,9999,0.100000,0,0,0.000000,0,4.000000,0.000000,5.384315,0,0,0,0,0,0,0
0,9999,58,0,58,0,1,9999,0.100000,0,0,0.000000,0,4.000000,0.000000,8.637293,0,0,0,0,0,0,0
0,9999,59,0,59,0,1,9999,0.100000,0,0,0.000000,0,5.000000,0.000000,16.348308,0,0,0,0,0,0,0
0,9999,60,0,60,0,1,9999,0.100000,0,0,0.000000,0,9.000000,0.000000,12.018906,0,0,0,0,0,0,0
0,9999,61,0,61,0,1,9999,0.100000,0,0,0.000000,0,10.000000,0.000000,26.277188,0,0,0,0,0,0,0
0,9999,62,0,62,0,1,9999,0.100000,0,0,0.000000,0,2.000000,0.000000,10.783593,0,0,0,0,0,0,0
0,9999,63,0,63,0,1,9999,0.100000,0,0,0.000000,0,10.000000,0.000000,13.399063,0,0,0,0,0,0,0
0,9999,64,0,64,0,1,9999,0.100000,0,0,0.000000,0,12.000000,0.000000,19.405872,0,0,0,0,0,0,0
0,9999,65,0,65,0,1,9999,0.100000,0,0,0.000000,0,8.000000,0.000000,12.116286,0,0,0,0,0,0,0
0,9999,66,0,66,0,1,9999,0.100000,0,0,0.000000,0,8.000000,0.000000,20.327369,0,0,0,0,0,0,0
0,9999,67,0,67,0,1,9999,0.100000,0,0,0.000000,0,4.000000,0.000000,8.293822,0,0,0,0,0,0,0
0,9999,68,0,68,0,1,9999,0.100000,0,0,0.000000,0,5.000000,0.000000,6.494777,0,0,0,0,0,0,0
0,9999,69,0,69,0,1,9999,0.100000,0,0,0.000000,0,9.000000,0.000000,13.301721,0,0,0,0,0,0,0
0,9999,70,0,70,0,1,9999,0.100000,0,0,0.000000,0,4.000000,0.000000,6.797201,0,0,0,0,0,0,0
0,9999,71,0,71,0,1,9999,0.100000,0,0,0.000000,0,9.000000,0.000000,22.705332,0,0,0,0,0,0,0
0,9999,72,0,72,0,1,9999,0.100000,0,0,0.000000,0,10.000000,0.000000,16.028645,0,0,0,0,0,0,0
0,9999,73,0,73,0,1,9999,0.100000,0,0,0.000000,0,10.000000,0.000000,10.901604,0,0,0,0,0,0,0
0,9999,74,0,74,0,1,9999,0.100000,0,0,0.000000,0,5.000000,0.000000,17.156645,0,0,0,0,0,0,0
0,9999,75,0,75,0,1,9999,0.100000,0,0,0.000000,0,8.000000,0.000000,9.176780,0,0,0,0,0,0,0
0,9999,76,0,76,0,1,9999,0.100000,0,0,0.000000,0,8.000000,0.000000,17.170889,0,0,0,0,0,0,0
0,9999,77,0,77,0,1,9999,0.100000,0,0,0.000000,0,8.000000,0.000000,14.848818,0,0,0,0,0,0,0
0,9999,78,0,78,0,1,9999,0.100000,0,0,0.000000,0,10.000000,0.000000,10.974352,0,0,0,0,0,0,0
0,9999,79,0,79,0,1,9999,0.100000,0,0,0.000000,0,9.000000,0.000000,19.880729,0,0,0,0,0,0,0
0,9999,80,0,80,0,1,9999,0.100000,0,0,0.000000,0,8.000000,0.000000,9.171868,0,0,0,0,0,0,0
0,9999,81,0,81,0,1,9999,0.100000,0,0,0.000000,0,5.000000,0.000000,21.396003,0,0,0,0,0,0,0
0,9999,82,0,82,0,1,9999,0.100000,0,0,0.000000,0,5.000000,0.000000,9.417148,0,0,0,0,0,0,0
0,9999,83,0,83,0,1,9999,0.100000,0,0,0.000000,0,11.000000,0.000000,32.326927,0,0,0,0,0,0,0
0,9999,84,0,84,0,1,9999,0.100000,0,0,0.000000,0,12.000000,0.000000,32.423153,0,0,0,0,0,0,0
0,9999,85,0,85,0,1,9999,0.100000,0,0,0.000000,0,2.000000,0.000000,3.110287,0,0,0,0,0,0,0
0,9999,86,0,86,0,1,9999,0.100000,0,0,0.000000,0,10.000000,0.000000,12.451904,0,0,0,0,0,0,0
0,9999,87,0,87,0,1,9999,0.100000,0,0,0.000000,0,3.000000,0.000000,4.693424,0,0,0,0,0,0,0
0,9999,88,0,88,0,1,9999,0.100000,0,0,0.000000,0,9.000000,0.000000,16.711358,0,0,0,0,0,0,0
0,9999,89,0,89,0,1,9999,0.100000,0,0,0.000000,0,8.000000,0.000000,15.869207,0,0,0,0,0,0,0
0,9999,90,0,90,0,1,9999,0.100000,0,0,0.000000,0,3.000000,0.000000,4.203034,0,0,0,0,0,0,0
0,9999,91,0,91,0,1,9999,0.100000,0,0,0.000000,0,7.000000,0.000000,20.578270,0,0,0,0,0,0,0
0,9999,92,0,92,0,1,9999,0.100000,0,0,0.000000,0,11.000000,0.000000,13.028842,0,0,0,0,0,0,0
0,9999,93,0,93,0,1,9999,0.100000,0,0,0.000000,0,9.000000,0.000000,23.551620,0,0,0,0,0,0,0
0,9999,94,0,94,0,1,9999,0.100000,0,0,0.000000,0,8.000000,0.000000,12.284625,0,0,0,0,0,0,0
0,9999,95,0,95,0,1,9999,0.100000,0,0,0.000000,0,9.000000,0.000000,11.175977,0,0,0,0,0,0,0
0,9999,96,0,96,0,1,9999,0.100000,0,0,0.000000,0,7.000000,0.000000,16.401800,0,0,0,0,0,0,0
0,9999,97,0,97,0,1,9999,0.100000,0,0,0.000000,0,7.000000,0.000000,11.227950,0,0,0,0,0,0,0
0,9999,98,0,98,0,1,9999,0.100000,0,0,0.000000,0,7.000000,0.000000,8.108825,0,0,0,0,0,0,0
0,9999,99,0,99,0,1,9999,0.100000,0,0,0.000000,0,11.000000,0.000000,14.828762,0,0,0,0,0,0,0
1,19999,0,10000,1,0,0,9999,0.100000,0,0,0.000000,2,0.000000,0.000000,0.592720,0,0,0,0,0,0,0
1,19999,1,10000,1,0,1,9999,0.100000,0,0,0.000000,1,2.000000,0.000000,15.801859,0,0,0,0,0,0,0
1,19999,2,10000,32,0,0,9999,0.100000,0,0,0.000000,2,0.000000,0.000000,0.479662,0,0,0,0,0,0,0
1,19999,3,10000,21,0,0,9999,0.100000,0,0,0.000000,2,0.000000,0.000000,1.063772,0,0,0,0,0,0,0
1,19999,4,10000,1,0,0,9999,0.100000,0,0,0.000000,2,0.000000,0.000000,6.643206,0,0,0,0,0,0,0
1,19999,5,10000,1,0,1,9999,0.100000,0,0,0.000000,2,5.000000,0.000000,9.949269,0,0,0,0,0,0,0
1,19999,6,10000,1,0,1,9999,0.100000,0,0,0.000000,2,2.000000,0.000000,7.373139,0,0,0,0,0,0,0
1,19999,7,10000,32,0,0,9999,0.100000,0,0,0.000000,2,0.000000,0.000000,0.111463,0,0,0,0,0,0,0
1,19999,8,10000,1,0,0,9999,0.100000,0,0,0.000000,2,0.000000,0.000000,0.220855,0,0,0,0,0,0,0
1,19999,9,10000,1,0,0,9999,0.100000,0,0,0.000000,2,0.000000,0.000000,1.202015,0,0,0,0,0,0,0
1,19999,10,10000,1,0,0,9999,0.100000,0,0,0.000000,2,0.000000,0.000000,2.927338,0,0,0,0,0,0,0
1,19999,11,10000,0,0,1,9999,0.100000,0,0,0.000000,2,1.000000,0.000000,10.235066,0,0,0,0,0,0,0
1,19999,12,10000,12,0,0,9999,0.100000,0,0,0.000000,2,0.000000,0.000000,1.923267,0,0,0,0,0,0,0
1,19999,13,10000,1,0,1,9999,0.100000,0,0,0.000000,2,1.000000,0.000000,8.727591,0,0,0,0,0,0,0
1,19999,14,10000,1,0,1,9999,0.100000,0,0,0.000000,2,3.000000,0.000000,20.624797,0,0,0,0,0,0,0
1,19999,15,10000,32,0,0,9999,0.100000,0,0,0.000000,2,0.000000,0.000000,1.399391,0,0,0,0,0,0,0
1,19999,16,10000,32,0,1,9999,0.100000,0,0,0.000000,2,1.000000,0.000000,5.323955,0,0,0,0,0,0,0
1,19999,17,10000,1,0,1,9999,0.100000,0,0,0.000000,2,3.000000,0.000000,15.446304,0,0,0,0,0,0,0
1,19999,18,10000,12,0,0,9999,0.100000,0,0,0.000000,2,0.000000,0.000000,7.709245,0,0,0,0,0,0,0
1,19999,19,10000,1,0,1,9999,0.100000,0,0,0.000000,2,1.000000,0.000000,9.444073,0,0,0,0,0,0,0
1,19999,20,10000,32,0,0,9999,0.100000,0,0,0.000000,2,0.000000,0.000000,0.333311,0,0,0,0,0,0,0
1,19999,21,10000,21,0,0,9999,0.100000,0,0,0.000000,2,0.000000,0.000000,0.179175,0,0,0,0,0,0,0
1,19999,22,10000,1,0,0,9999,0.100000,0,0,0.000000,2,0.000000,0.000000,0.523057,0,0,0,0,0,0,0
1,19999,23,10000,1,0,0,9999,0.100000,0,0,0.000000,2,0.000000,0.000000,1.536134,0,0,0,0,0,0,0
1,19999,24,10000,1,0,0,9999,0.100000,0,0,0.000000,2,0.000000,0.000000,0.080026,0,0,0,0,0,0,0
1,19999,25,10000,32,0,0,9999,0.100000,0,0,0.000000,2,0.000000,0.000000,0.807583,0,0,0,0,0,0,0
1,19999,26,10000,32,0,1,9999,0.100000,0,0,34.210526,2,1.000000,0.000000,8.489209,0,0,0,1,0,0,0
1,19999,27,10000,32,0,0,9999,0.100000,0,0,0.000000,2,0.000000,0.000000,0.074080,0,0,0,0,0,0,0
1,19999,28,10000,1,0,1,9999,0.100000,0,0,0.000000,2,1.000000,0.000000,3.911874,0,0,0,0,0,0,0
1,19999,29,10000,32,0,0,9999,0.100000,0,0,0.000000,2,0.000000,0.000000,0.172635,0,0,0,0,0,0,0
1,19999,30,10000,1,0,1,9999,0.100000,0,0,0.000000,2,1.000000,0.000000,4.328130,0,0,0,0,0,0,0
1,19999,31,10000,1,0,1,9999,0.100000,0,0,0.000000,2,1.000000,0.000000,12.433354,0,0,0,0,0,0,0
1,19999,32,10000,1,0,0,9999,0.100000,0,0,0.000000,2,0.000000,0.000000,0.275566,0,0,0,0,0,0,0
1,19999,33,10000,33,0,0,9999,0.100000,0,0,0.000000,2,0.000000,0.000000,0.724381,0,0,0,0,0,0,0
1,19999,34,10000,1,0,1,9999,0.100000,0,0,0.000000,2,3.000000,0.000000,11.613346,0,0,0,0,0,0,0
1,19999,35,10000,1,0,1,9999,0.100000,0,0,34.210526,2,1.000000,0.000000,11.826652,0,0,0,1,0,0,0
1,19999,36,10000,32,0,1,9999,0.100000,0,0,0.000000,2,2.000000,0.000000,6.034224,0,0,0,0,0,0,0
1,19999,37,10000,1,0,0,9999,0.100000,0,0,0.000000,2,0.000000,0.000000,0.936029,0,0,0,0,0,0,0
1,19999,38,10000,32,0,0,9999,0.100000,0,0,0.000000,2,0.000000,0.000000,0.675751,0,0,0,0,0,0,0
1,19999,39,10000,1,0,0,9999,0.100000,0,0,0.000000,2,0.000000,0.000000,0.506506,0,0,0,0,0,0,0
1,19999,40,10000,32,0,0,9999,0.065000,0,0,0.000000,2,0.000000,0.000000,0.227235,0,0,0,0,0,0,0
1,19999,41,10000,21,0,1,9999,0.100000,0,0,0.000000,2,3.000000,0.000000,9.512247,0,0,0,0,0,0,0
1,19999,42,10000,32,0,0,9999,0.100000,0,0,0.000000,2,0.000000,0.000000,2.094854,0,0,0,0,0,0,0
1,19999,43,10000,1,0,1,9999,0.100000,0,0,0.000000,2,4.000000,0.000000,7.064926,0,0,0,0,0,0,0
1,19999,44,10000,32,0,1,9999,0.100000,0,0,0.000000,2,1.000000,0.000000,12.382699,0,0,0,0,0,0,0
1,19999,45,10000,1,0,0,9999,0.100000,0,0,0.000000,2,0.000000,0.000000,0.536477,0,0,0,0,0,0,0
1,19999,46,10000,1,0,1,9999,0.100000,0,0,0.000000,2,1.000000,0.000000,22.931874,0,0,0,0,0,0,0
1,19999,47,10000,1,0,1,9999,0.100000,0,0,0.000000,2,1.000000,0.000000,2.628198,0,0,0,0,0,0,0
1,19999,48,10000,32,0,0,9999,0.100000,0,0,0.000000,2,0.000000,0.000000,2.999464,0,0,0,0,0,0,0
1,19999,49,10000,1,0,1,9999,0.100000,0,0,0.000000,2,3.000000,0.000000,11.164096,0,0,0,0,0,0,0
1,19999,50,10000,1,0,0,9999,0.100000,0,0,0.000000,2,0.000000,0.000000,3.640325,0,0,0,0,0,0,0
1,19999,51,10000,1,0,0,9999,0.100000,0,0,0.000000,2,0.000000,0.000000,0.124953,0,0,0,0,0,0,0
1,19999,52,10000,32,0,0,9999,0.100000,0,0,0.000000,2,0.000000,0.000000,0.104349,0,0,0,0,0,0,0
1,19999,53,10000,32,0,0,9999,0.100000,0,0,0.000000,2,0.000000,0.000000,1.717377,0,0,0,0,0,0,0
1,19999,54,10000,1,0,0,9999,0.100000,0,0,0.000000,2,0.000000,0.000000,0.065787,0,0,0,0,0,0,0
1,19999,55,10000,1,0,0,9999,0.100000,0,0,0.000000,2,0.000000,0.000000,1.039600,0,0,0,0,0,0,0
1,19999,56,10000,32,0,1,9999,0.100000,0,0,0.000000,2,2.000000,0.000000,3.271438,0,0,0,0,0,0,0
1,19999,57,10000,32,0,0,9999,0.100000,0,0,0.000000,2,0.000000,0.000000,2.075780,0,0,0,0,0,0,0
1,19999,58,10000,32,0,1,9999,0.100000,0,0,0.000000,2,1.000000,0.000000,3.757394,0,0,0,0,0,0,0
1,19999,59,10000,32,0,0,9999,0.100000,0,0,0.000000,2,0.000000,0.000000,4.382022,0,0,0,0,0,0,0
1,19999,60,10000,32,0,0,9999,0.100000,0,0,0.000000,2,0.000000,0.000000,0.087786,0,0,0,0,0,0,0
1,19999,61,10000,32,0,0,9999,0.100000,0,0,0.000000,2,0.000000,0.000000,19.940185,0,0,0,0,0,0,0
1,19999,62,10000,1,0,1,9999,0.100000,0,0,0.000000,2,2.000000,0.000000,4.861493,0,0,0,0,0,0,0
1,19999,63,10000,32,0,0,9999,0.100000,0,0,0.000000,2,0.000000,0.000000,1.522871,0,0,0,0,0,0,0
1,19999,64,10000,1,0,1,9999,0.100000,0,0,0.000000,2,1.000000,0.000000,19.038824,0,0,0,0,0,0,0
1,19999,65,10000,21,0,0,9999,0.100000,0,0,0.000000,2,0.000000,0.000000,0.487385,0,0,0,0,0,0,0
1,19999,66,10000,32,0,1,9999,0.100000,0,0,0.000000,2,4.000000,0.000000,6.985641,0,0,0,0,0,0,0
1,19999,67,10000,1,0,0,9999,0.100000,0,0,0.000000,2,0.000000,0.000000,0.673904,0,0,0,0,0,0,0
1,19999,68,10000,1,0,0,9999,0.100000,0,0,0.000000,2,0.000000,0.000000,0.128718,0,0,0,0,0,0,0
1,19999,69,10000,32,0,0,9999,0.100000,0,0,0.000000,2,0.000000,0.000000,0.387454,0,0,0,0,0,0,0
1,19999,70,10000,32,0,0,9999,0.100000,0,0,0.000000,2,0.000000,0.000000,3.355269,0,0,0,0,0,0,0
1,19999,71,10000,1,0,1,9999,0.100000,0,0,0.000000,2,1.000000,0.000000,14.320837,0,0,0,0,0,0,0
1,19999,72,10000,32,0,0,9999,0.100000,0,0,0.000000,2,0.000000,0.000000,0.584616,0,0,0,0,0,0,0
1,19999,73,10000,32,0,0,9999,0.135000,0,0,0.000000,2,0.000000,0.000000,0.799715,0,0,0,0,0,0,1
1,19999,74,10000,1,0,1,9999,0.100000,0,0,0.000000,2,1.000000,0.000000,11.302968,0,0,0,0,0,0,0
1,19999,75,10000,32,0,1,9999,0.100000,0,0,0.000000,2,6.000000,0.000000,12.706812,0,0,0,0,0,0,0
1,19999,76,10000,1,0,0,9999,0.100000,0,0,0.000000,2,0.000000,0.000000,0.870518,0,0,0,0,0,0,0
1,19999,77,10000,32,0,0,9999,0.100000,0,0,0.000000,2,0.000000,0.000000,7.308814,0,0,0,0,0,0,0
1,19999,78,10000,32,0,0,9999,0.100000,0,0,0.000000,2,0.000000,0.000000,0.337923,0,0,0,0,0,0,0
1,19999,79,10000,21,0,1,9999,0.100000,0,0,0.000000,2,3.000000,0.000000,5.604260,0,0,0,0,0,0,0
1,19999,80,10000,32,0,0,9999,0.100000,0,0,0.000000,2,0.000000,0.000000,0.888524,0,0,0,0,0,0,0
1,19999,81,10000,21,0,0,9999,0.100000,0,0,0.000000,2,0.000000,0.000000,0.257992,0,0,0,0,0,0,0
1,19999,82,10000,32,0,0,9999,0.100000,0,0,0.000000,2,0.000000,0.000000,0.070680,0,0,0,0,0,0,0
1,19999,83,10000,1,0,0,9999,0.100000,0,0,0.000000,2,0.000000,0.000000,2.802248,0,0,0,0,0,0,0
1,19999,84,10000,1,0,0,9999,0.100000,0,0,0.000000,2,0.000000,0.000000,0.298324,0,0,0,0,0,0,0
1,19999,85,10000,32,0,0,9999,0.100000,0,0,0.000000,2,0.000000,0.000000,0.085363,0,0,0,0,0,0,0
1,19999,86,10000,1,0,0,9999,0.100000,0,0,0.000000,2,0.000000,0.000000,0.096886,0,0,0,0,0,0,0
1,19999,87,10000,32,0,0,9999,0.100000,0,0,0.000000,2,0.000000,0.000000,0.207518,0,0,0,0,0,0,0
1,19999,88,10000,1,0,0,9999,0.100000,0,0,0.000000,2,0.000000,0.000000,0.559100,0,0,0,0,0,0,0
1,19999,89,10000,1,0,0,9999,0.100000,0,0,0.000000,2,0.000000,0.000000,0.088613,0,0,0,0,0,0,0
1,19999,90,10000,32,0,0,9999,0.100000,0,0,0.000000,2,0.000000,0.000000,0.103921,0,0,0,0,0,0,0
1,19999,91,10000,32,0,0,9999,0.100000,0,0,0.000000,2,0.000000,0.000000,15.415424,0,0,0,0,0,0,0
1,19999,92,10000,32,0,0,9999,0.100000,0,0,0.000000,2,0.000000,0.000000,0.435941,0,0,0,0,0,0,0
1,19999,93,10000,1,0,1,9999,0.100000,0,0,0.000000,2,3.000000,0.000000,7.859446,0,0,0,0,0,0,0
1,19999,94,10000,1,0,0,9999,0.100000,0,0,0.000000,2,0.000000,0.000000,4.112785,0,0,0,0,0,0,0
1,19999,95,10000,1,0,0,9999,0.100000,0,0,0.000000,2,0.000000,0.000000,0.401786,0,0,0,0,0,0,0
1,19999,96,10000,32,0,0,9999,0.100000,0,0,0.000000,2,0.000000,0.000000,0.265772,0,0,0,0,0,0,0
1,19999,97,10000,32,0,0,9999,0.100000,0,0,0.000000,2,0.000000,0.000000,0.082782,0,0,0,0,0,0,0
1,19999,98,10000,1,0,1,9999,0.100000,0,0,0.000000,2,6.000000,0.000000,13.524895,0,0,0,0,0,0,0
1,19999,99,10000,32,0,0,9999,0.100000,0,0,0.000000,2,0.000000,0.000000,0.548012,0,0,0,0,0,0,0
2,29999,0,20000,32,0,0,9999,0.100000,0,0,0.000000,4,0.000000,0.000000,0.679328,0,0,0,0,0,0,0
2,29999,1,20000,32,0,0,9999,0.100000,0,0,0.000000,2,0.000000,0.000000,22.693437,0,0,0,0,0,0,0
2,29999,2,20000,32,0,0,9999,0.100000,0,0,0.000000,4,0.000000,0.000000,0.547827,0,0,0,0,0,0,0
2,29999,3,20000,0,10000,0,9999,0.100000,0,0,0.000000,4,0.000000,0.000000,0.099693,0,0,0,0,0,0,0
2,29999,4,20000,32,0,0,9999,0.100000,0,0,0.000000,3,0.000000,0.000000,2.087967,0,0,0,0,0,0,0
2,29999,5,20000,9,10000,1,9999,0.100000,0,0,0.000000,4,5.000000,0.000000,24.982297,0,0,0,0,0,0,0
2,29999,6,20000,1,0,0,9999,0.100000,0,0,0.000000,4,0.000000,0.000000,0.264751,0,0,0,0,0,0,0
2,29999,7,20000,9,10000,0,9999,0.100000,0,0,0.000000,4,0.000000,0.000000,0.182164,0,0,0,0,0,0,0
2,29999,8,20000,32,0,0,9999,0.100000,0,0,0.000000,4,0.000000,0.000000,0.239658,0,0,0,0,0,0,0
2,29999,9,20000,9,10000,0,9999,0.100000,0,0,0.000000,4,0.000000,0.000000,1.172575,0,0,0,0,0,0,0
2,29999,10,20000,9,10000,0,9999,0.100000,0,0,0.000000,4,0.000000,0.000000,0.286678,0,0,0,0,0,0,0
2,29999,11,20000,9,10000,1,9999,0.100000,0,0,0.000000,4,8.000000,0.000000,10.412249,0,0,0,0,0,0,0
2,29999,12,20000,1,0,0,9999,0.100000,0,0,0.000000,3,0.000000,0.000000,0.146603,0,0,0,0,0,0,0
2,29999,13,20000,0,10000,0,9999,0.100000,0,0,0.000000,4,0.000000,0.000000,11.425340,0,0,0,0,0,0,0
2,29999,14,20000,32,0,1,9999,0.100000,0,0,0.000000,3,13.000000,0.000000,28.082622,0,0,0,0,0,0,0
2,29999,15,20000,15,10000,0,9999,0.100000,0,0,0.000000,3,0.000000,0.000000,1.359427,0,0,0,0,0,0,0
2,29999,16,20000,1,0,1,9999,0.100000,0,0,0.000000,4,7.000000,0.000000,16.374836,0,0,0,0,0,0,0
2,29999,17,20000,0,10000,0,9999,0.100000,0,0,0.000000,4,0.000000,0.000000,1.981900,0,0,0,0,0,0,0
2,29999,18,20000,1,0,1,9999,0.100000,0,0,0.000000,4,3.000000,0.000000,11.695797,0,0,0,0,0,0,0
2,29999,19,20000,9,10000,0,9999,0.100000,0,0,0.000000,4,0.000000,0.000000,1.328247,0,0,0,0,0,0,0
2,29999,20,20000,1,0,0,9999,0.100000,0,0,0.000000,4,0.000000,0.000000,0.096703,0,0,0,0,0,0,0
2,29999,21,20000,32,0,0,9999,0.100000,0,0,0.000000,3,0.000000,0.000000,0.269210,0,0,0,0,0,0,0
2,29999,22,20000,32,0,0,9999,0.100000,0,0,0.000000,3,0.000000,0.000000,1.716895,0,0,0,0,0,0,0
2,29999,23,20000,0,10000,0,9999,0.100000,0,0,0.000000,4,0.000000,0.000000,0.146497,0,0,0,0,0,0,0
2,29999,24,20000,0,10000,0,9999,0.100000,0,0,0.000000,4,0.000000,0.000000,0.078910,0,0,0,0,0,0,0
2,29999,25,20000,0,10000,1,9999,0.100000,0,0,0.000000,4,2.000000,0.000000,3.318177,0,0,0,0,0,0,0
2,29999,26,20000,9,10000,1,9999,0.100000,0,0,0.000000,4,2.000000,0.000000,9.780763,0,0,0,0,0,0,0
2,29999,27,20000,32,0,0,9999,0.100000,0,0,0.000000,4,0.000000,0.000000,0.074177,0,0,0,0,0,0,0
2,29999,28,20000,68,10000,1,9999,0.100000,0,0,0.000000,3,1.000000,0.000000,9.115104,0,0,0,0,0,0,0
2,29999,29,20000,32,0,0,9999,0.100000,0,0,0.000000,4,0.000000,0.000000,0.115647,0,0,0,0,0,0,0
2,29999,30,20000,9,10000,0,9999,0.100000,0,0,0.000000,4,0.000000,0.000000,0.607335,0,0,0,0,0,0,0
2,29999,31,20000,32,0,1,9999,0.100000,0,0,0.000000,4,2.000000,0.000000,8.882928,0,0,0,0,0,0,0
2,29999,32,20000,32,0,1,9999,0.100000,0,0,0.000000,4,3.000000,0.000000,3.447020,0,0,0,0,0,0,0
2,29999,33,20000,1,0,0,9999,0.100000,0,0,0.000000,4,0.000000,0.000000,0.080199,0,0,0,0,0,0,0
2,29999,34,20000,32,0,1,9999,0.100000,0,0,0.000000,4,1.000000,0.000000,9.313457,0,0,0,0,0,0,0
2,29999,35,20000,1,0,1,9999,0.100000,0,0,0.000000,3,1.000000,0.000000,8.951723,0,0,0,0,0,0,0
2,29999,36,20000,32,0,0,9999,0.100000,0,0,0.000000,3,0.000000,0.000000,0.347645,0,0,0,0,0,0,0
2,29999,37,20000,32,0,0,9999,0.100000,0,0,0.000000,4,0.000000,0.000000,0.944571,0,0,0,0,0,0,0
2,29999,38,20000,9,10000,0,9999,0.100000,0,0,0.000000,4,0.000000,0.000000,0.623024,0,0,0,0,0,0,0
2,29999,39,20000,1,0,0,9999,0.100000,0,0,0.000000,3,0.000000,0.000000,0.779595,0,0,0,0,0,0,0
2,29999,40,20000,4,10000,0,9999,0.100000,0,0,0.000000,3,0.000000,0.000000,0.234176,0,0,0,0,0,0,0
2,29999,41,20000,63,10000,1,9999,0.100000,0,0,0.000000,4,2.000000,0.000000,3.318662,0,0,0,0,0,0,0
2,29999,42,20000,0,10000,1,9999,0.100000,0,0,0.000000,4,3.000000,0.000000,3.545055,0,0,0,0,0,0,0
2,29999,43,20000,0,10000,1,9999,0.100000,0,0,0.000000,4,3.000000,0.000000,6.137596,0,0,0,0,0,0,0
2,29999,44,20000,9,10000,1,9999,0.100000,0,0,0.000000,4,2.000000,0.000000,11.679460,0,0,0,0,0,0,0
2,29999,45,20000,63,10000,0,9999,0.100000,0,0,0.000000,4,0.000000,0.000000,0.525418,0,0,0,0,0,0,0
2,29999,46,20000,1,0,0,9999,0.100000,0,0,0.000000,4,0.000000,0.000000,2.227469,0,0,0,0,0,0,0
2,29999,47,20000,0,10000,0,9999,0.100000,0,0,0.000000,4,0.000000,0.000000,0.303827,0,0,0,0,0,0,0
2,29999,48,20000,1,0,0,9999,0.100000,0,0,0.000000,3,0.000000,0.000000,2.131065,0,0,0,0,0,0,0
2,29999,49,20000,32,0,1,9999,0.100000,0,0,0.000000,4,2.000000,0.000000,5.340228,0,0,0,0,0,0,0
2,29999,50,20000,9,10000,0,9999,0.100000,0,0,0.000000,4,0.000000,0.000000,0.134881,0,0,0,0,0,0,0
2,29999,51,20000,1,0,0,9999,0.100000,0,0,0.000000,4,0.000000,0.000000,0.130777,0,0,0,0,0,0,0
2,29999,52,20000,0,10000,0,9999,0.100000,0,0,0.000000,4,0.000000,0.000000,0.406801,0,0,0,0,0,0,0
2,29999,53,20000,63,10000,0,9999,0.100000,0,0,0.000000,4,0.000000,0.000000,2.260329,0,0,0,0,0,0,0
2,29999,54,20000,1,0,0,9999,0.100000,0,0,0.000000,4,0.000000,0.000000,0.065633,0,0,0,0,0,0,0
2,29999,55,20000,32,0,0,9999,0.100000,0,0,0.000000,4,0.000000,0.000000,0.757497,0,0,0,0,0,0,0
2,29999,56,20000,1,0,0,9999,0.100000,0,0,0.000000,4,0.000000,0.000000,1.070077,0,0,0,0,0,0,0
2,29999,57,20000,1,0,0,9999,0.100000,0,0,0.000000,4,0.000000,0.000000,0.258414,0,0,0,0,0,0,0
2,29999,58,20000,0,10000,1,9999,0.100000,0,0,0.000000,4,9.000000,0.000000,17.489281,0,0,0,0,0,0,0
2,29999,59,20000,1,0,0,9999,0.100000,0,0,0.000000,4,0.000000,0.000000,4.022787,0,0,0,0,0,0,0
2,29999,60,20000,1,0,0,9999,0.100000,0,0,0.000000,4,0.000000,0.000000,0.085195,0,0,0,0,0,0,0
2,29999,61,20000,32,0,0,9999,0.100000,0,0,0.000000,4,0.000000,0.000000,2.025503,0,0,0,0,0,0,0
2,29999,62,20000,9,10000,0,9999,0.100000,0,0,0.000000,4,0.000000,0.000000,0.432170,0,0,0,0,0,0,0
2,29999,63,20000,32,0,1,9999,0.100000,0,0,0.000000,3,8.000000,0.000000,9.414784,0,0,0,0,0,0,0
2,29999,64,20000,1,0,0,9999,0.100000,0,0,0.000000,4,0.000000,0.000000,4.149524,0,0,0,0,0,0,0
2,29999,65,20000,9,10000,0,9999,0.100000,0,0,0.000000,4,0.000000,0.000000,0.210572,0,0,0,0,0,0,0
2,29999,66,20000,32,0,1,9999,0.100000,0,0,0.000000,4,1.000000,0.000000,2.948203,0,0,0,0,0,0,0
2,29999,67,20000,63,10000,0,9999,0.100000,0,0,0.000000,4,0.000000,0.000000,0.156259,0,0,0,0,0,0,0
2,29999,68,20000,1,0,0,9999,0.100000,0,0,0.000000,3,0.000000,0.000000,0.134969,0,0,0,0,0,0,0
2,29999,69,20000,9,10000,0,9999,0.100000,0,0,0.000000,4,0.000000,0.000000,0.683665,0,0,0,0,0,0,0
2,29999,70,20000,0,10000,0,9999,0.100000,0,0,0.000000,4,0.000000,0.000000,0.883709,0,0,0,0,0,0,0
2,29999,71,20000,1,0,0,9999,0.100000,0,0,0.000000,4,0.000000,0.000000,11.316540,0,0,0,0,0,0,0
2,29999,72,20000,9,10000,1,9999,0.100000,0,0,0.000000,4,3.000000,0.000000,5.864403,0,0,0,0,0,0,0
2,29999,73,20000,1,0,0,9999,0.100000,0,0,0.000000,4,0.000000,0.000000,0.289826,0,0,0,0,0,0,0
2,29999,74,20000,32,0,1,9999,0.100000,0,0,0.000000,4,2.000000,0.000000,11.678004,0,0,0,0,0,0,0
2,29999,75,20000,1,0,0,9999,0.100000,0,0,0.000000,4,0.000000,0.000000,0.468902,0,0,0,0,0,0,0
2,29999,76,20000,0,10000,0,9999,0.100000,0,0,0.000000,4,0.000000,0.000000,0.923020,0,0,0,0,0,0,0
2,29999,77,20000,9,10000,1,9999,0.100000,0,0,0.000000,4,2.000000,0.000000,9.806781,0,0,0,0,0,0,0
2,29999,78,20000,1,0,0,9999,0.100000,0,0,0.000000,4,0.000000,0.000000,0.310559,0,0,0,0,0,0,0
2,29999,79,20000,1,0,0,9999,0.100000,0,0,0.000000,4,0.000000,0.000000,0.069216,0,0,0,0,0,0,0
2,29999,80,20000,1,0,0,9999,0.100000,0,0,0.000000,4,0.000000,0.000000,0.908664,0,0,0,0,0,0,0
2,29999,81,20000,9,10000,0,9999,0.100000,0,0,0.000000,4,0.000000,0.000000,1.038213,0,0,0,0,0,0,0
2,29999,82,20000,63,10000,0,9999,0.100000,0,0,0.000000,4,0.000000,0.000000,0.130039,0,0,0,0,0,0,0
2,29999,83,20000,0,10000,0,9999,0.100000,0,0,0.000000,4,0.000000,0.000000,0.993345,0,0,0,0,0,0,0
2,29999,84,20000,9,10000,1,9999,0.100000,0,0,0.000000,4,5.000000,0.000000,12.241672,0,0,0,0,0,0,0
2,29999,85,20000,32,0,0,9999,0.100000,0,0,0.000000,4,0.000000,0.000000,0.202407,0,0,0,0,0,0,0
2,29999,86,20000,9,10000,0,9999,0.100000,0,0,0.000000,4,0.000000,0.000000,0.132702,0,0,0,0,0,0,0
2,29999,87,20000,32,0,0,9999,0.100000,0,0,0.000000,4,0.000000,0.000000,0.418918,0,0,0,0,0,0,0
2,29999,88,20000,1,0,0,9999,0.100000,0,0,0.000000,4,0.000000,0.000000,0.512619,0,0,0,0,0,0,0
2,29999,89,20000,1,0,0,9999,0.100000,0,0,0.000000,4,0.000000,0.000000,0.070280,0,0,0,0,0,0,0
2,29999,90,20000,9,10000,0,9999,0.100000,0,0,0.000000,4,0.000000,0.000000,0.104624,0,0,0,0,0,0,0
2,29999,91,20000,32,0,1,9999,0.100000,0,0,0.000000,4,5.000000,0.000000,27.097578,0,0,0,0,0,0,0
2,29999,92,20000,32,0,0,9999,0.100000,0,0,0.000000,4,0.000000,0.000000,0.183587,0,0,0,0,0,0,0
2,29999,93,20000,9,10000,0,9999,0.100000,0,0,0.000000,4,0.000000,0.000000,0.109334,0,0,0,0,0,0,0
2,29999,94,20000,1,0,0,9999,0.100000,0,0,0.000000,4,0.000000,0.000000,1.745020,0,0,0,0,0,0,0
2,29999,95,20000,1,0,1,9999,0.100000,0,0,0.000000,4,1.000000,0.000000,7.523981,0,0,0,0,0,0,0
2,29999,96,20000,9,10000,0,9999,0.100000,0,0,0.000000,4,0.000000,0.000000,0.237641,0,0,0,0,0,0,0
2,29999,97,20000,32,0,0,9999,0.100000,0,0,0.000000,4,0.000000,0.000000,0.080886,0,0,0,0,0,0,0
2,29999,98,20000,1,0,0,9999,0.100000,0,0,0.000000,4,0.000000,0.000000,0.057705,0,0,0,0,0,0,0
2,29999,99,20000,0,10000,1,9999,0.100000,0,0,0.000000,4,3.000000,0.000000,3.356987,0,0,0,0,0,0,0
3,39999,0,30000,32,0,0,9999,0.100000,0,0,0.000000,4,0.000000,0.000000,0.620895,0,0,0,0,0,0,0
3,39999,1,30000,32,20000,0,9999,0.100000,0,0,0.000000,4,0.000000,0.000000,25.919677,0,0,0,0,0,0,0
3,39999,2,30000,1,0,0,9999,0.100000,0,0,0.000000,4,0.000000,0.000000,1.065545,0,0,0,0,0,0,0
3,39999,3,30000,0,10000,0,9999,0.100000,0,0,0.000000,4,0.000000,0.000000,0.087329,0,0,0,0,0,0,0
3,39999,4,30000,1,0,0,9999,0.100000,0,0,0.000000,4,0.000000,0.000000,0.667096,0,0,0,0,0,0,0
3,39999,5,30000,0,10000,1,9999,0.135000,0,0,0.000000,4,1.000000,0.000000,16.470604,0,0,0,0,0,0,0
3,39999,6,30000,9,10000,0,9999,0.100000,0,0,0.000000,4,0.000000,0.000000,0.202067,0,0,0,0,0,0,0
3,39999,7,30000,1,0,0,9999,0.100000,0,0,0.000000,4,0.000000,0.000000,0.134439,0,0,0,0,0,0,0
3,39999,8,30000,1,0,0,9999,0.100000,0,0,0.000000,4,0.000000,0.000000,0.216851,0,0,0,0,0,0,0
3,39999,9,30000,32,20000,1,9999,0.100000,0,0,0.000000,4,1.000000,0.000000,2.402136,0,0,0,0,0,0,0
3,39999,10,30000,9,10000,0,9999,0.100000,0,0,0.000000,4,0.000000,0.000000,1.981670,0,0,0,0,0,0,0
3,39999,11,30000,32,20000,1,9999,0.100000,0,0,0.000000,4,1.000000,0.000000,2.145310,0,0,0,0,0,0,0
3,39999,12,30000,1,0,0,9999,0.100000,0,0,0.000000,4,0.000000,0.000000,0.128890,0,0,0,0,0,0,0
3,39999,13,30000,9,10000,1,9999,0.100000,0,0,0.000000,4,1.000000,0.000000,3.731178,0,0,0,0,0,0,0
3,39999,14,30000,1,0,0,9999,0.100000,0,0,0.000000,4,0.000000,0.000000,0.249925,0,0,0,0,0,0,0
3,39999,15,30000,9,10000,0,9999,0.100000,0,0,0.000000,4,0.000000,0.000000,1.852639,0,0,0,0,0,0,0
3,39999,16,30000,1,0,1,9999,0.135000,0,0,0.000000,4,3.000000,0.000000,5.037929,0,0,0,0,0,0,0
3,39999,17,30000,9,10000,1,9999,0.100000,0,0,0.000000,4,4.000000,0.000000,6.222443,0,0,0,0,0,0,0
3,39999,18,30000,1,0,1,9999,0.100000,0,0,0.000000,4,1.000000,0.000000,4.166588,0,0,0,0,0,0,0
3,39999,19,30000,32,20000,0,9999,0.100000,0,0,0.000000,4,0.000000,0.000000,1.112528,0,0,0,0,0,0,0
3,39999,20,30000,9,10000,0,9999,0.100000,0,0,0.000000,4,0.000000,0.000000,0.089671,0,0,0,0,0,0,0
3,39999,21,30000,32,20000,0,9999,0.100000,0,0,0.000000,4,0.000000,0.000000,0.184013,0,0,0,0,0,0,0
3,39999,22,30000,32,0,0,9999,0.100000,0,0,0.000000,4,0.000000,0.000000,2.445291,0,0,0,0,0,0,0
3,39999,23,30000,1,0,0,9999,0.100000,0,0,0.000000,4,0.000000,0.000000,0.143950,0,0,0,0,0,0,0
3,39999,24,30000,32,20000,0,9999,0.100000,0,0,0.000000,4,0.000000,0.000000,0.169970,0,0,0,0,0,0,0
3,39999,25,30000,9,10000,0,9999,0.100000,0,0,0.000000,4,0.000000,0.000000,0.967886,0,0,0,0,0,0,0
3,39999,26,30000,9,10000,1,9999,0.100000,0,0,0.000000,4,1.000000,0.000000,9.726926,0,0,0,0,0,0,0
3,39999,27,30000,32,20000,0,9999,0.100000,0,0,0.000000,4,0.000000,0.000000,0.076979,0,0,0,0,0,0,0
3,39999,28,30000,32,20000,0,9999,0.100000,0,0,0.000000,4,0.000000,0.000000,1.026453,0,0,0,0,0,0,0
3,39999,29,30000,0,10000,0,9999,0.100000,0,0,0.000000,4,0.000000,0.000000,0.062778,0,0,0,0,0,0,0
3,39999,30,30000,0,10000,1,9999,0.100000,0,0,0.000000,4,2.000000,0.000000,7.366169,0,0,0,0,0,0,0
3,39999,31,30000,1,0,1,9999,0.100000,0,0,0.000000,4,3.000000,0.000000,9.509637,0,0,0,0,0,0,0
3,39999,32,30000,32,20000,0,9999,0.100000,0,0,0.000000,4,0.000000,0.000000,11.728308,0,0,0,0,0,1,0
3,39999,33,30000,32,20000,0,9999,0.100000,0,0,0.000000,4,0.000000,0.000000,0.074520,0,0,0,0,0,0,0
3,39999,34,30000,32,20000,0,9999,0.100000,0,0,0.000000,4,0.000000,0.000000,7.560458,0,0,0,0,0,0,0
3,39999,35,30000,9,10000,0,9999,0.100000,0,0,0.000000,4,0.000000,0.000000,12.230381,0,0,0,0,0,0,0
3,39999,36,30000,9,10000,0,9999,0.100000,0,0,0.000000,4,0.000000,0.000000,0.357570,0,0,0,0,0,0,0
3,39999,37,30000,32,20000,0,9999,0.065000,0,0,0.000000,4,0.000000,0.000000,0.903212,0,0,0,0,0,0,0
3,39999,38,30000,1,0,0,9999,0.100000,0,0,0.000000,4,0.000000,0.000000,0.534700,0,0,0,0,0,0,0
3,39999,39,30000,1,0,0,9999,0.100000,0,0,0.000000,4,0.000000,0.000000,1.031916,0,0,0,0,0,0,0
3,39999,40,30000,0,10000,0,9999,0.100000,0,0,0.000000,4,0.000000,0.000000,0.247112,0,0,0,0,0,0,0
3,39999,41,30000,1,0,0,9999,0.100000,0,0,0.000000,4,0.000000,0.000000,0.091629,0,0,0,0,0,0,0
3,39999,42,30000,32,20000,0,9999,0.100000,0,0,0.000000,4,0.000000,0.000000,2.961751,0,0,0,0,0,1,0
3,39999,43,30000,9,20000,0,9999,0.100000,0,0,0.000000,4,0.000000,0.000000,0.312913,0,0,0,0,0,0,0
3,39999,44,30000,0,10000,1,9999,0.100000,0,0,0.000000,4,3.000000,0.000000,8.104081,0,0,0,0,0,0,0
3,39999,45,30000,0,10000,0,9999,0.100000,0,0,0.000000,4,0.000000,0.000000,0.477332,0,0,0,0,0,0,0
3,39999,46,30000,0,10000,0,9999,0.100000,0,0,0.000000,4,0.000000,0.000000,0.199277,0,0,0,0,0,0,0
3,39999,47,30000,0,10000,0,9999,0.100000,0,0,0.000000,4,0.000000,0.000000,1.161598,0,0,0,0,0,0,0
3,39999,48,30000,0,10000,0,9999,0.100000,0,0,0.000000,4,0.000000,0.000000,0.711832,0,0,0,0,0,0,0
3,39999,49,30000,1,0,0,9999,0.100000,0,0,0.000000,4,0.000000,0.000000,2.798780,0,0,0,0,0,0,0
3,39999,50,30000,0,10000,0,9999,0.100000,0,0,0.000000,4,0.000000,0.000000,0.105361,0,0,0,0,0,0,0
3,39999,51,30000,0,10000,0,9999,0.100000,0,0,0.000000,4,0.000000,0.000000,0.267377,0,0,0,0,0,0,0
3,39999,52,30000,9,20000,0,9999,0.100000,0,0,0.000000,4,0.000000,0.000000,0.720506,0,0,0,0,0,0,0
3,39999,53,30000,9,10000,0,9999,0.100000,0,0,0.000000,4,0.000000,0.000000,2.369760,0,0,0,0,0,0,0
3,39999,54,30000,1,0,0,9999,0.100000,0,0,0.000000,4,0.000000,0.000000,0.109948,0,0,0,0,0,0,0
3,39999,55,30000,0,10000,0,9999,0.100000,0,0,0.000000,4,0.000000,0.000000,0.822382,0,0,0,0,0,0,0
3,39999,56,30000,0,10000,1,9999,0.100000,0,0,0.000000,4,1.000000,0.000000,4.110412,0,0,0,0,0,0,0
3,39999,57,30000,0,10000,0,9999,0.100000,0,0,0.000000,4,0.000000,0.000000,0.080653,0,0,0,0,0,0,0
3,39999,58,30000,1,0,0,9999,0.100000,0,0,0.000000,4,0.000000,0.000000,1.614923,0,0,0,0,0,0,0
3,39999,59,30000,32,20000,0,9999,0.100000,0,0,0.000000,4,0.000000,0.000000,0.202533,0,0,0,0,0,0,0
3,39999,60,30000,0,10000,0,9999,0.100000,0,0,0.000000,4,0.000000,0.000000,0.090872,0,0,0,0,0,0,0
3,39999,61,30000,32,20000,1,9999,0.100000,0,0,0.000000,4,5.000000,0.000000,11.144300,0,0,0,0,0,0,0
3,39999,62,30000,0,10000,0,9999,0.100000,0,0,0.000000,4,0.000000,0.000000,0.648966,0,0,0,0,0,0,0
3,39999,63,30000,32,20000,1,9999,0.100000,0,0,0.000000,4,1.000000,0.000000,2.078839,0,0,0,0,0,0,0
3,39999,64,30000,9,10000,0,9999,0.100000,0,0,0.000000,4,0.000000,0.000000,0.483879,0,0,0,0,0,0,0
3,39999,65,30000,0,10000,1,9999,0.100000,0,0,0.000000,4,1.000000,0.000000,2.110278,0,0,0,0,0,0,0
3,39999,66,30000,1,0,0,9999,0.100000,0,0,0.000000,4,0.000000,0.000000,1.258468,0,0,0,0,0,0,0
3,39999,67,30000,9,10000,0,9999,0.100000,0,0,0.000000,4,0.000000,0.000000,0.076767,0,0,0,0,0,0,0
3,39999,68,30000,1,0,0,9999,0.100000,0,0,0.000000,4,0.000000,0.000000,0.081607,0,0,0,0,0,0,0
3,39999,69,30000,32,20000,1,9999,0.100000,0,0,0.000000,4,1.000000,0.000000,1.716001,0,0,0,0,0,0,0
3,39999,70,30000,9,10000,0,9999,0.100000,0,0,0.000000,4,0.000000,0.000000,0.101147,0,0,0,0,0,0,0
3,39999,71,30000,32,20000,1,9999,0.100000,0,0,0.000000,4,3.000000,0.000000,11.065014,0,0,0,0,0,0,0
3,39999,72,30000,1,0,1,9999,0.100000,0,0,0.000000,4,1.000000,0.000000,6.796122,0,0,0,0,0,1,0
3,39999,73,30000,1,0,1,9999,0.100000,0,0,0.000000,4,6.000000,0.000000,13.799383,0,0,0,0,0,0,0
3,39999,74,30000,9,10000,1,9999,0.100000,0,0,0.000000,4,1.000000,0.000000,5.860724,0,0,0,0,0,0,0
3,39999,75,30000,9,10000,0,9999,0.100000,0,0,0.000000,4,0.000000,0.000000,0.401646,0,0,0,0,0,0,0
3,39999,76,30000,0,10000,1,9999,0.100000,0,0,0.000000,4,6.000000,0.000000,28.170960,0,0,0,0,0,0,0
3,39999,77,30000,1,0,1,9999,0.100000,0,0,0.000000,4,1.000000,0.000000,11.835401,0,0,0,0,0,0,0
3,39999,78,30000,1,0,0,9999,0.100000,0,0,0.000000,4,0.000000,0.000000,0.129110,0,0,0,0,0,0,0
3,39999,79,30000,32,20000,0,9999,0.100000,0,0,0.000000,4,0.000000,0.000000,0.070207,0,0,0,0,0,0,0
3,39999,80,30000,0,10000,1,9999,0.100000,0,0,0.000000,4,1.000000,0.000000,4.405516,0,0,0,0,0,0,0
3,39999,81,30000,32,20000,1,9999,0.100000,0,0,0.000000,4,1.000000,0.000000,2.407666,0,0,0,0,0,0,0
3,39999,82,30000,0,10000,0,9999,0.100000,0,0,0.000000,4,0.000000,0.000000,0.280864,0,0,0,0,0,0,0
3,39999,83,30000,9,10000,0,9999,0.100000,0,0,0.000000,4,0.000000,0.000000,1.003434,0,0,0,0,0,0,0
3,39999,84,30000,32,20000,0,9999,0.100000,0,0,0.000000,4,0.000000,0.000000,0.474115,0,0,0,0,0,0,0
3,39999,85,30000,0,10000,1,9999,0.100000,0,0,0.000000,4,2.000000,0.000000,5.277641,0,0,0,0,0,0,0
3,39999,86,30000,9,10000,0,9999,0.100000,0,0,0.000000,4,0.000000,0.000000,0.119528,0,0,0,0,0,0,0
3,39999,87,30000,32,20000,0,9999,0.100000,0,0,0.000000,4,0.000000,0.000000,0.661240,0,0,0,0,0,0,0
3,39999,88,30000,1,0,0,9999,0.100000,0,0,0.000000,4,0.000000,0.000000,1.062580,0,0,0,0,0,0,0
3,39999,89,30000,0,10000,0,9999,0.100000,0,0,0.000000,4,0.000000,0.000000,0.094406,0,0,0,0,0,0,0
3,39999,90,30000,1,0,0,9999,0.100000,0,0,0.000000,4,0.000000,0.000000,0.104233,0,0,0,0,0,0,0
3,39999,91,30000,1,0,0,9999,0.100000,0,0,0.000000,4,0.000000,0.000000,1.723957,0,0,0,0,0,0,0
3,39999,92,30000,1,0,0,9999,0.100000,0,0,0.000000,4,0.000000,0.000000,0.457497,0,0,0,0,0,0,0
3,39999,93,30000,32,20000,0,9999,0.100000,0,0,0.000000,4,0.000000,0.000000,0.107960,0,0,0,0,0,0,0
3,39999,94,30000,1,0,0,9999,0.100000,0,0,0.000000,4,0.000000,0.000000,0.161984,0,0,0,0,0,0,0
3,39999,95,30000,9,20000,0,9999,0.100000,0,0,0.000000,4,0.000000,0.000000,0.591866,0,0,0,0,0,0,0
3,39999,96,30000,9,10000,0,9999,0.100000,0,0,0.000000,4,0.000000,0.000000,0.209252,0,0,0,0,0,0,0
3,39999,97,30000,9,10000,0,9999,0.100000,0,0,0.000000,4,0.000000,0.000000,0.348196,0,0,0,0,0,0,0
3,39999,98,30000,32,20000,0,9999,0.100000,0,0,0.000000,4,0.000000,0.000000,0.058531,0,0,0,0,0,0,0
3,39999,99,30000,0,10000,0,9999,0.100000,0,0,0.000000,4,0.000000,0.000000,3.460278,0,0,0,0,0,1,0
4,49999,0,40000,0,10000,0,9999,0.100000,0,0,0.000000,4,0.000000,0.000000,1.229682,0,0,0,0,0,0,0
4,49999,1,40000,1,0,0,9999,0.100000,0,0,0.000000,4,0.000000,0.000000,25.123466,0,0,0,0,0,0,0
4,49999,2,40000,32,20000,0,9999,0.100000,0,0,0.000000,4,0.000000,0.000000,0.522747,0,0,0,0,0,0,0
4,49999,3,40000,9,20000,0,9999,0.100000,0,0,0.000000,4,0.000000,0.000000,0.086912,0,0,0,0,0,0,0
4,49999,4,40000,1,0,0,9999,0.100000,0,0,0.000000,4,0.000000,0.000000,0.714965,0,0,0,0,0,0,0
4,49999,5,40000,1,0,1,9999,0.100000,0,0,0.000000,4,1.000000,0.000000,1.932750,0,0,0,0,0,0,0
4,49999,6,40000,1,0,0,9999,0.100000,0,0,0.000000,4,0.000000,0.000000,0.233312,0,0,0,0,0,0,0
4,49999,7,40000,80,30000,0,9999,0.100000,0,0,0.000000,4,0.000000,0.000000,0.127366,0,0,0,0,0,0,0
4,49999,8,40000,32,20000,0,9999,0.100000,0,0,0.000000,4,0.000000,0.000000,0.215215,0,0,0,0,0,0,0
4,49999,9,40000,9,20000,0,9999,0.100000,0,0,0.000000,4,0.000000,0.000000,0.760220,0,0,0,0,0,0,0
4,49999,10,40000,1,0,1,9999,0.100000,0,0,0.000000,4,2.000000,0.000000,2.576432,0,0,0,0,0,0,0
4,49999,11,40000,0,10000,1,9999,0.100000,0,0,0.000000,4,1.000000,0.000000,2.730455,0,0,0,0,0,0,0
4,49999,12,40000,80,30000,0,9999,0.100000,0,0,0.000000,4,0.000000,0.000000,0.123091,0,0,0,0,0,0,0
4,49999,13,40000,9,20000,0,9999,0.100000,0,0,0.000000,4,0.000000,0.000000,0.088635,0,0,0,0,0,0,0
4,49999,14,40000,0,10000,0,9999,0.100000,0,0,0.000000,4,0.000000,0.000000,5.535815,0,0,0,0,0,0,0
4,49999,15,40000,9,20000,0,9999,0.100000,0,0,0.000000,4,0.000000,0.000000,1.569854,0,0,0,0,0,0,0
4,49999,16,40000,1,0,0,9999,0.100000,0,0,0.000000,4,0.000000,0.000000,0.356547,0,0,0,0,0,0,0
4,49999,17,40000,1,0,0,9999,0.100000,0,0,0.000000,4,0.000000,0.000000,0.731666,0,0,0,0,0,0,0
4,49999,18,40000,0,10000,1,9999,0.100000,0,0,0.000000,4,1.000000,0.000000,5.402135,0,0,0,0,0,0,0
4,49999,19,40000,1,0,0,9999,0.100000,0,0,0.000000,4,0.000000,0.000000,2.457616,0,0,0,0,0,0,0
4,49999,20,40000,1,0,0,9999,0.100000,0,0,0.000000,4,0.000000,0.000000,0.092684,0,0,0,0,0,0,0
4,49999,21,40000,32,20000,0,9999,0.100000,0,0,0.000000,4,0.000000,0.000000,0.180369,0,0,0,0,0,0,0
4,49999,22,40000,0,10000,1,9999,0.100000,0,0,0.000000,4,1.000000,0.000000,3.615022,0,0,0,0,0,0,0
4,49999,23,40000,0,10000,0,9999,0.100000,0,0,0.000000,4,0.000000,0.000000,0.159720,0,0,0,0,0,0,0
4,49999,24,40000,80,30000,0,9999,0.100000,0,0,0.000000,4,0.000000,0.000000,0.261875,0,0,0,0,0,0,0
4,49999,25,40000,32,20000,0,9999,0.100000,0,0,0.000000,4,0.000000,0.000000,1.010797,0,0,0,0,0,0,0
4,49999,26,40000,0,10000,1,9999,0.100000,0,0,0.000000,4,1.000000,0.000000,10.690679,0,0,0,0,0,0,0
4,49999,27,40000,0,10000,0,9999,0.100000,0,0,0.000000,4,0.000000,0.000000,0.078026,0,0,0,0,0,0,0
4,49999,28,40000,9,20000,0,9999,0.100000,0,0,0.000000,4,0.000000,0.000000,1.172291,0,0,0,0,0,0,0
4,49999,29,40000,1,0,0,9999,0.100000,0,0,0.000000,4,0.000000,0.000000,0.065594,0,0,0,0,0,0,0
4,49999,30,40000,1,0,0,9999,0.100000,0,0,0.000000,4,0.000000,0.000000,2.194337,0,0,0,0,0,0,0
4,49999,31,40000,9,20000,0,9999,0.100000,0,0,0.000000,4,0.000000,0.000000,11.091195,0,0,0,0,0,0,0
4,49999,32,40000,80,30000,0,9999,0.100000,0,0,0.000000,4,0.000000,0.000000,3.601959,0,0,0,0,0,0,0
4,49999,33,40000,1,0,0,9999,0.100000,0,0,0.000000,4,0.000000,0.000000,0.070514,0,0,0,0,0,0,0
4,49999,34,40000,80,30000,1,9999,0.100000,0,0,0.000000,4,2.000000,0.000000,9.704808,0,0,0,0,0,0,0
4,49999,35,40000,1,0,0,9999,0.100000,0,0,0.000000,4,0.000000,0.000000,12.344339,0,0,0,0,0,0,0
4,49999,36,40000,9,20000,0,9999,0.100000,0,0,0.000000,4,0.000000,0.000000,0.459005,0,0,0,0,0,0,0
4,49999,37,40000,32,20000,0,9999,0.100000,0,0,0.000000,4,0.000000,0.000000,0.824306,0,0,0,0,0,0,0
4,49999,38,40000,9,20000,1,9999,0.100000,0,0,0.000000,4,5.000000,0.000000,11.870752,0,0,0,0,0,0,0
4,49999,39,40000,1,0,0,9999,0.100000,0,0,0.000000,4,0.000000,0.000000,0.483313,0,0,0,0,0,0,0
4,49999,40,40000,32,20000,0,9999,0.100000,0,0,0.000000,4,0.000000,0.000000,0.229257,0,0,0,0,0,0,0
4,49999,41,40000,80,30000,0,9999,0.100000,0,0,0.000000,4,0.000000,0.000000,0.090540,0,0,0,0,0,0,0
4,49999,42,40000,32,20000,0,9999,0.100000,0,0,0.000000,4,0.000000,0.000000,12.759314,0,0,0,0,0,0,0
4,49999,43,40000,1,0,0,9999,0.100000,0,0,0.000000,4,0.000000,0.000000,0.927695,0,0,0,0,0,0,0
4,49999,44,40000,80,30000,0,9999,0.100000,0,0,0.000000,4,0.000000,0.000000,2.233342,0,0,0,0,0,0,0
4,49999,45,40000,0,10000,0,9999,0.100000,0,0,0.000000,4,0.000000,0.000000,0.437158,0,0,0,0,0,0,0
4,49999,46,40000,0,10000,0,9999,0.100000,0,0,0.000000,4,0.000000,0.000000,0.147830,0,0,0,0,0,0,0
4,49999,47,40000,80,30000,0,9999,0.100000,0,0,0.000000,4,0.000000,0.000000,1.161413,0,0,0,0,0,0,0
4,49999,48,40000,80,30000,0,9999,0.100000,0,0,0.000000,4,0.000000,0.000000,0.767924,0,0,0,0,0,0,0
4,49999,49,40000,9,20000,0,9999,0.100000,0,0,0.000000,4,0.000000,0.000000,4.062583,0,0,0,0,0,0,0
4,49999,50,40000,80,30000,0,9999,0.100000,0,0,0.000000,4,0.000000,0.000000,0.107416,0,0,0,0,0,0,0
4,49999,51,40000,1,0,0,9999,0.100000,0,0,0.000000,4,0.000000,0.000000,0.269436,0,0,0,0,0,0,0
4,49999,52,40000,32,20000,0,9999,0.100000,0,0,0.000000,4,0.000000,0.000000,0.976570,0,0,0,0,0,0,0
4,49999,53,40000,9,20000,0,9999,0.100000,0,0,0.000000,4,0.000000,0.000000,0.140175,0,0,0,0,0,0,0
4,49999,54,40000,0,10000,0,9999,0.100000,0,0,0.000000,4,0.000000,0.000000,0.083794,0,0,0,0,0,0,0
4,49999,55,40000,9,20000,0,9999,0.100000,0,0,0.000000,4,0.000000,0.000000,2.288054,0,0,0,0,0,0,0
4,49999,56,40000,32,20000,1,9999,0.100000,0,0,0.000000,4,1.000000,0.000000,3.478538,0,0,0,0,0,0,0
4,49999,57,40000,0,10000,0,9999,0.100000,0,0,0.000000,4,0.000000,0.000000,0.075631,0,0,0,0,0,0,0
4,49999,58,40000,0,10000,0,9999,0.100000,0,0,0.000000,4,0.000000,0.000000,1.818896,0,0,0,0,0,0,0
4,49999,59,40000,0,10000,0,9999,0.100000,0,0,0.000000,4,0.000000,0.000000,0.206116,0,0,0,0,0,0,0
4,49999,60,40000,0,10000,0,9999,0.100000,0,0,0.000000,4,0.000000,0.000000,0.086542,0,0,0,0,0,0,0
4,49999,61,40000,1,0,0,9999,0.100000,0,0,0.000000,4,0.000000,0.000000,1.715521,0,0,0,0,0,0,0
4,49999,62,40000,9,20000,0,9999,0.100000,0,0,0.000000,4,0.000000,0.000000,0.283725,0,0,0,0,0,0,0
4,49999,63,40000,1,0,1,9999,0.100000,0,0,0.000000,4,1.000000,0.000000,2.432277,0,0,0,0,0,0,0
4,49999,64,40000,1,0,0,9999,0.100000,0,0,0.000000,4,0.000000,0.000000,0.489438,0,0,0,0,0,0,0
4,49999,65,40000,0,10000,1,9999,0.100000,0,0,0.000000,4,1.000000,0.000000,1.363988,0,0,0,0,0,0,0
4,49999,66,40000,0,10000,0,9999,0.100000,0,0,0.000000,4,0.000000,0.000000,0.253194,0,0,0,0,0,0,0
4,49999,67,40000,1,0,0,9999,0.100000,0,0,0.000000,4,0.000000,0.000000,0.079037,0,0,0,0,0,0,0
4,49999,68,40000,9,20000,0,9999,0.100000,0,0,0.000000,4,0.000000,0.000000,0.078618,0,0,0,0,0,0,0
4,49999,69,40000,1,0,0,9999,0.100000,0,0,0.000000,4,0.000000,0.000000,0.248470,0,0,0,0,0,0,0
4,49999,70,40000,0,10000,0,9999,0.100000,0,0,0.000000,4,0.000000,0.000000,0.100051,0,0,0,0,0,0,0
4,49999,71,40000,80,30000,1,9999,0.100000,0,0,0.000000,4,2.000000,0.000000,13.232134,0,0,0,0,0,0,0
4,49999,72,40000,1,0,0,9999,0.100000,0,0,0.000000,4,0.000000,0.000000,7.558919,0,0,0,0,0,0,0
4,49999,73,40000,0,10000,0,9999,0.100000,0,0,0.000000,4,0.000000,0.000000,0.899532,0,0,0,0,0,0,0
4,49999,74,40000,9,20000,1,9999,0.100000,0,0,0.000000,4,8.000000,0.000000,10.574518,0,0,0,0,0,0,0
4,49999,75,40000,1,0,0,9999,0.100000,0,0,0.000000,4,0.000000,0.000000,0.435976,0,0,0,0,0,0,0
4,49999,76,40000,80,30000,0,9999,0.100000,0,0,0.000000,4,0.000000,0.000000,0.780275,0,0,0,0,0,0,0
4,49999,77,40000,0,10000,1,9999,0.100000,0,0,0.000000,4,3.000000,0.000000,7.663261,0,0,0,0,0,0,0
4,49999,78,40000,0,10000,0,9999,0.100000,0,0,0.000000,4,0.000000,0.000000,0.165796,0,0,0,0,0,0,0
4,49999,79,40000,0,10000,0,9999,0.100000,0,0,0.000000,4,0.000000,0.000000,0.068714,0,0,0,0,0,0,0
4,49999,80,40000,9,20000,0,9999,0.100000,0,0,0.000000,4,0.000000,0.000000,1.102390,0,0,0,0,0,0,0
4,49999,81,40000,1,0,1,9999,0.100000,0,0,0.000000,4,1.000000,0.000000,4.189758,0,0,0,0,0,0,0
4,49999,82,40000,9,20000,0,9999,0.100000,0,0,0.000000,4,0.000000,0.000000,0.113218,0,0,0,0,0,0,0
4,49999,83,40000,0,10000,0,9999,0.100000,0,0,0.000000,4,0.000000,0.000000,0.562373,0,0,0,0,0,0,0
4,49999,84,40000,80,30000,0,9999,0.100000,0,0,0.000000,4,0.000000,0.000000,0.260916,0,0,0,0,0,0,0
4,49999,85,40000,0,10000,0,9999,0.100000,0,0,0.000000,4,0.000000,0.000000,0.105004,0,0,0,0,0,0,0
4,49999,86,40000,9,20000,0,9999,0.100000,0,0,0.000000,4,0.000000,0.000000,0.169501,0,0,0,0,0,0,0
4,49999,87,40000,80,30000,0,9999,0.100000,0,0,0.000000,4,0.000000,0.000000,0.301414,0,0,0,0,0,0,0
4,49999,88,40000,80,30000,0,9999,0.100000,0,0,0.000000,4,0.000000,0.000000,0.518985,0,0,0,0,0,0,0
4,49999,89,40000,0,10000,0,9999,0.100000,0,0,0.000000,4,0.000000,0.000000,0.085113,0,0,0,0,0,0,0
4,49999,90,40000,80,30000,0,9999,0.100000,0,0,0.000000,4,0.000000,0.000000,0.137082,0,0,0,0,0,0,0
4,49999,91,40000,1,0,0,9999,0.100000,0,0,0.000000,4,0.000000,0.000000,0.316429,0,0,0,0,0,0,0
4,49999,92,40000,0,10000,0,9999,0.100000,0,0,0.000000,4,0.000000,0.000000,0.627252,0,0,0,0,0,0,0
4,49999,93,40000,1,0,0,9999,0.100000,0,0,0.000000,4,0.000000,0.000000,0.107174,0,0,0,0,0,0,0
4,49999,94,40000,9,20000,0,9999,0.100000,0,0,0.000000,4,0.000000,0.000000,0.164024,0,0,0,0,0,0,0
4,49999,95,40000,80,30000,0,9999,0.100000,0,0,0.000000,4,0.000000,0.000000,1.172583,0,0,0,0,0,0,0
4,49999,96,40000,80,30000,0,9999,0.100000,0,0,0.000000,4,0.000000,0.000000,0.226706,0,0,0,0,0,0,0
4,49999,97,40000,32,20000,0,9999,0.100000,0,0,0.000000,4,0.000000,0.000000,0.096136,0,0,0,0,0,0,0
4,49999,98,40000,1,0,1,9999,0.100000,0,0,0.000000,4,6.000000,0.000000,13.437088,0,0,0,0,0,0,0
4,49999,99,40000,32,20000,0,9999,0.100000,0,0,0.000000,4,0.000000,0.000000,0.200359,0,0,0,0,0,0,0
5,59999,0,50000,9,20000,0,9999,0.100000,0,0,0.000000,4,0.000000,0.000000,0.798125,0,0,0,0,0,0,0
5,59999,1,50000,0,10000,0,9999,0.100000,0,0,0.000000,4,0.000000,0.000000,15.869208,0,0,0,0,0,0,0
5,59999,2,50000,1,0,0,9999,0.100000,0,0,0.000000,4,0.000000,0.000000,0.668806,0,0,0,0,0,0,0
5,59999,3,50000,80,30000,0,9999,0.100000,0,0,0.000000,4,0.000000,0.000000,0.126411,0,0,0,0,0,0,0
5,59999,4,50000,0,10000,0,9999,0.100000,0,0,0.000000,4,0.000000,0.000000,0.691397,0,0,0,0,0,0,0
5,59999,5,50000,9,40000,1,9999,0.100000,0,0,0.000000,4,1.000000,0.000000,1.796392,0,0,0,0,0,0,0
5,59999,6,50000,80,30000,0,9999,0.100000,0,0,0.000000,4,0.000000,0.000000,0.400739,0,0,0,0,0,0,0
5,59999,7,50000,9,40000,0,9999,0.100000,0,0,0.000000,4,0.000000,0.000000,0.127861,0,0,0,0,0,0,0
5,59999,8,50000,80,30000,0,9999,0.100000,0,0,0.000000,4,0.000000,0.000000,0.383394,0,0,0,0,0,0,0
5,59999,9,50000,80,30000,0,9999,0.100000,0,0,0.000000,4,0.000000,0.000000,1.159263,0,0,0,0,0,0,0
5,59999,10,50000,80,30000,1,9999,0.100000,0,0,0.000000,4,1.000000,0.000000,2.828899,0,0,0,0,0,0,0
5,59999,11,50000,1,0,1,9999,0.100000,0,0,0.000000,4,1.000000,0.000000,9.610119,0,0,0,0,0,0,0
5,59999,12,50000,1,0,0,9999,0.100000,0,0,0.000000,4,0.000000,0.000000,0.120564,0,0,0,0,0,0,0
5,59999,13,50000,80,30000,0,9999,0.100000,0,0,0.000000,4,0.000000,0.000000,0.087392,0,0,0,0,0,0,0
5,59999,14,50000,9,40000,0,9999,0.100000,0,0,0.000000,4,0.000000,0.000000,5.908568,0,0,0,0,0,0,0
5,59999,15,50000,80,30000,0,9999,0.100000,0,0,0.000000,4,0.000000,0.000000,0.552644,0,0,0,0,0,0,0
5,59999,16,50000,80,30000,0,9999,0.100000,0,0,0.000000,4,0.000000,0.000000,0.373967,0,0,0,0,0,0,0
5,59999,17,50000,9,20000,0,9999,0.100000,0,0,0.000000,4,0.000000,0.000000,0.673625,0,0,0,0,0,0,0
5,59999,18,50000,9,20000,0,9999,0.100000,0,0,0.000000,4,0.000000,0.000000,0.814912,0,0,0,0,0,0,0
5,59999,19,50000,0,10000,0,9999,0.100000,0,0,0.000000,4,0.000000,0.000000,0.611237,0,0,0,0,0,0,0
5,59999,20,50000,0,10000,0,9999,0.100000,0,0,0.000000,4,0.000000,0.000000,0.089891,0,0,0,0,0,0,0
5,59999,21,50000,0,10000,0,9999,0.100000,0,0,0.000000,4,0.000000,0.000000,0.182271,0,0,0,0,0,0,0
5,59999,22,50000,0,10000,0,9999,0.100000,0,0,0.000000,4,0.000000,0.000000,0.241833,0,0,0,0,0,0,0
5,59999,23,50000,1,0,0,9999,0.100000,0,0,0.000000,4,0.000000,0.000000,0.171261,0,0,0,0,0,0,0
5,59999,24,50000,80,30000,0,9999,0.100000,0,0,0.000000,4,0.000000,0.000000,6.045591,0,0,0,0,0,0,0
5,59999,25,50000,80,30000,1,9999,0.100000,0,0,0.000000,4,9.000000,0.000000,18.881349,0,0,0,0,0,0,0
5,59999,26,50000,1,0,0,9999,0.100000,0,0,0.000000,4,0.000000,0.000000,11.349404,0,0,0,0,0,0,0
5,59999,27,50000,80,30000,0,9999,0.100000,0,0,0.000000,4,0.000000,0.000000,0.075441,0,0,0,0,0,0,0
5,59999,28,50000,80,30000,0,9999,0.100000,0,0,0.000000,4,0.000000,0.000000,1.363812,0,0,0,0,0,0,0
5,59999,29,50000,80,30000,0,9999,0.135000,0,0,0.000000,4,0.000000,0.000000,0.085175,0,0,0,0,0,0,0
5,59999,30,50000,9,20000,0,9999,0.100000,0,0,0.000000,4,0.000000,0.000000,0.766079,0,0,0,0,0,0,0
5,59999,31,50000,9,40000,0,9999,0.100000,0,0,0.000000,4,0.000000,0.000000,10.582854,0,0,0,0,0,0,0
5,59999,32,50000,9,40000,0,9999,0.100000,0,0,0.000000,4,0.000000,0.000000,20.186487,0,0,0,0,0,0,0
5,59999,33,50000,1,0,0,9999,0.100000,0,0,0.000000,4,0.000000,0.000000,0.068222,0,0,0,0,0,0,0
5,59999,34,50000,9,40000,1,9999,0.100000,0,0,0.000000,4,1.000000,0.000000,11.120956,0,0,0,0,0,0,0
5,59999,35,50000,80,30000,1,9999,0.100000,0,0,0.000000,4,4.000000,0.000000,7.732733,0,0,0,0,0,0,0
5,59999,36,50000,9,20000,0,9999,0.100000,0,0,0.000000,4,0.000000,0.000000,0.476136,0,0,0,0,0,0,0
5,59999,37,50000,80,30000,0,9999,0.100000,0,0,0.000000,4,0.000000,0.000000,0.703464,0,0,0,0,0,0,0
5,59999,38,50000,80,30000,0,9999,0.100000,0,0,0.000000,4,0.000000,0.000000,0.655293,0,0,0,0,0,0,0
5,59999,39,50000,1,0,0,9999,0.100000,0,0,0.000000,4,0.000000,0.000000,0.754636,0,0,0,0,0,0,0
5,59999,40,50000,80,30000,0,9999,0.065000,0,0,0.000000,4,0.000000,0.000000,0.224654,0,0,0,0,0,0,0
5,59999,41,50000,80,30000,0,9999,0.100000,0,0,0.000000,4,0.000000,0.000000,0.093758,0,0,0,0,0,0,0
5,59999,42,50000,9,40000,0,9999,0.135000,0,0,0.000000,4,0.000000,0.000000,5.998675,0,0,0,0,0,0,0
5,59999,43,50000,80,30000,0,9999,0.100000,0,0,0.000000,4,0.000000,0.000000,0.426691,0,0,0,0,0,0,0
5,59999,44,50000,1,0,0,9999,0.100000,0,0,0.000000,4,0.000000,0.000000,2.175498,0,0,0,0,0,0,0
5,59999,45,50000,9,40000,0,9999,0.100000,0,0,0.000000,4,0.000000,0.000000,0.408666,0,0,0,0,0,0,0
5,59999,46,50000,0,10000,0,9999,0.100000,0,0,0.000000,4,0.000000,0.000000,0.134909,0,0,0,0,0,0,0
5,59999,47,50000,9,40000,1,9999,0.100000,0,0,0.000000,4,2.000000,0.000000,8.796488,0,0,0,0,0,0,0
5,59999,48,50000,9,20000,0,9999,0.100000,0,0,0.000000,4,0.000000,0.000000,0.805153,0,0,0,0,0,0,0
5,59999,49,50000,0,10000,0,9999,0.100000,0,0,0.000000,4,0.000000,0.000000,4.047314,0,0,0,0,0,0,0
5,59999,50,50000,80,30000,0,9999,0.100000,0,0,0.000000,4,0.000000,0.000000,0.107378,0,0,0,0,0,0,0
5,59999,51,50000,80,30000,0,9999,0.100000,0,0,0.000000,4,0.000000,0.000000,0.328251,0,0,0,0,0,0,0
5,59999,52,50000,0,10000,0,9999,0.100000,0,0,0.000000,4,0.000000,0.000000,0.934805,0,0,0,0,0,0,0
5,59999,53,50000,80,30000,0,9999,0.100000,0,0,0.000000,4,0.000000,0.000000,0.131944,0,0,0,0,0,0,0
5,59999,54,50000,9,40000,0,9999,0.100000,0,0,0.000000,4,0.000000,0.000000,0.083370,0,0,0,0,0,0,0
5,59999,55,50000,0,10000,0,9999,0.100000,0,0,0.000000,4,0.000000,0.000000,0.963962,0,0,0,0,0,0,0
5,59999,56,50000,9,40000,0,9999,0.100000,0,0,0.000000,4,0.000000,0.000000,1.256547,0,0,0,0,0,0,0
5,59999,57,50000,1,0,0,9999,0.100000,0,0,0.000000,4,0.000000,0.000000,0.116929,0,0,0,0,0,0,0
5,59999,58,50000,1,0,1,9999,0.100000,0,0,0.000000,4,1.000000,0.000000,5.330327,0,0,0,0,0,0,0
5,59999,59,50000,9,40000,0,9999,0.100000,0,0,0.000000,4,0.000000,0.000000,0.081437,0,0,0,0,0,0,0
5,59999,60,50000,1,0,0,9999,0.100000,0,0,0.000000,4,0.000000,0.000000,0.083965,0,0,0,0,0,0,0
5,59999,61,50000,80,30000,0,9999,0.100000,0,0,0.000000,4,0.000000,0.000000,1.296472,0,0,0,0,0,0,0
5,59999,62,50000,1,0,0,9999,0.100000,0,0,0.000000,4,0.000000,0.000000,0.517321,0,0,0,0,0,0,0
5,59999,63,50000,80,30000,1,9999,0.100000,0,0,0.000000,4,1.000000,0.000000,11.978915,0,0,0,0,0,0,0
5,59999,64,50000,0,10000,0,9999,0.100000,0,0,0.000000,4,0.000000,0.000000,0.453999,0,0,0,0,0,0,0
5,59999,65,50000,9,40000,0,9999,0.100000,0,0,0.000000,4,0.000000,0.000000,0.827081,0,0,0,0,0,0,0
5,59999,66,50000,80,30000,0,9999,0.100000,0,0,0.000000,4,0.000000,0.000000,0.242851,0,0,0,0,0,0,0
5,59999,67,50000,80,30000,0,9999,0.100000,0,0,0.000000,4,0.000000,0.000000,0.080318,0,0,0,0,0,0,0
5,59999,68,50000,80,30000,0,9999,0.100000,0,0,0.000000,4,0.000000,0.000000,0.377015,0,0,0,0,0,0,0
5,59999,69,50000,1,0,0,9999,0.100000,0,0,0.000000,4,0.000000,0.000000,0.234841,0,0,0,0,0,0,0
5,59999,70,50000,80,30000,0,9999,0.100000,0,0,0.000000,4,0.000000,0.000000,0.095205,0,0,0,0,0,0,0
5,59999,71,50000,9,40000,0,9999,0.100000,0,0,0.000000,4,0.000000,0.000000,11.000822,0,0,0,0,0,0,0
5,59999,72,50000,80,30000,0,9999,0.100000,0,0,0.000000,4,0.000000,0.000000,0.153978,0,0,0,0,0,0,0
5,59999,73,50000,1,0,0,9999,0.100000,0,0,0.000000,4,0.000000,0.000000,0.556259,0,0,0,0,0,0,0
5,59999,74,50000,9,40000,0,9999,0.100000,0,0,0.000000,4,0.000000,0.000000,0.776137,0,0,0,0,0,0,0
5,59999,75,50000,1,0,0,9999,0.100000,0,0,0.000000,4,0.000000,0.000000,0.652156,0,0,0,0,0,0,0
5,59999,76,50000,80,30000,0,9999,0.100000,0,0,0.000000,4,0.000000,0.000000,0.691055,0,0,0,0,0,0,0
5,59999,77,50000,9,40000,1,9999,0.100000,0,0,0.000000,4,1.000000,0.000000,2.710005,0,0,0,0,0,0,0
5,59999,78,50000,9,40000,0,9999,0.100000,0,0,0.000000,4,0.000000,0.000000,0.184823,0,0,0,0,0,0,0
5,59999,79,50000,9,40000,0,9999,0.100000,0,0,0.000000,4,0.000000,0.000000,0.067932,0,0,0,0,0,0,0
5,59999,80,50000,1,0,0,9999,0.100000,0,0,0.000000,4,0.000000,0.000000,1.124740,0,0,0,0,0,0,0
5,59999,81,50000,0,10000,0,9999,0.100000,0,0,0.000000,4,0.000000,0.000000,0.564482,0,0,0,0,0,0,0
5,59999,82,50000,80,30000,0,9999,0.100000,0,0,0.000000,4,0.000000,0.000000,0.081045,0,0,0,0,0,0,0
5,59999,83,50000,0,10000,0,9999,0.100000,0,0,0.000000,4,0.000000,0.000000,0.511847,0,0,0,0,0,0,0
5,59999,84,50000,9,40000,0,9999,0.100000,0,0,0.000000,4,0.000000,0.000000,0.261207,0,0,0,0,0,0,0
5,59999,85,50000,1,0,0,9999,0.100000,0,0,0.000000,4,0.000000,0.000000,0.125171,0,0,0,0,0,0,0
5,59999,86,50000,9,40000,0,9999,0.100000,0,0,0.000000,4,0.000000,0.000000,0.123590,0,0,0,0,0,0,0
5,59999,87,50000,80,30000,0,9999,0.100000,0,0,0.000000,4,0.000000,0.000000,0.671773,0,0,0,0,0,0,0
5,59999,88,50000,9,40000,0,9999,0.100000,0,0,0.000000,4,0.000000,0.000000,0.491641,0,0,0,0,0,0,0
5,59999,89,50000,0,10000,0,9999,0.100000,0,0,0.000000,4,0.000000,0.000000,0.085520,0,0,0,0,0,0,0
5,59999,90,50000,1,0,0,9999,0.100000,0,0,0.000000,4,0.000000,0.000000,0.106909,0,0,0,0,0,0,0
5,59999,91,50000,0,10000,0,9999,0.100000,0,0,0.000000,4,0.000000,0.000000,0.165671,0,0,0,0,0,0,0
5,59999,92,50000,1,0,0,9999,0.100000,0,0,0.000000,4,0.000000,0.000000,0.351358,0,0,0,0,0,0,0
5,59999,93,50000,1,0,0,9999,0.100000,0,0,0.000000,4,0.000000,0.000000,0.113892,0,0,0,0,0,0,0
5,59999,94,50000,80,30000,0,9999,0.100000,0,0,0.000000,4,0.000000,0.000000,0.164639,0,0,0,0,0,0,0
5,59999,95,50000,9,40000,0,9999,0.100000,0,0,0.000000,4,0.000000,0.000000,1.123166,0,0,0,0,0,0,0
5,59999,96,50000,9,40000,0,9999,0.100000,0,0,0.000000,4,0.000000,0.000000,0.093921,0,0,0,0,0,0,0
5,59999,97,50000,80,30000,0,9999,0.100000,0,0,0.000000,4,0.000000,0.000000,0.085152,0,0,0,0,0,0,0
5,59999,98,50000,80,30000,0,9999,0.100000,0,0,0.000000,4,0.000000,0.000000,0.060261,0,0,0,0,0,0,0
5,59999,99,50000,9,40000,0,9999,0.100000,0,0,0.000000,4,0.000000,0.000000,0.332419,0,0,0,0,0,0,0
6,69999,0,60000,80,30000,0,9999,0.100000,0,0,0.000000,4,0.000000,0.000000,0.642640,0,0,0,0,0,0,0
6,69999,1,60000,9,40000,1,9999,0.100000,0,0,0.000000,4,2.000000,0.000000,13.147773,0,0,0,0,0,0,0
6,69999,2,60000,0,10000,0,9999,0.100000,0,0,0.000000,4,0.000000,0.000000,0.633639,0,0,0,0,0,0,0
6,69999,3,60000,80,30000,0,9999,0.100000,0,0,0.000000,4,0.000000,0.000000,0.148421,0,0,0,0,0,0,0
6,69999,4,60000,0,10000,0,9999,0.100000,0,0,0.000000,4,0.000000,0.000000,0.534349,0,0,0,0,0,0,0
6,69999,5,60000,0,10000,1,9999,0.100000,0,0,0.000000,4,1.000000,0.000000,2.185597,0,0,0,0,0,0,0
6,69999,6,60000,0,10000,0,9999,0.100000,0,0,0.000000,4,0.000000,0.000000,0.220749,0,0,0,0,0,0,0
6,69999,7,60000,9,40000,0,9999,0.100000,0,0,0.000000,4,0.000000,0.000000,0.656044,0,0,0,0,0,0,0
6,69999,8,60000,0,10000,0,9999,0.100000,0,0,0.000000,4,0.000000,0.000000,0.616221,0,0,0,0,0,0,0
6,69999,9,60000,80,30000,1,9999,0.100000,0,0,0.000000,4,1.000000,0.000000,1.970165,0,0,0,0,0,0,0
6,69999,10,60000,80,30000,1,9999,0.100000,0,0,0.000000,4,1.000000,0.000000,3.453487,0,0,0,0,0,0,0
6,69999,11,60000,80,30000,1,9999,0.100000,0,0,0.000000,4,1.000000,0.000000,7.830516,0,0,0,0,0,0,0
6,69999,12,60000,9,40000,0,9999,0.100000,0,0,0.000000,4,0.000000,0.000000,0.109778,0,0,0,0,0,0,0
6,69999,13,60000,1,0,0,9999,0.100000,0,0,0.000000,4,0.000000,0.000000,0.087585,0,0,0,0,0,0,0
6,69999,14,60000,80,30000,0,9999,0.065000,0,0,0.000000,4,0.000000,0.000000,5.979762,0,0,0,0,0,0,0
6,69999,15,60000,1,0,0,9999,0.100000,0,0,0.000000,4,0.000000,0.000000,1.006112,0,0,0,0,0,0,0
6,69999,16,60000,9,40000,0,9999,0.100000,0,0,0.000000,4,0.000000,0.000000,0.282239,0,0,0,0,0,0,0
6,69999,17,60000,9,40000,0,9999,0.100000,0,0,0.000000,4,0.000000,0.000000,1.074920,0,0,0,0,0,0,0
6,69999,18,60000,1,0,0,9999,0.100000,0,0,0.000000,4,0.000000,0.000000,0.624883,0,0,0,0,0,0,0
6,69999,19,60000,0,10000,0,9999,0.100000,0,0,0.000000,4,0.000000,0.000000,0.612399,0,0,0,0,0,0,0
6,69999,20,60000,9,40000,0,9999,0.100000,0,0,0.000000,4,0.000000,0.000000,0.089775,0,0,0,0,0,0,0
6,69999,21,60000,80,30000,0,9999,0.100000,0,0,0.000000,4,0.000000,0.000000,0.141939,0,0,0,0,0,0,0
6,69999,22,60000,80,30000,1,9999,0.100000,0,0,0.000000,4,1.000000,0.000000,1.939742,0,0,0,0,0,0,0
6,69999,23,60000,80,30000,0,9999,0.100000,0,0,0.000000,4,0.000000,0.000000,0.148264,0,0,0,0,0,0,0
6,69999,24,60000,1,0,0,9999,0.100000,0,0,0.000000,4,0.000000,0.000000,5.771293,0,0,0,0,0,0,0
6,69999,25,60000,1,0,0,9999,0.100000,0,0,0.000000,4,0.000000,0.000000,21.464584,0,0,0,0,0,0,0
6,69999,26,60000,0,10000,1,9999,0.100000,0,0,0.000000,4,1.000000,0.000000,12.470606,0,0,0,0,0,0,0
6,69999,27,60000,1,0,0,9999,0.100000,0,0,0.000000,4,0.000000,0.000000,0.075997,0,0,0,0,0,0,0
6,69999,28,60000,80,30000,0,9999,0.100000,0,0,0.000000,4,0.000000,0.000000,1.481429,0,0,0,0,0,0,0
6,69999,29,60000,0,10000,0,9999,0.100000,0,0,0.000000,4,0.000000,0.000000,0.085632,0,0,0,0,0,0,0
6,69999,30,60000,0,10000,0,9999,0.100000,0,0,0.000000,4,0.000000,0.000000,0.500100,0,0,0,0,0,0,0
6,69999,31,60000,80,30000,0,9999,0.100000,0,0,0.000000,4,0.000000,0.000000,9.488139,0,0,0,0,0,0,0
6,69999,32,60000,80,30000,0,9999,0.100000,0,0,0.000000,4,0.000000,0.000000,11.721151,0,0,0,0,0,0,0
6,69999,33,60000,80,30000,0,9999,0.100000,0,0,0.000000,4,0.000000,0.000000,0.070534,0,0,0,0,0,0,0
6,69999,34,60000,0,10000,0,9999,0.100000,0,0,0.000000,4,0.000000,0.000000,12.962154,0,0,0,0,0,0,0
6,69999,35,60000,1,0,0,9999,0.100000,0,0,0.000000,4,0.000000,0.000000,0.147061,0,0,0,0,0,0,0
6,69999,36,60000,1,0,0,9999,0.100000,0,0,0.000000,4,0.000000,0.000000,0.405574,0,0,0,0,0,0,0
6,69999,37,60000,9,40000,0,9999,0.100000,0,0,0.000000,4,0.000000,0.000000,0.671294,0,0,0,0,0,0,0
6,69999,38,60000,9,40000,0,9999,0.100000,0,0,0.000000,4,0.000000,0.000000,2.400137,0,0,0,0,0,0,0
6,69999,39,60000,80,30000,0,9999,0.100000,0,0,0.000000,4,0.000000,0.000000,0.562069,0,0,0,0,0,0,0
6,69999,40,60000,0,10000,0,9999,0.100000,0,0,0.000000,4,0.000000,0.000000,0.237284,0,0,0,0,0,0,0
6,69999,41,60000,1,0,1,9999,0.100000,0,0,0.000000,4,5.000000,0.000000,11.214882,0,0,0,0,0,0,0
6,69999,42,60000,0,10000,0,9999,0.100000,0,0,0.000000,4,0.000000,0.000000,0.201775,0,0,0,0,0,0,0
6,69999,43,60000,80,30000,0,9999,0.100000,0,0,0.000000,4,0.000000,0.000000,0.201118,0,0,0,0,0,0,0
6,69999,44,60000,0,10000,0,9999,0.100000,0,0,0.000000,4,0.000000,0.000000,1.934691,0,0,0,0,0,0,0
6,69999,45,60000,9,40000,0,9999,0.100000,0,0,0.000000,4,0.000000,0.000000,0.345049,0,0,0,0,0,0,0
6,69999,46,60000,9,40000,0,9999,0.100000,0,0,0.000000,4,0.000000,0.000000,0.620091,0,0,0,0,0,0,0
6,69999,47,60000,0,10000,1,9999,0.100000,0,0,0.000000,4,1.000000,0.000000,10.278326,0,0,0,0,0,0,0
6,69999,48,60000,1,0,0,9999,0.100000,0,0,0.000000,4,0.000000,0.000000,1.060230,0,0,0,0,0,0,0
6,69999,49,60000,9,40000,0,9999,0.100000,0,0,0.000000,4,0.000000,0.000000,5.039219,0,0,0,0,0,0,0
6,69999,50,60000,1,0,0,9999,0.100000,0,0,0.000000,4,0.000000,0.000000,0.106083,0,0,0,0,0,0,0
6,69999,51,60000,0,10000,1,9999,0.100000,0,0,0.000000,4,1.000000,0.000000,1.846830,0,0,0,0,0,0,0
6,69999,52,60000,80,30000,0,9999,0.100000,0,0,0.000000,4,0.000000,0.000000,0.755436,0,0,0,0,0,0,0
6,69999,53,60000,9,40000,0,9999,0.100000,0,0,0.000000,4,0.000000,0.000000,0.351398,0,0,0,0,0,0,0
6,69999,54,60000,80,30000,0,9999,0.100000,0,0,0.000000,4,0.000000,0.000000,0.082385,0,0,0,0,0,0,0
6,69999,55,60000,9,40000,0,9999,0.100000,0,0,0.000000,4,0.000000,0.000000,0.943034,0,0,0,0,0,0,0
6,69999,56,60000,80,30000,0,9999,0.100000,0,0,0.000000,4,0.000000,0.000000,0.998173,0,0,0,0,0,0,0
6,69999,57,60000,0,10000,0,9999,0.100000,0,0,0.000000,4,0.000000,0.000000,0.164418,0,0,0,0,0,0,0
6,69999,58,60000,80,30000,0,9999,0.100000,0,0,0.000000,4,0.000000,0.000000,1.473093,0,0,0,0,0,0,0
6,69999,59,60000,0,10000,0,9999,0.100000,0,0,0.000000,4,0.000000,0.000000,0.097346,0,0,0,0,0,0,0
6,69999,60,60000,9,40000,0,9999,0.100000,0,0,0.000000,4,0.000000,0.000000,0.081630,0,0,0,0,0,0,0
6,69999,61,60000,0,10000,0,9999,0.100000,0,0,0.000000,4,0.000000,0.000000,1.296876,0,0,0,0,0,0,0
6,69999,62,60000,0,10000,0,9999,0.100000,0,0,0.000000,4,0.000000,0.000000,1.087761,0,0,0,0,0,0,0
6,69999,63,60000,9,40000,1,9999,0.100000,0,0,0.000000,4,1.000000,0.000000,3.017229,0,0,0,0,0,0,0
6,69999,64,60000,0,10000,0,9999,0.100000,0,0,0.000000,4,0.000000,0.000000,0.445111,0,0,0,0,0,0,0
6,69999,65,60000,1,0,0,9999,0.100000,0,0,0.000000,4,0.000000,0.000000,0.969560,0,0,0,0,0,0,0
6,69999,66,60000,9,40000,0,9999,0.100000,0,0,0.000000,4,0.000000,0.000000,0.229993,0,0,0,0,0,0,0
6,69999,67,60000,1,0,0,9999,0.100000,0,0,0.000000,4,0.000000,0.000000,0.080303,0,0,0,0,0,0,0
6,69999,68,60000,80,30000,0,9999,0.100000,0,0,0.000000,4,0.000000,0.000000,3.791970,0,0,0,0,0,0,0
6,69999,69,60000,0,10000,0,9999,0.100000,0,0,0.000000,4,0.000000,0.000000,0.231888,0,0,0,0,0,0,0
6,69999,70,60000,1,0,0,9999,0.135000,0,0,0.000000,4,0.000000,0.000000,0.089037,0,0,0,0,0,0,0
6,69999,71,60000,80,30000,0,9999,0.100000,0,0,0.000000,4,0.000000,0.000000,9.103796,0,0,0,0,0,0,0
6,69999,72,60000,1,0,0,9999,0.100000,0,0,0.000000,4,0.000000,0.000000,0.217128,0,0,0,0,0,0,0
6,69999,73,60000,80,30000,0,9999,0.100000,0,0,0.000000,4,0.000000,0.000000,0.163491,0,0,0,0,0,0,0
6,69999,74,60000,0,10000,0,9999,0.100000,0,0,0.000000,4,0.000000,0.000000,0.497140,0,0,0,0,0,0,0
6,69999,75,60000,1,0,0,9999,0.100000,0,0,0.000000,4,0.000000,0.000000,0.433288,0,0,0,0,0,0,0
6,69999,76,60000,9,40000,0,9999,0.100000,0,0,0.000000,4,0.000000,0.000000,0.604762,0,0,0,0,0,0,0
6,69999,77,60000,80,30000,1,9999,0.100000,0,0,0.000000,4,1.000000,0.000000,13.673537,0,0,0,0,0,0,0
6,69999,78,60000,80,30000,0,9999,0.100000,0,0,0.000000,4,0.000000,0.000000,0.187191,0,0,0,0,0,0,0
6,69999,79,60000,9,40000,0,9999,0.100000,0,0,0.000000,4,0.000000,0.000000,0.068810,0,0,0,0,0,0,0
6,69999,80,60000,80,30000,0,9999,0.100000,0,0,0.000000,4,0.000000,0.000000,1.249055,0,0,0,0,0,0,0
6,69999,81,60000,0,10000,0,9999,0.100000,0,0,0.000000,4,0.000000,0.000000,0.391993,0,0,0,0,0,0,0
6,69999,82,60000,0,10000,0,9999,0.100000,0,0,0.000000,4,0.000000,0.000000,0.178161,0,0,0,0,0,0,0
6,69999,83,60000,1,0,0,9999,0.100000,0,0,0.000000,4,0.000000,0.000000,0.907637,0,0,0,0,0,0,0
6,69999,84,60000,1,0,0,9999,0.100000,0,0,0.000000,4,0.000000,0.000000,0.497432,0,0,0,0,0,0,0
6,69999,85,60000,0,10000,0,9999,0.100000,0,0,0.000000,4,0.000000,0.000000,0.141494,0,0,0,0,0,0,0
6,69999,86,60000,80,30000,0,9999,0.100000,0,0,0.000000,4,0.000000,0.000000,0.151762,0,0,0,0,0,0,0
6,69999,87,60000,80,30000,0,9999,0.100000,0,0,0.000000,4,0.000000,0.000000,1.471328,0,0,0,0,0,0,0
6,69999,88,60000,80,30000,0,9999,0.100000,0,0,0.000000,4,0.000000,0.000000,0.588915,0,0,0,0,0,0,0
6,69999,89,60000,80,30000,0,9999,0.100000,0,0,0.000000,4,0.000000,0.000000,0.106127,0,0,0,0,0,0,0
6,69999,90,60000,80,30000,0,9999,0.100000,0,0,0.000000,4,0.000000,0.000000,0.106321,0,0,0,0,0,0,0
6,69999,91,60000,0,10000,0,9999,0.100000,0,0,0.000000,4,0.000000,0.000000,0.376249,0,0,0,0,0,0,0
6,69999,92,60000,9,40000,0,9999,0.100000,0,0,0.000000,4,0.000000,0.000000,1.554177,0,0,0,0,0,0,0
6,69999,93,60000,9,40000,0,9999,0.100000,0,0,0.000000,4,0.000000,0.000000,0.113869,0,0,0,0,0,0,0
6,69999,94,60000,0,10000,0,9999,0.100000,0,0,0.000000,4,0.000000,0.000000,0.117637,0,0,0,0,0,0,0
6,69999,95,60000,80,30000,0,9999,0.100000,0,0,0.000000,4,0.000000,0.000000,0.837579,0,0,0,0,0,0,0
6,69999,96,60000,9,40000,0,9999,0.100000,0,0,0.000000,4,0.000000,0.000000,0.069986,0,0,0,0,0,0,0
6,69999,97,60000,1,0,0,9999,0.100000,0,0,0.000000,4,0.000000,0.000000,0.084722,0,0,0,0,0,0,0
6,69999,98,60000,80,30000,1,9999,0.100000,0,0,0.000000,4,6.000000,0.000000,13.400491,0,0,0,0,0,0,0
6,69999,99,60000,80,30000,0,9999,0.100000,0,0,0.000000,4,0.000000,0.000000,0.288122,0,0,0,0,0,0,0
7,79999,0,70000,80,30000,0,9999,0.100000,0,0,0.000000,4,0.000000,0.000000,0.582563,0,0,0,0,0,0,0
7,79999,1,70000,80,30000,0,9999,0.100000,0,0,0.000000,4,0.000000,0.000000,12.804837,0,0,0,0,0,0,0
7,79999,2,70000,9,40000,0,9999,0.100000,0,0,0.000000,4,0.000000,0.000000,0.450876,0,0,0,0,0,0,0
7,79999,3,70000,80,30000,0,9999,0.100000,0,0,0.000000,4,0.000000,0.000000,0.191582,0,0,0,0,0,0,0
7,79999,4,70000,1,0,0,9999,0.100000,0,0,0.000000,4,0.000000,0.000000,0.541238,0,0,0,0,0,0,0
7,79999,5,70000,0,10000,0,9999,0.100000,0,0,0.000000,4,0.000000,0.000000,2.163219,0,0,0,0,0,0,0
7,79999,6,70000,1,0,0,9999,0.100000,0,0,0.000000,4,0.000000,0.000000,0.176426,0,0,0,0,0,0,0
7,79999,7,70000,1,0,0,9999,0.100000,0,0,0.000000,4,0.000000,0.000000,0.573717,0,0,0,0,0,0,0
7,79999,8,70000,9,40000,0,9999,0.100000,0,0,0.000000,4,0.000000,0.000000,0.993193,0,0,0,0,0,0,0
7,79999,9,70000,0,10000,1,9999,0.100000,0,0,0.000000,4,3.000000,0.000000,6.752616,0,0,0,0,0,0,0
7,79999,10,70000,80,30000,1,9999,0.100000,0,0,0.000000,4,1.000000,0.000000,3.315976,0,0,0,0,0,0,0
7,79999,11,70000,80,30000,0,9999,0.100000,0,0,0.000000,4,0.000000,0.000000,0.812740,0,0,0,0,0,0,0
7,79999,12,70000,1,0,0,9999,0.100000,0,0,0.000000,4,0.000000,0.000000,0.131187,0,0,0,0,0,0,0
7,79999,13,70000,80,30000,0,9999,0.100000,0,0,0.000000,4,0.000000,0.000000,0.087868,0,0,0,0,0,0,0
7,79999,14,70000,80,30000,0,9999,0.100000,0,0,0.000000,4,0.000000,0.000000,6.113793,0,0,0,0,0,0,0
7,79999,15,70000,9,40000,0,9999,0.100000,0,0,0.000000,4,0.000000,0.000000,0.797641,0,0,0,0,0,0,0
7,79999,16,70000,0,10000,0,9999,0.100000,0,0,0.000000,4,0.000000,0.000000,1.246404,0,0,0,0,0,0,0
7,79999,17,70000,1,0,0,9999,0.100000,0,0,0.000000,4,0.000000,0.000000,2.247207,0,0,0,0,0,0,0
7,79999,18,70000,80,30000,0,9999,0.100000,0,0,0.000000,4,0.000000,0.000000,0.547773,0,0,0,0,0,0,0
7,79999,19,70000,0,10000,0,9999,0.100000,0,0,0.000000,4,0.000000,0.000000,0.375317,0,0,0,0,0,0,0
7,79999,20,70000,9,40000,0,9999,0.100000,0,0,0.000000,4,0.000000,0.000000,0.095513,0,0,0,0,0,0,0
7,79999,21,70000,80,30000,0,9999,0.100000,0,0,0.000000,4,0.000000,0.000000,0.129132,0,0,0,0,0,0,0
7,79999,22,70000,1,0,0,9999,0.100000,0,0,0.000000,4,0.000000,0.000000,1.081123,0,0,0,0,0,0,0
7,79999,23,70000,9,40000,0,9999,0.100000,0,0,0.000000,4,0.000000,0.000000,0.158520,0,0,0,0,0,0,0
7,79999,24,70000,0,10000,0,9999,0.100000,0,0,0.000000,4,0.000000,0.000000,6.576774,0,0,0,0,0,0,0
7,79999,25,70000,80,30000,0,9999,0.100000,0,0,0.000000,4,0.000000,0.000000,21.658173,0,0,0,0,0,0,0
7,79999,26,70000,1,0,1,9999,0.100000,0,0,0.000000,4,1.000000,0.000000,11.367459,0,0,0,0,0,0,0
7,79999,27,70000,80,30000,0,9999,0.100000,0,0,0.000000,4,0.000000,0.000000,0.076661,0,0,0,0,0,0,0
7,79999,28,70000,80,30000,0,9999,0.100000,0,0,0.000000,4,0.000000,0.000000,1.645811,0,0,0,0,0,0,0
7,79999,29,70000,1,0,0,9999,0.100000,0,0,0.000000,4,0.000000,0.000000,0.061246,0,0,0,0,0,0,0
7,79999,30,70000,0,10000,0,9999,0.100000,0,0,0.000000,4,0.000000,0.000000,0.414631,0,0,0,0,0,0,0
7,79999,31,70000,1,0,1,9999,0.100000,0,0,0.000000,4,1.000000,0.000000,10.010613,0,0,0,0,0,0,0
7,79999,32,70000,0,10000,0,9999,0.100000,0,0,0.000000,4,0.000000,0.000000,14.036245,0,0,0,0,0,0,0
7,79999,33,70000,9,40000,0,9999,0.100000,0,0,0.000000,4,0.000000,0.000000,0.081773,0,0,0,0,0,0,0
7,79999,34,70000,1,0,0,9999,0.100000,0,0,0.000000,4,0.000000,0.000000,8.795840,0,0,0,0,0,0,0
7,79999,35,70000,0,10000,0,9999,0.100000,0,0,0.000000,4,0.000000,0.000000,0.139314,0,0,0,0,0,0,0
7,79999,36,70000,80,30000,0,9999,0.100000,0,0,0.000000,4,0.000000,0.000000,0.390032,0,0,0,0,0,0,0
7,79999,37,70000,9,40000,0,9999,0.100000,0,0,0.000000,4,0.000000,0.000000,0.965158,0,0,0,0,0,0,0
7,79999,38,70000,9,40000,0,9999,0.100000,0,0,0.000000,4,0.000000,0.000000,2.276492,0,0,0,0,0,0,0
7,79999,39,70000,1,0,0,9999,0.100000,0,0,0.000000,4,0.000000,0.000000,0.295037,0,0,0,0,0,0,0
7,79999,40,70000,1,0,0,9999,0.100000,0,0,0.000000,4,0.000000,0.000000,0.236721,0,0,0,0,0,0,0
7,79999,41,70000,9,40000,0,9999,0.100000,0,0,0.000000,4,0.000000,0.000000,0.094084,0,0,0,0,0,0,0
7,79999,42,70000,80,30000,0,9999,0.100000,0,0,0.000000,4,0.000000,0.000000,0.200588,0,0,0,0,0,0,0
7,79999,43,70000,0,10000,0,9999,0.100000,0,0,0.000000,4,0.000000,0.000000,0.238474,0,0,0,0,0,0,0
7,79999,44,70000,9,40000,0,9999,0.100000,0,0,0.000000,4,0.000000,0.000000,1.674468,0,0,0,0,0,0,0
7,79999,45,70000,80,30000,0,9999,0.100000,0,0,0.000000,4,0.000000,0.000000,0.337600,0,0,0,0,0,0,0
7,79999,46,70000,80,30000,0,9999,0.100000,0,0,0.000000,4,0.000000,0.000000,0.485164,0,0,0,0,0,0,0
7,79999,47,70000,9,40000,0,9999,0.100000,0,0,0.000000,4,0.000000,0.000000,12.386024,0,0,0,0,0,0,0
7,79999,48,70000,9,40000,0,9999,0.100000,0,0,0.000000,4,0.000000,0.000000,1.255095,0,0,0,0,0,0,0
7,79999,49,70000,0,10000,0,9999,0.100000,0,0,0.000000,4,0.000000,0.000000,5.255676,0,0,0,0,0,0,0
7,79999,50,70000,1,0,0,9999,0.100000,0,0,0.000000,4,0.000000,0.000000,0.101528,0,0,0,0,0,0,0
7,79999,51,70000,80,30000,0,9999,0.100000,0,0,0.000000,4,0.000000,0.000000,0.996628,0,0,0,0,0,0,0
7,79999,52,70000,1,0,0,9999,0.100000,0,0,0.000000,4,0.000000,0.000000,0.672260,0,0,0,0,0,0,0
7,79999,53,70000,80,30000,0,9999,0.100000,0,0,0.000000,4,0.000000,0.000000,0.478534,0,0,0,0,0,0,0
7,79999,54,70000,80,30000,0,9999,0.100000,0,0,0.000000,4,0.000000,0.000000,0.084421,0,0,0,0,0,0,0
7,79999,55,70000,9,40000,0,9999,0.100000,0,0,0.000000,4,0.000000,0.000000,0.923733,0,0,0,0,0,0,0
7,79999,56,70000,9,40000,0,9999,0.100000,0,0,0.000000,4,0.000000,0.000000,1.997771,0,0,0,0,0,0,0
7,79999,57,70000,80,30000,0,9999,0.100000,0,0,0.000000,4,0.000000,0.000000,0.107899,0,0,0,0,0,0,0
7,79999,58,70000,80,30000,0,9999,0.100000,0,0,0.000000,4,0.000000,0.000000,0.723769,0,0,0,0,0,0,0
7,79999,59,70000,9,40000,0,9999,0.100000,0,0,0.000000,4,0.000000,0.000000,0.202489,0,0,0,0,0,0,0
7,79999,60,70000,80,30000,0,9999,0.100000,0,0,0.000000,4,0.000000,0.000000,0.082025,0,0,0,0,0,0,0
7,79999,61,70000,0,10000,0,9999,0.100000,0,0,0.000000,4,0.000000,0.000000,1.413272,0,0,0,0,0,0,0
7,79999,62,70000,0,10000,0,9999,0.100000,0,0,0.000000,4,0.000000,0.000000,0.386950,0,0,0,0,0,0,0
7,79999,63,70000,1,0,0,9999,0.100000,0,0,0.000000,4,0.000000,0.000000,0.409701,0,0,0,0,0,0,0
7,79999,64,70000,80,30000,0,9999,0.100000,0,0,0.000000,4,0.000000,0.000000,0.385034,0,0,0,0,0,0,0
7,79999,65,70000,80,30000,0,9999,0.100000,0,0,0.000000,4,0.000000,0.000000,1.037245,0,0,0,0,0,0,0
7,79999,66,70000,9,40000,0,9999,0.100000,0,0,0.000000,4,0.000000,0.000000,0.236142,0,0,0,0,0,0,0
7,79999,67,70000,0,10000,0,9999,0.100000,0,0,0.000000,4,0.000000,0.000000,0.079447,0,0,0,0,0,0,0
7,79999,68,70000,1,0,0,9999,0.100000,0,0,0.000000,4,0.000000,0.000000,0.268124,0,0,0,0,0,0,0
7,79999,69,70000,9,40000,0,9999,0.100000,0,0,0.000000,4,0.000000,0.000000,0.248395,0,0,0,0,0,0,0
7,79999,70,70000,1,0,0,9999,0.100000,0,0,0.000000,4,0.000000,0.000000,0.127139,0,0,0,0,0,0,0
7,79999,71,70000,0,10000,0,9999,0.100000,0,0,0.000000,4,0.000000,0.000000,13.798627,0,0,0,0,0,0,0
7,79999,72,70000,80,30000,0,9999,0.100000,0,0,0.000000,4,0.000000,0.000000,0.173548,0,0,0,0,0,0,0
7,79999,73,70000,0,10000,0,9999,0.100000,0,0,0.000000,4,0.000000,0.000000,0.304871,0,0,0,0,0,0,0
7,79999,74,70000,9,40000,0,9999,0.100000,0,0,0.000000,4,0.000000,0.000000,0.558241,0,0,0,0,0,0,0
7,79999,75,70000,80,30000,0,9999,0.100000,0,0,0.000000,4,0.000000,0.000000,0.361745,0,0,0,0,0,0,0
7,79999,76,70000,80,30000,0,9999,0.100000,0,0,0.000000,4,0.000000,0.000000,0.757985,0,0,0,0,0,0,0
7,79999,77,70000,9,40000,1,9999,0.100000,0,0,0.000000,4,2.000000,0.000000,17.890276,0,0,0,0,0,0,0
7,79999,78,70000,9,40000,0,9999,0.100000,0,0,0.000000,4,0.000000,0.000000,0.196465,0,0,0,0,0,0,0
7,79999,79,70000,80,30000,0,9999,0.100000,0,0,0.000000,4,0.000000,0.000000,0.076403,0,0,0,0,0,0,0
7,79999,80,70000,0,10000,0,9999,0.100000,0,0,0.000000,4,0.000000,0.000000,1.327291,0,0,0,0,0,0,0
7,79999,81,70000,0,10000,0,9999,0.100000,0,0,0.000000,4,0.000000,0.000000,0.374512,0,0,0,0,0,0,0
7,79999,82,70000,9,40000,0,9999,0.100000,0,0,0.000000,4,0.000000,0.000000,0.188094,0,0,0,0,0,0,0
7,79999,83,70000,80,30000,0,9999,0.100000,0,0,0.000000,4,0.000000,0.000000,1.838949,0,0,0,0,0,0,0
7,79999,84,70000,1,0,0,9999,0.100000,0,0,0.000000,4,0.000000,0.000000,0.273599,0,0,0,0,0,0,0
7,79999,85,70000,1,0,0,9999,0.100000,0,0,0.000000,4,0.000000,0.000000,0.118509,0,0,0,0,0,0,0
7,79999,86,70000,80,30000,0,9999,0.100000,0,0,0.000000,4,0.000000,0.000000,0.123051,0,0,0,0,0,0,0
7,79999,87,70000,1,0,0,9999,0.100000,0,0,0.000000,4,0.000000,0.000000,0.934698,0,0,0,0,0,0,0
7,79999,88,70000,1,0,0,9999,0.100000,0,0,0.000000,4,0.000000,0.000000,0.452218,0,0,0,0,0,0,0
7,79999,89,70000,80,30000,0,9999,0.100000,0,0,0.000000,4,0.000000,0.000000,0.082455,0,0,0,0,0,0,0
7,79999,90,70000,0,10000,0,9999,0.100000,0,0,0.000000,4,0.000000,0.000000,0.248236,0,0,0,0,0,0,0
7,79999,91,70000,80,30000,0,9999,0.100000,0,0,0.000000,4,0.000000,0.000000,0.503621,0,0,0,0,0,0,0
7,79999,92,70000,9,40000,0,9999,0.100000,0,0,0.000000,4,0.000000,0.000000,0.568248,0,0,0,0,0,0,0
7,79999,93,70000,1,0,0,9999,0.100000,0,0,0.000000,4,0.000000,0.000000,0.092063,0,0,0,0,0,0,0
7,79999,94,70000,80,30000,0,9999,0.100000,0,0,0.000000,4,0.000000,0.000000,0.116645,0,0,0,0,0,0,0
7,79999,95,70000,1,0,0,9999,0.100000,0,0,0.000000,4,0.000000,0.000000,1.272107,0,0,0,0,0,0,0
7,79999,96,70000,0,10000,0,9999,0.100000,0,0,0.000000,4,0.000000,0.000000,0.070653,0,0,0,0,0,0,0
7,79999,97,70000,80,30000,0,9999,0.100000,0,0,0.000000,4,0.000000,0.000000,0.083136,0,0,0,0,0,0,0
7,79999,98,70000,9,40000,0,9999,0.100000,0,0,0.000000,4,0.000000,0.000000,0.088474,0,0,0,0,0,0,0
7,79999,99,70000,80,30000,0,9999,0.100000,0,0,0.000000,4,0.000000,0.000000,0.169708,0,0,0,0,0,0,0
8,89999,0,80000,1,0,0,9999,0.100000,0,0,0.000000,4,0.000000,0.000000,2.508505,0,0,0,0,0,0,0
8,89999,1,80000,0,10000,1,9999,0.100000,0,0,0.000000,4,1.000000,0.000000,2.603007,0,0,0,0,0,0,0
8,89999,2,80000,0,10000,0,9999,0.100000,0,0,0.000000,4,0.000000,0.000000,0.401703,0,0,0,0,0,0,0
8,89999,3,80000,80,30000,0,9999,0.100000,0,0,0.000000,4,0.000000,0.000000,0.473366,0,0,0,0,0,0,0
8,89999,4,80000,0,10000,0,9999,0.100000,0,0,0.000000,4,0.000000,0.000000,0.457971,0,0,0,0,0,0,0
8,89999,5,80000,80,30000,1,9999,0.100000,0,0,0.000000,4,4.000000,0.000000,5.583552,0,0,0,0,0,0,0
8,89999,6,80000,80,30000,0,9999,0.100000,0,0,0.000000,4,0.000000,0.000000,0.286887,0,0,0,0,0,0,0
8,89999,7,80000,80,30000,0,9999,0.100000,0,0,0.000000,4,0.000000,0.000000,0.593129,0,0,0,0,0,0,0
8,89999,8,80000,9,40000,0,9999,0.100000,0,0,0.000000,4,0.000000,0.000000,0.993991,0,0,0,0,0,0,0
8,89999,9,80000,1,0,0,9999,0.100000,0,0,0.000000,4,0.000000,0.000000,3.728042,0,0,0,0,0,0,0
8,89999,10,80000,0,10000,1,9999,0.100000,0,0,0.000000,4,5.000000,0.000000,5.790971,0,0,0,0,0,0,0
8,89999,11,80000,80,30000,0,9999,0.100000,0,0,0.000000,4,0.000000,0.000000,0.848374,0,0,0,0,0,0,0
8,89999,12,80000,1,0,0,9999,0.100000,0,0,0.000000,4,0.000000,0.000000,0.152984,0,0,0,0,0,0,0
8,89999,13,80000,1,0,0,9999,0.100000,0,0,0.000000,4,0.000000,0.000000,0.089550,0,0,0,0,0,0,0
8,89999,14,80000,0,10000,0,9999,0.100000,0,0,0.000000,4,0.000000,0.000000,6.007040,0,0,0,0,0,0,0
8,89999,15,80000,1,0,0,9999,0.100000,0,0,0.000000,4,0.000000,0.000000,0.655730,0,0,0,0,0,0,0
8,89999,16,80000,0,10000,1,9999,0.100000,0,0,0.000000,4,4.000000,0.000000,6.082472,0,0,0,0,0,0,0
8,89999,17,80000,9,40000,0,9999,0.100000,0,0,0.000000,4,0.000000,0.000000,2.114534,0,0,0,0,0,0,0
8,89999,18,80000,80,30000,0,9999,0.100000,0,0,0.000000,4,0.000000,0.000000,0.773428,0,0,0,0,0,0,0
8,89999,19,80000,9,40000,0,9999,0.100000,0,0,0.000000,4,0.000000,0.000000,0.389019,0,0,0,0,0,0,0
8,89999,20,80000,9,40000,0,9999,0.100000,0,0,0.000000,4,0.000000,0.000000,0.097363,0,0,0,0,0,0,0
8,89999,21,80000,0,10000,0,9999,0.100000,0,0,0.000000,4,0.000000,0.000000,0.116223,0,0,0,0,0,0,0
8,89999,22,80000,0,10000,0,9999,0.100000,0,0,0.000000,4,0.000000,0.000000,0.612298,0,0,0,0,0,0,0
8,89999,23,80000,1,0,0,9999,0.100000,0,0,0.000000,4,0.000000,0.000000,0.168487,0,0,0,0,0,0,0
8,89999,24,80000,1,0,0,9999,0.100000,0,0,0.000000,4,0.000000,0.000000,6.248341,0,0,0,0,0,0,0
8,89999,25,80000,0,10000,0,9999,0.100000,0,0,0.000000,4,0.000000,0.000000,21.627202,0,0,0,0,0,0,0
8,89999,26,80000,80,30000,0,9999,0.100000,0,0,0.000000,4,0.000000,0.000000,9.709192,0,0,0,0,0,0,0
8,89999,27,80000,80,30000,0,9999,0.100000,0,0,0.000000,4,0.000000,0.000000,0.078225,0,0,0,0,0,0,0
8,89999,28,80000,9,40000,0,9999,0.100000,0,0,0.000000,4,0.000000,0.000000,1.435654,0,0,0,0,0,0,0
8,89999,29,80000,9,40000,0,9999,0.100000,0,0,0.000000,4,0.000000,0.000000,0.063419,0,0,0,0,0,0,0
8,89999,30,80000,80,30000,0,9999,0.100000,0,0,0.000000,4,0.000000,0.000000,0.526667,0,0,0,0,0,0,0
8,89999,31,80000,0,10000,0,9999,0.100000,0,0,0.000000,4,0.000000,0.000000,9.336464,0,0,0,0,0,0,0
8,89999,32,80000,80,30000,0,9999,0.100000,0,0,0.000000,4,0.000000,0.000000,11.470544,0,0,0,0,0,0,0
8,89999,33,80000,9,40000,0,9999,0.100000,0,0,0.000000,4,0.000000,0.000000,0.085769,0,0,0,0,0,0,0
8,89999,34,80000,80,30000,0,9999,0.100000,0,0,0.000000,4,0.000000,0.000000,10.352563,0,0,0,0,0,0,0
8,89999,35,80000,1,0,0,9999,0.100000,0,0,0.000000,4,0.000000,0.000000,0.138942,0,0,0,0,0,0,0
8,89999,36,80000,9,40000,0,9999,0.100000,0,0,0.000000,4,0.000000,0.000000,0.418543,0,0,0,0,0,0,0
8,89999,37,80000,80,30000,0,9999,0.100000,0,0,0.000000,4,0.000000,0.000000,0.129051,0,0,0,0,0,0,0
8,89999,38,80000,1,0,0,9999,0.100000,0,0,0.000000,4,0.000000,0.000000,8.181110,0,0,0,0,0,0,0
8,89999,39,80000,0,10000,0,9999,0.100000,0,0,0.000000,4,0.000000,0.000000,0.341762,0,0,0,0,0,0,0
8,89999,40,80000,9,40000,0,9999,0.100000,0,0,0.000000,4,0.000000,0.000000,0.236547,0,0,0,0,0,0,0
8,89999,41,80000,0,10000,0,9999,0.100000,0,0,0.000000,4,0.000000,0.000000,0.092563,0,0,0,0,0,0,0
8,89999,42,80000,0,10000,0,9999,0.100000,0,0,0.000000,4,0.000000,0.000000,0.220623,0,0,0,0,0,0,0
8,89999,43,80000,9,40000,0,9999,0.100000,0,0,0.000000,4,0.000000,0.000000,0.513364,0,0,0,0,0,0,0
8,89999,44,80000,0,10000,0,9999,0.100000,0,0,0.000000,4,0.000000,0.000000,1.675888,0,0,0,0,0,0,0
8,89999,45,80000,80,30000,0,9999,0.100000,0,0,0.000000,4,0.000000,0.000000,0.314979,0,0,0,0,0,0,0
8,89999,46,80000,0,10000,0,9999,0.100000,0,0,0.000000,4,0.000000,0.000000,0.484620,0,0,0,0,0,0,0
8,89999,47,80000,9,40000,0,9999,0.100000,0,0,0.000000,4,0.000000,0.000000,8.931111,0,0,0,0,0,0,0
8,89999,48,80000,1,0,0,9999,0.100000,0,0,0.000000,4,0.000000,0.000000,1.120952,0,0,0,0,0,0,0
8,89999,49,80000,0,10000,0,9999,0.100000,0,0,0.000000,4,0.000000,0.000000,6.155842,0,0,0,0,0,0,0
8,89999,50,80000,80,30000,0,9999,0.100000,0,0,0.000000,4,0.000000,0.000000,0.096624,0,0,0,0,0,0,0
8,89999,51,80000,9,40000,0,9999,0.100000,0,0,0.000000,4,0.000000,0.000000,0.287873,0,0,0,0,0,0,0
8,89999,52,80000,9,40000,0,9999,0.100000,0,0,0.000000,4,0.000000,0.000000,0.752396,0,0,0,0,0,0,0
8,89999,53,80000,0,10000,0,9999,0.100000,0,0,0.000000,4,0.000000,0.000000,0.201920,0,0,0,0,0,0,0
8,89999,54,80000,1,0,0,9999,0.100000,0,0,0.000000,4,0.000000,0.000000,0.085884,0,0,0,0,0,0,0
8,89999,55,80000,80,30000,0,9999,0.100000,0,0,0.000000,4,0.000000,0.000000,1.568751,0,0,0,0,0,0,0
8,89999,56,80000,9,40000,0,9999,0.100000,0,0,0.000000,4,0.000000,0.000000,1.366340,0,0,0,0,0,0,0
8,89999,57,80000,80,30000,0,9999,0.135000,0,0,0.000000,4,0.000000,0.000000,0.119340,0,0,0,0,0,0,0
8,89999,58,80000,80,30000,0,9999,0.100000,0,0,0.000000,4,0.000000,0.000000,0.770092,0,0,0,0,0,0,0
8,89999,59,80000,9,40000,0,9999,0.100000,0,0,0.000000,4,0.000000,0.000000,0.204131,0,0,0,0,0,0,0
8,89999,60,80000,80,30000,0,9999,0.100000,0,0,0.000000,4,0.000000,0.000000,0.103352,0,0,0,0,0,0,0
8,89999,61,80000,1,0,0,9999,0.100000,0,0,0.000000,4,0.000000,0.000000,1.339545,0,0,0,0,0,0,0
8,89999,62,80000,80,30000,0,9999,0.100000,0,0,0.000000,4,0.000000,0.000000,0.386045,0,0,0,0,0,0,0
8,89999,63,80000,80,30000,0,9999,0.100000,0,0,0.000000,4,0.000000,0.000000,0.306058,0,0,0,0,0,0,0
8,89999,64,80000,80,30000,0,9999,0.100000,0,0,0.000000,4,0.000000,0.000000,0.397953,0,0,0,0,0,0,0
8,89999,65,80000,9,40000,1,9999,0.100000,0,0,0.000000,4,4.000000,0.000000,5.263529,0,0,0,0,0,0,0
8,89999,66,80000,1,0,0,9999,0.100000,0,0,0.000000,4,0.000000,0.000000,0.237027,0,0,0,0,0,0,0
8,89999,67,80000,80,30000,0,9999,0.100000,0,0,0.000000,4,0.000000,0.000000,0.078999,0,0,0,0,0,0,0
8,89999,68,80000,1,0,0,9999,0.100000,0,0,0.000000,4,0.000000,0.000000,0.256583,0,0,0,0,0,0,0
8,89999,69,80000,0,10000,0,9999,0.100000,0,0,0.000000,4,0.000000,0.000000,0.242698,0,0,0,0,0,0,0
8,89999,70,80000,1,0,0,9999,0.100000,0,0,0.000000,4,0.000000,0.000000,0.098110,0,0,0,0,0,0,0
8,89999,71,80000,9,40000,0,9999,0.100000,0,0,0.000000,4,0.000000,0.000000,8.852092,0,0,0,0,0,0,0
8,89999,72,80000,80,30000,0,9999,0.100000,0,0,0.000000,4,0.000000,0.000000,0.152364,0,0,0,0,0,0,0
8,89999,73,80000,1,0,0,9999,0.100000,0,0,0.000000,4,0.000000,0.000000,0.123291,0,0,0,0,0,0,0
8,89999,74,80000,0,10000,0,9999,0.100000,0,0,0.000000,4,0.000000,0.000000,0.516312,0,0,0,0,0,0,0
8,89999,75,80000,1,0,0,9999,0.100000,0,0,0.000000,4,0.000000,0.000000,0.577368,0,0,0,0,0,0,0
8,89999,76,80000,9,40000,0,9999,0.100000,0,0,0.000000,4,0.000000,0.000000,0.624486,0,0,0,0,0,0,0
8,89999,77,80000,80,30000,1,9999,0.100000,0,0,0.000000,4,1.000000,0.000000,5.754519,0,0,0,0,0,0,0
8,89999,78,80000,0,10000,0,9999,0.100000,0,0,0.000000,4,0.000000,0.000000,0.200047,0,0,0,0,0,0,0
8,89999,79,80000,9,40000,0,9999,0.100000,0,0,0.000000,4,0.000000,0.000000,0.079292,0,0,0,0,0,0,0
8,89999,80,80000,9,40000,0,9999,0.100000,0,0,0.000000,4,0.000000,0.000000,2.179861,0,0,0,0,0,0,0
8,89999,81,80000,1,0,0,9999,0.100000,0,0,0.000000,4,0.000000,0.000000,0.640194,0,0,0,0,0,0,0
8,89999,82,80000,0,10000,0,9999,0.100000,0,0,0.000000,4,0.000000,0.000000,0.253979,0,0,0,0,0,0,0
8,89999,83,80000,0,10000,0,9999,0.100000,0,0,0.000000,4,0.000000,0.000000,1.564949,0,0,0,0,0,0,0
8,89999,84,80000,0,10000,0,9999,0.100000,0,0,0.000000,4,0.000000,0.000000,0.239762,0,0,0,0,0,0,0
8,89999,85,80000,9,40000,0,9999,0.100000,0,0,0.000000,4,0.000000,0.000000,0.167420,0,0,0,0,0,0,0
8,89999,86,80000,80,30000,0,9999,0.100000,0,0,0.000000,4,0.000000,0.000000,0.093028,0,0,0,0,0,0,0
8,89999,87,80000,0,10000,0,9999,0.100000,0,0,0.000000,4,0.000000,0.000000,0.757316,0,0,0,0,0,0,0
8,89999,88,80000,1,0,0,9999,0.100000,0,0,0.000000,4,0.000000,0.000000,0.426098,0,0,0,0,0,0,0
8,89999,89,80000,1,0,0,9999,0.100000,0,0,0.000000,4,0.000000,0.000000,0.088969,0,0,0,0,0,0,0
8,89999,90,80000,80,30000,0,9999,0.100000,0,0,0.000000,4,0.000000,0.000000,0.137997,0,0,0,0,0,0,0
8,89999,91,80000,1,0,0,9999,0.100000,0,0,0.000000,4,0.000000,0.000000,0.447475,0,0,0,0,0,0,0
8,89999,92,80000,80,30000,0,9999,0.100000,0,0,0.000000,4,0.000000,0.000000,0.161400,0,0,0,0,0,0,0
8,89999,93,80000,9,40000,0,9999,0.100000,0,0,0.000000,4,0.000000,0.000000,0.097516,0,0,0,0,0,0,0
8,89999,94,80000,1,0,0,9999,0.100000,0,0,0.000000,4,0.000000,0.000000,0.106592,0,0,0,0,0,0,0
8,89999,95,80000,0,10000,0,9999,0.100000,0,0,0.000000,4,0.000000,0.000000,0.685012,0,0,0,0,0,0,0
8,89999,96,80000,80,30000,0,9999,0.100000,0,0,0.000000,4,0.000000,0.000000,0.072742,0,0,0,0,0,0,0
8,89999,97,80000,9,40000,0,9999,0.100000,0,0,0.000000,4,0.000000,0.000000,0.091059,0,0,0,0,0,0,0
8,89999,98,80000,1,0,0,9999,0.100000,0,0,0.000000,4,0.000000,0.000000,0.089205,0,0,0,0,0,0,0
8,89999,99,80000,80,30000,0,9999,0.100000,0,0,0.000000,4,0.000000,0.000000,0.100364,0,0,0,0,0,0,0
9,99999,0,90000,80,30000,0,9999,0.100000,0,0,0.000000,4,0.000000,0.000000,0.914602,0,0,0,0,0,0,0
9,99999,1,90000,80,30000,0,9999,0.100000,0,0,0.000000,4,0.000000,0.000000,0.195708,0,0,0,0,0,0,0
9,99999,2,90000,80,30000,0,9999,0.100000,0,0,0.000000,4,0.000000,0.000000,0.452676,0,0,0,0,0,0,0
9,99999,3,90000,80,30000,1,9999,0.100000,0,0,0.000000,4,1.000000,0.000000,6.027953,0,0,0,0,0,0,0
9,99999,4,90000,80,30000,0,9999,0.100000,0,0,0.000000,4,0.000000,0.000000,0.423817,0,0,0,0,0,0,0
9,99999,5,90000,9,40000,0,9999,0.100000,0,0,0.000000,4,0.000000,0.000000,0.816774,0,0,0,0,0,0,0
9,99999,6,90000,9,40000,0,9999,0.100000,0,0,0.000000,4,0.000000,0.000000,0.250573,0,0,0,0,0,0,0
9,99999,7,90000,9,40000,0,9999,0.100000,0,0,0.000000,4,0.000000,0.000000,0.585458,0,0,0,0,0,0,0
9,99999,8,90000,80,30000,0,9999,0.100000,0,0,0.000000,4,0.000000,0.000000,0.811835,0,0,0,0,0,0,0
9,99999,9,90000,80,30000,0,9999,0.100000,0,0,0.000000,4,0.000000,0.000000,0.751449,0,0,0,0,0,0,0
9,99999,10,90000,80,30000,0,9999,0.100000,0,0,0.000000,4,0.000000,0.000000,0.798920,0,0,0,0,0,0,0
9,99999,11,90000,1,0,0,9999,0.100000,0,0,0.000000,4,0.000000,0.000000,0.845450,0,0,0,0,0,0,0
9,99999,12,90000,1,0,0,9999,0.100000,0,0,0.000000,4,0.000000,0.000000,0.161957,0,0,0,0,0,0,0
9,99999,13,90000,9,40000,0,9999,0.100000,0,0,0.000000,4,0.000000,0.000000,0.089054,0,0,0,0,0,0,0
9,99999,14,90000,0,10000,0,9999,0.100000,0,0,0.000000,4,0.000000,0.000000,6.314524,0,0,0,0,0,0,0
9,99999,15,90000,9,40000,0,9999,0.100000,0,0,0.000000,4,0.000000,0.000000,0.623203,0,0,0,0,0,0,0
9,99999,16,90000,1,0,0,9999,0.100000,0,0,0.000000,4,0.000000,0.000000,1.361744,0,0,0,0,0,0,0
9,99999,17,90000,80,30000,0,9999,0.100000,0,0,0.000000,4,0.000000,0.000000,2.148266,0,0,0,0,0,0,0
9,99999,18,90000,0,10000,1,9999,0.100000,0,0,0.000000,4,3.000000,0.000000,3.828735,0,0,0,0,0,0,0
9,99999,19,90000,80,30000,0,9999,0.100000,0,0,0.000000,4,0.000000,0.000000,4.047973,0,0,0,0,0,0,0
9,99999,20,90000,9,40000,0,9999,0.100000,0,0,0.000000,4,0.000000,0.000000,0.097756,0,0,0,0,0,0,0
9,99999,21,90000,0,10000,0,9999,0.100000,0,0,0.000000,4,0.000000,0.000000,0.136152,0,0,0,0,0,0,0
9,99999,22,90000,9,40000,0,9999,0.100000,0,0,0.000000,4,0.000000,0.000000,0.372434,0,0,0,0,0,0,0
9,99999,23,90000,0,10000,0,9999,0.100000,0,0,0.000000,4,0.000000,0.000000,0.171497,0,0,0,0,0,0,0
9,99999,24,90000,9,40000,1,9999,0.100000,0,0,0.000000,4,1.000000,0.000000,10.182473,0,0,0,0,0,0,0
9,99999,25,90000,80,30000,0,9999,0.100000,0,0,0.000000,4,0.000000,0.000000,21.678426,0,0,0,0,0,0,0
9,99999,26,90000,9,40000,0,9999,0.100000,0,0,0.000000,4,0.000000,0.000000,6.739927,0,0,0,0,0,0,0
9,99999,27,90000,9,40000,0,9999,0.100000,0,0,0.000000,4,0.000000,0.000000,0.080507,0,0,0,0,0,0,0
9,99999,28,90000,9,40000,0,9999,0.100000,0,0,0.000000,4,0.000000,0.000000,0.420537,0,0,0,0,0,0,0
9,99999,29,90000,80,30000,0,9999,0.100000,0,0,0.000000,4,0.000000,0.000000,0.061602,0,0,0,0,0,0,0
9,99999,30,90000,1,0,0,9999,0.100000,0,0,0.000000,4,0.000000,0.000000,0.318161,0,0,0,0,0,0,0
9,99999,31,90000,80,30000,0,9999,0.100000,0,0,0.000000,4,0.000000,0.000000,12.877012,0,0,0,0,0,0,0
9,99999,32,90000,0,10000,0,9999,0.100000,0,0,0.000000,4,0.000000,0.000000,23.973847,0,0,0,0,0,0,0
9,99999,33,90000,9,40000,0,9999,0.100000,0,0,0.000000,4,0.000000,0.000000,0.085448,0,0,0,0,0,0,0
9,99999,34,90000,1,0,1,9999,0.100000,0,0,0.000000,4,1.000000,0.000000,9.660311,0,0,0,0,0,0,0
9,99999,35,90000,80,30000,0,9999,0.100000,0,0,0.000000,4,0.000000,0.000000,0.137129,0,0,0,0,0,0,0
9,99999,36,90000,80,30000,0,9999,0.100000,0,0,0.000000,4,0.000000,0.000000,0.415686,0,0,0,0,0,0,0
9,99999,37,90000,9,40000,1,9999,0.100000,0,0,0.000000,4,2.000000,0.000000,2.280615,0,0,0,0,0,0,0
9,99999,38,90000,80,30000,0,9999,0.100000,0,0,0.000000,4,0.000000,0.000000,1.637485,0,0,0,0,0,0,0
9,99999,39,90000,0,10000,0,9999,0.100000,0,0,0.000000,4,0.000000,0.000000,0.244640,0,0,0,0,0,0,0
9,99999,40,90000,1,0,0,9999,0.100000,0,0,0.000000,4,0.000000,0.000000,0.237993,0,0,0,0,0,0,0
9,99999,41,90000,1,0,0,9999,0.100000,0,0,0.000000,4,0.000000,0.000000,0.094076,0,0,0,0,0,0,0
9,99999,42,90000,1,0,0,9999,0.100000,0,0,0.000000,4,0.000000,0.000000,0.212048,0,0,0,0,0,0,0
9,99999,43,90000,80,30000,0,9999,0.100000,0,0,0.000000,4,0.000000,0.000000,0.449744,0,0,0,0,0,0,0
9,99999,44,90000,80,30000,0,9999,0.100000,0,0,0.000000,4,0.000000,0.000000,10.382478,0,0,0,0,0,0,0
9,99999,45,90000,0,10000,0,9999,0.100000,0,0,0.000000,4,0.000000,0.000000,0.338147,0,0,0,0,0,0,0
9,99999,46,90000,80,30000,0,9999,0.100000,0,0,0.000000,4,0.000000,0.000000,0.459163,0,0,0,0,0,0,0
9,99999,47,90000,80,30000,1,9999,0.100000,0,0,0.000000,4,1.000000,0.000000,15.254736,0,0,0,0,0,0,0
9,99999,48,90000,80,30000,0,9999,0.100000,0,0,0.000000,4,0.000000,0.000000,1.001410,0,0,0,0,0,0,0
9,99999,49,90000,0,10000,0,9999,0.100000,0,0,0.000000,4,0.000000,0.000000,16.060335,0,0,0,0,0,0,0
9,99999,50,90000,1,0,0,9999,0.100000,0,0,0.000000,4,0.000000,0.000000,0.097609,0,0,0,0,0,0,0
9,99999,51,90000,0,10000,0,9999,0.100000,0,0,0.000000,4,0.000000,0.000000,0.171367,0,0,0,0,0,0,0
9,99999,52,90000,80,30000,0,9999,0.100000,0,0,0.000000,4,0.000000,0.000000,0.263061,0,0,0,0,0,0,0
9,99999,53,90000,1,0,0,9999,0.100000,0,0,0.000000,4,0.000000,0.000000,0.175628,0,0,0,0,0,0,0
9,99999,54,90000,9,40000,0,9999,0.100000,0,0,0.000000,4,0.000000,0.000000,0.086916,0,0,0,0,0,0,0
9,99999,55,90000,9,40000,0,9999,0.100000,0,0,0.000000,4,0.000000,0.000000,0.621625,0,0,0,0,0,0,0
9,99999,56,90000,1,0,1,9999,0.100000,0,0,0.000000,4,4.000000,0.000000,9.191184,0,0,0,0,0,0,0
9,99999,57,90000,80,30000,0,9999,0.100000,0,0,0.000000,4,0.000000,0.000000,1.381516,0,0,0,0,0,0,0
9,99999,58,90000,1,0,0,9999,0.100000,0,0,0.000000,4,0.000000,0.000000,0.727007,0,0,0,0,0,0,0
9,99999,59,90000,9,40000,0,9999,0.100000,0,0,0.000000,4,0.000000,0.000000,0.201145,0,0,0,0,0,0,0
9,99999,60,90000,9,40000,0,9999,0.135000,0,0,0.000000,4,0.000000,0.000000,0.085201,0,0,0,0,0,0,0
9,99999,61,90000,9,40000,0,9999,0.100000,0,0,0.000000,4,0.000000,0.000000,1.541187,0,0,0,0,0,0,0
9,99999,62,90000,9,40000,0,9999,0.100000,0,0,0.000000,4,0.000000,0.000000,0.264672,0,0,0,0,0,0,0
9,99999,63,90000,0,10000,0,9999,0.100000,0,0,0.000000,4,0.000000,0.000000,0.397021,0,0,0,0,0,0,0
9,99999,64,90000,1,0,0,9999,0.100000,0,0,0.000000,4,0.000000,0.000000,0.448409,0,0,0,0,0,0,0
9,99999,65,90000,9,40000,0,9999,0.100000,0,0,0.000000,4,0.000000,0.000000,3.916696,0,0,0,0,0,0,0
9,99999,66,90000,1,0,0,9999,0.100000,0,0,0.000000,4,0.000000,0.000000,0.240751,0,0,0,0,0,0,0
9,99999,67,90000,1,0,0,9999,0.100000,0,0,0.000000,4,0.000000,0.000000,0.079040,0,0,0,0,0,0,0
9,99999,68,90000,0,10000,0,9999,0.100000,0,0,0.000000,4,0.000000,0.000000,0.455996,0,0,0,0,0,0,0
9,99999,69,90000,80,30000,0,9999,0.100000,0,0,0.000000,4,0.000000,0.000000,0.229411,0,0,0,0,0,0,0
9,99999,70,90000,0,10000,0,9999,0.100000,0,0,0.000000,4,0.000000,0.000000,0.110067,0,0,0,0,0,0,0
9,99999,71,90000,80,30000,1,9999,0.100000,0,0,0.000000,4,1.000000,0.000000,11.595364,0,0,0,0,0,0,0
9,99999,72,90000,80,30000,0,9999,0.100000,0,0,0.000000,4,0.000000,0.000000,0.135758,0,0,0,0,0,0,0
9,99999,73,90000,80,30000,0,9999,0.100000,0,0,0.000000,4,0.000000,0.000000,0.089129,0,0,0,0,0,0,0
9,99999,74,90000,1,0,0,9999,0.100000,0,0,0.000000,4,0.000000,0.000000,0.550789,0,0,0,0,0,0,0
9,99999,75,90000,9,40000,0,9999,0.100000,0,0,0.000000,4,0.000000,0.000000,0.517747,0,0,0,0,0,0,0
9,99999,76,90000,1,0,0,9999,0.100000,0,0,0.000000,4,0.000000,0.000000,0.742208,0,0,0,0,0,0,0
9,99999,77,90000,9,40000,0,9999,0.100000,0,0,0.000000,4,0.000000,0.000000,0.168769,0,0,0,0,0,0,0
9,99999,78,90000,9,40000,0,9999,0.100000,0,0,0.000000,4,0.000000,0.000000,0.203542,0,0,0,0,0,0,0
9,99999,79,90000,80,30000,0,9999,0.100000,0,0,0.000000,4,0.000000,0.000000,0.079146,0,0,0,0,0,0,0
9,99999,80,90000,1,0,0,9999,0.100000,0,0,0.000000,4,0.000000,0.000000,0.727114,0,0,0,0,0,0,0
9,99999,81,90000,9,40000,1,9999,0.100000,0,0,0.000000,4,2.000000,0.000000,6.444800,0,0,0,0,0,0,0
9,99999,82,90000,1,0,0,9999,0.100000,0,0,0.000000,4,0.000000,0.000000,0.386241,0,0,0,0,0,0,0
9,99999,83,90000,80,30000,0,9999,0.100000,0,0,0.000000,4,0.000000,0.000000,1.644527,0,0,0,0,0,0,0
9,99999,84,90000,80,30000,0,9999,0.100000,0,0,0.000000,4,0.000000,0.000000,0.203995,0,0,0,0,0,0,0
9,99999,85,90000,0,10000,1,9999,0.100000,0,0,0.000000,4,2.000000,0.000000,5.294070,0,0,0,0,0,0,0
9,99999,86,90000,9,40000,0,9999,0.100000,0,0,0.000000,4,0.000000,0.000000,0.086773,0,0,0,0,0,0,0
9,99999,87,90000,1,0,0,9999,0.100000,0,0,0.000000,4,0.000000,0.000000,0.371811,0,0,0,0,0,0,0
9,99999,88,90000,0,10000,0,9999,0.100000,0,0,0.000000,4,0.000000,0.000000,0.456310,0,0,0,0,0,0,0
9,99999,89,90000,1,0,0,9999,0.100000,0,0,0.000000,4,0.000000,0.000000,0.080889,0,0,0,0,0,0,0
9,99999,90,90000,1,0,0,9999,0.100000,0,0,0.000000,4,0.000000,0.000000,0.159303,0,0,0,0,0,0,0
9,99999,91,90000,80,30000,0,9999,0.100000,0,0,0.000000,4,0.000000,0.000000,0.418295,0,0,0,0,0,0,0
9,99999,92,90000,9,40000,0,9999,0.100000,0,0,0.000000,4,0.000000,0.000000,0.087575,0,0,0,0,0,0,0
9,99999,93,90000,9,40000,0,9999,0.100000,0,0,0.000000,4,0.000000,0.000000,0.083159,0,0,0,0,0,0,0
9,99999,94,90000,0,10000,0,9999,0.065000,0,0,0.000000,4,0.000000,0.000000,0.113049,0,0,0,0,0,0,0
9,99999,95,90000,1,0,1,9999,0.100000,0,0,0.000000,4,2.000000,0.000000,3.149643,0,0,0,0,0,0,0
9,99999,96,90000,80,30000,0,9999,0.100000,0,0,0.000000,4,0.000000,0.000000,0.074895,0,0,0,0,0,0,0
9,99999,97,90000,80,30000,0,9999,0.100000,0,0,0.000000,4,0.000000,0.000000,0.080674,0,0,0,0,0,0,0
9,99999,98,90000,80,30000,1,9999,0.100000,0,0,0.000000,4,6.000000,0.000000,26.481655,0,0,0,0,0,0,0
9,99999,99,90000,80,30000,0,9999,0.100000,0,0,0.000000,4,0.000000,0.000000,0.084550,0,0,0,0,0,0,0
10,109999,0,100000,9,40000,0,9999,0.100000,0,0,0.000000,4,0.000000,0.000000,0.822334,0,0,0,0,0,0,0
10,109999,1,100000,0,10000,0,9999,0.100000,0,0,0.000000,4,0.000000,0.000000,0.196679,0,0,0,0,0,0,0
10,109999,2,100000,80,30000,0,9999,0.100000,0,0,0.000000,4,0.000000,0.000000,0.218720,0,0,0,0,0,0,0
10,109999,3,100000,80,30000,1,9999,0.100000,0,0,0.000000,4,1.000000,0.000000,10.528230,0,0,0,0,0,0,0
10,109999,4,100000,80,30000,0,9999,0.100000,0,0,0.000000,4,0.000000,0.000000,0.398346,0,0,0,0,0,0,0
10,109999,5,100000,80,30000,1,9999,0.100000,0,0,0.000000,4,1.000000,0.000000,2.244564,0,0,0,0,0,0,0
10,109999,6,100000,0,10000,0,9999,0.100000,0,0,0.000000,4,0.000000,0.000000,0.258223,0,0,0,0,0,0,0
10,109999,7,100000,0,10000,0,9999,0.100000,0,0,0.000000,4,0.000000,0.000000,0.504009,0,0,0,0,0,0,0
10,109999,8,100000,9,40000,0,9999,0.100000,0,0,0.000000,4,0.000000,0.000000,0.998600,0,0,0,0,0,0,0
10,109999,9,100000,1,0,0,9999,0.100000,0,0,0.000000,4,0.000000,0.000000,5.351806,0,0,0,0,0,0,0
10,109999,10,100000,9,40000,1,9999,0.100000,0,0,0.000000,4,1.000000,0.000000,2.345892,0,0,0,0,0,0,0
10,109999,11,100000,9,40000,0,9999,0.100000,0,0,0.000000,4,0.000000,0.000000,0.767255,0,0,0,0,0,0,0
10,109999,12,100000,0,10000,0,9999,0.100000,0,0,0.000000,4,0.000000,0.000000,0.615775,0,0,0,0,0,0,0
10,109999,13,100000,0,10000,0,9999,0.100000,0,0,0.000000,4,0.000000,0.000000,0.088268,0,0,0,0,0,0,0
10,109999,14,100000,1,0,0,9999,0.100000,0,0,0.000000,4,0.000000,0.000000,5.853968,0,0,0,0,0,0,0
10,109999,15,100000,9,40000,0,9999,0.100000,0,0,0.000000,4,0.000000,0.000000,0.638056,0,0,0,0,0,0,0
10,109999,16,100000,80,30000,0,9999,0.100000,0,0,0.000000,4,0.000000,0.000000,2.829800,0,0,0,0,0,0,0
10,109999,17,100000,0,10000,0,9999,0.100000,0,0,0.000000,4,0.000000,0.000000,2.218302,0,0,0,0,0,0,0
10,109999,18,100000,0,10000,0,9999,0.100000,0,0,0.000000,4,0.000000,0.000000,0.277567,0,0,0,0,0,0,0
10,109999,19,100000,1,0,0,9999,0.100000,0,0,0.000000,4,0.000000,0.000000,0.925452,0,0,0,0,0,0,0
10,109999,20,100000,0,10000,0,9999,0.100000,0,0,0.000000,4,0.000000,0.000000,0.274916,0,0,0,0,0,0,0
10,109999,21,100000,9,40000,0,9999,0.100000,0,0,0.000000,4,0.000000,0.000000,0.147161,0,0,0,0,0,0,0
10,109999,22,100000,1,0,0,9999,0.100000,0,0,0.000000,4,0.000000,0.000000,0.164125,0,0,0,0,0,0,0
10,109999,23,100000,80,30000,0,9999,0.100000,0,0,0.000000,4,0.000000,0.000000,0.283798,0,0,0,0,0,0,0
10,109999,24,100000,1,0,0,9999,0.100000,0,0,0.000000,4,0.000000,0.000000,2.373314,0,0,0,0,0,0,0
10,109999,25,100000,1,0,0,9999,0.100000,0,0,0.000000,4,0.000000,0.000000,21.397106,0,0,0,0,0,0,0
10,109999,26,100000,80,30000,0,9999,0.100000,0,0,0.000000,4,0.000000,0.000000,10.791161,0,0,0,0,0,0,0
10,109999,27,100000,0,10000,0,9999,0.100000,0,0,0.000000,4,0.000000,0.000000,0.080955,0,0,0,0,0,0,0
10,109999,28,100000,80,30000,0,9999,0.100000,0,0,0.000000,4,0.000000,0.000000,0.331068,0,0,0,0,0,0,0
10,109999,29,100000,1,0,0,9999,0.100000,0,0,0.000000,4,0.000000,0.000000,0.061996,0,0,0,0,0,0,0
10,109999,30,100000,0,10000,0,9999,0.100000,0,0,0.000000,4,0.000000,0.000000,0.337491,0,0,0,0,0,0,0
10,109999,31,100000,80,30000,0,9999,0.100000,0,0,0.000000,4,0.000000,0.000000,13.186201,0,0,0,0,0,0,0
10,109999,32,100000,9,40000,0,9999,0.100000,0,0,0.000000,4,0.000000,0.000000,23.832478,0,0,0,0,0,0,0
10,109999,33,100000,9,40000,0,9999,0.100000,0,0,0.000000,4,0.000000,0.000000,0.078968,0,0,0,0,0,0,0
10,109999,34,100000,9,40000,1,9999,0.100000,0,0,0.000000,4,1.000000,0.000000,10.247173,0,0,0,0,0,0,0
10,109999,35,100000,1,0,0,9999,0.100000,0,0,0.000000,4,0.000000,0.000000,0.140580,0,0,0,0,0,0,0
10,109999,36,100000,1,0,0,9999,0.100000,0,0,0.000000,4,0.000000,0.000000,0.499249,0,0,0,0,0,0,0
10,109999,37,100000,80,30000,1,9999,0.100000,0,0,0.000000,4,3.000000,0.000000,15.123487,0,0,0,0,0,0,0
10,109999,38,100000,80,30000,0,9999,0.100000,0,0,0.000000,4,0.000000,0.000000,1.664737,0,0,0,0,0,0,0
10,109999,39,100000,80,30000,1,9999,0.100000,0,0,0.000000,4,1.000000,0.000000,6.213346,0,0,0,0,0,0,0
10,109999,40,100000,1,0,0,9999,0.100000,0,0,0.000000,4,0.000000,0.000000,0.242625,0,0,0,0,0,0,0
10,109999,41,100000,9,40000,0,9999,0.100000,0,0,0.000000,4,0.000000,0.000000,0.361547,0,0,0,0,0,0,0
10,109999,42,100000,9,40000,0,9999,0.100000,0,0,0.000000,4,0.000000,0.000000,0.200842,0,0,0,0,0,0,0
10,109999,43,100000,0,10000,0,9999,0.100000,0,0,0.000000,4,0.000000,0.000000,0.424392,0,0,0,0,0,0,0
10,109999,44,100000,9,40000,0,9999,0.100000,0,0,0.000000,4,0.000000,0.000000,0.355664,0,0,0,0,0,0,0
10,109999,45,100000,80,30000,1,9999,0.100000,0,0,0.000000,4,6.000000,0.000000,13.445467,0,0,0,0,0,0,0
10,109999,46,100000,1,0,0,9999,0.100000,0,0,0.000000,4,0.000000,0.000000,0.350024,0,0,0,0,0,0,0
10,109999,47,100000,0,10000,1,9999,0.100000,0,0,0.000000,4,1.000000,0.000000,10.915717,0,0,0,0,0,0,0
10,109999,48,100000,80,30000,0,9999,0.100000,0,0,0.000000,4,0.000000,0.000000,0.956720,0,0,0,0,0,0,0
10,109999,49,100000,9,40000,0,9999,0.100000,0,0,0.000000,4,0.000000,0.000000,11.692089,0,0,0,0,0,0,0
10,109999,50,100000,0,10000,0,9999,0.100000,0,0,0.000000,4,0.000000,0.000000,0.214468,0,0,0,0,0,0,0
10,109999,51,100000,9,40000,0,9999,0.100000,0,0,0.000000,4,0.000000,0.000000,0.111155,0,0,0,0,0,0,0
10,109999,52,100000,9,40000,0,9999,0.100000,0,0,0.000000,4,0.000000,0.000000,0.238701,0,0,0,0,0,0,0
10,109999,53,100000,1,0,0,9999,0.100000,0,0,0.000000,4,0.000000,0.000000,0.149000,0,0,0,0,0,0,0
10,109999,54,100000,80,30000,0,9999,0.100000,0,0,0.000000,4,0.000000,0.000000,0.085621,0,0,0,0,0,0,0
10,109999,55,100000,1,0,0,9999,0.100000,0,0,0.000000,4,0.000000,0.000000,0.559635,0,0,0,0,0,0,0
10,109999,56,100000,1,0,0,9999,0.100000,0,0,0.000000,4,0.000000,0.000000,0.697488,0,0,0,0,0,0,0
10,109999,57,100000,1,0,0,9999,0.100000,0,0,0.000000,4,0.000000,0.000000,0.846573,0,0,0,0,0,0,0
10,109999,58,100000,80,30000,0,9999,0.100000,0,0,0.000000,4,0.000000,0.000000,0.567172,0,0,0,0,0,0,0
10,109999,59,100000,1,0,0,9999,0.100000,0,0,0.000000,4,0.000000,0.000000,0.203162,0,0,0,0,0,0,0
10,109999,60,100000,0,10000,0,9999,0.100000,0,0,0.000000,4,0.000000,0.000000,0.085496,0,0,0,0,0,0,0
10,109999,61,100000,80,30000,0,9999,0.100000,0,0,0.000000,4,0.000000,0.000000,2.573806,0,0,0,0,0,0,0
10,109999,62,100000,80,30000,0,9999,0.100000,0,0,0.000000,4,0.000000,0.000000,0.256518,0,0,0,0,0,0,0
10,109999,63,100000,9,40000,0,9999,0.100000,0,0,0.000000,4,0.000000,0.000000,0.618561,0,0,0,0,0,0,0
10,109999,64,100000,0,10000,0,9999,0.100000,0,0,0.000000,4,0.000000,0.000000,0.488523,0,0,0,0,0,0,0
10,109999,65,100000,9,40000,1,9999,0.100000,0,0,0.000000,4,2.000000,0.000000,2.488834,0,0,0,0,0,0,0
10,109999,66,100000,1,0,0,9999,0.100000,0,0,0.000000,4,0.000000,0.000000,0.233573,0,0,0,0,0,0,0
10,109999,67,100000,9,40000,0,9999,0.100000,0,0,0.000000,4,0.000000,0.000000,0.081741,0,0,0,0,0,0,0
10,109999,68,100000,9,40000,0,9999,0.100000,0,0,0.000000,4,0.000000,0.000000,1.046889,0,0,0,0,0,0,0
10,109999,69,100000,0,10000,0,9999,0.100000,0,0,0.000000,4,0.000000,0.000000,0.231600,0,0,0,0,0,0,0
10,109999,70,100000,0,10000,0,9999,0.100000,0,0,0.000000,4,0.000000,0.000000,0.086252,0,0,0,0,0,0,0
10,109999,71,100000,9,40000,1,9999,0.100000,0,0,0.000000,4,1.000000,0.000000,11.484129,0,0,0,0,0,0,0
10,109999,72,100000,1,0,0,9999,0.100000,0,0,0.000000,4,0.000000,0.000000,0.170218,0,0,0,0,0,0,0
10,109999,73,100000,9,40000,0,9999,0.100000,0,0,0.000000,4,0.000000,0.000000,0.092948,0,0,0,0,0,0,0
10,109999,74,100000,9,40000,0,9999,0.100000,0,0,0.000000,4,0.000000,0.000000,0.549538,0,0,0,0,0,0,0
10,109999,75,100000,80,30000,0,9999,0.100000,0,0,0.000000,4,0.000000,0.000000,0.652640,0,0,0,0,0,0,0
10,109999,76,100000,1,0,0,9999,0.100000,0,0,0.000000,4,0.000000,0.000000,0.634326,0,0,0,0,0,0,0
10,109999,77,100000,80,30000,0,9999,0.100000,0,0,0.000000,4,0.000000,0.000000,0.194409,0,0,0,0,0,0,0
10,109999,78,100000,80,30000,0,9999,0.100000,0,0,0.000000,4,0.000000,0.000000,0.296919,0,0,0,0,0,0,0
10,109999,79,100000,80,30000,0,9999,0.100000,0,0,0.000000,4,0.000000,0.000000,0.078073,0,0,0,0,0,0,0
10,109999,80,100000,0,10000,0,9999,0.100000,0,0,0.000000,4,0.000000,0.000000,0.489674,0,0,0,0,0,0,0
10,109999,81,100000,80,30000,0,9999,0.100000,0,0,0.000000,4,0.000000,0.000000,9.691673,0,0,0,0,0,0,0
10,109999,82,100000,1,0,0,9999,0.100000,0,0,0.000000,4,0.000000,0.000000,0.525357,0,0,0,0,0,0,0
10,109999,83,100000,1,0,1,9999,0.100000,0,0,0.000000,4,4.000000,0.000000,11.341606,0,0,0,0,0,0,0
10,109999,84,100000,80,30000,0,9999,0.100000,0,0,0.000000,4,0.000000,0.000000,0.232314,0,0,0,0,0,0,0
10,109999,85,100000,9,40000,0,9999,0.100000,0,0,0.000000,4,0.000000,0.000000,0.146546,0,0,0,0,0,0,0
10,109999,86,100000,1,0,0,9999,0.100000,0,0,0.000000,4,0.000000,0.000000,0.089180,0,0,0,0,0,0,0
10,109999,87,100000,9,40000,0,9999,0.100000,0,0,0.000000,4,0.000000,0.000000,0.424199,0,0,0,0,0,0,0
10,109999,88,100000,9,40000,0,9999,0.100000,0,0,0.000000,4,0.000000,0.000000,0.258851,0,0,0,0,0,0,0
10,109999,89,100000,0,10000,0,9999,0.100000,0,0,0.000000,4,0.000000,0.000000,0.080294,0,0,0,0,0,0,0
10,109999,90,100000,0,10000,0,9999,0.100000,0,0,0.000000,4,0.000000,0.000000,0.283054,0,0,0,0,0,0,0
10,109999,91,100000,1,0,0,9999,0.100000,0,0,0.000000,4,0.000000,0.000000,0.398572,0,0,0,0,0,0,0
10,109999,92,100000,9,40000,0,9999,0.100000,0,0,0.000000,4,0.000000,0.000000,0.086559,0,0,0,0,0,0,0
10,109999,93,100000,0,10000,0,9999,0.100000,0,0,0.000000,4,0.000000,0.000000,0.082732,0,0,0,0,0,0,0
10,109999,94,100000,80,30000,0,9999,0.100000,0,0,0.000000,4,0.000000,0.000000,0.124705,0,0,0,0,0,0,0
10,109999,95,100000,0,10000,1,9999,0.100000,0,0,0.000000,4,3.000000,0.000000,7.978185,0,0,0,0,0,0,0
10,109999,96,100000,80,30000,0,9999,0.100000,0,0,0.000000,4,0.000000,0.000000,0.075850,0,0,0,0,0,0,0
10,109999,97,100000,80,30000,0,9999,0.100000,0,0,0.000000,4,0.000000,0.000000,0.087541,0,0,0,0,0,0,0
10,109999,98,100000,80,30000,0,9999,0.100000,0,0,0.000000,4,0.000000,0.000000,0.084448,0,0,0,0,0,0,0
10,109999,99,100000,9,40000,0,9999,0.100000,0,0,0.000000,4,0.000000,0.000000,0.091520,0,0,0,0,0,0,0
11,119999,0,110000,1,0,0,9999,0.100000,0,0,0.000000,4,0.000000,0.000000,2.536622,0,0,0,0,0,0,0
11,119999,1,110000,1,0,0,9999,0.100000,0,0,0.000000,4,0.000000,0.000000,0.199754,0,0,0,0,0,0,0
11,119999,2,110000,1,0,0,9999,0.100000,0,0,0.000000,4,0.000000,0.000000,0.210880,0,0,0,0,0,0,0
11,119999,3,110000,80,30000,1,9999,0.100000,0,0,0.000000,4,1.000000,0.000000,11.854986,0,0,0,0,0,0,0
11,119999,4,110000,1,0,0,9999,0.100000,0,0,0.000000,4,0.000000,0.000000,0.374720,0,0,0,0,0,0,0
11,119999,5,110000,0,10000,1,9999,0.100000,0,0,0.000000,4,1.000000,0.000000,4.835810,0,0,0,0,0,0,0
11,119999,6,110000,80,30000,0,9999,0.100000,0,0,0.000000,4,0.000000,0.000000,0.346481,0,0,0,0,0,0,0
11,119999,7,110000,80,30000,0,9999,0.100000,0,0,0.000000,4,0.000000,0.000000,0.373423,0,0,0,0,0,0,0
11,119999,8,110000,9,40000,0,9999,0.100000,0,0,0.000000,4,0.000000,0.000000,1.005158,0,0,0,0,0,0,0
11,119999,9,110000,80,30000,1,9999,0.100000,0,0,0.000000,4,2.000000,0.000000,4.088372,0,0,0,0,0,0,0
11,119999,10,110000,9,40000,1,9999,0.100000,0,0,0.000000,4,1.000000,0.000000,5.863528,0,0,0,0,0,0,0
11,119999,11,110000,80,30000,0,9999,0.100000,0,0,0.000000,4,0.000000,0.000000,0.621882,0,0,0,0,0,0,0
11,119999,12,110000,9,40000,1,9999,0.100000,0,0,0.000000,4,1.000000,0.000000,1.346315,0,0,0,0,0,0,0
11,119999,13,110000,0,10000,0,9999,0.100000,0,0,0.000000,4,0.000000,0.000000,0.088493,0,0,0,0,0,0,0
11,119999,14,110000,0,10000,0,9999,0.100000,0,0,0.000000,4,0.000000,0.000000,6.082253,0,0,0,0,0,0,0
11,119999,15,110000,9,40000,0,9999,0.100000,0,0,0.000000,4,0.000000,0.000000,1.158294,0,0,0,0,0,0,0
11,119999,16,110000,9,40000,0,9999,0.100000,0,0,0.000000,4,0.000000,0.000000,2.891088,0,0,0,0,0,0,0
11,119999,17,110000,9,40000,0,9999,0.100000,0,0,0.000000,4,0.000000,0.000000,2.241629,0,0,0,0,0,0,0
11,119999,18,110000,9,40000,0,9999,0.100000,0,0,0.000000,4,0.000000,0.000000,0.113043,0,0,0,0,0,0,0
11,119999,19,110000,0,10000,0,9999,0.100000,0,0,0.000000,4,0.000000,0.000000,3.145277,0,0,0,0,0,0,0
11,119999,20,110000,80,30000,1,9999,0.100000,0,0,0.000000,4,1.000000,0.000000,2.212005,0,0,0,0,0,0,0
11,119999,21,110000,1,0,0,9999,0.100000,0,0,0.000000,4,0.000000,0.000000,0.134342,0,0,0,0,0,0,0
11,119999,22,110000,0,10000,0,9999,0.100000,0,0,0.000000,4,0.000000,0.000000,0.162506,0,0,0,0,0,0,0
11,119999,23,110000,1,0,1,9999,0.100000,0,0,0.000000,4,1.000000,0.000000,1.255464,0,0,0,0,0,0,0
11,119999,24,110000,0,10000,1,9999,0.100000,0,0,0.000000,4,1.000000,0.000000,7.584039,0,0,0,0,0,0,0
11,119999,25,110000,9,40000,0,9999,0.100000,0,0,0.000000,4,0.000000,0.000000,21.573334,0,0,0,0,0,0,0
11,119999,26,110000,80,30000,1,9999,0.100000,0,0,0.000000,4,1.000000,0.000000,9.986860,0,0,0,0,0,0,0
11,119999,27,110000,80,30000,0,9999,0.100000,0,0,0.000000,4,0.000000,0.000000,0.074418,0,0,0,0,0,0,0
11,119999,28,110000,80,30000,0,9999,0.100000,0,0,0.000000,4,0.000000,0.000000,0.432820,0,0,0,0,0,0,0
11,119999,29,110000,80,30000,0,9999,0.100000,0,0,0.000000,4,0.000000,0.000000,0.058867,0,0,0,0,0,0,0
11,119999,30,110000,0,10000,0,9999,0.100000,0,0,0.000000,4,0.000000,0.000000,0.358851,0,0,0,0,0,0,0
11,119999,31,110000,80,30000,0,9999,0.100000,0,0,0.000000,4,0.000000,0.000000,13.932949,0,0,0,0,0,0,0
11,119999,32,110000,80,30000,0,9999,0.100000,0,0,0.000000,4,0.000000,0.000000,23.914818,0,0,0,0,0,0,0
11,119999,33,110000,0,10000,0,9999,0.100000,0,0,0.000000,4,0.000000,0.000000,0.076537,0,0,0,0,0,0,0
11,119999,34,110000,80,30000,0,9999,0.100000,0,0,0.000000,4,0.000000,0.000000,11.115376,0,0,0,0,0,0,0
11,119999,35,110000,80,30000,0,9999,0.100000,0,0,0.000000,4,0.000000,0.000000,0.147370,0,0,0,0,0,0,0
11,119999,36,110000,80,30000,1,9999,0.100000,0,0,0.000000,4,1.000000,0.000000,1.148180,0,0,0,0,0,0,0
11,119999,37,110000,0,10000,1,9999,0.100000,0,0,0.000000,4,3.000000,0.000000,12.632614,0,0,0,0,0,0,0
11,119999,38,110000,1,0,0,9999,0.100000,0,0,0.000000,4,0.000000,0.000000,1.577760,0,0,0,0,0,0,0
11,119999,39,110000,0,10000,1,9999,0.100000,0,0,0.000000,4,2.000000,0.000000,3.194283,0,0,0,0,0,0,0
11,119999,40,110000,0,10000,0,9999,0.100000,0,0,0.000000,4,0.000000,0.000000,0.243598,0,0,0,0,0,0,0
11,119999,41,110000,9,40000,1,9999,0.100000,0,0,0.000000,4,1.000000,0.000000,2.301533,0,0,0,0,0,0,0
11,119999,42,110000,1,0,0,9999,0.100000,0,0,0.000000,4,0.000000,0.000000,0.205231,0,0,0,0,0,0,0
11,119999,43,110000,80,30000,0,9999,0.100000,0,0,0.000000,4,0.000000,0.000000,0.332102,0,0,0,0,0,0,0
11,119999,44,110000,0,10000,0,9999,0.100000,0,0,0.000000,4,0.000000,0.000000,0.282538,0,0,0,0,0,0,0
11,119999,45,110000,0,10000,0,9999,0.100000,0,0,0.000000,4,0.000000,0.000000,0.271469,0,0,0,0,0,0,0
11,119999,46,110000,1,0,0,9999,0.100000,0,0,0.000000,4,0.000000,0.000000,0.244175,0,0,0,0,0,0,0
11,119999,47,110000,1,0,1,9999,0.100000,0,0,0.000000,4,1.000000,0.000000,6.250479,0,0,0,0,0,0,0
11,119999,48,110000,1,0,0,9999,0.100000,0,0,0.000000,4,0.000000,0.000000,0.950471,0,0,0,0,0,0,0
11,119999,49,110000,1,0,1,9999,0.100000,0,0,0.000000,4,1.000000,0.000000,3.515283,0,0,0,0,0,0,0
11,119999,50,110000,1,0,1,9999,0.100000,0,0,0.000000,4,1.000000,0.000000,2.016465,0,0,0,0,0,0,0
11,119999,51,110000,1,0,0,9999,0.100000,0,0,0.000000,4,0.000000,0.000000,0.186748,0,0,0,0,0,0,0
11,119999,52,110000,0,10000,0,9999,0.100000,0,0,0.000000,4,0.000000,0.000000,0.166048,0,0,0,0,0,0,0
11,119999,53,110000,1,0,0,9999,0.100000,0,0,0.000000,4,0.000000,0.000000,1.686624,0,0,0,0,0,0,0
11,119999,54,110000,0,10000,0,9999,0.100000,0,0,0.000000,4,0.000000,0.000000,0.087608,0,0,0,0,0,0,0
11,119999,55,110000,80,30000,0,9999,0.100000,0,0,0.000000,4,0.000000,0.000000,0.502397,0,0,0,0,0,0,0
11,119999,56,110000,1,0,0,9999,0.100000,0,0,0.000000,4,0.000000,0.000000,0.083819,0,0,0,0,0,0,0
11,119999,57,110000,80,30000,0,9999,0.100000,0,0,0.000000,4,0.000000,0.000000,0.376930,0,0,0,0,0,0,0
11,119999,58,110000,80,30000,0,9999,0.100000,0,0,0.000000,4,0.000000,0.000000,0.478647,0,0,0,0,0,0,0
11,119999,59,110000,9,40000,0,9999,0.100000,0,0,0.000000,4,0.000000,0.000000,0.197940,0,0,0,0,0,0,0
11,119999,60,110000,9,40000,0,9999,0.100000,0,0,0.000000,4,0.000000,0.000000,0.087207,0,0,0,0,0,0,0
11,119999,61,110000,1,0,1,9999,0.100000,0,0,0.000000,4,1.000000,0.000000,1.672223,0,0,0,0,0,0,0
11,119999,62,110000,1,0,0,9999,0.100000,0,0,0.000000,4,0.000000,0.000000,0.304630,0,0,0,0,0,0,0
11,119999,63,110000,1,0,0,9999,0.100000,0,0,0.000000,4,0.000000,0.000000,0.999978,0,0,0,0,0,0,0
11,119999,64,110000,1,0,1,9999,0.100000,0,0,0.000000,4,2.000000,0.000000,6.096988,0,0,0,0,0,0,0
11,119999,65,110000,1,0,1,9999,0.100000,0,0,0.000000,4,3.000000,0.000000,12.183758,0,0,0,0,0,0,0
11,119999,66,110000,0,10000,0,9999,0.100000,0,0,0.000000,4,0.000000,0.000000,0.244015,0,0,0,0,0,0,0
11,119999,67,110000,0,10000,0,9999,0.100000,0,0,0.000000,4,0.000000,0.000000,0.078167,0,0,0,0,0,0,0
11,119999,68,110000,1,0,0,9999,0.100000,0,0,0.000000,4,0.000000,0.000000,2.563710,0,0,0,0,0,0,0
11,119999,69,110000,80,30000,0,9999,0.100000,0,0,0.000000,4,0.000000,0.000000,0.249154,0,0,0,0,0,0,0
11,119999,70,110000,9,40000,0,9999,0.100000,0,0,0.000000,4,0.000000,0.000000,0.078163,0,0,0,0,0,0,0
11,119999,71,110000,80,30000,1,9999,0.100000,0,0,0.000000,4,1.000000,0.000000,10.661947,0,0,0,0,0,0,0
11,119999,72,110000,0,10000,0,9999,0.100000,0,0,0.000000,4,0.000000,0.000000,0.171697,0,0,0,0,0,0,0
11,119999,73,110000,9,40000,0,9999,0.100000,0,0,0.000000,4,0.000000,0.000000,0.084865,0,0,0,0,0,0,0
11,119999,74,110000,9,40000,0,9999,0.100000,0,0,0.000000,4,0.000000,0.000000,0.526844,0,0,0,0,0,0,0
11,119999,75,110000,0,10000,0,9999,0.100000,0,0,0.000000,4,0.000000,0.000000,0.742369,0,0,0,0,0,0,0
11,119999,76,110000,9,40000,0,9999,0.100000,0,0,0.000000,4,0.000000,0.000000,0.566278,0,0,0,0,0,0,0
11,119999,77,110000,9,40000,0,9999,0.100000,0,0,0.000000,4,0.000000,0.000000,0.232356,0,0,0,0,0,0,0
11,119999,78,110000,1,0,1,9999,0.100000,0,0,0.000000,4,1.000000,0.000000,1.840111,0,0,0,0,0,0,0
11,119999,79,110000,9,40000,0,9999,0.100000,0,0,0.000000,4,0.000000,0.000000,0.097711,0,0,0,0,0,0,0
11,119999,80,110000,80,30000,1,9999,0.100000,0,0,0.000000,4,1.000000,0.000000,2.867267,0,0,0,0,0,0,0
11,119999,81,110000,80,30000,0,9999,0.100000,0,0,0.000000,4,0.000000,0.000000,15.984207,0,0,0,0,0,0,0
11,119999,82,110000,0,10000,0,9999,0.100000,0,0,0.000000,4,0.000000,0.000000,0.639010,0,0,0,0,0,0,0
11,119999,83,110000,1,0,0,9999,0.100000,0,0,0.000000,4,0.000000,0.000000,1.714739,0,0,0,0,0,0,0
11,119999,84,110000,0,10000,0,9999,0.100000,0,0,0.000000,4,0.000000,0.000000,0.344692,0,0,0,0,0,0,0
11,119999,85,110000,1,0,0,9999,0.100000,0,0,0.000000,4,0.000000,0.000000,0.110403,0,0,0,0,0,0,0
11,119999,86,110000,9,40000,1,9999,0.100000,0,0,0.000000,4,7.000000,0.000000,14.703667,0,0,0,0,0,0,0
11,119999,87,110000,80,30000,0,9999,0.100000,0,0,0.000000,4,0.000000,0.000000,0.260482,0,0,0,0,0,0,0
11,119999,88,110000,1,0,0,9999,0.100000,0,0,0.000000,4,0.000000,0.000000,0.203870,0,0,0,0,0,0,0
11,119999,89,110000,9,40000,0,9999,0.100000,0,0,0.000000,4,0.000000,0.000000,0.080357,0,0,0,0,0,0,0
11,119999,90,110000,1,0,0,9999,0.100000,0,0,0.000000,4,0.000000,0.000000,0.324519,0,0,0,0,0,0,0
11,119999,91,110000,9,40000,0,9999,0.100000,0,0,0.000000,4,0.000000,0.000000,0.690321,0,0,0,0,0,0,0
11,119999,92,110000,9,40000,0,9999,0.100000,0,0,0.000000,4,0.000000,0.000000,0.098193,0,0,0,0,0,0,0
11,119999,93,110000,1,0,1,9999,0.100000,0,0,0.000000,4,6.000000,0.000000,13.598140,0,0,0,0,0,0,0
11,119999,94,110000,80,30000,0,9999,0.100000,0,0,0.000000,4,0.000000,0.000000,0.115658,0,0,0,0,0,0,0
11,119999,95,110000,1,0,1,9999,0.100000,0,0,0.000000,4,1.000000,0.000000,1.585079,0,0,0,0,0,0,0
11,119999,96,110000,0,10000,0,9999,0.100000,0,0,0.000000,4,0.000000,0.000000,0.077238,0,0,0,0,0,0,0
11,119999,97,110000,1,0,0,9999,0.100000,0,0,0.000000,4,0.000000,0.000000,0.084272,0,0,0,0,0,0,0
11,119999,98,110000,80,30000,0,9999,0.100000,0,0,0.000000,4,0.000000,0.000000,0.087613,0,0,0,0,0,0,0
11,119999,99,110000,1,0,0,9999,0.100000,0,0,0.000000,4,0.000000,0.000000,0.089051,0,0,0,0,0,0,0
12,129999,0,120000,80,30000,0,9999,0.100000,0,0,0.000000,4,0.000000,0.000000,1.014782,0,0,0,0,0,0,0
12,129999,1,120000,1,0,0,9999,0.100000,0,0,0.000000,4,0.000000,0.000000,0.199987,0,0,0,0,0,0,0
12,129999,2,120000,9,40000,0,9999,0.100000,0,0,0.000000,4,0.000000,0.000000,0.143986,0,0,0,0,0,0,0
12,129999,3,120000,1,0,0,9999,0.100000,0,0,0.000000,4,0.000000,0.000000,8.671133,0,0,0,0,0,0,0
12,129999,4,120000,9,40000,0,9999,0.100000,0,0,0.000000,4,0.000000,0.000000,0.508026,0,0,0,0,0,0,0
12,129999,5,120000,1,0,0,9999,0.100000,0,0,0.000000,4,0.000000,0.000000,1.000070,0,0,0,0,0,0,0
12,129999,6,120000,0,10000,0,9999,0.100000,0,0,0.000000,4,0.000000,0.000000,0.279118,0,0,0,0,0,0,0
12,129999,7,120000,0,10000,0,9999,0.100000,0,0,0.000000,4,0.000000,0.000000,0.325974,0,0,0,0,0,0,0
12,129999,8,120000,9,40000,0,9999,0.100000,0,0,0.000000,4,0.000000,0.000000,0.834845,0,0,0,0,0,0,0
12,129999,9,120000,80,30000,3,9999,0.100000,0,0,34.210526,4,8.000000,0.000000,9.118735,0,0,1,0,0,0,0
12,129999,10,120000,80,30000,0,9999,0.100000,0,0,0.000000,4,0.000000,0.000000,1.120749,0,0,0,0,0,0,0
12,129999,11,120000,1,0,0,9999,0.100000,0,0,0.000000,4,0.000000,0.000000,0.527460,0,0,0,0,0,0,0
12,129999,12,120000,9,40000,0,9999,0.100000,0,0,0.000000,4,0.000000,0.000000,0.628012,0,0,0,0,0,0,0
12,129999,13,120000,1,0,0,9999,0.100000,0,0,0.000000,4,0.000000,0.000000,0.088013,0,0,0,0,0,0,0
12,129999,14,120000,9,40000,0,9999,0.100000,0,0,0.000000,4,0.000000,0.000000,6.083817,0,0,0,0,0,0,0
12,129999,15,120000,80,30000,0,9999,0.100000,0,0,0.000000,4,0.000000,0.000000,0.979368,0,0,0,0,0,0,0
12,129999,16,120000,9,40000,0,9999,0.100000,0,0,0.000000,4,0.000000,0.000000,3.785012,0,0,0,0,0,0,0
12,129999,17,120000,80,30000,0,9999,0.100000,0,0,0.000000,4,0.000000,0.000000,2.235029,0,0,0,0,0,0,0
12,129999,18,120000,9,40000,0,9999,0.100000,0,0,0.000000,4,0.000000,0.000000,0.109899,0,0,0,0,0,0,0
12,129999,19,120000,9,40000,0,9999,0.100000,0,0,0.000000,4,0.000000,0.000000,1.393862,0,0,0,0,0,0,0
12,129999,20,120000,1,0,0,9999,0.100000,0,0,0.000000,4,0.000000,0.000000,1.807971,0,0,0,0,0,0,0
12,129999,21,120000,1,0,0,9999,0.100000,0,0,0.000000,4,0.000000,0.000000,0.164928,0,0,0,0,0,0,0
12,129999,22,120000,80,30000,0,9999,0.100000,0,0,0.000000,4,0.000000,0.000000,0.118645,0,0,0,0,0,0,0
12,129999,23,120000,0,10000,0,9999,0.100000,0,0,0.000000,4,0.000000,0.000000,0.639810,0,0,0,0,0,0,0
12,129999,24,120000,0,10000,1,9999,0.100000,0,0,0.000000,4,1.000000,0.000000,3.996240,0,0,0,0,0,0,0
12,129999,25,120000,0,10000,0,9999,0.100000,0,0,0.000000,4,0.000000,0.000000,21.238407,0,0,0,0,0,0,0
12,129999,26,120000,0,10000,1,9999,0.100000,0,0,0.000000,4,1.000000,0.000000,11.920730,0,0,0,0,0,0,0
12,129999,27,120000,0,10000,0,9999,0.100000,0,0,0.000000,4,0.000000,0.000000,0.064637,0,0,0,0,0,0,0
12,129999,28,120000,1,0,0,9999,0.100000,0,0,0.000000,4,0.000000,0.000000,0.301010,0,0,0,0,0,0,0
12,129999,29,120000,0,10000,0,9999,0.100000,0,0,0.000000,4,0.000000,0.000000,0.060443,0,0,0,0,0,0,0
12,129999,30,120000,9,40000,0,9999,0.100000,0,0,0.000000,4,0.000000,0.000000,0.324052,0,0,0,0,0,0,0
12,129999,31,120000,1,0,0,9999,0.100000,0,0,0.000000,4,0.000000,0.000000,12.971918,0,0,0,0,0,0,0
12,129999,32,120000,0,10000,0,9999,0.100000,0,0,0.000000,4,0.000000,0.000000,23.808335,0,0,0,0,0,0,0
12,129999,33,120000,1,0,0,9999,0.100000,0,0,0.000000,4,0.000000,0.000000,0.076113,0,0,0,0,0,0,0
12,129999,34,120000,9,40000,0,9999,0.100000,0,0,0.000000,4,0.000000,0.000000,8.291984,0,0,0,0,0,0,0
12,129999,35,120000,9,40000,0,9999,0.100000,0,0,0.000000,4,0.000000,0.000000,0.144340,0,0,0,0,0,0,0
12,129999,36,120000,0,10000,0,9999,0.100000,0,0,0.000000,4,0.000000,0.000000,0.759453,0,0,0,0,0,0,0
12,129999,37,120000,9,40000,0,9999,0.100000,0,0,0.000000,4,0.000000,0.000000,9.597334,0,0,0,0,0,0,0
12,129999,38,120000,9,40000,0,9999,0.100000,0,0,0.000000,4,0.000000,0.000000,1.731471,0,0,0,0,0,0,0
12,129999,39,120000,0,10000,1,9999,0.100000,0,0,0.000000,4,8.000000,0.000000,8.943255,0,0,0,0,0,0,0
12,129999,40,120000,0,10000,0,9999,0.100000,0,0,0.000000,4,0.000000,0.000000,0.227287,0,0,0,0,0,0,0
12,129999,41,120000,0,10000,0,9999,0.100000,0,0,0.000000,4,0.000000,0.000000,1.919384,0,0,0,0,0,0,0
12,129999,42,120000,1,0,0,9999,0.100000,0,0,0.000000,4,0.000000,0.000000,0.212995,0,0,0,0,0,0,0
12,129999,43,120000,80,30000,0,9999,0.100000,0,0,0.000000,4,0.000000,0.000000,0.216199,0,0,0,0,0,0,0
12,129999,44,120000,80,30000,0,9999,0.100000,0,0,0.000000,4,0.000000,0.000000,0.105907,0,0,0,0,0,0,0
12,129999,45,120000,1,0,0,9999,0.100000,0,0,0.000000,4,0.000000,0.000000,0.260493,0,0,0,0,0,0,0
