generation,iteration,robot,birthday,ancestor_id,ancestor_birthday,cell_id,age,sigma,maps,genomes,fitness,cells_in_map,dist_max,dist_pot_max,dist_total,com_rx,com_tx,obj_group1,obj_group2,obj_group3,obj_group4,obj_group5
0,9999,0,0,0,0,40,9999,0.100000,99,0,0.000000,0,0.000000,27.773013,6.195149,99,99,0,0,0,0,0
0,9999,1,0,1,0,0,9999,0.100000,99,0,0.000000,0,2.000000,32.983690,4.972089,99,99,0,0,1,0,0
0,9999,2,0,2,0,40,9999,0.100000,99,0,0.000000,0,1.000000,27.445057,5.869755,99,99,0,0,0,0,0
0,9999,3,0,3,0,40,9999,0.100000,99,0,0.000000,0,0.000000,27.293929,2.524684,99,99,0,0,0,0,0
0,9999,4,0,4,0,0,9999,0.100000,99,0,0.082564,0,0.000000,31.727862,0.507024,99,99,0,1,0,0,0
0,9999,5,0,5,0,41,9999,0.100000,99,0,0.000000,0,2.000000,17.840918,18.700129,99,99,0,0,0,0,0
0,9999,6,0,6,0,40,9999,0.100000,99,0,0.000000,0,1.000000,25.703503,11.027107,99,99,0,0,0,0,0
0,9999,7,0,7,0,90,9999,0.100000,99,0,0.390176,0,2.000000,28.402445,6.639457,99,99,1,0,0,0,0
0,9999,8,0,8,0,0,9999,0.100000,99,0,0.284661,0,1.000000,19.363760,3.817288,99,99,0,0,0,0,1
0,9999,9,0,9,0,97,9999,0.100000,99,0,74.766186,0,15.000000,19.808160,23.624064,99,99,1,0,0,0,0
0,9999,10,0,10,0,41,9999,0.100000,99,0,0.000000,0,3.000000,16.390618,15.717911,99,99,0,0,0,0,0
0,9999,11,0,11,0,41,9999,0.100000,99,0,0.000000,0,6.000000,28.619613,10.475742,99,99,0,0,0,0,0
0,9999,12,0,12,0,0,9999,0.100000,99,0,0.073945,0,0.000000,25.132085,7.917286,99,99,0,1,0,0,0
0,9999,13,0,13,0,41,9999,0.100000,99,0,0.000000,0,4.000000,21.977479,14.274103,99,99,0,0,0,0,0
0,9999,14,0,14,0,1,9999,0.100000,99,0,0.003387,0,5.000000,24.698640,8.713045,99,99,0,0,1,0,0
0,9999,15,0,15,0,93,9999,0.100000,99,0,40.458415,0,8.000000,20.225947,17.277029,99,99,1,0,0,0,0
0,9999,16,0,16,0,41,9999,0.100000,99,0,0.000000,0,4.000000,26.036521,6.212905,99,99,0,0,0,0,0
0,9999,17,0,17,0,96,9999,0.100000,99,0,83.472932,0,17.000000,25.140013,23.125861,99,99,1,0,0,0,0
0,9999,18,0,18,0,40,9999,0.100000,99,0,0.000000,0,1.000000,27.837320,5.370847,99,99,0,0,0,0,0
0,9999,19,0,19,0,41,9999,0.100000,99,0,0.000000,0,3.000000,27.965523,12.989439,99,99,0,0,0,0,0
0,9999,20,0,20,0,40,9999,0.100000,99,0,0.000000,0,2.000000,29.289894,13.587093,99,99,-1,0,0,0,0
0,9999,21,0,21,0,41,9999,0.100000,99,0,0.000000,0,3.000000,26.936647,6.935381,99,99,0,0,0,0,0
0,9999,22,0,22,0,40,9999,0.100000,99,0,0.000000,0,0.000000,20.030454,0.820982,99,99,0,0,0,0,0
0,9999,23,0,23,0,41,9999,0.100000,99,0,14.779145,0,3.000000,26.611141,5.785451,99,99,0,0,0,0,0
0,9999,24,0,24,0,97,9999,0.100000,99,0,87.210381,0,17.000000,20.855874,20.832842,99,99,1,0,0,0,0
0,9999,25,0,25,0,40,9999,0.100000,99,0,0.000000,0,1.000000,19.716995,14.671038,99,99,0,0,0,0,0
0,9999,26,0,26,0,40,9999,0.100000,99,0,0.000000,0,2.000000,24.436759,4.834398,99,99,0,0,0,0,0
0,9999,27,0,27,0,40,9999,0.100000,99,0,0.000000,0,0.000000,21.269871,0.658404,99,99,0,0,0,0,0
0,9999,28,0,28,0,41,9999,0.100000,99,0,0.000000,0,4.000000,23.861097,13.276323,99,99,0,0,0,0,0
0,9999,29,0,29,0,40,9999,0.100000,99,0,0.000000,0,2.000000,19.121952,9.767159,99,99,0,0,0,0,0
0,9999,30,0,30,0,40,9999,0.100000,99,0,0.000000,0,3.000000,28.722446,14.264312,99,99,0,0,0,0,0
0,9999,31,0,31,0,40,9999,0.100000,99,0,0.000000,0,1.000000,26.249615,9.338784,99,99,0,0,0,0,0
0,9999,32,0,32,0,40,9999,0.100000,99,0,0.000000,0,3.000000,30.530221,11.278163,99,99,0,0,0,0,0
0,9999,33,0,33,0,42,9999,0.100000,99,0,0.000000,0,5.000000,15.984146,8.065635,99,99,0,0,0,0,0
0,9999,34,0,34,0,40,9999,0.100000,99,0,0.000000,0,1.000000,25.634897,7.087871,99,99,0,0,0,0,0
0,9999,35,0,35,0,40,9999,0.100000,99,0,0.000000,0,1.000000,19.152595,8.126094,99,99,0,0,0,0,0
0,9999,36,0,36,0,41,9999,0.100000,99,0,0.000000,0,3.000000,15.053712,10.308265,99,99,0,0,0,0,0
0,9999,37,0,37,0,40,9999,0.100000,99,0,0.000000,0,2.000000,27.321952,4.616142,99,99,0,0,0,0,0
0,9999,38,0,38,0,42,9999,0.100000,99,0,0.000000,0,4.000000,15.015974,15.907556,99,99,0,0,0,0,0
0,9999,39,0,39,0,40,9999,0.100000,99,0,0.000000,0,0.000000,17.376313,8.420041,99,99,0,0,0,0,0
0,9999,40,0,40,0,40,9999,0.100000,99,0,0.000000,0,1.000000,26.794344,5.471566,99,99,0,0,0,0,0
0,9999,41,0,41,0,41,9999,0.100000,99,0,0.000000,0,4.000000,26.513025,19.857432,99,99,0,0,0,0,0
0,9999,42,0,42,0,0,9999,0.100000,99,0,0.172432,0,0.000000,23.011533,0.626529,99,99,0,1,0,0,0
0,9999,43,0,43,0,0,9999,0.100000,99,0,0.840703,0,1.000000,27.304624,2.305233,99,99,0,0,0,0,1
0,9999,44,0,44,0,98,9999,0.100000,99,0,86.770723,0,14.000000,16.300793,24.703940,99,99,1,0,0,0,0
0,9999,45,0,45,0,40,9999,0.100000,99,0,0.000000,0,0.000000,23.862179,7.998896,99,99,0,0,0,0,0
0,9999,46,0,46,0,93,9999,0.100000,99,0,32.735618,0,7.000000,21.574109,18.361156,99,99,1,0,0,0,0
0,9999,47,0,47,0,40,9999,0.100000,99,0,0.000000,0,1.000000,13.721558,9.675014,99,99,0,0,0,0,0
0,9999,48,0,48,0,94,9999,0.100000,99,0,55.555284,0,10.000000,23.403358,16.922505,99,99,1,0,0,0,0
0,9999,49,0,49,0,40,9999,0.100000,99,0,0.000000,0,1.000000,31.900913,4.444050,99,99,0,0,0,0,0
0,9999,50,0,50,0,41,9999,0.100000,99,0,0.000000,0,4.000000,21.217843,17.937848,99,99,0,0,0,0,0
0,9999,51,0,51,0,40,9999,0.100000,99,0,0.000000,0,1.000000,26.641214,7.341115,99,99,0,0,0,0,0
0,9999,52,0,52,0,40,9999,0.100000,99,0,0.000000,0,0.000000,30.278067,1.583422,99,99,0,0,0,0,0
0,9999,53,0,53,0,40,9999,0.100000,99,0,0.000000,0,2.000000,25.086418,7.122176,99,99,0,0,0,0,0
0,9999,54,0,54,0,40,9999,0.100000,99,0,0.000000,0,1.000000,28.253767,7.531115,99,99,0,0,0,0,0
0,9999,55,0,55,0,90,9999,0.100000,99,0,12.325355,0,2.000000,27.123084,7.211657,99,99,1,0,0,0,0
0,9999,56,0,56,0,41,9999,0.100000,99,0,0.000000,0,4.000000,27.065169,11.428745,99,99,0,0,0,0,0
0,9999,57,0,57,0,40,9999,0.100000,99,0,0.000000,0,1.000000,18.070936,14.267500,99,99,0,0,0,0,0
0,9999,58,0,58,0,40,9999,0.100000,99,0,0.000000,0,3.000000,32.717835,9.090703,99,99,0,0,0,0,0
0,9999,59,0,59,0,40,9999,0.100000,99,0,0.000000,0,0.000000,26.443844,5.320056,99,99,0,0,0,0,0
0,9999,60,0,60,0,40,9999,0.100000,99,0,0.000000,0,3.000000,29.897990,13.439355,99,99,0,0,0,0,0
0,9999,61,0,61,0,0,9999,0.100000,99,0,1.234608,0,0.000000,26.401219,6.720267,99,99,0,1,0,0,0
0,9999,62,0,62,0,40,9999,0.100000,99,0,0.000000,0,0.000000,30.288174,13.341679,99,99,0,0,0,0,0
0,9999,63,0,63,0,90,9999,0.100000,99,0,0.770532,0,0.000000,25.161135,3.139172,99,99,1,0,0,0,0
0,9999,64,0,64,0,40,9999,0.100000,99,0,0.000000,0,0.000000,21.985408,23.649385,99,99,0,0,0,0,0
0,9999,65,0,65,0,40,9999,0.100000,99,0,0.000000,0,1.000000,27.048461,5.705211,99,99,0,0,0,0,0
0,9999,66,0,66,0,40,9999,0.100000,99,0,0.000000,0,2.000000,29.860010,13.310480,99,99,0,0,0,0,0
0,9999,67,0,67,0,93,9999,0.100000,99,0,39.884958,0,8.000000,23.905395,18.789021,99,99,1,0,0,0,0
0,9999,68,0,68,0,41,9999,0.100000,99,0,0.000000,0,2.000000,17.638063,6.304033,99,99,0,0,0,0,0
0,9999,69,0,69,0,40,9999,0.100000,99,0,0.000000,0,0.000000,27.861971,5.463084,99,99,0,0,0,0,0
0,9999,70,0,70,0,0,9999,0.100000,99,0,0.199677,0,0.000000,29.759048,2.126887,99,99,0,0,0,1,0
0,9999,71,0,71,0,40,9999,0.100000,99,0,0.000000,0,1.000000,29.325630,2.460293,99,99,0,0,0,0,0
0,9999,72,0,72,0,41,9999,0.100000,99,0,0.000000,0,5.000000,26.144658,10.236397,99,99,0,0,0,0,0
0,9999,73,0,73,0,40,9999,0.100000,99,0,0.000000,0,2.000000,23.778607,13.423456,99,99,0,0,0,0,0
0,9999,74,0,74,0,93,9999,0.100000,99,0,50.002548,0,9.000000,27.638594,19.690014,99,99,1,0,0,0,0
0,9999,75,0,75,0,92,9999,0.100000,99,0,31.468510,0,7.000000,28.309833,12.682893,99,99,1,0,0,0,0
0,9999,76,0,76,0,0,9999,0.100000,99,0,0.027600,0,0.000000,22.316655,0.394273,99,99,0,0,0,1,0
0,9999,77,0,77,0,40,9999,0.100000,99,0,0.000000,0,1.000000,30.461916,22.279833,99,99,0,0,0,0,0
0,9999,78,0,78,0,40,9999,0.100000,99,0,0.000000,0,2.000000,29.416488,6.842071,99,99,0,0,0,0,0
0,9999,79,0,79,0,40,9999,0.100000,99,0,0.000000,0,3.000000,28.886238,14.603669,99,99,0,0,0,0,0
0,9999,80,0,80,0,40,9999,0.100000,99,0,0.000000,0,1.000000,34.755201,13.250491,99,99,0,0,0,0,0
0,9999,81,0,81,0,0,9999,0.100000,99,0,0.998810,0,1.000000,18.542248,2.331429,99,99,0,0,0,0,1
0,9999,82,0,82,0,40,9999,0.100000,99,0,0.000000,0,1.000000,19.284934,6.746553,99,99,0,0,0,0,0
0,9999,83,0,83,0,40,9999,0.100000,99,0,0.000000,0,0.000000,29.804040,0.625812,99,99,0,0,0,0,0
0,9999,84,0,84,0,40,9999,0.100000,99,0,0.000000,0,1.000000,17.424958,16.101924,99,99,0,0,0,0,0
0,9999,85,0,85,0,0,9999,0.100000,99,0,0.441139,0,0.000000,33.048211,1.265142,99,99,0,0,0,0,1
0,9999,86,0,86,0,40,9999,0.100000,99,0,0.000000,0,1.000000,21.527792,8.042506,99,99,0,0,0,0,0
0,9999,87,0,87,0,41,9999,0.100000,99,0,27.499398,0,4.000000,24.615403,7.549801,99,99,1,0,0,1,0
0,9999,88,0,88,0,92,9999,0.100000,99,0,54.737608,0,8.000000,28.004999,23.784222,99,99,1,0,0,0,0
0,9999,89,0,89,0,40,9999,0.100000,99,0,0.000000,0,1.000000,27.297688,3.201440,99,99,0,0,0,0,0
0,9999,90,0,90,0,97,9999,0.100000,99,0,80.184044,0,15.000000,18.523497,24.899209,99,99,1,0,0,0,0
0,9999,91,0,91,0,41,9999,0.100000,99,0,0.000000,0,2.000000,17.427651,8.652345,99,99,0,0,0,0,0
0,9999,92,0,92,0,0,9999,0.100000,99,0,0.002300,0,0.000000,17.134423,0.571894,99,99,0,0,1,0,0
0,9999,93,0,93,0,40,9999,0.100000,99,0,0.000000,0,0.000000,18.628441,0.892662,99,99,0,0,0,0,0
0,9999,94,0,94,0,41,9999,0.100000,99,0,0.000000,0,2.000000,10.854401,5.366363,99,99,0,0,0,0,0
0,9999,95,0,95,0,0,9999,0.100000,99,0,0.018447,0,0.000000,15.682429,1.010424,99,99,0,0,0,0,1
0,9999,96,0,96,0,40,9999,0.100000,99,0,0.000000,0,0.000000,25.624660,5.778777,99,99,0,0,0,0,0
0,9999,97,0,97,0,43,9999,0.100000,99,0,0.000000,0,5.000000,12.475884,15.717137,99,99,0,0,0,0,0
0,9999,98,0,98,0,40,9999,0.100000,99,0,0.000000,0,1.000000,24.013208,7.828474,99,99,0,0,0,0,0
0,9999,99,0,99,0,40,9999,0.100000,99,0,0.000000,0,0.000000,16.609841,2.045874,99,99,0,0,0,0,0
1,19999,0,10000,0,0,40,9999,0.100000,99,0,0.000000,1,0.000000,27.063825,2.282377,99,99,0,0,0,0,0
1,19999,1,10000,50,0,40,9999,0.100000,99,0,0.000000,5,3.000000,32.944126,10.694496,99,99,0,0,0,0,0
1,19999,2,0,2,0,40,19999,0.100000,99,0,0.000000,1,0.000000,26.855925,4.499732,99,99,0,0,0,0,0
1,19999,3,10000,55,0,40,9999,0.100000,99,0,0.000000,11,0.000000,27.390315,1.063347,99,99,0,0,0,0,0
1,19999,4,10000,14,0,0,9999,0.100000,99,0,0.000329,10,0.000000,31.873088,0.229812,99,99,0,1,0,0,0
1,19999,5,10000,42,0,41,9999,0.100000,99,0,0.000000,3,3.000000,19.355964,9.542728,99,99,0,0,0,0,0
1,19999,6,10000,50,0,41,9999,0.100000,99,0,0.000000,5,4.000000,26.520171,6.542813,99,99,0,0,0,0,0
1,19999,7,10000,0,0,90,9999,0.100000,99,0,0.104144,3,0.000000,30.015644,0.732425,99,99,1,0,0,0,0
1,19999,8,10000,50,0,0,9999,0.100000,99,0,0.894939,11,0.000000,20.527141,0.301751,99,99,0,0,0,0,1
1,19999,9,10000,55,0,40,9999,0.100000,99,0,0.000000,9,1.000000,28.255229,6.030622,99,99,0,0,0,0,0
1,19999,10,10000,88,0,41,9999,0.100000,99,0,0.000000,9,2.000000,17.538730,9.038455,99,99,0,0,0,0,0
1,19999,11,10000,21,0,0,9999,0.100000,99,0,0.156545,8,2.000000,32.626617,4.702528,99,99,0,1,0,0,0
1,19999,12,10000,21,0,0,9999,0.100000,99,0,0.223459,9,0.000000,25.615943,0.155585,99,99,0,1,0,0,0
1,19999,13,10000,81,0,93,9999,0.100000,99,0,34.200542,11,8.000000,20.201641,11.869745,99,99,1,0,0,0,0
1,19999,14,10000,14,0,0,9999,0.100000,99,0,0.005611,5,0.000000,19.259091,0.115963,99,99,0,0,1,0,0
1,19999,15,10000,85,0,90,9999,0.100000,99,0,7.057706,9,2.000000,28.076982,11.306374,99,99,1,0,0,0,0
1,19999,16,10000,44,0,40,9999,0.100000,99,0,0.000000,9,0.000000,27.299368,0.845044,99,99,0,0,0,0,0
1,19999,17,10000,44,0,40,9999,0.100000,99,0,0.000000,9,0.000000,32.413569,10.499764,99,99,0,0,0,0,0
1,19999,18,10000,42,0,40,9999,0.100000,99,0,0.000000,9,0.000000,27.054923,1.367884,99,99,0,0,0,0,0
1,19999,19,10000,75,0,0,9999,0.100000,99,0,4.063384,11,2.000000,24.950662,17.206441,99,99,0,1,0,0,0
1,19999,20,10000,0,0,40,9999,0.100000,99,0,0.000000,5,0.000000,29.764955,8.091848,99,99,0,0,0,0,0
1,19999,21,10000,55,0,40,9999,0.100000,99,0,0.000000,8,1.000000,25.831172,6.202519,99,99,0,0,0,0,0
1,19999,22,10000,88,0,40,9999,0.100000,99,0,0.000000,11,0.000000,20.306317,0.618838,99,99,0,0,0,0,0
1,19999,23,10000,23,0,40,9999,0.100000,99,0,0.000000,5,0.000000,29.476926,9.373093,99,99,0,0,0,0,0
1,19999,24,10000,50,0,40,9999,0.100000,99,0,0.000000,8,0.000000,31.568891,9.597350,99,99,0,0,0,0,0
1,19999,25,10000,23,0,40,9999,0.100000,99,0,0.000000,11,0.000000,20.168639,1.495339,99,99,0,0,0,0,0
1,19999,26,10000,42,0,40,9999,0.100000,99,0,0.000000,9,2.000000,22.332571,5.387917,99,99,0,0,0,0,0
1,19999,27,10000,55,0,0,9999,0.100000,99,0,0.287177,8,0.000000,20.951087,0.315602,99,99,0,0,0,1,0
1,19999,28,10000,23,0,40,9999,0.100000,99,0,0.000000,8,1.000000,28.137047,7.975784,99,99,0,0,0,0,0
1,19999,29,10000,7,0,43,9999,0.100000,99,0,0.000000,7,6.000000,17.565329,12.763078,99,99,0,0,0,0,0
1,19999,30,10000,23,0,41,9999,0.100000,99,0,0.000000,9,3.000000,25.578960,20.196485,99,99,0,0,0,0,0
1,19999,31,10000,29,0,40,9999,0.100000,99,0,0.000000,7,1.000000,25.733675,9.517559,99,99,0,0,0,0,0
1,19999,32,10000,90,0,40,9999,0.100000,99,0,0.000000,9,0.000000,33.200405,0.647747,99,99,0,0,0,0,0
1,19999,33,10000,33,0,40,9999,0.100000,99,0,0.000000,4,0.000000,20.661256,0.426977,99,99,0,0,0,0,0
1,19999,34,10000,75,0,40,9999,0.100000,99,0,0.000000,11,1.000000,23.795885,9.874002,99,99,0,0,0,0,0
1,19999,35,10000,87,0,40,9999,0.100000,99,0,0.000000,11,0.000000,19.319658,15.265275,99,99,0,0,0,0,0
1,19999,36,10000,24,0,0,9999,0.100000,99,0,0.019912,9,1.000000,15.710290,2.681825,99,99,0,0,0,0,1
1,19999,37,10000,23,0,41,9999,0.100000,99,0,0.000000,11,3.000000,25.477464,7.580982,99,99,0,0,0,0,0
1,19999,38,10000,7,0,40,9999,0.100000,99,0,0.000000,7,1.000000,13.405108,5.732555,99,99,0,0,0,0,0
1,19999,39,10000,14,0,40,9999,0.100000,99,0,0.000000,11,1.000000,16.760169,3.220867,99,99,0,0,0,0,0
1,19999,40,10000,88,0,40,9999,0.100000,99,0,0.000000,7,0.000000,27.279111,9.554974,99,99,0,0,0,0,0
1,19999,41,10000,14,0,41,9999,0.100000,99,0,0.000000,9,3.000000,25.300331,6.869125,99,99,0,0,0,0,0
1,19999,42,10000,0,0,0,9999,0.100000,99,0,0.163571,2,0.000000,23.175896,0.177851,99,99,0,1,0,0,0
1,19999,43,10000,14,0,0,9999,0.100000,99,0,0.182575,11,0.000000,27.652207,0.104190,99,99,0,0,0,0,1
1,19999,44,10000,23,0,40,9999,0.100000,99,0,0.000000,9,3.000000,28.652012,7.581228,99,99,0,0,0,0,0
1,19999,45,10000,14,0,40,9999,0.100000,99,0,0.000000,5,0.000000,24.693858,7.193629,99,99,0,0,0,0,0
1,19999,46,10000,24,0,40,9999,0.100000,99,0,0.000000,9,0.000000,28.529584,3.788750,99,99,0,0,0,0,0
1,19999,47,10000,42,0,40,9999,0.100000,99,0,0.000000,5,0.000000,13.876018,0.998269,99,99,0,0,0,0,0
1,19999,48,10000,23,0,40,9999,0.100000,99,0,0.000000,10,2.000000,30.187392,8.683327,99,99,0,0,0,0,0
1,19999,49,10000,88,0,40,9999,0.100000,99,0,0.000000,9,0.000000,32.729543,1.762027,99,99,0,0,0,0,0
1,19999,50,10000,42,0,40,9999,0.100000,99,0,0.000000,5,1.000000,17.257058,4.290897,99,99,0,0,0,0,0
1,19999,51,10000,23,0,40,9999,0.100000,99,0,0.000000,11,1.000000,27.919300,9.466983,99,99,0,0,0,0,0
1,19999,52,10000,88,0,40,9999,0.100000,99,0,0.000000,9,0.000000,30.648037,0.999091,99,99,0,0,0,0,0
1,19999,53,10000,29,0,40,9999,0.100000,99,0,0.000000,7,0.000000,23.794053,5.319763,99,99,0,0,0,0,0
1,19999,54,10000,50,0,40,9999,0.100000,99,0,0.000000,10,1.000000,26.532798,9.736718,99,99,0,0,0,0,0
1,19999,55,10000,50,0,0,9999,0.100000,99,0,0.159657,8,0.000000,28.399681,0.503679,99,99,0,0,0,1,0
1,19999,56,10000,87,0,40,9999,0.100000,99,0,0.000000,11,1.000000,30.111957,4.890082,99,99,0,0,0,0,0
1,19999,57,10000,21,0,40,9999,0.100000,99,0,0.000000,9,0.000000,18.978868,4.233317,99,99,0,0,0,0,0
1,19999,58,10000,48,0,40,9999,0.100000,99,0,0.000000,11,0.000000,29.874172,1.335311,99,99,0,0,0,0,0
1,19999,59,10000,42,0,92,9999,0.100000,99,0,43.721138,2,7.000000,25.491492,12.835828,99,99,1,0,0,0,0
1,19999,60,10000,14,0,40,9999,0.100000,99,0,0.000000,9,0.000000,32.948117,10.014749,99,99,0,0,0,0,0
1,19999,61,10000,44,0,40,9999,0.100000,99,0,0.000000,11,2.000000,25.744174,4.735918,99,99,0,0,0,0,0
1,19999,62,10000,88,0,41,9999,0.100000,99,0,0.000000,8,4.000000,30.321151,11.418968,99,99,0,0,0,0,0
1,19999,63,10000,24,0,90,9999,0.100000,99,0,1.907182,10,0.000000,26.003759,0.775720,99,99,1,0,0,0,0
1,19999,64,10000,44,0,40,9999,0.100000,99,0,0.000000,10,0.000000,21.920597,23.669017,99,99,0,0,0,0,0
1,19999,65,10000,44,0,40,9999,0.100000,99,0,0.000000,11,0.000000,27.151254,0.828510,99,99,0,0,0,0,0
1,19999,66,10000,42,0,40,9999,0.100000,99,0,0.000000,5,1.000000,30.572015,4.629394,99,99,0,0,0,0,0
1,19999,67,10000,42,0,90,9999,0.100000,99,0,3.552390,9,1.000000,30.180830,6.164303,99,99,1,0,0,0,0
1,19999,68,10000,88,0,41,9999,0.100000,99,0,0.000000,8,2.000000,15.690827,3.189996,99,99,0,0,0,0,0
1,19999,69,10000,88,0,41,9999,0.100000,99,0,0.000000,9,3.000000,26.977384,11.272239,99,99,0,0,0,0,0
1,19999,70,10000,87,0,0,9999,0.100000,99,0,0.390956,11,0.000000,29.699144,0.766894,99,99,0,0,0,1,0
1,19999,71,10000,30,0,40,9999,0.100000,99,0,0.000000,10,0.000000,28.121286,0.092555,99,99,0,0,0,0,0
1,19999,72,10000,24,0,40,9999,0.100000,99,0,0.000000,9,0.000000,28.337484,0.621864,99,99,0,0,0,0,0
1,19999,73,10000,42,0,40,9999,0.100000,99,0,0.000000,5,2.000000,24.532994,3.723923,99,99,0,0,0,0,0
1,19999,74,10000,23,0,40,9999,0.100000,99,0,0.000000,8,1.000000,32.070483,4.679295,99,99,0,0,0,0,0
1,19999,75,10000,48,0,40,9999,0.100000,99,0,0.000000,11,1.000000,33.648127,5.737826,99,99,0,0,0,0,0
1,19999,76,10000,14,0,0,9999,0.100000,99,0,0.349118,5,0.000000,22.451768,0.116420,99,99,0,0,0,1,0
1,19999,77,10000,48,0,40,9999,0.100000,99,0,0.000000,11,0.000000,31.223934,23.833979,99,99,0,0,0,0,0
1,19999,78,10000,50,0,40,9999,0.100000,99,0,0.000000,8,0.000000,31.846201,7.356419,99,99,0,0,0,0,0
1,19999,79,10000,23,0,40,9999,0.100000,99,0,0.000000,8,1.000000,29.571919,7.811299,99,99,0,0,0,0,0
1,19999,80,10000,87,0,91,9999,0.100000,99,0,6.948887,11,5.000000,36.412031,15.601406,99,99,1,0,0,0,0
1,19999,81,10000,87,0,0,9999,0.100000,99,0,0.603162,11,0.000000,19.703448,1.095043,99,99,0,0,0,0,1
1,19999,82,10000,42,0,40,9999,0.100000,99,0,0.000000,5,0.000000,20.760324,0.239628,99,99,0,0,0,0,0
1,19999,83,10000,55,0,40,9999,0.100000,99,0,0.000000,11,0.000000,29.451368,0.201086,99,99,0,0,0,0,0
1,19999,84,10000,50,0,41,9999,0.100000,99,0,0.000000,11,3.000000,18.347857,5.868087,99,99,0,0,0,0,0
1,19999,85,10000,85,0,0,9999,0.100000,99,0,1.406514,9,0.000000,32.900605,0.515833,99,99,0,0,0,0,1
1,19999,86,10000,87,0,40,9999,0.100000,99,0,0.000000,11,0.000000,21.416415,0.459929,99,99,0,0,0,0,0
1,19999,87,10000,50,0,40,9999,0.100000,99,0,0.000000,11,0.000000,28.636279,0.296686,99,99,0,0,0,0,0
1,19999,88,10000,7,0,92,9999,0.100000,99,0,36.177314,6,7.000000,32.438854,13.989409,99,99,1,0,0,0,0
1,19999,89,10000,21,0,0,9999,0.100000,99,0,0.674627,9,0.000000,28.110299,3.239829,99,99,0,0,0,1,0
1,19999,90,10000,14,0,40,9999,0.100000,99,0,0.000000,9,0.000000,29.982665,4.621205,99,99,0,0,0,0,0
1,19999,91,10000,23,0,41,9999,0.100000,99,0,0.000000,11,4.000000,19.037762,8.605912,99,99,0,0,0,0,0
1,19999,92,10000,14,0,0,9999,0.100000,99,0,1.567797,11,0.000000,17.354005,0.489697,99,99,0,0,1,0,0
1,19999,93,10000,85,0,40,9999,0.100000,99,0,0.000000,9,0.000000,18.702405,0.115071,99,99,0,0,0,0,0
1,19999,94,10000,75,0,99,9999,0.100000,99,0,88.585770,11,15.000000,13.536702,24.771801,99,99,2,0,0,0,0
1,19999,95,10000,7,0,40,9999,0.100000,99,0,0.000000,7,0.000000,15.610356,0.658970,99,99,0,0,0,0,0
1,19999,96,10000,55,0,40,9999,0.100000,99,0,0.000000,11,1.000000,25.564270,7.183846,99,99,0,0,0,0,0
1,19999,97,10000,88,0,40,9999,0.100000,99,0,0.000000,11,0.000000,17.307661,0.673675,99,99,0,0,0,0,0
1,19999,98,10000,88,0,41,9999,0.100000,99,0,0.000000,11,4.000000,22.413977,9.101983,99,99,0,0,0,0,0
1,19999,99,10000,24,0,40,9999,0.100000,99,0,0.000000,9,0.000000,17.370195,0.356052,99,99,0,0,0,0,0
2,29999,0,20000,55,0,0,9999,0.100000,99,0,1.199189,11,0.000000,27.312727,1.462488,99,99,0,0,0,1,0
2,29999,1,20000,23,0,40,9999,0.100000,99,0,0.000000,11,1.000000,31.539285,12.331268,99,99,0,0,0,0,0
2,29999,2,20000,55,0,40,9999,0.100000,99,0,0.000000,11,1.000000,26.673064,5.675390,99,99,0,0,0,0,0
2,29999,3,20000,50,0,40,9999,0.100000,99,0,0.000000,11,1.000000,27.693992,12.231796,99,99,0,0,0,0,0
2,29999,4,20000,48,0,0,9999,0.100000,99,0,0.028312,11,0.000000,31.832924,0.206946,99,99,0,1,0,0,0
2,29999,5,20000,48,0,40,9999,0.100000,99,0,0.000000,11,0.000000,20.742310,0.752818,99,99,0,0,0,0,0
2,29999,6,20000,24,0,40,9999,0.100000,99,0,0.000000,11,0.000000,26.700789,0.850032,99,99,0,0,0,0,0
2,29999,7,20000,88,10000,90,9999,0.100000,99,0,0.022241,11,0.000000,30.130822,0.714530,99,99,1,0,0,0,0
2,29999,8,20000,44,0,0,9999,0.100000,99,0,0.748263,11,0.000000,20.659882,0.332693,99,99,0,0,0,0,1
2,29999,9,20000,48,0,40,9999,0.100000,99,0,0.000000,11,0.000000,27.889197,4.395038,99,99,0,0,0,0,0
2,29999,10,20000,50,0,0,9999,0.100000,99,0,0.550820,11,0.000000,19.642797,1.095556,99,99,0,0,0,0,1
2,29999,11,20000,88,10000,0,9999,0.100000,99,0,0.555329,11,0.000000,30.115457,0.197235,99,99,0,1,0,0,0
2,29999,12,20000,24,0,0,9999,0.100000,99,0,2.340507,11,0.000000,25.592184,0.918476,99,99,0,1,0,0,0
2,29999,13,20000,88,0,93,9999,0.100000,99,0,46.117248,11,9.000000,24.957447,15.954797,99,99,1,0,0,0,0
2,29999,14,20000,23,0,0,9999,0.100000,99,0,0.250561,11,0.000000,19.258088,0.142507,99,99,0,0,1,0,0
2,29999,15,20000,44,0,90,9999,0.100000,99,0,1.766330,11,0.000000,26.123530,0.864110,99,99,1,0,0,0,0
2,29999,16,20000,44,0,40,9999,0.100000,99,0,0.000000,11,1.000000,27.627485,9.282719,99,99,0,0,0,0,0
2,29999,17,20000,55,0,40,9999,0.100000,99,0,0.000000,11,3.000000,32.319468,5.382217,99,99,0,0,0,0,0
2,29999,18,20000,61,0,40,9999,0.100000,99,0,0.000000,11,0.000000,27.056238,0.717401,99,99,0,0,0,0,0
2,29999,19,20000,19,10000,1,9999,0.100000,99,0,19.135754,11,4.000000,26.885577,10.952666,99,99,0,1,0,0,0
2,29999,20,20000,61,0,40,9999,0.100000,99,0,0.000000,11,0.000000,29.702745,7.247447,99,99,0,0,0,0,0
2,29999,21,20000,50,0,40,9999,0.100000,99,0,0.000000,11,1.000000,25.997000,7.735044,99,99,0,0,0,0,0
2,29999,22,20000,88,0,40,9999,0.100000,99,0,0.000000,11,0.000000,20.544364,0.334069,99,99,0,0,0,0,0
2,29999,23,20000,88,10000,40,9999,0.100000,99,0,0.000000,11,0.000000,29.631489,6.619564,99,99,0,0,0,0,0
2,29999,24,20000,88,0,40,9999,0.100000,99,0,0.000000,11,2.000000,31.363685,6.089984,99,99,0,0,0,0,0
2,29999,25,20000,61,0,40,9999,0.100000,99,0,0.000000,11,0.000000,20.577242,0.496810,99,99,0,0,0,0,0
2,29999,26,20000,24,0,41,9999,0.100000,99,0,0.000000,11,3.000000,20.425980,6.041325,99,99,0,0,0,0,0
2,29999,27,20000,23,0,0,9999,0.100000,99,0,0.394549,11,0.000000,20.982878,0.176274,99,99,0,0,0,1,0
2,29999,28,20000,50,0,43,9999,0.100000,99,0,0.000000,11,10.000000,27.762851,18.336724,99,99,0,0,0,0,0
2,29999,29,20000,87,0,41,9999,0.100000,99,0,0.000000,11,4.000000,20.880110,12.092393,99,99,0,0,0,0,0
2,29999,30,20000,14,0,40,9999,0.100000,99,0,0.000000,11,1.000000,25.207418,5.112183,99,99,0,0,0,0,0
2,29999,31,20000,48,0,40,9999,0.100000,99,0,0.000000,11,1.000000,26.561784,9.168942,99,99,0,0,0,0,0
2,29999,32,20000,88,0,40,9999,0.100000,99,0,0.000000,11,0.000000,33.381633,0.629309,99,99,0,0,0,0,0
2,29999,33,20000,87,0,40,9999,0.100000,99,0,0.000000,11,0.000000,20.766025,0.392760,99,99,0,0,0,0,0
2,29999,34,20000,55,0,41,9999,0.100000,99,0,0.000000,11,3.000000,23.938216,8.990182,99,99,0,0,0,0,0
2,29999,35,20000,94,10000,40,9999,0.100000,99,0,0.000000,11,0.000000,19.533206,2.490871,99,99,0,0,0,0,0
2,29999,36,20000,24,0,0,9999,0.100000,99,0,0.027503,11,0.000000,15.759322,0.143800,99,99,0,0,0,0,1
2,29999,37,20000,23,0,40,9999,0.100000,99,0,0.000000,11,0.000000,22.406368,4.609408,99,99,0,0,0,0,0
2,29999,38,20000,87,0,90,9999,0.100000,99,0,3.037356,11,1.000000,14.673217,5.374485,99,99,1,0,0,0,0
2,29999,39,20000,55,0,41,9999,0.100000,99,0,0.000000,11,2.000000,17.369572,7.087956,99,99,0,0,0,0,0
2,29999,40,20000,14,0,40,9999,0.100000,99,0,0.000000,11,0.000000,27.979264,6.790030,99,99,0,0,0,0,0
2,29999,41,20000,55,0,40,9999,0.100000,99,0,0.000000,11,2.000000,26.113688,6.665855,99,99,0,0,0,0,0
2,29999,42,20000,75,0,0,9999,0.100000,99,0,0.159112,11,0.000000,23.151445,0.173939,99,99,0,1,0,0,0
2,29999,43,20000,48,0,0,9999,0.100000,99,0,0.595450,11,0.000000,27.648919,0.292431,99,99,0,0,0,0,1
2,29999,44,20000,48,0,40,9999,0.100000,99,0,0.000000,11,0.000000,27.350948,1.016564,99,99,0,0,0,0,0
2,29999,45,20000,14,0,40,9999,0.100000,99,0,0.000000,11,1.000000,24.927074,14.370875,99,99,0,0,0,0,0
2,29999,46,20000,94,10000,41,9999,0.100000,99,0,0.000000,11,6.000000,29.041048,17.704902,99,99,0,0,0,0,0
2,29999,47,20000,23,0,40,9999,0.100000,99,0,0.000000,11,0.000000,14.628310,0.986385,99,99,0,0,0,0,0
2,29999,48,20000,87,0,40,9999,0.100000,99,0,0.000000,11,1.000000,27.572224,11.944652,99,99,0,0,0,0,0
2,29999,49,20000,88,0,40,9999,0.100000,99,0,0.000000,11,0.000000,32.910104,2.056280,99,99,0,0,0,0,0
2,29999,50,20000,14,0,43,9999,0.100000,99,0,0.000000,11,5.000000,15.364137,11.848512,99,99,0,0,0,0,0
2,29999,51,20000,24,0,40,9999,0.100000,99,0,0.000000,11,0.000000,27.416148,5.057666,99,99,0,0,0,0,0
2,29999,52,20000,50,0,40,9999,0.100000,99,0,0.000000,11,0.000000,30.872582,1.023495,99,99,0,0,0,0,0
2,29999,53,20000,23,0,42,9999,0.100000,99,0,0.000000,11,5.000000,23.504314,7.321195,99,99,0,0,0,0,0
2,29999,54,20000,44,0,40,9999,0.100000,99,0,0.000000,11,1.000000,27.010314,5.407079,99,99,0,0,0,0,0
2,29999,55,20000,14,0,0,9999,0.100000,99,0,0.685665,11,0.000000,28.486795,0.468784,99,99,0,0,0,1,0
2,29999,56,20000,19,10000,40,9999,0.100000,99,0,0.000000,11,0.000000,29.355044,0.955659,99,99,0,0,0,0,0
2,29999,57,20000,55,0,40,9999,0.100000,99,0,0.000000,11,0.000000,19.803788,0.689933,99,99,0,0,0,0,0
2,29999,58,20000,87,0,40,9999,0.100000,99,0,0.000000,11,0.000000,29.787661,1.409137,99,99,0,0,0,0,0
2,29999,59,20000,55,0,90,9999,0.100000,99,0,12.437742,11,3.000000,31.124863,9.226475,99,99,1,0,0,0,0
2,29999,60,20000,44,0,40,9999,0.100000,99,0,0.000000,11,2.000000,32.737758,12.024762,99,99,0,0,0,0,0
2,29999,61,20000,88,10000,1,9999,0.100000,99,0,19.135754,11,3.000000,27.038279,12.508822,99,99,0,1,0,0,0
2,29999,62,20000,14,0,40,9999,0.100000,99,0,0.000000,11,0.000000,28.471695,0.374375,99,99,0,0,0,0,0
2,29999,63,20000,88,10000,90,9999,0.100000,99,0,9.743309,11,1.000000,25.894793,2.167143,99,99,1,0,0,0,0
2,29999,64,20000,50,0,40,9999,0.100000,99,0,0.000000,11,0.000000,22.655295,1.125056,99,99,0,0,0,0,0
2,29999,65,20000,88,0,40,9999,0.100000,99,0,0.000000,11,0.000000,27.153375,1.214271,99,99,0,0,0,0,0
2,29999,66,20000,50,0,40,9999,0.100000,99,0,0.000000,11,1.000000,31.475429,7.832519,99,99,0,0,0,0,0
2,29999,67,20000,88,10000,40,9999,0.100000,99,0,0.000000,11,1.000000,30.702946,13.069972,99,99,0,0,0,0,0
2,29999,68,20000,50,0,40,9999,0.100000,99,0,0.000000,11,0.000000,15.984140,0.238432,99,99,0,0,0,0,0
2,29999,69,20000,44,0,40,9999,0.100000,99,0,0.000000,11,0.000000,30.626325,3.511848,99,99,0,0,0,0,0
2,29999,70,20000,50,0,40,9999,0.100000,99,0,0.000000,11,0.000000,29.610742,0.797693,99,99,0,0,0,0,0
2,29999,71,20000,23,0,40,9999,0.100000,99,0,0.000000,11,0.000000,28.116335,0.152542,99,99,0,0,0,0,0
2,29999,72,20000,50,0,40,9999,0.100000,99,0,0.000000,11,0.000000,28.426996,0.512754,99,99,0,0,0,0,0
2,29999,73,20000,88,10000,40,9999,0.100000,99,0,0.000000,11,2.000000,25.365156,4.857711,99,99,0,0,0,0,0
2,29999,74,20000,88,10000,40,9999,0.100000,99,0,0.000000,11,1.000000,31.796482,13.641048,99,99,0,0,0,0,0
2,29999,75,20000,88,10000,40,9999,0.100000,99,0,0.000000,11,1.000000,32.906540,15.886486,99,99,0,0,0,0,0
2,29999,76,20000,88,0,0,9999,0.100000,99,0,0.439854,11,0.000000,22.487966,0.170133,99,99,0,0,0,1,0
2,29999,77,20000,23,0,40,9999,0.100000,99,0,0.000000,11,0.000000,31.317150,23.815443,99,99,0,0,0,0,0
2,29999,78,20000,23,0,90,9999,0.100000,99,0,0.200814,11,2.000000,31.374154,3.522005,99,99,1,0,0,0,0
2,29999,79,20000,23,0,0,9999,0.100000,99,0,1.117606,11,1.000000,31.465012,1.299849,99,99,0,0,0,0,1
2,29999,80,20000,24,0,90,9999,0.100000,99,0,13.547205,11,2.000000,31.332629,7.328921,99,99,1,0,0,0,0
2,29999,81,20000,88,0,40,9999,0.100000,99,0,0.000000,11,0.000000,19.803787,0.882144,99,99,0,0,0,0,0
2,29999,82,20000,88,10000,40,9999,0.100000,99,0,0.000000,11,0.000000,20.816419,0.653330,99,99,0,0,0,0,0
2,29999,83,20000,24,0,0,9999,0.100000,99,0,1.258146,11,0.000000,29.370373,0.327785,99,99,0,0,0,1,0
2,29999,84,20000,50,0,40,9999,0.100000,99,0,0.000000,11,0.000000,20.736122,0.256622,99,99,0,0,0,0,0
2,29999,85,20000,23,0,40,9999,0.100000,99,0,0.000000,11,0.000000,33.064481,0.527291,99,99,0,0,0,0,0
2,29999,86,20000,24,0,40,9999,0.100000,99,0,0.000000,11,0.000000,21.230612,2.021663,99,99,0,0,0,0,0
2,29999,87,20000,55,0,40,9999,0.100000,99,0,0.000000,11,0.000000,28.707975,0.295135,99,99,0,0,0,0,0
2,29999,88,20000,61,0,40,9999,0.100000,99,0,0.000000,11,1.000000,35.420383,14.598700,99,99,0,0,0,0,0
2,29999,89,20000,88,0,40,9999,0.100000,99,0,0.000000,11,0.000000,27.290148,1.213531,99,99,0,0,0,0,0
2,29999,90,20000,87,0,40,9999,0.100000,99,0,0.000000,11,0.000000,29.478707,2.499842,99,99,0,0,0,0,0
2,29999,91,20000,44,0,41,9999,0.100000,99,0,0.000000,11,2.000000,18.464428,5.436752,99,99,0,0,0,0,0
2,29999,92,20000,44,0,0,9999,0.100000,99,0,0.504823,11,0.000000,17.685934,0.324163,99,99,0,0,1,0,0
2,29999,93,20000,92,10000,40,9999,0.100000,99,0,0.000000,11,0.000000,18.701061,0.287660,99,99,0,0,0,0,0
2,29999,94,20000,48,0,41,9999,0.100000,99,0,0.000000,11,4.000000,27.383804,6.072106,99,99,0,0,0,0,0
2,29999,95,20000,44,0,40,9999,0.100000,99,0,0.000000,11,0.000000,15.487375,0.210381,99,99,0,0,0,0,0
2,29999,96,20000,88,0,40,9999,0.100000,99,0,0.000000,11,1.000000,24.968237,9.768800,99,99,0,0,0,0,0
2,29999,97,20000,94,10000,40,9999,0.100000,99,0,0.000000,11,0.000000,17.654241,0.451423,99,99,0,0,0,0,0
2,29999,98,20000,44,0,40,9999,0.100000,99,0,0.000000,11,0.000000,23.640786,1.010802,99,99,0,0,0,0,0
2,29999,99,20000,88,0,40,9999,0.100000,99,0,0.000000,11,0.000000,17.661126,0.273944,99,99,0,0,0,0,0
3,39999,0,30000,19,10000,0,9999,0.100000,99,0,0.146440,11,0.000000,27.372368,1.755501,99,99,0,0,0,1,0
3,39999,1,30000,44,0,40,9999,0.100000,99,0,0.000000,12,0.000000,30.713720,9.252672,99,99,0,0,0,0,0
3,39999,2,30000,19,10000,40,9999,0.100000,99,0,0.000000,11,0.000000,25.520878,0.845012,99,99,0,0,0,0,0
3,39999,3,30000,23,0,90,9999,0.100000,99,0,3.915430,11,1.000000,28.178068,7.556864,99,99,1,0,0,0,0
3,39999,4,30000,80,20000,0,9999,0.100000,99,0,3.401655,13,0.000000,31.789002,0.998408,99,99,0,1,0,0,0
3,39999,5,30000,48,0,40,9999,0.100000,99,0,0.000000,13,1.000000,20.764938,1.410901,99,99,0,0,0,0,0
3,39999,6,30000,88,10000,40,9999,0.100000,99,0,0.000000,12,0.000000,26.793253,0.487785,99,99,0,0,0,0,0
3,39999,7,30000,14,0,90,9999,0.100000,99,0,1.141584,11,0.000000,30.225146,0.794694,99,99,1,0,0,0,0
3,39999,8,30000,19,10000,40,9999,0.100000,99,0,0.000000,12,1.000000,20.771249,1.201784,99,99,0,0,0,0,0
3,39999,9,30000,14,0,40,9999,0.100000,99,0,0.000000,11,1.000000,27.622493,7.145466,99,99,0,0,0,0,0
3,39999,10,30000,50,20000,0,9999,0.100000,99,0,0.044544,12,0.000000,20.337808,1.269739,99,99,0,0,0,0,1
3,39999,11,30000,50,0,0,9999,0.100000,99,0,0.618511,12,0.000000,30.145214,0.197467,99,99,0,1,0,0,0
3,39999,12,30000,48,0,0,9999,0.100000,99,0,2.592797,13,0.000000,25.457477,0.442006,99,99,0,1,0,0,0
3,39999,13,30000,19,10000,41,9999,0.100000,99,0,0.000000,12,6.000000,30.391978,17.121640,99,99,0,0,0,0,0
3,39999,14,30000,48,0,0,9999,0.100000,99,0,1.162092,12,0.000000,19.352050,0.340172,99,99,0,0,1,0,0
3,39999,15,30000,87,0,40,9999,0.100000,99,0,0.000000,12,0.000000,26.252458,1.004312,99,99,0,0,0,0,0
3,39999,16,30000,55,0,40,9999,0.100000,99,0,0.000000,11,1.000000,28.092001,5.655063,99,99,0,0,0,0,0
3,39999,17,30000,46,20000,40,9999,0.100000,99,0,0.000000,13,1.000000,32.804441,11.203393,99,99,0,0,0,0,0
3,39999,18,30000,48,0,0,9999,0.100000,99,0,0.821304,12,0.000000,27.209920,0.947715,99,99,0,0,0,0,1
3,39999,19,30000,50,0,40,9999,0.100000,99,0,0.000000,13,0.000000,29.388015,2.743451,99,99,0,0,0,0,0
3,39999,20,30000,50,20000,40,9999,0.100000,99,0,0.000000,13,1.000000,29.479323,4.510900,99,99,0,0,0,0,0
3,39999,21,30000,94,10000,40,9999,0.100000,99,0,0.000000,13,1.000000,25.446909,10.125617,99,99,0,0,0,0,0
3,39999,22,30000,87,0,40,9999,0.100000,99,0,0.000000,12,1.000000,20.702228,1.708263,99,99,0,0,0,0,0
3,39999,23,30000,44,0,40,9999,0.100000,99,0,0.000000,13,1.000000,29.423396,4.338603,99,99,0,0,0,0,0
3,39999,24,30000,19,10000,40,9999,0.100000,99,0,0.000000,11,2.000000,30.414373,12.132182,99,99,0,0,0,0,0
3,39999,25,30000,14,0,40,9999,0.100000,99,0,0.000000,13,1.000000,20.705812,1.939456,99,99,0,0,0,0,0
3,39999,26,30000,94,10000,40,9999,0.100000,99,0,0.000000,12,0.000000,16.662703,6.057387,99,99,0,0,0,0,0
3,39999,27,30000,55,0,0,9999,0.100000,99,0,0.439558,12,0.000000,20.993974,0.210127,99,99,0,0,0,1,0
3,39999,28,30000,88,10000,41,9999,0.100000,99,0,0.000000,11,6.000000,32.154149,7.152203,99,99,0,0,0,0,0
3,39999,29,30000,50,20000,0,9999,0.100000,99,0,4.346387,12,0.000000,23.289586,2.918837,99,99,0,0,0,1,0
3,39999,30,30000,61,20000,40,9999,0.100000,99,0,0.000000,13,2.000000,26.019871,11.409295,99,99,0,0,0,0,0
3,39999,31,30000,55,0,40,9999,0.100000,99,0,0.000000,11,1.000000,26.513796,4.958167,99,99,0,0,0,0,0
3,39999,32,30000,23,0,40,9999,0.100000,99,0,0.000000,12,0.000000,33.524833,0.698057,99,99,0,0,0,0,0
3,39999,33,30000,88,10000,40,9999,0.100000,99,0,0.000000,12,0.000000,20.900595,0.664665,99,99,0,0,0,0,0
3,39999,34,30000,88,10000,40,9999,0.100000,99,0,0.000000,13,0.000000,21.042141,1.579546,99,99,0,0,0,0,0
3,39999,35,30000,50,0,40,9999,0.100000,99,0,0.000000,13,0.000000,19.796025,2.570173,99,99,0,0,0,0,0
3,39999,36,30000,48,0,0,9999,0.100000,99,0,0.127350,13,0.000000,15.809891,0.181886,99,99,0,0,0,0,1
3,39999,37,30000,88,0,42,9999,0.100000,99,0,0.000000,13,6.000000,22.174148,14.653507,99,99,0,0,0,0,0
3,39999,38,30000,88,0,90,9999,0.100000,99,0,0.562580,12,0.000000,16.343485,2.086362,99,99,1,0,0,0,0
3,39999,39,30000,19,20000,40,9999,0.100000,99,0,0.000000,13,0.000000,19.954115,5.353311,99,99,0,0,0,0,0
3,39999,40,30000,14,0,40,9999,0.100000,99,0,0.000000,12,1.000000,28.060524,7.993789,99,99,0,0,0,0,0
3,39999,41,30000,94,10000,41,9999,0.100000,99,0,0.000000,12,3.000000,26.646613,13.029304,99,99,0,0,0,0,0
3,39999,42,30000,94,10000,0,9999,0.100000,99,0,0.153312,11,0.000000,23.127373,0.167232,99,99,0,1,0,0,0
3,39999,43,30000,88,0,40,9999,0.100000,99,0,0.000000,13,0.000000,27.611207,0.690567,99,99,0,0,0,0,0
3,39999,44,30000,50,20000,40,9999,0.100000,99,0,0.000000,12,0.000000,26.604392,0.922387,99,99,0,0,0,0,0
3,39999,45,30000,14,0,40,9999,0.100000,99,0,0.000000,13,0.000000,24.881705,0.930261,99,99,0,0,0,0,0
3,39999,46,30000,23,0,40,9999,0.100000,99,0,0.000000,13,0.000000,23.429550,4.023114,99,99,0,0,0,0,0
3,39999,47,30000,55,0,40,9999,0.100000,99,0,0.000000,11,0.000000,15.374888,0.981604,99,99,0,0,0,0,0
3,39999,48,30000,88,10000,40,9999,0.100000,99,0,0.000000,12,1.000000,26.504257,12.340554,99,99,0,0,0,0,0
3,39999,49,30000,19,10000,40,9999,0.100000,99,0,0.000000,12,0.000000,33.050283,0.936868,99,99,0,0,0,0,0
3,39999,50,30000,48,0,40,9999,0.100000,99,0,0.000000,12,0.000000,15.684236,1.570236,99,99,0,0,0,0,0
3,39999,51,30000,94,10000,40,9999,0.100000,99,0,0.000000,13,2.000000,27.405882,8.614176,99,99,0,0,0,0,0
3,39999,52,30000,44,0,40,9999,0.100000,99,0,0.000000,13,0.000000,31.136475,0.994791,99,99,0,0,0,0,0
3,39999,53,30000,23,0,40,9999,0.100000,99,0,0.000000,12,0.000000,23.057250,0.992145,99,99,0,0,0,0,0
3,39999,54,30000,50,0,0,9999,0.100000,99,0,0.050635,12,0.000000,28.714773,0.256557,99,99,0,0,0,1,0
3,39999,55,30000,19,10000,40,9999,0.100000,99,0,0.000000,12,1.000000,28.455911,2.163641,99,99,0,0,0,0,0
3,39999,56,30000,23,0,40,9999,0.100000,99,0,0.000000,13,1.000000,29.187492,1.848161,99,99,0,0,0,0,0
3,39999,57,30000,80,20000,40,9999,0.100000,99,0,0.000000,13,0.000000,20.087932,0.537603,99,99,0,0,0,0,0
3,39999,58,30000,14,0,40,9999,0.100000,99,0,0.000000,13,0.000000,29.598184,1.439060,99,99,0,0,0,0,0
3,39999,59,30000,55,0,90,9999,0.100000,99,0,0.273785,12,3.000000,32.627058,8.423919,99,99,1,0,0,0,0
3,39999,60,30000,61,20000,40,9999,0.100000,99,0,0.000000,13,3.000000,31.396028,11.467147,99,99,0,0,0,0,0
3,39999,61,30000,55,0,40,9999,0.100000,99,0,0.000000,12,2.000000,29.633176,15.016624,99,99,0,0,0,0,0
3,39999,62,30000,50,0,40,9999,0.100000,99,0,0.000000,12,1.000000,28.490443,18.339212,99,99,0,0,0,0,0
3,39999,63,30000,55,0,93,9999,0.100000,99,0,47.798172,12,9.000000,26.860113,13.334412,99,99,1,0,0,0,0
3,39999,64,30000,94,10000,40,9999,0.100000,99,0,0.000000,12,0.000000,22.774057,1.000947,99,99,0,0,0,0,0
3,39999,65,30000,88,0,40,9999,0.100000,99,0,0.000000,13,0.000000,27.478437,0.858388,99,99,0,0,0,0,0
3,39999,66,30000,61,20000,40,9999,0.100000,99,0,0.000000,13,1.000000,32.961341,17.195138,99,99,0,0,0,0,0
3,39999,67,30000,48,0,40,9999,0.100000,99,0,0.000000,13,1.000000,29.132117,3.728312,99,99,0,0,0,0,0
3,39999,68,30000,14,0,40,9999,0.100000,99,0,0.000000,13,0.000000,15.983908,0.232717,99,99,0,0,0,0,0
3,39999,69,30000,87,0,40,9999,0.100000,99,0,0.000000,13,1.000000,30.280834,13.358998,99,99,0,0,0,0,0
3,39999,70,30000,44,0,40,9999,0.100000,99,0,0.000000,12,0.000000,29.438068,0.790311,99,99,0,0,0,0,0
3,39999,71,30000,87,0,40,9999,0.100000,99,0,0.000000,13,0.000000,28.073905,0.669165,99,99,0,0,0,0,0
3,39999,72,30000,19,20000,40,9999,0.100000,99,0,0.000000,13,1.000000,28.402839,3.385855,99,99,0,0,0,0,0
3,39999,73,30000,19,10000,40,9999,0.100000,99,0,0.000000,12,0.000000,23.201616,1.325878,99,99,0,0,0,0,0
3,39999,74,30000,55,0,40,9999,0.100000,99,0,0.000000,12,2.000000,31.301056,5.904988,99,99,0,0,0,0,0
3,39999,75,30000,87,0,90,9999,0.100000,99,0,4.184024,13,3.000000,32.669851,13.591997,99,99,1,0,0,0,0
3,39999,76,30000,88,0,40,9999,0.100000,99,0,0.000000,12,0.000000,22.540248,0.881939,99,99,0,0,0,0,0
3,39999,77,30000,19,20000,40,9999,0.100000,99,0,0.000000,13,0.000000,31.339408,9.777887,99,99,0,0,0,0,0
3,39999,78,30000,50,0,40,9999,0.100000,99,0,0.000000,12,1.000000,32.226650,11.705814,99,99,0,0,0,0,0
3,39999,79,30000,50,20000,0,9999,0.100000,99,0,2.271471,13,0.000000,32.440650,0.476591,99,99,0,0,0,0,1
3,39999,80,30000,88,10000,40,9999,0.100000,99,0,0.000000,13,2.000000,33.697387,17.943007,99,99,0,0,0,0,0
3,39999,81,30000,50,0,40,9999,0.100000,99,0,0.000000,12,0.000000,19.908609,0.789060,99,99,0,0,0,0,0
3,39999,82,30000,46,20000,0,9999,0.100000,99,0,5.965984,13,1.000000,20.856261,1.198960,99,99,0,0,0,0,1
3,39999,83,30000,19,20000,40,9999,0.100000,99,0,0.000000,13,0.000000,29.181584,0.236944,99,99,0,0,0,0,0
3,39999,84,30000,44,0,40,9999,0.100000,99,0,0.000000,13,1.000000,20.816853,1.211602,99,99,0,0,0,0,0
3,39999,85,30000,55,0,40,9999,0.100000,99,0,0.000000,13,0.000000,33.188974,0.684820,99,99,0,0,0,0,0
3,39999,86,30000,88,0,40,9999,0.100000,99,0,0.000000,13,0.000000,21.249316,0.176875,99,99,0,0,0,0,0
3,39999,87,30000,14,0,40,9999,0.100000,99,0,0.000000,13,1.000000,28.669942,1.893578,99,99,0,0,0,0,0
3,39999,88,30000,61,20000,40,9999,0.100000,99,0,0.000000,13,1.000000,36.398018,9.760754,99,99,0,0,0,0,0
3,39999,89,30000,87,0,40,9999,0.100000,99,0,0.000000,11,0.000000,27.484533,1.166346,99,99,0,0,0,0,0
3,39999,90,30000,50,20000,40,9999,0.100000,99,0,0.000000,13,0.000000,29.202788,3.310860,99,99,0,0,0,0,0
3,39999,91,30000,14,0,40,9999,0.100000,99,0,0.000000,13,0.000000,15.941127,5.363607,99,99,0,0,0,0,0
3,39999,92,30000,94,10000,40,9999,0.100000,99,0,0.000000,12,0.000000,17.827274,0.753296,99,99,0,0,0,0,0
3,39999,93,30000,50,0,40,9999,0.100000,99,0,0.000000,13,0.000000,18.787672,0.373752,99,99,0,0,0,0,0
3,39999,94,30000,94,10000,40,9999,0.100000,99,0,0.000000,12,2.000000,23.522309,11.977743,99,99,0,0,0,0,0
3,39999,95,30000,14,0,40,9999,0.100000,99,0,0.000000,13,0.000000,15.533715,0.548627,99,99,0,0,0,0,0
3,39999,96,30000,50,0,42,9999,0.100000,99,0,0.000000,13,5.000000,23.419138,7.304792,99,99,0,0,0,0,0
3,39999,97,30000,23,0,40,9999,0.100000,99,0,0.000000,13,0.000000,17.803364,0.723868,99,99,0,0,0,0,0
3,39999,98,30000,80,20000,40,9999,0.100000,99,0,0.000000,13,0.000000,22.888672,0.891292,99,99,0,0,0,0,0
3,39999,99,30000,80,20000,0,9999,0.100000,99,0,1.401089,13,0.000000,17.784087,0.483299,99,99,0,0,1,0,0
4,49999,0,40000,46,20000,0,9999,0.100000,99,0,0.224385,13,1.000000,27.219191,1.798408,99,99,0,0,0,1,0
4,49999,1,40000,46,20000,42,9999,0.100000,99,0,0.000000,13,7.000000,30.966802,14.880950,99,99,0,0,0,0,0
4,49999,2,40000,80,20000,40,9999,0.100000,99,0,0.000000,13,0.000000,24.897878,1.116748,99,99,0,0,0,0,0
4,49999,3,40000,88,0,40,9999,0.100000,99,0,0.000000,13,1.000000,27.647153,10.161997,99,99,0,0,0,0,0
4,49999,4,40000,61,20000,0,9999,0.100000,99,0,0.300967,13,0.000000,32.051231,0.603350,99,99,0,1,0,0,0
4,49999,5,40000,23,0,40,9999,0.100000,99,0,0.000000,13,0.000000,21.758785,0.887383,99,99,0,0,0,0,0
4,49999,6,40000,14,0,40,9999,0.100000,99,0,0.000000,13,1.000000,26.884897,1.861163,99,99,0,0,0,0,0
4,49999,7,40000,88,0,90,9999,0.100000,99,0,2.264832,13,0.000000,30.373614,0.937518,99,99,1,0,0,0,0
4,49999,8,40000,61,20000,40,9999,0.100000,99,0,0.000000,13,0.000000,21.819878,0.714348,99,99,0,0,0,0,0
4,49999,9,40000,19,20000,41,9999,0.100000,99,0,0.000000,13,3.000000,26.776301,10.208089,99,99,0,0,0,0,0
4,49999,10,40000,88,10000,40,9999,0.100000,99,0,0.000000,13,0.000000,20.688615,0.739615,99,99,0,0,0,0,0
4,49999,11,40000,44,0,0,9999,0.100000,99,0,0.568616,13,0.000000,30.195859,0.192286,99,99,0,1,0,0,0
4,49999,12,40000,50,20000,0,9999,0.100000,99,0,0.220601,13,0.000000,25.177683,0.498254,99,99,0,1,0,0,0
4,49999,13,40000,19,20000,40,9999,0.100000,99,0,0.000000,13,2.000000,24.962840,22.541821,99,99,0,0,0,0,0
4,49999,14,40000,88,0,0,9999,0.100000,99,0,0.268602,13,0.000000,19.654530,0.127998,99,99,0,0,1,0,0
4,49999,15,40000,87,0,40,9999,0.100000,99,0,0.000000,13,0.000000,25.506281,0.984897,99,99,0,0,0,0,0
4,49999,16,40000,19,20000,40,9999,0.100000,99,0,0.000000,13,0.000000,29.905055,0.113083,99,99,0,0,0,0,0
4,49999,17,40000,88,0,40,9999,0.100000,99,0,0.000000,13,3.000000,31.395074,12.052423,99,99,0,0,0,0,0
4,49999,18,40000,48,0,0,9999,0.100000,99,0,5.642351,13,1.000000,27.565403,1.717175,99,99,0,0,0,0,1
4,49999,19,40000,46,20000,40,9999,0.100000,99,0,0.000000,13,0.000000,29.913061,3.188546,99,99,0,0,0,0,0
4,49999,20,40000,44,0,40,9999,0.100000,99,0,0.000000,13,1.000000,29.642122,6.968612,99,99,0,0,0,0,0
4,49999,21,40000,88,0,40,9999,0.100000,99,0,0.000000,13,0.000000,25.913844,5.387537,99,99,0,0,0,0,0
4,49999,22,40000,48,0,0,9999,0.100000,99,0,0.599161,13,0.000000,21.791297,1.969133,99,99,0,0,0,0,1
4,49999,23,40000,88,0,40,9999,0.100000,99,0,0.000000,13,1.000000,29.523526,6.432873,99,99,0,0,0,0,0
4,49999,24,40000,80,20000,40,9999,0.100000,99,0,0.000000,13,0.000000,29.368034,3.900732,99,99,0,0,0,0,0
4,49999,25,40000,94,10000,40,9999,0.100000,99,0,0.000000,13,0.000000,21.802840,1.424524,99,99,0,0,0,0,0
4,49999,26,40000,88,0,44,9999,0.100000,99,0,0.000000,13,7.000000,16.533483,20.832272,99,99,0,0,0,0,0
4,49999,27,40000,46,20000,0,9999,0.100000,99,0,2.307281,13,0.000000,21.004108,0.425386,99,99,0,0,0,1,0
4,49999,28,40000,19,20000,40,9999,0.100000,99,0,0.000000,13,0.000000,36.725397,0.187630,99,99,0,0,0,0,0
4,49999,29,40000,46,20000,0,9999,0.100000,99,0,1.054150,13,0.000000,23.575305,0.212499,99,99,0,0,0,1,0
4,49999,30,40000,44,0,40,9999,0.100000,99,0,0.000000,13,1.000000,27.165061,8.553460,99,99,0,0,0,0,0
4,49999,31,40000,88,0,40,9999,0.100000,99,0,0.000000,13,1.000000,26.234454,7.081334,99,99,0,0,0,0,0
4,49999,32,40000,88,0,40,9999,0.100000,99,0,0.000000,13,0.000000,33.794786,1.363370,99,99,0,0,0,0,0
4,49999,33,40000,88,0,40,9999,0.100000,99,0,0.000000,13,0.000000,21.238182,0.884973,99,99,0,0,0,0,0
4,49999,34,40000,19,20000,40,9999,0.100000,99,0,0.000000,13,0.000000,21.343930,1.127554,99,99,0,0,0,0,0
4,49999,35,40000,50,20000,40,9999,0.100000,99,0,0.000000,13,0.000000,20.669503,1.222861,99,99,0,0,0,0,0
4,49999,36,40000,44,0,0,9999,0.100000,99,0,0.036046,13,0.000000,15.835715,0.095269,99,99,0,0,0,0,1
4,49999,37,40000,48,0,40,9999,0.100000,99,0,0.000000,13,0.000000,28.173490,2.820236,99,99,0,0,0,0,0
4,49999,38,40000,87,0,96,9999,0.100000,99,0,56.211992,13,11.000000,16.798503,21.072186,99,99,1,0,0,0,0
4,49999,39,40000,14,0,40,9999,0.100000,99,0,0.000000,13,2.000000,19.866257,6.240421,99,99,0,0,0,0,0
4,49999,40,40000,88,10000,40,9999,0.100000,99,0,0.000000,13,2.000000,27.617950,10.224830,99,99,0,0,0,0,0
4,49999,41,40000,88,10000,40,9999,0.100000,99,0,0.000000,13,2.000000,24.327542,25.589128,99,99,0,0,0,0,0
4,49999,42,40000,48,0,0,9999,0.100000,99,0,0.207969,13,0.000000,23.102051,0.169712,99,99,0,1,0,0,0
4,49999,43,40000,88,0,40,9999,0.100000,99,0,0.000000,13,1.000000,28.021897,1.892577,99,99,0,0,0,0,0
4,49999,44,40000,88,10000,40,9999,0.100000,99,0,0.000000,13,0.000000,25.942995,1.000087,99,99,0,0,0,0,0
4,49999,45,40000,88,10000,40,9999,0.100000,99,0,0.000000,13,0.000000,24.887707,1.376838,99,99,0,0,0,0,0
4,49999,46,40000,50,20000,40,9999,0.100000,99,0,0.000000,13,2.000000,23.908483,23.224646,99,99,0,0,0,0,0
4,49999,47,40000,50,20000,40,9999,0.100000,99,0,0.000000,13,0.000000,16.118340,0.979830,99,99,0,0,0,0,0
4,49999,48,40000,46,20000,41,9999,0.100000,99,0,0.000000,13,3.000000,25.612936,15.017466,99,99,0,0,0,0,0
4,49999,49,40000,94,10000,40,9999,0.100000,99,0,0.000000,13,0.000000,33.314804,0.992702,99,99,0,0,0,0,0
4,49999,50,40000,87,0,40,9999,0.100000,99,0,0.000000,13,0.000000,15.584647,0.203479,99,99,0,0,0,0,0
4,49999,51,40000,50,20000,40,9999,0.100000,99,0,0.000000,13,0.000000,27.500403,2.798595,99,99,0,0,0,0,0
4,49999,52,40000,50,20000,40,9999,0.100000,99,0,0.000000,13,0.000000,31.408928,0.962031,99,99,0,0,0,0,0
4,49999,53,40000,48,0,40,9999,0.100000,99,0,0.000000,13,0.000000,22.452093,0.935291,99,99,0,0,0,0,0
4,49999,54,40000,44,0,0,9999,0.100000,99,0,0.689194,13,0.000000,28.650889,0.231494,99,99,0,0,0,1,0
4,49999,55,40000,50,20000,40,9999,0.100000,99,0,0.000000,13,0.000000,29.484981,1.049152,99,99,0,0,0,0,0
4,49999,56,40000,23,0,40,9999,0.100000,99,0,0.000000,13,0.000000,29.982716,1.051381,99,99,0,0,0,0,0
4,49999,57,40000,80,20000,0,9999,0.100000,99,0,1.067479,13,0.000000,20.415614,0.507819,99,99,0,0,0,0,1
4,49999,58,40000,88,10000,40,9999,0.100000,99,0,0.000000,13,0.000000,29.519722,1.950320,99,99,0,0,0,0,0
4,49999,59,40000,19,20000,91,9999,0.100000,99,0,23.326478,13,4.000000,29.393218,14.928362,99,99,1,0,0,0,0
4,49999,60,40000,44,0,40,9999,0.100000,99,0,0.000000,13,0.000000,29.996071,8.146746,99,99,0,0,0,0,0
4,49999,61,40000,46,20000,41,9999,0.100000,99,0,0.000000,13,4.000000,27.624170,16.212595,99,99,0,0,0,0,0
4,49999,62,40000,94,10000,40,9999,0.100000,99,0,0.000000,13,0.000000,28.783334,4.246183,99,99,0,0,0,0,0
4,49999,63,40000,80,20000,40,9999,0.100000,99,0,0.000000,13,0.000000,32.539107,3.512351,99,99,0,0,0,0,0
4,49999,64,40000,80,20000,40,9999,0.100000,99,0,0.000000,13,0.000000,23.289296,0.229263,99,99,0,0,0,0,0
4,49999,65,40000,80,20000,40,9999,0.100000,99,0,0.000000,13,1.000000,27.902571,2.298505,99,99,0,0,0,0,0
4,49999,66,40000,61,20000,40,9999,0.100000,99,0,0.000000,13,3.000000,32.152196,12.217399,99,99,0,0,0,0,0
4,49999,67,40000,19,20000,40,9999,0.100000,99,0,0.000000,13,1.000000,28.165097,6.446984,99,99,0,0,0,0,0
4,49999,68,40000,61,20000,40,9999,0.100000,99,0,0.000000,13,0.000000,15.983619,0.234068,99,99,0,0,0,0,0
4,49999,69,40000,61,20000,40,9999,0.100000,99,0,0.000000,13,0.000000,28.992038,5.640853,99,99,0,0,0,0,0
4,49999,70,40000,48,0,40,9999,0.100000,99,0,0.000000,13,0.000000,29.380686,0.297834,99,99,0,0,0,0,0
4,49999,71,40000,50,20000,40,9999,0.100000,99,0,0.000000,13,1.000000,28.497283,1.258841,99,99,0,0,0,0,0
4,49999,72,40000,14,0,40,9999,0.100000,99,0,0.000000,13,0.000000,27.821346,6.667867,99,99,0,0,0,0,0
4,49999,73,40000,44,0,40,9999,0.135000,99,0,0.000000,13,0.000000,22.597307,1.255509,99,99,0,0,0,0,0
4,49999,74,40000,48,0,40,9999,0.100000,99,0,0.000000,13,1.000000,30.796975,4.453895,99,99,0,0,0,0,0
4,49999,75,40000,88,0,40,9999,0.100000,99,0,0.000000,13,2.000000,30.728895,2.907021,99,99,0,0,0,0,0
4,49999,76,40000,80,20000,40,9999,0.100000,99,0,0.000000,13,0.000000,23.046048,0.253748,99,99,0,0,0,0,0
4,49999,77,40000,87,0,40,9999,0.100000,99,0,0.000000,13,0.000000,32.077445,0.566341,99,99,0,0,0,0,0
4,49999,78,40000,44,0,40,9999,0.100000,99,0,0.000000,13,1.000000,32.077184,9.128335,99,99,0,0,0,0,0
4,49999,79,40000,19,20000,2,9999,0.100000,99,0,2.332998,13,8.000000,32.705976,18.411118,99,99,0,0,0,0,1
4,49999,80,40000,88,10000,40,9999,0.100000,99,0,0.000000,13,3.000000,33.818116,12.862417,99,99,0,0,0,0,0
4,49999,81,40000,23,0,40,9999,0.100000,99,0,0.000000,13,0.000000,20.218652,0.453023,99,99,0,0,0,0,0
4,49999,82,40000,87,0,40,9999,0.100000,99,0,0.000000,13,0.000000,21.862826,0.510700,99,99,0,0,0,0,0
4,49999,83,40000,94,10000,40,9999,0.100000,99,0,0.000000,13,0.000000,29.120475,0.781078,99,99,0,0,0,0,0
4,49999,84,40000,88,0,40,9999,0.100000,99,0,0.000000,13,0.000000,21.847145,0.510483,99,99,0,0,0,0,0
4,49999,85,40000,94,10000,40,9999,0.100000,99,0,0.000000,13,0.000000,33.453993,0.805084,99,99,0,0,0,0,0
4,49999,86,40000,48,0,40,9999,0.100000,99,0,0.000000,13,0.000000,21.256833,0.308929,99,99,0,0,0,0,0
4,49999,87,40000,50,20000,40,9999,0.100000,99,0,0.000000,13,0.000000,29.622244,0.777199,99,99,0,0,0,0,0
4,49999,88,40000,14,0,40,9999,0.100000,99,0,0.000000,13,1.000000,35.268058,7.764582,99,99,0,0,0,0,0
4,49999,89,40000,88,0,40,9999,0.100000,99,0,0.000000,13,1.000000,27.451045,1.825342,99,99,0,0,0,0,0
4,49999,90,40000,14,0,40,9999,0.100000,99,0,0.000000,13,0.000000,29.797714,1.013190,99,99,0,0,0,0,0
4,49999,91,40000,14,0,40,9999,0.100000,99,0,0.000000,13,1.000000,16.062661,8.871329,99,99,0,0,0,0,0
4,49999,92,40000,50,20000,40,9999,0.100000,99,0,0.000000,13,0.000000,18.102411,0.887268,99,99,0,0,0,0,0
4,49999,93,40000,50,20000,40,9999,0.100000,99,0,0.000000,13,0.000000,19.081705,0.129274,99,99,0,0,0,0,0
4,49999,94,40000,88,0,40,9999,0.100000,99,0,0.000000,13,0.000000,21.661290,6.403191,99,99,0,0,0,0,0
4,49999,95,40000,46,20000,40,9999,0.100000,99,0,0.000000,13,0.000000,15.412984,0.182970,99,99,0,0,0,0,0
4,49999,96,40000,23,0,40,9999,0.065000,99,0,0.000000,13,1.000000,23.165485,1.328924,99,99,0,0,0,0,0
4,49999,97,40000,87,0,0,9999,0.100000,99,0,0.131268,13,0.000000,18.079270,0.557919,99,99,0,0,1,0,0
4,49999,98,40000,48,0,40,9999,0.100000,99,0,0.000000,13,0.000000,22.311139,0.878951,99,99,0,0,0,0,0
4,49999,99,40000,88,10000,40,9999,0.100000,99,0,0.000000,13,0.000000,18.113023,0.155330,99,99,0,0,0,0,0
5,59999,0,50000,46,20000,95,9999,0.100000,99,0,60.013612,13,15.000000,28.066561,20.803513,99,99,1,0,0,0,0
5,59999,1,50000,87,0,41,9999,0.100000,99,0,0.000000,13,4.000000,24.416358,11.552776,99,99,0,0,0,0,0
5,59999,2,50000,94,10000,40,9999,0.100000,99,0,0.000000,13,0.000000,25.051139,2.283901,99,99,0,0,0,0,0
5,59999,3,50000,48,0,40,9999,0.100000,99,0,0.000000,13,1.000000,28.148955,5.654879,99,99,0,0,0,0,0
5,59999,4,50000,23,0,0,9999,0.100000,99,0,0.738870,13,1.000000,32.202037,5.926297,99,99,0,0,0,0,1
5,59999,5,50000,46,20000,40,9999,0.100000,99,0,0.000000,13,0.000000,22.128597,1.197183,99,99,0,0,0,0,0
5,59999,6,50000,87,0,40,9999,0.100000,99,0,0.000000,13,0.000000,27.734552,0.349228,99,99,0,0,0,0,0
5,59999,7,50000,44,0,90,9999,0.100000,99,0,5.114101,13,0.000000,30.583245,1.389399,99,99,1,0,0,0,0
5,59999,8,50000,14,0,40,9999,0.100000,99,0,0.000000,13,0.000000,22.221624,1.801736,99,99,0,0,0,0,0
5,59999,9,50000,50,20000,40,9999,0.100000,99,0,0.000000,13,0.000000,24.698337,7.250200,99,99,0,0,0,0,0
5,59999,10,50000,19,20000,40,9999,0.100000,99,0,0.000000,13,2.000000,20.506410,2.798260,99,99,0,0,0,0,0
5,59999,11,50000,48,0,0,9999,0.100000,99,0,0.379333,13,0.000000,30.251650,0.186216,99,99,0,1,0,0,0
5,59999,12,50000,23,0,0,9999,0.100000,99,0,3.537546,13,0.000000,25.232519,0.798795,99,99,0,1,0,0,0
5,59999,13,50000,44,0,40,9999,0.100000,99,0,0.000000,13,2.000000,24.720688,10.072654,99,99,0,0,0,0,0
5,59999,14,50000,80,20000,0,9999,0.100000,99,0,0.836956,13,0.000000,19.680591,0.253309,99,99,0,0,1,0,0
5,59999,15,50000,88,10000,40,9999,0.100000,99,0,0.000000,13,0.000000,24.758271,0.836272,99,99,0,0,0,0,0
5,59999,16,50000,23,0,40,9999,0.100000,99,0,0.000000,13,0.000000,29.904844,0.114002,99,99,0,0,0,0,0
5,59999,17,50000,46,20000,40,9999,0.100000,99,0,0.000000,13,0.000000,34.125835,3.984505,99,99,0,0,0,0,0
5,59999,18,50000,48,0,0,9999,0.100000,99,0,0.172772,13,0.000000,28.021678,0.117795,99,99,0,0,0,0,1
5,59999,19,50000,88,0,40,9999,0.100000,99,0,0.000000,13,0.000000,29.934132,2.150316,99,99,0,0,0,0,0
5,59999,20,50000,44,0,40,9999,0.100000,99,0,0.000000,13,3.000000,28.832735,16.981691,99,99,0,0,0,0,0
5,59999,21,50000,80,20000,40,9999,0.100000,99,0,0.000000,13,1.000000,25.446942,3.917552,99,99,0,0,0,0,0
5,59999,22,50000,50,20000,0,9999,0.100000,99,0,2.102914,13,0.000000,22.209280,0.475783,99,99,0,0,0,0,1
5,59999,23,50000,48,0,40,9999,0.100000,99,0,0.000000,13,2.000000,28.463349,9.172067,99,99,0,0,0,0,0
5,59999,24,50000,46,20000,40,9999,0.100000,99,0,0.000000,13,3.000000,29.528684,13.034285,99,99,0,0,0,0,0
5,59999,25,50000,50,20000,40,9999,0.100000,99,0,0.000000,13,0.000000,22.193167,1.375162,99,99,0,0,0,0,0
5,59999,26,50000,94,10000,41,9999,0.100000,99,0,0.000000,14,2.000000,15.947615,18.226211,99,99,0,0,0,0,0
5,59999,27,50000,44,0,0,9999,0.100000,99,0,1.662031,13,0.000000,21.137102,0.221444,99,99,0,0,0,1,0
5,59999,28,50000,48,0,40,9999,0.100000,99,0,0.000000,13,0.000000,36.727211,0.192299,99,99,0,0,0,0,0
5,59999,29,50000,44,0,40,9999,0.100000,99,0,0.000000,13,0.000000,23.672381,0.750111,99,99,0,0,0,0,0
5,59999,30,50000,48,0,40,9999,0.100000,99,0,0.000000,13,2.000000,28.574681,4.386885,99,99,0,0,0,0,0
5,59999,31,50000,88,10000,40,9999,0.100000,99,0,0.000000,13,2.000000,26.057669,8.304758,99,99,0,0,0,0,0
5,59999,32,50000,19,20000,40,9999,0.100000,99,0,0.000000,13,0.000000,33.952903,0.634755,99,99,0,0,0,0,0
5,59999,33,50000,50,20000,40,9999,0.100000,99,0,0.000000,13,2.000000,20.990326,3.071622,99,99,0,0,0,0,0
5,59999,34,50000,88,0,40,9999,0.100000,99,0,0.000000,13,2.000000,21.110026,3.621446,99,99,0,0,0,0,0
5,59999,35,50000,23,0,0,9999,0.100000,99,0,0.025620,13,2.000000,20.551308,4.962015,99,99,0,0,0,0,1
5,59999,36,50000,80,20000,0,9999,0.100000,99,0,0.101192,13,0.000000,15.846202,0.927436,99,99,0,0,0,0,1
5,59999,37,50000,61,20000,40,9999,0.100000,99,0,0.000000,13,2.000000,27.835181,6.492805,99,99,0,0,0,0,0
5,59999,38,50000,80,20000,41,9999,0.100000,99,0,0.000000,13,3.000000,25.445333,5.833680,99,99,0,0,0,0,0
5,59999,39,50000,88,10000,40,9999,0.100000,99,0,0.000000,14,1.000000,19.297881,4.651799,99,99,0,0,0,0,0
5,59999,40,50000,14,0,40,9999,0.100000,99,0,0.000000,13,2.000000,27.878450,15.828198,99,99,0,0,0,0,0
5,59999,41,50000,44,0,40,9999,0.100000,99,0,0.000000,13,2.000000,26.181792,8.361430,99,99,0,0,0,0,0
5,59999,42,50000,88,10000,0,9999,0.100000,99,0,0.148055,13,0.000000,23.070040,0.170471,99,99,0,1,0,0,0
5,59999,43,50000,44,0,40,9999,0.100000,99,0,0.000000,13,0.000000,28.494309,1.426838,99,99,0,0,0,0,0
5,59999,44,50000,14,0,90,9999,0.100000,99,0,1.683600,13,1.000000,25.189408,6.681043,99,99,1,0,0,0,0
5,59999,45,50000,50,20000,40,9999,0.100000,99,0,0.000000,13,0.000000,25.805038,1.465278,99,99,0,0,0,0,0
5,59999,46,50000,80,20000,40,9999,0.100000,99,0,0.000000,13,0.000000,24.872011,12.945475,99,99,0,0,0,0,0
5,59999,47,50000,48,0,40,9999,0.100000,99,0,0.000000,13,0.000000,16.867399,1.010797,99,99,0,0,0,0,0
5,59999,48,50000,87,0,40,9999,0.100000,99,0,0.000000,13,1.000000,24.683546,11.863586,99,99,0,0,0,0,0
5,59999,49,50000,23,0,40,9999,0.100000,99,0,0.000000,13,0.000000,33.574557,0.725572,99,99,0,0,0,0,0
5,59999,50,50000,14,0,40,9999,0.100000,99,0,0.000000,13,0.000000,15.586425,0.971557,99,99,0,0,0,0,0
5,59999,51,50000,87,0,40,9999,0.100000,99,0,0.000000,13,0.000000,27.963053,7.973014,99,99,0,0,0,0,0
5,59999,52,50000,48,0,40,9999,0.100000,99,0,0.000000,13,0.000000,31.694596,0.910384,99,99,0,0,0,0,0
5,59999,53,50000,48,0,40,9999,0.100000,99,0,0.000000,13,0.000000,21.874335,0.994514,99,99,0,0,0,0,0
5,59999,54,50000,14,0,0,9999,0.100000,99,0,1.453582,13,0.000000,28.518131,0.341291,99,99,0,0,0,1,0
5,59999,55,50000,88,10000,40,9999,0.100000,99,0,0.000000,13,0.000000,29.565779,0.537004,99,99,0,0,0,0,0
5,59999,56,50000,14,0,40,9999,0.100000,99,0,0.000000,13,0.000000,29.824674,0.373019,99,99,0,0,0,0,0
5,59999,57,50000,50,20000,40,9999,0.100000,99,0,0.000000,13,2.000000,20.280334,2.153287,99,99,0,0,0,0,0
5,59999,58,50000,61,20000,40,9999,0.100000,99,0,0.000000,13,0.000000,29.078608,0.989891,99,99,0,0,0,0,0
5,59999,59,50000,94,10000,41,9999,0.100000,99,0,0.000000,13,6.000000,32.059802,12.586147,99,99,0,0,0,0,0
5,59999,60,50000,46,20000,42,9999,0.100000,99,0,0.000000,13,8.000000,29.944807,17.011618,99,99,0,0,0,0,0
5,59999,61,50000,44,0,0,9999,0.100000,99,0,0.298756,13,0.000000,23.997440,1.591739,99,99,0,0,0,1,0
5,59999,62,50000,87,0,40,9999,0.100000,99,0,0.000000,13,0.000000,28.716568,0.754721,99,99,0,0,0,0,0
5,59999,63,50000,48,0,40,9999,0.100000,99,0,0.000000,13,3.000000,33.193710,5.877078,99,99,0,0,0,0,0
5,59999,64,50000,48,0,40,9999,0.100000,99,0,0.000000,13,0.000000,23.414327,0.348526,99,99,0,0,0,0,0
5,59999,65,50000,87,0,40,9999,0.100000,99,0,0.000000,13,0.000000,28.725540,0.162496,99,99,0,0,0,0,0
5,59999,66,50000,19,20000,41,9999,0.100000,99,0,0.000000,13,4.000000,30.322212,13.903132,99,99,0,0,0,0,0
5,59999,67,50000,50,20000,40,9999,0.100000,99,0,0.000000,13,1.000000,27.177663,9.522810,99,99,0,0,0,0,0
5,59999,68,50000,14,0,40,9999,0.100000,99,0,0.000000,13,0.000000,15.983366,0.226379,99,99,0,0,0,0,0
5,59999,69,50000,94,10000,40,9999,0.100000,99,0,0.000000,13,1.000000,29.373463,15.351318,99,99,0,0,0,0,0
5,59999,70,50000,61,20000,40,9999,0.100000,99,0,0.000000,13,0.000000,29.275580,0.559416,99,99,0,0,0,0,0
5,59999,71,50000,19,20000,40,9999,0.100000,99,0,0.000000,13,0.000000,28.945774,0.090286,99,99,0,0,0,0,0
5,59999,72,50000,46,20000,40,9999,0.100000,99,0,0.000000,13,2.000000,27.192511,10.128552,99,99,0,0,0,0,0
5,59999,73,50000,87,0,40,9999,0.100000,99,0,0.000000,13,0.000000,22.024011,1.155344,99,99,0,0,0,0,0
5,59999,74,50000,80,20000,40,9999,0.100000,99,0,0.000000,13,0.000000,28.966983,3.490050,99,99,0,0,0,0,0
5,59999,75,50000,88,0,40,9999,0.100000,99,0,0.000000,13,0.000000,32.665487,0.588315,99,99,0,0,0,0,0
5,59999,76,50000,14,0,40,9999,0.100000,99,0,0.000000,13,0.000000,23.196428,0.317505,99,99,0,0,0,0,0
5,59999,77,50000,88,0,0,9999,0.100000,99,0,1.480093,13,0.000000,32.218610,4.127796,99,99,0,1,0,0,0
5,59999,78,50000,46,20000,41,9999,0.100000,99,0,0.000000,13,5.000000,31.298833,13.892361,99,99,0,0,0,0,0
5,59999,79,50000,80,20000,40,9999,0.100000,99,0,0.000000,13,0.000000,32.959428,0.356148,99,99,0,0,0,0,0
5,59999,80,50000,46,20000,40,9999,0.100000,99,0,0.000000,13,3.000000,31.729171,14.270847,99,99,0,0,0,0,0
5,59999,81,50000,61,20000,40,9999,0.100000,99,0,0.000000,13,1.000000,20.102408,2.004522,99,99,0,0,0,0,0
5,59999,82,50000,61,20000,40,9999,0.100000,99,0,0.000000,13,0.000000,22.238484,0.841392,99,99,0,0,0,0,0
5,59999,83,50000,88,10000,41,9999,0.100000,99,0,0.000000,13,4.000000,28.998180,5.872406,99,99,0,0,0,0,0
5,59999,84,50000,46,20000,40,9999,0.100000,99,0,0.000000,13,0.000000,22.233046,0.682132,99,99,0,0,0,0,0
5,59999,85,50000,44,0,40,9999,0.100000,99,0,0.000000,13,0.000000,33.695377,0.539126,99,99,0,0,0,0,0
5,59999,86,50000,14,0,40,9999,0.100000,99,0,0.000000,13,0.000000,21.264366,0.321295,99,99,0,0,0,0,0
5,59999,87,50000,61,20000,40,9999,0.100000,99,0,0.000000,13,0.000000,29.629621,0.257632,99,99,0,0,0,0,0
5,59999,88,50000,14,0,40,9999,0.100000,99,0,0.000000,13,1.000000,33.480034,5.422110,99,99,0,0,0,0,0
5,59999,89,50000,48,0,0,9999,0.100000,99,0,0.262696,13,0.000000,28.312922,0.281610,99,99,0,0,0,1,0
5,59999,90,50000,14,0,40,9999,0.100000,99,0,0.000000,13,0.000000,29.727728,0.384370,99,99,0,0,0,0,0
5,59999,91,50000,46,20000,40,9999,0.100000,99,0,0.000000,13,1.000000,16.924596,4.728931,99,99,0,0,0,0,0
5,59999,92,50000,46,20000,40,9999,0.100000,99,0,0.000000,13,0.000000,18.059325,2.367440,99,99,0,0,0,0,0
5,59999,93,50000,48,0,40,9999,0.100000,99,0,0.000000,13,0.000000,19.108634,0.268871,99,99,0,0,0,0,0
5,59999,94,50000,80,20000,40,9999,0.100000,99,0,0.000000,13,0.000000,22.210491,0.989468,99,99,0,0,0,0,0
5,59999,95,50000,94,10000,40,9999,0.100000,99,0,0.000000,13,0.000000,15.419627,1.019100,99,99,0,0,0,0,0
5,59999,96,50000,80,20000,40,9999,0.065000,99,0,0.000000,13,0.000000,24.205975,1.458400,99,99,0,0,0,0,0
5,59999,97,50000,88,0,0,9999,0.100000,99,0,0.080090,13,1.000000,18.141267,5.218336,99,99,0,0,1,0,0
5,59999,98,50000,23,0,40,9999,0.100000,99,0,0.000000,13,0.000000,21.735739,0.919583,99,99,0,0,0,0,0
5,59999,99,50000,88,0,40,9999,0.100000,99,0,0.000000,13,0.000000,18.116134,1.418710,99,99,0,0,0,0,0
6,69999,0,60000,87,0,40,9999,0.100000,99,0,0.000000,14,3.000000,32.941360,12.095197,99,99,0,0,0,0,0
6,69999,1,60000,44,0,40,9999,0.100000,99,0,0.000000,14,0.000000,26.671919,12.627240,99,99,0,0,0,0,0
6,69999,2,60000,88,10000,40,9999,0.100000,99,0,0.000000,14,1.000000,25.791561,4.347517,99,99,0,0,0,0,0
6,69999,3,60000,61,20000,40,9999,0.100000,99,0,0.000000,14,1.000000,26.739662,6.410304,99,99,0,0,0,0,0
6,69999,4,60000,88,10000,0,9999,0.100000,99,0,0.995709,14,0.000000,33.400191,0.667361,99,99,0,0,0,0,1
6,69999,5,60000,88,0,0,9999,0.100000,99,0,3.754194,14,1.000000,22.657319,2.127651,99,99,0,0,0,0,1
6,69999,6,60000,80,20000,40,9999,0.100000,99,0,0.000000,14,0.000000,27.801674,0.390532,99,99,0,0,0,0,0
6,69999,7,60000,50,20000,91,9999,0.100000,99,0,22.004596,14,4.000000,31.014744,4.637671,99,99,1,0,0,0,0
6,69999,8,60000,94,10000,40,9999,0.100000,99,0,0.000000,14,1.000000,22.641246,5.041494,99,99,0,0,0,0,0
6,69999,9,60000,48,0,1,9999,0.100000,99,0,35.529712,14,5.000000,24.772634,11.644078,99,99,0,1,0,0,0
6,69999,10,60000,88,0,40,9999,0.100000,99,0,0.000000,14,0.000000,19.387545,0.674055,99,99,0,0,0,0,0
6,69999,11,60000,46,20000,0,9999,0.100000,99,0,0.347915,14,0.000000,30.276477,0.185989,99,99,0,1,0,0,0
6,69999,12,60000,46,20000,0,9999,0.100000,99,0,1.836406,14,0.000000,25.490446,1.271181,99,99,0,1,0,0,0
6,69999,13,60000,46,20000,40,9999,0.100000,99,0,0.000000,14,2.000000,27.514752,14.180665,99,99,0,0,0,0,0
6,69999,14,60000,44,0,0,9999,0.100000,99,0,0.031997,14,0.000000,19.800765,0.087810,99,99,0,0,1,0,0
6,69999,15,60000,61,20000,40,9999,0.100000,99,0,0.000000,14,0.000000,24.871937,1.147949,99,99,0,0,0,0,0
6,69999,16,60000,46,20000,40,9999,0.100000,99,0,0.000000,14,0.000000,29.904582,0.117042,99,99,0,0,0,0,0
6,69999,17,60000,61,20000,40,9999,0.100000,99,0,0.000000,14,1.000000,34.181584,2.521630,99,99,0,0,0,0,0
6,69999,18,60000,19,20000,0,9999,0.100000,99,0,0.195107,14,0.000000,28.037519,0.184584,99,99,0,0,0,0,1
6,69999,19,60000,79,40000,40,9999,0.100000,99,0,0.000000,14,0.000000,29.918950,2.033063,99,99,0,0,0,0,0
6,69999,20,60000,88,10000,40,9999,0.100000,99,0,0.000000,14,0.000000,29.475435,10.778230,99,99,0,0,0,0,0
6,69999,21,60000,26,40000,40,9999,0.100000,99,0,0.000000,14,1.000000,25.706607,7.150458,99,99,0,0,0,0,0
6,69999,22,60000,44,0,40,9999,0.100000,99,0,0.000000,14,0.000000,22.588157,1.000352,99,99,0,0,0,0,0
6,69999,23,60000,26,40000,40,9999,0.100000,99,0,0.000000,14,1.000000,27.222541,11.484830,99,99,0,0,0,0,0
6,69999,24,60000,87,0,40,9999,0.100000,99,0,0.000000,14,1.000000,26.696860,14.229066,99,99,0,0,0,0,0
6,69999,25,60000,44,0,40,9999,0.100000,99,0,0.000000,14,0.000000,22.634797,2.449391,99,99,0,0,0,0,0
6,69999,26,60000,19,20000,40,9999,0.100000,99,0,0.000000,14,0.000000,18.586484,10.924074,99,99,0,0,0,0,0
6,69999,27,60000,79,40000,0,9999,0.100000,99,0,0.007562,14,0.000000,21.143768,0.115561,99,99,0,0,0,1,0
6,69999,28,60000,19,20000,40,9999,0.100000,99,0,0.000000,14,0.000000,36.727459,0.191502,99,99,0,0,0,0,0
6,69999,29,60000,88,0,0,9999,0.100000,99,0,3.816278,14,0.000000,23.630215,1.231553,99,99,0,0,0,1,0
6,69999,30,60000,94,10000,41,9999,0.100000,99,0,0.000000,14,3.000000,26.453566,14.187072,99,99,0,0,0,0,0
6,69999,31,60000,46,20000,40,9999,0.100000,99,0,0.000000,14,2.000000,27.930045,13.780240,99,99,0,0,0,0,0
6,69999,32,60000,88,0,40,9999,0.100000,99,0,0.000000,14,0.000000,34.104572,0.374830,99,99,0,0,0,0,0
6,69999,33,60000,46,20000,40,9999,0.100000,99,0,0.000000,14,0.000000,19.526385,0.327547,99,99,0,0,0,0,0
6,69999,34,60000,50,20000,0,9999,0.100000,99,0,0.087102,14,0.000000,19.520927,0.254959,99,99,0,0,0,0,1
6,69999,35,60000,26,40000,40,9999,0.100000,99,0,0.000000,14,0.000000,19.173024,0.082365,99,99,0,0,0,0,0
6,69999,36,60000,23,0,46,9999,0.100000,99,0,0.000000,14,11.000000,16.349210,12.111891,99,99,0,0,0,0,0
6,69999,37,60000,88,10000,40,9999,0.100000,99,0,0.000000,14,1.000000,26.926470,3.183793,99,99,0,0,0,0,0
6,69999,38,60000,88,0,40,9999,0.100000,99,0,0.000000,14,1.000000,22.375956,12.104373,99,99,0,0,0,0,0
6,69999,39,60000,80,20000,40,9999,0.100000,99,0,0.000000,14,0.000000,19.010581,1.036443,99,99,0,0,0,0,0
6,69999,40,60000,87,0,40,9999,0.100000,99,0,0.000000,14,2.000000,27.337494,13.675574,99,99,0,0,0,0,0
6,69999,41,60000,26,40000,40,9999,0.100000,99,0,0.000000,14,2.000000,26.718570,10.892626,99,99,0,0,0,0,0
6,69999,42,60000,79,40000,42,9999,0.100000,99,0,0.000000,14,7.000000,23.045362,7.559291,99,99,0,0,0,0,0
6,69999,43,60000,88,0,40,9999,0.100000,99,0,0.000000,14,0.000000,28.787623,0.745988,99,99,0,0,0,0,0
6,69999,44,60000,87,0,90,9999,0.100000,99,0,2.365900,14,0.000000,25.792044,1.684941,99,99,1,0,0,0,0
6,69999,45,60000,48,0,40,9999,0.100000,99,0,0.000000,14,0.000000,25.748140,1.359649,99,99,0,0,0,0,0
6,69999,46,60000,61,20000,40,9999,0.100000,99,0,0.000000,14,1.000000,24.560275,10.035255,99,99,0,0,0,0,0
6,69999,47,60000,44,0,40,9999,0.100000,99,0,0.000000,14,0.000000,17.635700,0.987080,99,99,0,0,0,0,0
6,69999,48,60000,46,20000,40,9999,0.100000,99,0,0.000000,14,1.000000,25.513793,11.870902,99,99,0,0,0,0,0
6,69999,49,60000,61,20000,40,9999,0.100000,99,0,0.000000,14,0.000000,33.743275,0.712044,99,99,0,0,0,0,0
6,69999,50,60000,61,20000,46,9999,0.100000,99,0,0.000000,14,11.000000,16.151559,12.081124,99,99,0,0,0,0,0
6,69999,51,60000,79,40000,40,9999,0.100000,99,0,0.000000,14,1.000000,28.467691,8.074311,99,99,0,0,0,0,0
6,69999,52,60000,61,20000,40,9999,0.100000,99,0,0.000000,14,0.000000,31.982468,0.938290,99,99,0,0,0,0,0
6,69999,53,60000,80,20000,40,9999,0.100000,99,0,0.000000,14,0.000000,21.243078,0.770040,99,99,0,0,0,0,0
6,69999,54,60000,88,10000,40,9999,0.100000,99,0,0.000000,14,0.000000,28.514691,0.099122,99,99,0,0,0,0,0
6,69999,55,60000,88,0,40,9999,0.100000,99,0,0.000000,14,0.000000,29.645501,0.481870,99,99,0,0,0,0,0
6,69999,56,60000,48,0,40,9999,0.100000,99,0,0.000000,14,0.000000,29.784576,0.395362,99,99,0,0,0,0,0
6,69999,57,60000,50,20000,40,9999,0.100000,99,0,0.000000,14,0.000000,18.996662,0.081257,99,99,0,0,0,0,0
6,69999,58,60000,19,20000,0,9999,0.100000,99,0,0.034289,14,0.000000,28.974784,0.175831,99,99,0,0,0,1,0
6,69999,59,60000,61,20000,41,9999,0.100000,99,0,0.000000,14,3.000000,27.692969,12.531008,99,99,0,0,0,0,0
6,69999,60,60000,87,0,40,9999,0.100000,99,0,0.000000,14,1.000000,22.503912,13.397076,99,99,0,0,0,0,0
6,69999,61,60000,44,0,40,9999,0.100000,99,0,0.000000,14,0.000000,23.800814,1.244804,99,99,0,0,0,0,0
6,69999,62,60000,48,0,40,9999,0.100000,99,0,0.000000,14,0.000000,28.753665,0.418057,99,99,0,0,0,0,0
6,69999,63,60000,94,10000,41,9999,0.100000,99,0,0.000000,14,5.000000,31.394348,14.289594,99,99,0,0,0,0,0
6,69999,64,60000,94,10000,40,9999,0.100000,99,0,0.000000,14,0.000000,23.429153,0.918555,99,99,0,0,0,0,0
6,69999,65,60000,46,20000,40,9999,0.100000,99,0,0.000000,14,0.000000,28.720293,0.168857,99,99,0,0,0,0,0
6,69999,66,60000,23,0,40,9999,0.100000,99,0,0.000000,14,2.000000,27.159568,8.351036,99,99,0,0,0,0,0
6,69999,67,60000,88,0,41,9999,0.100000,99,0,0.000000,14,4.000000,28.344622,13.959691,99,99,0,0,0,0,0
6,69999,68,60000,19,20000,40,9999,0.100000,99,0,0.000000,14,0.000000,15.982891,0.231201,99,99,0,0,0,0,0
6,69999,69,60000,23,0,40,9999,0.100000,99,0,0.000000,14,3.000000,28.670946,5.890682,99,99,0,0,0,0,0
6,69999,70,60000,88,0,40,9999,0.100000,99,0,0.000000,14,0.000000,29.207139,0.103325,99,99,0,0,0,0,0
6,69999,71,60000,26,40000,40,9999,0.100000,99,0,0.000000,14,0.000000,28.958256,1.079475,99,99,0,0,0,0,0
6,69999,72,60000,79,40000,40,9999,0.100000,99,0,0.000000,14,2.000000,27.338603,6.808251,99,99,0,0,0,0,0
6,69999,73,60000,26,40000,40,9999,0.100000,99,0,0.000000,14,0.000000,21.403832,1.271602,99,99,0,0,0,0,0
6,69999,74,60000,26,40000,40,9999,0.100000,99,0,0.000000,14,3.000000,29.717857,10.781911,99,99,0,0,0,0,0
6,69999,75,60000,88,10000,40,9999,0.100000,99,0,0.000000,14,2.000000,32.783352,5.436211,99,99,0,0,0,0,0
6,69999,76,60000,26,40000,40,9999,0.100000,99,0,0.000000,14,0.000000,23.261455,0.957897,99,99,0,0,0,0,0
6,69999,77,60000,19,20000,1,9999,0.100000,99,0,0.078685,14,4.000000,32.629943,11.154220,99,99,0,1,0,0,0
6,69999,78,60000,26,40000,41,9999,0.100000,99,0,0.000000,14,3.000000,26.283772,8.951071,99,99,0,0,0,0,0
6,69999,79,60000,88,0,40,9999,0.100000,99,0,0.000000,14,0.000000,33.132823,0.485561,99,99,0,0,0,0,0
6,69999,80,60000,44,0,40,9999,0.100000,99,0,0.000000,14,0.000000,28.351384,7.727341,99,99,0,0,0,0,0
6,69999,81,60000,26,40000,40,9999,0.100000,99,0,0.000000,14,0.000000,18.851553,0.079293,99,99,0,0,0,0,0
6,69999,82,60000,46,20000,40,9999,0.100000,99,0,0.000000,14,0.000000,22.769276,2.431523,99,99,0,0,0,0,0
6,69999,83,60000,26,40000,40,9999,0.100000,99,0,0.000000,14,3.000000,32.514692,7.142522,99,99,0,0,0,0,0
6,69999,84,60000,94,10000,40,9999,0.100000,99,0,0.000000,14,1.000000,22.722060,5.008139,99,99,0,0,0,0,0
6,69999,85,60000,46,20000,40,9999,0.100000,99,0,0.000000,14,0.000000,33.860445,0.492719,99,99,0,0,0,0,0
6,69999,86,60000,26,40000,40,9999,0.100000,99,0,0.000000,14,0.000000,21.100617,0.162123,99,99,0,0,0,0,0
6,69999,87,60000,44,0,40,9999,0.100000,99,0,0.000000,14,0.000000,29.673361,0.307644,99,99,0,0,0,0,0
6,69999,88,60000,80,20000,40,9999,0.100000,99,0,0.000000,14,1.000000,32.849769,4.943524,99,99,0,0,0,0,0
6,69999,89,60000,26,40000,0,9999,0.100000,99,0,0.085393,14,0.000000,28.381422,0.944895,99,99,0,0,0,1,0
6,69999,90,60000,79,40000,40,9999,0.100000,99,0,0.000000,14,0.000000,29.730204,0.612663,99,99,0,0,0,0,0
6,69999,91,60000,61,20000,41,9999,0.100000,99,0,0.000000,14,3.000000,15.746442,8.676095,99,99,0,0,0,0,0
6,69999,92,60000,94,10000,40,9999,0.100000,99,0,0.000000,14,0.000000,18.579143,2.110972,99,99,0,0,0,0,0
6,69999,93,60000,23,0,40,9999,0.100000,99,0,0.000000,14,0.000000,19.230866,0.103961,99,99,0,0,0,0,0
6,69999,94,60000,48,0,40,9999,0.100000,99,0,0.000000,14,0.000000,22.541938,5.262515,99,99,0,0,0,0,0
6,69999,95,60000,61,20000,46,9999,0.100000,99,0,0.000000,14,11.000000,15.986929,12.059569,99,99,0,0,0,0,0
6,69999,96,60000,61,20000,40,9999,0.100000,99,0,0.000000,14,0.000000,24.709185,2.109485,99,99,0,0,0,0,0
6,69999,97,60000,94,10000,40,9999,0.100000,99,0,0.000000,14,0.000000,18.289321,1.533282,99,99,0,0,0,0,0
6,69999,98,60000,94,10000,40,9999,0.100000,99,0,0.000000,14,0.000000,21.109170,0.750813,99,99,0,0,0,0,0
6,69999,99,60000,50,20000,0,9999,0.100000,99,0,0.335084,14,0.000000,18.902523,0.482850,99,99,0,0,1,0,0
7,79999,0,70000,87,0,40,9999,0.100000,99,0,0.000000,14,0.000000,29.346423,13.288034,99,99,0,0,0,0,0
7,79999,1,70000,88,0,40,9999,0.100000,99,0,0.000000,14,2.000000,27.095263,10.018387,99,99,0,0,0,0,0
7,79999,2,70000,44,0,0,9999,0.100000,99,0,0.864912,14,1.000000,26.498843,7.927698,99,99,0,1,0,0,0
7,79999,3,70000,79,40000,40,9999,0.100000,99,0,0.000000,14,0.000000,26.222901,0.999618,99,99,0,0,0,0,0
7,79999,4,70000,88,0,0,9999,0.100000,99,0,0.464892,14,0.000000,33.568358,0.646887,99,99,0,0,0,0,1
7,79999,5,70000,79,40000,0,9999,0.100000,99,0,2.178992,14,0.000000,23.681240,1.173389,99,99,0,0,0,0,1
7,79999,6,70000,9,60000,40,9999,0.100000,99,0,0.000000,14,0.000000,27.898793,0.714735,99,99,0,0,0,0,0
7,79999,7,70000,94,10000,90,9999,0.100000,99,0,1.292632,14,0.000000,33.170034,3.724436,99,99,1,0,0,0,0
7,79999,8,70000,61,20000,45,9999,0.100000,99,0,0.000000,14,14.000000,23.355122,15.220842,99,99,0,0,0,0,0
7,79999,9,70000,26,40000,0,9999,0.100000,99,0,10.057841,14,2.000000,29.284447,6.486056,99,99,0,1,0,0,0
7,79999,10,70000,26,40000,40,9999,0.100000,99,0,0.000000,14,0.000000,19.368898,1.110568,99,99,0,0,0,0,0
7,79999,11,70000,44,0,0,9999,0.100000,99,0,0.261280,14,0.000000,30.302252,0.178755,99,99,0,1,0,0,0
7,79999,12,70000,88,0,40,9999,0.100000,99,0,0.000000,14,1.000000,25.420047,3.398346,99,99,0,0,0,0,0
7,79999,13,70000,26,40000,41,9999,0.100000,99,0,0.000000,14,3.000000,27.228441,9.321960,99,99,0,0,0,0,0
7,79999,14,70000,9,60000,0,9999,0.100000,99,0,0.554215,14,0.000000,19.803829,0.205764,99,99,0,0,1,0,0
7,79999,15,70000,88,10000,40,9999,0.100000,99,0,0.000000,14,0.000000,24.775938,1.193007,99,99,0,0,0,0,0
7,79999,16,70000,88,10000,40,9999,0.100000,99,0,0.000000,14,0.000000,29.904322,0.115150,99,99,0,0,0,0,0
7,79999,17,70000,61,20000,40,9999,0.100000,99,0,0.000000,14,0.000000,34.880554,0.231482,99,99,0,0,0,0,0
7,79999,18,70000,80,20000,0,9999,0.100000,99,0,0.192427,14,0.000000,28.138345,0.775545,99,99,0,0,0,0,1
7,79999,19,70000,19,20000,40,9999,0.100000,99,0,0.000000,14,0.000000,29.972327,2.157330,99,99,0,0,0,0,0
7,79999,20,70000,50,20000,40,9999,0.100000,99,0,0.000000,14,3.000000,29.283711,5.053217,99,99,0,0,0,0,0
7,79999,21,70000,87,0,40,9999,0.100000,99,0,0.000000,14,1.000000,23.845342,9.744689,99,99,0,0,0,0,0
7,79999,22,70000,88,0,40,9999,0.100000,99,0,0.000000,14,0.000000,23.324724,0.561357,99,99,0,0,0,0,0
7,79999,23,70000,88,0,40,9999,0.100000,99,0,0.000000,14,0.000000,28.155766,6.508921,99,99,0,0,0,0,0
7,79999,24,70000,79,40000,41,9999,0.100000,99,0,0.000000,14,4.000000,26.770151,11.391599,99,99,0,0,0,0,0
7,79999,25,70000,79,40000,40,9999,0.100000,99,0,0.000000,14,0.000000,23.443160,0.870376,99,99,0,0,0,0,0
7,79999,26,70000,46,20000,40,9999,0.100000,99,0,0.000000,14,1.000000,18.903555,4.928405,99,99,0,0,0,0,0
7,79999,27,70000,48,0,0,9999,0.100000,99,0,0.007219,14,0.000000,21.144983,0.116541,99,99,0,0,0,1,0
7,79999,28,70000,23,0,40,9999,0.100000,99,0,0.000000,14,0.000000,36.727235,0.184189,99,99,0,0,0,0,0
7,79999,29,70000,50,20000,0,9999,0.100000,99,0,0.702816,14,0.000000,24.316977,0.467774,99,99,0,0,0,1,0
7,79999,30,70000,88,0,40,9999,0.100000,99,0,0.000000,14,1.000000,22.844909,7.313471,99,99,0,0,0,0,0
7,79999,31,70000,23,0,41,9999,0.100000,99,0,0.000000,14,3.000000,27.426478,12.180108,99,99,0,0,0,0,0
7,79999,32,70000,61,20000,40,9999,0.100000,99,0,0.000000,14,0.000000,34.260431,0.191790,99,99,0,0,0,0,0
7,79999,33,70000,46,20000,40,9999,0.100000,99,0,0.000000,14,0.000000,19.393351,0.323254,99,99,0,0,0,0,0
7,79999,34,70000,9,60000,0,9999,0.100000,99,0,0.099177,14,0.000000,19.502010,0.274511,99,99,0,0,0,0,1
7,79999,35,70000,87,0,40,9999,0.100000,99,0,0.000000,14,0.000000,19.153985,0.084305,99,99,0,0,0,0,0
7,79999,36,70000,44,0,40,9999,0.100000,99,0,0.000000,14,1.000000,26.467620,1.155114,99,99,0,0,0,0,0
7,79999,37,70000,9,60000,40,9999,0.100000,99,0,0.000000,14,0.000000,25.920876,1.007507,99,99,0,0,0,0,0
7,79999,38,70000,44,0,40,9999,0.100000,99,0,0.000000,14,0.000000,23.435125,1.355513,99,99,0,0,0,0,0
7,79999,39,70000,46,20000,40,9999,0.100000,99,0,0.000000,14,0.000000,19.157438,0.855610,99,99,0,0,0,0,0
7,79999,40,70000,94,10000,40,9999,0.100000,99,0,0.000000,14,0.000000,26.851327,11.279537,99,99,0,0,0,0,0
7,79999,41,70000,94,10000,41,9999,0.100000,99,0,0.000000,14,3.000000,24.523753,9.676816,99,99,0,0,0,0,0
7,79999,42,70000,80,20000,0,9999,0.100000,99,0,10.077924,14,2.000000,29.398568,5.665228,99,99,0,1,0,0,0
7,79999,43,70000,80,20000,40,9999,0.100000,99,0,0.000000,14,0.000000,28.863775,0.697538,99,99,0,0,0,0,0
7,79999,44,70000,88,10000,90,9999,0.100000,99,0,2.964428,14,0.000000,26.140142,2.759238,99,99,1,0,0,0,0
7,79999,45,70000,26,40000,40,9999,0.100000,99,0,0.000000,14,1.000000,25.168421,3.260182,99,99,0,0,0,0,0
7,79999,46,70000,88,10000,40,9999,0.100000,99,0,0.000000,14,1.000000,25.714027,15.920858,99,99,0,0,0,0,0
7,79999,47,70000,87,0,40,9999,0.100000,99,0,0.000000,14,0.000000,18.376118,0.973525,99,99,0,0,0,0,0
7,79999,48,70000,19,20000,40,9999,0.100000,99,0,0.000000,14,2.000000,26.039364,19.335354,99,99,0,0,0,0,0
7,79999,49,70000,79,40000,40,9999,0.100000,99,0,0.000000,14,0.000000,33.911372,0.791896,99,99,0,0,0,0,0
7,79999,50,70000,80,20000,40,9999,0.100000,99,0,0.000000,14,1.000000,26.388305,1.111535,99,99,0,0,0,0,0
7,79999,51,70000,44,0,40,9999,0.100000,99,0,0.000000,14,3.000000,29.692388,10.107297,99,99,0,0,0,0,0
7,79999,52,70000,9,60000,40,9999,0.100000,99,0,0.000000,14,2.000000,32.284470,4.037812,99,99,0,0,0,0,0
7,79999,53,70000,88,10000,40,9999,0.100000,99,0,0.000000,14,0.000000,20.816017,0.979211,99,99,0,0,0,0,0
7,79999,54,70000,79,40000,0,9999,0.100000,99,0,0.039069,14,0.000000,28.518644,0.095426,99,99,0,0,0,1,0
7,79999,55,70000,48,0,40,9999,0.100000,99,0,0.000000,14,0.000000,29.728768,0.450314,99,99,0,0,0,0,0
7,79999,56,70000,87,0,40,9999,0.100000,99,0,0.000000,14,0.000000,29.828808,0.404823,99,99,0,0,0,0,0
7,79999,57,70000,87,0,40,9999,0.100000,99,0,0.000000,14,0.000000,18.978563,0.081676,99,99,0,0,0,0,0
7,79999,58,70000,88,10000,40,9999,0.100000,99,0,0.000000,14,0.000000,28.978246,0.175345,99,99,0,0,0,0,0
7,79999,59,70000,80,20000,40,9999,0.100000,99,0,0.000000,14,0.000000,27.364376,4.073521,99,99,0,0,0,0,0
7,79999,60,70000,44,0,40,9999,0.100000,99,0,0.000000,14,0.000000,23.171305,11.625027,99,99,0,0,0,0,0
7,79999,61,70000,61,20000,40,9999,0.100000,99,0,0.000000,14,0.000000,24.445657,3.044604,99,99,0,0,0,0,0
7,79999,62,70000,94,10000,40,9999,0.100000,99,0,0.000000,14,0.000000,28.832497,0.568961,99,99,0,0,0,0,0
7,79999,63,70000,80,20000,40,9999,0.100000,99,0,0.000000,14,0.000000,26.024279,7.175476,99,99,0,0,0,0,0
7,79999,64,70000,87,0,40,9999,0.100000,99,0,0.000000,14,0.000000,24.168031,0.368811,99,99,0,0,0,0,0
7,79999,65,70000,79,40000,40,9999,0.100000,99,0,0.000000,14,0.000000,28.716262,0.163036,99,99,0,0,0,0,0
7,79999,66,70000,46,20000,41,9999,0.100000,99,0,0.000000,14,4.000000,27.610561,11.075118,99,99,0,0,0,0,0
7,79999,67,70000,44,0,40,9999,0.100000,99,0,0.000000,14,2.000000,27.333377,7.410100,99,99,0,0,0,0,0
7,79999,68,70000,23,0,40,9999,0.100000,99,0,0.000000,14,0.000000,15.982377,0.236613,99,99,0,0,0,0,0
7,79999,69,70000,94,10000,40,9999,0.100000,99,0,0.000000,14,3.000000,30.013992,9.749758,99,99,0,0,0,0,0
7,79999,70,70000,94,10000,40,9999,0.100000,99,0,0.000000,14,0.000000,29.210451,0.106210,99,99,0,0,0,0,0
7,79999,71,70000,48,0,41,9999,0.100000,99,0,0.000000,14,5.000000,29.054595,7.676132,99,99,0,0,0,0,0
7,79999,72,70000,88,0,41,9999,0.100000,99,0,0.000000,14,4.000000,25.383139,17.114811,99,99,0,0,0,0,0
7,79999,73,70000,88,0,40,9999,0.100000,99,0,0.000000,14,0.000000,20.959030,1.002975,99,99,0,0,0,0,0
7,79999,74,70000,50,20000,40,9999,0.100000,99,0,0.000000,14,3.000000,32.692848,6.807937,99,99,0,0,0,0,0
7,79999,75,70000,9,60000,40,9999,0.100000,99,0,0.000000,14,0.000000,34.011083,5.923562,99,99,0,0,0,0,0
7,79999,76,70000,80,20000,40,9999,0.100000,99,0,0.000000,14,0.000000,24.044597,0.309488,99,99,0,0,0,0,0
7,79999,77,70000,50,20000,0,9999,0.100000,99,0,1.625095,14,0.000000,34.220540,0.671345,99,99,0,1,0,0,0
7,79999,78,70000,94,10000,40,9999,0.100000,99,0,0.000000,14,0.000000,29.643470,0.420627,99,99,0,0,0,0,0
7,79999,79,70000,88,10000,40,9999,0.100000,99,0,0.000000,14,0.000000,33.304981,0.162247,99,99,0,0,0,0,0
7,79999,80,70000,46,20000,40,9999,0.100000,99,0,0.000000,14,2.000000,27.904836,10.178004,99,99,0,0,0,0,0
7,79999,81,70000,88,0,40,9999,0.100000,99,0,0.000000,14,0.000000,18.833234,0.091105,99,99,0,0,0,0,0
7,79999,82,70000,44,0,40,9999,0.100000,99,0,0.000000,14,0.000000,23.580201,1.039218,99,99,0,0,0,0,0
7,79999,83,70000,88,10000,40,9999,0.100000,99,0,0.000000,14,0.000000,36.170188,0.392414,99,99,0,0,0,0,0
7,79999,84,70000,44,0,40,9999,0.100000,99,0,0.000000,14,1.000000,23.179253,21.696045,99,99,0,0,0,0,0
7,79999,85,70000,50,20000,40,9999,0.100000,99,0,0.000000,14,0.000000,34.021586,0.374871,99,99,0,0,0,0,0
7,79999,86,70000,46,20000,40,9999,0.100000,99,0,0.000000,14,0.000000,21.100439,0.159787,99,99,0,0,0,0,0
7,79999,87,70000,46,20000,40,9999,0.100000,99,0,0.000000,14,0.000000,29.744447,0.314000,99,99,0,0,0,0,0
7,79999,88,70000,80,20000,40,9999,0.100000,99,0,0.000000,14,0.000000,33.684119,2.419236,99,99,0,0,0,0,0
7,79999,89,70000,88,10000,40,9999,0.100000,99,0,0.000000,14,0.000000,28.738750,0.896689,99,99,0,0,0,0,0
7,79999,90,70000,79,40000,40,9999,0.100000,99,0,0.000000,14,0.000000,29.787968,0.631710,99,99,0,0,0,0,0
7,79999,91,70000,88,0,94,9999,0.100000,99,0,31.127893,14,10.000000,19.279706,23.473917,99,99,1,0,0,0,0
7,79999,92,70000,46,20000,45,9999,0.100000,99,0,0.000000,14,11.000000,18.779043,13.120195,99,99,0,0,0,0,0
7,79999,93,70000,88,10000,40,9999,0.100000,99,0,0.000000,14,0.000000,19.234150,0.425009,99,99,0,0,0,0,0
7,79999,94,70000,48,0,40,9999,0.100000,99,0,0.000000,14,0.000000,22.774388,2.379818,99,99,0,0,0,0,0
7,79999,95,70000,48,0,40,9999,0.100000,99,0,0.000000,14,0.000000,26.312988,1.071915,99,99,0,0,0,0,0
7,79999,96,70000,44,0,40,9999,0.100000,99,0,0.000000,14,0.000000,24.609612,2.171219,99,99,0,0,0,0,0
7,79999,97,70000,26,40000,40,9999,0.100000,99,0,0.000000,14,0.000000,18.688863,2.246445,99,99,0,0,0,0,0
7,79999,98,70000,44,0,40,9999,0.100000,99,0,0.000000,14,0.000000,20.674773,0.919965,99,99,0,0,0,0,0
7,79999,99,70000,80,20000,40,9999,0.100000,99,0,0.000000,14,0.000000,19.002288,5.589416,99,99,0,0,0,0,0
8,89999,0,80000,26,40000,40,9999,0.100000,99,0,0.000000,14,1.000000,28.825265,5.716440,99,99,0,0,0,0,0
8,89999,1,80000,23,0,40,9999,0.100000,99,0,0.000000,14,1.000000,25.342038,6.037181,99,99,0,0,0,0,0
8,89999,2,80000,46,20000,2,9999,0.100000,99,0,37.181823,14,7.000000,26.712479,13.725992,99,99,0,1,0,0,0
8,89999,3,80000,94,10000,40,9999,0.100000,99,0,0.000000,14,0.000000,25.444795,1.821788,99,99,0,0,0,0,0
8,89999,4,80000,48,0,0,9999,0.100000,99,0,0.475698,14,0.000000,33.577723,0.434071,99,99,0,0,0,0,1
8,89999,5,80000,94,10000,40,9999,0.100000,99,0,0.000000,14,0.000000,24.244332,5.293902,99,99,0,0,0,0,0
8,89999,6,80000,44,0,40,9999,0.100000,99,0,0.000000,14,0.000000,28.409704,1.192042,99,99,0,0,0,0,0
8,89999,7,80000,9,60000,90,9999,0.100000,99,0,4.180883,14,0.000000,33.609536,4.598737,99,99,1,0,0,0,0
8,89999,8,80000,88,10000,40,9999,0.100000,99,0,0.000000,14,2.000000,28.261677,5.296768,99,99,0,0,0,0,0
8,89999,9,80000,23,0,40,9999,0.100000,99,0,0.000000,14,0.000000,30.454897,6.750807,99,99,0,0,0,0,0
8,89999,10,80000,9,60000,40,9999,0.100000,99,0,0.000000,14,0.000000,19.351981,1.229788,99,99,0,0,0,0,0
8,89999,11,80000,61,20000,0,9999,0.100000,99,0,0.118241,14,0.000000,30.319844,0.170028,99,99,0,1,0,0,0
8,89999,12,80000,50,20000,2,9999,0.100000,99,0,37.170046,14,7.000000,26.447544,12.515860,99,99,0,1,0,0,0
8,89999,13,80000,23,0,40,9999,0.100000,99,0,0.000000,14,1.000000,30.332474,9.950565,99,99,0,0,0,0,0
8,89999,14,80000,50,20000,0,9999,0.100000,99,0,0.187401,14,0.000000,19.888893,0.177936,99,99,0,0,1,0,0
8,89999,15,80000,88,0,40,9999,0.100000,99,0,0.000000,14,0.000000,24.693421,2.957767,99,99,0,0,0,0,0
8,89999,16,80000,94,10000,40,9999,0.100000,99,0,0.000000,14,0.000000,29.904050,0.113651,99,99,0,0,0,0,0
8,89999,17,80000,23,0,40,9999,0.100000,99,0,0.000000,14,0.000000,34.880828,0.239273,99,99,0,0,0,0,0
8,89999,18,80000,61,20000,0,9999,0.100000,99,0,0.346316,14,0.000000,28.017013,1.370799,99,99,0,0,0,0,1
8,89999,19,80000,23,0,40,9999,0.100000,99,0,0.000000,14,0.000000,30.029423,2.100015,99,99,0,0,0,0,0
8,89999,20,80000,44,0,41,9999,0.100000,99,0,0.000000,14,3.000000,28.293320,10.606040,99,99,0,0,0,0,0
8,89999,21,80000,80,20000,40,9999,0.100000,99,0,0.000000,14,0.000000,25.540123,3.815754,99,99,0,0,0,0,0
8,89999,22,80000,26,40000,0,9999,0.100000,99,0,2.637127,14,0.000000,23.752340,1.040213,99,99,0,0,0,0,1
8,89999,23,80000,48,0,40,9999,0.100000,99,0,0.000000,14,2.000000,28.113825,7.032525,99,99,0,0,0,0,0
8,89999,24,80000,61,20000,40,9999,0.100000,99,0,0.000000,14,2.000000,24.347975,19.795081,99,99,0,0,0,0,0
8,89999,25,80000,94,10000,40,9999,0.100000,99,0,0.000000,14,0.000000,23.917617,1.205814,99,99,0,0,0,0,0
8,89999,26,80000,79,40000,40,9999,0.100000,99,0,0.000000,14,0.000000,19.346015,2.789388,99,99,0,0,0,0,0
8,89999,27,80000,26,40000,0,9999,0.100000,99,0,0.007255,14,0.000000,21.146188,0.118109,99,99,0,0,0,1,0
8,89999,28,80000,9,60000,40,9999,0.100000,99,0,0.000000,14,0.000000,36.726743,0.185975,99,99,0,0,0,0,0
8,89999,29,80000,46,20000,40,9999,0.100000,99,0,0.000000,14,2.000000,24.484825,19.596118,99,99,0,0,0,0,0
8,89999,30,80000,87,0,40,9999,0.100000,99,0,0.000000,14,0.000000,23.914254,3.148652,99,99,0,0,0,0,0
8,89999,31,80000,80,20000,40,9999,0.100000,99,0,0.000000,14,1.000000,30.267773,3.748031,99,99,0,0,0,0,0
8,89999,32,80000,61,20000,40,9999,0.100000,99,0,0.000000,14,0.000000,34.270312,0.185423,99,99,0,0,0,0,0
8,89999,33,80000,48,0,40,9999,0.100000,99,0,0.000000,14,0.000000,19.258341,0.340780,99,99,0,0,0,0,0
8,89999,34,80000,80,20000,0,9999,0.100000,99,0,0.122639,14,0.000000,19.483131,0.274649,99,99,0,0,0,0,1
8,89999,35,80000,87,0,40,9999,0.100000,99,0,0.000000,14,0.000000,19.139527,0.088222,99,99,0,0,0,0,0
8,89999,36,80000,50,20000,40,9999,0.100000,99,0,0.000000,14,2.000000,27.439456,3.056556,99,99,0,0,0,0,0
8,89999,37,80000,80,20000,40,9999,0.100000,99,0,0.000000,14,0.000000,25.139537,2.278348,99,99,0,0,0,0,0
8,89999,38,80000,9,60000,40,9999,0.100000,99,0,0.000000,14,0.000000,24.059679,9.717995,99,99,0,0,0,0,0
8,89999,39,80000,48,0,40,9999,0.100000,99,0,0.000000,14,0.000000,19.451049,1.400019,99,99,0,0,0,0,0
8,89999,40,80000,44,0,40,9999,0.100000,99,0,0.000000,14,0.000000,26.450695,13.457508,99,99,0,0,0,0,0
8,89999,41,80000,48,0,40,9999,0.100000,99,0,0.000000,14,1.000000,22.713979,10.760222,99,99,0,0,0,0,0
8,89999,42,80000,9,60000,40,9999,0.100000,99,0,0.000000,14,1.000000,31.252767,3.163077,99,99,0,0,0,0,0
8,89999,43,80000,94,10000,40,9999,0.100000,99,0,0.000000,14,0.000000,28.761957,3.533583,99,99,0,0,0,0,0
8,89999,44,80000,79,40000,90,9999,0.100000,99,0,0.830017,14,0.000000,26.738948,1.010549,99,99,1,0,0,0,0
8,89999,45,80000,46,20000,40,9999,0.100000,99,0,0.000000,14,2.000000,25.036888,10.768642,99,99,0,0,0,0,0
8,89999,46,80000,87,0,40,9999,0.100000,99,0,0.000000,14,1.000000,24.761662,17.121775,99,99,0,0,0,0,0
8,89999,47,80000,80,20000,40,9999,0.100000,99,0,0.000000,14,0.000000,19.081958,0.867143,99,99,0,0,0,0,0
8,89999,48,80000,61,20000,40,9999,0.100000,99,0,0.000000,14,1.000000,26.797939,6.044557,99,99,0,0,0,0,0
8,89999,49,80000,44,0,40,9999,0.100000,99,0,0.000000,14,0.000000,33.926591,0.608399,99,99,0,0,0,0,0
8,89999,50,80000,79,40000,40,9999,0.100000,99,0,0.000000,14,2.000000,27.323105,3.183547,99,99,0,0,0,0,0
8,89999,51,80000,23,0,40,9999,0.100000,99,0,0.000000,14,2.000000,30.727093,10.982614,99,99,0,0,0,0,0
8,89999,52,80000,94,10000,41,9999,0.100000,99,0,0.000000,14,4.000000,31.633714,9.309863,99,99,0,0,0,0,0
8,89999,53,80000,23,0,40,9999,0.100000,99,0,0.000000,14,0.000000,20.190916,2.385361,99,99,0,0,0,0,0
8,89999,54,80000,94,10000,0,9999,0.100000,99,0,0.036682,14,0.000000,28.520972,0.094222,99,99,0,0,0,1,0
8,89999,55,80000,88,0,40,9999,0.100000,99,0,0.000000,14,0.000000,29.793942,0.415621,99,99,0,0,0,0,0
8,89999,56,80000,9,60000,40,9999,0.100000,99,0,0.000000,14,0.000000,29.879533,0.456256,99,99,0,0,0,0,0
8,89999,57,80000,80,20000,40,9999,0.100000,99,0,0.000000,14,0.000000,18.967082,0.082124,99,99,0,0,0,0,0
8,89999,58,80000,87,0,40,9999,0.100000,99,0,0.000000,14,0.000000,28.980413,0.173988,99,99,0,0,0,0,0
8,89999,59,80000,48,0,40,9999,0.100000,99,0,0.000000,14,0.000000,27.024229,6.041539,99,99,0,0,0,0,0
8,89999,60,80000,87,0,40,9999,0.100000,99,0,0.000000,14,0.000000,23.466707,6.883534,99,99,0,0,0,0,0
8,89999,61,80000,80,20000,40,9999,0.100000,99,0,0.000000,14,2.000000,24.652775,22.174116,99,99,0,0,0,0,0
8,89999,62,80000,87,0,40,9999,0.100000,99,0,0.000000,14,0.000000,28.743339,1.664763,99,99,0,0,0,0,0
8,89999,63,80000,23,0,41,9999,0.100000,99,0,0.000000,14,3.000000,25.484014,11.317187,99,99,0,0,0,0,0
8,89999,64,80000,79,40000,0,9999,0.100000,99,0,1.102565,14,0.000000,24.289088,0.497246,99,99,0,0,0,1,0
8,89999,65,80000,79,40000,40,9999,0.100000,99,0,0.000000,14,0.000000,28.710405,0.168316,99,99,0,0,0,0,0
8,89999,66,80000,87,0,40,9999,0.100000,99,0,0.000000,14,0.000000,23.916246,3.661684,99,99,0,0,0,0,0
8,89999,67,80000,88,10000,40,9999,0.100000,99,0,0.000000,14,1.000000,28.843316,14.286284,99,99,0,0,0,0,0
8,89999,68,80000,94,10000,40,9999,0.100000,99,0,0.000000,14,0.000000,15.982904,0.232885,99,99,0,0,0,0,0
8,89999,69,80000,94,10000,40,9999,0.100000,99,0,0.000000,14,0.000000,26.978307,6.937484,99,99,0,0,0,0,0
8,89999,70,80000,88,0,40,9999,0.100000,99,0,0.000000,14,0.000000,29.212628,0.101312,99,99,0,0,0,0,0
8,89999,71,80000,94,10000,40,9999,0.100000,99,0,0.000000,14,1.000000,30.320133,5.493899,99,99,0,0,0,0,0
8,89999,72,80000,9,60000,42,9999,0.100000,99,0,0.000000,14,7.000000,28.548943,16.791478,99,99,0,0,0,0,0
8,89999,73,80000,46,20000,40,9999,0.100000,99,0,0.000000,14,0.000000,20.333487,2.929869,99,99,0,0,0,0,0
8,89999,74,80000,87,0,40,9999,0.100000,99,0,0.000000,14,2.000000,30.382280,10.481532,99,99,0,0,0,0,0
8,89999,75,80000,79,40000,40,9999,0.100000,99,0,0.000000,14,0.000000,34.229472,3.821870,99,99,0,0,0,0,0
8,89999,76,80000,88,10000,40,9999,0.100000,99,0,0.000000,14,0.000000,24.145962,0.538275,99,99,0,0,0,0,0
8,89999,77,80000,8,70000,0,9999,0.100000,99,0,0.931867,14,0.000000,34.228152,0.548546,99,99,0,1,0,0,0
8,89999,78,80000,88,10000,40,9999,0.100000,99,0,0.000000,14,0.000000,29.793254,0.344798,99,99,0,0,0,0,0
8,89999,79,80000,61,20000,40,9999,0.100000,99,0,0.000000,14,0.000000,33.320213,0.161236,99,99,0,0,0,0,0
8,89999,80,80000,9,60000,40,9999,0.100000,99,0,0.000000,14,1.000000,27.336653,7.305586,99,99,0,0,0,0,0
8,89999,81,80000,87,0,40,9999,0.100000,99,0,0.000000,14,0.000000,18.824446,0.086323,99,99,0,0,0,0,0
8,89999,82,80000,94,10000,40,9999,0.100000,99,0,0.000000,14,0.000000,24.135770,2.855064,99,99,0,0,0,0,0
8,89999,83,80000,26,40000,40,9999,0.100000,99,0,0.000000,14,0.000000,36.353148,0.213458,99,99,0,0,0,0,0
8,89999,84,80000,79,40000,40,9999,0.100000,99,0,0.000000,14,2.000000,23.891400,15.625484,99,99,0,0,0,0,0
8,89999,85,80000,61,20000,40,9999,0.100000,99,0,0.000000,14,0.000000,34.035599,0.296668,99,99,0,0,0,0,0
8,89999,86,80000,88,0,40,9999,0.100000,99,0,0.000000,14,0.000000,21.100266,0.160649,99,99,0,0,0,0,0
8,89999,87,80000,87,0,40,9999,0.100000,99,0,0.000000,14,0.000000,29.804560,0.248184,99,99,0,0,0,0,0
8,89999,88,80000,87,0,40,9999,0.100000,99,0,0.000000,14,0.000000,33.765462,1.588123,99,99,0,0,0,0,0
8,89999,89,80000,46,20000,40,9999,0.100000,99,0,0.000000,14,1.000000,29.198844,4.380628,99,99,0,0,0,0,0
8,89999,90,80000,9,60000,40,9999,0.100000,99,0,0.000000,14,0.000000,29.843566,0.695346,99,99,0,0,0,0,0
8,89999,91,80000,80,20000,94,9999,0.100000,99,0,48.368770,14,9.000000,19.214943,12.729745,99,99,1,0,0,0,0
8,89999,92,80000,61,20000,40,9999,0.100000,99,0,0.000000,14,0.000000,29.850996,0.113942,99,99,0,0,0,0,0
8,89999,93,80000,61,20000,40,9999,0.100000,99,0,0.000000,14,0.000000,19.323534,0.527215,99,99,0,0,0,0,0
8,89999,94,80000,88,0,40,9999,0.100000,99,0,0.000000,14,0.000000,23.630885,2.750064,99,99,0,0,0,0,0
8,89999,95,80000,94,10000,40,9999,0.100000,99,0,0.000000,14,1.000000,27.212863,3.139122,99,99,0,0,0,0,0
8,89999,96,80000,61,20000,40,9999,0.100000,99,0,0.000000,14,0.000000,24.528824,2.886255,99,99,0,0,0,0,0
8,89999,97,80000,79,40000,40,9999,0.100000,99,0,0.000000,14,0.000000,18.094760,2.229776,99,99,0,0,0,0,0
8,89999,98,80000,9,60000,40,9999,0.100000,99,0,0.000000,14,0.000000,20.050597,2.564946,99,99,0,0,0,0,0
8,89999,99,80000,88,10000,40,9999,0.100000,99,0,0.000000,14,0.000000,19.231869,0.745282,99,99,0,0,0,0,0
9,99999,0,90000,23,0,40,9999,0.100000,99,0,0.000000,14,0.000000,29.370853,8.062699,99,99,0,0,0,0,0
9,99999,1,90000,88,10000,40,9999,0.100000,99,0,0.000000,14,1.000000,26.522977,10.412323,99,99,0,0,0,0,0
9,99999,2,90000,48,0,40,9999,0.100000,99,0,0.000000,14,1.000000,31.194159,4.460253,99,99,0,0,0,0,0
9,99999,3,90000,8,70000,40,9999,0.100000,99,0,0.000000,14,0.000000,24.767909,2.883578,99,99,0,0,0,0,0
9,99999,4,90000,88,0,0,9999,0.100000,99,0,0.511509,14,0.000000,33.581138,0.430868,99,99,0,0,0,0,1
9,99999,5,90000,87,0,40,9999,0.100000,99,0,0.000000,14,1.000000,24.636879,2.009325,99,99,0,0,0,0,0
9,99999,6,90000,50,20000,40,9999,0.100000,99,0,0.000000,14,0.000000,29.206297,0.613361,99,99,0,0,0,0,0
9,99999,7,90000,9,60000,91,9999,0.100000,99,0,30.317276,14,5.000000,33.217887,14.912151,99,99,1,0,0,0,0
9,99999,8,90000,88,10000,41,9999,0.100000,99,0,0.000000,14,4.000000,29.075870,9.528596,99,99,0,0,0,0,0
9,99999,9,90000,94,10000,40,9999,0.100000,99,0,0.000000,14,3.000000,30.579052,13.528784,99,99,0,0,0,0,0
9,99999,10,90000,50,20000,40,9999,0.100000,99,0,0.000000,14,0.000000,19.335031,1.143157,99,99,0,0,0,0,0
9,99999,11,90000,87,0,0,9999,0.100000,99,0,0.172751,14,0.000000,30.325577,0.161730,99,99,0,1,0,0,0
9,99999,12,90000,23,0,40,9999,0.100000,99,0,0.000000,14,0.000000,31.041192,4.720007,99,99,0,0,0,0,0
9,99999,13,90000,8,70000,40,9999,0.100000,99,0,0.000000,14,2.000000,29.826562,4.762932,99,99,0,0,0,0,0
9,99999,14,90000,23,0,0,9999,0.100000,99,0,0.583580,14,0.000000,19.859844,0.603321,99,99,0,0,1,0,0
9,99999,15,90000,61,20000,40,9999,0.100000,99,0,0.000000,14,0.000000,24.925982,3.230396,99,99,0,0,0,0,0
9,99999,16,90000,48,0,40,9999,0.100000,99,0,0.000000,14,0.000000,29.903780,0.114863,99,99,0,0,0,0,0
9,99999,17,90000,80,20000,40,9999,0.100000,99,0,0.000000,14,0.000000,34.881385,0.228318,99,99,0,0,0,0,0
9,99999,18,90000,23,0,40,9999,0.100000,99,0,0.000000,14,0.000000,27.676948,1.267462,99,99,0,0,0,0,0
9,99999,19,90000,79,40000,40,9999,0.100000,99,0,0.000000,14,0.000000,30.037472,2.409533,99,99,0,0,0,0,0
9,99999,20,90000,61,20000,40,9999,0.100000,99,0,0.000000,14,0.000000,29.322384,6.642249,99,99,0,0,0,0,0
9,99999,21,90000,9,60000,40,9999,0.100000,99,0,0.000000,14,1.000000,25.666942,4.917307,99,99,0,0,0,0,0
9,99999,22,90000,94,10000,0,9999,0.100000,99,0,0.340633,14,0.000000,24.178508,0.347891,99,99,0,0,0,0,1
9,99999,23,90000,44,0,41,9999,0.100000,99,0,0.000000,14,3.000000,25.435681,6.652726,99,99,0,0,0,0,0
9,99999,24,90000,88,0,40,9999,0.100000,99,0,0.000000,14,2.000000,25.218674,7.668059,99,99,0,0,0,0,0
9,99999,25,90000,9,60000,40,9999,0.100000,99,0,0.000000,14,0.000000,24.357056,0.376253,99,99,0,0,0,0,0
9,99999,26,90000,50,20000,40,9999,0.100000,99,0,0.000000,14,0.000000,18.457443,0.556205,99,99,0,0,0,0,0
9,99999,27,90000,80,20000,0,9999,0.100000,99,0,0.007155,14,0.000000,21.147420,0.116879,99,99,0,0,0,1,0
9,99999,28,90000,80,20000,40,9999,0.100000,99,0,0.000000,14,0.000000,36.727076,0.186873,99,99,0,0,0,0,0
9,99999,29,90000,23,0,0,9999,0.100000,99,0,0.020228,14,1.000000,26.335261,17.683119,99,99,0,0,0,1,0
9,99999,30,90000,8,70000,40,9999,0.100000,99,0,0.000000,14,1.000000,23.919348,11.631382,99,99,0,0,0,0,0
9,99999,31,90000,48,0,40,9999,0.100000,99,0,0.000000,14,0.000000,28.339209,6.547386,99,99,0,0,0,0,0
9,99999,32,90000,88,10000,40,9999,0.100000,99,0,0.000000,14,0.000000,34.274303,0.192426,99,99,0,0,0,0,0
9,99999,33,90000,46,20000,40,9999,0.100000,99,0,0.000000,14,0.000000,19.119024,0.335303,99,99,0,0,0,0,0
9,99999,34,90000,61,20000,0,9999,0.100000,99,0,0.154959,14,0.000000,19.460649,0.297275,99,99,0,0,0,0,1
9,99999,35,90000,61,20000,40,9999,0.100000,99,0,0.000000,14,0.000000,19.126452,0.103382,99,99,0,0,0,0,0
9,99999,36,90000,88,10000,41,9999,0.100000,99,0,0.000000,14,5.000000,29.189561,9.420900,99,99,0,0,0,0,0
9,99999,37,90000,88,0,43,9999,0.100000,99,0,0.000000,14,8.000000,24.645348,11.899663,99,99,0,0,0,0,0
9,99999,38,90000,50,20000,40,9999,0.100000,99,0,0.000000,14,0.000000,24.158718,5.762058,99,99,0,0,0,0,0
9,99999,39,90000,9,60000,40,9999,0.100000,99,0,0.000000,14,0.000000,19.680978,0.610354,99,99,0,0,0,0,0
9,99999,40,90000,8,70000,40,9999,0.100000,99,0,0.000000,14,1.000000,25.813696,9.140355,99,99,0,0,0,0,0
9,99999,41,90000,46,20000,40,9999,0.100000,99,0,0.000000,14,2.000000,22.982690,11.316170,99,99,0,0,0,0,0
9,99999,42,90000,50,20000,40,9999,0.100000,99,0,0.000000,14,1.000000,29.904258,8.442010,99,99,0,0,0,0,0
9,99999,43,90000,94,10000,40,9999,0.100000,99,0,0.000000,14,0.000000,27.947144,1.316205,99,99,0,0,0,0,0
9,99999,44,90000,87,0,90,9999,0.100000,99,0,0.324479,14,0.000000,26.570076,1.185368,99,99,1,0,0,0,0
9,99999,45,90000,9,60000,40,9999,0.100000,99,0,0.000000,14,2.000000,26.218913,6.045190,99,99,0,0,0,0,0
9,99999,46,90000,50,20000,40,9999,0.100000,99,0,0.000000,14,1.000000,25.159944,20.930639,99,99,0,0,0,0,0
9,99999,47,90000,80,20000,40,9999,0.100000,99,0,0.000000,14,0.000000,19.718980,1.659242,99,99,0,0,0,0,0
9,99999,48,90000,88,10000,40,9999,0.100000,99,0,0.000000,14,1.000000,27.227414,4.887798,99,99,0,0,0,0,0
9,99999,49,90000,87,0,40,9999,0.100000,99,0,0.000000,14,0.000000,33.932375,0.400941,99,99,0,0,0,0,0
9,99999,50,90000,88,0,40,9999,0.100000,99,0,0.000000,14,0.000000,29.065510,3.238873,99,99,0,0,0,0,0
9,99999,51,90000,88,10000,40,9999,0.100000,99,0,0.000000,14,2.000000,30.471330,9.945954,99,99,0,0,0,0,0
9,99999,52,90000,46,20000,40,9999,0.100000,99,0,0.000000,14,0.000000,30.488756,12.669034,99,99,0,0,0,0,0
9,99999,53,90000,61,20000,40,9999,0.100000,99,0,0.000000,14,0.000000,19.763875,5.493071,99,99,0,0,0,0,0
9,99999,54,90000,79,40000,0,9999,0.100000,99,0,0.009823,14,0.000000,28.524378,0.090473,99,99,0,0,0,1,0
9,99999,55,90000,88,0,40,9999,0.100000,99,0,0.000000,14,0.000000,29.838198,0.969059,99,99,0,0,0,0,0
9,99999,56,90000,88,10000,40,9999,0.100000,99,0,0.000000,14,0.000000,29.876864,1.351602,99,99,0,0,0,0,0
9,99999,57,90000,79,40000,40,9999,0.100000,99,0,0.000000,14,0.000000,18.959640,0.082917,99,99,0,0,0,0,0
9,99999,58,90000,44,0,40,9999,0.100000,99,0,0.000000,14,0.000000,28.983217,0.144332,99,99,0,0,0,0,0
9,99999,59,90000,80,20000,40,9999,0.100000,99,0,0.000000,14,1.000000,27.839232,7.832706,99,99,0,0,0,0,0
9,99999,60,90000,79,40000,46,9999,0.100000,99,0,0.000000,14,17.000000,23.907808,22.253146,99,99,0,0,0,0,0
9,99999,61,90000,61,20000,40,9999,0.100000,99,0,0.000000,14,2.000000,26.641072,18.326222,99,99,0,0,0,0,0
9,99999,62,90000,46,20000,40,9999,0.100000,99,0,0.000000,14,0.000000,27.987382,5.997418,99,99,0,0,0,0,0
9,99999,63,90000,46,20000,40,9999,0.100000,99,0,0.000000,14,1.000000,25.551572,5.064124,99,99,0,0,0,0,0
9,99999,64,90000,88,10000,40,9999,0.100000,99,0,0.000000,14,0.000000,24.508614,0.292949,99,99,0,0,0,0,0
9,99999,65,90000,87,0,40,9999,0.100000,99,0,0.000000,14,0.000000,28.704551,0.161359,99,99,0,0,0,0,0
9,99999,66,90000,87,0,40,9999,0.065000,99,0,0.000000,14,0.000000,24.738275,0.536056,99,99,0,0,0,0,0
9,99999,67,90000,9,60000,40,9999,0.100000,99,0,0.000000,14,0.000000,27.586576,4.916282,99,99,0,0,0,0,0
9,99999,68,90000,8,70000,40,9999,0.100000,99,0,0.000000,14,0.000000,15.980555,0.239023,99,99,0,0,0,0,0
9,99999,69,90000,88,10000,40,9999,0.100000,99,0,0.000000,14,0.000000,26.815046,11.092240,99,99,0,0,0,0,0
9,99999,70,90000,48,0,40,9999,0.100000,99,0,0.000000,14,0.000000,29.215691,0.098088,99,99,0,0,0,0,0
9,99999,71,90000,88,0,0,9999,0.100000,99,0,0.008187,14,2.000000,30.022902,3.421566,99,99,0,0,1,0,0
9,99999,72,90000,50,20000,40,9999,0.100000,99,0,0.000000,14,1.000000,26.217272,23.778893,99,99,0,0,0,0,0
9,99999,73,90000,80,20000,40,9999,0.100000,99,0,0.000000,14,0.000000,20.037243,1.490766,99,99,0,0,0,0,0
9,99999,74,90000,44,0,40,9999,0.100000,99,0,0.000000,14,1.000000,28.350684,5.127647,99,99,0,0,0,0,0
9,99999,75,90000,80,20000,40,9999,0.100000,99,0,0.000000,14,0.000000,34.115033,10.818144,99,99,0,0,0,0,0
9,99999,76,90000,94,10000,40,9999,0.100000,99,0,0.000000,14,0.000000,24.307979,0.502782,99,99,0,0,0,0,0
9,99999,77,90000,88,10000,0,9999,0.100000,99,0,0.175975,14,0.000000,34.445063,0.526304,99,99,0,1,0,0,0
9,99999,78,90000,23,0,40,9999,0.100000,99,0,0.000000,14,0.000000,29.794690,1.369839,99,99,0,0,0,0,0
9,99999,79,90000,46,20000,40,9999,0.100000,99,0,0.000000,14,0.000000,33.326824,0.170037,99,99,0,0,0,0,0
9,99999,80,90000,50,20000,40,9999,0.100000,99,0,0.000000,14,1.000000,27.799380,3.596938,99,99,0,0,0,0,0
9,99999,81,90000,46,20000,40,9999,0.100000,99,0,0.000000,14,0.000000,18.821169,0.099112,99,99,0,0,0,0,0
9,99999,82,90000,80,20000,40,9999,0.100000,99,0,0.000000,14,0.000000,24.525928,0.490269,99,99,0,0,0,0,0
9,99999,83,90000,48,0,40,9999,0.100000,99,0,0.000000,14,0.000000,36.354698,0.200308,99,99,0,0,0,0,0
9,99999,84,90000,46,20000,40,9999,0.100000,99,0,0.000000,14,1.000000,25.449531,13.426868,99,99,0,0,0,0,0
9,99999,85,90000,79,40000,40,9999,0.100000,99,0,0.000000,14,0.000000,34.041084,0.261347,99,99,0,0,0,0,0
9,99999,86,90000,46,20000,40,9999,0.100000,99,0,0.000000,14,0.000000,21.100160,0.161584,99,99,0,0,0,0,0
9,99999,87,90000,94,10000,40,9999,0.100000,99,0,0.000000,14,0.000000,29.834327,0.622581,99,99,0,0,0,0,0
9,99999,88,90000,8,70000,40,9999,0.100000,99,0,0.000000,14,0.000000,33.770753,2.283281,99,99,0,0,0,0,0
9,99999,89,90000,48,0,40,9999,0.100000,99,0,0.000000,14,1.000000,30.046644,8.970275,99,99,0,0,0,0,0
9,99999,90,90000,94,10000,40,9999,0.100000,99,0,0.000000,14,0.000000,29.855890,0.899569,99,99,0,0,0,0,0
9,99999,91,90000,88,0,40,9999,0.100000,99,0,0.000000,14,2.000000,28.104067,14.242650,99,99,0,0,0,0,0
9,99999,92,90000,8,70000,40,9999,0.100000,99,0,0.000000,14,0.000000,29.850857,0.112740,99,99,0,0,0,0,0
9,99999,93,90000,8,70000,40,9999,0.100000,99,0,0.000000,14,0.000000,19.311221,0.573441,99,99,0,0,0,0,0
9,99999,94,90000,79,40000,40,9999,0.100000,99,0,0.000000,14,0.000000,24.037485,0.543464,99,99,0,0,0,0,0
9,99999,95,90000,23,0,40,9999,0.100000,99,0,0.000000,14,0.000000,28.855609,5.160993,99,99,0,0,0,0,0
9,99999,96,90000,88,10000,40,9999,0.100000,99,0,0.000000,14,0.000000,24.343474,2.295566,99,99,0,0,0,0,0
9,99999,97,90000,9,60000,0,9999,0.100000,99,0,0.320960,14,0.000000,18.974321,4.310106,99,99,0,0,1,0,0
9,99999,98,90000,88,10000,40,9999,0.100000,99,0,0.000000,14,0.000000,19.456210,17.276201,99,99,0,0,0,0,0
9,99999,99,90000,87,0,40,9999,0.100000,99,0,0.000000,14,0.000000,19.204682,0.786745,99,99,0,0,0,0,0
10,109999,0,100000,2,80000,40,9999,0.100000,99,0,0.000000,14,0.000000,30.069868,10.533676,99,99,0,0,0,0,0
10,109999,1,100000,9,60000,40,9999,0.100000,99,0,0.000000,14,0.000000,25.366837,5.780344,99,99,0,0,0,0,0
10,109999,2,100000,46,20000,40,9999,0.100000,99,0,0.000000,14,3.000000,31.693194,9.057255,99,99,0,0,0,0,0
10,109999,3,100000,2,80000,40,9999,0.100000,99,0,0.000000,14,0.000000,24.477458,1.272178,99,99,0,0,0,0,0
10,109999,4,100000,88,0,0,9999,0.100000,99,0,0.497918,14,0.000000,33.579564,0.368523,99,99,0,0,0,0,1
10,109999,5,100000,2,80000,41,9999,0.100000,99,0,0.000000,14,4.000000,25.298630,6.263939,99,99,0,0,0,0,0
10,109999,6,100000,2,80000,40,9999,0.100000,99,0,0.000000,14,0.000000,29.245013,1.181196,99,99,0,0,0,0,0
10,109999,7,100000,88,0,40,9999,0.100000,99,0,0.000000,14,3.000000,35.216500,3.396428,99,99,0,0,0,0,0
10,109999,8,100000,46,20000,44,9999,0.100000,99,0,0.000000,14,11.000000,24.416759,14.175790,99,99,0,0,0,0,0
10,109999,9,100000,88,0,40,9999,0.100000,99,0,0.000000,14,2.000000,27.255847,7.150693,99,99,0,0,0,0,0
10,109999,10,100000,60,90000,40,9999,0.100000,99,0,0.000000,15,0.000000,19.316295,1.015371,99,99,0,0,0,0,0
10,109999,11,100000,80,20000,0,9999,0.100000,99,0,0.154621,14,0.000000,30.341766,0.162777,99,99,0,1,0,0,0
10,109999,12,100000,48,0,40,9999,0.100000,99,0,0.000000,14,2.000000,31.925330,4.686908,99,99,0,0,0,0,0
10,109999,13,100000,88,10000,40,9999,0.100000,99,0,0.000000,14,0.000000,29.317555,1.013997,99,99,0,0,0,0,0
10,109999,14,100000,48,0,0,9999,0.100000,99,0,0.047082,14,0.000000,20.074433,1.371037,99,99,0,0,1,0,0
10,109999,15,100000,9,60000,40,9999,0.100000,99,0,0.000000,14,0.000000,24.700652,1.038314,99,99,0,0,0,0,0
10,109999,16,100000,94,10000,40,9999,0.100000,99,0,0.000000,14,0.000000,29.903595,0.115089,99,99,0,0,0,0,0
10,109999,17,100000,48,0,40,9999,0.100000,99,0,0.000000,14,0.000000,34.879738,0.250194,99,99,0,0,0,0,0
10,109999,18,100000,94,10000,40,9999,0.100000,99,0,0.000000,14,0.000000,27.566197,1.342057,99,99,0,0,0,0,0
10,109999,19,100000,9,60000,40,9999,0.100000,99,0,0.000000,14,0.000000,29.813471,2.371975,99,99,0,0,0,0,0
10,109999,20,100000,88,10000,40,9999,0.100000,99,0,0.000000,14,1.000000,29.087571,12.951675,99,99,0,0,0,0,0
10,109999,21,100000,61,20000,40,9999,0.100000,99,0,0.000000,14,0.000000,24.347452,5.704308,99,99,0,0,0,0,0
10,109999,22,100000,9,60000,0,9999,0.100000,99,0,0.023600,14,0.000000,24.201316,0.610508,99,99,0,0,0,0,1
10,109999,23,100000,61,20000,40,9999,0.100000,99,0,0.000000,14,1.000000,28.042524,9.479413,99,99,0,0,0,0,0
10,109999,24,100000,8,70000,40,9999,0.100000,99,0,0.000000,14,0.000000,25.777473,0.676893,99,99,0,0,0,0,0
10,109999,25,100000,80,20000,40,9999,0.100000,99,0,0.000000,14,0.000000,24.362397,0.550561,99,99,0,0,0,0,0
10,109999,26,100000,2,80000,40,9999,0.100000,99,0,0.000000,14,0.000000,18.496139,0.238913,99,99,0,0,0,0,0
10,109999,27,100000,2,80000,0,9999,0.100000,99,0,0.006987,14,0.000000,21.148443,0.115142,99,99,0,0,0,1,0
10,109999,28,100000,46,20000,40,9999,0.100000,99,0,0.000000,14,0.000000,36.727022,0.196730,99,99,0,0,0,0,0
10,109999,29,100000,94,10000,0,9999,0.100000,99,0,0.289724,14,0.000000,24.907242,0.877489,99,99,0,0,0,1,0
10,109999,30,100000,88,0,40,9999,0.100000,99,0,0.000000,14,2.000000,23.568609,7.503899,99,99,0,0,0,0,0
10,109999,31,100000,87,0,41,9999,0.100000,99,0,0.000000,14,3.000000,27.706792,21.838682,99,99,0,0,0,0,0
10,109999,32,100000,44,0,40,9999,0.100000,99,0,0.000000,14,0.000000,34.272883,0.189449,99,99,0,0,0,0,0
10,109999,33,100000,23,0,40,9999,0.100000,99,0,0.000000,14,0.000000,19.009339,0.680698,99,99,0,0,0,0,0
10,109999,34,100000,61,20000,0,9999,0.100000,99,0,0.188157,14,0.000000,19.433897,0.283394,99,99,0,0,0,0,1
10,109999,35,100000,88,0,40,9999,0.100000,99,0,0.000000,14,0.000000,19.114409,0.127517,99,99,0,0,0,0,0
10,109999,36,100000,2,80000,45,9999,0.100000,99,0,0.000000,14,13.000000,24.470395,14.917316,99,99,0,0,0,0,0
10,109999,37,100000,94,10000,40,9999,0.100000,99,0,0.000000,14,0.000000,30.941406,0.142284,99,99,0,0,0,0,0
10,109999,38,100000,46,20000,40,9999,0.100000,99,0,0.000000,14,0.000000,23.991406,5.980498,99,99,0,0,0,0,0
10,109999,39,100000,8,70000,40,9999,0.100000,99,0,0.000000,14,0.000000,19.854250,0.620434,99,99,0,0,0,0,0
10,109999,40,100000,88,10000,40,9999,0.100000,99,0,0.000000,14,1.000000,25.353000,9.720131,99,99,0,0,0,0,0
10,109999,41,100000,88,0,42,9999,0.100000,99,0,0.000000,14,6.000000,22.220385,13.985355,99,99,0,0,0,0,0
10,109999,42,100000,2,80000,40,9999,0.100000,99,0,0.000000,14,3.000000,28.631149,11.328552,99,99,0,0,0,0,0
10,109999,43,100000,23,0,0,9999,0.100000,99,0,0.151874,15,0.000000,27.838091,0.753506,99,99,0,0,0,0,1
10,109999,44,100000,8,70000,90,9999,0.100000,99,0,9.724233,14,1.000000,26.630333,5.632273,99,99,1,0,0,0,0
10,109999,45,100000,44,0,40,9999,0.100000,99,0,0.000000,14,0.000000,24.419216,5.116991,99,99,0,0,0,0,0
10,109999,46,100000,23,0,40,9999,0.100000,99,0,0.000000,14,1.000000,25.042410,8.592640,99,99,0,0,0,0,0
10,109999,47,100000,46,20000,43,9999,0.100000,99,0,0.000000,14,7.000000,20.283824,12.401932,99,99,0,0,0,0,0
10,109999,48,100000,50,20000,40,9999,0.100000,99,0,0.000000,14,0.000000,28.168358,1.922467,99,99,0,0,0,0,0
10,109999,49,100000,44,0,40,9999,0.100000,99,0,0.000000,14,0.000000,33.933189,0.413526,99,99,0,0,0,0,0
10,109999,50,100000,87,0,40,9999,0.100000,99,0,0.000000,14,0.000000,29.124045,2.379519,99,99,0,0,0,0,0
10,109999,51,100000,2,80000,41,9999,0.100000,99,0,0.000000,15,4.000000,29.324427,19.679054,99,99,0,0,0,0,0
10,109999,52,100000,46,20000,40,9999,0.100000,99,0,0.000000,14,1.000000,30.728526,10.900916,99,99,0,0,0,0,0
10,109999,53,100000,2,80000,40,9999,0.100000,99,0,0.000000,14,1.000000,19.897004,3.536027,99,99,0,0,0,0,0
10,109999,54,100000,9,60000,0,9999,0.100000,99,0,0.865757,15,0.000000,28.528610,0.523137,99,99,0,0,0,1,0
10,109999,55,100000,87,0,40,9999,0.100000,99,0,0.000000,14,0.000000,29.810669,0.799867,99,99,0,0,0,0,0
10,109999,56,100000,61,20000,40,9999,0.100000,99,0,0.000000,15,0.000000,29.719361,1.193219,99,99,0,0,0,0,0
10,109999,57,100000,87,0,40,9999,0.100000,99,0,0.000000,14,0.000000,18.955842,0.091233,99,99,0,0,0,0,0
10,109999,58,100000,80,20000,40,9999,0.100000,99,0,0.000000,14,0.000000,28.986808,0.271339,99,99,0,0,0,0,0
10,109999,59,100000,88,10000,41,9999,0.100000,99,0,0.000000,14,3.000000,27.282360,22.670942,99,99,0,0,0,0,0
10,109999,60,100000,87,0,40,9999,0.100000,99,0,0.000000,15,2.000000,29.203983,5.806472,99,99,0,0,0,0,0
10,109999,61,100000,94,10000,40,9999,0.100000,99,0,0.000000,14,1.000000,25.174014,10.931646,99,99,0,0,0,0,0
10,109999,62,100000,9,60000,40,9999,0.100000,99,0,0.000000,14,0.000000,27.751682,1.962027,99,99,0,0,0,0,0
10,109999,63,100000,48,0,40,9999,0.100000,99,0,0.000000,14,0.000000,25.690056,1.183371,99,99,0,0,0,0,0
10,109999,64,100000,50,20000,40,9999,0.100000,99,0,0.000000,14,0.000000,24.509342,0.515793,99,99,0,0,0,0,0
10,109999,65,100000,80,20000,40,9999,0.100000,99,0,0.000000,14,0.000000,28.699590,0.168171,99,99,0,0,0,0,0
10,109999,66,100000,88,10000,40,9999,0.100000,99,0,0.000000,14,0.000000,24.708853,1.003727,99,99,0,0,0,0,0
10,109999,67,100000,2,80000,41,9999,0.100000,99,0,0.000000,15,4.000000,27.561312,6.786934,99,99,0,0,0,0,0
10,109999,68,100000,88,10000,40,9999,0.100000,99,0,0.000000,14,0.000000,15.978848,0.238932,99,99,0,0,0,0,0
10,109999,69,100000,88,10000,40,9999,0.100000,99,0,0.000000,15,1.000000,26.375664,6.320590,99,99,0,0,0,0,0
10,109999,70,100000,94,10000,40,9999,0.100000,99,0,0.000000,14,0.000000,29.218748,0.196401,99,99,0,0,0,0,0
10,109999,71,100000,80,20000,0,9999,0.100000,99,0,0.010449,14,0.000000,27.789104,0.147153,99,99,0,0,1,0,0
10,109999,72,100000,87,0,40,9999,0.100000,99,0,0.000000,14,2.000000,24.903306,23.080512,99,99,0,0,0,0,0
10,109999,73,100000,50,20000,40,9999,0.065000,99,0,0.000000,14,0.000000,20.023329,0.497167,99,99,0,0,0,0,0
10,109999,74,100000,61,20000,40,9999,0.100000,99,0,0.000000,14,1.000000,27.951116,8.637665,99,99,0,0,0,0,0
10,109999,75,100000,44,0,40,9999,0.100000,99,0,0.000000,14,0.000000,34.433366,1.867457,99,99,0,0,0,0,0
10,109999,76,100000,87,0,40,9999,0.100000,99,0,0.000000,14,0.000000,24.330612,0.360548,99,99,0,0,0,0,0
10,109999,77,100000,88,0,0,9999,0.100000,99,0,1.178876,14,0.000000,34.514182,0.755034,99,99,0,1,0,0,0
10,109999,78,100000,61,20000,40,9999,0.100000,99,0,0.000000,14,0.000000,29.726854,1.207808,99,99,0,0,0,0,0
10,109999,79,100000,44,0,40,9999,0.100000,99,0,0.000000,15,0.000000,33.326007,0.164947,99,99,0,0,0,0,0
10,109999,80,100000,61,20000,40,9999,0.100000,99,0,0.000000,15,0.000000,29.271727,3.646241,99,99,0,0,0,0,0
10,109999,81,100000,9,60000,40,9999,0.100000,99,0,0.000000,14,0.000000,18.824374,0.072549,99,99,0,0,0,0,0
10,109999,82,100000,9,60000,40,9999,0.100000,99,0,0.000000,14,0.000000,24.515306,0.742439,99,99,0,0,0,0,0
10,109999,83,100000,44,0,40,9999,0.100000,99,0,0.000000,14,0.000000,36.356264,0.198104,99,99,0,0,0,0,0
10,109999,84,100000,61,20000,40,9999,0.100000,99,0,0.000000,14,0.000000,25.508695,1.293639,99,99,0,0,0,0,0
10,109999,85,100000,8,70000,40,9999,0.100000,99,0,0.000000,14,0.000000,34.040371,0.259113,99,99,0,0,0,0,0
10,109999,86,100000,94,10000,40,9999,0.100000,99,0,0.000000,14,0.000000,21.099783,0.159780,99,99,0,0,0,0,0
10,109999,87,100000,46,20000,40,9999,0.100000,99,0,0.000000,15,0.000000,29.770054,0.468391,99,99,0,0,0,0,0
10,109999,88,100000,44,0,40,9999,0.100000,99,0,0.000000,15,0.000000,33.768774,2.278070,99,99,0,0,0,0,0
10,109999,89,100000,61,20000,40,9999,0.100000,99,0,0.000000,14,0.000000,29.483792,2.247481,99,99,0,0,0,0,0
10,109999,90,100000,48,0,40,9999,0.100000,99,0,0.000000,14,0.000000,29.746218,0.607524,99,99,0,0,0,0,0
10,109999,91,100000,88,10000,40,9999,0.100000,99,0,0.000000,14,2.000000,28.124673,6.370389,99,99,0,0,0,0,0
10,109999,92,100000,87,0,40,9999,0.100000,99,0,0.000000,14,0.000000,29.850563,0.111758,99,99,0,0,0,0,0
10,109999,93,100000,94,10000,40,9999,0.100000,99,0,0.000000,14,1.000000,19.505194,1.487665,99,99,0,0,0,0,0
10,109999,94,100000,2,80000,40,9999,0.100000,99,0,0.000000,15,0.000000,24.075199,0.608074,99,99,0,0,0,0,0
10,109999,95,100000,44,0,40,9999,0.100000,99,0,0.000000,14,0.000000,28.984507,1.042651,99,99,0,0,0,0,0
10,109999,96,100000,46,20000,40,9999,0.100000,99,0,0.000000,14,0.000000,24.385530,2.316521,99,99,0,0,0,0,0
10,109999,97,100000,2,80000,0,9999,0.100000,99,0,0.231183,14,0.000000,18.609906,0.297083,99,99,0,0,1,0,0
10,109999,98,100000,8,70000,40,9999,0.100000,99,0,0.000000,14,1.000000,19.145814,19.727504,99,99,0,0,0,0,0
10,109999,99,100000,2,80000,40,9999,0.100000,99,0,0.000000,14,2.000000,19.416482,9.889357,99,99,0,0,0,0,0
11,119999,0,110000,87,0,40,9999,0.100000,99,0,0.000000,15,2.000000,29.496892,8.433754,99,99,0,0,0,0,0
11,119999,1,110000,61,20000,40,9999,0.100000,99,0,0.000000,15,1.000000,25.762399,8.254240,99,99,0,0,0,0,0
11,119999,2,110000,9,60000,40,9999,0.100000,99,0,0.000000,15,1.000000,28.143029,3.280319,99,99,0,0,0,0,0
11,119999,3,110000,60,90000,40,9999,0.100000,99,0,0.000000,15,0.000000,23.761083,1.215546,99,99,0,0,0,0,0
11,119999,4,110000,46,20000,0,9999,0.100000,99,0,0.494876,17,0.000000,33.580421,0.348853,99,99,0,0,0,0,1
11,119999,5,110000,9,60000,40,9999,0.100000,99,0,0.000000,17,0.000000,26.647896,1.006475,99,99,0,0,0,0,0
11,119999,6,110000,2,80000,40,9999,0.100000,99,0,0.000000,15,0.000000,29.324658,7.617576,99,99,0,0,0,0,0
11,119999,7,110000,8,70000,40,9999,0.100000,99,0,0.000000,17,1.000000,34.503353,14.794737,99,99,0,0,0,0,0
11,119999,8,110000,44,0,48,9999,0.100000,99,0,0.000000,17,14.000000,15.474817,15.235606,99,99,0,0,0,0,0
11,119999,9,110000,2,80000,40,9999,0.100000,99,0,0.000000,15,2.000000,26.728440,10.366056,99,99,0,0,0,0,0
11,119999,10,110000,60,90000,40,9999,0.100000,99,0,0.000000,15,0.000000,19.298946,1.002192,99,99,0,0,0,0,0
11,119999,11,110000,88,10000,0,9999,0.100000,99,0,0.652215,15,0.000000,30.362381,0.451483,99,99,0,1,0,0,0
11,119999,12,110000,9,60000,40,9999,0.100000,99,0,0.000000,15,2.000000,30.070573,3.848119,99,99,0,0,0,0,0
11,119999,13,110000,88,0,40,9999,0.100000,99,0,0.000000,17,0.000000,29.136784,1.003143,99,99,0,0,0,0,0
11,119999,14,110000,50,20000,0,9999,0.100000,99,0,1.910636,17,0.000000,20.140560,0.582298,99,99,0,0,1,0,0
11,119999,15,110000,61,20000,40,9999,0.100000,99,0,0.000000,15,0.000000,23.929033,0.852335,99,99,0,0,0,0,0
11,119999,16,110000,23,0,40,9999,0.100000,99,0,0.000000,15,0.000000,29.903323,0.117114,99,99,0,0,0,0,0
11,119999,17,110000,46,20000,40,9999,0.100000,99,0,0.000000,17,0.000000,34.825989,0.244409,99,99,0,0,0,0,0
11,119999,18,110000,23,0,40,9999,0.100000,99,0,0.000000,17,0.000000,27.608658,0.557981,99,99,0,0,0,0,0
11,119999,19,110000,88,0,40,9999,0.100000,99,0,0.000000,17,0.000000,29.700111,2.026847,99,99,0,0,0,0,0
11,119999,20,110000,36,100000,40,9999,0.135000,99,0,0.000000,17,2.000000,28.189300,13.085789,99,99,0,0,0,0,0
11,119999,21,110000,48,0,40,9999,0.100000,99,0,0.000000,15,1.000000,24.566064,8.120254,99,99,0,0,0,0,0
11,119999,22,110000,23,0,40,9999,0.100000,99,0,0.000000,17,0.000000,24.198101,0.446076,99,99,0,0,0,0,0
11,119999,23,110000,23,0,41,9999,0.100000,99,0,0.000000,15,4.000000,26.688169,4.805460,99,99,0,0,0,0,0
11,119999,24,110000,9,60000,40,9999,0.100000,99,0,0.000000,17,0.000000,25.760436,0.667026,99,99,0,0,0,0,0
11,119999,25,110000,2,80000,0,9999,0.100000,99,0,0.079250,17,0.000000,24.344312,0.425545,99,99,0,0,0,0,1
11,119999,26,110000,44,0,40,9999,0.100000,99,0,0.000000,17,0.000000,18.493834,0.234706,99,99,0,0,0,0,0
11,119999,27,110000,94,10000,0,9999,0.100000,99,0,0.006353,17,0.000000,21.149423,0.117536,99,99,0,0,0,1,0
11,119999,28,110000,60,90000,40,9999,0.100000,99,0,0.000000,15,0.000000,36.727476,0.188060,99,99,0,0,0,0,0
11,119999,29,110000,44,0,0,9999,0.100000,99,0,0.391016,17,0.000000,24.897458,1.015529,99,99,0,0,0,1,0
11,119999,30,110000,44,0,40,9999,0.100000,99,0,0.000000,17,0.000000,23.253641,5.306432,99,99,0,0,0,0,0
11,119999,31,110000,88,0,40,9999,0.100000,99,0,0.000000,15,2.000000,25.845506,19.782459,99,99,0,0,0,0,0
11,119999,32,110000,94,10000,40,9999,0.100000,99,0,0.000000,17,0.000000,34.272724,0.188979,99,99,0,0,0,0,0
11,119999,33,110000,23,0,40,9999,0.100000,99,0,0.000000,17,0.000000,19.223800,0.782294,99,99,0,0,0,0,0
11,119999,34,110000,48,0,0,9999,0.100000,99,0,0.102058,15,0.000000,19.408685,0.398997,99,99,0,0,0,0,1
11,119999,35,110000,80,20000,40,9999,0.100000,99,0,0.000000,17,0.000000,19.101383,0.096957,99,99,0,0,0,0,0
11,119999,36,110000,46,20000,40,9999,0.100000,99,0,0.000000,16,0.000000,14.937229,0.235446,99,99,0,0,0,0,0
11,119999,37,110000,61,20000,40,9999,0.100000,99,0,0.000000,16,0.000000,30.941340,0.144370,99,99,0,0,0,0,0
11,119999,38,110000,8,70000,40,9999,0.100000,99,0,0.000000,17,2.000000,24.631807,13.597436,99,99,0,0,0,0,0
11,119999,39,110000,2,80000,40,9999,0.100000,99,0,0.000000,16,0.000000,20.010736,0.641575,99,99,0,0,0,0,0
11,119999,40,110000,88,10000,40,9999,0.100000,99,0,0.000000,17,0.000000,24.456761,10.937147,99,99,0,0,0,0,0
11,119999,41,110000,36,100000,40,9999,0.100000,99,0,0.000000,17,1.000000,16.164135,3.558559,99,99,0,0,0,0,0
11,119999,42,110000,88,10000,41,9999,0.100000,99,0,0.000000,17,3.000000,25.843351,9.671925,99,99,0,0,0,0,0
11,119999,43,110000,88,10000,40,9999,0.100000,99,0,0.000000,17,0.000000,27.760920,0.672952,99,99,0,0,0,0,0
11,119999,44,110000,48,0,40,9999,0.100000,99,0,0.000000,16,0.000000,26.979300,1.046287,99,99,0,0,0,0,0
11,119999,45,110000,94,10000,40,9999,0.100000,99,0,0.000000,16,2.000000,23.710402,9.970395,99,99,0,0,0,0,0
11,119999,46,110000,8,70000,40,9999,0.100000,99,0,0.000000,17,1.000000,24.522307,5.995028,99,99,0,0,0,0,0
11,119999,47,110000,87,0,41,9999,0.100000,99,0,0.000000,15,4.000000,26.885273,11.859232,99,99,0,0,0,0,0
11,119999,48,110000,88,10000,40,9999,0.100000,99,0,0.000000,16,0.000000,28.378437,1.692430,99,99,0,0,0,0,0
11,119999,49,110000,8,100000,40,9999,0.100000,99,0,0.000000,17,0.000000,33.934743,0.399612,99,99,0,0,0,0,0
11,119999,50,110000,8,70000,40,9999,0.100000,99,0,0.000000,17,0.000000,29.173178,1.606706,99,99,0,0,0,0,0
11,119999,51,110000,80,20000,40,9999,0.100000,99,0,0.000000,16,1.000000,25.878568,18.967816,99,99,0,0,0,0,0
11,119999,52,110000,9,60000,40,9999,0.100000,99,0,0.000000,17,1.000000,30.264823,6.608692,99,99,0,0,0,0,0
11,119999,53,110000,8,100000,40,9999,0.100000,99,0,0.000000,17,0.000000,19.911620,0.780712,99,99,0,0,0,0,0
11,119999,54,110000,60,90000,0,9999,0.100000,99,0,0.778826,15,0.000000,28.495412,0.630302,99,99,0,0,0,1,0
11,119999,55,110000,50,20000,40,9999,0.100000,99,0,0.000000,16,0.000000,29.759432,0.889119,99,99,0,0,0,0,0
11,119999,56,110000,46,20000,40,9999,0.100000,99,0,0.000000,17,0.000000,29.602389,1.317686,99,99,0,0,0,0,0
11,119999,57,110000,46,20000,40,9999,0.100000,99,0,0.000000,17,0.000000,18.949725,0.092957,99,99,0,0,0,0,0
11,119999,58,110000,94,10000,40,9999,0.100000,99,0,0.000000,15,0.000000,28.980539,0.302332,99,99,0,0,0,0,0
11,119999,59,110000,87,0,40,9999,0.100000,99,0,0.000000,16,2.000000,25.693970,19.840969,99,99,0,0,0,0,0
11,119999,60,110000,2,80000,40,9999,0.100000,99,0,0.000000,17,0.000000,29.928462,2.487500,99,99,0,0,0,0,0
11,119999,61,110000,8,70000,45,9999,0.100000,99,0,0.000000,16,14.000000,24.664210,15.946668,99,99,0,0,0,0,0
11,119999,62,110000,88,10000,0,9999,0.100000,99,0,0.129118,17,0.000000,27.934115,0.335605,99,99,0,0,0,0,1
11,119999,63,110000,2,80000,40,9999,0.100000,99,0,0.000000,16,0.000000,25.661682,1.150821,99,99,0,0,0,0,0
11,119999,64,110000,44,0,40,9999,0.100000,99,0,0.000000,17,0.000000,24.497767,1.163080,99,99,0,0,0,0,0
11,119999,65,110000,50,20000,40,9999,0.100000,99,0,0.000000,17,0.000000,28.697315,0.179358,99,99,0,0,0,0,0
11,119999,66,110000,9,60000,40,9999,0.100000,99,0,0.000000,15,0.000000,24.671267,1.104939,99,99,0,0,0,0,0
11,119999,67,110000,80,20000,40,9999,0.100000,99,0,0.000000,16,0.000000,28.500384,0.221831,99,99,0,0,0,0,0
11,119999,68,110000,44,0,40,9999,0.100000,99,0,0.000000,15,0.000000,15.978297,0.238539,99,99,0,0,0,0,0
11,119999,69,110000,94,10000,40,9999,0.100000,99,0,0.000000,16,0.000000,26.451935,10.167617,99,99,0,0,0,0,0
11,119999,70,110000,8,100000,40,9999,0.100000,99,0,0.000000,17,0.000000,29.225576,0.239669,99,99,0,0,0,0,0
11,119999,71,110000,61,20000,0,9999,0.100000,99,0,0.011437,17,0.000000,27.792079,0.142458,99,99,0,0,1,0,0
11,119999,72,110000,80,20000,40,9999,0.100000,99,0,0.000000,17,0.000000,24.777477,18.888253,99,99,0,0,0,0,0
11,119999,73,110000,9,60000,40,9999,0.100000,99,0,0.000000,17,0.000000,20.180186,0.487676,99,99,0,0,0,0,0
11,119999,74,110000,87,0,40,9999,0.100000,99,0,0.000000,17,0.000000,26.902125,13.901915,99,99,0,0,0,0,0
11,119999,75,110000,60,90000,40,9999,0.100000,99,0,0.000000,16,1.000000,34.441563,4.039335,99,99,0,0,0,0,0
11,119999,76,110000,94,10000,40,9999,0.100000,99,0,0.000000,16,0.000000,24.318139,0.502272,99,99,0,0,0,0,0
11,119999,77,110000,50,20000,0,9999,0.100000,99,0,1.457515,17,1.000000,34.493488,2.283430,99,99,0,1,0,0,0
