generation,iteration,robot,birthday,ancestor_id,ancestor_birthday,cell_id,age,sigma,maps,genomes,fitness,cells_in_map,dist_max,dist_pot_max,dist_total,com_rx,com_tx,obj_group1,obj_group2,obj_group3,obj_group4,obj_group5
0,9999,0,0,0,0,49,9999,0.100000,0,0,0.000000,0,11.000000,0.000000,17.936951,0,0,0,0,0,0,0
0,9999,1,0,1,0,49,9999,0.100000,0,0,0.000000,0,10.000000,0.000000,19.075642,0,0,0,0,0,0,0
0,9999,2,0,2,0,49,9999,0.100000,0,0,0.000000,0,8.000000,0.000000,23.719983,0,0,0,0,0,0,0
0,9999,3,0,3,0,49,9999,0.100000,0,0,0.000000,0,5.000000,0.000000,9.047577,0,0,0,0,0,0,0
0,9999,4,0,4,0,49,9999,0.100000,0,0,0.000000,0,5.000000,0.000000,20.216155,0,0,0,0,0,0,0
0,9999,5,0,5,0,99,9999,0.100000,0,0,47.368421,0,10.000000,0.000000,15.892967,0,0,1,0,0,0,0
0,9999,6,0,6,0,49,9999,0.100000,0,0,0.000000,0,8.000000,0.000000,10.629044,0,0,0,0,0,0,0
0,9999,7,0,7,0,49,9999,0.100000,0,0,0.000000,0,8.000000,0.000000,9.142916,0,0,0,0,0,0,0
0,9999,8,0,8,0,49,9999,0.100000,0,0,0.000000,0,7.000000,0.000000,9.800123,0,0,0,0,0,0,0
0,9999,9,0,9,0,49,9999,0.100000,0,0,0.000000,0,7.000000,0.000000,11.649705,0,0,0,0,0,0,0
0,9999,10,0,10,0,49,9999,0.100000,0,0,0.000000,0,11.000000,0.000000,13.263187,0,0,0,0,0,0,0
0,9999,11,0,11,0,49,9999,0.100000,0,0,0.000000,0,9.000000,0.000000,13.317415,0,0,0,0,0,0,0
0,9999,12,0,12,0,49,9999,0.100000,0,0,0.000000,0,7.000000,0.000000,8.971745,0,0,0,0,0,0,0
0,9999,13,0,13,0,49,9999,0.100000,0,0,0.000000,0,9.000000,0.000000,16.335406,0,0,0,0,0,0,0
0,9999,14,0,14,0,49,9999,0.100000,0,0,0.000000,0,7.000000,0.000000,12.354112,0,0,0,0,0,0,0
0,9999,15,0,15,0,49,9999,0.100000,0,0,0.000000,0,9.000000,0.000000,27.418444,0,0,0,0,0,0,0
0,9999,16,0,16,0,49,9999,0.100000,0,0,0.000000,0,4.000000,0.000000,5.801243,0,0,0,0,0,0,0
0,9999,17,0,17,0,49,9999,0.100000,0,0,0.000000,0,5.000000,0.000000,13.728187,0,0,0,0,0,0,0
0,9999,18,0,18,0,49,9999,0.100000,0,0,0.000000,0,4.000000,0.000000,15.597501,0,0,0,0,0,0,0
0,9999,19,0,19,0,49,9999,0.100000,0,0,0.000000,0,4.000000,0.000000,5.690972,0,0,0,0,0,0,0
0,9999,20,0,20,0,49,9999,0.100000,0,0,0.000000,0,9.000000,0.000000,22.111965,0,0,0,0,0,0,0
0,9999,21,0,21,0,49,9999,0.100000,0,0,0.000000,0,6.000000,0.000000,11.291098,0,0,0,0,0,0,0
0,9999,22,0,22,0,49,9999,0.100000,0,0,0.000000,0,6.000000,0.000000,16.739873,0,0,0,0,0,0,0
0,9999,23,0,23,0,49,9999,0.100000,0,0,0.000000,0,4.000000,0.000000,9.035074,0,0,0,0,0,0,0
0,9999,24,0,24,0,49,9999,0.100000,0,0,0.000000,0,7.000000,0.000000,9.943610,0,0,0,0,0,0,0
0,9999,25,0,25,0,49,9999,0.100000,0,0,0.000000,0,10.000000,0.000000,17.124841,0,0,0,0,0,0,0
0,9999,26,0,26,0,49,9999,0.100000,0,0,0.000000,0,10.000000,0.000000,19.814294,0,0,0,0,0,0,0
0,9999,27,0,27,0,49,9999,0.100000,0,0,0.000000,0,8.000000,0.000000,11.075623,0,0,0,0,0,0,0
0,9999,28,0,28,0,49,9999,0.100000,0,0,0.000000,0,7.000000,0.000000,10.230545,0,0,0,0,0,0,0
0,9999,29,0,29,0,49,9999,0.100000,0,0,0.000000,0,6.000000,0.000000,12.580171,0,0,0,0,0,0,0
0,9999,30,0,30,0,49,9999,0.100000,0,0,0.000000,0,8.000000,0.000000,24.281072,0,0,0,0,0,0,0
0,9999,31,0,31,0,99,9999,0.100000,0,0,47.368421,0,9.000000,0.000000,26.120829,0,0,1,0,0,0,0
0,9999,32,0,32,0,49,9999,0.100000,0,0,0.000000,0,9.000000,0.000000,11.156472,0,0,0,0,0,0,0
0,9999,33,0,33,0,49,9999,0.100000,0,0,0.000000,0,7.000000,0.000000,13.331706,0,0,0,0,0,0,0
0,9999,34,0,34,0,49,9999,0.100000,0,0,0.000000,0,4.000000,0.000000,4.719041,0,0,0,0,0,0,0
0,9999,35,0,35,0,49,9999,0.100000,0,0,0.000000,0,5.000000,0.000000,16.682453,0,0,0,0,0,0,0
0,9999,36,0,36,0,49,9999,0.100000,0,0,0.000000,0,11.000000,0.000000,18.905605,0,0,0,0,0,0,0
0,9999,37,0,37,0,49,9999,0.100000,0,0,0.000000,0,8.000000,0.000000,13.979403,0,0,0,0,0,0,0
0,9999,38,0,38,0,49,9999,0.100000,0,0,0.000000,0,11.000000,0.000000,12.962102,0,0,0,0,0,0,0
0,9999,39,0,39,0,49,9999,0.100000,0,0,0.000000,0,3.000000,0.000000,8.653748,0,0,0,0,0,0,0
0,9999,40,0,40,0,49,9999,0.100000,0,0,0.000000,0,5.000000,0.000000,12.196804,0,0,0,0,0,0,0
0,9999,41,0,41,0,49,9999,0.100000,0,0,0.000000,0,7.000000,0.000000,25.762237,0,0,0,0,0,0,0
0,9999,42,0,42,0,49,9999,0.100000,0,0,0.000000,0,8.000000,0.000000,27.274535,0,0,0,0,0,0,0
0,9999,43,0,43,0,49,9999,0.100000,0,0,0.000000,0,13.000000,0.000000,35.227535,0,0,0,0,0,0,0
0,9999,44,0,44,0,49,9999,0.100000,0,0,0.000000,0,8.000000,0.000000,14.858790,0,0,0,0,0,0,0
0,9999,45,0,45,0,49,9999,0.100000,0,0,0.000000,0,5.000000,0.000000,15.479258,0,0,0,0,0,0,0
0,9999,46,0,46,0,49,9999,0.100000,0,0,0.000000,0,7.000000,0.000000,7.864029,0,0,0,0,0,0,0
0,9999,47,0,47,0,49,9999,0.100000,0,0,0.000000,0,9.000000,0.000000,13.807126,0,0,0,0,0,0,0
0,9999,48,0,48,0,49,9999,0.100000,0,0,0.000000,0,4.000000,0.000000,12.896670,0,0,0,0,0,0,0
0,9999,49,0,49,0,49,9999,0.100000,0,0,0.000000,0,8.000000,0.000000,15.241928,0,0,0,0,0,0,0
0,9999,50,0,50,0,49,9999,0.100000,0,0,0.000000,0,16.000000,0.000000,32.055136,0,0,0,0,0,0,0
0,9999,51,0,51,0,49,9999,0.100000,0,0,0.000000,0,10.000000,0.000000,21.704363,0,0,0,0,0,0,0
0,9999,52,0,52,0,49,9999,0.100000,0,0,0.000000,0,6.000000,0.000000,12.375016,0,0,0,0,0,0,0
0,9999,53,0,53,0,49,9999,0.100000,0,0,0.000000,0,8.000000,0.000000,13.101796,0,0,0,0,0,0,0
0,9999,54,0,54,0,49,9999,0.100000,0,0,0.000000,0,6.000000,0.000000,18.404051,0,0,0,0,0,0,0
0,9999,55,0,55,0,49,9999,0.100000,0,0,0.000000,0,9.000000,0.000000,16.311052,0,0,0,0,0,0,0
0,9999,56,0,56,0,49,9999,0.100000,0,0,0.000000,0,8.000000,0.000000,8.735526,0,0,0,0,0,0,0
0,9999,57,0,57,0,49,9999,0.100000,0,0,0.000000,0,8.000000,0.000000,9.868707,0,0,0,0,0,0,0
0,9999,58,0,58,0,49,9999,0.100000,0,0,0.000000,0,4.000000,0.000000,6.314080,0,0,0,0,0,0,0
0,9999,59,0,59,0,49,9999,0.100000,0,0,0.000000,0,10.000000,0.000000,23.238598,0,0,0,0,0,0,0
0,9999,60,0,60,0,49,9999,0.100000,0,0,0.000000,0,13.000000,0.000000,31.481134,0,0,0,0,0,0,0
0,9999,61,0,61,0,49,9999,0.100000,0,0,0.000000,0,11.000000,0.000000,24.194622,0,0,0,0,0,0,0
0,9999,62,0,62,0,49,9999,0.100000,0,0,0.000000,0,8.000000,0.000000,20.165329,0,0,0,0,0,0,0
0,9999,63,0,63,0,99,9999,0.100000,0,0,47.368421,0,9.000000,0.000000,16.127176,0,0,1,0,0,0,0
0,9999,64,0,64,0,49,9999,0.100000,0,0,0.000000,0,9.000000,0.000000,12.396232,0,0,0,0,0,0,0
0,9999,65,0,65,0,49,9999,0.100000,0,0,0.000000,0,4.000000,0.000000,11.670423,0,0,0,0,0,0,0
0,9999,66,0,66,0,49,9999,0.100000,0,0,0.000000,0,10.000000,0.000000,19.100065,0,0,0,0,0,0,0
0,9999,67,0,67,0,49,9999,0.100000,0,0,0.000000,0,7.000000,0.000000,7.505250,0,0,0,0,0,0,0
0,9999,68,0,68,0,49,9999,0.100000,0,0,0.000000,0,8.000000,0.000000,15.001154,0,0,0,0,0,0,0
0,9999,69,0,69,0,49,9999,0.100000,0,0,0.000000,0,5.000000,0.000000,8.254758,0,0,0,0,0,0,0
0,9999,70,0,70,0,49,9999,0.100000,0,0,0.000000,0,5.000000,0.000000,25.903477,0,0,0,0,0,0,0
0,9999,71,0,71,0,49,9999,0.100000,0,0,0.000000,0,8.000000,0.000000,16.094706,0,0,0,0,0,0,0
0,9999,72,0,72,0,49,9999,0.100000,0,0,0.000000,0,6.000000,0.000000,14.290595,0,0,0,0,0,0,0
0,9999,73,0,73,0,49,9999,0.100000,0,0,0.000000,0,3.000000,0.000000,4.999538,0,0,0,0,0,0,0
0,9999,74,0,74,0,49,9999,0.100000,0,0,0.000000,0,9.000000,0.000000,12.598601,0,0,0,0,0,0,0
0,9999,75,0,75,0,49,9999,0.100000,0,0,0.000000,0,8.000000,0.000000,21.733675,0,0,0,0,0,0,0
0,9999,76,0,76,0,49,9999,0.100000,0,0,0.000000,0,7.000000,0.000000,10.865300,0,0,0,0,0,0,0
0,9999,77,0,77,0,49,9999,0.100000,0,0,0.000000,0,10.000000,0.000000,23.373431,0,0,0,0,0,0,0
0,9999,78,0,78,0,49,9999,0.100000,0,0,0.000000,0,10.000000,0.000000,19.861446,0,0,0,0,0,0,0
0,9999,79,0,79,0,49,9999,0.100000,0,0,0.000000,0,13.000000,0.000000,20.361922,0,0,0,0,0,0,0
0,9999,80,0,80,0,49,9999,0.100000,0,0,0.000000,0,8.000000,0.000000,9.952910,0,0,0,0,0,0,0
0,9999,81,0,81,0,49,9999,0.100000,0,0,0.000000,0,6.000000,0.000000,14.697666,0,0,0,0,0,0,0
0,9999,82,0,82,0,49,9999,0.100000,0,0,0.000000,0,3.000000,0.000000,4.756724,0,0,0,0,0,0,0
0,9999,83,0,83,0,49,9999,0.100000,0,0,0.000000,0,7.000000,0.000000,20.997666,0,0,0,0,0,0,0
0,9999,84,0,84,0,49,9999,0.100000,0,0,0.000000,0,4.000000,0.000000,6.675387,0,0,0,0,0,0,0
0,9999,85,0,85,0,49,9999,0.100000,0,0,0.000000,0,10.000000,0.000000,12.523818,0,0,0,0,0,0,0
0,9999,86,0,86,0,49,9999,0.100000,0,0,0.000000,0,9.000000,0.000000,17.074730,0,0,0,0,0,0,0
0,9999,87,0,87,0,49,9999,0.100000,0,0,0.000000,0,9.000000,0.000000,13.430984,0,0,0,0,0,0,0
0,9999,88,0,88,0,49,9999,0.100000,0,0,0.000000,0,11.000000,0.000000,12.976993,0,0,0,0,0,0,0
0,9999,89,0,89,0,49,9999,0.100000,0,0,0.000000,0,4.000000,0.000000,8.671815,0,0,0,0,0,0,0
0,9999,90,0,90,0,49,9999,0.100000,0,0,0.000000,0,10.000000,0.000000,11.446936,0,0,0,0,0,0,0
0,9999,91,0,91,0,49,9999,0.100000,0,0,0.000000,0,8.000000,0.000000,12.347762,0,0,0,0,0,0,0
0,9999,92,0,92,0,49,9999,0.100000,0,0,0.000000,0,6.000000,0.000000,7.846236,0,0,0,0,0,0,0
0,9999,93,0,93,0,49,9999,0.100000,0,0,0.000000,0,10.000000,0.000000,10.621628,0,0,0,0,0,0,0
0,9999,94,0,94,0,49,9999,0.100000,0,0,0.000000,0,7.000000,0.000000,11.330648,0,0,0,0,0,0,0
0,9999,95,0,95,0,49,9999,0.100000,0,0,0.000000,0,3.000000,0.000000,7.881943,0,0,0,0,0,0,0
0,9999,96,0,96,0,49,9999,0.100000,0,0,0.000000,0,6.000000,0.000000,14.711806,0,0,0,0,0,0,0
0,9999,97,0,97,0,49,9999,0.100000,0,0,0.000000,0,5.000000,0.000000,6.530734,0,0,0,0,0,0,0
0,9999,98,0,98,0,49,9999,0.100000,0,0,0.000000,0,9.000000,0.000000,16.135821,0,0,0,0,0,0,0
0,9999,99,0,99,0,49,9999,0.100000,0,0,0.000000,0,5.000000,0.000000,9.854676,0,0,0,0,0,0,0
1,19999,0,10000,27,0,40,9999,0.100000,0,0,0.000000,3,0.000000,0.000000,1.459115,0,0,0,0,0,0,0
1,19999,1,0,1,0,40,19999,0.100000,0,0,0.000000,1,0.000000,0.000000,2.145855,0,0,0,0,0,0,0
1,19999,2,0,2,0,49,19999,0.100000,0,0,0.000000,1,2.000000,0.000000,19.164749,0,0,0,0,0,0,0
1,19999,3,10000,1,0,49,9999,0.100000,0,0,0.000000,1,1.000000,0.000000,11.911515,0,0,0,0,0,0,0
1,19999,4,10000,85,0,49,9999,0.100000,0,0,0.000000,3,2.000000,0.000000,14.666379,0,0,0,0,0,0,0
1,19999,5,10000,27,0,40,9999,0.100000,0,0,0.000000,3,0.000000,0.000000,0.553385,0,0,0,0,0,0,0
1,19999,6,10000,31,0,40,9999,0.100000,0,0,0.000000,3,0.000000,0.000000,0.141157,0,0,0,0,0,0,0
1,19999,7,10000,31,0,40,9999,0.100000,0,0,0.000000,3,0.000000,0.000000,1.032825,0,0,0,0,0,0,0
1,19999,8,10000,5,0,49,9999,0.100000,0,0,0.000000,3,1.000000,0.000000,1.716118,0,0,0,0,0,0,0
1,19999,9,10000,31,0,40,9999,0.100000,0,0,0.000000,3,0.000000,0.000000,1.018852,0,0,0,0,0,0,0
1,19999,10,10000,31,0,40,9999,0.100000,0,0,0.000000,3,0.000000,0.000000,0.332278,0,0,0,0,0,0,0
1,19999,11,10000,27,0,40,9999,0.100000,0,0,0.000000,3,0.000000,0.000000,0.164005,0,0,0,0,0,0,0
1,19999,12,10000,85,0,40,9999,0.100000,0,0,0.000000,3,0.000000,0.000000,1.057471,0,0,0,0,0,0,0
1,19999,13,10000,1,0,49,9999,0.100000,0,0,0.000000,2,6.000000,0.000000,11.543317,0,0,0,0,0,0,0
1,19999,14,10000,1,0,9,9999,0.100000,0,0,34.210526,2,6.000000,0.000000,9.295631,0,0,0,1,0,0,0
1,19999,15,0,15,0,49,19999,0.100000,0,0,0.000000,3,1.000000,0.000000,15.606369,0,0,0,0,0,0,0
1,19999,16,10000,0,0,40,9999,0.100000,0,0,0.000000,3,0.000000,0.000000,0.163357,0,0,0,0,0,0,0
1,19999,17,10000,88,0,49,9999,0.100000,0,0,0.000000,3,3.000000,0.000000,7.075672,0,0,0,0,0,0,0
1,19999,18,10000,85,0,49,9999,0.100000,0,0,0.000000,3,1.000000,0.000000,12.391185,0,0,0,0,0,0,0
1,19999,19,10000,31,0,40,9999,0.100000,0,0,0.000000,3,0.000000,0.000000,0.200281,0,0,0,0,0,0,0
1,19999,20,10000,5,0,49,9999,0.100000,0,0,0.000000,3,5.000000,0.000000,12.192957,0,0,0,0,0,0,0
1,19999,21,10000,27,0,49,9999,0.100000,0,0,0.000000,3,2.000000,0.000000,14.236640,0,0,0,0,0,0,0
1,19999,22,10000,31,0,40,9999,0.100000,0,0,0.000000,3,0.000000,0.000000,0.884423,0,0,0,0,0,0,0
1,19999,23,10000,5,0,40,9999,0.100000,0,0,0.000000,3,0.000000,0.000000,1.733549,0,0,0,0,0,0,0
1,19999,24,10000,31,0,40,9999,0.100000,0,0,0.000000,3,0.000000,0.000000,0.275724,0,0,0,0,0,0,0
1,19999,25,10000,31,0,40,9999,0.100000,0,0,0.000000,3,0.000000,0.000000,0.139475,0,0,0,0,0,0,0
1,19999,26,10000,0,0,40,9999,0.100000,0,0,0.000000,3,0.000000,0.000000,4.847534,0,0,0,0,0,0,0
1,19999,27,0,27,0,9,19999,0.100000,0,0,34.210526,2,5.000000,0.000000,12.211665,0,0,0,1,0,0,0
1,19999,28,10000,27,0,40,9999,0.100000,0,0,0.000000,2,0.000000,0.000000,0.981037,0,0,0,0,0,0,0
1,19999,29,10000,85,0,49,9999,0.100000,0,0,0.000000,3,2.000000,0.000000,13.131417,0,0,0,0,0,0,0
1,19999,30,10000,88,0,49,9999,0.100000,0,0,0.000000,3,5.000000,0.000000,22.145507,0,0,0,0,0,0,0
1,19999,31,10000,27,0,99,9999,0.100000,0,0,0.000000,3,1.000000,0.000000,10.349439,0,0,1,0,0,0,0
1,19999,32,10000,5,0,40,9999,0.100000,0,0,0.000000,3,0.000000,0.000000,0.402303,0,0,0,0,0,0,0
1,19999,33,10000,1,0,40,9999,0.100000,0,0,0.000000,3,0.000000,0.000000,1.493468,0,0,0,0,0,0,0
1,19999,34,10000,1,0,40,9999,0.100000,0,0,0.000000,3,0.000000,0.000000,0.110547,0,0,0,0,0,0,0
1,19999,35,10000,31,0,49,9999,0.100000,0,0,0.000000,3,1.000000,0.000000,5.074642,0,0,0,0,0,0,0
1,19999,36,10000,27,0,40,9999,0.100000,0,0,0.000000,3,0.000000,0.000000,3.331307,0,0,0,0,0,0,0
1,19999,37,10000,27,0,40,9999,0.100000,0,0,0.000000,3,0.000000,0.000000,2.243192,0,0,0,0,0,0,0
1,19999,38,10000,31,0,40,9999,0.100000,0,0,0.000000,3,0.000000,0.000000,0.243656,0,0,0,0,0,0,0
1,19999,39,10000,31,0,40,9999,0.100000,0,0,0.000000,3,0.000000,0.000000,0.089605,0,0,0,0,0,0,0
1,19999,40,10000,1,0,49,9999,0.100000,0,0,0.000000,3,2.000000,0.000000,15.753017,0,0,0,0,0,0,0
1,19999,41,10000,27,0,49,9999,0.100000,0,0,0.000000,3,2.000000,0.000000,8.553965,0,0,0,0,0,0,0
1,19999,42,10000,1,0,49,9999,0.100000,0,0,0.000000,3,2.000000,0.000000,4.007499,0,0,0,0,0,0,0
1,19999,43,10000,31,0,40,9999,0.100000,0,0,0.000000,3,0.000000,0.000000,0.229908,0,0,0,0,0,0,0
1,19999,44,10000,0,0,49,9999,0.100000,0,0,0.000000,3,1.000000,0.000000,7.826022,0,0,0,0,0,0,0
1,19999,45,10000,85,0,49,9999,0.100000,0,0,0.000000,3,4.000000,0.000000,15.758686,0,0,0,0,0,0,0
1,19999,46,10000,31,0,40,9999,0.100000,0,0,0.000000,3,0.000000,0.000000,1.299171,0,0,0,0,0,0,0
1,19999,47,10000,5,0,40,9999,0.100000,0,0,0.000000,3,0.000000,0.000000,0.716828,0,0,0,0,0,0,0
1,19999,48,10000,27,0,40,9999,0.100000,0,0,0.000000,3,0.000000,0.000000,7.004578,0,0,0,0,0,0,0
1,19999,49,10000,5,0,40,9999,0.100000,0,0,0.000000,3,0.000000,0.000000,1.187851,0,0,0,0,0,0,0
1,19999,50,10000,5,0,40,9999,0.100000,0,0,0.000000,3,0.000000,0.000000,0.979628,0,0,0,0,0,0,0
1,19999,51,10000,31,0,49,9999,0.100000,0,0,0.000000,3,1.000000,0.000000,9.737408,0,0,0,0,0,0,0
1,19999,52,10000,85,0,49,9999,0.100000,0,0,0.000000,3,1.000000,0.000000,10.517381,0,0,0,0,0,0,0
1,19999,53,10000,31,0,49,9999,0.100000,0,0,0.000000,3,5.000000,0.000000,9.436229,0,0,0,0,0,0,0
1,19999,54,10000,0,0,49,9999,0.100000,0,0,0.000000,3,3.000000,0.000000,9.874312,0,0,0,0,0,0,0
1,19999,55,10000,31,0,40,9999,0.100000,0,0,0.000000,3,0.000000,0.000000,0.176437,0,0,0,0,0,0,0
1,19999,56,10000,27,0,49,9999,0.100000,0,0,0.000000,3,1.000000,0.000000,8.170127,0,0,0,0,0,0,0
1,19999,57,10000,85,0,40,9999,0.100000,0,0,0.000000,3,0.000000,0.000000,2.478350,0,0,0,0,0,0,0
1,19999,58,10000,31,0,40,9999,0.100000,0,0,0.000000,3,0.000000,0.000000,0.347213,0,0,0,0,0,0,0
1,19999,59,10000,1,0,40,9999,0.100000,0,0,0.000000,3,0.000000,0.000000,2.696552,0,0,0,0,0,0,0
1,19999,60,10000,27,0,49,9999,0.100000,0,0,0.000000,3,17.000000,0.000000,18.703491,0,0,0,0,0,0,0
1,19999,61,10000,27,0,49,9999,0.100000,0,0,0.000000,3,2.000000,0.000000,3.464217,0,0,0,0,0,0,0
1,19999,62,10000,27,0,40,9999,0.100000,0,0,0.000000,3,0.000000,0.000000,1.517263,0,0,0,0,0,0,0
1,19999,63,10000,85,0,40,9999,0.100000,0,0,0.000000,3,0.000000,0.000000,0.098877,0,0,0,0,0,0,0
1,19999,64,10000,5,0,40,9999,0.100000,0,0,0.000000,3,0.000000,0.000000,0.250353,0,0,0,0,0,0,0
1,19999,65,10000,5,0,40,9999,0.100000,0,0,0.000000,3,0.000000,0.000000,0.417312,0,0,0,0,0,0,0
1,19999,66,10000,85,0,49,9999,0.100000,0,0,0.000000,3,1.000000,0.000000,7.101633,0,0,0,0,0,0,0
1,19999,67,10000,5,0,40,9999,0.100000,0,0,0.000000,3,0.000000,0.000000,0.338904,0,0,0,0,0,0,0
1,19999,68,10000,31,0,49,9999,0.100000,0,0,0.000000,3,1.000000,0.000000,4.743503,0,0,0,0,0,0,0
1,19999,69,10000,31,0,49,9999,0.100000,0,0,0.000000,3,7.000000,0.000000,7.210769,0,0,0,0,0,0,0
1,19999,70,10000,85,0,99,9999,0.100000,0,0,68.421053,3,2.000000,0.000000,13.692935,0,0,2,0,0,0,0
1,19999,71,10000,31,0,40,9999,0.100000,0,0,0.000000,3,0.000000,0.000000,8.001997,0,0,0,0,0,0,0
1,19999,72,10000,5,0,49,9999,0.100000,0,0,0.000000,3,2.000000,0.000000,22.322167,0,0,0,0,0,0,0
1,19999,73,10000,31,0,40,9999,0.100000,0,0,0.000000,3,0.000000,0.000000,0.447380,0,0,0,0,0,0,0
1,19999,74,10000,31,0,49,9999,0.100000,0,0,0.000000,3,6.000000,0.000000,6.758263,0,0,0,0,0,0,0
1,19999,75,10000,27,0,99,9999,0.100000,0,0,0.000000,3,1.000000,0.000000,11.254452,0,0,1,0,0,0,0
1,19999,76,10000,31,0,49,9999,0.100000,0,0,0.000000,3,2.000000,0.000000,8.743572,0,0,0,0,0,0,0
1,19999,77,10000,27,0,40,9999,0.100000,0,0,0.000000,3,0.000000,0.000000,6.191078,0,0,0,0,0,0,0
1,19999,78,10000,5,0,49,9999,0.100000,0,0,0.000000,3,1.000000,0.000000,2.631472,0,0,0,0,0,0,0
1,19999,79,10000,27,0,49,9999,0.100000,0,0,0.000000,3,1.000000,0.000000,2.105625,0,0,0,0,0,0,0
1,19999,80,10000,85,0,40,9999,0.100000,0,0,0.000000,3,0.000000,0.000000,1.864779,0,0,0,0,0,0,0
1,19999,81,10000,85,0,40,9999,0.100000,0,0,0.000000,3,0.000000,0.000000,0.111273,0,0,0,0,0,0,0
1,19999,82,10000,31,0,40,9999,0.100000,0,0,0.000000,3,0.000000,0.000000,0.073094,0,0,0,0,0,0,0
1,19999,83,10000,5,0,49,9999,0.100000,0,0,0.000000,3,4.000000,0.000000,24.716494,0,0,0,0,0,0,0
1,19999,84,10000,31,0,40,9999,0.100000,0,0,0.000000,3,0.000000,0.000000,0.138686,0,0,0,0,0,0,0
1,19999,85,10000,85,0,40,9999,0.100000,0,0,0.000000,3,0.000000,0.000000,0.101316,0,0,0,0,0,0,0
1,19999,86,10000,0,0,49,9999,0.100000,0,0,0.000000,3,1.000000,0.000000,3.063975,0,0,0,0,0,0,0
1,19999,87,10000,31,0,49,9999,0.100000,0,0,0.000000,3,1.000000,0.000000,2.693684,0,0,0,0,0,0,0
1,19999,88,10000,31,0,40,9999,0.100000,0,0,0.000000,3,0.000000,0.000000,0.191916,0,0,0,0,0,0,0
1,19999,89,10000,31,0,49,9999,0.100000,0,0,0.000000,3,3.000000,0.000000,6.971057,0,0,0,0,0,0,0
1,19999,90,10000,5,0,40,9999,0.100000,0,0,0.000000,3,0.000000,0.000000,0.219793,0,0,0,0,0,0,0
1,19999,91,10000,5,0,40,9999,0.100000,0,0,0.000000,3,0.000000,0.000000,0.667892,0,0,0,0,0,0,0
1,19999,92,10000,31,0,40,9999,0.100000,0,0,0.000000,3,0.000000,0.000000,0.167024,0,0,0,0,0,0,0
1,19999,93,10000,0,0,40,9999,0.100000,0,0,0.000000,3,0.000000,0.000000,0.133287,0,0,0,0,0,0,0
1,19999,94,10000,5,0,49,9999,0.100000,0,0,0.000000,3,2.000000,0.000000,25.279804,0,0,0,0,0,0,0
1,19999,95,10000,31,0,40,9999,0.100000,0,0,0.000000,3,0.000000,0.000000,0.161113,0,0,0,0,0,0,0
1,19999,96,10000,85,0,49,9999,0.100000,0,0,0.000000,3,3.000000,0.000000,6.434421,0,0,0,0,0,0,0
1,19999,97,10000,88,0,40,9999,0.100000,0,0,0.000000,3,0.000000,0.000000,0.628479,0,0,0,0,0,0,0
1,19999,98,10000,27,0,40,9999,0.100000,0,0,0.000000,3,0.000000,0.000000,7.936604,0,0,0,0,0,0,0
1,19999,99,10000,13,0,49,9999,0.100000,0,0,0.000000,2,7.000000,0.000000,7.551056,0,0,0,0,0,0,0
2,29999,0,20000,31,0,49,9999,0.100000,0,0,0.000000,5,1.000000,0.000000,1.465588,0,0,0,0,0,0,0
2,29999,1,20000,5,0,40,9999,0.100000,0,0,0.000000,5,0.000000,0.000000,2.026199,0,0,0,0,0,0,0
2,29999,2,20000,31,0,49,9999,0.100000,0,0,0.000000,3,2.000000,0.000000,6.993525,0,0,0,0,0,0,0
2,29999,3,20000,24,10000,49,9999,0.100000,0,0,0.000000,5,3.000000,0.000000,7.251916,0,0,0,0,0,0,0
2,29999,4,20000,24,10000,49,9999,0.100000,0,0,0.000000,5,2.000000,0.000000,9.292097,0,0,0,0,0,0,0
2,29999,5,20000,5,0,49,9999,0.100000,0,0,0.000000,6,1.000000,0.000000,1.878298,0,0,0,0,0,0,0
2,29999,6,20000,24,10000,40,9999,0.100000,0,0,0.000000,5,0.000000,0.000000,0.099558,0,0,0,0,0,0,0
2,29999,7,20000,78,10000,40,9999,0.100000,0,0,0.000000,5,0.000000,0.000000,0.452736,0,0,0,0,0,0,0
2,29999,8,20000,70,10000,9,9999,0.100000,0,0,34.210526,5,9.000000,0.000000,16.806801,0,0,0,0,1,0,0
2,29999,9,20000,25,10000,40,9999,0.100000,0,0,0.000000,5,0.000000,0.000000,0.136039,0,0,0,0,0,0,0
2,29999,10,20000,31,0,40,9999,0.100000,0,0,0.000000,5,0.000000,0.000000,0.218562,0,0,0,0,0,0,0
2,29999,11,20000,78,10000,40,9999,0.100000,0,0,0.000000,5,0.000000,0.000000,0.226878,0,0,0,0,0,0,0
2,29999,12,20000,24,10000,40,9999,0.100000,0,0,0.000000,5,0.000000,0.000000,0.884673,0,0,0,0,0,0,0
2,29999,13,20000,97,10000,40,9999,0.100000,0,0,0.000000,6,0.000000,0.000000,0.856209,0,0,0,0,0,0,0
2,29999,14,20000,70,10000,49,9999,0.100000,0,0,0.000000,6,5.000000,0.000000,17.121651,0,0,0,0,0,0,0
2,29999,15,20000,25,10000,49,9999,0.100000,0,0,0.000000,4,2.000000,0.000000,14.551395,0,0,0,0,0,0,0
2,29999,16,20000,5,0,40,9999,0.100000,0,0,0.000000,5,0.000000,0.000000,0.201330,0,0,0,0,0,0,0
2,29999,17,20000,78,10000,49,9999,0.100000,0,0,0.000000,5,7.000000,0.000000,15.980796,0,0,0,0,0,0,0
2,29999,18,20000,25,10000,49,9999,0.100000,0,0,0.000000,6,1.000000,0.000000,6.462415,0,0,0,0,0,0,0
2,29999,19,20000,31,0,40,9999,0.100000,0,0,0.000000,5,0.000000,0.000000,0.169613,0,0,0,0,0,0,0
2,29999,20,20000,24,10000,40,9999,0.100000,0,0,0.000000,5,0.000000,0.000000,0.653641,0,0,0,0,0,0,0
2,29999,21,20000,25,10000,40,9999,0.100000,0,0,0.000000,5,0.000000,0.000000,23.005424,0,0,0,0,0,0,0
2,29999,22,10000,31,0,49,19999,0.100000,0,0,0.000000,5,2.000000,0.000000,2.653843,0,0,0,0,0,0,0
2,29999,23,20000,31,0,40,9999,0.100000,0,0,0.000000,5,0.000000,0.000000,5.444812,0,0,0,0,0,0,0
2,29999,24,20000,31,0,40,9999,0.100000,0,0,0.000000,5,0.000000,0.000000,0.268196,0,0,0,0,0,0,0
2,29999,25,20000,5,0,40,9999,0.100000,0,0,0.000000,4,0.000000,0.000000,0.123480,0,0,0,0,0,0,0
2,29999,26,20000,24,10000,40,9999,0.100000,0,0,0.000000,5,0.000000,0.000000,0.297088,0,0,0,0,0,0,0
2,29999,27,20000,24,10000,49,9999,0.100000,0,0,0.000000,5,1.000000,0.000000,12.173090,0,0,0,0,0,0,0
2,29999,28,20000,25,10000,40,9999,0.100000,0,0,0.000000,5,0.000000,0.000000,0.164353,0,0,0,0,0,0,0
2,29999,29,20000,70,10000,49,9999,0.100000,0,0,0.000000,6,3.000000,0.000000,20.189277,0,0,0,0,0,0,0
2,29999,30,20000,31,0,49,9999,0.100000,0,0,0.000000,5,2.000000,0.000000,12.575765,0,0,0,0,0,0,0
2,29999,31,20000,70,10000,49,9999,0.100000,0,0,0.000000,5,4.000000,0.000000,15.501795,0,0,0,0,0,0,0
2,29999,32,20000,5,0,40,9999,0.100000,0,0,0.000000,5,0.000000,0.000000,0.357865,0,0,0,0,0,0,0
2,29999,33,20000,5,0,40,9999,0.100000,0,0,0.000000,5,0.000000,0.000000,0.140686,0,0,0,0,0,0,0
2,29999,34,20000,97,10000,40,9999,0.100000,0,0,0.000000,6,0.000000,0.000000,0.223133,0,0,0,0,0,0,0
2,29999,35,20000,88,0,40,9999,0.100000,0,0,0.000000,5,0.000000,0.000000,0.612361,0,0,0,0,0,0,0
2,29999,36,20000,97,10000,49,9999,0.100000,0,0,0.000000,6,1.000000,0.000000,3.269049,0,0,0,0,0,0,0
2,29999,37,20000,78,10000,40,9999,0.100000,0,0,0.000000,5,0.000000,0.000000,0.128607,0,0,0,0,0,0,0
2,29999,38,20000,5,0,40,9999,0.100000,0,0,0.000000,5,0.000000,0.000000,0.246857,0,0,0,0,0,0,0
2,29999,39,20000,5,0,40,9999,0.100000,0,0,0.000000,5,0.000000,0.000000,0.196611,0,0,0,0,0,0,0
2,29999,40,20000,24,10000,49,9999,0.100000,0,0,0.000000,5,1.000000,0.000000,23.990678,0,0,0,0,0,0,0
2,29999,41,20000,78,10000,49,9999,0.100000,0,0,0.000000,5,2.000000,0.000000,24.822304,0,0,0,0,0,0,0
2,29999,42,20000,31,0,40,9999,0.100000,0,0,0.000000,5,0.000000,0.000000,0.235318,0,0,0,0,0,0,0
2,29999,43,20000,25,10000,40,9999,0.100000,0,0,0.000000,6,0.000000,0.000000,0.190741,0,0,0,0,0,0,0
2,29999,44,20000,5,0,9,9999,0.100000,0,0,34.210526,5,9.000000,0.000000,16.429717,0,0,0,0,1,0,0
2,29999,45,20000,24,10000,49,9999,0.100000,0,0,0.000000,6,2.000000,0.000000,10.474257,0,0,0,0,0,0,0
2,29999,46,20000,5,0,9,9999,0.100000,0,0,34.210526,6,9.000000,0.000000,20.337361,0,0,0,0,1,0,0
2,29999,47,20000,24,10000,40,9999,0.100000,0,0,0.000000,5,0.000000,0.000000,1.129725,0,0,0,0,0,0,0
2,29999,48,20000,25,10000,40,9999,0.100000,0,0,0.000000,5,0.000000,0.000000,0.858051,0,0,0,0,0,0,0
2,29999,49,20000,60,10000,40,9999,0.100000,0,0,0.000000,5,0.000000,0.000000,0.485727,0,0,0,0,0,0,0
2,29999,50,20000,50,10000,40,9999,0.100000,0,0,0.000000,5,0.000000,0.000000,1.016425,0,0,0,0,0,0,0
2,29999,51,20000,24,10000,49,9999,0.100000,0,0,0.000000,5,2.000000,0.000000,7.827017,0,0,0,0,0,0,0
2,29999,52,20000,5,0,49,9999,0.100000,0,0,0.000000,5,1.000000,0.000000,21.611705,0,0,0,0,0,0,0
2,29999,53,20000,5,0,40,9999,0.100000,0,0,0.000000,5,0.000000,0.000000,3.075827,0,0,0,0,0,0,0
2,29999,54,20000,5,0,49,9999,0.100000,0,0,0.000000,5,1.000000,0.000000,5.750536,0,0,0,0,0,0,0
2,29999,55,20000,88,0,40,9999,0.100000,0,0,0.000000,5,0.000000,0.000000,0.172280,0,0,0,0,0,0,0
2,29999,56,20000,70,10000,40,9999,0.100000,0,0,0.000000,6,0.000000,0.000000,10.335170,0,0,0,0,0,0,0
2,29999,57,20000,5,0,40,9999,0.100000,0,0,0.000000,5,0.000000,0.000000,0.598892,0,0,0,0,0,0,0
2,29999,58,20000,70,10000,40,9999,0.100000,0,0,0.000000,5,0.000000,0.000000,1.220368,0,0,0,0,0,0,0
2,29999,59,20000,5,0,40,9999,0.100000,0,0,0.000000,5,0.000000,0.000000,0.161058,0,0,0,0,0,0,0
2,29999,60,20000,60,10000,99,9999,0.100000,0,0,0.000000,5,3.000000,0.000000,9.801228,0,0,1,0,0,0,0
2,29999,61,20000,5,0,49,9999,0.100000,0,0,0.000000,5,8.000000,0.000000,18.501401,0,0,0,0,0,0,0
2,29999,62,20000,31,0,40,9999,0.100000,0,0,0.000000,5,0.000000,0.000000,0.910510,0,0,0,0,0,0,0
2,29999,63,20000,25,10000,40,9999,0.100000,0,0,0.000000,6,0.000000,0.000000,0.891190,0,0,0,0,0,0,0
2,29999,64,20000,25,10000,40,9999,0.100000,0,0,0.000000,5,0.000000,0.000000,0.161356,0,0,0,0,0,0,0
2,29999,65,20000,88,0,40,9999,0.100000,0,0,0.000000,5,0.000000,0.000000,0.870267,0,0,0,0,0,0,0
2,29999,66,20000,24,10000,40,9999,0.100000,0,0,0.000000,5,0.000000,0.000000,0.298915,0,0,0,0,0,0,0
2,29999,67,20000,24,10000,40,9999,0.100000,0,0,0.000000,5,0.000000,0.000000,0.158945,0,0,0,0,0,0,0
2,29999,68,20000,70,10000,40,9999,0.100000,0,0,0.000000,5,0.000000,0.000000,0.086066,0,0,0,0,0,0,0
2,29999,69,20000,31,0,49,9999,0.100000,0,0,0.000000,4,1.000000,0.000000,10.932719,0,0,0,0,0,0,0
2,29999,70,20000,78,10000,49,9999,0.100000,0,0,0.000000,5,3.000000,0.000000,14.970124,0,0,0,0,0,0,0
2,29999,71,20000,60,10000,49,9999,0.100000,0,0,0.000000,5,2.000000,0.000000,6.357432,0,0,0,0,0,0,0
2,29999,72,20000,88,0,49,9999,0.100000,0,0,0.000000,5,2.000000,0.000000,5.908482,0,0,0,0,0,0,0
2,29999,73,20000,24,10000,40,9999,0.100000,0,0,0.000000,5,0.000000,0.000000,0.306430,0,0,0,0,0,0,0
2,29999,74,20000,5,0,40,9999,0.100000,0,0,0.000000,6,0.000000,0.000000,0.838714,0,0,0,0,0,0,0
2,29999,75,20000,31,0,49,9999,0.100000,0,0,0.000000,5,3.000000,0.000000,12.173448,0,0,0,0,0,0,0
2,29999,76,20000,25,10000,40,9999,0.100000,0,0,0.000000,5,0.000000,0.000000,0.131195,0,0,0,0,0,0,0
2,29999,77,20000,25,10000,40,9999,0.100000,0,0,0.000000,5,0.000000,0.000000,1.534616,0,0,0,0,0,0,0
2,29999,78,20000,78,10000,40,9999,0.100000,0,0,0.000000,5,0.000000,0.000000,0.433174,0,0,0,0,0,0,0
2,29999,79,20000,97,10000,49,9999,0.100000,0,0,0.000000,6,7.000000,0.000000,20.996033,0,0,0,0,0,0,0
2,29999,80,20000,88,0,40,9999,0.100000,0,0,0.000000,5,0.000000,0.000000,0.382583,0,0,0,0,0,0,0
2,29999,81,20000,97,10000,40,9999,0.100000,0,0,0.000000,6,0.000000,0.000000,0.099655,0,0,0,0,0,0,0
2,29999,82,20000,88,0,40,9999,0.100000,0,0,0.000000,5,0.000000,0.000000,0.079962,0,0,0,0,0,0,0
2,29999,83,20000,70,10000,49,9999,0.100000,0,0,0.000000,5,1.000000,0.000000,11.278484,0,0,0,0,0,0,0
2,29999,84,20000,5,0,49,9999,0.100000,0,0,0.000000,6,4.000000,0.000000,10.024836,0,0,0,0,0,0,0
2,29999,85,20000,5,0,40,9999,0.100000,0,0,0.000000,5,0.000000,0.000000,0.114830,0,0,0,0,0,0,0
2,29999,86,20000,5,0,49,9999,0.100000,0,0,0.000000,5,4.000000,0.000000,7.528965,0,0,0,0,0,0,0
2,29999,87,20000,5,0,9,9999,0.100000,0,0,34.210526,5,2.000000,0.000000,12.551048,0,0,0,1,0,0,0
2,29999,88,20000,70,10000,40,9999,0.100000,0,0,0.000000,5,0.000000,0.000000,0.183316,0,0,0,0,0,0,0
2,29999,89,20000,78,10000,49,9999,0.100000,0,0,0.000000,5,1.000000,0.000000,2.474992,0,0,0,0,0,0,0
2,29999,90,20000,5,0,40,9999,0.100000,0,0,0.000000,5,0.000000,0.000000,0.435940,0,0,0,0,0,0,0
2,29999,91,20000,25,10000,40,9999,0.100000,0,0,0.000000,6,0.000000,0.000000,0.456532,0,0,0,0,0,0,0
2,29999,92,20000,5,0,40,9999,0.100000,0,0,0.000000,6,0.000000,0.000000,0.163944,0,0,0,0,0,0,0
2,29999,93,20000,25,10000,40,9999,0.100000,0,0,0.000000,6,0.000000,0.000000,0.124534,0,0,0,0,0,0,0
2,29999,94,20000,31,0,49,9999,0.100000,0,0,0.000000,4,1.000000,0.000000,17.439112,0,0,0,0,0,0,0
2,29999,95,20000,60,10000,40,9999,0.100000,0,0,0.000000,5,0.000000,0.000000,0.550143,0,0,0,0,0,0,0
2,29999,96,20000,25,10000,49,9999,0.100000,0,0,0.000000,5,1.000000,0.000000,2.196582,0,0,0,0,0,0,0
2,29999,97,20000,5,0,40,9999,0.100000,0,0,0.000000,6,0.000000,0.000000,0.590644,0,0,0,0,0,0,0
2,29999,98,20000,70,10000,49,9999,0.100000,0,0,0.000000,5,1.000000,0.000000,4.381282,0,0,0,0,0,0,0
2,29999,99,20000,25,10000,9,9999,0.100000,0,0,34.210526,5,1.000000,0.000000,3.519912,0,0,0,1,0,0,0
3,39999,0,30000,5,0,49,9999,0.100000,0,0,0.000000,6,2.000000,0.000000,3.097129,0,0,0,0,0,0,0
3,39999,1,30000,24,10000,40,9999,0.100000,0,0,0.000000,6,0.000000,0.000000,0.811869,0,0,0,0,0,0,0
3,39999,2,30000,97,10000,49,9999,0.100000,0,0,0.000000,6,6.000000,0.000000,17.487442,0,0,0,0,0,0,0
3,39999,3,30000,78,10000,40,9999,0.100000,0,0,0.000000,6,0.000000,0.000000,0.657561,0,0,0,0,0,0,0
3,39999,4,30000,70,10000,49,9999,0.100000,0,0,0.000000,6,1.000000,0.000000,11.413976,0,0,0,0,0,0,0
3,39999,5,30000,24,10000,49,9999,0.100000,0,0,0.000000,6,2.000000,0.000000,3.055173,0,0,0,0,0,0,0
3,39999,6,30000,5,0,40,9999,0.100000,0,0,0.000000,6,0.000000,0.000000,0.937227,0,0,0,0,0,0,0
3,39999,7,30000,78,10000,49,9999,0.100000,0,0,0.000000,6,1.000000,0.000000,2.018972,0,0,0,0,0,0,0
3,39999,8,30000,5,0,49,9999,0.100000,0,0,0.000000,6,3.000000,0.000000,25.041152,0,0,0,0,0,0,0
3,39999,9,30000,97,10000,40,9999,0.100000,0,0,0.000000,6,0.000000,0.000000,0.194672,0,0,0,0,0,0,0
3,39999,10,30000,5,0,40,9999,0.100000,0,0,0.000000,6,0.000000,0.000000,0.157053,0,0,0,0,0,0,0
3,39999,11,30000,78,10000,40,9999,0.100000,0,0,0.000000,6,0.000000,0.000000,0.263977,0,0,0,0,0,0,0
3,39999,12,30000,24,10000,40,9999,0.100000,0,0,0.000000,6,0.000000,0.000000,0.836968,0,0,0,0,0,0,0
3,39999,13,30000,70,10000,9,9999,0.100000,0,0,34.210526,6,2.000000,0.000000,10.675415,0,0,0,1,0,0,0
3,39999,14,30000,24,10000,49,9999,0.100000,0,0,0.000000,6,1.000000,0.000000,9.611780,0,0,0,0,0,0,0
3,39999,15,30000,25,10000,49,9999,0.100000,0,0,0.000000,6,4.000000,0.000000,13.665948,0,0,0,0,0,0,0
3,39999,16,30000,25,10000,40,9999,0.100000,0,0,0.000000,6,0.000000,0.000000,0.397466,0,0,0,0,0,0,0
3,39999,17,30000,70,10000,40,9999,0.100000,0,0,0.000000,6,0.000000,0.000000,3.607358,0,0,0,0,0,0,0
3,39999,18,30000,5,0,40,9999,0.100000,0,0,0.000000,6,0.000000,0.000000,0.573894,0,0,0,0,0,0,0
3,39999,19,30000,97,10000,49,9999,0.100000,0,0,0.000000,6,3.000000,0.000000,3.579726,0,0,0,0,0,0,0
3,39999,20,30000,25,10000,49,9999,0.100000,0,0,0.000000,6,1.000000,0.000000,1.141414,0,0,0,0,0,0,0
3,39999,21,30000,24,10000,40,9999,0.100000,0,0,0.000000,6,0.000000,0.000000,17.030640,0,0,0,0,0,0,0
3,39999,22,30000,97,10000,49,9999,0.100000,0,0,0.000000,6,2.000000,0.000000,2.597418,0,0,0,0,0,0,0
3,39999,23,30000,70,10000,40,9999,0.100000,0,0,0.000000,6,0.000000,0.000000,0.487370,0,0,0,0,0,0,0
3,39999,24,30000,78,10000,40,9999,0.100000,0,0,0.000000,6,0.000000,0.000000,0.632981,0,0,0,0,0,0,0
3,39999,25,30000,97,10000,40,9999,0.100000,0,0,0.000000,6,0.000000,0.000000,0.161268,0,0,0,0,0,0,0
3,39999,26,30000,5,0,40,9999,0.100000,0,0,0.000000,6,0.000000,0.000000,0.371958,0,0,0,0,0,0,0
3,39999,27,30000,25,10000,49,9999,0.100000,0,0,0.000000,6,2.000000,0.000000,10.252310,0,0,0,0,0,0,0
3,39999,28,30000,70,10000,40,9999,0.100000,0,0,0.000000,6,0.000000,0.000000,0.519906,0,0,0,0,0,0,0
3,39999,29,30000,78,10000,49,9999,0.100000,0,0,0.000000,6,3.000000,0.000000,16.137119,0,0,0,0,0,0,0
3,39999,30,30000,5,0,49,9999,0.100000,0,0,0.000000,6,3.000000,0.000000,12.818140,0,0,0,0,0,0,0
3,39999,31,30000,25,10000,49,9999,0.100000,0,0,0.000000,6,2.000000,0.000000,8.819032,0,0,0,0,0,0,0
3,39999,32,30000,5,0,40,9999,0.100000,0,0,0.000000,6,0.000000,0.000000,0.231347,0,0,0,0,0,0,0
3,39999,33,30000,24,10000,40,9999,0.100000,0,0,0.000000,6,0.000000,0.000000,0.138902,0,0,0,0,0,0,0
3,39999,34,30000,97,10000,40,9999,0.100000,0,0,0.000000,6,0.000000,0.000000,0.525977,0,0,0,0,0,0,0
3,39999,35,30000,5,0,40,9999,0.100000,0,0,0.000000,6,0.000000,0.000000,0.837945,0,0,0,0,0,0,0
3,39999,36,30000,70,10000,49,9999,0.100000,0,0,0.000000,6,2.000000,0.000000,4.050725,0,0,0,0,0,0,0
3,39999,37,30000,97,10000,40,9999,0.100000,0,0,0.000000,6,0.000000,0.000000,0.192930,0,0,0,0,0,0,0
3,39999,38,30000,78,10000,40,9999,0.100000,0,0,0.000000,6,0.000000,0.000000,0.434449,0,0,0,0,0,0,0
3,39999,39,30000,5,0,40,9999,0.100000,0,0,0.000000,6,0.000000,0.000000,0.588007,0,0,0,0,0,0,0
3,39999,40,30000,24,10000,49,9999,0.100000,0,0,0.000000,6,1.000000,0.000000,19.063493,0,0,0,0,0,0,0
3,39999,41,30000,25,10000,49,9999,0.100000,0,0,0.000000,6,2.000000,0.000000,13.453621,0,0,0,0,0,0,0
3,39999,42,30000,25,10000,40,9999,0.100000,0,0,0.000000,6,0.000000,0.000000,0.236780,0,0,0,0,0,0,0
3,39999,43,30000,70,10000,40,9999,0.100000,0,0,0.000000,6,0.000000,0.000000,0.141155,0,0,0,0,0,0,0
3,39999,44,30000,24,10000,49,9999,0.100000,0,0,0.000000,6,1.000000,0.000000,3.011782,0,0,0,0,0,0,0
3,39999,45,30000,78,10000,40,9999,0.100000,0,0,0.000000,6,0.000000,0.000000,1.010833,0,0,0,0,0,0,0
3,39999,46,30000,78,10000,49,9999,0.100000,0,0,0.000000,6,5.000000,0.000000,21.121569,0,0,0,0,0,0,0
3,39999,47,30000,97,10000,40,9999,0.100000,0,0,0.000000,6,0.000000,0.000000,0.250439,0,0,0,0,0,0,0
3,39999,48,30000,70,10000,49,9999,0.100000,0,0,0.000000,6,1.000000,0.000000,1.138372,0,0,0,0,0,0,0
3,39999,49,30000,5,0,40,9999,0.100000,0,0,0.000000,6,0.000000,0.000000,2.842616,0,0,0,0,0,0,0
3,39999,50,30000,97,10000,40,9999,0.100000,0,0,0.000000,6,0.000000,0.000000,0.992287,0,0,0,0,0,0,0
3,39999,51,30000,97,10000,49,9999,0.100000,0,0,0.000000,6,2.000000,0.000000,22.290712,0,0,0,0,0,0,0
3,39999,52,30000,25,10000,49,9999,0.100000,0,0,0.000000,6,3.000000,0.000000,7.108200,0,0,0,0,0,0,0
3,39999,53,30000,78,10000,40,9999,0.100000,0,0,0.000000,6,0.000000,0.000000,0.794889,0,0,0,0,0,0,0
3,39999,54,30000,24,10000,40,9999,0.100000,0,0,0.000000,6,0.000000,0.000000,1.195726,0,0,0,0,0,0,0
3,39999,55,30000,78,10000,40,9999,0.100000,0,0,0.000000,6,0.000000,0.000000,0.143612,0,0,0,0,0,0,0
3,39999,56,30000,97,10000,49,9999,0.100000,0,0,0.000000,6,2.000000,0.000000,16.092235,0,0,0,0,0,0,0
3,39999,57,30000,25,10000,40,9999,0.100000,0,0,0.000000,6,0.000000,0.000000,0.538481,0,0,0,0,0,0,0
3,39999,58,30000,25,10000,49,9999,0.100000,0,0,0.000000,6,1.000000,0.000000,1.215041,0,0,0,0,0,0,0
3,39999,59,30000,5,0,40,9999,0.100000,0,0,0.000000,6,0.000000,0.000000,0.303859,0,0,0,0,0,0,0
3,39999,60,30000,97,10000,40,9999,0.100000,0,0,0.000000,6,0.000000,0.000000,0.235113,0,0,0,0,0,0,0
3,39999,61,30000,24,10000,40,9999,0.100000,0,0,0.000000,6,0.000000,0.000000,0.487475,0,0,0,0,0,0,0
3,39999,62,30000,70,10000,40,9999,0.100000,0,0,0.000000,6,0.000000,0.000000,0.549934,0,0,0,0,0,0,0
3,39999,63,30000,25,10000,40,9999,0.100000,0,0,0.000000,6,0.000000,0.000000,0.892274,0,0,0,0,0,0,0
3,39999,64,30000,78,10000,40,9999,0.100000,0,0,0.000000,6,0.000000,0.000000,0.461426,0,0,0,0,0,0,0
3,39999,65,30000,24,10000,49,9999,0.100000,0,0,0.000000,6,1.000000,0.000000,1.547000,0,0,0,0,0,0,0
3,39999,66,30000,25,10000,40,9999,0.100000,0,0,0.000000,6,0.000000,0.000000,0.261449,0,0,0,0,0,0,0
3,39999,67,30000,24,10000,40,9999,0.100000,0,0,0.000000,6,0.000000,0.000000,0.151970,0,0,0,0,0,0,0
3,39999,68,30000,5,0,40,9999,0.100000,0,0,0.000000,6,0.000000,0.000000,0.496126,0,0,0,0,0,0,0
3,39999,69,30000,97,10000,40,9999,0.100000,0,0,0.000000,6,0.000000,0.000000,6.889817,0,0,0,0,0,0,0
3,39999,70,30000,78,10000,49,9999,0.100000,0,0,0.000000,6,2.000000,0.000000,2.951143,0,0,0,0,0,0,0
3,39999,71,30000,97,10000,40,9999,0.100000,0,0,0.000000,6,0.000000,0.000000,1.516163,0,0,0,0,0,0,0
3,39999,72,30000,97,10000,40,9999,0.100000,0,0,0.000000,6,0.000000,0.000000,1.683154,0,0,0,0,0,0,0
3,39999,73,30000,24,10000,49,9999,0.100000,0,0,0.000000,6,1.000000,0.000000,4.107705,0,0,0,0,0,0,0
3,39999,74,30000,78,10000,9,9999,0.100000,0,0,34.210526,6,2.000000,0.000000,9.738683,0,0,0,1,0,0,0
3,39999,75,30000,78,10000,49,9999,0.100000,0,0,0.000000,6,1.000000,0.000000,4.824049,0,0,0,0,0,0,0
3,39999,76,30000,97,10000,40,9999,0.100000,0,0,0.000000,6,0.000000,0.000000,0.171644,0,0,0,0,0,0,0
3,39999,77,30000,97,10000,49,9999,0.100000,0,0,0.000000,6,2.000000,0.000000,19.204288,0,0,0,0,0,0,0
3,39999,78,30000,78,10000,40,9999,0.100000,0,0,0.000000,6,0.000000,0.000000,0.379073,0,0,0,0,0,0,0
3,39999,79,30000,97,10000,49,9999,0.100000,0,0,0.000000,6,3.000000,0.000000,11.504509,0,0,0,0,0,0,0
3,39999,80,30000,97,10000,40,9999,0.100000,0,0,0.000000,6,0.000000,0.000000,0.256672,0,0,0,0,0,0,0
3,39999,81,30000,5,0,49,9999,0.100000,0,0,0.000000,6,3.000000,0.000000,4.001266,0,0,0,0,0,0,0
3,39999,82,30000,25,10000,40,9999,0.100000,0,0,0.000000,6,0.000000,0.000000,0.188724,0,0,0,0,0,0,0
3,39999,83,30000,5,0,49,9999,0.100000,0,0,0.000000,6,1.000000,0.000000,1.548670,0,0,0,0,0,0,0
3,39999,84,30000,78,10000,49,9999,0.100000,0,0,0.000000,6,3.000000,0.000000,3.619774,0,0,0,0,0,0,0
3,39999,85,30000,25,10000,40,9999,0.100000,0,0,0.000000,6,0.000000,0.000000,0.101951,0,0,0,0,0,0,0
3,39999,86,30000,78,10000,40,9999,0.100000,0,0,0.000000,6,0.000000,0.000000,0.237791,0,0,0,0,0,0,0
3,39999,87,30000,5,0,49,9999,0.100000,0,0,0.000000,6,4.000000,0.000000,23.696251,0,0,0,0,0,0,0
3,39999,88,30000,70,10000,40,9999,0.100000,0,0,0.000000,6,0.000000,0.000000,0.183017,0,0,0,0,0,0,0
3,39999,89,30000,97,10000,40,9999,0.100000,0,0,0.000000,6,0.000000,0.000000,0.710140,0,0,0,0,0,0,0
3,39999,90,30000,97,10000,40,9999,0.100000,0,0,0.000000,6,0.000000,0.000000,0.558476,0,0,0,0,0,0,0
3,39999,91,30000,70,10000,40,9999,0.100000,0,0,0.000000,6,0.000000,0.000000,0.351917,0,0,0,0,0,0,0
3,39999,92,30000,70,10000,40,9999,0.100000,0,0,0.000000,6,0.000000,0.000000,0.160075,0,0,0,0,0,0,0
3,39999,93,30000,97,10000,40,9999,0.100000,0,0,0.000000,6,0.000000,0.000000,0.094647,0,0,0,0,0,0,0
3,39999,94,30000,5,0,40,9999,0.100000,0,0,0.000000,6,0.000000,0.000000,1.722289,0,0,0,0,0,0,0
3,39999,95,30000,78,10000,49,9999,0.100000,0,0,0.000000,6,2.000000,0.000000,3.061252,0,0,0,0,0,0,0
3,39999,96,30000,25,10000,40,9999,0.100000,0,0,0.000000,6,0.000000,0.000000,0.588408,0,0,0,0,0,0,0
3,39999,97,30000,25,10000,40,9999,0.100000,0,0,0.000000,6,0.000000,0.000000,0.583530,0,0,0,0,0,0,0
3,39999,98,30000,78,10000,40,9999,0.100000,0,0,0.000000,6,0.000000,0.000000,1.174594,0,0,0,0,0,0,0
3,39999,99,30000,24,10000,40,9999,0.100000,0,0,0.000000,6,0.000000,0.000000,8.092809,0,0,0,0,0,0,0
4,49999,0,40000,70,10000,40,9999,0.100000,0,0,0.000000,6,0.000000,0.000000,1.219117,0,0,0,0,0,0,0
4,49999,1,40000,78,10000,40,9999,0.100000,0,0,0.000000,6,0.000000,0.000000,0.667659,0,0,0,0,0,0,0
4,49999,2,40000,25,10000,40,9999,0.100000,0,0,0.000000,6,0.000000,0.000000,2.434662,0,0,0,0,0,0,0
4,49999,3,40000,25,10000,40,9999,0.100000,0,0,0.000000,6,0.000000,0.000000,0.556645,0,0,0,0,0,0,0
4,49999,4,40000,97,10000,49,9999,0.100000,0,0,0.000000,6,7.000000,0.000000,16.279249,0,0,0,0,0,0,0
4,49999,5,40000,5,0,40,9999,0.100000,0,0,0.000000,6,0.000000,0.000000,1.537341,0,0,0,0,0,0,0
4,49999,6,40000,70,10000,40,9999,0.100000,0,0,0.000000,6,0.000000,0.000000,0.241942,0,0,0,0,0,0,0
4,49999,7,40000,25,10000,40,9999,0.100000,0,0,0.000000,6,0.000000,0.000000,1.496707,0,0,0,0,0,0,0
4,49999,8,40000,24,10000,49,9999,0.100000,0,0,0.000000,6,1.000000,0.000000,4.835854,0,0,0,0,0,0,0
4,49999,9,40000,24,10000,40,9999,0.100000,0,0,0.000000,6,0.000000,0.000000,0.138188,0,0,0,0,0,0,0
4,49999,10,40000,24,10000,40,9999,0.100000,0,0,0.000000,6,0.000000,0.000000,0.163282,0,0,0,0,0,0,0
4,49999,11,40000,24,10000,40,9999,0.100000,0,0,0.000000,6,0.000000,0.000000,0.226463,0,0,0,0,0,0,0
4,49999,12,40000,97,10000,40,9999,0.100000,0,0,0.000000,6,0.000000,0.000000,0.142566,0,0,0,0,0,0,0
4,49999,13,40000,25,10000,40,9999,0.100000,0,0,0.000000,6,0.000000,0.000000,3.384515,0,0,0,0,0,0,0
4,49999,14,40000,97,10000,49,9999,0.100000,0,0,0.000000,6,4.000000,0.000000,7.827841,0,0,0,0,0,0,0
4,49999,15,40000,5,0,49,9999,0.100000,0,0,0.000000,6,3.000000,0.000000,24.757400,0,0,0,0,0,0,0
4,49999,16,40000,70,10000,40,9999,0.100000,0,0,0.000000,6,0.000000,0.000000,0.103265,0,0,0,0,0,0,0
4,49999,17,40000,5,0,40,9999,0.100000,0,0,0.000000,6,0.000000,0.000000,1.511497,0,0,0,0,0,0,0
4,49999,18,40000,70,10000,40,9999,0.100000,0,0,0.000000,6,0.000000,0.000000,0.498597,0,0,0,0,0,0,0
4,49999,19,40000,78,10000,40,9999,0.100000,0,0,0.000000,6,0.000000,0.000000,0.912474,0,0,0,0,0,0,0
4,49999,20,40000,5,0,40,9999,0.100000,0,0,0.000000,6,0.000000,0.000000,0.905677,0,0,0,0,0,0,0
4,49999,21,40000,25,10000,40,9999,0.100000,0,0,0.000000,6,0.000000,0.000000,3.213996,0,0,0,0,0,0,0
4,49999,22,40000,70,10000,40,9999,0.100000,0,0,0.000000,6,0.000000,0.000000,1.549516,0,0,0,0,0,0,0
4,49999,23,40000,97,10000,40,9999,0.100000,0,0,0.000000,6,0.000000,0.000000,0.502770,0,0,0,0,0,0,0
4,49999,24,40000,5,0,40,9999,0.100000,0,0,0.000000,6,0.000000,0.000000,1.194791,0,0,0,0,0,0,0
4,49999,25,40000,70,10000,49,9999,0.065000,0,0,0.000000,6,1.000000,0.000000,1.309210,0,0,0,0,0,0,0
4,49999,26,40000,78,10000,40,9999,0.100000,0,0,0.000000,6,0.000000,0.000000,0.656079,0,0,0,0,0,0,0
4,49999,27,40000,5,0,49,9999,0.100000,0,0,0.000000,6,4.000000,0.000000,22.762649,0,0,0,0,0,0,0
4,49999,28,40000,78,10000,40,9999,0.100000,0,0,0.000000,6,0.000000,0.000000,0.422305,0,0,0,0,0,0,0
4,49999,29,40000,97,10000,49,9999,0.100000,0,0,0.000000,6,1.000000,0.000000,7.979309,0,0,0,0,0,0,0
4,49999,30,40000,70,10000,40,9999,0.100000,0,0,0.000000,6,0.000000,0.000000,0.586177,0,0,0,0,0,0,0
4,49999,31,40000,5,0,49,9999,0.100000,0,0,0.000000,6,3.000000,0.000000,26.653917,0,0,0,0,0,0,0
4,49999,32,40000,78,10000,40,9999,0.100000,0,0,0.000000,6,0.000000,0.000000,0.241702,0,0,0,0,0,0,0
4,49999,33,40000,78,10000,40,9999,0.100000,0,0,0.000000,6,0.000000,0.000000,1.667591,0,0,0,0,0,0,0
4,49999,34,40000,97,10000,40,9999,0.100000,0,0,0.000000,6,0.000000,0.000000,0.192003,0,0,0,0,0,0,0
4,49999,35,40000,25,10000,40,9999,0.100000,0,0,0.000000,6,0.000000,0.000000,1.478656,0,0,0,0,0,0,0
4,49999,36,40000,24,10000,40,9999,0.100000,0,0,0.000000,6,0.000000,0.000000,1.081474,0,0,0,0,0,0,0
4,49999,37,40000,25,10000,40,9999,0.100000,0,0,0.000000,6,0.000000,0.000000,0.354325,0,0,0,0,0,0,0
4,49999,38,40000,70,10000,49,9999,0.100000,0,0,0.000000,6,1.000000,0.000000,2.644552,0,0,0,0,0,0,0
4,49999,39,40000,24,10000,40,9999,0.100000,0,0,0.000000,6,0.000000,0.000000,0.750747,0,0,0,0,0,0,0
4,49999,40,40000,70,10000,40,9999,0.100000,0,0,0.000000,6,0.000000,0.000000,0.856722,0,0,0,0,0,0,0
4,49999,41,40000,25,10000,40,9999,0.100000,0,0,0.000000,6,0.000000,0.000000,2.026645,0,0,0,0,0,0,0
4,49999,42,40000,25,10000,40,9999,0.100000,0,0,0.000000,6,0.000000,0.000000,0.227328,0,0,0,0,0,0,0
4,49999,43,40000,78,10000,40,9999,0.100000,0,0,0.000000,6,0.000000,0.000000,0.143128,0,0,0,0,0,0,0
4,49999,44,40000,25,10000,40,9999,0.100000,0,0,0.000000,6,0.000000,0.000000,0.305800,0,0,0,0,0,0,0
4,49999,45,40000,5,0,40,9999,0.100000,0,0,0.000000,6,0.000000,0.000000,0.760157,0,0,0,0,0,0,0
4,49999,46,40000,25,10000,40,9999,0.100000,0,0,0.000000,6,0.000000,0.000000,8.254238,0,0,0,0,0,0,0
4,49999,47,40000,70,10000,40,9999,0.100000,0,0,0.000000,6,0.000000,0.000000,0.356541,0,0,0,0,0,0,0
4,49999,48,40000,78,10000,40,9999,0.100000,0,0,0.000000,6,0.000000,0.000000,0.763781,0,0,0,0,0,0,0
4,49999,49,40000,70,10000,40,9999,0.100000,0,0,0.000000,6,0.000000,0.000000,2.427434,0,0,0,0,0,0,0
4,49999,50,40000,70,10000,40,9999,0.100000,0,0,0.000000,6,0.000000,0.000000,0.931508,0,0,0,0,0,0,0
4,49999,51,40000,5,0,40,9999,0.100000,0,0,0.000000,6,0.000000,0.000000,15.012911,0,0,0,0,0,0,0
4,49999,52,40000,25,10000,40,9999,0.100000,0,0,0.000000,6,0.000000,0.000000,0.717168,0,0,0,0,0,0,0
4,49999,53,40000,70,10000,40,9999,0.100000,0,0,0.000000,6,0.000000,0.000000,0.966676,0,0,0,0,0,0,0
4,49999,54,40000,24,10000,49,9999,0.100000,0,0,0.000000,6,1.000000,0.000000,1.662455,0,0,0,0,0,0,0
4,49999,55,40000,70,10000,40,9999,0.135000,0,0,0.000000,6,0.000000,0.000000,0.156024,0,0,0,0,0,0,0
4,49999,56,40000,24,10000,49,9999,0.100000,0,0,0.000000,6,2.000000,0.000000,8.456592,0,0,0,0,0,0,0
4,49999,57,40000,78,10000,40,9999,0.100000,0,0,0.000000,6,0.000000,0.000000,0.479270,0,0,0,0,0,0,0
4,49999,58,40000,78,10000,49,9999,0.100000,0,0,0.000000,6,1.000000,0.000000,2.229949,0,0,0,0,0,0,0
4,49999,59,40000,5,0,40,9999,0.100000,0,0,0.000000,6,0.000000,0.000000,0.513469,0,0,0,0,0,0,0
4,49999,60,40000,5,0,40,9999,0.100000,0,0,0.000000,6,0.000000,0.000000,0.226471,0,0,0,0,0,0,0
4,49999,61,40000,97,10000,40,9999,0.100000,0,0,0.000000,6,0.000000,0.000000,0.939721,0,0,0,0,0,0,0
4,49999,62,40000,24,10000,49,9999,0.100000,0,0,0.000000,6,1.000000,0.000000,4.387350,0,0,0,0,0,0,0
4,49999,63,40000,5,0,40,9999,0.100000,0,0,0.000000,6,0.000000,0.000000,0.925345,0,0,0,0,0,0,0
4,49999,64,40000,5,0,49,9999,0.100000,0,0,0.000000,6,6.000000,0.000000,12.405950,0,0,0,0,0,0,0
4,49999,65,40000,70,10000,49,9999,0.100000,0,0,0.000000,6,2.000000,0.000000,3.543235,0,0,0,0,0,0,0
4,49999,66,40000,97,10000,40,9999,0.100000,0,0,0.000000,6,0.000000,0.000000,0.819962,0,0,0,0,0,0,0
4,49999,67,40000,78,10000,40,9999,0.100000,0,0,0.000000,6,0.000000,0.000000,0.148655,0,0,0,0,0,0,0
4,49999,68,40000,78,10000,49,9999,0.100000,0,0,0.000000,6,7.000000,0.000000,16.010017,0,0,0,0,0,0,0
4,49999,69,40000,24,10000,49,9999,0.100000,0,0,0.000000,6,7.000000,0.000000,24.298958,0,0,0,0,0,0,0
4,49999,70,40000,5,0,49,9999,0.100000,0,0,0.000000,6,2.000000,0.000000,9.182780,0,0,0,0,0,0,0
4,49999,71,40000,70,10000,40,9999,0.100000,0,0,0.000000,6,0.000000,0.000000,1.326313,0,0,0,0,0,0,0
4,49999,72,40000,25,10000,40,9999,0.100000,0,0,0.000000,6,0.000000,0.000000,0.877660,0,0,0,0,0,0,0
4,49999,73,40000,24,10000,40,9999,0.100000,0,0,0.000000,6,0.000000,0.000000,0.753765,0,0,0,0,0,0,0
4,49999,74,40000,70,10000,40,9999,0.100000,0,0,0.000000,6,0.000000,0.000000,0.549654,0,0,0,0,0,0,0
4,49999,75,40000,24,10000,40,9999,0.100000,0,0,0.000000,6,0.000000,0.000000,0.698496,0,0,0,0,0,0,0
4,49999,76,40000,5,0,49,9999,0.100000,0,0,0.000000,6,2.000000,0.000000,3.805373,0,0,0,0,0,0,0
4,49999,77,40000,24,10000,40,9999,0.100000,0,0,0.000000,6,0.000000,0.000000,0.227878,0,0,0,0,0,0,0
4,49999,78,40000,25,10000,40,9999,0.100000,0,0,0.000000,6,0.000000,0.000000,0.287134,0,0,0,0,0,0,0
4,49999,79,40000,70,10000,40,9999,0.100000,0,0,0.000000,6,0.000000,0.000000,0.808728,0,0,0,0,0,0,0
4,49999,80,40000,5,0,40,9999,0.100000,0,0,0.000000,6,0.000000,0.000000,0.252597,0,0,0,0,0,0,0
4,49999,81,40000,70,10000,40,9999,0.100000,0,0,0.000000,6,0.000000,0.000000,0.859715,0,0,0,0,0,0,0
4,49999,82,40000,25,10000,40,9999,0.100000,0,0,0.000000,6,0.000000,0.000000,0.163423,0,0,0,0,0,0,0
4,49999,83,40000,97,10000,40,9999,0.100000,0,0,0.000000,6,0.000000,0.000000,0.993979,0,0,0,0,0,0,0
4,49999,84,40000,70,10000,40,9999,0.100000,0,0,0.000000,6,0.000000,0.000000,0.801214,0,0,0,0,0,0,0
4,49999,85,40000,97,10000,40,9999,0.100000,0,0,0.000000,6,0.000000,0.000000,0.098548,0,0,0,0,0,0,0
4,49999,86,40000,5,0,40,9999,0.100000,0,0,0.000000,6,0.000000,0.000000,0.248890,0,0,0,0,0,0,0
4,49999,87,40000,24,10000,49,9999,0.100000,0,0,0.000000,6,3.000000,0.000000,12.190161,0,0,0,0,0,0,0
4,49999,88,40000,25,10000,49,9999,0.100000,0,0,0.000000,6,1.000000,0.000000,1.342351,0,0,0,0,0,0,0
4,49999,89,40000,70,10000,40,9999,0.100000,0,0,0.000000,6,0.000000,0.000000,1.191342,0,0,0,0,0,0,0
4,49999,90,40000,97,10000,40,9999,0.100000,0,0,0.000000,6,0.000000,0.000000,0.486051,0,0,0,0,0,0,0
4,49999,91,40000,97,10000,40,9999,0.100000,0,0,0.000000,6,0.000000,0.000000,0.351989,0,0,0,0,0,0,0
4,49999,92,40000,78,10000,40,9999,0.100000,0,0,0.000000,6,0.000000,0.000000,0.161801,0,0,0,0,0,0,0
4,49999,93,40000,5,0,40,9999,0.100000,0,0,0.000000,6,0.000000,0.000000,0.123181,0,0,0,0,0,0,0
4,49999,94,40000,70,10000,49,9999,0.100000,0,0,0.000000,6,1.000000,0.000000,1.450934,0,0,0,0,0,0,0
4,49999,95,40000,78,10000,40,9999,0.100000,0,0,0.000000,6,0.000000,0.000000,0.207528,0,0,0,0,0,0,0
4,49999,96,40000,70,10000,40,9999,0.100000,0,0,0.000000,6,0.000000,0.000000,1.040854,0,0,0,0,0,0,0
4,49999,97,40000,24,10000,40,9999,0.100000,0,0,0.000000,6,0.000000,0.000000,0.575840,0,0,0,0,0,0,0
4,49999,98,40000,78,10000,49,9999,0.100000,0,0,0.000000,6,1.000000,0.000000,1.121865,0,0,0,0,0,0,0
4,49999,99,40000,25,10000,40,9999,0.100000,0,0,0.000000,6,0.000000,0.000000,8.762425,0,0,0,0,0,0,0
5,59999,0,50000,5,0,49,9999,0.100000,0,0,0.000000,6,4.000000,0.000000,5.559846,0,0,0,0,0,0,0
5,59999,1,50000,5,0,40,9999,0.100000,0,0,0.000000,6,0.000000,0.000000,0.727142,0,0,0,0,0,0,0
5,59999,2,50000,25,40000,40,9999,0.065000,0,0,0.000000,6,0.000000,0.000000,1.010150,0,0,0,0,0,0,0
5,59999,3,50000,97,10000,40,9999,0.100000,0,0,0.000000,6,0.000000,0.000000,0.563473,0,0,0,0,0,0,0
5,59999,4,50000,5,0,40,9999,0.100000,0,0,0.000000,6,0.000000,0.000000,0.788028,0,0,0,0,0,0,0
5,59999,5,50000,5,0,49,9999,0.100000,0,0,0.000000,6,5.000000,0.000000,6.489323,0,0,0,0,0,0,0
5,59999,6,50000,97,10000,40,9999,0.100000,0,0,0.000000,6,0.000000,0.000000,0.252316,0,0,0,0,0,0,0
5,59999,7,50000,24,10000,40,9999,0.100000,0,0,0.000000,6,0.000000,0.000000,1.393087,0,0,0,0,0,0,0
5,59999,8,50000,78,10000,49,9999,0.100000,0,0,0.000000,6,2.000000,0.000000,11.841318,0,0,0,0,0,0,0
5,59999,9,50000,24,10000,40,9999,0.100000,0,0,0.000000,6,0.000000,0.000000,0.141630,0,0,0,0,0,0,0
5,59999,10,50000,5,0,40,9999,0.100000,0,0,0.000000,6,0.000000,0.000000,0.154801,0,0,0,0,0,0,0
5,59999,11,50000,97,10000,40,9999,0.100000,0,0,0.000000,6,0.000000,0.000000,0.184787,0,0,0,0,0,0,0
5,59999,12,50000,5,0,40,9999,0.100000,0,0,0.000000,6,0.000000,0.000000,0.133228,0,0,0,0,0,0,0
5,59999,13,50000,38,40000,40,9999,0.100000,0,0,0.000000,6,0.000000,0.000000,0.717332,0,0,0,0,0,0,0
5,59999,14,50000,70,10000,40,9999,0.100000,0,0,0.000000,6,0.000000,0.000000,0.588934,0,0,0,0,0,0,0
5,59999,15,50000,24,10000,49,9999,0.100000,0,0,0.000000,6,1.000000,0.000000,23.121452,0,0,0,0,0,0,0
5,59999,16,50000,70,10000,40,9999,0.100000,0,0,0.000000,6,0.000000,0.000000,0.765913,0,0,0,0,0,0,0
5,59999,17,50000,5,0,40,9999,0.100000,0,0,0.000000,6,0.000000,0.000000,1.688222,0,0,0,0,0,0,0
5,59999,18,50000,70,10000,40,9999,0.100000,0,0,0.000000,6,0.000000,0.000000,0.503541,0,0,0,0,0,0,0
5,59999,19,50000,25,10000,49,9999,0.100000,0,0,0.000000,6,1.000000,0.000000,1.147974,0,0,0,0,0,0,0
5,59999,20,50000,5,0,40,9999,0.100000,0,0,0.000000,6,0.000000,0.000000,0.490555,0,0,0,0,0,0,0
5,59999,21,50000,70,10000,40,9999,0.100000,0,0,0.000000,6,0.000000,0.000000,3.473636,0,0,0,0,0,0,0
5,59999,22,50000,5,0,40,9999,0.100000,0,0,0.000000,6,0.000000,0.000000,0.684021,0,0,0,0,0,0,0
5,59999,23,50000,70,10000,40,9999,0.100000,0,0,0.000000,6,0.000000,0.000000,0.445668,0,0,0,0,0,0,0
5,59999,24,50000,70,10000,40,9999,0.100000,0,0,0.000000,6,0.000000,0.000000,0.891118,0,0,0,0,0,0,0
5,59999,25,50000,25,10000,40,9999,0.100000,0,0,0.000000,6,0.000000,0.000000,1.162811,0,0,0,0,0,0,0
5,59999,26,50000,24,10000,40,9999,0.100000,0,0,0.000000,6,0.000000,0.000000,0.595254,0,0,0,0,0,0,0
5,59999,27,50000,25,10000,49,9999,0.100000,0,0,0.000000,6,3.000000,0.000000,6.652674,0,0,0,0,0,0,0
5,59999,28,50000,97,10000,40,9999,0.100000,0,0,0.000000,6,0.000000,0.000000,0.407916,0,0,0,0,0,0,0
5,59999,29,50000,24,10000,49,9999,0.100000,0,0,0.000000,6,6.000000,0.000000,7.012463,0,0,0,0,0,0,0
5,59999,30,50000,70,10000,40,9999,0.100000,0,0,0.000000,6,0.000000,0.000000,0.754616,0,0,0,0,0,0,0
5,59999,31,50000,70,10000,49,9999,0.100000,0,0,0.000000,6,1.000000,0.000000,6.922882,0,0,0,0,0,0,0
5,59999,32,50000,97,10000,40,9999,0.100000,0,0,0.000000,6,0.000000,0.000000,0.550300,0,0,0,0,0,0,0
5,59999,33,50000,22,40000,49,9999,0.100000,0,0,0.000000,6,1.000000,0.000000,1.749382,0,0,0,0,0,0,0
5,59999,34,50000,25,40000,40,9999,0.065000,0,0,0.000000,6,0.000000,0.000000,0.967292,0,0,0,0,0,0,0
5,59999,35,50000,97,10000,40,9999,0.100000,0,0,0.000000,6,0.000000,0.000000,1.328080,0,0,0,0,0,0,0
5,59999,36,50000,70,10000,49,9999,0.100000,0,0,0.000000,6,5.000000,0.000000,6.183325,0,0,0,0,0,0,0
5,59999,37,50000,97,10000,40,9999,0.100000,0,0,0.000000,6,0.000000,0.000000,0.310248,0,0,0,0,0,0,0
5,59999,38,50000,97,10000,49,9999,0.100000,0,0,0.000000,6,1.000000,0.000000,2.130201,0,0,0,0,0,0,0
5,59999,39,50000,25,10000,49,9999,0.100000,0,0,0.000000,6,7.000000,0.000000,7.928865,0,0,0,0,0,0,0
5,59999,40,50000,5,0,49,9999,0.100000,0,0,0.000000,6,6.000000,0.000000,6.649311,0,0,0,0,0,0,0
5,59999,41,50000,97,10000,40,9999,0.100000,0,0,0.000000,6,0.000000,0.000000,2.234065,0,0,0,0,0,0,0
5,59999,42,50000,25,10000,40,9999,0.100000,0,0,0.000000,6,0.000000,0.000000,0.237941,0,0,0,0,0,0,0
5,59999,43,50000,70,10000,40,9999,0.100000,0,0,0.000000,6,0.000000,0.000000,0.147492,0,0,0,0,0,0,0
5,59999,44,50000,25,40000,49,9999,0.065000,0,0,0.000000,6,6.000000,0.000000,8.199331,0,0,0,0,0,0,0
5,59999,45,50000,78,10000,49,9999,0.100000,0,0,0.000000,6,6.000000,0.000000,7.820339,0,0,0,0,0,0,0
5,59999,46,50000,5,0,49,9999,0.100000,0,0,0.000000,6,5.000000,0.000000,19.286443,0,0,0,0,0,0,0
5,59999,47,50000,25,10000,40,9999,0.100000,0,0,0.000000,6,0.000000,0.000000,0.244484,0,0,0,0,0,0,0
5,59999,48,50000,5,0,40,9999,0.100000,0,0,0.000000,6,0.000000,0.000000,0.359840,0,0,0,0,0,0,0
5,59999,49,50000,25,40000,40,9999,0.065000,0,0,0.000000,6,0.000000,0.000000,2.271374,0,0,0,0,0,0,0
5,59999,50,50000,24,10000,40,9999,0.100000,0,0,0.000000,6,0.000000,0.000000,0.826263,0,0,0,0,0,0,0
5,59999,51,50000,25,10000,40,9999,0.100000,0,0,0.000000,6,0.000000,0.000000,1.126687,0,0,0,0,0,0,0
5,59999,52,50000,24,10000,40,9999,0.100000,0,0,0.000000,6,0.000000,0.000000,0.833877,0,0,0,0,0,0,0
5,59999,53,50000,24,10000,40,9999,0.100000,0,0,0.000000,6,0.000000,0.000000,0.740378,0,0,0,0,0,0,0
5,59999,54,50000,25,10000,49,9999,0.100000,0,0,0.000000,6,1.000000,0.000000,1.561578,0,0,0,0,0,0,0
5,59999,55,50000,5,0,40,9999,0.065000,0,0,0.000000,6,0.000000,0.000000,0.159002,0,0,0,0,0,0,0
5,59999,56,50000,25,10000,40,9999,0.100000,0,0,0.000000,6,0.000000,0.000000,8.541780,0,0,0,0,0,0,0
5,59999,57,50000,70,10000,40,9999,0.100000,0,0,0.000000,6,0.000000,0.000000,0.917353,0,0,0,0,0,0,0
5,59999,58,50000,97,10000,9,9999,0.100000,0,0,34.210526,6,7.000000,0.000000,18.432375,0,0,0,1,0,0,0
5,59999,59,50000,25,40000,40,9999,0.065000,0,0,0.000000,6,0.000000,0.000000,0.674066,0,0,0,0,0,0,0
5,59999,60,50000,5,0,40,9999,0.100000,0,0,0.000000,6,0.000000,0.000000,0.233554,0,0,0,0,0,0,0
5,59999,61,50000,24,10000,40,9999,0.100000,0,0,0.000000,6,0.000000,0.000000,0.738647,0,0,0,0,0,0,0
5,59999,62,50000,25,10000,40,9999,0.100000,0,0,0.000000,6,0.000000,0.000000,0.624253,0,0,0,0,0,0,0
5,59999,63,50000,5,0,40,9999,0.100000,0,0,0.000000,6,0.000000,0.000000,0.889932,0,0,0,0,0,0,0
5,59999,64,50000,97,10000,40,9999,0.100000,0,0,0.000000,6,0.000000,0.000000,0.140885,0,0,0,0,0,0,0
5,59999,65,50000,97,10000,9,9999,0.100000,0,0,34.210526,6,6.000000,0.000000,12.674389,0,0,0,1,0,0,0
5,59999,66,50000,24,10000,40,9999,0.100000,0,0,0.000000,6,0.000000,0.000000,0.720304,0,0,0,0,0,0,0
5,59999,67,50000,24,10000,40,9999,0.100000,0,0,0.000000,6,0.000000,0.000000,0.168394,0,0,0,0,0,0,0
5,59999,68,50000,97,10000,40,9999,0.100000,0,0,0.000000,6,0.000000,0.000000,0.423952,0,0,0,0,0,0,0
5,59999,69,50000,25,40000,49,9999,0.065000,0,0,0.000000,6,7.000000,0.000000,10.245015,0,0,0,0,0,0,0
5,59999,70,50000,25,40000,49,9999,0.065000,0,0,0.000000,6,1.000000,0.000000,3.009712,0,0,0,0,0,0,0
5,59999,71,50000,97,10000,40,9999,0.100000,0,0,0.000000,6,0.000000,0.000000,1.293856,0,0,0,0,0,0,0
5,59999,72,50000,22,40000,40,9999,0.100000,0,0,0.000000,6,0.000000,0.000000,0.775023,0,0,0,0,0,0,0
5,59999,73,50000,97,10000,49,9999,0.100000,0,0,0.000000,6,6.000000,0.000000,6.436086,0,0,0,0,0,0,0
5,59999,74,50000,24,10000,49,9999,0.100000,0,0,0.000000,6,5.000000,0.000000,5.835934,0,0,0,0,0,0,0
5,59999,75,50000,25,10000,40,9999,0.100000,0,0,0.000000,6,0.000000,0.000000,0.694924,0,0,0,0,0,0,0
5,59999,76,50000,38,40000,49,9999,0.100000,0,0,0.000000,6,2.000000,0.000000,3.064516,0,0,0,0,0,0,0
5,59999,77,50000,97,10000,40,9999,0.100000,0,0,0.000000,6,0.000000,0.000000,0.228487,0,0,0,0,0,0,0
5,59999,78,50000,97,10000,40,9999,0.100000,0,0,0.000000,6,0.000000,0.000000,0.329912,0,0,0,0,0,0,0
5,59999,79,50000,38,40000,49,9999,0.100000,0,0,0.000000,6,8.000000,0.000000,17.469899,0,0,0,0,0,0,0
5,59999,80,50000,24,10000,49,9999,0.100000,0,0,0.000000,6,1.000000,0.000000,2.074915,0,0,0,0,0,0,0
5,59999,81,50000,97,10000,40,9999,0.100000,0,0,0.000000,6,0.000000,0.000000,0.932183,0,0,0,0,0,0,0
5,59999,82,50000,25,40000,40,9999,0.065000,0,0,0.000000,6,0.000000,0.000000,0.173056,0,0,0,0,0,0,0
5,59999,83,50000,25,10000,40,9999,0.100000,0,0,0.000000,6,0.000000,0.000000,0.929518,0,0,0,0,0,0,0
5,59999,84,50000,70,10000,40,9999,0.100000,0,0,0.000000,6,0.000000,0.000000,1.042084,0,0,0,0,0,0,0
5,59999,85,50000,70,10000,40,9999,0.100000,0,0,0.000000,6,0.000000,0.000000,0.098764,0,0,0,0,0,0,0
5,59999,86,50000,24,10000,40,9999,0.100000,0,0,0.000000,6,0.000000,0.000000,0.307823,0,0,0,0,0,0,0
5,59999,87,50000,5,0,40,9999,0.100000,0,0,0.000000,6,0.000000,0.000000,7.505649,0,0,0,0,0,0,0
5,59999,88,50000,70,10000,40,9999,0.100000,0,0,0.000000,6,0.000000,0.000000,1.111751,0,0,0,0,0,0,0
5,59999,89,50000,70,10000,40,9999,0.100000,0,0,0.000000,6,0.000000,0.000000,1.165294,0,0,0,0,0,0,0
5,59999,90,50000,70,10000,40,9999,0.100000,0,0,0.000000,6,0.000000,0.000000,1.537223,0,0,0,0,0,0,0
5,59999,91,50000,5,0,49,9999,0.100000,0,0,0.000000,6,1.000000,0.000000,3.488367,0,0,0,0,0,0,0
5,59999,92,50000,97,10000,40,9999,0.100000,0,0,0.000000,6,0.000000,0.000000,0.259557,0,0,0,0,0,0,0
5,59999,93,50000,25,10000,40,9999,0.100000,0,0,0.000000,6,0.000000,0.000000,0.093412,0,0,0,0,0,0,0
5,59999,94,50000,24,10000,49,9999,0.100000,0,0,0.000000,6,2.000000,0.000000,2.791550,0,0,0,0,0,0,0
5,59999,95,50000,5,0,40,9999,0.100000,0,0,0.000000,6,0.000000,0.000000,0.198003,0,0,0,0,0,0,0
5,59999,96,50000,70,10000,40,9999,0.100000,0,0,0.000000,6,0.000000,0.000000,1.045410,0,0,0,0,0,0,0
5,59999,97,50000,70,10000,40,9999,0.100000,0,0,0.000000,6,0.000000,0.000000,0.997072,0,0,0,0,0,0,0
5,59999,98,50000,24,10000,49,9999,0.100000,0,0,0.000000,6,1.000000,0.000000,1.512772,0,0,0,0,0,0,0
5,59999,99,50000,24,10000,49,9999,0.100000,0,0,0.000000,6,1.000000,0.000000,8.462448,0,0,0,0,0,0,0
6,69999,0,60000,51,50000,40,9999,0.100000,0,0,0.000000,6,0.000000,0.000000,0.258897,0,0,0,0,0,0,0
6,69999,1,60000,5,0,40,9999,0.100000,0,0,0.000000,6,0.000000,0.000000,0.741847,0,0,0,0,0,0,0
6,69999,2,60000,97,10000,40,9999,0.100000,0,0,0.000000,6,0.000000,0.000000,0.991462,0,0,0,0,0,0,0
6,69999,3,60000,97,10000,40,9999,0.100000,0,0,0.000000,6,0.000000,0.000000,0.565603,0,0,0,0,0,0,0
6,69999,4,60000,24,10000,49,9999,0.100000,0,0,0.000000,6,1.000000,0.000000,1.485236,0,0,0,0,0,0,0
6,69999,5,60000,5,0,40,9999,0.100000,0,0,0.000000,6,0.000000,0.000000,0.117513,0,0,0,0,0,0,0
6,69999,6,60000,5,0,40,9999,0.100000,0,0,0.000000,6,0.000000,0.000000,0.508640,0,0,0,0,0,0,0
6,69999,7,60000,70,10000,40,9999,0.100000,0,0,0.000000,6,0.000000,0.000000,1.583309,0,0,0,0,0,0,0
6,69999,8,60000,24,10000,40,9999,0.100000,0,0,0.000000,6,0.000000,0.000000,2.076311,0,0,0,0,0,0,0
6,69999,9,60000,25,40000,40,9999,0.065000,0,0,0.000000,6,0.000000,0.000000,0.143269,0,0,0,0,0,0,0
6,69999,10,60000,24,10000,40,9999,0.100000,0,0,0.000000,6,0.000000,0.000000,0.099630,0,0,0,0,0,0,0
6,69999,11,60000,70,10000,40,9999,0.100000,0,0,0.000000,6,0.000000,0.000000,0.177380,0,0,0,0,0,0,0
6,69999,12,60000,25,40000,40,9999,0.065000,0,0,0.000000,6,0.000000,0.000000,0.192132,0,0,0,0,0,0,0
6,69999,13,60000,70,10000,40,9999,0.100000,0,0,0.000000,6,0.000000,0.000000,2.817031,0,0,0,0,0,0,0
6,69999,14,60000,24,10000,40,9999,0.100000,0,0,0.000000,6,0.000000,0.000000,0.506901,0,0,0,0,0,0,0
6,69999,15,60000,24,10000,40,9999,0.100000,0,0,0.000000,6,0.000000,0.000000,23.899940,0,0,0,0,0,0,0
6,69999,16,60000,97,10000,40,9999,0.100000,0,0,0.000000,6,0.000000,0.000000,1.989484,0,0,0,0,0,0,0
6,69999,17,60000,97,10000,40,9999,0.100000,0,0,0.000000,6,0.000000,0.000000,0.904445,0,0,0,0,0,0,0
6,69999,18,60000,22,40000,40,9999,0.100000,0,0,0.000000,6,0.000000,0.000000,0.507957,0,0,0,0,0,0,0
6,69999,19,60000,25,40000,40,9999,0.065000,0,0,0.000000,6,0.000000,0.000000,0.848988,0,0,0,0,0,0,0
6,69999,20,60000,22,40000,40,9999,0.100000,0,0,0.000000,6,0.000000,0.000000,0.194172,0,0,0,0,0,0,0
6,69999,21,60000,22,40000,40,9999,0.100000,0,0,0.000000,6,0.000000,0.000000,1.764674,0,0,0,0,0,0,0
6,69999,22,60000,25,40000,49,9999,0.065000,0,0,0.000000,6,1.000000,0.000000,1.334090,0,0,0,0,0,0,0
6,69999,23,60000,24,10000,40,9999,0.100000,0,0,0.000000,6,0.000000,0.000000,0.458170,0,0,0,0,0,0,0
6,69999,24,60000,24,10000,40,9999,0.100000,0,0,0.000000,6,0.000000,0.000000,1.115328,0,0,0,0,0,0,0
6,69999,25,60000,51,50000,40,9999,0.100000,0,0,0.000000,6,0.000000,0.000000,0.917113,0,0,0,0,0,0,0
6,69999,26,60000,51,50000,40,9999,0.100000,0,0,0.000000,6,0.000000,0.000000,0.529682,0,0,0,0,0,0,0
6,69999,27,60000,5,0,49,9999,0.100000,0,0,0.000000,6,3.000000,0.000000,25.127994,0,0,0,0,0,0,0
6,69999,28,60000,70,10000,40,9999,0.100000,0,0,0.000000,6,0.000000,0.000000,0.342255,0,0,0,0,0,0,0
6,69999,29,60000,51,50000,40,9999,0.100000,0,0,0.000000,6,0.000000,0.000000,1.244022,0,0,0,0,0,0,0
6,69999,30,60000,5,0,9,9999,0.100000,0,0,34.210526,6,6.000000,0.000000,7.324749,0,0,0,1,0,0,0
6,69999,31,60000,24,10000,49,9999,0.100000,0,0,0.000000,6,3.000000,0.000000,6.762036,0,0,0,0,0,0,0
6,69999,32,60000,51,50000,49,9999,0.100000,0,0,0.000000,6,1.000000,0.000000,3.480918,0,0,0,0,0,0,0
6,69999,33,60000,24,10000,49,9999,0.100000,0,0,0.000000,6,1.000000,0.000000,1.826856,0,0,0,0,0,0,0
6,69999,34,60000,70,10000,40,9999,0.100000,0,0,0.000000,6,0.000000,0.000000,2.616440,0,0,0,0,0,0,0
6,69999,35,60000,5,0,40,9999,0.100000,0,0,0.000000,6,0.000000,0.000000,1.466444,0,0,0,0,0,0,0
6,69999,36,60000,5,0,40,9999,0.100000,0,0,0.000000,6,0.000000,0.000000,0.082875,0,0,0,0,0,0,0
6,69999,37,60000,70,10000,40,9999,0.100000,0,0,0.000000,6,0.000000,0.000000,0.140208,0,0,0,0,0,0,0
6,69999,38,60000,5,0,40,9999,0.100000,0,0,0.000000,6,0.000000,0.000000,1.126266,0,0,0,0,0,0,0
6,69999,39,60000,70,10000,40,9999,0.100000,0,0,0.000000,6,0.000000,0.000000,1.445086,0,0,0,0,0,0,0
6,69999,40,60000,25,40000,40,9999,0.065000,0,0,0.000000,6,0.000000,0.000000,1.627420,0,0,0,0,0,0,0
6,69999,41,60000,5,0,40,9999,0.100000,0,0,0.000000,6,0.000000,0.000000,0.167872,0,0,0,0,0,0,0
6,69999,42,60000,97,10000,40,9999,0.100000,0,0,0.000000,6,0.000000,0.000000,0.235700,0,0,0,0,0,0,0
6,69999,43,60000,51,50000,40,9999,0.100000,0,0,0.000000,6,0.000000,0.000000,0.107138,0,0,0,0,0,0,0
6,69999,44,60000,24,10000,49,9999,0.100000,0,0,0.000000,6,2.000000,0.000000,4.667292,0,0,0,0,0,0,0
6,69999,45,60000,25,40000,40,9999,0.065000,0,0,0.000000,6,0.000000,0.000000,1.504911,0,0,0,0,0,0,0
6,69999,46,60000,24,10000,49,9999,0.100000,0,0,0.000000,6,5.000000,0.000000,12.077879,0,0,0,0,0,0,0
6,69999,47,60000,5,0,40,9999,0.100000,0,0,0.000000,6,0.000000,0.000000,0.077263,0,0,0,0,0,0,0
6,69999,48,50000,5,0,40,19999,0.100000,0,0,0.000000,6,0.000000,0.000000,0.165004,0,0,0,0,0,0,0
6,69999,49,60000,24,10000,40,9999,0.100000,0,0,0.000000,6,0.000000,0.000000,4.397270,0,0,0,0,0,0,0
6,69999,50,60000,25,40000,40,9999,0.065000,0,0,0.000000,6,0.000000,0.000000,0.504034,0,0,0,0,0,0,0
6,69999,51,60000,97,50000,40,9999,0.100000,0,0,0.000000,6,0.000000,0.000000,1.239823,0,0,0,0,0,0,0
6,69999,52,60000,97,10000,40,9999,0.100000,0,0,0.000000,6,0.000000,0.000000,2.006211,0,0,0,0,0,0,0
6,69999,53,60000,25,40000,40,9999,0.065000,0,0,0.000000,6,0.000000,0.000000,0.814264,0,0,0,0,0,0,0
6,69999,54,60000,24,10000,49,9999,0.100000,0,0,0.000000,6,19.000000,0.000000,20.632178,0,0,0,0,0,0,0
6,69999,55,60000,25,40000,40,9999,0.065000,0,0,0.000000,6,0.000000,0.000000,0.177247,0,0,0,0,0,0,0
6,69999,56,60000,97,50000,40,9999,0.100000,0,0,0.000000,6,0.000000,0.000000,4.335521,0,0,0,0,0,0,0
6,69999,57,60000,70,10000,40,9999,0.100000,0,0,0.000000,6,0.000000,0.000000,0.787872,0,0,0,0,0,0,0
6,69999,58,60000,25,40000,49,9999,0.065000,0,0,0.000000,6,4.000000,0.000000,13.812451,0,0,0,0,0,0,0
6,69999,59,60000,70,10000,40,9999,0.100000,0,0,0.000000,6,0.000000,0.000000,0.433117,0,0,0,0,0,0,0
6,69999,60,60000,24,10000,40,9999,0.100000,0,0,0.000000,6,0.000000,0.000000,0.245331,0,0,0,0,0,0,0
6,69999,61,60000,25,40000,49,9999,0.065000,0,0,0.000000,6,1.000000,0.000000,14.218084,0,0,0,0,0,0,0
6,69999,62,60000,70,10000,40,9999,0.100000,0,0,0.000000,6,0.000000,0.000000,0.594685,0,0,0,0,0,0,0
6,69999,63,60000,5,0,40,9999,0.100000,0,0,0.000000,6,0.000000,0.000000,0.837167,0,0,0,0,0,0,0
6,69999,64,60000,70,10000,40,9999,0.100000,0,0,0.000000,6,0.000000,0.000000,0.141358,0,0,0,0,0,0,0
6,69999,65,60000,97,50000,49,9999,0.100000,0,0,0.000000,6,3.000000,0.000000,7.415094,0,0,0,0,0,0,0
6,69999,66,60000,51,50000,40,9999,0.100000,0,0,0.000000,6,0.000000,0.000000,1.187163,0,0,0,0,0,0,0
6,69999,67,60000,51,50000,40,9999,0.100000,0,0,0.000000,6,0.000000,0.000000,0.147881,0,0,0,0,0,0,0
6,69999,68,60000,5,0,49,9999,0.100000,0,0,0.000000,6,7.000000,0.000000,15.566499,0,0,0,0,0,0,0
6,69999,69,60000,25,40000,40,9999,0.065000,0,0,0.000000,6,0.000000,0.000000,0.213882,0,0,0,0,0,0,0
6,69999,70,60000,24,10000,40,9999,0.100000,0,0,0.000000,6,0.000000,0.000000,1.038337,0,0,0,0,0,0,0
6,69999,71,60000,97,50000,40,9999,0.100000,0,0,0.000000,6,0.000000,0.000000,1.434057,0,0,0,0,0,0,0
6,69999,72,60000,25,40000,40,9999,0.065000,0,0,0.000000,6,0.000000,0.000000,0.654779,0,0,0,0,0,0,0
6,69999,73,60000,5,0,40,9999,0.100000,0,0,0.000000,6,0.000000,0.000000,1.074818,0,0,0,0,0,0,0
6,69999,74,60000,97,50000,40,9999,0.100000,0,0,0.000000,6,0.000000,0.000000,0.087458,0,0,0,0,0,0,0
6,69999,75,60000,70,10000,40,9999,0.100000,0,0,0.000000,6,0.000000,0.000000,0.374321,0,0,0,0,0,0,0
6,69999,76,60000,22,40000,49,9999,0.100000,0,0,0.000000,6,1.000000,0.000000,1.928343,0,0,0,0,0,0,0
6,69999,77,60000,24,10000,40,9999,0.100000,0,0,0.000000,6,0.000000,0.000000,0.270608,0,0,0,0,0,0,0
6,69999,78,60000,5,0,40,9999,0.100000,0,0,0.000000,6,0.000000,0.000000,0.414294,0,0,0,0,0,0,0
6,69999,79,60000,24,10000,9,9999,0.100000,0,0,34.210526,6,6.000000,0.000000,6.958163,0,0,0,1,0,0,0
6,69999,80,60000,51,50000,49,9999,0.100000,0,0,0.000000,6,1.000000,0.000000,1.361361,0,0,0,0,0,0,0
6,69999,81,60000,25,40000,40,9999,0.065000,0,0,0.000000,6,0.000000,0.000000,0.726692,0,0,0,0,0,0,0
6,69999,82,60000,22,40000,40,9999,0.100000,0,0,0.000000,6,0.000000,0.000000,0.154806,0,0,0,0,0,0,0
6,69999,83,50000,25,10000,40,19999,0.100000,0,0,0.000000,6,0.000000,0.000000,0.132275,0,0,0,0,0,0,0
6,69999,84,60000,70,10000,40,9999,0.100000,0,0,0.000000,6,0.000000,0.000000,0.802011,0,0,0,0,0,0,0
6,69999,85,60000,51,50000,40,9999,0.100000,0,0,0.000000,6,0.000000,0.000000,0.096325,0,0,0,0,0,0,0
6,69999,86,60000,70,10000,40,9999,0.100000,0,0,0.000000,6,0.000000,0.000000,0.614284,0,0,0,0,0,0,0
6,69999,87,60000,25,40000,40,9999,0.065000,0,0,0.000000,6,0.000000,0.000000,2.400471,0,0,0,0,0,0,0
6,69999,88,60000,97,50000,40,9999,0.100000,0,0,0.000000,6,0.000000,0.000000,0.723102,0,0,0,0,0,0,0
6,69999,89,60000,24,10000,40,9999,0.100000,0,0,0.000000,6,0.000000,0.000000,1.233389,0,0,0,0,0,0,0
6,69999,90,60000,22,40000,40,9999,0.100000,0,0,0.000000,6,0.000000,0.000000,0.643722,0,0,0,0,0,0,0
6,69999,91,60000,70,10000,40,9999,0.100000,0,0,0.000000,6,0.000000,0.000000,0.143654,0,0,0,0,0,0,0
6,69999,92,60000,70,10000,40,9999,0.100000,0,0,0.000000,6,0.000000,0.000000,0.274656,0,0,0,0,0,0,0
6,69999,93,60000,24,10000,40,9999,0.100000,0,0,0.000000,6,0.000000,0.000000,0.122494,0,0,0,0,0,0,0
6,69999,94,50000,24,10000,40,19999,0.100000,0,0,0.000000,6,0.000000,0.000000,1.416498,0,0,0,0,0,0,0
6,69999,95,60000,97,50000,40,9999,0.100000,0,0,0.000000,6,0.000000,0.000000,0.203462,0,0,0,0,0,0,0
6,69999,96,60000,24,10000,40,9999,0.100000,0,0,0.000000,6,0.000000,0.000000,1.063987,0,0,0,0,0,0,0
6,69999,97,60000,70,10000,40,9999,0.100000,0,0,0.000000,6,0.000000,0.000000,0.582312,0,0,0,0,0,0,0
6,69999,98,60000,70,10000,40,9999,0.100000,0,0,0.000000,6,0.000000,0.000000,1.224073,0,0,0,0,0,0,0
6,69999,99,60000,25,40000,49,9999,0.065000,0,0,0.000000,6,3.000000,0.000000,10.696160,0,0,0,0,0,0,0
7,79999,0,70000,24,10000,40,9999,0.100000,0,0,0.000000,6,0.000000,0.000000,0.351344,0,0,0,0,0,0,0
7,79999,1,70000,97,50000,49,9999,0.100000,0,0,0.000000,6,1.000000,0.000000,3.469443,0,0,0,0,0,0,0
7,79999,2,70000,97,50000,40,9999,0.100000,0,0,0.000000,6,0.000000,0.000000,1.004270,0,0,0,0,0,0,0
7,79999,3,70000,70,10000,40,9999,0.100000,0,0,0.000000,6,0.000000,0.000000,0.552739,0,0,0,0,0,0,0
7,79999,4,70000,25,40000,40,9999,0.065000,0,0,0.000000,6,0.000000,0.000000,0.227417,0,0,0,0,0,0,0
7,79999,5,70000,25,40000,40,9999,0.065000,0,0,0.000000,6,0.000000,0.000000,0.650579,0,0,0,0,0,0,0
7,79999,6,70000,70,10000,40,9999,0.100000,0,0,0.000000,6,0.000000,0.000000,0.482222,0,0,0,0,0,0,0
7,79999,7,70000,5,0,40,9999,0.100000,0,0,0.000000,6,0.000000,0.000000,0.188404,0,0,0,0,0,0,0
7,79999,8,70000,24,10000,40,9999,0.100000,0,0,0.000000,6,0.000000,0.000000,0.094514,0,0,0,0,0,0,0
7,79999,9,70000,24,10000,40,9999,0.100000,0,0,0.000000,6,0.000000,0.000000,0.150496,0,0,0,0,0,0,0
7,79999,10,70000,24,10000,40,9999,0.100000,0,0,0.000000,6,0.000000,0.000000,0.101180,0,0,0,0,0,0,0
7,79999,11,70000,25,40000,40,9999,0.065000,0,0,0.000000,6,0.000000,0.000000,0.175548,0,0,0,0,0,0,0
7,79999,12,70000,97,50000,40,9999,0.100000,0,0,0.000000,6,0.000000,0.000000,0.150439,0,0,0,0,0,0,0
7,79999,13,70000,5,0,40,9999,0.100000,0,0,0.000000,6,0.000000,0.000000,1.859523,0,0,0,0,0,0,0
7,79999,14,70000,97,50000,40,9999,0.100000,0,0,0.000000,6,0.000000,0.000000,0.397207,0,0,0,0,0,0,0
7,79999,15,70000,51,60000,40,9999,0.100000,0,0,0.000000,6,0.000000,0.000000,23.879440,0,0,0,0,0,0,0
7,79999,16,70000,70,10000,40,9999,0.100000,0,0,0.000000,6,0.000000,0.000000,0.176186,0,0,0,0,0,0,0
7,79999,17,70000,97,50000,40,9999,0.100000,0,0,0.000000,6,0.000000,0.000000,0.888347,0,0,0,0,0,0,0
7,79999,18,70000,51,60000,40,9999,0.100000,0,0,0.000000,6,0.000000,0.000000,0.497676,0,0,0,0,0,0,0
7,79999,19,70000,5,0,40,9999,0.100000,0,0,0.000000,6,0.000000,0.000000,0.688175,0,0,0,0,0,0,0
7,79999,20,70000,97,50000,40,9999,0.100000,0,0,0.000000,6,0.000000,0.000000,0.108843,0,0,0,0,0,0,0
7,79999,21,70000,97,50000,40,9999,0.100000,0,0,0.000000,6,0.000000,0.000000,1.743168,0,0,0,0,0,0,0
7,79999,22,70000,25,40000,40,9999,0.065000,0,0,0.000000,6,0.000000,0.000000,0.237785,0,0,0,0,0,0,0
7,79999,23,70000,51,60000,40,9999,0.100000,0,0,0.000000,6,0.000000,0.000000,0.487971,0,0,0,0,0,0,0
7,79999,24,70000,70,10000,40,9999,0.100000,0,0,0.000000,6,0.000000,0.000000,0.871856,0,0,0,0,0,0,0
7,79999,25,70000,70,10000,40,9999,0.100000,0,0,0.000000,6,0.000000,0.000000,3.031468,0,0,0,0,0,0,0
7,79999,26,70000,51,60000,40,9999,0.100000,0,0,0.000000,6,0.000000,0.000000,0.354446,0,0,0,0,0,0,0
7,79999,27,70000,70,10000,49,9999,0.100000,0,0,0.000000,6,1.000000,0.000000,11.057044,0,0,0,0,0,0,0
7,79999,28,70000,24,10000,40,9999,0.100000,0,0,0.000000,6,0.000000,0.000000,0.182552,0,0,0,0,0,0,0
7,79999,29,70000,24,10000,40,9999,0.100000,0,0,0.000000,6,0.000000,0.000000,0.597253,0,0,0,0,0,0,0
7,79999,30,70000,25,40000,49,9999,0.065000,0,0,0.000000,6,4.000000,0.000000,16.520991,0,0,0,0,0,0,0
7,79999,31,70000,5,0,49,9999,0.100000,0,0,0.000000,6,4.000000,0.000000,6.956277,0,0,0,0,0,0,0
7,79999,32,70000,24,10000,40,9999,0.100000,0,0,0.000000,6,0.000000,0.000000,0.099628,0,0,0,0,0,0,0
7,79999,33,70000,25,40000,49,9999,0.065000,0,0,0.000000,6,1.000000,0.000000,1.966319,0,0,0,0,0,0,0
7,79999,34,70000,5,0,40,9999,0.100000,0,0,0.000000,6,0.000000,0.000000,0.134106,0,0,0,0,0,0,0
7,79999,35,70000,97,50000,40,9999,0.100000,0,0,0.000000,6,0.000000,0.000000,1.402215,0,0,0,0,0,0,0
7,79999,36,70000,25,40000,40,9999,0.065000,0,0,0.000000,6,0.000000,0.000000,0.285735,0,0,0,0,0,0,0
7,79999,37,70000,97,50000,40,9999,0.100000,0,0,0.000000,6,0.000000,0.000000,0.151270,0,0,0,0,0,0,0
7,79999,38,70000,24,10000,49,9999,0.100000,0,0,0.000000,6,1.000000,0.000000,2.278682,0,0,0,0,0,0,0
7,79999,39,70000,70,10000,40,9999,0.100000,0,0,0.000000,6,0.000000,0.000000,0.441397,0,0,0,0,0,0,0
7,79999,40,70000,24,10000,40,9999,0.100000,0,0,0.000000,6,0.000000,0.000000,0.934722,0,0,0,0,0,0,0
7,79999,41,70000,24,10000,40,9999,0.100000,0,0,0.000000,6,0.000000,0.000000,0.173264,0,0,0,0,0,0,0
7,79999,42,70000,70,10000,40,9999,0.100000,0,0,0.000000,6,0.000000,0.000000,0.227854,0,0,0,0,0,0,0
7,79999,43,70000,5,0,40,9999,0.100000,0,0,0.000000,6,0.000000,0.000000,0.108559,0,0,0,0,0,0,0
7,79999,44,70000,24,10000,40,9999,0.100000,0,0,0.000000,6,0.000000,0.000000,0.140302,0,0,0,0,0,0,0
7,79999,45,70000,5,0,40,9999,0.100000,0,0,0.000000,6,0.000000,0.000000,0.959618,0,0,0,0,0,0,0
7,79999,46,70000,51,60000,49,9999,0.100000,0,0,0.000000,6,2.000000,0.000000,4.110086,0,0,0,0,0,0,0
7,79999,47,70000,24,10000,40,9999,0.100000,0,0,0.000000,6,0.000000,0.000000,0.077041,0,0,0,0,0,0,0
7,79999,48,70000,25,40000,40,9999,0.065000,0,0,0.000000,6,0.000000,0.000000,0.117060,0,0,0,0,0,0,0
7,79999,49,70000,97,50000,40,9999,0.100000,0,0,0.000000,6,0.000000,0.000000,1.074719,0,0,0,0,0,0,0
7,79999,50,70000,25,40000,40,9999,0.065000,0,0,0.000000,6,0.000000,0.000000,0.488725,0,0,0,0,0,0,0
7,79999,51,70000,97,50000,40,9999,0.100000,0,0,0.000000,6,0.000000,0.000000,1.517085,0,0,0,0,0,0,0
7,79999,52,70000,51,60000,40,9999,0.100000,0,0,0.000000,6,0.000000,0.000000,0.369479,0,0,0,0,0,0,0
7,79999,53,70000,97,50000,40,9999,0.100000,0,0,0.000000,6,0.000000,0.000000,0.778870,0,0,0,0,0,0,0
7,79999,54,70000,5,0,49,9999,0.100000,0,0,0.000000,6,2.000000,0.000000,6.227508,0,0,0,0,0,0,0
7,79999,55,70000,97,50000,40,9999,0.100000,0,0,0.000000,6,0.000000,0.000000,0.195552,0,0,0,0,0,0,0
7,79999,56,70000,25,40000,49,9999,0.065000,0,0,0.000000,6,3.000000,0.000000,11.768305,0,0,0,0,0,0,0
7,79999,57,70000,5,0,40,9999,0.100000,0,0,0.000000,6,0.000000,0.000000,0.839465,0,0,0,0,0,0,0
7,79999,58,70000,24,10000,49,9999,0.100000,0,0,0.000000,6,1.000000,0.000000,7.161125,0,0,0,0,0,0,0
7,79999,59,70000,24,10000,40,9999,0.100000,0,0,0.000000,6,0.000000,0.000000,0.234671,0,0,0,0,0,0,0
7,79999,60,70000,5,0,40,9999,0.100000,0,0,0.000000,6,0.000000,0.000000,0.239894,0,0,0,0,0,0,0
7,79999,61,70000,24,10000,40,9999,0.100000,0,0,0.000000,6,0.000000,0.000000,7.162983,0,0,0,0,0,0,0
7,79999,62,70000,97,50000,49,9999,0.100000,0,0,0.000000,6,3.000000,0.000000,12.615453,0,0,0,0,0,0,0
7,79999,63,70000,97,50000,40,9999,0.100000,0,0,0.000000,6,0.000000,0.000000,0.597032,0,0,0,0,0,0,0
7,79999,64,70000,5,0,40,9999,0.100000,0,0,0.000000,6,0.000000,0.000000,0.142891,0,0,0,0,0,0,0
7,79999,65,70000,5,0,49,9999,0.100000,0,0,0.000000,6,3.000000,0.000000,25.692352,0,0,0,0,0,0,0
7,79999,66,70000,25,40000,40,9999,0.065000,0,0,0.000000,6,0.000000,0.000000,1.158255,0,0,0,0,0,0,0
7,79999,67,70000,24,10000,40,9999,0.100000,0,0,0.000000,6,0.000000,0.000000,0.147141,0,0,0,0,0,0,0
7,79999,68,70000,97,50000,40,9999,0.100000,0,0,0.000000,6,0.000000,0.000000,0.301345,0,0,0,0,0,0,0
7,79999,69,70000,24,10000,40,9999,0.100000,0,0,0.000000,6,0.000000,0.000000,0.209527,0,0,0,0,0,0,0
7,79999,70,70000,24,10000,40,9999,0.100000,0,0,0.000000,6,0.000000,0.000000,0.940010,0,0,0,0,0,0,0
7,79999,71,70000,70,10000,40,9999,0.100000,0,0,0.000000,6,0.000000,0.000000,1.567438,0,0,0,0,0,0,0
7,79999,72,70000,5,0,40,9999,0.100000,0,0,0.000000,6,0.000000,0.000000,0.752285,0,0,0,0,0,0,0
7,79999,73,70000,25,40000,40,9999,0.065000,0,0,0.000000,6,0.000000,0.000000,0.648794,0,0,0,0,0,0,0
7,79999,74,70000,97,50000,40,9999,0.100000,0,0,0.000000,6,0.000000,0.000000,0.268554,0,0,0,0,0,0,0
7,79999,75,70000,70,10000,40,9999,0.100000,0,0,0.000000,6,0.000000,0.000000,0.547001,0,0,0,0,0,0,0
7,79999,76,70000,97,50000,49,9999,0.100000,0,0,0.000000,6,1.000000,0.000000,3.521548,0,0,0,0,0,0,0
7,79999,77,70000,51,60000,40,9999,0.100000,0,0,0.000000,6,0.000000,0.000000,0.243892,0,0,0,0,0,0,0
7,79999,78,70000,97,50000,40,9999,0.100000,0,0,0.000000,6,0.000000,0.000000,0.290884,0,0,0,0,0,0,0
7,79999,79,70000,25,40000,49,9999,0.065000,0,0,0.000000,6,4.000000,0.000000,12.725705,0,0,0,0,0,0,0
7,79999,80,70000,97,50000,40,9999,0.100000,0,0,0.000000,6,0.000000,0.000000,0.174913,0,0,0,0,0,0,0
7,79999,81,70000,70,10000,40,9999,0.100000,0,0,0.000000,6,0.000000,0.000000,0.604029,0,0,0,0,0,0,0
7,79999,82,70000,5,0,40,9999,0.100000,0,0,0.000000,6,0.000000,0.000000,0.187129,0,0,0,0,0,0,0
7,79999,83,70000,51,60000,40,9999,0.100000,0,0,0.000000,6,0.000000,0.000000,0.115706,0,0,0,0,0,0,0
7,79999,84,70000,24,10000,40,9999,0.100000,0,0,0.000000,6,0.000000,0.000000,0.613560,0,0,0,0,0,0,0
7,79999,85,70000,5,0,40,9999,0.100000,0,0,0.000000,6,0.000000,0.000000,0.095781,0,0,0,0,0,0,0
7,79999,86,70000,51,60000,40,9999,0.100000,0,0,0.000000,6,0.000000,0.000000,0.602834,0,0,0,0,0,0,0
7,79999,87,70000,24,10000,40,9999,0.100000,0,0,0.000000,6,0.000000,0.000000,3.655447,0,0,0,0,0,0,0
7,79999,88,70000,5,0,40,9999,0.100000,0,0,0.000000,6,0.000000,0.000000,2.071906,0,0,0,0,0,0,0
7,79999,89,70000,24,10000,40,9999,0.100000,0,0,0.000000,6,0.000000,0.000000,1.195073,0,0,0,0,0,0,0
7,79999,90,70000,51,60000,40,9999,0.100000,0,0,0.000000,6,0.000000,0.000000,0.206432,0,0,0,0,0,0,0
7,79999,91,70000,70,10000,40,9999,0.100000,0,0,0.000000,6,0.000000,0.000000,0.143879,0,0,0,0,0,0,0
7,79999,92,70000,25,40000,49,9999,0.065000,0,0,0.000000,6,6.000000,0.000000,12.705363,0,0,0,0,0,0,0
7,79999,93,70000,70,10000,40,9999,0.100000,0,0,0.000000,6,0.000000,0.000000,0.098978,0,0,0,0,0,0,0
7,79999,94,50000,24,10000,40,29999,0.100000,0,0,0.000000,6,0.000000,0.000000,0.371185,0,0,0,0,0,0,0
7,79999,95,70000,24,10000,40,9999,0.100000,0,0,0.000000,6,0.000000,0.000000,0.206615,0,0,0,0,0,0,0
7,79999,96,70000,25,40000,40,9999,0.065000,0,0,0.000000,6,0.000000,0.000000,1.038759,0,0,0,0,0,0,0
7,79999,97,70000,51,60000,40,9999,0.100000,0,0,0.000000,6,0.000000,0.000000,1.498253,0,0,0,0,0,0,0
7,79999,98,70000,97,50000,40,9999,0.100000,0,0,0.000000,6,0.000000,0.000000,0.096511,0,0,0,0,0,0,0
7,79999,99,70000,25,40000,49,9999,0.065000,0,0,0.000000,6,2.000000,0.000000,17.469571,0,0,0,0,0,0,0
8,89999,0,80000,5,0,40,9999,0.100000,0,0,0.000000,6,0.000000,0.000000,1.463445,0,0,0,0,0,0,0
8,89999,1,80000,97,50000,40,9999,0.100000,0,0,0.000000,6,0.000000,0.000000,0.368703,0,0,0,0,0,0,0
8,89999,2,80000,25,40000,40,9999,0.065000,0,0,0.000000,6,0.000000,0.000000,1.023288,0,0,0,0,0,0,0
8,89999,3,80000,51,60000,49,9999,0.100000,0,0,0.000000,6,16.000000,0.000000,16.924333,0,0,0,0,0,0,0
8,89999,4,80000,25,40000,40,9999,0.065000,0,0,0.000000,6,0.000000,0.000000,1.171892,0,0,0,0,0,0,0
8,89999,5,80000,5,0,40,9999,0.100000,0,0,0.000000,6,0.000000,0.000000,0.296077,0,0,0,0,0,0,0
8,89999,6,80000,25,40000,40,9999,0.065000,0,0,0.000000,6,0.000000,0.000000,0.476842,0,0,0,0,0,0,0
8,89999,7,80000,70,10000,40,9999,0.100000,0,0,0.000000,6,0.000000,0.000000,0.300604,0,0,0,0,0,0,0
8,89999,8,80000,97,50000,40,9999,0.100000,0,0,0.000000,6,0.000000,0.000000,0.115768,0,0,0,0,0,0,0
8,89999,9,80000,24,10000,40,9999,0.100000,0,0,0.000000,6,0.000000,0.000000,0.159874,0,0,0,0,0,0,0
8,89999,10,80000,5,0,40,9999,0.100000,0,0,0.000000,6,0.000000,0.000000,0.102785,0,0,0,0,0,0,0
8,89999,11,80000,97,50000,40,9999,0.100000,0,0,0.000000,6,0.000000,0.000000,0.180316,0,0,0,0,0,0,0
8,89999,12,80000,70,10000,40,9999,0.100000,0,0,0.000000,6,0.000000,0.000000,0.155850,0,0,0,0,0,0,0
8,89999,13,80000,25,40000,40,9999,0.065000,0,0,0.000000,6,0.000000,0.000000,2.963963,0,0,0,0,0,0,0
8,89999,14,80000,5,0,40,9999,0.100000,0,0,0.000000,6,0.000000,0.000000,0.148667,0,0,0,0,0,0,0
8,89999,15,80000,5,0,40,9999,0.100000,0,0,0.000000,6,0.000000,0.000000,15.915117,0,0,0,0,0,0,0
8,89999,16,80000,24,10000,40,9999,0.100000,0,0,0.000000,6,0.000000,0.000000,0.159614,0,0,0,0,0,0,0
8,89999,17,80000,5,0,40,9999,0.100000,0,0,0.000000,6,0.000000,0.000000,0.920254,0,0,0,0,0,0,0
8,89999,18,80000,97,50000,40,9999,0.100000,0,0,0.000000,6,0.000000,0.000000,6.810972,0,0,0,0,0,0,0
8,89999,19,80000,24,10000,40,9999,0.100000,0,0,0.000000,6,0.000000,0.000000,0.468496,0,0,0,0,0,0,0
8,89999,20,80000,51,60000,40,9999,0.100000,0,0,0.000000,6,0.000000,0.000000,0.105279,0,0,0,0,0,0,0
8,89999,21,80000,5,0,40,9999,0.100000,0,0,0.000000,6,0.000000,0.000000,1.767290,0,0,0,0,0,0,0
8,89999,22,80000,25,40000,40,9999,0.065000,0,0,0.000000,6,0.000000,0.000000,0.829021,0,0,0,0,0,0,0
8,89999,23,80000,70,10000,49,9999,0.100000,0,0,0.000000,6,1.000000,0.000000,3.520035,0,0,0,0,0,0,0
8,89999,24,80000,5,0,40,9999,0.100000,0,0,0.000000,6,0.000000,0.000000,0.707474,0,0,0,0,0,0,0
8,89999,25,80000,25,40000,49,9999,0.065000,0,0,0.000000,6,2.000000,0.000000,5.102223,0,0,0,0,0,0,0
8,89999,26,80000,70,10000,40,9999,0.100000,0,0,0.000000,6,0.000000,0.000000,0.343462,0,0,0,0,0,0,0
8,89999,27,80000,70,10000,49,9999,0.100000,0,0,0.000000,6,1.000000,0.000000,15.154334,0,0,0,0,0,0,0
8,89999,28,80000,70,10000,40,9999,0.100000,0,0,0.000000,6,0.000000,0.000000,0.185249,0,0,0,0,0,0,0
8,89999,29,80000,25,40000,40,9999,0.065000,0,0,0.000000,6,0.000000,0.000000,0.981795,0,0,0,0,0,0,0
8,89999,30,80000,51,60000,49,9999,0.100000,0,0,0.000000,6,2.000000,0.000000,7.675854,0,0,0,0,0,0,0
8,89999,31,80000,5,0,49,9999,0.100000,0,0,0.000000,6,2.000000,0.000000,21.975462,0,0,0,0,0,0,0
8,89999,32,80000,70,10000,40,9999,0.100000,0,0,0.000000,6,0.000000,0.000000,0.103902,0,0,0,0,0,0,0
8,89999,33,80000,70,10000,49,9999,0.100000,0,0,0.000000,6,2.000000,0.000000,6.201116,0,0,0,0,0,0,0
8,89999,34,80000,51,60000,40,9999,0.100000,0,0,0.000000,6,0.000000,0.000000,0.161687,0,0,0,0,0,0,0
8,89999,35,80000,5,0,49,9999,0.100000,0,0,0.000000,6,1.000000,0.000000,11.080286,0,0,0,0,0,0,0
8,89999,36,80000,5,0,40,9999,0.100000,0,0,0.000000,6,0.000000,0.000000,0.161498,0,0,0,0,0,0,0
8,89999,37,80000,70,10000,40,9999,0.100000,0,0,0.000000,6,0.000000,0.000000,0.143687,0,0,0,0,0,0,0
8,89999,38,80000,51,60000,40,9999,0.100000,0,0,0.000000,6,0.000000,0.000000,0.234202,0,0,0,0,0,0,0
8,89999,39,80000,24,10000,40,9999,0.100000,0,0,0.000000,6,0.000000,0.000000,0.974214,0,0,0,0,0,0,0
8,89999,40,80000,97,50000,40,9999,0.100000,0,0,0.000000,6,0.000000,0.000000,1.070113,0,0,0,0,0,0,0
8,89999,41,80000,25,40000,40,9999,0.065000,0,0,0.000000,6,0.000000,0.000000,0.414428,0,0,0,0,0,0,0
8,89999,42,80000,70,10000,40,9999,0.100000,0,0,0.000000,6,0.000000,0.000000,0.224393,0,0,0,0,0,0,0
8,89999,43,80000,5,0,40,9999,0.100000,0,0,0.000000,6,0.000000,0.000000,0.108603,0,0,0,0,0,0,0
8,89999,44,80000,25,40000,40,9999,0.065000,0,0,0.000000,6,0.000000,0.000000,0.138536,0,0,0,0,0,0,0
8,89999,45,80000,24,10000,40,9999,0.100000,0,0,0.000000,6,0.000000,0.000000,1.418994,0,0,0,0,0,0,0
8,89999,46,80000,5,0,40,9999,0.100000,0,0,0.000000,6,0.000000,0.000000,0.239537,0,0,0,0,0,0,0
8,89999,47,80000,5,0,40,9999,0.100000,0,0,0.000000,6,0.000000,0.000000,0.064746,0,0,0,0,0,0,0
8,89999,48,80000,25,40000,40,9999,0.065000,0,0,0.000000,6,0.000000,0.000000,0.115376,0,0,0,0,0,0,0
8,89999,49,80000,24,10000,40,9999,0.100000,0,0,0.000000,6,0.000000,0.000000,1.158821,0,0,0,0,0,0,0
8,89999,50,80000,25,40000,40,9999,0.065000,0,0,0.000000,6,0.000000,0.000000,0.476624,0,0,0,0,0,0,0
8,89999,51,80000,24,10000,49,9999,0.100000,0,0,0.000000,6,2.000000,0.000000,4.391183,0,0,0,0,0,0,0
8,89999,52,80000,97,50000,40,9999,0.100000,0,0,0.000000,6,0.000000,0.000000,0.380653,0,0,0,0,0,0,0
8,89999,53,80000,51,60000,40,9999,0.100000,0,0,0.000000,6,0.000000,0.000000,0.759493,0,0,0,0,0,0,0
8,89999,54,80000,24,10000,49,9999,0.100000,0,0,0.000000,6,1.000000,0.000000,1.686119,0,0,0,0,0,0,0
8,89999,55,80000,70,10000,40,9999,0.100000,0,0,0.000000,6,0.000000,0.000000,0.236284,0,0,0,0,0,0,0
8,89999,56,80000,5,0,40,9999,0.100000,0,0,0.000000,6,0.000000,0.000000,2.120035,0,0,0,0,0,0,0
8,89999,57,80000,25,40000,40,9999,0.065000,0,0,0.000000,6,0.000000,0.000000,0.603314,0,0,0,0,0,0,0
8,89999,58,80000,51,60000,49,9999,0.100000,0,0,0.000000,6,3.000000,0.000000,16.011154,0,0,0,0,0,0,0
8,89999,59,80000,24,10000,40,9999,0.100000,0,0,0.000000,6,0.000000,0.000000,0.265696,0,0,0,0,0,0,0
8,89999,60,80000,25,40000,40,9999,0.065000,0,0,0.000000,6,0.000000,0.000000,0.222234,0,0,0,0,0,0,0
8,89999,61,80000,24,10000,49,9999,0.100000,0,0,0.000000,6,1.000000,0.000000,12.071553,0,0,0,0,0,0,0
8,89999,62,80000,25,40000,40,9999,0.065000,0,0,0.000000,6,0.000000,0.000000,0.137587,0,0,0,0,0,0,0
8,89999,63,80000,70,10000,40,9999,0.100000,0,0,0.000000,6,0.000000,0.000000,0.318539,0,0,0,0,0,0,0
8,89999,64,80000,5,0,40,9999,0.100000,0,0,0.000000,6,0.000000,0.000000,0.434527,0,0,0,0,0,0,0
8,89999,65,80000,97,50000,49,9999,0.100000,0,0,0.000000,6,4.000000,0.000000,18.963242,0,0,0,0,0,0,0
8,89999,66,80000,25,40000,40,9999,0.065000,0,0,0.000000,6,0.000000,0.000000,0.793677,0,0,0,0,0,0,0
8,89999,67,80000,97,50000,40,9999,0.100000,0,0,0.000000,6,0.000000,0.000000,0.152293,0,0,0,0,0,0,0
8,89999,68,80000,51,60000,40,9999,0.100000,0,0,0.000000,6,0.000000,0.000000,0.458685,0,0,0,0,0,0,0
8,89999,69,80000,24,10000,40,9999,0.100000,0,0,0.000000,6,0.000000,0.000000,0.208900,0,0,0,0,0,0,0
8,89999,70,80000,25,40000,40,9999,0.065000,0,0,0.000000,6,0.000000,0.000000,0.763861,0,0,0,0,0,0,0
8,89999,71,80000,25,40000,40,9999,0.065000,0,0,0.000000,6,0.000000,0.000000,2.835790,0,0,0,0,0,0,0
8,89999,72,80000,97,50000,40,9999,0.100000,0,0,0.000000,6,0.000000,0.000000,0.657179,0,0,0,0,0,0,0
8,89999,73,80000,5,0,40,9999,0.100000,0,0,0.000000,6,0.000000,0.000000,1.004811,0,0,0,0,0,0,0
8,89999,74,80000,25,40000,40,9999,0.065000,0,0,0.000000,6,0.000000,0.000000,0.178706,0,0,0,0,0,0,0
8,89999,75,80000,25,40000,40,9999,0.065000,0,0,0.000000,6,0.000000,0.000000,0.466193,0,0,0,0,0,0,0
8,89999,76,80000,97,50000,49,9999,0.100000,0,0,0.000000,6,2.000000,0.000000,13.436403,0,0,0,0,0,0,0
8,89999,77,80000,5,0,40,9999,0.100000,0,0,0.000000,6,0.000000,0.000000,0.263598,0,0,0,0,0,0,0
8,89999,78,80000,25,40000,40,9999,0.065000,0,0,0.000000,6,0.000000,0.000000,0.352915,0,0,0,0,0,0,0
8,89999,79,80000,70,10000,49,9999,0.100000,0,0,0.000000,6,2.000000,0.000000,9.158532,0,0,0,0,0,0,0
8,89999,80,80000,25,40000,40,9999,0.065000,0,0,0.000000,6,0.000000,0.000000,0.148019,0,0,0,0,0,0,0
8,89999,81,80000,24,10000,40,9999,0.100000,0,0,0.000000,6,0.000000,0.000000,0.393981,0,0,0,0,0,0,0
8,89999,82,80000,70,10000,40,9999,0.100000,0,0,0.000000,6,0.000000,0.000000,0.144338,0,0,0,0,0,0,0
8,89999,83,80000,24,10000,40,9999,0.100000,0,0,0.000000,6,0.000000,0.000000,0.116416,0,0,0,0,0,0,0
8,89999,84,80000,97,50000,40,9999,0.100000,0,0,0.000000,6,0.000000,0.000000,0.383432,0,0,0,0,0,0,0
8,89999,85,80000,5,0,40,9999,0.100000,0,0,0.000000,6,0.000000,0.000000,0.096293,0,0,0,0,0,0,0
8,89999,86,80000,25,40000,40,9999,0.065000,0,0,0.000000,6,0.000000,0.000000,0.590647,0,0,0,0,0,0,0
8,89999,87,80000,97,50000,40,9999,0.100000,0,0,0.000000,6,0.000000,0.000000,4.531763,0,0,0,0,0,0,0
8,89999,88,80000,51,60000,49,9999,0.100000,0,0,0.000000,6,2.000000,0.000000,4.554813,0,0,0,0,0,0,0
8,89999,89,80000,51,60000,49,9999,0.100000,0,0,0.000000,6,6.000000,0.000000,18.032558,0,0,0,0,0,0,0
8,89999,90,80000,97,50000,40,9999,0.100000,0,0,0.000000,6,0.000000,0.000000,0.247841,0,0,0,0,0,0,0
8,89999,91,80000,51,60000,40,9999,0.100000,0,0,0.000000,6,0.000000,0.000000,0.143276,0,0,0,0,0,0,0
8,89999,92,80000,25,40000,40,9999,0.065000,0,0,0.000000,6,0.000000,0.000000,0.236143,0,0,0,0,0,0,0
8,89999,93,80000,51,60000,40,9999,0.100000,0,0,0.000000,6,0.000000,0.000000,0.093259,0,0,0,0,0,0,0
8,89999,94,80000,51,60000,40,9999,0.100000,0,0,0.000000,6,0.000000,0.000000,0.388734,0,0,0,0,0,0,0
8,89999,95,80000,24,10000,40,9999,0.100000,0,0,0.000000,6,0.000000,0.000000,0.351605,0,0,0,0,0,0,0
8,89999,96,80000,5,0,49,9999,0.100000,0,0,0.000000,6,6.000000,0.000000,17.900193,0,0,0,0,0,0,0
8,89999,97,80000,97,50000,99,9999,0.100000,0,0,34.210526,6,11.000000,0.000000,26.832740,0,0,1,0,0,0,0
8,89999,98,80000,97,50000,40,9999,0.100000,0,0,0.000000,6,0.000000,0.000000,0.277815,0,0,0,0,0,0,0
8,89999,99,80000,51,60000,49,9999,0.100000,0,0,0.000000,6,1.000000,0.000000,11.876213,0,0,0,0,0,0,0
9,99999,0,90000,5,0,40,9999,0.100000,0,0,0.000000,6,0.000000,0.000000,0.323801,0,0,0,0,0,0,0
9,99999,1,90000,51,60000,40,9999,0.100000,0,0,0.000000,6,0.000000,0.000000,0.354290,0,0,0,0,0,0,0
9,99999,2,90000,25,40000,40,9999,0.065000,0,0,0.000000,6,0.000000,0.000000,0.993965,0,0,0,0,0,0,0
9,99999,3,90000,24,10000,40,9999,0.100000,0,0,0.000000,6,0.000000,0.000000,0.203159,0,0,0,0,0,0,0
9,99999,4,90000,70,10000,40,9999,0.100000,0,0,0.000000,6,0.000000,0.000000,0.272123,0,0,0,0,0,0,0
9,99999,5,90000,97,50000,40,9999,0.100000,0,0,0.000000,6,0.000000,0.000000,0.116602,0,0,0,0,0,0,0
9,99999,6,90000,88,80000,40,9999,0.100000,0,0,0.000000,6,0.000000,0.000000,0.479498,0,0,0,0,0,0,0
9,99999,7,90000,70,10000,40,9999,0.100000,0,0,0.000000,6,0.000000,0.000000,0.294862,0,0,0,0,0,0,0
9,99999,8,90000,5,0,40,9999,0.100000,0,0,0.000000,6,0.000000,0.000000,0.126828,0,0,0,0,0,0,0
9,99999,9,90000,5,0,40,9999,0.100000,0,0,0.000000,6,0.000000,0.000000,0.158275,0,0,0,0,0,0,0
9,99999,10,90000,25,40000,40,9999,0.065000,0,0,0.000000,6,0.000000,0.000000,0.103596,0,0,0,0,0,0,0
9,99999,11,90000,25,40000,40,9999,0.065000,0,0,0.000000,6,0.000000,0.000000,0.180988,0,0,0,0,0,0,0
9,99999,12,90000,97,50000,40,9999,0.100000,0,0,0.000000,6,0.000000,0.000000,0.191940,0,0,0,0,0,0,0
9,99999,13,90000,70,10000,40,9999,0.100000,0,0,0.000000,6,0.000000,0.000000,1.293942,0,0,0,0,0,0,0
9,99999,14,90000,51,60000,40,9999,0.100000,0,0,0.000000,6,0.000000,0.000000,0.115480,0,0,0,0,0,0,0
9,99999,15,90000,51,60000,40,9999,0.100000,0,0,0.000000,6,0.000000,0.000000,0.229292,0,0,0,0,0,0,0
9,99999,16,90000,97,50000,40,9999,0.100000,0,0,0.000000,6,0.000000,0.000000,0.157325,0,0,0,0,0,0,0
9,99999,17,90000,24,10000,40,9999,0.100000,0,0,0.000000,6,0.000000,0.000000,0.932130,0,0,0,0,0,0,0
9,99999,18,90000,51,60000,49,9999,0.100000,0,0,0.000000,6,1.000000,0.000000,7.338111,0,0,0,0,0,0,0
9,99999,19,90000,97,50000,40,9999,0.100000,0,0,0.000000,6,0.000000,0.000000,0.470586,0,0,0,0,0,0,0
9,99999,20,90000,5,0,40,9999,0.100000,0,0,0.000000,6,0.000000,0.000000,0.103976,0,0,0,0,0,0,0
9,99999,21,90000,70,10000,40,9999,0.100000,0,0,0.000000,6,0.000000,0.000000,1.804643,0,0,0,0,0,0,0
9,99999,22,90000,24,10000,40,9999,0.100000,0,0,0.000000,6,0.000000,0.000000,0.175263,0,0,0,0,0,0,0
9,99999,23,90000,5,0,40,9999,0.100000,0,0,0.000000,6,0.000000,0.000000,0.440126,0,0,0,0,0,0,0
9,99999,24,90000,88,80000,40,9999,0.100000,0,0,0.000000,6,0.000000,0.000000,0.367705,0,0,0,0,0,0,0
9,99999,25,90000,97,50000,49,9999,0.100000,0,0,0.000000,6,1.000000,0.000000,2.041424,0,0,0,0,0,0,0
9,99999,26,90000,51,60000,40,9999,0.100000,0,0,0.000000,6,0.000000,0.000000,0.395476,0,0,0,0,0,0,0
9,99999,27,90000,5,0,49,9999,0.100000,0,0,0.000000,6,3.000000,0.000000,19.491275,0,0,0,0,0,0,0
9,99999,28,90000,5,0,40,9999,0.100000,0,0,0.000000,6,0.000000,0.000000,0.184020,0,0,0,0,0,0,0
9,99999,29,90000,70,10000,40,9999,0.100000,0,0,0.000000,6,0.000000,0.000000,1.916071,0,0,0,0,0,0,0
9,99999,30,90000,51,60000,49,9999,0.100000,0,0,0.000000,6,1.000000,0.000000,9.102737,0,0,0,0,0,0,0
9,99999,31,90000,70,10000,49,9999,0.100000,0,0,0.000000,6,3.000000,0.000000,14.036530,0,0,0,0,0,0,0
9,99999,32,90000,97,50000,40,9999,0.100000,0,0,0.000000,6,0.000000,0.000000,0.093422,0,0,0,0,0,0,0
9,99999,33,90000,5,0,40,9999,0.100000,0,0,0.000000,6,0.000000,0.000000,0.154335,0,0,0,0,0,0,0
9,99999,34,90000,70,10000,40,9999,0.100000,0,0,0.000000,6,0.000000,0.000000,0.131497,0,0,0,0,0,0,0
9,99999,35,90000,88,80000,49,9999,0.100000,0,0,0.000000,6,1.000000,0.000000,9.256685,0,0,0,0,0,0,0
9,99999,36,90000,97,50000,40,9999,0.100000,0,0,0.000000,6,0.000000,0.000000,0.133803,0,0,0,0,0,0,0
9,99999,37,90000,88,80000,40,9999,0.100000,0,0,0.000000,6,0.000000,0.000000,0.180278,0,0,0,0,0,0,0
9,99999,38,90000,51,60000,40,9999,0.100000,0,0,0.000000,6,0.000000,0.000000,0.122125,0,0,0,0,0,0,0
9,99999,39,90000,24,10000,40,9999,0.100000,0,0,0.000000,6,0.000000,0.000000,0.890404,0,0,0,0,0,0,0
9,99999,40,90000,51,60000,40,9999,0.100000,0,0,0.000000,6,0.000000,0.000000,0.949582,0,0,0,0,0,0,0
9,99999,41,90000,5,0,40,9999,0.100000,0,0,0.000000,6,0.000000,0.000000,0.351480,0,0,0,0,0,0,0
9,99999,42,90000,97,50000,40,9999,0.100000,0,0,0.000000,6,0.000000,0.000000,0.235140,0,0,0,0,0,0,0
9,99999,43,90000,24,10000,40,9999,0.100000,0,0,0.000000,6,0.000000,0.000000,0.107838,0,0,0,0,0,0,0
9,99999,44,90000,97,50000,40,9999,0.100000,0,0,0.000000,6,0.000000,0.000000,0.137425,0,0,0,0,0,0,0
9,99999,45,90000,97,50000,40,9999,0.100000,0,0,0.000000,6,0.000000,0.000000,0.912995,0,0,0,0,0,0,0
9,99999,46,90000,97,50000,40,9999,0.065000,0,0,0.000000,6,0.000000,0.000000,0.227921,0,0,0,0,0,0,0
9,99999,47,90000,70,10000,40,9999,0.100000,0,0,0.000000,6,0.000000,0.000000,0.064951,0,0,0,0,0,0,0
9,99999,48,90000,70,10000,40,9999,0.100000,0,0,0.000000,6,0.000000,0.000000,0.115029,0,0,0,0,0,0,0
9,99999,49,90000,51,60000,40,9999,0.100000,0,0,0.000000,6,0.000000,0.000000,0.689256,0,0,0,0,0,0,0
9,99999,50,90000,97,50000,40,9999,0.100000,0,0,0.000000,6,0.000000,0.000000,0.500027,0,0,0,0,0,0,0
9,99999,51,90000,5,0,40,9999,0.100000,0,0,0.000000,6,0.000000,0.000000,1.294814,0,0,0,0,0,0,0
9,99999,52,90000,24,10000,40,9999,0.100000,0,0,0.000000,6,0.000000,0.000000,0.357239,0,0,0,0,0,0,0
9,99999,53,90000,51,60000,40,9999,0.100000,0,0,0.000000,6,0.000000,0.000000,0.640143,0,0,0,0,0,0,0
9,99999,54,90000,5,0,0,9999,0.100000,0,0,0.000000,6,0.000000,0.000000,1.861365,0,0,0,0,1,0,0
9,99999,55,90000,51,60000,40,9999,0.100000,0,0,0.000000,6,0.000000,0.000000,0.251909,0,0,0,0,0,0,0
9,99999,56,90000,88,80000,49,9999,0.100000,0,0,0.000000,6,3.000000,0.000000,7.974494,0,0,0,0,0,0,0
9,99999,57,90000,25,40000,40,9999,0.065000,0,0,0.000000,6,0.000000,0.000000,0.592350,0,0,0,0,0,0,0
9,99999,58,90000,97,50000,49,9999,0.100000,0,0,0.000000,6,1.000000,0.000000,13.704242,0,0,0,0,0,0,0
9,99999,59,90000,88,80000,40,9999,0.100000,0,0,0.000000,6,0.000000,0.000000,0.296070,0,0,0,0,0,0,0
9,99999,60,90000,25,40000,40,9999,0.065000,0,0,0.000000,6,0.000000,0.000000,0.234301,0,0,0,0,0,0,0
9,99999,61,90000,97,50000,40,9999,0.100000,0,0,0.000000,6,0.000000,0.000000,1.254219,0,0,0,0,0,0,0
9,99999,62,90000,25,40000,40,9999,0.065000,0,0,0.000000,6,0.000000,0.000000,0.131988,0,0,0,0,0,0,0
9,99999,63,90000,5,0,40,9999,0.100000,0,0,0.000000,6,0.000000,0.000000,0.294905,0,0,0,0,0,0,0
9,99999,64,90000,24,10000,40,9999,0.100000,0,0,0.000000,6,0.000000,0.000000,0.143583,0,0,0,0,0,0,0
9,99999,65,90000,70,10000,49,9999,0.100000,0,0,0.000000,6,2.000000,0.000000,13.619984,0,0,0,0,0,0,0
9,99999,66,90000,24,10000,40,9999,0.100000,0,0,0.000000,6,0.000000,0.000000,0.658713,0,0,0,0,0,0,0
9,99999,67,90000,25,40000,40,9999,0.065000,0,0,0.000000,6,0.000000,0.000000,0.152300,0,0,0,0,0,0,0
9,99999,68,90000,70,10000,40,9999,0.100000,0,0,0.000000,6,0.000000,0.000000,0.361026,0,0,0,0,0,0,0
9,99999,69,90000,24,10000,40,9999,0.100000,0,0,0.000000,6,0.000000,0.000000,0.212136,0,0,0,0,0,0,0
9,99999,70,90000,24,10000,40,9999,0.100000,0,0,0.000000,6,0.000000,0.000000,1.681960,0,0,0,0,0,0,0
9,99999,71,90000,88,80000,40,9999,0.100000,0,0,0.000000,6,0.000000,0.000000,2.800910,0,0,0,0,0,0,0
9,99999,72,90000,70,10000,40,9999,0.100000,0,0,0.000000,6,0.000000,0.000000,0.522617,0,0,0,0,0,0,0
9,99999,73,90000,5,0,40,9999,0.100000,0,0,0.000000,6,0.000000,0.000000,1.466874,0,0,0,0,0,0,0
9,99999,74,90000,25,40000,40,9999,0.065000,0,0,0.000000,6,0.000000,0.000000,0.171069,0,0,0,0,0,0,0
9,99999,75,90000,5,0,40,9999,0.100000,0,0,0.000000,6,0.000000,0.000000,0.372716,0,0,0,0,0,0,0
9,99999,76,90000,25,40000,40,9999,0.065000,0,0,0.000000,6,0.000000,0.000000,22.000974,0,0,0,0,0,0,0
9,99999,77,90000,97,50000,40,9999,0.100000,0,0,0.000000,6,0.000000,0.000000,0.237854,0,0,0,0,0,0,0
9,99999,78,90000,70,10000,40,9999,0.100000,0,0,0.000000,6,0.000000,0.000000,0.548494,0,0,0,0,0,0,0
9,99999,79,90000,97,50000,40,9999,0.100000,0,0,0.000000,6,0.000000,0.000000,9.702272,0,0,0,0,0,0,0
9,99999,80,90000,70,10000,49,9999,0.100000,0,0,0.000000,6,9.000000,0.000000,18.631678,0,0,0,0,0,0,0
9,99999,81,90000,88,80000,40,9999,0.100000,0,0,0.000000,6,0.000000,0.000000,0.232283,0,0,0,0,0,0,0
9,99999,82,90000,24,10000,40,9999,0.100000,0,0,0.000000,6,0.000000,0.000000,0.131327,0,0,0,0,0,0,0
9,99999,83,90000,5,0,40,9999,0.100000,0,0,0.000000,6,0.000000,0.000000,0.118047,0,0,0,0,0,0,0
9,99999,84,90000,88,80000,40,9999,0.100000,0,0,0.000000,6,0.000000,0.000000,0.364511,0,0,0,0,0,0,0
9,99999,85,90000,5,0,40,9999,0.100000,0,0,0.000000,6,0.000000,0.000000,0.094904,0,0,0,0,0,0,0
9,99999,86,90000,5,0,40,9999,0.100000,0,0,0.000000,6,0.000000,0.000000,0.615106,0,0,0,0,0,0,0
9,99999,87,90000,5,0,40,9999,0.100000,0,0,0.000000,6,0.000000,0.000000,3.003002,0,0,0,0,0,0,0
9,99999,88,90000,5,0,40,9999,0.100000,0,0,0.000000,6,0.000000,0.000000,1.538213,0,0,0,0,0,0,0
9,99999,89,90000,97,50000,9,9999,0.100000,0,0,34.210526,6,4.000000,0.000000,6.709904,0,0,0,1,0,0,0
9,99999,90,90000,97,50000,40,9999,0.100000,0,0,0.000000,6,0.000000,0.000000,0.162983,0,0,0,0,0,0,0
9,99999,91,90000,24,10000,40,9999,0.100000,0,0,0.000000,6,0.000000,0.000000,0.141948,0,0,0,0,0,0,0
9,99999,92,90000,97,50000,40,9999,0.100000,0,0,0.000000,6,0.000000,0.000000,0.618573,0,0,0,0,0,0,0
9,99999,93,80000,51,60000,40,19999,0.100000,0,0,0.000000,6,0.000000,0.000000,0.092091,0,0,0,0,0,0,0
9,99999,94,90000,5,0,40,9999,0.100000,0,0,0.000000,6,0.000000,0.000000,0.449086,0,0,0,0,0,0,0
9,99999,95,90000,24,10000,40,9999,0.100000,0,0,0.000000,6,0.000000,0.000000,0.286753,0,0,0,0,0,0,0
9,99999,96,90000,70,10000,9,9999,0.100000,0,0,34.210526,6,4.000000,0.000000,9.822730,0,0,0,1,0,0,0
9,99999,97,90000,97,50000,49,9999,0.100000,0,0,0.000000,6,7.000000,0.000000,22.874640,0,0,0,0,0,0,0
9,99999,98,90000,88,80000,40,9999,0.100000,0,0,0.000000,6,0.000000,0.000000,0.106705,0,0,0,0,0,0,0
9,99999,99,90000,70,10000,40,9999,0.100000,0,0,0.000000,6,0.000000,0.000000,12.060257,0,0,0,0,0,0,0
10,109999,0,100000,97,50000,40,9999,0.100000,0,0,0.000000,6,0.000000,0.000000,0.260736,0,0,0,0,0,0,0
10,109999,1,100000,51,60000,40,9999,0.100000,0,0,0.000000,6,0.000000,0.000000,0.310473,0,0,0,0,0,0,0
10,109999,2,100000,88,80000,40,9999,0.100000,0,0,0.000000,6,0.000000,0.000000,0.976516,0,0,0,0,0,0,0
10,109999,3,100000,24,10000,40,9999,0.100000,0,0,0.000000,6,0.000000,0.000000,0.208802,0,0,0,0,0,0,0
10,109999,4,100000,24,10000,40,9999,0.100000,0,0,0.000000,6,0.000000,0.000000,0.196444,0,0,0,0,0,0,0
10,109999,5,100000,88,80000,40,9999,0.100000,0,0,0.000000,6,0.000000,0.000000,0.111125,0,0,0,0,0,0,0
10,109999,6,100000,5,0,40,9999,0.100000,0,0,0.000000,6,0.000000,0.000000,0.485657,0,0,0,0,0,0,0
10,109999,7,100000,88,80000,40,9999,0.100000,0,0,0.000000,6,0.000000,0.000000,0.361462,0,0,0,0,0,0,0
10,109999,8,100000,88,80000,40,9999,0.100000,0,0,0.000000,6,0.000000,0.000000,0.130923,0,0,0,0,0,0,0
10,109999,9,100000,88,80000,40,9999,0.100000,0,0,0.000000,6,0.000000,0.000000,0.162049,0,0,0,0,0,0,0
10,109999,10,100000,51,60000,40,9999,0.100000,0,0,0.000000,6,0.000000,0.000000,0.103996,0,0,0,0,0,0,0
10,109999,11,100000,70,10000,40,9999,0.100000,0,0,0.000000,6,0.000000,0.000000,0.178612,0,0,0,0,0,0,0
10,109999,12,100000,70,10000,40,9999,0.100000,0,0,0.000000,6,0.000000,0.000000,0.160044,0,0,0,0,0,0,0
10,109999,13,100000,88,80000,40,9999,0.100000,0,0,0.000000,6,0.000000,0.000000,1.762668,0,0,0,0,0,0,0
10,109999,14,100000,97,50000,40,9999,0.100000,0,0,0.000000,6,0.000000,0.000000,0.131437,0,0,0,0,0,0,0
10,109999,15,100000,97,50000,40,9999,0.065000,0,0,0.000000,6,0.000000,0.000000,0.100687,0,0,0,0,0,0,0
10,109999,16,100000,70,10000,40,9999,0.100000,0,0,0.000000,6,0.000000,0.000000,0.153512,0,0,0,0,0,0,0
10,109999,17,100000,88,80000,40,9999,0.100000,0,0,0.000000,6,0.000000,0.000000,0.904281,0,0,0,0,0,0,0
10,109999,18,100000,97,50000,40,9999,0.100000,0,0,0.000000,6,0.000000,0.000000,8.840302,0,0,0,0,0,0,0
10,109999,19,100000,97,50000,40,9999,0.100000,0,0,0.000000,6,0.000000,0.000000,0.340858,0,0,0,0,0,0,0
10,109999,20,100000,88,80000,40,9999,0.100000,0,0,0.000000,6,0.000000,0.000000,0.107207,0,0,0,0,0,0,0
10,109999,21,100000,88,80000,49,9999,0.100000,0,0,0.000000,6,6.000000,0.000000,14.332865,0,0,0,0,0,0,0
10,109999,22,100000,5,0,40,9999,0.100000,0,0,0.000000,6,0.000000,0.000000,0.127407,0,0,0,0,0,0,0
10,109999,23,100000,51,60000,40,9999,0.100000,0,0,0.000000,6,0.000000,0.000000,0.406807,0,0,0,0,0,0,0
10,109999,24,100000,5,0,40,9999,0.100000,0,0,0.000000,6,0.000000,0.000000,0.627988,0,0,0,0,0,0,0
10,109999,25,100000,24,10000,40,9999,0.100000,0,0,0.000000,6,0.000000,0.000000,1.333872,0,0,0,0,0,0,0
10,109999,26,100000,51,60000,40,9999,0.100000,0,0,0.000000,6,0.000000,0.000000,0.383114,0,0,0,0,0,0,0
10,109999,27,100000,88,80000,49,9999,0.100000,0,0,0.000000,6,2.000000,0.000000,9.943917,0,0,0,0,0,0,0
10,109999,28,100000,24,10000,40,9999,0.100000,0,0,0.000000,6,0.000000,0.000000,0.172632,0,0,0,0,0,0,0
10,109999,29,100000,24,10000,49,9999,0.100000,0,0,0.000000,6,2.000000,0.000000,3.260534,0,0,0,0,0,0,0
10,109999,30,100000,88,80000,49,9999,0.100000,0,0,0.000000,6,1.000000,0.000000,13.225250,0,0,0,0,0,0,0
10,109999,31,100000,51,60000,49,9999,0.100000,0,0,0.000000,6,1.000000,0.000000,12.241892,0,0,0,0,0,0,0
10,109999,32,100000,70,10000,49,9999,0.100000,0,0,0.000000,6,9.000000,0.000000,19.029099,0,0,0,0,0,0,0
10,109999,33,100000,5,0,40,9999,0.100000,0,0,0.000000,6,0.000000,0.000000,0.153973,0,0,0,0,0,0,0
10,109999,34,100000,97,50000,40,9999,0.100000,0,0,0.000000,6,0.000000,0.000000,0.164579,0,0,0,0,0,0,0
10,109999,35,100000,88,80000,49,9999,0.100000,0,0,0.000000,6,3.000000,0.000000,12.942974,0,0,0,0,0,0,0
10,109999,36,100000,97,50000,40,9999,0.100000,0,0,0.000000,6,0.000000,0.000000,0.126578,0,0,0,0,0,0,0
10,109999,37,100000,97,50000,40,9999,0.100000,0,0,0.000000,6,0.000000,0.000000,0.153502,0,0,0,0,0,0,0
10,109999,38,100000,70,10000,40,9999,0.100000,0,0,0.000000,6,0.000000,0.000000,0.108314,0,0,0,0,0,0,0
10,109999,39,100000,70,10000,49,9999,0.100000,0,0,0.000000,6,3.000000,0.000000,3.178344,0,0,0,0,0,0,0
10,109999,40,100000,88,80000,49,9999,0.100000,0,0,0.000000,6,2.000000,0.000000,2.607699,0,0,0,0,0,0,0
10,109999,41,100000,24,10000,40,9999,0.100000,0,0,0.000000,6,0.000000,0.000000,0.275726,0,0,0,0,0,0,0
10,109999,42,100000,97,50000,40,9999,0.100000,0,0,0.000000,6,0.000000,0.000000,0.242582,0,0,0,0,0,0,0
10,109999,43,100000,70,10000,40,9999,0.100000,0,0,0.000000,6,0.000000,0.000000,0.106652,0,0,0,0,0,0,0
10,109999,44,100000,5,0,40,9999,0.100000,0,0,0.000000,6,0.000000,0.000000,0.137071,0,0,0,0,0,0,0
10,109999,45,100000,88,80000,49,9999,0.100000,0,0,0.000000,6,2.000000,0.000000,3.035817,0,0,0,0,0,0,0
10,109999,46,100000,24,10000,40,9999,0.100000,0,0,0.000000,6,0.000000,0.000000,0.240003,0,0,0,0,0,0,0
10,109999,47,100000,70,10000,40,9999,0.100000,0,0,0.000000,6,0.000000,0.000000,0.063987,0,0,0,0,0,0,0
10,109999,48,100000,88,80000,40,9999,0.100000,0,0,0.000000,6,0.000000,0.000000,0.113373,0,0,0,0,0,0,0
10,109999,49,100000,5,0,40,9999,0.100000,0,0,0.000000,6,0.000000,0.000000,0.817515,0,0,0,0,0,0,0
10,109999,50,100000,88,80000,40,9999,0.100000,0,0,0.000000,6,0.000000,0.000000,0.491783,0,0,0,0,0,0,0
10,109999,51,100000,97,50000,40,9999,0.100000,0,0,0.000000,6,0.000000,0.000000,1.439471,0,0,0,0,0,0,0
10,109999,52,100000,51,60000,49,9999,0.100000,0,0,0.000000,6,2.000000,0.000000,5.310877,0,0,0,0,0,0,0
10,109999,53,100000,24,10000,40,9999,0.100000,0,0,0.000000,6,0.000000,0.000000,0.167991,0,0,0,0,0,0,0
10,109999,54,100000,70,10000,49,9999,0.100000,0,0,0.000000,6,3.000000,0.000000,4.326210,0,0,0,0,0,0,0
10,109999,55,100000,70,10000,40,9999,0.100000,0,0,0.000000,6,0.000000,0.000000,0.320631,0,0,0,0,0,0,0
10,109999,56,100000,88,80000,40,9999,0.100000,0,0,0.000000,6,0.000000,0.000000,0.144112,0,0,0,0,0,0,0
10,109999,57,100000,24,10000,40,9999,0.100000,0,0,0.000000,6,0.000000,0.000000,2.923363,0,0,0,0,0,0,0
10,109999,58,100000,51,60000,49,9999,0.100000,0,0,0.000000,6,1.000000,0.000000,12.574742,0,0,0,0,0,0,0
10,109999,59,100000,70,10000,40,9999,0.100000,0,0,0.000000,6,0.000000,0.000000,0.323780,0,0,0,0,0,0,0
10,109999,60,100000,97,50000,40,9999,0.100000,0,0,0.000000,6,0.000000,0.000000,0.243047,0,0,0,0,0,0,0
10,109999,61,100000,51,60000,40,9999,0.100000,0,0,0.000000,6,0.000000,0.000000,0.170585,0,0,0,0,0,0,0
10,109999,62,100000,24,10000,40,9999,0.100000,0,0,0.000000,6,0.000000,0.000000,0.095325,0,0,0,0,0,0,0
10,109999,63,100000,24,10000,40,9999,0.100000,0,0,0.000000,6,0.000000,0.000000,0.184556,0,0,0,0,0,0,0
10,109999,64,100000,97,50000,40,9999,0.100000,0,0,0.000000,6,0.000000,0.000000,0.143988,0,0,0,0,0,0,0
10,109999,65,100000,97,50000,49,9999,0.100000,0,0,0.000000,6,1.000000,0.000000,11.209829,0,0,0,0,0,0,0
10,109999,66,100000,70,10000,40,9999,0.100000,0,0,0.000000,6,0.000000,0.000000,0.629497,0,0,0,0,0,0,0
10,109999,67,100000,70,10000,40,9999,0.100000,0,0,0.000000,6,0.000000,0.000000,0.154053,0,0,0,0,0,0,0
10,109999,68,100000,70,10000,40,9999,0.100000,0,0,0.000000,6,0.000000,0.000000,0.242380,0,0,0,0,0,0,0
10,109999,69,100000,88,80000,49,9999,0.100000,0,0,0.000000,6,7.000000,0.000000,14.408359,0,0,0,0,0,0,0
10,109999,70,100000,5,0,40,9999,0.100000,0,0,0.000000,6,0.000000,0.000000,0.803929,0,0,0,0,0,0,0
10,109999,71,100000,5,0,40,9999,0.100000,0,0,0.000000,6,0.000000,0.000000,0.199774,0,0,0,0,0,0,0
10,109999,72,100000,70,10000,40,9999,0.100000,0,0,0.000000,6,0.000000,0.000000,0.473659,0,0,0,0,0,0,0
10,109999,73,100000,51,60000,49,9999,0.100000,0,0,0.000000,6,2.000000,0.000000,2.484276,0,0,0,0,0,0,0
10,109999,74,100000,24,10000,40,9999,0.100000,0,0,0.000000,6,0.000000,0.000000,0.150015,0,0,0,0,0,0,0
10,109999,75,100000,24,10000,40,9999,0.100000,0,0,0.000000,6,0.000000,0.000000,0.342069,0,0,0,0,0,0,0
10,109999,76,100000,5,0,40,9999,0.100000,0,0,0.000000,6,0.000000,0.000000,22.496600,0,0,0,0,0,0,0
10,109999,77,100000,51,60000,40,9999,0.100000,0,0,0.000000,6,0.000000,0.000000,0.238336,0,0,0,0,0,0,0
10,109999,78,100000,70,10000,40,9999,0.100000,0,0,0.000000,6,0.000000,0.000000,0.758020,0,0,0,0,0,0,0
10,109999,79,100000,70,10000,40,9999,0.100000,0,0,0.000000,6,0.000000,0.000000,12.690975,0,0,0,0,0,0,0
10,109999,80,100000,5,0,40,9999,0.100000,0,0,0.000000,6,0.000000,0.000000,0.123336,0,0,0,0,0,0,0
10,109999,81,100000,51,60000,40,9999,0.100000,0,0,0.000000,6,0.000000,0.000000,0.143906,0,0,0,0,0,0,0
10,109999,82,100000,51,60000,40,9999,0.100000,0,0,0.000000,6,0.000000,0.000000,0.147658,0,0,0,0,0,0,0
10,109999,83,100000,70,10000,40,9999,0.100000,0,0,0.000000,6,0.000000,0.000000,0.118900,0,0,0,0,0,0,0
10,109999,84,100000,70,10000,40,9999,0.100000,0,0,0.000000,6,0.000000,0.000000,0.123335,0,0,0,0,0,0,0
10,109999,85,100000,24,10000,49,9999,0.100000,0,0,0.000000,6,7.000000,0.000000,14.891725,0,0,0,0,0,0,0
10,109999,86,100000,5,0,40,9999,0.100000,0,0,0.000000,6,0.000000,0.000000,0.622159,0,0,0,0,0,0,0
10,109999,87,100000,51,60000,40,9999,0.100000,0,0,0.000000,6,0.000000,0.000000,0.952935,0,0,0,0,0,0,0
10,109999,88,100000,51,60000,40,9999,0.100000,0,0,0.000000,6,0.000000,0.000000,1.146056,0,0,0,0,0,0,0
10,109999,89,100000,88,80000,40,9999,0.100000,0,0,0.000000,6,0.000000,0.000000,1.000837,0,0,0,0,0,0,0
10,109999,90,100000,24,10000,40,9999,0.100000,0,0,0.000000,6,0.000000,0.000000,0.144125,0,0,0,0,0,0,0
10,109999,91,100000,51,60000,40,9999,0.100000,0,0,0.000000,6,0.000000,0.000000,0.139709,0,0,0,0,0,0,0
10,109999,92,100000,70,10000,40,9999,0.100000,0,0,0.000000,6,0.000000,0.000000,0.139943,0,0,0,0,0,0,0
10,109999,93,100000,24,10000,40,9999,0.100000,0,0,0.000000,6,0.000000,0.000000,0.091531,0,0,0,0,0,0,0
10,109999,94,100000,70,10000,40,9999,0.100000,0,0,0.000000,6,0.000000,0.000000,0.472478,0,0,0,0,0,0,0
10,109999,95,100000,5,0,40,9999,0.100000,0,0,0.000000,6,0.000000,0.000000,0.180493,0,0,0,0,0,0,0
10,109999,96,100000,88,80000,49,9999,0.100000,0,0,0.000000,6,1.000000,0.000000,1.576426,0,0,0,0,0,0,0
10,109999,97,100000,88,80000,49,9999,0.100000,0,0,0.000000,6,1.000000,0.000000,11.189107,0,0,0,0,0,0,0
10,109999,98,100000,5,0,40,9999,0.100000,0,0,0.000000,6,0.000000,0.000000,0.087995,0,0,0,0,0,0,0
10,109999,99,100000,5,0,49,9999,0.100000,0,0,0.000000,6,6.000000,0.000000,28.404388,0,0,0,0,0,0,0
11,119999,0,110000,5,0,40,9999,0.100000,0,0,0.000000,6,0.000000,0.000000,0.221629,0,0,0,0,0,0,0
11,119999,1,110000,88,80000,40,9999,0.100000,0,0,0.000000,6,0.000000,0.000000,0.374089,0,0,0,0,0,0,0
11,119999,2,110000,51,60000,49,9999,0.100000,0,0,0.000000,6,6.000000,0.000000,9.708665,0,0,0,0,0,0,0
11,119999,3,110000,88,80000,40,9999,0.100000,0,0,0.000000,6,0.000000,0.000000,0.216430,0,0,0,0,0,0,0
11,119999,4,110000,88,80000,40,9999,0.100000,0,0,0.000000,6,0.000000,0.000000,0.418777,0,0,0,0,0,0,0
11,119999,5,110000,5,0,40,9999,0.100000,0,0,0.000000,6,0.000000,0.000000,0.109075,0,0,0,0,0,0,0
11,119999,6,110000,24,10000,40,9999,0.100000,0,0,0.000000,6,0.000000,0.000000,0.477771,0,0,0,0,0,0,0
11,119999,7,110000,70,10000,40,9999,0.100000,0,0,0.000000,6,0.000000,0.000000,0.370454,0,0,0,0,0,0,0
11,119999,8,110000,97,50000,40,9999,0.100000,0,0,0.000000,6,0.000000,0.000000,0.124822,0,0,0,0,0,0,0
11,119999,9,110000,97,50000,40,9999,0.100000,0,0,0.000000,6,0.000000,0.000000,0.167131,0,0,0,0,0,0,0
11,119999,10,110000,5,0,40,9999,0.100000,0,0,0.000000,6,0.000000,0.000000,0.104384,0,0,0,0,0,0,0
11,119999,11,110000,88,80000,40,9999,0.100000,0,0,0.000000,6,0.000000,0.000000,0.178157,0,0,0,0,0,0,0
11,119999,12,110000,70,10000,40,9999,0.100000,0,0,0.000000,6,0.000000,0.000000,0.168124,0,0,0,0,0,0,0
11,119999,13,110000,70,10000,40,9999,0.100000,0,0,0.000000,6,0.000000,0.000000,4.913103,0,0,0,0,0,0,0
11,119999,14,110000,97,50000,40,9999,0.100000,0,0,0.000000,6,0.000000,0.000000,0.218322,0,0,0,0,0,0,0
11,119999,15,110000,97,50000,40,9999,0.100000,0,0,0.000000,6,0.000000,0.000000,0.099081,0,0,0,0,0,0,0
11,119999,16,110000,24,10000,40,9999,0.100000,0,0,0.000000,6,0.000000,0.000000,0.153387,0,0,0,0,0,0,0
11,119999,17,110000,5,0,40,9999,0.100000,0,0,0.000000,6,0.000000,0.000000,0.971285,0,0,0,0,0,0,0
11,119999,18,110000,88,80000,49,9999,0.100000,0,0,0.000000,6,3.000000,0.000000,11.290267,0,0,0,0,0,0,0
11,119999,19,110000,88,80000,40,9999,0.100000,0,0,0.000000,6,0.000000,0.000000,0.536252,0,0,0,0,0,0,0
11,119999,20,110000,5,0,40,9999,0.100000,0,0,0.000000,6,0.000000,0.000000,0.109323,0,0,0,0,0,0,0
11,119999,21,110000,97,50000,40,9999,0.100000,0,0,0.000000,6,0.000000,0.000000,1.828846,0,0,0,0,0,0,0
11,119999,22,110000,5,0,40,9999,0.100000,0,0,0.000000,6,0.000000,0.000000,0.444097,0,0,0,0,0,0,0
11,119999,23,110000,70,10000,40,9999,0.100000,0,0,0.000000,6,0.000000,0.000000,0.399173,0,0,0,0,0,0,0
11,119999,24,110000,24,10000,40,9999,0.100000,0,0,0.000000,6,0.000000,0.000000,0.517857,0,0,0,0,0,0,0
11,119999,25,110000,51,60000,40,9999,0.100000,0,0,0.000000,6,0.000000,0.000000,1.362082,0,0,0,0,0,0,0
11,119999,26,110000,51,60000,40,9999,0.100000,0,0,0.000000,6,0.000000,0.000000,0.377935,0,0,0,0,0,0,0
11,119999,27,110000,24,10000,49,9999,0.100000,0,0,0.000000,6,4.000000,0.000000,8.275404,0,0,0,0,0,0,0
11,119999,28,110000,24,10000,40,9999,0.100000,0,0,0.000000,6,0.000000,0.000000,0.152163,0,0,0,0,0,0,0
11,119999,29,110000,24,10000,40,9999,0.100000,0,0,0.000000,6,0.000000,0.000000,0.632038,0,0,0,0,0,0,0
11,119999,30,110000,70,10000,49,9999,0.100000,0,0,0.000000,6,1.000000,0.000000,9.912206,0,0,0,0,0,0,0
11,119999,31,110000,51,60000,49,9999,0.100000,0,0,0.000000,6,4.000000,0.000000,14.050129,0,0,0,0,0,0,0
11,119999,32,110000,5,0,40,9999,0.100000,0,0,0.000000,6,0.000000,0.000000,0.112521,0,0,0,0,0,0,0
11,119999,33,110000,5,0,40,9999,0.100000,0,0,0.000000,6,0.000000,0.000000,0.151829,0,0,0,0,0,0,0
11,119999,34,110000,51,60000,40,9999,0.100000,0,0,0.000000,6,0.000000,0.000000,0.139261,0,0,0,0,0,0,0
11,119999,35,110000,5,0,49,9999,0.100000,0,0,0.000000,6,1.000000,0.000000,16.819130,0,0,0,0,0,0,0
11,119999,36,110000,24,10000,40,9999,0.100000,0,0,0.000000,6,0.000000,0.000000,0.109834,0,0,0,0,0,0,0
11,119999,37,110000,24,10000,40,9999,0.100000,0,0,0.000000,6,0.000000,0.000000,0.189856,0,0,0,0,0,0,0
11,119999,38,110000,88,80000,40,9999,0.100000,0,0,0.000000,6,0.000000,0.000000,0.098172,0,0,0,0,0,0,0
11,119999,39,110000,88,80000,40,9999,0.100000,0,0,0.000000,6,0.000000,0.000000,1.666963,0,0,0,0,0,0,0
11,119999,40,110000,70,10000,40,9999,0.100000,0,0,0.000000,6,0.000000,0.000000,0.638714,0,0,0,0,0,0,0
11,119999,41,110000,24,10000,49,9999,0.100000,0,0,0.000000,6,1.000000,0.000000,4.004872,0,0,0,0,0,0,0
11,119999,42,110000,24,10000,40,9999,0.100000,0,0,0.000000,6,0.000000,0.000000,0.230096,0,0,0,0,0,0,0
11,119999,43,110000,51,60000,40,9999,0.100000,0,0,0.000000,6,0.000000,0.000000,0.106772,0,0,0,0,0,0,0
11,119999,44,110000,5,0,40,9999,0.100000,0,0,0.000000,6,0.000000,0.000000,0.137143,0,0,0,0,0,0,0
11,119999,45,110000,24,10000,40,9999,0.100000,0,0,0.000000,6,0.000000,0.000000,0.770093,0,0,0,0,0,0,0
11,119999,46,110000,88,80000,40,9999,0.100000,0,0,0.000000,6,0.000000,0.000000,0.233536,0,0,0,0,0,0,0
11,119999,47,110000,24,10000,40,9999,0.100000,0,0,0.000000,6,0.000000,0.000000,0.277604,0,0,0,0,0,0,0
11,119999,48,110000,24,10000,40,9999,0.100000,0,0,0.000000,6,0.000000,0.000000,0.112690,0,0,0,0,0,0,0
11,119999,49,110000,24,10000,40,9999,0.100000,0,0,0.000000,6,0.000000,0.000000,1.091794,0,0,0,0,0,0,0
11,119999,50,110000,24,10000,40,9999,0.100000,0,0,0.000000,6,0.000000,0.000000,0.513351,0,0,0,0,0,0,0
11,119999,51,110000,97,50000,49,9999,0.100000,0,0,0.000000,6,1.000000,0.000000,2.187755,0,0,0,0,0,0,0
11,119999,52,110000,51,60000,40,9999,0.100000,0,0,0.000000,6,0.000000,0.000000,0.337554,0,0,0,0,0,0,0
11,119999,53,110000,5,0,49,9999,0.100000,0,0,0.000000,6,2.000000,0.000000,4.561615,0,0,0,0,0,0,0
11,119999,54,110000,51,60000,40,9999,0.100000,0,0,0.000000,6,0.000000,0.000000,0.102448,0,0,0,0,0,0,0
11,119999,55,110000,88,80000,40,9999,0.100000,0,0,0.000000,6,0.000000,0.000000,0.354999,0,0,0,0,0,0,0
11,119999,56,110000,97,50000,40,9999,0.100000,0,0,0.000000,6,0.000000,0.000000,0.146041,0,0,0,0,0,0,0
11,119999,57,110000,70,10000,49,9999,0.100000,0,0,0.000000,6,1.000000,0.000000,3.181727,0,0,0,0,0,0,0
11,119999,58,110000,70,10000,49,9999,0.100000,0,0,0.000000,6,3.000000,0.000000,11.016357,0,0,0,0,0,0,0
11,119999,59,110000,97,50000,40,9999,0.100000,0,0,0.000000,6,0.000000,0.000000,0.316191,0,0,0,0,0,0,0
11,119999,60,110000,70,10000,40,9999,0.135000,0,0,0.000000,6,0.000000,0.000000,0.228758,0,0,0,0,0,0,0
11,119999,61,110000,70,10000,40,9999,0.100000,0,0,0.000000,6,0.000000,0.000000,0.169794,0,0,0,0,0,0,0
11,119999,62,110000,24,10000,40,9999,0.100000,0,0,0.000000,6,0.000000,0.000000,0.113221,0,0,0,0,0,0,0
11,119999,63,110000,24,10000,40,9999,0.100000,0,0,0.000000,6,0.000000,0.000000,0.225759,0,0,0,0,0,0,0
11,119999,64,110000,51,60000,40,9999,0.100000,0,0,0.000000,6,0.000000,0.000000,0.145568,0,0,0,0,0,0,0
11,119999,65,110000,51,60000,49,9999,0.100000,0,0,0.000000,6,3.000000,0.000000,11.302303,0,0,0,0,0,0,0
11,119999,66,110000,24,10000,40,9999,0.100000,0,0,0.000000,6,0.000000,0.000000,0.918864,0,0,0,0,0,0,0
11,119999,67,110000,24,10000,40,9999,0.100000,0,0,0.000000,6,0.000000,0.000000,0.156320,0,0,0,0,0,0,0
11,119999,68,110000,5,0,49,9999,0.100000,0,0,0.000000,6,1.000000,0.000000,5.300385,0,0,0,0,0,0,0
11,119999,69,110000,24,10000,40,9999,0.100000,0,0,0.000000,6,0.000000,0.000000,0.224405,0,0,0,0,0,0,0
11,119999,70,110000,88,80000,40,9999,0.100000,0,0,0.000000,6,0.000000,0.000000,1.560813,0,0,0,0,0,0,0
11,119999,71,110000,24,10000,40,9999,0.100000,0,0,0.000000,6,0.000000,0.000000,0.220833,0,0,0,0,0,0,0
11,119999,72,110000,88,80000,40,9999,0.100000,0,0,0.000000,6,0.000000,0.000000,0.526525,0,0,0,0,0,0,0
11,119999,73,110000,97,50000,40,9999,0.100000,0,0,0.000000,6,0.000000,0.000000,0.885239,0,0,0,0,0,0,0
11,119999,74,110000,70,10000,40,9999,0.100000,0,0,0.000000,6,0.000000,0.000000,0.125074,0,0,0,0,0,0,0
11,119999,75,110000,51,60000,49,9999,0.100000,0,0,0.000000,6,1.000000,0.000000,4.380933,0,0,0,0,0,0,0
11,119999,76,110000,51,60000,40,9999,0.100000,0,0,0.000000,6,0.000000,0.000000,21.733521,0,0,0,0,0,0,0
11,119999,77,110000,88,80000,40,9999,0.100000,0,0,0.000000,6,0.000000,0.000000,0.240310,0,0,0,0,0,0,0
11,119999,78,110000,24,10000,49,9999,0.100000,0,0,0.000000,6,1.000000,0.000000,1.358734,0,0,0,0,0,0,0
11,119999,79,110000,24,10000,49,9999,0.100000,0,0,0.000000,6,3.000000,0.000000,9.526322,0,0,0,0,0,0,0
11,119999,80,110000,24,10000,40,9999,0.100000,0,0,0.000000,6,0.000000,0.000000,0.146706,0,0,0,0,0,0,0
11,119999,81,110000,97,50000,40,9999,0.100000,0,0,0.000000,6,0.000000,0.000000,0.182649,0,0,0,0,0,0,0
11,119999,82,110000,70,10000,40,9999,0.100000,0,0,0.000000,6,0.000000,0.000000,0.142557,0,0,0,0,0,0,0
11,119999,83,110000,24,10000,40,9999,0.100000,0,0,0.000000,6,0.000000,0.000000,0.121315,0,0,0,0,0,0,0
11,119999,84,110000,24,10000,40,9999,0.100000,0,0,0.000000,6,0.000000,0.000000,0.182100,0,0,0,0,0,0,0
11,119999,85,110000,5,0,40,9999,0.100000,0,0,0.000000,6,0.000000,0.000000,0.095660,0,0,0,0,0,0,0
11,119999,86,110000,70,10000,40,9999,0.100000,0,0,0.000000,6,0.000000,0.000000,0.616712,0,0,0,0,0,0,0
11,119999,87,110000,51,60000,49,9999,0.100000,0,0,0.000000,6,1.000000,0.000000,5.192783,0,0,0,0,0,0,0
11,119999,88,110000,24,10000,40,9999,0.100000,0,0,0.000000,6,0.000000,0.000000,4.340230,0,0,0,0,0,0,0
11,119999,89,110000,97,50000,49,9999,0.100000,0,0,0.000000,6,1.000000,0.000000,2.039101,0,0,0,0,0,0,0
11,119999,90,110000,88,80000,40,9999,0.100000,0,0,0.000000,6,0.000000,0.000000,0.140440,0,0,0,0,0,0,0
11,119999,91,110000,88,80000,40,9999,0.100000,0,0,0.000000,6,0.000000,0.000000,0.138107,0,0,0,0,0,0,0
11,119999,92,110000,70,10000,40,9999,0.100000,0,0,0.000000,6,0.000000,0.000000,0.137395,0,0,0,0,0,0,0
11,119999,93,110000,24,10000,40,9999,0.100000,0,0,0.000000,6,0.000000,0.000000,0.090354,0,0,0,0,0,0,0
11,119999,94,110000,5,0,40,9999,0.100000,0,0,0.000000,6,0.000000,0.000000,0.611006,0,0,0,0,0,0,0
11,119999,95,110000,70,10000,49,9999,0.100000,0,0,0.000000,6,2.000000,0.000000,2.237432,0,0,0,0,0,0,0
11,119999,96,110000,88,80000,49,9999,0.100000,0,0,0.000000,6,1.000000,0.000000,1.966202,0,0,0,0,0,0,0
11,119999,97,110000,88,80000,40,9999,0.100000,0,0,0.000000,6,0.000000,0.000000,3.925737,0,0,0,0,0,0,0
11,119999,98,110000,5,0,40,9999,0.100000,0,0,0.000000,6,0.000000,0.000000,0.087822,0,0,0,0,0,0,0
11,119999,99,110000,24,10000,49,9999,0.100000,0,0,0.000000,6,4.000000,0.000000,17.636386,0,0,0,0,0,0,0
12,129999,0,120000,70,10000,40,9999,0.100000,0,0,0.000000,6,0.000000,0.000000,0.219956,0,0,0,0,0,0,0
12,129999,1,120000,88,80000,40,9999,0.100000,0,0,0.000000,6,0.000000,0.000000,0.600095,0,0,0,0,0,0,0
12,129999,2,120000,88,80000,40,9999,0.100000,0,0,0.000000,6,0.000000,0.000000,1.501098,0,0,0,0,0,0,0
12,129999,3,120000,5,0,40,9999,0.100000,0,0,0.000000,6,0.000000,0.000000,0.213784,0,0,0,0,0,0,0
12,129999,4,120000,88,80000,49,9999,0.100000,0,0,0.000000,6,1.000000,0.000000,7.954377,0,0,0,0,0,0,0
12,129999,5,120000,5,0,40,9999,0.100000,0,0,0.000000,6,0.000000,0.000000,0.112124,0,0,0,0,0,0,0
12,129999,6,120000,88,80000,40,9999,0.100000,0,0,0.000000,6,0.000000,0.000000,0.450358,0,0,0,0,0,0,0
12,129999,7,120000,5,0,40,9999,0.100000,0,0,0.000000,6,0.000000,0.000000,0.392178,0,0,0,0,0,0,0
12,129999,8,120000,88,80000,40,9999,0.100000,0,0,0.000000,6,0.000000,0.000000,0.137339,0,0,0,0,0,0,0
12,129999,9,120000,70,10000,40,9999,0.100000,0,0,0.000000,6,0.000000,0.000000,0.172365,0,0,0,0,0,0,0
12,129999,10,120000,5,0,40,9999,0.100000,0,0,0.000000,6,0.000000,0.000000,0.182894,0,0,0,0,0,0,0
12,129999,11,120000,24,10000,40,9999,0.100000,0,0,0.000000,6,0.000000,0.000000,0.208406,0,0,0,0,0,0,0
12,129999,12,120000,51,60000,40,9999,0.100000,0,0,0.000000,6,0.000000,0.000000,0.203331,0,0,0,0,0,0,0
12,129999,13,120000,97,50000,40,9999,0.100000,0,0,0.000000,6,0.000000,0.000000,0.173947,0,0,0,0,0,0,0
12,129999,14,120000,51,60000,40,9999,0.100000,0,0,0.000000,6,0.000000,0.000000,0.706004,0,0,0,0,0,0,0
12,129999,15,120000,97,50000,40,9999,0.100000,0,0,0.000000,6,0.000000,0.000000,0.101020,0,0,0,0,0,0,0
12,129999,16,120000,5,0,40,9999,0.100000,0,0,0.000000,6,0.000000,0.000000,0.150689,0,0,0,0,0,0,0
12,129999,17,120000,51,60000,40,9999,0.100000,0,0,0.000000,6,0.000000,0.000000,0.965617,0,0,0,0,0,0,0
12,129999,18,120000,51,60000,49,9999,0.100000,0,0,0.000000,6,1.000000,0.000000,8.058324,0,0,0,0,0,0,0
12,129999,19,120000,70,10000,40,9999,0.100000,0,0,0.000000,6,0.000000,0.000000,0.425333,0,0,0,0,0,0,0
12,129999,20,120000,70,10000,40,9999,0.100000,0,0,0.000000,6,0.000000,0.000000,0.109478,0,0,0,0,0,0,0
12,129999,21,120000,88,80000,40,9999,0.100000,0,0,0.000000,6,0.000000,0.000000,1.781860,0,0,0,0,0,0,0
12,129999,22,120000,88,80000,40,9999,0.100000,0,0,0.000000,6,0.000000,0.000000,1.525369,0,0,0,0,0,0,0
12,129999,23,120000,5,0,40,9999,0.100000,0,0,0.000000,6,0.000000,0.000000,0.448433,0,0,0,0,0,0,0
12,129999,24,120000,51,60000,40,9999,0.100000,0,0,0.000000,6,0.000000,0.000000,0.107480,0,0,0,0,0,0,0
