generation,iteration,robot,birthday,ancestor_id,ancestor_birthday,cell_id,age,sigma,maps,genomes,fitness,cells_in_map,dist_max,dist_pot_max,dist_total,com_rx,com_tx,obj_group1,obj_group2,obj_group3,obj_group4,obj_group5
0,9999,0,0,0,0,40,9999,0.100000,99,0,0.000000,0,1.000000,27.516278,2.924180,99,99,0,0,0,0,0
0,9999,1,0,1,0,40,9999,0.100000,99,0,0.000000,0,1.000000,20.878419,6.264497,99,99,0,0,0,0,0
0,9999,2,0,2,0,0,9999,0.100000,99,0,6.399042,0,3.000000,31.927608,7.790929,99,99,0,0,1,0,0
0,9999,3,0,3,0,40,9999,0.100000,99,0,0.000000,0,0.000000,25.208550,4.486950,99,99,0,0,0,0,0
0,9999,4,0,4,0,41,9999,0.100000,99,0,0.000000,0,5.000000,33.482760,13.267098,99,99,0,0,0,0,0
0,9999,5,0,5,0,0,9999,0.100000,99,0,0.941047,0,3.000000,29.180198,8.036675,99,99,0,1,0,0,0
0,9999,6,0,6,0,40,9999,0.100000,99,0,0.000000,0,0.000000,23.250283,2.540823,99,99,0,0,0,0,0
0,9999,7,0,7,0,40,9999,0.100000,99,0,0.000000,0,2.000000,28.603763,5.713720,99,99,0,0,0,0,0
0,9999,8,0,8,0,42,9999,0.100000,99,0,0.000000,0,5.000000,23.576819,11.471508,99,99,0,0,0,0,0
0,9999,9,0,9,0,40,9999,0.100000,99,0,0.000000,0,1.000000,22.596031,5.751471,99,99,0,0,0,0,0
0,9999,10,0,10,0,0,9999,0.100000,99,0,0.023015,0,1.000000,23.244244,2.724610,99,99,0,0,1,0,0
0,9999,11,0,11,0,94,9999,0.100000,99,0,57.566760,0,11.000000,25.965588,22.404952,99,99,1,0,0,0,0
0,9999,12,0,12,0,40,9999,0.100000,99,0,0.000000,0,1.000000,13.423449,7.313088,99,99,0,0,0,0,0
0,9999,13,0,13,0,41,9999,0.100000,99,0,0.000000,0,2.000000,14.390900,5.787100,99,99,0,0,0,0,0
0,9999,14,0,14,0,90,9999,0.100000,99,0,4.566957,0,1.000000,22.163059,8.507353,99,99,1,0,0,0,0
0,9999,15,0,15,0,41,9999,0.100000,99,0,0.000000,0,4.000000,29.670282,7.808018,99,99,0,0,0,0,0
0,9999,16,0,16,0,1,9999,0.100000,99,0,0.000196,0,4.000000,21.840608,16.887294,99,99,0,0,1,0,0
0,9999,17,0,17,0,0,9999,0.100000,99,0,2.307493,0,0.000000,21.476933,2.648714,99,99,0,0,1,0,0
0,9999,18,0,18,0,40,9999,0.100000,99,0,0.000000,0,1.000000,27.551353,8.934237,99,99,0,0,0,0,0
0,9999,19,0,19,0,0,9999,0.100000,99,0,0.119640,0,3.000000,31.900000,13.555306,99,99,0,1,0,0,0
0,9999,20,0,20,0,40,9999,0.100000,99,0,0.000000,0,1.000000,22.938702,16.102479,99,99,0,0,0,0,0
0,9999,21,0,21,0,0,9999,0.100000,99,0,0.006470,0,0.000000,18.993887,2.267586,99,99,0,0,0,1,0
0,9999,22,0,22,0,0,9999,0.100000,99,0,0.013291,0,0.000000,23.601471,0.755360,99,99,0,0,0,0,1
0,9999,23,0,23,0,0,9999,0.100000,99,0,0.001132,0,0.000000,19.425497,0.472165,99,99,0,0,0,0,1
0,9999,24,0,24,0,0,9999,0.100000,99,0,1.427054,0,1.000000,31.480456,1.778328,99,99,0,1,0,0,0
0,9999,25,0,25,0,40,9999,0.100000,99,0,0.000000,0,2.000000,30.461916,10.301553,99,99,0,0,0,0,0
0,9999,26,0,26,0,40,9999,0.100000,99,0,0.000000,0,1.000000,21.903781,7.332348,99,99,0,0,0,0,0
0,9999,27,0,27,0,40,9999,0.100000,99,0,0.000000,0,2.000000,24.990664,9.629160,99,99,0,0,0,0,0
0,9999,28,0,28,0,41,9999,0.100000,99,0,0.000000,0,4.000000,27.778920,12.165027,99,99,0,0,0,0,0
0,9999,29,0,29,0,41,9999,0.100000,99,0,0.000000,0,2.000000,14.428318,14.053289,99,99,0,0,0,0,0
0,9999,30,0,30,0,40,9999,0.100000,99,0,0.000000,0,2.000000,30.484628,5.310425,99,99,0,0,0,0,0
0,9999,31,0,31,0,95,9999,0.100000,99,0,79.162806,0,14.000000,26.509694,26.366830,99,99,1,0,0,0,0
0,9999,32,0,32,0,0,9999,0.100000,99,0,0.015626,0,1.000000,26.972920,3.754328,99,99,0,0,0,0,1
0,9999,33,0,33,0,40,9999,0.100000,99,0,0.000000,0,1.000000,25.788920,6.461741,99,99,0,0,0,0,0
0,9999,34,0,34,0,40,9999,0.100000,99,0,0.000000,0,2.000000,32.801973,18.623499,99,99,0,0,0,0,0
0,9999,35,0,35,0,0,9999,0.100000,99,0,0.000809,0,0.000000,20.993180,0.277326,99,99,0,0,0,1,0
0,9999,36,0,36,0,1,9999,0.100000,99,0,0.042262,0,2.000000,17.009279,5.350098,99,99,0,0,1,0,0
0,9999,37,0,37,0,40,9999,0.100000,99,0,0.000000,0,3.000000,33.584105,6.567132,99,99,0,0,0,0,0
0,9999,38,0,38,0,40,9999,0.100000,99,0,0.000000,0,2.000000,29.018412,11.005498,99,99,0,0,0,0,0
0,9999,39,0,39,0,0,9999,0.100000,99,0,3.140582,0,2.000000,29.368531,5.909657,99,99,0,0,0,1,0
0,9999,40,0,40,0,0,9999,0.100000,99,0,0.000701,0,0.000000,24.173920,0.459195,99,99,0,0,0,0,1
0,9999,41,0,41,0,40,9999,0.100000,99,0,0.000000,0,2.000000,31.849027,11.537712,99,99,0,0,0,0,0
0,9999,42,0,42,0,40,9999,0.100000,99,0,0.000000,0,0.000000,26.230835,1.127478,99,99,0,0,0,0,0
0,9999,43,0,43,0,0,9999,0.100000,99,0,0.193349,0,0.000000,24.338759,1.102510,99,99,0,0,1,0,0
0,9999,44,0,44,0,1,9999,0.100000,99,0,11.284310,0,3.000000,27.947145,11.029552,99,99,0,0,1,0,0
0,9999,45,0,45,0,0,9999,0.100000,99,0,0.023739,0,0.000000,19.144397,0.905157,99,99,0,0,0,0,1
0,9999,46,0,46,0,41,9999,0.100000,99,0,0.000000,0,3.000000,27.030854,8.758587,99,99,0,0,0,0,0
0,9999,47,0,47,0,0,9999,0.100000,99,0,0.598624,0,1.000000,20.733126,2.654854,99,99,0,1,0,0,0
0,9999,48,0,48,0,0,9999,0.100000,99,0,0.087671,0,1.000000,27.962182,3.204243,99,99,0,0,0,0,1
0,9999,49,0,49,0,40,9999,0.100000,99,0,0.000000,0,1.000000,20.217632,16.227550,99,99,0,0,0,0,0
0,9999,50,0,50,0,40,9999,0.100000,99,0,0.000000,0,1.000000,24.108862,6.377472,99,99,0,0,0,0,0
0,9999,51,0,51,0,41,9999,0.100000,99,0,0.000000,0,4.000000,33.348233,7.666450,99,99,0,0,0,0,0
0,9999,52,0,52,0,40,9999,0.100000,99,0,0.000000,0,1.000000,33.809662,14.500732,99,99,0,0,0,0,0
0,9999,53,0,53,0,40,9999,0.100000,99,0,0.000000,0,2.000000,30.663252,13.179448,99,99,0,0,0,0,0
0,9999,54,0,54,0,40,9999,0.100000,99,0,0.000000,0,0.000000,18.417244,0.478366,99,99,0,0,0,0,0
0,9999,55,0,55,0,41,9999,0.100000,99,0,0.000000,0,3.000000,25.341773,13.448778,99,99,0,0,0,0,0
0,9999,56,0,56,0,40,9999,0.100000,99,0,0.000000,0,1.000000,27.304624,3.194233,99,99,0,0,0,0,0
0,9999,57,0,57,0,41,9999,0.100000,99,0,0.000000,0,3.000000,28.422812,9.147839,99,99,0,0,0,0,0
0,9999,58,0,58,0,41,9999,0.100000,99,0,0.000000,0,3.000000,26.407315,9.356144,99,99,0,0,0,0,0
0,9999,59,0,59,0,40,9999,0.100000,99,0,0.000000,0,1.000000,27.636609,7.455028,99,99,0,0,0,0,0
0,9999,60,0,60,0,40,9999,0.100000,99,0,0.000000,0,2.000000,23.277424,15.017024,99,99,0,0,0,0,0
0,9999,61,0,61,0,1,9999,0.100000,99,0,0.042768,0,4.000000,27.901117,16.795354,99,99,0,0,0,0,1
0,9999,62,0,62,0,41,9999,0.100000,99,0,0.000000,0,2.000000,18.296987,15.486330,99,99,0,0,0,0,0
0,9999,63,0,63,0,40,9999,0.100000,99,0,0.000000,0,2.000000,27.740631,4.732875,99,99,0,0,0,0,0
0,9999,64,0,64,0,40,9999,0.100000,99,0,0.000000,0,2.000000,33.829604,3.038339,99,99,0,0,0,0,0
0,9999,65,0,65,0,40,9999,0.100000,99,0,0.000000,0,0.000000,24.142843,1.173674,99,99,0,0,0,0,0
0,9999,66,0,66,0,40,9999,0.100000,99,0,0.000000,0,3.000000,29.662146,3.678464,99,99,0,0,0,0,0
0,9999,67,0,67,0,1,9999,0.100000,99,0,0.780252,0,2.000000,14.876474,3.776512,99,99,0,0,0,1,0
0,9999,68,0,68,0,40,9999,0.100000,99,0,0.000000,0,2.000000,28.416569,8.443146,99,99,0,0,0,0,0
0,9999,69,0,69,0,40,9999,0.100000,99,0,0.000000,0,1.000000,17.156815,7.040253,99,99,0,0,0,0,0
0,9999,70,0,70,0,40,9999,0.100000,99,0,0.000000,0,1.000000,28.137254,8.616015,99,99,0,0,0,0,0
0,9999,71,0,71,0,41,9999,0.100000,99,0,0.000000,0,3.000000,28.069311,7.826983,99,99,0,0,0,0,0
0,9999,72,0,72,0,0,9999,0.100000,99,0,0.143743,0,0.000000,19.841240,3.562356,99,99,0,1,0,0,0
0,9999,73,0,73,0,40,9999,0.100000,99,0,0.000000,0,0.000000,29.645101,1.154930,99,99,0,0,0,0,0
0,9999,74,0,74,0,0,9999,0.100000,99,0,0.430330,0,1.000000,16.126989,1.591727,99,99,0,0,0,1,0
0,9999,75,0,75,0,40,9999,0.100000,99,0,0.000000,0,0.000000,25.276453,12.052098,99,99,0,0,0,0,0
0,9999,76,0,76,0,42,9999,0.100000,99,0,0.000000,0,8.000000,30.246728,27.799425,99,99,0,0,0,0,0
0,9999,77,0,77,0,40,9999,0.100000,99,0,0.000000,0,1.000000,31.900913,13.275900,99,99,0,0,0,0,0
0,9999,78,0,78,0,93,9999,0.100000,99,0,66.560797,0,10.000000,27.046994,24.605435,99,99,1,0,0,0,0
0,9999,79,0,79,0,41,9999,0.100000,99,0,0.000000,0,4.000000,30.938004,8.250360,99,99,0,0,0,0,0
0,9999,80,0,80,0,40,9999,0.100000,99,0,0.000000,0,0.000000,27.750775,6.754256,99,99,0,0,0,0,0
0,9999,81,0,81,0,40,9999,0.100000,99,0,0.000000,0,1.000000,25.654073,14.606120,99,99,0,0,0,0,0
0,9999,82,0,82,0,40,9999,0.100000,99,0,0.000000,0,2.000000,31.272047,7.684788,99,99,0,0,0,0,0
0,9999,83,0,83,0,40,9999,0.100000,99,0,0.000000,0,2.000000,23.997857,13.897478,99,99,0,0,0,0,0
0,9999,84,0,84,0,0,9999,0.100000,99,0,0.001110,0,2.000000,20.751744,5.494818,99,99,0,0,0,1,0
0,9999,85,0,85,0,2,9999,0.100000,99,0,0.002619,0,6.000000,27.205232,14.073031,99,99,0,0,0,0,1
0,9999,86,0,86,0,42,9999,0.100000,99,0,0.000000,0,3.000000,14.119466,9.399491,99,99,0,0,0,0,0
0,9999,87,0,87,0,40,9999,0.100000,99,0,0.000000,0,1.000000,21.606895,3.105310,99,99,0,0,0,0,0
0,9999,88,0,88,0,40,9999,0.100000,99,0,0.000000,0,1.000000,26.011246,8.978700,99,99,0,0,0,0,0
0,9999,89,0,89,0,40,9999,0.100000,99,0,0.000000,0,2.000000,32.151524,12.871368,99,99,0,0,0,0,0
0,9999,90,0,90,0,40,9999,0.100000,99,0,0.000000,0,0.000000,20.553672,1.524134,99,99,0,0,0,0,0
0,9999,91,0,91,0,40,9999,0.100000,99,0,0.000000,0,1.000000,14.382921,2.137448,99,99,0,0,0,0,0
0,9999,92,0,92,0,40,9999,0.100000,99,0,0.000000,0,1.000000,20.998636,3.995501,99,99,0,0,0,0,0
0,9999,93,0,93,0,93,9999,0.100000,99,0,51.209765,0,11.000000,27.992221,17.048505,99,99,1,0,0,0,0
0,9999,94,0,94,0,40,9999,0.100000,99,0,0.000000,0,1.000000,20.980893,2.534001,99,99,0,0,0,0,0
0,9999,95,0,95,0,40,9999,0.100000,99,0,0.000000,0,0.000000,16.905071,0.881415,99,99,0,0,0,0,0
0,9999,96,0,96,0,40,9999,0.100000,99,0,0.000000,0,1.000000,26.549622,3.506288,99,99,0,0,0,0,0
0,9999,97,0,97,0,40,9999,0.100000,99,0,0.000000,0,3.000000,32.770595,11.500758,99,99,0,0,0,0,0
0,9999,98,0,98,0,40,9999,0.100000,99,0,0.000000,0,1.000000,33.681428,6.665474,99,99,0,0,0,0,0
0,9999,99,0,99,0,40,9999,0.100000,99,0,0.000000,0,2.000000,29.416487,9.372734,99,99,0,0,0,0,0
1,19999,0,10000,0,0,40,9999,0.100000,99,0,0.000000,1,0.000000,27.870333,0.698775,99,99,0,0,0,0,0
1,19999,1,10000,31,0,40,9999,0.100000,99,0,0.000000,6,2.000000,19.318255,6.443127,99,99,0,0,0,0,0
1,19999,2,10000,0,0,0,9999,0.100000,99,0,0.000000,3,2.000000,30.305295,10.274713,99,99,0,0,1,0,0
1,19999,3,10000,2,0,40,9999,0.100000,99,0,0.000000,10,1.000000,24.536518,18.924004,99,99,0,0,0,0,0
1,19999,4,10000,65,0,1,9999,0.100000,99,0,0.000000,8,5.000000,30.133631,10.316665,99,99,0,0,1,0,0
1,19999,5,10000,5,0,0,9999,0.100000,99,0,6.074411,2,1.000000,29.701817,1.601467,99,99,0,1,0,0,0
1,19999,6,10000,46,0,0,9999,0.100000,99,0,0.743257,6,1.000000,24.168412,1.990844,99,99,0,0,1,0,0
1,19999,7,10000,65,0,0,9999,0.100000,99,0,0.598681,8,1.000000,30.327023,1.822832,99,99,0,0,0,1,0
1,19999,8,10000,17,0,40,9999,0.100000,99,0,0.000000,3,0.000000,22.219989,0.965662,99,99,0,0,0,0,0
1,19999,9,10000,85,0,40,9999,0.100000,99,0,0.000000,10,1.000000,21.524100,3.018094,99,99,0,0,0,0,0
1,19999,10,10000,65,0,0,9999,0.100000,99,0,0.372486,6,0.000000,22.708970,0.646249,99,99,0,0,1,0,0
1,19999,11,10000,31,0,40,9999,0.100000,99,0,0.000000,10,2.000000,30.694688,10.485762,99,99,0,0,0,0,0
1,19999,12,10000,65,0,0,9999,0.100000,99,0,0.262740,8,0.000000,13.336132,1.660168,99,99,0,0,0,1,0
1,19999,13,10000,8,0,41,9999,0.100000,99,0,0.000000,7,3.000000,14.535018,9.676053,99,99,0,0,0,0,0
1,19999,14,10000,55,0,0,9999,0.100000,99,0,0.098086,9,0.000000,23.294260,0.563362,99,99,0,0,0,0,1
1,19999,15,10000,8,0,40,9999,0.100000,99,0,0.000000,7,2.000000,30.097549,8.733818,99,99,0,0,0,0,0
1,19999,16,10000,76,0,0,9999,0.100000,99,0,0.003299,10,0.000000,17.394519,0.124809,99,99,0,0,1,0,0
1,19999,17,10000,17,0,0,9999,0.100000,99,0,0.015870,2,0.000000,21.619608,0.175943,99,99,0,0,1,0,0
1,19999,18,10000,55,0,1,9999,0.100000,99,0,0.101124,7,3.000000,26.613049,9.237145,99,99,0,0,1,0,0
1,19999,19,10000,61,0,0,9999,0.100000,99,0,16.023805,7,3.000000,32.029008,18.346323,99,99,0,1,0,0,0
1,19999,20,10000,78,0,41,9999,0.100000,99,0,0.000000,7,3.000000,23.727048,10.421206,99,99,0,0,0,0,0
1,19999,21,10000,78,0,0,9999,0.100000,99,0,0.256365,7,0.000000,18.602340,0.602495,99,99,0,0,0,1,0
1,19999,22,10000,65,0,0,9999,0.100000,99,0,0.469199,7,0.000000,23.197634,0.234269,99,99,0,0,0,0,1
1,19999,23,10000,2,0,0,9999,0.100000,99,0,0.003348,4,0.000000,19.318307,0.135626,99,99,0,0,0,0,1
1,19999,24,10000,44,0,1,9999,0.100000,99,0,35.106002,10,6.000000,30.870317,11.323673,99,99,0,1,0,0,0
1,19999,25,10000,14,0,40,9999,0.100000,99,0,0.000000,9,2.000000,29.461123,10.480809,99,99,0,0,0,0,0
1,19999,26,10000,46,0,0,9999,0.100000,99,0,0.450296,4,0.000000,20.030825,2.445100,99,99,0,0,0,0,1
1,19999,27,10000,78,0,42,9999,0.100000,99,0,0.000000,9,6.000000,25.683986,19.098907,99,99,0,0,0,0,0
1,19999,28,10000,78,0,41,9999,0.100000,99,0,0.000000,9,4.000000,29.467333,14.679678,99,99,0,0,0,0,0
1,19999,29,10000,8,0,40,9999,0.100000,99,0,0.000000,7,0.000000,13.213516,2.048682,99,99,0,0,0,0,0
1,19999,30,10000,65,0,40,9999,0.100000,99,0,0.000000,7,1.000000,29.839625,10.821793,99,99,0,0,0,0,0
1,19999,31,10000,8,0,90,9999,0.100000,99,0,10.525990,6,2.000000,32.706324,12.172635,99,99,1,0,0,0,0
1,19999,32,10000,76,0,0,9999,0.100000,99,0,0.001235,8,0.000000,26.399031,0.077811,99,99,0,0,0,0,1
1,19999,33,10000,0,0,40,9999,0.100000,99,0,0.000000,2,1.000000,25.582496,6.495433,99,99,0,0,0,0,0
1,19999,34,10000,2,0,1,9999,0.100000,99,0,0.056377,6,5.000000,31.769049,15.675218,99,99,0,1,0,0,0
1,19999,35,10000,93,0,0,9999,0.100000,99,0,0.020924,10,0.000000,21.078237,0.115162,99,99,0,0,0,1,0
1,19999,36,10000,78,0,40,9999,0.100000,99,0,0.000000,7,1.000000,16.281033,1.778162,99,99,0,0,0,0,0
1,19999,37,10000,8,0,41,9999,0.100000,99,0,0.000000,6,5.000000,34.058502,22.553193,99,99,0,0,0,0,0
1,19999,38,10000,93,0,40,9999,0.100000,99,0,0.000000,8,0.000000,29.250105,6.805695,99,99,0,0,0,0,0
1,19999,39,10000,8,0,40,9999,0.100000,99,0,0.000000,7,1.000000,29.950849,4.483338,99,99,0,0,0,0,0
1,19999,40,10000,8,0,0,9999,0.100000,99,0,0.003157,7,0.000000,24.197766,0.160575,99,99,0,0,0,0,1
1,19999,41,10000,17,0,1,9999,0.100000,99,0,35.913346,2,5.000000,31.305393,14.155579,99,99,0,1,0,0,0
1,19999,42,10000,93,0,1,9999,0.100000,99,0,1.518257,10,4.000000,26.262306,6.348792,99,99,0,1,0,0,0
1,19999,43,10000,2,0,40,9999,0.100000,99,0,0.000000,8,2.000000,24.355805,2.631106,99,99,0,0,0,0,0
1,19999,44,10000,2,0,40,9999,0.100000,99,0,0.000000,10,2.000000,28.498213,5.260203,99,99,0,0,0,0,0
1,19999,45,10000,55,0,40,9999,0.100000,99,0,0.000000,7,0.000000,19.258052,0.174202,99,99,0,0,0,0,0
1,19999,46,10000,8,0,40,9999,0.100000,99,0,0.000000,4,1.000000,24.132211,3.659845,99,99,0,0,0,0,0
1,19999,47,10000,55,0,0,9999,0.100000,99,0,2.389937,7,1.000000,21.646458,1.658270,99,99,0,1,0,0,0
1,19999,48,10000,65,0,40,9999,0.100000,99,0,0.000000,6,0.000000,26.758228,0.380847,99,99,0,0,0,0,0
1,19999,49,10000,93,0,40,9999,0.100000,99,0,0.000000,8,0.000000,19.884854,7.577645,99,99,0,0,0,0,0
1,19999,50,10000,2,0,1,9999,0.100000,99,0,0.089480,10,4.000000,23.273028,6.740428,99,99,0,1,0,0,0
1,19999,51,10000,76,0,41,9999,0.100000,99,0,0.000000,10,4.000000,31.232268,12.437746,99,99,0,0,0,0,0
1,19999,52,10000,2,0,41,9999,0.100000,99,0,0.000000,7,7.000000,34.419067,22.979697,99,99,0,0,0,0,0
1,19999,53,10000,46,0,40,9999,0.100000,99,0,0.000000,4,1.000000,30.152965,5.760274,99,99,0,0,0,0,0
1,19999,54,10000,93,0,40,9999,0.100000,99,0,0.000000,10,0.000000,18.406862,0.940216,99,99,0,0,0,0,0
1,19999,55,10000,65,0,41,9999,0.100000,99,0,0.000000,6,5.000000,28.415600,16.709972,99,99,0,0,0,0,0
1,19999,56,10000,65,0,0,9999,0.100000,99,0,0.284042,10,0.000000,26.465414,0.181301,99,99,0,0,0,0,1
1,19999,57,10000,76,0,40,9999,0.100000,99,0,0.000000,8,2.000000,31.650567,8.370028,99,99,0,0,0,0,0
1,19999,58,10000,61,0,40,9999,0.100000,99,0,0.000000,7,1.000000,23.991063,6.463305,99,99,0,0,0,0,0
1,19999,59,10000,76,0,0,9999,0.100000,99,0,0.048916,8,1.000000,26.098830,4.633168,99,99,0,0,0,1,0
1,19999,60,10000,78,0,40,9999,0.100000,99,0,0.000000,7,2.000000,22.386067,24.836285,99,99,0,0,0,0,0
1,19999,61,10000,31,0,40,9999,0.100000,99,0,0.000000,7,0.000000,23.998631,0.199868,99,99,0,0,0,0,0
1,19999,62,10000,93,0,40,9999,0.100000,99,0,0.000000,8,0.000000,19.348808,8.753188,99,99,0,0,0,0,0
1,19999,63,10000,44,0,41,9999,0.100000,99,0,0.000000,10,5.000000,25.461919,39.772406,99,99,0,0,0,0,0
1,19999,64,10000,76,0,41,9999,0.100000,99,0,0.000000,8,6.000000,35.578719,21.629682,99,99,0,0,0,0,0
1,19999,65,10000,2,0,40,9999,0.100000,99,0,0.000000,4,0.000000,24.204226,0.162208,99,99,0,0,0,0,0
1,19999,66,10000,55,0,40,9999,0.100000,99,0,0.000000,7,1.000000,30.634144,1.690170,99,99,0,0,0,0,0
1,19999,67,10000,93,0,40,9999,0.100000,99,0,0.000000,10,0.000000,12.959970,0.794235,99,99,0,0,0,0,0
1,19999,68,10000,78,0,40,9999,0.100000,99,0,0.000000,7,1.000000,29.927905,1.834427,99,99,0,0,0,0,0
1,19999,69,10000,2,0,40,9999,0.100000,99,0,0.000000,4,1.000000,18.275822,2.175901,99,99,0,0,0,0,0
1,19999,70,10000,65,0,40,9999,0.100000,99,0,0.000000,9,2.000000,29.367473,16.858603,99,99,0,0,0,0,0
1,19999,71,10000,2,0,0,9999,0.100000,99,0,0.000503,9,1.000000,27.483486,1.797407,99,99,0,0,0,0,1
1,19999,72,10000,2,0,0,9999,0.100000,99,0,0.078431,7,0.000000,19.020441,0.219042,99,99,0,1,0,0,0
1,19999,73,10000,8,0,40,9999,0.100000,99,0,0.000000,7,1.000000,30.399290,2.017601,99,99,0,0,0,0,0
1,19999,74,10000,2,0,3,9999,0.100000,99,0,1.425536,10,7.000000,17.205380,14.706085,99,99,0,0,0,1,0
1,19999,75,10000,2,0,40,9999,0.100000,99,0,0.000000,9,1.000000,25.758730,21.792961,99,99,0,0,0,0,0
1,19999,76,10000,65,0,40,9999,0.100000,99,0,0.000000,7,3.000000,28.782028,15.927287,99,99,0,0,0,0,0
1,19999,77,10000,31,0,40,9999,0.100000,99,0,0.000000,10,1.000000,31.533819,13.215294,99,99,0,0,0,0,0
1,19999,78,10000,46,0,40,9999,0.100000,99,0,0.000000,5,3.000000,33.843233,14.843894,99,99,0,0,0,0,0
1,19999,79,10000,2,0,0,9999,0.100000,99,0,0.000000,9,2.000000,30.626886,17.311102,99,99,0,0,1,0,0
1,19999,80,10000,61,0,40,9999,0.100000,99,0,0.000000,7,1.000000,27.781049,10.118212,99,99,0,0,0,0,0
1,19999,81,10000,65,0,40,9999,0.100000,99,0,0.000000,9,2.000000,25.324671,15.720568,99,99,0,0,0,0,0
1,19999,82,10000,76,0,40,9999,0.100000,99,0,0.000000,10,3.000000,31.018494,10.236966,99,99,0,0,0,0,0
1,19999,83,10000,85,0,40,9999,0.100000,99,0,0.000000,10,1.000000,24.263105,2.245843,99,99,0,0,0,0,0
1,19999,84,10000,76,0,0,9999,0.100000,99,0,0.000342,7,0.000000,20.248286,0.123928,99,99,0,0,0,1,0
1,19999,85,10000,76,0,0,9999,0.100000,99,0,0.124677,10,0.000000,26.863734,0.114279,99,99,0,0,0,0,1
1,19999,86,10000,76,0,41,9999,0.100000,99,0,0.000000,9,3.000000,17.091922,8.479535,99,99,0,0,0,0,0
1,19999,87,10000,2,0,41,9999,0.100000,99,0,0.000000,7,3.000000,20.117128,6.334629,99,99,0,0,0,0,0
1,19999,88,10000,65,0,41,9999,0.100000,99,0,0.000000,9,4.000000,26.703466,27.287451,99,99,0,0,0,0,0
1,19999,89,10000,14,0,40,9999,0.100000,99,0,0.000000,10,3.000000,32.040278,11.020983,99,99,0,0,0,0,0
1,19999,90,10000,14,0,40,9999,0.100000,99,0,0.000000,10,0.000000,20.233163,1.576362,99,99,0,0,0,0,0
1,19999,91,10000,8,0,40,9999,0.100000,99,0,0.000000,5,0.000000,13.077323,1.595337,99,99,0,0,0,0,0
1,19999,92,10000,65,0,40,9999,0.100000,99,0,0.000000,10,0.000000,21.873838,0.144087,99,99,0,0,0,0,0
1,19999,93,10000,78,0,90,9999,0.100000,99,0,2.850562,8,1.000000,34.457428,4.903261,99,99,1,0,0,0,0
1,19999,94,10000,14,0,40,9999,0.100000,99,0,0.000000,10,0.000000,22.114653,1.227492,99,99,0,0,0,0,0
1,19999,95,10000,78,0,0,9999,0.100000,99,0,0.248180,10,0.000000,17.303584,1.035454,99,99,0,1,0,0,0
1,19999,96,10000,86,0,40,9999,0.100000,99,0,0.000000,10,0.000000,26.164970,0.418745,99,99,0,0,0,0,0
1,19999,97,10000,65,0,1,9999,0.100000,99,0,16.409984,8,5.000000,36.057818,22.527752,99,99,0,1,0,0,0
1,19999,98,10000,65,0,40,9999,0.100000,99,0,0.000000,10,3.000000,33.136427,16.578521,99,99,0,0,0,0,0
1,19999,99,10000,65,0,40,9999,0.100000,99,0,0.000000,10,0.000000,29.921578,1.569275,99,99,0,0,0,0,0
2,29999,0,20000,13,10000,0,9999,0.100000,99,0,0.780966,10,1.000000,27.481714,3.008939,99,99,0,0,0,1,0
2,29999,1,20000,76,0,0,9999,0.100000,99,0,0.005925,10,0.000000,18.606514,0.803012,99,99,0,0,0,1,0
2,29999,2,20000,97,10000,41,9999,0.100000,99,0,0.000000,10,4.000000,31.960391,18.584803,99,99,0,0,0,0,0
2,29999,3,20000,85,0,0,9999,0.100000,99,0,0.031702,11,2.000000,25.780958,10.181879,99,99,0,0,0,0,1
2,29999,4,20000,65,0,40,9999,0.100000,99,0,0.000000,10,0.000000,26.197860,12.796626,99,99,0,0,0,0,0
2,29999,5,20000,31,0,0,9999,0.100000,99,0,9.571973,10,2.000000,30.804991,8.791807,99,99,0,1,0,0,0
2,29999,6,20000,11,0,2,9999,0.100000,99,0,44.817444,10,8.000000,25.341855,8.990791,99,99,0,0,1,0,0
2,29999,7,20000,65,0,0,9999,0.100000,99,0,0.257648,10,0.000000,30.948626,0.282465,99,99,0,0,0,1,0
2,29999,8,20000,44,0,40,9999,0.100000,99,0,0.000000,10,0.000000,21.493608,0.760568,99,99,0,0,0,0,0
2,29999,9,20000,78,0,1,9999,0.100000,99,0,16.975529,10,4.000000,22.890601,13.159596,99,99,0,1,0,0,0
2,29999,10,20000,44,0,0,9999,0.100000,99,0,2.665329,10,1.000000,22.853898,1.367050,99,99,0,0,1,0,0
2,29999,11,20000,0,10000,40,9999,0.100000,99,0,0.000000,10,2.000000,31.653957,10.421024,99,99,0,0,0,0,0
2,29999,12,20000,24,10000,0,9999,0.100000,99,0,0.740858,10,0.000000,12.651419,0.715437,99,99,0,0,0,1,0
2,29999,13,20000,11,0,40,9999,0.100000,99,0,0.000000,10,0.000000,11.097470,0.737041,99,99,0,0,0,0,0
2,29999,14,20000,0,10000,0,9999,0.100000,99,0,0.071641,10,0.000000,23.434979,0.107059,99,99,0,0,0,0,1
2,29999,15,20000,44,0,40,9999,0.100000,99,0,0.000000,10,2.000000,29.876758,10.398782,99,99,0,0,0,0,0
2,29999,16,20000,78,0,0,9999,0.100000,99,0,0.001662,10,0.000000,17.393121,0.130572,99,99,0,0,1,0,0
2,29999,17,20000,85,0,0,9999,0.100000,99,0,0.013962,10,0.000000,21.630687,0.175397,99,99,0,0,1,0,0
2,29999,18,20000,65,0,0,9999,0.100000,99,0,0.031916,10,0.000000,29.702859,0.150054,99,99,0,0,1,0,0
2,29999,19,20000,14,0,40,9999,0.100000,99,0,0.000000,10,2.000000,32.796311,8.386781,99,99,0,0,0,0,0
2,29999,20,20000,41,10000,40,9999,0.100000,99,0,0.000000,11,0.000000,26.906114,1.096510,99,99,0,0,0,0,0
2,29999,21,20000,31,0,40,9999,0.100000,99,0,0.000000,10,0.000000,18.861589,0.213302,99,99,0,0,0,0,0
2,29999,22,20000,14,0,0,9999,0.100000,99,0,0.002885,10,0.000000,23.083129,0.197767,99,99,0,0,0,0,1
2,29999,23,20000,11,0,0,9999,0.100000,99,0,0.159403,10,0.000000,19.334021,0.577985,99,99,0,0,0,0,1
2,29999,24,20000,31,0,40,9999,0.100000,99,0,0.000000,10,1.000000,35.416743,12.532110,99,99,0,0,0,0,0
2,29999,25,20000,41,10000,40,9999,0.100000,99,0,0.000000,10,2.000000,29.160042,8.042417,99,99,0,0,0,0,0
2,29999,26,20000,78,0,0,9999,0.100000,99,0,0.593423,10,0.000000,19.672322,0.200181,99,99,0,0,0,0,1
2,29999,27,20000,86,0,40,9999,0.100000,99,0,0.000000,10,0.000000,27.189288,0.288061,99,99,0,0,0,0,0
2,29999,28,20000,44,0,40,9999,0.100000,99,0,0.000000,10,0.000000,26.790267,0.399129,99,99,0,0,0,0,0
2,29999,29,20000,86,0,40,9999,0.100000,99,0,0.000000,10,0.000000,12.818920,1.477775,99,99,0,0,0,0,0
2,29999,30,20000,13,10000,40,9999,0.100000,99,0,0.000000,10,0.000000,30.505048,0.199661,99,99,0,0,0,0,0
2,29999,31,20000,19,10000,40,9999,0.100000,99,0,0.000000,10,3.000000,34.997400,26.377976,99,99,0,0,0,0,0
2,29999,32,20000,85,0,0,9999,0.100000,99,0,0.001642,10,0.000000,26.398679,0.109354,99,99,0,0,0,0,1
2,29999,33,20000,31,0,40,9999,0.100000,99,0,0.000000,11,2.000000,25.075220,11.644370,99,99,0,0,0,0,0
2,29999,34,20000,86,0,0,9999,0.100000,99,0,1.109260,10,0.000000,26.265434,0.636547,99,99,0,1,0,0,0
2,29999,35,20000,14,0,0,9999,0.100000,99,0,0.000645,10,0.000000,21.072452,0.088985,99,99,0,0,0,1,0
2,29999,36,20000,31,10000,40,9999,0.100000,99,0,0.000000,10,0.000000,15.826397,0.519185,99,99,0,0,0,0,0
2,29999,37,20000,41,10000,40,9999,0.100000,99,0,0.000000,10,3.000000,33.312061,11.003651,99,99,0,0,0,0,0
2,29999,38,20000,86,0,40,9999,0.100000,99,0,0.000000,10,2.000000,29.009559,7.954608,99,99,0,0,0,0,0
2,29999,39,20000,86,0,41,9999,0.100000,99,0,0.000000,10,6.000000,30.251552,22.634487,99,99,0,0,0,0,0
2,29999,40,20000,24,10000,40,9999,0.100000,99,0,0.000000,10,0.000000,24.197697,0.091856,99,99,0,0,0,0,0
2,29999,41,20000,41,10000,0,9999,0.100000,99,0,0.000000,10,2.000000,35.352786,8.041298,99,99,0,0,1,0,0
2,29999,42,20000,85,0,0,9999,0.100000,99,0,0.313569,10,0.000000,21.854982,0.191349,99,99,0,1,0,0,0
2,29999,43,20000,19,10000,42,9999,0.100000,99,0,0.000000,10,8.000000,25.903965,8.937706,99,99,0,0,0,0,0
2,29999,44,20000,41,10000,0,9999,0.100000,99,0,10.577960,10,2.000000,30.658119,7.123984,99,99,0,1,0,0,0
2,29999,45,20000,31,10000,40,9999,0.100000,99,0,0.000000,11,0.000000,19.195193,0.158510,99,99,0,0,0,0,0
2,29999,46,20000,13,10000,40,9999,0.100000,99,0,0.000000,10,0.000000,22.772075,0.061987,99,99,0,0,0,0,0
2,29999,47,20000,86,0,41,9999,0.100000,99,0,0.000000,10,3.000000,23.010101,13.094221,99,99,0,0,0,0,0
2,29999,48,20000,11,0,40,9999,0.100000,99,0,0.000000,10,0.000000,26.800876,0.530551,99,99,0,0,0,0,0
2,29999,49,20000,31,10000,0,9999,0.100000,99,0,1.554098,10,1.000000,19.895064,5.007902,99,99,0,1,0,0,0
2,29999,50,20000,31,10000,40,9999,0.100000,99,0,0.000000,10,0.000000,21.199555,8.036705,99,99,0,0,0,0,0
2,29999,51,20000,13,10000,41,9999,0.100000,99,0,0.000000,10,6.000000,29.934318,16.558897,99,99,0,0,0,0,0
2,29999,52,20000,14,0,40,9999,0.100000,99,0,0.000000,10,1.000000,27.497369,3.091562,99,99,0,0,0,0,0
2,29999,53,20000,19,10000,40,9999,0.100000,99,0,0.000000,10,0.000000,29.626500,0.134205,99,99,0,0,0,0,0
2,29999,54,20000,78,0,40,9999,0.100000,99,0,0.000000,10,0.000000,18.686214,0.567941,99,99,0,0,0,0,0
2,29999,55,20000,65,0,40,9999,0.100000,99,0,0.000000,10,2.000000,29.184130,20.327163,99,99,0,0,0,0,0
2,29999,56,20000,65,0,0,9999,0.100000,99,0,0.920128,10,0.000000,26.493497,0.266214,99,99,0,0,0,0,1
2,29999,57,20000,19,10000,41,9999,0.100000,99,0,0.000000,10,4.000000,31.426590,19.139653,99,99,0,0,0,0,0
2,29999,58,20000,85,0,40,9999,0.100000,99,0,0.000000,10,1.000000,22.956251,1.575450,99,99,0,0,0,0,0
2,29999,59,20000,13,10000,40,9999,0.100000,99,0,0.000000,10,0.000000,27.205921,1.553632,99,99,0,0,0,0,0
2,29999,60,20000,85,0,40,9999,0.100000,99,0,0.000000,10,1.000000,24.937859,13.290332,99,99,0,0,0,0,0
2,29999,61,20000,19,10000,40,9999,0.100000,99,0,0.000000,10,0.000000,24.008910,0.512242,99,99,0,0,0,0,0
2,29999,62,20000,13,10000,41,9999,0.100000,99,0,0.000000,10,2.000000,18.454969,17.159436,99,99,0,0,0,0,0
2,29999,63,20000,86,0,40,9999,0.100000,99,0,0.000000,10,2.000000,26.193752,18.961455,99,99,0,0,0,0,0
2,29999,64,20000,85,0,40,9999,0.100000,99,0,0.000000,10,3.000000,33.772090,18.880920,99,99,0,0,0,0,0
2,29999,65,20000,85,0,40,9999,0.100000,99,0,0.000000,10,0.000000,24.215167,0.171450,99,99,0,0,0,0,0
2,29999,66,20000,86,0,40,9999,0.100000,99,0,0.000000,10,0.000000,31.183603,1.597988,99,99,0,0,0,0,0
2,29999,67,20000,41,10000,48,9999,0.100000,99,0,0.000000,10,11.000000,12.515193,24.709065,99,99,0,0,0,0,0
2,29999,68,20000,31,0,41,9999,0.100000,99,0,0.000000,10,4.000000,29.304749,7.351972,99,99,0,0,0,0,0
2,29999,69,20000,78,0,40,9999,0.100000,99,0,0.000000,10,0.000000,18.867674,0.191366,99,99,0,0,0,0,0
2,29999,70,20000,85,0,40,9999,0.100000,99,0,0.000000,10,2.000000,31.126546,18.026625,99,99,0,0,0,0,0
2,29999,71,20000,78,0,0,9999,0.100000,99,0,0.011817,11,0.000000,26.469947,0.118557,99,99,0,0,0,0,1
2,29999,72,20000,11,0,0,9999,0.100000,99,0,0.119116,10,0.000000,19.046754,0.181413,99,99,0,1,0,0,0
2,29999,73,20000,97,10000,40,9999,0.100000,99,0,0.000000,10,0.000000,30.784713,0.271132,99,99,0,0,0,0,0
2,29999,74,20000,19,10000,0,9999,0.100000,99,0,1.597560,11,0.000000,17.625694,0.726126,99,99,0,0,0,1,0
2,29999,75,20000,0,10000,40,9999,0.100000,99,0,0.000000,10,1.000000,26.007321,14.943293,99,99,0,0,0,0,0
2,29999,76,20000,2,0,40,9999,0.100000,99,0,0.000000,10,2.000000,25.973070,14.725742,99,99,0,0,0,0,0
2,29999,77,20000,86,0,40,9999,0.100000,99,0,0.000000,10,1.000000,30.234494,11.657248,99,99,0,0,0,0,0
2,29999,78,20000,97,10000,40,9999,0.100000,99,0,0.000000,10,2.000000,29.849270,21.877058,99,99,0,0,0,0,0
2,29999,79,20000,27,10000,40,9999,0.100000,99,0,0.000000,10,2.000000,29.769389,21.049274,99,99,0,0,0,0,0
2,29999,80,20000,44,0,40,9999,0.100000,99,0,0.000000,10,0.000000,26.635524,0.339216,99,99,0,0,0,0,0
2,29999,81,20000,0,10000,41,9999,0.100000,99,0,0.000000,10,3.000000,24.794174,13.799158,99,99,0,0,0,0,0
2,29999,82,20000,31,0,40,9999,0.100000,99,0,0.000000,10,0.000000,34.203718,0.328980,99,99,0,0,0,0,0
2,29999,83,20000,11,0,42,9999,0.100000,99,0,0.000000,10,8.000000,25.639354,8.939991,99,99,0,0,0,0,0
2,29999,84,20000,27,10000,0,9999,0.100000,99,0,0.003839,10,0.000000,20.248395,2.753276,99,99,0,0,0,1,0
2,29999,85,20000,85,0,0,9999,0.100000,99,0,0.581485,10,0.000000,26.840561,0.207757,99,99,0,0,0,0,1
2,29999,86,20000,31,0,40,9999,0.100000,99,0,0.000000,10,0.000000,17.511677,0.927208,99,99,0,0,0,0,0
2,29999,87,20000,86,0,40,9999,0.100000,99,0,0.000000,10,0.000000,19.950876,6.063199,99,99,0,0,0,0,0
2,29999,88,20000,24,10000,42,9999,0.100000,99,0,0.000000,10,6.000000,26.395206,23.030085,99,99,0,0,0,0,0
2,29999,89,20000,24,10000,40,9999,0.100000,99,0,0.000000,10,2.000000,30.301778,11.266255,99,99,0,0,0,0,0
2,29999,90,20000,31,10000,40,9999,0.100000,99,0,0.000000,10,0.000000,19.992996,0.428062,99,99,0,0,0,0,0
2,29999,91,20000,11,0,45,9999,0.100000,99,0,0.000000,10,7.000000,12.796580,17.373260,99,99,0,0,0,0,0
2,29999,92,20000,65,0,40,9999,0.100000,99,0,0.000000,10,0.000000,21.884550,0.138267,99,99,0,0,0,0,0
2,29999,93,20000,78,0,41,9999,0.100000,99,0,0.000000,10,4.000000,34.652427,16.982975,99,99,0,0,0,0,0
2,29999,94,20000,31,0,0,9999,0.100000,99,0,0.014062,11,0.000000,22.551539,1.206170,99,99,0,0,0,1,0
2,29999,95,20000,86,0,0,9999,0.100000,99,0,0.188783,10,0.000000,17.457008,0.376856,99,99,0,1,0,0,0
2,29999,96,20000,78,0,40,9999,0.100000,99,0,0.000000,10,0.000000,26.180917,0.193304,99,99,0,0,0,0,0
2,29999,97,20000,97,10000,40,9999,0.100000,99,0,0.000000,10,0.000000,31.194559,10.183481,99,99,0,0,0,0,0
2,29999,98,20000,0,10000,40,9999,0.100000,99,0,0.000000,10,3.000000,31.451733,11.975149,99,99,0,0,0,0,0
2,29999,99,20000,31,0,41,9999,0.100000,99,0,0.000000,10,4.000000,29.869429,13.361989,99,99,0,0,0,0,0
3,39999,0,30000,0,10000,0,9999,0.100000,99,0,0.556828,11,0.000000,27.047021,0.775373,99,99,0,0,0,1,0
3,39999,1,30000,11,0,0,9999,0.100000,99,0,0.007573,11,0.000000,18.764464,0.123938,99,99,0,0,0,1,0
3,39999,2,30000,11,0,40,9999,0.100000,99,0,0.000000,11,1.000000,28.689442,6.661501,99,99,0,0,0,0,0
3,39999,3,30000,85,0,0,9999,0.100000,99,0,0.036410,11,0.000000,24.836579,0.078180,99,99,0,0,0,0,1
3,39999,4,30000,85,0,40,9999,0.100000,99,0,0.000000,11,0.000000,25.900390,12.672860,99,99,0,0,0,0,0
3,39999,5,30000,0,10000,40,9999,0.100000,99,0,0.000000,11,1.000000,32.731193,6.475232,99,99,0,0,0,0,0
3,39999,6,30000,74,10000,0,9999,0.100000,99,0,8.090665,12,2.000000,30.076847,2.956650,99,99,0,0,1,0,0
3,39999,7,30000,86,0,0,9999,0.100000,99,0,2.693788,11,0.000000,31.005885,0.970541,99,99,0,0,0,1,0
3,39999,8,30000,41,10000,40,9999,0.100000,99,0,0.000000,11,0.000000,21.408886,0.009644,99,99,0,0,0,0,0
3,39999,9,30000,11,0,0,9999,0.100000,99,0,5.262973,11,1.000000,26.279842,2.508785,99,99,0,1,0,0,0
3,39999,10,30000,0,10000,40,9999,0.100000,99,0,0.000000,11,0.000000,21.914389,1.073426,99,99,0,0,0,0,0
3,39999,11,30000,41,10000,40,9999,0.100000,99,0,0.000000,11,0.000000,32.675180,6.086726,99,99,0,0,0,0,0
3,39999,12,30000,31,10000,0,9999,0.100000,99,0,0.703034,11,0.000000,12.762912,0.616295,99,99,0,0,0,1,0
3,39999,13,30000,19,10000,40,9999,0.100000,99,0,0.000000,11,0.000000,11.452612,0.540399,99,99,0,0,0,0,0
3,39999,14,30000,11,0,0,9999,0.100000,99,0,0.028271,12,0.000000,23.420330,0.099945,99,99,0,0,0,0,1
3,39999,15,30000,74,10000,40,9999,0.100000,99,0,0.000000,12,3.000000,32.162162,11.945964,99,99,0,0,0,0,0
3,39999,16,30000,85,0,0,9999,0.100000,99,0,0.003573,11,0.000000,17.390805,0.127877,99,99,0,0,1,0,0
3,39999,17,30000,74,10000,0,9999,0.100000,99,0,0.015567,11,0.000000,21.639662,0.174038,99,99,0,0,1,0,0
3,39999,18,30000,88,20000,0,9999,0.100000,99,0,1.209587,11,0.000000,29.697719,0.318777,99,99,0,0,1,0,0
3,39999,19,30000,0,10000,41,9999,0.100000,99,0,0.000000,12,4.000000,32.517517,8.883673,99,99,0,0,0,0,0
3,39999,20,30000,86,0,40,9999,0.100000,99,0,0.000000,11,0.000000,26.623443,0.397171,99,99,0,0,0,0,0
3,39999,21,30000,19,10000,40,9999,0.100000,99,0,0.000000,12,0.000000,18.927682,0.116154,99,99,0,0,0,0,0
3,39999,22,30000,41,10000,0,9999,0.100000,99,0,0.003542,12,0.000000,23.081575,0.197081,99,99,0,0,0,0,1
3,39999,23,30000,31,0,0,9999,0.100000,99,0,0.039952,11,0.000000,19.300852,3.110766,99,99,0,0,0,0,1
3,39999,24,30000,11,0,41,9999,0.100000,99,0,0.000000,11,7.000000,36.097470,25.082873,99,99,0,0,0,0,0
3,39999,25,30000,0,10000,40,9999,0.100000,99,0,0.000000,12,1.000000,29.361421,5.481204,99,99,0,0,0,0,0
3,39999,26,30000,6,20000,0,9999,0.100000,99,0,0.438328,12,0.000000,19.628297,0.150810,99,99,0,0,0,0,1
3,39999,27,30000,31,0,40,9999,0.100000,99,0,0.000000,11,0.000000,27.150483,0.208163,99,99,0,0,0,0,0
3,39999,28,30000,85,0,40,9999,0.100000,99,0,0.000000,11,0.000000,26.611673,0.146030,99,99,0,0,0,0,0
3,39999,29,30000,31,10000,40,9999,0.100000,99,0,0.000000,11,0.000000,12.907184,1.588835,99,99,0,0,0,0,0
3,39999,30,30000,31,0,40,9999,0.100000,99,0,0.000000,11,0.000000,30.550516,1.273935,99,99,0,0,0,0,0
3,39999,31,30000,85,0,40,9999,0.100000,99,0,0.000000,11,2.000000,31.720336,15.576782,99,99,0,0,0,0,0
3,39999,32,30000,0,10000,0,9999,0.100000,99,0,0.001593,11,0.000000,26.398699,0.098129,99,99,0,0,0,0,1
3,39999,33,30000,11,0,40,9999,0.100000,99,0,0.000000,11,2.000000,27.321253,8.363349,99,99,0,0,0,0,0
3,39999,34,30000,31,0,0,9999,0.100000,99,0,2.459377,12,2.000000,26.145938,3.611631,99,99,0,1,0,0,0
3,39999,35,30000,41,10000,0,9999,0.100000,99,0,0.000627,11,0.000000,21.072119,0.088344,99,99,0,0,0,1,0
3,39999,36,30000,11,0,40,9999,0.100000,99,0,0.000000,11,0.000000,15.834997,0.518380,99,99,0,0,0,0,0
3,39999,37,30000,31,10000,40,9999,0.100000,99,0,0.000000,11,0.000000,32.031964,1.128685,99,99,0,0,0,0,0
3,39999,38,30000,41,10000,40,9999,0.100000,99,0,0.000000,11,0.000000,27.044580,1.557474,99,99,0,0,0,0,0
3,39999,39,30000,19,10000,0,9999,0.100000,99,0,0.201099,11,0.000000,26.307113,0.898432,99,99,0,0,0,0,1
3,39999,40,30000,19,10000,40,9999,0.100000,99,0,0.000000,11,0.000000,24.203178,0.090053,99,99,0,0,0,0,0
3,39999,41,30000,31,10000,40,9999,0.100000,99,0,0.000000,11,0.000000,34.847791,0.228364,99,99,0,0,0,0,0
3,39999,42,30000,31,0,40,9999,0.100000,99,0,0.000000,11,0.000000,21.886823,2.896923,99,99,0,0,0,0,0
3,39999,43,30000,19,10000,40,9999,0.100000,99,0,0.000000,11,2.000000,30.509342,2.861946,99,99,0,0,0,0,0
3,39999,44,30000,74,10000,40,9999,0.100000,99,0,0.000000,11,3.000000,32.224848,14.131861,99,99,0,0,0,0,0
3,39999,45,30000,74,10000,40,9999,0.100000,99,0,0.000000,11,0.000000,19.149068,0.150975,99,99,0,0,0,0,0
3,39999,46,30000,85,0,40,9999,0.100000,99,0,0.000000,11,0.000000,22.769951,0.062224,99,99,0,0,0,0,0
3,39999,47,30000,6,20000,40,9999,0.100000,99,0,0.000000,12,1.000000,26.049221,5.969199,99,99,0,0,0,0,0
3,39999,48,30000,19,10000,40,9999,0.100000,99,0,0.000000,12,0.000000,26.626234,0.282053,99,99,0,0,0,0,0
3,39999,49,30000,31,10000,0,9999,0.100000,99,0,3.550769,11,0.000000,21.177273,1.594192,99,99,0,1,0,0,0
3,39999,50,30000,0,10000,0,9999,0.100000,99,0,2.783854,11,0.000000,21.972092,1.459306,99,99,0,1,0,0,0
3,39999,51,30000,31,0,40,9999,0.100000,99,0,0.000000,11,1.000000,30.426322,7.447521,99,99,0,0,0,0,0
3,39999,52,30000,88,20000,40,9999,0.100000,99,0,0.000000,11,1.000000,26.275190,5.978243,99,99,0,0,0,0,0
3,39999,53,30000,74,10000,40,9999,0.100000,99,0,0.000000,11,0.000000,29.620767,0.197665,99,99,0,0,0,0,0
3,39999,54,30000,31,0,40,9999,0.100000,99,0,0.000000,11,0.000000,18.626605,0.118742,99,99,0,0,0,0,0
3,39999,55,30000,31,0,40,9999,0.100000,99,0,0.000000,12,0.000000,30.504389,12.627515,99,99,0,0,0,0,0
3,39999,56,30000,88,20000,0,9999,0.100000,99,0,0.428584,11,0.000000,26.402067,0.287250,99,99,0,0,0,0,1
3,39999,57,30000,6,20000,40,9999,0.100000,99,0,0.000000,12,1.000000,30.294900,10.892545,99,99,0,0,0,0,0
3,39999,58,30000,31,0,40,9999,0.100000,99,0,0.000000,12,0.000000,22.029775,2.522716,99,99,0,0,0,0,0
3,39999,59,30000,86,0,40,9999,0.100000,99,0,0.000000,11,1.000000,27.175643,5.097152,99,99,0,0,0,0,0
3,39999,60,30000,78,0,40,9999,0.100000,99,0,0.000000,12,2.000000,24.804443,14.075656,99,99,0,0,0,0,0
3,39999,61,30000,11,0,40,9999,0.100000,99,0,0.000000,11,0.000000,23.979769,0.090686,99,99,0,0,0,0,0
3,39999,62,30000,0,10000,40,9999,0.100000,99,0,0.000000,11,0.000000,21.007026,2.690442,99,99,0,0,0,0,0
3,39999,63,30000,85,0,40,9999,0.100000,99,0,0.000000,11,2.000000,25.264792,18.798004,99,99,0,0,0,0,0
3,39999,64,30000,0,10000,40,9999,0.100000,99,0,0.000000,11,3.000000,30.985592,14.272749,99,99,0,0,0,0,0
3,39999,65,30000,31,10000,40,9999,0.100000,99,0,0.000000,11,0.000000,24.184355,0.356848,99,99,0,0,0,0,0
3,39999,66,30000,13,10000,40,9999,0.100000,99,0,0.000000,11,0.000000,31.230451,1.615602,99,99,0,0,0,0,0
3,39999,67,30000,41,10000,40,9999,0.100000,99,0,0.000000,13,0.000000,12.675932,0.521905,99,99,0,0,0,0,0
3,39999,68,30000,91,20000,40,9999,0.100000,99,0,0.000000,12,0.000000,25.184647,0.225780,99,99,0,0,0,0,0
3,39999,69,30000,85,0,40,9999,0.100000,99,0,0.000000,11,0.000000,18.843799,0.251657,99,99,0,0,0,0,0
3,39999,70,30000,19,10000,40,9999,0.135000,99,0,0.000000,11,3.000000,30.779933,15.309210,99,99,0,0,0,0,0
3,39999,71,30000,88,20000,40,9999,0.100000,99,0,0.000000,11,0.000000,26.478793,2.604427,99,99,0,0,0,0,0
3,39999,72,30000,88,20000,0,9999,0.100000,99,0,0.165301,11,0.000000,19.073630,0.173427,99,99,0,1,0,0,0
3,39999,73,30000,85,0,40,9999,0.100000,99,0,0.000000,11,0.000000,30.836349,0.800076,99,99,0,0,0,0,0
3,39999,74,30000,78,0,0,9999,0.100000,99,0,1.134739,13,0.000000,18.141097,0.690637,99,99,0,0,0,1,0
3,39999,75,30000,41,10000,40,9999,0.100000,99,0,0.000000,11,0.000000,26.759430,6.013404,99,99,0,0,0,0,0
3,39999,76,30000,41,10000,40,9999,0.100000,99,0,0.000000,11,1.000000,25.546130,8.417779,99,99,0,0,0,0,0
3,39999,77,30000,11,0,40,9999,0.100000,99,0,0.000000,11,1.000000,28.858279,11.711354,99,99,0,0,0,0,0
3,39999,78,30000,19,10000,40,9999,0.100000,99,0,0.000000,12,2.000000,30.366023,21.121264,99,99,0,0,0,0,0
3,39999,79,30000,11,0,40,9999,0.100000,99,0,0.000000,13,1.000000,29.959710,10.915404,99,99,0,0,0,0,0
3,39999,80,30000,78,0,40,9999,0.100000,99,0,0.000000,11,0.000000,26.553023,0.129457,99,99,0,0,0,0,0
3,39999,81,30000,78,0,40,9999,0.100000,99,0,0.000000,11,0.000000,26.740720,0.914989,99,99,0,0,0,0,0
3,39999,82,30000,13,10000,40,9999,0.100000,99,0,0.000000,11,0.000000,34.298412,0.241747,99,99,0,0,0,0,0
3,39999,83,30000,6,20000,40,9999,0.100000,99,0,0.000000,12,2.000000,30.304458,2.763685,99,99,0,0,0,0,0
3,39999,84,30000,86,0,0,9999,0.100000,99,0,0.008667,11,0.000000,20.250514,1.450171,99,99,0,0,0,1,0
3,39999,85,30000,31,10000,0,9999,0.100000,99,0,0.856918,11,0.000000,26.716847,0.252198,99,99,0,0,0,0,1
3,39999,86,30000,0,10000,40,9999,0.100000,99,0,0.000000,13,0.000000,18.022508,0.732808,99,99,0,0,0,0,0
3,39999,87,30000,78,0,40,9999,0.100000,99,0,0.000000,12,0.000000,19.310300,5.223019,99,99,0,0,0,0,0
3,39999,88,30000,31,10000,40,9999,0.100000,99,0,0.000000,11,2.000000,25.520113,5.917439,99,99,0,0,0,0,0
3,39999,89,30000,31,0,40,9999,0.100000,99,0,0.000000,11,3.000000,31.005593,5.547893,99,99,0,0,0,0,0
3,39999,90,30000,88,20000,40,9999,0.100000,99,0,0.000000,11,0.000000,19.948901,0.437842,99,99,0,0,0,0,0
3,39999,91,30000,74,10000,40,9999,0.100000,99,0,0.000000,12,0.000000,13.002314,0.765777,99,99,0,0,0,0,0
3,39999,92,30000,78,0,40,9999,0.100000,99,0,0.000000,11,0.000000,21.893196,0.134989,99,99,0,0,0,0,0
3,39999,93,30000,86,0,40,9999,0.100000,99,0,0.000000,12,2.000000,31.862321,17.923763,99,99,0,0,0,0,0
3,39999,94,30000,19,10000,0,9999,0.100000,99,0,0.041444,11,0.000000,22.942021,0.633617,99,99,0,0,0,0,1
3,39999,95,30000,19,10000,0,9999,0.100000,99,0,0.280082,11,0.000000,17.519930,0.143501,99,99,0,1,0,0,0
3,39999,96,30000,78,0,40,9999,0.100000,99,0,0.000000,11,0.000000,26.135197,0.333274,99,99,0,0,0,0,0
3,39999,97,30000,6,20000,40,9999,0.100000,99,0,0.000000,12,2.000000,31.067901,4.226585,99,99,0,0,0,0,0
3,39999,98,30000,19,10000,42,9999,0.100000,99,0,0.000000,12,7.000000,33.225666,23.461500,99,99,0,0,0,0,0
3,39999,99,30000,31,0,41,9999,0.100000,99,0,0.000000,11,3.000000,25.354579,13.195462,99,99,0,0,0,0,0
4,49999,0,40000,0,10000,0,9999,0.100000,99,0,0.771188,13,0.000000,27.457290,0.427966,99,99,0,0,0,1,0
4,49999,1,40000,11,0,0,9999,0.100000,99,0,0.007632,13,0.000000,18.759899,0.121232,99,99,0,0,0,1,0
4,49999,2,40000,6,20000,40,9999,0.100000,99,0,0.000000,13,1.000000,30.182273,15.256741,99,99,0,0,0,0,0
4,49999,3,40000,41,10000,0,9999,0.100000,99,0,0.004145,13,0.000000,24.838345,0.082311,99,99,0,0,0,0,1
4,49999,4,40000,86,0,41,9999,0.100000,99,0,0.000000,13,4.000000,26.196706,16.182702,99,99,0,0,0,0,0
4,49999,5,40000,31,10000,41,9999,0.100000,99,0,0.000000,13,7.000000,33.280027,24.123540,99,99,0,0,0,0,0
4,49999,6,40000,6,20000,40,9999,0.100000,99,0,0.000000,13,1.000000,32.331091,6.949224,99,99,0,0,0,0,0
4,49999,7,40000,11,0,40,9999,0.100000,99,0,0.000000,13,0.000000,31.237057,0.565514,99,99,0,0,0,0,0
4,49999,8,40000,31,0,40,9999,0.100000,99,0,0.000000,13,0.000000,21.409072,0.009724,99,99,0,0,0,0,0
4,49999,9,40000,11,0,0,9999,0.100000,99,0,1.473469,13,0.000000,27.152977,0.642847,99,99,0,1,0,0,0
4,49999,10,40000,74,10000,40,9999,0.100000,99,0,0.000000,13,0.000000,21.588505,0.429671,99,99,0,0,0,0,0
4,49999,11,40000,31,10000,40,9999,0.100000,99,0,0.000000,13,0.000000,32.711843,6.816493,99,99,0,0,0,0,0
4,49999,12,40000,91,20000,42,9999,0.100000,99,0,0.000000,13,3.000000,12.868676,11.117128,99,99,0,0,0,0,0
4,49999,13,40000,11,0,40,9999,0.100000,99,0,0.000000,13,0.000000,11.814223,0.465414,99,99,0,0,0,0,0
4,49999,14,40000,67,20000,0,9999,0.100000,99,0,0.471772,13,0.000000,23.420426,0.510911,99,99,0,0,0,0,1
4,49999,15,40000,6,20000,40,9999,0.100000,99,0,0.000000,13,0.000000,30.590259,11.261556,99,99,0,0,0,0,0
4,49999,16,40000,6,20000,0,9999,0.100000,99,0,0.005462,13,0.000000,17.389665,0.148229,99,99,0,0,1,0,0
4,49999,17,40000,0,10000,0,9999,0.100000,99,0,0.015963,13,0.000000,21.648488,0.174878,99,99,0,0,1,0,0
4,49999,18,40000,88,20000,40,9999,0.100000,99,0,0.000000,13,2.000000,29.866196,10.408085,99,99,0,0,0,0,0
4,49999,19,40000,74,10000,41,9999,0.100000,99,0,0.000000,13,5.000000,28.529710,8.726670,99,99,0,0,0,0,0
4,49999,20,40000,31,0,40,9999,0.100000,99,0,0.000000,13,0.000000,26.386683,0.468401,99,99,0,0,0,0,0
4,49999,21,40000,6,20000,40,9999,0.100000,99,0,0.000000,13,0.000000,18.923117,0.114265,99,99,0,0,0,0,0
4,49999,22,40000,41,10000,0,9999,0.100000,99,0,0.003435,13,0.000000,23.079848,0.198279,99,99,0,0,0,0,1
4,49999,23,40000,74,10000,0,9999,0.100000,99,0,0.097464,13,0.000000,19.365234,0.902583,99,99,0,0,0,0,1
4,49999,24,40000,6,20000,40,9999,0.100000,99,0,0.000000,13,0.000000,36.143431,12.899928,99,99,0,0,0,0,0
4,49999,25,40000,88,20000,40,9999,0.100000,99,0,0.000000,13,2.000000,28.237333,8.876229,99,99,0,0,0,0,0
4,49999,26,40000,11,0,40,9999,0.100000,99,0,0.000000,13,0.000000,19.591858,0.135061,99,99,0,0,0,0,0
4,49999,27,40000,11,0,40,9999,0.100000,99,0,0.000000,13,0.000000,27.151334,0.209217,99,99,0,0,0,0,0
4,49999,28,40000,86,0,40,9999,0.100000,99,0,0.000000,13,0.000000,26.544322,0.176405,99,99,0,0,0,0,0
4,49999,29,40000,74,10000,0,9999,0.100000,99,0,0.123107,13,0.000000,13.037360,4.767121,99,99,0,0,0,1,0
4,49999,30,40000,31,0,0,9999,0.100000,99,0,0.505762,13,0.000000,30.763152,0.175246,99,99,0,0,0,1,0
4,49999,31,40000,31,0,40,9999,0.100000,99,0,0.000000,13,2.000000,33.294081,3.127963,99,99,0,0,0,0,0
4,49999,32,40000,31,0,0,9999,0.100000,99,0,0.001129,13,0.000000,26.398642,0.072329,99,99,0,0,0,0,1
4,49999,33,40000,91,20000,40,9999,0.100000,99,0,0.000000,13,0.000000,29.290600,8.530671,99,99,0,0,0,0,0
4,49999,34,40000,31,10000,0,9999,0.100000,99,0,5.636274,13,1.000000,27.402013,1.779270,99,99,0,1,0,0,0
4,49999,35,40000,0,10000,0,9999,0.100000,99,0,0.000188,13,0.000000,21.071834,0.089011,99,99,0,0,0,1,0
4,49999,36,40000,91,20000,40,9999,0.100000,99,0,0.000000,13,0.000000,15.846108,0.517140,99,99,0,0,0,0,0
4,49999,37,40000,67,20000,40,9999,0.100000,99,0,0.000000,13,0.000000,31.941982,0.790876,99,99,0,0,0,0,0
4,49999,38,40000,0,10000,40,9999,0.100000,99,0,0.000000,13,0.000000,27.666804,0.244972,99,99,0,0,0,0,0
4,49999,39,40000,11,0,0,9999,0.100000,99,0,0.289782,13,0.000000,25.915341,0.993074,99,99,0,0,0,0,1
4,49999,40,40000,31,0,40,9999,0.100000,99,0,0.000000,13,0.000000,24.206040,0.108176,99,99,0,0,0,0,0
4,49999,41,40000,88,20000,40,9999,0.100000,99,0,0.000000,13,0.000000,34.847399,0.235617,99,99,0,0,0,0,0
4,49999,42,40000,31,0,40,9999,0.100000,99,0,0.000000,13,0.000000,21.929291,0.853817,99,99,0,0,0,0,0
4,49999,43,40000,31,10000,40,9999,0.100000,99,0,0.000000,13,0.000000,32.532457,2.280582,99,99,0,0,0,0,0
4,49999,44,40000,78,0,40,9999,0.100000,99,0,0.000000,13,2.000000,28.506286,18.666859,99,99,0,0,0,0,0
4,49999,45,40000,6,20000,0,9999,0.100000,99,0,0.396538,13,0.000000,19.113235,0.156908,99,99,0,0,0,0,1
4,49999,46,40000,88,20000,40,9999,0.100000,99,0,0.000000,13,0.000000,22.767594,0.061597,99,99,0,0,0,0,0
4,49999,47,40000,86,0,40,9999,0.100000,99,0,0.000000,13,0.000000,27.371033,0.734265,99,99,0,0,0,0,0
4,49999,48,40000,41,10000,40,9999,0.100000,99,0,0.000000,13,0.000000,26.530597,0.383115,99,99,0,0,0,0,0
4,49999,49,40000,6,20000,0,9999,0.100000,99,0,1.487957,13,0.000000,21.831960,0.720825,99,99,0,1,0,0,0
4,49999,50,40000,19,10000,0,9999,0.100000,99,0,1.501439,13,0.000000,22.489582,0.457808,99,99,0,1,0,0,0
4,49999,51,40000,31,10000,42,9999,0.100000,99,0,0.000000,13,7.000000,29.469422,19.647642,99,99,0,0,0,0,0
4,49999,52,40000,11,0,40,9999,0.100000,99,0,0.000000,13,1.000000,27.175740,1.317668,99,99,0,0,0,0,0
4,49999,53,40000,19,10000,40,9999,0.100000,99,0,0.000000,13,3.000000,29.670585,13.075774,99,99,0,0,0,0,0
4,49999,54,40000,6,20000,40,9999,0.100000,99,0,0.000000,13,0.000000,18.622102,0.117936,99,99,0,0,0,0,0
4,49999,55,40000,6,20000,41,9999,0.100000,99,0,0.000000,13,5.000000,30.381934,24.465341,99,99,0,0,0,0,0
4,49999,56,40000,31,0,0,9999,0.100000,99,0,1.327048,13,0.000000,26.303242,0.353352,99,99,0,0,0,0,1
4,49999,57,40000,11,0,41,9999,0.100000,99,0,0.000000,13,4.000000,30.737389,9.854652,99,99,0,0,0,0,0
4,49999,58,40000,0,10000,40,9999,0.100000,99,0,0.000000,13,0.000000,21.556122,2.052241,99,99,0,0,0,0,0
4,49999,59,40000,0,10000,40,9999,0.100000,99,0,0.000000,13,0.000000,28.138544,0.659273,99,99,0,0,0,0,0
4,49999,60,40000,91,20000,41,9999,0.100000,99,0,0.000000,13,3.000000,26.653453,11.615511,99,99,0,0,0,0,0
4,49999,61,40000,41,10000,40,9999,0.100000,99,0,0.000000,13,0.000000,23.969196,0.403304,99,99,0,0,0,0,0
4,49999,62,40000,6,20000,40,9999,0.100000,99,0,0.000000,13,0.000000,21.796224,1.873479,99,99,0,0,0,0,0
4,49999,63,40000,86,0,40,9999,0.100000,99,0,0.000000,13,0.000000,25.975781,5.205472,99,99,0,0,0,0,0
4,49999,64,40000,0,10000,40,9999,0.100000,99,0,0.000000,13,0.000000,30.910049,1.265708,99,99,0,0,0,0,0
4,49999,65,40000,6,20000,40,9999,0.100000,99,0,0.000000,13,0.000000,24.169389,0.362240,99,99,0,0,0,0,0
4,49999,66,40000,41,10000,40,9999,0.100000,99,0,0.000000,13,0.000000,31.478749,1.377911,99,99,0,0,0,0,0
4,49999,67,40000,6,20000,40,9999,0.100000,99,0,0.000000,13,1.000000,12.770619,6.002574,99,99,0,0,0,0,0
4,49999,68,40000,31,0,40,9999,0.100000,99,0,0.000000,13,0.000000,25.187346,0.229302,99,99,0,0,0,0,0
4,49999,69,40000,91,20000,40,9999,0.100000,99,0,0.000000,13,0.000000,18.884285,0.173451,99,99,0,0,0,0,0
4,49999,70,40000,41,10000,40,9999,0.100000,99,0,0.000000,13,0.000000,30.997069,1.725361,99,99,0,0,0,0,0
4,49999,71,40000,67,20000,40,9999,0.100000,99,0,0.000000,13,0.000000,26.411868,0.662248,99,99,0,0,0,0,0
4,49999,72,40000,74,10000,0,9999,0.100000,99,0,0.151739,13,0.000000,19.098738,0.180780,99,99,0,1,0,0,0
4,49999,73,40000,74,10000,40,9999,0.100000,99,0,0.000000,13,0.000000,31.029754,0.211501,99,99,0,0,0,0,0
4,49999,74,40000,74,10000,0,9999,0.100000,99,0,0.954963,13,0.000000,18.596943,0.585362,99,99,0,0,0,1,0
4,49999,75,40000,88,20000,40,9999,0.100000,99,0,0.000000,13,0.000000,27.336728,0.555821,99,99,0,0,0,0,0
4,49999,76,40000,31,10000,41,9999,0.100000,99,0,0.000000,13,5.000000,24.364210,12.208069,99,99,0,0,0,0,0
4,49999,77,40000,0,10000,40,9999,0.100000,99,0,0.000000,13,3.000000,29.354887,8.603356,99,99,0,0,0,0,0
4,49999,78,40000,31,10000,40,9999,0.100000,99,0,0.000000,13,1.000000,32.348507,8.493328,99,99,0,0,0,0,0
4,49999,79,40000,86,0,40,9999,0.100000,99,0,0.000000,13,2.000000,29.951640,11.655895,99,99,0,0,0,0,0
4,49999,80,40000,88,20000,41,9999,0.100000,99,0,0.000000,13,3.000000,26.493264,6.464082,99,99,0,0,0,0,0
4,49999,81,40000,67,20000,40,9999,0.100000,99,0,0.000000,13,0.000000,26.495647,0.890711,99,99,0,0,0,0,0
4,49999,82,40000,11,0,40,9999,0.100000,99,0,0.000000,13,0.000000,34.299446,0.234817,99,99,0,0,0,0,0
4,49999,83,40000,86,0,0,9999,0.100000,99,0,6.948058,13,1.000000,32.436493,4.637467,99,99,0,0,1,0,0
4,49999,84,40000,78,0,0,9999,0.100000,99,0,0.002804,13,0.000000,20.250896,0.194667,99,99,0,0,0,1,0
4,49999,85,40000,88,20000,0,9999,0.100000,99,0,1.024425,13,0.000000,26.513939,0.302493,99,99,0,0,0,0,1
4,49999,86,40000,74,10000,40,9999,0.100000,99,0,0.000000,13,0.000000,18.474476,0.786237,99,99,0,0,0,0,0
4,49999,87,40000,0,10000,40,9999,0.100000,99,0,0.000000,13,0.000000,19.422918,2.852933,99,99,0,0,0,0,0
4,49999,88,40000,19,10000,40,9999,0.100000,99,0,0.000000,13,0.000000,28.226851,0.951877,99,99,0,0,0,0,0
4,49999,89,40000,41,10000,40,9999,0.100000,99,0,0.000000,13,3.000000,32.541926,11.500040,99,99,0,0,0,0,0
4,49999,90,40000,88,20000,40,9999,0.100000,99,0,0.000000,13,0.000000,19.915852,0.372116,99,99,0,0,0,0,0
4,49999,91,40000,0,10000,40,9999,0.100000,99,0,0.000000,13,1.000000,13.127878,17.089662,99,99,0,0,0,0,0
4,49999,92,40000,78,0,40,9999,0.100000,99,0,0.000000,13,2.000000,21.901647,5.704124,99,99,0,0,0,0,0
4,49999,93,40000,78,0,40,9999,0.100000,99,0,0.000000,13,2.000000,30.628408,14.537662,99,99,0,0,0,0,0
4,49999,94,40000,91,20000,40,9999,0.100000,99,0,0.000000,13,0.000000,23.210035,0.169827,99,99,0,0,0,0,0
4,49999,95,40000,88,20000,0,9999,0.100000,99,0,0.274815,13,0.000000,17.467114,0.143643,99,99,0,1,0,0,0
4,49999,96,40000,91,20000,40,9999,0.100000,99,0,0.000000,13,0.000000,26.037605,0.754507,99,99,0,0,0,0,0
4,49999,97,40000,31,0,41,9999,0.100000,99,0,0.000000,13,4.000000,33.346066,18.801872,99,99,0,0,0,0,0
4,49999,98,40000,6,20000,41,9999,0.100000,99,0,0.000000,13,3.000000,27.498360,10.074035,99,99,0,0,0,0,0
4,49999,99,40000,74,10000,2,9999,0.100000,99,0,0.000065,13,7.000000,22.498668,10.822124,99,99,0,0,0,0,1
5,59999,0,50000,41,10000,0,9999,0.100000,99,0,0.752676,13,0.000000,27.611169,0.359528,99,99,0,0,0,2,0
5,59999,1,50000,67,20000,0,9999,0.100000,99,0,0.009106,13,0.000000,18.755015,0.131745,99,99,0,0,0,1,0
5,59999,2,50000,6,20000,40,9999,0.100000,99,0,0.000000,13,0.000000,30.191014,10.470144,99,99,0,0,0,0,0
5,59999,3,50000,41,10000,0,9999,0.100000,99,0,0.027932,13,0.000000,24.841791,0.075686,99,99,0,0,0,0,1
5,59999,4,50000,31,10000,40,9999,0.100000,99,0,0.000000,13,1.000000,25.442436,3.012414,99,99,0,0,0,0,0
5,59999,5,50000,0,10000,40,9999,0.100000,99,0,0.000000,13,1.000000,33.517876,6.440281,99,99,0,0,0,0,0
5,59999,6,50000,57,40000,0,9999,0.100000,99,0,17.045262,13,2.000000,32.834732,5.691153,99,99,0,0,1,0,0
5,59999,7,50000,88,20000,40,9999,0.100000,99,0,0.000000,13,0.000000,31.160290,0.715790,99,99,0,0,0,0,0
5,59999,8,50000,91,20000,40,9999,0.100000,99,0,0.000000,13,0.000000,21.409138,0.009790,99,99,0,0,0,0,0
5,59999,9,50000,11,0,0,9999,0.100000,99,0,1.214049,13,0.000000,27.317662,0.614008,99,99,0,1,0,0,0
5,59999,10,50000,91,20000,40,9999,0.100000,99,0,0.000000,13,0.000000,21.469266,0.512745,99,99,0,0,0,0,0
5,59999,11,50000,67,20000,40,9999,0.100000,99,0,0.000000,13,1.000000,32.990822,7.003877,99,99,0,0,0,0,0
5,59999,12,50000,11,0,40,9999,0.100000,99,0,0.000000,13,0.000000,15.449165,0.671589,99,99,0,0,0,0,0
5,59999,13,50000,67,20000,40,9999,0.135000,99,0,0.000000,13,0.000000,12.134343,0.358946,99,99,0,0,0,0,0
5,59999,14,50000,0,10000,0,9999,0.100000,99,0,0.133842,13,0.000000,23.292634,0.762738,99,99,0,0,0,0,1
5,59999,15,50000,41,10000,40,9999,0.100000,99,0,0.000000,13,3.000000,30.544623,11.598323,99,99,0,0,0,0,0
5,59999,16,50000,0,10000,0,9999,0.100000,99,0,0.003376,13,0.000000,17.384680,0.125090,99,99,0,0,1,0,0
5,59999,17,50000,31,0,40,9999,0.100000,99,0,0.000000,13,0.000000,21.655480,0.360841,99,99,0,0,0,0,0
5,59999,18,50000,41,10000,40,9999,0.100000,99,0,0.000000,13,2.000000,27.454683,10.104246,99,99,0,0,0,0,0
5,59999,19,50000,31,10000,40,9999,0.100000,99,0,0.000000,13,0.000000,33.987821,1.058949,99,99,0,0,0,0,0
5,59999,20,50000,41,10000,40,9999,0.100000,99,0,0.000000,13,0.000000,26.078755,0.415344,99,99,0,0,0,0,0
5,59999,21,50000,88,20000,40,9999,0.100000,99,0,0.000000,13,0.000000,18.918092,0.109829,99,99,0,0,0,0,0
5,59999,22,50000,78,0,0,9999,0.100000,99,0,0.044778,13,0.000000,23.078276,0.173808,99,99,0,0,0,0,1
5,59999,23,50000,6,20000,40,9999,0.100000,99,0,0.000000,13,0.000000,19.346889,0.905321,99,99,0,0,0,0,0
5,59999,24,50000,74,10000,42,9999,0.100000,99,0,0.000000,13,9.000000,36.041249,20.082799,99,99,0,0,0,0,0
5,59999,25,50000,11,0,41,9999,0.100000,99,0,0.000000,13,4.000000,27.528360,17.288917,99,99,0,0,0,0,0
5,59999,26,50000,31,0,40,9999,0.100000,99,0,0.000000,13,0.000000,19.566026,0.143919,99,99,0,0,0,0,0
5,59999,27,50000,78,0,40,9999,0.100000,99,0,0.000000,13,0.000000,27.151855,0.401397,99,99,0,0,0,0,0
5,59999,28,50000,11,0,40,9999,0.100000,99,0,0.000000,13,0.000000,26.469784,2.638948,99,99,0,0,0,0,0
5,59999,29,50000,11,0,40,9999,0.100000,99,0,0.000000,13,1.000000,12.320214,11.288397,99,99,0,0,0,0,0
5,59999,30,50000,0,10000,0,9999,0.100000,99,0,0.891742,13,0.000000,30.690269,0.964074,99,99,0,0,0,1,0
5,59999,31,50000,11,0,40,9999,0.100000,99,0,0.000000,13,0.000000,35.569181,0.236275,99,99,0,0,0,0,0
5,59999,32,50000,74,10000,0,9999,0.100000,99,0,0.062315,13,0.000000,26.398799,0.206310,99,99,0,0,0,0,1
5,59999,33,50000,41,10000,40,9999,0.100000,99,0,0.000000,13,0.000000,29.586586,7.843626,99,99,0,0,0,0,0
5,59999,34,50000,31,0,0,9999,0.100000,99,0,3.942488,13,0.000000,27.309386,1.064290,99,99,0,1,0,0,0
5,59999,35,50000,31,0,0,9999,0.100000,99,0,0.000155,13,0.000000,21.071624,0.089184,99,99,0,0,0,1,0
5,59999,36,50000,57,40000,40,9999,0.100000,99,0,0.000000,13,0.000000,15.868257,0.572964,99,99,0,0,0,0,0
5,59999,37,50000,0,10000,40,9999,0.100000,99,0,0.000000,13,0.000000,31.811084,0.941925,99,99,0,0,0,0,0
5,59999,38,50000,91,20000,0,9999,0.100000,99,0,0.000000,13,0.000000,27.803030,0.230006,99,99,0,0,0,1,0
5,59999,39,50000,31,0,40,9999,0.100000,99,0,0.000000,13,0.000000,25.773088,0.913835,99,99,0,0,0,0,0
5,59999,40,50000,6,20000,40,9999,0.100000,99,0,0.000000,13,0.000000,24.205847,0.099045,99,99,0,0,0,0,0
5,59999,41,50000,41,10000,40,9999,0.100000,99,0,0.000000,13,0.000000,34.847246,0.231892,99,99,0,0,0,0,0
5,59999,42,50000,19,10000,40,9999,0.100000,99,0,0.000000,13,0.000000,22.218083,0.789700,99,99,0,0,0,0,0
5,59999,43,50000,19,10000,40,9999,0.100000,99,0,0.000000,13,2.000000,32.718425,5.227462,99,99,0,0,0,0,0
5,59999,44,50000,78,0,40,9999,0.100000,99,0,0.000000,13,1.000000,28.210217,14.713942,99,99,0,0,0,0,0
5,59999,45,50000,57,40000,0,9999,0.100000,99,0,0.412327,13,0.000000,19.090821,0.152516,99,99,0,0,0,0,1
5,59999,46,50000,19,10000,40,9999,0.100000,99,0,0.000000,13,0.000000,22.765557,0.143814,99,99,0,0,0,0,0
5,59999,47,50000,78,0,40,9999,0.100000,99,0,0.000000,13,0.000000,27.535355,0.715936,99,99,0,0,0,0,0
5,59999,48,50000,67,20000,40,9999,0.100000,99,0,0.000000,13,0.000000,26.328241,1.052325,99,99,0,0,0,0,0
5,59999,49,50000,67,20000,0,9999,0.100000,99,0,1.090646,13,0.000000,22.120874,0.642919,99,99,0,1,0,0,0
5,59999,50,50000,41,10000,0,9999,0.100000,99,0,1.091272,13,0.000000,22.780798,0.379956,99,99,0,1,0,0,0
5,59999,51,50000,88,20000,40,9999,0.100000,99,0,0.000000,13,2.000000,27.337796,8.797611,99,99,0,0,0,0,0
5,59999,52,50000,67,20000,40,9999,0.100000,99,0,0.000000,13,0.000000,27.060349,0.897627,99,99,0,0,0,0,0
5,59999,53,50000,31,10000,40,9999,0.100000,99,0,0.000000,13,3.000000,29.495240,14.408022,99,99,0,0,0,0,0
5,59999,54,50000,11,0,40,9999,0.100000,99,0,0.000000,13,0.000000,18.617331,0.109660,99,99,0,0,0,0,0
5,59999,55,50000,57,40000,40,9999,0.100000,99,0,0.000000,13,1.000000,31.347027,14.493751,99,99,0,0,0,0,0
5,59999,56,50000,0,10000,0,9999,0.100000,99,0,0.623898,13,0.000000,26.115527,0.644976,99,99,0,0,0,0,1
5,59999,57,50000,41,10000,40,9999,0.100000,99,0,0.000000,13,2.000000,31.091797,10.115518,99,99,0,0,0,0,0
5,59999,58,50000,74,10000,40,9999,0.100000,99,0,0.000000,13,0.000000,21.443608,2.413752,99,99,0,0,0,0,0
5,59999,59,50000,31,0,0,9999,0.100000,99,0,0.000000,13,0.000000,28.234631,0.591974,99,99,0,0,0,1,0
5,59999,60,50000,74,10000,40,9999,0.100000,99,0,0.000000,13,3.000000,29.636772,8.035411,99,99,0,0,0,0,0
5,59999,61,50000,6,20000,40,9999,0.100000,99,0,0.000000,13,0.000000,23.870550,0.517760,99,99,0,0,0,0,0
5,59999,62,50000,31,0,40,9999,0.100000,99,0,0.000000,13,0.000000,22.123867,0.801867,99,99,0,0,0,0,0
5,59999,63,50000,11,0,40,9999,0.100000,99,0,0.000000,13,0.000000,25.912497,1.229597,99,99,0,0,0,0,0
5,59999,64,50000,0,10000,40,9999,0.100000,99,0,0.000000,13,2.000000,30.785347,8.720724,99,99,0,0,0,0,0
5,59999,65,50000,91,20000,40,9999,0.100000,99,0,0.000000,13,0.000000,24.079109,0.471213,99,99,0,0,0,0,0
5,59999,66,50000,78,0,40,9999,0.100000,99,0,0.000000,13,0.000000,31.316002,1.586054,99,99,0,0,0,0,0
5,59999,67,50000,0,10000,40,9999,0.100000,99,0,0.000000,13,0.000000,12.068800,0.561735,99,99,0,0,0,0,0
5,59999,68,50000,11,0,40,9999,0.100000,99,0,0.000000,13,0.000000,25.185920,0.244001,99,99,0,0,0,0,0
5,59999,69,50000,31,10000,0,9999,0.100000,99,0,0.051125,13,0.000000,18.869701,0.163841,99,99,0,0,0,0,1
5,59999,70,50000,67,20000,40,9999,0.100000,99,0,0.000000,13,2.000000,31.063014,8.298270,99,99,0,0,0,0,0
5,59999,71,50000,67,20000,40,9999,0.100000,99,0,0.000000,13,0.000000,26.140767,0.617025,99,99,0,0,0,0,0
5,59999,72,50000,88,20000,0,9999,0.100000,99,0,0.157112,13,0.000000,19.116866,0.180487,99,99,0,1,0,0,0
5,59999,73,50000,31,10000,40,9999,0.100000,99,0,0.000000,13,0.000000,30.956750,0.281871,99,99,0,0,0,0,0
5,59999,74,50000,78,0,0,9999,0.100000,99,0,0.293787,13,0.000000,19.010708,0.975939,99,99,0,0,0,1,0
5,59999,75,50000,31,10000,0,9999,0.100000,99,0,0.000000,13,0.000000,27.495926,0.462085,99,99,0,0,0,1,0
5,59999,76,50000,41,10000,40,9999,0.100000,99,0,0.000000,13,0.000000,22.084289,2.067087,99,99,0,0,0,0,0
5,59999,77,50000,74,10000,42,9999,0.100000,99,0,0.000000,13,7.000000,32.665724,16.012357,99,99,0,0,0,0,0
5,59999,78,50000,91,20000,90,9999,0.100000,99,0,1.764921,13,1.000000,32.900636,4.215017,99,99,1,0,0,0,0
5,59999,79,50000,78,0,41,9999,0.100000,99,0,0.000000,13,4.000000,28.419540,17.252572,99,99,0,0,0,0,0
5,59999,80,50000,31,10000,40,9999,0.100000,99,0,0.000000,13,0.000000,26.418977,2.516912,99,99,0,0,0,0,0
5,59999,81,50000,57,40000,40,9999,0.100000,99,0,0.000000,13,0.000000,26.169745,8.555097,99,99,0,0,0,0,0
5,59999,82,50000,41,10000,40,9999,0.100000,99,0,0.000000,13,0.000000,34.300553,0.235938,99,99,0,0,0,0,0
5,59999,83,50000,57,40000,40,9999,0.100000,99,0,0.000000,13,2.000000,32.785133,5.383987,99,99,0,0,0,0,0
5,59999,84,50000,19,10000,0,9999,0.100000,99,0,0.002787,13,0.000000,20.253079,0.196245,99,99,0,0,0,1,0
5,59999,85,50000,91,20000,0,9999,0.100000,99,0,0.346876,13,0.000000,26.255212,0.187800,99,99,0,0,0,0,1
5,59999,86,50000,6,20000,40,9999,0.100000,99,0,0.000000,13,0.000000,18.896796,6.879039,99,99,0,0,0,0,0
5,59999,87,50000,11,0,40,9999,0.100000,99,0,0.000000,13,0.000000,19.404078,2.804529,99,99,0,0,0,0,0
5,59999,88,50000,91,20000,2,9999,0.100000,99,0,0.000000,13,7.000000,28.303032,15.988926,99,99,0,0,0,1,0
5,59999,89,50000,74,10000,40,9999,0.100000,99,0,0.000000,13,1.000000,32.117073,5.814459,99,99,0,0,0,0,0
5,59999,90,50000,31,10000,40,9999,0.100000,99,0,0.000000,13,0.000000,19.886047,0.366923,99,99,0,0,0,0,0
5,59999,91,50000,11,0,40,9999,0.100000,99,0,0.000000,13,0.000000,12.034928,16.957967,99,99,0,0,0,0,0
5,59999,92,50000,6,20000,0,9999,0.100000,99,0,0.727927,13,2.000000,21.908415,6.034471,99,99,0,0,1,0,0
5,59999,93,50000,41,10000,40,9999,0.100000,99,0,0.000000,13,1.000000,29.378687,9.105523,99,99,0,0,0,0,0
5,59999,94,50000,0,10000,40,9999,0.100000,99,0,0.000000,13,0.000000,23.209586,0.216431,99,99,0,0,0,0,0
5,59999,95,50000,0,10000,0,9999,0.100000,99,0,0.269914,13,0.000000,17.424379,0.143120,99,99,0,1,0,0,0
5,59999,96,50000,74,10000,40,9999,0.100000,99,0,0.000000,13,0.000000,25.956318,2.078830,99,99,0,0,0,0,0
5,59999,97,50000,31,0,41,9999,0.100000,99,0,0.000000,13,5.000000,32.892108,18.899448,99,99,0,0,0,0,0
5,59999,98,50000,0,10000,40,9999,0.100000,99,0,0.000000,13,2.000000,30.118868,9.366119,99,99,0,0,0,0,0
5,59999,99,50000,74,10000,0,9999,0.100000,99,0,0.523011,13,0.000000,24.118247,0.176833,99,99,0,0,0,0,1
6,69999,0,60000,0,10000,40,9999,0.100000,99,0,0.000000,13,2.000000,27.775521,5.271947,99,99,0,0,0,0,0
6,69999,1,60000,57,40000,0,9999,0.100000,99,0,0.015547,13,0.000000,18.749552,0.205177,99,99,0,0,0,1,0
6,69999,2,60000,19,10000,40,9999,0.100000,99,0,0.000000,13,2.000000,30.066769,15.803487,99,99,0,0,0,0,0
6,69999,3,60000,67,20000,0,9999,0.100000,99,0,0.189570,14,0.000000,24.844424,0.088821,99,99,0,0,0,0,1
6,69999,4,60000,31,10000,40,9999,0.100000,99,0,0.000000,13,0.000000,25.276670,0.213911,99,99,0,0,0,0,0
6,69999,5,60000,57,40000,41,9999,0.100000,99,0,0.000000,13,5.000000,34.733376,11.492872,99,99,0,0,0,0,0
6,69999,6,60000,91,20000,0,9999,0.100000,99,0,0.000000,14,1.000000,34.899849,6.681931,99,99,0,0,1,0,0
6,69999,7,60000,74,10000,0,9999,0.100000,99,0,0.965185,13,0.000000,31.184064,0.886633,99,99,0,0,0,1,0
6,69999,8,60000,74,10000,40,9999,0.100000,99,0,0.000000,13,0.000000,21.409022,0.009617,99,99,0,0,0,0,0
6,69999,9,60000,6,20000,0,9999,0.100000,99,0,4.586943,13,0.000000,27.472255,1.102360,99,99,0,1,0,0,0
6,69999,10,60000,11,0,40,9999,0.100000,99,0,0.000000,13,0.000000,21.339962,0.574981,99,99,0,0,0,0,0
6,69999,11,60000,67,20000,40,9999,0.100000,99,0,0.000000,13,0.000000,32.078103,6.206230,99,99,0,0,0,0,0
6,69999,12,60000,31,0,40,9999,0.100000,99,0,0.000000,13,0.000000,15.846591,0.631903,99,99,0,0,0,0,0
6,69999,13,60000,0,10000,40,9999,0.100000,99,0,0.000000,13,0.000000,12.372947,0.323878,99,99,0,0,0,0,0
6,69999,14,60000,74,10000,0,9999,0.100000,99,0,0.121647,13,0.000000,23.237621,0.433120,99,99,0,0,0,0,1
6,69999,15,60000,41,10000,40,9999,0.100000,99,0,0.000000,13,0.000000,32.782245,7.084880,99,99,0,0,0,0,0
6,69999,16,60000,78,0,0,9999,0.100000,99,0,0.005518,14,0.000000,17.379498,0.136774,99,99,0,0,1,0,0
6,69999,17,60000,41,10000,0,9999,0.100000,99,0,1.290002,13,0.000000,21.702520,0.973514,99,99,0,0,1,0,0
6,69999,18,60000,11,0,40,9999,0.100000,99,0,0.000000,13,1.000000,29.335302,5.240179,99,99,0,0,0,-1,0
6,69999,19,60000,19,10000,40,9999,0.100000,99,0,0.000000,13,2.000000,34.449667,5.345110,99,99,0,0,0,0,0
6,69999,20,60000,6,50000,40,9999,0.100000,99,0,0.000000,14,0.000000,25.878241,0.286629,99,99,0,0,0,0,0
6,69999,21,60000,6,20000,40,9999,0.100000,99,0,0.000000,13,0.000000,18.912030,0.108823,99,99,0,0,0,0,0
6,69999,22,60000,78,0,0,9999,0.100000,99,0,0.036602,13,0.000000,23.025064,0.155935,99,99,0,0,0,0,1
6,69999,23,60000,0,10000,0,9999,0.100000,99,0,0.048468,13,0.000000,19.329215,0.902773,99,99,0,0,0,0,1
6,69999,24,60000,31,10000,41,9999,0.100000,99,0,0.000000,14,3.000000,28.102844,5.900076,99,99,0,0,0,0,0
6,69999,25,60000,74,10000,41,9999,0.100000,99,0,0.000000,13,3.000000,27.107636,18.595902,99,99,0,0,0,0,0
6,69999,26,60000,78,0,0,9999,0.100000,99,0,0.447449,14,0.000000,19.538915,0.159554,99,99,0,0,0,0,1
6,69999,27,60000,91,20000,40,9999,0.100000,99,0,0.000000,14,0.000000,27.045686,0.269932,99,99,0,0,0,0,0
6,69999,28,60000,19,10000,40,9999,0.100000,99,0,0.000000,13,0.000000,25.964344,6.809741,99,99,0,0,0,0,0
6,69999,29,60000,78,0,42,9999,0.100000,99,0,0.000000,14,3.000000,12.987187,10.373591,99,99,0,0,0,0,0
6,69999,30,60000,88,20000,40,9999,0.100000,99,0,0.000000,14,0.000000,30.711823,0.856707,99,99,0,0,0,0,0
6,69999,31,60000,0,10000,40,9999,0.100000,99,0,0.000000,14,0.000000,35.569797,0.225264,99,99,0,0,0,0,0
6,69999,32,60000,11,0,0,9999,0.100000,99,0,0.082300,14,0.000000,26.383006,0.401520,99,99,0,0,0,0,1
6,69999,33,60000,6,50000,40,9999,0.100000,99,0,0.000000,14,2.000000,29.879430,11.260792,99,99,0,0,0,0,0
6,69999,34,60000,88,20000,0,9999,0.100000,99,0,5.569287,14,1.000000,27.321714,1.284864,99,99,0,1,0,0,0
6,69999,35,60000,57,40000,0,9999,0.100000,99,0,0.000797,13,0.000000,21.071376,0.087815,99,99,0,0,0,1,0
6,69999,36,60000,24,50000,40,9999,0.100000,99,0,0.000000,14,0.000000,16.259287,0.539073,99,99,0,0,0,0,0
6,69999,37,60000,57,40000,40,9999,0.100000,99,0,0.000000,13,0.000000,31.615763,1.318298,99,99,0,0,0,0,0
6,69999,38,60000,6,20000,0,9999,0.100000,99,0,0.031156,14,2.000000,27.948599,6.738607,99,99,0,0,0,0,1
6,69999,39,60000,91,20000,0,9999,0.100000,99,0,0.323090,14,0.000000,25.601186,0.485795,99,99,0,0,0,0,1
6,69999,40,60000,91,20000,40,9999,0.100000,99,0,0.000000,13,0.000000,24.206597,0.100498,99,99,0,0,0,0,0
6,69999,41,60000,11,0,40,9999,0.100000,99,0,0.000000,13,0.000000,34.847229,0.223058,99,99,0,0,0,0,0
6,69999,42,60000,88,20000,40,9999,0.100000,99,0,0.000000,14,0.000000,22.428726,0.731687,99,99,0,0,0,0,0
6,69999,43,60000,78,0,1,9999,0.100000,99,0,0.000000,13,7.000000,35.295901,10.079328,99,99,0,0,1,0,0
6,69999,44,60000,11,0,40,9999,0.100000,99,0,0.000000,13,0.000000,26.473441,4.756554,99,99,0,0,0,0,0
6,69999,45,60000,91,20000,40,9999,0.100000,99,0,0.000000,14,0.000000,19.068493,0.179216,99,99,0,0,0,0,0
6,69999,46,60000,57,40000,40,9999,0.100000,99,0,0.000000,14,0.000000,22.712491,0.098847,99,99,0,0,0,0,0
6,69999,47,60000,0,10000,40,9999,0.100000,99,0,0.000000,13,0.000000,27.688810,1.162334,99,99,0,0,0,0,0
6,69999,48,60000,91,20000,0,9999,0.100000,99,0,0.301332,13,0.000000,26.316964,1.391352,99,99,0,0,0,0,1
6,69999,49,60000,31,10000,0,9999,0.100000,99,0,1.893292,14,0.000000,22.332573,0.571420,99,99,0,1,0,0,0
6,69999,50,60000,74,10000,0,9999,0.100000,99,0,1.996126,14,0.000000,22.993233,0.473433,99,99,0,1,0,0,0
6,69999,51,60000,31,10000,40,9999,0.100000,99,0,0.000000,13,2.000000,27.995392,15.681398,99,99,0,0,0,0,0
6,69999,52,60000,91,20000,40,9999,0.100000,99,0,0.000000,14,1.000000,27.070568,1.175883,99,99,0,0,0,0,0
6,69999,53,60000,78,0,40,9999,0.100000,99,0,0.000000,14,0.000000,26.277002,1.446707,99,99,0,0,0,0,0
6,69999,54,60000,88,20000,40,9999,0.100000,99,0,0.000000,13,0.000000,18.612144,0.111892,99,99,0,0,0,0,0
6,69999,55,60000,24,50000,41,9999,0.100000,99,0,0.000000,14,4.000000,31.087135,11.498672,99,99,0,0,0,0,0
6,69999,56,60000,6,50000,40,9999,0.100000,99,0,0.000000,14,0.000000,26.158776,1.134098,99,99,0,0,0,0,0
6,69999,57,60000,19,10000,41,9999,0.100000,99,0,0.000000,13,6.000000,33.476186,14.958612,99,99,0,0,0,0,0
6,69999,58,60000,67,20000,40,9999,0.100000,99,0,0.000000,13,0.000000,21.312693,2.631188,99,99,0,0,0,0,0
6,69999,59,60000,74,10000,41,9999,0.100000,99,0,0.000000,13,3.000000,28.344632,10.059290,99,99,0,0,0,0,0
6,69999,60,60000,88,20000,43,9999,0.100000,99,0,0.000000,13,9.000000,26.897541,15.749279,99,99,0,0,0,0,0
6,69999,61,60000,74,10000,40,9999,0.100000,99,0,0.000000,13,0.000000,23.789408,0.446188,99,99,0,0,0,0,0
6,69999,62,60000,91,20000,40,9999,0.100000,99,0,0.000000,14,0.000000,22.336314,1.129622,99,99,0,0,0,0,0
6,69999,63,60000,91,20000,40,9999,0.100000,99,0,0.000000,14,0.000000,25.718386,1.209061,99,99,0,0,0,0,0
6,69999,64,60000,31,10000,40,9999,0.100000,99,0,0.000000,14,1.000000,30.551191,10.684119,99,99,0,0,0,0,0
6,69999,65,60000,41,10000,40,9999,0.100000,99,0,0.000000,14,0.000000,23.998926,0.410330,99,99,0,0,0,0,0
6,69999,66,60000,6,20000,40,9999,0.100000,99,0,0.000000,14,0.000000,31.300779,1.307918,99,99,0,0,0,0,0
6,69999,67,60000,24,50000,40,9999,0.100000,99,0,0.000000,14,0.000000,11.846101,5.597246,99,99,0,0,0,0,0
6,69999,68,60000,31,10000,40,9999,0.100000,99,0,0.000000,13,0.000000,25.185410,0.239365,99,99,0,0,0,0,0
6,69999,69,60000,78,0,40,9999,0.100000,99,0,0.000000,14,0.000000,18.855983,0.162769,99,99,0,0,0,0,0
6,69999,70,60000,11,0,40,9999,0.100000,99,0,0.000000,14,0.000000,30.910095,4.564994,99,99,0,0,0,0,0
6,69999,71,60000,31,10000,40,9999,0.100000,99,0,0.000000,13,0.000000,25.845931,0.455777,99,99,0,0,0,0,0
6,69999,72,60000,0,10000,0,9999,0.100000,99,0,0.150705,14,0.000000,19.127170,0.177554,99,99,0,1,0,0,0
6,69999,73,60000,6,20000,40,9999,0.100000,99,0,0.000000,14,0.000000,30.979408,0.351758,99,99,0,0,0,0,0
6,69999,74,60000,31,0,2,9999,0.100000,99,0,3.274565,14,5.000000,19.323477,11.809688,99,99,0,0,0,1,0
6,69999,75,60000,6,20000,40,9999,0.100000,99,0,0.242967,13,1.000000,27.666577,7.966078,99,99,0,0,0,0,0
6,69999,76,60000,41,10000,40,9999,0.100000,99,0,0.000000,13,0.000000,22.297078,2.145185,99,99,0,0,0,0,0
6,69999,77,60000,41,10000,40,9999,0.100000,99,0,0.000000,14,2.000000,28.714358,7.068897,99,99,0,0,0,0,0
6,69999,78,60000,19,10000,90,9999,0.100000,99,0,18.616573,14,3.000000,31.749315,4.363816,99,99,1,0,0,0,0
6,69999,79,60000,0,10000,40,9999,0.100000,99,0,0.000000,14,3.000000,31.744795,9.981511,99,99,0,0,0,0,0
6,69999,80,60000,91,20000,40,9999,0.100000,99,0,0.000000,13,0.000000,26.063579,1.582328,99,99,0,0,0,0,0
6,69999,81,60000,19,10000,40,9999,0.100000,99,0,0.000000,13,0.000000,26.270886,23.130469,99,99,0,0,0,0,0
6,69999,82,60000,78,0,40,9999,0.100000,99,0,0.000000,13,0.000000,34.301093,0.237672,99,99,0,0,0,0,0
6,69999,83,60000,11,0,40,9999,0.100000,99,0,0.000000,14,1.000000,35.091371,10.172643,99,99,0,0,0,0,0
6,69999,84,60000,6,20000,0,9999,0.100000,99,0,0.002580,14,0.000000,20.255260,0.196948,99,99,0,0,0,1,0
6,69999,85,60000,78,0,40,9999,0.100000,99,0,0.000000,14,0.000000,26.106401,0.082678,99,99,0,0,0,0,0
6,69999,86,60000,67,20000,40,9999,0.100000,99,0,0.000000,13,1.000000,19.327389,2.686669,99,99,0,0,0,0,0
6,69999,87,60000,78,0,40,9999,0.100000,99,0,0.000000,13,0.000000,19.387665,2.957378,99,99,0,0,0,0,0
6,69999,88,60000,19,10000,41,9999,0.100000,99,0,0.000000,14,5.000000,28.465130,17.162615,99,99,0,0,0,0,0
6,69999,89,60000,6,20000,40,9999,0.100000,99,0,0.000000,14,0.000000,30.643398,4.329187,99,99,0,0,0,0,0
6,69999,90,60000,88,20000,40,9999,0.100000,99,0,0.000000,14,0.000000,19.853895,0.364412,99,99,0,0,0,0,0
6,69999,91,60000,6,20000,0,9999,0.100000,99,0,0.005526,14,0.000000,11.534945,0.198811,99,99,0,0,0,1,0
6,69999,92,60000,0,10000,40,9999,0.100000,99,0,0.000000,14,0.000000,21.950650,0.468679,99,99,0,0,0,0,0
6,69999,93,60000,6,50000,40,9999,0.100000,99,0,0.000000,14,2.000000,31.042899,12.867974,99,99,0,0,0,0,0
6,69999,94,60000,31,10000,40,9999,0.100000,99,0,0.000000,13,0.000000,23.061226,0.159042,99,99,0,0,0,0,0
6,69999,95,60000,57,40000,0,9999,0.100000,99,0,0.246263,13,0.000000,17.384204,0.140050,99,99,0,1,0,0,0
6,69999,96,60000,6,20000,40,9999,0.100000,99,0,0.000000,14,0.000000,26.153153,1.831773,99,99,0,0,0,0,0
6,69999,97,60000,31,10000,40,9999,0.100000,99,0,0.000000,14,0.000000,30.358491,5.270519,99,99,0,0,0,0,0
6,69999,98,60000,0,10000,40,9999,0.100000,99,0,0.000000,14,1.000000,30.223819,4.346949,99,99,0,0,0,0,0
6,69999,99,60000,41,10000,0,9999,0.100000,99,0,0.253312,14,0.000000,23.997810,0.438084,99,99,0,0,0,0,1
7,79999,0,70000,31,0,41,9999,0.100000,99,0,0.000000,14,5.000000,25.898521,10.025813,99,99,0,0,0,0,0
7,79999,1,70000,74,10000,0,9999,0.100000,99,0,0.899315,14,0.000000,18.736481,0.850499,99,99,0,0,0,1,0
7,79999,2,70000,11,0,0,9999,0.100000,99,0,0.096077,14,0.000000,29.138236,8.225008,99,99,0,0,0,1,0
7,79999,3,70000,31,0,0,9999,0.100000,99,0,0.150693,14,0.000000,24.848256,0.129230,99,99,0,0,0,0,1
7,79999,4,70000,57,40000,40,9999,0.100000,99,0,0.000000,14,0.000000,25.234134,0.223748,99,99,0,0,0,0,0
7,79999,5,70000,91,20000,40,9999,0.100000,99,0,0.000000,14,2.000000,29.343442,11.900178,99,99,0,0,0,0,0
7,79999,6,70000,31,0,40,9999,0.100000,99,0,0.000000,14,2.000000,35.702165,15.961721,99,99,0,0,0,0,0
7,79999,7,70000,6,20000,0,9999,0.100000,99,0,0.356000,14,0.000000,31.309807,0.890132,99,99,0,0,0,1,0
7,79999,8,70000,6,20000,40,9999,0.100000,99,0,0.000000,14,0.000000,21.408864,0.009615,99,99,0,0,0,0,0
7,79999,9,70000,24,50000,0,9999,0.100000,99,0,3.502169,14,0.000000,27.832832,0.922385,99,99,0,1,0,0,0
7,79999,10,70000,24,50000,40,9999,0.100000,99,0,0.000000,14,0.000000,21.196070,0.657136,99,99,0,0,0,0,0
7,79999,11,70000,6,50000,40,9999,0.100000,99,0,0.000000,14,2.000000,32.438223,12.069403,99,99,0,0,0,0,0
7,79999,12,70000,41,10000,40,9999,0.100000,99,0,0.000000,14,0.000000,16.199901,0.639993,99,99,0,0,0,0,0
7,79999,13,70000,74,10000,40,9999,0.100000,99,0,0.000000,14,0.000000,12.576765,0.331078,99,99,0,0,0,0,0
7,79999,14,70000,0,10000,0,9999,0.100000,99,0,0.114397,14,0.000000,23.188448,0.377811,99,99,0,0,0,0,1
7,79999,15,70000,41,10000,42,9999,0.100000,99,0,0.000000,14,8.000000,32.879836,23.425746,99,99,0,0,0,0,0
7,79999,16,70000,57,40000,0,9999,0.100000,99,0,0.006470,14,0.000000,17.374620,0.133390,99,99,0,0,1,0,0
7,79999,17,70000,78,0,0,9999,0.100000,99,0,0.009408,14,0.000000,21.745227,0.570244,99,99,0,0,1,0,0
7,79999,18,70000,74,10000,40,9999,0.100000,99,0,0.000000,14,0.000000,29.102672,3.446458,99,99,0,0,0,0,0
7,79999,19,70000,78,0,40,9999,0.100000,99,0,0.000000,14,2.000000,36.244383,3.479669,99,99,0,0,0,0,0
7,79999,20,70000,74,10000,40,9999,0.100000,99,0,0.000000,14,0.000000,25.815532,0.270461,99,99,0,0,0,0,0
7,79999,21,70000,6,50000,40,9999,0.100000,99,0,0.000000,14,0.000000,18.898723,1.221654,99,99,0,0,0,0,0
7,79999,22,70000,91,20000,0,9999,0.100000,99,0,0.279312,14,0.000000,22.995475,0.229769,99,99,0,0,0,0,1
7,79999,23,70000,78,0,0,9999,0.100000,99,0,0.052609,14,0.000000,19.311483,0.917616,99,99,0,0,0,0,1
7,79999,24,70000,6,20000,40,9999,0.100000,99,0,0.000000,14,1.000000,26.470754,6.410984,99,99,0,0,0,0,0
7,79999,25,70000,78,0,40,9999,0.100000,99,0,0.000000,14,0.000000,23.850605,22.690539,99,99,0,0,0,0,0
7,79999,26,70000,0,10000,0,9999,0.100000,99,0,0.970180,14,0.000000,19.511499,0.289415,99,99,0,0,0,0,1
7,79999,27,70000,41,10000,40,9999,0.100000,99,0,0.000000,14,0.000000,27.017587,1.028175,99,99,0,0,0,0,0
7,79999,28,70000,67,20000,40,9999,0.100000,99,0,0.000000,14,0.000000,25.990209,3.071835,99,99,0,0,0,0,0
7,79999,29,70000,78,0,41,9999,0.100000,99,0,0.000000,14,2.000000,14.906050,20.055232,99,99,0,0,0,0,0
7,79999,30,70000,57,40000,40,9999,0.100000,99,0,0.000000,14,0.000000,30.832005,0.716696,99,99,0,0,0,0,0
7,79999,31,70000,31,10000,40,9999,0.100000,99,0,0.000000,14,0.000000,35.570852,0.222321,99,99,0,0,0,0,0
7,79999,32,70000,57,40000,0,9999,0.100000,99,0,0.108903,14,0.000000,26.303100,0.108922,99,99,0,0,0,0,1
7,79999,33,70000,24,50000,40,9999,0.100000,99,0,0.000000,14,0.000000,28.958836,0.911248,99,99,0,0,0,0,0
7,79999,34,70000,88,20000,0,9999,0.100000,99,0,4.603623,14,0.000000,27.308202,1.178886,99,99,0,1,0,0,0
7,79999,35,70000,88,20000,0,9999,0.100000,99,0,0.000163,14,0.000000,21.071221,0.088663,99,99,0,0,0,1,0
7,79999,36,70000,6,50000,40,9999,0.100000,99,0,0.000000,14,0.000000,16.614969,0.545496,99,99,0,0,0,0,0
7,79999,37,70000,31,0,40,9999,0.100000,99,0,0.000000,14,0.000000,31.289221,1.344709,99,99,0,0,0,0,0
7,79999,38,70000,6,20000,0,9999,0.100000,99,0,0.048562,14,0.000000,26.599970,0.105820,99,99,0,0,0,0,1
7,79999,39,70000,6,50000,0,9999,0.100000,99,0,0.461905,14,0.000000,25.496545,0.401950,99,99,0,0,0,0,1
7,79999,40,70000,91,20000,40,9999,0.100000,99,0,0.000000,14,0.000000,24.219200,0.168520,99,99,0,0,0,0,0
7,79999,41,70000,31,10000,40,9999,0.100000,99,0,0.000000,14,0.000000,34.848069,0.235486,99,99,0,0,0,0,0
7,79999,42,70000,41,10000,40,9999,0.100000,99,0,0.000000,14,0.000000,22.809098,0.623525,99,99,0,0,0,0,0
7,79999,43,70000,88,20000,92,9999,0.100000,99,0,46.329444,14,8.000000,29.090877,14.547577,99,99,1,0,0,0,0
7,79999,44,70000,67,20000,40,9999,0.100000,99,0,0.000000,14,0.000000,26.162062,0.114308,99,99,0,0,0,0,0
7,79999,45,70000,67,20000,40,9999,0.100000,99,0,0.000000,14,0.000000,19.049059,0.334169,99,99,0,0,0,0,0
7,79999,46,70000,24,50000,40,9999,0.100000,99,0,0.000000,14,0.000000,22.679022,0.198482,99,99,0,0,0,0,0
7,79999,47,70000,78,0,40,9999,0.100000,99,0,0.000000,14,0.000000,28.046531,0.997640,99,99,0,0,0,0,0
7,79999,48,70000,57,40000,40,9999,0.100000,99,0,0.000000,14,1.000000,26.194112,1.424386,99,99,0,0,0,0,0
7,79999,49,70000,57,40000,0,9999,0.100000,99,0,1.201806,14,0.000000,22.706897,0.406076,99,99,0,1,0,0,0
7,79999,50,70000,6,50000,0,9999,0.100000,99,0,1.204405,14,0.000000,23.368282,0.354366,99,99,0,1,0,0,0
7,79999,51,70000,6,20000,40,9999,0.100000,99,0,0.000000,14,1.000000,27.095389,12.351545,99,99,0,0,0,0,0
7,79999,52,70000,31,0,40,9999,0.100000,99,0,0.000000,14,0.000000,27.054880,1.025797,99,99,0,0,0,0,0
7,79999,53,70000,41,10000,40,9999,0.100000,99,0,0.000000,14,1.000000,26.279661,3.495565,99,99,0,0,0,0,0
7,79999,54,70000,67,20000,40,9999,0.100000,99,0,0.000000,14,0.000000,18.600339,0.640193,99,99,0,0,0,0,0
7,79999,55,70000,31,10000,40,9999,0.100000,99,0,0.000000,14,2.000000,27.891241,6.455327,99,99,0,0,0,0,0
7,79999,56,70000,91,20000,0,9999,0.100000,99,0,2.862394,14,0.000000,26.148303,1.282762,99,99,0,0,0,0,1
7,79999,57,70000,57,40000,40,9999,0.100000,99,0,0.000000,14,0.000000,30.802498,4.892741,99,99,0,0,0,0,0
7,79999,58,70000,41,10000,40,9999,0.100000,99,0,0.000000,14,0.000000,21.172692,2.869813,99,99,0,0,0,0,0
7,79999,59,70000,57,40000,40,9999,0.100000,99,0,0.000000,14,1.000000,26.090074,12.342027,99,99,0,0,0,0,0
7,79999,60,70000,24,50000,40,9999,0.100000,99,0,0.000000,14,0.000000,35.531573,0.649459,99,99,0,0,0,0,0
7,79999,61,70000,57,40000,40,9999,0.100000,99,0,0.000000,14,0.000000,23.731874,0.542244,99,99,0,0,0,0,0
7,79999,62,70000,67,20000,40,9999,0.100000,99,0,0.000000,14,0.000000,22.701895,0.888285,99,99,0,0,0,0,0
7,79999,63,70000,88,20000,40,9999,0.100000,99,0,0.000000,14,0.000000,25.627601,1.299142,99,99,0,0,0,0,0
7,79999,64,70000,74,10000,40,9999,0.100000,99,0,0.000000,14,0.000000,31.388705,5.783044,99,99,0,0,0,0,0
7,79999,65,70000,91,20000,40,9999,0.100000,99,0,0.000000,14,0.000000,23.940222,0.438961,99,99,0,0,0,0,0
7,79999,66,70000,78,60000,40,9999,0.100000,99,0,0.000000,14,0.000000,31.439647,1.251542,99,99,0,0,0,0,0
7,79999,67,70000,91,20000,40,9999,0.100000,99,0,0.000000,14,0.000000,12.386809,5.480543,99,99,0,0,0,0,0
7,79999,68,70000,91,20000,40,9999,0.100000,99,0,0.000000,14,0.000000,25.184419,0.221594,99,99,0,0,0,0,0
7,79999,69,70000,91,20000,40,9999,0.100000,99,0,0.000000,14,0.000000,18.842324,0.155628,99,99,0,0,0,0,0
7,79999,70,70000,74,10000,40,9999,0.100000,99,0,0.000000,14,0.000000,30.868068,2.477485,99,99,0,0,0,0,0
7,79999,71,70000,24,50000,40,9999,0.100000,99,0,0.000000,14,0.000000,25.658793,0.394630,99,99,0,0,0,0,0
7,79999,72,70000,41,10000,0,9999,0.100000,99,0,0.161792,14,0.000000,19.132080,0.175833,99,99,0,1,0,0,0
7,79999,73,70000,0,10000,40,9999,0.100000,99,0,0.000000,14,0.000000,31.099555,0.258903,99,99,0,0,0,0,0
7,79999,74,70000,24,50000,0,9999,0.100000,99,0,0.340044,14,0.000000,19.082348,0.228731,99,99,0,0,0,1,0
7,79999,75,70000,41,10000,40,9999,0.100000,99,0,0.000000,14,0.000000,28.639587,0.249632,99,99,0,0,0,0,0
7,79999,76,70000,57,40000,40,9999,0.100000,99,0,0.000000,14,0.000000,22.664046,2.186476,99,99,0,0,0,0,0
7,79999,77,70000,91,20000,40,9999,0.100000,99,0,0.000000,14,2.000000,27.546971,9.980155,99,99,0,0,0,0,0
7,79999,78,70000,11,0,40,9999,0.100000,99,0,0.000000,14,1.000000,28.896734,13.195538,99,99,0,0,0,0,0
7,79999,79,70000,31,10000,40,9999,0.100000,99,0,0.000000,14,0.000000,35.425004,6.031008,99,99,0,0,-1,0,0
7,79999,80,70000,11,0,40,9999,0.100000,99,0,0.000000,14,0.000000,26.064114,7.584620,99,99,0,0,0,0,0
7,79999,81,70000,67,20000,40,9999,0.100000,99,0,0.000000,14,0.000000,26.044285,23.249936,99,99,0,0,0,0,0
7,79999,82,70000,11,0,40,9999,0.100000,99,0,0.000000,14,0.000000,34.301723,0.238470,99,99,0,0,0,0,0
7,79999,83,70000,6,20000,40,9999,0.100000,99,0,0.000000,14,2.000000,35.537963,14.936349,99,99,0,0,0,0,0
7,79999,84,70000,31,0,0,9999,0.100000,99,0,0.002077,14,0.000000,20.257263,0.195058,99,99,0,0,0,1,0
7,79999,85,70000,24,50000,40,9999,0.100000,99,0,0.000000,14,0.000000,26.060352,0.079836,99,99,0,0,0,0,0
7,79999,86,70000,41,10000,40,9999,0.100000,99,0,0.000000,14,0.000000,19.455668,0.889732,99,99,0,0,0,0,0
7,79999,87,70000,31,10000,40,9999,0.100000,99,0,0.000000,14,0.000000,19.367448,3.230926,99,99,0,0,0,0,0
7,79999,88,70000,41,10000,40,9999,0.100000,99,0,0.000000,14,2.000000,31.365257,22.357951,99,99,0,0,0,0,0
7,79999,89,70000,41,10000,40,9999,0.100000,99,0,0.000000,14,0.000000,31.322487,2.725173,99,99,0,0,0,0,0
7,79999,90,70000,78,0,40,9999,0.100000,99,0,0.000000,14,0.000000,19.819092,0.468474,99,99,0,0,0,0,0
7,79999,91,70000,31,10000,7,9999,0.100000,99,0,0.675319,14,9.000000,11.574945,18.448362,99,99,0,0,0,1,0
7,79999,92,70000,41,10000,40,9999,0.100000,99,0,0.000000,14,0.000000,21.971227,0.367380,99,99,0,0,0,0,0
7,79999,93,70000,6,20000,41,9999,0.100000,99,0,0.000000,14,4.000000,32.587922,19.481211,99,99,0,0,0,0,0
7,79999,94,70000,57,40000,0,9999,0.100000,99,0,0.322498,14,0.000000,22.994120,0.200212,99,99,0,0,0,0,1
7,79999,95,70000,74,10000,0,9999,0.100000,99,0,0.211946,14,0.000000,17.347688,0.142317,99,99,0,1,0,0,0
7,79999,96,70000,31,0,42,9999,0.100000,99,0,0.000000,14,7.000000,26.148991,9.422063,99,99,0,0,0,0,0
7,79999,97,70000,41,10000,40,9999,0.100000,99,0,0.000000,14,0.000000,31.107364,7.800973,99,99,0,0,0,0,0
7,79999,98,70000,31,0,40,9999,0.100000,99,0,0.000000,14,0.000000,31.231017,12.115165,99,99,0,0,0,0,0
7,79999,99,70000,6,50000,40,9999,0.100000,99,0,0.000000,14,0.000000,23.943733,0.262699,99,99,0,0,0,0,0
8,89999,0,80000,6,20000,40,9999,0.100000,99,0,0.000000,14,1.000000,26.749507,6.378663,99,99,0,0,0,0,0
8,89999,1,80000,57,40000,0,9999,0.100000,99,0,0.313143,14,0.000000,18.092570,1.007812,99,99,0,0,0,1,0
8,89999,2,80000,0,10000,0,9999,0.100000,99,0,1.111498,14,0.000000,28.800037,0.697180,99,99,0,0,0,1,0
8,89999,3,80000,31,0,0,9999,0.100000,99,0,0.073860,14,0.000000,24.853570,0.088471,99,99,0,0,0,0,1
8,89999,4,80000,91,20000,40,9999,0.100000,99,0,0.000000,14,0.000000,25.195774,0.215696,99,99,0,0,0,0,0
8,89999,5,80000,11,0,40,9999,0.100000,99,0,0.000000,14,0.000000,30.546094,12.632284,99,99,0,0,0,0,0
8,89999,6,80000,57,40000,40,9999,0.100000,99,0,0.000000,14,3.000000,33.695675,10.184759,99,99,0,0,0,0,0
8,89999,7,80000,91,20000,0,9999,0.100000,99,0,0.588431,14,0.000000,31.364510,0.901065,99,99,0,0,0,1,0
8,89999,8,80000,91,20000,40,9999,0.100000,99,0,0.000000,14,0.000000,21.408850,0.009586,99,99,0,0,0,0,0
8,89999,9,80000,91,20000,0,9999,0.100000,99,0,5.869016,14,1.000000,28.154174,1.342315,99,99,0,1,0,0,0
8,89999,10,80000,11,0,40,9999,0.100000,99,0,0.000000,15,0.000000,21.020219,0.718179,99,99,0,0,0,0,0
8,89999,11,80000,6,50000,40,9999,0.135000,99,0,0.000000,14,0.000000,29.742343,11.443243,99,99,0,0,0,0,0
8,89999,12,80000,78,60000,40,9999,0.100000,99,0,0.000000,14,0.000000,16.570235,0.615207,99,99,0,0,0,0,0
8,89999,13,80000,78,0,40,9999,0.100000,99,0,0.000000,14,0.000000,12.789320,0.344884,99,99,0,0,0,0,0
8,89999,14,80000,67,20000,0,9999,0.100000,99,0,0.108557,14,0.000000,23.088964,0.317256,99,99,0,0,0,0,1
8,89999,15,80000,78,0,41,9999,0.100000,99,0,0.000000,15,4.000000,32.719622,19.243229,99,99,0,0,0,0,0
8,89999,16,80000,88,20000,0,9999,0.100000,99,0,0.002371,14,0.000000,17.369633,0.184205,99,99,0,0,1,0,0
8,89999,17,80000,31,0,0,9999,0.100000,99,0,0.043126,14,0.000000,21.714804,0.207718,99,99,0,0,1,0,0
8,89999,18,80000,78,0,40,9999,0.100000,99,0,0.000000,15,0.000000,28.809569,2.747369,99,99,0,0,0,0,0
8,89999,19,80000,74,10000,40,9999,0.100000,99,0,0.000000,15,0.000000,38.031180,0.085969,99,99,0,0,0,0,0
8,89999,20,80000,91,20000,40,9999,0.100000,99,0,0.000000,14,0.000000,25.761524,0.254793,99,99,0,0,0,0,0
8,89999,21,80000,6,50000,40,9999,0.100000,99,0,0.000000,14,0.000000,18.133769,1.166618,99,99,0,0,0,0,0
8,89999,22,80000,41,10000,0,9999,0.100000,99,0,0.026238,14,0.000000,22.874449,0.168255,99,99,0,0,0,0,1
8,89999,23,80000,41,10000,0,9999,0.100000,99,0,0.049629,15,0.000000,19.292942,0.893133,99,99,0,0,0,0,1
8,89999,24,80000,78,0,0,9999,0.100000,99,0,0.072382,15,0.000000,25.373789,0.954387,99,99,0,0,0,0,1
8,89999,25,80000,24,50000,40,9999,0.100000,99,0,0.000000,14,0.000000,23.803039,22.635554,99,99,0,0,0,0,0
8,89999,26,80000,67,20000,40,9999,0.100000,99,0,0.000000,14,0.000000,19.413281,0.784269,99,99,0,0,0,0,0
8,89999,27,80000,91,20000,40,9999,0.100000,99,0,0.000000,14,0.000000,26.454825,0.225478,99,99,0,0,0,0,0
8,89999,28,80000,11,0,40,9999,0.100000,99,0,0.000000,14,0.000000,25.802282,6.167554,99,99,0,0,0,0,0
8,89999,29,80000,0,10000,41,9999,0.100000,99,0,0.000000,14,2.000000,17.238086,7.031488,99,99,0,0,0,0,0
8,89999,30,80000,78,60000,40,9999,0.100000,99,0,0.000000,15,0.000000,30.885909,0.491661,99,99,0,0,0,0,0
8,89999,31,80000,41,10000,40,9999,0.100000,99,0,0.000000,14,0.000000,35.572004,0.228898,99,99,0,0,0,0,0
8,89999,32,80000,91,20000,40,9999,0.100000,99,0,0.000000,14,0.000000,26.297290,0.093449,99,99,0,0,0,0,0
8,89999,33,80000,57,40000,40,9999,0.100000,99,0,0.000000,14,0.000000,28.693148,2.275319,99,99,0,0,0,0,0
8,89999,34,80000,15,70000,2,9999,0.100000,99,0,4.436402,15,8.000000,27.423852,16.277903,99,99,0,1,0,0,0
8,89999,35,80000,11,0,0,9999,0.100000,99,0,0.000160,15,0.000000,21.070895,0.087876,99,99,0,0,0,1,0
8,89999,36,80000,6,50000,40,9999,0.100000,99,0,0.000000,14,0.000000,16.981031,0.522728,99,99,0,0,0,0,0
8,89999,37,80000,78,60000,40,9999,0.100000,99,0,0.000000,14,1.000000,30.955727,1.470374,99,99,0,0,0,0,0
8,89999,38,80000,0,10000,0,9999,0.100000,99,0,0.043387,14,0.000000,26.587185,0.102127,99,99,0,0,0,0,1
8,89999,39,80000,41,10000,40,9999,0.100000,99,0,0.000000,14,0.000000,25.343631,1.181268,99,99,0,0,0,0,0
8,89999,40,80000,11,0,40,9999,0.100000,99,0,0.000000,14,0.000000,24.209486,0.101312,99,99,0,0,0,0,0
8,89999,41,80000,41,10000,40,9999,0.100000,99,0,0.000000,14,0.000000,34.848668,0.154738,99,99,0,0,0,0,0
8,89999,42,80000,57,40000,40,9999,0.100000,99,0,0.000000,14,0.000000,23.043832,1.241634,99,99,0,0,0,0,0
8,89999,43,80000,11,0,41,9999,0.100000,99,0,0.000000,14,4.000000,31.829092,16.336842,99,99,0,0,0,0,0
8,89999,44,80000,11,0,40,9999,0.100000,99,0,0.000000,14,0.000000,26.164204,0.102817,99,99,0,0,0,0,0
8,89999,45,80000,24,50000,0,9999,0.100000,99,0,0.452562,15,0.000000,18.952338,0.161045,99,99,0,0,0,0,1
8,89999,46,80000,31,0,40,9999,0.100000,99,0,0.000000,15,0.000000,22.547898,0.130691,99,99,0,0,0,0,0
8,89999,47,80000,88,20000,40,9999,0.100000,99,0,0.000000,14,1.000000,28.365272,1.425336,99,99,0,0,0,0,0
8,89999,48,80000,78,0,40,9999,0.100000,99,0,0.000000,14,0.000000,25.467877,0.340366,99,99,0,0,0,0,0
8,89999,49,80000,0,10000,0,9999,0.100000,99,0,1.417910,14,0.000000,22.940902,0.446809,99,99,0,1,0,0,0
8,89999,50,80000,0,10000,0,9999,0.100000,99,0,1.278105,14,0.000000,23.603236,0.391423,99,99,0,1,0,0,0
8,89999,51,80000,6,50000,40,9999,0.100000,99,0,0.000000,14,0.000000,27.701175,12.792880,99,99,0,0,0,0,0
8,89999,52,80000,0,10000,40,9999,0.100000,99,0,0.000000,14,0.000000,27.169559,0.997466,99,99,0,0,0,0,0
8,89999,53,80000,24,50000,40,9999,0.100000,99,0,0.000000,14,0.000000,25.505486,4.199008,99,99,0,0,0,0,0
8,89999,54,80000,0,10000,40,9999,0.100000,99,0,0.000000,14,0.000000,18.053288,0.249704,99,99,0,0,0,0,0
8,89999,55,80000,67,20000,0,9999,0.100000,99,0,0.174740,14,0.000000,25.909273,0.149222,99,99,0,0,0,0,1
8,89999,56,80000,6,50000,40,9999,0.100000,99,0,0.000000,14,0.000000,25.567435,0.344185,99,99,0,0,0,0,0
8,89999,57,80000,57,40000,40,9999,0.100000,99,0,0.000000,14,0.000000,31.196648,10.395747,99,99,0,0,0,0,0
8,89999,58,80000,6,20000,40,9999,0.100000,99,0,0.000000,14,0.000000,21.001644,2.964768,99,99,0,0,0,0,0
8,89999,59,80000,88,20000,40,9999,0.100000,99,0,0.000000,14,2.000000,27.249379,4.182719,99,99,0,0,0,0,0
8,89999,60,80000,74,10000,40,9999,0.100000,99,0,0.000000,14,0.000000,35.947492,0.220023,99,99,0,0,0,0,0
8,89999,61,80000,74,10000,40,9999,0.100000,99,0,0.000000,14,0.000000,23.654062,1.192931,99,99,0,0,0,0,0
8,89999,62,80000,74,10000,40,9999,0.100000,99,0,0.000000,14,0.000000,22.936527,0.968067,99,99,0,0,0,0,0
8,89999,63,80000,24,50000,0,9999,0.100000,99,0,0.015987,14,0.000000,25.477646,1.117413,99,99,0,0,0,0,1
8,89999,64,80000,24,50000,40,9999,0.100000,99,0,0.000000,14,0.000000,31.560879,1.497504,99,99,0,0,0,0,0
8,89999,65,80000,78,60000,40,9999,0.100000,99,0,0.000000,14,0.000000,23.862130,0.870033,99,99,0,0,0,0,0
8,89999,66,80000,6,20000,40,9999,0.100000,99,0,0.000000,14,0.000000,31.498239,1.299471,99,99,0,0,0,0,0
8,89999,67,80000,24,50000,40,9999,0.100000,99,0,0.000000,14,0.000000,11.974071,0.892690,99,99,0,0,0,0,0
8,89999,68,80000,78,60000,40,9999,0.100000,99,0,0.000000,14,0.000000,25.186753,0.232487,99,99,0,0,0,0,0
8,89999,69,80000,91,20000,40,9999,0.100000,99,0,0.000000,15,0.000000,18.828184,0.151759,99,99,0,0,0,0,0
8,89999,70,80000,24,50000,40,9999,0.100000,99,0,0.000000,14,0.000000,31.063940,3.981294,99,99,0,0,0,0,0
8,89999,71,80000,67,20000,40,9999,0.100000,99,0,0.000000,15,0.000000,25.479118,0.503399,99,99,0,0,0,0,0
8,89999,72,80000,0,10000,0,9999,0.100000,99,0,0.418597,14,0.000000,19.138549,0.202183,99,99,0,1,0,0,0
8,89999,73,80000,6,20000,40,9999,0.100000,99,0,0.000000,14,0.000000,31.153224,0.275061,99,99,0,0,0,0,0
8,89999,74,80000,0,10000,0,9999,0.100000,99,0,0.659982,14,0.000000,19.118044,0.271041,99,99,0,0,0,1,0
8,89999,75,80000,0,10000,40,9999,0.100000,99,0,0.000000,15,0.000000,28.543114,0.363596,99,99,0,0,0,0,0
8,89999,76,80000,57,40000,40,9999,0.100000,99,0,0.000000,15,0.000000,22.898783,2.239155,99,99,0,0,0,0,0
8,89999,77,80000,88,20000,41,9999,0.100000,99,0,0.000000,14,3.000000,27.819441,9.148402,99,99,0,0,0,0,0
8,89999,78,80000,6,50000,41,9999,0.100000,99,0,0.000000,14,3.000000,28.427101,13.255413,99,99,0,0,0,0,0
8,89999,79,80000,88,20000,40,9999,0.100000,99,0,0.000000,14,0.000000,35.581412,2.164452,99,99,0,0,0,0,0
8,89999,80,80000,41,10000,40,9999,0.100000,99,0,0.000000,14,0.000000,25.964398,6.123248,99,99,0,0,0,0,0
8,89999,81,80000,6,20000,40,9999,0.100000,99,0,0.000000,14,0.000000,25.941364,23.197703,99,99,0,0,0,0,0
8,89999,82,80000,0,10000,40,9999,0.100000,99,0,0.000000,14,0.000000,34.301852,0.232608,99,99,0,0,0,0,0
8,89999,83,80000,0,10000,40,9999,0.100000,99,0,0.000000,14,3.000000,34.546005,9.910422,99,99,0,0,0,0,0
8,89999,84,80000,67,20000,0,9999,0.100000,99,0,0.002357,15,0.000000,20.259131,0.197607,99,99,0,0,0,1,0
8,89999,85,80000,6,50000,40,9999,0.100000,99,0,0.000000,14,0.000000,26.018648,0.076466,99,99,0,0,0,0,0
8,89999,86,80000,6,20000,40,9999,0.100000,99,0,0.000000,14,0.000000,19.499019,0.520305,99,99,0,0,0,0,0
8,89999,87,80000,0,10000,40,9999,0.100000,99,0,0.000000,14,0.000000,19.346881,3.065172,99,99,0,0,0,0,0
8,89999,88,80000,6,20000,40,9999,0.100000,99,0,0.000000,14,2.000000,30.828475,5.746156,99,99,0,0,0,0,0
8,89999,89,80000,57,40000,40,9999,0.100000,99,0,0.000000,14,0.000000,31.495886,1.518377,99,99,0,0,0,0,0
8,89999,90,80000,78,60000,40,9999,0.100000,99,0,0.000000,14,0.000000,19.717741,0.348506,99,99,0,0,0,0,0
8,89999,91,80000,6,20000,0,9999,0.100000,99,0,0.131133,15,0.000000,11.502194,0.085024,99,99,0,0,0,1,0
8,89999,92,80000,74,10000,40,9999,0.100000,99,0,0.000000,14,0.000000,21.936480,0.135833,99,99,0,0,0,0,0
8,89999,93,80000,67,20000,41,9999,0.100000,99,0,0.000000,14,4.000000,30.113497,8.605141,99,99,0,0,0,0,0
8,89999,94,80000,91,70000,0,9999,0.100000,99,0,0.382082,15,0.000000,22.881038,0.186764,99,99,0,0,0,0,1
8,89999,95,80000,6,50000,0,9999,0.100000,99,0,0.152940,15,0.000000,17.314128,0.340456,99,99,0,1,0,0,0
8,89999,96,80000,6,20000,40,9999,0.100000,99,0,0.000000,15,2.000000,32.315140,3.127850,99,99,0,0,0,0,0
8,89999,97,80000,0,10000,40,9999,0.100000,99,0,0.000000,14,0.000000,31.478629,5.254307,99,99,0,0,0,0,0
8,89999,98,80000,11,0,40,9999,0.100000,99,0,0.000000,14,0.000000,31.383032,7.821965,99,99,0,0,0,0,0
8,89999,99,80000,74,10000,40,9999,0.100000,99,0,0.000000,14,0.000000,23.830062,0.176231,99,99,0,0,0,0,0
9,99999,0,90000,78,60000,40,9999,0.100000,99,0,0.000000,15,1.000000,25.839414,3.685956,99,99,0,0,0,0,0
9,99999,1,90000,91,20000,40,9999,0.100000,99,0,0.000000,15,0.000000,17.967338,1.016339,99,99,0,0,0,0,0
9,99999,2,90000,41,10000,0,9999,0.100000,99,0,0.686125,15,0.000000,28.562506,0.249176,99,99,0,0,0,1,0
9,99999,3,90000,78,0,0,9999,0.100000,99,0,0.116466,15,0.000000,24.855471,0.328597,99,99,0,0,0,0,1
9,99999,4,90000,41,10000,40,9999,0.100000,99,0,0.000000,15,0.000000,25.164838,0.194580,99,99,0,0,0,0,0
9,99999,5,90000,91,20000,40,9999,0.100000,99,0,0.000000,15,1.000000,30.541213,10.257478,99,99,0,0,0,0,0
9,99999,6,90000,91,70000,41,9999,0.100000,99,0,0.000000,15,6.000000,31.456246,16.410023,99,99,0,0,0,0,0
9,99999,7,90000,67,20000,40,9999,0.100000,99,0,0.000000,15,0.000000,31.438020,2.475830,99,99,0,0,0,0,0
9,99999,8,90000,15,70000,40,9999,0.100000,99,0,0.000000,15,0.000000,21.408858,0.009639,99,99,0,0,0,0,0
9,99999,9,90000,57,40000,0,9999,0.100000,99,0,10.280774,15,2.000000,28.738111,2.243940,99,99,0,1,0,0,0
9,99999,10,90000,78,0,40,9999,0.100000,99,0,0.000000,15,0.000000,20.837337,0.716995,99,99,0,0,0,0,0
9,99999,11,90000,57,40000,40,9999,0.100000,99,0,0.000000,15,0.000000,29.950657,11.872767,99,99,0,0,0,0,0
9,99999,12,90000,78,0,40,9999,0.100000,99,0,0.000000,15,0.000000,16.916053,0.721127,99,99,0,0,0,0,0
9,99999,13,90000,67,20000,40,9999,0.100000,99,0,0.000000,15,0.000000,13.016335,0.349904,99,99,0,0,0,0,0
9,99999,14,90000,31,0,0,9999,0.100000,99,0,0.071781,15,0.000000,23.057389,0.358453,99,99,0,0,0,0,1
9,99999,15,90000,78,0,40,9999,0.100000,99,0,0.000000,15,1.000000,29.975342,19.343892,99,99,0,0,0,0,0
9,99999,16,90000,11,0,40,9999,0.100000,99,0,0.000000,15,0.000000,17.368343,0.138202,99,99,0,0,0,0,0
9,99999,17,90000,15,70000,0,9999,0.100000,99,0,0.041087,15,0.000000,21.722357,0.212493,99,99,0,0,1,0,0
9,99999,18,90000,57,40000,40,9999,0.100000,99,0,0.000000,15,0.000000,28.489617,0.542881,99,99,0,0,0,0,0
9,99999,19,90000,78,0,40,9999,0.100000,99,0,0.000000,15,0.000000,38.031123,0.081063,99,99,0,0,0,0,0
9,99999,20,90000,31,0,40,9999,0.100000,99,0,0.000000,15,0.000000,25.714131,0.256061,99,99,0,0,0,0,0
9,99999,21,90000,91,20000,0,9999,0.100000,99,0,0.261224,15,0.000000,17.966342,0.197006,99,99,0,0,0,1,0
9,99999,22,90000,15,70000,0,9999,0.100000,99,0,0.106827,15,0.000000,22.826510,0.182953,99,99,0,0,0,0,1
9,99999,23,90000,41,10000,0,9999,0.100000,99,0,0.474111,15,0.000000,19.273507,0.801589,99,99,0,0,0,0,1
9,99999,24,90000,74,10000,0,9999,0.100000,99,0,0.411194,15,0.000000,25.105530,0.202075,99,99,0,0,0,0,1
9,99999,25,90000,91,20000,40,9999,0.100000,99,0,0.000000,15,0.000000,23.800372,22.909208,99,99,0,0,0,0,0
9,99999,26,90000,11,0,0,9999,0.100000,99,0,0.229493,15,0.000000,19.377807,0.790798,99,99,0,0,0,0,1
9,99999,27,90000,78,60000,40,9999,0.100000,99,0,0.000000,15,0.000000,26.456077,0.193554,99,99,0,0,0,0,0
9,99999,28,90000,91,20000,40,9999,0.100000,99,0,0.000000,15,0.000000,25.996559,22.983231,99,99,0,0,0,0,0
9,99999,29,90000,15,70000,0,9999,0.100000,99,0,0.007267,15,0.000000,17.126272,0.187666,99,99,0,0,1,0,0
9,99999,30,90000,6,20000,0,9999,0.100000,99,0,0.338614,15,0.000000,30.967884,0.391594,99,99,0,0,0,1,0
9,99999,31,90000,57,40000,40,9999,0.100000,99,0,0.000000,15,0.000000,35.572318,0.235500,99,99,0,0,0,0,0
9,99999,32,90000,41,10000,40,9999,0.100000,99,0,0.000000,15,0.000000,26.284348,0.376647,99,99,0,0,0,0,0
9,99999,33,90000,41,10000,40,9999,0.100000,99,0,0.000000,15,0.000000,28.618655,1.199351,99,99,0,0,0,0,0
9,99999,34,90000,91,70000,0,9999,0.100000,99,0,7.926899,15,1.000000,27.604261,1.857916,99,99,0,1,0,0,0
9,99999,35,90000,11,0,0,9999,0.100000,99,0,0.024997,15,0.000000,21.070501,0.113818,99,99,0,0,0,1,0
9,99999,36,90000,0,10000,40,9999,0.100000,99,0,0.000000,15,0.000000,17.323276,0.594741,99,99,0,0,0,0,0
9,99999,37,90000,91,70000,41,9999,0.100000,99,0,0.000000,15,5.000000,30.627935,7.636584,99,99,0,0,0,0,0
9,99999,38,90000,11,0,0,9999,0.100000,99,0,0.056340,15,0.000000,26.573780,0.098690,99,99,0,0,0,0,1
9,99999,39,90000,15,70000,40,9999,0.100000,99,0,0.000000,15,0.000000,25.206370,0.227939,99,99,0,0,0,0,0
9,99999,40,90000,6,50000,40,9999,0.100000,99,0,0.000000,15,0.000000,24.209934,0.212065,99,99,0,0,0,0,0
9,99999,41,90000,24,50000,40,9999,0.100000,99,0,0.000000,15,0.000000,34.848607,0.136502,99,99,0,0,0,0,0
9,99999,42,90000,31,0,42,9999,0.100000,99,0,0.000000,15,5.000000,23.013879,6.103097,99,99,0,0,0,0,0
9,99999,43,90000,78,60000,40,9999,0.100000,99,0,0.000000,15,3.000000,30.307660,20.329443,99,99,0,0,0,0,0
9,99999,44,90000,15,70000,0,9999,0.100000,99,0,0.129063,15,0.000000,26.157727,0.117464,99,99,0,0,0,0,1
9,99999,45,90000,78,0,40,9999,0.100000,99,0,0.000000,15,0.000000,18.927564,0.120792,99,99,0,0,0,0,0
9,99999,46,90000,6,20000,40,9999,0.100000,99,0,0.000000,15,0.000000,22.487211,0.146014,99,99,0,0,0,0,0
9,99999,47,90000,6,20000,40,9999,0.100000,99,0,0.000000,15,2.000000,28.944361,2.384066,99,99,0,0,0,0,0
9,99999,48,90000,31,0,40,9999,0.100000,99,0,0.000000,15,0.000000,25.247869,0.306125,99,99,0,0,0,0,0
9,99999,49,90000,57,40000,4,9999,0.100000,99,0,1.735527,15,10.000000,23.207877,20.677216,99,99,0,1,0,0,0
9,99999,50,90000,0,10000,0,9999,0.100000,99,0,0.910083,15,0.000000,23.868780,0.410440,99,99,0,1,0,0,0
9,99999,51,90000,6,20000,41,9999,0.100000,99,0,0.000000,15,4.000000,28.138697,14.960291,99,99,0,0,0,0,0
9,99999,52,90000,11,0,40,9999,0.100000,99,0,0.000000,15,1.000000,27.349679,1.698022,99,99,0,0,0,0,0
9,99999,53,90000,15,70000,43,9999,0.100000,99,0,0.000000,15,9.000000,25.433767,13.506695,99,99,0,0,0,0,0
9,99999,54,90000,6,50000,40,9999,0.100000,99,0,0.000000,15,0.000000,17.954841,0.303605,99,99,0,0,0,0,0
9,99999,55,90000,24,50000,40,9999,0.100000,99,0,0.000000,15,0.000000,25.915391,0.179122,99,99,0,0,0,0,0
9,99999,56,90000,67,20000,40,9999,0.100000,99,0,0.000000,15,0.000000,25.378360,0.651783,99,99,0,0,0,0,0
9,99999,57,90000,6,20000,42,9999,0.100000,99,0,0.000000,15,8.000000,31.190217,12.745513,99,99,0,0,0,0,0
9,99999,58,90000,6,20000,40,9999,0.100000,99,0,0.000000,15,0.000000,20.817878,2.986829,99,99,0,0,0,0,0
9,99999,59,90000,24,50000,41,9999,0.100000,99,0,0.000000,15,5.000000,25.729432,24.584550,99,99,0,0,0,0,0
9,99999,60,90000,78,60000,40,9999,0.100000,99,0,0.000000,15,0.000000,35.947760,0.208575,99,99,0,0,0,0,0
9,99999,61,90000,31,0,40,9999,0.100000,99,0,0.000000,15,0.000000,23.633550,0.755853,99,99,0,0,0,0,0
9,99999,62,90000,78,0,40,9999,0.100000,99,0,0.000000,15,0.000000,23.220050,1.259256,99,99,0,0,0,0,0
9,99999,63,90000,6,50000,0,9999,0.100000,99,0,0.341047,15,0.000000,25.177880,0.163943,99,99,0,0,0,0,1
9,99999,64,90000,15,70000,40,9999,0.100000,99,0,0.000000,15,0.000000,31.232817,1.378021,99,99,0,0,0,0,0
9,99999,65,90000,78,60000,40,9999,0.100000,99,0,0.000000,15,0.000000,23.816786,0.686339,99,99,0,0,0,0,0
9,99999,66,90000,78,0,40,9999,0.135000,99,0,0.000000,15,0.000000,31.576540,1.231750,99,99,0,0,0,0,0
9,99999,67,90000,91,70000,40,9999,0.100000,99,0,0.000000,15,0.000000,11.573183,0.179274,99,99,0,0,0,0,0
9,99999,68,90000,67,20000,40,9999,0.100000,99,0,0.000000,15,0.000000,25.189713,0.242885,99,99,0,0,0,0,0
9,99999,69,90000,74,10000,40,9999,0.100000,99,0,0.000000,15,0.000000,18.814167,0.201262,99,99,0,0,0,0,0
9,99999,70,90000,0,10000,40,9999,0.100000,99,0,0.000000,15,0.000000,31.006315,2.232928,99,99,0,0,0,0,0
9,99999,71,90000,67,20000,40,9999,0.100000,99,0,0.000000,15,0.000000,25.248585,0.342800,99,99,0,0,0,0,0
9,99999,72,90000,74,10000,0,9999,0.100000,99,0,0.497407,15,0.000000,19.125161,0.213982,99,99,0,1,0,0,0
9,99999,73,90000,57,40000,40,9999,0.100000,99,0,0.000000,15,0.000000,31.227167,0.311043,99,99,0,0,0,0,0
9,99999,74,90000,15,70000,0,9999,0.100000,99,0,0.579020,15,0.000000,19.138883,0.304078,99,99,0,0,0,1,0
9,99999,75,90000,6,20000,40,9999,0.100000,99,0,0.000000,15,0.000000,28.398604,0.216093,99,99,0,0,0,0,0
9,99999,76,90000,6,20000,40,9999,0.100000,99,0,0.000000,15,0.000000,23.179367,2.256228,99,99,0,0,0,0,0
9,99999,77,90000,74,10000,40,9999,0.100000,99,0,0.000000,15,3.000000,29.733684,5.650697,99,99,0,0,0,0,0
9,99999,78,90000,57,40000,40,9999,0.100000,99,0,0.000000,15,2.000000,29.937948,13.248323,99,99,0,0,0,0,0
9,99999,79,90000,67,20000,0,9999,0.100000,99,0,0.013513,15,0.000000,35.493157,0.664540,99,99,0,0,1,0,0
9,99999,80,90000,24,50000,40,9999,0.100000,99,0,0.000000,15,0.000000,25.666433,0.756729,99,99,0,0,0,0,0
9,99999,81,90000,6,20000,40,9999,0.100000,99,0,0.000000,15,0.000000,25.916362,22.957414,99,99,0,0,0,0,0
9,99999,82,90000,24,50000,40,9999,0.100000,99,0,0.000000,15,0.000000,34.303166,0.234185,99,99,0,0,0,0,0
9,99999,83,90000,74,10000,41,9999,0.100000,99,0,0.000000,15,5.000000,32.586173,14.147102,99,99,0,0,0,0,0
9,99999,84,90000,24,50000,0,9999,0.100000,99,0,0.001381,15,0.000000,20.261128,0.198920,99,99,0,0,0,1,0
9,99999,85,90000,74,10000,40,9999,0.100000,99,0,0.000000,15,0.000000,25.982029,0.076811,99,99,0,0,0,0,0
9,99999,86,90000,91,70000,40,9999,0.100000,99,0,0.000000,15,0.000000,19.494211,0.741413,99,99,0,0,0,0,0
9,99999,87,90000,31,0,40,9999,0.100000,99,0,0.000000,15,0.000000,19.324132,7.561476,99,99,0,0,0,0,0
9,99999,88,90000,78,0,40,9999,0.100000,99,0,0.000000,15,1.000000,30.833429,9.668972,99,99,0,0,0,0,0
9,99999,89,90000,67,20000,40,9999,0.100000,99,0,0.000000,15,1.000000,31.151594,1.452312,99,99,0,0,0,0,0
9,99999,90,90000,78,60000,40,9999,0.100000,99,0,0.000000,15,0.000000,19.676054,0.312159,99,99,0,0,0,0,0
9,99999,91,90000,57,40000,0,9999,0.100000,99,0,0.000010,15,0.000000,11.502716,0.077873,99,99,0,0,0,1,0
9,99999,92,90000,91,70000,40,9999,0.100000,99,0,0.000000,15,0.000000,21.943639,0.143724,99,99,0,0,0,0,0
9,99999,93,90000,6,20000,40,9999,0.100000,99,0,0.000000,15,0.000000,30.925455,10.410226,99,99,0,0,0,0,0
9,99999,94,90000,74,10000,40,9999,0.100000,99,0,0.000000,15,0.000000,22.800404,0.169460,99,99,0,0,0,0,0
9,99999,95,90000,78,60000,0,9999,0.100000,99,0,0.254641,15,0.000000,17.359985,0.163878,99,99,0,1,0,0,0
9,99999,96,90000,41,10000,40,9999,0.100000,99,0,0.000000,15,0.000000,34.736190,0.576660,99,99,0,0,0,0,0
9,99999,97,90000,67,20000,40,9999,0.100000,99,0,0.000000,15,0.000000,31.137982,12.149571,99,99,0,0,0,0,0
9,99999,98,90000,11,0,42,9999,0.100000,99,0,0.000000,15,9.000000,31.445568,17.379360,99,99,0,0,0,0,0
9,99999,99,90000,11,0,1,9999,0.100000,99,0,0.292695,15,3.000000,23.756092,6.520839,99,99,0,0,0,0,1
10,109999,0,100000,6,50000,40,9999,0.100000,99,0,0.000000,15,0.000000,24.767629,2.479626,99,99,0,0,0,0,0
10,109999,1,100000,78,60000,40,9999,0.100000,99,0,0.000000,15,0.000000,17.919780,0.352200,99,99,0,0,0,0,0
10,109999,2,100000,31,0,0,9999,0.100000,99,0,0.616052,15,0.000000,28.399187,0.269473,99,99,0,0,0,1,0
10,109999,3,100000,24,50000,0,9999,0.100000,99,0,0.271127,15,0.000000,24.835262,0.702062,99,99,0,0,0,0,1
10,109999,4,100000,0,10000,40,9999,0.100000,99,0,0.000000,16,0.000000,25.140077,0.187387,99,99,0,0,0,0,0
10,109999,5,100000,91,20000,40,9999,0.100000,99,0,0.000000,15,0.000000,29.958814,9.969610,99,99,0,0,0,0,0
10,109999,6,100000,15,70000,40,9999,0.100000,99,0,0.000000,15,0.000000,31.822348,1.525543,99,99,0,0,0,0,0
10,109999,7,100000,78,0,0,9999,0.100000,99,0,1.653741,15,0.000000,31.438254,1.028357,99,99,0,0,0,1,0
10,109999,8,100000,31,0,40,9999,0.100000,99,0,0.000000,15,0.000000,21.408628,0.009610,99,99,0,0,0,0,0
10,109999,9,100000,0,10000,0,9999,0.100000,99,0,15.883451,15,3.000000,30.083753,3.357990,99,99,0,1,0,0,0
10,109999,10,100000,67,20000,40,9999,0.100000,99,0,0.000000,16,0.000000,20.632766,0.815414,99,99,0,0,0,0,0
10,109999,11,100000,78,0,40,9999,0.100000,99,0,0.000000,15,3.000000,29.785600,17.588996,99,99,0,0,0,0,0
10,109999,12,100000,49,90000,40,9999,0.100000,99,0,0.000000,16,0.000000,17.313196,0.761290,99,99,0,0,0,0,0
10,109999,13,100000,57,40000,40,9999,0.100000,99,0,0.000000,15,0.000000,13.256996,0.347579,99,99,0,0,0,0,0
10,109999,14,100000,91,70000,0,9999,0.100000,99,0,0.767337,15,0.000000,22.989457,0.473000,99,99,0,0,0,0,1
10,109999,15,100000,57,40000,40,9999,0.100000,99,0,0.000000,15,2.000000,30.143452,10.537219,99,99,0,0,0,0,0
10,109999,16,100000,0,10000,0,9999,0.100000,99,0,0.009911,15,0.000000,17.360696,0.136960,99,99,0,0,1,0,0
10,109999,17,100000,91,20000,0,9999,0.100000,99,0,0.032460,15,0.000000,21.725043,0.234915,99,99,0,0,1,0,0
10,109999,18,100000,11,0,40,9999,0.100000,99,0,0.000000,15,0.000000,28.326689,0.567391,99,99,0,0,0,0,0
10,109999,19,100000,91,70000,40,9999,0.100000,99,0,0.000000,16,0.000000,38.031178,0.092014,99,99,0,0,0,0,0
10,109999,20,100000,11,0,40,9999,0.100000,99,0,0.000000,15,0.000000,25.669388,0.263865,99,99,0,0,0,0,0
10,109999,21,100000,91,70000,0,9999,0.100000,99,0,0.113852,15,0.000000,18.081469,0.168265,99,99,0,0,0,1,0
10,109999,22,100000,67,20000,40,9999,0.100000,99,0,0.000000,15,0.000000,22.754858,0.151915,99,99,0,0,0,0,0
10,109999,23,100000,98,90000,0,9999,0.100000,99,0,0.117578,15,0.000000,19.195364,0.860558,99,99,0,0,0,0,1
10,109999,24,100000,41,10000,0,9999,0.100000,99,0,0.475544,15,0.000000,25.012804,0.178210,99,99,0,0,0,0,1
10,109999,25,100000,6,50000,40,9999,0.100000,99,0,0.000000,15,0.000000,23.765529,22.809560,99,99,0,0,0,0,0
10,109999,26,100000,57,40000,40,9999,0.100000,99,0,0.000000,15,1.000000,19.357643,1.791286,99,99,0,0,0,0,0
10,109999,27,100000,15,70000,40,9999,0.100000,99,0,0.000000,15,0.000000,26.430171,0.126688,99,99,0,0,0,0,0
10,109999,28,100000,78,0,40,9999,0.100000,99,0,0.000000,16,0.000000,25.942121,23.990345,99,99,0,0,0,0,0
10,109999,29,100000,78,0,40,9999,0.100000,99,0,0.000000,15,0.000000,17.118626,0.174302,99,99,0,0,0,0,0
10,109999,30,100000,24,50000,40,9999,0.100000,99,0,0.000000,15,0.000000,30.969961,0.833705,99,99,0,0,0,0,0
10,109999,31,100000,74,10000,40,9999,0.100000,99,0,0.000000,15,0.000000,35.572531,0.230826,99,99,0,0,0,0,0
10,109999,32,100000,41,10000,0,9999,0.100000,99,0,0.000109,15,0.000000,26.272887,0.536436,99,99,0,0,0,0,1
10,109999,33,100000,11,0,40,9999,0.100000,99,0,0.000000,15,0.000000,28.450884,1.502519,99,99,0,0,0,0,0
10,109999,34,100000,6,20000,0,9999,0.100000,99,0,2.574265,16,0.000000,27.796843,1.114177,99,99,0,1,0,0,0
10,109999,35,100000,6,50000,0,9999,0.100000,99,0,0.000000,15,0.000000,21.063391,0.087825,99,99,0,0,0,1,0
10,109999,36,100000,24,50000,40,9999,0.100000,99,0,0.000000,15,0.000000,17.719985,0.625783,99,99,0,0,0,0,0
10,109999,37,100000,41,10000,40,9999,0.100000,99,0,0.000000,15,0.000000,29.805650,0.715043,99,99,0,0,0,0,0
10,109999,38,100000,57,40000,0,9999,0.100000,99,0,0.052904,16,0.000000,26.556825,0.096216,99,99,0,0,0,0,1
10,109999,39,100000,74,10000,0,9999,0.100000,99,0,0.095628,15,0.000000,25.100432,0.093902,99,99,0,0,0,0,1
10,109999,40,100000,91,20000,40,9999,0.100000,99,0,0.000000,15,0.000000,24.195097,0.303188,99,99,0,0,0,0,0
10,109999,41,100000,67,20000,40,9999,0.100000,99,0,0.000000,15,0.000000,34.848223,0.140390,99,99,0,0,0,0,0
10,109999,42,100000,91,70000,40,9999,0.100000,99,0,0.000000,15,0.000000,19.646386,0.565732,99,99,0,0,0,0,0
10,109999,43,100000,98,90000,40,9999,0.100000,99,0,0.000000,16,2.000000,27.656666,15.047865,99,99,0,0,0,0,0
10,109999,44,100000,67,20000,40,9999,0.100000,99,0,0.000000,15,0.000000,26.141196,0.170749,99,99,0,0,0,0,0
10,109999,45,100000,98,90000,0,9999,0.100000,99,0,1.740624,16,1.000000,18.916494,1.131629,99,99,0,0,0,0,1
10,109999,46,100000,91,70000,0,9999,0.100000,99,0,0.014743,16,0.000000,22.402811,0.076294,99,99,0,0,0,0,1
10,109999,47,100000,11,0,40,9999,0.100000,99,0,0.000000,16,3.000000,30.281450,3.425720,99,99,0,0,0,0,0
10,109999,48,100000,11,0,40,9999,0.100000,99,0,0.000000,15,0.000000,25.150397,0.219648,99,99,0,0,0,0,0
10,109999,49,100000,31,0,0,9999,0.100000,99,0,1.082244,16,0.000000,23.521797,3.433565,99,99,0,1,0,0,0
10,109999,50,100000,91,70000,0,9999,0.100000,99,0,0.567720,15,0.000000,24.129522,0.535060,99,99,0,1,0,0,0
10,109999,51,100000,41,10000,42,9999,0.100000,99,0,0.000000,15,9.000000,29.867802,28.588402,99,99,0,0,0,0,0
10,109999,52,100000,98,90000,40,9999,0.100000,99,0,0.000000,15,0.000000,27.543529,0.872692,99,99,0,0,0,0,0
10,109999,53,100000,91,70000,40,9999,0.100000,99,0,0.000000,15,0.000000,33.354678,0.236626,99,99,0,0,0,0,0
10,109999,54,100000,0,10000,40,9999,0.100000,99,0,0.000000,15,0.000000,18.061945,0.291711,99,99,0,0,0,0,0
10,109999,55,100000,6,50000,40,9999,0.100000,99,0,0.000000,16,0.000000,25.891077,0.142938,99,99,0,0,0,0,0
10,109999,56,100000,74,10000,40,9999,0.100000,99,0,0.000000,15,0.000000,25.432203,0.179029,99,99,0,0,0,0,0
10,109999,57,100000,98,90000,40,9999,0.100000,99,0,0.000000,15,0.000000,26.561708,0.256462,99,99,0,0,0,0,0
10,109999,58,100000,0,10000,40,9999,0.100000,99,0,0.000000,15,0.000000,20.616399,3.132283,99,99,0,0,0,0,0
10,109999,59,100000,57,40000,40,9999,0.100000,99,0,0.000000,16,0.000000,24.825029,3.526604,99,99,0,0,0,0,0
10,109999,60,100000,11,0,40,9999,0.100000,99,0,0.000000,15,0.000000,35.948530,0.224022,99,99,0,0,0,0,0
10,109999,61,100000,67,20000,40,9999,0.100000,99,0,0.000000,15,0.000000,23.532574,1.004857,99,99,0,0,0,0,0
10,109999,62,100000,91,70000,40,9999,0.100000,99,0,0.000000,15,0.000000,23.574690,5.657372,99,99,0,0,0,0,0
10,109999,63,100000,74,10000,40,9999,0.100000,99,0,0.000000,15,0.000000,25.090783,0.100640,99,99,0,0,0,0,0
10,109999,64,100000,57,40000,40,9999,0.100000,99,0,0.000000,15,1.000000,30.898038,1.537252,99,99,0,0,0,0,0
10,109999,65,100000,11,0,40,9999,0.100000,99,0,0.000000,15,0.000000,23.716138,0.773072,99,99,0,0,0,0,0
10,109999,66,100000,78,60000,40,9999,0.100000,99,0,0.000000,15,0.000000,31.578880,1.324362,99,99,0,0,0,0,0
10,109999,67,100000,11,0,40,9999,0.100000,99,0,0.000000,15,0.000000,11.575542,0.175470,99,99,0,0,0,0,0
10,109999,68,100000,6,50000,40,9999,0.100000,99,0,0.000000,15,0.000000,25.191725,0.234959,99,99,0,0,0,0,0
10,109999,69,100000,49,90000,40,9999,0.100000,99,0,0.000000,16,0.000000,18.745958,0.435707,99,99,0,0,0,0,0
10,109999,70,100000,41,10000,40,9999,0.100000,99,0,0.000000,15,1.000000,31.210029,5.404019,99,99,0,0,0,0,0
10,109999,71,100000,67,20000,40,9999,0.100000,99,0,0.000000,15,0.000000,25.108047,0.260257,99,99,0,0,0,0,0
10,109999,72,100000,6,20000,0,9999,0.100000,99,0,2.689895,15,0.000000,19.114144,0.679015,99,99,0,1,0,0,0
10,109999,73,100000,78,60000,40,9999,0.100000,99,0,0.000000,15,0.000000,31.229748,0.537817,99,99,0,0,0,0,0
10,109999,74,100000,67,20000,0,9999,0.100000,99,0,0.293838,15,0.000000,19.202401,0.279585,99,99,0,0,0,1,0
10,109999,75,100000,41,10000,40,9999,0.100000,99,0,0.000000,16,0.000000,28.241279,0.243581,99,99,0,0,0,0,0
10,109999,76,100000,41,10000,40,9999,0.100000,99,0,0.000000,15,0.000000,23.551858,5.545679,99,99,0,0,0,0,0
10,109999,77,100000,91,70000,40,9999,0.100000,99,0,0.000000,15,0.000000,26.373817,22.099207,99,99,0,0,0,0,0
10,109999,78,100000,6,20000,40,9999,0.100000,99,0,0.000000,15,1.000000,31.561536,13.493306,99,99,0,0,0,0,0
10,109999,79,100000,91,20000,0,9999,0.100000,99,0,0.018570,16,0.000000,35.375143,0.156010,99,99,0,0,1,0,0
10,109999,80,100000,91,70000,40,9999,0.100000,99,0,0.000000,16,0.000000,25.608168,0.675553,99,99,0,0,0,0,0
10,109999,81,100000,67,20000,40,9999,0.100000,99,0,0.000000,15,0.000000,26.012819,22.461923,99,99,0,0,0,0,0
10,109999,82,100000,57,40000,40,9999,0.100000,99,0,0.000000,15,0.000000,34.304105,0.235451,99,99,0,0,0,0,0
10,109999,83,100000,6,20000,40,9999,0.100000,99,0,0.000000,15,1.000000,29.869210,11.532224,99,99,0,0,0,0,0
10,109999,84,100000,6,50000,0,9999,0.100000,99,0,0.002786,15,0.000000,20.262057,0.202400,99,99,0,0,0,1,0
10,109999,85,100000,41,10000,40,9999,0.100000,99,0,0.000000,15,0.000000,25.945113,0.079772,99,99,0,0,0,0,0
10,109999,86,100000,6,50000,40,9999,0.135000,99,0,0.000000,16,0.000000,19.588983,0.507413,99,99,0,0,0,0,0
10,109999,87,100000,41,10000,40,9999,0.100000,99,0,0.000000,16,0.000000,19.214775,4.734276,99,99,0,0,0,0,0
10,109999,88,100000,6,50000,40,9999,0.100000,99,0,0.000000,15,0.000000,31.308419,0.140227,99,99,0,0,0,0,0
10,109999,89,100000,78,0,40,9999,0.100000,99,0,0.000000,15,2.000000,30.813505,3.748122,99,99,0,0,0,0,0
10,109999,90,100000,11,0,40,9999,0.100000,99,0,0.000000,15,1.000000,19.649428,1.662201,99,99,0,0,0,0,0
10,109999,91,100000,91,70000,0,9999,0.100000,99,0,0.000621,15,0.000000,11.501996,0.078951,99,99,0,0,0,1,0
10,109999,92,100000,91,70000,40,9999,0.100000,99,0,0.000000,15,0.000000,21.946197,0.160105,99,99,0,0,0,0,0
10,109999,93,100000,0,10000,40,9999,0.100000,99,0,0.000000,15,0.000000,31.245988,2.442770,99,99,0,0,0,0,0
10,109999,94,100000,91,20000,0,9999,0.100000,99,0,0.096950,15,0.000000,22.755697,0.143782,99,99,0,0,0,0,1
10,109999,95,100000,98,90000,0,9999,0.100000,99,0,0.247016,16,0.000000,17.304653,0.165666,99,99,0,1,0,0,0
10,109999,96,100000,57,40000,40,9999,0.100000,99,0,0.000000,15,0.000000,34.735092,0.587360,99,99,0,0,0,0,0
10,109999,97,100000,6,50000,42,9999,0.100000,99,0,0.000000,15,8.000000,31.242898,10.399462,99,99,0,0,0,0,0
10,109999,98,100000,57,40000,40,9999,0.100000,99,0,0.000000,15,0.000000,26.222675,0.198996,99,99,0,0,0,0,0
10,109999,99,100000,6,20000,40,9999,0.100000,99,0,0.000000,15,0.000000,23.711753,0.089962,99,99,0,0,0,0,0
11,119999,0,110000,6,50000,40,9999,0.100000,99,0,0.000000,16,0.000000,24.570970,1.873008,99,99,0,0,0,0,0
11,119999,1,110000,78,0,40,9999,0.100000,99,0,0.000000,16,0.000000,17.993342,0.342763,99,99,0,0,0,0,0
11,119999,2,110000,91,70000,0,9999,0.100000,99,0,1.810133,16,0.000000,28.272214,0.392015,99,99,0,0,0,1,0
11,119999,3,110000,49,90000,0,9999,0.100000,99,0,0.012370,16,0.000000,24.670908,0.178186,99,99,0,0,0,0,1
11,119999,4,110000,0,10000,40,9999,0.100000,99,0,0.000000,16,0.000000,25.122721,0.167268,99,99,0,0,0,0,0
11,119999,5,110000,91,70000,41,9999,0.100000,99,0,0.000000,16,5.000000,29.824618,9.796777,99,99,0,0,0,0,0
11,119999,6,110000,49,90000,40,9999,0.100000,99,0,0.000000,16,0.000000,32.286297,3.032751,99,99,0,0,0,0,0
11,119999,7,110000,78,0,0,9999,0.100000,99,0,0.434794,16,0.000000,31.375562,0.519175,99,99,0,0,0,1,0
11,119999,8,110000,6,20000,40,9999,0.100000,99,0,0.000000,16,0.000000,21.408512,0.009603,99,99,0,0,0,0,0
11,119999,9,110000,49,90000,0,9999,0.100000,99,0,6.151053,16,1.000000,32.283218,1.394047,99,99,0,1,0,0,0
11,119999,10,110000,67,20000,40,9999,0.100000,99,0,0.000000,16,0.000000,20.439441,0.826339,99,99,0,0,0,0,0
11,119999,11,110000,11,0,40,9999,0.100000,99,0,0.000000,16,0.000000,30.843802,12.656035,99,99,0,0,0,0,0
11,119999,12,110000,91,70000,0,9999,0.100000,99,0,0.002035,16,0.000000,17.734849,0.724246,99,99,0,0,1,0,0
11,119999,13,110000,67,20000,40,9999,0.100000,99,0,0.000000,16,0.000000,13.482474,0.323820,99,99,0,0,0,0,0
11,119999,14,110000,41,10000,0,9999,0.100000,99,0,0.076948,16,0.000000,22.882467,0.201211,99,99,0,0,0,0,1
11,119999,15,110000,78,0,40,9999,0.100000,99,0,0.000000,16,2.000000,30.760050,17.069225,99,99,0,0,0,0,0
11,119999,16,110000,67,20000,0,9999,0.100000,99,0,0.007722,16,0.000000,17.352788,0.139383,99,99,0,0,1,0,0
11,119999,17,110000,74,10000,0,9999,0.100000,99,0,0.047521,16,0.000000,21.729733,0.214294,99,99,0,0,1,0,0
11,119999,18,110000,0,10000,40,9999,0.100000,99,0,0.000000,16,0.000000,28.180487,0.510215,99,99,0,0,0,0,0
11,119999,19,110000,78,0,40,9999,0.100000,99,0,0.000000,16,0.000000,38.031185,0.089161,99,99,0,0,0,0,0
11,119999,20,110000,6,50000,40,9999,0.100000,99,0,0.000000,16,0.000000,25.627230,0.264550,99,99,0,0,0,0,0
11,119999,21,110000,78,60000,0,9999,0.100000,99,0,0.136234,16,0.000000,18.161871,0.173611,99,99,0,0,0,1,0
11,119999,22,110000,49,90000,0,9999,0.100000,99,0,0.180528,16,0.000000,22.747380,0.142624,99,99,0,0,0,0,1
11,119999,23,110000,53,90000,0,9999,0.100000,99,0,0.361067,16,0.000000,18.767814,0.184836,99,99,0,0,0,0,1
11,119999,24,110000,41,10000,0,9999,0.100000,99,0,0.383276,16,0.000000,24.964358,0.135898,99,99,0,0,0,0,1
11,119999,25,110000,11,0,40,9999,0.100000,99,0,0.000000,16,0.000000,23.750614,22.643176,99,99,0,0,0,0,0
11,119999,26,110000,53,90000,40,9999,0.100000,99,0,0.000000,16,0.000000,18.652481,2.578504,99,99,0,0,0,0,0
11,119999,27,110000,91,70000,40,9999,0.100000,99,0,0.000000,16,0.000000,26.392626,0.120787,99,99,0,0,0,0,0
11,119999,28,110000,74,10000,40,9999,0.100000,99,0,0.000000,16,0.000000,25.760958,23.160491,99,99,0,0,0,0,0
11,119999,29,110000,0,10000,40,9999,0.100000,99,0,0.000000,16,0.000000,17.110780,0.167941,99,99,0,0,0,0,0
11,119999,30,110000,78,0,40,9999,0.100000,99,0,0.000000,16,0.000000,30.905292,0.584476,99,99,0,0,0,0,0
11,119999,31,110000,67,20000,40,9999,0.100000,99,0,0.000000,16,0.000000,35.572178,0.227361,99,99,0,0,0,0,0
11,119999,32,110000,0,10000,40,9999,0.100000,99,0,0.000000,16,0.000000,26.196846,0.099606,99,99,0,0,0,0,0
11,119999,33,110000,78,0,40,9999,0.100000,99,0,0.000000,16,0.000000,28.346952,0.941650,99,99,0,0,0,0,0
11,119999,34,110000,57,40000,0,9999,0.100000,99,0,0.000694,16,0.000000,28.132538,0.956602,99,99,0,1,0,0,0
11,119999,35,110000,11,0,0,9999,0.100000,99,0,0.056359,16,0.000000,21.062972,0.082536,99,99,0,0,0,1,0
11,119999,36,110000,6,20000,40,9999,0.100000,99,0,0.000000,16,0.000000,18.142129,1.744410,99,99,0,0,0,0,0
11,119999,37,110000,11,0,42,9999,0.100000,99,0,0.000000,16,9.000000,29.802205,10.524526,99,99,0,0,0,0,0
11,119999,38,110000,98,90000,0,9999,0.100000,99,0,0.062101,16,0.000000,26.539399,0.092929,99,99,0,0,0,0,1
11,119999,39,110000,91,20000,0,9999,0.100000,99,0,0.072697,16,0.000000,25.069592,0.087894,99,99,0,0,0,0,1
11,119999,40,110000,57,40000,40,9999,0.100000,99,0,0.000000,16,0.000000,24.205785,0.204930,99,99,0,0,0,0,0
11,119999,41,110000,0,10000,40,9999,0.100000,99,0,0.000000,16,0.000000,34.848324,0.143511,99,99,0,0,0,0,0
11,119999,42,110000,6,20000,40,9999,0.100000,99,0,0.000000,16,0.000000,19.310725,0.312246,99,99,0,0,0,0,0
11,119999,43,110000,91,70000,41,9999,0.100000,99,0,0.000000,16,4.000000,29.113703,11.336536,99,99,0,0,0,0,0
11,119999,44,110000,57,40000,0,9999,0.100000,99,0,0.028567,16,0.000000,26.071780,0.189200,99,99,0,0,0,0,1
11,119999,45,110000,67,20000,0,9999,0.100000,99,0,0.181203,16,0.000000,18.180377,0.296094,99,99,0,0,0,0,1
11,119999,46,110000,91,70000,40,9999,0.135000,99,0,0.000000,16,0.000000,22.394885,0.245107,99,99,0,0,0,0,0
11,119999,47,110000,0,10000,40,9999,0.100000,99,0,0.000000,16,1.000000,32.466973,1.468537,99,99,0,0,0,0,0
11,119999,48,110000,78,0,40,9999,0.100000,99,0,0.000000,16,0.000000,25.097718,0.178079,99,99,0,0,0,0,0
11,119999,49,110000,11,0,40,9999,0.100000,99,0,0.000000,16,1.000000,24.231086,6.311894,99,99,0,0,0,0,0
11,119999,50,110000,98,90000,0,9999,0.100000,99,0,3.670713,16,1.000000,24.244331,2.327647,99,99,0,1,0,0,0
11,119999,51,110000,53,90000,40,9999,0.100000,99,0,0.000000,16,0.000000,28.940116,9.626244,99,99,0,0,0,0,0
11,119999,52,110000,6,20000,40,9999,0.100000,99,0,0.000000,16,0.000000,27.880031,0.603313,99,99,0,0,0,0,0
11,119999,53,110000,53,90000,40,9999,0.100000,99,0,0.000000,16,0.000000,33.355928,0.244209,99,99,0,0,0,0,0
11,119999,54,110000,41,10000,40,9999,0.100000,99,0,0.000000,16,0.000000,18.132923,0.292360,99,99,0,0,0,0,0
11,119999,55,110000,6,50000,40,9999,0.100000,99,0,0.000000,16,0.000000,25.844497,0.099502,99,99,0,0,0,0,0
11,119999,56,110000,74,10000,40,9999,0.100000,99,0,0.000000,16,0.000000,25.372608,0.129200,99,99,0,0,0,0,0
11,119999,57,110000,67,20000,40,9999,0.100000,99,0,0.000000,16,0.000000,26.524230,0.259212,99,99,0,0,0,0,0
11,119999,58,110000,78,60000,40,9999,0.100000,99,0,0.000000,16,0.000000,20.425129,2.660365,99,99,0,0,0,0,0
11,119999,59,110000,49,90000,40,9999,0.100000,99,0,0.000000,16,0.000000,24.903881,0.324789,99,99,0,0,0,0,0
11,119999,60,110000,53,90000,40,9999,0.100000,99,0,0.000000,16,0.000000,35.949996,0.225359,99,99,0,0,0,0,0
11,119999,61,110000,74,10000,40,9999,0.100000,99,0,0.000000,16,0.000000,23.440601,0.648810,99,99,0,0,0,0,0
11,119999,62,110000,91,70000,40,9999,0.100000,99,0,0.000000,16,0.000000,23.941263,1.680825,99,99,0,0,0,0,0
11,119999,63,110000,49,90000,40,9999,0.100000,99,0,0.000000,16,0.000000,25.071116,0.092544,99,99,0,0,0,0,0
11,119999,64,110000,53,90000,41,9999,0.100000,99,0,0.000000,16,5.000000,30.562852,7.472303,99,99,0,0,0,0,0
11,119999,65,110000,91,70000,40,9999,0.100000,99,0,0.000000,16,0.000000,23.608065,0.558028,99,99,0,0,0,0,0
11,119999,66,110000,91,20000,40,9999,0.100000,99,0,0.000000,16,0.000000,31.516325,1.120505,99,99,0,0,0,0,0
11,119999,67,110000,6,50000,40,9999,0.100000,99,0,0.000000,16,0.000000,11.576473,0.175111,99,99,0,0,0,0,0
11,119999,68,110000,31,0,40,9999,0.100000,99,0,0.000000,16,0.000000,25.193060,0.219586,99,99,0,0,0,0,0
11,119999,69,110000,67,20000,40,9999,0.100000,99,0,0.000000,16,0.000000,18.517890,0.195736,99,99,0,0,0,0,0
11,119999,70,110000,91,20000,40,9999,0.100000,99,0,0.000000,16,0.000000,31.495457,1.354501,99,99,0,0,0,0,0
11,119999,71,110000,98,90000,40,9999,0.100000,99,0,0.000000,16,0.000000,25.050679,0.250484,99,99,0,0,0,0,0
11,119999,72,110000,0,10000,0,9999,0.100000,99,0,0.100143,16,0.000000,19.163349,0.179446,99,99,0,1,0,0,0
11,119999,73,110000,67,20000,40,9999,0.100000,99,0,0.000000,16,0.000000,31.165975,0.160834,99,99,0,0,0,0,0
