generation,iteration,robot,birthday,ancestor_id,ancestor_birthday,cell_id,age,sigma,maps,genomes,fitness,cells_in_map,dist_max,dist_pot_max,dist_total,com_rx,com_tx,obj_group1,obj_group2,obj_group3,obj_group4,obj_group5
0,9999,0,0,0,0,90,9999,0.100000,99,0,30.556393,0,3.000000,30.932272,18.159233,99,99,2,0,0,0,0
0,9999,1,0,1,0,40,9999,0.100000,99,0,0.000000,0,0.000000,20.600000,6.141028,99,99,0,0,0,0,0
0,9999,2,0,2,0,0,9999,0.100000,99,0,0.459693,0,1.000000,23.576819,2.221539,99,99,0,0,0,0,1
0,9999,3,0,3,0,40,9999,0.100000,99,0,0.000000,0,1.000000,23.815933,9.674834,99,99,0,0,0,0,0
0,9999,4,0,4,0,96,9999,0.100000,99,0,82.068336,0,14.000000,20.062306,24.877581,99,99,1,0,0,0,0
0,9999,5,0,5,0,92,9999,0.100000,99,0,31.948596,0,7.000000,24.322360,20.569166,99,99,1,0,0,0,0
0,9999,6,0,6,0,41,9999,0.100000,99,0,0.000000,0,2.000000,18.127115,7.217922,99,99,0,0,0,0,0
0,9999,7,0,7,0,0,9999,0.100000,99,0,0.000152,0,0.000000,23.263861,0.621184,99,99,0,0,0,1,0
0,9999,8,0,8,0,42,9999,0.100000,99,0,0.000000,0,7.000000,31.896118,17.422182,99,99,0,0,0,0,0
0,9999,9,0,9,0,0,9999,0.100000,99,0,1.996588,0,0.000000,29.691877,3.068904,99,99,0,1,0,0,0
0,9999,10,0,10,0,40,9999,0.100000,99,0,0.000000,0,1.000000,26.600301,18.452971,99,99,0,0,0,0,0
0,9999,11,0,11,0,41,9999,0.100000,99,0,0.000000,0,4.000000,26.468455,8.803831,99,99,0,0,0,0,0
0,9999,12,0,12,0,40,9999,0.100000,99,0,0.000000,0,0.000000,27.620726,11.374275,99,99,0,0,0,0,0
0,9999,13,0,13,0,40,9999,0.100000,99,0,0.000000,0,1.000000,28.609675,17.571763,99,99,0,0,0,0,0
0,9999,14,0,14,0,0,9999,0.100000,99,0,0.049306,0,0.000000,24.426711,4.049096,99,99,0,0,0,0,1
0,9999,15,0,15,0,40,9999,0.100000,99,0,0.000000,0,1.000000,21.475626,16.544416,99,99,0,0,0,0,0
0,9999,16,0,16,0,0,9999,0.100000,99,0,1.549101,0,1.000000,21.384639,8.697680,99,99,0,0,1,0,0
0,9999,17,0,17,0,40,9999,0.100000,99,0,0.000000,0,1.000000,18.542833,4.509866,99,99,0,0,0,0,0
0,9999,18,0,18,0,40,9999,0.100000,99,0,0.000000,0,1.000000,31.612265,4.527725,99,99,0,0,0,0,0
0,9999,19,0,19,0,40,9999,0.100000,99,0,0.000000,0,1.000000,13.104835,5.547897,99,99,0,0,0,0,0
0,9999,20,0,20,0,40,9999,0.100000,99,0,0.000000,0,2.000000,32.203603,13.671791,99,99,0,0,0,0,0
0,9999,21,0,21,0,40,9999,0.100000,99,0,0.000000,0,2.000000,28.420098,23.360766,99,99,0,0,0,0,0
0,9999,22,0,22,0,40,9999,0.100000,99,0,0.000000,0,2.000000,23.282319,8.675421,99,99,0,0,0,0,0
0,9999,23,0,23,0,0,9999,0.100000,99,0,0.007923,0,1.000000,27.846568,2.164497,99,99,0,0,0,0,1
0,9999,24,0,24,0,0,9999,0.100000,99,0,0.004767,0,0.000000,29.515123,0.673176,99,99,0,0,0,1,0
0,9999,25,0,25,0,40,9999,0.100000,99,0,0.000000,0,0.000000,32.740712,14.633811,99,99,0,0,0,0,0
0,9999,26,0,26,0,40,9999,0.100000,99,0,0.000000,0,1.000000,32.016585,12.304594,99,99,0,0,0,0,0
0,9999,27,0,27,0,40,9999,0.100000,99,0,0.000000,0,1.000000,28.049931,3.589385,99,99,0,0,0,0,0
0,9999,28,0,28,0,92,9999,0.100000,99,0,25.627025,0,5.000000,23.559498,14.689085,99,99,1,0,0,0,0
0,9999,29,0,29,0,40,9999,0.100000,99,0,0.000000,0,0.000000,14.535416,3.299197,99,99,0,0,0,0,0
0,9999,30,0,30,0,1,9999,0.100000,99,0,0.000658,0,3.000000,27.586643,16.787383,99,99,0,0,0,1,0
0,9999,31,0,31,0,40,9999,0.100000,99,0,0.000000,0,0.000000,34.253865,1.838314,99,99,0,0,0,0,0
0,9999,32,0,32,0,40,9999,0.100000,99,0,0.000000,0,1.000000,27.713836,12.760401,99,99,0,0,0,0,0
0,9999,33,0,33,0,40,9999,0.100000,99,0,0.000000,0,0.000000,20.412012,1.121652,99,99,0,0,0,0,0
0,9999,34,0,34,0,40,9999,0.100000,99,0,0.000000,0,2.000000,31.300939,7.284854,99,99,0,0,0,0,0
0,9999,35,0,35,0,42,9999,0.100000,99,0,0.000000,0,6.000000,21.065261,13.492868,99,99,0,0,0,0,0
0,9999,36,0,36,0,40,9999,0.100000,99,0,0.000000,0,1.000000,26.650826,7.546917,99,99,0,0,0,0,0
0,9999,37,0,37,0,41,9999,0.100000,99,0,0.000000,0,3.000000,21.820745,13.558801,99,99,0,0,0,0,0
0,9999,38,0,38,0,40,9999,0.100000,99,0,0.000000,0,0.000000,22.742449,0.546356,99,99,0,0,0,0,0
0,9999,39,0,39,0,40,9999,0.100000,99,0,0.000000,0,1.000000,19.529428,6.541365,99,99,0,0,0,0,0
0,9999,40,0,40,0,40,9999,0.100000,99,0,0.000000,0,1.000000,26.337686,10.251804,99,99,0,0,0,0,0
0,9999,41,0,41,0,40,9999,0.100000,99,0,0.000000,0,1.000000,29.465867,23.975982,99,99,0,0,0,0,0
0,9999,42,0,42,0,40,9999,0.100000,99,0,0.000000,0,0.000000,29.006578,4.643186,99,99,0,0,0,0,0
0,9999,43,0,43,0,40,9999,0.100000,99,0,0.000000,0,1.000000,19.481034,13.116885,99,99,0,0,0,0,0
0,9999,44,0,44,0,41,9999,0.100000,99,0,0.000000,0,4.000000,21.734564,9.034019,99,99,0,0,0,0,0
0,9999,45,0,45,0,40,9999,0.100000,99,0,0.000000,0,0.000000,21.180340,9.677150,99,99,0,0,0,0,0
0,9999,46,0,46,0,0,9999,0.100000,99,0,1.943286,0,0.000000,18.919641,1.259765,99,99,0,0,1,0,0
0,9999,47,0,47,0,40,9999,0.100000,99,0,0.000000,0,1.000000,34.610973,16.718429,99,99,0,0,0,0,0
0,9999,48,0,48,0,43,9999,0.100000,99,0,24.234043,0,12.000000,31.552262,31.884436,99,99,1,0,1,0,0
0,9999,49,0,49,0,40,9999,0.100000,99,0,0.000000,0,2.000000,31.920994,18.771462,99,99,0,0,0,0,0
0,9999,50,0,50,0,40,9999,0.100000,99,0,0.000000,0,1.000000,18.683317,5.653914,99,99,0,0,0,0,0
0,9999,51,0,51,0,98,9999,0.100000,99,0,73.337513,0,15.000000,16.030755,28.007359,99,99,1,0,0,0,0
0,9999,52,0,52,0,40,9999,0.100000,99,0,0.000000,0,2.000000,20.242070,6.915365,99,99,0,0,0,0,0
0,9999,53,0,53,0,40,9999,0.100000,99,0,0.000000,0,0.000000,25.171684,8.478733,99,99,0,0,0,0,0
0,9999,54,0,54,0,40,9999,0.100000,99,0,0.000000,0,1.000000,27.962739,5.387029,99,99,0,0,0,0,0
0,9999,55,0,55,0,40,9999,0.100000,99,0,0.000000,0,0.000000,25.564704,0.584644,99,99,0,0,0,0,0
0,9999,56,0,56,0,40,9999,0.100000,99,0,0.000000,0,2.000000,28.436106,24.027393,99,99,0,0,0,0,0
0,9999,57,0,57,0,40,9999,0.100000,99,0,0.000000,0,1.000000,21.928118,4.810810,99,99,0,0,0,0,0
0,9999,58,0,58,0,40,9999,0.100000,99,0,0.000000,0,1.000000,18.232861,8.991063,99,99,0,0,0,0,0
0,9999,59,0,59,0,40,9999,0.100000,99,0,0.000000,0,1.000000,18.876936,8.211277,99,99,0,0,0,0,0
0,9999,60,0,60,0,41,9999,0.100000,99,0,0.000000,0,4.000000,35.326863,9.239441,99,99,0,0,0,0,0
0,9999,61,0,61,0,41,9999,0.100000,99,0,0.000000,0,3.000000,21.669190,13.018544,99,99,0,0,0,0,0
0,9999,62,0,62,0,40,9999,0.100000,99,0,0.000000,0,3.000000,29.860010,7.890965,99,99,0,0,0,0,0
0,9999,63,0,63,0,40,9999,0.100000,99,0,0.000000,0,1.000000,27.084789,13.799714,99,99,0,0,0,0,0
0,9999,64,0,64,0,0,9999,0.100000,99,0,0.012550,0,2.000000,24.749237,7.452274,99,99,0,0,0,0,1
0,9999,65,0,65,0,40,9999,0.100000,99,0,0.000000,0,0.000000,27.494285,0.723689,99,99,0,0,0,0,0
0,9999,66,0,66,0,91,9999,0.100000,99,0,30.771427,0,5.000000,29.597194,15.900821,99,99,1,0,0,0,0
0,9999,67,0,67,0,40,9999,0.100000,99,0,0.000000,0,0.000000,28.181584,0.602564,99,99,0,0,0,0,0
0,9999,68,0,68,0,0,9999,0.100000,99,0,0.008886,0,0.000000,25.061540,0.695161,99,99,0,0,0,1,0
0,9999,69,0,69,0,41,9999,0.100000,99,0,0.000000,0,3.000000,27.799157,6.937545,99,99,0,0,0,0,0
0,9999,70,0,70,0,40,9999,0.100000,99,0,0.000000,0,0.000000,22.347064,7.845463,99,99,0,0,0,0,0
0,9999,71,0,71,0,40,9999,0.100000,99,0,0.000000,0,0.000000,33.705906,8.304937,99,99,0,0,0,0,0
0,9999,72,0,72,0,40,9999,0.100000,99,0,0.000000,0,2.000000,24.417004,11.056157,99,99,0,0,0,0,0
0,9999,73,0,73,0,0,9999,0.100000,99,0,2.299924,0,0.000000,29.843639,1.402410,99,99,0,1,0,0,0
0,9999,74,0,74,0,0,9999,0.100000,99,0,1.265756,0,1.000000,25.756269,1.713587,99,99,0,1,0,0,0
0,9999,75,0,75,0,40,9999,0.100000,99,0,0.000000,0,0.000000,27.249058,4.871076,99,99,0,0,0,0,0
0,9999,76,0,76,0,40,9999,0.100000,99,0,0.000000,0,3.000000,29.553260,5.780490,99,99,0,0,0,0,0
0,9999,77,0,77,0,90,9999,0.100000,99,0,4.133140,0,2.000000,19.321481,5.846344,99,99,1,0,0,0,0
0,9999,78,0,78,0,40,9999,0.100000,99,0,0.000000,0,1.000000,20.904128,6.464763,99,99,0,0,0,0,0
0,9999,79,0,79,0,40,9999,0.100000,99,0,0.000000,0,0.000000,33.345235,4.092522,99,99,0,0,0,0,0
0,9999,80,0,80,0,96,9999,0.100000,99,0,87.959791,0,17.000000,23.118689,27.443543,99,99,2,0,0,0,0
0,9999,81,0,81,0,40,9999,0.100000,99,0,0.000000,0,2.000000,27.181385,12.684207,99,99,0,0,0,0,0
0,9999,82,0,82,0,0,9999,0.100000,99,0,0.032894,0,2.000000,28.912958,3.626341,99,99,0,1,0,0,0
0,9999,83,0,83,0,41,9999,0.100000,99,0,0.000000,0,2.000000,18.043009,18.727958,99,99,0,0,0,0,0
0,9999,84,0,84,0,40,9999,0.100000,99,0,0.000000,0,2.000000,24.177799,6.638380,99,99,0,0,0,0,0
0,9999,85,0,85,0,40,9999,0.100000,99,0,0.000000,0,1.000000,18.981091,2.953514,99,99,0,0,0,0,0
0,9999,86,0,86,0,93,9999,0.100000,99,0,60.531230,0,10.000000,24.589037,23.315345,99,99,1,0,0,0,0
0,9999,87,0,87,0,40,9999,0.100000,99,0,0.000000,0,0.000000,23.960301,4.975716,99,99,0,0,0,0,0
0,9999,88,0,88,0,41,9999,0.100000,99,0,0.000000,0,3.000000,18.336066,12.613544,99,99,0,0,0,0,0
0,9999,89,0,89,0,0,9999,0.100000,99,0,0.028226,0,0.000000,30.928688,1.523595,99,99,0,0,1,0,0
0,9999,90,0,90,0,40,9999,0.100000,99,0,0.000000,0,0.000000,27.181676,1.096455,99,99,0,0,0,0,0
0,9999,91,0,91,0,40,9999,0.100000,99,0,0.000000,0,1.000000,24.862705,11.384241,99,99,0,0,0,0,0
0,9999,92,0,92,0,0,9999,0.100000,99,0,1.171138,0,1.000000,21.025879,9.245373,99,99,0,1,0,0,0
0,9999,93,0,93,0,40,9999,0.100000,99,0,0.000000,0,0.000000,33.464228,2.579379,99,99,0,0,0,0,0
0,9999,94,0,94,0,40,9999,0.100000,99,0,0.000000,0,2.000000,21.780068,9.661440,99,99,0,0,0,0,0
0,9999,95,0,95,0,41,9999,0.100000,99,0,0.000000,0,5.000000,23.901439,12.428554,99,99,0,0,0,0,0
0,9999,96,0,96,0,40,9999,0.100000,99,0,0.000000,0,1.000000,22.701575,18.274950,99,99,0,0,0,0,0
0,9999,97,0,97,0,40,9999,0.100000,99,0,0.000000,0,1.000000,17.779460,12.328422,99,99,0,0,0,0,0
0,9999,98,0,98,0,40,9999,0.100000,99,0,0.000000,0,1.000000,24.812157,1.419250,99,99,0,0,0,0,0
0,9999,99,0,99,0,40,9999,0.100000,99,0,0.000000,0,0.000000,22.376187,4.761726,99,99,0,0,0,0,0
1,19999,0,10000,30,0,40,9999,0.100000,99,0,0.000000,9,2.000000,32.210911,9.057668,99,99,0,0,0,0,0
1,19999,1,10000,1,0,40,9999,0.100000,99,0,0.000000,1,1.000000,20.443784,9.499565,99,99,0,0,0,0,0
1,19999,2,10000,4,0,0,9999,0.100000,99,0,0.698926,6,0.000000,22.541743,0.565596,99,99,0,0,0,0,1
1,19999,3,10000,3,0,40,9999,0.100000,99,0,0.000000,1,1.000000,23.145039,9.961801,99,99,0,0,0,0,0
1,19999,4,10000,4,0,40,9999,0.100000,99,0,0.000000,5,0.000000,29.197874,13.469295,99,99,0,0,0,0,0
1,19999,5,10000,73,0,40,9999,0.100000,99,0,0.000000,8,2.000000,29.299914,8.995834,99,99,0,0,0,0,0
1,19999,6,10000,30,0,93,9999,0.100000,99,0,42.559209,11,8.000000,20.178924,18.931107,99,99,1,0,0,0,0
1,19999,7,10000,1,0,0,9999,0.100000,99,0,0.000267,4,0.000000,22.880592,0.105016,99,99,0,0,0,1,0
1,19999,8,10000,1,0,40,9999,0.100000,99,0,0.000000,8,0.000000,33.264411,0.804633,99,99,0,0,0,0,0
1,19999,9,10000,5,0,0,9999,0.100000,99,0,2.829090,9,1.000000,30.102597,3.677684,99,99,0,1,0,0,0
1,19999,10,10000,11,0,40,9999,0.100000,99,0,0.000000,5,0.000000,26.586793,4.018226,99,99,0,0,0,0,0
1,19999,11,10000,11,0,40,9999,0.100000,99,0,0.000000,2,1.000000,22.734482,5.332204,99,99,0,0,0,0,0
1,19999,12,0,12,0,40,19999,0.100000,99,0,0.000000,1,1.000000,27.088089,2.473038,99,99,0,0,0,0,0
1,19999,13,10000,1,0,40,9999,0.100000,99,0,0.000000,3,1.000000,28.701358,4.151798,99,99,0,0,0,0,0
1,19999,14,10000,66,0,40,9999,0.100000,99,0,0.000000,5,0.000000,23.774222,3.290125,99,99,0,0,0,0,0
1,19999,15,10000,1,0,40,9999,0.100000,99,0,0.000000,3,0.000000,21.471085,2.022185,99,99,0,0,0,0,0
1,19999,16,10000,66,0,0,9999,0.100000,99,0,11.150889,5,2.000000,21.124865,2.483958,99,99,0,0,1,0,0
1,19999,17,10000,30,0,40,9999,0.100000,99,0,0.000000,6,1.000000,18.084200,6.878757,99,99,0,0,0,0,0
1,19999,18,10000,4,0,40,9999,0.100000,99,0,0.000000,6,3.000000,30.615417,7.281658,99,99,0,0,0,0,0
1,19999,19,10000,11,0,41,9999,0.100000,99,0,0.000000,2,2.000000,14.202048,6.890438,99,99,0,0,0,0,0
1,19999,20,10000,1,0,40,9999,0.100000,99,0,0.000000,2,1.000000,34.061289,2.915647,99,99,0,0,0,0,0
1,19999,21,10000,73,0,40,9999,0.100000,99,0,0.000000,6,3.000000,29.703297,5.900296,99,99,0,0,0,0,0
1,19999,22,10000,1,0,0,9999,0.100000,99,0,3.067324,12,0.000000,24.027516,2.979020,99,99,0,0,0,0,1
1,19999,23,10000,1,0,0,9999,0.100000,99,0,1.565887,3,0.000000,26.998699,0.300373,99,99,0,0,0,0,1
1,19999,24,10000,0,0,0,9999,0.100000,99,0,1.242945,10,0.000000,29.343485,0.246065,99,99,0,0,0,1,0
1,19999,25,10000,8,0,92,9999,0.100000,99,0,32.776209,10,8.000000,32.459761,27.672091,99,99,1,0,0,0,0
1,19999,26,10000,1,0,40,9999,0.100000,99,0,0.000000,12,3.000000,31.572623,8.141560,99,99,0,0,0,0,0
1,19999,27,10000,1,0,40,9999,0.100000,99,0,0.000000,10,0.000000,28.738332,5.507525,99,99,0,0,0,0,0
1,19999,28,10000,11,0,40,9999,0.100000,99,0,0.000000,6,1.000000,27.436127,2.813749,99,99,0,0,0,0,0
1,19999,29,10000,11,0,41,9999,0.100000,99,0,0.000000,3,3.000000,14.569092,6.126194,99,99,0,0,0,0,0
1,19999,30,10000,73,0,0,9999,0.100000,99,0,0.001707,6,0.000000,25.699231,0.177766,99,99,0,0,0,1,0
1,19999,31,10000,30,0,41,9999,0.100000,99,0,0.000000,6,4.000000,34.306873,10.128796,99,99,0,0,0,0,0
1,19999,32,10000,11,0,40,9999,0.100000,99,0,0.000000,6,2.000000,27.421303,5.971413,99,99,0,0,0,0,0
1,19999,33,10000,1,0,40,9999,0.100000,99,0,0.000000,3,2.000000,20.910893,2.573623,99,99,0,0,0,0,0
1,19999,34,10000,11,0,40,9999,0.100000,99,0,0.000000,3,1.000000,29.345600,5.243325,99,99,0,0,0,0,0
1,19999,35,10000,73,0,40,9999,0.100000,99,0,0.000000,7,1.000000,22.878774,9.817368,99,99,0,0,0,0,0
1,19999,36,10000,66,0,40,9999,0.100000,99,0,0.000000,6,2.000000,27.529408,18.327982,99,99,0,0,0,0,0
1,19999,37,10000,11,0,40,9999,0.100000,99,0,0.000000,3,1.000000,18.664110,5.833360,99,99,0,0,0,0,0
1,19999,38,10000,73,0,40,9999,0.100000,99,0,0.000000,6,0.000000,22.578670,0.110096,99,99,0,0,0,0,0
1,19999,39,10000,73,0,40,9999,0.100000,99,0,0.000000,10,1.000000,19.567333,8.508116,99,99,0,0,0,0,0
1,19999,40,10000,66,0,0,9999,0.100000,99,0,2.755949,7,2.000000,26.943464,3.402320,99,99,0,0,0,0,1
1,19999,41,10000,80,0,41,9999,0.100000,99,0,0.000000,12,5.000000,29.413983,10.434557,99,99,0,0,0,0,0
1,19999,42,10000,0,0,0,9999,0.100000,99,0,0.897415,11,1.000000,29.154714,3.439774,99,99,0,0,0,1,0
1,19999,43,10000,11,0,40,9999,0.100000,99,0,0.000000,6,1.000000,18.809976,5.565365,99,99,0,0,0,0,0
1,19999,44,10000,1,0,42,9999,0.100000,99,0,0.000000,6,6.000000,23.313593,10.634850,99,99,0,0,0,0,0
1,19999,45,10000,11,0,40,9999,0.100000,99,0,0.000000,3,1.000000,21.412883,10.843229,99,99,0,0,0,0,0
1,19999,46,10000,11,0,0,9999,0.100000,99,0,0.593706,7,0.000000,19.658134,1.188700,99,99,0,0,1,0,0
1,19999,47,10000,30,0,40,9999,0.100000,99,0,0.000000,12,2.000000,33.586889,8.754356,99,99,0,0,0,0,0
1,19999,48,10000,0,0,40,9999,0.100000,99,0,0.000000,11,1.000000,33.358017,1.401917,99,99,0,0,0,0,0
1,19999,49,10000,66,0,40,9999,0.100000,99,0,0.000000,7,1.000000,31.216931,9.043186,99,99,0,0,0,0,0
1,19999,50,10000,66,0,40,9999,0.100000,99,0,0.000000,6,0.000000,19.156617,5.612465,99,99,0,0,0,0,0
1,19999,51,10000,30,0,40,9999,0.100000,99,0,0.000000,12,0.000000,30.072817,1.384301,99,99,0,0,0,0,0
1,19999,52,10000,11,0,40,9999,0.100000,99,0,0.000000,3,2.000000,20.719222,2.711440,99,99,0,0,0,0,0
1,19999,53,10000,73,0,40,9999,0.100000,99,0,0.000000,7,2.000000,25.219495,10.385904,99,99,0,0,0,0,0
1,19999,54,10000,35,0,40,9999,0.100000,99,0,0.000000,11,2.000000,28.511013,8.740207,99,99,0,0,0,0,0
1,19999,55,10000,1,0,40,9999,0.100000,99,0,0.000000,7,0.000000,25.465584,0.118221,99,99,0,0,0,0,0
1,19999,56,10000,66,0,40,9999,0.100000,99,0,0.000000,12,1.000000,27.807492,23.535286,99,99,0,0,0,0,0
1,19999,57,10000,11,0,40,9999,0.100000,99,0,0.000000,6,1.000000,23.613076,6.103885,99,99,0,0,0,0,0
1,19999,58,10000,23,0,40,9999,0.100000,99,0,0.000000,3,1.000000,19.366457,21.119751,99,99,0,0,0,0,0
1,19999,59,10000,80,0,40,9999,0.100000,99,0,0.000000,12,1.000000,20.260354,16.736540,99,99,0,0,0,0,0
1,19999,60,10000,4,0,0,9999,0.100000,99,0,4.706505,6,0.000000,33.491646,1.007644,99,99,0,0,1,0,0
1,19999,61,10000,86,0,40,9999,0.100000,99,0,0.000000,11,0.000000,23.854619,1.386120,99,99,0,0,0,0,0
1,19999,62,10000,1,0,40,9999,0.100000,99,0,0.000000,7,0.000000,32.010332,3.935247,99,99,0,0,0,0,0
1,19999,63,10000,80,0,94,9999,0.100000,99,0,65.139555,12,12.000000,28.482241,22.755915,99,99,1,0,0,0,0
1,19999,64,10000,64,0,40,9999,0.100000,99,0,0.000000,3,1.000000,27.190554,2.088945,99,99,0,0,0,0,0
1,19999,65,10000,8,0,40,9999,0.100000,99,0,0.000000,11,0.000000,27.096156,0.351299,99,99,0,0,0,0,0
1,19999,66,10000,64,0,41,9999,0.100000,99,0,0.000000,4,5.000000,30.720494,20.403072,99,99,0,0,0,0,0
1,19999,67,10000,73,0,40,9999,0.100000,99,0,0.000000,9,0.000000,27.745254,1.106541,99,99,0,0,0,0,0
1,19999,68,10000,8,0,0,9999,0.100000,99,0,0.001814,9,0.000000,24.843738,0.112368,99,99,0,0,0,1,0
1,19999,69,10000,4,0,40,9999,0.100000,99,0,0.000000,5,0.000000,29.447196,17.617907,99,99,0,0,0,0,0
1,19999,70,10000,73,0,40,9999,0.100000,99,0,0.000000,9,2.000000,23.077245,11.567385,99,99,0,0,0,0,0
1,19999,71,10000,73,0,40,9999,0.100000,99,0,0.000000,6,2.000000,33.953759,6.435074,99,99,0,0,0,0,0
1,19999,72,10000,1,0,40,9999,0.100000,99,0,0.000000,5,2.000000,22.298268,5.332037,99,99,0,0,0,0,0
1,19999,73,10000,73,0,0,9999,0.100000,99,0,0.207484,5,0.000000,29.560533,0.366971,99,99,0,1,0,0,0
1,19999,74,10000,1,0,0,9999,0.100000,99,0,0.200858,12,0.000000,26.226398,2.944624,99,99,0,1,0,0,0
1,19999,75,10000,80,0,40,9999,0.100000,99,0,0.000000,12,2.000000,26.962221,2.555156,99,99,0,0,0,0,0
1,19999,76,10000,66,0,42,9999,0.100000,99,0,0.000000,5,7.000000,32.691822,13.653422,99,99,0,0,0,0,0
1,19999,77,10000,35,0,41,9999,0.100000,99,0,0.000000,9,3.000000,20.592002,19.314180,99,99,0,0,0,0,0
1,19999,78,10000,4,0,2,9999,0.100000,99,0,31.419962,5,5.000000,22.293603,9.323530,99,99,0,1,0,0,0
1,19999,79,10000,11,0,40,9999,0.100000,99,0,0.000000,6,0.000000,33.619353,0.974486,99,99,0,0,0,0,0
1,19999,80,10000,4,0,90,9999,0.100000,99,0,3.526732,12,0.000000,30.847367,1.355315,99,99,1,0,0,0,0
1,19999,81,10000,0,0,40,9999,0.100000,99,0,0.000000,12,1.000000,28.751161,17.279458,99,99,0,0,0,0,0
1,19999,82,10000,30,0,0,9999,0.100000,99,0,0.193584,11,0.000000,27.483247,0.233037,99,99,0,1,0,0,0
1,19999,83,10000,5,0,93,9999,0.100000,99,0,36.839085,9,7.000000,19.374049,21.647072,99,99,1,0,0,0,0
1,19999,84,10000,1,0,40,9999,0.100000,99,0,0.000000,12,0.000000,22.596274,0.877445,99,99,0,0,0,0,0
1,19999,85,10000,11,0,40,9999,0.100000,99,0,0.000000,5,0.000000,19.326982,1.054195,99,99,0,0,0,0,0
1,19999,86,10000,86,0,40,9999,0.100000,99,0,0.000000,10,2.000000,30.302468,14.098645,99,99,0,0,0,0,0
1,19999,87,10000,66,0,40,9999,0.100000,99,0,0.000000,5,0.000000,24.203455,1.105078,99,99,0,0,0,0,0
1,19999,88,10000,8,0,42,9999,0.100000,99,0,0.000000,12,5.000000,21.196063,21.178855,99,99,0,0,0,0,0
1,19999,89,10000,66,0,0,9999,0.100000,99,0,1.861565,5,0.000000,30.372247,0.502752,99,99,0,0,1,0,0
1,19999,90,10000,4,0,40,9999,0.100000,99,0,0.000000,6,1.000000,27.325031,2.201224,99,99,0,0,0,0,0
1,19999,91,10000,4,0,40,9999,0.100000,99,0,0.000000,5,0.000000,26.116182,10.524736,99,99,0,0,0,0,0
1,19999,92,10000,30,0,42,9999,0.100000,99,0,0.000000,10,6.000000,20.635822,7.062757,99,99,0,0,0,0,0
1,19999,93,10000,11,0,40,9999,0.100000,99,0,0.000000,6,1.000000,32.809207,5.521993,99,99,0,0,0,0,0
1,19999,94,10000,73,0,40,9999,0.100000,99,0,0.000000,5,0.000000,24.216086,6.752569,99,99,0,0,0,0,0
1,19999,95,10000,80,0,0,9999,0.100000,99,0,0.003223,12,0.000000,19.031385,0.451974,99,99,0,0,1,0,0
1,19999,96,10000,86,0,40,9999,0.100000,99,0,0.000000,12,1.000000,21.616554,16.841961,99,99,0,0,0,0,0
1,19999,97,10000,80,0,40,9999,0.100000,99,0,0.000000,12,0.000000,17.989890,9.779499,99,99,0,0,0,0,0
1,19999,98,10000,86,0,40,9999,0.100000,99,0,0.000000,10,0.000000,24.743930,0.115958,99,99,0,0,0,0,0
1,19999,99,10000,73,0,40,9999,0.100000,99,0,0.000000,10,0.000000,23.027819,7.929207,99,99,0,0,0,0,0
2,29999,0,20000,66,0,40,9999,0.100000,99,0,0.000000,12,1.000000,30.954223,12.545351,99,99,0,0,0,0,0
2,29999,1,20000,66,0,41,9999,0.100000,99,0,0.000000,12,3.000000,19.827008,17.666999,99,99,0,0,0,0,0
2,29999,2,20000,66,0,0,9999,0.100000,99,0,0.664921,12,0.000000,22.340405,0.549510,99,99,0,0,0,0,1
2,29999,3,20000,48,0,41,9999,0.100000,99,0,0.000000,12,4.000000,23.952748,12.309857,99,99,0,0,0,0,0
2,29999,4,20000,86,0,40,9999,0.100000,99,0,0.000000,12,3.000000,29.634407,14.483803,99,99,0,0,0,0,0
2,29999,5,20000,1,0,40,9999,0.100000,99,0,0.000000,12,1.000000,28.695592,3.971701,99,99,0,0,0,0,0
2,29999,6,20000,30,0,41,9999,0.100000,99,0,0.000000,12,4.000000,27.368069,13.952969,99,99,0,0,0,0,0
2,29999,7,20000,86,0,0,9999,0.100000,99,0,1.758425,12,1.000000,22.882104,1.366876,99,99,0,0,0,1,0
2,29999,8,20000,6,10000,40,9999,0.100000,99,0,0.000000,12,0.000000,33.549884,0.861562,99,99,0,0,0,0,0
2,29999,9,20000,30,0,1,9999,0.100000,99,0,10.483101,12,4.000000,30.859714,9.996087,99,99,0,1,0,0,0
2,29999,10,20000,1,0,40,9999,0.100000,99,0,0.000000,12,0.000000,26.503991,2.804603,99,99,0,0,0,0,0
2,29999,11,20000,6,10000,0,9999,0.100000,99,0,4.026221,12,1.000000,23.854891,7.928484,99,99,0,0,1,0,0
2,29999,12,20000,16,10000,40,9999,0.100000,99,0,0.000000,12,1.000000,28.441465,1.927241,99,99,0,0,0,0,0
2,29999,13,20000,4,0,41,9999,0.100000,99,0,0.000000,12,3.000000,27.924642,8.161310,99,99,0,0,0,0,0
2,29999,14,20000,0,0,40,9999,0.100000,99,0,0.000000,12,0.000000,24.310633,1.428684,99,99,0,0,0,0,0
2,29999,15,20000,76,10000,40,9999,0.100000,99,0,0.000000,12,1.000000,22.417382,1.725409,99,99,0,0,0,0,0
2,29999,16,20000,76,10000,40,9999,0.100000,99,0,0.000000,12,1.000000,23.215716,4.311087,99,99,0,0,0,0,0
2,29999,17,20000,86,0,40,9999,0.100000,99,0,0.000000,12,2.000000,19.212602,11.099917,99,99,0,0,0,0,0
2,29999,18,20000,4,0,40,9999,0.100000,99,0,0.000000,12,0.000000,31.176615,0.971986,99,99,0,0,0,0,0
2,29999,19,20000,78,10000,41,9999,0.100000,99,0,0.000000,12,2.000000,16.820045,8.473963,99,99,0,0,0,0,0
2,29999,20,20000,30,0,40,9999,0.100000,99,0,0.000000,12,0.000000,35.555772,0.227694,99,99,0,0,0,0,0
2,29999,21,20000,6,10000,40,9999,0.100000,99,0,0.000000,12,0.000000,29.879289,1.007509,99,99,0,0,0,0,0
2,29999,22,20000,86,0,0,9999,0.100000,99,0,0.759514,12,0.000000,24.618237,0.895991,99,99,0,0,0,0,1
2,29999,23,20000,76,10000,0,9999,0.100000,99,0,0.897124,12,0.000000,27.232496,0.202893,99,99,0,0,0,0,1
2,29999,24,20000,4,0,0,9999,0.100000,99,0,1.046639,12,0.000000,29.351764,0.716054,99,99,0,0,0,1,0
2,29999,25,20000,80,0,40,9999,0.100000,99,0,0.000000,12,2.000000,31.106101,15.082193,99,99,0,0,0,0,0
2,29999,26,20000,6,10000,40,9999,0.100000,99,0,0.000000,12,2.000000,34.023703,13.817298,99,99,0,0,0,0,0
2,29999,27,20000,30,0,40,9999,0.100000,99,0,0.000000,12,3.000000,28.888199,12.585014,99,99,0,0,0,0,0
2,29999,28,20000,8,0,40,9999,0.100000,99,0,0.000000,12,2.000000,25.997620,5.221728,99,99,0,0,0,0,0
2,29999,29,20000,66,0,42,9999,0.100000,99,0,0.000000,12,5.000000,17.744822,18.631903,99,99,0,0,0,0,0
2,29999,30,20000,16,10000,0,9999,0.100000,99,0,0.644185,12,0.000000,25.694439,0.567974,99,99,0,0,0,1,0
2,29999,31,20000,35,0,40,9999,0.100000,99,0,0.000000,12,2.000000,29.787981,17.143891,99,99,0,0,0,0,0
2,29999,32,20000,48,0,40,9999,0.100000,99,0,0.000000,12,2.000000,30.090713,12.873469,99,99,0,0,0,0,0
2,29999,33,20000,16,10000,42,9999,0.100000,99,0,0.000000,12,5.000000,23.190309,10.203472,99,99,0,0,0,0,0
2,29999,34,20000,66,0,40,9999,0.100000,99,0,0.000000,12,2.000000,28.617790,14.099868,99,99,0,0,0,0,0
2,29999,35,20000,30,0,40,9999,0.100000,99,0,0.000000,12,1.000000,21.408644,18.383690,99,99,0,0,0,0,0
2,29999,36,20000,48,0,40,9999,0.100000,99,0,0.000000,12,1.000000,28.574350,7.672461,99,99,0,0,0,0,0
2,29999,37,20000,86,0,40,9999,0.100000,99,0,0.000000,12,1.000000,19.908556,10.250839,99,99,0,0,0,0,0
2,29999,38,20000,80,0,40,9999,0.100000,99,0,0.000000,12,1.000000,22.579229,1.706131,99,99,0,0,0,0,0
2,29999,39,20000,80,0,40,9999,0.100000,99,0,0.000000,12,2.000000,19.758540,13.762091,99,99,0,0,0,0,0
2,29999,40,20000,66,0,0,9999,0.100000,99,0,3.915951,12,1.000000,28.390774,1.303230,99,99,0,0,0,0,1
2,29999,41,20000,86,0,40,9999,0.100000,99,0,0.000000,12,1.000000,26.052719,7.625126,99,99,0,0,0,0,0
2,29999,42,20000,35,0,0,9999,0.100000,99,0,1.106541,12,0.000000,27.955043,0.392360,99,99,0,0,0,1,0
2,29999,43,20000,6,10000,40,9999,0.100000,99,0,0.000000,12,0.000000,17.985327,6.411657,99,99,0,0,0,0,0
2,29999,44,20000,16,10000,90,9999,0.100000,99,0,27.179742,12,3.000000,29.351921,20.620581,99,99,1,0,0,0,0
2,29999,45,20000,66,0,41,9999,0.100000,99,0,0.000000,12,3.000000,22.197127,17.127822,99,99,0,0,0,0,0
2,29999,46,20000,66,0,1,9999,0.100000,99,0,15.100793,12,3.000000,19.927725,3.754406,99,99,0,0,1,0,0
2,29999,47,20000,73,0,40,9999,0.100000,99,0,0.000000,12,3.000000,31.088853,10.148499,99,99,0,0,0,0,0
2,29999,48,20000,80,0,41,9999,0.100000,99,0,0.000000,12,5.000000,34.548517,17.786467,99,99,0,0,0,0,0
2,29999,49,20000,66,0,40,9999,0.135000,99,0,0.000000,12,2.000000,29.491833,15.855185,99,99,0,0,0,0,0
2,29999,50,20000,1,0,40,9999,0.100000,99,0,0.000000,12,2.000000,19.831158,8.623134,99,99,0,0,0,0,0
2,29999,51,20000,78,10000,40,9999,0.100000,99,0,0.000000,12,0.000000,30.930246,0.142891,99,99,0,0,0,0,0
2,29999,52,20000,80,0,40,9999,0.100000,99,0,0.000000,12,1.000000,23.163668,4.455028,99,99,0,0,0,0,0
2,29999,53,20000,4,0,40,9999,0.100000,99,0,0.000000,12,2.000000,25.255155,16.097222,99,99,0,0,0,0,0
2,29999,54,20000,16,10000,41,9999,0.100000,99,0,0.000000,12,5.000000,26.929209,13.582389,99,99,0,0,0,0,0
2,29999,55,20000,6,10000,40,9999,0.100000,99,0,0.000000,12,0.000000,25.461362,0.425580,99,99,0,0,0,0,0
2,29999,56,20000,76,10000,40,9999,0.100000,99,0,0.000000,12,1.000000,28.750865,1.922540,99,99,0,0,0,0,0
2,29999,57,20000,4,0,40,9999,0.100000,99,0,0.000000,12,0.000000,24.517663,1.009080,99,99,0,0,0,0,0
2,29999,58,20000,86,0,41,9999,0.100000,99,0,0.000000,12,3.000000,19.804957,17.600835,99,99,0,0,0,0,0
2,29999,59,20000,4,0,40,9999,0.100000,99,0,0.000000,12,2.000000,21.225651,15.459449,99,99,0,0,0,0,0
2,29999,60,20000,80,0,41,9999,0.100000,99,0,0.000000,12,7.000000,34.393814,37.569810,99,99,0,0,0,0,0
2,29999,61,20000,8,0,40,9999,0.100000,99,0,0.000000,12,0.000000,24.416378,0.973090,99,99,0,0,0,0,0
2,29999,62,20000,66,0,40,9999,0.100000,99,0,0.000000,12,1.000000,31.676019,15.844008,99,99,0,0,0,0,0
2,29999,63,20000,80,0,40,9999,0.100000,99,0,0.000000,12,2.000000,34.263915,5.182406,99,99,0,0,0,0,0
2,29999,64,20000,73,0,40,9999,0.100000,99,0,0.000000,12,1.000000,28.547370,1.446078,99,99,0,0,0,0,0
2,29999,65,20000,30,0,40,9999,0.100000,99,0,0.000000,12,0.000000,27.355473,0.257303,99,99,0,0,0,0,0
2,29999,66,20000,48,0,1,9999,0.100000,99,0,10.482964,12,5.000000,31.021539,9.106268,99,99,0,1,0,0,0
2,29999,67,20000,78,10000,40,9999,0.100000,99,0,0.000000,12,0.000000,27.551057,0.894313,99,99,0,0,0,0,0
2,29999,68,20000,0,0,0,9999,0.100000,99,0,0.255602,12,0.000000,24.861563,0.122463,99,99,0,0,0,1,0
2,29999,69,20000,76,10000,40,9999,0.100000,99,0,0.000000,12,3.000000,29.378700,4.867975,99,99,0,0,0,0,0
2,29999,70,20000,76,10000,40,9999,0.100000,99,0,0.000000,12,2.000000,23.473194,7.895502,99,99,0,0,0,0,0
2,29999,71,20000,63,10000,42,9999,0.100000,99,0,0.000000,12,8.000000,35.314933,32.880757,99,99,0,0,0,0,0
2,29999,72,20000,16,10000,91,9999,0.100000,99,0,19.944056,12,4.000000,24.364914,15.254372,99,99,1,0,0,0,0
2,29999,73,20000,80,0,40,9999,0.100000,99,0,0.000000,12,2.000000,29.656969,3.934647,99,99,0,0,0,0,0
2,29999,74,20000,1,0,0,9999,0.100000,99,0,0.373430,12,1.000000,26.167806,3.851844,99,99,0,1,0,0,0
2,29999,75,20000,16,10000,40,9999,0.100000,99,0,0.000000,12,0.000000,24.790912,0.149637,99,99,0,0,0,0,0
2,29999,76,20000,8,0,40,9999,0.100000,99,0,0.000000,12,1.000000,25.950990,13.279144,99,99,0,0,0,0,0
2,29999,77,20000,66,0,40,9999,0.100000,99,0,0.000000,12,0.000000,23.911516,12.996440,99,99,0,0,0,0,0
2,29999,78,20000,66,0,0,9999,0.100000,99,0,1.739634,12,0.000000,26.037272,1.133675,99,99,0,1,0,0,0
2,29999,79,20000,16,10000,40,9999,0.100000,99,0,0.000000,12,1.000000,34.216887,15.580502,99,99,0,0,0,0,0
2,29999,80,20000,1,0,41,9999,0.100000,99,0,0.000000,12,4.000000,31.536604,6.062091,99,99,0,0,0,0,0
2,29999,81,20000,73,0,42,9999,0.100000,99,0,0.000000,12,8.000000,27.755485,28.709481,99,99,0,0,0,0,0
2,29999,82,20000,16,10000,0,9999,0.100000,99,0,0.189749,12,0.000000,27.513963,0.236913,99,99,0,1,0,0,0
2,29999,83,20000,16,10000,42,9999,0.100000,99,0,0.000000,12,7.000000,24.200114,20.486638,99,99,0,0,0,0,0
2,29999,84,20000,16,10000,40,9999,0.100000,99,0,0.000000,12,0.000000,22.392651,0.887269,99,99,0,0,0,0,0
2,29999,85,20000,86,0,40,9999,0.100000,99,0,0.000000,12,2.000000,19.856392,3.308830,99,99,0,0,0,0,0
2,29999,86,20000,63,10000,40,9999,0.100000,99,0,0.000000,12,3.000000,30.722933,21.109690,99,99,0,0,0,0,0
2,29999,87,20000,66,0,40,9999,0.100000,99,0,0.000000,12,0.000000,24.745037,1.048461,99,99,0,0,0,0,0
2,29999,88,20000,66,0,40,9999,0.100000,99,0,0.000000,12,2.000000,21.566183,12.652234,99,99,0,0,0,0,0
2,29999,89,20000,76,10000,0,9999,0.100000,99,0,0.010324,12,0.000000,30.541870,0.188575,99,99,0,0,1,0,0
2,29999,90,20000,76,10000,43,9999,0.100000,99,0,0.000000,12,10.000000,28.767028,14.249501,99,99,0,0,0,0,0
2,29999,91,20000,63,10000,40,9999,0.100000,99,0,0.000000,12,0.000000,26.404420,7.407725,99,99,0,0,0,0,0
2,29999,92,20000,8,0,40,9999,0.100000,99,0,0.000000,12,0.000000,25.877486,1.055428,99,99,0,0,0,0,0
2,29999,93,20000,66,0,40,9999,0.100000,99,0,0.000000,12,3.000000,33.626242,15.571593,99,99,0,0,0,0,0
2,29999,94,20000,63,10000,40,9999,0.100000,99,0,0.000000,12,0.000000,24.561072,2.492420,99,99,0,0,0,0,0
2,29999,95,20000,8,0,0,9999,0.100000,99,0,0.115033,12,0.000000,18.851718,0.293967,99,99,0,0,1,0,0
2,29999,96,20000,4,0,40,9999,0.100000,99,0,0.000000,12,2.000000,20.817611,19.410893,99,99,0,0,0,0,0
2,29999,97,20000,0,0,41,9999,0.100000,99,0,0.000000,12,3.000000,18.954292,8.779639,99,99,0,0,0,0,0
2,29999,98,20000,8,0,40,9999,0.100000,99,0,0.000000,12,0.000000,24.763270,0.097930,99,99,0,0,0,0,0
2,29999,99,20000,0,0,40,9999,0.100000,99,0,0.000000,12,0.000000,23.364500,8.179483,99,99,0,0,0,0,0
3,39999,0,30000,1,0,40,9999,0.100000,99,0,0.000000,12,0.000000,30.109354,6.363961,99,99,0,0,0,0,0
3,39999,1,30000,63,10000,40,9999,0.100000,99,0,0.000000,12,2.000000,22.099441,17.568289,99,99,0,0,0,0,0
3,39999,2,30000,8,0,0,9999,0.100000,99,0,0.669709,12,0.000000,22.133521,0.503215,99,99,0,0,0,0,1
3,39999,3,30000,16,10000,41,9999,0.100000,99,0,0.000000,12,3.000000,19.675871,15.013919,99,99,0,0,0,0,0
3,39999,4,30000,66,0,40,9999,0.100000,99,0,0.000000,12,1.000000,26.269871,23.157446,99,99,0,0,0,0,0
3,39999,5,30000,1,0,40,9999,0.100000,99,0,0.000000,12,0.000000,27.486218,1.595832,99,99,0,0,0,0,0
3,39999,6,30000,63,10000,40,9999,0.100000,99,0,0.000000,12,2.000000,23.587302,22.653399,99,99,0,0,0,0,0
3,39999,7,30000,0,0,40,9999,0.100000,99,0,0.000000,12,0.000000,22.048533,0.524362,99,99,0,0,0,0,0
3,39999,8,30000,86,0,40,9999,0.100000,99,0,0.000000,12,0.000000,33.885313,0.924616,99,99,0,0,0,0,0
3,39999,9,30000,1,0,40,9999,0.100000,99,0,0.000000,12,1.000000,32.357547,3.400695,99,99,0,0,0,0,0
3,39999,10,30000,76,10000,40,9999,0.100000,99,0,0.000000,12,1.000000,26.886306,10.270165,99,99,0,0,0,0,0
3,39999,11,30000,0,0,0,9999,0.100000,99,0,3.098809,12,0.000000,23.678476,1.093646,99,99,0,0,1,0,0
3,39999,12,30000,6,10000,40,9999,0.100000,99,0,0.000000,12,0.000000,29.257808,1.584391,99,99,0,0,0,0,0
3,39999,13,30000,86,0,41,9999,0.100000,99,0,0.000000,12,3.000000,27.752739,11.627722,99,99,0,0,0,0,0
3,39999,14,30000,63,10000,0,9999,0.100000,99,0,0.168048,12,0.000000,24.505487,0.340973,99,99,0,0,0,0,1
3,39999,15,30000,78,10000,40,9999,0.100000,99,0,0.000000,12,0.000000,23.655524,0.489879,99,99,0,0,0,0,0
3,39999,16,30000,86,0,40,9999,0.135000,99,0,0.000000,12,0.000000,23.552166,1.155053,99,99,0,0,0,0,0
3,39999,17,30000,16,10000,42,9999,0.100000,99,0,0.000000,12,4.000000,18.951864,15.837500,99,99,0,0,0,0,0
3,39999,18,30000,4,0,40,9999,0.100000,99,0,0.000000,12,0.000000,31.444419,0.943742,99,99,0,0,0,0,0
3,39999,19,30000,16,10000,40,9999,0.100000,99,0,0.000000,12,0.000000,18.791418,1.523303,99,99,0,0,0,0,0
3,39999,20,30000,86,0,40,9999,0.100000,99,0,0.000000,12,0.000000,35.556639,0.229013,99,99,0,0,0,0,0
3,39999,21,30000,1,0,0,9999,0.100000,99,0,2.902261,12,1.000000,30.142377,1.659857,99,99,0,0,1,0,0
3,39999,22,30000,66,0,40,9999,0.100000,99,0,0.000000,12,2.000000,24.751696,13.839503,99,99,0,0,0,0,0
3,39999,23,30000,63,10000,0,9999,0.100000,99,0,0.018523,12,0.000000,27.330380,0.079937,99,99,0,0,0,0,1
3,39999,24,30000,0,0,40,9999,0.100000,99,0,0.000000,12,0.000000,29.229347,0.917173,99,99,0,0,0,0,0
3,39999,25,30000,0,0,40,9999,0.100000,99,0,0.000000,12,2.000000,29.270149,12.438562,99,99,0,0,0,0,0
3,39999,26,30000,78,10000,40,9999,0.100000,99,0,0.000000,12,3.000000,32.358792,17.311360,99,99,0,0,0,0,0
3,39999,27,30000,78,10000,40,9999,0.100000,99,0,0.000000,12,1.000000,26.003570,21.426883,99,99,0,0,0,0,0
3,39999,28,30000,66,0,40,9999,0.100000,99,0,0.000000,12,0.000000,25.795709,7.121244,99,99,0,0,0,0,0
3,39999,29,30000,16,10000,40,9999,0.100000,99,0,0.000000,12,0.000000,21.729655,0.605945,99,99,0,0,0,0,0
3,39999,30,30000,16,10000,0,9999,0.100000,99,0,0.014109,12,0.000000,25.782787,0.914478,99,99,0,0,0,1,0
3,39999,31,30000,16,10000,40,9999,0.100000,99,0,0.000000,12,0.000000,31.786400,4.407485,99,99,0,0,0,0,0
3,39999,32,30000,76,10000,40,9999,0.100000,99,0,0.000000,12,2.000000,30.236407,8.316535,99,99,0,0,0,0,0
3,39999,33,30000,6,10000,40,9999,0.100000,99,0,0.000000,12,0.000000,20.480770,0.920322,99,99,0,0,0,0,0
3,39999,34,30000,78,10000,40,9999,0.100000,99,0,0.000000,12,2.000000,30.282481,10.995177,99,99,0,0,0,0,0
3,39999,35,30000,16,10000,40,9999,0.100000,99,0,0.000000,12,2.000000,20.897215,12.295225,99,99,0,0,0,0,0
3,39999,36,30000,4,0,40,9999,0.100000,99,0,0.000000,12,0.000000,29.507371,1.665426,99,99,0,0,0,0,0
3,39999,37,30000,16,10000,42,9999,0.100000,99,0,0.000000,12,5.000000,20.064216,20.073928,99,99,0,0,0,0,0
3,39999,38,30000,86,0,40,9999,0.100000,99,0,0.000000,12,0.000000,21.563194,0.447588,99,99,0,0,0,0,0
3,39999,39,30000,4,0,40,9999,0.100000,99,0,0.000000,12,2.000000,21.012668,10.561803,99,99,0,0,0,0,0
3,39999,40,30000,76,10000,0,9999,0.100000,99,0,1.466872,12,0.000000,29.147968,0.834625,99,99,0,0,0,0,1
3,39999,41,30000,86,0,1,9999,0.100000,99,0,20.787424,12,3.000000,26.966188,6.531433,99,99,0,1,0,0,0
3,39999,42,30000,63,10000,0,9999,0.100000,99,0,2.359977,12,0.000000,27.841887,0.513666,99,99,0,0,0,1,0
3,39999,43,30000,66,0,41,9999,0.135000,99,0,0.000000,12,3.000000,18.541392,6.902234,99,99,0,0,0,0,0
3,39999,44,30000,8,0,40,9999,0.100000,99,0,0.000000,12,1.000000,26.612539,5.574380,99,99,0,0,0,0,0
3,39999,45,30000,6,10000,40,9999,0.100000,99,0,0.000000,12,2.000000,23.993418,10.020940,99,99,0,0,0,0,0
3,39999,46,30000,80,0,40,9999,0.100000,99,0,0.000000,12,0.000000,22.529756,0.665592,99,99,0,0,0,0,0
3,39999,47,30000,1,0,40,9999,0.100000,99,0,0.000000,12,0.000000,34.714052,2.944894,99,99,0,0,0,0,0
3,39999,48,30000,4,0,40,9999,0.100000,99,0,0.000000,12,2.000000,29.621846,8.127283,99,99,0,0,0,0,0
3,39999,49,30000,66,0,41,9999,0.100000,99,0,0.000000,12,4.000000,30.547593,28.841392,99,99,0,0,0,0,0
3,39999,50,30000,0,0,0,9999,0.100000,99,0,0.040115,12,0.000000,22.409848,0.594095,99,99,0,0,1,0,0
3,39999,51,30000,80,0,40,9999,0.100000,99,0,0.000000,12,0.000000,30.930002,0.585810,99,99,0,0,0,0,0
3,39999,52,30000,80,0,40,9999,0.100000,99,0,0.000000,12,0.000000,23.781534,1.060464,99,99,0,0,0,0,0
3,39999,53,30000,1,0,40,9999,0.100000,99,0,0.000000,12,2.000000,23.695692,9.007291,99,99,0,0,0,0,0
3,39999,54,30000,0,0,0,9999,0.100000,99,0,0.294744,12,0.000000,21.892256,0.643330,99,99,0,0,0,1,0
3,39999,55,30000,63,10000,40,9999,0.100000,99,0,0.000000,12,0.000000,25.546238,1.039302,99,99,0,0,0,0,0
3,39999,56,30000,86,0,40,9999,0.100000,99,0,0.000000,12,0.000000,29.538663,1.012005,99,99,0,0,0,0,0
3,39999,57,30000,63,10000,40,9999,0.100000,99,0,0.000000,12,0.000000,24.672262,3.486205,99,99,0,0,0,0,0
3,39999,58,30000,86,0,41,9999,0.100000,99,0,0.000000,12,3.000000,20.939591,18.443401,99,99,0,0,0,0,0
3,39999,59,30000,6,10000,41,9999,0.100000,99,0,0.000000,12,4.000000,20.113919,7.915945,99,99,0,0,0,0,0
3,39999,60,30000,16,10000,40,9999,0.100000,99,0,0.000000,12,1.000000,30.922779,10.057471,99,99,0,0,0,0,0
3,39999,61,30000,16,10000,40,9999,0.100000,99,0,0.000000,12,0.000000,24.588611,1.225541,99,99,0,0,0,0,0
3,39999,62,30000,63,10000,40,9999,0.100000,99,0,0.000000,12,3.000000,32.217838,17.489053,99,99,0,0,0,0,0
3,39999,63,30000,8,0,40,9999,0.100000,99,0,0.000000,12,3.000000,36.162583,6.900776,99,99,0,0,0,0,0
3,39999,64,30000,63,10000,40,9999,0.100000,99,0,0.000000,12,0.000000,29.345292,1.800943,99,99,0,0,0,0,0
3,39999,65,30000,4,0,40,9999,0.100000,99,0,0.000000,12,0.000000,27.465418,0.154055,99,99,0,0,0,0,0
3,39999,66,30000,16,10000,41,9999,0.100000,99,0,0.000000,12,4.000000,35.257566,16.651738,99,99,0,0,0,0,0
3,39999,67,30000,0,0,40,9999,0.100000,99,0,0.000000,12,0.000000,27.445576,2.620034,99,99,0,0,0,0,0
3,39999,68,30000,1,0,0,9999,0.100000,99,0,0.337268,12,0.000000,24.938554,0.145710,99,99,0,0,0,1,0
3,39999,69,30000,4,0,0,9999,0.100000,99,0,0.310353,12,0.000000,31.706587,2.325829,99,99,0,1,0,0,0
3,39999,70,30000,63,10000,40,9999,0.100000,99,0,0.000000,12,0.000000,22.189496,15.905014,99,99,0,0,0,0,0
3,39999,71,30000,63,10000,40,9999,0.100000,99,0,0.000000,12,1.000000,31.644198,7.834662,99,99,0,0,0,0,0
3,39999,72,30000,0,0,40,9999,0.100000,99,0,0.000000,12,1.000000,25.978052,11.074929,99,99,0,0,0,0,0
3,39999,73,30000,6,10000,40,9999,0.100000,99,0,0.000000,12,1.000000,31.832415,6.784154,99,99,0,0,0,0,0
3,39999,74,30000,16,10000,41,9999,0.100000,99,0,0.000000,12,3.000000,26.780786,5.058896,99,99,0,0,0,0,0
3,39999,75,30000,6,10000,40,9999,0.100000,99,0,0.000000,12,0.000000,24.847145,0.148383,99,99,0,0,0,0,0
3,39999,76,30000,16,10000,41,9999,0.100000,99,0,0.000000,12,3.000000,25.637562,10.449542,99,99,0,0,0,0,0
3,39999,77,30000,0,0,40,9999,0.100000,99,0,0.000000,12,0.000000,24.622226,4.806268,99,99,0,0,0,0,0
3,39999,78,30000,6,10000,0,9999,0.100000,99,0,1.871503,12,0.000000,26.730211,0.895352,99,99,0,1,0,0,0
3,39999,79,30000,76,10000,40,9999,0.100000,99,0,0.000000,12,3.000000,34.573894,13.143488,99,99,0,0,0,0,0
3,39999,80,30000,86,0,40,9999,0.100000,99,0,0.000000,12,2.000000,33.890773,14.791215,99,99,0,0,0,0,0
3,39999,81,30000,76,10000,40,9999,0.100000,99,0,0.000000,12,0.000000,26.149719,0.915023,99,99,0,0,0,0,0
3,39999,82,30000,80,0,0,9999,0.100000,99,0,0.175036,12,0.000000,27.545096,0.236143,99,99,0,1,0,0,0
3,39999,83,30000,80,0,40,9999,0.100000,99,0,0.000000,12,2.000000,23.233790,20.344460,99,99,0,0,0,0,0
3,39999,84,30000,76,10000,40,9999,0.100000,99,0,0.000000,12,0.000000,22.180735,0.787860,99,99,0,0,0,0,0
3,39999,85,30000,80,0,40,9999,0.100000,99,0,0.000000,12,0.000000,22.296358,0.685321,99,99,0,0,0,0,0
3,39999,86,30000,8,0,40,9999,0.100000,99,0,0.000000,12,2.000000,30.740369,13.457953,99,99,0,0,0,0,0
3,39999,87,30000,86,0,40,9999,0.100000,99,0,0.000000,12,0.000000,24.863686,2.598291,99,99,0,0,0,0,0
3,39999,88,30000,78,10000,92,9999,0.100000,99,0,13.618988,12,6.000000,23.449464,34.981975,99,99,1,0,0,0,0
3,39999,89,30000,8,0,40,9999,0.100000,99,0,0.000000,12,1.000000,30.587453,1.475828,99,99,0,0,0,0,0
3,39999,90,30000,76,10000,40,9999,0.100000,99,0,0.000000,12,0.000000,33.449193,0.846384,99,99,0,0,0,0,0
3,39999,91,30000,1,0,40,9999,0.100000,99,0,0.000000,12,1.000000,26.845296,6.028001,99,99,0,0,0,0,0
3,39999,92,30000,80,0,40,9999,0.100000,99,0,0.000000,12,0.000000,26.567940,0.917458,99,99,0,0,0,0,0
3,39999,93,30000,63,10000,40,9999,0.100000,99,0,0.000000,12,2.000000,30.711694,15.137151,99,99,0,0,0,0,0
3,39999,94,30000,8,0,40,9999,0.100000,99,0,0.000000,12,1.000000,25.053134,5.007837,99,99,0,0,0,0,0
3,39999,95,30000,1,0,0,9999,0.100000,99,0,0.575794,12,0.000000,18.755575,0.499745,99,99,0,0,1,0,0
3,39999,96,30000,6,10000,40,9999,0.100000,99,0,0.000000,12,2.000000,21.176968,18.641724,99,99,0,0,0,0,0
3,39999,97,30000,86,0,41,9999,0.100000,99,0,0.000000,12,3.000000,22.300115,23.524542,99,99,0,0,0,0,0
3,39999,98,30000,63,10000,40,9999,0.100000,99,0,0.000000,12,0.000000,24.810262,0.105547,99,99,0,0,0,0,0
3,39999,99,30000,1,0,40,9999,0.100000,99,0,0.000000,12,1.000000,23.337732,11.097696,99,99,0,0,0,0,0
4,49999,0,40000,16,10000,40,9999,0.100000,99,0,0.000000,12,2.000000,30.016609,13.486358,99,99,0,0,0,0,0
4,49999,1,40000,41,30000,42,9999,0.100000,99,0,0.000000,12,5.000000,19.929859,14.775774,99,99,0,0,0,0,0
4,49999,2,40000,86,0,0,9999,0.100000,99,0,2.641333,12,0.000000,21.924555,0.699963,99,99,0,0,0,0,1
4,49999,3,40000,63,10000,42,9999,0.100000,99,0,0.000000,12,5.000000,19.290635,7.323909,99,99,0,0,0,0,0
4,49999,4,40000,80,0,40,9999,0.100000,99,0,0.000000,12,2.000000,25.208608,20.551044,99,99,0,0,0,0,0
4,49999,5,40000,66,0,41,9999,0.100000,99,0,0.000000,12,4.000000,27.643439,9.626867,99,99,0,0,0,0,0
4,49999,6,40000,76,10000,40,9999,0.100000,99,0,0.000000,12,2.000000,25.248378,22.424945,99,99,0,0,0,0,0
4,49999,7,40000,16,10000,40,9999,0.100000,99,0,0.000000,12,1.000000,21.805636,12.438752,99,99,0,0,0,0,0
4,49999,8,40000,63,10000,40,9999,0.100000,99,0,0.000000,12,0.000000,34.281420,1.137579,99,99,0,0,0,0,0
4,49999,9,40000,4,0,40,9999,0.100000,99,0,0.000000,12,2.000000,32.554354,12.009479,99,99,0,0,0,0,0
4,49999,10,40000,86,0,41,9999,0.100000,99,0,0.000000,12,3.000000,25.720617,8.833621,99,99,0,0,0,0,0
4,49999,11,40000,86,0,1,9999,0.100000,99,0,24.293683,12,4.000000,24.369882,7.150188,99,99,0,0,1,0,0
4,49999,12,40000,1,0,40,9999,0.100000,99,0,0.000000,12,0.000000,29.695087,0.736307,99,99,0,0,0,0,0
4,49999,13,40000,0,0,41,9999,0.100000,99,0,0.000000,12,5.000000,25.217469,10.677661,99,99,0,0,0,0,0
4,49999,14,40000,4,0,0,9999,0.100000,99,0,0.247719,12,0.000000,24.488657,1.243932,99,99,0,0,0,0,1
4,49999,15,40000,0,0,40,9999,0.100000,99,0,0.000000,12,0.000000,23.710255,0.600556,99,99,0,0,0,0,0
4,49999,16,40000,4,0,1,9999,0.100000,99,0,24.295691,12,4.000000,24.318029,8.262343,99,99,0,0,1,0,0
4,49999,17,40000,80,0,0,9999,0.100000,99,0,5.206423,12,1.000000,21.978944,3.719261,99,99,0,0,0,1,0
4,49999,18,40000,66,0,40,9999,0.100000,99,0,0.000000,12,0.000000,31.731563,0.927655,99,99,0,0,0,0,0
4,49999,19,40000,1,0,40,9999,0.100000,99,0,0.000000,12,0.000000,18.876872,0.532712,99,99,0,0,0,0,0
4,49999,20,40000,6,10000,40,9999,0.100000,99,0,0.000000,12,0.000000,35.556442,0.225086,99,99,0,0,0,0,0
4,49999,21,40000,86,0,0,9999,0.100000,99,0,0.071753,12,0.000000,29.939647,0.124987,99,99,0,0,1,0,0
4,49999,22,40000,86,0,40,9999,0.100000,99,0,0.000000,12,1.000000,27.386764,10.722252,99,99,0,0,0,0,0
4,49999,23,40000,76,10000,0,9999,0.100000,99,0,0.009613,12,0.000000,27.328845,3.638560,99,99,0,0,0,0,1
4,49999,24,40000,66,0,40,9999,0.100000,99,0,0.000000,12,0.000000,29.644265,0.866038,99,99,0,0,0,0,0
4,49999,25,40000,78,10000,40,9999,0.100000,99,0,0.000000,12,1.000000,28.324922,1.516898,99,99,0,0,0,0,0
4,49999,26,40000,66,0,41,9999,0.100000,99,0,0.000000,12,6.000000,35.371281,15.431440,99,99,0,0,0,0,0
4,49999,27,40000,78,10000,40,9999,0.100000,99,0,0.000000,12,2.000000,24.719246,13.240541,99,99,0,0,0,0,0
4,49999,28,40000,6,10000,41,9999,0.100000,99,0,0.000000,12,5.000000,25.547840,6.261657,99,99,0,0,0,0,0
4,49999,29,40000,6,10000,41,9999,0.100000,99,0,0.000000,12,4.000000,21.486600,6.652913,99,99,0,0,0,0,0
4,49999,30,40000,86,0,40,9999,0.100000,99,0,0.000000,12,2.000000,25.936483,2.362751,99,99,0,0,0,0,0
4,49999,31,40000,1,0,40,9999,0.100000,99,0,0.000000,12,1.000000,31.197222,11.085249,99,99,0,0,0,0,0
4,49999,32,40000,16,10000,40,9999,0.135000,99,0,0.000000,12,1.000000,27.741006,16.530217,99,99,0,0,0,0,0
4,49999,33,40000,86,0,40,9999,0.100000,99,0,0.000000,12,0.000000,20.904665,1.048815,99,99,0,0,0,0,0
4,49999,34,40000,63,10000,40,9999,0.100000,99,0,0.000000,12,1.000000,28.135249,17.080052,99,99,0,0,0,0,0
4,49999,35,40000,0,0,41,9999,0.100000,99,0,0.000000,12,3.000000,19.268336,10.402355,99,99,0,0,0,0,0
4,49999,36,40000,1,0,0,9999,0.100000,99,0,0.167521,12,0.000000,29.962257,1.278803,99,99,0,0,0,0,1
4,49999,37,40000,63,10000,40,9999,0.100000,99,0,0.000000,12,1.000000,24.897390,7.694343,99,99,0,0,0,0,0
4,49999,38,40000,86,0,40,9999,0.100000,99,0,0.000000,12,1.000000,21.302856,8.586651,99,99,0,0,0,0,0
4,49999,39,40000,43,30000,40,9999,0.135000,99,0,0.000000,12,0.000000,23.335469,6.119385,99,99,0,0,0,0,0
4,49999,40,40000,1,0,40,9999,0.100000,99,0,0.000000,12,0.000000,29.558964,0.502442,99,99,0,0,0,0,0
4,49999,41,40000,41,30000,0,9999,0.100000,99,0,3.353650,12,0.000000,28.516242,1.017854,99,99,0,1,0,0,0
4,49999,42,40000,0,0,0,9999,0.100000,99,0,3.613795,12,1.000000,28.034828,1.256416,99,99,0,0,0,1,0
4,49999,43,40000,63,10000,40,9999,0.100000,99,0,0.000000,12,0.000000,21.374112,1.610155,99,99,0,0,0,0,0
4,49999,44,40000,86,0,40,9999,0.100000,99,0,0.000000,12,1.000000,26.508481,5.371724,99,99,0,0,0,0,0
4,49999,45,40000,0,0,40,9999,0.100000,99,0,0.000000,12,2.000000,22.018800,11.860266,99,99,0,0,0,0,0
4,49999,46,40000,59,30000,40,9999,0.100000,99,0,0.000000,12,0.000000,22.561037,1.824073,99,99,0,0,0,0,0
4,49999,47,40000,66,0,41,9999,0.100000,99,0,0.000000,12,5.000000,34.926988,14.317641,99,99,0,0,0,0,0
4,49999,48,40000,41,30000,40,9999,0.100000,99,0,0.000000,12,1.000000,27.058026,10.259652,99,99,0,0,0,0,0
4,49999,49,40000,63,10000,40,9999,0.100000,99,0,0.000000,12,1.000000,30.215805,15.881923,99,99,0,0,0,0,0
4,49999,50,40000,76,10000,0,9999,0.100000,99,0,2.900072,12,0.000000,22.437766,1.671664,99,99,0,0,1,0,0
4,49999,51,40000,76,10000,40,9999,0.100000,99,0,0.000000,12,0.000000,31.040041,0.139274,99,99,0,0,0,0,0
4,49999,52,40000,4,0,1,9999,0.100000,99,0,23.849273,12,4.000000,24.413322,8.524517,99,99,0,0,1,0,0
4,49999,53,40000,63,10000,94,9999,0.100000,99,0,50.180989,12,11.000000,21.977419,20.778907,99,99,1,0,0,0,0
4,49999,54,40000,4,0,40,9999,0.100000,99,0,0.000000,12,1.000000,21.643811,16.733488,99,99,0,0,0,0,0
4,49999,55,40000,66,0,0,9999,0.100000,99,0,5.047854,12,2.000000,25.703775,2.353752,99,99,0,0,0,1,0
4,49999,56,40000,41,30000,40,9999,0.100000,99,0,0.000000,12,2.000000,29.998698,3.322616,99,99,0,0,0,0,0
4,49999,57,40000,16,10000,41,9999,0.100000,99,0,0.000000,12,4.000000,24.713501,13.564456,99,99,0,0,0,0,0
4,49999,58,40000,4,0,41,9999,0.100000,99,0,0.000000,12,3.000000,22.731080,14.516698,99,99,0,0,0,0,0
4,49999,59,40000,6,10000,40,9999,0.100000,99,0,0.000000,12,0.000000,17.968603,0.234822,99,99,0,0,0,0,0
4,49999,60,40000,1,0,40,9999,0.100000,99,0,0.000000,12,0.000000,31.833814,2.047181,99,99,0,0,0,0,0
4,49999,61,40000,66,0,40,9999,0.100000,99,0,0.000000,12,2.000000,24.578161,6.881170,99,99,0,0,0,0,0
4,49999,62,40000,41,30000,40,9999,0.100000,99,0,0.000000,12,3.000000,29.472183,12.091617,99,99,0,0,0,0,0
4,49999,63,40000,78,10000,90,9999,0.100000,99,0,12.790677,12,3.000000,32.525339,17.135487,99,99,1,0,0,0,0
4,49999,64,40000,0,0,40,9999,0.100000,99,0,0.000000,12,0.000000,29.863121,1.508104,99,99,0,0,0,0,0
4,49999,65,40000,80,0,40,9999,0.100000,99,0,0.000000,12,0.000000,27.464950,0.343521,99,99,0,0,0,0,0
4,49999,66,40000,66,0,40,9999,0.100000,99,0,0.000000,12,1.000000,31.084931,10.425891,99,99,0,0,0,0,0
4,49999,67,40000,78,10000,40,9999,0.100000,99,0,0.000000,12,1.000000,27.504681,2.801407,99,99,0,0,0,0,0
4,49999,68,40000,6,10000,0,9999,0.100000,99,0,0.347932,12,0.000000,25.041963,0.157122,99,99,0,0,0,1,0
4,49999,69,40000,0,0,40,9999,0.100000,99,0,0.000000,12,0.000000,32.164947,5.979323,99,99,0,0,0,0,0
4,49999,70,40000,1,0,40,9999,0.100000,99,0,0.000000,12,2.000000,21.744307,16.742996,99,99,0,0,0,0,0
4,49999,71,40000,63,10000,40,9999,0.100000,99,0,0.000000,12,0.000000,29.976556,14.318227,99,99,0,0,0,0,0
4,49999,72,40000,1,0,40,9999,0.100000,99,0,0.000000,12,2.000000,25.457866,2.397536,99,99,0,0,0,0,0
4,49999,73,40000,6,10000,0,9999,0.100000,99,0,0.489469,12,0.000000,32.169350,1.539981,99,99,0,1,0,0,0
4,49999,74,40000,41,30000,40,9999,0.100000,99,0,0.000000,12,0.000000,28.300602,0.931556,99,99,0,0,0,0,0
4,49999,75,40000,41,30000,40,9999,0.100000,99,0,0.000000,12,0.000000,24.913363,0.145251,99,99,0,0,0,0,0
4,49999,76,40000,43,30000,40,9999,0.135000,99,0,0.000000,12,1.000000,25.026364,3.381663,99,99,0,0,0,0,0
4,49999,77,40000,1,0,40,9999,0.100000,99,0,0.000000,12,1.000000,25.447668,13.422387,99,99,0,0,0,0,0
4,49999,78,40000,0,0,1,9999,0.100000,99,0,20.150926,12,4.000000,27.130006,7.088526,99,99,0,1,0,0,0
4,49999,79,40000,59,30000,40,9999,0.100000,99,0,0.000000,12,1.000000,30.807551,11.740257,99,99,0,0,0,0,0
4,49999,80,40000,80,0,40,9999,0.100000,99,0,0.000000,12,1.000000,31.621126,20.420791,99,99,0,0,0,0,0
4,49999,81,40000,1,0,40,9999,0.100000,99,0,0.000000,12,2.000000,26.237586,2.427311,99,99,0,0,0,0,0
4,49999,82,40000,78,10000,0,9999,0.100000,99,0,0.224876,12,0.000000,27.577097,0.256761,99,99,0,1,0,0,0
4,49999,83,40000,80,0,41,9999,0.100000,99,0,0.000000,12,3.000000,20.704803,11.955618,99,99,0,0,0,0,0
4,49999,84,40000,6,10000,40,9999,0.100000,99,0,0.000000,12,0.000000,21.963687,0.868620,99,99,0,0,0,0,0
4,49999,85,40000,8,0,40,9999,0.100000,99,0,0.000000,12,0.000000,22.323091,1.792337,99,99,0,0,0,0,0
4,49999,86,40000,66,0,41,9999,0.100000,99,0,0.000000,12,4.000000,28.379895,11.298604,99,99,0,0,0,0,0
4,49999,87,40000,41,30000,40,9999,0.100000,99,0,0.000000,12,1.000000,24.683056,6.373655,99,99,0,0,0,0,0
4,49999,88,40000,78,10000,91,9999,0.100000,99,0,0.988936,12,3.000000,28.339992,5.750510,99,99,1,0,0,0,0
4,49999,89,40000,80,0,40,9999,0.100000,99,0,0.000000,12,0.000000,30.193399,0.171563,99,99,0,0,0,0,0
4,49999,90,40000,76,10000,40,9999,0.100000,99,0,0.000000,12,0.000000,33.767467,0.936349,99,99,0,0,0,0,0
4,49999,91,40000,1,0,40,9999,0.135000,99,0,0.000000,12,0.000000,26.503736,2.297400,99,99,0,0,0,0,0
4,49999,92,40000,8,0,1,9999,0.100000,99,0,20.147050,12,4.000000,26.963762,8.404910,99,99,0,1,0,0,0
4,49999,93,40000,80,0,40,9999,0.100000,99,0,0.000000,12,1.000000,29.935822,14.473846,99,99,0,0,0,0,0
4,49999,94,40000,63,10000,40,9999,0.100000,99,0,0.000000,12,1.000000,24.900087,3.167223,99,99,0,0,0,0,0
4,49999,95,40000,80,0,0,9999,0.100000,99,0,0.247408,12,0.000000,18.852531,0.466859,99,99,0,0,1,0,0
4,49999,96,40000,66,0,40,9999,0.100000,99,0,0.000000,12,2.000000,23.469782,11.307784,99,99,0,0,0,0,0
4,49999,97,40000,63,10000,40,9999,0.100000,99,0,0.000000,12,1.000000,24.628612,10.899117,99,99,0,0,0,0,0
4,49999,98,40000,43,30000,40,9999,0.135000,99,0,0.000000,12,0.000000,24.856110,0.110909,99,99,0,0,0,0,0
4,49999,99,40000,59,30000,40,9999,0.100000,99,0,0.000000,12,1.000000,22.760931,18.022208,99,99,0,0,0,0,0
5,59999,0,50000,80,0,40,9999,0.100000,99,0,0.000000,12,1.000000,27.707693,19.662636,99,99,0,0,0,0,0
5,59999,1,50000,41,30000,40,9999,0.100000,99,0,0.000000,12,1.000000,23.929043,15.377302,99,99,0,0,0,0,0
5,59999,2,50000,0,0,0,9999,0.100000,99,0,3.263503,12,0.000000,21.714742,0.762019,99,99,0,0,0,0,1
5,59999,3,50000,80,0,40,9999,0.100000,99,0,0.000000,12,0.000000,21.502962,0.918044,99,99,0,0,0,0,0
5,59999,4,50000,59,30000,41,9999,0.100000,99,0,0.000000,12,4.000000,25.730551,9.363282,99,99,0,0,0,0,0
5,59999,5,50000,6,10000,41,9999,0.100000,99,0,0.000000,12,5.000000,25.473622,9.707278,99,99,0,0,0,0,0
5,59999,6,50000,86,0,41,9999,0.100000,99,0,0.000000,12,3.000000,26.234119,15.106503,99,99,0,0,0,0,0
5,59999,7,50000,43,30000,0,9999,0.135000,99,0,1.079802,12,1.000000,22.457448,3.790711,99,99,0,0,0,1,0
5,59999,8,50000,0,0,41,9999,0.100000,99,0,0.000000,12,4.000000,34.802140,9.045944,99,99,0,0,0,0,0
5,59999,9,50000,4,0,40,9999,0.100000,99,0,0.000000,12,1.000000,33.333706,9.156700,99,99,0,0,0,0,0
5,59999,10,50000,66,0,40,9999,0.100000,99,0,0.000000,12,1.000000,26.266018,8.963659,99,99,0,0,0,0,0
5,59999,11,50000,63,10000,40,9999,0.100000,99,0,0.000000,12,3.000000,28.646733,11.584035,99,99,0,0,0,0,0
5,59999,12,50000,43,30000,40,9999,0.135000,99,0,0.000000,12,0.000000,29.877035,2.764618,99,99,0,0,0,0,0
5,59999,13,50000,63,10000,42,9999,0.100000,99,0,0.000000,12,6.000000,20.173655,18.834685,99,99,0,0,0,0,0
5,59999,14,50000,0,0,40,9999,0.100000,99,0,0.000000,12,2.000000,24.704009,6.881806,99,99,0,0,0,0,0
5,59999,15,50000,80,0,40,9999,0.100000,99,0,0.000000,12,0.000000,23.772690,0.811271,99,99,0,0,0,0,0
5,59999,16,50000,6,10000,41,9999,0.100000,99,0,0.000000,12,3.000000,28.336273,9.281707,99,99,0,0,0,0,0
5,59999,17,50000,6,10000,40,9999,0.100000,99,0,0.000000,12,0.000000,22.196041,5.249490,99,99,0,0,0,0,0
5,59999,18,50000,43,30000,40,9999,0.135000,99,0,0.000000,12,0.000000,32.020307,0.907723,99,99,0,0,0,0,0
5,59999,19,50000,6,10000,41,9999,0.100000,99,0,0.000000,12,3.000000,18.863723,4.177065,99,99,0,0,0,0,0
5,59999,20,50000,0,0,40,9999,0.100000,99,0,0.000000,12,0.000000,35.556485,0.229277,99,99,0,0,0,0,0
5,59999,21,50000,78,10000,0,9999,0.100000,99,0,0.373236,12,0.000000,29.945123,0.337909,99,99,0,0,1,0,0
5,59999,22,50000,6,10000,40,9999,0.100000,99,0,0.000000,12,2.000000,26.967857,12.905609,99,99,0,0,0,0,0
5,59999,23,50000,6,10000,0,9999,0.100000,99,0,0.910874,12,0.000000,26.898308,0.624200,99,99,0,0,0,0,1
5,59999,24,50000,4,0,40,9999,0.100000,99,0,0.000000,12,1.000000,30.052374,3.480127,99,99,0,0,0,0,0
5,59999,25,50000,43,30000,0,9999,0.135000,99,0,0.351028,12,0.000000,29.009248,1.002702,99,99,0,0,0,1,0
5,59999,26,50000,86,0,40,9999,0.100000,99,0,0.000000,12,1.000000,29.851317,13.168611,99,99,0,0,0,0,0
5,59999,27,50000,78,10000,40,9999,0.100000,99,0,0.000000,12,1.000000,23.673695,6.839003,99,99,0,0,0,0,0
5,59999,28,50000,0,0,40,9999,0.100000,99,0,0.000000,12,0.000000,30.118935,0.135530,99,99,0,0,0,0,0
5,59999,29,50000,43,30000,40,9999,0.135000,99,0,0.000000,12,0.000000,21.529227,1.143123,99,99,0,0,0,0,0
5,59999,30,50000,43,30000,1,9999,0.135000,99,0,1.940490,12,5.000000,25.705297,6.095350,99,99,0,0,0,1,0
5,59999,31,50000,0,0,40,9999,0.100000,99,0,0.000000,12,1.000000,30.570385,10.781373,99,99,0,0,0,0,0
5,59999,32,50000,0,0,43,9999,0.100000,99,0,0.000000,12,10.000000,27.121592,11.420592,99,99,0,0,0,0,0
5,59999,33,50000,41,30000,40,9999,0.100000,99,0,0.000000,12,0.000000,21.491702,1.188164,99,99,0,0,0,0,0
5,59999,34,50000,4,0,40,9999,0.100000,99,0,0.000000,12,3.000000,29.183484,4.347396,99,99,0,0,0,0,0
5,59999,35,50000,80,0,42,9999,0.100000,99,0,0.000000,12,5.000000,16.842232,7.737632,99,99,0,0,0,0,0
5,59999,36,50000,43,30000,0,9999,0.135000,99,0,3.168084,12,0.000000,30.200001,1.233723,99,99,0,0,0,0,1
5,59999,37,50000,63,10000,40,9999,0.100000,99,0,0.000000,12,1.000000,24.846033,6.260388,99,99,0,0,0,0,0
5,59999,38,50000,41,30000,40,9999,0.100000,99,0,0.000000,12,0.000000,22.147157,7.405132,99,99,0,0,0,0,0
5,59999,39,50000,41,30000,0,9999,0.100000,99,0,0.141885,12,1.000000,23.324760,8.565259,99,99,0,0,0,0,1
5,59999,40,50000,41,30000,40,9999,0.100000,99,0,0.000000,12,0.000000,29.713365,1.035859,99,99,0,0,0,0,0
5,59999,41,50000,59,30000,3,9999,0.100000,99,0,53.049859,12,10.000000,28.833369,14.447812,99,99,0,1,0,0,0
5,59999,42,50000,43,30000,40,9999,0.135000,99,0,0.000000,12,0.000000,28.736457,0.780892,99,99,0,0,0,0,0
5,59999,43,50000,80,0,40,9999,0.100000,99,0,0.000000,12,0.000000,21.942063,0.951167,99,99,0,0,0,0,0
5,59999,44,50000,80,0,41,9999,0.100000,99,0,0.000000,12,5.000000,26.007254,15.112489,99,99,0,0,0,0,0
5,59999,45,50000,63,10000,40,9999,0.100000,99,0,0.000000,12,2.000000,22.053811,16.852696,99,99,0,0,0,0,0
5,59999,46,50000,43,30000,0,9999,0.135000,99,0,1.944302,12,1.000000,22.810272,2.552802,99,99,0,0,1,0,0
5,59999,47,50000,59,30000,40,9999,0.100000,99,0,0.000000,12,1.000000,31.213529,14.260896,99,99,0,0,0,0,0
5,59999,48,50000,4,0,40,9999,0.100000,99,0,0.000000,12,2.000000,26.670862,20.917815,99,99,0,0,0,0,0
5,59999,49,50000,59,30000,41,9999,0.100000,99,0,0.000000,12,4.000000,29.709110,13.688339,99,99,0,0,0,0,0
5,59999,50,50000,43,30000,40,9999,0.135000,99,0,0.000000,12,1.000000,22.543477,2.488509,99,99,0,0,0,0,0
5,59999,51,50000,0,0,40,9999,0.100000,99,0,0.000000,12,0.000000,31.039426,0.137005,99,99,0,0,0,0,0
5,59999,52,50000,63,10000,41,9999,0.100000,99,0,0.000000,12,4.000000,28.773862,10.693735,99,99,0,0,0,0,0
5,59999,53,50000,78,10000,40,9999,0.100000,99,0,0.000000,12,2.000000,30.157476,11.427119,99,99,0,0,0,0,0
5,59999,54,50000,4,0,40,9999,0.100000,99,0,0.000000,12,1.000000,22.403973,21.961112,99,99,0,0,0,0,0
5,59999,55,50000,1,0,41,9999,0.100000,99,0,0.000000,12,5.000000,25.517441,6.095351,99,99,0,0,0,0,0
5,59999,56,50000,43,30000,40,9999,0.135000,99,0,0.000000,12,0.000000,32.508028,0.242014,99,99,0,0,0,0,0
5,59999,57,50000,43,30000,40,9999,0.135000,99,0,0.000000,12,0.000000,28.390936,0.996827,99,99,0,0,0,0,0
5,59999,58,50000,78,10000,40,9999,0.100000,99,0,0.000000,12,1.000000,22.599295,8.132787,99,99,0,0,0,0,0
5,59999,59,50000,78,10000,40,9999,0.100000,99,0,0.000000,12,0.000000,17.966154,0.237478,99,99,0,0,0,0,0
5,59999,60,50000,41,30000,40,9999,0.100000,99,0,0.000000,12,2.000000,31.905085,16.656257,99,99,0,0,0,0,0
5,59999,61,50000,78,10000,41,9999,0.100000,99,0,0.000000,12,5.000000,26.982703,9.606776,99,99,0,0,0,0,0
5,59999,62,50000,59,30000,40,9999,0.100000,99,0,0.000000,12,2.000000,25.764128,9.625133,99,99,0,0,0,0,0
5,59999,63,50000,1,0,40,9999,0.100000,99,0,0.000000,12,0.000000,30.985670,2.767154,99,99,0,0,0,0,0
5,59999,64,50000,86,0,40,9999,0.100000,99,0,0.000000,12,0.000000,30.052643,2.320687,99,99,0,0,0,0,0
5,59999,65,50000,4,0,40,9999,0.100000,99,0,0.000000,12,0.000000,27.366550,0.311775,99,99,0,0,0,0,0
5,59999,66,50000,1,0,40,9999,0.100000,99,0,0.000000,12,1.000000,30.198589,11.234909,99,99,0,0,0,0,0
5,59999,67,50000,0,0,40,9999,0.100000,99,0,0.000000,12,0.000000,28.507562,0.906221,99,99,0,0,0,0,0
5,59999,68,50000,1,0,0,9999,0.100000,99,0,0.438385,12,0.000000,25.146827,0.186354,99,99,0,0,0,1,0
5,59999,69,50000,59,30000,0,9999,0.100000,99,0,2.289153,12,0.000000,32.499941,1.560553,99,99,0,1,0,0,0
5,59999,70,50000,41,30000,40,9999,0.100000,99,0,0.000000,12,1.000000,21.421994,9.665316,99,99,0,0,0,0,0
5,59999,71,50000,63,10000,40,9999,0.100000,99,0,0.000000,12,3.000000,29.877717,17.654174,99,99,0,0,0,0,0
5,59999,72,50000,0,0,41,9999,0.100000,99,0,0.000000,12,5.000000,25.299765,6.154301,99,99,0,0,0,0,0
5,59999,73,50000,80,0,40,9999,0.100000,99,0,0.000000,12,0.000000,32.308010,1.836980,99,99,0,0,0,0,0
5,59999,74,50000,66,0,3,9999,0.100000,99,0,53.047258,12,10.000000,28.593028,18.691486,99,99,0,1,0,0,0
5,59999,75,50000,41,30000,40,9999,0.100000,99,0,0.000000,12,0.000000,24.979916,0.146488,99,99,0,0,0,0,0
5,59999,76,50000,59,30000,41,9999,0.100000,99,0,0.000000,12,3.000000,24.968113,8.963672,99,99,0,0,0,0,0
5,59999,77,50000,6,10000,42,9999,0.100000,99,0,0.000000,12,7.000000,25.663523,20.023377,99,99,0,0,0,0,0
5,59999,78,50000,78,10000,40,9999,0.100000,99,0,0.000000,12,3.000000,30.706941,14.279941,99,99,0,0,0,0,0
5,59999,79,50000,1,0,40,9999,0.100000,99,0,0.000000,12,0.000000,30.658830,6.668389,99,99,0,0,0,0,0
5,59999,80,50000,80,0,40,9999,0.100000,99,0,0.000000,12,1.000000,30.245950,15.126659,99,99,0,0,0,0,0
5,59999,81,50000,4,0,41,9999,0.100000,99,0,0.000000,12,5.000000,26.030510,5.841354,99,99,0,0,0,0,0
5,59999,82,50000,6,10000,0,9999,0.100000,99,0,2.010389,12,0.000000,27.618690,0.736731,99,99,0,1,0,0,0
5,59999,83,50000,0,0,40,9999,0.100000,99,0,0.000000,12,1.000000,17.481566,3.335980,99,99,0,0,0,0,0
5,59999,84,50000,4,0,40,9999,0.100000,99,0,0.000000,12,0.000000,21.749912,0.920202,99,99,0,0,0,0,0
5,59999,85,50000,41,30000,40,9999,0.100000,99,0,0.000000,12,1.000000,22.281478,2.588554,99,99,0,0,0,0,0
5,59999,86,50000,78,10000,40,9999,0.100000,99,0,0.000000,12,2.000000,26.332978,12.834696,99,99,0,0,0,0,0
5,59999,87,50000,80,0,40,9999,0.100000,99,0,0.000000,12,0.000000,24.759161,0.780537,99,99,0,0,0,0,0
5,59999,88,50000,59,30000,90,9999,0.100000,99,0,0.184612,12,0.000000,24.420085,0.395354,99,99,1,0,0,0,0
5,59999,89,50000,4,0,40,9999,0.100000,99,0,0.000000,12,0.000000,30.198564,0.267500,99,99,0,0,0,0,0
5,59999,90,50000,0,0,40,9999,0.100000,99,0,0.000000,12,0.000000,34.158865,0.980317,99,99,0,0,0,0,0
5,59999,91,50000,86,0,41,9999,0.100000,99,0,0.000000,12,3.000000,26.496061,12.145403,99,99,0,0,0,0,0
5,59999,92,50000,43,30000,40,9999,0.135000,99,0,0.000000,12,3.000000,28.810546,12.544407,99,99,0,0,0,0,0
5,59999,93,50000,78,10000,41,9999,0.100000,99,0,0.000000,12,4.000000,30.243797,14.832959,99,99,0,0,0,0,0
5,59999,94,50000,86,0,40,9999,0.100000,99,0,0.000000,12,0.000000,24.860866,2.426904,99,99,0,0,0,0,0
5,59999,95,50000,63,10000,1,9999,0.100000,99,0,0.514510,12,3.000000,18.784667,3.636246,99,99,0,0,1,0,0
5,59999,96,50000,86,0,40,9999,0.100000,99,0,0.000000,12,1.000000,22.195698,3.540530,99,99,0,0,0,0,0
5,59999,97,50000,80,0,40,9999,0.100000,99,0,0.000000,12,0.000000,24.293739,15.955992,99,99,0,0,0,0,0
5,59999,98,50000,80,0,40,9999,0.100000,99,0,0.000000,12,0.000000,24.901785,0.119583,99,99,0,0,0,0,0
5,59999,99,50000,1,0,40,9999,0.100000,99,0,0.000000,12,1.000000,22.669885,19.679211,99,99,0,0,0,0,0
6,69999,0,60000,63,10000,40,9999,0.100000,99,0,0.000000,12,2.000000,27.981712,14.674053,99,99,0,0,0,0,0
6,69999,1,60000,0,0,40,9999,0.100000,99,0,0.000000,13,1.000000,23.052118,9.934790,99,99,0,0,0,0,0
6,69999,2,60000,66,0,0,9999,0.100000,99,0,2.821142,12,0.000000,21.528977,0.674646,99,99,0,0,0,0,1
6,69999,3,60000,80,0,40,9999,0.100000,99,0,0.000000,12,0.000000,21.265178,0.839468,99,99,0,0,0,0,0
6,69999,4,60000,66,0,40,9999,0.100000,99,0,0.000000,14,0.000000,24.233940,4.656168,99,99,0,0,0,0,0
6,69999,5,60000,43,30000,40,9999,0.135000,99,0,0.000000,13,2.000000,27.930614,15.992538,99,99,0,0,0,0,0
6,69999,6,60000,63,10000,40,9999,0.100000,99,0,0.000000,14,0.000000,25.079512,0.544001,99,99,0,0,0,0,0
6,69999,7,60000,41,30000,0,9999,0.100000,99,0,1.219396,12,0.000000,21.372851,0.440681,99,99,0,0,0,1,0
6,69999,8,60000,86,0,40,9999,0.100000,99,0,0.000000,12,0.000000,37.723287,1.374326,99,99,0,0,0,0,0
6,69999,9,60000,80,0,40,9999,0.100000,99,0,0.000000,13,0.000000,32.359446,2.788381,99,99,0,0,0,0,0
6,69999,10,60000,6,10000,40,9999,0.100000,99,0,0.000000,13,2.000000,28.121316,10.242360,99,99,0,0,0,0,0
6,69999,11,60000,80,0,40,9999,0.100000,99,0,0.000000,12,0.000000,25.256122,1.345982,99,99,0,0,0,0,0
6,69999,12,60000,41,30000,40,9999,0.100000,99,0,0.000000,13,0.000000,29.498973,2.484927,99,99,0,0,0,0,0
6,69999,13,60000,43,30000,41,9999,0.135000,99,0,0.000000,14,4.000000,23.853312,17.929821,99,99,0,0,0,0,0
6,69999,14,60000,59,30000,40,9999,0.100000,99,0,0.000000,12,0.000000,26.671953,3.813506,99,99,0,0,0,0,0
6,69999,15,60000,0,0,40,9999,0.100000,99,0,0.000000,14,0.000000,23.862220,1.040435,99,99,0,0,0,0,0
6,69999,16,60000,43,30000,40,9999,0.135000,99,0,0.000000,13,2.000000,25.630943,9.362965,99,99,0,0,0,0,0
6,69999,17,60000,86,0,40,9999,0.100000,99,0,0.000000,12,1.000000,21.677137,7.888971,99,99,0,0,0,0,0
6,69999,18,60000,63,10000,40,9999,0.100000,99,0,0.000000,14,3.000000,32.317165,4.566765,99,99,0,0,0,0,0
6,69999,19,60000,59,30000,42,9999,0.100000,99,0,0.000000,12,5.000000,15.861782,6.280250,99,99,0,0,0,0,0
6,69999,20,60000,0,0,40,9999,0.100000,99,0,0.000000,13,0.000000,35.556195,0.231199,99,99,0,0,0,0,0
6,69999,21,60000,0,0,0,9999,0.100000,99,0,1.747271,13,0.000000,29.918749,0.546498,99,99,0,0,1,0,0
6,69999,22,60000,41,30000,41,9999,0.065000,99,0,0.000000,12,3.000000,28.258948,16.417063,99,99,0,0,0,0,0
6,69999,23,60000,86,0,0,9999,0.100000,99,0,0.887492,13,0.000000,27.062464,0.888217,99,99,0,0,0,0,1
6,69999,24,60000,63,10000,40,9999,0.100000,99,0,0.000000,14,0.000000,29.874468,0.899512,99,99,0,0,0,0,0
6,69999,25,60000,1,0,40,9999,0.100000,99,0,0.000000,12,0.000000,28.992068,0.894101,99,99,0,0,0,0,0
6,69999,26,60000,4,0,41,9999,0.100000,99,0,0.000000,14,4.000000,30.186550,11.208641,99,99,0,0,0,0,0
6,69999,27,60000,6,10000,42,9999,0.100000,99,0,0.000000,12,5.000000,23.371673,8.658103,99,99,0,0,0,0,0
6,69999,28,60000,80,0,40,9999,0.100000,99,0,0.000000,13,0.000000,30.118617,0.136687,99,99,0,0,0,0,0
6,69999,29,60000,4,0,40,9999,0.100000,99,0,0.000000,12,0.000000,21.287163,0.929022,99,99,0,0,0,0,0
6,69999,30,60000,4,0,0,9999,0.100000,99,0,1.481427,13,0.000000,29.016489,1.003777,99,99,0,0,0,1,0
6,69999,31,60000,78,10000,41,9999,0.100000,99,0,0.000000,14,4.000000,30.892125,12.660496,99,99,0,0,0,0,0
6,69999,32,60000,86,0,40,9999,0.100000,99,0,0.000000,12,0.000000,35.083470,0.227415,99,99,0,0,0,0,0
6,69999,33,60000,41,30000,40,9999,0.100000,99,0,0.000000,13,0.000000,22.257508,1.300773,99,99,0,0,0,0,0
6,69999,34,60000,4,0,0,9999,0.100000,99,0,0.222179,12,0.000000,28.471814,2.422093,99,99,0,0,0,1,0
6,69999,35,60000,6,10000,40,9999,0.100000,99,0,0.000000,13,0.000000,18.814533,0.244801,99,99,0,0,0,0,0
6,69999,36,60000,0,0,40,9999,0.100000,99,0,0.000000,13,0.000000,29.800690,0.773873,99,99,0,0,0,0,0
6,69999,37,60000,59,30000,40,9999,0.100000,99,0,0.000000,14,0.000000,24.156812,2.763289,99,99,0,0,0,0,0
6,69999,38,60000,86,0,40,9999,0.100000,99,0,0.000000,13,0.000000,21.581045,4.170237,99,99,0,0,0,0,0
6,69999,39,60000,86,0,0,9999,0.100000,99,0,1.600057,13,1.000000,24.288303,4.758352,99,99,0,0,0,0,1
6,69999,40,60000,1,0,0,9999,0.100000,99,0,3.562194,13,2.000000,29.319967,5.434627,99,99,0,0,0,0,1
6,69999,41,60000,0,0,41,9999,0.100000,99,0,0.000000,13,5.000000,33.207944,26.998306,99,99,0,0,0,0,0
6,69999,42,60000,66,0,40,9999,0.100000,99,0,0.000000,14,0.000000,28.779912,0.893209,99,99,0,0,0,0,0
6,69999,43,60000,43,30000,40,9999,0.135000,99,0,0.000000,13,0.000000,21.431635,0.503289,99,99,0,0,0,0,0
6,69999,44,60000,41,30000,40,9999,0.100000,99,0,0.000000,14,0.000000,29.000799,2.552163,99,99,0,0,0,0,0
6,69999,45,60000,80,0,40,9999,0.100000,99,0,0.000000,13,0.000000,24.787022,2.655786,99,99,0,0,0,0,0
6,69999,46,60000,41,50000,40,9999,0.100000,99,0,0.000000,13,0.000000,22.417228,0.202627,99,99,0,0,0,0,0
6,69999,47,60000,80,0,40,9999,0.100000,99,0,0.000000,13,3.000000,30.378854,14.611707,99,99,0,0,0,0,0
6,69999,48,60000,86,0,40,9999,0.100000,99,0,0.000000,13,2.000000,27.505494,11.623054,99,99,0,0,0,0,0
6,69999,49,60000,86,0,40,9999,0.100000,99,0,0.000000,13,1.000000,32.649235,2.410666,99,99,0,0,0,0,0
6,69999,50,60000,4,0,0,9999,0.100000,99,0,0.017525,13,0.000000,22.301850,0.156607,99,99,0,0,1,0,0
6,69999,51,60000,78,10000,40,9999,0.100000,99,0,0.000000,14,0.000000,31.039245,0.135971,99,99,0,0,0,0,0
6,69999,52,60000,4,0,40,9999,0.100000,99,0,0.000000,14,0.000000,25.137827,0.734818,99,99,0,0,0,0,0
6,69999,53,60000,80,0,40,9999,0.100000,99,0,0.000000,13,0.000000,29.084973,5.985849,99,99,0,0,0,0,0
6,69999,54,60000,0,0,43,9999,0.100000,99,0,0.000000,13,8.000000,23.595963,19.597921,99,99,0,0,0,0,0
6,69999,55,60000,78,10000,40,9999,0.100000,99,0,0.000000,13,0.000000,28.931586,1.260126,99,99,0,0,0,0,0
6,69999,56,60000,41,30000,40,9999,0.100000,99,0,0.000000,13,0.000000,32.508735,0.252830,99,99,0,0,0,0,0
6,69999,57,60000,78,10000,40,9999,0.100000,99,0,0.000000,13,0.000000,28.471090,1.561839,99,99,0,0,0,0,0
6,69999,58,60000,80,0,40,9999,0.100000,99,0,0.000000,13,0.000000,21.612383,6.114854,99,99,0,0,0,0,0
6,69999,59,60000,66,0,40,9999,0.100000,99,0,0.000000,13,0.000000,17.966175,0.236282,99,99,0,0,0,0,0
6,69999,60,60000,63,10000,40,9999,0.100000,99,0,0.000000,13,2.000000,31.787536,18.459564,99,99,0,0,0,0,0
6,69999,61,60000,41,50000,40,9999,0.100000,99,0,0.000000,13,0.000000,31.191611,0.219417,99,99,0,0,0,0,0
6,69999,62,60000,63,10000,41,9999,0.100000,99,0,0.000000,14,3.000000,27.995297,18.818285,99,99,0,0,0,0,0
6,69999,63,60000,6,10000,40,9999,0.100000,99,0,0.000000,13,1.000000,31.388449,3.220722,99,99,0,0,0,0,0
6,69999,64,60000,4,0,40,9999,0.100000,99,0,0.000000,14,0.000000,29.606632,2.084983,99,99,0,0,0,0,0
6,69999,65,60000,86,0,40,9999,0.100000,99,0,0.000000,13,0.000000,27.522272,0.428276,99,99,0,0,0,0,0
6,69999,66,60000,41,50000,40,9999,0.100000,99,0,0.000000,13,1.000000,28.980370,13.550020,99,99,0,0,0,0,0
6,69999,67,60000,41,50000,40,9999,0.100000,99,0,0.000000,14,0.000000,28.573820,1.127629,99,99,0,0,0,0,0
6,69999,68,60000,78,10000,0,9999,0.100000,99,0,0.405380,14,0.000000,25.280500,0.225154,99,99,0,0,0,1,0
6,69999,69,60000,66,0,0,9999,0.100000,99,0,0.677896,13,0.000000,32.525050,1.839246,99,99,0,1,0,0,0
6,69999,70,60000,66,0,40,9999,0.100000,99,0,0.000000,13,0.000000,21.712612,11.569366,99,99,0,0,0,0,0
6,69999,71,60000,4,0,41,9999,0.100000,99,0,0.000000,12,4.000000,27.697430,13.559602,99,99,0,0,0,0,0
6,69999,72,60000,41,50000,40,9999,0.100000,99,0,0.000000,13,0.000000,28.826038,1.167817,99,99,0,0,0,0,0
6,69999,73,60000,6,10000,40,9999,0.100000,99,0,0.000000,13,0.000000,32.542823,4.242898,99,99,0,0,0,0,0
6,69999,74,60000,41,50000,40,9999,0.100000,99,0,0.000000,14,2.000000,30.529332,7.975030,99,99,0,0,0,0,0
6,69999,75,60000,78,10000,40,9999,0.100000,99,0,0.000000,13,0.000000,25.059584,0.149371,99,99,0,0,0,0,0
6,69999,76,60000,6,10000,40,9999,0.100000,99,0,0.000000,14,0.000000,28.688986,1.477715,99,99,0,0,0,0,0
6,69999,77,60000,43,30000,40,9999,0.135000,99,0,0.000000,14,1.000000,22.954815,1.483160,99,99,0,0,0,0,0
6,69999,78,60000,63,10000,41,9999,0.100000,99,0,0.000000,13,4.000000,29.395012,16.817309,99,99,0,0,0,0,0
6,69999,79,60000,41,30000,40,9999,0.100000,99,0,0.000000,13,1.000000,31.340754,15.456204,99,99,0,0,0,0,0
6,69999,80,60000,41,30000,40,9999,0.100000,99,0,0.000000,14,3.000000,30.096582,14.667785,99,99,0,0,0,0,0
6,69999,81,60000,1,0,40,9999,0.100000,99,0,0.000000,14,0.000000,29.149497,1.140265,99,99,0,0,0,0,0
6,69999,82,60000,66,0,0,9999,0.100000,99,0,0.222050,13,0.000000,27.585293,0.236086,99,99,0,1,0,0,0
6,69999,83,60000,66,0,42,9999,0.100000,99,0,0.000000,13,5.000000,15.964338,19.595344,99,99,0,0,0,0,0
6,69999,84,60000,78,10000,40,9999,0.100000,99,0,0.000000,13,0.000000,21.567225,0.903789,99,99,0,0,0,0,0
6,69999,85,60000,1,0,41,9999,0.100000,99,0,0.000000,14,3.000000,22.198994,14.589081,99,99,0,0,0,0,0
6,69999,86,60000,43,30000,42,9999,0.135000,99,0,0.000000,14,8.000000,29.180804,8.539214,99,99,0,0,0,0,0
6,69999,87,60000,0,0,40,9999,0.100000,99,0,0.000000,13,0.000000,24.373199,0.621991,99,99,0,0,0,0,0
6,69999,88,60000,66,0,90,9999,0.100000,99,0,0.342293,13,0.000000,24.384211,0.389253,99,99,1,0,0,0,0
6,69999,89,60000,1,0,0,9999,0.100000,99,0,1.476971,14,0.000000,30.172860,0.650033,99,99,0,0,0,1,0
6,69999,90,60000,1,0,40,9999,0.100000,99,0,0.000000,13,2.000000,34.614657,4.791063,99,99,0,0,0,0,0
6,69999,91,60000,41,30000,40,9999,0.100000,99,0,0.000000,14,0.000000,25.344086,10.095441,99,99,0,0,0,0,0
6,69999,92,60000,41,50000,40,9999,0.100000,99,0,0.000000,13,0.000000,26.953653,1.526673,99,99,0,0,0,0,0
6,69999,93,60000,59,30000,41,9999,0.100000,99,0,0.000000,14,5.000000,32.235606,12.286174,99,99,0,0,0,0,0
6,69999,94,60000,63,10000,40,9999,0.100000,99,0,0.000000,13,0.000000,24.562182,2.087733,99,99,0,0,0,0,0
6,69999,95,60000,78,10000,2,9999,0.100000,99,0,0.001854,14,4.000000,15.740480,6.382374,99,99,0,0,1,0,0
6,69999,96,60000,4,0,41,9999,0.100000,99,0,0.000000,13,3.000000,22.073502,14.786926,99,99,0,0,0,0,0
6,69999,97,60000,78,10000,40,9999,0.100000,99,0,0.000000,14,1.000000,24.375348,19.944283,99,99,0,0,0,0,0
6,69999,98,60000,63,10000,40,9999,0.100000,99,0,0.000000,13,0.000000,24.951828,0.130224,99,99,0,0,0,0,0
6,69999,99,60000,0,0,43,9999,0.100000,99,0,0.000000,13,8.000000,23.482098,19.595791,99,99,0,0,0,0,0
7,79999,0,70000,0,0,40,9999,0.100000,99,0,0.000000,14,1.000000,30.063978,5.478749,99,99,0,0,0,0,0
7,79999,1,70000,66,0,1,9999,0.100000,99,0,21.178048,14,4.000000,22.426244,10.444660,99,99,0,0,1,0,0
7,79999,2,70000,0,0,0,9999,0.100000,99,0,2.197525,14,0.000000,21.404570,0.595311,99,99,0,0,0,0,1
7,79999,3,70000,43,30000,40,9999,0.135000,99,0,0.000000,14,0.000000,21.017888,0.784479,99,99,0,0,0,0,0
7,79999,4,70000,80,0,40,9999,0.100000,99,0,0.000000,14,1.000000,24.852084,7.872837,99,99,0,0,0,0,0
7,79999,5,70000,41,30000,40,9999,0.100000,99,0,0.000000,14,0.000000,30.091617,4.160474,99,99,0,0,0,0,0
7,79999,6,70000,41,30000,41,9999,0.100000,99,0,0.000000,14,5.000000,24.983045,7.370299,99,99,0,0,0,0,0
7,79999,7,70000,0,0,0,9999,0.100000,99,0,2.990827,14,0.000000,21.152668,1.309721,99,99,0,0,0,1,0
7,79999,8,70000,1,0,40,9999,0.100000,99,0,0.000000,14,0.000000,37.054320,0.937354,99,99,0,0,0,0,0
7,79999,9,70000,78,10000,40,9999,0.100000,99,0,0.000000,14,2.000000,32.874906,7.654912,99,99,0,0,0,0,0
7,79999,10,70000,66,0,40,9999,0.100000,99,0,0.000000,14,2.000000,27.997610,9.573447,99,99,0,0,0,0,0
7,79999,11,70000,86,0,42,9999,0.100000,99,0,0.000000,14,6.000000,25.170463,8.903378,99,99,0,0,0,0,0
7,79999,12,70000,4,0,40,9999,0.100000,99,0,0.000000,14,1.000000,29.279260,1.945661,99,99,0,0,0,0,0
7,79999,13,70000,59,30000,40,9999,0.100000,99,0,0.000000,14,0.000000,27.511644,0.613155,99,99,0,0,0,0,0
7,79999,14,70000,78,10000,41,9999,0.100000,99,0,0.000000,14,5.000000,26.679563,6.465413,99,99,0,0,0,0,0
7,79999,15,70000,6,10000,40,9999,0.100000,99,0,0.000000,14,0.000000,23.979845,1.219200,99,99,0,0,0,0,0
7,79999,16,70000,63,10000,40,9999,0.100000,99,0,0.000000,14,0.000000,27.058553,5.743402,99,99,0,0,0,0,0
7,79999,17,70000,80,0,40,9999,0.100000,99,0,0.000000,14,0.000000,21.228692,1.094945,99,99,0,0,0,0,0
7,79999,18,70000,74,50000,40,9999,0.100000,99,0,0.000000,14,0.000000,30.606592,0.710134,99,99,0,0,0,0,0
7,79999,19,70000,99,60000,40,9999,0.100000,99,0,0.000000,14,0.000000,11.942797,0.009667,99,99,0,0,0,0,0
7,79999,20,70000,78,10000,40,9999,0.100000,99,0,0.000000,14,0.000000,35.557189,0.231740,99,99,0,0,0,0,0
7,79999,21,70000,63,10000,0,9999,0.100000,99,0,0.168894,14,0.000000,29.842871,0.626683,99,99,0,0,0,1,0
7,79999,22,70000,4,0,40,9999,0.100000,99,0,0.000000,14,1.000000,27.050428,19.398768,99,99,0,0,0,0,0
7,79999,23,70000,0,0,0,9999,0.100000,99,0,1.301301,14,0.000000,27.287894,0.719545,99,99,0,0,0,0,1
7,79999,24,70000,41,30000,40,9999,0.100000,99,0,0.000000,14,1.000000,29.653058,2.919669,99,99,0,0,0,0,0
7,79999,25,70000,86,0,40,9999,0.100000,99,0,0.000000,14,1.000000,29.104857,1.312151,99,99,0,0,0,0,0
7,79999,26,70000,66,0,41,9999,0.100000,99,0,0.000000,14,4.000000,34.262852,23.182039,99,99,0,0,0,0,0
7,79999,27,70000,63,10000,41,9999,0.100000,99,0,0.000000,14,3.000000,26.495083,13.482080,99,99,0,0,0,0,0
7,79999,28,70000,78,10000,40,9999,0.100000,99,0,0.000000,14,0.000000,30.118408,0.137795,99,99,0,0,0,0,0
7,79999,29,70000,41,30000,40,9999,0.100000,99,0,0.000000,14,0.000000,21.026424,1.172055,99,99,0,0,0,0,0
7,79999,30,70000,4,0,0,9999,0.100000,99,0,0.023020,14,0.000000,29.679711,0.375408,99,99,0,0,0,1,0
7,79999,31,70000,41,50000,40,9999,0.100000,99,0,0.000000,14,1.000000,34.422706,6.476291,99,99,0,0,0,0,0
7,79999,32,70000,6,10000,40,9999,0.100000,99,0,0.000000,14,0.000000,35.084516,0.244142,99,99,0,0,0,0,0
7,79999,33,70000,4,0,40,9999,0.100000,99,0,0.000000,14,1.000000,23.180606,1.919365,99,99,0,0,0,0,0
7,79999,34,70000,0,0,40,9999,0.100000,99,0,0.000000,14,1.000000,28.330660,1.576266,99,99,0,0,0,0,0
7,79999,35,70000,4,0,40,9999,0.100000,99,0,0.000000,14,0.000000,18.811721,0.243719,99,99,0,0,0,0,0
7,79999,36,70000,1,0,40,9999,0.100000,99,0,0.000000,14,0.000000,29.625419,1.501608,99,99,0,0,0,0,0
7,79999,37,70000,66,0,0,9999,0.100000,99,0,0.759461,14,0.000000,24.688680,1.407064,99,99,0,0,0,0,1
7,79999,38,70000,43,30000,40,9999,0.135000,99,0,0.000000,14,0.000000,21.183301,2.338973,99,99,0,0,0,0,0
7,79999,39,70000,41,50000,40,9999,0.100000,99,0,0.000000,14,0.000000,24.789646,0.845796,99,99,0,0,0,0,0
7,79999,40,70000,63,10000,0,9999,0.100000,99,0,7.802967,14,1.000000,29.099195,1.702451,99,99,0,0,0,0,1
7,79999,41,70000,78,10000,40,9999,0.100000,99,0,0.000000,14,1.000000,33.911713,10.379372,99,99,0,0,0,0,0
7,79999,42,70000,6,10000,0,9999,0.100000,99,0,4.861098,14,1.000000,28.852289,1.470841,99,99,0,0,0,1,0
7,79999,43,70000,0,0,40,9999,0.100000,99,0,0.000000,14,0.000000,21.159876,1.026636,99,99,0,0,0,0,0
7,79999,44,70000,80,0,41,9999,0.100000,99,0,0.000000,14,6.000000,29.569052,6.994086,99,99,0,0,0,0,0
7,79999,45,70000,63,10000,40,9999,0.100000,99,0,0.000000,14,0.000000,25.186242,3.125098,99,99,0,0,0,0,0
7,79999,46,70000,4,0,41,9999,0.100000,99,0,0.000000,14,4.000000,22.433831,4.544519,99,99,0,0,0,0,0
7,79999,47,70000,0,0,40,9999,0.100000,99,0,0.000000,14,2.000000,28.374154,12.312179,99,99,0,0,0,0,0
7,79999,48,70000,86,0,40,9999,0.100000,99,0,0.000000,14,2.000000,25.870109,8.367480,99,99,0,0,0,0,0
7,79999,49,70000,74,50000,40,9999,0.100000,99,0,0.000000,14,0.000000,34.564482,1.313134,99,99,0,0,0,0,0
7,79999,50,70000,41,50000,41,9999,0.100000,99,0,0.000000,14,4.000000,22.310539,4.400299,99,99,0,0,0,0,0
7,79999,51,70000,86,0,40,9999,0.100000,99,0,0.000000,14,0.000000,31.038753,0.689750,99,99,0,0,0,0,0
7,79999,52,70000,99,60000,40,9999,0.100000,99,0,0.000000,14,0.000000,25.052297,3.372261,99,99,0,0,0,0,0
7,79999,53,70000,63,10000,40,9999,0.100000,99,0,0.000000,14,0.000000,28.248414,0.493727,99,99,0,0,0,0,0
7,79999,54,70000,80,0,41,9999,0.100000,99,0,0.000000,14,4.000000,27.504933,14.246805,99,99,0,0,0,0,0
7,79999,55,70000,59,30000,40,9999,0.100000,99,0,0.000000,14,0.000000,29.656926,0.394648,99,99,0,0,0,0,0
7,79999,56,70000,1,0,40,9999,0.100000,99,0,0.000000,14,0.000000,32.508639,0.240887,99,99,0,0,0,0,0
7,79999,57,70000,43,30000,40,9999,0.135000,99,0,0.000000,14,3.000000,28.516452,4.674862,99,99,0,0,0,0,0
7,79999,58,70000,0,0,40,9999,0.100000,99,0,0.000000,14,0.000000,21.194887,1.441822,99,99,0,0,0,0,0
7,79999,59,70000,41,50000,40,9999,0.100000,99,0,0.000000,14,0.000000,17.963289,0.243901,99,99,0,0,0,0,0
7,79999,60,70000,4,0,41,9999,0.100000,99,0,0.000000,14,5.000000,29.948607,17.023041,99,99,0,0,0,0,0
7,79999,61,70000,43,30000,40,9999,0.135000,99,0,0.000000,14,0.000000,31.185888,0.156787,99,99,0,0,0,0,0
7,79999,62,70000,0,0,40,9999,0.100000,99,0,0.000000,14,1.000000,29.833066,7.530420,99,99,0,0,0,0,0
7,79999,63,70000,74,50000,40,9999,0.100000,99,0,0.000000,14,0.000000,33.012396,0.826541,99,99,0,0,0,0,0
7,79999,64,70000,66,0,40,9999,0.100000,99,0,0.000000,14,1.000000,29.371835,2.255206,99,99,0,0,0,0,0
7,79999,65,70000,86,0,40,9999,0.100000,99,0,0.000000,14,0.000000,27.752100,0.605286,99,99,0,0,0,0,0
7,79999,66,70000,6,10000,40,9999,0.100000,99,0,0.000000,14,1.000000,27.479824,7.969151,99,99,0,0,0,0,0
7,79999,67,70000,41,30000,40,9999,0.100000,99,0,0.000000,14,1.000000,28.629005,1.992867,99,99,0,0,0,0,0
7,79999,68,70000,74,50000,0,9999,0.135000,99,0,0.346250,14,0.000000,25.421862,0.254605,99,99,0,0,0,1,0
7,79999,69,70000,66,0,0,9999,0.100000,99,0,0.396404,14,0.000000,32.517092,2.823347,99,99,0,1,0,0,0
7,79999,70,70000,1,0,40,9999,0.100000,99,0,0.000000,14,1.000000,21.643918,12.256189,99,99,0,0,0,0,0
7,79999,71,70000,74,50000,41,9999,0.100000,99,0,0.000000,14,5.000000,32.448190,11.042572,99,99,0,0,0,0,0
7,79999,72,70000,63,10000,41,9999,0.100000,99,0,0.000000,14,5.000000,29.630402,9.135903,99,99,0,0,0,0,0
7,79999,73,70000,66,0,40,9999,0.100000,99,0,0.000000,14,1.000000,32.579738,12.393822,99,99,0,0,0,0,0
7,79999,74,70000,1,0,40,9999,0.100000,99,0,0.000000,14,1.000000,31.493104,3.654198,99,99,0,0,0,0,0
7,79999,75,70000,0,0,40,9999,0.100000,99,0,0.000000,14,0.000000,25.145948,0.154263,99,99,0,0,0,0,0
7,79999,76,70000,63,10000,41,9999,0.100000,99,0,0.000000,14,5.000000,29.484999,6.769397,99,99,0,0,0,0,0
7,79999,77,70000,78,10000,40,9999,0.135000,99,0,0.000000,14,1.000000,24.053946,3.290839,99,99,0,0,0,0,0
7,79999,78,70000,43,30000,40,9999,0.135000,99,0,0.000000,14,2.000000,24.886322,19.016262,99,99,0,0,0,0,0
7,79999,79,70000,6,10000,40,9999,0.100000,99,0,0.000000,14,1.000000,30.104730,12.215631,99,99,0,0,0,0,0
7,79999,80,70000,78,10000,40,9999,0.100000,99,0,0.000000,14,3.000000,28.982060,16.607759,99,99,0,0,0,0,0
7,79999,81,70000,6,10000,40,9999,0.100000,99,0,0.000000,14,0.000000,29.711589,1.098595,99,99,0,0,0,0,0
7,79999,82,70000,59,30000,0,9999,0.100000,99,0,0.207233,14,0.000000,27.614383,0.240256,99,99,0,1,0,0,0
7,79999,83,70000,59,30000,40,9999,0.100000,99,0,0.000000,14,2.000000,21.754980,10.556264,99,99,0,0,0,0,0
7,79999,84,70000,66,0,40,9999,0.100000,99,0,0.000000,14,0.000000,21.443398,0.931305,99,99,0,0,0,0,0
7,79999,85,70000,43,30000,40,9999,0.135000,99,0,0.000000,14,2.000000,23.427637,14.342745,99,99,0,0,0,0,0
7,79999,86,70000,6,10000,40,9999,0.100000,99,0,0.000000,14,0.000000,35.849474,0.236146,99,99,0,0,0,0,0
7,79999,87,70000,41,30000,40,9999,0.100000,99,0,0.000000,14,0.000000,24.865533,0.786913,99,99,0,0,0,0,0
7,79999,88,70000,80,0,90,9999,0.100000,99,0,7.282964,14,1.000000,24.314671,2.121801,99,99,1,0,0,0,0
7,79999,89,70000,1,0,40,9999,0.100000,99,0,0.000000,14,0.000000,30.202070,0.374274,99,99,0,0,0,0,0
7,79999,90,70000,59,30000,40,9999,0.100000,99,0,0.000000,14,2.000000,35.254340,3.108266,99,99,0,0,0,0,0
7,79999,91,70000,66,0,41,9999,0.100000,99,0,0.000000,14,3.000000,24.588315,10.118347,99,99,0,0,0,0,0
7,79999,92,70000,86,0,40,9999,0.100000,99,0,0.000000,14,1.000000,27.195215,5.704444,99,99,0,0,0,0,0
7,79999,93,70000,78,10000,40,9999,0.100000,99,0,0.000000,14,2.000000,27.487299,20.025527,99,99,0,0,0,0,0
7,79999,94,70000,41,50000,40,9999,0.100000,99,0,0.000000,14,0.000000,25.055157,2.582160,99,99,0,0,0,0,0
7,79999,95,70000,41,50000,41,9999,0.100000,99,0,0.000000,14,2.000000,11.943884,7.455752,99,99,0,0,0,0,0
7,79999,96,70000,66,0,40,9999,0.065000,99,0,0.000000,14,2.000000,23.313525,14.344417,99,99,0,0,0,0,0
7,79999,97,70000,0,0,40,9999,0.100000,99,0,0.000000,14,1.000000,25.308377,9.143578,99,99,0,0,0,0,0
7,79999,98,70000,59,30000,40,9999,0.100000,99,0,0.000000,14,0.000000,25.007893,0.145002,99,99,0,0,0,0,0
7,79999,99,70000,43,30000,41,9999,0.182250,99,0,0.000000,14,4.000000,27.394605,13.868300,99,99,0,0,0,0,0
8,89999,0,80000,0,0,40,9999,0.100000,99,0,0.000000,14,2.000000,29.761116,5.613704,99,99,0,0,0,0,0
8,89999,1,80000,41,50000,0,9999,0.100000,99,0,11.987581,14,2.000000,25.851684,3.057577,99,99,0,0,1,0,0
8,89999,2,80000,63,10000,0,9999,0.100000,99,0,1.655168,14,0.000000,21.222098,0.700092,99,99,0,0,0,0,1
8,89999,3,80000,80,0,45,9999,0.100000,99,0,0.000000,14,13.000000,20.753540,14.845197,99,99,0,0,0,0,0
8,89999,4,80000,66,0,0,9999,0.100000,99,0,0.046441,14,1.000000,25.853732,6.143078,99,99,0,0,0,0,1
8,89999,5,80000,66,0,40,9999,0.100000,99,0,0.000000,14,0.000000,29.604117,6.984690,99,99,0,0,0,0,0
8,89999,6,80000,99,60000,40,9999,0.100000,99,0,0.000000,14,0.000000,25.627261,1.440652,99,99,0,0,0,0,0
8,89999,7,80000,41,50000,0,9999,0.100000,99,0,0.096177,14,0.000000,21.458777,0.204629,99,99,0,0,0,1,0
8,89999,8,80000,99,60000,40,9999,0.100000,99,0,0.000000,14,0.000000,36.583495,0.953283,99,99,0,0,0,0,0
8,89999,9,80000,1,0,40,9999,0.100000,99,0,0.000000,14,1.000000,32.153399,5.150394,99,99,0,0,0,0,0
8,89999,10,80000,6,10000,40,9999,0.100000,99,0,0.000000,14,1.000000,26.623268,6.551429,99,99,0,0,0,0,0
8,89999,11,80000,99,60000,40,9999,0.100000,99,0,0.000000,14,0.000000,20.012002,0.576531,99,99,0,0,0,0,0
8,89999,12,80000,66,0,40,9999,0.100000,99,0,0.000000,14,1.000000,28.594331,1.263102,99,99,0,0,0,0,0
8,89999,13,80000,1,0,0,9999,0.100000,99,0,0.181509,14,0.000000,27.419270,0.696104,99,99,0,0,0,0,1
8,89999,14,80000,6,10000,40,9999,0.100000,99,0,0.000000,14,0.000000,29.791227,1.244059,99,99,0,0,0,0,0
8,89999,15,80000,41,30000,40,9999,0.100000,99,0,0.000000,14,0.000000,24.119386,1.173069,99,99,0,0,0,0,0
8,89999,16,80000,41,30000,40,9999,0.100000,99,0,0.000000,14,2.000000,27.350010,20.025436,99,99,0,0,0,0,0
8,89999,17,80000,43,30000,40,9999,0.135000,99,0,0.000000,14,0.000000,21.210962,0.651396,99,99,0,0,0,0,0
8,89999,18,80000,41,50000,40,9999,0.100000,99,0,0.000000,14,0.000000,30.574373,1.272677,99,99,0,0,0,0,0
8,89999,19,80000,0,0,40,9999,0.100000,99,0,0.000000,14,0.000000,11.942829,0.009490,99,99,0,0,0,0,0
8,89999,20,80000,0,0,40,9999,0.100000,99,0,0.000000,14,0.000000,35.557910,0.225263,99,99,0,0,0,0,0
8,89999,21,80000,43,30000,0,9999,0.135000,99,0,0.109284,14,0.000000,29.743246,0.212171,99,99,0,0,0,1,0
8,89999,22,80000,1,0,40,9999,0.100000,99,0,0.000000,14,1.000000,27.127635,14.638596,99,99,0,0,0,0,0
8,89999,23,80000,4,0,40,9999,0.100000,99,0,0.000000,14,0.000000,27.184493,1.147199,99,99,0,0,0,0,0
8,89999,24,80000,41,50000,40,9999,0.100000,99,0,0.000000,14,1.000000,28.729611,1.309460,99,99,0,0,0,0,0
8,89999,25,80000,4,0,40,9999,0.100000,99,0,0.000000,14,0.000000,29.306967,0.939179,99,99,0,0,0,0,0
8,89999,26,80000,41,50000,40,9999,0.100000,99,0,0.000000,14,1.000000,29.632830,19.005182,99,99,0,0,0,0,0
8,89999,27,80000,4,0,41,9999,0.100000,99,0,0.000000,14,4.000000,23.523004,10.238448,99,99,0,0,0,0,0
8,89999,28,80000,1,0,40,9999,0.100000,99,0,0.000000,14,0.000000,30.117997,0.137658,99,99,0,0,0,0,0
8,89999,29,80000,99,60000,40,9999,0.100000,99,0,0.000000,14,0.000000,20.755515,6.710192,99,99,0,0,0,0,0
8,89999,30,80000,80,0,0,9999,0.100000,99,0,13.204208,14,2.000000,29.793466,2.886536,99,99,0,0,0,1,0
8,89999,31,80000,66,0,41,9999,0.100000,99,0,0.000000,14,5.000000,34.190975,18.586068,99,99,0,0,0,0,0
8,89999,32,80000,6,10000,40,9999,0.100000,99,0,0.000000,14,0.000000,35.104838,0.310618,99,99,0,0,0,0,0
8,89999,33,80000,1,0,40,9999,0.100000,99,0,0.000000,14,1.000000,24.483066,3.220918,99,99,0,0,0,0,0
8,89999,34,80000,86,0,0,9999,0.100000,99,0,3.341198,14,0.000000,28.583491,1.065015,99,99,0,0,0,1,0
8,89999,35,80000,0,0,40,9999,0.100000,99,0,0.000000,14,0.000000,18.810740,0.238033,99,99,0,0,0,0,0
8,89999,36,80000,74,50000,40,9999,0.100000,99,0,0.000000,14,3.000000,29.035767,14.495907,99,99,0,0,0,0,0
8,89999,37,80000,63,10000,40,9999,0.100000,99,0,0.000000,14,0.000000,25.053509,1.138148,99,99,0,0,0,0,0
8,89999,38,80000,41,50000,40,9999,0.100000,99,0,0.000000,14,2.000000,21.444020,11.448631,99,99,0,0,0,0,0
8,89999,39,80000,74,50000,40,9999,0.100000,99,0,0.000000,14,0.000000,25.075705,1.233729,99,99,0,0,0,0,0
8,89999,40,80000,63,10000,0,9999,0.100000,99,0,5.595391,14,1.000000,28.416089,1.269623,99,99,0,0,0,0,1
8,89999,41,80000,99,60000,40,9999,0.100000,99,0,0.000000,14,1.000000,33.191916,6.670159,99,99,0,0,0,0,0
8,89999,42,80000,66,0,40,9999,0.100000,99,0,0.000000,14,0.000000,29.077685,0.950773,99,99,0,0,0,0,0
8,89999,43,80000,86,0,40,9999,0.100000,99,0,0.000000,14,0.000000,21.372508,0.266169,99,99,0,0,0,0,0
8,89999,44,80000,41,50000,40,9999,0.100000,99,0,0.000000,14,0.000000,28.532690,1.588839,99,99,0,0,0,0,0
8,89999,45,80000,74,50000,40,9999,0.100000,99,0,0.000000,14,1.000000,25.166922,3.591152,99,99,0,0,0,0,0
8,89999,46,80000,99,60000,40,9999,0.100000,99,0,0.000000,14,2.000000,26.074962,2.991160,99,99,0,0,0,0,0
8,89999,47,80000,43,30000,40,9999,0.135000,99,0,0.000000,14,1.000000,29.732073,14.008265,99,99,0,0,0,0,0
8,89999,48,80000,80,0,40,9999,0.100000,99,0,0.000000,14,0.000000,25.330614,7.979119,99,99,0,0,0,0,0
8,89999,49,80000,86,0,40,9999,0.100000,99,0,0.000000,14,0.000000,34.984036,0.640232,99,99,0,0,0,0,0
8,89999,50,80000,78,10000,40,9999,0.100000,99,0,0.000000,14,2.000000,25.971403,2.892363,99,99,0,0,0,0,0
8,89999,51,80000,66,0,40,9999,0.100000,99,0,0.000000,14,0.000000,31.103349,0.620159,99,99,0,0,0,0,0
8,89999,52,80000,74,50000,40,9999,0.100000,99,0,0.000000,14,1.000000,25.504479,11.354664,99,99,0,0,0,0,0
8,89999,53,80000,6,10000,40,9999,0.100000,99,0,0.000000,14,0.000000,28.157325,0.393485,99,99,0,0,0,0,0
8,89999,54,80000,0,0,40,9999,0.100000,99,0,0.000000,14,0.000000,32.048037,0.997354,99,99,0,0,0,0,0
8,89999,55,80000,74,50000,40,9999,0.100000,99,0,0.000000,14,2.000000,29.810729,3.189805,99,99,0,0,0,0,0
8,89999,56,80000,63,10000,40,9999,0.100000,99,0,0.000000,14,0.000000,32.509674,0.224396,99,99,0,0,0,0,0
8,89999,57,80000,80,0,40,9999,0.100000,99,0,0.000000,14,2.000000,31.976460,11.936356,99,99,0,0,0,0,0
8,89999,58,80000,43,30000,40,9999,0.135000,99,0,0.000000,14,2.000000,21.298031,11.367853,99,99,0,0,0,0,0
8,89999,59,80000,41,30000,40,9999,0.100000,99,0,0.000000,14,0.000000,17.961987,0.243012,99,99,0,0,0,0,0
8,89999,60,80000,99,60000,40,9999,0.100000,99,0,0.000000,14,1.000000,32.209508,12.733074,99,99,0,0,0,0,0
8,89999,61,80000,43,30000,40,9999,0.135000,99,0,0.000000,14,0.000000,31.192352,0.372889,99,99,0,0,0,0,0
8,89999,62,80000,80,0,40,9999,0.100000,99,0,0.000000,14,2.000000,30.696422,18.812232,99,99,0,0,0,0,0
8,89999,63,80000,78,10000,40,9999,0.100000,99,0,0.000000,14,0.000000,33.281966,0.845172,99,99,0,0,0,0,0
8,89999,64,80000,80,0,40,9999,0.100000,99,0,0.000000,14,1.000000,28.671203,1.267786,99,99,0,0,0,0,0
8,89999,65,80000,41,30000,40,9999,0.100000,99,0,0.000000,14,0.000000,27.659170,0.747860,99,99,0,0,0,0,0
8,89999,66,80000,41,50000,40,9999,0.100000,99,0,0.000000,14,1.000000,28.310097,11.009028,99,99,0,0,0,0,0
8,89999,67,80000,78,10000,40,9999,0.100000,99,0,0.000000,14,0.000000,29.033465,1.124663,99,99,0,0,0,0,0
8,89999,68,80000,99,60000,0,9999,0.100000,99,0,0.236541,14,0.000000,25.561204,0.243198,99,99,0,0,0,1,0
8,89999,69,80000,43,30000,0,9999,0.135000,99,0,2.270937,14,0.000000,32.376910,1.995792,99,99,0,1,0,0,0
8,89999,70,80000,41,30000,40,9999,0.100000,99,0,0.000000,14,2.000000,21.461564,5.975447,99,99,0,0,0,0,0
8,89999,71,80000,43,30000,40,9999,0.135000,99,0,0.000000,14,2.000000,29.866790,15.491587,99,99,0,0,0,0,0
8,89999,72,80000,86,0,40,9999,0.100000,99,0,0.000000,14,0.000000,34.882451,1.911053,99,99,0,0,0,0,0
8,89999,73,80000,78,10000,40,9999,0.100000,99,0,0.000000,14,0.000000,32.509907,1.958629,99,99,0,0,0,0,0
8,89999,74,80000,63,10000,40,9999,0.100000,99,0,0.000000,14,3.000000,32.337337,20.799056,99,99,0,0,0,0,0
8,89999,75,80000,74,50000,40,9999,0.100000,99,0,0.000000,14,0.000000,25.234523,0.140099,99,99,0,0,0,0,0
8,89999,76,80000,41,50000,40,9999,0.100000,99,0,0.000000,14,0.000000,34.408013,0.232865,99,99,0,0,0,0,0
8,89999,77,80000,4,0,40,9999,0.100000,99,0,0.000000,14,0.000000,25.477850,2.054447,99,99,0,0,0,0,0
8,89999,78,80000,1,0,40,9999,0.100000,99,0,0.000000,14,2.000000,24.162571,10.856973,99,99,0,0,0,0,0
8,89999,79,80000,74,50000,41,9999,0.100000,99,0,0.000000,14,4.000000,30.207322,16.772904,99,99,0,0,0,0,0
8,89999,80,80000,41,50000,40,9999,0.100000,99,0,0.000000,14,0.000000,29.495982,3.190943,99,99,0,0,0,0,0
8,89999,81,80000,78,10000,40,9999,0.100000,99,0,0.000000,14,2.000000,29.771512,3.368250,99,99,0,0,0,0,0
8,89999,82,80000,80,0,0,9999,0.100000,99,0,0.410075,14,0.000000,27.649777,1.109292,99,99,0,1,0,0,0
8,89999,83,80000,80,0,41,9999,0.100000,99,0,0.000000,14,3.000000,22.769616,8.341171,99,99,0,0,0,0,0
8,89999,84,80000,4,0,40,9999,0.100000,99,0,0.000000,14,0.000000,21.256663,2.213751,99,99,0,0,0,0,0
8,89999,85,80000,1,0,41,9999,0.065000,99,0,0.000000,14,5.000000,25.050336,15.935932,99,99,0,0,0,0,0
8,89999,86,80000,41,50000,40,9999,0.100000,99,0,0.000000,14,0.000000,35.849488,0.225670,99,99,0,0,0,0,0
8,89999,87,80000,66,0,40,9999,0.100000,99,0,0.000000,14,0.000000,25.083901,0.811885,99,99,0,0,0,0,0
8,89999,88,80000,78,10000,90,9999,0.100000,99,0,2.667571,14,0.000000,25.666170,1.224152,99,99,1,0,0,0,0
8,89999,89,80000,80,0,40,9999,0.100000,99,0,0.000000,14,0.000000,29.990601,0.180000,99,99,0,0,0,0,0
8,89999,90,80000,66,0,43,9999,0.100000,99,0,0.000000,14,11.000000,32.937080,12.666577,99,99,0,0,0,0,0
8,89999,91,80000,41,50000,41,9999,0.100000,99,0,0.000000,14,3.000000,26.016767,7.814649,99,99,0,0,0,0,0
8,89999,92,80000,41,50000,42,9999,0.100000,99,0,0.000000,14,8.000000,26.958488,23.861678,99,99,0,0,0,0,0
8,89999,93,80000,99,60000,40,9999,0.100000,99,0,0.000000,14,0.000000,27.892912,0.834959,99,99,0,0,0,0,0
8,89999,94,80000,1,0,40,9999,0.100000,99,0,0.000000,14,2.000000,25.130507,13.165019,99,99,0,0,0,0,0
8,89999,95,80000,99,60000,44,9999,0.100000,99,0,0.000000,14,7.000000,13.415081,14.852963,99,99,0,0,0,0,0
8,89999,96,80000,41,30000,41,9999,0.100000,99,0,0.000000,14,5.000000,24.936600,15.937215,99,99,0,0,0,0,0
8,89999,97,80000,6,10000,40,9999,0.100000,99,0,0.000000,14,2.000000,25.438878,19.955914,99,99,0,0,0,0,0
8,89999,98,80000,43,30000,40,9999,0.135000,99,0,0.000000,14,0.000000,25.068277,0.152380,99,99,0,0,0,0,0
8,89999,99,80000,0,0,40,9999,0.100000,99,0,0.000000,14,0.000000,31.765368,1.116050,99,99,0,0,0,0,0
9,99999,0,90000,1,0,40,9999,0.100000,99,0,0.000000,15,0.000000,32.111380,2.126477,99,99,0,0,0,0,0
9,99999,1,90000,80,0,0,9999,0.100000,99,0,2.914959,14,0.000000,28.126348,1.059550,99,99,0,0,1,0,0
9,99999,2,90000,66,0,40,9999,0.100000,99,0,0.000000,14,0.000000,21.124916,14.019565,99,99,0,0,0,0,0
9,99999,3,90000,41,30000,40,9999,0.100000,99,0,0.000000,15,0.000000,20.857562,1.150372,99,99,0,0,0,0,0
9,99999,4,90000,0,0,0,9999,0.100000,99,0,0.546255,15,0.000000,25.002829,0.546697,99,99,0,0,0,0,1
9,99999,5,90000,4,0,41,9999,0.100000,99,0,0.000000,14,4.000000,29.366095,17.048022,99,99,0,0,0,0,0
9,99999,6,90000,78,10000,40,9999,0.100000,99,0,0.000000,14,0.000000,26.396087,0.868802,99,99,0,0,0,0,0
9,99999,7,90000,63,10000,0,9999,0.100000,99,0,0.073443,15,0.000000,21.402862,0.161731,99,99,0,0,0,1,0
9,99999,8,90000,41,30000,40,9999,0.100000,99,0,0.000000,15,0.000000,36.134344,0.954817,99,99,0,0,0,0,0
9,99999,9,90000,43,30000,40,9999,0.135000,99,0,0.000000,15,1.000000,32.949183,5.358011,99,99,0,0,0,0,0
9,99999,10,90000,80,0,40,9999,0.100000,99,0,0.000000,14,1.000000,25.137386,9.099927,99,99,0,0,0,0,0
9,99999,11,90000,6,10000,40,9999,0.100000,99,0,0.000000,14,0.000000,19.971131,0.254021,99,99,0,0,0,0,0
9,99999,12,90000,1,0,40,9999,0.100000,99,0,0.000000,14,0.000000,27.935596,1.412869,99,99,0,0,0,0,0
9,99999,13,90000,66,0,0,9999,0.100000,99,0,0.044150,15,0.000000,27.346370,0.940223,99,99,0,0,0,0,1
9,99999,14,90000,99,60000,40,9999,0.100000,99,0,0.000000,15,0.000000,30.419379,0.133994,99,99,0,0,0,0,0
9,99999,15,90000,1,0,40,9999,0.100000,99,0,0.000000,15,0.000000,24.261503,0.963848,99,99,0,0,0,0,0
9,99999,16,90000,1,0,40,9999,0.100000,99,0,0.000000,15,2.000000,26.454621,11.025411,99,99,0,0,0,0,0
9,99999,17,90000,86,0,40,9999,0.100000,99,0,0.000000,14,0.000000,21.194505,1.808150,99,99,0,0,0,0,0
9,99999,18,90000,4,0,40,9999,0.100000,99,0,0.000000,15,0.000000,30.269352,1.778131,99,99,0,0,0,0,0
9,99999,19,90000,6,10000,40,9999,0.100000,99,0,0.000000,14,0.000000,11.942845,0.009644,99,99,0,0,0,0,0
9,99999,20,90000,80,0,40,9999,0.100000,99,0,0.000000,15,0.000000,35.557109,0.223722,99,99,0,0,0,0,0
9,99999,21,90000,4,0,0,9999,0.100000,99,0,0.224749,15,1.000000,29.680863,1.710939,99,99,0,0,0,1,0
9,99999,22,90000,63,10000,40,9999,0.100000,99,0,0.000000,14,2.000000,26.498212,14.460807,99,99,0,0,0,0,0
9,99999,23,90000,74,50000,40,9999,0.100000,99,0,0.000000,15,0.000000,27.116847,0.714533,99,99,0,0,0,0,0
9,99999,24,90000,41,30000,0,9999,0.100000,99,0,1.182436,15,0.000000,28.076186,1.393738,99,99,0,0,0,0,1
9,99999,25,90000,4,0,40,9999,0.100000,99,0,0.000000,15,1.000000,29.566578,6.011100,99,99,0,0,0,0,0
9,99999,26,90000,1,0,41,9999,0.100000,99,0,0.000000,15,5.000000,28.598530,13.959382,99,99,0,0,0,0,0
9,99999,27,90000,41,30000,41,9999,0.100000,99,0,0.000000,14,3.000000,21.507693,14.324242,99,99,0,0,0,0,0
9,99999,28,90000,99,60000,40,9999,0.100000,99,0,0.000000,15,0.000000,30.117943,0.138680,99,99,0,0,0,0,0
9,99999,29,90000,99,60000,41,9999,0.100000,99,0,0.000000,14,3.000000,21.397495,9.132446,99,99,0,0,0,0,0
9,99999,30,90000,99,60000,0,9999,0.100000,99,0,0.039754,15,0.000000,31.949766,0.228232,99,99,0,0,0,1,0
9,99999,31,90000,80,0,40,9999,0.100000,99,0,0.000000,14,0.000000,29.456837,13.610976,99,99,0,0,0,0,0
9,99999,32,90000,43,30000,40,9999,0.135000,99,0,0.000000,15,0.000000,35.242483,0.233445,99,99,0,0,0,0,0
9,99999,33,90000,41,50000,40,9999,0.100000,99,0,0.000000,15,0.000000,26.168592,0.920986,99,99,0,0,0,0,0
9,99999,34,90000,66,0,0,9999,0.100000,99,0,0.686650,15,1.000000,28.914772,4.407888,99,99,0,0,0,1,0
9,99999,35,90000,1,0,40,9999,0.100000,99,0,0.000000,15,0.000000,18.807538,0.233081,99,99,0,0,0,0,0
9,99999,36,90000,86,0,41,9999,0.100000,99,0,0.000000,14,4.000000,26.262511,12.472726,99,99,0,0,0,0,0
9,99999,37,90000,1,0,40,9999,0.100000,99,0,0.000000,14,0.000000,25.069952,1.372394,99,99,0,0,0,0,0
9,99999,38,90000,6,10000,42,9999,0.100000,99,0,0.000000,14,6.000000,22.936075,16.273911,99,99,0,0,0,0,0
9,99999,39,90000,74,50000,40,9999,0.100000,99,0,0.000000,15,0.000000,25.052609,1.123521,99,99,0,0,0,0,0
9,99999,40,90000,74,50000,40,9999,0.100000,99,0,0.000000,14,0.000000,27.757581,0.942190,99,99,0,0,0,0,0
9,99999,41,90000,74,50000,40,9999,0.100000,99,0,0.000000,14,1.000000,32.255970,5.501802,99,99,0,0,0,0,0
9,99999,42,90000,0,0,0,9999,0.100000,99,0,0.686650,15,1.000000,29.360673,3.982529,99,99,0,0,0,1,0
9,99999,43,90000,41,50000,40,9999,0.100000,99,0,0.000000,15,0.000000,21.327401,0.161207,99,99,0,0,0,0,0
9,99999,44,90000,99,60000,40,9999,0.100000,99,0,0.000000,14,1.000000,28.933893,2.686455,99,99,0,0,0,0,0
9,99999,45,90000,41,30000,40,9999,0.100000,99,0,0.000000,15,0.000000,25.014718,0.907920,99,99,0,0,0,0,0
9,99999,46,90000,74,50000,90,9999,0.100000,99,0,11.052220,14,1.000000,28.299042,7.767732,99,99,1,0,0,0,0
9,99999,47,90000,86,0,41,9999,0.100000,99,0,0.000000,15,6.000000,31.457050,12.819977,99,99,0,0,0,0,0
9,99999,48,90000,1,0,40,9999,0.100000,99,0,0.000000,14,1.000000,26.101148,8.488905,99,99,0,0,0,0,0
9,99999,49,90000,41,30000,40,9999,0.100000,99,0,0.000000,15,0.000000,35.120538,0.468362,99,99,0,0,0,0,0
9,99999,50,90000,63,10000,40,9999,0.100000,99,0,0.000000,14,0.000000,28.220399,1.320079,99,99,0,0,0,0,0
9,99999,51,90000,4,0,40,9999,0.100000,99,0,0.000000,15,0.000000,31.102702,0.435995,99,99,0,0,0,0,0
9,99999,52,90000,66,0,40,9999,0.100000,99,0,0.000000,14,2.000000,26.071826,18.169404,99,99,0,0,0,0,0
9,99999,53,90000,99,60000,40,9999,0.100000,99,0,0.000000,15,0.000000,28.038469,0.703901,99,99,0,0,0,0,0
9,99999,54,90000,3,80000,40,9999,0.100000,99,0,0.000000,15,0.000000,31.866549,1.056148,99,99,0,0,0,0,0
9,99999,55,90000,3,80000,40,9999,0.100000,99,0,0.000000,15,0.000000,32.140464,0.142168,99,99,0,0,0,0,0
9,99999,56,90000,80,0,40,9999,0.100000,99,0,0.000000,15,0.000000,32.510764,0.240313,99,99,0,0,0,0,0
9,99999,57,90000,99,60000,40,9999,0.100000,99,0,0.000000,14,0.000000,29.434235,15.564327,99,99,0,0,0,0,0
9,99999,58,90000,3,80000,42,9999,0.100000,99,0,0.000000,15,6.000000,22.822135,16.271101,99,99,0,0,0,0,0
9,99999,59,90000,86,0,40,9999,0.100000,99,0,0.000000,14,0.000000,17.959582,0.233356,99,99,0,0,0,0,0
9,99999,60,90000,80,0,42,9999,0.100000,99,0,0.000000,15,8.000000,31.396642,21.865937,99,99,0,0,0,0,0
9,99999,61,90000,86,0,40,9999,0.100000,99,0,0.000000,15,0.000000,31.196586,0.149802,99,99,0,0,0,0,0
9,99999,62,90000,4,0,41,9999,0.100000,99,0,0.000000,14,4.000000,28.332803,11.749497,99,99,0,0,0,0,0
9,99999,63,90000,43,30000,40,9999,0.135000,99,0,0.000000,15,0.000000,33.584924,0.999429,99,99,0,0,0,0,0
9,99999,64,90000,78,10000,40,9999,0.100000,99,0,0.000000,14,0.000000,28.007842,0.429416,99,99,0,0,0,0,0
9,99999,65,90000,63,10000,40,9999,0.100000,99,0,0.000000,15,0.000000,27.571989,0.582316,99,99,0,0,0,0,0
9,99999,66,90000,43,30000,43,9999,0.135000,99,0,0.000000,15,10.000000,28.800032,19.617325,99,99,0,0,0,0,0
9,99999,67,90000,6,10000,40,9999,0.100000,99,0,0.000000,14,2.000000,29.264293,5.374876,99,99,0,0,0,0,0
9,99999,68,90000,78,10000,0,9999,0.100000,99,0,0.140765,14,0.000000,25.681468,0.222905,99,99,0,0,0,1,0
9,99999,69,90000,80,0,0,9999,0.100000,99,0,3.960732,14,0.000000,32.694714,2.006020,99,99,0,1,0,0,0
9,99999,70,90000,41,30000,40,9999,0.100000,99,0,0.000000,15,0.000000,21.314942,0.761172,99,99,0,0,0,0,0
9,99999,71,90000,80,0,40,9999,0.100000,99,0,0.000000,15,1.000000,32.307450,17.416344,99,99,0,0,0,0,0
9,99999,72,90000,66,0,40,9999,0.100000,99,0,0.000000,15,0.000000,35.018583,2.542409,99,99,0,0,0,0,0
9,99999,73,90000,66,0,40,9999,0.100000,99,0,0.000000,15,0.000000,32.566229,1.957395,99,99,0,0,0,0,0
9,99999,74,90000,66,0,40,9999,0.100000,99,0,0.000000,14,2.000000,30.980656,13.526118,99,99,0,0,0,0,0
9,99999,75,90000,1,0,40,9999,0.100000,99,0,0.000000,15,0.000000,25.314750,0.133653,99,99,0,0,0,0,0
9,99999,76,90000,0,0,40,9999,0.100000,99,0,0.000000,14,0.000000,34.408974,0.233864,99,99,0,0,0,0,0
9,99999,77,90000,74,50000,40,9999,0.100000,99,0,0.000000,15,0.000000,26.265584,0.755457,99,99,0,0,0,0,0
9,99999,78,90000,43,30000,42,9999,0.135000,99,0,0.000000,14,6.000000,25.485345,11.433502,99,99,0,0,0,0,0
9,99999,79,90000,6,10000,91,9999,0.100000,99,0,8.842845,15,5.000000,29.101637,19.266816,99,99,1,0,0,0,0
9,99999,80,90000,63,10000,40,9999,0.100000,99,0,0.000000,14,1.000000,29.528503,7.563580,99,99,0,0,0,0,0
9,99999,81,90000,63,10000,40,9999,0.100000,99,0,0.000000,15,0.000000,31.729424,1.082184,99,99,0,0,0,0,0
9,99999,82,90000,0,0,0,9999,0.100000,99,0,6.209537,14,1.000000,27.718589,2.072947,99,99,0,1,0,0,0
9,99999,83,90000,4,0,41,9999,0.100000,99,0,0.000000,15,5.000000,25.736710,10.701965,99,99,0,0,0,0,0
9,99999,84,90000,86,0,0,9999,0.100000,99,0,0.051645,14,1.000000,21.260702,4.589603,99,99,0,0,0,0,1
9,99999,85,90000,0,0,41,9999,0.100000,99,0,0.000000,15,3.000000,23.440405,16.894268,99,99,0,0,0,0,0
9,99999,86,90000,43,30000,40,9999,0.135000,99,0,0.000000,15,0.000000,35.850009,0.210754,99,99,0,0,0,0,0
9,99999,87,90000,41,50000,40,9999,0.100000,99,0,0.000000,14,0.000000,25.027363,0.866315,99,99,0,0,0,0,0
9,99999,88,90000,0,0,90,9999,0.100000,99,0,2.507004,15,0.000000,26.415463,0.673930,99,99,1,0,0,0,0
9,99999,89,90000,6,10000,40,9999,0.100000,99,0,0.000000,15,1.000000,29.928190,1.564371,99,99,0,0,0,0,0
9,99999,90,90000,78,10000,40,9999,0.100000,99,0,0.000000,15,0.000000,27.356266,0.457198,99,99,0,0,0,0,0
9,99999,91,90000,6,10000,95,9999,0.100000,99,0,71.267717,14,13.000000,22.489214,20.009098,99,99,1,0,0,0,0
9,99999,92,90000,0,0,40,9999,0.100000,99,0,0.000000,15,2.000000,27.979467,12.146050,99,99,0,0,0,0,0
9,99999,93,90000,1,0,40,9999,0.100000,99,0,0.000000,15,0.000000,27.793070,0.779764,99,99,0,0,0,0,0
9,99999,94,90000,63,10000,40,9999,0.100000,99,0,0.000000,14,1.000000,26.809081,25.471246,99,99,0,0,0,0,0
9,99999,95,90000,6,10000,40,9999,0.100000,99,0,0.000000,15,0.000000,20.850150,1.612619,99,99,0,0,0,0,0
9,99999,96,90000,99,60000,41,9999,0.100000,99,0,0.000000,14,3.000000,23.326351,16.910428,99,99,0,0,0,0,0
9,99999,97,90000,0,0,40,9999,0.100000,99,0,0.000000,15,1.000000,26.645552,13.854424,99,99,0,0,0,0,0
9,99999,98,90000,41,30000,40,9999,0.100000,99,0,0.000000,14,0.000000,25.126273,0.159202,99,99,0,0,0,0,0
9,99999,99,90000,63,10000,40,9999,0.100000,99,0,0.000000,15,0.000000,31.499783,1.244308,99,99,0,0,0,0,0
10,109999,0,100000,41,30000,41,9999,0.100000,99,0,0.000000,15,4.000000,32.346264,19.713609,99,99,0,0,0,0,0
10,109999,1,100000,66,0,41,9999,0.100000,99,0,0.000000,15,5.000000,28.692463,14.149309,99,99,0,0,0,0,0
10,109999,2,100000,4,0,40,9999,0.100000,99,0,0.000000,15,0.000000,20.754343,3.242533,99,99,0,0,0,0,0
10,109999,3,100000,80,0,40,9999,0.100000,99,0,0.000000,15,0.000000,21.512420,1.254691,99,99,0,0,0,0,0
10,109999,4,100000,60,90000,0,9999,0.100000,99,0,0.718906,15,0.000000,24.773960,0.583374,99,99,0,0,0,0,1
10,109999,5,100000,41,50000,42,9999,0.100000,99,0,0.000000,15,8.000000,31.022287,13.331225,99,99,0,0,0,0,0
10,109999,6,100000,3,80000,40,9999,0.100000,99,0,0.000000,15,0.000000,26.888102,0.968483,99,99,0,0,0,0,0
10,109999,7,100000,78,10000,0,9999,0.100000,99,0,0.069616,15,0.000000,21.390401,0.148126,99,99,0,0,0,1,0
10,109999,8,100000,1,0,40,9999,0.100000,99,0,0.000000,15,0.000000,35.674562,0.955537,99,99,0,0,0,0,0
10,109999,9,100000,4,0,40,9999,0.100000,99,0,0.000000,15,1.000000,32.032630,5.181169,99,99,0,0,0,0,0
10,109999,10,100000,63,10000,40,9999,0.100000,99,0,0.000000,15,2.000000,24.008650,15.833100,99,99,0,0,0,0,0
10,109999,11,100000,60,90000,40,9999,0.100000,99,0,0.000000,15,0.000000,19.966630,0.245354,99,99,0,0,0,0,0
10,109999,12,100000,43,30000,40,9999,0.135000,99,0,0.000000,15,1.000000,27.465413,1.318078,99,99,0,0,0,0,0
10,109999,13,100000,41,30000,40,9999,0.100000,99,0,0.000000,15,1.000000,27.396766,1.418734,99,99,0,0,0,0,0
10,109999,14,100000,1,0,40,9999,0.100000,99,0,0.000000,15,0.000000,30.419229,0.140897,99,99,0,0,0,0,0
10,109999,15,100000,74,50000,40,9999,0.100000,99,0,0.000000,15,0.000000,24.387037,0.525370,99,99,0,0,0,0,0
10,109999,16,100000,74,50000,40,9999,0.100000,99,0,0.000000,15,2.000000,25.693638,15.254035,99,99,0,0,0,0,0
10,109999,17,100000,80,0,40,9999,0.100000,99,0,0.000000,15,0.000000,21.139478,1.647341,99,99,0,0,0,0,0
10,109999,18,100000,6,10000,40,9999,0.100000,99,0,0.000000,15,0.000000,30.129620,1.797870,99,99,0,0,0,0,0
10,109999,19,100000,3,80000,40,9999,0.100000,99,0,0.000000,15,0.000000,11.942705,0.009624,99,99,0,0,0,0,0
10,109999,20,100000,46,90000,40,9999,0.100000,99,0,0.000000,15,0.000000,35.558178,0.225138,99,99,0,0,0,0,0
10,109999,21,100000,86,0,40,9999,0.100000,99,0,0.000000,15,0.000000,29.512224,4.287887,99,99,0,0,0,0,0
10,109999,22,100000,63,10000,40,9999,0.100000,99,0,0.000000,15,1.000000,24.011633,16.918426,99,99,0,0,0,0,0
10,109999,23,100000,86,0,0,9999,0.100000,99,0,3.396934,15,1.000000,27.210663,1.550392,99,99,0,0,0,0,1
10,109999,24,100000,41,30000,40,9999,0.100000,99,0,0.000000,15,1.000000,28.000428,2.619820,99,99,0,0,0,0,0
10,109999,25,100000,0,0,41,9999,0.100000,99,0,0.000000,15,5.000000,28.508240,11.434475,99,99,0,0,0,0,0
10,109999,26,100000,3,80000,40,9999,0.100000,99,0,0.000000,15,1.000000,24.839078,11.087869,99,99,0,0,0,0,0
10,109999,27,100000,41,30000,41,9999,0.100000,99,0,0.000000,15,3.000000,20.900951,14.613363,99,99,0,0,0,0,0
10,109999,28,100000,63,10000,40,9999,0.100000,99,0,0.000000,15,0.000000,30.117772,0.136800,99,99,0,0,0,0,0
10,109999,29,100000,3,80000,3,9999,0.100000,99,0,0.017188,15,8.000000,19.883717,16.875641,99,99,0,0,0,0,1
10,109999,30,100000,74,50000,0,9999,0.100000,99,0,0.777555,15,0.000000,31.971856,0.456246,99,99,0,0,0,1,0
10,109999,31,100000,41,50000,40,9999,0.100000,99,0,0.000000,15,1.000000,29.779090,12.490810,99,99,0,0,0,0,0
10,109999,32,100000,78,10000,40,9999,0.100000,99,0,0.000000,15,0.000000,35.294561,0.208401,99,99,0,0,0,0,0
10,109999,33,100000,74,50000,40,9999,0.100000,99,0,0.000000,15,0.000000,26.658842,1.042831,99,99,0,0,0,0,0
10,109999,34,100000,41,30000,40,9999,0.100000,99,0,0.000000,15,2.000000,27.770658,12.133364,99,99,0,0,0,0,0
10,109999,35,100000,80,0,40,9999,0.100000,99,0,0.000000,15,0.000000,18.805037,0.239628,99,99,0,0,0,0,0
10,109999,36,100000,3,80000,40,9999,0.100000,99,0,0.000000,15,2.000000,24.876080,11.209079,99,99,0,0,0,0,0
10,109999,37,100000,0,0,40,9999,0.100000,99,0,0.000000,15,0.000000,24.977995,1.521409,99,99,0,0,0,0,0
10,109999,38,100000,66,0,41,9999,0.100000,99,0,0.000000,15,4.000000,25.339611,17.415282,99,99,0,0,0,0,0
10,109999,39,100000,43,30000,40,9999,0.135000,99,0,0.000000,15,0.000000,24.921913,1.149225,99,99,0,0,0,0,0
10,109999,40,100000,46,90000,40,9999,0.100000,99,0,0.000000,15,1.000000,27.263234,1.344470,99,99,0,0,0,0,0
10,109999,41,100000,46,90000,40,9999,0.100000,99,0,0.000000,15,1.000000,31.573601,4.115666,99,99,0,0,0,0,0
10,109999,42,100000,63,10000,41,9999,0.100000,99,0,0.000000,15,4.000000,29.028308,14.881429,99,99,0,0,0,0,0
10,109999,43,100000,60,90000,40,9999,0.100000,99,0,0.000000,15,0.000000,21.303091,0.153221,99,99,0,0,0,0,0
10,109999,44,100000,78,10000,41,9999,0.100000,99,0,0.000000,15,4.000000,28.441841,16.425411,99,99,0,0,0,0,0
10,109999,45,100000,3,80000,40,9999,0.100000,99,0,0.000000,15,0.000000,24.815100,0.807908,99,99,0,0,0,0,0
10,109999,46,100000,46,90000,40,9999,0.100000,99,0,0.000000,15,3.000000,28.927418,13.732584,99,99,0,0,0,0,0
10,109999,47,100000,74,50000,40,9999,0.100000,99,0,0.000000,15,0.000000,33.352550,0.883811,99,99,0,0,0,0,0
10,109999,48,100000,74,50000,41,9999,0.100000,99,0,0.000000,15,4.000000,25.977817,10.389309,99,99,0,0,0,0,0
10,109999,49,100000,0,0,40,9999,0.100000,99,0,0.000000,15,0.000000,35.173112,0.455964,99,99,0,0,0,0,0
10,109999,50,100000,0,0,40,9999,0.100000,99,0,0.000000,15,2.000000,28.806896,11.149842,99,99,0,0,0,0,0
10,109999,51,100000,0,0,40,9999,0.100000,99,0,0.000000,15,0.000000,31.128702,0.402123,99,99,0,0,0,0,0
10,109999,52,100000,41,30000,41,9999,0.100000,99,0,0.000000,15,4.000000,26.936295,15.613511,99,99,0,0,0,0,0
10,109999,53,100000,41,50000,40,9999,0.100000,99,0,0.000000,15,0.000000,27.980951,1.164489,99,99,0,0,0,0,0
10,109999,54,100000,4,0,40,9999,0.100000,99,0,0.000000,15,0.000000,31.628201,1.350927,99,99,0,0,0,0,0
10,109999,55,100000,78,10000,40,9999,0.100000,99,0,0.000000,15,0.000000,32.167578,0.782331,99,99,0,0,0,0,0
10,109999,56,100000,66,0,40,9999,0.100000,99,0,0.000000,15,0.000000,32.511914,0.246988,99,99,0,0,0,0,0
10,109999,57,100000,66,0,41,9999,0.100000,99,0,0.000000,15,6.000000,29.747693,16.527200,99,99,0,0,0,0,0
10,109999,58,100000,41,50000,41,9999,0.100000,99,0,0.000000,15,4.000000,25.227372,17.420077,99,99,0,0,0,0,0
10,109999,59,100000,46,90000,40,9999,0.100000,99,0,0.000000,15,0.000000,17.958006,0.241197,99,99,0,0,0,0,0
10,109999,60,100000,4,0,40,9999,0.100000,99,0,0.000000,15,2.000000,31.128366,10.548606,99,99,0,0,0,0,0
10,109999,61,100000,66,0,40,9999,0.100000,99,0,0.000000,15,0.000000,31.217389,0.131215,99,99,0,0,0,0,0
10,109999,62,100000,6,10000,0,9999,0.100000,99,0,0.283592,15,0.000000,29.400878,1.454944,99,99,0,0,0,1,0
10,109999,63,100000,74,50000,40,9999,0.100000,99,0,0.000000,15,0.000000,33.963642,0.932961,99,99,0,0,0,0,0
10,109999,64,100000,6,10000,0,9999,0.100000,99,0,6.168906,15,1.000000,27.770645,1.404590,99,99,0,0,0,0,1
10,109999,65,100000,60,90000,40,9999,0.100000,99,0,0.000000,15,0.000000,27.586085,1.296491,99,99,0,0,0,0,0
10,109999,66,100000,43,30000,40,9999,0.135000,99,0,0.000000,15,1.000000,28.251709,3.060372,99,99,0,0,0,0,0
10,109999,67,100000,63,10000,40,9999,0.100000,99,0,0.000000,15,2.000000,27.166739,15.651380,99,99,0,0,0,0,0
10,109999,68,100000,41,30000,0,9999,0.100000,99,0,0.040712,15,0.000000,25.774873,0.168034,99,99,0,0,0,1,0
10,109999,69,100000,3,80000,0,9999,0.100000,99,0,3.830494,15,0.000000,32.393045,1.933868,99,99,0,1,0,0,0
10,109999,70,100000,46,90000,40,9999,0.100000,99,0,0.000000,15,0.000000,21.129383,0.496542,99,99,0,0,0,0,0
10,109999,71,100000,6,10000,90,9999,0.100000,99,0,0.764597,15,0.000000,30.632544,10.895244,99,99,1,0,0,0,0
10,109999,72,100000,3,80000,40,9999,0.100000,99,0,0.000000,15,0.000000,35.055250,2.670894,99,99,0,0,0,0,0
10,109999,73,100000,3,80000,40,9999,0.100000,99,0,0.000000,15,0.000000,32.468565,1.864852,99,99,0,0,0,0,0
10,109999,74,100000,74,50000,40,9999,0.100000,99,0,0.000000,15,2.000000,30.422066,12.947263,99,99,0,0,0,0,0
10,109999,75,100000,78,10000,40,9999,0.100000,99,0,0.000000,15,0.000000,25.377766,0.108298,99,99,0,0,0,0,0
10,109999,76,100000,41,50000,40,9999,0.100000,99,0,0.000000,15,0.000000,34.409590,0.256611,99,99,0,0,0,0,0
10,109999,77,100000,0,0,40,9999,0.100000,99,0,0.000000,15,0.000000,26.756376,0.827195,99,99,0,0,0,0,0
10,109999,78,100000,74,50000,40,9999,0.100000,99,0,0.000000,15,0.000000,31.760592,0.191090,99,99,0,0,0,0,0
10,109999,79,100000,86,0,41,9999,0.100000,99,0,0.000000,15,6.000000,30.615345,9.473674,99,99,0,0,0,0,0
10,109999,80,100000,46,90000,40,9999,0.100000,99,0,0.000000,15,0.000000,29.983228,3.092342,99,99,0,0,0,0,0
10,109999,81,100000,66,0,40,9999,0.100000,99,0,0.000000,15,0.000000,31.746794,0.939584,99,99,0,0,0,0,0
10,109999,82,100000,80,0,0,9999,0.100000,99,0,0.135598,15,0.000000,28.063745,0.205521,99,99,0,1,0,0,0
10,109999,83,100000,74,50000,41,9999,0.100000,99,0,0.000000,15,4.000000,31.294819,7.393194,99,99,0,0,0,0,0
10,109999,84,100000,43,30000,0,9999,0.135000,99,0,0.148548,15,0.000000,20.300007,0.554044,99,99,0,0,0,0,1
10,109999,85,100000,43,30000,40,9999,0.135000,99,0,0.000000,15,2.000000,21.192253,15.687588,99,99,0,0,0,0,0
10,109999,86,100000,74,50000,40,9999,0.100000,99,0,0.000000,15,0.000000,35.850590,0.223580,99,99,0,0,0,0,0
10,109999,87,100000,78,10000,40,9999,0.100000,99,0,0.000000,15,0.000000,24.866268,0.812956,99,99,0,0,0,0,0
10,109999,88,100000,78,10000,90,9999,0.100000,99,0,2.884244,15,0.000000,26.904538,0.841666,99,99,1,0,0,0,0
10,109999,89,100000,86,0,40,9999,0.100000,99,0,0.000000,15,0.000000,29.728687,0.527026,99,99,0,0,0,0,0
10,109999,90,100000,6,10000,40,9999,0.100000,99,0,0.000000,15,1.000000,27.083385,1.310012,99,99,0,0,0,0,0
10,109999,91,100000,43,30000,40,9999,0.135000,99,0,0.000000,15,2.000000,30.312147,16.956923,99,99,0,0,0,0,0
10,109999,92,100000,63,10000,40,9999,0.100000,99,0,0.000000,15,2.000000,25.640104,13.528888,99,99,0,0,0,0,0
10,109999,93,100000,78,10000,40,9999,0.100000,99,0,0.000000,15,0.000000,27.774640,1.162690,99,99,0,0,0,0,0
10,109999,94,100000,3,80000,40,9999,0.100000,99,0,0.000000,15,1.000000,27.039994,5.829648,99,99,0,0,0,0,0
10,109999,95,100000,78,10000,40,9999,0.100000,99,0,0.000000,15,0.000000,20.766694,1.394782,99,99,0,0,0,0,0
10,109999,96,100000,3,80000,40,9999,0.100000,99,0,0.000000,15,2.000000,21.081144,15.664652,99,99,0,0,0,0,0
10,109999,97,100000,41,50000,40,9999,0.100000,99,0,0.000000,15,2.000000,26.796582,9.422041,99,99,0,0,0,0,0
10,109999,98,100000,46,90000,40,9999,0.100000,99,0,0.000000,15,0.000000,25.172228,0.145343,99,99,0,0,0,0,0
10,109999,99,100000,63,10000,40,9999,0.100000,99,0,0.000000,15,0.000000,31.194547,1.330984,99,99,0,0,0,0,0
11,119999,0,110000,4,0,41,9999,0.100000,99,0,0.000000,15,4.000000,28.523420,17.561999,99,99,0,0,0,0,0
11,119999,1,110000,46,90000,40,9999,0.100000,99,0,0.000000,15,2.000000,23.555276,12.874263,99,99,0,0,0,0,0
11,119999,2,110000,63,10000,0,9999,0.100000,99,0,0.023989,15,0.000000,20.679414,0.356056,99,99,0,0,0,0,1
11,119999,3,110000,6,10000,40,9999,0.100000,99,0,0.000000,16,1.000000,22.321671,1.511123,99,99,0,0,0,0,0
11,119999,4,110000,29,100000,0,9999,0.100000,99,0,0.677897,16,0.000000,24.486134,0.611296,99,99,0,0,0,0,1
11,119999,5,110000,43,30000,40,9999,0.135000,99,0,0.000000,15,1.000000,31.028420,1.705481,99,99,0,0,0,0,0
11,119999,6,110000,74,50000,90,9999,0.100000,99,0,0.000000,15,1.000000,27.449089,2.033192,99,99,1,0,0,0,0
11,119999,7,110000,41,30000,0,9999,0.100000,99,0,0.128808,16,0.000000,21.385675,0.327734,99,99,0,0,0,1,0
11,119999,8,110000,74,50000,40,9999,0.100000,99,0,0.000000,16,0.000000,35.236168,0.940547,99,99,0,0,0,0,0
11,119999,9,110000,86,0,40,9999,0.100000,99,0,0.000000,16,1.000000,32.999797,5.860319,99,99,0,0,0,0,0
11,119999,10,110000,0,0,40,9999,0.100000,99,0,0.000000,15,0.000000,23.137884,2.806148,99,99,0,0,0,0,0
11,119999,11,110000,43,30000,40,9999,0.135000,99,0,0.000000,16,0.000000,19.963929,0.220816,99,99,0,0,0,0,0
11,119999,12,110000,6,10000,40,9999,0.100000,99,0,0.000000,15,1.000000,26.931846,4.178126,99,99,0,0,0,0,0
11,119999,13,110000,41,30000,1,9999,0.100000,99,0,14.674881,16,3.000000,28.282242,10.818605,99,99,0,0,0,0,1
11,119999,14,110000,46,90000,40,9999,0.100000,99,0,0.000000,16,0.000000,30.419182,0.136843,99,99,0,0,0,0,0
11,119999,15,110000,3,80000,40,9999,0.100000,99,0,0.000000,15,0.000000,24.485441,0.356904,99,99,0,0,0,0,0
11,119999,16,110000,66,0,40,9999,0.100000,99,0,0.000000,16,1.000000,23.632776,13.387841,99,99,0,0,0,0,0
11,119999,17,110000,78,10000,40,9999,0.100000,99,0,0.000000,15,0.000000,21.104351,1.567427,99,99,0,0,0,0,0
11,119999,18,110000,43,30000,40,9999,0.135000,99,0,0.000000,16,0.000000,29.997969,1.740955,99,99,0,0,0,0,0
11,119999,19,110000,86,0,40,9999,0.100000,99,0,0.000000,16,0.000000,11.942842,0.009608,99,99,0,0,0,0,0
11,119999,20,110000,41,50000,40,9999,0.100000,99,0,0.000000,15,0.000000,35.559265,0.226762,99,99,0,0,0,0,0
11,119999,21,110000,86,0,40,9999,0.100000,99,0,0.000000,16,0.000000,29.665621,4.220513,99,99,0,0,0,0,0
11,119999,22,110000,78,10000,41,9999,0.100000,99,0,0.000000,15,4.000000,24.152929,10.662114,99,99,0,0,0,0,0
11,119999,23,110000,41,30000,1,9999,0.100000,99,0,14.674881,16,3.000000,28.256030,13.051427,99,99,0,0,0,0,1
11,119999,24,110000,66,0,0,9999,0.100000,99,0,1.308823,15,1.000000,27.348900,1.901680,99,99,0,0,0,0,1
11,119999,25,110000,0,0,40,9999,0.100000,99,0,0.000000,16,0.000000,32.861313,1.890583,99,99,0,0,0,0,0
11,119999,26,110000,86,0,40,9999,0.100000,99,0,0.000000,15,2.000000,24.934832,12.321529,99,99,0,0,0,0,0
11,119999,27,110000,78,10000,41,9999,0.100000,99,0,0.000000,16,4.000000,23.360362,13.906119,99,99,0,0,0,0,0
11,119999,28,110000,78,10000,40,9999,0.100000,99,0,0.000000,16,0.000000,30.117679,0.133699,99,99,0,0,0,0,0
11,119999,29,110000,60,90000,0,9999,0.100000,99,0,0.001115,16,0.000000,13.640640,0.067478,99,99,0,0,0,0,1
11,119999,30,110000,43,30000,0,9999,0.135000,99,0,0.289697,16,0.000000,32.148081,0.422956,99,99,0,0,0,1,0
11,119999,31,110000,86,0,40,9999,0.100000,99,0,0.000000,16,3.000000,30.630679,11.456263,99,99,0,0,0,0,0
11,119999,32,110000,80,0,40,9999,0.100000,99,0,0.000000,16,0.000000,35.326094,0.231669,99,99,0,0,0,0,0
11,119999,33,110000,41,30000,40,9999,0.100000,99,0,0.000000,16,0.000000,27.215180,2.036617,99,99,0,0,0,0,0
11,119999,34,110000,80,0,40,9999,0.100000,99,0,0.000000,16,1.000000,25.516758,15.820402,99,99,0,0,0,0,0
11,119999,35,110000,43,30000,40,9999,0.135000,99,0,0.000000,16,0.000000,18.803287,0.238104,99,99,0,0,0,0,0
11,119999,36,110000,78,10000,42,9999,0.100000,99,0,0.000000,16,5.000000,23.160518,12.823546,99,99,0,0,0,0,0
11,119999,37,110000,0,0,40,9999,0.100000,99,0,0.000000,16,0.000000,24.820842,1.502566,99,99,0,0,0,0,0
11,119999,38,110000,60,90000,41,9999,0.100000,99,0,0.000000,16,4.000000,27.400510,5.860787,99,99,0,0,0,0,0
11,119999,39,110000,4,0,40,9999,0.100000,99,0,0.000000,16,0.000000,24.726842,1.064974,99,99,0,0,0,0,0
11,119999,40,110000,66,0,40,9999,0.100000,99,0,0.000000,16,1.000000,26.699171,1.282323,99,99,0,0,0,0,0
11,119999,41,110000,0,0,40,9999,0.100000,99,0,0.000000,16,0.000000,32.544985,1.011312,99,99,0,0,0,0,0
11,119999,42,110000,78,10000,40,9999,0.100000,99,0,0.000000,16,0.000000,32.165513,0.995676,99,99,0,0,0,0,0
11,119999,43,110000,0,0,40,9999,0.100000,99,0,0.000000,16,0.000000,21.288326,0.224460,99,99,0,0,0,0,0
11,119999,44,110000,74,50000,41,9999,0.100000,99,0,0.000000,16,5.000000,24.811541,9.520775,99,99,0,0,0,0,0
11,119999,45,110000,41,50000,40,9999,0.100000,99,0,0.000000,16,0.000000,24.554336,0.697210,99,99,0,0,0,0,0
11,119999,46,110000,78,10000,41,9999,0.100000,99,0,0.000000,16,5.000000,29.186541,17.000334,99,99,0,0,0,0,0
11,119999,47,110000,78,10000,40,9999,0.100000,99,0,0.000000,16,0.000000,33.673416,0.857290,99,99,0,0,0,0,0
11,119999,48,110000,78,10000,41,9999,0.100000,99,0,0.000000,16,4.000000,28.250116,15.484965,99,99,0,0,0,0,0
11,119999,49,110000,6,10000,40,9999,0.100000,99,0,0.000000,16,0.000000,35.204410,0.574765,99,99,0,0,0,0,0
11,119999,50,110000,4,0,41,9999,0.100000,99,0,0.000000,16,5.000000,26.458489,14.593838,99,99,0,0,0,0,0
11,119999,51,110000,4,0,40,9999,0.100000,99,0,0.000000,16,0.000000,31.145527,0.429380,99,99,0,0,0,0,0
11,119999,52,110000,74,50000,40,9999,0.100000,99,0,0.000000,16,2.000000,23.275077,12.190225,99,99,0,0,0,0,0
11,119999,53,110000,78,10000,0,9999,0.100000,99,0,14.669313,16,2.000000,28.407423,13.800238,99,99,0,0,0,0,1
11,119999,54,110000,0,0,40,9999,0.100000,99,0,0.000000,16,0.000000,31.313916,1.390370,99,99,0,0,0,0,0
11,119999,55,110000,41,30000,40,9999,0.100000,99,0,0.000000,16,0.000000,32.366327,0.705528,99,99,0,0,0,0,0
11,119999,56,110000,41,30000,40,9999,0.100000,99,0,0.000000,16,0.000000,32.512635,0.247431,99,99,0,0,0,0,0
11,119999,57,110000,78,10000,40,9999,0.100000,99,0,0.000000,15,2.000000,23.874997,15.452544,99,99,0,0,0,0,0
11,119999,58,110000,46,90000,41,9999,0.100000,99,0,0.000000,16,4.000000,27.290886,5.790967,99,99,0,0,0,0,0
11,119999,59,110000,41,30000,40,9999,0.100000,99,0,0.000000,16,0.000000,17.957391,0.235870,99,99,0,0,0,0,0
11,119999,60,110000,46,90000,40,9999,0.100000,99,0,0.000000,16,2.000000,33.854227,17.803249,99,99,0,0,0,0,0
11,119999,61,110000,3,80000,40,9999,0.100000,99,0,0.000000,16,0.000000,31.234308,0.136276,99,99,0,0,0,0,0
11,119999,62,110000,43,30000,0,9999,0.135000,99,0,0.124791,16,0.000000,29.538056,0.939662,99,99,0,0,0,1,0
11,119999,63,110000,29,100000,40,9999,0.100000,99,0,0.000000,16,0.000000,34.370219,1.187048,99,99,0,0,0,0,0
11,119999,64,110000,80,0,40,9999,0.100000,99,0,0.000000,16,1.000000,27.213811,2.680702,99,99,0,0,0,0,0
11,119999,65,110000,43,30000,1,9999,0.135000,99,0,14.674881,16,3.000000,28.323424,9.787764,99,99,0,0,0,0,1
11,119999,66,110000,41,30000,2,9999,0.100000,99,0,0.666198,16,8.000000,27.392288,12.848211,99,99,0,1,0,0,0
11,119999,67,110000,60,90000,41,9999,0.100000,99,0,0.000000,16,3.000000,25.051436,18.228730,99,99,0,0,0,0,0
11,119999,68,110000,4,0,0,9999,0.100000,99,0,0.012645,16,0.000000,25.838825,0.140865,99,99,0,0,0,1,0
11,119999,69,110000,0,0,40,9999,0.100000,99,0,0.000000,16,0.000000,32.629247,1.573426,99,99,0,0,0,0,0
11,119999,70,110000,6,10000,40,9999,0.100000,99,0,0.000000,16,0.000000,21.087189,0.518545,99,99,0,0,0,0,0
11,119999,71,110000,6,10000,90,9999,0.100000,99,0,16.155316,16,3.000000,30.540678,12.129760,99,99,1,0,0,0,0
11,119999,72,110000,0,0,40,9999,0.100000,99,0,0.000000,16,0.000000,35.082949,1.804076,99,99,0,0,0,0,0
11,119999,73,110000,60,90000,41,9999,0.100000,99,0,0.000000,16,4.000000,32.575516,11.812174,99,99,0,0,0,0,0
11,119999,74,110000,41,50000,40,9999,0.100000,99,0,0.000000,16,3.000000,28.672588,14.081913,99,99,0,0,0,0,0
11,119999,75,110000,66,0,40,9999,0.100000,99,0,0.000000,16,0.000000,25.420127,0.101770,99,99,0,0,0,0,0
11,119999,76,110000,86,0,40,9999,0.100000,99,0,0.000000,16,0.000000,34.406592,0.228715,99,99,0,0,0,0,0
11,119999,77,110000,63,10000,40,9999,0.100000,99,0,0.000000,16,0.000000,27.313647,1.999276,99,99,0,0,0,0,0
11,119999,78,110000,41,50000,40,9999,0.100000,99,0,0.000000,16,0.000000,31.778353,0.137071,99,99,0,0,0,0,0
11,119999,79,110000,43,30000,40,9999,0.135000,99,0,0.000000,16,0.000000,32.290204,0.150122,99,99,0,0,0,0,0
