generation,iteration,robot,birthday,ancestor_id,ancestor_birthday,cell_id,age,sigma,maps,genomes,fitness,cells_in_map,dist_max,dist_pot_max,dist_total,com_rx,com_tx,obj_group1,obj_group2,obj_group3,obj_group4,obj_group5
0,9999,0,0,0,0,91,9999,0.100000,99,99,25.175774,0,4.000000,30.932272,7.891323,99,99,1,0,0,0,0
0,9999,1,0,1,0,40,9999,0.100000,99,99,0.000000,0,0.000000,20.600000,5.756413,99,99,0,0,0,0,0
0,9999,2,0,2,0,0,9999,0.100000,99,99,0.001384,0,0.000000,23.576819,1.952600,99,99,0,0,0,0,1
0,9999,3,0,3,0,40,9999,0.100000,99,99,0.000000,0,1.000000,23.815933,10.171703,99,99,0,0,0,0,0
0,9999,4,0,4,0,41,9999,0.100000,99,99,0.000000,0,4.000000,20.062306,15.484776,99,99,0,0,0,0,0
0,9999,5,0,5,0,42,9999,0.100000,99,99,30.315429,0,7.000000,24.322360,21.646909,99,99,1,1,0,0,0
0,9999,6,0,6,0,40,9999,0.100000,99,99,0.000000,0,1.000000,18.127115,7.090706,99,99,0,0,0,0,0
0,9999,7,0,7,0,0,9999,0.100000,99,99,0.086140,0,0.000000,23.263861,0.738815,99,99,0,0,0,1,0
0,9999,8,0,8,0,40,9999,0.100000,99,99,0.000000,0,3.000000,31.896118,19.332241,99,99,0,0,0,0,0
0,9999,9,0,9,0,40,9999,0.100000,99,99,0.000000,0,1.000000,29.691877,2.603912,99,99,0,0,0,0,0
0,9999,10,0,10,0,40,9999,0.100000,99,99,0.000000,0,1.000000,26.600301,17.815581,99,99,0,0,0,0,0
0,9999,11,0,11,0,0,9999,0.100000,99,99,0.005221,0,1.000000,26.468455,2.797874,99,99,0,0,0,1,0
0,9999,12,0,12,0,0,9999,0.100000,99,99,0.040312,0,0.000000,27.620726,5.227721,99,99,0,0,0,0,1
0,9999,13,0,13,0,40,9999,0.100000,99,99,0.000000,0,3.000000,28.609675,17.021164,99,99,0,0,0,0,0
0,9999,14,0,14,0,91,9999,0.100000,99,99,16.763248,0,3.000000,24.426711,9.358001,99,99,1,0,0,0,0
0,9999,15,0,15,0,40,9999,0.100000,99,99,0.000000,0,2.000000,21.475626,16.397808,99,99,0,0,0,0,0
0,9999,16,0,16,0,0,9999,0.100000,99,99,0.467294,0,1.000000,21.384639,7.527612,99,99,0,0,1,0,0
0,9999,17,0,17,0,40,9999,0.100000,99,99,0.000000,0,1.000000,18.542833,3.919476,99,99,0,0,0,0,0
0,9999,18,0,18,0,40,9999,0.100000,99,99,0.000000,0,1.000000,31.612265,5.470774,99,99,0,0,0,0,0
0,9999,19,0,19,0,40,9999,0.100000,99,99,0.000000,0,0.000000,13.104835,6.669475,99,99,0,0,0,0,0
0,9999,20,0,20,0,40,9999,0.100000,99,99,0.000000,0,1.000000,32.203603,14.460952,99,99,0,0,0,0,0
0,9999,21,0,21,0,1,9999,0.100000,99,99,27.196245,0,4.000000,28.420098,10.420366,99,99,0,1,0,0,0
0,9999,22,0,22,0,41,9999,0.100000,99,99,0.000000,0,3.000000,23.282319,8.446654,99,99,0,0,0,0,0
0,9999,23,0,23,0,0,9999,0.100000,99,99,0.005835,0,1.000000,27.846568,2.239504,99,99,0,0,0,0,1
0,9999,24,0,24,0,0,9999,0.100000,99,99,0.573557,0,0.000000,29.515123,0.716141,99,99,0,0,0,1,0
0,9999,25,0,25,0,40,9999,0.100000,99,99,0.000000,0,0.000000,32.740712,14.640040,99,99,0,0,0,0,0
0,9999,26,0,26,0,40,9999,0.100000,99,99,0.000000,0,1.000000,32.016585,9.536392,99,99,0,0,0,0,0
0,9999,27,0,27,0,40,9999,0.100000,99,99,0.000000,0,1.000000,28.049931,7.363832,99,99,0,0,0,0,0
0,9999,28,0,28,0,92,9999,0.100000,99,99,25.635491,0,5.000000,23.559498,15.234808,99,99,1,0,0,0,0
0,9999,29,0,29,0,40,9999,0.100000,99,99,0.000000,0,0.000000,14.535416,3.227564,99,99,0,0,0,0,0
0,9999,30,0,30,0,40,9999,0.100000,99,99,0.000000,0,2.000000,27.586643,9.556093,99,99,0,0,0,0,0
0,9999,31,0,31,0,40,9999,0.100000,99,99,0.000000,0,0.000000,34.253865,1.412574,99,99,0,0,0,0,0
0,9999,32,0,32,0,40,9999,0.100000,99,99,0.000000,0,1.000000,27.713836,11.940674,99,99,0,0,0,0,0
0,9999,33,0,33,0,40,9999,0.100000,99,99,0.000000,0,0.000000,20.412012,0.833657,99,99,0,0,0,0,0
0,9999,34,0,34,0,40,9999,0.100000,99,99,0.000000,0,2.000000,31.300939,14.679626,99,99,0,0,0,0,0
0,9999,35,0,35,0,42,9999,0.100000,99,99,0.000000,0,5.000000,21.065261,17.358878,99,99,0,0,0,0,0
0,9999,36,0,36,0,40,9999,0.100000,99,99,0.000000,0,0.000000,26.650826,7.963766,99,99,0,0,0,0,0
0,9999,37,0,37,0,40,9999,0.100000,99,99,0.000000,0,1.000000,21.820745,15.068288,99,99,0,0,0,0,0
0,9999,38,0,38,0,40,9999,0.100000,99,99,0.000000,0,0.000000,22.742449,0.786998,99,99,0,0,0,0,0
0,9999,39,0,39,0,40,9999,0.100000,99,99,0.000000,0,1.000000,19.529428,9.531890,99,99,0,0,0,0,0
0,9999,40,0,40,0,40,9999,0.100000,99,99,0.000000,0,2.000000,26.337686,16.614225,99,99,0,0,0,0,0
0,9999,41,0,41,0,0,9999,0.100000,99,99,0.228684,0,2.000000,29.465867,14.045280,99,99,0,0,1,0,0
0,9999,42,0,42,0,40,9999,0.100000,99,99,0.121258,0,3.000000,29.006578,11.301964,99,99,0,0,0,0,0
0,9999,43,0,43,0,91,9999,0.100000,99,99,13.210360,0,3.000000,19.481034,10.993470,99,99,1,0,0,0,0
0,9999,44,0,44,0,40,9999,0.100000,99,99,0.000000,0,2.000000,21.734564,17.083382,99,99,0,0,0,0,0
0,9999,45,0,45,0,40,9999,0.100000,99,99,0.000000,0,0.000000,21.180340,8.058883,99,99,0,0,0,0,0
0,9999,46,0,46,0,4,9999,0.100000,99,99,40.873351,0,8.000000,18.919641,8.916152,99,99,0,0,1,0,0
0,9999,47,0,47,0,0,9999,0.100000,99,99,0.019497,0,0.000000,34.610973,1.191283,99,99,0,0,1,0,0
0,9999,48,0,48,0,40,9999,0.100000,99,99,0.000000,0,2.000000,31.552262,6.731706,99,99,0,0,0,0,0
0,9999,49,0,49,0,40,9999,0.100000,99,99,0.000000,0,2.000000,31.920994,17.470548,99,99,0,0,0,0,0
0,9999,50,0,50,0,41,9999,0.100000,99,99,0.000000,0,2.000000,18.683317,11.833092,99,99,0,0,0,0,0
0,9999,51,0,51,0,98,9999,0.100000,99,99,73.331791,0,14.000000,16.030755,23.959282,99,99,1,0,0,0,0
0,9999,52,0,52,0,40,9999,0.100000,99,99,0.000000,0,2.000000,20.242070,6.225793,99,99,0,0,0,0,0
0,9999,53,0,53,0,40,9999,0.100000,99,99,0.000000,0,0.000000,25.171684,8.240015,99,99,0,0,0,0,0
0,9999,54,0,54,0,40,9999,0.100000,99,99,0.000000,0,1.000000,27.962739,6.102375,99,99,0,0,0,0,0
0,9999,55,0,55,0,40,9999,0.100000,99,99,0.000000,0,0.000000,25.564704,0.598557,99,99,0,0,0,0,0
0,9999,56,0,56,0,40,9999,0.100000,99,99,0.000000,0,2.000000,28.436106,6.340659,99,99,0,0,0,0,0
0,9999,57,0,57,0,40,9999,0.100000,99,99,0.000000,0,2.000000,21.928118,3.288058,99,99,0,0,0,0,0
0,9999,58,0,58,0,44,9999,0.100000,99,99,0.000000,0,9.000000,18.232861,14.572352,99,99,0,0,0,0,0
0,9999,59,0,59,0,40,9999,0.100000,99,99,0.000000,0,1.000000,18.876936,13.203855,99,99,0,0,0,0,0
0,9999,60,0,60,0,40,9999,0.100000,99,99,0.000000,0,2.000000,35.326863,4.158577,99,99,0,0,0,0,0
0,9999,61,0,61,0,40,9999,0.100000,99,99,0.000000,0,1.000000,21.669190,10.032438,99,99,0,0,0,0,0
0,9999,62,0,62,0,40,9999,0.100000,99,99,0.000000,0,1.000000,29.860010,6.917288,99,99,0,0,0,0,0
0,9999,63,0,63,0,93,9999,0.100000,99,99,64.839148,0,11.000000,27.084789,23.333752,99,99,1,0,0,0,0
0,9999,64,0,64,0,40,9999,0.100000,99,99,0.000000,0,2.000000,24.749237,7.142014,99,99,0,0,0,0,0
0,9999,65,0,65,0,40,9999,0.100000,99,99,0.000000,0,0.000000,27.494285,0.727002,99,99,0,0,0,0,0
0,9999,66,0,66,0,91,9999,0.100000,99,99,35.542536,0,5.000000,29.597194,11.158183,99,99,2,0,0,0,0
0,9999,67,0,67,0,40,9999,0.100000,99,99,0.000000,0,0.000000,28.181584,0.593652,99,99,0,0,0,0,0
0,9999,68,0,68,0,0,9999,0.100000,99,99,0.004196,0,0.000000,25.061540,0.697471,99,99,0,0,0,1,0
0,9999,69,0,69,0,41,9999,0.100000,99,99,0.000000,0,4.000000,27.799157,16.026601,99,99,0,0,0,0,0
0,9999,70,0,70,0,40,9999,0.100000,99,99,0.000000,0,1.000000,22.347064,8.750379,99,99,0,0,0,0,0
0,9999,71,0,71,0,40,9999,0.100000,99,99,0.000000,0,0.000000,33.705906,3.410256,99,99,0,0,0,0,0
0,9999,72,0,72,0,41,9999,0.100000,99,99,0.000000,0,3.000000,24.417004,11.461236,99,99,0,0,0,0,0
0,9999,73,0,73,0,0,9999,0.100000,99,99,1.356440,0,0.000000,29.843639,1.282883,99,99,0,1,0,0,0
0,9999,74,0,74,0,1,9999,0.100000,99,99,0.592491,0,3.000000,25.756269,4.263704,99,99,0,1,0,0,0
0,9999,75,0,75,0,41,9999,0.100000,99,99,0.000000,0,3.000000,27.249058,12.247811,99,99,0,0,0,0,0
0,9999,76,0,76,0,41,9999,0.100000,99,99,0.000000,0,4.000000,29.553260,17.388714,99,99,0,0,0,0,0
0,9999,77,0,77,0,94,9999,0.100000,99,99,47.293417,0,9.000000,19.321481,15.172841,99,99,1,0,0,0,0
0,9999,78,0,78,0,40,9999,0.100000,99,99,0.000000,0,1.000000,20.904128,8.358658,99,99,0,0,0,0,0
0,9999,79,0,79,0,40,9999,0.100000,99,99,0.000000,0,2.000000,33.345235,11.138372,99,99,0,0,0,0,0
0,9999,80,0,80,0,96,9999,0.100000,99,99,87.246259,0,17.000000,23.118689,25.682569,99,99,1,0,0,0,0
0,9999,81,0,81,0,41,9999,0.100000,99,99,0.000000,0,3.000000,27.181385,10.604269,99,99,0,0,0,0,0
0,9999,82,0,82,0,41,9999,0.100000,99,99,0.000000,0,5.000000,28.912958,8.719139,99,99,0,0,0,0,0
0,9999,83,0,83,0,41,9999,0.100000,99,99,0.000000,0,3.000000,18.043009,16.581725,99,99,0,0,0,0,0
0,9999,84,0,84,0,44,9999,0.100000,99,99,60.515975,0,11.000000,24.177799,23.039319,99,99,0,0,0,0,0
0,9999,85,0,85,0,43,9999,0.100000,99,99,0.000000,0,7.000000,18.981091,10.084994,99,99,0,0,0,0,0
0,9999,86,0,86,0,40,9999,0.100000,99,99,0.000000,0,1.000000,24.589037,12.448739,99,99,0,0,0,0,0
0,9999,87,0,87,0,40,9999,0.100000,99,99,0.000000,0,1.000000,23.960301,5.652160,99,99,0,0,0,0,0
0,9999,88,0,88,0,41,9999,0.100000,99,99,0.000000,0,2.000000,18.336066,12.474547,99,99,0,0,0,0,0
0,9999,89,0,89,0,40,9999,0.100000,99,99,0.000000,0,3.000000,30.928688,5.983111,99,99,0,0,0,0,0
0,9999,90,0,90,0,40,9999,0.100000,99,99,0.000000,0,0.000000,27.181676,0.828152,99,99,0,0,0,0,0
0,9999,91,0,91,0,41,9999,0.100000,99,99,0.000000,0,4.000000,24.862705,7.982877,99,99,0,0,0,0,0
0,9999,92,0,92,0,40,9999,0.100000,99,99,0.000000,0,2.000000,21.025879,12.082595,99,99,0,0,0,0,0
0,9999,93,0,93,0,40,9999,0.100000,99,99,0.000000,0,1.000000,33.464228,5.057691,99,99,0,0,0,0,0
0,9999,94,0,94,0,40,9999,0.100000,99,99,0.000000,0,2.000000,21.780068,2.530062,99,99,0,0,0,0,0
0,9999,95,0,95,0,41,9999,0.100000,99,99,0.000000,0,4.000000,23.901439,13.990946,99,99,0,0,0,0,0
0,9999,96,0,96,0,41,9999,0.100000,99,99,0.000000,0,3.000000,22.701575,19.955683,99,99,0,0,0,0,0
0,9999,97,0,97,0,41,9999,0.100000,99,99,0.000000,0,2.000000,17.779460,15.296891,99,99,0,0,0,0,0
0,9999,98,0,98,0,40,9999,0.100000,99,99,0.000000,0,1.000000,24.812157,1.408915,99,99,0,0,0,0,0
0,9999,99,0,99,0,40,9999,0.100000,99,99,0.000000,0,0.000000,22.376187,4.731376,99,99,0,0,0,0,0
1,19999,0,10000,80,0,40,9999,0.100000,99,198,0.000000,1,1.000000,33.787502,3.678930,99,99,0,0,0,0,0
1,19999,1,10000,80,0,0,9999,0.100000,99,198,0.600435,1,1.000000,20.880377,2.897655,99,99,0,1,0,0,0
1,19999,2,10000,80,0,0,9999,0.100000,99,198,0.000805,1,0.000000,22.672372,0.081746,99,99,0,0,0,0,1
1,19999,3,10000,80,0,41,9999,0.100000,99,198,0.000000,1,3.000000,23.663815,11.915475,99,99,0,0,0,0,0
1,19999,4,10000,80,0,41,9999,0.100000,99,198,0.000000,1,3.000000,19.920879,6.088658,99,99,0,0,0,0,0
1,19999,5,10000,80,0,40,9999,0.100000,99,198,17.396264,1,2.000000,30.458633,24.105728,99,99,1,1,0,0,0
1,19999,6,10000,80,0,41,9999,0.100000,99,198,0.000000,1,4.000000,19.762023,18.021010,99,99,0,0,0,0,0
1,19999,7,10000,80,0,0,9999,0.100000,99,198,0.044384,1,0.000000,22.819951,0.180379,99,99,0,0,0,1,0
1,19999,8,10000,80,0,40,9999,0.100000,99,198,0.000000,1,1.000000,30.574860,16.719804,99,99,0,0,0,0,0
1,19999,9,10000,80,0,0,9999,0.100000,99,198,5.880375,1,3.000000,30.261963,17.277829,99,99,0,1,0,0,0
1,19999,10,10000,80,0,40,9999,0.100000,99,198,0.000000,1,2.000000,27.354654,12.475465,99,99,0,0,0,0,0
1,19999,11,10000,80,0,0,9999,0.100000,99,198,0.216895,1,0.000000,25.223547,0.674097,99,99,0,0,0,1,0
1,19999,12,10000,80,0,0,9999,0.100000,99,198,0.014373,1,0.000000,27.164995,0.098640,99,99,0,0,0,0,1
1,19999,13,10000,80,0,40,9999,0.100000,99,198,0.000000,1,2.000000,28.281699,6.338013,99,99,0,0,0,0,0
1,19999,14,10000,80,0,41,9999,0.100000,99,198,16.456411,1,3.000000,27.977446,8.249482,99,99,1,0,0,1,0
1,19999,15,10000,80,0,41,9999,0.100000,99,198,0.000000,1,2.000000,18.791912,2.721461,99,99,0,0,0,0,0
1,19999,16,10000,80,0,0,9999,0.100000,99,198,0.739316,1,0.000000,20.733551,0.305273,99,99,0,0,1,0,0
1,19999,17,10000,80,0,40,9999,0.100000,99,198,0.000000,1,1.000000,18.694809,13.034306,99,99,0,0,0,0,0
1,19999,18,10000,80,0,2,9999,0.100000,99,198,35.250603,1,8.000000,30.109580,14.291538,99,99,0,1,0,0,0
1,19999,19,10000,80,0,1,9999,0.100000,99,198,0.000628,1,2.000000,13.828687,5.427888,99,99,0,0,0,0,1
1,19999,20,10000,80,0,41,9999,0.100000,99,198,0.000000,1,4.000000,31.614357,21.159460,99,99,0,0,0,0,0
1,19999,21,10000,80,0,41,9999,0.100000,99,198,0.000000,1,6.000000,29.749158,17.553620,99,99,0,0,0,0,0
1,19999,22,10000,80,0,40,9999,0.100000,99,198,0.000000,1,0.000000,24.306320,1.996649,99,99,0,0,0,0,0
1,19999,23,10000,80,0,0,9999,0.100000,99,198,0.920567,1,0.000000,26.978043,0.279030,99,99,0,0,0,0,1
1,19999,24,10000,80,0,0,9999,0.100000,99,198,0.949984,1,0.000000,29.407040,0.173905,99,99,0,0,0,1,0
1,19999,25,10000,80,0,41,9999,0.100000,99,198,0.000000,1,4.000000,32.406594,17.464005,99,99,0,0,0,0,0
1,19999,26,10000,80,0,40,9999,0.100000,99,198,0.000000,1,3.000000,30.253432,16.949230,99,99,0,0,0,0,0
1,19999,27,10000,80,0,41,9999,0.100000,99,198,0.000000,1,3.000000,28.340490,21.112576,99,99,0,0,0,0,0
1,19999,28,10000,80,0,41,9999,0.100000,99,198,0.000000,1,3.000000,27.294271,6.893644,99,99,0,0,0,0,0
1,19999,29,10000,80,0,41,9999,0.100000,99,198,0.000000,1,2.000000,14.700282,8.093484,99,99,0,0,0,0,0
1,19999,30,10000,80,0,40,9999,0.100000,99,198,0.000000,1,1.000000,28.210767,4.400658,99,99,0,0,0,0,0
1,19999,31,10000,80,0,41,9999,0.100000,99,198,0.000000,1,5.000000,34.184659,19.609664,99,99,0,0,0,0,0
1,19999,32,10000,80,0,40,9999,0.100000,99,198,0.000000,1,1.000000,27.798592,12.770044,99,99,0,0,0,0,0
1,19999,33,10000,80,0,40,9999,0.100000,99,198,0.000000,1,0.000000,20.480709,0.535786,99,99,0,0,0,0,0
1,19999,34,10000,80,0,40,9999,0.100000,99,198,0.000000,1,0.000000,34.171617,0.276229,99,99,0,0,0,0,0
1,19999,35,10000,80,0,40,9999,0.100000,99,198,0.000000,1,1.000000,22.123394,14.259953,99,99,0,0,0,0,0
1,19999,36,10000,80,0,40,9999,0.100000,99,198,0.000000,1,1.000000,26.365923,10.843947,99,99,0,0,0,0,0
1,19999,37,10000,80,0,41,9999,0.100000,99,198,0.000000,1,4.000000,20.971643,14.391226,99,99,0,0,0,0,0
1,19999,38,10000,80,0,40,9999,0.100000,99,198,0.000000,1,0.000000,22.590182,0.135286,99,99,0,0,0,0,0
1,19999,39,10000,80,0,41,9999,0.100000,99,198,0.000000,1,4.000000,20.075854,14.908113,99,99,0,0,0,0,0
1,19999,40,10000,80,0,42,9999,0.100000,99,198,0.000000,1,6.000000,27.913458,16.022053,99,99,0,0,0,0,0
1,19999,41,10000,80,0,2,9999,0.100000,99,198,45.214644,1,8.000000,29.894374,9.001573,99,99,0,0,1,0,0
1,19999,42,10000,80,0,40,9999,0.100000,99,198,0.000000,1,3.000000,32.121936,19.268150,99,99,0,0,0,0,0
1,19999,43,10000,80,0,94,9999,0.100000,99,198,57.519267,1,11.000000,23.097912,23.234534,99,99,1,0,0,0,0
1,19999,44,10000,80,0,41,9999,0.100000,99,198,0.000000,1,4.000000,21.267376,14.556969,99,99,0,0,0,0,0
1,19999,45,10000,80,0,41,9999,0.100000,99,198,0.000000,1,3.000000,21.641309,19.715280,99,99,0,0,0,0,0
1,19999,46,10000,80,0,41,9999,0.100000,99,198,30.813493,1,4.000000,26.097379,16.484453,99,99,1,0,1,0,0
1,19999,47,10000,80,0,0,9999,0.100000,99,198,2.155497,1,0.000000,33.986623,0.908364,99,99,0,0,1,0,0
1,19999,48,10000,80,0,41,9999,0.100000,99,198,0.000000,1,4.000000,31.579900,22.116118,99,99,0,0,0,0,0
1,19999,49,10000,80,0,40,9999,0.100000,99,198,0.000000,1,3.000000,31.023599,24.211092,99,99,0,0,0,0,0
1,19999,50,10000,80,0,40,9999,0.100000,99,198,0.000000,1,1.000000,20.401775,14.837655,99,99,0,0,0,0,0
1,19999,51,10000,80,0,41,9999,0.100000,99,198,0.000000,1,3.000000,27.683404,11.885800,99,99,0,0,0,0,0
1,19999,52,10000,80,0,40,9999,0.100000,99,198,0.000000,1,0.000000,20.258076,0.743086,99,99,0,0,0,0,0
1,19999,53,10000,80,0,40,9999,0.100000,99,198,0.000000,1,0.000000,25.654449,10.058459,99,99,0,0,0,0,0
1,19999,54,10000,80,0,41,9999,0.100000,99,198,0.000000,1,3.000000,27.093400,15.142188,99,99,0,0,0,0,0
1,19999,55,10000,80,0,40,9999,0.100000,99,198,0.000000,1,0.000000,25.468774,0.696746,99,99,0,0,0,0,0
1,19999,56,10000,80,0,40,9999,0.100000,99,198,0.000000,1,0.000000,27.024005,0.177567,99,99,0,0,0,0,0
1,19999,57,10000,80,0,0,9999,0.100000,99,198,0.235382,1,0.000000,24.017199,0.853966,99,99,0,0,0,0,1
1,19999,58,10000,80,0,1,9999,0.100000,99,198,19.133419,1,3.000000,25.946488,8.295479,99,99,0,0,1,0,0
1,19999,59,10000,80,0,41,9999,0.100000,99,198,0.000000,1,4.000000,20.647621,17.970494,99,99,0,0,0,0,0
1,19999,60,10000,80,0,40,9999,0.100000,99,198,0.000000,1,0.000000,34.138902,1.606314,99,99,0,0,0,0,0
1,19999,61,10000,80,0,40,9999,0.100000,99,198,0.000000,1,1.000000,21.966581,13.515422,99,99,0,0,0,0,0
1,19999,62,10000,80,0,40,9999,0.100000,99,198,0.000000,1,3.000000,30.899567,15.526212,99,99,0,0,0,0,0
1,19999,63,10000,80,0,40,9999,0.100000,99,198,0.000000,1,0.000000,33.928653,4.348297,99,99,0,0,0,0,0
1,19999,64,10000,80,0,40,9999,0.100000,99,198,0.000000,1,0.000000,26.759694,0.070048,99,99,0,0,0,0,0
1,19999,65,10000,80,0,40,9999,0.100000,99,198,0.000000,1,0.000000,27.096489,0.466232,99,99,0,0,0,0,0
1,19999,66,10000,80,0,91,9999,0.100000,99,198,3.989335,1,4.000000,33.161864,20.451268,99,99,1,0,0,0,0
1,19999,67,10000,80,0,40,9999,0.100000,99,198,0.000000,1,1.000000,27.749054,4.936196,99,99,0,0,0,0,0
1,19999,68,10000,80,0,0,9999,0.100000,99,198,0.595680,1,0.000000,24.843285,0.479462,99,99,0,0,0,1,0
1,19999,69,10000,80,0,40,9999,0.100000,99,198,0.000000,1,2.000000,29.959784,19.173014,99,99,0,0,0,0,0
1,19999,70,10000,80,0,40,9999,0.100000,99,198,0.000000,1,1.000000,23.165519,12.267942,99,99,0,0,0,0,0
1,19999,71,10000,80,0,40,9999,0.100000,99,198,0.000000,1,0.000000,33.839193,0.654372,99,99,0,0,0,0,0
1,19999,72,10000,80,0,40,9999,0.100000,99,198,0.000000,1,0.000000,21.379018,0.941429,99,99,0,0,0,0,0
1,19999,73,10000,80,0,1,9999,0.100000,99,198,37.113460,1,6.000000,29.783921,9.400108,99,99,0,1,0,0,0
1,19999,74,10000,80,0,2,9999,0.100000,99,198,43.885015,1,8.000000,28.915911,10.842621,99,99,0,1,0,0,0
1,19999,75,10000,80,0,41,9999,0.100000,99,198,0.000000,1,6.000000,29.878711,22.203660,99,99,0,0,0,0,0
1,19999,76,10000,80,0,41,9999,0.100000,99,198,0.000000,1,6.000000,33.131319,20.562274,99,99,0,0,0,0,0
1,19999,77,10000,80,0,41,9999,0.100000,99,198,0.000000,1,5.000000,27.826968,25.242185,99,99,0,0,0,0,0
1,19999,78,10000,80,0,40,9999,0.100000,99,198,0.000000,1,2.000000,21.462509,14.856159,99,99,0,0,0,0,0
1,19999,79,10000,80,0,40,9999,0.100000,99,198,0.000000,1,1.000000,33.267936,2.767406,99,99,0,0,0,0,0
1,19999,80,10000,51,0,40,9999,0.100000,99,198,0.000000,1,2.000000,31.740387,13.243659,99,99,0,0,0,0,0
1,19999,81,10000,80,0,41,9999,0.100000,99,198,0.000000,1,4.000000,27.622098,6.680023,99,99,0,0,0,0,0
1,19999,82,10000,80,0,0,9999,0.100000,99,198,0.108389,1,0.000000,29.489450,0.355643,99,99,0,1,0,0,0
1,19999,83,10000,80,0,41,9999,0.100000,99,198,0.000000,1,2.000000,16.892743,15.689682,99,99,0,0,0,0,0
1,19999,84,10000,80,0,40,9999,0.100000,99,198,0.000000,1,2.000000,29.905387,15.364856,99,99,0,0,0,0,0
1,19999,85,10000,80,0,41,9999,0.100000,99,198,27.216261,1,4.000000,25.802118,12.156817,99,99,1,0,1,0,0
1,19999,86,10000,80,0,40,9999,0.100000,99,198,0.000000,1,0.000000,25.257178,12.038132,99,99,0,0,0,0,0
1,19999,87,10000,80,0,40,9999,0.100000,99,198,0.000000,1,1.000000,24.658810,3.803711,99,99,0,0,0,0,0
1,19999,88,10000,80,0,43,9999,0.100000,99,198,0.000000,1,7.000000,20.873129,15.832731,99,99,0,0,0,0,0
1,19999,89,10000,80,0,42,9999,0.100000,99,198,0.000000,1,8.000000,28.966404,13.254094,99,99,0,0,0,0,0
1,19999,90,10000,80,0,40,9999,0.100000,99,198,0.000000,1,0.000000,27.300093,0.235045,99,99,0,0,0,0,0
1,19999,91,10000,80,0,42,9999,0.100000,99,198,0.000000,1,8.000000,28.958005,11.155432,99,99,0,0,0,0,0
1,19999,92,10000,80,0,40,9999,0.100000,99,198,0.000000,1,0.000000,23.073413,9.471749,99,99,0,0,0,0,0
1,19999,93,10000,80,0,41,9999,0.100000,99,198,0.000000,1,4.000000,31.777702,23.113521,99,99,0,0,0,0,0
1,19999,94,10000,80,0,40,9999,0.100000,99,198,0.000000,1,0.000000,23.712687,0.867005,99,99,0,0,0,0,0
1,19999,95,10000,80,0,41,9999,0.100000,99,198,0.000000,1,4.000000,20.863213,6.425587,99,99,0,0,0,0,0
1,19999,96,10000,80,0,40,9999,0.100000,99,198,0.000000,1,0.000000,24.127784,3.998044,99,99,0,0,0,0,0
1,19999,97,10000,80,0,40,9999,0.100000,99,198,0.000000,1,0.000000,18.151042,13.060487,99,99,0,0,0,0,0
1,19999,98,10000,80,0,40,9999,0.100000,99,198,0.000000,1,0.000000,24.746054,0.235516,99,99,0,0,0,0,0
1,19999,99,10000,80,0,40,9999,0.100000,99,198,0.000000,1,1.000000,22.235796,12.115632,99,99,0,0,0,0,0
2,29999,0,20000,43,10000,40,9999,0.100000,99,297,0.000000,2,3.000000,35.319481,9.667325,99,99,0,0,0,0,0
2,29999,1,20000,43,10000,0,9999,0.100000,99,297,0.702867,2,0.000000,20.488180,0.335658,99,99,0,1,0,0,0
2,29999,2,20000,43,10000,0,9999,0.100000,99,297,0.000660,1,0.000000,22.671535,0.090006,99,99,0,0,0,0,1
2,29999,3,20000,43,10000,40,9999,0.100000,99,297,0.000000,2,2.000000,21.473234,14.015112,99,99,0,0,0,0,0
2,29999,4,20000,43,10000,40,9999,0.100000,99,297,0.000000,1,0.000000,22.412724,0.090849,99,99,0,0,0,0,0
2,29999,5,20000,43,10000,40,9999,0.100000,99,297,0.000000,2,1.000000,28.805008,21.198706,99,99,0,0,0,0,0
2,29999,6,20000,43,10000,40,9999,0.100000,99,297,0.000000,2,1.000000,19.705574,14.448458,99,99,0,0,0,0,0
2,29999,7,20000,43,10000,0,9999,0.100000,99,297,0.002465,1,0.000000,22.809033,0.107611,99,99,0,0,0,1,0
2,29999,8,20000,43,10000,40,9999,0.100000,99,297,0.000000,1,1.000000,30.220688,19.032596,99,99,0,0,0,0,0
2,29999,9,20000,43,10000,40,9999,0.100000,99,297,0.000000,2,2.000000,29.225245,18.751205,99,99,0,0,0,0,0
2,29999,10,20000,43,10000,40,9999,0.100000,99,297,0.000000,1,0.000000,26.589994,12.299599,99,99,0,0,0,0,0
2,29999,11,20000,43,10000,0,9999,0.100000,99,297,0.458067,1,0.000000,25.128494,0.943404,99,99,0,0,0,1,0
2,29999,12,20000,43,10000,0,9999,0.100000,99,297,0.047646,1,0.000000,27.163947,0.100918,99,99,0,0,0,0,1
2,29999,13,20000,43,10000,40,9999,0.100000,99,297,0.000000,2,0.000000,25.811522,1.025155,99,99,0,0,0,0,0
2,29999,14,20000,43,10000,0,9999,0.100000,99,297,1.623980,2,0.000000,28.105698,1.001661,99,99,0,0,0,1,0
2,29999,15,20000,43,10000,40,9999,0.100000,99,297,0.000000,1,0.000000,16.254907,1.142816,99,99,0,0,0,0,0
2,29999,16,20000,43,10000,0,9999,0.100000,99,297,0.151772,1,0.000000,20.516854,0.206871,99,99,0,0,1,0,0
2,29999,17,20000,43,10000,40,9999,0.100000,99,297,0.000000,1,1.000000,19.982042,22.781969,99,99,0,0,0,0,0
2,29999,18,20000,43,10000,41,9999,0.100000,99,297,0.000000,2,4.000000,33.827295,21.643276,99,99,0,0,0,0,0
2,29999,19,20000,43,10000,0,9999,0.100000,99,297,0.000526,2,0.000000,14.367861,0.079301,99,99,0,0,0,0,1
2,29999,20,20000,43,10000,40,9999,0.100000,99,297,0.000000,2,2.000000,36.352424,5.291828,99,99,0,0,0,0,0
2,29999,21,20000,43,10000,0,9999,0.135000,99,297,0.001651,2,0.000000,32.727504,1.643800,99,99,0,0,1,0,0
2,29999,22,20000,43,10000,40,9999,0.100000,99,297,0.000000,2,0.000000,24.583816,1.293475,99,99,0,0,0,0,0
2,29999,23,20000,43,10000,0,9999,0.100000,99,297,0.933016,1,0.000000,26.767783,0.761618,99,99,0,0,0,0,1
2,29999,24,20000,43,10000,0,9999,0.100000,99,297,0.004255,1,0.000000,29.387192,0.093185,99,99,0,0,0,1,0
2,29999,25,20000,43,10000,40,9999,0.100000,99,297,0.000000,2,0.000000,31.862693,1.151953,99,99,0,0,0,0,0
2,29999,26,20000,43,10000,40,9999,0.100000,99,297,0.000000,2,0.000000,28.069576,13.807922,99,99,0,0,0,0,0
2,29999,27,20000,43,10000,42,9999,0.100000,99,297,0.000000,2,6.000000,27.755512,22.782329,99,99,0,0,0,0,0
2,29999,28,20000,43,10000,40,9999,0.100000,99,297,0.000000,2,0.000000,25.476576,0.433162,99,99,0,0,0,0,0
2,29999,29,20000,43,10000,40,9999,0.100000,99,297,0.000000,2,0.000000,15.912119,1.817182,99,99,0,0,0,0,0
2,29999,30,20000,43,10000,40,9999,0.100000,99,297,0.000000,1,0.000000,27.676098,0.469961,99,99,0,0,0,0,0
2,29999,31,20000,43,10000,40,9999,0.100000,99,297,0.000000,2,1.000000,29.728883,17.989817,99,99,0,0,0,0,0
2,29999,32,20000,43,10000,40,9999,0.100000,99,297,0.000000,1,3.000000,28.727744,19.693536,99,99,0,0,0,0,0
2,29999,33,20000,43,10000,40,9999,0.100000,99,297,0.000000,1,0.000000,20.278888,0.491543,99,99,0,0,0,0,0
2,29999,34,20000,43,10000,40,9999,0.100000,99,297,0.000000,1,0.000000,34.214054,0.247990,99,99,0,0,0,0,0
2,29999,35,20000,43,10000,45,9999,0.100000,99,297,0.000000,2,13.000000,21.060196,22.421033,99,99,0,0,0,0,0
2,29999,36,20000,43,10000,40,9999,0.100000,99,297,0.000000,1,1.000000,27.635713,13.023540,99,99,0,0,0,0,0
2,29999,37,20000,43,10000,43,9999,0.100000,99,297,0.000000,2,9.000000,23.695964,11.242980,99,99,0,0,0,0,0
2,29999,38,20000,43,10000,40,9999,0.100000,99,297,0.000000,1,0.000000,22.580854,0.126742,99,99,0,0,0,0,0
2,29999,39,20000,43,10000,43,9999,0.100000,99,297,0.000000,2,8.000000,21.386874,16.044373,99,99,0,0,0,0,0
2,29999,40,20000,43,10000,40,9999,0.100000,99,297,0.000000,2,0.000000,34.672972,0.235781,99,99,0,0,0,0,0
2,29999,41,20000,43,10000,40,9999,0.100000,99,297,0.000000,2,0.000000,33.391806,0.980391,99,99,0,0,0,0,0
2,29999,42,20000,43,10000,40,9999,0.100000,99,297,0.000000,1,1.000000,29.906918,15.463717,99,99,0,0,0,0,0
2,29999,43,20000,41,10000,41,9999,0.100000,99,297,0.000000,2,4.000000,30.721384,17.404801,99,99,0,0,0,0,0
2,29999,44,20000,43,10000,40,9999,0.100000,99,297,0.000000,2,1.000000,20.122774,19.508290,99,99,0,0,0,0,0
2,29999,45,20000,43,10000,40,9999,0.100000,99,297,0.000000,2,1.000000,24.070308,24.678727,99,99,0,0,0,0,0
2,29999,46,20000,43,10000,40,9999,0.100000,99,297,0.000000,2,0.000000,27.069103,1.746013,99,99,0,0,0,0,0
2,29999,47,20000,43,10000,0,9999,0.100000,99,297,1.669647,1,2.000000,33.425358,3.500782,99,99,0,0,1,0,0
2,29999,48,20000,43,10000,40,9999,0.100000,99,297,0.000000,2,1.000000,30.007051,17.014817,99,99,0,0,0,0,0
2,29999,49,20000,43,10000,40,9999,0.100000,99,297,0.000000,1,1.000000,30.802317,17.645783,99,99,0,0,0,0,0
2,29999,50,20000,43,10000,40,9999,0.100000,99,297,0.000000,1,1.000000,19.780081,17.795872,99,99,0,0,0,0,0
2,29999,51,20000,43,10000,40,9999,0.100000,99,297,0.000000,2,0.000000,25.597864,0.584079,99,99,0,0,0,0,0
2,29999,52,20000,43,10000,40,9999,0.100000,99,297,0.000000,1,0.000000,20.069099,0.577142,99,99,0,0,0,0,0
2,29999,53,20000,43,10000,40,9999,0.100000,99,297,0.000000,1,1.000000,25.897405,10.377605,99,99,0,0,0,0,0
2,29999,54,20000,43,10000,40,9999,0.100000,99,297,0.000000,1,1.000000,29.680544,19.967732,99,99,0,0,0,0,0
2,29999,55,20000,43,10000,40,9999,0.100000,99,297,0.000000,1,0.000000,25.354922,0.925984,99,99,0,0,0,0,0
2,29999,56,20000,43,10000,40,9999,0.100000,99,297,0.000000,1,0.000000,27.023873,0.168221,99,99,0,0,0,0,0
2,29999,57,20000,43,10000,0,9999,0.100000,99,297,0.185024,2,0.000000,24.432706,0.215668,99,99,0,0,0,0,1
2,29999,58,20000,43,10000,40,9999,0.100000,99,297,0.000000,2,0.000000,27.214054,0.312720,99,99,0,0,0,0,0
2,29999,59,20000,43,10000,44,9999,0.100000,99,297,0.000000,2,11.000000,21.919852,21.635507,99,99,0,0,0,0,0
2,29999,60,20000,43,10000,40,9999,0.100000,99,297,0.000000,1,2.000000,33.621437,3.903160,99,99,0,0,0,0,0
2,29999,61,20000,43,10000,40,9999,0.100000,99,297,0.000000,1,2.000000,21.462320,13.581122,99,99,0,0,0,0,0
2,29999,62,20000,43,10000,40,9999,0.100000,99,297,0.000000,1,1.000000,29.696773,15.293785,99,99,0,0,0,0,0
2,29999,63,20000,43,10000,40,9999,0.100000,99,297,0.000000,2,3.000000,33.291508,9.174187,99,99,0,0,0,0,0
2,29999,64,20000,43,10000,40,9999,0.100000,99,297,0.000000,1,0.000000,26.758486,0.071303,99,99,0,0,0,0,0
2,29999,65,20000,43,10000,40,9999,0.100000,99,297,0.000000,1,0.000000,26.908628,1.314037,99,99,0,0,0,0,0
2,29999,66,20000,43,10000,40,9999,0.100000,99,297,0.000000,1,1.000000,28.867502,21.068391,99,99,0,0,0,0,0
2,29999,67,20000,43,10000,40,9999,0.100000,99,297,0.000000,1,0.000000,28.070055,2.342165,99,99,0,0,0,0,0
2,29999,68,20000,43,10000,0,9999,0.100000,99,297,0.745964,1,0.000000,24.673952,0.577194,99,99,0,0,0,1,0
2,29999,69,20000,43,10000,40,9999,0.100000,99,297,0.000000,2,1.000000,28.008461,12.111055,99,99,0,0,0,0,0
2,29999,70,20000,43,10000,40,9999,0.100000,99,297,0.000000,1,0.000000,24.928948,7.413527,99,99,0,0,0,0,0
2,29999,71,20000,43,10000,40,9999,0.100000,99,297,0.000000,1,1.000000,33.537215,2.336332,99,99,0,0,0,0,0
2,29999,72,20000,43,10000,40,9999,0.100000,99,297,0.000000,2,0.000000,20.674179,0.920908,99,99,0,0,0,0,0
2,29999,73,20000,43,10000,41,9999,0.100000,99,297,0.000000,2,5.000000,34.024294,21.955584,99,99,0,0,0,0,0
2,29999,74,20000,43,10000,41,9999,0.100000,99,297,0.000000,2,5.000000,32.756671,15.678632,99,99,0,0,0,0,0
2,29999,75,20000,43,10000,40,9999,0.100000,99,297,0.000000,2,3.000000,32.115346,4.896665,99,99,0,0,0,0,0
2,29999,76,20000,43,10000,40,9999,0.100000,99,297,0.000000,2,0.000000,27.182728,1.665378,99,99,0,0,0,0,0
2,29999,77,20000,43,10000,42,9999,0.100000,99,297,0.000000,2,6.000000,22.995773,18.624382,99,99,0,0,0,0,0
2,29999,78,20000,43,10000,40,9999,0.100000,99,297,0.000000,1,0.000000,19.505115,18.255858,99,99,0,0,0,0,0
2,29999,79,20000,43,10000,40,9999,0.100000,99,297,0.000000,1,1.000000,34.384791,1.790160,99,99,0,0,0,0,0
2,29999,80,20000,43,10000,40,9999,0.100000,99,297,0.000000,2,2.000000,33.617683,6.509353,99,99,0,0,0,0,0
2,29999,81,20000,43,10000,40,9999,0.100000,99,297,0.000000,1,0.000000,26.551829,0.577651,99,99,0,0,0,0,0
2,29999,82,20000,43,10000,0,9999,0.100000,99,297,0.324378,2,0.000000,29.453455,0.194533,99,99,0,1,0,0,0
2,29999,83,20000,43,10000,41,9999,0.100000,99,297,0.000000,1,2.000000,18.457742,14.809014,99,99,0,0,0,0,0
2,29999,84,20000,43,10000,40,9999,0.100000,99,297,0.000000,2,1.000000,28.106874,3.969663,99,99,0,0,0,0,0
2,29999,85,20000,43,10000,40,9999,0.100000,99,297,0.000000,2,0.000000,27.070098,0.325021,99,99,0,0,0,0,0
2,29999,86,20000,43,10000,40,9999,0.100000,99,297,0.000000,1,1.000000,25.022908,13.651487,99,99,0,0,0,0,0
2,29999,87,20000,43,10000,40,9999,0.100000,99,297,0.000000,1,0.000000,25.036782,0.112686,99,99,0,0,0,0,0
2,29999,88,20000,43,10000,40,9999,0.100000,99,297,0.000000,2,1.000000,20.291075,22.768523,99,99,0,0,0,0,0
2,29999,89,20000,43,10000,40,9999,0.100000,99,297,0.000000,2,0.000000,32.578577,1.913638,99,99,0,0,0,0,0
2,29999,90,20000,43,10000,40,9999,0.100000,99,297,0.000000,1,0.000000,27.298915,0.859618,99,99,0,0,0,0,0
2,29999,91,20000,43,10000,0,9999,0.100000,99,297,1.944011,2,0.000000,33.000125,0.541220,99,99,0,1,0,0,0
2,29999,92,20000,43,10000,40,9999,0.100000,99,297,0.000000,1,0.000000,22.730813,0.165699,99,99,0,0,0,0,0
2,29999,93,20000,43,10000,40,9999,0.100000,99,297,0.000000,2,0.000000,28.092523,22.864943,99,99,0,0,0,0,0
2,29999,94,20000,43,10000,40,9999,0.100000,99,297,0.000000,1,0.000000,24.160394,0.307240,99,99,0,0,0,0,0
2,29999,95,20000,43,10000,40,9999,0.100000,99,297,0.000000,1,0.000000,24.756778,0.695300,99,99,0,0,0,0,0
2,29999,96,20000,43,10000,40,9999,0.100000,99,297,0.000000,2,0.000000,24.813092,0.120717,99,99,0,0,0,0,0
2,29999,97,20000,43,10000,41,9999,0.100000,99,297,0.000000,2,2.000000,18.345567,16.109660,99,99,0,0,0,0,0
2,29999,98,20000,43,10000,40,9999,0.100000,99,297,0.000000,1,0.000000,24.596576,0.271465,99,99,0,0,0,0,0
2,29999,99,20000,43,10000,44,9999,0.100000,99,297,0.000000,1,11.000000,22.145505,22.260416,99,99,0,0,0,0,0
3,39999,0,30000,91,20000,40,9999,0.100000,99,396,0.000000,2,3.000000,32.344068,18.906228,99,99,0,0,0,0,0
3,39999,1,30000,91,20000,0,9999,0.100000,99,396,0.230195,2,0.000000,20.741989,1.078057,99,99,0,1,0,0,0
3,39999,2,30000,91,20000,40,9999,0.100000,99,396,0.000000,1,0.000000,22.672364,0.088670,99,99,0,0,0,0,0
3,39999,3,30000,91,20000,40,9999,0.100000,99,396,0.000000,2,2.000000,19.941053,19.955863,99,99,0,0,0,0,0
3,39999,4,30000,91,20000,0,9999,0.100000,99,396,0.000692,2,0.000000,22.412922,0.090429,99,99,0,0,0,0,1
3,39999,5,30000,91,20000,40,9999,0.100000,99,396,0.000000,2,1.000000,28.988474,23.170101,99,99,0,0,0,0,0
3,39999,6,30000,91,20000,40,9999,0.100000,99,396,0.000000,2,2.000000,19.325746,15.099260,99,99,0,0,0,0,0
3,39999,7,30000,91,20000,0,9999,0.100000,99,396,0.005338,1,0.000000,22.814369,0.115295,99,99,0,0,0,1,0
3,39999,8,30000,91,20000,41,9999,0.100000,99,396,0.000000,1,4.000000,30.225098,22.210788,99,99,0,0,0,0,0
3,39999,9,30000,91,20000,40,9999,0.100000,99,396,0.000000,2,3.000000,30.396329,32.761784,99,99,0,0,0,0,0
3,39999,10,30000,91,20000,40,9999,0.100000,99,396,0.000000,1,1.000000,27.049790,20.583646,99,99,0,0,0,0,0
3,39999,11,30000,91,20000,40,9999,0.100000,99,396,0.000000,1,0.000000,24.903555,0.570772,99,99,0,0,0,0,0
3,39999,12,30000,91,20000,0,9999,0.100000,99,396,0.267166,1,0.000000,27.164916,0.551602,99,99,0,0,0,0,1
3,39999,13,30000,91,20000,0,9999,0.100000,99,396,1.034267,2,0.000000,25.457158,0.808481,99,99,0,0,0,1,0
3,39999,14,30000,91,20000,0,9999,0.100000,99,396,0.628322,3,0.000000,28.103766,1.317784,99,99,0,0,0,1,0
3,39999,15,30000,91,20000,1,9999,0.100000,99,396,0.112509,2,2.000000,15.266977,2.158103,99,99,0,0,1,0,0
3,39999,16,30000,91,20000,0,9999,0.100000,99,396,15.578412,1,2.000000,20.531831,2.957978,99,99,0,0,1,0,0
3,39999,17,30000,91,20000,40,9999,0.100000,99,396,0.000000,1,1.000000,20.103409,20.887511,99,99,0,0,0,0,0
3,39999,18,30000,91,20000,41,9999,0.100000,99,396,0.000000,3,6.000000,29.005971,23.458838,99,99,0,0,0,0,0
3,39999,19,30000,91,20000,0,9999,0.100000,99,396,0.000394,3,0.000000,14.366497,0.080079,99,99,0,0,0,0,1
3,39999,20,30000,91,20000,40,9999,0.100000,99,396,0.000000,2,0.000000,38.000704,3.530873,99,99,0,0,0,0,0
3,39999,21,30000,91,20000,0,9999,0.100000,99,396,0.176509,3,0.000000,33.135707,0.326940,99,99,0,0,1,0,0
3,39999,22,30000,91,20000,40,9999,0.100000,99,396,0.000000,2,0.000000,24.666381,1.196061,99,99,0,0,0,0,0
3,39999,23,30000,91,20000,0,9999,0.100000,99,396,1.126859,1,0.000000,26.465781,0.467731,99,99,0,0,0,0,1
3,39999,24,30000,91,20000,0,9999,0.100000,99,396,0.002610,1,0.000000,29.386690,0.106105,99,99,0,0,0,1,0
3,39999,25,30000,91,20000,40,9999,0.100000,99,396,0.000000,2,0.000000,31.580709,1.387005,99,99,0,0,0,0,0
3,39999,26,30000,91,20000,41,9999,0.100000,99,396,0.000000,2,3.000000,28.013096,16.386864,99,99,0,0,0,0,0
3,39999,27,30000,91,20000,40,9999,0.100000,99,396,0.000000,3,2.000000,23.842854,24.938868,99,99,0,0,0,0,0
3,39999,28,30000,91,20000,40,9999,0.100000,99,396,0.000000,3,1.000000,25.160459,7.141285,99,99,0,0,0,0,0
3,39999,29,30000,91,20000,41,9999,0.100000,99,396,0.000000,2,2.000000,15.674734,4.381258,99,99,0,0,0,0,0
3,39999,30,30000,91,20000,40,9999,0.100000,99,396,0.000000,1,0.000000,27.644889,0.620613,99,99,0,0,0,0,0
3,39999,31,30000,91,20000,40,9999,0.100000,99,396,0.000000,2,2.000000,28.902378,18.609790,99,99,0,0,0,0,0
3,39999,32,30000,91,20000,40,9999,0.100000,99,396,0.000000,2,0.000000,28.292807,13.543562,99,99,0,0,0,0,0
3,39999,33,30000,91,20000,41,9999,0.100000,99,396,0.000000,1,3.000000,20.302280,3.262165,99,99,0,0,0,0,0
3,39999,34,30000,91,20000,40,9999,0.100000,99,396,0.000000,1,0.000000,34.219217,0.231052,99,99,0,0,0,0,0
3,39999,35,30000,91,20000,40,9999,0.100000,99,396,0.000000,3,0.000000,31.316819,2.108769,99,99,0,0,0,0,0
3,39999,36,30000,91,20000,40,9999,0.100000,99,396,0.000000,1,3.000000,28.878312,19.912516,99,99,0,0,0,0,0
3,39999,37,30000,91,20000,40,9999,0.100000,99,396,0.000000,3,1.000000,22.777712,1.370866,99,99,0,0,0,0,0
3,39999,38,30000,91,20000,40,9999,0.100000,99,396,0.000000,1,0.000000,22.582757,0.134374,99,99,0,0,0,0,0
3,39999,39,30000,91,20000,40,9999,0.100000,99,396,0.000000,3,0.000000,18.219838,1.051984,99,99,0,0,0,0,0
3,39999,40,30000,91,20000,40,9999,0.100000,99,396,0.000000,2,0.000000,34.673441,0.233225,99,99,0,0,0,0,0
3,39999,41,30000,91,20000,40,9999,0.100000,99,396,0.000000,3,0.000000,32.924675,10.093379,99,99,0,0,0,0,0
3,39999,42,30000,91,20000,40,9999,0.100000,99,396,0.000000,1,2.000000,29.065346,15.940134,99,99,0,0,0,0,0
3,39999,43,30000,91,20000,40,9999,0.100000,99,396,0.000000,3,0.000000,28.182115,4.453441,99,99,0,0,0,0,0
3,39999,44,30000,91,20000,41,9999,0.100000,99,396,0.000000,2,3.000000,19.922991,20.166822,99,99,0,0,0,0,0
3,39999,45,30000,91,20000,41,9999,0.100000,99,396,0.000000,2,3.000000,23.102063,15.577099,99,99,0,0,0,0,0
3,39999,46,30000,91,20000,40,9999,0.100000,99,396,0.000000,3,0.000000,26.781172,2.034144,99,99,0,0,0,0,0
3,39999,47,30000,91,20000,41,9999,0.100000,99,396,0.000000,1,7.000000,34.661291,13.421955,99,99,0,0,0,0,0
3,39999,48,30000,91,20000,40,9999,0.100000,99,396,0.000000,2,3.000000,30.537885,17.054311,99,99,0,0,0,0,0
3,39999,49,30000,91,20000,41,9999,0.100000,99,396,0.000000,1,4.000000,29.832654,19.197129,99,99,0,0,0,0,0
3,39999,50,30000,91,20000,40,9999,0.135000,99,396,0.000000,1,2.000000,19.912175,20.402081,99,99,0,0,0,0,0
3,39999,51,30000,91,20000,40,9999,0.100000,99,396,0.000000,3,0.000000,25.285227,0.693269,99,99,0,0,0,0,0
3,39999,52,30000,91,20000,42,9999,0.100000,99,396,0.000000,1,5.000000,20.100581,8.376156,99,99,0,0,0,0,0
3,39999,53,30000,91,20000,40,9999,0.100000,99,396,0.000000,1,2.000000,25.252921,15.953711,99,99,0,0,0,0,0
3,39999,54,30000,91,20000,40,9999,0.100000,99,396,0.000000,1,1.000000,29.678490,15.886406,99,99,0,0,0,0,0
3,39999,55,30000,91,20000,40,9999,0.100000,99,396,0.000000,1,0.000000,25.085551,0.886224,99,99,0,0,0,0,0
3,39999,56,30000,91,20000,40,9999,0.100000,99,396,0.000000,1,0.000000,27.025622,0.308580,99,99,0,0,0,0,0
3,39999,57,30000,91,20000,0,9999,0.100000,99,396,0.247109,2,0.000000,24.521004,0.231159,99,99,0,0,0,0,1
3,39999,58,30000,91,20000,40,9999,0.100000,99,396,0.000000,3,0.000000,27.023508,0.298714,99,99,0,0,0,0,0
3,39999,59,30000,91,20000,40,9999,0.100000,99,396,0.000000,3,0.000000,31.508822,0.819911,99,99,0,0,0,0,0
3,39999,60,30000,91,20000,40,9999,0.100000,99,396,0.000000,1,0.000000,34.632899,1.134486,99,99,0,0,0,0,0
3,39999,61,30000,91,20000,40,9999,0.100000,99,396,0.000000,1,1.000000,19.427145,16.406978,99,99,0,0,0,0,0
3,39999,62,30000,91,20000,41,9999,0.100000,99,396,0.000000,1,5.000000,29.671993,13.813500,99,99,0,0,0,0,0
3,39999,63,30000,91,20000,0,9999,0.100000,99,396,2.094455,2,0.000000,34.546308,1.360042,99,99,0,0,1,0,0
3,39999,64,30000,91,20000,40,9999,0.100000,99,396,0.000000,1,0.000000,26.761108,0.695136,99,99,0,0,0,0,0
3,39999,65,30000,91,20000,40,9999,0.100000,99,396,0.000000,1,0.000000,26.634439,1.271854,99,99,0,0,0,0,0
3,39999,66,30000,91,20000,40,9999,0.100000,99,396,0.000000,2,1.000000,28.087263,5.586341,99,99,0,0,0,0,0
3,39999,67,30000,91,20000,41,9999,0.100000,99,396,0.000000,1,4.000000,28.060578,8.818590,99,99,0,0,0,0,0
3,39999,68,30000,91,20000,0,9999,0.100000,99,396,0.754205,1,0.000000,24.462802,0.585231,99,99,0,0,0,1,0
3,39999,69,30000,91,20000,40,9999,0.100000,99,396,0.000000,2,1.000000,28.880292,17.664185,99,99,0,0,0,0,0
3,39999,70,30000,91,20000,40,9999,0.100000,99,396,0.000000,1,1.000000,24.959242,10.748605,99,99,0,0,0,0,0
3,39999,71,30000,91,20000,40,9999,0.100000,99,396,0.000000,1,1.000000,34.596134,6.162443,99,99,0,0,0,0,0
3,39999,72,30000,91,20000,42,9999,0.100000,99,396,0.000000,2,6.000000,19.999478,10.185149,99,99,0,0,0,0,0
3,39999,73,30000,91,20000,40,9999,0.100000,99,396,0.000000,3,0.000000,29.741669,14.898758,99,99,0,0,0,0,0
3,39999,74,30000,91,20000,40,9999,0.100000,99,396,0.000000,3,1.000000,27.927296,16.937134,99,99,0,0,0,0,0
3,39999,75,30000,91,20000,40,9999,0.100000,99,396,0.000000,2,0.000000,33.580483,1.252792,99,99,0,0,0,0,0
3,39999,76,30000,91,20000,40,9999,0.100000,99,396,0.000000,3,0.000000,27.181322,4.492993,99,99,0,0,0,0,0
3,39999,77,30000,91,20000,40,9999,0.100000,99,396,0.000000,2,1.000000,24.674797,24.867823,99,99,0,0,0,0,0
3,39999,78,30000,91,20000,40,9999,0.100000,99,396,0.000000,1,2.000000,19.782160,16.514140,99,99,0,0,0,0,0
3,39999,79,30000,91,20000,40,9999,0.100000,99,396,0.000000,1,3.000000,35.117545,6.848875,99,99,0,0,0,0,0
3,39999,80,30000,91,20000,40,9999,0.100000,99,396,0.000000,2,0.000000,34.546514,1.271332,99,99,0,0,0,0,0
3,39999,81,30000,91,20000,40,9999,0.100000,99,396,0.000000,2,0.000000,26.200294,0.547838,99,99,0,0,0,0,0
3,39999,82,30000,91,20000,0,9999,0.100000,99,396,0.319416,2,0.000000,29.498796,0.180066,99,99,0,1,0,0,0
3,39999,83,30000,91,20000,41,9999,0.100000,99,396,0.000000,2,3.000000,19.434699,16.206899,99,99,0,0,0,0,0
3,39999,84,30000,91,20000,40,9999,0.100000,99,396,0.000000,2,0.000000,28.398925,2.088292,99,99,0,0,0,0,0
3,39999,85,30000,91,20000,40,9999,0.100000,99,396,0.000000,3,0.000000,26.843145,0.299668,99,99,0,0,0,0,0
3,39999,86,30000,91,20000,41,9999,0.100000,99,396,0.000000,1,3.000000,26.652325,15.677573,99,99,0,0,0,0,0
3,39999,87,30000,91,20000,40,9999,0.100000,99,396,0.000000,1,0.000000,25.107965,0.105173,99,99,0,0,0,0,0
3,39999,88,30000,91,20000,40,9999,0.100000,99,396,0.000000,2,0.000000,21.287875,16.870108,99,99,0,0,0,0,0
3,39999,89,30000,91,20000,40,9999,0.100000,99,396,0.000000,2,0.000000,32.954598,0.354259,99,99,0,0,0,0,0
3,39999,90,30000,91,20000,40,9999,0.100000,99,396,0.000000,1,0.000000,27.298535,0.903759,99,99,0,0,0,0,0
3,39999,91,30000,47,20000,0,9999,0.100000,99,396,1.324614,3,0.000000,32.700557,1.178858,99,99,0,1,0,0,0
3,39999,92,30000,91,20000,40,9999,0.100000,99,396,0.000000,1,0.000000,22.735194,0.120023,99,99,0,0,0,0,0
3,39999,93,30000,91,20000,40,9999,0.100000,99,396,0.000000,2,2.000000,27.832779,18.596244,99,99,0,0,0,0,0
3,39999,94,30000,91,20000,40,9999,0.100000,99,396,0.000000,1,0.000000,24.258845,0.335958,99,99,0,0,0,0,0
3,39999,95,30000,91,20000,40,9999,0.100000,99,396,0.000000,2,0.000000,24.544026,0.690400,99,99,0,0,0,0,0
3,39999,96,30000,91,20000,40,9999,0.135000,99,396,0.000000,2,0.000000,24.890114,0.120284,99,99,0,0,0,0,0
3,39999,97,30000,91,20000,40,9999,0.100000,99,396,0.000000,2,1.000000,19.345553,19.416223,99,99,0,0,0,0,0
3,39999,98,30000,91,20000,40,9999,0.100000,99,396,0.000000,1,0.000000,24.398669,0.270051,99,99,0,0,0,0,0
3,39999,99,30000,91,20000,40,9999,0.100000,99,396,0.000000,2,0.000000,31.438399,1.566029,99,99,0,0,0,0,0
4,49999,0,40000,16,30000,42,9999,0.100000,99,495,0.000000,2,7.000000,29.145524,13.425209,99,99,0,0,0,0,0
4,49999,1,40000,16,30000,0,9999,0.100000,99,495,2.402883,2,0.000000,21.378365,0.859467,99,99,0,1,0,0,0
4,49999,2,40000,16,30000,0,9999,0.100000,99,495,0.014029,2,0.000000,22.673116,0.092370,99,99,0,0,0,0,1
4,49999,3,40000,16,30000,40,9999,0.100000,99,495,0.000000,2,1.000000,22.091639,16.086593,99,99,0,0,0,0,0
4,49999,4,40000,16,30000,40,9999,0.100000,99,495,0.000000,3,0.000000,22.413163,0.113976,99,99,0,0,0,0,0
4,49999,5,40000,16,30000,40,9999,0.100000,99,495,0.000000,2,1.000000,28.374627,17.246122,99,99,0,0,0,0,0
4,49999,6,40000,16,30000,42,9999,0.100000,99,495,0.000000,2,5.000000,20.690337,18.243293,99,99,0,0,0,0,0
4,49999,7,40000,16,30000,0,9999,0.100000,99,495,0.019422,1,0.000000,22.825923,0.096895,99,99,0,0,0,1,0
4,49999,8,40000,16,30000,40,9999,0.100000,99,495,0.000000,2,1.000000,28.581965,22.583576,99,99,0,0,0,0,0
4,49999,9,40000,16,30000,40,9999,0.100000,99,495,0.000000,3,1.000000,28.052180,13.097098,99,99,0,0,0,0,0
4,49999,10,40000,16,30000,40,9999,0.100000,99,495,0.000000,1,1.000000,27.725954,24.228485,99,99,0,0,0,0,0
4,49999,11,40000,16,30000,1,9999,0.100000,99,495,18.099232,2,4.000000,25.154019,16.012570,99,99,0,0,0,1,0
4,49999,12,40000,16,30000,0,9999,0.100000,99,495,0.087203,1,0.000000,27.132834,0.517325,99,99,0,0,0,0,1
4,49999,13,40000,16,30000,1,9999,0.100000,99,495,18.099232,3,3.000000,25.559204,15.296800,99,99,0,0,0,1,0
4,49999,14,40000,16,30000,0,9999,0.100000,99,495,0.172493,3,0.000000,27.846875,1.089447,99,99,0,0,0,1,0
4,49999,15,40000,16,30000,0,9999,0.100000,99,495,0.526550,3,0.000000,13.215737,0.321121,99,99,0,0,1,0,0
4,49999,16,40000,63,30000,2,9999,0.100000,99,495,28.074765,1,5.000000,23.250364,7.909091,99,99,0,0,1,0,0
4,49999,17,40000,16,30000,40,9999,0.100000,99,495,0.000000,1,1.000000,20.351534,10.153191,99,99,0,0,0,0,0
4,49999,18,40000,16,30000,40,9999,0.100000,99,495,0.000000,4,1.000000,27.823554,22.948018,99,99,0,0,0,0,0
4,49999,19,40000,16,30000,0,9999,0.100000,99,495,0.000002,3,0.000000,14.365091,0.078390,99,99,0,0,0,0,1
4,49999,20,40000,16,30000,40,9999,0.100000,99,495,0.000000,2,0.000000,38.015032,3.624676,99,99,0,0,0,0,0
4,49999,21,40000,16,30000,0,9999,0.100000,99,495,0.150745,3,0.000000,33.101876,0.139356,99,99,0,0,1,0,0
4,49999,22,40000,16,30000,40,9999,0.100000,99,495,0.000000,2,0.000000,24.748953,1.129966,99,99,0,0,0,0,0
4,49999,23,40000,16,30000,0,9999,0.100000,99,495,0.687098,1,0.000000,26.223034,0.557567,99,99,0,0,0,0,1
4,49999,24,40000,16,30000,0,9999,0.100000,99,495,0.002472,1,0.000000,29.387656,0.106730,99,99,0,0,0,1,0
4,49999,25,40000,16,30000,40,9999,0.100000,99,495,0.000000,2,0.000000,31.437105,1.321837,99,99,0,0,0,0,0
4,49999,26,40000,16,30000,40,9999,0.100000,99,495,0.000000,2,0.000000,26.044764,17.122158,99,99,0,0,0,0,0
4,49999,27,40000,16,30000,41,9999,0.100000,99,495,0.000000,3,3.000000,26.436032,18.748551,99,99,0,0,0,0,0
4,49999,28,40000,16,30000,41,9999,0.100000,99,495,0.000000,3,3.000000,25.648789,18.872200,99,99,0,0,0,0,0
4,49999,29,40000,16,30000,40,9999,0.100000,99,495,0.000000,2,0.000000,13.137158,2.327625,99,99,0,0,0,0,0
4,49999,30,40000,16,30000,40,9999,0.100000,99,495,0.000000,1,0.000000,27.518275,0.655879,99,99,0,0,0,0,0
4,49999,31,40000,16,30000,42,9999,0.100000,99,495,0.000000,2,6.000000,28.413409,12.286161,99,99,0,0,0,0,0
4,49999,32,40000,16,30000,40,9999,0.100000,99,495,0.000000,2,1.000000,27.675444,16.443757,99,99,0,0,0,0,0
4,49999,33,40000,16,30000,2,9999,0.100000,99,495,28.075506,2,5.000000,23.327050,7.916483,99,99,0,0,1,0,0
4,49999,34,40000,16,30000,40,9999,0.100000,99,495,0.000000,1,0.000000,34.220976,0.233989,99,99,0,0,0,0,0
4,49999,35,40000,16,30000,40,9999,0.100000,99,495,0.000000,3,0.000000,31.155413,2.018836,99,99,0,0,0,0,0
4,49999,36,40000,16,30000,40,9999,0.100000,99,495,0.000000,2,1.000000,27.987663,17.432698,99,99,0,0,0,0,0
4,49999,37,40000,16,30000,40,9999,0.100000,99,495,0.000000,3,1.000000,23.811860,1.878683,99,99,0,0,0,0,0
4,49999,38,40000,16,30000,40,9999,0.100000,99,495,0.000000,1,0.000000,22.593028,0.132679,99,99,0,0,0,0,0
4,49999,39,40000,16,30000,40,9999,0.100000,99,495,0.000000,3,0.000000,17.892688,1.044060,99,99,0,0,0,0,0
4,49999,40,40000,16,30000,40,9999,0.100000,99,495,0.000000,2,0.000000,34.674687,0.227663,99,99,0,0,0,0,0
4,49999,41,40000,16,30000,40,9999,0.100000,99,495,0.000000,3,0.000000,32.581058,8.997645,99,99,0,0,0,0,0
4,49999,42,40000,16,30000,40,9999,0.100000,99,495,0.000000,1,1.000000,26.810218,11.432091,99,99,0,0,0,0,0
4,49999,43,40000,16,30000,40,9999,0.100000,99,495,0.000000,4,0.000000,27.670658,0.846338,99,99,0,0,0,0,0
4,49999,44,40000,16,30000,41,9999,0.100000,99,495,0.000000,2,4.000000,23.159188,16.347971,99,99,0,0,0,0,0
4,49999,45,40000,16,30000,40,9999,0.100000,99,495,0.000000,2,2.000000,22.386023,14.808214,99,99,0,0,0,0,0
4,49999,46,40000,16,30000,40,9999,0.100000,99,495,0.000000,3,0.000000,26.562963,1.633705,99,99,0,0,0,0,0
4,49999,47,40000,16,30000,40,9999,0.100000,99,495,0.000000,2,1.000000,28.276014,23.814492,99,99,0,0,0,0,0
4,49999,48,40000,16,30000,40,9999,0.135000,99,495,0.000000,2,2.000000,26.870660,17.155762,99,99,0,0,0,0,0
4,49999,49,40000,16,30000,40,9999,0.100000,99,495,0.000000,2,3.000000,30.197444,15.088567,99,99,0,0,0,0,0
4,49999,50,40000,16,30000,40,9999,0.100000,99,495,0.000000,1,1.000000,21.122650,13.934139,99,99,0,0,0,0,0
4,49999,51,40000,16,30000,1,9999,0.100000,99,495,18.099232,3,3.000000,25.432414,12.698121,99,99,0,0,0,1,0
4,49999,52,40000,16,30000,2,9999,0.100000,99,495,28.075506,2,5.000000,23.387128,7.921547,99,99,0,0,1,0,0
4,49999,53,40000,16,30000,41,9999,0.100000,99,495,0.000000,1,3.000000,26.096293,11.476788,99,99,0,0,0,0,0
4,49999,54,40000,16,30000,41,9999,0.100000,99,495,0.000000,1,5.000000,28.373246,13.538460,99,99,0,0,0,0,0
4,49999,55,40000,16,30000,1,9999,0.100000,99,495,18.099159,1,3.000000,25.284818,14.843005,99,99,0,0,0,1,0
4,49999,56,40000,16,30000,40,9999,0.100000,99,495,0.000000,1,0.000000,27.017192,0.324119,99,99,0,0,0,0,0
4,49999,57,40000,16,30000,0,9999,0.100000,99,495,0.461835,2,0.000000,24.613068,0.311727,99,99,0,0,0,0,1
4,49999,58,40000,16,30000,40,9999,0.100000,99,495,0.000000,3,0.000000,26.862209,0.272230,99,99,0,0,0,0,0
4,49999,59,40000,16,30000,40,9999,0.100000,99,495,0.000000,3,0.000000,31.384588,0.678382,99,99,0,0,0,0,0
4,49999,60,40000,16,30000,0,9999,0.100000,99,495,0.264833,1,0.000000,35.446485,0.871037,99,99,0,0,1,0,0
4,49999,61,40000,16,30000,40,9999,0.100000,99,495,0.000000,1,1.000000,19.434651,12.335404,99,99,0,0,0,0,0
4,49999,62,40000,16,30000,40,9999,0.100000,99,495,0.000000,2,1.000000,31.797069,2.389621,99,99,0,0,0,0,0
4,49999,63,40000,16,30000,42,9999,0.100000,99,495,0.000000,3,8.000000,35.437824,20.779638,99,99,0,0,0,0,0
4,49999,64,40000,16,30000,40,9999,0.100000,99,495,0.000000,1,0.000000,26.794480,0.719376,99,99,0,0,0,0,0
4,49999,65,40000,16,30000,40,9999,0.100000,99,495,0.000000,1,1.000000,26.573310,20.975110,99,99,0,0,0,0,0
4,49999,66,40000,16,30000,40,9999,0.100000,99,495,0.000000,2,0.000000,27.373089,1.251034,99,99,0,0,0,0,0
4,49999,67,40000,16,30000,41,9999,0.100000,99,495,0.000000,2,3.000000,27.750131,4.069388,99,99,0,0,0,0,0
4,49999,68,40000,16,30000,0,9999,0.100000,99,495,0.815304,1,0.000000,24.251731,0.570969,99,99,0,0,0,1,0
4,49999,69,40000,16,30000,40,9999,0.100000,99,495,0.000000,2,2.000000,27.503475,13.995840,99,99,0,0,0,0,0
4,49999,70,40000,16,30000,40,9999,0.100000,99,495,0.000000,1,1.000000,24.044478,12.289579,99,99,0,0,0,0,0
4,49999,71,40000,16,30000,40,9999,0.100000,99,495,0.000000,1,1.000000,33.549824,1.665979,99,99,0,0,0,0,0
4,49999,72,40000,16,30000,40,9999,0.100000,99,495,0.000000,3,1.000000,19.242818,13.877943,99,99,0,0,0,0,0
4,49999,73,40000,16,30000,41,9999,0.100000,99,495,0.000000,4,4.000000,30.176874,16.497634,99,99,0,0,0,0,0
4,49999,74,40000,16,30000,40,9999,0.100000,99,495,0.000000,4,1.000000,26.730878,12.058997,99,99,0,0,0,0,0
4,49999,75,40000,16,30000,40,9999,0.100000,99,495,0.000000,2,0.000000,33.342285,0.231623,99,99,0,0,0,0,0
4,49999,76,40000,16,30000,40,9999,0.100000,99,495,0.000000,3,0.000000,26.902829,0.563760,99,99,0,0,0,0,0
4,49999,77,40000,16,30000,91,9999,0.100000,99,495,25.145393,3,5.000000,24.141524,15.094747,99,99,1,0,0,0,0
4,49999,78,40000,16,30000,41,9999,0.100000,99,495,0.000000,1,3.000000,20.305414,19.779578,99,99,0,0,0,0,0
4,49999,79,40000,16,30000,42,9999,0.100000,99,495,0.000000,1,8.000000,37.539131,18.776605,99,99,0,0,0,0,0
4,49999,80,40000,16,30000,40,9999,0.100000,99,495,0.000000,2,0.000000,35.360156,2.347146,99,99,0,0,0,0,0
4,49999,81,40000,16,30000,40,9999,0.100000,99,495,0.000000,2,0.000000,25.916451,1.261717,99,99,0,0,0,0,0
4,49999,82,40000,16,30000,0,9999,0.100000,99,495,0.253042,2,0.000000,29.523324,0.179343,99,99,0,1,0,0,0
4,49999,83,40000,16,30000,40,9999,0.100000,99,495,0.000000,2,2.000000,20.354013,15.305316,99,99,0,0,0,0,0
4,49999,84,40000,16,30000,40,9999,0.100000,99,495,0.000000,2,1.000000,28.654035,9.080638,99,99,0,0,0,0,0
4,49999,85,40000,16,30000,40,9999,0.100000,99,495,0.000000,3,0.000000,26.657055,0.299442,99,99,0,0,0,0,0
4,49999,86,40000,16,30000,41,9999,0.100000,99,495,0.000000,2,3.000000,25.597819,22.708374,99,99,0,0,0,0,0
4,49999,87,40000,16,30000,40,9999,0.135000,99,495,0.000000,1,0.000000,25.172954,0.162243,99,99,0,0,0,0,0
4,49999,88,40000,16,30000,40,9999,0.100000,99,495,0.000000,2,0.000000,21.578093,1.881015,99,99,0,0,0,0,0
4,49999,89,40000,16,30000,40,9999,0.100000,99,495,0.000000,2,0.000000,32.933410,0.334723,99,99,0,0,0,0,0
4,49999,90,40000,16,30000,40,9999,0.100000,99,495,0.000000,1,0.000000,27.243917,0.931144,99,99,0,0,0,0,0
4,49999,91,40000,16,30000,0,9999,0.100000,99,495,0.414269,3,0.000000,32.431450,0.241516,99,99,0,1,0,0,0
4,49999,92,40000,16,30000,40,9999,0.100000,99,495,0.000000,1,0.000000,22.746422,0.104561,99,99,0,0,0,0,0
4,49999,93,40000,16,30000,41,9999,0.100000,99,495,0.000000,2,4.000000,26.367572,17.182433,99,99,0,0,0,0,0
4,49999,94,40000,16,30000,40,9999,0.100000,99,495,0.000000,1,0.000000,24.367306,0.395043,99,99,0,0,0,0,0
4,49999,95,40000,16,30000,40,9999,0.100000,99,495,0.000000,2,0.000000,24.331099,0.679462,99,99,0,0,0,0,0
4,49999,96,40000,16,30000,40,9999,0.100000,99,495,0.000000,2,0.000000,24.964241,0.309907,99,99,0,0,0,0,0
4,49999,97,40000,16,30000,40,9999,0.100000,99,495,0.000000,2,2.000000,19.914953,13.196248,99,99,0,0,0,0,0
4,49999,98,40000,16,30000,40,9999,0.100000,99,495,0.000000,1,0.000000,24.203259,0.274321,99,99,0,0,0,0,0
4,49999,99,40000,16,30000,40,9999,0.100000,99,495,0.000000,2,0.000000,31.273228,1.467193,99,99,0,0,0,0,0
5,59999,0,50000,52,40000,40,9999,0.100000,99,594,0.000000,3,0.000000,32.449147,0.552335,99,99,0,0,0,0,0
5,59999,1,50000,52,40000,0,9999,0.100000,99,594,0.657244,2,0.000000,20.754886,0.617165,99,99,0,1,0,0,0
5,59999,2,50000,52,40000,0,9999,0.100000,99,594,0.000861,2,0.000000,22.676801,0.086714,99,99,0,0,0,0,1
5,59999,3,50000,52,40000,41,9999,0.100000,99,594,0.000000,2,3.000000,20.551931,16.718999,99,99,0,0,0,0,0
5,59999,4,50000,52,40000,40,9999,0.100000,99,594,0.000000,3,0.000000,22.414750,0.077708,99,99,0,0,0,0,0
5,59999,5,50000,33,40000,40,9999,0.100000,99,594,0.000000,2,1.000000,27.501459,16.029318,99,99,0,0,0,0,0
5,59999,6,50000,33,40000,40,9999,0.100000,99,594,0.000000,3,0.000000,22.982204,16.848284,99,99,0,0,0,0,0
5,59999,7,50000,52,40000,0,9999,0.100000,99,594,0.045562,1,2.000000,22.829170,5.186952,99,99,0,0,0,1,0
5,59999,8,50000,52,40000,40,9999,0.100000,99,594,0.000000,2,1.000000,27.757097,23.971939,99,99,0,0,0,0,0
5,59999,9,50000,33,40000,40,9999,0.100000,99,594,0.000000,3,1.000000,29.223377,18.377502,99,99,0,0,0,0,0
5,59999,10,50000,33,40000,40,9999,0.100000,99,594,0.000000,1,1.000000,27.737891,23.633431,99,99,0,0,0,0,0
5,59999,11,50000,33,40000,42,9999,0.100000,99,594,0.000000,3,6.000000,26.262868,19.667618,99,99,0,0,0,0,0
5,59999,12,50000,52,40000,0,9999,0.100000,99,594,0.065572,1,0.000000,27.092056,0.396930,99,99,0,0,0,0,1
5,59999,13,50000,33,40000,40,9999,0.100000,99,594,0.000000,4,2.000000,26.447248,16.439494,99,99,0,0,0,0,0
5,59999,14,50000,33,40000,0,9999,0.100000,99,594,2.308946,3,0.000000,27.565156,0.837635,99,99,0,0,0,1,0
5,59999,15,50000,52,40000,44,9999,0.100000,99,594,0.000000,4,6.000000,13.081864,14.084611,99,99,0,0,0,0,0
5,59999,16,50000,52,40000,41,9999,0.100000,99,594,0.000000,2,3.000000,26.679295,19.680777,99,99,0,0,0,0,0
5,59999,17,50000,33,40000,40,9999,0.100000,99,594,0.000000,1,1.000000,19.132481,18.446740,99,99,0,0,0,0,0
5,59999,18,50000,33,40000,40,9999,0.100000,99,594,0.000000,4,1.000000,27.540294,23.802471,99,99,0,0,0,0,0
5,59999,19,50000,33,40000,0,9999,0.100000,99,594,0.015662,3,0.000000,14.363763,0.088061,99,99,0,0,0,0,1
5,59999,20,50000,52,40000,40,9999,0.100000,99,594,0.000000,2,0.000000,38.017814,3.551315,99,99,0,0,0,0,0
5,59999,21,50000,52,40000,0,9999,0.100000,99,594,0.084278,3,0.000000,33.084547,0.129858,99,99,0,0,1,0,0
5,59999,22,50000,33,40000,40,9999,0.100000,99,594,0.000000,2,0.000000,24.854267,1.701323,99,99,0,0,0,0,0
5,59999,23,50000,52,40000,42,9999,0.100000,99,594,0.000000,1,8.000000,26.104220,15.246237,99,99,0,0,0,0,0
5,59999,24,50000,33,40000,0,9999,0.100000,99,594,0.002206,1,0.000000,29.388916,0.106070,99,99,0,0,0,1,0
5,59999,25,50000,33,40000,40,9999,0.100000,99,594,0.000000,2,0.000000,31.337573,1.374913,99,99,0,0,0,0,0
5,59999,26,50000,33,40000,42,9999,0.100000,99,594,0.000000,2,6.000000,25.873247,15.231719,99,99,0,0,0,0,0
5,59999,27,50000,33,40000,40,9999,0.100000,99,594,0.000000,3,0.000000,29.530981,1.867741,99,99,0,0,0,0,0
5,59999,28,50000,52,40000,40,9999,0.100000,99,594,0.000000,3,2.000000,26.332265,18.884914,99,99,0,0,0,0,0
5,59999,29,50000,52,40000,41,9999,0.100000,99,594,0.000000,2,2.000000,12.914491,4.788507,99,99,0,0,0,0,0
5,59999,30,50000,52,40000,40,9999,0.100000,99,594,0.000000,1,0.000000,27.367202,0.879515,99,99,0,0,0,0,0
5,59999,31,50000,52,40000,40,9999,0.100000,99,594,0.000000,2,0.000000,32.580061,0.111044,99,99,0,0,0,0,0
5,59999,32,50000,52,40000,40,9999,0.100000,99,594,0.000000,2,2.000000,26.684541,9.414185,99,99,0,0,0,0,0
5,59999,33,50000,52,40000,41,9999,0.100000,99,594,0.000000,3,4.000000,26.693720,21.771625,99,99,0,0,0,0,0
5,59999,34,50000,33,40000,40,9999,0.100000,99,594,0.000000,1,0.000000,34.221254,0.237327,99,99,0,0,0,0,0
5,59999,35,50000,33,40000,40,9999,0.100000,99,594,0.000000,3,0.000000,31.034957,2.039366,99,99,0,0,0,0,0
5,59999,36,50000,33,40000,40,9999,0.100000,99,594,0.000000,2,2.000000,27.368900,13.897209,99,99,0,0,0,0,0
5,59999,37,50000,33,40000,41,9999,0.100000,99,594,0.000000,3,5.000000,25.295398,18.250850,99,99,0,0,0,0,0
5,59999,38,50000,33,40000,40,9999,0.100000,99,594,0.000000,1,0.000000,22.588509,0.144327,99,99,0,0,0,0,0
5,59999,39,50000,52,40000,40,9999,0.100000,99,594,0.000000,3,0.000000,17.594114,1.155733,99,99,0,0,0,0,0
5,59999,40,50000,52,40000,40,9999,0.100000,99,594,0.000000,2,0.000000,34.675913,0.236833,99,99,0,0,0,0,0
5,59999,41,50000,52,40000,40,9999,0.100000,99,594,0.000000,3,0.000000,32.976442,3.064238,99,99,0,0,0,0,0
5,59999,42,50000,33,40000,42,9999,0.100000,99,594,0.000000,1,7.000000,26.687479,11.248649,99,99,0,0,0,0,0
5,59999,43,50000,52,40000,40,9999,0.100000,99,594,0.000000,4,0.000000,27.454798,0.906775,99,99,0,0,0,0,0
5,59999,44,50000,33,40000,40,9999,0.100000,99,594,0.000000,2,2.000000,21.352222,16.221702,99,99,0,0,0,0,0
5,59999,45,50000,33,40000,41,9999,0.100000,99,594,0.000000,2,3.000000,20.416859,18.533344,99,99,0,0,0,0,0
5,59999,46,50000,52,40000,0,9999,0.100000,99,594,3.507445,3,2.000000,26.332052,2.523608,99,99,0,0,0,0,1
5,59999,47,50000,33,40000,41,9999,0.100000,99,594,0.000000,3,3.000000,26.317239,14.586177,99,99,0,0,0,0,0
5,59999,48,50000,33,40000,40,9999,0.100000,99,594,0.000000,2,1.000000,25.685475,15.374745,99,99,0,0,0,0,0
5,59999,49,50000,33,40000,40,9999,0.100000,99,594,0.000000,2,0.000000,29.693834,17.071521,99,99,0,0,0,0,0
5,59999,50,50000,52,40000,41,9999,0.100000,99,594,0.000000,1,3.000000,20.035636,13.868183,99,99,0,0,0,0,0
5,59999,51,50000,33,40000,40,9999,0.100000,99,594,0.000000,4,2.000000,25.210014,14.717587,99,99,0,0,0,0,0
5,59999,52,50000,33,40000,41,9999,0.100000,99,594,0.000000,3,3.000000,27.544879,19.668090,99,99,0,0,0,0,0
5,59999,53,50000,52,40000,40,9999,0.100000,99,594,0.000000,2,1.000000,23.344999,8.333009,99,99,0,0,0,0,0
5,59999,54,50000,52,40000,40,9999,0.100000,99,594,0.000000,2,1.000000,31.670133,2.110251,99,99,0,0,0,0,0
5,59999,55,50000,52,40000,42,9999,0.100000,99,594,0.000000,2,8.000000,26.427917,12.431776,99,99,0,0,0,0,0
5,59999,56,50000,52,40000,40,9999,0.100000,99,594,0.000000,1,0.000000,26.996070,0.284986,99,99,0,0,0,0,0
5,59999,57,50000,52,40000,0,9999,0.100000,99,594,0.647035,2,0.000000,24.735787,1.173349,99,99,0,0,0,0,1
5,59999,58,50000,33,40000,40,9999,0.100000,99,594,0.000000,3,1.000000,26.790485,2.173523,99,99,0,0,0,0,0
5,59999,59,50000,52,40000,40,9999,0.100000,99,594,0.000000,3,0.000000,31.286741,0.702108,99,99,0,0,0,0,0
5,59999,60,50000,33,40000,41,9999,0.100000,99,594,0.000000,2,7.000000,35.525747,22.295024,99,99,0,0,0,0,0
5,59999,61,50000,52,40000,40,9999,0.100000,99,594,0.000000,1,1.000000,18.219628,15.667428,99,99,0,0,0,0,0
5,59999,62,50000,33,40000,40,9999,0.100000,99,594,0.000000,2,0.000000,32.817002,1.086240,99,99,0,0,0,0,0
5,59999,63,50000,52,40000,40,9999,0.100000,99,594,0.000000,4,1.000000,26.652791,13.979195,99,99,0,0,0,0,0
5,59999,64,50000,52,40000,40,9999,0.100000,99,594,0.000000,1,0.000000,26.808246,0.763154,99,99,0,0,0,0,0
5,59999,65,50000,52,40000,40,9999,0.100000,99,594,0.000000,1,2.000000,25.971994,18.400895,99,99,0,0,0,0,0
5,59999,66,50000,33,40000,40,9999,0.100000,99,594,0.000000,2,0.000000,27.272664,1.354376,99,99,0,0,0,0,0
5,59999,67,50000,52,40000,40,9999,0.100000,99,594,0.000000,2,0.000000,30.493753,0.136338,99,99,0,0,0,0,0
5,59999,68,50000,52,40000,0,9999,0.100000,99,594,1.009017,1,0.000000,24.032289,0.574904,99,99,0,0,0,1,0
5,59999,69,50000,33,40000,40,9999,0.100000,99,594,0.000000,2,0.000000,27.476809,12.587009,99,99,0,0,0,0,0
5,59999,70,50000,33,40000,40,9999,0.100000,99,594,0.000000,1,1.000000,24.572001,12.788927,99,99,0,0,0,0,0
5,59999,71,50000,52,40000,42,9999,0.100000,99,594,0.000000,1,7.000000,32.535357,22.276465,99,99,0,0,0,0,0
5,59999,72,50000,52,40000,40,9999,0.100000,99,594,0.000000,3,1.000000,17.947635,15.637946,99,99,0,0,0,0,0
5,59999,73,50000,33,40000,40,9999,0.100000,99,594,0.000000,4,1.000000,27.346058,15.063098,99,99,0,0,0,0,0
5,59999,74,50000,52,40000,40,9999,0.100000,99,594,0.000000,4,2.000000,25.418774,15.622148,99,99,0,0,0,0,0
5,59999,75,50000,52,40000,40,9999,0.100000,99,594,0.000000,2,0.000000,33.323667,0.192645,99,99,0,0,0,0,0
5,59999,76,50000,52,40000,40,9999,0.100000,99,594,0.000000,3,0.000000,26.899385,0.527462,99,99,0,0,0,0,0
5,59999,77,50000,52,40000,41,9999,0.100000,99,594,0.000000,4,5.000000,28.088792,17.289579,99,99,0,0,0,0,0
5,59999,78,50000,33,40000,41,9999,0.100000,99,594,0.000000,2,2.000000,18.899320,35.063968,99,99,0,0,0,0,0
5,59999,79,50000,52,40000,40,9999,0.100000,99,594,0.000000,2,2.000000,30.190273,14.904709,99,99,0,0,0,0,0
5,59999,80,50000,52,40000,0,9999,0.100000,99,594,0.000000,2,0.000000,35.528488,1.779810,99,99,0,0,1,0,0
5,59999,81,50000,33,40000,40,9999,0.100000,99,594,0.000000,2,2.000000,25.759656,5.174225,99,99,0,0,0,0,0
5,59999,82,50000,52,40000,0,9999,0.100000,99,594,0.222414,2,0.000000,29.548647,0.173359,99,99,0,1,0,0,0
5,59999,83,50000,52,40000,40,9999,0.100000,99,594,0.000000,2,1.000000,18.974838,16.459863,99,99,0,0,0,0,0
5,59999,84,50000,52,40000,40,9999,0.100000,99,594,0.000000,2,1.000000,28.838878,14.215458,99,99,0,0,0,0,0
5,59999,85,50000,33,40000,40,9999,0.100000,99,594,0.000000,3,2.000000,26.570902,2.343948,99,99,0,0,0,0,0
5,59999,86,50000,33,40000,41,9999,0.100000,99,594,0.000000,2,3.000000,24.900046,11.303308,99,99,0,0,0,0,0
5,59999,87,50000,33,40000,40,9999,0.100000,99,594,0.000000,1,0.000000,25.243936,1.063415,99,99,0,0,0,0,0
5,59999,88,50000,33,40000,41,9999,0.100000,99,594,0.000000,2,3.000000,20.941910,12.531887,99,99,0,0,0,0,0
5,59999,89,50000,52,40000,40,9999,0.100000,99,594,0.000000,2,0.000000,32.912809,0.290227,99,99,0,0,0,0,0
5,59999,90,50000,52,40000,40,9999,0.100000,99,594,0.000000,1,0.000000,27.185143,0.625616,99,99,0,0,0,0,0
5,59999,91,50000,52,40000,0,9999,0.100000,99,594,0.204498,3,0.000000,32.405365,0.237784,99,99,0,1,0,0,0
5,59999,92,50000,33,40000,40,9999,0.100000,99,594,0.000000,1,0.000000,22.747199,0.161240,99,99,0,0,0,0,0
5,59999,93,50000,33,40000,40,9999,0.100000,99,594,0.000000,2,1.000000,25.010432,2.233738,99,99,0,0,0,0,0
5,59999,94,50000,33,40000,41,9999,0.100000,99,594,0.000000,1,3.000000,24.520147,14.315733,99,99,0,0,0,0,0
5,59999,95,50000,33,40000,40,9999,0.100000,99,594,0.000000,2,0.000000,24.109325,1.947897,99,99,0,0,0,0,0
5,59999,96,50000,33,40000,40,9999,0.100000,99,594,0.000000,2,0.000000,25.052104,1.205234,99,99,0,0,0,0,0
5,59999,97,50000,33,40000,40,9999,0.100000,99,594,0.000000,2,1.000000,19.559478,14.974216,99,99,0,0,0,0,0
5,59999,98,50000,33,40000,40,9999,0.100000,99,594,0.000000,1,0.000000,24.001766,0.250536,99,99,0,0,0,0,0
5,59999,99,50000,52,40000,40,9999,0.100000,99,594,0.000000,2,0.000000,31.155431,1.454891,99,99,0,0,0,0,0
6,69999,0,60000,46,50000,40,9999,0.100000,99,693,0.000000,3,0.000000,32.457513,0.565419,99,99,0,0,0,0,0
6,69999,1,60000,46,50000,0,9999,0.100000,99,693,4.396473,2,1.000000,20.604716,3.797058,99,99,0,1,0,0,0
6,69999,2,60000,46,50000,40,9999,0.100000,99,693,0.000000,2,0.000000,22.677529,0.085367,99,99,0,0,0,0,0
6,69999,3,60000,46,50000,40,9999,0.100000,99,693,0.000000,2,2.000000,20.734287,10.927011,99,99,0,0,0,0,0
6,69999,4,60000,46,50000,0,9999,0.100000,99,693,0.000932,3,0.000000,22.415186,0.077249,99,99,0,0,0,0,1
6,69999,5,60000,46,50000,40,9999,0.100000,99,693,0.000000,2,2.000000,25.823914,16.442672,99,99,0,0,0,0,0
6,69999,6,60000,46,50000,40,9999,0.100000,99,693,0.000000,3,0.000000,22.970593,20.034491,99,99,0,0,0,0,0
6,69999,7,60000,46,50000,0,9999,0.100000,99,693,0.428977,1,0.000000,22.826461,0.458163,99,99,0,0,0,1,0
6,69999,8,60000,46,50000,40,9999,0.100000,99,693,0.000000,2,2.000000,26.514545,23.643680,99,99,0,0,0,0,0
6,69999,9,60000,46,50000,40,9999,0.100000,99,693,0.000000,3,2.000000,30.031253,18.576049,99,99,0,0,0,0,0
6,69999,10,60000,46,50000,40,9999,0.100000,99,693,0.000000,1,1.000000,27.296584,22.498003,99,99,0,0,0,0,0
6,69999,11,60000,46,50000,41,9999,0.100000,99,693,0.000000,4,4.000000,24.855775,14.821509,99,99,0,0,0,0,0
6,69999,12,60000,46,50000,0,9999,0.100000,99,693,0.021326,1,0.000000,27.084925,0.231526,99,99,0,0,0,0,1
6,69999,13,60000,46,50000,40,9999,0.100000,99,693,0.000000,4,2.000000,26.398504,11.283969,99,99,0,0,0,0,0
6,69999,14,60000,46,50000,0,9999,0.100000,99,693,1.177868,3,1.000000,27.875035,1.711304,99,99,0,0,0,1,0
6,69999,15,60000,46,50000,40,9999,0.100000,99,693,0.000000,5,1.000000,18.584144,7.414636,99,99,0,0,0,0,0
6,69999,16,60000,46,50000,40,9999,0.100000,99,693,0.000000,3,2.000000,25.803511,14.584391,99,99,0,0,0,0,0
6,69999,17,60000,46,50000,40,9999,0.100000,99,693,0.000000,1,1.000000,19.821462,13.504984,99,99,0,0,0,0,0
6,69999,18,60000,46,50000,40,9999,0.100000,99,693,0.000000,4,1.000000,28.275855,22.345243,99,99,0,0,0,0,0
6,69999,19,60000,46,50000,40,9999,0.100000,99,693,0.000000,3,0.000000,14.364050,0.081797,99,99,0,0,0,0,0
6,69999,20,60000,46,50000,40,9999,0.100000,99,693,0.000000,2,0.000000,38.017183,3.266059,99,99,0,0,0,0,0
6,69999,21,60000,46,50000,0,9999,0.100000,99,693,0.079593,3,0.000000,33.075359,0.129690,99,99,0,0,1,0,0
6,69999,22,60000,46,50000,40,9999,0.100000,99,693,0.000000,2,0.000000,25.418865,2.067374,99,99,0,0,0,0,0
6,69999,23,60000,46,50000,42,9999,0.100000,99,693,0.000000,2,6.000000,27.472740,19.582831,99,99,0,0,0,0,0
6,69999,24,60000,46,50000,0,9999,0.065000,99,693,0.002804,1,0.000000,29.389827,0.107045,99,99,0,0,0,1,0
6,69999,25,60000,46,50000,40,9999,0.100000,99,693,0.000000,2,0.000000,31.243049,1.363617,99,99,0,0,0,0,0
6,69999,26,60000,46,50000,41,9999,0.100000,99,693,0.000000,3,3.000000,26.320290,6.640782,99,99,0,0,0,0,0
6,69999,27,60000,46,50000,40,9999,0.100000,99,693,0.000000,3,0.000000,30.169043,1.218820,99,99,0,0,0,0,0
6,69999,28,60000,46,50000,40,9999,0.100000,99,693,0.000000,3,1.000000,24.979007,17.007641,99,99,0,0,0,0,0
6,69999,29,60000,46,50000,0,9999,0.100000,99,693,0.020702,2,0.000000,14.021666,0.152245,99,99,0,0,0,0,1
6,69999,30,60000,46,50000,40,9999,0.100000,99,693,0.000000,1,1.000000,27.805664,1.772973,99,99,0,0,0,0,0
6,69999,31,60000,46,50000,40,9999,0.100000,99,693,0.000000,2,0.000000,32.580776,0.109804,99,99,0,0,0,0,0
6,69999,32,60000,46,50000,40,9999,0.100000,99,693,0.000000,2,2.000000,24.677876,12.227117,99,99,0,0,0,0,0
6,69999,33,60000,46,50000,40,9999,0.100000,99,693,0.000000,3,0.000000,30.294273,0.141422,99,99,0,0,0,0,0
6,69999,34,60000,46,50000,40,9999,0.100000,99,693,0.000000,1,0.000000,34.222477,0.232085,99,99,0,0,0,0,0
6,69999,35,60000,46,50000,40,9999,0.100000,99,693,0.000000,3,0.000000,30.930368,2.098290,99,99,0,0,0,0,0
6,69999,36,60000,46,50000,40,9999,0.100000,99,693,0.000000,2,1.000000,26.252928,11.925368,99,99,0,0,0,0,0
6,69999,37,60000,46,50000,44,9999,0.100000,99,693,0.000000,3,13.000000,27.917679,25.757806,99,99,0,0,0,0,0
6,69999,38,60000,46,50000,40,9999,0.100000,99,693,0.000000,1,0.000000,22.580663,0.528140,99,99,0,0,0,0,0
6,69999,39,60000,46,50000,40,9999,0.100000,99,693,0.000000,3,0.000000,17.163168,1.025372,99,99,0,0,0,0,0
6,69999,40,60000,46,50000,40,9999,0.100000,99,693,0.000000,2,0.000000,34.676174,0.232588,99,99,0,0,0,0,0
6,69999,41,60000,46,50000,40,9999,0.100000,99,693,0.000000,3,1.000000,32.943686,19.027458,99,99,0,0,0,0,0
6,69999,42,60000,46,50000,42,9999,0.100000,99,693,0.000000,2,6.000000,20.767140,7.306098,99,99,0,0,0,0,0
6,69999,43,60000,46,50000,40,9999,0.100000,99,693,0.000000,4,1.000000,27.832287,1.689030,99,99,0,0,0,0,0
6,69999,44,60000,46,50000,40,9999,0.100000,99,693,0.000000,2,0.000000,19.984624,11.139130,99,99,0,0,0,0,0
6,69999,45,60000,46,50000,40,9999,0.100000,99,693,0.000000,2,2.000000,20.182576,12.744036,99,99,0,0,0,0,0
6,69999,46,60000,14,50000,0,9999,0.100000,99,693,0.351916,4,0.000000,26.502429,0.626137,99,99,0,0,0,0,1
6,69999,47,60000,46,50000,40,9999,0.100000,99,693,0.000000,4,0.000000,26.365332,2.744456,99,99,0,0,0,0,0
6,69999,48,60000,46,50000,43,9999,0.100000,99,693,0.000000,2,10.000000,25.206576,18.882037,99,99,0,0,0,0,0
6,69999,49,60000,46,50000,40,9999,0.100000,99,693,0.000000,2,3.000000,30.222252,19.027120,99,99,0,0,0,0,0
6,69999,50,60000,46,50000,42,9999,0.100000,99,693,0.000000,2,5.000000,21.144894,18.194461,99,99,0,0,0,0,0
6,69999,51,60000,46,50000,40,9999,0.100000,99,693,0.000000,4,1.000000,24.397153,17.308937,99,99,0,0,0,0,0
6,69999,52,60000,46,50000,41,9999,0.100000,99,693,0.000000,4,5.000000,25.487470,16.264955,99,99,0,0,0,0,0
6,69999,53,60000,46,50000,40,9999,0.100000,99,693,0.000000,2,0.000000,24.221650,8.486833,99,99,0,0,0,0,0
6,69999,54,60000,46,50000,40,9999,0.100000,99,693,0.000000,2,0.000000,32.031572,0.135122,99,99,0,0,0,0,0
6,69999,55,60000,46,50000,91,9999,0.100000,99,693,0.000000,3,3.000000,26.528854,4.053837,99,99,1,0,0,0,0
6,69999,56,60000,46,50000,40,9999,0.135000,99,693,0.000000,1,0.000000,27.002443,0.438302,99,99,0,0,0,0,0
6,69999,57,60000,46,50000,0,9999,0.100000,99,693,0.691342,2,0.000000,25.313358,0.389730,99,99,0,0,0,0,1
6,69999,58,60000,46,50000,40,9999,0.100000,99,693,0.000000,3,0.000000,26.957735,1.152269,99,99,0,0,0,0,0
6,69999,59,60000,46,50000,40,9999,0.100000,99,693,0.000000,3,0.000000,31.193351,0.708553,99,99,0,0,0,0,0
6,69999,60,60000,46,50000,40,9999,0.100000,99,693,0.000000,3,1.000000,29.112696,15.374711,99,99,0,0,0,0,0
6,69999,61,60000,46,50000,40,9999,0.100000,99,693,0.000000,1,2.000000,19.542370,23.209047,99,99,0,0,0,0,0
6,69999,62,60000,46,50000,40,9999,0.100000,99,693,0.000000,2,0.000000,33.136963,0.828199,99,99,0,0,0,0,0
6,69999,63,60000,46,50000,40,9999,0.100000,99,693,0.000000,4,2.000000,26.584341,17.460508,99,99,0,0,0,0,0
6,69999,64,60000,46,50000,40,9999,0.100000,99,693,0.000000,1,0.000000,26.837208,1.044278,99,99,0,0,0,0,0
6,69999,65,60000,46,50000,40,9999,0.100000,99,693,0.000000,1,0.000000,26.260692,0.812232,99,99,0,0,0,0,0
6,69999,66,60000,46,50000,40,9999,0.100000,99,693,0.000000,2,1.000000,27.763706,2.182308,99,99,0,0,0,0,0
6,69999,67,60000,46,50000,40,9999,0.100000,99,693,0.000000,2,0.000000,30.493498,0.137928,99,99,0,0,0,0,0
6,69999,68,60000,46,50000,0,9999,0.100000,99,693,1.413776,1,0.000000,23.764633,0.603771,99,99,0,0,0,1,0
6,69999,69,60000,46,50000,40,9999,0.100000,99,693,0.000000,2,2.000000,28.136829,17.997291,99,99,0,0,0,0,0
6,69999,70,60000,46,50000,40,9999,0.100000,99,693,0.000000,1,1.000000,25.666522,11.014516,99,99,0,0,0,0,0
6,69999,71,60000,46,50000,40,9999,0.100000,99,693,0.000000,2,1.000000,27.110224,22.690955,99,99,0,0,0,0,0
6,69999,72,60000,46,50000,40,9999,0.100000,99,693,0.000000,3,1.000000,18.944670,12.962508,99,99,0,0,0,0,0
6,69999,73,60000,46,50000,40,9999,0.100000,99,693,0.000000,4,1.000000,27.803552,2.594138,99,99,0,0,0,0,0
6,69999,74,60000,46,50000,40,9999,0.135000,99,693,0.000000,4,1.000000,26.661540,24.910239,99,99,0,0,0,0,0
6,69999,75,60000,46,50000,40,9999,0.100000,99,693,0.000000,2,0.000000,33.314579,0.190267,99,99,0,0,0,0,0
6,69999,76,60000,46,50000,40,9999,0.100000,99,693,0.000000,3,0.000000,26.916948,0.477050,99,99,0,0,0,0,0
6,69999,77,60000,46,50000,42,9999,0.100000,99,693,0.000000,5,7.000000,25.204447,18.008158,99,99,0,0,0,0,0
6,69999,78,60000,46,50000,40,9999,0.135000,99,693,0.000000,2,1.000000,20.151554,12.542996,99,99,0,0,0,0,0
6,69999,79,60000,46,50000,40,9999,0.100000,99,693,0.000000,2,2.000000,28.145713,14.554196,99,99,0,0,0,0,0
6,69999,80,60000,46,50000,41,9999,0.100000,99,693,0.127037,3,4.000000,35.766981,5.775410,99,99,0,0,0,0,0
6,69999,81,60000,46,50000,40,9999,0.100000,99,693,0.000000,2,0.000000,26.024489,0.834800,99,99,0,0,0,0,0
6,69999,82,60000,46,50000,0,9999,0.100000,99,693,0.179381,2,0.000000,29.578149,0.173481,99,99,0,1,0,0,0
6,69999,83,60000,46,50000,40,9999,0.100000,99,693,0.000000,2,1.000000,19.757972,14.137208,99,99,0,0,0,0,0
6,69999,84,60000,46,50000,40,9999,0.100000,99,693,0.000000,2,2.000000,29.260705,19.379277,99,99,0,0,0,0,0
6,69999,85,60000,46,50000,40,9999,0.100000,99,693,0.000000,3,0.000000,26.733341,0.904965,99,99,0,0,0,0,0
6,69999,86,60000,46,50000,42,9999,0.100000,99,693,0.000000,2,6.000000,22.797478,7.756516,99,99,0,0,0,0,0
6,69999,87,60000,46,50000,40,9999,0.100000,99,693,0.000000,1,0.000000,25.851834,0.281034,99,99,0,0,0,0,0
6,69999,88,60000,46,50000,40,9999,0.100000,99,693,0.000000,3,2.000000,23.736539,19.800168,99,99,0,0,0,0,0
6,69999,89,60000,46,50000,40,9999,0.100000,99,693,0.000000,2,0.000000,32.881419,0.283498,99,99,0,0,0,0,0
6,69999,90,60000,46,50000,40,9999,0.100000,99,693,0.000000,1,0.000000,27.167507,0.535463,99,99,0,0,0,0,0
6,69999,91,60000,46,50000,0,9999,0.100000,99,693,1.606650,3,0.000000,32.355244,1.119897,99,99,0,1,0,0,0
6,69999,92,60000,46,50000,40,9999,0.100000,99,693,0.000000,1,0.000000,22.742854,0.320298,99,99,0,0,0,0,0
6,69999,93,60000,46,50000,40,9999,0.100000,99,693,0.000000,2,0.000000,25.439675,1.338008,99,99,0,0,0,0,0
6,69999,94,60000,46,50000,42,9999,0.100000,99,693,0.000000,2,6.000000,22.947376,7.775082,99,99,0,0,0,0,0
6,69999,95,60000,46,50000,40,9999,0.100000,99,693,0.000000,2,0.000000,23.777184,0.969933,99,99,0,0,0,0,0
6,69999,96,60000,46,50000,40,9999,0.100000,99,693,0.000000,2,0.000000,25.644234,0.248736,99,99,0,0,0,0,0
6,69999,97,60000,46,50000,40,9999,0.100000,99,693,0.000000,2,1.000000,19.738808,14.069184,99,99,0,0,0,0,0
6,69999,98,60000,46,50000,40,9999,0.100000,99,693,0.000000,1,0.000000,23.827681,0.275821,99,99,0,0,0,0,0
6,69999,99,60000,46,50000,40,9999,0.100000,99,693,0.000000,2,0.000000,31.045712,1.478580,99,99,0,0,0,0,0
7,79999,0,70000,1,60000,40,9999,0.100000,99,792,0.000000,3,0.000000,32.450997,1.515721,99,99,0,0,0,0,0
7,79999,1,70000,91,60000,0,9999,0.100000,99,792,2.900454,2,1.000000,20.944330,1.840797,99,99,0,1,0,0,0
7,79999,2,70000,1,60000,0,9999,0.100000,99,792,0.389390,2,0.000000,22.678146,0.125469,99,99,0,0,0,0,1
7,79999,3,70000,1,60000,40,9999,0.100000,99,792,0.000000,2,1.000000,22.485138,3.814601,99,99,0,0,0,0,0
7,79999,4,70000,1,60000,40,9999,0.100000,99,792,0.000000,3,0.000000,22.415506,0.102827,99,99,0,0,0,0,0
7,79999,5,70000,1,60000,41,9999,0.100000,99,792,0.000000,2,4.000000,24.094906,18.071362,99,99,0,0,0,0,0
7,79999,6,70000,1,60000,40,9999,0.100000,99,792,0.000000,3,1.000000,22.491914,1.328290,99,99,0,0,0,0,0
7,79999,7,70000,1,60000,0,9999,0.100000,99,792,4.022158,1,0.000000,22.724684,0.860134,99,99,0,0,0,1,0
7,79999,8,70000,1,60000,40,9999,0.100000,99,792,0.000000,2,1.000000,27.430660,22.974986,99,99,0,0,0,0,0
7,79999,9,70000,1,60000,40,9999,0.100000,99,792,0.000000,3,1.000000,29.285273,9.325328,99,99,0,0,0,0,0
7,79999,10,70000,1,60000,40,9999,0.100000,99,792,0.000000,1,1.000000,28.188588,21.807338,99,99,0,0,0,0,0
7,79999,11,70000,1,60000,40,9999,0.100000,99,792,0.000000,5,1.000000,24.393477,16.272323,99,99,0,0,0,0,0
7,79999,12,70000,1,60000,0,9999,0.100000,99,792,0.298249,1,0.000000,27.057800,0.201067,99,99,0,0,0,0,1
7,79999,13,70000,1,60000,41,9999,0.100000,99,792,0.000000,4,4.000000,24.193798,18.066963,99,99,0,0,0,0,0
7,79999,14,70000,1,60000,40,9999,0.100000,99,792,0.000000,3,0.000000,27.551016,0.340066,99,99,0,0,0,0,0
7,79999,15,70000,1,60000,40,9999,0.100000,99,792,0.000000,5,0.000000,19.173261,7.460407,99,99,0,0,0,0,0
7,79999,16,70000,1,60000,41,9999,0.100000,99,792,0.000000,4,3.000000,24.415319,11.191402,99,99,0,0,0,0,0
7,79999,17,70000,1,60000,40,9999,0.100000,99,792,0.000000,1,1.000000,21.085937,2.229926,99,99,0,0,0,0,0
7,79999,18,70000,1,60000,40,9999,0.100000,99,792,0.000000,4,1.000000,27.359510,23.381504,99,99,0,0,0,0,0
7,79999,19,70000,1,60000,0,9999,0.100000,99,792,0.014931,3,0.000000,14.359790,0.082904,99,99,0,0,0,0,1
7,79999,20,70000,1,60000,40,9999,0.100000,99,792,0.000000,2,0.000000,38.017511,2.751554,99,99,0,0,0,0,0
7,79999,21,70000,1,60000,0,9999,0.100000,99,792,0.067051,3,0.000000,33.067034,0.130088,99,99,0,0,1,0,0
7,79999,22,70000,1,60000,40,9999,0.100000,99,792,0.000000,2,0.000000,25.385798,2.351721,99,99,0,0,0,0,0
7,79999,23,70000,1,60000,40,9999,0.100000,99,792,0.000000,2,1.000000,24.704049,13.650003,99,99,0,0,0,0,0
7,79999,24,70000,1,60000,0,9999,0.100000,99,792,0.002719,1,0.000000,29.390787,0.107345,99,99,0,0,0,1,0
7,79999,25,70000,1,60000,40,9999,0.100000,99,792,0.000000,2,0.000000,31.153853,1.492002,99,99,0,0,0,0,0
7,79999,26,70000,1,60000,40,9999,0.100000,99,792,0.000000,3,0.000000,29.583929,0.563450,99,99,0,0,0,0,0
7,79999,27,70000,1,60000,40,9999,0.100000,99,792,0.000000,3,0.000000,30.902080,0.134738,99,99,0,0,0,0,0
7,79999,28,70000,1,60000,40,9999,0.100000,99,792,0.000000,3,2.000000,24.059754,12.727870,99,99,0,0,0,0,0
7,79999,29,70000,1,60000,40,9999,0.100000,99,792,0.000000,3,0.000000,14.017692,0.127744,99,99,0,0,0,0,0
7,79999,30,70000,1,60000,0,9999,0.100000,99,792,0.133642,1,0.000000,27.347193,0.791687,99,99,0,0,0,1,0
7,79999,31,70000,1,60000,40,9999,0.100000,99,792,0.000000,2,0.000000,32.581827,0.305580,99,99,0,0,0,0,0
7,79999,32,70000,1,60000,40,9999,0.100000,99,792,0.000000,2,0.000000,26.399552,1.862847,99,99,0,0,0,0,0
7,79999,33,70000,1,60000,40,9999,0.100000,99,792,0.000000,3,0.000000,30.293950,0.135956,99,99,0,0,0,0,0
7,79999,34,70000,1,60000,40,9999,0.100000,99,792,0.000000,1,0.000000,34.222992,0.238648,99,99,0,0,0,0,0
7,79999,35,70000,1,60000,40,9999,0.100000,99,792,0.000000,3,0.000000,30.820459,2.100316,99,99,0,0,0,0,0
7,79999,36,70000,1,60000,40,9999,0.100000,99,792,0.000000,2,1.000000,26.161537,8.086339,99,99,0,0,0,0,0
7,79999,37,70000,1,60000,40,9999,0.100000,99,792,0.000000,4,0.000000,26.018027,2.948436,99,99,0,0,0,0,0
7,79999,38,70000,1,60000,40,9999,0.100000,99,792,0.000000,1,1.000000,22.386367,2.044668,99,99,0,0,0,0,0
7,79999,39,70000,1,60000,40,9999,0.100000,99,792,0.000000,3,0.000000,16.921566,1.089454,99,99,0,0,0,0,0
7,79999,40,70000,1,60000,40,9999,0.100000,99,792,0.000000,2,0.000000,34.676319,0.226706,99,99,0,0,0,0,0
7,79999,41,70000,1,60000,40,9999,0.100000,99,792,0.000000,3,0.000000,32.051972,22.419603,99,99,0,0,0,0,0
7,79999,42,70000,1,60000,40,9999,0.100000,99,792,0.000000,2,0.000000,18.202529,0.244878,99,99,0,0,0,0,0
7,79999,43,70000,1,60000,40,9999,0.100000,99,792,0.000000,4,0.000000,27.442368,0.823908,99,99,0,0,0,0,0
7,79999,44,70000,1,60000,44,9999,0.100000,99,792,0.000000,2,9.000000,20.445164,13.418379,99,99,0,0,0,0,0
7,79999,45,70000,1,60000,40,9999,0.100000,99,792,0.000000,2,1.000000,18.728894,11.257679,99,99,0,0,0,0,0
7,79999,46,70000,1,60000,40,9999,0.100000,99,792,0.000000,4,0.000000,26.517463,0.545195,99,99,0,0,0,0,0
7,79999,47,70000,1,60000,40,9999,0.100000,99,792,0.000000,4,0.000000,26.488986,0.560287,99,99,0,0,0,0,0
7,79999,48,70000,1,60000,40,9999,0.100000,99,792,0.000000,3,2.000000,25.572192,5.628452,99,99,0,0,0,0,0
7,79999,49,70000,1,60000,41,9999,0.100000,99,792,0.000000,2,3.000000,28.010785,15.285823,99,99,0,0,0,0,0
7,79999,50,70000,1,60000,41,9999,0.100000,99,792,0.000000,2,4.000000,24.790364,14.428387,99,99,0,0,0,0,0
7,79999,51,70000,1,60000,40,9999,0.100000,99,792,0.000000,4,1.000000,24.401127,13.504851,99,99,0,0,0,0,0
7,79999,52,70000,1,60000,40,9999,0.100000,99,792,0.000000,4,1.000000,27.751657,12.533144,99,99,0,0,0,0,0
7,79999,53,70000,1,60000,40,9999,0.100000,99,792,0.000000,2,1.000000,24.539767,9.636596,99,99,0,0,0,0,0
7,79999,54,70000,1,60000,40,9999,0.100000,99,792,0.000000,2,0.000000,32.030806,0.143249,99,99,0,0,0,0,0
7,79999,55,70000,1,60000,40,9999,0.100000,99,792,0.000000,4,0.000000,29.723264,0.882492,99,99,0,0,0,0,0
7,79999,56,70000,1,60000,40,9999,0.100000,99,792,0.000000,1,0.000000,26.987543,0.277823,99,99,0,0,0,0,0
7,79999,57,70000,1,60000,0,9999,0.100000,99,792,0.862316,2,0.000000,25.284977,0.472014,99,99,0,0,0,0,1
7,79999,58,70000,1,60000,0,9999,0.065000,99,792,0.053523,3,0.000000,26.911660,0.254952,99,99,0,0,0,0,1
7,79999,59,70000,1,60000,40,9999,0.100000,99,792,0.000000,3,0.000000,31.105632,0.778834,99,99,0,0,0,0,0
7,79999,60,70000,1,60000,41,9999,0.100000,99,792,0.000000,3,6.000000,29.838542,19.421035,99,99,0,0,0,0,0
7,79999,61,70000,1,60000,40,9999,0.100000,99,792,0.000000,1,0.000000,19.793040,10.721712,99,99,0,0,0,0,0
7,79999,62,70000,1,60000,40,9999,0.100000,99,792,0.000000,2,0.000000,33.419195,0.856692,99,99,0,0,0,0,0
7,79999,63,70000,1,60000,40,9999,0.100000,99,792,0.000000,4,0.000000,26.131492,8.934443,99,99,0,0,0,0,0
7,79999,64,70000,1,60000,40,9999,0.100000,99,792,0.000000,1,0.000000,26.844130,0.597460,99,99,0,0,0,0,0
7,79999,65,70000,1,60000,40,9999,0.100000,99,792,0.000000,1,0.000000,26.302539,0.681167,99,99,0,0,0,0,0
7,79999,66,70000,1,60000,40,9999,0.100000,99,792,0.000000,2,0.000000,27.253245,0.727934,99,99,0,0,0,0,0
7,79999,67,70000,1,60000,40,9999,0.100000,99,792,0.000000,2,0.000000,30.493134,0.139889,99,99,0,0,0,0,0
7,79999,68,70000,1,60000,0,9999,0.100000,99,792,0.861941,1,0.000000,23.378887,0.412212,99,99,0,0,0,1,0
7,79999,69,70000,1,60000,40,9999,0.100000,99,792,0.000000,2,1.000000,30.276138,12.362177,99,99,0,0,0,0,0
7,79999,70,70000,1,60000,90,9999,0.100000,99,792,0.851216,1,2.000000,25.931501,23.411585,99,99,1,0,0,0,0
7,79999,71,70000,1,60000,40,9999,0.100000,99,792,0.000000,2,1.000000,27.578994,20.498584,99,99,0,0,0,0,0
7,79999,72,70000,1,60000,40,9999,0.100000,99,792,0.000000,3,1.000000,19.707215,10.039731,99,99,0,0,0,0,0
7,79999,73,70000,1,60000,43,9999,0.100000,99,792,0.000000,4,9.000000,27.182696,10.716286,99,99,0,0,0,0,0
7,79999,74,70000,1,60000,42,9999,0.100000,99,792,0.000000,4,8.000000,27.875864,8.665726,99,99,0,0,0,0,0
7,79999,75,70000,1,60000,40,9999,0.100000,99,792,0.000000,2,0.000000,33.306456,0.173985,99,99,0,0,0,0,0
7,79999,76,70000,1,60000,40,9999,0.100000,99,792,0.000000,3,0.000000,26.914431,0.463127,99,99,0,0,0,0,0
7,79999,77,70000,1,60000,40,9999,0.100000,99,792,0.000000,5,2.000000,25.639675,6.766653,99,99,0,0,0,0,0
7,79999,78,70000,1,60000,40,9999,0.100000,99,792,0.000000,2,1.000000,20.285094,11.373233,99,99,0,0,0,0,0
7,79999,79,70000,1,60000,40,9999,0.100000,99,792,0.000000,2,3.000000,29.445235,13.451810,99,99,0,0,0,0,0
7,79999,80,70000,1,60000,0,9999,0.100000,99,792,0.292710,4,0.000000,33.022524,0.186968,99,99,0,1,0,0,0
7,79999,81,70000,1,60000,40,9999,0.100000,99,792,0.000000,2,0.000000,26.098037,0.417443,99,99,0,0,0,0,0
7,79999,82,70000,1,60000,0,9999,0.100000,99,792,0.188248,2,0.000000,29.596935,0.166768,99,99,0,1,0,0,0
7,79999,83,70000,1,60000,40,9999,0.100000,99,792,0.000000,2,1.000000,20.072992,12.986054,99,99,0,0,0,0,0
7,79999,84,70000,1,60000,40,9999,0.100000,99,792,0.000000,2,1.000000,29.548988,15.572420,99,99,0,0,0,0,0
7,79999,85,70000,1,60000,40,9999,0.100000,99,792,0.000000,3,0.000000,26.715296,0.223988,99,99,0,0,0,0,0
7,79999,86,70000,1,60000,40,9999,0.100000,99,792,0.000000,3,0.000000,21.764186,1.259081,99,99,0,0,0,0,0
7,79999,87,70000,1,60000,40,9999,0.100000,99,792,0.000000,1,0.000000,25.812191,0.370818,99,99,0,0,0,0,0
7,79999,88,70000,1,60000,40,9999,0.100000,99,792,0.000000,3,2.000000,23.019583,19.132031,99,99,0,0,0,0,0
7,79999,89,70000,1,60000,40,9999,0.100000,99,792,0.000000,2,0.000000,32.864875,0.237758,99,99,0,0,0,0,0
7,79999,90,70000,1,60000,40,9999,0.100000,99,792,0.000000,1,0.000000,27.132937,0.631985,99,99,0,0,0,0,0
7,79999,91,70000,1,60000,0,9999,0.100000,99,792,0.017835,3,0.000000,32.277821,0.229099,99,99,0,1,0,0,0
7,79999,92,70000,1,60000,40,9999,0.100000,99,792,0.000000,1,0.000000,22.608931,0.991136,99,99,0,0,0,0,0
7,79999,93,70000,1,60000,40,9999,0.100000,99,792,0.000000,2,0.000000,25.406299,1.579178,99,99,0,0,0,0,0
7,79999,94,70000,1,60000,40,9999,0.100000,99,792,0.000000,3,0.000000,22.112375,1.298470,99,99,0,0,0,0,0
7,79999,95,70000,1,60000,40,9999,0.100000,99,792,0.000000,2,0.000000,23.358745,0.673858,99,99,0,0,0,0,0
7,79999,96,70000,1,60000,40,9999,0.100000,99,792,0.000000,2,0.000000,25.608907,0.631584,99,99,0,0,0,0,0
7,79999,97,70000,1,60000,40,9999,0.100000,99,792,0.000000,2,1.000000,20.284310,14.286032,99,99,0,0,0,0,0
7,79999,98,70000,1,60000,40,9999,0.100000,99,792,0.000000,1,0.000000,23.616265,0.224987,99,99,0,0,0,0,0
7,79999,99,70000,1,60000,40,9999,0.100000,99,792,0.000000,2,0.000000,30.934109,1.510183,99,99,0,0,0,0,0
8,89999,0,80000,7,70000,40,9999,0.100000,99,891,0.000000,3,0.000000,32.497217,1.483900,99,99,0,0,0,0,0
8,89999,1,80000,7,70000,0,9999,0.100000,99,891,2.488887,2,0.000000,21.464639,0.740082,99,99,0,1,0,0,0
8,89999,2,80000,7,70000,0,9999,0.100000,99,891,1.522676,2,0.000000,22.624547,0.309510,99,99,0,0,0,0,1
8,89999,3,80000,7,70000,4,9999,0.100000,99,891,53.774098,2,10.000000,21.616310,12.910528,99,99,0,0,0,1,0
8,89999,4,80000,7,70000,40,9999,0.100000,99,891,0.000000,3,0.000000,22.455357,0.163970,99,99,0,0,0,0,0
8,89999,5,80000,7,70000,40,9999,0.100000,99,891,0.000000,3,1.000000,25.384220,14.627278,99,99,0,0,0,0,0
8,89999,6,80000,7,70000,4,9999,0.100000,99,891,51.892421,3,10.000000,21.912621,12.258277,99,99,0,0,0,1,0
8,89999,7,80000,1,70000,4,9999,0.100000,99,891,54.256382,1,10.000000,22.394277,12.179889,99,99,0,0,0,1,0
8,89999,8,80000,7,70000,40,9999,0.100000,99,891,0.000000,2,1.000000,28.064101,19.752053,99,99,0,0,0,0,0
8,89999,9,80000,7,70000,40,9999,0.100000,99,891,0.000000,3,1.000000,30.211527,11.253661,99,99,0,0,0,0,0
8,89999,10,80000,7,70000,40,9999,0.100000,99,891,0.000000,1,1.000000,28.292235,22.587960,99,99,0,0,0,0,0
8,89999,11,80000,7,70000,40,9999,0.100000,99,891,0.000000,5,1.000000,24.698772,12.590386,99,99,0,0,0,0,0
8,89999,12,80000,7,70000,0,9999,0.100000,99,891,0.362636,1,0.000000,27.108706,0.402081,99,99,0,0,0,0,1
8,89999,13,80000,7,70000,40,9999,0.100000,99,891,0.000000,4,1.000000,25.497749,14.609718,99,99,0,0,0,0,0
8,89999,14,80000,7,70000,1,9999,0.100000,99,891,18.436253,4,3.000000,27.510454,13.349139,99,99,0,0,0,1,0
8,89999,15,80000,7,70000,41,9999,0.100000,99,891,0.000000,5,3.000000,20.139773,14.658612,99,99,0,0,0,0,0
8,89999,16,80000,7,70000,1,9999,0.100000,99,891,20.474251,4,4.000000,27.164324,13.972098,99,99,0,0,0,1,0
8,89999,17,80000,7,70000,40,9999,0.100000,99,891,0.000000,1,0.000000,21.699034,0.766944,99,99,0,0,0,0,0
8,89999,18,80000,7,70000,40,9999,0.100000,99,891,0.000000,4,1.000000,27.693103,24.902263,99,99,0,0,0,0,0
8,89999,19,80000,7,70000,0,9999,0.100000,99,891,0.016993,3,0.000000,14.357078,0.084089,99,99,0,0,0,0,1
8,89999,20,80000,7,70000,40,9999,0.100000,99,891,0.000000,2,0.000000,38.031115,0.097642,99,99,0,0,0,0,0
8,89999,21,80000,7,70000,0,9999,0.100000,99,891,0.040507,3,0.000000,33.060986,0.131261,99,99,0,0,1,0,0
8,89999,22,80000,7,70000,40,9999,0.100000,99,891,0.000000,2,0.000000,25.492836,2.432359,99,99,0,0,0,0,0
8,89999,23,80000,7,70000,40,9999,0.100000,99,891,0.000000,3,1.000000,24.680774,10.299179,99,99,0,0,0,0,0
8,89999,24,80000,7,70000,0,9999,0.100000,99,891,0.002407,1,0.000000,29.391532,0.107094,99,99,0,0,0,1,0
8,89999,25,80000,7,70000,40,9999,0.100000,99,891,0.000000,2,0.000000,31.074763,2.078878,99,99,0,0,0,0,0
8,89999,26,80000,7,70000,40,9999,0.100000,99,891,0.000000,3,0.000000,29.584328,0.569035,99,99,0,0,0,0,0
8,89999,27,80000,7,70000,40,9999,0.100000,99,891,0.000000,3,0.000000,30.901724,0.134971,99,99,0,0,0,0,0
8,89999,28,80000,7,70000,40,9999,0.100000,99,891,0.000000,3,0.000000,24.532025,11.169082,99,99,0,0,0,0,0
8,89999,29,80000,7,70000,40,9999,0.100000,99,891,0.000000,3,0.000000,14.014980,0.135356,99,99,0,0,0,0,0
8,89999,30,80000,7,70000,41,9999,0.100000,99,891,0.000000,2,5.000000,27.289467,13.903153,99,99,0,0,0,0,0
8,89999,31,80000,7,70000,40,9999,0.100000,99,891,0.000000,2,0.000000,32.628040,0.465717,99,99,0,0,0,0,0
8,89999,32,80000,7,70000,40,9999,0.100000,99,891,0.000000,2,0.000000,26.319336,1.307616,99,99,0,0,0,0,0
8,89999,33,80000,7,70000,40,9999,0.100000,99,891,0.000000,3,0.000000,30.293803,0.134299,99,99,0,0,0,0,0
8,89999,34,80000,7,70000,40,9999,0.100000,99,891,0.000000,1,0.000000,34.224192,0.235375,99,99,0,0,0,0,0
8,89999,35,80000,7,70000,40,9999,0.100000,99,891,0.000000,3,0.000000,30.702835,2.082077,99,99,0,0,0,0,0
8,89999,36,80000,7,70000,40,9999,0.100000,99,891,0.000000,2,1.000000,24.635855,8.624062,99,99,0,0,0,0,0
8,89999,37,80000,7,70000,44,9999,0.100000,99,891,0.000000,4,13.000000,25.694185,13.812954,99,99,0,0,0,0,0
8,89999,38,80000,7,70000,41,9999,0.100000,99,891,0.000000,1,3.000000,21.756792,13.907493,99,99,0,0,0,0,0
8,89999,39,80000,7,70000,40,9999,0.100000,99,891,0.000000,3,0.000000,16.624650,1.101651,99,99,0,0,0,0,0
8,89999,40,80000,7,70000,40,9999,0.100000,99,891,0.000000,2,0.000000,34.677627,0.225021,99,99,0,0,0,0,0
8,89999,41,80000,7,70000,40,9999,0.100000,99,891,0.000000,3,0.000000,32.174343,21.896654,99,99,0,0,0,0,0
8,89999,42,80000,7,70000,40,9999,0.100000,99,891,0.000000,2,0.000000,18.201611,0.228271,99,99,0,0,0,0,0
8,89999,43,80000,7,70000,1,9999,0.100000,99,891,18.375585,4,3.000000,27.392462,12.268598,99,99,0,0,0,1,0
8,89999,44,80000,7,70000,41,9999,0.100000,99,891,0.000000,3,3.000000,27.301413,5.829511,99,99,0,0,0,0,0
8,89999,45,80000,7,70000,40,9999,0.100000,99,891,0.000000,2,1.000000,20.037264,10.885745,99,99,0,0,0,0,0
8,89999,46,80000,7,70000,0,9999,0.100000,99,891,0.024970,4,0.000000,26.545835,0.469573,99,99,0,0,0,0,1
8,89999,47,80000,7,70000,40,9999,0.100000,99,891,0.000000,4,0.000000,26.403838,0.450490,99,99,0,0,0,0,0
8,89999,48,80000,7,70000,43,9999,0.100000,99,891,0.000000,3,10.000000,27.086621,15.846399,99,99,0,0,0,0,0
8,89999,49,80000,7,70000,40,9999,0.100000,99,891,0.000000,2,1.000000,25.846278,11.636624,99,99,0,0,0,0,0
8,89999,50,80000,7,70000,40,9999,0.100000,99,891,0.000000,2,1.000000,21.787797,15.217412,99,99,0,0,0,0,0
8,89999,51,80000,7,70000,40,9999,0.100000,99,891,0.000000,4,1.000000,24.883218,12.336580,99,99,0,0,0,0,0
8,89999,52,80000,7,70000,41,9999,0.100000,99,891,0.000000,4,4.000000,28.371360,10.411961,99,99,0,0,0,0,0
8,89999,53,80000,7,70000,44,9999,0.100000,99,891,0.000000,2,12.000000,23.418828,15.651686,99,99,0,0,0,0,0
8,89999,54,80000,7,70000,40,9999,0.100000,99,891,0.000000,2,0.000000,32.030362,0.142910,99,99,0,0,0,0,0
8,89999,55,80000,7,70000,40,9999,0.100000,99,891,0.000000,4,0.000000,29.723413,0.890429,99,99,0,0,0,0,0
8,89999,56,80000,7,70000,40,9999,0.100000,99,891,0.000000,1,0.000000,27.056432,0.328392,99,99,0,0,0,0,0
8,89999,57,80000,7,70000,0,9999,0.100000,99,891,0.255619,2,0.000000,25.385270,0.595044,99,99,0,0,0,0,1
8,89999,58,80000,7,70000,40,9999,0.100000,99,891,0.000000,4,0.000000,26.938077,0.321493,99,99,0,0,0,0,0
8,89999,59,80000,7,70000,40,9999,0.100000,99,891,0.000000,3,0.000000,31.014273,1.530387,99,99,0,0,0,0,0
8,89999,60,80000,7,70000,42,9999,0.100000,99,891,0.000000,4,11.000000,36.717456,21.785778,99,99,0,0,0,0,0
8,89999,61,80000,7,70000,40,9999,0.100000,99,891,0.000000,1,2.000000,19.278559,14.087597,99,99,0,0,0,0,0
8,89999,62,80000,7,70000,40,9999,0.100000,99,891,0.000000,2,0.000000,33.738692,0.925680,99,99,0,0,0,0,0
8,89999,63,80000,7,70000,40,9999,0.100000,99,891,0.000000,4,0.000000,26.149108,3.813366,99,99,0,0,0,0,0
8,89999,64,80000,7,70000,40,9999,0.100000,99,891,0.000000,1,0.000000,26.940482,0.743099,99,99,0,0,0,0,0
8,89999,65,80000,7,70000,40,9999,0.100000,99,891,0.000000,1,0.000000,26.377710,0.903128,99,99,0,0,0,0,0
8,89999,66,80000,7,70000,1,9999,0.100000,99,891,18.321651,2,5.000000,27.179682,14.491613,99,99,0,0,0,1,0
8,89999,67,80000,7,70000,40,9999,0.100000,99,891,0.000000,2,0.000000,30.492912,0.142983,99,99,0,0,0,0,0
8,89999,68,80000,7,70000,0,9999,0.100000,99,891,0.044940,1,0.000000,23.095904,0.206297,99,99,0,0,0,1,0
8,89999,69,80000,7,70000,40,9999,0.100000,99,891,0.000000,2,1.000000,29.413498,12.636963,99,99,0,0,0,0,0
8,89999,70,80000,7,70000,40,9999,0.100000,99,891,0.000000,2,0.000000,25.014616,1.962194,99,99,0,0,0,0,0
8,89999,71,80000,7,70000,40,9999,0.100000,99,891,0.000000,2,1.000000,27.235169,22.073148,99,99,0,0,0,0,0
8,89999,72,80000,7,70000,40,9999,0.100000,99,891,0.000000,3,1.000000,20.056172,13.018436,99,99,0,0,0,0,0
8,89999,73,80000,7,70000,40,9999,0.100000,99,891,0.000000,5,2.000000,24.310649,4.861658,99,99,0,0,0,0,0
8,89999,74,80000,7,70000,40,9999,0.100000,99,891,0.000000,5,0.000000,36.115864,0.215593,99,99,0,0,0,0,0
8,89999,75,80000,7,70000,40,9999,0.100000,99,891,0.000000,2,0.000000,33.301021,0.145195,99,99,0,0,0,0,0
8,89999,76,80000,7,70000,40,9999,0.100000,99,891,0.000000,3,0.000000,26.996367,0.524478,99,99,0,0,0,0,0
8,89999,77,80000,7,70000,40,9999,0.100000,99,891,0.000000,5,1.000000,26.959896,9.076652,99,99,0,0,0,0,0
8,89999,78,80000,7,70000,40,9999,0.100000,99,891,0.000000,2,2.000000,20.517716,15.575293,99,99,0,0,0,0,0
8,89999,79,80000,7,70000,40,9999,0.100000,99,891,0.000000,3,2.000000,28.084239,10.926615,99,99,0,0,0,0,0
8,89999,80,80000,7,70000,0,9999,0.100000,99,891,0.241854,4,0.000000,33.062071,0.174228,99,99,0,1,0,0,0
8,89999,81,80000,7,70000,40,9999,0.100000,99,891,0.000000,2,0.000000,26.196703,0.819090,99,99,0,0,0,0,0
8,89999,82,80000,7,70000,0,9999,0.100000,99,891,0.178551,2,0.000000,29.610391,0.159789,99,99,0,1,0,0,0
8,89999,83,80000,7,70000,40,9999,0.100000,99,891,0.000000,2,2.000000,20.850695,15.261743,99,99,0,0,0,0,0
8,89999,84,80000,7,70000,40,9999,0.100000,99,891,0.000000,2,1.000000,29.011853,11.404779,99,99,0,0,0,0,0
8,89999,85,80000,7,70000,40,9999,0.100000,99,891,0.000000,3,0.000000,26.759444,0.390346,99,99,0,0,0,0,0
8,89999,86,80000,7,70000,40,9999,0.100000,99,891,0.000000,3,0.000000,22.611914,1.349816,99,99,0,0,0,0,0
8,89999,87,80000,7,70000,40,9999,0.100000,99,891,0.000000,1,0.000000,25.935161,0.343531,99,99,0,0,0,0,0
8,89999,88,80000,7,70000,40,9999,0.100000,99,891,0.000000,3,0.000000,21.896629,0.820804,99,99,0,0,0,0,0
8,89999,89,80000,7,70000,40,9999,0.100000,99,891,0.000000,2,0.000000,32.866694,0.246588,99,99,0,0,0,0,0
8,89999,90,80000,7,70000,40,9999,0.100000,99,891,0.000000,1,0.000000,27.172821,0.672793,99,99,0,0,0,0,0
8,89999,91,80000,7,70000,0,9999,0.100000,99,891,0.080890,3,0.000000,32.308321,0.246915,99,99,0,1,0,0,0
8,89999,92,80000,7,70000,4,9999,0.100000,99,891,54.256382,1,10.000000,22.153384,12.310003,99,99,0,0,0,1,0
8,89999,93,80000,7,70000,40,9999,0.100000,99,891,0.000000,2,0.000000,25.513568,1.673834,99,99,0,0,0,0,0
8,89999,94,80000,7,70000,40,9999,0.100000,99,891,0.000000,3,1.000000,23.023415,1.343923,99,99,0,0,0,0,0
8,89999,95,80000,7,70000,40,9999,0.100000,99,891,0.000000,2,0.000000,23.049003,0.500289,99,99,0,0,0,0,0
8,89999,96,80000,7,70000,40,9999,0.100000,99,891,0.000000,2,0.000000,25.725565,0.538725,99,99,0,0,0,0,0
8,89999,97,80000,7,70000,40,9999,0.100000,99,891,0.000000,2,1.000000,20.634690,12.542387,99,99,0,0,0,0,0
8,89999,98,80000,7,70000,40,9999,0.100000,99,891,0.000000,1,0.000000,23.453146,0.108098,99,99,0,0,0,0,0
8,89999,99,80000,7,70000,40,9999,0.100000,99,891,0.000000,2,0.000000,30.814258,1.517412,99,99,0,0,0,0,0
9,99999,0,90000,92,80000,40,9999,0.100000,99,990,0.000000,3,0.000000,32.587727,1.488699,99,99,0,0,0,0,0
9,99999,1,90000,7,80000,0,9999,0.100000,99,990,1.339697,2,0.000000,21.260550,0.754483,99,99,0,1,0,0,0
9,99999,2,90000,92,80000,40,9999,0.100000,99,990,0.000000,2,0.000000,22.339905,0.278386,99,99,0,0,0,0,0
9,99999,3,90000,92,80000,40,9999,0.100000,99,990,0.000000,3,3.000000,28.876713,29.385661,99,99,0,0,0,0,0
9,99999,4,90000,7,80000,0,9999,0.100000,99,990,1.400642,3,0.000000,22.537760,0.247005,99,99,0,0,0,0,1
9,99999,5,90000,92,80000,40,9999,0.100000,99,990,0.000000,3,2.000000,24.793402,15.908808,99,99,0,0,0,0,0
9,99999,6,90000,92,80000,41,9999,0.100000,99,990,0.000000,4,4.000000,29.911473,14.007032,99,99,0,0,0,0,0
9,99999,7,90000,92,80000,41,9999,0.100000,99,990,0.000000,2,4.000000,29.892085,13.119031,99,99,0,0,0,0,0
9,99999,8,90000,92,80000,41,9999,0.100000,99,990,0.000000,2,3.000000,27.594290,24.589026,99,99,0,0,0,0,0
9,99999,9,90000,92,80000,40,9999,0.100000,99,990,0.000000,3,0.000000,29.837082,13.897340,99,99,0,0,0,0,0
9,99999,10,90000,7,80000,40,9999,0.100000,99,990,0.000000,1,0.000000,27.738430,22.833640,99,99,0,0,0,0,0
9,99999,11,90000,92,80000,40,9999,0.100000,99,990,0.000000,5,2.000000,24.760569,16.548172,99,99,0,0,0,0,0
9,99999,12,90000,7,80000,0,9999,0.100000,99,990,0.092084,1,0.000000,27.186068,0.583812,99,99,0,0,0,0,1
9,99999,13,90000,92,80000,40,9999,0.100000,99,990,0.000000,4,2.000000,24.906062,15.776153,99,99,0,0,0,0,0
9,99999,14,90000,7,80000,40,9999,0.100000,99,990,0.000000,4,1.000000,28.696509,12.461506,99,99,0,0,0,0,0
9,99999,15,90000,92,80000,40,9999,0.100000,99,990,0.000000,5,2.000000,21.657416,10.795327,99,99,0,0,0,0,0
9,99999,16,90000,92,80000,40,9999,0.100000,99,990,0.000000,4,1.000000,28.131341,10.235860,99,99,0,0,0,0,0
9,99999,17,90000,7,80000,40,9999,0.100000,99,990,0.000000,1,0.000000,21.496678,0.886945,99,99,0,0,0,0,0
9,99999,18,90000,7,80000,40,9999,0.100000,99,990,0.000000,4,1.000000,28.255221,22.838554,99,99,0,0,0,0,0
9,99999,19,90000,7,80000,0,9999,0.100000,99,990,0.014256,3,0.000000,14.354061,0.082976,99,99,0,0,0,0,1
9,99999,20,90000,92,80000,40,9999,0.100000,99,990,0.000000,2,0.000000,38.031264,0.088590,99,99,0,0,0,0,0
9,99999,21,90000,7,80000,0,9999,0.100000,99,990,0.034280,3,0.000000,33.057753,0.126990,99,99,0,0,1,0,0
9,99999,22,90000,7,80000,40,9999,0.100000,99,990,0.000000,2,0.000000,25.622888,2.465488,99,99,0,0,0,0,0
9,99999,23,90000,7,80000,41,9999,0.100000,99,990,0.000000,3,3.000000,25.069949,16.526541,99,99,0,0,0,0,0
9,99999,24,90000,92,80000,0,9999,0.100000,99,990,0.002510,1,0.000000,29.392289,0.107776,99,99,0,0,0,1,0
9,99999,25,90000,7,80000,40,9999,0.100000,99,990,0.000000,2,0.000000,30.971033,2.123211,99,99,0,0,0,0,0
9,99999,26,90000,7,80000,40,9999,0.100000,99,990,0.000000,3,0.000000,29.583327,0.590754,99,99,0,0,0,0,0
9,99999,27,90000,92,80000,40,9999,0.100000,99,990,0.000000,3,0.000000,30.901526,0.148053,99,99,0,0,0,0,0
9,99999,28,90000,7,80000,41,9999,0.100000,99,990,0.000000,3,3.000000,25.005832,16.495093,99,99,0,0,0,0,0
9,99999,29,90000,92,80000,40,9999,0.100000,99,990,0.000000,3,0.000000,14.012054,0.122924,99,99,0,0,0,0,0
9,99999,30,90000,92,80000,40,9999,0.100000,99,990,0.000000,3,2.000000,29.885759,13.548538,99,99,0,0,0,0,0
9,99999,31,90000,92,80000,40,9999,0.100000,99,990,0.000000,2,0.000000,32.723840,0.882777,99,99,0,0,0,0,0
9,99999,32,90000,92,80000,40,9999,0.100000,99,990,0.000000,2,0.000000,26.397414,1.192455,99,99,0,0,0,0,0
9,99999,33,90000,92,80000,40,9999,0.100000,99,990,0.000000,3,0.000000,30.293504,0.131032,99,99,0,0,0,0,0
9,99999,34,90000,92,80000,40,9999,0.100000,99,990,0.000000,1,0.000000,34.225524,0.237817,99,99,0,0,0,0,0
9,99999,35,90000,92,80000,40,9999,0.100000,99,990,0.000000,3,0.000000,30.577916,2.110920,99,99,0,0,0,0,0
9,99999,36,90000,7,80000,40,9999,0.100000,99,990,0.000000,2,2.000000,25.273097,12.925494,99,99,0,0,0,0,0
9,99999,37,90000,92,80000,40,9999,0.100000,99,990,0.000000,4,0.000000,29.867285,0.102273,99,99,0,0,0,0,0
9,99999,38,90000,7,80000,40,9999,0.100000,99,990,0.000000,2,1.000000,22.391236,18.163468,99,99,0,0,0,0,0
9,99999,39,90000,7,80000,40,9999,0.100000,99,990,0.000000,3,0.000000,16.275819,1.094472,99,99,0,0,0,0,0
9,99999,40,90000,7,80000,40,9999,0.100000,99,990,0.000000,2,0.000000,34.678147,0.237970,99,99,0,0,0,0,0
9,99999,41,90000,7,80000,40,9999,0.100000,99,990,0.000000,3,0.000000,32.114947,22.277602,99,99,0,0,0,0,0
9,99999,42,90000,92,80000,40,9999,0.100000,99,990,0.000000,2,0.000000,18.198295,0.244376,99,99,0,0,0,0,0
9,99999,43,90000,7,80000,40,9999,0.100000,99,990,0.000000,5,1.000000,29.536239,11.341648,99,99,0,0,0,0,0
9,99999,44,90000,7,80000,40,9999,0.100000,99,990,0.000000,3,0.000000,29.983142,1.021415,99,99,0,0,0,0,0
9,99999,45,90000,7,80000,40,9999,0.100000,99,990,0.000000,2,0.000000,18.940483,8.951602,99,99,0,0,0,0,0
9,99999,46,90000,7,80000,0,9999,0.100000,99,990,1.002012,4,0.000000,26.670767,1.072701,99,99,0,0,0,0,1
9,99999,47,90000,92,80000,40,9999,0.100000,99,990,0.000000,4,0.000000,26.357295,0.449077,99,99,0,0,0,0,0
9,99999,48,90000,7,80000,43,9999,0.100000,99,990,0.000000,3,9.000000,24.732725,16.340274,99,99,0,0,0,0,0
9,99999,49,90000,7,80000,40,9999,0.100000,99,990,0.000000,2,0.000000,26.666971,2.875205,99,99,0,0,0,0,0
9,99999,50,90000,92,80000,41,9999,0.100000,99,990,0.000000,2,3.000000,21.171496,8.670965,99,99,0,0,0,0,0
9,99999,51,90000,7,80000,40,9999,0.100000,99,990,0.000000,4,2.000000,24.829237,13.819436,99,99,0,0,0,0,0
9,99999,52,90000,7,80000,40,9999,0.100000,99,990,0.000000,4,1.000000,25.404226,7.650916,99,99,0,0,0,0,0
9,99999,53,90000,92,80000,40,9999,0.100000,99,990,0.000000,3,0.000000,17.294563,0.231118,99,99,0,0,0,0,0
9,99999,54,90000,92,80000,40,9999,0.100000,99,990,0.000000,2,0.000000,32.029744,0.141921,99,99,0,0,0,0,0
9,99999,55,90000,7,80000,40,9999,0.100000,99,990,0.000000,4,0.000000,29.722964,0.884853,99,99,0,0,0,0,0
9,99999,56,90000,7,80000,40,9999,0.100000,99,990,0.000000,1,0.000000,27.150256,0.477079,99,99,0,0,0,0,0
9,99999,57,90000,92,80000,0,9999,0.100000,99,990,0.007807,2,0.000000,25.552245,0.546114,99,99,0,0,0,0,1
9,99999,58,90000,7,80000,40,9999,0.100000,99,990,0.000000,4,0.000000,26.981161,0.428101,99,99,0,0,0,0,0
9,99999,59,90000,7,80000,40,9999,0.100000,99,990,0.000000,3,0.000000,30.910056,1.579826,99,99,0,0,0,0,0
9,99999,60,90000,7,80000,40,9999,0.100000,99,990,0.000000,5,1.000000,26.145649,22.930570,99,99,0,0,0,0,0
9,99999,61,90000,92,80000,40,9999,0.100000,99,990,0.000000,1,0.000000,20.444231,9.189245,99,99,0,0,0,0,0
9,99999,62,90000,92,80000,40,9999,0.100000,99,990,0.000000,2,0.000000,34.122184,0.970142,99,99,0,0,0,0,0
9,99999,63,90000,7,80000,40,9999,0.100000,99,990,0.000000,4,0.000000,25.732600,3.955193,99,99,0,0,0,0,0
9,99999,64,90000,7,80000,40,9999,0.100000,99,990,0.000000,1,0.000000,27.063587,0.587634,99,99,0,0,0,0,0
9,99999,65,90000,7,80000,40,9999,0.100000,99,990,0.000000,1,1.000000,26.481711,5.291347,99,99,0,0,0,0,0
9,99999,66,90000,7,80000,41,9999,0.100000,99,990,0.000000,3,4.000000,28.418428,14.833961,99,99,0,0,0,0,0
9,99999,67,90000,92,80000,40,9999,0.100000,99,990,0.000000,2,0.000000,30.492582,0.142639,99,99,0,0,0,0,0
9,99999,68,90000,92,80000,0,9999,0.100000,99,990,0.011601,1,0.000000,23.001049,0.172103,99,99,0,0,0,1,0
9,99999,69,90000,7,80000,40,9999,0.100000,99,990,0.000000,2,2.000000,30.083631,16.455840,99,99,0,0,0,0,0
9,99999,70,90000,7,80000,40,9999,0.100000,99,990,0.000000,2,0.000000,25.403785,0.257659,99,99,0,0,0,0,0
9,99999,71,90000,92,80000,40,9999,0.100000,99,990,0.000000,2,1.000000,27.815267,23.543230,99,99,0,0,0,0,0
9,99999,72,90000,92,80000,40,9999,0.100000,99,990,0.000000,3,1.000000,20.233995,9.655898,99,99,0,0,0,0,0
9,99999,73,90000,7,80000,40,9999,0.100000,99,990,0.000000,5,1.000000,26.532695,6.221675,99,99,0,0,0,0,0
9,99999,74,90000,7,80000,40,9999,0.100000,99,990,0.000000,5,0.000000,36.115703,0.209671,99,99,0,0,0,0,0
9,99999,75,90000,92,80000,40,9999,0.100000,99,990,0.000000,2,0.000000,33.298413,0.138395,99,99,0,0,0,0,0
9,99999,76,90000,7,80000,40,9999,0.100000,99,990,0.000000,3,0.000000,27.104763,0.557639,99,99,0,0,0,0,0
9,99999,77,90000,92,80000,40,9999,0.100000,99,990,0.000000,5,2.000000,26.395201,5.132772,99,99,0,0,0,0,0
9,99999,78,90000,7,80000,40,9999,0.100000,99,990,0.000000,2,1.000000,19.813796,8.927825,99,99,0,0,0,0,0
9,99999,79,90000,7,80000,40,9999,0.100000,99,990,0.000000,3,2.000000,26.052235,10.792632,99,99,0,0,0,0,0
9,99999,80,90000,7,80000,0,9999,0.100000,99,990,0.143577,4,0.000000,33.102422,0.173701,99,99,0,1,0,0,0
9,99999,81,90000,92,80000,40,9999,0.100000,99,990,0.000000,2,0.000000,26.357963,1.907192,99,99,0,0,0,0,0
9,99999,82,90000,92,80000,0,9999,0.100000,99,990,0.156542,2,0.000000,29.617653,0.167991,99,99,0,1,0,0,0
9,99999,83,90000,92,80000,40,9999,0.100000,99,990,0.000000,2,0.000000,18.316133,5.930262,99,99,0,0,0,0,0
9,99999,84,90000,92,80000,40,9999,0.100000,99,990,0.000000,2,1.000000,28.902242,10.705431,99,99,0,0,0,0,0
9,99999,85,90000,92,80000,40,9999,0.100000,99,990,0.000000,3,0.000000,26.836039,0.532563,99,99,0,0,0,0,0
9,99999,86,90000,7,80000,40,9999,0.100000,99,990,0.000000,3,1.000000,23.606933,2.249424,99,99,0,0,0,0,0
9,99999,87,90000,92,80000,40,9999,0.100000,99,990,0.000000,1,0.000000,25.986371,0.749682,99,99,0,0,0,0,0
9,99999,88,90000,7,80000,40,9999,0.100000,99,990,0.000000,3,0.000000,21.533323,0.897341,99,99,0,0,0,0,0
9,99999,89,90000,7,80000,40,9999,0.100000,99,990,0.000000,2,0.000000,32.867666,0.241685,99,99,0,0,0,0,0
9,99999,90,90000,92,80000,40,9999,0.100000,99,990,0.000000,1,0.000000,27.235756,0.642305,99,99,0,0,0,0,0
9,99999,91,90000,7,80000,0,9999,0.100000,99,990,0.098755,3,0.000000,32.322050,0.246956,99,99,0,1,0,0,0
9,99999,92,90000,7,80000,90,9999,0.100000,99,990,10.574248,2,3.000000,29.662048,19.258238,99,99,1,0,0,0,0
9,99999,93,90000,92,80000,40,9999,0.100000,99,990,0.000000,2,0.000000,25.640373,1.723174,99,99,0,0,0,0,0
9,99999,94,90000,92,80000,40,9999,0.100000,99,990,0.000000,3,1.000000,24.051859,2.918435,99,99,0,0,0,0,0
9,99999,95,90000,92,80000,40,9999,0.100000,99,990,0.000000,2,0.000000,22.946411,0.432674,99,99,0,0,0,0,0
9,99999,96,90000,92,80000,40,9999,0.100000,99,990,0.000000,2,0.000000,25.817237,0.954773,99,99,0,0,0,0,0
9,99999,97,90000,7,80000,40,9999,0.100000,99,990,0.000000,2,1.000000,19.461521,14.299848,99,99,0,0,0,0,0
9,99999,98,90000,7,80000,40,9999,0.100000,99,990,0.000000,1,0.000000,23.400415,0.071455,99,99,0,0,0,0,0
9,99999,99,90000,92,80000,40,9999,0.100000,99,990,0.000000,2,0.000000,30.690911,1.480247,99,99,0,0,0,0,0
10,109999,0,100000,92,90000,40,9999,0.100000,99,1089,0.000000,3,0.000000,32.834758,1.742522,99,99,0,0,0,0,0
10,109999,1,100000,92,90000,0,9999,0.100000,99,1089,7.462656,2,1.000000,21.298392,1.613141,99,99,0,1,0,0,0
10,109999,2,100000,92,90000,40,9999,0.100000,99,1089,0.000000,2,0.000000,22.224574,1.671451,99,99,0,0,0,0,0
10,109999,3,100000,92,90000,40,9999,0.100000,99,1089,0.000000,3,2.000000,26.295645,15.595910,99,99,0,0,0,0,0
10,109999,4,100000,92,90000,0,9999,0.100000,99,1089,4.695176,3,0.000000,22.604161,0.681897,99,99,0,0,0,0,1
10,109999,5,100000,92,90000,40,9999,0.100000,99,1089,0.000000,3,2.000000,24.611515,15.957407,99,99,0,0,0,0,0
10,109999,6,100000,92,90000,40,9999,0.100000,99,1089,0.000000,4,1.000000,25.338066,14.275312,99,99,0,0,0,0,0
10,109999,7,100000,92,90000,40,9999,0.100000,99,1089,0.000000,3,2.000000,26.090786,5.667266,99,99,0,0,0,0,0
10,109999,8,100000,92,90000,40,9999,0.100000,99,1089,0.000000,2,2.000000,27.683782,16.504200,99,99,0,0,0,0,0
10,109999,9,100000,92,90000,40,9999,0.100000,99,1089,0.000000,3,2.000000,29.632313,11.247428,99,99,0,0,0,0,0
10,109999,10,100000,92,90000,40,9999,0.100000,99,1089,0.000000,1,1.000000,28.128195,22.089801,99,99,0,0,0,0,0
10,109999,11,100000,92,90000,40,9999,0.100000,99,1089,0.000000,5,0.000000,24.305025,15.687930,99,99,0,0,0,0,0
10,109999,12,100000,92,90000,0,9999,0.100000,99,1089,0.574012,1,0.000000,27.176484,0.611786,99,99,0,0,0,0,1
10,109999,13,100000,92,90000,40,9999,0.100000,99,1089,0.000000,4,2.000000,24.723209,15.951249,99,99,0,0,0,0,0
10,109999,14,100000,92,90000,41,9999,0.100000,99,1089,0.000000,4,3.000000,27.341481,13.587860,99,99,0,0,0,0,0
10,109999,15,100000,92,90000,40,9999,0.100000,99,1089,0.000000,5,2.000000,23.406751,15.613213,99,99,0,0,0,0,0
10,109999,16,100000,92,90000,40,9999,0.100000,99,1089,0.000000,4,0.000000,26.806601,1.014363,99,99,0,0,0,0,0
10,109999,17,100000,92,90000,40,9999,0.100000,99,1089,0.000000,1,1.000000,21.532918,1.652378,99,99,0,0,0,0,0
10,109999,18,100000,92,90000,40,9999,0.100000,99,1089,0.000000,4,1.000000,28.779767,21.885439,99,99,0,0,0,0,0
10,109999,19,100000,92,90000,0,9999,0.100000,99,1089,0.014780,3,0.000000,14.351689,0.083875,99,99,0,0,0,0,1
10,109999,20,100000,92,90000,40,9999,0.100000,99,1089,0.000000,2,0.000000,38.031245,0.083131,99,99,0,0,0,0,0
10,109999,21,100000,92,90000,0,9999,0.100000,99,1089,0.024298,3,0.000000,33.055454,0.131800,99,99,0,0,1,0,0
10,109999,22,100000,92,90000,40,9999,0.100000,99,1089,0.000000,2,0.000000,25.847102,2.537006,99,99,0,0,0,0,0
10,109999,23,100000,92,90000,40,9999,0.100000,99,1089,0.000000,4,1.000000,23.954528,16.277276,99,99,0,0,0,0,0
10,109999,24,100000,92,90000,0,9999,0.100000,99,1089,0.003246,1,0.000000,29.392760,0.106975,99,99,0,0,0,1,0
10,109999,25,100000,92,90000,40,9999,0.100000,99,1089,0.000000,2,0.000000,30.860795,2.125195,99,99,0,0,0,0,0
10,109999,26,100000,92,90000,40,9999,0.100000,99,1089,0.000000,3,0.000000,29.583036,0.579792,99,99,0,0,0,0,0
10,109999,27,100000,92,90000,40,9999,0.100000,99,1089,0.000000,3,0.000000,30.901196,0.144350,99,99,0,0,0,0,0
10,109999,28,100000,92,90000,40,9999,0.100000,99,1089,0.000000,3,1.000000,23.855528,16.402981,99,99,0,0,0,0,0
10,109999,29,100000,92,90000,40,9999,0.100000,99,1089,0.000000,3,0.000000,14.009569,0.123504,99,99,0,0,0,0,0
10,109999,30,100000,92,90000,40,9999,0.100000,99,1089,0.000000,3,0.000000,28.393402,13.770318,99,99,0,0,0,0,0
10,109999,31,100000,92,90000,40,9999,0.100000,99,1089,0.000000,2,0.000000,32.972327,0.769063,99,99,0,0,0,0,0
10,109999,32,100000,92,90000,40,9999,0.100000,99,1089,0.000000,2,0.000000,26.403539,1.529091,99,99,0,0,0,0,0
10,109999,33,100000,92,90000,40,9999,0.100000,99,1089,0.000000,3,0.000000,30.293055,0.135451,99,99,0,0,0,0,0
10,109999,34,100000,92,90000,40,9999,0.100000,99,1089,0.000000,1,0.000000,34.226243,0.230416,99,99,0,0,0,0,0
10,109999,35,100000,92,90000,40,9999,0.100000,99,1089,0.000000,3,0.000000,30.476570,2.150159,99,99,0,0,0,0,0
10,109999,36,100000,92,90000,40,9999,0.100000,99,1089,0.000000,2,2.000000,23.014598,13.039634,99,99,0,0,0,0,0
10,109999,37,100000,92,90000,40,9999,0.100000,99,1089,0.000000,4,0.000000,29.867306,0.099722,99,99,0,0,0,0,0
10,109999,38,100000,92,90000,40,9999,0.100000,99,1089,0.000000,2,1.000000,23.610904,10.971333,99,99,0,0,0,0,0
10,109999,39,100000,92,90000,40,9999,0.100000,99,1089,0.000000,3,0.000000,15.922451,1.096026,99,99,0,0,0,0,0
10,109999,40,100000,92,90000,40,9999,0.100000,99,1089,0.000000,2,0.000000,34.678373,0.237758,99,99,0,0,0,0,0
10,109999,41,100000,92,90000,40,9999,0.100000,99,1089,0.000000,3,0.000000,32.132043,22.641110,99,99,0,0,0,0,0
10,109999,42,100000,92,90000,40,9999,0.100000,99,1089,0.000000,2,0.000000,18.196428,0.248840,99,99,0,0,0,0,0
10,109999,43,100000,92,90000,41,9999,0.100000,99,1089,0.000000,5,6.000000,30.293171,10.935810,99,99,0,0,0,0,0
10,109999,44,100000,92,90000,40,9999,0.100000,99,1089,0.000000,3,0.000000,30.102521,1.001415,99,99,0,0,0,0,0
10,109999,45,100000,92,90000,40,9999,0.100000,99,1089,0.000000,2,0.000000,19.170401,10.308833,99,99,0,0,0,0,0
10,109999,46,100000,92,90000,40,9999,0.100000,99,1089,0.000000,4,0.000000,26.916259,2.950698,99,99,0,0,0,0,0
10,109999,47,100000,92,90000,40,9999,0.100000,99,1089,0.000000,4,0.000000,26.389508,2.400911,99,99,0,0,0,0,0
10,109999,48,100000,92,90000,41,9999,0.100000,99,1089,0.000000,3,5.000000,24.857257,15.389467,99,99,0,0,0,0,0
10,109999,49,100000,92,90000,40,9999,0.100000,99,1089,0.000000,2,0.000000,26.944226,1.741288,99,99,0,0,0,0,0
10,109999,50,100000,92,90000,41,9999,0.100000,99,1089,0.000000,2,3.000000,23.355978,19.552095,99,99,0,0,0,0,0
10,109999,51,100000,92,90000,40,9999,0.100000,99,1089,0.000000,4,2.000000,24.314655,13.318701,99,99,0,0,0,0,0
10,109999,52,100000,92,90000,0,9999,0.100000,99,1089,0.262218,4,0.000000,26.814384,0.335045,99,99,0,0,0,0,1
10,109999,53,100000,92,90000,40,9999,0.100000,99,1089,0.000000,3,0.000000,17.293661,0.267962,99,99,0,0,0,0,0
10,109999,54,100000,92,90000,40,9999,0.100000,99,1089,0.000000,2,0.000000,32.029188,0.139906,99,99,0,0,0,0,0
10,109999,55,100000,92,90000,40,9999,0.100000,99,1089,0.000000,4,0.000000,29.723377,0.891794,99,99,0,0,0,0,0
10,109999,56,100000,92,90000,40,9999,0.100000,99,1089,0.000000,1,0.000000,27.163019,0.416812,99,99,0,0,0,0,0
10,109999,57,100000,92,90000,0,9999,0.100000,99,1089,0.294427,2,0.000000,25.766611,0.516264,99,99,0,0,0,0,1
10,109999,58,100000,92,90000,40,9999,0.100000,99,1089,0.000000,4,0.000000,27.155553,0.460927,99,99,0,0,0,0,0
10,109999,59,100000,92,90000,40,9999,0.100000,99,1089,0.000000,3,0.000000,30.802426,1.591168,99,99,0,0,0,0,0
10,109999,60,100000,92,90000,40,9999,0.100000,99,1089,0.000000,5,0.000000,26.564990,7.762921,99,99,0,0,0,0,0
10,109999,61,100000,92,90000,40,9999,0.100000,99,1089,0.000000,1,0.000000,20.497163,8.252836,99,99,0,0,0,0,0
10,109999,62,100000,92,90000,40,9999,0.100000,99,1089,0.000000,2,2.000000,34.569419,3.710188,99,99,0,0,0,0,0
10,109999,63,100000,92,90000,40,9999,0.100000,99,1089,0.000000,4,0.000000,26.057706,2.708134,99,99,0,0,0,0,0
10,109999,64,100000,92,90000,40,9999,0.100000,99,1089,0.000000,1,0.000000,27.113076,0.440572,99,99,0,0,0,0,0
10,109999,65,100000,92,90000,40,9999,0.100000,99,1089,0.000000,1,0.000000,26.399735,1.726929,99,99,0,0,0,0,0
10,109999,66,100000,92,90000,40,9999,0.100000,99,1089,0.000000,4,1.000000,26.045358,4.666541,99,99,0,0,0,0,0
10,109999,67,100000,92,90000,40,9999,0.100000,99,1089,0.000000,2,0.000000,30.492326,0.142079,99,99,0,0,0,0,0
10,109999,68,100000,92,90000,0,9999,0.100000,99,1089,0.002773,1,0.000000,22.964556,0.164073,99,99,0,0,0,1,0
10,109999,69,100000,92,90000,40,9999,0.100000,99,1089,0.000000,2,1.000000,30.204373,16.322089,99,99,0,0,0,0,0
10,109999,70,100000,92,90000,40,9999,0.100000,99,1089,0.000000,2,0.000000,25.607112,0.270469,99,99,0,0,0,0,0
10,109999,71,100000,92,90000,41,9999,0.100000,99,1089,0.000000,2,6.000000,28.606480,17.009564,99,99,0,0,0,0,0
10,109999,72,100000,92,90000,40,9999,0.100000,99,1089,0.000000,3,0.000000,20.140297,6.413381,99,99,0,0,0,0,0
10,109999,73,100000,92,90000,42,9999,0.100000,99,1089,0.000000,5,7.000000,26.670194,18.521370,99,99,0,0,0,0,0
10,109999,74,100000,92,90000,40,9999,0.100000,99,1089,0.000000,5,0.000000,36.115618,0.208300,99,99,0,0,0,0,0
10,109999,75,100000,92,90000,40,9999,0.100000,99,1089,0.000000,2,0.000000,33.296468,0.134059,99,99,0,0,0,0,0
10,109999,76,100000,92,90000,40,9999,0.100000,99,1089,0.000000,3,0.000000,27.135294,0.596832,99,99,0,0,0,0,0
10,109999,77,100000,92,90000,42,9999,0.100000,99,1089,0.000000,5,8.000000,28.687083,19.241367,99,99,0,0,0,0,0
10,109999,78,100000,92,90000,40,9999,0.100000,99,1089,0.000000,2,0.000000,21.061310,7.129719,99,99,0,0,0,0,0
10,109999,79,100000,92,90000,40,9999,0.100000,99,1089,0.000000,3,1.000000,24.424481,13.538322,99,99,0,0,0,0,0
10,109999,80,100000,92,90000,40,9999,0.100000,99,1089,0.000000,4,0.000000,33.128668,0.344155,99,99,0,0,0,0,0
10,109999,81,100000,92,90000,40,9999,0.100000,99,1089,0.000000,2,0.000000,26.396166,1.540828,99,99,0,0,0,0,0
10,109999,82,100000,92,90000,0,9999,0.100000,99,1089,0.143991,2,0.000000,29.625626,0.174257,99,99,0,1,0,0,0
10,109999,83,100000,92,90000,41,9999,0.100000,99,1089,0.000000,2,4.000000,19.059981,9.380294,99,99,0,0,0,0,0
10,109999,84,100000,92,90000,41,9999,0.100000,99,1089,0.000000,2,4.000000,30.195613,14.472575,99,99,0,0,0,0,0
10,109999,85,100000,92,90000,40,9999,0.100000,99,1089,0.000000,3,0.000000,27.044974,0.257247,99,99,0,0,0,0,0
10,109999,86,100000,92,90000,40,9999,0.100000,99,1089,0.000000,3,2.000000,25.291135,4.915996,99,99,0,0,0,0,0
10,109999,87,100000,92,90000,40,9999,0.100000,99,1089,0.000000,1,0.000000,26.240304,0.778051,99,99,0,0,0,0,0
10,109999,88,100000,92,90000,40,9999,0.100000,99,1089,0.000000,3,1.000000,21.566020,1.898258,99,99,0,0,0,0,0
10,109999,89,100000,92,90000,40,9999,0.100000,99,1089,0.000000,2,0.000000,32.868417,0.227271,99,99,0,0,0,0,0
10,109999,90,100000,92,90000,40,9999,0.100000,99,1089,0.000000,1,0.000000,27.209402,0.685652,99,99,0,0,0,0,0
10,109999,91,100000,92,90000,0,9999,0.100000,99,1089,0.107562,3,0.000000,32.336193,0.247990,99,99,0,1,0,0,0
10,109999,92,100000,4,90000,40,9999,0.100000,99,1089,0.000000,3,2.000000,25.993190,14.433483,99,99,0,0,0,0,0
10,109999,93,100000,92,90000,40,9999,0.100000,99,1089,0.000000,2,0.000000,25.864654,1.764343,99,99,0,0,0,0,0
10,109999,94,100000,92,90000,42,9999,0.100000,99,1089,0.000000,3,7.000000,26.043839,18.886004,99,99,0,0,0,0,0
10,109999,95,100000,92,90000,40,9999,0.100000,99,1089,0.000000,2,0.000000,22.907660,0.418093,99,99,0,0,0,0,0
10,109999,96,100000,92,90000,40,9999,0.100000,99,1089,0.000000,2,0.000000,26.051541,0.581901,99,99,0,0,0,0,0
10,109999,97,100000,92,90000,40,9999,0.100000,99,1089,0.000000,2,0.000000,19.889221,9.509047,99,99,0,0,0,0,0
10,109999,98,100000,92,90000,40,9999,0.100000,99,1089,0.000000,1,0.000000,23.377999,0.064316,99,99,0,0,0,0,0
10,109999,99,100000,92,90000,40,9999,0.100000,99,1089,0.000000,2,0.000000,30.586362,1.575816,99,99,0,0,0,0,0
11,119999,0,110000,1,100000,40,9999,0.100000,99,1188,0.000000,3,0.000000,33.063204,1.736708,99,99,0,0,0,0,0
11,119999,1,110000,4,100000,0,9999,0.100000,99,1188,7.397400,2,1.000000,20.974534,2.474650,99,99,0,1,0,0,0
11,119999,2,110000,1,100000,40,9999,0.100000,99,1188,0.000000,2,0.000000,21.676873,1.057163,99,99,0,0,0,0,0
11,119999,3,110000,1,100000,40,9999,0.100000,99,1188,0.000000,3,2.000000,24.703729,12.477247,99,99,0,0,0,0,0
11,119999,4,110000,1,100000,0,9999,0.100000,99,1188,1.417627,3,0.000000,22.622105,0.375545,99,99,0,0,0,0,1
11,119999,5,110000,1,100000,40,9999,0.100000,99,1188,0.000000,3,1.000000,26.286819,10.414577,99,99,0,0,0,0,0
11,119999,6,110000,1,100000,40,9999,0.100000,99,1188,0.000000,4,2.000000,24.962011,18.918341,99,99,0,0,0,0,0
11,119999,7,110000,1,100000,40,9999,0.100000,99,1188,0.000000,4,0.000000,26.643966,7.664923,99,99,0,0,0,0,0
11,119999,8,110000,1,100000,40,9999,0.100000,99,1188,0.000000,2,2.000000,25.767518,16.438242,99,99,0,0,0,0,0
11,119999,9,110000,1,100000,40,9999,0.100000,99,1188,0.000000,3,0.000000,27.191638,6.166260,99,99,0,0,0,0,0
11,119999,10,110000,1,100000,41,9999,0.100000,99,1188,0.000000,1,3.000000,28.486614,14.418049,99,99,0,0,0,0,0
11,119999,11,110000,1,100000,40,9999,0.100000,99,1188,0.000000,5,1.000000,24.415481,17.530593,99,99,0,0,0,0,0
11,119999,12,110000,1,100000,2,9999,0.100000,99,1188,43.219402,1,8.000000,27.310515,10.541074,99,99,0,0,0,0,1
11,119999,13,110000,1,100000,40,9999,0.100000,99,1188,0.000000,4,1.000000,26.399947,10.315822,99,99,0,0,0,0,0
11,119999,14,110000,1,100000,40,9999,0.100000,99,1188,0.000000,4,2.000000,25.405694,18.728276,99,99,0,0,0,0,0
11,119999,15,110000,1,100000,40,9999,0.100000,99,1188,0.000000,5,1.000000,23.408993,11.113440,99,99,0,0,0,0,0
11,119999,16,110000,1,100000,40,9999,0.100000,99,1188,0.000000,4,0.000000,27.008458,1.388750,99,99,0,0,0,0,0
11,119999,17,110000,1,100000,40,9999,0.100000,99,1188,0.000000,1,1.000000,21.191884,2.563982,99,99,0,0,0,0,0
11,119999,18,110000,1,100000,41,9999,0.100000,99,1188,0.000000,4,4.000000,28.436231,17.077595,99,99,0,0,0,0,0
11,119999,19,110000,1,100000,0,9999,0.100000,99,1188,0.013770,3,0.000000,14.349111,0.082314,99,99,0,0,0,0,1
11,119999,20,110000,1,100000,40,9999,0.100000,99,1188,0.000000,2,0.000000,38.031216,0.084840,99,99,0,0,0,0,0
11,119999,21,110000,1,100000,0,9999,0.100000,99,1188,0.008678,3,0.000000,33.053776,0.081522,99,99,0,0,1,0,0
11,119999,22,110000,1,100000,41,9999,0.100000,99,1188,0.000000,2,3.000000,26.091566,11.705464,99,99,0,0,0,0,0
11,119999,23,110000,1,100000,40,9999,0.100000,99,1188,0.000000,4,2.000000,24.108324,13.652171,99,99,0,0,0,0,0
11,119999,24,110000,1,100000,0,9999,0.100000,99,1188,0.002722,1,0.000000,29.393320,0.107821,99,99,0,0,0,1,0
11,119999,25,110000,1,100000,40,9999,0.100000,99,1188,0.000000,2,0.000000,30.759808,2.150777,99,99,0,0,0,0,0
11,119999,26,110000,1,100000,40,9999,0.100000,99,1188,0.000000,3,0.000000,29.583389,0.566629,99,99,0,0,0,0,0
11,119999,27,110000,1,100000,40,9999,0.100000,99,1188,0.000000,3,0.000000,30.900770,0.141767,99,99,0,0,0,0,0
11,119999,28,110000,1,100000,40,9999,0.100000,99,1188,0.000000,3,2.000000,24.010464,13.853476,99,99,0,0,0,0,0
11,119999,29,110000,1,100000,40,9999,0.100000,99,1188,0.000000,3,0.000000,14.007010,0.120127,99,99,0,0,0,0,0
11,119999,30,110000,1,100000,40,9999,0.100000,99,1188,0.000000,3,0.000000,27.923462,23.930469,99,99,0,0,0,0,0
11,119999,31,110000,1,100000,40,9999,0.100000,99,1188,0.000000,2,0.000000,33.195212,0.375453,99,99,0,0,0,0,0
11,119999,32,110000,1,100000,40,9999,0.100000,99,1188,0.000000,2,2.000000,26.491426,3.918927,99,99,0,0,0,0,0
11,119999,33,110000,1,100000,40,9999,0.100000,99,1188,0.000000,3,0.000000,30.292828,0.136367,99,99,0,0,0,0,0
11,119999,34,110000,1,100000,40,9999,0.100000,99,1188,0.000000,1,0.000000,34.227345,0.238586,99,99,0,0,0,0,0
11,119999,35,110000,1,100000,40,9999,0.100000,99,1188,0.000000,3,0.000000,30.365673,2.523188,99,99,0,0,0,0,0
11,119999,36,110000,1,100000,40,9999,0.100000,99,1188,0.000000,2,1.000000,20.714519,5.049258,99,99,0,0,0,0,0
11,119999,37,110000,1,100000,40,9999,0.100000,99,1188,0.000000,4,0.000000,29.867237,0.101148,99,99,0,0,0,0,0
11,119999,38,110000,1,100000,40,9999,0.100000,99,1188,0.000000,2,1.000000,24.701480,9.799322,99,99,0,0,0,0,0
11,119999,39,110000,1,100000,40,9999,0.100000,99,1188,0.000000,3,0.000000,15.543419,1.111010,99,99,0,0,0,0,0
11,119999,40,110000,1,100000,40,9999,0.100000,99,1188,0.000000,2,0.000000,34.679590,0.230189,99,99,0,0,0,0,0
11,119999,41,110000,1,100000,40,9999,0.100000,99,1188,0.000000,3,0.000000,32.086569,22.257681,99,99,0,0,0,0,0
11,119999,42,110000,1,100000,40,9999,0.100000,99,1188,0.000000,2,0.000000,18.196680,0.230214,99,99,0,0,0,0,0
11,119999,43,110000,1,100000,40,9999,0.100000,99,1188,0.000000,5,0.000000,36.638489,0.556349,99,99,0,0,0,0,0
11,119999,44,110000,1,100000,40,9999,0.100000,99,1188,0.000000,3,0.000000,30.245902,1.966451,99,99,0,0,0,0,0
11,119999,45,110000,1,100000,40,9999,0.100000,99,1188,0.000000,2,0.000000,19.668442,9.452920,99,99,0,0,0,0,0
11,119999,46,110000,1,100000,40,9999,0.100000,99,1188,0.000000,4,0.000000,26.970293,1.038668,99,99,0,0,0,0,0
11,119999,47,110000,1,100000,41,9999,0.100000,99,1188,0.000000,4,3.000000,26.218517,14.598870,99,99,0,0,0,0,0
