generation,iteration,robot,birthday,ancestor_id,ancestor_birthday,cell_id,age,sigma,maps,genomes,fitness,cells_in_map,dist_max,dist_pot_max,dist_total,com_rx,com_tx,obj_group1,obj_group2,obj_group3,obj_group4,obj_group5
0,9999,0,0,0,0,41,9999,0.100000,99,0,0.000000,0,4.000000,32.910259,16.135383,99,99,0,0,0,0,0
0,9999,1,0,1,0,40,9999,0.100000,99,0,0.000000,0,0.000000,25.181897,5.612327,99,99,0,0,0,0,0
0,9999,2,0,2,0,41,9999,0.100000,99,0,0.000000,0,3.000000,27.286122,13.250904,99,99,0,0,0,0,0
0,9999,3,0,3,0,0,9999,0.100000,99,0,0.324560,0,0.000000,24.235870,0.579477,99,99,0,0,0,0,1
0,9999,4,0,4,0,0,9999,0.100000,99,0,0.028923,0,0.000000,21.152130,1.141633,99,99,0,0,1,0,0
0,9999,5,0,5,0,0,9999,0.100000,99,0,0.053274,0,0.000000,26.726028,1.750455,99,99,0,0,0,0,1
0,9999,6,0,6,0,40,9999,0.100000,99,0,0.000000,0,0.000000,26.953171,5.364572,99,99,0,0,0,0,0
0,9999,7,0,7,0,41,9999,0.100000,99,0,0.000000,0,2.000000,13.577709,19.885168,99,99,0,0,0,0,0
0,9999,8,0,8,0,0,9999,0.100000,99,0,0.030850,0,0.000000,30.167548,4.534079,99,99,0,0,0,0,1
0,9999,9,0,9,0,0,9999,0.100000,99,0,0.027059,0,2.000000,29.277448,13.971616,99,99,0,0,0,0,1
0,9999,10,0,10,0,0,9999,0.100000,99,0,0.028924,0,0.000000,21.182576,0.753264,99,99,0,0,1,0,0
0,9999,11,0,11,0,41,9999,0.100000,99,0,0.000000,0,4.000000,33.926555,11.806641,99,99,0,0,0,0,0
0,9999,12,0,12,0,0,9999,0.100000,99,0,0.022105,0,0.000000,25.646405,0.779165,99,99,0,0,0,0,1
0,9999,13,0,13,0,0,9999,0.100000,99,0,0.032973,0,1.000000,26.461470,3.040253,99,99,0,0,0,1,0
0,9999,14,0,14,0,0,9999,0.100000,99,0,0.426175,0,2.000000,32.381466,4.252047,99,99,0,0,0,0,1
0,9999,15,0,15,0,40,9999,0.100000,99,0,0.000000,0,0.000000,26.479381,2.896678,99,99,0,0,0,0,0
0,9999,16,0,16,0,1,9999,0.100000,99,0,0.040152,0,4.000000,35.955731,5.471369,99,99,0,1,0,0,0
0,9999,17,0,17,0,90,9999,0.100000,99,0,6.104631,0,1.000000,24.493102,2.349109,99,99,1,0,0,0,0
0,9999,18,0,18,0,41,9999,0.100000,99,0,0.000000,0,4.000000,25.454773,14.942550,99,99,0,0,0,0,0
0,9999,19,0,19,0,0,9999,0.100000,99,0,0.614312,0,0.000000,23.382078,3.035491,99,99,0,0,0,0,1
0,9999,20,0,20,0,0,9999,0.100000,99,0,0.160809,0,2.000000,29.553260,6.931512,99,99,0,0,0,0,1
0,9999,21,0,21,0,40,9999,0.100000,99,0,0.000000,0,0.000000,27.172362,4.354270,99,99,0,0,0,0,0
0,9999,22,0,22,0,40,9999,0.100000,99,0,0.000000,0,1.000000,22.419742,4.478268,99,99,0,0,0,0,0
0,9999,23,0,23,0,41,9999,0.100000,99,0,0.000000,0,2.000000,14.188078,11.303633,99,99,0,0,0,0,0
0,9999,24,0,24,0,0,9999,0.100000,99,0,0.007930,0,0.000000,21.681181,0.278895,99,99,0,0,0,1,0
0,9999,25,0,25,0,40,9999,0.100000,99,0,0.000000,0,0.000000,18.256513,5.811633,99,99,0,0,0,0,0
0,9999,26,0,26,0,40,9999,0.100000,99,0,0.000000,0,0.000000,33.541028,4.353408,99,99,0,0,0,0,0
0,9999,27,0,27,0,40,9999,0.100000,99,0,0.000000,0,1.000000,27.846568,2.144410,99,99,0,0,0,0,0
0,9999,28,0,28,0,40,9999,0.100000,99,0,0.000000,0,3.000000,30.081086,9.916089,99,99,0,0,0,0,0
0,9999,29,0,29,0,40,9999,0.100000,99,0,0.000000,0,1.000000,15.515433,5.648724,99,99,0,0,0,0,0
0,9999,30,0,30,0,0,9999,0.100000,99,0,0.177237,0,1.000000,25.965588,2.827136,99,99,0,0,0,0,1
0,9999,31,0,31,0,0,9999,0.100000,99,0,0.318840,0,1.000000,28.748867,5.873689,99,99,0,0,0,0,1
0,9999,32,0,32,0,40,9999,0.100000,99,0,0.000000,0,1.000000,27.848809,5.872807,99,99,0,0,0,0,0
0,9999,33,0,33,0,43,9999,0.100000,99,0,0.000000,0,9.000000,27.917868,23.967272,99,99,0,0,0,0,0
0,9999,34,0,34,0,40,9999,0.100000,99,0,0.000000,0,3.000000,28.848077,13.364999,99,99,0,0,0,0,0
0,9999,35,0,35,0,0,9999,0.100000,99,0,0.015891,0,0.000000,17.779460,1.116006,99,99,0,0,0,0,1
0,9999,36,0,36,0,40,9999,0.100000,99,0,0.000000,0,1.000000,23.817742,14.187107,99,99,0,0,0,0,0
0,9999,37,0,37,0,0,9999,0.100000,99,0,0.961628,0,1.000000,29.080094,2.645037,99,99,0,0,0,0,1
0,9999,38,0,38,0,0,9999,0.100000,99,0,0.250190,0,0.000000,17.580237,3.771478,99,99,0,0,0,0,1
0,9999,39,0,39,0,0,9999,0.100000,99,0,0.001296,0,1.000000,33.834639,2.684313,99,99,0,0,0,0,1
0,9999,40,0,40,0,40,9999,0.100000,99,0,0.000000,0,1.000000,30.404411,7.692611,99,99,0,0,0,0,0
0,9999,41,0,41,0,40,9999,0.100000,99,0,0.000000,0,1.000000,28.363279,13.390666,99,99,0,0,0,0,0
0,9999,42,0,42,0,40,9999,0.100000,99,0,0.000000,0,1.000000,20.636729,7.656854,99,99,0,0,0,0,0
0,9999,43,0,43,0,41,9999,0.100000,99,0,0.000000,0,3.000000,23.951702,8.136584,99,99,0,0,0,0,0
0,9999,44,0,44,0,0,9999,0.100000,99,0,0.000496,0,1.000000,25.370751,3.916629,99,99,0,0,0,1,0
0,9999,45,0,45,0,40,9999,0.100000,99,0,0.000000,0,1.000000,14.916299,7.985071,99,99,0,0,0,0,0
0,9999,46,0,46,0,40,9999,0.100000,99,0,0.000000,0,1.000000,29.163768,12.549489,99,99,0,0,0,0,0
0,9999,47,0,47,0,40,9999,0.100000,99,0,0.000000,0,1.000000,30.670027,2.299319,99,99,0,0,0,0,0
0,9999,48,0,48,0,0,9999,0.100000,99,0,0.001621,0,0.000000,22.844454,2.675207,99,99,0,0,0,0,1
0,9999,49,0,49,0,40,9999,0.100000,99,0,0.000000,0,2.000000,26.601205,5.260419,99,99,0,0,0,0,0
0,9999,50,0,50,0,40,9999,0.100000,99,0,0.000000,0,1.000000,16.952697,4.345824,99,99,0,0,0,0,0
0,9999,51,0,51,0,40,9999,0.100000,99,0,0.000000,0,2.000000,30.167548,13.774298,99,99,0,0,0,0,0
0,9999,52,0,52,0,40,9999,0.100000,99,0,0.000000,0,0.000000,21.244554,1.337427,99,99,0,0,0,0,0
0,9999,53,0,53,0,91,9999,0.100000,99,0,34.588338,0,5.000000,27.678235,17.486171,99,99,1,0,0,0,0
0,9999,54,0,54,0,40,9999,0.100000,99,0,0.000000,0,1.000000,13.220248,2.705984,99,99,0,0,0,0,0
0,9999,55,0,55,0,40,9999,0.100000,99,0,0.000000,0,0.000000,22.903100,0.437912,99,99,0,0,0,0,0
0,9999,56,0,56,0,40,9999,0.100000,99,0,0.000000,0,2.000000,26.012495,2.638127,99,99,0,0,0,0,0
0,9999,57,0,57,0,40,9999,0.100000,99,0,0.000000,0,1.000000,30.122127,7.655116,99,99,0,0,0,0,0
0,9999,58,0,58,0,40,9999,0.100000,99,0,0.000000,0,1.000000,30.587618,14.550242,99,99,0,0,0,0,0
0,9999,59,0,59,0,0,9999,0.100000,99,0,1.417292,0,1.000000,16.350591,1.843287,99,99,0,0,1,0,0
0,9999,60,0,60,0,40,9999,0.100000,99,0,0.000000,0,1.000000,27.366923,6.020416,99,99,0,0,0,0,0
0,9999,61,0,61,0,0,9999,0.100000,99,0,0.995709,0,0.000000,20.825895,1.119666,99,99,0,0,0,0,1
0,9999,62,0,62,0,40,9999,0.100000,99,0,0.000000,0,1.000000,16.525335,1.455255,99,99,0,0,0,0,0
0,9999,63,0,63,0,40,9999,0.100000,99,0,0.000000,0,0.000000,21.745638,0.799006,99,99,0,0,0,0,0
0,9999,64,0,64,0,0,9999,0.100000,99,0,0.021533,0,0.000000,17.833901,0.495049,99,99,0,0,0,0,1
0,9999,65,0,65,0,0,9999,0.100000,99,0,0.986674,0,1.000000,27.640011,3.212777,99,99,0,1,0,0,0
0,9999,66,0,66,0,40,9999,0.100000,99,0,0.000000,0,1.000000,19.493682,2.831488,99,99,0,0,0,0,0
0,9999,67,0,67,0,40,9999,0.100000,99,0,0.000000,0,0.000000,22.427791,1.292235,99,99,0,0,0,0,0
0,9999,68,0,68,0,40,9999,0.100000,99,0,0.000000,0,0.000000,28.902910,0.601613,99,99,0,0,0,0,0
0,9999,69,0,69,0,40,9999,0.100000,99,0,0.000000,0,0.000000,27.550499,0.752248,99,99,0,0,0,0,0
0,9999,70,0,70,0,40,9999,0.100000,99,0,0.000000,0,1.000000,24.596232,5.640135,99,99,0,0,0,0,0
0,9999,71,0,71,0,40,9999,0.100000,99,0,0.000000,0,0.000000,22.385879,0.906118,99,99,0,0,0,0,0
0,9999,72,0,72,0,40,9999,0.100000,99,0,0.000000,0,0.000000,29.293781,1.913315,99,99,0,0,0,0,0
0,9999,73,0,73,0,0,9999,0.100000,99,0,0.029835,0,0.000000,18.902247,0.763786,99,99,0,0,0,0,1
0,9999,74,0,74,0,40,9999,0.100000,99,0,0.000000,0,0.000000,26.182089,2.415400,99,99,0,0,0,0,0
0,9999,75,0,75,0,41,9999,0.100000,99,0,0.000000,0,4.000000,28.569060,14.687235,99,99,0,0,0,0,0
0,9999,76,0,76,0,40,9999,0.100000,99,0,0.000000,0,2.000000,30.761744,5.057165,99,99,0,0,0,0,0
0,9999,77,0,77,0,40,9999,0.100000,99,0,0.000000,0,0.000000,14.257934,11.198330,99,99,0,0,0,0,0
0,9999,78,0,78,0,40,9999,0.100000,99,0,0.000000,0,2.000000,27.710167,3.387000,99,99,0,0,0,0,0
0,9999,79,0,79,0,40,9999,0.100000,99,0,0.000000,0,2.000000,33.227713,6.492588,99,99,0,0,0,0,0
0,9999,80,0,80,0,41,9999,0.100000,99,0,0.000000,0,2.000000,16.325346,8.950155,99,99,0,0,0,0,0
0,9999,81,0,81,0,0,9999,0.100000,99,0,0.000839,0,0.000000,22.332883,1.401291,99,99,0,0,0,0,1
0,9999,82,0,82,0,40,9999,0.100000,99,0,0.000000,0,0.000000,15.860034,1.101665,99,99,0,0,0,0,0
0,9999,83,0,83,0,40,9999,0.100000,99,0,0.000000,0,1.000000,13.280244,19.729852,99,99,0,0,0,0,0
0,9999,84,0,84,0,1,9999,0.100000,99,0,0.623075,0,3.000000,19.552487,7.180955,99,99,0,0,1,0,0
0,9999,85,0,85,0,1,9999,0.100000,99,0,0.591515,0,3.000000,27.129215,5.826301,99,99,0,1,0,0,0
0,9999,86,0,86,0,0,9999,0.100000,99,0,0.004105,0,0.000000,32.228360,0.755678,99,99,0,0,0,1,0
0,9999,87,0,87,0,40,9999,0.100000,99,0,0.000000,0,0.000000,27.502571,2.028250,99,99,0,0,0,0,0
0,9999,88,0,88,0,40,9999,0.100000,99,0,0.000000,0,1.000000,24.222517,8.814905,99,99,0,0,0,0,0
0,9999,89,0,89,0,0,9999,0.100000,99,0,0.503826,0,1.000000,14.060788,2.260828,99,99,0,0,0,0,1
0,9999,90,0,90,0,40,9999,0.100000,99,0,0.000000,0,1.000000,16.168468,6.053723,99,99,0,0,0,0,0
0,9999,91,0,91,0,40,9999,0.100000,99,0,0.000000,0,2.000000,28.999474,7.319305,99,99,0,0,0,0,0
0,9999,92,0,92,0,40,9999,0.100000,99,0,0.000000,0,1.000000,27.935997,17.780509,99,99,0,0,0,0,0
0,9999,93,0,93,0,0,9999,0.100000,99,0,0.000630,0,0.000000,26.560193,2.237826,99,99,0,0,0,0,1
0,9999,94,0,94,0,41,9999,0.100000,99,0,0.000000,0,5.000000,26.985288,34.864837,99,99,0,0,0,0,0
0,9999,95,0,95,0,40,9999,0.100000,99,0,0.000000,0,1.000000,29.272000,3.411576,99,99,0,0,0,0,0
0,9999,96,0,96,0,40,9999,0.100000,99,0,0.000000,0,1.000000,23.668211,2.102013,99,99,0,0,0,0,0
0,9999,97,0,97,0,40,9999,0.100000,99,0,0.000000,0,2.000000,29.974484,12.068949,99,99,0,0,0,0,0
0,9999,98,0,98,0,40,9999,0.100000,99,0,0.000000,0,1.000000,21.837652,11.104394,99,99,0,0,0,0,0
0,9999,99,0,99,0,40,9999,0.100000,99,0,0.000000,0,0.000000,21.629703,1.736799,99,99,0,0,0,0,0
1,19999,0,10000,0,0,0,9999,0.100000,99,0,0.120382,1,1.000000,30.161050,2.867919,99,99,0,0,0,0,1
1,19999,1,10000,0,0,40,9999,0.100000,99,0,0.000000,2,2.000000,25.034337,7.354100,99,99,0,0,0,0,0
1,19999,2,10000,17,0,40,9999,0.100000,99,0,0.000000,5,0.000000,28.836229,22.644443,99,99,0,0,0,0,0
1,19999,3,10000,3,0,0,9999,0.100000,99,0,0.558406,3,0.000000,24.419116,0.429863,99,99,0,0,0,0,1
1,19999,4,10000,3,0,0,9999,0.100000,99,0,0.082676,4,0.000000,20.655433,0.214503,99,99,0,0,1,0,0
1,19999,5,10000,34,0,0,9999,0.100000,99,0,0.143419,5,0.000000,26.180384,0.574219,99,99,0,0,0,0,1
1,19999,6,10000,28,0,40,9999,0.100000,99,0,0.000000,5,0.000000,26.298504,0.619600,99,99,0,0,0,0,0
1,19999,7,10000,33,0,40,9999,0.100000,99,0,0.000000,5,0.000000,14.415656,3.930423,99,99,0,0,0,0,0
1,19999,8,10000,1,0,0,9999,0.100000,99,0,0.123762,4,0.000000,30.690885,0.552678,99,99,0,0,0,0,1
1,19999,9,10000,1,0,0,9999,0.100000,99,0,0.047402,4,0.000000,28.590394,0.235666,99,99,0,0,0,0,1
1,19999,10,10000,17,0,0,9999,0.100000,99,0,0.005201,5,0.000000,20.993555,0.103402,99,99,0,0,1,0,0
1,19999,11,10000,11,0,40,9999,0.100000,99,0,0.000000,4,0.000000,30.395936,1.602748,99,99,0,0,0,0,0
1,19999,12,10000,0,0,40,9999,0.100000,99,0,0.000000,3,0.000000,25.463822,0.777470,99,99,0,0,0,0,0
1,19999,13,10000,61,0,0,9999,0.100000,99,0,0.393860,5,0.000000,26.079206,0.252070,99,99,0,0,0,1,0
1,19999,14,10000,1,0,0,9999,0.100000,99,0,0.020076,4,0.000000,33.418172,0.121015,99,99,0,0,0,0,1
1,19999,15,10000,1,0,40,9999,0.100000,99,0,0.000000,5,0.000000,25.787810,0.407723,99,99,0,0,0,0,0
1,19999,16,10000,53,0,0,9999,0.100000,99,0,0.812641,7,0.000000,32.005773,0.837031,99,99,0,1,0,0,0
1,19999,17,10000,17,0,90,9999,0.100000,99,0,0.270636,4,0.000000,25.894542,0.891750,99,99,1,0,0,0,0
1,19999,18,10000,17,0,91,9999,0.100000,99,0,13.672338,5,5.000000,28.816902,10.246234,99,99,1,0,0,0,0
1,19999,19,10000,33,0,0,9999,0.100000,99,0,0.866511,6,0.000000,23.733471,0.986097,99,99,0,0,0,0,1
1,19999,20,10000,28,0,0,9999,0.100000,99,0,0.052657,7,0.000000,28.149057,0.283330,99,99,0,0,0,0,1
1,19999,21,10000,34,0,0,9999,0.100000,99,0,0.115848,4,2.000000,26.344276,4.591047,99,99,0,0,0,0,1
1,19999,22,10000,11,0,40,9999,0.100000,99,0,0.000000,4,0.000000,23.218759,1.023508,99,99,0,0,0,0,0
1,19999,23,10000,33,0,40,9999,0.100000,99,0,0.000000,6,0.000000,13.774331,2.416900,99,99,0,0,0,0,0
1,19999,24,10000,28,0,0,9999,0.100000,99,0,0.002212,7,0.000000,21.767188,0.157817,99,99,0,0,0,1,0
1,19999,25,10000,33,0,40,9999,0.100000,99,0,0.000000,5,0.000000,17.651097,3.484090,99,99,0,0,0,0,0
1,19999,26,10000,3,0,40,9999,0.100000,99,0,0.000000,4,0.000000,33.175057,0.213506,99,99,0,0,0,0,0
1,19999,27,10000,61,0,40,9999,0.100000,99,0,0.000000,5,0.000000,28.350644,0.127359,99,99,0,0,0,0,0
1,19999,28,10000,28,0,40,9999,0.100000,99,0,0.000000,5,0.000000,28.304938,0.176828,99,99,0,0,0,0,0
1,19999,29,10000,28,0,40,9999,0.100000,99,0,0.000000,6,0.000000,14.498168,1.495123,99,99,0,0,0,0,0
1,19999,30,10000,61,0,0,9999,0.100000,99,0,0.142264,5,0.000000,26.906639,0.722590,99,99,0,0,0,0,1
1,19999,31,10000,34,0,0,9999,0.100000,99,0,0.156158,4,0.000000,27.241161,0.975182,99,99,0,0,0,0,1
1,19999,32,10000,17,0,0,9999,0.100000,99,0,0.028378,7,1.000000,28.864665,3.452152,99,99,0,1,0,0,0
1,19999,33,10000,34,0,40,9999,0.100000,99,0,0.000000,5,2.000000,25.385817,8.669341,99,99,0,0,0,0,0
1,19999,34,10000,34,0,40,9999,0.100000,99,0,0.000000,4,1.000000,28.267807,7.611032,99,99,0,0,0,0,0
1,19999,35,10000,0,0,0,9999,0.100000,99,0,0.125570,4,0.000000,17.473152,0.758042,99,99,0,0,0,0,1
1,19999,36,10000,33,0,40,9999,0.100000,99,0,0.000000,5,2.000000,24.262563,6.386488,99,99,0,0,0,0,0
1,19999,37,10000,1,0,40,9999,0.100000,99,0,0.000000,7,0.000000,30.297488,0.462537,99,99,0,0,0,0,0
1,19999,38,10000,61,0,0,9999,0.100000,99,0,0.638174,5,0.000000,16.958433,0.435228,99,99,0,0,0,0,1
1,19999,39,10000,1,0,0,9999,0.100000,99,0,0.060624,5,0.000000,33.150018,0.076063,99,99,0,0,0,0,1
1,19999,40,10000,61,0,40,9999,0.100000,99,0,0.000000,6,0.000000,30.518359,1.311564,99,99,0,0,0,0,0
1,19999,41,10000,34,0,40,9999,0.100000,99,0,0.000000,4,2.000000,27.886787,20.433663,99,99,0,0,0,0,0
1,19999,42,10000,61,0,0,9999,0.100000,99,0,0.004495,5,1.000000,19.014684,1.674867,99,99,0,0,0,0,1
1,19999,43,10000,33,0,40,9999,0.100000,99,0,0.000000,7,0.000000,23.738699,0.471623,99,99,0,0,0,0,0
1,19999,44,10000,11,0,0,9999,0.100000,99,0,0.795492,4,0.000000,23.850872,0.616082,99,99,0,0,0,1,0
1,19999,45,10000,17,0,0,9999,0.100000,99,0,6.667147,4,0.000000,15.734570,5.253486,99,99,0,0,1,0,0
1,19999,46,10000,17,0,40,9999,0.100000,99,0,0.000000,6,1.000000,29.730885,7.588799,99,99,0,0,0,0,0
1,19999,47,10000,1,0,40,9999,0.100000,99,0,0.000000,5,2.000000,29.783166,6.586142,99,99,0,0,0,0,0
1,19999,48,10000,1,0,0,9999,0.100000,99,0,0.004825,4,0.000000,21.993254,0.065002,99,99,0,0,0,0,1
1,19999,49,10000,61,0,40,9999,0.100000,99,0,0.000000,6,0.000000,26.937326,1.403125,99,99,0,0,0,0,0
1,19999,50,10000,28,0,40,9999,0.100000,99,0,0.000000,7,0.000000,16.758896,0.234761,99,99,0,0,0,0,0
1,19999,51,10000,16,0,40,9999,0.100000,99,0,0.000000,7,0.000000,30.383774,1.215447,99,99,0,0,0,0,0
1,19999,52,10000,1,0,40,9999,0.100000,99,0,0.000000,4,0.000000,22.001426,0.283499,99,99,0,0,0,0,0
1,19999,53,10000,33,0,40,9999,0.100000,99,0,0.000000,6,0.000000,27.624192,15.160176,99,99,0,0,0,0,0
1,19999,54,10000,17,0,40,9999,0.100000,99,0,0.000000,7,0.000000,14.587516,0.554560,99,99,0,0,0,0,0
1,19999,55,10000,11,0,40,9999,0.100000,99,0,0.000000,4,0.000000,22.650859,0.221986,99,99,0,0,0,0,0
1,19999,56,10000,17,0,40,9999,0.100000,99,0,0.000000,6,0.000000,23.722013,0.338852,99,99,0,0,0,0,0
1,19999,57,10000,61,0,40,9999,0.100000,99,0,0.000000,4,2.000000,30.779182,8.921614,99,99,0,0,0,0,0
1,19999,58,10000,61,0,40,9999,0.100000,99,0,0.000000,7,2.000000,32.084113,16.227367,99,99,0,0,0,0,0
1,19999,59,10000,53,0,40,9999,0.100000,99,0,0.000000,7,1.000000,15.284177,1.994179,99,99,0,0,0,0,0
1,19999,60,10000,17,0,40,9999,0.100000,99,0,0.000000,4,0.000000,26.923555,1.876260,99,99,0,0,0,0,0
1,19999,61,10000,17,0,40,9999,0.100000,99,0,0.000000,4,0.000000,20.601936,0.530454,99,99,0,0,0,0,0
1,19999,62,10000,17,0,40,9999,0.100000,99,0,0.000000,4,0.000000,15.639367,1.252415,99,99,0,0,0,0,0
1,19999,63,10000,33,0,40,9999,0.100000,99,0,0.000000,5,0.000000,22.251191,0.298683,99,99,0,0,0,0,0
1,19999,64,10000,34,0,40,9999,0.100000,99,0,0.000000,4,0.000000,18.196262,0.119398,99,99,0,0,0,0,0
1,19999,65,10000,61,0,0,9999,0.100000,99,0,4.055877,4,0.000000,27.055281,1.813158,99,99,0,1,0,0,0
1,19999,66,10000,17,0,40,9999,0.100000,99,0,0.000000,7,0.000000,20.481771,0.096894,99,99,0,0,0,0,0
1,19999,67,10000,17,0,40,9999,0.100000,99,0,0.000000,4,0.000000,22.023517,0.082332,99,99,0,0,0,0,0
1,19999,68,10000,1,0,40,9999,0.100000,99,0,0.000000,6,0.000000,28.700454,1.229033,99,99,0,0,0,0,0
1,19999,69,10000,61,0,40,9999,0.100000,99,0,0.000000,5,0.000000,27.968483,0.152134,99,99,0,0,0,0,0
1,19999,70,10000,1,0,40,9999,0.100000,99,0,0.000000,4,0.000000,23.598941,3.734317,99,99,0,0,0,0,0
1,19999,71,10000,1,0,40,9999,0.100000,99,0,0.000000,5,0.000000,21.916037,0.087029,99,99,0,0,0,0,0
1,19999,72,10000,33,0,40,9999,0.100000,99,0,0.000000,7,0.000000,28.823488,0.402074,99,99,0,0,0,0,0
1,19999,73,10000,1,0,0,9999,0.100000,99,0,0.054024,7,0.000000,18.976962,0.117657,99,99,0,0,0,0,1
1,19999,74,10000,1,0,40,9999,0.100000,99,0,0.000000,4,0.000000,26.582190,0.906053,99,99,0,0,0,0,0
1,19999,75,10000,53,0,40,9999,0.100000,99,0,0.000000,6,1.000000,24.741578,7.110012,99,99,0,0,0,0,0
1,19999,76,10000,59,0,40,9999,0.100000,99,0,0.000000,7,0.000000,30.676096,0.233379,99,99,0,0,0,0,0
1,19999,77,10000,16,0,42,9999,0.100000,99,0,0.000000,7,3.000000,13.771355,16.187052,99,99,0,0,0,0,0
1,19999,78,10000,61,0,40,9999,0.100000,99,0,0.000000,4,0.000000,27.450659,0.663437,99,99,0,0,0,0,0
1,19999,79,10000,3,0,40,9999,0.100000,99,0,0.000000,4,0.000000,32.985954,0.115297,99,99,0,0,0,0,0
1,19999,80,10000,28,0,40,9999,0.100000,99,0,0.000000,5,0.000000,19.043690,8.768244,99,99,0,0,0,0,0
1,19999,81,10000,61,0,0,9999,0.100000,99,0,0.013487,6,0.000000,22.973446,0.386453,99,99,0,0,0,0,1
1,19999,82,10000,17,0,40,9999,0.100000,99,0,0.000000,4,0.000000,15.482608,1.638053,99,99,0,0,0,0,0
1,19999,83,10000,53,0,40,9999,0.100000,99,0,0.000000,6,0.000000,14.193654,21.596540,99,99,0,0,0,0,0
1,19999,84,10000,84,0,0,9999,0.100000,99,0,0.012965,7,0.000000,20.328258,0.150513,99,99,0,0,1,0,0
1,19999,85,10000,17,0,0,9999,0.100000,99,0,3.539875,7,1.000000,28.622595,2.624916,99,99,0,0,0,0,1
1,19999,86,10000,1,0,0,9999,0.100000,99,0,0.001676,4,0.000000,31.824367,0.110120,99,99,0,0,0,1,0
1,19999,87,10000,28,0,40,9999,0.100000,99,0,0.000000,7,2.000000,27.692396,8.833733,99,99,0,0,0,0,0
1,19999,88,10000,28,0,41,9999,0.100000,99,0,0.000000,7,3.000000,25.649178,6.671426,99,99,0,0,0,0,0
1,19999,89,10000,28,0,0,9999,0.100000,99,0,0.639532,5,0.000000,15.215220,0.617067,99,99,0,0,0,0,1
1,19999,90,10000,17,0,40,9999,0.100000,99,0,0.000000,4,1.000000,16.514787,9.579730,99,99,0,0,0,0,0
1,19999,91,10000,61,0,40,9999,0.100000,99,0,0.000000,7,0.000000,30.207186,0.086911,99,99,0,0,0,0,0
1,19999,92,10000,17,0,0,9999,0.100000,99,0,0.002367,6,0.000000,26.770762,1.459947,99,99,0,0,0,0,1
1,19999,93,10000,53,0,40,9999,0.100000,99,0,0.000000,7,0.000000,26.640883,0.099090,99,99,0,0,0,0,0
1,19999,94,10000,11,0,40,9999,0.100000,99,0,0.000000,4,0.000000,25.985782,20.890930,99,99,0,0,0,0,0
1,19999,95,10000,1,0,40,9999,0.100000,99,0,0.000000,5,0.000000,27.803445,0.729092,99,99,0,0,0,0,0
1,19999,96,10000,17,0,40,9999,0.100000,99,0,0.000000,7,1.000000,23.044095,12.817384,99,99,0,0,0,0,0
1,19999,97,10000,34,0,40,9999,0.100000,99,0,0.000000,5,2.000000,28.530386,4.562999,99,99,0,0,0,0,0
1,19999,98,10000,17,0,41,9999,0.100000,99,0,0.000000,4,3.000000,21.056486,9.563418,99,99,0,0,0,0,0
1,19999,99,10000,3,0,40,9999,0.100000,99,0,0.000000,4,0.000000,22.091722,0.589232,99,99,0,0,0,0,0
2,29999,0,20000,53,0,0,9999,0.100000,99,0,0.159204,7,0.000000,31.106961,0.081863,99,99,0,0,0,0,1
2,29999,1,20000,33,0,40,9999,0.100000,99,0,0.000000,7,0.000000,26.150530,2.710144,99,99,0,0,0,0,0
2,29999,2,20000,1,0,40,9999,0.100000,99,0,0.000000,7,0.000000,28.908587,10.291940,99,99,0,0,0,0,0
2,29999,3,20000,53,0,0,9999,0.100000,99,0,0.438358,7,0.000000,24.541636,0.439325,99,99,0,0,0,0,1
2,29999,4,20000,1,0,0,9999,0.100000,99,0,0.082787,7,0.000000,20.667980,0.204440,99,99,0,0,1,0,0
2,29999,5,20000,1,0,40,9999,0.100000,99,0,0.000000,7,0.000000,25.932392,0.308207,99,99,0,0,0,0,0
2,29999,6,20000,53,0,0,9999,0.100000,99,0,0.088014,7,0.000000,26.018644,2.479946,99,99,0,0,0,0,1
2,29999,7,20000,84,0,1,9999,0.100000,99,0,0.112920,7,3.000000,14.631377,3.685836,99,99,0,1,0,0,0
2,29999,8,20000,59,0,40,9999,0.100000,99,0,0.000000,7,1.000000,30.726985,2.447327,99,99,0,0,0,0,0
2,29999,9,20000,1,0,0,9999,0.100000,99,0,0.045029,7,0.000000,28.570861,0.212122,99,99,0,0,0,0,1
2,29999,10,20000,33,0,0,9999,0.100000,99,0,0.004703,7,0.000000,20.996677,0.101352,99,99,0,0,1,0,0
2,29999,11,20000,53,0,40,9999,0.100000,99,0,0.000000,7,0.000000,30.624606,1.446690,99,99,0,0,0,0,0
2,29999,12,20000,28,0,40,9999,0.100000,99,0,0.000000,7,0.000000,25.357099,0.514813,99,99,0,0,0,0,0
2,29999,13,20000,17,0,0,9999,0.100000,99,0,0.181812,7,0.000000,26.111215,0.174306,99,99,0,0,0,1,0
2,29999,14,20000,65,10000,0,9999,0.100000,99,0,0.024633,7,0.000000,33.416929,0.117563,99,99,0,0,0,0,1
2,29999,15,20000,33,0,40,9999,0.100000,99,0,0.000000,7,0.000000,25.532879,0.449269,99,99,0,0,0,0,0
2,29999,16,20000,53,0,0,9999,0.100000,99,0,0.227926,7,0.000000,32.653876,0.188509,99,99,0,1,0,0,0
2,29999,17,20000,1,0,90,9999,0.100000,99,0,13.745213,7,2.000000,26.007411,17.490017,99,99,1,0,0,0,0
2,29999,18,20000,1,0,40,9999,0.100000,99,0,0.000000,7,0.000000,28.013341,3.022024,99,99,0,0,0,0,0
2,29999,19,20000,53,0,0,9999,0.100000,99,0,0.338636,7,0.000000,23.512145,0.615646,99,99,0,0,0,0,1
2,29999,20,20000,33,0,0,9999,0.100000,99,0,14.551483,7,2.000000,28.216027,3.045982,99,99,0,0,0,0,1
2,29999,21,20000,28,0,40,9999,0.100000,99,0,0.000000,7,0.000000,26.083278,2.358851,99,99,0,0,0,0,0
2,29999,22,20000,65,10000,40,9999,0.100000,99,0,0.000000,7,0.000000,22.425792,0.992110,99,99,0,0,0,0,0
2,29999,23,20000,28,0,1,9999,0.100000,99,0,0.276103,7,2.000000,13.456923,4.883057,99,99,0,0,0,0,1
2,29999,24,20000,17,0,0,9999,0.100000,99,0,0.001402,7,0.000000,21.766870,0.159350,99,99,0,0,0,1,0
2,29999,25,20000,84,0,40,9999,0.100000,99,0,0.000000,7,0.000000,17.340813,0.372933,99,99,0,0,0,0,0
2,29999,26,20000,1,0,40,9999,0.100000,99,0,0.000000,7,0.000000,33.174092,0.200923,99,99,0,0,0,0,0
2,29999,27,20000,84,0,40,9999,0.100000,99,0,0.000000,7,0.000000,28.318868,0.799342,99,99,0,0,0,0,0
2,29999,28,20000,84,0,40,9999,0.100000,99,0,0.000000,7,2.000000,28.355951,3.104444,99,99,0,0,0,0,0
2,29999,29,20000,84,0,40,9999,0.100000,99,0,0.000000,7,0.000000,14.511522,1.349540,99,99,0,0,0,0,0
2,29999,30,20000,65,10000,0,9999,0.100000,99,0,0.326115,7,0.000000,26.875343,1.039861,99,99,0,0,0,0,1
2,29999,31,20000,17,0,0,9999,0.100000,99,0,0.162575,7,0.000000,27.493314,0.641305,99,99,0,0,0,0,1
2,29999,32,20000,65,10000,0,9999,0.100000,99,0,1.731300,7,2.000000,27.867375,3.774649,99,99,0,1,0,0,0
2,29999,33,20000,84,0,41,9999,0.100000,99,0,0.000000,7,3.000000,26.560304,7.892570,99,99,0,0,0,0,0
2,29999,34,20000,1,0,40,9999,0.100000,99,0,0.000000,7,1.000000,28.249286,24.349577,99,99,0,0,0,0,0
2,29999,35,20000,65,10000,0,9999,0.100000,99,0,0.015339,7,0.000000,17.361009,5.084409,99,99,0,0,0,0,1
2,29999,36,20000,65,10000,0,9999,0.100000,99,0,0.001389,7,0.000000,21.343879,2.506145,99,99,0,0,0,0,1
2,29999,37,20000,17,0,40,9999,0.100000,99,0,0.000000,7,0.000000,30.375820,0.206234,99,99,0,0,0,0,0
2,29999,38,20000,1,0,0,9999,0.100000,99,0,0.410880,7,0.000000,17.068669,0.836136,99,99,0,0,0,0,1
2,29999,39,20000,1,0,0,9999,0.100000,99,0,0.459852,7,0.000000,33.143011,0.129354,99,99,0,0,0,0,1
2,29999,40,20000,84,0,40,9999,0.100000,99,0,0.000000,7,0.000000,30.475231,1.257967,99,99,0,0,0,0,0
2,29999,41,20000,28,0,40,9999,0.100000,99,0,0.000000,7,0.000000,29.024678,23.499511,99,99,0,0,0,0,0
2,29999,42,20000,53,0,0,9999,0.100000,99,0,0.192771,7,0.000000,18.045518,0.111734,99,99,0,0,0,0,1
2,29999,43,20000,59,0,40,9999,0.100000,99,0,0.000000,7,0.000000,23.609952,3.301262,99,99,0,0,0,0,0
2,29999,44,20000,28,0,0,9999,0.100000,99,0,0.217069,7,0.000000,23.846530,0.251927,99,99,0,0,0,1,0
2,29999,45,20000,28,0,40,9999,0.100000,99,0,0.000000,7,0.000000,16.468988,0.710778,99,99,0,0,0,0,0
2,29999,46,20000,53,0,41,9999,0.100000,99,0,0.000000,7,3.000000,28.204941,6.688318,99,99,0,0,0,0,0
2,29999,47,20000,17,0,40,9999,0.100000,99,0,0.000000,7,0.000000,27.417425,1.482415,99,99,0,0,0,0,0
2,29999,48,20000,65,10000,40,9999,0.100000,99,0,0.000000,7,0.000000,21.993160,0.064084,99,99,0,0,0,0,0
2,29999,49,20000,53,0,40,9999,0.100000,99,0,0.000000,7,0.000000,26.890750,3.038785,99,99,0,0,0,0,0
2,29999,50,20000,33,0,40,9999,0.100000,99,0,0.000000,7,0.000000,16.889760,0.297195,99,99,0,0,0,0,0
2,29999,51,20000,1,0,40,9999,0.100000,99,0,0.000000,7,0.000000,30.925183,0.102324,99,99,0,0,0,0,0
2,29999,52,20000,1,0,40,9999,0.100000,99,0,0.000000,7,0.000000,22.079750,0.293111,99,99,0,0,0,0,0
2,29999,53,20000,53,0,41,9999,0.100000,99,0,0.000000,7,3.000000,27.694846,21.188863,99,99,0,0,0,0,0
2,29999,54,20000,28,0,40,9999,0.100000,99,0,0.000000,7,0.000000,14.625396,0.935914,99,99,0,0,0,0,0
2,29999,55,20000,53,0,40,9999,0.100000,99,0,0.000000,7,0.000000,22.572169,0.230087,99,99,0,0,0,0,0
2,29999,56,20000,1,0,40,9999,0.100000,99,0,0.000000,7,0.000000,23.537337,0.769980,99,99,0,0,0,0,0
2,29999,57,20000,1,0,40,9999,0.100000,99,0,0.000000,7,0.000000,30.478331,2.005499,99,99,0,0,0,0,0
2,29999,58,20000,53,0,40,9999,0.100000,99,0,0.000000,7,0.000000,32.495640,0.226739,99,99,0,0,0,0,0
2,29999,59,20000,84,0,40,9999,0.100000,99,0,0.000000,7,0.000000,16.732950,0.411714,99,99,0,0,0,0,0
2,29999,60,20000,28,0,0,9999,0.100000,99,0,9.871972,7,2.000000,26.091521,10.218617,99,99,0,1,0,0,0
2,29999,61,20000,1,0,40,9999,0.100000,99,0,0.000000,7,0.000000,20.729055,0.402725,99,99,0,0,0,0,0
2,29999,62,20000,33,0,40,9999,0.100000,99,0,0.000000,7,0.000000,16.261559,0.478263,99,99,0,0,0,0,0
2,29999,63,20000,17,0,40,9999,0.100000,99,0,0.000000,7,0.000000,22.374484,0.294779,99,99,0,0,0,0,0
2,29999,64,20000,1,0,40,9999,0.100000,99,0,0.000000,7,0.000000,18.198364,0.457921,99,99,0,0,0,0,0
2,29999,65,20000,33,0,0,9999,0.100000,99,0,11.242749,7,2.000000,26.237052,13.507115,99,99,0,1,0,0,0
2,29999,66,20000,33,0,40,9999,0.100000,99,0,0.000000,7,0.000000,20.485163,0.098440,99,99,0,0,0,0,0
2,29999,67,20000,28,0,40,9999,0.100000,99,0,0.000000,7,0.000000,22.023605,0.081403,99,99,0,0,0,0,0
2,29999,68,20000,17,0,40,9999,0.100000,99,0,0.000000,7,0.000000,28.687261,0.138425,99,99,0,0,0,0,0
2,29999,69,20000,84,0,40,9999,0.100000,99,0,0.000000,7,2.000000,28.019130,3.106489,99,99,0,0,0,0,0
2,29999,70,20000,84,0,0,9999,0.100000,99,0,0.000051,7,2.000000,23.496046,6.402759,99,99,0,0,0,0,1
2,29999,71,20000,1,0,0,9999,0.100000,99,0,0.004935,7,0.000000,21.915653,0.086550,99,99,0,0,0,0,1
2,29999,72,20000,33,0,40,9999,0.100000,99,0,0.000000,7,0.000000,28.814096,0.715866,99,99,0,0,0,0,0
2,29999,73,20000,33,0,0,9999,0.100000,99,0,0.188796,7,0.000000,18.951759,0.418380,99,99,0,0,0,0,1
2,29999,74,20000,53,0,40,9999,0.100000,99,0,0.000000,7,0.000000,26.947268,2.563855,99,99,0,0,0,0,0
2,29999,75,20000,33,0,40,9999,0.100000,99,0,0.000000,7,0.000000,23.907179,0.346331,99,99,0,0,0,0,0
2,29999,76,20000,28,0,40,9999,0.100000,99,0,0.000000,7,0.000000,30.742467,0.123126,99,99,0,0,0,0,0
2,29999,77,20000,1,0,40,9999,0.100000,99,0,0.000000,7,1.000000,17.265695,1.613616,99,99,0,0,0,0,0
2,29999,78,20000,17,0,40,9999,0.100000,99,0,0.000000,7,0.000000,27.681301,0.258873,99,99,0,0,0,0,0
2,29999,79,20000,53,0,40,9999,0.100000,99,0,0.000000,7,0.000000,32.976292,0.197173,99,99,0,0,0,0,0
2,29999,80,20000,45,10000,40,9999,0.100000,99,0,0.000000,7,1.000000,19.687877,1.614038,99,99,0,0,0,0,0
2,29999,81,20000,17,0,0,9999,0.100000,99,0,0.000684,7,0.000000,22.979967,0.746320,99,99,0,0,0,0,1
2,29999,82,20000,1,0,40,9999,0.100000,99,0,0.000000,7,0.000000,15.233550,1.188293,99,99,0,0,0,0,0
2,29999,83,20000,33,0,40,9999,0.100000,99,0,0.000000,7,0.000000,14.249689,2.925120,99,99,0,0,0,0,0
2,29999,84,20000,45,10000,0,9999,0.100000,99,0,0.791770,7,0.000000,20.329296,0.629149,99,99,0,0,1,0,0
2,29999,85,20000,84,0,0,9999,0.100000,99,0,1.807747,7,0.000000,28.859778,0.695605,99,99,0,0,0,0,1
2,29999,86,20000,65,10000,0,9999,0.100000,99,0,0.001611,7,0.000000,31.825020,0.107439,99,99,0,0,0,1,0
2,29999,87,20000,53,0,40,9999,0.100000,99,0,0.000000,7,0.000000,28.892227,0.386640,99,99,0,0,0,0,0
2,29999,88,20000,45,10000,40,9999,0.100000,99,0,0.000000,7,0.000000,25.903980,0.960014,99,99,0,0,0,0,0
2,29999,89,20000,33,0,40,9999,0.100000,99,0,0.000000,7,0.000000,15.170188,1.086474,99,99,0,0,0,0,0
2,29999,90,20000,84,0,40,9999,0.100000,99,0,0.000000,7,0.000000,15.824288,3.694872,99,99,0,0,0,0,0
2,29999,91,20000,84,0,0,9999,0.100000,99,0,9.689338,7,2.000000,30.228457,2.129025,99,99,0,0,0,0,1
2,29999,92,20000,65,10000,0,9999,0.100000,99,0,0.002983,7,0.000000,26.146051,0.100960,99,99,0,0,0,0,1
2,29999,93,20000,28,0,0,9999,0.100000,99,0,0.074855,7,0.000000,26.665795,0.223928,99,99,0,0,0,0,1
2,29999,94,20000,1,0,42,9999,0.100000,99,0,0.000000,7,6.000000,26.198525,34.717568,99,99,0,0,0,0,0
2,29999,95,20000,84,0,40,9999,0.100000,99,0,0.000000,7,2.000000,27.861963,3.366007,99,99,0,0,0,0,0
2,29999,96,20000,33,0,40,9999,0.100000,99,0,0.000000,7,1.000000,23.656142,9.636698,99,99,0,0,0,0,0
2,29999,97,20000,84,0,40,9999,0.100000,99,0,0.000000,7,1.000000,30.254035,3.950393,99,99,0,0,0,0,0
2,29999,98,20000,33,0,40,9999,0.100000,99,0,0.000000,7,0.000000,23.778581,5.481686,99,99,0,0,0,0,0
2,29999,99,20000,17,0,40,9999,0.100000,99,0,0.000000,7,0.000000,22.056421,1.170989,99,99,0,0,0,0,0
3,39999,0,30000,28,0,0,9999,0.100000,99,0,0.139022,7,0.000000,31.105314,0.091395,99,99,0,0,0,0,1
3,39999,1,30000,1,0,40,9999,0.100000,99,0,0.000000,7,0.000000,25.435076,0.256944,99,99,0,0,0,0,0
3,39999,2,30000,53,0,40,9999,0.100000,99,0,0.000000,7,0.000000,28.365932,0.229081,99,99,0,0,0,0,0
3,39999,3,30000,84,0,0,9999,0.100000,99,0,0.391916,8,0.000000,24.634739,0.519407,99,99,0,0,0,0,1
3,39999,4,30000,84,0,0,9999,0.100000,99,0,0.070346,7,0.000000,20.680133,0.187248,99,99,0,0,1,0,0
3,39999,5,30000,28,0,0,9999,0.100000,99,0,0.063829,7,0.000000,25.760849,0.144332,99,99,0,0,0,0,1
3,39999,6,30000,53,0,40,9999,0.100000,99,0,0.000000,7,0.000000,25.648274,0.149910,99,99,0,0,0,0,0
3,39999,7,30000,94,20000,0,9999,0.100000,99,0,0.019646,8,0.000000,17.684609,0.232342,99,99,0,1,0,0,0
3,39999,8,30000,53,0,40,9999,0.100000,99,0,0.000000,7,1.000000,32.006736,3.693493,99,99,0,0,0,0,0
3,39999,9,30000,17,0,0,9999,0.100000,99,0,0.060461,7,0.000000,28.483728,0.261760,99,99,0,0,0,0,1
3,39999,10,30000,33,0,0,9999,0.100000,99,0,0.006128,8,0.000000,20.999690,0.119450,99,99,0,0,1,0,0
3,39999,11,30000,28,0,40,9999,0.100000,99,0,0.000000,8,0.000000,30.823361,2.025407,99,99,0,0,0,0,0
3,39999,12,30000,84,0,40,9999,0.100000,99,0,0.000000,7,0.000000,25.401664,0.482426,99,99,0,0,0,0,0
3,39999,13,30000,84,0,0,9999,0.100000,99,0,0.685049,8,0.000000,26.132449,0.242276,99,99,0,0,0,1,0
3,39999,14,30000,53,0,40,9999,0.100000,99,0,0.000000,7,0.000000,33.420543,0.122257,99,99,0,0,0,0,0
3,39999,15,30000,84,0,40,9999,0.100000,99,0,0.000000,7,0.000000,25.323196,0.280069,99,99,0,0,0,0,0
3,39999,16,30000,65,20000,0,9999,0.100000,99,0,0.005639,8,0.000000,32.713968,0.156496,99,99,0,1,0,0,0
3,39999,17,30000,20,20000,42,9999,0.100000,99,0,0.000000,8,6.000000,23.866793,6.800604,99,99,0,0,0,0,0
3,39999,18,30000,28,0,40,9999,0.100000,99,0,0.000000,7,0.000000,28.232076,1.858505,99,99,0,0,0,0,0
3,39999,19,30000,20,20000,0,9999,0.100000,99,0,0.704238,8,0.000000,23.399361,0.288883,99,99,0,0,0,0,1
3,39999,20,30000,33,0,0,9999,0.100000,99,0,2.336336,8,0.000000,30.792433,0.633896,99,99,0,0,0,0,1
3,39999,21,30000,84,0,40,9999,0.100000,99,0,0.000000,7,0.000000,26.289429,2.493255,99,99,0,0,0,0,0
3,39999,22,30000,28,0,40,9999,0.100000,99,0,0.000000,7,0.000000,21.681240,0.946724,99,99,0,0,0,0,0
3,39999,23,30000,1,0,0,9999,0.100000,99,0,0.359467,8,0.000000,14.795987,0.293122,99,99,0,0,0,0,1
3,39999,24,30000,60,20000,0,9999,0.100000,99,0,0.343841,7,0.000000,21.766453,0.185206,99,99,0,0,0,1,0
3,39999,25,30000,65,20000,40,9999,0.100000,99,0,0.000000,8,0.000000,17.311659,0.329424,99,99,0,0,0,0,0
3,39999,26,30000,94,20000,0,9999,0.100000,99,0,0.043645,8,0.000000,33.178041,0.206721,99,99,0,0,0,0,1
3,39999,27,30000,17,0,40,9999,0.100000,99,0,0.000000,7,0.000000,28.204184,0.739309,99,99,0,0,0,0,0
3,39999,28,30000,53,0,40,9999,0.100000,99,0,0.000000,8,0.000000,30.928469,1.477098,99,99,0,0,0,0,0
3,39999,29,30000,28,0,40,9999,0.100000,99,0,0.000000,8,0.000000,14.633535,0.663301,99,99,0,0,0,0,0
3,39999,30,30000,84,0,0,9999,0.100000,99,0,0.264757,7,0.000000,26.984979,4.382459,99,99,0,0,0,0,1
3,39999,31,30000,53,0,0,9999,0.100000,99,0,0.056193,7,0.000000,27.569574,0.489068,99,99,0,0,0,0,1
3,39999,32,30000,17,0,40,9999,0.100000,99,0,0.000000,8,0.000000,29.761729,1.674468,99,99,0,0,0,0,0
3,39999,33,30000,17,0,0,9999,0.100000,99,0,0.544152,7,0.000000,29.983222,1.790339,99,99,0,1,0,0,0
3,39999,34,30000,84,0,42,9999,0.100000,99,0,0.000000,8,6.000000,27.229796,18.357062,99,99,0,0,0,0,0
3,39999,35,30000,17,0,0,9999,0.100000,99,0,0.012125,7,0.000000,17.201360,0.087973,99,99,0,0,0,0,1
3,39999,36,30000,84,0,0,9999,0.100000,99,0,0.000968,7,0.000000,20.645435,0.207333,99,99,0,0,0,0,1
3,39999,37,30000,1,0,40,9999,0.100000,99,0,0.000000,7,0.000000,30.387704,0.238433,99,99,0,0,0,0,0
3,39999,38,30000,1,0,0,9999,0.100000,99,0,0.229227,8,0.000000,17.103591,0.217951,99,99,0,0,0,0,1
3,39999,39,30000,53,0,0,9999,0.100000,99,0,0.000357,7,0.000000,33.075142,0.067018,99,99,0,0,0,0,1
3,39999,40,30000,17,0,40,9999,0.100000,99,0,0.000000,7,0.000000,30.484998,1.442685,99,99,0,0,0,0,0
3,39999,41,30000,1,0,40,9999,0.100000,99,0,0.000000,7,0.000000,28.738192,23.160427,99,99,0,0,0,0,0
3,39999,42,30000,60,20000,0,9999,0.100000,99,0,0.106857,7,0.000000,18.068296,0.083479,99,99,0,0,0,0,1
3,39999,43,30000,53,0,40,9999,0.100000,99,0,0.000000,7,0.000000,23.584504,0.950638,99,99,0,0,0,0,0
3,39999,44,30000,84,0,0,9999,0.100000,99,0,0.247300,7,0.000000,23.845001,0.245997,99,99,0,0,0,1,0
3,39999,45,30000,28,0,40,9999,0.100000,99,0,0.000000,7,0.000000,16.608852,0.073054,99,99,0,0,0,0,0
3,39999,46,30000,17,0,40,9999,0.065000,99,0,0.000000,7,0.000000,31.101113,1.091128,99,99,0,0,0,0,0
3,39999,47,30000,84,0,40,9999,0.100000,99,0,0.000000,7,0.000000,27.486867,1.383361,99,99,0,0,0,0,0
3,39999,48,30000,17,0,0,9999,0.100000,99,0,0.702053,8,0.000000,21.993046,0.149979,99,99,0,0,0,0,1
3,39999,49,30000,1,0,40,9999,0.100000,99,0,0.000000,7,0.000000,27.143390,9.631810,99,99,0,0,0,0,0
3,39999,50,30000,17,0,40,9999,0.100000,99,0,0.000000,7,0.000000,16.972636,0.425603,99,99,0,0,0,0,0
3,39999,51,30000,84,0,40,9999,0.100000,99,0,0.000000,7,0.000000,30.927404,0.097828,99,99,0,0,0,0,0
3,39999,52,30000,45,10000,40,9999,0.100000,99,0,0.000000,7,0.000000,22.145353,0.281360,99,99,0,0,0,0,0
3,39999,53,30000,84,0,40,9999,0.100000,99,0,0.000000,7,0.000000,26.864140,4.033466,99,99,0,0,0,0,0
3,39999,54,30000,28,0,40,9999,0.100000,99,0,0.000000,8,0.000000,14.647686,0.546361,99,99,0,0,0,0,0
3,39999,55,30000,94,20000,40,9999,0.100000,99,0,0.000000,8,0.000000,22.484814,0.269626,99,99,0,0,0,0,0
3,39999,56,30000,17,0,40,9999,0.100000,99,0,0.000000,7,0.000000,23.483647,0.369387,99,99,0,0,0,0,0
3,39999,57,30000,20,20000,40,9999,0.100000,99,0,0.000000,8,0.000000,30.487435,2.083574,99,99,0,0,0,0,0
3,39999,58,30000,60,20000,40,9999,0.100000,99,0,0.000000,7,0.000000,32.368176,0.062004,99,99,0,0,0,0,0
3,39999,59,30000,1,0,40,9999,0.100000,99,0,0.000000,7,0.000000,16.807469,0.147994,99,99,0,0,0,0,0
3,39999,60,30000,53,0,40,9999,0.100000,99,0,0.000000,7,0.000000,26.956289,20.540670,99,99,0,0,0,0,0
3,39999,61,30000,53,0,40,9999,0.100000,99,0,0.000000,7,0.000000,20.815544,0.424775,99,99,0,0,0,0,0
3,39999,62,30000,33,0,40,9999,0.100000,99,0,0.000000,8,0.000000,16.398815,0.079211,99,99,0,0,0,0,0
3,39999,63,30000,60,20000,40,9999,0.100000,99,0,0.000000,7,0.000000,22.494725,0.295165,99,99,0,0,0,0,0
3,39999,64,30000,28,0,40,9999,0.100000,99,0,0.000000,8,0.000000,18.264251,0.366454,99,99,0,0,0,0,0
3,39999,65,30000,1,0,40,9999,0.100000,99,0,0.000000,8,1.000000,28.733881,1.869469,99,99,0,0,0,0,0
3,39999,66,30000,53,0,40,9999,0.100000,99,0,0.000000,8,0.000000,20.488388,0.099113,99,99,0,0,0,0,0
3,39999,67,30000,28,0,40,9999,0.100000,99,0,0.000000,8,0.000000,22.023865,0.128456,99,99,0,0,0,0,0
3,39999,68,30000,1,0,40,9999,0.100000,99,0,0.000000,8,0.000000,28.612235,0.118339,99,99,0,0,0,0,0
3,39999,69,30000,84,0,40,9999,0.100000,99,0,0.000000,7,0.000000,30.612056,0.519998,99,99,0,0,0,0,0
3,39999,70,30000,53,0,0,9999,0.100000,99,0,0.003891,7,0.000000,22.093733,0.101645,99,99,0,0,0,0,1
3,39999,71,30000,84,0,40,9999,0.100000,99,0,0.000000,7,0.000000,21.915268,0.144614,99,99,0,0,0,0,0
3,39999,72,30000,17,0,40,9999,0.100000,99,0,0.000000,8,0.000000,28.747952,0.731714,99,99,0,0,0,0,0
3,39999,73,30000,53,0,0,9999,0.100000,99,0,0.009336,7,0.000000,18.945732,0.138740,99,99,0,0,0,0,1
3,39999,74,30000,1,0,40,9999,0.100000,99,0,0.000000,7,0.000000,27.128521,0.284188,99,99,0,0,0,0,0
3,39999,75,30000,33,0,40,9999,0.100000,99,0,0.000000,7,0.000000,23.901221,0.369502,99,99,0,0,0,0,0
3,39999,76,30000,33,0,40,9999,0.100000,99,0,0.000000,8,0.000000,30.747957,0.141614,99,99,0,0,0,0,0
3,39999,77,30000,65,20000,40,9999,0.100000,99,0,0.000000,8,0.000000,18.091229,0.296067,99,99,0,0,0,0,0
3,39999,78,30000,33,0,40,9999,0.100000,99,0,0.000000,7,0.000000,27.729162,0.163340,99,99,0,0,0,0,0
3,39999,79,30000,1,0,40,9999,0.100000,99,0,0.000000,8,0.000000,32.891827,0.128575,99,99,0,0,0,0,0
3,39999,80,30000,53,0,40,9999,0.100000,99,0,0.000000,7,0.000000,20.077829,1.264051,99,99,0,0,0,0,0
3,39999,81,30000,94,20000,40,9999,0.100000,99,0,0.000000,8,0.000000,23.216767,0.437677,99,99,0,0,0,0,0
3,39999,82,30000,1,0,43,9999,0.100000,99,0,0.000000,8,6.000000,15.096628,14.966831,99,99,0,0,0,0,0
3,39999,83,30000,53,0,40,9999,0.100000,99,0,0.000000,7,0.000000,14.477304,0.203150,99,99,0,0,0,0,0
3,39999,84,30000,28,0,1,9999,0.100000,99,0,0.101195,7,4.000000,20.593994,9.728676,99,99,0,0,1,0,0
3,39999,85,30000,84,0,40,9999,0.100000,99,0,0.000000,7,0.000000,28.880890,0.650504,99,99,0,0,0,0,0
3,39999,86,30000,28,0,0,9999,0.100000,99,0,0.001886,7,0.000000,31.825695,0.107481,99,99,0,0,0,1,0
3,39999,87,30000,53,0,40,9999,0.100000,99,0,0.000000,8,0.000000,28.852484,0.382394,99,99,0,0,0,0,0
3,39999,88,30000,94,20000,40,9999,0.100000,99,0,0.000000,8,1.000000,26.148011,4.215755,99,99,0,0,0,0,0
3,39999,89,30000,1,0,40,9999,0.100000,99,0,0.000000,8,0.000000,15.073754,1.344126,99,99,0,0,0,0,0
3,39999,90,30000,28,0,40,9999,0.100000,99,0,0.000000,8,0.000000,15.198375,2.169641,99,99,0,0,0,0,0
3,39999,91,30000,28,0,40,9999,0.100000,99,0,0.000000,8,1.000000,31.832944,6.025572,99,99,0,0,0,0,0
3,39999,92,30000,53,0,0,9999,0.100000,99,0,0.004664,7,0.000000,26.146363,0.113336,99,99,0,0,0,0,1
3,39999,93,30000,1,0,0,9999,0.100000,99,0,0.153863,8,0.000000,26.692328,0.122863,99,99,0,0,0,0,1
3,39999,94,30000,17,0,42,9999,0.100000,99,0,0.000000,8,6.000000,26.222218,46.964934,99,99,0,0,0,0,0
3,39999,95,30000,60,20000,40,9999,0.100000,99,0,0.000000,7,0.000000,30.465163,1.180758,99,99,0,0,0,0,0
3,39999,96,30000,53,0,40,9999,0.100000,99,0,0.000000,8,0.000000,23.732075,1.219744,99,99,0,0,0,0,0
3,39999,97,30000,94,20000,40,9999,0.100000,99,0,0.000000,8,1.000000,30.750182,4.147128,99,99,0,0,0,0,0
3,39999,98,30000,28,0,41,9999,0.100000,99,0,0.000000,8,3.000000,23.534855,7.226502,99,99,0,0,0,0,0
3,39999,99,30000,17,0,40,9999,0.100000,99,0,0.000000,8,0.000000,22.068117,0.088808,99,99,0,0,0,0,0
4,49999,0,40000,1,0,0,9999,0.100000,99,0,0.132679,8,0.000000,31.094729,0.097990,99,99,0,0,0,0,1
4,49999,1,40000,20,20000,40,9999,0.100000,99,0,0.000000,8,0.000000,25.303287,0.253763,99,99,0,0,0,0,0
4,49999,2,40000,17,20000,40,9999,0.100000,99,0,0.000000,8,0.000000,28.300437,0.247733,99,99,0,0,0,0,0
4,49999,3,40000,1,0,0,9999,0.100000,99,0,0.016105,8,0.000000,24.707131,0.132148,99,99,0,0,0,0,1
4,49999,4,40000,17,20000,0,9999,0.100000,99,0,0.044191,8,0.000000,20.690017,0.160003,99,99,0,0,1,0,0
4,49999,5,40000,17,30000,0,9999,0.100000,99,0,0.021798,8,0.000000,25.658295,0.139302,99,99,0,0,0,0,1
4,49999,6,40000,84,0,40,9999,0.100000,99,0,0.000000,8,0.000000,25.531355,0.149534,99,99,0,0,0,0,0
4,49999,7,40000,20,20000,0,9999,0.100000,99,0,0.487369,8,0.000000,17.710118,0.765026,99,99,0,1,0,0,0
4,49999,8,40000,20,20000,40,9999,0.100000,99,0,0.000000,8,0.000000,31.320966,2.110826,99,99,0,0,0,0,0
4,49999,9,40000,20,20000,0,9999,0.100000,99,0,0.057726,8,0.000000,28.424143,0.311200,99,99,0,0,0,0,1
4,49999,10,40000,20,20000,0,9999,0.100000,99,0,0.004036,8,0.000000,21.002754,0.123807,99,99,0,0,1,0,0
4,49999,11,40000,82,30000,40,9999,0.100000,99,0,0.000000,8,0.000000,31.235605,2.768696,99,99,0,0,0,0,0
4,49999,12,40000,33,0,40,9999,0.100000,99,0,0.000000,8,1.000000,25.420676,4.836978,99,99,0,0,0,0,0
4,49999,13,40000,84,0,0,9999,0.100000,99,0,0.059045,8,0.000000,26.113525,0.110024,99,99,0,0,0,1,0
4,49999,14,40000,33,0,0,9999,0.100000,99,0,0.036808,8,0.000000,33.424883,0.116165,99,99,0,0,0,0,1
4,49999,15,40000,53,0,40,9999,0.100000,99,0,0.000000,8,0.000000,25.176340,0.265683,99,99,0,0,0,0,0
4,49999,16,40000,53,0,0,9999,0.100000,99,0,0.497373,8,0.000000,32.739168,0.480264,99,99,0,1,0,0,0
4,49999,17,40000,53,0,40,9999,0.100000,99,0,0.000000,8,0.000000,30.074779,0.135408,99,99,0,0,0,0,0
4,49999,18,40000,1,0,40,9999,0.100000,99,0,0.000000,8,0.000000,28.149542,2.073080,99,99,0,0,0,0,0
4,49999,19,40000,33,0,0,9999,0.100000,99,0,1.117777,8,0.000000,23.356611,0.186828,99,99,0,0,0,0,1
4,49999,20,40000,98,30000,0,9999,0.100000,99,0,1.536328,8,0.000000,31.075975,0.731707,99,99,0,0,0,0,1
4,49999,21,40000,1,0,40,9999,0.100000,99,0,0.000000,8,0.000000,26.355699,2.548091,99,99,0,0,0,0,0
4,49999,22,40000,17,20000,40,9999,0.100000,99,0,0.000000,8,0.000000,20.972717,0.913692,99,99,0,0,0,0,0
4,49999,23,40000,17,20000,0,9999,0.100000,99,0,0.168659,8,0.000000,14.755056,0.225943,99,99,0,0,0,0,1
4,49999,24,40000,17,30000,0,9999,0.100000,99,0,0.275326,8,0.000000,21.863708,0.133569,99,99,0,0,0,1,0
4,49999,25,40000,53,0,40,9999,0.100000,99,0,0.000000,8,0.000000,17.315604,0.319172,99,99,0,0,0,0,0
4,49999,26,40000,1,0,40,9999,0.100000,99,0,0.000000,8,0.000000,33.183022,0.180907,99,99,0,0,0,0,0
4,49999,27,40000,84,0,40,9999,0.065000,99,0,0.000000,8,0.000000,28.126562,0.759709,99,99,0,0,0,0,0
4,49999,28,40000,34,30000,40,9999,0.100000,99,0,0.000000,8,0.000000,31.260733,3.204843,99,99,0,0,0,0,0
4,49999,29,40000,17,30000,40,9999,0.100000,99,0,0.000000,8,0.000000,14.583644,0.555428,99,99,0,0,0,0,0
4,49999,30,40000,84,0,0,9999,0.100000,99,0,0.698919,8,0.000000,27.466214,0.289859,99,99,0,0,0,0,1
4,49999,31,40000,84,0,0,9999,0.100000,99,0,0.070706,8,0.000000,27.608513,0.542823,99,99,0,0,0,0,1
4,49999,32,40000,33,0,0,9999,0.100000,99,0,1.451050,8,0.000000,29.695010,2.587341,99,99,0,1,0,0,0
4,49999,33,40000,1,0,40,9999,0.100000,99,0,0.000000,8,0.000000,29.839581,2.979598,99,99,0,0,0,0,0
4,49999,34,40000,53,0,40,9999,0.100000,99,0,0.000000,8,0.000000,27.258478,0.336942,99,99,0,0,0,0,0
4,49999,35,40000,1,0,0,9999,0.100000,99,0,0.001058,8,0.000000,17.200559,0.085918,99,99,0,0,0,0,1
4,49999,36,40000,53,0,0,9999,0.100000,99,0,0.000558,8,0.000000,20.645037,0.208223,99,99,0,0,0,0,1
4,49999,37,40000,20,20000,40,9999,0.100000,99,0,0.000000,8,0.000000,30.393885,0.239672,99,99,0,0,0,0,0
4,49999,38,40000,34,30000,0,9999,0.100000,99,0,0.148812,8,0.000000,17.063170,0.130732,99,99,0,0,0,0,1
4,49999,39,40000,98,30000,0,9999,0.100000,99,0,0.000587,8,0.000000,33.075800,0.066778,99,99,0,0,0,0,1
4,49999,40,40000,53,0,40,9999,0.100000,99,0,0.000000,8,0.000000,30.494738,1.391345,99,99,0,0,0,0,0
4,49999,41,40000,20,20000,40,9999,0.100000,99,0,0.000000,8,1.000000,28.698479,15.822573,99,99,0,0,0,0,0
4,49999,42,40000,84,0,0,9999,0.100000,99,0,0.011074,8,0.000000,18.083020,0.087364,99,99,0,0,0,0,1
4,49999,43,40000,53,0,40,9999,0.100000,99,0,0.000000,8,0.000000,23.376962,0.843943,99,99,0,0,0,0,0
4,49999,44,40000,17,20000,0,9999,0.100000,99,0,0.274301,8,0.000000,23.849288,0.255057,99,99,0,0,0,1,0
4,49999,45,40000,34,30000,40,9999,0.100000,99,0,0.000000,8,0.000000,16.608560,0.073553,99,99,0,0,0,0,0
4,49999,46,40000,1,0,40,9999,0.100000,99,0,0.000000,8,0.000000,31.432996,1.602416,99,99,0,0,0,0,0
4,49999,47,40000,82,30000,40,9999,0.100000,99,0,0.000000,8,0.000000,27.521197,1.253272,99,99,0,0,0,0,0
4,49999,48,40000,1,0,1,9999,0.100000,99,0,0.063681,8,4.000000,21.914385,9.946451,99,99,0,0,0,0,1
4,49999,49,40000,20,20000,40,9999,0.100000,99,0,0.000000,8,0.000000,26.898401,1.681795,99,99,0,0,0,0,0
4,49999,50,40000,20,20000,40,9999,0.100000,99,0,0.000000,8,0.000000,16.915446,0.277211,99,99,0,0,0,0,0
4,49999,51,40000,34,30000,40,9999,0.100000,99,0,0.000000,8,0.000000,30.921511,0.101400,99,99,0,0,0,0,0
4,49999,52,40000,82,30000,40,9999,0.100000,99,0,0.000000,8,0.000000,22.194279,0.293184,99,99,0,0,0,0,0
4,49999,53,40000,17,20000,40,9999,0.100000,99,0,0.000000,8,0.000000,27.325430,0.135032,99,99,0,0,0,0,0
4,49999,54,40000,34,30000,40,9999,0.100000,99,0,0.000000,8,0.000000,14.581361,0.434044,99,99,0,0,0,0,0
4,49999,55,40000,53,0,40,9999,0.100000,99,0,0.000000,8,0.000000,22.411414,0.822094,99,99,0,0,0,0,0
4,49999,56,40000,94,30000,40,9999,0.100000,99,0,0.000000,8,0.000000,23.347636,0.343773,99,99,0,0,0,0,0
4,49999,57,40000,53,0,40,9999,0.100000,99,0,0.000000,8,0.000000,30.498658,2.045464,99,99,0,0,0,0,0
4,49999,58,40000,98,30000,40,9999,0.100000,99,0,0.000000,8,0.000000,32.368941,0.061988,99,99,0,0,0,0,0
4,49999,59,40000,53,0,40,9999,0.100000,99,0,0.000000,8,0.000000,16.806848,0.126376,99,99,0,0,0,0,0
4,49999,60,40000,20,20000,40,9999,0.100000,99,0,0.000000,8,0.000000,27.267214,22.062801,99,99,0,0,0,0,0
4,49999,61,40000,17,20000,40,9999,0.100000,99,0,0.000000,8,0.000000,20.795883,0.403064,99,99,0,0,0,0,0
4,49999,62,40000,28,0,40,9999,0.100000,99,0,0.000000,8,0.000000,16.398695,0.079997,99,99,0,0,0,0,0
4,49999,63,40000,84,0,40,9999,0.100000,99,0,0.000000,8,0.000000,22.587183,0.293743,99,99,0,0,0,0,0
4,49999,64,40000,17,20000,41,9999,0.100000,99,0,0.000000,8,3.000000,18.294681,11.226798,99,99,0,0,0,0,0
4,49999,65,40000,82,30000,40,9999,0.100000,99,0,0.000000,8,0.000000,27.613674,0.274393,99,99,0,0,0,0,0
4,49999,66,40000,1,0,40,9999,0.100000,99,0,0.000000,8,0.000000,20.491629,0.101519,99,99,0,0,0,0,0
4,49999,67,40000,82,30000,40,9999,0.100000,99,0,0.000000,8,0.000000,22.083641,0.113146,99,99,0,0,0,0,0
4,49999,68,40000,17,20000,40,9999,0.100000,99,0,0.000000,8,0.000000,28.560276,0.238916,99,99,0,0,0,0,0
4,49999,69,40000,34,30000,40,9999,0.100000,99,0,0.000000,8,0.000000,30.870570,0.453210,99,99,0,0,0,0,0
4,49999,70,40000,20,20000,0,9999,0.100000,99,0,0.003576,8,0.000000,22.093140,0.099986,99,99,0,0,0,0,1
4,49999,71,40000,17,20000,40,9999,0.100000,99,0,0.000000,8,0.000000,21.863820,0.085394,99,99,0,0,0,0,0
4,49999,72,40000,17,20000,40,9999,0.100000,99,0,0.000000,8,0.000000,28.700205,0.743565,99,99,0,0,0,0,0
4,49999,73,40000,84,0,0,9999,0.100000,99,0,0.013667,8,0.000000,18.911728,0.136709,99,99,0,0,0,0,1
4,49999,74,40000,17,20000,40,9999,0.100000,99,0,0.000000,8,0.000000,27.187748,0.130515,99,99,0,0,0,0,0
4,49999,75,40000,17,20000,40,9999,0.100000,99,0,0.000000,8,0.000000,23.899620,0.400442,99,99,0,0,0,0,0
4,49999,76,40000,98,30000,40,9999,0.100000,99,0,0.000000,8,0.000000,30.746440,0.149573,99,99,0,0,0,0,0
4,49999,77,40000,34,30000,40,9999,0.100000,99,0,0.000000,8,0.000000,18.121417,1.522352,99,99,0,0,0,0,0
4,49999,78,40000,20,20000,40,9999,0.100000,99,0,0.000000,8,0.000000,27.761932,0.159727,99,99,0,0,0,0,0
4,49999,79,40000,94,30000,40,9999,0.100000,99,0,0.000000,8,0.000000,32.892509,0.128411,99,99,0,0,0,0,0
4,49999,80,40000,53,0,40,9999,0.100000,99,0,0.000000,8,0.000000,20.951427,0.339107,99,99,0,0,0,0,0
4,49999,81,40000,82,30000,40,9999,0.100000,99,0,0.000000,8,0.000000,22.944647,0.539234,99,99,0,0,0,0,0
4,49999,82,40000,53,0,43,9999,0.100000,99,0,0.000000,8,6.000000,15.082142,14.487058,99,99,0,0,0,0,0
4,49999,83,40000,33,0,40,9999,0.100000,99,0,0.000000,8,0.000000,14.415578,0.154183,99,99,0,0,0,0,0
4,49999,84,40000,20,20000,0,9999,0.100000,99,0,0.163487,8,0.000000,21.313077,0.178804,99,99,0,0,1,0,0
4,49999,85,40000,98,30000,40,9999,0.100000,99,0,0.000000,8,0.000000,28.774045,0.322190,99,99,0,0,0,0,0
4,49999,86,40000,20,20000,0,9999,0.100000,99,0,0.002228,8,0.000000,31.826325,0.105568,99,99,0,0,0,1,0
4,49999,87,40000,17,20000,40,9999,0.100000,99,0,0.000000,8,0.000000,28.804386,0.392187,99,99,0,0,0,0,0
4,49999,88,40000,84,0,40,9999,0.100000,99,0,0.000000,8,0.000000,27.010794,0.630033,99,99,0,0,0,0,0
4,49999,89,40000,1,0,40,9999,0.100000,99,0,0.000000,8,0.000000,15.038071,0.987804,99,99,0,0,0,0,0
4,49999,90,40000,34,30000,40,9999,0.100000,99,0,0.000000,8,0.000000,15.188923,16.742935,99,99,0,0,0,0,0
4,49999,91,40000,1,0,40,9999,0.100000,99,0,0.000000,8,0.000000,30.562638,5.820248,99,99,0,0,0,0,0
4,49999,92,40000,82,30000,0,9999,0.100000,99,0,0.006187,8,0.000000,26.146699,0.120189,99,99,0,0,0,0,1
4,49999,93,40000,20,20000,0,9999,0.100000,99,0,0.166461,8,0.000000,26.758557,0.128473,99,99,0,0,0,0,1
4,49999,94,40000,17,20000,42,9999,0.100000,99,0,0.000000,8,6.000000,25.624991,12.824272,99,99,0,0,0,0,0
4,49999,95,40000,20,20000,40,9999,0.100000,99,0,0.000000,8,0.000000,30.724321,0.658443,99,99,0,0,0,0,0
4,49999,96,40000,84,0,40,9999,0.100000,99,0,0.000000,8,0.000000,23.470382,1.263428,99,99,0,0,0,0,0
4,49999,97,40000,84,0,0,9999,0.100000,99,0,1.176544,8,1.000000,30.513026,2.655740,99,99,0,1,0,0,0
4,49999,98,40000,84,0,41,9999,0.100000,99,0,0.000000,8,3.000000,23.350494,7.128480,99,99,0,0,0,0,0
4,49999,99,40000,82,30000,40,9999,0.100000,99,0,0.000000,8,0.000000,22.067372,0.088391,99,99,0,0,0,0,0
5,59999,0,50000,84,0,0,9999,0.100000,99,0,0.128550,8,0.000000,31.083730,0.094179,99,99,0,0,0,0,1
5,59999,1,50000,98,30000,40,9999,0.100000,99,0,0.000000,8,0.000000,25.183313,0.235038,99,99,0,0,0,0,0
5,59999,2,50000,1,0,40,9999,0.100000,99,0,0.000000,8,0.000000,28.207165,0.363347,99,99,0,0,0,0,0
5,59999,3,50000,1,0,0,9999,0.100000,99,0,0.065047,8,0.000000,24.722346,0.086392,99,99,0,0,0,0,1
5,59999,4,50000,84,0,0,9999,0.100000,99,0,0.220618,8,0.000000,20.695630,0.554869,99,99,0,0,1,0,0
5,59999,5,50000,53,0,40,9999,0.100000,99,0,0.000000,8,0.000000,25.561352,0.148835,99,99,0,0,0,0,0
5,59999,6,50000,82,30000,0,9999,0.100000,99,0,0.004092,8,0.000000,25.422147,0.145203,99,99,0,0,0,0,1
5,59999,7,50000,82,30000,0,9999,0.100000,99,0,0.304975,8,0.000000,18.009856,0.171753,99,99,0,1,0,0,0
5,59999,8,50000,84,0,0,9999,0.100000,99,0,0.000000,8,0.000000,31.559035,4.112230,99,99,0,0,0,0,1
5,59999,9,50000,84,0,0,9999,0.100000,99,0,0.376167,8,0.000000,28.337976,0.392293,99,99,0,0,0,0,1
5,59999,10,50000,53,0,0,9999,0.100000,99,0,0.000663,8,0.000000,21.005635,0.124091,99,99,0,0,1,0,0
5,59999,11,50000,84,0,0,9999,0.100000,99,0,0.000000,8,0.000000,31.269998,1.602591,99,99,0,0,0,0,1
5,59999,12,50000,1,0,40,9999,0.100000,99,0,0.000000,8,0.000000,25.421406,0.510485,99,99,0,0,0,0,0
5,59999,13,50000,84,0,0,9999,0.100000,99,0,0.031960,8,0.000000,26.107860,0.104401,99,99,0,0,0,1,0
5,59999,14,50000,53,0,40,9999,0.100000,99,0,0.000000,8,0.000000,33.429924,0.114497,99,99,0,0,0,0,0
5,59999,15,50000,20,20000,40,9999,0.100000,99,0,0.000000,8,0.000000,25.043550,0.257471,99,99,0,0,0,0,0
5,59999,16,50000,1,0,0,9999,0.100000,99,0,0.012958,8,0.000000,33.063688,0.145154,99,99,0,1,0,0,0
5,59999,17,50000,84,0,40,9999,0.100000,99,0,0.000000,8,0.000000,30.074551,0.138639,99,99,0,0,0,0,0
5,59999,18,50000,53,0,40,9999,0.100000,99,0,0.000000,8,0.000000,28.033894,2.452250,99,99,0,0,0,0,0
5,59999,19,50000,84,0,0,9999,0.100000,99,0,0.789606,8,0.000000,23.259771,0.249058,99,99,0,0,0,0,1
5,59999,20,50000,94,30000,0,9999,0.100000,99,0,1.571932,8,0.000000,31.195613,0.704089,99,99,0,0,0,0,2
5,59999,21,50000,82,30000,40,9999,0.100000,99,0,0.000000,8,0.000000,26.426632,2.328750,99,99,0,0,0,0,0
5,59999,22,50000,17,20000,40,9999,0.100000,99,0,0.000000,8,1.000000,20.305133,3.765188,99,99,0,0,0,0,0
5,59999,23,50000,53,0,40,9999,0.100000,99,0,0.000000,8,0.000000,14.714218,0.351582,99,99,0,0,0,0,0
5,59999,24,50000,84,0,0,9999,0.100000,99,0,0.250254,8,0.000000,21.918360,0.129387,99,99,0,0,0,1,0
5,59999,25,50000,1,0,40,9999,0.135000,99,0,0.000000,8,0.000000,17.322831,0.318093,99,99,0,0,0,0,0
5,59999,26,50000,1,0,0,9999,0.100000,99,0,0.028777,8,0.000000,33.188247,0.149423,99,99,0,0,0,0,1
5,59999,27,50000,82,30000,40,9999,0.100000,99,0,0.000000,8,0.000000,28.018416,0.790168,99,99,0,0,0,0,0
5,59999,28,50000,84,0,0,9999,0.100000,99,0,0.000000,8,0.000000,31.406300,1.522475,99,99,0,0,0,0,1
5,59999,29,50000,82,30000,0,9999,0.100000,99,0,0.390725,8,0.000000,14.547050,1.068598,99,99,0,0,0,0,1
5,59999,30,50000,17,20000,0,9999,0.100000,99,0,0.498420,8,0.000000,27.363943,0.218853,99,99,0,0,0,0,1
5,59999,31,50000,20,20000,0,9999,0.100000,99,0,0.174119,8,0.000000,27.646310,0.273972,99,99,0,0,0,0,1
5,59999,32,50000,82,30000,0,9999,0.100000,99,0,4.702707,8,1.000000,29.778250,2.660435,99,99,0,1,0,0,0
5,59999,33,50000,82,30000,40,9999,0.100000,99,0,0.000000,8,1.000000,29.950609,3.833161,99,99,0,0,0,0,0
5,59999,34,50000,84,0,40,9999,0.100000,99,0,0.000000,8,0.000000,27.123982,0.258145,99,99,0,0,0,0,0
5,59999,35,50000,82,30000,0,9999,0.100000,99,0,0.197436,8,0.000000,17.201002,0.113340,99,99,0,0,0,0,1
5,59999,36,50000,20,20000,0,9999,0.100000,99,0,0.000729,8,0.000000,20.644774,0.209121,99,99,0,0,0,0,1
5,59999,37,50000,1,0,40,9999,0.100000,99,0,0.000000,8,0.000000,30.400347,0.239359,99,99,0,0,0,0,0
5,59999,38,50000,53,0,0,9999,0.100000,99,0,0.416423,8,0.000000,17.085841,0.190770,99,99,0,0,0,0,1
5,59999,39,50000,82,30000,0,9999,0.100000,99,0,0.000042,8,0.000000,33.076403,0.067828,99,99,0,0,0,0,1
5,59999,40,50000,20,20000,40,9999,0.100000,99,0,0.000000,8,0.000000,30.501252,1.473735,99,99,0,0,0,0,0
5,59999,41,50000,20,20000,40,9999,0.100000,99,0,0.000000,8,0.000000,28.741565,6.750467,99,99,0,0,0,0,0
5,59999,42,50000,98,30000,0,9999,0.100000,99,0,0.614772,8,0.000000,18.081887,0.862745,99,99,0,0,0,0,1
5,59999,43,50000,53,0,40,9999,0.100000,99,0,0.000000,8,0.000000,22.992381,1.509806,99,99,0,0,0,0,0
5,59999,44,50000,84,0,0,9999,0.100000,99,0,0.342814,8,0.000000,23.854889,0.275495,99,99,0,0,0,1,0
5,59999,45,50000,20,20000,40,9999,0.100000,99,0,0.000000,8,0.000000,16.607987,0.100774,99,99,0,0,0,0,0
5,59999,46,50000,98,30000,0,9999,0.100000,99,0,0.000000,8,0.000000,31.562353,2.102577,99,99,0,0,0,0,1
5,59999,47,50000,53,0,40,9999,0.100000,99,0,0.000000,8,0.000000,27.534645,1.977983,99,99,0,0,0,0,0
5,59999,48,50000,20,20000,0,9999,0.100000,99,0,0.003172,8,0.000000,21.916308,0.095128,99,99,0,0,0,0,1
5,59999,49,50000,84,0,40,9999,0.100000,99,0,0.000000,8,0.000000,26.731724,1.272497,99,99,0,0,0,0,0
5,59999,50,50000,17,20000,40,9999,0.100000,99,0,0.000000,8,0.000000,16.937169,0.353565,99,99,0,0,0,0,0
5,59999,51,50000,82,30000,40,9999,0.100000,99,0,0.000000,8,0.000000,30.915339,0.129087,99,99,0,0,0,0,0
5,59999,52,50000,94,30000,40,9999,0.100000,99,0,0.000000,8,0.000000,22.273452,0.293499,99,99,0,0,0,0,0
5,59999,53,50000,53,0,40,9999,0.100000,99,0,0.000000,8,0.000000,27.367668,0.139279,99,99,0,0,0,0,0
5,59999,54,50000,84,0,40,9999,0.100000,99,0,0.000000,8,0.000000,14.545777,1.106097,99,99,0,0,0,0,0
5,59999,55,50000,1,0,0,9999,0.100000,99,0,0.000286,8,0.000000,22.329413,0.840680,99,99,0,0,0,0,1
5,59999,56,50000,94,30000,40,9999,0.100000,99,0,0.000000,8,0.000000,23.114625,0.359458,99,99,0,0,0,0,0
5,59999,57,50000,98,30000,40,9999,0.100000,99,0,0.000000,8,0.000000,30.503527,2.050469,99,99,0,0,0,0,0
5,59999,58,50000,53,0,40,9999,0.100000,99,0,0.000000,8,0.000000,32.369405,0.065765,99,99,0,0,0,0,0
5,59999,59,50000,82,30000,40,9999,0.100000,99,0,0.000000,8,0.000000,16.806575,0.133101,99,99,0,0,0,0,0
5,59999,60,50000,53,0,40,9999,0.100000,99,0,0.000000,8,0.000000,27.150978,22.241805,99,99,0,0,0,0,0
5,59999,61,50000,1,0,40,9999,0.100000,99,0,0.000000,8,0.000000,20.761958,0.441879,99,99,0,0,0,0,0
5,59999,62,50000,53,0,40,9999,0.100000,99,0,0.000000,8,0.000000,16.397855,0.102936,99,99,0,0,0,0,0
5,59999,63,50000,82,30000,40,9999,0.100000,99,0,0.000000,8,0.000000,22.709177,0.317077,99,99,0,0,0,0,0
5,59999,64,50000,82,30000,40,9999,0.100000,99,0,0.000000,8,1.000000,19.234220,10.850931,99,99,0,0,0,0,0
5,59999,65,50000,84,0,40,9999,0.100000,99,0,0.000000,8,0.000000,27.532577,0.214510,99,99,0,0,0,0,0
5,59999,66,50000,98,30000,40,9999,0.100000,99,0,0.000000,8,0.000000,20.494596,0.106760,99,99,0,0,0,0,0
5,59999,67,50000,84,0,40,9999,0.100000,99,0,0.000000,8,0.000000,22.134728,0.112228,99,99,0,0,0,0,0
5,59999,68,50000,82,30000,40,9999,0.100000,99,0,0.000000,8,0.000000,28.482850,0.288269,99,99,0,0,0,0,0
5,59999,69,50000,84,0,0,9999,0.100000,99,0,0.000000,8,0.000000,30.997757,0.422185,99,99,0,0,0,0,1
5,59999,70,50000,20,20000,40,9999,0.100000,99,0,0.000000,8,0.000000,22.092640,0.100397,99,99,0,0,0,0,0
5,59999,71,50000,98,30000,40,9999,0.135000,99,0,0.000000,8,0.000000,21.859463,0.088639,99,99,0,0,0,0,0
5,59999,72,50000,20,20000,40,9999,0.100000,99,0,0.000000,8,0.000000,28.626925,0.668770,99,99,0,0,0,0,0
5,59999,73,50000,1,0,0,9999,0.100000,99,0,0.007470,8,0.000000,18.876086,0.133779,99,99,0,0,0,0,1
5,59999,74,50000,17,20000,40,9999,0.100000,99,0,0.000000,8,0.000000,27.232594,0.139385,99,99,0,0,0,0,0
5,59999,75,50000,82,30000,40,9999,0.100000,99,0,0.000000,8,0.000000,23.899313,0.490465,99,99,0,0,0,0,0
5,59999,76,50000,20,20000,40,9999,0.100000,99,0,0.000000,8,0.000000,30.744652,0.144305,99,99,0,0,0,0,0
5,59999,77,50000,17,20000,40,9999,0.100000,99,0,0.000000,8,0.000000,18.230833,0.646599,99,99,0,0,0,0,0
5,59999,78,50000,82,30000,40,9999,0.100000,99,0,0.000000,8,0.000000,27.796096,0.362618,99,99,0,0,0,0,0
5,59999,79,50000,53,0,40,9999,0.100000,99,0,0.000000,8,0.000000,32.893128,0.129056,99,99,0,0,0,0,0
5,59999,80,50000,94,30000,40,9999,0.100000,99,0,0.000000,8,0.000000,20.980366,0.357070,99,99,0,0,0,0,0
5,59999,81,50000,17,20000,40,9999,0.100000,99,0,0.000000,8,0.000000,22.724682,1.095879,99,99,0,0,0,0,0
5,59999,82,50000,82,30000,43,9999,0.100000,99,0,0.000000,8,6.000000,15.051181,14.538706,99,99,0,0,0,0,0
5,59999,83,50000,98,30000,40,9999,0.100000,99,0,0.000000,8,0.000000,14.382415,1.309867,99,99,0,0,0,0,0
5,59999,84,50000,20,20000,0,9999,0.100000,99,0,0.096651,8,0.000000,21.325411,0.146401,99,99,0,0,1,0,0
5,59999,85,50000,82,30000,40,9999,0.100000,99,0,0.000000,8,0.000000,28.757657,1.061419,99,99,0,0,0,0,0
5,59999,86,50000,17,20000,0,9999,0.100000,99,0,0.001247,8,0.000000,31.826900,0.105811,99,99,0,0,0,1,0
5,59999,87,50000,20,20000,40,9999,0.100000,99,0,0.000000,8,0.000000,28.742402,7.924529,99,99,0,0,0,0,0
5,59999,88,50000,82,30000,40,9999,0.100000,99,0,0.000000,8,0.000000,26.848779,0.499491,99,99,0,0,0,0,0
5,59999,89,50000,1,0,40,9999,0.100000,99,0,0.000000,8,0.000000,14.989205,4.337859,99,99,0,0,0,0,0
5,59999,90,50000,17,20000,40,9999,0.100000,99,0,0.000000,8,0.000000,15.121427,1.675680,99,99,0,0,0,0,0
5,59999,91,50000,1,0,0,9999,0.100000,99,0,0.000000,8,0.000000,31.233225,1.917542,99,99,0,0,0,0,1
5,59999,92,50000,84,0,0,9999,0.100000,99,0,0.049766,8,0.000000,26.148145,0.369016,99,99,0,0,0,0,1
5,59999,93,50000,20,20000,0,9999,0.100000,99,0,0.148593,8,0.000000,26.835633,0.123871,99,99,0,0,0,0,1
5,59999,94,50000,20,20000,40,9999,0.100000,99,0,0.000000,8,0.000000,25.620489,0.186139,99,99,0,0,0,0,0
5,59999,95,50000,53,0,0,9999,0.100000,99,0,0.000000,8,0.000000,30.832262,0.405978,99,99,0,0,0,0,1
5,59999,96,50000,84,0,40,9999,0.100000,99,0,0.000000,8,0.000000,23.026297,1.885274,99,99,0,0,0,0,0
5,59999,97,50000,1,0,0,9999,0.100000,99,0,1.959495,8,0.000000,29.243731,0.604655,99,99,0,1,0,0,0
5,59999,98,50000,1,0,40,9999,0.100000,99,0,0.000000,8,0.000000,23.047714,0.378503,99,99,0,0,0,0,0
5,59999,99,50000,53,0,0,9999,0.100000,99,0,0.003315,8,0.000000,22.066673,0.085112,99,99,0,0,0,0,1
6,69999,0,60000,84,0,0,9999,0.100000,99,0,0.150634,8,0.000000,31.075007,0.107874,99,99,0,0,0,0,1
6,69999,1,60000,1,0,40,9999,0.100000,99,0,0.000000,8,0.000000,25.072578,0.483125,99,99,0,0,0,0,0
6,69999,2,60000,84,0,40,9999,0.100000,99,0,0.000000,8,1.000000,28.059706,2.097978,99,99,0,0,0,0,0
6,69999,3,60000,82,30000,0,9999,0.100000,99,0,0.101726,8,0.000000,24.727269,0.436848,99,99,0,0,0,0,1
6,69999,4,60000,17,20000,0,9999,0.100000,99,0,0.032986,8,1.000000,20.726838,2.095196,99,99,0,0,1,0,0
6,69999,5,60000,94,30000,40,9999,0.100000,99,0,0.000000,8,0.000000,25.468494,0.614439,99,99,0,0,0,0,0
6,69999,6,60000,82,30000,0,9999,0.100000,99,0,0.163247,8,0.000000,25.318874,0.473860,99,99,0,0,0,0,1
6,69999,7,60000,84,0,0,9999,0.100000,99,0,0.018213,8,0.000000,17.954635,0.878136,99,99,0,1,0,0,0
6,69999,8,60000,53,0,41,9999,0.100000,99,0,0.000000,8,4.000000,31.637723,23.068111,99,99,0,0,0,0,0
6,69999,9,60000,17,20000,40,9999,0.100000,99,0,0.000000,8,1.000000,28.190054,1.920812,99,99,0,0,0,0,0
6,69999,10,60000,84,0,0,9999,0.100000,99,0,0.001788,8,0.000000,21.007193,0.119396,99,99,0,0,1,0,0
6,69999,11,60000,94,30000,40,9999,0.100000,99,0,0.000000,8,1.000000,31.398145,2.501407,99,99,0,0,0,0,0
6,69999,12,60000,17,20000,40,9999,0.100000,99,0,0.000000,8,0.000000,25.407202,0.573907,99,99,0,0,0,0,0
6,69999,13,60000,17,20000,40,9999,0.100000,99,0,0.000000,8,0.000000,26.106608,0.085806,99,99,0,0,0,0,0
6,69999,14,60000,20,20000,0,9999,0.100000,99,0,0.015803,8,0.000000,33.433692,0.115839,99,99,0,0,0,0,1
6,69999,15,60000,84,0,40,9999,0.100000,99,0,0.000000,8,0.000000,24.922379,0.495653,99,99,0,0,0,0,0
6,69999,16,60000,20,20000,0,9999,0.100000,99,0,0.026385,8,0.000000,33.085232,0.147768,99,99,0,1,0,0,0
6,69999,17,60000,1,0,40,9999,0.100000,99,0,0.000000,8,0.000000,30.074337,0.133731,99,99,0,0,0,0,0
6,69999,18,60000,98,30000,40,9999,0.100000,99,0,0.000000,8,1.000000,27.784559,19.739546,99,99,0,0,0,0,0
6,69999,19,60000,98,30000,0,9999,0.100000,99,0,0.103778,8,0.000000,23.164385,0.097015,99,99,0,0,0,0,1
6,69999,20,60000,20,20000,40,9999,0.100000,99,0,0.000000,8,0.000000,31.312898,5.817639,99,99,0,0,0,0,0
6,69999,21,60000,1,0,40,9999,0.100000,99,0,0.000000,8,0.000000,26.493389,2.581938,99,99,0,0,0,0,0
6,69999,22,60000,53,0,40,9999,0.100000,99,0,0.000000,8,0.000000,21.989265,3.920523,99,99,0,0,0,0,0
6,69999,23,60000,98,30000,0,9999,0.100000,99,0,0.042862,8,0.000000,14.800525,0.134683,99,99,0,0,0,0,1
6,69999,24,60000,1,0,0,9999,0.100000,99,0,0.300740,8,0.000000,21.964186,0.316206,99,99,0,0,0,1,0
6,69999,25,60000,1,0,40,9999,0.100000,99,0,0.000000,8,0.000000,17.331610,0.318278,99,99,0,0,0,0,0
6,69999,26,60000,82,30000,40,9999,0.100000,99,0,0.000000,8,0.000000,33.192120,0.103689,99,99,0,0,0,0,0
6,69999,27,60000,94,30000,0,9999,0.100000,99,0,4.988885,8,1.000000,27.863191,1.930307,99,99,0,0,0,0,1
6,69999,28,60000,53,0,40,9999,0.100000,99,0,0.000000,8,3.000000,31.533740,10.850218,99,99,0,0,0,0,0
6,69999,29,60000,82,30000,40,9999,0.100000,99,0,0.000000,8,0.000000,14.631810,2.081731,99,99,0,0,0,0,0
6,69999,30,60000,17,20000,0,9999,0.100000,99,0,0.646948,8,0.000000,27.290358,0.330451,99,99,0,0,0,0,1
6,69999,31,60000,1,0,0,9999,0.100000,99,0,0.194261,8,0.000000,27.736718,0.221286,99,99,0,0,0,0,1
6,69999,32,60000,17,20000,1,9999,0.100000,99,0,0.000223,8,5.000000,29.482315,9.543963,99,99,0,0,0,1,0
6,69999,33,60000,53,0,0,9999,0.100000,99,0,0.001695,8,1.000000,29.597425,2.744050,99,99,0,1,0,0,0
6,69999,34,60000,82,50000,40,9999,0.100000,99,0,0.000000,8,0.000000,27.032524,0.390509,99,99,0,0,0,0,0
6,69999,35,60000,20,20000,40,9999,0.100000,99,0,0.000000,8,0.000000,17.231565,0.737756,99,99,0,0,0,0,0
6,69999,36,60000,94,30000,0,9999,0.100000,99,0,0.000430,8,0.000000,20.644464,0.208551,99,99,0,0,0,0,1
6,69999,37,60000,1,0,40,9999,0.100000,99,0,0.000000,8,0.000000,30.408982,0.335411,99,99,0,0,0,0,0
6,69999,38,60000,17,20000,0,9999,0.100000,99,0,0.051122,8,0.000000,17.159613,0.117509,99,99,0,0,0,0,1
6,69999,39,60000,17,20000,0,9999,0.100000,99,0,0.035391,8,0.000000,33.076891,0.086495,99,99,0,0,0,0,1
6,69999,40,60000,82,50000,40,9999,0.100000,99,0,0.000000,8,0.000000,30.507964,1.427873,99,99,0,0,0,0,0
6,69999,41,60000,53,0,40,9999,0.100000,99,0,0.000000,8,1.000000,28.071782,2.198331,99,99,0,0,0,0,0
6,69999,42,60000,82,30000,0,9999,0.100000,99,0,0.461276,8,0.000000,18.191752,0.471942,99,99,0,0,0,0,1
6,69999,43,60000,82,50000,40,9999,0.100000,99,0,0.000000,8,0.000000,22.740025,0.444861,99,99,0,0,0,0,0
6,69999,44,60000,98,30000,0,9999,0.100000,99,0,0.444781,8,0.000000,23.854230,0.284812,99,99,0,0,0,1,0
6,69999,45,60000,84,0,0,9999,0.100000,99,0,0.021639,8,0.000000,16.639135,0.076036,99,99,0,0,0,0,1
6,69999,46,60000,94,30000,40,9999,0.100000,99,0,0.000000,8,2.000000,31.688547,16.265886,99,99,0,0,0,0,0
6,69999,47,60000,53,0,40,9999,0.100000,99,0,0.000000,8,0.000000,27.738545,1.849234,99,99,0,0,0,0,0
6,69999,48,60000,20,20000,0,9999,0.100000,99,0,0.109594,8,0.000000,21.933441,0.090936,99,99,0,0,0,0,1
6,69999,49,60000,53,0,40,9999,0.100000,99,0,0.000000,8,1.000000,26.611795,3.076737,99,99,0,0,0,0,0
6,69999,50,60000,82,30000,40,9999,0.100000,99,0,0.000000,8,0.000000,17.006566,0.272831,99,99,0,0,0,0,0
6,69999,51,60000,53,0,40,9999,0.100000,99,0,0.000000,8,0.000000,30.911059,0.126805,99,99,0,0,0,0,0
6,69999,52,60000,20,20000,40,9999,0.100000,99,0,0.000000,8,0.000000,22.379180,0.287629,99,99,0,0,0,0,0
6,69999,53,60000,20,20000,40,9999,0.100000,99,0,0.000000,8,0.000000,27.431963,0.113265,99,99,0,0,0,0,0
6,69999,54,60000,98,30000,40,9999,0.100000,99,0,0.000000,8,0.000000,14.595015,0.980797,99,99,0,0,0,0,0
6,69999,55,60000,94,30000,0,9999,0.100000,99,0,0.061238,8,0.000000,22.371020,0.382786,99,99,0,0,0,0,1
6,69999,56,60000,84,0,40,9999,0.100000,99,0,0.000000,8,0.000000,22.941781,0.100100,99,99,0,0,0,0,0
6,69999,57,60000,53,0,40,9999,0.100000,99,0,0.000000,8,0.000000,30.511835,2.551139,99,99,0,0,0,0,0
6,69999,58,60000,1,0,40,9999,0.100000,99,0,0.000000,8,0.000000,32.369856,0.120885,99,99,0,0,0,0,0
6,69999,59,60000,84,0,40,9999,0.100000,99,0,0.000000,8,0.000000,16.837429,0.145189,99,99,0,0,0,0,0
6,69999,60,60000,82,50000,40,9999,0.100000,99,0,0.000000,8,1.000000,27.023681,4.905668,99,99,0,0,0,0,0
6,69999,61,60000,17,20000,40,9999,0.100000,99,0,0.000000,8,0.000000,20.732618,0.441955,99,99,0,0,0,0,0
6,69999,62,60000,1,0,40,9999,0.100000,99,0,0.000000,8,0.000000,16.429310,0.085292,99,99,0,0,0,0,0
6,69999,63,60000,84,0,40,9999,0.100000,99,0,0.000000,8,0.000000,22.851435,0.674699,99,99,0,0,0,0,0
6,69999,64,60000,1,0,40,9999,0.100000,99,0,0.000000,8,1.000000,20.514007,4.481162,99,99,0,0,0,0,0
6,69999,65,60000,53,0,40,9999,0.100000,99,0,0.000000,8,0.000000,27.470261,0.302290,99,99,0,0,0,0,0
6,69999,66,60000,94,30000,40,9999,0.100000,99,0,0.000000,8,0.000000,20.495354,0.103760,99,99,0,0,0,0,0
6,69999,67,60000,53,0,40,9999,0.100000,99,0,0.000000,8,0.000000,22.183592,0.224186,99,99,0,0,0,0,0
6,69999,68,60000,1,0,40,9999,0.100000,99,0,0.000000,8,1.000000,28.335445,1.804511,99,99,0,0,0,0,0
6,69999,69,60000,84,0,40,9999,0.100000,99,0,0.000000,8,2.000000,31.108644,4.622115,99,99,0,0,0,0,0
6,69999,70,60000,1,0,0,9999,0.100000,99,0,0.005495,8,0.000000,22.092034,0.116684,99,99,0,0,0,0,1
6,69999,71,60000,82,50000,40,9999,0.100000,99,0,0.000000,8,0.000000,21.867277,0.085161,99,99,0,0,0,0,0
6,69999,72,60000,98,30000,40,9999,0.100000,99,0,0.000000,8,1.000000,28.482124,1.748298,99,99,0,0,0,0,0
6,69999,73,60000,53,0,0,9999,0.100000,99,0,0.006663,8,0.000000,18.840098,0.135620,99,99,0,0,0,0,1
6,69999,74,60000,84,0,40,9999,0.100000,99,0,0.000000,8,0.000000,27.285704,0.114220,99,99,0,0,0,0,0
6,69999,75,60000,98,30000,40,9999,0.100000,99,0,0.000000,8,0.000000,23.894502,0.500636,99,99,0,0,0,0,0
6,69999,76,60000,20,20000,40,9999,0.100000,99,0,0.000000,8,0.000000,30.745052,0.133018,99,99,0,0,0,0,0
6,69999,77,60000,17,20000,40,9999,0.100000,99,0,0.000000,8,1.000000,18.382865,6.080765,99,99,0,0,0,0,0
6,69999,78,60000,20,20000,40,9999,0.100000,99,0,0.000000,8,0.000000,27.898140,0.440930,99,99,0,0,0,0,0
6,69999,79,60000,53,0,40,9999,0.100000,99,0,0.000000,8,0.000000,32.893625,0.103532,99,99,0,0,0,0,0
6,69999,80,60000,82,30000,40,9999,0.100000,99,0,0.000000,8,0.000000,21.026741,0.366799,99,99,0,0,0,0,0
6,69999,81,60000,20,20000,40,9999,0.100000,99,0,0.000000,8,0.000000,22.583099,1.106752,99,99,0,0,0,0,0
6,69999,82,60000,20,20000,40,9999,0.100000,99,0,0.000000,8,0.000000,15.086000,0.694350,99,99,0,0,0,0,0
6,69999,83,60000,1,0,40,9999,0.100000,99,0,0.000000,8,0.000000,14.468295,0.110955,99,99,0,0,0,0,0
6,69999,84,60000,82,30000,0,9999,0.100000,99,0,0.343421,8,0.000000,21.329819,0.202949,99,99,0,0,1,0,0
6,69999,85,60000,94,30000,40,9999,0.100000,99,0,0.000000,8,0.000000,28.786857,0.915769,99,99,0,0,0,0,0
6,69999,86,60000,98,30000,0,9999,0.100000,99,0,0.001321,8,0.000000,31.827662,0.105589,99,99,0,0,0,1,0
6,69999,87,60000,53,0,40,9999,0.100000,99,0,0.000000,8,1.000000,28.289245,3.790401,99,99,0,0,0,0,0
6,69999,88,60000,53,0,40,9999,0.100000,99,0,0.000000,8,0.000000,26.737804,0.638448,99,99,0,0,0,0,0
6,69999,89,60000,20,20000,40,9999,0.100000,99,0,0.000000,8,0.000000,14.967256,1.814958,99,99,0,0,0,0,0
6,69999,90,60000,98,30000,40,9999,0.100000,99,0,0.000000,8,0.000000,15.131472,0.464406,99,99,0,0,0,0,0
6,69999,91,60000,94,30000,40,9999,0.100000,99,0,0.000000,8,1.000000,31.365354,5.760718,99,99,0,0,0,0,0
6,69999,92,60000,17,20000,0,9999,0.100000,99,0,0.015002,8,0.000000,26.153158,0.459502,99,99,0,0,0,0,1
6,69999,93,60000,82,50000,0,9999,0.100000,99,0,1.396678,8,0.000000,26.911516,0.854021,99,99,0,0,0,0,1
6,69999,94,60000,1,0,42,9999,0.100000,99,0,0.000000,8,6.000000,25.619222,12.775171,99,99,0,0,0,0,0
6,69999,95,60000,82,30000,40,9999,0.100000,99,0,0.000000,8,2.000000,30.927532,15.315123,99,99,0,0,0,0,0
6,69999,96,60000,94,30000,40,9999,0.100000,99,0,0.000000,8,0.000000,22.852383,0.736115,99,99,0,0,0,0,0
6,69999,97,60000,53,0,0,9999,0.100000,99,0,0.135331,8,0.000000,29.426012,0.168632,99,99,0,1,0,0,0
6,69999,98,60000,84,0,40,9999,0.100000,99,0,0.000000,8,0.000000,22.834076,0.081991,99,99,0,0,0,0,0
6,69999,99,60000,53,0,40,9999,0.100000,99,0,0.000000,8,0.000000,22.066066,0.083806,99,99,0,0,0,0,0
7,79999,0,70000,82,50000,0,9999,0.100000,99,0,0.308253,8,0.000000,31.054809,0.131663,99,99,0,0,0,0,1
7,79999,1,70000,98,30000,40,9999,0.100000,99,0,0.000000,8,0.000000,24.829646,0.332346,99,99,0,0,0,0,0
7,79999,2,70000,94,30000,40,9999,0.100000,99,0,0.000000,8,1.000000,27.211556,1.366945,99,99,0,0,0,0,0
7,79999,3,70000,53,0,0,9999,0.100000,99,0,0.118207,8,0.000000,24.772934,0.776700,99,99,0,0,0,0,1
7,79999,4,70000,82,50000,0,9999,0.100000,99,0,3.093208,8,0.000000,19.785509,0.846720,99,99,0,0,1,0,0
7,79999,5,70000,94,30000,40,9999,0.100000,99,0,0.000000,8,0.000000,25.244021,0.407839,99,99,0,0,0,0,0
7,79999,6,70000,17,20000,0,9999,0.100000,99,0,0.326840,8,0.000000,25.073054,0.270799,99,99,0,0,0,0,1
7,79999,7,70000,98,30000,0,9999,0.100000,99,0,0.153659,8,0.000000,18.304307,0.423963,99,99,0,1,0,0,0
7,79999,8,70000,98,30000,40,9999,0.100000,99,0,0.000000,8,3.000000,28.789857,17.834294,99,99,0,0,0,0,0
7,79999,9,70000,53,0,40,9999,0.100000,99,0,0.000000,8,1.000000,27.374570,1.222063,99,99,0,0,0,0,0
7,79999,10,70000,94,30000,0,9999,0.100000,99,0,0.001813,8,0.000000,21.008907,0.120649,99,99,0,0,1,0,0
7,79999,11,70000,94,30000,40,9999,0.100000,99,0,0.000000,8,0.000000,31.381625,0.263414,99,99,0,0,0,0,0
7,79999,12,70000,84,0,40,9999,0.100000,99,0,0.000000,8,0.000000,25.262226,0.498682,99,99,0,0,0,0,0
7,79999,13,70000,1,0,0,9999,0.100000,99,0,0.410730,8,0.000000,26.105343,0.147730,99,99,0,0,0,1,0
7,79999,14,70000,20,20000,0,9999,0.100000,99,0,0.011043,8,0.000000,33.435951,0.117662,99,99,0,0,0,0,1
7,79999,15,70000,17,20000,40,9999,0.100000,99,0,0.000000,8,0.000000,24.686093,0.364330,99,99,0,0,0,0,0
7,79999,16,70000,98,30000,0,9999,0.100000,99,0,1.579546,8,0.000000,33.109533,0.480515,99,99,0,1,0,0,0
7,79999,17,70000,17,20000,40,9999,0.100000,99,0,0.000000,8,0.000000,30.074163,0.135587,99,99,0,0,0,0,0
7,79999,18,70000,1,0,40,9999,0.100000,99,0,0.000000,8,1.000000,27.278537,8.092920,99,99,0,0,0,0,0
7,79999,19,70000,1,0,0,9999,0.100000,99,0,0.110977,8,0.000000,23.146412,0.101536,99,99,0,0,0,0,1
7,79999,20,70000,98,30000,1,9999,0.100000,99,0,0.240479,8,4.000000,31.107958,12.301324,99,99,0,0,0,0,1
7,79999,21,70000,17,20000,40,9999,0.100000,99,0,0.000000,8,0.000000,26.615080,2.715584,99,99,0,0,0,0,0
7,79999,22,70000,98,30000,40,9999,0.100000,99,0,0.000000,8,0.000000,21.877727,0.962446,99,99,0,0,0,0,0
7,79999,23,70000,98,30000,0,9999,0.100000,99,0,0.037621,8,0.000000,14.827486,0.126701,99,99,0,0,0,0,1
7,79999,24,70000,82,50000,40,9999,0.100000,99,0,0.000000,8,0.000000,21.887338,0.478516,99,99,0,0,0,0,0
7,79999,25,70000,17,20000,40,9999,0.100000,99,0,0.000000,8,0.000000,17.335650,0.303691,99,99,0,0,0,0,0
7,79999,26,70000,1,0,40,9999,0.100000,99,0,0.000000,8,0.000000,33.194286,0.089574,99,99,0,0,0,0,0
7,79999,27,70000,82,50000,0,9999,0.100000,99,0,5.253808,8,1.000000,26.920321,1.571999,99,99,0,0,0,0,1
7,79999,28,70000,20,20000,40,9999,0.100000,99,0,0.000000,8,0.000000,30.464915,8.916008,99,99,0,0,0,0,0
7,79999,29,70000,20,20000,40,9999,0.100000,99,0,0.000000,8,0.000000,14.619436,1.803368,99,99,0,0,0,0,0
7,79999,30,70000,17,20000,0,9999,0.100000,99,0,0.499537,8,0.000000,27.189006,0.206483,99,99,0,0,0,0,1
7,79999,31,70000,82,50000,0,9999,0.100000,99,0,0.384062,8,0.000000,27.809458,0.320982,99,99,0,0,0,0,1
7,79999,32,70000,17,20000,40,9999,0.100000,99,0,0.000000,8,0.000000,25.331594,0.604945,99,99,0,0,0,0,0
7,79999,33,70000,82,50000,0,9999,0.100000,99,0,0.345003,8,0.000000,29.585603,0.206343,99,99,0,1,0,0,0
7,79999,34,70000,84,0,40,9999,0.100000,99,0,0.000000,8,0.000000,26.910883,0.284282,99,99,0,0,0,0,0
7,79999,35,70000,1,0,0,9999,0.100000,99,0,0.018682,8,0.000000,17.228153,0.479195,99,99,0,0,0,0,1
7,79999,36,70000,82,50000,0,9999,0.100000,99,0,0.000416,8,0.000000,20.644006,0.207886,99,99,0,0,0,0,1
7,79999,37,70000,1,0,40,9999,0.100000,99,0,0.000000,8,0.000000,30.414196,0.391762,99,99,0,0,0,0,0
7,79999,38,70000,98,30000,0,9999,0.100000,99,0,0.040404,8,0.000000,17.172752,0.112218,99,99,0,0,0,0,1
7,79999,39,70000,53,0,0,9999,0.100000,99,0,0.084530,8,0.000000,33.071326,0.090715,99,99,0,0,0,0,1
7,79999,40,70000,98,30000,40,9999,0.100000,99,0,0.000000,8,0.000000,30.500157,1.009693,99,99,0,0,0,0,0
7,79999,41,70000,17,20000,40,9999,0.100000,99,0,0.000000,8,1.000000,27.128621,1.801399,99,99,0,0,0,0,0
7,79999,42,70000,17,20000,40,9999,0.100000,99,0,0.000000,8,0.000000,18.364657,0.803953,99,99,0,0,0,0,0
7,79999,43,70000,20,20000,40,9999,0.100000,99,0,0.000000,8,0.000000,22.719420,0.413692,99,99,0,0,0,0,0
7,79999,44,70000,82,50000,0,9999,0.100000,99,0,0.243008,8,0.000000,23.859645,0.224224,99,99,0,0,0,1,0
7,79999,45,70000,98,30000,40,9999,0.100000,99,0,0.000000,8,0.000000,16.641008,0.078612,99,99,0,0,0,0,0
7,79999,46,70000,98,30000,40,9999,0.100000,99,0,0.000000,8,1.000000,32.687835,15.810714,99,99,0,0,0,0,0
7,79999,47,70000,1,0,40,9999,0.100000,99,0,0.000000,8,2.000000,27.837547,5.649507,99,99,0,0,0,0,0
7,79999,48,70000,84,0,0,9999,0.100000,99,0,0.172649,8,0.000000,21.951461,1.068215,99,99,0,0,0,0,1
7,79999,49,70000,98,30000,40,9999,0.100000,99,0,0.000000,8,0.000000,26.033969,0.481638,99,99,0,0,0,0,0
7,79999,50,70000,20,20000,40,9999,0.100000,99,0,0.000000,8,0.000000,17.017528,0.226909,99,99,0,0,0,0,0
7,79999,51,70000,82,50000,40,9999,0.100000,99,0,0.000000,8,0.000000,30.897734,0.176442,99,99,0,0,0,0,0
7,79999,52,70000,20,20000,40,9999,0.100000,99,0,0.000000,8,0.000000,22.458794,1.998303,99,99,0,0,0,0,0
7,79999,53,70000,1,0,40,9999,0.100000,99,0,0.000000,8,0.000000,27.481652,0.495220,99,99,0,0,0,0,0
7,79999,54,70000,82,50000,40,9999,0.100000,99,0,0.000000,8,0.000000,14.606241,0.860962,99,99,0,0,0,0,0
7,79999,55,70000,82,50000,41,9999,0.100000,99,0,0.000000,8,3.000000,22.371601,8.170963,99,99,0,0,0,0,0
7,79999,56,70000,94,30000,40,9999,0.100000,99,0,0.000000,8,0.000000,22.923168,0.102759,99,99,0,0,0,0,0
7,79999,57,70000,98,30000,40,9999,0.100000,99,0,0.000000,8,2.000000,30.534984,7.273321,99,99,0,0,0,0,0
7,79999,58,70000,82,50000,40,9999,0.100000,99,0,0.000000,8,0.000000,32.357204,0.343058,99,99,0,0,0,0,0
7,79999,59,70000,98,30000,40,9999,0.100000,99,0,0.000000,8,0.000000,16.838135,0.100140,99,99,0,0,0,0,0
7,79999,60,70000,98,30000,40,9999,0.100000,99,0,0.000000,8,0.000000,26.696252,2.870717,99,99,0,0,0,0,0
7,79999,61,70000,82,50000,40,9999,0.100000,99,0,0.000000,8,0.000000,20.706299,0.393254,99,99,0,0,0,0,0
7,79999,62,70000,82,50000,40,9999,0.100000,99,0,0.000000,8,0.000000,16.432366,0.089791,99,99,0,0,0,0,0
7,79999,63,70000,98,30000,0,9999,0.100000,99,0,0.173144,8,0.000000,23.004105,0.409258,99,99,0,0,0,0,1
7,79999,64,70000,94,30000,40,9999,0.100000,99,0,0.000000,8,0.000000,19.717098,2.372234,99,99,0,0,0,0,0
7,79999,65,70000,1,0,40,9999,0.100000,99,0,0.000000,8,0.000000,27.381786,0.187052,99,99,0,0,0,0,0
7,79999,66,70000,98,30000,40,9999,0.100000,99,0,0.000000,8,0.000000,20.496691,0.105105,99,99,0,0,0,0,0
7,79999,67,70000,1,0,0,9999,0.100000,99,0,0.635454,8,0.000000,22.195242,0.236447,99,99,0,0,0,1,0
7,79999,68,70000,1,0,40,9999,0.100000,99,0,0.000000,8,0.000000,27.542781,1.036659,99,99,0,0,0,0,0
7,79999,69,70000,84,0,40,9999,0.100000,99,0,0.000000,8,1.000000,32.905450,1.922593,99,99,0,0,0,0,0
7,79999,70,70000,84,0,0,9999,0.100000,99,0,0.002822,8,0.000000,22.090842,0.098821,99,99,0,0,0,0,1
7,79999,71,70000,20,20000,40,9999,0.100000,99,0,0.000000,8,0.000000,21.878119,0.423385,99,99,0,0,0,0,0
7,79999,72,70000,84,0,40,9999,0.100000,99,0,0.000000,8,0.000000,27.725420,0.906392,99,99,0,0,0,0,0
7,79999,73,70000,94,30000,0,9999,0.100000,99,0,0.030332,8,0.000000,18.806448,0.154885,99,99,0,0,0,0,1
7,79999,74,70000,82,50000,40,9999,0.100000,99,0,0.000000,8,0.000000,27.323182,0.445091,99,99,0,0,0,0,0
7,79999,75,70000,53,0,40,9999,0.100000,99,0,0.000000,8,0.000000,23.888160,0.353933,99,99,0,0,0,0,0
7,79999,76,70000,98,30000,40,9999,0.100000,99,0,0.000000,8,0.000000,30.738824,0.148977,99,99,0,0,0,0,0
7,79999,77,70000,84,0,40,9999,0.100000,99,0,0.000000,8,0.000000,17.249829,2.093427,99,99,0,0,0,0,0
7,79999,78,70000,84,0,40,9999,0.100000,99,0,0.000000,8,0.000000,27.988269,0.717769,99,99,0,0,0,0,0
7,79999,79,70000,53,0,40,9999,0.100000,99,0,0.000000,8,0.000000,32.886256,0.107544,99,99,0,0,0,0,0
7,79999,80,70000,94,30000,40,9999,0.100000,99,0,0.000000,8,0.000000,21.126450,0.450745,99,99,0,0,0,0,0
7,79999,81,70000,17,20000,40,9999,0.100000,99,0,0.000000,8,0.000000,22.399944,0.762666,99,99,0,0,0,0,0
7,79999,82,70000,94,30000,43,9999,0.100000,99,0,0.000000,8,6.000000,15.118945,26.567306,99,99,0,0,0,0,0
7,79999,83,70000,1,0,40,9999,0.100000,99,0,0.000000,8,0.000000,14.488932,0.080784,99,99,0,0,0,0,0
7,79999,84,70000,98,30000,0,9999,0.100000,99,0,0.730304,8,0.000000,21.351382,0.327906,99,99,0,0,1,0,0
7,79999,85,70000,20,20000,40,9999,0.100000,99,0,0.000000,8,0.000000,28.891253,0.896729,99,99,0,0,0,0,0
7,79999,86,70000,17,20000,0,9999,0.100000,99,0,0.001485,8,0.000000,31.828363,0.105815,99,99,0,0,0,1,0
7,79999,87,70000,82,50000,40,9999,0.100000,99,0,0.000000,8,1.000000,27.266987,2.206228,99,99,0,0,0,0,0
7,79999,88,70000,94,30000,40,9999,0.100000,99,0,0.000000,8,0.000000,26.587158,0.449394,99,99,0,0,0,0,0
7,79999,89,70000,98,30000,40,9999,0.100000,99,0,0.000000,8,0.000000,14.993753,0.960790,99,99,0,0,0,0,0
7,79999,90,70000,94,30000,40,9999,0.135000,99,0,0.000000,8,0.000000,15.164693,0.418439,99,99,0,0,0,0,0
7,79999,91,70000,84,0,43,9999,0.100000,99,0,0.000000,8,12.000000,31.578628,23.522668,99,99,0,0,0,0,0
7,79999,92,70000,1,0,40,9999,0.100000,99,0,0.000000,8,0.000000,26.142985,0.758312,99,99,0,0,0,0,0
7,79999,93,70000,1,0,0,9999,0.100000,99,0,3.743756,8,1.000000,27.048593,1.481987,99,99,0,0,0,0,1
7,79999,94,70000,17,20000,40,9999,0.100000,99,0,0.000000,8,0.000000,25.618104,0.227702,99,99,0,0,0,0,0
7,79999,95,70000,84,0,40,9999,0.100000,99,0,0.000000,8,2.000000,29.462702,10.598346,99,99,0,0,0,0,0
7,79999,96,70000,98,30000,40,9999,0.100000,99,0,0.000000,8,0.000000,22.916650,0.595931,99,99,0,0,0,0,0
7,79999,97,70000,20,20000,0,9999,0.100000,99,0,0.104671,8,0.000000,29.408620,0.168296,99,99,0,1,0,0,0
7,79999,98,70000,84,0,40,9999,0.100000,99,0,0.000000,8,0.000000,22.815389,0.084854,99,99,0,0,0,0,0
7,79999,99,70000,17,20000,40,9999,0.100000,99,0,0.000000,8,0.000000,22.064997,0.086206,99,99,0,0,0,0,0
8,89999,0,80000,53,0,0,9999,0.100000,99,0,0.674895,8,0.000000,31.048152,0.178974,99,99,0,0,0,0,1
8,89999,1,80000,17,20000,40,9999,0.100000,99,0,0.000000,8,0.000000,24.648995,0.666992,99,99,0,0,0,0,0
8,89999,2,80000,94,30000,40,9999,0.100000,99,0,0.000000,8,0.000000,26.912829,5.998556,99,99,0,0,0,0,0
8,89999,3,80000,82,50000,0,9999,0.100000,99,0,0.136666,8,0.000000,24.787374,1.180574,99,99,0,0,0,0,1
8,89999,4,80000,17,20000,0,9999,0.100000,99,0,2.779931,8,0.000000,19.767770,0.767825,99,99,0,0,1,0,0
8,89999,5,80000,53,0,40,9999,0.100000,99,0,0.000000,8,0.000000,25.080433,0.691873,99,99,0,0,0,0,0
8,89999,6,80000,91,70000,40,9999,0.100000,99,0,0.000000,9,0.000000,24.897944,0.669373,99,99,0,0,0,0,0
8,89999,7,80000,82,50000,0,9999,0.100000,99,0,0.105244,8,0.000000,18.258551,0.217994,99,99,0,1,0,0,0
8,89999,8,80000,82,50000,40,9999,0.100000,99,0,0.000000,8,1.000000,27.287007,7.672867,99,99,0,0,0,0,0
8,89999,9,80000,20,20000,0,9999,0.100000,99,0,0.593067,9,0.000000,27.102893,1.021786,99,99,0,0,0,0,1
8,89999,10,80000,84,0,0,9999,0.100000,99,0,0.001534,8,0.000000,21.010751,0.123877,99,99,0,0,1,0,0
8,89999,11,80000,94,30000,40,9999,0.100000,99,0,0.000000,8,0.000000,31.538023,0.308208,99,99,0,0,0,0,0
8,89999,12,80000,1,0,40,9999,0.065000,99,0,0.000000,8,0.000000,25.132977,0.419812,99,99,0,0,0,0,0
8,89999,13,80000,94,30000,0,9999,0.100000,99,0,0.511624,9,0.000000,26.155236,0.239824,99,99,0,0,0,1,0
8,89999,14,80000,84,0,0,9999,0.100000,99,0,0.008718,9,0.000000,33.437606,0.113973,99,99,0,0,0,0,1
8,89999,15,80000,53,0,40,9999,0.100000,99,0,0.000000,8,0.000000,24.497428,0.697368,99,99,0,0,0,0,0
8,89999,16,80000,20,20000,0,9999,0.100000,99,0,1.302152,9,0.000000,32.944282,0.443995,99,99,0,1,0,0,0
8,89999,17,80000,1,0,40,9999,0.100000,99,0,0.000000,8,0.000000,30.073993,0.129966,99,99,0,0,0,0,0
8,89999,18,80000,1,0,40,9999,0.100000,99,0,0.000000,8,0.000000,26.784545,3.450234,99,99,0,0,0,0,0
8,89999,19,80000,17,20000,0,9999,0.100000,99,0,0.102530,8,0.000000,23.127527,0.104531,99,99,0,0,0,0,1
8,89999,20,80000,20,20000,40,9999,0.100000,99,0,0.000000,8,0.000000,26.477397,0.906251,99,99,0,0,0,0,0
8,89999,21,80000,82,50000,40,9999,0.100000,99,0,0.000000,8,0.000000,27.051192,1.930722,99,99,0,0,0,0,0
8,89999,22,80000,84,0,40,9999,0.100000,99,0,0.000000,8,0.000000,21.155467,0.913764,99,99,0,0,0,0,0
8,89999,23,80000,1,0,0,9999,0.100000,99,0,0.014207,8,0.000000,14.842580,0.129084,99,99,0,0,0,0,1
8,89999,24,80000,53,0,40,9999,0.100000,99,0,0.000000,8,0.000000,21.801040,0.702353,99,99,0,0,0,0,0
8,89999,25,80000,20,20000,40,9999,0.100000,99,0,0.000000,8,0.000000,17.338347,0.311389,99,99,0,0,0,0,0
8,89999,26,80000,53,0,40,9999,0.100000,99,0,0.000000,9,0.000000,33.195848,0.084340,99,99,0,0,0,0,0
8,89999,27,80000,17,20000,40,9999,0.100000,99,0,0.000000,8,0.000000,26.596448,0.951133,99,99,0,0,0,0,0
8,89999,28,80000,94,30000,40,9999,0.100000,99,0,0.000000,9,1.000000,30.554105,7.572744,99,99,0,0,0,0,0
8,89999,29,80000,98,30000,40,9999,0.100000,99,0,0.000000,9,0.000000,14.638096,1.833198,99,99,0,0,0,0,0
8,89999,30,80000,84,0,41,9999,0.100000,99,0,0.000000,8,5.000000,27.070545,11.214475,99,99,0,0,0,0,0
8,89999,31,80000,98,30000,40,9999,0.100000,99,0,0.000000,8,0.000000,27.929374,0.229823,99,99,0,0,0,0,0
8,89999,32,80000,53,0,40,9999,0.100000,99,0,0.000000,9,0.000000,25.397230,1.278521,99,99,0,0,0,0,0
8,89999,33,80000,98,30000,1,9999,0.100000,99,0,0.084574,8,5.000000,29.624447,11.506531,99,99,0,1,0,0,0
8,89999,34,80000,1,0,0,9999,0.100000,99,0,0.312544,8,0.000000,26.785327,0.200417,99,99,0,0,0,0,1
8,89999,35,80000,53,0,0,9999,0.100000,99,0,0.007505,9,0.000000,17.238652,0.474840,99,99,0,0,0,0,1
8,89999,36,80000,94,30000,0,9999,0.100000,99,0,0.000078,8,0.000000,20.643506,0.208686,99,99,0,0,0,0,1
8,89999,37,80000,17,20000,40,9999,0.100000,99,0,0.000000,8,0.000000,30.454800,0.490592,99,99,0,0,0,0,0
8,89999,38,80000,1,0,0,9999,0.100000,99,0,0.014264,9,0.000000,17.181404,0.104802,99,99,0,0,0,0,1
8,89999,39,80000,53,0,0,9999,0.100000,99,0,0.005649,8,0.000000,33.067257,0.084598,99,99,0,0,0,0,1
8,89999,40,80000,84,0,40,9999,0.100000,99,0,0.000000,8,0.000000,30.533754,1.160347,99,99,0,0,0,0,0
8,89999,41,80000,82,50000,40,9999,0.100000,99,0,0.000000,8,0.000000,26.779005,2.757538,99,99,0,0,0,0,0
8,89999,42,80000,98,30000,0,9999,0.100000,99,0,0.001831,8,0.000000,18.994235,0.183707,99,99,0,0,0,0,1
8,89999,43,80000,98,30000,40,9999,0.100000,99,0,0.000000,8,0.000000,22.696634,0.380881,99,99,0,0,0,0,0
8,89999,44,80000,98,30000,0,9999,0.100000,99,0,0.380095,8,0.000000,23.869702,0.262675,99,99,0,0,0,1,0
8,89999,45,80000,53,0,40,9999,0.100000,99,0,0.000000,8,0.000000,16.652264,0.071510,99,99,0,0,0,0,0
8,89999,46,80000,84,0,40,9999,0.100000,99,0,0.000000,8,0.000000,32.406909,2.784035,99,99,0,0,0,0,0
8,89999,47,80000,94,30000,40,9999,0.100000,99,0,0.000000,8,1.000000,26.232800,17.231856,99,99,0,0,0,0,0
8,89999,48,80000,53,0,0,9999,0.100000,99,0,0.162765,8,0.000000,21.984196,1.419633,99,99,0,0,0,0,1
8,89999,49,80000,1,0,40,9999,0.100000,99,0,0.000000,9,0.000000,25.960219,1.123072,99,99,0,0,0,0,0
8,89999,50,80000,98,30000,40,9999,0.100000,99,0,0.000000,9,0.000000,17.025604,0.223626,99,99,0,0,0,0,0
8,89999,51,80000,98,30000,40,9999,0.100000,99,0,0.000000,8,0.000000,30.902998,0.215827,99,99,0,0,0,0,0
8,89999,52,80000,17,20000,40,9999,0.100000,99,0,0.000000,8,0.000000,22.221230,0.252422,99,99,0,0,0,0,0
8,89999,53,80000,98,30000,0,9999,0.100000,99,0,0.205336,8,0.000000,27.602259,0.623606,99,99,0,0,0,0,1
8,89999,54,80000,94,30000,40,9999,0.100000,99,0,0.000000,8,0.000000,14.619557,0.860820,99,99,0,0,0,0,0
8,89999,55,80000,82,50000,40,9999,0.100000,99,0,0.000000,8,0.000000,25.273463,1.984201,99,99,0,0,0,0,0
8,89999,56,80000,98,30000,40,9999,0.100000,99,0,0.000000,8,0.000000,22.902826,0.093676,99,99,0,0,0,0,0
8,89999,57,80000,82,50000,40,9999,0.100000,99,0,0.000000,8,0.000000,30.566696,1.961829,99,99,0,0,0,0,0
8,89999,58,80000,94,30000,40,9999,0.100000,99,0,0.000000,8,0.000000,32.353168,0.104387,99,99,0,0,0,0,0
8,89999,59,80000,94,30000,40,9999,0.100000,99,0,0.000000,9,0.000000,16.849317,0.141431,99,99,0,0,0,0,0
8,89999,60,80000,17,20000,40,9999,0.100000,99,0,0.000000,9,0.000000,26.559473,0.677167,99,99,0,0,0,0,0
8,89999,61,80000,20,20000,40,9999,0.100000,99,0,0.000000,8,0.000000,20.691650,0.439784,99,99,0,0,0,0,0
8,89999,62,80000,84,0,40,9999,0.100000,99,0,0.000000,8,0.000000,16.442718,0.079642,99,99,0,0,0,0,0
8,89999,63,80000,1,0,0,9999,0.100000,99,0,0.365134,9,0.000000,22.944273,0.134537,99,99,0,0,0,0,1
8,89999,64,80000,1,0,40,9999,0.100000,99,0,0.000000,8,0.000000,19.824572,0.812416,99,99,0,0,0,0,0
8,89999,65,80000,17,20000,40,9999,0.100000,99,0,0.000000,9,0.000000,27.267571,0.149466,99,99,0,0,0,0,0
8,89999,66,80000,82,50000,40,9999,0.100000,99,0,0.000000,8,0.000000,20.498294,0.110099,99,99,0,0,0,0,0
8,89999,67,80000,1,0,0,9999,0.100000,99,0,0.746520,8,0.000000,22.158792,0.406790,99,99,0,0,0,1,0
8,89999,68,80000,20,20000,40,9999,0.100000,99,0,0.000000,8,0.000000,27.327410,0.409569,99,99,0,0,0,0,0
8,89999,69,80000,20,20000,40,9999,0.100000,99,0,0.000000,8,0.000000,33.600685,0.906713,99,99,0,0,0,0,0
8,89999,70,80000,20,20000,40,9999,0.100000,99,0,0.000000,8,0.000000,22.090429,0.098123,99,99,0,0,0,0,0
8,89999,71,80000,17,20000,40,9999,0.100000,99,0,0.000000,8,0.000000,21.903171,2.383444,99,99,0,0,0,0,0
8,89999,72,80000,53,0,40,9999,0.100000,99,0,0.000000,8,0.000000,27.529432,0.380047,99,99,0,0,0,0,0
8,89999,73,80000,17,20000,0,9999,0.100000,99,0,0.012713,8,0.000000,18.781792,0.136748,99,99,0,0,0,0,1
8,89999,74,80000,98,30000,40,9999,0.100000,99,0,0.000000,8,0.000000,27.446821,1.021707,99,99,0,0,0,0,0
8,89999,75,80000,53,0,40,9999,0.100000,99,0,0.000000,9,0.000000,23.890112,0.403845,99,99,0,0,0,0,0
8,89999,76,80000,84,0,40,9999,0.100000,99,0,0.000000,9,0.000000,30.756265,0.222580,99,99,0,0,0,0,0
8,89999,77,80000,94,30000,40,9999,0.100000,99,0,0.000000,8,0.000000,17.255948,3.691722,99,99,0,0,0,0,0
8,89999,78,80000,53,0,40,9999,0.100000,99,0,0.000000,8,0.000000,28.101814,0.667067,99,99,0,0,0,0,0
8,89999,79,80000,82,50000,40,9999,0.100000,99,0,0.000000,8,0.000000,32.880730,0.096761,99,99,0,0,0,0,0
8,89999,80,80000,17,20000,40,9999,0.100000,99,0,0.000000,9,0.000000,21.369650,0.478136,99,99,0,0,0,0,0
8,89999,81,80000,53,0,40,9999,0.100000,99,0,0.000000,8,0.000000,22.271312,0.858566,99,99,0,0,0,0,0
8,89999,82,80000,1,0,40,9999,0.100000,99,0,0.000000,8,0.000000,15.130669,0.392541,99,99,0,0,0,0,0
8,89999,83,80000,94,30000,40,9999,0.100000,99,0,0.000000,8,0.000000,14.502135,0.076850,99,99,0,0,0,0,0
8,89999,84,80000,1,0,0,9999,0.100000,99,0,0.313167,8,0.000000,21.523359,0.295230,99,99,0,0,1,0,0
8,89999,85,80000,1,0,40,9999,0.100000,99,0,0.000000,8,0.000000,29.056523,0.756719,99,99,0,0,0,0,0
8,89999,86,80000,1,0,0,9999,0.100000,99,0,0.001685,9,0.000000,31.829113,0.102952,99,99,0,0,0,1,0
8,89999,87,80000,1,0,40,9999,0.100000,99,0,0.000000,8,0.000000,26.913963,2.616487,99,99,0,0,0,0,0
8,89999,88,80000,1,0,40,9999,0.100000,99,0,0.000000,9,0.000000,26.452889,0.351095,99,99,0,0,0,0,0
8,89999,89,80000,17,20000,40,9999,0.100000,99,0,0.000000,9,0.000000,15.012803,0.715715,99,99,0,0,0,0,0
8,89999,90,80000,94,30000,40,9999,0.100000,99,0,0.000000,9,0.000000,15.182959,0.370702,99,99,0,0,0,0,0
8,89999,91,80000,91,70000,40,9999,0.100000,99,0,0.000000,9,0.000000,25.052830,18.931893,99,99,0,0,0,0,0
8,89999,92,80000,20,20000,0,9999,0.100000,99,0,2.057187,8,0.000000,26.064596,0.912995,99,99,0,0,0,0,1
8,89999,93,80000,53,0,0,9999,0.100000,99,0,1.061558,8,0.000000,27.505799,0.338583,99,99,0,0,0,0,1
8,89999,94,80000,94,30000,42,9999,0.100000,99,0,0.000000,9,6.000000,25.675591,12.618516,99,99,0,0,0,0,0
8,89999,95,80000,94,30000,40,9999,0.100000,99,0,0.000000,8,0.000000,27.771266,0.255597,99,99,0,0,0,0,0
8,89999,96,80000,82,50000,40,9999,0.100000,99,0,0.000000,9,0.000000,22.894193,0.594188,99,99,0,0,0,0,0
8,89999,97,80000,84,0,0,9999,0.100000,99,0,0.132808,9,0.000000,29.387874,0.159986,99,99,0,1,0,0,0
8,89999,98,80000,17,20000,40,9999,0.100000,99,0,0.000000,8,0.000000,22.794392,0.087184,99,99,0,0,0,0,0
8,89999,99,80000,17,20000,0,9999,0.100000,99,0,0.003771,8,0.000000,22.064495,0.087664,99,99,0,0,0,0,1
9,99999,0,90000,20,20000,0,9999,0.100000,99,0,2.499844,9,0.000000,31.079046,0.572082,99,99,0,0,0,0,1
9,99999,1,90000,82,50000,40,9999,0.100000,99,0,0.000000,9,0.000000,24.258904,0.854051,99,99,0,0,0,0,0
9,99999,2,90000,17,20000,40,9999,0.100000,99,0,0.000000,9,0.000000,26.825615,3.439251,99,99,0,0,0,0,0
9,99999,3,90000,84,0,40,9999,0.100000,99,0,0.000000,9,0.000000,24.896133,0.598559,99,99,0,0,0,0,0
9,99999,4,90000,53,0,0,9999,0.100000,99,0,2.402726,9,0.000000,19.787739,0.544780,99,99,0,0,1,0,0
9,99999,5,90000,17,20000,40,9999,0.100000,99,0,0.000000,9,0.000000,24.699742,0.683720,99,99,0,0,0,0,0
9,99999,6,90000,94,30000,40,9999,0.100000,99,0,0.000000,9,0.000000,24.570731,1.737874,99,99,0,0,0,0,0
9,99999,7,90000,17,20000,0,9999,0.100000,99,0,0.117818,9,0.000000,18.243094,0.288825,99,99,0,1,0,0,0
9,99999,8,90000,94,30000,40,9999,0.100000,99,0,0.000000,9,0.000000,28.060845,8.997801,99,99,0,0,0,0,0
9,99999,9,90000,91,70000,41,9999,0.100000,99,0,0.000000,9,5.000000,27.097011,6.998924,99,99,0,0,0,0,0
9,99999,10,90000,20,20000,0,9999,0.100000,99,0,0.001671,9,0.000000,21.012442,0.113588,99,99,0,0,1,0,0
9,99999,11,90000,91,70000,40,9999,0.100000,99,0,0.000000,9,0.000000,31.758284,0.265617,99,99,0,0,0,0,0
9,99999,12,90000,98,30000,40,9999,0.100000,99,0,0.000000,9,0.000000,25.053886,0.328323,99,99,0,0,0,0,0
9,99999,13,90000,53,0,2,9999,0.100000,99,0,43.637372,9,8.000000,26.311797,8.608209,99,99,0,0,0,1,0
9,99999,14,90000,84,0,0,9999,0.100000,99,0,0.017530,9,0.000000,33.438908,0.115392,99,99,0,0,0,0,1
9,99999,15,90000,98,30000,40,9999,0.100000,99,0,0.000000,9,0.000000,24.105455,0.723488,99,99,0,0,0,0,0
9,99999,16,90000,1,0,0,9999,0.100000,99,0,0.125178,9,0.000000,33.016743,1.142918,99,99,0,1,0,0,0
9,99999,17,90000,53,0,40,9999,0.100000,99,0,0.000000,9,0.000000,30.073927,0.130509,99,99,0,0,0,0,0
9,99999,18,90000,20,20000,40,9999,0.100000,99,0,0.000000,9,0.000000,26.963896,6.536572,99,99,0,0,0,0,0
9,99999,19,90000,94,30000,0,9999,0.100000,99,0,0.103837,9,0.000000,23.110000,0.105301,99,99,0,0,0,0,1
9,99999,20,90000,91,70000,40,9999,0.100000,99,0,0.000000,9,0.000000,26.240265,0.489178,99,99,0,0,0,0,0
9,99999,21,90000,53,0,40,9999,0.100000,99,0,0.000000,9,0.000000,27.329382,1.809246,99,99,0,0,0,0,0
9,99999,22,90000,1,0,40,9999,0.100000,99,0,0.000000,9,0.000000,20.488825,0.921684,99,99,0,0,0,0,0
9,99999,23,90000,20,20000,0,9999,0.100000,99,0,0.011427,9,0.000000,14.850603,0.134641,99,99,0,0,0,0,1
9,99999,24,90000,1,0,0,9999,0.100000,99,0,0.520994,9,0.000000,21.576660,0.873670,99,99,0,0,0,1,0
9,99999,25,90000,94,30000,40,9999,0.100000,99,0,0.000000,9,0.000000,17.343376,0.303491,99,99,0,0,0,0,0
9,99999,26,90000,91,70000,40,9999,0.100000,99,0,0.000000,9,0.000000,33.197037,0.110152,99,99,0,0,0,0,0
9,99999,27,90000,84,0,0,9999,0.100000,99,0,0.294948,9,0.000000,26.589070,0.608187,99,99,0,0,0,0,1
9,99999,28,90000,20,20000,40,9999,0.100000,99,0,0.000000,9,1.000000,29.065330,6.481685,99,99,0,0,0,0,0
9,99999,29,90000,17,20000,40,9999,0.100000,99,0,0.000000,9,0.000000,14.644801,1.794438,99,99,0,0,0,0,0
9,99999,30,90000,53,0,0,9999,0.100000,99,0,0.001685,9,0.000000,26.987870,0.134294,99,99,0,0,0,0,1
9,99999,31,90000,1,0,0,9999,0.100000,99,0,0.647875,9,0.000000,27.964111,0.271101,99,99,0,0,0,0,1
9,99999,32,90000,1,0,42,9999,0.100000,99,0,0.000000,9,8.000000,25.565932,9.190239,99,99,0,0,0,0,0
9,99999,33,90000,98,30000,0,9999,0.100000,99,0,0.160266,9,0.000000,29.622410,0.137602,99,99,0,1,0,0,0
9,99999,34,90000,84,0,40,9999,0.100000,99,0,0.000000,9,0.000000,26.700487,0.159624,99,99,0,0,0,0,0
9,99999,35,90000,17,20000,0,9999,0.100000,99,0,0.008035,9,0.000000,17.238015,0.472358,99,99,0,0,0,0,1
9,99999,36,90000,82,50000,0,9999,0.100000,99,0,0.000112,9,0.000000,20.643240,0.210044,99,99,0,0,0,0,1
9,99999,37,90000,20,20000,40,9999,0.100000,99,0,0.000000,9,0.000000,30.588321,0.877288,99,99,0,0,0,0,0
9,99999,38,90000,20,20000,0,9999,0.100000,99,0,0.010111,9,0.000000,17.186043,0.106302,99,99,0,0,0,0,1
9,99999,39,90000,20,20000,0,9999,0.100000,99,0,0.003971,9,0.000000,33.065988,0.083561,99,99,0,0,0,0,1
9,99999,40,90000,53,0,40,9999,0.100000,99,0,0.000000,9,0.000000,30.652440,1.411910,99,99,0,0,0,0,0
9,99999,41,90000,84,0,41,9999,0.100000,99,0,0.000000,9,5.000000,26.844878,8.424725,99,99,0,0,0,0,0
9,99999,42,90000,1,0,0,9999,0.100000,99,0,0.001285,9,0.000000,18.985254,0.099196,99,99,0,0,0,0,1
9,99999,43,90000,53,0,40,9999,0.100000,99,0,0.000000,9,2.000000,22.676305,5.615644,99,99,0,0,0,0,0
9,99999,44,90000,91,70000,0,9999,0.100000,99,0,0.859273,9,0.000000,23.871210,0.297144,99,99,0,0,0,1,0
9,99999,45,90000,17,20000,40,9999,0.100000,99,0,0.000000,9,0.000000,16.653072,0.073288,99,99,0,0,0,0,0
9,99999,46,90000,1,0,40,9999,0.100000,99,0,0.000000,9,0.000000,32.713749,0.089142,99,99,0,0,0,0,0
9,99999,47,90000,84,0,40,9999,0.100000,99,0,0.000000,9,0.000000,25.997293,23.554891,99,99,0,0,0,0,0
9,99999,48,90000,82,50000,0,9999,0.100000,99,0,0.192716,9,0.000000,22.005017,1.073784,99,99,0,0,0,0,1
9,99999,49,90000,98,30000,40,9999,0.100000,99,0,0.000000,9,0.000000,25.960816,1.422644,99,99,0,0,0,0,0
9,99999,50,90000,91,70000,40,9999,0.100000,99,0,0.000000,9,0.000000,17.030237,0.255825,99,99,0,0,0,0,0
9,99999,51,90000,94,30000,40,9999,0.100000,99,0,0.000000,9,0.000000,30.959433,0.609442,99,99,0,0,0,0,0
9,99999,52,90000,91,70000,40,9999,0.100000,99,0,0.000000,9,0.000000,22.299046,0.246041,99,99,0,0,0,0,0
9,99999,53,90000,84,0,40,9999,0.100000,99,0,0.000000,9,0.000000,27.646335,0.489557,99,99,0,0,0,0,0
9,99999,54,90000,91,70000,40,9999,0.100000,99,0,0.000000,9,0.000000,14.627299,0.824589,99,99,0,0,0,0,0
9,99999,55,90000,84,0,42,9999,0.100000,99,0,0.000000,9,8.000000,25.462944,12.968851,99,99,0,0,0,0,0
9,99999,56,90000,17,20000,40,9999,0.100000,99,0,0.000000,9,0.000000,22.884260,0.118202,99,99,0,0,0,0,0
9,99999,57,90000,84,0,40,9999,0.100000,99,0,0.000000,9,0.000000,30.687839,1.531276,99,99,0,0,0,0,0
9,99999,58,90000,94,30000,40,9999,0.100000,99,0,0.000000,9,0.000000,32.352261,0.085457,99,99,0,0,0,0,0
9,99999,59,90000,17,20000,40,9999,0.100000,99,0,0.000000,9,0.000000,16.849706,0.133373,99,99,0,0,0,0,0
9,99999,60,90000,84,0,40,9999,0.100000,99,0,0.000000,9,0.000000,26.461503,0.914713,99,99,0,0,0,0,0
9,99999,61,90000,91,70000,40,9999,0.100000,99,0,0.000000,9,0.000000,20.673024,0.448821,99,99,0,0,0,0,0
9,99999,62,90000,1,0,40,9999,0.100000,99,0,0.000000,9,0.000000,16.443841,0.082927,99,99,0,0,0,0,0
9,99999,63,90000,84,0,0,9999,0.100000,99,0,0.374286,9,0.000000,23.025359,0.130440,99,99,0,0,0,0,1
9,99999,64,90000,20,20000,40,9999,0.100000,99,0,0.000000,9,0.000000,19.869665,0.555732,99,99,0,0,0,0,0
9,99999,65,90000,84,0,40,9999,0.100000,99,0,0.000000,9,0.000000,27.185416,0.121321,99,99,0,0,0,0,0
9,99999,66,90000,94,30000,40,9999,0.100000,99,0,0.000000,9,0.000000,20.499584,0.105870,99,99,0,0,0,0,0
9,99999,67,90000,53,0,40,9999,0.100000,99,0,0.000000,9,0.000000,22.049482,0.523118,99,99,0,0,0,0,0
9,99999,68,90000,82,50000,40,9999,0.100000,99,0,0.000000,9,0.000000,27.310904,0.643453,99,99,0,0,0,0,0
9,99999,69,90000,98,30000,40,9999,0.100000,99,0,0.000000,9,0.000000,33.961213,0.949203,99,99,0,0,0,0,0
9,99999,70,90000,20,20000,0,9999,0.100000,99,0,0.025672,9,0.000000,22.089809,0.098061,99,99,0,0,0,0,1
9,99999,71,90000,1,0,40,9999,0.100000,99,0,0.000000,9,0.000000,21.917430,1.718721,99,99,0,0,0,0,0
9,99999,72,90000,98,30000,40,9999,0.100000,99,0,0.000000,9,0.000000,27.509045,1.068575,99,99,0,0,0,0,0
9,99999,73,90000,1,0,0,9999,0.100000,99,0,0.021470,9,0.000000,18.749434,0.126869,99,99,0,0,0,0,1
9,99999,74,90000,94,30000,40,9999,0.100000,99,0,0.000000,9,0.000000,27.494224,0.807508,99,99,0,0,0,0,0
9,99999,75,90000,1,0,40,9999,0.100000,99,0,0.000000,9,0.000000,23.887125,0.446956,99,99,0,0,0,0,0
9,99999,76,90000,82,50000,40,9999,0.100000,99,0,0.000000,9,0.000000,30.838773,0.692284,99,99,0,0,0,0,0
9,99999,77,90000,20,20000,40,9999,0.100000,99,0,0.000000,9,0.000000,17.254542,2.047032,99,99,0,0,0,0,0
9,99999,78,90000,91,70000,40,9999,0.100000,99,0,0.000000,9,0.000000,28.128751,0.517727,99,99,0,0,0,0,0
9,99999,79,90000,20,20000,40,9999,0.100000,99,0,0.000000,9,0.000000,32.880014,0.094484,99,99,0,0,0,0,0
9,99999,80,90000,20,20000,40,9999,0.100000,99,0,0.000000,9,0.000000,21.489460,0.509944,99,99,0,0,0,0,0
9,99999,81,90000,53,0,40,9999,0.100000,99,0,0.000000,9,0.000000,22.100177,0.542029,99,99,0,0,0,0,0
9,99999,82,90000,82,50000,43,9999,0.100000,99,0,0.000000,9,6.000000,15.141175,13.462884,99,99,0,0,0,0,0
9,99999,83,90000,20,20000,40,9999,0.100000,99,0,0.000000,9,0.000000,14.509619,0.078526,99,99,0,0,0,0,0
9,99999,84,90000,82,50000,0,9999,0.100000,99,0,0.583756,9,0.000000,21.547226,0.293396,99,99,0,0,1,0,0
9,99999,85,90000,1,0,0,9999,0.100000,99,0,0.618270,9,0.000000,29.205489,1.022245,99,99,0,0,0,0,1
9,99999,86,90000,1,0,0,9999,0.100000,99,0,0.001744,9,0.000000,31.829776,0.102908,99,99,0,0,0,1,0
9,99999,87,90000,53,0,40,9999,0.100000,99,0,0.000000,9,0.000000,26.949074,2.704468,99,99,0,0,0,0,0
9,99999,88,90000,1,0,40,9999,0.100000,99,0,0.000000,9,0.000000,26.372332,0.419325,99,99,0,0,0,0,0
9,99999,89,90000,84,0,40,9999,0.100000,99,0,0.000000,9,0.000000,15.021580,0.699848,99,99,0,0,0,0,0
9,99999,90,90000,17,20000,40,9999,0.100000,99,0,0.000000,9,0.000000,15.191193,0.415697,99,99,0,0,0,0,0
9,99999,91,90000,84,0,40,9999,0.100000,99,0,0.000000,9,1.000000,25.271204,14.485655,99,99,0,0,0,0,0
9,99999,92,90000,84,0,0,9999,0.100000,99,0,0.553706,9,0.000000,25.983967,2.734003,99,99,0,0,0,0,1
9,99999,93,90000,98,30000,0,9999,0.100000,99,0,0.641370,9,0.000000,27.570291,0.393226,99,99,0,0,0,0,1
9,99999,94,90000,94,30000,42,9999,0.100000,99,0,0.000000,9,8.000000,25.837702,20.856974,99,99,0,0,0,0,0
9,99999,95,90000,53,0,40,9999,0.100000,99,0,0.000000,9,0.000000,27.810178,0.347772,99,99,0,0,0,0,0
9,99999,96,90000,94,30000,40,9999,0.100000,99,0,0.000000,9,0.000000,22.874106,0.601712,99,99,0,0,0,0,0
9,99999,97,90000,91,70000,0,9999,0.100000,99,0,0.165770,9,0.000000,29.366989,0.181549,99,99,0,1,0,0,0
9,99999,98,90000,82,50000,40,9999,0.100000,99,0,0.000000,9,0.000000,22.775593,0.085543,99,99,0,0,0,0,0
9,99999,99,90000,91,70000,40,9999,0.100000,99,0,0.000000,9,0.000000,22.063754,0.090935,99,99,0,0,0,0,0
10,109999,0,100000,82,50000,0,9999,0.100000,99,0,2.387936,9,0.000000,31.545076,0.611779,99,99,0,0,0,0,1
10,109999,1,100000,20,20000,40,9999,0.100000,99,0,0.000000,9,0.000000,23.790581,1.068354,99,99,0,0,0,0,0
10,109999,2,100000,91,70000,40,9999,0.100000,99,0,0.000000,10,0.000000,26.761376,0.702045,99,99,0,0,0,0,0
10,109999,3,100000,17,20000,40,9999,0.100000,99,0,0.000000,10,0.000000,24.978229,0.437661,99,99,0,0,0,0,0
10,109999,4,100000,91,70000,0,9999,0.100000,99,0,2.369507,9,0.000000,19.458899,0.572536,99,99,0,0,1,0,0
10,109999,5,100000,94,30000,40,9999,0.100000,99,0,0.000000,9,0.000000,24.286226,0.682518,99,99,0,0,0,0,0
10,109999,6,100000,20,20000,40,9999,0.100000,99,0,0.000000,10,0.000000,24.151082,2.114980,99,99,0,0,0,0,0
10,109999,7,100000,91,70000,0,9999,0.100000,99,0,0.058274,10,0.000000,18.091514,1.195723,99,99,0,1,0,0,0
10,109999,8,100000,53,0,40,9999,0.100000,99,0,0.000000,10,1.000000,28.022248,5.976996,99,99,0,0,0,0,0
10,109999,9,100000,84,0,40,9999,0.100000,99,0,0.000000,10,1.000000,31.052173,2.705852,99,99,0,0,0,0,0
10,109999,10,100000,94,30000,0,9999,0.100000,99,0,0.002212,9,0.000000,21.014268,0.117178,99,99,0,0,1,0,0
10,109999,11,100000,94,30000,40,9999,0.100000,99,0,0.000000,9,0.000000,31.861929,0.770229,99,99,0,0,0,0,0
10,109999,12,100000,98,30000,40,9999,0.100000,99,0,0.000000,10,0.000000,25.085709,0.313446,99,99,0,0,0,0,0
10,109999,13,100000,20,20000,0,9999,0.100000,99,0,2.768883,10,0.000000,30.354493,0.876486,99,99,0,0,0,1,0
10,109999,14,100000,84,0,40,9999,0.100000,99,0,0.000000,9,0.000000,33.441290,0.108197,99,99,0,0,0,0,0
10,109999,15,100000,17,20000,40,9999,0.100000,99,0,0.000000,9,0.000000,23.641531,1.085319,99,99,0,0,0,0,0
10,109999,16,100000,98,30000,41,9999,0.100000,99,0,0.000000,10,4.000000,33.507619,8.308285,99,99,0,0,0,0,0
10,109999,17,100000,17,20000,40,9999,0.100000,99,0,0.000000,9,0.000000,30.073751,0.131852,99,99,0,0,0,0,0
10,109999,18,100000,53,0,40,9999,0.100000,99,0,0.000000,10,0.000000,26.892737,1.079760,99,99,0,0,0,0,0
10,109999,19,100000,82,50000,0,9999,0.100000,99,0,0.103191,10,0.000000,23.092132,0.108906,99,99,0,0,0,0,1
10,109999,20,100000,20,20000,40,9999,0.100000,99,0,0.000000,9,0.000000,26.090289,0.366777,99,99,0,0,0,0,0
10,109999,21,100000,94,30000,40,9999,0.100000,99,0,0.000000,10,0.000000,27.295528,3.141005,99,99,0,0,0,0,0
10,109999,22,100000,53,0,40,9999,0.100000,99,0,0.000000,9,2.000000,19.803513,10.647148,99,99,0,0,0,0,0
10,109999,23,100000,82,50000,0,9999,0.100000,99,0,0.018834,10,0.000000,14.854932,0.129812,99,99,0,0,0,0,1
10,109999,24,100000,17,20000,0,9999,0.100000,99,0,0.705138,10,0.000000,21.192909,0.598266,99,99,0,0,0,1,0
10,109999,25,100000,17,20000,40,9999,0.100000,99,0,0.000000,10,0.000000,17.342065,0.309583,99,99,0,0,0,0,0
10,109999,26,100000,94,30000,0,9999,0.100000,99,0,0.030131,10,0.000000,33.199451,0.157217,99,99,0,0,0,0,1
10,109999,27,100000,94,30000,0,9999,0.100000,99,0,1.630272,10,0.000000,26.523043,0.653660,99,99,0,0,0,0,1
10,109999,28,100000,20,20000,40,9999,0.100000,99,0,0.000000,10,0.000000,27.555975,1.459055,99,99,0,0,0,0,0
10,109999,29,100000,94,30000,40,9999,0.100000,99,0,0.000000,9,0.000000,14.645989,1.726094,99,99,0,0,0,0,0
10,109999,30,100000,1,0,40,9999,0.100000,99,0,0.000000,10,0.000000,26.998637,0.225035,99,99,0,0,0,0,0
10,109999,31,100000,17,20000,0,9999,0.100000,99,0,2.040868,10,0.000000,28.093113,0.764147,99,99,0,0,0,0,1
10,109999,32,100000,1,0,40,9999,0.100000,99,0,0.000000,10,0.000000,29.781466,1.751270,99,99,0,0,0,0,0
10,109999,33,100000,94,30000,0,9999,0.100000,99,0,0.153441,10,0.000000,29.613028,0.149648,99,99,0,1,0,0,0
10,109999,34,100000,91,70000,0,9999,0.100000,99,0,0.009659,10,0.000000,26.711793,0.281405,99,99,0,0,0,0,1
10,109999,35,100000,82,50000,0,9999,0.100000,99,0,0.015017,10,0.000000,17.241074,0.437653,99,99,0,0,0,0,1
10,109999,36,100000,91,70000,0,9999,0.100000,99,0,0.000225,10,0.000000,20.643029,0.209813,99,99,0,0,0,0,1
10,109999,37,100000,82,50000,40,9999,0.100000,99,0,0.000000,10,1.000000,31.197693,4.821887,99,99,0,0,0,0,0
10,109999,38,100000,13,90000,0,9999,0.100000,99,0,0.020944,10,0.000000,17.190715,0.101369,99,99,0,0,0,0,1
10,109999,39,100000,91,70000,0,9999,0.100000,99,0,0.003727,10,0.000000,33.066464,0.084820,99,99,0,0,0,0,1
10,109999,40,100000,53,0,41,9999,0.100000,99,0,0.000000,10,5.000000,31.261444,6.522513,99,99,0,0,0,0,0
10,109999,41,100000,13,90000,40,9999,0.100000,99,0,0.000000,10,1.000000,31.052703,2.181705,99,99,0,0,0,0,0
10,109999,42,100000,94,30000,0,9999,0.100000,99,0,0.001564,10,0.000000,18.984990,0.103172,99,99,0,0,0,0,1
10,109999,43,100000,98,30000,40,9999,0.100000,99,0,0.000000,10,0.000000,22.656848,0.230485,99,99,0,0,0,0,0
10,109999,44,100000,94,30000,0,9999,0.100000,99,0,0.210334,10,0.000000,23.899457,0.223323,99,99,0,0,0,1,0
10,109999,45,100000,53,0,40,9999,0.100000,99,0,0.000000,10,0.000000,16.655075,0.077121,99,99,0,0,0,0,0
10,109999,46,100000,94,30000,40,9999,0.100000,99,0,0.000000,9,0.000000,32.714605,0.090642,99,99,0,0,0,0,0
10,109999,47,100000,82,50000,40,9999,0.100000,99,0,0.000000,10,0.000000,26.157660,23.603936,99,99,0,0,0,0,0
10,109999,48,100000,53,0,0,9999,0.100000,99,0,0.111651,10,0.000000,22.017974,0.841644,99,99,0,0,0,0,1
10,109999,49,100000,53,0,40,9999,0.100000,99,0,0.000000,10,0.000000,25.996276,1.049183,99,99,0,0,0,0,0
10,109999,50,100000,84,0,40,9999,0.100000,99,0,0.000000,10,0.000000,17.035222,0.215775,99,99,0,0,0,0,0
10,109999,51,100000,53,0,40,9999,0.100000,99,0,0.000000,10,0.000000,31.463487,0.645671,99,99,0,0,0,0,0
10,109999,52,100000,91,70000,40,9999,0.100000,99,0,0.000000,10,0.000000,22.370879,0.264195,99,99,0,0,0,0,0
10,109999,53,100000,17,20000,40,9999,0.100000,99,0,0.000000,9,0.000000,27.803479,0.855778,99,99,0,0,0,0,0
10,109999,54,100000,17,20000,40,9999,0.100000,99,0,0.000000,10,0.000000,14.632164,0.816084,99,99,0,0,0,0,0
10,109999,55,100000,1,0,40,9999,0.100000,99,0,0.000000,10,0.000000,30.154116,0.875335,99,99,0,0,0,0,0
10,109999,56,100000,98,30000,40,9999,0.100000,99,0,0.000000,10,0.000000,22.865689,0.177037,99,99,0,0,0,0,0
10,109999,57,100000,94,30000,40,9999,0.100000,99,0,0.000000,10,0.000000,31.310629,1.861426,99,99,0,0,0,0,0
10,109999,58,100000,20,20000,40,9999,0.100000,99,0,0.000000,10,0.000000,32.353554,0.086576,99,99,0,0,0,0,0
10,109999,59,100000,84,0,40,9999,0.100000,99,0,0.000000,10,0.000000,16.851628,0.122630,99,99,0,0,0,0,0
10,109999,60,100000,1,0,40,9999,0.100000,99,0,0.000000,10,0.000000,26.460120,1.182978,99,99,0,0,0,0,0
10,109999,61,100000,94,30000,40,9999,0.100000,99,0,0.000000,10,0.000000,20.635506,0.446664,99,99,0,0,0,0,0
10,109999,62,100000,82,50000,40,9999,0.100000,99,0,0.000000,10,0.000000,16.445576,0.092769,99,99,0,0,0,0,0
10,109999,63,100000,17,20000,0,9999,0.100000,99,0,0.377084,10,0.000000,23.100414,0.127872,99,99,0,0,0,0,1
10,109999,64,100000,82,50000,40,9999,0.100000,99,0,0.000000,10,0.000000,19.535744,0.573668,99,99,0,0,0,0,0
10,109999,65,100000,98,30000,40,9999,0.100000,99,0,0.000000,10,0.000000,27.195193,0.204608,99,99,0,0,0,0,0
10,109999,66,100000,98,30000,40,9999,0.100000,99,0,0.000000,10,0.000000,20.501335,0.109569,99,99,0,0,0,0,0
10,109999,67,100000,13,90000,40,9999,0.100000,99,0,0.000000,10,0.000000,21.816709,0.575634,99,99,0,0,0,0,0
10,109999,68,100000,20,20000,40,9999,0.100000,99,0,0.000000,10,0.000000,27.255525,0.614950,99,99,0,0,0,0,0
10,109999,69,100000,98,30000,40,9999,0.100000,99,0,0.000000,10,1.000000,34.378626,2.942644,99,99,0,0,0,0,0
10,109999,70,100000,13,90000,0,9999,0.100000,99,0,0.103072,10,0.000000,22.091122,0.101827,99,99,0,0,0,0,1
10,109999,71,100000,1,0,40,9999,0.100000,99,0,0.000000,10,0.000000,21.820519,0.212095,99,99,0,0,0,0,0
10,109999,72,100000,84,0,40,9999,0.100000,99,0,0.000000,10,0.000000,27.450074,1.269923,99,99,0,0,0,0,0
10,109999,73,100000,84,0,0,9999,0.100000,99,0,0.012566,10,0.000000,18.706304,0.120987,99,99,0,0,0,0,1
10,109999,74,100000,82,50000,40,9999,0.100000,99,0,0.000000,10,0.000000,27.664987,1.022219,99,99,0,0,0,0,0
10,109999,75,100000,94,30000,40,9999,0.100000,99,0,0.000000,10,0.000000,23.912275,0.334580,99,99,0,0,0,0,0
10,109999,76,100000,94,30000,40,9999,0.100000,99,0,0.000000,10,0.000000,31.389807,0.777753,99,99,0,0,0,0,0
10,109999,77,100000,98,30000,40,9999,0.100000,99,0,0.000000,10,0.000000,17.256803,1.973376,99,99,0,0,0,0,0
10,109999,78,100000,98,30000,40,9999,0.100000,99,0,0.000000,10,0.000000,28.238728,0.887789,99,99,0,0,0,0,0
10,109999,79,100000,1,0,40,9999,0.100000,99,0,0.000000,10,0.000000,32.880894,0.095008,99,99,0,0,0,0,0
10,109999,80,100000,91,70000,40,9999,0.100000,99,0,0.000000,10,0.000000,21.765966,0.424914,99,99,0,0,0,0,0
10,109999,81,100000,1,0,0,9999,0.100000,99,0,0.002104,10,0.000000,22.001354,0.282809,99,99,0,0,0,0,1
10,109999,82,100000,98,30000,40,9999,0.100000,99,0,0.000000,10,0.000000,15.145411,0.388703,99,99,0,0,0,0,0
10,109999,83,100000,53,0,40,9999,0.100000,99,0,0.000000,10,0.000000,14.514631,0.091885,99,99,0,0,0,0,0
10,109999,84,100000,20,20000,0,9999,0.100000,99,0,0.615746,10,0.000000,21.621323,0.294505,99,99,0,0,1,0,0
10,109999,85,100000,94,30000,40,9999,0.100000,99,0,0.000000,10,0.000000,29.831171,0.453791,99,99,0,0,0,0,0
10,109999,86,100000,20,20000,0,9999,0.100000,99,0,0.001781,10,0.000000,31.830340,0.113072,99,99,0,0,0,1,0
10,109999,87,100000,82,50000,40,9999,0.100000,99,0,0.000000,10,0.000000,27.005959,0.783129,99,99,0,0,0,0,0
10,109999,88,100000,1,0,40,9999,0.100000,99,0,0.000000,10,0.000000,26.383652,8.751563,99,99,0,0,0,0,0
10,109999,89,100000,91,70000,40,9999,0.100000,99,0,0.000000,9,0.000000,15.024225,0.709414,99,99,0,0,0,0,0
10,109999,90,100000,13,90000,40,9999,0.100000,99,0,0.000000,10,0.000000,15.191726,0.408427,99,99,0,0,0,0,0
10,109999,91,100000,82,50000,40,9999,0.100000,99,0,0.000000,10,1.000000,25.594313,7.561201,99,99,0,0,0,0,0
10,109999,92,100000,82,50000,0,9999,0.100000,99,0,0.271067,10,0.000000,26.017079,0.474501,99,99,0,0,0,0,1
10,109999,93,100000,91,70000,0,9999,0.100000,99,0,0.282717,10,0.000000,27.620452,0.794558,99,99,0,0,0,0,1
10,109999,94,100000,98,30000,40,9999,0.100000,99,0,0.000000,10,0.000000,29.994587,0.989054,99,99,0,0,0,0,0
10,109999,95,100000,94,30000,40,9999,0.100000,99,0,0.000000,10,0.000000,27.951241,0.802203,99,99,0,0,0,0,0
10,109999,96,100000,13,90000,40,9999,0.100000,99,0,0.000000,10,0.000000,22.854094,4.495546,99,99,0,0,0,0,0
10,109999,97,100000,53,0,0,9999,0.100000,99,0,0.103296,10,0.000000,29.338957,0.165410,99,99,0,1,0,0,0
10,109999,98,100000,13,90000,40,9999,0.100000,99,0,0.000000,10,0.000000,22.756734,0.084955,99,99,0,0,0,0,0
10,109999,99,100000,13,90000,40,9999,0.100000,99,0,0.000000,10,0.000000,22.065944,0.093170,99,99,0,0,0,0,0
11,119999,0,110000,98,30000,0,9999,0.100000,99,0,1.566892,10,0.000000,32.091161,0.443191,99,99,0,0,0,0,1
11,119999,1,110000,82,50000,40,9999,0.100000,99,0,0.000000,10,0.000000,23.393031,1.095925,99,99,0,0,0,0,0
11,119999,2,110000,20,20000,40,9999,0.100000,99,0,0.000000,10,0.000000,26.634311,0.873362,99,99,0,0,0,0,0
11,119999,3,110000,94,30000,40,9999,0.100000,99,0,0.000000,10,0.000000,24.976540,0.445558,99,99,0,0,0,0,0
11,119999,4,110000,13,90000,0,9999,0.065000,99,0,1.313214,10,0.000000,18.991957,0.416077,99,99,0,0,1,0,0
11,119999,5,110000,13,90000,40,9999,0.100000,99,0,0.000000,10,0.000000,23.890470,0.693665,99,99,0,0,0,0,0
11,119999,6,110000,91,70000,40,9999,0.100000,99,0,0.000000,10,0.000000,23.741804,1.064281,99,99,0,0,0,0,0
11,119999,7,110000,20,20000,0,9999,0.100000,99,0,1.138281,10,0.000000,17.431909,1.354264,99,99,0,1,0,0,0
11,119999,8,110000,53,0,40,9999,0.100000,99,0,0.000000,10,0.000000,28.752699,1.507700,99,99,0,0,0,0,0
11,119999,9,110000,94,30000,40,9999,0.100000,99,0,0.000000,10,0.000000,31.564933,1.216152,99,99,0,0,0,0,0
11,119999,10,110000,20,20000,0,9999,0.100000,99,0,0.000880,10,0.000000,21.016437,0.114781,99,99,0,0,1,0,0
11,119999,11,110000,82,50000,40,9999,0.100000,99,0,0.000000,10,0.000000,32.035199,0.906301,99,99,0,0,0,0,0
11,119999,12,110000,13,90000,40,9999,0.100000,99,0,0.000000,10,0.000000,25.114669,0.329337,99,99,0,0,0,0,0
11,119999,13,110000,17,20000,40,9999,0.100000,99,0,0.000000,10,0.000000,31.057835,2.767133,99,99,0,0,0,0,0
11,119999,14,110000,1,0,0,9999,0.100000,99,0,0.444191,10,0.000000,33.445316,0.146743,99,99,0,0,0,0,1
11,119999,15,110000,91,70000,40,9999,0.065000,99,0,0.000000,10,0.000000,23.217711,1.090560,99,99,0,0,0,0,0
11,119999,16,110000,91,70000,0,9999,0.100000,99,0,1.692857,10,0.000000,30.296840,2.313411,99,99,0,0,0,1,0
11,119999,17,110000,20,20000,40,9999,0.100000,99,0,0.000000,10,0.000000,30.073524,0.133399,99,99,0,0,0,0,0
11,119999,18,110000,1,0,40,9999,0.100000,99,0,0.000000,10,0.000000,26.742458,0.874997,99,99,0,0,0,0,0
11,119999,19,110000,98,30000,0,9999,0.100000,99,0,0.113252,10,0.000000,23.073968,0.114569,99,99,0,0,0,0,1
11,119999,20,110000,84,0,40,9999,0.100000,99,0,0.000000,10,0.000000,26.032336,0.481992,99,99,0,0,0,0,0
11,119999,21,110000,17,20000,40,9999,0.100000,99,0,0.000000,10,0.000000,27.353255,3.021151,99,99,0,0,0,0,0
11,119999,22,110000,91,70000,40,9999,0.100000,99,0,0.000000,10,0.000000,22.433369,0.982912,99,99,0,0,0,0,0
11,119999,23,110000,94,30000,0,9999,0.100000,99,0,0.217580,10,0.000000,14.865378,0.255043,99,99,0,0,0,0,1
11,119999,24,110000,1,0,0,9999,0.100000,99,0,0.600114,10,0.000000,20.863707,0.560119,99,99,0,0,0,1,0
11,119999,25,110000,17,20000,40,9999,0.100000,99,0,0.000000,10,0.000000,17.346868,0.291464,99,99,0,0,0,0,0
11,119999,26,110000,94,30000,40,9999,0.100000,99,0,0.000000,10,0.000000,33.203596,0.304291,99,99,0,0,0,0,0
11,119999,27,110000,82,50000,0,9999,0.100000,99,0,0.837956,10,0.000000,26.352751,0.312073,99,99,0,0,0,0,1
11,119999,28,110000,98,30000,40,9999,0.100000,99,0,0.000000,10,0.000000,27.392074,1.217189,99,99,0,0,0,0,0
11,119999,29,110000,53,0,40,9999,0.100000,99,0,0.000000,10,0.000000,14.654524,1.928326,99,99,0,0,0,0,0
11,119999,30,110000,17,20000,0,9999,0.100000,99,0,0.026390,10,0.000000,26.999900,0.195777,99,99,0,0,0,0,1
11,119999,31,110000,20,20000,0,9999,0.100000,99,0,2.157290,10,0.000000,28.678571,0.614609,99,99,0,0,0,0,1
11,119999,32,110000,13,90000,40,9999,0.100000,99,0,0.000000,10,3.000000,30.583018,10.469070,99,99,0,0,0,0,0
11,119999,33,110000,1,0,0,9999,0.100000,99,0,0.251814,10,1.000000,29.609651,1.520201,99,99,0,1,0,0,0
11,119999,34,110000,1,0,40,9999,0.100000,99,0,0.000000,10,0.000000,26.717470,0.253520,99,99,0,0,0,0,0
11,119999,35,110000,1,0,40,9999,0.100000,99,0,0.000000,10,0.000000,17.249674,0.692571,99,99,0,0,0,0,0
11,119999,36,110000,98,30000,0,9999,0.100000,99,0,0.000342,10,0.000000,20.642723,0.210510,99,99,0,0,0,0,1
11,119999,37,110000,94,30000,40,9999,0.100000,99,0,0.000000,10,0.000000,30.431003,1.236506,99,99,0,0,0,0,0
11,119999,38,110000,84,0,0,9999,0.100000,99,0,0.219516,10,0.000000,17.196201,0.150678,99,99,0,0,0,0,1
11,119999,39,110000,94,30000,0,9999,0.100000,99,0,0.004409,10,0.000000,33.066927,0.083365,99,99,0,0,0,0,1
11,119999,40,110000,13,90000,43,9999,0.100000,99,0,0.000000,10,11.000000,27.937824,12.199410,99,99,0,0,0,0,0
11,119999,41,110000,94,30000,40,9999,0.100000,99,0,0.000000,10,0.000000,31.868286,1.077336,99,99,0,0,0,0,0
11,119999,42,110000,20,20000,0,9999,0.100000,99,0,0.000961,10,0.000000,18.984736,0.102618,99,99,0,0,0,0,1
11,119999,43,110000,82,50000,40,9999,0.100000,99,0,0.000000,10,0.000000,22.637990,0.098794,99,99,0,0,0,0,0
11,119999,44,110000,13,90000,0,9999,0.100000,99,0,0.221358,10,0.000000,23.920396,0.233927,99,99,0,0,0,1,0
11,119999,45,110000,98,30000,0,9999,0.100000,99,0,0.547584,10,0.000000,16.662843,0.251429,99,99,0,0,0,0,1
11,119999,46,110000,82,50000,40,9999,0.100000,99,0,0.000000,10,0.000000,32.715542,0.090407,99,99,0,0,0,0,0
11,119999,47,110000,98,30000,40,9999,0.100000,99,0,0.000000,10,0.000000,26.063416,22.703144,99,99,0,0,0,0,0
11,119999,48,110000,82,50000,0,9999,0.100000,99,0,0.182983,10,0.000000,21.983467,0.090859,99,99,0,0,0,0,1
11,119999,49,110000,91,70000,40,9999,0.100000,99,0,0.000000,10,0.000000,25.967145,1.004610,99,99,0,0,0,0,0
11,119999,50,110000,84,0,40,9999,0.100000,99,0,0.000000,10,0.000000,17.039705,0.366058,99,99,0,0,0,0,0
11,119999,51,110000,1,0,40,9999,0.100000,99,0,0.000000,10,0.000000,32.035098,0.460882,99,99,0,0,0,0,0
11,119999,52,110000,17,20000,40,9999,0.100000,99,0,0.000000,10,0.000000,22.442520,0.243632,99,99,0,0,0,0,0
11,119999,53,110000,84,0,40,9999,0.100000,99,0,0.000000,10,0.000000,28.428025,0.808089,99,99,0,0,0,0,0
11,119999,54,110000,98,30000,40,9999,0.100000,99,0,0.000000,10,0.000000,14.639939,0.975429,99,99,0,0,0,0,0
11,119999,55,110000,98,30000,40,9999,0.100000,99,0,0.000000,10,0.000000,30.885879,0.755385,99,99,0,0,0,0,0
11,119999,56,110000,91,70000,40,9999,0.100000,99,0,0.000000,10,0.000000,22.846551,0.339577,99,99,0,0,0,0,0
11,119999,57,110000,84,0,40,9999,0.100000,99,0,0.000000,10,0.000000,31.861001,1.156956,99,99,0,0,0,0,0
11,119999,58,110000,17,20000,40,9999,0.100000,99,0,0.000000,10,0.000000,32.354778,0.086939,99,99,0,0,0,0,0
11,119999,59,110000,53,0,40,9999,0.100000,99,0,0.000000,10,0.000000,16.859502,0.301361,99,99,0,0,0,0,0
11,119999,60,110000,17,20000,40,9999,0.100000,99,0,0.000000,10,0.000000,26.421198,0.504307,99,99,0,0,0,0,0
11,119999,61,110000,98,30000,40,9999,0.100000,99,0,0.000000,10,0.000000,20.604118,0.471241,99,99,0,0,0,0,0
11,119999,62,110000,17,20000,40,9999,0.100000,99,0,0.000000,10,0.000000,16.453067,0.235080,99,99,0,0,0,0,0
11,119999,63,110000,17,20000,0,9999,0.100000,99,0,0.347294,10,0.000000,23.174751,0.127540,99,99,0,0,0,0,1
11,119999,64,110000,20,20000,40,9999,0.100000,99,0,0.000000,10,0.000000,19.067322,0.425443,99,99,0,0,0,0,0
11,119999,65,110000,82,50000,40,9999,0.100000,99,0,0.000000,10,0.000000,27.192582,0.169231,99,99,0,0,0,0,0
11,119999,66,110000,98,30000,40,9999,0.100000,99,0,0.000000,10,0.000000,20.503316,0.108033,99,99,0,0,0,0,0
11,119999,67,110000,98,30000,40,9999,0.100000,99,0,0.000000,10,0.000000,21.510489,0.572261,99,99,0,0,0,0,0
11,119999,68,110000,13,90000,40,9999,0.100000,99,0,0.000000,10,0.000000,27.080382,0.462624,99,99,0,0,0,0,0
11,119999,69,110000,84,0,40,9999,0.100000,99,0,0.000000,10,3.000000,35.392479,13.411575,99,99,0,0,0,0,0
11,119999,70,110000,53,0,0,9999,0.100000,99,0,0.001070,10,0.000000,22.096749,0.095660,99,99,0,0,0,0,1
11,119999,71,110000,20,20000,40,9999,0.100000,99,0,0.000000,10,0.000000,21.798560,0.158108,99,99,0,0,0,0,0
11,119999,72,110000,17,20000,40,9999,0.100000,99,0,0.000000,10,0.000000,27.275267,0.685180,99,99,0,0,0,0,0
11,119999,73,110000,91,70000,0,9999,0.100000,99,0,0.018201,10,0.000000,18.668035,0.131899,99,99,0,0,0,0,1
11,119999,74,110000,94,30000,40,9999,0.100000,99,0,0.000000,10,0.000000,28.308060,0.840921,99,99,0,0,0,0,0
11,119999,75,110000,82,50000,40,9999,0.100000,99,0,0.000000,10,0.000000,23.927367,0.353035,99,99,0,0,0,0,0
11,119999,76,110000,98,30000,40,9999,0.100000,99,0,0.000000,10,0.000000,31.984725,0.636160,99,99,0,0,0,0,0
11,119999,77,110000,13,90000,40,9999,0.100000,99,0,0.000000,10,0.000000,17.265505,1.174664,99,99,0,0,0,0,0
11,119999,78,110000,91,70000,40,9999,0.100000,99,0,0.000000,10,0.000000,28.790716,1.114090,99,99,0,0,0,0,0
11,119999,79,110000,53,0,40,9999,0.100000,99,0,0.000000,10,0.000000,32.881672,0.093182,99,99,0,0,0,0,0
11,119999,80,110000,82,50000,40,9999,0.100000,99,0,0.000000,10,0.000000,21.843889,0.575784,99,99,0,0,0,0,0
11,119999,81,110000,53,0,0,9999,0.100000,99,0,0.023956,10,0.000000,21.944560,0.224900,99,99,0,0,0,0,1
11,119999,82,110000,91,70000,41,9999,0.100000,99,0,0.000000,10,3.000000,15.157610,10.004059,99,99,0,0,0,0,0
11,119999,83,110000,84,0,40,9999,0.100000,99,0,0.000000,10,0.000000,14.523549,0.170508,99,99,0,0,0,0,0
11,119999,84,110000,91,70000,0,9999,0.100000,99,0,0.646224,10,0.000000,21.585477,0.492570,99,99,0,0,1,0,0
11,119999,85,110000,13,90000,40,9999,0.100000,99,0,0.000000,10,0.000000,30.129920,0.481836,99,99,0,0,0,0,0
11,119999,86,110000,98,30000,0,9999,0.100000,99,0,0.016708,10,0.000000,31.831166,0.118639,99,99,0,0,0,1,0
11,119999,87,110000,94,30000,40,9999,0.100000,99,0,0.000000,10,0.000000,26.844094,0.475014,99,99,0,0,0,0,0
11,119999,88,110000,53,0,40,9999,0.100000,99,0,0.000000,10,0.000000,26.367435,0.690566,99,99,0,0,0,0,0
11,119999,89,110000,94,30000,41,9999,0.100000,99,0,0.000000,10,3.000000,15.036660,6.314751,99,99,0,0,0,0,0
11,119999,90,110000,20,20000,40,9999,0.100000,99,0,0.000000,10,0.000000,15.204363,1.380352,99,99,0,0,0,0,0
