generation,iteration,robot,birthday,ancestor_id,ancestor_birthday,cell_id,age,sigma,maps,genomes,fitness,cells_in_map,dist_max,dist_pot_max,dist_total,com_rx,com_tx,obj_group1,obj_group2,obj_group3,obj_group4,obj_group5
0,9999,0,0,0,0,40,9999,0.100000,99,0,0.000000,0,3.000000,33.245215,12.859160,99,99,0,0,0,0,0
0,9999,1,0,1,0,40,9999,0.100000,99,0,0.000000,0,1.000000,21.465358,4.160435,99,99,0,0,0,0,0
0,9999,2,0,2,0,40,9999,0.100000,99,0,0.000000,0,1.000000,29.875865,5.416629,99,99,0,0,0,0,0
0,9999,3,0,3,0,1,9999,0.100000,99,0,0.219371,0,3.000000,19.259050,12.389150,99,99,0,0,1,0,0
0,9999,4,0,4,0,0,9999,0.100000,99,0,0.054407,0,0.000000,20.381715,0.516812,99,99,0,0,0,0,1
0,9999,5,0,5,0,40,9999,0.100000,99,0,0.000000,0,0.000000,21.926860,7.719575,99,99,0,0,0,0,0
0,9999,6,0,6,0,40,9999,0.100000,99,0,0.000000,0,1.000000,18.768124,15.052277,99,99,0,0,0,0,0
0,9999,7,0,7,0,0,9999,0.100000,99,0,0.226278,0,1.000000,23.341664,4.120700,99,99,0,0,1,0,0
0,9999,8,0,8,0,40,9999,0.100000,99,0,0.000000,0,1.000000,27.647663,5.773691,99,99,0,0,0,0,0
0,9999,9,0,9,0,40,9999,0.100000,99,0,0.000000,0,1.000000,30.262774,12.348648,99,99,0,0,0,0,0
0,9999,10,0,10,0,40,9999,0.100000,99,0,0.000000,0,0.000000,13.667424,6.397281,99,99,0,0,0,0,0
0,9999,11,0,11,0,0,9999,0.100000,99,0,0.091495,0,0.000000,23.438006,1.343068,99,99,0,0,1,0,0
0,9999,12,0,12,0,91,9999,0.100000,99,0,1.059559,0,4.000000,33.239836,7.083373,99,99,1,0,0,0,0
0,9999,13,0,13,0,42,9999,0.100000,99,0,0.000000,0,4.000000,14.522168,15.346711,99,99,0,0,0,0,0
0,9999,14,0,14,0,0,9999,0.100000,99,0,0.413934,0,0.000000,13.023243,1.209960,99,99,0,0,0,0,1
0,9999,15,0,15,0,40,9999,0.100000,99,0,0.000000,0,0.000000,24.342246,0.952097,99,99,0,0,0,0,0
0,9999,16,0,16,0,40,9999,0.100000,99,0,0.000000,0,0.000000,23.371986,0.736086,99,99,0,0,0,0,0
0,9999,17,0,17,0,0,9999,0.100000,99,0,0.732215,0,0.000000,30.799278,3.056583,99,99,0,0,0,1,0
0,9999,18,0,18,0,0,9999,0.100000,99,0,0.016975,0,2.000000,27.184295,2.794470,99,99,0,0,0,1,0
0,9999,19,0,19,0,40,9999,0.100000,99,0,0.000000,0,0.000000,35.401772,2.437082,99,99,0,0,0,0,0
0,9999,20,0,20,0,0,9999,0.100000,99,0,0.107525,0,1.000000,22.461942,5.828013,99,99,0,0,0,0,1
0,9999,21,0,21,0,40,9999,0.100000,99,0,0.000000,0,0.000000,25.988121,0.455496,99,99,0,0,0,0,0
0,9999,22,0,22,0,40,9999,0.100000,99,0,0.000000,0,1.000000,18.345059,6.970320,99,99,0,0,0,0,0
0,9999,23,0,23,0,40,9999,0.100000,99,0,0.000000,0,0.000000,21.884864,1.540761,99,99,0,0,0,0,0
0,9999,24,0,24,0,40,9999,0.100000,99,0,0.000000,0,2.000000,28.792552,9.285931,99,99,0,0,0,0,0
0,9999,25,0,25,0,0,9999,0.100000,99,0,0.002299,0,0.000000,25.250574,0.448238,99,99,0,0,0,0,1
0,9999,26,0,26,0,1,9999,0.100000,99,0,0.072264,0,2.000000,18.405355,3.179566,99,99,0,0,0,0,1
0,9999,27,0,27,0,40,9999,0.100000,99,0,0.000000,0,2.000000,20.523307,6.795026,99,99,0,0,0,0,0
0,9999,28,0,28,0,40,9999,0.100000,99,0,0.000000,0,1.000000,28.124569,7.487007,99,99,0,0,0,0,0
0,9999,29,0,29,0,40,9999,0.100000,99,0,0.000000,0,2.000000,27.456231,10.187343,99,99,0,0,0,0,0
0,9999,30,0,30,0,0,9999,0.100000,99,0,13.287523,0,3.000000,30.819462,4.570314,99,99,0,1,0,0,0
0,9999,31,0,31,0,40,9999,0.100000,99,0,0.000000,0,1.000000,22.963410,5.256822,99,99,0,0,0,0,0
0,9999,32,0,32,0,40,9999,0.100000,99,0,0.000000,0,1.000000,26.791962,7.735541,99,99,0,0,0,0,0
0,9999,33,0,33,0,0,9999,0.100000,99,0,0.000694,0,2.000000,26.046184,6.569150,99,99,0,0,0,0,1
0,9999,34,0,34,0,40,9999,0.100000,99,0,0.000000,0,1.000000,25.081446,15.701251,99,99,0,0,0,0,0
0,9999,35,0,35,0,42,9999,0.100000,99,0,0.000000,0,3.000000,12.319483,8.904725,99,99,0,0,0,0,0
0,9999,36,0,36,0,0,9999,0.100000,99,0,0.002008,0,0.000000,18.645230,1.603353,99,99,0,0,0,0,1
0,9999,37,0,37,0,40,9999,0.100000,99,0,0.000000,0,0.000000,21.940268,3.633436,99,99,0,0,0,0,0
0,9999,38,0,38,0,40,9999,0.100000,99,0,0.000000,0,0.000000,24.300350,10.638059,99,99,0,0,0,0,0
0,9999,39,0,39,0,0,9999,0.100000,99,0,0.319904,0,0.000000,24.741099,1.367953,99,99,0,0,1,0,0
0,9999,40,0,40,0,40,9999,0.100000,99,0,0.000000,0,3.000000,29.688829,12.497561,99,99,0,0,0,0,0
0,9999,41,0,41,0,40,9999,0.100000,99,0,0.000000,0,2.000000,21.697008,10.233495,99,99,0,0,0,0,0
0,9999,42,0,42,0,40,9999,0.100000,99,0,0.000000,0,2.000000,25.352199,13.573461,99,99,0,0,0,0,0
0,9999,43,0,43,0,40,9999,0.100000,99,0,0.000000,0,1.000000,21.141364,7.065070,99,99,0,0,0,0,0
0,9999,44,0,44,0,40,9999,0.100000,99,0,0.000000,0,2.000000,30.155644,5.172924,99,99,0,0,0,0,0
0,9999,45,0,45,0,40,9999,0.100000,99,0,0.000000,0,1.000000,32.961054,5.933576,99,99,0,0,0,0,0
0,9999,46,0,46,0,40,9999,0.100000,99,0,0.000000,0,1.000000,26.772001,7.143444,99,99,0,0,0,0,0
0,9999,47,0,47,0,40,9999,0.100000,99,0,0.000000,0,2.000000,22.403628,6.358827,99,99,0,0,0,0,0
0,9999,48,0,48,0,0,9999,0.100000,99,0,0.476451,0,0.000000,21.198661,1.481586,99,99,0,0,1,0,0
0,9999,49,0,49,0,0,9999,0.100000,99,0,0.001001,0,1.000000,26.015305,3.416999,99,99,0,0,1,0,0
0,9999,50,0,50,0,40,9999,0.100000,99,0,0.000000,0,1.000000,23.473678,24.928663,99,99,0,0,0,0,0
0,9999,51,0,51,0,40,9999,0.100000,99,0,0.000000,0,1.000000,13.453983,4.861789,99,99,0,0,0,0,0
0,9999,52,0,52,0,42,9999,0.100000,99,0,0.000000,0,5.000000,19.121403,19.153685,99,99,0,0,0,0,0
0,9999,53,0,53,0,40,9999,0.100000,99,0,0.000000,0,1.000000,16.083584,2.368675,99,99,0,0,0,0,0
0,9999,54,0,54,0,0,9999,0.100000,99,0,0.028275,0,0.000000,27.507142,2.372660,99,99,0,1,0,0,0
0,9999,55,0,55,0,40,9999,0.100000,99,0,0.000000,0,1.000000,27.686718,5.607162,99,99,0,0,0,0,0
0,9999,56,0,56,0,40,9999,0.100000,99,0,0.000000,0,2.000000,29.140010,12.499257,99,99,0,0,0,0,0
0,9999,57,0,57,0,0,9999,0.100000,99,0,0.733434,0,0.000000,26.565627,1.163843,99,99,0,1,0,0,0
0,9999,58,0,58,0,42,9999,0.100000,99,0,0.000000,0,4.000000,17.507330,17.632133,99,99,0,0,0,0,0
0,9999,59,0,59,0,90,9999,0.100000,99,0,4.525737,0,1.000000,21.684177,18.696204,99,99,1,0,0,0,0
0,9999,60,0,60,0,0,9999,0.100000,99,0,0.058985,0,0.000000,23.669309,3.091973,99,99,0,1,0,0,0
0,9999,61,0,61,0,92,9999,0.100000,99,0,36.427602,0,7.000000,28.462123,12.366688,99,99,1,0,0,0,0
0,9999,62,0,62,0,0,9999,0.100000,99,0,0.006198,0,0.000000,27.361164,0.689455,99,99,0,0,0,0,1
0,9999,63,0,63,0,41,9999,0.100000,99,0,0.000000,0,3.000000,25.627220,9.743219,99,99,0,0,0,0,0
0,9999,64,0,64,0,40,9999,0.100000,99,0,0.000000,0,1.000000,27.917868,21.534299,99,99,0,0,0,0,0
0,9999,65,0,65,0,40,9999,0.100000,99,0,0.000000,0,1.000000,13.551056,3.358936,99,99,0,0,0,0,0
0,9999,66,0,66,0,40,9999,0.100000,99,0,0.000000,0,0.000000,24.988329,0.496806,99,99,0,0,0,0,0
0,9999,67,0,67,0,40,9999,0.100000,99,0,0.000000,0,0.000000,29.629060,1.466106,99,99,0,0,0,0,0
0,9999,68,0,68,0,40,9999,0.100000,99,0,0.000000,0,1.000000,17.580238,6.895058,99,99,0,0,0,0,0
0,9999,69,0,69,0,40,9999,0.100000,99,0,0.000000,0,1.000000,19.334345,8.985708,99,99,0,0,0,0,0
0,9999,70,0,70,0,0,9999,0.100000,99,0,0.808904,0,2.000000,24.707821,5.112807,99,99,0,1,0,0,0
0,9999,71,0,71,0,40,9999,0.100000,99,0,0.000000,0,1.000000,25.720687,11.141493,99,99,0,0,0,0,0
0,9999,72,0,72,0,1,9999,0.100000,99,0,0.424073,0,7.000000,33.300644,14.748132,99,99,0,0,0,1,0
0,9999,73,0,73,0,40,9999,0.100000,99,0,0.000000,0,2.000000,25.155857,10.348862,99,99,0,0,0,0,0
0,9999,74,0,74,0,40,9999,0.100000,99,0,0.000000,0,2.000000,27.055791,8.785426,99,99,0,0,0,0,0
0,9999,75,0,75,0,40,9999,0.100000,99,0,0.000000,0,1.000000,30.974509,13.347677,99,99,0,0,0,0,0
0,9999,76,0,76,0,0,9999,0.100000,99,0,0.044625,0,0.000000,25.420765,1.021934,99,99,0,1,0,0,0
0,9999,77,0,77,0,40,9999,0.100000,99,0,0.000000,0,2.000000,23.852076,11.339885,99,99,0,0,0,0,0
0,9999,78,0,78,0,40,9999,0.100000,99,0,0.000000,0,0.000000,24.968300,4.279453,99,99,0,0,0,0,0
0,9999,79,0,79,0,40,9999,0.100000,99,0,0.000000,0,1.000000,25.743570,3.936557,99,99,0,0,0,0,0
0,9999,80,0,80,0,40,9999,0.100000,99,0,0.000000,0,2.000000,29.428073,6.087472,99,99,0,0,0,0,0
0,9999,81,0,81,0,40,9999,0.100000,99,0,0.000000,0,0.000000,31.576144,1.084383,99,99,0,0,0,0,0
0,9999,82,0,82,0,40,9999,0.100000,99,0,0.000000,0,1.000000,29.200261,7.311619,99,99,0,0,0,0,0
0,9999,83,0,83,0,0,9999,0.100000,99,0,1.677161,0,0.000000,25.337536,1.550846,99,99,0,1,0,0,0
0,9999,84,0,84,0,40,9999,0.100000,99,0,0.000000,0,1.000000,32.083931,6.456628,99,99,0,0,0,0,0
0,9999,85,0,85,0,40,9999,0.100000,99,0,0.000000,0,1.000000,24.154858,12.332819,99,99,0,0,0,0,0
0,9999,86,0,86,0,41,9999,0.100000,99,0,0.000000,0,2.000000,16.161980,7.796536,99,99,0,0,0,0,0
0,9999,87,0,87,0,40,9999,0.100000,99,0,0.000000,0,1.000000,25.883639,11.871142,99,99,0,0,0,0,0
0,9999,88,0,88,0,0,9999,0.100000,99,0,0.812461,0,0.000000,29.085073,1.571095,99,99,0,0,1,0,0
0,9999,89,0,89,0,41,9999,0.100000,99,0,37.913763,0,6.000000,32.027256,16.436403,99,99,1,1,0,0,0
0,9999,90,0,90,0,40,9999,0.100000,99,0,0.000000,0,2.000000,26.909465,9.105789,99,99,0,0,0,0,0
0,9999,91,0,91,0,0,9999,0.100000,99,0,1.681967,0,1.000000,18.905055,2.626133,99,99,0,0,0,1,0
0,9999,92,0,92,0,40,9999,0.100000,99,0,0.000000,0,2.000000,25.952429,7.317059,99,99,0,0,0,0,0
0,9999,93,0,93,0,40,9999,0.100000,99,0,0.000000,0,2.000000,27.404885,9.483374,99,99,0,0,0,0,0
0,9999,94,0,94,0,40,9999,0.100000,99,0,0.000000,0,3.000000,28.766460,15.721047,99,99,0,0,0,0,0
0,9999,95,0,95,0,0,9999,0.100000,99,0,1.750746,0,0.000000,28.836666,0.659080,99,99,0,0,0,1,0
0,9999,96,0,96,0,43,9999,0.100000,99,0,0.000000,0,10.000000,30.860009,25.476427,99,99,0,0,0,0,0
0,9999,97,0,97,0,40,9999,0.100000,99,0,0.000000,0,2.000000,23.441726,14.011819,99,99,0,0,0,0,0
0,9999,98,0,98,0,0,9999,0.100000,99,0,5.884506,0,1.000000,23.000000,1.581894,99,99,0,1,0,0,0
0,9999,99,0,99,0,0,9999,0.100000,99,0,0.077286,0,0.000000,28.757148,0.826864,99,99,0,0,0,1,0
1,19999,0,0,0,0,40,19999,0.100000,99,0,0.000000,1,2.000000,36.008581,12.846297,99,99,0,0,0,0,0
1,19999,1,10000,0,0,40,9999,0.100000,99,0,0.000000,1,0.000000,20.168529,0.685217,99,99,0,0,0,0,0
1,19999,2,10000,52,0,0,9999,0.100000,99,0,0.000000,7,1.000000,29.943720,5.468611,99,99,0,0,1,0,0
1,19999,3,10000,30,0,0,9999,0.100000,99,0,3.909660,7,2.000000,22.566306,3.999998,99,99,0,0,1,0,0
1,19999,4,10000,3,0,0,9999,0.100000,99,0,0.228255,7,0.000000,20.250045,0.129443,99,99,0,0,0,0,1
1,19999,5,10000,72,0,40,9999,0.100000,99,0,0.000000,10,1.000000,21.502741,1.760619,99,99,0,0,0,0,0
1,19999,6,10000,89,0,40,9999,0.100000,99,0,0.000000,10,0.000000,18.051061,2.473305,99,99,0,0,0,0,0
1,19999,7,10000,17,0,0,9999,0.100000,99,0,0.601599,3,0.000000,23.271236,0.389598,99,99,0,0,1,0,0
1,19999,8,10000,59,0,40,9999,0.100000,99,0,0.000000,7,2.000000,28.682451,5.095842,99,99,0,0,0,0,0
1,19999,9,10000,38,0,40,9999,0.100000,99,0,0.000000,7,0.000000,29.220188,22.546581,99,99,0,0,0,0,0
1,19999,10,10000,17,0,43,9999,0.100000,99,0,0.000000,7,5.000000,13.723653,13.984342,99,99,0,0,0,0,0
1,19999,11,10000,17,0,0,9999,0.100000,99,0,0.631560,3,0.000000,23.572596,0.612148,99,99,0,0,1,0,0
1,19999,12,10000,59,0,91,9999,0.100000,99,0,18.066311,8,5.000000,29.924260,13.166280,99,99,1,0,-1,0,0
1,19999,13,10000,12,0,41,9999,0.100000,99,0,0.000000,8,2.000000,13.325699,6.587406,99,99,0,0,0,0,0
1,19999,14,10000,61,0,0,9999,0.100000,99,0,0.213603,7,0.000000,13.209819,1.090325,99,99,0,0,0,0,1
1,19999,15,10000,12,0,40,9999,0.100000,99,0,0.000000,8,1.000000,24.207445,3.035934,99,99,0,0,0,0,0
1,19999,16,10000,52,0,40,9999,0.100000,99,0,0.000000,10,1.000000,23.622089,3.703717,99,99,0,0,0,0,0
1,19999,17,10000,0,0,0,9999,0.100000,99,0,0.345054,2,0.000000,30.556243,0.350426,99,99,0,0,0,1,0
1,19999,18,10000,30,0,0,9999,0.100000,99,0,0.875830,10,0.000000,27.580484,0.373593,99,99,0,0,0,1,0
1,19999,19,10000,12,0,40,9999,0.100000,99,0,0.000000,10,2.000000,35.847444,11.284120,99,99,0,0,0,0,0
1,19999,20,10000,12,0,0,9999,0.100000,99,0,0.380359,8,0.000000,22.575099,0.248533,99,99,0,0,0,0,1
1,19999,21,0,21,0,40,19999,0.100000,99,0,0.000000,3,0.000000,26.184597,0.118648,99,99,0,0,0,0,0
1,19999,22,10000,52,0,40,9999,0.100000,99,0,0.000000,7,1.000000,17.231339,13.906011,99,99,0,0,0,0,0
1,19999,23,10000,38,0,40,9999,0.100000,99,0,0.000000,10,0.000000,21.882750,0.373668,99,99,0,0,0,0,0
1,19999,24,10000,59,0,40,9999,0.100000,99,0,0.000000,8,0.000000,29.823170,3.082049,99,99,0,0,0,0,0
1,19999,25,10000,61,0,0,9999,0.100000,99,0,0.002037,10,0.000000,25.235740,0.117367,99,99,0,0,0,0,1
1,19999,26,10000,17,0,40,9999,0.100000,99,0,0.000000,3,0.000000,16.623411,0.551657,99,99,0,0,0,0,0
1,19999,27,10000,26,0,40,9999,0.100000,99,0,0.000000,3,0.000000,21.655377,2.711391,99,99,0,0,0,0,0
1,19999,28,10000,58,0,40,9999,0.100000,99,0,0.000000,10,1.000000,29.629938,9.083798,99,99,0,0,0,0,0
1,19999,29,10000,17,0,42,9999,0.100000,99,0,0.000000,3,7.000000,27.823647,15.468964,99,99,0,0,0,0,0
1,19999,30,10000,30,0,0,9999,0.100000,99,0,3.872263,7,0.000000,33.551827,1.277684,99,99,0,1,0,0,0
1,19999,31,10000,63,0,2,9999,0.100000,99,0,36.620502,7,5.000000,23.304779,14.819204,99,99,0,1,0,0,0
1,19999,32,10000,26,0,0,9999,0.100000,99,0,0.413508,3,0.000000,28.629933,0.580859,99,99,0,0,0,1,0
1,19999,33,10000,38,0,0,9999,0.100000,99,0,0.001218,10,0.000000,26.886413,0.094671,99,99,0,0,0,0,1
1,19999,34,10000,63,0,40,9999,0.100000,99,0,0.000000,8,0.000000,23.426189,3.751959,99,99,0,0,0,0,0
1,19999,35,10000,17,0,41,9999,0.100000,99,0,0.000000,4,2.000000,12.993684,5.418585,99,99,0,0,0,0,0
1,19999,36,10000,38,0,0,9999,0.100000,99,0,0.006258,8,0.000000,17.984264,1.587312,99,99,0,0,0,0,1
1,19999,37,10000,63,0,3,9999,0.100000,99,0,38.238385,7,8.000000,22.858338,22.825502,99,99,0,1,-1,0,0
1,19999,38,10000,38,0,0,9999,0.100000,99,0,0.098973,3,1.000000,24.555090,5.500375,99,99,0,0,0,1,0
1,19999,39,10000,38,0,0,9999,0.100000,99,0,2.058919,8,0.000000,25.531598,0.866156,99,99,0,0,1,0,0
1,19999,40,10000,3,0,0,9999,0.100000,99,0,0.000000,10,2.000000,28.378780,10.763531,99,99,0,0,1,0,0
1,19999,41,10000,26,0,41,9999,0.100000,99,0,0.000000,4,3.000000,22.885273,5.160000,99,99,0,0,0,0,0
1,19999,42,10000,3,0,40,9999,0.100000,99,0,0.000000,10,0.000000,25.707508,0.708764,99,99,0,0,0,0,0
1,19999,43,10000,17,0,41,9999,0.100000,99,0,0.000000,3,3.000000,22.188952,10.454753,99,99,0,0,0,0,0
1,19999,44,10000,96,0,40,9999,0.100000,99,0,0.000000,10,0.000000,29.209667,0.613809,99,99,0,0,0,0,0
1,19999,45,10000,26,0,40,9999,0.100000,99,0,0.000000,7,1.000000,34.109161,7.407274,99,99,0,0,0,0,0
1,19999,46,10000,12,0,40,9999,0.100000,99,0,0.000000,10,1.000000,26.268273,12.538563,99,99,0,0,0,0,0
1,19999,47,10000,17,0,41,9999,0.100000,99,0,0.000000,4,3.000000,22.730062,4.613631,99,99,0,0,0,0,0
1,19999,48,10000,12,0,0,9999,0.100000,99,0,0.529663,8,0.000000,21.764223,0.596388,99,99,0,0,1,0,0
1,19999,49,10000,61,0,0,9999,0.100000,99,0,0.000787,7,0.000000,25.916375,0.117442,99,99,0,0,1,0,0
1,19999,50,10000,38,0,2,9999,0.100000,99,0,37.320888,10,5.000000,23.547669,19.414412,99,99,0,1,0,0,0
1,19999,51,10000,59,0,43,9999,0.100000,99,0,0.000000,10,4.000000,11.984698,8.992247,99,99,0,0,0,0,0
1,19999,52,10000,52,0,40,9999,0.100000,99,0,0.000000,4,0.000000,21.328435,1.852494,99,99,0,0,0,0,0
1,19999,53,10000,96,0,40,9999,0.100000,99,0,0.000000,10,0.000000,17.115630,0.166676,99,99,0,0,0,0,0
1,19999,54,10000,17,0,0,9999,0.100000,99,0,1.920673,3,0.000000,27.088039,0.300123,99,99,0,1,0,0,0
1,19999,55,10000,52,0,41,9999,0.100000,99,0,0.000000,7,4.000000,26.837435,18.722269,99,99,0,0,0,0,0
1,19999,56,10000,52,0,40,9999,0.100000,99,0,0.000000,7,3.000000,29.900303,20.423669,99,99,0,0,0,0,0
1,19999,57,10000,59,0,0,9999,0.100000,99,0,0.195760,7,0.000000,26.241079,0.138306,99,99,0,1,0,0,0
1,19999,58,10000,72,0,41,9999,0.100000,99,0,0.000000,10,2.000000,14.261584,4.872191,99,99,0,0,0,0,0
1,19999,59,10000,26,0,90,9999,0.100000,99,0,0.002229,5,0.000000,22.765174,14.923778,99,99,1,0,0,0,0
1,19999,60,10000,3,0,42,9999,0.100000,99,0,37.934301,10,7.000000,23.547630,13.580289,99,99,0,1,1,0,0
1,19999,61,10000,52,0,40,9999,0.100000,99,0,0.000000,6,2.000000,32.265315,15.157294,99,99,0,0,0,0,0
1,19999,62,10000,38,0,0,9999,0.100000,99,0,0.028566,3,0.000000,27.551869,0.159270,99,99,0,0,0,0,1
1,19999,63,10000,38,0,40,9999,0.100000,99,0,0.000000,7,0.000000,23.845493,0.998959,99,99,0,0,0,0,0
1,19999,64,10000,96,0,40,9999,0.100000,99,0,0.000000,10,0.000000,28.973126,20.741940,99,99,0,0,0,0,0
1,19999,65,10000,63,0,40,9999,0.100000,99,0,0.000000,8,0.000000,13.065339,1.517515,99,99,0,0,0,0,0
1,19999,66,10000,63,0,40,9999,0.135000,99,0,0.000000,10,0.000000,24.793007,0.744831,99,99,0,0,0,0,0
1,19999,67,10000,52,0,40,9999,0.100000,99,0,0.000000,7,0.000000,30.074275,0.851215,99,99,0,0,0,0,0
1,19999,68,10000,26,0,40,9999,0.100000,99,0,0.000000,3,0.000000,16.779566,1.562701,99,99,0,0,0,0,0
1,19999,69,10000,38,0,0,9999,0.100000,99,0,0.033200,7,0.000000,19.096531,0.894917,99,99,0,0,1,0,0
1,19999,70,10000,61,0,2,9999,0.100000,99,0,37.310774,8,7.000000,22.906090,8.223944,99,99,0,1,0,0,0
1,19999,71,10000,72,0,41,9999,0.100000,99,0,0.000000,10,5.000000,24.635441,16.521807,99,99,0,0,0,0,0
1,19999,72,10000,12,0,40,9999,0.100000,99,0,0.000000,9,0.000000,27.982667,0.854930,99,99,0,0,0,0,0
1,19999,73,10000,61,0,40,9999,0.100000,99,0,0.000000,7,0.000000,22.772069,0.444477,99,99,0,0,0,0,0
1,19999,74,10000,59,0,40,9999,0.100000,99,0,0.000000,10,0.000000,27.362241,0.607687,99,99,0,0,0,0,0
1,19999,75,10000,38,0,40,9999,0.100000,99,0,0.000000,10,3.000000,31.969360,7.076631,99,99,0,0,0,0,0
1,19999,76,10000,38,0,0,9999,0.100000,99,0,0.237978,7,0.000000,25.330335,0.158318,99,99,0,1,0,0,0
1,19999,77,10000,3,0,40,9999,0.100000,99,0,0.000000,10,2.000000,25.623049,12.987082,99,99,0,0,0,0,0
1,19999,78,0,78,0,0,19999,0.100000,99,0,3.426963,3,0.000000,25.707217,2.063226,99,99,0,1,0,0,0
1,19999,79,10000,17,0,40,9999,0.100000,99,0,0.000000,7,0.000000,25.896034,0.591131,99,99,0,0,0,0,0
1,19999,80,10000,12,0,40,9999,0.100000,99,0,0.000000,9,0.000000,29.960985,1.290625,99,99,0,0,0,0,0
1,19999,81,10000,63,0,0,9999,0.100000,99,0,0.133226,9,0.000000,31.096191,1.683879,99,99,0,0,0,1,0
1,19999,82,10000,59,0,0,9999,0.100000,99,0,3.287413,7,3.000000,29.134599,11.058782,99,99,0,0,1,0,0
1,19999,83,10000,86,0,40,9999,0.100000,99,0,0.000000,10,0.000000,25.881576,2.329342,99,99,0,0,0,0,0
1,19999,84,10000,12,0,40,9999,0.100000,99,0,0.000000,10,0.000000,33.325730,1.071389,99,99,0,0,0,0,0
1,19999,85,10000,63,0,42,9999,0.100000,99,0,0.000000,7,7.000000,22.960796,7.653220,99,99,0,0,0,0,0
1,19999,86,10000,96,0,44,9999,0.100000,99,0,0.000000,10,8.000000,15.523081,17.353747,99,99,0,0,0,0,0
1,19999,87,10000,61,0,40,9999,0.100000,99,0,0.000000,10,0.000000,25.159904,10.221973,99,99,0,0,0,0,0
1,19999,88,10000,52,0,40,9999,0.100000,99,0,0.000000,9,1.000000,29.275764,1.604536,99,99,0,0,0,0,0
1,19999,89,10000,72,0,41,9999,0.100000,99,0,0.000000,10,5.000000,34.864561,10.581800,99,99,0,0,0,0,0
1,19999,90,10000,26,0,42,9999,0.100000,99,0,0.000000,7,7.000000,29.025354,12.605105,99,99,0,0,0,0,0
1,19999,91,10000,52,0,0,9999,0.100000,99,0,1.089972,7,0.000000,20.367334,0.348556,99,99,0,0,0,1,0
1,19999,92,10000,26,0,40,9999,0.100000,99,0,0.000000,3,0.000000,28.296399,0.272091,99,99,0,0,0,0,0
1,19999,93,10000,72,0,41,9999,0.100000,99,0,0.000000,10,4.000000,28.686934,10.088342,99,99,0,0,0,0,0
1,19999,94,10000,59,0,40,9999,0.100000,99,0,0.000000,10,3.000000,29.230262,13.600827,99,99,0,0,0,0,0
1,19999,95,10000,30,0,0,9999,0.100000,99,0,0.299870,10,0.000000,28.862779,0.410459,99,99,0,0,0,1,0
1,19999,96,10000,96,0,41,9999,0.100000,99,0,0.000000,10,4.000000,28.581410,23.765992,99,99,0,0,0,0,0
1,19999,97,10000,38,0,40,9999,0.100000,99,0,0.000000,10,2.000000,25.130991,4.320440,99,99,0,0,0,0,0
1,19999,98,10000,38,0,0,9999,0.100000,99,0,0.191077,10,1.000000,22.625759,13.709765,99,99,0,0,0,0,1
1,19999,99,10000,38,0,0,9999,0.100000,99,0,0.045598,7,0.000000,28.242083,0.188029,99,99,0,0,0,1,0
2,29999,0,20000,12,10000,40,9999,0.100000,99,0,0.000000,10,0.000000,35.867613,12.190240,99,99,0,0,0,0,0
2,29999,1,20000,96,0,40,9999,0.100000,99,0,0.000000,10,0.000000,20.536863,1.098497,99,99,0,0,0,0,0
2,29999,2,20000,12,0,40,9999,0.100000,99,0,0.000000,10,0.000000,30.135302,0.773113,99,99,0,0,0,0,0
2,29999,3,20000,58,0,0,9999,0.100000,99,0,6.902867,10,1.000000,24.554544,1.780330,99,99,0,0,1,0,0
2,29999,4,20000,37,10000,0,9999,0.100000,99,0,0.104451,10,0.000000,20.303690,0.103885,99,99,0,0,0,0,1
2,29999,5,20000,89,0,40,9999,0.100000,99,0,0.000000,10,0.000000,21.061122,0.087181,99,99,0,0,0,0,0
2,29999,6,20000,59,0,40,9999,0.100000,99,0,0.000000,10,1.000000,18.371416,5.445707,99,99,0,0,0,0,0
2,29999,7,20000,61,0,0,9999,0.100000,99,0,8.271066,10,1.000000,23.212992,1.878469,99,99,0,0,1,0,0
2,29999,8,20000,59,0,40,9999,0.100000,99,0,0.000000,10,0.000000,27.883429,1.754043,99,99,0,0,0,0,0
2,29999,9,20000,96,0,40,9999,0.100000,99,0,0.000000,10,0.000000,29.170808,12.496480,99,99,0,0,0,0,0
2,29999,10,20000,96,0,40,9999,0.100000,99,0,0.000000,10,0.000000,19.152576,0.576400,99,99,0,0,0,0,0
2,29999,11,20000,59,0,0,9999,0.100000,99,0,15.229382,10,2.000000,23.623838,3.031739,99,99,0,0,1,0,0
2,29999,12,20000,61,0,40,9999,0.100000,99,0,0.000000,10,1.000000,29.871699,8.532344,99,99,0,0,0,0,0
2,29999,13,20000,59,0,40,9999,0.100000,99,0,0.000000,10,0.000000,13.057888,1.039191,99,99,0,0,0,0,0
2,29999,14,20000,59,0,0,9999,0.100000,99,0,0.206705,10,0.000000,13.308834,1.037924,99,99,0,0,0,0,1
2,29999,15,20000,59,0,40,9999,0.100000,99,0,0.000000,10,0.000000,22.878133,1.975206,99,99,0,0,0,0,0
2,29999,16,20000,12,10000,0,9999,0.100000,99,0,3.844617,10,0.000000,24.644635,1.898938,99,99,0,0,0,1,0
2,29999,17,20000,89,0,40,9999,0.135000,99,0,0.000000,10,0.000000,30.614296,3.175490,99,99,0,0,0,0,0
2,29999,18,20000,50,10000,43,9999,0.100000,99,0,0.000000,10,9.000000,27.745993,19.656236,99,99,0,0,0,0,0
2,29999,19,20000,1,10000,41,9999,0.100000,99,0,0.000000,10,4.000000,34.026887,9.042567,99,99,0,0,0,0,0
2,29999,20,20000,37,10000,0,9999,0.100000,99,0,0.154237,10,0.000000,22.449865,0.117036,99,99,0,0,0,0,1
2,29999,21,20000,12,10000,0,9999,0.100000,99,0,0.693352,10,0.000000,26.181371,0.209086,99,99,0,0,1,0,0
2,29999,22,20000,96,0,97,9999,0.100000,99,0,73.342991,10,13.000000,16.929116,22.264121,99,99,1,0,0,0,0
2,29999,23,20000,61,0,40,9999,0.100000,99,0,0.000000,10,0.000000,21.838000,0.415342,99,99,0,0,0,0,0
2,29999,24,20000,89,0,40,9999,0.100000,99,0,0.000000,10,1.000000,29.950798,3.811769,99,99,0,0,0,0,0
2,29999,25,20000,61,0,0,9999,0.100000,99,0,0.065180,10,0.000000,25.236305,0.119633,99,99,0,0,0,0,1
2,29999,26,20000,3,0,40,9999,0.100000,99,0,0.000000,10,0.000000,16.479483,0.625535,99,99,0,0,0,0,0
2,29999,27,20000,61,0,40,9999,0.100000,99,0,0.000000,10,0.000000,21.763255,2.994883,99,99,0,0,0,0,0
2,29999,28,20000,61,0,40,9999,0.100000,99,0,0.000000,10,2.000000,29.245702,5.469232,99,99,0,0,0,0,0
2,29999,29,20000,1,10000,0,9999,0.100000,99,0,0.777470,10,0.000000,27.989038,0.285515,99,99,0,0,0,1,0
2,29999,30,20000,1,10000,0,9999,0.100000,99,0,2.132712,10,0.000000,33.357308,0.888561,99,99,0,1,0,0,0
2,29999,31,20000,1,10000,40,9999,0.100000,99,0,0.000000,10,1.000000,28.968466,9.390014,99,99,0,0,0,0,0
2,29999,32,20000,96,0,0,9999,0.100000,99,0,2.785197,10,0.000000,28.683342,0.788680,99,99,0,0,0,1,0
2,29999,33,20000,58,0,0,9999,0.100000,99,0,0.001756,10,0.000000,26.887113,0.097120,99,99,0,0,0,0,1
2,29999,34,20000,96,0,40,9999,0.100000,99,0,0.000000,10,2.000000,23.456298,3.574792,99,99,0,0,0,0,0
2,29999,35,20000,38,0,40,9999,0.100000,99,0,0.000000,10,0.000000,15.711097,6.060345,99,99,0,0,0,0,0
2,29999,36,20000,1,10000,0,9999,0.100000,99,0,0.008623,10,0.000000,17.932862,0.084496,99,99,0,0,0,0,1
2,29999,37,20000,59,0,40,9999,0.100000,99,0,0.000000,10,3.000000,29.447488,4.523784,99,99,0,0,0,0,0
2,29999,38,20000,37,10000,40,9999,0.100000,99,0,0.000000,10,0.000000,24.662949,1.654326,99,99,0,0,0,0,0
2,29999,39,20000,58,0,1,9999,0.100000,99,0,27.864317,10,5.000000,26.131906,13.529979,99,99,0,0,1,0,0
2,29999,40,20000,89,0,40,9999,0.100000,99,0,0.000000,10,2.000000,29.665070,5.227828,99,99,0,0,0,0,0
2,29999,41,20000,58,0,40,9999,0.100000,99,0,0.000000,10,1.000000,25.120060,1.569322,99,99,0,0,0,0,0
2,29999,42,20000,96,0,1,9999,0.100000,99,0,28.053910,10,5.000000,26.241129,12.909166,99,99,0,0,2,0,0
2,29999,43,20000,12,10000,40,9999,0.100000,99,0,0.000000,10,0.000000,24.696181,1.407397,99,99,0,0,0,0,0
2,29999,44,20000,3,0,40,9999,0.100000,99,0,0.000000,10,0.000000,29.288345,0.881186,99,99,0,0,0,0,0
2,29999,45,20000,58,0,40,9999,0.100000,99,0,0.000000,10,0.000000,33.644055,13.969679,99,99,0,0,0,0,0
2,29999,46,20000,59,0,40,9999,0.100000,99,0,0.000000,10,1.000000,25.422119,4.414080,99,99,0,0,0,0,0
2,29999,47,20000,72,0,40,9999,0.100000,99,0,0.000000,10,1.000000,24.859166,1.510207,99,99,0,0,0,0,0
2,29999,48,20000,96,0,0,9999,0.100000,99,0,0.677016,10,0.000000,21.873987,0.637346,99,99,0,0,1,0,0
2,29999,49,20000,96,0,40,9999,0.100000,99,0,0.000000,10,0.000000,25.912982,0.220989,99,99,0,0,0,0,0
2,29999,50,20000,58,0,40,9999,0.100000,99,0,0.000000,10,3.000000,28.937372,17.988325,99,99,0,0,0,0,0
2,29999,51,20000,59,0,0,9999,0.100000,99,0,0.026321,10,0.000000,15.136478,3.235805,99,99,0,0,0,0,1
2,29999,52,20000,50,10000,40,9999,0.100000,99,0,0.000000,11,0.000000,21.931901,0.088108,99,99,0,0,0,0,0
2,29999,53,20000,96,0,40,9999,0.100000,99,0,0.000000,11,0.000000,17.111991,1.345855,99,99,0,0,0,0,0
2,29999,54,20000,12,10000,0,9999,0.100000,99,0,0.653533,10,0.000000,27.024155,1.776006,99,99,0,1,0,0,0
2,29999,55,20000,3,0,41,9999,0.100000,99,0,0.000000,10,3.000000,24.099563,13.737635,99,99,0,0,0,0,0
2,29999,56,20000,58,0,40,9999,0.100000,99,0,0.000000,10,0.000000,26.974586,6.016361,99,99,0,0,0,0,0
2,29999,57,20000,89,0,0,9999,0.100000,99,0,1.448071,10,0.000000,26.194088,1.159497,99,99,0,1,0,0,0
2,29999,58,20000,12,10000,40,9999,0.100000,99,0,0.000000,10,0.000000,15.853810,1.828892,99,99,0,0,0,0,0
2,29999,59,20000,30,0,40,9999,0.100000,99,0,0.000000,10,0.000000,22.845819,2.381184,99,99,0,0,0,0,0
2,29999,60,20000,60,10000,40,9999,0.100000,99,0,0.000000,10,0.000000,29.231481,0.297411,99,99,0,0,0,0,0
2,29999,61,20000,58,0,40,9999,0.100000,99,0,0.000000,10,2.000000,30.205158,8.667038,99,99,0,0,0,0,0
2,29999,62,20000,89,0,0,9999,0.100000,99,0,0.026899,10,0.000000,27.550310,0.157609,99,99,0,0,0,0,1
2,29999,63,20000,61,0,41,9999,0.100000,99,0,0.000000,10,4.000000,23.884338,11.566058,99,99,0,0,0,0,0
2,29999,64,20000,37,10000,40,9999,0.100000,99,0,0.000000,10,0.000000,28.784827,12.957221,99,99,0,0,0,0,0
2,29999,65,20000,3,0,40,9999,0.100000,99,0,0.000000,10,0.000000,13.181144,1.203691,99,99,0,0,0,0,0
2,29999,66,20000,37,10000,40,9999,0.100000,99,0,0.000000,10,0.000000,24.677925,1.733443,99,99,0,0,0,0,0
2,29999,67,20000,1,10000,0,9999,0.100000,99,0,4.420356,10,0.000000,30.179856,1.090628,99,99,0,0,0,1,0
2,29999,68,20000,89,0,40,9999,0.100000,99,0,0.000000,11,0.000000,16.628462,0.965542,99,99,0,0,0,0,0
2,29999,69,20000,37,10000,0,9999,0.100000,99,0,1.498941,10,0.000000,19.244488,0.421815,99,99,0,0,1,0,0
2,29999,70,20000,37,10000,40,9999,0.100000,99,0,0.000000,10,0.000000,28.250283,1.003966,99,99,0,0,0,0,0
2,29999,71,20000,12,10000,40,9999,0.100000,99,0,0.000000,10,0.000000,28.392264,0.872061,99,99,0,0,0,0,0
2,29999,72,20000,1,10000,40,9999,0.100000,99,0,0.000000,10,0.000000,28.015964,1.819816,99,99,0,0,0,0,0
2,29999,73,20000,58,0,40,9999,0.100000,99,0,0.000000,10,0.000000,22.659005,0.097942,99,99,0,0,0,0,0
2,29999,74,20000,89,0,40,9999,0.100000,99,0,0.000000,10,0.000000,27.524396,0.645814,99,99,0,0,0,0,0
2,29999,75,20000,72,0,40,9999,0.100000,99,0,0.000000,10,0.000000,30.392380,1.001166,99,99,0,0,0,0,0
2,29999,76,20000,59,0,0,9999,0.100000,99,0,0.001854,10,0.000000,25.314333,0.209638,99,99,0,1,0,0,0
2,29999,77,20000,89,0,40,9999,0.100000,99,0,0.000000,10,1.000000,25.307445,6.492941,99,99,0,0,0,0,0
2,29999,78,20000,96,0,2,9999,0.100000,99,0,2.307843,11,6.000000,26.432149,14.023590,99,99,0,1,0,0,0
2,29999,79,20000,12,10000,1,9999,0.100000,99,0,27.864317,10,5.000000,26.356568,15.047050,99,99,0,0,1,0,0
2,29999,80,20000,50,10000,40,9999,0.100000,99,0,0.000000,11,0.000000,30.100359,2.111008,99,99,0,0,0,0,0
2,29999,81,20000,12,10000,0,9999,0.100000,99,0,0.409689,10,0.000000,31.034130,0.309385,99,99,0,0,0,1,0
2,29999,82,20000,89,0,40,9999,0.100000,99,0,0.000000,10,0.000000,30.415383,1.038617,99,99,0,0,0,0,0
2,29999,83,20000,30,0,40,9999,0.100000,99,0,0.000000,10,0.000000,26.422478,2.826376,99,99,0,0,0,0,0
2,29999,84,20000,59,0,40,9999,0.100000,99,0,0.000000,10,0.000000,33.126110,0.747810,99,99,0,0,0,0,0
2,29999,85,20000,96,0,0,9999,0.100000,99,0,2.190230,10,0.000000,28.006369,0.841997,99,99,0,1,0,0,0
2,29999,86,20000,1,10000,40,9999,0.100000,99,0,0.000000,11,0.000000,15.289680,1.976174,99,99,0,0,0,0,0
2,29999,87,20000,89,0,40,9999,0.100000,99,0,0.000000,10,1.000000,24.938038,6.335190,99,99,0,0,0,0,0
2,29999,88,20000,1,10000,0,9999,0.100000,99,0,0.010180,10,1.000000,30.429381,1.212461,99,99,0,0,1,0,0
2,29999,89,20000,58,0,40,9999,0.100000,99,0,0.000000,10,0.000000,30.872954,0.383455,99,99,0,0,0,0,0
2,29999,90,20000,3,0,41,9999,0.100000,99,0,0.000000,10,4.000000,24.312083,4.169947,99,99,0,0,0,0,0
2,29999,91,20000,58,0,0,9999,0.100000,99,0,2.728418,10,0.000000,20.564615,0.568758,99,99,0,0,0,1,0
2,29999,92,20000,61,0,40,9999,0.100000,99,0,0.000000,10,0.000000,28.457846,0.286924,99,99,0,0,0,0,0
2,29999,93,20000,60,10000,40,9999,0.100000,99,0,0.000000,10,0.000000,24.827291,2.016380,99,99,0,0,0,0,0
2,29999,94,20000,59,0,40,9999,0.100000,99,0,0.000000,10,0.000000,27.492886,5.023813,99,99,0,0,0,0,0
2,29999,95,20000,30,0,0,9999,0.100000,99,0,0.138231,10,0.000000,28.979054,0.775852,99,99,0,0,0,1,0
2,29999,96,20000,37,10000,42,9999,0.100000,99,0,0.000000,10,7.000000,26.456608,12.379652,99,99,0,0,0,0,0
2,29999,97,20000,37,10000,40,9999,0.100000,99,0,0.000000,10,2.000000,23.734155,3.015369,99,99,0,0,0,0,0
2,29999,98,20000,58,0,0,9999,0.100000,99,0,2.242418,10,0.000000,22.981769,0.543162,99,99,0,0,0,0,1
2,29999,99,20000,61,0,0,9999,0.100000,99,0,1.327007,10,0.000000,28.177494,0.484234,99,99,0,0,0,1,0
3,39999,0,30000,61,0,40,9999,0.100000,99,0,0.000000,11,2.000000,35.463357,7.282298,99,99,0,0,0,0,0
3,39999,1,30000,60,10000,0,9999,0.100000,99,0,0.000608,12,0.000000,21.154843,1.114766,99,99,0,0,0,1,0
3,39999,2,30000,1,10000,40,9999,0.100000,99,0,0.000000,11,0.000000,30.344210,0.810678,99,99,0,0,0,0,0
3,39999,3,30000,61,0,0,9999,0.100000,99,0,2.315196,12,0.000000,25.345556,0.998438,99,99,0,0,1,0,0
3,39999,4,30000,30,0,0,9999,0.100000,99,0,0.173852,12,0.000000,20.334413,0.412498,99,99,0,0,0,0,1
3,39999,5,30000,89,0,40,9999,0.100000,99,0,0.000000,12,0.000000,21.089780,0.154280,99,99,0,0,0,0,0
3,39999,6,30000,30,0,40,9999,0.100000,99,0,0.000000,12,0.000000,17.988190,1.080215,99,99,0,0,0,0,0
3,39999,7,30000,12,10000,0,9999,0.100000,99,0,0.087388,12,0.000000,23.030514,0.249044,99,99,0,0,1,0,0
3,39999,8,30000,22,20000,0,9999,0.100000,99,0,2.913580,12,0.000000,28.618055,2.477004,99,99,0,0,0,1,0
3,39999,9,30000,60,10000,40,9999,0.100000,99,0,0.000000,12,0.000000,28.526901,0.601291,99,99,0,0,0,0,0
3,39999,10,30000,96,0,40,9999,0.100000,99,0,0.000000,12,0.000000,19.467419,1.022441,99,99,0,0,0,0,0
3,39999,11,30000,59,0,40,9999,0.100000,99,0,0.000000,12,1.000000,23.597307,1.058651,99,99,0,0,0,0,0
3,39999,12,30000,89,0,40,9999,0.100000,99,0,0.000000,12,0.000000,29.716153,12.652211,99,99,0,0,0,0,0
3,39999,13,30000,12,10000,40,9999,0.100000,99,0,0.000000,12,1.000000,13.178972,9.129902,99,99,0,0,0,0,0
3,39999,14,30000,59,0,40,9999,0.100000,99,0,0.000000,12,1.000000,13.414726,2.215026,99,99,0,0,0,0,0
3,39999,15,30000,50,10000,40,9999,0.100000,99,0,0.000000,12,0.000000,23.649532,0.751321,99,99,0,0,0,0,0
3,39999,16,30000,59,0,0,9999,0.100000,99,0,5.065481,12,1.000000,24.551223,2.448448,99,99,0,0,0,1,0
3,39999,17,30000,89,0,40,9999,0.100000,99,0,0.000000,12,2.000000,30.657345,4.572914,99,99,0,0,0,0,0
3,39999,18,30000,30,0,0,9999,0.100000,99,0,0.470919,12,0.000000,27.938353,0.722228,99,99,0,0,0,1,0
3,39999,19,30000,60,10000,40,9999,0.100000,99,0,0.000000,12,0.000000,38.012149,2.978035,99,99,0,0,0,0,0
3,39999,20,30000,50,10000,40,9999,0.100000,99,0,0.000000,12,0.000000,22.458464,0.126167,99,99,0,0,0,0,0
3,39999,21,30000,37,10000,40,9999,0.100000,99,0,0.000000,12,0.000000,26.226818,0.613819,99,99,0,0,0,0,0
3,39999,22,30000,59,0,40,9999,0.100000,99,0,0.000000,12,1.000000,28.713710,6.167772,99,99,0,0,0,0,0
3,39999,23,30000,61,0,40,9999,0.100000,99,0,0.000000,12,0.000000,21.826083,0.478470,99,99,0,0,0,0,0
3,39999,24,30000,22,20000,40,9999,0.100000,99,0,0.000000,12,1.000000,30.307388,1.386464,99,99,0,0,0,0,0
3,39999,25,30000,89,0,0,9999,0.100000,99,0,0.001751,12,0.000000,25.245383,0.077541,99,99,0,0,0,0,1
3,39999,26,30000,1,10000,40,9999,0.100000,99,0,0.000000,12,0.000000,16.456965,0.720548,99,99,0,0,0,0,0
3,39999,27,30000,22,20000,40,9999,0.100000,99,0,0.000000,12,0.000000,21.910122,2.887887,99,99,0,0,0,0,0
3,39999,28,30000,37,10000,40,9999,0.100000,99,0,0.000000,12,2.000000,26.771485,9.968403,99,99,0,0,0,0,0
3,39999,29,30000,37,10000,40,9999,0.100000,99,0,0.000000,12,0.000000,28.183987,0.626835,99,99,0,0,0,0,0
3,39999,30,30000,50,10000,0,9999,0.100000,99,0,2.003220,12,0.000000,33.287558,0.835058,99,99,0,1,0,0,0
3,39999,31,30000,60,10000,40,9999,0.100000,99,0,0.000000,12,0.000000,28.588394,3.632052,99,99,0,0,0,0,0
3,39999,32,30000,96,0,40,9999,0.100000,99,0,0.000000,12,0.000000,29.092979,8.216638,99,99,0,0,0,0,0
3,39999,33,30000,50,10000,0,9999,0.100000,99,0,0.002621,12,0.000000,26.886766,0.092909,99,99,0,0,0,0,1
3,39999,34,30000,89,0,40,9999,0.100000,99,0,0.000000,12,0.000000,23.359897,1.300318,99,99,0,0,0,0,0
3,39999,35,30000,12,10000,0,9999,0.100000,99,0,0.155043,12,0.000000,15.296481,1.729963,99,99,0,0,0,0,1
3,39999,36,30000,12,10000,0,9999,0.100000,99,0,0.003976,12,0.000000,17.930093,0.083555,99,99,0,0,0,0,1
3,39999,37,30000,86,10000,40,9999,0.100000,99,0,0.000000,12,0.000000,30.146674,0.138007,99,99,0,0,0,0,0
3,39999,38,30000,50,10000,40,9999,0.100000,99,0,0.000000,12,1.000000,24.659547,1.510537,99,99,0,0,0,0,0
3,39999,39,30000,59,0,40,9999,0.100000,99,0,0.000000,11,1.000000,30.202917,12.238363,99,99,0,0,0,0,0
3,39999,40,30000,12,10000,40,9999,0.100000,99,0,0.000000,12,0.000000,28.535578,4.894084,99,99,0,0,0,0,0
3,39999,41,30000,22,20000,40,9999,0.100000,99,0,0.000000,12,0.000000,25.870670,0.952164,99,99,0,0,0,0,0
3,39999,42,30000,89,0,40,9999,0.100000,99,0,0.000000,12,0.000000,29.682390,0.997570,99,99,0,0,0,0,0
3,39999,43,30000,61,0,40,9999,0.100000,99,0,0.000000,12,0.000000,24.831535,1.509743,99,99,0,0,0,0,0
3,39999,44,30000,59,0,40,9999,0.100000,99,0,0.000000,12,0.000000,28.967485,0.786176,99,99,0,0,0,0,0
3,39999,45,30000,89,0,41,9999,0.100000,99,0,0.000000,12,4.000000,33.043715,9.209487,99,99,0,0,0,0,0
3,39999,46,30000,59,0,40,9999,0.100000,99,0,0.000000,12,2.000000,23.712256,9.305460,99,99,0,0,0,0,0
3,39999,47,30000,22,20000,40,9999,0.100000,99,0,0.000000,12,0.000000,25.626913,0.888983,99,99,0,0,0,0,0
3,39999,48,30000,37,10000,0,9999,0.100000,99,0,0.494610,12,0.000000,22.013758,0.609036,99,99,0,0,1,0,0
3,39999,49,30000,50,10000,0,9999,0.100000,99,0,0.600724,12,0.000000,25.978434,0.668209,99,99,0,0,1,0,0
3,39999,50,30000,61,0,41,9999,0.100000,99,0,0.000000,12,6.000000,28.786578,9.894942,99,99,0,0,0,0,0
3,39999,51,30000,50,10000,40,9999,0.100000,99,0,0.000000,12,0.000000,15.750631,0.237372,99,99,0,0,0,0,0
3,39999,52,30000,12,10000,40,9999,0.100000,99,0,0.000000,12,0.000000,21.948961,1.806483,99,99,0,0,0,0,0
3,39999,53,30000,12,10000,40,9999,0.100000,99,0,0.000000,12,0.000000,17.105796,0.132785,99,99,0,0,0,0,0
3,39999,54,30000,1,10000,0,9999,0.100000,99,0,0.478716,12,2.000000,27.037505,4.180120,99,99,0,1,0,0,0
3,39999,55,30000,12,10000,41,9999,0.100000,99,0,0.000000,12,3.000000,27.506931,11.969000,99,99,0,0,0,0,0
3,39999,56,30000,50,10000,40,9999,0.100000,99,0,0.000000,12,2.000000,26.702617,22.444198,99,99,0,0,0,0,0
3,39999,57,30000,22,20000,1,9999,0.100000,99,0,0.002433,12,3.000000,26.602171,8.440300,99,99,0,0,0,0,1
3,39999,58,30000,60,10000,40,9999,0.100000,99,0,0.000000,12,0.000000,16.223486,0.265425,99,99,0,0,0,0,0
3,39999,59,30000,89,0,40,9999,0.100000,99,0,0.000000,12,0.000000,23.497380,0.428319,99,99,0,0,0,0,0
3,39999,60,30000,12,10000,40,9999,0.100000,99,0,0.000000,12,0.000000,29.196417,0.563237,99,99,0,0,0,0,0
3,39999,61,30000,50,10000,40,9999,0.100000,99,0,0.000000,12,1.000000,28.456405,6.002206,99,99,0,0,0,0,0
3,39999,62,30000,86,10000,0,9999,0.100000,99,0,0.025829,12,0.000000,27.548945,0.155985,99,99,0,0,0,0,1
3,39999,63,30000,59,0,43,9999,0.100000,99,0,0.000000,12,10.000000,28.180534,12.254728,99,99,0,0,0,0,0
3,39999,64,30000,30,0,40,9999,0.100000,99,0,0.000000,12,0.000000,28.443126,2.130449,99,99,0,0,0,0,0
3,39999,65,30000,86,10000,0,9999,0.100000,99,0,0.031686,12,1.000000,13.308936,3.090466,99,99,0,0,0,0,1
3,39999,66,30000,22,20000,40,9999,0.100000,99,0,0.000000,12,0.000000,24.745104,1.546402,99,99,0,0,0,0,0
3,39999,67,30000,1,10000,0,9999,0.100000,99,0,6.290049,12,1.000000,29.916364,1.390238,99,99,0,0,0,1,0
3,39999,68,30000,86,10000,40,9999,0.100000,99,0,0.000000,12,0.000000,16.593340,1.124210,99,99,0,0,0,0,0
3,39999,69,30000,96,0,40,9999,0.100000,99,0,0.000000,12,0.000000,19.503196,2.715445,99,99,0,0,0,0,0
3,39999,70,30000,37,10000,40,9999,0.100000,99,0,0.000000,12,0.000000,28.653298,1.380920,99,99,0,0,0,0,0
3,39999,71,30000,22,20000,40,9999,0.100000,99,0,0.000000,12,0.000000,27.901801,1.187395,99,99,0,0,0,0,0
3,39999,72,30000,50,10000,40,9999,0.100000,99,0,0.000000,12,0.000000,28.671362,2.663940,99,99,0,0,0,0,0
3,39999,73,30000,22,20000,0,9999,0.100000,99,0,0.229726,12,0.000000,22.664457,0.320189,99,99,0,0,0,0,1
3,39999,74,30000,61,0,40,9999,0.100000,99,0,0.000000,12,0.000000,27.719257,0.738207,99,99,0,0,0,0,0
3,39999,75,30000,61,0,40,9999,0.100000,99,0,0.000000,12,1.000000,30.132162,1.492754,99,99,0,0,0,0,0
3,39999,76,30000,12,10000,0,9999,0.100000,99,0,0.166494,12,0.000000,25.300317,0.158735,99,99,0,1,0,0,0
3,39999,77,30000,59,0,40,9999,0.100000,99,0,0.000000,12,1.000000,26.349790,8.170510,99,99,0,0,0,0,0
3,39999,78,30000,50,10000,40,9999,0.100000,99,0,0.000000,12,0.000000,26.795261,2.011286,99,99,0,0,0,0,0
3,39999,79,30000,61,0,0,9999,0.065000,99,0,1.119269,12,0.000000,29.453389,4.872578,99,99,0,0,1,0,0
3,39999,80,30000,59,0,41,9999,0.100000,99,0,0.000000,12,4.000000,30.183217,9.555269,99,99,0,0,0,0,0
3,39999,81,30000,12,10000,0,9999,0.100000,99,0,0.450628,12,0.000000,31.005635,0.366486,99,99,0,0,0,1,0
3,39999,82,30000,22,20000,0,9999,0.100000,99,0,0.008489,12,0.000000,31.380071,0.115168,99,99,0,0,1,0,0
3,39999,83,30000,59,0,0,9999,0.100000,99,0,1.375775,12,0.000000,26.788936,2.471658,99,99,0,1,0,0,0
3,39999,84,30000,96,0,40,9999,0.100000,99,0,0.000000,12,0.000000,33.059112,0.711978,99,99,0,0,0,0,0
3,39999,85,30000,1,10000,0,9999,0.100000,99,0,4.389487,12,0.000000,28.411344,1.343488,99,99,0,1,0,0,0
3,39999,86,30000,59,0,40,9999,0.100000,99,0,0.000000,12,0.000000,15.241907,0.207029,99,99,0,0,0,0,0
3,39999,87,30000,59,0,41,9999,0.100000,99,0,0.000000,12,3.000000,26.008090,9.356067,99,99,0,0,0,0,0
3,39999,88,30000,12,10000,40,9999,0.100000,99,0,0.000000,12,0.000000,31.518472,0.143458,99,99,0,0,0,0,0
3,39999,89,30000,12,10000,40,9999,0.100000,99,0,0.000000,12,0.000000,30.841298,0.366345,99,99,0,0,0,0,0
3,39999,90,30000,61,0,40,9999,0.100000,99,0,0.000000,12,1.000000,24.129235,1.147497,99,99,0,0,0,0,0
3,39999,91,30000,59,0,40,9999,0.100000,99,0,0.000000,12,0.000000,21.075811,0.352722,99,99,0,0,0,0,0
3,39999,92,30000,50,10000,0,9999,0.100000,99,0,1.783124,12,0.000000,28.633910,0.992040,99,99,0,0,0,1,0
3,39999,93,30000,61,0,42,9999,0.100000,99,0,0.000000,12,6.000000,24.943847,17.605046,99,99,0,0,0,0,0
3,39999,94,30000,59,0,40,9999,0.100000,99,0,0.000000,12,0.000000,27.581680,1.279439,99,99,0,0,0,0,0
3,39999,95,30000,61,0,0,9999,0.100000,99,0,0.114628,12,0.000000,28.701286,0.630261,99,99,0,0,0,1,0
3,39999,96,30000,86,10000,40,9999,0.100000,99,0,0.000000,12,1.000000,28.337064,2.247609,99,99,0,0,0,0,0
3,39999,97,30000,22,20000,0,9999,0.100000,99,0,4.719585,12,1.000000,23.387376,1.207562,99,99,0,0,1,0,0
3,39999,98,30000,30,0,40,9999,0.100000,99,0,0.000000,12,0.000000,23.364552,0.381380,99,99,0,0,0,0,0
3,39999,99,30000,86,10000,0,9999,0.100000,99,0,0.490371,12,0.000000,27.773256,0.584117,99,99,0,0,0,1,0
4,49999,0,40000,50,10000,0,9999,0.100000,99,0,0.136891,12,1.000000,33.883328,2.323596,99,99,0,1,0,0,0
4,49999,1,40000,86,10000,0,9999,0.100000,99,0,0.032542,12,0.000000,21.515469,0.113115,99,99,0,0,0,1,0
4,49999,2,40000,86,10000,40,9999,0.100000,99,0,0.000000,12,1.000000,30.592160,6.469657,99,99,0,0,0,0,0
4,49999,3,40000,89,0,0,9999,0.100000,99,0,0.053215,12,0.000000,25.308524,0.921346,99,99,0,0,1,0,0
4,49999,4,40000,11,20000,0,9999,0.100000,99,0,0.000285,12,0.000000,20.399975,0.081800,99,99,0,0,0,0,1
4,49999,5,40000,89,0,40,9999,0.100000,99,0,0.000000,12,0.000000,21.159037,0.082933,99,99,0,0,0,0,0
4,49999,6,40000,12,10000,40,9999,0.100000,99,0,0.000000,12,0.000000,18.216412,0.545767,99,99,0,0,0,0,0
4,49999,7,40000,1,10000,0,9999,0.100000,99,0,1.012873,12,0.000000,23.016638,0.392262,99,99,0,0,1,0,0
4,49999,8,40000,86,10000,0,9999,0.100000,99,0,0.563790,12,0.000000,29.404818,4.781015,99,99,0,0,0,1,0
4,49999,9,40000,61,0,40,9999,0.100000,99,0,0.000000,12,0.000000,28.139309,0.413684,99,99,0,0,0,0,0
4,49999,10,40000,89,0,40,9999,0.100000,99,0,0.000000,12,0.000000,19.961432,0.553120,99,99,0,0,0,0,0
4,49999,11,40000,37,10000,0,9999,0.100000,99,0,2.022729,12,0.000000,23.534273,0.486262,99,99,0,0,1,0,0
4,49999,12,40000,1,10000,40,9999,0.100000,99,0,0.000000,12,1.000000,29.674219,16.033513,99,99,0,0,0,0,0
4,49999,13,40000,96,0,40,9999,0.100000,99,0,0.000000,12,0.000000,14.256972,0.906479,99,99,0,0,0,0,0
4,49999,14,40000,89,0,40,9999,0.100000,99,0,0.000000,12,0.000000,14.397023,0.515946,99,99,0,0,0,0,0
4,49999,15,40000,59,0,40,9999,0.100000,99,0,0.000000,12,0.000000,23.963584,0.125029,99,99,0,0,0,0,0
4,49999,16,40000,89,0,0,9999,0.100000,99,0,0.435785,12,0.000000,25.674461,0.848635,99,99,0,0,0,1,0
4,49999,17,40000,50,10000,40,9999,0.100000,99,0,0.000000,12,1.000000,30.149803,10.204317,99,99,0,0,0,0,0
4,49999,18,40000,1,10000,40,9999,0.100000,99,0,0.000000,12,0.000000,28.036837,0.364231,99,99,0,0,0,0,0
4,49999,19,40000,11,20000,40,9999,0.100000,99,0,0.000000,12,0.000000,38.011406,0.785451,99,99,0,0,0,0,0
4,49999,20,40000,50,10000,0,9999,0.100000,99,0,0.393602,12,0.000000,22.480361,0.157327,99,99,0,0,0,0,1
4,49999,21,40000,11,20000,40,9999,0.100000,99,0,0.000000,12,0.000000,25.687894,1.153291,99,99,0,0,0,0,0
4,49999,22,40000,12,10000,40,9999,0.100000,99,0,0.000000,12,2.000000,28.169073,2.749495,99,99,0,0,0,0,0
4,49999,23,40000,61,0,40,9999,0.100000,99,0,0.000000,12,0.000000,21.824822,0.368439,99,99,0,0,0,0,0
4,49999,24,40000,60,10000,0,9999,0.100000,99,0,0.675867,12,1.000000,29.622989,1.312757,99,99,0,0,0,1,0
4,49999,25,40000,50,10000,0,9999,0.100000,99,0,0.016738,12,0.000000,25.245033,0.187509,99,99,0,0,0,0,1
4,49999,26,40000,86,10000,40,9999,0.100000,99,0,0.000000,12,0.000000,16.304885,1.077885,99,99,0,0,0,0,0
4,49999,27,40000,37,10000,0,9999,0.100000,99,0,0.392481,12,0.000000,22.049795,1.625352,99,99,0,0,1,0,0
4,49999,28,40000,50,10000,40,9999,0.100000,99,0,0.000000,12,0.000000,26.918415,3.412253,99,99,0,0,0,0,0
4,49999,29,40000,96,0,0,9999,0.100000,99,0,1.188513,12,0.000000,28.256634,0.452147,99,99,0,0,0,1,0
4,49999,30,40000,37,10000,0,9999,0.100000,99,0,6.194552,12,1.000000,33.239765,1.431828,99,99,0,1,0,0,0
4,49999,31,40000,96,0,40,9999,0.100000,99,0,0.000000,12,2.000000,27.924269,11.902777,99,99,0,0,0,0,0
4,49999,32,40000,50,10000,40,9999,0.100000,99,0,0.000000,12,1.000000,29.635550,8.356620,99,99,0,0,0,0,0
4,49999,33,40000,89,0,0,9999,0.100000,99,0,0.002142,12,0.000000,26.887641,0.092339,99,99,0,0,0,0,1
4,49999,34,40000,11,20000,40,9999,0.100000,99,0,0.000000,12,0.000000,23.296912,2.114104,99,99,0,0,0,0,0
4,49999,35,40000,22,20000,40,9999,0.100000,99,0,0.000000,12,0.000000,15.861988,0.423368,99,99,0,0,0,0,0
4,49999,36,40000,59,0,0,9999,0.100000,99,0,0.044928,12,0.000000,17.930950,0.098883,99,99,0,0,0,0,1
4,49999,37,40000,89,0,40,9999,0.100000,99,0,0.000000,12,0.000000,30.146396,0.131819,99,99,0,0,0,0,0
4,49999,38,40000,1,10000,40,9999,0.100000,99,0,0.000000,12,0.000000,25.693336,0.641794,99,99,0,0,0,0,0
4,49999,39,40000,60,10000,40,9999,0.100000,99,0,0.000000,12,2.000000,30.399822,7.700561,99,99,0,0,0,0,0
4,49999,40,40000,60,10000,40,9999,0.100000,99,0,0.000000,12,0.000000,29.120497,3.122323,99,99,0,0,0,0,0
4,49999,41,40000,59,0,40,9999,0.100000,99,0,0.000000,12,0.000000,25.827701,2.511895,99,99,0,0,0,0,0
4,49999,42,40000,50,10000,0,9999,0.100000,99,0,5.742078,12,1.000000,29.657142,5.160930,99,99,0,0,1,0,0
4,49999,43,40000,89,0,40,9999,0.100000,99,0,0.000000,12,0.000000,25.735497,0.805437,99,99,0,0,0,0,0
4,49999,44,40000,50,10000,40,9999,0.100000,99,0,0.000000,12,0.000000,28.514577,0.560970,99,99,0,0,0,0,0
4,49999,45,40000,50,10000,40,9999,0.100000,99,0,0.000000,12,3.000000,30.760310,6.379888,99,99,0,0,0,0,0
4,49999,46,40000,89,0,40,9999,0.100000,99,0,0.000000,12,0.000000,21.599147,0.169824,99,99,0,0,0,0,0
4,49999,47,40000,1,10000,40,9999,0.100000,99,0,0.000000,12,0.000000,25.579956,1.149717,99,99,0,0,0,0,0
4,49999,48,40000,50,10000,40,9999,0.100000,99,0,0.000000,12,0.000000,22.147293,1.092974,99,99,0,0,0,0,0
4,49999,49,40000,59,0,0,9999,0.100000,99,0,0.924430,12,0.000000,25.483954,0.804809,99,99,0,0,1,0,0
4,49999,50,40000,89,0,40,9999,0.100000,99,0,0.000000,12,0.000000,24.302276,4.135041,99,99,0,0,0,0,0
4,49999,51,40000,60,10000,0,9999,0.100000,99,0,0.042962,12,0.000000,15.625728,0.483858,99,99,0,0,0,0,1
4,49999,52,40000,59,0,40,9999,0.100000,99,0,0.000000,12,0.000000,21.980048,0.099286,99,99,0,0,0,0,0
4,49999,53,40000,86,10000,40,9999,0.100000,99,0,0.000000,12,0.000000,17.107813,0.346276,99,99,0,0,0,0,0
4,49999,54,40000,96,0,0,9999,0.100000,99,0,2.856632,12,2.000000,28.141662,2.860047,99,99,0,1,0,0,0
4,49999,55,40000,22,20000,41,9999,0.100000,99,0,0.000000,12,4.000000,24.226541,17.293664,99,99,0,0,0,0,0
4,49999,56,40000,89,0,40,9999,0.100000,99,0,0.000000,12,2.000000,28.315317,10.581533,99,99,0,0,0,0,0
4,49999,57,40000,22,20000,40,9999,0.100000,99,0,0.000000,12,0.000000,24.080605,0.604775,99,99,0,0,0,0,0
4,49999,58,40000,96,0,40,9999,0.100000,99,0,0.000000,12,0.000000,16.097714,1.083871,99,99,0,0,0,0,0
4,49999,59,40000,50,10000,0,9999,0.100000,99,0,0.064036,12,0.000000,23.835393,0.114830,99,99,0,0,0,0,1
4,49999,60,40000,59,0,0,9999,0.100000,99,0,5.742078,12,1.000000,29.169358,5.597601,99,99,0,0,1,0,0
4,49999,61,40000,22,20000,40,9999,0.135000,99,0,0.000000,12,0.000000,29.232010,8.195751,99,99,0,0,0,0,0
4,49999,62,40000,61,0,0,9999,0.100000,99,0,0.021821,12,0.000000,27.547176,0.144391,99,99,0,0,0,0,1
4,49999,63,40000,11,20000,40,9999,0.100000,99,0,0.000000,12,0.000000,37.906399,0.958395,99,99,0,0,0,0,0
4,49999,64,40000,59,0,40,9999,0.100000,99,0,0.000000,12,0.000000,27.677290,15.788142,99,99,0,0,0,0,0
4,49999,65,40000,86,10000,0,9999,0.100000,99,0,1.404268,12,0.000000,14.524125,0.610986,99,99,0,0,0,0,1
4,49999,66,40000,50,10000,40,9999,0.100000,99,0,0.000000,12,0.000000,25.713163,0.703681,99,99,0,0,0,0,0
4,49999,67,40000,50,10000,40,9999,0.100000,99,0,0.000000,12,1.000000,29.185355,1.434629,99,99,0,0,0,0,0
4,49999,68,40000,96,0,40,9999,0.100000,99,0,0.000000,12,1.000000,16.437968,5.266235,99,99,0,0,0,0,0
4,49999,69,40000,37,10000,40,9999,0.100000,99,0,0.000000,12,0.000000,19.860356,0.649088,99,99,0,0,0,0,0
4,49999,70,40000,37,10000,0,9999,0.100000,99,0,4.366893,12,0.000000,29.339003,1.774380,99,99,0,1,0,0,0
4,49999,71,40000,89,0,40,9999,0.100000,99,0,0.000000,12,0.000000,27.619622,2.188029,99,99,0,0,0,0,0
4,49999,72,40000,37,10000,42,9999,0.100000,99,0,0.000000,12,7.000000,29.213841,10.460397,99,99,0,0,0,0,0
4,49999,73,40000,60,10000,40,9999,0.100000,99,0,0.000000,12,0.000000,22.687602,1.042969,99,99,0,0,0,0,0
4,49999,74,40000,11,20000,40,9999,0.100000,99,0,0.000000,12,0.000000,27.829844,0.737086,99,99,0,0,0,0,0
4,49999,75,40000,86,10000,41,9999,0.100000,99,0,0.000000,12,4.000000,29.369790,8.769440,99,99,0,0,0,0,0
4,49999,76,40000,22,20000,0,9999,0.100000,99,0,4.606787,12,0.000000,25.278279,1.085624,99,99,0,1,0,0,0
4,49999,77,40000,60,10000,41,9999,0.100000,99,0,0.000000,12,3.000000,26.220958,12.185396,99,99,0,0,0,0,0
4,49999,78,40000,89,0,0,9999,0.100000,99,0,2.640426,12,0.000000,26.694032,0.895146,99,99,0,1,0,0,0
4,49999,79,40000,11,20000,0,9999,0.100000,99,0,5.742078,12,1.000000,29.390953,5.354318,99,99,0,0,1,0,0
4,49999,80,40000,37,10000,40,9999,0.100000,99,0,0.000000,12,1.000000,29.375653,1.493848,99,99,0,0,0,0,0
4,49999,81,40000,61,0,0,9999,0.100000,99,0,5.274971,12,1.000000,30.984503,2.066201,99,99,0,0,0,1,0
4,49999,82,40000,37,10000,0,9999,0.100000,99,0,0.006179,12,0.000000,31.373846,0.114781,99,99,0,0,1,0,0
4,49999,83,40000,11,20000,40,9999,0.100000,99,0,0.000000,12,0.000000,26.840745,0.837990,99,99,0,0,0,0,0
4,49999,84,40000,96,0,40,9999,0.100000,99,0,0.000000,12,1.000000,33.010436,1.331391,99,99,0,0,0,0,0
4,49999,85,40000,59,0,40,9999,0.100000,99,0,0.000000,12,0.000000,29.156303,1.585364,99,99,0,0,0,0,0
4,49999,86,40000,59,0,40,9999,0.100000,99,0,0.000000,12,0.000000,15.118048,0.339084,99,99,0,0,0,0,0
4,49999,87,40000,37,10000,40,9999,0.100000,99,0,0.000000,12,0.000000,22.855553,21.005474,99,99,0,0,0,0,0
4,49999,88,40000,89,0,40,9999,0.100000,99,0,0.000000,12,0.000000,31.512186,0.142908,99,99,0,0,0,0,0
4,49999,89,40000,11,20000,40,9999,0.100000,99,0,0.000000,12,1.000000,30.816969,1.964260,99,99,0,0,0,0,0
4,49999,90,40000,89,0,40,9999,0.100000,99,0,0.000000,12,1.000000,24.012900,2.284530,99,99,0,0,0,0,0
4,49999,91,40000,11,20000,40,9999,0.100000,99,0,0.000000,12,0.000000,21.356554,0.166762,99,99,0,0,0,0,0
4,49999,92,40000,89,0,40,9999,0.100000,99,0,0.000000,12,0.000000,28.742530,4.918734,99,99,0,0,0,0,0
4,49999,93,40000,96,0,41,9999,0.100000,99,0,0.000000,12,4.000000,25.000797,8.331396,99,99,0,0,0,0,0
4,49999,94,40000,37,10000,40,9999,0.135000,99,0,0.000000,12,0.000000,27.589362,0.499380,99,99,0,0,0,0,0
4,49999,95,40000,86,10000,0,9999,0.100000,99,0,1.313733,12,0.000000,28.288843,0.448339,99,99,0,0,0,1,0
4,49999,96,40000,12,10000,40,9999,0.100000,99,0,0.000000,12,0.000000,27.485906,5.351793,99,99,0,0,0,0,0
4,49999,97,40000,11,20000,40,9999,0.100000,99,0,0.000000,12,0.000000,23.318678,0.684380,99,99,0,0,0,0,0
4,49999,98,40000,59,0,40,9999,0.100000,99,0,0.000000,12,0.000000,23.610011,0.148600,99,99,0,0,0,0,0
4,49999,99,40000,37,10000,0,9999,0.100000,99,0,0.421138,12,0.000000,27.300901,0.514165,99,99,0,0,0,1,0
5,59999,0,50000,50,10000,0,9999,0.100000,99,0,0.158224,12,0.000000,34.978541,0.145095,99,99,0,1,0,0,0
5,59999,1,50000,96,0,0,9999,0.100000,99,0,0.031925,12,0.000000,21.507525,0.109696,99,99,0,0,0,1,0
5,59999,2,50000,60,10000,0,9999,0.100000,99,0,0.022042,12,0.000000,29.653364,1.905440,99,99,0,0,0,1,0
5,59999,3,50000,86,10000,0,9999,0.100000,99,0,0.552322,12,0.000000,25.077753,0.508575,99,99,0,0,1,0,0
5,59999,4,50000,86,10000,40,9999,0.100000,99,0,0.000000,12,0.000000,20.399857,0.078994,99,99,0,0,0,0,0
5,59999,5,50000,59,0,0,9999,0.100000,99,0,0.000260,12,0.000000,21.158840,0.083387,99,99,0,0,0,0,1
5,59999,6,50000,86,10000,40,9999,0.100000,99,0,0.000000,12,0.000000,18.267304,0.517576,99,99,0,0,0,0,0
5,59999,7,50000,1,10000,0,9999,0.100000,99,0,0.495522,12,1.000000,22.894380,1.615846,99,99,0,0,1,0,0
5,59999,8,50000,22,20000,40,9999,0.100000,99,0,0.000000,12,0.000000,30.097152,1.801436,99,99,0,0,0,0,0
5,59999,9,50000,12,10000,40,9999,0.100000,99,0,0.000000,12,0.000000,28.027003,0.567190,99,99,0,0,0,0,0
5,59999,10,50000,59,0,40,9999,0.100000,99,0,0.000000,12,0.000000,20.398114,1.022626,99,99,0,0,0,0,0
5,59999,11,50000,61,0,42,9999,0.100000,99,0,0.000000,12,5.000000,23.391392,7.565658,99,99,0,0,0,0,0
5,59999,12,50000,96,0,40,9999,0.100000,99,0,0.000000,12,0.000000,29.156181,7.816242,99,99,0,0,0,0,0
5,59999,13,50000,96,0,40,9999,0.100000,99,0,0.000000,12,0.000000,14.550974,0.615057,99,99,0,0,0,0,0
5,59999,14,50000,11,20000,40,9999,0.100000,99,0,0.000000,12,0.000000,14.684290,0.393658,99,99,0,0,0,0,0
5,59999,15,50000,61,0,0,9999,0.100000,99,0,0.135141,12,0.000000,23.934884,0.155821,99,99,0,0,0,0,1
5,59999,16,50000,59,0,40,9999,0.100000,99,0,0.000000,12,0.000000,25.797556,0.915047,99,99,0,0,0,0,0
5,59999,17,50000,86,10000,40,9999,0.100000,99,0,0.000000,12,0.000000,29.812262,0.809788,99,99,0,0,0,0,0
5,59999,18,50000,37,10000,40,9999,0.100000,99,0,0.000000,12,0.000000,28.087709,1.218887,99,99,0,0,0,0,0
5,59999,19,50000,60,10000,40,9999,0.100000,99,0,0.000000,12,0.000000,38.036876,0.724782,99,99,0,0,0,0,0
5,59999,20,50000,22,20000,0,9999,0.100000,99,0,0.083390,12,0.000000,22.419766,0.265722,99,99,0,0,0,0,1
5,59999,21,50000,86,10000,0,9999,0.100000,99,0,0.858033,12,1.000000,25.957082,2.301399,99,99,0,0,1,0,0
5,59999,22,50000,1,10000,40,9999,0.100000,99,0,0.000000,12,0.000000,27.035901,0.654607,99,99,0,0,0,0,0
5,59999,23,50000,22,20000,40,9999,0.100000,99,0,0.000000,12,2.000000,21.648895,5.051257,99,99,0,0,0,0,0
5,59999,24,50000,86,10000,40,9999,0.100000,99,0,0.000000,12,0.000000,29.600685,0.994595,99,99,0,0,0,0,0
5,59999,25,50000,60,10000,0,9999,0.100000,99,0,0.292871,12,0.000000,25.329090,0.216878,99,99,0,0,0,0,1
5,59999,26,50000,12,10000,40,9999,0.100000,99,0,0.000000,12,0.000000,16.212632,0.350265,99,99,0,0,0,0,0
5,59999,27,50000,22,20000,40,9999,0.100000,99,0,0.000000,12,0.000000,22.268007,1.847956,99,99,0,0,0,0,0
5,59999,28,50000,1,10000,40,9999,0.100000,99,0,0.000000,12,0.000000,27.569394,4.658183,99,99,0,0,0,0,0
5,59999,29,50000,86,10000,40,9999,0.100000,99,0,0.000000,12,0.000000,28.242898,0.615190,99,99,0,0,0,0,0
5,59999,30,50000,86,10000,0,9999,0.100000,99,0,3.274484,12,0.000000,32.726426,1.043430,99,99,0,1,0,0,0
5,59999,31,50000,61,0,0,9999,0.100000,99,0,0.086828,12,2.000000,28.243275,5.847691,99,99,0,1,0,0,0
5,59999,32,50000,12,10000,40,9999,0.100000,99,0,0.000000,12,3.000000,30.448222,19.210954,99,99,0,0,0,0,0
5,59999,33,50000,60,10000,0,9999,0.100000,99,0,0.001907,12,0.000000,26.889064,0.097217,99,99,0,0,0,0,1
5,59999,34,50000,60,10000,2,9999,0.100000,99,0,31.356631,12,5.000000,22.999780,9.015650,99,99,0,0,1,0,0
5,59999,35,50000,12,10000,0,9999,0.100000,99,0,0.092074,12,0.000000,15.790478,0.142342,99,99,0,0,0,0,1
5,59999,36,50000,11,20000,0,9999,0.100000,99,0,0.000446,12,0.000000,17.912264,0.083381,99,99,0,0,0,0,1
5,59999,37,50000,86,10000,40,9999,0.100000,99,0,0.000000,12,0.000000,30.146260,0.130410,99,99,0,0,0,0,0
5,59999,38,50000,60,10000,0,9999,0.100000,99,0,0.471703,12,0.000000,25.815590,0.654579,99,99,0,0,0,1,0
5,59999,39,50000,61,0,40,9999,0.100000,99,0,0.000000,12,0.000000,28.605209,1.211247,99,99,0,0,0,0,0
5,59999,40,50000,86,10000,40,9999,0.100000,99,0,0.000000,12,3.000000,29.909653,12.264678,99,99,0,0,0,0,0
5,59999,41,50000,37,10000,40,9999,0.100000,99,0,0.000000,12,0.000000,25.597005,0.277769,99,99,0,0,0,0,0
5,59999,42,50000,59,0,40,9999,0.100000,99,0,0.000000,12,3.000000,29.387524,13.017436,99,99,0,0,0,0,0
5,59999,43,50000,50,10000,40,9999,0.100000,99,0,0.000000,12,0.000000,25.857386,0.736449,99,99,0,0,0,0,0
5,59999,44,50000,59,0,40,9999,0.100000,99,0,0.000000,12,0.000000,28.283567,0.670448,99,99,0,0,0,0,0
5,59999,45,50000,86,10000,40,9999,0.100000,99,0,0.000000,12,3.000000,30.086643,4.504702,99,99,0,0,0,0,0
5,59999,46,50000,86,10000,40,9999,0.100000,99,0,0.000000,12,0.000000,21.588904,0.163682,99,99,0,0,0,0,0
5,59999,47,50000,12,10000,41,9999,0.100000,99,0,0.000000,12,3.000000,25.337024,15.263942,99,99,0,0,0,0,0
5,59999,48,50000,22,20000,0,9999,0.100000,99,0,2.164586,12,0.000000,22.012025,0.567763,99,99,0,0,1,0,0
5,59999,49,50000,96,0,40,9999,0.100000,99,0,0.000000,12,2.000000,25.604162,2.307028,99,99,0,0,0,0,0
5,59999,50,50000,86,10000,42,9999,0.100000,99,0,0.000000,12,7.000000,24.260390,22.546217,99,99,0,0,0,0,0
5,59999,51,50000,59,0,40,9999,0.100000,99,0,0.000000,12,0.000000,15.556571,0.173631,99,99,0,0,0,0,0
5,59999,52,50000,1,10000,40,9999,0.100000,99,0,0.000000,12,0.000000,21.973233,0.187890,99,99,0,0,0,0,0
5,59999,53,50000,22,20000,40,9999,0.100000,99,0,0.000000,12,0.000000,17.107942,0.093785,99,99,0,0,0,0,0
5,59999,54,50000,89,0,1,9999,0.100000,99,0,28.947959,12,5.000000,29.032356,11.993388,99,99,0,1,0,0,0
5,59999,55,50000,11,20000,1,9999,0.100000,99,0,28.947959,12,5.000000,28.779533,11.796509,99,99,0,1,0,0,0
5,59999,56,50000,50,10000,40,9999,0.135000,99,0,0.000000,12,1.000000,29.128506,6.230030,99,99,0,0,0,0,0
5,59999,57,50000,59,0,40,9999,0.100000,99,0,0.000000,12,0.000000,24.030234,1.069582,99,99,0,0,0,0,0
5,59999,58,50000,12,10000,40,9999,0.100000,99,0,0.000000,12,0.000000,16.016231,0.709254,99,99,0,0,0,0,0
5,59999,59,50000,96,0,40,9999,0.100000,99,0,0.000000,12,0.000000,23.815716,0.148304,99,99,0,0,0,0,0
5,59999,60,50000,89,0,40,9999,0.100000,99,0,0.000000,12,0.000000,30.342757,12.362426,99,99,0,0,0,0,0
5,59999,61,50000,12,10000,0,9999,0.100000,99,0,1.846096,12,0.000000,29.746765,2.274598,99,99,0,0,0,1,0
5,59999,62,50000,50,10000,0,9999,0.100000,99,0,0.259143,12,0.000000,27.545405,0.403182,99,99,0,0,0,0,1
5,59999,63,50000,86,10000,40,9999,0.100000,99,0,0.000000,12,0.000000,37.933388,0.935443,99,99,0,0,0,0,0
5,59999,64,50000,50,10000,40,9999,0.100000,99,0,0.000000,12,0.000000,27.465387,13.173394,99,99,0,0,0,0,0
5,59999,65,50000,61,0,0,9999,0.100000,99,0,0.817886,12,0.000000,14.789328,0.547815,99,99,0,0,0,0,1
5,59999,66,50000,60,10000,40,9999,0.100000,99,0,0.000000,12,0.000000,25.832697,0.683107,99,99,0,0,0,0,0
5,59999,67,50000,61,0,0,9999,0.100000,99,0,0.784231,12,0.000000,29.127640,0.490126,99,99,0,0,0,1,0
5,59999,68,50000,1,10000,40,9999,0.100000,99,0,0.000000,12,0.000000,15.459671,0.183048,99,99,0,0,0,0,0
5,59999,69,50000,61,0,0,9999,0.100000,99,0,0.000138,12,0.000000,20.298647,3.371786,99,99,0,0,1,0,0
5,59999,70,50000,60,10000,0,9999,0.100000,99,0,19.652442,12,3.000000,30.131838,10.323535,99,99,0,1,0,0,0
5,59999,71,50000,11,20000,41,9999,0.100000,99,0,0.000000,12,5.000000,27.246453,10.352867,99,99,0,0,0,0,0
5,59999,72,50000,61,0,42,9999,0.100000,99,0,0.000000,12,7.000000,23.762628,13.502980,99,99,0,0,0,0,0
5,59999,73,50000,96,0,40,9999,0.100000,99,0,0.000000,12,0.000000,22.536993,2.130976,99,99,0,0,0,0,0
5,59999,74,50000,1,10000,40,9999,0.100000,99,0,0.000000,12,0.000000,27.933776,1.710653,99,99,0,0,0,0,0
5,59999,75,50000,37,10000,40,9999,0.100000,99,0,0.000000,12,0.000000,31.761067,1.052896,99,99,0,0,0,0,0
5,59999,76,50000,59,0,0,9999,0.100000,99,0,1.128916,12,0.000000,25.472287,0.435107,99,99,0,1,0,0,0
5,59999,77,50000,1,10000,40,9999,0.100000,99,0,0.000000,12,2.000000,23.180661,11.774600,99,99,0,0,0,0,0
5,59999,78,50000,37,10000,0,9999,0.100000,99,0,3.343115,12,0.000000,27.308709,0.934022,99,99,0,1,0,0,0
5,59999,79,50000,61,0,40,9999,0.100000,99,0,0.000000,12,2.000000,29.649316,4.487609,99,99,0,0,0,0,0
5,59999,80,50000,61,0,40,9999,0.100000,99,0,0.000000,12,0.000000,29.380384,0.314412,99,99,0,0,0,0,0
5,59999,81,50000,86,10000,40,9999,0.100000,99,0,0.000000,12,1.000000,29.532792,3.856809,99,99,0,0,0,0,0
5,59999,82,50000,11,20000,0,9999,0.100000,99,0,0.069740,12,3.000000,31.367674,6.898075,99,99,0,0,1,0,0
5,59999,83,50000,11,20000,40,9999,0.100000,99,0,0.000000,12,0.000000,27.456306,0.890436,99,99,0,0,0,0,0
5,59999,84,50000,12,10000,40,9999,0.100000,99,0,0.000000,12,0.000000,32.493464,0.863596,99,99,0,0,0,0,0
5,59999,85,50000,96,0,0,9999,0.100000,99,0,19.653230,12,3.000000,29.926987,9.346270,99,99,0,1,0,0,0
5,59999,86,50000,1,10000,45,9999,0.100000,99,0,0.000000,12,8.000000,15.055323,17.216128,99,99,0,0,0,0,0
5,59999,87,50000,86,10000,40,9999,0.100000,99,0,0.000000,12,0.000000,22.697258,16.766273,99,99,0,0,0,0,0
5,59999,88,50000,96,0,40,9999,0.100000,99,0,0.000000,12,3.000000,31.506130,7.463915,99,99,0,0,0,0,0
5,59999,89,50000,60,10000,40,9999,0.100000,99,0,0.000000,12,1.000000,29.474307,17.311604,99,99,0,0,0,0,0
5,59999,90,50000,50,10000,40,9999,0.100000,99,0,0.000000,12,2.000000,23.360295,6.591968,99,99,0,0,0,0,0
5,59999,91,50000,61,0,40,9999,0.100000,99,0,0.000000,12,0.000000,21.353070,0.164635,99,99,0,0,0,0,0
5,59999,92,50000,37,10000,40,9999,0.100000,99,0,0.000000,12,0.000000,29.021624,1.600936,99,99,0,0,0,0,0
5,59999,93,50000,50,10000,40,9999,0.100000,99,0,0.000000,12,0.000000,23.955406,1.498828,99,99,0,0,0,0,0
5,59999,94,50000,37,10000,2,9999,0.100000,99,0,2.384646,12,7.000000,27.772158,15.786375,99,99,0,0,0,1,0
5,59999,95,50000,89,0,0,9999,0.100000,99,0,1.177756,12,0.000000,28.136365,0.609251,99,99,0,0,0,1,0
5,59999,96,50000,59,0,40,9999,0.100000,99,0,0.000000,12,1.000000,27.451289,10.519561,99,99,0,0,0,0,0
5,59999,97,50000,89,0,42,9999,0.100000,99,0,0.000000,12,5.000000,23.169593,7.627602,99,99,0,0,0,0,0
5,59999,98,50000,96,0,40,9999,0.100000,99,0,0.000000,12,0.000000,23.606790,0.143950,99,99,0,0,0,0,0
5,59999,99,50000,96,0,0,9999,0.100000,99,0,1.022847,12,0.000000,27.086957,0.514394,99,99,0,0,0,1,0
6,69999,0,60000,86,50000,0,9999,0.100000,99,0,0.000000,13,2.000000,34.959029,6.341371,99,99,0,1,0,0,0
6,69999,1,60000,89,0,0,9999,0.100000,99,0,0.030771,13,0.000000,21.499816,1.778626,99,99,0,0,0,1,0
6,69999,2,60000,61,0,0,9999,0.100000,99,0,3.482356,12,0.000000,28.940695,0.627057,99,99,0,0,0,1,0
6,69999,3,60000,86,50000,0,9999,0.100000,99,0,2.477920,13,0.000000,25.079428,1.193102,99,99,0,0,1,0,0
6,69999,4,60000,86,10000,0,9999,0.100000,99,0,0.000350,13,0.000000,20.399561,0.077436,99,99,0,0,0,0,1
6,69999,5,60000,85,50000,40,9999,0.100000,99,0,0.000000,13,0.000000,21.158438,0.081609,99,99,0,0,0,0,0
6,69999,6,60000,1,10000,40,9999,0.100000,99,0,0.000000,13,0.000000,18.299045,0.487250,99,99,0,0,0,0,0
6,69999,7,60000,86,50000,0,9999,0.100000,99,0,1.086634,13,0.000000,22.464364,0.329978,99,99,0,0,1,0,0
6,69999,8,60000,89,0,0,9999,0.100000,99,0,1.075326,12,0.000000,30.481876,0.318868,99,99,0,0,0,1,0
6,69999,9,60000,11,20000,40,9999,0.100000,99,0,0.000000,13,0.000000,27.538417,0.489787,99,99,0,0,0,0,0
6,69999,10,60000,37,10000,0,9999,0.100000,99,0,0.069772,12,0.000000,20.763848,0.213609,99,99,0,0,1,0,0
6,69999,11,60000,60,10000,40,9999,0.100000,99,0,0.000000,12,2.000000,25.438378,3.043173,99,99,0,0,0,0,0
6,69999,12,60000,22,20000,40,9999,0.100000,99,0,0.000000,13,0.000000,29.375131,7.126016,99,99,0,0,0,0,0
6,69999,13,60000,50,10000,40,9999,0.100000,99,0,0.000000,13,1.000000,14.745806,2.585895,99,99,0,0,0,0,0
6,69999,14,60000,1,10000,0,9999,0.100000,99,0,2.477208,13,0.000000,14.880374,1.327286,99,99,0,0,0,0,1
6,69999,15,60000,22,20000,0,9999,0.100000,99,0,0.310842,13,0.000000,23.876437,0.584029,99,99,0,0,0,0,1
6,69999,16,60000,86,10000,40,9999,0.100000,99,0,0.000000,13,0.000000,25.921392,0.936791,99,99,0,0,0,0,0
6,69999,17,60000,12,10000,0,9999,0.100000,99,0,0.002572,12,0.000000,30.083752,0.426415,99,99,0,0,0,1,0
6,69999,18,60000,85,50000,40,9999,0.100000,99,0,0.000000,13,3.000000,28.561099,5.557706,99,99,0,0,0,0,0
6,69999,19,60000,37,10000,40,9999,0.100000,99,0,0.000000,12,0.000000,38.037169,1.017065,99,99,0,0,0,0,0
6,69999,20,60000,96,0,0,9999,0.100000,99,0,0.461421,13,0.000000,22.335636,0.442269,99,99,0,0,0,0,1
6,69999,21,60000,37,10000,0,9999,0.100000,99,0,0.739842,12,0.000000,27.623114,1.849578,99,99,0,0,0,1,0
6,69999,22,60000,59,0,40,9999,0.100000,99,0,0.000000,12,0.000000,26.967231,1.807464,99,99,0,0,0,0,0
6,69999,23,60000,96,0,40,9999,0.100000,99,0,0.000000,13,0.000000,21.874742,2.819488,99,99,0,0,0,0,0
6,69999,24,60000,50,10000,40,9999,0.100000,99,0,0.000000,13,0.000000,30.125240,1.127284,99,99,0,0,0,0,0
6,69999,25,60000,11,20000,0,9999,0.100000,99,0,0.152238,12,0.000000,25.439842,0.227644,99,99,0,0,0,0,1
6,69999,26,60000,96,0,40,9999,0.100000,99,0,0.000000,13,0.000000,16.168720,2.752163,99,99,0,0,0,0,0
6,69999,27,60000,86,10000,40,9999,0.100000,99,0,0.000000,13,0.000000,22.365548,0.974724,99,99,0,0,0,0,0
6,69999,28,60000,61,0,40,9999,0.100000,99,0,0.000000,12,2.000000,28.178957,11.015251,99,99,0,0,0,0,0
6,69999,29,60000,86,50000,40,9999,0.100000,99,0,0.000000,13,3.000000,28.755835,17.299046,99,99,0,0,0,0,0
6,69999,30,60000,86,50000,1,9999,0.100000,99,0,27.470495,13,5.000000,32.653974,20.435853,99,99,0,1,0,0,0
6,69999,31,60000,86,50000,0,9999,0.100000,99,0,0.763292,13,0.000000,26.237015,1.256888,99,99,0,1,0,0,0
6,69999,32,60000,96,0,41,9999,0.100000,99,0,0.000000,12,4.000000,28.236501,17.951793,99,99,0,0,0,0,0
6,69999,33,60000,37,10000,0,9999,0.100000,99,0,0.001457,13,0.000000,26.889793,0.092164,99,99,0,0,0,0,1
6,69999,34,60000,59,0,0,9999,0.100000,99,0,13.004296,13,2.000000,25.786588,2.928589,99,99,0,0,1,0,0
6,69999,35,60000,50,10000,0,9999,0.100000,99,0,0.301513,13,0.000000,15.755716,0.316042,99,99,0,0,0,0,1
6,69999,36,60000,37,10000,0,9999,0.100000,99,0,0.133430,13,0.000000,17.912079,0.289406,99,99,0,0,0,0,1
6,69999,37,60000,22,20000,40,9999,0.100000,99,0,0.000000,13,0.000000,30.145907,0.133945,99,99,0,0,0,0,0
6,69999,38,60000,59,0,40,9999,0.100000,99,0,0.000000,12,0.000000,25.934840,0.721660,99,99,0,0,0,0,0
6,69999,39,60000,1,10000,40,9999,0.100000,99,0,0.000000,13,0.000000,28.229340,1.193499,99,99,0,0,0,0,0
6,69999,40,60000,96,0,40,9999,0.100000,99,0,0.000000,12,0.000000,28.127046,14.412786,99,99,0,0,0,0,0
6,69999,41,60000,22,20000,40,9999,0.100000,99,0,0.000000,13,0.000000,25.771091,0.466340,99,99,0,0,0,0,0
6,69999,42,60000,22,20000,41,9999,0.100000,99,0,0.000000,13,4.000000,28.002404,6.228036,99,99,0,0,0,0,0
6,69999,43,60000,60,10000,0,9999,0.100000,99,0,0.649707,13,0.000000,25.966815,0.915022,99,99,0,0,0,1,0
6,69999,44,60000,12,10000,40,9999,0.100000,99,0,0.000000,12,0.000000,27.785344,0.598869,99,99,0,0,0,0,0
6,69999,45,60000,61,0,40,9999,0.100000,99,0,0.000000,13,1.000000,27.302073,6.911778,99,99,0,0,0,0,0
6,69999,46,60000,60,10000,40,9999,0.100000,99,0,0.000000,13,0.000000,21.578954,0.162990,99,99,0,0,0,0,0
6,69999,47,60000,86,10000,40,9999,0.100000,99,0,0.000000,13,0.000000,25.354711,1.639529,99,99,0,0,0,0,0
6,69999,48,60000,86,50000,0,9999,0.100000,99,0,0.552982,13,0.000000,21.712853,0.532281,99,99,0,0,1,0,0
6,69999,49,60000,22,20000,41,9999,0.100000,99,0,0.000000,12,3.000000,27.304362,4.208622,99,99,0,0,0,0,0
6,69999,50,60000,61,0,41,9999,0.100000,99,0,0.000000,13,4.000000,28.122401,17.999392,99,99,0,0,0,0,0
6,69999,51,60000,22,20000,40,9999,0.100000,99,0,0.000000,12,0.000000,15.525135,0.335246,99,99,0,0,0,0,0
6,69999,52,60000,96,0,40,9999,0.100000,99,0,0.000000,13,0.000000,21.917301,1.641218,99,99,0,0,0,0,0
6,69999,53,60000,96,0,40,9999,0.100000,99,0,0.000000,13,0.000000,17.107558,0.177586,99,99,0,0,0,0,0
6,69999,54,60000,96,0,40,9999,0.100000,99,0,0.000000,13,1.000000,34.967154,9.737054,99,99,0,0,0,0,0
6,69999,55,60000,37,10000,40,9999,0.100000,99,0,0.000000,13,2.000000,33.336730,8.202801,99,99,0,0,0,0,0
6,69999,56,60000,22,20000,40,9999,0.100000,99,0,0.000000,12,0.000000,30.134109,2.721378,99,99,0,0,0,0,0
6,69999,57,60000,1,10000,40,9999,0.100000,99,0,0.000000,13,0.000000,23.955489,0.356475,99,99,0,0,0,0,0
6,69999,58,60000,60,10000,40,9999,0.100000,99,0,0.000000,13,0.000000,15.967236,0.628840,99,99,0,0,0,0,0
6,69999,59,60000,61,0,40,9999,0.100000,99,0,0.000000,13,0.000000,23.775791,0.165247,99,99,0,0,0,0,0
6,69999,60,60000,89,0,40,9999,0.100000,99,0,0.000000,13,1.000000,30.328152,7.198913,99,99,0,0,0,0,0
6,69999,61,60000,37,10000,40,9999,0.100000,99,0,0.000000,12,1.000000,30.280851,9.385141,99,99,0,0,0,0,0
6,69999,62,60000,60,10000,0,9999,0.100000,99,0,0.003991,13,0.000000,27.599018,0.098855,99,99,0,0,0,0,1
6,69999,63,60000,50,10000,40,9999,0.100000,99,0,0.000000,12,0.000000,37.932869,1.265327,99,99,0,0,0,0,0
6,69999,64,60000,22,20000,40,9999,0.100000,99,0,0.000000,12,0.000000,27.195048,5.708739,99,99,0,0,0,0,0
6,69999,65,60000,1,10000,40,9999,0.100000,99,0,0.000000,13,0.000000,14.982647,0.930655,99,99,0,0,0,0,0
6,69999,66,60000,12,10000,40,9999,0.100000,99,0,0.000000,13,0.000000,25.945362,0.687203,99,99,0,0,0,0,0
6,69999,67,60000,86,50000,40,9999,0.100000,99,0,0.000000,13,0.000000,29.277389,0.531467,99,99,0,0,0,0,0
6,69999,68,60000,86,50000,40,9999,0.100000,99,0,0.000000,13,0.000000,15.422642,0.454933,99,99,0,0,0,0,0
6,69999,69,60000,11,20000,40,9999,0.100000,99,0,0.000000,12,0.000000,20.896113,0.287621,99,99,0,0,0,0,0
6,69999,70,60000,85,50000,41,9999,0.100000,99,0,0.000000,13,6.000000,30.707186,12.512927,99,99,0,0,0,0,0
6,69999,71,60000,89,0,40,9999,0.100000,99,0,0.000000,13,0.000000,32.772313,0.252170,99,99,0,0,0,0,0
6,69999,72,60000,86,10000,43,9999,0.100000,99,0,0.000000,13,6.000000,16.399606,17.954172,99,99,0,0,0,0,0
6,69999,73,60000,50,10000,41,9999,0.100000,99,0,0.000000,12,4.000000,22.050646,6.461149,99,99,0,0,0,0,0
6,69999,74,60000,1,10000,40,9999,0.100000,99,0,0.000000,12,1.000000,28.236096,12.595506,99,99,0,0,0,0,0
6,69999,75,60000,96,0,40,9999,0.100000,99,0,0.000000,13,0.000000,31.515435,1.153374,99,99,0,0,0,0,0
6,69999,76,60000,96,0,0,9999,0.100000,99,0,0.239668,13,0.000000,25.449605,0.248556,99,99,0,1,0,0,0
6,69999,77,60000,86,10000,41,9999,0.100000,99,0,0.000000,12,5.000000,24.879510,16.660447,99,99,0,0,0,0,0
6,69999,78,60000,60,10000,41,9999,0.100000,99,0,0.000000,12,3.000000,27.966751,16.003586,99,99,0,0,0,0,0
6,69999,79,60000,86,50000,40,9999,0.100000,99,0,0.000000,13,2.000000,27.811731,14.328247,99,99,0,0,0,0,0
6,69999,80,60000,86,10000,40,9999,0.100000,99,0,0.000000,12,0.000000,29.521034,0.204359,99,99,0,0,0,0,0
6,69999,81,60000,59,0,40,9999,0.100000,99,0,0.000000,13,0.000000,28.697339,0.736843,99,99,0,0,0,0,0
6,69999,82,60000,89,0,40,9999,0.100000,99,0,0.000000,13,0.000000,31.355886,0.137273,99,99,0,0,0,0,0
6,69999,83,60000,22,20000,41,9999,0.100000,99,0,0.000000,12,4.000000,28.046984,5.990516,99,99,0,0,0,0,0
6,69999,84,60000,89,0,1,9999,0.100000,99,0,27.470495,13,5.000000,32.419779,11.424518,99,99,0,1,0,0,0
6,69999,85,60000,37,10000,40,9999,0.100000,99,0,0.000000,13,1.000000,32.843573,6.806161,99,99,0,0,0,0,0
6,69999,86,60000,61,0,40,9999,0.100000,99,0,0.000000,13,0.000000,15.028793,0.254253,99,99,0,0,0,0,0
6,69999,87,60000,37,10000,40,9999,0.100000,99,0,0.000000,12,0.000000,22.194025,5.085428,99,99,0,0,0,0,0
6,69999,88,60000,1,10000,0,9999,0.100000,99,0,0.104367,13,0.000000,31.494354,0.199169,99,99,0,0,1,0,0
6,69999,89,60000,96,0,40,9999,0.100000,99,0,0.000000,13,0.000000,28.790455,8.379757,99,99,0,0,0,0,0
6,69999,90,60000,61,0,42,9999,0.100000,99,0,0.000000,13,6.000000,21.715408,8.539527,99,99,0,0,0,0,0
6,69999,91,60000,50,10000,40,9999,0.100000,99,0,0.000000,12,0.000000,21.349785,0.167644,99,99,0,0,0,0,0
6,69999,92,60000,22,20000,40,9999,0.100000,99,0,0.000000,13,0.000000,29.387294,1.692358,99,99,0,0,0,0,0
6,69999,93,60000,22,20000,40,9999,0.100000,99,0,0.000000,13,0.000000,23.867646,2.885514,99,99,0,0,0,0,0
6,69999,94,60000,1,10000,40,9999,0.100000,99,0,0.000000,13,2.000000,28.303673,13.339636,99,99,0,0,0,0,0
6,69999,95,60000,60,10000,40,9999,0.100000,99,0,0.000000,13,0.000000,27.642047,0.497809,99,99,0,0,0,0,0
6,69999,96,60000,96,0,40,9999,0.100000,99,0,0.000000,13,0.000000,26.794573,17.291828,99,99,0,0,0,0,0
6,69999,97,60000,11,20000,40,9999,0.100000,99,0,0.000000,13,2.000000,25.609240,2.904484,99,99,0,0,0,0,0
6,69999,98,60000,96,0,40,9999,0.100000,99,0,0.000000,13,0.000000,23.601856,0.274172,99,99,0,0,0,0,0
6,69999,99,60000,61,0,0,9999,0.100000,99,0,0.548863,13,0.000000,26.724241,0.552194,99,99,0,0,0,1,0
7,79999,0,70000,89,0,40,9999,0.100000,99,0,0.000000,13,0.000000,36.677933,0.193842,99,99,0,0,0,0,0
7,79999,1,70000,37,10000,0,9999,0.100000,99,0,0.013288,13,0.000000,21.492303,0.120443,99,99,0,0,0,1,0
7,79999,2,70000,89,0,43,9999,0.100000,99,0,0.000000,13,10.000000,29.142687,15.103681,99,99,0,0,0,0,0
7,79999,3,70000,61,0,0,9999,0.100000,99,0,0.377230,13,0.000000,25.068375,1.619199,99,99,0,0,1,0,0
7,79999,4,70000,60,10000,40,9999,0.100000,99,0,0.000000,13,0.000000,20.399320,0.076621,99,99,0,0,0,0,0
7,79999,5,70000,60,10000,0,9999,0.100000,99,0,0.000154,13,0.000000,21.158082,0.081736,99,99,0,0,0,0,1
7,79999,6,70000,50,10000,40,9999,0.100000,99,0,0.000000,13,0.000000,18.313099,0.478634,99,99,0,0,0,0,0
7,79999,7,70000,50,10000,0,9999,0.100000,99,0,0.015300,13,0.000000,22.559271,0.192708,99,99,0,0,1,0,0
7,79999,8,70000,60,10000,0,9999,0.100000,99,0,0.282476,13,0.000000,30.627605,0.257970,99,99,0,0,0,1,0
7,79999,9,70000,60,10000,40,9999,0.100000,99,0,0.000000,13,0.000000,27.161735,0.332387,99,99,0,0,0,0,0
7,79999,10,70000,22,20000,0,9999,0.100000,99,0,0.043427,13,0.000000,20.786866,0.205039,99,99,0,0,1,0,0
7,79999,11,70000,61,0,40,9999,0.100000,99,0,0.000000,13,0.000000,27.848687,1.089473,99,99,0,0,0,0,0
7,79999,12,70000,85,50000,40,9999,0.100000,99,0,0.000000,13,0.000000,29.347670,8.304249,99,99,0,0,0,0,0
7,79999,13,70000,12,10000,40,9999,0.100000,99,0,0.000000,13,0.000000,16.044653,0.631229,99,99,0,0,0,0,0
7,79999,14,70000,1,10000,0,9999,0.100000,99,0,1.637412,13,0.000000,15.476567,0.376096,99,99,0,0,0,0,1
7,79999,15,70000,37,10000,0,9999,0.100000,99,0,0.014278,13,0.000000,23.795098,0.671731,99,99,0,0,0,0,1
7,79999,16,70000,37,10000,0,9999,0.100000,99,0,1.226742,13,0.000000,25.798612,0.907329,99,99,0,0,0,1,0
7,79999,17,70000,96,0,40,9999,0.100000,99,0,0.000000,13,0.000000,30.060936,1.130106,99,99,0,0,0,0,0
7,79999,18,70000,89,0,41,9999,0.100000,99,0,0.000000,13,3.000000,24.893671,7.514977,99,99,0,0,0,0,0
7,79999,19,70000,37,10000,40,9999,0.100000,99,0,0.000000,13,0.000000,37.988924,1.395697,99,99,0,0,0,0,0
7,79999,20,70000,86,50000,0,9999,0.100000,99,0,0.319043,13,0.000000,22.572306,0.094050,99,99,0,0,0,0,1
7,79999,21,70000,22,20000,0,9999,0.100000,99,0,0.772326,13,0.000000,27.009265,0.293083,99,99,0,0,0,1,0
7,79999,22,70000,61,0,40,9999,0.100000,99,0,0.000000,13,2.000000,27.529588,4.733193,99,99,0,0,0,0,0
7,79999,23,70000,37,10000,40,9999,0.100000,99,0,0.000000,13,0.000000,22.496879,1.467757,99,99,0,0,0,0,0
7,79999,24,70000,60,10000,40,9999,0.100000,99,0,0.000000,13,0.000000,30.276171,1.037345,99,99,0,0,0,0,0
7,79999,25,70000,96,0,40,9999,0.100000,99,0,0.000000,13,0.000000,25.564986,0.122708,99,99,0,0,0,0,0
7,79999,26,70000,86,10000,40,9999,0.100000,99,0,0.000000,13,0.000000,15.977287,0.506082,99,99,0,0,0,0,0
7,79999,27,70000,37,10000,40,9999,0.100000,99,0,0.000000,13,0.000000,21.920552,0.802854,99,99,0,0,0,0,0
7,79999,28,70000,61,0,40,9999,0.100000,99,0,0.000000,13,0.000000,25.741705,6.292968,99,99,0,0,0,0,0
7,79999,29,70000,50,10000,40,9999,0.100000,99,0,0.000000,13,0.000000,27.823541,6.519957,99,99,0,0,0,0,0
7,79999,30,70000,1,10000,40,9999,0.100000,99,0,0.000000,13,3.000000,35.388321,15.349952,99,99,0,0,0,0,0
7,79999,31,70000,59,0,0,9999,0.100000,99,0,5.082862,13,0.000000,25.520233,1.100179,99,99,0,1,0,0,0
7,79999,32,70000,22,20000,42,9999,0.100000,99,0,0.000000,13,8.000000,30.699174,17.115659,99,99,0,0,0,0,0
7,79999,33,70000,12,10000,0,9999,0.100000,99,0,0.001575,13,0.000000,26.890484,0.088820,99,99,0,0,0,0,1
7,79999,34,70000,59,0,0,9999,0.100000,99,0,3.144372,13,0.000000,28.187053,0.894788,99,99,0,0,1,0,0
7,79999,35,70000,89,0,0,9999,0.100000,99,0,0.364489,13,0.000000,15.803429,0.159054,99,99,0,0,0,0,1
7,79999,36,70000,1,10000,40,9999,0.100000,99,0,0.000000,13,0.000000,17.934946,4.879507,99,99,0,0,0,0,0
7,79999,37,70000,37,10000,40,9999,0.100000,99,0,0.000000,13,0.000000,30.145748,0.138575,99,99,0,0,0,0,0
7,79999,38,70000,96,0,40,9999,0.100000,99,0,0.000000,13,0.000000,25.783113,0.878691,99,99,0,0,0,0,0
7,79999,39,70000,86,10000,40,9999,0.100000,99,0,0.000000,13,3.000000,28.538373,5.950906,99,99,0,0,0,0,0
7,79999,40,70000,22,20000,40,9999,0.100000,99,0,0.000000,13,1.000000,28.627417,5.230252,99,99,0,0,0,0,0
7,79999,41,70000,89,0,0,9999,0.100000,99,0,0.003502,13,0.000000,25.941560,0.389227,99,99,0,0,0,0,1
7,79999,42,70000,22,20000,40,9999,0.100000,99,0,0.000000,13,0.000000,23.536892,0.356262,99,99,0,0,0,0,0
7,79999,43,70000,96,0,40,9999,0.100000,99,0,0.000000,13,0.000000,25.754966,0.899071,99,99,0,0,0,0,0
7,79999,44,70000,86,10000,40,9999,0.100000,99,0,0.000000,13,0.000000,27.404960,0.444888,99,99,0,0,0,0,0
7,79999,45,70000,89,0,40,9999,0.100000,99,0,0.000000,13,0.000000,25.969378,1.936624,99,99,0,0,0,0,0
7,79999,46,70000,60,10000,40,9999,0.100000,99,0,0.000000,13,0.000000,21.568974,0.166593,99,99,0,0,0,0,0
7,79999,47,70000,59,0,40,9999,0.100000,99,0,0.000000,13,0.000000,25.367005,1.175938,99,99,0,0,0,0,0
7,79999,48,70000,60,10000,0,9999,0.065000,99,0,1.689468,13,0.000000,21.407698,0.596208,99,99,0,0,1,0,0
7,79999,49,70000,96,0,40,9999,0.100000,99,0,0.000000,13,0.000000,30.378188,0.351475,99,99,0,0,0,0,0
7,79999,50,70000,86,10000,42,9999,0.100000,99,0,0.000000,13,8.000000,30.585309,17.113642,99,99,0,0,0,0,0
7,79999,51,70000,61,0,40,9999,0.100000,99,0,0.000000,13,0.000000,15.572144,0.181660,99,99,0,0,0,0,0
7,79999,52,70000,50,10000,40,9999,0.100000,99,0,0.000000,13,0.000000,22.357579,2.250230,99,99,0,0,0,0,0
7,79999,53,70000,1,10000,0,9999,0.100000,99,0,0.262620,13,0.000000,17.156887,0.408189,99,99,0,0,0,0,1
7,79999,54,70000,12,10000,40,9999,0.100000,99,0,0.000000,13,1.000000,35.078931,13.457789,99,99,0,0,0,0,0
7,79999,55,70000,96,0,40,9999,0.100000,99,0,0.000000,13,0.000000,31.751480,8.819278,99,99,0,0,0,0,0
7,79999,56,70000,85,50000,40,9999,0.100000,99,0,0.000000,13,0.000000,30.448153,0.251883,99,99,0,0,0,0,0
7,79999,57,70000,61,0,40,9999,0.100000,99,0,0.000000,13,0.000000,23.886975,0.109008,99,99,0,0,0,0,0
7,79999,58,70000,96,0,40,9999,0.100000,99,0,0.000000,13,0.000000,16.007578,0.542392,99,99,0,0,0,0,0
7,79999,59,70000,86,10000,40,9999,0.100000,99,0,0.000000,13,0.000000,23.699681,0.099684,99,99,0,0,0,0,0
7,79999,60,70000,86,50000,40,9999,0.100000,99,0,0.000000,13,2.000000,29.613730,17.314604,99,99,0,0,0,0,0
7,79999,61,70000,86,10000,40,9999,0.100000,99,0,0.000000,13,0.000000,30.791678,0.451504,99,99,0,0,0,0,0
7,79999,62,70000,1,10000,0,9999,0.100000,99,0,0.002037,13,0.000000,27.603372,0.081773,99,99,0,0,0,0,1
7,79999,63,70000,22,20000,40,9999,0.100000,99,0,0.000000,13,0.000000,37.961491,1.533788,99,99,0,0,0,0,0
7,79999,64,70000,61,0,0,9999,0.100000,99,0,0.004086,13,0.000000,26.554894,1.505173,99,99,0,0,0,1,0
7,79999,65,70000,59,0,40,9999,0.100000,99,0,0.000000,13,0.000000,15.628301,0.462360,99,99,0,0,0,0,0
7,79999,66,70000,96,0,40,9999,0.100000,99,0,0.000000,13,0.000000,25.763543,0.763675,99,99,0,0,0,0,0
7,79999,67,70000,12,10000,0,9999,0.100000,99,0,0.331448,13,0.000000,29.335985,0.569600,99,99,0,0,0,1,0
7,79999,68,70000,61,0,40,9999,0.100000,99,0,0.000000,13,0.000000,15.483904,0.188535,99,99,0,0,0,0,0
7,79999,69,70000,61,0,40,9999,0.100000,99,0,0.000000,13,0.000000,20.946978,0.134510,99,99,0,0,0,0,0
7,79999,70,70000,50,10000,40,9999,0.100000,99,0,0.000000,13,0.000000,31.006163,0.267131,99,99,0,0,0,0,0
7,79999,71,70000,89,0,40,9999,0.100000,99,0,0.000000,13,0.000000,32.772582,0.242651,99,99,0,0,0,0,0
7,79999,72,70000,1,10000,40,9999,0.100000,99,0,0.000000,13,0.000000,15.869420,18.356191,99,99,0,0,0,0,0
7,79999,73,70000,61,0,41,9999,0.100000,99,0,0.000000,13,3.000000,21.087322,4.848589,99,99,0,0,0,0,0
7,79999,74,70000,60,10000,40,9999,0.100000,99,0,0.000000,13,1.000000,29.760047,1.197021,99,99,0,0,0,0,0
7,79999,75,70000,85,50000,40,9999,0.100000,99,0,0.000000,13,0.000000,31.234308,1.363923,99,99,0,0,0,0,0
7,79999,76,70000,1,10000,0,9999,0.100000,99,0,0.228635,13,0.000000,25.421551,0.175833,99,99,0,1,0,0,0
7,79999,77,70000,85,50000,41,9999,0.100000,99,0,0.000000,13,4.000000,30.126457,11.348863,99,99,0,0,0,0,0
7,79999,78,70000,86,10000,40,9999,0.100000,99,0,0.000000,13,2.000000,25.816462,5.219688,99,99,0,0,0,0,0
7,79999,79,70000,37,10000,40,9999,0.100000,99,0,0.000000,13,1.000000,29.785214,8.191951,99,99,0,0,0,0,0
7,79999,80,70000,60,10000,40,9999,0.100000,99,0,0.000000,13,0.000000,29.571302,0.178356,99,99,0,0,0,0,0
7,79999,81,70000,50,10000,0,9999,0.100000,99,0,3.101324,13,0.000000,28.939153,1.190967,99,99,0,0,0,1,0
7,79999,82,70000,50,10000,40,9999,0.100000,99,0,0.000000,13,0.000000,31.356881,0.111472,99,99,0,0,0,0,0
7,79999,83,70000,61,0,0,9999,0.100000,99,0,0.122229,13,1.000000,27.000790,7.262216,99,99,0,0,1,0,0
7,79999,84,70000,89,0,41,9999,0.100000,99,0,0.000000,13,4.000000,33.940997,9.079648,99,99,0,0,0,0,0
7,79999,85,70000,59,0,41,9999,0.100000,99,0,0.000000,13,6.000000,33.277019,14.707906,99,99,0,0,0,0,0
7,79999,86,70000,1,10000,40,9999,0.100000,99,0,0.000000,13,0.000000,15.080888,0.117290,99,99,0,0,0,0,0
7,79999,87,70000,59,0,40,9999,0.100000,99,0,0.000000,13,0.000000,22.671754,0.082506,99,99,0,0,0,0,0
7,79999,88,70000,60,10000,0,9999,0.100000,99,0,0.039526,13,0.000000,31.500119,0.185135,99,99,0,0,1,0,0
7,79999,89,70000,61,0,42,9999,0.100000,99,0,0.000000,13,7.000000,28.786974,9.371045,99,99,0,0,0,0,0
7,79999,90,70000,86,50000,41,9999,0.100000,99,0,0.000000,13,3.000000,17.798597,6.142319,99,99,0,0,0,0,0
7,79999,91,70000,37,10000,40,9999,0.100000,99,0,0.000000,13,0.000000,21.346815,0.191459,99,99,0,0,0,0,0
7,79999,92,70000,85,50000,40,9999,0.100000,99,0,0.000000,13,0.000000,29.469510,1.343172,99,99,0,0,0,0,0
7,79999,93,70000,50,10000,40,9999,0.100000,99,0,0.000000,13,0.000000,23.645536,2.322113,99,99,0,0,0,0,0
7,79999,94,70000,12,10000,41,9999,0.100000,99,0,0.000000,13,4.000000,27.532450,10.246056,99,99,0,0,0,0,0
7,79999,95,70000,86,50000,40,9999,0.100000,99,0,0.000000,13,0.000000,27.262387,0.336418,99,99,0,0,0,0,0
7,79999,96,70000,61,0,40,9999,0.100000,99,0,0.000000,13,0.000000,26.727317,21.070187,99,99,0,0,0,0,0
7,79999,97,70000,22,20000,40,9999,0.100000,99,0,0.000000,13,0.000000,28.017063,0.795787,99,99,0,0,0,0,0
7,79999,98,70000,22,20000,40,9999,0.100000,99,0,0.000000,13,0.000000,23.527452,0.414082,99,99,0,0,0,0,0
7,79999,99,70000,60,10000,40,9999,0.100000,99,0,0.000000,13,0.000000,26.379388,0.388930,99,99,0,0,0,0,0
8,89999,0,80000,60,10000,40,9999,0.100000,99,0,0.000000,13,0.000000,36.677358,0.178197,99,99,0,0,0,0,0
8,89999,1,80000,12,10000,0,9999,0.100000,99,0,0.026260,13,0.000000,21.493392,0.108026,99,99,0,0,0,1,0
8,89999,2,80000,86,10000,2,9999,0.100000,99,0,0.000000,13,6.000000,27.033920,9.328547,99,99,0,0,1,0,0
8,89999,3,80000,61,0,0,9999,0.100000,99,0,2.172753,13,0.000000,24.985482,2.129346,99,99,0,0,1,0,0
8,89999,4,80000,1,10000,0,9999,0.100000,99,0,0.000244,13,0.000000,20.398959,0.076921,99,99,0,0,0,0,1
8,89999,5,80000,86,10000,40,9999,0.100000,99,0,0.000000,13,0.000000,21.157640,0.080489,99,99,0,0,0,0,0
8,89999,6,80000,37,10000,40,9999,0.100000,99,0,0.000000,13,0.000000,18.325114,0.511574,99,99,0,0,0,0,0
8,89999,7,80000,37,10000,0,9999,0.100000,99,0,0.015723,13,0.000000,22.561141,0.187730,99,99,0,0,1,0,0
8,89999,8,80000,60,10000,0,9999,0.100000,99,0,1.251751,13,0.000000,30.713450,0.397557,99,99,0,0,0,1,0
8,89999,9,80000,86,10000,40,9999,0.100000,99,0,0.000000,13,0.000000,26.906412,0.479544,99,99,0,0,0,0,0
8,89999,10,80000,1,10000,0,9999,0.100000,99,0,0.046070,13,0.000000,20.792034,0.219669,99,99,0,0,1,0,0
8,89999,11,80000,60,10000,0,9999,0.100000,99,0,1.249147,13,0.000000,28.436005,0.863820,99,99,0,0,1,0,0
8,89999,12,80000,59,0,40,9999,0.100000,99,0,0.000000,13,3.000000,29.358383,14.902006,99,99,0,0,0,0,0
8,89999,13,80000,22,20000,40,9999,0.100000,99,0,0.000000,13,0.000000,16.219269,1.687610,99,99,0,0,0,0,0
8,89999,14,80000,60,10000,0,9999,0.100000,99,0,2.475179,13,0.000000,15.719407,0.552954,99,99,0,0,0,0,1
8,89999,15,80000,12,10000,0,9999,0.100000,99,0,0.194254,13,0.000000,23.798891,0.676439,99,99,0,0,0,0,1
8,89999,16,80000,89,0,0,9999,0.100000,99,0,1.091861,13,0.000000,25.525497,0.907153,99,99,0,0,0,1,0
8,89999,17,80000,96,0,40,9999,0.100000,99,0,0.000000,13,0.000000,30.242912,0.991971,99,99,0,0,0,0,0
8,89999,18,80000,1,10000,40,9999,0.100000,99,0,0.000000,13,0.000000,25.691534,1.020039,99,99,0,0,0,0,0
8,89999,19,80000,61,0,40,9999,0.100000,99,0,0.000000,13,0.000000,37.998746,1.822341,99,99,0,0,0,0,0
8,89999,20,80000,59,0,0,9999,0.100000,99,0,0.037042,13,0.000000,22.534286,0.121818,99,99,0,0,0,0,1
8,89999,21,80000,60,10000,0,9999,0.100000,99,0,0.538189,13,0.000000,26.764963,0.378320,99,99,0,0,0,1,0
8,89999,22,80000,12,10000,40,9999,0.100000,99,0,0.000000,13,2.000000,27.862413,7.801251,99,99,0,0,0,0,0
8,89999,23,80000,59,0,40,9999,0.100000,99,0,0.000000,13,0.000000,22.378996,0.145511,99,99,0,0,0,0,0
8,89999,24,80000,1,10000,40,9999,0.100000,99,0,0.000000,13,0.000000,30.461905,0.925499,99,99,0,0,0,0,0
8,89999,25,80000,22,20000,0,9999,0.100000,99,0,0.012403,13,0.000000,25.578036,0.113881,99,99,0,0,0,0,1
8,89999,26,80000,60,10000,40,9999,0.100000,99,0,0.000000,13,0.000000,15.964359,0.501621,99,99,0,0,0,0,0
8,89999,27,80000,85,50000,42,9999,0.100000,99,0,0.000000,13,6.000000,21.274837,13.310050,99,99,0,0,0,0,0
8,89999,28,80000,96,0,40,9999,0.100000,99,0,0.000000,13,2.000000,25.859027,2.997445,99,99,0,0,0,0,0
8,89999,29,80000,89,0,40,9999,0.100000,99,0,0.000000,13,0.000000,27.917501,4.601779,99,99,0,0,0,0,0
8,89999,30,80000,85,50000,40,9999,0.100000,99,0,0.000000,13,0.000000,33.866541,10.297828,99,99,0,0,0,0,0
8,89999,31,80000,1,10000,41,9999,0.100000,99,0,0.000000,13,3.000000,26.400125,10.501603,99,99,0,0,0,0,0
8,89999,32,80000,12,10000,41,9999,0.100000,99,0,0.000000,13,3.000000,26.303163,14.524803,99,99,0,0,0,0,0
8,89999,33,80000,96,0,0,9999,0.100000,99,0,0.001301,13,0.000000,26.891606,0.088020,99,99,0,0,0,0,1
8,89999,34,80000,50,10000,40,9999,0.100000,99,0,0.000000,13,0.000000,28.750874,0.863925,99,99,0,0,0,0,0
8,89999,35,80000,96,0,0,9999,0.100000,99,0,0.371454,13,0.000000,15.801123,0.151237,99,99,0,0,0,0,1
8,89999,36,80000,1,10000,40,9999,0.100000,99,0,0.000000,13,0.000000,17.844273,1.168270,99,99,0,0,0,0,0
8,89999,37,80000,89,0,40,9999,0.100000,99,0,0.000000,13,0.000000,30.145470,0.143747,99,99,0,0,0,0,0
8,89999,38,80000,22,20000,40,9999,0.100000,99,0,0.000000,13,0.000000,25.466577,0.936568,99,99,0,0,0,0,0
8,89999,39,80000,60,10000,42,9999,0.100000,99,0,0.000000,13,7.000000,28.110787,18.229475,99,99,0,0,0,0,0
8,89999,40,80000,86,10000,40,9999,0.100000,99,0,0.000000,13,0.000000,29.646433,15.133395,99,99,0,0,0,0,0
8,89999,41,80000,37,10000,40,9999,0.100000,99,0,0.000000,13,0.000000,25.883739,3.424394,99,99,0,0,0,0,0
8,89999,42,80000,22,20000,40,9999,0.100000,99,0,0.000000,13,0.000000,23.526262,0.431612,99,99,0,0,0,0,0
8,89999,43,80000,89,0,40,9999,0.100000,99,0,0.000000,13,0.000000,25.352231,0.776716,99,99,0,0,0,0,0
8,89999,44,80000,61,0,40,9999,0.100000,99,0,0.000000,13,0.000000,27.138940,0.501907,99,99,0,0,0,0,0
8,89999,45,80000,85,50000,40,9999,0.100000,99,0,0.000000,13,0.000000,26.019940,0.091974,99,99,0,0,0,0,0
8,89999,46,80000,86,50000,40,9999,0.100000,99,0,0.000000,13,0.000000,21.565737,0.149054,99,99,0,0,0,0,0
8,89999,47,80000,96,0,40,9999,0.100000,99,0,0.000000,13,0.000000,25.286967,1.721333,99,99,0,0,0,0,0
8,89999,48,80000,86,10000,0,9999,0.100000,99,0,4.322194,13,0.000000,20.940310,0.626529,99,99,0,0,1,0,0
8,89999,49,80000,37,10000,40,9999,0.100000,99,0,0.000000,13,0.000000,30.391444,0.343151,99,99,0,0,0,0,0
8,89999,50,80000,86,10000,41,9999,0.100000,99,0,0.000000,13,3.000000,26.191232,14.527357,99,99,0,0,0,0,0
8,89999,51,80000,86,50000,40,9999,0.100000,99,0,0.000000,13,0.000000,15.570086,0.183926,99,99,0,0,0,0,0
8,89999,52,80000,50,10000,40,9999,0.100000,99,0,0.000000,13,0.000000,22.244721,0.234655,99,99,0,0,0,0,0
8,89999,53,80000,96,0,40,9999,0.100000,99,0,0.000000,13,0.000000,17.223346,1.675116,99,99,0,0,0,0,0
8,89999,54,80000,96,0,40,9999,0.100000,99,0,0.000000,13,0.000000,34.007606,9.706862,99,99,0,0,0,0,0
8,89999,55,80000,22,20000,0,9999,0.100000,99,0,0.634834,13,2.000000,31.916114,6.709336,99,99,0,0,0,1,0
8,89999,56,80000,61,0,40,9999,0.100000,99,0,0.000000,13,0.000000,30.575095,0.374276,99,99,0,0,0,0,0
8,89999,57,80000,96,0,40,9999,0.100000,99,0,0.000000,13,0.000000,23.895339,0.117474,99,99,0,0,0,0,0
8,89999,58,80000,85,50000,40,9999,0.100000,99,0,0.000000,13,0.000000,15.997843,0.536858,99,99,0,0,0,0,0
8,89999,59,80000,89,0,40,9999,0.100000,99,0,0.000000,13,0.000000,23.702709,0.106218,99,99,0,0,0,0,0
8,89999,60,80000,85,50000,42,9999,0.100000,99,0,0.000000,13,9.000000,31.438225,22.010390,99,99,0,0,0,0,0
8,89999,61,80000,37,10000,40,9999,0.100000,99,0,0.000000,13,0.000000,30.996595,0.510792,99,99,0,0,0,0,0
8,89999,62,80000,96,0,0,9999,0.100000,99,0,0.002394,13,0.000000,27.602945,0.082120,99,99,0,0,0,0,1
8,89999,63,80000,1,10000,40,9999,0.100000,99,0,0.000000,13,0.000000,38.009909,1.450943,99,99,0,0,0,0,0
8,89999,64,80000,37,10000,0,9999,0.100000,99,0,0.000528,13,0.000000,26.195228,0.240160,99,99,0,0,0,1,0
8,89999,65,80000,37,10000,40,9999,0.100000,99,0,0.000000,13,0.000000,15.851035,0.595201,99,99,0,0,0,0,0
8,89999,66,80000,22,20000,40,9999,0.100000,99,0,0.000000,13,0.000000,25.402773,0.726442,99,99,0,0,0,0,0
8,89999,67,80000,96,0,0,9999,0.100000,99,0,0.252320,13,0.000000,29.323721,0.341984,99,99,0,0,0,1,0
8,89999,68,80000,37,10000,40,9999,0.100000,99,0,0.000000,13,0.000000,15.481197,0.193516,99,99,0,0,0,0,0
8,89999,69,80000,86,10000,40,9999,0.100000,99,0,0.000000,13,0.000000,20.951250,0.131033,99,99,0,0,0,0,0
8,89999,70,80000,86,50000,40,9999,0.100000,99,0,0.000000,13,0.000000,31.012542,0.413205,99,99,0,0,0,0,0
8,89999,71,80000,22,20000,40,9999,0.100000,99,0,0.000000,13,0.000000,32.774418,0.228802,99,99,0,0,0,0,0
8,89999,72,80000,59,0,42,9999,0.100000,99,0,0.000000,13,5.000000,16.045322,15.382900,99,99,0,0,0,0,0
8,89999,73,80000,61,0,40,9999,0.100000,99,0,0.000000,13,0.000000,19.964880,1.512081,99,99,0,0,0,0,0
8,89999,74,80000,60,10000,40,9999,0.100000,99,0,0.000000,13,0.000000,30.074528,0.939424,99,99,0,0,0,0,0
8,89999,75,80000,86,50000,40,9999,0.100000,99,0,0.000000,13,0.000000,30.900834,1.188922,99,99,0,0,0,0,0
8,89999,76,80000,12,10000,0,9999,0.100000,99,0,0.244872,13,0.000000,25.374258,0.173579,99,99,0,1,0,0,0
8,89999,77,80000,22,20000,41,9999,0.100000,99,0,0.000000,13,4.000000,27.597847,11.791218,99,99,0,0,0,0,0
8,89999,78,80000,85,50000,40,9999,0.100000,99,0,0.000000,13,2.000000,25.834436,3.807013,99,99,0,0,0,0,0
8,89999,79,80000,89,0,40,9999,0.100000,99,0,0.000000,13,3.000000,29.286926,15.371088,99,99,0,0,0,0,0
8,89999,80,80000,12,10000,40,9999,0.100000,99,0,0.000000,13,0.000000,29.558350,0.267744,99,99,0,0,0,0,0
8,89999,81,80000,60,10000,40,9999,0.100000,99,0,0.000000,13,0.000000,29.798161,0.527254,99,99,0,0,0,0,0
8,89999,82,80000,59,0,0,9999,0.100000,99,0,0.381658,13,0.000000,31.337618,0.476143,99,99,0,0,1,0,0
8,89999,83,80000,89,0,0,9999,0.100000,99,0,0.000000,13,0.000000,27.059630,3.675166,99,99,0,0,1,0,0
8,89999,84,80000,60,10000,92,9999,0.100000,99,0,43.082222,13,8.000000,31.130874,16.699966,99,99,1,0,0,0,0
8,89999,85,80000,50,10000,40,9999,0.100000,99,0,0.000000,13,1.000000,29.585419,6.015447,99,99,0,0,0,0,0
8,89999,86,80000,89,0,40,9999,0.100000,99,0,0.000000,13,0.000000,15.082343,0.111332,99,99,0,0,0,0,0
8,89999,87,80000,96,0,40,9999,0.100000,99,0,0.000000,13,1.000000,22.638951,2.373951,99,99,0,0,0,0,0
8,89999,88,80000,86,10000,40,9999,0.100000,99,0,0.000000,13,0.000000,31.477574,0.556442,99,99,0,0,0,0,0
8,89999,89,80000,85,50000,41,9999,0.100000,99,0,0.000000,13,3.000000,26.350719,7.055806,99,99,0,0,0,0,0
8,89999,90,80000,89,0,40,9999,0.100000,99,0,0.000000,13,0.000000,17.882740,0.231408,99,99,0,0,0,0,0
8,89999,91,80000,86,10000,40,9999,0.100000,99,0,0.000000,13,0.000000,21.356658,0.163529,99,99,0,0,0,0,0
8,89999,92,80000,89,0,40,9999,0.100000,99,0,0.000000,13,0.000000,29.476658,1.956088,99,99,0,0,0,0,0
8,89999,93,80000,89,0,40,9999,0.100000,99,0,0.000000,13,0.000000,23.651295,2.222482,99,99,0,0,0,0,0
8,89999,94,80000,59,0,0,9999,0.100000,99,0,0.000000,13,0.000000,28.028451,1.317759,99,99,0,0,1,0,0
8,89999,95,80000,89,0,40,9999,0.100000,99,0,0.000000,13,0.000000,27.004666,0.397691,99,99,0,0,0,0,0
8,89999,96,80000,86,50000,40,9999,0.100000,99,0,0.000000,13,1.000000,26.338500,18.122622,99,99,0,0,0,0,0
8,89999,97,80000,37,10000,40,9999,0.100000,99,0,0.000000,13,0.000000,28.596773,0.510502,99,99,0,0,0,0,0
8,89999,98,80000,86,50000,40,9999,0.100000,99,0,0.000000,13,0.000000,23.523015,0.547355,99,99,0,0,0,0,0
8,89999,99,80000,85,50000,40,9999,0.100000,99,0,0.000000,13,0.000000,26.132120,0.355051,99,99,0,0,0,0,0
9,99999,0,90000,86,50000,40,9999,0.100000,99,0,0.000000,13,0.000000,36.678064,0.188511,99,99,0,0,0,0,0
9,99999,1,90000,96,0,0,9999,0.100000,99,0,0.027039,13,0.000000,21.487069,0.104441,99,99,0,0,0,1,0
9,99999,2,90000,50,10000,42,9999,0.100000,99,0,0.000000,13,6.000000,27.565419,18.739805,99,99,0,0,0,0,0
9,99999,3,90000,50,10000,0,9999,0.100000,99,0,3.284463,13,0.000000,25.013019,1.614556,99,99,0,0,1,0,0
9,99999,4,90000,12,10000,0,9999,0.100000,99,0,0.000163,13,0.000000,20.398539,0.076836,99,99,0,0,0,0,1
9,99999,5,90000,37,10000,40,9999,0.100000,99,0,0.000000,13,0.000000,21.157141,0.080255,99,99,0,0,0,0,0
9,99999,6,90000,12,10000,40,9999,0.100000,99,0,0.000000,13,0.000000,18.284569,0.572809,99,99,0,0,0,0,0
9,99999,7,90000,50,10000,0,9999,0.100000,99,0,0.016787,13,0.000000,22.562967,0.189274,99,99,0,0,1,0,0
9,99999,8,90000,89,0,0,9999,0.100000,99,0,0.632479,13,0.000000,30.696365,0.333882,99,99,0,0,0,1,0
9,99999,9,90000,89,0,40,9999,0.100000,99,0,0.000000,13,0.000000,26.571768,0.687056,99,99,0,0,0,0,0
9,99999,10,90000,89,0,0,9999,0.100000,99,0,0.054405,13,0.000000,20.798197,0.255049,99,99,0,0,1,0,0
9,99999,11,90000,96,0,0,9999,0.100000,99,0,1.828739,13,0.000000,28.729165,0.768354,99,99,0,0,1,0,0
9,99999,12,90000,89,0,40,9999,0.100000,99,0,0.000000,13,0.000000,26.273253,5.389890,99,99,0,0,0,0,0
9,99999,13,90000,12,10000,40,9999,0.100000,99,0,0.000000,13,0.000000,16.492773,0.900786,99,99,0,0,0,0,0
9,99999,14,90000,60,10000,0,9999,0.100000,99,0,4.164368,13,0.000000,16.075169,1.040522,99,99,0,0,0,0,1
9,99999,15,90000,50,10000,0,9999,0.100000,99,0,1.608320,13,0.000000,23.808723,0.810109,99,99,0,0,0,0,1
9,99999,16,90000,59,0,40,9999,0.100000,99,0,0.000000,13,0.000000,25.265441,1.075522,99,99,0,0,0,0,0
9,99999,17,90000,37,10000,40,9999,0.100000,99,0,0.000000,13,1.000000,30.416457,4.458517,99,99,0,0,0,0,0
9,99999,18,90000,85,50000,40,9999,0.100000,99,0,0.000000,13,0.000000,24.898708,0.995510,99,99,0,0,0,0,0
9,99999,19,90000,85,50000,40,9999,0.100000,99,0,0.000000,13,0.000000,37.998435,1.818439,99,99,0,0,0,0,0
9,99999,20,90000,86,50000,40,9999,0.100000,99,0,0.000000,13,0.000000,22.563862,0.530164,99,99,0,0,0,0,0
9,99999,21,90000,84,80000,0,9999,0.100000,99,0,0.773217,13,0.000000,26.431830,0.627682,99,99,0,0,0,1,0
9,99999,22,90000,84,80000,41,9999,0.100000,99,0,0.000000,13,3.000000,27.914110,7.406716,99,99,0,0,-1,0,0
9,99999,23,90000,89,0,0,9999,0.100000,99,0,0.866899,13,0.000000,22.408299,0.275850,99,99,0,0,0,0,1
9,99999,24,90000,86,10000,40,9999,0.100000,99,0,0.000000,13,1.000000,30.581721,2.927202,99,99,0,0,0,0,0
9,99999,25,90000,37,10000,0,9999,0.100000,99,0,0.018389,13,0.000000,25.580588,0.136969,99,99,0,0,0,0,1
9,99999,26,90000,60,10000,40,9999,0.100000,99,0,0.000000,13,0.000000,15.953402,0.506425,99,99,0,0,0,0,0
9,99999,27,90000,96,0,40,9999,0.100000,99,0,0.000000,13,0.000000,20.299826,0.385256,99,99,0,0,0,0,0
9,99999,28,90000,50,10000,40,9999,0.100000,99,0,0.000000,13,0.000000,24.572273,1.370066,99,99,0,0,0,0,0
9,99999,29,90000,85,50000,40,9999,0.100000,99,0,0.000000,13,0.000000,28.206615,0.532996,99,99,0,0,0,0,0
9,99999,30,90000,37,10000,40,9999,0.100000,99,0,0.000000,13,1.000000,33.366454,9.783821,99,99,0,0,0,0,0
9,99999,31,90000,61,0,40,9999,0.100000,99,0,0.000000,13,0.000000,29.990357,0.128783,99,99,0,0,0,0,0
9,99999,32,90000,37,10000,41,9999,0.100000,99,0,0.000000,13,3.000000,25.980397,17.900517,99,99,0,0,0,0,0
9,99999,33,90000,86,10000,0,9999,0.100000,99,0,0.000861,13,0.000000,26.892685,0.087263,99,99,0,0,0,0,1
9,99999,34,90000,12,10000,40,9999,0.100000,99,0,0.000000,13,0.000000,29.043985,0.534063,99,99,0,0,0,0,0
9,99999,35,90000,96,0,0,9999,0.100000,99,0,0.397125,13,0.000000,15.799511,0.146828,99,99,0,0,0,0,1
9,99999,36,90000,60,10000,40,9999,0.100000,99,0,0.000000,13,0.000000,17.054851,0.683535,99,99,0,0,0,0,0
9,99999,37,90000,86,10000,40,9999,0.100000,99,0,0.000000,13,0.000000,30.145225,0.139898,99,99,0,0,0,0,0
9,99999,38,90000,86,50000,0,9999,0.100000,99,0,1.421947,13,0.000000,25.165683,1.006879,99,99,0,0,0,1,0
9,99999,39,90000,96,0,41,9999,0.100000,99,0,0.000000,13,5.000000,29.295359,10.914631,99,99,0,0,0,0,0
9,99999,40,90000,89,0,40,9999,0.100000,99,0,0.000000,13,1.000000,29.351440,22.638815,99,99,0,0,0,0,0
9,99999,41,90000,61,0,40,9999,0.100000,99,0,0.000000,13,0.000000,25.555287,2.243777,99,99,0,0,0,0,0
9,99999,42,90000,37,10000,40,9999,0.100000,99,0,0.000000,13,0.000000,23.563104,1.679699,99,99,0,0,0,0,0
9,99999,43,90000,50,10000,40,9999,0.100000,99,0,0.000000,13,0.000000,24.971132,0.825911,99,99,0,0,0,0,0
9,99999,44,90000,37,10000,40,9999,0.100000,99,0,0.000000,13,0.000000,26.820609,0.754674,99,99,0,0,0,0,0
9,99999,45,90000,59,0,40,9999,0.100000,99,0,0.000000,13,0.000000,26.022285,0.092803,99,99,0,0,0,0,0
9,99999,46,90000,22,20000,40,9999,0.100000,99,0,0.000000,13,0.000000,21.557212,0.142208,99,99,0,0,0,0,0
9,99999,47,90000,22,20000,40,9999,0.100000,99,0,0.000000,13,0.000000,25.293544,1.605762,99,99,0,0,0,0,0
9,99999,48,90000,12,10000,0,9999,0.100000,99,0,1.060386,13,0.000000,20.491210,0.218444,99,99,0,0,1,0,0
9,99999,49,90000,86,50000,40,9999,0.100000,99,0,0.000000,13,0.000000,30.410641,0.329905,99,99,0,0,0,0,0
9,99999,50,90000,86,50000,41,9999,0.100000,99,0,0.000000,13,3.000000,25.869224,17.892071,99,99,0,0,0,0,0
9,99999,51,90000,85,50000,40,9999,0.100000,99,0,0.000000,13,0.000000,15.568793,0.180441,99,99,0,0,0,0,0
9,99999,52,90000,61,0,40,9999,0.100000,99,0,0.000000,13,1.000000,22.272696,2.361137,99,99,0,0,0,0,0
9,99999,53,90000,1,10000,40,9999,0.100000,99,0,0.000000,13,0.000000,16.610646,1.885613,99,99,0,0,0,0,0
9,99999,54,90000,22,20000,40,9999,0.100000,99,0,0.000000,13,0.000000,34.468150,8.560653,99,99,0,0,0,0,0
9,99999,55,90000,50,10000,0,9999,0.100000,99,0,1.871923,13,0.000000,30.322803,0.419900,99,99,0,0,0,1,0
9,99999,56,90000,84,80000,40,9999,0.100000,99,0,0.000000,13,0.000000,30.554873,0.372888,99,99,0,0,0,0,0
9,99999,57,90000,12,10000,40,9999,0.100000,99,0,0.000000,13,0.000000,23.899629,0.809928,99,99,0,0,0,0,0
9,99999,58,90000,86,10000,40,9999,0.100000,99,0,0.000000,13,0.000000,15.989361,0.546713,99,99,0,0,0,0,0
9,99999,59,90000,59,0,40,9999,0.100000,99,0,0.000000,13,0.000000,23.723423,0.446750,99,99,0,0,0,0,0
9,99999,60,90000,1,10000,40,9999,0.100000,99,0,0.000000,13,0.000000,25.861888,3.380498,99,99,0,0,0,0,0
9,99999,61,90000,22,20000,42,9999,0.100000,99,0,0.000000,13,9.000000,30.864166,9.910100,99,99,0,0,0,0,0
9,99999,62,90000,86,10000,0,9999,0.100000,99,0,0.002030,13,0.000000,27.602639,0.082956,99,99,0,0,0,0,1
9,99999,63,90000,50,10000,40,9999,0.100000,99,0,0.000000,13,0.000000,38.009763,1.460593,99,99,0,0,0,0,0
9,99999,64,90000,50,10000,40,9999,0.100000,99,0,0.000000,13,0.000000,26.003092,0.882754,99,99,0,0,0,0,0
9,99999,65,90000,50,10000,40,9999,0.100000,99,0,0.000000,13,0.000000,16.180623,1.259378,99,99,0,0,0,0,0
9,99999,66,90000,37,10000,40,9999,0.100000,99,0,0.000000,13,0.000000,25.060437,0.753140,99,99,0,0,0,0,0
9,99999,67,90000,60,10000,0,9999,0.100000,99,0,0.742396,13,0.000000,29.311892,0.199301,99,99,0,0,0,1,0
9,99999,68,90000,85,50000,40,9999,0.100000,99,0,0.000000,13,0.000000,15.478488,0.180857,99,99,0,0,0,0,0
9,99999,69,90000,50,10000,40,9999,0.100000,99,0,0.000000,13,0.000000,20.957517,0.171194,99,99,0,0,0,0,0
9,99999,70,90000,22,20000,40,9999,0.100000,99,0,0.000000,13,0.000000,31.001195,0.262613,99,99,0,0,0,0,0
9,99999,71,90000,85,50000,40,9999,0.100000,99,0,0.000000,13,0.000000,32.774638,0.249800,99,99,0,0,0,0,0
9,99999,72,90000,84,80000,40,9999,0.100000,99,0,0.000000,13,1.000000,21.161705,1.492342,99,99,0,0,0,0,0
9,99999,73,90000,22,20000,40,9999,0.100000,99,0,0.000000,13,0.000000,19.229249,1.028414,99,99,0,0,0,0,0
9,99999,74,90000,12,10000,40,9999,0.100000,99,0,0.000000,13,0.000000,30.554826,0.137105,99,99,0,0,0,0,0
9,99999,75,90000,61,0,40,9999,0.100000,99,0,0.000000,13,0.000000,30.645769,1.628640,99,99,0,0,0,0,0
9,99999,76,90000,86,50000,0,9999,0.100000,99,0,0.213234,13,0.000000,25.326891,0.180987,99,99,0,1,0,0,0
9,99999,77,90000,12,10000,40,9999,0.100000,99,0,0.000000,13,1.000000,28.142136,2.407976,99,99,0,0,0,0,0
9,99999,78,90000,96,0,40,9999,0.100000,99,0,0.000000,13,0.000000,26.250765,0.688786,99,99,0,0,0,0,0
9,99999,79,90000,12,10000,40,9999,0.100000,99,0,0.000000,13,2.000000,29.921531,8.032511,99,99,0,0,0,0,0
9,99999,80,90000,86,50000,40,9999,0.100000,99,0,0.000000,13,0.000000,29.545109,0.349741,99,99,0,0,0,0,0
9,99999,81,90000,22,20000,40,9999,0.100000,99,0,0.000000,13,0.000000,30.124247,0.442767,99,99,0,0,0,0,0
9,99999,82,90000,86,10000,0,9999,0.100000,99,0,0.009818,13,2.000000,31.672996,2.348070,99,99,0,0,1,0,0
9,99999,83,90000,60,10000,40,9999,0.100000,99,0,0.000000,13,0.000000,27.202514,2.913920,99,99,0,0,0,0,0
9,99999,84,90000,12,10000,41,9999,0.100000,99,0,0.000000,13,4.000000,30.553830,10.006653,99,99,0,0,0,0,0
9,99999,85,90000,86,50000,40,9999,0.100000,99,0,0.000000,13,1.000000,29.680844,15.102572,99,99,0,0,0,0,0
9,99999,86,90000,37,10000,45,9999,0.100000,99,0,0.000000,13,8.000000,15.084397,16.429078,99,99,0,0,0,0,0
9,99999,87,90000,37,10000,40,9999,0.100000,99,0,0.000000,13,0.000000,22.671212,0.268408,99,99,0,0,0,0,0
9,99999,88,90000,22,20000,40,9999,0.100000,99,0,0.000000,13,2.000000,31.869643,2.235382,99,99,0,0,0,0,0
9,99999,89,90000,1,10000,40,9999,0.100000,99,0,0.000000,13,0.000000,27.138873,2.886222,99,99,0,0,0,0,0
9,99999,90,90000,59,0,40,9999,0.100000,99,0,0.000000,13,0.000000,17.880912,0.234447,99,99,0,0,0,0,0
9,99999,91,90000,12,10000,40,9999,0.100000,99,0,0.000000,13,0.000000,21.354494,0.156820,99,99,0,0,0,0,0
9,99999,92,90000,86,50000,40,9999,0.100000,99,0,0.000000,13,0.000000,29.600246,0.838662,99,99,0,0,0,0,0
9,99999,93,90000,96,0,40,9999,0.100000,99,0,0.000000,13,0.000000,23.655920,1.006572,99,99,0,0,0,0,0
9,99999,94,90000,60,10000,40,9999,0.100000,99,0,0.000000,13,0.000000,28.140347,0.644539,99,99,0,0,-1,0,0
9,99999,95,90000,86,50000,40,9999,0.100000,99,0,0.000000,13,0.000000,26.679800,0.646760,99,99,0,0,0,0,0
9,99999,96,90000,50,10000,40,9999,0.100000,99,0,0.000000,13,0.000000,25.135189,1.425931,99,99,0,0,0,0,0
9,99999,97,90000,84,80000,40,9999,0.100000,99,0,0.000000,13,0.000000,28.895511,0.488034,99,99,0,0,0,0,0
9,99999,98,90000,85,50000,40,9999,0.100000,99,0,0.000000,13,0.000000,23.559762,0.754959,99,99,0,0,0,0,0
9,99999,99,90000,50,10000,0,9999,0.100000,99,0,0.447083,13,0.000000,25.906858,0.795629,99,99,0,0,0,1,0
10,109999,0,100000,59,0,40,9999,0.100000,99,0,0.000000,13,0.000000,36.679082,0.193149,99,99,0,0,0,0,0
10,109999,1,100000,50,10000,2,9999,0.100000,99,0,0.026239,13,6.000000,21.480613,12.510118,99,99,0,0,0,1,0
10,109999,2,100000,86,50000,40,9999,0.100000,99,0,0.000000,13,0.000000,26.851059,1.816162,99,99,0,0,0,0,0
10,109999,3,100000,85,50000,2,9999,0.100000,99,0,28.904090,13,6.000000,24.508642,6.693138,99,99,0,0,1,0,0
10,109999,4,100000,85,50000,0,9999,0.100000,99,0,0.000249,13,0.000000,20.398442,0.076523,99,99,0,0,0,0,1
10,109999,5,100000,12,10000,40,9999,0.100000,99,0,0.000000,13,0.000000,21.156970,0.080612,99,99,0,0,0,0,0
10,109999,6,100000,86,50000,40,9999,0.100000,99,0,0.000000,13,0.000000,18.156024,0.583910,99,99,0,0,0,0,0
10,109999,7,100000,22,20000,0,9999,0.100000,99,0,0.014833,13,0.000000,22.564968,0.189942,99,99,0,0,1,0,0
10,109999,8,100000,22,20000,0,9999,0.100000,99,0,13.449820,13,2.000000,30.685096,2.888135,99,99,0,0,0,1,0
10,109999,9,100000,89,0,0,9999,0.100000,99,0,0.287392,13,0.000000,26.006723,0.414056,99,99,0,0,0,1,0
10,109999,10,100000,1,10000,0,9999,0.065000,99,0,0.037415,13,0.000000,20.835218,0.253703,99,99,0,0,1,0,0
10,109999,11,100000,59,0,0,9999,0.100000,99,0,0.123281,13,0.000000,29.059286,0.197838,99,99,0,0,1,0,0
10,109999,12,100000,85,50000,40,9999,0.100000,99,0,0.000000,13,2.000000,26.574486,26.515372,99,99,0,0,0,0,0
10,109999,13,100000,89,0,40,9999,0.100000,99,0,0.000000,13,0.000000,17.059328,0.397993,99,99,0,0,0,0,0
10,109999,14,100000,12,10000,0,9999,0.100000,99,0,1.377871,13,0.000000,16.829239,0.859134,99,99,0,0,0,0,1
10,109999,15,100000,1,10000,0,9999,0.100000,99,0,1.367755,13,0.000000,24.260187,0.866372,99,99,0,0,0,0,1
10,109999,16,100000,89,0,0,9999,0.100000,99,0,0.580014,13,0.000000,24.880893,1.126889,99,99,0,0,0,1,0
10,109999,17,100000,60,10000,40,9999,0.100000,99,0,0.000000,13,0.000000,30.031011,4.038232,99,99,0,0,0,0,0
10,109999,18,100000,12,10000,40,9999,0.100000,99,0,0.000000,13,0.000000,24.131524,1.024307,99,99,0,0,0,0,0
10,109999,19,100000,85,50000,40,9999,0.100000,99,0,0.000000,13,0.000000,37.997925,1.749615,99,99,0,0,0,0,0
10,109999,20,100000,86,10000,40,9999,0.100000,99,0,0.000000,13,0.000000,22.539718,0.545822,99,99,0,0,0,0,0
10,109999,21,100000,86,50000,40,9999,0.100000,99,0,0.000000,13,0.000000,25.856745,0.389995,99,99,0,0,0,0,0
10,109999,22,100000,12,10000,40,9999,0.100000,99,0,0.000000,13,0.000000,24.401437,1.113493,99,99,0,0,0,0,0
10,109999,23,100000,50,10000,0,9999,0.100000,99,0,2.403206,13,0.000000,22.319731,0.519330,99,99,0,0,0,0,1
10,109999,24,100000,12,10000,40,9999,0.100000,99,0,0.000000,13,1.000000,30.352070,5.083849,99,99,0,0,0,0,0
10,109999,25,100000,96,0,0,9999,0.100000,99,0,0.022834,13,0.000000,25.577987,0.112631,99,99,0,0,0,0,1
10,109999,26,100000,84,80000,40,9999,0.100000,99,0,0.000000,13,0.000000,15.941479,0.734701,99,99,0,0,0,0,0
10,109999,27,100000,22,20000,40,9999,0.100000,99,0,0.000000,13,0.000000,20.127225,0.397666,99,99,0,0,0,0,0
10,109999,28,100000,22,20000,40,9999,0.100000,99,0,0.000000,13,0.000000,23.794359,1.544055,99,99,0,0,0,0,0
10,109999,29,100000,59,0,40,9999,0.100000,99,0,0.000000,13,0.000000,28.087076,0.266707,99,99,0,0,0,0,0
10,109999,30,100000,59,0,40,9999,0.100000,99,0,0.000000,13,2.000000,32.416175,6.283487,99,99,0,0,0,0,0
10,109999,31,100000,37,10000,40,9999,0.100000,99,0,0.000000,13,0.000000,29.990193,0.124691,99,99,0,0,0,0,0
10,109999,32,100000,85,50000,42,9999,0.100000,99,0,0.000000,13,7.000000,26.979587,14.725188,99,99,0,0,0,0,0
10,109999,33,100000,22,20000,0,9999,0.100000,99,0,0.000724,13,0.000000,26.893620,0.094315,99,99,0,0,0,0,1
10,109999,34,100000,86,90000,40,9999,0.100000,99,0,0.000000,13,0.000000,29.370165,0.259257,99,99,0,0,0,0,0
10,109999,35,100000,12,10000,0,9999,0.100000,99,0,0.422292,13,0.000000,15.798246,0.322356,99,99,0,0,0,0,1
10,109999,36,100000,84,80000,40,9999,0.100000,99,0,0.000000,13,0.000000,16.619591,0.503674,99,99,0,0,0,0,0
10,109999,37,100000,96,0,40,9999,0.100000,99,0,0.000000,13,0.000000,30.144984,0.137713,99,99,0,0,0,0,0
10,109999,38,100000,86,10000,40,9999,0.100000,99,0,0.000000,13,0.000000,24.735719,0.882208,99,99,0,0,0,0,0
10,109999,39,100000,85,50000,40,9999,0.100000,99,0,0.000000,13,1.000000,29.038115,1.545152,99,99,0,0,0,0,0
10,109999,40,100000,86,10000,0,9999,0.100000,99,0,0.928908,13,1.000000,29.769218,1.637210,99,99,0,0,0,1,0
10,109999,41,100000,50,10000,42,9999,0.100000,99,0,0.000000,13,6.000000,24.961747,6.493077,99,99,0,0,0,0,0
10,109999,42,100000,12,10000,40,9999,0.100000,99,0,0.000000,13,0.000000,23.754389,2.739460,99,99,0,0,0,0,0
10,109999,43,100000,12,10000,40,9999,0.100000,99,0,0.000000,13,0.000000,24.453012,0.770115,99,99,0,0,0,0,0
10,109999,44,100000,86,10000,40,9999,0.100000,99,0,0.000000,13,0.000000,26.251596,0.532751,99,99,0,0,0,0,0
10,109999,45,100000,22,20000,40,9999,0.100000,99,0,0.000000,13,0.000000,26.021107,0.114422,99,99,0,0,0,0,0
10,109999,46,100000,1,10000,40,9999,0.100000,99,0,0.000000,13,0.000000,21.548644,0.141125,99,99,0,0,0,0,0
10,109999,47,100000,86,90000,42,9999,0.100000,99,0,0.000000,13,6.000000,24.735205,6.606434,99,99,0,0,0,0,0
10,109999,48,100000,60,10000,0,9999,0.100000,99,0,1.002923,13,0.000000,20.437595,0.193645,99,99,0,0,1,0,0
10,109999,49,100000,50,10000,40,9999,0.100000,99,0,0.000000,13,0.000000,30.430296,0.336264,99,99,0,0,0,0,0
10,109999,50,100000,89,0,42,9999,0.100000,99,0,0.000000,13,6.000000,26.866464,14.681225,99,99,0,0,0,0,0
10,109999,51,100000,85,50000,40,9999,0.100000,99,0,0.000000,13,0.000000,15.567898,0.190783,99,99,0,0,0,0,0
10,109999,52,100000,59,0,40,9999,0.100000,99,0,0.000000,13,0.000000,22.114032,0.600559,99,99,0,0,0,0,0
10,109999,53,100000,59,0,40,9999,0.100000,99,0,0.000000,13,0.000000,16.697184,1.470037,99,99,0,0,0,0,0
10,109999,54,100000,84,80000,41,9999,0.100000,99,0,0.000000,13,5.000000,34.422731,12.075816,99,99,0,0,0,0,0
10,109999,55,100000,89,0,40,9999,0.100000,99,0,0.000000,13,0.000000,30.630089,0.729499,99,99,0,0,0,0,0
10,109999,56,100000,86,90000,40,9999,0.065000,99,0,0.000000,13,2.000000,30.526391,2.705320,99,99,0,0,0,0,0
10,109999,57,100000,85,50000,40,9999,0.100000,99,0,0.000000,13,0.000000,24.385754,0.768665,99,99,0,0,0,0,0
10,109999,58,100000,60,10000,40,9999,0.100000,99,0,0.000000,13,0.000000,15.980711,0.473184,99,99,0,0,0,0,0
10,109999,59,100000,86,90000,40,9999,0.100000,99,0,0.000000,13,0.000000,24.134005,0.416835,99,99,0,0,0,0,0
10,109999,60,100000,1,10000,40,9999,0.100000,99,0,0.000000,13,0.000000,25.529723,4.473616,99,99,0,0,0,0,0
10,109999,61,100000,59,0,40,9999,0.100000,99,0,0.000000,13,0.000000,31.847496,1.039552,99,99,0,0,0,0,0
10,109999,62,100000,86,10000,0,9999,0.100000,99,0,0.202465,13,0.000000,27.602364,0.114068,99,99,0,0,0,0,1
10,109999,63,100000,50,10000,40,9999,0.100000,99,0,0.000000,13,0.000000,38.009196,1.438618,99,99,0,0,0,0,0
10,109999,64,100000,96,0,0,9999,0.100000,99,0,0.640672,13,0.000000,25.415508,0.740345,99,99,0,0,0,1,0
10,109999,65,100000,12,10000,40,9999,0.100000,99,0,0.000000,13,0.000000,16.873802,0.546340,99,99,0,0,0,0,0
10,109999,66,100000,37,10000,40,9999,0.100000,99,0,0.000000,13,0.000000,24.585553,0.548424,99,99,0,0,0,0,0
10,109999,67,100000,22,20000,0,9999,0.100000,99,0,1.629658,13,0.000000,29.312233,0.391256,99,99,0,0,0,1,0
10,109999,68,100000,96,0,40,9999,0.100000,99,0,0.000000,13,0.000000,15.475853,0.194741,99,99,0,0,0,0,0
10,109999,69,100000,37,10000,40,9999,0.100000,99,0,0.000000,13,0.000000,20.987858,0.171801,99,99,0,0,0,0,0
10,109999,70,100000,60,10000,40,9999,0.100000,99,0,0.000000,13,2.000000,31.024145,2.964436,99,99,0,0,0,0,0
10,109999,71,100000,1,10000,40,9999,0.100000,99,0,0.000000,13,0.000000,32.775919,0.254904,99,99,0,0,0,0,0
10,109999,72,100000,12,10000,44,9999,0.100000,99,0,0.000000,13,11.000000,21.607923,14.135233,99,99,0,0,0,0,0
10,109999,73,100000,59,0,40,9999,0.100000,99,0,0.000000,13,0.000000,18.672168,1.138798,99,99,0,0,0,0,0
10,109999,74,100000,86,90000,40,9999,0.100000,99,0,0.000000,13,0.000000,30.554487,0.139894,99,99,0,0,0,0,0
10,109999,75,100000,85,50000,40,9999,0.100000,99,0,0.000000,13,2.000000,30.475809,7.099722,99,99,0,0,0,0,0
10,109999,76,100000,12,10000,0,9999,0.100000,99,0,0.192072,13,0.000000,25.285660,0.170311,99,99,0,1,0,0,0
10,109999,77,100000,1,10000,40,9999,0.100000,99,0,0.000000,13,0.000000,27.613044,0.505882,99,99,0,0,0,0,0
10,109999,78,100000,60,10000,41,9999,0.100000,99,0,0.000000,13,5.000000,26.069288,24.588747,99,99,0,0,0,0,0
10,109999,79,100000,85,50000,40,9999,0.100000,99,0,0.000000,13,0.000000,29.337099,7.992388,99,99,0,0,0,0,0
10,109999,80,100000,22,20000,42,9999,0.100000,99,0,0.000000,13,7.000000,29.545841,14.604578,99,99,0,0,0,0,0
10,109999,81,100000,22,20000,40,9999,0.100000,99,0,0.000000,13,0.000000,30.439341,0.974705,99,99,0,0,0,0,0
10,109999,82,100000,59,0,40,9999,0.100000,99,0,0.000000,13,0.000000,33.324743,0.928618,99,99,0,0,0,0,0
10,109999,83,100000,37,10000,40,9999,0.100000,99,0,0.000000,13,0.000000,26.962190,0.653675,99,99,0,0,0,0,0
10,109999,84,100000,12,10000,40,9999,0.100000,99,0,0.000000,13,2.000000,34.950306,14.255028,99,99,0,0,0,0,0
10,109999,85,100000,50,10000,40,9999,0.100000,99,0,0.000000,13,0.000000,29.299040,7.945689,99,99,0,0,0,0,0
10,109999,86,100000,22,20000,40,9999,0.100000,99,0,0.000000,13,0.000000,15.086994,0.113261,99,99,0,0,0,0,0
10,109999,87,100000,85,50000,40,9999,0.100000,99,0,0.000000,13,0.000000,22.747827,0.532150,99,99,0,0,0,0,0
10,109999,88,100000,96,0,0,9999,0.100000,99,0,0.072765,13,0.000000,33.545870,0.475043,99,99,0,0,1,0,0
10,109999,89,100000,89,0,40,9999,0.100000,99,0,0.000000,13,0.000000,26.867013,0.149466,99,99,0,0,0,0,0
10,109999,90,100000,1,10000,40,9999,0.100000,99,0,0.000000,13,0.000000,17.880071,0.248350,99,99,0,0,0,0,0
10,109999,91,100000,84,80000,40,9999,0.100000,99,0,0.000000,13,0.000000,21.352004,1.160261,99,99,0,0,0,0,0
10,109999,92,100000,50,10000,40,9999,0.100000,99,0,0.000000,13,0.000000,29.614770,0.804027,99,99,0,0,0,0,0
10,109999,93,100000,59,0,40,9999,0.100000,99,0,0.000000,13,0.000000,24.140151,1.107428,99,99,0,0,0,0,0
10,109999,94,100000,86,90000,40,9999,0.100000,99,0,0.000000,13,0.000000,28.023929,0.275264,99,99,0,0,0,0,0
10,109999,95,100000,50,10000,40,9999,0.100000,99,0,0.000000,13,0.000000,26.108170,0.374993,99,99,0,0,0,0,0
10,109999,96,100000,59,0,40,9999,0.100000,99,0,0.000000,13,0.000000,24.528896,0.817469,99,99,0,0,0,0,0
10,109999,97,100000,59,0,40,9999,0.100000,99,0,0.000000,13,0.000000,29.228222,0.405616,99,99,0,0,0,0,0
10,109999,98,100000,1,10000,41,9999,0.100000,99,0,0.000000,13,4.000000,23.869737,8.681244,99,99,0,0,0,0,0
10,109999,99,100000,59,0,40,9999,0.100000,99,0,0.000000,13,0.000000,25.336512,0.367865,99,99,0,0,0,0,0
11,119999,0,110000,85,50000,40,9999,0.100000,99,0,0.000000,13,0.000000,36.679384,0.198259,99,99,0,0,0,0,0
11,119999,1,110000,86,90000,0,9999,0.100000,99,0,0.023248,14,0.000000,21.474601,0.116976,99,99,0,0,0,1,0
11,119999,2,110000,60,10000,40,9999,0.100000,99,0,0.000000,13,0.000000,27.070363,1.333039,99,99,0,0,0,0,0
11,119999,3,110000,59,0,0,9999,0.135000,99,0,3.735770,14,0.000000,28.616394,1.105026,99,99,0,0,1,0,0
11,119999,4,110000,59,0,40,9999,0.100000,99,0,0.000000,14,0.000000,20.397905,0.077098,99,99,0,0,0,0,0
11,119999,5,110000,96,0,0,9999,0.100000,99,0,0.000076,14,0.000000,21.156237,0.079656,99,99,0,0,0,0,1
11,119999,6,110000,12,10000,40,9999,0.100000,99,0,0.000000,13,0.000000,18.113127,0.416381,99,99,0,0,0,0,0
11,119999,7,110000,50,10000,1,9999,0.100000,99,0,0.016122,13,4.000000,22.566672,8.845264,99,99,0,0,1,0,0
11,119999,8,110000,84,80000,41,9999,0.100000,99,0,0.000000,14,6.000000,32.795686,18.750234,99,99,0,0,0,0,0
11,119999,9,110000,59,0,0,9999,0.100000,99,0,0.785136,14,0.000000,25.701832,0.193011,99,99,0,0,0,1,0
11,119999,10,110000,86,10000,0,9999,0.100000,99,0,0.034222,13,0.000000,20.867300,0.201950,99,99,0,0,1,0,0
11,119999,11,110000,22,20000,0,9999,0.100000,99,0,5.059328,13,0.000000,29.098954,1.236316,99,99,0,0,1,0,0
11,119999,12,110000,84,80000,40,9999,0.100000,99,0,0.000000,14,2.000000,25.349427,13.702982,99,99,0,0,0,0,0
11,119999,13,110000,84,80000,40,9999,0.100000,99,0,0.000000,13,0.000000,17.263114,0.277113,99,99,0,0,0,0,0
11,119999,14,110000,1,10000,4,9999,0.100000,99,0,0.707520,14,8.000000,17.093661,16.927919,99,99,0,0,0,0,1
11,119999,15,110000,12,10000,40,9999,0.100000,99,0,0.000000,14,0.000000,24.621587,0.847980,99,99,0,0,0,0,0
11,119999,16,110000,96,0,0,9999,0.100000,99,0,0.975122,14,1.000000,24.673316,2.277655,99,99,0,0,0,1,0
11,119999,17,110000,59,0,40,9999,0.100000,99,0,0.000000,13,0.000000,29.869599,0.475367,99,99,0,0,0,0,0
11,119999,18,110000,85,50000,40,9999,0.100000,99,0,0.000000,13,0.000000,23.355916,0.991485,99,99,0,0,0,0,0
11,119999,19,110000,96,0,40,9999,0.100000,99,0,0.000000,14,0.000000,37.997972,1.773075,99,99,0,0,0,0,0
11,119999,20,110000,85,50000,40,9999,0.100000,99,0,0.000000,13,0.000000,22.301344,0.500754,99,99,0,0,0,0,0
11,119999,21,110000,37,10000,40,9999,0.100000,99,0,0.000000,13,0.000000,25.620055,0.119318,99,99,0,0,0,0,0
11,119999,22,110000,59,0,40,9999,0.100000,99,0,0.000000,14,0.000000,24.771305,1.208519,99,99,0,0,0,0,0
11,119999,23,110000,50,10000,0,9999,0.100000,99,0,2.316497,13,0.000000,22.062092,0.480169,99,99,0,0,0,0,1
11,119999,24,110000,22,20000,40,9999,0.100000,99,0,0.000000,14,1.000000,29.984215,3.861888,99,99,0,0,0,0,0
11,119999,25,110000,37,10000,40,9999,0.100000,99,0,0.000000,14,0.000000,25.582696,0.109361,99,99,0,0,0,0,0
11,119999,26,110000,60,10000,40,9999,0.100000,99,0,0.000000,14,0.000000,15.937520,0.779621,99,99,0,0,0,0,0
11,119999,27,110000,72,100000,40,9999,0.100000,99,0,0.000000,14,0.000000,19.973778,0.329548,99,99,0,0,0,0,0
11,119999,28,110000,85,50000,40,9999,0.100000,99,0,0.000000,13,0.000000,24.083237,0.961757,99,99,0,0,0,0,0
11,119999,29,110000,96,0,40,9999,0.100000,99,0,0.000000,14,0.000000,28.169486,0.226211,99,99,0,0,0,0,0
11,119999,30,110000,85,50000,40,9999,0.100000,99,0,0.000000,13,0.000000,30.611546,4.690529,99,99,0,0,0,0,0
11,119999,31,110000,89,0,40,9999,0.100000,99,0,0.000000,13,0.000000,29.989950,0.129443,99,99,0,0,0,0,0
11,119999,32,110000,50,10000,41,9999,0.100000,99,0,0.000000,14,4.000000,28.514664,23.222873,99,99,0,0,0,0,0
11,119999,33,110000,1,10000,0,9999,0.100000,99,0,0.001144,14,0.000000,26.894317,0.088975,99,99,0,0,0,0,1
11,119999,34,110000,85,50000,40,9999,0.100000,99,0,0.000000,13,1.000000,29.337095,1.837525,99,99,0,0,0,0,0
11,119999,35,110000,89,0,0,9999,0.100000,99,0,0.480288,13,0.000000,15.794675,0.354960,99,99,0,0,0,0,1
11,119999,36,110000,89,0,40,9999,0.100000,99,0,0.000000,13,0.000000,16.398115,0.419352,99,99,0,0,0,0,0
11,119999,37,110000,12,10000,40,9999,0.100000,99,0,0.000000,14,0.000000,30.144767,0.139489,99,99,0,0,0,0,0
11,119999,38,110000,96,0,40,9999,0.100000,99,0,0.000000,13,1.000000,24.480995,1.930737,99,99,0,0,0,0,0
11,119999,39,110000,22,20000,40,9999,0.100000,99,0,0.000000,14,2.000000,29.305476,2.421313,99,99,0,0,0,0,0
11,119999,40,110000,72,100000,0,9999,0.100000,99,0,0.295260,14,0.000000,30.237634,0.946543,99,99,0,0,0,1,0
11,119999,41,110000,12,10000,40,9999,0.100000,99,0,0.000000,14,0.000000,29.016213,1.309391,99,99,0,0,0,0,0
11,119999,42,110000,50,10000,0,9999,0.100000,99,0,1.459550,14,0.000000,24.330478,0.493574,99,99,0,0,0,0,1
11,119999,43,110000,50,10000,40,9999,0.100000,99,0,0.000000,13,1.000000,24.106445,1.659360,99,99,0,0,0,0,0
11,119999,44,110000,37,10000,40,9999,0.100000,99,0,0.000000,14,0.000000,25.868453,0.368723,99,99,0,0,0,0,0
11,119999,45,110000,89,0,0,9999,0.065000,99,0,0.003030,14,0.000000,26.025752,0.132854,99,99,0,0,0,0,1
11,119999,46,110000,72,100000,40,9999,0.100000,99,0,0.000000,14,0.000000,21.540616,0.145984,99,99,0,0,0,0,0
11,119999,47,110000,96,0,40,9999,0.100000,99,0,0.000000,14,0.000000,28.815817,1.031937,99,99,0,0,0,0,0
11,119999,48,110000,86,10000,0,9999,0.100000,99,0,0.746253,13,0.000000,20.401149,0.189313,99,99,0,0,1,0,0
11,119999,49,110000,84,80000,40,9999,0.100000,99,0,0.000000,14,0.000000,30.449924,1.068685,99,99,0,0,0,0,0
11,119999,50,110000,22,20000,41,9999,0.100000,99,0,0.000000,13,4.000000,28.400688,15.508871,99,99,0,0,0,0,0
11,119999,51,110000,12,10000,40,9999,0.100000,99,0,0.000000,13,0.000000,15.567066,0.190967,99,99,0,0,0,0,0
11,119999,52,110000,59,0,40,9999,0.100000,99,0,0.000000,13,0.000000,21.846221,0.559212,99,99,0,0,0,0,0
11,119999,53,110000,60,10000,40,9999,0.100000,99,0,0.000000,13,0.000000,16.964619,1.418604,99,99,0,0,0,0,0
11,119999,54,110000,86,90000,40,9999,0.100000,99,0,0.000000,14,3.000000,29.817528,9.434147,99,99,0,0,0,0,0
11,119999,55,110000,86,90000,40,9999,0.100000,99,0,0.000000,14,0.000000,30.876004,0.678231,99,99,0,0,0,0,0
11,119999,56,110000,59,0,40,9999,0.100000,99,0,0.000000,14,3.000000,32.607374,7.476812,99,99,0,0,0,0,0
11,119999,57,110000,12,10000,41,9999,0.100000,99,0,0.000000,13,5.000000,24.752569,10.668994,99,99,0,0,0,0,0
11,119999,58,110000,1,10000,40,9999,0.100000,99,0,0.000000,14,0.000000,15.975931,0.467797,99,99,0,0,0,0,0
11,119999,59,110000,84,80000,40,9999,0.100000,99,0,0.000000,14,0.000000,24.483030,0.552026,99,99,0,0,0,0,0
11,119999,60,110000,22,20000,40,9999,0.100000,99,0,0.000000,14,0.000000,25.219593,4.968396,99,99,0,0,0,0,0
11,119999,61,110000,86,10000,40,9999,0.100000,99,0,0.000000,13,0.000000,31.613949,2.237972,99,99,0,0,0,0,0
11,119999,62,110000,12,10000,0,9999,0.100000,99,0,0.448471,13,0.000000,27.619659,0.126644,99,99,0,0,0,0,1
11,119999,63,110000,84,80000,40,9999,0.100000,99,0,0.000000,14,0.000000,38.008860,1.430596,99,99,0,0,0,0,0
11,119999,64,110000,96,0,0,9999,0.100000,99,0,0.713671,14,0.000000,25.103172,0.726529,99,99,0,0,0,1,0
11,119999,65,110000,22,20000,40,9999,0.100000,99,0,0.000000,13,0.000000,17.132463,0.179312,99,99,0,0,0,0,0
11,119999,66,110000,89,0,40,9999,0.100000,99,0,0.000000,13,1.000000,24.284013,1.542362,99,99,0,0,0,0,0
11,119999,67,110000,89,0,0,9999,0.100000,99,0,0.359882,13,0.000000,29.152575,0.226815,99,99,0,0,0,1,0
11,119999,68,110000,22,20000,40,9999,0.100000,99,0,0.000000,14,0.000000,15.474170,0.193218,99,99,0,0,0,0,0
11,119999,69,110000,1,10000,40,9999,0.100000,99,0,0.000000,13,0.000000,21.013071,0.142361,99,99,0,0,0,0,0
11,119999,70,110000,60,10000,41,9999,0.100000,99,0,0.000000,14,6.000000,33.192137,17.846115,99,99,0,0,0,0,0
11,119999,71,110000,86,90000,40,9999,0.100000,99,0,0.000000,13,0.000000,32.777076,0.231880,99,99,0,0,0,0,0
11,119999,72,110000,86,90000,41,9999,0.100000,99,0,0.000000,14,4.000000,32.976491,20.350032,99,99,0,0,0,0,0
11,119999,73,110000,59,0,40,9999,0.100000,99,0,0.000000,14,0.000000,17.964993,1.235054,99,99,0,0,0,0,0
11,119999,74,110000,50,10000,40,9999,0.100000,99,0,0.000000,13,0.000000,30.554017,0.146020,99,99,0,0,0,0,0
11,119999,75,110000,85,50000,40,9999,0.100000,99,0,0.000000,14,0.000000,28.095715,0.248515,99,99,0,0,0,0,0
11,119999,76,110000,1,10000,0,9999,0.100000,99,0,0.195205,14,0.000000,25.240519,0.176971,99,99,0,1,0,0,0
