generation,iteration,robot,birthday,ancestor_id,ancestor_birthday,cell_id,age,sigma,maps,genomes,fitness,cells_in_map,dist_max,dist_pot_max,dist_total,com_rx,com_tx,obj_group1,obj_group2,obj_group3,obj_group4,obj_group5
0,9999,0,0,0,0,41,9999,0.100000,99,99,0.000000,0,3.000000,22.332883,8.317154,99,99,0,0,0,0,0
0,9999,1,0,1,0,0,9999,0.100000,99,99,6.697885,0,2.000000,28.123189,18.594073,99,99,0,0,1,0,0
0,9999,2,0,2,0,90,9999,0.100000,99,99,18.980701,0,3.000000,29.120669,12.537082,99,99,1,0,0,0,0
0,9999,3,0,3,0,41,9999,0.100000,99,99,0.000000,0,5.000000,32.811400,13.842784,99,99,0,0,0,0,0
0,9999,4,0,4,0,40,9999,0.100000,99,99,0.000000,0,1.000000,30.511704,13.774583,99,99,0,0,0,0,0
0,9999,5,0,5,0,41,9999,0.100000,99,99,0.000000,0,4.000000,29.220042,13.287570,99,99,0,0,0,0,0
0,9999,6,0,6,0,0,9999,0.100000,99,99,2.321872,0,1.000000,28.506756,5.484353,99,99,0,0,1,0,0
0,9999,7,0,7,0,41,9999,0.100000,99,99,0.000000,0,3.000000,19.794386,7.344096,99,99,0,0,0,0,0
0,9999,8,0,8,0,41,9999,0.100000,99,99,0.000000,0,3.000000,23.994642,16.843158,99,99,0,0,0,0,0
0,9999,9,0,9,0,0,9999,0.100000,99,99,0.161345,0,2.000000,28.516209,9.173487,99,99,0,1,0,0,0
0,9999,10,0,10,0,40,9999,0.100000,99,99,0.000000,0,1.000000,28.474307,5.341736,99,99,0,0,0,0,0
0,9999,11,0,11,0,92,9999,0.100000,99,99,41.555578,0,8.000000,25.743253,19.943512,99,99,1,0,0,0,0
0,9999,12,0,12,0,40,9999,0.100000,99,99,0.000000,0,3.000000,31.241704,18.172390,99,99,0,0,0,0,0
0,9999,13,0,13,0,40,9999,0.100000,99,99,0.000000,0,2.000000,21.596551,10.824473,99,99,0,0,0,0,0
0,9999,14,0,14,0,40,9999,0.100000,99,99,0.000000,0,1.000000,27.154008,12.951213,99,99,0,0,0,0,0
0,9999,15,0,15,0,40,9999,0.100000,99,99,0.000000,0,1.000000,11.220655,11.065714,99,99,0,0,0,0,0
0,9999,16,0,16,0,92,9999,0.100000,99,99,20.758750,0,4.000000,16.767570,9.209700,99,99,1,0,0,0,0
0,9999,17,0,17,0,40,9999,0.100000,99,99,0.000000,0,2.000000,26.006561,3.360208,99,99,0,0,0,0,0
0,9999,18,0,18,0,40,9999,0.100000,99,99,0.000000,0,2.000000,27.640011,8.773745,99,99,0,0,0,0,0
0,9999,19,0,19,0,2,9999,0.100000,99,99,0.415876,0,4.000000,18.220097,7.600411,99,99,0,1,0,0,0
0,9999,20,0,20,0,41,9999,0.100000,99,99,0.000000,0,5.000000,30.082331,9.603863,99,99,0,0,0,0,0
0,9999,21,0,21,0,94,9999,0.100000,99,99,15.159674,0,6.000000,14.220189,11.080465,99,99,1,0,0,0,0
0,9999,22,0,22,0,40,9999,0.100000,99,99,0.000000,0,1.000000,27.513709,12.516483,99,99,0,0,0,0,0
0,9999,23,0,23,0,40,9999,0.100000,99,99,0.000000,0,3.000000,29.833810,17.456822,99,99,0,0,0,0,0
0,9999,24,0,24,0,40,9999,0.100000,99,99,0.000000,0,1.000000,27.767386,12.581806,99,99,0,0,0,0,0
0,9999,25,0,25,0,40,9999,0.100000,99,99,0.000000,0,1.000000,27.488854,10.476800,99,99,0,0,0,0,0
0,9999,26,0,26,0,94,9999,0.100000,99,99,48.747148,0,10.000000,23.182564,22.033314,99,99,1,0,0,0,0
0,9999,27,0,27,0,90,9999,0.100000,99,99,10.310882,0,1.000000,34.836465,13.376065,99,99,1,0,0,0,0
0,9999,28,0,28,0,0,9999,0.100000,99,99,0.005213,0,0.000000,18.249242,0.868385,99,99,0,0,0,0,1
0,9999,29,0,29,0,90,9999,0.100000,99,99,2.688361,0,0.000000,24.831386,2.895928,99,99,1,0,0,0,0
0,9999,30,0,30,0,40,9999,0.100000,99,99,0.000000,0,1.000000,23.542895,7.329638,99,99,0,0,0,0,0
0,9999,31,0,31,0,40,9999,0.100000,99,99,0.000000,0,2.000000,30.577901,13.115714,99,99,0,0,0,0,0
0,9999,32,0,32,0,93,9999,0.100000,99,99,60.528282,0,9.000000,25.286922,22.855320,99,99,1,0,0,0,0
0,9999,33,0,33,0,41,9999,0.100000,99,99,0.000000,0,2.000000,13.546830,11.221520,99,99,0,0,0,0,0
0,9999,34,0,34,0,41,9999,0.100000,99,99,0.000000,0,4.000000,23.337541,7.213253,99,99,0,0,0,0,0
0,9999,35,0,35,0,40,9999,0.100000,99,99,0.000000,0,1.000000,15.220153,16.410254,99,99,0,0,0,0,0
0,9999,36,0,36,0,40,9999,0.100000,99,99,0.000000,0,1.000000,31.344085,5.281631,99,99,0,0,0,0,0
0,9999,37,0,37,0,0,9999,0.100000,99,99,9.677210,0,2.000000,28.222239,3.483214,99,99,0,1,0,0,0
0,9999,38,0,38,0,41,9999,0.100000,99,99,0.000000,0,4.000000,19.217917,7.650125,99,99,0,0,0,0,0
0,9999,39,0,39,0,41,9999,0.100000,99,99,0.000000,0,2.000000,16.612110,8.844936,99,99,0,0,0,0,0
0,9999,40,0,40,0,40,9999,0.100000,99,99,0.000000,0,2.000000,28.529976,5.801044,99,99,0,0,0,0,0
0,9999,41,0,41,0,41,9999,0.100000,99,99,0.000000,0,4.000000,30.426698,13.736729,99,99,0,0,0,0,0
0,9999,42,0,42,0,40,9999,0.100000,99,99,0.000000,0,2.000000,27.514851,8.089907,99,99,0,0,0,0,0
0,9999,43,0,43,0,93,9999,0.100000,99,99,50.273360,0,9.000000,28.456435,15.988266,99,99,1,0,0,0,0
0,9999,44,0,44,0,0,9999,0.100000,99,99,0.080114,0,0.000000,27.069856,1.524653,99,99,0,1,0,0,0
0,9999,45,0,45,0,0,9999,0.100000,99,99,0.006892,0,0.000000,22.606348,0.739358,99,99,0,0,0,0,1
0,9999,46,0,46,0,41,9999,0.100000,99,99,0.000000,0,2.000000,17.170077,16.541296,99,99,0,0,0,0,0
0,9999,47,0,47,0,0,9999,0.100000,99,99,0.578450,0,0.000000,24.962620,1.005956,99,99,0,0,0,1,0
0,9999,48,0,48,0,0,9999,0.100000,99,99,0.123830,0,0.000000,21.423660,1.301016,99,99,0,1,0,0,0
0,9999,49,0,49,0,40,9999,0.100000,99,99,0.000000,0,3.000000,30.500000,19.606014,99,99,0,0,0,0,0
0,9999,50,0,50,0,40,9999,0.100000,99,99,0.000000,0,1.000000,29.843639,9.093438,99,99,0,0,0,0,0
0,9999,51,0,51,0,40,9999,0.100000,99,99,0.000000,0,2.000000,32.084384,14.806627,99,99,0,0,0,0,0
0,9999,52,0,52,0,41,9999,0.100000,99,99,0.000000,0,4.000000,30.483163,11.737912,99,99,0,0,0,0,0
0,9999,53,0,53,0,40,9999,0.100000,99,99,0.000000,0,2.000000,34.101452,7.903050,99,99,0,0,0,0,0
0,9999,54,0,54,0,40,9999,0.100000,99,99,0.000000,0,2.000000,25.401948,6.034962,99,99,0,0,0,0,0
0,9999,55,0,55,0,40,9999,0.100000,99,99,0.000000,0,2.000000,30.024235,3.510331,99,99,0,0,0,0,0
0,9999,56,0,56,0,40,9999,0.100000,99,99,0.000000,0,0.000000,25.376931,6.209666,99,99,0,0,0,0,0
0,9999,57,0,57,0,40,9999,0.100000,99,99,0.000000,0,2.000000,31.434785,14.020530,99,99,0,0,0,0,0
0,9999,58,0,58,0,40,9999,0.100000,99,99,0.000000,0,3.000000,30.802163,15.748516,99,99,0,0,0,0,0
0,9999,59,0,59,0,0,9999,0.100000,99,99,11.762396,0,2.000000,29.079046,2.769103,99,99,0,0,0,1,0
0,9999,60,0,60,0,96,9999,0.100000,99,99,83.249686,0,16.000000,22.035365,24.243208,99,99,1,0,0,0,0
0,9999,61,0,61,0,40,9999,0.100000,99,99,0.000000,0,1.000000,29.768662,6.358202,99,99,0,0,0,0,0
0,9999,62,0,62,0,0,9999,0.100000,99,99,0.000103,0,0.000000,16.328507,0.766814,99,99,0,0,0,0,1
0,9999,63,0,63,0,40,9999,0.100000,99,99,0.000000,0,0.000000,26.636406,2.615400,99,99,0,0,0,0,0
0,9999,64,0,64,0,40,9999,0.100000,99,99,0.000000,0,0.000000,25.902830,1.156238,99,99,0,0,0,0,0
0,9999,65,0,65,0,40,9999,0.100000,99,99,0.000000,0,2.000000,28.436106,9.812015,99,99,0,0,0,0,0
0,9999,66,0,66,0,40,9999,0.100000,99,99,0.000000,0,1.000000,27.873164,3.038346,99,99,0,0,0,0,0
0,9999,67,0,67,0,41,9999,0.100000,99,99,0.000000,0,4.000000,34.276944,14.727117,99,99,0,0,0,0,0
0,9999,68,0,68,0,40,9999,0.100000,99,99,0.000000,0,3.000000,29.581879,6.894685,99,99,0,0,0,0,0
0,9999,69,0,69,0,40,9999,0.100000,99,99,0.000000,0,2.000000,26.401220,5.069068,99,99,0,0,0,0,0
0,9999,70,0,70,0,90,9999,0.100000,99,99,4.987653,0,2.000000,29.773973,10.581268,99,99,1,0,0,0,0
0,9999,71,0,71,0,94,9999,0.100000,99,99,67.254005,0,13.000000,29.216920,21.952102,99,99,1,0,0,0,0
0,9999,72,0,72,0,40,9999,0.100000,99,99,0.000000,0,1.000000,29.798990,6.051443,99,99,0,0,0,0,0
0,9999,73,0,73,0,40,9999,0.100000,99,99,0.000000,0,1.000000,27.055791,4.651460,99,99,0,0,0,0,0
0,9999,74,0,74,0,41,9999,0.100000,99,99,0.000000,0,4.000000,30.858571,12.308873,99,99,0,0,0,0,0
0,9999,75,0,75,0,41,9999,0.100000,99,99,0.000000,0,4.000000,24.268847,27.471386,99,99,0,0,0,0,0
0,9999,76,0,76,0,40,9999,0.100000,99,99,0.000000,0,3.000000,31.936727,10.807364,99,99,0,0,0,0,0
0,9999,77,0,77,0,40,9999,0.100000,99,99,0.000000,0,1.000000,25.866002,8.115679,99,99,0,0,0,0,0
0,9999,78,0,78,0,40,9999,0.100000,99,99,0.000000,0,1.000000,26.368873,1.962354,99,99,0,0,0,0,0
0,9999,79,0,79,0,40,9999,0.100000,99,99,0.000000,0,3.000000,29.428844,12.908114,99,99,0,0,0,0,0
0,9999,80,0,80,0,97,9999,0.100000,99,99,83.088870,0,16.000000,21.335784,26.816250,99,99,1,0,0,0,0
0,9999,81,0,81,0,40,9999,0.100000,99,99,0.000000,0,3.000000,31.882642,15.597724,99,99,0,0,0,0,0
0,9999,82,0,82,0,0,9999,0.100000,99,99,0.027045,0,1.000000,22.870120,3.484144,99,99,0,0,0,1,0
0,9999,83,0,83,0,40,9999,0.100000,99,99,0.000000,0,1.000000,24.244297,10.273959,99,99,0,0,0,0,0
0,9999,84,0,84,0,41,9999,0.100000,99,99,0.000000,0,5.000000,24.458562,17.653851,99,99,0,0,0,0,0
0,9999,85,0,85,0,40,9999,0.100000,99,99,0.000000,0,1.000000,29.400000,9.762716,99,99,0,0,0,0,0
0,9999,86,0,86,0,0,9999,0.100000,99,99,0.232783,0,0.000000,20.204411,1.026383,99,99,0,0,0,0,1
0,9999,87,0,87,0,0,9999,0.100000,99,99,0.003262,0,2.000000,25.761345,7.623459,99,99,0,0,1,0,0
0,9999,88,0,88,0,94,9999,0.100000,99,99,79.125101,0,14.000000,27.258621,20.470043,99,99,1,0,0,0,0
0,9999,89,0,89,0,90,9999,0.100000,99,99,0.786422,0,1.000000,33.407905,4.481811,99,99,1,0,0,0,0
0,9999,90,0,90,0,40,9999,0.100000,99,99,0.000000,0,2.000000,23.730623,9.835033,99,99,0,0,0,0,0
0,9999,91,0,91,0,40,9999,0.100000,99,99,0.000000,0,1.000000,21.280514,20.721450,99,99,0,0,0,0,0
0,9999,92,0,92,0,40,9999,0.100000,99,99,0.000000,0,1.000000,24.462711,6.205627,99,99,0,0,0,0,0
0,9999,93,0,93,0,40,9999,0.100000,99,99,0.000000,0,1.000000,26.682026,6.700985,99,99,0,0,0,0,0
0,9999,94,0,94,0,40,9999,0.100000,99,99,0.000000,0,2.000000,26.752910,9.315984,99,99,0,0,0,0,0
0,9999,95,0,95,0,40,9999,0.100000,99,99,0.000000,0,1.000000,27.269916,12.067908,99,99,0,0,0,0,0
0,9999,96,0,96,0,90,9999,0.100000,99,99,1.434512,0,2.000000,26.422241,6.223664,99,99,1,0,0,0,0
0,9999,97,0,97,0,91,9999,0.100000,99,99,17.436372,0,3.000000,25.239750,20.423155,99,99,1,0,0,0,0
0,9999,98,0,98,0,40,9999,0.100000,99,99,0.000000,0,2.000000,26.227446,11.930741,99,99,0,0,0,0,0
0,9999,99,0,99,0,41,9999,0.100000,99,99,0.000000,0,5.000000,28.926436,12.184328,99,99,0,0,0,0,0
1,19999,0,10000,60,0,40,9999,0.100000,99,198,0.000000,1,0.000000,25.157109,5.824507,99,99,0,0,0,0,0
1,19999,1,10000,60,0,0,9999,0.100000,99,198,12.003373,1,2.000000,28.168024,9.429818,99,99,0,0,1,0,0
1,19999,2,10000,60,0,40,9999,0.100000,99,198,0.000000,1,1.000000,31.921048,12.740620,99,99,0,0,0,0,0
1,19999,3,10000,60,0,40,9999,0.100000,99,198,0.000000,1,1.000000,30.872333,10.172672,99,99,0,0,0,0,0
1,19999,4,10000,60,0,40,9999,0.100000,99,198,0.000000,1,1.000000,30.754550,8.351010,99,99,0,0,0,0,0
1,19999,5,10000,60,0,41,9999,0.100000,99,198,0.000000,1,4.000000,32.697260,8.349009,99,99,0,0,0,0,0
1,19999,6,10000,60,0,0,9999,0.100000,99,198,13.257708,1,2.000000,26.749461,2.697042,99,99,0,0,1,0,0
1,19999,7,10000,60,0,40,9999,0.100000,99,198,0.000000,1,2.000000,22.952898,10.794986,99,99,0,0,0,0,0
1,19999,8,10000,60,0,40,9999,0.100000,99,198,0.000000,1,2.000000,27.396920,5.732918,99,99,0,0,0,0,0
1,19999,9,10000,60,0,40,9999,0.100000,99,198,0.000000,1,0.000000,30.061632,1.541076,99,99,0,0,0,0,0
1,19999,10,10000,60,0,41,9999,0.100000,99,198,0.000000,1,4.000000,29.104725,16.385587,99,99,0,0,0,0,0
1,19999,11,10000,60,0,40,9999,0.100000,99,198,0.000000,1,2.000000,31.291963,7.752442,99,99,0,0,0,0,0
1,19999,12,10000,60,0,41,9999,0.100000,99,198,0.000000,1,4.000000,32.712214,6.704249,99,99,0,0,0,0,0
1,19999,13,10000,60,0,0,9999,0.100000,99,198,0.147732,1,1.000000,19.696645,2.848363,99,99,0,0,0,1,0
1,19999,14,10000,60,0,40,9999,0.100000,99,198,0.000000,1,2.000000,26.988350,12.440161,99,99,0,0,0,0,0
1,19999,15,10000,60,0,42,9999,0.100000,99,198,0.000000,1,3.000000,12.082532,7.954145,99,99,0,0,0,0,0
1,19999,16,10000,60,0,90,9999,0.100000,99,198,14.773781,1,2.000000,19.279021,3.350239,99,99,1,0,0,0,0
1,19999,17,10000,60,0,0,9999,0.100000,99,198,12.030731,1,2.000000,28.268133,14.869608,99,99,0,0,1,0,0
1,19999,18,10000,60,0,40,9999,0.100000,99,198,0.000000,1,3.000000,29.204171,7.635189,99,99,0,0,0,0,0
1,19999,19,10000,60,0,0,9999,0.100000,99,198,0.226186,1,0.000000,18.876865,0.902392,99,99,0,1,0,0,0
1,19999,20,10000,60,0,40,9999,0.100000,99,198,0.000000,1,1.000000,31.559253,6.837968,99,99,0,0,0,0,0
1,19999,21,10000,60,0,93,9999,0.100000,99,198,34.492626,1,6.000000,18.163388,7.107138,99,99,1,0,0,0,0
1,19999,22,10000,60,0,41,9999,0.100000,99,198,0.000000,1,3.000000,26.436987,8.115156,99,99,0,0,0,0,0
1,19999,23,10000,60,0,40,9999,0.100000,99,198,0.000000,1,2.000000,33.579434,8.400309,99,99,0,0,0,0,0
1,19999,24,10000,60,0,41,9999,0.100000,99,198,0.000000,1,4.000000,26.953014,16.372224,99,99,0,0,0,0,0
1,19999,25,10000,60,0,40,9999,0.100000,99,198,0.000000,1,1.000000,25.936912,6.265679,99,99,0,0,0,0,0
1,19999,26,10000,60,0,40,9999,0.100000,99,198,4.282450,1,1.000000,31.067724,9.247697,99,99,0,0,0,0,0
1,19999,27,10000,60,0,40,9999,0.100000,99,198,0.000000,1,3.000000,35.557414,14.084335,99,99,0,0,0,0,0
1,19999,28,10000,60,0,0,9999,0.100000,99,198,0.001413,1,0.000000,18.726003,0.091382,99,99,0,0,0,0,1
1,19999,29,10000,60,0,90,9999,0.100000,99,198,1.119071,1,0.000000,25.634458,0.857725,99,99,1,0,0,0,0
1,19999,30,10000,60,0,40,9999,0.100000,99,198,0.000000,1,2.000000,23.922748,9.290325,99,99,0,0,0,0,0
1,19999,31,10000,60,0,40,9999,0.100000,99,198,0.000000,1,2.000000,30.659386,13.457311,99,99,0,0,0,0,0
1,19999,32,10000,60,0,40,9999,0.100000,99,198,0.000000,1,1.000000,31.795794,9.076616,99,99,0,0,0,0,0
1,19999,33,10000,60,0,45,9999,0.100000,99,198,0.000000,1,7.000000,11.524615,17.253126,99,99,0,0,0,0,0
1,19999,34,10000,60,0,40,9999,0.100000,99,198,0.000000,1,0.000000,18.763022,0.083461,99,99,0,0,0,0,0
1,19999,35,10000,60,0,99,9999,0.100000,99,198,65.640868,1,14.000000,14.468500,20.613456,99,99,1,0,0,0,0
1,19999,36,10000,60,0,40,9999,0.065000,99,198,0.000000,1,1.000000,30.537789,6.953258,99,99,0,0,0,0,0
1,19999,37,10000,60,0,0,9999,0.100000,99,198,6.647002,1,1.000000,30.422472,10.626839,99,99,0,1,0,0,0
1,19999,38,10000,60,0,40,9999,0.100000,99,198,0.000000,1,1.000000,19.019073,2.505097,99,99,0,0,0,0,0
1,19999,39,10000,60,0,41,9999,0.100000,99,198,0.000000,1,2.000000,14.817377,5.308481,99,99,0,0,0,0,0
1,19999,40,10000,60,0,40,9999,0.100000,99,198,0.000000,1,2.000000,26.783008,2.541577,99,99,0,0,0,0,0
1,19999,41,10000,60,0,40,9999,0.100000,99,198,0.000000,1,0.000000,30.511779,2.903259,99,99,0,0,0,0,0
1,19999,42,10000,60,0,40,9999,0.100000,99,198,0.000000,1,2.000000,28.106630,14.275325,99,99,0,0,0,0,0
1,19999,43,10000,60,0,40,9999,0.100000,99,198,0.000000,1,3.000000,34.969763,9.900664,99,99,0,0,0,0,0
1,19999,44,10000,60,0,0,9999,0.100000,99,198,7.297205,1,1.000000,27.818783,1.612504,99,99,0,1,0,0,0
1,19999,45,10000,60,0,0,9999,0.100000,99,198,0.016613,1,0.000000,22.391028,0.182501,99,99,0,0,0,0,1
1,19999,46,10000,60,0,41,9999,0.100000,99,198,0.000000,1,2.000000,17.654177,4.514777,99,99,0,0,0,0,0
1,19999,47,10000,60,0,1,9999,0.100000,99,198,26.187178,1,5.000000,25.235536,5.819711,99,99,0,0,0,1,0
1,19999,48,10000,60,0,0,9999,0.100000,99,198,0.235219,1,0.000000,21.760369,0.267248,99,99,0,1,0,0,0
1,19999,49,10000,60,0,40,9999,0.100000,99,198,0.000000,1,0.000000,32.666649,0.341734,99,99,0,0,0,0,0
1,19999,50,10000,60,0,40,9999,0.100000,99,198,0.000000,1,1.000000,30.553213,8.857756,99,99,0,0,0,0,0
1,19999,51,10000,60,0,40,9999,0.100000,99,198,0.000000,1,3.000000,34.042285,10.508579,99,99,0,0,0,0,0
1,19999,52,10000,60,0,41,9999,0.100000,99,198,0.000000,1,3.000000,27.443285,5.296066,99,99,0,0,0,0,0
1,19999,53,10000,60,0,40,9999,0.100000,99,198,0.000000,1,3.000000,34.925413,16.719412,99,99,0,0,0,0,0
1,19999,54,10000,60,0,1,9999,0.100000,99,198,12.016925,1,4.000000,28.363188,16.045867,99,99,0,-1,1,0,0
1,19999,55,10000,60,0,0,9999,0.100000,99,198,0.440409,1,0.000000,30.210103,0.500750,99,99,0,1,0,0,0
1,19999,56,10000,60,0,1,9999,0.100000,99,198,0.360217,1,3.000000,25.995439,6.968314,99,99,0,0,1,0,0
1,19999,57,10000,60,0,40,9999,0.100000,99,198,0.000000,1,1.000000,30.904856,1.577787,99,99,0,0,0,0,0
1,19999,58,10000,60,0,40,9999,0.100000,99,198,0.000000,1,2.000000,30.234313,10.390546,99,99,0,0,0,0,0
1,19999,59,10000,60,0,0,9999,0.100000,99,198,4.525209,1,1.000000,31.080361,1.209025,99,99,0,0,0,1,0
1,19999,60,10000,80,0,41,9999,0.100000,99,198,0.000000,1,4.000000,32.043724,11.901793,99,99,0,0,0,0,0
1,19999,61,10000,60,0,40,9999,0.100000,99,198,0.000000,1,2.000000,28.039159,13.019717,99,99,0,0,0,0,0
1,19999,62,10000,60,0,0,9999,0.100000,99,198,0.000577,1,0.000000,16.545482,0.067783,99,99,0,0,0,0,1
1,19999,63,10000,60,0,41,9999,0.100000,99,198,0.000000,1,4.000000,26.040914,17.358829,99,99,0,0,0,0,0
1,19999,64,10000,60,0,40,9999,0.100000,99,198,0.000000,1,0.000000,25.039679,1.016642,99,99,0,0,0,0,0
1,19999,65,10000,60,0,40,9999,0.100000,99,198,0.000000,1,3.000000,29.551265,13.226334,99,99,0,0,0,0,0
1,19999,66,10000,60,0,40,9999,0.100000,99,198,0.000000,1,0.000000,26.614246,5.511477,99,99,0,0,0,0,0
1,19999,67,10000,60,0,40,9999,0.100000,99,198,0.000000,1,1.000000,31.155371,1.288533,99,99,0,0,0,0,0
1,19999,68,10000,60,0,40,9999,0.100000,99,198,0.000000,1,2.000000,31.950991,5.670857,99,99,0,0,0,0,0
1,19999,69,10000,60,0,41,9999,0.100000,99,198,0.000000,1,3.000000,24.520084,10.611832,99,99,0,0,0,0,0
1,19999,70,10000,60,0,0,9999,0.100000,99,198,6.816561,1,2.000000,31.868590,12.403564,99,99,0,1,0,0,0
1,19999,71,10000,60,0,40,9999,0.100000,99,198,0.000000,1,0.000000,35.709900,10.694437,99,99,0,0,0,0,0
1,19999,72,10000,60,0,40,9999,0.100000,99,198,0.000000,1,1.000000,31.013744,2.025617,99,99,0,0,0,0,0
1,19999,73,10000,60,0,41,9999,0.100000,99,198,0.000000,1,5.000000,25.517701,5.305384,99,99,0,0,0,0,0
1,19999,74,10000,60,0,41,9999,0.100000,99,198,0.000000,1,6.000000,30.727691,16.304818,99,99,0,0,0,0,0
1,19999,75,10000,60,0,41,9999,0.100000,99,198,0.000000,1,5.000000,27.949807,10.493467,99,99,0,0,0,0,0
1,19999,76,10000,60,0,40,9999,0.100000,99,198,0.000000,1,1.000000,32.574819,10.998223,99,99,0,0,0,0,0
1,19999,77,10000,60,0,40,9999,0.100000,99,198,0.000000,1,0.000000,27.539999,9.845138,99,99,0,0,0,0,0
1,19999,78,10000,60,0,41,9999,0.100000,99,198,0.000000,1,5.000000,26.017786,5.250962,99,99,0,0,0,0,0
1,19999,79,10000,60,0,41,9999,0.100000,99,198,0.000000,1,6.000000,30.045999,15.475084,99,99,0,0,0,0,0
1,19999,80,10000,60,0,40,9999,0.100000,99,198,0.000000,1,2.000000,33.165773,3.886027,99,99,0,0,0,0,0
1,19999,81,10000,60,0,40,9999,0.100000,99,198,0.000000,1,2.000000,30.741857,9.451252,99,99,0,0,0,0,0
1,19999,82,10000,60,0,0,9999,0.100000,99,198,0.096571,1,0.000000,22.697352,0.562947,99,99,0,0,0,1,0
1,19999,83,10000,60,0,40,9999,0.100000,99,198,0.000000,1,2.000000,25.617603,8.116406,99,99,0,0,0,0,0
1,19999,84,10000,60,0,40,9999,0.100000,99,198,0.000000,1,1.000000,26.502334,5.693386,99,99,0,0,0,0,0
1,19999,85,10000,60,0,40,9999,0.100000,99,198,0.000000,1,1.000000,30.914494,1.224285,99,99,0,0,0,0,0
1,19999,86,10000,60,0,0,9999,0.100000,99,198,0.259665,1,0.000000,20.095019,0.164790,99,99,0,0,0,0,1
1,19999,87,10000,60,0,0,9999,0.100000,99,198,2.108762,1,1.000000,27.964352,1.297298,99,99,0,0,1,0,0
1,19999,88,10000,60,0,40,9999,0.100000,99,198,0.000000,1,2.000000,35.294529,7.684998,99,99,0,0,0,0,0
1,19999,89,10000,60,0,90,9999,0.100000,99,198,0.187174,1,0.000000,33.242685,0.608695,99,99,1,0,0,0,0
1,19999,90,10000,60,0,40,9999,0.100000,99,198,0.000000,1,0.000000,22.886624,5.305652,99,99,0,0,0,0,0
1,19999,91,10000,60,0,40,9999,0.100000,99,198,0.000000,1,0.000000,20.555323,0.135830,99,99,0,0,0,0,0
1,19999,92,10000,60,0,40,9999,0.100000,99,198,0.000000,1,2.000000,24.427011,5.766584,99,99,0,0,0,0,0
1,19999,93,10000,60,0,40,9999,0.100000,99,198,0.000000,1,1.000000,25.810933,6.839569,99,99,0,0,0,0,0
1,19999,94,10000,60,0,40,9999,0.100000,99,198,0.000000,1,1.000000,26.078778,9.129390,99,99,0,0,0,0,0
1,19999,95,10000,60,0,41,9999,0.100000,99,198,0.000000,1,4.000000,27.006247,8.947948,99,99,0,0,0,0,0
1,19999,96,10000,60,0,90,9999,0.100000,99,198,1.893337,1,0.000000,25.615374,0.902355,99,99,1,0,0,0,0
1,19999,97,10000,60,0,40,9999,0.100000,99,198,0.000000,1,1.000000,27.525919,12.568723,99,99,0,0,0,0,0
1,19999,98,10000,60,0,41,9999,0.100000,99,198,0.000000,1,4.000000,27.505733,13.108028,99,99,0,0,0,0,0
1,19999,99,10000,60,0,41,9999,0.100000,99,198,0.000000,1,4.000000,29.659454,14.754776,99,99,0,0,0,0,0
2,29999,0,20000,35,10000,41,9999,0.100000,99,297,0.000000,2,3.000000,25.415438,11.477377,99,99,0,0,0,0,0
2,29999,1,20000,35,10000,40,9999,0.100000,99,297,0.000000,1,1.000000,28.413849,5.644893,99,99,0,0,0,0,0
2,29999,2,20000,35,10000,40,9999,0.100000,99,297,0.000000,2,1.000000,31.108432,11.023839,99,99,0,0,0,0,0
2,29999,3,20000,35,10000,40,9999,0.100000,99,297,0.000000,2,0.000000,31.709014,7.893767,99,99,0,0,0,0,0
2,29999,4,20000,35,10000,0,9999,0.100000,99,297,1.069137,1,0.000000,31.702447,5.596136,99,99,0,0,0,1,0
2,29999,5,20000,35,10000,40,9999,0.100000,99,297,0.000000,1,1.000000,28.645468,9.490896,99,99,0,0,0,0,0
2,29999,6,20000,35,10000,1,9999,0.100000,99,297,33.311486,1,5.000000,24.664173,7.129607,99,99,0,0,1,0,0
2,29999,7,20000,35,10000,40,9999,0.100000,99,297,0.000000,2,1.000000,24.433271,5.363237,99,99,0,0,0,0,0
2,29999,8,20000,35,10000,40,9999,0.100000,99,297,0.000000,2,0.000000,29.506980,10.676960,99,99,0,0,0,0,0
2,29999,9,20000,35,10000,40,9999,0.100000,99,297,0.000000,2,0.000000,30.573541,0.781709,99,99,0,0,0,0,0
2,29999,10,20000,35,10000,40,9999,0.100000,99,297,0.000000,2,2.000000,25.506024,7.263249,99,99,0,0,0,0,0
2,29999,11,20000,35,10000,40,9999,0.100000,99,297,0.000000,2,1.000000,31.168434,8.266348,99,99,0,0,0,0,0
2,29999,12,20000,35,10000,40,9999,0.100000,99,297,0.000000,2,1.000000,37.104229,2.612144,99,99,0,0,0,0,0
2,29999,13,20000,35,10000,0,9999,0.100000,99,297,1.806270,2,0.000000,20.411592,0.433569,99,99,0,0,0,1,0
2,29999,14,20000,35,10000,40,9999,0.100000,99,297,0.000000,1,0.000000,27.051139,5.363986,99,99,0,0,0,0,0
2,29999,15,20000,35,10000,40,9999,0.100000,99,297,0.000000,2,1.000000,14.742038,9.657233,99,99,0,0,0,0,0
2,29999,16,20000,35,10000,0,9999,0.100000,99,297,0.001193,2,0.000000,22.147494,0.574051,99,99,0,0,0,0,1
2,29999,17,20000,35,10000,40,9999,0.100000,99,297,0.000000,2,0.000000,29.443770,10.824268,99,99,0,0,0,0,0
2,29999,18,20000,35,10000,41,9999,0.100000,99,297,0.000000,2,4.000000,28.161125,5.654476,99,99,0,0,0,0,0
2,29999,19,20000,35,10000,41,9999,0.100000,99,297,0.000000,2,2.000000,18.867827,5.021576,99,99,0,0,0,0,0
2,29999,20,20000,35,10000,0,9999,0.100000,99,297,0.037135,2,3.000000,31.637699,11.429999,99,99,0,0,1,0,0
2,29999,21,20000,35,10000,91,9999,0.100000,99,297,15.580236,2,3.000000,24.525776,3.504516,99,99,1,0,0,0,0
2,29999,22,20000,35,10000,40,9999,0.100000,99,297,0.000000,2,0.000000,23.623260,1.013593,99,99,0,0,0,0,0
2,29999,23,20000,35,10000,40,9999,0.100000,99,297,0.000000,1,3.000000,31.906005,14.631079,99,99,0,0,0,0,0
2,29999,24,20000,35,10000,40,9999,0.100000,99,297,0.000000,2,1.000000,22.863251,19.461376,99,99,0,0,0,0,0
2,29999,25,20000,35,10000,40,9999,0.100000,99,297,0.000000,1,1.000000,26.797403,7.228468,99,99,0,0,0,0,0
2,29999,26,20000,35,10000,40,9999,0.100000,99,297,0.000000,2,1.000000,30.666190,9.005435,99,99,0,0,0,0,0
2,29999,27,20000,35,10000,40,9999,0.100000,99,297,0.000000,2,3.000000,32.377374,13.031587,99,99,0,0,0,0,0
2,29999,28,20000,35,10000,0,9999,0.100000,99,297,0.002220,1,0.000000,18.724755,0.113618,99,99,0,0,0,0,1
2,29999,29,20000,35,10000,90,9999,0.100000,99,297,5.454920,1,1.000000,25.713596,1.431714,99,99,1,0,0,0,0
2,29999,30,20000,35,10000,0,9999,0.100000,99,297,0.001732,1,1.000000,22.356539,2.642042,99,99,0,0,0,1,0
2,29999,31,20000,35,10000,40,9999,0.100000,99,297,0.000000,1,0.000000,31.755095,2.633789,99,99,0,0,0,0,0
2,29999,32,20000,35,10000,40,9999,0.100000,99,297,0.000000,2,0.000000,31.730998,6.826201,99,99,0,0,0,0,0
2,29999,33,20000,35,10000,40,9999,0.100000,99,297,0.000000,2,0.000000,19.387888,1.299151,99,99,0,0,0,0,0
2,29999,34,20000,35,10000,40,9999,0.100000,99,297,0.000000,2,0.000000,18.761248,0.079380,99,99,0,0,0,0,0
2,29999,35,20000,21,10000,41,9999,0.100000,99,297,0.000000,2,4.000000,27.987920,15.717721,99,99,0,0,0,0,0
2,29999,36,20000,35,10000,1,9999,0.100000,99,297,35.076230,1,5.000000,29.778132,11.686273,99,99,0,1,0,0,0
2,29999,37,20000,35,10000,40,9999,0.100000,99,297,0.000000,1,1.000000,30.759234,11.378959,99,99,0,0,0,0,0
2,29999,38,20000,35,10000,40,9999,0.100000,99,297,0.000000,2,0.000000,19.957659,1.421544,99,99,0,0,0,0,0
2,29999,39,20000,35,10000,40,9999,0.100000,99,297,0.000000,1,0.000000,16.077679,6.685276,99,99,0,0,0,0,0
2,29999,40,20000,35,10000,41,9999,0.100000,99,297,0.000000,1,5.000000,24.847657,7.363643,99,99,0,0,0,0,0
2,29999,41,20000,35,10000,40,9999,0.100000,99,297,0.000000,2,0.000000,30.987377,0.977557,99,99,0,0,0,0,0
2,29999,42,20000,35,10000,40,9999,0.100000,99,297,0.000000,1,2.000000,28.064435,7.695334,99,99,0,0,0,0,0
2,29999,43,20000,35,10000,40,9999,0.100000,99,297,0.000000,2,1.000000,31.552411,8.479199,99,99,0,0,0,0,0
2,29999,44,20000,35,10000,40,9999,0.100000,99,297,0.000000,1,2.000000,28.492075,7.337665,99,99,0,0,0,0,0
2,29999,45,20000,35,10000,40,9999,0.100000,99,297,0.000000,1,0.000000,22.401047,0.082320,99,99,0,0,0,0,0
2,29999,46,20000,35,10000,40,9999,0.100000,99,297,0.000000,2,0.000000,20.097688,0.905191,99,99,0,0,0,0,0
2,29999,47,20000,35,10000,0,9999,0.100000,99,297,2.227289,2,0.000000,27.340629,2.670711,99,99,0,0,0,1,0
2,29999,48,20000,35,10000,0,9999,0.100000,99,297,0.161018,1,0.000000,21.738156,0.256170,99,99,0,1,0,0,0
2,29999,49,20000,35,10000,40,9999,0.100000,99,297,0.000000,1,0.000000,32.658550,0.234749,99,99,0,0,0,0,0
2,29999,50,20000,35,10000,40,9999,0.100000,99,297,0.000000,1,3.000000,30.694043,17.751923,99,99,0,0,0,0,0
2,29999,51,20000,35,10000,40,9999,0.100000,99,297,0.000000,1,1.000000,30.668781,5.703540,99,99,0,0,0,0,0
2,29999,52,20000,35,10000,41,9999,0.100000,99,297,0.000000,1,4.000000,24.400665,6.997804,99,99,0,0,0,0,0
2,29999,53,20000,35,10000,40,9999,0.100000,99,297,0.000000,1,0.000000,32.020293,11.754953,99,99,0,0,0,0,0
2,29999,54,20000,35,10000,40,9999,0.100000,99,297,0.000000,2,3.000000,29.816268,8.332605,99,99,0,0,0,0,0
2,29999,55,20000,35,10000,0,9999,0.100000,99,297,0.598751,2,0.000000,30.086854,1.602792,99,99,0,1,0,0,0
2,29999,56,20000,35,10000,0,9999,0.100000,99,297,1.511903,2,0.000000,23.308291,0.364339,99,99,0,0,1,0,0
2,29999,57,20000,35,10000,44,9999,0.100000,99,297,0.000000,1,15.000000,31.904292,19.679122,99,99,0,0,0,0,0
2,29999,58,20000,35,10000,40,9999,0.100000,99,297,0.000000,1,1.000000,31.932529,10.829964,99,99,0,0,0,0,0
2,29999,59,20000,35,10000,40,9999,0.100000,99,297,0.000000,1,0.000000,32.040651,6.382851,99,99,0,0,0,0,0
2,29999,60,20000,35,10000,40,9999,0.100000,99,297,0.000000,2,2.000000,36.479487,5.142963,99,99,0,0,0,0,0
2,29999,61,20000,35,10000,40,9999,0.100000,99,297,0.000000,1,2.000000,29.956116,7.112456,99,99,0,0,0,0,0
2,29999,62,20000,35,10000,0,9999,0.100000,99,297,0.000455,1,0.000000,16.545752,0.067113,99,99,0,0,0,0,1
2,29999,63,20000,35,10000,40,9999,0.100000,99,297,0.000000,2,1.000000,28.244727,14.685830,99,99,0,0,0,0,0
2,29999,64,20000,35,10000,40,9999,0.100000,99,297,0.000000,1,0.000000,24.261602,1.010926,99,99,0,0,0,0,0
2,29999,65,20000,35,10000,40,9999,0.100000,99,297,0.000000,1,0.000000,31.727115,15.935157,99,99,0,0,0,0,0
2,29999,66,20000,35,10000,40,9999,0.100000,99,297,0.000000,1,2.000000,27.021387,6.482857,99,99,0,0,0,0,0
2,29999,67,20000,35,10000,40,9999,0.100000,99,297,0.000000,2,1.000000,32.080530,22.452967,99,99,0,0,0,0,0
2,29999,68,20000,35,10000,41,9999,0.100000,99,297,0.000000,1,6.000000,30.236771,11.898069,99,99,0,0,0,0,0
2,29999,69,20000,35,10000,40,9999,0.100000,99,297,0.000000,2,1.000000,24.551309,11.192771,99,99,0,0,0,0,0
2,29999,70,20000,35,10000,40,9999,0.100000,99,297,0.000000,2,0.000000,32.160131,5.249946,99,99,0,0,0,0,0
2,29999,71,20000,35,10000,40,9999,0.100000,99,297,0.000000,2,1.000000,35.975875,4.666761,99,99,0,0,0,0,0
2,29999,72,20000,35,10000,40,9999,0.100000,99,297,0.000000,1,0.000000,31.625229,11.038354,99,99,0,0,0,0,0
2,29999,73,20000,35,10000,40,9999,0.100000,99,297,0.000000,2,0.000000,27.563913,2.361472,99,99,0,0,0,0,0
2,29999,74,20000,35,10000,91,9999,0.100000,99,297,3.994448,2,4.000000,26.294399,14.621756,99,99,1,0,0,0,0
2,29999,75,20000,35,10000,40,9999,0.100000,99,297,0.000000,1,0.000000,27.760355,2.338157,99,99,0,0,0,0,0
2,29999,76,20000,35,10000,40,9999,0.100000,99,297,0.000000,1,3.000000,32.096807,13.690588,99,99,0,0,0,0,0
2,29999,77,20000,35,10000,40,9999,0.100000,99,297,0.000000,1,2.000000,27.025803,9.777546,99,99,0,0,0,0,0
2,29999,78,20000,35,10000,40,9999,0.100000,99,297,0.000000,2,0.000000,27.961865,2.825087,99,99,0,0,0,0,0
2,29999,79,20000,35,10000,40,9999,0.100000,99,297,0.000000,2,0.000000,24.845883,9.513445,99,99,0,0,0,0,0
2,29999,80,20000,35,10000,40,9999,0.100000,99,297,0.000000,2,3.000000,34.574144,6.126537,99,99,0,0,0,0,0
2,29999,81,20000,35,10000,40,9999,0.100000,99,297,0.000000,1,0.000000,31.946614,8.183861,99,99,0,0,0,0,0
2,29999,82,20000,35,10000,40,9999,0.100000,99,297,0.000000,1,1.000000,22.458783,1.537513,99,99,0,0,0,0,0
2,29999,83,20000,35,10000,40,9999,0.100000,99,297,0.000000,1,2.000000,26.466285,14.534401,99,99,0,0,0,0,0
2,29999,84,20000,35,10000,40,9999,0.100000,99,297,0.000000,2,1.000000,28.084360,7.844116,99,99,0,0,0,0,0
2,29999,85,20000,35,10000,40,9999,0.100000,99,297,0.000000,1,0.000000,31.958353,1.438979,99,99,0,0,0,0,0
2,29999,86,20000,35,10000,0,9999,0.100000,99,297,0.545101,1,0.000000,20.170060,0.163560,99,99,0,0,0,0,1
2,29999,87,20000,35,10000,41,9999,0.100000,99,297,0.000000,1,5.000000,28.306983,9.816384,99,99,0,0,0,0,0
2,29999,88,20000,35,10000,40,9999,0.100000,99,297,0.000000,2,1.000000,37.190646,3.021538,99,99,0,0,0,0,0
2,29999,89,20000,35,10000,90,9999,0.100000,99,297,0.107379,1,0.000000,33.336049,0.579035,99,99,1,0,0,0,0
2,29999,90,20000,35,10000,40,9999,0.100000,99,297,0.000000,1,1.000000,22.258482,1.688480,99,99,0,0,0,0,0
2,29999,91,20000,35,10000,40,9999,0.100000,99,297,0.000000,1,0.000000,20.628421,0.112064,99,99,0,0,0,0,0
2,29999,92,20000,35,10000,40,9999,0.100000,99,297,0.000000,1,0.000000,23.582204,0.662234,99,99,0,0,0,0,0
2,29999,93,20000,35,10000,40,9999,0.100000,99,297,0.000000,1,2.000000,25.197208,6.709860,99,99,0,0,0,0,0
2,29999,94,20000,35,10000,40,9999,0.100000,99,297,0.000000,1,0.000000,24.780155,4.221656,99,99,0,0,0,0,0
2,29999,95,20000,35,10000,40,9999,0.100000,99,297,0.000000,2,1.000000,22.687650,7.886220,99,99,0,0,0,0,0
2,29999,96,20000,35,10000,90,9999,0.100000,99,297,0.123442,1,0.000000,26.027791,0.523519,99,99,1,0,0,0,0
2,29999,97,20000,35,10000,40,9999,0.100000,99,297,0.000000,2,2.000000,25.958218,12.132551,99,99,0,0,0,0,0
2,29999,98,20000,35,10000,40,9999,0.100000,99,297,0.000000,2,1.000000,32.125279,12.333534,99,99,0,0,0,0,0
2,29999,99,20000,35,10000,40,9999,0.100000,99,297,0.000000,1,2.000000,27.963575,14.139017,99,99,0,0,0,0,0
3,39999,0,30000,36,20000,40,9999,0.100000,99,396,0.000000,2,0.000000,21.881975,3.793921,99,99,0,0,0,0,0
3,39999,1,30000,36,20000,40,9999,0.100000,99,396,0.000000,2,1.000000,28.502930,9.609737,99,99,0,0,0,0,0
3,39999,2,30000,36,20000,40,9999,0.100000,99,396,0.000000,2,0.000000,30.731008,9.073967,99,99,0,0,0,0,0
3,39999,3,30000,36,20000,40,9999,0.100000,99,396,0.000000,2,1.000000,32.550167,14.859374,99,99,0,0,0,0,0
3,39999,4,30000,36,20000,0,9999,0.100000,99,396,6.795040,2,1.000000,32.681821,2.193892,99,99,0,0,0,1,0
3,39999,5,30000,36,20000,41,9999,0.100000,99,396,0.000000,2,5.000000,29.497320,17.957955,99,99,0,0,0,0,0
3,39999,6,30000,36,20000,40,9999,0.100000,99,396,0.000000,2,0.000000,27.898806,0.807301,99,99,0,0,0,0,0
3,39999,7,30000,36,20000,40,9999,0.100000,99,396,0.000000,2,1.000000,23.488424,10.310366,99,99,0,0,0,0,0
3,39999,8,30000,36,20000,40,9999,0.100000,99,396,0.000000,2,1.000000,30.248470,6.680141,99,99,0,0,0,0,0
3,39999,9,30000,36,20000,40,9999,0.100000,99,396,0.000000,2,0.000000,30.709897,0.776303,99,99,0,0,0,0,0
3,39999,10,30000,36,20000,40,9999,0.100000,99,396,0.000000,2,1.000000,23.719245,7.517148,99,99,0,0,0,0,0
3,39999,11,30000,36,20000,40,9999,0.100000,99,396,0.000000,2,1.000000,32.322942,6.021406,99,99,0,0,0,0,0
3,39999,12,30000,36,20000,40,9999,0.100000,99,396,0.000000,2,0.000000,37.904964,2.559484,99,99,0,0,0,0,0
3,39999,13,30000,36,20000,40,9999,0.100000,99,396,0.000000,2,0.000000,20.780177,0.234763,99,99,0,0,0,0,0
3,39999,14,30000,36,20000,40,9999,0.100000,99,396,0.000000,1,1.000000,26.884184,10.588232,99,99,0,0,0,0,0
3,39999,15,30000,36,20000,41,9999,0.100000,99,396,0.000000,2,2.000000,14.442564,8.481617,99,99,0,0,0,0,0
3,39999,16,30000,36,20000,0,9999,0.100000,99,396,0.012277,3,0.000000,21.906565,0.178973,99,99,0,0,0,0,1
3,39999,17,30000,36,20000,40,9999,0.100000,99,396,0.000000,2,1.000000,29.223874,6.244694,99,99,0,0,0,0,0
3,39999,18,30000,36,20000,40,9999,0.100000,99,396,0.000000,2,0.000000,30.966014,0.717882,99,99,0,0,0,0,0
3,39999,19,30000,36,20000,40,9999,0.100000,99,396,0.000000,3,0.000000,21.352955,2.574550,99,99,0,0,0,0,0
3,39999,20,30000,36,20000,40,9999,0.100000,99,396,0.000000,3,0.000000,31.338276,0.543661,99,99,0,0,0,0,0
3,39999,21,30000,36,20000,40,9999,0.100000,99,396,0.000000,3,0.000000,27.488183,5.005362,99,99,0,0,0,0,0
3,39999,22,30000,36,20000,40,9999,0.100000,99,396,0.000000,2,0.000000,24.002527,5.060203,99,99,0,0,0,0,0
3,39999,23,30000,36,20000,43,9999,0.100000,99,396,0.000000,1,11.000000,29.452653,12.195704,99,99,0,0,0,0,0
3,39999,24,30000,36,20000,40,9999,0.100000,99,396,0.000000,2,0.000000,21.441169,0.775626,99,99,0,0,0,0,0
3,39999,25,30000,36,20000,40,9999,0.100000,99,396,0.000000,1,1.000000,26.945254,10.773694,99,99,0,0,0,0,0
3,39999,26,30000,36,20000,40,9999,0.100000,99,396,0.000000,2,1.000000,30.682096,3.179765,99,99,0,0,0,0,0
3,39999,27,30000,36,20000,40,9999,0.100000,99,396,0.000000,2,1.000000,31.494465,6.756129,99,99,0,0,0,0,0
3,39999,28,30000,36,20000,0,9999,0.100000,99,396,0.001912,1,0.000000,18.722537,0.094954,99,99,0,0,0,0,1
3,39999,29,30000,36,20000,91,9999,0.100000,99,396,20.461686,1,3.000000,26.134665,4.550667,99,99,1,0,0,0,0
3,39999,30,30000,36,20000,40,9999,0.100000,99,396,0.000000,2,0.000000,21.120733,0.393584,99,99,0,0,0,0,0
3,39999,31,30000,36,20000,40,9999,0.100000,99,396,0.000000,1,1.000000,32.623516,2.662601,99,99,0,0,0,0,0
3,39999,32,30000,36,20000,40,9999,0.100000,99,396,0.000000,2,0.000000,31.311122,13.538924,99,99,0,0,0,0,0
3,39999,33,30000,36,20000,40,9999,0.100000,99,396,0.000000,3,0.000000,19.652513,0.475712,99,99,0,0,0,0,0
3,39999,34,30000,36,20000,40,9999,0.100000,99,396,0.000000,2,0.000000,18.758609,0.079688,99,99,0,0,0,0,0
3,39999,35,30000,36,20000,40,9999,0.100000,99,396,0.000000,3,1.000000,25.487927,11.508398,99,99,0,0,0,0,0
3,39999,36,30000,6,20000,40,9999,0.100000,99,396,0.000000,2,1.000000,32.857495,3.427741,99,99,0,0,0,0,0
3,39999,37,30000,36,20000,40,9999,0.100000,99,396,0.000000,2,0.000000,30.195179,8.541188,99,99,0,0,0,0,0
3,39999,38,30000,36,20000,0,9999,0.100000,99,396,0.902245,2,0.000000,20.258580,0.180514,99,99,0,0,0,1,0
3,39999,39,30000,36,20000,43,9999,0.100000,99,396,0.000000,2,5.000000,15.649991,12.308937,99,99,0,0,0,0,0
3,39999,40,30000,36,20000,0,9999,0.100000,99,396,2.875266,2,0.000000,27.773590,0.584098,99,99,0,0,1,0,0
3,39999,41,30000,36,20000,40,9999,0.100000,99,396,0.000000,2,0.000000,31.242906,0.996124,99,99,0,0,0,0,0
3,39999,42,30000,36,20000,41,9999,0.100000,99,396,0.000000,1,3.000000,25.442203,9.738326,99,99,0,0,0,0,0
3,39999,43,30000,36,20000,40,9999,0.100000,99,396,0.000000,2,1.000000,32.661331,3.724855,99,99,0,0,0,0,0
3,39999,44,30000,36,20000,40,9999,0.100000,99,396,0.000000,2,1.000000,27.005915,17.930639,99,99,0,0,0,0,0
3,39999,45,30000,36,20000,40,9999,0.100000,99,396,0.000000,2,0.000000,22.401678,0.079870,99,99,0,0,0,0,0
3,39999,46,30000,36,20000,40,9999,0.100000,99,396,0.000000,2,0.000000,20.645740,0.324347,99,99,0,0,0,0,0
3,39999,47,30000,36,20000,2,9999,0.100000,99,396,30.647439,2,6.000000,27.180760,6.902701,99,99,0,0,0,1,0
3,39999,48,30000,36,20000,0,9999,0.100000,99,396,0.155879,1,0.000000,21.732158,0.196571,99,99,0,1,0,0,0
3,39999,49,30000,36,20000,40,9999,0.100000,99,396,0.000000,1,0.000000,32.660109,0.239659,99,99,0,0,0,0,0
3,39999,50,30000,36,20000,44,9999,0.100000,99,396,0.000000,1,15.000000,32.743421,21.784636,99,99,0,0,0,0,0
3,39999,51,30000,36,20000,0,9999,0.100000,99,396,1.356635,1,0.000000,30.805561,0.449912,99,99,0,0,1,0,0
3,39999,52,30000,36,20000,40,9999,0.100000,99,396,0.000000,1,0.000000,28.023935,0.668037,99,99,0,0,0,0,0
3,39999,53,30000,36,20000,41,9999,0.100000,99,396,0.000000,1,4.000000,32.522393,13.371099,99,99,0,0,0,0,0
3,39999,54,30000,36,20000,40,9999,0.100000,99,396,0.000000,3,1.000000,27.340250,9.882910,99,99,0,0,0,0,0
3,39999,55,30000,36,20000,0,9999,0.100000,99,396,0.723308,2,0.000000,30.211329,1.363539,99,99,0,1,0,0,0
3,39999,56,30000,36,20000,0,9999,0.100000,99,396,0.134402,3,0.000000,23.475658,0.235410,99,99,0,0,1,0,0
3,39999,57,30000,36,20000,40,9999,0.100000,99,396,0.000000,2,0.000000,22.329190,1.312346,99,99,0,0,0,0,0
3,39999,58,30000,36,20000,40,9999,0.100000,99,396,0.000000,1,2.000000,32.576244,6.374371,99,99,0,0,0,0,0
3,39999,59,30000,36,20000,40,9999,0.100000,99,396,0.000000,2,1.000000,32.685945,6.181348,99,99,0,0,0,0,0
3,39999,60,30000,36,20000,40,9999,0.100000,99,396,0.000000,3,0.000000,37.960127,1.207940,99,99,0,0,0,0,0
3,39999,61,30000,36,20000,40,9999,0.100000,99,396,0.000000,1,0.000000,29.801609,3.204820,99,99,0,0,0,0,0
3,39999,62,30000,36,20000,0,9999,0.100000,99,396,0.000631,1,0.000000,16.545953,0.067752,99,99,0,0,0,0,1
3,39999,63,30000,36,20000,40,9999,0.100000,99,396,0.000000,2,1.000000,27.911560,13.266233,99,99,0,0,0,0,0
3,39999,64,30000,36,20000,40,9999,0.100000,99,396,0.000000,1,0.000000,23.495525,0.985260,99,99,0,0,0,0,0
3,39999,65,30000,36,20000,40,9999,0.100000,99,396,0.000000,1,2.000000,32.025444,3.797134,99,99,0,0,0,0,0
3,39999,66,30000,36,20000,40,9999,0.100000,99,396,0.000000,1,0.000000,28.736887,5.627427,99,99,0,0,0,0,0
3,39999,67,30000,36,20000,40,9999,0.100000,99,396,0.000000,2,2.000000,32.293609,6.631484,99,99,0,0,0,0,0
3,39999,68,30000,36,20000,0,9999,0.100000,99,396,0.264153,2,0.000000,33.067949,3.098447,99,99,0,1,0,0,0
3,39999,69,30000,36,20000,40,9999,0.100000,99,396,0.000000,2,1.000000,23.505530,12.415217,99,99,0,0,0,0,0
3,39999,70,30000,36,20000,40,9999,0.100000,99,396,0.000000,3,1.000000,32.065088,5.406682,99,99,0,0,0,0,0
3,39999,71,30000,36,20000,40,9999,0.100000,99,396,0.000000,2,1.000000,34.948768,7.418269,99,99,0,0,0,0,0
3,39999,72,30000,36,20000,40,9999,0.100000,99,396,0.000000,1,1.000000,32.572269,6.398447,99,99,0,0,0,0,0
3,39999,73,30000,36,20000,42,9999,0.100000,99,396,0.000000,2,6.000000,27.447343,6.349132,99,99,0,0,0,0,0
3,39999,74,30000,36,20000,95,9999,0.100000,99,396,74.995464,3,14.000000,22.809178,19.708191,99,99,1,0,0,0,0
3,39999,75,30000,36,20000,41,9999,0.100000,99,396,0.000000,2,5.000000,27.680304,6.330130,99,99,0,0,0,0,0
3,39999,76,30000,36,20000,40,9999,0.100000,99,396,0.000000,1,0.000000,31.222428,3.581506,99,99,0,0,0,0,0
3,39999,77,30000,36,20000,41,9999,0.100000,99,396,0.000000,1,3.000000,28.145130,11.168034,99,99,0,0,0,0,0
3,39999,78,30000,36,20000,41,9999,0.100000,99,396,0.000000,2,5.000000,27.913446,6.349532,99,99,0,0,0,0,0
3,39999,79,30000,36,20000,40,9999,0.100000,99,396,0.000000,2,1.000000,24.123435,4.753928,99,99,0,0,0,0,0
3,39999,80,30000,36,20000,40,9999,0.100000,99,396,0.000000,2,1.000000,36.961690,3.289961,99,99,0,0,0,0,0
3,39999,81,30000,36,20000,40,9999,0.100000,99,396,0.000000,1,2.000000,32.328740,6.243650,99,99,0,0,0,0,0
3,39999,82,30000,36,20000,0,9999,0.100000,99,396,0.187217,2,0.000000,21.533242,0.417833,99,99,0,0,0,1,0
3,39999,83,30000,36,20000,40,9999,0.100000,99,396,0.000000,1,2.000000,28.180761,16.567404,99,99,0,0,0,0,0
3,39999,84,30000,36,20000,40,9999,0.100000,99,396,0.000000,2,1.000000,28.949044,8.303572,99,99,0,0,0,0,0
3,39999,85,30000,36,20000,40,9999,0.100000,99,396,0.000000,1,1.000000,32.803266,1.759838,99,99,0,0,0,0,0
3,39999,86,30000,36,20000,40,9999,0.100000,99,396,0.000000,1,0.000000,20.231073,0.200811,99,99,0,0,0,0,0
3,39999,87,30000,36,20000,40,9999,0.100000,99,396,0.000000,2,0.000000,31.960642,5.618882,99,99,0,0,0,0,0
3,39999,88,30000,36,20000,40,9999,0.100000,99,396,0.000000,2,0.000000,38.001087,1.377476,99,99,0,0,0,0,0
3,39999,89,30000,36,20000,90,9999,0.100000,99,396,0.127095,1,0.000000,33.424610,0.562815,99,99,1,0,0,0,0
3,39999,90,30000,36,20000,40,9999,0.100000,99,396,0.000000,1,0.000000,21.370249,0.632328,99,99,0,0,0,0,0
3,39999,91,30000,36,20000,0,9999,0.100000,99,396,0.756866,1,0.000000,20.684777,0.128580,99,99,0,0,0,0,1
3,39999,92,30000,36,20000,40,9999,0.100000,99,396,0.000000,1,0.000000,23.911715,0.314500,99,99,0,0,0,0,0
3,39999,93,30000,36,20000,41,9999,0.100000,99,396,0.000000,1,3.000000,23.890011,8.573359,99,99,0,0,0,0,0
3,39999,94,30000,36,20000,40,9999,0.100000,99,396,0.000000,1,1.000000,23.877790,4.095632,99,99,0,0,0,0,0
3,39999,95,30000,36,20000,40,9999,0.100000,99,396,0.000000,2,0.000000,22.048028,21.447438,99,99,0,0,0,0,0
3,39999,96,30000,36,20000,90,9999,0.100000,99,396,0.029283,1,0.000000,26.036501,0.514151,99,99,1,0,0,0,0
3,39999,97,30000,36,20000,41,9999,0.100000,99,396,0.000000,2,3.000000,26.141945,8.029670,99,99,0,0,0,0,0
3,39999,98,30000,36,20000,40,9999,0.100000,99,396,0.000000,2,1.000000,33.191349,9.116664,99,99,0,0,0,0,0
3,39999,99,30000,36,20000,40,9999,0.100000,99,396,0.000000,2,0.000000,29.094944,4.346112,99,99,0,0,0,0,0
4,49999,0,40000,74,30000,40,9999,0.100000,99,495,0.000000,2,2.000000,21.816619,16.651837,99,99,0,0,0,0,0
4,49999,1,40000,74,30000,40,9999,0.100000,99,495,0.000000,2,0.000000,28.767647,5.764039,99,99,0,0,0,0,0
4,49999,2,40000,74,30000,40,9999,0.100000,99,495,0.000000,2,1.000000,30.847826,6.905257,99,99,0,0,0,0,0
4,49999,3,40000,74,30000,40,9999,0.100000,99,495,0.000000,2,3.000000,34.250597,10.528681,99,99,0,0,0,0,0
4,49999,4,40000,74,30000,0,9999,0.100000,99,495,0.107428,2,2.000000,34.301367,6.290095,99,99,0,1,0,0,0
4,49999,5,40000,74,30000,40,9999,0.100000,99,495,0.000000,2,0.000000,31.771403,1.772247,99,99,0,0,0,0,0
4,49999,6,40000,74,30000,40,9999,0.100000,99,495,0.000000,3,0.000000,28.459274,0.387754,99,99,0,0,0,0,0
4,49999,7,40000,74,30000,41,9999,0.100000,99,495,0.000000,2,3.000000,23.434456,10.634564,99,99,0,0,0,0,0
4,49999,8,40000,74,30000,40,9999,0.100000,99,495,0.000000,2,0.000000,29.759518,4.824061,99,99,0,0,0,0,0
4,49999,9,40000,74,30000,40,9999,0.100000,99,495,0.000000,2,0.000000,30.863776,0.904647,99,99,0,0,0,0,0
4,49999,10,40000,74,30000,40,9999,0.100000,99,495,0.000000,2,2.000000,22.392722,12.502968,99,99,0,0,0,0,0
4,49999,11,40000,74,30000,40,9999,0.100000,99,495,0.000000,2,1.000000,31.951522,9.783351,99,99,0,0,0,0,0
4,49999,12,40000,74,30000,40,9999,0.100000,99,495,0.000000,2,0.000000,37.889934,3.410302,99,99,0,0,0,0,0
4,49999,13,40000,74,30000,0,9999,0.100000,99,495,0.268349,2,0.000000,20.953305,0.138195,99,99,0,0,0,1,0
4,49999,14,40000,74,30000,40,9999,0.100000,99,495,0.000000,1,0.000000,26.314408,9.010659,99,99,0,0,0,0,0
4,49999,15,40000,74,30000,41,9999,0.100000,99,495,0.000000,2,3.000000,16.719826,9.725653,99,99,0,0,0,0,0
4,49999,16,40000,74,30000,0,9999,0.100000,99,495,0.012604,3,0.000000,21.912819,0.185735,99,99,0,0,0,0,1
4,49999,17,40000,74,30000,40,9999,0.100000,99,495,0.000000,2,0.000000,29.414503,8.827976,99,99,0,0,0,0,0
4,49999,18,40000,74,30000,40,9999,0.100000,99,495,0.000000,2,0.000000,30.901098,0.944781,99,99,0,0,0,0,0
4,49999,19,40000,74,30000,40,9999,0.100000,99,495,0.000000,3,0.000000,21.366777,2.379166,99,99,0,0,0,0,0
4,49999,20,40000,74,30000,40,9999,0.100000,99,495,0.000000,3,0.000000,31.388201,0.765649,99,99,0,0,0,0,0
4,49999,21,40000,74,30000,40,9999,0.100000,99,495,0.000000,4,0.000000,27.966609,5.289425,99,99,0,0,0,0,0
4,49999,22,40000,74,30000,40,9999,0.100000,99,495,0.000000,2,0.000000,23.959215,0.396688,99,99,0,0,0,0,0
4,49999,23,40000,74,30000,40,9999,0.100000,99,495,0.000000,2,0.000000,30.114568,0.138968,99,99,0,0,0,0,0
4,49999,24,40000,74,30000,40,9999,0.100000,99,495,0.000000,2,0.000000,21.331804,1.639243,99,99,0,0,0,0,0
4,49999,25,40000,74,30000,40,9999,0.100000,99,495,0.000000,1,2.000000,27.591751,6.597807,99,99,0,0,0,0,0
4,49999,26,40000,74,30000,40,9999,0.100000,99,495,0.000000,2,1.000000,30.146498,7.143350,99,99,0,0,0,0,0
4,49999,27,40000,74,30000,40,9999,0.100000,99,495,0.000000,2,1.000000,31.370720,14.936348,99,99,0,0,0,0,0
4,49999,28,40000,74,30000,40,9999,0.100000,99,495,0.000000,1,0.000000,18.721193,0.160123,99,99,0,0,0,0,0
4,49999,29,40000,74,30000,92,9999,0.100000,99,495,38.584115,2,7.000000,28.120157,8.733125,99,99,1,0,0,0,0
4,49999,30,40000,74,30000,0,9999,0.100000,99,495,0.062811,2,0.000000,21.038933,0.476551,99,99,0,0,0,1,0
4,49999,31,40000,74,30000,40,9999,0.100000,99,495,0.000000,2,3.000000,34.205339,11.790281,99,99,0,0,0,0,0
4,49999,32,40000,74,30000,41,9999,0.100000,99,495,0.000000,2,4.000000,31.292429,8.733895,99,99,0,0,0,0,0
4,49999,33,40000,74,30000,40,9999,0.100000,99,495,0.000000,3,0.000000,19.748376,0.404924,99,99,0,0,0,0,0
4,49999,34,40000,74,30000,0,9999,0.100000,99,495,0.042148,2,0.000000,18.756805,0.147321,99,99,0,0,0,0,1
4,49999,35,40000,74,30000,40,9999,0.100000,99,495,0.000000,3,1.000000,26.312635,9.134260,99,99,0,0,0,0,0
4,49999,36,40000,74,30000,40,9999,0.100000,99,495,0.000000,2,2.000000,33.746440,12.420273,99,99,0,0,0,0,0
4,49999,37,40000,74,30000,40,9999,0.100000,99,495,0.000000,2,0.000000,30.244053,4.753915,99,99,0,0,0,0,0
4,49999,38,40000,74,30000,40,9999,0.100000,99,495,0.000000,3,0.000000,20.392173,0.155753,99,99,0,0,0,0,0
4,49999,39,40000,74,30000,40,9999,0.100000,99,495,0.000000,3,0.000000,19.239798,0.711314,99,99,0,0,0,0,0
4,49999,40,40000,74,30000,40,9999,0.100000,99,495,0.000000,3,0.000000,28.269269,0.380124,99,99,0,0,0,0,0
4,49999,41,40000,74,30000,40,9999,0.100000,99,495,0.000000,2,0.000000,31.532890,0.963771,99,99,0,0,0,0,0
4,49999,42,40000,74,30000,40,9999,0.100000,99,495,0.000000,2,0.000000,26.171956,3.700412,99,99,0,0,0,0,0
4,49999,43,40000,74,30000,41,9999,0.100000,99,495,0.000000,3,5.000000,34.236174,15.643697,99,99,0,0,0,0,0
4,49999,44,40000,74,30000,40,9999,0.100000,99,495,0.000000,2,1.000000,27.468731,4.142010,99,99,0,0,0,0,0
4,49999,45,40000,74,30000,40,9999,0.100000,99,495,0.000000,2,0.000000,22.407220,0.079713,99,99,0,0,0,0,0
4,49999,46,40000,74,30000,40,9999,0.100000,99,495,0.000000,2,0.000000,20.791701,0.209830,99,99,0,0,0,0,0
4,49999,47,40000,74,30000,0,9999,0.100000,99,495,1.676226,2,0.000000,30.716661,2.250079,99,99,0,0,0,1,0
4,49999,48,40000,74,30000,0,9999,0.100000,99,495,0.140896,1,0.000000,21.720519,0.193489,99,99,0,1,0,0,0
4,49999,49,40000,74,30000,40,9999,0.100000,99,495,0.000000,1,0.000000,32.661738,0.254566,99,99,0,0,0,0,0
4,49999,50,40000,74,30000,41,9999,0.100000,99,495,0.000000,2,4.000000,24.862307,8.061059,99,99,0,0,0,0,0
4,49999,51,40000,74,30000,0,9999,0.100000,99,495,2.400555,2,0.000000,30.859912,0.618342,99,99,0,0,1,0,0
4,49999,52,40000,74,30000,0,9999,0.100000,99,495,1.598105,2,0.000000,28.560781,0.365661,99,99,0,0,1,0,0
4,49999,53,40000,74,30000,40,9999,0.100000,99,495,0.000000,2,0.000000,35.839019,0.234273,99,99,0,0,0,0,0
4,49999,54,40000,74,30000,40,9999,0.100000,99,495,0.000000,3,1.000000,26.481323,8.259768,99,99,0,0,0,0,0
4,49999,55,40000,74,30000,0,9999,0.100000,99,495,0.408266,2,0.000000,30.368285,0.933314,99,99,0,1,0,0,0
4,49999,56,40000,74,30000,0,9999,0.100000,99,495,0.078694,3,0.000000,23.448043,0.229448,99,99,0,0,1,0,0
4,49999,57,40000,74,30000,40,9999,0.100000,99,495,0.000000,2,0.000000,21.671007,1.452341,99,99,0,0,0,0,0
4,49999,58,40000,74,30000,40,9999,0.100000,99,495,0.000000,2,2.000000,34.055936,7.751078,99,99,0,0,0,0,0
4,49999,59,40000,74,30000,41,9999,0.100000,99,495,0.000000,2,4.000000,33.965893,16.162746,99,99,0,0,0,0,0
4,49999,60,40000,74,30000,40,9999,0.100000,99,495,0.000000,3,0.000000,37.948580,1.780440,99,99,0,0,0,0,0
4,49999,61,40000,74,30000,40,9999,0.100000,99,495,0.000000,1,0.000000,29.800476,3.183672,99,99,0,0,0,0,0
4,49999,62,40000,74,30000,0,9999,0.100000,99,495,0.000147,1,0.000000,16.546155,0.068273,99,99,0,0,0,0,1
4,49999,63,40000,74,30000,40,9999,0.100000,99,495,0.000000,2,1.000000,28.116780,9.085503,99,99,0,0,0,0,0
4,49999,64,40000,74,30000,40,9999,0.100000,99,495,0.000000,1,0.000000,22.749109,0.975384,99,99,0,0,0,0,0
4,49999,65,40000,74,30000,41,9999,0.100000,99,495,0.000000,2,4.000000,34.195405,10.953544,99,99,0,0,0,0,0
4,49999,66,40000,74,30000,40,9999,0.100000,99,495,0.000000,1,0.000000,28.988159,3.865786,99,99,0,0,0,0,0
4,49999,67,40000,74,30000,40,9999,0.100000,99,495,0.000000,3,2.000000,34.259925,11.391069,99,99,0,0,0,0,0
4,49999,68,40000,74,30000,40,9999,0.100000,99,495,0.000000,3,2.000000,33.679328,7.652266,99,99,0,0,0,0,0
4,49999,69,40000,74,30000,40,9999,0.100000,99,495,0.000000,2,1.000000,22.779223,5.718363,99,99,0,0,0,0,0
4,49999,70,40000,74,30000,40,9999,0.100000,99,495,0.000000,3,0.000000,31.639586,0.139505,99,99,0,0,0,0,0
4,49999,71,40000,74,30000,40,9999,0.100000,99,495,0.000000,2,3.000000,34.885847,11.282717,99,99,0,0,0,0,0
4,49999,72,40000,74,30000,40,9999,0.100000,99,495,0.000000,2,2.000000,34.106553,13.759485,99,99,0,0,0,0,0
4,49999,73,40000,74,30000,40,9999,0.100000,99,495,0.000000,2,0.000000,30.876317,1.431275,99,99,0,0,0,0,0
4,49999,74,40000,47,30000,40,9999,0.100000,99,495,0.000000,4,2.000000,31.707362,15.017725,99,99,0,0,0,0,0
4,49999,75,40000,74,30000,40,9999,0.100000,99,495,0.000000,2,0.000000,31.041840,1.584422,99,99,0,0,0,0,0
4,49999,76,40000,74,30000,40,9999,0.100000,99,495,0.000000,1,0.000000,30.779683,0.644665,99,99,0,0,0,0,0
4,49999,77,40000,74,30000,40,9999,0.100000,99,495,0.000000,2,2.000000,25.688198,10.701779,99,99,0,0,0,0,0
4,49999,78,40000,74,30000,40,9999,0.100000,99,495,0.000000,2,0.000000,31.219959,1.626270,99,99,0,0,0,0,0
4,49999,79,40000,74,30000,41,9999,0.100000,99,495,0.000000,2,4.000000,24.095709,12.848698,99,99,0,0,0,0,0
4,49999,80,40000,74,30000,40,9999,0.100000,99,495,0.000000,2,0.000000,37.845883,1.295684,99,99,0,0,0,0,0
4,49999,81,40000,74,30000,41,9999,0.100000,99,495,0.000000,2,5.000000,34.355066,11.229640,99,99,0,0,0,0,0
4,49999,82,40000,74,30000,40,9999,0.100000,99,495,0.000000,2,0.000000,21.403250,0.553972,99,99,0,0,0,0,0
4,49999,83,40000,74,30000,40,9999,0.100000,99,495,0.000000,1,1.000000,27.815606,12.194183,99,99,0,0,0,0,0
4,49999,84,40000,74,30000,40,9999,0.100000,99,495,0.000000,2,0.000000,28.507060,6.670046,99,99,0,0,0,0,0
4,49999,85,40000,74,30000,40,9999,0.100000,99,495,0.000000,2,2.000000,34.221273,8.176772,99,99,0,0,0,0,0
4,49999,86,40000,74,30000,0,9999,0.100000,99,495,0.431184,2,0.000000,20.302206,0.142419,99,99,0,0,0,0,1
4,49999,87,40000,74,30000,40,9999,0.100000,99,495,0.000000,3,0.000000,31.224294,1.252143,99,99,0,0,0,0,0
4,49999,88,40000,74,30000,40,9999,0.100000,99,495,0.000000,2,0.000000,37.983102,2.007851,99,99,0,0,0,0,0
4,49999,89,40000,74,30000,90,9999,0.100000,99,495,0.755315,1,0.000000,33.508127,1.962974,99,99,1,0,0,0,0
4,49999,90,40000,74,30000,40,9999,0.100000,99,495,0.000000,1,0.000000,21.263501,1.038430,99,99,0,0,0,0,0
4,49999,91,40000,74,30000,40,9999,0.100000,99,495,0.000000,2,0.000000,20.740995,0.095425,99,99,0,0,0,0,0
4,49999,92,40000,74,30000,40,9999,0.100000,99,495,0.000000,1,0.000000,23.911544,0.343385,99,99,0,0,0,0,0
4,49999,93,40000,74,30000,40,9999,0.100000,99,495,0.000000,2,0.000000,20.317328,8.396270,99,99,0,0,0,0,0
4,49999,94,40000,74,30000,93,9999,0.100000,99,495,49.312483,1,10.000000,23.863452,17.536194,99,99,1,0,0,0,0
4,49999,95,40000,74,30000,40,9999,0.100000,99,495,0.000000,2,0.000000,21.840359,20.458126,99,99,0,0,0,0,0
4,49999,96,40000,74,30000,90,9999,0.100000,99,495,0.007556,1,0.000000,26.058931,0.506059,99,99,1,0,0,0,0
4,49999,97,40000,74,30000,40,9999,0.100000,99,495,0.000000,3,0.000000,28.264889,6.998184,99,99,0,0,0,0,0
4,49999,98,40000,74,30000,40,9999,0.100000,99,495,0.000000,2,3.000000,32.915042,11.728366,99,99,0,0,0,0,0
4,49999,99,40000,74,30000,40,9999,0.100000,99,495,0.000000,2,0.000000,29.680871,4.055298,99,99,0,0,0,0,0
5,59999,0,50000,94,40000,40,9999,0.100000,99,594,0.000000,2,1.000000,20.164706,6.702438,99,99,0,0,0,0,0
5,59999,1,50000,94,40000,40,9999,0.100000,99,594,0.000000,2,1.000000,28.661286,7.390958,99,99,0,0,0,0,0
5,59999,2,50000,94,40000,40,9999,0.100000,99,594,0.000000,2,1.000000,31.543163,15.001875,99,99,0,0,0,0,0
5,59999,3,50000,94,40000,40,9999,0.100000,99,594,0.000000,2,1.000000,34.803466,6.714607,99,99,0,0,0,0,0
5,59999,4,50000,94,40000,0,9999,0.100000,99,594,0.041394,2,0.000000,34.985161,0.212384,99,99,0,1,0,0,0
5,59999,5,50000,94,40000,41,9999,0.100000,99,594,0.000000,2,4.000000,32.167194,4.853003,99,99,0,0,0,0,0
5,59999,6,50000,94,40000,40,9999,0.100000,99,594,0.000000,3,0.000000,28.717880,1.979794,99,99,0,0,0,0,0
5,59999,7,50000,94,40000,40,9999,0.100000,99,594,0.000000,2,0.000000,19.964006,0.440273,99,99,0,0,0,0,0
5,59999,8,50000,94,40000,40,9999,0.100000,99,594,0.000000,2,1.000000,29.404668,6.059493,99,99,0,0,0,0,0
5,59999,9,50000,94,40000,40,9999,0.100000,99,594,0.000000,2,0.000000,31.022318,1.012063,99,99,0,0,0,0,0
5,59999,10,50000,94,40000,40,9999,0.100000,99,594,0.000000,2,1.000000,20.056042,2.103457,99,99,0,0,0,0,0
5,59999,11,50000,94,40000,40,9999,0.100000,99,594,0.000000,2,2.000000,32.467218,13.745915,99,99,0,0,0,0,0
5,59999,12,50000,94,40000,40,9999,0.100000,99,594,0.000000,2,1.000000,37.821483,3.897013,99,99,0,0,0,0,0
5,59999,13,50000,94,40000,40,9999,0.100000,99,594,0.000000,2,0.000000,20.988407,0.095242,99,99,0,0,0,0,0
5,59999,14,50000,94,40000,40,9999,0.100000,99,594,0.000000,1,0.000000,26.290607,8.458984,99,99,0,0,0,0,0
5,59999,15,50000,94,40000,40,9999,0.100000,99,594,0.000000,2,1.000000,18.532608,3.521657,99,99,0,0,0,0,0
5,59999,16,50000,94,40000,40,9999,0.100000,99,594,0.000000,3,0.000000,21.918677,0.152943,99,99,0,0,0,0,0
5,59999,17,50000,94,40000,40,9999,0.100000,99,594,0.000000,2,0.000000,29.327101,2.847716,99,99,0,0,0,0,0
5,59999,18,50000,94,40000,40,9999,0.100000,99,594,0.000000,2,1.000000,30.849287,6.481662,99,99,0,0,0,0,0
5,59999,19,50000,94,40000,40,9999,0.100000,99,594,0.000000,3,0.000000,21.389545,3.777146,99,99,0,0,0,0,0
5,59999,20,50000,94,40000,0,9999,0.100000,99,594,4.447005,3,1.000000,31.429462,1.666986,99,99,0,0,1,0,0
5,59999,21,50000,94,40000,40,9999,0.100000,99,594,0.000000,4,1.000000,27.984829,6.289025,99,99,0,0,0,0,0
5,59999,22,50000,94,40000,40,9999,0.100000,99,594,0.000000,2,0.000000,23.885317,0.389347,99,99,0,0,0,0,0
5,59999,23,50000,94,40000,40,9999,0.100000,99,594,0.000000,2,0.000000,30.114390,0.136022,99,99,0,0,0,0,0
5,59999,24,50000,94,40000,40,9999,0.100000,99,594,0.000000,2,1.000000,21.243129,9.755862,99,99,0,0,0,0,0
5,59999,25,50000,94,40000,40,9999,0.100000,99,594,0.000000,1,2.000000,30.288188,7.535437,99,99,0,0,0,0,0
5,59999,26,50000,94,40000,40,9999,0.100000,99,594,0.000000,2,1.000000,29.958066,13.507077,99,99,0,0,0,0,0
5,59999,27,50000,94,40000,41,9999,0.100000,99,594,0.000000,2,4.000000,30.284675,12.038361,99,99,0,0,0,0,0
5,59999,28,50000,94,40000,0,9999,0.100000,99,594,0.334935,2,0.000000,18.654240,0.335339,99,99,0,0,0,0,1
5,59999,29,50000,94,40000,40,9999,0.100000,99,594,0.000000,2,3.000000,33.295645,15.821289,99,99,0,0,0,0,0
5,59999,30,50000,94,40000,40,9999,0.100000,99,594,0.000000,2,0.000000,20.968248,0.435236,99,99,0,0,0,0,0
5,59999,31,50000,94,40000,40,9999,0.100000,99,594,0.000000,2,1.000000,37.337812,3.413272,99,99,0,0,0,0,0
5,59999,32,50000,94,40000,40,9999,0.100000,99,594,0.000000,3,0.000000,28.365731,8.332073,99,99,0,0,0,0,0
5,59999,33,50000,94,40000,40,9999,0.100000,99,594,0.000000,3,0.000000,19.812869,0.503812,99,99,0,0,0,0,0
5,59999,34,50000,94,40000,40,9999,0.100000,99,594,0.000000,3,0.000000,18.685057,0.554519,99,99,0,0,0,0,0
5,59999,35,50000,94,40000,41,9999,0.100000,99,594,0.000000,3,3.000000,27.481908,17.896369,99,99,0,0,0,0,0
5,59999,36,50000,94,40000,40,9999,0.100000,99,594,0.000000,2,2.000000,32.241421,16.142540,99,99,0,0,0,0,0
5,59999,37,50000,94,40000,40,9999,0.100000,99,594,0.000000,2,2.000000,30.034949,14.080277,99,99,0,0,0,0,0
5,59999,38,50000,94,40000,0,9999,0.100000,99,594,0.008449,3,0.000000,20.425089,0.099653,99,99,0,0,0,1,0
5,59999,39,50000,94,40000,40,9999,0.100000,99,594,0.000000,3,0.000000,18.935138,0.646084,99,99,0,0,0,0,0
5,59999,40,50000,94,40000,0,9999,0.100000,99,594,3.105433,3,0.000000,28.524260,1.120756,99,99,0,0,1,0,0
5,59999,41,50000,94,40000,40,9999,0.100000,99,594,0.000000,2,0.000000,31.821652,0.932356,99,99,0,0,0,0,0
5,59999,42,50000,94,40000,40,9999,0.100000,99,594,0.000000,2,1.000000,25.951538,6.667508,99,99,0,0,0,0,0
5,59999,43,50000,94,40000,40,9999,0.100000,99,594,0.000000,4,1.000000,31.488870,15.599299,99,99,0,0,0,0,0
5,59999,44,50000,94,40000,40,9999,0.100000,99,594,0.000000,2,0.000000,25.644747,1.519571,99,99,0,0,0,0,0
5,59999,45,50000,94,40000,0,9999,0.100000,99,594,0.003257,2,0.000000,22.412414,0.075431,99,99,0,0,0,0,1
5,59999,46,50000,94,40000,40,9999,0.100000,99,594,0.000000,2,0.000000,20.813360,0.092787,99,99,0,0,0,0,0
5,59999,47,50000,94,40000,41,9999,0.100000,99,594,0.000000,2,4.000000,31.003765,4.803684,99,99,0,0,0,0,0
5,59999,48,50000,94,40000,0,9999,0.100000,99,594,1.842644,1,0.000000,21.714563,0.760339,99,99,0,1,0,0,0
5,59999,49,50000,94,40000,40,9999,0.100000,99,594,0.000000,1,0.000000,32.660603,0.246907,99,99,0,0,0,0,0
5,59999,50,50000,94,40000,40,9999,0.100000,99,594,0.000000,3,0.000000,29.822685,2.181491,99,99,0,0,0,0,0
5,59999,51,50000,94,40000,40,9999,0.100000,99,594,0.000000,2,1.000000,30.908552,1.464145,99,99,0,0,0,0,0
5,59999,52,50000,94,40000,40,9999,0.100000,99,594,0.000000,3,0.000000,28.821483,0.879136,99,99,0,0,0,0,0
5,59999,53,50000,94,40000,40,9999,0.100000,99,594,0.000000,2,0.000000,35.839548,0.230942,99,99,0,0,0,0,0
5,59999,54,50000,94,40000,40,9999,0.100000,99,594,0.000000,3,1.000000,26.651696,3.265054,99,99,0,0,0,0,0
5,59999,55,50000,94,40000,0,9999,0.135000,99,594,0.094147,2,0.000000,30.598564,0.164995,99,99,0,1,0,0,0
5,59999,56,50000,94,40000,0,9999,0.100000,99,594,0.103219,3,0.000000,23.377339,0.231020,99,99,0,0,1,0,0
5,59999,57,50000,94,40000,40,9999,0.100000,99,594,0.000000,2,0.000000,20.818130,1.582534,99,99,0,0,0,0,0
5,59999,58,50000,94,40000,40,9999,0.100000,99,594,0.000000,2,2.000000,36.412295,4.883991,99,99,0,0,0,0,0
5,59999,59,50000,94,40000,40,9999,0.100000,99,594,0.000000,3,3.000000,33.561356,11.581489,99,99,0,0,0,0,0
5,59999,60,50000,94,40000,40,9999,0.100000,99,594,0.000000,3,1.000000,38.000711,3.290080,99,99,0,0,0,0,0
5,59999,61,50000,94,40000,40,9999,0.100000,99,594,0.000000,1,0.000000,29.800716,3.158616,99,99,0,0,0,0,0
5,59999,62,50000,94,40000,0,9999,0.100000,99,594,0.000792,1,0.000000,16.546476,0.068111,99,99,0,0,0,0,1
5,59999,63,50000,94,40000,40,9999,0.100000,99,594,0.000000,2,2.000000,28.189976,13.561201,99,99,0,0,0,0,0
5,59999,64,50000,94,40000,40,9999,0.100000,99,594,0.000000,1,0.000000,22.004803,1.363741,99,99,0,0,0,0,0
5,59999,65,50000,94,40000,40,9999,0.100000,99,594,0.000000,3,3.000000,32.424900,10.230796,99,99,0,0,0,0,0
5,59999,66,50000,94,40000,40,9999,0.100000,99,594,0.000000,1,0.000000,29.157506,5.193732,99,99,0,0,0,0,0
5,59999,67,50000,94,40000,40,9999,0.100000,99,594,0.000000,3,1.000000,36.989350,3.896248,99,99,0,0,0,0,0
5,59999,68,50000,94,40000,40,9999,0.100000,99,594,0.000000,3,1.000000,34.024135,7.161478,99,99,0,0,0,0,0
5,59999,69,50000,94,40000,44,9999,0.100000,99,594,0.000000,2,11.000000,23.898399,19.979152,99,99,0,0,0,0,0
5,59999,70,50000,94,40000,40,9999,0.100000,99,594,0.000000,3,0.000000,31.639006,0.138051,99,99,0,0,0,0,0
5,59999,71,50000,94,40000,40,9999,0.100000,99,594,0.000000,2,3.000000,32.883195,17.411515,99,99,0,0,0,0,0
5,59999,72,50000,94,40000,40,9999,0.100000,99,594,0.000000,2,1.000000,33.860432,9.024299,99,99,0,0,0,0,0
5,59999,73,50000,94,40000,1,9999,0.100000,99,594,21.886041,2,4.000000,31.179949,4.471264,99,99,0,0,0,1,0
5,59999,74,50000,94,40000,40,9999,0.100000,99,594,0.000000,5,0.000000,30.855280,13.634249,99,99,0,0,0,0,0
5,59999,75,50000,94,40000,41,9999,0.100000,99,594,0.000000,2,4.000000,31.368968,4.447853,99,99,0,0,0,0,0
5,59999,76,50000,94,40000,40,9999,0.100000,99,594,0.000000,1,1.000000,30.835695,1.444788,99,99,0,0,0,0,0
5,59999,77,50000,94,40000,41,9999,0.100000,99,594,0.000000,2,3.000000,25.880239,10.749502,99,99,0,0,0,0,0
5,59999,78,50000,94,40000,41,9999,0.100000,99,594,0.000000,2,4.000000,31.584192,4.632687,99,99,0,0,0,0,0
5,59999,79,50000,94,40000,0,9999,0.100000,99,594,0.136087,3,2.000000,20.030875,3.046661,99,99,0,0,0,1,0
5,59999,80,50000,94,40000,40,9999,0.100000,99,594,0.000000,2,0.000000,37.973904,2.711742,99,99,0,0,0,0,0
5,59999,81,50000,94,40000,40,9999,0.100000,99,594,0.000000,3,3.000000,32.462233,11.975763,99,99,0,0,0,0,0
5,59999,82,50000,94,40000,40,9999,0.100000,99,594,0.000000,2,0.000000,21.267450,0.838497,99,99,0,0,0,0,0
5,59999,83,50000,94,40000,40,9999,0.100000,99,594,0.000000,1,2.000000,28.270418,18.055188,99,99,0,0,0,0,0
5,59999,84,50000,94,40000,90,9999,0.100000,99,594,10.274721,2,1.000000,28.647483,13.902478,99,99,1,0,0,0,0
5,59999,85,50000,94,40000,40,9999,0.100000,99,594,0.000000,2,2.000000,33.380539,14.198711,99,99,0,0,0,0,0
5,59999,86,50000,94,40000,0,9999,0.100000,99,594,1.000279,2,0.000000,20.350122,0.251759,99,99,0,0,0,0,1
5,59999,87,50000,94,40000,40,9999,0.100000,99,594,0.000000,3,1.000000,31.189573,1.596253,99,99,0,0,0,0,0
5,59999,88,50000,94,40000,41,9999,0.100000,99,594,0.000000,2,5.000000,37.809780,10.414998,99,99,0,0,0,0,0
5,59999,89,50000,94,40000,93,9999,0.100000,99,594,75.460258,1,14.000000,33.868644,16.455155,99,99,1,0,0,0,0
5,59999,90,50000,94,40000,0,9999,0.100000,99,594,0.063310,1,0.000000,21.106414,0.873060,99,99,0,0,0,1,0
5,59999,91,50000,94,40000,40,9999,0.100000,99,594,0.000000,2,0.000000,20.778528,0.175756,99,99,0,0,0,0,0
5,59999,92,50000,94,40000,40,9999,0.100000,99,594,0.000000,1,0.000000,23.838117,0.335384,99,99,0,0,0,0,0
5,59999,93,50000,94,40000,40,9999,0.100000,99,594,0.000000,2,1.000000,20.223388,5.278644,99,99,0,0,0,0,0
5,59999,94,50000,29,40000,90,9999,0.100000,99,594,7.689335,2,1.000000,26.486427,3.195430,99,99,1,0,0,0,0
5,59999,95,50000,94,40000,40,9999,0.100000,99,594,0.000000,2,0.000000,21.731638,19.921944,99,99,0,0,0,0,0
5,59999,96,50000,94,40000,90,9999,0.100000,99,594,0.032278,1,0.000000,26.087474,0.505776,99,99,1,0,0,0,0
5,59999,97,50000,94,40000,90,9999,0.100000,99,594,4.521949,3,1.000000,28.203069,8.826321,99,99,1,0,0,0,0
5,59999,98,50000,94,40000,40,9999,0.100000,99,594,0.000000,2,3.000000,31.548613,18.721561,99,99,0,0,0,0,0
5,59999,99,50000,94,40000,40,9999,0.100000,99,594,0.000000,2,0.000000,29.622854,5.697718,99,99,0,0,0,0,0
6,69999,0,60000,89,50000,40,9999,0.100000,99,693,0.000000,2,0.000000,18.457699,1.483817,99,99,0,0,0,0,0
6,69999,1,60000,89,50000,40,9999,0.100000,99,693,0.000000,2,1.000000,29.282547,11.389399,99,99,0,0,0,0,0
6,69999,2,60000,89,50000,40,9999,0.100000,99,693,0.000000,2,2.000000,31.301627,9.251741,99,99,0,0,0,0,0
6,69999,3,60000,89,50000,40,9999,0.100000,99,693,0.000000,2,0.000000,35.135190,9.751524,99,99,0,0,0,0,0
6,69999,4,60000,89,50000,0,9999,0.100000,99,693,11.116370,2,3.000000,34.950689,10.840738,99,99,0,1,0,0,0
6,69999,5,60000,89,50000,40,9999,0.100000,99,693,0.000000,3,2.000000,35.254740,8.741579,99,99,0,0,0,0,0
6,69999,6,60000,89,50000,44,9999,0.100000,99,693,0.000000,3,15.000000,29.009444,23.086896,99,99,0,0,0,0,0
6,69999,7,60000,89,50000,40,9999,0.100000,99,693,0.000000,2,0.000000,19.968197,1.275961,99,99,0,0,0,0,0
6,69999,8,60000,89,50000,40,9999,0.100000,99,693,0.000000,2,2.000000,28.657197,12.749828,99,99,0,0,0,0,0
6,69999,9,60000,89,50000,40,9999,0.100000,99,693,0.000000,2,0.000000,31.291820,0.983387,99,99,0,0,0,0,0
6,69999,10,60000,89,50000,40,9999,0.100000,99,693,0.000000,2,0.000000,21.063220,0.238829,99,99,0,0,0,0,0
6,69999,11,60000,89,50000,40,9999,0.100000,99,693,0.000000,2,2.000000,32.444439,12.364396,99,99,0,0,0,0,0
6,69999,12,60000,89,50000,40,9999,0.065000,99,693,0.000000,2,1.000000,36.789845,4.812514,99,99,0,0,0,0,0
6,69999,13,60000,89,50000,0,9999,0.100000,99,693,0.010311,2,0.000000,20.987247,0.092221,99,99,0,0,0,1,0
6,69999,14,60000,89,50000,40,9999,0.100000,99,693,0.000000,1,1.000000,26.475440,8.144293,99,99,0,0,0,0,0
6,69999,15,60000,89,50000,40,9999,0.100000,99,693,0.000000,2,0.000000,19.860404,0.989270,99,99,0,0,0,0,0
6,69999,16,60000,89,50000,0,9999,0.100000,99,693,0.045694,4,0.000000,21.915281,0.144048,99,99,0,0,0,0,1
6,69999,17,60000,89,50000,40,9999,0.100000,99,693,0.000000,2,1.000000,29.206240,18.595821,99,99,0,0,0,0,0
6,69999,18,60000,89,50000,40,9999,0.100000,99,693,0.000000,2,1.000000,30.709699,6.352797,99,99,0,0,0,0,0
6,69999,19,60000,89,50000,40,9999,0.100000,99,693,0.000000,3,0.000000,21.267308,3.849948,99,99,0,0,0,0,0
6,69999,20,60000,89,50000,0,9999,0.100000,99,693,1.077058,3,1.000000,30.988207,1.574782,99,99,0,0,1,0,0
6,69999,21,60000,89,50000,40,9999,0.100000,99,693,0.000000,4,0.000000,27.460847,2.700283,99,99,0,0,0,0,0
6,69999,22,60000,89,50000,40,9999,0.100000,99,693,0.000000,2,0.000000,23.803194,0.399632,99,99,0,0,0,0,0
6,69999,23,60000,89,50000,40,9999,0.100000,99,693,0.000000,2,0.000000,30.114182,0.133871,99,99,0,0,0,0,0
6,69999,24,60000,89,50000,40,9999,0.100000,99,693,0.000000,2,0.000000,21.194964,11.316830,99,99,0,0,0,0,0
6,69999,25,60000,89,50000,40,9999,0.100000,99,693,0.000000,1,1.000000,28.367448,8.553289,99,99,0,0,0,0,0
6,69999,26,60000,89,50000,40,9999,0.100000,99,693,0.000000,2,1.000000,30.950440,8.895033,99,99,0,0,0,0,0
6,69999,27,60000,89,50000,40,9999,0.100000,99,693,0.000000,3,2.000000,34.233087,5.699976,99,99,0,0,0,0,0
6,69999,28,60000,89,50000,0,9999,0.100000,99,693,0.757222,2,0.000000,18.657851,0.753179,99,99,0,0,0,0,1
6,69999,29,60000,89,50000,40,9999,0.100000,99,693,0.000000,3,1.000000,33.396732,9.597498,99,99,0,0,0,0,0
6,69999,30,60000,89,50000,0,9999,0.100000,99,693,0.842933,2,0.000000,20.669442,0.378303,99,99,0,0,0,1,0
6,69999,31,60000,89,50000,40,9999,0.100000,99,693,0.000000,2,0.000000,37.894598,0.486393,99,99,0,0,0,0,0
6,69999,32,60000,89,50000,0,9999,0.100000,99,693,0.626906,3,1.000000,29.150851,4.659937,99,99,0,0,1,0,0
6,69999,33,60000,89,50000,40,9999,0.100000,99,693,0.000000,3,0.000000,19.996321,0.405923,99,99,0,0,0,0,0
6,69999,34,60000,89,50000,40,9999,0.100000,99,693,0.000000,3,0.000000,18.664158,0.359407,99,99,0,0,0,0,0
6,69999,35,60000,89,50000,40,9999,0.100000,99,693,0.000000,3,1.000000,28.789668,9.451487,99,99,0,0,0,0,0
6,69999,36,60000,89,50000,40,9999,0.100000,99,693,0.000000,2,1.000000,32.811725,11.993518,99,99,0,0,0,0,0
6,69999,37,60000,89,50000,40,9999,0.100000,99,693,0.000000,2,1.000000,30.715877,13.947283,99,99,0,0,0,0,0
6,69999,38,60000,89,50000,40,9999,0.100000,99,693,0.000000,3,0.000000,20.424561,0.111187,99,99,0,0,0,0,0
6,69999,39,60000,89,50000,40,9999,0.100000,99,693,0.000000,3,0.000000,19.186949,1.645936,99,99,0,0,0,0,0
6,69999,40,60000,89,50000,40,9999,0.100000,99,693,0.000000,3,1.000000,29.029691,3.826496,99,99,0,0,0,0,0
6,69999,41,60000,89,50000,40,9999,0.100000,99,693,0.000000,2,2.000000,32.123909,4.479035,99,99,0,0,0,0,0
6,69999,42,60000,89,50000,40,9999,0.135000,99,693,0.000000,2,2.000000,27.040104,18.119075,99,99,0,0,0,0,0
6,69999,43,60000,89,50000,40,9999,0.100000,99,693,0.000000,4,1.000000,31.379295,21.960881,99,99,0,0,0,0,0
6,69999,44,60000,89,50000,40,9999,0.100000,99,693,0.000000,2,0.000000,25.504051,1.470195,99,99,0,0,0,0,0
6,69999,45,60000,89,50000,40,9999,0.100000,99,693,0.000000,2,0.000000,22.409654,0.074421,99,99,0,0,0,0,0
6,69999,46,60000,89,50000,40,9999,0.100000,99,693,0.000000,2,0.000000,20.812198,0.089030,99,99,0,0,0,0,0
6,69999,47,60000,89,50000,40,9999,0.100000,99,693,0.000000,2,3.000000,34.040370,10.954649,99,99,0,0,0,0,0
6,69999,48,60000,89,50000,0,9999,0.100000,99,693,0.055999,1,0.000000,22.039779,0.180352,99,99,0,1,0,0,0
6,69999,49,60000,89,50000,40,9999,0.100000,99,693,0.000000,1,0.000000,32.662218,0.238660,99,99,0,0,0,0,0
6,69999,50,60000,89,50000,40,9999,0.100000,99,693,0.000000,3,0.000000,29.840339,0.086206,99,99,0,0,0,0,0
6,69999,51,60000,89,50000,40,9999,0.100000,99,693,0.000000,2,1.000000,30.523607,1.481335,99,99,0,0,0,0,0
6,69999,52,60000,89,50000,40,9999,0.100000,99,693,0.000000,3,2.000000,29.267722,7.125674,99,99,0,0,0,0,0
6,69999,53,60000,89,50000,40,9999,0.100000,99,693,0.000000,2,0.000000,35.841400,0.655191,99,99,0,0,0,0,0
6,69999,54,60000,89,50000,94,9999,0.100000,99,693,71.489476,3,13.000000,28.614139,15.518870,99,99,1,0,0,0,0
6,69999,55,60000,89,50000,0,9999,0.100000,99,693,0.145421,2,0.000000,30.624295,0.163762,99,99,0,1,0,0,0
6,69999,56,60000,89,50000,0,9999,0.100000,99,693,0.066588,3,0.000000,23.302237,0.241223,99,99,0,0,1,0,0
6,69999,57,60000,89,50000,40,9999,0.100000,99,693,0.000000,2,0.000000,19.828053,2.123551,99,99,0,0,0,0,0
6,69999,58,60000,89,50000,40,9999,0.100000,99,693,0.000000,2,0.000000,37.909564,2.495262,99,99,0,0,0,0,0
6,69999,59,60000,89,50000,41,9999,0.100000,99,693,0.000000,3,5.000000,31.276569,13.653315,99,99,0,0,0,0,0
6,69999,60,60000,89,50000,40,9999,0.100000,99,693,0.000000,3,0.000000,36.793125,3.922139,99,99,0,0,0,0,0
6,69999,61,60000,89,50000,40,9999,0.100000,99,693,0.000000,1,0.000000,29.801882,3.093130,99,99,0,0,0,0,0
6,69999,62,60000,89,50000,0,9999,0.100000,99,693,0.000357,1,0.000000,16.546784,0.067483,99,99,0,0,0,0,1
6,69999,63,60000,89,50000,40,9999,0.100000,99,693,0.000000,2,2.000000,28.020086,19.121969,99,99,0,0,0,0,0
6,69999,64,60000,89,50000,40,9999,0.100000,99,693,0.000000,1,0.000000,21.817719,1.462117,99,99,0,0,0,0,0
6,69999,65,60000,89,50000,41,9999,0.100000,99,693,0.000000,3,4.000000,30.513793,10.840146,99,99,0,0,0,0,0
6,69999,66,60000,89,50000,40,9999,0.100000,99,693,0.000000,1,2.000000,29.588547,13.831638,99,99,0,0,0,0,0
6,69999,67,60000,89,50000,40,9999,0.100000,99,693,0.000000,3,0.000000,38.017083,1.853580,99,99,0,0,0,0,0
6,69999,68,60000,89,50000,40,9999,0.100000,99,693,0.000000,3,0.000000,35.698015,3.187604,99,99,0,0,0,0,0
6,69999,69,60000,89,50000,41,9999,0.100000,99,693,0.000000,3,3.000000,17.292297,4.141396,99,99,0,0,0,0,0
6,69999,70,60000,89,50000,40,9999,0.100000,99,693,0.000000,3,0.000000,31.638509,0.138498,99,99,0,0,0,0,0
6,69999,71,60000,89,50000,43,9999,0.100000,99,693,0.000000,2,10.000000,30.758396,11.644765,99,99,0,0,0,0,0
6,69999,72,60000,89,50000,40,9999,0.100000,99,693,0.000000,2,2.000000,32.456821,17.464744,99,99,0,0,0,0,0
6,69999,73,60000,89,50000,40,9999,0.100000,99,693,0.000000,3,2.000000,34.197170,12.380666,99,99,0,0,0,0,0
6,69999,74,60000,89,50000,40,9999,0.100000,99,693,0.000000,5,2.000000,30.043020,7.533063,99,99,0,0,0,0,0
6,69999,75,60000,89,50000,40,9999,0.100000,99,693,0.000000,3,3.000000,34.363996,7.015702,99,99,0,0,0,0,0
6,69999,76,60000,89,50000,40,9999,0.100000,99,693,0.000000,1,1.000000,30.484578,6.889389,99,99,0,0,0,0,0
6,69999,77,60000,89,50000,41,9999,0.100000,99,693,0.000000,2,3.000000,28.024715,11.264237,99,99,0,0,0,0,0
6,69999,78,60000,89,50000,1,9999,0.100000,99,693,11.545174,2,4.000000,34.544990,15.670020,99,99,0,1,0,0,0
6,69999,79,60000,89,50000,0,9999,0.100000,99,693,1.150339,4,0.000000,18.862478,0.382983,99,99,0,0,0,1,0
6,69999,80,60000,89,50000,40,9999,0.100000,99,693,0.000000,2,0.000000,38.002227,1.730129,99,99,0,0,0,0,0
6,69999,81,60000,89,50000,41,9999,0.100000,99,693,0.000000,3,4.000000,29.519058,12.614792,99,99,0,0,0,0,0
6,69999,82,60000,89,50000,40,9999,0.100000,99,693,0.000000,2,0.000000,20.919885,0.702762,99,99,0,0,0,0,0
6,69999,83,60000,89,50000,40,9999,0.100000,99,693,0.000000,1,1.000000,27.912778,12.285089,99,99,0,0,0,0,0
6,69999,84,60000,89,50000,40,9999,0.100000,99,693,0.000000,3,0.000000,28.552685,11.671634,99,99,0,0,0,0,0
6,69999,85,60000,89,50000,40,9999,0.100000,99,693,0.000000,2,3.000000,33.547277,18.115315,99,99,0,0,0,0,0
6,69999,86,60000,89,50000,0,9999,0.100000,99,693,0.544211,2,0.000000,20.463810,0.168134,99,99,0,0,0,0,1
6,69999,87,60000,89,50000,40,9999,0.100000,99,693,0.000000,3,1.000000,30.820432,1.523363,99,99,0,0,0,0,0
6,69999,88,60000,89,50000,41,9999,0.100000,99,693,0.000000,3,5.000000,32.592982,16.790987,99,99,0,0,0,0,0
6,69999,89,60000,73,50000,40,9999,0.100000,99,693,0.000000,2,0.000000,28.732731,0.794992,99,99,0,0,0,0,0
6,69999,90,60000,89,50000,40,9999,0.100000,99,693,0.000000,2,0.000000,20.792253,0.264171,99,99,0,0,0,0,0
6,69999,91,60000,89,50000,40,9999,0.100000,99,693,0.000000,2,0.000000,20.855927,0.152945,99,99,0,0,0,0,0
6,69999,92,60000,89,50000,40,9999,0.100000,99,693,0.000000,1,0.000000,23.757551,0.345458,99,99,0,0,0,0,0
6,69999,93,60000,89,50000,40,9999,0.100000,99,693,0.000000,2,1.000000,19.123305,2.330298,99,99,0,0,0,0,0
6,69999,94,60000,89,50000,41,9999,0.100000,99,693,0.000000,3,4.000000,28.438180,11.655381,99,99,0,0,0,0,0
6,69999,95,60000,89,50000,40,9999,0.100000,99,693,0.000000,2,0.000000,21.452343,4.434640,99,99,0,0,0,0,0
6,69999,96,60000,89,50000,90,9999,0.100000,99,693,0.167869,1,0.000000,26.108327,0.488414,99,99,1,0,0,0,0
6,69999,97,60000,89,50000,40,9999,0.100000,99,693,0.000000,4,1.000000,27.913724,5.718914,99,99,0,0,0,0,0
6,69999,98,60000,89,50000,44,9999,0.100000,99,693,0.000000,2,13.000000,29.088345,22.433190,99,99,0,0,0,0,0
6,69999,99,60000,89,50000,40,9999,0.065000,99,693,0.000000,2,3.000000,29.655484,9.958650,99,99,0,0,0,0,0
7,79999,0,70000,54,60000,40,9999,0.100000,99,792,0.000000,2,0.000000,18.517497,3.141391,99,99,0,0,0,0,0
7,79999,1,70000,54,60000,40,9999,0.100000,99,792,0.000000,2,1.000000,28.671687,12.528765,99,99,0,0,0,0,0
7,79999,2,70000,54,60000,40,9999,0.100000,99,792,0.000000,2,2.000000,32.577905,14.125164,99,99,0,0,0,0,0
7,79999,3,70000,54,60000,40,9999,0.100000,99,792,0.000000,2,0.000000,35.353530,5.631440,99,99,0,0,0,0,0
7,79999,4,70000,54,60000,40,9999,0.100000,99,792,0.000000,2,2.000000,31.452932,17.167908,99,99,0,0,0,0,0
7,79999,5,70000,54,60000,40,9999,0.100000,99,792,0.000000,3,2.000000,35.816547,7.263764,99,99,0,0,0,0,0
7,79999,6,70000,54,60000,42,9999,0.100000,99,792,0.000000,4,3.000000,13.918951,6.720717,99,99,0,0,0,0,0
7,79999,7,70000,54,60000,40,9999,0.100000,99,792,0.000000,2,0.000000,20.134964,1.105272,99,99,0,0,0,0,0
7,79999,8,70000,54,60000,40,9999,0.100000,99,792,0.000000,2,1.000000,30.201558,10.445387,99,99,0,0,0,0,0
7,79999,9,70000,54,60000,40,9999,0.100000,99,792,0.000000,2,0.000000,31.574409,0.936904,99,99,0,0,0,0,0
7,79999,10,70000,54,60000,40,9999,0.100000,99,792,0.000000,2,0.000000,21.066311,0.248482,99,99,0,0,0,0,0
7,79999,11,70000,54,60000,40,9999,0.100000,99,792,0.000000,2,2.000000,33.340348,15.542267,99,99,0,0,0,0,0
7,79999,12,70000,54,60000,40,9999,0.100000,99,792,0.000000,2,1.000000,35.263426,6.433170,99,99,0,0,0,0,0
7,79999,13,70000,54,60000,0,9999,0.100000,99,792,0.007079,2,0.000000,20.986088,0.092042,99,99,0,0,0,1,0
7,79999,14,70000,54,60000,41,9999,0.100000,99,792,0.000000,1,4.000000,25.853348,13.324533,99,99,0,0,0,0,0
7,79999,15,70000,54,60000,40,9999,0.100000,99,792,0.000000,2,0.000000,19.971320,1.007868,99,99,0,0,0,0,0
7,79999,16,70000,54,60000,0,9999,0.100000,99,792,0.044517,4,0.000000,21.915302,0.133141,99,99,0,0,0,0,1
7,79999,17,70000,54,60000,40,9999,0.100000,99,792,0.000000,2,1.000000,29.089544,9.205463,99,99,0,0,0,0,0
7,79999,18,70000,54,60000,40,9999,0.100000,99,792,0.000000,2,1.000000,30.048516,1.372778,99,99,0,0,0,0,0
7,79999,19,70000,54,60000,40,9999,0.100000,99,792,0.000000,3,0.000000,21.165479,3.842623,99,99,0,0,0,0,0
7,79999,20,70000,54,60000,0,9999,0.100000,99,792,1.349585,3,1.000000,30.079274,1.167774,99,99,0,0,1,0,0
7,79999,21,70000,54,60000,40,9999,0.135000,99,792,0.000000,4,2.000000,28.118121,19.079342,99,99,0,0,0,0,0
7,79999,22,70000,54,60000,40,9999,0.100000,99,792,0.000000,2,0.000000,23.724393,0.393240,99,99,0,0,0,0,0
7,79999,23,70000,54,60000,40,9999,0.100000,99,792,0.000000,2,0.000000,30.113963,0.136337,99,99,0,0,0,0,0
7,79999,24,70000,54,60000,40,9999,0.100000,99,792,0.000000,2,0.000000,20.855673,15.440572,99,99,0,0,0,0,0
7,79999,25,70000,54,60000,94,9999,0.100000,99,792,80.858813,1,12.000000,27.889821,22.993896,99,99,1,0,0,0,0
7,79999,26,70000,54,60000,40,9999,0.100000,99,792,0.000000,2,1.000000,32.410663,20.705790,99,99,0,0,0,0,0
7,79999,27,70000,54,60000,40,9999,0.100000,99,792,0.000000,3,1.000000,36.116389,2.652641,99,99,0,0,0,0,0
7,79999,28,70000,54,60000,0,9999,0.100000,99,792,0.116524,2,0.000000,18.713571,0.593768,99,99,0,0,0,0,1
7,79999,29,70000,54,60000,40,9999,0.100000,99,792,0.000000,3,1.000000,32.602622,8.385787,99,99,0,0,0,0,0
7,79999,30,70000,54,60000,40,9999,0.100000,99,792,0.000000,2,0.000000,20.479923,1.051564,99,99,0,0,0,0,0
7,79999,31,70000,54,60000,40,9999,0.100000,99,792,0.000000,2,0.000000,37.880766,0.220695,99,99,0,0,0,0,0
7,79999,32,70000,54,60000,0,9999,0.100000,99,792,18.282704,4,3.000000,29.525191,14.341200,99,99,0,0,1,0,0
7,79999,33,70000,54,60000,40,9999,0.100000,99,792,0.000000,3,0.000000,20.107976,0.339800,99,99,0,0,0,0,0
7,79999,34,70000,54,60000,40,9999,0.100000,99,792,0.000000,3,0.000000,18.655539,0.600549,99,99,0,0,0,0,0
7,79999,35,70000,54,60000,40,9999,0.100000,99,792,0.000000,3,1.000000,29.060684,12.434620,99,99,0,0,0,0,0
7,79999,36,70000,54,60000,40,9999,0.100000,99,792,0.000000,2,2.000000,34.369823,10.024203,99,99,0,0,0,0,0
7,79999,37,70000,54,60000,40,9999,0.100000,99,792,0.000000,2,1.000000,30.338419,15.682257,99,99,0,0,0,0,0
7,79999,38,70000,54,60000,40,9999,0.100000,99,792,0.000000,3,0.000000,20.423097,0.099280,99,99,0,0,0,0,0
7,79999,39,70000,54,60000,40,9999,0.100000,99,792,0.000000,3,0.000000,18.733426,0.653701,99,99,0,0,0,0,0
7,79999,40,70000,54,60000,0,9999,0.100000,99,792,18.282704,3,3.000000,29.306257,13.944969,99,99,0,0,1,0,0
7,79999,41,70000,54,60000,40,9999,0.100000,99,792,0.000000,2,2.000000,29.988811,14.260601,99,99,0,0,0,0,0
7,79999,42,70000,54,60000,41,9999,0.100000,99,792,0.000000,2,3.000000,28.303147,20.553168,99,99,0,0,0,0,0
7,79999,43,70000,54,60000,40,9999,0.100000,99,792,0.000000,4,1.000000,30.123606,21.480678,99,99,0,0,0,0,0
7,79999,44,70000,54,60000,40,9999,0.100000,99,792,0.000000,2,0.000000,25.304993,1.169904,99,99,0,0,0,0,0
7,79999,45,70000,54,60000,40,9999,0.100000,99,792,0.000000,2,0.000000,22.409827,0.067700,99,99,0,0,0,0,0
7,79999,46,70000,54,60000,40,9999,0.100000,99,792,0.000000,2,0.000000,20.810875,0.089603,99,99,0,0,0,0,0
7,79999,47,70000,54,60000,41,9999,0.100000,99,792,0.000000,3,6.000000,36.121860,16.041923,99,99,0,0,0,0,0
7,79999,48,70000,54,60000,0,9999,0.100000,99,792,0.039522,1,0.000000,22.052889,0.179075,99,99,0,1,0,0,0
7,79999,49,70000,54,60000,40,9999,0.100000,99,792,0.000000,1,0.000000,32.663142,0.240262,99,99,0,0,0,0,0
7,79999,50,70000,54,60000,40,9999,0.100000,99,792,0.000000,3,0.000000,29.841511,0.083348,99,99,0,0,0,0,0
7,79999,51,70000,54,60000,40,9999,0.100000,99,792,0.000000,2,1.000000,29.722258,1.277131,99,99,0,0,0,0,0
7,79999,52,70000,54,60000,0,9999,0.100000,99,792,18.267834,3,3.000000,29.732661,13.715311,99,99,0,0,1,0,0
7,79999,53,70000,54,60000,40,9999,0.100000,99,792,0.000000,2,0.000000,35.966396,0.507923,99,99,0,0,0,0,0
7,79999,54,70000,78,60000,40,9999,0.100000,99,792,0.000000,4,0.000000,21.674346,1.219717,99,99,0,0,0,0,0
7,79999,55,70000,54,60000,0,9999,0.100000,99,792,0.026813,2,0.000000,30.645770,0.195216,99,99,0,1,0,0,0
7,79999,56,70000,54,60000,0,9999,0.100000,99,792,0.109570,3,0.000000,23.231717,0.236188,99,99,0,0,1,0,0
7,79999,57,70000,54,60000,40,9999,0.100000,99,792,0.000000,2,0.000000,18.916582,1.211530,99,99,0,0,0,0,0
7,79999,58,70000,54,60000,40,9999,0.100000,99,792,0.000000,2,0.000000,37.914125,1.135206,99,99,0,0,0,0,0
7,79999,59,70000,54,60000,40,9999,0.100000,99,792,0.000000,3,3.000000,30.455504,16.934622,99,99,0,0,0,0,0
7,79999,60,70000,54,60000,40,9999,0.100000,99,792,0.000000,3,0.000000,36.537389,2.516832,99,99,0,0,0,0,0
7,79999,61,70000,54,60000,40,9999,0.100000,99,792,0.000000,1,0.000000,29.801080,3.208442,99,99,0,0,0,0,0
7,79999,62,70000,54,60000,0,9999,0.100000,99,792,0.000357,1,0.000000,16.547125,0.068033,99,99,0,0,0,0,1
7,79999,63,70000,54,60000,40,9999,0.100000,99,792,0.000000,2,2.000000,28.137118,16.639517,99,99,0,0,0,0,0
7,79999,64,70000,54,60000,40,9999,0.100000,99,792,0.000000,1,0.000000,21.720634,1.286669,99,99,0,0,0,0,0
7,79999,65,70000,54,60000,41,9999,0.100000,99,792,0.000000,3,4.000000,26.008048,12.586529,99,99,0,0,0,0,0
7,79999,66,70000,54,60000,40,9999,0.100000,99,792,0.000000,1,1.000000,30.430149,11.863922,99,99,0,0,0,0,0
7,79999,67,70000,54,60000,40,9999,0.100000,99,792,0.000000,3,0.000000,38.003892,0.615310,99,99,0,0,0,0,0
7,79999,68,70000,54,60000,40,9999,0.100000,99,792,0.000000,3,0.000000,35.847168,3.710809,99,99,0,0,0,0,0
7,79999,69,70000,54,60000,40,9999,0.100000,99,792,0.000000,3,0.000000,19.351385,0.251119,99,99,0,0,0,0,0
7,79999,70,70000,54,60000,40,9999,0.135000,99,792,0.000000,3,0.000000,31.638371,0.143911,99,99,0,0,0,0,0
7,79999,71,70000,54,60000,40,9999,0.100000,99,792,0.000000,3,0.000000,32.066986,0.139553,99,99,0,0,0,0,0
7,79999,72,70000,54,60000,40,9999,0.100000,99,792,0.000000,2,1.000000,30.655244,24.414668,99,99,0,0,0,0,0
7,79999,73,70000,54,60000,40,9999,0.100000,99,792,0.000000,3,3.000000,33.456485,14.169756,99,99,0,0,0,0,0
7,79999,74,70000,54,60000,40,9999,0.100000,99,792,0.000000,5,3.000000,32.050969,16.431273,99,99,0,0,0,0,0
7,79999,75,70000,54,60000,40,9999,0.100000,99,792,0.000000,3,0.000000,37.242775,1.666326,99,99,0,0,0,0,0
7,79999,76,70000,54,60000,40,9999,0.100000,99,792,0.000000,1,1.000000,29.504470,13.021742,99,99,0,0,0,0,0
7,79999,77,70000,54,60000,40,9999,0.100000,99,792,0.000000,2,2.000000,26.014793,17.213177,99,99,0,0,0,0,0
7,79999,78,70000,54,60000,40,9999,0.100000,99,792,0.000000,3,1.000000,31.071319,15.366312,99,99,0,0,0,0,0
7,79999,79,70000,54,60000,0,9999,0.100000,99,792,1.804217,5,0.000000,18.555702,0.222214,99,99,0,0,0,1,0
7,79999,80,70000,54,60000,40,9999,0.100000,99,792,0.000000,2,0.000000,37.991897,0.494046,99,99,0,0,0,0,0
7,79999,81,70000,54,60000,40,9999,0.100000,99,792,0.000000,3,0.000000,33.869502,1.040466,99,99,0,0,0,0,0
7,79999,82,70000,54,60000,0,9999,0.100000,99,792,0.460660,2,0.000000,20.729442,0.354290,99,99,0,0,0,1,0
7,79999,83,70000,54,60000,40,9999,0.100000,99,792,0.000000,1,0.000000,26.775249,1.019217,99,99,0,0,0,0,0
7,79999,84,70000,54,60000,40,9999,0.100000,99,792,0.000000,3,1.000000,28.645020,16.493605,99,99,0,0,0,0,0
7,79999,85,70000,54,60000,41,9999,0.135000,99,792,0.000000,2,6.000000,31.428714,15.803568,99,99,0,0,0,0,0
7,79999,86,70000,54,60000,0,9999,0.100000,99,792,0.187576,2,0.000000,20.537900,0.097129,99,99,0,0,0,0,1
7,79999,87,70000,54,60000,40,9999,0.100000,99,792,0.000000,3,1.000000,29.932530,1.193183,99,99,0,0,0,0,0
7,79999,88,70000,54,60000,40,9999,0.100000,99,792,0.000000,3,3.000000,30.574076,17.331863,99,99,0,0,0,0,0
7,79999,89,70000,54,60000,40,9999,0.100000,99,792,0.000000,3,0.000000,28.575343,0.828830,99,99,0,0,0,0,0
7,79999,90,70000,54,60000,40,9999,0.100000,99,792,0.000000,2,0.000000,20.603849,1.455641,99,99,0,0,0,0,0
7,79999,91,70000,54,60000,40,9999,0.100000,99,792,0.000000,2,0.000000,20.906232,0.116211,99,99,0,0,0,0,0
7,79999,92,70000,54,60000,40,9999,0.100000,99,792,0.000000,1,0.000000,23.680789,0.340325,99,99,0,0,0,0,0
7,79999,93,70000,54,60000,40,9999,0.100000,99,792,0.000000,2,0.000000,18.609252,0.307836,99,99,0,0,0,0,0
7,79999,94,70000,54,60000,40,9999,0.100000,99,792,0.000000,4,2.000000,32.852678,12.088095,99,99,0,0,0,0,0
7,79999,95,70000,54,60000,40,9999,0.100000,99,792,0.000000,2,0.000000,20.615761,2.573274,99,99,0,0,0,0,0
7,79999,96,70000,54,60000,90,9999,0.100000,99,792,0.172975,1,0.000000,26.103902,0.514585,99,99,1,0,0,0,0
7,79999,97,70000,54,60000,40,9999,0.100000,99,792,0.000000,4,1.000000,28.028787,8.748900,99,99,0,0,0,0,0
7,79999,98,70000,54,60000,40,9999,0.100000,99,792,0.000000,3,0.000000,18.617125,22.104919,99,99,0,0,0,0,0
7,79999,99,70000,54,60000,40,9999,0.100000,99,792,0.000000,2,1.000000,27.408104,8.075448,99,99,0,0,0,0,0
8,89999,0,80000,25,70000,0,9999,0.100000,99,891,0.247261,2,0.000000,18.625936,1.219436,99,99,0,0,0,0,1
8,89999,1,80000,25,70000,40,9999,0.100000,99,891,0.000000,2,2.000000,28.644128,16.966966,99,99,0,0,0,0,0
8,89999,2,80000,25,70000,40,9999,0.100000,99,891,0.000000,2,2.000000,31.801357,10.535966,99,99,0,0,0,0,0
8,89999,3,80000,25,70000,40,9999,0.100000,99,891,0.000000,2,0.000000,35.470965,0.223388,99,99,0,0,0,0,0
8,89999,4,80000,25,70000,40,9999,0.100000,99,891,0.000000,2,1.000000,29.732434,24.007625,99,99,0,0,0,0,0
8,89999,5,80000,25,70000,40,9999,0.100000,99,891,0.000000,3,1.000000,33.422023,3.601134,99,99,0,0,0,-1,0
8,89999,6,80000,25,70000,40,9999,0.100000,99,891,0.000000,5,0.000000,10.272965,3.547992,99,99,0,0,0,0,0
8,89999,7,80000,25,70000,40,9999,0.100000,99,891,0.000000,2,0.000000,20.210267,0.256508,99,99,0,0,0,0,0
8,89999,8,80000,25,70000,40,9999,0.100000,99,891,0.000000,2,1.000000,30.450055,12.090104,99,99,0,0,0,0,0
8,89999,9,80000,25,70000,40,9999,0.100000,99,891,0.000000,2,0.000000,31.862906,0.888970,99,99,0,0,0,0,0
8,89999,10,80000,25,70000,40,9999,0.100000,99,891,0.000000,2,0.000000,21.049323,0.299988,99,99,0,0,0,0,0
8,89999,11,80000,25,70000,40,9999,0.100000,99,891,0.000000,2,2.000000,30.980732,15.556782,99,99,0,0,0,0,0
8,89999,12,80000,25,70000,40,9999,0.100000,99,891,0.000000,2,2.000000,36.017030,8.033115,99,99,0,0,0,0,0
8,89999,13,80000,25,70000,0,9999,0.100000,99,891,0.009018,2,0.000000,20.984785,0.089046,99,99,0,0,0,1,0
8,89999,14,80000,25,70000,41,9999,0.100000,99,891,0.000000,2,3.000000,23.823508,7.955132,99,99,0,0,0,0,0
8,89999,15,80000,25,70000,40,9999,0.100000,99,891,0.000000,2,0.000000,20.014398,0.998216,99,99,0,0,0,0,0
8,89999,16,80000,25,70000,0,9999,0.100000,99,891,0.033322,4,0.000000,21.918311,0.148931,99,99,0,0,0,0,1
8,89999,17,80000,25,70000,40,9999,0.100000,99,891,0.000000,2,1.000000,29.658377,13.976635,99,99,0,0,0,0,0
8,89999,18,80000,25,70000,40,9999,0.100000,99,891,0.000000,2,1.000000,29.363777,1.235423,99,99,0,0,0,0,0
8,89999,19,80000,25,70000,40,9999,0.100000,99,891,0.000000,3,0.000000,21.093914,3.861541,99,99,0,0,0,0,0
8,89999,20,80000,25,70000,0,9999,0.100000,99,891,0.053945,3,1.000000,29.393354,1.108230,99,99,0,0,1,0,0
8,89999,21,80000,25,70000,40,9999,0.100000,99,891,0.000000,4,1.000000,29.322711,15.637482,99,99,0,0,0,0,0
8,89999,22,80000,25,70000,40,9999,0.100000,99,891,0.000000,2,0.000000,23.643500,0.426122,99,99,0,0,0,0,0
8,89999,23,80000,25,70000,40,9999,0.100000,99,891,0.000000,2,0.000000,30.113777,0.131718,99,99,0,0,0,0,0
8,89999,24,80000,25,70000,40,9999,0.100000,99,891,0.000000,2,0.000000,20.815315,16.214444,99,99,0,0,0,0,0
8,89999,25,80000,40,70000,40,9999,0.100000,99,891,0.000000,2,1.000000,34.450922,2.805802,99,99,0,0,0,-1,0
8,89999,26,80000,25,70000,40,9999,0.100000,99,891,0.000000,2,1.000000,32.802242,17.157840,99,99,0,0,0,0,0
8,89999,27,80000,25,70000,40,9999,0.100000,99,891,0.000000,3,2.000000,35.842520,3.238759,99,99,0,0,0,-1,0
8,89999,28,80000,25,70000,40,9999,0.100000,99,891,0.000000,2,0.000000,18.805934,0.432039,99,99,0,0,0,0,0
8,89999,29,80000,25,70000,0,9999,0.100000,99,891,2.505782,3,0.000000,31.842873,3.399006,99,99,0,0,0,1,0
8,89999,30,80000,25,70000,40,9999,0.100000,99,891,0.000000,2,0.000000,20.302060,0.887638,99,99,0,0,0,0,0
8,89999,31,80000,25,70000,40,9999,0.100000,99,891,0.000000,2,0.000000,37.880367,0.155979,99,99,0,0,0,0,0
8,89999,32,80000,25,70000,40,9999,0.100000,99,891,0.000000,4,1.000000,32.004257,18.866549,99,99,0,0,0,0,0
8,89999,33,80000,25,70000,40,9999,0.100000,99,891,0.000000,3,0.000000,20.151140,0.355604,99,99,0,0,0,0,0
8,89999,34,80000,25,70000,40,9999,0.100000,99,891,0.000000,3,0.000000,18.739747,0.366611,99,99,0,0,0,0,0
8,89999,35,80000,25,70000,40,9999,0.100000,99,891,0.000000,3,1.000000,28.911033,16.581060,99,99,0,0,0,0,0
8,89999,36,80000,25,70000,40,9999,0.100000,99,891,0.000000,2,2.000000,34.120439,10.986863,99,99,0,0,0,0,0
8,89999,37,80000,25,70000,40,9999,0.100000,99,891,0.000000,2,2.000000,30.551512,16.948879,99,99,0,0,0,0,0
8,89999,38,80000,25,70000,40,9999,0.100000,99,891,0.000000,3,0.000000,20.422429,0.108287,99,99,0,0,0,0,0
8,89999,39,80000,25,70000,40,9999,0.100000,99,891,0.000000,3,0.000000,18.193165,0.564845,99,99,0,0,0,0,0
8,89999,40,80000,25,70000,40,9999,0.100000,99,891,0.000000,3,1.000000,30.581726,19.076068,99,99,0,0,0,0,0
8,89999,41,80000,25,70000,40,9999,0.100000,99,891,0.000000,2,1.000000,28.302292,12.641427,99,99,0,0,0,0,0
8,89999,42,80000,25,70000,41,9999,0.100000,99,891,0.000000,2,4.000000,27.768928,17.633725,99,99,0,0,0,0,0
8,89999,43,80000,25,70000,45,9999,0.100000,99,891,0.000000,4,17.000000,29.362609,22.108939,99,99,0,0,0,0,0
8,89999,44,80000,25,70000,40,9999,0.100000,99,891,0.000000,2,0.000000,25.249581,1.243949,99,99,0,0,0,0,0
8,89999,45,80000,25,70000,40,9999,0.100000,99,891,0.000000,2,0.000000,22.412967,0.075115,99,99,0,0,0,0,0
8,89999,46,80000,25,70000,40,9999,0.100000,99,891,0.000000,2,0.000000,20.809655,0.086874,99,99,0,0,0,0,0
8,89999,47,80000,25,70000,40,9999,0.100000,99,891,0.000000,4,1.000000,29.891547,16.730988,99,99,0,0,0,0,0
8,89999,48,80000,25,70000,0,9999,0.100000,99,891,1.314284,1,0.000000,22.071658,0.878988,99,99,0,1,0,0,0
8,89999,49,80000,25,70000,40,9999,0.100000,99,891,0.000000,1,0.000000,32.663504,0.240628,99,99,0,0,0,0,0
8,89999,50,80000,25,70000,40,9999,0.100000,99,891,0.000000,3,0.000000,29.841552,0.086823,99,99,0,0,0,0,0
8,89999,51,80000,25,70000,40,9999,0.100000,99,891,0.000000,2,0.000000,29.013548,1.001182,99,99,0,0,0,0,0
8,89999,52,80000,25,70000,40,9999,0.100000,99,891,0.000000,3,2.000000,32.504484,13.019585,99,99,0,0,0,0,0
8,89999,53,80000,25,70000,40,9999,0.100000,99,891,0.000000,2,0.000000,36.048086,0.500714,99,99,0,0,0,0,0
8,89999,54,80000,25,70000,40,9999,0.100000,99,891,0.000000,4,0.000000,21.282335,0.813370,99,99,0,0,0,0,0
8,89999,55,80000,25,70000,0,9999,0.100000,99,891,0.113190,2,0.000000,30.656249,0.223349,99,99,0,1,0,0,0
8,89999,56,80000,25,70000,0,9999,0.100000,99,891,0.399725,3,0.000000,23.157813,0.311473,99,99,0,0,1,0,0
8,89999,57,80000,25,70000,40,9999,0.100000,99,891,0.000000,2,0.000000,18.472563,1.202883,99,99,0,0,0,0,0
8,89999,58,80000,25,70000,40,9999,0.100000,99,891,0.000000,2,3.000000,37.897213,4.926122,99,99,0,0,0,0,0
8,89999,59,80000,25,70000,40,9999,0.100000,99,891,0.000000,3,1.000000,28.925862,12.083308,99,99,0,0,0,0,0
8,89999,60,80000,25,70000,40,9999,0.100000,99,891,0.000000,3,2.000000,35.736300,2.489555,99,99,0,0,0,-1,0
8,89999,61,80000,25,70000,40,9999,0.100000,99,891,0.000000,1,0.000000,29.801294,3.331864,99,99,0,0,0,0,0
8,89999,62,80000,25,70000,0,9999,0.100000,99,891,0.000479,1,0.000000,16.547503,0.067495,99,99,0,0,0,0,1
8,89999,63,80000,25,70000,40,9999,0.100000,99,891,0.000000,2,1.000000,25.485655,2.287981,99,99,0,0,0,0,0
8,89999,64,80000,25,70000,40,9999,0.100000,99,891,0.000000,1,0.000000,21.652379,1.299047,99,99,0,0,0,0,0
8,89999,65,80000,25,70000,40,9999,0.100000,99,891,0.000000,3,1.000000,23.929782,7.947996,99,99,0,0,0,0,0
8,89999,66,80000,25,70000,40,9999,0.100000,99,891,0.000000,1,1.000000,30.589391,3.963915,99,99,0,0,0,0,0
8,89999,67,80000,25,70000,40,9999,0.100000,99,891,0.000000,3,0.000000,37.996061,0.491073,99,99,0,0,0,0,0
8,89999,68,80000,25,70000,40,9999,0.100000,99,891,0.000000,3,0.000000,35.932656,3.739992,99,99,0,0,0,0,0
8,89999,69,80000,25,70000,40,9999,0.100000,99,891,0.000000,3,0.000000,19.349028,0.234890,99,99,0,0,0,0,0
8,89999,70,80000,25,70000,40,9999,0.100000,99,891,0.000000,3,0.000000,31.638099,0.144825,99,99,0,0,0,0,0
8,89999,71,80000,25,70000,40,9999,0.100000,99,891,0.000000,3,0.000000,32.066220,0.144602,99,99,0,0,0,0,0
8,89999,72,80000,25,70000,41,9999,0.100000,99,891,0.000000,2,4.000000,29.707678,21.668068,99,99,0,0,0,0,0
8,89999,73,80000,25,70000,40,9999,0.100000,99,891,0.000000,3,0.000000,30.279721,13.296855,99,99,0,0,0,0,0
8,89999,74,80000,25,70000,40,9999,0.100000,99,891,0.000000,5,2.000000,32.362588,13.200299,99,99,0,0,0,0,0
8,89999,75,80000,25,70000,40,9999,0.100000,99,891,0.000000,3,0.000000,37.344809,0.102187,99,99,0,0,0,0,0
8,89999,76,80000,25,70000,45,9999,0.100000,99,891,0.000000,1,17.000000,29.107824,23.563643,99,99,0,0,0,0,0
8,89999,77,80000,25,70000,40,9999,0.100000,99,891,0.000000,2,0.000000,26.228013,1.018392,99,99,0,0,0,0,0
8,89999,78,80000,25,70000,40,9999,0.100000,99,891,0.000000,3,1.000000,29.513986,14.314930,99,99,0,0,0,0,0
8,89999,79,80000,25,70000,0,9999,0.100000,99,891,1.528789,5,0.000000,18.363451,0.226442,99,99,0,0,0,1,0
8,89999,80,80000,25,70000,40,9999,0.100000,99,891,0.000000,2,0.000000,38.017875,0.338685,99,99,0,0,0,0,0
8,89999,81,80000,25,70000,40,9999,0.100000,99,891,0.000000,3,0.000000,34.289965,1.015283,99,99,0,0,0,0,0
8,89999,82,80000,25,70000,0,9999,0.100000,99,891,1.102787,2,0.000000,20.565255,0.473447,99,99,0,0,0,1,0
8,89999,83,80000,25,70000,40,9999,0.100000,99,891,0.000000,1,0.000000,25.999143,0.988292,99,99,0,0,0,0,0
8,89999,84,80000,25,70000,40,9999,0.100000,99,891,0.000000,3,2.000000,28.390856,11.162669,99,99,0,0,0,0,0
8,89999,85,80000,25,70000,40,9999,0.100000,99,891,0.000000,3,0.000000,32.999835,0.589182,99,99,0,0,0,0,0
8,89999,86,80000,25,70000,0,9999,0.100000,99,891,0.193111,2,0.000000,20.569767,0.095869,99,99,0,0,0,0,1
8,89999,87,80000,25,70000,40,9999,0.100000,99,891,0.000000,3,1.000000,29.252446,1.136586,99,99,0,0,0,0,0
8,89999,88,80000,25,70000,40,9999,0.100000,99,891,0.000000,3,3.000000,29.648443,8.895825,99,99,0,0,0,0,0
8,89999,89,80000,25,70000,40,9999,0.100000,99,891,0.000000,3,0.000000,28.683206,0.842215,99,99,0,0,0,0,0
8,89999,90,80000,25,70000,40,9999,0.100000,99,891,0.000000,2,0.000000,20.428057,2.027336,99,99,0,0,0,0,0
8,89999,91,80000,25,70000,40,9999,0.100000,99,891,0.000000,2,0.000000,20.931033,0.117526,99,99,0,0,0,0,0
8,89999,92,80000,25,70000,40,9999,0.100000,99,891,0.000000,1,0.000000,23.601435,0.382710,99,99,0,0,0,0,0
8,89999,93,80000,25,70000,40,9999,0.100000,99,891,0.000000,2,0.000000,18.325188,0.279403,99,99,0,0,0,0,0
8,89999,94,80000,25,70000,40,9999,0.100000,99,891,0.000000,4,2.000000,31.931750,13.461074,99,99,0,0,0,0,0
8,89999,95,80000,25,70000,40,9999,0.100000,99,891,0.000000,2,0.000000,20.347058,0.788135,99,99,0,0,0,0,0
8,89999,96,80000,25,70000,90,9999,0.100000,99,891,0.040419,1,0.000000,26.104944,0.506888,99,99,1,0,0,0,0
8,89999,97,80000,25,70000,40,9999,0.100000,99,891,0.000000,4,1.000000,27.634194,9.161097,99,99,0,0,0,0,0
8,89999,98,80000,25,70000,40,9999,0.100000,99,891,0.000000,3,0.000000,18.682862,7.894063,99,99,0,0,0,0,0
8,89999,99,80000,25,70000,40,9999,0.100000,99,891,0.000000,2,0.000000,25.436092,4.837495,99,99,0,0,0,0,0
9,99999,0,90000,29,80000,0,9999,0.100000,99,990,0.021460,3,0.000000,18.945526,0.579196,99,99,0,0,0,0,1
9,99999,1,90000,29,80000,40,9999,0.100000,99,990,0.000000,2,2.000000,28.516970,9.859798,99,99,0,0,0,0,0
9,99999,2,90000,29,80000,40,9999,0.100000,99,990,0.000000,2,0.000000,33.402133,10.709159,99,99,0,0,0,0,0
9,99999,3,90000,29,80000,40,9999,0.100000,99,990,0.000000,2,0.000000,35.471102,0.230093,99,99,0,0,0,0,0
9,99999,4,90000,29,80000,40,9999,0.100000,99,990,0.000000,2,2.000000,29.889490,23.302953,99,99,0,0,0,0,0
9,99999,5,90000,29,80000,40,9999,0.100000,99,990,0.000000,3,1.000000,31.807303,5.435508,99,99,0,0,0,0,0
9,99999,6,90000,29,80000,40,9999,0.100000,99,990,0.000000,5,0.000000,10.267454,3.645896,99,99,0,0,0,0,0
9,99999,7,90000,29,80000,40,9999,0.100000,99,990,0.000000,2,0.000000,20.211053,0.245464,99,99,0,0,0,0,0
9,99999,8,90000,29,80000,40,9999,0.100000,99,990,0.000000,2,1.000000,31.131162,12.886424,99,99,0,0,0,0,0
9,99999,9,90000,29,80000,40,9999,0.100000,99,990,0.000000,2,2.000000,32.146868,4.658481,99,99,0,0,0,0,0
9,99999,10,90000,29,80000,40,9999,0.100000,99,990,0.000000,2,0.000000,20.896635,0.304846,99,99,0,0,0,0,0
9,99999,11,90000,29,80000,40,9999,0.135000,99,990,0.000000,2,0.000000,31.089441,8.585330,99,99,0,0,0,0,0
9,99999,12,90000,29,80000,40,9999,0.100000,99,990,0.000000,2,1.000000,36.787057,8.956182,99,99,0,0,0,0,0
9,99999,13,90000,29,80000,0,9999,0.100000,99,990,0.006451,2,0.000000,20.983250,0.087493,99,99,0,0,0,1,0
9,99999,14,90000,29,80000,40,9999,0.100000,99,990,0.000000,2,0.000000,26.250200,4.956965,99,99,0,0,0,0,0
9,99999,15,90000,29,80000,40,9999,0.100000,99,990,0.000000,2,0.000000,20.057303,0.963785,99,99,0,0,0,0,0
9,99999,16,90000,29,80000,0,9999,0.100000,99,990,0.041728,4,0.000000,21.919944,0.142034,99,99,0,0,0,0,1
9,99999,17,90000,29,80000,40,9999,0.100000,99,990,0.000000,2,1.000000,29.789388,8.767666,99,99,0,0,0,0,0
9,99999,18,90000,29,80000,40,9999,0.100000,99,990,0.000000,2,0.000000,28.621901,1.929473,99,99,0,0,0,0,0
9,99999,19,90000,29,80000,40,9999,0.100000,99,990,0.000000,3,0.000000,21.079033,3.790792,99,99,0,0,0,0,0
9,99999,20,90000,29,80000,0,9999,0.100000,99,990,1.612825,3,0.000000,28.639031,0.956688,99,99,0,0,1,0,0
9,99999,21,90000,29,80000,40,9999,0.100000,99,990,0.000000,4,1.000000,29.035496,8.057714,99,99,0,0,0,0,0
9,99999,22,90000,29,80000,40,9999,0.100000,99,990,0.000000,2,0.000000,23.635501,0.413750,99,99,0,0,0,0,0
9,99999,23,90000,29,80000,40,9999,0.100000,99,990,0.000000,2,0.000000,30.113473,0.132061,99,99,0,0,0,0,0
9,99999,24,90000,29,80000,40,9999,0.100000,99,990,0.000000,2,0.000000,20.442246,18.559342,99,99,0,0,0,0,0
9,99999,25,90000,29,80000,0,9999,0.100000,99,990,0.348025,2,0.000000,32.798988,0.556367,99,99,0,0,0,1,0
9,99999,26,90000,29,80000,40,9999,0.100000,99,990,0.000000,2,2.000000,31.413377,5.147219,99,99,0,0,0,0,0
9,99999,27,90000,29,80000,0,9999,0.100000,99,990,0.003966,3,1.000000,33.205625,1.505755,99,99,0,0,0,1,0
9,99999,28,90000,29,80000,40,9999,0.100000,99,990,0.000000,2,0.000000,18.928096,4.200829,99,99,0,0,0,0,0
9,99999,29,90000,79,80000,40,9999,0.135000,99,990,0.000000,4,1.000000,32.037919,4.204928,99,99,0,0,0,0,0
9,99999,30,90000,29,80000,40,9999,0.100000,99,990,0.000000,2,0.000000,20.013770,0.675997,99,99,0,0,0,0,0
9,99999,31,90000,29,80000,40,9999,0.100000,99,990,0.000000,2,0.000000,37.887178,0.385527,99,99,0,0,0,0,0
9,99999,32,90000,29,80000,40,9999,0.100000,99,990,0.000000,4,1.000000,32.073012,9.073785,99,99,0,0,0,0,0
9,99999,33,90000,29,80000,40,9999,0.100000,99,990,0.000000,3,0.000000,20.195533,0.350343,99,99,0,0,0,0,0
9,99999,34,90000,29,80000,40,9999,0.100000,99,990,0.000000,3,0.000000,18.895428,0.336839,99,99,0,0,0,0,0
9,99999,35,90000,29,80000,40,9999,0.100000,99,990,0.000000,3,1.000000,29.579483,9.291797,99,99,0,0,0,0,0
9,99999,36,90000,29,80000,40,9999,0.100000,99,990,0.000000,2,1.000000,31.525970,10.946695,99,99,0,0,0,0,0
9,99999,37,90000,29,80000,40,9999,0.100000,99,990,0.000000,2,1.000000,30.770381,11.442127,99,99,0,0,0,0,0
9,99999,38,90000,29,80000,40,9999,0.100000,99,990,0.000000,3,0.000000,20.420933,0.099275,99,99,0,0,0,0,0
9,99999,39,90000,29,80000,40,9999,0.100000,99,990,0.000000,3,0.000000,17.734243,0.407962,99,99,0,0,0,0,0
9,99999,40,90000,29,80000,40,9999,0.100000,99,990,0.000000,3,2.000000,31.839242,7.471079,99,99,0,0,0,0,0
9,99999,41,90000,29,80000,40,9999,0.100000,99,990,0.000000,2,2.000000,28.353851,6.694753,99,99,0,0,0,0,0
9,99999,42,90000,29,80000,40,9999,0.100000,99,990,0.000000,2,2.000000,27.161781,15.173828,99,99,0,0,0,0,0
9,99999,43,90000,29,80000,49,9999,0.100000,99,990,0.000000,5,16.000000,12.369864,22.520619,99,99,0,0,0,0,0
9,99999,44,90000,29,80000,40,9999,0.100000,99,990,0.000000,2,0.000000,25.144440,1.115790,99,99,0,0,0,0,0
9,99999,45,90000,29,80000,40,9999,0.100000,99,990,0.000000,2,0.000000,22.414527,0.067193,99,99,0,0,0,0,0
9,99999,46,90000,29,80000,40,9999,0.100000,99,990,0.000000,2,0.000000,20.808122,0.087577,99,99,0,0,0,0,0
9,99999,47,90000,29,80000,40,9999,0.100000,99,990,0.000000,4,0.000000,28.881847,23.713986,99,99,0,0,0,0,0
9,99999,48,90000,29,80000,0,9999,0.100000,99,990,0.051077,1,0.000000,22.237784,0.177895,99,99,0,1,0,0,0
9,99999,49,90000,29,80000,40,9999,0.100000,99,990,0.000000,1,0.000000,32.664338,0.247468,99,99,0,0,0,0,0
9,99999,50,90000,29,80000,40,9999,0.100000,99,990,0.000000,3,0.000000,29.841499,0.086615,99,99,0,0,0,0,0
9,99999,51,90000,29,80000,40,9999,0.100000,99,990,0.000000,2,0.000000,28.317652,1.023844,99,99,0,0,0,0,0
9,99999,52,90000,29,80000,40,9999,0.100000,99,990,0.000000,3,1.000000,31.223869,10.037705,99,99,0,0,0,0,0
9,99999,53,90000,29,80000,40,9999,0.100000,99,990,0.000000,2,0.000000,36.131472,0.512423,99,99,0,0,0,0,0
9,99999,54,90000,29,80000,40,9999,0.100000,99,990,0.000000,4,0.000000,21.129727,0.822849,99,99,0,0,0,0,0
9,99999,55,90000,29,80000,0,9999,0.100000,99,990,0.242230,2,0.000000,30.654447,0.284535,99,99,0,1,0,0,0
9,99999,56,90000,29,80000,0,9999,0.100000,99,990,0.446179,3,0.000000,23.166561,0.312542,99,99,0,0,1,0,0
9,99999,57,90000,29,80000,40,9999,0.100000,99,990,0.000000,2,0.000000,17.853488,1.267470,99,99,0,0,0,0,0
9,99999,58,90000,29,80000,40,9999,0.100000,99,990,0.000000,2,1.000000,34.683293,7.755708,99,99,0,0,0,0,0
9,99999,59,90000,29,80000,40,9999,0.100000,99,990,0.000000,3,0.000000,27.895787,13.325842,99,99,0,0,0,0,0
9,99999,60,90000,29,80000,41,9999,0.100000,99,990,0.000000,3,7.000000,33.712140,19.482501,99,99,0,0,0,0,0
9,99999,61,90000,29,80000,40,9999,0.100000,99,990,0.000000,1,0.000000,29.801082,0.241370,99,99,0,0,0,0,0
9,99999,62,90000,29,80000,0,9999,0.100000,99,990,0.000303,1,0.000000,16.547684,0.067349,99,99,0,0,0,0,1
9,99999,63,90000,29,80000,40,9999,0.100000,99,990,0.000000,2,0.000000,24.513739,0.985460,99,99,0,0,0,0,0
9,99999,64,90000,29,80000,40,9999,0.100000,99,990,0.000000,1,0.000000,21.630778,1.080891,99,99,0,0,0,0,0
9,99999,65,90000,29,80000,40,9999,0.100000,99,990,0.000000,3,1.000000,22.736538,8.138799,99,99,0,0,0,0,0
9,99999,66,90000,29,80000,40,9999,0.100000,99,990,0.000000,1,2.000000,29.410107,7.476521,99,99,0,0,0,0,0
9,99999,67,90000,29,80000,40,9999,0.100000,99,990,0.000000,3,0.000000,37.973211,1.539071,99,99,0,0,0,0,0
9,99999,68,90000,29,80000,40,9999,0.100000,99,990,0.000000,3,0.000000,36.019004,4.050780,99,99,0,0,0,0,0
9,99999,69,90000,29,80000,40,9999,0.100000,99,990,0.000000,3,0.000000,19.347122,0.237041,99,99,0,0,0,0,0
9,99999,70,90000,29,80000,40,9999,0.100000,99,990,0.000000,3,0.000000,31.637918,0.144791,99,99,0,0,0,0,0
9,99999,71,90000,29,80000,40,9999,0.100000,99,990,0.000000,3,0.000000,32.065589,0.139257,99,99,0,0,0,0,0
9,99999,72,90000,29,80000,40,9999,0.100000,99,990,0.000000,3,0.000000,33.682125,0.239419,99,99,0,0,0,0,0
9,99999,73,90000,29,80000,42,9999,0.100000,99,990,0.000000,3,9.000000,29.889458,16.189147,99,99,0,0,0,0,0
9,99999,74,90000,29,80000,40,9999,0.100000,99,990,0.000000,5,1.000000,30.358383,9.470390,99,99,0,0,0,0,0
9,99999,75,90000,29,80000,40,9999,0.100000,99,990,0.000000,3,0.000000,37.345840,0.097471,99,99,0,0,0,0,0
9,99999,76,90000,29,80000,49,9999,0.100000,99,990,0.000000,2,16.000000,12.842776,28.822036,99,99,0,0,0,0,0
9,99999,77,90000,29,80000,40,9999,0.100000,99,990,0.000000,2,0.000000,25.454366,1.013098,99,99,0,0,0,0,0
9,99999,78,90000,29,80000,42,9999,0.100000,99,990,0.000000,3,9.000000,29.781265,16.151378,99,99,0,0,0,0,0
9,99999,79,90000,29,80000,0,9999,0.100000,99,990,1.081071,5,0.000000,18.166926,0.152530,99,99,0,0,0,1,0
9,99999,80,90000,29,80000,40,9999,0.100000,99,990,0.000000,2,4.000000,38.040268,11.263168,99,99,0,0,0,0,0
9,99999,81,90000,29,80000,40,9999,0.100000,99,990,0.000000,3,3.000000,34.771928,6.245193,99,99,0,0,0,0,0
9,99999,82,90000,29,80000,0,9999,0.100000,99,990,1.068688,2,0.000000,20.237455,0.413546,99,99,0,0,0,1,0
9,99999,83,90000,29,80000,40,9999,0.100000,99,990,0.000000,1,0.000000,25.250906,1.026702,99,99,0,0,0,0,0
9,99999,84,90000,29,80000,40,9999,0.100000,99,990,0.000000,3,1.000000,30.673603,2.668006,99,99,0,0,0,0,0
9,99999,85,90000,29,80000,40,9999,0.100000,99,990,0.000000,3,0.000000,33.004129,0.566328,99,99,0,0,0,0,0
9,99999,86,90000,29,80000,0,9999,0.100000,99,990,0.186500,2,0.000000,20.603887,0.091749,99,99,0,0,0,0,1
9,99999,87,90000,29,80000,40,9999,0.100000,99,990,0.000000,3,0.000000,28.515412,1.014353,99,99,0,0,0,0,0
9,99999,88,90000,29,80000,40,9999,0.100000,99,990,0.000000,3,0.000000,26.575551,3.302058,99,99,0,0,0,0,0
9,99999,89,90000,29,80000,40,9999,0.100000,99,990,0.000000,3,0.000000,28.808056,0.818199,99,99,0,0,0,0,0
9,99999,90,90000,29,80000,40,9999,0.100000,99,990,0.000000,2,0.000000,20.111984,0.673191,99,99,0,0,0,0,0
9,99999,91,90000,29,80000,40,9999,0.100000,99,990,0.000000,2,0.000000,20.958713,0.131784,99,99,0,0,0,0,0
9,99999,92,90000,29,80000,40,9999,0.100000,99,990,0.000000,1,0.000000,23.597689,0.378300,99,99,0,0,0,0,0
9,99999,93,90000,29,80000,40,9999,0.100000,99,990,0.000000,2,0.000000,18.058863,0.182643,99,99,0,0,0,0,0
9,99999,94,90000,29,80000,40,9999,0.100000,99,990,0.000000,4,1.000000,29.225597,8.380194,99,99,0,0,0,0,0
9,99999,95,90000,29,80000,40,9999,0.100000,99,990,0.000000,2,0.000000,19.978361,0.423410,99,99,0,0,0,0,0
9,99999,96,90000,29,80000,90,9999,0.100000,99,990,0.149920,1,0.000000,26.125531,0.498279,99,99,1,0,0,0,0
9,99999,97,90000,29,80000,40,9999,0.100000,99,990,0.000000,4,1.000000,28.476924,9.195515,99,99,0,0,0,0,0
9,99999,98,90000,29,80000,40,9999,0.100000,99,990,0.000000,3,0.000000,18.771064,2.299080,99,99,0,0,0,0,0
9,99999,99,90000,29,80000,40,9999,0.100000,99,990,0.000000,2,2.000000,24.696471,7.765385,99,99,0,0,0,0,0
10,109999,0,100000,20,90000,0,9999,0.100000,99,1089,0.022032,3,0.000000,19.004364,0.597089,99,99,0,0,0,0,1
10,109999,1,100000,20,90000,40,9999,0.100000,99,1089,0.000000,2,1.000000,28.288956,8.681499,99,99,0,0,0,0,0
10,109999,2,100000,20,90000,40,9999,0.100000,99,1089,0.000000,2,1.000000,33.330686,5.936642,99,99,0,0,0,0,0
10,109999,3,100000,20,90000,40,9999,0.100000,99,1089,0.000000,2,0.000000,35.472846,0.226559,99,99,0,0,0,0,0
10,109999,4,100000,20,90000,40,9999,0.100000,99,1089,0.000000,2,1.000000,28.092942,10.041019,99,99,0,0,0,0,0
10,109999,5,100000,20,90000,40,9999,0.100000,99,1089,0.000000,3,0.000000,32.410795,1.445083,99,99,0,0,0,0,0
10,109999,6,100000,20,90000,40,9999,0.100000,99,1089,0.000000,5,0.000000,10.272001,3.267022,99,99,0,0,0,0,0
10,109999,7,100000,20,90000,40,9999,0.100000,99,1089,0.000000,2,0.000000,20.213193,0.231181,99,99,0,0,0,0,0
10,109999,8,100000,20,90000,40,9999,0.100000,99,1089,0.000000,2,1.000000,30.399200,15.713356,99,99,0,0,0,0,0
10,109999,9,100000,20,90000,40,9999,0.100000,99,1089,0.000000,2,0.000000,30.819094,5.355704,99,99,0,0,0,0,0
10,109999,10,100000,20,90000,40,9999,0.100000,99,1089,0.000000,2,0.000000,20.746668,0.300372,99,99,0,0,0,0,0
10,109999,11,100000,20,90000,40,9999,0.135000,99,1089,0.000000,2,1.000000,31.731051,10.132159,99,99,0,0,0,0,0
10,109999,12,100000,20,90000,0,9999,0.065000,99,1089,5.011683,2,2.000000,37.120400,14.433385,99,99,0,1,0,0,0
10,109999,13,100000,20,90000,0,9999,0.100000,99,1089,0.006522,2,0.000000,20.982409,0.090595,99,99,0,0,0,1,0
10,109999,14,100000,20,90000,40,9999,0.100000,99,1089,0.000000,2,0.000000,26.242350,6.639242,99,99,0,0,0,0,0
10,109999,15,100000,20,90000,0,9999,0.100000,99,1089,0.009804,2,0.000000,20.102777,5.005787,99,99,0,0,0,0,1
10,109999,16,100000,20,90000,0,9999,0.100000,99,1089,0.031821,4,0.000000,21.922741,0.149086,99,99,0,0,0,0,1
10,109999,17,100000,20,90000,40,9999,0.100000,99,1089,0.000000,2,1.000000,30.466303,11.629731,99,99,0,0,0,0,0
10,109999,18,100000,20,90000,40,9999,0.100000,99,1089,0.000000,2,0.000000,27.735283,3.056522,99,99,0,0,0,0,0
10,109999,19,100000,20,90000,40,9999,0.100000,99,1089,0.000000,3,0.000000,21.061473,3.734381,99,99,0,0,0,0,0
10,109999,20,100000,79,90000,0,9999,0.100000,99,1089,0.708298,3,0.000000,27.888407,2.222047,99,99,0,0,1,0,0
10,109999,21,100000,20,90000,40,9999,0.100000,99,1089,0.000000,4,1.000000,28.341092,7.743114,99,99,0,0,0,0,0
10,109999,22,100000,20,90000,40,9999,0.100000,99,1089,0.000000,2,0.000000,23.648695,0.430164,99,99,0,0,0,0,0
10,109999,23,100000,20,90000,40,9999,0.100000,99,1089,0.000000,2,0.000000,30.113258,0.134819,99,99,0,0,0,0,0
10,109999,24,100000,20,90000,40,9999,0.100000,99,1089,0.000000,2,0.000000,20.192262,18.296139,99,99,0,0,0,0,0
10,109999,25,100000,20,90000,0,9999,0.100000,99,1089,0.285682,3,0.000000,32.839670,0.806835,99,99,0,0,0,1,0
10,109999,26,100000,20,90000,40,9999,0.100000,99,1089,0.000000,2,0.000000,33.041963,0.527104,99,99,0,0,0,0,0
10,109999,27,100000,20,90000,40,9999,0.100000,99,1089,0.000000,4,2.000000,33.709832,3.458058,99,99,0,0,0,-1,0
10,109999,28,100000,20,90000,40,9999,0.100000,99,1089,0.000000,2,0.000000,18.955843,2.398762,99,99,0,0,0,0,0
10,109999,29,100000,20,90000,40,9999,0.100000,99,1089,0.000000,4,0.000000,32.416879,0.740225,99,99,0,0,0,0,0
10,109999,30,100000,20,90000,40,9999,0.100000,99,1089,0.000000,2,0.000000,19.750197,0.669878,99,99,0,0,0,0,0
10,109999,31,100000,20,90000,40,9999,0.100000,99,1089,0.535967,2,2.000000,37.927759,6.592057,99,99,0,0,0,0,0
10,109999,32,100000,20,90000,40,9999,0.100000,99,1089,0.000000,4,3.000000,31.155777,17.477539,99,99,0,0,0,0,0
10,109999,33,100000,20,90000,40,9999,0.100000,99,1089,0.000000,3,0.000000,20.238663,3.843467,99,99,0,0,0,0,0
10,109999,34,100000,20,90000,40,9999,0.100000,99,1089,0.000000,3,0.000000,18.950149,0.306566,99,99,0,0,0,0,0
10,109999,35,100000,20,90000,40,9999,0.100000,99,1089,0.000000,3,2.000000,28.571424,9.684677,99,99,0,0,0,0,0
10,109999,36,100000,20,90000,40,9999,0.100000,99,1089,0.000000,2,0.000000,31.863532,10.304834,99,99,0,0,0,0,0
10,109999,37,100000,20,90000,41,9999,0.100000,99,1089,0.000000,2,4.000000,30.376411,11.137065,99,99,0,0,0,0,0
10,109999,38,100000,20,90000,40,9999,0.100000,99,1089,0.000000,3,0.000000,20.420189,0.099399,99,99,0,0,0,0,0
10,109999,39,100000,20,90000,40,9999,0.100000,99,1089,0.000000,3,0.000000,17.514982,0.333175,99,99,0,0,0,0,0
10,109999,40,100000,20,90000,40,9999,0.100000,99,1089,0.000000,3,2.000000,31.022592,19.425024,99,99,0,0,0,0,0
10,109999,41,100000,20,90000,40,9999,0.100000,99,1089,0.000000,2,0.000000,26.373003,11.931368,99,99,0,0,0,0,0
10,109999,42,100000,20,90000,40,9999,0.100000,99,1089,0.000000,2,3.000000,29.160568,14.423054,99,99,0,0,0,0,0
10,109999,43,100000,20,90000,40,9999,0.100000,99,1089,0.000000,6,2.000000,28.186197,13.934053,99,99,0,0,0,0,0
10,109999,44,100000,20,90000,40,9999,0.100000,99,1089,0.000000,2,0.000000,25.118333,1.435548,99,99,0,0,0,0,0
10,109999,45,100000,20,90000,40,9999,0.100000,99,1089,0.000000,2,0.000000,22.417095,0.066551,99,99,0,0,0,0,0
10,109999,46,100000,20,90000,40,9999,0.100000,99,1089,0.000000,2,0.000000,20.807188,0.089690,99,99,0,0,0,0,0
10,109999,47,100000,20,90000,40,9999,0.100000,99,1089,0.000000,4,1.000000,28.341670,12.678004,99,99,0,0,0,0,0
10,109999,48,100000,20,90000,0,9999,0.100000,99,1089,0.083483,1,0.000000,22.245287,0.182695,99,99,0,1,0,0,0
10,109999,49,100000,20,90000,40,9999,0.100000,99,1089,0.000000,1,0.000000,32.665157,0.242086,99,99,0,0,0,0,0
10,109999,50,100000,20,90000,40,9999,0.100000,99,1089,0.000000,3,0.000000,29.841489,0.086595,99,99,0,0,0,0,0
10,109999,51,100000,20,90000,40,9999,0.100000,99,1089,0.000000,2,0.000000,27.585096,1.652144,99,99,0,0,0,0,0
10,109999,52,100000,20,90000,40,9999,0.100000,99,1089,0.000000,3,2.000000,30.408828,8.340596,99,99,0,0,0,0,0
10,109999,53,100000,20,90000,40,9999,0.100000,99,1089,0.000000,2,0.000000,36.234508,0.546963,99,99,0,0,0,0,0
10,109999,54,100000,20,90000,40,9999,0.100000,99,1089,0.000000,4,0.000000,20.979673,0.819276,99,99,0,0,0,0,0
10,109999,55,100000,20,90000,0,9999,0.100000,99,1089,0.116890,2,0.000000,30.626435,0.218131,99,99,0,1,0,0,0
10,109999,56,100000,20,90000,0,9999,0.100000,99,1089,0.432217,3,0.000000,23.189620,0.319991,99,99,0,0,1,0,0
10,109999,57,100000,20,90000,40,9999,0.100000,99,1089,0.000000,2,0.000000,17.238691,1.392951,99,99,0,0,0,0,0
10,109999,58,100000,20,90000,40,9999,0.100000,99,1089,0.000000,2,1.000000,33.556026,10.649217,99,99,0,0,0,0,0
10,109999,59,100000,20,90000,41,9999,0.065000,99,1089,0.000000,3,3.000000,27.632108,12.680869,99,99,0,0,0,0,0
10,109999,60,100000,20,90000,40,9999,0.100000,99,1089,0.000000,3,2.000000,33.604105,3.943622,99,99,0,0,0,-1,0
10,109999,61,100000,20,90000,40,9999,0.100000,99,1089,0.000000,1,0.000000,29.802220,0.123421,99,99,0,0,0,0,0
10,109999,62,100000,20,90000,0,9999,0.100000,99,1089,0.443517,1,0.000000,16.547963,0.100787,99,99,0,0,0,0,1
10,109999,63,100000,20,90000,40,9999,0.100000,99,1089,0.000000,2,0.000000,23.755627,0.993943,99,99,0,0,0,0,0
10,109999,64,100000,20,90000,40,9999,0.100000,99,1089,0.000000,1,0.000000,21.618365,1.258718,99,99,0,0,0,0,0
10,109999,65,100000,20,90000,40,9999,0.100000,99,1089,0.000000,3,1.000000,21.388300,9.211985,99,99,0,0,0,0,0
10,109999,66,100000,20,90000,40,9999,0.100000,99,1089,0.000000,1,1.000000,28.080792,4.764546,99,99,0,0,0,0,0
10,109999,67,100000,20,90000,40,9999,0.100000,99,1089,0.000000,3,3.000000,37.940730,6.683439,99,99,0,-1,0,0,0
10,109999,68,100000,20,90000,40,9999,0.100000,99,1089,0.000000,3,0.000000,36.116097,4.193594,99,99,0,0,0,0,0
10,109999,69,100000,20,90000,40,9999,0.100000,99,1089,0.000000,3,0.000000,19.345057,0.241430,99,99,0,0,0,0,0
10,109999,70,100000,20,90000,40,9999,0.100000,99,1089,0.000000,3,0.000000,31.636996,0.141999,99,99,0,0,0,0,0
10,109999,71,100000,20,90000,40,9999,0.100000,99,1089,0.000000,3,0.000000,32.064792,0.144187,99,99,0,0,0,0,0
10,109999,72,100000,20,90000,40,9999,0.100000,99,1089,0.000000,3,0.000000,33.682536,0.229047,99,99,0,0,0,0,0
10,109999,73,100000,20,90000,40,9999,0.100000,99,1089,0.000000,4,1.000000,24.328191,14.857294,99,99,0,0,0,0,0
10,109999,74,100000,20,90000,40,9999,0.100000,99,1089,0.000000,5,1.000000,29.347395,10.113408,99,99,0,0,0,0,0
10,109999,75,100000,20,90000,40,9999,0.100000,99,1089,0.000000,3,0.000000,37.347226,0.098579,99,99,0,0,0,0,0
10,109999,76,100000,20,90000,40,9999,0.100000,99,1089,0.000000,3,0.000000,28.592574,16.343077,99,99,0,0,0,0,0
10,109999,77,100000,20,90000,40,9999,0.100000,99,1089,0.000000,2,0.000000,24.674642,1.051211,99,99,0,0,0,0,0
10,109999,78,100000,20,90000,40,9999,0.100000,99,1089,0.000000,4,1.000000,24.219168,14.894273,99,99,0,0,0,0,0
10,109999,79,100000,20,90000,0,9999,0.100000,99,1089,0.390305,5,0.000000,18.070896,0.232998,99,99,0,0,0,1,0
10,109999,80,100000,20,90000,40,9999,0.100000,99,1089,0.000000,3,1.000000,34.041975,15.643516,99,99,0,0,0,-1,0
10,109999,81,100000,20,90000,40,9999,0.100000,99,1089,5.193952,3,2.000000,37.223118,6.274533,99,99,0,0,0,-2,0
10,109999,82,100000,20,90000,0,9999,0.100000,99,1089,0.995777,2,0.000000,19.945713,0.385603,99,99,0,0,0,1,0
10,109999,83,100000,20,90000,40,9999,0.100000,99,1089,0.000000,1,0.000000,24.468883,1.019616,99,99,0,0,0,0,0
10,109999,84,100000,20,90000,40,9999,0.100000,99,1089,0.000000,3,0.000000,31.285252,0.145149,99,99,0,0,0,0,0
10,109999,85,100000,20,90000,40,9999,0.100000,99,1089,0.000000,3,0.000000,33.007750,1.363398,99,99,0,0,0,0,0
10,109999,86,100000,20,90000,40,9999,0.100000,99,1089,0.000000,2,0.000000,20.636030,0.181979,99,99,0,0,0,0,0
10,109999,87,100000,20,90000,40,9999,0.100000,99,1089,0.000000,3,0.000000,27.766262,1.919759,99,99,0,0,0,0,0
10,109999,88,100000,20,90000,40,9999,0.100000,99,1089,0.000000,3,1.000000,26.783912,12.607766,99,99,0,0,0,0,0
10,109999,89,100000,20,90000,40,9999,0.100000,99,1089,0.000000,3,0.000000,28.970895,0.699046,99,99,0,0,0,0,0
10,109999,90,100000,20,90000,40,9999,0.100000,99,1089,0.000000,2,0.000000,19.837914,0.578762,99,99,0,0,0,0,0
10,109999,91,100000,20,90000,40,9999,0.100000,99,1089,0.000000,2,0.000000,20.983578,0.202631,99,99,0,0,0,0,0
10,109999,92,100000,20,90000,40,9999,0.100000,99,1089,0.000000,1,0.000000,23.613396,0.394316,99,99,0,0,0,0,0
10,109999,93,100000,20,90000,40,9999,0.100000,99,1089,0.000000,2,0.000000,17.927951,0.213939,99,99,0,0,0,0,0
10,109999,94,100000,20,90000,40,9999,0.100000,99,1089,0.000000,4,2.000000,30.706531,8.340913,99,99,0,0,0,0,0
10,109999,95,100000,20,90000,40,9999,0.100000,99,1089,0.000000,2,0.000000,19.725747,0.449057,99,99,0,0,0,0,0
10,109999,96,100000,20,90000,90,9999,0.100000,99,1089,0.320711,1,0.000000,26.123386,0.481603,99,99,1,0,0,0,0
10,109999,97,100000,20,90000,41,9999,0.100000,99,1089,0.000000,4,3.000000,28.159739,18.765062,99,99,0,0,0,0,0
10,109999,98,100000,20,90000,40,9999,0.100000,99,1089,0.000000,3,1.000000,18.899885,2.856709,99,99,0,0,0,0,0
10,109999,99,100000,20,90000,41,9999,0.100000,99,1089,0.000000,2,3.000000,22.662260,16.857757,99,99,0,0,0,0,0
11,119999,0,110000,81,100000,0,9999,0.100000,99,1188,0.003071,3,0.000000,19.059534,1.036238,99,99,0,0,0,0,1
11,119999,1,110000,81,100000,40,9999,0.100000,99,1188,0.000000,2,1.000000,29.231126,5.372275,99,99,0,0,0,0,0
11,119999,2,110000,81,100000,40,9999,0.100000,99,1188,0.000000,2,0.000000,32.611283,9.890425,99,99,0,0,0,0,0
11,119999,3,110000,81,100000,40,9999,0.100000,99,1188,0.000000,2,0.000000,35.473532,0.233930,99,99,0,0,0,0,0
11,119999,4,110000,81,100000,41,9999,0.100000,99,1188,0.000000,2,3.000000,28.018927,6.936100,99,99,0,0,0,0,0
11,119999,5,110000,81,100000,40,9999,0.100000,99,1188,0.000000,3,2.000000,32.310343,5.557082,99,99,0,0,0,0,0
11,119999,6,110000,81,100000,40,9999,0.100000,99,1188,0.000000,5,0.000000,10.282150,3.479692,99,99,0,0,0,0,0
11,119999,7,110000,81,100000,40,9999,0.100000,99,1188,0.000000,2,0.000000,20.215446,0.244557,99,99,0,0,0,0,0
11,119999,8,110000,81,100000,40,9999,0.100000,99,1188,0.000000,2,3.000000,28.605104,11.281011,99,99,0,0,0,0,0
11,119999,9,110000,81,100000,40,9999,0.100000,99,1188,0.000000,2,0.000000,30.793599,2.463937,99,99,0,0,0,0,0
11,119999,10,110000,81,100000,40,9999,0.100000,99,1188,0.000000,2,0.000000,20.594753,0.303932,99,99,0,0,0,0,0
11,119999,11,110000,81,100000,40,9999,0.100000,99,1188,0.000000,2,0.000000,32.086186,8.640263,99,99,0,0,0,0,0
11,119999,12,110000,81,100000,40,9999,0.100000,99,1188,0.000000,3,1.000000,34.653076,14.474812,99,99,0,0,0,0,0
11,119999,13,110000,81,100000,0,9999,0.100000,99,1188,0.006113,2,0.000000,20.981835,0.090585,99,99,0,0,0,1,0
11,119999,14,110000,81,100000,40,9999,0.100000,99,1188,0.000000,2,0.000000,26.412918,5.184055,99,99,0,0,0,0,0
11,119999,15,110000,81,100000,0,9999,0.100000,99,1188,0.025772,3,0.000000,20.507552,0.492686,99,99,0,0,0,0,1
11,119999,16,110000,81,100000,0,9999,0.100000,99,1188,0.012917,4,0.000000,21.925732,0.148190,99,99,0,0,0,0,1
11,119999,17,110000,81,100000,40,9999,0.100000,99,1188,0.000000,2,2.000000,31.459561,12.749839,99,99,0,0,0,0,0
11,119999,18,110000,81,100000,42,9999,0.100000,99,1188,0.000000,2,6.000000,27.866684,16.768033,99,99,0,0,0,0,0
11,119999,19,110000,81,100000,40,9999,0.100000,99,1188,0.000000,3,0.000000,20.954614,3.842828,99,99,0,0,0,0,0
11,119999,20,110000,81,100000,0,9999,0.100000,99,1188,3.583802,3,1.000000,28.018965,2.870496,99,99,0,0,1,0,0
11,119999,21,110000,81,100000,40,9999,0.135000,99,1188,0.000000,4,0.000000,29.948675,4.962247,99,99,0,0,0,0,0
11,119999,22,110000,81,100000,40,9999,0.100000,99,1188,0.000000,2,0.000000,23.663184,0.413231,99,99,0,0,0,0,0
11,119999,23,110000,81,100000,40,9999,0.100000,99,1188,0.000000,2,0.000000,30.112945,0.130227,99,99,0,0,0,0,0
11,119999,24,110000,81,100000,40,9999,0.100000,99,1188,0.000000,2,0.000000,19.924742,18.901073,99,99,0,0,0,0,0
11,119999,25,110000,81,100000,40,9999,0.100000,99,1188,0.000000,3,1.000000,32.666565,1.958580,99,99,0,0,0,0,0
11,119999,26,110000,81,100000,0,9999,0.100000,99,1188,4.130967,2,1.000000,32.842076,1.935061,99,99,0,0,0,1,0
11,119999,27,110000,81,100000,40,9999,0.100000,99,1188,0.000000,4,3.000000,34.756177,10.235457,99,99,0,0,0,0,0
11,119999,28,110000,81,100000,40,9999,0.100000,99,1188,0.000000,2,0.000000,18.985486,2.606150,99,99,0,0,0,0,0
11,119999,29,110000,81,100000,40,9999,0.100000,99,1188,0.000000,4,2.000000,32.300165,2.257658,99,99,0,0,0,0,0
11,119999,30,110000,81,100000,40,9999,0.100000,99,1188,0.000000,2,0.000000,19.517807,0.765330,99,99,0,0,0,0,0
11,119999,31,110000,81,100000,0,9999,0.100000,99,1188,0.208882,2,0.000000,35.225888,0.233144,99,99,0,0,0,1,0
11,119999,32,110000,81,100000,40,9999,0.100000,99,1188,0.000000,4,2.000000,33.075456,5.516088,99,99,0,0,0,0,0
11,119999,33,110000,81,100000,40,9999,0.100000,99,1188,0.000000,3,0.000000,20.354881,0.877128,99,99,0,0,0,0,0
11,119999,34,110000,81,100000,40,9999,0.100000,99,1188,0.000000,3,0.000000,18.999155,0.628724,99,99,0,0,0,0,0
11,119999,35,110000,81,100000,43,9999,0.100000,99,1188,0.000000,3,11.000000,30.527070,18.602478,99,99,0,0,0,0,0
11,119999,36,110000,81,100000,40,9999,0.100000,99,1188,0.000000,2,1.000000,31.650713,10.268558,99,99,0,0,0,0,0
11,119999,37,110000,81,100000,40,9999,0.100000,99,1188,0.000000,3,1.000000,29.255014,9.858690,99,99,0,0,0,0,0
11,119999,38,110000,81,100000,40,9999,0.100000,99,1188,0.000000,3,0.000000,20.419456,0.099719,99,99,0,0,0,0,0
11,119999,39,110000,81,100000,40,9999,0.100000,99,1188,0.000000,3,0.000000,17.422187,0.542073,99,99,0,0,0,0,0
11,119999,40,110000,81,100000,40,9999,0.100000,99,1188,0.000000,3,1.000000,32.979356,11.661394,99,99,0,0,0,0,0
11,119999,41,110000,81,100000,40,9999,0.100000,99,1188,0.000000,2,1.000000,26.965104,6.063626,99,99,0,0,0,0,0
11,119999,42,110000,81,100000,40,9999,0.100000,99,1188,0.000000,2,1.000000,28.239657,6.779808,99,99,0,0,0,0,0
11,119999,43,110000,81,100000,40,9999,0.100000,99,1188,0.000000,6,1.000000,30.549984,12.136128,99,99,0,0,0,0,0
11,119999,44,110000,81,100000,40,9999,0.100000,99,1188,0.000000,2,0.000000,25.104705,1.238917,99,99,0,0,0,0,0
11,119999,45,110000,81,100000,40,9999,0.100000,99,1188,0.000000,2,0.000000,22.420121,0.081882,99,99,0,0,0,0,0
11,119999,46,110000,81,100000,40,9999,0.100000,99,1188,0.000000,2,0.000000,20.806382,0.086930,99,99,0,0,0,0,0
