generation,iteration,robot,birthday,ancestor_id,ancestor_birthday,cell_id,age,sigma,maps,genomes,fitness,cells_in_map,dist_max,dist_pot_max,dist_total,com_rx,com_tx,obj_group1,obj_group2,obj_group3,obj_group4,obj_group5
0,9999,0,0,0,0,1,9999,0.100000,0,0,0.000000,0,10.000000,0.000000,15.449543,0,0,0,0,0,0,0
0,9999,1,0,1,0,1,9999,0.100000,0,0,0.000000,0,5.000000,0.000000,6.085139,0,0,0,0,0,0,0
0,9999,2,0,2,0,1,9999,0.100000,0,0,0.000000,0,10.000000,0.000000,19.803986,0,0,0,0,0,0,0
0,9999,3,0,3,0,1,9999,0.100000,0,0,0.000000,0,6.000000,0.000000,7.440654,0,0,0,0,0,0,0
0,9999,4,0,4,0,1,9999,0.100000,0,0,0.000000,0,6.000000,0.000000,6.907740,0,0,0,0,0,0,0
0,9999,5,0,5,0,1,9999,0.100000,0,0,0.000000,0,9.000000,0.000000,22.670437,0,0,0,0,0,0,0
0,9999,6,0,6,0,1,9999,0.100000,0,0,0.000000,0,9.000000,0.000000,22.028380,0,0,0,0,0,0,0
0,9999,7,0,7,0,1,9999,0.100000,0,0,0.000000,0,11.000000,0.000000,22.902629,0,0,0,0,0,0,0
0,9999,8,0,8,0,1,9999,0.100000,0,0,0.000000,0,6.000000,0.000000,13.732407,0,0,0,0,0,0,0
0,9999,9,0,9,0,1,9999,0.100000,0,0,0.000000,0,4.000000,0.000000,5.160665,0,0,0,0,0,0,0
0,9999,10,0,10,0,1,9999,0.100000,0,0,0.000000,0,5.000000,0.000000,7.136229,0,0,0,0,0,0,0
0,9999,11,0,11,0,1,9999,0.100000,0,0,0.000000,0,10.000000,0.000000,16.850549,0,0,0,0,0,0,0
0,9999,12,0,12,0,1,9999,0.100000,0,0,0.000000,0,8.000000,0.000000,9.226227,0,0,0,0,0,0,0
0,9999,13,0,13,0,1,9999,0.100000,0,0,0.000000,0,8.000000,0.000000,8.805098,0,0,0,0,0,0,0
0,9999,14,0,14,0,1,9999,0.100000,0,0,0.000000,0,8.000000,0.000000,14.791322,0,0,0,0,0,0,0
0,9999,15,0,15,0,1,9999,0.100000,0,0,0.000000,0,4.000000,0.000000,8.900139,0,0,0,0,0,0,0
0,9999,16,0,16,0,1,9999,0.100000,0,0,0.000000,0,10.000000,0.000000,26.808155,0,0,0,0,0,0,0
0,9999,17,0,17,0,1,9999,0.100000,0,0,0.000000,0,3.000000,0.000000,13.789893,0,0,0,0,0,0,0
0,9999,18,0,18,0,1,9999,0.100000,0,0,0.000000,0,8.000000,0.000000,23.117491,0,0,0,0,0,0,0
0,9999,19,0,19,0,1,9999,0.100000,0,0,0.000000,0,2.000000,0.000000,4.161750,0,0,0,0,0,0,0
0,9999,20,0,20,0,1,9999,0.100000,0,0,0.000000,0,9.000000,0.000000,19.287328,0,0,0,0,0,0,0
0,9999,21,0,21,0,1,9999,0.100000,0,0,0.000000,0,9.000000,0.000000,13.174883,0,0,0,0,0,0,0
0,9999,22,0,22,0,1,9999,0.100000,0,0,0.000000,0,8.000000,0.000000,9.445255,0,0,0,0,0,0,0
0,9999,23,0,23,0,1,9999,0.100000,0,0,0.000000,0,9.000000,0.000000,15.001065,0,0,0,0,0,0,0
0,9999,24,0,24,0,1,9999,0.100000,0,0,0.000000,0,8.000000,0.000000,11.214558,0,0,0,0,0,0,0
0,9999,25,0,25,0,1,9999,0.100000,0,0,0.000000,0,4.000000,0.000000,7.146726,0,0,0,0,0,0,0
0,9999,26,0,26,0,1,9999,0.100000,0,0,0.000000,0,2.000000,0.000000,4.345024,0,0,0,0,0,0,0
0,9999,27,0,27,0,1,9999,0.100000,0,0,0.000000,0,10.000000,0.000000,15.665791,0,0,0,0,0,0,0
0,9999,28,0,28,0,1,9999,0.100000,0,0,0.000000,0,10.000000,0.000000,15.639846,0,0,0,0,0,0,0
0,9999,29,0,29,0,1,9999,0.100000,0,0,0.000000,0,9.000000,0.000000,15.486682,0,0,0,0,0,0,0
0,9999,30,0,30,0,1,9999,0.100000,0,0,0.000000,0,5.000000,0.000000,7.562695,0,0,0,0,0,0,0
0,9999,31,0,31,0,1,9999,0.100000,0,0,0.000000,0,8.000000,0.000000,14.994645,0,0,0,0,0,0,0
0,9999,32,0,32,0,1,9999,0.100000,0,0,0.000000,0,10.000000,0.000000,18.093466,0,0,0,0,0,0,0
0,9999,33,0,33,0,1,9999,0.100000,0,0,0.000000,0,1.000000,0.000000,5.447383,0,0,0,0,0,0,0
0,9999,34,0,34,0,1,9999,0.100000,0,0,0.000000,0,6.000000,0.000000,13.627287,0,0,0,0,0,0,0
0,9999,35,0,35,0,1,9999,0.100000,0,0,0.000000,0,8.000000,0.000000,18.207542,0,0,0,0,0,0,0
0,9999,36,0,36,0,1,9999,0.100000,0,0,0.000000,0,2.000000,0.000000,3.454501,0,0,0,0,0,0,0
0,9999,37,0,37,0,1,9999,0.100000,0,0,0.000000,0,9.000000,0.000000,25.389678,0,0,0,0,0,0,0
0,9999,38,0,38,0,1,9999,0.100000,0,0,0.000000,0,8.000000,0.000000,14.945164,0,0,0,0,0,0,0
0,9999,39,0,39,0,1,9999,0.100000,0,0,0.000000,0,10.000000,0.000000,18.841535,0,0,0,0,0,0,0
0,9999,40,0,40,0,1,9999,0.100000,0,0,0.000000,0,6.000000,0.000000,12.975526,0,0,0,0,0,0,0
0,9999,41,0,41,0,1,9999,0.100000,0,0,0.000000,0,10.000000,0.000000,11.560118,0,0,0,0,0,0,0
0,9999,42,0,42,0,3,9999,0.100000,0,0,47.368421,0,8.000000,0.000000,26.257735,0,0,1,0,0,0,0
0,9999,43,0,43,0,1,9999,0.100000,0,0,0.000000,0,5.000000,0.000000,7.844054,0,0,0,0,0,0,0
0,9999,44,0,44,0,1,9999,0.100000,0,0,0.000000,0,12.000000,0.000000,13.370851,0,0,0,0,0,0,0
0,9999,45,0,45,0,1,9999,0.100000,0,0,0.000000,0,6.000000,0.000000,11.718828,0,0,0,0,0,0,0
0,9999,46,0,46,0,1,9999,0.100000,0,0,0.000000,0,2.000000,0.000000,11.058233,0,0,0,0,0,0,0
0,9999,47,0,47,0,1,9999,0.100000,0,0,0.000000,0,10.000000,0.000000,10.798002,0,0,0,0,0,0,0
0,9999,48,0,48,0,1,9999,0.100000,0,0,0.000000,0,6.000000,0.000000,15.582823,0,0,0,0,0,0,0
0,9999,49,0,49,0,1,9999,0.100000,0,0,0.000000,0,2.000000,0.000000,3.774991,0,0,0,0,0,0,0
0,9999,50,0,50,0,1,9999,0.100000,0,0,0.000000,0,9.000000,0.000000,24.532754,0,0,0,0,0,0,0
0,9999,51,0,51,0,1,9999,0.100000,0,0,0.000000,0,9.000000,0.000000,14.095053,0,0,0,0,0,0,0
0,9999,52,0,52,0,1,9999,0.100000,0,0,0.000000,0,5.000000,0.000000,6.620197,0,0,0,0,0,0,0
0,9999,53,0,53,0,1,9999,0.100000,0,0,0.000000,0,11.000000,0.000000,14.346146,0,0,0,0,0,0,0
0,9999,54,0,54,0,1,9999,0.100000,0,0,0.000000,0,4.000000,0.000000,5.063441,0,0,0,0,0,0,0
0,9999,55,0,55,0,1,9999,0.100000,0,0,0.000000,0,7.000000,0.000000,22.580502,0,0,0,0,0,0,0
0,9999,56,0,56,0,1,9999,0.100000,0,0,0.000000,0,12.000000,0.000000,19.755153,0,0,0,0,0,0,0
0,9999,57,0,57,0,1,9999,0.100000,0,0,0.000000,0,9.000000,0.000000,22.599816,0,0,0,0,0,0,0
0,9999,58,0,58,0,1,9999,0.100000,0,0,0.000000,0,11.000000,0.000000,12.704992,0,0,0,0,0,0,0
0,9999,59,0,59,0,1,9999,0.100000,0,0,0.000000,0,4.000000,0.000000,8.054632,0,0,0,0,0,0,0
0,9999,60,0,60,0,1,9999,0.100000,0,0,0.000000,0,5.000000,0.000000,8.650819,0,0,0,0,0,0,0
0,9999,61,0,61,0,1,9999,0.100000,0,0,0.000000,0,8.000000,0.000000,17.859701,0,0,0,0,0,0,0
0,9999,62,0,62,0,1,9999,0.100000,0,0,0.000000,0,9.000000,0.000000,21.357067,0,0,0,0,0,0,0
0,9999,63,0,63,0,1,9999,0.100000,0,0,0.000000,0,10.000000,0.000000,13.726009,0,0,0,0,0,0,0
0,9999,64,0,64,0,1,9999,0.100000,0,0,0.000000,0,12.000000,0.000000,20.505294,0,0,0,0,0,0,0
0,9999,65,0,65,0,3,9999,0.100000,0,0,47.368421,0,10.000000,0.000000,21.026531,0,0,1,0,0,0,0
0,9999,66,0,66,0,1,9999,0.100000,0,0,0.000000,0,5.000000,0.000000,7.565370,0,0,0,0,0,0,0
0,9999,67,0,67,0,1,9999,0.100000,0,0,0.000000,0,7.000000,0.000000,8.238423,0,0,0,0,0,0,0
0,9999,68,0,68,0,1,9999,0.100000,0,0,0.000000,0,8.000000,0.000000,8.731673,0,0,0,0,0,0,0
0,9999,69,0,69,0,1,9999,0.100000,0,0,0.000000,0,9.000000,0.000000,11.904870,0,0,0,0,0,0,0
0,9999,70,0,70,0,1,9999,0.100000,0,0,0.000000,0,9.000000,0.000000,23.664699,0,0,0,0,0,0,0
0,9999,71,0,71,0,1,9999,0.100000,0,0,0.000000,0,8.000000,0.000000,9.927424,0,0,0,0,0,0,0
0,9999,72,0,72,0,1,9999,0.100000,0,0,0.000000,0,9.000000,0.000000,9.935749,0,0,0,0,0,0,0
0,9999,73,0,73,0,1,9999,0.100000,0,0,0.000000,0,4.000000,0.000000,5.597176,0,0,0,0,0,0,0
0,9999,74,0,74,0,1,9999,0.100000,0,0,0.000000,0,13.000000,0.000000,24.307601,0,0,0,0,0,0,0
0,9999,75,0,75,0,1,9999,0.100000,0,0,0.000000,0,6.000000,0.000000,17.999957,0,0,0,0,0,0,0
0,9999,76,0,76,0,1,9999,0.100000,0,0,0.000000,0,8.000000,0.000000,16.745918,0,0,0,0,0,0,0
0,9999,77,0,77,0,1,9999,0.100000,0,0,0.000000,0,7.000000,0.000000,13.625372,0,0,0,0,0,0,0
0,9999,78,0,78,0,1,9999,0.100000,0,0,0.000000,0,6.000000,0.000000,14.177365,0,0,0,0,0,0,0
0,9999,79,0,79,0,1,9999,0.100000,0,0,0.000000,0,8.000000,0.000000,33.394337,0,0,0,0,0,0,0
0,9999,80,0,80,0,1,9999,0.100000,0,0,0.000000,0,9.000000,0.000000,22.507102,0,0,0,0,0,0,0
0,9999,81,0,81,0,1,9999,0.100000,0,0,0.000000,0,9.000000,0.000000,11.493402,0,0,0,0,0,0,0
0,9999,82,0,82,0,1,9999,0.100000,0,0,0.000000,0,4.000000,0.000000,14.985925,0,0,0,0,0,0,0
0,9999,83,0,83,0,1,9999,0.100000,0,0,0.000000,0,9.000000,0.000000,14.039394,0,0,0,0,0,0,0
0,9999,84,0,84,0,1,9999,0.100000,0,0,0.000000,0,11.000000,0.000000,18.162960,0,0,0,0,0,0,0
0,9999,85,0,85,0,1,9999,0.100000,0,0,0.000000,0,10.000000,0.000000,11.165995,0,0,0,0,0,0,0
0,9999,86,0,86,0,1,9999,0.100000,0,0,0.000000,0,7.000000,0.000000,8.768218,0,0,0,0,0,0,0
0,9999,87,0,87,0,1,9999,0.100000,0,0,0.000000,0,3.000000,0.000000,4.061456,0,0,0,0,0,0,0
0,9999,88,0,88,0,1,9999,0.100000,0,0,0.000000,0,11.000000,0.000000,19.057422,0,0,0,0,0,0,0
0,9999,89,0,89,0,1,9999,0.100000,0,0,0.000000,0,9.000000,0.000000,16.034212,0,0,0,0,0,0,0
0,9999,90,0,90,0,1,9999,0.100000,0,0,0.000000,0,11.000000,0.000000,13.635003,0,0,0,0,0,0,0
0,9999,91,0,91,0,1,9999,0.100000,0,0,0.000000,0,4.000000,0.000000,6.249656,0,0,0,0,0,0,0
0,9999,92,0,92,0,1,9999,0.100000,0,0,0.000000,0,1.000000,0.000000,11.691315,0,0,0,0,0,0,0
0,9999,93,0,93,0,1,9999,0.100000,0,0,0.000000,0,11.000000,0.000000,24.935322,0,0,0,0,0,0,0
0,9999,94,0,94,0,1,9999,0.100000,0,0,0.000000,0,6.000000,0.000000,7.869533,0,0,0,0,0,0,0
0,9999,95,0,95,0,1,9999,0.100000,0,0,0.000000,0,9.000000,0.000000,10.714591,0,0,0,0,0,0,0
0,9999,96,0,96,0,1,9999,0.100000,0,0,0.000000,0,9.000000,0.000000,15.102595,0,0,0,0,0,0,0
0,9999,97,0,97,0,1,9999,0.100000,0,0,0.000000,0,9.000000,0.000000,12.697004,0,0,0,0,0,0,0
0,9999,98,0,98,0,1,9999,0.100000,0,0,0.000000,0,5.000000,0.000000,5.999453,0,0,0,0,0,0,0
0,9999,99,0,99,0,1,9999,0.100000,0,0,0.000000,0,6.000000,0.000000,27.175364,0,0,0,0,0,0,0
1,19999,0,10000,0,0,0,9999,0.100000,0,0,0.000000,1,0.000000,0.000000,0.896642,0,0,0,0,0,0,0
1,19999,1,10000,1,0,0,9999,0.100000,0,0,0.000000,1,0.000000,0.000000,0.212665,0,0,0,0,0,0,0
1,19999,2,10000,0,0,0,9999,0.100000,0,0,0.000000,1,0.000000,0.000000,2.487714,0,0,0,0,0,0,0
1,19999,3,10000,58,0,0,9999,0.100000,0,0,0.000000,2,0.000000,0.000000,0.189335,0,0,0,0,0,0,0
1,19999,4,10000,58,0,0,9999,0.100000,0,0,0.000000,2,0.000000,0.000000,0.304358,0,0,0,0,0,0,0
1,19999,5,10000,65,0,1,9999,0.100000,0,0,0.000000,2,1.000000,0.000000,2.900459,0,0,0,0,0,0,0
1,19999,6,10000,1,0,0,9999,0.100000,0,0,0.000000,1,0.000000,0.000000,6.968719,0,0,0,0,0,0,0
1,19999,7,10000,13,0,0,9999,0.100000,0,0,0.000000,1,0.000000,0.000000,11.456626,0,0,0,0,0,0,0
1,19999,8,10000,58,0,1,9999,0.100000,0,0,0.000000,2,4.000000,0.000000,12.098030,0,0,0,0,0,0,0
1,19999,9,10000,65,0,0,9999,0.100000,0,0,0.000000,2,0.000000,0.000000,0.180609,0,0,0,0,0,0,0
1,19999,10,10000,58,0,0,9999,0.100000,0,0,0.000000,2,0.000000,0.000000,0.694473,0,0,0,0,0,0,0
1,19999,11,10000,65,0,0,9999,0.100000,0,0,0.000000,2,0.000000,0.000000,0.574933,0,0,0,0,0,0,0
1,19999,12,10000,65,0,0,9999,0.100000,0,0,0.000000,2,0.000000,0.000000,0.886430,0,0,0,0,0,0,0
1,19999,13,10000,13,0,0,9999,0.100000,0,0,0.000000,1,0.000000,0.000000,0.071230,0,0,0,0,0,0,0
1,19999,14,10000,58,0,1,9999,0.100000,0,0,0.000000,2,3.000000,0.000000,20.048823,0,0,0,0,0,0,0
1,19999,15,10000,65,0,1,9999,0.100000,0,0,0.000000,2,1.000000,0.000000,14.605072,0,0,0,0,0,0,0
1,19999,16,10000,65,0,0,9999,0.100000,0,0,0.000000,2,0.000000,0.000000,1.085552,0,0,0,0,0,0,0
1,19999,17,10000,58,0,0,9999,0.100000,0,0,0.000000,2,0.000000,0.000000,0.400476,0,0,0,0,0,0,0
1,19999,18,10000,65,0,1,9999,0.100000,0,0,0.000000,2,1.000000,0.000000,10.757926,0,0,0,0,0,0,0
1,19999,19,10000,65,0,0,9999,0.100000,0,0,0.000000,2,0.000000,0.000000,2.531549,0,0,0,0,0,0,0
1,19999,20,10000,65,0,1,9999,0.100000,0,0,0.000000,2,4.000000,0.000000,12.907113,0,0,0,0,0,0,0
1,19999,21,10000,58,0,0,9999,0.100000,0,0,0.000000,2,0.000000,0.000000,0.455255,0,0,0,0,0,0,0
1,19999,22,10000,22,0,0,9999,0.100000,0,0,0.000000,2,0.000000,0.000000,0.161351,0,0,0,0,0,0,0
1,19999,23,10000,13,0,0,9999,0.100000,0,0,0.000000,1,0.000000,0.000000,0.951677,0,0,0,0,0,0,0
1,19999,24,10000,65,0,0,9999,0.100000,0,0,0.000000,2,0.000000,0.000000,0.095263,0,0,0,0,0,0,0
1,19999,25,10000,58,0,0,9999,0.100000,0,0,0.000000,2,0.000000,0.000000,0.364485,0,0,0,0,0,0,0
1,19999,26,10000,65,0,0,9999,0.100000,0,0,0.000000,2,0.000000,0.000000,2.532856,0,0,0,0,0,0,0
1,19999,27,10000,65,0,0,9999,0.100000,0,0,0.000000,2,0.000000,0.000000,12.350189,0,0,0,0,0,0,0
1,19999,28,10000,65,0,0,9999,0.100000,0,0,0.000000,2,0.000000,0.000000,0.542032,0,0,0,0,0,0,0
1,19999,29,10000,65,0,0,9999,0.100000,0,0,0.000000,2,0.000000,0.000000,0.965253,0,0,0,0,0,0,0
1,19999,30,10000,65,0,0,9999,0.100000,0,0,0.000000,2,0.000000,0.000000,1.675527,0,0,0,0,0,0,0
1,19999,31,10000,68,0,3,9999,0.100000,0,0,34.210526,1,8.000000,0.000000,16.885292,0,0,1,0,0,0,0
1,19999,32,10000,65,0,1,9999,0.100000,0,0,0.000000,2,3.000000,0.000000,9.986567,0,0,0,0,0,0,0
1,19999,33,10000,65,0,0,9999,0.100000,0,0,0.000000,2,0.000000,0.000000,0.156337,0,0,0,0,0,0,0
1,19999,34,10000,65,0,1,9999,0.100000,0,0,0.000000,2,1.000000,0.000000,2.714994,0,0,0,0,0,0,0
1,19999,35,10000,58,0,1,9999,0.100000,0,0,0.000000,2,2.000000,0.000000,14.654656,0,0,0,0,0,0,0
1,19999,36,10000,68,0,0,9999,0.100000,0,0,0.000000,1,0.000000,0.000000,1.297919,0,0,0,0,0,0,0
1,19999,37,10000,58,0,1,9999,0.100000,0,0,0.000000,2,4.000000,0.000000,10.067403,0,0,0,0,0,0,0
1,19999,38,10000,65,0,0,9999,0.100000,0,0,0.000000,2,0.000000,0.000000,1.223513,0,0,0,0,0,0,0
1,19999,39,10000,65,0,1,9999,0.100000,0,0,0.000000,2,2.000000,0.000000,7.030204,0,0,0,0,0,0,0
1,19999,40,10000,65,0,1,9999,0.100000,0,0,0.000000,2,4.000000,0.000000,9.924327,0,0,0,0,0,0,0
1,19999,41,10000,1,0,0,9999,0.065000,0,0,0.000000,1,0.000000,0.000000,1.003034,0,0,0,0,0,0,0
1,19999,42,10000,58,0,0,9999,0.100000,0,0,0.000000,2,0.000000,0.000000,0.195918,0,0,0,0,0,0,0
1,19999,43,10000,58,0,0,9999,0.100000,0,0,0.000000,2,0.000000,0.000000,0.523518,0,0,0,0,0,0,0
1,19999,44,10000,65,0,0,9999,0.100000,0,0,0.000000,2,0.000000,0.000000,0.110358,0,0,0,0,0,0,0
1,19999,45,10000,65,0,1,9999,0.100000,0,0,0.000000,2,1.000000,0.000000,12.431391,0,0,0,0,0,0,0
1,19999,46,10000,68,0,0,9999,0.100000,0,0,0.000000,1,0.000000,0.000000,1.111797,0,0,0,0,0,0,0
1,19999,47,10000,58,0,1,9999,0.100000,0,0,0.000000,2,5.000000,0.000000,15.673270,0,0,0,0,0,0,0
1,19999,48,10000,58,0,1,9999,0.100000,0,0,0.000000,2,1.000000,0.000000,1.755841,0,0,0,0,0,0,0
1,19999,49,10000,65,0,0,9999,0.100000,0,0,0.000000,2,0.000000,0.000000,0.612220,0,0,0,0,0,0,0
1,19999,50,10000,65,0,1,9999,0.100000,0,0,0.000000,2,6.000000,0.000000,10.930101,0,0,0,0,0,0,0
1,19999,51,10000,65,0,0,9999,0.100000,0,0,0.000000,2,0.000000,0.000000,0.230516,0,0,0,0,0,0,0
1,19999,52,10000,65,0,0,9999,0.100000,0,0,0.000000,2,0.000000,0.000000,1.847437,0,0,0,0,0,0,0
1,19999,53,10000,58,0,0,9999,0.100000,0,0,0.000000,2,0.000000,0.000000,0.107849,0,0,0,0,0,0,0
1,19999,54,10000,65,0,0,9999,0.100000,0,0,0.000000,2,0.000000,0.000000,0.273150,0,0,0,0,0,0,0
1,19999,55,10000,58,0,0,9999,0.100000,0,0,0.000000,2,0.000000,0.000000,2.449816,0,0,0,0,0,0,0
1,19999,56,10000,65,0,1,9999,0.100000,0,0,0.000000,2,1.000000,0.000000,5.870410,0,0,0,0,0,0,0
1,19999,57,10000,65,0,1,9999,0.100000,0,0,0.000000,2,3.000000,0.000000,18.207204,0,0,0,0,0,0,0
1,19999,58,10000,58,0,0,9999,0.100000,0,0,0.000000,2,0.000000,0.000000,0.208898,0,0,0,0,0,0,0
1,19999,59,10000,65,0,0,9999,0.100000,0,0,0.000000,2,0.000000,0.000000,1.804943,0,0,0,0,0,0,0
1,19999,60,10000,65,0,1,9999,0.100000,0,0,0.000000,2,1.000000,0.000000,4.222240,0,0,0,0,0,0,0
1,19999,61,10000,58,0,1,9999,0.100000,0,0,0.000000,2,1.000000,0.000000,11.116850,0,0,0,0,0,0,0
1,19999,62,10000,65,0,0,9999,0.100000,0,0,0.000000,2,0.000000,0.000000,4.766575,0,0,0,0,0,0,0
1,19999,63,10000,65,0,0,9999,0.100000,0,0,0.000000,2,0.000000,0.000000,0.311963,0,0,0,0,0,0,0
1,19999,64,10000,58,0,1,9999,0.100000,0,0,0.000000,2,2.000000,0.000000,12.944005,0,0,0,0,0,0,0
1,19999,65,10000,68,0,1,9999,0.100000,0,0,0.000000,2,2.000000,0.000000,3.094698,0,0,0,0,0,0,0
1,19999,66,10000,58,0,0,9999,0.100000,0,0,0.000000,2,0.000000,0.000000,1.748418,0,0,0,0,0,0,0
1,19999,67,10000,65,0,0,9999,0.100000,0,0,0.000000,2,0.000000,0.000000,0.252663,0,0,0,0,0,0,0
1,19999,68,10000,68,0,0,9999,0.100000,0,0,0.000000,1,0.000000,0.000000,0.602848,0,0,0,0,0,0,0
1,19999,69,10000,58,0,1,9999,0.100000,0,0,0.000000,2,2.000000,0.000000,3.817119,0,0,0,0,0,0,0
1,19999,70,10000,65,0,1,9999,0.100000,0,0,0.000000,2,3.000000,0.000000,8.839359,0,0,0,0,0,0,0
1,19999,71,10000,58,0,0,9999,0.100000,0,0,0.000000,2,0.000000,0.000000,0.107446,0,0,0,0,0,0,0
1,19999,72,10000,58,0,0,9999,0.100000,0,0,0.000000,2,0.000000,0.000000,0.736968,0,0,0,0,0,0,0
1,19999,73,10000,65,0,0,9999,0.100000,0,0,0.000000,2,0.000000,0.000000,1.498610,0,0,0,0,0,0,0
1,19999,74,10000,65,0,1,9999,0.100000,0,0,0.000000,2,2.000000,0.000000,7.012704,0,0,0,0,0,0,0
1,19999,75,10000,65,0,1,9999,0.100000,0,0,0.000000,2,1.000000,0.000000,4.710353,0,0,0,0,0,0,0
1,19999,76,10000,58,0,1,9999,0.100000,0,0,0.000000,2,3.000000,0.000000,14.332193,0,0,0,0,0,0,0
1,19999,77,10000,58,0,1,9999,0.100000,0,0,0.000000,2,4.000000,0.000000,10.180607,0,0,0,0,0,0,0
1,19999,78,10000,68,0,1,9999,0.100000,0,0,0.000000,1,3.000000,0.000000,13.224262,0,0,0,0,0,0,0
1,19999,79,10000,65,0,1,9999,0.100000,0,0,0.000000,2,3.000000,0.000000,13.204270,0,0,0,0,0,0,0
1,19999,80,10000,65,0,0,9999,0.100000,0,0,0.000000,2,0.000000,0.000000,1.575093,0,0,0,0,0,0,0
1,19999,81,10000,58,0,0,9999,0.100000,0,0,0.000000,2,0.000000,0.000000,0.370005,0,0,0,0,0,0,0
1,19999,82,10000,65,0,1,9999,0.100000,0,0,0.000000,2,2.000000,0.000000,2.492205,0,0,0,0,0,0,0
1,19999,83,10000,24,0,0,9999,0.100000,0,0,0.000000,2,0.000000,0.000000,0.908168,0,0,0,0,0,0,0
1,19999,84,10000,58,0,1,9999,0.100000,0,0,0.000000,2,6.000000,0.000000,15.138547,0,0,0,0,0,0,0
1,19999,85,10000,65,0,1,9999,0.100000,0,0,0.000000,2,8.000000,0.000000,18.070149,0,0,0,0,0,0,0
1,19999,86,10000,65,0,0,9999,0.100000,0,0,0.000000,2,0.000000,0.000000,0.242114,0,0,0,0,0,0,0
1,19999,87,10000,58,0,0,9999,0.100000,0,0,0.000000,2,0.000000,0.000000,0.283282,0,0,0,0,0,0,0
1,19999,88,10000,58,0,1,9999,0.100000,0,0,0.000000,2,2.000000,0.000000,3.077185,0,0,0,0,0,0,0
1,19999,89,10000,58,0,1,9999,0.100000,0,0,0.000000,2,1.000000,0.000000,13.902073,0,0,0,0,0,0,0
1,19999,90,10000,58,0,0,9999,0.100000,0,0,0.000000,2,0.000000,0.000000,0.582676,0,0,0,0,0,0,0
1,19999,91,10000,24,0,0,9999,0.100000,0,0,0.000000,2,0.000000,0.000000,0.136844,0,0,0,0,0,0,0
1,19999,92,10000,58,0,1,9999,0.100000,0,0,0.000000,2,2.000000,0.000000,2.873079,0,0,0,0,0,0,0
1,19999,93,10000,65,0,0,9999,0.100000,0,0,0.000000,2,0.000000,0.000000,7.027950,0,0,0,0,0,0,0
1,19999,94,10000,58,0,0,9999,0.100000,0,0,0.000000,2,0.000000,0.000000,1.260623,0,0,0,0,0,0,0
1,19999,95,10000,58,0,0,9999,0.100000,0,0,0.000000,2,0.000000,0.000000,0.549356,0,0,0,0,0,0,0
1,19999,96,10000,24,0,1,9999,0.100000,0,0,0.000000,2,1.000000,0.000000,9.393051,0,0,0,0,0,0,0
1,19999,97,10000,58,0,0,9999,0.100000,0,0,0.000000,2,0.000000,0.000000,0.207671,0,0,0,0,0,0,0
1,19999,98,10000,65,0,1,9999,0.100000,0,0,0.000000,2,1.000000,0.000000,1.809428,0,0,0,0,0,0,0
1,19999,99,10000,58,0,0,9999,0.100000,0,0,0.000000,2,0.000000,0.000000,18.256840,0,0,0,0,0,0,0
2,29999,0,20000,65,0,0,9999,0.100000,0,0,0.000000,3,0.000000,0.000000,3.373855,0,0,0,0,0,0,0
2,29999,1,20000,58,0,0,9999,0.100000,0,0,0.000000,3,0.000000,0.000000,0.132081,0,0,0,0,0,0,0
2,29999,2,20000,58,0,0,9999,0.100000,0,0,0.000000,3,0.000000,0.000000,2.361730,0,0,0,0,0,0,0
2,29999,3,20000,28,10000,0,9999,0.100000,0,0,0.000000,3,0.000000,0.000000,0.174283,0,0,0,0,0,0,0
2,29999,4,20000,65,0,0,9999,0.100000,0,0,0.000000,3,0.000000,0.000000,0.175342,0,0,0,0,0,0,0
2,29999,5,20000,56,10000,0,9999,0.100000,0,0,0.000000,3,0.000000,0.000000,0.791053,0,0,0,0,0,0,0
2,29999,6,20000,6,10000,0,9999,0.100000,0,0,0.000000,3,0.000000,0.000000,0.551572,0,0,0,0,0,0,0
2,29999,7,20000,56,10000,1,9999,0.100000,0,0,0.000000,3,1.000000,0.000000,9.545090,0,0,0,0,0,0,0
2,29999,8,20000,56,10000,0,9999,0.100000,0,0,0.000000,3,0.000000,0.000000,0.620047,0,0,0,0,0,0,0
2,29999,9,20000,65,0,0,9999,0.100000,0,0,0.000000,3,0.000000,0.000000,0.184543,0,0,0,0,0,0,0
2,29999,10,20000,65,0,0,9999,0.100000,0,0,0.000000,3,0.000000,0.000000,0.215691,0,0,0,0,0,0,0
2,29999,11,20000,44,10000,0,9999,0.100000,0,0,0.000000,3,0.000000,0.000000,0.349664,0,0,0,0,0,0,0
2,29999,12,20000,65,0,0,9999,0.100000,0,0,0.000000,3,0.000000,0.000000,0.198565,0,0,0,0,0,0,0
2,29999,13,20000,28,10000,0,9999,0.100000,0,0,0.000000,3,0.000000,0.000000,0.131615,0,0,0,0,0,0,0
2,29999,14,20000,56,10000,0,9999,0.100000,0,0,0.000000,3,0.000000,0.000000,7.215376,0,0,0,0,0,0,0
2,29999,15,20000,44,10000,1,9999,0.100000,0,0,0.000000,3,1.000000,0.000000,2.305961,0,0,0,0,0,0,0
2,29999,16,20000,44,10000,0,9999,0.100000,0,0,0.000000,3,0.000000,0.000000,0.522479,0,0,0,0,0,0,0
2,29999,17,20000,58,0,0,9999,0.100000,0,0,0.000000,3,0.000000,0.000000,0.611378,0,0,0,0,0,0,0
2,29999,18,20000,44,10000,1,9999,0.100000,0,0,0.000000,3,3.000000,0.000000,9.041714,0,0,0,0,0,0,0
2,29999,19,20000,56,10000,0,9999,0.100000,0,0,0.000000,3,0.000000,0.000000,1.067514,0,0,0,0,0,0,0
2,29999,20,20000,65,0,0,9999,0.100000,0,0,0.000000,3,0.000000,0.000000,0.846833,0,0,0,0,0,0,0
2,29999,21,20000,67,10000,1,9999,0.100000,0,0,0.000000,3,1.000000,0.000000,1.742775,0,0,0,0,0,0,0
2,29999,22,20000,56,10000,0,9999,0.100000,0,0,0.000000,3,0.000000,0.000000,0.655788,0,0,0,0,0,0,0
2,29999,23,20000,4,10000,0,9999,0.100000,0,0,0.000000,3,0.000000,0.000000,0.876260,0,0,0,0,0,0,0
2,29999,24,20000,65,0,0,9999,0.100000,0,0,0.000000,3,0.000000,0.000000,0.173252,0,0,0,0,0,0,0
2,29999,25,20000,65,0,0,9999,0.100000,0,0,0.000000,3,0.000000,0.000000,1.432487,0,0,0,0,0,0,0
2,29999,26,20000,56,10000,0,9999,0.100000,0,0,0.000000,3,0.000000,0.000000,0.370083,0,0,0,0,0,0,0
2,29999,27,20000,58,0,1,9999,0.100000,0,0,0.000000,3,5.000000,0.000000,11.813640,0,0,0,0,0,0,0
2,29999,28,20000,56,10000,0,9999,0.100000,0,0,0.000000,3,0.000000,0.000000,0.611851,0,0,0,0,0,0,0
2,29999,29,20000,58,0,1,9999,0.100000,0,0,0.000000,3,4.000000,0.000000,9.206580,0,0,0,0,0,0,0
2,29999,30,20000,65,0,0,9999,0.100000,0,0,0.000000,3,0.000000,0.000000,0.437751,0,0,0,0,0,0,0
2,29999,31,20000,56,10000,0,9999,0.100000,0,0,0.000000,3,0.000000,0.000000,0.628221,0,0,0,0,0,0,0
2,29999,32,20000,65,0,0,9999,0.100000,0,0,0.000000,3,0.000000,0.000000,1.507224,0,0,0,0,0,0,0
2,29999,33,20000,4,10000,0,9999,0.100000,0,0,0.000000,3,0.000000,0.000000,0.159687,0,0,0,0,0,0,0
2,29999,34,20000,65,0,0,9999,0.100000,0,0,0.000000,3,0.000000,0.000000,22.794484,0,0,0,0,0,0,0
2,29999,35,20000,56,10000,0,9999,0.100000,0,0,0.000000,3,0.000000,0.000000,6.314902,0,0,0,0,0,0,0
2,29999,36,20000,65,0,0,9999,0.100000,0,0,0.000000,3,0.000000,0.000000,1.933773,0,0,0,0,0,0,0
2,29999,37,20000,67,10000,1,9999,0.100000,0,0,0.000000,3,7.000000,0.000000,21.820380,0,0,0,0,0,0,0
2,29999,38,20000,28,10000,0,9999,0.100000,0,0,0.000000,3,0.000000,0.000000,1.125065,0,0,0,0,0,0,0
2,29999,39,20000,67,10000,0,9999,0.100000,0,0,0.000000,3,0.000000,0.000000,0.094807,0,0,0,0,0,0,0
2,29999,40,20000,56,10000,0,9999,0.100000,0,0,0.000000,3,0.000000,0.000000,1.238479,0,0,0,0,0,0,0
2,29999,41,20000,4,10000,0,9999,0.100000,0,0,0.000000,3,0.000000,0.000000,0.961636,0,0,0,0,0,0,0
2,29999,42,20000,44,10000,0,9999,0.100000,0,0,0.000000,3,0.000000,0.000000,0.127648,0,0,0,0,0,0,0
2,29999,43,20000,1,10000,0,9999,0.100000,0,0,0.000000,3,0.000000,0.000000,1.534380,0,0,0,0,0,0,0
2,29999,44,20000,56,10000,0,9999,0.100000,0,0,0.000000,3,0.000000,0.000000,0.119751,0,0,0,0,0,0,0
2,29999,45,20000,56,10000,0,9999,0.100000,0,0,0.000000,3,0.000000,0.000000,0.188904,0,0,0,0,0,0,0
2,29999,46,20000,65,0,0,9999,0.100000,0,0,0.000000,3,0.000000,0.000000,0.664340,0,0,0,0,0,0,0
2,29999,47,20000,58,0,1,9999,0.100000,0,0,0.000000,3,1.000000,0.000000,11.173096,0,0,0,0,0,0,0
2,29999,48,20000,65,0,1,9999,0.100000,0,0,0.000000,3,1.000000,0.000000,1.930341,0,0,0,0,0,0,0
2,29999,49,20000,56,10000,1,9999,0.100000,0,0,0.000000,3,2.000000,0.000000,5.678938,0,0,0,0,0,0,0
2,29999,50,20000,44,10000,0,9999,0.100000,0,0,0.000000,3,0.000000,0.000000,3.339921,0,0,0,0,0,0,0
2,29999,51,20000,65,0,0,9999,0.100000,0,0,0.000000,3,0.000000,0.000000,0.972640,0,0,0,0,0,0,0
2,29999,52,20000,44,10000,0,9999,0.100000,0,0,0.000000,3,0.000000,0.000000,0.439067,0,0,0,0,0,0,0
2,29999,53,20000,65,0,0,9999,0.100000,0,0,0.000000,3,0.000000,0.000000,0.088679,0,0,0,0,0,0,0
2,29999,54,20000,56,10000,0,9999,0.100000,0,0,0.000000,3,0.000000,0.000000,0.110451,0,0,0,0,0,0,0
2,29999,55,20000,44,10000,0,9999,0.100000,0,0,0.000000,3,0.000000,0.000000,0.541703,0,0,0,0,0,0,0
2,29999,56,20000,56,10000,0,9999,0.100000,0,0,0.000000,3,0.000000,0.000000,2.946523,0,0,0,0,0,0,0
2,29999,57,20000,56,10000,1,9999,0.100000,0,0,0.000000,3,1.000000,0.000000,14.087369,0,0,0,0,0,0,0
2,29999,58,20000,44,10000,0,9999,0.100000,0,0,0.000000,3,0.000000,0.000000,0.208092,0,0,0,0,0,0,0
2,29999,59,20000,65,0,0,9999,0.100000,0,0,0.000000,3,0.000000,0.000000,0.331361,0,0,0,0,0,0,0
2,29999,60,20000,56,10000,1,9999,0.100000,0,0,0.000000,3,3.000000,0.000000,6.701992,0,0,0,0,0,0,0
2,29999,61,20000,65,0,1,9999,0.100000,0,0,0.000000,3,2.000000,0.000000,7.936069,0,0,0,0,0,0,0
2,29999,62,20000,56,10000,1,9999,0.100000,0,0,0.000000,3,1.000000,0.000000,3.638151,0,0,0,0,0,0,0
2,29999,63,20000,65,0,0,9999,0.100000,0,0,0.000000,3,0.000000,0.000000,1.022657,0,0,0,0,0,0,0
2,29999,64,20000,56,10000,0,9999,0.100000,0,0,0.000000,3,0.000000,0.000000,2.251873,0,0,0,0,0,0,0
2,29999,65,20000,56,10000,0,9999,0.100000,0,0,0.000000,3,0.000000,0.000000,0.324774,0,0,0,0,0,0,0
2,29999,66,20000,58,0,0,9999,0.100000,0,0,0.000000,3,0.000000,0.000000,1.149422,0,0,0,0,0,0,0
2,29999,67,20000,56,10000,1,9999,0.100000,0,0,0.000000,3,1.000000,0.000000,1.635788,0,0,0,0,0,0,0
2,29999,68,20000,67,10000,0,9999,0.100000,0,0,0.000000,3,0.000000,0.000000,0.753319,0,0,0,0,0,0,0
2,29999,69,20000,65,0,0,9999,0.100000,0,0,0.000000,3,0.000000,0.000000,0.427250,0,0,0,0,0,0,0
2,29999,70,20000,56,10000,0,9999,0.100000,0,0,0.000000,3,0.000000,0.000000,2.175526,0,0,0,0,0,0,0
2,29999,71,20000,65,0,0,9999,0.100000,0,0,0.000000,3,0.000000,0.000000,0.217112,0,0,0,0,0,0,0
2,29999,72,20000,56,10000,0,9999,0.100000,0,0,0.000000,3,0.000000,0.000000,1.343600,0,0,0,0,0,0,0
2,29999,73,20000,65,0,0,9999,0.100000,0,0,0.000000,3,0.000000,0.000000,0.318916,0,0,0,0,0,0,0
2,29999,74,20000,56,10000,0,9999,0.100000,0,0,0.000000,3,0.000000,0.000000,1.339922,0,0,0,0,0,0,0
2,29999,75,20000,56,10000,0,9999,0.100000,0,0,0.000000,3,0.000000,0.000000,5.311662,0,0,0,0,0,0,0
2,29999,76,20000,44,10000,1,9999,0.100000,0,0,0.000000,3,4.000000,0.000000,10.624266,0,0,0,0,0,0,0
2,29999,77,20000,67,10000,0,9999,0.100000,0,0,0.000000,3,0.000000,0.000000,1.925285,0,0,0,0,0,0,0
2,29999,78,20000,56,10000,1,9999,0.100000,0,0,0.000000,3,1.000000,0.000000,5.085831,0,0,0,0,0,0,0
2,29999,79,20000,56,10000,0,9999,0.100000,0,0,0.000000,3,0.000000,0.000000,0.711973,0,0,0,0,0,0,0
2,29999,80,20000,58,0,1,9999,0.100000,0,0,0.000000,3,1.000000,0.000000,6.094878,0,0,0,0,0,0,0
2,29999,81,20000,65,0,0,9999,0.100000,0,0,0.000000,3,0.000000,0.000000,0.227616,0,0,0,0,0,0,0
2,29999,82,20000,56,10000,0,9999,0.100000,0,0,0.000000,3,0.000000,0.000000,0.410469,0,0,0,0,0,0,0
2,29999,83,20000,65,0,1,9999,0.100000,0,0,0.000000,3,4.000000,0.000000,13.155042,0,0,0,0,0,0,0
2,29999,84,20000,65,0,1,9999,0.100000,0,0,0.000000,3,2.000000,0.000000,13.755095,0,0,0,0,0,0,0
2,29999,85,20000,65,0,0,9999,0.100000,0,0,0.000000,3,0.000000,0.000000,0.117017,0,0,0,0,0,0,0
2,29999,86,20000,65,0,1,9999,0.100000,0,0,0.000000,3,2.000000,0.000000,4.958194,0,0,0,0,0,0,0
2,29999,87,20000,56,10000,1,9999,0.100000,0,0,0.000000,3,3.000000,0.000000,8.112722,0,0,0,0,0,0,0
2,29999,88,20000,56,10000,0,9999,0.100000,0,0,0.000000,3,0.000000,0.000000,0.083245,0,0,0,0,0,0,0
2,29999,89,20000,44,10000,1,9999,0.100000,0,0,0.000000,3,2.000000,0.000000,10.288142,0,0,0,0,0,0,0
2,29999,90,20000,44,10000,0,9999,0.100000,0,0,0.000000,3,0.000000,0.000000,0.322702,0,0,0,0,0,0,0
2,29999,91,20000,56,10000,0,9999,0.100000,0,0,0.000000,3,0.000000,0.000000,0.124726,0,0,0,0,0,0,0
2,29999,92,20000,67,10000,0,9999,0.100000,0,0,0.000000,3,0.000000,0.000000,0.647519,0,0,0,0,0,0,0
2,29999,93,20000,65,0,1,9999,0.100000,0,0,0.000000,3,1.000000,0.000000,7.676477,0,0,0,0,0,0,0
2,29999,94,20000,56,10000,0,9999,0.100000,0,0,0.000000,3,0.000000,0.000000,0.899644,0,0,0,0,0,0,0
2,29999,95,20000,65,0,1,9999,0.100000,0,0,0.000000,3,1.000000,0.000000,3.314845,0,0,0,0,0,0,0
2,29999,96,20000,44,10000,1,9999,0.100000,0,0,0.000000,3,2.000000,0.000000,10.330258,0,0,0,0,0,0,0
2,29999,97,20000,65,0,0,9999,0.100000,0,0,0.000000,3,0.000000,0.000000,0.200456,0,0,0,0,0,0,0
2,29999,98,20000,44,10000,0,9999,0.100000,0,0,0.000000,3,0.000000,0.000000,1.118325,0,0,0,0,0,0,0
2,29999,99,20000,65,0,0,9999,0.100000,0,0,0.000000,3,0.000000,0.000000,1.100242,0,0,0,0,0,0,0
3,39999,0,30000,44,10000,1,9999,0.100000,0,0,0.000000,4,3.000000,0.000000,14.162598,0,0,0,0,0,0,0
3,39999,1,30000,44,10000,0,9999,0.100000,0,0,0.000000,4,0.000000,0.000000,0.177847,0,0,0,0,0,0,0
3,39999,2,30000,44,10000,0,9999,0.100000,0,0,0.000000,4,0.000000,0.000000,0.724325,0,0,0,0,0,0,0
3,39999,3,30000,44,10000,0,9999,0.100000,0,0,0.000000,4,0.000000,0.000000,0.207415,0,0,0,0,0,0,0
3,39999,4,30000,44,10000,0,9999,0.100000,0,0,0.000000,3,0.000000,0.000000,0.122445,0,0,0,0,0,0,0
3,39999,5,30000,50,20000,0,9999,0.100000,0,0,0.000000,4,0.000000,0.000000,1.024738,0,0,0,0,0,0,0
3,39999,6,30000,65,0,0,9999,0.100000,0,0,0.000000,3,0.000000,0.000000,0.556257,0,0,0,0,0,0,0
3,39999,7,30000,56,10000,1,9999,0.100000,0,0,0.000000,4,1.000000,0.000000,12.654033,0,0,0,0,0,0,0
3,39999,8,30000,65,0,0,9999,0.100000,0,0,0.000000,3,0.000000,0.000000,3.271040,0,0,0,0,0,0,0
3,39999,9,30000,65,0,0,9999,0.100000,0,0,0.000000,3,0.000000,0.000000,0.177417,0,0,0,0,0,0,0
3,39999,10,30000,65,0,0,9999,0.100000,0,0,0.000000,3,0.000000,0.000000,0.292270,0,0,0,0,0,0,0
3,39999,11,30000,56,10000,0,9999,0.100000,0,0,0.000000,4,0.000000,0.000000,0.235090,0,0,0,0,0,0,0
3,39999,12,30000,56,10000,0,9999,0.100000,0,0,0.000000,4,0.000000,0.000000,0.150062,0,0,0,0,0,0,0
3,39999,13,30000,50,20000,0,9999,0.100000,0,0,0.000000,4,0.000000,0.000000,0.096045,0,0,0,0,0,0,0
3,39999,14,30000,65,0,0,9999,0.100000,0,0,0.000000,4,0.000000,0.000000,7.288708,0,0,0,0,0,0,0
3,39999,15,30000,50,20000,0,9999,0.100000,0,0,0.000000,4,0.000000,0.000000,0.528842,0,0,0,0,0,0,0
3,39999,16,30000,50,20000,0,9999,0.100000,0,0,0.000000,4,0.000000,0.000000,0.309785,0,0,0,0,0,0,0
3,39999,17,30000,65,0,0,9999,0.100000,0,0,0.000000,3,0.000000,0.000000,0.571751,0,0,0,0,0,0,0
3,39999,18,30000,56,10000,1,9999,0.100000,0,0,0.000000,4,2.000000,0.000000,16.670219,0,0,0,0,0,0,0
3,39999,19,30000,65,0,0,9999,0.100000,0,0,0.000000,4,0.000000,0.000000,1.219026,0,0,0,0,0,0,0
3,39999,20,30000,56,10000,0,9999,0.100000,0,0,0.000000,4,0.000000,0.000000,4.308233,0,0,0,0,0,0,0
3,39999,21,30000,65,0,0,9999,0.100000,0,0,0.000000,4,0.000000,0.000000,1.110172,0,0,0,0,0,0,0
3,39999,22,30000,44,10000,0,9999,0.100000,0,0,0.000000,3,0.000000,0.000000,0.673646,0,0,0,0,0,0,0
3,39999,23,30000,44,10000,1,9999,0.100000,0,0,0.000000,3,3.000000,0.000000,7.237675,0,0,0,0,0,0,0
3,39999,24,30000,56,10000,0,9999,0.100000,0,0,0.000000,3,0.000000,0.000000,0.178306,0,0,0,0,0,0,0
3,39999,25,30000,56,10000,0,9999,0.100000,0,0,0.000000,4,0.000000,0.000000,1.201175,0,0,0,0,0,0,0
3,39999,26,30000,65,0,0,9999,0.100000,0,0,0.000000,3,0.000000,0.000000,0.195694,0,0,0,0,0,0,0
3,39999,27,30000,56,10000,1,9999,0.100000,0,0,0.000000,3,1.000000,0.000000,3.908775,0,0,0,0,0,0,0
3,39999,28,30000,44,10000,0,9999,0.100000,0,0,0.000000,4,0.000000,0.000000,0.648926,0,0,0,0,0,0,0
3,39999,29,30000,50,20000,0,9999,0.100000,0,0,0.000000,4,0.000000,0.000000,0.449393,0,0,0,0,0,0,0
3,39999,30,30000,50,20000,0,9999,0.100000,0,0,0.000000,4,0.000000,0.000000,0.356426,0,0,0,0,0,0,0
3,39999,31,30000,44,10000,0,9999,0.100000,0,0,0.000000,4,0.000000,0.000000,0.163944,0,0,0,0,0,0,0
3,39999,32,30000,44,10000,0,9999,0.100000,0,0,0.000000,4,0.000000,0.000000,1.847052,0,0,0,0,0,0,0
3,39999,33,30000,44,10000,0,9999,0.100000,0,0,0.000000,4,0.000000,0.000000,0.163864,0,0,0,0,0,0,0
3,39999,34,30000,50,20000,0,9999,0.100000,0,0,0.000000,4,0.000000,0.000000,23.373431,0,0,0,0,0,0,0
3,39999,35,30000,56,10000,1,9999,0.100000,0,0,0.000000,4,3.000000,0.000000,8.677087,0,0,0,0,0,0,0
3,39999,36,30000,56,10000,0,9999,0.100000,0,0,0.000000,3,0.000000,0.000000,0.786368,0,0,0,0,0,0,0
3,39999,37,30000,56,10000,0,9999,0.100000,0,0,0.000000,4,0.000000,0.000000,1.923312,0,0,0,0,0,0,0
3,39999,38,30000,56,10000,1,9999,0.100000,0,0,0.000000,3,1.000000,0.000000,2.822410,0,0,0,0,0,0,0
3,39999,39,30000,44,10000,0,9999,0.100000,0,0,0.000000,4,0.000000,0.000000,0.092052,0,0,0,0,0,0,0
3,39999,40,30000,44,10000,0,9999,0.100000,0,0,0.000000,3,0.000000,0.000000,0.164529,0,0,0,0,0,0,0
3,39999,41,30000,44,10000,0,9999,0.100000,0,0,0.000000,3,0.000000,0.000000,0.915252,0,0,0,0,0,0,0
3,39999,42,30000,44,10000,0,9999,0.100000,0,0,0.000000,4,0.000000,0.000000,0.644475,0,0,0,0,0,0,0
3,39999,43,30000,44,10000,1,9999,0.100000,0,0,0.000000,3,1.000000,0.000000,3.054227,0,0,0,0,0,0,0
3,39999,44,30000,65,0,0,9999,0.100000,0,0,0.000000,4,0.000000,0.000000,0.371187,0,0,0,0,0,0,0
3,39999,45,30000,65,0,0,9999,0.100000,0,0,0.000000,4,0.000000,0.000000,0.164764,0,0,0,0,0,0,0
3,39999,46,30000,56,10000,0,9999,0.100000,0,0,0.000000,4,0.000000,0.000000,0.137194,0,0,0,0,0,0,0
3,39999,47,30000,56,10000,1,9999,0.100000,0,0,0.000000,4,4.000000,0.000000,10.294042,0,0,0,0,0,0,0
3,39999,48,30000,56,10000,0,9999,0.100000,0,0,0.000000,3,0.000000,0.000000,0.329535,0,0,0,0,0,0,0
3,39999,49,30000,50,20000,0,9999,0.100000,0,0,0.000000,4,0.000000,0.000000,0.327424,0,0,0,0,0,0,0
3,39999,50,30000,56,10000,0,9999,0.100000,0,0,0.000000,4,0.000000,0.000000,0.523244,0,0,0,0,0,0,0
3,39999,51,30000,56,10000,0,9999,0.100000,0,0,0.000000,3,0.000000,0.000000,0.219533,0,0,0,0,0,0,0
3,39999,52,30000,44,10000,0,9999,0.100000,0,0,0.000000,4,0.000000,0.000000,0.406533,0,0,0,0,0,0,0
3,39999,53,30000,44,10000,0,9999,0.100000,0,0,0.000000,4,0.000000,0.000000,0.119350,0,0,0,0,0,0,0
3,39999,54,30000,65,0,0,9999,0.100000,0,0,0.000000,4,0.000000,0.000000,0.108340,0,0,0,0,0,0,0
3,39999,55,30000,56,10000,0,9999,0.100000,0,0,0.000000,4,0.000000,0.000000,0.558413,0,0,0,0,0,0,0
3,39999,56,30000,44,10000,0,9999,0.100000,0,0,0.000000,3,0.000000,0.000000,2.205157,0,0,0,0,0,0,0
3,39999,57,30000,44,10000,1,9999,0.100000,0,0,0.000000,4,3.000000,0.000000,22.465330,0,0,0,0,0,0,0
3,39999,58,30000,44,10000,0,9999,0.100000,0,0,0.000000,4,0.000000,0.000000,0.207317,0,0,0,0,0,0,0
3,39999,59,30000,56,10000,0,9999,0.100000,0,0,0.000000,4,0.000000,0.000000,0.203161,0,0,0,0,0,0,0
3,39999,60,30000,56,10000,1,9999,0.100000,0,0,0.000000,4,3.000000,0.000000,7.289696,0,0,0,0,0,0,0
3,39999,61,30000,65,0,0,9999,0.100000,0,0,0.000000,3,0.000000,0.000000,0.783487,0,0,0,0,0,0,0
3,39999,62,30000,65,0,0,9999,0.100000,0,0,0.000000,4,0.000000,0.000000,0.500809,0,0,0,0,0,0,0
3,39999,63,30000,65,0,0,9999,0.100000,0,0,0.000000,3,0.000000,0.000000,0.094145,0,0,0,0,0,0,0
3,39999,64,30000,65,0,0,9999,0.100000,0,0,0.000000,3,0.000000,0.000000,0.731652,0,0,0,0,0,0,0
3,39999,65,30000,65,0,0,9999,0.100000,0,0,0.000000,4,0.000000,0.000000,0.213170,0,0,0,0,0,0,0
3,39999,66,30000,44,10000,0,9999,0.100000,0,0,0.000000,4,0.000000,0.000000,0.926337,0,0,0,0,0,0,0
3,39999,67,30000,65,0,0,9999,0.100000,0,0,0.000000,4,0.000000,0.000000,0.199039,0,0,0,0,0,0,0
3,39999,68,30000,50,20000,0,9999,0.100000,0,0,0.000000,4,0.000000,0.000000,0.615615,0,0,0,0,0,0,0
3,39999,69,30000,56,10000,0,9999,0.100000,0,0,0.000000,4,0.000000,0.000000,2.956130,0,0,0,0,0,0,0
3,39999,70,30000,44,10000,0,9999,0.100000,0,0,0.000000,4,0.000000,0.000000,1.823839,0,0,0,0,0,0,0
3,39999,71,30000,50,20000,0,9999,0.100000,0,0,0.000000,4,0.000000,0.000000,0.211649,0,0,0,0,0,0,0
3,39999,72,30000,65,0,1,9999,0.100000,0,0,0.000000,3,2.000000,0.000000,5.082588,0,0,0,0,0,0,0
3,39999,73,30000,65,0,0,9999,0.100000,0,0,0.000000,4,0.000000,0.000000,0.212580,0,0,0,0,0,0,0
3,39999,74,30000,65,0,0,9999,0.100000,0,0,0.000000,4,0.000000,0.000000,0.781361,0,0,0,0,0,0,0
3,39999,75,30000,65,0,0,9999,0.100000,0,0,0.000000,3,0.000000,0.000000,2.628223,0,0,0,0,0,0,0
3,39999,76,30000,50,20000,0,9999,0.100000,0,0,0.000000,4,0.000000,0.000000,2.059218,0,0,0,0,0,0,0
3,39999,77,30000,65,0,0,9999,0.100000,0,0,0.000000,3,0.000000,0.000000,1.481009,0,0,0,0,0,0,0
3,39999,78,30000,44,10000,0,9999,0.100000,0,0,0.000000,4,0.000000,0.000000,0.129330,0,0,0,0,0,0,0
3,39999,79,30000,56,10000,0,9999,0.100000,0,0,0.000000,4,0.000000,0.000000,0.655576,0,0,0,0,0,0,0
3,39999,80,30000,65,0,0,9999,0.100000,0,0,0.000000,4,0.000000,0.000000,2.081288,0,0,0,0,0,0,0
3,39999,81,30000,56,10000,0,9999,0.100000,0,0,0.000000,4,0.000000,0.000000,0.141937,0,0,0,0,0,0,0
3,39999,82,30000,56,10000,0,9999,0.100000,0,0,0.000000,4,0.000000,0.000000,0.302911,0,0,0,0,0,0,0
3,39999,83,30000,50,20000,1,9999,0.100000,0,0,0.000000,4,1.000000,0.000000,9.531051,0,0,0,0,0,0,0
3,39999,84,30000,44,10000,1,9999,0.100000,0,0,0.000000,4,2.000000,0.000000,22.778550,0,0,0,0,0,0,0
3,39999,85,30000,65,0,0,9999,0.100000,0,0,0.000000,4,0.000000,0.000000,0.126979,0,0,0,0,0,0,0
3,39999,86,30000,44,10000,0,9999,0.100000,0,0,0.000000,4,0.000000,0.000000,0.214337,0,0,0,0,0,0,0
3,39999,87,30000,44,10000,0,9999,0.100000,0,0,0.000000,4,0.000000,0.000000,1.465319,0,0,0,0,0,0,0
3,39999,88,30000,44,10000,0,9999,0.100000,0,0,0.000000,4,0.000000,0.000000,0.078386,0,0,0,0,0,0,0
3,39999,89,30000,56,10000,1,9999,0.100000,0,0,0.000000,4,1.000000,0.000000,2.683530,0,0,0,0,0,0,0
3,39999,90,30000,44,10000,0,9999,0.100000,0,0,0.000000,4,0.000000,0.000000,0.135830,0,0,0,0,0,0,0
3,39999,91,30000,56,10000,0,9999,0.100000,0,0,0.000000,4,0.000000,0.000000,0.230035,0,0,0,0,0,0,0
3,39999,92,30000,65,0,0,9999,0.100000,0,0,0.000000,4,0.000000,0.000000,0.691458,0,0,0,0,0,0,0
3,39999,93,30000,65,0,0,9999,0.100000,0,0,0.000000,3,0.000000,0.000000,8.760716,0,0,0,0,0,0,0
3,39999,94,30000,56,10000,0,9999,0.100000,0,0,0.000000,4,0.000000,0.000000,0.085708,0,0,0,0,0,0,0
3,39999,95,30000,44,10000,1,9999,0.100000,0,0,0.000000,4,2.000000,0.000000,9.761223,0,0,0,0,0,0,0
3,39999,96,30000,56,10000,1,9999,0.100000,0,0,0.000000,4,3.000000,0.000000,7.460926,0,0,0,0,0,0,0
3,39999,97,30000,56,10000,0,9999,0.100000,0,0,0.000000,4,0.000000,0.000000,0.207483,0,0,0,0,0,0,0
3,39999,98,30000,56,10000,1,9999,0.100000,0,0,0.000000,4,7.000000,0.000000,14.773876,0,0,0,0,0,0,0
3,39999,99,30000,50,20000,0,9999,0.100000,0,0,0.000000,4,0.000000,0.000000,0.765688,0,0,0,0,0,0,0
4,49999,0,40000,56,10000,0,9999,0.100000,0,0,0.000000,4,0.000000,0.000000,1.046863,0,0,0,0,0,0,0
4,49999,1,40000,65,0,0,9999,0.100000,0,0,0.000000,4,0.000000,0.000000,0.396710,0,0,0,0,0,0,0
4,49999,2,40000,44,10000,0,9999,0.100000,0,0,0.000000,4,0.000000,0.000000,0.533297,0,0,0,0,0,0,0
4,49999,3,40000,50,20000,0,9999,0.100000,0,0,0.000000,4,0.000000,0.000000,0.124040,0,0,0,0,0,0,0
4,49999,4,40000,56,10000,0,9999,0.100000,0,0,0.000000,4,0.000000,0.000000,0.108770,0,0,0,0,0,0,0
4,49999,5,40000,50,20000,0,9999,0.100000,0,0,0.000000,4,0.000000,0.000000,0.093223,0,0,0,0,0,0,0
4,49999,6,40000,56,10000,0,9999,0.100000,0,0,0.000000,4,0.000000,0.000000,0.559565,0,0,0,0,0,0,0
4,49999,7,40000,44,10000,0,9999,0.100000,0,0,0.000000,4,0.000000,0.000000,8.276876,0,0,0,0,0,0,0
4,49999,8,40000,65,0,0,9999,0.100000,0,0,0.000000,4,0.000000,0.000000,1.154237,0,0,0,0,0,0,0
4,49999,9,40000,50,20000,0,9999,0.100000,0,0,0.000000,4,0.000000,0.000000,0.179765,0,0,0,0,0,0,0
4,49999,10,40000,50,20000,0,9999,0.100000,0,0,0.000000,4,0.000000,0.000000,0.293914,0,0,0,0,0,0,0
4,49999,11,40000,50,20000,0,9999,0.100000,0,0,0.000000,4,0.000000,0.000000,0.312486,0,0,0,0,0,0,0
4,49999,12,40000,50,20000,0,9999,0.100000,0,0,0.000000,4,0.000000,0.000000,0.168816,0,0,0,0,0,0,0
4,49999,13,40000,65,0,0,9999,0.100000,0,0,0.000000,4,0.000000,0.000000,0.079094,0,0,0,0,0,0,0
4,49999,14,40000,50,20000,0,9999,0.100000,0,0,0.000000,4,0.000000,0.000000,9.022594,0,0,0,0,0,0,0
4,49999,15,40000,56,10000,0,9999,0.100000,0,0,0.000000,4,0.000000,0.000000,0.412835,0,0,0,0,0,0,0
4,49999,16,40000,65,0,0,9999,0.100000,0,0,0.000000,4,0.000000,0.000000,0.087031,0,0,0,0,0,0,0
4,49999,17,40000,65,0,0,9999,0.100000,0,0,0.000000,4,0.000000,0.000000,0.205441,0,0,0,0,0,0,0
4,49999,18,40000,56,10000,0,9999,0.100000,0,0,0.000000,4,0.000000,0.000000,1.709567,0,0,0,0,0,0,0
4,49999,19,40000,50,20000,0,9999,0.100000,0,0,0.000000,4,0.000000,0.000000,1.082094,0,0,0,0,0,0,0
4,49999,20,40000,50,20000,0,9999,0.100000,0,0,0.000000,4,0.000000,0.000000,4.597404,0,0,0,0,0,0,0
4,49999,21,40000,50,20000,0,9999,0.100000,0,0,0.000000,4,0.000000,0.000000,0.388538,0,0,0,0,0,0,0
4,49999,22,40000,65,0,0,9999,0.100000,0,0,0.000000,4,0.000000,0.000000,0.774042,0,0,0,0,0,0,0
4,49999,23,40000,50,20000,1,9999,0.100000,0,0,0.000000,4,1.000000,0.000000,4.820456,0,0,0,0,0,0,0
4,49999,24,40000,44,10000,0,9999,0.100000,0,0,0.000000,4,0.000000,0.000000,0.168086,0,0,0,0,0,0,0
4,49999,25,40000,65,0,0,9999,0.100000,0,0,0.000000,4,0.000000,0.000000,1.128703,0,0,0,0,0,0,0
4,49999,26,40000,56,10000,0,9999,0.100000,0,0,0.000000,4,0.000000,0.000000,0.231843,0,0,0,0,0,0,0
4,49999,27,40000,56,10000,0,9999,0.100000,0,0,0.000000,4,0.000000,0.000000,0.660544,0,0,0,0,0,0,0
4,49999,28,40000,50,20000,0,9999,0.100000,0,0,0.000000,4,0.000000,0.000000,0.469558,0,0,0,0,0,0,0
4,49999,29,40000,56,10000,0,9999,0.100000,0,0,0.000000,4,0.000000,0.000000,0.521227,0,0,0,0,0,0,0
4,49999,30,40000,50,20000,0,9999,0.100000,0,0,0.000000,4,0.000000,0.000000,0.269286,0,0,0,0,0,0,0
4,49999,31,40000,44,10000,1,9999,0.100000,0,0,0.000000,4,6.000000,0.000000,12.901616,0,0,0,0,0,0,0
4,49999,32,40000,50,20000,0,9999,0.100000,0,0,0.000000,4,0.000000,0.000000,0.492856,0,0,0,0,0,0,0
4,49999,33,40000,65,0,0,9999,0.100000,0,0,0.000000,4,0.000000,0.000000,0.176516,0,0,0,0,0,0,0
4,49999,34,40000,65,0,0,9999,0.100000,0,0,0.000000,4,0.000000,0.000000,23.204300,0,0,0,0,0,0,0
4,49999,35,40000,65,0,1,9999,0.100000,0,0,0.000000,4,2.000000,0.000000,7.465700,0,0,0,0,0,0,0
4,49999,36,40000,44,10000,0,9999,0.100000,0,0,0.000000,4,0.000000,0.000000,1.984493,0,0,0,0,0,0,0
4,49999,37,40000,56,10000,0,9999,0.100000,0,0,0.000000,4,0.000000,0.000000,2.394706,0,0,0,0,0,0,0
4,49999,38,40000,44,10000,0,9999,0.100000,0,0,0.000000,4,0.000000,0.000000,0.630386,0,0,0,0,0,0,0
4,49999,39,40000,44,10000,0,9999,0.100000,0,0,0.000000,4,0.000000,0.000000,0.128256,0,0,0,0,0,0,0
4,49999,40,40000,50,20000,0,9999,0.100000,0,0,0.000000,4,0.000000,0.000000,0.890134,0,0,0,0,0,0,0
4,49999,41,40000,56,10000,0,9999,0.100000,0,0,0.000000,4,0.000000,0.000000,0.934424,0,0,0,0,0,0,0
4,49999,42,40000,56,10000,0,9999,0.100000,0,0,0.000000,4,0.000000,0.000000,0.121854,0,0,0,0,0,0,0
4,49999,43,40000,56,10000,0,9999,0.100000,0,0,0.000000,4,0.000000,0.000000,0.152335,0,0,0,0,0,0,0
4,49999,44,40000,50,20000,0,9999,0.100000,0,0,0.000000,4,0.000000,0.000000,0.289805,0,0,0,0,0,0,0
4,49999,45,40000,65,0,0,9999,0.100000,0,0,0.000000,4,0.000000,0.000000,0.165887,0,0,0,0,0,0,0
4,49999,46,40000,50,20000,0,9999,0.100000,0,0,0.000000,4,0.000000,0.000000,0.178734,0,0,0,0,0,0,0
4,49999,47,40000,50,20000,0,9999,0.100000,0,0,0.000000,4,0.000000,0.000000,1.257291,0,0,0,0,0,0,0
4,49999,48,40000,56,10000,0,9999,0.100000,0,0,0.000000,4,0.000000,0.000000,0.345360,0,0,0,0,0,0,0
4,49999,49,40000,65,0,1,9999,0.100000,0,0,0.000000,4,2.000000,0.000000,5.670299,0,0,0,0,0,0,0
4,49999,50,40000,56,10000,0,9999,0.100000,0,0,0.000000,4,0.000000,0.000000,0.196644,0,0,0,0,0,0,0
4,49999,51,40000,44,10000,0,9999,0.100000,0,0,0.000000,4,0.000000,0.000000,0.240848,0,0,0,0,0,0,0
4,49999,52,40000,56,10000,0,9999,0.100000,0,0,0.000000,4,0.000000,0.000000,0.404164,0,0,0,0,0,0,0
4,49999,53,40000,50,20000,0,9999,0.100000,0,0,0.000000,4,0.000000,0.000000,0.109249,0,0,0,0,0,0,0
4,49999,54,40000,65,0,0,9999,0.100000,0,0,0.000000,4,0.000000,0.000000,0.111847,0,0,0,0,0,0,0
4,49999,55,40000,50,20000,0,9999,0.100000,0,0,0.000000,4,0.000000,0.000000,0.520851,0,0,0,0,0,0,0
4,49999,56,40000,56,10000,0,9999,0.100000,0,0,0.000000,4,0.000000,0.000000,1.492907,0,0,0,0,0,0,0
4,49999,57,40000,65,0,0,9999,0.100000,0,0,0.000000,4,0.000000,0.000000,24.165386,0,0,0,0,0,0,0
4,49999,58,40000,65,0,0,9999,0.100000,0,0,0.000000,4,0.000000,0.000000,0.207542,0,0,0,0,0,0,0
4,49999,59,40000,50,20000,0,9999,0.100000,0,0,0.000000,4,0.000000,0.000000,0.182889,0,0,0,0,0,0,0
4,49999,60,40000,65,0,1,9999,0.100000,0,0,0.000000,4,3.000000,0.000000,7.113824,0,0,0,0,0,0,0
4,49999,61,40000,44,10000,0,9999,0.100000,0,0,0.000000,4,0.000000,0.000000,0.244654,0,0,0,0,0,0,0
4,49999,62,40000,56,10000,1,9999,0.100000,0,0,0.000000,4,1.000000,0.000000,3.704872,0,0,0,0,0,0,0
4,49999,63,40000,65,0,0,9999,0.100000,0,0,0.000000,4,0.000000,0.000000,0.080206,0,0,0,0,0,0,0
4,49999,64,40000,44,10000,0,9999,0.100000,0,0,0.000000,4,0.000000,0.000000,0.702206,0,0,0,0,0,0,0
4,49999,65,40000,65,0,0,9999,0.100000,0,0,0.000000,4,0.000000,0.000000,0.219624,0,0,0,0,0,0,0
4,49999,66,40000,65,0,0,9999,0.100000,0,0,0.000000,4,0.000000,0.000000,0.641775,0,0,0,0,0,0,0
4,49999,67,40000,44,10000,0,9999,0.100000,0,0,0.000000,4,0.000000,0.000000,0.161996,0,0,0,0,0,0,0
4,49999,68,40000,65,0,0,9999,0.100000,0,0,0.000000,4,0.000000,0.000000,0.817156,0,0,0,0,0,0,0
4,49999,69,40000,50,20000,0,9999,0.100000,0,0,0.000000,4,0.000000,0.000000,2.764236,0,0,0,0,0,0,0
4,49999,70,40000,56,10000,0,9999,0.100000,0,0,0.000000,4,0.000000,0.000000,0.543974,0,0,0,0,0,0,0
4,49999,71,40000,65,0,0,9999,0.100000,0,0,0.000000,4,0.000000,0.000000,0.200705,0,0,0,0,0,0,0
4,49999,72,40000,65,0,0,9999,0.100000,0,0,0.000000,4,0.000000,0.000000,1.097851,0,0,0,0,0,0,0
4,49999,73,40000,65,0,0,9999,0.100000,0,0,0.000000,4,0.000000,0.000000,0.194698,0,0,0,0,0,0,0
4,49999,74,40000,56,10000,0,9999,0.100000,0,0,0.000000,4,0.000000,0.000000,0.989182,0,0,0,0,0,0,0
4,49999,75,40000,50,20000,0,9999,0.100000,0,0,0.000000,4,0.000000,0.000000,0.242189,0,0,0,0,0,0,0
4,49999,76,40000,65,0,0,9999,0.100000,0,0,0.000000,4,0.000000,0.000000,0.232367,0,0,0,0,0,0,0
4,49999,77,40000,44,10000,0,9999,0.100000,0,0,0.000000,4,0.000000,0.000000,0.261603,0,0,0,0,0,0,0
4,49999,78,40000,44,10000,0,9999,0.100000,0,0,0.000000,4,0.000000,0.000000,0.122652,0,0,0,0,0,0,0
4,49999,79,40000,44,10000,0,9999,0.100000,0,0,0.000000,4,0.000000,0.000000,0.625214,0,0,0,0,0,0,0
4,49999,80,40000,50,20000,0,9999,0.100000,0,0,0.000000,4,0.000000,0.000000,0.419851,0,0,0,0,0,0,0
4,49999,81,40000,65,0,0,9999,0.100000,0,0,0.000000,4,0.000000,0.000000,0.128187,0,0,0,0,0,0,0
4,49999,82,40000,65,0,0,9999,0.100000,0,0,0.000000,4,0.000000,0.000000,0.301471,0,0,0,0,0,0,0
4,49999,83,40000,56,10000,0,9999,0.100000,0,0,0.000000,4,0.000000,0.000000,2.184754,0,0,0,0,0,0,0
4,49999,84,40000,65,0,0,9999,0.100000,0,0,0.000000,4,0.000000,0.000000,21.188627,0,0,0,0,0,0,0
4,49999,85,40000,65,0,0,9999,0.100000,0,0,0.000000,4,0.000000,0.000000,0.132038,0,0,0,0,0,0,0
4,49999,86,40000,56,10000,0,9999,0.100000,0,0,0.000000,4,0.000000,0.000000,0.219774,0,0,0,0,0,0,0
4,49999,87,40000,56,10000,0,9999,0.100000,0,0,0.000000,4,0.000000,0.000000,0.498395,0,0,0,0,0,0,0
4,49999,88,40000,44,10000,0,9999,0.100000,0,0,0.000000,4,0.000000,0.000000,0.081165,0,0,0,0,0,0,0
4,49999,89,40000,50,20000,0,9999,0.100000,0,0,0.000000,4,0.000000,0.000000,0.116588,0,0,0,0,0,0,0
4,49999,90,40000,56,10000,0,9999,0.100000,0,0,0.000000,4,0.000000,0.000000,0.161311,0,0,0,0,0,0,0
4,49999,91,40000,65,0,0,9999,0.100000,0,0,0.000000,4,0.000000,0.000000,1.753124,0,0,0,0,0,0,0
4,49999,92,40000,50,20000,0,9999,0.100000,0,0,0.000000,4,0.000000,0.000000,0.823113,0,0,0,0,0,0,0
4,49999,93,40000,56,10000,1,9999,0.100000,0,0,0.000000,4,1.000000,0.000000,8.715037,0,0,0,0,0,0,0
4,49999,94,40000,50,20000,0,9999,0.100000,0,0,0.000000,4,0.000000,0.000000,0.078608,0,0,0,0,0,0,0
4,49999,95,40000,44,10000,1,9999,0.100000,0,0,0.000000,4,2.000000,0.000000,7.713557,0,0,0,0,0,0,0
4,49999,96,40000,44,10000,0,9999,0.100000,0,0,0.000000,4,0.000000,0.000000,0.115847,0,0,0,0,0,0,0
4,49999,97,40000,44,10000,1,9999,0.100000,0,0,0.000000,4,9.000000,0.000000,18.463953,0,0,0,0,0,0,0
4,49999,98,40000,56,10000,1,9999,0.100000,0,0,0.000000,4,1.000000,0.000000,8.725911,0,0,0,0,0,0,0
4,49999,99,40000,65,0,0,9999,0.100000,0,0,0.000000,4,0.000000,0.000000,5.138375,0,0,0,70,0,0,0
5,59999,0,50000,44,10000,0,9999,0.100000,0,0,0.000000,4,0.000000,0.000000,0.986953,0,0,0,0,0,0,0
5,59999,1,50000,56,10000,0,9999,0.100000,0,0,0.000000,4,0.000000,0.000000,3.175943,0,0,0,0,0,0,0
5,59999,2,50000,65,0,0,9999,0.100000,0,0,0.000000,4,0.000000,0.000000,0.366526,0,0,0,0,0,0,0
5,59999,3,50000,44,10000,0,9999,0.100000,0,0,0.000000,4,0.000000,0.000000,0.397558,0,0,0,0,0,0,0
5,59999,4,50000,44,10000,0,9999,0.100000,0,0,0.000000,4,0.000000,0.000000,0.130969,0,0,0,0,0,0,0
5,59999,5,50000,50,20000,0,9999,0.100000,0,0,0.000000,4,0.000000,0.000000,0.091855,0,0,0,0,0,0,0
5,59999,6,50000,56,10000,0,9999,0.100000,0,0,0.000000,4,0.000000,0.000000,0.539594,0,0,0,0,0,0,0
5,59999,7,50000,56,10000,1,9999,0.100000,0,0,0.000000,4,4.000000,0.000000,17.449521,0,0,0,0,0,0,0
5,59999,8,50000,44,10000,0,9999,0.100000,0,0,0.000000,4,0.000000,0.000000,2.325983,0,0,0,0,0,0,0
5,59999,9,50000,50,20000,0,9999,0.100000,0,0,0.000000,4,0.000000,0.000000,0.175413,0,0,0,0,0,0,0
5,59999,10,50000,56,10000,0,9999,0.100000,0,0,0.000000,4,0.000000,0.000000,0.522301,0,0,0,0,0,0,0
5,59999,11,50000,65,0,0,9999,0.100000,0,0,0.000000,4,0.000000,0.000000,1.011269,0,0,0,0,0,0,0
5,59999,12,50000,50,20000,0,9999,0.100000,0,0,0.000000,4,0.000000,0.000000,0.253171,0,0,0,0,0,0,0
5,59999,13,50000,56,10000,0,9999,0.100000,0,0,0.000000,4,0.000000,0.000000,0.080628,0,0,0,0,0,0,0
5,59999,14,50000,44,10000,1,9999,0.100000,0,0,0.000000,4,5.000000,0.000000,10.599442,0,0,0,0,0,0,0
5,59999,15,50000,56,10000,0,9999,0.100000,0,0,0.000000,4,0.000000,0.000000,4.752840,0,0,0,0,0,0,0
5,59999,16,50000,50,20000,0,9999,0.100000,0,0,0.000000,4,0.000000,0.000000,0.086956,0,0,0,0,0,0,0
5,59999,17,50000,65,0,0,9999,0.100000,0,0,0.000000,4,0.000000,0.000000,0.423360,0,0,0,0,0,0,0
5,59999,18,50000,65,0,0,9999,0.100000,0,0,0.000000,4,0.000000,0.000000,0.861638,0,0,0,0,0,0,0
5,59999,19,50000,44,10000,0,9999,0.100000,0,0,0.000000,4,0.000000,0.000000,0.563200,0,0,0,0,0,0,0
5,59999,20,50000,50,20000,0,9999,0.100000,0,0,0.000000,4,0.000000,0.000000,6.829344,0,0,0,0,0,0,0
5,59999,21,50000,65,0,0,9999,0.100000,0,0,0.000000,4,0.000000,0.000000,0.328827,0,0,0,0,0,0,0
5,59999,22,50000,65,0,0,9999,0.100000,0,0,0.000000,4,0.000000,0.000000,0.503170,0,0,0,0,0,0,0
5,59999,23,50000,65,0,0,9999,0.100000,0,0,0.000000,4,0.000000,0.000000,0.103112,0,0,0,0,0,0,0
5,59999,24,50000,65,0,0,9999,0.100000,0,0,0.000000,4,0.000000,0.000000,0.168129,0,0,0,0,0,0,0
5,59999,25,50000,44,10000,0,9999,0.100000,0,0,0.000000,4,0.000000,0.000000,0.764700,0,0,0,0,0,0,0
5,59999,26,50000,56,10000,0,9999,0.100000,0,0,0.000000,4,0.000000,0.000000,0.187385,0,0,0,0,0,0,0
5,59999,27,50000,50,20000,0,9999,0.100000,0,0,0.000000,4,0.000000,0.000000,0.650058,0,0,0,0,0,0,0
5,59999,28,50000,65,0,0,9999,0.100000,0,0,0.000000,4,0.000000,0.000000,0.425714,0,0,0,0,0,0,0
5,59999,29,50000,65,0,0,9999,0.100000,0,0,0.000000,4,0.000000,0.000000,3.073776,0,0,0,0,0,0,0
5,59999,30,50000,56,10000,0,9999,0.100000,0,0,0.000000,4,0.000000,0.000000,0.336298,0,0,0,0,0,0,0
5,59999,31,50000,44,10000,0,9999,0.100000,0,0,0.000000,4,0.000000,0.000000,0.113104,0,0,0,0,0,0,0
5,59999,32,50000,50,20000,0,9999,0.100000,0,0,0.000000,4,0.000000,0.000000,0.540537,0,0,0,0,0,0,0
5,59999,33,50000,50,20000,0,9999,0.100000,0,0,0.000000,4,0.000000,0.000000,0.177733,0,0,0,0,0,0,0
5,59999,34,50000,44,10000,0,9999,0.100000,0,0,0.000000,4,0.000000,0.000000,23.640346,0,0,0,0,0,0,0
5,59999,35,50000,56,10000,0,9999,0.100000,0,0,0.000000,4,0.000000,0.000000,1.525895,0,0,0,0,0,0,0
5,59999,36,50000,50,20000,0,9999,0.100000,0,0,0.000000,4,0.000000,0.000000,1.890768,0,0,0,0,0,0,0
5,59999,37,50000,65,0,0,9999,0.100000,0,0,0.000000,4,0.000000,0.000000,2.555580,0,0,0,0,0,0,0
5,59999,38,50000,50,20000,0,9999,0.100000,0,0,0.000000,4,0.000000,0.000000,0.540408,0,0,0,0,0,0,0
5,59999,39,50000,44,10000,0,9999,0.100000,0,0,0.000000,4,0.000000,0.000000,0.218928,0,0,0,0,0,0,0
5,59999,40,50000,44,10000,0,9999,0.100000,0,0,0.000000,4,0.000000,0.000000,2.331938,0,0,0,0,0,0,0
5,59999,41,50000,56,10000,1,9999,0.100000,0,0,0.000000,4,1.000000,0.000000,11.891663,0,0,0,0,0,0,0
5,59999,42,50000,44,10000,0,9999,0.100000,0,0,0.000000,4,0.000000,0.000000,0.120350,0,0,0,0,0,0,0
5,59999,43,50000,44,10000,0,9999,0.100000,0,0,0.000000,4,0.000000,0.000000,0.091385,0,0,0,0,0,0,0
5,59999,44,50000,56,10000,0,9999,0.100000,0,0,0.000000,4,0.000000,0.000000,0.623860,0,0,0,0,0,0,0
5,59999,45,50000,65,0,0,9999,0.100000,0,0,0.000000,4,0.000000,0.000000,0.166264,0,0,0,0,0,0,0
5,59999,46,50000,65,0,0,9999,0.100000,0,0,0.000000,4,0.000000,0.000000,0.110680,0,0,0,0,0,0,0
5,59999,47,50000,44,10000,1,9999,0.100000,0,0,0.000000,4,1.000000,0.000000,5.731260,0,0,0,0,0,0,0
5,59999,48,50000,65,0,0,9999,0.100000,0,0,0.000000,4,0.000000,0.000000,0.345216,0,0,0,0,0,0,0
5,59999,49,50000,56,10000,0,9999,0.100000,0,0,0.000000,4,0.000000,0.000000,0.258925,0,0,0,0,0,0,0
5,59999,50,50000,50,20000,0,9999,0.100000,0,0,0.000000,4,0.000000,0.000000,0.128547,0,0,0,0,0,0,0
5,59999,51,50000,56,10000,0,9999,0.100000,0,0,0.000000,4,0.000000,0.000000,0.227734,0,0,0,0,0,0,0
5,59999,52,50000,65,0,0,9999,0.100000,0,0,0.000000,4,0.000000,0.000000,0.387772,0,0,0,0,0,0,0
5,59999,53,50000,44,10000,0,9999,0.100000,0,0,0.000000,4,0.000000,0.000000,0.702412,0,0,0,0,0,0,0
5,59999,54,50000,44,10000,0,9999,0.100000,0,0,0.000000,4,0.000000,0.000000,0.126835,0,0,0,0,0,0,0
5,59999,55,50000,44,10000,0,9999,0.100000,0,0,0.000000,4,0.000000,0.000000,0.532806,0,0,0,0,0,0,0
5,59999,56,50000,50,20000,1,9999,0.100000,0,0,0.000000,4,1.000000,0.000000,3.099767,0,0,0,0,0,0,0
5,59999,57,50000,56,10000,0,9999,0.100000,0,0,0.000000,4,0.000000,0.000000,23.964663,0,0,0,0,0,0,0
5,59999,58,50000,56,10000,0,9999,0.100000,0,0,0.000000,4,0.000000,0.000000,0.207654,0,0,0,0,0,0,0
5,59999,59,50000,65,0,0,9999,0.100000,0,0,0.000000,4,0.000000,0.000000,0.101461,0,0,0,0,0,0,0
5,59999,60,50000,56,10000,0,9999,0.100000,0,0,0.000000,4,0.000000,0.000000,1.616402,0,0,0,0,0,0,0
5,59999,61,50000,50,20000,0,9999,0.100000,0,0,0.000000,4,0.000000,0.000000,0.860365,0,0,0,0,0,0,0
5,59999,62,50000,44,10000,0,9999,0.100000,0,0,0.000000,4,0.000000,0.000000,0.487299,0,0,0,0,0,0,0
5,59999,63,50000,56,10000,0,9999,0.100000,0,0,0.000000,4,0.000000,0.000000,0.082553,0,0,0,0,0,0,0
5,59999,64,50000,50,20000,0,9999,0.100000,0,0,0.000000,4,0.000000,0.000000,2.513506,0,0,0,0,0,0,0
5,59999,65,50000,50,20000,0,9999,0.100000,0,0,0.000000,4,0.000000,0.000000,0.219392,0,0,0,0,0,0,0
5,59999,66,50000,50,20000,0,9999,0.100000,0,0,0.000000,4,0.000000,0.000000,1.405094,0,0,0,0,0,0,0
5,59999,67,50000,56,10000,0,9999,0.100000,0,0,0.000000,4,0.000000,0.000000,0.116547,0,0,0,0,0,0,0
5,59999,68,50000,50,20000,0,9999,0.100000,0,0,0.000000,4,0.000000,0.000000,0.909521,0,0,0,0,0,0,0
5,59999,69,50000,50,20000,0,9999,0.100000,0,0,0.000000,4,0.000000,0.000000,3.214939,0,0,0,0,0,0,0
5,59999,70,50000,44,10000,0,9999,0.100000,0,0,0.000000,4,0.000000,0.000000,0.487154,0,0,0,0,0,0,0
5,59999,71,50000,44,10000,0,9999,0.100000,0,0,0.000000,4,0.000000,0.000000,0.152553,0,0,0,0,0,0,0
5,59999,72,50000,44,10000,1,9999,0.100000,0,0,0.000000,4,3.000000,0.000000,6.986645,0,0,0,0,0,0,0
5,59999,73,50000,44,10000,0,9999,0.100000,0,0,0.000000,4,0.000000,0.000000,0.153195,0,0,0,0,0,0,0
5,59999,74,50000,56,10000,0,9999,0.100000,0,0,0.000000,4,0.000000,0.000000,1.367453,0,0,0,0,0,0,0
5,59999,75,50000,65,0,0,9999,0.100000,0,0,0.000000,4,0.000000,0.000000,0.525405,0,0,0,0,0,0,0
5,59999,76,50000,65,0,0,9999,0.100000,0,0,0.000000,4,0.000000,0.000000,0.124643,0,0,0,0,0,0,0
5,59999,77,50000,65,0,0,9999,0.100000,0,0,0.000000,4,0.000000,0.000000,0.161602,0,0,0,0,0,0,0
5,59999,78,50000,44,10000,0,9999,0.100000,0,0,0.000000,4,0.000000,0.000000,0.115117,0,0,0,0,0,0,0
5,59999,79,50000,44,10000,0,9999,0.100000,0,0,0.000000,4,0.000000,0.000000,19.111731,0,0,0,0,0,0,0
5,59999,80,50000,56,10000,0,9999,0.100000,0,0,0.000000,4,0.000000,0.000000,0.475759,0,0,0,0,0,0,0
5,59999,81,50000,65,0,0,9999,0.100000,0,0,0.000000,4,0.000000,0.000000,0.166554,0,0,0,0,0,0,0
5,59999,82,50000,65,0,0,9999,0.100000,0,0,0.000000,4,0.000000,0.000000,0.345174,0,0,0,0,0,0,0
5,59999,83,50000,56,10000,1,9999,0.100000,0,0,0.000000,4,1.000000,0.000000,10.411054,0,0,0,0,0,0,0
5,59999,84,50000,56,10000,0,9999,0.100000,0,0,0.000000,4,0.000000,0.000000,16.072709,0,0,0,0,0,0,0
5,59999,85,50000,50,20000,0,9999,0.100000,0,0,0.000000,4,0.000000,0.000000,0.132306,0,0,0,0,0,0,0
5,59999,86,50000,56,10000,0,9999,0.100000,0,0,0.000000,4,0.000000,0.000000,0.208184,0,0,0,0,0,0,0
5,59999,87,50000,65,0,1,9999,0.100000,0,0,0.000000,4,5.000000,0.000000,8.647994,0,0,0,0,0,0,0
5,59999,88,50000,44,10000,1,9999,0.100000,0,0,0.000000,4,7.000000,0.000000,15.559811,0,0,0,0,0,0,0
5,59999,89,50000,65,0,0,9999,0.100000,0,0,0.000000,4,0.000000,0.000000,0.386106,0,0,0,0,0,0,0
5,59999,90,50000,56,10000,0,9999,0.100000,0,0,0.000000,4,0.000000,0.000000,0.259923,0,0,0,0,0,0,0
5,59999,91,50000,44,10000,0,9999,0.135000,0,0,0.000000,4,0.000000,0.000000,1.729716,0,0,0,0,0,0,0
5,59999,92,50000,44,10000,0,9999,0.100000,0,0,0.000000,4,0.000000,0.000000,0.191038,0,0,0,0,0,0,0
5,59999,93,50000,44,10000,1,9999,0.100000,0,0,0.000000,4,1.000000,0.000000,8.029137,0,0,0,0,0,0,0
5,59999,94,50000,44,10000,0,9999,0.100000,0,0,0.000000,4,0.000000,0.000000,0.072967,0,0,0,0,0,0,0
5,59999,95,50000,56,10000,1,9999,0.100000,0,0,0.000000,4,1.000000,0.000000,10.395836,0,0,0,0,0,0,0
5,59999,96,50000,65,0,0,9999,0.100000,0,0,0.000000,4,0.000000,0.000000,1.305562,0,0,0,0,0,0,0
5,59999,97,50000,65,0,0,9999,0.100000,0,0,0.000000,4,0.000000,0.000000,0.087691,0,0,0,0,0,0,0
5,59999,98,50000,50,20000,1,9999,0.100000,0,0,0.000000,4,1.000000,0.000000,9.277557,0,0,0,0,0,0,0
5,59999,99,50000,44,10000,1,9999,0.100000,0,0,0.000000,4,1.000000,0.000000,7.787895,0,0,0,0,0,0,0
6,69999,0,60000,56,10000,0,9999,0.100000,0,0,0.000000,4,0.000000,0.000000,0.942411,0,0,0,0,0,0,0
6,69999,1,60000,44,10000,0,9999,0.100000,0,0,0.000000,4,0.000000,0.000000,4.518793,0,0,0,0,0,0,0
6,69999,2,60000,44,10000,0,9999,0.100000,0,0,0.000000,4,0.000000,0.000000,0.459165,0,0,0,0,0,0,0
6,69999,3,60000,65,0,0,9999,0.100000,0,0,0.000000,4,0.000000,0.000000,1.066288,0,0,0,0,0,0,0
6,69999,4,60000,56,10000,0,9999,0.100000,0,0,0.000000,4,0.000000,0.000000,0.111641,0,0,0,0,0,0,0
6,69999,5,60000,44,10000,0,9999,0.100000,0,0,0.000000,4,0.000000,0.000000,0.104728,0,0,0,0,0,0,0
6,69999,6,60000,56,10000,0,9999,0.100000,0,0,0.000000,4,0.000000,0.000000,0.556389,0,0,0,0,0,0,0
6,69999,7,60000,65,0,1,9999,0.100000,0,0,0.000000,4,4.000000,0.000000,13.067836,0,0,0,0,0,0,0
6,69999,8,60000,56,10000,0,9999,0.100000,0,0,0.000000,4,0.000000,0.000000,0.266897,0,0,0,0,0,0,0
6,69999,9,60000,44,10000,0,9999,0.100000,0,0,0.000000,4,0.000000,0.000000,0.176592,0,0,0,0,0,0,0
6,69999,10,60000,56,10000,0,9999,0.100000,0,0,0.000000,4,0.000000,0.000000,0.307095,0,0,0,0,0,0,0
6,69999,11,60000,65,0,0,9999,0.100000,0,0,0.000000,4,0.000000,0.000000,1.143165,0,0,0,0,0,0,0
6,69999,12,60000,65,0,0,9999,0.100000,0,0,0.000000,4,0.000000,0.000000,0.178411,0,0,0,0,0,0,0
6,69999,13,60000,65,0,0,9999,0.100000,0,0,0.000000,4,0.000000,0.000000,0.083470,0,0,0,0,0,0,0
6,69999,14,60000,44,10000,0,9999,0.100000,0,0,0.000000,4,0.000000,0.000000,11.189346,0,0,0,0,0,0,0
6,69999,15,60000,50,20000,0,9999,0.100000,0,0,0.000000,4,0.000000,0.000000,3.470143,0,0,0,0,0,0,0
6,69999,16,60000,56,10000,0,9999,0.100000,0,0,0.000000,4,0.000000,0.000000,0.084234,0,0,0,0,0,0,0
6,69999,17,60000,56,10000,0,9999,0.100000,0,0,0.000000,4,0.000000,0.000000,0.535511,0,0,0,0,0,0,0
6,69999,18,60000,44,10000,0,9999,0.100000,0,0,0.000000,4,0.000000,0.000000,1.227402,0,0,0,0,0,0,0
6,69999,19,60000,44,10000,0,9999,0.100000,0,0,0.000000,4,0.000000,0.000000,0.447363,0,0,0,0,0,0,0
6,69999,20,60000,50,20000,0,9999,0.100000,0,0,0.000000,4,0.000000,0.000000,5.078698,0,0,0,0,0,0,0
6,69999,21,60000,65,0,0,9999,0.100000,0,0,0.000000,4,0.000000,0.000000,0.654500,0,0,0,0,0,0,0
6,69999,22,60000,50,20000,0,9999,0.100000,0,0,0.000000,4,0.000000,0.000000,0.226287,0,0,0,0,0,0,0
6,69999,23,60000,56,10000,0,9999,0.100000,0,0,0.000000,4,0.000000,0.000000,0.193972,0,0,0,0,0,0,0
6,69999,24,60000,44,10000,1,9999,0.100000,0,0,0.000000,4,9.000000,0.000000,18.445970,0,0,0,0,0,0,0
6,69999,25,60000,56,10000,0,9999,0.100000,0,0,0.000000,4,0.000000,0.000000,1.015699,0,0,0,0,0,0,0
6,69999,26,60000,44,10000,0,9999,0.100000,0,0,0.000000,4,0.000000,0.000000,0.158368,0,0,0,0,0,0,0
6,69999,27,60000,44,10000,0,9999,0.100000,0,0,0.000000,4,0.000000,0.000000,0.553217,0,0,0,0,0,0,0
6,69999,28,60000,44,10000,0,9999,0.100000,0,0,0.000000,4,0.000000,0.000000,0.596811,0,0,0,0,0,0,0
6,69999,29,60000,65,0,1,9999,0.100000,0,0,0.000000,4,2.000000,0.000000,5.025608,0,0,0,0,0,0,0
6,69999,30,60000,65,0,0,9999,0.100000,0,0,0.000000,4,0.000000,0.000000,0.257281,0,0,0,0,0,0,0
6,69999,31,60000,56,10000,0,9999,0.100000,0,0,0.000000,4,0.000000,0.000000,0.098258,0,0,0,0,0,0,0
6,69999,32,60000,56,10000,0,9999,0.100000,0,0,0.000000,4,0.000000,0.000000,0.662226,0,0,0,0,0,0,0
6,69999,33,60000,65,0,0,9999,0.100000,0,0,0.000000,4,0.000000,0.000000,0.171840,0,0,0,0,0,0,0
6,69999,34,60000,65,0,0,9999,0.100000,0,0,0.000000,4,0.000000,0.000000,23.778640,0,0,0,0,0,0,0
6,69999,35,60000,44,10000,0,9999,0.100000,0,0,0.000000,4,0.000000,0.000000,0.346943,0,0,0,0,0,0,0
6,69999,36,60000,56,10000,0,9999,0.100000,0,0,0.000000,4,0.000000,0.000000,0.267064,0,0,0,0,0,0,0
6,69999,37,60000,50,20000,0,9999,0.100000,0,0,0.000000,4,0.000000,0.000000,4.055453,0,0,0,0,0,0,0
6,69999,38,60000,65,0,0,9999,0.100000,0,0,0.000000,4,0.000000,0.000000,0.636994,0,0,0,0,0,0,0
6,69999,39,60000,65,0,0,9999,0.100000,0,0,0.000000,4,0.000000,0.000000,0.140073,0,0,0,0,0,0,0
6,69999,40,60000,44,10000,0,9999,0.100000,0,0,0.000000,4,0.000000,0.000000,0.888833,0,0,0,0,0,0,0
6,69999,41,60000,65,0,1,9999,0.100000,0,0,0.000000,4,3.000000,0.000000,13.641527,0,0,0,0,0,0,0
6,69999,42,60000,65,0,0,9999,0.100000,0,0,0.000000,4,0.000000,0.000000,0.121749,0,0,0,0,0,0,0
6,69999,43,60000,65,0,0,9999,0.100000,0,0,0.000000,4,0.000000,0.000000,0.090019,0,0,0,0,0,0,0
6,69999,44,60000,56,10000,0,9999,0.100000,0,0,0.000000,4,0.000000,0.000000,0.158856,0,0,0,0,0,0,0
6,69999,45,60000,44,10000,0,9999,0.100000,0,0,0.000000,4,0.000000,0.000000,0.162472,0,0,0,0,0,0,0
6,69999,46,60000,65,0,0,9999,0.100000,0,0,0.000000,4,0.000000,0.000000,0.117703,0,0,0,0,0,0,0
6,69999,47,60000,65,0,0,9999,0.100000,0,0,0.000000,4,0.000000,0.000000,0.258677,0,0,0,0,0,0,0
6,69999,48,60000,50,20000,0,9999,0.100000,0,0,0.000000,4,0.000000,0.000000,0.334052,0,0,0,0,0,0,0
6,69999,49,60000,50,20000,0,9999,0.100000,0,0,0.000000,4,0.000000,0.000000,0.338070,0,0,0,0,0,0,0
6,69999,50,60000,50,20000,0,9999,0.100000,0,0,0.000000,4,0.000000,0.000000,0.149057,0,0,0,0,0,0,0
6,69999,51,60000,50,20000,0,9999,0.100000,0,0,0.000000,4,0.000000,0.000000,0.231358,0,0,0,0,0,0,0
6,69999,52,60000,65,0,0,9999,0.100000,0,0,0.000000,4,0.000000,0.000000,0.381073,0,0,0,0,0,0,0
6,69999,53,60000,44,10000,0,9999,0.100000,0,0,0.000000,4,0.000000,0.000000,0.242664,0,0,0,0,0,0,0
6,69999,54,60000,56,10000,0,9999,0.100000,0,0,0.000000,4,0.000000,0.000000,0.127429,0,0,0,0,0,0,0
6,69999,55,60000,44,10000,0,9999,0.100000,0,0,0.000000,4,0.000000,0.000000,0.624969,0,0,0,0,0,0,0
6,69999,56,60000,50,20000,0,9999,0.100000,0,0,0.000000,4,0.000000,0.000000,0.449602,0,0,0,0,0,0,0
6,69999,57,60000,56,10000,0,9999,0.100000,0,0,0.000000,4,0.000000,0.000000,24.356168,0,0,0,0,0,0,0
6,69999,58,60000,56,10000,0,9999,0.100000,0,0,0.000000,4,0.000000,0.000000,0.207467,0,0,0,0,0,0,0
6,69999,59,60000,44,10000,0,9999,0.065000,0,0,0.000000,4,0.000000,0.000000,0.096830,0,0,0,0,0,0,0
6,69999,60,60000,56,10000,0,9999,0.100000,0,0,0.000000,4,0.000000,0.000000,7.741963,0,0,0,0,0,0,0
6,69999,61,60000,44,10000,0,9999,0.135000,0,0,0.000000,4,0.000000,0.000000,1.392229,0,0,0,0,0,0,0
6,69999,62,60000,44,10000,0,9999,0.100000,0,0,0.000000,4,0.000000,0.000000,0.496368,0,0,0,0,0,0,0
6,69999,63,60000,44,10000,0,9999,0.100000,0,0,0.000000,4,0.000000,0.000000,0.135340,0,0,0,0,0,0,0
6,69999,64,60000,56,10000,0,9999,0.100000,0,0,0.000000,4,0.000000,0.000000,0.303955,0,0,0,0,0,0,0
6,69999,65,60000,56,10000,0,9999,0.100000,0,0,0.000000,4,0.000000,0.000000,0.585248,0,0,0,0,0,0,0
6,69999,66,60000,50,20000,0,9999,0.100000,0,0,0.000000,4,0.000000,0.000000,0.923951,0,0,0,0,0,0,0
6,69999,67,60000,44,10000,0,9999,0.100000,0,0,0.000000,4,0.000000,0.000000,0.106093,0,0,0,0,0,0,0
6,69999,68,60000,65,0,0,9999,0.100000,0,0,0.000000,4,0.000000,0.000000,0.442899,0,0,0,0,0,0,0
6,69999,69,60000,44,10000,1,9999,0.100000,0,0,0.000000,4,3.000000,0.000000,10.949012,0,0,0,0,0,0,0
6,69999,70,60000,65,0,0,9999,0.100000,0,0,0.000000,4,0.000000,0.000000,0.418244,0,0,0,0,0,0,0
6,69999,71,60000,44,10000,0,9999,0.100000,0,0,0.000000,4,0.000000,0.000000,0.136016,0,0,0,0,0,0,0
6,69999,72,60000,56,10000,0,9999,0.100000,0,0,0.000000,4,0.000000,0.000000,1.088316,0,0,0,0,0,0,0
6,69999,73,60000,50,20000,0,9999,0.100000,0,0,0.000000,4,0.000000,0.000000,0.133053,0,0,0,0,0,0,0
6,69999,74,60000,56,10000,0,9999,0.100000,0,0,0.000000,4,0.000000,0.000000,0.490339,0,0,0,0,0,0,0
6,69999,75,60000,50,20000,0,9999,0.100000,0,0,0.000000,4,0.000000,0.000000,0.630953,0,0,0,0,0,0,0
6,69999,76,60000,65,0,0,9999,0.100000,0,0,0.000000,4,0.000000,0.000000,0.140776,0,0,0,0,0,0,0
6,69999,77,60000,50,20000,0,9999,0.100000,0,0,0.000000,4,0.000000,0.000000,0.141203,0,0,0,0,0,0,0
6,69999,78,60000,56,10000,0,9999,0.100000,0,0,0.000000,4,0.000000,0.000000,0.124114,0,0,0,0,0,0,0
6,69999,79,60000,44,10000,0,9999,0.100000,0,0,0.000000,4,0.000000,0.000000,13.138267,0,0,0,0,0,0,0
6,69999,80,60000,56,10000,0,9999,0.100000,0,0,0.000000,4,0.000000,0.000000,0.782329,0,0,0,0,0,0,0
6,69999,81,60000,44,10000,0,9999,0.100000,0,0,0.000000,4,0.000000,0.000000,0.168127,0,0,0,0,0,0,0
6,69999,82,60000,44,10000,0,9999,0.100000,0,0,0.000000,4,0.000000,0.000000,0.332495,0,0,0,0,0,0,0
6,69999,83,60000,50,20000,0,9999,0.100000,0,0,0.000000,4,0.000000,0.000000,2.587861,0,0,0,0,0,0,0
6,69999,84,60000,65,0,0,9999,0.100000,0,0,0.000000,4,0.000000,0.000000,0.104823,0,0,0,0,0,0,0
6,69999,85,60000,44,10000,0,9999,0.100000,0,0,0.000000,4,0.000000,0.000000,0.124553,0,0,0,0,0,0,0
6,69999,86,60000,65,0,0,9999,0.100000,0,0,0.000000,4,0.000000,0.000000,0.389146,0,0,0,0,0,0,0
6,69999,87,60000,65,0,0,9999,0.100000,0,0,0.000000,4,0.000000,0.000000,0.826636,0,0,0,0,0,0,0
6,69999,88,60000,44,10000,0,9999,0.100000,0,0,0.000000,4,0.000000,0.000000,0.090417,0,0,0,0,0,0,0
6,69999,89,60000,44,10000,0,9999,0.100000,0,0,0.000000,4,0.000000,0.000000,0.723979,0,0,0,0,0,0,0
6,69999,90,60000,65,0,0,9999,0.065000,0,0,0.000000,4,0.000000,0.000000,0.463184,0,0,0,0,0,0,0
6,69999,91,60000,56,10000,0,9999,0.100000,0,0,0.000000,4,0.000000,0.000000,0.149155,0,0,0,0,0,0,0
6,69999,92,60000,44,10000,0,9999,0.100000,0,0,0.000000,4,0.000000,0.000000,0.175937,0,0,0,0,0,0,0
6,69999,93,60000,50,20000,1,9999,0.100000,0,0,0.000000,4,1.000000,0.000000,6.572973,0,0,0,0,0,0,0
6,69999,94,60000,50,20000,0,9999,0.100000,0,0,0.000000,4,0.000000,0.000000,0.082710,0,0,0,0,0,0,0
6,69999,95,60000,50,20000,0,9999,0.100000,0,0,0.000000,4,0.000000,0.000000,6.221636,0,0,0,0,0,0,0
6,69999,96,60000,65,0,0,9999,0.100000,0,0,0.000000,4,0.000000,0.000000,1.079323,0,0,0,0,0,0,0
6,69999,97,60000,65,0,1,9999,0.100000,0,0,0.000000,4,9.000000,0.000000,18.461815,0,0,0,0,0,0,0
6,69999,98,60000,50,20000,1,9999,0.100000,0,0,0.000000,4,2.000000,0.000000,10.768112,0,0,0,0,0,0,0
6,69999,99,60000,44,10000,1,9999,0.100000,0,0,0.000000,4,1.000000,0.000000,7.863106,0,0,0,0,0,0,0
7,79999,0,70000,50,20000,0,9999,0.100000,0,0,0.000000,4,0.000000,0.000000,0.939092,0,0,0,0,0,0,0
7,79999,1,70000,44,10000,0,9999,0.100000,0,0,0.000000,4,0.000000,0.000000,3.904758,0,0,0,0,0,0,0
7,79999,2,70000,44,10000,0,9999,0.100000,0,0,0.000000,4,0.000000,0.000000,0.571096,0,0,0,0,0,0,0
7,79999,3,70000,44,10000,0,9999,0.100000,0,0,0.000000,4,0.000000,0.000000,2.218315,0,0,0,0,0,0,0
7,79999,4,70000,65,0,0,9999,0.100000,0,0,0.000000,4,0.000000,0.000000,0.192551,0,0,0,0,0,0,0
7,79999,5,70000,50,20000,0,9999,0.100000,0,0,0.000000,4,0.000000,0.000000,0.110529,0,0,0,0,0,0,0
7,79999,6,70000,65,0,0,9999,0.100000,0,0,0.000000,4,0.000000,0.000000,0.579170,0,0,0,0,0,0,0
7,79999,7,70000,65,0,1,9999,0.100000,0,0,0.000000,4,1.000000,0.000000,2.783562,0,0,0,0,0,0,0
7,79999,8,70000,50,20000,0,9999,0.100000,0,0,0.000000,4,0.000000,0.000000,0.861584,0,0,0,0,0,0,0
7,79999,9,70000,65,0,0,9999,0.100000,0,0,0.000000,4,0.000000,0.000000,0.173480,0,0,0,0,0,0,0
7,79999,10,70000,65,0,0,9999,0.100000,0,0,0.000000,4,0.000000,0.000000,0.185818,0,0,0,0,0,0,0
7,79999,11,70000,44,10000,0,9999,0.100000,0,0,0.000000,4,0.000000,0.000000,1.458952,0,0,0,0,0,0,0
7,79999,12,70000,56,10000,0,9999,0.100000,0,0,0.000000,4,0.000000,0.000000,0.147850,0,0,0,0,0,0,0
7,79999,13,70000,50,20000,0,9999,0.100000,0,0,0.000000,4,0.000000,0.000000,0.086852,0,0,0,0,0,0,0
7,79999,14,70000,44,10000,0,9999,0.100000,0,0,0.000000,4,0.000000,0.000000,4.584176,0,0,0,0,0,0,0
7,79999,15,70000,50,20000,1,9999,0.100000,0,0,0.000000,4,1.000000,0.000000,10.962112,0,0,0,0,0,0,0
7,79999,16,70000,65,0,0,9999,0.100000,0,0,0.000000,4,0.000000,0.000000,0.080371,0,0,0,0,0,0,0
7,79999,17,70000,44,10000,0,9999,0.100000,0,0,0.000000,4,0.000000,0.000000,0.233118,0,0,0,0,0,0,0
7,79999,18,70000,56,10000,0,9999,0.100000,0,0,0.000000,4,0.000000,0.000000,0.334505,0,0,0,0,0,0,0
7,79999,19,70000,44,10000,0,9999,0.135000,0,0,0.000000,4,0.000000,0.000000,0.507384,0,0,0,0,0,0,0
7,79999,20,70000,56,10000,0,9999,0.100000,0,0,0.000000,4,0.000000,0.000000,4.830222,0,0,0,0,0,0,0
7,79999,21,70000,65,0,0,9999,0.100000,0,0,0.000000,4,0.000000,0.000000,0.649020,0,0,0,0,0,0,0
7,79999,22,70000,50,20000,0,9999,0.100000,0,0,0.000000,4,0.000000,0.000000,0.203340,0,0,0,0,0,0,0
7,79999,23,70000,56,10000,0,9999,0.100000,0,0,0.000000,4,0.000000,0.000000,0.660033,0,0,0,0,0,0,0
7,79999,24,70000,65,0,0,9999,0.100000,0,0,0.000000,4,0.000000,0.000000,0.172712,0,0,0,0,0,0,0
7,79999,25,70000,44,10000,0,9999,0.100000,0,0,0.000000,4,0.000000,0.000000,0.283729,0,0,0,0,0,0,0
7,79999,26,70000,44,10000,0,9999,0.100000,0,0,0.000000,4,0.000000,0.000000,0.152508,0,0,0,0,0,0,0
7,79999,27,70000,56,10000,0,9999,0.100000,0,0,0.000000,4,0.000000,0.000000,0.564477,0,0,0,0,0,0,0
7,79999,28,70000,44,10000,0,9999,0.100000,0,0,0.000000,4,0.000000,0.000000,1.076117,0,0,0,0,0,0,0
7,79999,29,70000,56,10000,0,9999,0.100000,0,0,0.000000,4,0.000000,0.000000,3.812752,0,0,0,0,0,0,0
7,79999,30,70000,56,10000,0,9999,0.100000,0,0,0.000000,4,0.000000,0.000000,0.151334,0,0,0,0,0,0,0
7,79999,31,70000,50,20000,0,9999,0.100000,0,0,0.000000,4,0.000000,0.000000,0.090242,0,0,0,0,0,0,0
7,79999,32,70000,56,10000,0,9999,0.100000,0,0,0.000000,4,0.000000,0.000000,0.696781,0,0,0,0,0,0,0
7,79999,33,70000,56,10000,0,9999,0.100000,0,0,0.000000,4,0.000000,0.000000,0.178345,0,0,0,0,0,0,0
7,79999,34,70000,56,10000,0,9999,0.100000,0,0,0.000000,4,0.000000,0.000000,23.779455,0,0,0,0,0,0,0
7,79999,35,70000,65,0,0,9999,0.100000,0,0,0.000000,4,0.000000,0.000000,1.028516,0,0,0,0,0,0,0
7,79999,36,70000,65,0,0,9999,0.100000,0,0,0.000000,4,0.000000,0.000000,1.056992,0,0,0,0,0,0,0
7,79999,37,70000,56,10000,0,9999,0.100000,0,0,0.000000,4,0.000000,0.000000,3.977364,0,0,0,0,0,0,0
7,79999,38,70000,56,10000,0,9999,0.100000,0,0,0.000000,4,0.000000,0.000000,0.628263,0,0,0,0,0,0,0
7,79999,39,70000,50,20000,0,9999,0.100000,0,0,0.000000,4,0.000000,0.000000,0.089510,0,0,0,0,0,0,0
7,79999,40,70000,44,10000,0,9999,0.135000,0,0,0.000000,4,0.000000,0.000000,1.092701,0,0,0,0,0,0,0
7,79999,41,70000,44,10000,0,9999,0.100000,0,0,0.000000,4,0.000000,0.000000,1.196729,0,0,0,0,0,0,0
7,79999,42,70000,56,10000,0,9999,0.100000,0,0,0.000000,4,0.000000,0.000000,0.118169,0,0,0,0,0,0,0
7,79999,43,70000,44,10000,0,9999,0.100000,0,0,0.000000,4,0.000000,0.000000,0.076722,0,0,0,0,0,0,0
7,79999,44,70000,65,0,0,9999,0.100000,0,0,0.000000,4,0.000000,0.000000,0.126385,0,0,0,0,0,0,0
7,79999,45,70000,50,20000,0,9999,0.100000,0,0,0.000000,4,0.000000,0.000000,0.153555,0,0,0,0,0,0,0
7,79999,46,70000,50,20000,0,9999,0.100000,0,0,0.000000,4,0.000000,0.000000,0.092511,0,0,0,0,0,0,0
7,79999,47,70000,44,10000,0,9999,0.100000,0,0,0.000000,4,0.000000,0.000000,1.068268,0,0,0,0,0,0,0
7,79999,48,70000,56,10000,0,9999,0.100000,0,0,0.000000,4,0.000000,0.000000,0.362943,0,0,0,0,0,0,0
7,79999,49,70000,65,0,0,9999,0.100000,0,0,0.000000,4,0.000000,0.000000,0.402708,0,0,0,0,0,0,0
7,79999,50,70000,44,10000,0,9999,0.100000,0,0,0.000000,4,0.000000,0.000000,0.131437,0,0,0,0,0,0,0
7,79999,51,70000,56,10000,0,9999,0.100000,0,0,0.000000,4,0.000000,0.000000,0.254608,0,0,0,0,0,0,0
7,79999,52,70000,65,0,0,9999,0.100000,0,0,0.000000,4,0.000000,0.000000,0.406871,0,0,0,0,0,0,0
7,79999,53,70000,44,10000,0,9999,0.100000,0,0,0.000000,4,0.000000,0.000000,0.124928,0,0,0,0,0,0,0
7,79999,54,70000,50,20000,1,9999,0.100000,0,0,0.000000,4,3.000000,0.000000,7.837422,0,0,0,0,0,0,0
7,79999,55,70000,56,10000,1,9999,0.100000,0,0,0.000000,4,5.000000,0.000000,12.500078,0,0,0,0,0,0,0
7,79999,56,70000,56,10000,0,9999,0.100000,0,0,0.000000,4,0.000000,0.000000,0.345638,0,0,0,0,0,0,0
7,79999,57,70000,50,20000,0,9999,0.100000,0,0,0.000000,4,0.000000,0.000000,22.959733,0,0,0,0,0,0,0
7,79999,58,70000,50,20000,0,9999,0.100000,0,0,0.000000,4,0.000000,0.000000,0.199349,0,0,0,0,0,0,0
7,79999,59,70000,65,0,0,9999,0.100000,0,0,0.000000,4,0.000000,0.000000,0.082637,0,0,0,0,0,0,0
7,79999,60,70000,50,20000,1,9999,0.135000,0,0,0.000000,4,1.000000,0.000000,14.881451,0,0,0,0,0,0,0
7,79999,61,70000,44,10000,1,9999,0.100000,0,0,0.000000,4,1.000000,0.000000,3.934387,0,0,0,0,0,0,0
7,79999,62,70000,50,20000,0,9999,0.100000,0,0,0.000000,4,0.000000,0.000000,0.503161,0,0,0,0,0,0,0
7,79999,63,70000,44,10000,0,9999,0.100000,0,0,0.000000,4,0.000000,0.000000,0.910258,0,0,0,0,0,0,0
7,79999,64,70000,44,10000,0,9999,0.100000,0,0,0.000000,4,0.000000,0.000000,0.461621,0,0,0,0,0,0,0
7,79999,65,70000,65,0,0,9999,0.100000,0,0,0.000000,4,0.000000,0.000000,0.937534,0,0,0,0,0,0,0
7,79999,66,70000,44,10000,1,9999,0.100000,0,0,0.000000,4,1.000000,0.000000,7.797068,0,0,0,0,0,0,0
7,79999,67,70000,44,10000,0,9999,0.100000,0,0,0.000000,4,0.000000,0.000000,0.111088,0,0,0,0,0,0,0
7,79999,68,70000,56,10000,0,9999,0.100000,0,0,0.000000,4,0.000000,0.000000,0.472391,0,0,0,0,0,0,0
7,79999,69,70000,44,10000,0,9999,0.100000,0,0,0.000000,4,0.000000,0.000000,1.752287,0,0,0,0,0,0,0
7,79999,70,70000,44,10000,0,9999,0.100000,0,0,0.000000,4,0.000000,0.000000,0.420621,0,0,0,0,0,0,0
7,79999,71,70000,56,10000,0,9999,0.100000,0,0,0.000000,4,0.000000,0.000000,0.118429,0,0,0,0,0,0,0
7,79999,72,70000,56,10000,0,9999,0.100000,0,0,0.000000,4,0.000000,0.000000,1.332145,0,0,0,0,0,0,0
7,79999,73,70000,50,20000,0,9999,0.100000,0,0,0.000000,4,0.000000,0.000000,0.089822,0,0,0,0,0,0,0
7,79999,74,70000,50,20000,0,9999,0.100000,0,0,0.000000,4,0.000000,0.000000,0.301194,0,0,0,0,0,0,0
7,79999,75,70000,44,10000,0,9999,0.100000,0,0,0.000000,4,0.000000,0.000000,0.239848,0,0,0,0,0,0,0
7,79999,76,70000,65,0,0,9999,0.100000,0,0,0.000000,4,0.000000,0.000000,0.827179,0,0,0,0,0,0,0
7,79999,77,70000,44,10000,0,9999,0.100000,0,0,0.000000,4,0.000000,0.000000,1.402041,0,0,0,0,0,0,0
7,79999,78,70000,65,0,0,9999,0.100000,0,0,0.000000,4,0.000000,0.000000,0.162617,0,0,0,0,0,0,0
7,79999,79,70000,44,10000,0,9999,0.100000,0,0,0.000000,4,0.000000,0.000000,21.503792,0,0,0,0,0,0,0
7,79999,80,70000,44,10000,0,9999,0.100000,0,0,0.000000,4,0.000000,0.000000,0.771455,0,0,0,0,0,0,0
7,79999,81,70000,44,10000,0,9999,0.100000,0,0,0.000000,4,0.000000,0.000000,0.212311,0,0,0,0,0,0,0
7,79999,82,70000,65,0,0,9999,0.100000,0,0,0.000000,4,0.000000,0.000000,0.364354,0,0,0,0,0,0,0
7,79999,83,70000,65,0,0,9999,0.100000,0,0,0.000000,4,0.000000,0.000000,2.322986,0,0,0,0,0,0,0
7,79999,84,70000,56,10000,0,9999,0.100000,0,0,0.000000,4,0.000000,0.000000,0.191240,0,0,0,0,0,0,0
7,79999,85,70000,65,0,0,9999,0.100000,0,0,0.000000,4,0.000000,0.000000,0.620361,0,0,0,0,0,0,0
7,79999,86,70000,56,10000,0,9999,0.100000,0,0,0.000000,4,0.000000,0.000000,0.243814,0,0,0,0,0,0,0
7,79999,87,70000,44,10000,0,9999,0.100000,0,0,0.000000,4,0.000000,0.000000,0.638149,0,0,0,0,0,0,0
7,79999,88,70000,50,20000,0,9999,0.100000,0,0,0.000000,4,0.000000,0.000000,0.089594,0,0,0,0,0,0,0
7,79999,89,70000,50,20000,1,9999,0.100000,0,0,0.000000,4,6.000000,0.000000,8.650032,0,0,0,0,0,0,0
7,79999,90,70000,65,0,0,9999,0.100000,0,0,0.000000,4,0.000000,0.000000,0.404002,0,0,0,0,0,0,0
7,79999,91,70000,50,20000,0,9999,0.100000,0,0,0.000000,4,0.000000,0.000000,0.237282,0,0,0,0,0,0,0
7,79999,92,70000,44,10000,0,9999,0.100000,0,0,0.000000,4,0.000000,0.000000,0.704464,0,0,0,0,0,0,0
7,79999,93,70000,44,10000,1,9999,0.100000,0,0,0.000000,4,1.000000,0.000000,11.456621,0,0,0,0,0,0,0
7,79999,94,70000,56,10000,0,9999,0.100000,0,0,0.000000,4,0.000000,0.000000,0.122907,0,0,0,0,0,0,0
7,79999,95,70000,50,20000,0,9999,0.100000,0,0,0.000000,4,0.000000,0.000000,6.425962,0,0,0,0,0,0,0
7,79999,96,70000,56,10000,0,9999,0.100000,0,0,0.000000,4,0.000000,0.000000,4.203115,0,0,0,0,0,0,0
7,79999,97,70000,65,0,0,9999,0.100000,0,0,0.000000,4,0.000000,0.000000,0.087310,0,0,0,0,0,0,0
7,79999,98,70000,56,10000,0,9999,0.100000,0,0,0.000000,4,0.000000,0.000000,0.992046,0,0,0,0,0,0,0
7,79999,99,70000,44,10000,0,9999,0.100000,0,0,0.000000,4,0.000000,0.000000,8.936238,0,0,0,0,0,0,0
8,89999,0,80000,50,20000,1,9999,0.100000,0,0,0.000000,4,1.000000,0.000000,7.102779,0,0,0,0,0,0,0
8,89999,1,80000,50,20000,0,9999,0.100000,0,0,0.000000,4,0.000000,0.000000,3.347233,0,0,0,0,0,0,0
8,89999,2,80000,65,0,0,9999,0.100000,0,0,0.000000,4,0.000000,0.000000,0.099219,0,0,0,0,0,0,0
8,89999,3,80000,56,10000,1,9999,0.100000,0,0,0.000000,4,1.000000,0.000000,6.998561,0,0,0,0,0,0,0
8,89999,4,80000,65,0,1,9999,0.100000,0,0,0.000000,4,5.000000,0.000000,11.510549,0,0,0,0,0,0,0
8,89999,5,80000,44,10000,0,9999,0.100000,0,0,0.000000,4,0.000000,0.000000,0.126648,0,0,0,0,0,0,0
8,89999,6,80000,44,10000,0,9999,0.100000,0,0,0.000000,4,0.000000,0.000000,0.565216,0,0,0,0,0,0,0
8,89999,7,80000,65,0,0,9999,0.100000,0,0,0.000000,4,0.000000,0.000000,0.749147,0,0,0,0,0,0,0
8,89999,8,80000,50,20000,1,9999,0.100000,0,0,0.000000,4,3.000000,0.000000,4.699249,0,0,0,0,0,0,0
8,89999,9,80000,44,10000,0,9999,0.100000,0,0,0.000000,4,0.000000,0.000000,0.177921,0,0,0,0,0,0,0
8,89999,10,80000,50,20000,0,9999,0.100000,0,0,0.000000,4,0.000000,0.000000,0.235712,0,0,0,0,0,0,0
8,89999,11,80000,56,10000,0,9999,0.100000,0,0,0.000000,4,0.000000,0.000000,1.008276,0,0,0,0,0,0,0
8,89999,12,80000,50,20000,0,9999,0.100000,0,0,0.000000,4,0.000000,0.000000,0.147194,0,0,0,0,0,0,0
8,89999,13,80000,65,0,0,9999,0.100000,0,0,0.000000,4,0.000000,0.000000,0.081541,0,0,0,0,0,0,0
8,89999,14,80000,56,10000,0,9999,0.100000,0,0,0.000000,4,0.000000,0.000000,5.073628,0,0,0,0,0,0,0
8,89999,15,80000,50,20000,1,9999,0.100000,0,0,0.000000,4,1.000000,0.000000,9.139966,0,0,0,0,0,0,0
8,89999,16,80000,65,0,0,9999,0.100000,0,0,0.000000,4,0.000000,0.000000,0.101265,0,0,0,0,0,0,0
8,89999,17,80000,44,10000,0,9999,0.100000,0,0,0.000000,4,0.000000,0.000000,0.284554,0,0,0,0,0,0,0
8,89999,18,80000,65,0,0,9999,0.100000,0,0,0.000000,4,0.000000,0.000000,0.493397,0,0,0,0,0,0,0
8,89999,19,80000,50,20000,0,9999,0.100000,0,0,0.000000,4,0.000000,0.000000,0.450291,0,0,0,0,0,0,0
8,89999,20,80000,56,10000,0,9999,0.100000,0,0,0.000000,4,0.000000,0.000000,5.668149,0,0,0,0,0,0,0
8,89999,21,80000,56,10000,0,9999,0.100000,0,0,0.000000,4,0.000000,0.000000,0.398807,0,0,0,0,0,0,0
8,89999,22,80000,56,10000,0,9999,0.100000,0,0,0.000000,4,0.000000,0.000000,0.412904,0,0,0,0,0,0,0
8,89999,23,80000,65,0,0,9999,0.100000,0,0,0.000000,4,0.000000,0.000000,0.313399,0,0,0,0,0,0,0
8,89999,24,80000,50,20000,0,9999,0.100000,0,0,0.000000,4,0.000000,0.000000,0.194848,0,0,0,0,0,0,0
8,89999,25,80000,44,10000,0,9999,0.100000,0,0,0.000000,4,0.000000,0.000000,0.395315,0,0,0,0,0,0,0
8,89999,26,80000,65,0,0,9999,0.100000,0,0,0.000000,4,0.000000,0.000000,0.147739,0,0,0,0,0,0,0
8,89999,27,80000,65,0,0,9999,0.100000,0,0,0.000000,4,0.000000,0.000000,2.621657,0,0,0,0,0,0,0
8,89999,28,80000,50,20000,0,9999,0.100000,0,0,0.000000,4,0.000000,0.000000,0.284036,0,0,0,0,0,0,0
8,89999,29,80000,65,0,0,9999,0.100000,0,0,0.000000,4,0.000000,0.000000,3.784032,0,0,0,0,0,0,0
8,89999,30,80000,65,0,0,9999,0.100000,0,0,0.000000,4,0.000000,0.000000,0.134104,0,0,0,0,0,0,0
8,89999,31,80000,56,10000,0,9999,0.100000,0,0,0.000000,4,0.000000,0.000000,0.089854,0,0,0,0,0,0,0
8,89999,32,80000,56,10000,1,9999,0.100000,0,0,0.000000,4,2.000000,0.000000,9.635559,0,0,0,0,0,0,0
8,89999,33,80000,44,10000,0,9999,0.100000,0,0,0.000000,4,0.000000,0.000000,0.173864,0,0,0,0,0,0,0
8,89999,34,80000,50,20000,0,9999,0.100000,0,0,0.000000,4,0.000000,0.000000,23.712195,0,0,0,0,0,0,0
8,89999,35,80000,56,10000,1,9999,0.100000,0,0,0.000000,4,1.000000,0.000000,3.720242,0,0,0,0,0,0,0
8,89999,36,80000,65,0,1,9999,0.100000,0,0,0.000000,4,1.000000,0.000000,11.708008,0,0,0,0,0,0,0
8,89999,37,80000,50,20000,0,9999,0.100000,0,0,0.000000,4,0.000000,0.000000,3.945209,0,0,0,0,0,0,0
8,89999,38,80000,56,10000,0,9999,0.100000,0,0,0.000000,4,0.000000,0.000000,0.231272,0,0,0,0,0,0,0
8,89999,39,80000,56,10000,0,9999,0.100000,0,0,0.000000,4,0.000000,0.000000,0.089888,0,0,0,0,0,0,0
8,89999,40,80000,44,10000,1,9999,0.100000,0,0,0.000000,4,1.000000,0.000000,2.346901,0,0,0,0,0,0,0
8,89999,41,80000,50,20000,0,9999,0.100000,0,0,0.000000,4,0.000000,0.000000,0.090546,0,0,0,0,0,0,0
8,89999,42,80000,50,20000,0,9999,0.100000,0,0,0.000000,4,0.000000,0.000000,0.117538,0,0,0,0,0,0,0
8,89999,43,80000,65,0,0,9999,0.100000,0,0,0.000000,4,0.000000,0.000000,0.079080,0,0,0,0,0,0,0
8,89999,44,80000,44,10000,0,9999,0.100000,0,0,0.000000,4,0.000000,0.000000,0.121743,0,0,0,0,0,0,0
8,89999,45,80000,44,10000,0,9999,0.100000,0,0,0.000000,4,0.000000,0.000000,0.153219,0,0,0,0,0,0,0
8,89999,46,80000,56,10000,0,9999,0.100000,0,0,0.000000,4,0.000000,0.000000,0.097307,0,0,0,0,0,0,0
8,89999,47,80000,50,20000,1,9999,0.100000,0,0,0.000000,4,1.000000,0.000000,2.376853,0,0,0,0,0,0,0
8,89999,48,80000,56,10000,0,9999,0.100000,0,0,0.000000,4,0.000000,0.000000,0.353060,0,0,0,0,0,0,0
8,89999,49,80000,50,20000,0,9999,0.100000,0,0,0.000000,4,0.000000,0.000000,0.283285,0,0,0,0,0,0,0
8,89999,50,80000,56,10000,0,9999,0.100000,0,0,0.000000,4,0.000000,0.000000,0.150553,0,0,0,0,0,0,0
8,89999,51,80000,50,20000,0,9999,0.100000,0,0,0.000000,4,0.000000,0.000000,0.227919,0,0,0,0,0,0,0
8,89999,52,80000,50,20000,0,9999,0.100000,0,0,0.000000,4,0.000000,0.000000,0.378739,0,0,0,0,0,0,0
8,89999,53,80000,50,20000,0,9999,0.100000,0,0,0.000000,4,0.000000,0.000000,0.107213,0,0,0,0,0,0,0
8,89999,54,80000,50,20000,0,9999,0.100000,0,0,0.000000,4,0.000000,0.000000,8.708219,0,0,0,0,0,0,0
8,89999,55,80000,50,20000,0,9999,0.100000,0,0,0.000000,4,0.000000,0.000000,0.745837,0,0,0,0,0,0,0
8,89999,56,80000,50,20000,0,9999,0.100000,0,0,0.000000,4,0.000000,0.000000,1.485155,0,0,0,0,0,0,0
8,89999,57,80000,56,10000,0,9999,0.100000,0,0,0.000000,4,0.000000,0.000000,0.708678,0,0,0,0,0,0,0
8,89999,58,80000,44,10000,0,9999,0.100000,0,0,0.000000,4,0.000000,0.000000,0.174763,0,0,0,0,0,0,0
8,89999,59,80000,50,20000,0,9999,0.100000,0,0,0.000000,4,0.000000,0.000000,0.084647,0,0,0,0,0,0,0
8,89999,60,80000,65,0,1,9999,0.100000,0,0,0.000000,4,3.000000,0.000000,7.672000,0,0,0,0,0,0,0
8,89999,61,80000,65,0,1,9999,0.100000,0,0,0.000000,4,1.000000,0.000000,3.606436,0,0,0,0,0,0,0
8,89999,62,80000,44,10000,0,9999,0.100000,0,0,0.000000,4,0.000000,0.000000,0.505363,0,0,0,0,0,0,0
8,89999,63,80000,56,10000,0,9999,0.100000,0,0,0.000000,4,0.000000,0.000000,0.090006,0,0,0,0,0,0,0
8,89999,64,80000,44,10000,0,9999,0.100000,0,0,0.000000,4,0.000000,0.000000,0.663485,0,0,0,0,0,0,0
8,89999,65,80000,65,0,0,9999,0.100000,0,0,0.000000,4,0.000000,0.000000,0.701705,0,0,0,0,0,0,0
8,89999,66,80000,56,10000,1,9999,0.100000,0,0,0.000000,4,1.000000,0.000000,3.667084,0,0,0,0,0,0,0
8,89999,67,80000,44,10000,0,9999,0.100000,0,0,0.000000,4,0.000000,0.000000,0.151446,0,0,0,0,0,0,0
8,89999,68,80000,56,10000,0,9999,0.100000,0,0,0.000000,4,0.000000,0.000000,0.875324,0,0,0,0,0,0,0
8,89999,69,80000,56,10000,0,9999,0.100000,0,0,0.000000,4,0.000000,0.000000,1.394131,0,0,0,0,0,0,0
8,89999,70,80000,44,10000,0,9999,0.100000,0,0,0.000000,4,0.000000,0.000000,0.402292,0,0,0,0,0,0,0
8,89999,71,80000,50,20000,0,9999,0.100000,0,0,0.000000,4,0.000000,0.000000,0.303972,0,0,0,0,0,0,0
8,89999,72,80000,50,20000,0,9999,0.100000,0,0,0.000000,4,0.000000,0.000000,0.100201,0,0,0,0,0,0,0
8,89999,73,80000,56,10000,0,9999,0.100000,0,0,0.000000,4,0.000000,0.000000,0.079302,0,0,0,0,0,0,0
8,89999,74,80000,65,0,0,9999,0.100000,0,0,0.000000,4,0.000000,0.000000,0.896171,0,0,0,0,0,0,0
8,89999,75,80000,65,0,0,9999,0.100000,0,0,0.000000,4,0.000000,0.000000,0.330183,0,0,0,0,0,0,0
8,89999,76,80000,56,10000,1,9999,0.100000,0,0,0.000000,4,1.000000,0.000000,1.890102,0,0,0,0,0,0,0
8,89999,77,80000,56,10000,1,9999,0.100000,0,0,0.000000,4,5.000000,0.000000,7.186427,0,0,0,0,0,0,0
8,89999,78,80000,56,10000,0,9999,0.100000,0,0,0.000000,4,0.000000,0.000000,0.159485,0,0,0,0,0,0,0
8,89999,79,80000,50,20000,1,9999,0.100000,0,0,0.000000,4,3.000000,0.000000,12.843112,0,0,0,0,0,0,0
8,89999,80,80000,44,10000,0,9999,0.100000,0,0,0.000000,4,0.000000,0.000000,0.660646,0,0,0,0,0,0,0
8,89999,81,80000,50,20000,0,9999,0.100000,0,0,0.000000,4,0.000000,0.000000,0.152995,0,0,0,0,0,0,0
8,89999,82,80000,44,10000,0,9999,0.100000,0,0,0.000000,4,0.000000,0.000000,0.316660,0,0,0,0,0,0,0
8,89999,83,80000,50,20000,0,9999,0.100000,0,0,0.000000,4,0.000000,0.000000,1.332433,0,0,0,0,0,0,0
8,89999,84,80000,44,10000,0,9999,0.100000,0,0,0.000000,4,0.000000,0.000000,0.641652,0,0,0,0,0,0,0
8,89999,85,80000,50,20000,0,9999,0.100000,0,0,0.000000,4,0.000000,0.000000,0.852992,0,0,0,0,0,0,0
8,89999,86,80000,44,10000,0,9999,0.100000,0,0,0.000000,4,0.000000,0.000000,0.401583,0,0,0,0,0,0,0
8,89999,87,80000,44,10000,0,9999,0.100000,0,0,0.000000,4,0.000000,0.000000,0.633892,0,0,0,0,0,0,0
8,89999,88,80000,50,20000,0,9999,0.100000,0,0,0.000000,4,0.000000,0.000000,0.087636,0,0,0,0,0,0,0
8,89999,89,80000,65,0,1,9999,0.100000,0,0,0.000000,4,7.000000,0.000000,8.131121,0,0,0,0,0,0,0
8,89999,90,80000,44,10000,0,9999,0.100000,0,0,0.000000,4,0.000000,0.000000,0.336536,0,0,0,0,0,0,0
8,89999,91,80000,56,10000,0,9999,0.100000,0,0,0.000000,4,0.000000,0.000000,0.687243,0,0,0,0,0,0,0
8,89999,92,80000,50,20000,1,9999,0.100000,0,0,0.000000,4,1.000000,0.000000,2.159627,0,0,0,0,0,0,0
8,89999,93,80000,44,10000,0,9999,0.100000,0,0,0.000000,4,0.000000,0.000000,10.180182,0,0,0,0,0,0,0
8,89999,94,80000,56,10000,0,9999,0.100000,0,0,0.000000,4,0.000000,0.000000,0.148105,0,0,0,0,0,0,0
8,89999,95,80000,65,0,1,9999,0.100000,0,0,0.000000,4,1.000000,0.000000,3.351134,0,0,0,0,0,0,0
8,89999,96,80000,50,20000,1,9999,0.100000,0,0,0.000000,4,1.000000,0.000000,5.196730,0,0,0,0,0,0,0
8,89999,97,80000,44,10000,1,9999,0.100000,0,0,0.000000,4,9.000000,0.000000,18.489097,0,0,0,0,0,0,0
8,89999,98,80000,65,0,1,9999,0.100000,0,0,0.000000,4,2.000000,0.000000,3.354552,0,0,0,0,0,0,0
8,89999,99,80000,44,10000,1,9999,0.100000,0,0,0.000000,4,2.000000,0.000000,13.852307,0,0,0,0,0,0,0
9,99999,0,90000,44,10000,1,9999,0.100000,0,0,0.000000,4,3.000000,0.000000,7.945233,0,0,0,0,0,0,0
9,99999,1,90000,44,10000,0,9999,0.100000,0,0,0.000000,4,0.000000,0.000000,1.541380,0,0,0,0,0,0,0
9,99999,2,90000,65,0,0,9999,0.100000,0,0,0.000000,4,0.000000,0.000000,1.478460,0,0,0,0,0,0,0
9,99999,3,90000,56,10000,1,9999,0.100000,0,0,0.000000,4,1.000000,0.000000,3.422933,0,0,0,0,0,0,0
9,99999,4,90000,56,10000,0,9999,0.100000,0,0,0.000000,4,0.000000,0.000000,0.232389,0,0,0,0,0,0,0
9,99999,5,90000,44,10000,0,9999,0.100000,0,0,0.000000,4,0.000000,0.000000,0.113263,0,0,0,0,0,0,0
9,99999,6,90000,50,20000,0,9999,0.100000,0,0,0.000000,4,0.000000,0.000000,0.568039,0,0,0,0,0,0,0
9,99999,7,90000,56,10000,0,9999,0.100000,0,0,0.000000,4,0.000000,0.000000,0.529942,0,0,0,0,0,0,0
9,99999,8,90000,44,10000,0,9999,0.100000,0,0,0.000000,4,0.000000,0.000000,0.645280,0,0,0,0,0,0,0
9,99999,9,90000,50,20000,0,9999,0.100000,0,0,0.000000,4,0.000000,0.000000,0.178562,0,0,0,0,0,0,0
9,99999,10,90000,56,10000,0,9999,0.100000,0,0,0.000000,4,0.000000,0.000000,0.206050,0,0,0,0,0,0,0
9,99999,11,90000,56,10000,0,9999,0.100000,0,0,0.000000,4,0.000000,0.000000,1.122552,0,0,0,0,0,0,0
9,99999,12,90000,65,0,0,9999,0.100000,0,0,0.000000,4,0.000000,0.000000,0.143470,0,0,0,0,0,0,0
9,99999,13,90000,44,10000,0,9999,0.100000,0,0,0.000000,4,0.000000,0.000000,0.135592,0,0,0,0,0,0,0
9,99999,14,90000,56,10000,1,9999,0.100000,0,0,0.000000,4,1.000000,0.000000,5.293710,0,0,0,0,0,0,0
9,99999,15,90000,65,0,0,9999,0.100000,0,0,0.000000,4,0.000000,0.000000,6.559510,0,0,0,0,0,0,0
9,99999,16,90000,50,20000,0,9999,0.100000,0,0,0.000000,4,0.000000,0.000000,0.088470,0,0,0,0,0,0,0
9,99999,17,90000,44,10000,0,9999,0.100000,0,0,0.000000,4,0.000000,0.000000,0.958379,0,0,0,0,0,0,0
9,99999,18,90000,56,10000,0,9999,0.100000,0,0,0.000000,4,0.000000,0.000000,0.590149,0,0,0,0,0,0,0
9,99999,19,90000,65,0,0,9999,0.100000,0,0,0.000000,4,0.000000,0.000000,1.092864,0,0,0,0,0,0,0
9,99999,20,90000,44,10000,0,9999,0.100000,0,0,0.000000,4,0.000000,0.000000,4.060472,0,0,0,0,0,0,0
9,99999,21,90000,56,10000,0,9999,0.100000,0,0,0.000000,4,0.000000,0.000000,0.372775,0,0,0,0,0,0,0
9,99999,22,90000,44,10000,0,9999,0.100000,0,0,0.000000,4,0.000000,0.000000,0.258800,0,0,0,0,0,0,0
9,99999,23,90000,50,20000,0,9999,0.100000,0,0,0.000000,4,0.000000,0.000000,0.319755,0,0,0,0,0,0,0
9,99999,24,90000,65,0,0,9999,0.100000,0,0,0.000000,4,0.000000,0.000000,0.227606,0,0,0,0,0,0,0
9,99999,25,90000,50,20000,0,9999,0.100000,0,0,0.000000,4,0.000000,0.000000,0.568283,0,0,0,0,0,0,0
9,99999,26,90000,50,20000,0,9999,0.100000,0,0,0.000000,4,0.000000,0.000000,0.103829,0,0,0,0,0,0,0
9,99999,27,90000,65,0,0,9999,0.100000,0,0,0.000000,4,0.000000,0.000000,0.351564,0,0,0,0,0,0,0
9,99999,28,90000,56,10000,0,9999,0.100000,0,0,0.000000,4,0.000000,0.000000,0.289708,0,0,0,0,0,0,0
9,99999,29,90000,50,20000,0,9999,0.100000,0,0,0.000000,4,0.000000,0.000000,4.123768,0,0,0,0,0,0,0
9,99999,30,90000,50,20000,0,9999,0.100000,0,0,0.000000,4,0.000000,0.000000,0.132001,0,0,0,0,0,0,0
9,99999,31,90000,44,10000,0,9999,0.100000,0,0,0.000000,4,0.000000,0.000000,0.087900,0,0,0,0,0,0,0
9,99999,32,90000,65,0,1,9999,0.100000,0,0,0.000000,4,1.000000,0.000000,4.005776,0,0,0,0,0,0,0
9,99999,33,90000,65,0,0,9999,0.135000,0,0,0.000000,4,0.000000,0.000000,0.163953,0,0,0,0,0,0,0
9,99999,34,90000,44,10000,0,9999,0.100000,0,0,0.000000,4,0.000000,0.000000,23.940430,0,0,0,0,0,0,0
9,99999,35,90000,65,0,0,9999,0.100000,0,0,0.000000,4,0.000000,0.000000,0.777021,0,0,0,0,0,0,0
9,99999,36,90000,56,10000,0,9999,0.100000,0,0,0.000000,4,0.000000,0.000000,0.695488,0,0,0,0,0,0,0
9,99999,37,90000,50,20000,0,9999,0.100000,0,0,0.000000,4,0.000000,0.000000,4.158529,0,0,0,0,0,0,0
9,99999,38,90000,65,0,0,9999,0.100000,0,0,0.000000,4,0.000000,0.000000,0.419085,0,0,0,0,0,0,0
9,99999,39,90000,44,10000,0,9999,0.100000,0,0,0.000000,4,0.000000,0.000000,0.089101,0,0,0,0,0,0,0
9,99999,40,90000,44,10000,0,9999,0.100000,0,0,0.000000,4,0.000000,0.000000,3.845723,0,0,0,0,0,0,0
9,99999,41,90000,65,0,0,9999,0.100000,0,0,0.000000,4,0.000000,0.000000,0.115154,0,0,0,0,0,0,0
9,99999,42,90000,44,10000,0,9999,0.100000,0,0,0.000000,4,0.000000,0.000000,0.116856,0,0,0,0,0,0,0
9,99999,43,90000,44,10000,0,9999,0.100000,0,0,0.000000,4,0.000000,0.000000,0.080837,0,0,0,0,0,0,0
9,99999,44,90000,44,10000,0,9999,0.100000,0,0,0.000000,4,0.000000,0.000000,0.100573,0,0,0,0,0,0,0
9,99999,45,90000,56,10000,0,9999,0.100000,0,0,0.000000,4,0.000000,0.000000,0.218296,0,0,0,0,0,0,0
9,99999,46,90000,56,10000,0,9999,0.100000,0,0,0.000000,4,0.000000,0.000000,0.102657,0,0,0,0,0,0,0
9,99999,47,90000,65,0,1,9999,0.100000,0,0,0.000000,4,2.000000,0.000000,9.683157,0,0,0,0,0,0,0
9,99999,48,90000,65,0,0,9999,0.100000,0,0,0.000000,4,0.000000,0.000000,0.335673,0,0,0,0,0,0,0
9,99999,49,90000,50,20000,0,9999,0.100000,0,0,0.000000,4,0.000000,0.000000,0.551782,0,0,0,0,0,0,0
9,99999,50,90000,65,0,0,9999,0.135000,0,0,0.000000,4,0.000000,0.000000,0.159885,0,0,0,0,0,0,0
9,99999,51,90000,44,10000,0,9999,0.100000,0,0,0.000000,4,0.000000,0.000000,0.217512,0,0,0,0,0,0,0
9,99999,52,90000,56,10000,0,9999,0.100000,0,0,0.000000,4,0.000000,0.000000,0.408974,0,0,0,0,0,0,0
9,99999,53,90000,44,10000,0,9999,0.100000,0,0,0.000000,4,0.000000,0.000000,0.086862,0,0,0,0,0,0,0
9,99999,54,90000,50,20000,0,9999,0.100000,0,0,0.000000,4,0.000000,0.000000,7.730312,0,0,0,0,0,0,0
9,99999,55,90000,50,20000,0,9999,0.100000,0,0,0.000000,4,0.000000,0.000000,0.997873,0,0,0,0,0,0,0
9,99999,56,90000,50,20000,0,9999,0.100000,0,0,0.000000,4,0.000000,0.000000,0.317841,0,0,0,0,0,0,0
9,99999,57,90000,44,10000,0,9999,0.100000,0,0,0.000000,4,0.000000,0.000000,0.201151,0,0,0,0,0,0,0
9,99999,58,90000,50,20000,0,9999,0.100000,0,0,0.000000,4,0.000000,0.000000,0.178754,0,0,0,0,0,0,0
9,99999,59,90000,56,10000,0,9999,0.100000,0,0,0.000000,4,0.000000,0.000000,0.085026,0,0,0,0,0,0,0
9,99999,60,90000,65,0,0,9999,0.100000,0,0,0.000000,4,0.000000,0.000000,0.411368,0,0,0,0,0,0,0
9,99999,61,90000,65,0,1,9999,0.100000,0,0,0.000000,4,2.000000,0.000000,6.050515,0,0,0,0,0,0,0
9,99999,62,90000,65,0,0,9999,0.100000,0,0,0.000000,4,0.000000,0.000000,0.508346,0,0,0,0,0,0,0
9,99999,63,90000,65,0,0,9999,0.100000,0,0,0.000000,4,0.000000,0.000000,0.085783,0,0,0,0,0,0,0
9,99999,64,90000,56,10000,0,9999,0.100000,0,0,0.000000,4,0.000000,0.000000,3.760729,0,0,0,0,0,0,0
9,99999,65,90000,50,20000,0,9999,0.100000,0,0,0.000000,4,0.000000,0.000000,0.523188,0,0,0,0,0,0,0
9,99999,66,90000,50,20000,0,9999,0.100000,0,0,0.000000,4,0.000000,0.000000,4.676333,0,0,0,0,0,0,0
9,99999,67,90000,44,10000,0,9999,0.100000,0,0,0.000000,4,0.000000,0.000000,0.555743,0,0,0,0,0,0,0
9,99999,68,90000,44,10000,0,9999,0.100000,0,0,0.000000,4,0.000000,0.000000,0.472312,0,0,0,0,0,0,0
9,99999,69,90000,56,10000,0,9999,0.100000,0,0,0.000000,4,0.000000,0.000000,1.309426,0,0,0,0,0,0,0
9,99999,70,90000,44,10000,0,9999,0.100000,0,0,0.000000,4,0.000000,0.000000,0.419118,0,0,0,0,0,0,0
9,99999,71,90000,50,20000,0,9999,0.100000,0,0,0.000000,4,0.000000,0.000000,0.419919,0,0,0,0,0,0,0
9,99999,72,90000,65,0,0,9999,0.100000,0,0,0.000000,4,0.000000,0.000000,0.405660,0,0,0,0,0,0,0
9,99999,73,90000,50,20000,0,9999,0.100000,0,0,0.000000,4,0.000000,0.000000,0.080801,0,0,0,0,0,0,0
9,99999,74,90000,50,20000,0,9999,0.100000,0,0,0.000000,4,0.000000,0.000000,0.235882,0,0,0,0,0,0,0
9,99999,75,90000,50,20000,0,9999,0.100000,0,0,0.000000,4,0.000000,0.000000,0.808756,0,0,0,0,0,0,0
9,99999,76,90000,50,20000,0,9999,0.100000,0,0,0.000000,4,0.000000,0.000000,3.136044,0,0,0,0,0,0,0
9,99999,77,90000,65,0,1,9999,0.100000,0,0,0.000000,4,5.000000,0.000000,7.668280,0,0,0,0,0,0,0
9,99999,78,90000,44,10000,0,9999,0.100000,0,0,0.000000,4,0.000000,0.000000,0.183030,0,0,0,0,0,0,0
9,99999,79,90000,65,0,0,9999,0.100000,0,0,0.000000,4,0.000000,0.000000,0.519378,0,0,0,0,0,0,0
9,99999,80,90000,56,10000,0,9999,0.100000,0,0,0.000000,4,0.000000,0.000000,0.634082,0,0,0,0,0,0,0
9,99999,81,90000,56,10000,0,9999,0.100000,0,0,0.000000,4,0.000000,0.000000,0.130345,0,0,0,0,0,0,0
9,99999,82,90000,65,0,0,9999,0.100000,0,0,0.000000,4,0.000000,0.000000,0.299285,0,0,0,0,0,0,0
9,99999,83,90000,56,10000,0,9999,0.100000,0,0,0.000000,4,0.000000,0.000000,1.013726,0,0,0,0,0,0,0
9,99999,84,90000,65,0,0,9999,0.100000,0,0,0.000000,4,0.000000,0.000000,0.119029,0,0,0,0,0,0,0
9,99999,85,90000,56,10000,0,9999,0.100000,0,0,0.000000,4,0.000000,0.000000,0.484442,0,0,0,0,0,0,0
9,99999,86,90000,50,20000,0,9999,0.100000,0,0,0.000000,4,0.000000,0.000000,0.220082,0,0,0,0,0,0,0
9,99999,87,90000,56,10000,1,9999,0.100000,0,0,0.000000,4,9.000000,0.000000,19.492533,0,0,0,0,0,0,0
9,99999,88,90000,65,0,0,9999,0.100000,0,0,0.000000,4,0.000000,0.000000,0.088286,0,0,0,0,0,0,0
9,99999,89,90000,50,20000,0,9999,0.100000,0,0,0.000000,4,0.000000,0.000000,0.259285,0,0,0,0,0,0,0
9,99999,90,90000,56,10000,0,9999,0.100000,0,0,0.000000,4,0.000000,0.000000,0.224529,0,0,0,0,0,0,0
9,99999,91,90000,56,10000,0,9999,0.100000,0,0,0.000000,4,0.000000,0.000000,0.146077,0,0,0,0,0,0,0
9,99999,92,90000,56,10000,0,9999,0.100000,0,0,0.000000,4,0.000000,0.000000,0.540373,0,0,0,0,0,0,0
9,99999,93,90000,56,10000,0,9999,0.100000,0,0,0.000000,4,0.000000,0.000000,4.775025,0,0,0,0,0,0,0
9,99999,94,90000,65,0,0,9999,0.100000,0,0,0.000000,4,0.000000,0.000000,0.177038,0,0,0,0,0,0,0
9,99999,95,90000,50,20000,0,9999,0.100000,0,0,0.000000,4,0.000000,0.000000,5.414547,0,0,0,0,0,0,0
9,99999,96,90000,56,10000,0,9999,0.100000,0,0,0.000000,4,0.000000,0.000000,0.733576,0,0,0,0,0,0,0
9,99999,97,90000,44,10000,0,9999,0.100000,0,0,0.000000,4,0.000000,0.000000,0.105255,0,0,0,0,0,0,0
9,99999,98,90000,56,10000,0,9999,0.100000,0,0,0.000000,4,0.000000,0.000000,0.352662,0,0,0,0,0,0,0
9,99999,99,90000,65,0,1,9999,0.100000,0,0,0.000000,4,3.000000,0.000000,6.373140,0,0,0,0,0,0,0
10,109999,0,100000,44,10000,1,9999,0.100000,0,0,0.000000,4,1.000000,0.000000,3.411108,0,0,0,0,0,0,0
10,109999,1,100000,44,10000,0,9999,0.100000,0,0,0.000000,4,0.000000,0.000000,0.953409,0,0,0,0,0,0,0
10,109999,2,100000,56,10000,0,9999,0.100000,0,0,0.000000,4,0.000000,0.000000,0.157369,0,0,0,0,0,0,0
10,109999,3,100000,56,10000,0,9999,0.100000,0,0,0.000000,4,0.000000,0.000000,0.434122,0,0,0,0,0,0,0
10,109999,4,100000,44,10000,0,9999,0.100000,0,0,0.000000,4,0.000000,0.000000,0.781874,0,0,0,0,0,0,0
10,109999,5,100000,65,0,0,9999,0.100000,0,0,0.000000,4,0.000000,0.000000,0.100509,0,0,0,0,0,0,0
10,109999,6,100000,65,0,0,9999,0.100000,0,0,0.000000,4,0.000000,0.000000,0.565229,0,0,0,0,0,0,0
10,109999,7,100000,44,10000,0,9999,0.100000,0,0,0.000000,4,0.000000,0.000000,0.507010,0,0,0,0,0,0,0
10,109999,8,100000,65,0,1,9999,0.065000,0,0,0.000000,4,2.000000,0.000000,2.810526,0,0,0,0,0,0,0
10,109999,9,100000,44,10000,1,9999,0.065000,0,0,0.000000,4,1.000000,0.000000,25.644160,0,0,0,0,0,0,0
10,109999,10,100000,50,20000,0,9999,0.100000,0,0,0.000000,4,0.000000,0.000000,0.272781,0,0,0,0,0,0,0
10,109999,11,100000,50,20000,1,9999,0.100000,0,0,0.000000,4,3.000000,0.000000,6.562766,0,0,0,0,0,0,0
10,109999,12,100000,56,10000,0,9999,0.100000,0,0,0.000000,4,0.000000,0.000000,0.144805,0,0,0,0,0,0,0
10,109999,13,100000,56,10000,0,9999,0.100000,0,0,0.000000,4,0.000000,0.000000,0.074434,0,0,0,0,0,0,0
10,109999,14,100000,65,0,1,9999,0.100000,0,0,0.000000,4,1.000000,0.000000,4.271087,0,0,0,0,0,0,0
10,109999,15,100000,50,20000,0,9999,0.100000,0,0,0.000000,4,0.000000,0.000000,1.787060,0,0,0,0,0,0,0
10,109999,16,100000,65,0,0,9999,0.100000,0,0,0.000000,4,0.000000,0.000000,0.073048,0,0,0,0,0,0,0
10,109999,17,100000,56,10000,0,9999,0.100000,0,0,0.000000,4,0.000000,0.000000,0.871071,0,0,0,0,0,0,0
10,109999,18,100000,50,20000,0,9999,0.100000,0,0,0.000000,4,0.000000,0.000000,0.545121,0,0,0,0,0,0,0
10,109999,19,100000,50,20000,0,9999,0.100000,0,0,0.000000,4,0.000000,0.000000,1.263603,0,0,0,0,0,0,0
10,109999,20,100000,56,10000,0,9999,0.100000,0,0,0.000000,4,0.000000,0.000000,6.168264,0,0,0,0,0,0,0
10,109999,21,100000,44,10000,0,9999,0.100000,0,0,0.000000,4,0.000000,0.000000,1.061033,0,0,0,0,0,0,0
10,109999,22,100000,44,10000,0,9999,0.100000,0,0,0.000000,4,0.000000,0.000000,0.182331,0,0,0,0,0,0,0
10,109999,23,100000,65,0,0,9999,0.100000,0,0,0.000000,4,0.000000,0.000000,0.158590,0,0,0,0,0,0,0
10,109999,24,100000,56,10000,0,9999,0.100000,0,0,0.000000,4,0.000000,0.000000,0.249432,0,0,0,0,0,0,0
10,109999,25,100000,50,20000,0,9999,0.100000,0,0,0.000000,4,0.000000,0.000000,0.515436,0,0,0,0,0,0,0
10,109999,26,100000,65,0,0,9999,0.100000,0,0,0.000000,4,0.000000,0.000000,0.091398,0,0,0,0,0,0,0
10,109999,27,100000,65,0,0,9999,0.100000,0,0,0.000000,4,0.000000,0.000000,0.321620,0,0,0,0,0,0,0
10,109999,28,100000,56,10000,0,9999,0.100000,0,0,0.000000,4,0.000000,0.000000,0.275488,0,0,0,0,0,0,0
10,109999,29,100000,50,20000,0,9999,0.100000,0,0,0.000000,4,0.000000,0.000000,4.170022,0,0,0,0,0,0,0
10,109999,30,100000,50,20000,0,9999,0.100000,0,0,0.000000,4,0.000000,0.000000,0.123302,0,0,0,0,0,0,0
10,109999,31,100000,44,10000,0,9999,0.100000,0,0,0.000000,4,0.000000,0.000000,0.095334,0,0,0,0,0,0,0
10,109999,32,100000,56,10000,0,9999,0.100000,0,0,0.000000,4,0.000000,0.000000,0.512384,0,0,0,0,0,0,0
10,109999,33,100000,65,0,0,9999,0.100000,0,0,0.000000,4,0.000000,0.000000,0.176144,0,0,0,0,0,0,0
10,109999,34,100000,44,10000,0,9999,0.100000,0,0,0.000000,4,0.000000,0.000000,24.010971,0,0,0,0,0,0,0
10,109999,35,100000,44,10000,0,9999,0.100000,0,0,0.000000,4,0.000000,0.000000,0.852630,0,0,0,0,0,0,0
10,109999,36,100000,50,20000,0,9999,0.100000,0,0,0.000000,4,0.000000,0.000000,0.803265,0,0,0,0,0,0,0
10,109999,37,100000,56,10000,0,9999,0.100000,0,0,0.000000,4,0.000000,0.000000,1.855692,0,0,0,0,0,0,0
10,109999,38,100000,44,10000,0,9999,0.100000,0,0,0.000000,4,0.000000,0.000000,0.304719,0,0,0,0,0,0,0
10,109999,39,100000,65,0,0,9999,0.100000,0,0,0.000000,4,0.000000,0.000000,0.088926,0,0,0,0,0,0,0
10,109999,40,100000,50,20000,0,9999,0.100000,0,0,0.000000,4,0.000000,0.000000,1.109916,0,0,0,0,0,0,0
10,109999,41,100000,65,0,0,9999,0.100000,0,0,0.000000,4,0.000000,0.000000,0.362513,0,0,0,0,0,0,0
10,109999,42,100000,65,0,0,9999,0.100000,0,0,0.000000,4,0.000000,0.000000,0.105243,0,0,0,0,0,0,0
10,109999,43,100000,56,10000,0,9999,0.100000,0,0,0.000000,4,0.000000,0.000000,0.080271,0,0,0,0,0,0,0
10,109999,44,100000,56,10000,0,9999,0.100000,0,0,0.000000,4,0.000000,0.000000,0.096359,0,0,0,0,0,0,0
10,109999,45,100000,44,10000,0,9999,0.100000,0,0,0.000000,4,0.000000,0.000000,0.204197,0,0,0,0,0,0,0
10,109999,46,100000,44,10000,0,9999,0.100000,0,0,0.000000,4,0.000000,0.000000,0.092640,0,0,0,0,0,0,0
10,109999,47,100000,50,20000,0,9999,0.100000,0,0,0.000000,4,0.000000,0.000000,1.638856,0,0,0,0,0,0,0
10,109999,48,100000,50,20000,0,9999,0.100000,0,0,0.000000,4,0.000000,0.000000,0.327897,0,0,0,0,0,0,0
10,109999,49,100000,56,10000,0,9999,0.100000,0,0,0.000000,4,0.000000,0.000000,0.712243,0,0,0,0,0,0,0
10,109999,50,100000,56,10000,0,9999,0.100000,0,0,0.000000,4,0.000000,0.000000,0.109150,0,0,0,0,0,0,0
10,109999,51,100000,44,10000,0,9999,0.100000,0,0,0.000000,4,0.000000,0.000000,0.211907,0,0,0,0,0,0,0
10,109999,52,100000,56,10000,0,9999,0.135000,0,0,0.000000,4,0.000000,0.000000,1.022259,0,0,0,0,0,0,0
10,109999,53,100000,44,10000,0,9999,0.100000,0,0,0.000000,4,0.000000,0.000000,0.080472,0,0,0,0,0,0,0
10,109999,54,100000,44,10000,0,9999,0.100000,0,0,0.000000,4,0.000000,0.000000,3.352526,0,0,0,0,0,0,0
10,109999,55,100000,50,20000,0,9999,0.100000,0,0,0.000000,4,0.000000,0.000000,0.962537,0,0,0,0,0,0,0
10,109999,56,100000,65,0,0,9999,0.100000,0,0,0.000000,4,0.000000,0.000000,0.244315,0,0,0,0,0,0,0
10,109999,57,100000,65,0,0,9999,0.100000,0,0,0.000000,4,0.000000,0.000000,0.156203,0,0,0,0,0,0,0
10,109999,58,100000,56,10000,0,9999,0.100000,0,0,0.000000,4,0.000000,0.000000,0.373560,0,0,0,0,0,0,0
10,109999,59,100000,44,10000,0,9999,0.100000,0,0,0.000000,4,0.000000,0.000000,0.084359,0,0,0,0,0,0,0
10,109999,60,100000,56,10000,0,9999,0.100000,0,0,0.000000,4,0.000000,0.000000,0.304916,0,0,0,0,0,0,0
10,109999,61,100000,65,0,1,9999,0.100000,0,0,0.000000,4,4.000000,0.000000,27.396308,0,0,0,0,0,0,0
10,109999,62,100000,65,0,1,9999,0.100000,0,0,0.000000,4,1.000000,0.000000,3.928436,0,0,0,0,0,0,0
10,109999,63,100000,65,0,0,9999,0.100000,0,0,0.000000,4,0.000000,0.000000,0.097340,0,0,0,0,0,0,0
10,109999,64,100000,44,10000,0,9999,0.100000,0,0,0.000000,4,0.000000,0.000000,4.324939,0,0,0,0,0,0,0
10,109999,65,100000,44,10000,0,9999,0.100000,0,0,0.000000,4,0.000000,0.000000,0.450909,0,0,0,0,0,0,0
10,109999,66,100000,65,0,0,9999,0.100000,0,0,0.000000,4,0.000000,0.000000,0.873756,0,0,0,0,0,0,0
10,109999,67,100000,44,10000,0,9999,0.100000,0,0,0.000000,4,0.000000,0.000000,0.320059,0,0,0,0,0,0,0
10,109999,68,100000,65,0,0,9999,0.100000,0,0,0.000000,4,0.000000,0.000000,1.073048,0,0,0,0,0,0,0
10,109999,69,100000,65,0,0,9999,0.100000,0,0,0.000000,4,0.000000,0.000000,2.197077,0,0,0,0,0,0,0
10,109999,70,100000,56,10000,0,9999,0.100000,0,0,0.000000,4,0.000000,0.000000,0.426469,0,0,0,0,0,0,0
10,109999,71,100000,65,0,0,9999,0.100000,0,0,0.000000,4,0.000000,0.000000,0.269921,0,0,0,0,0,0,0
10,109999,72,100000,44,10000,0,9999,0.100000,0,0,0.000000,4,0.000000,0.000000,0.283485,0,0,0,0,0,0,0
10,109999,73,100000,56,10000,0,9999,0.100000,0,0,0.000000,4,0.000000,0.000000,0.082427,0,0,0,0,0,0,0
10,109999,74,100000,56,10000,0,9999,0.100000,0,0,0.000000,4,0.000000,0.000000,0.156669,0,0,0,0,0,0,0
10,109999,75,100000,44,10000,1,9999,0.100000,0,0,0.000000,4,5.000000,0.000000,11.423726,0,0,0,0,0,0,0
10,109999,76,100000,65,0,1,9999,0.100000,0,0,0.000000,4,2.000000,0.000000,6.860031,0,0,0,0,0,0,0
10,109999,77,100000,65,0,0,9999,0.100000,0,0,0.000000,4,0.000000,0.000000,0.304373,0,0,0,0,0,0,0
10,109999,78,100000,44,10000,0,9999,0.100000,0,0,0.000000,4,0.000000,0.000000,0.774756,0,0,0,0,0,0,0
10,109999,79,100000,50,20000,1,9999,0.100000,0,0,0.000000,4,2.000000,0.000000,2.509361,0,0,0,0,0,0,0
10,109999,80,100000,56,10000,0,9999,0.100000,0,0,0.000000,4,0.000000,0.000000,0.112604,0,0,0,0,0,0,0
10,109999,81,100000,50,20000,0,9999,0.100000,0,0,0.000000,4,0.000000,0.000000,0.138595,0,0,0,0,0,0,0
10,109999,82,100000,50,20000,0,9999,0.100000,0,0,0.000000,4,0.000000,0.000000,0.312993,0,0,0,0,0,0,0
10,109999,83,100000,65,0,0,9999,0.100000,0,0,0.000000,4,0.000000,0.000000,0.991130,0,0,0,0,0,0,0
10,109999,84,100000,44,10000,0,9999,0.100000,0,0,0.000000,4,0.000000,0.000000,0.092445,0,0,0,0,0,0,0
10,109999,85,100000,65,0,0,9999,0.100000,0,0,0.000000,4,0.000000,0.000000,0.415862,0,0,0,0,0,0,0
10,109999,86,100000,50,20000,0,9999,0.100000,0,0,0.000000,4,0.000000,0.000000,0.215343,0,0,0,0,0,0,0
10,109999,87,100000,44,10000,0,9999,0.100000,0,0,0.000000,4,0.000000,0.000000,0.362238,0,0,0,0,0,0,0
10,109999,88,100000,44,10000,0,9999,0.100000,0,0,0.000000,4,0.000000,0.000000,0.085290,0,0,0,0,0,0,0
10,109999,89,100000,44,10000,0,9999,0.100000,0,0,0.000000,4,0.000000,0.000000,0.239432,0,0,0,0,0,0,0
10,109999,90,100000,65,0,0,9999,0.100000,0,0,0.000000,4,0.000000,0.000000,0.161202,0,0,0,0,0,0,0
10,109999,91,100000,50,20000,0,9999,0.100000,0,0,0.000000,4,0.000000,0.000000,0.116681,0,0,0,0,0,0,0
10,109999,92,100000,50,20000,0,9999,0.100000,0,0,0.000000,4,0.000000,0.000000,0.474822,0,0,0,0,0,0,0
10,109999,93,100000,56,10000,1,9999,0.100000,0,0,0.000000,4,4.000000,0.000000,13.667785,0,0,0,0,0,0,0
10,109999,94,100000,50,20000,0,9999,0.100000,0,0,0.000000,4,0.000000,0.000000,0.777141,0,0,0,0,0,0,0
10,109999,95,100000,50,20000,1,9999,0.100000,0,0,0.000000,4,2.000000,0.000000,5.529470,0,0,0,0,0,0,0
10,109999,96,100000,65,0,0,9999,0.100000,0,0,0.000000,4,0.000000,0.000000,0.716495,0,0,0,0,0,0,0
10,109999,97,100000,50,20000,0,9999,0.100000,0,0,0.000000,4,0.000000,0.000000,0.086596,0,0,0,0,0,0,0
10,109999,98,100000,65,0,0,9999,0.100000,0,0,0.000000,4,0.000000,0.000000,0.285537,0,0,0,0,0,0,0
10,109999,99,100000,56,10000,0,9999,0.100000,0,0,0.000000,4,0.000000,0.000000,0.089432,0,0,0,0,0,0,0
11,119999,0,110000,44,10000,0,9999,0.100000,0,0,0.000000,4,0.000000,0.000000,0.975821,0,0,0,0,0,0,0
11,119999,1,110000,44,10000,0,9999,0.100000,0,0,0.000000,4,0.000000,0.000000,0.574412,0,0,0,0,0,0,0
11,119999,2,110000,44,10000,0,9999,0.100000,0,0,0.000000,4,0.000000,0.000000,0.218071,0,0,0,0,0,0,0
11,119999,3,110000,44,10000,0,9999,0.100000,0,0,0.000000,4,0.000000,0.000000,0.462290,0,0,0,0,0,0,0
11,119999,4,110000,65,0,0,9999,0.100000,0,0,0.000000,4,0.000000,0.000000,0.323727,0,0,0,0,0,0,0
11,119999,5,110000,65,0,0,9999,0.100000,0,0,0.000000,4,0.000000,0.000000,0.153199,0,0,0,0,0,0,0
11,119999,6,110000,65,0,0,9999,0.100000,0,0,0.000000,4,0.000000,0.000000,0.561349,0,0,0,0,0,0,0
11,119999,7,110000,56,10000,0,9999,0.100000,0,0,0.000000,4,0.000000,0.000000,0.518140,0,0,0,0,0,0,0
11,119999,8,110000,56,10000,1,9999,0.100000,0,0,0.000000,4,3.000000,0.000000,4.673760,0,0,0,0,0,0,0
11,119999,9,110000,44,10000,1,9999,0.100000,0,0,0.000000,4,1.000000,0.000000,27.523964,0,0,0,0,0,0,0
11,119999,10,110000,50,20000,0,9999,0.100000,0,0,0.000000,4,0.000000,0.000000,0.243089,0,0,0,0,0,0,0
11,119999,11,110000,50,20000,1,9999,0.100000,0,0,0.000000,4,1.000000,0.000000,2.216194,0,0,0,0,0,0,0
11,119999,12,110000,44,10000,0,9999,0.100000,0,0,0.000000,4,0.000000,0.000000,0.147953,0,0,0,0,0,0,0
11,119999,13,110000,50,20000,0,9999,0.100000,0,0,0.000000,4,0.000000,0.000000,0.104652,0,0,0,0,0,0,0
11,119999,14,110000,50,20000,0,9999,0.100000,0,0,0.000000,4,0.000000,0.000000,0.928405,0,0,0,0,0,0,0
11,119999,15,110000,50,20000,0,9999,0.100000,0,0,0.000000,4,0.000000,0.000000,1.173063,0,0,0,0,0,0,0
11,119999,16,110000,44,10000,0,9999,0.100000,0,0,0.000000,4,0.000000,0.000000,0.123931,0,0,0,0,0,0,0
11,119999,17,110000,44,10000,0,9999,0.100000,0,0,0.000000,4,0.000000,0.000000,0.697047,0,0,0,0,0,0,0
11,119999,18,110000,56,10000,0,9999,0.100000,0,0,0.000000,4,0.000000,0.000000,0.520473,0,0,0,0,0,0,0
11,119999,19,110000,50,20000,0,9999,0.100000,0,0,0.000000,4,0.000000,0.000000,0.932208,0,0,0,0,0,0,0
11,119999,20,110000,50,20000,0,9999,0.100000,0,0,0.000000,4,0.000000,0.000000,4.639199,0,0,0,0,0,0,0
11,119999,21,110000,50,20000,0,9999,0.100000,0,0,0.000000,4,0.000000,0.000000,0.593144,0,0,0,0,0,0,0
11,119999,22,110000,50,20000,0,9999,0.100000,0,0,0.000000,4,0.000000,0.000000,0.164442,0,0,0,0,0,0,0
11,119999,23,110000,50,20000,0,9999,0.100000,0,0,0.000000,4,0.000000,0.000000,0.079184,0,0,0,0,0,0,0
11,119999,24,110000,65,0,0,9999,0.100000,0,0,0.000000,4,0.000000,0.000000,0.257420,0,0,0,0,0,0,0
11,119999,25,110000,44,10000,0,9999,0.100000,0,0,0.000000,4,0.000000,0.000000,0.552714,0,0,0,0,0,0,0
11,119999,26,110000,44,10000,0,9999,0.100000,0,0,0.000000,4,0.000000,0.000000,0.090505,0,0,0,0,0,0,0
11,119999,27,110000,65,0,0,9999,0.100000,0,0,0.000000,4,0.000000,0.000000,0.314737,0,0,0,0,0,0,0
11,119999,28,110000,44,10000,0,9999,0.100000,0,0,0.000000,4,0.000000,0.000000,0.281739,0,0,0,0,0,0,0
11,119999,29,110000,44,10000,1,9999,0.100000,0,0,0.000000,4,5.000000,0.000000,16.078252,0,0,0,0,0,0,0
11,119999,30,110000,44,10000,0,9999,0.100000,0,0,0.000000,4,0.000000,0.000000,0.122481,0,0,0,0,0,0,0
11,119999,31,110000,50,20000,0,9999,0.100000,0,0,0.000000,4,0.000000,0.000000,0.086835,0,0,0,0,0,0,0
11,119999,32,110000,56,10000,0,9999,0.100000,0,0,0.000000,4,0.000000,0.000000,0.705497,0,0,0,0,0,0,0
11,119999,33,110000,44,10000,0,9999,0.100000,0,0,0.000000,4,0.000000,0.000000,0.168163,0,0,0,0,0,0,0
11,119999,34,110000,50,20000,0,9999,0.100000,0,0,0.000000,4,0.000000,0.000000,24.081975,0,0,0,0,0,0,0
11,119999,35,110000,44,10000,0,9999,0.100000,0,0,0.000000,4,0.000000,0.000000,0.710570,0,0,0,0,0,0,0
11,119999,36,110000,50,20000,0,9999,0.100000,0,0,0.000000,4,0.000000,0.000000,0.745969,0,0,0,0,0,0,0
11,119999,37,110000,65,0,0,9999,0.135000,0,0,0.000000,4,0.000000,0.000000,1.426104,0,0,0,0,0,0,0
11,119999,38,110000,50,20000,0,9999,0.100000,0,0,0.000000,4,0.000000,0.000000,0.344472,0,0,0,0,0,0,0
11,119999,39,110000,65,0,0,9999,0.100000,0,0,0.000000,4,0.000000,0.000000,0.088081,0,0,0,0,0,0,0
11,119999,40,110000,65,0,1,9999,0.100000,0,0,0.000000,4,2.000000,0.000000,3.577438,0,0,0,0,0,0,0
11,119999,41,110000,65,0,0,9999,0.100000,0,0,0.000000,4,0.000000,0.000000,0.060833,0,0,0,0,0,0,0
11,119999,42,110000,50,20000,0,9999,0.100000,0,0,0.000000,4,0.000000,0.000000,0.100881,0,0,0,0,0,0,0
11,119999,43,110000,65,0,0,9999,0.100000,0,0,0.000000,4,0.000000,0.000000,0.079535,0,0,0,0,0,0,0
11,119999,44,110000,50,20000,0,9999,0.100000,0,0,0.000000,4,0.000000,0.000000,0.102528,0,0,0,0,0,0,0
11,119999,45,110000,50,20000,0,9999,0.100000,0,0,0.000000,4,0.000000,0.000000,0.167919,0,0,0,0,0,0,0
11,119999,46,110000,50,20000,0,9999,0.100000,0,0,0.000000,4,0.000000,0.000000,0.105296,0,0,0,0,0,0,0
11,119999,47,110000,50,20000,0,9999,0.100000,0,0,0.000000,4,0.000000,0.000000,1.237467,0,0,0,0,0,0,0
11,119999,48,110000,50,20000,0,9999,0.100000,0,0,0.000000,4,0.000000,0.000000,0.319309,0,0,0,0,0,0,0
11,119999,49,110000,65,0,0,9999,0.100000,0,0,0.000000,4,0.000000,0.000000,0.562365,0,0,0,0,0,0,0
11,119999,50,110000,65,0,0,9999,0.100000,0,0,0.000000,4,0.000000,0.000000,0.100084,0,0,0,0,0,0,0
11,119999,51,110000,50,20000,1,9999,0.100000,0,0,0.000000,4,4.000000,0.000000,9.696107,0,0,0,0,0,0,0
11,119999,52,110000,50,20000,0,9999,0.100000,0,0,0.000000,4,0.000000,0.000000,0.616976,0,0,0,0,0,0,0
11,119999,53,110000,50,20000,0,9999,0.100000,0,0,0.000000,4,0.000000,0.000000,0.082103,0,0,0,0,0,0,0
11,119999,54,110000,56,10000,0,9999,0.100000,0,0,0.000000,4,0.000000,0.000000,3.875715,0,0,0,0,0,0,0
11,119999,55,110000,56,10000,0,9999,0.100000,0,0,0.000000,4,0.000000,0.000000,0.596317,0,0,0,0,0,0,0
11,119999,56,110000,65,0,0,9999,0.100000,0,0,0.000000,4,0.000000,0.000000,0.851002,0,0,0,0,0,0,0
11,119999,57,110000,56,10000,0,9999,0.100000,0,0,0.000000,4,0.000000,0.000000,0.158569,0,0,0,0,0,0,0
11,119999,58,110000,56,10000,0,9999,0.100000,0,0,0.000000,4,0.000000,0.000000,0.488993,0,0,0,0,0,0,0
11,119999,59,110000,56,10000,0,9999,0.100000,0,0,0.000000,4,0.000000,0.000000,0.085950,0,0,0,0,0,0,0
11,119999,60,110000,44,10000,0,9999,0.100000,0,0,0.000000,4,0.000000,0.000000,0.211753,0,0,0,0,0,0,0
11,119999,61,110000,65,0,1,9999,0.100000,0,0,0.000000,4,4.000000,0.000000,9.460436,0,0,0,0,0,0,0
11,119999,62,110000,65,0,0,9999,0.100000,0,0,0.000000,4,0.000000,0.000000,0.504396,0,0,0,0,0,0,0
11,119999,63,110000,56,10000,0,9999,0.100000,0,0,0.000000,4,0.000000,0.000000,0.107075,0,0,0,0,0,0,0
11,119999,64,110000,65,0,0,9999,0.100000,0,0,0.000000,4,0.000000,0.000000,2.099135,0,0,0,0,0,0,0
11,119999,65,110000,44,10000,0,9999,0.100000,0,0,0.000000,4,0.000000,0.000000,0.418846,0,0,0,0,0,0,0
11,119999,66,110000,44,10000,0,9999,0.100000,0,0,0.000000,4,0.000000,0.000000,0.870801,0,0,0,0,0,0,0
11,119999,67,110000,56,10000,0,9999,0.100000,0,0,0.000000,4,0.000000,0.000000,0.390619,0,0,0,0,0,0,0
11,119999,68,110000,44,10000,0,9999,0.100000,0,0,0.000000,4,0.000000,0.000000,0.865563,0,0,0,0,0,0,0
11,119999,69,110000,44,10000,0,9999,0.135000,0,0,0.000000,4,0.000000,0.000000,1.214643,0,0,0,0,0,0,0
11,119999,70,110000,50,20000,0,9999,0.100000,0,0,0.000000,4,0.000000,0.000000,0.427930,0,0,0,0,0,0,0
11,119999,71,110000,56,10000,0,9999,0.100000,0,0,0.000000,4,0.000000,0.000000,0.173745,0,0,0,0,0,0,0
11,119999,72,110000,56,10000,0,9999,0.100000,0,0,0.000000,4,0.000000,0.000000,0.415759,0,0,0,0,0,0,0
11,119999,73,110000,65,0,0,9999,0.100000,0,0,0.000000,4,0.000000,0.000000,0.082935,0,0,0,0,0,0,0
11,119999,74,110000,44,10000,0,9999,0.100000,0,0,0.000000,4,0.000000,0.000000,0.552696,0,0,0,0,0,0,0
11,119999,75,110000,50,20000,0,9999,0.100000,0,0,0.000000,4,0.000000,0.000000,0.782140,0,0,0,0,0,0,0
11,119999,76,110000,65,0,0,9999,0.100000,0,0,0.000000,4,0.000000,0.000000,1.383653,0,0,0,0,0,0,0
11,119999,77,110000,44,10000,0,9999,0.100000,0,0,0.000000,4,0.000000,0.000000,0.270591,0,0,0,0,0,0,0
11,119999,78,110000,44,10000,0,9999,0.100000,0,0,0.000000,4,0.000000,0.000000,0.356415,0,0,0,0,0,0,0
11,119999,79,110000,56,10000,1,9999,0.100000,0,0,0.000000,4,2.000000,0.000000,4.188385,0,0,0,0,0,0,0
11,119999,80,110000,44,10000,0,9999,0.100000,0,0,0.000000,4,0.000000,0.000000,0.147539,0,0,0,0,0,0,0
11,119999,81,110000,44,10000,0,9999,0.100000,0,0,0.000000,4,0.000000,0.000000,0.151867,0,0,0,0,0,0,0
11,119999,82,110000,44,10000,0,9999,0.100000,0,0,0.000000,4,0.000000,0.000000,0.328707,0,0,0,0,0,0,0
11,119999,83,110000,65,0,0,9999,0.100000,0,0,0.000000,4,0.000000,0.000000,0.991821,0,0,0,0,0,0,0
11,119999,84,110000,56,10000,0,9999,0.100000,0,0,0.000000,4,0.000000,0.000000,0.084257,0,0,0,0,0,0,0
11,119999,85,110000,44,10000,0,9999,0.100000,0,0,0.000000,4,0.000000,0.000000,0.431666,0,0,0,0,0,0,0
11,119999,86,110000,44,10000,0,9999,0.100000,0,0,0.000000,4,0.000000,0.000000,0.396321,0,0,0,0,0,0,0
11,119999,87,110000,56,10000,0,9999,0.100000,0,0,0.000000,4,0.000000,0.000000,0.296377,0,0,0,0,0,0,0
11,119999,88,110000,44,10000,0,9999,0.100000,0,0,0.000000,4,0.000000,0.000000,0.072476,0,0,0,0,0,0,0
11,119999,89,110000,50,20000,0,9999,0.100000,0,0,0.000000,4,0.000000,0.000000,0.228707,0,0,0,0,0,0,0
11,119999,90,110000,44,10000,0,9999,0.100000,0,0,0.000000,4,0.000000,0.000000,0.133122,0,0,0,0,0,0,0
11,119999,91,110000,44,10000,0,9999,0.100000,0,0,0.000000,4,0.000000,0.000000,0.124450,0,0,0,0,0,0,0
11,119999,92,110000,44,10000,0,9999,0.100000,0,0,0.000000,4,0.000000,0.000000,0.463067,0,0,0,0,0,0,0
11,119999,93,110000,50,20000,1,9999,0.100000,0,0,0.000000,4,2.000000,0.000000,8.163817,0,0,0,0,0,0,0
11,119999,94,110000,50,20000,0,9999,0.100000,0,0,0.000000,4,0.000000,0.000000,0.444376,0,0,0,0,0,0,0
11,119999,95,110000,50,20000,0,9999,0.100000,0,0,0.000000,4,0.000000,0.000000,0.219565,0,0,0,0,0,0,0
11,119999,96,110000,44,10000,0,9999,0.100000,0,0,0.000000,4,0.000000,0.000000,0.733681,0,0,0,0,0,0,0
11,119999,97,110000,50,20000,0,9999,0.100000,0,0,0.000000,4,0.000000,0.000000,0.134952,0,0,0,0,0,0,0
11,119999,98,110000,44,10000,0,9999,0.100000,0,0,0.000000,4,0.000000,0.000000,0.313197,0,0,0,0,0,0,0
11,119999,99,110000,44,10000,0,9999,0.100000,0,0,0.000000,4,0.000000,0.000000,0.087039,0,0,0,0,0,0,0
12,129999,0,120000,44,10000,0,9999,0.100000,0,0,0.000000,4,0.000000,0.000000,0.984419,0,0,0,0,0,0,0
12,129999,1,120000,50,20000,0,9999,0.100000,0,0,0.000000,4,0.000000,0.000000,0.267000,0,0,0,0,0,0,0
12,129999,2,120000,65,0,0,9999,0.100000,0,0,0.000000,4,0.000000,0.000000,0.212161,0,0,0,0,0,0,0
12,129999,3,120000,44,10000,0,9999,0.135000,0,0,0.000000,4,0.000000,0.000000,0.251888,0,0,0,0,0,0,0
12,129999,4,120000,44,10000,0,9999,0.100000,0,0,0.000000,4,0.000000,0.000000,0.455933,0,0,0,0,0,0,0
12,129999,5,120000,50,20000,0,9999,0.100000,0,0,0.000000,4,0.000000,0.000000,0.116617,0,0,0,0,0,0,0
12,129999,6,120000,44,10000,0,9999,0.100000,0,0,0.000000,4,0.000000,0.000000,0.585177,0,0,0,0,0,0,0
12,129999,7,120000,50,20000,0,9999,0.100000,0,0,0.000000,4,0.000000,0.000000,0.491407,0,0,0,0,0,0,0
12,129999,8,120000,56,10000,1,9999,0.100000,0,0,0.000000,4,1.000000,0.000000,1.841222,0,0,0,0,0,0,0
12,129999,9,120000,50,20000,1,9999,0.100000,0,0,0.000000,4,3.000000,0.000000,11.929126,0,0,0,0,0,0,0
12,129999,10,120000,65,0,0,9999,0.100000,0,0,0.000000,4,0.000000,0.000000,0.210321,0,0,0,0,0,0,0
12,129999,11,120000,44,10000,1,9999,0.100000,0,0,0.000000,4,1.000000,0.000000,4.099262,0,0,0,0,0,0,0
12,129999,12,120000,56,10000,0,9999,0.100000,0,0,0.000000,4,0.000000,0.000000,0.141084,0,0,0,0,0,0,0
12,129999,13,120000,44,10000,0,9999,0.100000,0,0,0.000000,4,0.000000,0.000000,0.134754,0,0,0,0,0,0,0
12,129999,14,120000,65,0,1,9999,0.100000,0,0,0.000000,4,1.000000,0.000000,4.392520,0,0,0,0,0,0,0
12,129999,15,120000,50,20000,0,9999,0.100000,0,0,0.000000,4,0.000000,0.000000,2.761605,0,0,0,0,0,0,0
12,129999,16,120000,50,20000,0,9999,0.100000,0,0,0.000000,4,0.000000,0.000000,0.083772,0,0,0,0,0,0,0
12,129999,17,120000,50,20000,0,9999,0.100000,0,0,0.000000,4,0.000000,0.000000,0.459860,0,0,0,0,0,0,0
12,129999,18,120000,56,10000,0,9999,0.100000,0,0,0.000000,4,0.000000,0.000000,0.366507,0,0,0,0,0,0,0
12,129999,19,120000,56,10000,1,9999,0.100000,0,0,0.000000,4,3.000000,0.000000,8.507422,0,0,0,0,0,0,0
12,129999,20,120000,50,20000,0,9999,0.100000,0,0,0.000000,4,0.000000,0.000000,4.287209,0,0,0,0,0,0,0
12,129999,21,120000,65,0,0,9999,0.100000,0,0,0.000000,4,0.000000,0.000000,0.721040,0,0,0,0,0,0,0
12,129999,22,120000,50,20000,0,9999,0.100000,0,0,0.000000,4,0.000000,0.000000,0.225572,0,0,0,0,0,0,0
12,129999,23,120000,44,10000,0,9999,0.065000,0,0,0.000000,4,0.000000,0.000000,0.079226,0,0,0,0,0,0,0
12,129999,24,120000,65,0,0,9999,0.100000,0,0,0.000000,4,0.000000,0.000000,0.167557,0,0,0,0,0,0,0
12,129999,25,120000,44,10000,0,9999,0.100000,0,0,0.000000,4,0.000000,0.000000,0.520306,0,0,0,0,0,0,0
12,129999,26,120000,56,10000,0,9999,0.135000,0,0,0.000000,4,0.000000,0.000000,0.092100,0,0,0,0,0,0,0
12,129999,27,120000,44,10000,0,9999,0.100000,0,0,0.000000,4,0.000000,0.000000,0.309413,0,0,0,0,0,0,0
12,129999,28,120000,56,10000,0,9999,0.100000,0,0,0.000000,4,0.000000,0.000000,0.292845,0,0,0,0,0,0,0
12,129999,29,120000,65,0,0,9999,0.100000,0,0,0.000000,4,0.000000,0.000000,3.734682,0,0,0,0,0,0,0
12,129999,30,120000,44,10000,0,9999,0.100000,0,0,0.000000,4,0.000000,0.000000,0.122060,0,0,0,0,0,0,0
12,129999,31,120000,65,0,0,9999,0.100000,0,0,0.000000,4,0.000000,0.000000,0.089089,0,0,0,0,0,0,0
12,129999,32,120000,50,20000,0,9999,0.100000,0,0,0.000000,4,0.000000,0.000000,1.628557,0,0,0,0,0,0,0
12,129999,33,120000,50,20000,0,9999,0.100000,0,0,0.000000,4,0.000000,0.000000,0.165459,0,0,0,0,0,0,0
12,129999,34,120000,50,20000,0,9999,0.100000,0,0,0.000000,4,0.000000,0.000000,24.049606,0,0,0,0,0,0,0
12,129999,35,120000,56,10000,0,9999,0.100000,0,0,0.000000,4,0.000000,0.000000,1.099717,0,0,0,0,0,0,0
12,129999,36,120000,44,10000,0,9999,0.100000,0,0,0.000000,4,0.000000,0.000000,1.924074,0,0,0,0,0,0,0
12,129999,37,120000,44,10000,0,9999,0.100000,0,0,0.000000,4,0.000000,0.000000,1.554607,0,0,0,0,0,0,0
