generation,iteration,robot,birthday,ancestor_id,ancestor_birthday,cell_id,age,sigma,maps,genomes,fitness,cells_in_map,dist_max,dist_pot_max,dist_total,com_rx,com_tx,obj_group1,obj_group2,obj_group3,obj_group4,obj_group5
0,9999,0,0,0,0,0,9999,0.100000,99,0,7.527674,0,2.000000,32.803509,3.679770,99,99,0,0,1,0,0
0,9999,1,0,1,0,0,9999,0.100000,99,0,0.233555,0,0.000000,19.183137,1.141699,99,99,0,0,0,0,1
0,9999,2,0,2,0,40,9999,0.100000,99,0,0.000000,0,2.000000,31.523011,10.336796,99,99,0,0,0,0,0
0,9999,3,0,3,0,40,9999,0.100000,99,0,0.000000,0,1.000000,25.796518,6.261324,99,99,0,0,0,0,0
0,9999,4,0,4,0,40,9999,0.100000,99,0,0.000000,0,2.000000,19.552487,7.531940,99,99,0,0,0,0,0
0,9999,5,0,5,0,0,9999,0.100000,99,0,0.018350,0,1.000000,18.005623,2.252351,99,99,0,0,0,0,1
0,9999,6,0,6,0,92,9999,0.100000,99,0,39.424889,0,7.000000,26.196605,14.350002,99,99,1,0,0,0,0
0,9999,7,0,7,0,40,9999,0.100000,99,0,0.000000,0,1.000000,24.312582,6.225082,99,99,0,0,0,0,0
0,9999,8,0,8,0,92,9999,0.100000,99,0,32.311864,0,6.000000,25.707960,13.252351,99,99,1,0,0,0,0
0,9999,9,0,9,0,40,9999,0.100000,99,0,0.000000,0,2.000000,24.339107,9.211705,99,99,0,0,0,0,0
0,9999,10,0,10,0,0,9999,0.100000,99,0,0.195533,0,2.000000,26.298466,6.501374,99,99,0,0,0,1,0
0,9999,11,0,11,0,0,9999,0.100000,99,0,1.666964,0,1.000000,22.742449,3.359187,99,99,0,1,0,0,0
0,9999,12,0,12,0,40,9999,0.100000,99,0,0.000000,0,1.000000,15.656854,10.488757,99,99,0,0,0,0,0
0,9999,13,0,13,0,40,9999,0.100000,99,0,0.000000,0,1.000000,21.537764,9.708699,99,99,0,0,0,0,0
0,9999,14,0,14,0,42,9999,0.100000,99,0,0.000000,0,7.000000,22.870120,17.602396,99,99,0,0,0,0,0
0,9999,15,0,15,0,40,9999,0.100000,99,0,0.000000,0,2.000000,31.341275,9.547426,99,99,0,0,0,0,0
0,9999,16,0,16,0,0,9999,0.100000,99,0,0.305922,0,1.000000,31.114214,4.308370,99,99,0,1,0,0,0
0,9999,17,0,17,0,40,9999,0.100000,99,0,0.000000,0,2.000000,22.467959,5.771889,99,99,0,0,0,0,0
0,9999,18,0,18,0,1,9999,0.100000,99,0,0.003254,0,4.000000,24.212670,9.185388,99,99,0,0,0,0,1
0,9999,19,0,19,0,40,9999,0.100000,99,0,0.000000,0,2.000000,27.356555,12.528206,99,99,0,0,0,0,0
0,9999,20,0,20,0,40,9999,0.100000,99,0,0.000000,0,2.000000,20.912378,5.074763,99,99,0,0,0,0,0
0,9999,21,0,21,0,41,9999,0.100000,99,0,0.000000,0,2.000000,13.909453,8.665775,99,99,0,0,0,0,0
0,9999,22,0,22,0,40,9999,0.100000,99,0,0.000000,0,2.000000,28.999474,9.590806,99,99,0,0,0,0,0
0,9999,23,0,23,0,40,9999,0.100000,99,0,0.000000,0,0.000000,24.475497,7.400249,99,99,0,0,0,0,0
0,9999,24,0,24,0,40,9999,0.100000,99,0,0.000000,0,2.000000,33.181242,3.921957,99,99,0,0,0,0,0
0,9999,25,0,25,0,40,9999,0.100000,99,0,0.000000,0,1.000000,27.976930,13.164429,99,99,0,0,0,0,0
0,9999,26,0,26,0,40,9999,0.100000,99,0,0.000000,0,2.000000,21.672618,8.655176,99,99,0,0,0,0,0
0,9999,27,0,27,0,91,9999,0.100000,99,0,17.668487,0,4.000000,25.923881,12.452390,99,99,1,0,0,0,0
0,9999,28,0,28,0,40,9999,0.100000,99,0,0.000000,0,1.000000,14.427188,5.121168,99,99,0,0,0,0,0
0,9999,29,0,29,0,40,9999,0.100000,99,0,0.000000,0,1.000000,20.104455,3.270211,99,99,0,0,0,0,0
0,9999,30,0,30,0,41,9999,0.100000,99,0,0.000000,0,3.000000,19.204890,13.071732,99,99,0,0,0,0,0
0,9999,31,0,31,0,40,9999,0.100000,99,0,0.000000,0,2.000000,29.360010,9.494216,99,99,0,0,0,0,0
0,9999,32,0,32,0,41,9999,0.100000,99,0,0.000000,0,5.000000,29.821453,17.911231,99,99,0,0,0,0,0
0,9999,33,0,33,0,40,9999,0.100000,99,0,0.000000,0,1.000000,16.129437,3.896195,99,99,0,0,0,0,0
0,9999,34,0,34,0,40,9999,0.100000,99,0,0.000000,0,1.000000,15.842089,8.332381,99,99,0,0,0,0,0
0,9999,35,0,35,0,0,9999,0.100000,99,0,0.000907,0,2.000000,27.344163,6.804566,99,99,0,0,0,1,0
0,9999,36,0,36,0,92,9999,0.100000,99,0,11.388933,0,5.000000,23.732079,12.876436,99,99,1,0,0,0,0
0,9999,37,0,37,0,40,9999,0.100000,99,0,0.000000,0,0.000000,18.832327,0.786036,99,99,0,0,0,0,0
0,9999,38,0,38,0,90,9999,0.100000,99,0,13.343787,0,3.000000,28.500000,11.782594,99,99,1,0,0,0,0
0,9999,39,0,39,0,40,9999,0.100000,99,0,0.000000,0,1.000000,26.292637,10.274328,99,99,0,0,0,0,0
0,9999,40,0,40,0,40,9999,0.100000,99,0,0.000000,0,1.000000,17.942921,9.042683,99,99,0,0,0,0,0
0,9999,41,0,41,0,40,9999,0.100000,99,0,0.000000,0,1.000000,23.730623,10.176918,99,99,0,0,0,0,0
0,9999,42,0,42,0,41,9999,0.100000,99,0,0.000000,0,3.000000,27.226143,13.033788,99,99,0,0,0,0,0
0,9999,43,0,43,0,0,9999,0.100000,99,0,0.002101,0,1.000000,11.131371,2.058825,99,99,0,0,0,1,0
0,9999,44,0,44,0,40,9999,0.100000,99,0,0.000000,0,1.000000,20.872442,11.874044,99,99,0,0,0,0,0
0,9999,45,0,45,0,0,9999,0.100000,99,0,1.002577,0,1.000000,23.388054,3.800979,99,99,0,0,1,0,0
0,9999,46,0,46,0,2,9999,0.100000,99,0,0.217359,0,4.000000,18.256513,9.330273,99,99,0,0,0,0,1
0,9999,47,0,47,0,0,9999,0.100000,99,0,0.013949,0,2.000000,31.317833,5.710872,99,99,0,0,1,0,0
0,9999,48,0,48,0,40,9999,0.100000,99,0,0.000000,0,2.000000,27.551353,13.509250,99,99,0,0,0,0,0
0,9999,49,0,49,0,49,9999,0.100000,99,0,66.713482,0,15.000000,15.215362,22.702576,99,99,1,1,0,0,0
0,9999,50,0,50,0,40,9999,0.100000,99,0,0.000000,0,1.000000,32.411604,15.665193,99,99,0,0,0,0,0
0,9999,51,0,51,0,1,9999,0.100000,99,0,18.947782,0,5.000000,25.565667,10.197473,99,99,0,1,0,0,0
0,9999,52,0,52,0,40,9999,0.100000,99,0,0.000000,0,2.000000,29.887936,6.426111,99,99,0,0,0,0,0
0,9999,53,0,53,0,92,9999,0.100000,99,0,7.183537,0,6.000000,28.061285,17.324428,99,99,1,0,0,0,0
0,9999,54,0,54,0,40,9999,0.100000,99,0,0.000000,0,2.000000,28.341211,7.941149,99,99,0,0,0,0,0
0,9999,55,0,55,0,40,9999,0.100000,99,0,0.000000,0,0.000000,26.643317,3.372269,99,99,0,0,0,0,0
0,9999,56,0,56,0,42,9999,0.100000,99,0,0.000000,0,4.000000,15.608030,15.108348,99,99,0,0,0,0,0
0,9999,57,0,57,0,97,9999,0.100000,99,0,73.566576,0,15.000000,19.701546,19.304584,99,99,1,0,0,0,0
0,9999,58,0,58,0,40,9999,0.100000,99,0,0.000000,0,2.000000,25.179592,7.705674,99,99,0,0,0,0,0
0,9999,59,0,59,0,93,9999,0.100000,99,0,50.773764,0,7.000000,21.162885,19.510956,99,99,1,0,0,0,0
0,9999,60,0,60,0,93,9999,0.100000,99,0,61.553295,0,10.000000,30.969740,28.426962,99,99,1,0,0,0,0
0,9999,61,0,61,0,41,9999,0.100000,99,0,0.000000,0,4.000000,30.961155,15.394809,99,99,0,0,0,0,0
0,9999,62,0,62,0,41,9999,0.100000,99,0,0.000000,0,5.000000,26.532695,9.467366,99,99,0,0,0,0,0
0,9999,63,0,63,0,40,9999,0.100000,99,0,0.000000,0,3.000000,31.786234,9.962160,99,99,0,0,0,0,0
0,9999,64,0,64,0,40,9999,0.100000,99,0,0.000000,0,2.000000,31.474170,10.448150,99,99,0,0,0,0,0
0,9999,65,0,65,0,41,9999,0.100000,99,0,0.000000,0,2.000000,15.315073,10.657073,99,99,0,0,0,0,0
0,9999,66,0,66,0,40,9999,0.100000,99,0,0.000000,0,2.000000,29.906029,16.531735,99,99,0,0,0,0,0
0,9999,67,0,67,0,41,9999,0.100000,99,0,0.000000,0,3.000000,23.613229,10.967879,99,99,0,0,0,0,0
0,9999,68,0,68,0,40,9999,0.100000,99,0,0.000000,0,1.000000,25.512898,4.437521,99,99,0,0,0,0,0
0,9999,69,0,69,0,41,9999,0.100000,99,0,0.000000,0,3.000000,16.074537,9.662554,99,99,0,0,0,0,0
0,9999,70,0,70,0,0,9999,0.100000,99,0,0.433803,0,0.000000,25.368799,0.956420,99,99,0,0,0,0,1
0,9999,71,0,71,0,90,9999,0.100000,99,0,7.813251,0,1.000000,22.143311,3.901462,99,99,1,0,0,0,0
0,9999,72,0,72,0,0,9999,0.100000,99,0,0.002445,0,1.000000,29.200521,2.888740,99,99,0,0,0,1,0
0,9999,73,0,73,0,41,9999,0.100000,99,0,0.000000,0,4.000000,24.322360,13.153688,99,99,0,0,0,0,0
0,9999,74,0,74,0,90,9999,0.100000,99,0,3.696723,0,1.000000,14.617359,3.650242,99,99,1,0,0,0,0
0,9999,75,0,75,0,42,9999,0.100000,99,0,0.000000,0,6.000000,25.839823,7.981161,99,99,0,0,0,0,0
0,9999,76,0,76,0,40,9999,0.100000,99,0,0.000000,0,1.000000,22.665702,4.445267,99,99,0,0,0,0,0
0,9999,77,0,77,0,40,9999,0.100000,99,0,0.000000,0,1.000000,26.164467,5.716221,99,99,0,0,0,0,0
0,9999,78,0,78,0,40,9999,0.100000,99,0,0.000000,0,0.000000,23.787313,1.435733,99,99,0,0,0,0,0
0,9999,79,0,79,0,94,9999,0.100000,99,0,36.760901,0,9.000000,18.920202,15.863531,99,99,1,0,0,0,0
0,9999,80,0,80,0,40,9999,0.100000,99,0,0.000000,0,0.000000,22.903488,1.506361,99,99,0,0,0,0,0
0,9999,81,0,81,0,90,9999,0.100000,99,0,0.914023,0,0.000000,18.962700,1.784170,99,99,1,0,0,0,0
0,9999,82,0,82,0,40,9999,0.100000,99,0,0.000000,0,1.000000,14.382921,16.836975,99,99,0,0,0,0,0
0,9999,83,0,83,0,41,9999,0.100000,99,0,0.000000,0,4.000000,32.826519,17.486786,99,99,0,0,0,0,0
0,9999,84,0,84,0,40,9999,0.100000,99,0,0.000000,0,0.000000,27.712425,0.815246,99,99,0,0,0,0,0
0,9999,85,0,85,0,40,9999,0.100000,99,0,0.000000,0,1.000000,17.017835,1.935517,99,99,0,0,0,0,0
0,9999,86,0,86,0,40,9999,0.100000,99,0,0.000000,0,2.000000,32.287440,4.379685,99,99,0,0,0,0,0
0,9999,87,0,87,0,40,9999,0.100000,99,0,0.000000,0,3.000000,32.775426,12.575489,99,99,0,0,0,0,0
0,9999,88,0,88,0,40,9999,0.100000,99,0,0.000000,0,2.000000,26.181780,9.089509,99,99,0,0,0,0,0
0,9999,89,0,89,0,92,9999,0.100000,99,0,21.134609,0,7.000000,26.154875,24.570710,99,99,1,0,0,0,0
0,9999,90,0,90,0,40,9999,0.100000,99,0,0.000000,0,2.000000,20.111874,13.212650,99,99,0,0,0,0,0
0,9999,91,0,91,0,94,9999,0.100000,99,0,63.316784,0,12.000000,25.415576,19.146793,99,99,1,0,0,0,0
0,9999,92,0,92,0,40,9999,0.100000,99,0,0.000000,0,2.000000,27.107308,10.632941,99,99,0,0,0,0,0
0,9999,93,0,93,0,40,9999,0.100000,99,0,0.000000,0,1.000000,30.171763,4.707724,99,99,0,0,0,0,0
0,9999,94,0,94,0,92,9999,0.100000,99,0,40.627871,0,7.000000,24.586638,15.738402,99,99,1,0,0,0,0
0,9999,95,0,95,0,41,9999,0.100000,99,0,0.000000,0,3.000000,18.981091,6.178609,99,99,0,0,0,0,0
0,9999,96,0,96,0,90,9999,0.100000,99,0,4.871033,0,3.000000,30.988092,10.547636,99,99,1,0,0,0,0
0,9999,97,0,97,0,40,9999,0.100000,99,0,0.000000,0,2.000000,19.394147,10.214362,99,99,0,0,0,0,0
0,9999,98,0,98,0,40,9999,0.100000,99,0,0.000000,0,1.000000,24.029255,2.899120,99,99,0,0,0,0,0
0,9999,99,0,99,0,96,9999,0.100000,99,0,78.940389,0,14.000000,21.036757,20.839351,99,99,1,0,0,0,0
1,19999,0,0,0,0,0,19999,0.100000,99,0,0.812129,1,0.000000,34.752127,0.436895,99,99,0,0,1,0,0
1,19999,1,10000,89,0,0,9999,0.100000,99,0,0.011948,11,0.000000,18.929175,0.109927,99,99,0,0,0,0,1
1,19999,2,10000,57,0,40,9999,0.100000,99,0,0.000000,5,3.000000,33.768131,7.879597,99,99,0,0,0,0,0
1,19999,3,10000,3,0,40,9999,0.100000,99,0,0.000000,2,1.000000,25.825274,6.134018,99,99,0,0,0,0,0
1,19999,4,10000,46,0,40,9999,0.100000,99,0,0.000000,13,0.000000,20.158883,3.479966,99,99,0,0,0,0,0
1,19999,5,10000,49,0,0,9999,0.100000,99,0,2.510301,12,0.000000,18.939994,1.979302,99,99,0,0,0,0,1
1,19999,6,10000,14,0,41,9999,0.100000,99,0,0.000000,13,4.000000,31.270948,16.351346,99,99,0,0,0,0,0
1,19999,7,10000,0,0,41,9999,0.100000,99,0,0.000000,13,4.000000,24.980327,14.825070,99,99,0,0,0,0,0
1,19999,8,10000,3,0,40,9999,0.100000,99,0,0.000000,3,1.000000,30.877525,7.162698,99,99,0,0,0,0,0
1,19999,9,10000,38,0,40,9999,0.100000,99,0,0.000000,12,1.000000,27.007916,3.922895,99,99,0,0,0,0,0
1,19999,10,10000,0,0,0,9999,0.100000,99,0,0.207656,4,0.000000,24.866884,0.175472,99,99,0,0,0,1,0
1,19999,11,10000,56,0,0,9999,0.100000,99,0,3.222602,12,0.000000,21.851230,0.744117,99,99,0,1,0,0,0
1,19999,12,10000,57,0,41,9999,0.100000,99,0,0.000000,4,2.000000,16.727085,9.595030,99,99,0,0,0,0,0
1,19999,13,10000,60,0,40,9999,0.100000,99,0,0.000000,12,1.000000,20.100943,5.475682,99,99,0,0,0,0,0
1,19999,14,10000,49,0,42,9999,0.100000,99,0,0.000000,13,4.000000,18.519765,12.389727,99,99,0,0,0,0,0
1,19999,15,10000,8,0,40,9999,0.100000,99,0,0.000000,11,0.000000,30.163612,3.908439,99,99,0,0,0,0,0
1,19999,16,10000,56,0,0,9999,0.100000,99,0,0.022968,13,0.000000,30.092396,3.399544,99,99,0,1,0,0,0
1,19999,17,10000,59,0,40,9999,0.100000,99,0,0.000000,13,0.000000,21.763242,0.584654,99,99,0,0,0,0,0
1,19999,18,10000,83,0,0,9999,0.100000,99,0,0.029467,13,0.000000,27.728018,0.087193,99,99,0,0,0,0,1
1,19999,19,10000,0,0,40,9999,0.100000,99,0,0.000000,3,0.000000,29.715274,2.312986,99,99,0,0,0,0,0
1,19999,20,10000,38,0,40,9999,0.100000,99,0,0.000000,11,0.000000,19.080854,0.161460,99,99,0,0,0,0,0
1,19999,21,10000,0,0,41,9999,0.100000,99,0,0.000000,5,3.000000,16.151176,7.412619,99,99,0,0,0,0,0
1,19999,22,10000,0,0,40,9999,0.100000,99,0,0.000000,13,1.000000,29.231974,20.033502,99,99,0,0,0,0,0
1,19999,23,10000,73,0,40,9999,0.100000,99,0,0.000000,13,2.000000,23.817257,13.523718,99,99,0,0,0,0,0
1,19999,24,10000,8,0,40,9999,0.100000,99,0,0.000000,5,0.000000,34.541997,0.335508,99,99,0,0,0,0,0
1,19999,25,10000,0,0,40,9999,0.100000,99,0,0.000000,5,0.000000,29.040170,5.567056,99,99,0,0,0,0,0
1,19999,26,10000,14,0,40,9999,0.100000,99,0,0.000000,13,2.000000,19.915990,10.932323,99,99,0,0,0,0,0
1,19999,27,10000,57,0,0,9999,0.100000,99,0,0.016584,13,1.000000,26.708007,8.869016,99,99,0,0,0,1,0
1,19999,28,10000,57,0,42,9999,0.100000,99,0,0.000000,13,3.000000,13.998113,15.146111,99,99,0,0,0,0,0
1,19999,29,10000,0,0,40,9999,0.100000,99,0,0.000000,3,0.000000,19.382468,0.129515,99,99,0,0,0,0,0
1,19999,30,10000,30,0,40,9999,0.100000,99,0,0.000000,13,0.000000,20.098736,12.502485,99,99,0,0,0,0,0
1,19999,31,10000,0,0,40,9999,0.100000,99,0,0.000000,3,2.000000,30.505736,10.347147,99,99,0,0,0,0,0
1,19999,32,10000,89,0,41,9999,0.100000,99,0,0.000000,11,5.000000,29.377483,19.632917,99,99,0,0,0,0,0
1,19999,33,10000,14,0,99,9999,0.100000,99,0,82.685615,13,16.000000,16.299353,23.725845,99,99,1,0,0,0,0
1,19999,34,10000,57,0,2,9999,0.100000,99,0,0.046329,5,4.000000,14.117816,12.719703,99,99,0,0,0,0,1
1,19999,35,10000,49,0,0,9999,0.100000,99,0,0.817795,13,0.000000,29.924893,0.347243,99,99,0,0,0,1,0
1,19999,36,10000,51,0,92,9999,0.100000,99,0,37.830123,13,7.000000,25.882589,15.043938,99,99,1,0,0,0,0
1,19999,37,10000,60,0,40,9999,0.100000,99,0,0.000000,13,0.000000,18.552455,0.961241,99,99,0,0,0,0,0
1,19999,38,10000,21,0,40,9999,0.100000,99,0,0.000000,6,2.000000,30.950484,11.902822,99,99,0,0,0,0,0
1,19999,39,0,39,0,40,19999,0.100000,99,0,0.000000,3,1.000000,25.638652,5.438385,99,99,0,0,0,0,0
1,19999,40,10000,8,0,95,9999,0.100000,99,0,52.823919,11,10.000000,18.290242,22.991802,99,99,1,0,0,0,0
1,19999,41,10000,59,0,40,9999,0.100000,99,0,0.000000,13,1.000000,25.614608,9.766910,99,99,0,0,0,0,0
1,19999,42,10000,80,0,42,9999,0.100000,99,0,0.000000,6,7.000000,30.149017,11.760897,99,99,0,0,-1,0,0
1,19999,43,10000,59,0,0,9999,0.100000,99,0,0.492023,13,0.000000,12.366359,0.761228,99,99,0,0,0,1,0
1,19999,44,10000,80,0,93,9999,0.100000,99,0,33.278684,6,8.000000,22.395235,16.797238,99,99,1,0,0,0,0
1,19999,45,10000,8,0,0,9999,0.100000,99,0,0.668310,13,0.000000,22.119748,0.421230,99,99,0,0,1,0,0
1,19999,46,10000,80,0,40,9999,0.100000,99,0,0.000000,7,0.000000,17.349456,0.155690,99,99,0,0,0,0,0
1,19999,47,10000,38,0,0,9999,0.100000,99,0,0.769877,9,0.000000,30.856268,0.253222,99,99,0,0,1,0,0
1,19999,48,10000,89,0,40,9999,0.100000,99,0,0.000000,11,0.000000,28.090988,3.494771,99,99,0,0,0,0,0
1,19999,49,10000,49,0,0,9999,0.100000,99,0,2.807468,8,0.000000,27.669186,1.014987,99,99,0,1,0,0,0
1,19999,50,10000,21,0,40,9999,0.100000,99,0,0.000000,9,1.000000,32.021627,6.989141,99,99,0,0,0,0,0
1,19999,51,10000,79,0,91,9999,0.100000,99,0,5.340833,12,4.000000,31.183731,13.740216,99,99,1,0,0,0,0
1,19999,52,10000,0,0,40,9999,0.100000,99,0,0.000000,13,2.000000,31.565267,8.585437,99,99,0,0,0,0,0
1,19999,53,10000,0,0,40,9999,0.100000,99,0,0.000000,9,2.000000,22.756345,4.205020,99,99,0,0,0,0,0
1,19999,54,10000,51,0,40,9999,0.100000,99,0,0.000000,13,1.000000,26.482477,8.211856,99,99,0,0,0,0,0
1,19999,55,10000,21,0,40,9999,0.100000,99,0,0.000000,9,2.000000,26.043988,9.000001,99,99,0,0,0,0,0
1,19999,56,10000,57,0,41,9999,0.100000,99,0,0.000000,10,2.000000,14.046588,4.829863,99,99,0,0,0,0,0
1,19999,57,10000,8,0,40,9999,0.100000,99,0,0.000000,4,2.000000,30.344621,14.153968,99,99,0,0,0,0,0
1,19999,58,10000,59,0,40,9999,0.100000,99,0,0.000000,13,1.000000,23.009136,11.736326,99,99,0,0,0,0,0
1,19999,59,10000,8,0,40,9999,0.100000,99,0,0.000000,12,1.000000,27.499687,9.115585,99,99,0,0,0,0,0
1,19999,60,10000,8,0,40,9999,0.100000,99,0,0.000000,12,0.000000,31.390599,1.184325,99,99,0,0,0,0,0
1,19999,61,10000,38,0,40,9999,0.100000,99,0,0.000000,13,2.000000,34.895303,10.223466,99,99,0,0,-1,0,0
1,19999,62,10000,14,0,40,9999,0.100000,99,0,0.000000,13,0.000000,21.825281,0.830131,99,99,0,0,0,0,0
1,19999,63,10000,38,0,41,9999,0.100000,99,0,0.000000,13,5.000000,33.417239,10.817343,99,99,0,0,0,0,0
1,19999,64,10000,0,0,41,9999,0.100000,99,0,0.000000,13,4.000000,29.948219,12.072141,99,99,0,0,0,0,0
1,19999,65,10000,51,0,42,9999,0.100000,99,0,0.000000,12,4.000000,18.173942,13.169255,99,99,0,0,0,0,0
1,19999,66,10000,8,0,40,9999,0.100000,99,0,0.000000,13,0.000000,28.161462,0.764217,99,99,0,0,0,0,0
1,19999,67,10000,57,0,42,9999,0.100000,99,0,0.000000,12,5.000000,20.266197,9.006969,99,99,0,0,0,0,0
1,19999,68,10000,49,0,40,9999,0.100000,99,0,0.000000,13,0.000000,25.124105,0.456905,99,99,0,0,0,0,0
1,19999,69,10000,56,0,41,9999,0.100000,99,0,0.000000,13,3.000000,16.761022,16.906234,99,99,0,0,0,0,0
1,19999,70,10000,80,0,0,9999,0.100000,99,0,0.743068,12,0.000000,24.974941,0.210944,99,99,0,0,0,0,1
1,19999,71,10000,60,0,95,9999,0.100000,99,0,75.768490,12,13.000000,21.803745,23.102083,99,99,2,0,0,0,0
1,19999,72,10000,51,0,40,9999,0.100000,99,0,0.000000,13,0.000000,27.802051,0.220612,99,99,0,0,0,0,0
1,19999,73,10000,0,0,40,9999,0.100000,99,0,0.000000,13,1.000000,28.043882,5.899315,99,99,0,0,0,0,0
1,19999,74,10000,38,0,90,9999,0.100000,99,0,1.381825,13,0.000000,15.592556,1.047954,99,99,1,0,0,0,0
1,19999,75,10000,0,0,40,9999,0.100000,99,0,0.000000,13,2.000000,31.262498,11.730077,99,99,0,0,0,0,0
1,19999,76,10000,21,0,40,9999,0.100000,99,0,0.000000,10,1.000000,21.608560,6.572864,99,99,0,0,0,0,0
1,19999,77,10000,56,0,41,9999,0.100000,99,0,0.000000,12,4.000000,25.867656,5.936420,99,99,0,0,0,0,0
1,19999,78,10000,8,0,40,9999,0.100000,99,0,0.000000,13,0.000000,24.000152,0.902922,99,99,0,0,0,0,0
1,19999,79,10000,38,0,40,9999,0.100000,99,0,0.000000,11,0.000000,28.025208,4.465250,99,99,0,0,0,0,0
1,19999,80,10000,57,0,40,9999,0.100000,99,0,0.000000,4,0.000000,22.392118,0.345740,99,99,0,0,0,0,0
1,19999,81,10000,73,0,90,9999,0.100000,99,0,0.059908,13,0.000000,18.712200,0.643799,99,99,1,0,0,0,0
1,19999,82,10000,51,0,40,9999,0.100000,99,0,0.000000,12,0.000000,14.637613,8.759866,99,99,0,0,0,0,0
1,19999,83,10000,83,0,40,9999,0.100000,99,0,0.000000,13,1.000000,31.055773,7.782009,99,99,0,0,0,0,0
1,19999,84,10000,80,0,40,9999,0.100000,99,0,0.000000,13,0.000000,28.051777,0.141906,99,99,0,0,0,0,0
1,19999,85,10000,0,0,40,9999,0.100000,99,0,0.000000,11,0.000000,17.020938,0.227041,99,99,0,0,0,0,0
1,19999,86,10000,38,0,40,9999,0.100000,99,0,0.000000,12,2.000000,34.278607,14.087574,99,99,0,0,0,0,0
1,19999,87,10000,0,0,40,9999,0.100000,99,0,0.000000,13,1.000000,30.104957,2.709564,99,99,0,0,0,0,0
1,19999,88,10000,99,0,0,9999,0.100000,99,0,5.113745,13,0.000000,28.066573,2.172245,99,99,0,1,0,0,0
1,19999,89,10000,57,0,41,9999,0.100000,99,0,0.000000,11,3.000000,27.357773,18.000770,99,99,0,0,0,0,0
1,19999,90,10000,8,0,41,9999,0.100000,99,0,0.000000,11,3.000000,21.953591,13.271855,99,99,0,0,0,0,0
1,19999,91,10000,38,0,40,9999,0.100000,99,0,0.000000,13,3.000000,32.631172,11.866332,99,99,0,0,0,0,0
1,19999,92,10000,0,0,40,9999,0.100000,99,0,0.000000,13,2.000000,29.401529,5.994422,99,99,0,0,0,0,0
1,19999,93,10000,21,0,40,9999,0.100000,99,0,0.000000,11,0.000000,32.066831,2.404874,99,99,0,0,0,0,0
1,19999,94,10000,99,0,40,9999,0.100000,99,0,0.000000,13,0.000000,29.733449,8.324058,99,99,0,0,0,0,0
1,19999,95,10000,80,0,40,9999,0.100000,99,0,0.000000,13,0.000000,16.707948,1.662472,99,99,0,0,0,0,0
1,19999,96,10000,14,0,40,9999,0.100000,99,0,0.000000,13,0.000000,32.216603,6.366408,99,99,0,0,0,0,0
1,19999,97,10000,60,0,40,9999,0.100000,99,0,0.000000,13,0.000000,20.909744,0.881339,99,99,0,0,0,0,0
1,19999,98,10000,51,0,40,9999,0.100000,99,0,0.000000,13,0.000000,24.599195,0.119488,99,99,0,0,0,0,0
1,19999,99,10000,0,0,41,9999,0.100000,99,0,0.000000,13,6.000000,30.249350,11.257813,99,99,0,0,0,0,0
2,29999,0,20000,38,0,0,9999,0.100000,99,0,2.654323,13,1.000000,34.606194,1.919900,99,99,0,0,1,0,0
2,29999,1,20000,38,0,0,9999,0.100000,99,0,0.192400,13,0.000000,18.905020,0.107675,99,99,0,0,0,0,1
2,29999,2,20000,56,0,40,9999,0.100000,99,0,0.000000,13,3.000000,31.515769,11.964468,99,99,0,0,0,0,0
2,29999,3,20000,8,0,40,9999,0.100000,99,0,0.000000,13,1.000000,26.321546,9.673522,99,99,0,0,0,0,0
2,29999,4,20000,99,0,40,9999,0.100000,99,0,0.000000,13,0.000000,19.206702,0.093982,99,99,0,0,0,0,0
2,29999,5,20000,51,0,40,9999,0.100000,99,0,0.000000,13,0.000000,18.262207,0.540652,99,99,0,0,0,0,0
2,29999,6,20000,80,0,43,9999,0.100000,99,0,0.000000,13,11.000000,27.182291,12.694332,99,99,0,0,0,0,0
2,29999,7,20000,91,0,40,9999,0.100000,99,0,0.000000,13,1.000000,21.251148,24.629226,99,99,0,0,0,0,0
2,29999,8,20000,0,0,40,9999,0.100000,99,0,0.000000,13,2.000000,29.639553,10.509617,99,99,0,0,0,0,0
2,29999,9,20000,8,0,40,9999,0.100000,99,0,0.000000,13,2.000000,27.144016,2.935890,99,99,0,0,0,0,0
2,29999,10,20000,38,0,0,9999,0.100000,99,0,0.244336,13,0.000000,24.894793,0.198160,99,99,0,0,0,1,0
2,29999,11,20000,0,0,0,9999,0.100000,99,0,4.165561,13,0.000000,21.367467,0.770818,99,99,0,1,0,0,0
2,29999,12,20000,51,0,40,9999,0.100000,99,0,0.000000,13,0.000000,17.610522,0.538129,99,99,0,0,0,0,0
2,29999,13,20000,99,0,40,9999,0.100000,99,0,0.000000,13,0.000000,18.393594,0.632280,99,99,0,0,0,0,0
2,29999,14,20000,49,0,40,9999,0.100000,99,0,0.000000,13,0.000000,16.776043,4.586910,99,99,0,0,0,0,0
2,29999,15,20000,91,0,40,9999,0.100000,99,0,0.000000,13,1.000000,29.662495,1.395883,99,99,0,0,0,0,0
2,29999,16,20000,59,0,0,9999,0.100000,99,0,2.176466,13,0.000000,29.829976,0.589887,99,99,0,1,0,0,0
2,29999,17,20000,46,0,40,9999,0.100000,99,0,0.000000,13,1.000000,21.823231,7.681490,99,99,0,0,0,0,0
2,29999,18,20000,59,0,0,9999,0.100000,99,0,0.075373,13,0.000000,27.739288,0.074925,99,99,0,0,0,0,1
2,29999,19,20000,83,0,40,9999,0.100000,99,0,0.000000,13,0.000000,29.880349,0.530609,99,99,0,0,0,0,0
2,29999,20,20000,59,0,40,9999,0.100000,99,0,0.000000,13,0.000000,19.057209,0.127906,99,99,0,0,0,0,0
2,29999,21,20000,0,0,41,9999,0.065000,99,0,0.000000,13,2.000000,16.207921,8.027653,99,99,0,0,0,0,0
2,29999,22,20000,91,0,0,9999,0.100000,99,0,0.780986,13,0.000000,29.884546,2.789597,99,99,0,0,1,0,0
2,29999,23,20000,80,0,41,9999,0.100000,99,0,0.000000,13,3.000000,24.888155,10.047361,99,99,0,0,0,0,0
2,29999,24,20000,14,0,40,9999,0.100000,99,0,0.000000,13,1.000000,34.538531,1.692024,99,99,0,0,0,0,0
2,29999,25,20000,38,0,40,9999,0.100000,99,0,0.000000,13,0.000000,29.207356,8.388011,99,99,0,0,0,0,0
2,29999,26,20000,91,0,40,9999,0.100000,99,0,0.000000,13,0.000000,18.602299,0.293628,99,99,0,0,0,0,0
2,29999,27,20000,99,0,0,9999,0.100000,99,0,1.274476,13,0.000000,27.590142,0.363527,99,99,0,0,0,1,0
2,29999,28,20000,59,0,40,9999,0.100000,99,0,0.000000,13,0.000000,16.722858,21.574582,99,99,0,0,0,0,0
2,29999,29,20000,49,0,40,9999,0.100000,99,0,0.000000,13,0.000000,19.360030,0.078911,99,99,0,0,0,0,0
2,29999,30,20000,0,0,41,9999,0.100000,99,0,0.000000,13,3.000000,20.470122,12.323287,99,99,0,0,0,0,0
2,29999,31,20000,14,0,40,9999,0.100000,99,0,0.000000,13,0.000000,31.261459,8.564210,99,99,0,0,0,0,0
2,29999,32,20000,80,0,40,9999,0.100000,99,0,0.000000,13,0.000000,29.545191,4.392526,99,99,0,0,0,0,0
2,29999,33,20000,83,0,40,9999,0.100000,99,0,0.000000,14,2.000000,29.099349,4.835082,99,99,0,0,0,0,0
2,29999,34,20000,80,0,0,9999,0.100000,99,0,0.176953,13,0.000000,17.003485,0.176912,99,99,0,0,0,0,1
2,29999,35,20000,83,0,0,9999,0.100000,99,0,0.687367,13,0.000000,29.966811,0.450327,99,99,0,0,0,1,0
2,29999,36,20000,0,0,40,9999,0.100000,99,0,0.000000,13,2.000000,31.043108,9.757989,99,99,0,0,0,0,0
2,29999,37,20000,59,0,0,9999,0.100000,99,0,1.254862,13,0.000000,17.823583,0.335541,99,99,0,0,0,0,1
2,29999,38,20000,14,0,40,9999,0.100000,99,0,0.000000,13,3.000000,29.179221,5.350969,99,99,0,0,0,0,0
2,29999,39,20000,8,0,41,9999,0.100000,99,0,0.000000,13,4.000000,24.685932,20.241204,99,99,0,0,0,0,0
2,29999,40,20000,46,0,41,9999,0.100000,99,0,0.000000,14,3.000000,27.982008,8.257801,99,99,0,0,0,0,0
2,29999,41,20000,99,0,40,9999,0.100000,99,0,0.000000,14,2.000000,25.175084,7.310046,99,99,0,0,0,0,0
2,29999,42,20000,80,0,42,9999,0.100000,99,0,0.000000,13,9.000000,35.043152,10.724311,99,99,0,0,0,0,0
2,29999,43,20000,8,0,0,9999,0.100000,99,0,0.326034,13,0.000000,12.500388,0.692058,99,99,0,0,0,1,0
2,29999,44,20000,0,0,40,9999,0.100000,99,0,0.000000,13,0.000000,29.569293,0.454991,99,99,0,0,0,0,0
2,29999,45,20000,59,0,0,9999,0.100000,99,0,4.253359,13,0.000000,22.183666,0.888613,99,99,0,0,1,0,0
2,29999,46,20000,83,0,40,9999,0.100000,99,0,0.000000,13,0.000000,17.417755,0.121938,99,99,0,0,0,0,0
2,29999,47,20000,80,0,40,9999,0.100000,99,0,0.000000,14,0.000000,30.811621,1.392003,99,99,0,0,0,0,0
2,29999,48,20000,80,0,40,9999,0.100000,99,0,0.000000,13,0.000000,28.011602,2.792941,99,99,0,0,0,0,0
2,29999,49,20000,0,0,0,9999,0.100000,99,0,0.065402,14,2.000000,27.031495,2.880561,99,99,0,1,0,0,0
2,29999,50,20000,99,0,40,9999,0.100000,99,0,0.000000,13,2.000000,31.806414,7.109306,99,99,0,0,0,0,0
2,29999,51,20000,56,0,40,9999,0.100000,99,0,0.000000,13,0.000000,29.645738,0.593783,99,99,0,0,0,0,0
2,29999,52,20000,14,0,41,9999,0.100000,99,0,0.000000,13,4.000000,30.702599,8.858309,99,99,0,0,0,0,0
2,29999,53,20000,14,0,40,9999,0.100000,99,0,0.000000,13,2.000000,19.791624,13.415942,99,99,0,0,0,0,0
2,29999,54,20000,99,0,41,9999,0.100000,99,0,0.000000,13,4.000000,27.413093,12.297019,99,99,0,0,0,0,0
2,29999,55,20000,14,0,41,9999,0.100000,99,0,0.000000,13,3.000000,24.227394,20.112258,99,99,0,0,0,0,0
2,29999,56,20000,38,0,40,9999,0.100000,99,0,0.000000,13,0.000000,12.374270,1.364671,99,99,0,0,0,0,0
2,29999,57,20000,14,0,40,9999,0.100000,99,0,0.000000,13,1.000000,29.789222,2.141123,99,99,0,0,0,0,0
2,29999,58,20000,14,0,40,9999,0.100000,99,0,0.000000,13,2.000000,24.257641,10.317076,99,99,0,0,0,0,0
2,29999,59,20000,80,0,40,9999,0.100000,99,0,0.000000,14,2.000000,26.888161,8.482890,99,99,0,0,0,0,0
2,29999,60,20000,99,0,40,9999,0.100000,99,0,0.000000,13,0.000000,30.604735,1.285630,99,99,0,0,0,0,0
2,29999,61,20000,59,0,0,9999,0.100000,99,0,0.000000,13,1.000000,35.538083,13.925729,99,99,0,0,1,0,0
2,29999,62,20000,80,0,40,9999,0.100000,99,0,0.000000,13,0.000000,21.247736,0.903113,99,99,0,0,0,0,0
2,29999,63,20000,51,0,42,9999,0.100000,99,0,0.000000,14,7.000000,30.498973,13.792120,99,99,0,0,0,0,0
2,29999,64,20000,8,0,40,9999,0.100000,99,0,0.000000,13,2.000000,30.765999,11.992136,99,99,0,0,0,0,0
2,29999,65,20000,99,0,92,9999,0.100000,99,0,26.129215,13,6.000000,22.315807,19.516677,99,99,1,0,0,0,0
2,29999,66,20000,38,0,40,9999,0.100000,99,0,0.000000,13,0.000000,28.179669,0.761967,99,99,0,0,0,0,0
2,29999,67,20000,80,0,40,9999,0.100000,99,0,0.000000,13,2.000000,19.177955,10.753238,99,99,0,0,0,0,0
2,29999,68,20000,80,0,40,9999,0.100000,99,0,0.000000,13,0.000000,24.906723,0.796145,99,99,0,0,0,0,0
2,29999,69,20000,83,0,43,9999,0.100000,99,0,0.000000,14,5.000000,13.047980,13.623645,99,99,0,0,0,0,0
2,29999,70,20000,83,0,0,9999,0.100000,99,0,0.600321,13,0.000000,24.790958,0.190393,99,99,0,0,0,0,1
2,29999,71,20000,38,0,90,9999,0.100000,99,0,10.911103,13,2.000000,28.710132,3.070713,99,99,1,0,0,0,0
2,29999,72,20000,83,0,40,9999,0.100000,99,0,0.000000,13,0.000000,27.712631,0.401823,99,99,0,0,0,0,0
2,29999,73,20000,51,0,40,9999,0.100000,99,0,0.000000,13,1.000000,28.088813,12.607397,99,99,0,0,0,0,0
2,29999,74,20000,46,0,90,9999,0.100000,99,0,0.635071,13,0.000000,15.843530,0.902014,99,99,1,0,0,0,0
2,29999,75,20000,14,0,40,9999,0.100000,99,0,0.000000,13,1.000000,30.417269,7.203929,99,99,0,0,0,0,0
2,29999,76,20000,49,0,42,9999,0.100000,99,0,0.000000,13,5.000000,20.897174,14.363624,99,99,0,0,0,0,0
2,29999,77,20000,80,0,40,9999,0.100000,99,0,0.000000,13,1.000000,27.632864,6.025982,99,99,0,0,0,0,0
2,29999,78,20000,46,0,40,9999,0.100000,99,0,0.000000,13,0.000000,24.278794,0.923817,99,99,0,0,0,0,0
2,29999,79,20000,0,0,41,9999,0.100000,99,0,0.000000,13,3.000000,28.184795,7.141737,99,99,0,0,0,0,0
2,29999,80,20000,8,0,40,9999,0.100000,99,0,0.000000,13,0.000000,22.478801,0.561947,99,99,0,0,0,0,0
2,29999,81,20000,67,10000,90,9999,0.100000,99,0,0.007598,14,0.000000,18.746801,0.637490,99,99,1,0,0,0,0
2,29999,82,20000,91,0,40,9999,0.100000,99,0,0.000000,13,0.000000,14.185166,15.250166,99,99,0,0,0,0,0
2,29999,83,20000,56,0,40,9999,0.100000,99,0,0.000000,13,3.000000,30.599404,13.633995,99,99,0,0,0,0,0
2,29999,84,20000,38,0,40,9999,0.100000,99,0,0.000000,13,0.000000,28.066431,0.116304,99,99,0,0,0,0,0
2,29999,85,20000,99,0,40,9999,0.100000,99,0,0.000000,13,0.000000,17.134746,0.167867,99,99,0,0,0,0,0
2,29999,86,20000,8,0,40,9999,0.100000,99,0,0.000000,13,0.000000,34.244898,8.509767,99,99,0,0,0,0,0
2,29999,87,20000,56,0,40,9999,0.100000,99,0,0.000000,13,0.000000,31.922066,0.875271,99,99,0,0,0,0,0
2,29999,88,20000,56,0,0,9999,0.100000,99,0,0.605018,13,0.000000,28.200826,0.977022,99,99,0,1,0,0,0
2,29999,89,20000,59,0,40,9999,0.100000,99,0,0.000000,13,2.000000,27.613538,7.792143,99,99,0,0,0,0,0
2,29999,90,20000,49,0,40,9999,0.100000,99,0,0.000000,13,1.000000,22.165091,6.051689,99,99,0,0,0,0,0
2,29999,91,20000,80,0,40,9999,0.100000,99,0,0.000000,13,1.000000,29.468910,8.828326,99,99,0,0,0,0,0
2,29999,92,20000,51,0,40,9999,0.100000,99,0,0.000000,13,0.000000,29.804572,2.863216,99,99,0,0,0,0,0
2,29999,93,20000,49,0,40,9999,0.100000,99,0,0.000000,13,3.000000,31.761099,24.582849,99,99,0,0,0,0,0
2,29999,94,20000,67,10000,40,9999,0.100000,99,0,0.000000,13,2.000000,29.393752,3.094057,99,99,0,0,0,0,0
2,29999,95,20000,38,0,40,9999,0.100000,99,0,0.000000,13,0.000000,16.895492,0.829418,99,99,0,0,0,0,0
2,29999,96,20000,8,0,40,9999,0.100000,99,0,0.000000,13,0.000000,32.813116,9.162007,99,99,0,0,0,0,0
2,29999,97,20000,80,0,40,9999,0.100000,99,0,0.000000,13,0.000000,20.267699,3.467257,99,99,0,0,0,0,0
2,29999,98,20000,0,0,40,9999,0.100000,99,0,0.000000,13,0.000000,24.495754,0.117198,99,99,0,0,0,0,0
2,29999,99,20000,83,0,91,9999,0.100000,99,0,8.212217,13,4.000000,33.130678,15.065871,99,99,1,0,0,0,0
3,39999,0,30000,99,0,0,9999,0.100000,99,0,0.000000,14,1.000000,35.629302,1.686960,99,99,0,0,1,0,0
3,39999,1,30000,8,0,0,9999,0.100000,99,0,0.196852,14,0.000000,18.887965,0.117348,99,99,0,0,0,0,1
3,39999,2,30000,46,0,40,9999,0.100000,99,0,0.000000,14,3.000000,34.105478,5.781690,99,99,0,0,0,0,0
3,39999,3,30000,59,0,40,9999,0.100000,99,0,0.000000,14,0.000000,27.655618,1.330650,99,99,0,0,0,0,0
3,39999,4,30000,33,10000,40,9999,0.100000,99,0,0.000000,14,0.000000,19.198448,0.092663,99,99,0,0,0,0,0
3,39999,5,30000,49,0,40,9999,0.100000,99,0,0.000000,14,0.000000,18.135398,0.600000,99,99,0,0,0,0,0
3,39999,6,30000,99,0,40,9999,0.100000,99,0,0.000000,14,0.000000,30.815738,3.372954,99,99,0,0,0,0,0
3,39999,7,30000,91,0,2,9999,0.100000,99,0,31.527921,14,6.000000,22.310159,13.431027,99,99,0,0,1,0,0
3,39999,8,30000,0,0,40,9999,0.100000,99,0,0.000000,14,0.000000,29.896414,12.774033,99,99,0,0,0,0,0
3,39999,9,30000,91,0,0,9999,0.100000,99,0,13.230407,14,1.000000,26.493550,11.951843,99,99,0,1,0,0,0
3,39999,10,30000,51,0,0,9999,0.100000,99,0,2.490014,14,0.000000,24.871021,0.538489,99,99,0,0,0,1,0
3,39999,11,30000,59,0,0,9999,0.100000,99,0,3.926972,14,0.000000,21.256098,0.811353,99,99,0,1,0,0,0
3,39999,12,30000,33,10000,40,9999,0.100000,99,0,0.000000,14,0.000000,17.436547,0.642485,99,99,0,0,0,0,0
3,39999,13,30000,51,0,40,9999,0.100000,99,0,0.000000,14,0.000000,18.214399,0.733039,99,99,0,0,0,0,0
3,39999,14,30000,80,0,43,9999,0.100000,99,0,0.000000,14,6.000000,16.882816,13.480735,99,99,0,0,0,0,0
3,39999,15,30000,91,0,40,9999,0.100000,99,0,0.000000,14,0.000000,29.320059,3.550794,99,99,0,0,0,0,0
3,39999,16,30000,49,0,0,9999,0.100000,99,0,0.605965,14,0.000000,29.590885,1.521426,99,99,0,1,0,0,0
3,39999,17,30000,33,10000,42,9999,0.100000,99,0,0.000000,14,5.000000,22.448549,14.691785,99,99,0,0,0,0,0
3,39999,18,30000,51,0,0,9999,0.100000,99,0,0.024344,14,0.000000,27.740724,0.087645,99,99,0,0,0,0,1
3,39999,19,30000,83,0,40,9999,0.100000,99,0,0.000000,14,0.000000,29.906746,0.640268,99,99,0,0,0,0,0
3,39999,20,30000,59,0,40,9999,0.100000,99,0,0.000000,14,0.000000,19.044818,0.131623,99,99,0,0,0,0,0
3,39999,21,30000,91,0,40,9999,0.100000,99,0,0.000000,14,1.000000,17.691460,6.062136,99,99,0,0,0,0,0
3,39999,22,30000,0,0,1,9999,0.100000,99,0,22.270053,14,4.000000,30.041150,9.287465,99,99,0,0,1,0,0
3,39999,23,30000,42,20000,40,9999,0.100000,99,0,0.000000,14,0.000000,27.799004,1.257515,99,99,0,0,0,0,0
3,39999,24,30000,99,0,0,9999,0.100000,99,0,0.000000,14,0.000000,35.801914,2.861899,99,99,0,0,1,0,0
3,39999,25,30000,99,0,40,9999,0.100000,99,0,0.000000,14,1.000000,29.288856,9.223153,99,99,0,0,0,0,0
3,39999,26,30000,59,0,40,9999,0.100000,99,0,0.000000,14,0.000000,18.583428,0.298211,99,99,0,0,0,0,0
3,39999,27,30000,14,0,0,9999,0.100000,99,0,1.503717,14,0.000000,27.418878,0.323496,99,99,0,0,0,1,0
3,39999,28,30000,99,0,42,9999,0.100000,99,0,0.000000,14,4.000000,16.971183,20.971062,99,99,0,0,0,0,0
3,39999,29,30000,93,20000,40,9999,0.100000,99,0,0.000000,14,0.000000,19.355938,0.078969,99,99,0,0,0,0,0
3,39999,30,30000,93,20000,41,9999,0.100000,99,0,0.000000,14,3.000000,19.574666,5.380035,99,99,0,0,0,0,0
3,39999,31,30000,80,0,40,9999,0.100000,99,0,0.000000,14,1.000000,31.254504,8.625686,99,99,0,0,0,0,0
3,39999,32,30000,38,0,40,9999,0.100000,99,0,0.000000,14,0.000000,29.755250,7.593708,99,99,0,0,0,0,0
3,39999,33,30000,93,20000,40,9999,0.100000,99,0,0.000000,14,0.000000,27.628542,0.382582,99,99,0,0,0,0,0
3,39999,34,30000,33,10000,0,9999,0.100000,99,0,0.110052,14,0.000000,17.084601,0.129061,99,99,0,0,0,0,1
3,39999,35,30000,51,0,0,9999,0.100000,99,0,1.014900,14,0.000000,29.996931,0.551704,99,99,0,0,0,1,0
3,39999,36,30000,93,20000,41,9999,0.100000,99,0,0.000000,14,4.000000,31.346451,16.203182,99,99,0,0,0,0,0
3,39999,37,30000,91,0,95,9999,0.100000,99,0,59.217142,14,11.000000,17.680408,18.050563,99,99,1,0,0,0,0
3,39999,38,30000,51,0,40,9999,0.100000,99,0,0.000000,14,1.000000,30.349088,3.017410,99,99,0,0,0,0,0
3,39999,39,30000,99,0,41,9999,0.100000,99,0,0.000000,14,3.000000,21.944101,12.436931,99,99,0,0,0,0,0
3,39999,40,30000,46,0,41,9999,0.100000,99,0,0.000000,14,3.000000,24.494780,7.929668,99,99,0,0,0,0,0
3,39999,41,30000,91,0,40,9999,0.100000,99,0,0.000000,14,0.000000,25.441527,5.723395,99,99,0,0,0,0,0
3,39999,42,30000,0,0,40,9999,0.100000,99,0,0.000000,14,0.000000,27.543306,1.518205,99,99,0,0,0,0,0
3,39999,43,30000,51,0,0,9999,0.100000,99,0,0.375337,14,0.000000,12.598298,0.694270,99,99,0,0,0,1,0
3,39999,44,30000,51,0,40,9999,0.100000,99,0,0.000000,14,0.000000,29.408828,0.429182,99,99,0,0,0,0,0
3,39999,45,30000,14,0,2,9999,0.100000,99,0,31.527333,14,6.000000,22.725217,21.531624,99,99,0,0,1,0,0
3,39999,46,30000,42,20000,40,9999,0.100000,99,0,0.000000,14,0.000000,17.442885,0.106669,99,99,0,0,0,0,0
3,39999,47,30000,99,0,1,9999,0.100000,99,0,22.269914,14,4.000000,30.596403,10.191074,99,99,0,0,1,0,0
3,39999,48,30000,8,0,40,9999,0.100000,99,0,0.000000,14,0.000000,28.015688,2.780489,99,99,0,0,0,0,0
3,39999,49,30000,46,0,0,9999,0.100000,99,0,11.950319,14,1.000000,26.472334,5.800588,99,99,0,1,0,0,0
3,39999,50,30000,38,0,40,9999,0.100000,99,0,0.000000,14,0.000000,31.952003,0.880436,99,99,0,0,0,0,0
3,39999,51,30000,80,0,40,9999,0.100000,99,0,0.000000,14,0.000000,29.441611,0.476023,99,99,0,0,0,0,0
3,39999,52,30000,46,0,41,9999,0.100000,99,0,0.000000,14,4.000000,32.240092,8.127739,99,99,0,0,0,0,0
3,39999,53,30000,33,10000,40,9999,0.100000,99,0,0.000000,14,0.000000,17.065465,17.482239,99,99,0,0,0,0,0
3,39999,54,30000,51,0,40,9999,0.100000,99,0,0.000000,14,3.000000,31.667015,11.144629,99,99,0,0,0,0,0
3,39999,55,30000,59,0,40,9999,0.100000,99,0,0.000000,14,0.000000,24.934991,24.865528,99,99,0,0,0,0,0
3,39999,56,30000,38,0,40,9999,0.100000,99,0,0.000000,14,0.000000,12.471803,1.401481,99,99,0,0,0,0,0
3,39999,57,30000,49,0,40,9999,0.100000,99,0,0.000000,14,0.000000,31.556158,0.136383,99,99,0,0,0,0,0
3,39999,58,30000,99,0,40,9999,0.100000,99,0,0.000000,14,1.000000,22.369918,10.843371,99,99,0,0,0,0,0
3,39999,59,30000,46,0,42,9999,0.100000,99,0,0.000000,14,7.000000,28.220388,11.357017,99,99,0,0,0,0,0
3,39999,60,30000,80,0,1,9999,0.100000,99,0,22.269914,14,4.000000,30.342634,7.775339,99,99,0,0,1,0,0
3,39999,61,30000,46,0,41,9999,0.100000,99,0,0.000000,14,5.000000,35.129378,12.475028,99,99,0,0,0,0,0
3,39999,62,30000,46,0,40,9999,0.100000,99,0,0.000000,14,0.000000,21.076796,0.871415,99,99,0,0,0,0,0
3,39999,63,30000,83,0,40,9999,0.100000,99,0,0.000000,14,1.000000,30.636545,2.106038,99,99,0,0,0,0,0
3,39999,64,30000,33,10000,40,9999,0.100000,99,0,0.000000,14,0.000000,31.903809,0.140372,99,99,0,0,0,0,0
3,39999,65,30000,49,0,42,9999,0.100000,99,0,0.000000,14,6.000000,28.058329,16.497022,99,99,0,0,0,0,0
3,39999,66,30000,0,0,40,9999,0.100000,99,0,0.000000,14,0.000000,28.184291,0.761052,99,99,0,0,0,0,0
3,39999,67,30000,91,0,40,9999,0.100000,99,0,0.000000,14,1.000000,21.099362,8.280990,99,99,0,0,0,0,0
3,39999,68,30000,14,0,40,9999,0.100000,99,0,0.000000,14,0.000000,24.729926,1.136386,99,99,0,0,0,0,0
3,39999,69,30000,49,0,40,9999,0.100000,99,0,0.000000,14,0.000000,17.483367,0.981313,99,99,0,0,0,0,0
3,39999,70,30000,93,20000,0,9999,0.100000,99,0,0.809408,14,0.000000,24.642680,0.276206,99,99,0,0,0,0,1
3,39999,71,30000,91,0,40,9999,0.100000,99,0,0.000000,14,0.000000,30.856762,0.587386,99,99,0,0,0,0,0
3,39999,72,30000,38,0,40,9999,0.100000,99,0,0.000000,14,0.000000,27.513277,0.764638,99,99,0,0,0,0,0
3,39999,73,30000,93,20000,40,9999,0.100000,99,0,0.000000,14,1.000000,27.972009,14.020162,99,99,0,0,0,0,0
3,39999,74,30000,8,0,90,9999,0.100000,99,0,0.559103,14,0.000000,15.987975,0.796014,99,99,1,0,0,0,0
3,39999,75,30000,99,0,40,9999,0.100000,99,0,0.000000,14,1.000000,30.853841,10.260817,99,99,0,0,0,0,0
3,39999,76,30000,46,0,41,9999,0.100000,99,0,0.000000,14,4.000000,22.143685,10.803648,99,99,0,0,0,0,0
3,39999,77,30000,83,0,0,9999,0.100000,99,0,2.923539,14,1.000000,27.852962,5.576426,99,99,0,1,0,0,0
3,39999,78,30000,8,0,40,9999,0.100000,99,0,0.000000,14,0.000000,24.637950,2.220001,99,99,0,0,0,0,0
3,39999,79,30000,67,10000,40,9999,0.100000,99,0,0.000000,14,0.000000,25.356816,2.358868,99,99,0,0,0,0,0
3,39999,80,30000,49,0,2,9999,0.100000,99,0,31.527192,14,5.000000,22.858034,13.405833,99,99,0,0,1,0,0
3,39999,81,30000,80,0,46,9999,0.100000,99,0,0.000000,14,13.000000,18.790326,14.249285,99,99,0,0,0,0,0
3,39999,82,30000,59,0,41,9999,0.100000,99,0,0.000000,14,2.000000,14.748520,13.026485,99,99,0,0,0,0,0
3,39999,83,30000,38,0,40,9999,0.100000,99,0,0.000000,14,2.000000,33.539388,14.640488,99,99,0,0,0,0,0
3,39999,84,30000,99,0,40,9999,0.100000,99,0,0.000000,14,0.000000,28.071657,0.092067,99,99,0,0,0,0,0
3,39999,85,30000,49,0,40,9999,0.100000,99,0,0.000000,14,0.000000,17.196455,0.168487,99,99,0,0,0,0,0
3,39999,86,30000,42,20000,40,9999,0.100000,99,0,0.000000,14,1.000000,34.576914,12.633786,99,99,0,0,0,0,0
3,39999,87,30000,33,10000,40,9999,0.100000,99,0,0.000000,14,1.000000,32.210986,4.781789,99,99,0,0,0,0,0
3,39999,88,30000,99,0,40,9999,0.100000,99,0,0.000000,14,1.000000,28.234286,2.744287,99,99,0,0,0,0,0
3,39999,89,30000,99,0,40,9999,0.100000,99,0,0.000000,14,1.000000,26.510131,9.263096,99,99,0,0,0,0,0
3,39999,90,30000,67,10000,41,9999,0.100000,99,0,0.000000,14,3.000000,22.510961,7.305406,99,99,0,0,0,0,0
3,39999,91,30000,33,10000,41,9999,0.100000,99,0,0.000000,14,6.000000,31.184841,12.283628,99,99,0,0,0,0,0
3,39999,92,30000,8,0,40,9999,0.100000,99,0,0.000000,14,0.000000,29.883672,14.592343,99,99,0,0,0,0,0
3,39999,93,30000,59,0,40,9999,0.100000,99,0,0.000000,14,0.000000,28.463656,23.943388,99,99,0,0,0,0,0
3,39999,94,30000,99,0,40,9999,0.100000,99,0,0.000000,14,0.000000,30.806714,0.819167,99,99,0,0,0,0,0
3,39999,95,30000,14,0,40,9999,0.100000,99,0,0.000000,14,0.000000,16.995873,0.543561,99,99,0,0,0,0,0
3,39999,96,30000,0,0,40,9999,0.100000,99,0,0.000000,14,1.000000,32.497905,5.634050,99,99,0,0,0,0,0
3,39999,97,30000,8,0,40,9999,0.100000,99,0,0.000000,14,0.000000,20.166434,16.268476,99,99,0,0,0,0,0
3,39999,98,30000,38,0,40,9999,0.100000,99,0,0.000000,14,0.000000,24.414151,0.157362,99,99,0,0,0,0,0
3,39999,99,30000,8,0,90,9999,0.100000,99,0,14.650787,14,2.000000,28.834598,17.835744,99,99,1,0,0,0,0
4,49999,0,40000,80,0,40,9999,0.100000,99,0,0.000000,14,1.000000,36.370116,14.287273,99,99,0,0,0,0,0
4,49999,1,40000,8,0,0,9999,0.100000,99,0,0.453075,14,0.000000,18.873904,0.436945,99,99,0,0,0,0,1
4,49999,2,40000,22,30000,40,9999,0.100000,99,0,0.000000,14,3.000000,30.864495,9.001541,99,99,0,0,0,0,0
4,49999,3,40000,22,30000,41,9999,0.100000,99,0,0.000000,14,3.000000,27.460460,4.901184,99,99,0,0,0,0,0
4,49999,4,40000,91,0,40,9999,0.100000,99,0,0.000000,14,0.000000,19.192348,0.231843,99,99,0,0,0,0,0
4,49999,5,40000,38,0,41,9999,0.100000,99,0,0.000000,14,2.000000,18.108032,11.800013,99,99,0,0,0,0,0
4,49999,6,40000,8,0,40,9999,0.100000,99,0,0.000000,15,0.000000,30.750240,2.513625,99,99,0,0,0,0,0
4,49999,7,40000,33,10000,40,9999,0.100000,99,0,0.000000,15,2.000000,29.081793,8.465418,99,99,0,0,0,0,0
4,49999,8,40000,46,0,40,9999,0.100000,99,0,0.000000,14,1.000000,29.829184,5.982096,99,99,0,0,0,0,0
4,49999,9,40000,91,0,90,9999,0.100000,99,0,0.000000,15,1.000000,28.100490,10.319875,99,99,1,0,0,0,0
4,49999,10,40000,99,0,0,9999,0.100000,99,0,0.014061,14,0.000000,24.479482,0.181867,99,99,0,0,0,1,0
4,49999,11,40000,93,20000,6,9999,0.100000,99,0,78.450751,14,15.000000,21.696442,18.108390,99,99,0,1,0,0,0
4,49999,12,40000,99,0,40,9999,0.100000,99,0,0.000000,14,0.000000,17.198890,0.548405,99,99,0,0,0,0,0
4,49999,13,40000,46,0,0,9999,0.100000,99,0,1.187867,14,0.000000,18.197537,1.233309,99,99,0,0,0,0,1
4,49999,14,40000,0,0,42,9999,0.100000,99,0,0.000000,15,3.000000,13.091454,6.179294,99,99,0,0,0,0,0
4,49999,15,40000,51,0,40,9999,0.100000,99,0,0.000000,14,0.000000,29.395139,17.396232,99,99,0,0,0,0,0
4,49999,16,40000,80,0,40,9999,0.100000,99,0,0.000000,14,0.000000,29.467861,1.372350,99,99,0,0,0,0,0
4,49999,17,40000,46,0,42,9999,0.100000,99,0,0.000000,15,4.000000,18.215531,18.172815,99,99,0,0,0,0,0
4,49999,18,40000,0,0,0,9999,0.100000,99,0,0.012995,14,0.000000,27.743151,0.088187,99,99,0,0,0,0,1
4,49999,19,40000,99,30000,40,9999,0.100000,99,0,0.000000,15,0.000000,29.853593,0.641235,99,99,0,0,0,0,0
4,49999,20,40000,49,0,40,9999,0.100000,99,0,0.000000,15,0.000000,19.035108,0.323446,99,99,0,0,0,0,0
4,49999,21,40000,42,20000,2,9999,0.100000,99,0,0.080735,15,5.000000,17.612638,9.748293,99,99,0,0,0,1,0
4,49999,22,40000,46,0,40,9999,0.100000,99,0,0.000000,14,3.000000,32.759850,13.447030,99,99,0,0,0,0,0
4,49999,23,40000,93,20000,41,9999,0.100000,99,0,0.000000,14,3.000000,27.629148,8.885155,99,99,0,0,0,0,0
4,49999,24,40000,91,30000,40,9999,0.100000,99,0,0.000000,15,0.000000,36.288999,9.497788,99,99,0,0,-1,0,0
4,49999,25,40000,99,30000,40,9999,0.100000,99,0,0.000000,15,1.000000,28.697990,7.937395,99,99,0,0,0,0,0
4,49999,26,40000,42,20000,40,9999,0.100000,99,0,0.000000,14,0.000000,18.567713,0.380267,99,99,0,0,0,0,0
4,49999,27,40000,0,0,41,9999,0.100000,99,0,0.000000,15,3.000000,27.232422,4.207577,99,99,0,0,0,0,0
4,49999,28,40000,91,30000,42,9999,0.100000,99,0,0.000000,15,4.000000,13.420602,5.264616,99,99,0,0,0,0,0
4,49999,29,40000,42,20000,40,9999,0.100000,99,0,0.000000,15,0.000000,19.353598,0.273822,99,99,0,0,0,0,0
4,49999,30,40000,67,10000,40,9999,0.100000,99,0,0.000000,14,0.000000,22.787202,0.650063,99,99,0,0,0,0,0
4,49999,31,40000,93,20000,40,9999,0.100000,99,0,0.000000,15,2.000000,30.793627,15.112296,99,99,0,0,0,0,0
4,49999,32,40000,91,30000,90,9999,0.100000,99,0,20.661246,15,3.000000,29.531517,15.305737,99,99,1,0,0,0,0
4,49999,33,40000,80,0,41,9999,0.100000,99,0,0.000000,14,3.000000,27.401714,4.002494,99,99,0,0,0,0,0
4,49999,34,40000,59,0,0,9999,0.100000,99,0,0.091294,15,0.000000,17.133671,0.103446,99,99,0,0,0,0,1
4,49999,35,40000,49,0,0,9999,0.100000,99,0,1.608697,15,0.000000,29.954120,0.574850,99,99,0,0,0,1,0
4,49999,36,40000,99,30000,40,9999,0.100000,99,0,0.000000,15,1.000000,27.550519,13.796946,99,99,0,0,0,0,0
4,49999,37,40000,91,0,40,9999,0.100000,99,0,12.356668,14,2.000000,28.145622,12.254754,99,99,0,0,-1,0,0
4,49999,38,40000,91,30000,0,9999,0.100000,99,0,1.904023,14,2.000000,29.438524,4.578326,99,99,0,0,1,0,0
4,49999,39,40000,42,20000,43,9999,0.100000,99,0,0.000000,15,6.000000,18.889702,16.612337,99,99,0,0,0,0,0
4,49999,40,40000,99,0,40,9999,0.100000,99,0,0.000000,14,2.000000,25.321065,5.945953,99,99,0,0,0,0,0
4,49999,41,40000,49,0,40,9999,0.100000,99,0,0.000000,14,2.000000,25.532272,11.952311,99,99,0,0,0,0,0
4,49999,42,40000,14,30000,41,9999,0.100000,99,0,0.000000,15,3.000000,27.300744,6.978332,99,99,0,0,0,0,0
4,49999,43,40000,42,20000,40,9999,0.100000,99,0,0.000000,14,0.000000,12.702329,0.961517,99,99,0,0,0,0,0
4,49999,44,40000,59,0,40,9999,0.100000,99,0,0.000000,15,1.000000,29.264014,2.681507,99,99,0,0,0,0,0
4,49999,45,40000,91,0,41,9999,0.100000,99,0,0.000000,15,3.000000,21.284335,3.830244,99,99,0,0,0,0,0
4,49999,46,40000,42,20000,40,9999,0.100000,99,0,0.000000,14,0.000000,17.457342,0.108536,99,99,0,0,0,0,0
4,49999,47,40000,46,0,40,9999,0.100000,99,0,0.000000,14,3.000000,32.128401,13.581373,99,99,0,0,0,0,0
4,49999,48,40000,91,30000,40,9999,0.100000,99,0,0.000000,15,0.000000,28.009939,2.381318,99,99,0,0,0,0,0
4,49999,49,40000,8,0,40,9999,0.100000,99,0,0.000000,15,1.000000,27.589690,11.759738,99,99,0,0,0,0,0
4,49999,50,40000,8,0,40,9999,0.100000,99,0,0.000000,14,0.000000,32.242187,13.245424,99,99,0,0,0,0,0
4,49999,51,40000,51,0,40,9999,0.100000,99,0,0.000000,14,1.000000,29.301084,3.192078,99,99,0,0,0,0,0
4,49999,52,40000,46,0,40,9999,0.100000,99,0,0.000000,14,2.000000,29.090607,8.237113,99,99,0,0,0,0,0
4,49999,53,40000,42,20000,41,9999,0.100000,99,0,0.000000,15,2.000000,17.012118,10.983981,99,99,0,0,0,0,0
4,49999,54,40000,49,0,40,9999,0.100000,99,0,0.000000,15,0.000000,29.282112,1.432974,99,99,0,0,0,0,0
4,49999,55,40000,80,0,40,9999,0.100000,99,0,0.000000,14,0.000000,24.764974,25.011541,99,99,0,0,0,0,0
4,49999,56,40000,59,0,40,9999,0.100000,99,0,0.000000,15,0.000000,12.576145,2.076379,99,99,0,0,0,0,0
4,49999,57,40000,91,30000,40,9999,0.100000,99,0,0.000000,14,0.000000,31.555487,0.527935,99,99,0,0,0,0,0
4,49999,58,40000,46,0,40,9999,0.100000,99,0,0.000000,14,0.000000,22.868451,4.236086,99,99,0,0,0,0,0
4,49999,59,40000,59,0,41,9999,0.100000,99,0,0.000000,14,4.000000,21.270555,14.719726,99,99,0,0,0,0,0
4,49999,60,40000,42,20000,40,9999,0.100000,99,0,0.000000,15,1.000000,33.475520,5.272610,99,99,0,0,0,0,0
4,49999,61,40000,91,0,41,9999,0.100000,99,0,0.000000,14,4.000000,29.501680,9.549818,99,99,0,0,0,0,0
4,49999,62,40000,33,10000,6,9999,0.100000,99,0,69.926438,15,15.000000,21.524735,17.681569,99,99,0,1,0,0,0
4,49999,63,40000,38,0,40,9999,0.100000,99,0,0.000000,14,0.000000,30.347557,1.258551,99,99,0,0,0,0,0
4,49999,64,40000,80,0,40,9999,0.100000,99,0,0.000000,15,0.000000,31.903268,0.142830,99,99,0,0,0,0,0
4,49999,65,40000,7,30000,41,9999,0.100000,99,0,0.000000,15,4.000000,24.121272,9.509045,99,99,0,0,0,0,0
4,49999,66,40000,8,0,40,9999,0.135000,99,0,0.000000,15,0.000000,28.179747,0.697691,99,99,0,0,0,0,0
4,49999,67,40000,80,0,40,9999,0.100000,99,0,0.000000,14,2.000000,22.720927,8.576049,99,99,0,0,0,0,0
4,49999,68,40000,38,0,40,9999,0.100000,99,0,0.000000,14,0.000000,24.488027,1.419260,99,99,0,0,0,0,0
4,49999,69,40000,33,10000,40,9999,0.100000,99,0,0.000000,14,0.000000,17.238516,0.980268,99,99,0,0,0,0,0
4,49999,70,40000,46,0,0,9999,0.100000,99,0,0.869536,14,0.000000,24.446328,0.363475,99,99,0,0,0,0,1
4,49999,71,40000,8,0,40,9999,0.100000,99,0,0.000000,14,3.000000,31.028580,8.593699,99,99,0,0,0,0,0
4,49999,72,40000,42,20000,41,9999,0.100000,99,0,0.000000,15,3.000000,27.308817,4.304727,99,99,0,0,0,0,0
4,49999,73,40000,22,30000,40,9999,0.100000,99,0,0.000000,14,0.000000,27.232598,1.357732,99,99,0,0,0,0,0
4,49999,74,40000,0,0,90,9999,0.100000,99,0,5.439541,15,1.000000,16.115945,2.878535,99,99,1,0,0,0,0
4,49999,75,40000,22,30000,41,9999,0.100000,99,0,0.000000,14,4.000000,30.311854,13.225910,99,99,0,0,0,0,0
4,49999,76,40000,99,0,41,9999,0.100000,99,0,0.000000,15,2.000000,18.524175,7.870506,99,99,0,0,0,0,0
4,49999,77,40000,91,0,1,9999,0.100000,99,0,25.826452,15,5.000000,27.624368,10.652887,99,99,0,1,0,0,0
4,49999,78,40000,49,0,40,9999,0.100000,99,0,0.000000,15,0.000000,24.012632,0.165423,99,99,0,0,0,0,0
4,49999,79,40000,99,0,40,9999,0.100000,99,0,0.000000,14,2.000000,24.933131,10.251774,99,99,0,0,0,0,0
4,49999,80,40000,0,0,41,9999,0.100000,99,0,0.000000,15,3.000000,27.594891,8.476870,99,99,0,0,0,0,0
4,49999,81,40000,59,0,90,9999,0.100000,99,0,68.997080,15,3.000000,29.617742,7.991206,99,99,1,0,0,0,0
4,49999,82,40000,0,0,43,9999,0.100000,99,0,0.000000,15,5.000000,12.623224,8.674790,99,99,0,0,0,0,0
4,49999,83,40000,14,30000,40,9999,0.100000,99,0,0.000000,15,2.000000,33.096115,12.934790,99,99,0,0,0,0,0
4,49999,84,40000,80,30000,40,9999,0.100000,99,0,0.000000,15,0.000000,28.070079,0.089263,99,99,0,0,0,0,0
4,49999,85,40000,99,0,40,9999,0.100000,99,0,0.000000,15,0.000000,17.233713,0.856785,99,99,0,0,0,0,0
4,49999,86,40000,33,10000,0,9999,0.100000,99,0,0.000000,15,0.000000,35.477084,7.317114,99,99,0,0,1,0,0
4,49999,87,40000,46,0,40,9999,0.100000,99,0,0.000000,14,2.000000,32.473875,6.288697,99,99,0,0,0,0,0
4,49999,88,40000,33,10000,1,9999,0.100000,99,0,25.826452,15,4.000000,27.827816,10.649046,99,99,0,1,0,0,0
4,49999,89,40000,80,0,40,9999,0.100000,99,0,0.000000,14,2.000000,27.146417,14.515721,99,99,0,0,0,0,0
4,49999,90,40000,91,0,41,9999,0.100000,99,0,0.000000,15,3.000000,24.492902,8.101957,99,99,0,0,0,0,0
4,49999,91,40000,80,0,40,9999,0.100000,99,0,0.000000,14,2.000000,28.330999,12.444907,99,99,0,0,-1,0,0
4,49999,92,40000,8,0,40,9999,0.100000,99,0,0.000000,14,0.000000,29.622024,6.977656,99,99,0,0,0,0,0
4,49999,93,40000,14,30000,40,9999,0.100000,99,0,0.000000,15,0.000000,28.501437,23.803457,99,99,0,0,0,0,0
4,49999,94,40000,33,10000,41,9999,0.100000,99,0,0.000000,15,4.000000,30.977658,7.907869,99,99,0,0,0,0,0
4,49999,95,40000,0,0,40,9999,0.100000,99,0,0.000000,15,0.000000,17.056559,0.100010,99,99,0,0,0,0,0
4,49999,96,40000,59,0,40,9999,0.100000,99,0,0.000000,14,3.000000,31.210501,11.868355,99,99,0,0,0,0,0
4,49999,97,40000,42,20000,43,9999,0.100000,99,0,0.000000,15,8.000000,19.953069,17.068181,99,99,0,0,0,0,0
4,49999,98,40000,80,0,40,9999,0.100000,99,0,0.000000,14,0.000000,24.314993,0.209228,99,99,0,0,0,0,0
4,49999,99,40000,8,0,90,9999,0.100000,99,0,13.107747,15,2.000000,30.262834,14.109615,99,99,1,0,0,0,0
5,59999,0,50000,45,30000,40,9999,0.100000,99,0,0.000000,17,0.000000,35.720235,7.011311,99,99,0,0,0,0,0
5,59999,1,50000,42,20000,0,9999,0.100000,99,0,0.297804,17,0.000000,18.871697,0.563005,99,99,0,0,0,0,1
5,59999,2,50000,49,0,41,9999,0.100000,99,0,0.000000,17,4.000000,33.571702,16.010115,99,99,0,0,0,0,0
5,59999,3,50000,49,0,40,9999,0.100000,99,0,0.000000,17,0.000000,29.370662,4.584828,99,99,0,0,0,0,0
5,59999,4,50000,99,0,40,9999,0.100000,99,0,0.000000,15,0.000000,19.179983,0.692488,99,99,0,0,0,0,0
5,59999,5,50000,45,30000,41,9999,0.100000,99,0,0.000000,17,3.000000,19.145595,10.902088,99,99,0,0,0,0,0
5,59999,6,50000,45,30000,40,9999,0.065000,99,0,0.000000,16,0.000000,30.671770,2.096760,99,99,0,0,0,0,0
5,59999,7,50000,14,30000,0,9999,0.100000,99,0,3.854854,16,0.000000,27.164414,1.721677,99,99,0,0,1,0,0
5,59999,8,50000,14,30000,40,9999,0.100000,99,0,0.000000,17,0.000000,29.077835,7.090650,99,99,0,0,0,0,0
5,59999,9,50000,42,20000,40,9999,0.100000,99,0,0.000000,17,2.000000,28.433180,9.777422,99,99,-1,0,0,0,0
5,59999,10,50000,8,0,0,9999,0.100000,99,0,0.009483,16,0.000000,24.481660,0.165228,99,99,0,0,0,1,0
5,59999,11,50000,91,0,40,9999,0.100000,99,0,0.000000,17,0.000000,32.292925,9.405319,99,99,0,0,0,0,0
5,59999,12,50000,99,30000,0,9999,0.100000,99,0,0.169492,16,0.000000,16.843796,2.605837,99,99,0,0,0,0,1
5,59999,13,50000,42,20000,40,9999,0.100000,99,0,0.000000,16,0.000000,17.791090,0.404112,99,99,0,0,0,0,0
5,59999,14,50000,49,0,0,9999,0.100000,99,0,0.017961,16,0.000000,16.999389,1.156859,99,99,0,0,0,0,1
5,59999,15,50000,93,20000,40,9999,0.100000,99,0,0.000000,16,0.000000,28.715235,9.571647,99,99,0,0,0,0,0
5,59999,16,50000,99,0,40,9999,0.100000,99,0,0.000000,16,0.000000,29.506130,1.304571,99,99,0,0,0,0,0
5,59999,17,50000,81,40000,40,9999,0.100000,99,0,0.000000,17,0.000000,16.744983,10.889406,99,99,0,0,0,0,0
5,59999,18,50000,93,20000,0,9999,0.100000,99,0,0.024937,16,0.000000,27.743590,0.089425,99,99,0,0,0,0,1
5,59999,19,50000,9,30000,40,9999,0.100000,99,0,0.000000,17,0.000000,29.821981,0.814965,99,99,0,0,0,0,0
5,59999,20,50000,21,40000,40,9999,0.100000,99,0,0.000000,17,0.000000,19.023194,0.337973,99,99,0,0,0,0,0
5,59999,21,50000,28,40000,0,9999,0.100000,99,0,0.279877,17,0.000000,13.632805,0.195205,99,99,0,0,0,1,0
5,59999,22,50000,28,40000,41,9999,0.100000,99,0,0.000000,17,6.000000,30.362791,15.060570,99,99,0,0,0,0,0
5,59999,23,50000,49,0,0,9999,0.100000,99,0,20.363370,17,0.000000,29.869169,3.418828,99,99,0,0,0,1,0
5,59999,24,50000,9,30000,0,9999,0.100000,99,0,0.303525,17,2.000000,35.910615,5.860950,99,99,0,0,1,0,0
5,59999,25,50000,45,30000,40,9999,0.100000,99,0,0.000000,17,2.000000,28.604272,11.315992,99,99,0,0,0,0,0
5,59999,26,50000,49,0,40,9999,0.100000,99,0,0.000000,15,0.000000,18.578480,21.474772,99,99,0,0,0,0,0
5,59999,27,50000,91,0,0,9999,0.100000,99,0,19.476866,17,1.000000,29.242184,5.540693,99,99,0,0,0,1,0
5,59999,28,50000,49,0,40,9999,0.100000,99,0,0.000000,16,0.000000,17.095993,0.945505,99,99,0,0,0,0,0
5,59999,29,50000,21,40000,40,9999,0.100000,99,0,0.000000,17,0.000000,19.338238,1.068235,99,99,0,0,0,0,0
5,59999,30,50000,59,0,40,9999,0.100000,99,0,0.000000,17,0.000000,22.880568,1.272700,99,99,0,0,0,0,0
5,59999,31,50000,81,40000,41,9999,0.100000,99,0,3.335830,17,4.000000,32.830367,11.629086,99,99,0,0,0,0,0
5,59999,32,50000,91,0,41,9999,0.100000,99,0,0.000000,16,5.000000,28.843953,12.918828,99,99,0,0,0,0,0
5,59999,33,50000,28,40000,0,9999,0.100000,99,0,19.477067,16,0.000000,29.629716,3.966393,99,99,0,0,0,1,0
5,59999,34,50000,99,30000,40,9999,0.100000,99,0,0.000000,15,0.000000,17.153310,0.263574,99,99,0,0,0,0,0
5,59999,35,50000,59,0,0,9999,0.100000,99,0,1.150317,17,0.000000,29.902680,0.610927,99,99,0,0,0,1,0
5,59999,36,50000,80,0,40,9999,0.100000,99,0,0.000000,17,1.000000,28.481605,7.412891,99,99,0,0,0,0,0
5,59999,37,50000,32,40000,40,9999,0.100000,99,0,3.153962,16,2.000000,28.164426,10.849288,99,99,0,0,0,0,0
5,59999,38,50000,32,40000,40,9999,0.100000,99,0,0.000000,17,0.000000,27.397969,1.484507,99,99,0,0,0,0,0
5,59999,39,50000,80,0,40,9999,0.100000,99,0,0.000000,17,1.000000,14.318637,6.276303,99,99,0,0,0,0,0
5,59999,40,50000,32,40000,41,9999,0.100000,99,0,0.000000,17,3.000000,27.677571,16.096009,99,99,0,0,0,0,0
5,59999,41,50000,49,0,40,9999,0.100000,99,0,0.000000,17,1.000000,23.392295,6.035859,99,99,0,0,0,0,0
5,59999,42,50000,91,0,41,9999,0.100000,99,0,0.000000,15,4.000000,26.650816,7.048595,99,99,0,0,0,0,0
5,59999,43,50000,11,40000,40,9999,0.100000,99,0,0.000000,17,0.000000,13.020052,0.516185,99,99,0,0,0,0,0
5,59999,44,50000,14,30000,40,9999,0.100000,99,0,0.000000,17,2.000000,28.857028,8.455803,99,99,0,0,0,0,0
5,59999,45,50000,59,0,40,9999,0.100000,99,0,0.000000,17,0.000000,18.749491,0.245491,99,99,0,0,0,0,0
5,59999,46,50000,8,0,40,9999,0.100000,99,0,0.000000,15,0.000000,17.458763,0.413295,99,99,0,0,0,0,0
5,59999,47,50000,99,0,41,9999,0.100000,99,0,0.000000,17,3.000000,28.333681,8.389015,99,99,0,0,0,0,0
5,59999,48,50000,42,20000,40,9999,0.100000,99,0,0.000000,17,0.000000,28.014762,2.818389,99,99,0,0,0,0,0
5,59999,49,50000,33,10000,40,9999,0.100000,99,0,0.000000,17,0.000000,28.046273,10.388710,99,99,0,0,0,0,0
5,59999,50,50000,33,10000,40,9999,0.100000,99,0,0.000000,16,1.000000,32.414009,8.182940,99,99,0,0,0,0,0
5,59999,51,50000,32,40000,40,9999,0.100000,99,0,0.000000,16,1.000000,28.716044,14.432194,99,99,0,0,0,0,0
5,59999,52,50000,8,0,41,9999,0.100000,99,0,0.000000,15,4.000000,28.097725,18.496314,99,99,0,0,0,0,0
5,59999,53,50000,99,0,41,9999,0.100000,99,0,0.000000,17,3.000000,17.875869,14.751083,99,99,0,0,0,0,0
5,59999,54,50000,7,30000,40,9999,0.100000,99,0,0.000000,17,0.000000,29.383302,1.286240,99,99,0,0,0,0,0
5,59999,55,50000,93,20000,0,9999,0.100000,99,0,0.410163,16,0.000000,24.632116,5.640276,99,99,0,0,0,0,1
5,59999,56,50000,45,30000,40,9999,0.100000,99,0,0.000000,17,0.000000,12.890131,2.055071,99,99,0,0,0,0,0
5,59999,57,50000,32,40000,40,9999,0.100000,99,0,0.000000,17,0.000000,31.497868,0.136967,99,99,0,0,0,0,0
5,59999,58,50000,62,40000,42,9999,0.100000,99,0,0.000000,16,5.000000,22.576775,17.371123,99,99,0,0,0,0,0
5,59999,59,50000,93,20000,42,9999,0.100000,99,0,0.000000,17,4.000000,17.419420,8.394594,99,99,0,0,0,0,0
5,59999,60,50000,9,30000,40,9999,0.100000,99,0,0.000000,17,1.000000,34.274013,6.006223,99,99,0,0,0,0,0
5,59999,61,50000,59,0,40,9999,0.100000,99,0,0.000000,17,0.000000,33.490516,10.944749,99,99,0,0,0,0,0
5,59999,62,50000,93,20000,40,9999,0.100000,99,0,0.000000,16,3.000000,32.200135,11.502922,99,99,0,0,0,0,0
5,59999,63,50000,49,0,40,9999,0.100000,99,0,0.000000,16,0.000000,30.165844,1.264742,99,99,0,0,0,0,0
5,59999,64,50000,42,20000,40,9999,0.100000,99,0,0.000000,17,0.000000,31.902650,0.138460,99,99,0,0,0,0,0
5,59999,65,50000,62,40000,40,9999,0.100000,99,0,0.000000,16,2.000000,21.409014,10.456765,99,99,0,0,0,0,0
5,59999,66,50000,49,0,40,9999,0.100000,99,0,0.000000,17,0.000000,28.176858,0.783148,99,99,0,0,0,0,0
5,59999,67,50000,81,40000,40,9999,0.100000,99,0,0.000000,17,2.000000,25.396595,11.427906,99,99,0,0,0,0,0
5,59999,68,50000,45,30000,40,9999,0.100000,99,0,0.000000,17,0.000000,24.218818,7.519608,99,99,0,0,0,0,0
5,59999,69,50000,62,40000,40,9999,0.100000,99,0,0.000000,17,0.000000,16.861198,1.900064,99,99,0,0,0,0,0
5,59999,70,50000,33,10000,40,9999,0.100000,99,0,0.000000,17,0.000000,24.223073,2.371148,99,99,0,0,0,0,0
5,59999,71,50000,14,30000,40,9999,0.100000,99,0,0.000000,16,2.000000,28.123766,10.100329,99,99,0,0,0,0,0
5,59999,72,50000,7,30000,0,9999,0.100000,99,0,19.476866,17,0.000000,29.429710,5.050133,99,99,0,0,0,1,0
5,59999,73,50000,49,0,40,9999,0.100000,99,0,0.000000,17,1.000000,26.471829,3.658519,99,99,0,0,0,0,0
5,59999,74,50000,21,40000,90,9999,0.100000,99,0,0.198098,17,0.000000,15.392659,0.684659,99,99,1,0,0,0,0
5,59999,75,50000,99,30000,40,9999,0.100000,99,0,0.000000,16,3.000000,28.748961,10.250157,99,99,0,0,0,0,0
5,59999,76,50000,49,0,40,9999,0.100000,99,0,0.000000,17,0.000000,18.960433,3.174607,99,99,0,0,0,0,0
5,59999,77,50000,81,40000,40,9999,0.100000,99,0,0.000000,17,1.000000,32.652467,13.516499,99,99,0,0,0,0,0
5,59999,78,50000,80,0,40,9999,0.100000,99,0,0.000000,16,0.000000,24.014773,0.165904,99,99,0,0,0,0,0
5,59999,79,50000,32,40000,40,9999,0.100000,99,0,0.000000,17,0.000000,27.199130,9.403734,99,99,0,0,0,0,0
5,59999,80,50000,42,20000,40,9999,0.100000,99,0,0.000000,17,2.000000,28.815715,16.446550,99,99,0,0,0,0,0
5,59999,81,50000,93,20000,40,9999,0.100000,99,0,0.000000,16,0.000000,27.640769,1.534454,99,99,0,0,0,0,0
5,59999,82,50000,93,20000,42,9999,0.100000,99,0,0.000000,16,5.000000,16.256768,14.064871,99,99,0,0,0,0,0
5,59999,83,50000,91,0,40,9999,0.100000,99,0,0.000000,17,2.000000,31.712987,9.314378,99,99,0,0,0,0,0
5,59999,84,50000,80,0,40,9999,0.100000,99,0,0.000000,17,0.000000,28.067668,0.089353,99,99,0,0,0,0,0
5,59999,85,50000,91,0,40,9999,0.100000,99,0,0.000000,17,0.000000,17.244125,0.663971,99,99,0,0,0,0,0
5,59999,86,50000,81,40000,40,9999,0.100000,99,0,0.000000,17,2.000000,35.074088,3.008618,99,99,0,0,-1,0,0
5,59999,87,50000,7,30000,40,9999,0.100000,99,0,0.000000,16,1.000000,32.172509,9.537717,99,99,0,0,0,0,0
5,59999,88,50000,28,40000,40,9999,0.100000,99,0,0.000000,16,0.000000,32.350476,8.786035,99,99,0,0,0,0,0
5,59999,89,50000,21,40000,40,9999,0.100000,99,0,0.000000,17,1.000000,26.006684,3.943516,99,99,0,0,0,0,0
5,59999,90,50000,33,10000,40,9999,0.100000,99,0,0.000000,17,1.000000,25.376079,12.432837,99,99,0,0,0,0,0
5,59999,91,50000,32,40000,41,9999,0.100000,99,0,0.000000,17,4.000000,27.018646,14.818508,99,99,0,0,0,0,0
5,59999,92,50000,93,20000,40,9999,0.100000,99,0,0.000000,16,0.000000,29.767387,1.174520,99,99,0,0,0,0,0
5,59999,93,50000,21,40000,40,9999,0.100000,99,0,0.000000,17,0.000000,28.623899,23.866786,99,99,0,0,0,0,0
5,59999,94,50000,59,0,40,9999,0.100000,99,0,0.000000,17,1.000000,29.424998,6.162089,99,99,0,0,0,0,0
5,59999,95,50000,14,30000,40,9999,0.100000,99,0,0.000000,16,0.000000,17.082008,0.243154,99,99,0,0,0,0,0
5,59999,96,50000,32,40000,40,9999,0.100000,99,0,0.000000,17,0.000000,30.060808,8.525927,99,99,0,0,0,0,0
5,59999,97,50000,59,0,41,9999,0.100000,99,0,0.000000,16,5.000000,28.113908,11.022932,99,99,0,0,0,0,0
5,59999,98,50000,49,0,40,9999,0.100000,99,0,0.000000,17,0.000000,24.193880,0.300198,99,99,0,0,0,0,0
5,59999,99,50000,7,30000,40,9999,0.100000,99,0,0.000000,17,2.000000,33.120829,7.894937,99,99,0,0,0,0,0
6,69999,0,60000,28,40000,40,9999,0.100000,99,0,0.000000,17,0.000000,35.856983,4.343813,99,99,0,0,0,0,0
6,69999,1,60000,7,30000,0,9999,0.100000,99,0,0.202820,17,0.000000,18.993294,0.452665,99,99,0,0,0,0,1
6,69999,2,60000,45,30000,41,9999,0.100000,99,0,0.000000,17,6.000000,29.865289,10.996550,99,99,0,0,0,0,0
6,69999,3,60000,42,20000,40,9999,0.100000,99,0,0.000000,17,1.000000,29.431973,6.022993,99,99,0,0,0,0,0
6,69999,4,60000,45,30000,40,9999,0.100000,99,0,0.000000,17,0.000000,19.301240,0.699711,99,99,0,0,0,0,0
6,69999,5,60000,28,40000,42,9999,0.100000,99,0,0.000000,17,5.000000,21.122339,9.927878,99,99,0,0,0,0,0
6,69999,6,60000,23,50000,40,9999,0.100000,99,0,0.000000,17,0.000000,30.612912,3.625941,99,99,0,0,0,0,0
6,69999,7,60000,14,30000,0,9999,0.100000,99,0,4.355450,17,0.000000,27.793718,2.875095,99,99,0,0,1,0,0
6,69999,8,60000,7,30000,40,9999,0.100000,99,0,0.000000,17,1.000000,29.206403,6.119323,99,99,0,0,0,0,0
6,69999,9,60000,7,30000,41,9999,0.100000,99,0,0.000000,17,3.000000,28.461472,12.286812,99,99,0,0,0,0,0
6,69999,10,60000,14,30000,0,9999,0.100000,99,0,1.638814,17,0.000000,24.482954,0.309099,99,99,0,0,0,1,0
6,69999,11,60000,99,0,40,9999,0.100000,99,0,0.000000,17,1.000000,32.844878,4.870332,99,99,0,0,0,0,0
6,69999,12,60000,21,40000,40,9999,0.100000,99,0,0.000000,17,0.000000,17.163982,0.422180,99,99,0,0,0,0,0
6,69999,13,60000,33,10000,40,9999,0.100000,99,0,0.000000,17,0.000000,17.643389,0.212717,99,99,0,0,0,0,0
6,69999,14,60000,32,40000,0,9999,0.100000,99,0,0.082349,17,0.000000,17.446596,0.234714,99,99,0,0,0,0,1
6,69999,15,60000,45,30000,0,9999,0.100000,99,0,2.469229,17,0.000000,29.244538,1.163391,99,99,0,1,0,0,0
6,69999,16,60000,32,40000,40,9999,0.100000,99,0,0.000000,17,0.000000,29.317518,1.368639,99,99,0,0,0,0,0
6,69999,17,60000,37,50000,0,9999,0.100000,99,0,0.526954,17,0.000000,16.736526,0.195817,99,99,0,0,0,0,1
6,69999,18,60000,45,30000,0,9999,0.100000,99,0,0.019769,17,0.000000,27.745007,0.090002,99,99,0,0,0,0,1
6,69999,19,60000,45,30000,40,9999,0.100000,99,0,0.000000,17,0.000000,29.790072,0.469169,99,99,0,0,0,0,0
6,69999,20,60000,32,40000,40,9999,0.100000,99,0,0.000000,17,0.000000,19.141334,0.303164,99,99,0,0,0,0,0
6,69999,21,60000,81,40000,0,9999,0.100000,99,0,0.009011,17,0.000000,13.677501,0.113696,99,99,0,0,0,1,0
6,69999,22,60000,33,10000,40,9999,0.100000,99,0,0.000000,17,0.000000,30.054688,6.446288,99,99,0,0,0,0,0
6,69999,23,60000,14,30000,40,9999,0.100000,99,0,0.000000,17,0.000000,29.256435,5.718643,99,99,0,0,0,0,0
6,69999,24,60000,14,30000,0,9999,0.100000,99,0,0.253296,17,0.000000,33.053988,0.613103,99,99,0,0,1,0,0
6,69999,25,60000,49,0,41,9999,0.100000,99,0,0.000000,17,3.000000,26.689253,13.604380,99,99,0,0,0,0,0
6,69999,26,60000,42,20000,40,9999,0.100000,99,0,0.000000,17,0.000000,18.867607,13.941715,99,99,0,0,0,0,0
6,69999,27,60000,14,30000,40,9999,0.100000,99,0,0.000000,17,0.000000,28.468723,7.904721,99,99,0,0,0,0,0
6,69999,28,60000,7,30000,40,9999,0.100000,99,0,0.000000,17,0.000000,17.240350,1.460687,99,99,0,0,0,0,0
6,69999,29,60000,21,40000,40,9999,0.100000,99,0,0.000000,17,0.000000,19.463555,1.114826,99,99,0,0,0,0,0
6,69999,30,60000,31,50000,40,9999,0.100000,99,0,0.000000,17,0.000000,23.294292,1.117897,99,99,0,0,0,0,0
6,69999,31,60000,42,20000,40,9999,0.100000,99,0,0.000000,17,0.000000,30.136282,3.801494,99,99,0,0,0,0,0
6,69999,32,60000,42,20000,41,9999,0.100000,99,0,0.000000,17,4.000000,24.983290,12.700230,99,99,0,0,0,0,0
6,69999,33,60000,21,40000,40,9999,0.100000,99,0,0.000000,17,1.000000,29.190988,6.799613,99,99,0,0,0,0,0
6,69999,34,60000,91,0,40,9999,0.100000,99,0,0.000000,17,0.000000,17.293818,0.236404,99,99,0,0,0,0,0
6,69999,35,60000,49,0,0,9999,0.100000,99,0,1.207144,17,0.000000,29.865676,0.419026,99,99,0,0,0,1,0
6,69999,36,60000,59,0,40,9999,0.100000,99,0,0.000000,17,0.000000,27.849125,8.347765,99,99,0,0,0,0,0
6,69999,37,60000,7,30000,40,9999,0.100000,99,0,0.000000,17,1.000000,28.053933,9.048254,99,99,0,0,0,0,0
6,69999,38,60000,59,0,0,9999,0.100000,99,0,4.355450,17,1.000000,27.923782,5.361872,99,99,0,0,1,0,0
6,69999,39,60000,28,40000,40,9999,0.100000,99,0,0.000000,17,1.000000,14.615134,20.136121,99,99,0,0,0,0,0
6,69999,40,60000,81,40000,40,9999,0.100000,99,0,0.000000,17,0.000000,30.434075,0.137421,99,99,0,0,0,0,0
6,69999,41,60000,45,30000,42,9999,0.100000,99,0,0.000000,17,5.000000,21.987119,24.015006,99,99,0,0,0,0,0
6,69999,42,60000,7,30000,44,9999,0.100000,99,0,0.000000,17,11.000000,24.852344,11.663965,99,99,0,0,0,0,0
6,69999,43,60000,21,40000,40,9999,0.100000,99,0,0.000000,17,0.000000,13.033575,0.120409,99,99,0,0,0,0,0
6,69999,44,60000,31,50000,40,9999,0.100000,99,0,0.000000,17,0.000000,30.265624,0.132983,99,99,0,0,0,0,0
6,69999,45,60000,21,40000,40,9999,0.065000,99,0,0.000000,17,0.000000,18.747409,0.243949,99,99,0,0,0,0,0
6,69999,46,60000,11,40000,40,9999,0.100000,99,0,0.000000,17,0.000000,17.546851,0.228439,99,99,0,0,0,0,0
6,69999,47,60000,49,0,41,9999,0.100000,99,0,0.000000,17,5.000000,30.629372,14.234723,99,99,0,0,0,0,0
6,69999,48,60000,91,0,40,9999,0.100000,99,0,0.000000,17,0.000000,28.001109,2.640361,99,99,0,0,0,0,0
6,69999,49,60000,59,0,40,9999,0.100000,99,0,0.000000,17,2.000000,28.589743,10.770065,99,99,0,0,0,0,0
6,69999,50,60000,14,30000,40,9999,0.100000,99,0,0.000000,17,0.000000,31.888468,0.892049,99,99,0,0,0,0,0
6,69999,51,60000,21,40000,41,9999,0.100000,99,0,0.000000,17,3.000000,28.439551,10.195843,99,99,0,0,0,0,0
6,69999,52,60000,11,40000,41,9999,0.100000,99,0,0.000000,17,5.000000,31.447740,12.586951,99,99,0,0,0,0,0
6,69999,53,60000,14,30000,41,9999,0.100000,99,0,0.000000,17,2.000000,15.290045,12.997888,99,99,0,0,0,0,0
6,69999,54,60000,91,0,40,9999,0.100000,99,0,0.000000,17,0.000000,29.190221,1.479808,99,99,0,0,0,0,0
6,69999,55,60000,7,30000,0,9999,0.100000,99,0,0.380405,17,0.000000,23.947527,0.170083,99,99,0,0,0,0,1
6,69999,56,60000,33,10000,40,9999,0.100000,99,0,0.000000,17,0.000000,13.212255,0.111704,99,99,0,0,0,0,0
6,69999,57,60000,31,50000,40,9999,0.100000,99,0,0.000000,17,0.000000,31.497266,0.135846,99,99,0,0,0,0,0
6,69999,58,60000,28,40000,41,9999,0.100000,99,0,0.000000,17,2.000000,18.484838,17.930909,99,99,0,0,0,0,0
6,69999,59,60000,42,20000,40,9999,0.100000,99,0,0.000000,17,0.000000,17.251097,1.105918,99,99,0,0,0,0,0
6,69999,60,60000,59,0,40,9999,0.100000,99,0,0.000000,17,1.000000,35.102122,14.005404,99,99,0,0,0,0,0
6,69999,61,60000,28,40000,40,9999,0.100000,99,0,0.000000,17,1.000000,33.969306,15.067535,99,99,0,0,0,0,0
6,69999,62,60000,21,40000,40,9999,0.100000,99,0,0.000000,17,1.000000,30.070381,3.408250,99,99,0,0,0,0,0
6,69999,63,60000,11,40000,40,9999,0.100000,99,0,0.000000,17,0.000000,30.004359,1.319635,99,99,0,0,0,0,0
6,69999,64,60000,49,0,40,9999,0.100000,99,0,0.000000,17,0.000000,31.902104,0.138826,99,99,0,0,0,0,0
6,69999,65,60000,31,50000,41,9999,0.100000,99,0,0.000000,17,4.000000,21.751087,17.593038,99,99,0,0,0,0,0
6,69999,66,60000,23,50000,40,9999,0.100000,99,0,0.000000,17,0.000000,28.170066,0.808412,99,99,0,0,0,0,0
6,69999,67,60000,33,10000,41,9999,0.100000,99,0,0.000000,17,4.000000,27.093399,16.096322,99,99,0,0,0,0,0
6,69999,68,60000,31,50000,44,9999,0.100000,99,0,0.000000,17,12.000000,23.976260,14.824616,99,99,0,0,0,0,0
6,69999,69,60000,99,0,40,9999,0.100000,99,0,0.000000,17,0.000000,17.399986,0.253495,99,99,0,0,0,0,0
6,69999,70,60000,99,0,40,9999,0.100000,99,0,0.000000,17,0.000000,23.881189,2.813963,99,99,0,0,0,0,0
6,69999,71,60000,49,0,40,9999,0.100000,99,0,0.000000,17,0.000000,29.057913,3.050393,99,99,0,0,0,0,0
6,69999,72,60000,37,50000,40,9999,0.100000,99,0,0.000000,17,1.000000,29.122165,9.438569,99,99,0,0,0,0,0
6,69999,73,60000,91,0,40,9999,0.100000,99,0,0.000000,17,0.000000,26.740234,1.498316,99,99,0,0,0,0,0
6,69999,74,60000,11,40000,90,9999,0.100000,99,0,0.137385,17,0.000000,15.464812,0.664496,99,99,1,0,0,0,0
6,69999,75,60000,99,0,40,9999,0.100000,99,0,0.000000,17,2.000000,28.074554,7.657222,99,99,0,0,0,0,0
6,69999,76,60000,91,0,40,9999,0.100000,99,0,0.000000,17,0.000000,18.846248,1.354140,99,99,0,0,0,0,0
6,69999,77,60000,32,40000,40,9999,0.100000,99,0,0.000000,17,0.000000,32.065499,7.949175,99,99,0,0,0,0,0
6,69999,78,60000,81,40000,40,9999,0.100000,99,0,0.000000,17,0.000000,24.018248,0.431116,99,99,0,0,0,0,0
6,69999,79,60000,31,50000,40,9999,0.100000,99,0,0.000000,17,1.000000,28.002540,6.198721,99,99,0,0,0,0,0
6,69999,80,60000,49,0,42,9999,0.100000,99,0,0.000000,17,7.000000,28.312114,30.690038,99,99,0,0,0,0,0
6,69999,81,60000,23,50000,0,9999,0.100000,99,0,4.354538,17,2.000000,28.078953,6.867983,99,99,0,0,1,0,0
6,69999,82,60000,11,40000,40,9999,0.100000,99,0,0.000000,17,0.000000,16.507425,17.034522,99,99,0,0,0,0,0
6,69999,83,60000,28,40000,40,9999,0.100000,99,0,0.000000,17,3.000000,32.875079,7.401041,99,99,0,0,0,0,0
6,69999,84,60000,81,40000,40,9999,0.100000,99,0,0.000000,17,0.000000,28.063970,0.111273,99,99,0,0,0,0,0
6,69999,85,60000,31,50000,40,9999,0.100000,99,0,0.000000,17,0.000000,17.349324,0.877061,99,99,0,0,0,0,0
6,69999,86,60000,14,30000,40,9999,0.100000,99,0,0.000000,17,0.000000,32.856507,0.465203,99,99,0,0,0,0,0
6,69999,87,60000,99,0,41,9999,0.100000,99,0,0.000000,17,5.000000,33.396559,14.979474,99,99,0,0,0,0,0
6,69999,88,60000,49,0,40,9999,0.100000,99,0,0.000000,17,3.000000,31.829206,13.998664,99,99,0,0,0,0,0
6,69999,89,60000,14,30000,40,9999,0.100000,99,0,0.000000,17,0.000000,26.678862,1.053389,99,99,0,0,0,0,0
6,69999,90,60000,14,30000,40,9999,0.100000,99,0,0.000000,17,0.000000,25.350132,3.719097,99,99,0,0,0,0,0
6,69999,91,60000,33,10000,40,9999,0.100000,99,0,0.000000,17,0.000000,23.143726,11.935654,99,99,0,0,0,0,0
6,69999,92,60000,91,0,40,9999,0.100000,99,0,0.000000,17,0.000000,29.759889,1.389838,99,99,0,0,0,0,0
6,69999,93,60000,99,0,40,9999,0.100000,99,0,0.000000,17,0.000000,28.631659,23.876016,99,99,0,0,0,0,0
6,69999,94,60000,7,30000,40,9999,0.100000,99,0,0.000000,17,0.000000,28.826101,2.011716,99,99,0,0,0,0,0
6,69999,95,60000,99,0,40,9999,0.100000,99,0,0.000000,17,0.000000,17.239308,0.196499,99,99,0,0,0,0,0
6,69999,96,60000,81,40000,40,9999,0.100000,99,0,0.000000,17,1.000000,29.772891,3.985884,99,99,0,0,0,0,0
6,69999,97,60000,91,0,40,9999,0.100000,99,0,0.000000,17,2.000000,22.909716,9.003570,99,99,0,0,0,0,0
6,69999,98,60000,42,20000,40,9999,0.100000,99,0,0.000000,17,0.000000,24.028328,0.192261,99,99,0,0,0,0,0
6,69999,99,60000,37,50000,40,9999,0.100000,99,0,0.000000,17,0.000000,32.648156,0.678541,99,99,0,0,0,0,0
7,79999,0,70000,33,10000,40,9999,0.100000,99,0,0.000000,17,0.000000,36.314488,11.402092,99,99,0,0,0,0,0
7,79999,1,70000,31,50000,1,9999,0.100000,99,0,2.501136,17,4.000000,19.134599,4.988290,99,99,0,0,0,0,1
7,79999,2,70000,11,40000,40,9999,0.100000,99,0,0.000000,17,0.000000,31.984790,0.627102,99,99,0,0,0,0,0
7,79999,3,70000,33,10000,40,9999,0.100000,99,0,0.000000,17,0.000000,30.769514,1.463472,99,99,0,0,0,0,0
7,79999,4,70000,14,30000,41,9999,0.100000,99,0,0.000000,17,4.000000,19.444530,5.212020,99,99,0,0,0,0,0
7,79999,5,70000,99,0,40,9999,0.100000,99,0,0.000000,17,0.000000,23.557723,1.111552,99,99,0,0,0,0,0
7,79999,6,70000,11,40000,40,9999,0.100000,99,0,0.000000,17,0.000000,30.552186,3.197512,99,99,0,0,0,0,0
7,79999,7,70000,21,40000,40,9999,0.100000,99,0,0.000000,17,1.000000,28.633822,7.688633,99,99,0,0,0,0,0
7,79999,8,70000,81,40000,40,9999,0.100000,99,0,0.000000,17,1.000000,29.986164,2.940227,99,99,0,0,0,-1,0
7,79999,9,70000,14,30000,40,9999,0.100000,99,0,0.000000,17,2.000000,25.197145,10.280239,99,99,0,0,0,0,0
7,79999,10,70000,99,0,0,9999,0.100000,99,0,1.049428,17,0.000000,24.695325,0.318876,99,99,0,0,0,1,0
7,79999,11,70000,7,30000,40,9999,0.100000,99,0,0.000000,17,3.000000,33.884970,9.553451,99,99,0,0,0,0,0
7,79999,12,70000,37,50000,40,9999,0.100000,99,0,0.000000,17,0.000000,17.217670,0.983849,99,99,0,0,0,0,0
7,79999,13,70000,31,50000,0,9999,0.100000,99,0,1.037820,17,0.000000,17.641836,0.384128,99,99,0,0,0,0,1
7,79999,14,70000,32,40000,0,9999,0.100000,99,0,0.210647,17,0.000000,17.569376,0.217925,99,99,0,0,0,0,1
7,79999,15,70000,31,50000,40,9999,0.100000,99,0,0.000000,17,0.000000,29.042548,1.985213,99,99,0,0,0,0,0
7,79999,16,70000,7,30000,0,9999,0.100000,99,0,2.472562,17,0.000000,29.208867,1.075123,99,99,0,1,0,0,0
7,79999,17,70000,32,40000,40,9999,0.100000,99,0,0.000000,17,0.000000,16.730957,0.371305,99,99,0,0,0,0,0
7,79999,18,70000,21,40000,0,9999,0.100000,99,0,0.784270,17,0.000000,27.749441,0.597230,99,99,0,0,0,0,1
7,79999,19,70000,91,0,40,9999,0.100000,99,0,0.000000,17,0.000000,29.717950,0.550522,99,99,0,0,0,0,0
7,79999,20,70000,45,30000,41,9999,0.100000,99,0,0.000000,17,4.000000,19.284511,4.941078,99,99,0,0,0,0,0
7,79999,21,70000,42,20000,0,9999,0.100000,99,0,1.469380,17,0.000000,13.674252,0.331804,99,99,0,0,0,1,0
7,79999,22,70000,7,30000,40,9999,0.100000,99,0,0.000000,17,0.000000,30.383158,5.824558,99,99,0,0,0,0,0
7,79999,23,70000,99,0,0,9999,0.100000,99,0,0.001724,17,1.000000,29.275382,4.411581,99,99,0,0,0,1,0
7,79999,24,70000,42,20000,0,9999,0.100000,99,0,0.357909,17,0.000000,32.926016,0.647351,99,99,0,0,1,0,0
7,79999,25,70000,99,0,40,9999,0.100000,99,0,0.000000,17,2.000000,24.203305,6.904773,99,99,0,0,0,0,0
7,79999,26,70000,91,0,40,9999,0.100000,99,0,0.000000,17,0.000000,18.868190,1.863925,99,99,0,0,0,0,0
7,79999,27,70000,99,0,40,9999,0.100000,99,0,0.000000,17,1.000000,28.877717,8.750333,99,99,0,0,0,0,0
7,79999,28,70000,21,40000,40,9999,0.100000,99,0,0.000000,17,0.000000,17.358714,1.516641,99,99,0,0,0,0,0
7,79999,29,70000,42,20000,41,9999,0.100000,99,0,0.000000,17,4.000000,19.609288,5.513977,99,99,0,0,0,0,0
7,79999,30,70000,7,30000,40,9999,0.100000,99,0,0.000000,17,0.000000,24.023920,0.930222,99,99,0,0,0,0,0
7,79999,31,70000,21,40000,40,9999,0.100000,99,0,0.000000,17,2.000000,30.454254,5.204402,99,99,0,0,0,0,0
7,79999,32,70000,45,30000,40,9999,0.100000,99,0,0.000000,17,0.000000,28.567525,8.797393,99,99,0,0,0,0,0
7,79999,33,70000,11,40000,40,9999,0.100000,99,0,0.000000,17,0.000000,30.841691,0.466255,99,99,0,0,0,0,0
7,79999,34,70000,23,50000,40,9999,0.100000,99,0,0.000000,17,0.000000,17.412264,0.225461,99,99,0,0,0,0,0
7,79999,35,70000,42,20000,0,9999,0.100000,99,0,0.691768,17,0.000000,29.790919,0.425064,99,99,0,0,0,1,0
7,79999,36,70000,91,0,40,9999,0.100000,99,0,0.000000,17,0.000000,27.881583,5.347834,99,99,0,0,0,0,0
7,79999,37,70000,49,0,40,9999,0.100000,99,0,0.000000,17,0.000000,27.774220,1.007602,99,99,0,0,0,0,0
7,79999,38,70000,37,50000,40,9999,0.100000,99,0,0.000000,17,0.000000,28.297404,8.010836,99,99,0,0,0,0,0
7,79999,39,70000,91,0,40,9999,0.100000,99,0,0.000000,17,1.000000,14.684834,4.720987,99,99,0,0,0,0,0
7,79999,40,70000,42,20000,40,9999,0.100000,99,0,0.000000,17,0.000000,30.433730,0.133303,99,99,0,0,0,0,0
7,79999,41,70000,49,0,42,9999,0.100000,99,0,0.000000,17,5.000000,18.818903,17.758782,99,99,0,0,0,0,0
7,79999,42,70000,81,40000,40,9999,0.100000,99,0,0.000000,17,0.000000,33.081954,0.840190,99,99,0,0,0,0,0
7,79999,43,70000,33,10000,40,9999,0.100000,99,0,0.000000,17,0.000000,13.031868,0.375660,99,99,0,0,0,0,0
7,79999,44,70000,42,20000,40,9999,0.100000,99,0,0.000000,17,0.000000,30.265460,0.136478,99,99,0,0,0,0,0
7,79999,45,70000,99,0,40,9999,0.100000,99,0,0.000000,17,0.000000,18.745544,0.222756,99,99,0,0,0,0,0
7,79999,46,70000,33,10000,40,9999,0.100000,99,0,0.000000,17,0.000000,17.671734,0.212423,99,99,0,0,0,0,0
7,79999,47,70000,37,50000,40,9999,0.100000,99,0,0.000000,17,2.000000,25.676392,9.016033,99,99,0,0,0,0,0
7,79999,48,70000,28,40000,40,9999,0.100000,99,0,0.000000,17,1.000000,28.004364,3.770946,99,99,0,0,0,0,0
7,79999,49,70000,11,40000,40,9999,0.100000,99,0,0.000000,17,1.000000,26.097059,4.733559,99,99,0,0,0,0,0
7,79999,50,70000,23,50000,40,9999,0.100000,99,0,0.000000,17,3.000000,32.177833,9.735191,99,99,0,0,0,0,0
7,79999,51,70000,21,40000,40,9999,0.100000,99,0,0.000000,17,0.000000,28.015373,5.924181,99,99,0,0,0,0,0
7,79999,52,70000,7,30000,40,9999,0.100000,99,0,0.000000,17,2.000000,28.180202,5.893233,99,99,0,0,0,0,0
7,79999,53,70000,37,50000,40,9999,0.100000,99,0,0.000000,17,1.000000,17.353690,12.729724,99,99,0,0,0,0,0
7,79999,54,70000,7,30000,40,9999,0.100000,99,0,0.000000,17,0.000000,29.093479,4.727657,99,99,0,0,0,0,0
7,79999,55,70000,37,50000,40,9999,0.100000,99,0,0.000000,17,0.000000,23.856694,0.167547,99,99,0,0,0,0,0
7,79999,56,70000,49,0,40,9999,0.100000,99,0,0.000000,17,0.000000,13.210061,0.284231,99,99,0,0,0,0,0
7,79999,57,70000,32,40000,40,9999,0.100000,99,0,0.000000,17,0.000000,31.496924,0.143133,99,99,0,0,0,0,0
7,79999,58,70000,31,50000,42,9999,0.100000,99,0,0.000000,17,4.000000,17.429472,13.082883,99,99,0,0,0,0,0
7,79999,59,70000,31,50000,40,9999,0.100000,99,0,0.000000,17,0.000000,17.264452,2.801478,99,99,0,0,0,0,0
7,79999,60,70000,31,50000,40,9999,0.100000,99,0,0.000000,17,2.000000,34.530202,14.076163,99,99,0,0,0,0,0
7,79999,61,70000,91,0,40,9999,0.100000,99,0,0.000000,17,2.000000,34.880019,12.576754,99,99,0,0,0,0,0
7,79999,62,70000,45,30000,40,9999,0.100000,99,0,0.000000,17,0.000000,28.723919,7.037581,99,99,0,0,0,0,0
7,79999,63,70000,28,40000,40,9999,0.100000,99,0,0.000000,17,0.000000,29.884585,1.292534,99,99,0,0,0,0,0
7,79999,64,70000,42,20000,40,9999,0.100000,99,0,0.000000,17,0.000000,31.901601,0.142307,99,99,0,0,0,0,0
7,79999,65,70000,31,50000,40,9999,0.100000,99,0,0.000000,17,0.000000,17.359177,17.369590,99,99,0,0,0,0,0
7,79999,66,70000,91,0,40,9999,0.100000,99,0,0.000000,17,0.000000,28.175327,0.651819,99,99,0,0,0,0,0
7,79999,67,70000,28,40000,40,9999,0.100000,99,0,0.000000,17,0.000000,28.002665,10.813332,99,99,0,0,0,0,0
7,79999,68,70000,7,30000,40,9999,0.100000,99,0,0.000000,17,1.000000,24.776754,4.139207,99,99,0,0,0,0,0
7,79999,69,70000,59,0,40,9999,0.100000,99,0,0.000000,17,0.000000,17.398164,0.465031,99,99,0,0,0,0,0
7,79999,70,70000,37,50000,40,9999,0.100000,99,0,0.000000,17,0.000000,23.753704,1.338429,99,99,0,0,0,0,0
7,79999,71,70000,37,50000,40,9999,0.100000,99,0,0.000000,17,0.000000,28.572970,1.226590,99,99,0,0,0,0,0
7,79999,72,70000,45,30000,40,9999,0.100000,99,0,0.000000,17,0.000000,28.748745,8.523632,99,99,0,0,0,0,0
7,79999,73,70000,49,0,40,9999,0.100000,99,0,0.000000,17,0.000000,26.158787,0.640468,99,99,0,0,0,0,0
7,79999,74,70000,99,0,90,9999,0.100000,99,0,0.108721,17,0.000000,15.528103,0.661963,99,99,1,0,0,0,0
7,79999,75,70000,37,50000,41,9999,0.100000,99,0,0.000000,17,3.000000,27.101463,10.009201,99,99,0,0,0,0,0
7,79999,76,70000,81,40000,42,9999,0.100000,99,0,0.000000,17,4.000000,18.991662,5.233812,99,99,0,0,0,0,0
7,79999,77,70000,32,40000,40,9999,0.100000,99,0,0.000000,17,0.000000,31.974871,7.944687,99,99,0,0,0,0,0
7,79999,78,70000,14,30000,40,9999,0.100000,99,0,0.000000,17,0.000000,23.986670,4.071560,99,99,0,0,0,0,0
7,79999,79,70000,28,40000,40,9999,0.100000,99,0,0.000000,17,0.000000,26.475489,1.170023,99,99,0,0,0,0,0
7,79999,80,70000,7,30000,40,9999,0.100000,99,0,0.000000,17,2.000000,25.014777,5.680937,99,99,0,0,0,0,0
7,79999,81,70000,99,0,41,9999,0.100000,99,0,0.000000,17,3.000000,25.648319,6.210443,99,99,0,0,0,0,0
7,79999,82,70000,31,50000,40,9999,0.100000,99,0,0.000000,17,0.000000,16.312626,18.866299,99,99,0,0,0,0,0
7,79999,83,70000,32,40000,40,9999,0.100000,99,0,0.000000,17,0.000000,31.892406,0.490077,99,99,0,0,0,0,0
7,79999,84,70000,23,50000,40,9999,0.100000,99,0,0.000000,17,0.000000,28.068859,1.038580,99,99,0,0,0,0,0
7,79999,85,70000,59,0,40,9999,0.100000,99,0,0.000000,17,0.000000,17.475594,0.844956,99,99,0,0,0,0,0
7,79999,86,70000,28,40000,40,9999,0.100000,99,0,0.000000,17,0.000000,32.824318,0.644101,99,99,0,0,0,0,0
7,79999,87,70000,81,40000,40,9999,0.100000,99,0,0.000000,17,3.000000,31.035589,13.769932,99,99,0,0,0,0,0
7,79999,88,70000,23,50000,40,9999,0.100000,99,0,0.000000,17,2.000000,30.880828,15.989542,99,99,0,0,0,0,0
7,79999,89,70000,81,40000,40,9999,0.100000,99,0,0.000000,17,0.000000,26.157718,0.539480,99,99,0,0,0,0,0
7,79999,90,70000,32,40000,40,9999,0.100000,99,0,0.000000,17,0.000000,25.245505,2.381543,99,99,0,0,0,0,0
7,79999,91,70000,45,30000,40,9999,0.100000,99,0,0.000000,17,1.000000,23.983095,2.641581,99,99,0,0,0,0,0
7,79999,92,70000,23,50000,40,9999,0.100000,99,0,0.000000,17,0.000000,29.329221,0.362242,99,99,0,0,0,0,0
7,79999,93,70000,11,40000,40,9999,0.100000,99,0,0.000000,17,1.000000,28.587438,12.696342,99,99,0,0,0,0,0
7,79999,94,70000,14,30000,40,9999,0.100000,99,0,0.000000,17,0.000000,28.502750,1.237157,99,99,0,0,0,0,0
7,79999,95,70000,37,50000,40,9999,0.100000,99,0,0.000000,17,0.000000,17.355307,0.195863,99,99,0,0,0,0,0
7,79999,96,70000,37,50000,40,9999,0.100000,99,0,0.000000,17,3.000000,29.835963,14.430091,99,99,0,0,0,0,0
7,79999,97,70000,11,40000,41,9999,0.100000,99,0,0.000000,17,3.000000,21.136099,11.804135,99,99,0,0,0,0,0
7,79999,98,70000,21,40000,0,9999,0.100000,99,0,0.399489,17,0.000000,23.972634,0.185524,99,99,0,0,0,0,1
7,79999,99,70000,7,30000,40,9999,0.100000,99,0,0.000000,17,0.000000,32.715468,0.691036,99,99,0,0,0,0,0
8,89999,0,80000,45,30000,40,9999,0.100000,99,0,0.000000,17,1.000000,35.847517,14.616046,99,99,0,0,0,0,0
8,89999,1,80000,14,30000,41,9999,0.100000,99,0,0.000000,17,3.000000,22.384658,11.572478,99,99,0,0,0,0,0
8,89999,2,80000,49,0,40,9999,0.100000,99,0,0.000000,17,0.000000,31.917695,0.638537,99,99,0,0,0,0,0
8,89999,3,80000,28,40000,40,9999,0.100000,99,0,0.000000,17,0.000000,30.794803,0.133093,99,99,0,0,0,0,0
8,89999,4,80000,32,40000,41,9999,0.100000,99,0,0.000000,17,3.000000,22.732770,3.887457,99,99,0,0,0,0,0
8,89999,5,80000,81,40000,40,9999,0.100000,99,0,0.000000,17,0.000000,23.650256,0.196350,99,99,0,0,0,0,0
8,89999,6,80000,99,0,40,9999,0.100000,99,0,0.000000,17,0.000000,30.508857,3.525696,99,99,0,0,0,0,0
8,89999,7,80000,45,30000,40,9999,0.100000,99,0,0.000000,17,0.000000,28.913614,6.346974,99,99,0,0,0,0,0
8,89999,8,80000,28,40000,40,9999,0.100000,99,0,0.000000,17,0.000000,31.590430,0.144631,99,99,0,0,0,0,0
8,89999,9,80000,32,40000,43,9999,0.100000,99,0,0.000000,17,8.000000,22.411796,12.796387,99,99,0,0,0,0,0
8,89999,10,80000,49,0,40,9999,0.100000,99,0,0.000000,17,0.000000,24.798091,0.534745,99,99,0,0,0,0,0
8,89999,11,80000,45,30000,40,9999,0.100000,99,0,0.000000,17,1.000000,30.675439,9.250741,99,99,0,0,0,0,0
8,89999,12,80000,37,50000,0,9999,0.100000,99,0,0.012107,17,0.000000,17.279420,1.825736,99,99,0,0,0,0,1
8,89999,13,80000,45,30000,40,9999,0.100000,99,0,0.000000,17,0.000000,17.662303,0.197301,99,99,0,0,0,0,0
8,89999,14,80000,11,40000,0,9999,0.100000,99,0,0.184834,17,0.000000,17.666837,0.719425,99,99,0,0,0,0,1
8,89999,15,80000,81,40000,4,9999,0.100000,99,0,64.490964,17,13.000000,29.295123,21.631101,99,99,0,1,0,0,0
8,89999,16,80000,59,0,6,9999,0.135000,99,0,61.640714,17,21.000000,28.952453,34.940420,99,99,0,1,0,0,0
8,89999,17,80000,42,20000,40,9999,0.100000,99,0,0.000000,17,0.000000,16.748957,0.742077,99,99,0,0,0,0,0
8,89999,18,80000,21,40000,40,9999,0.100000,99,0,0.000000,17,1.000000,28.171743,3.535314,99,99,0,0,0,0,0
8,89999,19,80000,28,40000,40,9999,0.100000,99,0,0.000000,17,0.000000,29.726355,0.387919,99,99,0,0,0,0,0
8,89999,20,80000,21,40000,41,9999,0.100000,99,0,0.000000,17,3.000000,22.553909,4.102598,99,99,0,0,0,0,0
8,89999,21,80000,28,40000,0,9999,0.100000,99,0,0.249234,17,0.000000,13.582605,0.284529,99,99,0,0,0,1,0
8,89999,22,80000,49,0,40,9999,0.100000,99,0,0.000000,17,1.000000,30.660034,5.442553,99,99,0,0,0,0,0
8,89999,23,80000,91,0,0,9999,0.100000,99,0,1.799782,17,0.000000,28.921713,0.426080,99,99,0,0,0,1,0
8,89999,24,80000,31,50000,0,9999,0.100000,99,0,0.637416,17,0.000000,32.693321,0.494329,99,99,0,0,1,0,0
8,89999,25,80000,14,30000,40,9999,0.100000,99,0,0.000000,17,1.000000,23.004616,11.520838,99,99,0,0,0,0,0
8,89999,26,80000,21,40000,43,9999,0.100000,99,0,0.000000,17,6.000000,18.913305,17.915742,99,99,0,0,0,0,0
8,89999,27,80000,32,40000,40,9999,0.100000,99,0,0.000000,17,1.000000,28.447748,12.507970,99,99,0,0,0,0,0
8,89999,28,80000,91,0,40,9999,0.100000,99,0,0.000000,17,0.000000,17.468195,0.973351,99,99,0,0,0,0,0
8,89999,29,80000,32,40000,1,9999,0.100000,99,0,9.049642,17,3.000000,22.915751,4.180717,99,99,0,0,0,0,1
8,89999,30,80000,32,40000,40,9999,0.100000,99,0,0.000000,17,0.000000,24.860701,0.475277,99,99,0,0,0,0,0
8,89999,31,80000,28,40000,40,9999,0.100000,99,0,0.000000,17,0.000000,32.488178,0.981507,99,99,0,0,0,0,0
8,89999,32,80000,49,0,40,9999,0.100000,99,0,0.000000,17,2.000000,28.400839,3.542209,99,99,0,0,0,0,0
8,89999,33,80000,81,40000,40,9999,0.100000,99,0,0.000000,17,0.000000,30.913131,0.140391,99,99,0,0,0,0,0
8,89999,34,80000,91,0,40,9999,0.100000,99,0,0.000000,17,0.000000,17.526202,0.574434,99,99,0,0,0,0,0
8,89999,35,80000,28,40000,0,9999,0.100000,99,0,0.169091,17,0.000000,29.800723,0.365074,99,99,0,0,0,1,0
8,89999,36,80000,49,0,40,9999,0.100000,99,0,0.000000,17,1.000000,28.049328,13.420909,99,99,0,0,0,0,0
8,89999,37,80000,42,20000,40,9999,0.100000,99,0,0.000000,17,0.000000,27.010036,1.016452,99,99,0,0,0,0,0
8,89999,38,80000,21,40000,40,9999,0.100000,99,0,0.000000,17,2.000000,28.401505,6.460676,99,99,0,0,0,0,0
8,89999,39,80000,14,30000,40,9999,0.100000,99,0,0.000000,17,0.000000,13.854347,1.178194,99,99,0,0,0,0,0
8,89999,40,80000,37,50000,40,9999,0.100000,99,0,0.000000,17,0.000000,30.433466,0.137873,99,99,0,0,0,0,0
8,89999,41,80000,14,30000,41,9999,0.100000,99,0,0.000000,17,3.000000,22.318681,11.354999,99,99,0,0,0,0,0
8,89999,42,80000,32,40000,40,9999,0.100000,99,0,0.000000,17,0.000000,33.361906,0.859343,99,99,0,0,0,0,0
8,89999,43,80000,42,20000,40,9999,0.100000,99,0,0.000000,17,0.000000,12.818589,0.155359,99,99,0,0,0,0,0
8,89999,44,80000,42,20000,40,9999,0.100000,99,0,0.000000,17,0.000000,30.265250,0.133526,99,99,0,0,0,0,0
8,89999,45,80000,37,50000,40,9999,0.100000,99,0,0.000000,17,0.000000,18.756449,0.322518,99,99,0,0,0,0,0
8,89999,46,80000,11,40000,40,9999,0.100000,99,0,0.000000,17,0.000000,17.758928,0.581489,99,99,0,0,0,0,0
8,89999,47,80000,45,30000,40,9999,0.100000,99,0,0.000000,17,1.000000,27.558020,4.324980,99,99,0,0,0,0,0
8,89999,48,80000,28,40000,0,9999,0.100000,99,0,0.360533,17,1.000000,28.372317,2.044445,99,99,0,0,0,0,1
8,89999,49,80000,99,0,40,9999,0.100000,99,0,0.000000,17,0.000000,24.739484,2.864447,99,99,0,0,0,0,0
8,89999,50,80000,37,50000,40,9999,0.100000,99,0,0.000000,17,1.000000,28.807854,4.440045,99,99,0,0,0,0,0
8,89999,51,80000,32,40000,40,9999,0.100000,99,0,0.000000,17,0.000000,28.028196,11.303469,99,99,0,0,0,0,0
8,89999,52,80000,14,30000,40,9999,0.100000,99,0,0.000000,17,1.000000,29.747770,8.396131,99,99,0,0,0,0,0
8,89999,53,80000,28,40000,40,9999,0.100000,99,0,0.000000,17,0.000000,18.581326,2.696121,99,99,0,0,0,0,0
8,89999,54,80000,23,50000,41,9999,0.100000,99,0,0.000000,17,4.000000,29.283184,17.413384,99,99,0,0,0,0,0
8,89999,55,80000,28,40000,0,9999,0.100000,99,0,0.366497,17,0.000000,23.737835,0.219868,99,99,0,0,0,0,1
8,89999,56,80000,59,0,40,9999,0.100000,99,0,0.000000,17,0.000000,13.043159,0.133629,99,99,0,0,0,0,0
8,89999,57,80000,11,40000,40,9999,0.100000,99,0,0.000000,17,0.000000,31.495954,0.143125,99,99,0,0,0,0,0
8,89999,58,80000,11,40000,41,9999,0.100000,99,0,0.000000,17,3.000000,18.308108,3.817386,99,99,0,0,0,0,0
8,89999,59,80000,59,0,40,9999,0.100000,99,0,0.000000,17,0.000000,17.300004,3.441881,99,99,0,0,0,0,0
8,89999,60,80000,59,0,40,9999,0.100000,99,0,0.000000,17,2.000000,33.245520,10.074761,99,99,0,0,0,0,0
8,89999,61,80000,81,40000,40,9999,0.100000,99,0,0.000000,17,1.000000,36.935912,2.791830,99,99,0,0,0,0,0
8,89999,62,80000,21,40000,40,9999,0.100000,99,0,0.000000,17,1.000000,28.898526,7.457656,99,99,0,0,0,0,0
8,89999,63,80000,42,20000,40,9999,0.100000,99,0,0.000000,17,0.000000,29.797202,1.261850,99,99,0,0,0,0,0
8,89999,64,80000,49,0,40,9999,0.100000,99,0,0.000000,17,0.000000,31.901111,0.139796,99,99,0,0,0,0,0
8,89999,65,80000,81,40000,42,9999,0.100000,99,0,0.000000,17,4.000000,18.256646,14.436438,99,99,0,0,0,0,0
8,89999,66,80000,7,30000,40,9999,0.100000,99,0,0.000000,17,1.000000,28.619701,3.548048,99,99,0,0,0,0,0
8,89999,67,80000,49,0,41,9999,0.100000,99,0,0.000000,17,3.000000,28.186433,14.261341,99,99,0,0,0,0,0
8,89999,68,80000,42,20000,44,9999,0.100000,99,0,0.000000,17,12.000000,24.710428,14.945249,99,99,0,0,0,0,0
8,89999,69,80000,31,50000,40,9999,0.100000,99,0,0.000000,17,0.000000,17.418992,0.347656,99,99,0,0,0,0,0
8,89999,70,80000,14,30000,40,9999,0.100000,99,0,0.000000,17,0.000000,23.610190,3.592803,99,99,0,0,0,0,0
8,89999,71,80000,28,40000,40,9999,0.100000,99,0,0.000000,17,0.000000,28.567108,1.856175,99,99,0,0,0,0,0
8,89999,72,80000,33,10000,40,9999,0.100000,99,0,0.000000,17,0.000000,28.525410,7.410787,99,99,0,0,0,0,0
8,89999,73,80000,7,30000,40,9999,0.100000,99,0,0.000000,17,0.000000,26.072771,0.553301,99,99,0,0,0,0,0
8,89999,74,80000,91,0,90,9999,0.100000,99,0,0.822669,17,0.000000,15.583240,0.718099,99,99,1,0,0,0,0
8,89999,75,80000,7,30000,40,9999,0.100000,99,0,0.000000,17,1.000000,25.137590,6.659320,99,99,0,0,0,0,0
8,89999,76,80000,32,40000,41,9999,0.100000,99,0,0.000000,17,3.000000,22.208266,3.984113,99,99,0,0,0,0,0
8,89999,77,80000,31,50000,41,9999,0.100000,99,0,0.000000,17,4.000000,31.813968,13.249082,99,99,0,0,0,0,0
8,89999,78,80000,81,40000,40,9999,0.100000,99,0,0.000000,17,0.000000,24.625565,1.660964,99,99,0,0,0,0,0
8,89999,79,80000,23,50000,40,9999,0.100000,99,0,0.000000,17,0.000000,25.618559,1.058184,99,99,0,0,0,0,0
8,89999,80,80000,49,0,41,9999,0.100000,99,0,0.000000,17,4.000000,22.598548,16.322417,99,99,0,0,0,0,0
8,89999,81,80000,11,40000,40,9999,0.100000,99,0,0.000000,17,0.000000,25.243019,1.031125,99,99,0,0,0,0,0
8,89999,82,80000,21,40000,40,9999,0.100000,99,0,0.000000,17,0.000000,16.316288,21.422853,99,99,0,0,0,0,0
8,89999,83,80000,49,0,40,9999,0.100000,99,0,0.000000,17,0.000000,31.826319,0.488023,99,99,0,0,0,0,0
8,89999,84,80000,7,30000,40,9999,0.100000,99,0,0.000000,17,1.000000,28.502862,3.533287,99,99,0,0,0,0,0
8,89999,85,80000,23,50000,40,9999,0.100000,99,0,0.000000,17,0.000000,17.601189,0.458858,99,99,0,0,0,0,0
8,89999,86,80000,49,0,40,9999,0.100000,99,0,0.000000,17,0.000000,32.692189,0.623887,99,99,0,0,0,0,0
8,89999,87,80000,42,20000,40,9999,0.100000,99,0,0.000000,17,0.000000,32.779011,9.048252,99,99,0,0,0,0,0
8,89999,88,80000,45,30000,41,9999,0.100000,99,0,0.000000,17,4.000000,30.349831,13.847710,99,99,0,0,0,0,0
8,89999,89,80000,42,20000,40,9999,0.100000,99,0,0.000000,17,0.000000,26.086281,0.497280,99,99,0,0,0,0,0
8,89999,90,80000,45,30000,40,9999,0.100000,99,0,0.000000,17,0.000000,25.183433,0.610833,99,99,0,0,0,0,0
8,89999,91,80000,32,40000,40,9999,0.100000,99,0,0.000000,17,0.000000,25.160372,0.783507,99,99,0,0,0,0,0
8,89999,92,80000,23,50000,40,9999,0.100000,99,0,0.000000,17,0.000000,29.339281,0.344498,99,99,0,0,0,0,0
8,89999,93,80000,45,30000,40,9999,0.100000,99,0,0.000000,17,2.000000,28.403295,4.526441,99,99,0,0,0,0,0
8,89999,94,80000,81,40000,40,9999,0.100000,99,0,0.000000,17,0.000000,28.483727,1.869390,99,99,0,0,0,0,0
8,89999,95,80000,49,0,40,9999,0.100000,99,0,0.000000,17,0.000000,17.477374,0.952919,99,99,0,0,0,0,0
8,89999,96,80000,11,40000,41,9999,0.100000,99,0,0.000000,17,4.000000,27.435872,8.406679,99,99,0,0,0,0,0
8,89999,97,80000,28,40000,42,9999,0.100000,99,0,0.000000,17,6.000000,21.874546,9.509896,99,99,0,0,0,0,0
8,89999,98,80000,33,10000,40,9999,0.100000,99,0,0.000000,17,0.000000,23.899761,0.185934,99,99,0,0,0,0,0
8,89999,99,80000,31,50000,40,9999,0.100000,99,0,0.000000,17,0.000000,32.686596,0.811246,99,99,0,0,0,0,0
9,99999,0,90000,28,40000,40,9999,0.100000,99,0,0.000000,17,1.000000,36.228916,18.414915,99,99,0,0,0,0,0
9,99999,1,90000,99,0,40,9999,0.100000,99,0,0.000000,17,1.000000,20.867839,4.912367,99,99,0,0,0,0,0
9,99999,2,90000,33,10000,40,9999,0.100000,99,0,0.000000,17,0.000000,31.850097,0.660820,99,99,0,0,0,0,0
9,99999,3,90000,23,50000,40,9999,0.100000,99,0,0.000000,17,0.000000,30.794597,0.142025,99,99,0,0,0,0,0
9,99999,4,90000,33,10000,40,9999,0.100000,99,0,0.000000,18,1.000000,21.217969,1.603313,99,99,0,0,0,0,0
9,99999,5,90000,37,50000,40,9999,0.100000,99,0,0.000000,17,0.000000,23.597339,0.145603,99,99,0,0,0,0,0
9,99999,6,90000,45,30000,40,9999,0.100000,99,0,0.000000,17,0.000000,30.493745,4.058552,99,99,0,0,0,0,0
9,99999,7,90000,15,80000,41,9999,0.100000,99,0,0.000000,17,4.000000,28.811310,10.532293,99,99,0,0,0,0,0
9,99999,8,90000,15,80000,40,9999,0.100000,99,0,0.000000,17,0.000000,31.589848,0.143602,99,99,0,0,0,0,0
9,99999,9,90000,45,30000,40,9999,0.100000,99,0,0.000000,17,0.000000,30.154723,0.128008,99,99,0,0,0,0,0
9,99999,10,90000,32,40000,40,9999,0.100000,99,0,0.000000,17,0.000000,24.603929,0.326481,99,99,0,0,0,0,0
9,99999,11,90000,7,30000,40,9999,0.100000,99,0,0.000000,17,0.000000,31.725483,6.863244,99,99,0,0,0,0,0
9,99999,12,90000,37,50000,40,9999,0.100000,99,0,0.000000,17,0.000000,17.157959,0.491987,99,99,0,0,0,0,0
9,99999,13,90000,23,50000,0,9999,0.100000,99,0,0.511996,18,0.000000,17.641732,0.217659,99,99,0,0,0,0,1
9,99999,14,90000,45,30000,0,9999,0.100000,99,0,0.342049,17,0.000000,17.677992,0.582090,99,99,0,0,0,0,1
9,99999,15,90000,23,50000,41,9999,0.100000,99,0,0.000000,17,5.000000,34.915007,15.331238,99,99,0,0,0,0,0
9,99999,16,90000,33,10000,40,9999,0.100000,99,0,0.000000,18,0.000000,34.391293,8.918357,99,99,0,0,0,0,0
9,99999,17,90000,31,50000,40,9999,0.100000,99,0,0.000000,17,0.000000,16.718787,0.230199,99,99,0,0,0,0,0
9,99999,18,90000,91,0,40,9999,0.100000,99,0,0.000000,18,0.000000,29.860117,0.828226,99,99,0,0,0,0,0
9,99999,19,90000,31,50000,40,9999,0.100000,99,0,0.000000,17,0.000000,29.702650,0.539883,99,99,0,0,0,0,0
9,99999,20,90000,32,40000,40,9999,0.100000,99,0,0.000000,17,1.000000,20.980129,1.664592,99,99,0,0,0,0,0
9,99999,21,90000,42,20000,0,9999,0.100000,99,0,0.217039,18,0.000000,13.504393,0.379611,99,99,0,0,0,1,0
9,99999,22,90000,11,40000,40,9999,0.100000,99,0,0.000000,17,0.000000,29.423214,0.209675,99,99,0,0,0,0,0
9,99999,23,90000,42,20000,0,9999,0.100000,99,0,0.016029,18,0.000000,28.762634,0.185511,99,99,0,0,0,1,0
9,99999,24,90000,23,50000,0,9999,0.100000,99,0,1.132941,17,3.000000,32.607364,3.375166,99,99,0,0,1,0,0
9,99999,25,90000,32,40000,40,9999,0.100000,99,0,0.000000,17,1.000000,24.219428,13.526714,99,99,0,0,0,0,0
9,99999,26,90000,99,0,40,9999,0.100000,99,0,0.000000,17,2.000000,23.173883,10.599559,99,99,0,0,0,0,0
9,99999,27,90000,14,30000,40,9999,0.100000,99,0,0.000000,18,0.000000,28.150707,6.525623,99,99,0,0,0,0,0
9,99999,28,90000,91,0,40,9999,0.100000,99,0,0.000000,18,0.000000,17.282847,0.698869,99,99,0,0,0,0,0
9,99999,29,90000,91,0,0,9999,0.100000,99,0,5.633502,17,1.000000,21.414039,1.547756,99,99,0,0,0,0,1
9,99999,30,90000,37,50000,40,9999,0.100000,99,0,0.000000,17,0.000000,25.288005,1.130441,99,99,0,0,0,0,0
9,99999,31,90000,42,20000,40,9999,0.100000,99,0,0.000000,17,0.000000,32.658262,0.671063,99,99,0,0,0,0,0
9,99999,32,90000,33,10000,42,9999,0.100000,99,0,0.000000,18,7.000000,28.147749,16.833890,99,99,0,0,0,0,0
9,99999,33,90000,7,30000,40,9999,0.100000,99,0,0.000000,17,0.000000,30.912685,0.142224,99,99,0,0,0,0,0
9,99999,34,90000,21,40000,40,9999,0.100000,99,0,0.000000,17,0.000000,17.577639,0.455911,99,99,0,0,0,0,0
9,99999,35,90000,14,30000,0,9999,0.100000,99,0,1.406831,17,0.000000,29.788859,0.558401,99,99,0,0,0,1,0
9,99999,36,90000,28,40000,40,9999,0.100000,99,0,0.000000,17,0.000000,29.221584,10.952784,99,99,0,0,0,0,0
9,99999,37,90000,7,30000,40,9999,0.100000,99,0,0.000000,17,0.000000,26.231746,1.001851,99,99,0,0,0,0,0
9,99999,38,90000,32,40000,40,9999,0.100000,99,0,0.000000,18,0.000000,28.056385,6.425194,99,99,0,0,0,0,0
9,99999,39,90000,14,30000,40,9999,0.100000,99,0,0.000000,18,0.000000,13.689921,0.218840,99,99,0,0,0,0,0
9,99999,40,90000,49,0,40,9999,0.100000,99,0,0.000000,17,0.000000,30.433178,0.136062,99,99,0,0,0,0,0
9,99999,41,90000,32,40000,40,9999,0.100000,99,0,0.000000,18,1.000000,20.712340,9.987849,99,99,0,0,0,0,0
9,99999,42,90000,37,50000,40,9999,0.100000,99,0,0.000000,17,0.000000,33.677535,0.913304,99,99,0,0,0,0,0
9,99999,43,90000,32,40000,40,9999,0.100000,99,0,0.000000,17,0.000000,12.743537,0.128233,99,99,0,0,0,0,0
9,99999,44,90000,42,20000,40,9999,0.100000,99,0,0.000000,17,0.000000,30.265166,0.138568,99,99,0,0,0,0,0
9,99999,45,90000,32,40000,40,9999,0.100000,99,0,0.000000,17,0.000000,18.831304,1.786423,99,99,0,0,0,0,0
9,99999,46,90000,32,40000,40,9999,0.100000,99,0,0.000000,17,0.000000,17.749146,0.754155,99,99,0,0,0,0,0
9,99999,47,90000,11,40000,40,9999,0.100000,99,0,0.000000,17,2.000000,26.878665,15.435114,99,99,0,0,0,0,0
9,99999,48,90000,49,0,40,9999,0.100000,99,0,0.000000,18,0.000000,30.202648,0.799741,99,99,0,0,0,0,0
9,99999,49,90000,14,30000,40,9999,0.100000,99,0,0.000000,18,0.000000,23.938236,0.997760,99,99,0,0,0,0,0
9,99999,50,90000,37,50000,0,9999,0.100000,99,0,0.196151,17,0.000000,30.422671,1.106304,99,99,0,0,0,0,1
9,99999,51,90000,59,0,41,9999,0.100000,99,0,0.000000,17,3.000000,28.028856,5.806961,99,99,0,0,0,0,0
9,99999,52,90000,11,40000,40,9999,0.100000,99,0,0.000000,18,0.000000,28.823772,11.131395,99,99,0,0,0,0,0
9,99999,53,90000,21,40000,40,9999,0.100000,99,0,0.000000,17,0.000000,18.671277,0.861061,99,99,0,0,0,0,0
9,99999,54,90000,15,80000,40,9999,0.100000,99,0,0.000000,17,2.000000,24.864245,7.635591,99,99,0,0,0,0,0
9,99999,55,90000,28,40000,0,9999,0.100000,99,0,1.518724,17,0.000000,23.681274,1.009671,99,99,0,0,0,0,1
9,99999,56,90000,14,30000,40,9999,0.100000,99,0,0.000000,18,0.000000,12.967711,0.119740,99,99,0,0,0,0,0
9,99999,57,90000,99,0,40,9999,0.100000,99,0,0.000000,17,0.000000,31.495628,0.148072,99,99,0,0,0,0,0
9,99999,58,90000,28,40000,40,9999,0.100000,99,0,0.000000,17,0.000000,20.548030,1.014191,99,99,0,0,0,0,0
9,99999,59,90000,37,50000,40,9999,0.100000,99,0,0.000000,17,0.000000,17.216677,1.338551,99,99,0,0,0,0,0
9,99999,60,90000,7,30000,40,9999,0.100000,99,0,0.000000,17,0.000000,31.964170,9.002808,99,99,0,0,0,0,0
9,99999,61,90000,81,40000,40,9999,0.100000,99,0,0.000000,17,0.000000,38.031222,0.082864,99,99,0,0,0,0,0
9,99999,62,90000,16,80000,40,9999,0.135000,99,0,0.000000,18,0.000000,28.585616,6.031430,99,99,0,0,0,0,0
9,99999,63,90000,31,50000,40,9999,0.100000,99,0,0.000000,17,0.000000,29.741664,1.297445,99,99,0,0,0,0,0
9,99999,64,90000,45,30000,40,9999,0.100000,99,0,0.000000,17,0.000000,31.900548,0.140585,99,99,0,0,0,0,0
9,99999,65,90000,91,0,40,9999,0.100000,99,0,0.000000,17,0.000000,13.418427,10.242708,99,99,0,0,0,0,0
9,99999,66,90000,59,0,43,9999,0.100000,99,0,0.000000,17,11.000000,30.242762,13.138269,99,99,0,0,0,0,0
9,99999,67,90000,99,0,40,9999,0.100000,99,0,0.000000,17,2.000000,25.265396,10.154648,99,99,0,0,0,0,0
9,99999,68,90000,37,50000,40,9999,0.100000,99,0,0.000000,17,0.000000,23.639373,3.723562,99,99,0,0,0,0,0
9,99999,69,90000,15,80000,40,9999,0.100000,99,0,0.000000,17,0.000000,17.396139,0.254605,99,99,0,0,0,0,0
9,99999,70,90000,59,0,40,9999,0.100000,99,0,0.000000,18,0.000000,23.746734,1.162022,99,99,0,0,0,0,0
9,99999,71,90000,45,30000,42,9999,0.100000,99,0,0.000000,17,7.000000,28.518409,16.754343,99,99,0,0,0,0,0
9,99999,72,90000,31,50000,40,9999,0.100000,99,0,0.000000,17,2.000000,28.408209,9.400139,99,99,0,0,0,0,0
9,99999,73,90000,14,30000,40,9999,0.100000,99,0,0.000000,17,0.000000,26.097778,0.577214,99,99,0,0,0,0,0
9,99999,74,90000,45,30000,90,9999,0.100000,99,0,1.955893,18,0.000000,15.739617,0.883203,99,99,1,0,0,0,0
9,99999,75,90000,37,50000,41,9999,0.100000,99,0,0.000000,17,4.000000,25.589088,13.417769,99,99,0,0,0,0,0
9,99999,76,90000,81,40000,40,9999,0.100000,99,0,0.000000,17,1.000000,20.729945,1.662544,99,99,0,0,0,0,0
9,99999,77,90000,33,10000,40,9999,0.100000,99,0,0.000000,17,0.000000,29.238105,0.162235,99,99,0,0,0,0,0
9,99999,78,90000,33,10000,40,9999,0.100000,99,0,0.000000,17,0.000000,24.238753,0.588075,99,99,0,0,0,0,0
9,99999,79,90000,11,40000,40,9999,0.100000,99,0,0.000000,17,0.000000,24.804717,0.997021,99,99,0,0,0,0,0
9,99999,80,90000,14,30000,41,9999,0.100000,99,0,0.000000,17,4.000000,23.494341,12.458318,99,99,0,0,0,0,0
9,99999,81,90000,32,40000,40,9999,0.100000,99,0,0.000000,17,0.000000,24.449025,0.987124,99,99,0,0,0,0,0
9,99999,82,90000,37,50000,40,9999,0.065000,99,0,0.000000,17,0.000000,16.951054,22.339530,99,99,0,0,0,0,0
9,99999,83,90000,81,40000,40,9999,0.100000,99,0,0.000000,17,0.000000,31.759464,0.498982,99,99,0,0,0,0,0
9,99999,84,90000,23,50000,40,9999,0.100000,99,0,0.000000,17,0.000000,30.048468,0.920967,99,99,0,0,0,0,0
9,99999,85,90000,99,0,40,9999,0.100000,99,0,0.000000,18,0.000000,17.635649,0.392016,99,99,0,0,0,0,0
9,99999,86,90000,91,0,40,9999,0.100000,99,0,0.000000,17,3.000000,32.726339,3.616616,99,99,0,0,0,0,0
9,99999,87,90000,7,30000,40,9999,0.100000,99,0,0.000000,17,2.000000,32.560471,17.889793,99,99,0,0,0,0,0
9,99999,88,90000,42,20000,40,9999,0.100000,99,0,0.000000,17,1.000000,32.760248,5.246119,99,99,0,0,0,0,0
9,99999,89,90000,31,50000,40,9999,0.100000,99,0,0.000000,17,0.000000,26.113645,0.523257,99,99,0,0,0,0,0
9,99999,90,90000,59,0,40,9999,0.100000,99,0,0.000000,18,0.000000,25.344595,0.596959,99,99,0,0,0,0,0
9,99999,91,90000,28,40000,40,9999,0.100000,99,0,0.000000,17,0.000000,25.318976,0.784530,99,99,0,0,0,0,0
9,99999,92,90000,37,50000,40,9999,0.100000,99,0,0.000000,17,0.000000,29.324252,0.529419,99,99,0,0,0,0,0
9,99999,93,90000,11,40000,40,9999,0.100000,99,0,0.000000,17,0.000000,30.277015,1.747569,99,99,0,0,0,0,0
9,99999,94,90000,11,40000,42,9999,0.100000,99,0,0.000000,17,7.000000,28.431164,17.960718,99,99,0,0,0,0,0
9,99999,95,90000,11,40000,40,9999,0.100000,99,0,0.000000,17,0.000000,17.548247,0.845782,99,99,0,0,0,0,0
9,99999,96,90000,7,30000,40,9999,0.100000,99,0,0.000000,18,0.000000,32.054943,1.348444,99,99,0,0,0,0,0
9,99999,97,90000,99,0,40,9999,0.100000,99,0,0.000000,17,1.000000,24.665803,10.100888,99,99,0,0,0,0,0
9,99999,98,90000,32,40000,40,9999,0.100000,99,0,0.000000,17,0.000000,23.854089,0.339982,99,99,0,0,0,0,0
9,99999,99,90000,7,30000,40,9999,0.100000,99,0,0.000000,18,3.000000,32.846535,4.053893,99,99,0,0,0,0,0
10,109999,0,100000,32,40000,40,9999,0.100000,99,0,0.000000,18,1.000000,35.544999,21.375607,99,99,0,0,0,0,0
10,109999,1,100000,7,30000,40,9999,0.100000,99,0,0.000000,18,1.000000,19.771972,6.729335,99,99,0,0,0,0,0
10,109999,2,100000,99,0,40,9999,0.100000,99,0,0.000000,18,0.000000,31.780124,0.671855,99,99,0,0,0,0,0
10,109999,3,100000,28,40000,40,9999,0.100000,99,0,0.000000,18,0.000000,30.794154,0.142745,99,99,0,0,0,0,0
10,109999,4,100000,37,50000,40,9999,0.100000,99,0,0.000000,18,1.000000,21.197916,1.146149,99,99,0,0,0,0,0
10,109999,5,100000,33,10000,40,9999,0.100000,99,0,0.000000,18,0.000000,23.507575,0.211425,99,99,0,0,0,0,0
10,109999,6,100000,49,0,40,9999,0.100000,99,0,0.000000,18,0.000000,30.563350,3.916683,99,99,0,0,0,0,0
10,109999,7,100000,91,0,40,9999,0.100000,99,0,0.000000,18,0.000000,26.339908,13.400494,99,99,0,0,0,0,0
10,109999,8,100000,59,0,40,9999,0.100000,99,0,0.000000,18,0.000000,31.589509,0.136570,99,99,0,0,0,0,0
10,109999,9,100000,31,50000,40,9999,0.100000,99,0,0.000000,18,0.000000,30.154587,0.135180,99,99,0,0,0,0,0
10,109999,10,100000,16,80000,40,9999,0.135000,99,0,0.000000,18,0.000000,24.512407,0.422517,99,99,0,0,0,0,0
10,109999,11,100000,11,40000,40,9999,0.100000,99,0,0.000000,18,3.000000,31.649437,14.633278,99,99,0,0,0,0,0
10,109999,12,100000,15,80000,40,9999,0.100000,99,0,0.000000,18,0.000000,17.212731,0.591020,99,99,0,0,0,0,0
10,109999,13,100000,32,40000,0,9999,0.100000,99,0,0.506120,18,0.000000,17.641189,0.230863,99,99,0,0,0,0,1
10,109999,14,100000,32,40000,0,9999,0.100000,99,0,0.085843,18,0.000000,17.759626,0.605965,99,99,0,0,0,0,1
10,109999,15,100000,91,0,40,9999,0.100000,99,0,0.000000,18,1.000000,29.822566,5.349515,99,99,0,0,0,0,0
10,109999,16,100000,28,40000,40,9999,0.100000,99,0,0.000000,18,0.000000,34.879119,7.122739,99,99,0,0,0,0,0
10,109999,17,100000,81,40000,40,9999,0.100000,99,0,0.000000,18,0.000000,16.719191,0.218666,99,99,0,0,0,0,0
10,109999,18,100000,11,40000,40,9999,0.100000,99,0,0.000000,18,0.000000,29.985244,0.556168,99,99,0,0,0,0,0
10,109999,19,100000,59,0,40,9999,0.100000,99,0,0.000000,18,0.000000,29.729605,0.586524,99,99,0,0,0,0,0
10,109999,20,100000,7,30000,40,9999,0.065000,99,0,0.000000,18,1.000000,20.998336,1.271928,99,99,0,0,0,0,0
10,109999,21,100000,45,30000,0,9999,0.100000,99,0,0.016298,18,0.000000,13.423066,0.679194,99,99,0,0,0,1,0
10,109999,22,100000,81,40000,0,9999,0.100000,99,0,0.015469,18,0.000000,29.402316,0.173359,99,99,0,0,0,1,0
10,109999,23,100000,7,30000,40,9999,0.100000,99,0,0.000000,18,0.000000,28.740900,0.131954,99,99,0,0,0,0,0
10,109999,24,100000,81,40000,0,9999,0.100000,99,0,0.494299,18,0.000000,34.540605,1.076582,99,99,0,0,1,0,0
10,109999,25,100000,81,40000,40,9999,0.100000,99,0,0.000000,18,1.000000,24.173456,11.124284,99,99,0,0,0,0,0
10,109999,26,100000,66,90000,42,9999,0.100000,99,0,0.000000,18,5.000000,20.790068,6.448751,99,99,0,0,0,0,0
10,109999,27,100000,7,30000,40,9999,0.100000,99,0,0.000000,18,2.000000,28.084712,10.120292,99,99,0,0,0,0,0
10,109999,28,100000,99,0,40,9999,0.100000,99,0,0.000000,18,0.000000,17.217712,0.675635,99,99,0,0,0,0,0
10,109999,29,100000,28,40000,0,9999,0.100000,99,0,3.828392,18,1.000000,21.394072,1.086959,99,99,0,0,0,0,1
10,109999,30,100000,37,50000,40,9999,0.100000,99,0,0.000000,18,0.000000,25.479542,1.189873,99,99,0,0,0,0,0
10,109999,31,100000,45,30000,40,9999,0.100000,99,0,0.000000,18,0.000000,32.755792,0.834133,99,99,0,0,0,0,0
10,109999,32,100000,31,50000,40,9999,0.100000,99,0,0.000000,18,1.000000,26.970087,10.240855,99,99,0,0,0,0,0
10,109999,33,100000,45,30000,40,9999,0.100000,99,0,0.000000,18,0.000000,30.912429,0.144286,99,99,0,0,0,0,0
10,109999,34,100000,49,0,40,9999,0.100000,99,0,0.000000,18,0.000000,17.681741,0.346941,99,99,0,0,0,0,0
10,109999,35,100000,16,80000,0,9999,0.135000,99,0,1.323563,18,0.000000,29.823974,0.579206,99,99,0,0,0,1,0
10,109999,36,100000,59,0,40,9999,0.100000,99,0,0.000000,18,1.000000,28.950524,8.791504,99,99,0,0,0,0,0
10,109999,37,100000,37,50000,40,9999,0.100000,99,0,0.000000,18,0.000000,25.458901,1.020907,99,99,0,0,0,0,0
10,109999,38,100000,91,0,40,9999,0.100000,99,0,0.000000,18,2.000000,28.063906,7.603581,99,99,0,0,0,0,0
10,109999,39,100000,42,20000,40,9999,0.135000,99,0,0.000000,18,0.000000,13.612661,0.447432,99,99,0,0,0,0,0
10,109999,40,100000,91,0,40,9999,0.100000,99,0,0.000000,18,0.000000,30.433018,0.141021,99,99,0,0,0,0,0
10,109999,41,100000,49,0,40,9999,0.100000,99,0,0.000000,18,1.000000,20.870095,3.022901,99,99,0,0,0,0,0
10,109999,42,100000,49,0,40,9999,0.100000,99,0,0.000000,18,0.000000,34.047819,0.944140,99,99,0,0,0,0,0
10,109999,43,100000,28,40000,40,9999,0.100000,99,0,0.000000,18,0.000000,12.668656,0.190372,99,99,0,0,0,0,0
10,109999,44,100000,33,10000,40,9999,0.100000,99,0,0.000000,18,0.000000,30.264931,0.143176,99,99,0,0,0,0,0
10,109999,45,100000,59,0,40,9999,0.100000,99,0,0.000000,18,0.000000,18.990814,0.390409,99,99,0,0,0,0,0
10,109999,46,100000,37,50000,40,9999,0.135000,99,0,0.000000,18,0.000000,17.815433,0.756076,99,99,0,0,0,0,0
10,109999,47,100000,31,50000,40,9999,0.100000,99,0,0.000000,18,1.000000,27.050341,7.932125,99,99,0,0,0,0,0
10,109999,48,100000,16,80000,40,9999,0.135000,99,0,0.000000,18,0.000000,30.158803,0.473132,99,99,0,0,0,0,0
10,109999,49,100000,23,50000,40,9999,0.100000,99,0,0.000000,18,0.000000,23.197250,0.980605,99,99,0,0,0,0,0
10,109999,50,100000,66,90000,40,9999,0.100000,99,0,0.000000,18,0.000000,30.266237,0.927497,99,99,0,0,0,0,0
10,109999,51,100000,37,50000,40,9999,0.100000,99,0,0.000000,18,0.000000,25.068298,1.006624,99,99,0,0,0,0,0
10,109999,52,100000,32,40000,41,9999,0.100000,99,0,0.000000,18,6.000000,29.186544,9.156757,99,99,0,0,0,0,0
10,109999,53,100000,11,40000,40,9999,0.100000,99,0,0.000000,18,0.000000,18.814452,2.459236,99,99,0,0,0,0,0
10,109999,54,100000,59,0,41,9999,0.100000,99,0,0.000000,18,5.000000,26.264350,8.808807,99,99,0,0,0,0,0
10,109999,55,100000,49,0,44,9999,0.100000,99,0,0.000000,18,11.000000,23.304406,13.795586,99,99,0,0,0,0,0
10,109999,56,100000,33,10000,40,9999,0.100000,99,0,0.000000,18,0.000000,12.891373,0.688748,99,99,0,0,0,0,0
10,109999,57,100000,81,40000,40,9999,0.100000,99,0,0.000000,18,0.000000,31.495380,0.137568,99,99,0,0,0,0,0
10,109999,58,100000,37,50000,40,9999,0.100000,99,0,0.000000,18,0.000000,21.035312,1.114301,99,99,0,0,0,0,0
10,109999,59,100000,28,40000,40,9999,0.100000,99,0,0.000000,18,0.000000,17.252929,1.782252,99,99,0,0,0,0,0
10,109999,60,100000,66,90000,40,9999,0.100000,99,0,0.000000,18,2.000000,32.355032,10.734496,99,99,0,0,0,0,0
10,109999,61,100000,16,80000,40,9999,0.135000,99,0,0.000000,18,0.000000,38.031145,0.089817,99,99,0,0,0,0,0
10,109999,62,100000,33,10000,41,9999,0.100000,99,0,0.000000,18,5.000000,28.761837,16.351724,99,99,0,0,0,0,0
10,109999,63,100000,99,0,40,9999,0.100000,99,0,0.000000,18,0.000000,29.720014,0.728321,99,99,0,0,0,0,0
10,109999,64,100000,23,50000,40,9999,0.100000,99,0,0.000000,18,0.000000,31.900124,0.139557,99,99,0,0,0,0,0
10,109999,65,100000,23,50000,40,9999,0.100000,99,0,0.000000,18,1.000000,13.378471,4.280974,99,99,0,0,0,0,0
10,109999,66,100000,49,0,42,9999,0.100000,99,0,0.000000,18,6.000000,21.904161,7.668758,99,99,0,0,0,0,0
10,109999,67,100000,28,40000,40,9999,0.100000,99,0,0.000000,18,0.000000,27.151105,16.253294,99,99,0,0,0,0,0
10,109999,68,100000,11,40000,0,9999,0.100000,99,0,0.278426,18,0.000000,23.436890,1.619773,99,99,0,0,0,0,1
10,109999,69,100000,49,0,40,9999,0.100000,99,0,0.000000,18,0.000000,17.396246,0.332253,99,99,0,0,0,0,0
10,109999,70,100000,16,80000,40,9999,0.135000,99,0,0.000000,18,0.000000,23.115182,0.530723,99,99,0,0,0,0,0
10,109999,71,100000,28,40000,40,9999,0.100000,99,0,0.000000,18,2.000000,25.642896,13.029798,99,99,0,0,0,0,0
10,109999,72,100000,31,50000,41,9999,0.100000,99,0,0.000000,18,5.000000,26.202242,13.713982,99,99,0,0,0,0,0
10,109999,73,100000,81,40000,41,9999,0.100000,99,0,0.000000,18,3.000000,26.056931,7.626766,99,99,0,0,0,0,0
10,109999,74,100000,28,40000,90,9999,0.100000,99,0,3.226674,18,0.000000,16.071857,1.077488,99,99,1,0,0,0,0
10,109999,75,100000,66,90000,40,9999,0.100000,99,0,0.000000,18,2.000000,27.534299,7.092891,99,99,0,0,0,0,0
10,109999,76,100000,32,40000,40,9999,0.100000,99,0,0.000000,18,1.000000,20.689735,1.121535,99,99,0,0,0,0,0
10,109999,77,100000,81,40000,40,9999,0.100000,99,0,0.000000,18,0.000000,29.215581,0.117609,99,99,0,0,0,0,0
10,109999,78,100000,37,50000,40,9999,0.100000,99,0,0.000000,18,0.000000,23.835384,0.476156,99,99,0,0,0,0,0
10,109999,79,100000,66,90000,40,9999,0.100000,99,0,0.000000,18,0.000000,24.054293,1.021192,99,99,0,0,0,0,0
10,109999,80,100000,49,0,43,9999,0.100000,99,0,0.000000,18,7.000000,21.828744,18.693728,99,99,0,0,0,0,0
10,109999,81,100000,33,10000,40,9999,0.100000,99,0,0.000000,18,0.000000,23.701055,1.022409,99,99,0,0,0,0,0
10,109999,82,100000,81,40000,40,9999,0.100000,99,0,0.000000,18,0.000000,17.016180,22.339752,99,99,0,0,0,0,0
10,109999,83,100000,59,0,40,9999,0.100000,99,0,0.000000,18,0.000000,31.690226,0.497915,99,99,0,0,0,0,0
10,109999,84,100000,49,0,40,9999,0.100000,99,0,0.000000,18,0.000000,30.068122,0.506192,99,99,0,0,0,0,0
10,109999,85,100000,37,50000,40,9999,0.100000,99,0,0.000000,18,0.000000,17.727911,0.727140,99,99,0,0,0,0,0
10,109999,86,100000,66,90000,40,9999,0.100000,99,0,0.000000,18,0.000000,34.801625,0.892043,99,99,0,0,0,0,0
10,109999,87,100000,23,50000,40,9999,0.100000,99,0,0.000000,18,1.000000,34.313824,10.770076,99,99,0,0,0,0,0
10,109999,88,100000,11,40000,41,9999,0.100000,99,0,0.000000,18,5.000000,33.478947,15.882834,99,99,0,0,0,0,0
10,109999,89,100000,28,40000,41,9999,0.100000,99,0,0.000000,18,4.000000,26.067872,11.436342,99,99,0,0,0,0,0
10,109999,90,100000,81,40000,41,9999,0.100000,99,0,0.000000,18,3.000000,25.519304,7.270392,99,99,0,0,0,0,0
10,109999,91,100000,81,40000,41,9999,0.100000,99,0,0.000000,18,3.000000,25.491949,7.500525,99,99,0,0,0,0,0
10,109999,92,100000,91,0,40,9999,0.100000,99,0,0.000000,18,0.000000,29.363065,0.593661,99,99,0,0,0,0,0
10,109999,93,100000,23,50000,40,9999,0.100000,99,0,0.000000,18,0.000000,30.334732,0.865211,99,99,0,0,0,0,0
10,109999,94,100000,37,50000,40,9999,0.100000,99,0,0.000000,18,2.000000,26.027842,12.101749,99,99,0,0,0,0,0
10,109999,95,100000,45,30000,40,9999,0.100000,99,0,0.000000,18,0.000000,17.665039,0.909280,99,99,0,0,0,0,0
10,109999,96,100000,99,0,40,9999,0.100000,99,0,0.000000,18,0.000000,32.671002,0.732091,99,99,0,0,0,0,0
10,109999,97,100000,66,90000,41,9999,0.100000,99,0,0.000000,18,3.000000,23.649061,12.623145,99,99,0,0,0,0,0
10,109999,98,100000,91,0,40,9999,0.100000,99,0,0.000000,18,0.000000,23.624688,0.307221,99,99,0,0,0,0,0
10,109999,99,100000,66,90000,40,9999,0.100000,99,0,0.000000,18,0.000000,35.072998,0.923349,99,99,0,0,0,0,0
11,119999,0,110000,49,0,40,9999,0.100000,99,0,0.000000,18,1.000000,35.571012,7.914651,99,99,0,0,0,0,0
11,119999,1,110000,45,30000,43,9999,0.100000,99,0,0.000000,18,6.000000,18.659524,16.680372,99,99,0,0,0,0,0
11,119999,2,110000,42,20000,40,9999,0.100000,99,0,0.000000,18,0.000000,31.712538,0.657469,99,99,0,0,0,0,0
11,119999,3,110000,81,40000,40,9999,0.100000,99,0,0.000000,18,0.000000,30.793834,0.138979,99,99,0,0,0,0,0
11,119999,4,110000,49,0,0,9999,0.100000,99,0,0.796086,18,1.000000,21.341228,1.537188,99,99,0,0,0,0,1
11,119999,5,110000,81,40000,40,9999,0.100000,99,0,0.000000,18,0.000000,23.500725,0.224964,99,99,0,0,0,0,0
11,119999,6,110000,66,90000,40,9999,0.100000,99,0,0.000000,18,0.000000,30.621116,2.567598,99,99,0,0,0,0,0
11,119999,7,110000,49,0,41,9999,0.100000,99,0,0.000000,18,5.000000,26.711900,15.107066,99,99,0,0,0,0,0
11,119999,8,110000,15,80000,40,9999,0.100000,99,0,0.000000,18,0.000000,31.589386,0.143236,99,99,0,0,0,0,0
11,119999,9,110000,11,40000,40,9999,0.065000,99,0,0.000000,18,0.000000,30.154341,0.133340,99,99,0,0,0,0,0
11,119999,10,110000,45,30000,40,9999,0.100000,99,0,0.000000,18,0.000000,24.569565,0.408549,99,99,0,0,0,0,0
11,119999,11,110000,33,10000,40,9999,0.100000,99,0,0.000000,18,1.000000,28.212853,10.652191,99,99,0,0,0,0,0
11,119999,12,110000,42,20000,40,9999,0.100000,99,0,0.000000,18,0.000000,17.243551,0.643007,99,99,0,0,0,0,0
11,119999,13,110000,99,0,0,9999,0.100000,99,0,0.670418,18,0.000000,17.669990,0.260363,99,99,0,0,0,0,1
11,119999,14,110000,49,0,0,9999,0.100000,99,0,0.266508,18,0.000000,17.769280,0.573276,99,99,0,0,0,0,1
11,119999,15,110000,16,80000,41,9999,0.135000,99,0,0.000000,18,5.000000,30.052621,11.679706,99,99,0,0,0,0,0
11,119999,16,110000,37,50000,40,9999,0.100000,99,0,0.000000,18,0.000000,34.926841,9.036733,99,99,0,0,0,0,0
11,119999,17,110000,11,40000,40,9999,0.100000,99,0,0.000000,18,0.000000,16.751075,0.383776,99,99,0,0,0,0,0
11,119999,18,110000,23,50000,40,9999,0.100000,99,0,0.000000,18,0.000000,29.984765,0.943449,99,99,0,0,0,0,0
11,119999,19,110000,91,0,40,9999,0.100000,99,0,0.000000,18,0.000000,29.779811,1.691332,99,99,0,0,0,0,0
11,119999,20,110000,16,80000,40,9999,0.135000,99,0,0.000000,18,1.000000,21.130836,1.463006,99,99,0,0,0,0,0
11,119999,21,110000,23,50000,0,9999,0.100000,99,0,0.193266,18,0.000000,13.442058,0.393682,99,99,0,0,0,1,0
11,119999,22,110000,7,30000,0,9999,0.100000,99,0,0.106653,18,0.000000,29.402603,0.240863,99,99,0,0,0,1,0
11,119999,23,110000,66,90000,40,9999,0.100000,99,0,0.000000,18,0.000000,28.743062,0.559901,99,99,0,0,0,0,0
11,119999,24,110000,59,0,0,9999,0.100000,99,0,2.483204,18,0.000000,34.661162,1.129754,99,99,0,0,1,0,0
11,119999,25,110000,81,40000,40,9999,0.100000,99,0,0.000000,18,0.000000,25.206923,8.652967,99,99,0,0,0,0,0
11,119999,26,110000,99,0,40,9999,0.100000,99,0,0.000000,18,0.000000,19.227706,0.228706,99,99,0,0,0,0,0
11,119999,27,110000,31,50000,41,9999,0.100000,99,0,0.000000,18,5.000000,28.459713,14.442041,99,99,0,0,0,0,0
11,119999,28,110000,33,10000,43,9999,0.100000,99,0,0.000000,18,6.000000,17.174059,36.844042,99,99,0,0,0,0,0
11,119999,29,110000,31,50000,40,9999,0.100000,99,0,0.000000,18,1.000000,21.534617,1.237823,99,99,0,0,0,0,0
11,119999,30,110000,91,0,40,9999,0.100000,99,0,0.000000,18,0.000000,25.949013,1.055540,99,99,0,0,0,0,0
11,119999,31,110000,33,10000,40,9999,0.100000,99,0,0.000000,18,0.000000,32.940346,0.987751,99,99,0,0,0,0,0
11,119999,32,110000,31,50000,40,9999,0.100000,99,0,0.000000,18,1.000000,26.601494,7.817691,99,99,0,0,0,0,0
11,119999,33,110000,42,20000,40,9999,0.100000,99,0,0.000000,18,0.000000,30.912012,0.139868,99,99,0,0,0,0,0
11,119999,34,110000,16,80000,40,9999,0.135000,99,0,0.000000,18,0.000000,17.712527,0.325124,99,99,0,0,0,0,0
11,119999,35,110000,66,90000,0,9999,0.100000,99,0,0.421891,18,0.000000,29.874812,2.943354,99,99,0,0,0,1,0
11,119999,36,110000,99,0,40,9999,0.100000,99,0,0.000000,18,1.000000,28.885578,4.116522,99,99,0,0,0,0,0
11,119999,37,110000,37,50000,40,9999,0.100000,99,0,0.000000,18,0.000000,24.668684,1.011160,99,99,0,0,0,0,0
11,119999,38,110000,45,30000,41,9999,0.100000,99,0,0.000000,18,3.000000,28.426736,13.955879,99,99,0,0,0,0,0
11,119999,39,110000,91,0,40,9999,0.100000,99,0,0.000000,18,1.000000,13.631508,10.123970,99,99,0,0,0,0,0
11,119999,40,110000,15,80000,40,9999,0.100000,99,0,0.000000,18,0.000000,30.432855,0.143153,99,99,0,0,0,0,0
11,119999,41,110000,66,90000,43,9999,0.100000,99,0,0.000000,18,7.000000,20.981686,10.107533,99,99,0,0,0,0,0
11,119999,42,110000,28,40000,40,9999,0.100000,99,0,0.000000,18,1.000000,34.474210,3.067833,99,99,0,0,0,0,0
11,119999,43,110000,99,0,40,9999,0.100000,99,0,0.000000,18,0.000000,12.692261,0.240261,99,99,0,0,0,0,0
11,119999,44,110000,31,50000,40,9999,0.100000,99,0,0.000000,18,0.000000,30.264696,0.137006,99,99,0,0,0,0,0
11,119999,45,110000,37,50000,40,9999,0.100000,99,0,0.000000,18,0.000000,19.031125,0.293785,99,99,0,0,0,0,0
11,119999,46,110000,31,50000,40,9999,0.100000,99,0,0.000000,18,0.000000,17.812949,0.869283,99,99,0,0,0,0,0
11,119999,47,110000,15,80000,40,9999,0.135000,99,0,0.000000,18,0.000000,27.345879,5.309941,99,99,0,0,0,0,0
11,119999,48,110000,11,40000,40,9999,0.135000,99,0,0.000000,18,0.000000,30.153351,0.618637,99,99,0,0,0,0,0
11,119999,49,110000,49,0,40,9999,0.100000,99,0,0.000000,18,0.000000,22.449836,0.713934,99,99,0,0,0,0,0
11,119999,50,110000,81,40000,40,9999,0.100000,99,0,0.000000,18,0.000000,30.244890,0.607631,99,99,0,0,0,0,0
11,119999,51,110000,23,50000,40,9999,0.100000,99,0,0.000000,18,0.000000,24.305183,1.019046,99,99,0,0,0,0,0
11,119999,52,110000,31,50000,40,9999,0.100000,99,0,0.000000,18,0.000000,31.001841,0.439906,99,99,0,0,0,0,0
11,119999,53,110000,15,80000,40,9999,0.100000,99,0,0.000000,18,0.000000,18.853787,3.459071,99,99,0,0,0,0,0
11,119999,54,110000,99,0,40,9999,0.100000,99,0,0.000000,18,3.000000,29.865238,6.789498,99,99,0,0,0,0,0
11,119999,55,110000,32,40000,40,9999,0.100000,99,0,0.000000,18,0.000000,34.590004,0.596728,99,99,0,0,0,0,0
11,119999,56,110000,81,40000,40,9999,0.100000,99,0,0.000000,18,0.000000,12.923118,0.740838,99,99,0,0,0,0,0
11,119999,57,110000,11,40000,40,9999,0.100000,99,0,0.000000,18,0.000000,31.495134,0.135376,99,99,0,0,0,0,0
11,119999,58,110000,23,50000,40,9999,0.100000,99,0,0.000000,18,0.000000,21.681383,0.889684,99,99,0,0,0,0,0
11,119999,59,110000,16,80000,40,9999,0.135000,99,0,0.000000,18,0.000000,17.282935,1.918076,99,99,0,0,0,0,0
11,119999,60,110000,32,40000,40,9999,0.100000,99,0,0.000000,18,0.000000,30.841677,6.564598,99,99,0,0,0,0,0
11,119999,61,110000,28,40000,40,9999,0.100000,99,0,0.000000,18,0.000000,38.031241,0.088633,99,99,0,0,0,0,0
11,119999,62,110000,7,30000,40,9999,0.100000,99,0,0.000000,18,2.000000,33.125575,11.696162,99,99,0,0,0,0,0
11,119999,63,110000,37,50000,40,9999,0.100000,99,0,0.000000,18,0.000000,29.720122,0.714617,99,99,0,0,0,0,0
11,119999,64,110000,23,50000,40,9999,0.100000,99,0,0.000000,18,0.000000,31.899583,0.214325,99,99,0,0,0,0,0
11,119999,65,110000,32,40000,40,9999,0.100000,99,0,0.000000,18,0.000000,12.840930,1.209276,99,99,0,0,0,0,0
11,119999,66,110000,91,0,40,9999,0.100000,99,0,0.000000,18,0.000000,21.359368,1.165276,99,99,0,0,0,0,0
11,119999,67,110000,32,40000,40,9999,0.100000,99,0,0.000000,18,0.000000,27.251266,9.669768,99,99,0,0,0,0,0
11,119999,68,110000,37,50000,0,9999,0.100000,99,0,0.366105,18,0.000000,23.153051,0.117190,99,99,0,0,0,0,1
11,119999,69,110000,81,40000,40,9999,0.100000,99,0,0.000000,18,0.000000,17.427372,0.361992,99,99,0,0,0,0,0
11,119999,70,110000,33,10000,40,9999,0.100000,99,0,0.000000,18,0.000000,22.830399,0.220389,99,99,0,0,0,0,0
11,119999,71,110000,49,0,42,9999,0.100000,99,0,0.000000,18,6.000000,25.741908,14.287429,99,99,0,0,0,0,0
11,119999,72,110000,49,0,42,9999,0.100000,99,0,0.000000,18,6.000000,20.812624,8.514351,99,99,0,0,0,0,0
11,119999,73,110000,91,0,41,9999,0.100000,99,0,0.000000,18,4.000000,26.034949,18.659248,99,99,0,0,0,0,0
11,119999,74,110000,16,80000,91,9999,0.135000,99,0,10.083191,18,2.000000,16.606358,4.294442,99,99,1,0,0,0,0
11,119999,75,110000,59,0,40,9999,0.100000,99,0,0.000000,18,1.000000,27.369925,3.874296,99,99,0,0,0,0,0
