generation,iteration,robot,birthday,ancestor_id,ancestor_birthday,cell_id,age,sigma,maps,genomes,fitness,cells_in_map,dist_max,dist_pot_max,dist_total,com_rx,com_tx,obj_group1,obj_group2,obj_group3,obj_group4,obj_group5
0,9999,0,0,0,0,1,9999,0.100000,0,0,0.000000,0,11.000000,0.000000,17.531963,0,0,0,0,0,0,0
0,9999,1,0,1,0,1,9999,0.100000,0,0,0.000000,0,10.000000,0.000000,23.368386,0,0,0,0,0,0,0
0,9999,2,0,2,0,1,9999,0.100000,0,0,0.000000,0,7.000000,0.000000,10.115409,0,0,0,0,0,0,0
0,9999,3,0,3,0,1,9999,0.100000,0,0,0.000000,0,11.000000,0.000000,28.093774,0,0,0,0,0,0,0
0,9999,4,0,4,0,1,9999,0.100000,0,0,0.000000,0,9.000000,0.000000,23.332945,0,0,0,0,0,0,0
0,9999,5,0,5,0,1,9999,0.100000,0,0,0.000000,0,3.000000,0.000000,6.464070,0,0,0,0,0,0,0
0,9999,6,0,6,0,1,9999,0.100000,0,0,0.000000,0,9.000000,0.000000,11.807918,0,0,0,0,0,0,0
0,9999,7,0,7,0,1,9999,0.100000,0,0,0.000000,0,5.000000,0.000000,8.016831,0,0,0,0,0,0,0
0,9999,8,0,8,0,1,9999,0.100000,0,0,0.000000,0,7.000000,0.000000,13.738681,0,0,0,0,0,0,0
0,9999,9,0,9,0,1,9999,0.100000,0,0,0.000000,0,8.000000,0.000000,12.835227,0,0,0,0,0,0,1
0,9999,10,0,10,0,1,9999,0.100000,0,0,0.000000,0,9.000000,0.000000,15.842475,0,0,0,0,0,0,0
0,9999,11,0,11,0,1,9999,0.100000,0,0,0.000000,0,7.000000,0.000000,10.436433,0,0,0,0,0,0,0
0,9999,12,0,12,0,1,9999,0.100000,0,0,0.000000,0,9.000000,0.000000,15.350983,0,0,0,0,0,0,0
0,9999,13,0,13,0,1,9999,0.100000,0,0,0.000000,0,13.000000,0.000000,28.365665,0,0,0,0,0,0,0
0,9999,14,0,14,0,1,9999,0.100000,0,0,0.000000,0,8.000000,0.000000,11.319303,0,0,0,0,0,0,0
0,9999,15,0,15,0,1,9999,0.100000,0,0,0.000000,0,2.000000,0.000000,9.482809,0,0,0,0,0,0,0
0,9999,16,0,16,0,1,9999,0.100000,0,0,0.000000,0,6.000000,0.000000,7.216414,0,0,0,0,0,0,0
0,9999,17,0,17,0,1,9999,0.100000,0,0,0.000000,0,8.000000,0.000000,15.030271,0,0,0,0,0,0,0
0,9999,18,0,18,0,1,9999,0.100000,0,0,0.000000,0,4.000000,0.000000,5.401122,0,0,0,0,0,0,0
0,9999,19,0,19,0,1,9999,0.100000,0,0,0.000000,0,2.000000,0.000000,2.984736,0,0,0,0,0,0,0
0,9999,20,0,20,0,1,9999,0.100000,0,0,0.000000,0,10.000000,0.000000,27.101945,0,0,0,0,0,0,0
0,9999,21,0,21,0,1,9999,0.100000,0,0,0.000000,0,8.000000,0.000000,9.545748,0,0,0,0,0,0,0
0,9999,22,0,22,0,1,9999,0.100000,0,0,0.000000,0,9.000000,0.000000,15.258840,0,0,0,0,0,0,0
0,9999,23,0,23,0,1,9999,0.100000,0,0,0.000000,0,9.000000,0.000000,11.296840,0,0,0,0,0,0,0
0,9999,24,0,24,0,1,9999,0.100000,0,0,0.000000,0,4.000000,0.000000,22.966522,0,0,0,0,0,0,0
0,9999,25,0,25,0,1,9999,0.100000,0,0,0.000000,0,11.000000,0.000000,18.452293,0,0,0,0,0,0,0
0,9999,26,0,26,0,1,9999,0.100000,0,0,0.000000,0,6.000000,0.000000,11.857149,0,0,0,0,0,0,0
0,9999,27,0,27,0,1,9999,0.100000,0,0,0.000000,0,8.000000,0.000000,8.371179,0,0,0,0,0,0,0
0,9999,28,0,28,0,1,9999,0.100000,0,0,0.000000,0,11.000000,0.000000,18.879004,0,0,0,0,0,0,0
0,9999,29,0,29,0,1,9999,0.100000,0,0,0.000000,0,11.000000,0.000000,13.528643,0,0,0,0,0,0,0
0,9999,30,0,30,0,1,9999,0.100000,0,0,0.000000,0,7.000000,0.000000,16.485692,0,0,0,0,0,0,0
0,9999,31,0,31,0,1,9999,0.100000,0,0,0.000000,0,9.000000,0.000000,20.292221,0,0,0,0,0,0,0
0,9999,32,0,32,0,1,9999,0.100000,0,0,0.000000,0,6.000000,0.000000,15.510456,0,0,0,0,0,0,0
0,9999,33,0,33,0,1,9999,0.100000,0,0,0.000000,0,4.000000,0.000000,13.278667,0,0,0,0,0,0,0
0,9999,34,0,34,0,1,9999,0.100000,0,0,0.000000,0,6.000000,0.000000,8.853475,0,0,0,0,0,0,0
0,9999,35,0,35,0,1,9999,0.100000,0,0,0.000000,0,10.000000,0.000000,15.920013,0,0,0,0,0,0,0
0,9999,36,0,36,0,1,9999,0.100000,0,0,0.000000,0,4.000000,0.000000,4.474987,0,0,0,0,0,0,0
0,9999,37,0,37,0,1,9999,0.100000,0,0,0.000000,0,6.000000,0.000000,8.953405,0,0,0,0,0,0,0
0,9999,38,0,38,0,1,9999,0.100000,0,0,0.000000,0,4.000000,0.000000,16.441238,0,0,0,0,0,0,0
0,9999,39,0,39,0,1,9999,0.100000,0,0,0.000000,0,6.000000,0.000000,14.115518,0,0,0,0,0,0,0
0,9999,40,0,40,0,1,9999,0.100000,0,0,0.000000,0,6.000000,0.000000,6.710731,0,0,0,0,0,0,0
0,9999,41,0,41,0,1,9999,0.100000,0,0,0.000000,0,10.000000,0.000000,22.789730,0,0,0,0,0,0,0
0,9999,42,0,42,0,1,9999,0.100000,0,0,0.000000,0,7.000000,0.000000,15.568540,0,0,0,0,0,0,0
0,9999,43,0,43,0,1,9999,0.100000,0,0,0.000000,0,5.000000,0.000000,7.139007,0,0,0,0,0,0,0
0,9999,44,0,44,0,1,9999,0.100000,0,0,0.000000,0,4.000000,0.000000,10.216199,0,0,0,0,0,0,0
0,9999,45,0,45,0,1,9999,0.100000,0,0,0.000000,0,1.000000,0.000000,10.452157,0,0,0,0,0,0,0
0,9999,46,0,46,0,1,9999,0.100000,0,0,0.000000,0,7.000000,0.000000,21.048737,0,0,0,0,0,0,0
0,9999,47,0,47,0,1,9999,0.100000,0,0,0.000000,0,5.000000,0.000000,8.195741,0,0,0,0,0,0,0
0,9999,48,0,48,0,1,9999,0.100000,0,0,0.000000,0,6.000000,0.000000,21.234667,0,0,0,0,0,0,0
0,9999,49,0,49,0,1,9999,0.100000,0,0,0.000000,0,8.000000,0.000000,10.138081,0,0,0,0,0,0,0
0,9999,50,0,50,0,1,9999,0.100000,0,0,0.000000,0,2.000000,0.000000,2.360287,0,0,0,0,0,0,0
0,9999,51,0,51,0,1,9999,0.100000,0,0,0.000000,0,9.000000,0.000000,16.525076,0,0,0,0,0,0,0
0,9999,52,0,52,0,1,9999,0.100000,0,0,0.000000,0,9.000000,0.000000,9.780866,0,0,0,0,0,0,0
0,9999,53,0,53,0,1,9999,0.100000,0,0,0.000000,0,9.000000,0.000000,19.092268,0,0,0,0,0,0,0
0,9999,54,0,54,0,1,9999,0.100000,0,0,0.000000,0,8.000000,0.000000,16.083935,0,0,0,0,0,0,0
0,9999,55,0,55,0,1,9999,0.100000,0,0,0.000000,0,9.000000,0.000000,22.741204,0,0,0,0,0,0,0
0,9999,56,0,56,0,1,9999,0.100000,0,0,0.000000,0,4.000000,0.000000,5.490965,0,0,0,0,0,0,0
0,9999,57,0,57,0,1,9999,0.100000,0,0,0.000000,0,8.000000,0.000000,11.525647,0,0,0,0,0,0,0
0,9999,58,0,58,0,1,9999,0.100000,0,0,0.000000,0,9.000000,0.000000,13.911705,0,0,0,0,0,0,0
0,9999,59,0,59,0,1,9999,0.100000,0,0,0.000000,0,9.000000,0.000000,11.059979,0,0,0,0,0,0,0
0,9999,60,0,60,0,1,9999,0.100000,0,0,0.000000,0,9.000000,0.000000,13.465193,0,0,0,0,0,0,0
0,9999,61,0,61,0,1,9999,0.100000,0,0,0.000000,0,5.000000,0.000000,13.250936,0,0,0,0,0,0,0
0,9999,62,0,62,0,1,9999,0.100000,0,0,0.000000,0,5.000000,0.000000,9.336624,0,0,0,0,0,0,0
0,9999,63,0,63,0,1,9999,0.100000,0,0,0.000000,0,11.000000,0.000000,21.520106,0,0,0,0,0,0,0
0,9999,64,0,64,0,1,9999,0.100000,0,0,0.000000,0,6.000000,0.000000,18.932225,0,0,0,0,0,0,0
0,9999,65,0,65,0,1,9999,0.100000,0,0,0.000000,0,9.000000,0.000000,18.758681,0,0,0,0,0,0,0
0,9999,66,0,66,0,1,9999,0.100000,0,0,0.000000,0,11.000000,0.000000,16.401011,0,0,0,0,0,0,0
0,9999,67,0,67,0,1,9999,0.100000,0,0,0.000000,0,9.000000,0.000000,10.120888,0,0,0,0,0,0,0
0,9999,68,0,68,0,1,9999,0.100000,0,0,0.000000,0,8.000000,0.000000,21.097017,0,0,0,0,0,0,0
0,9999,69,0,69,0,1,9999,0.100000,0,0,0.000000,0,9.000000,0.000000,12.142222,0,0,0,0,0,0,0
0,9999,70,0,70,0,1,9999,0.100000,0,0,0.000000,0,10.000000,0.000000,11.403400,0,0,0,0,0,0,0
0,9999,71,0,71,0,1,9999,0.100000,0,0,0.000000,0,8.000000,0.000000,23.431720,0,0,0,0,0,0,0
0,9999,72,0,72,0,1,9999,0.100000,0,0,0.000000,0,9.000000,0.000000,12.403808,0,0,0,0,0,0,0
0,9999,73,0,73,0,1,9999,0.100000,0,0,0.000000,0,11.000000,0.000000,40.011903,0,0,0,0,0,0,0
0,9999,74,0,74,0,1,9999,0.100000,0,0,0.000000,0,5.000000,0.000000,9.177804,0,0,0,0,0,0,0
0,9999,75,0,75,0,1,9999,0.100000,0,0,0.000000,0,9.000000,0.000000,18.626689,0,0,0,0,0,0,0
0,9999,76,0,76,0,1,9999,0.100000,0,0,0.000000,0,10.000000,0.000000,16.814018,0,0,0,0,0,0,0
0,9999,77,0,77,0,1,9999,0.100000,0,0,0.000000,0,3.000000,0.000000,7.543256,0,0,0,0,0,0,0
0,9999,78,0,78,0,1,9999,0.100000,0,0,0.000000,0,8.000000,0.000000,12.082724,0,0,0,0,0,0,0
0,9999,79,0,79,0,1,9999,0.100000,0,0,0.000000,0,1.000000,0.000000,4.652696,0,0,0,0,0,0,0
0,9999,80,0,80,0,1,9999,0.100000,0,0,0.000000,0,10.000000,0.000000,12.118140,0,0,0,0,0,0,0
0,9999,81,0,81,0,1,9999,0.100000,0,0,0.000000,0,8.000000,0.000000,8.762560,0,0,0,0,0,0,0
0,9999,82,0,82,0,1,9999,0.100000,0,0,0.000000,0,7.000000,0.000000,12.222317,0,0,0,0,0,0,0
0,9999,83,0,83,0,1,9999,0.100000,0,0,0.000000,0,8.000000,0.000000,15.752493,0,0,0,0,0,0,0
0,9999,84,0,84,0,1,9999,0.100000,0,0,0.000000,0,7.000000,0.000000,10.835697,0,0,0,0,0,0,0
0,9999,85,0,85,0,1,9999,0.100000,0,0,0.000000,0,11.000000,0.000000,16.263808,0,0,0,0,0,0,0
0,9999,86,0,86,0,1,9999,0.100000,0,0,0.000000,0,5.000000,0.000000,7.427129,0,0,0,0,0,0,0
0,9999,87,0,87,0,1,9999,0.100000,0,0,0.000000,0,8.000000,0.000000,11.448827,0,0,0,0,0,0,0
0,9999,88,0,88,0,1,9999,0.100000,0,0,0.000000,0,13.000000,0.000000,16.132879,0,0,0,0,0,0,0
0,9999,89,0,89,0,1,9999,0.100000,0,0,0.000000,0,5.000000,0.000000,12.700357,0,0,0,0,0,0,0
0,9999,90,0,90,0,1,9999,0.100000,0,0,0.000000,0,7.000000,0.000000,7.943791,0,0,0,0,0,0,0
0,9999,91,0,91,0,1,9999,0.100000,0,0,0.000000,0,10.000000,0.000000,20.630482,0,0,0,0,0,0,0
0,9999,92,0,92,0,1,9999,0.100000,0,0,0.000000,0,6.000000,0.000000,9.023539,0,0,0,0,0,0,0
0,9999,93,0,93,0,1,9999,0.100000,0,0,0.000000,0,6.000000,0.000000,11.288172,0,0,0,0,0,0,0
0,9999,94,0,94,0,1,9999,0.100000,0,0,47.368421,0,11.000000,0.000000,16.129984,0,0,0,0,0,1,0
0,9999,95,0,95,0,1,9999,0.100000,0,0,0.000000,0,9.000000,0.000000,19.147522,0,0,0,0,0,0,0
0,9999,96,0,96,0,1,9999,0.100000,0,0,0.000000,0,11.000000,0.000000,24.950421,0,0,0,0,0,0,0
0,9999,97,0,97,0,1,9999,0.100000,0,0,0.000000,0,7.000000,0.000000,9.342432,0,0,0,0,0,0,1
0,9999,98,0,98,0,1,9999,0.100000,0,0,0.000000,0,8.000000,0.000000,15.323875,0,0,0,0,0,0,0
0,9999,99,0,99,0,1,9999,0.100000,0,0,0.000000,0,11.000000,0.000000,14.090621,0,0,0,0,0,0,0
1,19999,0,10000,98,0,0,9999,0.100000,0,0,0.000000,2,0.000000,0.000000,0.945402,0,0,0,0,0,0,0
1,19999,1,10000,98,0,1,9999,0.100000,0,0,0.000000,2,4.000000,0.000000,7.900147,0,0,0,0,0,0,0
1,19999,2,10000,98,0,1,9999,0.100000,0,0,0.000000,2,1.000000,0.000000,2.747916,0,0,0,0,0,0,0
1,19999,3,10000,88,0,1,9999,0.100000,0,0,0.000000,2,2.000000,0.000000,19.034112,0,0,0,0,0,0,0
1,19999,4,10000,91,0,1,9999,0.100000,0,0,0.000000,2,1.000000,0.000000,14.956377,0,0,0,0,0,0,0
1,19999,5,10000,98,0,0,9999,0.100000,0,0,0.000000,2,0.000000,0.000000,6.934299,0,0,0,0,0,0,0
1,19999,6,10000,98,0,0,9999,0.100000,0,0,0.000000,2,0.000000,0.000000,2.294211,0,0,0,0,0,0,0
1,19999,7,10000,98,0,1,9999,0.100000,0,0,0.000000,2,1.000000,0.000000,9.569914,0,0,0,0,0,0,0
1,19999,8,10000,88,0,1,9999,0.100000,0,0,0.000000,2,1.000000,0.000000,8.781442,0,0,0,0,0,0,0
1,19999,9,10000,98,0,0,9999,0.100000,0,0,0.000000,2,0.000000,0.000000,3.905605,0,0,0,0,0,0,0
1,19999,10,10000,10,0,1,9999,0.100000,0,0,0.000000,1,2.000000,0.000000,8.420216,0,0,0,0,0,0,0
1,19999,11,10000,10,0,0,9999,0.100000,0,0,0.000000,1,0.000000,0.000000,1.990924,0,0,0,0,0,0,0
1,19999,12,10000,98,0,1,9999,0.100000,0,0,0.000000,2,2.000000,0.000000,7.757540,0,0,0,0,0,0,0
1,19999,13,10000,91,0,0,9999,0.100000,0,0,0.000000,2,0.000000,0.000000,0.544093,0,0,0,0,0,0,0
1,19999,14,10000,98,0,0,9999,0.100000,0,0,0.000000,2,0.000000,0.000000,0.445223,0,0,0,0,0,0,0
1,19999,15,10000,10,0,0,9999,0.100000,0,0,0.000000,1,0.000000,0.000000,0.254047,0,0,0,0,0,0,0
1,19999,16,10000,98,0,0,9999,0.100000,0,0,0.000000,2,0.000000,0.000000,0.112564,0,0,0,0,0,0,0
1,19999,17,10000,88,0,1,9999,0.100000,0,0,0.000000,2,1.000000,0.000000,4.421962,0,0,0,0,0,0,0
1,19999,18,10000,88,0,0,9999,0.100000,0,0,0.000000,2,0.000000,0.000000,0.095470,0,0,0,0,0,0,0
1,19999,19,10000,88,0,0,9999,0.100000,0,0,0.000000,2,0.000000,0.000000,0.607636,0,0,0,0,0,0,0
1,19999,20,10000,10,0,1,9999,0.100000,0,0,0.000000,1,3.000000,0.000000,7.652205,0,0,0,0,0,0,0
1,19999,21,10000,10,0,0,9999,0.100000,0,0,0.000000,1,0.000000,0.000000,0.087182,0,0,0,0,0,0,0
1,19999,22,10000,98,0,0,9999,0.100000,0,0,0.000000,2,0.000000,0.000000,3.641822,0,0,0,0,0,0,0
1,19999,23,10000,10,0,0,9999,0.100000,0,0,0.000000,2,0.000000,0.000000,0.910813,0,0,0,0,0,0,0
1,19999,24,10000,88,0,0,9999,0.100000,0,0,0.000000,2,0.000000,0.000000,1.202663,0,0,0,0,0,0,0
1,19999,25,10000,88,0,1,9999,0.100000,0,0,0.000000,2,2.000000,0.000000,17.024453,0,0,0,0,0,0,0
1,19999,26,10000,88,0,0,9999,0.100000,0,0,0.000000,2,0.000000,0.000000,2.296538,0,0,0,0,0,0,0
1,19999,27,10000,88,0,0,9999,0.100000,0,0,0.000000,2,0.000000,0.000000,0.739921,0,0,0,0,0,0,0
1,19999,28,10000,88,0,3,9999,0.100000,0,0,0.000000,2,1.000000,0.000000,3.211562,0,0,1,0,0,0,0
1,19999,29,10000,10,0,0,9999,0.100000,0,0,0.000000,1,0.000000,0.000000,1.006374,0,0,0,0,0,0,0
1,19999,30,10000,98,0,1,9999,0.100000,0,0,0.000000,2,2.000000,0.000000,11.595908,0,0,0,0,0,0,0
1,19999,31,10000,88,0,1,9999,0.100000,0,0,0.000000,2,1.000000,0.000000,7.170374,0,0,0,0,0,0,0
1,19999,32,10000,10,0,0,9999,0.100000,0,0,0.000000,1,0.000000,0.000000,2.522313,0,0,0,0,0,0,0
1,19999,33,10000,98,0,0,9999,0.100000,0,0,0.000000,2,0.000000,0.000000,5.625474,0,0,0,0,0,0,0
1,19999,34,10000,88,0,0,9999,0.100000,0,0,0.000000,2,0.000000,0.000000,0.929678,0,0,0,0,0,0,0
1,19999,35,10000,88,0,1,9999,0.100000,0,0,0.000000,2,3.000000,0.000000,5.015487,0,0,0,0,0,0,0
1,19999,36,10000,88,0,0,9999,0.100000,0,0,0.000000,2,0.000000,0.000000,0.177051,0,0,0,0,0,0,0
1,19999,37,10000,88,0,0,9999,0.100000,0,0,0.000000,2,0.000000,0.000000,0.776792,0,0,0,0,0,0,0
1,19999,38,10000,10,0,0,9999,0.100000,0,0,0.000000,1,0.000000,0.000000,10.590308,0,0,0,0,0,0,0
1,19999,39,10000,88,0,0,9999,0.100000,0,0,0.000000,2,0.000000,0.000000,0.182718,0,0,0,0,0,0,0
1,19999,40,10000,88,0,0,9999,0.100000,0,0,0.000000,2,0.000000,0.000000,0.449575,0,0,0,0,0,0,0
1,19999,41,10000,98,0,1,9999,0.100000,0,0,0.000000,2,1.000000,0.000000,7.223915,0,0,0,0,0,0,0
1,19999,42,10000,88,0,0,9999,0.100000,0,0,0.000000,2,0.000000,0.000000,7.583028,0,0,0,0,0,0,0
1,19999,43,10000,91,0,0,9999,0.100000,0,0,0.000000,2,0.000000,0.000000,1.071607,0,0,0,0,0,0,0
1,19999,44,10000,88,0,0,9999,0.100000,0,0,0.000000,2,0.000000,0.000000,0.157200,0,0,0,0,0,0,0
1,19999,45,10000,10,0,0,9999,0.100000,0,0,0.000000,2,0.000000,0.000000,1.998310,0,0,0,0,0,0,0
1,19999,46,10000,88,0,1,9999,0.100000,0,0,0.000000,2,11.000000,0.000000,13.576360,0,0,0,0,0,0,0
1,19999,47,10000,98,0,0,9999,0.100000,0,0,0.000000,2,0.000000,0.000000,3.179854,0,0,0,0,0,0,0
1,19999,48,10000,88,0,0,9999,0.100000,0,0,0.000000,2,0.000000,0.000000,0.898286,0,0,0,0,0,0,0
1,19999,49,10000,98,0,0,9999,0.100000,0,0,0.000000,2,0.000000,0.000000,1.943101,0,0,0,0,0,0,0
1,19999,50,10000,98,0,0,9999,0.100000,0,0,0.000000,2,0.000000,0.000000,0.152418,0,0,0,0,0,0,0
1,19999,51,10000,10,0,0,9999,0.100000,0,0,0.000000,1,0.000000,0.000000,1.152545,0,0,0,0,0,0,0
1,19999,52,10000,91,0,0,9999,0.100000,0,0,0.000000,2,0.000000,0.000000,0.079698,0,0,0,0,0,0,0
1,19999,53,10000,91,0,0,9999,0.100000,0,0,0.000000,2,0.000000,0.000000,0.086206,0,0,0,0,0,0,0
1,19999,54,10000,88,0,0,9999,0.100000,0,0,0.000000,2,0.000000,0.000000,1.377937,0,0,0,0,0,0,0
1,19999,55,10000,88,0,1,9999,0.100000,0,0,0.000000,2,2.000000,0.000000,3.807919,0,0,0,0,0,0,0
1,19999,56,10000,88,0,0,9999,0.100000,0,0,0.000000,2,0.000000,0.000000,0.077398,0,0,0,0,0,0,0
1,19999,57,10000,88,0,0,9999,0.100000,0,0,0.000000,2,0.000000,0.000000,4.838237,0,0,0,0,0,0,0
1,19999,58,10000,98,0,0,9999,0.100000,0,0,0.000000,2,0.000000,0.000000,0.116069,0,0,0,0,0,0,0
1,19999,59,10000,88,0,1,9999,0.100000,0,0,0.000000,2,2.000000,0.000000,2.369844,0,0,0,0,0,0,0
1,19999,60,10000,10,0,1,9999,0.100000,0,0,0.000000,1,2.000000,0.000000,2.509857,0,0,0,0,0,0,0
1,19999,61,10000,88,0,1,9999,0.100000,0,0,0.000000,2,6.000000,0.000000,14.194790,0,0,0,0,0,0,0
1,19999,62,10000,98,0,1,9999,0.100000,0,0,0.000000,2,1.000000,0.000000,6.871399,0,0,0,0,0,0,0
1,19999,63,10000,91,0,3,9999,0.100000,0,0,34.210526,2,13.000000,0.000000,25.040805,0,0,1,0,0,0,0
1,19999,64,10000,88,0,0,9999,0.100000,0,0,0.000000,2,0.000000,0.000000,0.243566,0,0,0,0,0,0,0
1,19999,65,10000,65,0,0,9999,0.100000,0,0,0.000000,2,0.000000,0.000000,0.246112,0,0,0,0,0,0,0
1,19999,66,10000,98,0,1,9999,0.100000,0,0,0.000000,2,6.000000,0.000000,15.476867,0,0,0,0,0,0,0
1,19999,67,10000,98,0,0,9999,0.100000,0,0,0.000000,2,0.000000,0.000000,0.132094,0,0,0,0,0,0,0
1,19999,68,10000,98,0,1,9999,0.100000,0,0,0.000000,2,1.000000,0.000000,3.627246,0,0,0,0,0,0,0
1,19999,69,10000,88,0,0,9999,0.100000,0,0,0.000000,2,0.000000,0.000000,0.126143,0,0,0,0,0,0,0
1,19999,70,10000,88,0,0,9999,0.100000,0,0,0.000000,2,0.000000,0.000000,0.341263,0,0,0,0,0,0,0
1,19999,71,10000,98,0,1,9999,0.100000,0,0,0.000000,2,5.000000,0.000000,13.799471,0,0,0,0,0,0,0
1,19999,72,10000,98,0,0,9999,0.100000,0,0,0.000000,2,0.000000,0.000000,2.185931,0,0,0,0,0,0,0
1,19999,73,10000,65,0,1,9999,0.100000,0,0,0.000000,2,11.000000,0.000000,42.658036,0,0,0,0,0,0,0
1,19999,74,10000,10,0,0,9999,0.100000,0,0,0.000000,1,0.000000,0.000000,0.969714,0,0,0,0,0,0,0
1,19999,75,10000,91,0,1,9999,0.100000,0,0,0.000000,2,2.000000,0.000000,4.157144,0,0,0,0,0,0,0
1,19999,76,10000,88,0,1,9999,0.100000,0,0,0.000000,2,7.000000,0.000000,18.463708,0,0,0,0,0,0,0
1,19999,77,10000,10,0,0,9999,0.100000,0,0,0.000000,1,0.000000,0.000000,0.906300,0,0,0,0,0,0,0
1,19999,78,10000,91,0,1,9999,0.100000,0,0,0.000000,2,1.000000,0.000000,12.234309,0,0,0,0,0,0,0
1,19999,79,10000,88,0,0,9999,0.100000,0,0,0.000000,2,0.000000,0.000000,0.169181,0,0,0,0,0,0,0
1,19999,80,10000,88,0,1,9999,0.100000,0,0,0.000000,2,1.000000,0.000000,2.216058,0,0,0,0,0,0,0
1,19999,81,10000,98,0,0,9999,0.100000,0,0,0.000000,2,0.000000,0.000000,0.078470,0,0,0,0,0,0,0
1,19999,82,10000,91,0,1,9999,0.100000,0,0,0.000000,2,2.000000,0.000000,15.720175,0,0,0,0,0,0,0
1,19999,83,10000,88,0,1,9999,0.100000,0,0,0.000000,2,2.000000,0.000000,20.238941,0,0,0,0,0,0,0
1,19999,84,10000,88,0,0,9999,0.100000,0,0,0.000000,2,0.000000,0.000000,2.587326,0,0,0,0,0,0,0
1,19999,85,10000,91,0,1,9999,0.100000,0,0,0.000000,2,1.000000,0.000000,9.694836,0,0,0,0,0,0,0
1,19999,86,10000,88,0,1,9999,0.100000,0,0,0.000000,2,2.000000,0.000000,3.571719,0,0,0,0,0,0,0
1,19999,87,10000,88,0,0,9999,0.100000,0,0,0.000000,2,0.000000,0.000000,0.823997,0,0,0,0,0,0,9
1,19999,88,10000,98,0,0,9999,0.100000,0,0,0.000000,2,0.000000,0.000000,0.436912,0,0,0,0,0,0,0
1,19999,89,10000,88,0,0,9999,0.100000,0,0,0.000000,2,0.000000,0.000000,1.860638,0,0,0,0,0,0,0
1,19999,90,10000,98,0,0,9999,0.100000,0,0,0.000000,2,0.000000,0.000000,0.352586,0,0,0,0,0,0,0
1,19999,91,10000,91,0,3,9999,0.100000,0,0,0.000000,2,2.000000,0.000000,9.353830,0,0,1,0,0,0,0
1,19999,92,10000,88,0,0,9999,0.100000,0,0,0.000000,2,0.000000,0.000000,0.080724,0,0,0,0,0,0,0
1,19999,93,10000,98,0,0,9999,0.100000,0,0,0.000000,2,0.000000,0.000000,0.269985,0,0,0,0,0,0,0
1,19999,94,10000,98,0,1,9999,0.100000,0,0,0.000000,2,1.000000,0.000000,12.423667,0,0,0,0,0,0,0
1,19999,95,10000,91,0,1,9999,0.100000,0,0,0.000000,2,3.000000,0.000000,17.323352,0,0,0,0,0,0,0
1,19999,96,10000,88,0,0,9999,0.100000,0,0,0.000000,2,0.000000,0.000000,0.611476,0,0,0,0,0,0,0
1,19999,97,10000,91,0,1,9999,0.100000,0,0,0.000000,2,2.000000,0.000000,8.555030,0,0,0,0,0,0,0
1,19999,98,10000,98,0,0,9999,0.100000,0,0,0.000000,2,0.000000,0.000000,1.273795,0,0,0,0,0,0,0
1,19999,99,10000,98,0,0,9999,0.100000,0,0,0.000000,2,0.000000,0.000000,0.498418,0,0,0,0,0,0,0
2,29999,0,20000,91,0,0,9999,0.100000,0,0,0.000000,3,0.000000,0.000000,0.509730,0,0,0,0,0,0,0
2,29999,1,20000,21,10000,1,9999,0.100000,0,0,0.000000,3,10.000000,0.000000,11.777073,0,0,0,0,0,0,0
2,29999,2,20000,21,10000,0,9999,0.135000,0,0,0.000000,3,0.000000,0.000000,0.907525,0,0,0,0,0,0,0
2,29999,3,20000,91,0,0,9999,0.100000,0,0,0.000000,3,0.000000,0.000000,22.153057,0,0,0,0,0,0,0
2,29999,4,20000,91,0,0,9999,0.100000,0,0,0.000000,3,0.000000,0.000000,10.424936,0,0,0,0,0,0,0
2,29999,5,20000,59,10000,1,9999,0.100000,0,0,0.000000,3,2.000000,0.000000,8.980957,0,0,0,0,0,0,0
2,29999,6,20000,6,10000,1,9999,0.100000,0,0,0.000000,3,5.000000,0.000000,11.961119,0,0,0,0,0,0,0
2,29999,7,20000,88,0,1,9999,0.100000,0,0,0.000000,3,1.000000,0.000000,5.459747,0,0,0,0,0,0,0
2,29999,8,20000,25,10000,1,9999,0.100000,0,0,0.000000,3,4.000000,0.000000,6.925916,0,0,0,0,0,0,0
2,29999,9,20000,99,10000,1,9999,0.100000,0,0,0.000000,3,1.000000,0.000000,7.935729,0,0,0,0,0,0,0
2,29999,10,20000,25,10000,0,9999,0.100000,0,0,0.000000,3,0.000000,0.000000,0.478478,0,0,0,0,0,0,0
2,29999,11,20000,99,10000,0,9999,0.100000,0,0,0.000000,3,0.000000,0.000000,0.256963,0,0,0,0,0,0,0
2,29999,12,20000,91,0,0,9999,0.100000,0,0,0.000000,3,0.000000,0.000000,1.608141,0,0,0,0,0,0,0
2,29999,13,20000,91,0,0,9999,0.100000,0,0,0.000000,3,0.000000,0.000000,0.400421,0,0,0,0,0,0,0
2,29999,14,20000,99,10000,0,9999,0.100000,0,0,0.000000,3,0.000000,0.000000,0.431593,0,0,0,0,0,0,0
2,29999,15,20000,6,10000,0,9999,0.100000,0,0,0.000000,3,0.000000,0.000000,0.088353,0,0,0,0,0,0,0
2,29999,16,20000,91,0,0,9999,0.100000,0,0,0.000000,3,0.000000,0.000000,0.350934,0,0,0,0,0,0,0
2,29999,17,20000,99,10000,0,9999,0.100000,0,0,0.000000,3,0.000000,0.000000,0.112659,0,0,0,0,0,0,0
2,29999,18,20000,99,10000,0,9999,0.100000,0,0,0.000000,3,0.000000,0.000000,0.122260,0,0,0,0,0,0,0
2,29999,19,20000,59,10000,0,9999,0.100000,0,0,0.000000,3,0.000000,0.000000,0.350301,0,0,0,0,0,0,0
2,29999,20,20000,99,10000,1,9999,0.100000,0,0,0.000000,3,1.000000,0.000000,1.827871,0,0,0,0,0,0,0
2,29999,21,20000,91,0,0,9999,0.100000,0,0,0.000000,3,0.000000,0.000000,0.087356,0,0,0,0,0,0,0
2,29999,22,20000,6,10000,0,9999,0.100000,0,0,0.000000,3,0.000000,0.000000,12.789512,0,0,0,0,0,0,0
2,29999,23,20000,59,10000,0,9999,0.100000,0,0,0.000000,3,0.000000,0.000000,0.839122,0,0,0,0,0,0,0
2,29999,24,20000,91,0,0,9999,0.100000,0,0,0.000000,3,0.000000,0.000000,0.883874,0,0,0,0,0,0,0
2,29999,25,20000,25,10000,1,9999,0.100000,0,0,0.000000,3,1.000000,0.000000,2.336652,0,0,0,0,0,0,0
2,29999,26,20000,91,0,0,9999,0.100000,0,0,0.000000,3,0.000000,0.000000,1.302272,0,0,0,0,0,0,0
2,29999,27,20000,99,10000,0,9999,0.100000,0,0,0.000000,3,0.000000,0.000000,0.805832,0,0,0,0,0,0,0
2,29999,28,20000,91,0,0,9999,0.100000,0,0,0.000000,3,0.000000,0.000000,0.629212,0,0,0,0,0,0,0
2,29999,29,20000,6,10000,0,9999,0.100000,0,0,0.000000,3,0.000000,0.000000,0.994969,0,0,0,0,0,0,0
2,29999,30,20000,59,10000,1,9999,0.100000,0,0,0.000000,3,2.000000,0.000000,6.517994,0,0,0,0,0,0,0
2,29999,31,20000,6,10000,1,9999,0.100000,0,0,0.000000,3,1.000000,0.000000,13.235279,0,0,0,0,0,0,0
2,29999,32,20000,59,10000,1,9999,0.100000,0,0,0.000000,3,1.000000,0.000000,12.611756,0,0,0,0,0,0,0
2,29999,33,20000,99,10000,1,9999,0.100000,0,0,0.000000,3,3.000000,0.000000,3.490058,0,0,0,0,0,0,0
2,29999,34,20000,6,10000,0,9999,0.100000,0,0,0.000000,3,0.000000,0.000000,0.923865,0,0,0,0,0,0,0
2,29999,35,20000,91,0,1,9999,0.100000,0,0,0.000000,3,1.000000,0.000000,3.685467,0,0,0,0,0,0,0
2,29999,36,20000,59,10000,0,9999,0.100000,0,0,0.000000,3,0.000000,0.000000,0.237349,0,0,0,0,0,0,0
2,29999,37,20000,25,10000,0,9999,0.100000,0,0,0.000000,3,0.000000,0.000000,0.872875,0,0,0,0,0,0,0
2,29999,38,20000,6,10000,0,9999,0.100000,0,0,0.000000,3,0.000000,0.000000,0.188857,0,0,0,0,0,0,0
2,29999,39,20000,59,10000,0,9999,0.100000,0,0,0.000000,3,0.000000,0.000000,0.276283,0,0,0,0,0,0,0
2,29999,40,20000,59,10000,0,9999,0.100000,0,0,0.000000,3,0.000000,0.000000,1.048205,0,0,0,0,0,0,0
2,29999,41,20000,91,0,1,9999,0.100000,0,0,0.000000,3,1.000000,0.000000,14.494054,0,0,0,0,0,0,0
2,29999,42,20000,91,0,1,9999,0.100000,0,0,0.000000,3,4.000000,0.000000,14.037507,0,0,0,0,0,0,0
2,29999,43,20000,91,0,0,9999,0.100000,0,0,0.000000,3,0.000000,0.000000,0.389229,0,0,0,0,0,0,0
2,29999,44,20000,99,10000,0,9999,0.100000,0,0,0.000000,3,0.000000,0.000000,0.218396,0,0,0,0,0,0,0
2,29999,45,20000,91,0,0,9999,0.100000,0,0,0.000000,3,0.000000,0.000000,0.189804,0,0,0,0,0,0,0
2,29999,46,20000,59,10000,0,9999,0.100000,0,0,0.000000,3,0.000000,0.000000,1.102914,0,0,0,0,0,0,0
2,29999,47,20000,59,10000,0,9999,0.100000,0,0,0.000000,3,0.000000,0.000000,0.839841,0,0,0,0,0,0,0
2,29999,48,20000,59,10000,0,9999,0.100000,0,0,0.000000,3,0.000000,0.000000,1.160615,0,0,0,0,0,0,0
2,29999,49,20000,88,0,0,9999,0.100000,0,0,0.000000,3,0.000000,0.000000,0.516831,0,0,0,0,0,0,0
2,29999,50,20000,91,0,0,9999,0.100000,0,0,0.000000,3,0.000000,0.000000,0.139612,0,0,0,0,0,0,0
2,29999,51,20000,91,0,1,9999,0.100000,0,0,0.000000,3,3.000000,0.000000,5.657699,0,0,0,0,0,0,0
2,29999,52,20000,91,0,0,9999,0.100000,0,0,0.000000,3,0.000000,0.000000,0.776051,0,0,0,0,0,0,0
2,29999,53,20000,59,10000,0,9999,0.100000,0,0,0.000000,3,0.000000,0.000000,0.112726,0,0,0,0,0,0,0
2,29999,54,20000,59,10000,1,9999,0.100000,0,0,0.000000,3,4.000000,0.000000,10.024708,0,0,0,0,0,0,0
2,29999,55,20000,91,0,0,9999,0.100000,0,0,0.000000,3,0.000000,0.000000,0.209898,0,0,0,0,0,0,0
2,29999,56,20000,99,10000,0,9999,0.100000,0,0,0.000000,3,0.000000,0.000000,0.075980,0,0,0,0,0,0,0
2,29999,57,20000,91,0,1,9999,0.100000,0,0,0.000000,3,1.000000,0.000000,22.296163,0,0,0,0,0,0,0
2,29999,58,20000,6,10000,0,9999,0.100000,0,0,0.000000,3,0.000000,0.000000,0.189050,0,0,0,0,0,0,0
2,29999,59,20000,6,10000,0,9999,0.100000,0,0,0.000000,3,0.000000,0.000000,1.788869,0,0,0,0,0,0,0
2,29999,60,20000,25,10000,0,9999,0.100000,0,0,0.000000,3,0.000000,0.000000,2.450286,0,0,0,0,0,0,0
2,29999,61,20000,99,10000,0,9999,0.100000,0,0,0.000000,3,0.000000,0.000000,0.544823,0,0,0,0,0,0,0
2,29999,62,20000,91,0,0,9999,0.100000,0,0,0.000000,3,0.000000,0.000000,0.085152,0,0,0,0,0,0,0
2,29999,63,20000,59,10000,0,9999,0.100000,0,0,0.000000,3,0.000000,0.000000,18.519270,0,0,0,0,0,0,0
2,29999,64,20000,91,0,0,9999,0.100000,0,0,0.000000,3,0.000000,0.000000,0.194783,0,0,0,0,0,0,0
2,29999,65,20000,91,0,0,9999,0.100000,0,0,0.000000,3,0.000000,0.000000,0.346074,0,0,0,0,0,0,0
2,29999,66,20000,59,10000,1,9999,0.100000,0,0,0.000000,3,5.000000,0.000000,12.417701,0,0,0,0,0,0,0
2,29999,67,20000,99,10000,0,9999,0.100000,0,0,0.000000,3,0.000000,0.000000,0.198443,0,0,0,0,0,0,0
2,29999,68,20000,25,10000,0,9999,0.100000,0,0,0.000000,3,0.000000,0.000000,2.137311,0,0,0,0,0,0,0
2,29999,69,20000,91,0,0,9999,0.100000,0,0,0.000000,3,0.000000,0.000000,0.150370,0,0,0,0,0,0,0
2,29999,70,20000,6,10000,0,9999,0.100000,0,0,0.000000,3,0.000000,0.000000,2.102284,0,0,0,0,0,0,0
2,29999,71,20000,91,0,0,9999,0.100000,0,0,0.000000,3,0.000000,0.000000,15.693570,0,0,0,0,0,0,0
2,29999,72,20000,91,0,0,9999,0.100000,0,0,0.000000,3,0.000000,0.000000,0.518389,0,0,0,0,0,0,0
2,29999,73,20000,99,10000,1,9999,0.100000,0,0,0.000000,3,1.000000,0.000000,1.749508,0,0,0,0,0,0,0
2,29999,74,20000,88,0,1,9999,0.100000,0,0,0.000000,3,4.000000,0.000000,6.309372,0,0,0,0,0,0,0
2,29999,75,20000,91,0,0,9999,0.100000,0,0,0.000000,3,0.000000,0.000000,2.224453,0,0,0,0,0,0,0
2,29999,76,20000,59,10000,1,9999,0.100000,0,0,0.000000,3,1.000000,0.000000,16.063467,0,0,0,0,0,0,0
2,29999,77,20000,59,10000,0,9999,0.100000,0,0,0.000000,3,0.000000,0.000000,0.467057,0,0,0,0,0,0,0
2,29999,78,20000,99,10000,1,9999,0.100000,0,0,0.000000,3,1.000000,0.000000,6.403023,0,0,0,0,0,0,0
2,29999,79,20000,91,0,0,9999,0.100000,0,0,0.000000,3,0.000000,0.000000,0.070962,0,0,0,0,0,0,0
2,29999,80,20000,25,10000,0,9999,0.100000,0,0,0.000000,3,0.000000,0.000000,0.124040,0,0,0,0,0,0,0
2,29999,81,20000,59,10000,0,9999,0.100000,0,0,0.000000,3,0.000000,0.000000,0.076299,0,0,0,0,0,0,0
2,29999,82,20000,59,10000,1,9999,0.100000,0,0,0.000000,3,3.000000,0.000000,10.131342,0,0,0,0,0,0,0
2,29999,83,20000,6,10000,1,9999,0.100000,0,0,0.000000,3,1.000000,0.000000,6.833784,0,0,0,0,0,0,0
2,29999,84,20000,91,0,0,9999,0.100000,0,0,0.000000,3,0.000000,0.000000,1.602821,0,0,0,0,0,0,0
2,29999,85,20000,91,0,0,9999,0.100000,0,0,0.000000,3,0.000000,0.000000,0.137701,0,0,0,0,0,0,0
2,29999,86,20000,25,10000,0,9999,0.100000,0,0,0.000000,3,0.000000,0.000000,0.977323,0,0,0,0,0,0,0
2,29999,87,20000,91,0,0,9999,0.100000,0,0,0.000000,3,0.000000,0.000000,0.399543,0,0,0,0,0,0,4
2,29999,88,20000,59,10000,0,9999,0.100000,0,0,0.000000,3,0.000000,0.000000,0.517049,0,0,0,0,0,0,0
2,29999,89,20000,91,0,1,9999,0.100000,0,0,0.000000,3,1.000000,0.000000,6.114362,0,0,0,0,0,0,0
2,29999,90,20000,25,10000,1,9999,0.100000,0,0,0.000000,3,3.000000,0.000000,9.768929,0,0,0,0,0,0,0
2,29999,91,20000,91,0,0,9999,0.100000,0,0,0.000000,3,0.000000,0.000000,3.571057,0,0,0,0,0,0,0
2,29999,92,20000,59,10000,0,9999,0.100000,0,0,0.000000,3,0.000000,0.000000,0.081762,0,0,0,0,0,0,0
2,29999,93,20000,91,0,0,9999,0.100000,0,0,0.000000,3,0.000000,0.000000,0.275436,0,0,0,0,0,0,0
2,29999,94,20000,91,0,1,9999,0.100000,0,0,0.000000,3,3.000000,0.000000,11.879991,0,0,0,0,0,0,0
2,29999,95,20000,99,10000,1,9999,0.100000,0,0,0.000000,3,3.000000,0.000000,7.015465,0,0,0,0,0,0,0
2,29999,96,20000,99,10000,0,9999,0.100000,0,0,0.000000,3,0.000000,0.000000,0.066490,0,0,0,0,0,0,0
2,29999,97,20000,91,0,0,9999,0.100000,0,0,0.000000,3,0.000000,0.000000,0.297951,0,0,0,0,0,0,0
2,29999,98,20000,59,10000,0,9999,0.100000,0,0,0.000000,3,0.000000,0.000000,1.115335,0,0,0,0,0,0,0
2,29999,99,20000,99,10000,0,9999,0.100000,0,0,0.000000,3,0.000000,0.000000,0.870948,0,0,0,0,0,0,0
3,39999,0,30000,25,10000,0,9999,0.100000,0,0,0.000000,3,0.000000,0.000000,0.701256,0,0,0,0,0,0,0
3,39999,1,30000,25,10000,1,9999,0.100000,0,0,0.000000,3,10.000000,0.000000,15.095072,0,0,0,0,0,0,0
3,39999,2,30000,25,10000,1,9999,0.100000,0,0,0.000000,3,1.000000,0.000000,7.980886,0,0,0,0,0,0,1
3,39999,3,30000,91,0,0,9999,0.100000,0,0,0.000000,3,0.000000,0.000000,19.422069,0,0,0,0,0,0,0
3,39999,4,30000,91,0,1,9999,0.100000,0,0,0.000000,3,1.000000,0.000000,11.674561,0,0,0,0,0,0,0
3,39999,5,30000,25,10000,0,9999,0.100000,0,0,0.000000,3,0.000000,0.000000,0.257264,0,0,0,0,0,0,0
3,39999,6,30000,25,10000,0,9999,0.100000,0,0,0.000000,3,0.000000,0.000000,0.486807,0,0,0,0,0,0,0
3,39999,7,30000,99,10000,0,9999,0.100000,0,0,0.000000,3,0.000000,0.000000,0.092617,0,0,0,0,0,0,0
3,39999,8,30000,99,10000,1,9999,0.100000,0,0,0.000000,3,4.000000,0.000000,8.630526,0,0,0,0,0,0,1
3,39999,9,30000,25,10000,1,9999,0.100000,0,0,0.000000,3,1.000000,0.000000,6.403859,0,0,0,0,0,0,0
3,39999,10,30000,91,0,0,9999,0.100000,0,0,0.000000,3,0.000000,0.000000,0.528850,0,0,0,0,0,0,0
3,39999,11,30000,99,10000,0,9999,0.100000,0,0,0.000000,3,0.000000,0.000000,1.058056,0,0,0,0,0,0,0
3,39999,12,30000,25,10000,0,9999,0.100000,0,0,0.000000,3,0.000000,0.000000,1.351257,0,0,0,0,0,0,0
3,39999,13,30000,99,10000,0,9999,0.100000,0,0,0.000000,3,0.000000,0.000000,0.477114,0,0,0,0,0,0,0
3,39999,14,30000,99,10000,0,9999,0.100000,0,0,0.000000,3,0.000000,0.000000,0.974838,0,0,0,0,0,0,0
3,39999,15,30000,25,10000,0,9999,0.100000,0,0,0.000000,3,0.000000,0.000000,0.094883,0,0,0,0,0,0,0
3,39999,16,30000,91,0,0,9999,0.100000,0,0,0.000000,3,0.000000,0.000000,0.507502,0,0,0,0,0,0,0
3,39999,17,30000,25,10000,0,9999,0.100000,0,0,0.000000,3,0.000000,0.000000,0.095323,0,0,0,0,0,0,0
3,39999,18,30000,99,10000,0,9999,0.100000,0,0,0.000000,3,0.000000,0.000000,0.118127,0,0,0,0,0,0,0
3,39999,19,30000,25,10000,0,9999,0.100000,0,0,0.000000,3,0.000000,0.000000,0.407884,0,0,0,0,0,0,0
3,39999,20,30000,91,0,0,9999,0.100000,0,0,0.000000,3,0.000000,0.000000,2.080055,0,0,0,0,0,0,0
3,39999,21,30000,91,0,0,9999,0.100000,0,0,0.000000,3,0.000000,0.000000,0.096861,0,0,0,0,0,0,0
3,39999,22,30000,25,10000,1,9999,0.100000,0,0,0.000000,3,3.000000,0.000000,8.107136,0,0,0,0,0,0,0
3,39999,23,30000,25,10000,0,9999,0.100000,0,0,0.000000,3,0.000000,0.000000,0.730500,0,0,0,0,0,0,0
3,39999,24,30000,99,10000,0,9999,0.100000,0,0,0.000000,3,0.000000,0.000000,1.056096,0,0,0,0,0,0,0
3,39999,25,30000,25,10000,1,9999,0.100000,0,0,0.000000,3,1.000000,0.000000,2.200266,0,0,0,0,0,0,0
3,39999,26,30000,91,0,0,9999,0.100000,0,0,0.000000,3,0.000000,0.000000,0.259132,0,0,0,0,0,0,0
3,39999,27,30000,91,0,1,9999,0.100000,0,0,0.000000,3,4.000000,0.000000,7.291621,0,0,0,0,0,0,1
3,39999,28,30000,25,10000,0,9999,0.100000,0,0,0.000000,3,0.000000,0.000000,0.664558,0,0,0,0,0,0,1
3,39999,29,30000,99,10000,0,9999,0.100000,0,0,0.000000,3,0.000000,0.000000,0.982153,0,0,0,0,0,0,0
3,39999,30,30000,99,10000,0,9999,0.100000,0,0,0.000000,3,0.000000,0.000000,1.442254,0,0,0,0,0,0,0
3,39999,31,30000,25,10000,0,9999,0.100000,0,0,0.000000,3,0.000000,0.000000,6.242284,0,0,0,0,0,0,0
3,39999,32,30000,99,10000,0,9999,0.100000,0,0,0.000000,3,0.000000,0.000000,0.796795,0,0,0,0,0,0,0
3,39999,33,30000,91,0,0,9999,0.100000,0,0,0.000000,3,0.000000,0.000000,0.085522,0,0,0,0,0,0,0
3,39999,34,30000,91,0,0,9999,0.100000,0,0,0.000000,3,0.000000,0.000000,0.847401,0,0,0,0,0,0,0
3,39999,35,30000,91,0,0,9999,0.100000,0,0,0.000000,3,0.000000,0.000000,1.514844,0,0,0,0,0,0,0
3,39999,36,30000,25,10000,0,9999,0.100000,0,0,0.000000,3,0.000000,0.000000,0.186111,0,0,0,0,0,0,0
3,39999,37,30000,99,10000,1,9999,0.100000,0,0,0.000000,3,2.000000,0.000000,2.915953,0,0,0,0,0,0,0
3,39999,38,30000,91,0,0,9999,0.100000,0,0,0.000000,3,0.000000,0.000000,0.188521,0,0,0,0,0,0,0
3,39999,39,30000,25,10000,0,9999,0.100000,0,0,0.000000,3,0.000000,0.000000,0.164020,0,0,0,0,0,0,0
3,39999,40,30000,91,0,1,9999,0.100000,0,0,0.000000,3,2.000000,0.000000,3.545303,0,0,0,0,0,0,0
3,39999,41,30000,91,0,0,9999,0.100000,0,0,0.000000,3,0.000000,0.000000,4.955807,0,0,0,0,0,0,0
3,39999,42,30000,91,0,0,9999,0.100000,0,0,0.000000,3,0.000000,0.000000,0.221279,0,0,0,0,0,0,0
3,39999,43,30000,91,0,0,9999,0.100000,0,0,0.000000,3,0.000000,0.000000,0.090525,0,0,0,0,0,0,0
3,39999,44,30000,25,10000,0,9999,0.100000,0,0,0.000000,3,0.000000,0.000000,0.133336,0,0,0,0,0,0,0
3,39999,45,30000,99,10000,0,9999,0.100000,0,0,0.000000,3,0.000000,0.000000,0.216584,0,0,0,0,0,0,0
3,39999,46,30000,91,0,1,9999,0.100000,0,0,0.000000,3,1.000000,0.000000,5.105694,0,0,0,0,0,0,1
3,39999,47,30000,99,10000,0,9999,0.100000,0,0,0.000000,3,0.000000,0.000000,0.810412,0,0,0,0,0,0,0
3,39999,48,30000,99,10000,0,9999,0.100000,0,0,0.000000,3,0.000000,0.000000,0.246895,0,0,0,0,0,0,0
3,39999,49,30000,99,10000,0,9999,0.100000,0,0,0.000000,3,0.000000,0.000000,1.154946,0,0,0,0,0,0,0
3,39999,50,30000,25,10000,0,9999,0.100000,0,0,0.000000,3,0.000000,0.000000,0.130459,0,0,0,0,0,0,0
3,39999,51,30000,25,10000,1,9999,0.100000,0,0,0.000000,3,4.000000,0.000000,12.252050,0,0,0,0,0,0,0
3,39999,52,30000,25,10000,0,9999,0.100000,0,0,0.000000,3,0.000000,0.000000,1.014746,0,0,0,0,0,0,0
3,39999,53,30000,25,10000,0,9999,0.100000,0,0,0.000000,3,0.000000,0.000000,0.091283,0,0,0,0,0,0,0
3,39999,54,30000,25,10000,1,9999,0.100000,0,0,0.000000,3,4.000000,0.000000,12.017534,0,0,0,0,0,0,1
3,39999,55,30000,25,10000,0,9999,0.100000,0,0,0.000000,3,0.000000,0.000000,0.185340,0,0,0,0,0,0,0
3,39999,56,30000,99,10000,0,9999,0.100000,0,0,0.000000,3,0.000000,0.000000,0.075665,0,0,0,0,0,0,0
3,39999,57,30000,91,0,0,9999,0.100000,0,0,0.000000,3,0.000000,0.000000,2.127484,0,0,0,0,0,0,0
3,39999,58,30000,91,0,0,9999,0.100000,0,0,0.000000,3,0.000000,0.000000,0.536283,0,0,0,0,0,0,0
3,39999,59,30000,99,10000,0,9999,0.100000,0,0,0.000000,3,0.000000,0.000000,2.159001,0,0,0,0,0,0,0
3,39999,60,30000,99,10000,0,9999,0.100000,0,0,0.000000,3,0.000000,0.000000,0.234201,0,0,0,0,0,0,0
3,39999,61,30000,99,10000,0,9999,0.100000,0,0,0.000000,3,0.000000,0.000000,0.524978,0,0,0,0,0,0,0
3,39999,62,30000,99,10000,0,9999,0.100000,0,0,0.000000,3,0.000000,0.000000,0.085116,0,0,0,0,0,0,0
3,39999,63,30000,25,10000,1,9999,0.100000,0,0,0.000000,3,1.000000,0.000000,9.920651,0,0,0,0,0,0,0
3,39999,64,30000,91,0,0,9999,0.100000,0,0,0.000000,3,0.000000,0.000000,0.575330,0,0,0,0,0,0,0
3,39999,65,30000,25,10000,0,9999,0.100000,0,0,0.000000,3,0.000000,0.000000,0.375337,0,0,0,0,0,0,0
3,39999,66,30000,25,10000,0,9999,0.100000,0,0,0.000000,3,0.000000,0.000000,0.567922,0,0,0,0,0,0,0
3,39999,67,30000,91,0,0,9999,0.100000,0,0,0.000000,3,0.000000,0.000000,0.358008,0,0,0,0,0,0,0
3,39999,68,30000,25,10000,1,9999,0.100000,0,0,0.000000,3,1.000000,0.000000,1.965245,0,0,0,0,0,0,0
3,39999,69,30000,25,10000,0,9999,0.100000,0,0,0.000000,3,0.000000,0.000000,0.182813,0,0,0,0,0,0,0
3,39999,70,30000,91,0,1,9999,0.100000,0,0,0.000000,3,1.000000,0.000000,2.004734,0,0,0,0,0,0,0
3,39999,71,30000,25,10000,1,9999,0.100000,0,0,0.000000,3,1.000000,0.000000,5.224582,0,0,0,0,0,0,0
3,39999,72,30000,91,0,1,9999,0.100000,0,0,0.000000,3,5.000000,0.000000,13.136957,0,0,0,0,0,0,0
3,39999,73,30000,25,10000,0,9999,0.135000,0,0,0.000000,3,0.000000,0.000000,1.689387,0,0,0,0,0,0,0
3,39999,74,30000,91,0,1,9999,0.100000,0,0,0.000000,3,4.000000,0.000000,12.742594,0,0,0,0,0,0,1
3,39999,75,30000,25,10000,1,9999,0.100000,0,0,0.000000,3,5.000000,0.000000,12.313274,0,0,0,0,0,0,0
3,39999,76,30000,99,10000,1,9999,0.100000,0,0,0.000000,3,3.000000,0.000000,10.696886,0,0,0,0,0,0,0
3,39999,77,30000,25,10000,0,9999,0.100000,0,0,0.000000,3,0.000000,0.000000,0.438215,0,0,0,0,0,0,0
3,39999,78,30000,91,0,0,9999,0.100000,0,0,0.000000,3,0.000000,0.000000,14.253472,0,0,0,0,0,0,0
3,39999,79,30000,25,10000,0,9999,0.100000,0,0,0.000000,3,0.000000,0.000000,0.072445,0,0,0,0,0,0,0
3,39999,80,30000,88,20000,0,9999,0.100000,0,0,0.000000,3,0.000000,0.000000,0.290922,0,0,0,0,0,0,0
3,39999,81,30000,25,10000,0,9999,0.100000,0,0,0.000000,3,0.000000,0.000000,0.158877,0,0,0,0,0,0,0
3,39999,82,30000,25,10000,0,9999,0.100000,0,0,0.000000,3,0.000000,0.000000,0.252777,0,0,0,0,0,0,0
3,39999,83,30000,25,10000,1,9999,0.100000,0,0,0.000000,3,2.000000,0.000000,3.084755,0,0,0,0,0,0,0
3,39999,84,30000,91,0,0,9999,0.100000,0,0,0.000000,3,0.000000,0.000000,3.329348,0,0,0,0,0,0,0
3,39999,85,30000,91,0,0,9999,0.100000,0,0,0.000000,3,0.000000,0.000000,0.134079,0,0,0,0,0,0,0
3,39999,86,30000,91,0,0,9999,0.100000,0,0,0.000000,3,0.000000,0.000000,0.350830,0,0,0,0,0,0,0
3,39999,87,30000,25,10000,0,9999,0.100000,0,0,0.000000,3,0.000000,0.000000,0.767451,0,0,0,0,0,0,0
3,39999,88,30000,25,10000,0,9999,0.100000,0,0,0.000000,3,0.000000,0.000000,0.914161,0,0,0,0,0,0,0
3,39999,89,30000,99,10000,1,9999,0.100000,0,0,0.000000,3,2.000000,0.000000,3.567056,0,0,0,0,0,0,0
3,39999,90,30000,91,0,0,9999,0.100000,0,0,0.000000,3,0.000000,0.000000,0.135433,0,0,0,0,0,0,0
3,39999,91,30000,99,10000,0,9999,0.100000,0,0,0.000000,3,0.000000,0.000000,1.029119,0,0,0,0,0,0,0
3,39999,92,30000,25,10000,0,9999,0.100000,0,0,0.000000,3,0.000000,0.000000,0.084209,0,0,0,0,0,0,0
3,39999,93,30000,99,10000,0,9999,0.100000,0,0,0.000000,3,0.000000,0.000000,0.263728,0,0,0,0,0,0,0
3,39999,94,30000,25,10000,1,9999,0.100000,0,0,0.000000,3,1.000000,0.000000,4.907450,0,0,0,0,0,0,0
3,39999,95,30000,99,10000,1,9999,0.100000,0,0,0.000000,3,1.000000,0.000000,5.446538,0,0,0,0,0,0,0
3,39999,96,30000,25,10000,0,9999,0.100000,0,0,0.000000,3,0.000000,0.000000,0.092304,0,0,0,0,0,0,0
3,39999,97,30000,99,10000,0,9999,0.100000,0,0,0.000000,3,0.000000,0.000000,0.125113,0,0,0,0,0,0,0
3,39999,98,30000,91,0,0,9999,0.100000,0,0,0.000000,3,0.000000,0.000000,0.638193,0,0,0,0,0,0,0
3,39999,99,30000,91,0,0,9999,0.100000,0,0,0.000000,3,0.000000,0.000000,0.921767,0,0,0,0,0,0,0
4,49999,0,40000,91,0,0,9999,0.100000,0,0,0.000000,3,0.000000,0.000000,1.473034,0,0,0,0,0,0,0
4,49999,1,40000,25,10000,1,9999,0.100000,0,0,0.000000,3,1.000000,0.000000,4.561915,0,0,0,0,0,0,0
4,49999,2,40000,25,10000,1,9999,0.100000,0,0,0.000000,3,4.000000,0.000000,7.155639,0,0,0,0,0,0,0
4,49999,3,40000,88,20000,0,9999,0.100000,0,0,0.000000,3,0.000000,0.000000,0.489850,0,0,0,0,0,0,0
4,49999,4,40000,88,30000,1,9999,0.100000,0,0,0.000000,3,6.000000,0.000000,18.807278,0,0,0,0,0,0,0
4,49999,5,40000,88,30000,0,9999,0.100000,0,0,0.000000,3,0.000000,0.000000,1.768164,0,0,0,0,0,0,0
4,49999,6,40000,91,0,0,9999,0.100000,0,0,0.000000,3,0.000000,0.000000,0.499225,0,0,0,0,0,0,0
4,49999,7,40000,91,0,0,9999,0.100000,0,0,0.000000,4,0.000000,0.000000,0.083909,0,0,0,0,0,0,0
4,49999,8,40000,32,30000,1,9999,0.100000,0,0,0.000000,4,1.000000,0.000000,7.847096,0,0,0,0,0,0,0
4,49999,9,40000,25,10000,1,9999,0.100000,0,0,0.000000,3,1.000000,0.000000,5.558226,0,0,0,0,0,0,0
4,49999,10,40000,91,0,1,9999,0.100000,0,0,0.000000,3,1.000000,0.000000,1.638593,0,0,0,0,0,0,0
4,49999,11,40000,91,0,0,9999,0.100000,0,0,0.000000,3,0.000000,0.000000,0.836351,0,0,0,0,0,0,0
4,49999,12,40000,91,0,0,9999,0.100000,0,0,0.000000,4,0.000000,0.000000,7.451238,0,0,0,0,0,0,0
4,49999,13,40000,91,0,0,9999,0.100000,0,0,0.000000,3,0.000000,0.000000,0.675000,0,0,0,0,0,0,0
4,49999,14,40000,25,10000,0,9999,0.100000,0,0,0.000000,3,0.000000,0.000000,1.281975,0,0,0,0,0,0,0
4,49999,15,40000,88,20000,0,9999,0.100000,0,0,0.000000,3,0.000000,0.000000,0.099189,0,0,0,0,0,0,0
4,49999,16,40000,32,30000,0,9999,0.100000,0,0,0.000000,4,0.000000,0.000000,0.535944,0,0,0,0,0,0,0
4,49999,17,40000,91,0,0,9999,0.100000,0,0,0.000000,3,0.000000,0.000000,0.056822,0,0,0,0,0,0,0
4,49999,18,40000,91,0,0,9999,0.100000,0,0,0.000000,3,0.000000,0.000000,0.096597,0,0,0,0,0,0,0
4,49999,19,40000,25,10000,0,9999,0.100000,0,0,0.000000,3,0.000000,0.000000,0.417478,0,0,0,0,0,0,0
4,49999,20,40000,88,30000,0,9999,0.100000,0,0,0.000000,3,0.000000,0.000000,23.789573,0,0,0,0,0,0,0
4,49999,21,40000,91,0,0,9999,0.100000,0,0,0.000000,4,0.000000,0.000000,0.379503,0,0,0,0,0,0,0
4,49999,22,40000,91,0,1,9999,0.100000,0,0,0.000000,4,2.000000,0.000000,8.528412,0,0,0,0,0,0,0
4,49999,23,40000,88,30000,0,9999,0.100000,0,0,0.000000,3,0.000000,0.000000,3.030057,0,0,0,0,0,0,0
4,49999,24,40000,91,0,0,9999,0.100000,0,0,0.000000,4,0.000000,0.000000,1.048549,0,0,0,0,0,0,0
4,49999,25,40000,88,30000,0,9999,0.100000,0,0,0.000000,3,0.000000,0.000000,1.985826,0,0,0,0,0,0,0
4,49999,26,40000,25,10000,0,9999,0.100000,0,0,0.000000,3,0.000000,0.000000,0.120762,0,0,0,0,0,0,0
4,49999,27,40000,88,30000,1,9999,0.100000,0,0,0.000000,3,4.000000,0.000000,6.958457,0,0,0,0,0,0,0
4,49999,28,40000,91,0,1,9999,0.100000,0,0,0.000000,3,2.000000,0.000000,6.882127,0,0,0,0,0,0,1
4,49999,29,40000,91,0,0,9999,0.100000,0,0,0.000000,3,0.000000,0.000000,0.984673,0,0,0,0,0,0,0
4,49999,30,40000,88,30000,1,9999,0.100000,0,0,0.000000,3,3.000000,0.000000,5.815334,0,0,0,0,0,0,0
4,49999,31,40000,25,10000,1,9999,0.100000,0,0,0.000000,3,1.000000,0.000000,1.512160,0,0,0,0,0,0,0
4,49999,32,40000,25,10000,0,9999,0.100000,0,0,0.000000,4,0.000000,0.000000,0.622043,0,0,0,0,0,0,0
4,49999,33,40000,25,10000,0,9999,0.100000,0,0,0.000000,3,0.000000,0.000000,0.573696,0,0,0,0,0,0,0
4,49999,34,40000,32,30000,0,9999,0.100000,0,0,0.000000,4,0.000000,0.000000,0.186761,0,0,0,0,0,0,0
4,49999,35,40000,25,10000,0,9999,0.100000,0,0,0.000000,3,0.000000,0.000000,1.459628,0,0,0,0,0,0,0
4,49999,36,40000,88,30000,0,9999,0.100000,0,0,0.000000,4,0.000000,0.000000,0.191176,0,0,0,0,0,0,0
4,49999,37,40000,91,0,0,9999,0.100000,0,0,0.000000,4,0.000000,0.000000,0.748838,0,0,0,0,0,0,0
4,49999,38,40000,25,10000,0,9999,0.100000,0,0,0.000000,3,0.000000,0.000000,0.160497,0,0,0,0,0,0,0
4,49999,39,40000,91,0,0,9999,0.100000,0,0,0.000000,3,0.000000,0.000000,0.181613,0,0,0,0,0,0,0
4,49999,40,40000,25,10000,0,9999,0.100000,0,0,0.000000,4,0.000000,0.000000,1.181540,0,0,0,0,0,0,0
4,49999,41,40000,25,10000,1,9999,0.100000,0,0,0.000000,4,1.000000,0.000000,6.334542,0,0,0,0,0,0,0
4,49999,42,40000,91,0,0,9999,0.100000,0,0,0.000000,3,0.000000,0.000000,0.229361,0,0,0,0,0,0,0
4,49999,43,40000,88,30000,1,9999,0.100000,0,0,0.000000,4,5.000000,0.000000,10.568918,0,0,0,0,0,0,0
4,49999,44,40000,88,30000,0,9999,0.100000,0,0,0.000000,4,0.000000,0.000000,0.145550,0,0,0,0,0,0,0
4,49999,45,40000,25,10000,0,9999,0.100000,0,0,0.000000,3,0.000000,0.000000,0.213212,0,0,0,0,0,0,0
4,49999,46,40000,91,0,1,9999,0.100000,0,0,0.000000,4,2.000000,0.000000,2.729112,0,0,0,0,0,0,0
4,49999,47,40000,25,10000,0,9999,0.100000,0,0,0.000000,3,0.000000,0.000000,0.728718,0,0,0,0,0,0,0
4,49999,48,40000,25,10000,0,9999,0.100000,0,0,0.000000,3,0.000000,0.000000,0.245723,0,0,0,0,0,0,0
4,49999,49,40000,25,10000,0,9999,0.100000,0,0,0.000000,3,0.000000,0.000000,0.555445,0,0,0,0,0,0,0
4,49999,50,40000,25,10000,0,9999,0.100000,0,0,0.000000,3,0.000000,0.000000,0.360886,0,0,0,0,0,0,0
4,49999,51,40000,91,0,0,9999,0.100000,0,0,0.000000,3,0.000000,0.000000,1.608485,0,0,0,0,0,0,0
4,49999,52,40000,91,0,0,9999,0.100000,0,0,0.000000,4,0.000000,0.000000,0.928423,0,0,0,0,0,0,0
4,49999,53,40000,88,20000,0,9999,0.100000,0,0,0.000000,3,0.000000,0.000000,0.086394,0,0,0,0,0,0,0
4,49999,54,40000,88,30000,1,9999,0.100000,0,0,0.000000,4,1.000000,0.000000,12.109321,0,0,0,0,0,0,0
4,49999,55,40000,91,0,0,9999,0.100000,0,0,0.000000,4,0.000000,0.000000,0.365079,0,0,0,0,0,0,0
4,49999,56,40000,25,10000,0,9999,0.100000,0,0,0.000000,3,0.000000,0.000000,0.071608,0,0,0,0,0,0,0
4,49999,57,40000,91,0,0,9999,0.100000,0,0,0.000000,3,0.000000,0.000000,0.475156,0,0,0,0,0,0,0
4,49999,58,40000,91,0,0,9999,0.100000,0,0,0.000000,4,0.000000,0.000000,0.168524,0,0,0,0,0,0,0
4,49999,59,40000,25,10000,1,9999,0.100000,0,0,0.000000,4,1.000000,0.000000,1.480111,0,0,0,0,0,0,0
4,49999,60,40000,91,0,1,9999,0.100000,0,0,0.000000,3,1.000000,0.000000,1.213092,0,0,0,0,0,0,0
4,49999,61,40000,88,30000,1,9999,0.100000,0,0,0.000000,3,6.000000,0.000000,12.307943,0,0,0,0,0,0,0
4,49999,62,40000,91,0,0,9999,0.100000,0,0,0.000000,3,0.000000,0.000000,0.083052,0,0,0,0,0,0,0
4,49999,63,40000,32,30000,0,9999,0.100000,0,0,0.000000,4,0.000000,0.000000,3.862327,0,0,0,0,0,0,0
4,49999,64,40000,25,10000,0,9999,0.100000,0,0,0.000000,3,0.000000,0.000000,0.592636,0,0,0,0,0,0,0
4,49999,65,40000,25,10000,0,9999,0.100000,0,0,0.000000,4,0.000000,0.000000,0.594371,0,0,0,0,0,0,0
4,49999,66,40000,88,30000,0,9999,0.100000,0,0,0.000000,4,0.000000,0.000000,0.581803,0,0,0,0,0,0,0
4,49999,67,40000,32,30000,0,9999,0.100000,0,0,0.000000,4,0.000000,0.000000,0.738457,0,0,0,0,0,0,0
4,49999,68,40000,25,10000,1,9999,0.100000,0,0,0.000000,4,1.000000,0.000000,2.195985,0,0,0,0,0,0,0
4,49999,69,40000,91,0,0,9999,0.100000,0,0,0.000000,3,0.000000,0.000000,0.109508,0,0,0,0,0,0,0
4,49999,70,40000,25,10000,1,9999,0.100000,0,0,0.000000,3,1.000000,0.000000,2.383560,0,0,0,0,0,0,0
4,49999,71,40000,88,20000,0,9999,0.100000,0,0,0.000000,3,0.000000,0.000000,2.841989,0,0,0,0,0,0,0
4,49999,72,40000,25,10000,1,9999,0.100000,0,0,0.000000,3,2.000000,0.000000,5.270492,0,0,0,0,0,0,0
4,49999,73,40000,91,0,0,9999,0.065000,0,0,0.000000,3,0.000000,0.000000,1.032485,0,0,0,0,0,0,0
4,49999,74,40000,25,10000,1,9999,0.100000,0,0,0.000000,3,4.000000,0.000000,16.714411,0,0,0,0,0,0,0
4,49999,75,40000,88,30000,1,9999,0.100000,0,0,0.000000,3,1.000000,0.000000,1.563348,0,0,0,0,0,0,0
4,49999,76,40000,91,0,1,9999,0.135000,0,0,0.000000,3,2.000000,0.000000,14.960540,0,0,0,0,0,0,0
4,49999,77,40000,88,30000,0,9999,0.100000,0,0,0.000000,3,0.000000,0.000000,1.006937,0,0,0,0,0,0,0
4,49999,78,40000,88,30000,1,9999,0.100000,0,0,0.000000,4,1.000000,0.000000,2.077421,0,0,0,0,0,0,0
4,49999,79,40000,91,0,0,9999,0.100000,0,0,0.000000,4,0.000000,0.000000,0.075464,0,0,0,0,0,0,0
4,49999,80,40000,91,0,0,9999,0.100000,0,0,0.000000,3,0.000000,0.000000,0.140388,0,0,0,0,0,0,0
4,49999,81,40000,88,30000,0,9999,0.100000,0,0,0.000000,4,0.000000,0.000000,0.748716,0,0,0,0,0,0,0
4,49999,82,40000,91,0,1,9999,0.100000,0,0,0.000000,3,5.000000,0.000000,5.884348,0,0,0,0,0,0,0
4,49999,83,40000,25,10000,0,9999,0.100000,0,0,0.000000,3,0.000000,0.000000,0.837007,0,0,0,0,0,0,0
4,49999,84,40000,88,30000,0,9999,0.100000,0,0,0.000000,4,0.000000,0.000000,2.602224,0,0,0,0,0,0,0
4,49999,85,40000,91,0,0,9999,0.100000,0,0,0.000000,3,0.000000,0.000000,0.137258,0,0,0,0,0,0,0
4,49999,86,40000,88,30000,1,9999,0.100000,0,0,0.000000,4,5.000000,0.000000,5.912576,0,0,0,0,0,0,0
4,49999,87,40000,88,30000,0,9999,0.100000,0,0,0.000000,3,0.000000,0.000000,1.425011,0,0,0,0,0,0,0
4,49999,88,40000,91,0,0,9999,0.100000,0,0,0.000000,3,0.000000,0.000000,0.219258,0,0,0,0,0,0,0
4,49999,89,40000,91,0,0,9999,0.100000,0,0,0.000000,4,0.000000,0.000000,0.727723,0,0,0,0,0,0,0
4,49999,90,40000,91,0,0,9999,0.100000,0,0,0.000000,4,0.000000,0.000000,0.140341,0,0,0,0,0,0,0
4,49999,91,40000,91,0,0,9999,0.100000,0,0,0.000000,3,0.000000,0.000000,0.997854,0,0,0,0,0,0,0
4,49999,92,40000,25,10000,0,9999,0.100000,0,0,0.000000,4,0.000000,0.000000,0.083920,0,0,0,0,0,0,0
4,49999,93,40000,88,30000,0,9999,0.100000,0,0,0.000000,4,0.000000,0.000000,0.308298,0,0,0,0,0,0,0
4,49999,94,40000,91,0,0,9999,0.100000,0,0,0.000000,4,0.000000,0.000000,0.199098,0,0,0,0,0,0,0
4,49999,95,40000,32,30000,1,9999,0.100000,0,0,0.000000,4,2.000000,0.000000,3.449155,0,0,0,0,0,0,0
4,49999,96,40000,91,0,0,9999,0.100000,0,0,0.000000,3,0.000000,0.000000,0.081410,0,0,0,0,0,0,0
4,49999,97,40000,32,30000,0,9999,0.100000,0,0,0.000000,4,0.000000,0.000000,0.047130,0,0,0,0,0,0,0
4,49999,98,40000,25,10000,0,9999,0.100000,0,0,0.000000,3,0.000000,0.000000,0.485110,0,0,0,0,0,0,0
4,49999,99,40000,91,0,0,9999,0.100000,0,0,0.000000,3,0.000000,0.000000,0.169467,0,0,0,0,0,0,0
5,59999,0,50000,88,30000,0,9999,0.100000,0,0,0.000000,4,0.000000,0.000000,0.697584,0,0,0,0,0,0,0
5,59999,1,50000,32,30000,1,9999,0.100000,0,0,0.000000,4,1.000000,0.000000,1.572202,0,0,0,0,0,0,0
5,59999,2,50000,88,30000,0,9999,0.100000,0,0,0.000000,4,0.000000,0.000000,0.190358,0,0,0,0,0,0,0
5,59999,3,50000,25,10000,0,9999,0.100000,0,0,0.000000,4,0.000000,0.000000,1.135807,0,0,0,0,0,0,0
5,59999,4,50000,32,30000,0,9999,0.100000,0,0,0.000000,4,0.000000,0.000000,0.941395,0,0,0,0,0,0,0
5,59999,5,50000,32,30000,0,9999,0.100000,0,0,0.000000,4,0.000000,0.000000,0.070246,0,0,0,0,0,0,0
5,59999,6,50000,91,0,0,9999,0.100000,0,0,0.000000,4,0.000000,0.000000,0.540812,0,0,0,0,0,0,0
5,59999,7,50000,91,0,0,9999,0.100000,0,0,0.000000,4,0.000000,0.000000,0.098384,0,0,0,0,0,0,0
5,59999,8,50000,25,10000,1,9999,0.100000,0,0,0.000000,4,1.000000,0.000000,21.018842,0,0,0,0,0,0,0
5,59999,9,50000,88,30000,0,9999,0.100000,0,0,0.000000,4,0.000000,0.000000,17.810541,0,0,0,0,0,0,0
5,59999,10,50000,88,30000,1,9999,0.100000,0,0,0.000000,4,1.000000,0.000000,1.220462,0,0,0,0,0,0,0
5,59999,11,50000,25,10000,1,9999,0.100000,0,0,0.000000,4,2.000000,0.000000,2.919625,0,0,0,0,0,0,0
5,59999,12,50000,88,30000,1,9999,0.100000,0,0,0.000000,4,1.000000,0.000000,2.647559,0,0,0,0,0,0,0
5,59999,13,50000,25,10000,1,9999,0.100000,0,0,0.000000,4,1.000000,0.000000,3.304164,0,0,0,0,0,0,0
5,59999,14,50000,88,30000,1,9999,0.100000,0,0,0.000000,4,1.000000,0.000000,1.852603,0,0,0,0,0,0,0
5,59999,15,50000,91,0,0,9999,0.100000,0,0,0.000000,4,0.000000,0.000000,0.136139,0,0,0,0,0,0,0
5,59999,16,50000,88,30000,0,9999,0.100000,0,0,0.000000,4,0.000000,0.000000,0.563424,0,0,0,0,0,0,0
5,59999,17,50000,32,30000,0,9999,0.100000,0,0,0.000000,4,0.000000,0.000000,0.055170,0,0,0,0,0,0,0
5,59999,18,50000,91,0,0,9999,0.100000,0,0,0.000000,4,0.000000,0.000000,0.097332,0,0,0,0,0,0,0
5,59999,19,50000,88,30000,0,9999,0.100000,0,0,0.000000,4,0.000000,0.000000,0.596168,0,0,0,0,0,0,0
5,59999,20,50000,91,0,0,9999,0.100000,0,0,0.000000,4,0.000000,0.000000,23.965950,0,0,0,0,0,0,0
5,59999,21,50000,88,30000,1,9999,0.100000,0,0,0.000000,4,1.000000,0.000000,1.155227,0,0,0,0,0,0,0
5,59999,22,50000,25,10000,1,9999,0.100000,0,0,0.000000,4,1.000000,0.000000,7.111176,0,0,0,0,0,0,0
5,59999,23,50000,91,0,0,9999,0.100000,0,0,0.000000,4,0.000000,0.000000,0.961998,0,0,0,0,0,0,0
5,59999,24,50000,91,0,0,9999,0.100000,0,0,0.000000,4,0.000000,0.000000,1.450846,0,0,0,0,0,0,0
5,59999,25,50000,91,0,0,9999,0.100000,0,0,0.000000,4,0.000000,0.000000,0.461228,0,0,0,0,0,0,0
5,59999,26,50000,25,10000,0,9999,0.100000,0,0,0.000000,4,0.000000,0.000000,0.416485,0,0,0,0,0,0,0
5,59999,27,50000,25,10000,0,9999,0.100000,0,0,0.000000,4,0.000000,0.000000,1.109354,0,0,0,0,0,0,0
5,59999,28,50000,32,30000,0,9999,0.100000,0,0,0.000000,4,0.000000,0.000000,5.327970,0,0,0,0,0,0,0
5,59999,29,50000,88,30000,0,9999,0.100000,0,0,0.000000,4,0.000000,0.000000,0.966178,0,0,0,0,0,0,0
5,59999,30,50000,32,30000,1,9999,0.100000,0,0,0.000000,4,1.000000,0.000000,4.782986,0,0,0,0,0,0,0
5,59999,31,50000,91,0,0,9999,0.100000,0,0,0.000000,4,0.000000,0.000000,1.450938,0,0,0,0,0,0,0
5,59999,32,50000,91,0,0,9999,0.100000,0,0,0.000000,4,0.000000,0.000000,0.615786,0,0,0,0,0,0,0
5,59999,33,50000,32,30000,1,9999,0.100000,0,0,0.000000,4,1.000000,0.000000,1.244414,0,0,0,0,0,0,0
5,59999,34,50000,91,0,0,9999,0.100000,0,0,0.000000,4,0.000000,0.000000,0.332799,0,0,0,0,0,0,0
5,59999,35,50000,32,30000,0,9999,0.100000,0,0,0.000000,4,0.000000,0.000000,1.919867,0,0,0,0,0,0,0
5,59999,36,50000,88,30000,0,9999,0.100000,0,0,0.000000,4,0.000000,0.000000,0.123603,0,0,0,0,0,0,0
5,59999,37,50000,32,30000,1,9999,0.100000,0,0,0.000000,4,1.000000,0.000000,2.314122,0,0,0,0,0,0,0
5,59999,38,50000,88,30000,0,9999,0.100000,0,0,0.000000,4,0.000000,0.000000,0.154385,0,0,0,0,0,0,0
5,59999,39,50000,88,30000,0,9999,0.100000,0,0,0.000000,4,0.000000,0.000000,0.197577,0,0,0,0,0,0,0
5,59999,40,50000,32,30000,1,9999,0.100000,0,0,0.000000,4,1.000000,0.000000,2.608398,0,0,0,0,0,0,0
5,59999,41,50000,91,0,0,9999,0.100000,0,0,0.000000,4,0.000000,0.000000,2.426016,0,0,0,0,0,0,0
5,59999,42,50000,88,30000,0,9999,0.100000,0,0,0.000000,4,0.000000,0.000000,0.224684,0,0,0,0,0,0,0
5,59999,43,50000,32,30000,0,9999,0.100000,0,0,0.000000,4,0.000000,0.000000,0.135406,0,0,0,0,0,0,0
5,59999,44,50000,91,0,0,9999,0.100000,0,0,0.000000,4,0.000000,0.000000,0.191191,0,0,0,0,0,0,0
5,59999,45,50000,25,10000,0,9999,0.100000,0,0,0.000000,4,0.000000,0.000000,0.288929,0,0,0,0,0,0,0
5,59999,46,50000,25,10000,0,9999,0.100000,0,0,0.000000,4,0.000000,0.000000,0.187168,0,0,0,0,0,0,0
5,59999,47,50000,25,10000,0,9999,0.100000,0,0,0.000000,4,0.000000,0.000000,1.045447,0,0,0,0,0,0,0
5,59999,48,50000,88,30000,0,9999,0.100000,0,0,0.000000,4,0.000000,0.000000,0.334064,0,0,0,0,0,0,0
5,59999,49,50000,25,10000,1,9999,0.100000,0,0,0.000000,4,1.000000,0.000000,5.578624,0,0,0,0,0,0,0
5,59999,50,50000,88,30000,0,9999,0.100000,0,0,0.000000,4,0.000000,0.000000,0.258970,0,0,0,0,0,0,0
5,59999,51,50000,88,30000,1,9999,0.100000,0,0,0.000000,4,6.000000,0.000000,16.396600,0,0,0,0,0,0,0
5,59999,52,50000,88,30000,0,9999,0.100000,0,0,0.000000,4,0.000000,0.000000,0.166329,0,0,0,0,0,0,0
5,59999,53,50000,88,30000,0,9999,0.100000,0,0,0.000000,4,0.000000,0.000000,0.084787,0,0,0,0,0,0,0
5,59999,54,50000,25,10000,1,9999,0.100000,0,0,0.000000,4,1.000000,0.000000,9.586676,0,0,0,0,0,0,0
5,59999,55,50000,25,10000,0,9999,0.100000,0,0,0.000000,4,0.000000,0.000000,0.863018,0,0,0,0,0,0,0
5,59999,56,50000,91,0,0,9999,0.100000,0,0,0.000000,4,0.000000,0.000000,0.065632,0,0,0,0,0,0,0
5,59999,57,50000,91,0,1,9999,0.100000,0,0,0.000000,4,2.000000,0.000000,3.461641,0,0,0,0,0,0,0
5,59999,58,50000,25,10000,0,9999,0.100000,0,0,0.000000,4,0.000000,0.000000,0.688661,0,0,0,0,0,0,0
5,59999,59,50000,91,0,0,9999,0.100000,0,0,0.000000,4,0.000000,0.000000,1.798781,0,0,0,0,0,0,0
5,59999,60,50000,25,10000,1,9999,0.100000,0,0,0.000000,4,1.000000,0.000000,1.128923,0,0,0,0,0,0,0
5,59999,61,50000,88,30000,1,9999,0.100000,0,0,0.000000,4,6.000000,0.000000,12.685163,0,0,0,0,0,0,0
5,59999,62,50000,32,30000,0,9999,0.100000,0,0,0.000000,4,0.000000,0.000000,0.081646,0,0,0,0,0,0,0
5,59999,63,50000,25,10000,0,9999,0.100000,0,0,0.000000,4,0.000000,0.000000,2.100792,0,0,0,0,0,0,0
5,59999,64,50000,91,0,0,9999,0.100000,0,0,0.000000,4,0.000000,0.000000,0.723865,0,0,0,0,0,0,0
5,59999,65,50000,91,0,0,9999,0.100000,0,0,0.000000,4,0.000000,0.000000,0.282334,0,0,0,0,0,0,0
5,59999,66,50000,91,0,0,9999,0.100000,0,0,0.000000,4,0.000000,0.000000,0.602126,0,0,0,0,0,0,0
5,59999,67,50000,32,30000,0,9999,0.100000,0,0,0.000000,4,0.000000,0.000000,0.421413,0,0,0,0,0,0,0
5,59999,68,50000,91,0,0,9999,0.100000,0,0,0.000000,4,0.000000,0.000000,0.333533,0,0,0,0,0,0,0
5,59999,69,50000,25,10000,0,9999,0.100000,0,0,0.000000,4,0.000000,0.000000,0.109484,0,0,0,0,0,0,0
5,59999,70,50000,32,30000,0,9999,0.100000,0,0,0.000000,4,0.000000,0.000000,0.609551,0,0,0,0,0,0,0
5,59999,71,50000,32,30000,1,9999,0.100000,0,0,0.000000,4,1.000000,0.000000,3.599621,0,0,0,0,0,0,0
5,59999,72,50000,88,30000,1,9999,0.100000,0,0,0.000000,4,3.000000,0.000000,8.227558,0,0,0,0,0,0,0
5,59999,73,50000,25,10000,0,9999,0.100000,0,0,0.000000,4,0.000000,0.000000,1.013782,0,0,0,0,0,0,0
5,59999,74,50000,32,30000,1,9999,0.100000,0,0,0.000000,4,2.000000,0.000000,8.656234,0,0,0,0,0,0,0
5,59999,75,50000,88,30000,0,9999,0.100000,0,0,0.000000,4,0.000000,0.000000,2.666215,0,0,0,0,0,0,0
5,59999,76,50000,91,0,1,9999,0.100000,0,0,0.000000,4,2.000000,0.000000,15.681549,0,0,0,0,0,0,0
5,59999,77,50000,32,30000,0,9999,0.100000,0,0,0.000000,4,0.000000,0.000000,0.934882,0,0,0,0,0,0,0
5,59999,78,50000,91,0,0,9999,0.100000,0,0,0.000000,4,0.000000,0.000000,12.342669,0,0,0,0,0,0,0
5,59999,79,50000,91,0,0,9999,0.100000,0,0,0.000000,4,0.000000,0.000000,0.075281,0,0,0,0,0,0,0
5,59999,80,50000,25,10000,0,9999,0.100000,0,0,0.000000,4,0.000000,0.000000,0.127965,0,0,0,0,0,0,0
5,59999,81,50000,88,30000,0,9999,0.100000,0,0,0.000000,4,0.000000,0.000000,11.512734,0,0,0,0,0,0,0
5,59999,82,50000,91,0,0,9999,0.100000,0,0,0.000000,4,0.000000,0.000000,1.018396,0,0,0,0,0,0,0
5,59999,83,50000,91,0,1,9999,0.100000,0,0,0.000000,4,1.000000,0.000000,2.286149,0,0,0,0,0,0,0
5,59999,84,50000,91,0,0,9999,0.100000,0,0,0.000000,4,0.000000,0.000000,1.987600,0,0,0,0,0,0,0
5,59999,85,50000,32,30000,0,9999,0.100000,0,0,0.000000,4,0.000000,0.000000,0.144338,0,0,0,0,0,0,0
5,59999,86,50000,32,30000,0,9999,0.100000,0,0,0.000000,4,0.000000,0.000000,0.736434,0,0,0,0,0,0,0
5,59999,87,50000,25,10000,0,9999,0.100000,0,0,0.000000,4,0.000000,0.000000,0.753182,0,0,0,0,0,0,0
5,59999,88,50000,88,30000,0,9999,0.100000,0,0,0.000000,4,0.000000,0.000000,0.562977,0,0,0,0,0,0,0
5,59999,89,50000,25,10000,0,9999,0.100000,0,0,0.000000,4,0.000000,0.000000,0.694278,0,0,0,0,0,0,0
5,59999,90,50000,88,30000,0,9999,0.100000,0,0,0.000000,4,0.000000,0.000000,0.182586,0,0,0,0,0,0,0
5,59999,91,50000,88,30000,0,9999,0.100000,0,0,0.000000,4,0.000000,0.000000,0.732120,0,0,0,0,0,0,0
5,59999,92,50000,91,0,0,9999,0.100000,0,0,0.000000,4,0.000000,0.000000,0.083557,0,0,0,0,0,0,0
5,59999,93,50000,32,30000,0,9999,0.100000,0,0,0.000000,4,0.000000,0.000000,0.327778,0,0,0,0,0,0,0
5,59999,94,50000,25,10000,0,9999,0.100000,0,0,0.000000,4,0.000000,0.000000,0.171323,0,0,0,0,0,0,0
5,59999,95,50000,25,10000,0,9999,0.100000,0,0,0.000000,4,0.000000,0.000000,0.698070,0,0,0,0,0,0,0
5,59999,96,50000,88,30000,0,9999,0.100000,0,0,0.000000,4,0.000000,0.000000,0.082663,0,0,0,0,0,0,0
5,59999,97,50000,25,10000,0,9999,0.100000,0,0,0.000000,4,0.000000,0.000000,0.042812,0,0,0,0,0,0,0
5,59999,98,50000,88,30000,0,9999,0.100000,0,0,0.000000,4,0.000000,0.000000,0.465122,0,0,0,0,0,0,0
5,59999,99,50000,91,0,0,9999,0.100000,0,0,0.000000,4,0.000000,0.000000,0.203706,0,0,0,0,0,0,0
6,69999,0,60000,88,30000,1,9999,0.100000,0,0,0.000000,4,1.000000,0.000000,1.955117,0,0,0,0,0,0,0
6,69999,1,60000,88,30000,1,9999,0.100000,0,0,0.000000,4,1.000000,0.000000,3.040529,0,0,0,0,0,0,0
6,69999,2,60000,91,0,0,9999,0.100000,0,0,0.000000,4,0.000000,0.000000,1.006368,0,0,0,0,0,0,0
6,69999,3,60000,91,0,0,9999,0.100000,0,0,0.000000,4,0.000000,0.000000,0.488749,0,0,0,0,0,0,0
6,69999,4,60000,88,30000,1,9999,0.100000,0,0,0.000000,4,1.000000,0.000000,1.863306,0,0,0,0,0,0,0
6,69999,5,60000,25,10000,0,9999,0.100000,0,0,0.000000,4,0.000000,0.000000,0.070657,0,0,0,0,0,0,0
6,69999,6,60000,88,30000,0,9999,0.100000,0,0,0.000000,4,0.000000,0.000000,0.450749,0,0,0,0,0,0,0
6,69999,7,60000,32,30000,0,9999,0.100000,0,0,0.000000,4,0.000000,0.000000,0.101865,0,0,0,0,0,0,0
6,69999,8,60000,32,30000,0,9999,0.100000,0,0,0.000000,4,0.000000,0.000000,9.643996,0,0,0,0,0,0,0
6,69999,9,60000,32,30000,1,9999,0.100000,0,0,0.000000,4,1.000000,0.000000,10.483823,0,0,0,0,0,0,0
6,69999,10,60000,91,0,1,9999,0.100000,0,0,0.000000,4,1.000000,0.000000,7.113918,0,0,0,0,0,0,0
6,69999,11,60000,88,30000,0,9999,0.100000,0,0,0.000000,4,0.000000,0.000000,0.396217,0,0,0,0,0,0,0
6,69999,12,60000,25,10000,1,9999,0.100000,0,0,0.000000,4,1.000000,0.000000,2.150701,0,0,0,0,0,0,0
6,69999,13,60000,91,0,1,9999,0.100000,0,0,0.000000,4,1.000000,0.000000,5.248310,0,0,0,0,0,0,0
6,69999,14,60000,25,10000,0,9999,0.100000,0,0,0.000000,4,0.000000,0.000000,0.459452,0,0,0,0,0,0,0
6,69999,15,60000,88,30000,0,9999,0.100000,0,0,0.000000,4,0.000000,0.000000,0.103699,0,0,0,0,0,0,0
6,69999,16,60000,88,30000,0,9999,0.100000,0,0,0.000000,4,0.000000,0.000000,0.297806,0,0,0,0,0,0,0
6,69999,17,60000,32,30000,0,9999,0.100000,0,0,0.000000,4,0.000000,0.000000,10.717059,0,0,0,0,0,0,0
6,69999,18,60000,91,0,0,9999,0.100000,0,0,0.000000,4,0.000000,0.000000,0.095930,0,0,0,0,0,0,0
6,69999,19,60000,91,0,0,9999,0.100000,0,0,0.000000,4,0.000000,0.000000,0.779654,0,0,0,0,0,0,0
6,69999,20,60000,25,10000,0,9999,0.100000,0,0,0.000000,4,0.000000,0.000000,23.971912,0,0,0,0,0,0,0
6,69999,21,60000,91,0,0,9999,0.100000,0,0,0.000000,4,0.000000,0.000000,0.194878,0,0,0,0,0,0,0
6,69999,22,60000,91,0,1,9999,0.100000,0,0,0.000000,4,1.000000,0.000000,4.723634,0,0,0,0,0,0,0
6,69999,23,60000,32,30000,0,9999,0.100000,0,0,0.000000,4,0.000000,0.000000,1.762882,0,0,0,0,0,0,0
6,69999,24,60000,91,0,0,9999,0.100000,0,0,0.000000,4,0.000000,0.000000,2.175252,0,0,0,0,0,0,0
6,69999,25,60000,32,30000,0,9999,0.100000,0,0,0.000000,4,0.000000,0.000000,0.468955,0,0,0,0,0,0,0
6,69999,26,60000,88,30000,0,9999,0.100000,0,0,0.000000,4,0.000000,0.000000,0.527248,0,0,0,0,0,0,0
6,69999,27,60000,91,0,0,9999,0.100000,0,0,0.000000,4,0.000000,0.000000,1.021804,0,0,0,0,0,0,0
6,69999,28,60000,25,10000,0,9999,0.100000,0,0,0.000000,4,0.000000,0.000000,2.030678,0,0,0,0,0,0,1
6,69999,29,60000,91,0,0,9999,0.100000,0,0,0.000000,4,0.000000,0.000000,0.930759,0,0,0,0,0,0,0
6,69999,30,60000,91,0,0,9999,0.100000,0,0,0.000000,4,0.000000,0.000000,0.161435,0,0,0,0,0,0,0
6,69999,31,60000,91,0,0,9999,0.100000,0,0,0.000000,4,0.000000,0.000000,1.154176,0,0,0,0,0,0,0
6,69999,32,60000,25,10000,0,9999,0.100000,0,0,0.000000,4,0.000000,0.000000,0.594860,0,0,0,0,0,0,0
6,69999,33,60000,32,30000,0,9999,0.100000,0,0,0.000000,4,0.000000,0.000000,0.166531,0,0,0,0,0,0,0
6,69999,34,60000,91,0,0,9999,0.100000,0,0,0.000000,4,0.000000,0.000000,0.130345,0,0,0,0,0,0,0
6,69999,35,60000,32,30000,0,9999,0.100000,0,0,0.000000,4,0.000000,0.000000,0.845689,0,0,0,0,0,0,0
6,69999,36,60000,32,30000,0,9999,0.100000,0,0,0.000000,4,0.000000,0.000000,0.099989,0,0,0,0,0,0,0
6,69999,37,60000,32,30000,1,9999,0.100000,0,0,0.000000,4,3.000000,0.000000,3.688369,0,0,0,0,0,0,0
6,69999,38,60000,88,30000,0,9999,0.100000,0,0,0.000000,4,0.000000,0.000000,0.149393,0,0,0,0,0,0,0
6,69999,39,60000,32,30000,0,9999,0.100000,0,0,0.000000,4,0.000000,0.000000,0.217277,0,0,0,0,0,0,0
6,69999,40,60000,25,10000,1,9999,0.100000,0,0,0.000000,4,3.000000,0.000000,3.688477,0,0,0,0,0,0,0
6,69999,41,60000,88,30000,0,9999,0.100000,0,0,0.000000,4,0.000000,0.000000,0.872410,0,0,0,0,0,0,0
6,69999,42,60000,32,30000,0,9999,0.100000,0,0,0.000000,4,0.000000,0.000000,0.232011,0,0,0,0,0,0,0
6,69999,43,60000,32,30000,0,9999,0.100000,0,0,0.000000,4,0.000000,0.000000,0.121418,0,0,0,0,0,0,0
6,69999,44,60000,32,30000,0,9999,0.100000,0,0,0.000000,4,0.000000,0.000000,0.193151,0,0,0,0,0,0,0
6,69999,45,60000,32,30000,0,9999,0.100000,0,0,0.000000,4,0.000000,0.000000,1.000357,0,0,0,0,0,0,0
6,69999,46,60000,32,30000,0,9999,0.100000,0,0,0.000000,4,0.000000,0.000000,0.195114,0,0,0,0,0,0,0
6,69999,47,60000,25,10000,1,9999,0.100000,0,0,0.000000,4,6.000000,0.000000,12.877367,0,0,0,0,0,0,0
6,69999,48,60000,91,0,0,9999,0.100000,0,0,0.000000,4,0.000000,0.000000,0.707157,0,0,0,0,0,0,0
6,69999,49,60000,91,0,1,9999,0.100000,0,0,0.000000,4,4.000000,0.000000,17.218514,0,0,0,0,0,0,0
6,69999,50,60000,32,30000,0,9999,0.100000,0,0,0.000000,4,0.000000,0.000000,0.245040,0,0,0,0,0,0,0
6,69999,51,60000,25,10000,0,9999,0.100000,0,0,0.000000,4,0.000000,0.000000,1.336714,0,0,0,0,0,0,0
6,69999,52,60000,32,30000,0,9999,0.100000,0,0,0.000000,4,0.000000,0.000000,0.133531,0,0,0,0,0,0,0
6,69999,53,60000,88,30000,0,9999,0.100000,0,0,0.000000,4,0.000000,0.000000,0.085247,0,0,0,0,0,0,0
6,69999,54,60000,32,30000,1,9999,0.100000,0,0,0.000000,4,2.000000,0.000000,6.514004,0,0,0,0,0,0,0
6,69999,55,60000,88,30000,0,9999,0.100000,0,0,0.000000,4,0.000000,0.000000,0.523588,0,0,0,0,0,0,0
6,69999,56,60000,32,30000,0,9999,0.100000,0,0,0.000000,4,0.000000,0.000000,0.065617,0,0,0,0,0,0,0
6,69999,57,60000,88,30000,0,9999,0.100000,0,0,0.000000,4,0.000000,0.000000,0.548287,0,0,0,0,0,0,0
6,69999,58,60000,88,30000,0,9999,0.100000,0,0,0.000000,4,0.000000,0.000000,0.432239,0,0,0,0,0,0,0
6,69999,59,60000,88,30000,0,9999,0.100000,0,0,0.000000,4,0.000000,0.000000,1.214706,0,0,0,0,0,0,0
6,69999,60,60000,25,10000,0,9999,0.100000,0,0,0.000000,4,0.000000,0.000000,1.188484,0,0,0,0,0,0,0
6,69999,61,60000,25,10000,0,9999,0.100000,0,0,0.000000,4,0.000000,0.000000,0.511292,0,0,0,0,0,0,0
6,69999,62,60000,91,0,0,9999,0.100000,0,0,0.000000,4,0.000000,0.000000,0.083527,0,0,0,0,0,0,0
6,69999,63,60000,91,0,0,9999,0.100000,0,0,0.000000,4,0.000000,0.000000,1.920075,0,0,0,0,0,0,0
6,69999,64,60000,88,30000,0,9999,0.100000,0,0,0.000000,4,0.000000,0.000000,0.439832,0,0,0,0,0,0,0
6,69999,65,60000,91,0,0,9999,0.100000,0,0,0.000000,4,0.000000,0.000000,2.302630,0,0,0,0,0,0,0
6,69999,66,60000,32,30000,0,9999,0.100000,0,0,0.000000,4,0.000000,0.000000,0.500516,0,0,0,0,0,0,0
6,69999,67,60000,25,10000,1,9999,0.100000,0,0,0.000000,4,3.000000,0.000000,6.922511,0,0,0,0,0,0,0
6,69999,68,60000,88,30000,0,9999,0.100000,0,0,0.000000,4,0.000000,0.000000,0.355203,0,0,0,0,0,0,0
6,69999,69,60000,91,0,0,9999,0.100000,0,0,0.000000,4,0.000000,0.000000,0.122333,0,0,0,0,0,0,0
6,69999,70,60000,91,0,0,9999,0.100000,0,0,0.000000,4,0.000000,0.000000,0.466356,0,0,0,0,0,0,0
6,69999,71,60000,25,10000,1,9999,0.100000,0,0,0.000000,4,2.000000,0.000000,9.123196,0,0,0,0,0,0,0
6,69999,72,60000,91,0,0,9999,0.100000,0,0,0.000000,4,0.000000,0.000000,0.595412,0,0,0,0,0,0,0
6,69999,73,60000,88,30000,0,9999,0.100000,0,0,0.000000,4,0.000000,0.000000,1.022574,0,0,0,0,0,0,0
6,69999,74,60000,32,30000,1,9999,0.100000,0,0,0.000000,4,1.000000,0.000000,4.819120,0,0,0,0,0,0,0
6,69999,75,60000,88,30000,0,9999,0.100000,0,0,0.000000,4,0.000000,0.000000,2.477337,0,0,0,0,0,0,0
6,69999,76,60000,25,10000,1,9999,0.100000,0,0,0.000000,4,1.000000,0.000000,14.511016,0,0,0,0,0,0,0
6,69999,77,60000,91,0,0,9999,0.100000,0,0,0.000000,4,0.000000,0.000000,0.520943,0,0,0,0,0,0,0
6,69999,78,60000,91,0,1,9999,0.100000,0,0,0.000000,4,1.000000,0.000000,12.561210,0,0,0,0,0,0,0
6,69999,79,60000,25,10000,0,9999,0.100000,0,0,0.000000,4,0.000000,0.000000,0.076052,0,0,0,0,0,0,0
6,69999,80,60000,91,0,0,9999,0.100000,0,0,0.000000,4,0.000000,0.000000,0.094129,0,0,0,0,0,0,0
6,69999,81,60000,91,0,0,9999,0.100000,0,0,0.000000,4,0.000000,0.000000,0.918155,0,0,0,0,0,0,0
6,69999,82,60000,32,30000,1,9999,0.100000,0,0,0.000000,4,1.000000,0.000000,1.918141,0,0,0,0,0,0,0
6,69999,83,60000,88,30000,1,9999,0.100000,0,0,0.000000,4,3.000000,0.000000,3.631026,0,0,0,0,0,0,0
6,69999,84,60000,32,30000,0,9999,0.100000,0,0,0.000000,4,0.000000,0.000000,6.522085,0,0,0,0,0,0,0
6,69999,85,60000,32,30000,0,9999,0.100000,0,0,0.000000,4,0.000000,0.000000,0.144144,0,0,0,0,0,0,0
6,69999,86,60000,32,30000,1,9999,0.100000,0,0,0.000000,4,1.000000,0.000000,1.793328,0,0,0,0,0,0,0
6,69999,87,60000,91,0,1,9999,0.100000,0,0,0.000000,4,1.000000,0.000000,1.931598,0,0,0,0,0,0,0
6,69999,88,60000,25,10000,0,9999,0.100000,0,0,0.000000,4,0.000000,0.000000,0.375622,0,0,0,0,0,0,0
6,69999,89,60000,91,0,0,9999,0.100000,0,0,0.000000,4,0.000000,0.000000,2.654672,0,0,0,0,0,0,0
6,69999,90,60000,25,10000,0,9999,0.100000,0,0,0.000000,4,0.000000,0.000000,0.186779,0,0,0,0,0,0,0
6,69999,91,60000,32,30000,0,9999,0.100000,0,0,0.000000,4,0.000000,0.000000,0.972471,0,0,0,0,0,0,0
6,69999,92,60000,32,30000,0,9999,0.100000,0,0,0.000000,4,0.000000,0.000000,0.082570,0,0,0,0,0,0,0
6,69999,93,60000,88,30000,0,9999,0.100000,0,0,0.000000,4,0.000000,0.000000,0.391043,0,0,0,0,0,0,0
6,69999,94,60000,91,0,0,9999,0.100000,0,0,0.000000,4,0.000000,0.000000,0.125311,0,0,0,0,0,0,0
6,69999,95,60000,25,10000,0,9999,0.100000,0,0,0.000000,4,0.000000,0.000000,0.737269,0,0,0,0,0,0,0
6,69999,96,60000,91,0,0,9999,0.100000,0,0,0.000000,4,0.000000,0.000000,0.088001,0,0,0,0,0,0,0
6,69999,97,60000,32,30000,1,9999,0.100000,0,0,0.000000,4,1.000000,0.000000,10.610736,0,0,0,0,0,0,0
6,69999,98,60000,91,0,0,9999,0.100000,0,0,0.000000,4,0.000000,0.000000,0.375447,0,0,0,0,0,0,0
6,69999,99,60000,88,30000,0,9999,0.100000,0,0,0.000000,4,0.000000,0.000000,0.145972,0,0,0,0,0,0,0
7,79999,0,70000,32,30000,0,9999,0.100000,0,0,0.000000,4,0.000000,0.000000,2.605111,0,0,0,0,0,0,0
7,79999,1,70000,25,10000,0,9999,0.100000,0,0,0.000000,4,0.000000,0.000000,0.896802,0,0,0,0,0,0,0
7,79999,2,70000,25,10000,0,9999,0.065000,0,0,0.000000,4,0.000000,0.000000,0.150816,0,0,0,0,0,0,0
7,79999,3,70000,91,0,1,9999,0.100000,0,0,0.000000,4,6.000000,0.000000,7.092909,0,0,0,0,0,0,0
7,79999,4,70000,88,30000,1,9999,0.100000,0,0,0.000000,4,2.000000,0.000000,2.284355,0,0,0,0,0,0,0
7,79999,5,70000,32,30000,0,9999,0.100000,0,0,0.000000,4,0.000000,0.000000,0.073777,0,0,0,0,0,0,0
7,79999,6,70000,32,30000,0,9999,0.100000,0,0,0.000000,4,0.000000,0.000000,0.438095,0,0,0,0,0,0,0
7,79999,7,70000,25,10000,0,9999,0.100000,0,0,0.000000,4,0.000000,0.000000,0.071019,0,0,0,0,0,0,0
7,79999,8,70000,91,0,1,9999,0.100000,0,0,0.000000,4,1.000000,0.000000,6.782852,0,0,0,0,0,0,0
7,79999,9,70000,25,10000,0,9999,0.100000,0,0,0.000000,4,0.000000,0.000000,1.204520,0,0,0,0,0,0,0
7,79999,10,70000,32,30000,0,9999,0.100000,0,0,0.000000,4,0.000000,0.000000,9.594438,0,0,0,0,0,0,0
7,79999,11,70000,91,0,0,9999,0.100000,0,0,0.000000,4,0.000000,0.000000,0.609871,0,0,0,0,0,0,0
7,79999,12,70000,91,0,0,9999,0.100000,0,0,0.000000,4,0.000000,0.000000,1.237683,0,0,0,0,0,0,0
7,79999,13,70000,32,30000,1,9999,0.100000,0,0,0.000000,4,1.000000,0.000000,4.309954,0,0,0,0,0,0,0
7,79999,14,70000,32,30000,0,9999,0.100000,0,0,0.000000,4,0.000000,0.000000,0.090342,0,0,0,0,0,0,0
7,79999,15,70000,88,30000,0,9999,0.100000,0,0,0.000000,4,0.000000,0.000000,0.101617,0,0,0,0,0,0,0
7,79999,16,70000,91,0,0,9999,0.100000,0,0,0.000000,4,0.000000,0.000000,0.085094,0,0,0,0,0,0,0
7,79999,17,70000,32,30000,1,9999,0.100000,0,0,0.000000,4,2.000000,0.000000,12.583580,0,0,0,0,0,0,0
7,79999,18,70000,91,0,0,9999,0.100000,0,0,0.000000,4,0.000000,0.000000,0.096075,0,0,0,0,0,0,0
7,79999,19,70000,25,10000,0,9999,0.100000,0,0,0.000000,4,0.000000,0.000000,0.632345,0,0,0,0,0,0,0
7,79999,20,70000,88,30000,0,9999,0.100000,0,0,0.000000,4,0.000000,0.000000,24.010954,0,0,0,0,0,0,0
7,79999,21,70000,88,30000,0,9999,0.100000,0,0,0.000000,4,0.000000,0.000000,0.137348,0,0,0,0,0,0,0
7,79999,22,70000,25,10000,1,9999,0.100000,0,0,0.000000,4,3.000000,0.000000,8.680176,0,0,0,0,0,0,0
7,79999,23,70000,32,30000,0,9999,0.100000,0,0,0.000000,4,0.000000,0.000000,0.705084,0,0,0,0,0,0,0
7,79999,24,70000,25,10000,0,9999,0.100000,0,0,0.000000,4,0.000000,0.000000,1.051658,0,0,0,0,0,0,0
7,79999,25,70000,91,0,0,9999,0.100000,0,0,0.000000,4,0.000000,0.000000,0.960734,0,0,0,0,0,0,0
7,79999,26,70000,88,30000,0,9999,0.100000,0,0,0.000000,4,0.000000,0.000000,0.608258,0,0,0,0,0,0,0
7,79999,27,70000,32,30000,0,9999,0.100000,0,0,0.000000,4,0.000000,0.000000,2.808163,0,0,0,0,0,0,0
7,79999,28,70000,25,10000,0,9999,0.100000,0,0,0.000000,4,0.000000,0.000000,1.493847,0,0,0,0,0,0,0
7,79999,29,70000,25,10000,0,9999,0.100000,0,0,0.000000,4,0.000000,0.000000,0.896595,0,0,0,0,0,0,0
7,79999,30,70000,91,0,1,9999,0.100000,0,0,0.000000,4,2.000000,0.000000,7.146475,0,0,0,0,0,0,0
7,79999,31,70000,91,0,0,9999,0.100000,0,0,0.000000,4,0.000000,0.000000,0.728431,0,0,0,0,0,0,0
7,79999,32,70000,25,10000,0,9999,0.100000,0,0,0.000000,4,0.000000,0.000000,0.629915,0,0,0,0,0,0,0
7,79999,33,70000,88,30000,0,9999,0.100000,0,0,0.000000,4,0.000000,0.000000,0.129518,0,0,0,0,0,0,0
7,79999,34,70000,91,0,0,9999,0.100000,0,0,0.000000,4,0.000000,0.000000,0.170205,0,0,0,0,0,0,0
7,79999,35,70000,88,30000,0,9999,0.100000,0,0,0.000000,4,0.000000,0.000000,2.085628,0,0,0,0,0,0,0
7,79999,36,70000,88,30000,0,9999,0.100000,0,0,0.000000,4,0.000000,0.000000,0.085127,0,0,0,0,0,0,0
7,79999,37,70000,25,10000,1,9999,0.100000,0,0,0.000000,4,2.000000,0.000000,6.214244,0,0,0,0,0,0,0
7,79999,38,70000,25,10000,0,9999,0.100000,0,0,0.000000,4,0.000000,0.000000,0.155061,0,0,0,0,0,0,0
7,79999,39,70000,88,30000,0,9999,0.100000,0,0,0.000000,4,0.000000,0.000000,0.193101,0,0,0,0,0,0,0
7,79999,40,70000,91,0,0,9999,0.100000,0,0,0.000000,4,0.000000,0.000000,9.266078,0,0,0,0,0,0,0
7,79999,41,70000,91,0,1,9999,0.100000,0,0,0.000000,4,6.000000,0.000000,7.112571,0,0,0,0,0,0,0
7,79999,42,70000,25,10000,0,9999,0.100000,0,0,0.000000,4,0.000000,0.000000,0.856953,0,0,0,0,0,0,0
7,79999,43,70000,88,30000,0,9999,0.100000,0,0,0.000000,4,0.000000,0.000000,0.142947,0,0,0,0,0,0,0
7,79999,44,70000,88,30000,0,9999,0.100000,0,0,0.000000,4,0.000000,0.000000,0.202123,0,0,0,0,0,0,0
7,79999,45,70000,32,30000,0,9999,0.100000,0,0,0.000000,4,0.000000,0.000000,0.207206,0,0,0,0,0,0,0
7,79999,46,70000,25,10000,0,9999,0.100000,0,0,0.000000,4,0.000000,0.000000,0.188780,0,0,0,0,0,0,0
7,79999,47,70000,25,10000,0,9999,0.100000,0,0,0.000000,4,0.000000,0.000000,0.938686,0,0,0,0,0,0,0
7,79999,48,70000,88,30000,0,9999,0.100000,0,0,0.000000,4,0.000000,0.000000,0.701757,0,0,0,0,0,0,0
7,79999,49,70000,25,10000,1,9999,0.100000,0,0,0.000000,4,2.000000,0.000000,12.498915,0,0,0,0,0,0,0
7,79999,50,70000,32,30000,0,9999,0.100000,0,0,0.000000,4,0.000000,0.000000,1.014955,0,0,0,0,0,0,0
7,79999,51,70000,88,30000,0,9999,0.100000,0,0,0.000000,4,0.000000,0.000000,0.398613,0,0,0,0,0,0,0
7,79999,52,70000,32,30000,0,9999,0.100000,0,0,0.000000,4,0.000000,0.000000,0.146062,0,0,0,0,0,0,0
7,79999,53,70000,91,0,0,9999,0.100000,0,0,0.000000,4,0.000000,0.000000,0.067060,0,0,0,0,0,0,0
7,79999,54,70000,88,30000,0,9999,0.100000,0,0,0.000000,4,0.000000,0.000000,0.670500,0,0,0,0,0,0,0
7,79999,55,70000,32,30000,1,9999,0.100000,0,0,0.000000,4,6.000000,0.000000,7.248650,0,0,0,0,0,0,0
7,79999,56,70000,91,0,0,9999,0.100000,0,0,0.000000,4,0.000000,0.000000,0.065769,0,0,0,0,0,0,0
7,79999,57,70000,91,0,0,9999,0.100000,0,0,0.000000,4,0.000000,0.000000,0.495989,0,0,0,0,0,0,0
7,79999,58,70000,88,30000,0,9999,0.100000,0,0,0.000000,4,0.000000,0.000000,0.418582,0,0,0,0,0,0,0
7,79999,59,70000,25,10000,0,9999,0.135000,0,0,0.000000,4,0.000000,0.000000,3.320575,0,0,0,0,0,0,0
7,79999,60,70000,25,10000,0,9999,0.100000,0,0,0.000000,4,0.000000,0.000000,0.528236,0,0,0,0,0,0,0
7,79999,61,70000,91,0,0,9999,0.100000,0,0,0.000000,4,0.000000,0.000000,0.534907,0,0,0,0,0,0,0
7,79999,62,70000,25,10000,0,9999,0.100000,0,0,0.000000,4,0.000000,0.000000,0.088713,0,0,0,0,0,0,0
7,79999,63,70000,88,30000,0,9999,0.100000,0,0,0.000000,4,0.000000,0.000000,3.765369,0,0,0,0,0,0,0
7,79999,64,70000,25,10000,0,9999,0.100000,0,0,0.000000,4,0.000000,0.000000,1.150754,0,0,0,0,0,0,0
7,79999,65,70000,91,0,0,9999,0.100000,0,0,0.000000,4,0.000000,0.000000,0.988582,0,0,0,0,0,0,0
7,79999,66,70000,88,30000,0,9999,0.065000,0,0,0.000000,4,0.000000,0.000000,2.492101,0,0,0,0,0,0,0
7,79999,67,70000,91,0,0,9999,0.100000,0,0,0.000000,4,0.000000,0.000000,0.676143,0,0,0,0,0,0,0
7,79999,68,70000,91,0,0,9999,0.100000,0,0,0.000000,4,0.000000,0.000000,0.424115,0,0,0,0,0,0,0
7,79999,69,70000,88,30000,0,9999,0.100000,0,0,0.000000,4,0.000000,0.000000,0.748016,0,0,0,0,0,0,0
7,79999,70,70000,25,10000,0,9999,0.100000,0,0,0.000000,4,0.000000,0.000000,0.507728,0,0,0,0,0,0,0
7,79999,71,70000,91,0,0,9999,0.100000,0,0,0.000000,4,0.000000,0.000000,1.213363,0,0,0,0,0,0,0
7,79999,72,70000,91,0,0,9999,0.100000,0,0,0.000000,4,0.000000,0.000000,0.605075,0,0,0,0,0,0,0
7,79999,73,70000,91,0,0,9999,0.100000,0,0,0.000000,4,0.000000,0.000000,1.027019,0,0,0,0,0,0,0
7,79999,74,70000,91,0,0,9999,0.100000,0,0,0.000000,4,0.000000,0.000000,0.770273,0,0,0,0,0,0,0
7,79999,75,70000,32,30000,1,9999,0.100000,0,0,0.000000,4,8.000000,0.000000,25.147874,0,0,0,0,0,0,0
7,79999,76,70000,32,30000,1,9999,0.100000,0,0,0.000000,4,2.000000,0.000000,8.269640,0,0,0,0,0,0,0
7,79999,77,70000,91,0,0,9999,0.100000,0,0,0.000000,4,0.000000,0.000000,0.736854,0,0,0,0,0,0,0
7,79999,78,70000,32,30000,1,9999,0.100000,0,0,0.000000,4,3.000000,0.000000,8.597366,0,0,0,0,0,0,0
7,79999,79,70000,25,10000,0,9999,0.100000,0,0,0.000000,4,0.000000,0.000000,0.072018,0,0,0,0,0,0,0
7,79999,80,70000,91,0,0,9999,0.100000,0,0,0.000000,4,0.000000,0.000000,0.122159,0,0,0,0,0,0,0
7,79999,81,70000,25,10000,0,9999,0.100000,0,0,0.000000,4,0.000000,0.000000,0.399998,0,0,0,0,0,0,0
7,79999,82,70000,25,10000,1,9999,0.100000,0,0,0.000000,4,2.000000,0.000000,2.335186,0,0,0,0,0,0,0
7,79999,83,70000,91,0,1,9999,0.100000,0,0,0.000000,4,1.000000,0.000000,6.100617,0,0,0,0,0,0,0
7,79999,84,70000,32,30000,0,9999,0.100000,0,0,0.000000,4,0.000000,0.000000,2.175877,0,0,0,0,0,0,0
7,79999,85,70000,25,10000,0,9999,0.100000,0,0,0.000000,4,0.000000,0.000000,0.142684,0,0,0,0,0,0,0
7,79999,86,70000,25,10000,1,9999,0.100000,0,0,0.000000,4,2.000000,0.000000,2.219289,0,0,0,0,0,0,0
7,79999,87,70000,25,10000,0,9999,0.100000,0,0,0.000000,4,0.000000,0.000000,2.504330,0,0,0,0,0,0,0
7,79999,88,70000,91,0,0,9999,0.100000,0,0,0.000000,4,0.000000,0.000000,0.352787,0,0,0,0,0,0,0
7,79999,89,70000,32,30000,0,9999,0.100000,0,0,0.000000,4,0.000000,0.000000,0.124071,0,0,0,0,0,0,0
7,79999,90,70000,25,10000,0,9999,0.100000,0,0,0.000000,4,0.000000,0.000000,0.155885,0,0,0,0,0,0,0
7,79999,91,70000,91,0,1,9999,0.100000,0,0,0.000000,4,4.000000,0.000000,7.694392,0,0,0,0,0,0,0
7,79999,92,70000,88,30000,0,9999,0.100000,0,0,0.000000,4,0.000000,0.000000,0.084078,0,0,0,0,0,0,0
7,79999,93,70000,91,0,0,9999,0.100000,0,0,0.000000,4,0.000000,0.000000,0.385188,0,0,0,0,0,0,0
7,79999,94,70000,91,0,0,9999,0.100000,0,0,0.000000,4,0.000000,0.000000,0.141565,0,0,0,0,0,0,0
7,79999,95,70000,32,30000,0,9999,0.100000,0,0,0.000000,4,0.000000,0.000000,0.159943,0,0,0,0,0,0,0
7,79999,96,70000,32,30000,0,9999,0.100000,0,0,0.000000,4,0.000000,0.000000,0.084443,0,0,0,0,0,0,0
7,79999,97,70000,91,0,1,9999,0.100000,0,0,0.000000,4,4.000000,0.000000,10.665261,0,0,0,0,0,0,0
7,79999,98,70000,25,10000,0,9999,0.100000,0,0,0.000000,4,0.000000,0.000000,0.388105,0,0,0,0,0,0,0
7,79999,99,70000,25,10000,0,9999,0.100000,0,0,0.000000,4,0.000000,0.000000,0.131946,0,0,0,0,0,0,0
8,89999,0,80000,88,30000,0,9999,0.100000,0,0,0.000000,4,0.000000,0.000000,2.843737,0,0,0,0,0,0,0
8,89999,1,80000,25,10000,0,9999,0.100000,0,0,0.000000,4,0.000000,0.000000,0.987901,0,0,0,0,0,0,0
8,89999,2,80000,91,0,0,9999,0.100000,0,0,0.000000,4,0.000000,0.000000,0.182332,0,0,0,0,0,0,0
8,89999,3,80000,88,30000,1,9999,0.100000,0,0,0.000000,4,1.000000,0.000000,1.455647,0,0,0,0,0,0,0
8,89999,4,80000,88,30000,1,9999,0.100000,0,0,0.000000,4,2.000000,0.000000,2.482613,0,0,0,0,0,0,0
8,89999,5,80000,32,30000,0,9999,0.100000,0,0,0.000000,4,0.000000,0.000000,0.076869,0,0,0,0,0,0,0
8,89999,6,80000,91,0,0,9999,0.100000,0,0,0.000000,4,0.000000,0.000000,0.422663,0,0,0,0,0,0,0
8,89999,7,80000,25,10000,0,9999,0.100000,0,0,0.000000,4,0.000000,0.000000,0.068704,0,0,0,0,0,0,0
8,89999,8,80000,88,30000,0,9999,0.100000,0,0,0.000000,4,0.000000,0.000000,4.874179,0,0,0,0,0,0,1
8,89999,9,80000,88,30000,0,9999,0.100000,0,0,0.000000,4,0.000000,0.000000,1.114257,0,0,0,0,0,0,0
8,89999,10,80000,25,10000,0,9999,0.100000,0,0,0.000000,4,0.000000,0.000000,1.264805,0,0,0,0,0,0,0
8,89999,11,80000,32,30000,0,9999,0.100000,0,0,0.000000,4,0.000000,0.000000,0.437441,0,0,0,0,0,0,0
8,89999,12,80000,88,30000,1,9999,0.100000,0,0,0.000000,4,1.000000,0.000000,5.026554,0,0,0,0,0,0,0
8,89999,13,80000,88,30000,1,9999,0.100000,0,0,0.000000,4,1.000000,0.000000,2.240559,0,0,0,0,0,0,0
8,89999,14,80000,32,30000,0,9999,0.100000,0,0,0.000000,4,0.000000,0.000000,0.090305,0,0,0,0,0,0,0
8,89999,15,80000,32,30000,0,9999,0.100000,0,0,0.000000,4,0.000000,0.000000,0.096852,0,0,0,0,0,0,0
8,89999,16,80000,32,30000,0,9999,0.100000,0,0,0.000000,4,0.000000,0.000000,0.091454,0,0,0,0,0,0,0
8,89999,17,80000,91,0,1,9999,0.100000,0,0,0.000000,4,2.000000,0.000000,7.410573,0,0,0,0,0,0,0
8,89999,18,80000,88,30000,0,9999,0.100000,0,0,0.000000,4,0.000000,0.000000,0.096746,0,0,0,0,0,0,0
8,89999,19,80000,32,30000,0,9999,0.100000,0,0,0.000000,4,0.000000,0.000000,0.618471,0,0,0,0,0,0,0
8,89999,20,80000,88,30000,0,9999,0.100000,0,0,0.000000,4,0.000000,0.000000,23.763205,0,0,0,0,0,0,0
8,89999,21,80000,88,30000,0,9999,0.100000,0,0,0.000000,4,0.000000,0.000000,0.132196,0,0,0,0,0,0,0
8,89999,22,80000,25,10000,0,9999,0.100000,0,0,0.000000,4,0.000000,0.000000,0.793087,0,0,0,0,0,0,0
8,89999,23,80000,32,30000,0,9999,0.100000,0,0,0.000000,4,0.000000,0.000000,0.223931,0,0,0,0,0,0,0
8,89999,24,80000,32,30000,0,9999,0.100000,0,0,0.000000,4,0.000000,0.000000,1.029625,0,0,0,0,0,0,0
8,89999,25,80000,91,0,1,9999,0.100000,0,0,0.000000,4,1.000000,0.000000,1.514577,0,0,0,0,0,0,0
8,89999,26,80000,91,0,0,9999,0.100000,0,0,0.000000,4,0.000000,0.000000,0.584931,0,0,0,0,0,0,0
8,89999,27,80000,88,30000,0,9999,0.100000,0,0,0.000000,4,0.000000,0.000000,0.439511,0,0,0,0,0,0,0
8,89999,28,80000,25,10000,1,9999,0.100000,0,0,0.000000,4,7.000000,0.000000,19.060589,0,0,0,0,0,0,0
8,89999,29,80000,25,10000,1,9999,0.100000,0,0,0.000000,4,2.000000,0.000000,3.987404,0,0,0,0,0,0,0
8,89999,30,80000,32,30000,1,9999,0.100000,0,0,0.000000,4,6.000000,0.000000,11.748120,0,0,0,0,0,0,0
8,89999,31,80000,88,30000,0,9999,0.100000,0,0,0.000000,4,0.000000,0.000000,1.185891,0,0,0,0,0,0,0
8,89999,32,80000,32,30000,0,9999,0.100000,0,0,0.000000,4,0.000000,0.000000,0.883788,0,0,0,0,0,0,0
8,89999,33,80000,88,30000,0,9999,0.100000,0,0,0.000000,4,0.000000,0.000000,0.130209,0,0,0,0,0,0,0
8,89999,34,80000,91,0,0,9999,0.100000,0,0,0.000000,4,0.000000,0.000000,0.088080,0,0,0,0,0,0,0
8,89999,35,80000,91,0,0,9999,0.100000,0,0,0.000000,4,0.000000,0.000000,0.158364,0,0,0,0,0,0,0
8,89999,36,80000,25,10000,0,9999,0.100000,0,0,0.000000,4,0.000000,0.000000,0.180766,0,0,0,0,0,0,0
8,89999,37,80000,88,30000,1,9999,0.100000,0,0,0.000000,4,4.000000,0.000000,11.683778,0,0,0,0,0,0,0
8,89999,38,80000,88,30000,0,9999,0.100000,0,0,0.000000,4,0.000000,0.000000,0.196098,0,0,0,0,0,0,0
8,89999,39,80000,25,10000,0,9999,0.100000,0,0,0.000000,4,0.000000,0.000000,0.216346,0,0,0,0,0,0,0
8,89999,40,80000,88,30000,1,9999,0.100000,0,0,0.000000,4,2.000000,0.000000,6.052184,0,0,0,0,0,0,0
8,89999,41,80000,88,30000,1,9999,0.100000,0,0,0.000000,4,1.000000,0.000000,1.678075,0,0,0,0,0,0,0
8,89999,42,80000,32,30000,0,9999,0.100000,0,0,0.000000,4,0.000000,0.000000,0.204317,0,0,0,0,0,0,0
8,89999,43,80000,25,10000,0,9999,0.100000,0,0,0.000000,4,0.000000,0.000000,0.119599,0,0,0,0,0,0,0
8,89999,44,80000,25,10000,0,9999,0.100000,0,0,0.000000,4,0.000000,0.000000,0.236205,0,0,0,0,0,0,0
8,89999,45,80000,32,30000,0,9999,0.100000,0,0,0.000000,4,0.000000,0.000000,0.230575,0,0,0,0,0,0,0
8,89999,46,80000,32,30000,0,9999,0.100000,0,0,0.000000,4,0.000000,0.000000,0.197451,0,0,0,0,0,0,0
8,89999,47,80000,91,0,0,9999,0.100000,0,0,0.000000,4,0.000000,0.000000,0.930711,0,0,0,0,0,0,0
8,89999,48,80000,88,30000,0,9999,0.100000,0,0,0.000000,4,0.000000,0.000000,0.989649,0,0,0,0,0,0,0
8,89999,49,80000,32,30000,1,9999,0.100000,0,0,0.000000,4,1.000000,0.000000,4.099623,0,0,0,0,0,0,0
8,89999,50,80000,88,30000,0,9999,0.100000,0,0,0.000000,4,0.000000,0.000000,0.228387,0,0,0,0,0,0,0
8,89999,51,80000,88,30000,1,9999,0.100000,0,0,0.000000,4,4.000000,0.000000,9.387940,0,0,0,0,0,0,0
8,89999,52,80000,88,30000,0,9999,0.100000,0,0,0.000000,4,0.000000,0.000000,0.080896,0,0,0,0,0,0,0
8,89999,53,80000,91,0,0,9999,0.100000,0,0,0.000000,4,0.000000,0.000000,0.067420,0,0,0,0,0,0,0
8,89999,54,80000,25,10000,0,9999,0.100000,0,0,0.000000,4,0.000000,0.000000,0.950329,0,0,0,0,0,0,0
8,89999,55,80000,88,30000,1,9999,0.100000,0,0,0.000000,4,1.000000,0.000000,1.607165,0,0,0,0,0,0,0
8,89999,56,80000,88,30000,0,9999,0.100000,0,0,0.000000,4,0.000000,0.000000,0.065320,0,0,0,0,0,0,0
8,89999,57,80000,25,10000,0,9999,0.100000,0,0,0.000000,4,0.000000,0.000000,0.457887,0,0,0,0,0,0,0
8,89999,58,80000,25,10000,1,9999,0.100000,0,0,0.000000,4,1.000000,0.000000,3.903997,0,0,0,0,0,0,0
8,89999,59,80000,25,10000,1,9999,0.100000,0,0,0.000000,4,1.000000,0.000000,9.206114,0,0,0,0,0,0,0
8,89999,60,80000,91,0,0,9999,0.100000,0,0,0.000000,4,0.000000,0.000000,1.087270,0,0,0,0,0,0,0
8,89999,61,80000,91,0,0,9999,0.135000,0,0,0.000000,4,0.000000,0.000000,0.525665,0,0,0,0,0,0,0
8,89999,62,80000,88,30000,0,9999,0.100000,0,0,0.000000,4,0.000000,0.000000,0.093356,0,0,0,0,0,0,0
8,89999,63,80000,25,10000,0,9999,0.100000,0,0,0.000000,4,0.000000,0.000000,2.629816,0,0,0,0,0,0,1
8,89999,64,80000,88,30000,0,9999,0.100000,0,0,0.000000,4,0.000000,0.000000,0.895849,0,0,0,0,0,0,0
8,89999,65,80000,91,0,0,9999,0.100000,0,0,0.000000,4,0.000000,0.000000,0.247959,0,0,0,0,0,0,0
8,89999,66,80000,25,10000,0,9999,0.100000,0,0,0.000000,4,0.000000,0.000000,0.512339,0,0,0,0,0,0,0
8,89999,67,80000,25,10000,0,9999,0.100000,0,0,0.000000,4,0.000000,0.000000,0.732490,0,0,0,0,0,0,0
8,89999,68,80000,88,30000,1,9999,0.100000,0,0,0.000000,4,1.000000,0.000000,1.580318,0,0,0,0,0,0,0
8,89999,69,80000,25,10000,1,9999,0.100000,0,0,0.000000,4,1.000000,0.000000,1.855579,0,0,0,0,0,0,0
8,89999,70,80000,25,10000,1,9999,0.100000,0,0,0.000000,4,1.000000,0.000000,1.541777,0,0,0,0,0,0,0
8,89999,71,80000,32,30000,0,9999,0.100000,0,0,0.000000,4,0.000000,0.000000,0.219435,0,0,0,0,0,0,0
8,89999,72,80000,88,30000,1,9999,0.100000,0,0,0.000000,4,1.000000,0.000000,1.608994,0,0,0,0,0,0,0
8,89999,73,80000,25,10000,0,9999,0.100000,0,0,0.000000,4,0.000000,0.000000,7.385926,0,0,0,0,0,0,0
8,89999,74,80000,32,30000,0,9999,0.100000,0,0,0.000000,4,0.000000,0.000000,0.832261,0,0,0,0,0,0,0
8,89999,75,80000,88,30000,1,9999,0.100000,0,0,0.000000,4,1.000000,0.000000,1.856638,0,0,0,0,0,0,0
8,89999,76,80000,91,0,1,9999,0.100000,0,0,0.000000,4,1.000000,0.000000,13.340278,0,0,0,0,0,0,0
8,89999,77,80000,32,30000,0,9999,0.100000,0,0,0.000000,4,0.000000,0.000000,1.186323,0,0,0,0,0,0,0
8,89999,78,80000,91,0,0,9999,0.100000,0,0,0.000000,4,0.000000,0.000000,3.807210,0,0,0,0,0,0,0
8,89999,79,80000,32,30000,0,9999,0.100000,0,0,0.000000,4,0.000000,0.000000,0.075151,0,0,0,0,0,0,0
8,89999,80,80000,91,0,0,9999,0.100000,0,0,0.000000,4,0.000000,0.000000,0.326077,0,0,0,0,0,0,0
8,89999,81,80000,91,0,0,9999,0.100000,0,0,0.000000,4,0.000000,0.000000,0.368448,0,0,0,0,0,0,0
8,89999,82,80000,25,10000,1,9999,0.100000,0,0,0.000000,4,2.000000,0.000000,2.596944,0,0,0,0,0,0,0
8,89999,83,80000,91,0,1,9999,0.100000,0,0,0.000000,4,2.000000,0.000000,9.774971,0,0,0,0,0,0,0
8,89999,84,80000,32,30000,0,9999,0.100000,0,0,0.000000,4,0.000000,0.000000,1.840699,0,0,0,0,0,0,0
8,89999,85,80000,88,30000,0,9999,0.100000,0,0,0.000000,4,0.000000,0.000000,0.131717,0,0,0,0,0,0,0
8,89999,86,80000,25,10000,1,9999,0.100000,0,0,0.000000,4,2.000000,0.000000,2.399385,0,0,0,0,0,0,0
8,89999,87,80000,91,0,0,9999,0.100000,0,0,0.000000,4,0.000000,0.000000,2.713033,0,0,0,0,0,0,0
8,89999,88,80000,88,30000,0,9999,0.100000,0,0,0.000000,4,0.000000,0.000000,0.329302,0,0,0,0,0,0,0
8,89999,89,80000,25,10000,0,9999,0.100000,0,0,0.000000,4,0.000000,0.000000,0.142131,0,0,0,0,0,0,0
8,89999,90,80000,91,0,0,9999,0.100000,0,0,0.000000,4,0.000000,0.000000,0.275915,0,0,0,0,0,0,0
8,89999,91,80000,88,30000,1,9999,0.100000,0,0,0.000000,4,8.000000,0.000000,19.868786,0,0,0,0,0,0,0
8,89999,92,80000,88,30000,0,9999,0.100000,0,0,0.000000,4,0.000000,0.000000,0.082852,0,0,0,0,0,0,0
8,89999,93,80000,25,10000,0,9999,0.100000,0,0,0.000000,4,0.000000,0.000000,0.426559,0,0,0,0,0,0,0
8,89999,94,80000,32,30000,0,9999,0.100000,0,0,0.000000,4,0.000000,0.000000,0.292479,0,0,0,0,0,0,0
8,89999,95,80000,25,10000,0,9999,0.100000,0,0,0.000000,4,0.000000,0.000000,0.155223,0,0,0,0,0,0,0
8,89999,96,80000,25,10000,0,9999,0.100000,0,0,0.000000,4,0.000000,0.000000,0.082541,0,0,0,0,0,0,0
8,89999,97,80000,32,30000,0,9999,0.100000,0,0,0.000000,4,0.000000,0.000000,4.611182,0,0,0,0,0,0,0
8,89999,98,80000,91,0,0,9999,0.100000,0,0,0.000000,4,0.000000,0.000000,3.954163,0,0,0,0,0,0,0
8,89999,99,80000,88,30000,0,9999,0.100000,0,0,0.000000,4,0.000000,0.000000,0.128494,0,0,0,0,0,0,0
9,99999,0,90000,91,0,0,9999,0.100000,0,0,0.000000,4,0.000000,0.000000,2.710288,0,0,0,0,0,0,0
9,99999,1,90000,32,30000,0,9999,0.100000,0,0,0.000000,4,0.000000,0.000000,0.980285,0,0,0,0,0,0,0
9,99999,2,90000,32,30000,0,9999,0.100000,0,0,0.000000,4,0.000000,0.000000,0.190309,0,0,0,0,0,0,0
9,99999,3,90000,32,30000,0,9999,0.100000,0,0,0.000000,4,0.000000,0.000000,1.087594,0,0,0,0,0,0,0
9,99999,4,90000,32,30000,0,9999,0.100000,0,0,0.000000,4,0.000000,0.000000,0.730313,0,0,0,0,0,0,0
9,99999,5,90000,88,30000,0,9999,0.100000,0,0,0.000000,4,0.000000,0.000000,0.074845,0,0,0,0,0,0,0
9,99999,6,90000,25,10000,0,9999,0.100000,0,0,0.000000,4,0.000000,0.000000,0.426515,0,0,0,0,0,0,0
9,99999,7,90000,25,10000,0,9999,0.100000,0,0,0.000000,4,0.000000,0.000000,0.069466,0,0,0,0,0,0,0
9,99999,8,90000,25,10000,0,9999,0.100000,0,0,0.000000,4,0.000000,0.000000,2.680301,0,0,0,0,0,0,0
9,99999,9,90000,88,30000,0,9999,0.100000,0,0,0.000000,4,0.000000,0.000000,1.161464,0,0,0,0,0,0,0
9,99999,10,90000,88,30000,1,9999,0.100000,0,0,0.000000,4,1.000000,0.000000,2.012664,0,0,0,0,0,0,0
9,99999,11,90000,32,30000,0,9999,0.100000,0,0,0.000000,4,0.000000,0.000000,0.407308,0,0,0,0,0,0,0
9,99999,12,90000,25,10000,1,9999,0.100000,0,0,0.000000,4,2.000000,0.000000,4.416710,0,0,0,0,0,0,0
9,99999,13,90000,32,30000,0,9999,0.100000,0,0,0.000000,4,0.000000,0.000000,1.250502,0,0,0,0,0,0,0
9,99999,14,90000,88,30000,0,9999,0.100000,0,0,0.000000,4,0.000000,0.000000,0.103013,0,0,0,0,0,0,0
9,99999,15,90000,91,0,0,9999,0.100000,0,0,0.000000,4,0.000000,0.000000,0.089016,0,0,0,0,0,0,0
9,99999,16,90000,88,30000,0,9999,0.100000,0,0,0.000000,4,0.000000,0.000000,0.140091,0,0,0,0,0,0,0
9,99999,17,90000,88,30000,1,9999,0.100000,0,0,0.000000,4,9.000000,0.000000,23.479088,0,0,0,0,0,0,0
9,99999,18,90000,88,30000,0,9999,0.100000,0,0,0.000000,4,0.000000,0.000000,0.095912,0,0,0,0,0,0,0
9,99999,19,90000,91,0,1,9999,0.100000,0,0,0.000000,4,2.000000,0.000000,5.949484,0,0,0,0,0,0,0
9,99999,20,90000,32,30000,0,9999,0.100000,0,0,0.000000,4,0.000000,0.000000,18.704203,0,0,0,0,0,0,0
9,99999,21,90000,25,10000,0,9999,0.100000,0,0,0.000000,4,0.000000,0.000000,0.138260,0,0,0,0,0,0,0
9,99999,22,90000,91,0,0,9999,0.100000,0,0,0.000000,4,0.000000,0.000000,1.036348,0,0,0,0,0,0,0
9,99999,23,90000,32,30000,0,9999,0.100000,0,0,0.000000,4,0.000000,0.000000,0.484467,0,0,0,0,0,0,0
9,99999,24,90000,91,0,0,9999,0.100000,0,0,0.000000,4,0.000000,0.000000,1.066937,0,0,0,0,0,0,0
9,99999,25,90000,88,30000,1,9999,0.100000,0,0,0.000000,4,7.000000,0.000000,15.763517,0,0,0,0,0,0,0
9,99999,26,90000,25,10000,0,9999,0.100000,0,0,0.000000,4,0.000000,0.000000,0.656794,0,0,0,0,0,0,0
9,99999,27,90000,32,30000,0,9999,0.100000,0,0,0.000000,4,0.000000,0.000000,0.517081,0,0,0,0,0,0,0
9,99999,28,90000,25,10000,0,9999,0.100000,0,0,0.000000,4,0.000000,0.000000,1.972863,0,0,0,0,0,0,0
9,99999,29,90000,88,30000,1,9999,0.100000,0,0,0.000000,4,2.000000,0.000000,23.227061,0,0,0,0,0,0,0
9,99999,30,90000,91,0,1,9999,0.100000,0,0,0.000000,4,1.000000,0.000000,4.497680,0,0,0,0,0,0,0
9,99999,31,90000,88,30000,1,9999,0.100000,0,0,0.000000,4,1.000000,0.000000,1.777684,0,0,0,0,0,0,0
9,99999,32,90000,88,30000,0,9999,0.100000,0,0,0.000000,4,0.000000,0.000000,0.748053,0,0,0,0,0,0,0
9,99999,33,90000,32,30000,0,9999,0.100000,0,0,0.000000,4,0.000000,0.000000,0.137932,0,0,0,0,0,0,0
9,99999,34,90000,91,0,0,9999,0.100000,0,0,0.000000,4,0.000000,0.000000,0.857909,0,0,0,0,0,0,0
9,99999,35,90000,25,10000,0,9999,0.100000,0,0,0.000000,4,0.000000,0.000000,0.175653,0,0,0,0,0,0,0
9,99999,36,90000,91,0,0,9999,0.100000,0,0,0.000000,4,0.000000,0.000000,0.509034,0,0,0,0,0,0,0
9,99999,37,90000,25,10000,0,9999,0.100000,0,0,0.000000,4,0.000000,0.000000,1.341843,0,0,0,0,0,0,0
9,99999,38,90000,25,10000,0,9999,0.100000,0,0,0.000000,4,0.000000,0.000000,0.179598,0,0,0,0,0,0,0
9,99999,39,90000,88,30000,0,9999,0.100000,0,0,0.000000,4,0.000000,0.000000,0.200596,0,0,0,0,0,0,0
9,99999,40,90000,88,30000,1,9999,0.100000,0,0,0.000000,4,5.000000,0.000000,11.475074,0,0,0,0,0,0,0
9,99999,41,90000,25,10000,0,9999,0.100000,0,0,0.000000,4,0.000000,0.000000,1.092847,0,0,0,0,0,0,0
9,99999,42,90000,91,0,0,9999,0.100000,0,0,0.000000,4,0.000000,0.000000,0.195538,0,0,0,0,0,0,0
9,99999,43,90000,91,0,0,9999,0.100000,0,0,0.000000,4,0.000000,0.000000,0.167888,0,0,0,0,0,0,0
9,99999,44,90000,32,30000,0,9999,0.100000,0,0,0.000000,4,0.000000,0.000000,0.212256,0,0,0,0,0,0,0
9,99999,45,90000,25,10000,0,9999,0.100000,0,0,0.000000,4,0.000000,0.000000,0.293580,0,0,0,0,0,0,0
9,99999,46,90000,25,10000,0,9999,0.100000,0,0,0.000000,4,0.000000,0.000000,0.195559,0,0,0,0,0,0,0
9,99999,47,90000,88,30000,0,9999,0.100000,0,0,0.000000,4,0.000000,0.000000,0.929299,0,0,0,0,0,0,0
9,99999,48,90000,25,10000,0,9999,0.100000,0,0,0.000000,4,0.000000,0.000000,1.029385,0,0,0,0,0,0,0
9,99999,49,90000,25,10000,1,9999,0.100000,0,0,0.000000,4,4.000000,0.000000,12.697269,0,0,0,0,0,0,0
9,99999,50,90000,88,30000,0,9999,0.100000,0,0,0.000000,4,0.000000,0.000000,0.203922,0,0,0,0,0,0,0
9,99999,51,90000,32,30000,1,9999,0.100000,0,0,0.000000,4,3.000000,0.000000,7.744490,0,0,0,0,0,0,0
9,99999,52,90000,32,30000,0,9999,0.100000,0,0,0.000000,4,0.000000,0.000000,0.062707,0,0,0,0,0,0,0
9,99999,53,90000,32,30000,0,9999,0.100000,0,0,0.000000,4,0.000000,0.000000,0.066959,0,0,0,0,0,0,0
9,99999,54,90000,88,30000,0,9999,0.100000,0,0,0.000000,4,0.000000,0.000000,1.734414,0,0,0,0,0,0,0
9,99999,55,90000,32,30000,0,9999,0.100000,0,0,0.000000,4,0.000000,0.000000,1.470069,0,0,0,0,0,0,0
9,99999,56,90000,32,30000,0,9999,0.100000,0,0,0.000000,4,0.000000,0.000000,0.065755,0,0,0,0,0,0,0
9,99999,57,90000,88,30000,0,9999,0.100000,0,0,0.000000,4,0.000000,0.000000,0.414642,0,0,0,0,0,0,0
9,99999,58,90000,91,0,0,9999,0.100000,0,0,0.000000,4,0.000000,0.000000,0.119782,0,0,0,0,0,0,0
9,99999,59,90000,91,0,1,9999,0.100000,0,0,0.000000,4,1.000000,0.000000,2.857124,0,0,0,0,0,0,0
9,99999,60,90000,32,30000,1,9999,0.100000,0,0,0.000000,4,1.000000,0.000000,1.793529,0,0,0,0,0,0,0
9,99999,61,90000,32,30000,0,9999,0.100000,0,0,0.000000,4,0.000000,0.000000,0.512542,0,0,0,0,0,0,0
9,99999,62,90000,88,30000,0,9999,0.100000,0,0,0.000000,4,0.000000,0.000000,0.081750,0,0,0,0,0,0,0
9,99999,63,90000,91,0,0,9999,0.100000,0,0,0.000000,4,0.000000,0.000000,0.461272,0,0,0,0,0,0,0
9,99999,64,90000,32,30000,0,9999,0.100000,0,0,0.000000,4,0.000000,0.000000,0.992892,0,0,0,0,0,0,0
9,99999,65,90000,25,10000,0,9999,0.100000,0,0,0.000000,4,0.000000,0.000000,0.740917,0,0,0,0,0,0,0
9,99999,66,90000,25,10000,0,9999,0.100000,0,0,0.000000,4,0.000000,0.000000,0.489781,0,0,0,0,0,0,0
9,99999,67,90000,88,30000,0,9999,0.100000,0,0,0.000000,4,0.000000,0.000000,2.694764,0,0,0,0,0,0,0
9,99999,68,90000,88,30000,0,9999,0.100000,0,0,0.000000,4,0.000000,0.000000,0.772225,0,0,0,0,0,0,0
9,99999,69,90000,32,30000,0,9999,0.100000,0,0,0.000000,4,0.000000,0.000000,0.932196,0,0,0,0,0,0,0
9,99999,70,90000,88,30000,0,9999,0.100000,0,0,0.000000,4,0.000000,0.000000,0.785495,0,0,0,0,0,0,0
9,99999,71,90000,91,0,0,9999,0.100000,0,0,0.000000,4,0.000000,0.000000,0.328178,0,0,0,0,0,0,0
9,99999,72,90000,25,10000,0,9999,0.100000,0,0,0.000000,4,0.000000,0.000000,0.906462,0,0,0,0,0,0,0
9,99999,73,90000,25,10000,1,9999,0.100000,0,0,0.000000,4,2.000000,0.000000,3.762560,0,0,0,0,0,0,0
9,99999,74,90000,25,10000,0,9999,0.100000,0,0,0.000000,4,0.000000,0.000000,0.872553,0,0,0,0,0,0,0
9,99999,75,90000,32,30000,1,9999,0.100000,0,0,0.000000,4,1.000000,0.000000,1.995166,0,0,0,0,0,0,0
9,99999,76,90000,91,0,0,9999,0.100000,0,0,0.000000,4,0.000000,0.000000,1.637895,0,0,0,0,0,0,0
9,99999,77,90000,91,0,0,9999,0.100000,0,0,0.000000,4,0.000000,0.000000,1.098451,0,0,0,0,0,0,0
9,99999,78,90000,25,10000,1,9999,0.100000,0,0,0.000000,4,1.000000,0.000000,3.005583,0,0,0,0,0,0,0
9,99999,79,90000,91,0,0,9999,0.100000,0,0,0.000000,4,0.000000,0.000000,0.073627,0,0,0,0,0,0,0
9,99999,80,90000,88,30000,0,9999,0.100000,0,0,0.000000,4,0.000000,0.000000,0.221602,0,0,0,0,0,0,0
9,99999,81,90000,25,10000,0,9999,0.100000,0,0,0.000000,4,0.000000,0.000000,0.361290,0,0,0,0,0,0,0
9,99999,82,90000,88,30000,0,9999,0.100000,0,0,0.000000,4,0.000000,0.000000,0.984743,0,0,0,0,0,0,0
9,99999,83,90000,88,30000,1,9999,0.100000,0,0,0.000000,4,5.000000,0.000000,14.110609,0,0,0,0,0,0,0
9,99999,84,90000,88,30000,0,9999,0.100000,0,0,0.000000,4,0.000000,0.000000,1.722108,0,0,0,0,0,0,0
9,99999,85,90000,32,30000,0,9999,0.100000,0,0,0.000000,4,0.000000,0.000000,0.129250,0,0,0,0,0,0,0
9,99999,86,90000,32,30000,0,9999,0.100000,0,0,0.000000,4,0.000000,0.000000,0.476122,0,0,0,0,0,0,0
9,99999,87,90000,91,0,0,9999,0.100000,0,0,0.000000,4,0.000000,0.000000,2.568883,0,0,0,0,0,0,0
9,99999,88,90000,91,0,0,9999,0.100000,0,0,0.000000,4,0.000000,0.000000,0.307373,0,0,0,0,0,0,0
9,99999,89,90000,32,30000,0,9999,0.100000,0,0,0.000000,4,0.000000,0.000000,0.234431,0,0,0,0,0,0,0
9,99999,90,90000,88,30000,0,9999,0.100000,0,0,0.000000,4,0.000000,0.000000,0.588561,0,0,0,0,0,0,0
9,99999,91,90000,32,30000,0,9999,0.100000,0,0,0.000000,4,0.000000,0.000000,0.944425,0,0,0,0,0,0,0
9,99999,92,90000,32,30000,0,9999,0.100000,0,0,0.000000,4,0.000000,0.000000,0.083348,0,0,0,0,0,0,0
9,99999,93,90000,88,30000,0,9999,0.100000,0,0,0.000000,4,0.000000,0.000000,0.405115,0,0,0,0,0,0,0
9,99999,94,90000,32,30000,0,9999,0.100000,0,0,0.000000,4,0.000000,0.000000,0.246133,0,0,0,0,0,0,0
9,99999,95,90000,88,30000,0,9999,0.100000,0,0,0.000000,4,0.000000,0.000000,1.607310,0,0,0,0,0,0,0
9,99999,96,90000,25,10000,0,9999,0.100000,0,0,0.000000,4,0.000000,0.000000,0.081960,0,0,0,0,0,0,0
9,99999,97,90000,25,10000,0,9999,0.100000,0,0,0.000000,4,0.000000,0.000000,1.014240,0,0,0,0,0,0,0
9,99999,98,90000,25,10000,0,9999,0.100000,0,0,0.000000,4,0.000000,0.000000,4.392990,0,0,0,0,0,0,0
9,99999,99,90000,88,30000,0,9999,0.100000,0,0,0.000000,4,0.000000,0.000000,0.127265,0,0,0,0,0,0,0
10,109999,0,100000,88,30000,0,9999,0.100000,0,0,0.000000,4,0.000000,0.000000,2.123239,0,0,0,0,0,0,0
10,109999,1,100000,91,0,0,9999,0.100000,0,0,0.000000,4,0.000000,0.000000,1.004721,0,0,0,0,0,0,0
10,109999,2,100000,25,10000,0,9999,0.100000,0,0,0.000000,4,0.000000,0.000000,0.207462,0,0,0,0,0,0,0
10,109999,3,100000,25,10000,1,9999,0.100000,0,0,0.000000,4,1.000000,0.000000,2.735448,0,0,0,0,0,0,0
10,109999,4,100000,88,30000,1,9999,0.100000,0,0,0.000000,4,1.000000,0.000000,2.069861,0,0,0,0,0,0,0
10,109999,5,100000,88,30000,0,9999,0.100000,0,0,0.000000,4,0.000000,0.000000,0.073875,0,0,0,0,0,0,0
10,109999,6,100000,25,10000,0,9999,0.100000,0,0,0.000000,4,0.000000,0.000000,0.928377,0,0,0,0,0,0,0
10,109999,7,100000,32,30000,0,9999,0.100000,0,0,0.000000,4,0.000000,0.000000,0.108880,0,0,0,0,0,0,0
10,109999,8,100000,88,30000,0,9999,0.100000,0,0,0.000000,4,0.000000,0.000000,2.172404,0,0,0,0,0,0,0
10,109999,9,100000,25,10000,0,9999,0.100000,0,0,0.000000,4,0.000000,0.000000,1.146585,0,0,0,0,0,0,0
10,109999,10,100000,91,0,0,9999,0.100000,0,0,0.000000,4,0.000000,0.000000,1.318560,0,0,0,0,0,0,0
10,109999,11,100000,91,0,0,9999,0.100000,0,0,0.000000,4,0.000000,0.000000,0.402392,0,0,0,0,0,0,0
10,109999,12,100000,32,30000,0,9999,0.100000,0,0,0.000000,4,0.000000,0.000000,0.662049,0,0,0,0,0,0,0
10,109999,13,100000,25,10000,0,9999,0.100000,0,0,0.000000,4,0.000000,0.000000,0.316830,0,0,0,0,0,0,0
10,109999,14,100000,91,0,0,9999,0.100000,0,0,0.000000,4,0.000000,0.000000,0.120264,0,0,0,0,0,0,0
10,109999,15,100000,88,30000,0,9999,0.100000,0,0,0.000000,4,0.000000,0.000000,0.088968,0,0,0,0,0,0,0
10,109999,16,100000,32,30000,0,9999,0.100000,0,0,0.000000,4,0.000000,0.000000,0.126036,0,0,0,0,0,0,0
10,109999,17,100000,25,10000,0,9999,0.100000,0,0,0.000000,4,0.000000,0.000000,0.321609,0,0,0,0,0,0,0
10,109999,18,100000,91,0,0,9999,0.100000,0,0,0.000000,4,0.000000,0.000000,0.085727,0,0,0,0,0,0,0
10,109999,19,100000,32,30000,0,9999,0.100000,0,0,0.000000,4,0.000000,0.000000,0.635128,0,0,0,0,0,0,0
10,109999,20,100000,91,0,1,9999,0.100000,0,0,0.000000,4,1.000000,0.000000,6.507570,0,0,0,0,0,0,0
10,109999,21,100000,88,30000,0,9999,0.100000,0,0,0.000000,4,0.000000,0.000000,0.147408,0,0,0,0,0,0,0
10,109999,22,100000,88,30000,0,9999,0.100000,0,0,0.000000,4,0.000000,0.000000,1.806432,0,0,0,0,0,0,0
10,109999,23,100000,91,0,0,9999,0.100000,0,0,0.000000,4,0.000000,0.000000,0.285605,0,0,0,0,0,0,0
10,109999,24,100000,25,10000,0,9999,0.100000,0,0,0.000000,4,0.000000,0.000000,1.052887,0,0,0,0,0,0,0
10,109999,25,100000,91,0,0,9999,0.100000,0,0,0.000000,4,0.000000,0.000000,0.477280,0,0,0,0,0,0,0
10,109999,26,100000,91,0,0,9999,0.100000,0,0,0.000000,4,0.000000,0.000000,0.644258,0,0,0,0,0,0,0
10,109999,27,100000,32,30000,0,9999,0.100000,0,0,0.000000,4,0.000000,0.000000,0.875335,0,0,0,0,0,0,0
10,109999,28,100000,25,10000,0,9999,0.100000,0,0,0.000000,4,0.000000,0.000000,2.055537,0,0,0,0,0,0,0
10,109999,29,100000,32,30000,0,9999,0.100000,0,0,0.000000,4,0.000000,0.000000,21.121625,0,0,0,0,0,0,0
10,109999,30,100000,91,0,0,9999,0.100000,0,0,0.000000,4,0.000000,0.000000,0.744116,0,0,0,0,0,0,0
10,109999,31,100000,25,10000,0,9999,0.100000,0,0,0.000000,4,0.000000,0.000000,0.766126,0,0,0,0,0,0,0
10,109999,32,100000,32,30000,3,9999,0.100000,0,0,56.448351,4,7.000000,0.000000,13.265530,0,0,1,0,0,0,0
10,109999,33,100000,25,10000,0,9999,0.100000,0,0,0.000000,4,0.000000,0.000000,0.141295,0,0,0,0,0,0,0
10,109999,34,100000,91,0,0,9999,0.100000,0,0,0.000000,4,0.000000,0.000000,0.745696,0,0,0,0,0,0,0
10,109999,35,100000,91,0,0,9999,0.100000,0,0,0.000000,4,0.000000,0.000000,0.180542,0,0,0,0,0,0,0
10,109999,36,100000,91,0,0,9999,0.100000,0,0,0.000000,4,0.000000,0.000000,0.353604,0,0,0,0,0,0,0
10,109999,37,100000,25,10000,0,9999,0.100000,0,0,0.000000,4,0.000000,0.000000,5.067235,0,0,0,0,0,0,0
10,109999,38,100000,32,30000,1,9999,0.100000,0,0,0.000000,4,1.000000,0.000000,1.200006,0,0,0,0,0,0,0
10,109999,39,100000,32,30000,0,9999,0.100000,0,0,0.000000,4,0.000000,0.000000,0.208095,0,0,0,0,0,0,0
10,109999,40,100000,32,30000,0,9999,0.100000,0,0,0.000000,4,0.000000,0.000000,0.125320,0,0,0,0,0,0,0
10,109999,41,100000,91,0,0,9999,0.100000,0,0,0.000000,4,0.000000,0.000000,10.898638,0,0,0,0,0,0,0
10,109999,42,100000,88,30000,0,9999,0.100000,0,0,0.000000,4,0.000000,0.000000,0.180245,0,0,0,0,0,0,0
10,109999,43,100000,32,30000,0,9999,0.100000,0,0,0.000000,4,0.000000,0.000000,0.154447,0,0,0,0,0,0,0
10,109999,44,100000,88,30000,0,9999,0.100000,0,0,0.000000,4,0.000000,0.000000,0.208595,0,0,0,0,0,0,0
10,109999,45,100000,88,30000,0,9999,0.100000,0,0,0.000000,4,0.000000,0.000000,0.818305,0,0,0,0,0,0,0
10,109999,46,100000,32,30000,0,9999,0.100000,0,0,0.000000,4,0.000000,0.000000,0.198233,0,0,0,0,0,0,0
10,109999,47,100000,25,10000,0,9999,0.100000,0,0,0.000000,4,0.000000,0.000000,0.920328,0,0,0,0,0,0,0
10,109999,48,100000,91,0,0,9999,0.100000,0,0,0.000000,4,0.000000,0.000000,1.353550,0,0,0,0,0,0,0
10,109999,49,100000,88,30000,1,9999,0.100000,0,0,0.000000,4,1.000000,0.000000,7.382446,0,0,0,0,0,0,0
10,109999,50,100000,91,0,1,9999,0.100000,0,0,0.000000,4,1.000000,0.000000,1.194868,0,0,0,0,0,0,0
10,109999,51,100000,32,30000,1,9999,0.100000,0,0,0.000000,4,1.000000,0.000000,6.804941,0,0,0,0,0,0,0
10,109999,52,100000,32,30000,0,9999,0.100000,0,0,0.000000,4,0.000000,0.000000,0.063594,0,0,0,0,0,0,0
10,109999,53,100000,32,30000,0,9999,0.100000,0,0,0.000000,4,0.000000,0.000000,0.081738,0,0,0,0,0,0,0
10,109999,54,100000,32,30000,0,9999,0.100000,0,0,0.000000,4,0.000000,0.000000,2.292272,0,0,0,0,0,0,0
10,109999,55,100000,32,30000,1,9999,0.100000,0,0,0.000000,4,1.000000,0.000000,2.845446,0,0,0,0,0,0,0
10,109999,56,100000,32,30000,0,9999,0.100000,0,0,0.000000,4,0.000000,0.000000,0.065461,0,0,0,0,0,0,0
10,109999,57,100000,25,10000,0,9999,0.100000,0,0,0.000000,4,0.000000,0.000000,0.339395,0,0,0,0,0,0,0
10,109999,58,100000,91,0,0,9999,0.100000,0,0,0.000000,4,0.000000,0.000000,0.125994,0,0,0,0,0,0,0
10,109999,59,100000,32,30000,0,9999,0.100000,0,0,0.000000,4,0.000000,0.000000,2.853953,0,0,0,0,0,0,0
10,109999,60,100000,91,0,0,9999,0.100000,0,0,0.000000,4,0.000000,0.000000,0.978850,0,0,0,0,0,0,0
10,109999,61,100000,88,30000,0,9999,0.100000,0,0,0.000000,4,0.000000,0.000000,0.506776,0,0,0,0,0,0,0
10,109999,62,100000,88,30000,0,9999,0.100000,0,0,0.000000,4,0.000000,0.000000,0.079009,0,0,0,0,0,0,0
10,109999,63,100000,25,10000,0,9999,0.100000,0,0,0.000000,4,0.000000,0.000000,0.867449,0,0,0,0,0,0,0
10,109999,64,100000,25,10000,0,9999,0.100000,0,0,0.000000,4,0.000000,0.000000,1.281483,0,0,0,0,0,0,0
10,109999,65,100000,91,0,0,9999,0.100000,0,0,0.000000,4,0.000000,0.000000,0.531212,0,0,0,0,0,0,0
10,109999,66,100000,32,30000,0,9999,0.100000,0,0,0.000000,4,0.000000,0.000000,1.251149,0,0,0,0,0,0,0
10,109999,67,100000,32,30000,0,9999,0.100000,0,0,0.000000,4,0.000000,0.000000,0.601392,0,0,0,0,0,0,0
10,109999,68,100000,32,30000,0,9999,0.100000,0,0,0.000000,4,0.000000,0.000000,1.135839,0,0,0,0,0,0,0
10,109999,69,100000,91,0,0,9999,0.100000,0,0,0.000000,4,0.000000,0.000000,1.512253,0,0,0,0,0,0,0
10,109999,70,100000,25,10000,0,9999,0.100000,0,0,0.000000,4,0.000000,0.000000,2.428250,0,0,0,0,0,0,0
10,109999,71,100000,25,10000,0,9999,0.100000,0,0,0.000000,4,0.000000,0.000000,0.335148,0,0,0,0,0,0,0
10,109999,72,100000,25,10000,0,9999,0.100000,0,0,0.000000,4,0.000000,0.000000,0.831642,0,0,0,0,0,0,0
10,109999,73,100000,88,30000,1,9999,0.100000,0,0,0.000000,4,1.000000,0.000000,7.534500,0,0,0,0,0,0,0
10,109999,74,100000,32,30000,1,9999,0.100000,0,0,0.000000,4,13.000000,0.000000,15.778597,0,0,0,0,0,0,0
10,109999,75,100000,91,0,0,9999,0.100000,0,0,0.000000,4,0.000000,0.000000,0.974192,0,0,0,0,0,0,0
10,109999,76,100000,25,10000,0,9999,0.100000,0,0,0.000000,4,0.000000,0.000000,0.902031,0,0,0,0,0,0,0
10,109999,77,100000,32,30000,0,9999,0.100000,0,0,0.000000,4,0.000000,0.000000,1.039830,0,0,0,0,0,0,0
10,109999,78,100000,88,30000,1,9999,0.100000,0,0,0.000000,4,3.000000,0.000000,5.857567,0,0,0,0,0,0,0
10,109999,79,100000,25,10000,0,9999,0.100000,0,0,0.000000,4,0.000000,0.000000,0.584567,0,0,0,0,0,0,0
10,109999,80,100000,91,0,0,9999,0.100000,0,0,0.000000,4,0.000000,0.000000,0.246958,0,0,0,0,0,0,0
10,109999,81,100000,25,10000,0,9999,0.100000,0,0,0.000000,4,0.000000,0.000000,0.368410,0,0,0,0,0,0,0
10,109999,82,100000,88,30000,1,9999,0.100000,0,0,0.000000,4,1.000000,0.000000,2.140101,0,0,0,0,0,0,0
10,109999,83,100000,91,0,1,9999,0.100000,0,0,0.000000,4,1.000000,0.000000,4.206549,0,0,0,0,0,0,0
10,109999,84,100000,32,30000,0,9999,0.100000,0,0,0.000000,4,0.000000,0.000000,1.811316,0,0,0,0,0,0,0
10,109999,85,100000,91,0,1,9999,0.100000,0,0,0.000000,4,9.000000,0.000000,19.798250,0,0,0,0,0,0,0
10,109999,86,100000,91,0,1,9999,0.100000,0,0,0.000000,4,1.000000,0.000000,1.971312,0,0,0,0,0,0,0
10,109999,87,100000,88,30000,0,9999,0.100000,0,0,0.000000,4,0.000000,0.000000,1.952472,0,0,0,0,0,0,0
10,109999,88,100000,25,10000,0,9999,0.100000,0,0,0.000000,4,0.000000,0.000000,1.763233,0,0,0,0,0,0,0
10,109999,89,100000,25,10000,0,9999,0.100000,0,0,0.000000,4,0.000000,0.000000,0.466851,0,0,0,0,0,0,0
10,109999,90,100000,88,30000,0,9999,0.100000,0,0,0.000000,4,0.000000,0.000000,0.580543,0,0,0,0,0,0,0
10,109999,91,100000,91,0,0,9999,0.100000,0,0,0.000000,4,0.000000,0.000000,1.041903,0,0,0,0,0,0,0
10,109999,92,100000,32,30000,0,9999,0.100000,0,0,0.000000,4,0.000000,0.000000,0.098403,0,0,0,0,0,0,0
10,109999,93,100000,88,30000,0,9999,0.100000,0,0,0.000000,4,0.000000,0.000000,0.393788,0,0,0,0,0,0,0
10,109999,94,100000,88,30000,0,9999,0.100000,0,0,0.000000,4,0.000000,0.000000,0.254966,0,0,0,0,0,0,0
10,109999,95,100000,25,10000,0,9999,0.100000,0,0,0.000000,4,0.000000,0.000000,4.071859,0,0,0,0,0,0,0
10,109999,96,100000,32,30000,0,9999,0.100000,0,0,0.000000,4,0.000000,0.000000,0.080334,0,0,0,0,0,0,0
10,109999,97,100000,25,10000,0,9999,0.100000,0,0,0.000000,4,0.000000,0.000000,1.558946,0,0,0,0,0,0,0
10,109999,98,100000,32,30000,1,9999,0.100000,0,0,0.000000,4,5.000000,0.000000,12.195873,0,0,0,0,0,0,0
10,109999,99,100000,32,30000,0,9999,0.100000,0,0,0.000000,4,0.000000,0.000000,1.356826,0,0,0,0,0,0,0
11,119999,0,110000,25,10000,0,9999,0.100000,0,0,0.000000,4,0.000000,0.000000,1.944708,0,0,0,0,0,0,0
11,119999,1,110000,32,30000,0,9999,0.100000,0,0,0.000000,4,0.000000,0.000000,1.018365,0,0,0,0,0,0,0
11,119999,2,110000,91,0,0,9999,0.100000,0,0,0.000000,4,0.000000,0.000000,0.198764,0,0,0,0,0,0,0
11,119999,3,110000,25,10000,0,9999,0.100000,0,0,0.000000,4,0.000000,0.000000,0.900070,0,0,0,0,0,0,0
11,119999,4,110000,32,30000,1,9999,0.100000,0,0,0.000000,4,2.000000,0.000000,2.801579,0,0,0,0,0,0,0
11,119999,5,110000,88,30000,0,9999,0.100000,0,0,0.000000,4,0.000000,0.000000,0.077376,0,0,0,0,0,0,0
11,119999,6,110000,32,30000,0,9999,0.100000,0,0,0.000000,4,0.000000,0.000000,1.427625,0,0,0,0,0,0,0
11,119999,7,110000,91,0,0,9999,0.100000,0,0,0.000000,4,0.000000,0.000000,0.091286,0,0,0,0,0,0,0
11,119999,8,110000,32,30000,1,9999,0.100000,0,0,0.000000,4,2.000000,0.000000,11.289909,0,0,0,0,0,0,0
11,119999,9,110000,88,100000,0,9999,0.100000,0,0,0.000000,4,0.000000,0.000000,10.300524,0,0,0,0,0,0,0
11,119999,10,110000,88,100000,0,9999,0.100000,0,0,0.000000,4,0.000000,0.000000,0.994554,0,0,0,0,0,0,0
11,119999,11,110000,32,30000,0,9999,0.100000,0,0,0.000000,4,0.000000,0.000000,0.426916,0,0,0,0,0,0,0
11,119999,12,110000,88,100000,0,9999,0.100000,0,0,0.000000,4,0.000000,0.000000,0.604966,0,0,0,0,0,0,0
11,119999,13,110000,25,10000,0,9999,0.100000,0,0,0.000000,4,0.000000,0.000000,0.485559,0,0,0,0,0,0,0
11,119999,14,110000,25,10000,0,9999,0.100000,0,0,0.000000,4,0.000000,0.000000,0.129841,0,0,0,0,0,0,0
11,119999,15,110000,91,0,0,9999,0.100000,0,0,0.000000,4,0.000000,0.000000,0.091361,0,0,0,0,0,0,0
11,119999,16,110000,32,30000,0,9999,0.100000,0,0,0.000000,4,0.000000,0.000000,0.526401,0,0,0,0,0,0,0
11,119999,17,110000,88,30000,0,9999,0.100000,0,0,0.000000,4,0.000000,0.000000,0.189616,0,0,0,0,0,0,0
11,119999,18,110000,88,100000,0,9999,0.100000,0,0,0.000000,4,0.000000,0.000000,0.085309,0,0,0,0,0,0,0
11,119999,19,110000,88,100000,0,9999,0.100000,0,0,0.000000,4,0.000000,0.000000,0.612474,0,0,0,0,0,0,0
11,119999,20,110000,88,30000,0,9999,0.100000,0,0,0.000000,4,0.000000,0.000000,3.144463,0,0,0,0,0,0,0
11,119999,21,110000,91,0,0,9999,0.100000,0,0,0.000000,4,0.000000,0.000000,0.154746,0,0,0,0,0,0,0
11,119999,22,110000,88,100000,0,9999,0.100000,0,0,0.000000,4,0.000000,0.000000,11.156201,0,0,0,0,0,0,0
11,119999,23,110000,88,30000,0,9999,0.100000,0,0,0.000000,4,0.000000,0.000000,1.729615,0,0,0,0,0,0,0
11,119999,24,110000,25,10000,0,9999,0.100000,0,0,0.000000,4,0.000000,0.000000,4.237012,0,0,0,0,0,0,0
11,119999,25,110000,88,100000,1,9999,0.100000,0,0,0.000000,4,7.000000,0.000000,15.493458,0,0,0,0,0,0,0
11,119999,26,110000,32,30000,0,9999,0.100000,0,0,0.000000,4,0.000000,0.000000,0.615445,0,0,0,0,0,0,0
11,119999,27,110000,25,10000,0,9999,0.100000,0,0,0.000000,4,0.000000,0.000000,0.101484,0,0,0,0,0,0,0
11,119999,28,110000,91,0,0,9999,0.100000,0,0,0.000000,4,0.000000,0.000000,0.785962,0,0,0,0,0,0,0
11,119999,29,110000,91,0,0,9999,0.100000,0,0,0.000000,4,0.000000,0.000000,24.061713,0,0,0,0,0,0,0
11,119999,30,110000,91,0,0,9999,0.100000,0,0,0.000000,4,0.000000,0.000000,0.753894,0,0,0,0,0,0,0
11,119999,31,110000,91,0,0,9999,0.100000,0,0,0.000000,4,0.000000,0.000000,0.835368,0,0,0,0,0,0,0
11,119999,32,110000,88,100000,1,9999,0.100000,0,0,0.000000,4,3.000000,0.000000,10.175221,0,0,0,0,0,0,0
11,119999,33,110000,25,10000,0,9999,0.100000,0,0,0.000000,4,0.000000,0.000000,0.138706,0,0,0,0,0,0,0
11,119999,34,110000,25,10000,0,9999,0.100000,0,0,0.000000,4,0.000000,0.000000,0.258264,0,0,0,0,0,0,0
11,119999,35,110000,91,0,0,9999,0.100000,0,0,0.000000,4,0.000000,0.000000,0.184166,0,0,0,0,0,0,0
11,119999,36,110000,91,0,0,9999,0.100000,0,0,0.000000,4,0.000000,0.000000,0.245698,0,0,0,0,0,0,0
11,119999,37,110000,88,100000,0,9999,0.100000,0,0,0.000000,4,0.000000,0.000000,2.127183,0,0,0,0,0,0,0
11,119999,38,110000,88,30000,0,9999,0.100000,0,0,0.000000,4,0.000000,0.000000,0.283294,0,0,0,0,0,0,0
11,119999,39,110000,88,100000,0,9999,0.100000,0,0,0.000000,4,0.000000,0.000000,0.237860,0,0,0,0,0,0,0
11,119999,40,110000,25,10000,0,9999,0.100000,0,0,0.000000,4,0.000000,0.000000,0.313259,0,0,0,0,0,0,0
11,119999,41,110000,88,30000,0,9999,0.100000,0,0,0.000000,4,0.000000,0.000000,0.764810,0,0,0,0,0,0,0
11,119999,42,110000,88,100000,0,9999,0.100000,0,0,0.000000,4,0.000000,0.000000,0.323780,0,0,0,0,0,0,0
11,119999,43,110000,32,30000,0,9999,0.100000,0,0,0.000000,4,0.000000,0.000000,0.242216,0,0,0,0,0,0,0
11,119999,44,110000,88,100000,0,9999,0.100000,0,0,0.000000,4,0.000000,0.000000,0.230267,0,0,0,0,0,0,0
11,119999,45,110000,88,100000,0,9999,0.100000,0,0,0.000000,4,0.000000,0.000000,1.365311,0,0,0,0,0,0,0
11,119999,46,110000,32,30000,0,9999,0.100000,0,0,0.000000,4,0.000000,0.000000,0.194520,0,0,0,0,0,0,0
11,119999,47,110000,91,0,0,9999,0.100000,0,0,0.000000,4,0.000000,0.000000,0.915318,0,0,0,0,0,0,0
11,119999,48,110000,88,30000,0,9999,0.100000,0,0,0.000000,4,0.000000,0.000000,2.445669,0,0,0,0,0,0,0
11,119999,49,110000,32,30000,0,9999,0.100000,0,0,0.000000,4,0.000000,0.000000,1.635692,0,0,0,0,0,0,0
11,119999,50,110000,32,30000,0,9999,0.100000,0,0,0.000000,4,0.000000,0.000000,0.290727,0,0,0,0,0,0,0
11,119999,51,110000,88,100000,1,9999,0.100000,0,0,0.000000,4,4.000000,0.000000,7.575477,0,0,0,0,0,0,0
11,119999,52,110000,88,100000,0,9999,0.100000,0,0,0.000000,4,0.000000,0.000000,0.063262,0,0,0,0,0,0,0
11,119999,53,110000,25,10000,0,9999,0.100000,0,0,0.000000,4,0.000000,0.000000,0.081404,0,0,0,0,0,0,0
11,119999,54,110000,25,10000,0,9999,0.100000,0,0,0.000000,4,0.000000,0.000000,3.413997,0,0,0,0,0,0,0
11,119999,55,110000,88,100000,0,9999,0.100000,0,0,0.000000,4,0.000000,0.000000,0.480320,0,0,0,0,0,0,0
11,119999,56,110000,88,100000,0,9999,0.100000,0,0,0.000000,4,0.000000,0.000000,0.103853,0,0,0,0,0,0,0
11,119999,57,110000,32,30000,0,9999,0.100000,0,0,0.000000,4,0.000000,0.000000,0.353765,0,0,0,0,0,0,0
11,119999,58,110000,32,30000,0,9999,0.100000,0,0,0.000000,4,0.000000,0.000000,0.129763,0,0,0,0,0,0,0
11,119999,59,110000,25,10000,0,9999,0.100000,0,0,0.000000,4,0.000000,0.000000,0.829409,0,0,0,0,0,0,0
11,119999,60,110000,25,10000,1,9999,0.100000,0,0,0.000000,4,7.000000,0.000000,15.920644,0,0,0,0,0,0,0
11,119999,61,110000,88,30000,0,9999,0.100000,0,0,0.000000,4,0.000000,0.000000,0.471133,0,0,0,0,0,0,0
11,119999,62,110000,88,100000,0,9999,0.100000,0,0,0.000000,4,0.000000,0.000000,0.072343,0,0,0,0,0,0,0
11,119999,63,110000,91,0,0,9999,0.100000,0,0,0.000000,4,0.000000,0.000000,0.646390,0,0,0,0,0,0,0
11,119999,64,110000,88,100000,0,9999,0.100000,0,0,0.000000,4,0.000000,0.000000,0.814549,0,0,0,0,0,0,0
11,119999,65,110000,32,30000,0,9999,0.100000,0,0,0.000000,4,0.000000,0.000000,0.310878,0,0,0,0,0,0,0
11,119999,66,110000,25,10000,0,9999,0.100000,0,0,0.000000,4,0.000000,0.000000,12.760208,0,0,0,0,0,0,0
11,119999,67,110000,88,30000,0,9999,0.100000,0,0,0.000000,4,0.000000,0.000000,0.456494,0,0,0,0,0,0,0
11,119999,68,110000,25,10000,0,9999,0.100000,0,0,0.000000,4,0.000000,0.000000,0.420038,0,0,0,0,0,0,0
11,119999,69,110000,32,30000,0,9999,0.100000,0,0,0.000000,4,0.000000,0.000000,0.988590,0,0,0,0,0,0,0
11,119999,70,110000,88,100000,0,9999,0.100000,0,0,0.000000,4,0.000000,0.000000,1.700773,0,0,0,0,0,0,0
11,119999,71,110000,32,30000,0,9999,0.100000,0,0,0.000000,4,0.000000,0.000000,0.338925,0,0,0,0,0,0,0
11,119999,72,110000,32,30000,0,9999,0.100000,0,0,0.000000,4,0.000000,0.000000,0.578876,0,0,0,0,0,0,0
11,119999,73,110000,32,30000,0,9999,0.100000,0,0,0.000000,4,0.000000,0.000000,9.108416,0,0,0,0,0,0,0
11,119999,74,110000,25,10000,0,9999,0.100000,0,0,0.000000,4,0.000000,0.000000,0.907024,0,0,0,0,0,0,0
11,119999,75,110000,32,30000,0,9999,0.100000,0,0,0.000000,4,0.000000,0.000000,1.032709,0,0,0,0,0,0,0
11,119999,76,110000,91,0,0,9999,0.100000,0,0,0.000000,4,0.000000,0.000000,0.888025,0,0,0,0,0,0,0
11,119999,77,110000,88,100000,0,9999,0.100000,0,0,0.000000,4,0.000000,0.000000,1.164218,0,0,0,0,0,0,0
11,119999,78,110000,25,10000,0,9999,0.100000,0,0,0.000000,4,0.000000,0.000000,0.131103,0,0,0,0,0,0,0
11,119999,79,110000,88,100000,0,9999,0.100000,0,0,0.000000,4,0.000000,0.000000,0.702441,0,0,0,0,0,0,0
11,119999,80,110000,25,10000,1,9999,0.100000,0,0,0.000000,4,1.000000,0.000000,3.943492,0,0,0,0,0,0,0
11,119999,81,110000,88,100000,0,9999,0.100000,0,0,0.000000,4,0.000000,0.000000,0.361656,0,0,0,0,0,0,0
11,119999,82,110000,32,30000,1,9999,0.100000,0,0,0.000000,4,2.000000,0.000000,2.924857,0,0,0,0,0,0,0
11,119999,83,110000,25,10000,0,9999,0.100000,0,0,0.000000,4,0.000000,0.000000,2.285055,0,0,0,0,0,0,0
11,119999,84,110000,32,30000,0,9999,0.100000,0,0,0.000000,4,0.000000,0.000000,1.488970,0,0,0,0,0,0,0
11,119999,85,110000,32,30000,0,9999,0.100000,0,0,0.000000,4,0.000000,0.000000,0.135627,0,0,0,0,0,0,0
11,119999,86,110000,32,30000,1,9999,0.100000,0,0,0.000000,4,2.000000,0.000000,2.785271,0,0,0,0,0,0,0
11,119999,87,110000,88,30000,0,9999,0.100000,0,0,0.000000,4,0.000000,0.000000,1.839902,0,0,0,0,0,0,0
11,119999,88,110000,88,100000,0,9999,0.100000,0,0,0.000000,4,0.000000,0.000000,5.302239,0,0,0,0,0,0,0
11,119999,89,110000,32,30000,1,9999,0.100000,0,0,0.000000,4,1.000000,0.000000,5.340202,0,0,0,0,0,0,0
11,119999,90,110000,91,0,0,9999,0.100000,0,0,0.000000,4,0.000000,0.000000,0.455917,0,0,0,0,0,0,0
11,119999,91,110000,25,10000,0,9999,0.100000,0,0,0.000000,4,0.000000,0.000000,1.005089,0,0,0,0,0,0,0
11,119999,92,110000,91,0,0,9999,0.100000,0,0,0.000000,4,0.000000,0.000000,0.569825,0,0,0,0,0,0,0
11,119999,93,110000,88,100000,0,9999,0.100000,0,0,0.000000,4,0.000000,0.000000,0.446860,0,0,0,0,0,0,0
11,119999,94,110000,91,0,0,9999,0.100000,0,0,0.000000,4,0.000000,0.000000,0.300559,0,0,0,0,0,0,0
11,119999,95,110000,32,30000,0,9999,0.100000,0,0,0.000000,4,0.000000,0.000000,0.128229,0,0,0,0,0,0,0
11,119999,96,110000,88,100000,0,9999,0.100000,0,0,0.000000,4,0.000000,0.000000,0.080728,0,0,0,0,0,0,0
11,119999,97,110000,32,30000,0,9999,0.100000,0,0,0.000000,4,0.000000,0.000000,1.212193,0,0,0,0,0,0,0
11,119999,98,110000,25,10000,0,9999,0.100000,0,0,0.000000,4,0.000000,0.000000,1.770247,0,0,0,0,0,0,0
11,119999,99,110000,32,30000,0,9999,0.100000,0,0,0.000000,4,0.000000,0.000000,1.326953,0,0,0,0,0,0,0
12,129999,0,120000,25,10000,0,9999,0.100000,0,0,0.000000,4,0.000000,0.000000,1.674568,0,0,0,0,0,0,0
12,129999,1,120000,25,10000,0,9999,0.100000,0,0,0.000000,4,0.000000,0.000000,0.956257,0,0,0,0,0,0,0
12,129999,2,120000,32,30000,0,9999,0.100000,0,0,0.000000,4,0.000000,0.000000,0.191173,0,0,0,0,0,0,0
12,129999,3,120000,25,10000,0,9999,0.100000,0,0,0.000000,4,0.000000,0.000000,0.205047,0,0,0,0,0,0,0
12,129999,4,120000,32,30000,0,9999,0.100000,0,0,0.000000,4,0.000000,0.000000,0.799064,0,0,0,0,0,0,0
12,129999,5,120000,91,0,0,9999,0.100000,0,0,0.000000,4,0.000000,0.000000,0.072005,0,0,0,0,0,0,0
12,129999,6,120000,88,100000,0,9999,0.100000,0,0,0.000000,4,0.000000,0.000000,0.224363,0,0,0,0,0,0,0
12,129999,7,120000,91,0,0,9999,0.100000,0,0,0.000000,4,0.000000,0.000000,0.083671,0,0,0,0,0,0,0
12,129999,8,120000,91,0,0,9999,0.100000,0,0,0.000000,4,0.000000,0.000000,0.188651,0,0,0,0,0,0,0
12,129999,9,120000,91,0,0,9999,0.100000,0,0,0.000000,4,0.000000,0.000000,0.714742,0,0,0,0,0,0,0
12,129999,10,120000,91,0,0,9999,0.100000,0,0,0.000000,4,0.000000,0.000000,0.783026,0,0,0,0,0,0,0
12,129999,11,120000,88,100000,0,9999,0.100000,0,0,0.000000,4,0.000000,0.000000,0.438843,0,0,0,0,0,0,0
12,129999,12,120000,25,10000,0,9999,0.100000,0,0,0.000000,4,0.000000,0.000000,0.238576,0,0,0,0,0,0,0
12,129999,13,120000,88,100000,0,9999,0.100000,0,0,0.000000,4,0.000000,0.000000,0.318861,0,0,0,0,0,0,0
12,129999,14,120000,91,0,0,9999,0.100000,0,0,0.000000,4,0.000000,0.000000,0.136083,0,0,0,0,0,0,0
12,129999,15,120000,25,10000,0,9999,0.100000,0,0,0.000000,4,0.000000,0.000000,0.106268,0,0,0,0,0,0,0
12,129999,16,120000,32,30000,0,9999,0.100000,0,0,0.000000,4,0.000000,0.000000,0.922093,0,0,0,0,0,0,0
12,129999,17,120000,91,0,0,9999,0.100000,0,0,0.000000,4,0.000000,0.000000,0.185690,0,0,0,0,0,0,0
12,129999,18,120000,32,30000,0,9999,0.100000,0,0,0.000000,4,0.000000,0.000000,0.087712,0,0,0,0,0,0,0
12,129999,19,120000,88,100000,1,9999,0.100000,0,0,0.000000,4,1.000000,0.000000,15.707261,0,0,0,0,0,0,0
12,129999,20,120000,88,100000,0,9999,0.100000,0,0,0.000000,4,0.000000,0.000000,1.133140,0,0,0,0,0,0,0
12,129999,21,120000,88,100000,0,9999,0.100000,0,0,0.000000,4,0.000000,0.000000,0.160731,0,0,0,0,0,0,0
12,129999,22,120000,91,0,0,9999,0.100000,0,0,0.000000,4,0.000000,0.000000,0.409165,0,0,0,0,0,0,0
12,129999,23,120000,25,10000,0,9999,0.100000,0,0,0.000000,4,0.000000,0.000000,4.244943,0,0,0,0,0,0,0
12,129999,24,120000,32,30000,1,9999,0.100000,0,0,0.000000,4,1.000000,0.000000,21.936981,0,0,0,0,0,0,0
12,129999,25,120000,25,10000,0,9999,0.100000,0,0,0.000000,4,0.000000,0.000000,0.451613,0,0,0,0,0,0,0
12,129999,26,120000,25,10000,0,9999,0.100000,0,0,0.000000,4,0.000000,0.000000,0.526060,0,0,0,0,0,0,0
12,129999,27,120000,25,10000,0,9999,0.100000,0,0,0.000000,4,0.000000,0.000000,0.104180,0,0,0,0,0,0,0
12,129999,28,120000,88,100000,0,9999,0.100000,0,0,0.000000,4,0.000000,0.000000,0.137342,0,0,0,0,0,0,0
12,129999,29,120000,88,100000,0,9999,0.100000,0,0,0.000000,4,0.000000,0.000000,24.326491,0,0,0,0,0,0,0
12,129999,30,120000,91,0,0,9999,0.100000,0,0,0.000000,4,0.000000,0.000000,0.809145,0,0,0,0,0,0,0
12,129999,31,120000,91,0,0,9999,0.100000,0,0,0.000000,4,0.000000,0.000000,0.440514,0,0,0,0,0,0,0
12,129999,32,120000,88,100000,0,9999,0.100000,0,0,0.000000,4,0.000000,0.000000,17.111276,0,0,0,0,0,0,0
12,129999,33,120000,25,10000,0,9999,0.100000,0,0,0.000000,4,0.000000,0.000000,0.141427,0,0,0,0,0,0,0
12,129999,34,120000,91,0,0,9999,0.100000,0,0,0.000000,4,0.000000,0.000000,0.279077,0,0,0,0,0,0,0
12,129999,35,120000,91,0,0,9999,0.100000,0,0,0.000000,4,0.000000,0.000000,0.183900,0,0,0,0,0,0,0
12,129999,36,120000,88,100000,0,9999,0.100000,0,0,0.000000,4,0.000000,0.000000,0.240662,0,0,0,0,0,0,0
12,129999,37,120000,88,100000,0,9999,0.100000,0,0,0.000000,4,0.000000,0.000000,2.869913,0,0,0,0,0,0,0
12,129999,38,120000,91,0,0,9999,0.100000,0,0,0.000000,4,0.000000,0.000000,0.870920,0,0,0,0,0,0,0
