generation,iteration,robot,birthday,ancestor_id,ancestor_birthday,cell_id,age,sigma,maps,genomes,fitness,cells_in_map,dist_max,dist_pot_max,dist_total,com_rx,com_tx,obj_group1,obj_group2,obj_group3,obj_group4,obj_group5
0,9999,0,0,0,0,49,9999,0.100000,0,0,0.000000,0,8.000000,0.000000,15.494199,0,0,0,0,0,0,0
0,9999,1,0,1,0,49,9999,0.100000,0,0,0.000000,0,9.000000,0.000000,11.272754,0,0,0,0,0,0,0
0,9999,2,0,2,0,49,9999,0.100000,0,0,0.000000,0,9.000000,0.000000,10.240084,0,0,0,0,0,0,0
0,9999,3,0,3,0,49,9999,0.100000,0,0,0.000000,0,7.000000,0.000000,18.959212,0,0,0,0,0,0,0
0,9999,4,0,4,0,49,9999,0.100000,0,0,0.000000,0,9.000000,0.000000,19.991568,0,0,0,0,0,0,0
0,9999,5,0,5,0,49,9999,0.100000,0,0,0.000000,0,8.000000,0.000000,12.783772,0,0,0,0,0,0,0
0,9999,6,0,6,0,49,9999,0.100000,0,0,0.000000,0,9.000000,0.000000,19.739614,0,0,0,0,0,0,0
0,9999,7,0,7,0,49,9999,0.100000,0,0,0.000000,0,5.000000,0.000000,12.200842,0,0,0,0,0,0,0
0,9999,8,0,8,0,49,9999,0.100000,0,0,0.000000,0,7.000000,0.000000,17.426881,0,0,0,0,0,0,0
0,9999,9,0,9,0,49,9999,0.100000,0,0,0.000000,0,1.000000,0.000000,14.378413,0,0,0,0,0,0,0
0,9999,10,0,10,0,49,9999,0.100000,0,0,0.000000,0,10.000000,0.000000,16.499522,0,0,0,0,0,0,0
0,9999,11,0,11,0,49,9999,0.100000,0,0,0.000000,0,2.000000,0.000000,3.776065,0,0,0,0,0,0,0
0,9999,12,0,12,0,49,9999,0.100000,0,0,0.000000,0,9.000000,0.000000,24.324382,0,0,0,0,0,0,0
0,9999,13,0,13,0,49,9999,0.100000,0,0,0.000000,0,11.000000,0.000000,29.673602,0,0,0,0,0,0,0
0,9999,14,0,14,0,49,9999,0.100000,0,0,0.000000,0,11.000000,0.000000,15.921323,0,0,0,0,0,0,0
0,9999,15,0,15,0,49,9999,0.100000,0,0,0.000000,0,1.000000,0.000000,10.716885,0,0,0,0,0,0,0
0,9999,16,0,16,0,49,9999,0.100000,0,0,0.000000,0,8.000000,0.000000,13.046731,0,0,0,0,0,0,0
0,9999,17,0,17,0,49,9999,0.100000,0,0,0.000000,0,10.000000,0.000000,31.957514,0,0,0,0,0,0,0
0,9999,18,0,18,0,49,9999,0.100000,0,0,0.000000,0,11.000000,0.000000,14.436905,0,0,0,0,0,0,0
0,9999,19,0,19,0,49,9999,0.100000,0,0,0.000000,0,9.000000,0.000000,23.209626,0,0,0,0,0,0,0
0,9999,20,0,20,0,99,9999,0.100000,0,0,47.368421,0,8.000000,0.000000,16.196300,0,0,1,0,0,0,0
0,9999,21,0,21,0,49,9999,0.100000,0,0,0.000000,0,10.000000,0.000000,13.943079,0,0,0,0,0,0,0
0,9999,22,0,22,0,49,9999,0.100000,0,0,0.000000,0,3.000000,0.000000,5.781386,0,0,0,0,0,0,0
0,9999,23,0,23,0,49,9999,0.100000,0,0,0.000000,0,9.000000,0.000000,11.572264,0,0,0,0,0,0,0
0,9999,24,0,24,0,49,9999,0.100000,0,0,0.000000,0,9.000000,0.000000,14.871705,0,0,0,0,0,0,0
0,9999,25,0,25,0,49,9999,0.100000,0,0,0.000000,0,9.000000,0.000000,25.436377,0,0,0,0,0,0,0
0,9999,26,0,26,0,49,9999,0.100000,0,0,0.000000,0,3.000000,0.000000,3.888276,0,0,0,0,0,0,0
0,9999,27,0,27,0,49,9999,0.100000,0,0,0.000000,0,11.000000,0.000000,12.534376,0,0,0,0,0,0,0
0,9999,28,0,28,0,49,9999,0.100000,0,0,0.000000,0,4.000000,0.000000,11.506001,0,0,0,0,0,0,0
0,9999,29,0,29,0,49,9999,0.100000,0,0,0.000000,0,10.000000,0.000000,12.153628,0,0,0,0,0,0,0
0,9999,30,0,30,0,49,9999,0.100000,0,0,0.000000,0,3.000000,0.000000,15.231759,0,0,0,0,0,0,0
0,9999,31,0,31,0,49,9999,0.100000,0,0,0.000000,0,9.000000,0.000000,14.840330,0,0,0,0,0,0,0
0,9999,32,0,32,0,49,9999,0.100000,0,0,0.000000,0,4.000000,0.000000,15.897858,0,0,0,0,0,0,0
0,9999,33,0,33,0,49,9999,0.100000,0,0,0.000000,0,6.000000,0.000000,6.759084,0,0,0,0,0,0,0
0,9999,34,0,34,0,49,9999,0.100000,0,0,0.000000,0,9.000000,0.000000,11.061711,0,0,0,0,0,0,0
0,9999,35,0,35,0,49,9999,0.100000,0,0,0.000000,0,9.000000,0.000000,10.840978,0,0,0,0,0,0,0
0,9999,36,0,36,0,49,9999,0.100000,0,0,0.000000,0,2.000000,0.000000,10.684090,0,0,0,0,0,0,0
0,9999,37,0,37,0,49,9999,0.100000,0,0,0.000000,0,9.000000,0.000000,12.440234,0,0,0,0,0,0,0
0,9999,38,0,38,0,49,9999,0.100000,0,0,0.000000,0,6.000000,0.000000,14.863505,0,0,0,0,0,0,0
0,9999,39,0,39,0,49,9999,0.100000,0,0,0.000000,0,8.000000,0.000000,9.575813,0,0,0,0,0,0,0
0,9999,40,0,40,0,49,9999,0.100000,0,0,0.000000,0,10.000000,0.000000,10.911483,0,0,0,0,0,0,0
0,9999,41,0,41,0,49,9999,0.100000,0,0,0.000000,0,7.000000,0.000000,12.350228,0,0,0,0,0,0,0
0,9999,42,0,42,0,49,9999,0.100000,0,0,0.000000,0,3.000000,0.000000,11.039778,0,0,0,0,0,0,0
0,9999,43,0,43,0,49,9999,0.100000,0,0,0.000000,0,9.000000,0.000000,15.823203,0,0,0,0,0,0,0
0,9999,44,0,44,0,49,9999,0.100000,0,0,0.000000,0,5.000000,0.000000,13.040917,0,0,0,0,0,0,0
0,9999,45,0,45,0,49,9999,0.100000,0,0,0.000000,0,4.000000,0.000000,12.704686,0,0,0,0,0,0,0
0,9999,46,0,46,0,49,9999,0.100000,0,0,0.000000,0,9.000000,0.000000,20.327003,0,0,0,0,0,0,0
0,9999,47,0,47,0,49,9999,0.100000,0,0,0.000000,0,10.000000,0.000000,22.119116,0,0,0,0,0,0,0
0,9999,48,0,48,0,49,9999,0.100000,0,0,0.000000,0,9.000000,0.000000,11.449057,0,0,0,0,0,0,0
0,9999,49,0,49,0,49,9999,0.100000,0,0,0.000000,0,3.000000,0.000000,12.285187,0,0,0,0,0,0,0
0,9999,50,0,50,0,49,9999,0.100000,0,0,0.000000,0,6.000000,0.000000,13.103886,0,0,0,0,0,0,0
0,9999,51,0,51,0,49,9999,0.100000,0,0,0.000000,0,9.000000,0.000000,20.993588,0,0,0,0,0,0,0
0,9999,52,0,52,0,49,9999,0.100000,0,0,0.000000,0,7.000000,0.000000,9.655465,0,0,0,0,0,0,0
0,9999,53,0,53,0,49,9999,0.100000,0,0,0.000000,0,9.000000,0.000000,10.420542,0,0,0,0,0,0,0
0,9999,54,0,54,0,49,9999,0.100000,0,0,0.000000,0,10.000000,0.000000,17.541687,0,0,0,0,0,0,0
0,9999,55,0,55,0,49,9999,0.100000,0,0,0.000000,0,3.000000,0.000000,18.242442,0,0,0,0,0,0,0
0,9999,56,0,56,0,49,9999,0.100000,0,0,0.000000,0,4.000000,0.000000,18.083985,0,0,0,0,0,0,0
0,9999,57,0,57,0,49,9999,0.100000,0,0,0.000000,0,2.000000,0.000000,9.074503,0,0,0,0,0,0,0
0,9999,58,0,58,0,49,9999,0.100000,0,0,0.000000,0,7.000000,0.000000,11.323367,0,0,0,0,0,0,0
0,9999,59,0,59,0,49,9999,0.100000,0,0,0.000000,0,3.000000,0.000000,10.233415,0,0,0,0,0,0,0
0,9999,60,0,60,0,49,9999,0.100000,0,0,0.000000,0,2.000000,0.000000,14.785787,0,0,0,0,0,0,0
0,9999,61,0,61,0,49,9999,0.100000,0,0,0.000000,0,5.000000,0.000000,18.621733,0,0,0,0,0,0,0
0,9999,62,0,62,0,49,9999,0.100000,0,0,0.000000,0,11.000000,0.000000,16.517443,0,0,0,0,0,0,0
0,9999,63,0,63,0,49,9999,0.100000,0,0,0.000000,0,6.000000,0.000000,25.085923,0,0,0,0,0,0,0
0,9999,64,0,64,0,49,9999,0.100000,0,0,0.000000,0,6.000000,0.000000,16.083815,0,0,0,0,0,0,0
0,9999,65,0,65,0,49,9999,0.100000,0,0,0.000000,0,7.000000,0.000000,7.788897,0,0,0,0,0,0,0
0,9999,66,0,66,0,49,9999,0.100000,0,0,0.000000,0,4.000000,0.000000,7.182607,0,0,0,0,0,0,0
0,9999,67,0,67,0,49,9999,0.100000,0,0,0.000000,0,8.000000,0.000000,12.616670,0,0,0,0,0,0,0
0,9999,68,0,68,0,49,9999,0.100000,0,0,0.000000,0,6.000000,0.000000,10.691061,0,0,0,0,0,0,0
0,9999,69,0,69,0,49,9999,0.100000,0,0,0.000000,0,3.000000,0.000000,14.684978,0,0,0,0,0,0,0
0,9999,70,0,70,0,49,9999,0.100000,0,0,0.000000,0,8.000000,0.000000,11.073050,0,0,0,0,0,0,0
0,9999,71,0,71,0,49,9999,0.100000,0,0,0.000000,0,13.000000,0.000000,23.973580,0,0,0,0,0,0,0
0,9999,72,0,72,0,49,9999,0.100000,0,0,0.000000,0,11.000000,0.000000,13.727429,0,0,0,0,0,0,0
0,9999,73,0,73,0,49,9999,0.100000,0,0,0.000000,0,8.000000,0.000000,8.806043,0,0,0,0,0,0,0
0,9999,74,0,74,0,49,9999,0.100000,0,0,0.000000,0,2.000000,0.000000,11.681587,0,0,0,0,0,0,0
0,9999,75,0,75,0,49,9999,0.100000,0,0,0.000000,0,5.000000,0.000000,9.685017,0,0,0,0,0,0,0
0,9999,76,0,76,0,49,9999,0.100000,0,0,0.000000,0,9.000000,0.000000,26.204333,0,0,0,0,0,0,0
0,9999,77,0,77,0,49,9999,0.100000,0,0,0.000000,0,9.000000,0.000000,17.172101,0,0,0,0,0,0,0
0,9999,78,0,78,0,49,9999,0.100000,0,0,0.000000,0,5.000000,0.000000,11.167656,0,0,0,0,0,0,0
0,9999,79,0,79,0,49,9999,0.100000,0,0,0.000000,0,4.000000,0.000000,11.122318,0,0,0,0,0,0,0
0,9999,80,0,80,0,49,9999,0.100000,0,0,0.000000,0,5.000000,0.000000,7.071175,0,0,0,0,0,0,0
0,9999,81,0,81,0,49,9999,0.100000,0,0,0.000000,0,10.000000,0.000000,14.562146,0,0,0,0,0,0,0
0,9999,82,0,82,0,49,9999,0.100000,0,0,0.000000,0,12.000000,0.000000,23.800592,0,0,0,0,0,0,0
0,9999,83,0,83,0,49,9999,0.100000,0,0,0.000000,0,9.000000,0.000000,14.331090,0,0,0,0,0,0,0
0,9999,84,0,84,0,49,9999,0.100000,0,0,0.000000,0,5.000000,0.000000,11.384045,0,0,0,0,0,0,0
0,9999,85,0,85,0,49,9999,0.100000,0,0,0.000000,0,10.000000,0.000000,14.973219,0,0,0,0,0,0,0
0,9999,86,0,86,0,49,9999,0.100000,0,0,0.000000,0,5.000000,0.000000,9.768463,0,0,0,0,0,0,0
0,9999,87,0,87,0,49,9999,0.100000,0,0,0.000000,0,9.000000,0.000000,11.722008,0,0,0,0,0,0,0
0,9999,88,0,88,0,49,9999,0.100000,0,0,0.000000,0,10.000000,0.000000,11.078910,0,0,0,0,0,0,0
0,9999,89,0,89,0,49,9999,0.100000,0,0,0.000000,0,6.000000,0.000000,6.859175,0,0,0,0,0,0,0
0,9999,90,0,90,0,49,9999,0.100000,0,0,0.000000,0,10.000000,0.000000,11.274835,0,0,0,0,0,0,0
0,9999,91,0,91,0,49,9999,0.100000,0,0,0.000000,0,10.000000,0.000000,15.535574,0,0,0,0,0,0,0
0,9999,92,0,92,0,49,9999,0.100000,0,0,0.000000,0,4.000000,0.000000,10.592987,0,0,0,0,0,0,0
0,9999,93,0,93,0,49,9999,0.100000,0,0,0.000000,0,5.000000,0.000000,7.924739,0,0,0,0,0,0,0
0,9999,94,0,94,0,49,9999,0.100000,0,0,0.000000,0,5.000000,0.000000,8.929934,0,0,0,0,0,0,0
0,9999,95,0,95,0,49,9999,0.100000,0,0,0.000000,0,2.000000,0.000000,13.267705,0,0,0,0,0,0,0
0,9999,96,0,96,0,49,9999,0.100000,0,0,0.000000,0,8.000000,0.000000,13.879671,0,0,0,0,0,0,0
0,9999,97,0,97,0,49,9999,0.100000,0,0,0.000000,0,11.000000,0.000000,25.489760,0,0,0,0,0,0,0
0,9999,98,0,98,0,49,9999,0.100000,0,0,0.000000,0,1.000000,0.000000,9.658831,0,0,0,0,0,0,0
0,9999,99,0,99,0,49,9999,0.100000,0,0,0.000000,0,4.000000,0.000000,10.714261,0,0,0,0,0,0,0
1,19999,0,10000,0,0,40,9999,0.100000,0,0,0.000000,3,0.000000,0.000000,0.744321,0,0,0,0,0,0,0
1,19999,1,10000,0,0,40,9999,0.100000,0,0,0.000000,3,0.000000,0.000000,0.184088,0,0,0,0,0,0,0
1,19999,2,10000,72,0,40,9999,0.100000,0,0,0.000000,2,0.000000,0.000000,0.479030,0,0,0,0,0,0,0
1,19999,3,10000,72,0,40,9999,0.100000,0,0,0.000000,3,0.000000,0.000000,0.142514,0,0,0,0,0,0,0
1,19999,4,10000,72,0,40,9999,0.100000,0,0,0.000000,3,0.000000,0.000000,0.922632,0,0,0,0,0,0,0
1,19999,5,10000,0,0,40,9999,0.100000,0,0,0.000000,3,0.000000,0.000000,2.884832,0,0,0,0,0,0,0
1,19999,6,10000,72,0,40,9999,0.100000,0,0,0.000000,3,0.000000,0.000000,0.135995,0,0,0,0,0,0,0
1,19999,7,10000,7,0,49,9999,0.100000,0,0,0.000000,1,8.000000,0.000000,16.227691,0,0,0,0,0,0,0
1,19999,8,10000,0,0,40,9999,0.100000,0,0,0.000000,3,0.000000,0.000000,1.142409,0,0,0,0,0,0,0
1,19999,9,10000,2,0,49,9999,0.100000,0,0,0.000000,3,2.000000,0.000000,8.936345,0,0,0,0,0,0,0
1,19999,10,10000,0,0,49,9999,0.100000,0,0,0.000000,3,1.000000,0.000000,2.875624,0,0,0,0,0,0,0
1,19999,11,10000,20,0,40,9999,0.100000,0,0,0.000000,3,0.000000,0.000000,2.562090,0,0,0,0,0,0,0
1,19999,12,10000,0,0,49,9999,0.100000,0,0,0.000000,3,1.000000,0.000000,5.664483,0,0,0,0,0,0,0
1,19999,13,0,13,0,49,19999,0.100000,0,0,0.000000,2,1.000000,0.000000,19.187866,0,0,0,0,0,0,0
1,19999,14,10000,72,0,49,9999,0.100000,0,0,0.000000,3,3.000000,0.000000,16.103814,0,0,0,0,0,0,0
1,19999,15,10000,72,0,40,9999,0.100000,0,0,0.000000,3,0.000000,0.000000,0.122469,0,0,0,0,0,0,0
1,19999,16,0,16,0,49,19999,0.100000,0,0,0.000000,2,1.000000,0.000000,6.613410,0,0,0,0,0,0,0
1,19999,17,10000,7,0,40,9999,0.100000,0,0,0.000000,1,0.000000,0.000000,22.353707,0,0,0,0,0,0,0
1,19999,18,10000,0,0,49,9999,0.100000,0,0,0.000000,3,2.000000,0.000000,6.254561,0,0,0,0,0,0,0
1,19999,19,10000,2,0,49,9999,0.100000,0,0,0.000000,3,1.000000,0.000000,16.703267,0,0,0,0,0,0,0
1,19999,20,10000,0,0,40,9999,0.100000,0,0,0.000000,3,0.000000,0.000000,0.096602,0,0,0,0,0,0,0
1,19999,21,10000,0,0,40,9999,0.100000,0,0,0.000000,3,0.000000,0.000000,0.680031,0,0,0,0,0,0,0
1,19999,22,10000,2,0,40,9999,0.100000,0,0,0.000000,3,0.000000,0.000000,1.750903,0,0,0,0,0,0,0
1,19999,23,10000,72,0,40,9999,0.100000,0,0,0.000000,2,0.000000,0.000000,0.914326,0,0,0,0,0,0,0
1,19999,24,0,24,0,9,19999,0.100000,0,0,0.000000,2,1.000000,0.000000,2.324314,0,0,0,1,0,0,0
1,19999,25,10000,72,0,40,9999,0.100000,0,0,0.000000,3,0.000000,0.000000,14.540865,0,0,0,0,0,0,0
1,19999,26,10000,0,0,40,9999,0.100000,0,0,0.000000,3,0.000000,0.000000,1.049552,0,0,0,0,0,0,0
1,19999,27,10000,72,0,49,9999,0.100000,0,0,0.000000,3,1.000000,0.000000,6.054904,0,0,0,0,0,0,0
1,19999,28,10000,72,0,40,9999,0.100000,0,0,0.000000,3,0.000000,0.000000,5.968517,0,0,0,0,0,0,0
1,19999,29,10000,72,0,40,9999,0.100000,0,0,0.000000,3,0.000000,0.000000,0.228042,0,0,0,0,0,0,0
1,19999,30,10000,20,0,40,9999,0.100000,0,0,0.000000,3,0.000000,0.000000,18.447559,0,0,0,0,0,0,0
1,19999,31,0,31,0,40,19999,0.100000,0,0,0.000000,2,0.000000,0.000000,4.066690,0,0,0,0,0,0,0
1,19999,32,10000,20,0,49,9999,0.100000,0,0,0.000000,3,2.000000,0.000000,13.567985,0,0,0,0,0,0,0
1,19999,33,10000,2,0,40,9999,0.100000,0,0,0.000000,3,0.000000,0.000000,0.423247,0,0,0,0,0,0,0
1,19999,34,10000,2,0,40,9999,0.100000,0,0,0.000000,2,0.000000,0.000000,0.305755,0,0,0,0,0,0,0
1,19999,35,10000,72,0,40,9999,0.100000,0,0,0.000000,3,0.000000,0.000000,0.210311,0,0,0,0,0,0,0
1,19999,36,10000,72,0,49,9999,0.100000,0,0,0.000000,3,1.000000,0.000000,10.870490,0,0,0,0,0,0,0
1,19999,37,10000,72,0,40,9999,0.100000,0,0,0.000000,3,0.000000,0.000000,1.791521,0,0,0,0,0,0,0
1,19999,38,0,38,0,40,19999,0.100000,0,0,0.000000,3,0.000000,0.000000,0.128639,0,0,0,0,0,0,0
1,19999,39,10000,72,0,40,9999,0.100000,0,0,0.000000,3,0.000000,0.000000,0.091914,0,0,0,0,0,0,0
1,19999,40,10000,2,0,40,9999,0.100000,0,0,0.000000,2,0.000000,0.000000,0.845882,0,0,0,0,0,0,0
1,19999,41,10000,72,0,40,9999,0.100000,0,0,0.000000,3,0.000000,0.000000,0.103126,0,0,0,0,0,0,0
1,19999,42,0,42,0,40,19999,0.100000,0,0,0.000000,3,0.000000,0.000000,0.948467,0,0,0,0,0,0,0
1,19999,43,10000,24,0,40,9999,0.100000,0,0,0.000000,2,0.000000,0.000000,1.340648,0,0,0,0,0,0,0
1,19999,44,0,44,0,49,19999,0.100000,0,0,0.000000,3,1.000000,0.000000,9.575065,0,0,0,0,0,0,0
1,19999,45,10000,20,0,49,9999,0.100000,0,0,0.000000,3,2.000000,0.000000,10.990063,0,0,0,0,0,0,0
1,19999,46,10000,2,0,49,9999,0.100000,0,0,0.000000,2,2.000000,0.000000,6.751608,0,0,0,0,0,0,0
1,19999,47,10000,72,0,49,9999,0.100000,0,0,0.000000,3,4.000000,0.000000,15.732480,0,0,0,0,0,0,0
1,19999,48,10000,20,0,49,9999,0.100000,0,0,0.000000,3,5.000000,0.000000,12.520463,0,0,0,0,0,0,0
1,19999,49,10000,72,0,40,9999,0.100000,0,0,0.000000,2,0.000000,0.000000,0.157788,0,0,0,0,0,0,0
1,19999,50,10000,20,0,40,9999,0.100000,0,0,0.000000,3,0.000000,0.000000,0.280431,0,0,0,0,0,0,0
1,19999,51,10000,24,0,49,9999,0.100000,0,0,0.000000,2,2.000000,0.000000,8.124794,0,0,0,0,0,0,0
1,19999,52,10000,72,0,40,9999,0.100000,0,0,0.000000,3,0.000000,0.000000,0.748881,0,0,0,0,0,0,0
1,19999,53,10000,72,0,40,9999,0.100000,0,0,0.000000,3,0.000000,0.000000,0.783864,0,0,0,0,0,0,0
1,19999,54,10000,20,0,49,9999,0.100000,0,0,0.000000,3,2.000000,0.000000,17.317033,0,0,0,0,0,0,0
1,19999,55,10000,0,0,49,9999,0.100000,0,0,0.000000,3,2.000000,0.000000,9.138613,0,0,0,0,0,0,0
1,19999,56,0,56,0,49,19999,0.100000,0,0,0.000000,2,1.000000,0.000000,12.506948,0,0,0,0,0,0,0
1,19999,57,10000,72,0,49,9999,0.100000,0,0,0.000000,3,1.000000,0.000000,10.562872,0,0,0,0,0,0,0
1,19999,58,10000,20,0,40,9999,0.100000,0,0,0.000000,3,0.000000,0.000000,0.946849,0,0,0,0,0,0,0
1,19999,59,0,59,0,49,19999,0.100000,0,0,0.000000,3,1.000000,0.000000,10.694254,0,0,0,0,0,0,0
1,19999,60,10000,72,0,49,9999,0.100000,0,0,0.000000,3,1.000000,0.000000,5.059059,0,0,0,0,0,0,0
1,19999,61,10000,0,0,49,9999,0.100000,0,0,0.000000,3,4.000000,0.000000,25.594399,0,0,0,0,0,0,0
1,19999,62,10000,72,0,49,9999,0.100000,0,0,0.000000,2,2.000000,0.000000,7.311473,0,0,0,0,0,0,0
1,19999,63,10000,0,0,40,9999,0.100000,0,0,0.000000,3,0.000000,0.000000,14.888282,0,0,0,0,0,0,0
1,19999,64,10000,72,0,40,9999,0.100000,0,0,0.000000,3,0.000000,0.000000,2.540484,0,0,0,0,0,0,0
1,19999,65,10000,20,0,40,9999,0.100000,0,0,0.000000,3,0.000000,0.000000,0.133786,0,0,0,0,0,0,0
1,19999,66,10000,0,0,40,9999,0.100000,0,0,0.000000,3,0.000000,0.000000,0.816166,0,0,0,0,0,0,0
1,19999,67,10000,20,0,40,9999,0.100000,0,0,0.000000,3,0.000000,0.000000,4.584697,0,0,0,0,0,0,0
1,19999,68,10000,72,0,49,9999,0.100000,0,0,0.000000,3,1.000000,0.000000,5.371638,0,0,0,0,0,0,0
1,19999,69,10000,72,0,40,9999,0.100000,0,0,0.000000,3,0.000000,0.000000,0.146835,0,0,0,0,0,0,0
1,19999,70,0,70,0,40,19999,0.100000,0,0,0.000000,2,0.000000,0.000000,0.220241,0,0,0,0,0,0,0
1,19999,71,10000,0,0,40,9999,0.100000,0,0,0.000000,3,0.000000,0.000000,2.459822,0,0,0,0,0,0,0
1,19999,72,10000,7,0,40,9999,0.100000,0,0,0.000000,2,0.000000,0.000000,0.105701,0,0,0,0,0,0,0
1,19999,73,10000,72,0,40,9999,0.100000,0,0,0.000000,3,0.000000,0.000000,1.052357,0,0,0,0,0,0,0
1,19999,74,10000,20,0,49,9999,0.100000,0,0,0.000000,3,1.000000,0.000000,10.001684,0,0,0,0,0,0,0
1,19999,75,10000,72,0,49,9999,0.100000,0,0,0.000000,3,2.000000,0.000000,6.967231,0,0,0,0,0,0,0
1,19999,76,10000,0,0,49,9999,0.100000,0,0,0.000000,3,3.000000,0.000000,8.088171,0,0,0,0,0,0,0
1,19999,77,0,77,0,40,19999,0.100000,0,0,0.000000,3,0.000000,0.000000,7.143976,0,0,0,0,0,0,0
1,19999,78,10000,7,0,49,9999,0.100000,0,0,0.000000,2,2.000000,0.000000,10.301097,0,0,0,0,0,0,0
1,19999,79,10000,72,0,49,9999,0.100000,0,0,0.000000,3,3.000000,0.000000,10.176187,0,0,0,0,0,0,0
1,19999,80,10000,72,0,40,9999,0.100000,0,0,0.000000,2,0.000000,0.000000,0.514274,0,0,0,0,0,0,0
1,19999,81,10000,0,0,49,9999,0.100000,0,0,0.000000,3,3.000000,0.000000,13.493258,0,0,0,0,0,0,0
1,19999,82,10000,20,0,49,9999,0.100000,0,0,0.000000,3,2.000000,0.000000,14.669441,0,0,0,0,0,0,0
1,19999,83,10000,20,0,40,9999,0.100000,0,0,0.000000,3,0.000000,0.000000,0.252879,0,0,0,0,0,0,0
1,19999,84,10000,0,0,40,9999,0.100000,0,0,0.000000,3,0.000000,0.000000,1.357905,0,0,0,0,0,0,0
1,19999,85,10000,0,0,40,9999,0.100000,0,0,0.000000,3,0.000000,0.000000,2.547780,0,0,0,0,0,0,0
1,19999,86,10000,0,0,40,9999,0.100000,0,0,0.000000,3,0.000000,0.000000,0.573564,0,0,0,0,0,0,0
1,19999,87,10000,2,0,40,9999,0.100000,0,0,0.000000,2,0.000000,0.000000,0.072410,0,0,0,0,0,0,0
1,19999,88,10000,72,0,40,9999,0.100000,0,0,0.000000,3,0.000000,0.000000,0.173105,0,0,0,0,0,0,0
1,19999,89,10000,0,0,40,9999,0.100000,0,0,0.000000,3,0.000000,0.000000,0.269205,0,0,0,0,0,0,0
1,19999,90,10000,72,0,49,9999,0.100000,0,0,0.000000,3,1.000000,0.000000,1.583200,0,0,0,0,0,0,0
1,19999,91,10000,20,0,49,9999,0.100000,0,0,0.000000,3,1.000000,0.000000,2.996562,0,0,0,0,0,0,0
1,19999,92,10000,0,0,49,9999,0.100000,0,0,0.000000,3,1.000000,0.000000,3.619843,0,0,0,0,0,0,0
1,19999,93,10000,72,0,40,9999,0.100000,0,0,0.000000,3,0.000000,0.000000,1.736877,0,0,0,0,0,0,0
1,19999,94,10000,20,0,49,9999,0.100000,0,0,0.000000,3,2.000000,0.000000,14.217864,0,0,0,0,0,0,0
1,19999,95,10000,0,0,49,9999,0.100000,0,0,0.000000,3,2.000000,0.000000,9.810674,0,0,0,0,0,0,0
1,19999,96,10000,2,0,40,9999,0.100000,0,0,0.000000,3,0.000000,0.000000,0.091006,0,0,0,0,0,0,0
1,19999,97,10000,72,0,40,9999,0.100000,0,0,0.000000,2,0.000000,0.000000,0.244721,0,0,0,0,0,0,0
1,19999,98,10000,72,0,40,9999,0.100000,0,0,0.000000,3,0.000000,0.000000,8.065808,0,0,0,0,0,0,0
1,19999,99,10000,20,0,49,9999,0.100000,0,0,0.000000,3,2.000000,0.000000,11.952183,0,0,0,0,0,0,0
2,29999,0,20000,1,10000,40,9999,0.100000,0,0,0.000000,6,0.000000,0.000000,0.669493,0,0,0,0,0,0,0
2,29999,1,20000,72,0,49,9999,0.100000,0,0,0.000000,4,2.000000,0.000000,16.470630,0,0,0,0,0,0,0
2,29999,2,20000,72,10000,40,9999,0.100000,0,0,0.000000,6,0.000000,0.000000,0.239326,0,0,0,0,0,0,0
2,29999,3,20000,20,0,40,9999,0.100000,0,0,0.000000,4,0.000000,0.000000,0.101387,0,0,0,0,0,0,0
2,29999,4,20000,7,10000,40,9999,0.100000,0,0,0.000000,5,0.000000,0.000000,0.936692,0,0,0,0,0,0,0
2,29999,5,20000,0,0,40,9999,0.100000,0,0,0.000000,5,0.000000,0.000000,2.883482,0,0,0,0,0,0,0
2,29999,6,20000,72,0,40,9999,0.100000,0,0,0.000000,5,0.000000,0.000000,0.132678,0,0,0,0,0,0,0
2,29999,7,20000,1,10000,49,9999,0.100000,0,0,0.000000,5,5.000000,0.000000,9.568842,0,0,0,0,0,0,0
2,29999,8,20000,4,10000,40,9999,0.100000,0,0,0.000000,6,0.000000,0.000000,2.165198,0,0,0,0,0,0,0
2,29999,9,20000,4,10000,49,9999,0.100000,0,0,0.000000,5,1.000000,0.000000,13.575998,0,0,0,0,0,0,0
2,29999,10,20000,7,10000,40,9999,0.100000,0,0,0.000000,6,0.000000,0.000000,4.085966,0,0,0,0,0,0,0
2,29999,11,20000,4,10000,49,9999,0.100000,0,0,0.000000,6,1.000000,0.000000,19.940756,0,0,0,0,0,0,0
2,29999,12,20000,20,0,40,9999,0.100000,0,0,0.000000,5,0.000000,0.000000,1.670104,0,0,0,0,0,0,0
2,29999,13,20000,20,0,40,9999,0.100000,0,0,0.000000,6,0.000000,0.000000,8.994470,0,0,0,0,0,0,0
2,29999,14,20000,7,10000,49,9999,0.100000,0,0,0.000000,5,3.000000,0.000000,8.196733,0,0,0,0,0,0,0
2,29999,15,20000,7,10000,40,9999,0.100000,0,0,0.000000,5,0.000000,0.000000,0.136657,0,0,0,0,0,0,0
2,29999,16,20000,4,10000,49,9999,0.100000,0,0,0.000000,6,2.000000,0.000000,8.354174,0,0,0,0,0,0,0
2,29999,17,20000,7,10000,40,9999,0.100000,0,0,0.000000,5,0.000000,0.000000,22.773080,0,0,0,0,0,0,0
2,29999,18,20000,0,10000,40,9999,0.100000,0,0,0.000000,6,0.000000,0.000000,3.215776,0,0,0,0,0,0,0
2,29999,19,20000,0,0,40,9999,0.100000,0,0,0.000000,6,0.000000,0.000000,1.592039,0,0,0,0,0,0,0
2,29999,20,20000,0,0,40,9999,0.100000,0,0,0.000000,5,0.000000,0.000000,0.096087,0,0,0,0,0,0,0
2,29999,21,20000,7,10000,40,9999,0.100000,0,0,0.000000,5,0.000000,0.000000,0.977335,0,0,0,0,0,0,0
2,29999,22,20000,0,10000,40,9999,0.100000,0,0,0.000000,6,0.000000,0.000000,0.188084,0,0,0,0,0,0,0
2,29999,23,20000,7,10000,40,9999,0.100000,0,0,0.000000,5,0.000000,0.000000,3.631411,0,0,0,0,0,0,0
2,29999,24,20000,0,0,40,9999,0.100000,0,0,0.000000,6,0.000000,0.000000,0.958789,0,0,0,0,0,0,0
2,29999,25,20000,4,10000,40,9999,0.100000,0,0,0.000000,5,0.000000,0.000000,15.728355,0,0,0,0,0,0,0
2,29999,26,20000,1,10000,40,9999,0.100000,0,0,0.000000,5,0.000000,0.000000,0.309359,0,0,0,0,0,0,0
2,29999,27,20000,1,10000,49,9999,0.100000,0,0,0.000000,5,1.000000,0.000000,3.689808,0,0,0,0,0,0,0
2,29999,28,20000,20,0,49,9999,0.100000,0,0,0.000000,5,2.000000,0.000000,9.606732,0,0,0,0,0,0,0
2,29999,29,20000,20,0,40,9999,0.100000,0,0,0.000000,6,0.000000,0.000000,0.258207,0,0,0,0,0,0,0
2,29999,30,20000,7,10000,40,9999,0.100000,0,0,0.000000,6,0.000000,0.000000,22.381026,0,0,0,0,0,0,0
2,29999,31,20000,0,0,49,9999,0.100000,0,0,0.000000,6,3.000000,0.000000,10.017330,0,0,0,0,0,0,0
2,29999,32,20000,1,10000,49,9999,0.100000,0,0,0.000000,4,3.000000,0.000000,18.662961,0,0,0,0,0,0,0
2,29999,33,20000,0,10000,40,9999,0.100000,0,0,0.000000,6,0.000000,0.000000,0.414968,0,0,0,0,0,0,0
2,29999,34,20000,72,10000,40,9999,0.100000,0,0,0.000000,6,0.000000,0.000000,0.200456,0,0,0,0,0,0,0
2,29999,35,20000,1,10000,40,9999,0.100000,0,0,0.000000,6,0.000000,0.000000,0.211297,0,0,0,0,0,0,0
2,29999,36,20000,7,10000,40,9999,0.100000,0,0,0.000000,5,0.000000,0.000000,0.420767,0,0,0,0,0,0,0
2,29999,37,20000,0,0,40,9999,0.100000,0,0,0.000000,6,0.000000,0.000000,0.870380,0,0,0,0,0,0,0
2,29999,38,20000,0,0,40,9999,0.100000,0,0,0.000000,6,0.000000,0.000000,0.091529,0,0,0,0,0,0,0
2,29999,39,20000,4,10000,40,9999,0.135000,0,0,0.000000,5,0.000000,0.000000,0.082119,0,0,0,0,0,0,0
2,29999,40,20000,0,0,40,9999,0.100000,0,0,0.000000,6,0.000000,0.000000,0.984869,0,0,0,0,0,0,0
2,29999,41,20000,4,10000,40,9999,0.100000,0,0,0.000000,5,0.000000,0.000000,0.092554,0,0,0,0,0,0,0
2,29999,42,20000,7,10000,40,9999,0.100000,0,0,0.000000,6,0.000000,0.000000,0.425821,0,0,0,0,0,0,0
2,29999,43,20000,20,0,40,9999,0.100000,0,0,0.000000,5,0.000000,0.000000,0.757812,0,0,0,0,0,0,0
2,29999,44,20000,1,10000,49,9999,0.100000,0,0,0.000000,5,9.000000,0.000000,21.253501,0,0,0,0,0,0,0
2,29999,45,20000,4,10000,49,9999,0.100000,0,0,0.000000,5,1.000000,0.000000,10.639293,0,0,0,0,0,0,0
2,29999,46,20000,7,10000,40,9999,0.100000,0,0,0.000000,5,0.000000,0.000000,1.684616,0,0,0,0,0,0,0
2,29999,47,20000,20,0,49,9999,0.100000,0,0,0.000000,5,2.000000,0.000000,19.058056,0,0,0,0,0,0,0
2,29999,48,20000,7,10000,49,9999,0.100000,0,0,0.000000,5,1.000000,0.000000,6.892435,0,0,0,0,0,0,0
2,29999,49,20000,0,10000,40,9999,0.100000,0,0,0.000000,6,0.000000,0.000000,1.323028,0,0,0,0,0,0,0
2,29999,50,20000,4,10000,40,9999,0.100000,0,0,0.000000,6,0.000000,0.000000,0.310395,0,0,0,0,0,0,0
2,29999,51,20000,0,10000,49,9999,0.100000,0,0,0.000000,6,2.000000,0.000000,5.406058,0,0,0,0,0,0,0
2,29999,52,20000,0,0,40,9999,0.100000,0,0,0.000000,6,0.000000,0.000000,0.945281,0,0,0,0,0,0,0
2,29999,53,20000,1,10000,40,9999,0.100000,0,0,0.000000,6,0.000000,0.000000,0.797278,0,0,0,0,0,0,0
2,29999,54,20000,7,10000,49,9999,0.100000,0,0,0.000000,5,5.000000,0.000000,10.466525,0,0,0,0,0,0,0
2,29999,55,20000,7,10000,49,9999,0.100000,0,0,0.000000,5,2.000000,0.000000,14.593377,0,0,0,0,0,0,0
2,29999,56,20000,20,0,40,9999,0.100000,0,0,0.000000,6,0.000000,0.000000,0.453661,0,0,0,0,0,0,0
2,29999,57,20000,1,10000,49,9999,0.100000,0,0,0.000000,6,1.000000,0.000000,10.490013,0,0,0,0,0,0,0
2,29999,58,20000,1,10000,40,9999,0.100000,0,0,0.000000,5,0.000000,0.000000,0.812427,0,0,0,0,0,0,0
2,29999,59,20000,4,10000,49,9999,0.100000,0,0,0.000000,6,2.000000,0.000000,11.694456,0,0,0,0,0,0,0
2,29999,60,20000,20,0,49,9999,0.100000,0,0,0.000000,5,2.000000,0.000000,4.900067,0,0,0,0,0,0,0
2,29999,61,20000,1,10000,49,9999,0.100000,0,0,0.000000,6,3.000000,0.000000,3.901724,0,0,0,0,0,0,0
2,29999,62,20000,4,10000,49,9999,0.100000,0,0,0.000000,6,1.000000,0.000000,4.042854,0,0,0,0,0,0,0
2,29999,63,20000,1,10000,49,9999,0.100000,0,0,0.000000,6,2.000000,0.000000,13.949453,0,0,0,0,0,0,0
2,29999,64,20000,1,10000,40,9999,0.100000,0,0,0.000000,6,0.000000,0.000000,1.489739,0,0,0,0,0,0,0
2,29999,65,20000,4,10000,40,9999,0.100000,0,0,0.000000,6,0.000000,0.000000,0.126894,0,0,0,0,0,0,0
2,29999,66,20000,20,0,40,9999,0.100000,0,0,0.000000,6,0.000000,0.000000,0.320368,0,0,0,0,0,0,0
2,29999,67,20000,0,0,40,9999,0.100000,0,0,0.000000,5,0.000000,0.000000,1.581984,0,0,0,0,0,0,0
2,29999,68,20000,4,10000,49,9999,0.100000,0,0,0.000000,5,2.000000,0.000000,4.256190,0,0,0,0,0,0,0
2,29999,69,20000,0,0,40,9999,0.100000,0,0,0.000000,6,0.000000,0.000000,0.141930,0,0,0,0,0,0,0
2,29999,70,20000,7,10000,40,9999,0.100000,0,0,0.000000,6,0.000000,0.000000,0.227895,0,0,0,0,0,0,0
2,29999,71,20000,0,0,49,9999,0.100000,0,0,0.000000,6,2.000000,0.000000,8.642940,0,0,0,0,0,0,0
2,29999,72,20000,0,10000,40,9999,0.100000,0,0,0.000000,6,0.000000,0.000000,0.103572,0,0,0,0,0,0,0
2,29999,73,20000,4,10000,40,9999,0.100000,0,0,0.000000,6,0.000000,0.000000,1.392797,0,0,0,0,0,0,0
2,29999,74,20000,0,0,49,9999,0.100000,0,0,0.000000,6,2.000000,0.000000,11.848513,0,0,0,0,0,0,0
2,29999,75,20000,7,10000,40,9999,0.100000,0,0,0.000000,5,0.000000,0.000000,0.318434,0,0,0,0,0,0,0
2,29999,76,20000,0,0,40,9999,0.100000,0,0,0.000000,5,0.000000,0.000000,1.634422,0,0,0,0,0,0,0
2,29999,77,20000,1,10000,49,9999,0.100000,0,0,0.000000,6,6.000000,0.000000,9.594282,0,0,0,0,0,0,0
2,29999,78,20000,0,10000,49,9999,0.100000,0,0,0.000000,6,3.000000,0.000000,7.742270,0,0,0,0,0,0,0
2,29999,79,20000,0,10000,40,9999,0.100000,0,0,0.000000,6,0.000000,0.000000,0.104109,0,0,0,0,0,0,0
2,29999,80,20000,1,10000,40,9999,0.100000,0,0,0.000000,6,0.000000,0.000000,0.393469,0,0,0,0,0,0,0
2,29999,81,20000,20,0,40,9999,0.100000,0,0,0.000000,6,0.000000,0.000000,1.329936,0,0,0,0,0,0,0
2,29999,82,20000,4,10000,40,9999,0.100000,0,0,0.000000,6,0.000000,0.000000,0.825143,0,0,0,0,0,0,0
2,29999,83,20000,1,10000,40,9999,0.100000,0,0,0.000000,6,0.000000,0.000000,0.214795,0,0,0,0,0,0,0
2,29999,84,20000,0,10000,40,9999,0.100000,0,0,0.000000,6,0.000000,0.000000,1.237653,0,0,0,0,0,0,0
2,29999,85,20000,20,0,40,9999,0.100000,0,0,0.000000,6,0.000000,0.000000,0.715274,0,0,0,0,0,0,0
2,29999,86,20000,7,10000,40,9999,0.100000,0,0,0.000000,6,0.000000,0.000000,0.539653,0,0,0,0,0,0,0
2,29999,87,20000,20,0,40,9999,0.100000,0,0,0.000000,6,0.000000,0.000000,0.388022,0,0,0,0,0,0,0
2,29999,88,20000,1,10000,40,9999,0.100000,0,0,0.000000,6,0.000000,0.000000,0.223415,0,0,0,0,0,0,0
2,29999,89,20000,0,0,40,9999,0.100000,0,0,0.000000,6,0.000000,0.000000,0.261970,0,0,0,0,0,0,0
2,29999,90,20000,4,10000,40,9999,0.100000,0,0,0.000000,6,0.000000,0.000000,0.977185,0,0,0,0,0,0,0
2,29999,91,20000,0,10000,40,9999,0.100000,0,0,0.000000,6,0.000000,0.000000,1.864990,0,0,0,0,0,0,0
2,29999,92,20000,20,0,40,9999,0.100000,0,0,0.000000,6,0.000000,0.000000,1.812131,0,0,0,0,0,0,0
2,29999,93,20000,1,10000,49,9999,0.100000,0,0,0.000000,5,4.000000,0.000000,7.037538,0,0,0,0,0,0,0
2,29999,94,20000,0,0,49,9999,0.100000,0,0,0.000000,6,3.000000,0.000000,9.633387,0,0,0,0,0,0,0
2,29999,95,20000,72,10000,49,9999,0.100000,0,0,0.000000,6,1.000000,0.000000,10.628576,0,0,0,0,0,0,0
2,29999,96,20000,4,10000,40,9999,0.100000,0,0,0.000000,6,0.000000,0.000000,0.137893,0,0,0,0,0,0,0
2,29999,97,20000,1,10000,40,9999,0.100000,0,0,0.000000,5,0.000000,0.000000,0.233287,0,0,0,0,0,0,0
2,29999,98,20000,0,10000,49,9999,0.100000,0,0,0.000000,6,1.000000,0.000000,17.078667,0,0,0,0,0,0,0
2,29999,99,20000,7,10000,49,9999,0.100000,0,0,0.000000,6,1.000000,0.000000,9.852186,0,0,0,0,0,0,0
3,39999,0,30000,72,10000,40,9999,0.100000,0,0,0.000000,6,0.000000,0.000000,2.404949,0,0,0,0,0,0,0
3,39999,1,30000,0,0,49,9999,0.100000,0,0,0.000000,6,1.000000,0.000000,2.207512,0,0,0,0,0,0,0
3,39999,2,30000,72,10000,40,9999,0.100000,0,0,0.000000,6,0.000000,0.000000,1.086486,0,0,0,0,0,0,0
3,39999,3,30000,0,10000,40,9999,0.100000,0,0,0.000000,6,0.000000,0.000000,0.082515,0,0,0,0,0,0,0
3,39999,4,30000,20,0,49,9999,0.100000,0,0,0.000000,6,2.000000,0.000000,7.033918,0,0,0,0,0,0,0
3,39999,5,30000,54,20000,40,9999,0.100000,0,0,0.000000,6,0.000000,0.000000,0.957391,0,0,0,0,0,0,0
3,39999,6,30000,4,10000,40,9999,0.100000,0,0,0.000000,6,0.000000,0.000000,0.141876,0,0,0,0,0,0,0
3,39999,7,30000,72,10000,49,9999,0.100000,0,0,0.000000,6,6.000000,0.000000,6.695989,0,0,0,0,0,0,0
3,39999,8,30000,72,10000,40,9999,0.100000,0,0,0.000000,6,0.000000,0.000000,3.513634,0,0,0,0,0,0,0
3,39999,9,30000,4,10000,40,9999,0.100000,0,0,0.000000,6,0.000000,0.000000,7.431707,0,0,0,0,0,0,0
3,39999,10,30000,4,10000,40,9999,0.100000,0,0,0.000000,6,0.000000,0.000000,4.708514,0,0,0,0,0,0,0
3,39999,11,30000,0,10000,40,9999,0.100000,0,0,0.000000,6,0.000000,0.000000,4.470930,0,0,0,0,0,0,0
3,39999,12,30000,0,10000,40,9999,0.100000,0,0,0.000000,6,0.000000,0.000000,0.923112,0,0,0,0,0,0,0
3,39999,13,30000,0,0,40,9999,0.100000,0,0,0.000000,6,0.000000,0.000000,1.021614,0,0,0,0,0,0,0
3,39999,14,30000,20,0,40,9999,0.100000,0,0,0.000000,6,0.000000,0.000000,2.156674,0,0,0,0,0,0,0
3,39999,15,30000,54,20000,40,9999,0.100000,0,0,0.000000,6,0.000000,0.000000,0.132411,0,0,0,0,0,0,0
3,39999,16,30000,54,20000,40,9999,0.100000,0,0,0.000000,6,0.000000,0.000000,0.452272,0,0,0,0,0,0,0
3,39999,17,30000,0,0,49,9999,0.100000,0,0,0.000000,6,1.000000,0.000000,12.143544,0,0,0,0,0,0,0
3,39999,18,30000,0,0,49,9999,0.100000,0,0,0.000000,6,5.000000,0.000000,11.858681,0,0,0,0,0,0,0
3,39999,19,30000,72,10000,40,9999,0.100000,0,0,0.000000,6,0.000000,0.000000,4.286884,0,0,0,0,0,0,0
3,39999,20,30000,4,10000,40,9999,0.100000,0,0,0.000000,6,0.000000,0.000000,0.096530,0,0,0,0,0,0,0
3,39999,21,30000,20,0,40,9999,0.100000,0,0,0.000000,6,0.000000,0.000000,1.070463,0,0,0,0,0,0,0
3,39999,22,30000,4,10000,40,9999,0.100000,0,0,0.000000,6,0.000000,0.000000,1.837502,0,0,0,0,0,0,0
3,39999,23,30000,4,10000,40,9999,0.100000,0,0,0.000000,6,0.000000,0.000000,3.371383,0,0,0,0,0,0,0
3,39999,24,30000,0,0,40,9999,0.100000,0,0,0.000000,6,0.000000,0.000000,0.308477,0,0,0,0,0,0,0
3,39999,25,30000,20,0,49,9999,0.100000,0,0,0.000000,6,2.000000,0.000000,15.686993,0,0,0,0,0,0,0
3,39999,26,30000,0,0,40,9999,0.100000,0,0,0.000000,6,0.000000,0.000000,0.348640,0,0,0,0,0,0,0
3,39999,27,30000,20,0,40,9999,0.100000,0,0,0.000000,6,0.000000,0.000000,1.019592,0,0,0,0,0,0,0
3,39999,28,30000,72,10000,40,9999,0.100000,0,0,0.000000,6,0.000000,0.000000,2.226697,0,0,0,0,0,0,0
3,39999,29,30000,0,0,40,9999,0.100000,0,0,0.000000,6,0.000000,0.000000,0.405860,0,0,0,0,0,0,0
3,39999,30,30000,0,10000,49,9999,0.100000,0,0,0.000000,6,1.000000,0.000000,13.772677,0,0,0,0,0,0,0
3,39999,31,30000,20,0,49,9999,0.100000,0,0,0.000000,6,3.000000,0.000000,21.167193,0,0,0,0,0,0,0
3,39999,32,30000,0,0,49,9999,0.100000,0,0,0.000000,6,3.000000,0.000000,12.267006,0,0,0,0,0,0,0
3,39999,33,30000,4,10000,40,9999,0.100000,0,0,0.000000,6,0.000000,0.000000,0.617448,0,0,0,0,0,0,0
3,39999,34,30000,72,10000,40,9999,0.100000,0,0,0.000000,6,0.000000,0.000000,0.404544,0,0,0,0,0,0,0
3,39999,35,30000,0,0,40,9999,0.100000,0,0,0.000000,6,0.000000,0.000000,0.212598,0,0,0,0,0,0,0
3,39999,36,30000,72,10000,40,9999,0.100000,0,0,0.000000,6,0.000000,0.000000,0.400678,0,0,0,0,0,0,0
3,39999,37,30000,4,10000,40,9999,0.100000,0,0,0.000000,6,0.000000,0.000000,3.520650,0,0,0,0,0,0,0
3,39999,38,30000,20,0,40,9999,0.100000,0,0,0.000000,6,0.000000,0.000000,0.073574,0,0,0,0,0,0,0
3,39999,39,30000,20,0,40,9999,0.100000,0,0,0.000000,6,0.000000,0.000000,0.083886,0,0,0,0,0,0,0
3,39999,40,30000,7,10000,40,9999,0.100000,0,0,0.000000,6,0.000000,0.000000,2.726315,0,0,0,0,0,0,0
3,39999,41,30000,0,10000,40,9999,0.135000,0,0,0.000000,6,0.000000,0.000000,0.092177,0,0,0,0,0,0,0
3,39999,42,30000,0,0,40,9999,0.100000,0,0,0.000000,6,0.000000,0.000000,0.390262,0,0,0,0,0,0,0
3,39999,43,30000,0,10000,40,9999,0.100000,0,0,0.000000,6,0.000000,0.000000,0.476352,0,0,0,0,0,0,0
3,39999,44,30000,7,10000,49,9999,0.100000,0,0,0.000000,6,12.000000,0.000000,14.224259,0,0,0,0,0,0,0
3,39999,45,30000,20,0,49,9999,0.100000,0,0,0.000000,6,2.000000,0.000000,14.398182,0,0,0,0,0,0,0
3,39999,46,30000,0,10000,40,9999,0.100000,0,0,0.000000,6,0.000000,0.000000,2.382879,0,0,0,0,0,0,0
3,39999,47,30000,4,10000,40,9999,0.100000,0,0,0.000000,6,0.000000,0.000000,13.243816,0,0,0,0,0,0,0
3,39999,48,30000,20,0,49,9999,0.100000,0,0,0.000000,6,2.000000,0.000000,11.161101,0,0,0,0,0,0,0
3,39999,49,30000,54,20000,49,9999,0.100000,0,0,0.000000,6,11.000000,0.000000,12.565225,0,0,0,0,0,0,0
3,39999,50,30000,72,10000,40,9999,0.100000,0,0,0.000000,6,0.000000,0.000000,0.227031,0,0,0,0,0,0,0
3,39999,51,30000,54,20000,40,9999,0.100000,0,0,0.000000,6,0.000000,0.000000,1.235315,0,0,0,0,0,0,0
3,39999,52,30000,54,20000,40,9999,0.100000,0,0,0.000000,6,0.000000,0.000000,0.786756,0,0,0,0,0,0,0
3,39999,53,30000,54,20000,40,9999,0.100000,0,0,0.000000,6,0.000000,0.000000,1.583027,0,0,0,0,0,0,0
3,39999,54,30000,0,10000,40,9999,0.100000,0,0,0.000000,6,0.000000,0.000000,9.818527,0,0,0,0,0,0,0
3,39999,55,30000,54,20000,49,9999,0.100000,0,0,0.000000,6,2.000000,0.000000,12.935941,0,0,0,0,0,0,0
3,39999,56,30000,20,0,40,9999,0.100000,0,0,0.000000,6,0.000000,0.000000,1.347779,0,0,0,0,0,0,0
3,39999,57,30000,0,0,49,9999,0.100000,0,0,0.000000,6,3.000000,0.000000,18.225490,0,0,0,0,0,0,0
3,39999,58,30000,0,0,40,9999,0.135000,0,0,0.000000,6,0.000000,0.000000,1.256154,0,0,0,0,0,0,0
3,39999,59,30000,72,10000,49,9999,0.100000,0,0,0.000000,6,2.000000,0.000000,11.375640,0,0,0,0,0,0,0
3,39999,60,30000,0,10000,40,9999,0.100000,0,0,0.000000,6,0.000000,0.000000,0.276031,0,0,0,0,0,0,0
3,39999,61,30000,20,0,40,9999,0.100000,0,0,0.000000,6,0.000000,0.000000,0.119725,0,0,0,0,0,0,0
3,39999,62,30000,0,0,49,9999,0.100000,0,0,0.000000,6,4.000000,0.000000,7.690256,0,0,0,0,0,0,0
3,39999,63,30000,72,10000,49,9999,0.100000,0,0,0.000000,6,1.000000,0.000000,14.722985,0,0,0,0,0,0,0
3,39999,64,30000,0,10000,40,9999,0.100000,0,0,0.000000,6,0.000000,0.000000,1.971607,0,0,0,0,0,0,0
3,39999,65,30000,72,10000,40,9999,0.100000,0,0,0.000000,6,0.000000,0.000000,0.167889,0,0,0,0,0,0,0
3,39999,66,30000,0,0,40,9999,0.100000,0,0,0.000000,6,0.000000,0.000000,0.176128,0,0,0,0,0,0,0
3,39999,67,30000,72,10000,40,9999,0.100000,0,0,0.000000,6,0.000000,0.000000,0.380498,0,0,0,0,0,0,0
3,39999,68,30000,20,0,40,9999,0.100000,0,0,0.000000,6,0.000000,0.000000,0.860681,0,0,0,0,0,0,0
3,39999,69,30000,7,10000,40,9999,0.100000,0,0,0.000000,6,0.000000,0.000000,0.141240,0,0,0,0,0,0,0
3,39999,70,30000,54,20000,49,9999,0.100000,0,0,0.000000,6,1.000000,0.000000,3.069866,0,0,0,0,0,0,0
3,39999,71,30000,72,10000,49,9999,0.100000,0,0,0.000000,6,2.000000,0.000000,10.670601,0,0,0,0,0,0,0
3,39999,72,30000,0,0,40,9999,0.100000,0,0,0.000000,6,0.000000,0.000000,0.104876,0,0,0,0,0,0,0
3,39999,73,30000,0,10000,40,9999,0.100000,0,0,0.000000,6,0.000000,0.000000,0.679321,0,0,0,0,0,0,0
3,39999,74,30000,72,10000,49,9999,0.100000,0,0,0.000000,6,2.000000,0.000000,9.063063,0,0,0,0,0,0,0
3,39999,75,30000,72,10000,40,9999,0.100000,0,0,0.000000,6,0.000000,0.000000,0.372194,0,0,0,0,0,0,0
3,39999,76,30000,72,10000,40,9999,0.100000,0,0,0.000000,6,0.000000,0.000000,0.697264,0,0,0,0,0,0,0
3,39999,77,30000,72,10000,49,9999,0.100000,0,0,0.000000,6,2.000000,0.000000,5.801619,0,0,0,0,0,0,0
3,39999,78,30000,0,0,40,9999,0.100000,0,0,0.000000,6,0.000000,0.000000,0.370095,0,0,0,0,0,0,0
3,39999,79,30000,4,10000,40,9999,0.100000,0,0,0.000000,6,0.000000,0.000000,0.108031,0,0,0,0,0,0,0
3,39999,80,30000,7,10000,49,9999,0.100000,0,0,0.000000,6,2.000000,0.000000,3.084894,0,0,0,0,0,0,0
3,39999,81,30000,72,10000,40,9999,0.100000,0,0,0.000000,6,0.000000,0.000000,1.505053,0,0,0,0,0,0,0
3,39999,82,30000,4,10000,40,9999,0.100000,0,0,0.000000,6,0.000000,0.000000,0.760968,0,0,0,0,0,0,0
3,39999,83,30000,54,20000,40,9999,0.100000,0,0,0.000000,6,0.000000,0.000000,0.213553,0,0,0,0,0,0,0
3,39999,84,30000,0,10000,49,9999,0.100000,0,0,0.000000,6,2.000000,0.000000,3.883407,0,0,0,0,0,0,0
3,39999,85,30000,4,10000,40,9999,0.100000,0,0,0.000000,6,0.000000,0.000000,0.534135,0,0,0,0,0,0,0
3,39999,86,30000,4,10000,49,9999,0.100000,0,0,0.000000,6,2.000000,0.000000,10.096501,0,0,0,0,0,0,0
3,39999,87,30000,54,20000,40,9999,0.100000,0,0,0.000000,6,0.000000,0.000000,1.277142,0,0,0,0,0,0,0
3,39999,88,30000,72,10000,40,9999,0.100000,0,0,0.000000,6,0.000000,0.000000,0.223001,0,0,0,0,0,0,0
3,39999,89,30000,0,0,40,9999,0.100000,0,0,0.000000,6,0.000000,0.000000,0.180913,0,0,0,0,0,0,0
3,39999,90,30000,54,20000,40,9999,0.100000,0,0,0.000000,6,0.000000,0.000000,0.841591,0,0,0,0,0,0,0
3,39999,91,30000,4,10000,40,9999,0.100000,0,0,0.000000,6,0.000000,0.000000,1.800198,0,0,0,0,0,0,0
3,39999,92,30000,20,0,40,9999,0.100000,0,0,0.000000,6,0.000000,0.000000,0.816536,0,0,0,0,0,0,0
3,39999,93,30000,0,10000,40,9999,0.100000,0,0,0.000000,6,0.000000,0.000000,0.067735,0,0,0,0,0,0,0
3,39999,94,30000,20,0,40,9999,0.100000,0,0,0.000000,6,0.000000,0.000000,1.305497,0,0,0,0,0,0,0
3,39999,95,30000,72,10000,49,9999,0.100000,0,0,0.000000,6,1.000000,0.000000,11.795711,0,0,0,0,0,0,0
3,39999,96,30000,72,10000,40,9999,0.100000,0,0,0.000000,6,0.000000,0.000000,0.228776,0,0,0,0,0,0,0
3,39999,97,30000,20,0,40,9999,0.100000,0,0,0.000000,6,0.000000,0.000000,0.223233,0,0,0,0,0,0,0
3,39999,98,30000,72,10000,40,9999,0.100000,0,0,0.000000,6,0.000000,0.000000,4.048434,0,0,0,0,0,0,0
3,39999,99,30000,72,10000,49,9999,0.100000,0,0,0.000000,6,2.000000,0.000000,14.366009,0,0,0,0,0,0,0
4,49999,0,40000,72,10000,40,9999,0.100000,0,0,0.000000,6,0.000000,0.000000,1.641621,0,0,0,0,0,0,0
4,49999,1,40000,0,30000,40,9999,0.100000,0,0,0.000000,6,0.000000,0.000000,0.498601,0,0,0,0,0,0,0
4,49999,2,40000,20,0,49,9999,0.100000,0,0,0.000000,6,1.000000,0.000000,3.772486,0,0,0,0,0,0,0
4,49999,3,40000,4,10000,40,9999,0.100000,0,0,0.000000,6,0.000000,0.000000,0.088303,0,0,0,0,0,0,0
4,49999,4,40000,7,30000,40,9999,0.100000,0,0,0.000000,6,0.000000,0.000000,0.129598,0,0,0,0,0,0,0
4,49999,5,40000,0,30000,40,9999,0.100000,0,0,0.000000,6,0.000000,0.000000,0.544385,0,0,0,0,0,0,0
4,49999,6,40000,0,30000,40,9999,0.100000,0,0,0.000000,6,0.000000,0.000000,0.145131,0,0,0,0,0,0,0
4,49999,7,40000,20,0,40,9999,0.100000,0,0,0.000000,6,0.000000,0.000000,0.676774,0,0,0,0,0,0,0
4,49999,8,40000,0,30000,40,9999,0.100000,0,0,0.000000,6,0.000000,0.000000,2.192543,0,0,0,0,0,0,0
4,49999,9,40000,7,30000,49,9999,0.100000,0,0,0.000000,6,5.000000,0.000000,7.833894,0,0,0,0,0,0,0
4,49999,10,40000,0,30000,40,9999,0.100000,0,0,0.000000,6,0.000000,0.000000,2.284674,0,0,0,0,0,0,0
4,49999,11,40000,0,0,40,9999,0.100000,0,0,0.000000,6,0.000000,0.000000,3.637542,0,0,0,0,0,0,0
4,49999,12,40000,54,20000,40,9999,0.100000,0,0,0.000000,6,0.000000,0.000000,0.721879,0,0,0,0,0,0,0
4,49999,13,40000,7,30000,40,9999,0.100000,0,0,0.000000,6,0.000000,0.000000,0.900730,0,0,0,0,0,0,0
4,49999,14,40000,0,0,40,9999,0.100000,0,0,0.000000,6,0.000000,0.000000,0.106366,0,0,0,0,0,0,0
4,49999,15,40000,0,30000,40,9999,0.100000,0,0,0.000000,6,0.000000,0.000000,0.458975,0,0,0,0,0,0,0
4,49999,16,40000,20,0,40,9999,0.100000,0,0,0.000000,6,0.000000,0.000000,1.681448,0,0,0,0,0,0,0
4,49999,17,40000,7,30000,40,9999,0.100000,0,0,0.000000,6,0.000000,0.000000,0.806199,0,0,0,0,0,0,0
4,49999,18,40000,0,30000,49,9999,0.100000,0,0,0.000000,6,5.000000,0.000000,8.871628,0,0,0,0,0,0,0
4,49999,19,40000,0,10000,40,9999,0.100000,0,0,0.000000,6,0.000000,0.000000,1.649532,0,0,0,0,0,0,0
4,49999,20,40000,4,10000,40,9999,0.100000,0,0,0.000000,6,0.000000,0.000000,0.096089,0,0,0,0,0,0,0
4,49999,21,40000,0,30000,49,9999,0.100000,0,0,0.000000,6,8.000000,0.000000,18.506655,0,0,0,0,0,0,0
4,49999,22,40000,0,30000,49,9999,0.100000,0,0,0.000000,6,6.000000,0.000000,8.544098,0,0,0,0,0,0,0
4,49999,23,40000,4,10000,40,9999,0.100000,0,0,0.000000,6,0.000000,0.000000,1.377088,0,0,0,0,0,0,0
4,49999,24,40000,7,30000,40,9999,0.100000,0,0,0.000000,6,0.000000,0.000000,0.330417,0,0,0,0,0,0,0
4,49999,25,40000,72,10000,40,9999,0.100000,0,0,0.000000,6,0.000000,0.000000,0.486484,0,0,0,0,0,0,0
4,49999,26,40000,4,10000,40,9999,0.100000,0,0,0.000000,6,0.000000,0.000000,0.863014,0,0,0,0,0,0,0
4,49999,27,40000,72,10000,40,9999,0.100000,0,0,0.000000,6,0.000000,0.000000,0.979797,0,0,0,0,0,0,0
4,49999,28,40000,72,10000,40,9999,0.100000,0,0,0.000000,6,0.000000,0.000000,0.126794,0,0,0,0,0,0,0
4,49999,29,40000,7,30000,49,9999,0.100000,0,0,0.000000,6,1.000000,0.000000,2.857207,0,0,0,0,0,0,0
4,49999,30,40000,7,30000,49,9999,0.100000,0,0,0.000000,6,2.000000,0.000000,8.527346,0,0,0,0,0,0,0
4,49999,31,40000,0,0,49,9999,0.100000,0,0,0.000000,6,12.000000,0.000000,12.901158,0,0,0,0,0,0,0
4,49999,32,40000,0,0,40,9999,0.100000,0,0,0.000000,6,0.000000,0.000000,0.076246,0,0,0,0,0,0,0
4,49999,33,40000,0,30000,40,9999,0.100000,0,0,0.000000,6,0.000000,0.000000,0.352358,0,0,0,0,0,0,0
4,49999,34,40000,0,0,40,9999,0.100000,0,0,0.000000,6,0.000000,0.000000,0.159727,0,0,0,0,0,0,0
4,49999,35,40000,7,30000,40,9999,0.100000,0,0,0.000000,6,0.000000,0.000000,0.213593,0,0,0,0,0,0,0
4,49999,36,40000,4,10000,49,9999,0.135000,0,0,0.000000,6,7.000000,0.000000,8.758305,0,0,0,0,0,0,0
4,49999,37,40000,7,30000,40,9999,0.100000,0,0,0.000000,6,0.000000,0.000000,0.157263,0,0,0,0,0,0,0
4,49999,38,40000,20,0,40,9999,0.100000,0,0,0.000000,6,0.000000,0.000000,0.070798,0,0,0,0,0,0,0
4,49999,39,40000,4,10000,40,9999,0.100000,0,0,0.000000,6,0.000000,0.000000,0.082132,0,0,0,0,0,0,0
4,49999,40,40000,0,0,40,9999,0.100000,0,0,0.000000,6,0.000000,0.000000,2.418564,0,0,0,0,0,0,0
4,49999,41,40000,20,0,40,9999,0.100000,0,0,0.000000,6,0.000000,0.000000,0.090172,0,0,0,0,0,0,0
4,49999,42,40000,0,0,40,9999,0.100000,0,0,0.000000,6,0.000000,0.000000,0.577691,0,0,0,0,0,0,0
4,49999,43,40000,54,20000,40,9999,0.100000,0,0,0.000000,6,0.000000,0.000000,0.914306,0,0,0,0,0,0,0
4,49999,44,40000,4,10000,40,9999,0.100000,0,0,0.000000,6,0.000000,0.000000,0.115874,0,0,0,0,0,0,0
4,49999,45,40000,0,30000,49,9999,0.100000,0,0,0.000000,6,7.000000,0.000000,11.719357,0,0,0,0,0,0,0
4,49999,46,40000,0,0,40,9999,0.100000,0,0,0.000000,6,0.000000,0.000000,1.300047,0,0,0,0,0,0,0
4,49999,47,40000,0,30000,49,9999,0.100000,0,0,0.000000,6,14.000000,0.000000,16.866627,0,0,0,0,0,0,0
4,49999,48,40000,4,10000,40,9999,0.100000,0,0,0.000000,6,0.000000,0.000000,8.204807,0,0,0,0,0,0,0
4,49999,49,40000,0,0,49,9999,0.100000,0,0,0.000000,6,11.000000,0.000000,16.053841,0,0,0,0,0,0,0
4,49999,50,40000,72,10000,40,9999,0.100000,0,0,0.000000,6,0.000000,0.000000,0.224722,0,0,0,0,0,0,0
4,49999,51,40000,7,30000,49,9999,0.100000,0,0,0.000000,6,12.000000,0.000000,12.623982,0,0,0,0,0,0,0
4,49999,52,40000,4,10000,40,9999,0.100000,0,0,0.000000,6,0.000000,0.000000,0.624872,0,0,0,0,0,0,0
4,49999,53,40000,7,30000,40,9999,0.100000,0,0,0.000000,6,0.000000,0.000000,0.171467,0,0,0,0,0,0,0
4,49999,54,40000,72,10000,40,9999,0.100000,0,0,0.000000,6,0.000000,0.000000,1.822767,0,0,0,0,0,0,0
4,49999,55,40000,72,10000,49,9999,0.100000,0,0,0.000000,6,1.000000,0.000000,14.192340,0,0,0,0,0,0,0
4,49999,56,40000,4,10000,40,9999,0.100000,0,0,0.000000,6,0.000000,0.000000,1.878005,0,0,0,0,0,0,0
4,49999,57,40000,0,30000,40,9999,0.100000,0,0,0.000000,6,0.000000,0.000000,21.534512,0,0,0,0,0,0,0
4,49999,58,40000,0,30000,40,9999,0.100000,0,0,0.000000,6,0.000000,0.000000,2.490566,0,0,0,0,0,0,0
4,49999,59,40000,0,30000,49,9999,0.100000,0,0,0.000000,6,3.000000,0.000000,15.689806,0,0,0,0,0,0,0
4,49999,60,40000,0,30000,40,9999,0.100000,0,0,0.000000,6,0.000000,0.000000,0.120747,0,0,0,0,0,0,0
4,49999,61,40000,4,10000,40,9999,0.100000,0,0,0.000000,6,0.000000,0.000000,0.314739,0,0,0,0,0,0,0
4,49999,62,40000,0,30000,49,9999,0.100000,0,0,0.000000,6,3.000000,0.000000,3.318891,0,0,0,0,0,0,0
4,49999,63,40000,20,0,49,9999,0.100000,0,0,0.000000,6,1.000000,0.000000,9.924105,0,0,0,0,0,0,0
4,49999,64,40000,72,10000,49,9999,0.100000,0,0,0.000000,6,1.000000,0.000000,19.843891,0,0,0,0,0,0,0
4,49999,65,40000,0,30000,40,9999,0.100000,0,0,0.000000,6,0.000000,0.000000,0.140535,0,0,0,0,0,0,0
4,49999,66,40000,0,0,40,9999,0.100000,0,0,0.000000,6,0.000000,0.000000,0.130442,0,0,0,0,0,0,0
4,49999,67,40000,20,0,40,9999,0.100000,0,0,0.000000,6,0.000000,0.000000,0.140923,0,0,0,0,0,0,0
4,49999,68,40000,20,0,40,9999,0.100000,0,0,0.000000,6,0.000000,0.000000,0.803566,0,0,0,0,0,0,0
4,49999,69,40000,54,20000,40,9999,0.100000,0,0,0.000000,6,0.000000,0.000000,0.146078,0,0,0,0,0,0,0
4,49999,70,40000,20,0,40,9999,0.100000,0,0,0.000000,6,0.000000,0.000000,0.098368,0,0,0,0,0,0,0
4,49999,71,40000,72,10000,40,9999,0.100000,0,0,0.000000,6,0.000000,0.000000,4.770457,0,0,0,0,0,0,0
4,49999,72,40000,4,10000,40,9999,0.100000,0,0,0.000000,6,0.000000,0.000000,0.104005,0,0,0,0,0,0,0
4,49999,73,40000,4,10000,40,9999,0.100000,0,0,0.000000,6,0.000000,0.000000,0.489920,0,0,0,0,0,0,0
4,49999,74,40000,72,10000,40,9999,0.100000,0,0,0.000000,6,0.000000,0.000000,9.670709,0,0,0,0,0,0,0
4,49999,75,40000,20,0,40,9999,0.100000,0,0,0.000000,6,0.000000,0.000000,0.408640,0,0,0,0,0,0,0
4,49999,76,40000,0,0,40,9999,0.100000,0,0,0.000000,6,0.000000,0.000000,0.721772,0,0,0,0,0,0,0
4,49999,77,40000,0,30000,40,9999,0.100000,0,0,0.000000,6,0.000000,0.000000,0.291177,0,0,0,0,0,0,0
4,49999,78,40000,72,10000,40,9999,0.100000,0,0,0.000000,6,0.000000,0.000000,0.103995,0,0,0,0,0,0,0
4,49999,79,40000,72,10000,49,9999,0.100000,0,0,0.000000,6,5.000000,0.000000,11.482938,0,0,0,0,0,0,0
4,49999,80,40000,72,10000,40,9999,0.100000,0,0,0.000000,6,0.000000,0.000000,0.150059,0,0,0,0,0,0,0
4,49999,81,40000,20,0,40,9999,0.100000,0,0,0.000000,6,0.000000,0.000000,1.000585,0,0,0,0,0,0,0
4,49999,82,40000,20,0,40,9999,0.100000,0,0,0.000000,6,0.000000,0.000000,0.443972,0,0,0,0,0,0,0
4,49999,83,40000,20,0,40,9999,0.100000,0,0,0.000000,6,0.000000,0.000000,0.204210,0,0,0,0,0,0,0
4,49999,84,40000,0,30000,40,9999,0.100000,0,0,0.000000,6,0.000000,0.000000,0.095190,0,0,0,0,0,0,0
4,49999,85,40000,0,0,40,9999,0.100000,0,0,0.000000,6,0.000000,0.000000,0.142732,0,0,0,0,0,0,0
4,49999,86,40000,7,30000,49,9999,0.100000,0,0,0.000000,6,10.000000,0.000000,10.563596,0,0,0,0,0,0,0
4,49999,87,40000,20,0,40,9999,0.100000,0,0,0.000000,6,0.000000,0.000000,0.475683,0,0,0,0,0,0,0
4,49999,88,40000,4,10000,40,9999,0.100000,0,0,0.000000,6,0.000000,0.000000,0.129435,0,0,0,0,0,0,0
4,49999,89,40000,7,30000,40,9999,0.100000,0,0,0.000000,6,0.000000,0.000000,0.095234,0,0,0,0,0,0,0
4,49999,90,40000,20,0,40,9999,0.100000,0,0,0.000000,6,0.000000,0.000000,0.272654,0,0,0,0,0,0,0
4,49999,91,40000,0,0,40,9999,0.100000,0,0,0.000000,6,0.000000,0.000000,0.638072,0,0,0,0,0,0,0
4,49999,92,40000,0,30000,40,9999,0.100000,0,0,0.000000,6,0.000000,0.000000,3.420220,0,0,0,0,0,0,0
4,49999,93,40000,0,30000,49,9999,0.100000,0,0,0.000000,6,5.000000,0.000000,10.212250,0,0,0,0,0,0,0
4,49999,94,40000,4,10000,40,9999,0.100000,0,0,0.000000,6,0.000000,0.000000,0.910109,0,0,0,0,0,0,0
4,49999,95,40000,0,0,49,9999,0.100000,0,0,0.000000,6,2.000000,0.000000,9.016615,0,0,0,0,0,0,0
4,49999,96,40000,4,10000,40,9999,0.135000,0,0,0.000000,6,0.000000,0.000000,0.143070,0,0,0,0,0,0,0
4,49999,97,40000,0,0,40,9999,0.100000,0,0,0.000000,6,0.000000,0.000000,0.234504,0,0,0,0,0,0,0
4,49999,98,40000,72,10000,40,9999,0.100000,0,0,0.000000,6,0.000000,0.000000,0.242568,0,0,0,0,0,0,0
4,49999,99,40000,4,10000,49,9999,0.100000,0,0,0.000000,6,1.000000,0.000000,6.891116,0,0,0,0,0,0,0
5,59999,0,50000,7,30000,40,9999,0.100000,0,0,0.000000,6,0.000000,0.000000,0.973734,0,0,0,0,0,0,0
5,59999,1,50000,7,30000,40,9999,0.100000,0,0,0.000000,6,0.000000,0.000000,0.514825,0,0,0,0,0,0,0
5,59999,2,50000,0,40000,40,9999,0.100000,0,0,0.000000,6,0.000000,0.000000,0.989741,0,0,0,0,0,0,0
5,59999,3,50000,7,30000,40,9999,0.100000,0,0,0.000000,6,0.000000,0.000000,0.109941,0,0,0,0,0,0,0
5,59999,4,50000,72,10000,40,9999,0.100000,0,0,0.000000,6,0.000000,0.000000,0.128688,0,0,0,0,0,0,0
5,59999,5,50000,4,10000,40,9999,0.100000,0,0,0.000000,6,0.000000,0.000000,0.571249,0,0,0,0,0,0,0
5,59999,6,50000,7,30000,40,9999,0.100000,0,0,0.000000,6,0.000000,0.000000,0.147131,0,0,0,0,0,0,0
5,59999,7,50000,0,40000,40,9999,0.100000,0,0,0.000000,6,0.000000,0.000000,0.473753,0,0,0,0,0,0,0
5,59999,8,50000,72,10000,40,9999,0.100000,0,0,0.000000,6,0.000000,0.000000,0.104721,0,0,0,0,0,0,0
5,59999,9,50000,20,0,40,9999,0.100000,0,0,0.000000,6,0.000000,0.000000,1.738929,0,0,0,0,0,0,0
5,59999,10,50000,20,0,40,9999,0.100000,0,0,0.000000,6,0.000000,0.000000,0.576727,0,0,0,0,0,0,0
5,59999,11,50000,0,40000,40,9999,0.100000,0,0,0.000000,6,0.000000,0.000000,17.804969,0,0,0,0,0,0,0
5,59999,12,50000,0,40000,49,9999,0.100000,0,0,0.000000,6,1.000000,0.000000,1.803981,0,0,0,0,0,0,0
5,59999,13,50000,7,30000,40,9999,0.100000,0,0,0.000000,6,0.000000,0.000000,0.902324,0,0,0,0,0,0,0
5,59999,14,50000,0,0,40,9999,0.100000,0,0,0.000000,6,0.000000,0.000000,0.163291,0,0,0,0,0,0,0
5,59999,15,50000,7,30000,40,9999,0.100000,0,0,0.000000,6,0.000000,0.000000,0.254315,0,0,0,0,0,0,0
5,59999,16,50000,72,10000,40,9999,0.100000,0,0,0.000000,6,0.000000,0.000000,0.082690,0,0,0,0,0,0,0
5,59999,17,50000,7,30000,40,9999,0.100000,0,0,0.000000,6,0.000000,0.000000,0.746081,0,0,0,0,0,0,0
5,59999,18,50000,0,0,40,9999,0.100000,0,0,0.000000,6,0.000000,0.000000,1.922825,0,0,0,0,0,0,0
5,59999,19,50000,7,30000,40,9999,0.100000,0,0,0.000000,6,0.000000,0.000000,2.225483,0,0,0,0,0,0,0
5,59999,20,50000,20,0,40,9999,0.100000,0,0,0.000000,6,0.000000,0.000000,0.096754,0,0,0,0,0,0,0
5,59999,21,50000,7,30000,40,9999,0.100000,0,0,0.000000,6,0.000000,0.000000,1.110803,0,0,0,0,0,0,0
5,59999,22,50000,0,0,49,9999,0.100000,0,0,0.000000,6,3.000000,0.000000,10.853203,0,0,0,0,0,0,0
5,59999,23,50000,20,0,40,9999,0.100000,0,0,0.000000,6,0.000000,0.000000,1.250441,0,0,0,0,0,0,0
5,59999,24,50000,20,0,40,9999,0.100000,0,0,0.000000,6,0.000000,0.000000,0.211595,0,0,0,0,0,0,0
5,59999,25,50000,0,30000,40,9999,0.100000,0,0,0.000000,6,0.000000,0.000000,0.346107,0,0,0,0,0,0,0
5,59999,26,50000,7,30000,40,9999,0.100000,0,0,0.000000,6,0.000000,0.000000,0.800226,0,0,0,0,0,0,0
5,59999,27,50000,0,30000,40,9999,0.100000,0,0,0.000000,6,0.000000,0.000000,1.025332,0,0,0,0,0,0,0
5,59999,28,50000,4,10000,40,9999,0.100000,0,0,0.000000,6,0.000000,0.000000,0.113590,0,0,0,0,0,0,0
5,59999,29,50000,4,10000,49,9999,0.100000,0,0,0.000000,6,2.000000,0.000000,3.710094,0,0,0,0,0,0,0
5,59999,30,50000,0,0,49,9999,0.100000,0,0,0.000000,6,2.000000,0.000000,11.768957,0,0,0,0,0,0,0
5,59999,31,50000,4,10000,49,9999,0.100000,0,0,0.000000,6,1.000000,0.000000,2.540406,0,0,0,0,0,0,0
5,59999,32,50000,0,40000,40,9999,0.100000,0,0,0.000000,6,0.000000,0.000000,0.077895,0,0,0,0,0,0,0
5,59999,33,50000,4,10000,40,9999,0.100000,0,0,0.000000,6,0.000000,0.000000,0.348207,0,0,0,0,0,0,0
5,59999,34,50000,4,10000,40,9999,0.100000,0,0,0.000000,6,0.000000,0.000000,0.140601,0,0,0,0,0,0,0
5,59999,35,50000,0,40000,40,9999,0.100000,0,0,0.000000,6,0.000000,0.000000,0.211999,0,0,0,0,0,0,0
5,59999,36,50000,4,10000,40,9999,0.100000,0,0,0.000000,6,0.000000,0.000000,0.317006,0,0,0,0,0,0,0
5,59999,37,50000,20,0,40,9999,0.100000,0,0,0.000000,6,0.000000,0.000000,0.123829,0,0,0,0,0,0,0
5,59999,38,50000,20,0,40,9999,0.100000,0,0,0.000000,6,0.000000,0.000000,0.084502,0,0,0,0,0,0,0
5,59999,39,50000,20,0,40,9999,0.100000,0,0,0.000000,6,0.000000,0.000000,0.079906,0,0,0,0,0,0,0
5,59999,40,50000,4,10000,40,9999,0.100000,0,0,0.000000,6,0.000000,0.000000,1.871459,0,0,0,0,0,0,0
5,59999,41,50000,72,10000,40,9999,0.100000,0,0,0.000000,6,0.000000,0.000000,0.088857,0,0,0,0,0,0,0
5,59999,42,50000,20,0,40,9999,0.100000,0,0,0.000000,6,0.000000,0.000000,0.148545,0,0,0,0,0,0,0
5,59999,43,50000,0,30000,40,9999,0.100000,0,0,0.000000,6,0.000000,0.000000,1.103315,0,0,0,0,0,0,0
5,59999,44,50000,72,10000,40,9999,0.100000,0,0,0.000000,6,0.000000,0.000000,0.096404,0,0,0,0,0,0,0
5,59999,45,50000,7,30000,40,9999,0.100000,0,0,0.000000,6,0.000000,0.000000,0.136807,0,0,0,0,0,0,0
5,59999,46,50000,72,10000,40,9999,0.100000,0,0,0.000000,6,0.000000,0.000000,1.921173,0,0,0,0,0,0,0
5,59999,47,50000,72,10000,40,9999,0.100000,0,0,0.000000,6,0.000000,0.000000,0.574820,0,0,0,0,0,0,0
5,59999,48,50000,0,0,40,9999,0.100000,0,0,0.000000,6,0.000000,0.000000,8.303160,0,0,0,0,0,0,0
5,59999,49,50000,7,30000,40,9999,0.100000,0,0,0.000000,6,0.000000,0.000000,0.096608,0,0,0,0,0,0,0
5,59999,50,50000,72,10000,40,9999,0.100000,0,0,0.000000,6,0.000000,0.000000,0.217032,0,0,0,0,0,0,0
5,59999,51,50000,72,10000,9,9999,0.100000,0,0,0.000000,6,4.000000,0.000000,6.466395,0,0,0,1,0,0,0
5,59999,52,50000,7,30000,49,9999,0.100000,0,0,0.000000,6,1.000000,0.000000,4.364266,0,0,0,0,0,0,0
5,59999,53,50000,0,0,40,9999,0.100000,0,0,0.000000,6,0.000000,0.000000,0.152047,0,0,0,0,0,0,0
5,59999,54,50000,0,0,40,9999,0.100000,0,0,0.000000,6,0.000000,0.000000,0.859489,0,0,0,0,0,0,0
5,59999,55,50000,72,10000,40,9999,0.100000,0,0,0.000000,6,0.000000,0.000000,12.372009,0,0,0,0,0,0,0
5,59999,56,50000,7,30000,40,9999,0.100000,0,0,0.000000,6,0.000000,0.000000,1.084833,0,0,0,0,0,0,0
5,59999,57,50000,0,40000,40,9999,0.100000,0,0,0.000000,6,0.000000,0.000000,21.645018,0,0,0,0,0,0,0
5,59999,58,50000,4,10000,40,9999,0.100000,0,0,0.000000,6,0.000000,0.000000,0.103806,0,0,0,0,0,0,0
5,59999,59,50000,0,40000,49,9999,0.100000,0,0,0.000000,6,1.000000,0.000000,13.275974,0,0,0,0,0,0,0
5,59999,60,50000,7,30000,40,9999,0.100000,0,0,0.000000,6,0.000000,0.000000,0.107028,0,0,0,0,0,0,0
5,59999,61,50000,20,0,40,9999,0.100000,0,0,0.000000,6,0.000000,0.000000,0.331012,0,0,0,0,0,0,0
5,59999,62,50000,0,0,40,9999,0.100000,0,0,0.000000,6,0.000000,0.000000,0.236077,0,0,0,0,0,0,0
5,59999,63,50000,7,30000,49,9999,0.100000,0,0,0.000000,6,2.000000,0.000000,12.919312,0,0,0,0,0,0,0
5,59999,64,50000,4,10000,40,9999,0.100000,0,0,0.000000,6,0.000000,0.000000,1.093738,0,0,0,0,0,0,0
5,59999,65,50000,0,0,40,9999,0.100000,0,0,0.000000,6,0.000000,0.000000,0.142592,0,0,0,0,0,0,0
5,59999,66,50000,72,10000,40,9999,0.100000,0,0,0.000000,6,0.000000,0.000000,0.368074,0,0,0,0,0,0,0
5,59999,67,50000,72,10000,40,9999,0.100000,0,0,0.000000,6,0.000000,0.000000,0.173440,0,0,0,0,0,0,0
5,59999,68,50000,4,10000,49,9999,0.100000,0,0,0.000000,6,3.000000,0.000000,3.862882,0,0,0,0,0,0,0
5,59999,69,50000,4,10000,40,9999,0.100000,0,0,0.000000,6,0.000000,0.000000,0.147384,0,0,0,0,0,0,0
5,59999,70,50000,72,10000,40,9999,0.100000,0,0,0.000000,6,0.000000,0.000000,0.087970,0,0,0,0,0,0,0
5,59999,71,50000,4,10000,40,9999,0.100000,0,0,0.000000,6,0.000000,0.000000,1.738306,0,0,0,0,0,0,0
5,59999,72,50000,20,0,40,9999,0.100000,0,0,0.000000,6,0.000000,0.000000,0.138110,0,0,0,0,0,0,0
5,59999,73,50000,4,10000,40,9999,0.100000,0,0,0.000000,6,0.000000,0.000000,0.488918,0,0,0,0,0,0,0
5,59999,74,50000,7,30000,49,9999,0.100000,0,0,0.000000,6,2.000000,0.000000,12.764051,0,0,0,0,0,0,0
5,59999,75,50000,20,0,40,9999,0.100000,0,0,0.000000,6,0.000000,0.000000,0.364467,0,0,0,0,0,0,0
5,59999,76,50000,0,40000,40,9999,0.100000,0,0,0.000000,6,0.000000,0.000000,0.694149,0,0,0,0,0,0,0
5,59999,77,50000,0,40000,49,9999,0.100000,0,0,0.000000,6,4.000000,0.000000,16.264976,0,0,0,0,0,0,0
5,59999,78,50000,20,0,40,9999,0.100000,0,0,0.000000,6,0.000000,0.000000,0.098823,0,0,0,0,0,0,0
5,59999,79,50000,0,40000,40,9999,0.100000,0,0,0.000000,6,0.000000,0.000000,0.157639,0,0,0,0,0,0,0
5,59999,80,50000,20,0,40,9999,0.100000,0,0,0.000000,6,0.000000,0.000000,0.148828,0,0,0,0,0,0,0
5,59999,81,50000,7,30000,40,9999,0.100000,0,0,0.000000,6,0.000000,0.000000,0.974483,0,0,0,0,0,0,0
5,59999,82,50000,0,0,40,9999,0.100000,0,0,0.000000,6,0.000000,0.000000,0.409532,0,0,0,0,0,0,0
5,59999,83,50000,20,0,40,9999,0.100000,0,0,0.000000,6,0.000000,0.000000,0.193627,0,0,0,0,0,0,0
5,59999,84,50000,0,40000,40,9999,0.100000,0,0,0.000000,6,0.000000,0.000000,0.095074,0,0,0,0,0,0,0
5,59999,85,50000,0,40000,40,9999,0.100000,0,0,0.000000,6,0.000000,0.000000,0.092594,0,0,0,0,0,0,0
5,59999,86,50000,7,30000,40,9999,0.100000,0,0,0.000000,6,0.000000,0.000000,0.548292,0,0,0,0,0,0,0
5,59999,87,50000,20,0,40,9999,0.100000,0,0,0.000000,6,0.000000,0.000000,0.318044,0,0,0,0,0,0,0
5,59999,88,50000,20,0,40,9999,0.100000,0,0,0.000000,6,0.000000,0.000000,0.077707,0,0,0,0,0,0,0
5,59999,89,50000,4,10000,40,9999,0.100000,0,0,0.000000,6,0.000000,0.000000,0.092976,0,0,0,0,0,0,0
5,59999,90,50000,4,10000,40,9999,0.100000,0,0,0.000000,6,0.000000,0.000000,0.297758,0,0,0,0,0,0,0
5,59999,91,50000,0,0,40,9999,0.100000,0,0,0.000000,6,0.000000,0.000000,0.443255,0,0,0,0,0,0,0
5,59999,92,50000,20,0,40,9999,0.100000,0,0,0.000000,6,0.000000,0.000000,2.137266,0,0,0,0,0,0,0
5,59999,93,50000,0,0,40,9999,0.100000,0,0,0.000000,6,0.000000,0.000000,0.068015,0,0,0,0,0,0,0
5,59999,94,50000,72,10000,40,9999,0.100000,0,0,0.000000,6,0.000000,0.000000,1.285826,0,0,0,0,0,0,0
5,59999,95,50000,72,10000,49,9999,0.100000,0,0,0.000000,6,1.000000,0.000000,10.946150,0,0,0,0,0,0,0
5,59999,96,50000,0,40000,40,9999,0.100000,0,0,0.000000,6,0.000000,0.000000,0.135367,0,0,0,0,0,0,0
5,59999,97,50000,4,10000,40,9999,0.100000,0,0,0.000000,6,0.000000,0.000000,0.235723,0,0,0,0,0,0,0
5,59999,98,50000,0,40000,40,9999,0.100000,0,0,0.000000,6,0.000000,0.000000,0.237522,0,0,0,0,0,0,0
5,59999,99,50000,4,10000,40,9999,0.100000,0,0,0.000000,6,0.000000,0.000000,2.375574,0,0,0,0,0,0,0
6,69999,0,60000,72,10000,49,9999,0.100000,0,0,0.000000,6,2.000000,0.000000,9.522202,0,0,0,0,0,0,0
6,69999,1,60000,72,10000,40,9999,0.100000,0,0,0.000000,6,0.000000,0.000000,2.224185,0,0,0,0,0,0,0
6,69999,2,60000,20,0,40,9999,0.100000,0,0,0.000000,6,0.000000,0.000000,0.973174,0,0,0,0,0,0,0
6,69999,3,60000,4,10000,40,9999,0.100000,0,0,0.000000,6,0.000000,0.000000,0.094170,0,0,0,0,0,0,0
6,69999,4,60000,0,40000,40,9999,0.100000,0,0,0.000000,6,0.000000,0.000000,0.377632,0,0,0,0,0,0,0
6,69999,5,60000,7,30000,40,9999,0.100000,0,0,0.000000,6,0.000000,0.000000,2.372681,0,0,0,0,0,0,0
6,69999,6,60000,7,30000,40,9999,0.100000,0,0,0.000000,6,0.000000,0.000000,0.141211,0,0,0,0,0,0,0
6,69999,7,60000,72,10000,40,9999,0.100000,0,0,0.000000,6,0.000000,0.000000,0.488474,0,0,0,0,0,0,0
6,69999,8,60000,72,10000,40,9999,0.100000,0,0,0.000000,6,0.000000,0.000000,0.103407,0,0,0,0,0,0,0
6,69999,9,60000,7,30000,49,9999,0.100000,0,0,0.000000,6,3.000000,0.000000,12.038929,0,0,0,0,0,0,0
6,69999,10,60000,0,0,40,9999,0.100000,0,0,0.000000,6,0.000000,0.000000,0.688608,0,0,0,0,0,0,0
6,69999,11,60000,7,30000,40,9999,0.100000,0,0,0.000000,6,0.000000,0.000000,23.102892,0,0,0,0,0,0,0
6,69999,12,60000,20,0,40,9999,0.100000,0,0,0.000000,6,0.000000,0.000000,0.586938,0,0,0,0,0,0,0
6,69999,13,60000,4,10000,40,9999,0.100000,0,0,0.000000,6,0.000000,0.000000,8.619124,0,0,0,0,0,0,0
6,69999,14,60000,0,40000,40,9999,0.100000,0,0,0.000000,6,0.000000,0.000000,0.741124,0,0,0,0,0,0,0
6,69999,15,60000,20,0,40,9999,0.100000,0,0,0.000000,6,0.000000,0.000000,0.171399,0,0,0,0,0,0,0
6,69999,16,60000,7,30000,40,9999,0.100000,0,0,0.000000,6,0.000000,0.000000,0.076354,0,0,0,0,0,0,0
6,69999,17,60000,20,0,40,9999,0.100000,0,0,0.000000,6,0.000000,0.000000,0.742336,0,0,0,0,0,0,0
6,69999,18,60000,4,10000,40,9999,0.100000,0,0,0.000000,6,0.000000,0.000000,2.231752,0,0,0,0,0,0,0
6,69999,19,60000,20,0,40,9999,0.100000,0,0,0.000000,6,0.000000,0.000000,1.099002,0,0,0,0,0,0,0
6,69999,20,60000,4,10000,40,9999,0.100000,0,0,0.000000,6,0.000000,0.000000,0.094702,0,0,0,0,0,0,0
6,69999,21,60000,0,40000,40,9999,0.100000,0,0,0.000000,6,0.000000,0.000000,0.780834,0,0,0,0,0,0,0
6,69999,22,60000,0,0,40,9999,0.100000,0,0,0.000000,6,0.000000,0.000000,1.322915,0,0,0,0,0,0,0
6,69999,23,60000,4,10000,40,9999,0.100000,0,0,0.000000,6,0.000000,0.000000,2.832049,0,0,0,0,0,0,0
6,69999,24,60000,0,0,40,9999,0.100000,0,0,0.000000,6,0.000000,0.000000,0.402780,0,0,0,0,0,0,0
6,69999,25,60000,20,0,40,9999,0.100000,0,0,0.000000,6,0.000000,0.000000,0.877926,0,0,0,0,0,0,0
6,69999,26,60000,20,0,40,9999,0.100000,0,0,0.000000,6,0.000000,0.000000,0.371691,0,0,0,0,0,0,0
6,69999,27,60000,4,10000,40,9999,0.100000,0,0,0.000000,6,0.000000,0.000000,0.963898,0,0,0,0,0,0,0
6,69999,28,60000,0,40000,40,9999,0.100000,0,0,0.000000,6,0.000000,0.000000,0.097051,0,0,0,0,0,0,0
6,69999,29,60000,20,0,49,9999,0.100000,0,0,0.000000,6,5.000000,0.000000,13.690768,0,0,0,0,0,0,0
6,69999,30,60000,72,10000,49,9999,0.100000,0,0,0.000000,6,1.000000,0.000000,12.150505,0,0,0,0,0,0,0
6,69999,31,60000,0,0,9,9999,0.100000,0,0,0.000000,6,3.000000,0.000000,8.299175,0,0,0,0,1,0,0
6,69999,32,60000,7,30000,40,9999,0.100000,0,0,0.000000,6,0.000000,0.000000,0.460894,0,0,0,0,0,0,0
6,69999,33,60000,4,10000,40,9999,0.100000,0,0,0.000000,6,0.000000,0.000000,0.382619,0,0,0,0,0,0,0
6,69999,34,60000,20,0,40,9999,0.100000,0,0,0.000000,6,0.000000,0.000000,0.135972,0,0,0,0,0,0,0
6,69999,35,60000,0,40000,40,9999,0.065000,0,0,0.000000,6,0.000000,0.000000,0.212475,0,0,0,0,0,0,0
6,69999,36,60000,20,0,40,9999,0.100000,0,0,0.000000,6,0.000000,0.000000,0.295766,0,0,0,0,0,0,0
6,69999,37,60000,0,0,40,9999,0.100000,0,0,0.000000,6,0.000000,0.000000,0.156323,0,0,0,0,0,0,0
6,69999,38,60000,72,10000,40,9999,0.100000,0,0,0.000000,6,0.000000,0.000000,0.094048,0,0,0,0,0,0,0
6,69999,39,60000,0,0,40,9999,0.100000,0,0,0.000000,6,0.000000,0.000000,0.082936,0,0,0,0,0,0,0
6,69999,40,60000,7,30000,40,9999,0.100000,0,0,0.000000,6,0.000000,0.000000,1.809945,0,0,0,0,0,0,0
6,69999,41,60000,20,0,40,9999,0.100000,0,0,0.000000,6,0.000000,0.000000,0.090747,0,0,0,0,0,0,0
6,69999,42,60000,7,30000,40,9999,0.100000,0,0,0.000000,6,0.000000,0.000000,0.109570,0,0,0,0,0,0,0
6,69999,43,60000,7,30000,40,9999,0.100000,0,0,0.000000,6,0.000000,0.000000,0.094924,0,0,0,0,0,0,0
6,69999,44,60000,7,30000,40,9999,0.100000,0,0,0.000000,6,0.000000,0.000000,0.071743,0,0,0,0,0,0,0
6,69999,45,60000,0,40000,40,9999,0.100000,0,0,0.000000,6,0.000000,0.000000,0.141705,0,0,0,0,0,0,0
6,69999,46,60000,4,10000,40,9999,0.100000,0,0,0.000000,6,0.000000,0.000000,0.870044,0,0,0,0,0,0,0
6,69999,47,60000,72,10000,40,9999,0.100000,0,0,0.000000,6,0.000000,0.000000,0.580294,0,0,0,0,0,0,0
6,69999,48,60000,0,0,40,9999,0.100000,0,0,0.000000,6,0.000000,0.000000,8.174532,0,0,0,0,0,0,0
6,69999,49,60000,0,40000,40,9999,0.100000,0,0,0.000000,6,0.000000,0.000000,0.077030,0,0,0,0,0,0,0
6,69999,50,60000,7,30000,40,9999,0.100000,0,0,0.000000,6,0.000000,0.000000,0.220855,0,0,0,0,0,0,0
6,69999,51,60000,0,0,40,9999,0.100000,0,0,0.000000,6,0.000000,0.000000,1.188460,0,0,0,0,0,0,0
6,69999,52,60000,4,10000,40,9999,0.100000,0,0,0.000000,6,0.000000,0.000000,0.648171,0,0,0,0,0,0,0
6,69999,53,60000,4,10000,40,9999,0.100000,0,0,0.000000,6,0.000000,0.000000,0.171643,0,0,0,0,0,0,0
6,69999,54,60000,20,0,40,9999,0.100000,0,0,0.000000,6,0.000000,0.000000,0.775764,0,0,0,0,0,0,0
6,69999,55,60000,0,0,49,9999,0.100000,0,0,0.000000,6,1.000000,0.000000,9.611174,0,0,0,0,0,0,0
6,69999,56,60000,0,40000,40,9999,0.100000,0,0,0.000000,6,0.000000,0.000000,0.478852,0,0,0,0,0,0,0
6,69999,57,60000,20,0,40,9999,0.100000,0,0,0.000000,6,0.000000,0.000000,21.902826,0,0,0,0,0,0,0
6,69999,58,60000,72,10000,40,9999,0.100000,0,0,0.000000,6,0.000000,0.000000,0.099288,0,0,0,0,0,0,0
6,69999,59,60000,4,10000,49,9999,0.100000,0,0,0.000000,6,3.000000,0.000000,10.575467,0,0,0,0,0,0,0
6,69999,60,60000,0,40000,40,9999,0.100000,0,0,0.000000,6,0.000000,0.000000,0.086092,0,0,0,0,0,0,0
6,69999,61,60000,4,10000,40,9999,0.100000,0,0,0.000000,6,0.000000,0.000000,0.288093,0,0,0,0,0,0,0
6,69999,62,60000,7,30000,40,9999,0.100000,0,0,0.000000,6,0.000000,0.000000,0.299003,0,0,0,0,0,0,0
6,69999,63,60000,20,0,49,9999,0.100000,0,0,0.000000,6,1.000000,0.000000,10.161395,0,0,0,0,0,0,0
6,69999,64,60000,0,40000,40,9999,0.100000,0,0,0.000000,6,0.000000,0.000000,0.119215,0,0,0,0,0,0,0
6,69999,65,60000,72,10000,40,9999,0.100000,0,0,0.000000,6,0.000000,0.000000,0.141870,0,0,0,0,0,0,0
6,69999,66,60000,0,0,40,9999,0.100000,0,0,0.000000,6,0.000000,0.000000,0.204954,0,0,0,0,0,0,0
6,69999,67,60000,72,10000,40,9999,0.100000,0,0,0.000000,6,0.000000,0.000000,0.176806,0,0,0,0,0,0,0
6,69999,68,60000,72,10000,49,9999,0.100000,0,0,0.000000,6,2.000000,0.000000,7.128857,0,0,0,0,0,0,0
6,69999,69,60000,0,0,40,9999,0.100000,0,0,0.000000,6,0.000000,0.000000,0.284333,0,0,0,0,0,0,0
6,69999,70,60000,20,0,40,9999,0.100000,0,0,0.000000,6,0.000000,0.000000,0.088263,0,0,0,0,0,0,0
6,69999,71,60000,20,0,49,9999,0.100000,0,0,0.000000,6,2.000000,0.000000,15.635696,0,0,0,0,0,0,0
6,69999,72,60000,0,0,40,9999,0.100000,0,0,0.000000,6,0.000000,0.000000,0.097664,0,0,0,0,0,0,0
6,69999,73,60000,4,10000,40,9999,0.100000,0,0,0.000000,6,0.000000,0.000000,1.887083,0,0,0,0,0,0,0
6,69999,74,60000,7,30000,49,9999,0.100000,0,0,0.000000,6,1.000000,0.000000,11.760090,0,0,0,0,0,0,0
6,69999,75,60000,0,40000,40,9999,0.100000,0,0,0.000000,6,0.000000,0.000000,0.352371,0,0,0,0,0,0,0
6,69999,76,60000,7,30000,40,9999,0.100000,0,0,0.000000,6,0.000000,0.000000,4.657881,0,0,0,0,0,0,0
6,69999,77,60000,72,10000,49,9999,0.100000,0,0,0.000000,6,4.000000,0.000000,8.374144,0,0,0,0,0,0,0
6,69999,78,60000,0,40000,40,9999,0.100000,0,0,0.000000,6,0.000000,0.000000,0.086638,0,0,0,0,0,0,0
6,69999,79,60000,0,0,40,9999,0.100000,0,0,0.000000,6,0.000000,0.000000,0.105567,0,0,0,0,0,0,0
6,69999,80,60000,7,30000,40,9999,0.100000,0,0,0.000000,6,0.000000,0.000000,0.487267,0,0,0,0,0,0,0
6,69999,81,60000,20,0,40,9999,0.100000,0,0,0.000000,6,0.000000,0.000000,0.969432,0,0,0,0,0,0,0
6,69999,82,60000,72,10000,40,9999,0.100000,0,0,0.000000,6,0.000000,0.000000,0.402348,0,0,0,0,0,0,0
6,69999,83,60000,72,10000,40,9999,0.100000,0,0,0.000000,6,0.000000,0.000000,0.194914,0,0,0,0,0,0,0
6,69999,84,60000,72,10000,40,9999,0.100000,0,0,0.000000,6,0.000000,0.000000,0.632947,0,0,0,0,0,0,0
6,69999,85,60000,0,40000,40,9999,0.100000,0,0,0.000000,6,0.000000,0.000000,0.137282,0,0,0,0,0,0,0
6,69999,86,60000,0,40000,40,9999,0.100000,0,0,0.000000,6,0.000000,0.000000,0.497963,0,0,0,0,0,0,0
6,69999,87,60000,20,0,40,9999,0.100000,0,0,0.000000,6,0.000000,0.000000,0.530308,0,0,0,0,0,0,0
6,69999,88,60000,0,0,40,9999,0.100000,0,0,0.000000,6,0.000000,0.000000,0.079610,0,0,0,0,0,0,0
6,69999,89,60000,7,30000,40,9999,0.100000,0,0,0.000000,6,0.000000,0.000000,0.092302,0,0,0,0,0,0,0
6,69999,90,60000,0,0,40,9999,0.100000,0,0,0.000000,6,0.000000,0.000000,0.341017,0,0,0,0,0,0,0
6,69999,91,60000,7,30000,40,9999,0.100000,0,0,0.000000,6,0.000000,0.000000,0.613422,0,0,0,0,0,0,0
6,69999,92,60000,72,10000,49,9999,0.100000,0,0,0.000000,6,13.000000,0.000000,14.465149,0,0,0,0,0,0,0
6,69999,93,60000,72,10000,40,9999,0.100000,0,0,0.000000,6,0.000000,0.000000,0.079817,0,0,0,0,0,0,0
6,69999,94,60000,4,10000,40,9999,0.100000,0,0,0.000000,6,0.000000,0.000000,1.480011,0,0,0,0,0,0,0
6,69999,95,60000,7,30000,49,9999,0.100000,0,0,0.000000,6,1.000000,0.000000,10.948018,0,0,0,0,0,0,0
6,69999,96,60000,4,10000,40,9999,0.100000,0,0,0.000000,6,0.000000,0.000000,0.131364,0,0,0,0,0,0,0
6,69999,97,60000,72,10000,40,9999,0.100000,0,0,0.000000,6,0.000000,0.000000,0.230061,0,0,0,0,0,0,0
6,69999,98,60000,0,0,40,9999,0.100000,0,0,0.000000,6,0.000000,0.000000,0.206450,0,0,0,0,0,0,0
6,69999,99,60000,7,30000,40,9999,0.100000,0,0,0.000000,6,0.000000,0.000000,0.240853,0,0,0,0,0,0,0
7,79999,0,70000,20,0,40,9999,0.100000,0,0,0.000000,6,0.000000,0.000000,0.820491,0,0,0,0,0,0,0
7,79999,1,70000,4,10000,40,9999,0.100000,0,0,0.000000,6,0.000000,0.000000,0.898805,0,0,0,0,0,0,0
7,79999,2,70000,7,30000,40,9999,0.100000,0,0,0.000000,6,0.000000,0.000000,0.921641,0,0,0,0,0,0,0
7,79999,3,70000,0,60000,40,9999,0.100000,0,0,0.000000,6,0.000000,0.000000,0.086007,0,0,0,0,0,0,0
7,79999,4,70000,20,0,49,9999,0.100000,0,0,0.000000,6,1.000000,0.000000,1.178075,0,0,0,0,0,0,0
7,79999,5,70000,0,40000,40,9999,0.100000,0,0,0.000000,6,0.000000,0.000000,1.524879,0,0,0,0,0,0,0
7,79999,6,70000,4,10000,40,9999,0.100000,0,0,0.000000,6,0.000000,0.000000,0.141862,0,0,0,0,0,0,0
7,79999,7,70000,20,0,40,9999,0.100000,0,0,0.000000,6,0.000000,0.000000,0.970462,0,0,0,0,0,0,0
7,79999,8,70000,72,10000,40,9999,0.100000,0,0,0.000000,6,0.000000,0.000000,0.093618,0,0,0,0,0,0,0
7,79999,9,70000,4,10000,40,9999,0.100000,0,0,0.000000,6,0.000000,0.000000,14.930015,0,0,0,0,0,0,0
7,79999,10,70000,7,30000,40,9999,0.100000,0,0,0.000000,6,0.000000,0.000000,0.591070,0,0,0,0,0,0,0
7,79999,11,70000,0,60000,40,9999,0.100000,0,0,0.000000,6,0.000000,0.000000,22.684890,0,0,0,0,0,0,0
7,79999,12,70000,0,40000,40,9999,0.100000,0,0,0.000000,6,0.000000,0.000000,0.537845,0,0,0,0,0,0,0
7,79999,13,70000,0,60000,40,9999,0.100000,0,0,0.000000,6,0.000000,0.000000,2.121180,0,0,0,0,0,0,0
7,79999,14,70000,72,10000,40,9999,0.100000,0,0,0.000000,6,0.000000,0.000000,0.878332,0,0,0,0,0,0,0
7,79999,15,70000,72,10000,40,9999,0.100000,0,0,0.000000,6,0.000000,0.000000,0.161232,0,0,0,0,0,0,0
7,79999,16,70000,20,0,40,9999,0.100000,0,0,0.000000,6,0.000000,0.000000,0.072778,0,0,0,0,0,0,0
7,79999,17,70000,7,30000,40,9999,0.100000,0,0,0.000000,6,0.000000,0.000000,0.730631,0,0,0,0,0,0,0
7,79999,18,70000,7,30000,40,9999,0.100000,0,0,0.000000,6,0.000000,0.000000,1.869523,0,0,0,0,0,0,0
7,79999,19,70000,0,60000,40,9999,0.100000,0,0,0.000000,6,0.000000,0.000000,2.515643,0,0,0,0,0,0,0
7,79999,20,70000,20,0,40,9999,0.100000,0,0,0.000000,6,0.000000,0.000000,0.093476,0,0,0,0,0,0,0
7,79999,21,70000,72,10000,40,9999,0.100000,0,0,0.000000,6,0.000000,0.000000,1.381176,0,0,0,0,0,0,0
7,79999,22,70000,72,10000,40,9999,0.100000,0,0,0.000000,6,0.000000,0.000000,1.612357,0,0,0,0,0,0,0
7,79999,23,70000,20,0,40,9999,0.135000,0,0,0.000000,6,0.000000,0.000000,1.806764,0,0,0,0,0,0,0
7,79999,24,70000,7,30000,40,9999,0.100000,0,0,0.000000,6,0.000000,0.000000,0.622775,0,0,0,0,0,0,0
7,79999,25,70000,20,0,40,9999,0.100000,0,0,0.000000,6,0.000000,0.000000,0.510789,0,0,0,0,0,0,0
7,79999,26,70000,7,30000,40,9999,0.100000,0,0,0.000000,6,0.000000,0.000000,0.078716,0,0,0,0,0,0,0
7,79999,27,70000,72,10000,40,9999,0.065000,0,0,0.000000,6,0.000000,0.000000,0.941123,0,0,0,0,0,0,0
7,79999,28,70000,20,0,40,9999,0.100000,0,0,0.000000,6,0.000000,0.000000,0.097852,0,0,0,0,0,0,0
7,79999,29,70000,20,0,40,9999,0.100000,0,0,0.000000,6,0.000000,0.000000,0.081580,0,0,0,0,0,0,0
7,79999,30,70000,0,60000,49,9999,0.100000,0,0,0.000000,6,1.000000,0.000000,10.144566,0,0,0,0,0,0,0
7,79999,31,70000,4,10000,40,9999,0.100000,0,0,0.000000,6,0.000000,0.000000,0.296217,0,0,0,0,0,0,0
7,79999,32,70000,72,10000,49,9999,0.100000,0,0,0.000000,6,1.000000,0.000000,1.375346,0,0,0,0,0,0,0
7,79999,33,70000,72,10000,40,9999,0.100000,0,0,0.000000,6,0.000000,0.000000,0.431813,0,0,0,0,0,0,0
7,79999,34,70000,0,0,40,9999,0.100000,0,0,0.000000,6,0.000000,0.000000,0.138712,0,0,0,0,0,0,0
7,79999,35,70000,4,10000,40,9999,0.100000,0,0,0.000000,6,0.000000,0.000000,0.212854,0,0,0,0,0,0,0
7,79999,36,70000,7,30000,40,9999,0.100000,0,0,0.000000,6,0.000000,0.000000,0.299810,0,0,0,0,0,0,0
7,79999,37,70000,0,40000,40,9999,0.100000,0,0,0.000000,6,0.000000,0.000000,0.169487,0,0,0,0,0,0,0
7,79999,38,70000,20,0,40,9999,0.100000,0,0,0.000000,6,0.000000,0.000000,0.088882,0,0,0,0,0,0,0
7,79999,39,70000,20,0,40,9999,0.100000,0,0,0.000000,6,0.000000,0.000000,0.082543,0,0,0,0,0,0,0
7,79999,40,70000,20,0,40,9999,0.100000,0,0,0.000000,6,0.000000,0.000000,1.734573,0,0,0,0,0,0,0
7,79999,41,70000,72,10000,40,9999,0.100000,0,0,0.000000,6,0.000000,0.000000,0.088683,0,0,0,0,0,0,0
7,79999,42,70000,0,40000,40,9999,0.100000,0,0,0.000000,6,0.000000,0.000000,0.088891,0,0,0,0,0,0,0
7,79999,43,70000,4,10000,40,9999,0.100000,0,0,0.000000,6,0.000000,0.000000,0.267544,0,0,0,0,0,0,0
7,79999,44,70000,4,10000,40,9999,0.100000,0,0,0.000000,6,0.000000,0.000000,0.071917,0,0,0,0,0,0,0
7,79999,45,70000,20,0,40,9999,0.100000,0,0,0.000000,6,0.000000,0.000000,0.142293,0,0,0,0,0,0,0
7,79999,46,70000,20,0,49,9999,0.100000,0,0,0.000000,6,1.000000,0.000000,5.174612,0,0,0,0,0,0,0
7,79999,47,70000,0,60000,40,9999,0.135000,0,0,0.000000,6,0.000000,0.000000,0.574414,0,0,0,0,0,0,0
7,79999,48,70000,0,40000,40,9999,0.100000,0,0,0.000000,6,0.000000,0.000000,8.187235,0,0,0,0,0,0,0
7,79999,49,70000,7,30000,40,9999,0.100000,0,0,0.000000,6,0.000000,0.000000,0.078517,0,0,0,0,0,0,0
7,79999,50,70000,0,40000,40,9999,0.100000,0,0,0.000000,6,0.000000,0.000000,0.227186,0,0,0,0,0,0,0
7,79999,51,70000,7,30000,40,9999,0.100000,0,0,0.000000,6,0.000000,0.000000,1.158241,0,0,0,0,0,0,0
7,79999,52,70000,20,0,40,9999,0.100000,0,0,0.000000,6,0.000000,0.000000,0.451215,0,0,0,0,0,0,0
7,79999,53,70000,0,60000,40,9999,0.100000,0,0,0.000000,6,0.000000,0.000000,0.164891,0,0,0,0,0,0,0
7,79999,54,70000,4,10000,40,9999,0.100000,0,0,0.000000,6,0.000000,0.000000,7.354310,0,0,0,0,0,0,0
7,79999,55,70000,0,60000,40,9999,0.100000,0,0,0.000000,6,0.000000,0.000000,2.114340,0,0,0,0,0,0,0
7,79999,56,70000,72,10000,40,9999,0.100000,0,0,0.000000,6,0.000000,0.000000,0.438919,0,0,0,0,0,0,0
7,79999,57,70000,20,0,40,9999,0.100000,0,0,0.000000,6,0.000000,0.000000,21.072337,0,0,0,0,0,0,0
7,79999,58,70000,72,10000,40,9999,0.100000,0,0,0.000000,6,0.000000,0.000000,0.105561,0,0,0,0,0,0,0
7,79999,59,70000,0,40000,49,9999,0.100000,0,0,0.000000,6,1.000000,0.000000,12.780061,0,0,0,0,0,0,0
7,79999,60,70000,7,30000,40,9999,0.100000,0,0,0.000000,6,0.000000,0.000000,0.085664,0,0,0,0,0,0,0
7,79999,61,70000,72,10000,40,9999,0.100000,0,0,0.000000,6,0.000000,0.000000,0.288397,0,0,0,0,0,0,0
7,79999,62,70000,72,10000,40,9999,0.100000,0,0,0.000000,6,0.000000,0.000000,0.952452,0,0,0,0,0,0,0
7,79999,63,70000,4,10000,40,9999,0.100000,0,0,0.000000,6,0.000000,0.000000,6.594817,0,0,0,0,0,0,0
7,79999,64,70000,4,10000,40,9999,0.100000,0,0,0.000000,6,0.000000,0.000000,0.081121,0,0,0,0,0,0,0
7,79999,65,70000,0,40000,40,9999,0.100000,0,0,0.000000,6,0.000000,0.000000,0.141962,0,0,0,0,0,0,0
7,79999,66,70000,4,10000,40,9999,0.135000,0,0,0.000000,6,0.000000,0.000000,0.111383,0,0,0,0,0,0,0
7,79999,67,70000,20,0,40,9999,0.100000,0,0,0.000000,6,0.000000,0.000000,0.173233,0,0,0,0,0,0,0
7,79999,68,70000,0,60000,40,9999,0.100000,0,0,0.000000,6,0.000000,0.000000,3.316085,0,0,0,0,0,0,0
7,79999,69,70000,20,0,40,9999,0.100000,0,0,0.000000,6,0.000000,0.000000,0.147442,0,0,0,0,0,0,0
7,79999,70,70000,0,60000,40,9999,0.100000,0,0,0.000000,6,0.000000,0.000000,0.090670,0,0,0,0,0,0,0
7,79999,71,70000,20,0,49,9999,0.100000,0,0,0.000000,6,1.000000,0.000000,20.537783,0,0,0,0,0,0,0
7,79999,72,70000,72,10000,49,9999,0.100000,0,0,0.000000,6,11.000000,0.000000,23.322662,0,0,0,0,0,0,0
7,79999,73,70000,0,40000,40,9999,0.100000,0,0,0.000000,6,0.000000,0.000000,0.965291,0,0,0,0,0,0,0
7,79999,74,70000,7,30000,49,9999,0.100000,0,0,0.000000,6,1.000000,0.000000,10.061214,0,0,0,0,0,0,0
7,79999,75,70000,0,40000,40,9999,0.100000,0,0,0.000000,6,0.000000,0.000000,0.418083,0,0,0,0,0,0,0
7,79999,76,70000,0,60000,40,9999,0.100000,0,0,0.000000,6,0.000000,0.000000,1.117804,0,0,0,0,0,0,0
7,79999,77,70000,0,40000,40,9999,0.100000,0,0,0.000000,6,0.000000,0.000000,0.336427,0,0,0,0,0,0,0
7,79999,78,70000,4,10000,40,9999,0.100000,0,0,0.000000,6,0.000000,0.000000,0.111194,0,0,0,0,0,0,0
7,79999,79,70000,7,30000,40,9999,0.100000,0,0,0.000000,6,0.000000,0.000000,0.122545,0,0,0,0,0,0,0
7,79999,80,70000,20,0,49,9999,0.100000,0,0,0.000000,6,1.000000,0.000000,1.378289,0,0,0,0,0,0,0
7,79999,81,70000,0,60000,49,9999,0.100000,0,0,0.000000,6,5.000000,0.000000,12.748129,0,0,0,0,0,0,0
7,79999,82,70000,4,10000,40,9999,0.100000,0,0,0.000000,6,0.000000,0.000000,0.380832,0,0,0,0,0,0,0
7,79999,83,70000,72,10000,40,9999,0.100000,0,0,0.000000,6,0.000000,0.000000,0.210419,0,0,0,0,0,0,0
7,79999,84,70000,7,30000,49,9999,0.100000,0,0,0.000000,6,1.000000,0.000000,1.359531,0,0,0,0,0,0,0
7,79999,85,70000,0,60000,40,9999,0.100000,0,0,0.000000,6,0.000000,0.000000,0.152767,0,0,0,0,0,0,0
7,79999,86,70000,4,10000,40,9999,0.100000,0,0,0.000000,6,0.000000,0.000000,0.476460,0,0,0,0,0,0,0
7,79999,87,70000,20,0,40,9999,0.100000,0,0,0.000000,6,0.000000,0.000000,0.469735,0,0,0,0,0,0,0
7,79999,88,70000,7,30000,40,9999,0.100000,0,0,0.000000,6,0.000000,0.000000,0.077587,0,0,0,0,0,0,0
7,79999,89,70000,4,10000,40,9999,0.100000,0,0,0.000000,6,0.000000,0.000000,0.087337,0,0,0,0,0,0,0
7,79999,90,70000,20,0,40,9999,0.100000,0,0,0.000000,6,0.000000,0.000000,0.213614,0,0,0,0,0,0,0
7,79999,91,70000,20,0,40,9999,0.100000,0,0,0.000000,6,0.000000,0.000000,0.520540,0,0,0,0,0,0,0
7,79999,92,70000,20,0,40,9999,0.100000,0,0,0.000000,6,0.000000,0.000000,1.748892,0,0,0,0,0,0,0
7,79999,93,70000,7,30000,49,9999,0.100000,0,0,0.000000,6,5.000000,0.000000,10.290946,0,0,0,0,0,0,0
7,79999,94,70000,0,60000,40,9999,0.100000,0,0,0.000000,6,0.000000,0.000000,1.485192,0,0,0,0,0,0,0
7,79999,95,70000,4,10000,40,9999,0.100000,0,0,0.000000,6,0.000000,0.000000,6.028302,0,0,0,0,0,0,0
7,79999,96,70000,0,40000,40,9999,0.100000,0,0,0.000000,6,0.000000,0.000000,0.138501,0,0,0,0,0,0,0
7,79999,97,70000,0,60000,40,9999,0.100000,0,0,0.000000,6,0.000000,0.000000,0.240140,0,0,0,0,0,0,0
7,79999,98,70000,7,30000,40,9999,0.100000,0,0,0.000000,6,0.000000,0.000000,0.223404,0,0,0,0,0,0,0
7,79999,99,70000,0,60000,40,9999,0.100000,0,0,0.000000,6,0.000000,0.000000,0.106454,0,0,0,0,0,0,0
8,89999,0,80000,20,0,40,9999,0.100000,0,0,0.000000,6,0.000000,0.000000,0.777238,0,0,0,0,0,0,0
8,89999,1,80000,20,0,40,9999,0.100000,0,0,0.000000,6,0.000000,0.000000,0.902669,0,0,0,0,0,0,0
8,89999,2,80000,7,30000,40,9999,0.100000,0,0,0.000000,6,0.000000,0.000000,0.925351,0,0,0,0,0,0,0
8,89999,3,80000,72,70000,40,9999,0.100000,0,0,0.000000,6,0.000000,0.000000,0.105513,0,0,0,0,0,0,0
8,89999,4,80000,20,0,40,9999,0.100000,0,0,0.000000,6,0.000000,0.000000,1.659813,0,0,0,0,0,0,0
8,89999,5,80000,0,40000,40,9999,0.100000,0,0,0.000000,6,0.000000,0.000000,1.195487,0,0,0,0,0,0,0
8,89999,6,80000,20,0,40,9999,0.100000,0,0,0.000000,6,0.000000,0.000000,0.136975,0,0,0,0,0,0,0
8,89999,7,80000,0,60000,40,9999,0.100000,0,0,0.000000,6,0.000000,0.000000,0.204714,0,0,0,0,0,0,0
8,89999,8,80000,20,0,40,9999,0.100000,0,0,0.000000,6,0.000000,0.000000,0.087365,0,0,0,0,0,0,0
8,89999,9,80000,20,0,40,9999,0.100000,0,0,0.000000,6,0.000000,0.000000,1.693710,0,0,0,0,0,0,0
8,89999,10,80000,0,60000,40,9999,0.100000,0,0,0.000000,6,0.000000,0.000000,0.523494,0,0,0,0,0,0,0
8,89999,11,80000,0,60000,40,9999,0.100000,0,0,0.000000,6,0.000000,0.000000,22.301838,0,0,0,0,0,0,0
8,89999,12,80000,72,10000,40,9999,0.100000,0,0,0.000000,6,0.000000,0.000000,0.574269,0,0,0,0,0,0,0
8,89999,13,80000,4,10000,40,9999,0.100000,0,0,0.000000,6,0.000000,0.000000,2.764227,0,0,0,0,0,0,0
8,89999,14,80000,4,10000,40,9999,0.100000,0,0,0.000000,6,0.000000,0.000000,0.173340,0,0,0,0,0,0,0
8,89999,15,80000,7,30000,40,9999,0.100000,0,0,0.000000,6,0.000000,0.000000,0.101286,0,0,0,0,0,0,0
8,89999,16,80000,20,0,40,9999,0.100000,0,0,0.000000,6,0.000000,0.000000,0.070524,0,0,0,0,0,0,0
8,89999,17,80000,0,40000,40,9999,0.100000,0,0,0.000000,6,0.000000,0.000000,0.760745,0,0,0,0,0,0,0
8,89999,18,80000,72,70000,40,9999,0.100000,0,0,0.000000,6,0.000000,0.000000,0.731088,0,0,0,0,0,0,0
8,89999,19,80000,72,10000,40,9999,0.100000,0,0,0.000000,6,0.000000,0.000000,2.347794,0,0,0,0,0,0,0
8,89999,20,80000,72,70000,40,9999,0.100000,0,0,0.000000,6,0.000000,0.000000,0.094870,0,0,0,0,0,0,0
8,89999,21,80000,20,0,40,9999,0.100000,0,0,0.000000,6,0.000000,0.000000,0.367759,0,0,0,0,0,0,0
8,89999,22,80000,0,40000,40,9999,0.100000,0,0,0.000000,6,0.000000,0.000000,1.189905,0,0,0,0,0,0,0
8,89999,23,80000,0,60000,40,9999,0.100000,0,0,0.000000,6,0.000000,0.000000,4.551287,0,0,0,0,0,0,0
8,89999,24,80000,4,10000,40,9999,0.100000,0,0,0.000000,6,0.000000,0.000000,0.970390,0,0,0,0,0,0,0
8,89999,25,80000,0,40000,40,9999,0.100000,0,0,0.000000,6,0.000000,0.000000,0.533874,0,0,0,0,0,0,0
8,89999,26,80000,4,10000,40,9999,0.100000,0,0,0.000000,6,0.000000,0.000000,0.312695,0,0,0,0,0,0,0
8,89999,27,80000,72,70000,40,9999,0.100000,0,0,0.000000,6,0.000000,0.000000,0.867018,0,0,0,0,0,0,0
8,89999,28,80000,0,60000,40,9999,0.100000,0,0,0.000000,6,0.000000,0.000000,0.095900,0,0,0,0,0,0,0
8,89999,29,80000,72,10000,40,9999,0.100000,0,0,0.000000,6,0.000000,0.000000,0.081861,0,0,0,0,0,0,0
8,89999,30,80000,7,30000,49,9999,0.100000,0,0,0.000000,6,1.000000,0.000000,10.665375,0,0,0,0,0,0,0
8,89999,31,80000,0,60000,40,9999,0.100000,0,0,0.000000,6,0.000000,0.000000,0.225623,0,0,0,0,0,0,0
8,89999,32,80000,20,0,40,9999,0.100000,0,0,0.000000,6,0.000000,0.000000,0.808946,0,0,0,0,0,0,0
8,89999,33,80000,20,0,40,9999,0.100000,0,0,0.000000,6,0.000000,0.000000,1.152987,0,0,0,0,0,0,0
8,89999,34,80000,0,40000,40,9999,0.100000,0,0,0.000000,6,0.000000,0.000000,0.130191,0,0,0,0,0,0,0
8,89999,35,80000,72,10000,49,9999,0.100000,0,0,0.000000,6,7.000000,0.000000,14.731250,0,0,0,0,0,0,0
8,89999,36,80000,0,40000,40,9999,0.100000,0,0,0.000000,6,0.000000,0.000000,0.293383,0,0,0,0,0,0,0
8,89999,37,80000,0,60000,40,9999,0.100000,0,0,0.000000,6,0.000000,0.000000,0.205915,0,0,0,0,0,0,0
8,89999,38,80000,0,60000,40,9999,0.100000,0,0,0.000000,6,0.000000,0.000000,0.093281,0,0,0,0,0,0,0
8,89999,39,80000,72,70000,40,9999,0.100000,0,0,0.000000,6,0.000000,0.000000,0.080994,0,0,0,0,0,0,0
8,89999,40,80000,72,10000,40,9999,0.100000,0,0,0.000000,6,0.000000,0.000000,1.445299,0,0,0,0,0,0,0
8,89999,41,80000,20,0,49,9999,0.100000,0,0,0.000000,6,5.000000,0.000000,11.533627,0,0,0,0,0,0,0
8,89999,42,80000,0,40000,40,9999,0.100000,0,0,0.000000,6,0.000000,0.000000,1.074538,0,0,0,0,0,0,0
8,89999,43,80000,20,0,40,9999,0.100000,0,0,0.000000,6,0.000000,0.000000,1.429988,0,0,0,0,0,0,0
8,89999,44,80000,20,0,40,9999,0.100000,0,0,0.000000,6,0.000000,0.000000,0.070908,0,0,0,0,0,0,0
8,89999,45,80000,4,10000,49,9999,0.100000,0,0,0.000000,6,10.000000,0.000000,20.745866,0,0,0,0,0,0,0
8,89999,46,80000,0,40000,40,9999,0.100000,0,0,0.000000,6,0.000000,0.000000,0.913331,0,0,0,0,0,0,0
8,89999,47,80000,0,60000,40,9999,0.100000,0,0,0.000000,6,0.000000,0.000000,0.588470,0,0,0,0,0,0,0
8,89999,48,80000,0,60000,49,9999,0.100000,0,0,0.000000,6,9.000000,0.000000,26.353147,0,0,0,0,0,0,0
8,89999,49,80000,4,10000,40,9999,0.100000,0,0,0.000000,6,0.000000,0.000000,0.078933,0,0,0,0,0,0,0
8,89999,50,80000,20,0,40,9999,0.100000,0,0,0.000000,6,0.000000,0.000000,0.220817,0,0,0,0,0,0,0
8,89999,51,80000,4,10000,40,9999,0.100000,0,0,0.000000,6,0.000000,0.000000,0.258406,0,0,0,0,0,0,0
8,89999,52,80000,72,10000,40,9999,0.100000,0,0,0.000000,6,0.000000,0.000000,0.505281,0,0,0,0,0,0,0
8,89999,53,80000,4,10000,40,9999,0.100000,0,0,0.000000,6,0.000000,0.000000,0.219494,0,0,0,0,0,0,0
8,89999,54,80000,0,40000,40,9999,0.100000,0,0,0.000000,6,0.000000,0.000000,1.823922,0,0,0,0,0,0,0
8,89999,55,80000,4,10000,49,9999,0.100000,0,0,0.000000,6,1.000000,0.000000,6.546525,0,0,0,0,0,0,0
8,89999,56,80000,0,60000,40,9999,0.100000,0,0,0.000000,6,0.000000,0.000000,0.344838,0,0,0,0,0,0,0
8,89999,57,80000,72,10000,40,9999,0.100000,0,0,0.000000,6,0.000000,0.000000,21.468278,0,0,0,0,0,0,0
8,89999,58,80000,0,40000,40,9999,0.100000,0,0,0.000000,6,0.000000,0.000000,0.104748,0,0,0,0,0,0,0
8,89999,59,80000,72,70000,49,9999,0.100000,0,0,0.000000,6,1.000000,0.000000,11.748829,0,0,0,0,0,0,0
8,89999,60,80000,0,40000,40,9999,0.100000,0,0,0.000000,6,0.000000,0.000000,0.085658,0,0,0,0,0,0,0
8,89999,61,80000,4,10000,40,9999,0.100000,0,0,0.000000,6,0.000000,0.000000,0.283767,0,0,0,0,0,0,0
8,89999,62,80000,72,10000,40,9999,0.100000,0,0,0.000000,6,0.000000,0.000000,0.562041,0,0,0,0,0,0,0
8,89999,63,80000,4,10000,49,9999,0.100000,0,0,0.000000,6,2.000000,0.000000,9.956870,0,0,0,0,0,0,0
8,89999,64,80000,72,70000,40,9999,0.100000,0,0,0.000000,6,0.000000,0.000000,0.250603,0,0,0,0,0,0,0
8,89999,65,80000,0,40000,49,9999,0.100000,0,0,0.000000,6,1.000000,0.000000,4.054681,0,0,0,0,0,0,0
8,89999,66,80000,4,10000,40,9999,0.100000,0,0,0.000000,6,0.000000,0.000000,0.110170,0,0,0,0,0,0,0
8,89999,67,80000,4,10000,40,9999,0.100000,0,0,0.000000,6,0.000000,0.000000,0.213530,0,0,0,0,0,0,0
8,89999,68,80000,72,70000,40,9999,0.100000,0,0,0.000000,6,0.000000,0.000000,3.347796,0,0,0,0,0,0,0
8,89999,69,80000,0,60000,40,9999,0.100000,0,0,0.000000,6,0.000000,0.000000,0.149473,0,0,0,0,0,0,0
8,89999,70,80000,0,40000,40,9999,0.100000,0,0,0.000000,6,0.000000,0.000000,0.070628,0,0,0,0,0,0,0
8,89999,71,80000,0,60000,49,9999,0.100000,0,0,0.000000,6,2.000000,0.000000,2.704482,0,0,0,0,0,0,0
8,89999,72,80000,4,10000,40,9999,0.100000,0,0,0.000000,6,0.000000,0.000000,0.097379,0,0,0,0,0,0,0
8,89999,73,80000,0,60000,49,9999,0.100000,0,0,0.000000,6,3.000000,0.000000,5.083304,0,0,0,0,0,0,0
8,89999,74,80000,20,0,49,9999,0.100000,0,0,0.000000,6,2.000000,0.000000,8.157992,0,0,0,0,0,0,0
8,89999,75,80000,72,10000,40,9999,0.100000,0,0,0.000000,6,0.000000,0.000000,0.380687,0,0,0,0,0,0,0
8,89999,76,80000,20,0,49,9999,0.100000,0,0,0.000000,6,1.000000,0.000000,6.090791,0,0,0,0,0,0,0
8,89999,77,80000,20,0,40,9999,0.100000,0,0,0.000000,6,0.000000,0.000000,0.430588,0,0,0,0,0,0,0
8,89999,78,80000,20,0,40,9999,0.100000,0,0,0.000000,6,0.000000,0.000000,0.124079,0,0,0,0,0,0,0
8,89999,79,80000,72,10000,40,9999,0.100000,0,0,0.000000,6,0.000000,0.000000,0.106089,0,0,0,0,0,0,0
8,89999,80,80000,0,60000,40,9999,0.100000,0,0,0.000000,6,0.000000,0.000000,4.214918,0,0,0,0,0,0,0
8,89999,81,80000,0,40000,49,9999,0.100000,0,0,0.000000,6,5.000000,0.000000,12.622931,0,0,0,0,0,0,0
8,89999,82,80000,0,60000,40,9999,0.100000,0,0,0.000000,6,0.000000,0.000000,0.366008,0,0,0,0,0,0,0
8,89999,83,80000,72,10000,40,9999,0.100000,0,0,0.000000,6,0.000000,0.000000,0.207756,0,0,0,0,0,0,0
8,89999,84,80000,0,40000,40,9999,0.100000,0,0,0.000000,6,0.000000,0.000000,0.812745,0,0,0,0,0,0,0
8,89999,85,80000,0,60000,40,9999,0.100000,0,0,0.000000,6,0.000000,0.000000,0.178546,0,0,0,0,0,0,0
8,89999,86,80000,4,10000,40,9999,0.100000,0,0,0.000000,6,0.000000,0.000000,0.460499,0,0,0,0,0,0,0
8,89999,87,80000,0,40000,40,9999,0.100000,0,0,0.000000,6,0.000000,0.000000,0.594059,0,0,0,0,0,0,0
8,89999,88,80000,4,10000,49,9999,0.100000,0,0,0.000000,6,10.000000,0.000000,42.454673,0,0,0,0,0,0,0
8,89999,89,80000,0,40000,40,9999,0.100000,0,0,0.000000,6,0.000000,0.000000,0.135654,0,0,0,0,0,0,0
8,89999,90,80000,72,70000,40,9999,0.100000,0,0,0.000000,6,0.000000,0.000000,1.215273,0,0,0,0,0,0,0
8,89999,91,80000,4,10000,40,9999,0.100000,0,0,0.000000,6,0.000000,0.000000,0.518122,0,0,0,0,0,0,0
8,89999,92,80000,72,10000,40,9999,0.100000,0,0,0.000000,6,0.000000,0.000000,1.254822,0,0,0,0,0,0,0
8,89999,93,80000,20,0,40,9999,0.100000,0,0,0.000000,6,0.000000,0.000000,0.083635,0,0,0,0,0,0,0
8,89999,94,80000,0,40000,40,9999,0.100000,0,0,0.000000,6,0.000000,0.000000,1.558291,0,0,0,0,0,0,0
8,89999,95,80000,20,0,49,9999,0.100000,0,0,0.000000,6,1.000000,0.000000,10.101602,0,0,0,0,0,0,0
8,89999,96,80000,72,70000,40,9999,0.100000,0,0,0.000000,6,0.000000,0.000000,0.126862,0,0,0,0,0,0,0
8,89999,97,80000,0,60000,40,9999,0.100000,0,0,0.000000,6,0.000000,0.000000,0.244712,0,0,0,0,0,0,0
8,89999,98,80000,72,10000,40,9999,0.065000,0,0,0.000000,6,0.000000,0.000000,0.210995,0,0,0,0,0,0,0
8,89999,99,80000,4,10000,40,9999,0.100000,0,0,0.000000,6,0.000000,0.000000,0.104887,0,0,0,0,0,0,0
9,99999,0,90000,72,70000,49,9999,0.100000,0,0,0.000000,6,1.000000,0.000000,1.696771,0,0,0,0,0,0,0
9,99999,1,90000,0,60000,49,9999,0.100000,0,0,0.000000,6,1.000000,0.000000,2.272658,0,0,0,0,0,0,0
9,99999,2,90000,0,40000,40,9999,0.100000,0,0,0.000000,6,0.000000,0.000000,2.751235,0,0,0,0,0,0,0
9,99999,3,90000,72,10000,40,9999,0.100000,0,0,0.000000,6,0.000000,0.000000,0.082817,0,0,0,0,0,0,0
9,99999,4,90000,0,60000,40,9999,0.100000,0,0,0.000000,6,0.000000,0.000000,2.601623,0,0,0,0,0,0,0
9,99999,5,90000,72,10000,40,9999,0.100000,0,0,0.000000,6,0.000000,0.000000,0.712332,0,0,0,0,0,0,0
9,99999,6,90000,4,10000,40,9999,0.100000,0,0,0.000000,6,0.000000,0.000000,0.137202,0,0,0,0,0,0,0
9,99999,7,90000,72,10000,40,9999,0.100000,0,0,0.000000,6,0.000000,0.000000,0.162359,0,0,0,0,0,0,0
9,99999,8,90000,0,40000,40,9999,0.100000,0,0,0.000000,6,0.000000,0.000000,0.085364,0,0,0,0,0,0,0
9,99999,9,90000,4,10000,40,9999,0.100000,0,0,0.000000,6,0.000000,0.000000,0.103716,0,0,0,0,0,0,0
9,99999,10,90000,0,60000,40,9999,0.100000,0,0,0.000000,6,0.000000,0.000000,0.462406,0,0,0,0,0,0,0
9,99999,11,90000,0,60000,40,9999,0.100000,0,0,0.000000,6,0.000000,0.000000,21.652196,0,0,0,0,0,0,0
9,99999,12,90000,72,10000,40,9999,0.100000,0,0,0.000000,6,0.000000,0.000000,0.549853,0,0,0,0,0,0,0
9,99999,13,90000,4,10000,40,9999,0.100000,0,0,0.000000,6,0.000000,0.000000,2.109536,0,0,0,0,0,0,0
9,99999,14,90000,20,0,40,9999,0.100000,0,0,0.000000,6,0.000000,0.000000,0.101717,0,0,0,0,0,0,0
9,99999,15,90000,72,70000,40,9999,0.100000,0,0,0.000000,6,0.000000,0.000000,0.093289,0,0,0,0,0,0,0
9,99999,16,90000,0,40000,40,9999,0.100000,0,0,0.000000,6,0.000000,0.000000,0.110655,0,0,0,0,0,0,0
9,99999,17,90000,20,0,40,9999,0.100000,0,0,0.000000,6,0.000000,0.000000,0.721486,0,0,0,0,0,0,0
9,99999,18,90000,0,60000,49,9999,0.100000,0,0,0.000000,6,1.000000,0.000000,4.668188,0,0,0,0,0,0,0
9,99999,19,90000,0,60000,40,9999,0.100000,0,0,0.000000,6,0.000000,0.000000,6.607243,0,0,0,0,0,0,0
9,99999,20,90000,72,70000,40,9999,0.100000,0,0,0.000000,6,0.000000,0.000000,0.096948,0,0,0,0,0,0,0
9,99999,21,90000,20,0,40,9999,0.100000,0,0,0.000000,6,0.000000,0.000000,0.144184,0,0,0,0,0,0,0
9,99999,22,90000,0,60000,40,9999,0.100000,0,0,0.000000,6,0.000000,0.000000,0.092295,0,0,0,0,0,0,0
9,99999,23,90000,20,0,40,9999,0.100000,0,0,0.000000,6,0.000000,0.000000,4.415482,0,0,0,0,0,0,0
9,99999,24,90000,0,40000,40,9999,0.100000,0,0,0.000000,6,0.000000,0.000000,0.848230,0,0,0,0,0,0,0
9,99999,25,90000,0,40000,49,9999,0.100000,0,0,0.000000,6,1.000000,0.000000,1.933537,0,0,0,0,0,0,0
9,99999,26,90000,72,70000,40,9999,0.100000,0,0,0.000000,6,0.000000,0.000000,0.073612,0,0,0,0,0,0,0
9,99999,27,90000,72,70000,49,9999,0.100000,0,0,0.000000,6,1.000000,0.000000,5.091621,0,0,0,0,0,0,0
9,99999,28,90000,0,40000,40,9999,0.100000,0,0,0.000000,6,0.000000,0.000000,0.097151,0,0,0,0,0,0,0
9,99999,29,90000,0,60000,40,9999,0.100000,0,0,0.000000,6,0.000000,0.000000,0.084781,0,0,0,0,0,0,0
9,99999,30,90000,4,10000,40,9999,0.100000,0,0,0.000000,6,0.000000,0.000000,3.988853,0,0,0,0,0,0,0
9,99999,31,90000,20,0,40,9999,0.100000,0,0,0.000000,6,0.000000,0.000000,0.106960,0,0,0,0,0,0,0
9,99999,32,90000,0,40000,49,9999,0.100000,0,0,0.000000,6,1.000000,0.000000,6.343852,0,0,0,0,0,0,0
9,99999,33,90000,20,0,40,9999,0.100000,0,0,0.000000,6,0.000000,0.000000,1.148076,0,0,0,0,0,0,0
9,99999,34,90000,0,60000,49,9999,0.100000,0,0,0.000000,6,6.000000,0.000000,12.516273,0,0,0,0,0,0,0
9,99999,35,90000,72,10000,40,9999,0.100000,0,0,0.000000,6,0.000000,0.000000,0.214577,0,0,0,0,0,0,0
9,99999,36,90000,20,0,40,9999,0.100000,0,0,0.000000,6,0.000000,0.000000,0.292466,0,0,0,0,0,0,0
9,99999,37,90000,72,70000,40,9999,0.100000,0,0,0.000000,6,0.000000,0.000000,0.334733,0,0,0,0,0,0,0
9,99999,38,90000,0,40000,40,9999,0.100000,0,0,0.000000,6,0.000000,0.000000,0.078440,0,0,0,0,0,0,0
9,99999,39,90000,72,10000,40,9999,0.100000,0,0,0.000000,6,0.000000,0.000000,0.078564,0,0,0,0,0,0,0
9,99999,40,90000,4,10000,40,9999,0.100000,0,0,0.000000,6,0.000000,0.000000,1.308112,0,0,0,0,0,0,0
9,99999,41,90000,0,60000,40,9999,0.100000,0,0,0.000000,6,0.000000,0.000000,0.086677,0,0,0,0,0,0,0
9,99999,42,90000,20,0,40,9999,0.100000,0,0,0.000000,6,0.000000,0.000000,0.100889,0,0,0,0,0,0,0
9,99999,43,90000,72,70000,40,9999,0.100000,0,0,0.000000,6,0.000000,0.000000,0.760816,0,0,0,0,0,0,0
9,99999,44,90000,72,10000,40,9999,0.100000,0,0,0.000000,6,0.000000,0.000000,0.074913,0,0,0,0,0,0,0
9,99999,45,90000,4,10000,40,9999,0.100000,0,0,0.000000,6,0.000000,0.000000,0.585751,0,0,0,0,0,0,0
9,99999,46,90000,20,0,40,9999,0.100000,0,0,0.000000,6,0.000000,0.000000,1.730443,0,0,0,0,0,0,0
9,99999,47,90000,20,0,40,9999,0.100000,0,0,0.000000,6,0.000000,0.000000,1.794204,0,0,0,0,0,0,0
9,99999,48,90000,4,10000,40,9999,0.100000,0,0,0.000000,6,0.000000,0.000000,8.088213,0,0,0,0,0,0,0
9,99999,49,90000,4,10000,40,9999,0.100000,0,0,0.000000,6,0.000000,0.000000,0.082807,0,0,0,0,0,0,0
9,99999,50,90000,0,40000,40,9999,0.100000,0,0,0.000000,6,0.000000,0.000000,0.217560,0,0,0,0,0,0,0
9,99999,51,90000,72,10000,40,9999,0.100000,0,0,0.000000,6,0.000000,0.000000,0.967899,0,0,0,0,0,0,0
9,99999,52,90000,72,10000,40,9999,0.100000,0,0,0.000000,6,0.000000,0.000000,0.446693,0,0,0,0,0,0,0
9,99999,53,90000,72,70000,49,9999,0.100000,0,0,0.000000,6,4.000000,0.000000,8.369985,0,0,0,0,0,0,0
9,99999,54,90000,72,70000,40,9999,0.100000,0,0,0.000000,6,0.000000,0.000000,0.125011,0,0,0,0,0,0,0
9,99999,55,90000,72,70000,40,9999,0.100000,0,0,0.000000,6,0.000000,0.000000,0.111166,0,0,0,0,0,0,0
9,99999,56,90000,72,70000,40,9999,0.100000,0,0,0.000000,6,0.000000,0.000000,0.338565,0,0,0,0,0,0,0
9,99999,57,90000,20,0,40,9999,0.100000,0,0,0.000000,6,0.000000,0.000000,21.865774,0,0,0,0,0,0,0
9,99999,58,90000,4,10000,40,9999,0.100000,0,0,0.000000,6,0.000000,0.000000,0.091753,0,0,0,0,0,0,0
9,99999,59,90000,72,10000,40,9999,0.100000,0,0,0.000000,6,0.000000,0.000000,8.787581,0,0,0,0,0,0,0
9,99999,60,90000,0,60000,49,9999,0.100000,0,0,0.000000,6,2.000000,0.000000,5.064220,0,0,0,0,0,0,0
9,99999,61,90000,0,40000,40,9999,0.100000,0,0,0.000000,6,0.000000,0.000000,0.277214,0,0,0,0,0,0,0
9,99999,62,90000,72,70000,40,9999,0.100000,0,0,0.000000,6,0.000000,0.000000,1.024141,0,0,0,0,0,0,0
9,99999,63,90000,72,10000,49,9999,0.100000,0,0,0.000000,6,1.000000,0.000000,12.106707,0,0,0,0,0,0,0
9,99999,64,90000,0,40000,40,9999,0.100000,0,0,0.000000,6,0.000000,0.000000,0.089220,0,0,0,0,0,0,0
9,99999,65,90000,20,0,40,9999,0.100000,0,0,0.000000,6,0.000000,0.000000,0.139365,0,0,0,0,0,0,0
9,99999,66,90000,20,0,40,9999,0.100000,0,0,0.000000,6,0.000000,0.000000,0.111554,0,0,0,0,0,0,0
9,99999,67,90000,4,10000,40,9999,0.100000,0,0,0.000000,6,0.000000,0.000000,0.227886,0,0,0,0,0,0,0
9,99999,68,90000,72,70000,40,9999,0.100000,0,0,0.000000,6,0.000000,0.000000,3.267595,0,0,0,0,0,0,0
9,99999,69,90000,0,60000,40,9999,0.100000,0,0,0.000000,6,0.000000,0.000000,0.142911,0,0,0,0,0,0,0
9,99999,70,90000,20,0,40,9999,0.100000,0,0,0.000000,6,0.000000,0.000000,0.070851,0,0,0,0,0,0,0
9,99999,71,90000,0,60000,40,9999,0.100000,0,0,0.000000,6,0.000000,0.000000,0.634999,0,0,0,0,0,0,0
9,99999,72,90000,72,70000,40,9999,0.100000,0,0,0.000000,6,0.000000,0.000000,0.097728,0,0,0,0,0,0,0
9,99999,73,90000,0,60000,40,9999,0.100000,0,0,0.000000,6,0.000000,0.000000,2.090647,0,0,0,0,0,0,0
9,99999,74,90000,4,10000,49,9999,0.100000,0,0,0.000000,6,1.000000,0.000000,6.075331,0,0,0,0,0,0,0
9,99999,75,90000,20,0,40,9999,0.100000,0,0,0.000000,6,0.000000,0.000000,0.378651,0,0,0,0,0,0,0
9,99999,76,90000,0,60000,40,9999,0.100000,0,0,0.000000,6,0.000000,0.000000,2.218725,0,0,0,0,0,0,0
9,99999,77,90000,0,40000,49,9999,0.100000,0,0,0.000000,6,3.000000,0.000000,8.503683,0,0,0,0,0,0,0
9,99999,78,90000,0,60000,40,9999,0.100000,0,0,0.000000,6,0.000000,0.000000,0.089386,0,0,0,0,0,0,0
9,99999,79,90000,20,0,40,9999,0.100000,0,0,0.000000,6,0.000000,0.000000,0.109542,0,0,0,0,0,0,0
9,99999,80,90000,0,60000,40,9999,0.100000,0,0,0.000000,6,0.000000,0.000000,2.097003,0,0,0,0,0,0,0
9,99999,81,90000,72,10000,40,9999,0.100000,0,0,0.000000,6,0.000000,0.000000,0.922374,0,0,0,0,0,0,0
9,99999,82,90000,20,0,40,9999,0.100000,0,0,0.000000,6,0.000000,0.000000,0.361410,0,0,0,0,0,0,0
9,99999,83,90000,72,10000,40,9999,0.100000,0,0,0.000000,6,0.000000,0.000000,1.266617,0,0,0,0,0,0,0
9,99999,84,90000,72,70000,49,9999,0.100000,0,0,0.000000,6,3.000000,0.000000,10.160973,0,0,0,0,0,0,0
9,99999,85,90000,0,40000,40,9999,0.100000,0,0,0.000000,6,0.000000,0.000000,0.308529,0,0,0,0,0,0,0
9,99999,86,90000,0,40000,40,9999,0.100000,0,0,0.000000,6,0.000000,0.000000,0.467248,0,0,0,0,0,0,0
9,99999,87,90000,72,70000,49,9999,0.100000,0,0,0.000000,6,1.000000,0.000000,1.549667,0,0,0,0,0,0,0
9,99999,88,90000,0,60000,40,9999,0.100000,0,0,0.000000,6,0.000000,0.000000,0.077116,0,0,0,0,0,0,0
9,99999,89,90000,72,70000,40,9999,0.100000,0,0,0.000000,6,0.000000,0.000000,0.134677,0,0,0,0,0,0,0
9,99999,90,90000,72,70000,40,9999,0.100000,0,0,0.000000,6,0.000000,0.000000,0.226891,0,0,0,0,0,0,0
9,99999,91,90000,72,70000,40,9999,0.100000,0,0,0.000000,6,0.000000,0.000000,0.459599,0,0,0,0,0,0,0
9,99999,92,90000,72,70000,40,9999,0.100000,0,0,0.000000,6,0.000000,0.000000,1.324958,0,0,0,0,0,0,0
9,99999,93,90000,72,70000,49,9999,0.100000,0,0,0.000000,6,5.000000,0.000000,10.327827,0,0,0,0,0,0,0
9,99999,94,90000,72,10000,40,9999,0.100000,0,0,0.000000,6,0.000000,0.000000,1.755852,0,0,0,0,0,0,0
9,99999,95,90000,72,10000,49,9999,0.100000,0,0,0.000000,6,1.000000,0.000000,12.102420,0,0,0,0,0,0,0
9,99999,96,90000,20,0,40,9999,0.100000,0,0,0.000000,6,0.000000,0.000000,0.126885,0,0,0,0,0,0,0
9,99999,97,90000,20,0,40,9999,0.100000,0,0,0.000000,6,0.000000,0.000000,0.232782,0,0,0,0,0,0,0
9,99999,98,90000,20,0,40,9999,0.100000,0,0,0.000000,6,0.000000,0.000000,0.217705,0,0,0,0,0,0,0
9,99999,99,90000,0,40000,49,9999,0.100000,0,0,0.000000,6,4.000000,0.000000,8.676954,0,0,0,0,0,0,0
10,109999,0,100000,4,10000,40,9999,0.100000,0,0,0.000000,6,0.000000,0.000000,0.627800,0,0,0,0,0,0,0
10,109999,1,100000,20,0,40,9999,0.100000,0,0,0.000000,6,0.000000,0.000000,0.415584,0,0,0,0,0,0,0
10,109999,2,100000,4,10000,40,9999,0.100000,0,0,0.000000,6,0.000000,0.000000,0.503764,0,0,0,0,0,0,0
10,109999,3,100000,20,0,40,9999,0.100000,0,0,0.000000,6,0.000000,0.000000,0.104102,0,0,0,0,0,0,0
10,109999,4,100000,0,60000,40,9999,0.100000,0,0,0.000000,6,0.000000,0.000000,0.663453,0,0,0,0,0,0,0
10,109999,5,100000,72,10000,40,9999,0.100000,0,0,0.000000,6,0.000000,0.000000,1.206257,0,0,0,0,0,0,0
10,109999,6,100000,0,40000,40,9999,0.100000,0,0,0.000000,6,0.000000,0.000000,0.136443,0,0,0,0,0,0,0
10,109999,7,100000,0,40000,40,9999,0.100000,0,0,0.000000,6,0.000000,0.000000,0.156960,0,0,0,0,0,0,0
10,109999,8,100000,0,40000,40,9999,0.100000,0,0,0.000000,6,0.000000,0.000000,0.089135,0,0,0,0,0,0,0
10,109999,9,100000,20,0,40,9999,0.100000,0,0,0.000000,6,0.000000,0.000000,0.189048,0,0,0,0,0,0,0
10,109999,10,100000,0,60000,49,9999,0.100000,0,0,0.000000,6,1.000000,0.000000,4.774617,0,0,0,0,0,0,0
10,109999,11,100000,0,40000,40,9999,0.100000,0,0,0.000000,6,0.000000,0.000000,21.493649,0,0,0,0,0,0,0
10,109999,12,100000,0,60000,49,9999,0.100000,0,0,0.000000,6,9.000000,0.000000,18.599138,0,0,0,0,0,0,0
10,109999,13,100000,4,10000,40,9999,0.100000,0,0,0.000000,6,0.000000,0.000000,0.275068,0,0,0,0,0,0,0
10,109999,14,100000,20,0,40,9999,0.100000,0,0,0.000000,6,0.000000,0.000000,0.080544,0,0,0,0,0,0,0
10,109999,15,100000,0,60000,40,9999,0.100000,0,0,0.000000,6,0.000000,0.000000,0.120990,0,0,0,0,0,0,0
10,109999,16,100000,0,60000,40,9999,0.100000,0,0,0.000000,6,0.000000,0.000000,0.110838,0,0,0,0,0,0,0
10,109999,17,100000,72,70000,40,9999,0.100000,0,0,0.000000,6,0.000000,0.000000,2.129699,0,0,0,0,0,0,0
10,109999,18,100000,0,60000,40,9999,0.100000,0,0,0.000000,6,0.000000,0.000000,0.223114,0,0,0,0,0,0,0
10,109999,19,100000,72,10000,40,9999,0.100000,0,0,0.000000,6,0.000000,0.000000,3.170950,0,0,0,0,0,0,0
10,109999,20,100000,0,40000,40,9999,0.100000,0,0,0.000000,6,0.000000,0.000000,0.097017,0,0,0,0,0,0,0
10,109999,21,100000,20,0,40,9999,0.100000,0,0,0.000000,6,0.000000,0.000000,0.100849,0,0,0,0,0,0,0
10,109999,22,100000,20,0,40,9999,0.100000,0,0,0.000000,6,0.000000,0.000000,0.136855,0,0,0,0,0,0,0
10,109999,23,100000,72,10000,40,9999,0.100000,0,0,0.000000,6,0.000000,0.000000,4.384681,0,0,0,0,0,0,0
10,109999,24,100000,0,60000,40,9999,0.100000,0,0,0.000000,6,0.000000,0.000000,0.997799,0,0,0,0,0,0,0
10,109999,25,100000,72,10000,49,9999,0.100000,0,0,0.000000,6,4.000000,0.000000,9.488300,0,0,0,0,0,0,0
10,109999,26,100000,20,0,40,9999,0.100000,0,0,0.000000,6,0.000000,0.000000,0.078050,0,0,0,0,0,0,0
10,109999,27,100000,72,70000,40,9999,0.100000,0,0,0.000000,6,0.000000,0.000000,1.383826,0,0,0,0,0,0,0
10,109999,28,100000,0,60000,40,9999,0.100000,0,0,0.000000,6,0.000000,0.000000,0.096701,0,0,0,0,0,0,0
10,109999,29,100000,72,70000,40,9999,0.100000,0,0,0.000000,6,0.000000,0.000000,0.119656,0,0,0,0,0,0,0
10,109999,30,100000,0,40000,49,9999,0.100000,0,0,0.000000,6,1.000000,0.000000,11.409067,0,0,0,0,0,0,0
10,109999,31,100000,72,70000,40,9999,0.100000,0,0,0.000000,6,0.000000,0.000000,0.106092,0,0,0,0,0,0,0
10,109999,32,100000,72,70000,40,9999,0.100000,0,0,0.000000,6,0.000000,0.000000,0.739533,0,0,0,0,0,0,0
10,109999,33,100000,4,10000,49,9999,0.100000,0,0,0.000000,6,6.000000,0.000000,14.747543,0,0,0,0,0,0,0
10,109999,34,100000,72,10000,49,9999,0.100000,0,0,0.000000,6,6.000000,0.000000,12.477232,0,0,0,0,0,0,0
10,109999,35,100000,72,70000,40,9999,0.100000,0,0,0.000000,6,0.000000,0.000000,0.212534,0,0,0,0,0,0,0
10,109999,36,100000,4,10000,40,9999,0.100000,0,0,0.000000,6,0.000000,0.000000,0.289392,0,0,0,0,0,0,0
10,109999,37,100000,0,40000,40,9999,0.100000,0,0,0.000000,6,0.000000,0.000000,0.165548,0,0,0,0,0,0,0
10,109999,38,100000,0,40000,40,9999,0.100000,0,0,0.000000,6,0.000000,0.000000,0.071680,0,0,0,0,0,0,0
10,109999,39,100000,4,10000,40,9999,0.100000,0,0,0.000000,6,0.000000,0.000000,0.078783,0,0,0,0,0,0,0
10,109999,40,100000,72,70000,40,9999,0.100000,0,0,0.000000,6,0.000000,0.000000,1.501095,0,0,0,0,0,0,0
10,109999,41,100000,20,0,40,9999,0.100000,0,0,0.000000,6,0.000000,0.000000,0.084963,0,0,0,0,0,0,0
10,109999,42,100000,72,70000,40,9999,0.100000,0,0,0.000000,6,0.000000,0.000000,0.099010,0,0,0,0,0,0,0
10,109999,43,100000,20,0,40,9999,0.100000,0,0,0.000000,6,0.000000,0.000000,0.796263,0,0,0,0,0,0,0
10,109999,44,100000,4,10000,40,9999,0.100000,0,0,0.000000,6,0.000000,0.000000,0.075259,0,0,0,0,0,0,0
10,109999,45,100000,72,10000,40,9999,0.100000,0,0,0.000000,6,0.000000,0.000000,0.418967,0,0,0,0,0,0,0
10,109999,46,100000,72,70000,40,9999,0.100000,0,0,0.000000,6,0.000000,0.000000,0.507623,0,0,0,0,0,0,0
10,109999,47,100000,20,0,40,9999,0.100000,0,0,0.000000,6,0.000000,0.000000,1.107158,0,0,0,0,0,0,0
10,109999,48,100000,72,70000,40,9999,0.100000,0,0,0.000000,6,0.000000,0.000000,8.041199,0,0,0,0,0,0,0
10,109999,49,100000,72,70000,40,9999,0.100000,0,0,0.000000,6,0.000000,0.000000,0.085233,0,0,0,0,0,0,0
10,109999,50,100000,0,40000,40,9999,0.100000,0,0,0.000000,6,0.000000,0.000000,0.214950,0,0,0,0,0,0,0
10,109999,51,100000,0,60000,40,9999,0.100000,0,0,0.000000,6,0.000000,0.000000,2.760991,0,0,0,0,0,0,0
10,109999,52,100000,0,40000,49,9999,0.100000,0,0,0.000000,6,7.000000,0.000000,16.097025,0,0,0,0,0,0,0
10,109999,53,100000,20,0,40,9999,0.100000,0,0,0.000000,6,0.000000,0.000000,0.156273,0,0,0,0,0,0,0
10,109999,54,90000,72,70000,49,19999,0.100000,0,0,0.000000,6,8.000000,0.000000,17.645334,0,0,0,0,0,0,0
10,109999,55,100000,72,70000,40,9999,0.100000,0,0,0.000000,6,0.000000,0.000000,0.110468,0,0,0,0,0,0,0
10,109999,56,100000,0,40000,40,9999,0.100000,0,0,0.000000,6,0.000000,0.000000,0.348847,0,0,0,0,0,0,0
10,109999,57,100000,72,70000,40,9999,0.100000,0,0,0.000000,6,0.000000,0.000000,20.768964,0,0,0,0,0,0,0
10,109999,58,100000,4,10000,40,9999,0.100000,0,0,0.000000,6,0.000000,0.000000,0.098817,0,0,0,0,0,0,0
10,109999,59,100000,20,0,49,9999,0.100000,0,0,0.000000,6,1.000000,0.000000,9.729043,0,0,0,0,0,0,0
10,109999,60,100000,4,10000,40,9999,0.100000,0,0,0.000000,6,0.000000,0.000000,0.081773,0,0,0,0,0,0,0
10,109999,61,100000,0,40000,40,9999,0.100000,0,0,0.000000,6,0.000000,0.000000,0.291376,0,0,0,0,0,0,0
10,109999,62,100000,72,70000,40,9999,0.100000,0,0,0.000000,6,0.000000,0.000000,0.520957,0,0,0,0,0,0,0
10,109999,63,100000,0,60000,49,9999,0.100000,0,0,0.000000,6,1.000000,0.000000,17.477161,0,0,0,0,0,0,0
10,109999,64,100000,0,40000,40,9999,0.100000,0,0,0.000000,6,0.000000,0.000000,0.089888,0,0,0,0,0,0,0
10,109999,65,100000,0,40000,40,9999,0.100000,0,0,0.000000,6,0.000000,0.000000,0.454160,0,0,0,0,0,0,0
10,109999,66,100000,4,10000,40,9999,0.100000,0,0,0.000000,6,0.000000,0.000000,0.111743,0,0,0,0,0,0,0
10,109999,67,100000,72,10000,40,9999,0.100000,0,0,0.000000,6,0.000000,0.000000,0.202246,0,0,0,0,0,0,0
10,109999,68,100000,4,10000,40,9999,0.100000,0,0,0.000000,6,0.000000,0.000000,3.382060,0,0,0,0,0,0,0
10,109999,69,100000,20,0,40,9999,0.100000,0,0,0.000000,6,0.000000,0.000000,0.138803,0,0,0,0,0,0,0
10,109999,70,100000,0,40000,40,9999,0.100000,0,0,0.000000,6,0.000000,0.000000,0.068725,0,0,0,0,0,0,0
10,109999,71,100000,72,70000,40,9999,0.100000,0,0,0.000000,6,0.000000,0.000000,0.671423,0,0,0,0,0,0,0
10,109999,72,100000,72,70000,40,9999,0.100000,0,0,0.000000,6,0.000000,0.000000,0.097974,0,0,0,0,0,0,0
10,109999,73,100000,4,10000,40,9999,0.100000,0,0,0.000000,6,0.000000,0.000000,2.780534,0,0,0,0,0,0,0
10,109999,74,100000,72,70000,40,9999,0.100000,0,0,0.000000,6,0.000000,0.000000,10.850515,0,0,0,0,0,0,0
10,109999,75,100000,4,10000,40,9999,0.100000,0,0,0.000000,6,0.000000,0.000000,0.398222,0,0,0,0,0,0,0
10,109999,76,100000,0,40000,40,9999,0.100000,0,0,0.000000,6,0.000000,0.000000,1.403403,0,0,0,0,0,0,0
10,109999,77,100000,72,10000,40,9999,0.100000,0,0,0.000000,6,0.000000,0.000000,0.444203,0,0,0,0,0,0,0
10,109999,78,100000,72,10000,40,9999,0.100000,0,0,0.000000,6,0.000000,0.000000,0.129204,0,0,0,0,0,0,0
10,109999,79,100000,0,40000,40,9999,0.100000,0,0,0.000000,6,0.000000,0.000000,0.107842,0,0,0,0,0,0,0
10,109999,80,100000,0,40000,40,9999,0.100000,0,0,0.000000,6,0.000000,0.000000,0.515161,0,0,0,0,0,0,0
10,109999,81,100000,20,0,49,9999,0.100000,0,0,0.000000,6,5.000000,0.000000,12.607101,0,0,0,0,0,0,0
10,109999,82,100000,0,40000,40,9999,0.100000,0,0,0.000000,6,0.000000,0.000000,0.369442,0,0,0,0,0,0,0
10,109999,83,100000,4,10000,40,9999,0.100000,0,0,0.000000,6,0.000000,0.000000,0.216360,0,0,0,0,0,0,0
10,109999,84,100000,4,10000,49,9999,0.100000,0,0,0.000000,6,2.000000,0.000000,4.466702,0,0,0,0,0,0,0
10,109999,85,100000,4,10000,40,9999,0.100000,0,0,0.000000,6,0.000000,0.000000,0.138096,0,0,0,0,0,0,0
10,109999,86,100000,72,70000,40,9999,0.100000,0,0,0.000000,6,0.000000,0.000000,0.472682,0,0,0,0,0,0,0
10,109999,87,100000,20,0,40,9999,0.100000,0,0,0.000000,6,0.000000,0.000000,0.282170,0,0,0,0,0,0,0
10,109999,88,100000,72,10000,40,9999,0.100000,0,0,0.000000,6,0.000000,0.000000,0.076658,0,0,0,0,0,0,0
10,109999,89,100000,72,10000,40,9999,0.100000,0,0,0.000000,6,0.000000,0.000000,0.133901,0,0,0,0,0,0,0
10,109999,90,100000,4,10000,40,9999,0.100000,0,0,0.000000,6,0.000000,0.000000,1.030236,0,0,0,0,0,0,0
10,109999,91,100000,72,70000,49,9999,0.100000,0,0,0.000000,6,1.000000,0.000000,2.236637,0,0,0,0,0,0,0
10,109999,92,100000,20,0,49,9999,0.100000,0,0,0.000000,6,1.000000,0.000000,1.351579,0,0,0,0,0,0,0
10,109999,93,100000,72,70000,49,9999,0.100000,0,0,0.000000,6,5.000000,0.000000,20.632019,0,0,0,0,0,0,0
10,109999,94,100000,4,10000,49,9999,0.100000,0,0,0.000000,6,9.000000,0.000000,20.072285,0,0,0,0,0,0,0
10,109999,95,100000,20,0,49,9999,0.100000,0,0,0.000000,6,1.000000,0.000000,13.060964,0,0,0,0,0,0,0
10,109999,96,100000,20,0,40,9999,0.100000,0,0,0.000000,6,0.000000,0.000000,0.136817,0,0,0,0,0,0,0
10,109999,97,100000,4,10000,40,9999,0.100000,0,0,0.000000,6,0.000000,0.000000,0.227236,0,0,0,0,0,0,0
10,109999,98,100000,0,40000,40,9999,0.100000,0,0,0.000000,6,0.000000,0.000000,0.225481,0,0,0,0,0,0,0
10,109999,99,100000,0,60000,40,9999,0.100000,0,0,0.000000,6,0.000000,0.000000,0.072276,0,0,0,0,0,0,0
11,119999,0,110000,0,40000,40,9999,0.100000,0,0,0.000000,6,0.000000,0.000000,3.015080,0,0,0,0,0,0,0
11,119999,1,110000,0,40000,40,9999,0.100000,0,0,0.000000,6,0.000000,0.000000,2.006205,0,0,0,0,0,0,0
11,119999,2,110000,72,70000,40,9999,0.100000,0,0,0.000000,6,0.000000,0.000000,0.649301,0,0,0,0,0,0,0
11,119999,3,110000,0,60000,40,9999,0.100000,0,0,0.000000,6,0.000000,0.000000,0.086815,0,0,0,0,0,0,0
11,119999,4,110000,0,40000,40,9999,0.100000,0,0,0.000000,6,0.000000,0.000000,1.299883,0,0,0,0,0,0,0
11,119999,5,110000,0,60000,40,9999,0.100000,0,0,0.000000,6,0.000000,0.000000,1.378334,0,0,0,0,0,0,0
11,119999,6,110000,0,60000,40,9999,0.100000,0,0,0.000000,6,0.000000,0.000000,0.142855,0,0,0,0,0,0,0
11,119999,7,110000,0,60000,40,9999,0.100000,0,0,0.000000,6,0.000000,0.000000,0.150146,0,0,0,0,0,0,0
11,119999,8,110000,4,10000,40,9999,0.100000,0,0,0.000000,6,0.000000,0.000000,0.086717,0,0,0,0,0,0,0
11,119999,9,110000,4,10000,40,9999,0.100000,0,0,0.000000,6,0.000000,0.000000,0.161189,0,0,0,0,0,0,0
11,119999,10,110000,0,40000,40,9999,0.100000,0,0,0.000000,6,0.000000,0.000000,1.323674,0,0,0,0,0,0,0
11,119999,11,110000,20,0,40,9999,0.100000,0,0,0.000000,6,0.000000,0.000000,12.733514,0,0,0,0,0,0,0
11,119999,12,110000,20,0,40,9999,0.100000,0,0,0.000000,6,0.000000,0.000000,0.327560,0,0,0,0,0,0,0
11,119999,13,110000,4,10000,40,9999,0.100000,0,0,0.000000,6,0.000000,0.000000,0.844121,0,0,0,0,0,0,0
11,119999,14,110000,4,10000,40,9999,0.100000,0,0,0.000000,6,0.000000,0.000000,0.145856,0,0,0,0,0,0,0
11,119999,15,110000,4,10000,40,9999,0.100000,0,0,0.000000,6,0.000000,0.000000,0.111236,0,0,0,0,0,0,0
11,119999,16,110000,72,10000,40,9999,0.100000,0,0,0.000000,6,0.000000,0.000000,0.162540,0,0,0,0,0,0,0
11,119999,17,110000,0,40000,40,9999,0.100000,0,0,0.000000,6,0.000000,0.000000,0.699751,0,0,0,0,0,0,0
11,119999,18,110000,0,60000,40,9999,0.100000,0,0,0.000000,6,0.000000,0.000000,0.236037,0,0,0,0,0,0,0
11,119999,19,110000,4,10000,40,9999,0.100000,0,0,0.000000,6,0.000000,0.000000,3.028102,0,0,0,0,0,0,0
11,119999,20,110000,4,10000,40,9999,0.100000,0,0,0.000000,6,0.000000,0.000000,0.096153,0,0,0,0,0,0,0
11,119999,21,110000,0,60000,40,9999,0.100000,0,0,0.000000,6,0.000000,0.000000,0.104891,0,0,0,0,0,0,0
11,119999,22,110000,0,60000,40,9999,0.100000,0,0,0.000000,6,0.000000,0.000000,0.114501,0,0,0,0,0,0,0
11,119999,23,110000,72,70000,40,9999,0.100000,0,0,0.000000,6,0.000000,0.000000,6.656817,0,0,0,0,0,0,0
11,119999,24,110000,0,60000,40,9999,0.100000,0,0,0.000000,6,0.000000,0.000000,0.977409,0,0,0,0,0,0,0
11,119999,25,110000,4,10000,40,9999,0.100000,0,0,0.000000,6,0.000000,0.000000,2.371677,0,0,0,0,0,0,0
11,119999,26,110000,0,60000,40,9999,0.100000,0,0,0.000000,6,0.000000,0.000000,0.072481,0,0,0,0,0,0,0
11,119999,27,110000,4,10000,40,9999,0.100000,0,0,0.000000,6,0.000000,0.000000,0.251710,0,0,0,0,0,0,0
11,119999,28,110000,72,10000,40,9999,0.100000,0,0,0.000000,6,0.000000,0.000000,0.187381,0,0,0,0,0,0,0
11,119999,29,110000,0,40000,49,9999,0.100000,0,0,0.000000,6,4.000000,0.000000,16.382078,0,0,0,0,0,0,0
11,119999,30,110000,20,0,49,9999,0.100000,0,0,0.000000,6,1.000000,0.000000,7.317548,0,0,0,0,0,0,0
11,119999,31,110000,0,60000,40,9999,0.100000,0,0,0.000000,6,0.000000,0.000000,0.105669,0,0,0,0,0,0,0
11,119999,32,110000,4,10000,49,9999,0.100000,0,0,0.000000,6,4.000000,0.000000,8.320877,0,0,0,0,0,0,0
11,119999,33,110000,72,70000,40,9999,0.100000,0,0,0.000000,6,0.000000,0.000000,2.504231,0,0,0,0,0,0,0
11,119999,34,110000,0,60000,40,9999,0.100000,0,0,0.000000,6,0.000000,0.000000,0.123210,0,0,0,0,0,0,0
11,119999,35,110000,0,60000,40,9999,0.100000,0,0,0.000000,6,0.000000,0.000000,0.211834,0,0,0,0,0,0,0
11,119999,36,110000,20,0,40,9999,0.100000,0,0,0.000000,6,0.000000,0.000000,0.291673,0,0,0,0,0,0,0
11,119999,37,110000,72,70000,40,9999,0.100000,0,0,0.000000,6,0.000000,0.000000,0.266497,0,0,0,0,0,0,0
11,119999,38,110000,72,10000,40,9999,0.100000,0,0,0.000000,6,0.000000,0.000000,0.071218,0,0,0,0,0,0,0
11,119999,39,110000,0,60000,40,9999,0.100000,0,0,0.000000,6,0.000000,0.000000,0.078121,0,0,0,0,0,0,0
11,119999,40,110000,72,10000,40,9999,0.100000,0,0,0.000000,6,0.000000,0.000000,2.161630,0,0,0,0,0,0,0
11,119999,41,110000,20,0,40,9999,0.100000,0,0,0.000000,6,0.000000,0.000000,0.083663,0,0,0,0,0,0,0
11,119999,42,110000,20,0,40,9999,0.100000,0,0,0.000000,6,0.000000,0.000000,0.100883,0,0,0,0,0,0,0
11,119999,43,110000,4,10000,40,9999,0.100000,0,0,0.000000,6,0.000000,0.000000,1.024927,0,0,0,0,0,0,0
11,119999,44,110000,0,60000,40,9999,0.100000,0,0,0.000000,6,0.000000,0.000000,0.168421,0,0,0,0,0,0,0
11,119999,45,110000,72,10000,40,9999,0.100000,0,0,0.000000,6,0.000000,0.000000,0.324069,0,0,0,0,0,0,0
11,119999,46,110000,72,70000,40,9999,0.100000,0,0,0.000000,6,0.000000,0.000000,0.511897,0,0,0,0,0,0,0
11,119999,47,110000,72,70000,40,9999,0.100000,0,0,0.000000,6,0.000000,0.000000,0.977946,0,0,0,0,0,0,0
11,119999,48,110000,20,0,40,9999,0.100000,0,0,0.000000,6,0.000000,0.000000,8.012062,0,0,0,0,0,0,0
11,119999,49,110000,72,70000,40,9999,0.100000,0,0,0.000000,6,0.000000,0.000000,0.181515,0,0,0,0,0,0,0
11,119999,50,110000,20,0,40,9999,0.100000,0,0,0.000000,6,0.000000,0.000000,0.226804,0,0,0,0,0,0,0
11,119999,51,110000,20,0,49,9999,0.100000,0,0,0.000000,6,1.000000,0.000000,5.251200,0,0,0,0,0,0,0
11,119999,52,110000,20,0,40,9999,0.100000,0,0,0.000000,6,0.000000,0.000000,0.560631,0,0,0,0,0,0,0
11,119999,53,110000,4,10000,40,9999,0.100000,0,0,0.000000,6,0.000000,0.000000,0.266686,0,0,0,0,0,0,0
11,119999,54,110000,0,40000,40,9999,0.100000,0,0,0.000000,6,0.000000,0.000000,0.112429,0,0,0,0,0,0,0
11,119999,55,110000,0,60000,40,9999,0.100000,0,0,0.000000,6,0.000000,0.000000,0.111007,0,0,0,0,0,0,0
11,119999,56,110000,4,10000,40,9999,0.100000,0,0,0.000000,6,0.000000,0.000000,0.293785,0,0,0,0,0,0,0
11,119999,57,110000,20,0,40,9999,0.100000,0,0,0.000000,6,0.000000,0.000000,21.579388,0,0,0,0,0,0,0
11,119999,58,110000,72,70000,40,9999,0.100000,0,0,0.000000,6,0.000000,0.000000,0.090383,0,0,0,0,0,0,0
11,119999,59,110000,72,10000,49,9999,0.100000,0,0,0.000000,6,1.000000,0.000000,13.958545,0,0,0,0,0,0,0
11,119999,60,110000,72,70000,40,9999,0.100000,0,0,0.000000,6,0.000000,0.000000,0.175600,0,0,0,0,0,0,0
11,119999,61,110000,4,10000,40,9999,0.100000,0,0,0.000000,6,0.000000,0.000000,0.305841,0,0,0,0,0,0,0
11,119999,62,110000,72,10000,40,9999,0.100000,0,0,0.000000,6,0.000000,0.000000,0.524699,0,0,0,0,0,0,0
11,119999,63,110000,72,70000,49,9999,0.100000,0,0,0.000000,6,1.000000,0.000000,13.660870,0,0,0,0,0,0,0
11,119999,64,110000,72,70000,49,9999,0.100000,0,0,0.000000,6,3.000000,0.000000,7.966781,0,0,0,0,0,0,0
11,119999,65,110000,72,10000,49,9999,0.100000,0,0,0.000000,6,2.000000,0.000000,5.693617,0,0,0,0,0,0,0
11,119999,66,110000,72,70000,40,9999,0.100000,0,0,0.000000,6,0.000000,0.000000,0.115707,0,0,0,0,0,0,0
11,119999,67,110000,4,10000,40,9999,0.100000,0,0,0.000000,6,0.000000,0.000000,0.246088,0,0,0,0,0,0,0
11,119999,68,110000,72,10000,40,9999,0.100000,0,0,0.000000,6,0.000000,0.000000,3.269770,0,0,0,0,0,0,0
11,119999,69,110000,20,0,40,9999,0.100000,0,0,0.000000,6,0.000000,0.000000,0.213918,0,0,0,0,0,0,0
11,119999,70,110000,20,0,40,9999,0.100000,0,0,0.000000,6,0.000000,0.000000,0.070244,0,0,0,0,0,0,0
11,119999,71,110000,72,10000,40,9999,0.100000,0,0,0.000000,6,0.000000,0.000000,0.348078,0,0,0,0,0,0,0
11,119999,72,110000,20,0,40,9999,0.100000,0,0,0.000000,6,0.000000,0.000000,0.097934,0,0,0,0,0,0,0
11,119999,73,110000,72,70000,40,9999,0.100000,0,0,0.000000,6,0.000000,0.000000,2.746121,0,0,0,0,0,0,0
11,119999,74,110000,20,0,49,9999,0.100000,0,0,0.000000,6,1.000000,0.000000,12.359609,0,0,0,0,0,0,0
11,119999,75,110000,0,40000,40,9999,0.100000,0,0,0.000000,6,0.000000,0.000000,0.412121,0,0,0,0,0,0,0
11,119999,76,110000,20,0,40,9999,0.100000,0,0,0.000000,6,0.000000,0.000000,0.847241,0,0,0,0,0,0,0
11,119999,77,110000,4,10000,40,9999,0.100000,0,0,0.000000,6,0.000000,0.000000,0.555029,0,0,0,0,0,0,0
11,119999,78,110000,72,70000,40,9999,0.100000,0,0,0.000000,6,0.000000,0.000000,0.097678,0,0,0,0,0,0,0
11,119999,79,110000,72,70000,40,9999,0.100000,0,0,0.000000,6,0.000000,0.000000,0.129607,0,0,0,0,0,0,0
11,119999,80,110000,4,10000,40,9999,0.100000,0,0,0.000000,6,0.000000,0.000000,0.829388,0,0,0,0,0,0,0
11,119999,81,110000,72,10000,49,9999,0.100000,0,0,0.000000,6,4.000000,0.000000,11.208317,0,0,0,0,0,0,0
11,119999,82,110000,4,10000,40,9999,0.100000,0,0,0.000000,6,0.000000,0.000000,0.311081,0,0,0,0,0,0,0
11,119999,83,110000,0,40000,40,9999,0.100000,0,0,0.000000,6,0.000000,0.000000,0.220794,0,0,0,0,0,0,0
11,119999,84,110000,0,40000,40,9999,0.100000,0,0,0.000000,6,0.000000,0.000000,1.062139,0,0,0,0,0,0,0
11,119999,85,110000,72,10000,40,9999,0.100000,0,0,0.000000,6,0.000000,0.000000,0.229651,0,0,0,0,0,0,0
11,119999,86,110000,72,10000,49,9999,0.100000,0,0,0.000000,6,5.000000,0.000000,11.692686,0,0,0,0,0,0,0
11,119999,87,110000,72,70000,40,9999,0.100000,0,0,0.000000,6,0.000000,0.000000,0.706398,0,0,0,0,0,0,0
11,119999,88,110000,4,10000,49,9999,0.100000,0,0,0.000000,6,10.000000,0.000000,21.267885,0,0,0,0,0,0,0
11,119999,89,110000,20,0,40,9999,0.100000,0,0,0.000000,6,0.000000,0.000000,0.133890,0,0,0,0,0,0,0
11,119999,90,110000,20,0,40,9999,0.100000,0,0,0.000000,6,0.000000,0.000000,0.500293,0,0,0,0,0,0,0
11,119999,91,100000,72,70000,40,19999,0.100000,0,0,0.000000,6,0.000000,0.000000,0.835406,0,0,0,0,0,0,0
11,119999,92,110000,0,40000,49,9999,0.100000,0,0,0.000000,6,2.000000,0.000000,4.218864,0,0,0,0,0,0,0
11,119999,93,110000,4,10000,49,9999,0.100000,0,0,0.000000,6,5.000000,0.000000,10.370388,0,0,0,0,0,0,0
11,119999,94,110000,72,70000,49,9999,0.100000,0,0,0.000000,6,2.000000,0.000000,3.680416,0,0,0,0,0,0,0
11,119999,95,110000,72,10000,49,9999,0.100000,0,0,0.000000,6,1.000000,0.000000,13.985600,0,0,0,0,0,0,0
11,119999,96,110000,20,0,40,9999,0.100000,0,0,0.000000,6,0.000000,0.000000,0.125397,0,0,0,0,0,0,0
11,119999,97,110000,4,10000,40,9999,0.100000,0,0,0.000000,6,0.000000,0.000000,0.239838,0,0,0,0,0,0,0
11,119999,98,110000,72,10000,40,9999,0.100000,0,0,0.000000,6,0.000000,0.000000,0.321355,0,0,0,0,0,0,0
11,119999,99,110000,72,10000,40,9999,0.100000,0,0,0.000000,6,0.000000,0.000000,0.073277,0,0,0,0,0,0,0
12,129999,0,120000,20,0,40,9999,0.100000,0,0,0.000000,6,0.000000,0.000000,2.052485,0,0,0,0,0,0,0
12,129999,1,120000,72,10000,40,9999,0.100000,0,0,0.000000,6,0.000000,0.000000,0.225018,0,0,0,0,0,0,0
12,129999,2,120000,0,60000,40,9999,0.100000,0,0,0.000000,6,0.000000,0.000000,0.088986,0,0,0,0,0,0,0
12,129999,3,120000,0,40000,40,9999,0.100000,0,0,0.000000,6,0.000000,0.000000,0.120538,0,0,0,0,0,0,0
12,129999,4,120000,4,10000,40,9999,0.100000,0,0,0.000000,6,0.000000,0.000000,1.748004,0,0,0,0,0,0,0
12,129999,5,120000,72,70000,40,9999,0.100000,0,0,0.000000,6,0.000000,0.000000,0.785136,0,0,0,0,0,0,0
12,129999,6,120000,20,0,40,9999,0.100000,0,0,0.000000,6,0.000000,0.000000,0.140317,0,0,0,0,0,0,0
12,129999,7,120000,4,10000,40,9999,0.100000,0,0,0.000000,6,0.000000,0.000000,0.303660,0,0,0,0,0,0,0
12,129999,8,120000,72,10000,40,9999,0.100000,0,0,0.000000,6,0.000000,0.000000,0.092174,0,0,0,0,0,0,0
12,129999,9,120000,72,10000,40,9999,0.100000,0,0,0.000000,6,0.000000,0.000000,0.311279,0,0,0,0,0,0,0
12,129999,10,120000,4,10000,40,9999,0.100000,0,0,0.000000,6,0.000000,0.000000,0.669675,0,0,0,0,0,0,0
12,129999,11,120000,4,10000,40,9999,0.100000,0,0,0.000000,6,0.000000,0.000000,0.451924,0,0,0,0,0,0,0
12,129999,12,120000,0,40000,40,9999,0.100000,0,0,0.000000,6,0.000000,0.000000,0.291102,0,0,0,0,0,0,0
12,129999,13,120000,0,40000,40,9999,0.100000,0,0,0.000000,6,0.000000,0.000000,0.413852,0,0,0,0,0,0,0
12,129999,14,120000,20,0,40,9999,0.100000,0,0,0.000000,6,0.000000,0.000000,0.556763,0,0,0,0,0,0,0
12,129999,15,120000,72,70000,40,9999,0.100000,0,0,0.000000,6,0.000000,0.000000,0.603567,0,0,0,0,0,0,0
12,129999,16,120000,0,60000,40,9999,0.100000,0,0,0.000000,6,0.000000,0.000000,0.148258,0,0,0,0,0,0,0
12,129999,17,120000,0,40000,40,9999,0.100000,0,0,0.000000,6,0.000000,0.000000,0.104005,0,0,0,0,0,0,0
12,129999,18,120000,4,10000,40,9999,0.100000,0,0,0.000000,6,0.000000,0.000000,0.245161,0,0,0,0,0,0,0
12,129999,19,120000,4,10000,40,9999,0.100000,0,0,0.000000,6,0.000000,0.000000,0.808533,0,0,0,0,0,0,0
12,129999,20,120000,4,10000,40,9999,0.100000,0,0,0.000000,6,0.000000,0.000000,0.109572,0,0,0,0,0,0,0
12,129999,21,120000,4,10000,40,9999,0.100000,0,0,0.000000,6,0.000000,0.000000,0.509935,0,0,0,0,0,0,0
12,129999,22,120000,20,0,40,9999,0.100000,0,0,0.000000,6,0.000000,0.000000,0.718264,0,0,0,0,0,0,0
12,129999,23,120000,0,40000,40,9999,0.100000,0,0,0.000000,6,0.000000,0.000000,2.845744,0,0,0,0,0,0,0
12,129999,24,120000,20,0,40,9999,0.100000,0,0,0.000000,6,0.000000,0.000000,0.809625,0,0,0,0,0,0,0
12,129999,25,120000,0,60000,40,9999,0.100000,0,0,0.000000,6,0.000000,0.000000,0.225031,0,0,0,0,0,0,0
12,129999,26,120000,72,10000,40,9999,0.100000,0,0,0.000000,6,0.000000,0.000000,0.072431,0,0,0,0,0,0,0
12,129999,27,120000,0,60000,40,9999,0.100000,0,0,0.000000,6,0.000000,0.000000,0.166722,0,0,0,0,0,0,0
12,129999,28,120000,0,60000,40,9999,0.100000,0,0,0.000000,6,0.000000,0.000000,0.186918,0,0,0,0,0,0,0
12,129999,29,120000,0,60000,49,9999,0.100000,0,0,0.000000,6,12.000000,0.000000,21.667156,0,0,0,0,0,0,0
12,129999,30,120000,20,0,49,9999,0.100000,0,0,0.000000,6,1.000000,0.000000,8.381577,0,0,0,0,0,0,0
12,129999,31,120000,4,10000,40,9999,0.100000,0,0,0.000000,6,0.000000,0.000000,0.105476,0,0,0,0,0,0,0
