generation,iteration,robot,birthday,ancestor_id,ancestor_birthday,cell_id,age,sigma,maps,genomes,fitness,cells_in_map,dist_max,dist_pot_max,dist_total,com_rx,com_tx,obj_group1,obj_group2,obj_group3,obj_group4,obj_group5
0,9999,0,0,0,0,49,9999,0.100000,0,0,0.000000,0,10.000000,0.000000,11.820174,0,0,0,0,0,0,0
0,9999,1,0,1,0,49,9999,0.100000,0,0,0.000000,0,8.000000,0.000000,13.306680,0,0,0,0,0,0,0
0,9999,2,0,2,0,49,9999,0.100000,0,0,0.000000,0,6.000000,0.000000,8.780102,0,0,0,0,0,0,0
0,9999,3,0,3,0,99,9999,0.100000,0,0,47.368421,0,8.000000,0.000000,28.414824,0,0,1,0,0,0,0
0,9999,4,0,4,0,49,9999,0.100000,0,0,0.000000,0,10.000000,0.000000,18.057945,0,0,0,0,0,0,0
0,9999,5,0,5,0,49,9999,0.100000,0,0,0.000000,0,4.000000,0.000000,8.570971,0,0,0,0,0,0,0
0,9999,6,0,6,0,49,9999,0.100000,0,0,0.000000,0,10.000000,0.000000,16.559173,0,0,0,0,0,0,0
0,9999,7,0,7,0,49,9999,0.100000,0,0,0.000000,0,7.000000,0.000000,25.887455,0,0,0,0,0,0,0
0,9999,8,0,8,0,49,9999,0.100000,0,0,0.000000,0,6.000000,0.000000,27.925423,0,0,0,0,0,0,0
0,9999,9,0,9,0,49,9999,0.100000,0,0,0.000000,0,7.000000,0.000000,21.834483,0,0,0,0,0,0,0
0,9999,10,0,10,0,49,9999,0.100000,0,0,0.000000,0,10.000000,0.000000,23.310855,0,0,0,0,0,0,0
0,9999,11,0,11,0,49,9999,0.100000,0,0,0.000000,0,6.000000,0.000000,10.898096,0,0,0,0,0,0,0
0,9999,12,0,12,0,49,9999,0.100000,0,0,0.000000,0,8.000000,0.000000,14.577062,0,0,0,0,0,0,0
0,9999,13,0,13,0,49,9999,0.100000,0,0,0.000000,0,6.000000,0.000000,7.321208,0,0,0,0,0,0,0
0,9999,14,0,14,0,49,9999,0.100000,0,0,0.000000,0,10.000000,0.000000,14.158417,0,0,0,0,0,0,0
0,9999,15,0,15,0,49,9999,0.100000,0,0,0.000000,0,11.000000,0.000000,19.280879,0,0,0,0,0,0,0
0,9999,16,0,16,0,49,9999,0.100000,0,0,0.000000,0,4.000000,0.000000,4.760016,0,0,0,0,0,0,0
0,9999,17,0,17,0,49,9999,0.100000,0,0,0.000000,0,5.000000,0.000000,11.015986,0,0,0,0,0,0,0
0,9999,18,0,18,0,49,9999,0.100000,0,0,0.000000,0,10.000000,0.000000,23.800831,0,0,0,0,0,0,0
0,9999,19,0,19,0,49,9999,0.100000,0,0,0.000000,0,10.000000,0.000000,17.825803,0,0,0,0,0,0,0
0,9999,20,0,20,0,49,9999,0.100000,0,0,0.000000,0,9.000000,0.000000,17.489033,0,0,0,0,0,0,0
0,9999,21,0,21,0,49,9999,0.100000,0,0,0.000000,0,12.000000,0.000000,14.466636,0,0,0,0,0,0,0
0,9999,22,0,22,0,49,9999,0.100000,0,0,0.000000,0,3.000000,0.000000,7.155066,0,0,0,0,0,0,0
0,9999,23,0,23,0,49,9999,0.100000,0,0,0.000000,0,4.000000,0.000000,5.662954,0,0,0,0,0,0,0
0,9999,24,0,24,0,49,9999,0.100000,0,0,0.000000,0,5.000000,0.000000,7.106909,0,0,0,0,0,0,0
0,9999,25,0,25,0,49,9999,0.100000,0,0,0.000000,0,5.000000,0.000000,9.427248,0,0,0,0,0,0,0
0,9999,26,0,26,0,49,9999,0.100000,0,0,0.000000,0,2.000000,0.000000,10.795000,0,0,0,0,0,0,0
0,9999,27,0,27,0,49,9999,0.100000,0,0,0.000000,0,9.000000,0.000000,23.802123,0,0,0,0,0,0,0
0,9999,28,0,28,0,49,9999,0.100000,0,0,0.000000,0,7.000000,0.000000,20.044150,0,0,0,0,0,0,0
0,9999,29,0,29,0,49,9999,0.100000,0,0,0.000000,0,2.000000,0.000000,4.574489,0,0,0,0,0,0,0
0,9999,30,0,30,0,49,9999,0.100000,0,0,0.000000,0,6.000000,0.000000,9.946141,0,0,0,0,0,0,0
0,9999,31,0,31,0,49,9999,0.100000,0,0,0.000000,0,8.000000,0.000000,14.000579,0,0,0,0,0,0,0
0,9999,32,0,32,0,49,9999,0.100000,0,0,0.000000,0,10.000000,0.000000,24.731252,0,0,0,0,0,0,0
0,9999,33,0,33,0,49,9999,0.100000,0,0,0.000000,0,10.000000,0.000000,13.969967,0,0,0,0,0,0,0
0,9999,34,0,34,0,49,9999,0.100000,0,0,0.000000,0,9.000000,0.000000,20.568887,0,0,0,0,0,0,0
0,9999,35,0,35,0,49,9999,0.100000,0,0,0.000000,0,8.000000,0.000000,12.404655,0,0,0,0,0,0,0
0,9999,36,0,36,0,49,9999,0.100000,0,0,0.000000,0,9.000000,0.000000,19.096031,0,0,0,0,0,0,0
0,9999,37,0,37,0,49,9999,0.100000,0,0,0.000000,0,2.000000,0.000000,3.182664,0,0,0,0,0,0,0
0,9999,38,0,38,0,49,9999,0.100000,0,0,0.000000,0,9.000000,0.000000,17.379002,0,0,0,0,0,0,0
0,9999,39,0,39,0,49,9999,0.100000,0,0,0.000000,0,8.000000,0.000000,22.382003,0,0,0,0,0,0,0
0,9999,40,0,40,0,49,9999,0.100000,0,0,0.000000,0,5.000000,0.000000,20.265003,0,0,0,0,0,0,0
0,9999,41,0,41,0,49,9999,0.100000,0,0,0.000000,0,11.000000,0.000000,12.140044,0,0,0,0,0,0,0
0,9999,42,0,42,0,49,9999,0.100000,0,0,0.000000,0,6.000000,0.000000,8.007679,0,0,0,0,0,0,0
0,9999,43,0,43,0,49,9999,0.100000,0,0,0.000000,0,10.000000,0.000000,21.200682,0,0,0,0,0,0,0
0,9999,44,0,44,0,49,9999,0.100000,0,0,0.000000,0,6.000000,0.000000,9.986371,0,0,0,0,0,0,0
0,9999,45,0,45,0,49,9999,0.100000,0,0,0.000000,0,8.000000,0.000000,13.212901,0,0,0,0,0,0,0
0,9999,46,0,46,0,49,9999,0.100000,0,0,0.000000,0,2.000000,0.000000,11.514303,0,0,0,0,0,0,0
0,9999,47,0,47,0,49,9999,0.100000,0,0,0.000000,0,7.000000,0.000000,10.465244,0,0,0,0,0,0,0
0,9999,48,0,48,0,9,9999,0.100000,0,0,0.000000,0,8.000000,0.000000,14.748014,0,0,0,0,0,1,0
0,9999,49,0,49,0,49,9999,0.100000,0,0,0.000000,0,9.000000,0.000000,11.122836,0,0,0,0,0,0,0
0,9999,50,0,50,0,9,9999,0.100000,0,0,0.000000,0,8.000000,0.000000,12.438136,0,0,0,0,0,24,0
0,9999,51,0,51,0,49,9999,0.100000,0,0,0.000000,0,11.000000,0.000000,18.930533,0,0,0,0,0,0,0
0,9999,52,0,52,0,49,9999,0.100000,0,0,0.000000,0,6.000000,0.000000,19.266036,0,0,0,0,0,0,0
0,9999,53,0,53,0,49,9999,0.100000,0,0,0.000000,0,11.000000,0.000000,17.949352,0,0,0,0,0,0,0
0,9999,54,0,54,0,49,9999,0.100000,0,0,0.000000,0,9.000000,0.000000,26.476694,0,0,0,0,0,0,0
0,9999,55,0,55,0,49,9999,0.100000,0,0,0.000000,0,9.000000,0.000000,19.713068,0,0,0,0,0,0,0
0,9999,56,0,56,0,49,9999,0.100000,0,0,0.000000,0,4.000000,0.000000,13.481683,0,0,0,0,0,0,0
0,9999,57,0,57,0,49,9999,0.100000,0,0,0.000000,0,8.000000,0.000000,18.395001,0,0,0,0,0,0,0
0,9999,58,0,58,0,49,9999,0.100000,0,0,0.000000,0,7.000000,0.000000,11.666275,0,0,0,0,0,0,0
0,9999,59,0,59,0,49,9999,0.100000,0,0,0.000000,0,2.000000,0.000000,2.686634,0,0,0,0,0,0,0
0,9999,60,0,60,0,49,9999,0.100000,0,0,0.000000,0,1.000000,0.000000,9.229154,0,0,0,0,0,0,0
0,9999,61,0,61,0,49,9999,0.100000,0,0,0.000000,0,4.000000,0.000000,7.347298,0,0,0,0,0,0,0
0,9999,62,0,62,0,49,9999,0.100000,0,0,0.000000,0,9.000000,0.000000,12.551692,0,0,0,0,0,0,0
0,9999,63,0,63,0,49,9999,0.100000,0,0,0.000000,0,13.000000,0.000000,24.416082,0,0,0,0,0,0,0
0,9999,64,0,64,0,49,9999,0.100000,0,0,0.000000,0,6.000000,0.000000,19.440971,0,0,0,0,0,0,0
0,9999,65,0,65,0,49,9999,0.100000,0,0,0.000000,0,3.000000,0.000000,7.800721,0,0,0,0,0,0,0
0,9999,66,0,66,0,49,9999,0.100000,0,0,0.000000,0,6.000000,0.000000,6.785617,0,0,0,0,0,0,0
0,9999,67,0,67,0,49,9999,0.100000,0,0,0.000000,0,10.000000,0.000000,16.966316,0,0,0,0,0,0,0
0,9999,68,0,68,0,9,9999,0.100000,0,0,0.000000,0,7.000000,0.000000,14.487129,0,0,0,0,0,23,0
0,9999,69,0,69,0,49,9999,0.100000,0,0,0.000000,0,3.000000,0.000000,5.201413,0,0,0,0,0,0,0
0,9999,70,0,70,0,49,9999,0.100000,0,0,0.000000,0,12.000000,0.000000,17.987022,0,0,0,0,0,0,0
0,9999,71,0,71,0,49,9999,0.100000,0,0,0.000000,0,13.000000,0.000000,28.627797,0,0,0,0,0,0,0
0,9999,72,0,72,0,49,9999,0.100000,0,0,0.000000,0,7.000000,0.000000,12.189901,0,0,0,0,0,0,0
0,9999,73,0,73,0,49,9999,0.100000,0,0,0.000000,0,2.000000,0.000000,4.385912,0,0,0,0,0,0,0
0,9999,74,0,74,0,49,9999,0.100000,0,0,0.000000,0,8.000000,0.000000,22.968644,0,0,0,0,0,0,0
0,9999,75,0,75,0,49,9999,0.100000,0,0,0.000000,0,9.000000,0.000000,23.780069,0,0,0,0,0,0,0
0,9999,76,0,76,0,49,9999,0.100000,0,0,0.000000,0,12.000000,0.000000,25.940145,0,0,0,0,0,0,0
0,9999,77,0,77,0,49,9999,0.100000,0,0,0.000000,0,8.000000,0.000000,11.174356,0,0,0,0,0,0,0
0,9999,78,0,78,0,49,9999,0.100000,0,0,0.000000,0,5.000000,0.000000,5.618150,0,0,0,0,0,0,0
0,9999,79,0,79,0,99,9999,0.100000,0,0,47.368421,0,12.000000,0.000000,26.743396,0,0,1,0,0,0,0
0,9999,80,0,80,0,49,9999,0.100000,0,0,0.000000,0,10.000000,0.000000,19.138346,0,0,0,0,0,0,0
0,9999,81,0,81,0,49,9999,0.100000,0,0,0.000000,0,7.000000,0.000000,11.492610,0,0,0,0,0,0,0
0,9999,82,0,82,0,49,9999,0.100000,0,0,0.000000,0,8.000000,0.000000,13.036073,0,0,0,0,0,0,0
0,9999,83,0,83,0,49,9999,0.100000,0,0,0.000000,0,10.000000,0.000000,18.267447,0,0,0,0,0,0,0
0,9999,84,0,84,0,49,9999,0.100000,0,0,0.000000,0,6.000000,0.000000,9.411304,0,0,0,0,0,0,0
0,9999,85,0,85,0,49,9999,0.100000,0,0,0.000000,0,6.000000,0.000000,10.626726,0,0,0,0,0,0,0
0,9999,86,0,86,0,49,9999,0.100000,0,0,0.000000,0,9.000000,0.000000,16.461117,0,0,0,0,0,0,0
0,9999,87,0,87,0,49,9999,0.100000,0,0,0.000000,0,9.000000,0.000000,13.312768,0,0,0,0,0,0,0
0,9999,88,0,88,0,49,9999,0.100000,0,0,0.000000,0,6.000000,0.000000,17.069796,0,0,0,0,0,0,0
0,9999,89,0,89,0,49,9999,0.100000,0,0,0.000000,0,6.000000,0.000000,14.081598,0,0,0,0,0,0,0
0,9999,90,0,90,0,49,9999,0.100000,0,0,0.000000,0,10.000000,0.000000,18.728717,0,0,0,0,0,0,0
0,9999,91,0,91,0,49,9999,0.100000,0,0,0.000000,0,10.000000,0.000000,11.862934,0,0,0,0,0,0,0
0,9999,92,0,92,0,49,9999,0.100000,0,0,0.000000,0,9.000000,0.000000,22.042034,0,0,0,0,0,0,0
0,9999,93,0,93,0,49,9999,0.100000,0,0,0.000000,0,5.000000,0.000000,10.706229,0,0,0,0,0,0,0
0,9999,94,0,94,0,99,9999,0.100000,0,0,47.368421,0,10.000000,0.000000,24.728474,0,0,1,0,0,0,0
0,9999,95,0,95,0,49,9999,0.100000,0,0,0.000000,0,9.000000,0.000000,10.121436,0,0,0,0,0,0,0
0,9999,96,0,96,0,49,9999,0.100000,0,0,0.000000,0,11.000000,0.000000,13.020438,0,0,0,0,0,0,0
0,9999,97,0,97,0,49,9999,0.100000,0,0,0.000000,0,9.000000,0.000000,15.145670,0,0,0,0,0,0,0
0,9999,98,0,98,0,49,9999,0.100000,0,0,0.000000,0,10.000000,0.000000,15.315696,0,0,0,0,0,0,0
0,9999,99,0,99,0,49,9999,0.100000,0,0,0.000000,0,6.000000,0.000000,9.635251,0,0,0,0,0,0,0
1,19999,0,10000,1,0,40,9999,0.100000,0,0,0.000000,2,0.000000,0.000000,0.083959,0,0,0,0,0,0,0
1,19999,1,0,1,0,49,19999,0.100000,0,0,0.000000,1,2.000000,0.000000,4.831849,0,0,0,0,0,0,0
1,19999,2,10000,32,0,40,9999,0.100000,0,0,0.000000,3,0.000000,0.000000,0.564218,0,0,0,0,0,0,0
1,19999,3,10000,32,0,40,9999,0.100000,0,0,0.000000,3,0.000000,0.000000,1.553834,0,0,0,0,0,0,0
1,19999,4,10000,32,0,40,9999,0.100000,0,0,0.000000,3,0.000000,0.000000,3.943234,0,0,0,0,0,0,0
1,19999,5,10000,32,0,49,9999,0.100000,0,0,0.000000,3,2.000000,0.000000,13.493626,0,0,0,0,0,0,0
1,19999,6,10000,1,0,40,9999,0.100000,0,0,0.000000,2,0.000000,0.000000,3.671369,0,0,0,0,0,0,0
1,19999,7,10000,7,0,49,9999,0.100000,0,0,0.000000,1,2.000000,0.000000,13.244335,0,0,0,0,0,0,0
1,19999,8,10000,32,0,40,9999,0.100000,0,0,0.000000,3,0.000000,0.000000,8.746091,0,0,0,0,0,0,0
1,19999,9,10000,32,0,9,9999,0.100000,0,0,34.210526,3,5.000000,0.000000,10.049622,0,0,0,1,0,0,0
1,19999,10,10000,1,0,49,9999,0.100000,0,0,0.000000,2,1.000000,0.000000,2.704594,0,0,0,0,0,0,0
1,19999,11,10000,32,0,49,9999,0.100000,0,0,0.000000,3,2.000000,0.000000,2.404593,0,0,0,0,0,0,0
1,19999,12,10000,1,0,49,9999,0.100000,0,0,0.000000,3,1.000000,0.000000,6.393577,0,0,0,0,0,0,0
1,19999,13,10000,0,0,40,9999,0.100000,0,0,0.000000,3,0.000000,0.000000,0.644422,0,0,0,0,0,0,0
1,19999,14,10000,32,0,49,9999,0.100000,0,0,0.000000,3,2.000000,0.000000,2.823858,0,0,0,0,0,0,0
1,19999,15,10000,32,0,40,9999,0.100000,0,0,0.000000,3,0.000000,0.000000,1.300862,0,0,0,0,0,0,0
1,19999,16,10000,0,0,40,9999,0.100000,0,0,0.000000,2,0.000000,0.000000,0.421084,0,0,0,0,0,0,0
1,19999,17,10000,17,0,40,9999,0.100000,0,0,0.000000,2,0.000000,0.000000,0.664599,0,0,0,0,0,0,0
1,19999,18,10000,0,0,49,9999,0.100000,0,0,0.000000,2,1.000000,0.000000,6.267291,0,0,0,0,0,0,0
1,19999,19,10000,0,0,49,9999,0.100000,0,0,0.000000,3,1.000000,0.000000,1.704123,0,0,0,0,0,0,0
1,19999,20,10000,32,0,40,9999,0.100000,0,0,0.000000,3,0.000000,0.000000,1.900268,0,0,0,0,0,0,0
1,19999,21,10000,32,0,49,9999,0.100000,0,0,0.000000,3,4.000000,0.000000,19.418142,0,0,0,0,0,0,0
1,19999,22,10000,0,0,49,9999,0.100000,0,0,0.000000,3,1.000000,0.000000,1.839350,0,0,0,0,0,0,0
1,19999,23,10000,1,0,40,9999,0.100000,0,0,0.000000,2,0.000000,0.000000,0.109746,0,0,0,0,0,0,0
1,19999,24,10000,0,0,40,9999,0.100000,0,0,0.000000,3,0.000000,0.000000,0.200787,0,0,0,0,0,0,0
1,19999,25,10000,0,0,40,9999,0.100000,0,0,0.000000,3,0.000000,0.000000,1.167931,0,0,0,0,0,0,0
1,19999,26,10000,1,0,49,9999,0.100000,0,0,0.000000,3,2.000000,0.000000,13.276122,0,0,0,0,0,0,0
1,19999,27,10000,32,0,40,9999,0.100000,0,0,0.000000,3,0.000000,0.000000,1.208866,0,0,0,0,0,0,0
1,19999,28,10000,1,0,40,9999,0.100000,0,0,0.000000,3,0.000000,0.000000,0.240619,0,0,0,0,0,0,0
1,19999,29,10000,1,0,40,9999,0.100000,0,0,0.000000,2,0.000000,0.000000,1.639730,0,0,0,0,0,0,0
1,19999,30,10000,1,0,9,9999,0.100000,0,0,34.210526,3,9.000000,0.000000,12.886377,0,0,0,1,0,0,0
1,19999,31,10000,1,0,49,9999,0.100000,0,0,0.000000,3,3.000000,0.000000,4.161897,0,0,0,0,0,0,0
1,19999,32,10000,32,0,40,9999,0.100000,0,0,0.000000,3,0.000000,0.000000,0.863492,0,0,0,0,0,0,0
1,19999,33,10000,1,0,49,9999,0.100000,0,0,0.000000,2,2.000000,0.000000,8.208734,0,0,0,0,0,0,0
1,19999,34,10000,1,0,49,9999,0.100000,0,0,0.000000,3,2.000000,0.000000,7.231895,0,0,0,0,0,0,0
1,19999,35,10000,1,0,40,9999,0.100000,0,0,0.000000,3,0.000000,0.000000,1.730219,0,0,0,0,0,0,0
1,19999,36,10000,0,0,49,9999,0.100000,0,0,0.000000,3,1.000000,0.000000,3.031075,0,0,0,0,0,0,0
1,19999,37,10000,1,0,40,9999,0.100000,0,0,0.000000,3,0.000000,0.000000,1.096976,0,0,0,0,0,0,0
1,19999,38,10000,0,0,49,9999,0.100000,0,0,0.000000,3,3.000000,0.000000,11.011282,0,0,0,0,0,0,0
1,19999,39,10000,32,0,40,9999,0.100000,0,0,0.000000,3,0.000000,0.000000,0.180466,0,0,0,0,0,0,0
1,19999,40,10000,32,0,49,9999,0.100000,0,0,0.000000,3,1.000000,0.000000,3.352919,0,0,0,0,0,0,0
1,19999,41,10000,32,0,40,9999,0.100000,0,0,0.000000,3,0.000000,0.000000,0.981608,0,0,0,0,0,0,0
1,19999,42,10000,1,0,40,9999,0.100000,0,0,0.000000,3,0.000000,0.000000,1.349132,0,0,0,0,0,0,0
1,19999,43,10000,0,0,40,9999,0.100000,0,0,0.000000,3,0.000000,0.000000,2.213822,0,0,0,0,0,0,0
1,19999,44,0,44,0,40,19999,0.100000,0,0,0.000000,2,0.000000,0.000000,0.154630,0,0,0,0,0,0,0
1,19999,45,10000,1,0,9,9999,0.100000,0,0,34.210526,3,5.000000,0.000000,10.656100,0,0,0,1,0,0,0
1,19999,46,10000,0,0,49,9999,0.100000,0,0,0.000000,3,3.000000,0.000000,11.330440,0,0,0,0,0,0,0
1,19999,47,10000,1,0,40,9999,0.100000,0,0,0.000000,3,0.000000,0.000000,1.393253,0,0,0,0,0,0,0
1,19999,48,10000,0,0,49,9999,0.100000,0,0,0.000000,3,2.000000,0.000000,6.488527,0,0,0,0,0,0,0
1,19999,49,10000,32,0,49,9999,0.100000,0,0,0.000000,3,2.000000,0.000000,8.853384,0,0,0,0,0,0,0
1,19999,50,10000,1,0,40,9999,0.100000,0,0,0.000000,3,0.000000,0.000000,1.781114,0,0,0,0,0,0,0
1,19999,51,10000,1,0,49,9999,0.100000,0,0,0.000000,3,2.000000,0.000000,6.155489,0,0,0,0,0,0,0
1,19999,52,10000,1,0,40,9999,0.100000,0,0,0.000000,3,0.000000,0.000000,0.719936,0,0,0,0,0,0,0
1,19999,53,10000,17,0,40,9999,0.100000,0,0,0.000000,2,0.000000,0.000000,6.378286,0,0,0,0,0,0,0
1,19999,54,10000,0,0,49,9999,0.100000,0,0,0.000000,3,5.000000,0.000000,14.793407,0,0,0,0,0,0,0
1,19999,55,10000,32,0,40,9999,0.100000,0,0,0.000000,3,0.000000,0.000000,15.995046,0,0,0,0,0,0,0
1,19999,56,10000,1,0,49,9999,0.100000,0,0,0.000000,3,2.000000,0.000000,10.744217,0,0,0,0,0,0,0
1,19999,57,10000,32,0,40,9999,0.100000,0,0,0.000000,3,0.000000,0.000000,1.969298,0,0,0,0,0,0,0
1,19999,58,10000,0,0,40,9999,0.100000,0,0,0.000000,3,0.000000,0.000000,1.085488,0,0,0,0,0,0,0
1,19999,59,10000,1,0,40,9999,0.100000,0,0,0.000000,3,0.000000,0.000000,0.081513,0,0,0,0,0,0,0
1,19999,60,10000,1,0,49,9999,0.100000,0,0,0.000000,3,1.000000,0.000000,5.975116,0,0,0,0,0,0,0
1,19999,61,10000,32,0,40,9999,0.100000,0,0,0.000000,3,0.000000,0.000000,0.301693,0,0,0,0,0,0,0
1,19999,62,10000,0,0,49,9999,0.100000,0,0,0.000000,3,1.000000,0.000000,1.373093,0,0,0,0,0,0,0
1,19999,63,10000,1,0,49,9999,0.100000,0,0,0.000000,3,13.000000,0.000000,46.427888,0,0,0,0,0,0,0
1,19999,64,10000,32,0,49,9999,0.100000,0,0,0.000000,3,3.000000,0.000000,8.159084,0,0,0,0,0,0,0
1,19999,65,10000,0,0,40,9999,0.100000,0,0,0.000000,3,0.000000,0.000000,0.085136,0,0,0,0,0,0,0
1,19999,66,10000,0,0,40,9999,0.100000,0,0,0.000000,3,0.000000,0.000000,0.184055,0,0,0,0,0,0,0
1,19999,67,10000,0,0,40,9999,0.100000,0,0,0.000000,3,0.000000,0.000000,0.940101,0,0,0,0,0,0,0
1,19999,68,10000,0,0,40,9999,0.100000,0,0,0.000000,3,0.000000,0.000000,0.168007,0,0,0,0,0,0,0
1,19999,69,10000,17,0,40,9999,0.100000,0,0,0.000000,2,0.000000,0.000000,3.017128,0,0,0,0,0,0,0
1,19999,70,10000,0,0,49,9999,0.100000,0,0,0.000000,3,1.000000,0.000000,4.686835,0,0,0,0,0,0,0
1,19999,71,10000,1,0,49,9999,0.100000,0,0,0.000000,3,2.000000,0.000000,5.420606,0,0,0,0,0,0,0
1,19999,72,10000,1,0,9,9999,0.100000,0,0,34.210526,3,9.000000,0.000000,14.891604,0,0,0,1,0,0,0
1,19999,73,10000,32,0,40,9999,0.100000,0,0,0.000000,3,0.000000,0.000000,1.120143,0,0,0,0,0,0,0
1,19999,74,10000,1,0,40,9999,0.100000,0,0,0.000000,2,0.000000,0.000000,4.401753,0,0,0,0,0,0,0
1,19999,75,10000,1,0,49,9999,0.100000,0,0,0.000000,3,1.000000,0.000000,4.846019,0,0,0,0,0,0,0
1,19999,76,10000,32,0,49,9999,0.100000,0,0,0.000000,3,3.000000,0.000000,10.947182,0,0,0,0,0,0,0
1,19999,77,10000,1,0,49,9999,0.100000,0,0,0.000000,3,3.000000,0.000000,21.772947,0,0,0,0,0,0,0
1,19999,78,10000,1,0,40,9999,0.100000,0,0,0.000000,3,0.000000,0.000000,0.160432,0,0,0,0,0,0,0
1,19999,79,10000,32,0,49,9999,0.100000,0,0,0.000000,3,4.000000,0.000000,10.923101,0,0,0,0,0,0,0
1,19999,80,10000,0,0,49,9999,0.100000,0,0,0.000000,3,1.000000,0.000000,1.367221,0,0,0,0,0,0,0
1,19999,81,10000,32,0,49,9999,0.100000,0,0,0.000000,3,4.000000,0.000000,18.066882,0,0,0,0,0,0,0
1,19999,82,10000,1,0,49,9999,0.100000,0,0,0.000000,3,2.000000,0.000000,3.059708,0,0,0,0,0,0,0
1,19999,83,10000,1,0,49,9999,0.100000,0,0,0.000000,3,2.000000,0.000000,4.216545,0,0,0,0,0,0,0
1,19999,84,10000,1,0,40,9999,0.100000,0,0,0.000000,3,0.000000,0.000000,0.128012,0,0,0,0,0,0,0
1,19999,85,10000,1,0,40,9999,0.100000,0,0,0.000000,3,0.000000,0.000000,1.327821,0,0,0,0,0,0,0
1,19999,86,10000,32,0,49,9999,0.100000,0,0,0.000000,3,1.000000,0.000000,4.943185,0,0,0,0,0,0,0
1,19999,87,10000,0,0,40,9999,0.100000,0,0,0.000000,3,0.000000,0.000000,0.438547,0,0,0,0,0,0,0
1,19999,88,10000,1,0,40,9999,0.100000,0,0,0.000000,3,0.000000,0.000000,0.127510,0,0,0,0,0,0,0
1,19999,89,10000,32,0,49,9999,0.100000,0,0,0.000000,3,2.000000,0.000000,2.386534,0,0,0,0,0,0,0
1,19999,90,10000,0,0,49,9999,0.100000,0,0,0.000000,3,5.000000,0.000000,11.611811,0,0,0,0,0,0,0
1,19999,91,10000,32,0,49,9999,0.100000,0,0,0.000000,3,1.000000,0.000000,7.361395,0,0,0,0,0,0,0
1,19999,92,10000,1,0,49,9999,0.100000,0,0,0.000000,2,2.000000,0.000000,18.855421,0,0,0,0,0,0,0
1,19999,93,10000,1,0,49,9999,0.100000,0,0,0.000000,3,2.000000,0.000000,8.023545,0,0,0,0,0,0,0
1,19999,94,10000,0,0,40,9999,0.100000,0,0,0.000000,3,0.000000,0.000000,1.998958,0,0,0,0,0,0,0
1,19999,95,10000,0,0,49,9999,0.100000,0,0,0.000000,3,1.000000,0.000000,1.296504,0,0,0,0,0,0,0
1,19999,96,10000,1,0,49,9999,0.100000,0,0,0.000000,3,4.000000,0.000000,7.355690,0,0,0,0,0,0,0
1,19999,97,10000,0,0,40,9999,0.100000,0,0,0.000000,3,0.000000,0.000000,5.839601,0,0,0,0,0,0,0
1,19999,98,10000,32,0,49,9999,0.100000,0,0,0.000000,3,2.000000,0.000000,14.164239,0,0,0,0,0,0,0
1,19999,99,10000,32,0,40,9999,0.100000,0,0,0.000000,3,0.000000,0.000000,0.915671,0,0,0,0,0,0,0
2,29999,0,20000,0,0,40,9999,0.100000,0,0,0.000000,5,0.000000,0.000000,0.089319,0,0,0,0,0,0,0
2,29999,1,20000,32,0,49,9999,0.100000,0,0,0.000000,6,4.000000,0.000000,13.590812,0,0,0,0,0,0,0
2,29999,2,20000,0,10000,40,9999,0.100000,0,0,0.000000,6,0.000000,0.000000,1.422877,0,0,0,0,0,0,0
2,29999,3,20000,1,0,40,9999,0.100000,0,0,0.000000,4,0.000000,0.000000,0.152072,0,0,0,0,0,0,0
2,29999,4,20000,1,0,49,9999,0.100000,0,0,0.000000,5,1.000000,0.000000,3.553229,0,0,0,0,0,0,0
2,29999,5,20000,6,10000,40,9999,0.100000,0,0,0.000000,5,0.000000,0.000000,3.739375,0,0,0,0,0,0,0
2,29999,6,20000,32,0,49,9999,0.100000,0,0,0.000000,4,1.000000,0.000000,6.313436,0,0,0,0,0,0,0
2,29999,7,20000,98,10000,40,9999,0.100000,0,0,0.000000,6,0.000000,0.000000,1.111978,0,0,0,0,0,0,0
2,29999,8,20000,69,10000,40,9999,0.100000,0,0,0.000000,5,0.000000,0.000000,0.249675,0,0,0,0,0,0,0
2,29999,9,20000,30,10000,49,9999,0.100000,0,0,0.000000,6,2.000000,0.000000,7.113864,0,0,0,0,0,0,0
2,29999,10,20000,69,10000,40,9999,0.100000,0,0,0.000000,6,0.000000,0.000000,0.586769,0,0,0,0,0,0,0
2,29999,11,20000,32,0,49,9999,0.100000,0,0,0.000000,6,1.000000,0.000000,3.426353,0,0,0,0,0,0,0
2,29999,12,20000,69,10000,49,9999,0.100000,0,0,0.000000,6,1.000000,0.000000,3.425723,0,0,0,0,0,0,0
2,29999,13,20000,1,0,40,9999,0.100000,0,0,0.000000,4,0.000000,0.000000,0.391472,0,0,0,0,0,0,0
2,29999,14,20000,4,10000,9,9999,0.100000,0,0,0.000000,5,7.000000,0.000000,21.247548,0,0,0,1,0,0,0
2,29999,15,20000,30,10000,40,9999,0.100000,0,0,0.000000,6,0.000000,0.000000,2.300380,0,0,0,0,0,0,0
2,29999,16,20000,32,0,40,9999,0.100000,0,0,0.000000,6,0.000000,0.000000,1.518066,0,0,0,0,0,0,0
2,29999,17,20000,32,0,40,9999,0.100000,0,0,0.000000,5,0.000000,0.000000,0.372670,0,0,0,0,0,0,0
2,29999,18,20000,30,10000,49,9999,0.100000,0,0,0.000000,6,2.000000,0.000000,2.705799,0,0,0,0,0,0,0
2,29999,19,20000,32,0,40,9999,0.100000,0,0,0.000000,6,0.000000,0.000000,0.415767,0,0,0,0,0,0,0
2,29999,20,20000,69,10000,40,9999,0.100000,0,0,0.000000,6,0.000000,0.000000,0.597764,0,0,0,0,0,0,0
2,29999,21,20000,9,10000,40,9999,0.100000,0,0,0.000000,6,0.000000,0.000000,13.015045,0,0,0,0,0,0,0
2,29999,22,20000,69,10000,40,9999,0.100000,0,0,0.000000,6,0.000000,0.000000,0.618030,0,0,0,0,0,0,0
2,29999,23,20000,69,10000,40,9999,0.100000,0,0,0.000000,6,0.000000,0.000000,0.128611,0,0,0,0,0,0,0
2,29999,24,20000,69,10000,40,9999,0.100000,0,0,0.000000,6,0.000000,0.000000,0.177706,0,0,0,0,0,0,0
2,29999,25,20000,9,10000,40,9999,0.100000,0,0,0.000000,6,0.000000,0.000000,0.183125,0,0,0,0,0,0,0
2,29999,26,20000,98,10000,49,9999,0.100000,0,0,0.000000,6,1.000000,0.000000,19.399344,0,0,0,0,0,0,0
2,29999,27,20000,69,10000,49,9999,0.100000,0,0,0.000000,6,3.000000,0.000000,12.072745,0,0,0,0,0,0,0
2,29999,28,20000,32,0,40,9999,0.100000,0,0,0.000000,6,0.000000,0.000000,0.234008,0,0,0,0,0,0,0
2,29999,29,20000,32,0,40,9999,0.100000,0,0,0.000000,6,0.000000,0.000000,0.429050,0,0,0,0,0,0,0
2,29999,30,20000,4,10000,40,9999,0.100000,0,0,0.000000,5,0.000000,0.000000,0.696605,0,0,0,0,0,0,0
2,29999,31,20000,69,10000,9,9999,0.100000,0,0,0.000000,6,1.000000,0.000000,8.669742,0,0,0,3,0,0,0
2,29999,32,20000,0,10000,40,9999,0.100000,0,0,0.000000,6,0.000000,0.000000,0.388564,0,0,0,0,0,0,0
2,29999,33,20000,32,0,49,9999,0.100000,0,0,0.000000,6,1.000000,0.000000,14.382368,0,0,0,0,0,0,0
2,29999,34,20000,1,0,49,9999,0.100000,0,0,0.000000,5,1.000000,0.000000,10.587121,0,0,0,0,0,0,0
2,29999,35,20000,98,10000,40,9999,0.100000,0,0,0.000000,6,0.000000,0.000000,0.746439,0,0,0,0,0,0,0
2,29999,36,20000,0,10000,40,9999,0.100000,0,0,0.000000,6,0.000000,0.000000,0.165427,0,0,0,0,0,0,0
2,29999,37,20000,30,10000,40,9999,0.100000,0,0,0.000000,6,0.000000,0.000000,0.202546,0,0,0,0,0,0,0
2,29999,38,20000,0,10000,49,9999,0.100000,0,0,0.000000,6,1.000000,0.000000,5.280011,0,0,0,0,0,0,0
2,29999,39,20000,32,0,40,9999,0.100000,0,0,0.000000,6,0.000000,0.000000,0.195570,0,0,0,0,0,0,0
2,29999,40,20000,32,0,49,9999,0.100000,0,0,0.000000,5,1.000000,0.000000,3.727233,0,0,0,0,0,0,0
2,29999,41,20000,30,10000,40,9999,0.100000,0,0,0.000000,6,0.000000,0.000000,0.923567,0,0,0,0,0,0,0
2,29999,42,20000,98,10000,40,9999,0.100000,0,0,0.000000,6,0.000000,0.000000,1.142083,0,0,0,0,0,0,0
2,29999,43,20000,98,10000,40,9999,0.100000,0,0,0.000000,6,0.000000,0.000000,0.906233,0,0,0,0,0,0,0
2,29999,44,20000,69,10000,49,9999,0.100000,0,0,0.000000,6,2.000000,0.000000,4.816644,0,0,0,0,0,0,0
2,29999,45,20000,98,10000,49,9999,0.100000,0,0,0.000000,6,3.000000,0.000000,21.610869,0,0,0,0,0,0,0
2,29999,46,20000,98,10000,49,9999,0.100000,0,0,0.000000,6,1.000000,0.000000,16.692706,0,0,0,0,0,0,0
2,29999,47,20000,69,10000,40,9999,0.100000,0,0,0.000000,5,0.000000,0.000000,1.911024,0,0,0,0,0,0,0
2,29999,48,20000,0,0,40,9999,0.100000,0,0,0.000000,5,0.000000,0.000000,4.343319,0,0,0,0,0,0,0
2,29999,49,20000,0,10000,49,9999,0.100000,0,0,0.000000,6,3.000000,0.000000,4.995644,0,0,0,0,0,0,0
2,29999,50,20000,32,0,40,9999,0.100000,0,0,0.000000,6,0.000000,0.000000,3.094875,0,0,0,0,0,0,0
2,29999,51,20000,30,10000,49,9999,0.100000,0,0,0.000000,5,1.000000,0.000000,4.965156,0,0,0,0,0,0,0
2,29999,52,10000,1,0,40,19999,0.100000,0,0,0.000000,6,0.000000,0.000000,3.983381,0,0,0,0,0,0,0
2,29999,53,20000,32,0,49,9999,0.100000,0,0,0.000000,5,2.000000,0.000000,5.092420,0,0,0,0,0,0,0
2,29999,54,20000,0,0,49,9999,0.100000,0,0,0.000000,5,1.000000,0.000000,13.130901,0,0,0,0,0,0,0
2,29999,55,20000,69,10000,49,9999,0.100000,0,0,0.000000,6,3.000000,0.000000,7.831451,0,0,0,0,0,0,0
2,29999,56,20000,32,0,49,9999,0.100000,0,0,0.000000,6,2.000000,0.000000,9.467770,0,0,0,0,0,0,0
2,29999,57,20000,69,10000,49,9999,0.100000,0,0,0.000000,5,1.000000,0.000000,11.816690,0,0,0,0,0,0,0
2,29999,58,20000,30,10000,40,9999,0.100000,0,0,0.000000,6,0.000000,0.000000,0.372045,0,0,0,0,0,0,0
2,29999,59,20000,9,10000,40,9999,0.100000,0,0,0.000000,6,0.000000,0.000000,0.350890,0,0,0,0,0,0,0
2,29999,60,20000,30,10000,49,9999,0.100000,0,0,0.000000,6,2.000000,0.000000,3.794166,0,0,0,0,0,0,0
2,29999,61,20000,69,10000,40,9999,0.100000,0,0,0.000000,6,0.000000,0.000000,0.854784,0,0,0,0,0,0,0
2,29999,62,20000,0,0,40,9999,0.100000,0,0,0.000000,5,0.000000,0.000000,0.802445,0,0,0,0,0,0,0
2,29999,63,20000,9,10000,49,9999,0.100000,0,0,0.000000,6,2.000000,0.000000,5.405071,0,0,0,0,0,0,0
2,29999,64,20000,98,10000,49,9999,0.100000,0,0,0.000000,6,1.000000,0.000000,7.716676,0,0,0,0,0,0,0
2,29999,65,20000,69,10000,40,9999,0.100000,0,0,0.000000,6,0.000000,0.000000,0.175472,0,0,0,0,0,0,0
2,29999,66,20000,9,10000,40,9999,0.100000,0,0,0.000000,6,0.000000,0.000000,0.369815,0,0,0,0,0,0,0
2,29999,67,20000,0,0,40,9999,0.100000,0,0,0.000000,5,0.000000,0.000000,0.968996,0,0,0,0,0,0,0
2,29999,68,20000,69,10000,40,9999,0.100000,0,0,0.000000,6,0.000000,0.000000,0.186242,0,0,0,0,0,0,0
2,29999,69,20000,6,10000,49,9999,0.100000,0,0,0.000000,5,1.000000,0.000000,5.827454,0,0,0,0,0,0,0
2,29999,70,20000,4,10000,49,9999,0.100000,0,0,0.000000,5,5.000000,0.000000,24.804750,0,0,0,0,0,0,0
2,29999,71,20000,0,10000,49,9999,0.100000,0,0,0.000000,6,2.000000,0.000000,3.599239,0,0,0,0,0,0,0
2,29999,72,20000,9,10000,40,9999,0.100000,0,0,0.000000,6,0.000000,0.000000,0.804210,0,0,0,0,0,0,0
2,29999,73,20000,30,10000,40,9999,0.100000,0,0,0.000000,5,0.000000,0.000000,0.169943,0,0,0,0,0,0,0
2,29999,74,20000,69,10000,40,9999,0.100000,0,0,0.000000,6,0.000000,0.000000,1.789565,0,0,0,0,0,0,0
2,29999,75,20000,30,10000,49,9999,0.100000,0,0,0.000000,6,8.000000,0.000000,23.129657,0,0,0,0,0,0,0
2,29999,76,20000,69,10000,40,9999,0.100000,0,0,0.000000,6,0.000000,0.000000,1.155309,0,0,0,0,0,0,0
2,29999,77,20000,30,10000,40,9999,0.100000,0,0,0.000000,6,0.000000,0.000000,2.404175,0,0,0,0,0,0,0
2,29999,78,20000,0,10000,40,9999,0.100000,0,0,0.000000,6,0.000000,0.000000,0.276498,0,0,0,0,0,0,0
2,29999,79,20000,0,0,49,9999,0.100000,0,0,0.000000,5,3.000000,0.000000,7.144139,0,0,0,0,0,0,0
2,29999,80,20000,30,10000,40,9999,0.100000,0,0,0.000000,6,0.000000,0.000000,0.524624,0,0,0,0,0,0,0
2,29999,81,20000,32,0,49,9999,0.100000,0,0,0.000000,6,1.000000,0.000000,14.928346,0,0,0,0,0,0,0
2,29999,82,20000,69,10000,40,9999,0.100000,0,0,0.000000,6,0.000000,0.000000,0.876511,0,0,0,0,0,0,0
2,29999,83,20000,30,10000,49,9999,0.100000,0,0,0.000000,6,1.000000,0.000000,6.855348,0,0,0,0,0,0,0
2,29999,84,20000,69,10000,40,9999,0.100000,0,0,0.000000,6,0.000000,0.000000,0.101159,0,0,0,0,0,0,0
2,29999,85,20000,32,0,40,9999,0.100000,0,0,0.000000,6,0.000000,0.000000,0.895462,0,0,0,0,0,0,0
2,29999,86,20000,69,10000,49,9999,0.100000,0,0,0.000000,6,5.000000,0.000000,9.334414,0,0,0,0,0,0,0
2,29999,87,20000,9,10000,40,9999,0.100000,0,0,0.000000,6,0.000000,0.000000,0.440867,0,0,0,0,0,0,0
2,29999,88,20000,0,10000,40,9999,0.100000,0,0,0.000000,6,0.000000,0.000000,0.209420,0,0,0,0,0,0,0
2,29999,89,20000,69,10000,49,9999,0.100000,0,0,0.000000,6,1.000000,0.000000,4.229905,0,0,0,0,0,0,0
2,29999,90,20000,69,10000,49,9999,0.100000,0,0,0.000000,6,2.000000,0.000000,3.806392,0,0,0,0,0,0,0
2,29999,91,20000,98,10000,49,9999,0.100000,0,0,0.000000,6,9.000000,0.000000,22.418028,0,0,0,0,0,0,0
2,29999,92,20000,9,10000,40,9999,0.100000,0,0,0.000000,6,0.000000,0.000000,1.119914,0,0,0,0,0,0,0
2,29999,93,20000,9,10000,49,9999,0.100000,0,0,0.000000,6,1.000000,0.000000,12.432973,0,0,0,0,0,0,0
2,29999,94,20000,98,10000,40,9999,0.100000,0,0,0.000000,6,0.000000,0.000000,1.273711,0,0,0,0,0,0,0
2,29999,95,20000,30,10000,40,9999,0.100000,0,0,0.000000,6,0.000000,0.000000,0.456845,0,0,0,0,0,0,0
2,29999,96,20000,0,10000,49,9999,0.100000,0,0,0.000000,6,1.000000,0.000000,5.151749,0,0,0,0,0,0,0
2,29999,97,20000,30,10000,49,9999,0.100000,0,0,0.000000,6,1.000000,0.000000,10.344477,0,0,0,0,0,0,0
2,29999,98,20000,0,10000,40,9999,0.100000,0,0,0.000000,6,0.000000,0.000000,1.092049,0,0,0,0,0,0,0
2,29999,99,20000,32,0,40,9999,0.100000,0,0,0.000000,5,0.000000,0.000000,0.557968,0,0,0,0,0,0,0
3,39999,0,30000,9,10000,40,9999,0.100000,0,0,0.000000,6,0.000000,0.000000,0.113624,0,0,0,0,0,0,0
3,39999,1,30000,98,10000,49,9999,0.100000,0,0,0.000000,6,5.000000,0.000000,8.683462,0,0,0,0,0,0,0
3,39999,2,30000,32,0,40,9999,0.100000,0,0,0.000000,6,0.000000,0.000000,0.627095,0,0,0,0,0,0,0
3,39999,3,30000,0,10000,40,9999,0.100000,0,0,0.000000,6,0.000000,0.000000,0.274821,0,0,0,0,0,0,0
3,39999,4,30000,30,10000,40,9999,0.100000,0,0,0.000000,6,0.000000,0.000000,0.501900,0,0,0,0,0,0,0
3,39999,5,30000,69,10000,40,9999,0.100000,0,0,0.000000,6,0.000000,0.000000,0.616431,0,0,0,0,0,0,0
3,39999,6,30000,0,10000,49,9999,0.100000,0,0,0.000000,6,1.000000,0.000000,2.379678,0,0,0,0,0,0,0
3,39999,7,30000,32,0,49,9999,0.100000,0,0,0.000000,6,1.000000,0.000000,1.898593,0,0,0,0,0,0,0
3,39999,8,30000,69,10000,40,9999,0.100000,0,0,0.000000,6,0.000000,0.000000,0.161074,0,0,0,0,0,0,0
3,39999,9,30000,32,0,49,9999,0.100000,0,0,0.000000,6,4.000000,0.000000,19.716916,0,0,0,0,0,0,0
3,39999,10,30000,30,10000,40,9999,0.100000,0,0,0.000000,6,0.000000,0.000000,0.754793,0,0,0,0,0,0,0
3,39999,11,30000,98,10000,40,9999,0.100000,0,0,0.000000,6,0.000000,0.000000,0.830170,0,0,0,0,0,0,0
3,39999,12,30000,9,10000,49,9999,0.100000,0,0,0.000000,6,1.000000,0.000000,2.729826,0,0,0,0,0,0,0
3,39999,13,30000,30,10000,40,9999,0.100000,0,0,0.000000,6,0.000000,0.000000,0.288359,0,0,0,0,0,0,0
3,39999,14,30000,32,0,40,9999,0.100000,0,0,0.000000,6,0.000000,0.000000,1.024744,0,0,0,0,0,0,0
3,39999,15,30000,9,10000,49,9999,0.100000,0,0,0.000000,6,1.000000,0.000000,2.410988,0,0,0,0,0,0,0
3,39999,16,30000,69,10000,40,9999,0.100000,0,0,0.000000,6,0.000000,0.000000,0.214655,0,0,0,0,0,0,0
3,39999,17,30000,69,10000,40,9999,0.100000,0,0,0.000000,6,0.000000,0.000000,0.258072,0,0,0,0,0,0,0
3,39999,18,30000,69,10000,49,9999,0.100000,0,0,0.000000,6,1.000000,0.000000,1.582645,0,0,0,0,0,0,0
3,39999,19,30000,30,10000,40,9999,0.100000,0,0,0.000000,6,0.000000,0.000000,0.277090,0,0,0,0,0,0,0
3,39999,20,30000,69,10000,40,9999,0.100000,0,0,0.000000,6,0.000000,0.000000,1.032950,0,0,0,0,0,0,0
3,39999,21,30000,32,0,49,9999,0.100000,0,0,0.000000,6,7.000000,0.000000,21.168793,0,0,0,0,0,0,0
3,39999,22,30000,30,10000,49,9999,0.100000,0,0,0.000000,6,1.000000,0.000000,2.591530,0,0,0,0,0,0,0
3,39999,23,30000,9,10000,40,9999,0.100000,0,0,0.000000,6,0.000000,0.000000,0.183210,0,0,0,0,0,0,0
3,39999,24,30000,9,10000,40,9999,0.100000,0,0,0.000000,6,0.000000,0.000000,0.134169,0,0,0,0,0,0,0
3,39999,25,30000,30,10000,40,9999,0.100000,0,0,0.000000,6,0.000000,0.000000,0.291082,0,0,0,0,0,0,0
3,39999,26,30000,69,10000,40,9999,0.100000,0,0,0.000000,6,0.000000,0.000000,0.576306,0,0,0,0,0,0,0
3,39999,27,30000,9,10000,40,9999,0.100000,0,0,0.000000,6,0.000000,0.000000,1.696165,0,0,0,0,0,0,0
3,39999,28,30000,69,10000,40,9999,0.100000,0,0,0.000000,6,0.000000,0.000000,0.085324,0,0,0,0,0,0,0
3,39999,29,30000,30,10000,49,9999,0.100000,0,0,0.000000,6,1.000000,0.000000,1.817274,0,0,0,0,0,0,0
3,39999,30,30000,69,10000,40,9999,0.100000,0,0,0.000000,6,0.000000,0.000000,0.738067,0,0,0,0,0,0,0
3,39999,31,30000,30,10000,40,9999,0.100000,0,0,0.000000,6,0.000000,0.000000,0.781321,0,0,0,0,0,0,0
3,39999,32,30000,0,10000,49,9999,0.100000,0,0,0.000000,6,1.000000,0.000000,1.387812,0,0,0,0,0,0,0
3,39999,33,30000,32,0,49,9999,0.100000,0,0,0.000000,6,1.000000,0.000000,4.570555,0,0,0,0,0,0,0
3,39999,34,30000,9,10000,49,9999,0.100000,0,0,0.000000,6,1.000000,0.000000,4.080324,0,0,0,0,0,0,0
3,39999,35,30000,98,10000,40,9999,0.100000,0,0,0.000000,6,0.000000,0.000000,0.551477,0,0,0,0,0,0,0
3,39999,36,30000,9,10000,40,9999,0.100000,0,0,0.000000,6,0.000000,0.000000,0.130281,0,0,0,0,0,0,0
3,39999,37,30000,32,0,40,9999,0.100000,0,0,0.000000,6,0.000000,0.000000,0.793611,0,0,0,0,0,0,0
3,39999,38,30000,32,0,49,9999,0.100000,0,0,0.000000,6,1.000000,0.000000,10.708531,0,0,0,0,0,0,0
3,39999,39,30000,0,10000,40,9999,0.100000,0,0,0.000000,6,0.000000,0.000000,0.094599,0,0,0,0,0,0,0
3,39999,40,30000,98,10000,40,9999,0.100000,0,0,0.000000,6,0.000000,0.000000,0.900279,0,0,0,0,0,0,0
3,39999,41,30000,98,10000,49,9999,0.100000,0,0,0.000000,6,1.000000,0.000000,1.693966,0,0,0,0,0,0,0
3,39999,42,30000,30,10000,49,9999,0.100000,0,0,0.000000,6,1.000000,0.000000,1.944427,0,0,0,0,0,0,0
3,39999,43,30000,69,10000,49,9999,0.100000,0,0,0.000000,6,5.000000,0.000000,14.291398,0,0,0,0,0,0,0
3,39999,44,30000,0,10000,40,9999,0.100000,0,0,0.000000,6,0.000000,0.000000,0.116483,0,0,0,0,0,0,0
3,39999,45,30000,9,10000,49,9999,0.100000,0,0,0.000000,6,1.000000,0.000000,16.798968,0,0,0,0,0,0,0
3,39999,46,30000,30,10000,40,9999,0.100000,0,0,0.000000,6,0.000000,0.000000,9.982563,0,0,0,0,0,0,0
3,39999,47,30000,32,0,40,9999,0.100000,0,0,0.000000,6,0.000000,0.000000,0.355643,0,0,0,0,0,0,0
3,39999,48,30000,98,10000,49,9999,0.100000,0,0,0.000000,6,1.000000,0.000000,2.959252,0,0,0,0,0,0,0
3,39999,49,30000,32,0,40,9999,0.100000,0,0,0.000000,6,0.000000,0.000000,2.686939,0,0,0,0,0,0,0
3,39999,50,30000,69,10000,40,9999,0.100000,0,0,0.000000,6,0.000000,0.000000,11.602678,0,0,0,0,0,0,0
3,39999,51,30000,98,10000,49,9999,0.100000,0,0,0.000000,6,10.000000,0.000000,34.281467,0,0,0,0,0,0,0
3,39999,52,30000,30,10000,40,9999,0.100000,0,0,0.000000,6,0.000000,0.000000,0.159174,0,0,0,0,0,0,0
3,39999,53,30000,30,10000,40,9999,0.100000,0,0,0.000000,6,0.000000,0.000000,0.830529,0,0,0,0,0,0,0
3,39999,54,30000,69,10000,49,9999,0.100000,0,0,0.000000,6,1.000000,0.000000,8.227266,0,0,0,0,0,0,0
3,39999,55,30000,98,10000,40,9999,0.100000,0,0,0.000000,6,0.000000,0.000000,2.160763,0,0,0,0,0,0,0
3,39999,56,30000,30,10000,49,9999,0.100000,0,0,0.000000,6,1.000000,0.000000,7.471738,0,0,0,0,0,0,0
3,39999,57,30000,98,10000,49,9999,0.100000,0,0,0.000000,6,2.000000,0.000000,4.971859,0,0,0,0,0,0,0
3,39999,58,30000,9,10000,40,9999,0.100000,0,0,0.000000,6,0.000000,0.000000,0.447415,0,0,0,0,0,0,0
3,39999,59,30000,69,10000,40,9999,0.100000,0,0,0.000000,6,0.000000,0.000000,0.680677,0,0,0,0,0,0,0
3,39999,60,30000,30,10000,49,9999,0.100000,0,0,0.000000,6,2.000000,0.000000,6.867180,0,0,0,0,0,0,0
3,39999,61,30000,30,10000,40,9999,0.100000,0,0,0.000000,6,0.000000,0.000000,0.632192,0,0,0,0,0,0,0
3,39999,62,30000,30,10000,40,9999,0.100000,0,0,0.000000,6,0.000000,0.000000,0.433919,0,0,0,0,0,0,0
3,39999,63,30000,32,0,49,9999,0.100000,0,0,0.000000,6,5.000000,0.000000,10.892218,0,0,0,0,0,0,0
3,39999,64,30000,9,10000,40,9999,0.100000,0,0,0.000000,6,0.000000,0.000000,0.790687,0,0,0,0,0,0,0
3,39999,65,30000,32,0,40,9999,0.100000,0,0,0.000000,6,0.000000,0.000000,0.371084,0,0,0,0,0,0,0
3,39999,66,30000,0,10000,40,9999,0.100000,0,0,0.000000,6,0.000000,0.000000,0.417571,0,0,0,0,0,0,0
3,39999,67,30000,30,10000,40,9999,0.100000,0,0,0.000000,6,0.000000,0.000000,0.747414,0,0,0,0,0,0,0
3,39999,68,30000,30,10000,40,9999,0.100000,0,0,0.000000,6,0.000000,0.000000,0.357496,0,0,0,0,0,0,0
3,39999,69,30000,32,0,40,9999,0.100000,0,0,0.000000,6,0.000000,0.000000,0.088025,0,0,0,0,0,0,0
3,39999,70,30000,32,0,49,9999,0.100000,0,0,0.000000,6,9.000000,0.000000,32.931066,0,0,0,0,0,0,0
3,39999,71,30000,69,10000,49,9999,0.100000,0,0,0.000000,6,1.000000,0.000000,3.726481,0,0,0,0,0,0,0
3,39999,72,30000,69,10000,40,9999,0.100000,0,0,0.000000,6,0.000000,0.000000,0.242723,0,0,0,0,0,0,0
3,39999,73,30000,30,10000,40,9999,0.065000,0,0,0.000000,6,0.000000,0.000000,0.568063,0,0,0,0,0,0,0
3,39999,74,30000,30,10000,40,9999,0.100000,0,0,0.000000,6,0.000000,0.000000,0.249691,0,0,0,0,0,0,0
3,39999,75,30000,98,10000,49,9999,0.100000,0,0,0.000000,6,8.000000,0.000000,37.874127,0,0,0,0,0,0,0
3,39999,76,30000,98,10000,49,9999,0.100000,0,0,0.000000,6,1.000000,0.000000,1.755112,0,0,0,0,0,0,0
3,39999,77,30000,98,10000,40,9999,0.100000,0,0,0.000000,6,0.000000,0.000000,1.884949,0,0,0,0,0,0,0
3,39999,78,30000,30,10000,40,9999,0.100000,0,0,0.000000,6,0.000000,0.000000,0.588738,0,0,0,0,0,0,0
3,39999,79,30000,9,10000,49,9999,0.100000,0,0,0.000000,6,3.000000,0.000000,18.219693,0,0,0,0,0,0,0
3,39999,80,30000,98,10000,40,9999,0.100000,0,0,0.000000,6,0.000000,0.000000,0.270972,0,0,0,0,0,0,0
3,39999,81,30000,30,10000,49,9999,0.100000,0,0,0.000000,6,2.000000,0.000000,4.393806,0,0,0,0,0,0,0
3,39999,82,30000,0,10000,40,9999,0.100000,0,0,0.000000,6,0.000000,0.000000,0.847724,0,0,0,0,0,0,0
3,39999,83,30000,9,10000,49,9999,0.100000,0,0,0.000000,6,5.000000,0.000000,22.122178,0,0,0,0,0,0,0
3,39999,84,30000,9,10000,40,9999,0.100000,0,0,0.000000,6,0.000000,0.000000,0.214255,0,0,0,0,0,0,0
3,39999,85,30000,98,10000,40,9999,0.100000,0,0,0.000000,6,0.000000,0.000000,0.388778,0,0,0,0,0,0,0
3,39999,86,30000,9,10000,40,9999,0.100000,0,0,0.000000,6,0.000000,0.000000,2.603683,0,0,0,0,0,0,0
3,39999,87,30000,0,10000,40,9999,0.100000,0,0,0.000000,6,0.000000,0.000000,0.268235,0,0,0,0,0,0,0
3,39999,88,30000,69,10000,40,9999,0.100000,0,0,0.000000,6,0.000000,0.000000,0.168509,0,0,0,0,0,0,0
3,39999,89,30000,32,0,40,9999,0.100000,0,0,0.000000,6,0.000000,0.000000,0.824088,0,0,0,0,0,0,0
3,39999,90,30000,30,10000,49,9999,0.100000,0,0,0.000000,6,1.000000,0.000000,1.186837,0,0,0,0,0,0,0
3,39999,91,30000,9,10000,40,9999,0.100000,0,0,0.000000,6,0.000000,0.000000,1.430871,0,0,0,0,0,0,0
3,39999,92,30000,98,10000,49,9999,0.100000,0,0,0.000000,6,14.000000,0.000000,17.489870,0,0,0,0,0,0,0
3,39999,93,30000,98,10000,49,9999,0.100000,0,0,0.000000,6,1.000000,0.000000,9.019091,0,0,0,0,0,0,0
3,39999,94,30000,30,10000,40,9999,0.100000,0,0,0.000000,6,0.000000,0.000000,1.092791,0,0,0,0,0,0,0
3,39999,95,30000,0,10000,49,9999,0.100000,0,0,0.000000,6,5.000000,0.000000,12.372663,0,0,0,0,0,0,0
3,39999,96,30000,0,10000,49,9999,0.100000,0,0,0.000000,6,2.000000,0.000000,6.064848,0,0,0,0,0,0,0
3,39999,97,30000,32,0,40,9999,0.100000,0,0,0.000000,6,0.000000,0.000000,1.270138,0,0,0,0,0,0,0
3,39999,98,30000,69,10000,49,9999,0.100000,0,0,0.000000,6,1.000000,0.000000,1.710021,0,0,0,0,0,0,0
3,39999,99,30000,9,10000,40,9999,0.100000,0,0,0.000000,6,0.000000,0.000000,0.434790,0,0,0,0,0,0,0
4,49999,0,40000,0,10000,40,9999,0.100000,0,0,0.000000,7,0.000000,0.000000,0.066592,0,0,0,0,0,0,0
4,49999,1,40000,98,10000,40,9999,0.100000,0,0,0.000000,7,0.000000,0.000000,0.092361,0,0,0,0,0,0,0
4,49999,2,40000,32,0,40,9999,0.100000,0,0,0.000000,6,0.000000,0.000000,1.527122,0,0,0,0,0,0,0
4,49999,3,40000,40,30000,40,9999,0.100000,0,0,0.000000,7,0.000000,0.000000,0.194663,0,0,0,0,0,0,0
4,49999,4,40000,98,10000,49,9999,0.100000,0,0,0.000000,7,1.000000,0.000000,1.675671,0,0,0,0,0,0,0
4,49999,5,40000,32,0,40,9999,0.100000,0,0,0.000000,7,0.000000,0.000000,0.840030,0,0,0,0,0,0,0
4,49999,6,40000,40,30000,40,9999,0.100000,0,0,0.000000,7,0.000000,0.000000,1.008505,0,0,0,0,0,0,0
4,49999,7,40000,30,10000,40,9999,0.100000,0,0,0.000000,7,0.000000,0.000000,0.206520,0,0,0,0,0,0,0
4,49999,8,40000,69,10000,40,9999,0.100000,0,0,0.000000,7,0.000000,0.000000,0.088163,0,0,0,0,0,0,0
4,49999,9,40000,0,10000,49,9999,0.100000,0,0,0.000000,7,3.000000,0.000000,7.417314,0,0,0,0,0,0,0
4,49999,10,40000,0,10000,40,9999,0.100000,0,0,0.000000,7,0.000000,0.000000,0.931445,0,0,0,0,0,0,0
4,49999,11,40000,98,10000,40,9999,0.100000,0,0,0.000000,7,0.000000,0.000000,0.455027,0,0,0,0,0,0,0
4,49999,12,40000,9,10000,40,9999,0.100000,0,0,0.000000,7,0.000000,0.000000,0.157806,0,0,0,0,0,0,0
4,49999,13,40000,0,10000,40,9999,0.100000,0,0,0.000000,7,0.000000,0.000000,0.468902,0,0,0,0,0,0,0
4,49999,14,40000,9,10000,40,9999,0.100000,0,0,0.000000,7,0.000000,0.000000,0.191901,0,0,0,0,0,0,0
4,49999,15,40000,63,30000,40,9999,0.100000,0,0,0.000000,7,0.000000,0.000000,0.132166,0,0,0,0,0,0,0
4,49999,16,40000,30,10000,40,9999,0.100000,0,0,0.000000,7,0.000000,0.000000,0.231663,0,0,0,0,0,0,0
4,49999,17,40000,9,10000,40,9999,0.100000,0,0,0.000000,7,0.000000,0.000000,0.143852,0,0,0,0,0,0,0
4,49999,18,40000,98,10000,40,9999,0.100000,0,0,0.000000,7,0.000000,0.000000,0.946894,0,0,0,0,0,0,0
4,49999,19,40000,9,10000,40,9999,0.100000,0,0,0.000000,7,0.000000,0.000000,0.892126,0,0,0,0,0,0,0
4,49999,20,40000,30,10000,40,9999,0.100000,0,0,0.000000,7,0.000000,0.000000,0.405572,0,0,0,0,0,0,0
4,49999,21,40000,32,0,49,9999,0.100000,0,0,0.000000,7,1.000000,0.000000,14.930794,0,0,0,0,0,0,0
4,49999,22,40000,32,0,40,9999,0.100000,0,0,0.000000,7,0.000000,0.000000,1.155839,0,0,0,0,0,0,0
4,49999,23,40000,98,10000,40,9999,0.100000,0,0,0.000000,7,0.000000,0.000000,0.642290,0,0,0,0,0,0,0
4,49999,24,40000,0,10000,40,9999,0.100000,0,0,0.000000,7,0.000000,0.000000,0.115791,0,0,0,0,0,0,0
4,49999,25,40000,40,30000,40,9999,0.100000,0,0,0.000000,7,0.000000,0.000000,0.279396,0,0,0,0,0,0,0
4,49999,26,40000,32,0,40,9999,0.100000,0,0,0.000000,7,0.000000,0.000000,0.197541,0,0,0,0,0,0,0
4,49999,27,40000,32,0,40,9999,0.100000,0,0,0.000000,7,0.000000,0.000000,2.954610,0,0,0,0,0,0,0
4,49999,28,40000,69,10000,40,9999,0.100000,0,0,0.000000,7,0.000000,0.000000,0.374304,0,0,0,0,0,0,0
4,49999,29,40000,69,10000,40,9999,0.100000,0,0,0.000000,6,0.000000,0.000000,1.710132,0,0,0,0,0,0,0
4,49999,30,40000,69,10000,40,9999,0.100000,0,0,0.000000,7,0.000000,0.000000,0.990400,0,0,0,0,0,0,0
4,49999,31,40000,98,10000,40,9999,0.065000,0,0,0.000000,7,0.000000,0.000000,0.995624,0,0,0,0,0,0,0
4,49999,32,40000,0,10000,40,9999,0.100000,0,0,0.000000,7,0.000000,0.000000,0.176133,0,0,0,0,0,0,0
4,49999,33,40000,32,0,49,9999,0.100000,0,0,0.000000,7,11.000000,0.000000,13.445077,0,0,0,0,0,0,0
4,49999,34,40000,69,10000,40,9999,0.100000,0,0,0.000000,7,0.000000,0.000000,0.870334,0,0,0,0,0,0,0
4,49999,35,40000,40,30000,40,9999,0.100000,0,0,0.000000,7,0.000000,0.000000,0.565967,0,0,0,0,0,0,0
4,49999,36,40000,32,0,40,9999,0.100000,0,0,0.000000,7,0.000000,0.000000,0.148648,0,0,0,0,0,0,0
4,49999,37,40000,9,10000,40,9999,0.100000,0,0,0.000000,7,0.000000,0.000000,0.596152,0,0,0,0,0,0,0
4,49999,38,40000,30,10000,49,9999,0.100000,0,0,0.000000,7,1.000000,0.000000,4.463571,0,0,0,0,0,0,0
4,49999,39,40000,32,0,40,9999,0.100000,0,0,0.000000,6,0.000000,0.000000,0.252611,0,0,0,0,0,0,0
4,49999,40,40000,9,10000,49,9999,0.100000,0,0,0.000000,7,1.000000,0.000000,1.513010,0,0,0,0,0,0,0
4,49999,41,40000,40,30000,40,9999,0.100000,0,0,0.000000,7,0.000000,0.000000,0.159081,0,0,0,0,0,0,0
4,49999,42,40000,32,0,9,9999,0.100000,0,0,34.210526,7,1.000000,0.000000,2.144828,0,0,0,1,0,0,0
4,49999,43,40000,9,10000,49,9999,0.100000,0,0,0.000000,7,2.000000,0.000000,9.918371,0,0,0,0,0,0,0
4,49999,44,40000,98,10000,49,9999,0.100000,0,0,0.000000,7,2.000000,0.000000,4.802715,0,0,0,0,0,0,0
4,49999,45,40000,69,10000,49,9999,0.100000,0,0,0.000000,7,5.000000,0.000000,10.254249,0,0,0,0,0,0,0
4,49999,46,40000,40,30000,40,9999,0.100000,0,0,0.000000,7,0.000000,0.000000,4.603722,0,0,0,0,0,0,0
4,49999,47,40000,40,30000,40,9999,0.100000,0,0,0.000000,7,0.000000,0.000000,0.844161,0,0,0,0,0,0,0
4,49999,48,40000,40,30000,9,9999,0.100000,0,0,34.210526,7,1.000000,0.000000,2.082007,0,0,0,1,0,0,0
4,49999,49,40000,9,10000,40,9999,0.100000,0,0,0.000000,7,0.000000,0.000000,3.786601,0,0,0,0,0,0,0
4,49999,50,40000,98,10000,40,9999,0.100000,0,0,0.000000,7,0.000000,0.000000,1.709636,0,0,0,0,0,0,0
4,49999,51,40000,0,10000,49,9999,0.100000,0,0,0.000000,7,4.000000,0.000000,6.968542,0,0,0,0,0,0,0
4,49999,52,40000,32,0,40,9999,0.100000,0,0,0.000000,7,0.000000,0.000000,0.176538,0,0,0,0,0,0,0
4,49999,53,40000,98,10000,49,9999,0.100000,0,0,0.000000,7,1.000000,0.000000,1.918798,0,0,0,0,0,0,0
4,49999,54,40000,98,10000,49,9999,0.100000,0,0,0.000000,7,12.000000,0.000000,17.778962,0,0,0,0,0,0,0
4,49999,55,40000,32,0,40,9999,0.100000,0,0,0.000000,7,0.000000,0.000000,1.507577,0,0,0,0,0,0,0
4,49999,56,40000,98,10000,49,9999,0.100000,0,0,0.000000,7,2.000000,0.000000,9.642263,0,0,0,0,0,0,0
4,49999,57,40000,98,10000,49,9999,0.100000,0,0,0.000000,7,1.000000,0.000000,1.342933,0,0,0,0,0,0,0
4,49999,58,40000,69,10000,40,9999,0.100000,0,0,0.000000,7,0.000000,0.000000,0.689509,0,0,0,0,0,0,0
4,49999,59,40000,98,10000,40,9999,0.100000,0,0,0.000000,7,0.000000,0.000000,0.993716,0,0,0,0,0,0,0
4,49999,60,40000,30,10000,49,9999,0.100000,0,0,0.000000,6,2.000000,0.000000,6.859205,0,0,0,0,0,0,0
4,49999,61,40000,30,10000,40,9999,0.100000,0,0,0.000000,7,0.000000,0.000000,0.591434,0,0,0,0,0,0,0
4,49999,62,40000,69,10000,40,9999,0.100000,0,0,0.000000,6,0.000000,0.000000,0.772759,0,0,0,0,0,0,0
4,49999,63,40000,30,10000,40,9999,0.100000,0,0,0.000000,7,0.000000,0.000000,0.281984,0,0,0,0,0,0,0
4,49999,64,40000,32,0,40,9999,0.100000,0,0,0.000000,7,0.000000,0.000000,0.506997,0,0,0,0,0,0,0
4,49999,65,40000,30,10000,40,9999,0.100000,0,0,0.000000,7,0.000000,0.000000,0.489576,0,0,0,0,0,0,0
4,49999,66,40000,0,10000,40,9999,0.100000,0,0,0.000000,7,0.000000,0.000000,0.367744,0,0,0,0,0,0,0
4,49999,67,40000,69,10000,40,9999,0.100000,0,0,0.000000,7,0.000000,0.000000,0.442273,0,0,0,0,0,0,0
4,49999,68,40000,30,10000,40,9999,0.100000,0,0,0.000000,7,0.000000,0.000000,0.313717,0,0,0,0,0,0,0
4,49999,69,40000,9,10000,40,9999,0.100000,0,0,0.000000,7,0.000000,0.000000,0.863791,0,0,0,0,0,0,0
4,49999,70,40000,98,10000,49,9999,0.100000,0,0,0.000000,7,2.000000,0.000000,18.121261,0,0,0,0,0,0,0
4,49999,71,40000,0,10000,40,9999,0.100000,0,0,0.000000,7,0.000000,0.000000,1.585943,0,0,0,0,0,0,0
4,49999,72,40000,98,10000,40,9999,0.100000,0,0,0.000000,7,0.000000,0.000000,0.583735,0,0,0,0,0,0,0
4,49999,73,40000,98,10000,40,9999,0.100000,0,0,0.000000,7,0.000000,0.000000,0.410153,0,0,0,0,0,0,0
4,49999,74,40000,9,10000,40,9999,0.100000,0,0,0.000000,7,0.000000,0.000000,0.830105,0,0,0,0,0,0,0
4,49999,75,40000,40,30000,49,9999,0.100000,0,0,0.000000,7,2.000000,0.000000,15.574270,0,0,0,0,0,0,0
4,49999,76,40000,40,30000,40,9999,0.100000,0,0,0.000000,7,0.000000,0.000000,1.168436,0,0,0,0,0,0,0
4,49999,77,40000,32,0,40,9999,0.100000,0,0,0.000000,6,0.000000,0.000000,1.786275,0,0,0,0,0,0,0
4,49999,78,40000,32,0,40,9999,0.100000,0,0,0.000000,7,0.000000,0.000000,0.484399,0,0,0,0,0,0,0
4,49999,79,40000,30,10000,49,9999,0.100000,0,0,0.000000,7,3.000000,0.000000,8.652175,0,0,0,0,0,0,0
4,49999,80,40000,69,10000,40,9999,0.100000,0,0,0.000000,7,0.000000,0.000000,0.632827,0,0,0,0,0,0,0
4,49999,81,40000,0,10000,49,9999,0.100000,0,0,0.000000,7,4.000000,0.000000,6.264763,0,0,0,0,0,0,0
4,49999,82,40000,69,10000,40,9999,0.100000,0,0,0.000000,7,0.000000,0.000000,0.671573,0,0,0,0,0,0,0
4,49999,83,40000,32,0,49,9999,0.100000,0,0,0.000000,7,2.000000,0.000000,25.563135,0,0,0,0,0,0,0
4,49999,84,40000,30,10000,40,9999,0.100000,0,0,0.000000,7,0.000000,0.000000,0.109451,0,0,0,0,0,0,0
4,49999,85,40000,0,10000,40,9999,0.100000,0,0,0.000000,7,0.000000,0.000000,4.403701,0,0,0,0,0,0,0
4,49999,86,40000,69,10000,40,9999,0.100000,0,0,0.000000,7,0.000000,0.000000,0.579102,0,0,0,0,0,0,0
4,49999,87,40000,0,10000,40,9999,0.100000,0,0,0.000000,7,0.000000,0.000000,0.801657,0,0,0,0,0,0,0
4,49999,88,40000,0,10000,40,9999,0.100000,0,0,0.000000,7,0.000000,0.000000,0.252880,0,0,0,0,0,0,0
4,49999,89,40000,9,10000,40,9999,0.100000,0,0,0.000000,7,0.000000,0.000000,0.431875,0,0,0,0,0,0,0
4,49999,90,40000,9,10000,40,9999,0.100000,0,0,0.000000,7,0.000000,0.000000,0.431879,0,0,0,0,0,0,0
4,49999,91,40000,98,10000,40,9999,0.100000,0,0,0.000000,7,0.000000,0.000000,1.077380,0,0,0,0,0,0,0
4,49999,92,40000,0,10000,49,9999,0.100000,0,0,0.000000,7,2.000000,0.000000,3.239796,0,0,0,0,0,0,0
4,49999,93,40000,30,10000,49,9999,0.100000,0,0,0.000000,7,1.000000,0.000000,5.035298,0,0,0,0,0,0,0
4,49999,94,40000,30,10000,49,9999,0.100000,0,0,0.000000,7,8.000000,0.000000,20.224340,0,0,0,0,0,0,0
4,49999,95,40000,9,10000,40,9999,0.100000,0,0,0.000000,7,0.000000,0.000000,0.558867,0,0,0,0,0,0,0
4,49999,96,40000,98,10000,40,9999,0.100000,0,0,0.000000,7,0.000000,0.000000,2.359610,0,0,0,0,0,0,0
4,49999,97,40000,0,10000,40,9999,0.100000,0,0,0.000000,7,0.000000,0.000000,0.308664,0,0,0,0,0,0,0
4,49999,98,40000,30,10000,49,9999,0.100000,0,0,0.000000,7,1.000000,0.000000,5.090534,0,0,0,0,0,0,0
4,49999,99,40000,9,10000,40,9999,0.100000,0,0,0.000000,7,0.000000,0.000000,0.481992,0,0,0,0,0,0,0
5,59999,0,50000,30,10000,40,9999,0.100000,0,0,0.000000,7,0.000000,0.000000,0.067354,0,0,0,0,0,0,0
5,59999,1,50000,63,30000,40,9999,0.100000,0,0,0.000000,7,0.000000,0.000000,0.093472,0,0,0,0,0,0,0
5,59999,2,50000,32,0,40,9999,0.100000,0,0,0.000000,7,0.000000,0.000000,1.908976,0,0,0,0,0,0,0
5,59999,3,50000,0,10000,40,9999,0.100000,0,0,0.000000,7,0.000000,0.000000,0.185793,0,0,0,0,0,0,0
5,59999,4,50000,69,10000,40,9999,0.100000,0,0,0.000000,7,0.000000,0.000000,0.706983,0,0,0,0,0,0,0
5,59999,5,50000,30,10000,40,9999,0.100000,0,0,0.000000,7,0.000000,0.000000,0.763537,0,0,0,0,0,0,0
5,59999,6,50000,9,10000,40,9999,0.100000,0,0,0.000000,7,0.000000,0.000000,0.102617,0,0,0,0,0,0,0
5,59999,7,50000,0,10000,40,9999,0.100000,0,0,0.000000,7,0.000000,0.000000,0.160851,0,0,0,0,0,0,0
5,59999,8,50000,32,0,40,9999,0.100000,0,0,0.000000,7,0.000000,0.000000,0.107459,0,0,0,0,0,0,0
5,59999,9,50000,63,30000,49,9999,0.100000,0,0,0.000000,7,4.000000,0.000000,17.723882,0,0,0,0,0,0,0
5,59999,10,50000,32,0,49,9999,0.100000,0,0,0.000000,7,2.000000,0.000000,8.334070,0,0,1,0,1,0,0
5,59999,11,50000,63,30000,40,9999,0.100000,0,0,0.000000,7,0.000000,0.000000,0.529293,0,0,0,0,0,0,0
5,59999,12,50000,9,10000,40,9999,0.100000,0,0,0.000000,7,0.000000,0.000000,0.125602,0,0,0,0,0,0,0
5,59999,13,50000,32,0,40,9999,0.100000,0,0,0.000000,7,0.000000,0.000000,0.642873,0,0,0,0,0,0,0
5,59999,14,50000,0,10000,49,9999,0.100000,0,0,0.000000,7,1.000000,0.000000,1.789411,0,0,0,0,0,0,0
5,59999,15,50000,9,10000,40,9999,0.100000,0,0,0.000000,7,0.000000,0.000000,0.134578,0,0,0,0,0,0,0
5,59999,16,50000,9,10000,40,9999,0.100000,0,0,0.000000,7,0.000000,0.000000,0.463820,0,0,0,0,0,0,0
5,59999,17,50000,69,10000,40,9999,0.100000,0,0,0.000000,7,0.000000,0.000000,0.145362,0,0,0,0,0,0,0
5,59999,18,50000,69,10000,40,9999,0.100000,0,0,0.000000,7,0.000000,0.000000,0.728915,0,0,0,0,0,0,0
5,59999,19,50000,63,30000,49,9999,0.100000,0,0,0.000000,7,3.000000,0.000000,4.247373,0,0,0,0,0,0,0
5,59999,20,50000,69,10000,40,9999,0.100000,0,0,0.000000,7,0.000000,0.000000,0.375666,0,0,0,0,0,0,0
5,59999,21,50000,30,10000,49,9999,0.100000,0,0,0.000000,7,1.000000,0.000000,3.384549,0,0,0,0,0,0,0
5,59999,22,50000,9,10000,40,9999,0.100000,0,0,0.000000,7,0.000000,0.000000,2.909154,0,0,0,0,0,0,0
5,59999,23,50000,9,10000,40,9999,0.100000,0,0,0.000000,7,0.000000,0.000000,0.167989,0,0,0,0,0,0,0
5,59999,24,50000,0,10000,40,9999,0.100000,0,0,0.000000,7,0.000000,0.000000,0.115867,0,0,0,0,0,0,0
5,59999,25,50000,0,10000,40,9999,0.100000,0,0,0.000000,7,0.000000,0.000000,0.214691,0,0,0,0,0,0,0
5,59999,26,50000,32,0,40,9999,0.100000,0,0,0.000000,7,0.000000,0.000000,0.387710,0,0,0,0,0,0,0
5,59999,27,50000,9,10000,49,9999,0.100000,0,0,0.000000,7,1.000000,0.000000,4.925172,0,0,0,0,0,0,0
5,59999,28,50000,30,10000,40,9999,0.100000,0,0,0.000000,7,0.000000,0.000000,0.758756,0,0,0,0,0,0,0
5,59999,29,50000,0,10000,40,9999,0.100000,0,0,0.000000,7,0.000000,0.000000,1.410791,0,0,0,0,0,0,0
5,59999,30,50000,40,30000,9,9999,0.100000,0,0,34.210526,7,3.000000,0.000000,18.467066,0,0,0,0,1,0,0
5,59999,31,50000,0,10000,99,9999,0.100000,0,0,0.000000,7,1.000000,0.000000,5.131624,0,0,1,0,0,0,0
5,59999,32,50000,63,30000,40,9999,0.100000,0,0,0.000000,7,0.000000,0.000000,0.179390,0,0,0,0,0,0,0
5,59999,33,50000,30,10000,49,9999,0.100000,0,0,0.000000,7,5.000000,0.000000,7.947227,0,0,0,0,0,0,0
5,59999,34,50000,9,10000,40,9999,0.100000,0,0,0.000000,7,0.000000,0.000000,0.140567,0,0,0,0,0,0,0
5,59999,35,50000,63,30000,40,9999,0.100000,0,0,0.000000,7,0.000000,0.000000,0.533128,0,0,0,0,0,0,0
5,59999,36,50000,32,0,40,9999,0.100000,0,0,0.000000,7,0.000000,0.000000,0.204523,0,0,0,0,0,0,0
5,59999,37,50000,30,10000,40,9999,0.100000,0,0,0.000000,7,0.000000,0.000000,0.588161,0,0,0,0,0,0,0
5,59999,38,50000,0,10000,49,9999,0.100000,0,0,0.000000,7,1.000000,0.000000,7.493365,0,0,0,0,0,0,0
5,59999,39,50000,69,10000,40,9999,0.100000,0,0,0.000000,7,0.000000,0.000000,0.435416,0,0,0,0,0,0,0
5,59999,40,50000,9,10000,99,9999,0.100000,0,0,0.000000,7,6.000000,0.000000,18.407961,0,0,1,0,0,0,0
5,59999,41,50000,30,10000,40,9999,0.100000,0,0,0.000000,7,0.000000,0.000000,0.153683,0,0,0,0,0,0,0
5,59999,42,50000,9,10000,49,9999,0.100000,0,0,0.000000,7,1.000000,0.000000,6.464158,0,0,0,0,0,0,0
5,59999,43,50000,0,10000,40,9999,0.100000,0,0,0.000000,7,0.000000,0.000000,0.167679,0,0,0,0,0,0,0
5,59999,44,50000,9,10000,40,9999,0.100000,0,0,0.000000,7,0.000000,0.000000,0.236899,0,0,0,0,0,0,0
5,59999,45,50000,69,10000,40,9999,0.100000,0,0,0.000000,7,0.000000,0.000000,1.288063,0,0,0,0,0,0,0
5,59999,46,50000,63,30000,49,9999,0.100000,0,0,0.000000,7,1.000000,0.000000,10.578047,0,0,0,0,0,0,0
5,59999,47,50000,69,10000,40,9999,0.100000,0,0,0.000000,7,0.000000,0.000000,0.690019,0,0,0,0,0,0,0
5,59999,48,50000,32,0,49,9999,0.100000,0,0,0.000000,7,2.000000,0.000000,19.281223,0,0,0,0,0,0,0
5,59999,49,50000,40,30000,9,9999,0.100000,0,0,34.210526,7,3.000000,0.000000,11.224477,0,0,0,0,1,0,0
5,59999,50,50000,63,30000,49,9999,0.100000,0,0,0.000000,7,1.000000,0.000000,15.257415,0,0,0,0,0,0,0
5,59999,51,50000,63,30000,49,9999,0.100000,0,0,0.000000,7,5.000000,0.000000,11.868962,0,0,0,0,0,0,0
5,59999,52,50000,40,30000,40,9999,0.100000,0,0,0.000000,7,0.000000,0.000000,0.419896,0,0,0,0,0,0,0
5,59999,53,50000,32,0,40,9999,0.100000,0,0,0.000000,7,0.000000,0.000000,0.724594,0,0,0,0,0,0,0
5,59999,54,50000,0,10000,49,9999,0.100000,0,0,0.000000,7,5.000000,0.000000,7.905533,0,0,0,0,0,0,0
5,59999,55,50000,9,10000,40,9999,0.100000,0,0,0.000000,7,0.000000,0.000000,0.708822,0,0,0,0,0,0,0
5,59999,56,50000,40,30000,40,9999,0.100000,0,0,0.000000,7,0.000000,0.000000,7.740042,0,0,0,0,0,0,0
5,59999,57,50000,0,10000,40,9999,0.100000,0,0,0.000000,7,0.000000,0.000000,0.081990,0,0,0,0,0,0,0
5,59999,58,50000,40,30000,40,9999,0.100000,0,0,0.000000,7,0.000000,0.000000,0.896758,0,0,0,0,0,0,0
5,59999,59,50000,69,10000,40,9999,0.100000,0,0,0.000000,7,0.000000,0.000000,0.759167,0,0,0,0,0,0,0
5,59999,60,50000,32,0,49,9999,0.100000,0,0,0.000000,7,2.000000,0.000000,12.196570,0,0,0,0,0,0,0
5,59999,61,50000,69,10000,40,9999,0.100000,0,0,0.000000,7,0.000000,0.000000,0.597094,0,0,0,0,0,0,0
5,59999,62,50000,32,0,49,9999,0.100000,0,0,0.000000,7,3.000000,0.000000,3.920163,0,0,0,0,0,0,0
5,59999,63,50000,32,0,40,9999,0.100000,0,0,0.000000,7,0.000000,0.000000,1.398100,0,0,0,0,0,0,0
5,59999,64,50000,32,0,40,9999,0.100000,0,0,0.000000,7,0.000000,0.000000,0.616300,0,0,0,0,0,0,0
5,59999,65,50000,30,10000,40,9999,0.100000,0,0,0.000000,7,0.000000,0.000000,0.690913,0,0,0,0,0,0,0
5,59999,66,50000,0,10000,40,9999,0.100000,0,0,0.000000,7,0.000000,0.000000,0.406780,0,0,0,0,0,0,0
5,59999,67,50000,63,30000,40,9999,0.100000,0,0,0.000000,7,0.000000,0.000000,0.366068,0,0,0,0,0,0,0
5,59999,68,50000,40,30000,40,9999,0.100000,0,0,0.000000,7,0.000000,0.000000,0.214741,0,0,0,0,0,0,0
5,59999,69,50000,0,10000,40,9999,0.100000,0,0,0.000000,7,0.000000,0.000000,1.441972,0,0,0,0,0,0,0
5,59999,70,50000,63,30000,49,9999,0.100000,0,0,0.000000,7,2.000000,0.000000,14.820345,0,0,0,0,0,0,0
5,59999,71,50000,63,30000,40,9999,0.100000,0,0,0.000000,7,0.000000,0.000000,1.198433,0,0,0,0,0,0,0
5,59999,72,50000,40,30000,9,9999,0.100000,0,0,34.210526,7,4.000000,0.000000,17.652595,0,0,0,0,1,0,0
5,59999,73,50000,63,30000,49,9999,0.100000,0,0,0.000000,7,3.000000,0.000000,7.030467,0,0,0,0,0,0,0
5,59999,74,50000,63,30000,40,9999,0.100000,0,0,0.000000,7,0.000000,0.000000,0.414854,0,0,0,0,0,0,0
5,59999,75,50000,63,30000,49,9999,0.100000,0,0,0.000000,7,1.000000,0.000000,4.936059,0,0,0,0,0,0,0
5,59999,76,50000,69,10000,40,9999,0.100000,0,0,0.000000,7,0.000000,0.000000,0.778526,0,0,0,0,0,0,0
5,59999,77,50000,30,10000,40,9999,0.100000,0,0,0.000000,7,0.000000,0.000000,1.831853,0,0,0,0,0,0,0
5,59999,78,50000,69,10000,40,9999,0.100000,0,0,0.000000,7,0.000000,0.000000,0.641509,0,0,0,0,0,0,0
5,59999,79,50000,0,10000,49,9999,0.100000,0,0,0.000000,7,3.000000,0.000000,8.846260,0,0,0,0,0,0,0
5,59999,80,50000,63,30000,49,9999,0.100000,0,0,0.000000,7,3.000000,0.000000,3.893385,0,0,0,0,0,0,0
5,59999,81,50000,63,30000,49,9999,0.100000,0,0,0.000000,7,4.000000,0.000000,14.745253,0,0,0,0,0,0,0
5,59999,82,50000,63,30000,40,9999,0.100000,0,0,0.000000,7,0.000000,0.000000,0.478868,0,0,0,0,0,0,0
5,59999,83,50000,9,10000,49,9999,0.100000,0,0,0.000000,7,2.000000,0.000000,20.179166,0,0,0,0,0,0,0
5,59999,84,50000,63,30000,40,9999,0.100000,0,0,0.000000,7,0.000000,0.000000,0.296176,0,0,0,0,0,0,0
5,59999,85,50000,40,30000,40,9999,0.100000,0,0,0.000000,7,0.000000,0.000000,1.999062,0,0,0,0,0,0,0
5,59999,86,50000,32,0,40,9999,0.100000,0,0,0.000000,7,0.000000,0.000000,1.427451,0,0,0,0,0,0,0
5,59999,87,50000,30,10000,40,9999,0.100000,0,0,0.000000,7,0.000000,0.000000,0.687853,0,0,0,0,0,0,0
5,59999,88,50000,63,30000,40,9999,0.100000,0,0,0.000000,7,0.000000,0.000000,0.334917,0,0,0,0,0,0,0
5,59999,89,50000,30,10000,40,9999,0.100000,0,0,0.000000,7,0.000000,0.000000,0.480616,0,0,0,0,0,0,0
5,59999,90,50000,30,10000,40,9999,0.100000,0,0,0.000000,7,0.000000,0.000000,0.363474,0,0,0,0,0,0,0
5,59999,91,50000,32,0,40,9999,0.100000,0,0,0.000000,7,0.000000,0.000000,0.855984,0,0,0,0,0,0,0
5,59999,92,50000,63,30000,40,9999,0.100000,0,0,0.000000,7,0.000000,0.000000,1.310288,0,0,0,0,0,0,0
5,59999,93,50000,30,10000,49,9999,0.100000,0,0,0.000000,7,1.000000,0.000000,10.832401,0,0,0,0,0,0,0
5,59999,94,50000,40,30000,40,9999,0.100000,0,0,0.000000,7,0.000000,0.000000,1.006883,0,0,0,0,0,0,0
5,59999,95,50000,30,10000,49,9999,0.100000,0,0,0.000000,7,3.000000,0.000000,3.922665,0,0,0,0,0,0,0
5,59999,96,50000,0,10000,40,9999,0.100000,0,0,0.000000,7,0.000000,0.000000,5.323316,0,0,0,0,0,0,0
5,59999,97,50000,32,0,40,9999,0.100000,0,0,0.000000,7,0.000000,0.000000,0.233822,0,0,0,0,0,0,0
5,59999,98,50000,30,10000,40,9999,0.100000,0,0,0.000000,7,0.000000,0.000000,5.633129,0,0,0,0,0,0,0
5,59999,99,50000,30,10000,40,9999,0.100000,0,0,0.000000,7,0.000000,0.000000,0.619897,0,0,0,0,0,0,0
6,69999,0,60000,40,30000,40,9999,0.100000,0,0,0.000000,7,0.000000,0.000000,0.487791,0,0,0,0,0,0,0
6,69999,1,60000,32,0,40,9999,0.100000,0,0,0.000000,7,0.000000,0.000000,0.384484,0,0,0,0,0,0,0
6,69999,2,60000,32,0,40,9999,0.100000,0,0,0.000000,7,0.000000,0.000000,0.598064,0,0,0,0,0,0,0
6,69999,3,60000,0,10000,40,9999,0.100000,0,0,0.000000,7,0.000000,0.000000,0.183301,0,0,0,0,0,0,0
6,69999,4,60000,69,10000,40,9999,0.100000,0,0,0.000000,7,0.000000,0.000000,0.854308,0,0,0,0,0,0,0
6,69999,5,60000,69,10000,40,9999,0.100000,0,0,0.000000,7,0.000000,0.000000,0.540898,0,0,0,0,0,0,0
6,69999,6,60000,32,0,40,9999,0.100000,0,0,0.000000,7,0.000000,0.000000,0.104417,0,0,0,0,0,0,0
6,69999,7,60000,40,30000,40,9999,0.100000,0,0,0.000000,7,0.000000,0.000000,0.149210,0,0,0,0,0,0,0
6,69999,8,60000,63,30000,40,9999,0.100000,0,0,0.000000,7,0.000000,0.000000,0.203131,0,0,0,0,0,0,0
6,69999,9,60000,63,30000,40,9999,0.100000,0,0,0.000000,7,0.000000,0.000000,16.199344,0,0,0,0,0,0,0
6,69999,10,60000,32,0,40,9999,0.100000,0,0,0.000000,7,0.000000,0.000000,0.762245,0,0,0,0,0,0,0
6,69999,11,60000,40,30000,40,9999,0.100000,0,0,0.000000,7,0.000000,0.000000,0.586947,0,0,0,0,0,0,0
6,69999,12,60000,63,30000,40,9999,0.100000,0,0,0.000000,7,0.000000,0.000000,0.135058,0,0,0,0,0,0,0
6,69999,13,60000,69,10000,40,9999,0.100000,0,0,0.000000,7,0.000000,0.000000,0.231828,0,0,0,0,0,0,0
6,69999,14,60000,30,10000,40,9999,0.100000,0,0,0.000000,7,0.000000,0.000000,0.143989,0,0,0,0,0,0,0
6,69999,15,60000,63,30000,40,9999,0.100000,0,0,0.000000,7,0.000000,0.000000,0.488104,0,0,0,0,0,0,0
6,69999,16,60000,69,10000,49,9999,0.100000,0,0,0.000000,7,2.000000,0.000000,2.617547,0,0,0,0,0,0,0
6,69999,17,60000,63,30000,40,9999,0.100000,0,0,0.000000,7,0.000000,0.000000,0.128947,0,0,0,0,0,0,0
6,69999,18,60000,9,10000,49,9999,0.100000,0,0,0.000000,7,1.000000,0.000000,1.395595,0,0,0,0,0,0,0
6,69999,19,60000,40,30000,40,9999,0.100000,0,0,0.000000,7,0.000000,0.000000,0.701944,0,0,0,0,0,0,0
6,69999,20,60000,63,30000,40,9999,0.100000,0,0,0.000000,7,0.000000,0.000000,0.461355,0,0,0,0,0,0,0
6,69999,21,60000,9,10000,40,9999,0.100000,0,0,0.000000,7,0.000000,0.000000,1.162496,0,0,0,0,0,0,0
6,69999,22,60000,69,10000,40,9999,0.100000,0,0,0.000000,7,0.000000,0.000000,0.182615,0,0,0,0,0,0,0
6,69999,23,60000,40,30000,40,9999,0.100000,0,0,0.000000,7,0.000000,0.000000,0.170739,0,0,0,0,0,0,0
6,69999,24,60000,32,0,40,9999,0.100000,0,0,0.000000,7,0.000000,0.000000,0.107306,0,0,0,0,0,0,0
6,69999,25,60000,9,10000,40,9999,0.100000,0,0,0.000000,7,0.000000,0.000000,0.560683,0,0,0,0,0,0,0
6,69999,26,60000,32,0,40,9999,0.100000,0,0,0.000000,7,0.000000,0.000000,0.349642,0,0,0,0,0,0,0
6,69999,27,60000,9,10000,40,9999,0.100000,0,0,0.000000,7,0.000000,0.000000,13.340151,0,0,0,0,0,0,0
6,69999,28,60000,40,30000,49,9999,0.100000,0,0,0.000000,7,2.000000,0.000000,2.761508,0,0,0,0,0,0,0
6,69999,29,60000,40,30000,40,9999,0.100000,0,0,0.000000,7,0.000000,0.000000,0.261798,0,0,0,0,0,0,0
6,69999,30,60000,0,10000,9,9999,0.100000,0,0,0.000000,7,1.000000,0.000000,1.828651,0,0,0,0,1,0,0
6,69999,31,60000,9,10000,49,9999,0.100000,0,0,0.000000,7,1.000000,0.000000,9.160467,0,0,0,0,0,0,0
6,69999,32,60000,30,10000,40,9999,0.100000,0,0,0.000000,7,0.000000,0.000000,0.296578,0,0,0,0,0,0,0
6,69999,33,60000,0,10000,49,9999,0.100000,0,0,0.000000,7,1.000000,0.000000,1.485674,0,0,0,0,0,0,0
6,69999,34,60000,0,10000,40,9999,0.100000,0,0,0.000000,7,0.000000,0.000000,0.143431,0,0,0,0,0,0,0
6,69999,35,60000,30,10000,49,9999,0.100000,0,0,0.000000,7,1.000000,0.000000,4.251174,0,0,0,0,0,0,0
6,69999,36,60000,63,30000,40,9999,0.100000,0,0,0.000000,7,0.000000,0.000000,0.136891,0,0,0,0,0,0,0
6,69999,37,60000,0,10000,40,9999,0.100000,0,0,0.000000,7,0.000000,0.000000,0.170831,0,0,0,0,0,0,0
6,69999,38,60000,0,10000,49,9999,0.100000,0,0,0.000000,7,3.000000,0.000000,9.950275,0,0,0,0,0,0,0
6,69999,39,60000,69,10000,40,9999,0.100000,0,0,0.000000,7,0.000000,0.000000,0.337575,0,0,0,0,0,0,0
6,69999,40,60000,30,10000,49,9999,0.100000,0,0,0.000000,7,1.000000,0.000000,6.730721,0,0,0,0,0,0,0
6,69999,41,60000,69,10000,40,9999,0.100000,0,0,0.000000,7,0.000000,0.000000,0.459106,0,0,0,0,0,0,0
6,69999,42,60000,69,10000,40,9999,0.100000,0,0,0.000000,7,0.000000,0.000000,0.138223,0,0,0,0,0,0,0
6,69999,43,60000,9,10000,49,9999,0.100000,0,0,0.000000,7,1.000000,0.000000,1.367697,0,0,0,0,0,0,0
6,69999,44,60000,32,0,49,9999,0.100000,0,0,0.000000,7,2.000000,0.000000,4.526082,0,0,0,0,0,0,0
6,69999,45,60000,30,10000,49,9999,0.100000,0,0,0.000000,7,1.000000,0.000000,5.599323,0,0,0,0,0,0,0
6,69999,46,60000,63,30000,40,9999,0.100000,0,0,0.000000,7,0.000000,0.000000,4.586507,0,0,0,0,0,0,0
6,69999,47,60000,63,30000,40,9999,0.100000,0,0,0.000000,7,0.000000,0.000000,0.669827,0,0,0,0,0,0,0
6,69999,48,60000,63,30000,49,9999,0.100000,0,0,0.000000,7,2.000000,0.000000,6.494975,0,0,0,0,0,0,0
6,69999,49,60000,0,10000,40,9999,0.100000,0,0,0.000000,7,0.000000,0.000000,0.598043,0,0,0,0,0,0,0
6,69999,50,60000,32,0,49,9999,0.100000,0,0,0.000000,7,2.000000,0.000000,16.084642,0,0,0,0,0,0,0
6,69999,51,60000,30,10000,49,9999,0.100000,0,0,0.000000,7,5.000000,0.000000,11.949846,0,0,0,0,0,0,0
6,69999,52,60000,40,30000,49,9999,0.100000,0,0,0.000000,7,2.000000,0.000000,2.553468,0,0,0,0,0,0,0
6,69999,53,60000,30,10000,40,9999,0.100000,0,0,0.000000,7,0.000000,0.000000,1.016758,0,0,0,0,0,0,0
6,69999,54,60000,40,30000,49,9999,0.100000,0,0,0.000000,7,1.000000,0.000000,1.607231,0,0,0,0,0,0,0
6,69999,55,60000,69,10000,49,9999,0.100000,0,0,0.000000,7,1.000000,0.000000,18.352638,0,0,0,0,0,0,0
6,69999,56,60000,40,30000,49,9999,0.100000,0,0,0.000000,7,2.000000,0.000000,11.352473,0,0,0,0,0,0,0
6,69999,57,60000,32,0,40,9999,0.100000,0,0,0.000000,7,0.000000,0.000000,0.078168,0,0,0,0,0,0,0
6,69999,58,60000,30,10000,40,9999,0.100000,0,0,0.000000,7,0.000000,0.000000,0.109421,0,0,0,0,0,0,0
6,69999,59,60000,9,10000,40,9999,0.100000,0,0,0.000000,7,0.000000,0.000000,0.781268,0,0,0,0,0,0,0
6,69999,60,60000,63,30000,40,9999,0.100000,0,0,0.000000,7,0.000000,0.000000,10.847237,0,0,0,0,0,0,0
6,69999,61,60000,0,10000,40,9999,0.100000,0,0,0.000000,7,0.000000,0.000000,0.901182,0,0,0,0,0,0,0
6,69999,62,60000,32,0,40,9999,0.100000,0,0,0.000000,7,0.000000,0.000000,0.336039,0,0,0,0,0,0,0
6,69999,63,60000,63,30000,40,9999,0.135000,0,0,0.000000,7,0.000000,0.000000,0.499020,0,0,0,0,0,0,0
6,69999,64,60000,9,10000,40,9999,0.100000,0,0,0.000000,7,0.000000,0.000000,0.481024,0,0,0,0,0,0,0
6,69999,65,60000,9,10000,49,9999,0.100000,0,0,0.000000,7,2.000000,0.000000,6.543559,0,0,0,0,0,0,0
6,69999,66,60000,40,30000,40,9999,0.100000,0,0,0.000000,7,0.000000,0.000000,0.326306,0,0,0,0,0,0,0
6,69999,67,60000,9,10000,40,9999,0.100000,0,0,0.000000,7,0.000000,0.000000,0.233335,0,0,0,0,0,0,0
6,69999,68,60000,32,0,40,9999,0.100000,0,0,0.000000,7,0.000000,0.000000,0.217706,0,0,0,0,0,0,0
6,69999,69,60000,63,30000,40,9999,0.100000,0,0,0.000000,7,0.000000,0.000000,0.450193,0,0,0,0,0,0,0
6,69999,70,60000,30,10000,49,9999,0.100000,0,0,0.000000,7,2.000000,0.000000,5.712623,0,0,0,0,0,0,0
6,69999,71,60000,40,30000,49,9999,0.100000,0,0,0.000000,7,1.000000,0.000000,2.207849,0,0,0,0,0,0,0
6,69999,72,60000,40,30000,49,9999,0.100000,0,0,0.000000,7,1.000000,0.000000,3.085041,0,0,0,0,0,0,0
6,69999,73,60000,63,30000,40,9999,0.100000,0,0,0.000000,7,0.000000,0.000000,0.172511,0,0,0,0,0,0,0
6,69999,74,60000,32,0,40,9999,0.100000,0,0,0.000000,7,0.000000,0.000000,0.412290,0,0,0,0,0,0,0
6,69999,75,60000,30,10000,40,9999,0.100000,0,0,0.000000,7,0.000000,0.000000,3.221312,0,0,0,0,0,0,0
6,69999,76,60000,40,30000,49,9999,0.100000,0,0,0.000000,7,1.000000,0.000000,1.387676,0,0,0,0,0,0,0
6,69999,77,60000,40,30000,49,9999,0.100000,0,0,0.000000,7,1.000000,0.000000,4.274099,0,0,0,0,0,0,0
6,69999,78,60000,40,30000,40,9999,0.100000,0,0,0.000000,7,0.000000,0.000000,0.512394,0,0,0,0,0,0,0
6,69999,79,60000,9,10000,49,9999,0.100000,0,0,0.000000,7,5.000000,0.000000,16.217827,0,0,0,0,0,0,0
6,69999,80,60000,63,30000,40,9999,0.100000,0,0,0.000000,7,0.000000,0.000000,0.282324,0,0,0,0,0,0,0
6,69999,81,60000,69,10000,49,9999,0.100000,0,0,0.000000,7,5.000000,0.000000,13.562793,0,0,0,0,0,0,0
6,69999,82,60000,69,10000,40,9999,0.100000,0,0,0.000000,7,0.000000,0.000000,0.503461,0,0,0,0,0,0,0
6,69999,83,60000,0,10000,49,9999,0.100000,0,0,0.000000,7,1.000000,0.000000,6.302736,0,0,0,0,0,0,0
6,69999,84,60000,9,10000,49,9999,0.100000,0,0,0.000000,7,3.000000,0.000000,6.935907,0,0,0,0,0,0,0
6,69999,85,60000,69,10000,40,9999,0.100000,0,0,0.000000,7,0.000000,0.000000,0.486278,0,0,0,0,0,0,0
6,69999,86,60000,32,0,40,9999,0.100000,0,0,0.000000,7,0.000000,0.000000,0.338483,0,0,0,0,0,0,0
6,69999,87,60000,69,10000,40,9999,0.100000,0,0,0.000000,7,0.000000,0.000000,1.629736,0,0,0,0,0,0,0
6,69999,88,60000,40,30000,40,9999,0.100000,0,0,0.000000,7,0.000000,0.000000,0.511377,0,0,0,0,0,0,0
6,69999,89,60000,69,10000,40,9999,0.100000,0,0,0.000000,7,0.000000,0.000000,0.519364,0,0,0,0,0,0,0
6,69999,90,60000,69,10000,40,9999,0.100000,0,0,0.000000,7,0.000000,0.000000,0.372176,0,0,0,0,0,0,0
6,69999,91,60000,69,10000,49,9999,0.100000,0,0,0.000000,7,1.000000,0.000000,1.337646,0,0,0,0,0,0,0
6,69999,92,60000,9,10000,49,9999,0.100000,0,0,0.000000,7,1.000000,0.000000,1.331745,0,0,0,0,0,0,0
6,69999,93,60000,40,30000,49,9999,0.100000,0,0,0.000000,7,1.000000,0.000000,10.384766,0,0,0,0,0,0,0
6,69999,94,60000,40,30000,40,9999,0.100000,0,0,0.000000,7,0.000000,0.000000,0.683735,0,0,0,0,0,0,0
6,69999,95,60000,40,30000,40,9999,0.100000,0,0,0.000000,7,0.000000,0.000000,0.331219,0,0,0,0,0,0,0
6,69999,96,60000,63,30000,40,9999,0.100000,0,0,0.000000,7,0.000000,0.000000,0.097691,0,0,0,0,0,0,0
6,69999,97,60000,30,10000,40,9999,0.100000,0,0,0.000000,7,0.000000,0.000000,0.140758,0,0,0,0,0,0,0
6,69999,98,60000,9,10000,40,9999,0.100000,0,0,0.000000,7,0.000000,0.000000,23.453815,0,0,0,0,0,0,0
6,69999,99,60000,9,10000,40,9999,0.100000,0,0,0.000000,7,0.000000,0.000000,0.347415,0,0,0,0,0,0,0
7,79999,0,70000,40,30000,40,9999,0.100000,0,0,0.000000,7,0.000000,0.000000,0.495585,0,0,0,0,0,0,0
7,79999,1,70000,0,10000,40,9999,0.100000,0,0,0.000000,7,0.000000,0.000000,0.517687,0,0,0,0,0,0,0
7,79999,2,70000,0,10000,40,9999,0.100000,0,0,0.000000,7,0.000000,0.000000,0.688938,0,0,0,0,0,0,0
7,79999,3,70000,40,30000,40,9999,0.100000,0,0,0.000000,7,0.000000,0.000000,0.384145,0,0,0,0,0,0,0
7,79999,4,70000,40,30000,49,9999,0.100000,0,0,0.000000,7,1.000000,0.000000,1.612907,0,0,0,0,0,0,0
7,79999,5,70000,40,30000,40,9999,0.100000,0,0,0.000000,7,0.000000,0.000000,1.045557,0,0,0,0,0,0,0
7,79999,6,70000,40,30000,40,9999,0.100000,0,0,0.000000,7,0.000000,0.000000,0.097525,0,0,0,0,0,0,0
7,79999,7,70000,32,0,40,9999,0.100000,0,0,0.000000,7,0.000000,0.000000,0.138457,0,0,0,0,0,0,0
7,79999,8,70000,40,30000,40,9999,0.100000,0,0,0.000000,7,0.000000,0.000000,0.127217,0,0,0,0,0,0,0
7,79999,9,70000,32,0,49,9999,0.100000,0,0,0.000000,7,1.000000,0.000000,15.589867,0,0,0,0,0,0,0
7,79999,10,70000,40,30000,49,9999,0.100000,0,0,0.000000,7,3.000000,0.000000,13.045984,0,0,0,0,0,0,0
7,79999,11,70000,40,30000,40,9999,0.100000,0,0,0.000000,7,0.000000,0.000000,0.576858,0,0,0,0,0,0,0
7,79999,12,70000,0,10000,40,9999,0.100000,0,0,0.000000,7,0.000000,0.000000,0.131477,0,0,0,0,0,0,0
7,79999,13,70000,69,10000,40,9999,0.100000,0,0,0.000000,7,0.000000,0.000000,0.237034,0,0,0,0,0,0,0
7,79999,14,70000,30,10000,40,9999,0.135000,0,0,0.000000,7,0.000000,0.000000,0.142522,0,0,0,0,0,0,0
7,79999,15,70000,63,30000,40,9999,0.100000,0,0,0.000000,7,0.000000,0.000000,0.637155,0,0,0,0,0,0,0
7,79999,16,70000,40,30000,49,9999,0.100000,0,0,0.000000,7,1.000000,0.000000,1.895292,0,0,0,0,0,0,0
7,79999,17,70000,0,10000,40,9999,0.100000,0,0,0.000000,7,0.000000,0.000000,0.181392,0,0,0,0,0,0,0
7,79999,18,70000,40,30000,40,9999,0.100000,0,0,0.000000,7,0.000000,0.000000,0.770193,0,0,0,0,0,0,0
7,79999,19,70000,32,0,40,9999,0.100000,0,0,0.000000,7,0.000000,0.000000,0.658161,0,0,0,0,0,0,0
7,79999,20,70000,0,10000,40,9999,0.100000,0,0,0.000000,7,0.000000,0.000000,0.862253,0,0,0,0,0,0,0
7,79999,21,70000,32,0,49,9999,0.100000,0,0,0.000000,7,1.000000,0.000000,1.411541,0,0,0,0,0,0,0
7,79999,22,70000,9,10000,40,9999,0.100000,0,0,0.000000,7,0.000000,0.000000,0.187180,0,0,0,0,0,0,0
7,79999,23,70000,0,10000,40,9999,0.100000,0,0,0.000000,7,0.000000,0.000000,0.203592,0,0,0,0,0,0,0
7,79999,24,70000,0,10000,40,9999,0.100000,0,0,0.000000,7,0.000000,0.000000,0.126070,0,0,0,0,0,0,0
7,79999,25,70000,69,10000,40,9999,0.100000,0,0,0.000000,7,0.000000,0.000000,0.209369,0,0,0,0,0,0,0
7,79999,26,70000,9,10000,40,9999,0.100000,0,0,0.000000,7,0.000000,0.000000,0.536363,0,0,0,0,0,0,0
7,79999,27,70000,9,10000,40,9999,0.100000,0,0,0.000000,7,0.000000,0.000000,1.348675,0,0,0,0,0,0,0
7,79999,28,70000,40,30000,49,9999,0.100000,0,0,0.000000,7,1.000000,0.000000,1.898614,0,0,0,0,0,0,0
7,79999,29,70000,30,10000,40,9999,0.100000,0,0,0.000000,7,0.000000,0.000000,0.273972,0,0,0,0,0,0,0
7,79999,30,70000,9,10000,0,9999,0.100000,0,0,0.000000,7,0.000000,0.000000,1.847893,0,0,0,0,23,0,0
7,79999,31,70000,63,30000,49,9999,0.100000,0,0,0.000000,7,1.000000,0.000000,13.147238,0,0,0,0,0,0,0
7,79999,32,70000,9,10000,40,9999,0.100000,0,0,0.000000,7,0.000000,0.000000,0.338449,0,0,0,0,0,0,0
7,79999,33,70000,32,0,49,9999,0.100000,0,0,0.000000,7,1.000000,0.000000,1.759229,0,0,0,0,0,0,0
7,79999,34,70000,63,30000,40,9999,0.100000,0,0,0.000000,7,0.000000,0.000000,0.141767,0,0,0,0,0,0,0
7,79999,35,70000,32,0,49,9999,0.100000,0,0,0.000000,7,4.000000,0.000000,11.587293,0,0,0,0,0,0,0
7,79999,36,70000,69,10000,40,9999,0.100000,0,0,0.000000,7,0.000000,0.000000,0.141039,0,0,0,0,0,0,0
7,79999,37,70000,9,10000,40,9999,0.100000,0,0,0.000000,7,0.000000,0.000000,0.176497,0,0,0,0,0,0,0
7,79999,38,70000,0,10000,49,9999,0.100000,0,0,0.000000,7,1.000000,0.000000,6.460603,0,0,0,0,0,0,0
7,79999,39,70000,30,10000,40,9999,0.100000,0,0,0.000000,7,0.000000,0.000000,0.361949,0,0,0,0,0,0,0
7,79999,40,70000,9,10000,49,9999,0.100000,0,0,0.000000,7,2.000000,0.000000,15.998887,0,0,0,0,0,0,0
7,79999,41,70000,69,10000,40,9999,0.100000,0,0,0.000000,7,0.000000,0.000000,0.849414,0,0,0,0,0,0,0
7,79999,42,70000,30,10000,40,9999,0.100000,0,0,0.000000,7,0.000000,0.000000,0.142500,0,0,0,0,0,0,0
7,79999,43,70000,9,10000,49,9999,0.100000,0,0,0.000000,7,13.000000,0.000000,14.311215,0,0,0,0,0,0,0
7,79999,44,70000,69,10000,49,9999,0.100000,0,0,0.000000,7,2.000000,0.000000,4.491664,0,0,0,0,0,0,0
7,79999,45,70000,0,10000,40,9999,0.100000,0,0,0.000000,7,0.000000,0.000000,0.073638,0,0,0,0,0,0,0
7,79999,46,70000,0,10000,40,9999,0.100000,0,0,0.000000,7,0.000000,0.000000,1.977569,0,0,0,0,0,0,0
7,79999,47,70000,40,30000,40,9999,0.100000,0,0,0.000000,7,0.000000,0.000000,0.683262,0,0,0,0,0,0,0
7,79999,48,70000,30,10000,40,9999,0.100000,0,0,0.000000,7,0.000000,0.000000,0.138005,0,0,0,0,0,0,0
7,79999,49,70000,32,0,49,9999,0.100000,0,0,0.000000,7,2.000000,0.000000,10.178075,0,0,0,0,0,0,0
7,79999,50,70000,9,10000,40,9999,0.100000,0,0,0.000000,7,0.000000,0.000000,10.805994,0,0,0,0,0,0,0
7,79999,51,70000,32,0,40,9999,0.100000,0,0,0.000000,7,0.000000,0.000000,0.127784,0,0,0,0,0,0,0
7,79999,52,70000,69,10000,49,9999,0.100000,0,0,0.000000,7,1.000000,0.000000,1.989396,0,0,0,0,0,0,0
7,79999,53,70000,9,10000,49,9999,0.100000,0,0,0.000000,7,1.000000,0.000000,2.217128,0,0,0,0,0,0,0
7,79999,54,70000,30,10000,49,9999,0.100000,0,0,0.000000,7,1.000000,0.000000,2.847165,0,0,0,0,0,0,0
7,79999,55,70000,40,30000,40,9999,0.100000,0,0,0.000000,7,0.000000,0.000000,25.555524,0,0,0,0,0,0,0
7,79999,56,70000,63,30000,49,9999,0.100000,0,0,0.000000,7,1.000000,0.000000,1.936395,0,0,0,0,0,0,0
7,79999,57,70000,9,10000,40,9999,0.100000,0,0,0.000000,7,0.000000,0.000000,0.074663,0,0,0,0,0,0,0
7,79999,58,70000,0,10000,40,9999,0.100000,0,0,0.000000,7,0.000000,0.000000,0.101488,0,0,0,0,0,0,0
7,79999,59,70000,30,10000,40,9999,0.100000,0,0,0.000000,7,0.000000,0.000000,0.980690,0,0,0,0,0,0,0
7,79999,60,70000,40,30000,40,9999,0.100000,0,0,0.000000,7,0.000000,0.000000,9.419144,0,0,0,0,0,0,0
7,79999,61,70000,63,30000,40,9999,0.100000,0,0,0.000000,7,0.000000,0.000000,1.687701,0,0,0,0,0,0,0
7,79999,62,70000,32,0,40,9999,0.100000,0,0,0.000000,7,0.000000,0.000000,0.339980,0,0,0,0,0,0,0
7,79999,63,70000,0,10000,40,9999,0.100000,0,0,0.000000,7,0.000000,0.000000,2.292244,0,0,0,0,0,0,0
7,79999,64,70000,32,0,40,9999,0.100000,0,0,0.000000,7,0.000000,0.000000,0.881926,0,0,0,0,0,0,0
7,79999,65,70000,63,30000,40,9999,0.100000,0,0,0.000000,7,0.000000,0.000000,0.680881,0,0,0,0,0,0,0
7,79999,66,70000,9,10000,40,9999,0.100000,0,0,0.000000,7,0.000000,0.000000,0.086757,0,0,0,0,0,0,0
7,79999,67,70000,0,10000,40,9999,0.100000,0,0,0.000000,7,0.000000,0.000000,0.232886,0,0,0,0,0,0,0
7,79999,68,70000,69,10000,40,9999,0.100000,0,0,0.000000,7,0.000000,0.000000,0.431671,0,0,0,0,0,0,0
7,79999,69,70000,0,10000,40,9999,0.100000,0,0,0.000000,7,0.000000,0.000000,0.571283,0,0,0,0,0,0,0
7,79999,70,70000,63,30000,49,9999,0.100000,0,0,0.000000,7,1.000000,0.000000,18.377536,0,0,0,0,0,0,0
7,79999,71,70000,9,10000,40,9999,0.100000,0,0,0.000000,7,0.000000,0.000000,0.596411,0,0,0,0,0,0,0
7,79999,72,70000,40,30000,40,9999,0.100000,0,0,0.000000,7,0.000000,0.000000,2.473703,0,0,0,0,0,0,0
7,79999,73,70000,30,10000,40,9999,0.100000,0,0,0.000000,7,0.000000,0.000000,0.171424,0,0,0,0,0,0,0
7,79999,74,70000,32,0,40,9999,0.100000,0,0,0.000000,7,0.000000,0.000000,0.412246,0,0,0,0,0,0,0
7,79999,75,70000,0,10000,49,9999,0.100000,0,0,0.000000,7,1.000000,0.000000,1.124970,0,0,0,0,0,0,0
7,79999,76,70000,30,10000,40,9999,0.100000,0,0,0.000000,7,0.000000,0.000000,1.098529,0,0,0,0,0,0,0
7,79999,77,70000,32,0,49,9999,0.100000,0,0,0.000000,7,7.000000,0.000000,16.143752,0,0,0,0,0,0,0
7,79999,78,70000,30,10000,40,9999,0.100000,0,0,0.000000,7,0.000000,0.000000,1.487006,0,0,0,0,0,0,0
7,79999,79,70000,40,30000,49,9999,0.100000,0,0,0.000000,7,1.000000,0.000000,8.727286,0,0,0,0,0,0,0
7,79999,80,70000,69,10000,40,9999,0.100000,0,0,0.000000,7,0.000000,0.000000,0.264038,0,0,0,0,0,0,0
7,79999,81,70000,69,10000,49,9999,0.100000,0,0,0.000000,7,1.000000,0.000000,11.324059,0,0,0,0,0,0,0
7,79999,82,70000,32,0,40,9999,0.100000,0,0,0.000000,7,0.000000,0.000000,0.514990,0,0,0,0,0,0,0
7,79999,83,70000,32,0,49,9999,0.100000,0,0,0.000000,7,1.000000,0.000000,9.169209,0,0,0,0,0,0,0
7,79999,84,70000,63,30000,49,9999,0.100000,0,0,0.000000,7,3.000000,0.000000,16.324835,0,0,0,0,0,0,0
7,79999,85,70000,63,30000,40,9999,0.100000,0,0,0.000000,7,0.000000,0.000000,0.485895,0,0,0,0,0,0,0
7,79999,86,70000,40,30000,40,9999,0.100000,0,0,0.000000,7,0.000000,0.000000,0.504624,0,0,0,0,0,0,0
7,79999,87,70000,32,0,40,9999,0.100000,0,0,0.000000,7,0.000000,0.000000,0.235930,0,0,0,0,0,0,0
7,79999,88,70000,63,30000,40,9999,0.100000,0,0,0.000000,7,0.000000,0.000000,1.829969,0,0,0,0,0,0,0
7,79999,89,70000,32,0,40,9999,0.100000,0,0,0.000000,7,0.000000,0.000000,0.487560,0,0,0,0,0,0,0
7,79999,90,70000,30,10000,40,9999,0.100000,0,0,0.000000,7,0.000000,0.000000,0.346448,0,0,0,0,0,0,0
7,79999,91,70000,30,10000,40,9999,0.100000,0,0,0.000000,7,0.000000,0.000000,0.535444,0,0,0,0,0,0,0
7,79999,92,70000,63,30000,49,9999,0.100000,0,0,0.000000,7,1.000000,0.000000,2.211072,0,0,0,0,0,0,0
7,79999,93,70000,30,10000,49,9999,0.100000,0,0,0.000000,7,2.000000,0.000000,10.787967,0,0,0,0,0,0,0
7,79999,94,70000,32,0,40,9999,0.100000,0,0,0.000000,7,0.000000,0.000000,0.690029,0,0,0,0,0,0,0
7,79999,95,70000,9,10000,40,9999,0.100000,0,0,0.000000,7,0.000000,0.000000,0.309803,0,0,0,0,0,0,0
7,79999,96,70000,40,30000,40,9999,0.100000,0,0,0.000000,7,0.000000,0.000000,0.210884,0,0,0,0,0,0,0
7,79999,97,70000,30,10000,40,9999,0.100000,0,0,0.000000,7,0.000000,0.000000,0.126082,0,0,0,0,0,0,0
7,79999,98,70000,30,10000,49,9999,0.100000,0,0,0.000000,7,13.000000,0.000000,14.863894,0,0,0,0,0,0,0
7,79999,99,70000,0,10000,40,9999,0.100000,0,0,0.000000,7,0.000000,0.000000,0.351594,0,0,0,0,0,0,0
8,89999,0,80000,0,10000,40,9999,0.100000,0,0,0.000000,7,0.000000,0.000000,0.950850,0,0,0,0,0,0,0
8,89999,1,80000,32,0,40,9999,0.100000,0,0,0.000000,7,0.000000,0.000000,0.471264,0,0,0,0,0,0,0
8,89999,2,80000,40,30000,40,9999,0.100000,0,0,0.000000,7,0.000000,0.000000,0.656274,0,0,0,0,0,0,0
8,89999,3,80000,32,0,49,9999,0.100000,0,0,0.000000,7,1.000000,0.000000,16.923112,0,0,0,0,0,0,0
8,89999,4,80000,32,0,40,9999,0.100000,0,0,0.000000,7,0.000000,0.000000,0.704908,0,0,0,0,0,0,0
8,89999,5,80000,63,30000,40,9999,0.100000,0,0,0.000000,7,0.000000,0.000000,0.390097,0,0,0,0,0,0,0
8,89999,6,80000,0,10000,40,9999,0.100000,0,0,0.000000,7,0.000000,0.000000,0.110550,0,0,0,0,0,0,0
8,89999,7,80000,69,10000,40,9999,0.100000,0,0,0.000000,7,0.000000,0.000000,0.150267,0,0,0,0,0,0,0
8,89999,8,80000,63,30000,49,9999,0.100000,0,0,0.000000,7,2.000000,0.000000,21.299277,0,0,0,0,0,0,0
8,89999,9,80000,32,0,99,9999,0.100000,0,0,34.210526,7,4.000000,0.000000,11.318750,0,0,1,0,0,0,0
8,89999,10,80000,40,30000,40,9999,0.100000,0,0,0.000000,7,0.000000,0.000000,0.105126,0,0,0,0,0,0,0
8,89999,11,80000,40,30000,40,9999,0.100000,0,0,0.000000,7,0.000000,0.000000,0.658778,0,0,0,0,0,0,0
8,89999,12,80000,69,10000,40,9999,0.100000,0,0,0.000000,7,0.000000,0.000000,0.138974,0,0,0,0,0,0,0
8,89999,13,80000,0,10000,40,9999,0.100000,0,0,0.000000,7,0.000000,0.000000,0.317232,0,0,0,0,0,0,0
8,89999,14,80000,40,30000,40,9999,0.100000,0,0,0.000000,7,0.000000,0.000000,0.142200,0,0,0,0,0,0,0
8,89999,15,80000,30,10000,40,9999,0.100000,0,0,0.000000,7,0.000000,0.000000,0.764527,0,0,0,0,0,0,0
8,89999,16,80000,9,10000,40,9999,0.100000,0,0,0.000000,7,0.000000,0.000000,0.611746,0,0,0,0,0,0,0
8,89999,17,80000,0,10000,40,9999,0.100000,0,0,0.000000,7,0.000000,0.000000,0.143627,0,0,0,0,0,0,0
8,89999,18,80000,40,30000,40,9999,0.100000,0,0,0.000000,7,0.000000,0.000000,0.783796,0,0,0,0,0,0,0
8,89999,19,80000,0,10000,40,9999,0.100000,0,0,0.000000,7,0.000000,0.000000,0.853909,0,0,0,0,0,0,0
8,89999,20,80000,40,30000,40,9999,0.100000,0,0,0.000000,7,0.000000,0.000000,0.999448,0,0,0,0,0,0,0
8,89999,21,80000,9,10000,40,9999,0.100000,0,0,0.000000,7,0.000000,0.000000,0.157229,0,0,0,0,0,0,0
8,89999,22,80000,30,10000,40,9999,0.100000,0,0,0.000000,7,0.000000,0.000000,0.342124,0,0,0,0,0,0,0
8,89999,23,80000,30,10000,40,9999,0.100000,0,0,0.000000,7,0.000000,0.000000,0.203225,0,0,0,0,0,0,0
8,89999,24,80000,32,0,40,9999,0.100000,0,0,0.000000,7,0.000000,0.000000,0.120879,0,0,0,0,0,0,0
8,89999,25,80000,63,30000,40,9999,0.100000,0,0,0.000000,7,0.000000,0.000000,0.209494,0,0,0,0,0,0,0
8,89999,26,80000,69,10000,40,9999,0.100000,0,0,0.000000,7,0.000000,0.000000,0.228041,0,0,0,0,0,0,0
8,89999,27,80000,0,10000,40,9999,0.100000,0,0,0.000000,7,0.000000,0.000000,1.796216,0,0,0,0,0,0,0
8,89999,28,80000,63,30000,40,9999,0.100000,0,0,0.000000,7,0.000000,0.000000,0.637456,0,0,0,0,0,0,0
8,89999,29,80000,0,10000,40,9999,0.100000,0,0,0.000000,7,0.000000,0.000000,0.518776,0,0,0,0,0,0,0
8,89999,30,80000,9,10000,40,9999,0.100000,0,0,0.000000,7,0.000000,0.000000,0.316716,0,0,0,0,0,0,0
8,89999,31,80000,63,30000,40,9999,0.100000,0,0,0.000000,7,0.000000,0.000000,10.281585,0,0,0,0,0,0,0
8,89999,32,80000,63,30000,40,9999,0.100000,0,0,0.000000,7,0.000000,0.000000,0.278806,0,0,0,0,0,0,0
8,89999,33,80000,63,30000,49,9999,0.100000,0,0,0.000000,7,2.000000,0.000000,5.679192,0,0,0,0,0,0,0
8,89999,34,80000,0,10000,40,9999,0.100000,0,0,0.000000,7,0.000000,0.000000,0.147353,0,0,0,0,0,0,0
8,89999,35,80000,63,30000,49,9999,0.100000,0,0,0.000000,7,1.000000,0.000000,15.632755,0,0,0,0,0,0,0
8,89999,36,80000,30,10000,40,9999,0.100000,0,0,0.000000,7,0.000000,0.000000,0.183856,0,0,0,0,0,0,0
8,89999,37,80000,63,30000,40,9999,0.100000,0,0,0.000000,7,0.000000,0.000000,0.302024,0,0,0,0,0,0,0
8,89999,38,80000,40,30000,49,9999,0.100000,0,0,0.000000,7,2.000000,0.000000,13.868065,0,0,0,0,0,0,0
8,89999,39,80000,69,10000,40,9999,0.100000,0,0,0.000000,7,0.000000,0.000000,1.603869,0,0,0,0,0,0,0
8,89999,40,80000,9,10000,49,9999,0.100000,0,0,0.000000,7,2.000000,0.000000,17.506016,0,0,0,0,0,0,0
8,89999,41,80000,69,10000,40,9999,0.100000,0,0,0.000000,7,0.000000,0.000000,0.601242,0,0,0,0,0,0,0
8,89999,42,80000,32,0,40,9999,0.100000,0,0,0.000000,7,0.000000,0.000000,0.143195,0,0,0,0,0,0,0
8,89999,43,80000,40,30000,40,9999,0.100000,0,0,0.000000,7,0.000000,0.000000,1.983521,0,0,0,0,0,0,0
8,89999,44,80000,30,10000,40,9999,0.100000,0,0,0.000000,7,0.000000,0.000000,0.674266,0,0,0,0,0,0,0
8,89999,45,80000,30,10000,40,9999,0.100000,0,0,0.000000,7,0.000000,0.000000,0.102641,0,0,0,0,0,0,0
8,89999,46,80000,9,10000,49,9999,0.100000,0,0,0.000000,7,9.000000,0.000000,12.911655,0,0,0,0,0,0,0
8,89999,47,80000,63,30000,49,9999,0.100000,0,0,0.000000,7,6.000000,0.000000,13.514023,0,0,0,0,0,0,0
8,89999,48,80000,30,10000,40,9999,0.100000,0,0,0.000000,7,0.000000,0.000000,0.144774,0,0,0,0,0,0,0
8,89999,49,80000,32,0,40,9999,0.100000,0,0,0.000000,7,0.000000,0.000000,11.591934,0,0,0,0,0,0,0
8,89999,50,80000,9,10000,49,9999,0.100000,0,0,0.000000,7,1.000000,0.000000,6.126672,0,0,0,0,0,0,0
8,89999,51,80000,9,10000,40,9999,0.100000,0,0,0.000000,7,0.000000,0.000000,0.137629,0,0,0,0,0,0,0
8,89999,52,80000,32,0,40,9999,0.100000,0,0,0.000000,7,0.000000,0.000000,1.316474,0,0,0,0,0,0,0
8,89999,53,80000,69,10000,40,9999,0.100000,0,0,0.000000,7,0.000000,0.000000,0.673278,0,0,0,0,0,0,0
8,89999,54,80000,32,0,49,9999,0.100000,0,0,0.000000,7,1.000000,0.000000,3.379235,0,0,0,0,0,0,0
8,89999,55,80000,40,30000,40,9999,0.100000,0,0,0.000000,7,0.000000,0.000000,25.145770,0,0,0,0,0,0,0
8,89999,56,80000,40,30000,40,9999,0.100000,0,0,0.000000,7,0.000000,0.000000,0.676228,0,0,0,0,0,0,0
8,89999,57,80000,40,30000,40,9999,0.100000,0,0,0.000000,7,0.000000,0.000000,0.473627,0,0,0,0,0,0,0
8,89999,58,80000,32,0,40,9999,0.100000,0,0,0.000000,7,0.000000,0.000000,0.101486,0,0,0,0,0,0,0
8,89999,59,80000,9,10000,40,9999,0.100000,0,0,0.000000,7,0.000000,0.000000,0.578968,0,0,0,0,0,0,0
8,89999,60,80000,30,10000,40,9999,0.100000,0,0,0.000000,7,0.000000,0.000000,0.771674,0,0,0,0,0,0,0
8,89999,61,80000,30,10000,40,9999,0.100000,0,0,0.000000,7,0.000000,0.000000,1.929110,0,0,0,0,0,0,0
8,89999,62,80000,63,30000,40,9999,0.100000,0,0,0.000000,7,0.000000,0.000000,0.382436,0,0,0,0,0,0,0
8,89999,63,80000,32,0,40,9999,0.100000,0,0,0.000000,7,0.000000,0.000000,0.265707,0,0,0,0,0,0,0
8,89999,64,80000,40,30000,40,9999,0.100000,0,0,0.000000,7,0.000000,0.000000,0.620971,0,0,0,0,0,0,0
8,89999,65,80000,30,10000,40,9999,0.100000,0,0,0.000000,7,0.000000,0.000000,0.215163,0,0,0,0,0,0,0
8,89999,66,80000,69,10000,40,9999,0.100000,0,0,0.000000,7,0.000000,0.000000,0.097950,0,0,0,0,0,0,0
8,89999,67,80000,30,10000,40,9999,0.100000,0,0,0.000000,7,0.000000,0.000000,0.230668,0,0,0,0,0,0,0
8,89999,68,80000,30,10000,49,9999,0.100000,0,0,0.000000,7,1.000000,0.000000,13.329364,0,0,0,0,0,0,0
8,89999,69,80000,69,10000,40,9999,0.100000,0,0,0.000000,7,0.000000,0.000000,2.709872,0,0,0,0,0,0,0
8,89999,70,80000,32,0,40,9999,0.100000,0,0,0.000000,7,0.000000,0.000000,0.849588,0,0,0,0,0,0,0
8,89999,71,80000,0,10000,40,9999,0.100000,0,0,0.000000,7,0.000000,0.000000,0.224677,0,0,0,0,0,0,0
8,89999,72,80000,0,10000,49,9999,0.100000,0,0,0.000000,7,1.000000,0.000000,3.979098,0,0,0,0,0,0,0
8,89999,73,80000,9,10000,40,9999,0.100000,0,0,0.000000,7,0.000000,0.000000,0.280246,0,0,0,0,0,0,0
8,89999,74,80000,32,0,40,9999,0.100000,0,0,0.000000,7,0.000000,0.000000,1.115029,0,0,0,0,0,0,0
8,89999,75,80000,9,10000,40,9999,0.100000,0,0,0.000000,7,0.000000,0.000000,0.097673,0,0,0,0,0,0,0
8,89999,76,80000,9,10000,40,9999,0.100000,0,0,0.000000,7,0.000000,0.000000,0.694012,0,0,0,0,0,0,0
8,89999,77,80000,69,10000,99,9999,0.100000,0,0,34.210526,7,6.000000,0.000000,15.096265,0,0,1,0,0,0,0
8,89999,78,80000,9,10000,40,9999,0.100000,0,0,0.000000,7,0.000000,0.000000,1.908976,0,0,0,0,0,0,0
8,89999,79,80000,63,30000,49,9999,0.100000,0,0,0.000000,7,1.000000,0.000000,9.735333,0,0,0,0,0,0,0
8,89999,80,80000,63,30000,40,9999,0.100000,0,0,0.000000,7,0.000000,0.000000,0.269185,0,0,0,0,0,0,0
8,89999,81,80000,63,30000,49,9999,0.100000,0,0,0.000000,7,1.000000,0.000000,9.851916,0,0,0,0,0,0,0
8,89999,82,80000,0,10000,40,9999,0.100000,0,0,0.000000,7,0.000000,0.000000,0.880055,0,0,0,0,0,0,0
8,89999,83,80000,30,10000,40,9999,0.100000,0,0,0.000000,7,0.000000,0.000000,10.052038,0,0,0,0,0,0,0
8,89999,84,80000,32,0,49,9999,0.100000,0,0,0.000000,7,1.000000,0.000000,20.543410,0,0,0,0,0,0,0
8,89999,85,80000,30,10000,49,9999,0.100000,0,0,0.000000,7,6.000000,0.000000,13.474473,0,0,0,0,0,0,0
8,89999,86,80000,30,10000,40,9999,0.100000,0,0,0.000000,7,0.000000,0.000000,0.593503,0,0,0,0,0,0,0
8,89999,87,80000,69,10000,40,9999,0.100000,0,0,0.000000,7,0.000000,0.000000,0.261100,0,0,0,0,0,0,0
8,89999,88,80000,32,0,40,9999,0.100000,0,0,0.000000,7,0.000000,0.000000,1.931685,0,0,0,0,0,0,0
8,89999,89,80000,69,10000,40,9999,0.100000,0,0,0.000000,7,0.000000,0.000000,0.537122,0,0,0,0,0,0,0
8,89999,90,80000,9,10000,40,9999,0.100000,0,0,0.000000,7,0.000000,0.000000,0.360063,0,0,0,0,0,0,0
8,89999,91,80000,0,10000,40,9999,0.100000,0,0,0.000000,7,0.000000,0.000000,0.421327,0,0,0,0,0,0,0
8,89999,92,80000,32,0,49,9999,0.100000,0,0,0.000000,7,2.000000,0.000000,4.798329,0,0,0,0,0,0,0
8,89999,93,80000,32,0,49,9999,0.100000,0,0,0.000000,7,2.000000,0.000000,21.436295,0,0,0,0,0,0,0
8,89999,94,80000,69,10000,40,9999,0.100000,0,0,0.000000,7,0.000000,0.000000,5.806678,0,0,0,0,0,0,0
8,89999,95,80000,63,30000,40,9999,0.100000,0,0,0.000000,7,0.000000,0.000000,0.324901,0,0,0,0,0,0,0
8,89999,96,80000,9,10000,40,9999,0.100000,0,0,0.000000,7,0.000000,0.000000,0.559702,0,0,0,0,0,0,0
8,89999,97,80000,30,10000,40,9999,0.100000,0,0,0.000000,7,0.000000,0.000000,0.121272,0,0,0,0,0,0,0
8,89999,98,80000,0,10000,49,9999,0.100000,0,0,0.000000,7,2.000000,0.000000,6.340989,0,0,0,0,0,0,0
8,89999,99,80000,69,10000,40,9999,0.100000,0,0,0.000000,7,0.000000,0.000000,0.375560,0,0,0,0,0,0,0
9,99999,0,90000,69,10000,40,9999,0.100000,0,0,0.000000,7,0.000000,0.000000,0.226294,0,0,0,0,0,0,0
9,99999,1,90000,69,10000,40,9999,0.100000,0,0,0.000000,7,0.000000,0.000000,0.347139,0,0,0,0,0,0,0
9,99999,2,90000,69,10000,40,9999,0.100000,0,0,0.000000,7,0.000000,0.000000,1.444201,0,0,0,0,0,0,0
9,99999,3,90000,40,30000,49,9999,0.100000,0,0,0.000000,7,1.000000,0.000000,12.530587,0,0,0,0,0,0,0
9,99999,4,90000,69,10000,40,9999,0.100000,0,0,0.000000,7,0.000000,0.000000,0.477511,0,0,0,0,0,0,0
9,99999,5,90000,9,10000,40,9999,0.100000,0,0,0.000000,7,0.000000,0.000000,0.211217,0,0,0,0,0,0,0
9,99999,6,90000,63,30000,40,9999,0.100000,0,0,0.000000,7,0.000000,0.000000,0.121733,0,0,0,0,0,0,0
9,99999,7,90000,32,0,40,9999,0.100000,0,0,0.000000,7,0.000000,0.000000,0.145631,0,0,0,0,0,0,0
9,99999,8,90000,0,10000,40,9999,0.100000,0,0,0.000000,7,0.000000,0.000000,22.475135,0,0,0,0,0,0,0
9,99999,9,90000,0,10000,9,9999,0.100000,0,0,34.210526,7,2.000000,0.000000,10.673670,0,0,0,1,0,0,0
9,99999,10,90000,9,10000,40,9999,0.100000,0,0,0.000000,7,0.000000,0.000000,0.105766,0,0,0,0,0,0,0
9,99999,11,90000,40,30000,40,9999,0.100000,0,0,0.000000,7,0.000000,0.000000,1.272007,0,0,0,0,0,0,0
9,99999,12,90000,0,10000,40,9999,0.100000,0,0,0.000000,7,0.000000,0.000000,0.128433,0,0,0,0,0,0,0
9,99999,13,90000,69,10000,40,9999,0.100000,0,0,0.000000,7,0.000000,0.000000,0.837456,0,0,0,0,0,0,0
9,99999,14,90000,69,10000,9,9999,0.100000,0,0,34.210526,7,2.000000,0.000000,4.455752,0,0,0,1,0,0,0
9,99999,15,90000,63,30000,40,9999,0.100000,0,0,0.000000,7,0.000000,0.000000,0.694096,0,0,0,0,0,0,0
9,99999,16,90000,63,30000,40,9999,0.100000,0,0,0.000000,7,0.000000,0.000000,5.695830,0,0,0,0,0,0,0
9,99999,17,90000,69,10000,40,9999,0.100000,0,0,0.000000,7,0.000000,0.000000,0.813064,0,0,0,0,0,0,0
9,99999,18,90000,9,10000,40,9999,0.100000,0,0,0.000000,7,0.000000,0.000000,0.585332,0,0,0,0,0,0,0
9,99999,19,90000,63,30000,40,9999,0.100000,0,0,0.000000,7,0.000000,0.000000,0.977942,0,0,0,0,0,0,0
9,99999,20,90000,0,10000,40,9999,0.100000,0,0,0.000000,7,0.000000,0.000000,0.569464,0,0,0,0,0,0,0
9,99999,21,90000,32,0,40,9999,0.100000,0,0,0.000000,7,0.000000,0.000000,0.187602,0,0,0,0,0,0,0
9,99999,22,90000,63,30000,40,9999,0.100000,0,0,0.000000,7,0.000000,0.000000,0.451765,0,0,0,0,0,0,0
9,99999,23,90000,0,10000,40,9999,0.100000,0,0,0.000000,7,0.000000,0.000000,0.198883,0,0,0,0,0,0,0
9,99999,24,90000,30,10000,40,9999,0.100000,0,0,0.000000,7,0.000000,0.000000,0.174183,0,0,0,0,0,0,0
9,99999,25,90000,9,10000,40,9999,0.100000,0,0,0.000000,7,0.000000,0.000000,0.156156,0,0,0,0,0,0,0
9,99999,26,90000,40,30000,40,9999,0.100000,0,0,0.000000,7,0.000000,0.000000,0.208853,0,0,0,0,0,0,0
9,99999,27,90000,63,30000,40,9999,0.100000,0,0,0.000000,7,0.000000,0.000000,0.879596,0,0,0,0,0,0,0
9,99999,28,90000,9,10000,40,9999,0.100000,0,0,0.000000,7,0.000000,0.000000,0.608998,0,0,0,0,0,0,0
9,99999,29,90000,63,30000,40,9999,0.100000,0,0,0.000000,7,0.000000,0.000000,0.685265,0,0,0,0,0,0,0
9,99999,30,90000,9,10000,40,9999,0.100000,0,0,0.000000,7,0.000000,0.000000,0.216689,0,0,0,0,0,0,0
9,99999,31,90000,40,30000,40,9999,0.100000,0,0,0.000000,7,0.000000,0.000000,3.693386,0,0,0,0,0,0,0
9,99999,32,90000,40,30000,40,9999,0.100000,0,0,0.000000,7,0.000000,0.000000,0.400318,0,0,0,0,0,0,0
9,99999,33,90000,0,10000,49,9999,0.100000,0,0,0.000000,7,12.000000,0.000000,22.333100,0,0,0,0,0,0,0
9,99999,34,90000,32,0,40,9999,0.100000,0,0,0.000000,7,0.000000,0.000000,0.176494,0,0,0,0,0,0,0
9,99999,35,90000,69,10000,49,9999,0.100000,0,0,0.000000,7,5.000000,0.000000,14.878483,0,0,0,0,0,0,0
9,99999,36,90000,32,0,40,9999,0.100000,0,0,0.000000,7,0.000000,0.000000,0.314374,0,0,0,0,0,0,0
9,99999,37,90000,32,0,40,9999,0.100000,0,0,0.000000,7,0.000000,0.000000,0.403524,0,0,0,0,0,0,0
9,99999,38,90000,30,10000,49,9999,0.100000,0,0,0.000000,7,2.000000,0.000000,6.932992,0,0,0,0,0,0,0
9,99999,39,90000,32,0,40,9999,0.100000,0,0,0.000000,7,0.000000,0.000000,1.408551,0,0,0,0,0,0,0
9,99999,40,90000,69,10000,49,9999,0.100000,0,0,0.000000,7,4.000000,0.000000,14.683440,0,0,0,0,0,0,0
9,99999,41,90000,0,10000,40,9999,0.100000,0,0,0.000000,7,0.000000,0.000000,0.722568,0,0,0,0,0,0,0
9,99999,42,90000,63,30000,40,9999,0.100000,0,0,0.000000,7,0.000000,0.000000,0.144446,0,0,0,0,0,0,0
9,99999,43,90000,40,30000,49,9999,0.100000,0,0,0.000000,7,1.000000,0.000000,5.249222,0,0,0,0,0,0,0
9,99999,44,90000,30,10000,40,9999,0.100000,0,0,0.000000,7,0.000000,0.000000,0.548639,0,0,0,0,0,0,0
9,99999,45,90000,9,10000,40,9999,0.100000,0,0,0.000000,7,0.000000,0.000000,0.086711,0,0,0,0,0,0,0
9,99999,46,90000,9,10000,49,9999,0.100000,0,0,0.000000,7,5.000000,0.000000,5.772958,0,0,0,0,0,0,0
9,99999,47,90000,30,10000,40,9999,0.100000,0,0,0.000000,7,0.000000,0.000000,1.666142,0,0,0,0,0,0,0
9,99999,48,90000,69,10000,40,9999,0.100000,0,0,0.000000,7,0.000000,0.000000,0.138375,0,0,0,0,0,0,0
9,99999,49,90000,30,10000,49,9999,0.100000,0,0,0.000000,7,1.000000,0.000000,2.364633,0,0,0,0,0,0,0
9,99999,50,90000,0,10000,49,9999,0.100000,0,0,0.000000,7,1.000000,0.000000,9.150511,0,0,0,0,0,0,0
9,99999,51,90000,32,0,40,9999,0.100000,0,0,0.000000,7,0.000000,0.000000,0.134731,0,0,0,0,0,0,0
9,99999,52,90000,63,30000,40,9999,0.100000,0,0,0.000000,7,0.000000,0.000000,0.554145,0,0,0,0,0,0,0
9,99999,53,90000,40,30000,40,9999,0.100000,0,0,0.000000,7,0.000000,0.000000,0.469603,0,0,0,0,0,0,0
9,99999,54,90000,32,0,40,9999,0.100000,0,0,0.000000,7,0.000000,0.000000,0.992824,0,0,0,0,0,0,0
9,99999,55,90000,9,10000,40,9999,0.100000,0,0,0.000000,7,0.000000,0.000000,24.468468,0,0,0,0,0,0,0
9,99999,56,90000,9,10000,40,9999,0.100000,0,0,0.000000,7,0.000000,0.000000,0.593479,0,0,0,0,0,0,0
9,99999,57,90000,9,10000,40,9999,0.100000,0,0,0.000000,7,0.000000,0.000000,0.227207,0,0,0,0,0,0,0
9,99999,58,90000,0,10000,40,9999,0.100000,0,0,0.000000,7,0.000000,0.000000,0.114641,0,0,0,0,0,0,0
9,99999,59,90000,69,10000,40,9999,0.100000,0,0,0.000000,7,0.000000,0.000000,1.131528,0,0,0,0,0,0,0
9,99999,60,90000,30,10000,49,9999,0.100000,0,0,0.000000,7,4.000000,0.000000,5.427409,0,0,0,0,0,0,0
9,99999,61,90000,63,30000,40,9999,0.100000,0,0,0.000000,7,0.000000,0.000000,0.971009,0,0,0,0,0,0,0
9,99999,62,90000,69,10000,40,9999,0.100000,0,0,0.000000,7,0.000000,0.000000,0.559207,0,0,0,0,0,0,0
9,99999,63,90000,9,10000,40,9999,0.100000,0,0,0.000000,7,0.000000,0.000000,2.575216,0,0,0,0,0,0,0
9,99999,64,90000,32,0,49,9999,0.100000,0,0,0.000000,7,4.000000,0.000000,4.728092,0,0,0,0,0,0,0
9,99999,65,90000,32,0,40,9999,0.100000,0,0,0.000000,7,0.000000,0.000000,0.183751,0,0,0,0,0,0,0
9,99999,66,90000,63,30000,40,9999,0.100000,0,0,0.000000,7,0.000000,0.000000,0.083867,0,0,0,0,0,0,0
9,99999,67,90000,63,30000,40,9999,0.100000,0,0,0.000000,7,0.000000,0.000000,0.232077,0,0,0,0,0,0,0
9,99999,68,90000,32,0,49,9999,0.100000,0,0,0.000000,7,1.000000,0.000000,9.300972,0,0,0,0,0,0,0
9,99999,69,90000,0,10000,40,9999,0.100000,0,0,0.000000,7,0.000000,0.000000,2.935497,0,0,0,0,0,0,0
9,99999,70,90000,32,0,40,9999,0.100000,0,0,0.000000,7,0.000000,0.000000,0.148218,0,0,0,0,0,0,0
9,99999,71,90000,9,10000,40,9999,0.100000,0,0,0.000000,7,0.000000,0.000000,0.200492,0,0,0,0,0,0,0
9,99999,72,90000,0,10000,0,9999,0.100000,0,0,0.000000,7,0.000000,0.000000,0.504577,0,0,0,0,1,0,0
9,99999,73,90000,32,0,40,9999,0.100000,0,0,0.000000,7,0.000000,0.000000,0.412137,0,0,0,0,0,0,0
9,99999,74,90000,63,30000,40,9999,0.100000,0,0,0.000000,7,0.000000,0.000000,1.144284,0,0,0,0,0,0,0
9,99999,75,90000,9,10000,40,9999,0.100000,0,0,0.000000,7,0.000000,0.000000,0.133813,0,0,0,0,0,0,0
9,99999,76,90000,9,10000,40,9999,0.100000,0,0,0.000000,7,0.000000,0.000000,0.385529,0,0,0,0,0,0,0
9,99999,77,90000,40,30000,40,9999,0.100000,0,0,0.000000,7,0.000000,0.000000,0.749204,0,0,0,0,0,0,0
9,99999,78,90000,63,30000,40,9999,0.100000,0,0,0.000000,7,0.000000,0.000000,0.980068,0,0,0,0,0,0,0
9,99999,79,90000,30,10000,49,9999,0.100000,0,0,0.000000,7,2.000000,0.000000,7.746488,0,0,0,0,0,0,0
9,99999,80,90000,0,10000,40,9999,0.100000,0,0,0.000000,7,0.000000,0.000000,0.475708,0,0,0,0,0,0,0
9,99999,81,90000,0,10000,40,9999,0.100000,0,0,0.000000,7,0.000000,0.000000,4.860307,0,0,0,0,0,0,0
9,99999,82,90000,0,10000,40,9999,0.100000,0,0,0.000000,7,0.000000,0.000000,1.206097,0,0,0,0,0,0,0
9,99999,83,90000,32,0,49,9999,0.100000,0,0,0.000000,7,1.000000,0.000000,9.419982,0,0,0,0,0,0,0
9,99999,84,90000,32,0,49,9999,0.100000,0,0,0.000000,7,3.000000,0.000000,3.492808,0,0,0,0,0,0,0
9,99999,85,90000,40,30000,40,9999,0.100000,0,0,0.000000,7,0.000000,0.000000,2.133105,0,0,0,0,0,0,0
9,99999,86,90000,69,10000,40,9999,0.100000,0,0,0.000000,7,0.000000,0.000000,0.569441,0,0,0,0,0,0,0
9,99999,87,90000,0,10000,40,9999,0.100000,0,0,0.000000,7,0.000000,0.000000,0.249195,0,0,0,0,0,0,0
9,99999,88,90000,40,30000,40,9999,0.100000,0,0,0.000000,7,0.000000,0.000000,0.998639,0,0,0,0,0,0,0
9,99999,89,90000,69,10000,40,9999,0.100000,0,0,0.000000,7,0.000000,0.000000,1.619590,0,0,0,0,0,0,0
9,99999,90,90000,9,10000,40,9999,0.100000,0,0,0.000000,7,0.000000,0.000000,0.349313,0,0,0,0,0,0,0
9,99999,91,90000,32,0,40,9999,0.100000,0,0,0.000000,7,0.000000,0.000000,0.301677,0,0,0,0,0,0,0
9,99999,92,90000,30,10000,49,9999,0.100000,0,0,0.000000,7,7.000000,0.000000,14.151736,0,0,0,0,0,0,0
9,99999,93,90000,32,0,40,9999,0.100000,0,0,0.000000,7,0.000000,0.000000,18.214851,0,0,0,0,0,0,0
9,99999,94,90000,0,10000,40,9999,0.100000,0,0,0.000000,7,0.000000,0.000000,2.679243,0,0,0,0,0,0,0
9,99999,95,90000,63,30000,40,9999,0.100000,0,0,0.000000,7,0.000000,0.000000,0.516955,0,0,0,0,0,0,0
9,99999,96,90000,32,0,40,9999,0.100000,0,0,0.000000,7,0.000000,0.000000,0.444938,0,0,0,0,0,0,0
9,99999,97,90000,32,0,40,9999,0.100000,0,0,0.000000,7,0.000000,0.000000,0.120051,0,0,0,0,0,0,0
9,99999,98,90000,0,10000,49,9999,0.100000,0,0,0.000000,7,1.000000,0.000000,6.199392,0,0,0,0,0,0,0
9,99999,99,90000,69,10000,40,9999,0.100000,0,0,0.000000,7,0.000000,0.000000,0.813169,0,0,0,0,0,0,0
10,109999,0,100000,9,10000,40,9999,0.100000,0,0,0.000000,7,0.000000,0.000000,0.088751,0,0,0,0,0,0,0
10,109999,1,100000,0,10000,40,9999,0.100000,0,0,0.000000,7,0.000000,0.000000,0.242222,0,0,0,0,0,0,0
10,109999,2,100000,30,10000,40,9999,0.100000,0,0,0.000000,7,0.000000,0.000000,0.748830,0,0,0,0,0,0,0
10,109999,3,100000,0,10000,49,9999,0.100000,0,0,0.000000,7,1.000000,0.000000,10.965920,0,0,0,0,0,0,0
10,109999,4,100000,69,10000,40,9999,0.100000,0,0,0.000000,7,0.000000,0.000000,0.465818,0,0,0,0,0,0,0
10,109999,5,100000,30,10000,40,9999,0.100000,0,0,0.000000,7,0.000000,0.000000,0.300147,0,0,0,0,0,0,0
10,109999,6,100000,69,10000,40,9999,0.100000,0,0,0.000000,7,0.000000,0.000000,0.119750,0,0,0,0,0,0,0
10,109999,7,100000,40,30000,40,9999,0.100000,0,0,0.000000,7,0.000000,0.000000,0.150812,0,0,0,0,0,0,0
10,109999,8,100000,0,10000,49,9999,0.100000,0,0,0.000000,7,2.000000,0.000000,13.151374,0,0,0,0,0,0,0
10,109999,9,100000,69,10000,49,9999,0.100000,0,0,0.000000,7,6.000000,0.000000,11.756176,0,0,0,0,0,0,0
10,109999,10,100000,0,10000,40,9999,0.100000,0,0,0.000000,7,0.000000,0.000000,0.110076,0,0,0,0,0,0,0
10,109999,11,100000,0,10000,40,9999,0.100000,0,0,0.000000,7,0.000000,0.000000,0.509362,0,0,0,0,0,0,0
10,109999,12,100000,63,30000,40,9999,0.100000,0,0,0.000000,7,0.000000,0.000000,0.127611,0,0,0,0,0,0,0
10,109999,13,100000,9,10000,40,9999,0.100000,0,0,0.000000,7,0.000000,0.000000,0.448147,0,0,0,0,0,0,0
10,109999,14,100000,40,30000,49,9999,0.100000,0,0,0.000000,7,5.000000,0.000000,11.637750,0,0,0,0,0,0,0
10,109999,15,100000,32,0,0,9999,0.100000,0,0,0.000000,7,0.000000,0.000000,0.975032,0,0,0,0,0,7,0
10,109999,16,100000,0,10000,40,9999,0.100000,0,0,0.000000,7,0.000000,0.000000,2.708640,0,0,0,0,0,0,0
10,109999,17,100000,32,0,40,9999,0.100000,0,0,0.000000,7,0.000000,0.000000,0.293955,0,0,0,0,0,0,0
10,109999,18,100000,40,30000,40,9999,0.100000,0,0,0.000000,7,0.000000,0.000000,1.167725,0,0,0,0,0,0,0
10,109999,19,100000,9,10000,40,9999,0.100000,0,0,0.000000,7,0.000000,0.000000,1.050393,0,0,0,0,0,0,0
10,109999,20,100000,63,30000,40,9999,0.100000,0,0,0.000000,7,0.000000,0.000000,0.831226,0,0,0,0,0,0,0
10,109999,21,100000,40,30000,40,9999,0.100000,0,0,0.000000,7,0.000000,0.000000,0.170087,0,0,0,0,0,0,0
10,109999,22,100000,0,10000,40,9999,0.100000,0,0,0.000000,7,0.000000,0.000000,0.254359,0,0,0,0,0,0,0
10,109999,23,100000,30,10000,40,9999,0.100000,0,0,0.000000,7,0.000000,0.000000,0.197619,0,0,0,0,0,0,0
10,109999,24,100000,9,10000,40,9999,0.100000,0,0,0.000000,7,0.000000,0.000000,0.296639,0,0,0,0,0,0,0
10,109999,25,100000,9,10000,40,9999,0.100000,0,0,0.000000,7,0.000000,0.000000,0.222845,0,0,0,0,0,0,0
10,109999,26,100000,63,30000,49,9999,0.100000,0,0,0.000000,7,2.000000,0.000000,5.998859,0,0,0,0,0,0,0
10,109999,27,100000,40,30000,40,9999,0.100000,0,0,0.000000,7,0.000000,0.000000,0.673219,0,0,0,0,0,0,0
10,109999,28,100000,9,10000,40,9999,0.100000,0,0,0.000000,7,0.000000,0.000000,2.065516,0,0,0,0,0,0,0
10,109999,29,100000,69,10000,40,9999,0.100000,0,0,0.000000,7,0.000000,0.000000,0.359947,0,0,0,0,0,0,0
10,109999,30,100000,63,30000,40,9999,0.100000,0,0,0.000000,7,0.000000,0.000000,0.137778,0,0,0,0,0,0,0
10,109999,31,100000,30,10000,40,9999,0.100000,0,0,0.000000,7,0.000000,0.000000,3.040695,0,0,0,0,0,0,0
10,109999,32,100000,40,30000,40,9999,0.100000,0,0,0.000000,7,0.000000,0.000000,0.752558,0,0,0,0,0,0,0
10,109999,33,100000,32,0,40,9999,0.100000,0,0,0.000000,7,0.000000,0.000000,4.311355,0,0,0,0,0,0,0
10,109999,34,100000,69,10000,40,9999,0.100000,0,0,0.000000,7,0.000000,0.000000,0.157725,0,0,0,0,0,0,0
10,109999,35,100000,69,10000,40,9999,0.100000,0,0,0.000000,7,0.000000,0.000000,0.615368,0,0,0,0,0,0,0
10,109999,36,100000,0,10000,40,9999,0.100000,0,0,0.000000,7,0.000000,0.000000,0.164480,0,0,0,0,0,0,0
10,109999,37,100000,0,10000,40,9999,0.100000,0,0,0.000000,7,0.000000,0.000000,0.310630,0,0,0,0,0,0,0
10,109999,38,100000,32,0,49,9999,0.100000,0,0,0.000000,7,2.000000,0.000000,8.615058,0,0,0,0,0,0,0
10,109999,39,100000,63,30000,40,9999,0.100000,0,0,0.000000,7,0.000000,0.000000,1.500882,0,0,0,0,0,0,0
10,109999,40,100000,9,10000,49,9999,0.100000,0,0,0.000000,7,1.000000,0.000000,17.874881,0,0,0,0,0,0,0
10,109999,41,100000,63,30000,40,9999,0.100000,0,0,0.000000,7,0.000000,0.000000,0.808555,0,0,0,0,0,0,0
10,109999,42,100000,0,10000,40,9999,0.100000,0,0,0.000000,7,0.000000,0.000000,0.138202,0,0,0,0,0,0,0
10,109999,43,100000,40,30000,49,9999,0.100000,0,0,0.000000,7,1.000000,0.000000,3.549968,0,0,0,0,0,0,0
10,109999,44,100000,32,0,40,9999,0.065000,0,0,0.000000,7,0.000000,0.000000,0.315019,0,0,0,0,0,0,0
10,109999,45,100000,9,10000,40,9999,0.135000,0,0,0.000000,7,0.000000,0.000000,0.024014,0,0,0,0,0,0,0
10,109999,46,100000,69,10000,40,9999,0.100000,0,0,0.000000,7,0.000000,0.000000,0.316347,0,0,0,0,0,0,0
10,109999,47,100000,69,10000,0,9999,0.100000,0,0,0.000000,7,0.000000,0.000000,7.195842,0,0,0,0,0,7,0
10,109999,48,100000,40,30000,40,9999,0.100000,0,0,0.000000,7,0.000000,0.000000,0.137697,0,0,0,0,0,0,0
10,109999,49,100000,63,30000,40,9999,0.100000,0,0,0.000000,7,0.000000,0.000000,0.183585,0,0,0,0,0,0,0
10,109999,50,100000,32,0,49,9999,0.100000,0,0,0.000000,7,1.000000,0.000000,6.151430,0,0,0,0,0,0,0
10,109999,51,100000,63,30000,40,9999,0.100000,0,0,0.000000,7,0.000000,0.000000,0.140572,0,0,0,0,0,0,0
10,109999,52,100000,32,0,40,9999,0.100000,0,0,0.000000,7,0.000000,0.000000,0.498683,0,0,0,0,0,0,0
10,109999,53,100000,40,30000,40,9999,0.100000,0,0,0.000000,7,0.000000,0.000000,0.428230,0,0,0,0,0,0,0
10,109999,54,100000,69,10000,40,9999,0.100000,0,0,0.000000,7,0.000000,0.000000,0.996418,0,0,0,0,0,0,0
10,109999,55,100000,0,10000,40,9999,0.100000,0,0,0.000000,7,0.000000,0.000000,2.496394,0,0,0,0,0,0,0
10,109999,56,100000,69,10000,49,9999,0.100000,0,0,0.000000,7,2.000000,0.000000,14.863649,0,0,0,0,0,0,0
10,109999,57,100000,32,0,40,9999,0.100000,0,0,0.000000,7,0.000000,0.000000,0.348655,0,0,0,0,0,0,0
10,109999,58,100000,0,10000,40,9999,0.100000,0,0,0.000000,7,0.000000,0.000000,0.093694,0,0,0,0,0,0,0
10,109999,59,100000,69,10000,40,9999,0.100000,0,0,0.000000,7,0.000000,0.000000,1.728661,0,0,0,0,0,0,0
10,109999,60,100000,32,0,49,9999,0.100000,0,0,0.000000,7,4.000000,0.000000,6.984265,0,0,0,0,0,0,0
10,109999,61,100000,0,10000,40,9999,0.100000,0,0,0.000000,7,0.000000,0.000000,0.808515,0,0,0,0,0,0,0
10,109999,62,100000,69,10000,40,9999,0.100000,0,0,0.000000,7,0.000000,0.000000,0.752590,0,0,0,0,0,0,0
10,109999,63,100000,30,10000,40,9999,0.100000,0,0,0.000000,7,0.000000,0.000000,0.192718,0,0,0,0,0,0,0
10,109999,64,100000,9,10000,49,9999,0.100000,0,0,0.000000,7,4.000000,0.000000,7.422270,0,0,0,0,0,0,0
10,109999,65,100000,30,10000,40,9999,0.100000,0,0,0.000000,7,0.000000,0.000000,0.344997,0,0,0,0,0,0,0
10,109999,66,100000,0,10000,40,9999,0.100000,0,0,0.000000,7,0.000000,0.000000,0.084745,0,0,0,0,0,0,0
10,109999,67,100000,9,10000,40,9999,0.100000,0,0,0.000000,7,0.000000,0.000000,0.233538,0,0,0,0,0,0,0
10,109999,68,100000,30,10000,49,9999,0.100000,0,0,0.000000,7,1.000000,0.000000,16.935533,0,0,0,0,0,0,0
10,109999,69,100000,63,30000,40,9999,0.100000,0,0,0.000000,7,0.000000,0.000000,2.208924,0,0,0,0,0,0,0
10,109999,70,100000,63,30000,40,9999,0.100000,0,0,0.000000,7,0.000000,0.000000,0.119582,0,0,0,0,0,0,0
10,109999,71,100000,30,10000,40,9999,0.100000,0,0,0.000000,7,0.000000,0.000000,0.200294,0,0,0,0,0,0,0
10,109999,72,100000,0,10000,40,9999,0.100000,0,0,0.000000,7,0.000000,0.000000,0.180395,0,0,0,0,0,0,0
10,109999,73,100000,9,10000,40,9999,0.100000,0,0,0.000000,7,0.000000,0.000000,0.670121,0,0,0,0,0,0,0
10,109999,74,100000,0,10000,0,9999,0.100000,0,0,0.000000,7,0.000000,0.000000,4.971006,0,0,0,0,0,7,0
10,109999,75,100000,40,30000,40,9999,0.100000,0,0,0.000000,7,0.000000,0.000000,0.112901,0,0,0,0,0,0,0
10,109999,76,100000,9,10000,40,9999,0.100000,0,0,0.000000,7,0.000000,0.000000,0.422176,0,0,0,0,0,0,0
10,109999,77,100000,32,0,40,9999,0.100000,0,0,0.000000,7,0.000000,0.000000,0.241086,0,0,0,0,0,0,0
10,109999,78,100000,63,30000,40,9999,0.100000,0,0,0.000000,7,0.000000,0.000000,0.495523,0,0,0,0,0,0,0
10,109999,79,100000,63,30000,49,9999,0.100000,0,0,0.000000,7,1.000000,0.000000,8.231605,0,0,0,0,0,0,0
10,109999,80,100000,32,0,40,9999,0.100000,0,0,0.000000,7,0.000000,0.000000,0.487550,0,0,0,0,0,0,0
10,109999,81,100000,0,10000,49,9999,0.100000,0,0,0.000000,7,1.000000,0.000000,6.943856,0,0,0,0,0,0,0
10,109999,82,100000,30,10000,0,9999,0.100000,0,0,0.000000,7,0.000000,0.000000,1.342278,0,0,0,0,0,7,0
10,109999,83,100000,0,10000,49,9999,0.100000,0,0,0.000000,7,1.000000,0.000000,4.043718,0,0,0,0,0,0,0
10,109999,84,100000,69,10000,49,9999,0.100000,0,0,0.000000,7,4.000000,0.000000,7.355771,0,0,0,0,0,0,0
10,109999,85,100000,40,30000,9,9999,0.100000,0,0,0.000000,7,7.000000,0.000000,17.485888,0,0,0,0,0,5,0
10,109999,86,100000,30,10000,40,9999,0.100000,0,0,0.000000,7,0.000000,0.000000,0.891677,0,0,0,0,0,0,0
10,109999,87,100000,32,0,40,9999,0.100000,0,0,0.000000,7,0.000000,0.000000,0.156337,0,0,0,0,0,0,0
10,109999,88,100000,30,10000,49,9999,0.100000,0,0,0.000000,7,1.000000,0.000000,5.001354,0,0,0,0,0,0,0
10,109999,89,100000,63,30000,40,9999,0.100000,0,0,0.000000,7,0.000000,0.000000,0.470804,0,0,0,0,0,0,0
10,109999,90,100000,9,10000,40,9999,0.100000,0,0,0.000000,7,0.000000,0.000000,0.347613,0,0,0,0,0,0,0
10,109999,91,100000,69,10000,40,9999,0.100000,0,0,0.000000,7,0.000000,0.000000,0.290196,0,0,0,0,0,0,0
10,109999,92,100000,30,10000,49,9999,0.100000,0,0,0.000000,7,5.000000,0.000000,16.678777,0,0,0,0,0,0,0
10,109999,93,100000,40,30000,40,9999,0.100000,0,0,0.000000,7,0.000000,0.000000,11.591428,0,0,0,0,0,0,0
10,109999,94,100000,69,10000,0,9999,0.100000,0,0,0.000000,7,0.000000,0.000000,4.094533,0,0,0,0,0,5,0
10,109999,95,100000,63,30000,40,9999,0.100000,0,0,0.000000,7,0.000000,0.000000,0.555822,0,0,0,0,0,0,0
10,109999,96,100000,30,10000,40,9999,0.100000,0,0,0.000000,7,0.000000,0.000000,0.254793,0,0,0,0,0,0,0
10,109999,97,100000,0,10000,40,9999,0.100000,0,0,0.000000,7,0.000000,0.000000,0.124741,0,0,0,0,0,0,0
10,109999,98,100000,0,10000,49,9999,0.100000,0,0,0.000000,7,1.000000,0.000000,6.022643,0,0,0,0,0,0,0
10,109999,99,100000,40,30000,40,9999,0.100000,0,0,0.000000,7,0.000000,0.000000,0.581881,0,0,0,0,0,0,0
11,119999,0,110000,9,10000,40,9999,0.100000,0,0,0.000000,8,0.000000,0.000000,0.095368,0,0,0,0,0,0,0
11,119999,1,110000,9,10000,40,9999,0.100000,0,0,0.000000,7,0.000000,0.000000,0.234102,0,0,0,0,0,0,0
11,119999,2,110000,0,10000,40,9999,0.100000,0,0,0.000000,8,0.000000,0.000000,15.494930,0,0,0,0,0,0,0
11,119999,3,110000,0,10000,40,9999,0.100000,0,0,0.000000,7,0.000000,0.000000,10.063895,0,0,0,0,0,0,0
11,119999,4,110000,32,0,40,9999,0.100000,0,0,0.000000,7,0.000000,0.000000,0.313341,0,0,0,0,0,0,0
11,119999,5,110000,63,30000,40,9999,0.100000,0,0,0.000000,7,0.000000,0.000000,0.075199,0,0,0,0,0,0,0
11,119999,6,110000,9,10000,40,9999,0.100000,0,0,0.000000,7,0.000000,0.000000,0.092578,0,0,0,0,0,0,0
11,119999,7,110000,32,0,40,9999,0.100000,0,0,0.000000,7,0.000000,0.000000,0.197135,0,0,0,0,0,0,0
11,119999,8,110000,32,0,40,9999,0.100000,0,0,0.000000,7,0.000000,0.000000,5.997220,0,0,0,0,0,0,0
11,119999,9,110000,9,10000,49,9999,0.100000,0,0,0.000000,7,1.000000,0.000000,9.391985,0,0,0,0,0,0,0
11,119999,10,110000,32,0,40,9999,0.100000,0,0,0.000000,7,0.000000,0.000000,0.108577,0,0,0,0,0,0,0
11,119999,11,110000,63,30000,40,9999,0.100000,0,0,0.000000,8,0.000000,0.000000,0.626353,0,0,0,0,0,0,0
11,119999,12,110000,40,30000,40,9999,0.100000,0,0,0.000000,7,0.000000,0.000000,0.160554,0,0,0,0,0,0,0
11,119999,13,110000,63,30000,40,9999,0.100000,0,0,0.000000,7,0.000000,0.000000,0.829697,0,0,0,0,0,0,0
11,119999,14,110000,32,0,40,9999,0.100000,0,0,0.000000,7,0.000000,0.000000,0.239060,0,0,0,0,0,0,0
11,119999,15,110000,69,10000,49,9999,0.100000,0,0,0.000000,8,2.000000,0.000000,15.725024,0,0,0,0,0,0,0
11,119999,16,110000,9,10000,40,9999,0.100000,0,0,0.000000,7,0.000000,0.000000,1.476911,0,0,0,0,0,0,0
11,119999,17,110000,40,30000,40,9999,0.100000,0,0,0.000000,7,0.000000,0.000000,0.296954,0,0,0,0,0,0,0
11,119999,18,110000,32,0,40,9999,0.100000,0,0,0.000000,7,0.000000,0.000000,1.482806,0,0,0,0,0,0,0
11,119999,19,110000,0,10000,40,9999,0.100000,0,0,0.000000,7,0.000000,0.000000,1.300990,0,0,0,0,0,0,0
11,119999,20,110000,9,10000,49,9999,0.100000,0,0,0.000000,7,3.000000,0.000000,11.996073,0,0,0,0,0,0,0
11,119999,21,110000,30,10000,40,9999,0.100000,0,0,0.000000,7,0.000000,0.000000,0.436553,0,0,0,0,0,0,0
11,119999,22,110000,30,10000,40,9999,0.100000,0,0,0.000000,7,0.000000,0.000000,0.168924,0,0,0,0,0,0,0
11,119999,23,110000,63,30000,40,9999,0.100000,0,0,0.000000,7,0.000000,0.000000,0.183879,0,0,0,0,0,0,0
11,119999,24,110000,40,30000,40,9999,0.100000,0,0,0.000000,7,0.000000,0.000000,0.283064,0,0,0,0,0,0,0
11,119999,25,110000,30,10000,40,9999,0.100000,0,0,0.000000,8,0.000000,0.000000,0.227764,0,0,0,0,0,0,0
11,119999,26,110000,32,0,40,9999,0.100000,0,0,0.000000,7,0.000000,0.000000,0.084043,0,0,0,0,0,0,0
11,119999,27,110000,9,10000,40,9999,0.100000,0,0,0.000000,7,0.000000,0.000000,0.634415,0,0,0,0,0,0,0
11,119999,28,110000,9,10000,40,9999,0.065000,0,0,0.000000,7,0.000000,0.000000,1.332211,0,0,0,0,0,0,0
11,119999,29,110000,15,100000,40,9999,0.100000,0,0,0.000000,8,0.000000,0.000000,0.441818,0,0,0,0,0,0,0
11,119999,30,110000,0,10000,40,9999,0.100000,0,0,0.000000,8,0.000000,0.000000,0.097940,0,0,0,0,0,0,0
11,119999,31,110000,0,10000,40,9999,0.100000,0,0,0.000000,7,0.000000,0.000000,3.259543,0,0,0,0,0,0,0
11,119999,32,110000,40,30000,49,9999,0.100000,0,0,0.000000,7,1.000000,0.000000,6.903600,0,0,0,0,0,0,0
11,119999,33,110000,40,30000,49,9999,0.100000,0,0,0.000000,7,1.000000,0.000000,21.600325,0,0,0,0,0,0,0
11,119999,34,110000,40,30000,40,9999,0.100000,0,0,0.000000,8,0.000000,0.000000,0.143118,0,0,0,0,0,0,0
11,119999,35,110000,40,30000,40,9999,0.100000,0,0,0.000000,7,0.000000,0.000000,0.842116,0,0,0,0,0,0,0
11,119999,36,110000,40,30000,40,9999,0.100000,0,0,0.000000,7,0.000000,0.000000,1.782567,0,0,0,0,0,0,0
11,119999,37,110000,9,10000,40,9999,0.100000,0,0,0.000000,7,0.000000,0.000000,0.182290,0,0,0,0,0,0,0
11,119999,38,110000,30,10000,40,9999,0.100000,0,0,0.000000,8,0.000000,0.000000,3.258365,0,0,0,0,0,0,0
11,119999,39,100000,63,30000,40,19999,0.100000,0,0,0.000000,7,0.000000,0.000000,1.556910,0,0,0,0,0,0,0
11,119999,40,110000,32,0,40,9999,0.100000,0,0,0.000000,7,0.000000,0.000000,0.123994,0,0,0,0,0,0,0
11,119999,41,110000,30,10000,49,9999,0.100000,0,0,0.000000,7,3.000000,0.000000,8.321021,0,0,0,0,0,0,0
11,119999,42,110000,32,0,40,9999,0.100000,0,0,0.000000,7,0.000000,0.000000,0.137418,0,0,0,0,0,0,0
11,119999,43,110000,40,30000,40,9999,0.100000,0,0,0.000000,7,0.000000,0.000000,2.864204,0,0,0,0,0,0,0
11,119999,44,110000,15,100000,40,9999,0.100000,0,0,0.000000,8,0.000000,0.000000,0.373884,0,0,0,0,0,0,0
11,119999,45,110000,63,30000,40,9999,0.100000,0,0,0.000000,8,0.000000,0.000000,0.034869,0,0,0,0,0,0,0
11,119999,46,110000,30,10000,40,9999,0.100000,0,0,0.000000,7,0.000000,0.000000,0.297964,0,0,0,0,0,0,0
11,119999,47,110000,32,0,49,9999,0.100000,0,0,0.000000,7,2.000000,0.000000,4.372487,0,0,0,0,0,0,0
11,119999,48,110000,0,10000,40,9999,0.100000,0,0,0.000000,7,0.000000,0.000000,0.133606,0,0,0,0,0,0,0
11,119999,49,110000,0,10000,40,9999,0.100000,0,0,0.000000,7,0.000000,0.000000,0.192332,0,0,0,0,0,0,0
11,119999,50,110000,9,10000,49,9999,0.100000,0,0,0.000000,8,9.000000,0.000000,20.719241,0,0,0,0,0,0,0
11,119999,51,110000,15,100000,40,9999,0.100000,0,0,0.000000,8,0.000000,0.000000,0.439544,0,0,0,0,0,0,0
11,119999,52,110000,0,10000,49,9999,0.100000,0,0,0.000000,7,3.000000,0.000000,11.588392,0,0,0,0,0,0,0
11,119999,53,110000,0,10000,40,9999,0.100000,0,0,0.000000,7,0.000000,0.000000,0.378898,0,0,0,0,0,0,0
11,119999,54,110000,30,10000,40,9999,0.100000,0,0,0.000000,7,0.000000,0.000000,0.988694,0,0,0,0,0,0,0
11,119999,55,110000,30,10000,40,9999,0.100000,0,0,0.000000,7,0.000000,0.000000,4.479984,0,0,0,0,0,0,0
11,119999,56,110000,69,10000,49,9999,0.100000,0,0,0.000000,7,1.000000,0.000000,18.687496,0,0,0,0,0,0,0
11,119999,57,110000,9,10000,40,9999,0.100000,0,0,0.000000,7,0.000000,0.000000,0.158299,0,0,0,0,0,0,0
11,119999,58,110000,0,10000,40,9999,0.100000,0,0,0.000000,8,0.000000,0.000000,0.152983,0,0,0,0,0,0,0
11,119999,59,110000,63,30000,40,9999,0.100000,0,0,0.000000,7,0.000000,0.000000,0.180271,0,0,0,0,0,0,0
11,119999,60,110000,69,10000,40,9999,0.100000,0,0,0.000000,7,0.000000,0.000000,0.240514,0,0,0,0,0,0,0
11,119999,61,110000,40,30000,40,9999,0.100000,0,0,0.000000,8,0.000000,0.000000,0.951956,0,0,0,0,0,0,0
11,119999,62,110000,63,30000,40,9999,0.100000,0,0,0.000000,7,0.000000,0.000000,1.013442,0,0,0,0,0,0,0
11,119999,63,110000,32,0,40,9999,0.100000,0,0,0.000000,7,0.000000,0.000000,0.167446,0,0,0,0,0,0,0
11,119999,64,110000,69,10000,40,9999,0.100000,0,0,0.000000,7,0.000000,0.000000,0.236084,0,0,0,0,0,0,0
11,119999,65,110000,30,10000,40,9999,0.100000,0,0,0.000000,7,0.000000,0.000000,0.073223,0,0,0,0,0,0,0
11,119999,66,110000,40,30000,40,9999,0.100000,0,0,0.000000,8,0.000000,0.000000,0.134278,0,0,0,0,0,0,0
11,119999,67,110000,9,10000,40,9999,0.100000,0,0,0.000000,8,0.000000,0.000000,0.227979,0,0,0,0,0,0,0
11,119999,68,110000,69,10000,49,9999,0.100000,0,0,0.000000,7,1.000000,0.000000,15.468253,0,0,0,0,0,0,0
11,119999,69,110000,40,30000,40,9999,0.100000,0,0,0.000000,8,0.000000,0.000000,0.860735,0,0,0,0,0,0,0
11,119999,70,110000,69,10000,40,9999,0.100000,0,0,0.000000,8,0.000000,0.000000,0.386938,0,0,0,0,0,0,0
11,119999,71,110000,40,30000,40,9999,0.100000,0,0,0.000000,7,0.000000,0.000000,0.218074,0,0,0,0,0,0,0
11,119999,72,110000,0,10000,40,9999,0.100000,0,0,0.000000,8,0.000000,0.000000,0.180805,0,0,0,0,0,0,0
11,119999,73,110000,0,10000,40,9999,0.100000,0,0,0.000000,8,0.000000,0.000000,0.185867,0,0,0,0,0,0,0
11,119999,74,110000,30,10000,99,9999,0.100000,0,0,34.210526,7,1.000000,0.000000,6.839750,0,0,1,0,0,0,0
11,119999,75,110000,69,10000,40,9999,0.100000,0,0,0.000000,7,0.000000,0.000000,0.394413,0,0,0,0,0,0,0
11,119999,76,110000,32,0,40,9999,0.100000,0,0,0.000000,7,0.000000,0.000000,0.287298,0,0,0,0,0,0,0
11,119999,77,110000,63,30000,40,9999,0.100000,0,0,0.000000,8,0.000000,0.000000,0.209355,0,0,0,0,0,0,0
11,119999,78,110000,40,30000,40,9999,0.100000,0,0,0.000000,8,0.000000,0.000000,0.698043,0,0,0,0,0,0,0
11,119999,79,110000,15,100000,49,9999,0.100000,0,0,0.000000,8,8.000000,0.000000,20.647969,0,0,0,0,0,0,0
11,119999,80,110000,32,0,40,9999,0.100000,0,0,0.000000,7,0.000000,0.000000,0.557076,0,0,0,0,0,0,0
11,119999,81,110000,32,0,49,9999,0.100000,0,0,0.000000,7,3.000000,0.000000,18.620705,0,0,0,0,0,0,0
11,119999,82,110000,9,10000,49,9999,0.100000,0,0,0.000000,8,1.000000,0.000000,5.186234,0,0,0,0,0,0,0
11,119999,83,110000,0,10000,49,9999,0.100000,0,0,0.000000,8,1.000000,0.000000,6.418795,0,0,0,0,0,0,0
11,119999,84,110000,40,30000,40,9999,0.100000,0,0,0.000000,8,0.000000,0.000000,5.710244,0,0,0,0,0,0,0
11,119999,85,110000,9,10000,49,9999,0.100000,0,0,0.000000,7,1.000000,0.000000,3.122197,0,0,0,0,0,0,0
11,119999,86,110000,30,10000,49,9999,0.100000,0,0,0.000000,7,8.000000,0.000000,26.518361,0,0,0,0,0,0,0
11,119999,87,110000,9,10000,40,9999,0.100000,0,0,0.000000,8,0.000000,0.000000,0.343061,0,0,0,0,0,0,0
11,119999,88,110000,30,10000,40,9999,0.100000,0,0,0.000000,8,0.000000,0.000000,1.138618,0,0,0,0,0,0,0
11,119999,89,110000,69,10000,40,9999,0.100000,0,0,0.000000,7,0.000000,0.000000,0.570575,0,0,0,0,0,0,0
11,119999,90,110000,0,10000,40,9999,0.100000,0,0,0.000000,7,0.000000,0.000000,0.408089,0,0,0,0,0,0,0
11,119999,91,110000,0,10000,40,9999,0.100000,0,0,0.000000,8,0.000000,0.000000,0.254454,0,0,0,0,0,0,0
11,119999,92,110000,9,10000,40,9999,0.100000,0,0,0.000000,7,0.000000,0.000000,9.304397,0,0,0,0,0,0,0
11,119999,93,110000,30,10000,40,9999,0.100000,0,0,0.000000,7,0.000000,0.000000,0.275319,0,0,0,0,0,0,0
11,119999,94,110000,15,100000,49,9999,0.100000,0,0,0.000000,8,1.000000,0.000000,10.982573,0,0,0,0,0,0,0
11,119999,95,110000,63,30000,40,9999,0.100000,0,0,0.000000,8,0.000000,0.000000,0.643770,0,0,0,0,0,0,0
11,119999,96,110000,9,10000,40,9999,0.135000,0,0,0.000000,8,0.000000,0.000000,0.296873,0,0,0,0,0,0,0
11,119999,97,110000,69,10000,40,9999,0.100000,0,0,0.000000,7,0.000000,0.000000,0.126954,0,0,0,0,0,0,0
11,119999,98,110000,40,30000,49,9999,0.100000,0,0,0.000000,8,2.000000,0.000000,9.954154,0,0,0,0,0,0,0
11,119999,99,110000,63,30000,40,9999,0.100000,0,0,0.000000,7,0.000000,0.000000,1.305730,0,0,0,0,0,0,0
12,129999,0,120000,32,0,40,9999,0.100000,0,0,0.000000,8,0.000000,0.000000,0.094277,0,0,0,0,0,0,0
12,129999,1,120000,9,10000,40,9999,0.100000,0,0,0.000000,8,0.000000,0.000000,0.251911,0,0,0,0,0,0,0
12,129999,2,120000,0,10000,40,9999,0.100000,0,0,0.000000,8,0.000000,0.000000,1.766181,0,0,0,0,0,0,0
12,129999,3,120000,9,10000,49,9999,0.100000,0,0,0.000000,8,3.000000,0.000000,7.408422,0,0,0,0,0,0,0
12,129999,4,120000,69,10000,40,9999,0.100000,0,0,0.000000,8,0.000000,0.000000,0.338924,0,0,0,0,0,0,0
12,129999,5,120000,32,0,40,9999,0.100000,0,0,0.000000,8,0.000000,0.000000,0.092875,0,0,0,0,0,0,0
12,129999,6,120000,32,0,40,9999,0.100000,0,0,0.000000,8,0.000000,0.000000,0.160235,0,0,0,0,0,0,0
12,129999,7,120000,15,100000,40,9999,0.100000,0,0,0.000000,8,0.000000,0.000000,0.279357,0,0,0,0,0,0,0
12,129999,8,120000,69,10000,40,9999,0.100000,0,0,0.000000,8,0.000000,0.000000,7.222522,0,0,0,0,0,0,0
12,129999,9,120000,30,10000,49,9999,0.100000,0,0,0.000000,8,1.000000,0.000000,6.529085,0,0,0,0,0,0,0
12,129999,10,120000,69,10000,40,9999,0.100000,0,0,0.000000,8,0.000000,0.000000,0.109970,0,0,0,0,0,0,0
12,129999,11,120000,63,30000,40,9999,0.100000,0,0,0.000000,8,0.000000,0.000000,0.460614,0,0,0,0,0,0,0
12,129999,12,120000,40,30000,40,9999,0.100000,0,0,0.000000,8,0.000000,0.000000,0.672323,0,0,0,0,0,0,0
12,129999,13,120000,0,10000,40,9999,0.100000,0,0,0.000000,8,0.000000,0.000000,1.224507,0,0,0,0,0,0,0
12,129999,14,120000,40,30000,40,9999,0.100000,0,0,0.000000,8,0.000000,0.000000,0.224445,0,0,0,0,0,0,0
12,129999,15,120000,63,30000,49,9999,0.100000,0,0,0.000000,8,4.000000,0.000000,19.849752,0,0,0,0,0,0,0
12,129999,16,120000,9,10000,40,9999,0.100000,0,0,0.000000,8,0.000000,0.000000,1.944333,0,0,0,0,0,0,0
12,129999,17,120000,32,0,40,9999,0.100000,0,0,0.000000,8,0.000000,0.000000,0.232715,0,0,0,0,0,0,0
12,129999,18,120000,32,0,40,9999,0.100000,0,0,0.000000,8,0.000000,0.000000,1.922181,0,0,0,0,0,0,0
12,129999,19,120000,0,10000,40,9999,0.100000,0,0,0.000000,8,0.000000,0.000000,0.964468,0,0,0,0,0,0,0
12,129999,20,120000,9,10000,49,9999,0.100000,0,0,0.000000,8,1.000000,0.000000,11.533825,0,0,0,0,0,0,0
12,129999,21,120000,30,10000,40,9999,0.100000,0,0,0.000000,8,0.000000,0.000000,0.256161,0,0,0,0,0,0,0
12,129999,22,120000,15,100000,49,9999,0.100000,0,0,0.000000,8,1.000000,0.000000,2.042569,0,0,0,0,0,0,0
12,129999,23,120000,63,30000,40,9999,0.100000,0,0,0.000000,8,0.000000,0.000000,0.176804,0,0,0,0,0,0,0
12,129999,24,120000,30,10000,40,9999,0.100000,0,0,0.000000,8,0.000000,0.000000,0.199148,0,0,0,0,0,0,0
