generation,iteration,robot,birthday,ancestor_id,ancestor_birthday,cell_id,age,sigma,maps,genomes,fitness,cells_in_map,dist_max,dist_pot_max,dist_total,com_rx,com_tx,obj_group1,obj_group2,obj_group3,obj_group4,obj_group5
0,9999,0,0,0,0,49,9999,0.100000,0,0,0.000000,0,9.000000,0.000000,13.716520,0,0,0,0,0,0,0
0,9999,1,0,1,0,49,9999,0.100000,0,0,0.000000,0,5.000000,0.000000,12.853527,0,0,0,0,0,0,0
0,9999,2,0,2,0,49,9999,0.100000,0,0,0.000000,0,4.000000,0.000000,14.087549,0,0,0,0,0,0,0
0,9999,3,0,3,0,49,9999,0.100000,0,0,0.000000,0,2.000000,0.000000,3.592089,0,0,0,0,0,0,0
0,9999,4,0,4,0,49,9999,0.100000,0,0,0.000000,0,4.000000,0.000000,3.284873,0,0,0,0,0,0,0
0,9999,5,0,5,0,49,9999,0.100000,0,0,0.000000,0,4.000000,0.000000,7.503966,0,0,0,0,0,0,0
0,9999,6,0,6,0,49,9999,0.100000,0,0,0.000000,0,7.000000,0.000000,22.881056,0,0,0,0,0,0,0
0,9999,7,0,7,0,49,9999,0.100000,0,0,0.000000,0,10.000000,0.000000,24.025571,0,0,0,0,0,0,0
0,9999,8,0,8,0,49,9999,0.100000,0,0,0.000000,0,7.000000,0.000000,23.560695,0,0,0,0,0,0,0
0,9999,9,0,9,0,49,9999,0.100000,0,0,0.000000,0,5.000000,0.000000,19.722453,0,0,0,0,0,0,0
0,9999,10,0,10,0,49,9999,0.100000,0,0,0.000000,0,5.000000,0.000000,6.400244,0,0,0,0,0,0,0
0,9999,11,0,11,0,49,9999,0.100000,0,0,0.000000,0,12.000000,0.000000,27.397938,0,0,0,0,0,0,0
0,9999,12,0,12,0,49,9999,0.100000,0,0,0.000000,0,1.000000,0.000000,2.489942,0,0,0,0,0,0,0
0,9999,13,0,13,0,49,9999,0.100000,0,0,0.000000,0,9.000000,0.000000,13.599247,0,0,0,0,0,0,0
0,9999,14,0,14,0,49,9999,0.100000,0,0,0.000000,0,9.000000,0.000000,13.029560,0,0,0,0,0,0,0
0,9999,15,0,15,0,49,9999,0.100000,0,0,0.000000,0,6.000000,0.000000,9.040024,0,0,0,0,0,0,0
0,9999,16,0,16,0,49,9999,0.100000,0,0,0.000000,0,11.000000,0.000000,21.696445,0,0,0,0,0,0,0
0,9999,17,0,17,0,49,9999,0.100000,0,0,0.000000,0,8.000000,0.000000,10.634267,0,0,0,0,0,0,0
0,9999,18,0,18,0,49,9999,0.100000,0,0,0.000000,0,13.000000,0.000000,25.672913,0,0,0,0,0,0,0
0,9999,19,0,19,0,49,9999,0.100000,0,0,0.000000,0,8.000000,0.000000,10.588157,0,0,0,0,0,0,0
0,9999,20,0,20,0,49,9999,0.100000,0,0,0.000000,0,5.000000,0.000000,11.849397,0,0,0,0,0,0,0
0,9999,21,0,21,0,49,9999,0.100000,0,0,0.000000,0,4.000000,0.000000,8.922455,0,0,0,0,0,0,0
0,9999,22,0,22,0,49,9999,0.100000,0,0,0.000000,0,10.000000,0.000000,13.714680,0,0,0,0,0,0,0
0,9999,23,0,23,0,49,9999,0.100000,0,0,0.000000,0,10.000000,0.000000,20.057672,0,0,0,0,0,0,0
0,9999,24,0,24,0,49,9999,0.100000,0,0,0.000000,0,3.000000,0.000000,4.184407,0,0,0,0,0,0,0
0,9999,25,0,25,0,49,9999,0.100000,0,0,0.000000,0,9.000000,0.000000,12.417266,0,0,0,0,0,0,0
0,9999,26,0,26,0,49,9999,0.100000,0,0,0.000000,0,10.000000,0.000000,18.633172,0,0,0,0,0,0,0
0,9999,27,0,27,0,49,9999,0.100000,0,0,0.000000,0,6.000000,0.000000,8.398421,0,0,0,0,0,0,0
0,9999,28,0,28,0,49,9999,0.100000,0,0,0.000000,0,7.000000,0.000000,26.144104,0,0,0,0,0,0,0
0,9999,29,0,29,0,49,9999,0.100000,0,0,0.000000,0,10.000000,0.000000,16.056700,0,0,0,0,0,0,0
0,9999,30,0,30,0,49,9999,0.100000,0,0,0.000000,0,9.000000,0.000000,11.444397,0,0,0,0,0,0,0
0,9999,31,0,31,0,49,9999,0.100000,0,0,0.000000,0,5.000000,0.000000,10.241528,0,0,0,0,0,0,0
0,9999,32,0,32,0,49,9999,0.100000,0,0,0.000000,0,11.000000,0.000000,17.932546,0,0,0,0,0,0,0
0,9999,33,0,33,0,49,9999,0.100000,0,0,0.000000,0,12.000000,0.000000,17.437537,0,0,0,0,0,0,0
0,9999,34,0,34,0,49,9999,0.100000,0,0,0.000000,0,7.000000,0.000000,20.147047,0,0,0,0,0,0,0
0,9999,35,0,35,0,49,9999,0.100000,0,0,0.000000,0,8.000000,0.000000,9.181593,0,0,0,0,0,0,0
0,9999,36,0,36,0,49,9999,0.100000,0,0,0.000000,0,10.000000,0.000000,19.311647,0,0,0,0,0,0,0
0,9999,37,0,37,0,49,9999,0.100000,0,0,0.000000,0,6.000000,0.000000,19.090241,0,0,0,0,0,0,0
0,9999,38,0,38,0,49,9999,0.100000,0,0,0.000000,0,7.000000,0.000000,12.929889,0,0,0,0,0,0,0
0,9999,39,0,39,0,49,9999,0.100000,0,0,0.000000,0,9.000000,0.000000,12.419924,0,0,0,0,0,0,0
0,9999,40,0,40,0,49,9999,0.100000,0,0,0.000000,0,7.000000,0.000000,11.778774,0,0,0,0,0,0,0
0,9999,41,0,41,0,49,9999,0.100000,0,0,0.000000,0,4.000000,0.000000,17.724156,0,0,0,0,0,0,0
0,9999,42,0,42,0,49,9999,0.100000,0,0,0.000000,0,9.000000,0.000000,15.327405,0,0,0,0,0,0,0
0,9999,43,0,43,0,49,9999,0.100000,0,0,0.000000,0,9.000000,0.000000,10.331142,0,0,0,0,0,0,0
0,9999,44,0,44,0,49,9999,0.100000,0,0,0.000000,0,6.000000,0.000000,11.206977,0,0,0,0,0,0,0
0,9999,45,0,45,0,49,9999,0.100000,0,0,0.000000,0,10.000000,0.000000,14.694775,0,0,0,0,0,0,0
0,9999,46,0,46,0,49,9999,0.100000,0,0,0.000000,0,5.000000,0.000000,9.110837,0,0,0,0,0,0,0
0,9999,47,0,47,0,49,9999,0.100000,0,0,0.000000,0,7.000000,0.000000,9.804815,0,0,0,0,0,0,0
0,9999,48,0,48,0,49,9999,0.100000,0,0,0.000000,0,5.000000,0.000000,11.575123,0,0,0,0,0,0,0
0,9999,49,0,49,0,49,9999,0.100000,0,0,0.000000,0,8.000000,0.000000,12.344766,0,0,0,0,0,0,0
0,9999,50,0,50,0,49,9999,0.100000,0,0,0.000000,0,7.000000,0.000000,7.662596,0,0,0,0,0,0,0
0,9999,51,0,51,0,49,9999,0.100000,0,0,0.000000,0,8.000000,0.000000,11.844541,0,0,0,0,0,0,0
0,9999,52,0,52,0,49,9999,0.100000,0,0,0.000000,0,3.000000,0.000000,4.355260,0,0,0,0,0,0,0
0,9999,53,0,53,0,99,9999,0.100000,0,0,47.368421,0,8.000000,0.000000,21.937705,0,0,1,0,0,0,0
0,9999,54,0,54,0,49,9999,0.100000,0,0,0.000000,0,11.000000,0.000000,13.768315,0,0,0,0,0,0,0
0,9999,55,0,55,0,49,9999,0.100000,0,0,0.000000,0,7.000000,0.000000,7.679261,0,0,0,0,0,0,0
0,9999,56,0,56,0,49,9999,0.100000,0,0,0.000000,0,9.000000,0.000000,20.171783,0,0,0,0,0,0,0
0,9999,57,0,57,0,49,9999,0.100000,0,0,0.000000,0,6.000000,0.000000,14.517287,0,0,0,0,0,0,0
0,9999,58,0,58,0,49,9999,0.100000,0,0,0.000000,0,9.000000,0.000000,21.222601,0,0,0,0,0,0,0
0,9999,59,0,59,0,49,9999,0.100000,0,0,0.000000,0,9.000000,0.000000,12.023847,0,0,0,0,0,0,0
0,9999,60,0,60,0,49,9999,0.100000,0,0,0.000000,0,9.000000,0.000000,17.529829,0,0,0,0,0,0,0
0,9999,61,0,61,0,49,9999,0.100000,0,0,0.000000,0,7.000000,0.000000,8.703571,0,0,0,0,0,0,0
0,9999,62,0,62,0,49,9999,0.100000,0,0,0.000000,0,9.000000,0.000000,10.916761,0,0,0,0,0,0,0
0,9999,63,0,63,0,49,9999,0.100000,0,0,0.000000,0,3.000000,0.000000,4.950147,0,0,0,0,0,0,0
0,9999,64,0,64,0,49,9999,0.100000,0,0,0.000000,0,8.000000,0.000000,8.943868,0,0,0,0,0,0,0
0,9999,65,0,65,0,49,9999,0.100000,0,0,0.000000,0,10.000000,0.000000,14.190741,0,0,0,0,0,0,0
0,9999,66,0,66,0,49,9999,0.100000,0,0,0.000000,0,6.000000,0.000000,8.225003,0,0,0,0,0,0,0
0,9999,67,0,67,0,49,9999,0.100000,0,0,0.000000,0,3.000000,0.000000,4.649520,0,0,0,0,0,0,0
0,9999,68,0,68,0,49,9999,0.100000,0,0,0.000000,0,6.000000,0.000000,6.869123,0,0,0,0,0,0,0
0,9999,69,0,69,0,49,9999,0.100000,0,0,0.000000,0,4.000000,0.000000,4.567360,0,0,0,0,0,0,0
0,9999,70,0,70,0,49,9999,0.100000,0,0,0.000000,0,5.000000,0.000000,8.786994,0,0,0,0,0,0,0
0,9999,71,0,71,0,49,9999,0.100000,0,0,0.000000,0,5.000000,0.000000,6.417160,0,0,0,0,0,0,0
0,9999,72,0,72,0,49,9999,0.100000,0,0,0.000000,0,6.000000,0.000000,8.316653,0,0,0,0,0,0,0
0,9999,73,0,73,0,49,9999,0.100000,0,0,0.000000,0,7.000000,0.000000,8.583197,0,0,0,0,0,0,0
0,9999,74,0,74,0,49,9999,0.100000,0,0,0.000000,0,3.000000,0.000000,4.470580,0,0,0,0,0,0,0
0,9999,75,0,75,0,49,9999,0.100000,0,0,0.000000,0,12.000000,0.000000,26.381122,0,0,0,0,0,0,0
0,9999,76,0,76,0,49,9999,0.100000,0,0,0.000000,0,6.000000,0.000000,7.879405,0,0,0,0,0,0,0
0,9999,77,0,77,0,49,9999,0.100000,0,0,0.000000,0,11.000000,0.000000,22.110581,0,0,0,0,0,0,0
0,9999,78,0,78,0,49,9999,0.100000,0,0,0.000000,0,6.000000,0.000000,11.764860,0,0,0,0,0,0,0
0,9999,79,0,79,0,49,9999,0.100000,0,0,0.000000,0,11.000000,0.000000,15.781758,0,0,0,0,0,0,0
0,9999,80,0,80,0,49,9999,0.100000,0,0,0.000000,0,7.000000,0.000000,16.566474,0,0,0,0,0,0,0
0,9999,81,0,81,0,49,9999,0.100000,0,0,0.000000,0,2.000000,0.000000,3.430017,0,0,0,0,0,0,0
0,9999,82,0,82,0,49,9999,0.100000,0,0,0.000000,0,8.000000,0.000000,9.473866,0,0,0,0,0,0,0
0,9999,83,0,83,0,49,9999,0.100000,0,0,0.000000,0,10.000000,0.000000,13.686338,0,0,0,0,0,0,0
0,9999,84,0,84,0,49,9999,0.100000,0,0,0.000000,0,7.000000,0.000000,17.409354,0,0,0,0,0,0,0
0,9999,85,0,85,0,49,9999,0.100000,0,0,0.000000,0,11.000000,0.000000,18.821057,0,0,0,0,0,0,0
0,9999,86,0,86,0,49,9999,0.100000,0,0,0.000000,0,9.000000,0.000000,9.798525,0,0,0,0,0,0,0
0,9999,87,0,87,0,49,9999,0.100000,0,0,0.000000,0,5.000000,0.000000,7.744715,0,0,0,0,0,0,0
0,9999,88,0,88,0,49,9999,0.100000,0,0,0.000000,0,10.000000,0.000000,14.486751,0,0,0,0,0,0,0
0,9999,89,0,89,0,49,9999,0.100000,0,0,0.000000,0,15.000000,0.000000,26.935468,0,0,0,0,0,0,0
0,9999,90,0,90,0,49,9999,0.100000,0,0,0.000000,0,9.000000,0.000000,15.386462,0,0,0,0,0,0,0
0,9999,91,0,91,0,49,9999,0.100000,0,0,0.000000,0,7.000000,0.000000,10.660455,0,0,0,0,0,0,0
0,9999,92,0,92,0,49,9999,0.100000,0,0,0.000000,0,6.000000,0.000000,23.768230,0,0,0,0,0,0,0
0,9999,93,0,93,0,49,9999,0.100000,0,0,0.000000,0,3.000000,0.000000,7.044216,0,0,0,0,0,0,0
0,9999,94,0,94,0,49,9999,0.100000,0,0,0.000000,0,10.000000,0.000000,17.159144,0,0,0,0,0,0,0
0,9999,95,0,95,0,49,9999,0.100000,0,0,0.000000,0,5.000000,0.000000,8.729465,0,0,0,0,0,0,0
0,9999,96,0,96,0,49,9999,0.100000,0,0,0.000000,0,8.000000,0.000000,8.878103,0,0,0,0,0,0,0
0,9999,97,0,97,0,49,9999,0.100000,0,0,0.000000,0,11.000000,0.000000,16.873245,0,0,0,0,0,0,0
0,9999,98,0,98,0,49,9999,0.100000,0,0,0.000000,0,9.000000,0.000000,15.363327,0,0,0,0,0,0,0
0,9999,99,0,99,0,49,9999,0.100000,0,0,0.000000,0,5.000000,0.000000,6.195116,0,0,0,0,0,0,0
1,19999,0,10000,6,0,40,9999,0.100000,0,0,0.000000,3,0.000000,0.000000,0.134586,0,0,0,0,0,0,0
1,19999,1,10000,35,0,40,9999,0.100000,0,0,0.000000,2,0.000000,0.000000,0.319208,0,0,0,0,0,0,0
1,19999,2,0,2,0,40,19999,0.100000,0,0,0.000000,2,0.000000,0.000000,0.825973,0,0,0,0,0,0,0
1,19999,3,0,3,0,40,19999,0.100000,0,0,0.000000,2,0.000000,0.000000,0.620670,0,0,0,0,0,0,0
1,19999,4,10000,62,0,40,9999,0.100000,0,0,0.000000,3,0.000000,0.000000,0.223997,0,0,0,0,0,0,0
1,19999,5,10000,6,0,40,9999,0.100000,0,0,0.000000,2,0.000000,0.000000,0.427552,0,0,0,0,0,0,0
1,19999,6,10000,6,0,40,9999,0.100000,0,0,0.000000,1,0.000000,0.000000,15.132133,0,0,0,0,0,0,0
1,19999,7,10000,6,0,40,9999,0.100000,0,0,0.000000,3,0.000000,0.000000,4.577788,0,0,0,0,0,0,0
1,19999,8,10000,6,0,49,9999,0.100000,0,0,0.000000,2,2.000000,0.000000,6.787334,0,0,0,0,0,0,0
1,19999,9,0,9,0,40,19999,0.100000,0,0,0.000000,3,0.000000,0.000000,0.082761,0,0,0,0,0,0,0
1,19999,10,0,10,0,40,19999,0.100000,0,0,0.000000,2,0.000000,0.000000,0.107662,0,0,0,0,0,0,0
1,19999,11,10000,35,0,49,9999,0.100000,0,0,0.000000,2,1.000000,0.000000,4.155602,0,0,0,0,0,0,0
1,19999,12,0,12,0,40,19999,0.100000,0,0,0.000000,3,0.000000,0.000000,1.352257,0,0,0,0,0,0,0
1,19999,13,10000,62,0,49,9999,0.100000,0,0,0.000000,3,1.000000,0.000000,4.009226,0,0,0,0,0,0,0
1,19999,14,10000,62,0,40,9999,0.100000,0,0,0.000000,3,0.000000,0.000000,0.316471,0,0,0,0,0,0,0
1,19999,15,0,15,0,40,19999,0.100000,0,0,0.000000,3,0.000000,0.000000,0.365288,0,0,0,0,0,0,0
1,19999,16,10000,35,0,49,9999,0.100000,0,0,0.000000,2,1.000000,0.000000,4.825872,0,0,0,0,0,0,0
1,19999,17,10000,6,0,49,9999,0.100000,0,0,0.000000,3,3.000000,0.000000,14.031802,0,0,0,0,0,0,0
1,19999,18,10000,53,0,49,9999,0.100000,0,0,0.000000,3,4.000000,0.000000,5.932016,0,0,0,0,0,0,0
1,19999,19,10000,53,0,49,9999,0.100000,0,0,0.000000,3,8.000000,0.000000,18.615258,0,0,0,0,0,0,0
1,19999,20,10000,35,0,49,9999,0.100000,0,0,0.000000,2,1.000000,0.000000,1.909638,0,0,0,0,0,0,0
1,19999,21,10000,53,0,49,9999,0.100000,0,0,0.000000,3,2.000000,0.000000,20.517435,0,0,0,0,0,0,0
1,19999,22,10000,6,0,40,9999,0.100000,0,0,0.000000,2,0.000000,0.000000,1.025905,0,0,0,0,0,0,0
1,19999,23,10000,53,0,49,9999,0.100000,0,0,0.000000,3,3.000000,0.000000,8.657150,0,0,0,0,0,0,0
1,19999,24,10000,6,0,40,9999,0.100000,0,0,0.000000,3,0.000000,0.000000,0.223799,0,0,0,0,0,0,0
1,19999,25,0,25,0,40,19999,0.100000,0,0,0.000000,3,0.000000,0.000000,0.822403,0,0,0,0,0,0,0
1,19999,26,10000,53,0,40,9999,0.100000,0,0,0.000000,3,0.000000,0.000000,3.386944,0,0,0,0,0,0,0
1,19999,27,10000,53,0,40,9999,0.100000,0,0,0.000000,3,0.000000,0.000000,0.107336,0,0,0,0,0,0,0
1,19999,28,10000,35,0,40,9999,0.100000,0,0,0.000000,2,0.000000,0.000000,1.028855,0,0,0,0,0,0,0
1,19999,29,10000,53,0,40,9999,0.100000,0,0,0.000000,3,0.000000,0.000000,0.236246,0,0,0,0,0,0,0
1,19999,30,10000,62,0,40,9999,0.100000,0,0,0.000000,3,0.000000,0.000000,0.086907,0,0,0,0,0,0,0
1,19999,31,0,31,0,49,19999,0.100000,0,0,0.000000,2,1.000000,0.000000,2.856427,0,0,0,0,0,0,0
1,19999,32,10000,53,0,49,9999,0.100000,0,0,0.000000,3,4.000000,0.000000,5.820571,0,0,0,0,0,0,0
1,19999,33,10000,35,0,49,9999,0.100000,0,0,0.000000,2,3.000000,0.000000,10.303360,0,0,0,0,0,0,0
1,19999,34,10000,53,0,49,9999,0.100000,0,0,0.000000,3,3.000000,0.000000,7.390854,0,0,0,0,0,0,0
1,19999,35,10000,35,0,40,9999,0.100000,0,0,0.000000,2,0.000000,0.000000,0.747284,0,0,0,0,0,0,0
1,19999,36,10000,6,0,49,9999,0.100000,0,0,0.000000,3,4.000000,0.000000,10.043514,0,0,0,0,0,0,0
1,19999,37,10000,53,0,40,9999,0.100000,0,0,0.000000,3,0.000000,0.000000,1.873671,0,0,0,0,0,0,0
1,19999,38,10000,6,0,40,9999,0.100000,0,0,0.000000,2,0.000000,0.000000,0.541581,0,0,0,0,0,0,0
1,19999,39,10000,6,0,40,9999,0.100000,0,0,0.000000,3,0.000000,0.000000,0.100563,0,0,0,0,0,0,0
1,19999,40,10000,35,0,40,9999,0.100000,0,0,0.000000,2,0.000000,0.000000,0.144699,0,0,0,0,0,0,0
1,19999,41,10000,62,0,49,9999,0.100000,0,0,0.000000,3,1.000000,0.000000,1.761011,0,0,0,0,0,0,0
1,19999,42,10000,6,0,40,9999,0.100000,0,0,0.000000,3,0.000000,0.000000,0.074056,0,0,0,0,0,0,0
1,19999,43,10000,62,0,40,9999,0.100000,0,0,0.000000,3,0.000000,0.000000,0.146539,0,0,0,0,0,0,0
1,19999,44,10000,6,0,40,9999,0.100000,0,0,0.000000,3,0.000000,0.000000,1.174713,0,0,0,0,0,0,0
1,19999,45,10000,6,0,40,9999,0.100000,0,0,0.000000,3,0.000000,0.000000,3.025896,0,0,0,0,0,0,0
1,19999,46,10000,35,0,49,9999,0.100000,0,0,0.000000,2,1.000000,0.000000,2.074156,0,0,0,0,0,0,0
1,19999,47,10000,6,0,49,9999,0.100000,0,0,0.000000,3,1.000000,0.000000,5.770346,0,0,0,0,0,0,0
1,19999,48,10000,53,0,40,9999,0.100000,0,0,0.000000,3,0.000000,0.000000,2.852922,0,0,0,0,0,0,0
1,19999,49,10000,35,0,40,9999,0.100000,0,0,0.000000,3,0.000000,0.000000,0.093653,0,0,0,0,0,0,0
1,19999,50,10000,35,0,40,9999,0.100000,0,0,0.000000,2,0.000000,0.000000,0.151585,0,0,0,0,0,0,0
1,19999,51,10000,62,0,40,9999,0.100000,0,0,0.000000,3,0.000000,0.000000,0.125948,0,0,0,0,0,0,0
1,19999,52,10000,53,0,40,9999,0.100000,0,0,0.000000,3,0.000000,0.000000,0.313943,0,0,0,0,0,0,0
1,19999,53,10000,35,0,49,9999,0.100000,0,0,0.000000,3,5.000000,0.000000,12.882091,0,0,0,0,0,0,0
1,19999,54,10000,53,0,40,9999,0.100000,0,0,0.000000,3,0.000000,0.000000,0.170687,0,0,0,0,0,0,0
1,19999,55,10000,6,0,40,9999,0.100000,0,0,0.000000,3,0.000000,0.000000,0.221582,0,0,0,0,0,0,0
1,19999,56,10000,56,0,40,9999,0.100000,0,0,0.000000,3,0.000000,0.000000,0.159971,0,0,0,0,0,0,0
1,19999,57,10000,53,0,49,9999,0.100000,0,0,0.000000,3,2.000000,0.000000,9.460001,0,0,0,0,0,0,0
1,19999,58,10000,6,0,49,9999,0.100000,0,0,0.000000,3,4.000000,0.000000,12.477152,0,0,0,0,0,0,0
1,19999,59,10000,62,0,40,9999,0.100000,0,0,0.000000,3,0.000000,0.000000,1.436690,0,0,0,0,0,0,0
1,19999,60,10000,62,0,40,9999,0.100000,0,0,0.000000,3,0.000000,0.000000,0.996442,0,0,0,0,0,0,0
1,19999,61,10000,35,0,40,9999,0.100000,0,0,0.000000,2,0.000000,0.000000,1.666517,0,0,0,0,0,0,0
1,19999,62,10000,53,0,40,9999,0.100000,0,0,0.000000,3,0.000000,0.000000,1.531172,0,0,0,0,0,0,0
1,19999,63,10000,62,0,40,9999,0.100000,0,0,0.000000,3,0.000000,0.000000,0.124352,0,0,0,0,0,0,0
1,19999,64,10000,6,0,40,9999,0.100000,0,0,0.000000,3,0.000000,0.000000,0.111757,0,0,0,0,0,0,0
1,19999,65,10000,6,0,40,9999,0.100000,0,0,0.000000,3,0.000000,0.000000,0.912740,0,0,0,0,0,0,0
1,19999,66,10000,6,0,40,9999,0.100000,0,0,0.000000,3,0.000000,0.000000,0.100629,0,0,0,0,0,0,0
1,19999,67,10000,53,0,40,9999,0.100000,0,0,0.000000,3,0.000000,0.000000,0.728693,0,0,0,0,0,0,0
1,19999,68,10000,6,0,40,9999,0.100000,0,0,0.000000,3,0.000000,0.000000,0.455216,0,0,0,0,0,0,0
1,19999,69,10000,62,0,49,9999,0.100000,0,0,0.000000,3,5.000000,0.000000,11.147470,0,0,0,0,0,0,0
1,19999,70,10000,62,0,40,9999,0.100000,0,0,0.000000,3,0.000000,0.000000,0.287148,0,0,0,0,0,0,0
1,19999,71,10000,53,0,40,9999,0.100000,0,0,0.000000,3,0.000000,0.000000,0.091072,0,0,0,0,0,0,0
1,19999,72,10000,62,0,40,9999,0.100000,0,0,0.000000,3,0.000000,0.000000,0.103336,0,0,0,0,0,0,0
1,19999,73,10000,53,0,40,9999,0.100000,0,0,0.000000,3,0.000000,0.000000,0.142294,0,0,0,0,0,0,0
1,19999,74,10000,62,0,40,9999,0.100000,0,0,0.000000,3,0.000000,0.000000,1.963379,0,0,0,0,0,0,0
1,19999,75,10000,6,0,40,9999,0.100000,0,0,0.000000,2,0.000000,0.000000,0.197346,0,0,0,0,0,0,0
1,19999,76,10000,6,0,40,9999,0.100000,0,0,0.000000,2,0.000000,0.000000,0.551382,0,0,0,0,0,0,0
1,19999,77,10000,62,0,40,9999,0.100000,0,0,0.000000,3,0.000000,0.000000,9.288471,0,0,0,0,0,0,0
1,19999,78,10000,6,0,49,9999,0.100000,0,0,0.000000,2,1.000000,0.000000,3.396568,0,0,0,0,0,0,0
1,19999,79,10000,6,0,40,9999,0.100000,0,0,0.000000,3,0.000000,0.000000,0.076310,0,0,0,0,0,0,0
1,19999,80,10000,35,0,40,9999,0.100000,0,0,0.000000,2,0.000000,0.000000,2.454221,0,0,0,0,0,0,0
1,19999,81,10000,35,0,40,9999,0.100000,0,0,0.000000,2,0.000000,0.000000,0.065066,0,0,0,0,0,0,0
1,19999,82,10000,62,0,40,9999,0.100000,0,0,0.000000,3,0.000000,0.000000,2.625537,0,0,0,0,0,0,0
1,19999,83,10000,53,0,40,9999,0.100000,0,0,0.000000,3,0.000000,0.000000,0.238637,0,0,0,0,0,0,0
1,19999,84,10000,53,0,40,9999,0.100000,0,0,0.000000,3,0.000000,0.000000,0.118134,0,0,0,0,0,0,0
1,19999,85,10000,35,0,40,9999,0.100000,0,0,0.000000,2,0.000000,0.000000,1.042341,0,0,0,0,0,0,0
1,19999,86,10000,6,0,40,9999,0.100000,0,0,0.000000,3,0.000000,0.000000,0.176706,0,0,0,0,0,0,0
1,19999,87,10000,6,0,49,9999,0.100000,0,0,0.000000,3,1.000000,0.000000,4.033018,0,0,0,0,0,0,0
1,19999,88,0,88,0,40,19999,0.100000,0,0,0.000000,2,0.000000,0.000000,0.129848,0,0,0,0,0,0,0
1,19999,89,10000,53,0,40,9999,0.100000,0,0,0.000000,3,0.000000,0.000000,0.523153,0,0,0,0,0,0,0
1,19999,90,10000,6,0,49,9999,0.100000,0,0,0.000000,3,4.000000,0.000000,13.136141,0,0,0,0,0,0,0
1,19999,91,10000,35,0,40,9999,0.100000,0,0,0.000000,2,0.000000,0.000000,0.161341,0,0,0,0,0,0,0
1,19999,92,10000,6,0,49,9999,0.100000,0,0,0.000000,3,5.000000,0.000000,7.371024,0,0,0,0,0,0,0
1,19999,93,10000,62,0,40,9999,0.100000,0,0,0.000000,3,0.000000,0.000000,0.082718,0,0,0,0,0,0,0
1,19999,94,10000,53,0,49,9999,0.100000,0,0,0.000000,3,1.000000,0.000000,5.024327,0,0,0,0,0,0,0
1,19999,95,10000,6,0,49,9999,0.100000,0,0,0.000000,3,1.000000,0.000000,1.221256,0,0,0,0,0,0,0
1,19999,96,10000,62,0,49,9999,0.100000,0,0,0.000000,3,1.000000,0.000000,7.078308,0,0,0,0,0,0,0
1,19999,97,10000,53,0,40,9999,0.100000,0,0,0.000000,3,0.000000,0.000000,4.666725,0,0,0,0,0,0,0
1,19999,98,10000,35,0,49,9999,0.100000,0,0,0.000000,2,3.000000,0.000000,9.055463,0,0,0,0,0,0,0
1,19999,99,10000,62,0,40,9999,0.100000,0,0,0.000000,3,0.000000,0.000000,0.304595,0,0,0,0,0,0,0
2,29999,0,20000,62,0,40,9999,0.100000,0,0,0.000000,5,0.000000,0.000000,0.120154,0,0,0,0,0,0,0
2,29999,1,20000,62,0,40,9999,0.100000,0,0,0.000000,5,0.000000,0.000000,0.906772,0,0,0,0,0,0,0
2,29999,2,20000,62,0,40,9999,0.100000,0,0,0.000000,5,0.000000,0.000000,2.026638,0,0,0,0,0,0,0
2,29999,3,20000,6,0,40,9999,0.100000,0,0,0.000000,5,0.000000,0.000000,0.606493,0,0,0,0,0,0,0
2,29999,4,20000,5,10000,40,9999,0.100000,0,0,0.000000,5,0.000000,0.000000,0.191042,0,0,0,0,0,0,0
2,29999,5,20000,6,0,40,9999,0.100000,0,0,0.000000,4,0.000000,0.000000,0.940893,0,0,0,0,0,0,0
2,29999,6,20000,62,0,40,9999,0.100000,0,0,0.000000,5,0.000000,0.000000,4.153317,0,0,0,0,0,0,0
2,29999,7,20000,62,0,40,9999,0.100000,0,0,0.000000,5,0.000000,0.000000,4.102264,0,0,0,0,0,0,0
2,29999,8,20000,62,0,49,9999,0.100000,0,0,0.000000,4,1.000000,0.000000,1.680145,0,0,0,0,0,0,0
2,29999,9,20000,35,10000,40,9999,0.100000,0,0,0.000000,5,0.000000,0.000000,0.081214,0,0,0,0,0,0,0
2,29999,10,20000,6,0,40,9999,0.100000,0,0,0.000000,5,0.000000,0.000000,0.103023,0,0,0,0,0,0,0
2,29999,11,20000,6,0,40,9999,0.100000,0,0,0.000000,5,0.000000,0.000000,0.203470,0,0,0,0,0,0,0
2,29999,12,20000,89,10000,40,9999,0.100000,0,0,0.000000,5,0.000000,0.000000,0.071567,0,0,0,0,0,0,0
2,29999,13,20000,53,0,49,9999,0.100000,0,0,0.000000,5,7.000000,0.000000,14.914935,0,0,0,0,0,0,0
2,29999,14,20000,14,10000,40,9999,0.100000,0,0,0.000000,5,0.000000,0.000000,0.853994,0,0,0,0,0,0,0
2,29999,15,20000,6,0,40,9999,0.100000,0,0,0.000000,5,0.000000,0.000000,1.181469,0,0,0,0,0,0,0
2,29999,16,20000,53,0,40,9999,0.100000,0,0,0.000000,5,0.000000,0.000000,0.479716,0,0,0,0,0,0,0
2,29999,17,20000,62,0,49,9999,0.100000,0,0,0.000000,5,4.000000,0.000000,14.426011,0,0,0,0,0,0,0
2,29999,18,20000,53,0,40,9999,0.100000,0,0,0.000000,5,0.000000,0.000000,0.085402,0,0,0,0,0,0,0
2,29999,19,20000,62,0,40,9999,0.100000,0,0,0.000000,5,0.000000,0.000000,1.020459,0,0,0,0,0,0,0
2,29999,20,20000,35,10000,40,9999,0.100000,0,0,0.000000,5,0.000000,0.000000,2.710514,0,0,0,0,0,0,0
2,29999,21,20000,53,0,40,9999,0.100000,0,0,0.000000,5,0.000000,0.000000,13.493100,0,0,0,0,0,0,0
2,29999,22,20000,62,0,40,9999,0.100000,0,0,0.000000,5,0.000000,0.000000,0.963678,0,0,0,0,0,0,0
2,29999,23,20000,5,10000,40,9999,0.100000,0,0,0.000000,5,0.000000,0.000000,6.217931,0,0,0,0,0,0,0
2,29999,24,20000,35,10000,40,9999,0.100000,0,0,0.000000,5,0.000000,0.000000,0.458358,0,0,0,0,0,0,0
2,29999,25,20000,6,0,40,9999,0.100000,0,0,0.000000,5,0.000000,0.000000,0.639828,0,0,0,0,0,0,0
2,29999,26,20000,62,0,40,9999,0.100000,0,0,0.000000,5,0.000000,0.000000,1.523969,0,0,0,0,0,0,0
2,29999,27,20000,53,0,40,9999,0.100000,0,0,0.000000,5,0.000000,0.000000,0.117501,0,0,0,0,0,0,0
2,29999,28,20000,89,10000,40,9999,0.100000,0,0,0.000000,5,0.000000,0.000000,1.017410,0,0,0,0,0,0,0
2,29999,29,20000,89,10000,40,9999,0.100000,0,0,0.000000,5,0.000000,0.000000,0.223572,0,0,0,0,0,0,0
2,29999,30,20000,45,10000,40,9999,0.100000,0,0,0.000000,5,0.000000,0.000000,0.086620,0,0,0,0,0,0,0
2,29999,31,20000,53,0,49,9999,0.100000,0,0,0.000000,5,2.000000,0.000000,14.279961,0,0,0,0,0,0,0
2,29999,32,20000,6,0,40,9999,0.100000,0,0,0.000000,5,0.000000,0.000000,0.909220,0,0,0,0,0,0,0
2,29999,33,20000,53,0,49,9999,0.100000,0,0,0.000000,5,2.000000,0.000000,6.324743,0,0,0,0,0,0,0
2,29999,34,20000,53,0,40,9999,0.100000,0,0,0.000000,5,0.000000,0.000000,4.468990,0,0,0,0,0,0,0
2,29999,35,20000,35,10000,40,9999,0.100000,0,0,0.000000,5,0.000000,0.000000,0.826377,0,0,0,0,0,0,0
2,29999,36,20000,89,10000,49,9999,0.100000,0,0,0.000000,5,1.000000,0.000000,2.537061,0,0,0,0,0,0,0
2,29999,37,20000,62,0,40,9999,0.100000,0,0,0.000000,5,0.000000,0.000000,1.339119,0,0,0,0,0,0,0
2,29999,38,20000,53,0,40,9999,0.100000,0,0,0.000000,5,0.000000,0.000000,0.463971,0,0,0,0,0,0,0
2,29999,39,20000,6,0,40,9999,0.100000,0,0,0.000000,5,0.000000,0.000000,0.097069,0,0,0,0,0,0,0
2,29999,40,20000,6,0,40,9999,0.100000,0,0,0.000000,5,0.000000,0.000000,0.131109,0,0,0,0,0,0,0
2,29999,41,20000,89,10000,49,9999,0.100000,0,0,0.000000,5,2.000000,0.000000,4.700778,0,0,0,0,0,0,0
2,29999,42,20000,53,0,40,9999,0.100000,0,0,0.000000,5,0.000000,0.000000,0.072407,0,0,0,0,0,0,0
2,29999,43,20000,53,0,40,9999,0.100000,0,0,0.000000,5,0.000000,0.000000,0.621923,0,0,0,0,0,0,0
2,29999,44,20000,53,0,40,9999,0.100000,0,0,0.000000,4,0.000000,0.000000,0.617199,0,0,0,0,0,0,0
2,29999,45,20000,6,0,40,9999,0.100000,0,0,0.000000,5,0.000000,0.000000,0.407357,0,0,0,0,0,0,0
2,29999,46,20000,35,10000,49,9999,0.100000,0,0,0.000000,5,1.000000,0.000000,1.565695,0,0,0,0,0,0,0
2,29999,47,20000,5,10000,40,9999,0.100000,0,0,0.000000,5,0.000000,0.000000,8.330800,0,0,0,0,0,0,0
2,29999,48,20000,5,10000,40,9999,0.100000,0,0,0.000000,5,0.000000,0.000000,9.001386,0,0,0,0,0,0,0
2,29999,49,20000,62,0,40,9999,0.100000,0,0,0.000000,5,0.000000,0.000000,0.094002,0,0,0,0,0,0,0
2,29999,50,20000,89,10000,40,9999,0.100000,0,0,0.000000,5,0.000000,0.000000,0.857174,0,0,0,0,0,0,0
2,29999,51,20000,35,10000,40,9999,0.100000,0,0,0.000000,5,0.000000,0.000000,0.113221,0,0,0,0,0,0,0
2,29999,52,20000,35,10000,40,9999,0.100000,0,0,0.000000,5,0.000000,0.000000,0.325904,0,0,0,0,0,0,0
2,29999,53,20000,6,0,49,9999,0.100000,0,0,0.000000,5,1.000000,0.000000,1.167579,0,0,0,0,0,0,0
2,29999,54,20000,62,0,40,9999,0.100000,0,0,0.000000,5,0.000000,0.000000,0.140450,0,0,0,0,0,0,0
2,29999,55,20000,62,0,40,9999,0.100000,0,0,0.000000,5,0.000000,0.000000,2.001722,0,0,0,0,0,0,0
2,29999,56,20000,53,0,49,9999,0.100000,0,0,0.000000,5,3.000000,0.000000,8.871965,0,0,0,0,0,0,0
2,29999,57,10000,53,0,49,19999,0.100000,0,0,0.000000,5,1.000000,0.000000,2.477636,0,0,0,0,0,0,0
2,29999,58,20000,6,0,40,9999,0.100000,0,0,0.000000,5,0.000000,0.000000,14.006022,0,0,0,0,0,0,0
2,29999,59,20000,6,0,40,9999,0.100000,0,0,0.000000,5,0.000000,0.000000,0.628040,0,0,0,0,0,0,0
2,29999,60,20000,62,0,40,9999,0.100000,0,0,0.000000,5,0.000000,0.000000,0.752801,0,0,0,0,0,0,0
2,29999,61,20000,53,0,49,9999,0.100000,0,0,0.000000,5,1.000000,0.000000,1.874832,0,0,0,0,0,0,0
2,29999,62,20000,6,0,40,9999,0.100000,0,0,0.000000,5,0.000000,0.000000,0.410838,0,0,0,0,0,0,0
2,29999,63,20000,62,0,40,9999,0.100000,0,0,0.000000,5,0.000000,0.000000,0.140476,0,0,0,0,0,0,0
2,29999,64,20000,35,10000,40,9999,0.100000,0,0,0.000000,5,0.000000,0.000000,0.111170,0,0,0,0,0,0,0
2,29999,65,20000,53,0,40,9999,0.100000,0,0,0.000000,5,0.000000,0.000000,0.654775,0,0,0,0,0,0,0
2,29999,66,20000,45,10000,40,9999,0.100000,0,0,0.000000,5,0.000000,0.000000,0.103006,0,0,0,0,0,0,0
2,29999,67,20000,89,10000,40,9999,0.100000,0,0,0.000000,5,0.000000,0.000000,0.791117,0,0,0,0,0,0,0
2,29999,68,20000,53,0,40,9999,0.100000,0,0,0.000000,5,0.000000,0.000000,0.410056,0,0,0,0,0,0,0
2,29999,69,20000,53,0,49,9999,0.100000,0,0,0.000000,5,1.000000,0.000000,1.444065,0,0,0,0,0,0,0
2,29999,70,20000,5,10000,40,9999,0.100000,0,0,0.000000,5,0.000000,0.000000,0.248397,0,0,0,0,0,0,0
2,29999,71,20000,5,10000,40,9999,0.100000,0,0,0.000000,5,0.000000,0.000000,0.095108,0,0,0,0,0,0,0
2,29999,72,20000,62,0,40,9999,0.100000,0,0,0.000000,5,0.000000,0.000000,0.123212,0,0,0,0,0,0,0
2,29999,73,20000,53,0,40,9999,0.100000,0,0,0.000000,5,0.000000,0.000000,0.100321,0,0,0,0,0,0,0
2,29999,74,20000,62,0,40,9999,0.100000,0,0,0.000000,5,0.000000,0.000000,1.555296,0,0,0,0,0,0,0
2,29999,75,20000,89,10000,40,9999,0.100000,0,0,0.000000,5,0.000000,0.000000,0.187013,0,0,0,0,0,0,0
2,29999,76,20000,5,10000,40,9999,0.100000,0,0,0.000000,5,0.000000,0.000000,0.356996,0,0,0,0,0,0,0
2,29999,77,20000,35,10000,49,9999,0.100000,0,0,0.000000,5,1.000000,0.000000,8.308450,0,0,0,0,0,0,0
2,29999,78,20000,62,0,49,9999,0.100000,0,0,0.000000,5,1.000000,0.000000,14.126771,0,0,0,0,0,0,0
2,29999,79,20000,53,0,40,9999,0.100000,0,0,0.000000,5,0.000000,0.000000,0.076868,0,0,0,0,0,0,0
2,29999,80,20000,53,0,49,9999,0.100000,0,0,0.000000,5,2.000000,0.000000,4.695733,0,0,0,0,0,0,0
2,29999,81,20000,62,0,40,9999,0.100000,0,0,0.000000,5,0.000000,0.000000,0.064047,0,0,0,0,0,0,0
2,29999,82,20000,89,10000,40,9999,0.100000,0,0,0.000000,5,0.000000,0.000000,0.682919,0,0,0,0,0,0,0
2,29999,83,20000,62,0,40,9999,0.100000,0,0,0.000000,5,0.000000,0.000000,0.241299,0,0,0,0,0,0,0
2,29999,84,20000,35,10000,40,9999,0.100000,0,0,0.000000,5,0.000000,0.000000,0.123629,0,0,0,0,0,0,0
2,29999,85,20000,5,10000,40,9999,0.100000,0,0,0.000000,5,0.000000,0.000000,1.051720,0,0,0,0,0,0,0
2,29999,86,20000,45,10000,40,9999,0.100000,0,0,0.000000,5,0.000000,0.000000,0.390623,0,0,0,0,0,0,0
2,29999,87,20000,53,0,40,9999,0.100000,0,0,0.000000,5,0.000000,0.000000,0.834694,0,0,0,0,0,0,0
2,29999,88,20000,62,0,40,9999,0.100000,0,0,0.000000,5,0.000000,0.000000,0.799080,0,0,0,0,0,0,0
2,29999,89,20000,6,0,40,9999,0.100000,0,0,0.000000,5,0.000000,0.000000,0.645880,0,0,0,0,0,0,0
2,29999,90,20000,5,10000,49,9999,0.100000,0,0,0.000000,5,2.000000,0.000000,10.531295,0,0,0,0,0,0,0
2,29999,91,20000,53,0,40,9999,0.100000,0,0,0.000000,5,0.000000,0.000000,0.234589,0,0,0,0,0,0,0
2,29999,92,20000,62,0,40,9999,0.100000,0,0,0.000000,5,0.000000,0.000000,0.581208,0,0,0,0,0,0,0
2,29999,93,20000,62,0,40,9999,0.100000,0,0,0.000000,5,0.000000,0.000000,0.081087,0,0,0,0,0,0,0
2,29999,94,20000,35,10000,40,9999,0.100000,0,0,0.000000,5,0.000000,0.000000,1.534610,0,0,0,0,0,0,0
2,29999,95,20000,62,0,40,9999,0.100000,0,0,0.000000,5,0.000000,0.000000,0.973260,0,0,0,0,0,0,0
2,29999,96,20000,62,0,40,9999,0.100000,0,0,0.000000,5,0.000000,0.000000,5.338355,0,0,0,0,0,0,0
2,29999,97,20000,35,10000,40,9999,0.100000,0,0,0.000000,5,0.000000,0.000000,4.196516,0,0,0,0,0,0,0
2,29999,98,20000,89,10000,40,9999,0.100000,0,0,0.000000,5,0.000000,0.000000,5.404954,0,0,0,0,0,0,0
2,29999,99,20000,53,0,40,9999,0.100000,0,0,0.000000,5,0.000000,0.000000,0.836613,0,0,0,0,0,0,0
3,39999,0,30000,5,10000,40,9999,0.100000,0,0,0.000000,5,0.000000,0.000000,0.121516,0,0,0,0,0,0,0
3,39999,1,30000,62,0,40,9999,0.100000,0,0,0.000000,5,0.000000,0.000000,0.539940,0,0,0,0,0,0,0
3,39999,2,30000,62,0,40,9999,0.100000,0,0,0.000000,5,0.000000,0.000000,1.446115,0,0,0,0,0,0,0
3,39999,3,30000,6,0,40,9999,0.100000,0,0,0.000000,5,0.000000,0.000000,0.384704,0,0,0,0,0,0,0
3,39999,4,30000,45,10000,40,9999,0.100000,0,0,0.000000,5,0.000000,0.000000,0.164347,0,0,0,0,0,0,0
3,39999,5,30000,45,10000,40,9999,0.100000,0,0,0.000000,5,0.000000,0.000000,0.317803,0,0,0,0,0,0,0
3,39999,6,30000,62,0,40,9999,0.100000,0,0,0.000000,5,0.000000,0.000000,2.219855,0,0,0,0,0,0,0
3,39999,7,30000,53,0,40,9999,0.100000,0,0,0.000000,5,0.000000,0.000000,4.455564,0,0,0,0,0,0,0
3,39999,8,30000,6,0,40,9999,0.100000,0,0,0.000000,5,0.000000,0.000000,1.736275,0,0,0,0,0,0,0
3,39999,9,30000,5,10000,40,9999,0.100000,0,0,0.000000,5,0.000000,0.000000,0.080970,0,0,0,0,0,0,0
3,39999,10,30000,5,10000,40,9999,0.100000,0,0,0.000000,5,0.000000,0.000000,0.102988,0,0,0,0,0,0,0
3,39999,11,30000,5,10000,40,9999,0.100000,0,0,0.000000,5,0.000000,0.000000,0.073121,0,0,0,0,0,0,0
3,39999,12,30000,45,10000,40,9999,0.100000,0,0,0.000000,5,0.000000,0.000000,0.071964,0,0,0,0,0,0,0
3,39999,13,30000,62,0,40,9999,0.100000,0,0,0.000000,5,0.000000,0.000000,0.772901,0,0,0,0,0,0,0
3,39999,14,30000,45,10000,40,9999,0.100000,0,0,0.000000,5,0.000000,0.000000,2.615261,0,0,0,0,0,0,0
3,39999,15,30000,62,0,40,9999,0.100000,0,0,0.000000,5,0.000000,0.000000,0.249212,0,0,0,0,0,0,0
3,39999,16,30000,62,0,40,9999,0.100000,0,0,0.000000,5,0.000000,0.000000,0.147908,0,0,0,0,0,0,0
3,39999,17,30000,5,10000,40,9999,0.100000,0,0,0.000000,5,0.000000,0.000000,1.753856,0,0,0,0,0,0,0
3,39999,18,30000,6,0,40,9999,0.100000,0,0,0.000000,5,0.000000,0.000000,0.100676,0,0,0,0,0,0,0
3,39999,19,30000,5,10000,40,9999,0.100000,0,0,0.000000,5,0.000000,0.000000,0.683618,0,0,0,0,0,0,0
3,39999,20,30000,45,10000,40,9999,0.100000,0,0,0.000000,5,0.000000,0.000000,3.609564,0,0,0,0,0,0,0
3,39999,21,30000,45,10000,40,9999,0.100000,0,0,0.000000,5,0.000000,0.000000,0.759197,0,0,0,0,0,0,0
3,39999,22,30000,6,0,40,9999,0.100000,0,0,0.000000,5,0.000000,0.000000,0.962337,0,0,0,0,0,0,0
3,39999,23,30000,53,0,40,9999,0.100000,0,0,0.000000,5,0.000000,0.000000,0.170897,0,0,0,0,0,0,0
3,39999,24,30000,6,0,40,9999,0.100000,0,0,0.000000,5,0.000000,0.000000,0.335268,0,0,0,0,0,0,0
3,39999,25,30000,62,0,49,9999,0.100000,0,0,0.000000,5,8.000000,0.000000,17.893351,0,0,0,0,0,0,0
3,39999,26,30000,53,0,40,9999,0.100000,0,0,0.000000,5,0.000000,0.000000,1.070131,0,0,0,0,0,0,0
3,39999,27,30000,5,10000,40,9999,0.100000,0,0,0.000000,5,0.000000,0.000000,0.125943,0,0,0,0,0,0,0
3,39999,28,30000,5,10000,40,9999,0.100000,0,0,0.000000,5,0.000000,0.000000,1.123491,0,0,0,0,0,0,0
3,39999,29,30000,45,10000,40,9999,0.100000,0,0,0.000000,5,0.000000,0.000000,0.178476,0,0,0,0,0,0,0
3,39999,30,30000,5,10000,40,9999,0.100000,0,0,0.000000,5,0.000000,0.000000,0.088382,0,0,0,0,0,0,0
3,39999,31,30000,6,0,40,9999,0.100000,0,0,0.000000,5,0.000000,0.000000,14.077362,0,0,0,0,0,0,0
3,39999,32,30000,62,0,49,9999,0.100000,0,0,0.000000,5,3.000000,0.000000,4.075112,0,0,0,0,0,0,0
3,39999,33,30000,53,0,40,9999,0.100000,0,0,0.000000,5,0.000000,0.000000,0.088514,0,0,0,0,0,0,0
3,39999,34,30000,6,0,49,9999,0.100000,0,0,0.000000,5,2.000000,0.000000,17.925072,0,0,0,0,0,0,0
3,39999,35,30000,62,0,40,9999,0.100000,0,0,0.000000,5,0.000000,0.000000,1.724225,0,0,0,0,0,0,0
3,39999,36,30000,53,0,40,9999,0.100000,0,0,0.000000,5,0.000000,0.000000,0.315702,0,0,0,0,0,0,0
3,39999,37,30000,5,10000,40,9999,0.100000,0,0,0.000000,5,0.000000,0.000000,1.165408,0,0,0,0,0,0,0
3,39999,38,30000,53,0,40,9999,0.100000,0,0,0.000000,5,0.000000,0.000000,0.304501,0,0,0,0,0,0,0
3,39999,39,30000,5,10000,40,9999,0.100000,0,0,0.000000,5,0.000000,0.000000,0.096179,0,0,0,0,0,0,0
3,39999,40,30000,53,0,40,9999,0.100000,0,0,0.000000,5,0.000000,0.000000,0.131755,0,0,0,0,0,0,0
3,39999,41,30000,53,0,40,9999,0.100000,0,0,0.000000,5,0.000000,0.000000,0.889821,0,0,0,0,0,0,0
3,39999,42,30000,53,0,40,9999,0.100000,0,0,0.000000,5,0.000000,0.000000,0.075786,0,0,0,0,0,0,0
3,39999,43,30000,53,0,40,9999,0.100000,0,0,0.000000,5,0.000000,0.000000,2.475834,0,0,0,0,0,0,0
3,39999,44,30000,62,0,40,9999,0.100000,0,0,0.000000,5,0.000000,0.000000,0.780927,0,0,0,0,0,0,0
3,39999,45,30000,45,10000,40,9999,0.100000,0,0,0.000000,5,0.000000,0.000000,1.610750,0,0,0,0,0,0,0
3,39999,46,30000,62,0,40,9999,0.100000,0,0,0.000000,5,0.000000,0.000000,14.285562,0,0,0,0,0,0,0
3,39999,47,30000,5,10000,49,9999,0.100000,0,0,0.000000,5,1.000000,0.000000,11.704508,0,0,0,0,0,0,0
3,39999,48,30000,45,10000,40,9999,0.100000,0,0,0.000000,5,0.000000,0.000000,1.090932,0,0,0,0,0,0,0
3,39999,49,30000,62,0,40,9999,0.100000,0,0,0.000000,5,0.000000,0.000000,0.092852,0,0,0,0,0,0,0
3,39999,50,30000,6,0,40,9999,0.100000,0,0,0.000000,5,0.000000,0.000000,0.366947,0,0,0,0,0,0,0
3,39999,51,30000,62,0,40,9999,0.100000,0,0,0.000000,5,0.000000,0.000000,0.113177,0,0,0,0,0,0,0
3,39999,52,30000,6,0,49,9999,0.100000,0,0,0.000000,5,2.000000,0.000000,4.983112,0,0,0,0,0,0,0
3,39999,53,30000,6,0,40,9999,0.100000,0,0,0.000000,5,0.000000,0.000000,0.485014,0,0,0,0,0,0,0
3,39999,54,30000,45,10000,40,9999,0.100000,0,0,0.000000,5,0.000000,0.000000,0.081063,0,0,0,0,0,0,0
3,39999,55,30000,5,10000,40,9999,0.100000,0,0,0.000000,5,0.000000,0.000000,0.507229,0,0,0,0,0,0,0
3,39999,56,30000,45,10000,40,9999,0.100000,0,0,0.000000,5,0.000000,0.000000,0.957813,0,0,0,0,0,0,0
3,39999,57,30000,62,0,40,9999,0.100000,0,0,0.000000,5,0.000000,0.000000,1.123140,0,0,0,0,0,0,0
3,39999,58,30000,53,0,49,9999,0.100000,0,0,0.000000,5,1.000000,0.000000,10.987355,0,0,0,0,0,0,0
3,39999,59,30000,5,10000,40,9999,0.100000,0,0,0.000000,5,0.000000,0.000000,0.600935,0,0,0,0,0,0,0
3,39999,60,30000,45,10000,49,9999,0.100000,0,0,0.000000,5,7.000000,0.000000,16.183769,0,0,0,0,0,0,0
3,39999,61,30000,53,0,40,9999,0.100000,0,0,0.000000,5,0.000000,0.000000,0.656088,0,0,0,0,0,0,0
3,39999,62,30000,62,0,40,9999,0.100000,0,0,0.000000,5,0.000000,0.000000,0.842573,0,0,0,0,0,0,0
3,39999,63,30000,45,10000,40,9999,0.100000,0,0,0.000000,5,0.000000,0.000000,0.112937,0,0,0,0,0,0,0
3,39999,64,30000,5,10000,40,9999,0.100000,0,0,0.000000,5,0.000000,0.000000,0.151729,0,0,0,0,0,0,0
3,39999,65,30000,6,0,40,9999,0.100000,0,0,0.000000,5,0.000000,0.000000,0.400850,0,0,0,0,0,0,0
3,39999,66,30000,45,10000,40,9999,0.100000,0,0,0.000000,5,0.000000,0.000000,0.107724,0,0,0,0,0,0,0
3,39999,67,30000,5,10000,40,9999,0.100000,0,0,0.000000,5,0.000000,0.000000,0.646451,0,0,0,0,0,0,0
3,39999,68,30000,6,0,40,9999,0.100000,0,0,0.000000,5,0.000000,0.000000,0.195190,0,0,0,0,0,0,0
3,39999,69,30000,53,0,40,9999,0.100000,0,0,0.000000,5,0.000000,0.000000,0.786723,0,0,0,0,0,0,0
3,39999,70,30000,5,10000,40,9999,0.100000,0,0,0.000000,5,0.000000,0.000000,0.203074,0,0,0,0,0,0,0
3,39999,71,30000,53,0,40,9999,0.100000,0,0,0.000000,5,0.000000,0.000000,0.182258,0,0,0,0,0,0,0
3,39999,72,30000,53,0,40,9999,0.100000,0,0,0.000000,5,0.000000,0.000000,0.564313,0,0,0,0,0,0,0
3,39999,73,30000,53,0,40,9999,0.100000,0,0,0.000000,5,0.000000,0.000000,0.157274,0,0,0,0,0,0,0
3,39999,74,30000,62,0,40,9999,0.100000,0,0,0.000000,5,0.000000,0.000000,1.476585,0,0,0,0,0,0,0
3,39999,75,30000,62,0,40,9999,0.100000,0,0,0.000000,5,0.000000,0.000000,0.175500,0,0,0,0,0,0,0
3,39999,76,30000,5,10000,40,9999,0.100000,0,0,0.000000,5,0.000000,0.000000,0.311628,0,0,0,0,0,0,0
3,39999,77,30000,53,0,49,9999,0.100000,0,0,0.000000,5,2.000000,0.000000,19.012477,0,0,0,0,0,0,0
3,39999,78,30000,62,0,40,9999,0.100000,0,0,0.000000,5,0.000000,0.000000,1.578436,0,0,0,0,0,0,0
3,39999,79,30000,53,0,40,9999,0.100000,0,0,0.000000,5,0.000000,0.000000,0.077172,0,0,0,0,0,0,0
3,39999,80,30000,53,0,40,9999,0.100000,0,0,0.000000,5,0.000000,0.000000,0.113394,0,0,0,0,0,0,0
3,39999,81,30000,62,0,40,9999,0.100000,0,0,0.000000,5,0.000000,0.000000,0.064123,0,0,0,0,0,0,0
3,39999,82,30000,45,10000,40,9999,0.100000,0,0,0.000000,5,0.000000,0.000000,0.693582,0,0,0,0,0,0,0
3,39999,83,30000,6,0,40,9999,0.100000,0,0,0.000000,5,0.000000,0.000000,0.213196,0,0,0,0,0,0,0
3,39999,84,30000,6,0,40,9999,0.100000,0,0,0.000000,5,0.000000,0.000000,0.114747,0,0,0,0,0,0,0
3,39999,85,30000,53,0,40,9999,0.100000,0,0,0.000000,5,0.000000,0.000000,0.991704,0,0,0,0,0,0,0
3,39999,86,30000,5,10000,40,9999,0.100000,0,0,0.000000,5,0.000000,0.000000,0.307085,0,0,0,0,0,0,0
3,39999,87,30000,6,0,40,9999,0.100000,0,0,0.000000,5,0.000000,0.000000,2.324621,0,0,0,0,0,0,0
3,39999,88,30000,6,0,40,9999,0.065000,0,0,0.000000,5,0.000000,0.000000,1.484354,0,0,0,0,0,0,0
3,39999,89,30000,6,0,40,9999,0.100000,0,0,0.000000,5,0.000000,0.000000,0.618054,0,0,0,0,0,0,0
3,39999,90,30000,6,0,40,9999,0.100000,0,0,0.000000,5,0.000000,0.000000,5.767909,0,0,0,0,0,0,0
3,39999,91,30000,6,0,40,9999,0.100000,0,0,0.000000,5,0.000000,0.000000,0.424788,0,0,0,0,0,0,0
3,39999,92,30000,62,0,40,9999,0.100000,0,0,0.000000,5,0.000000,0.000000,1.638451,0,0,0,0,0,0,0
3,39999,93,30000,53,0,40,9999,0.100000,0,0,0.000000,5,0.000000,0.000000,0.082010,0,0,0,0,0,0,0
3,39999,94,30000,62,0,40,9999,0.100000,0,0,0.000000,5,0.000000,0.000000,1.426695,0,0,0,0,0,0,0
3,39999,95,30000,45,10000,40,9999,0.100000,0,0,0.000000,5,0.000000,0.000000,0.345340,0,0,0,0,0,0,0
3,39999,96,30000,45,10000,40,9999,0.100000,0,0,0.000000,5,0.000000,0.000000,1.097110,0,0,0,0,0,0,0
3,39999,97,30000,45,10000,49,9999,0.100000,0,0,0.000000,5,1.000000,0.000000,3.375170,0,0,0,0,0,0,0
3,39999,98,30000,53,0,40,9999,0.100000,0,0,0.000000,5,0.000000,0.000000,3.860062,0,0,0,0,0,0,0
3,39999,99,30000,5,10000,40,9999,0.100000,0,0,0.000000,5,0.000000,0.000000,1.030979,0,0,0,0,0,0,0
4,49999,0,40000,62,0,40,9999,0.100000,0,0,0.000000,5,0.000000,0.000000,0.122162,0,0,0,0,0,0,0
4,49999,1,40000,62,0,40,9999,0.100000,0,0,0.000000,5,0.000000,0.000000,0.816275,0,0,0,0,0,0,0
4,49999,2,40000,5,10000,40,9999,0.100000,0,0,0.000000,5,0.000000,0.000000,1.550257,0,0,0,0,0,0,0
4,49999,3,40000,53,0,40,9999,0.100000,0,0,0.000000,5,0.000000,0.000000,0.398006,0,0,0,0,0,0,0
4,49999,4,40000,5,10000,40,9999,0.100000,0,0,0.000000,5,0.000000,0.000000,0.157482,0,0,0,0,0,0,0
4,49999,5,40000,5,10000,49,9999,0.100000,0,0,0.000000,5,2.000000,0.000000,6.955368,0,0,0,0,0,0,0
4,49999,6,40000,62,0,40,9999,0.100000,0,0,0.000000,5,0.000000,0.000000,3.347606,0,0,0,0,0,0,0
4,49999,7,40000,6,0,40,9999,0.100000,0,0,0.000000,5,0.000000,0.000000,4.061548,0,0,0,0,0,0,0
4,49999,8,40000,45,10000,40,9999,0.100000,0,0,0.000000,5,0.000000,0.000000,2.690042,0,0,0,0,0,0,0
4,49999,9,40000,62,0,40,9999,0.100000,0,0,0.000000,5,0.000000,0.000000,0.081101,0,0,0,0,0,0,0
4,49999,10,40000,5,10000,40,9999,0.100000,0,0,0.000000,5,0.000000,0.000000,0.096170,0,0,0,0,0,0,0
4,49999,11,40000,6,0,40,9999,0.100000,0,0,0.000000,5,0.000000,0.000000,0.060978,0,0,0,0,0,0,0
4,49999,12,40000,62,0,40,9999,0.100000,0,0,0.000000,5,0.000000,0.000000,0.072245,0,0,0,0,0,0,0
4,49999,13,40000,5,10000,40,9999,0.100000,0,0,0.000000,5,0.000000,0.000000,0.260449,0,0,0,0,0,0,0
4,49999,14,40000,5,10000,40,9999,0.100000,0,0,0.000000,5,0.000000,0.000000,0.075007,0,0,0,0,0,0,0
4,49999,15,40000,53,0,40,9999,0.100000,0,0,0.000000,5,0.000000,0.000000,0.958467,0,0,0,0,0,0,0
4,49999,16,40000,6,0,40,9999,0.100000,0,0,0.000000,5,0.000000,0.000000,0.095663,0,0,0,0,0,0,0
4,49999,17,40000,53,0,40,9999,0.100000,0,0,0.000000,5,0.000000,0.000000,2.839189,0,0,0,0,0,0,0
4,49999,18,40000,5,10000,40,9999,0.100000,0,0,0.000000,5,0.000000,0.000000,0.314291,0,0,0,0,0,0,0
4,49999,19,40000,53,0,40,9999,0.100000,0,0,0.000000,5,0.000000,0.000000,1.423951,0,0,0,0,0,0,0
4,49999,20,40000,5,10000,40,9999,0.100000,0,0,0.000000,5,0.000000,0.000000,3.974309,0,0,0,0,0,0,0
4,49999,21,40000,62,0,40,9999,0.100000,0,0,0.000000,5,0.000000,0.000000,0.510936,0,0,0,0,0,0,0
4,49999,22,40000,5,10000,40,9999,0.100000,0,0,0.000000,5,0.000000,0.000000,0.901154,0,0,0,0,0,0,0
4,49999,23,40000,5,10000,40,9999,0.100000,0,0,0.000000,5,0.000000,0.000000,0.156891,0,0,0,0,0,0,0
4,49999,24,40000,62,0,40,9999,0.100000,0,0,0.000000,5,0.000000,0.000000,0.306111,0,0,0,0,0,0,0
4,49999,25,40000,45,10000,40,9999,0.065000,0,0,0.000000,5,0.000000,0.000000,0.615809,0,0,0,0,0,0,0
4,49999,26,40000,45,10000,40,9999,0.100000,0,0,0.000000,5,0.000000,0.000000,0.110713,0,0,0,0,0,0,0
4,49999,27,40000,45,10000,40,9999,0.100000,0,0,0.000000,5,0.000000,0.000000,0.075643,0,0,0,0,0,0,0
4,49999,28,40000,53,0,40,9999,0.100000,0,0,0.000000,5,0.000000,0.000000,1.006683,0,0,0,0,0,0,0
4,49999,29,40000,53,0,40,9999,0.100000,0,0,0.000000,5,0.000000,0.000000,0.174872,0,0,0,0,0,0,0
4,49999,30,40000,6,0,40,9999,0.100000,0,0,0.000000,5,0.000000,0.000000,0.089118,0,0,0,0,0,0,0
4,49999,31,40000,45,10000,40,9999,0.100000,0,0,0.000000,5,0.000000,0.000000,0.247277,0,0,0,0,0,0,0
4,49999,32,40000,62,0,49,9999,0.100000,0,0,0.000000,5,1.000000,0.000000,2.342056,0,0,0,0,0,0,0
4,49999,33,40000,45,10000,40,9999,0.100000,0,0,0.000000,5,0.000000,0.000000,0.157342,0,0,0,0,0,0,0
4,49999,34,40000,5,10000,40,9999,0.100000,0,0,0.000000,5,0.000000,0.000000,17.368145,0,0,0,0,0,0,0
4,49999,35,40000,6,0,40,9999,0.100000,0,0,0.000000,5,0.000000,0.000000,0.873024,0,0,0,0,0,0,0
4,49999,36,40000,6,0,40,9999,0.100000,0,0,0.000000,5,0.000000,0.000000,0.408074,0,0,0,0,0,0,0
4,49999,37,40000,53,0,40,9999,0.100000,0,0,0.000000,5,0.000000,0.000000,1.155876,0,0,0,0,0,0,0
4,49999,38,40000,45,10000,40,9999,0.100000,0,0,0.000000,5,0.000000,0.000000,0.290121,0,0,0,0,0,0,0
4,49999,39,40000,53,0,40,9999,0.100000,0,0,0.000000,5,0.000000,0.000000,0.098254,0,0,0,0,0,0,0
4,49999,40,40000,5,10000,40,9999,0.100000,0,0,0.000000,5,0.000000,0.000000,0.129315,0,0,0,0,0,0,0
4,49999,41,40000,6,0,40,9999,0.100000,0,0,0.000000,5,0.000000,0.000000,0.548195,0,0,0,0,0,0,0
4,49999,42,40000,62,0,40,9999,0.100000,0,0,0.000000,5,0.000000,0.000000,0.118901,0,0,0,0,0,0,0
4,49999,43,40000,62,0,49,9999,0.100000,0,0,0.000000,5,1.000000,0.000000,11.199565,0,0,0,0,0,0,0
4,49999,44,40000,5,10000,40,9999,0.100000,0,0,0.000000,5,0.000000,0.000000,0.867765,0,0,0,0,0,0,0
4,49999,45,40000,6,0,40,9999,0.100000,0,0,0.000000,5,0.000000,0.000000,1.047442,0,0,0,0,0,0,0
4,49999,46,40000,6,0,40,9999,0.100000,0,0,0.000000,5,0.000000,0.000000,21.829313,0,0,0,0,0,0,0
4,49999,47,40000,6,0,49,9999,0.100000,0,0,0.000000,5,2.000000,0.000000,10.859350,0,0,0,0,0,0,0
4,49999,48,40000,45,10000,49,9999,0.100000,0,0,0.000000,5,4.000000,0.000000,10.483429,0,0,0,0,0,0,0
4,49999,49,40000,6,0,40,9999,0.100000,0,0,0.000000,5,0.000000,0.000000,0.090084,0,0,0,0,0,0,0
4,49999,50,40000,45,10000,40,9999,0.100000,0,0,0.000000,5,0.000000,0.000000,0.338685,0,0,0,0,0,0,0
4,49999,51,40000,5,10000,40,9999,0.100000,0,0,0.000000,5,0.000000,0.000000,0.114932,0,0,0,0,0,0,0
4,49999,52,40000,53,0,40,9999,0.100000,0,0,0.000000,5,0.000000,0.000000,0.170088,0,0,0,0,0,0,0
4,49999,53,40000,62,0,40,9999,0.100000,0,0,0.000000,5,0.000000,0.000000,0.454969,0,0,0,0,0,0,0
4,49999,54,40000,62,0,40,9999,0.100000,0,0,0.000000,5,0.000000,0.000000,0.081312,0,0,0,0,0,0,0
4,49999,55,40000,6,0,40,9999,0.100000,0,0,0.000000,5,0.000000,0.000000,0.686027,0,0,0,0,0,0,0
4,49999,56,40000,6,0,40,9999,0.100000,0,0,0.000000,5,0.000000,0.000000,1.606435,0,0,0,0,0,0,0
4,49999,57,40000,6,0,40,9999,0.100000,0,0,0.000000,5,0.000000,0.000000,2.384849,0,0,0,0,0,0,0
4,49999,58,40000,62,0,40,9999,0.100000,0,0,0.000000,5,0.000000,0.000000,8.464727,0,0,0,0,0,0,0
4,49999,59,40000,62,0,40,9999,0.100000,0,0,0.000000,5,0.000000,0.000000,1.177160,0,0,0,0,0,0,0
4,49999,60,40000,6,0,9,9999,0.100000,0,0,0.000000,5,4.000000,0.000000,12.574442,0,0,0,1,0,0,0
4,49999,61,40000,45,10000,40,9999,0.100000,0,0,0.000000,5,0.000000,0.000000,0.412877,0,0,0,0,0,0,0
4,49999,62,40000,53,0,40,9999,0.100000,0,0,0.000000,5,0.000000,0.000000,0.766499,0,0,0,0,0,0,0
4,49999,63,40000,6,0,40,9999,0.100000,0,0,0.000000,5,0.000000,0.000000,0.059824,0,0,0,0,0,0,0
4,49999,64,40000,6,0,40,9999,0.100000,0,0,0.000000,5,0.000000,0.000000,0.463100,0,0,0,0,0,0,0
4,49999,65,40000,53,0,0,9999,0.100000,0,0,0.000000,5,0.000000,0.000000,2.926115,0,0,0,2,0,0,0
4,49999,66,40000,45,10000,40,9999,0.100000,0,0,0.000000,5,0.000000,0.000000,0.093676,0,0,0,0,0,0,0
4,49999,67,40000,62,0,40,9999,0.100000,0,0,0.000000,5,0.000000,0.000000,0.653549,0,0,0,0,0,0,0
4,49999,68,40000,5,10000,40,9999,0.100000,0,0,0.000000,5,0.000000,0.000000,0.105440,0,0,0,0,0,0,0
4,49999,69,40000,5,10000,40,9999,0.100000,0,0,0.000000,5,0.000000,0.000000,1.180394,0,0,0,0,0,0,0
4,49999,70,40000,53,0,40,9999,0.100000,0,0,0.000000,5,0.000000,0.000000,0.819544,0,0,0,0,0,0,0
4,49999,71,40000,45,10000,40,9999,0.100000,0,0,0.000000,5,0.000000,0.000000,0.426832,0,0,0,0,0,0,0
4,49999,72,40000,6,0,40,9999,0.100000,0,0,0.000000,5,0.000000,0.000000,0.718580,0,0,0,0,0,0,0
4,49999,73,40000,62,0,40,9999,0.100000,0,0,0.000000,5,0.000000,0.000000,0.103378,0,0,0,0,0,0,0
4,49999,74,40000,45,10000,40,9999,0.100000,0,0,0.000000,5,0.000000,0.000000,1.399931,0,0,0,0,0,0,0
4,49999,75,40000,5,10000,40,9999,0.100000,0,0,0.000000,5,0.000000,0.000000,0.178526,0,0,0,0,0,0,0
4,49999,76,40000,62,0,40,9999,0.100000,0,0,0.000000,5,0.000000,0.000000,0.322218,0,0,0,0,0,0,0
4,49999,77,40000,62,0,40,9999,0.100000,0,0,0.000000,5,0.000000,0.000000,1.284609,0,0,0,0,0,0,0
4,49999,78,40000,53,0,49,9999,0.100000,0,0,0.000000,5,1.000000,0.000000,6.738887,0,0,0,0,0,0,0
4,49999,79,40000,53,0,40,9999,0.100000,0,0,0.000000,5,0.000000,0.000000,0.078340,0,0,0,0,0,0,0
4,49999,80,40000,6,0,40,9999,0.100000,0,0,0.000000,5,0.000000,0.000000,0.114194,0,0,0,0,0,0,0
4,49999,81,40000,62,0,40,9999,0.100000,0,0,0.000000,5,0.000000,0.000000,0.064541,0,0,0,0,0,0,0
4,49999,82,40000,6,0,40,9999,0.100000,0,0,0.000000,5,0.000000,0.000000,0.949829,0,0,0,0,0,0,0
4,49999,83,40000,5,10000,40,9999,0.100000,0,0,0.000000,5,0.000000,0.000000,0.250332,0,0,0,0,0,0,0
4,49999,84,40000,53,0,40,9999,0.100000,0,0,0.000000,5,0.000000,0.000000,0.112799,0,0,0,0,0,0,0
4,49999,85,40000,6,0,40,9999,0.100000,0,0,0.000000,5,0.000000,0.000000,0.993858,0,0,0,0,0,0,0
4,49999,86,40000,5,10000,40,9999,0.100000,0,0,0.000000,5,0.000000,0.000000,0.295578,0,0,0,0,0,0,0
4,49999,87,40000,45,10000,40,9999,0.100000,0,0,0.000000,5,0.000000,0.000000,0.167389,0,0,0,0,0,0,0
4,49999,88,40000,6,0,40,9999,0.100000,0,0,0.000000,5,0.000000,0.000000,3.144930,0,0,0,0,0,0,0
4,49999,89,40000,45,10000,40,9999,0.100000,0,0,0.000000,5,0.000000,0.000000,0.592092,0,0,0,0,0,0,0
4,49999,90,40000,5,10000,40,9999,0.100000,0,0,0.000000,5,0.000000,0.000000,5.807898,0,0,0,0,0,0,0
4,49999,91,40000,6,0,40,9999,0.100000,0,0,0.000000,5,0.000000,0.000000,0.413952,0,0,0,0,0,0,0
4,49999,92,40000,5,10000,40,9999,0.100000,0,0,0.000000,5,0.000000,0.000000,1.828513,0,0,0,0,0,0,0
4,49999,93,40000,53,0,40,9999,0.100000,0,0,0.000000,5,0.000000,0.000000,0.081148,0,0,0,0,0,0,0
4,49999,94,40000,62,0,40,9999,0.100000,0,0,0.000000,5,0.000000,0.000000,0.863079,0,0,0,0,0,0,0
4,49999,95,40000,62,0,40,9999,0.100000,0,0,0.000000,5,0.000000,0.000000,0.356469,0,0,0,0,0,0,0
4,49999,96,40000,45,10000,40,9999,0.100000,0,0,0.000000,5,0.000000,0.000000,2.771397,0,0,0,0,0,0,0
4,49999,97,40000,6,0,40,9999,0.100000,0,0,0.000000,5,0.000000,0.000000,2.345577,0,0,0,0,0,0,0
4,49999,98,40000,45,10000,40,9999,0.100000,0,0,0.000000,5,0.000000,0.000000,3.696963,0,0,0,0,0,0,0
4,49999,99,40000,62,0,40,9999,0.100000,0,0,0.000000,5,0.000000,0.000000,0.658792,0,0,0,0,0,0,0
5,59999,0,50000,53,0,40,9999,0.100000,0,0,0.000000,5,0.000000,0.000000,0.120564,0,0,0,0,0,0,0
5,59999,1,50000,62,0,40,9999,0.100000,0,0,0.000000,5,0.000000,0.000000,1.340573,0,0,0,0,0,0,0
5,59999,2,50000,62,0,40,9999,0.100000,0,0,0.000000,5,0.000000,0.000000,1.709570,0,0,0,0,0,0,0
5,59999,3,50000,53,0,40,9999,0.100000,0,0,0.000000,5,0.000000,0.000000,0.423175,0,0,0,0,0,0,0
5,59999,4,50000,5,10000,40,9999,0.100000,0,0,0.000000,5,0.000000,0.000000,0.167341,0,0,0,0,0,0,0
5,59999,5,50000,6,0,40,9999,0.100000,0,0,0.000000,5,0.000000,0.000000,0.968917,0,0,0,0,0,0,0
5,59999,6,50000,45,10000,40,9999,0.100000,0,0,0.000000,5,0.000000,0.000000,1.354887,0,0,0,0,0,0,0
5,59999,7,50000,45,10000,40,9999,0.100000,0,0,0.000000,5,0.000000,0.000000,0.300569,0,0,0,0,0,0,0
5,59999,8,50000,62,0,49,9999,0.100000,0,0,0.000000,5,5.000000,0.000000,8.422190,0,0,0,0,0,0,0
5,59999,9,50000,53,0,40,9999,0.100000,0,0,0.000000,5,0.000000,0.000000,0.078649,0,0,0,0,0,0,0
5,59999,10,50000,45,10000,40,9999,0.100000,0,0,0.000000,5,0.000000,0.000000,0.127983,0,0,0,0,0,0,0
5,59999,11,50000,62,0,40,9999,0.100000,0,0,0.000000,5,0.000000,0.000000,0.374855,0,0,0,0,0,0,0
5,59999,12,50000,62,0,40,9999,0.100000,0,0,0.000000,5,0.000000,0.000000,0.072354,0,0,0,0,0,0,0
5,59999,13,50000,62,0,40,9999,0.100000,0,0,0.000000,5,0.000000,0.000000,0.235211,0,0,0,0,0,0,0
5,59999,14,50000,5,10000,40,9999,0.100000,0,0,0.000000,5,0.000000,0.000000,0.134061,0,0,0,0,0,0,0
5,59999,15,50000,5,10000,40,9999,0.100000,0,0,0.000000,5,0.000000,0.000000,0.773489,0,0,0,0,0,0,0
5,59999,16,50000,6,0,40,9999,0.100000,0,0,0.000000,5,0.000000,0.000000,0.136613,0,0,0,0,0,0,0
5,59999,17,50000,62,0,40,9999,0.100000,0,0,0.000000,5,0.000000,0.000000,1.943566,0,0,0,0,0,0,0
5,59999,18,50000,45,10000,40,9999,0.100000,0,0,0.000000,5,0.000000,0.000000,0.979385,0,0,0,0,0,0,0
5,59999,19,50000,62,0,40,9999,0.100000,0,0,0.000000,5,0.000000,0.000000,0.097800,0,0,0,0,0,0,0
5,59999,20,50000,53,0,40,9999,0.100000,0,0,0.000000,5,0.000000,0.000000,5.402445,0,0,0,0,0,0,0
5,59999,21,50000,53,0,40,9999,0.100000,0,0,0.000000,5,0.000000,0.000000,0.364766,0,0,0,0,0,0,0
5,59999,22,50000,53,0,40,9999,0.100000,0,0,0.000000,5,0.000000,0.000000,0.935756,0,0,0,0,0,0,0
5,59999,23,50000,5,10000,40,9999,0.100000,0,0,0.000000,5,0.000000,0.000000,0.154349,0,0,0,0,0,0,0
5,59999,24,50000,6,0,40,9999,0.100000,0,0,0.000000,5,0.000000,0.000000,0.514289,0,0,0,0,0,0,0
5,59999,25,50000,45,10000,40,9999,0.100000,0,0,0.000000,5,0.000000,0.000000,0.251549,0,0,0,0,0,0,0
5,59999,26,50000,6,0,40,9999,0.100000,0,0,0.000000,5,0.000000,0.000000,0.170295,0,0,0,0,0,0,0
5,59999,27,50000,6,0,40,9999,0.100000,0,0,0.000000,5,0.000000,0.000000,0.079812,0,0,0,0,0,0,0
5,59999,28,50000,6,0,40,9999,0.100000,0,0,0.000000,5,0.000000,0.000000,0.887615,0,0,0,0,0,0,0
5,59999,29,50000,45,10000,40,9999,0.100000,0,0,0.000000,5,0.000000,0.000000,0.166528,0,0,0,0,0,0,0
5,59999,30,50000,62,0,40,9999,0.100000,0,0,0.000000,5,0.000000,0.000000,0.101075,0,0,0,0,0,0,0
5,59999,31,50000,5,10000,40,9999,0.100000,0,0,0.000000,5,0.000000,0.000000,0.386831,0,0,0,0,0,0,0
5,59999,32,50000,5,10000,40,9999,0.100000,0,0,0.000000,5,0.000000,0.000000,1.719246,0,0,0,0,0,0,0
5,59999,33,50000,6,0,40,9999,0.100000,0,0,0.000000,5,0.000000,0.000000,0.121831,0,0,0,0,0,0,0
5,59999,34,50000,62,0,40,9999,0.100000,0,0,0.000000,5,0.000000,0.000000,15.809789,0,0,0,0,0,0,0
5,59999,35,50000,62,0,40,9999,0.100000,0,0,0.000000,5,0.000000,0.000000,0.248770,0,0,0,0,0,0,0
5,59999,36,50000,5,10000,49,9999,0.100000,0,0,0.000000,5,1.000000,0.000000,1.745403,0,0,0,0,0,0,0
5,59999,37,50000,62,0,40,9999,0.100000,0,0,0.000000,5,0.000000,0.000000,1.238194,0,0,0,0,0,0,0
5,59999,38,50000,53,0,40,9999,0.100000,0,0,0.000000,5,0.000000,0.000000,0.273316,0,0,0,0,0,0,0
5,59999,39,50000,6,0,40,9999,0.100000,0,0,0.000000,5,0.000000,0.000000,0.095378,0,0,0,0,0,0,0
5,59999,40,50000,53,0,40,9999,0.100000,0,0,0.000000,5,0.000000,0.000000,0.128295,0,0,0,0,0,0,0
5,59999,41,50000,5,10000,40,9999,0.100000,0,0,0.000000,5,0.000000,0.000000,0.504348,0,0,0,0,0,0,0
5,59999,42,50000,45,10000,40,9999,0.100000,0,0,0.000000,5,0.000000,0.000000,0.222452,0,0,0,0,0,0,0
5,59999,43,50000,45,10000,40,9999,0.100000,0,0,0.000000,5,0.000000,0.000000,0.930419,0,0,0,0,0,0,0
5,59999,44,50000,62,0,40,9999,0.100000,0,0,0.000000,5,0.000000,0.000000,1.403852,0,0,0,0,0,0,0
5,59999,45,50000,53,0,49,9999,0.100000,0,0,0.000000,5,1.000000,0.000000,6.653929,0,0,0,0,0,0,0
5,59999,46,50000,5,10000,49,9999,0.100000,0,0,0.000000,5,4.000000,0.000000,13.675671,0,0,0,0,0,0,0
5,59999,47,50000,45,10000,49,9999,0.100000,0,0,0.000000,5,3.000000,0.000000,10.012039,0,0,0,0,0,0,0
5,59999,48,50000,5,10000,40,9999,0.100000,0,0,0.000000,5,0.000000,0.000000,0.686803,0,0,0,0,0,0,0
5,59999,49,50000,53,0,40,9999,0.100000,0,0,0.000000,5,0.000000,0.000000,0.101844,0,0,0,0,0,0,0
5,59999,50,50000,6,0,40,9999,0.100000,0,0,0.000000,5,0.000000,0.000000,0.329341,0,0,0,0,0,0,0
5,59999,51,50000,53,0,40,9999,0.100000,0,0,0.000000,5,0.000000,0.000000,0.110179,0,0,0,0,0,0,0
5,59999,52,50000,6,0,40,9999,0.100000,0,0,0.000000,5,0.000000,0.000000,0.171493,0,0,0,0,0,0,0
5,59999,53,50000,45,10000,40,9999,0.100000,0,0,0.000000,5,0.000000,0.000000,0.843452,0,0,0,0,0,0,0
5,59999,54,50000,62,0,40,9999,0.100000,0,0,0.000000,5,0.000000,0.000000,0.086350,0,0,0,0,0,0,0
5,59999,55,50000,53,0,49,9999,0.100000,0,0,0.000000,5,1.000000,0.000000,1.294483,0,0,0,0,0,0,0
5,59999,56,50000,62,0,40,9999,0.100000,0,0,0.000000,5,0.000000,0.000000,0.318749,0,0,0,0,0,0,0
5,59999,57,50000,45,10000,49,9999,0.100000,0,0,0.000000,5,5.000000,0.000000,7.729895,0,0,0,0,0,0,0
5,59999,58,50000,45,10000,40,9999,0.100000,0,0,0.000000,5,0.000000,0.000000,1.999095,0,0,0,0,0,0,0
5,59999,59,50000,45,10000,49,9999,0.100000,0,0,0.000000,5,1.000000,0.000000,3.753106,0,0,0,0,0,0,0
5,59999,60,50000,5,10000,49,9999,0.100000,0,0,0.000000,5,1.000000,0.000000,9.698986,0,0,0,0,0,0,0
5,59999,61,50000,53,0,40,9999,0.100000,0,0,0.000000,5,0.000000,0.000000,1.646566,0,0,0,0,0,0,0
5,59999,62,50000,53,0,49,9999,0.100000,0,0,0.000000,5,1.000000,0.000000,4.546325,0,0,0,0,0,0,0
5,59999,63,50000,45,10000,40,9999,0.100000,0,0,0.000000,5,0.000000,0.000000,0.059876,0,0,0,0,0,0,0
5,59999,64,50000,6,0,40,9999,0.100000,0,0,0.000000,5,0.000000,0.000000,0.740466,0,0,0,0,0,0,0
5,59999,65,50000,5,10000,40,9999,0.100000,0,0,0.000000,5,0.000000,0.000000,0.130852,0,0,0,0,0,0,0
5,59999,66,50000,53,0,40,9999,0.135000,0,0,0.000000,5,0.000000,0.000000,0.110385,0,0,0,0,0,0,0
5,59999,67,50000,62,0,40,9999,0.100000,0,0,0.000000,5,0.000000,0.000000,0.959321,0,0,0,0,0,0,0
5,59999,68,50000,45,10000,40,9999,0.100000,0,0,0.000000,5,0.000000,0.000000,0.116759,0,0,0,0,0,0,0
5,59999,69,50000,6,0,49,9999,0.100000,0,0,0.000000,5,4.000000,0.000000,6.134003,0,0,0,0,0,0,0
5,59999,70,50000,5,10000,40,9999,0.100000,0,0,0.000000,5,0.000000,0.000000,1.359695,0,0,0,0,0,0,0
5,59999,71,50000,45,10000,40,9999,0.100000,0,0,0.000000,5,0.000000,0.000000,0.904718,0,0,0,0,0,0,0
5,59999,72,50000,5,10000,40,9999,0.100000,0,0,0.000000,5,0.000000,0.000000,0.730572,0,0,0,0,0,0,0
5,59999,73,50000,62,0,40,9999,0.100000,0,0,0.000000,5,0.000000,0.000000,0.165434,0,0,0,0,0,0,0
5,59999,74,50000,53,0,40,9999,0.100000,0,0,0.000000,5,0.000000,0.000000,1.335220,0,0,0,0,0,0,0
5,59999,75,50000,45,10000,40,9999,0.100000,0,0,0.000000,5,0.000000,0.000000,0.171084,0,0,0,0,0,0,0
5,59999,76,50000,45,10000,40,9999,0.100000,0,0,0.000000,5,0.000000,0.000000,0.372515,0,0,0,0,0,0,0
5,59999,77,50000,6,0,40,9999,0.100000,0,0,0.000000,5,0.000000,0.000000,0.270421,0,0,0,0,0,0,0
5,59999,78,50000,6,0,40,9999,0.100000,0,0,0.000000,5,0.000000,0.000000,1.635869,0,0,0,0,0,0,0
5,59999,79,50000,62,0,40,9999,0.100000,0,0,0.000000,5,0.000000,0.000000,0.079361,0,0,0,0,0,0,0
5,59999,80,50000,5,10000,40,9999,0.100000,0,0,0.000000,5,0.000000,0.000000,0.114964,0,0,0,0,0,0,0
5,59999,81,50000,6,0,40,9999,0.100000,0,0,0.000000,5,0.000000,0.000000,0.097170,0,0,0,0,0,0,0
5,59999,82,50000,5,10000,40,9999,0.100000,0,0,0.000000,5,0.000000,0.000000,1.273417,0,0,0,0,0,0,0
5,59999,83,50000,53,0,40,9999,0.100000,0,0,0.000000,5,0.000000,0.000000,0.186529,0,0,0,0,0,0,0
5,59999,84,50000,45,10000,40,9999,0.100000,0,0,0.000000,5,0.000000,0.000000,0.112025,0,0,0,0,0,0,0
5,59999,85,50000,62,0,40,9999,0.100000,0,0,0.000000,5,0.000000,0.000000,0.923322,0,0,0,0,0,0,0
5,59999,86,50000,6,0,40,9999,0.100000,0,0,0.000000,5,0.000000,0.000000,0.302715,0,0,0,0,0,0,0
5,59999,87,50000,6,0,40,9999,0.100000,0,0,0.000000,5,0.000000,0.000000,0.162288,0,0,0,0,0,0,0
5,59999,88,40000,6,0,49,19999,0.100000,0,0,0.000000,5,2.000000,0.000000,11.054744,0,0,0,0,0,0,0
5,59999,89,50000,53,0,40,9999,0.100000,0,0,0.000000,5,0.000000,0.000000,0.613634,0,0,0,0,0,0,0
5,59999,90,50000,6,0,49,9999,0.100000,0,0,0.000000,5,1.000000,0.000000,6.396620,0,0,0,0,0,0,0
5,59999,91,50000,5,10000,40,9999,0.100000,0,0,0.000000,5,0.000000,0.000000,0.577307,0,0,0,0,0,0,0
5,59999,92,50000,53,0,40,9999,0.135000,0,0,0.000000,5,0.000000,0.000000,1.931380,0,0,0,0,0,0,0
5,59999,93,50000,5,10000,40,9999,0.100000,0,0,0.000000,5,0.000000,0.000000,0.082768,0,0,0,0,0,0,0
5,59999,94,50000,6,0,40,9999,0.100000,0,0,0.000000,5,0.000000,0.000000,1.002648,0,0,0,0,0,0,0
5,59999,95,50000,45,10000,40,9999,0.100000,0,0,0.000000,5,0.000000,0.000000,0.514904,0,0,0,0,0,0,0
5,59999,96,50000,62,0,40,9999,0.100000,0,0,0.000000,5,0.000000,0.000000,0.136227,0,0,0,0,0,0,0
5,59999,97,50000,5,10000,40,9999,0.100000,0,0,0.000000,5,0.000000,0.000000,0.918057,0,0,0,0,0,0,0
5,59999,98,50000,62,0,40,9999,0.100000,0,0,0.000000,5,0.000000,0.000000,0.154310,0,0,0,0,0,0,0
5,59999,99,50000,6,0,40,9999,0.100000,0,0,0.000000,5,0.000000,0.000000,0.190013,0,0,0,0,0,0,0
6,69999,0,60000,53,0,40,9999,0.100000,0,0,0.000000,5,0.000000,0.000000,0.130075,0,0,0,0,0,0,0
6,69999,1,60000,62,0,40,9999,0.100000,0,0,0.000000,5,0.000000,0.000000,1.522492,0,0,0,0,0,0,0
6,69999,2,60000,62,0,40,9999,0.100000,0,0,0.000000,5,0.000000,0.000000,1.739677,0,0,0,0,0,0,0
6,69999,3,60000,6,0,40,9999,0.100000,0,0,0.000000,5,0.000000,0.000000,0.472564,0,0,0,0,0,0,0
6,69999,4,60000,62,0,40,9999,0.100000,0,0,0.000000,5,0.000000,0.000000,0.136659,0,0,0,0,0,0,0
6,69999,5,60000,62,0,40,9999,0.100000,0,0,0.000000,5,0.000000,0.000000,0.621232,0,0,0,0,0,0,0
6,69999,6,60000,62,0,40,9999,0.100000,0,0,0.000000,5,0.000000,0.000000,1.011119,0,0,0,0,0,0,0
6,69999,7,60000,45,10000,40,9999,0.100000,0,0,0.000000,5,0.000000,0.000000,0.210774,0,0,0,0,0,0,0
6,69999,8,60000,53,0,49,9999,0.100000,0,0,0.000000,5,6.000000,0.000000,15.052545,0,0,0,0,0,0,0
6,69999,9,60000,62,0,40,9999,0.100000,0,0,0.000000,5,0.000000,0.000000,0.078264,0,0,0,0,0,0,0
6,69999,10,60000,53,0,40,9999,0.100000,0,0,0.000000,5,0.000000,0.000000,0.119910,0,0,0,0,0,0,0
6,69999,11,60000,6,0,40,9999,0.100000,0,0,0.000000,5,0.000000,0.000000,0.244866,0,0,0,0,0,0,0
6,69999,12,60000,5,10000,40,9999,0.100000,0,0,0.000000,5,0.000000,0.000000,0.072636,0,0,0,0,0,0,0
6,69999,13,60000,53,0,40,9999,0.100000,0,0,0.000000,5,0.000000,0.000000,0.221973,0,0,0,0,0,0,0
6,69999,14,60000,53,0,40,9999,0.100000,0,0,0.000000,5,0.000000,0.000000,0.478490,0,0,0,0,0,0,0
6,69999,15,60000,62,0,40,9999,0.100000,0,0,0.000000,5,0.000000,0.000000,0.816162,0,0,0,0,0,0,0
6,69999,16,60000,5,10000,40,9999,0.100000,0,0,0.000000,5,0.000000,0.000000,0.363101,0,0,0,0,0,0,0
6,69999,17,60000,45,10000,40,9999,0.100000,0,0,0.000000,5,0.000000,0.000000,0.130532,0,0,0,0,0,0,0
6,69999,18,60000,5,10000,40,9999,0.100000,0,0,0.000000,5,0.000000,0.000000,1.202187,0,0,0,0,0,0,0
6,69999,19,60000,6,0,40,9999,0.100000,0,0,0.000000,5,0.000000,0.000000,0.114742,0,0,0,0,0,0,0
6,69999,20,60000,53,0,40,9999,0.100000,0,0,0.000000,5,0.000000,0.000000,0.577703,0,0,0,0,0,0,0
6,69999,21,60000,6,0,40,9999,0.100000,0,0,0.000000,5,0.000000,0.000000,0.314352,0,0,0,0,0,0,0
6,69999,22,60000,62,0,49,9999,0.100000,0,0,0.000000,5,3.000000,0.000000,5.666258,0,0,0,0,0,0,0
6,69999,23,60000,5,10000,40,9999,0.100000,0,0,0.000000,5,0.000000,0.000000,0.152247,0,0,0,0,0,0,0
6,69999,24,60000,53,0,40,9999,0.100000,0,0,0.000000,5,0.000000,0.000000,0.192337,0,0,0,0,0,0,0
6,69999,25,60000,62,0,40,9999,0.100000,0,0,0.000000,5,0.000000,0.000000,0.224301,0,0,0,0,0,0,0
6,69999,26,60000,5,10000,40,9999,0.100000,0,0,0.000000,5,0.000000,0.000000,0.230696,0,0,0,0,0,0,0
6,69999,27,60000,53,0,40,9999,0.100000,0,0,0.000000,5,0.000000,0.000000,0.074262,0,0,0,0,0,0,0
6,69999,28,60000,5,10000,40,9999,0.100000,0,0,0.000000,5,0.000000,0.000000,0.899785,0,0,0,0,0,0,0
6,69999,29,60000,53,0,40,9999,0.100000,0,0,0.000000,5,0.000000,0.000000,0.133085,0,0,0,0,0,0,0
6,69999,30,60000,53,0,40,9999,0.100000,0,0,0.000000,5,0.000000,0.000000,0.228855,0,0,0,0,0,0,0
6,69999,31,60000,6,0,40,9999,0.100000,0,0,0.000000,5,0.000000,0.000000,0.158308,0,0,0,0,0,0,0
6,69999,32,60000,62,0,40,9999,0.100000,0,0,0.000000,5,0.000000,0.000000,1.491323,0,0,0,0,0,0,0
6,69999,33,60000,62,0,40,9999,0.100000,0,0,0.000000,5,0.000000,0.000000,0.160718,0,0,0,0,0,0,0
6,69999,34,60000,53,0,40,9999,0.100000,0,0,0.000000,5,0.000000,0.000000,0.781046,0,0,0,0,0,0,0
6,69999,35,60000,6,0,40,9999,0.100000,0,0,0.000000,5,0.000000,0.000000,2.788526,0,0,0,0,0,0,0
6,69999,36,60000,5,10000,40,9999,0.100000,0,0,0.000000,5,0.000000,0.000000,0.985811,0,0,0,0,0,0,0
6,69999,37,60000,53,0,40,9999,0.100000,0,0,0.000000,5,0.000000,0.000000,1.466647,0,0,0,0,0,0,0
6,69999,38,60000,53,0,40,9999,0.100000,0,0,0.000000,5,0.000000,0.000000,0.263518,0,0,0,0,0,0,0
6,69999,39,60000,45,10000,40,9999,0.100000,0,0,0.000000,5,0.000000,0.000000,0.095835,0,0,0,0,0,0,0
6,69999,40,60000,53,0,40,9999,0.100000,0,0,0.000000,5,0.000000,0.000000,0.137438,0,0,0,0,0,0,0
6,69999,41,60000,45,10000,40,9999,0.100000,0,0,0.000000,5,0.000000,0.000000,0.354087,0,0,0,0,0,0,0
6,69999,42,60000,53,0,40,9999,0.100000,0,0,0.000000,5,0.000000,0.000000,0.248560,0,0,0,0,0,0,0
6,69999,43,60000,62,0,40,9999,0.100000,0,0,0.000000,5,0.000000,0.000000,0.896679,0,0,0,0,0,0,0
6,69999,44,60000,5,10000,40,9999,0.100000,0,0,0.000000,5,0.000000,0.000000,0.656402,0,0,0,0,0,0,0
6,69999,45,60000,5,10000,40,9999,0.100000,0,0,0.000000,5,0.000000,0.000000,12.687207,0,0,0,0,0,0,0
6,69999,46,60000,53,0,40,9999,0.100000,0,0,0.000000,5,0.000000,0.000000,0.932064,0,0,0,0,0,0,0
6,69999,47,60000,45,10000,40,9999,0.100000,0,0,0.000000,5,0.000000,0.000000,10.339871,0,0,0,0,0,0,0
6,69999,48,60000,6,0,40,9999,0.100000,0,0,0.000000,5,0.000000,0.000000,0.194604,0,0,0,0,0,0,0
6,69999,49,60000,53,0,40,9999,0.100000,0,0,0.000000,5,0.000000,0.000000,0.207278,0,0,0,0,0,0,0
6,69999,50,60000,5,10000,40,9999,0.100000,0,0,0.000000,5,0.000000,0.000000,0.307804,0,0,0,0,0,0,0
6,69999,51,60000,5,10000,40,9999,0.100000,0,0,0.000000,5,0.000000,0.000000,0.118441,0,0,0,0,0,0,0
6,69999,52,60000,62,0,40,9999,0.100000,0,0,0.000000,5,0.000000,0.000000,0.219151,0,0,0,0,0,0,0
6,69999,53,60000,6,0,40,9999,0.100000,0,0,0.000000,5,0.000000,0.000000,0.559000,0,0,0,0,0,0,0
6,69999,54,60000,45,10000,40,9999,0.100000,0,0,0.000000,5,0.000000,0.000000,0.079150,0,0,0,0,0,0,0
6,69999,55,60000,6,0,40,9999,0.100000,0,0,0.000000,5,0.000000,0.000000,0.419662,0,0,0,0,0,0,0
6,69999,56,60000,5,10000,40,9999,0.100000,0,0,0.000000,5,0.000000,0.000000,0.282928,0,0,0,0,0,0,0
6,69999,57,60000,53,0,40,9999,0.100000,0,0,0.000000,5,0.000000,0.000000,1.065477,0,0,0,0,0,0,0
6,69999,58,60000,6,0,40,9999,0.100000,0,0,0.000000,5,0.000000,0.000000,0.520471,0,0,0,0,0,0,0
6,69999,59,60000,53,0,40,9999,0.100000,0,0,0.000000,5,0.000000,0.000000,1.173904,0,0,0,0,0,0,0
6,69999,60,60000,53,0,40,9999,0.100000,0,0,0.000000,5,0.000000,0.000000,0.997686,0,0,0,0,0,0,0
6,69999,61,60000,53,0,40,9999,0.100000,0,0,0.000000,5,0.000000,0.000000,0.317176,0,0,0,0,0,0,0
6,69999,62,60000,62,0,40,9999,0.100000,0,0,0.000000,5,0.000000,0.000000,0.918118,0,0,0,0,0,0,0
6,69999,63,60000,45,10000,40,9999,0.100000,0,0,0.000000,5,0.000000,0.000000,0.129607,0,0,0,0,0,0,0
6,69999,64,60000,6,0,40,9999,0.100000,0,0,0.000000,5,0.000000,0.000000,2.002578,0,0,0,0,0,0,0
6,69999,65,60000,45,10000,0,9999,0.100000,0,0,0.000000,5,0.000000,0.000000,0.176309,0,0,0,2,0,0,0
6,69999,66,60000,45,10000,40,9999,0.100000,0,0,0.000000,5,0.000000,0.000000,0.107506,0,0,0,0,0,0,0
6,69999,67,60000,62,0,40,9999,0.100000,0,0,0.000000,5,0.000000,0.000000,0.202225,0,0,0,0,0,0,0
6,69999,68,60000,53,0,40,9999,0.100000,0,0,0.000000,5,0.000000,0.000000,0.123702,0,0,0,0,0,0,0
6,69999,69,60000,53,0,49,9999,0.100000,0,0,0.000000,5,6.000000,0.000000,7.583619,0,0,0,0,0,0,0
6,69999,70,60000,5,10000,40,9999,0.100000,0,0,0.000000,5,0.000000,0.000000,1.346899,0,0,0,0,0,0,0
6,69999,71,60000,53,0,40,9999,0.100000,0,0,0.000000,5,0.000000,0.000000,0.500520,0,0,0,0,0,0,0
6,69999,72,60000,6,0,40,9999,0.100000,0,0,0.000000,5,0.000000,0.000000,0.719312,0,0,0,0,0,0,0
6,69999,73,60000,6,0,40,9999,0.100000,0,0,0.000000,5,0.000000,0.000000,0.122943,0,0,0,0,0,0,0
6,69999,74,60000,6,0,40,9999,0.100000,0,0,0.000000,5,0.000000,0.000000,1.389579,0,0,0,0,0,0,0
6,69999,75,60000,45,10000,40,9999,0.100000,0,0,0.000000,5,0.000000,0.000000,0.197951,0,0,0,0,0,0,0
6,69999,76,60000,53,0,40,9999,0.100000,0,0,0.000000,5,0.000000,0.000000,0.630748,0,0,0,0,0,0,0
6,69999,77,60000,6,0,40,9999,0.100000,0,0,0.000000,5,0.000000,0.000000,0.447996,0,0,0,0,0,0,0
6,69999,78,60000,6,0,40,9999,0.100000,0,0,0.000000,5,0.000000,0.000000,0.403162,0,0,0,0,0,0,0
6,69999,79,60000,6,0,40,9999,0.100000,0,0,0.000000,5,0.000000,0.000000,0.080076,0,0,0,0,0,0,0
6,69999,80,60000,5,10000,40,9999,0.100000,0,0,0.000000,5,0.000000,0.000000,0.113846,0,0,0,0,0,0,0
6,69999,81,60000,6,0,40,9999,0.100000,0,0,0.000000,5,0.000000,0.000000,0.098864,0,0,0,0,0,0,0
6,69999,82,60000,53,0,40,9999,0.100000,0,0,0.000000,5,0.000000,0.000000,1.151608,0,0,0,0,0,0,0
6,69999,83,60000,45,10000,40,9999,0.100000,0,0,0.000000,5,0.000000,0.000000,0.166037,0,0,0,0,0,0,0
6,69999,84,60000,45,10000,40,9999,0.100000,0,0,0.000000,5,0.000000,0.000000,0.111274,0,0,0,0,0,0,0
6,69999,85,60000,53,0,40,9999,0.100000,0,0,0.000000,5,0.000000,0.000000,0.934802,0,0,0,0,0,0,0
6,69999,86,60000,53,0,40,9999,0.100000,0,0,0.000000,5,0.000000,0.000000,0.323884,0,0,0,0,0,0,0
6,69999,87,60000,45,10000,40,9999,0.100000,0,0,0.000000,5,0.000000,0.000000,0.158843,0,0,0,0,0,0,0
6,69999,88,60000,53,0,49,9999,0.100000,0,0,0.000000,5,5.000000,0.000000,10.027944,0,0,0,0,0,0,0
6,69999,89,60000,62,0,49,9999,0.100000,0,0,0.000000,5,6.000000,0.000000,13.867758,0,0,0,0,0,0,0
6,69999,90,60000,53,0,49,9999,0.100000,0,0,0.000000,5,4.000000,0.000000,9.207923,0,0,0,0,0,0,0
6,69999,91,60000,53,0,40,9999,0.100000,0,0,0.000000,5,0.000000,0.000000,0.369166,0,0,0,0,0,0,0
6,69999,92,60000,5,10000,40,9999,0.100000,0,0,0.000000,5,0.000000,0.000000,0.975185,0,0,0,0,0,0,0
6,69999,93,60000,53,0,40,9999,0.100000,0,0,0.000000,5,0.000000,0.000000,0.081323,0,0,0,0,0,0,0
6,69999,94,50000,6,0,40,19999,0.100000,0,0,0.000000,5,0.000000,0.000000,0.297002,0,0,0,0,0,0,0
6,69999,95,60000,62,0,40,9999,0.100000,0,0,0.000000,5,0.000000,0.000000,0.365480,0,0,0,0,0,0,0
6,69999,96,60000,45,10000,40,9999,0.100000,0,0,0.000000,5,0.000000,0.000000,0.149102,0,0,0,0,0,0,0
6,69999,97,60000,5,10000,40,9999,0.100000,0,0,0.000000,5,0.000000,0.000000,0.982537,0,0,0,0,0,0,0
6,69999,98,60000,53,0,40,9999,0.100000,0,0,0.000000,5,0.000000,0.000000,0.648826,0,0,0,0,0,0,0
6,69999,99,60000,45,10000,40,9999,0.100000,0,0,0.000000,5,0.000000,0.000000,0.170706,0,0,0,0,0,0,0
7,79999,0,70000,5,10000,40,9999,0.100000,0,0,0.000000,5,0.000000,0.000000,0.156761,0,0,0,0,0,0,0
7,79999,1,70000,45,10000,40,9999,0.100000,0,0,0.000000,5,0.000000,0.000000,0.606180,0,0,0,0,0,0,0
7,79999,2,70000,5,10000,40,9999,0.100000,0,0,0.000000,5,0.000000,0.000000,1.733908,0,0,0,0,0,0,0
7,79999,3,70000,6,0,40,9999,0.100000,0,0,0.000000,5,0.000000,0.000000,0.489621,0,0,0,0,0,0,0
7,79999,4,70000,6,0,40,9999,0.100000,0,0,0.000000,5,0.000000,0.000000,0.140461,0,0,0,0,0,0,0
7,79999,5,70000,5,10000,40,9999,0.100000,0,0,0.000000,5,0.000000,0.000000,0.446088,0,0,0,0,0,0,0
7,79999,6,70000,45,10000,40,9999,0.100000,0,0,0.000000,5,0.000000,0.000000,0.396601,0,0,0,0,0,0,0
7,79999,7,70000,5,10000,40,9999,0.100000,0,0,0.000000,5,0.000000,0.000000,0.205274,0,0,0,0,0,0,0
7,79999,8,70000,6,0,40,9999,0.100000,0,0,0.000000,5,0.000000,0.000000,24.027269,0,0,0,0,0,0,0
7,79999,9,60000,62,0,40,19999,0.100000,0,0,0.000000,5,0.000000,0.000000,0.078173,0,0,0,0,0,0,0
7,79999,10,70000,62,0,40,9999,0.100000,0,0,0.000000,5,0.000000,0.000000,0.292429,0,0,0,0,0,0,0
7,79999,11,70000,62,0,40,9999,0.100000,0,0,0.000000,5,0.000000,0.000000,0.090045,0,0,0,0,0,0,0
7,79999,12,70000,6,0,40,9999,0.100000,0,0,0.000000,5,0.000000,0.000000,0.071563,0,0,0,0,0,0,0
7,79999,13,70000,5,10000,40,9999,0.100000,0,0,0.000000,5,0.000000,0.000000,0.199831,0,0,0,0,0,0,0
7,79999,14,70000,45,10000,40,9999,0.100000,0,0,0.000000,5,0.000000,0.000000,0.276870,0,0,0,0,0,0,0
7,79999,15,70000,53,0,40,9999,0.100000,0,0,0.000000,5,0.000000,0.000000,0.645544,0,0,0,0,0,0,0
7,79999,16,70000,6,0,40,9999,0.100000,0,0,0.000000,5,0.000000,0.000000,0.338900,0,0,0,0,0,0,0
7,79999,17,70000,62,0,40,9999,0.135000,0,0,0.000000,5,0.000000,0.000000,0.181292,0,0,0,0,0,0,0
7,79999,18,70000,62,0,40,9999,0.100000,0,0,0.000000,5,0.000000,0.000000,0.686730,0,0,0,0,0,0,0
7,79999,19,70000,53,0,40,9999,0.100000,0,0,0.000000,5,0.000000,0.000000,0.150288,0,0,0,0,0,0,0
7,79999,20,70000,5,10000,40,9999,0.100000,0,0,0.000000,5,0.000000,0.000000,0.200283,0,0,0,0,0,0,0
7,79999,21,70000,45,10000,40,9999,0.100000,0,0,0.000000,5,0.000000,0.000000,0.368794,0,0,0,0,0,0,0
7,79999,22,70000,45,10000,40,9999,0.100000,0,0,0.000000,5,0.000000,0.000000,1.258013,0,0,0,0,0,0,0
7,79999,23,70000,45,10000,40,9999,0.100000,0,0,0.000000,5,0.000000,0.000000,0.281654,0,0,0,0,0,0,0
7,79999,24,70000,45,10000,40,9999,0.100000,0,0,0.000000,5,0.000000,0.000000,0.195928,0,0,0,0,0,0,0
7,79999,25,70000,45,10000,40,9999,0.100000,0,0,0.000000,5,0.000000,0.000000,0.223589,0,0,0,0,0,0,0
7,79999,26,70000,62,0,40,9999,0.100000,0,0,0.000000,5,0.000000,0.000000,0.105568,0,0,0,0,0,0,0
7,79999,27,70000,62,0,40,9999,0.100000,0,0,0.000000,5,0.000000,0.000000,0.076403,0,0,0,0,0,0,0
7,79999,28,70000,45,10000,40,9999,0.100000,0,0,0.000000,5,0.000000,0.000000,0.946939,0,0,0,0,0,0,0
7,79999,29,70000,45,10000,40,9999,0.100000,0,0,0.000000,5,0.000000,0.000000,0.719600,0,0,0,0,0,0,0
7,79999,30,70000,45,10000,40,9999,0.100000,0,0,0.000000,5,0.000000,0.000000,0.103073,0,0,0,0,0,0,0
7,79999,31,70000,45,10000,40,9999,0.100000,0,0,0.000000,5,0.000000,0.000000,0.215368,0,0,0,0,0,0,0
7,79999,32,60000,62,0,40,19999,0.100000,0,0,0.000000,5,0.000000,0.000000,1.419492,0,0,0,0,0,0,0
7,79999,33,70000,45,10000,40,9999,0.100000,0,0,0.000000,5,0.000000,0.000000,0.220770,0,0,0,0,0,0,0
7,79999,34,70000,6,0,40,9999,0.100000,0,0,0.000000,5,0.000000,0.000000,0.935692,0,0,0,0,0,0,0
7,79999,35,70000,62,0,40,9999,0.100000,0,0,0.000000,5,0.000000,0.000000,2.307363,0,0,0,0,0,0,0
7,79999,36,70000,53,0,40,9999,0.100000,0,0,0.000000,5,0.000000,0.000000,1.140618,0,0,0,0,0,0,0
7,79999,37,70000,62,0,40,9999,0.100000,0,0,0.000000,5,0.000000,0.000000,1.450089,0,0,0,0,0,0,0
7,79999,38,70000,6,0,40,9999,0.100000,0,0,0.000000,5,0.000000,0.000000,0.326039,0,0,0,0,0,0,0
7,79999,39,70000,5,10000,40,9999,0.100000,0,0,0.000000,5,0.000000,0.000000,0.094243,0,0,0,0,0,0,0
7,79999,40,70000,53,0,40,9999,0.100000,0,0,0.000000,5,0.000000,0.000000,0.127336,0,0,0,0,0,0,0
7,79999,41,70000,53,0,40,9999,0.100000,0,0,0.000000,5,0.000000,0.000000,0.420370,0,0,0,0,0,0,0
7,79999,42,70000,45,10000,40,9999,0.100000,0,0,0.000000,5,0.000000,0.000000,0.165304,0,0,0,0,0,0,0
7,79999,43,70000,5,10000,49,9999,0.100000,0,0,0.000000,5,2.000000,0.000000,8.927304,0,0,0,0,0,0,0
7,79999,44,70000,53,0,40,9999,0.100000,0,0,0.000000,5,0.000000,0.000000,0.318027,0,0,0,0,0,0,0
7,79999,45,70000,6,0,40,9999,0.100000,0,0,0.000000,5,0.000000,0.000000,11.959056,0,0,0,0,0,0,0
7,79999,46,70000,53,0,49,9999,0.100000,0,0,0.000000,5,1.000000,0.000000,1.740432,0,0,0,0,0,0,0
7,79999,47,70000,6,0,40,9999,0.100000,0,0,0.000000,5,0.000000,0.000000,10.511458,0,0,0,0,0,0,0
7,79999,48,70000,6,0,40,9999,0.100000,0,0,0.000000,5,0.000000,0.000000,0.167775,0,0,0,0,0,0,0
7,79999,49,70000,62,0,40,9999,0.100000,0,0,0.000000,5,0.000000,0.000000,0.142375,0,0,0,0,0,0,0
7,79999,50,70000,5,10000,40,9999,0.100000,0,0,0.000000,5,0.000000,0.000000,0.327243,0,0,0,0,0,0,0
7,79999,51,70000,62,0,40,9999,0.100000,0,0,0.000000,5,0.000000,0.000000,0.098195,0,0,0,0,0,0,0
7,79999,52,70000,53,0,40,9999,0.100000,0,0,0.000000,5,0.000000,0.000000,0.207567,0,0,0,0,0,0,0
7,79999,53,70000,53,0,40,9999,0.100000,0,0,0.000000,5,0.000000,0.000000,0.181485,0,0,0,0,0,0,0
7,79999,54,70000,5,10000,40,9999,0.100000,0,0,0.000000,5,0.000000,0.000000,0.576765,0,0,0,0,0,0,0
7,79999,55,70000,45,10000,40,9999,0.100000,0,0,0.000000,5,0.000000,0.000000,0.417811,0,0,0,0,0,0,0
7,79999,56,70000,5,10000,40,9999,0.100000,0,0,0.000000,5,0.000000,0.000000,0.275693,0,0,0,0,0,0,0
7,79999,57,70000,5,10000,49,9999,0.100000,0,0,0.000000,5,5.000000,0.000000,20.683575,0,0,0,0,0,0,0
7,79999,58,70000,5,10000,40,9999,0.100000,0,0,0.000000,5,0.000000,0.000000,0.277754,0,0,0,0,0,0,0
7,79999,59,70000,5,10000,40,9999,0.100000,0,0,0.000000,5,0.000000,0.000000,0.543337,0,0,0,0,0,0,0
7,79999,60,70000,53,0,40,9999,0.100000,0,0,0.000000,5,0.000000,0.000000,1.026160,0,0,0,0,0,0,0
7,79999,61,70000,6,0,40,9999,0.100000,0,0,0.000000,5,0.000000,0.000000,0.287149,0,0,0,0,0,0,0
7,79999,62,70000,62,0,40,9999,0.100000,0,0,0.000000,5,0.000000,0.000000,0.430219,0,0,0,0,0,0,0
7,79999,63,70000,6,0,40,9999,0.100000,0,0,0.000000,5,0.000000,0.000000,0.105413,0,0,0,0,0,0,0
7,79999,64,70000,45,10000,40,9999,0.100000,0,0,0.000000,5,0.000000,0.000000,1.029672,0,0,0,0,0,0,0
7,79999,65,70000,45,10000,0,9999,0.100000,0,0,0.000000,5,0.000000,0.000000,0.209577,0,0,0,2,0,0,0
7,79999,66,70000,45,10000,40,9999,0.100000,0,0,0.000000,5,0.000000,0.000000,0.166690,0,0,0,0,0,0,0
7,79999,67,70000,45,10000,40,9999,0.100000,0,0,0.000000,5,0.000000,0.000000,0.203686,0,0,0,0,0,0,0
7,79999,68,70000,45,10000,40,9999,0.100000,0,0,0.000000,5,0.000000,0.000000,0.129828,0,0,0,0,0,0,0
7,79999,69,70000,5,10000,49,9999,0.100000,0,0,0.000000,5,9.000000,0.000000,12.217641,0,0,0,0,0,0,0
7,79999,70,70000,62,0,40,9999,0.100000,0,0,0.000000,5,0.000000,0.000000,1.320364,0,0,0,0,0,0,0
7,79999,71,70000,45,10000,40,9999,0.100000,0,0,0.000000,5,0.000000,0.000000,0.490911,0,0,0,0,0,0,0
7,79999,72,70000,5,10000,40,9999,0.100000,0,0,0.000000,5,0.000000,0.000000,0.722594,0,0,0,0,0,0,0
7,79999,73,70000,6,0,40,9999,0.100000,0,0,0.000000,5,0.000000,0.000000,0.146312,0,0,0,0,0,0,0
7,79999,74,70000,6,0,40,9999,0.100000,0,0,0.000000,5,0.000000,0.000000,2.147338,0,0,0,0,0,0,0
7,79999,75,70000,53,0,40,9999,0.100000,0,0,0.000000,5,0.000000,0.000000,0.218664,0,0,0,0,0,0,0
7,79999,76,70000,5,10000,40,9999,0.100000,0,0,0.000000,5,0.000000,0.000000,0.572187,0,0,0,0,0,0,0
7,79999,77,70000,6,0,40,9999,0.100000,0,0,0.000000,5,0.000000,0.000000,0.534173,0,0,0,0,0,0,0
7,79999,78,70000,6,0,40,9999,0.100000,0,0,0.000000,5,0.000000,0.000000,0.121376,0,0,0,0,0,0,0
7,79999,79,70000,5,10000,40,9999,0.100000,0,0,0.000000,5,0.000000,0.000000,0.081461,0,0,0,0,0,0,0
7,79999,80,70000,45,10000,40,9999,0.100000,0,0,0.000000,5,0.000000,0.000000,0.114516,0,0,0,0,0,0,0
7,79999,81,70000,5,10000,40,9999,0.100000,0,0,0.000000,5,0.000000,0.000000,0.929805,0,0,0,0,0,0,0
7,79999,82,70000,53,0,40,9999,0.100000,0,0,0.000000,5,0.000000,0.000000,1.075258,0,0,0,0,0,0,0
7,79999,83,70000,53,0,40,9999,0.100000,0,0,0.000000,5,0.000000,0.000000,0.808794,0,0,0,0,0,0,0
7,79999,84,70000,62,0,40,9999,0.100000,0,0,0.000000,5,0.000000,0.000000,0.110628,0,0,0,0,0,0,0
7,79999,85,70000,62,0,49,9999,0.100000,0,0,0.000000,5,1.000000,0.000000,2.583333,0,0,0,0,0,0,0
7,79999,86,70000,45,10000,40,9999,0.100000,0,0,0.000000,5,0.000000,0.000000,0.307578,0,0,0,0,0,0,0
7,79999,87,70000,5,10000,40,9999,0.100000,0,0,0.000000,5,0.000000,0.000000,0.159462,0,0,0,0,0,0,0
7,79999,88,70000,5,10000,40,9999,0.100000,0,0,0.000000,5,0.000000,0.000000,0.159281,0,0,0,0,0,0,0
7,79999,89,70000,45,10000,40,9999,0.100000,0,0,0.000000,5,0.000000,0.000000,0.655270,0,0,0,0,0,0,0
7,79999,90,70000,45,10000,40,9999,0.100000,0,0,0.000000,5,0.000000,0.000000,1.588135,0,0,0,0,0,0,0
7,79999,91,70000,53,0,40,9999,0.100000,0,0,0.000000,5,0.000000,0.000000,0.096574,0,0,0,0,0,0,0
7,79999,92,70000,62,0,40,9999,0.100000,0,0,0.000000,5,0.000000,0.000000,0.086654,0,0,0,0,0,0,0
7,79999,93,70000,5,10000,40,9999,0.100000,0,0,0.000000,5,0.000000,0.000000,0.082654,0,0,0,0,0,0,0
7,79999,94,70000,53,0,40,9999,0.100000,0,0,0.000000,5,0.000000,0.000000,0.260395,0,0,0,0,0,0,0
7,79999,95,70000,62,0,40,9999,0.100000,0,0,0.000000,5,0.000000,0.000000,0.085245,0,0,0,0,0,0,0
7,79999,96,70000,45,10000,40,9999,0.100000,0,0,0.000000,5,0.000000,0.000000,0.203221,0,0,0,0,0,0,0
7,79999,97,70000,45,10000,40,9999,0.100000,0,0,0.000000,5,0.000000,0.000000,0.864656,0,0,0,0,0,0,0
7,79999,98,70000,6,0,40,9999,0.100000,0,0,0.000000,5,0.000000,0.000000,1.144828,0,0,0,0,0,0,0
7,79999,99,70000,5,10000,40,9999,0.100000,0,0,0.000000,5,0.000000,0.000000,0.156036,0,0,0,0,0,0,0
8,89999,0,80000,62,0,40,9999,0.100000,0,0,0.000000,5,0.000000,0.000000,0.125267,0,0,0,0,0,0,0
8,89999,1,80000,53,0,40,9999,0.100000,0,0,0.000000,5,0.000000,0.000000,0.440319,0,0,0,0,0,0,0
8,89999,2,80000,5,10000,40,9999,0.100000,0,0,0.000000,5,0.000000,0.000000,1.853010,0,0,0,0,0,0,0
8,89999,3,80000,5,10000,40,9999,0.100000,0,0,0.000000,5,0.000000,0.000000,0.547181,0,0,0,0,0,0,0
8,89999,4,80000,5,10000,40,9999,0.100000,0,0,0.000000,5,0.000000,0.000000,0.135294,0,0,0,0,0,0,0
8,89999,5,80000,53,0,40,9999,0.100000,0,0,0.000000,5,0.000000,0.000000,0.490592,0,0,0,0,0,0,0
8,89999,6,80000,62,0,40,9999,0.100000,0,0,0.000000,5,0.000000,0.000000,0.400531,0,0,0,0,0,0,0
8,89999,7,80000,45,10000,40,9999,0.100000,0,0,0.000000,5,0.000000,0.000000,0.214547,0,0,0,0,0,0,0
8,89999,8,80000,6,0,40,9999,0.100000,0,0,0.000000,5,0.000000,0.000000,24.146908,0,0,0,0,0,0,0
8,89999,9,80000,62,0,40,9999,0.100000,0,0,0.000000,5,0.000000,0.000000,0.078229,0,0,0,0,0,0,0
8,89999,10,80000,62,0,49,9999,0.100000,0,0,0.000000,5,1.000000,0.000000,1.731194,0,0,0,0,0,0,0
8,89999,11,80000,62,0,40,9999,0.100000,0,0,0.000000,5,0.000000,0.000000,0.394281,0,0,0,0,0,0,0
8,89999,12,80000,5,10000,40,9999,0.100000,0,0,0.000000,5,0.000000,0.000000,0.072224,0,0,0,0,0,0,0
8,89999,13,80000,5,10000,40,9999,0.100000,0,0,0.000000,5,0.000000,0.000000,0.083776,0,0,0,0,0,0,0
8,89999,14,80000,45,10000,40,9999,0.100000,0,0,0.000000,5,0.000000,0.000000,0.268610,0,0,0,0,0,0,0
8,89999,15,80000,53,0,40,9999,0.100000,0,0,0.000000,5,0.000000,0.000000,0.682475,0,0,0,0,0,0,0
8,89999,16,80000,62,0,40,9999,0.100000,0,0,0.000000,5,0.000000,0.000000,0.272050,0,0,0,0,0,0,0
8,89999,17,80000,6,0,49,9999,0.100000,0,0,0.000000,5,6.000000,0.000000,6.652476,0,0,0,0,0,0,0
8,89999,18,80000,45,10000,40,9999,0.100000,0,0,0.000000,5,0.000000,0.000000,0.432907,0,0,0,0,0,0,0
8,89999,19,80000,45,10000,49,9999,0.100000,0,0,0.000000,5,6.000000,0.000000,6.982673,0,0,0,0,0,0,0
8,89999,20,80000,53,0,40,9999,0.100000,0,0,0.000000,5,0.000000,0.000000,0.214240,0,0,0,0,0,0,0
8,89999,21,80000,53,0,40,9999,0.100000,0,0,0.000000,5,0.000000,0.000000,0.871749,0,0,0,0,0,0,0
8,89999,22,80000,62,0,49,9999,0.100000,0,0,0.000000,5,3.000000,0.000000,11.189865,0,0,0,0,0,0,0
8,89999,23,80000,62,0,40,9999,0.100000,0,0,0.000000,5,0.000000,0.000000,0.314439,0,0,0,0,0,0,0
8,89999,24,80000,5,10000,40,9999,0.100000,0,0,0.000000,5,0.000000,0.000000,0.218800,0,0,0,0,0,0,0
8,89999,25,80000,53,0,40,9999,0.100000,0,0,0.000000,5,0.000000,0.000000,0.228164,0,0,0,0,0,0,0
8,89999,26,80000,6,0,40,9999,0.100000,0,0,0.000000,5,0.000000,0.000000,0.217532,0,0,0,0,0,0,0
8,89999,27,80000,5,10000,40,9999,0.100000,0,0,0.000000,5,0.000000,0.000000,0.155335,0,0,0,0,0,0,0
8,89999,28,80000,6,0,40,9999,0.100000,0,0,0.000000,5,0.000000,0.000000,1.005879,0,0,0,0,0,0,0
8,89999,29,80000,53,0,40,9999,0.100000,0,0,0.000000,5,0.000000,0.000000,0.130728,0,0,0,0,0,0,0
8,89999,30,80000,62,0,40,9999,0.100000,0,0,0.000000,5,0.000000,0.000000,0.077651,0,0,0,0,0,0,0
8,89999,31,80000,6,0,40,9999,0.100000,0,0,0.000000,5,0.000000,0.000000,0.213645,0,0,0,0,0,0,0
8,89999,32,80000,45,10000,40,9999,0.100000,0,0,0.000000,5,0.000000,0.000000,1.327289,0,0,0,0,0,0,0
8,89999,33,80000,5,10000,40,9999,0.100000,0,0,0.000000,5,0.000000,0.000000,0.178917,0,0,0,0,0,0,0
8,89999,34,80000,62,0,40,9999,0.100000,0,0,0.000000,5,0.000000,0.000000,0.922353,0,0,0,0,0,0,0
8,89999,35,80000,45,10000,40,9999,0.100000,0,0,0.000000,5,0.000000,0.000000,0.995013,0,0,0,0,0,0,0
8,89999,36,80000,62,0,40,9999,0.100000,0,0,0.000000,5,0.000000,0.000000,0.573575,0,0,0,0,0,0,0
8,89999,37,80000,6,0,40,9999,0.100000,0,0,0.000000,5,0.000000,0.000000,4.688265,0,0,0,0,0,0,0
8,89999,38,80000,5,10000,40,9999,0.100000,0,0,0.000000,5,0.000000,0.000000,0.317764,0,0,0,0,0,0,0
8,89999,39,80000,62,0,40,9999,0.100000,0,0,0.000000,5,0.000000,0.000000,0.092799,0,0,0,0,0,0,0
8,89999,40,80000,53,0,40,9999,0.100000,0,0,0.000000,5,0.000000,0.000000,0.126981,0,0,0,0,0,0,0
8,89999,41,80000,53,0,40,9999,0.100000,0,0,0.000000,5,0.000000,0.000000,0.341625,0,0,0,0,0,0,0
8,89999,42,80000,5,10000,40,9999,0.100000,0,0,0.000000,5,0.000000,0.000000,0.113140,0,0,0,0,0,0,0
8,89999,43,80000,6,0,49,9999,0.100000,0,0,0.000000,5,6.000000,0.000000,10.615338,0,0,0,0,0,0,0
8,89999,44,80000,5,10000,40,9999,0.100000,0,0,0.000000,5,0.000000,0.000000,0.354496,0,0,0,0,0,0,0
8,89999,45,80000,45,10000,40,9999,0.100000,0,0,0.000000,5,0.000000,0.000000,2.144107,0,0,0,0,0,0,0
8,89999,46,80000,62,0,49,9999,0.100000,0,0,0.000000,5,4.000000,0.000000,7.267810,0,0,0,0,0,0,0
8,89999,47,70000,6,0,49,19999,0.100000,0,0,0.000000,5,1.000000,0.000000,10.789765,0,0,0,0,0,0,0
8,89999,48,80000,5,10000,40,9999,0.100000,0,0,0.000000,5,0.000000,0.000000,0.193462,0,0,0,0,0,0,0
8,89999,49,80000,6,0,40,9999,0.100000,0,0,0.000000,5,0.000000,0.000000,0.162755,0,0,0,0,0,0,0
8,89999,50,80000,53,0,40,9999,0.100000,0,0,0.000000,5,0.000000,0.000000,0.312253,0,0,0,0,0,0,0
8,89999,51,80000,45,10000,40,9999,0.100000,0,0,0.000000,5,0.000000,0.000000,0.100401,0,0,0,0,0,0,0
8,89999,52,80000,53,0,40,9999,0.100000,0,0,0.000000,5,0.000000,0.000000,0.202300,0,0,0,0,0,0,0
8,89999,53,80000,6,0,40,9999,0.100000,0,0,0.000000,5,0.000000,0.000000,0.198792,0,0,0,0,0,0,0
8,89999,54,80000,53,0,40,9999,0.100000,0,0,0.000000,5,0.000000,0.000000,0.159671,0,0,0,0,0,0,0
8,89999,55,80000,45,10000,40,9999,0.100000,0,0,0.000000,5,0.000000,0.000000,0.412979,0,0,0,0,0,0,0
8,89999,56,80000,5,10000,49,9999,0.100000,0,0,0.000000,5,6.000000,0.000000,6.653018,0,0,0,0,0,0,0
8,89999,57,80000,62,0,40,9999,0.100000,0,0,0.000000,5,0.000000,0.000000,21.838608,0,0,0,0,0,0,0
8,89999,58,80000,62,0,40,9999,0.100000,0,0,0.000000,5,0.000000,0.000000,0.285297,0,0,0,0,0,0,0
8,89999,59,80000,62,0,40,9999,0.100000,0,0,0.000000,5,0.000000,0.000000,0.972335,0,0,0,0,0,0,0
8,89999,60,80000,53,0,40,9999,0.100000,0,0,0.000000,5,0.000000,0.000000,0.999001,0,0,0,0,0,0,0
8,89999,61,80000,62,0,40,9999,0.100000,0,0,0.000000,5,0.000000,0.000000,0.274519,0,0,0,0,0,0,0
8,89999,62,80000,62,0,40,9999,0.100000,0,0,0.000000,5,0.000000,0.000000,0.282562,0,0,0,0,0,0,0
8,89999,63,80000,45,10000,40,9999,0.100000,0,0,0.000000,5,0.000000,0.000000,0.134843,0,0,0,0,0,0,0
8,89999,64,80000,6,0,40,9999,0.100000,0,0,0.000000,5,0.000000,0.000000,0.554908,0,0,0,0,0,0,0
8,89999,65,80000,53,0,0,9999,0.100000,0,0,0.000000,5,0.000000,0.000000,0.235119,0,0,0,2,0,0,0
8,89999,66,80000,62,0,40,9999,0.100000,0,0,0.000000,5,0.000000,0.000000,0.740447,0,0,0,0,0,0,0
8,89999,67,80000,53,0,40,9999,0.100000,0,0,0.000000,5,0.000000,0.000000,0.224943,0,0,0,0,0,0,0
8,89999,68,80000,6,0,40,9999,0.100000,0,0,0.000000,5,0.000000,0.000000,0.606348,0,0,0,0,0,0,0
8,89999,69,80000,62,0,40,9999,0.100000,0,0,0.000000,5,0.000000,0.000000,0.652268,0,0,0,0,0,0,0
8,89999,70,80000,45,10000,40,9999,0.100000,0,0,0.000000,5,0.000000,0.000000,1.171073,0,0,0,0,0,0,0
8,89999,71,80000,5,10000,40,9999,0.100000,0,0,0.000000,5,0.000000,0.000000,0.462106,0,0,0,0,0,0,0
8,89999,72,80000,45,10000,40,9999,0.100000,0,0,0.000000,5,0.000000,0.000000,0.780883,0,0,0,0,0,0,0
8,89999,73,80000,53,0,40,9999,0.100000,0,0,0.000000,5,0.000000,0.000000,0.158606,0,0,0,0,0,0,0
8,89999,74,80000,5,10000,40,9999,0.100000,0,0,0.000000,5,0.000000,0.000000,1.418428,0,0,0,0,0,0,0
8,89999,75,80000,45,10000,40,9999,0.100000,0,0,0.000000,5,0.000000,0.000000,0.180594,0,0,0,0,0,0,0
8,89999,76,80000,6,0,40,9999,0.100000,0,0,0.000000,5,0.000000,0.000000,0.383094,0,0,0,0,0,0,0
8,89999,77,80000,62,0,40,9999,0.100000,0,0,0.000000,5,0.000000,0.000000,0.249956,0,0,0,0,0,0,0
8,89999,78,80000,62,0,40,9999,0.100000,0,0,0.000000,5,0.000000,0.000000,0.138877,0,0,0,0,0,0,0
8,89999,79,80000,62,0,40,9999,0.100000,0,0,0.000000,5,0.000000,0.000000,0.082934,0,0,0,0,0,0,0
8,89999,80,80000,6,0,40,9999,0.100000,0,0,0.000000,5,0.000000,0.000000,0.115548,0,0,0,0,0,0,0
8,89999,81,80000,5,10000,40,9999,0.100000,0,0,0.000000,5,0.000000,0.000000,0.475654,0,0,0,0,0,0,0
8,89999,82,80000,62,0,40,9999,0.100000,0,0,0.000000,5,0.000000,0.000000,1.005663,0,0,0,0,0,0,0
8,89999,83,80000,45,10000,40,9999,0.100000,0,0,0.000000,5,0.000000,0.000000,0.559117,0,0,0,0,0,0,0
8,89999,84,80000,45,10000,40,9999,0.100000,0,0,0.000000,5,0.000000,0.000000,0.111197,0,0,0,0,0,0,0
8,89999,85,80000,5,10000,40,9999,0.100000,0,0,0.000000,5,0.000000,0.000000,0.249679,0,0,0,0,0,0,0
8,89999,86,80000,45,10000,40,9999,0.100000,0,0,0.000000,5,0.000000,0.000000,0.344459,0,0,0,0,0,0,0
8,89999,87,80000,62,0,40,9999,0.100000,0,0,0.000000,5,0.000000,0.000000,0.201493,0,0,0,0,0,0,0
8,89999,88,80000,6,0,40,9999,0.100000,0,0,0.000000,5,0.000000,0.000000,0.158959,0,0,0,0,0,0,0
8,89999,89,80000,45,10000,40,9999,0.100000,0,0,0.000000,5,0.000000,0.000000,0.345491,0,0,0,0,0,0,0
8,89999,90,80000,5,10000,40,9999,0.100000,0,0,0.000000,5,0.000000,0.000000,0.802095,0,0,0,0,0,0,0
8,89999,91,80000,6,0,40,9999,0.100000,0,0,0.000000,5,0.000000,0.000000,0.500391,0,0,0,0,0,0,0
8,89999,92,80000,45,10000,40,9999,0.100000,0,0,0.000000,5,0.000000,0.000000,0.196162,0,0,0,0,0,0,0
8,89999,93,80000,53,0,40,9999,0.100000,0,0,0.000000,5,0.000000,0.000000,0.081902,0,0,0,0,0,0,0
8,89999,94,80000,53,0,40,9999,0.100000,0,0,0.000000,5,0.000000,0.000000,0.188849,0,0,0,0,0,0,0
8,89999,95,80000,45,10000,40,9999,0.100000,0,0,0.000000,5,0.000000,0.000000,0.106447,0,0,0,0,0,0,0
8,89999,96,80000,53,0,49,9999,0.065000,0,0,0.000000,5,6.000000,0.000000,6.488701,0,0,0,0,0,0,0
8,89999,97,80000,6,0,40,9999,0.100000,0,0,0.000000,5,0.000000,0.000000,1.008552,0,0,0,0,0,0,0
8,89999,98,80000,5,10000,49,9999,0.100000,0,0,0.000000,5,5.000000,0.000000,11.909588,0,0,0,0,0,0,0
8,89999,99,80000,5,10000,40,9999,0.100000,0,0,0.000000,5,0.000000,0.000000,0.144950,0,0,0,0,0,0,0
9,99999,0,90000,62,0,40,9999,0.100000,0,0,0.000000,5,0.000000,0.000000,0.145614,0,0,0,0,0,0,0
9,99999,1,90000,45,10000,40,9999,0.100000,0,0,0.000000,5,0.000000,0.000000,0.461489,0,0,0,0,0,0,0
9,99999,2,90000,62,0,40,9999,0.100000,0,0,0.000000,5,0.000000,0.000000,1.915390,0,0,0,0,0,0,0
9,99999,3,90000,53,0,40,9999,0.100000,0,0,0.000000,5,0.000000,0.000000,0.471328,0,0,0,0,0,0,0
9,99999,4,90000,5,10000,40,9999,0.100000,0,0,0.000000,5,0.000000,0.000000,0.240220,0,0,0,0,0,0,0
9,99999,5,90000,53,0,40,9999,0.100000,0,0,0.000000,5,0.000000,0.000000,0.528097,0,0,0,0,0,0,0
9,99999,6,90000,53,0,40,9999,0.100000,0,0,0.000000,5,0.000000,0.000000,0.430275,0,0,0,0,0,0,0
9,99999,7,90000,5,10000,40,9999,0.100000,0,0,0.000000,5,0.000000,0.000000,0.214027,0,0,0,0,0,0,0
9,99999,8,90000,62,0,40,9999,0.100000,0,0,0.000000,5,0.000000,0.000000,4.994603,0,0,0,0,0,0,0
9,99999,9,90000,62,0,40,9999,0.100000,0,0,0.000000,5,0.000000,0.000000,0.078885,0,0,0,0,0,0,0
9,99999,10,90000,53,0,49,9999,0.100000,0,0,0.000000,5,1.000000,0.000000,1.258025,0,0,0,0,0,0,0
9,99999,11,90000,5,10000,40,9999,0.100000,0,0,0.000000,5,0.000000,0.000000,0.789443,0,0,0,0,0,0,0
9,99999,12,90000,5,10000,40,9999,0.100000,0,0,0.000000,5,0.000000,0.000000,0.071972,0,0,0,0,0,0,0
9,99999,13,90000,5,10000,40,9999,0.100000,0,0,0.000000,5,0.000000,0.000000,0.058800,0,0,0,0,0,0,0
9,99999,14,90000,5,10000,40,9999,0.100000,0,0,0.000000,5,0.000000,0.000000,2.175584,0,0,0,0,0,0,0
9,99999,15,90000,45,10000,40,9999,0.100000,0,0,0.000000,5,0.000000,0.000000,0.832540,0,0,0,0,0,0,0
9,99999,16,90000,5,10000,40,9999,0.100000,0,0,0.000000,5,0.000000,0.000000,1.466601,0,0,0,0,0,0,0
9,99999,17,90000,5,10000,9,9999,0.100000,0,0,0.000000,5,1.000000,0.000000,1.737774,0,0,0,0,0,0,2
9,99999,18,90000,45,10000,40,9999,0.100000,0,0,0.000000,5,0.000000,0.000000,0.419946,0,0,0,0,0,0,0
9,99999,19,90000,45,10000,9,9999,0.100000,0,0,0.000000,5,1.000000,0.000000,1.849422,0,0,0,0,0,0,2
9,99999,20,90000,5,10000,40,9999,0.100000,0,0,0.000000,5,0.000000,0.000000,1.375817,0,0,0,0,0,0,0
9,99999,21,90000,53,0,40,9999,0.100000,0,0,0.000000,5,0.000000,0.000000,0.805731,0,0,0,0,0,0,0
9,99999,22,90000,6,0,49,9999,0.100000,0,0,0.000000,5,1.000000,0.000000,2.764386,0,0,0,0,0,0,0
9,99999,23,90000,5,10000,40,9999,0.100000,0,0,0.000000,5,0.000000,0.000000,0.292397,0,0,0,0,0,0,0
9,99999,24,90000,6,0,40,9999,0.100000,0,0,0.000000,5,0.000000,0.000000,0.236704,0,0,0,0,0,0,0
9,99999,25,90000,45,10000,40,9999,0.100000,0,0,0.000000,5,0.000000,0.000000,0.229741,0,0,0,0,0,0,0
9,99999,26,90000,5,10000,40,9999,0.100000,0,0,0.000000,5,0.000000,0.000000,0.860439,0,0,0,0,0,0,0
9,99999,27,90000,45,10000,40,9999,0.100000,0,0,0.000000,5,0.000000,0.000000,0.150546,0,0,0,0,0,0,0
9,99999,28,90000,45,10000,40,9999,0.100000,0,0,0.000000,5,0.000000,0.000000,1.205163,0,0,0,0,0,0,0
9,99999,29,90000,45,10000,40,9999,0.100000,0,0,0.000000,5,0.000000,0.000000,0.090467,0,0,0,0,0,0,0
9,99999,30,90000,5,10000,40,9999,0.100000,0,0,0.000000,5,0.000000,0.000000,0.078476,0,0,0,0,0,0,0
9,99999,31,90000,5,10000,40,9999,0.100000,0,0,0.000000,5,0.000000,0.000000,0.098311,0,0,0,0,0,0,0
9,99999,32,90000,45,10000,40,9999,0.100000,0,0,0.000000,5,0.000000,0.000000,1.476857,0,0,0,0,0,0,0
9,99999,33,90000,6,0,40,9999,0.100000,0,0,0.000000,5,0.000000,0.000000,0.156717,0,0,0,0,0,0,0
9,99999,34,90000,53,0,40,9999,0.100000,0,0,0.000000,5,0.000000,0.000000,1.013678,0,0,0,0,0,0,0
9,99999,35,90000,62,0,40,9999,0.100000,0,0,0.000000,5,0.000000,0.000000,2.225936,0,0,0,0,0,0,0
9,99999,36,90000,45,10000,40,9999,0.100000,0,0,0.000000,5,0.000000,0.000000,0.489254,0,0,0,0,0,0,0
9,99999,37,90000,62,0,40,9999,0.100000,0,0,0.000000,5,0.000000,0.000000,0.760081,0,0,0,0,0,0,0
9,99999,38,90000,53,0,40,9999,0.100000,0,0,0.000000,5,0.000000,0.000000,0.434418,0,0,0,0,0,0,0
9,99999,39,90000,5,10000,40,9999,0.100000,0,0,0.000000,5,0.000000,0.000000,0.091565,0,0,0,0,0,0,0
9,99999,40,90000,45,10000,40,9999,0.100000,0,0,0.000000,5,0.000000,0.000000,0.189443,0,0,0,0,0,0,0
9,99999,41,90000,53,0,40,9999,0.100000,0,0,0.000000,5,0.000000,0.000000,0.335791,0,0,0,0,0,0,0
9,99999,42,90000,62,0,40,9999,0.100000,0,0,0.000000,5,0.000000,0.000000,0.153432,0,0,0,0,0,0,0
9,99999,43,90000,17,80000,9,9999,0.100000,0,0,0.000000,5,1.000000,0.000000,1.276537,0,0,0,0,0,0,2
9,99999,44,90000,5,10000,40,9999,0.100000,0,0,0.000000,5,0.000000,0.000000,0.337887,0,0,0,0,0,0,0
9,99999,45,90000,6,0,40,9999,0.100000,0,0,0.000000,5,0.000000,0.000000,0.970616,0,0,0,0,0,0,0
9,99999,46,90000,45,10000,49,9999,0.100000,0,0,0.000000,5,3.000000,0.000000,10.115458,0,0,0,0,0,0,0
9,99999,47,90000,45,10000,49,9999,0.100000,0,0,0.000000,5,1.000000,0.000000,6.443466,0,0,0,0,0,0,0
9,99999,48,90000,5,10000,49,9999,0.100000,0,0,0.000000,5,4.000000,0.000000,9.366873,0,0,0,0,0,0,0
9,99999,49,90000,6,0,40,9999,0.100000,0,0,0.000000,5,0.000000,0.000000,0.165342,0,0,0,0,0,0,0
9,99999,50,90000,6,0,40,9999,0.100000,0,0,0.000000,5,0.000000,0.000000,1.004801,0,0,0,0,0,0,0
9,99999,51,90000,45,10000,40,9999,0.100000,0,0,0.000000,5,0.000000,0.000000,0.121670,0,0,0,0,0,0,0
9,99999,52,90000,5,10000,40,9999,0.100000,0,0,0.000000,5,0.000000,0.000000,0.295775,0,0,0,0,0,0,0
9,99999,53,90000,6,0,40,9999,0.100000,0,0,0.000000,5,0.000000,0.000000,1.139823,0,0,0,0,0,0,0
9,99999,54,90000,45,10000,40,9999,0.100000,0,0,0.000000,5,0.000000,0.000000,0.094277,0,0,0,0,0,0,0
9,99999,55,90000,17,80000,40,9999,0.100000,0,0,0.000000,5,0.000000,0.000000,0.545690,0,0,0,0,0,0,0
9,99999,56,90000,53,0,9,9999,0.100000,0,0,0.000000,5,1.000000,0.000000,1.377043,0,0,0,0,0,0,2
9,99999,57,90000,17,80000,49,9999,0.100000,0,0,0.000000,5,1.000000,0.000000,19.963284,0,0,0,0,0,0,0
9,99999,58,90000,6,0,40,9999,0.100000,0,0,0.000000,5,0.000000,0.000000,0.478222,0,0,0,0,0,0,0
9,99999,59,90000,45,10000,40,9999,0.100000,0,0,0.000000,5,0.000000,0.000000,1.755470,0,0,0,0,0,0,0
9,99999,60,90000,17,80000,40,9999,0.100000,0,0,0.000000,5,0.000000,0.000000,0.978447,0,0,0,0,0,0,0
9,99999,61,90000,17,80000,40,9999,0.100000,0,0,0.000000,5,0.000000,0.000000,0.364182,0,0,0,0,0,0,0
9,99999,62,90000,6,0,40,9999,0.100000,0,0,0.000000,5,0.000000,0.000000,0.492207,0,0,0,0,0,0,0
9,99999,63,90000,45,10000,40,9999,0.100000,0,0,0.000000,5,0.000000,0.000000,0.255383,0,0,0,0,0,0,0
9,99999,64,90000,5,10000,40,9999,0.100000,0,0,0.000000,5,0.000000,0.000000,1.201711,0,0,0,0,0,0,0
9,99999,65,90000,53,0,40,9999,0.100000,0,0,0.000000,5,0.000000,0.000000,0.229240,0,0,0,0,0,0,0
9,99999,66,90000,6,0,40,9999,0.100000,0,0,0.000000,5,0.000000,0.000000,0.683735,0,0,0,0,0,0,0
9,99999,67,90000,53,0,40,9999,0.100000,0,0,0.000000,5,0.000000,0.000000,0.235972,0,0,0,0,0,0,0
9,99999,68,90000,6,0,40,9999,0.100000,0,0,0.000000,5,0.000000,0.000000,0.603927,0,0,0,0,0,0,0
9,99999,69,90000,5,10000,40,9999,0.100000,0,0,0.000000,5,0.000000,0.000000,0.902664,0,0,0,0,0,0,0
9,99999,70,90000,45,10000,40,9999,0.100000,0,0,0.000000,5,0.000000,0.000000,1.153903,0,0,0,0,0,0,0
9,99999,71,90000,17,80000,40,9999,0.100000,0,0,0.000000,5,0.000000,0.000000,1.736719,0,0,0,0,0,0,0
9,99999,72,90000,17,80000,40,9999,0.100000,0,0,0.000000,5,0.000000,0.000000,0.708638,0,0,0,0,0,0,0
9,99999,73,90000,53,0,40,9999,0.100000,0,0,0.000000,5,0.000000,0.000000,0.164702,0,0,0,0,0,0,0
9,99999,74,90000,5,10000,40,9999,0.100000,0,0,0.000000,5,0.000000,0.000000,0.427753,0,0,0,0,0,0,0
9,99999,75,90000,5,10000,40,9999,0.100000,0,0,0.000000,5,0.000000,0.000000,0.139713,0,0,0,0,0,0,0
9,99999,76,90000,5,10000,40,9999,0.100000,0,0,0.000000,5,0.000000,0.000000,0.292219,0,0,0,0,0,0,0
9,99999,77,90000,45,10000,40,9999,0.100000,0,0,0.000000,5,0.000000,0.000000,0.507669,0,0,0,0,0,0,0
9,99999,78,90000,5,10000,40,9999,0.100000,0,0,0.000000,5,0.000000,0.000000,0.432550,0,0,0,0,0,0,0
9,99999,79,90000,17,80000,40,9999,0.100000,0,0,0.000000,5,0.000000,0.000000,0.083188,0,0,0,0,0,0,0
9,99999,80,90000,45,10000,40,9999,0.100000,0,0,0.000000,5,0.000000,0.000000,0.114645,0,0,0,0,0,0,0
9,99999,81,90000,53,0,40,9999,0.100000,0,0,0.000000,5,0.000000,0.000000,0.564892,0,0,0,0,0,0,0
9,99999,82,90000,5,10000,40,9999,0.100000,0,0,0.000000,5,0.000000,0.000000,1.074732,0,0,0,0,0,0,0
9,99999,83,90000,17,80000,40,9999,0.100000,0,0,0.000000,5,0.000000,0.000000,0.151928,0,0,0,0,0,0,0
9,99999,84,90000,45,10000,40,9999,0.100000,0,0,0.000000,5,0.000000,0.000000,0.109460,0,0,0,0,0,0,0
9,99999,85,90000,53,0,40,9999,0.100000,0,0,0.000000,5,0.000000,0.000000,0.469348,0,0,0,0,0,0,0
9,99999,86,90000,6,0,40,9999,0.100000,0,0,0.000000,5,0.000000,0.000000,0.722596,0,0,0,0,0,0,0
9,99999,87,90000,17,80000,40,9999,0.100000,0,0,0.000000,5,0.000000,0.000000,0.195597,0,0,0,0,0,0,0
9,99999,88,90000,45,10000,40,9999,0.100000,0,0,0.000000,5,0.000000,0.000000,0.152569,0,0,0,0,0,0,0
9,99999,89,90000,6,0,40,9999,0.100000,0,0,0.000000,5,0.000000,0.000000,0.329012,0,0,0,0,0,0,0
9,99999,90,90000,17,80000,40,9999,0.100000,0,0,0.000000,5,0.000000,0.000000,0.749454,0,0,0,0,0,0,0
9,99999,91,90000,45,10000,40,9999,0.100000,0,0,0.000000,5,0.000000,0.000000,0.186241,0,0,0,0,0,0,0
9,99999,92,90000,17,80000,40,9999,0.100000,0,0,0.000000,5,0.000000,0.000000,0.113582,0,0,0,0,0,0,0
9,99999,93,90000,53,0,40,9999,0.100000,0,0,0.000000,5,0.000000,0.000000,0.081383,0,0,0,0,0,0,0
9,99999,94,90000,17,80000,40,9999,0.100000,0,0,0.000000,5,0.000000,0.000000,0.181467,0,0,0,0,0,0,0
9,99999,95,90000,17,80000,40,9999,0.100000,0,0,0.000000,5,0.000000,0.000000,0.459079,0,0,0,0,0,0,0
9,99999,96,90000,53,0,9,9999,0.100000,0,0,0.000000,5,1.000000,0.000000,1.574816,0,0,0,0,0,0,2
9,99999,97,90000,45,10000,40,9999,0.100000,0,0,0.000000,5,0.000000,0.000000,1.179645,0,0,0,0,0,0,0
9,99999,98,90000,53,0,40,9999,0.100000,0,0,0.000000,5,0.000000,0.000000,2.484192,0,0,0,0,0,0,0
9,99999,99,90000,45,10000,40,9999,0.100000,0,0,0.000000,5,0.000000,0.000000,0.135957,0,0,0,0,0,0,0
10,109999,0,100000,17,80000,40,9999,0.100000,0,0,0.000000,5,0.000000,0.000000,0.193482,0,0,0,0,0,0,0
10,109999,1,100000,6,0,49,9999,0.100000,0,0,0.000000,5,3.000000,0.000000,3.204509,0,0,0,0,0,0,0
10,109999,2,100000,17,80000,40,9999,0.100000,0,0,0.000000,5,0.000000,0.000000,1.851247,0,0,0,0,0,0,0
10,109999,3,100000,45,10000,40,9999,0.100000,0,0,0.000000,5,0.000000,0.000000,0.531310,0,0,0,0,0,0,0
10,109999,4,100000,17,80000,40,9999,0.100000,0,0,0.000000,5,0.000000,0.000000,0.591431,0,0,0,0,0,0,0
10,109999,5,100000,17,80000,49,9999,0.100000,0,0,0.000000,5,3.000000,0.000000,3.236335,0,0,0,0,0,0,0
10,109999,6,100000,53,0,49,9999,0.100000,0,0,0.000000,5,3.000000,0.000000,3.201235,0,0,0,0,0,0,0
10,109999,7,100000,45,10000,40,9999,0.100000,0,0,0.000000,5,0.000000,0.000000,0.224258,0,0,0,0,0,0,0
10,109999,8,100000,5,10000,40,9999,0.100000,0,0,0.000000,5,0.000000,0.000000,0.681158,0,0,0,0,0,0,0
10,109999,9,100000,45,10000,40,9999,0.100000,0,0,0.000000,5,0.000000,0.000000,0.076744,0,0,0,0,0,0,0
10,109999,10,100000,17,80000,40,9999,0.100000,0,0,0.000000,5,0.000000,0.000000,0.932816,0,0,0,0,0,0,0
10,109999,11,100000,53,0,40,9999,0.100000,0,0,0.000000,5,0.000000,0.000000,0.597993,0,0,0,0,0,0,0
10,109999,12,100000,45,10000,40,9999,0.100000,0,0,0.000000,5,0.000000,0.000000,0.233154,0,0,0,0,0,0,0
10,109999,13,100000,17,80000,40,9999,0.100000,0,0,0.000000,5,0.000000,0.000000,0.058809,0,0,0,0,0,0,0
10,109999,14,100000,53,0,40,9999,0.100000,0,0,0.000000,5,0.000000,0.000000,2.136320,0,0,0,0,0,0,0
10,109999,15,100000,53,0,40,9999,0.100000,0,0,0.000000,5,0.000000,0.000000,0.749707,0,0,0,0,0,0,0
10,109999,16,100000,45,10000,40,9999,0.100000,0,0,0.000000,5,0.000000,0.000000,0.786895,0,0,0,0,0,0,0
10,109999,17,100000,5,10000,49,9999,0.100000,0,0,0.000000,5,2.000000,0.000000,4.215730,0,0,0,0,0,0,0
10,109999,18,100000,6,0,40,9999,0.100000,0,0,0.000000,5,0.000000,0.000000,0.482147,0,0,0,0,0,0,0
10,109999,19,100000,6,0,49,9999,0.100000,0,0,0.000000,5,2.000000,0.000000,4.262810,0,0,0,0,0,0,0
10,109999,20,100000,6,0,49,9999,0.100000,0,0,0.000000,5,6.000000,0.000000,7.824409,0,0,0,0,0,0,0
10,109999,21,100000,5,10000,40,9999,0.100000,0,0,0.000000,5,0.000000,0.000000,1.490230,0,0,0,0,0,0,0
10,109999,22,100000,45,10000,40,9999,0.100000,0,0,0.000000,5,0.000000,0.000000,0.642580,0,0,0,0,0,0,0
10,109999,23,100000,5,10000,40,9999,0.100000,0,0,0.000000,5,0.000000,0.000000,0.272692,0,0,0,0,0,0,0
10,109999,24,100000,6,0,49,9999,0.100000,0,0,0.000000,5,1.000000,0.000000,1.162397,0,0,0,0,0,0,0
10,109999,25,100000,17,80000,40,9999,0.100000,0,0,0.000000,5,0.000000,0.000000,0.234815,0,0,0,0,0,0,0
10,109999,26,100000,45,10000,40,9999,0.100000,0,0,0.000000,5,0.000000,0.000000,0.776498,0,0,0,0,0,0,0
10,109999,27,100000,53,0,40,9999,0.100000,0,0,0.000000,5,0.000000,0.000000,0.097461,0,0,0,0,0,0,0
10,109999,28,100000,17,80000,40,9999,0.100000,0,0,0.000000,5,0.000000,0.000000,1.265837,0,0,0,0,0,0,0
10,109999,29,100000,45,10000,40,9999,0.100000,0,0,0.000000,5,0.000000,0.000000,0.088633,0,0,0,0,0,0,0
10,109999,30,100000,6,0,40,9999,0.100000,0,0,0.000000,5,0.000000,0.000000,0.080443,0,0,0,0,0,0,0
10,109999,31,100000,17,80000,40,9999,0.100000,0,0,0.000000,5,0.000000,0.000000,0.073198,0,0,0,0,0,0,0
10,109999,32,100000,45,10000,49,9999,0.100000,0,0,0.000000,5,3.000000,0.000000,4.218169,0,0,0,0,0,0,0
10,109999,33,100000,6,0,40,9999,0.100000,0,0,0.000000,5,0.000000,0.000000,0.174950,0,0,0,0,0,0,0
10,109999,34,100000,6,0,40,9999,0.100000,0,0,0.000000,5,0.000000,0.000000,0.680675,0,0,0,0,0,0,0
10,109999,35,100000,53,0,49,9999,0.100000,0,0,0.000000,5,8.000000,0.000000,14.683605,0,0,0,0,0,0,0
10,109999,36,100000,5,10000,40,9999,0.100000,0,0,0.000000,5,0.000000,0.000000,0.689451,0,0,0,0,0,0,0
10,109999,37,100000,45,10000,40,9999,0.100000,0,0,0.000000,5,0.000000,0.000000,0.814296,0,0,0,0,0,0,0
10,109999,38,100000,53,0,40,9999,0.100000,0,0,0.000000,5,0.000000,0.000000,0.435538,0,0,0,0,0,0,0
10,109999,39,100000,53,0,40,9999,0.100000,0,0,0.000000,5,0.000000,0.000000,0.091183,0,0,0,0,0,0,0
10,109999,40,100000,5,10000,40,9999,0.100000,0,0,0.000000,5,0.000000,0.000000,0.252783,0,0,0,0,0,0,0
10,109999,41,100000,17,80000,40,9999,0.100000,0,0,0.000000,5,0.000000,0.000000,0.274407,0,0,0,0,0,0,0
10,109999,42,100000,6,0,40,9999,0.100000,0,0,0.000000,5,0.000000,0.000000,0.421851,0,0,0,0,0,0,0
10,109999,43,100000,45,10000,49,9999,0.100000,0,0,0.000000,5,2.000000,0.000000,4.157252,0,0,0,0,0,0,0
10,109999,44,100000,5,10000,40,9999,0.100000,0,0,0.000000,5,0.000000,0.000000,0.402328,0,0,0,0,0,0,0
10,109999,45,100000,53,0,40,9999,0.100000,0,0,0.000000,5,0.000000,0.000000,3.145612,0,0,0,0,0,0,0
10,109999,46,100000,6,0,40,9999,0.100000,0,0,0.000000,5,0.000000,0.000000,0.377112,0,0,0,0,0,0,0
10,109999,47,100000,5,10000,49,9999,0.100000,0,0,0.000000,5,1.000000,0.000000,4.988436,0,0,0,0,0,0,0
10,109999,48,100000,17,80000,40,9999,0.100000,0,0,0.000000,5,0.000000,0.000000,1.306870,0,0,0,0,0,0,0
10,109999,49,100000,17,80000,40,9999,0.100000,0,0,0.000000,5,0.000000,0.000000,0.164806,0,0,0,0,0,0,0
10,109999,50,100000,6,0,40,9999,0.100000,0,0,0.000000,5,0.000000,0.000000,0.804892,0,0,0,0,0,0,0
10,109999,51,100000,53,0,40,9999,0.100000,0,0,0.000000,5,0.000000,0.000000,0.147405,0,0,0,0,0,0,0
10,109999,52,100000,6,0,40,9999,0.100000,0,0,0.000000,5,0.000000,0.000000,0.331835,0,0,0,0,0,0,0
10,109999,53,100000,5,10000,40,9999,0.100000,0,0,0.000000,5,0.000000,0.000000,3.221817,0,0,0,0,0,0,0
10,109999,54,100000,17,80000,40,9999,0.100000,0,0,0.000000,5,0.000000,0.000000,0.098353,0,0,0,0,0,0,0
10,109999,55,100000,45,10000,40,9999,0.100000,0,0,0.000000,5,0.000000,0.000000,0.855457,0,0,0,0,0,0,0
10,109999,56,100000,6,0,49,9999,0.100000,0,0,0.000000,5,2.000000,0.000000,4.094154,0,0,0,0,0,0,0
10,109999,57,100000,45,10000,40,9999,0.100000,0,0,0.000000,5,0.000000,0.000000,23.839380,0,0,0,0,0,0,0
10,109999,58,100000,53,0,49,9999,0.100000,0,0,0.000000,5,1.000000,0.000000,14.724162,0,0,0,0,0,0,0
10,109999,59,100000,53,0,40,9999,0.100000,0,0,0.000000,5,0.000000,0.000000,1.658503,0,0,0,0,0,0,0
10,109999,60,100000,5,10000,40,9999,0.100000,0,0,0.000000,5,0.000000,0.000000,0.993643,0,0,0,0,0,0,0
10,109999,61,100000,53,0,40,9999,0.100000,0,0,0.000000,5,0.000000,0.000000,0.466058,0,0,0,0,0,0,0
10,109999,62,100000,5,10000,40,9999,0.100000,0,0,0.000000,5,0.000000,0.000000,0.557491,0,0,0,0,0,0,0
10,109999,63,100000,5,10000,40,9999,0.100000,0,0,0.000000,5,0.000000,0.000000,0.144947,0,0,0,0,0,0,0
10,109999,64,100000,45,10000,40,9999,0.100000,0,0,0.000000,5,0.000000,0.000000,10.280484,0,0,0,0,0,0,0
10,109999,65,100000,5,10000,40,9999,0.100000,0,0,0.000000,5,0.000000,0.000000,0.204234,0,0,0,0,0,0,0
10,109999,66,100000,53,0,40,9999,0.100000,0,0,0.000000,5,0.000000,0.000000,0.548043,0,0,0,0,0,0,0
10,109999,67,100000,53,0,49,9999,0.100000,0,0,0.000000,5,1.000000,0.000000,1.154326,0,0,0,0,0,0,0
10,109999,68,100000,6,0,40,9999,0.100000,0,0,0.000000,5,0.000000,0.000000,0.332927,0,0,0,0,0,0,0
10,109999,69,100000,6,0,40,9999,0.100000,0,0,0.000000,5,0.000000,0.000000,4.688137,0,0,0,0,0,0,0
10,109999,70,100000,6,0,40,9999,0.100000,0,0,0.000000,5,0.000000,0.000000,1.178976,0,0,0,0,0,0,0
10,109999,71,100000,53,0,40,9999,0.100000,0,0,0.000000,5,0.000000,0.000000,1.603296,0,0,0,0,0,0,0
10,109999,72,100000,5,10000,40,9999,0.100000,0,0,0.000000,5,0.000000,0.000000,0.985835,0,0,0,0,0,0,0
10,109999,73,100000,6,0,40,9999,0.100000,0,0,0.000000,5,0.000000,0.000000,0.390153,0,0,0,0,0,0,0
10,109999,74,100000,17,80000,40,9999,0.100000,0,0,0.000000,5,0.000000,0.000000,0.242434,0,0,0,0,0,0,0
10,109999,75,100000,6,0,40,9999,0.100000,0,0,0.000000,5,0.000000,0.000000,0.137565,0,0,0,0,0,0,0
10,109999,76,100000,5,10000,40,9999,0.100000,0,0,0.000000,5,0.000000,0.000000,0.411516,0,0,0,0,0,0,0
10,109999,77,100000,6,0,40,9999,0.100000,0,0,0.000000,5,0.000000,0.000000,0.729016,0,0,0,0,0,0,0
10,109999,78,100000,17,80000,49,9999,0.100000,0,0,0.000000,5,1.000000,0.000000,6.278473,0,0,0,0,0,0,0
10,109999,79,100000,45,10000,40,9999,0.100000,0,0,0.000000,5,0.000000,0.000000,0.084664,0,0,0,0,0,0,0
10,109999,80,100000,5,10000,40,9999,0.100000,0,0,0.000000,5,0.000000,0.000000,0.919370,0,0,0,0,0,0,0
10,109999,81,100000,53,0,40,9999,0.100000,0,0,0.000000,5,0.000000,0.000000,0.524700,0,0,0,0,0,0,0
10,109999,82,100000,17,80000,40,9999,0.100000,0,0,0.000000,5,0.000000,0.000000,1.131467,0,0,0,0,0,0,0
10,109999,83,100000,5,10000,40,9999,0.100000,0,0,0.000000,5,0.000000,0.000000,0.160166,0,0,0,0,0,0,0
10,109999,84,100000,5,10000,40,9999,0.100000,0,0,0.000000,5,0.000000,0.000000,0.928645,0,0,0,0,0,0,0
10,109999,85,100000,45,10000,40,9999,0.100000,0,0,0.000000,5,0.000000,0.000000,0.519358,0,0,0,0,0,0,0
10,109999,86,100000,53,0,40,9999,0.100000,0,0,0.000000,5,0.000000,0.000000,0.516470,0,0,0,0,0,0,0
10,109999,87,100000,53,0,40,9999,0.100000,0,0,0.000000,5,0.000000,0.000000,0.149619,0,0,0,0,0,0,0
10,109999,88,100000,5,10000,40,9999,0.100000,0,0,0.000000,5,0.000000,0.000000,0.155712,0,0,0,0,0,0,0
10,109999,89,100000,53,0,40,9999,0.100000,0,0,0.000000,5,0.000000,0.000000,0.352344,0,0,0,0,0,0,0
10,109999,90,100000,45,10000,40,9999,0.100000,0,0,0.000000,5,0.000000,0.000000,0.755572,0,0,0,0,0,0,0
10,109999,91,100000,17,80000,40,9999,0.100000,0,0,0.000000,5,0.000000,0.000000,0.067129,0,0,0,0,0,0,0
10,109999,92,100000,53,0,40,9999,0.100000,0,0,0.000000,5,0.000000,0.000000,0.069944,0,0,0,0,0,0,0
10,109999,93,100000,5,10000,40,9999,0.100000,0,0,0.000000,5,0.000000,0.000000,0.080850,0,0,0,0,0,0,0
10,109999,94,100000,53,0,40,9999,0.100000,0,0,0.000000,5,0.000000,0.000000,0.180678,0,0,0,0,0,0,0
10,109999,95,100000,45,10000,40,9999,0.100000,0,0,0.000000,5,0.000000,0.000000,0.367885,0,0,0,0,0,0,0
10,109999,96,100000,45,10000,49,9999,0.100000,0,0,0.000000,5,2.000000,0.000000,4.131541,0,0,0,0,0,0,0
10,109999,97,100000,17,80000,40,9999,0.100000,0,0,0.000000,5,0.000000,0.000000,1.574015,0,0,0,0,0,0,0
10,109999,98,100000,5,10000,40,9999,0.100000,0,0,0.000000,5,0.000000,0.000000,0.630443,0,0,0,0,0,0,0
10,109999,99,100000,53,0,40,9999,0.100000,0,0,0.000000,5,0.000000,0.000000,0.132156,0,0,0,0,0,0,0
11,119999,0,110000,17,80000,49,9999,0.100000,0,0,0.000000,5,1.000000,0.000000,1.290534,0,0,0,0,0,0,0
11,119999,1,110000,45,10000,49,9999,0.100000,0,0,0.000000,5,2.000000,0.000000,2.745316,0,0,0,0,0,0,0
11,119999,2,110000,53,0,40,9999,0.100000,0,0,0.000000,5,0.000000,0.000000,1.985639,0,0,0,0,0,0,0
11,119999,3,110000,17,80000,40,9999,0.100000,0,0,0.000000,5,0.000000,0.000000,0.693731,0,0,0,0,0,0,0
11,119999,4,110000,17,80000,49,9999,0.100000,0,0,0.000000,5,2.000000,0.000000,3.143586,0,0,0,0,0,0,0
11,119999,5,110000,45,10000,49,9999,0.100000,0,0,0.000000,5,2.000000,0.000000,3.075265,0,0,0,0,0,0,0
11,119999,6,110000,17,80000,49,9999,0.100000,0,0,0.000000,5,2.000000,0.000000,2.499089,0,0,0,0,0,0,0
11,119999,7,110000,17,80000,40,9999,0.100000,0,0,0.000000,5,0.000000,0.000000,0.225066,0,0,0,0,0,0,0
11,119999,8,110000,17,80000,40,9999,0.100000,0,0,0.000000,5,0.000000,0.000000,0.602558,0,0,0,0,0,0,0
11,119999,9,110000,5,10000,40,9999,0.100000,0,0,0.000000,5,0.000000,0.000000,0.094918,0,0,0,0,0,0,0
11,119999,10,110000,45,10000,49,9999,0.100000,0,0,0.000000,5,1.000000,0.000000,1.452937,0,0,0,0,0,0,0
11,119999,11,110000,45,10000,40,9999,0.100000,0,0,0.000000,5,0.000000,0.000000,0.638484,0,0,0,0,0,0,0
11,119999,12,110000,6,0,40,9999,0.100000,0,0,0.000000,5,0.000000,0.000000,0.347156,0,0,0,0,0,0,0
11,119999,13,110000,17,80000,40,9999,0.100000,0,0,0.000000,5,0.000000,0.000000,0.060111,0,0,0,0,0,0,0
11,119999,14,110000,6,0,40,9999,0.100000,0,0,0.000000,5,0.000000,0.000000,3.177030,0,0,0,0,0,0,0
11,119999,15,110000,5,10000,40,9999,0.100000,0,0,0.000000,5,0.000000,0.000000,0.726933,0,0,0,0,0,0,0
11,119999,16,110000,45,10000,40,9999,0.100000,0,0,0.000000,5,0.000000,0.000000,1.098323,0,0,0,0,0,0,0
11,119999,17,110000,53,0,40,9999,0.100000,0,0,0.000000,5,0.000000,0.000000,0.297990,0,0,0,0,0,0,0
11,119999,18,110000,6,0,40,9999,0.100000,0,0,0.000000,5,0.000000,0.000000,0.500117,0,0,0,0,0,0,0
11,119999,19,110000,45,10000,40,9999,0.100000,0,0,0.000000,5,0.000000,0.000000,0.744180,0,0,0,0,0,0,0
11,119999,20,100000,6,0,40,19999,0.100000,0,0,0.000000,5,0.000000,0.000000,0.919954,0,0,0,0,0,0,0
11,119999,21,110000,6,0,40,9999,0.100000,0,0,0.000000,5,0.000000,0.000000,1.239810,0,0,0,0,0,0,0
11,119999,22,110000,17,80000,40,9999,0.100000,0,0,0.000000,5,0.000000,0.000000,0.587048,0,0,0,0,0,0,0
11,119999,23,110000,53,0,40,9999,0.100000,0,0,0.000000,5,0.000000,0.000000,1.137134,0,0,0,0,0,0,0
11,119999,24,110000,5,10000,40,9999,0.100000,0,0,0.000000,5,0.000000,0.000000,0.664353,0,0,0,0,0,0,0
11,119999,25,110000,45,10000,40,9999,0.100000,0,0,0.000000,5,0.000000,0.000000,0.241501,0,0,0,0,0,0,0
11,119999,26,110000,5,10000,40,9999,0.100000,0,0,0.000000,5,0.000000,0.000000,1.845405,0,0,0,0,0,0,0
11,119999,27,110000,45,10000,40,9999,0.100000,0,0,0.000000,5,0.000000,0.000000,0.082166,0,0,0,0,0,0,0
11,119999,28,110000,53,0,49,9999,0.100000,0,0,0.000000,5,1.000000,0.000000,1.818930,0,0,0,0,0,0,0
11,119999,29,110000,5,10000,40,9999,0.100000,0,0,0.000000,5,0.000000,0.000000,0.091874,0,0,0,0,0,0,0
11,119999,30,110000,45,10000,40,9999,0.100000,0,0,0.000000,5,0.000000,0.000000,0.079338,0,0,0,0,0,0,0
11,119999,31,110000,45,10000,40,9999,0.100000,0,0,0.000000,5,0.000000,0.000000,0.070980,0,0,0,0,0,0,0
11,119999,32,110000,5,10000,49,9999,0.100000,0,0,0.000000,5,2.000000,0.000000,3.544857,0,0,0,0,0,0,0
11,119999,33,110000,6,0,40,9999,0.100000,0,0,0.000000,5,0.000000,0.000000,0.176010,0,0,0,0,0,0,0
11,119999,34,110000,53,0,40,9999,0.100000,0,0,0.000000,5,0.000000,0.000000,0.644901,0,0,0,0,0,0,0
11,119999,35,110000,53,0,40,9999,0.100000,0,0,0.000000,5,0.000000,0.000000,0.379753,0,0,0,0,0,0,0
11,119999,36,110000,6,0,40,9999,0.100000,0,0,0.000000,5,0.000000,0.000000,0.152557,0,0,0,0,0,0,0
11,119999,37,110000,17,80000,40,9999,0.100000,0,0,0.000000,5,0.000000,0.000000,1.248268,0,0,0,0,0,0,0
11,119999,38,110000,17,80000,49,9999,0.100000,0,0,0.000000,5,1.000000,0.000000,6.936500,0,0,0,0,0,0,0
11,119999,39,110000,17,80000,40,9999,0.100000,0,0,0.000000,5,0.000000,0.000000,0.088204,0,0,0,0,0,0,0
11,119999,40,110000,5,10000,49,9999,0.100000,0,0,0.000000,5,1.000000,0.000000,1.227702,0,0,0,0,0,0,0
11,119999,41,110000,5,10000,40,9999,0.100000,0,0,0.000000,5,0.000000,0.000000,0.269319,0,0,0,0,0,0,0
11,119999,42,110000,45,10000,40,9999,0.100000,0,0,0.000000,5,0.000000,0.000000,0.223828,0,0,0,0,0,0,0
11,119999,43,110000,45,10000,40,9999,0.100000,0,0,0.000000,5,0.000000,0.000000,0.454425,0,0,0,0,0,0,0
11,119999,44,110000,53,0,40,9999,0.100000,0,0,0.000000,5,0.000000,0.000000,0.121108,0,0,0,0,0,0,0
11,119999,45,110000,6,0,40,9999,0.100000,0,0,0.000000,5,0.000000,0.000000,0.456775,0,0,0,0,0,0,0
11,119999,46,110000,6,0,40,9999,0.100000,0,0,0.000000,5,0.000000,0.000000,0.251920,0,0,0,0,0,0,0
11,119999,47,110000,6,0,40,9999,0.100000,0,0,0.000000,5,0.000000,0.000000,10.826689,0,0,0,0,0,0,0
11,119999,48,110000,5,10000,40,9999,0.100000,0,0,0.000000,5,0.000000,0.000000,0.747830,0,0,0,0,0,0,0
11,119999,49,110000,53,0,40,9999,0.100000,0,0,0.000000,5,0.000000,0.000000,0.166222,0,0,0,0,0,0,0
11,119999,50,110000,17,80000,49,9999,0.100000,0,0,0.000000,5,1.000000,0.000000,1.240468,0,0,0,0,0,0,0
11,119999,51,110000,17,80000,49,9999,0.100000,0,0,0.000000,5,1.000000,0.000000,1.464068,0,0,0,0,0,0,0
11,119999,52,110000,53,0,40,9999,0.100000,0,0,0.000000,5,0.000000,0.000000,0.238688,0,0,0,0,0,0,0
11,119999,53,110000,45,10000,40,9999,0.100000,0,0,0.000000,5,0.000000,0.000000,0.279477,0,0,0,0,0,0,0
11,119999,54,110000,6,0,40,9999,0.100000,0,0,0.000000,5,0.000000,0.000000,0.103216,0,0,0,0,0,0,0
11,119999,55,110000,53,0,40,9999,0.100000,0,0,0.000000,5,0.000000,0.000000,0.405721,0,0,0,0,0,0,0
11,119999,56,110000,53,0,40,9999,0.100000,0,0,0.000000,5,0.000000,0.000000,0.634460,0,0,0,0,0,0,0
11,119999,57,110000,53,0,40,9999,0.100000,0,0,0.000000,5,0.000000,0.000000,23.761136,0,0,0,0,0,0,0
11,119999,58,110000,53,0,40,9999,0.100000,0,0,0.000000,5,0.000000,0.000000,12.382114,0,0,0,0,0,0,0
11,119999,59,110000,45,10000,40,9999,0.100000,0,0,0.000000,5,0.000000,0.000000,0.364089,0,0,0,0,0,0,0
11,119999,60,110000,17,80000,40,9999,0.100000,0,0,0.000000,5,0.000000,0.000000,0.962336,0,0,0,0,0,0,0
11,119999,61,110000,17,80000,40,9999,0.100000,0,0,0.000000,5,0.000000,0.000000,0.143103,0,0,0,0,0,0,0
11,119999,62,110000,17,80000,40,9999,0.100000,0,0,0.000000,5,0.000000,0.000000,0.177264,0,0,0,0,0,0,0
11,119999,63,110000,5,10000,40,9999,0.100000,0,0,0.000000,5,0.000000,0.000000,0.097591,0,0,0,0,0,0,0
11,119999,64,110000,6,0,40,9999,0.100000,0,0,0.000000,5,0.000000,0.000000,2.206327,0,0,0,0,0,0,0
11,119999,65,110000,45,10000,40,9999,0.100000,0,0,0.000000,5,0.000000,0.000000,0.190773,0,0,0,0,0,0,0
11,119999,66,110000,45,10000,40,9999,0.065000,0,0,0.000000,5,0.000000,0.000000,0.640199,0,0,0,0,0,0,0
11,119999,67,110000,45,10000,40,9999,0.100000,0,0,0.000000,5,0.000000,0.000000,0.773177,0,0,0,0,0,0,0
11,119999,68,110000,45,10000,40,9999,0.100000,0,0,0.000000,5,0.000000,0.000000,0.360108,0,0,0,0,0,0,0
11,119999,69,110000,45,10000,40,9999,0.100000,0,0,0.000000,5,0.000000,0.000000,2.722627,0,0,0,0,0,0,0
11,119999,70,110000,17,80000,40,9999,0.100000,0,0,0.000000,5,0.000000,0.000000,1.025257,0,0,0,0,0,0,0
11,119999,71,110000,17,80000,40,9999,0.100000,0,0,0.000000,5,0.000000,0.000000,0.743782,0,0,0,0,0,0,0
11,119999,72,110000,53,0,40,9999,0.100000,0,0,0.000000,5,0.000000,0.000000,0.805455,0,0,0,0,0,0,0
11,119999,73,110000,17,80000,40,9999,0.100000,0,0,0.000000,5,0.000000,0.000000,0.218587,0,0,0,0,0,0,0
11,119999,74,110000,45,10000,40,9999,0.100000,0,0,0.000000,5,0.000000,0.000000,0.233927,0,0,0,0,0,0,0
11,119999,75,110000,53,0,40,9999,0.100000,0,0,0.000000,5,0.000000,0.000000,0.124035,0,0,0,0,0,0,0
11,119999,76,110000,53,0,40,9999,0.100000,0,0,0.000000,5,0.000000,0.000000,0.983326,0,0,0,0,0,0,0
11,119999,77,110000,53,0,40,9999,0.100000,0,0,0.000000,5,0.000000,0.000000,0.575485,0,0,0,0,0,0,0
11,119999,78,110000,6,0,49,9999,0.100000,0,0,0.000000,5,1.000000,0.000000,4.894021,0,0,0,0,0,0,0
11,119999,79,110000,53,0,40,9999,0.065000,0,0,0.000000,5,0.000000,0.000000,0.084400,0,0,0,0,0,0,0
11,119999,80,110000,6,0,40,9999,0.100000,0,0,0.000000,5,0.000000,0.000000,0.763726,0,0,0,0,0,0,0
11,119999,81,110000,5,10000,40,9999,0.100000,0,0,0.000000,5,0.000000,0.000000,0.420362,0,0,0,0,0,0,0
11,119999,82,110000,17,80000,40,9999,0.100000,0,0,0.000000,5,0.000000,0.000000,1.143728,0,0,0,0,0,0,0
11,119999,83,110000,17,80000,40,9999,0.100000,0,0,0.000000,5,0.000000,0.000000,0.154637,0,0,0,0,0,0,0
11,119999,84,110000,5,10000,40,9999,0.100000,0,0,0.000000,5,0.000000,0.000000,0.468517,0,0,0,0,0,0,0
11,119999,85,110000,6,0,40,9999,0.100000,0,0,0.000000,5,0.000000,0.000000,0.710499,0,0,0,0,0,0,0
11,119999,86,110000,45,10000,40,9999,0.100000,0,0,0.000000,5,0.000000,0.000000,0.589008,0,0,0,0,0,0,0
11,119999,87,110000,5,10000,40,9999,0.100000,0,0,0.000000,5,0.000000,0.000000,0.122388,0,0,0,0,0,0,0
11,119999,88,110000,6,0,40,9999,0.100000,0,0,0.000000,5,0.000000,0.000000,0.151423,0,0,0,0,0,0,0
11,119999,89,110000,45,10000,40,9999,0.100000,0,0,0.000000,5,0.000000,0.000000,0.468605,0,0,0,0,0,0,0
11,119999,90,110000,17,80000,40,9999,0.100000,0,0,0.000000,5,0.000000,0.000000,1.388970,0,0,0,0,0,0,0
11,119999,91,110000,53,0,40,9999,0.100000,0,0,0.000000,5,0.000000,0.000000,0.066846,0,0,0,0,0,0,0
11,119999,92,110000,6,0,40,9999,0.100000,0,0,0.000000,5,0.000000,0.000000,0.071854,0,0,0,0,0,0,0
11,119999,93,110000,17,80000,40,9999,0.100000,0,0,0.000000,5,0.000000,0.000000,0.074805,0,0,0,0,0,0,0
11,119999,94,110000,5,10000,40,9999,0.100000,0,0,0.000000,5,0.000000,0.000000,0.192916,0,0,0,0,0,0,0
11,119999,95,110000,17,80000,40,9999,0.100000,0,0,0.000000,5,0.000000,0.000000,0.264914,0,0,0,0,0,0,0
11,119999,96,110000,5,10000,40,9999,0.100000,0,0,0.000000,5,0.000000,0.000000,0.507445,0,0,0,0,0,0,0
11,119999,97,110000,45,10000,40,9999,0.100000,0,0,0.000000,5,0.000000,0.000000,0.860205,0,0,0,0,0,0,0
11,119999,98,110000,5,10000,40,9999,0.100000,0,0,0.000000,5,0.000000,0.000000,0.551350,0,0,0,0,0,0,0
11,119999,99,110000,45,10000,40,9999,0.100000,0,0,0.000000,5,0.000000,0.000000,0.131868,0,0,0,0,0,0,0
12,129999,0,120000,53,0,40,9999,0.100000,0,0,0.000000,5,0.000000,0.000000,0.525638,0,0,0,0,0,0,0
12,129999,1,120000,6,0,49,9999,0.100000,0,0,0.000000,5,1.000000,0.000000,1.045302,0,0,0,0,0,0,0
12,129999,2,120000,53,0,40,9999,0.100000,0,0,0.000000,5,0.000000,0.000000,2.001629,0,0,0,0,0,0,0
12,129999,3,120000,53,0,40,9999,0.100000,0,0,0.000000,5,0.000000,0.000000,0.745737,0,0,0,0,0,0,0
12,129999,4,120000,5,10000,40,9999,0.100000,0,0,0.000000,5,0.000000,0.000000,0.652275,0,0,0,0,0,0,0
12,129999,5,120000,5,10000,49,9999,0.100000,0,0,0.000000,5,4.000000,0.000000,9.511240,0,0,0,0,0,0,0
12,129999,6,120000,53,0,40,9999,0.100000,0,0,0.000000,5,0.000000,0.000000,1.012569,0,0,0,0,0,0,0
12,129999,7,120000,23,110000,40,9999,0.100000,0,0,0.000000,5,0.000000,0.000000,0.221509,0,0,0,0,0,0,0
12,129999,8,120000,6,0,40,9999,0.100000,0,0,0.000000,5,0.000000,0.000000,0.419335,0,0,0,0,0,0,0
12,129999,9,120000,6,0,40,9999,0.100000,0,0,0.000000,5,0.000000,0.000000,0.104605,0,0,0,0,0,0,0
12,129999,10,120000,23,110000,49,9999,0.100000,0,0,0.000000,5,1.000000,0.000000,1.536782,0,0,0,0,0,0,0
12,129999,11,120000,53,0,40,9999,0.100000,0,0,0.000000,5,0.000000,0.000000,0.467229,0,0,0,0,0,0,0
12,129999,12,120000,17,80000,40,9999,0.100000,0,0,0.000000,5,0.000000,0.000000,0.343618,0,0,0,0,0,0,0
12,129999,13,120000,53,0,40,9999,0.100000,0,0,0.000000,5,0.000000,0.000000,0.059291,0,0,0,0,0,0,0
12,129999,14,120000,53,0,40,9999,0.100000,0,0,0.000000,5,0.000000,0.000000,3.621661,0,0,0,0,0,0,0
12,129999,15,120000,5,10000,49,9999,0.100000,0,0,0.000000,5,1.000000,0.000000,4.768217,0,0,0,0,0,0,0
12,129999,16,120000,5,10000,40,9999,0.100000,0,0,0.000000,5,0.000000,0.000000,1.135182,0,0,0,0,0,0,0
12,129999,17,120000,53,0,40,9999,0.100000,0,0,0.000000,5,0.000000,0.000000,0.321817,0,0,0,0,0,0,0
12,129999,18,120000,53,0,40,9999,0.100000,0,0,0.000000,5,0.000000,0.000000,0.496949,0,0,0,0,0,0,0
12,129999,19,120000,17,80000,40,9999,0.100000,0,0,0.000000,5,0.000000,0.000000,0.270137,0,0,0,0,0,0,0
12,129999,20,120000,17,80000,49,9999,0.100000,0,0,0.000000,5,1.000000,0.000000,2.852590,0,0,0,0,0,0,0
12,129999,21,120000,23,110000,40,9999,0.100000,0,0,0.000000,5,0.000000,0.000000,1.226246,0,0,0,0,0,0,0
12,129999,22,120000,53,0,40,9999,0.100000,0,0,0.000000,5,0.000000,0.000000,0.683343,0,0,0,0,0,0,0
12,129999,23,120000,6,0,49,9999,0.100000,0,0,0.000000,5,1.000000,0.000000,1.295473,0,0,0,0,0,0,0
12,129999,24,120000,5,10000,40,9999,0.100000,0,0,0.000000,5,0.000000,0.000000,0.185935,0,0,0,0,0,0,0
12,129999,25,120000,6,0,40,9999,0.100000,0,0,0.000000,5,0.000000,0.000000,0.236370,0,0,0,0,0,0,0
12,129999,26,120000,5,10000,40,9999,0.100000,0,0,0.000000,5,0.000000,0.000000,1.831671,0,0,0,0,0,0,0
12,129999,27,120000,53,0,40,9999,0.100000,0,0,0.000000,5,0.000000,0.000000,0.082646,0,0,0,0,0,0,0
12,129999,28,120000,17,80000,40,9999,0.100000,0,0,0.000000,5,0.000000,0.000000,1.250139,0,0,0,0,0,0,0
12,129999,29,120000,17,80000,40,9999,0.100000,0,0,0.000000,5,0.000000,0.000000,0.091730,0,0,0,0,0,0,0
12,129999,30,120000,5,10000,40,9999,0.100000,0,0,0.000000,5,0.000000,0.000000,0.081557,0,0,0,0,0,0,0
12,129999,31,120000,6,0,40,9999,0.100000,0,0,0.000000,5,0.000000,0.000000,0.070647,0,0,0,0,0,0,0
12,129999,32,120000,6,0,49,9999,0.100000,0,0,0.000000,5,1.000000,0.000000,1.524334,0,0,0,0,0,0,0
12,129999,33,120000,5,10000,40,9999,0.100000,0,0,0.000000,5,0.000000,0.000000,0.435944,0,0,0,0,0,0,0
12,129999,34,120000,17,80000,40,9999,0.100000,0,0,0.000000,5,0.000000,0.000000,0.600608,0,0,0,0,0,0,0
12,129999,35,120000,6,0,40,9999,0.100000,0,0,0.000000,5,0.000000,0.000000,0.346088,0,0,0,0,0,0,0
12,129999,36,120000,17,80000,40,9999,0.100000,0,0,0.000000,5,0.000000,0.000000,0.154123,0,0,0,0,0,0,0
12,129999,37,120000,5,10000,40,9999,0.100000,0,0,0.000000,5,0.000000,0.000000,0.779279,0,0,0,0,0,0,0
12,129999,38,120000,6,0,49,9999,0.100000,0,0,0.000000,5,1.000000,0.000000,16.695918,0,0,0,0,0,0,0
12,129999,39,120000,5,10000,40,9999,0.100000,0,0,0.000000,5,0.000000,0.000000,0.087688,0,0,0,0,0,0,0
12,129999,40,120000,6,0,40,9999,0.100000,0,0,0.000000,5,0.000000,0.000000,0.281268,0,0,0,0,0,0,0
12,129999,41,120000,17,80000,40,9999,0.100000,0,0,0.000000,5,0.000000,0.000000,0.246044,0,0,0,0,0,0,0
