generation,iteration,robot,birthday,ancestor_id,ancestor_birthday,cell_id,age,sigma,maps,genomes,fitness,cells_in_map,dist_max,dist_pot_max,dist_total,com_rx,com_tx,obj_group1,obj_group2,obj_group3,obj_group4,obj_group5
0,9999,0,0,0,0,40,9999,0.100000,99,0,0.000000,0,1.000000,21.228535,13.729011,99,99,0,0,0,0,0
0,9999,1,0,1,0,41,9999,0.100000,99,0,0.000000,0,3.000000,17.951101,20.412813,99,99,0,0,0,0,0
0,9999,2,0,2,0,0,9999,0.100000,99,0,2.422316,0,0.000000,26.783623,1.232177,99,99,0,0,1,0,0
0,9999,3,0,3,0,40,9999,0.100000,99,0,0.000000,0,1.000000,26.804761,1.376491,99,99,0,0,0,0,0
0,9999,4,0,4,0,92,9999,0.100000,99,0,41.352388,0,7.000000,26.447796,22.221631,99,99,1,0,0,0,0
0,9999,5,0,5,0,41,9999,0.100000,99,0,0.000000,0,4.000000,30.786775,13.908134,99,99,0,0,0,0,0
0,9999,6,0,6,0,40,9999,0.100000,99,0,0.000000,0,3.000000,31.800000,11.546728,99,99,0,0,0,0,0
0,9999,7,0,7,0,40,9999,0.100000,99,0,0.000000,0,1.000000,24.356183,4.561844,99,99,0,0,0,0,0
0,9999,8,0,8,0,0,9999,0.100000,99,0,0.000758,0,2.000000,27.017932,14.976788,99,99,0,0,0,1,0
0,9999,9,0,9,0,40,9999,0.100000,99,0,0.000000,0,1.000000,28.366273,5.010079,99,99,0,0,0,0,0
0,9999,10,0,10,0,0,9999,0.100000,99,0,0.163802,0,0.000000,17.256903,0.766734,99,99,0,0,0,1,0
0,9999,11,0,11,0,93,9999,0.100000,99,0,63.824542,0,11.000000,27.647663,19.870307,99,99,1,0,0,0,0
0,9999,12,0,12,0,40,9999,0.100000,99,0,0.000000,0,0.000000,20.705606,12.272668,99,99,0,0,0,0,0
0,9999,13,0,13,0,42,9999,0.100000,99,0,0.000000,0,8.000000,32.562136,28.434132,99,99,0,0,0,0,0
0,9999,14,0,14,0,40,9999,0.100000,99,0,0.000000,0,2.000000,29.684766,8.019395,99,99,0,0,0,0,0
0,9999,15,0,15,0,0,9999,0.100000,99,0,0.000090,0,1.000000,24.001428,4.007136,99,99,0,0,0,0,1
0,9999,16,0,16,0,90,9999,0.100000,99,0,9.552831,0,1.000000,33.645719,10.527253,99,99,1,0,0,0,0
0,9999,17,0,17,0,41,9999,0.100000,99,0,0.000000,0,3.000000,24.601370,10.258990,99,99,0,0,0,0,0
0,9999,18,0,18,0,44,9999,0.100000,99,0,0.000000,0,6.000000,13.828838,10.668336,99,99,0,0,0,0,0
0,9999,19,0,19,0,41,9999,0.100000,99,0,0.000000,0,4.000000,31.408410,15.677522,99,99,0,0,0,0,0
0,9999,20,0,20,0,42,9999,0.100000,99,0,0.000000,0,6.000000,25.845504,18.165277,99,99,0,0,0,0,0
0,9999,21,0,21,0,41,9999,0.100000,99,0,0.000000,0,4.000000,27.464249,14.251935,99,99,0,0,0,0,0
0,9999,22,0,22,0,93,9999,0.100000,99,0,46.669870,0,8.000000,20.394229,16.282019,99,99,1,0,0,0,0
0,9999,23,0,23,0,41,9999,0.100000,99,0,0.000000,0,3.000000,21.325193,8.598806,99,99,0,0,0,0,0
0,9999,24,0,24,0,44,9999,0.100000,99,0,0.000000,0,13.000000,26.888162,17.408992,99,99,0,0,0,0,0
0,9999,25,0,25,0,90,9999,0.100000,99,0,0.506107,0,0.000000,29.417775,2.441324,99,99,1,0,0,0,0
0,9999,26,0,26,0,40,9999,0.100000,99,0,0.000000,0,2.000000,24.310835,22.290790,99,99,0,0,0,0,0
0,9999,27,0,27,0,90,9999,0.100000,99,0,0.958238,0,0.000000,22.384264,1.274759,99,99,1,0,0,0,0
0,9999,28,0,28,0,40,9999,0.100000,99,0,0.000000,0,3.000000,31.284971,9.137866,99,99,0,0,0,0,0
0,9999,29,0,29,0,40,9999,0.100000,99,0,0.000000,0,2.000000,19.908582,5.690251,99,99,0,0,0,0,0
0,9999,30,0,30,0,40,9999,0.100000,99,0,0.000000,0,1.000000,20.218121,3.605319,99,99,0,0,0,0,0
0,9999,31,0,31,0,0,9999,0.100000,99,0,0.058034,0,2.000000,31.876472,2.294318,99,99,0,1,0,0,0
0,9999,32,0,32,0,0,9999,0.100000,99,0,0.686341,0,1.000000,25.814550,13.432011,99,99,0,0,0,1,0
0,9999,33,0,33,0,40,9999,0.100000,99,0,0.000000,0,0.000000,17.746612,13.098272,99,99,0,0,0,0,0
0,9999,34,0,34,0,91,9999,0.100000,99,0,29.721568,0,4.000000,25.758173,21.721519,99,99,2,0,0,0,0
0,9999,35,0,35,0,41,9999,0.100000,99,0,0.000000,0,3.000000,24.710540,8.687667,99,99,0,0,0,0,0
0,9999,36,0,36,0,40,9999,0.100000,99,0,0.000000,0,3.000000,28.915602,12.585731,99,99,0,0,0,0,0
0,9999,37,0,37,0,40,9999,0.100000,99,0,0.000000,0,0.000000,25.172673,4.508830,99,99,0,0,0,0,0
0,9999,38,0,38,0,95,9999,0.100000,99,0,66.667796,0,16.000000,29.811613,23.699095,99,99,1,0,0,0,0
0,9999,39,0,39,0,41,9999,0.100000,99,0,0.000000,0,3.000000,20.617439,5.718767,99,99,0,0,0,0,0
0,9999,40,0,40,0,96,9999,0.100000,99,0,59.533393,0,10.000000,15.215362,21.873237,99,99,1,0,0,0,0
0,9999,41,0,41,0,40,9999,0.100000,99,0,0.000000,0,0.000000,20.705606,6.436370,99,99,0,0,0,0,0
0,9999,42,0,42,0,41,9999,0.100000,99,0,0.000000,0,3.000000,24.464094,17.020019,99,99,0,0,0,0,0
0,9999,43,0,43,0,40,9999,0.100000,99,0,0.000000,0,1.000000,28.443969,22.822203,99,99,0,0,0,0,0
0,9999,44,0,44,0,40,9999,0.100000,99,0,0.000000,0,0.000000,34.957964,7.811500,99,99,0,0,0,0,0
0,9999,45,0,45,0,92,9999,0.100000,99,0,40.892205,0,8.000000,29.054133,18.966636,99,99,1,0,0,0,0
0,9999,46,0,46,0,41,9999,0.100000,99,0,0.000000,0,3.000000,18.414868,9.559323,99,99,0,0,0,0,0
0,9999,47,0,47,0,1,9999,0.100000,99,0,0.017049,0,3.000000,23.644413,4.681082,99,99,0,0,0,0,1
0,9999,48,0,48,0,94,9999,0.100000,99,0,63.606457,0,11.000000,22.965338,19.582104,99,99,1,0,0,0,0
0,9999,49,0,49,0,40,9999,0.100000,99,0,0.000000,0,2.000000,22.889143,8.435473,99,99,0,0,0,0,0
0,9999,50,0,50,0,40,9999,0.100000,99,0,0.000000,0,0.000000,27.778920,5.543904,99,99,0,0,0,0,0
0,9999,51,0,51,0,40,9999,0.100000,99,0,0.000000,0,2.000000,32.495555,8.062064,99,99,0,0,0,0,0
0,9999,52,0,52,0,40,9999,0.100000,99,0,0.000000,0,0.000000,33.187065,11.899920,99,99,0,0,0,0,0
0,9999,53,0,53,0,40,9999,0.100000,99,0,0.000000,0,0.000000,22.880994,6.441866,99,99,0,0,0,0,0
0,9999,54,0,54,0,40,9999,0.100000,99,0,0.000000,0,3.000000,32.796930,14.580316,99,99,0,0,0,0,0
0,9999,55,0,55,0,95,9999,0.100000,99,0,78.976448,0,17.000000,28.417383,22.777312,99,99,1,0,0,0,0
0,9999,56,0,56,0,40,9999,0.100000,99,0,0.000000,0,1.000000,27.765416,13.595792,99,99,0,0,0,0,0
0,9999,57,0,57,0,2,9999,0.100000,99,0,0.365120,0,4.000000,15.366563,8.520865,99,99,0,1,0,0,0
0,9999,58,0,58,0,0,9999,0.100000,99,0,1.343561,0,0.000000,21.200893,0.986155,99,99,0,0,0,0,1
0,9999,59,0,59,0,40,9999,0.100000,99,0,0.000000,0,0.000000,18.825531,4.722350,99,99,0,0,0,0,0
0,9999,60,0,60,0,40,9999,0.100000,99,0,0.000000,0,1.000000,28.592472,8.527883,99,99,0,0,0,0,0
0,9999,61,0,61,0,40,9999,0.100000,99,0,0.000000,0,2.000000,28.523769,12.168825,99,99,0,0,0,0,0
0,9999,62,0,62,0,40,9999,0.100000,99,0,0.000000,0,2.000000,28.413311,9.656101,99,99,0,0,0,0,0
0,9999,63,0,63,0,40,9999,0.100000,99,0,0.000000,0,1.000000,35.475086,7.735353,99,99,0,0,0,0,0
0,9999,64,0,64,0,0,9999,0.100000,99,0,0.200235,0,1.000000,26.329422,3.869152,99,99,0,0,1,0,0
0,9999,65,0,65,0,97,9999,0.100000,99,0,66.668623,0,13.000000,16.107373,17.832859,99,99,1,0,0,0,0
0,9999,66,0,66,0,40,9999,0.100000,99,0,0.000000,0,0.000000,34.177056,5.541029,99,99,0,0,0,0,0
0,9999,67,0,67,0,0,9999,0.100000,99,0,0.007914,0,1.000000,23.800362,4.458886,99,99,0,1,0,0,0
0,9999,68,0,68,0,0,9999,0.100000,99,0,0.495935,0,1.000000,19.276314,9.630734,99,99,0,0,1,0,0
0,9999,69,0,69,0,96,9999,0.100000,99,0,61.546119,0,11.000000,16.873136,17.962460,99,99,1,0,0,0,0
0,9999,70,0,70,0,40,9999,0.100000,99,0,0.000000,0,0.000000,28.172782,4.460141,99,99,0,0,0,0,0
0,9999,71,0,71,0,0,9999,0.100000,99,0,0.215775,0,0.000000,26.591866,4.537296,99,99,0,0,0,0,1
0,9999,72,0,72,0,0,9999,0.100000,99,0,0.047950,0,1.000000,21.645600,3.498933,99,99,0,0,0,1,0
0,9999,73,0,73,0,41,9999,0.100000,99,0,0.000000,0,3.000000,27.449642,10.920708,99,99,0,0,0,0,0
0,9999,74,0,74,0,40,9999,0.100000,99,0,0.000000,0,2.000000,31.726711,13.470779,99,99,0,0,0,0,0
0,9999,75,0,75,0,41,9999,0.100000,99,0,0.000000,0,4.000000,19.687621,12.965025,99,99,0,0,0,0,0
0,9999,76,0,76,0,40,9999,0.100000,99,0,0.000000,0,2.000000,20.269372,7.955051,99,99,0,0,0,0,0
0,9999,77,0,77,0,0,9999,0.100000,99,0,0.470951,0,0.000000,17.430343,0.958556,99,99,0,0,1,0,0
0,9999,78,0,78,0,0,9999,0.100000,99,0,0.280507,0,0.000000,28.309560,0.692324,99,99,0,1,0,0,0
0,9999,79,0,79,0,91,9999,0.100000,99,0,22.568143,0,5.000000,34.063666,19.256500,99,99,1,0,0,0,0
0,9999,80,0,80,0,94,9999,0.100000,99,0,63.746532,0,12.000000,28.500000,19.327997,99,99,1,0,0,0,0
0,9999,81,0,81,0,91,9999,0.100000,99,0,26.671111,0,5.000000,31.500000,17.406111,99,99,1,0,0,0,0
0,9999,82,0,82,0,40,9999,0.100000,99,0,0.000000,0,2.000000,30.155644,9.912207,99,99,0,0,0,0,0
0,9999,83,0,83,0,40,9999,0.100000,99,0,0.000000,0,1.000000,20.543718,6.694518,99,99,0,0,0,0,0
0,9999,84,0,84,0,41,9999,0.100000,99,0,0.000000,0,3.000000,28.249657,9.865032,99,99,0,0,0,0,0
0,9999,85,0,85,0,40,9999,0.100000,99,0,0.000000,0,2.000000,24.076932,3.196461,99,99,0,0,0,0,0
0,9999,86,0,86,0,41,9999,0.100000,99,0,0.000000,0,2.000000,18.448077,11.455423,99,99,0,0,0,0,0
0,9999,87,0,87,0,90,9999,0.100000,99,0,17.377088,0,3.000000,32.078043,16.414023,99,99,1,0,0,0,0
0,9999,88,0,88,0,40,9999,0.100000,99,0,0.000000,0,0.000000,27.835358,1.007666,99,99,0,0,0,0,0
0,9999,89,0,89,0,91,9999,0.100000,99,0,18.380459,0,4.000000,26.144659,10.778326,99,99,2,0,0,0,0
0,9999,90,0,90,0,1,9999,0.100000,99,0,0.025661,0,4.000000,27.710167,13.207293,99,99,0,0,0,0,1
0,9999,91,0,91,0,40,9999,0.100000,99,0,0.000000,0,1.000000,18.863972,4.816106,99,99,0,0,0,0,0
0,9999,92,0,92,0,40,9999,0.100000,99,0,0.000000,0,1.000000,19.013878,11.725581,99,99,0,0,0,0,0
0,9999,93,0,93,0,40,9999,0.100000,99,0,0.000000,0,2.000000,28.874321,7.755128,99,99,0,0,0,0,0
0,9999,94,0,94,0,44,9999,0.100000,99,0,0.000000,0,9.000000,20.756393,24.481374,99,99,0,0,0,0,0
0,9999,95,0,95,0,98,9999,0.100000,99,0,62.260309,0,13.000000,14.638965,24.078233,99,99,1,0,0,0,0
0,9999,96,0,96,0,40,9999,0.100000,99,0,0.000000,0,0.000000,18.515867,2.212915,99,99,0,0,0,0,0
0,9999,97,0,97,0,90,9999,0.100000,99,0,16.420039,0,3.000000,32.994130,17.579833,99,99,1,0,0,0,0
0,9999,98,0,98,0,40,9999,0.100000,99,0,0.000000,0,0.000000,21.704700,0.444027,99,99,0,0,0,0,0
0,9999,99,0,99,0,0,9999,0.100000,99,0,0.017546,0,0.000000,24.301049,1.363117,99,99,0,0,1,0,0
1,19999,0,10000,0,0,40,9999,0.100000,99,0,0.000000,1,1.000000,19.822611,14.540168,99,99,0,0,0,0,0
1,19999,1,10000,46,0,40,9999,0.100000,99,0,0.000000,9,2.000000,20.905472,4.681723,99,99,0,0,0,0,0
1,19999,2,10000,0,0,0,9999,0.100000,99,0,0.087873,2,0.000000,26.545216,0.271791,99,99,0,0,1,0,0
1,19999,3,10000,38,0,40,9999,0.100000,99,0,0.000000,11,0.000000,25.742689,1.007730,99,99,0,0,0,0,0
1,19999,4,10000,37,0,40,9999,0.100000,99,0,0.000000,9,1.000000,25.477475,4.745611,99,99,0,0,0,0,0
1,19999,5,10000,25,0,41,9999,0.100000,99,0,0.000000,11,4.000000,29.546668,9.818679,99,99,0,0,0,0,0
1,19999,6,10000,2,0,0,9999,0.100000,99,0,13.927267,2,2.000000,31.295374,8.885145,99,99,0,1,0,0,0
1,19999,7,10000,2,0,40,9999,0.100000,99,0,0.000000,12,0.000000,22.570879,0.730394,99,99,0,0,0,0,0
1,19999,8,10000,2,0,0,9999,0.100000,99,0,0.014757,10,0.000000,25.364657,0.111434,99,99,0,0,0,1,0
1,19999,9,10000,37,0,40,9999,0.100000,99,0,0.000000,8,1.000000,29.191276,5.706563,99,99,0,0,0,0,0
1,19999,10,10000,2,0,41,9999,0.100000,99,0,0.000000,12,3.000000,17.446316,5.900099,99,99,0,0,0,0,0
1,19999,11,10000,11,0,40,9999,0.100000,99,0,0.000000,6,0.000000,34.407008,7.301910,99,99,0,0,0,0,0
1,19999,12,10000,94,0,40,9999,0.100000,99,0,0.000000,13,1.000000,21.051624,8.293793,99,99,0,0,0,0,0
1,19999,13,10000,2,0,40,9999,0.100000,99,0,0.000000,7,3.000000,33.584717,18.014961,99,99,0,0,0,0,0
1,19999,14,10000,2,0,41,9999,0.100000,99,0,0.000000,2,5.000000,30.316218,6.820135,99,99,0,0,0,0,0
1,19999,15,10000,60,0,0,9999,0.100000,99,0,0.000000,2,0.000000,24.882109,0.068045,99,99,0,0,0,0,1
1,19999,16,10000,87,0,90,9999,0.100000,99,0,5.139111,12,1.000000,34.845427,1.582386,99,99,1,0,0,0,0
1,19999,17,10000,34,0,40,9999,0.100000,99,0,0.000000,12,0.000000,26.634963,0.421310,99,99,0,0,0,0,0
1,19999,18,10000,90,0,42,9999,0.100000,99,0,0.000000,8,6.000000,19.891327,19.963790,99,99,0,0,0,0,0
1,19999,19,10000,34,0,40,9999,0.100000,99,0,0.000000,12,2.000000,29.564360,11.430682,99,99,0,0,0,0,0
1,19999,20,10000,4,0,41,9999,0.100000,99,0,0.000000,12,4.000000,27.533242,10.423927,99,99,0,0,0,0,0
1,19999,21,10000,60,0,40,9999,0.100000,99,0,0.000000,3,2.000000,28.199383,7.005832,99,99,0,0,0,0,0
1,19999,22,10000,34,0,91,9999,0.100000,99,0,2.417165,13,4.000000,28.087171,9.277321,99,99,1,0,0,0,0
1,19999,23,10000,46,0,40,9999,0.100000,99,0,0.000000,10,0.000000,22.721033,2.836894,99,99,0,0,0,0,0
1,19999,24,10000,18,0,40,9999,0.100000,99,0,0.000000,13,2.000000,34.911663,11.584870,99,99,0,0,0,0,0
1,19999,25,10000,25,0,90,9999,0.100000,99,0,8.113665,4,1.000000,29.915491,1.999444,99,99,1,0,0,0,0
1,19999,26,10000,94,0,40,9999,0.100000,99,0,0.000000,13,1.000000,23.304820,8.274961,99,99,0,0,0,0,0
1,19999,27,10000,4,0,90,9999,0.100000,99,0,0.375018,12,0.000000,22.893205,0.758588,99,99,1,0,0,0,0
1,19999,28,10000,55,0,40,9999,0.100000,99,0,0.000000,13,2.000000,33.066414,15.267444,99,99,0,0,0,0,0
1,19999,29,10000,2,0,40,9999,0.100000,99,0,0.000000,12,1.000000,20.059510,17.812863,99,99,0,0,0,0,0
1,19999,30,10000,94,0,40,9999,0.100000,99,0,0.000000,12,2.000000,20.114817,6.460583,99,99,0,0,0,0,0
1,19999,31,10000,2,0,40,9999,0.100000,99,0,0.000000,4,3.000000,29.954622,4.568107,99,99,0,0,0,0,0
1,19999,32,10000,37,0,0,9999,0.100000,99,0,1.909858,11,0.000000,26.296917,0.376064,99,99,0,0,0,1,0
1,19999,33,10000,46,0,41,9999,0.100000,99,0,0.000000,8,3.000000,18.381486,12.302093,99,99,0,0,0,0,0
1,19999,34,10000,2,0,41,9999,0.100000,99,0,0.000000,5,4.000000,23.496740,15.116653,99,99,0,0,0,0,0
1,19999,35,10000,46,0,40,9999,0.100000,99,0,0.000000,10,2.000000,21.753805,12.415976,99,99,0,0,0,0,0
1,19999,36,10000,11,0,40,9999,0.100000,99,0,0.000000,8,0.000000,26.976338,1.844640,99,99,0,0,0,0,0
1,19999,37,10000,21,0,40,9999,0.100000,99,0,0.000000,5,0.000000,25.884313,0.680266,99,99,0,0,0,0,0
1,19999,38,10000,34,0,41,9999,0.100000,99,0,0.000000,11,5.000000,34.397021,13.825035,99,99,0,0,0,0,0
1,19999,39,10000,57,0,44,9999,0.100000,99,0,0.000000,12,10.000000,21.110373,12.523278,99,99,0,0,0,0,0
1,19999,40,10000,37,0,91,9999,0.100000,99,0,19.224678,13,4.000000,24.774680,13.587705,99,99,1,0,0,0,0
1,19999,41,10000,46,0,40,9999,0.100000,99,0,0.000000,8,2.000000,20.349522,13.545845,99,99,0,0,0,0,0
1,19999,42,10000,2,0,40,9999,0.100000,99,0,0.000000,11,1.000000,26.839077,2.032221,99,99,0,0,0,0,0
1,19999,43,10000,37,0,40,9999,0.100000,99,0,0.000000,5,0.000000,26.880593,22.647139,99,99,0,0,0,0,0
1,19999,44,10000,18,0,41,9999,0.100000,99,0,0.000000,12,4.000000,34.924512,17.615851,99,99,0,0,0,0,0
1,19999,45,10000,34,0,91,9999,0.100000,99,0,35.551449,9,4.000000,29.307699,18.111685,99,99,1,0,0,0,0
1,19999,46,10000,25,0,40,9999,0.100000,99,0,0.000000,5,0.000000,21.290782,0.928521,99,99,0,0,0,0,0
1,19999,47,10000,34,0,0,9999,0.100000,99,0,0.042978,11,0.000000,22.472158,0.862933,99,99,0,0,0,0,1
1,19999,48,10000,37,0,40,9999,0.100000,99,0,0.000000,13,1.000000,30.445072,10.276493,99,99,0,0,0,0,0
1,19999,49,10000,25,0,42,9999,0.100000,99,0,0.000000,5,6.000000,25.040127,19.351669,99,99,0,0,0,0,0
1,19999,50,10000,38,0,0,9999,0.100000,99,0,0.624865,11,2.000000,28.027670,5.463388,99,99,0,0,1,0,0
1,19999,51,10000,87,0,40,9999,0.100000,99,0,0.000000,12,1.000000,30.787664,9.738631,99,99,0,0,0,0,0
1,19999,52,10000,90,0,40,9999,0.100000,99,0,0.000000,11,2.000000,32.850213,14.418719,99,99,0,0,0,0,0
1,19999,53,10000,38,0,40,9999,0.100000,99,0,0.000000,11,2.000000,22.988511,12.459305,99,99,0,0,0,0,0
1,19999,54,10000,94,0,40,9999,0.100000,99,0,0.000000,13,2.000000,33.356797,11.324843,99,99,0,0,0,0,0
1,19999,55,10000,46,0,42,9999,0.100000,99,0,0.000000,12,10.000000,35.053475,39.059599,99,99,0,0,0,0,0
1,19999,56,10000,46,0,40,9999,0.100000,99,0,0.000000,7,0.000000,26.820664,18.733458,99,99,0,0,0,0,0
1,19999,57,10000,37,0,0,9999,0.100000,99,0,0.211755,12,0.000000,11.432993,0.317488,99,99,0,1,0,0,0
1,19999,58,10000,18,0,0,9999,0.100000,99,0,2.213424,12,0.000000,21.501690,1.001980,99,99,0,0,0,0,1
1,19999,59,10000,18,0,41,9999,0.100000,99,0,0.000000,12,3.000000,19.315244,12.951189,99,99,0,0,0,0,0
1,19999,60,10000,60,0,40,9999,0.100000,99,0,0.000000,2,1.000000,29.233128,8.657641,99,99,0,0,0,0,0
1,19999,61,10000,90,0,40,9999,0.100000,99,0,0.000000,12,1.000000,29.839839,7.571429,99,99,0,0,0,0,0
1,19999,62,10000,37,0,40,9999,0.100000,99,0,0.000000,13,0.000000,26.498000,0.295941,99,99,0,0,0,0,0
1,19999,63,10000,18,0,41,9999,0.100000,99,0,0.000000,9,4.000000,34.546940,18.427742,99,99,0,0,0,0,0
1,19999,64,10000,90,0,40,9999,0.100000,99,0,0.000000,9,1.000000,27.299208,1.525156,99,99,0,0,0,0,0
1,19999,65,10000,55,0,40,9999,0.100000,99,0,0.000000,13,1.000000,28.081476,23.058006,99,99,0,0,0,0,0
1,19999,66,10000,18,0,41,9999,0.100000,99,0,0.000000,13,4.000000,33.999464,15.625152,99,99,0,0,0,0,0
1,19999,67,10000,90,0,0,9999,0.100000,99,0,0.018521,9,0.000000,24.174595,0.152948,99,99,0,1,0,0,0
1,19999,68,10000,11,0,40,9999,0.100000,99,0,0.000000,12,0.000000,19.125900,2.302318,99,99,0,0,0,0,0
1,19999,69,10000,94,0,41,9999,0.100000,99,0,0.000000,12,3.000000,27.789918,7.587079,99,99,0,0,0,0,0
1,19999,70,10000,57,0,40,9999,0.100000,99,0,0.000000,12,2.000000,27.555473,9.964274,99,99,0,0,0,0,0
1,19999,71,10000,34,0,0,9999,0.100000,99,0,0.043950,13,0.000000,26.274609,0.145583,99,99,0,0,0,0,1
1,19999,72,10000,37,0,0,9999,0.100000,99,0,0.001391,12,0.000000,23.406973,0.093126,99,99,0,0,0,1,0
1,19999,73,10000,57,0,40,9999,0.100000,99,0,0.000000,12,1.000000,31.254364,8.489131,99,99,0,0,0,0,0
1,19999,74,10000,37,0,40,9999,0.100000,99,0,0.000000,7,2.000000,33.159138,10.888589,99,99,0,0,0,0,0
1,19999,75,10000,18,0,41,9999,0.100000,99,0,0.000000,12,3.000000,24.226124,12.365604,99,99,0,0,0,0,0
1,19999,76,10000,90,0,40,9999,0.100000,99,0,0.000000,9,0.000000,21.403692,1.716972,99,99,0,0,0,0,0
1,19999,77,10000,18,0,0,9999,0.100000,99,0,0.204817,12,0.000000,17.299218,0.288674,99,99,0,0,1,0,0
1,19999,78,10000,34,0,0,9999,0.100000,99,0,0.292106,7,0.000000,28.257919,0.183626,99,99,0,1,0,0,0
1,19999,79,10000,25,0,40,9999,0.100000,99,0,0.000000,7,0.000000,33.445438,7.108686,99,99,0,0,0,0,0
1,19999,80,10000,18,0,41,9999,0.100000,99,0,0.000000,12,5.000000,36.205121,16.188115,99,99,0,0,0,0,0
1,19999,81,10000,18,0,40,9999,0.100000,99,0,0.000000,12,3.000000,33.511063,24.046730,99,99,0,0,0,0,0
1,19999,82,10000,4,0,40,9999,0.100000,99,0,0.000000,12,1.000000,28.451942,13.315197,99,99,0,0,0,0,0
1,19999,83,10000,55,0,40,9999,0.100000,99,0,0.000000,13,1.000000,19.733348,9.353561,99,99,0,0,0,0,0
1,19999,84,10000,34,0,40,9999,0.100000,99,0,0.000000,12,1.000000,25.162550,24.099022,99,99,0,0,0,0,0
1,19999,85,10000,18,0,40,9999,0.100000,99,0,0.000000,9,0.000000,22.688497,0.349360,99,99,0,0,0,0,0
1,19999,86,10000,24,0,45,9999,0.100000,99,0,0.000000,13,10.000000,18.805255,16.010360,99,99,0,0,0,0,0
1,19999,87,10000,18,0,91,9999,0.100000,99,0,6.962061,12,5.000000,29.763875,28.994849,99,99,1,0,0,0,0
1,19999,88,10000,46,0,40,9999,0.100000,99,0,0.000000,9,1.000000,27.156799,1.689017,99,99,0,0,0,0,0
1,19999,89,10000,57,0,40,9999,0.100000,99,0,0.000000,12,0.000000,29.875809,8.941378,99,99,0,0,0,0,0
1,19999,90,10000,34,0,0,9999,0.065000,99,0,0.457387,8,0.000000,24.228048,0.137673,99,99,0,0,0,0,1
1,19999,91,10000,2,0,40,9999,0.100000,99,0,0.000000,12,1.000000,18.811596,16.721382,99,99,0,0,0,0,0
1,19999,92,10000,87,0,0,9999,0.065000,99,0,1.227142,12,0.000000,19.266900,2.579109,99,99,0,0,1,0,0
1,19999,93,10000,24,0,41,9999,0.100000,99,0,0.000000,13,4.000000,29.850092,12.638059,99,99,0,0,0,0,0
1,19999,94,10000,94,0,0,9999,0.100000,99,0,0.032528,10,0.000000,18.699120,1.218288,99,99,0,0,0,1,0
1,19999,95,10000,34,0,0,9999,0.100000,99,0,0.002477,12,1.000000,27.510065,1.251230,99,99,0,0,0,1,0
1,19999,96,10000,25,0,40,9999,0.100000,99,0,0.000000,8,0.000000,17.984606,1.461351,99,99,0,0,0,0,0
1,19999,97,10000,90,0,41,9999,0.100000,99,0,0.000000,13,4.000000,30.647089,15.859528,99,99,0,0,0,0,0
1,19999,98,10000,34,0,40,9999,0.100000,99,0,0.000000,8,0.000000,21.767894,0.177812,99,99,0,0,0,0,0
1,19999,99,10000,25,0,0,9999,0.100000,99,0,0.009103,10,0.000000,24.083931,0.141879,99,99,0,0,1,0,0
2,29999,0,20000,87,0,0,9999,0.100000,99,0,4.540583,13,2.000000,20.868405,4.610697,99,99,0,0,0,0,1
2,29999,1,20000,46,0,40,9999,0.100000,99,0,0.000000,13,0.000000,23.066367,0.992832,99,99,0,0,0,0,0
2,29999,2,20000,6,10000,2,9999,0.100000,99,0,37.223063,15,7.000000,26.544555,10.565670,99,99,0,0,1,0,0
2,29999,3,20000,86,10000,40,9999,0.100000,99,0,0.000000,15,0.000000,24.976021,1.025798,99,99,0,0,0,0,0
2,29999,4,20000,87,0,0,9999,0.100000,99,0,0.005402,13,0.000000,26.782928,0.248785,99,99,0,0,0,0,1
2,29999,5,20000,46,0,40,9999,0.100000,99,0,0.000000,13,0.000000,30.152702,0.160612,99,99,0,0,0,0,0
2,29999,6,20000,24,0,1,9999,0.100000,99,0,30.148044,13,5.000000,32.579923,6.411518,99,99,0,1,0,0,0
2,29999,7,20000,86,10000,40,9999,0.100000,99,0,0.000000,15,1.000000,22.770728,1.465663,99,99,0,0,0,0,0
2,29999,8,20000,2,0,0,9999,0.100000,99,0,0.002538,13,0.000000,25.369807,0.103007,99,99,0,0,0,1,0
2,29999,9,20000,24,0,40,9999,0.100000,99,0,0.000000,13,1.000000,27.824971,8.275735,99,99,0,0,0,0,0
2,29999,10,20000,18,0,40,9999,0.100000,99,0,0.000000,13,0.000000,19.340133,0.918521,99,99,0,0,0,0,0
2,29999,11,20000,22,0,40,9999,0.100000,99,0,0.000000,13,3.000000,33.825223,13.847800,99,99,0,0,0,0,0
2,29999,12,20000,94,0,40,9999,0.100000,99,0,0.000000,15,0.000000,19.903887,5.882989,99,99,0,0,0,0,0
2,29999,13,20000,37,0,90,9999,0.100000,99,0,16.851863,13,3.000000,32.825963,11.256956,99,99,1,0,0,0,0
2,29999,14,20000,90,0,40,9999,0.100000,99,0,0.000000,15,0.000000,25.237176,0.538211,99,99,0,0,0,0,0
2,29999,15,20000,37,0,0,9999,0.100000,99,0,0.000784,13,0.000000,24.882161,0.067905,99,99,0,0,0,0,1
2,29999,16,20000,87,0,40,9999,0.100000,99,0,0.000000,13,3.000000,35.486482,15.273160,99,99,0,0,0,0,0
2,29999,17,20000,11,0,2,9999,0.100000,99,0,37.223114,15,6.000000,26.710414,10.332750,99,99,0,0,1,0,0
2,29999,18,20000,57,0,40,9999,0.100000,99,0,0.000000,15,2.000000,20.710061,13.340002,99,99,0,0,0,0,0
2,29999,19,20000,46,0,41,9999,0.100000,99,0,0.000000,13,3.000000,28.171675,13.905861,99,99,0,0,0,0,0
2,29999,20,20000,39,10000,40,9999,0.100000,99,0,0.000000,15,0.000000,30.227690,0.162447,99,99,0,0,0,0,0
2,29999,21,20000,87,0,41,9999,0.100000,99,0,0.000000,13,5.000000,27.134152,11.864046,99,99,0,0,0,0,0
2,29999,22,20000,46,0,91,9999,0.100000,99,0,25.445577,15,5.000000,23.752443,13.776907,99,99,1,0,0,0,0
2,29999,23,20000,24,0,40,9999,0.100000,99,0,0.000000,13,0.000000,22.252282,0.432465,99,99,0,0,0,0,0
2,29999,24,20000,34,0,40,9999,0.100000,99,0,0.000000,13,3.000000,32.060870,21.233690,99,99,0,0,0,0,0
2,29999,25,20000,18,0,92,9999,0.100000,99,0,32.032126,13,8.000000,30.657313,17.201777,99,99,1,0,0,0,0
2,29999,26,20000,6,10000,40,9999,0.100000,99,0,0.000000,15,0.000000,22.415898,3.712828,99,99,0,0,0,0,0
2,29999,27,20000,34,0,90,9999,0.100000,99,0,7.511630,13,1.000000,23.002106,1.893345,99,99,1,0,0,0,0
2,29999,28,20000,11,0,40,9999,0.100000,99,0,0.000000,13,1.000000,31.725493,10.706099,99,99,0,0,0,0,0
2,29999,29,20000,46,0,40,9999,0.100000,99,0,0.000000,13,1.000000,20.584987,9.997274,99,99,0,0,0,0,0
2,29999,30,20000,24,0,40,9999,0.100000,99,0,0.000000,15,2.000000,21.001546,8.195867,99,99,0,0,0,0,0
2,29999,31,20000,18,0,41,9999,0.100000,99,0,0.000000,13,5.000000,32.336591,6.156012,99,99,0,0,0,0,0
2,29999,32,20000,39,10000,0,9999,0.100000,99,0,2.500469,15,0.000000,26.599753,0.753573,99,99,0,0,0,1,0
2,29999,33,20000,55,0,40,9999,0.100000,99,0,0.000000,13,1.000000,20.629643,9.671905,99,99,0,0,0,0,0
2,29999,34,20000,34,0,40,9999,0.100000,99,0,0.000000,15,2.000000,23.858811,6.598569,99,99,0,0,0,0,0
2,29999,35,20000,87,0,40,9999,0.100000,99,0,0.000000,15,2.000000,21.132180,8.352645,99,99,0,0,0,0,0
2,29999,36,20000,57,0,40,9999,0.100000,99,0,0.000000,13,1.000000,26.394843,3.843113,99,99,0,0,0,0,0
2,29999,37,20000,18,0,40,9999,0.100000,99,0,0.000000,13,0.000000,26.381707,0.898421,99,99,0,0,0,0,0
2,29999,38,20000,55,0,40,9999,0.100000,99,0,0.000000,15,0.000000,32.297562,1.842398,99,99,0,0,0,0,0
2,29999,39,20000,18,0,40,9999,0.100000,99,0,0.000000,14,0.000000,10.674916,0.175349,99,99,0,0,0,0,0
2,29999,40,20000,46,0,41,9999,0.100000,99,0,0.000000,15,4.000000,28.656332,31.577139,99,99,0,0,0,0,0
2,29999,41,20000,90,0,40,9999,0.100000,99,0,0.000000,14,0.000000,22.492444,5.016764,99,99,0,0,0,0,0
2,29999,42,20000,24,0,40,9999,0.100000,99,0,0.000000,14,0.000000,27.530153,1.026266,99,99,0,0,0,0,0
2,29999,43,20000,37,0,42,9999,0.100000,99,0,0.000000,13,6.000000,27.256922,8.021059,99,99,0,0,0,0,0
2,29999,44,20000,46,0,41,9999,0.100000,99,0,0.000000,13,4.000000,31.679735,13.344668,99,99,0,0,0,0,0
2,29999,45,20000,39,10000,40,9999,0.100000,99,0,0.000000,15,1.000000,32.029034,9.173925,99,99,0,0,0,0,0
2,29999,46,20000,87,0,40,9999,0.100000,99,0,0.000000,14,0.000000,20.597176,0.933904,99,99,0,0,0,0,0
2,29999,47,20000,87,0,0,9999,0.100000,99,0,0.060788,15,0.000000,22.557830,0.908963,99,99,0,0,0,0,1
2,29999,48,20000,6,10000,41,9999,0.100000,99,0,0.000000,15,5.000000,30.176300,32.813784,99,99,0,0,0,0,0
2,29999,49,20000,24,0,40,9999,0.100000,99,0,0.000000,14,0.000000,26.603076,1.670182,99,99,0,0,0,0,0
2,29999,50,20000,87,0,40,9999,0.100000,99,0,0.000000,13,0.000000,27.469279,0.919573,99,99,0,0,0,0,0
2,29999,51,20000,37,0,40,9999,0.100000,99,0,0.000000,15,1.000000,32.275926,6.592903,99,99,0,0,0,0,0
2,29999,52,20000,24,0,41,9999,0.100000,99,0,0.000000,15,6.000000,32.628697,17.078934,99,99,0,0,0,0,0
2,29999,53,20000,90,0,40,9999,0.100000,99,0,0.000000,15,1.000000,23.017131,19.571516,99,99,0,0,0,0,0
2,29999,54,20000,24,0,40,9999,0.100000,99,0,0.000000,15,3.000000,31.670456,7.330193,99,99,0,0,0,0,0
2,29999,55,20000,18,0,40,9999,0.100000,99,0,0.000000,14,2.000000,36.032159,4.701989,99,99,0,0,0,0,0
2,29999,56,20000,55,0,40,9999,0.100000,99,0,0.000000,13,2.000000,26.985728,12.611306,99,99,0,0,0,0,0
2,29999,57,20000,39,10000,7,9999,0.100000,99,0,0.001942,15,9.000000,11.486102,19.232605,99,99,0,1,0,0,0
2,29999,58,20000,90,0,40,9999,0.100000,99,0,0.000000,14,0.000000,21.720101,1.435532,99,99,0,0,0,0,0
2,29999,59,20000,87,0,40,9999,0.100000,99,0,0.000000,15,2.000000,20.628854,8.917876,99,99,0,0,0,0,0
2,29999,60,20000,34,0,41,9999,0.100000,99,0,0.000000,14,4.000000,30.789549,17.995365,99,99,0,0,0,0,0
2,29999,61,20000,22,0,40,9999,0.100000,99,0,0.000000,15,0.000000,30.996544,0.992870,99,99,0,0,0,0,0
2,29999,62,20000,94,0,40,9999,0.100000,99,0,0.000000,15,0.000000,26.717918,0.774531,99,99,0,0,0,0,0
2,29999,63,20000,46,0,40,9999,0.100000,99,0,0.000000,13,2.000000,30.598112,13.176998,99,99,0,0,0,0,0
2,29999,64,20000,86,10000,40,9999,0.100000,99,0,0.000000,15,0.000000,27.459245,0.986214,99,99,0,0,0,0,0
2,29999,65,20000,45,10000,40,9999,0.100000,99,0,0.000000,15,0.000000,27.355910,23.983132,99,99,0,0,0,0,0
2,29999,66,20000,22,0,41,9999,0.100000,99,0,0.000000,13,7.000000,38.004452,9.950162,99,99,0,0,0,0,0
2,29999,67,20000,57,0,0,9999,0.100000,99,0,0.035191,14,0.000000,24.200601,0.159512,99,99,0,1,0,0,0
2,29999,68,20000,37,0,0,9999,0.100000,99,0,2.752446,15,0.000000,19.173784,0.782787,99,99,0,0,1,0,0
2,29999,69,20000,45,10000,43,9999,0.100000,99,0,0.000000,15,9.000000,25.153412,22.200548,99,99,0,0,0,0,0
2,29999,70,20000,55,0,40,9999,0.100000,99,0,0.000000,13,0.000000,27.423492,20.827922,99,99,0,0,0,0,0
2,29999,71,20000,39,10000,40,9999,0.100000,99,0,0.000000,14,0.000000,26.271690,0.122425,99,99,0,0,0,0,0
2,29999,72,20000,39,10000,0,9999,0.100000,99,0,0.001531,15,0.000000,23.406252,0.093854,99,99,0,0,0,1,0
2,29999,73,20000,57,0,40,9999,0.100000,99,0,0.000000,15,2.000000,31.899639,11.103937,99,99,0,0,0,0,0
2,29999,74,20000,86,10000,42,9999,0.100000,99,0,0.000000,15,7.000000,30.744891,12.803295,99,99,0,0,0,0,0
2,29999,75,20000,18,0,40,9999,0.100000,99,0,0.000000,15,0.000000,25.599078,13.715077,99,99,0,0,0,0,0
2,29999,76,20000,46,0,40,9999,0.100000,99,0,0.000000,15,0.000000,21.643652,2.404423,99,99,0,0,0,0,0
2,29999,77,20000,37,0,0,9999,0.100000,99,0,0.103471,14,0.000000,17.330208,0.241979,99,99,0,0,1,0,0
2,29999,78,20000,24,0,0,9999,0.100000,99,0,0.819294,13,0.000000,28.320563,1.962255,99,99,0,1,0,0,0
2,29999,79,20000,6,10000,41,9999,0.100000,99,0,0.000000,15,4.000000,34.223890,21.299746,99,99,0,0,0,0,0
2,29999,80,20000,39,10000,40,9999,0.100000,99,0,0.000000,15,2.000000,30.913521,10.284536,99,99,0,0,0,0,0
2,29999,81,20000,37,0,40,9999,0.100000,99,0,0.000000,14,2.000000,30.803612,10.848781,99,99,0,0,0,0,0
2,29999,82,20000,90,0,2,9999,0.100000,99,0,37.223114,15,6.000000,26.630080,10.057940,99,99,0,0,1,0,0
2,29999,83,20000,11,0,40,9999,0.100000,99,0,0.000000,15,2.000000,20.414345,18.202468,99,99,0,0,0,0,0
2,29999,84,20000,2,0,40,9999,0.100000,99,0,0.000000,13,0.000000,25.930689,23.558292,99,99,0,0,0,0,0
2,29999,85,20000,24,0,40,9999,0.100000,99,0,0.000000,13,0.000000,22.759858,0.400997,99,99,0,0,0,0,0
2,29999,86,20000,24,0,40,9999,0.100000,99,0,0.000000,15,0.000000,18.157665,0.979357,99,99,0,0,0,0,0
2,29999,87,20000,34,0,41,9999,0.100000,99,0,0.000000,13,4.000000,32.757018,18.354445,99,99,0,0,0,0,0
2,29999,88,20000,45,10000,0,9999,0.100000,99,0,1.426755,15,0.000000,27.486345,1.192613,99,99,0,0,1,0,0
2,29999,89,20000,57,0,40,9999,0.100000,99,0,0.000000,15,1.000000,29.904019,13.747579,99,99,0,0,0,0,0
2,29999,90,20000,57,0,0,9999,0.100000,99,0,0.860053,13,0.000000,24.201386,0.169460,99,99,0,0,0,0,1
2,29999,91,20000,57,0,42,9999,0.100000,99,0,0.000000,15,4.000000,18.810730,13.999219,99,99,0,0,0,0,0
2,29999,92,20000,22,0,40,9999,0.100000,99,0,0.000000,15,0.000000,18.963831,0.606987,99,99,0,0,0,0,0
2,29999,93,20000,6,10000,41,9999,0.100000,99,0,0.000000,15,5.000000,32.231881,19.169296,99,99,0,0,0,0,0
2,29999,94,20000,37,0,0,9999,0.100000,99,0,0.007023,15,0.000000,18.128009,0.134236,99,99,0,0,0,1,0
2,29999,95,20000,94,0,0,9999,0.100000,99,0,0.002795,13,0.000000,26.693346,0.103356,99,99,0,0,0,1,0
2,29999,96,20000,55,0,40,9999,0.100000,99,0,0.000000,15,0.000000,18.061318,0.292365,99,99,0,0,0,0,0
2,29999,97,20000,55,0,41,9999,0.100000,99,0,0.000000,15,4.000000,34.291805,9.856656,99,99,0,0,0,0,0
2,29999,98,20000,94,0,40,9999,0.100000,99,0,0.000000,15,0.000000,21.833595,0.177846,99,99,0,0,0,0,0
2,29999,99,20000,90,0,0,9999,0.100000,99,0,0.005144,15,0.000000,24.084691,0.373645,99,99,0,0,1,0,0
3,39999,0,30000,45,10000,0,9999,0.100000,99,0,1.222346,15,0.000000,21.912508,0.954667,99,99,0,0,0,0,1
3,39999,1,30000,55,0,40,9999,0.100000,99,0,0.000000,16,0.000000,22.296386,0.985922,99,99,0,0,0,0,0
3,39999,2,30000,22,0,40,9999,0.100000,99,0,0.000000,16,1.000000,32.154100,2.585464,99,99,0,0,0,0,0
3,39999,3,30000,87,0,40,9999,0.100000,99,0,0.000000,15,0.000000,24.189857,0.980033,99,99,0,0,0,0,0
3,39999,4,30000,86,10000,0,9999,0.100000,99,0,0.008833,15,0.000000,26.678333,0.101588,99,99,0,0,0,0,1
3,39999,5,30000,22,0,40,9999,0.100000,99,0,0.000000,16,0.000000,30.069228,0.159524,99,99,0,0,0,0,0
3,39999,6,30000,45,10000,91,9999,0.100000,99,0,5.053369,15,6.000000,36.481399,22.921268,99,99,1,0,0,0,0
3,39999,7,30000,24,0,40,9999,0.100000,99,0,0.000000,16,0.000000,22.676417,0.848334,99,99,0,0,0,0,0
3,39999,8,30000,82,20000,0,9999,0.100000,99,0,0.001629,17,0.000000,25.370245,0.104174,99,99,0,0,0,1,0
3,39999,9,30000,6,10000,41,9999,0.100000,99,0,0.000000,15,3.000000,27.869822,6.334243,99,99,0,0,0,0,0
3,39999,10,30000,86,10000,40,9999,0.100000,99,0,0.000000,17,0.000000,18.668609,0.436639,99,99,0,0,0,0,0
3,39999,11,30000,86,10000,40,9999,0.100000,99,0,0.000000,15,3.000000,30.751609,15.557189,99,99,0,0,0,0,0
3,39999,12,30000,75,10000,40,9999,0.100000,99,0,0.000000,16,1.000000,19.600642,10.360383,99,99,0,0,0,0,0
3,39999,13,30000,57,0,40,9999,0.100000,99,0,0.000000,16,2.000000,33.443032,15.242107,99,99,0,0,0,0,0
3,39999,14,30000,57,0,40,9999,0.100000,99,0,0.000000,15,0.000000,25.231090,0.457599,99,99,0,0,0,0,0
3,39999,15,30000,57,20000,0,9999,0.100000,99,0,0.003558,17,0.000000,24.882190,0.072804,99,99,0,0,0,0,1
3,39999,16,30000,22,0,40,9999,0.100000,99,0,0.000000,16,1.000000,31.909277,12.784091,99,99,0,0,0,0,0
3,39999,17,30000,6,10000,41,9999,0.100000,99,0,0.000000,15,5.000000,32.568950,21.142531,99,99,0,0,0,0,0
3,39999,18,30000,39,10000,41,9999,0.100000,99,0,0.000000,16,3.000000,17.970925,12.002916,99,99,0,0,0,0,0
3,39999,19,30000,94,0,40,9999,0.100000,99,0,0.000000,15,2.000000,28.971054,4.965846,99,99,0,0,0,0,0
3,39999,20,30000,57,0,40,9999,0.100000,99,0,0.000000,17,0.000000,30.144176,0.161469,99,99,0,0,0,0,0
3,39999,21,30000,94,0,40,9999,0.100000,99,0,0.000000,15,0.000000,26.812362,8.932073,99,99,0,0,0,0,0
3,39999,22,30000,55,0,40,9999,0.100000,99,0,0.000000,17,1.000000,28.339751,10.299607,99,99,0,0,0,0,0
3,39999,23,30000,57,0,40,9999,0.100000,99,0,0.000000,15,0.000000,22.329068,0.325288,99,99,0,0,0,0,0
3,39999,24,30000,87,0,40,9999,0.100000,99,0,0.000000,16,1.000000,32.283642,2.181173,99,99,0,0,0,0,0
3,39999,25,30000,18,0,41,9999,0.100000,99,0,0.000000,17,4.000000,34.725999,14.581252,99,99,0,0,0,0,0
3,39999,26,30000,45,10000,40,9999,0.100000,99,0,0.000000,15,0.000000,22.509659,3.535297,99,99,0,0,0,0,0
3,39999,27,30000,24,0,91,9999,0.100000,99,0,23.284125,17,4.000000,24.132058,7.188736,99,99,1,0,0,0,0
3,39999,28,30000,17,20000,40,9999,0.100000,99,0,0.000000,15,1.000000,31.680943,9.697966,99,99,0,0,0,0,0
3,39999,29,30000,87,0,41,9999,0.100000,99,0,0.000000,16,3.000000,19.099106,14.133206,99,99,0,0,0,0,0
3,39999,30,30000,17,20000,40,9999,0.100000,99,0,0.000000,15,1.000000,21.244257,10.520773,99,99,0,0,0,0,0
3,39999,31,30000,82,20000,40,9999,0.100000,99,0,0.000000,16,3.000000,36.229148,20.050197,99,99,0,0,0,0,0
3,39999,32,30000,22,0,0,9999,0.100000,99,0,1.721732,15,0.000000,27.223066,0.836050,99,99,0,0,0,1,0
3,39999,33,30000,39,10000,41,9999,0.100000,99,0,0.000000,16,3.000000,21.335405,7.575196,99,99,0,0,0,0,0
3,39999,34,30000,94,0,40,9999,0.100000,99,0,0.000000,15,0.000000,22.969241,1.064555,99,99,0,0,0,0,0
3,39999,35,30000,6,10000,41,9999,0.135000,99,0,0.000000,16,3.000000,18.973303,14.686469,99,99,0,0,0,0,0
3,39999,36,30000,18,0,40,9999,0.100000,99,0,0.000000,15,0.000000,26.360069,0.093996,99,99,0,0,0,0,0
3,39999,37,30000,2,20000,40,9999,0.100000,99,0,0.000000,17,0.000000,27.139219,0.906043,99,99,0,0,0,0,0
3,39999,38,30000,37,0,40,9999,0.100000,99,0,0.000000,15,1.000000,32.112516,2.719061,99,99,0,0,0,0,0
3,39999,39,30000,45,10000,40,9999,0.100000,99,0,0.000000,16,0.000000,10.669212,0.182643,99,99,0,0,0,0,0
3,39999,40,30000,75,10000,41,9999,0.100000,99,0,0.000000,15,3.000000,27.371441,7.742035,99,99,0,0,0,0,0
3,39999,41,30000,82,20000,40,9999,0.100000,99,0,0.000000,17,1.000000,22.594363,7.004345,99,99,0,0,0,0,0
3,39999,42,30000,22,0,41,9999,0.100000,99,0,0.000000,15,5.000000,27.925481,10.657126,99,99,0,0,0,0,0
3,39999,43,30000,18,0,40,9999,0.100000,99,0,0.000000,16,0.000000,33.805261,0.880609,99,99,0,0,0,0,0
3,39999,44,30000,57,0,41,9999,0.100000,99,0,0.000000,16,4.000000,29.606822,9.672867,99,99,0,0,0,0,0
3,39999,45,30000,35,20000,42,9999,0.100000,99,0,0.000000,16,7.000000,31.788774,27.830228,99,99,0,0,0,0,0
3,39999,46,30000,86,10000,42,9999,0.100000,99,0,0.000000,17,6.000000,19.918862,8.349483,99,99,0,0,0,0,0
3,39999,47,30000,82,20000,0,9999,0.100000,99,0,0.262058,17,0.000000,22.656463,0.565347,99,99,0,0,0,0,1
3,39999,48,30000,11,0,92,9999,0.100000,99,0,16.098054,16,6.000000,27.478218,25.391281,99,99,1,0,0,0,0
3,39999,49,30000,2,20000,40,9999,0.100000,99,0,0.000000,16,0.000000,27.142909,1.522479,99,99,0,0,0,0,0
3,39999,50,30000,86,10000,0,9999,0.100000,99,0,1.291111,16,0.000000,27.666727,0.579619,99,99,0,0,1,0,0
3,39999,51,30000,6,10000,41,9999,0.100000,99,0,0.000000,16,5.000000,31.381530,7.417198,99,99,0,0,0,0,0
3,39999,52,30000,55,0,40,9999,0.100000,99,0,0.000000,16,3.000000,35.010506,11.521404,99,99,0,0,0,0,0
3,39999,53,30000,17,20000,40,9999,0.100000,99,0,0.000000,15,0.000000,24.373121,22.896086,99,99,0,0,0,0,0
3,39999,54,30000,11,0,40,9999,0.100000,99,0,0.000000,16,3.000000,33.653343,9.371254,99,99,0,0,0,0,0
3,39999,55,30000,87,0,40,9999,0.100000,99,0,0.000000,16,0.000000,38.027239,0.074793,99,99,0,0,0,0,0
3,39999,56,30000,37,0,40,9999,0.100000,99,0,0.000000,16,0.000000,28.141324,4.597179,99,99,0,0,0,0,0
3,39999,57,30000,24,0,0,9999,0.100000,99,0,0.001888,17,0.000000,11.515376,0.156626,99,99,0,1,0,0,0
3,39999,58,30000,82,20000,40,9999,0.100000,99,0,0.000000,16,0.000000,21.703028,1.330777,99,99,0,0,0,0,0
3,39999,59,30000,55,0,40,9999,0.100000,99,0,0.000000,15,0.000000,18.537401,5.572630,99,99,0,0,0,0,0
3,39999,60,30000,45,10000,1,9999,0.100000,99,0,8.354182,17,5.000000,28.064331,13.145630,99,99,0,1,0,0,0
3,39999,61,30000,55,0,40,9999,0.100000,99,0,0.000000,16,0.000000,31.259306,1.013487,99,99,0,0,0,0,0
3,39999,62,30000,6,10000,40,9999,0.100000,99,0,0.000000,16,0.000000,27.291021,1.106308,99,99,0,0,0,0,0
3,39999,63,30000,24,0,40,9999,0.100000,99,0,0.000000,16,1.000000,29.633294,4.369400,99,99,0,0,0,0,0
3,39999,64,30000,94,0,40,9999,0.100000,99,0,0.000000,15,0.000000,27.488489,0.532759,99,99,0,0,0,0,0
3,39999,65,30000,87,0,40,9999,0.100000,99,0,0.000000,17,0.000000,27.335809,23.837503,99,99,0,0,0,0,0
3,39999,66,30000,37,0,40,9999,0.100000,99,0,0.000000,16,1.000000,31.023235,8.765813,99,99,0,0,0,0,0
3,39999,67,30000,57,0,0,9999,0.100000,99,0,0.008588,15,0.000000,24.214767,0.150003,99,99,0,1,0,0,0
3,39999,68,30000,24,0,0,9999,0.100000,99,0,1.034451,16,0.000000,18.608532,0.371262,99,99,0,0,1,0,0
3,39999,69,30000,87,0,42,9999,0.100000,99,0,0.000000,17,4.000000,15.581449,9.804969,99,99,0,0,0,0,0
3,39999,70,30000,87,0,40,9999,0.100000,99,0,0.000000,17,0.000000,27.169902,8.138665,99,99,0,0,0,0,0
3,39999,71,30000,11,0,40,9999,0.100000,99,0,0.000000,17,0.000000,26.255169,0.077663,99,99,0,0,0,0,0
3,39999,72,30000,45,10000,0,9999,0.100000,99,0,0.001841,15,0.000000,23.405934,0.091424,99,99,0,0,0,1,0
3,39999,73,30000,24,0,40,9999,0.100000,99,0,0.000000,16,0.000000,33.950307,0.948008,99,99,0,0,0,0,0
3,39999,74,30000,2,20000,40,9999,0.100000,99,0,0.000000,16,3.000000,33.825719,20.119033,99,99,0,0,0,0,0
3,39999,75,30000,87,0,40,9999,0.135000,99,0,0.000000,17,2.000000,25.443705,11.740059,99,99,0,0,0,0,0
3,39999,76,30000,22,0,40,9999,0.100000,99,0,0.000000,15,0.000000,21.673072,1.506098,99,99,0,0,0,0,0
3,39999,77,30000,55,0,0,9999,0.100000,99,0,0.013662,15,0.000000,17.343221,0.190846,99,99,0,0,1,0,0
3,39999,78,30000,55,0,0,9999,0.100000,99,0,8.311489,15,1.000000,28.253948,8.372672,99,99,0,1,0,0,0
3,39999,79,30000,57,0,41,9999,0.100000,99,0,0.000000,15,6.000000,30.530123,31.194661,99,99,0,0,0,0,0
3,39999,80,30000,86,10000,40,9999,0.100000,99,0,0.000000,16,2.000000,33.127379,11.977983,99,99,0,0,0,0,0
3,39999,81,30000,94,0,40,9999,0.100000,99,0,0.000000,15,0.000000,29.333770,6.116526,99,99,0,0,0,0,0
3,39999,82,30000,39,10000,40,9999,0.100000,99,0,0.000000,15,1.000000,32.206130,2.729149,99,99,0,0,0,0,0
3,39999,83,30000,86,10000,40,9999,0.100000,99,0,0.000000,16,0.000000,21.530642,22.375715,99,99,0,0,0,0,0
3,39999,84,30000,86,10000,40,9999,0.100000,99,0,0.000000,15,0.000000,25.534666,23.900060,99,99,0,0,0,0,0
3,39999,85,30000,22,0,40,9999,0.100000,99,0,0.000000,17,0.000000,22.850670,0.609763,99,99,0,0,0,0,0
3,39999,86,30000,24,0,40,9999,0.100000,99,0,0.000000,15,0.000000,17.998004,1.990009,99,99,0,0,0,0,0
3,39999,87,30000,87,0,40,9999,0.100000,99,0,0.000000,17,3.000000,32.937717,12.199456,99,99,0,0,0,0,0
3,39999,88,30000,37,0,40,9999,0.100000,99,0,0.000000,15,1.000000,27.857054,11.299491,99,99,0,0,0,0,0
3,39999,89,30000,45,10000,40,9999,0.100000,99,0,0.000000,17,0.000000,29.189517,11.334453,99,99,0,0,0,0,0
3,39999,90,30000,37,0,0,9999,0.100000,99,0,0.575750,15,0.000000,24.172589,0.127149,99,99,0,0,0,0,1
3,39999,91,30000,24,0,44,9999,0.100000,99,0,0.000000,16,8.000000,15.232867,12.863581,99,99,0,0,0,0,0
3,39999,92,30000,57,0,40,9999,0.100000,99,0,0.000000,15,0.000000,18.545543,0.325933,99,99,0,0,0,0,0
3,39999,93,30000,86,10000,41,9999,0.100000,99,0,0.000000,15,4.000000,30.940544,13.069498,99,99,0,0,0,0,0
3,39999,94,30000,94,0,0,9999,0.100000,99,0,0.044764,15,0.000000,18.065629,0.151363,99,99,0,0,0,1,0
3,39999,95,30000,18,0,0,9999,0.100000,99,0,0.003125,17,0.000000,26.691779,0.100998,99,99,0,0,0,1,0
3,39999,96,30000,94,0,40,9999,0.100000,99,0,0.000000,15,0.000000,17.982658,0.389611,99,99,0,0,0,0,0
3,39999,97,30000,94,0,40,9999,0.100000,99,0,0.000000,15,2.000000,30.403616,8.197098,99,99,0,0,0,0,0
3,39999,98,30000,86,10000,40,9999,0.100000,99,0,0.000000,15,0.000000,21.915546,0.183715,99,99,0,0,0,0,0
3,39999,99,30000,35,20000,0,9999,0.100000,99,0,0.383671,17,0.000000,24.063053,0.344269,99,99,0,0,1,0,0
4,49999,0,40000,55,0,0,9999,0.100000,99,0,4.145908,17,1.000000,22.250393,1.470257,99,99,0,0,0,0,1
4,49999,1,40000,35,20000,40,9999,0.100000,99,0,0.000000,17,0.000000,21.554576,0.947149,99,99,0,0,0,0,0
4,49999,2,40000,94,0,40,9999,0.100000,99,0,0.000000,17,1.000000,31.413031,7.826103,99,99,0,0,0,0,0
4,49999,3,40000,11,0,40,9999,0.100000,99,0,0.000000,17,0.000000,23.428507,1.035078,99,99,0,0,0,0,0
4,49999,4,40000,2,20000,0,9999,0.100000,99,0,0.000316,17,0.000000,26.673489,0.076804,99,99,0,0,0,0,1
4,49999,5,40000,37,0,40,9999,0.100000,99,0,0.000000,17,0.000000,29.987059,0.150060,99,99,0,0,0,0,0
4,49999,6,40000,24,0,40,9999,0.100000,99,0,0.000000,17,1.000000,32.551279,9.496409,99,99,0,0,0,0,0
4,49999,7,40000,57,20000,40,9999,0.100000,99,0,0.000000,17,1.000000,22.800686,1.374739,99,99,0,0,0,0,0
4,49999,8,40000,87,0,0,9999,0.100000,99,0,0.001306,17,0.000000,25.370641,0.101119,99,99,0,0,0,1,0
4,49999,9,40000,2,20000,0,9999,0.100000,99,0,0.765772,17,0.000000,25.520178,0.703721,99,99,0,0,0,0,1
4,49999,10,40000,18,0,0,9999,0.100000,99,0,0.214833,17,0.000000,18.379815,0.861898,99,99,0,0,1,0,0
4,49999,11,40000,24,0,40,9999,0.065000,99,0,0.000000,17,3.000000,32.158142,10.243331,99,99,0,0,0,0,0
4,49999,12,40000,11,0,41,9999,0.100000,99,0,0.000000,17,3.000000,19.614186,14.919472,99,99,0,0,0,0,0
4,49999,13,40000,57,0,41,9999,0.100000,99,0,0.000000,17,4.000000,33.281854,12.331148,99,99,0,0,0,0,0
4,49999,14,40000,45,10000,40,9999,0.100000,99,0,0.000000,17,0.000000,25.236545,0.442711,99,99,0,0,0,0,0
4,49999,15,40000,94,0,40,9999,0.100000,99,0,0.000000,17,0.000000,24.885276,0.254830,99,99,0,0,0,0,0
4,49999,16,40000,45,10000,41,9999,0.100000,99,0,0.000000,17,4.000000,31.158341,19.793416,99,99,0,0,0,0,0
4,49999,17,40000,94,0,40,9999,0.100000,99,0,0.000000,17,1.000000,27.603072,12.767999,99,99,0,0,0,0,0
4,49999,18,40000,86,10000,40,9999,0.100000,99,0,0.000000,17,1.000000,14.586683,8.385105,99,99,0,0,0,0,0
4,49999,19,40000,22,0,42,9999,0.100000,99,0,0.000000,17,7.000000,27.185838,11.555427,99,99,0,0,0,0,0
4,49999,20,40000,37,0,40,9999,0.100000,99,0,0.000000,17,0.000000,30.061964,0.152628,99,99,0,0,0,0,0
4,49999,21,40000,94,0,40,9999,0.100000,99,0,0.000000,17,1.000000,26.376996,10.695462,99,99,0,0,0,0,0
4,49999,22,40000,55,0,40,9999,0.100000,99,0,0.000000,17,2.000000,27.777217,9.309047,99,99,0,0,0,0,0
4,49999,23,40000,82,20000,40,9999,0.100000,99,0,0.000000,17,0.000000,22.351448,2.261327,99,99,0,0,0,0,0
4,49999,24,40000,2,20000,40,9999,0.100000,99,0,0.000000,17,0.000000,32.767327,0.185396,99,99,0,0,0,0,0
4,49999,25,40000,45,10000,40,9999,0.135000,99,0,0.000000,17,3.000000,31.024372,13.408644,99,99,0,0,0,0,0
4,49999,26,40000,87,0,40,9999,0.100000,99,0,0.000000,17,0.000000,22.541979,3.146115,99,99,0,0,0,0,0
4,49999,27,40000,45,10000,91,9999,0.100000,99,0,14.378946,17,3.000000,27.977451,8.496866,99,99,1,0,0,0,0
4,49999,28,40000,82,20000,40,9999,0.100000,99,0,0.000000,17,3.000000,32.068782,19.824097,99,99,0,0,0,0,0
4,49999,29,40000,57,0,43,9999,0.100000,99,0,0.000000,17,7.000000,18.082531,12.052147,99,99,0,0,0,0,0
4,49999,30,40000,24,0,40,9999,0.100000,99,0,0.000000,17,1.000000,22.128347,1.926215,99,99,0,0,0,0,0
4,49999,31,40000,86,10000,40,9999,0.100000,99,0,0.000000,17,3.000000,35.410408,9.153130,99,99,0,0,0,0,0
4,49999,32,40000,37,0,40,9999,0.100000,99,0,0.000000,17,1.000000,27.627704,3.011905,99,99,0,0,0,0,0
4,49999,33,40000,86,10000,40,9999,0.100000,99,0,0.000000,17,0.000000,23.169609,3.188935,99,99,0,0,0,0,0
4,49999,34,40000,55,0,40,9999,0.100000,99,0,0.000000,17,1.000000,23.000419,19.665560,99,99,0,0,0,0,0
4,49999,35,40000,82,20000,42,9999,0.100000,99,0,0.000000,17,5.000000,19.926362,16.753933,99,99,0,0,0,0,0
4,49999,36,40000,6,10000,40,9999,0.100000,99,0,0.000000,17,1.000000,26.358323,3.766427,99,99,0,0,0,0,0
4,49999,37,40000,86,10000,40,9999,0.100000,99,0,0.000000,17,2.000000,27.843277,3.093765,99,99,0,0,0,0,0
4,49999,38,40000,11,0,40,9999,0.100000,99,0,0.000000,17,1.000000,31.373245,7.527381,99,99,0,0,0,0,0
4,49999,39,40000,94,0,40,9999,0.100000,99,0,0.000000,17,0.000000,10.661543,0.199963,99,99,0,0,0,0,0
4,49999,40,40000,39,10000,40,9999,0.100000,99,0,0.000000,17,2.000000,24.060268,7.141502,99,99,0,0,0,0,0
4,49999,41,40000,18,0,40,9999,0.100000,99,0,0.000000,17,2.000000,22.007883,4.621825,99,99,0,0,0,0,0
4,49999,42,40000,35,20000,40,9999,0.100000,99,0,0.000000,17,0.000000,23.139527,14.657206,99,99,0,0,0,0,0
4,49999,43,40000,37,0,40,9999,0.100000,99,0,0.000000,17,1.000000,34.172930,1.637209,99,99,0,0,0,0,0
4,49999,44,40000,18,0,41,9999,0.100000,99,0,0.000000,17,4.000000,33.848322,10.671275,99,99,0,0,0,0,0
4,49999,45,40000,6,10000,0,9999,0.100000,99,0,5.063803,17,1.000000,27.313085,4.049251,99,99,0,0,0,1,0
4,49999,46,40000,39,10000,42,9999,0.100000,99,0,0.000000,17,3.000000,13.775263,7.162938,99,99,0,0,0,0,0
4,49999,47,40000,87,0,0,9999,0.100000,99,0,0.827915,17,0.000000,22.688381,0.753734,99,99,0,0,0,0,1
4,49999,48,40000,55,0,40,9999,0.100000,99,0,0.000000,17,2.000000,29.744141,9.732386,99,99,0,0,0,0,0
4,49999,49,40000,24,0,43,9999,0.100000,99,0,0.000000,17,10.000000,27.491460,18.110848,99,99,0,0,0,0,0
4,49999,50,40000,57,20000,0,9999,0.100000,99,0,0.807527,17,0.000000,27.412538,0.832670,99,99,0,0,1,0,0
4,49999,51,40000,87,0,40,9999,0.100000,99,0,0.000000,17,0.000000,26.573876,0.081734,99,99,0,0,0,0,0
4,49999,52,40000,39,10000,41,9999,0.100000,99,0,0.000000,17,5.000000,31.265334,11.903179,99,99,0,0,0,0,0
4,49999,53,40000,86,10000,40,9999,0.100000,99,0,0.000000,17,0.000000,24.124556,22.962982,99,99,0,0,0,0,0
4,49999,54,40000,55,0,92,9999,0.100000,99,0,31.989989,17,8.000000,32.079345,14.786667,99,99,1,0,0,0,0
4,49999,55,40000,6,10000,40,9999,0.100000,99,0,0.000000,17,0.000000,38.031199,0.101410,99,99,0,0,0,0,0
4,49999,56,40000,45,10000,40,9999,0.100000,99,0,0.000000,17,2.000000,28.193776,7.463338,99,99,0,0,0,0,0
4,49999,57,40000,57,0,0,9999,0.100000,99,0,0.319315,17,1.000000,11.492117,1.374617,99,99,0,1,0,0,0
4,49999,58,40000,57,20000,40,9999,0.100000,99,0,0.000000,17,1.000000,22.115764,1.499635,99,99,0,0,0,0,0
4,49999,59,40000,35,20000,40,9999,0.100000,99,0,0.000000,17,1.000000,18.595641,7.218832,99,99,0,0,0,0,0
4,49999,60,40000,57,0,40,9999,0.100000,99,0,0.000000,17,2.000000,26.844400,7.205827,99,99,0,0,0,0,0
4,49999,61,40000,22,0,40,9999,0.100000,99,0,0.000000,17,0.000000,31.549387,0.951628,99,99,0,0,0,0,0
4,49999,62,40000,37,0,40,9999,0.100000,99,0,0.000000,17,1.000000,27.556164,3.771176,99,99,0,0,0,0,0
4,49999,63,40000,82,20000,40,9999,0.100000,99,0,0.000000,17,1.000000,28.630429,9.370093,99,99,0,0,0,0,0
4,49999,64,40000,57,0,41,9999,0.100000,99,0,0.000000,17,5.000000,27.268718,11.897437,99,99,0,0,0,0,0
4,49999,65,40000,2,20000,40,9999,0.100000,99,0,0.000000,17,0.000000,27.429507,23.935833,99,99,0,0,0,0,0
4,49999,66,40000,87,0,40,9999,0.100000,99,0,0.000000,17,2.000000,31.903276,11.072203,99,99,0,0,0,0,0
4,49999,67,40000,24,0,0,9999,0.100000,99,0,1.645901,17,0.000000,24.237694,0.544017,99,99,0,1,0,0,0
4,49999,68,40000,57,20000,40,9999,0.100000,99,0,0.000000,17,0.000000,18.365166,0.724019,99,99,0,0,0,0,0
4,49999,69,40000,11,0,42,9999,0.100000,99,0,0.000000,17,5.000000,18.310496,15.752700,99,99,0,0,0,0,0
4,49999,70,40000,45,10000,40,9999,0.100000,99,0,0.000000,17,0.000000,27.366029,6.846747,99,99,0,0,0,0,0
4,49999,71,40000,39,10000,40,9999,0.100000,99,0,0.000000,17,0.000000,26.254431,0.073631,99,99,0,0,0,0,0
4,49999,72,40000,39,10000,0,9999,0.100000,99,0,0.001783,17,0.000000,23.405467,0.090750,99,99,0,0,0,1,0
4,49999,73,40000,57,0,40,9999,0.100000,99,0,0.000000,17,3.000000,34.365647,5.167895,99,99,0,0,0,0,0
4,49999,74,40000,87,0,40,9999,0.100000,99,0,0.000000,17,2.000000,30.461604,9.649080,99,99,0,0,0,0,0
4,49999,75,40000,18,0,40,9999,0.100000,99,0,0.000000,17,1.000000,24.348894,7.993411,99,99,0,0,0,0,0
4,49999,76,40000,45,10000,40,9999,0.100000,99,0,0.000000,17,1.000000,22.166139,1.688453,99,99,0,0,0,0,0
4,49999,77,40000,57,20000,0,9999,0.100000,99,0,0.093966,17,0.000000,17.264826,0.212971,99,99,0,0,1,0,0
4,49999,78,40000,45,30000,40,9999,0.100000,99,0,0.000000,17,1.000000,27.356724,13.388326,99,99,0,0,0,0,0
4,49999,79,40000,6,10000,40,9999,0.100000,99,0,0.000000,17,3.000000,32.436025,18.137564,99,99,0,0,0,0,0
4,49999,80,40000,57,20000,40,9999,0.100000,99,0,0.000000,17,3.000000,33.114025,12.734808,99,99,0,0,0,0,0
4,49999,81,40000,82,20000,40,9999,0.100000,99,0,0.000000,17,3.000000,29.539747,8.807475,99,99,0,0,0,0,0
4,49999,82,40000,37,0,41,9999,0.100000,99,0,0.000000,17,4.000000,31.461684,9.925893,99,99,0,0,0,0,0
4,49999,83,40000,22,0,40,9999,0.100000,99,0,0.000000,17,0.000000,21.398100,22.717068,99,99,0,0,0,0,0
4,49999,84,40000,55,0,40,9999,0.100000,99,0,0.000000,17,0.000000,25.546174,23.891220,99,99,0,0,0,0,0
4,49999,85,40000,45,30000,40,9999,0.100000,99,0,0.000000,17,0.000000,22.881441,2.125178,99,99,0,0,0,0,0
4,49999,86,40000,6,10000,40,9999,0.100000,99,0,0.000000,17,0.000000,17.931790,0.578192,99,99,0,0,0,0,0
4,49999,87,40000,37,0,40,9999,0.100000,99,0,0.000000,17,1.000000,29.645364,6.546039,99,99,0,0,0,0,0
4,49999,88,40000,6,10000,40,9999,0.100000,99,0,0.000000,17,0.000000,27.595031,1.052976,99,99,0,0,0,0,0
4,49999,89,40000,39,10000,40,9999,0.100000,99,0,0.000000,17,0.000000,29.386432,12.701482,99,99,0,0,0,0,0
4,49999,90,40000,45,10000,1,9999,0.100000,99,0,0.637463,17,4.000000,24.168775,10.020730,99,99,0,0,0,0,1
4,49999,91,40000,87,0,40,9999,0.100000,99,0,0.000000,17,0.000000,17.942748,2.090125,99,99,0,0,0,0,0
4,49999,92,40000,94,0,40,9999,0.100000,99,0,0.000000,17,0.000000,18.363216,0.741945,99,99,0,0,0,0,0
4,49999,93,40000,45,10000,40,9999,0.100000,99,0,0.000000,17,3.000000,31.432905,15.001264,99,99,0,0,0,0,0
4,49999,94,40000,22,0,0,9999,0.100000,99,0,0.107081,17,0.000000,18.012552,0.180148,99,99,0,0,0,1,0
4,49999,95,40000,35,20000,0,9999,0.100000,99,0,0.002458,17,0.000000,26.689897,0.101519,99,99,0,0,0,1,0
4,49999,96,40000,82,20000,40,9999,0.100000,99,0,0.000000,17,0.000000,17.919244,0.393826,99,99,0,0,0,0,0
4,49999,97,40000,45,10000,42,9999,0.100000,99,0,0.000000,17,7.000000,27.832118,21.154284,99,99,0,0,0,0,0
4,49999,98,40000,35,20000,40,9999,0.100000,99,0,0.000000,17,0.000000,21.943884,0.546652,99,99,0,0,0,0,0
4,49999,99,40000,39,10000,0,9999,0.100000,99,0,0.069536,17,0.000000,24.018964,0.195667,99,99,0,0,1,0,0
5,59999,0,50000,37,0,0,9999,0.100000,99,0,2.071136,17,0.000000,21.436188,0.732404,99,99,0,0,0,0,1
5,59999,1,50000,37,0,40,9999,0.100000,99,0,0.000000,17,0.000000,20.854038,0.901305,99,99,0,0,0,0,0
5,59999,2,50000,87,0,40,9999,0.100000,99,0,0.000000,17,0.000000,32.127470,0.948376,99,99,0,0,0,0,0
5,59999,3,50000,2,20000,40,9999,0.100000,99,0,0.000000,17,0.000000,22.646752,0.981213,99,99,0,0,0,0,0
5,59999,4,50000,6,10000,0,9999,0.100000,99,0,0.214649,17,0.000000,26.674733,0.088231,99,99,0,0,0,0,1
5,59999,5,50000,11,0,40,9999,0.100000,99,0,0.000000,17,0.000000,29.908174,0.161490,99,99,0,0,0,0,0
5,59999,6,50000,87,0,40,9999,0.100000,99,0,0.000000,17,1.000000,31.014237,8.861719,99,99,0,0,0,0,0
5,59999,7,50000,11,0,40,9999,0.100000,99,0,0.000000,17,0.000000,22.090393,1.718659,99,99,0,0,0,0,0
5,59999,8,50000,39,10000,40,9999,0.100000,99,0,0.000000,17,0.000000,25.371133,0.101478,99,99,0,0,0,0,0
5,59999,9,50000,37,0,40,9999,0.100000,99,0,0.000000,17,0.000000,25.602080,1.145612,99,99,0,0,0,0,0
5,59999,10,50000,24,0,40,9999,0.100000,99,0,0.000000,17,0.000000,18.346084,1.415719,99,99,0,0,0,0,0
5,59999,11,50000,6,10000,40,9999,0.100000,99,0,0.000000,17,1.000000,29.684078,13.716163,99,99,0,0,0,0,0
5,59999,12,50000,2,20000,0,9999,0.100000,99,0,0.004838,17,1.000000,22.255072,2.526895,99,99,0,0,0,0,1
5,59999,13,50000,55,0,40,9999,0.100000,99,0,0.000000,17,3.000000,31.113509,10.259809,99,99,0,0,0,0,0
5,59999,14,50000,57,0,40,9999,0.100000,99,0,0.000000,17,0.000000,25.231620,0.396054,99,99,0,0,0,0,0
5,59999,15,50000,11,0,0,9999,0.100000,99,0,1.425673,17,0.000000,24.941683,0.589168,99,99,0,0,0,0,1
5,59999,16,50000,39,10000,40,9999,0.100000,99,0,0.000000,17,0.000000,31.719533,8.651655,99,99,0,0,0,0,0
5,59999,17,50000,6,10000,40,9999,0.100000,99,0,0.000000,17,1.000000,27.867960,4.348391,99,99,0,0,0,0,0
5,59999,18,50000,55,0,99,9999,0.100000,99,0,74.657641,17,16.000000,13.145015,22.251231,99,99,1,0,0,0,0
5,59999,19,50000,2,20000,41,9999,0.100000,99,0,0.000000,17,4.000000,30.737075,18.770258,99,99,0,0,0,0,0
5,59999,20,50000,86,10000,40,9999,0.100000,99,0,0.000000,17,0.000000,29.983040,0.161654,99,99,0,0,0,0,0
5,59999,21,50000,55,0,40,9999,0.100000,99,0,0.000000,17,0.000000,27.449264,4.078343,99,99,0,0,0,0,0
5,59999,22,50000,35,20000,40,9999,0.100000,99,0,0.000000,17,1.000000,26.284977,11.679631,99,99,0,0,0,0,0
5,59999,23,50000,11,0,40,9999,0.100000,99,0,0.000000,17,1.000000,22.237703,5.054649,99,99,0,0,0,0,0
5,59999,24,50000,86,10000,42,9999,0.100000,99,0,0.000000,17,9.000000,32.782341,24.551445,99,99,0,0,0,0,0
5,59999,25,50000,82,20000,40,9999,0.100000,99,0,0.000000,17,3.000000,33.400867,15.924427,99,99,0,0,0,0,0
5,59999,26,50000,45,10000,40,9999,0.100000,99,0,0.000000,17,1.000000,22.426195,3.138142,99,99,0,0,0,0,0
5,59999,27,50000,55,0,40,9999,0.100000,99,0,0.000000,17,2.000000,28.642734,6.415017,99,99,0,0,0,0,0
5,59999,28,50000,45,30000,40,9999,0.100000,99,0,0.000000,17,3.000000,34.089134,8.494849,99,99,0,0,0,0,0
5,59999,29,50000,6,10000,40,9999,0.100000,99,0,0.000000,17,1.000000,12.423005,3.356969,99,99,0,0,0,0,0
5,59999,30,50000,45,30000,40,9999,0.100000,99,0,0.000000,17,0.000000,21.298120,6.769931,99,99,0,0,0,0,0
5,59999,31,50000,82,20000,42,9999,0.100000,99,0,0.000000,17,9.000000,33.499032,22.593356,99,99,0,0,0,0,0
5,59999,32,50000,91,30000,0,9999,0.100000,99,0,0.500307,17,1.000000,28.610844,1.750286,99,99,0,0,0,1,0
5,59999,33,50000,57,20000,40,9999,0.100000,99,0,0.000000,17,1.000000,22.998005,1.914386,99,99,0,0,0,0,0
5,59999,34,50000,91,30000,40,9999,0.100000,99,0,0.000000,17,1.000000,23.579621,19.243660,99,99,0,0,0,0,0
5,59999,35,50000,45,30000,1,9999,0.100000,99,0,0.014207,17,3.000000,23.057766,6.037776,99,99,0,0,0,1,0
5,59999,36,50000,82,20000,40,9999,0.100000,99,0,0.000000,17,0.000000,26.358893,0.111399,99,99,0,0,0,0,0
5,59999,37,50000,37,0,40,9999,0.100000,99,0,0.000000,17,1.000000,28.888446,2.833404,99,99,0,0,0,0,0
5,59999,38,50000,35,20000,40,9999,0.100000,99,0,0.000000,17,1.000000,32.530088,3.014003,99,99,0,0,0,0,0
5,59999,39,50000,39,10000,40,9999,0.100000,99,0,0.000000,17,0.000000,10.651852,0.217809,99,99,0,0,0,0,0
5,59999,40,50000,87,0,44,9999,0.100000,99,0,0.000000,17,12.000000,24.054876,13.969843,99,99,0,0,0,0,0
5,59999,41,50000,55,0,40,9999,0.100000,99,0,0.000000,17,0.000000,22.856945,2.320916,99,99,0,0,0,0,0
5,59999,42,50000,2,20000,40,9999,0.135000,99,0,0.000000,17,1.000000,22.636062,7.738164,99,99,0,0,0,0,0
5,59999,43,50000,39,10000,41,9999,0.100000,99,0,0.000000,17,7.000000,34.838435,23.299921,99,99,0,0,0,0,0
5,59999,44,50000,57,0,41,9999,0.100000,99,0,0.000000,17,4.000000,30.859720,10.099658,99,99,0,0,0,0,0
5,59999,45,50000,87,0,40,9999,0.100000,99,0,0.000000,17,0.000000,28.070381,1.616872,99,99,0,0,0,0,0
5,59999,46,50000,45,30000,40,9999,0.100000,99,0,0.000000,17,1.000000,12.569500,1.924328,99,99,0,0,0,0,0
5,59999,47,50000,6,10000,40,9999,0.100000,99,0,0.000000,17,1.000000,22.770123,1.965274,99,99,0,0,0,0,0
5,59999,48,50000,11,0,40,9999,0.100000,99,0,0.000000,17,1.000000,27.031271,7.885210,99,99,0,0,0,0,0
5,59999,49,50000,57,20000,40,9999,0.100000,99,0,0.000000,17,1.000000,37.892862,3.888872,99,99,0,0,0,0,0
5,59999,50,50000,57,20000,40,9999,0.100000,99,0,0.000000,17,0.000000,26.975924,1.234411,99,99,0,0,0,0,0
5,59999,51,50000,57,0,40,9999,0.100000,99,0,0.000000,17,0.000000,26.574908,0.097803,99,99,0,0,0,0,0
5,59999,52,50000,86,10000,41,9999,0.100000,99,0,0.000000,17,5.000000,35.983413,11.362785,99,99,0,0,0,0,0
5,59999,53,50000,37,0,0,9999,0.100000,99,0,0.065058,17,0.000000,24.737187,4.677292,99,99,0,0,1,0,0
5,59999,54,50000,37,0,40,9999,0.100000,99,0,0.000000,17,0.000000,32.369929,6.212298,99,99,0,0,0,0,0
5,59999,55,50000,45,10000,40,9999,0.100000,99,0,0.000000,17,0.000000,38.025851,2.643467,99,99,0,0,0,0,0
5,59999,56,50000,57,20000,40,9999,0.100000,99,0,0.000000,17,0.000000,25.544390,4.434409,99,99,0,0,0,0,0
5,59999,57,50000,57,0,6,9999,0.100000,99,0,0.815108,17,9.000000,12.726296,20.869409,99,99,0,1,0,0,0
5,59999,58,50000,82,20000,40,9999,0.100000,99,0,0.000000,17,0.000000,21.277519,1.016494,99,99,0,0,0,0,0
5,59999,59,50000,55,0,41,9999,0.100000,99,0,0.000000,17,2.000000,18.647214,5.860233,99,99,0,0,0,0,0
5,59999,60,50000,57,0,40,9999,0.100000,99,0,0.000000,17,0.000000,24.995579,9.062673,99,99,0,0,0,0,0
5,59999,61,50000,45,10000,40,9999,0.100000,99,0,0.000000,17,0.000000,31.836903,2.691928,99,99,0,0,0,0,0
5,59999,62,50000,11,0,40,9999,0.100000,99,0,0.000000,17,1.000000,28.325837,1.208078,99,99,0,0,0,0,0
5,59999,63,50000,6,10000,40,9999,0.100000,99,0,0.000000,17,2.000000,27.401612,10.976446,99,99,0,0,0,0,0
5,59999,64,50000,24,0,0,9999,0.100000,99,0,0.825131,17,0.000000,26.799752,1.293319,99,99,0,0,1,0,0
5,59999,65,50000,86,10000,40,9999,0.100000,99,0,0.000000,17,0.000000,27.406918,23.844942,99,99,0,0,0,0,0
5,59999,66,50000,57,0,41,9999,0.100000,99,0,0.000000,17,5.000000,29.104151,12.623075,99,99,0,0,0,0,0
5,59999,67,50000,37,0,0,9999,0.100000,99,0,0.105096,17,0.000000,24.503811,0.252269,99,99,0,1,0,0,0
5,59999,68,50000,6,10000,0,9999,0.100000,99,0,0.653675,17,0.000000,18.437427,1.084602,99,99,0,1,0,0,0
5,59999,69,50000,22,0,40,9999,0.100000,99,0,0.000000,17,0.000000,23.753016,13.288369,99,99,0,0,0,0,0
5,59999,70,50000,22,0,40,9999,0.100000,99,0,0.000000,17,0.000000,27.387328,0.013548,99,99,0,0,0,0,0
5,59999,71,50000,57,20000,40,9999,0.100000,99,0,0.000000,17,0.000000,26.254660,0.101546,99,99,0,0,0,0,0
5,59999,72,50000,35,20000,0,9999,0.100000,99,0,0.016882,17,0.000000,23.404840,0.089690,99,99,0,0,0,1,0
5,59999,73,50000,86,10000,40,9999,0.100000,99,0,0.000000,17,1.000000,36.251959,2.496335,99,99,0,0,0,0,0
5,59999,74,50000,11,0,41,9999,0.100000,99,0,0.000000,17,4.000000,30.255640,15.824214,99,99,0,0,0,0,0
5,59999,75,50000,11,0,40,9999,0.100000,99,0,0.000000,17,2.000000,24.302845,12.578899,99,99,0,0,0,0,0
5,59999,76,50000,87,0,40,9999,0.100000,99,0,0.000000,17,0.000000,21.315207,2.771041,99,99,0,0,0,0,0
5,59999,77,50000,55,0,0,9999,0.100000,99,0,0.130573,17,0.000000,17.164327,0.197435,99,99,0,0,1,0,0
5,59999,78,50000,69,40000,40,9999,0.100000,99,0,0.000000,17,1.000000,26.191019,10.928860,99,99,0,0,0,0,0
5,59999,79,50000,37,0,40,9999,0.100000,99,0,0.000000,17,0.000000,29.578166,4.465197,99,99,0,0,0,0,0
5,59999,80,50000,6,10000,40,9999,0.100000,99,0,0.000000,17,3.000000,31.341855,21.338282,99,99,0,0,0,0,0
5,59999,81,50000,57,20000,40,9999,0.100000,99,0,0.000000,17,2.000000,26.915271,7.469617,99,99,0,0,0,0,0
5,59999,82,50000,86,10000,41,9999,0.100000,99,0,0.000000,17,4.000000,33.439732,10.307868,99,99,0,0,0,0,0
5,59999,83,50000,35,20000,40,9999,0.100000,99,0,0.000000,17,1.000000,21.605580,15.432869,99,99,0,0,0,0,0
5,59999,84,50000,37,0,40,9999,0.100000,99,0,0.000000,17,0.000000,25.522800,23.845367,99,99,0,0,0,0,0
5,59999,85,50000,35,20000,40,9999,0.100000,99,0,0.000000,17,1.000000,22.925247,4.458144,99,99,0,0,0,0,0
5,59999,86,50000,24,0,40,9999,0.100000,99,0,0.000000,17,0.000000,17.792404,1.428715,99,99,0,0,0,0,0
5,59999,87,50000,57,0,40,9999,0.100000,99,0,0.000000,17,3.000000,29.257166,9.853297,99,99,0,0,0,0,0
5,59999,88,50000,45,30000,40,9999,0.100000,99,0,0.000000,17,0.000000,27.199598,1.447724,99,99,0,0,0,0,0
5,59999,89,50000,91,30000,40,9999,0.100000,99,0,0.000000,17,2.000000,29.484790,9.386316,99,99,0,0,0,0,0
5,59999,90,50000,45,10000,0,9999,0.100000,99,0,0.537893,17,0.000000,24.170360,0.152290,99,99,0,0,0,0,1
5,59999,91,50000,24,0,0,9999,0.100000,99,0,0.006774,17,0.000000,17.830994,0.189184,99,99,0,0,0,1,0
5,59999,92,50000,86,10000,0,9999,0.100000,99,0,0.951870,17,0.000000,18.543889,0.385866,99,99,0,0,1,0,0
5,59999,93,50000,57,20000,40,9999,0.100000,99,0,0.000000,17,1.000000,29.696271,8.586806,99,99,0,0,0,0,0
5,59999,94,50000,45,10000,40,9999,0.100000,99,0,0.000000,17,0.000000,17.917366,0.134568,99,99,0,0,0,0,0
5,59999,95,50000,11,0,0,9999,0.100000,99,0,0.002756,17,0.000000,26.688361,0.119966,99,99,0,0,0,1,0
5,59999,96,50000,39,10000,40,9999,0.100000,99,0,0.000000,17,0.000000,17.798835,0.364062,99,99,0,0,0,0,0
5,59999,97,50000,35,20000,40,9999,0.100000,99,0,0.000000,17,1.000000,21.798416,22.778902,99,99,0,0,0,0,0
5,59999,98,50000,2,20000,40,9999,0.100000,99,0,0.000000,17,1.000000,22.012744,1.664815,99,99,0,0,0,0,0
5,59999,99,50000,11,0,40,9999,0.100000,99,0,0.000000,17,0.000000,24.026475,0.186828,99,99,0,0,0,0,0
6,69999,0,60000,37,0,0,9999,0.100000,99,0,0.642297,17,0.000000,21.066527,0.694976,99,99,0,0,0,0,1
6,69999,1,60000,45,10000,40,9999,0.100000,99,0,0.000000,18,1.000000,20.185543,4.032857,99,99,0,0,0,0,0
6,69999,2,60000,57,0,40,9999,0.100000,99,0,0.000000,17,0.000000,32.414558,0.682541,99,99,0,0,0,0,0
6,69999,3,60000,45,10000,40,9999,0.100000,99,0,0.000000,17,0.000000,21.893462,0.974532,99,99,0,0,0,0,0
6,69999,4,60000,91,30000,0,9999,0.100000,99,0,0.244395,17,0.000000,26.660428,0.095678,99,99,0,0,0,0,1
6,69999,5,60000,91,30000,40,9999,0.100000,99,0,0.000000,17,3.000000,29.824805,6.631606,99,99,0,0,0,0,0
6,69999,6,60000,24,0,41,9999,0.100000,99,0,0.000000,18,4.000000,30.508642,8.702606,99,99,0,0,0,0,0
6,69999,7,60000,87,0,40,9999,0.100000,99,0,0.000000,18,0.000000,21.761018,0.533541,99,99,0,0,0,0,0
6,69999,8,60000,37,0,0,9999,0.100000,99,0,0.001934,17,0.000000,25.372360,0.094172,99,99,0,0,0,1,0
6,69999,9,60000,57,20000,0,9999,0.100000,99,0,0.259152,17,0.000000,25.663803,0.716304,99,99,0,0,0,0,1
6,69999,10,60000,45,10000,40,9999,0.100000,99,0,0.000000,17,0.000000,17.980234,1.445405,99,99,0,0,0,0,0
6,69999,11,60000,11,0,40,9999,0.100000,99,0,0.000000,18,1.000000,28.412564,8.327906,99,99,0,0,0,0,0
6,69999,12,60000,37,0,0,9999,0.100000,99,0,0.228715,18,0.000000,22.245730,0.766866,99,99,0,0,0,0,1
6,69999,13,60000,11,0,41,9999,0.100000,99,0,0.000000,18,4.000000,28.405637,12.345748,99,99,0,0,0,0,0
6,69999,14,60000,82,20000,40,9999,0.100000,99,0,0.000000,17,0.000000,25.261974,0.386549,99,99,0,0,0,0,0
6,69999,15,60000,37,0,40,9999,0.100000,99,0,0.000000,17,0.000000,25.064939,2.027480,99,99,0,0,0,0,0
6,69999,16,60000,87,0,41,9999,0.100000,99,0,0.000000,19,5.000000,31.236641,13.306334,99,99,0,0,0,0,0
6,69999,17,60000,57,20000,40,9999,0.100000,99,0,0.000000,18,1.000000,28.370736,2.592502,99,99,0,0,0,0,0
6,69999,18,60000,45,10000,41,9999,0.100000,99,0,0.000000,18,4.000000,28.212311,19.444570,99,99,0,0,0,0,0
6,69999,19,60000,39,10000,42,9999,0.100000,99,0,0.000000,18,6.000000,26.134657,13.167220,99,99,0,0,0,0,0
6,69999,20,60000,82,20000,40,9999,0.100000,99,0,0.000000,18,0.000000,29.899699,0.161785,99,99,0,0,0,0,0
6,69999,21,60000,86,10000,42,9999,0.100000,99,0,0.000000,17,7.000000,27.851518,9.297853,99,99,0,0,0,0,0
6,69999,22,60000,57,0,40,9999,0.100000,99,0,0.000000,18,2.000000,26.687413,7.419893,99,99,0,0,0,0,0
6,69999,23,60000,2,20000,44,9999,0.100000,99,0,0.000000,17,10.000000,21.199520,14.508048,99,99,0,0,0,0,0
6,69999,24,60000,18,50000,41,9999,0.100000,99,0,0.000000,18,4.000000,31.270426,7.316489,99,99,0,0,0,0,0
6,69999,25,60000,86,10000,40,9999,0.100000,99,0,0.000000,17,2.000000,31.488080,8.512558,99,99,0,0,0,0,0
6,69999,26,60000,11,0,40,9999,0.065000,99,0,0.000000,18,0.000000,22.469035,0.780304,99,99,0,0,0,0,0
6,69999,27,60000,24,0,40,9999,0.100000,99,0,0.000000,17,1.000000,27.972787,4.417805,99,99,0,0,0,0,0
6,69999,28,60000,24,0,41,9999,0.100000,99,0,0.000000,18,4.000000,31.031764,9.045657,99,99,0,0,0,0,0
6,69999,29,60000,22,0,40,9999,0.100000,99,0,0.000000,17,1.000000,14.230232,2.746191,99,99,0,0,0,0,0
6,69999,30,60000,45,30000,40,9999,0.100000,99,0,0.000000,18,0.000000,20.788065,1.097452,99,99,0,0,0,0,0
6,69999,31,60000,91,30000,43,9999,0.100000,99,0,0.000000,17,10.000000,31.215112,13.742675,99,99,0,0,0,0,0
6,69999,32,60000,18,50000,40,9999,0.100000,99,0,0.000000,18,1.000000,28.220115,2.413456,99,99,0,0,0,0,0
6,69999,33,60000,87,0,40,9999,0.100000,99,0,0.000000,17,0.000000,22.934537,1.116261,99,99,0,0,0,0,0
6,69999,34,60000,69,40000,40,9999,0.100000,99,0,0.000000,18,1.000000,22.283216,16.307886,99,99,0,0,0,0,0
6,69999,35,60000,45,30000,40,9999,0.100000,99,0,0.000000,17,0.000000,26.140258,0.088321,99,99,0,0,0,0,0
6,69999,36,60000,6,10000,40,9999,0.100000,99,0,0.000000,18,0.000000,26.373919,0.150651,99,99,0,0,0,0,0
6,69999,37,60000,18,50000,40,9999,0.100000,99,0,0.000000,18,0.000000,28.451425,9.988146,99,99,0,0,0,0,0
6,69999,38,60000,2,20000,40,9999,0.100000,99,0,0.000000,18,0.000000,33.352624,0.738328,99,99,0,0,0,0,0
6,69999,39,60000,45,10000,40,9999,0.100000,99,0,0.000000,17,0.000000,10.636866,0.207424,99,99,0,0,0,0,0
6,69999,40,60000,91,30000,40,9999,0.100000,99,0,0.000000,18,0.000000,31.885327,0.782368,99,99,0,0,0,0,0
6,69999,41,60000,69,40000,40,9999,0.100000,99,0,0.000000,17,2.000000,22.726154,5.969811,99,99,0,0,0,0,0
6,69999,42,60000,86,10000,43,9999,0.100000,99,0,0.000000,18,9.000000,21.447695,13.287072,99,99,0,0,0,0,0
6,69999,43,60000,39,10000,0,9999,0.100000,99,0,1.834798,17,1.000000,28.742105,8.582347,99,99,0,0,0,1,0
6,69999,44,60000,57,0,40,9999,0.100000,99,0,3.199098,18,1.000000,35.613453,18.005756,99,99,0,0,0,0,0
6,69999,45,60000,24,0,40,9999,0.100000,99,0,0.000000,17,0.000000,27.819048,1.577888,99,99,0,0,0,0,0
6,69999,46,60000,37,0,40,9999,0.100000,99,0,0.000000,17,1.000000,14.462771,1.421585,99,99,0,0,0,0,0
6,69999,47,60000,86,10000,40,9999,0.100000,99,0,0.000000,18,0.000000,22.715509,1.014277,99,99,0,0,0,0,0
6,69999,48,60000,55,0,40,9999,0.100000,99,0,0.000000,18,1.000000,27.797647,4.495553,99,99,0,0,0,0,0
6,69999,49,60000,24,0,41,9999,0.100000,99,0,0.000000,18,5.000000,36.137292,12.276711,99,99,0,0,0,0,0
6,69999,50,60000,2,20000,0,9999,0.100000,99,0,2.810468,18,0.000000,26.982912,1.161054,99,99,0,0,1,0,0
6,69999,51,60000,69,40000,40,9999,0.100000,99,0,0.000000,18,0.000000,26.570041,0.104005,99,99,0,0,0,0,0
6,69999,52,60000,24,0,41,9999,0.100000,99,0,0.000000,18,4.000000,32.497139,9.124898,99,99,0,0,0,0,0
6,69999,53,60000,45,30000,0,9999,0.100000,99,0,0.026192,17,0.000000,24.537618,0.191086,99,99,0,0,1,0,0
6,69999,54,60000,24,0,41,9999,0.100000,99,0,0.000000,18,4.000000,32.608480,9.352659,99,99,0,0,0,0,0
6,69999,55,60000,45,30000,40,9999,0.100000,99,0,0.000000,18,0.000000,37.930707,0.573294,99,99,0,0,0,0,0
6,69999,56,60000,55,0,40,9999,0.100000,99,0,0.000000,17,0.000000,25.664272,1.379627,99,99,0,0,0,0,0
6,69999,57,60000,57,0,0,9999,0.100000,99,0,1.714076,19,1.000000,14.621114,1.454027,99,99,0,1,0,0,0
6,69999,58,60000,82,20000,40,9999,0.100000,99,0,0.000000,17,0.000000,20.881414,0.573318,99,99,0,0,0,0,0
6,69999,59,60000,86,10000,40,9999,0.100000,99,0,0.000000,18,1.000000,19.734347,3.775456,99,99,0,0,0,0,0
6,69999,60,60000,45,30000,41,9999,0.100000,99,0,0.000000,18,5.000000,25.431501,9.740742,99,99,0,0,0,0,0
6,69999,61,60000,82,20000,40,9999,0.100000,99,0,0.000000,18,0.000000,31.628531,1.142362,99,99,0,0,0,0,0
6,69999,62,60000,45,10000,40,9999,0.100000,99,0,0.000000,19,0.000000,28.020307,1.251421,99,99,0,0,0,0,0
6,69999,63,60000,86,10000,43,9999,0.100000,99,0,0.000000,18,10.000000,25.638815,21.305347,99,99,0,0,0,0,0
6,69999,64,60000,55,0,40,9999,0.100000,99,0,0.000000,18,0.000000,26.785168,1.119998,99,99,0,0,0,0,0
6,69999,65,60000,45,10000,40,9999,0.100000,99,0,0.000000,18,0.000000,27.469151,24.058523,99,99,0,0,0,0,0
6,69999,66,60000,57,0,40,9999,0.100000,99,0,0.000000,18,2.000000,29.544497,15.732100,99,99,0,0,0,0,0
6,69999,67,60000,82,20000,0,9999,0.100000,99,0,7.930383,17,1.000000,24.605469,1.616316,99,99,0,1,0,0,0
6,69999,68,60000,87,0,0,9999,0.100000,99,0,0.858231,18,0.000000,18.905367,0.297165,99,99,0,1,0,0,0
6,69999,69,60000,86,10000,40,9999,0.100000,99,0,0.000000,17,0.000000,23.700486,15.566379,99,99,0,0,0,0,0
6,69999,70,60000,57,0,40,9999,0.100000,99,0,0.000000,17,1.000000,27.388942,6.187320,99,99,0,0,0,0,0
6,69999,71,60000,57,20000,40,9999,0.100000,99,0,0.000000,18,0.000000,26.280378,0.101024,99,99,0,0,0,0,0
6,69999,72,60000,69,40000,0,9999,0.100000,99,0,0.815565,17,0.000000,23.404705,0.308351,99,99,0,0,0,1,0
6,69999,73,60000,86,10000,40,9999,0.100000,99,0,0.000000,18,0.000000,36.553462,0.920547,99,99,0,0,0,0,0
6,69999,74,60000,2,20000,40,9999,0.100000,99,0,0.000000,17,0.000000,26.381519,8.060299,99,99,0,0,0,0,0
6,69999,75,60000,6,10000,40,9999,0.100000,99,0,0.000000,17,2.000000,22.244444,18.451357,99,99,0,0,0,0,0
6,69999,76,60000,22,0,40,9999,0.100000,99,0,0.000000,17,0.000000,20.797848,1.218559,99,99,0,0,0,0,0
6,69999,77,60000,6,10000,0,9999,0.100000,99,0,0.473614,17,1.000000,17.142652,2.160447,99,99,0,0,1,0,0
6,69999,78,60000,82,20000,43,9999,0.100000,99,0,0.000000,17,8.000000,24.319850,27.552861,99,99,0,0,0,0,0
6,69999,79,60000,39,10000,41,9999,0.100000,99,0,0.000000,17,4.000000,29.802355,12.382491,99,99,0,0,0,0,0
6,69999,80,60000,24,0,40,9999,0.100000,99,0,0.000000,18,1.000000,27.640449,7.091266,99,99,0,0,0,0,0
6,69999,81,60000,39,10000,40,9999,0.100000,99,0,0.000000,17,1.000000,24.965699,9.891985,99,99,0,0,0,0,0
6,69999,82,60000,2,20000,41,9999,0.100000,99,0,0.000000,17,7.000000,35.803005,21.018335,99,99,0,0,0,0,0
6,69999,83,60000,37,0,42,9999,0.100000,99,0,0.000000,17,5.000000,22.167858,24.986270,99,99,0,0,0,0,0
6,69999,84,60000,91,30000,40,9999,0.100000,99,0,0.000000,17,0.000000,25.529413,23.928402,99,99,0,0,0,0,0
6,69999,85,60000,55,0,41,9999,0.100000,99,0,0.000000,18,3.000000,22.427535,13.149466,99,99,0,0,0,0,0
6,69999,86,60000,2,20000,40,9999,0.100000,99,0,0.000000,17,0.000000,17.734500,0.393732,99,99,0,0,0,0,0
6,69999,87,60000,86,10000,41,9999,0.100000,99,0,0.000000,17,4.000000,31.349534,14.613447,99,99,0,0,0,0,0
6,69999,88,60000,11,0,40,9999,0.100000,99,0,0.000000,17,0.000000,27.247294,1.414764,99,99,0,0,0,0,0
6,69999,89,60000,91,30000,40,9999,0.100000,99,0,0.000000,17,1.000000,27.845702,9.345527,99,99,0,0,0,0,0
6,69999,90,60000,6,10000,0,9999,0.100000,99,0,0.558868,18,0.000000,24.217913,0.164371,99,99,0,0,0,0,1
6,69999,91,60000,22,0,0,9999,0.100000,99,0,0.062258,17,0.000000,17.774545,0.138891,99,99,0,0,0,1,0
6,69999,92,60000,2,20000,0,9999,0.100000,99,0,2.656323,18,0.000000,18.274430,0.706038,99,99,0,0,1,0,0
6,69999,93,60000,57,20000,40,9999,0.100000,99,0,0.000000,18,1.000000,29.653351,10.961239,99,99,0,0,0,0,0
6,69999,94,60000,2,20000,40,9999,0.100000,99,0,0.000000,19,0.000000,17.856980,0.127053,99,99,0,0,0,0,0
6,69999,95,60000,45,30000,0,9999,0.100000,99,0,0.003367,17,0.000000,26.686047,0.138273,99,99,0,0,0,1,0
6,69999,96,60000,87,0,40,9999,0.100000,99,0,0.000000,18,0.000000,17.731519,0.336326,99,99,0,0,0,0,0
6,69999,97,60000,39,10000,40,9999,0.100000,99,0,0.000000,17,0.000000,22.071578,19.030006,99,99,0,0,0,0,0
6,69999,98,60000,22,0,40,9999,0.100000,99,0,0.000000,18,0.000000,21.956114,0.773101,99,99,0,0,0,0,0
6,69999,99,60000,57,20000,40,9999,0.100000,99,0,0.000000,18,0.000000,23.980244,0.150732,99,99,0,0,0,0,0
7,79999,0,70000,87,0,0,9999,0.100000,99,0,0.056098,19,0.000000,21.044595,0.685294,99,99,0,0,0,0,1
7,79999,1,70000,45,30000,42,9999,0.100000,99,0,0.000000,19,4.000000,18.957921,11.233508,99,99,0,0,0,0,0
7,79999,2,70000,55,0,40,9999,0.100000,99,0,0.000000,19,0.000000,32.571204,0.756115,99,99,0,0,0,0,0
7,79999,3,70000,86,10000,40,9999,0.100000,99,0,0.000000,19,0.000000,21.159592,0.910767,99,99,0,0,0,0,0
7,79999,4,70000,57,50000,0,9999,0.100000,99,0,0.043899,19,0.000000,26.648184,0.249803,99,99,0,0,0,0,1
7,79999,5,70000,86,10000,40,9999,0.100000,99,0,0.000000,19,0.000000,29.742002,0.156808,99,99,0,0,0,0,0
7,79999,6,70000,6,10000,40,9999,0.100000,99,0,0.000000,19,3.000000,31.353122,19.253387,99,99,0,0,0,0,0
7,79999,7,70000,55,0,40,9999,0.100000,99,0,0.000000,19,0.000000,21.685574,0.748748,99,99,0,0,0,0,0
7,79999,8,70000,57,0,0,9999,0.100000,99,0,0.002223,19,0.000000,25.372242,0.092647,99,99,0,0,0,1,0
7,79999,9,70000,87,0,0,9999,0.100000,99,0,0.076452,19,0.000000,25.730988,0.137897,99,99,0,0,0,0,1
7,79999,10,70000,24,0,40,9999,0.100000,99,0,0.000000,19,0.000000,17.344405,1.003525,99,99,0,0,0,0,0
7,79999,11,70000,57,20000,40,9999,0.100000,99,0,0.000000,19,2.000000,27.213387,12.961549,99,99,0,0,0,0,0
7,79999,12,70000,57,0,0,9999,0.100000,99,0,0.119260,19,0.000000,22.090293,0.697531,99,99,0,0,0,0,1
7,79999,13,70000,24,0,40,9999,0.100000,99,0,0.000000,19,2.000000,28.257217,5.704561,99,99,0,0,0,0,0
7,79999,14,70000,44,60000,40,9999,0.100000,99,0,0.000000,19,0.000000,25.293825,0.363448,99,99,0,0,0,0,0
7,79999,15,70000,69,40000,40,9999,0.100000,99,0,0.000000,19,0.000000,25.225527,0.097099,99,99,0,0,0,0,0
7,79999,16,70000,86,10000,40,9999,0.100000,99,0,0.000000,19,2.000000,26.026281,9.937812,99,99,0,0,0,0,0
7,79999,17,70000,57,20000,40,9999,0.100000,99,0,0.000000,19,2.000000,27.588614,7.425876,99,99,0,0,0,0,0
7,79999,18,70000,22,0,41,9999,0.100000,99,0,0.000000,19,3.000000,25.708635,14.805036,99,99,0,0,0,0,0
7,79999,19,70000,37,0,43,9999,0.100000,99,0,0.000000,19,8.000000,23.039152,11.068525,99,99,0,0,0,0,0
7,79999,20,70000,11,0,40,9999,0.100000,99,0,0.000000,19,0.000000,29.816841,0.159789,99,99,0,0,0,0,0
7,79999,21,70000,57,50000,40,9999,0.100000,99,0,0.000000,19,3.000000,33.846407,15.480003,99,99,0,0,0,0,0
7,79999,22,70000,45,30000,40,9999,0.100000,99,0,0.000000,19,0.000000,25.434115,6.958892,99,99,0,0,0,0,0
7,79999,23,70000,55,0,40,9999,0.100000,99,0,0.000000,19,0.000000,10.652945,0.471801,99,99,0,0,0,0,0
7,79999,24,70000,55,0,40,9999,0.100000,99,0,0.000000,19,0.000000,34.075441,0.240349,99,99,0,0,0,0,0
7,79999,25,70000,22,0,40,9999,0.100000,99,0,0.000000,19,2.000000,29.968268,5.451601,99,99,0,0,0,0,0
7,79999,26,70000,87,0,40,9999,0.100000,99,0,0.000000,19,0.000000,22.324881,0.663445,99,99,0,0,0,0,0
7,79999,27,70000,24,0,40,9999,0.100000,99,0,0.000000,19,2.000000,28.022232,16.682767,99,99,0,0,0,0,0
7,79999,28,70000,82,20000,40,9999,0.100000,99,0,0.000000,19,3.000000,31.114842,19.550746,99,99,0,0,0,0,0
7,79999,29,70000,86,10000,41,9999,0.100000,99,0,0.000000,19,2.000000,15.681786,2.551963,99,99,0,0,0,0,0
7,79999,30,70000,45,10000,40,9999,0.100000,99,0,0.000000,19,0.000000,20.803877,1.198105,99,99,0,0,0,0,0
7,79999,31,70000,39,10000,40,9999,0.100000,99,0,0.000000,19,0.000000,32.838026,9.864127,99,99,0,0,0,0,0
7,79999,32,70000,82,20000,41,9999,0.100000,99,0,0.000000,19,3.000000,27.534448,10.994150,99,99,0,0,0,0,0
7,79999,33,70000,31,60000,40,9999,0.100000,99,0,0.000000,19,0.000000,22.788123,1.083101,99,99,0,0,0,0,0
7,79999,34,70000,37,0,40,9999,0.100000,99,0,0.000000,19,1.000000,21.632325,10.537983,99,99,0,0,0,0,0
7,79999,35,70000,91,30000,40,9999,0.100000,99,0,0.000000,19,0.000000,26.139972,0.091818,99,99,0,0,0,0,0
7,79999,36,70000,6,10000,40,9999,0.100000,99,0,0.000000,19,0.000000,26.381815,0.133548,99,99,0,0,0,0,0
7,79999,37,70000,45,30000,40,9999,0.100000,99,0,0.000000,19,2.000000,28.314298,18.140413,99,99,0,0,0,0,0
7,79999,38,70000,45,10000,40,9999,0.100000,99,0,0.000000,19,0.000000,33.607300,0.755514,99,99,0,0,0,0,0
7,79999,39,70000,22,0,40,9999,0.100000,99,0,0.000000,19,0.000000,10.609848,0.153279,99,99,0,0,0,0,0
7,79999,40,70000,86,10000,40,9999,0.100000,99,0,0.000000,19,0.000000,31.744641,0.660044,99,99,0,0,0,0,0
7,79999,41,70000,86,10000,40,9999,0.100000,99,0,0.000000,19,0.000000,21.552904,1.252322,99,99,0,0,0,0,0
7,79999,42,70000,22,0,40,9999,0.100000,99,0,0.000000,19,1.000000,16.248692,1.664381,99,99,0,0,0,0,0
7,79999,43,70000,11,0,0,9999,0.100000,99,0,0.868812,19,0.000000,27.626672,0.995792,99,99,0,0,0,1,0
7,79999,44,70000,86,10000,41,9999,0.100000,99,0,0.000000,19,4.000000,36.002430,11.585034,99,99,0,0,0,0,0
7,79999,45,70000,6,10000,40,9999,0.100000,99,0,0.000000,19,0.000000,27.544968,1.036840,99,99,0,0,0,0,0
7,79999,46,70000,55,0,40,9999,0.100000,99,0,0.000000,19,1.000000,15.787066,6.968342,99,99,0,0,0,0,0
7,79999,47,70000,57,20000,40,9999,0.100000,99,0,0.000000,19,0.000000,22.566183,0.997523,99,99,0,0,0,0,0
7,79999,48,70000,11,0,40,9999,0.100000,99,0,0.000000,19,0.000000,27.750239,10.956252,99,99,0,0,0,0,0
7,79999,49,70000,39,10000,42,9999,0.100000,99,0,0.000000,19,7.000000,32.611731,23.402034,99,99,0,0,0,0,0
7,79999,50,70000,55,0,0,9999,0.100000,99,0,2.173006,19,0.000000,26.243729,0.524647,99,99,0,0,1,0,0
7,79999,51,70000,18,50000,40,9999,0.100000,99,0,0.000000,19,0.000000,26.563858,0.139388,99,99,0,0,0,0,0
7,79999,52,70000,39,10000,40,9999,0.100000,99,0,0.000000,19,3.000000,30.374011,12.369912,99,99,0,0,0,0,0
7,79999,53,70000,24,0,0,9999,0.100000,99,0,0.019395,19,0.000000,24.533465,0.184949,99,99,0,0,1,0,0
7,79999,54,70000,57,20000,40,9999,0.100000,99,0,0.000000,19,0.000000,30.843656,9.826195,99,99,0,0,0,0,0
7,79999,55,70000,57,20000,40,9999,0.100000,99,0,0.000000,19,0.000000,38.031184,0.089827,99,99,0,0,0,0,0
7,79999,56,70000,69,40000,40,9999,0.100000,99,0,0.000000,19,0.000000,25.922647,1.358936,99,99,0,0,0,0,0
7,79999,57,70000,55,0,0,9999,0.100000,99,0,4.103377,19,1.000000,15.942518,2.108116,99,99,0,1,0,0,0
7,79999,58,70000,24,0,40,9999,0.100000,99,0,0.000000,19,0.000000,20.872390,0.573680,99,99,0,0,0,0,0
7,79999,59,70000,86,10000,40,9999,0.100000,99,0,0.000000,19,1.000000,18.771905,2.963246,99,99,0,0,0,0,0
7,79999,60,70000,57,0,41,9999,0.100000,99,0,0.000000,19,4.000000,23.357367,10.085131,99,99,0,0,0,0,0
7,79999,61,70000,6,10000,40,9999,0.100000,99,0,0.000000,19,0.000000,31.656312,0.498649,99,99,0,0,0,0,0
7,79999,62,70000,24,0,40,9999,0.100000,99,0,0.000000,19,0.000000,27.566529,1.083992,99,99,0,0,0,0,0
7,79999,63,70000,6,10000,41,9999,0.100000,99,0,0.000000,19,5.000000,25.541779,8.474341,99,99,0,0,0,0,0
7,79999,64,70000,45,30000,40,9999,0.100000,99,0,0.000000,19,0.000000,26.049287,0.477677,99,99,0,0,0,0,0
7,79999,65,70000,82,20000,40,9999,0.100000,99,0,0.000000,19,1.000000,27.405881,22.984481,99,99,0,0,0,0,0
7,79999,66,70000,55,0,40,9999,0.100000,99,0,0.000000,19,1.000000,27.545255,10.688476,99,99,0,0,0,0,0
7,79999,67,70000,57,50000,0,9999,0.100000,99,0,2.142894,19,0.000000,25.454948,2.467271,99,99,0,1,0,0,0
7,79999,68,70000,44,60000,0,9999,0.100000,99,0,0.919596,19,0.000000,18.744860,0.305646,99,99,0,1,0,0,0
7,79999,69,70000,91,30000,40,9999,0.100000,99,0,0.000000,19,0.000000,23.614273,15.513538,99,99,0,0,0,0,0
7,79999,70,70000,24,0,40,9999,0.100000,99,0,0.000000,19,0.000000,27.687278,16.268488,99,99,0,0,0,0,0
7,79999,71,70000,44,60000,40,9999,0.100000,99,0,0.000000,19,0.000000,26.295657,0.119110,99,99,0,0,0,0,0
7,79999,72,70000,24,0,0,9999,0.100000,99,0,0.029134,19,0.000000,23.502564,0.088036,99,99,0,0,0,1,0
7,79999,73,70000,11,0,40,9999,0.100000,99,0,0.000000,19,0.000000,36.105405,0.948907,99,99,0,0,0,0,0
7,79999,74,70000,44,60000,40,9999,0.065000,99,0,0.000000,19,0.000000,25.861576,5.189696,99,99,0,0,0,0,0
7,79999,75,70000,86,10000,42,9999,0.100000,99,0,0.000000,19,6.000000,21.078673,10.857423,99,99,0,0,0,0,0
7,79999,76,70000,57,20000,40,9999,0.100000,99,0,0.000000,19,0.000000,20.698771,0.948132,99,99,0,0,0,0,0
7,79999,77,70000,87,0,0,9999,0.100000,99,0,5.204697,19,0.000000,16.586733,1.143149,99,99,0,0,1,0,0
7,79999,78,70000,86,10000,42,9999,0.100000,99,0,0.000000,19,7.000000,27.816290,23.098934,99,99,0,0,0,0,0
7,79999,79,70000,18,50000,41,9999,0.100000,99,0,0.000000,19,4.000000,30.642898,13.488216,99,99,0,0,0,0,0
7,79999,80,70000,18,50000,41,9999,0.100000,99,0,0.000000,19,3.000000,28.051284,10.241396,99,99,0,0,0,0,0
7,79999,81,70000,91,30000,40,9999,0.100000,99,0,0.000000,19,2.000000,23.964246,9.125974,99,99,0,0,0,0,0
7,79999,82,70000,82,20000,40,9999,0.100000,99,0,0.000000,19,0.000000,29.358715,4.272395,99,99,0,0,0,0,0
7,79999,83,70000,45,30000,41,9999,0.100000,99,0,0.000000,19,4.000000,22.604628,11.358303,99,99,0,0,0,0,0
7,79999,84,70000,87,0,40,9999,0.100000,99,0,0.000000,19,0.000000,25.637541,23.760335,99,99,0,0,0,0,0
7,79999,85,70000,57,20000,40,9999,0.100000,99,0,0.000000,19,1.000000,20.323872,5.596274,99,99,0,0,0,0,0
7,79999,86,70000,44,60000,40,9999,0.100000,99,0,0.000000,19,0.000000,17.766228,0.354086,99,99,0,0,0,0,0
7,79999,87,70000,45,30000,40,9999,0.100000,99,0,0.000000,19,3.000000,29.329224,10.575677,99,99,0,0,0,0,0
7,79999,88,70000,57,20000,40,9999,0.100000,99,0,0.000000,19,0.000000,26.460925,0.834146,99,99,0,0,0,0,0
7,79999,89,70000,18,50000,0,9999,0.100000,99,0,0.179166,19,2.000000,27.752546,5.687199,99,99,0,0,0,1,0
7,79999,90,70000,86,10000,0,9999,0.100000,99,0,0.581920,19,0.000000,24.278711,0.175518,99,99,0,0,0,0,1
7,79999,91,70000,45,10000,0,9999,0.100000,99,0,0.001565,19,0.000000,17.796601,0.098278,99,99,0,0,0,1,0
7,79999,92,70000,39,10000,0,9999,0.100000,99,0,3.674094,19,0.000000,17.811216,0.768703,99,99,0,0,1,0,0
7,79999,93,70000,57,50000,40,9999,0.100000,99,0,0.000000,19,0.000000,27.834479,12.073710,99,99,0,0,0,0,0
7,79999,94,70000,57,50000,40,9999,0.100000,99,0,0.000000,19,0.000000,17.869337,0.105511,99,99,0,0,0,0,0
7,79999,95,70000,24,0,40,9999,0.100000,99,0,0.000000,19,0.000000,26.683076,0.267241,99,99,0,0,0,0,0
7,79999,96,70000,44,60000,40,9999,0.100000,99,0,0.000000,19,0.000000,17.759089,0.239025,99,99,0,0,0,0,0
7,79999,97,70000,2,20000,40,9999,0.100000,99,0,0.000000,19,1.000000,22.157269,12.044358,99,99,0,0,0,0,0
7,79999,98,70000,39,10000,40,9999,0.100000,99,0,0.000000,19,0.000000,21.814639,0.849150,99,99,0,0,0,0,0
7,79999,99,70000,57,20000,40,9999,0.100000,99,0,0.000000,19,0.000000,23.975452,0.146714,99,99,0,0,0,0,0
8,89999,0,80000,86,10000,0,9999,0.100000,99,0,0.445662,19,0.000000,20.713184,0.556965,99,99,0,0,0,0,1
8,89999,1,80000,6,10000,41,9999,0.100000,99,0,0.000000,19,2.000000,18.101127,15.321852,99,99,0,0,0,0,0
8,89999,2,80000,44,60000,40,9999,0.100000,99,0,0.000000,19,0.000000,32.768902,0.856211,99,99,0,0,0,0,0
8,89999,3,80000,39,10000,40,9999,0.100000,99,0,0.000000,19,0.000000,20.475767,0.931606,99,99,0,0,0,0,0
8,89999,4,80000,55,0,0,9999,0.100000,99,0,0.138045,19,0.000000,26.596898,0.113121,99,99,0,0,0,0,1
8,89999,5,80000,57,20000,40,9999,0.100000,99,0,0.000000,19,0.000000,29.660688,0.160809,99,99,0,0,0,0,0
8,89999,6,80000,18,50000,40,9999,0.100000,99,0,0.000000,19,1.000000,27.454057,9.946546,99,99,0,0,0,0,0
8,89999,7,80000,82,20000,40,9999,0.100000,99,0,0.000000,19,0.000000,21.239729,0.300429,99,99,0,0,0,0,0
8,89999,8,80000,91,30000,0,9999,0.100000,99,0,0.003761,19,0.000000,25.372254,0.096988,99,99,0,0,0,1,0
8,89999,9,80000,57,20000,0,9999,0.100000,99,0,0.122308,19,0.000000,25.789961,0.499459,99,99,0,0,0,0,1
8,89999,10,80000,31,60000,40,9999,0.100000,99,0,0.000000,19,0.000000,17.095181,0.967206,99,99,0,0,0,0,0
8,89999,11,80000,22,0,40,9999,0.100000,99,0,0.000000,19,1.000000,25.811766,21.228533,99,99,0,0,0,0,0
8,89999,12,80000,44,60000,0,9999,0.100000,99,0,0.085042,19,0.000000,21.950989,0.725894,99,99,0,0,0,0,1
8,89999,13,80000,91,30000,40,9999,0.100000,99,0,0.000000,19,0.000000,25.898056,2.074616,99,99,0,0,0,0,0
8,89999,14,80000,22,0,40,9999,0.100000,99,0,0.000000,19,0.000000,25.337261,0.382288,99,99,0,0,0,0,0
8,89999,15,80000,87,0,40,9999,0.100000,99,0,0.000000,19,0.000000,25.268702,0.128142,99,99,0,0,0,0,0
8,89999,16,80000,2,20000,40,9999,0.100000,99,0,0.000000,19,1.000000,28.228847,20.292886,99,99,0,0,0,0,0
8,89999,17,80000,6,10000,40,9999,0.100000,99,0,0.000000,19,1.000000,25.675293,15.082730,99,99,0,0,0,0,0
8,89999,18,80000,87,0,41,9999,0.100000,99,0,0.000000,19,4.000000,25.120961,25.138588,99,99,0,0,0,0,0
8,89999,19,80000,24,0,42,9999,0.100000,99,0,0.000000,19,7.000000,26.182762,24.060018,99,99,0,0,0,0,0
8,89999,20,80000,22,0,40,9999,0.100000,99,0,0.000000,19,0.000000,29.735556,0.159986,99,99,0,0,0,0,0
8,89999,21,80000,2,20000,41,9999,0.100000,99,0,0.000000,19,6.000000,35.986661,20.501476,99,99,0,0,0,0,0
8,89999,22,80000,45,10000,40,9999,0.100000,99,0,0.000000,19,0.000000,26.065439,23.786793,99,99,0,0,0,0,0
8,89999,23,80000,31,60000,40,9999,0.100000,99,0,0.000000,19,0.000000,10.637733,0.693664,99,99,0,0,0,0,0
8,89999,24,80000,31,60000,40,9999,0.100000,99,0,0.000000,19,0.000000,34.076151,0.237235,99,99,0,0,0,0,0
8,89999,25,80000,6,10000,40,9999,0.100000,99,0,0.000000,19,1.000000,27.624178,10.583918,99,99,0,0,0,0,0
8,89999,26,80000,57,0,40,9999,0.100000,99,0,0.000000,19,0.000000,22.177952,0.633221,99,99,0,0,0,0,0
8,89999,27,80000,44,60000,40,9999,0.100000,99,0,0.000000,19,0.000000,25.817213,7.788847,99,99,0,0,0,0,0
8,89999,28,80000,31,60000,40,9999,0.100000,99,0,0.000000,19,0.000000,29.837511,8.138987,99,99,0,0,0,0,0
8,89999,29,80000,31,60000,40,9999,0.100000,99,0,0.000000,19,1.000000,17.552170,5.211398,99,99,0,0,0,0,0
8,89999,30,80000,82,20000,40,9999,0.100000,99,0,0.000000,19,0.000000,20.516746,1.104820,99,99,0,0,0,0,0
8,89999,31,80000,57,0,40,9999,0.100000,99,0,0.000000,19,1.000000,32.661357,7.902927,99,99,0,0,0,0,0
8,89999,32,80000,39,10000,40,9999,0.100000,99,0,0.000000,19,1.000000,28.456792,6.847056,99,99,0,0,0,0,0
8,89999,33,80000,86,10000,40,9999,0.100000,99,0,0.000000,19,0.000000,22.630165,1.210084,99,99,0,0,0,0,0
8,89999,34,80000,57,20000,40,9999,0.100000,99,0,0.000000,19,2.000000,22.263389,7.106303,99,99,0,0,0,0,0
8,89999,35,80000,18,50000,40,9999,0.100000,99,0,0.000000,19,0.000000,26.139653,0.091435,99,99,0,0,0,0,0
8,89999,36,80000,2,20000,40,9999,0.100000,99,0,0.000000,19,0.000000,26.348028,0.111773,99,99,0,0,0,0,0
8,89999,37,80000,69,40000,40,9999,0.100000,99,0,0.000000,19,1.000000,25.961172,12.344016,99,99,0,0,0,0,0
8,89999,38,80000,18,50000,40,9999,0.100000,99,0,0.000000,19,0.000000,33.889377,0.913387,99,99,0,0,0,0,0
8,89999,39,80000,6,10000,40,9999,0.100000,99,0,0.000000,19,0.000000,10.589665,0.195646,99,99,0,0,0,0,0
8,89999,40,80000,87,0,40,9999,0.100000,99,0,0.000000,19,0.000000,31.677537,0.663028,99,99,0,0,0,0,0
8,89999,41,80000,55,0,40,9999,0.100000,99,0,0.000000,19,2.000000,20.860587,4.005990,99,99,0,0,0,0,0
8,89999,42,80000,39,10000,0,9999,0.100000,99,0,0.088904,19,0.000000,17.386526,1.335925,99,99,0,0,1,0,0
8,89999,43,80000,11,0,0,9999,0.100000,99,0,0.118503,19,0.000000,27.488306,0.925307,99,99,0,0,0,1,0
8,89999,44,80000,24,0,40,9999,0.100000,99,0,0.000000,19,1.000000,32.993808,16.469101,99,99,0,0,0,0,0
8,89999,45,80000,91,30000,40,9999,0.100000,99,0,0.000000,19,0.000000,27.402382,0.948763,99,99,0,0,0,0,0
8,89999,46,80000,57,0,40,9999,0.100000,99,0,0.000000,19,1.000000,17.460509,4.285083,99,99,0,0,0,0,0
8,89999,47,80000,2,20000,40,9999,0.100000,99,0,0.000000,19,0.000000,22.406884,1.025415,99,99,0,0,0,0,0
8,89999,48,80000,86,10000,40,9999,0.100000,99,0,0.000000,19,0.000000,27.456971,0.968211,99,99,0,0,0,0,0
8,89999,49,80000,18,50000,40,9999,0.100000,99,0,0.000000,19,2.000000,32.252949,7.134427,99,99,0,0,0,0,0
8,89999,50,80000,57,50000,0,9999,0.100000,99,0,1.276227,19,0.000000,25.852905,0.753139,99,99,0,0,1,0,0
8,89999,51,80000,82,20000,40,9999,0.100000,99,0,0.000000,19,0.000000,26.518665,0.120820,99,99,0,0,0,0,0
8,89999,52,80000,18,50000,40,9999,0.100000,99,0,0.000000,19,3.000000,28.614834,13.872169,99,99,0,0,0,0,0
8,89999,53,80000,87,0,0,9999,0.100000,99,0,0.018949,19,0.000000,24.526374,0.183107,99,99,0,0,1,0,0
8,89999,54,80000,57,20000,40,9999,0.100000,99,0,0.000000,19,1.000000,31.122641,7.171601,99,99,0,0,0,0,0
8,89999,55,80000,57,50000,40,9999,0.100000,99,0,0.000000,19,0.000000,38.031185,0.087637,99,99,0,0,0,0,0
8,89999,56,80000,86,10000,40,9999,0.100000,99,0,0.000000,19,0.000000,25.966490,0.499950,99,99,0,0,0,0,0
8,89999,57,80000,79,70000,0,9999,0.100000,99,0,7.213690,19,1.000000,17.563731,2.599325,99,99,0,1,0,0,0
8,89999,58,80000,86,10000,40,9999,0.100000,99,0,0.000000,19,0.000000,20.571339,0.503477,99,99,0,0,0,0,0
8,89999,59,80000,91,30000,41,9999,0.100000,99,0,0.000000,19,2.000000,17.789661,10.379773,99,99,0,0,0,0,0
8,89999,60,80000,55,0,40,9999,0.100000,99,0,0.000000,19,2.000000,19.839102,5.024053,99,99,0,0,0,0,0
8,89999,61,80000,57,0,40,9999,0.100000,99,0,0.000000,19,0.000000,31.590056,0.504404,99,99,0,0,0,0,0
8,89999,62,80000,87,0,40,9999,0.100000,99,0,0.000000,19,0.000000,27.425090,1.165467,99,99,0,0,0,0,0
8,89999,63,80000,18,50000,40,9999,0.100000,99,0,0.000000,19,0.000000,29.811875,3.043164,99,99,0,0,0,0,0
8,89999,64,80000,44,60000,40,9999,0.100000,99,0,0.000000,19,0.000000,25.673175,0.614325,99,99,0,0,0,0,0
8,89999,65,80000,91,30000,40,9999,0.100000,99,0,0.000000,19,0.000000,26.576083,3.968260,99,99,0,0,0,0,0
8,89999,66,80000,24,0,40,9999,0.100000,99,0,0.000000,19,1.000000,25.841242,7.137140,99,99,0,0,0,0,0
8,89999,67,80000,57,50000,40,9999,0.100000,99,0,0.000000,19,2.000000,25.971041,11.597206,99,99,0,0,0,0,0
8,89999,68,80000,79,70000,0,9999,0.100000,99,0,0.857965,19,0.000000,18.566328,0.292984,99,99,0,1,0,0,0
8,89999,69,80000,87,0,40,9999,0.100000,99,0,0.000000,19,0.000000,23.809131,14.974971,99,99,0,0,0,0,0
8,89999,70,80000,69,40000,41,9999,0.100000,99,0,0.000000,19,5.000000,28.132628,14.919118,99,99,0,0,0,0,0
8,89999,71,80000,55,0,40,9999,0.100000,99,0,0.000000,19,0.000000,26.270364,0.115139,99,99,0,0,0,0,0
8,89999,72,80000,57,50000,0,9999,0.100000,99,0,0.066055,19,0.000000,23.492190,0.413554,99,99,0,0,0,1,0
8,89999,73,80000,44,60000,40,9999,0.100000,99,0,0.000000,19,0.000000,35.667367,0.958134,99,99,0,0,0,0,0
8,89999,74,80000,31,60000,43,9999,0.100000,99,0,0.000000,19,9.000000,25.781234,17.271519,99,99,0,0,0,0,0
8,89999,75,80000,6,10000,41,9999,0.100000,99,0,0.000000,19,2.000000,14.509865,17.571106,99,99,0,0,0,0,0
8,89999,76,80000,87,0,40,9999,0.100000,99,0,0.000000,19,0.000000,20.394353,1.333065,99,99,0,0,0,0,0
8,89999,77,80000,22,0,40,9999,0.100000,99,0,0.000000,19,0.000000,17.473424,0.191844,99,99,0,0,0,0,0
8,89999,78,80000,22,0,41,9999,0.100000,99,0,0.000000,19,4.000000,27.692231,10.535577,99,99,0,0,0,0,0
8,89999,79,80000,79,70000,41,9999,0.100000,99,0,0.000000,19,3.000000,26.308174,13.203461,99,99,0,0,0,0,0
8,89999,80,80000,31,60000,40,9999,0.100000,99,0,0.000000,19,1.000000,29.884649,6.086277,99,99,0,0,0,0,0
8,89999,81,80000,57,50000,40,9999,0.100000,99,0,0.000000,19,1.000000,24.103258,6.634465,99,99,0,0,0,0,0
8,89999,82,80000,18,50000,40,9999,0.100000,99,0,0.000000,19,0.000000,28.988865,6.309052,99,99,0,0,0,0,0
8,89999,83,80000,24,0,40,9999,0.100000,99,0,0.000000,19,2.000000,20.550114,7.918719,99,99,0,0,0,0,0
8,89999,84,80000,91,30000,40,9999,0.100000,99,0,0.000000,19,0.000000,25.510642,23.749147,99,99,0,0,0,0,0
8,89999,85,80000,6,10000,42,9999,0.100000,99,0,0.000000,19,4.000000,18.954320,17.213962,99,99,0,0,0,0,0
8,89999,86,80000,91,30000,40,9999,0.100000,99,0,0.000000,19,0.000000,17.758450,0.495380,99,99,0,0,0,0,0
8,89999,87,80000,44,60000,40,9999,0.100000,99,0,0.000000,19,0.000000,26.383035,1.707214,99,99,0,0,0,0,0
8,89999,88,80000,22,0,40,9999,0.100000,99,0,0.000000,19,0.000000,25.967382,1.818905,99,99,0,0,0,0,0
8,89999,89,80000,22,0,0,9999,0.100000,99,0,0.136412,19,0.000000,26.387229,0.862368,99,99,0,0,0,1,0
8,89999,90,80000,44,60000,0,9999,0.100000,99,0,0.584820,19,0.000000,24.359273,0.178816,99,99,0,0,0,0,1
8,89999,91,80000,24,0,0,9999,0.100000,99,0,0.028904,19,0.000000,17.787320,0.153136,99,99,0,0,0,1,0
8,89999,92,80000,11,0,0,9999,0.100000,99,0,3.648873,19,0.000000,17.551913,0.747795,99,99,0,0,1,0,0
8,89999,93,80000,79,70000,40,9999,0.100000,99,0,0.000000,19,0.000000,27.236588,0.969558,99,99,0,0,0,0,0
8,89999,94,80000,45,10000,40,9999,0.100000,99,0,0.000000,19,0.000000,17.859657,0.167769,99,99,0,0,0,0,0
8,89999,95,80000,91,30000,40,9999,0.100000,99,0,0.000000,19,0.000000,26.616310,0.634870,99,99,0,0,0,0,0
8,89999,96,80000,2,20000,40,9999,0.100000,99,0,0.000000,19,0.000000,17.750346,0.314369,99,99,0,0,0,0,0
8,89999,97,80000,18,50000,40,9999,0.100000,99,0,0.000000,19,0.000000,20.893727,0.297597,99,99,0,0,0,0,0
8,89999,98,80000,57,50000,40,9999,0.100000,99,0,0.000000,19,0.000000,21.681802,0.931019,99,99,0,0,0,0,0
8,89999,99,80000,11,0,40,9999,0.100000,99,0,0.000000,19,0.000000,23.967746,0.146295,99,99,0,0,0,0,0
9,99999,0,90000,45,10000,0,9999,0.100000,99,0,0.789801,19,0.000000,20.588469,0.498529,99,99,0,0,0,0,1
9,99999,1,90000,79,70000,0,9999,0.100000,99,0,1.687603,19,1.000000,17.052259,8.758050,99,99,0,0,1,0,0
9,99999,2,90000,11,0,40,9999,0.100000,99,0,0.000000,19,0.000000,33.019505,0.820850,99,99,0,0,0,0,0
9,99999,3,90000,87,0,42,9999,0.100000,99,0,0.000000,19,5.000000,19.793792,8.207163,99,99,0,0,0,0,0
9,99999,4,90000,39,10000,0,9999,0.100000,99,0,0.081976,19,0.000000,26.612814,0.114280,99,99,0,0,0,0,1
9,99999,5,90000,22,0,40,9999,0.100000,99,0,0.000000,19,0.000000,29.579070,0.156415,99,99,0,0,0,0,0
9,99999,6,90000,57,0,40,9999,0.100000,99,0,0.000000,19,1.000000,26.548536,5.511131,99,99,0,0,0,0,0
9,99999,7,90000,2,20000,40,9999,0.100000,99,0,0.000000,19,0.000000,21.101760,0.194778,99,99,0,0,0,0,0
9,99999,8,90000,57,20000,0,9999,0.100000,99,0,0.002235,19,0.000000,25.371867,0.094037,99,99,0,0,0,1,0
9,99999,9,90000,79,70000,0,9999,0.100000,99,0,0.003678,19,0.000000,25.827462,0.456167,99,99,0,0,0,0,1
9,99999,10,90000,79,70000,40,9999,0.100000,99,0,0.000000,19,1.000000,17.298905,3.526329,99,99,0,0,0,0,0
9,99999,11,90000,91,30000,40,9999,0.100000,99,0,0.000000,19,2.000000,26.177730,17.917464,99,99,0,0,0,0,0
9,99999,12,90000,87,0,0,9999,0.100000,99,0,0.201025,19,0.000000,21.933298,1.215754,99,99,0,0,0,0,1
9,99999,13,90000,31,60000,40,9999,0.100000,99,0,0.000000,19,0.000000,26.037468,0.511839,99,99,0,0,0,0,0
9,99999,14,90000,79,70000,40,9999,0.100000,99,0,0.000000,19,0.000000,25.367333,0.350645,99,99,0,0,0,0,0
9,99999,15,90000,18,50000,40,9999,0.100000,99,0,0.000000,19,0.000000,25.321315,0.187782,99,99,0,0,0,0,0
9,99999,16,90000,45,10000,41,9999,0.100000,99,0,0.000000,19,3.000000,28.036024,14.603434,99,99,0,0,0,0,0
9,99999,17,90000,57,50000,41,9999,0.100000,99,0,0.000000,19,3.000000,25.896338,11.199637,99,99,0,0,0,0,0
9,99999,18,90000,31,60000,42,9999,0.100000,99,0,0.000000,19,6.000000,25.244318,22.691663,99,99,0,0,0,0,0
9,99999,19,90000,22,0,42,9999,0.100000,99,0,0.000000,19,5.000000,22.249239,14.196218,99,99,0,0,0,0,0
9,99999,20,90000,22,0,40,9999,0.100000,99,0,0.000000,19,0.000000,29.653881,0.158084,99,99,0,0,0,0,0
9,99999,21,90000,24,0,40,9999,0.100000,99,0,0.000000,19,0.000000,29.072948,3.732393,99,99,0,0,0,0,0
9,99999,22,90000,91,30000,40,9999,0.100000,99,0,0.000000,19,1.000000,26.159521,22.363948,99,99,0,0,0,0,0
9,99999,23,90000,57,50000,40,9999,0.100000,99,0,0.000000,19,0.000000,10.625723,0.623165,99,99,0,0,0,0,0
9,99999,24,90000,82,20000,40,9999,0.100000,99,0,0.000000,19,0.000000,34.077471,0.228380,99,99,0,0,0,0,0
9,99999,25,90000,55,0,40,9999,0.100000,99,0,0.000000,19,1.000000,27.744713,6.371564,99,99,0,0,0,0,0
9,99999,26,90000,18,50000,40,9999,0.100000,99,0,0.000000,19,0.000000,22.154039,1.018317,99,99,0,0,0,0,0
9,99999,27,90000,31,60000,40,9999,0.100000,99,0,0.000000,19,2.000000,25.165439,11.234224,99,99,0,0,0,0,0
9,99999,28,90000,11,0,41,9999,0.100000,99,0,0.000000,19,4.000000,29.661757,17.628613,99,99,0,0,0,0,0
9,99999,29,90000,6,10000,0,9999,0.100000,99,0,0.108137,19,0.000000,18.321494,1.566537,99,99,0,1,0,0,0
9,99999,30,90000,39,10000,40,9999,0.100000,99,0,0.000000,19,0.000000,20.396913,1.251284,99,99,0,0,0,0,0
9,99999,31,90000,44,60000,40,9999,0.100000,99,0,0.000000,19,0.000000,32.477677,5.626919,99,99,0,0,0,0,0
9,99999,32,90000,57,50000,40,9999,0.100000,99,0,0.000000,19,2.000000,28.117999,7.657913,99,99,0,0,0,0,0
9,99999,33,90000,82,20000,40,9999,0.100000,99,0,0.000000,19,0.000000,22.602494,1.488634,99,99,0,0,0,0,0
9,99999,34,90000,2,20000,40,9999,0.100000,99,0,0.000000,19,1.000000,19.714782,10.470382,99,99,0,0,0,0,0
9,99999,35,90000,6,10000,40,9999,0.100000,99,0,0.000000,19,0.000000,26.139170,0.092923,99,99,0,0,0,0,0
9,99999,36,90000,18,50000,40,9999,0.100000,99,0,0.000000,19,0.000000,26.345437,0.125825,99,99,0,0,0,0,0
9,99999,37,90000,2,20000,40,9999,0.100000,99,0,0.000000,19,1.000000,26.303785,12.138072,99,99,0,0,0,0,0
9,99999,38,90000,57,20000,40,9999,0.100000,99,0,0.000000,19,0.000000,34.282563,1.014402,99,99,0,0,0,0,0
9,99999,39,90000,57,50000,40,9999,0.100000,99,0,0.000000,19,0.000000,10.576570,0.181099,99,99,0,0,0,0,0
9,99999,40,90000,57,20000,40,9999,0.100000,99,0,0.000000,19,0.000000,31.609404,0.684749,99,99,0,0,0,0,0
9,99999,41,90000,39,10000,42,9999,0.100000,99,0,0.000000,19,5.000000,17.996536,16.037146,99,99,0,0,0,0,0
9,99999,42,90000,6,10000,0,9999,0.100000,99,0,0.008933,19,0.000000,17.434379,0.131091,99,99,0,0,1,0,0
9,99999,43,90000,86,10000,0,9999,0.100000,99,0,0.594276,19,0.000000,27.653339,1.042675,99,99,0,0,0,1,0
9,99999,44,90000,57,0,40,9999,0.100000,99,0,0.000000,19,1.000000,32.789217,9.838452,99,99,0,0,0,0,0
9,99999,45,90000,55,0,40,9999,0.100000,99,0,0.000000,19,0.000000,27.354037,0.781546,99,99,0,0,0,0,0
9,99999,46,90000,6,10000,40,9999,0.100000,99,0,0.000000,19,0.000000,18.351149,6.931883,99,99,0,0,0,0,0
9,99999,47,90000,44,60000,40,9999,0.100000,99,0,0.000000,19,0.000000,22.386717,1.494688,99,99,0,0,0,0,0
9,99999,48,90000,44,60000,40,9999,0.100000,99,0,0.000000,19,0.000000,27.549111,0.910908,99,99,0,0,0,0,0
9,99999,49,90000,79,70000,40,9999,0.100000,99,0,0.000000,19,2.000000,31.729103,9.989725,99,99,0,0,0,0,0
9,99999,50,90000,57,0,0,9999,0.100000,99,0,4.309818,19,1.000000,25.513706,2.807649,99,99,0,0,1,0,0
9,99999,51,90000,57,50000,40,9999,0.100000,99,0,0.000000,19,0.000000,26.528420,0.122282,99,99,0,0,0,0,0
9,99999,52,90000,82,20000,0,9999,0.100000,99,0,1.299014,19,1.000000,25.563587,16.536078,99,99,0,1,0,0,0
9,99999,53,90000,31,60000,40,9999,0.100000,99,0,0.000000,19,0.000000,24.519629,1.200337,99,99,0,0,0,0,0
9,99999,54,90000,22,0,41,9999,0.100000,99,0,0.000000,19,4.000000,31.723226,13.408682,99,99,0,0,0,0,0
9,99999,55,90000,57,50000,40,9999,0.100000,99,0,0.000000,19,0.000000,38.031171,0.085070,99,99,0,0,0,0,0
9,99999,56,90000,57,0,40,9999,0.100000,99,0,0.000000,19,0.000000,25.972409,0.660928,99,99,0,0,0,0,0
9,99999,57,90000,22,0,40,9999,0.100000,99,0,0.000000,19,0.000000,18.314382,18.350684,99,99,0,0,0,0,0
9,99999,58,90000,87,0,40,9999,0.100000,99,0,0.000000,19,0.000000,20.449056,0.539814,99,99,0,0,0,0,0
9,99999,59,90000,22,0,41,9999,0.100000,99,0,0.000000,19,2.000000,16.254230,11.363973,99,99,0,0,0,0,0
9,99999,60,90000,31,60000,44,9999,0.100000,99,0,0.000000,19,9.000000,20.736376,14.521026,99,99,0,0,0,0,0
9,99999,61,90000,86,10000,40,9999,0.100000,99,0,0.000000,19,0.000000,31.523020,0.529370,99,99,0,0,0,0,0
9,99999,62,90000,55,0,40,9999,0.100000,99,0,0.000000,19,0.000000,27.451684,0.871741,99,99,0,0,0,0,0
9,99999,63,90000,22,0,40,9999,0.100000,99,0,0.000000,19,0.000000,29.824334,3.280655,99,99,0,0,0,0,0
9,99999,64,90000,45,10000,40,9999,0.100000,99,0,0.000000,19,2.000000,25.313791,8.700203,99,99,0,0,0,0,0
9,99999,65,90000,18,50000,0,9999,0.100000,99,0,0.067713,19,0.000000,26.011916,5.332941,99,99,0,0,0,1,0
9,99999,66,90000,82,20000,42,9999,0.100000,99,0,0.000000,19,7.000000,25.363631,22.242582,99,99,0,0,0,0,0
9,99999,67,90000,82,20000,41,9999,0.100000,99,0,0.000000,19,4.000000,27.022631,22.062511,99,99,0,0,0,0,0
9,99999,68,90000,87,0,0,9999,0.100000,99,0,0.869440,19,0.000000,18.400515,0.283074,99,99,0,1,0,0,0
9,99999,69,90000,18,50000,40,9999,0.100000,99,0,0.000000,19,0.000000,23.797371,7.035416,99,99,0,0,0,0,0
9,99999,70,90000,6,10000,41,9999,0.100000,99,0,0.000000,19,3.000000,26.999999,16.849973,99,99,0,0,0,0,0
9,99999,71,90000,18,50000,40,9999,0.100000,99,0,0.000000,19,0.000000,26.261477,0.112902,99,99,0,0,0,0,0
9,99999,72,90000,55,0,0,9999,0.100000,99,0,0.061087,19,0.000000,23.491644,0.793401,99,99,0,0,0,1,0
9,99999,73,90000,31,60000,40,9999,0.100000,99,0,0.000000,19,0.000000,35.226176,0.908777,99,99,0,0,0,0,0
9,99999,74,90000,45,10000,41,9999,0.100000,99,0,0.000000,19,5.000000,24.598791,11.529111,99,99,0,0,0,0,0
9,99999,75,90000,57,20000,41,9999,0.100000,99,0,0.000000,19,2.000000,16.647784,6.614159,99,99,0,0,0,0,0
9,99999,76,90000,57,0,40,9999,0.100000,99,0,0.000000,19,0.000000,20.293972,1.627069,99,99,0,0,0,0,0
9,99999,77,90000,6,10000,40,9999,0.100000,99,0,0.000000,19,0.000000,17.476299,0.148225,99,99,0,0,0,0,0
9,99999,78,90000,91,30000,40,9999,0.100000,99,0,0.000000,19,0.000000,26.305291,2.100019,99,99,0,0,0,0,0
9,99999,79,90000,44,60000,1,9999,0.100000,99,0,4.453620,19,4.000000,28.167521,9.264367,99,99,0,0,1,0,0
9,99999,80,90000,57,50000,40,9999,0.100000,99,0,0.000000,19,2.000000,30.684300,8.693812,99,99,0,0,0,0,0
9,99999,81,90000,6,10000,44,9999,0.100000,99,0,0.000000,19,12.000000,23.642018,24.424114,99,99,0,0,0,0,0
9,99999,82,90000,91,30000,40,9999,0.100000,99,0,0.000000,19,3.000000,29.082488,9.135745,99,99,0,0,0,0,0
9,99999,83,90000,57,0,41,9999,0.100000,99,0,0.000000,19,2.000000,18.513777,11.667823,99,99,0,0,0,0,0
9,99999,84,90000,86,10000,40,9999,0.100000,99,0,0.000000,19,0.000000,25.530132,23.996373,99,99,0,0,0,0,0
9,99999,85,90000,45,10000,40,9999,0.100000,99,0,0.000000,19,1.000000,20.500679,11.618017,99,99,0,0,0,0,0
9,99999,86,90000,44,60000,40,9999,0.100000,99,0,0.000000,19,0.000000,17.673935,0.571519,99,99,0,0,0,0,0
9,99999,87,90000,57,0,41,9999,0.100000,99,0,0.000000,19,4.000000,26.214691,7.294661,99,99,0,0,0,0,0
9,99999,88,90000,55,0,40,9999,0.100000,99,0,0.000000,19,1.000000,25.787652,3.042742,99,99,0,0,0,0,0
9,99999,89,90000,57,20000,40,9999,0.100000,99,0,0.000000,19,0.000000,26.346893,0.727309,99,99,0,0,0,0,0
9,99999,90,90000,45,10000,0,9999,0.100000,99,0,0.338369,19,0.000000,24.441418,0.125112,99,99,0,0,0,0,1
9,99999,91,90000,86,10000,40,9999,0.100000,99,0,0.000000,19,0.000000,17.695440,0.322907,99,99,0,0,0,0,0
9,99999,92,90000,87,0,40,9999,0.100000,99,0,0.000000,19,1.000000,17.607476,1.741386,99,99,0,0,0,0,0
9,99999,93,90000,57,20000,41,9999,0.100000,99,0,0.000000,19,5.000000,27.404856,20.262516,99,99,0,0,0,0,0
9,99999,94,90000,6,10000,0,9999,0.100000,99,0,0.221145,19,0.000000,17.763227,0.395457,99,99,0,0,0,1,0
9,99999,95,90000,79,70000,40,9999,0.100000,99,0,0.000000,19,0.000000,26.518693,0.464814,99,99,0,0,0,0,0
9,99999,96,90000,79,70000,40,9999,0.100000,99,0,0.000000,19,0.000000,17.663059,0.443420,99,99,0,0,0,0,0
9,99999,97,90000,79,70000,40,9999,0.100000,99,0,0.000000,19,0.000000,20.761528,0.234662,99,99,0,0,0,0,0
9,99999,98,90000,57,20000,40,9999,0.100000,99,0,0.000000,19,0.000000,21.667938,1.405159,99,99,0,0,0,0,0
9,99999,99,90000,18,50000,40,9999,0.100000,99,0,0.000000,19,0.000000,23.960372,0.949725,99,99,0,0,0,0,0
10,109999,0,100000,87,0,0,9999,0.100000,99,0,0.307491,19,0.000000,20.513459,0.466214,99,99,0,0,0,0,1
10,109999,1,100000,57,20000,0,9999,0.100000,99,0,1.561661,19,0.000000,18.928720,0.514502,99,99,0,0,1,0,0
10,109999,2,100000,18,50000,40,9999,0.100000,99,0,0.000000,19,0.000000,33.290073,0.852939,99,99,0,0,0,0,0
10,109999,3,100000,31,60000,40,9999,0.100000,99,0,0.000000,19,2.000000,19.151909,6.846466,99,99,0,0,0,0,0
10,109999,4,100000,57,0,0,9999,0.100000,99,0,0.000259,19,0.000000,26.627709,0.084904,99,99,0,0,0,0,1
10,109999,5,100000,57,0,40,9999,0.100000,99,0,0.000000,19,0.000000,29.497689,0.159994,99,99,0,0,0,0,0
10,109999,6,100000,22,0,40,9999,0.100000,99,0,0.000000,19,1.000000,26.074796,4.083494,99,99,0,0,0,0,0
10,109999,7,100000,22,0,40,9999,0.100000,99,0,0.000000,19,0.000000,21.061876,0.200558,99,99,0,0,0,0,0
10,109999,8,100000,91,30000,0,9999,0.100000,99,0,0.002113,19,0.000000,25.371625,0.095625,99,99,0,0,0,1,0
10,109999,9,100000,44,60000,40,9999,0.100000,99,0,0.000000,19,0.000000,25.735554,0.481683,99,99,0,0,0,0,0
10,109999,10,100000,57,50000,40,9999,0.100000,99,0,0.000000,19,0.000000,19.121991,2.553908,99,99,0,0,0,0,0
10,109999,11,100000,57,50000,40,9999,0.100000,99,0,0.000000,19,2.000000,25.499770,12.424249,99,99,0,0,0,0,0
10,109999,12,100000,18,50000,40,9999,0.100000,99,0,0.000000,19,0.000000,22.165557,0.504514,99,99,0,0,0,0,0
10,109999,13,100000,79,70000,40,9999,0.100000,99,0,0.000000,19,0.000000,26.090526,0.200332,99,99,0,0,0,0,0
10,109999,14,100000,55,0,40,9999,0.100000,99,0,0.000000,19,0.000000,25.347201,0.307457,99,99,0,0,0,0,0
10,109999,15,100000,44,60000,0,9999,0.100000,99,0,0.011794,19,0.000000,25.382113,0.569523,99,99,0,0,0,0,1
10,109999,16,100000,79,70000,41,9999,0.100000,99,0,0.000000,19,5.000000,29.882992,16.562553,99,99,0,0,0,0,0
10,109999,17,100000,22,0,41,9999,0.100000,99,0,0.000000,19,4.000000,25.058390,14.720904,99,99,0,0,0,0,0
10,109999,18,100000,91,30000,40,9999,0.100000,99,0,0.000000,19,3.000000,31.856013,7.191255,99,99,0,0,0,0,0
10,109999,19,100000,39,10000,40,9999,0.100000,99,0,0.000000,19,0.000000,20.123254,0.899647,99,99,0,0,0,0,0
10,109999,20,100000,57,0,40,9999,0.100000,99,0,0.000000,19,0.000000,29.572441,0.161355,99,99,0,0,0,0,0
10,109999,21,100000,45,10000,41,9999,0.100000,99,0,0.000000,19,4.000000,29.395808,9.265728,99,99,0,0,0,0,0
10,109999,22,100000,79,70000,40,9999,0.100000,99,0,0.000000,19,1.000000,25.033692,4.076037,99,99,0,0,0,0,0
10,109999,23,100000,39,10000,40,9999,0.100000,99,0,0.000000,19,0.000000,10.612194,0.608231,99,99,0,0,0,0,0
10,109999,24,100000,18,50000,40,9999,0.100000,99,0,0.000000,19,0.000000,34.079075,0.231888,99,99,0,0,0,0,0
10,109999,25,100000,86,10000,41,9999,0.100000,99,0,0.000000,19,4.000000,27.317449,16.797721,99,99,0,0,0,0,0
10,109999,26,100000,57,20000,40,9999,0.100000,99,0,0.000000,19,0.000000,22.354886,0.363135,99,99,0,0,0,0,0
10,109999,27,100000,22,0,40,9999,0.100000,99,0,0.000000,19,1.000000,25.423086,6.579066,99,99,0,0,0,0,0
10,109999,28,100000,2,20000,0,9999,0.100000,99,0,5.080464,19,1.000000,25.651363,2.240649,99,99,0,1,0,0,0
10,109999,29,100000,86,10000,40,9999,0.100000,99,0,0.000000,19,0.000000,18.063101,1.391564,99,99,0,0,0,0,0
10,109999,30,100000,18,50000,40,9999,0.100000,99,0,0.000000,19,0.000000,20.303025,1.344230,99,99,0,0,0,0,0
10,109999,31,100000,57,0,40,9999,0.100000,99,0,0.000000,19,0.000000,32.298370,6.593050,99,99,0,0,0,0,0
10,109999,32,100000,39,10000,40,9999,0.100000,99,0,0.000000,19,1.000000,26.360376,8.197684,99,99,0,0,0,0,0
10,109999,33,100000,22,0,40,9999,0.100000,99,0,0.000000,19,0.000000,22.734520,0.728535,99,99,0,0,0,0,0
10,109999,34,100000,57,50000,40,9999,0.100000,99,0,0.000000,19,1.000000,21.065035,5.603222,99,99,0,0,0,0,0
10,109999,35,100000,31,60000,40,9999,0.100000,99,0,0.000000,19,0.000000,26.138810,0.095385,99,99,0,0,0,0,0
10,109999,36,100000,11,0,40,9999,0.100000,99,0,0.000000,19,0.000000,26.348305,0.098157,99,99,0,0,0,0,0
10,109999,37,100000,2,20000,40,9999,0.100000,99,0,0.000000,19,2.000000,25.331160,17.858586,99,99,0,0,0,0,0
10,109999,38,100000,79,70000,40,9999,0.100000,99,0,0.000000,19,0.000000,34.753687,1.419663,99,99,0,0,0,0,0
10,109999,39,100000,55,0,40,9999,0.100000,99,0,0.000000,19,0.000000,10.561135,0.176703,99,99,0,0,0,0,0
10,109999,40,100000,2,20000,40,9999,0.100000,99,0,0.000000,19,0.000000,31.533557,0.687099,99,99,0,0,0,0,0
10,109999,41,100000,57,20000,0,9999,0.100000,99,0,0.407102,19,2.000000,19.568961,7.151709,99,99,0,0,0,0,1
10,109999,42,100000,24,0,0,9999,0.100000,99,0,0.075458,19,0.000000,17.421365,0.375014,99,99,0,0,1,0,0
10,109999,43,100000,22,0,1,9999,0.100000,99,0,0.823938,19,3.000000,27.472326,3.678496,99,99,0,0,0,1,0
10,109999,44,100000,18,50000,41,9999,0.100000,99,0,0.000000,19,7.000000,33.577977,24.051853,99,99,0,0,0,0,0
10,109999,45,100000,24,0,40,9999,0.100000,99,0,0.000000,19,2.000000,26.937899,2.913274,99,99,0,0,0,0,0
10,109999,46,100000,18,50000,40,9999,0.100000,99,0,0.000000,19,0.000000,18.219435,2.830286,99,99,0,0,0,0,0
10,109999,47,100000,24,0,40,9999,0.100000,99,0,0.000000,19,0.000000,22.547541,0.372145,99,99,0,0,0,0,0
10,109999,48,100000,31,60000,40,9999,0.100000,99,0,0.000000,19,2.000000,27.285973,3.393764,99,99,0,0,0,0,0
10,109999,49,100000,57,0,40,9999,0.100000,99,0,0.000000,19,1.000000,30.318258,5.014558,99,99,0,0,0,0,0
10,109999,50,100000,86,10000,0,9999,0.100000,99,0,2.400041,19,1.000000,24.919747,2.484826,99,99,0,0,1,0,0
10,109999,51,100000,2,20000,40,9999,0.100000,99,0,0.000000,19,0.000000,26.539262,0.099671,99,99,0,0,0,0,0
10,109999,52,100000,86,10000,40,9999,0.100000,99,0,0.000000,19,1.000000,25.481326,2.380290,99,99,0,0,0,0,0
10,109999,53,100000,45,10000,0,9999,0.100000,99,0,0.237442,19,0.000000,24.704937,0.266477,99,99,0,0,1,0,0
10,109999,54,100000,24,0,41,9999,0.100000,99,0,0.000000,19,5.000000,27.391698,19.595751,99,99,0,0,0,0,0
10,109999,55,100000,39,10000,40,9999,0.100000,99,0,0.000000,19,0.000000,38.031142,0.086855,99,99,0,0,0,0,0
10,109999,56,100000,6,10000,40,9999,0.100000,99,0,0.000000,19,0.000000,25.917655,0.216748,99,99,0,0,0,0,0
10,109999,57,100000,57,20000,40,9999,0.100000,99,0,0.000000,19,1.000000,18.098286,2.263030,99,99,0,0,0,0,0
10,109999,58,100000,45,10000,40,9999,0.100000,99,0,0.000000,19,0.000000,20.363130,0.556045,99,99,0,0,0,0,0
10,109999,59,100000,86,10000,41,9999,0.100000,99,0,0.000000,19,2.000000,17.463868,8.725677,99,99,0,0,0,0,0
10,109999,60,100000,22,0,40,9999,0.100000,99,0,0.000000,19,1.000000,16.141290,1.338755,99,99,0,0,0,0,0
10,109999,61,100000,18,50000,40,9999,0.100000,99,0,0.000000,19,0.000000,31.447411,0.503967,99,99,0,0,0,0,0
10,109999,62,100000,82,20000,40,9999,0.100000,99,0,0.000000,19,2.000000,27.114015,3.158397,99,99,0,0,0,0,0
10,109999,63,100000,82,20000,40,9999,0.100000,99,0,0.000000,19,0.000000,29.820722,3.102037,99,99,0,0,0,0,0
10,109999,64,100000,6,10000,40,9999,0.100000,99,0,0.000000,19,0.000000,24.699091,2.318995,99,99,0,0,0,0,0
10,109999,65,100000,57,50000,0,9999,0.100000,99,0,0.381553,19,0.000000,26.317900,0.371921,99,99,0,0,0,1,0
10,109999,66,100000,87,0,42,9999,0.100000,99,0,0.000000,19,6.000000,27.831517,26.039201,99,99,0,0,0,0,0
10,109999,67,100000,11,0,42,9999,0.100000,99,0,0.000000,19,6.000000,25.621223,17.018156,99,99,0,0,0,0,0
10,109999,68,100000,79,70000,0,9999,0.100000,99,0,5.376547,19,0.000000,18.238723,1.026845,99,99,0,1,0,0,0
10,109999,69,100000,22,0,40,9999,0.100000,99,0,0.000000,19,2.000000,24.012118,13.646045,99,99,0,0,0,0,0
10,109999,70,100000,2,20000,40,9999,0.100000,99,0,0.000000,19,0.000000,25.041644,6.041024,99,99,0,0,0,0,0
10,109999,71,100000,55,0,40,9999,0.100000,99,0,0.000000,19,0.000000,26.260133,0.081773,99,99,0,0,0,0,0
10,109999,72,100000,82,20000,0,9999,0.100000,99,0,0.017633,19,0.000000,23.494893,0.729712,99,99,0,0,0,1,0
10,109999,73,100000,22,0,40,9999,0.100000,99,0,0.000000,19,0.000000,34.837937,0.808554,99,99,0,0,0,0,0
10,109999,74,100000,55,0,42,9999,0.100000,99,0,0.000000,19,7.000000,27.213937,25.557782,99,99,0,0,0,0,0
10,109999,75,100000,57,20000,40,9999,0.100000,99,0,0.000000,19,0.000000,19.164828,1.748637,99,99,0,0,0,0,0
10,109999,76,100000,22,0,40,9999,0.100000,99,0,0.000000,19,0.000000,20.233067,1.221837,99,99,0,0,0,0,0
10,109999,77,100000,86,10000,40,9999,0.100000,99,0,0.000000,19,0.000000,17.466466,0.513591,99,99,0,0,0,0,0
10,109999,78,100000,22,0,40,9999,0.100000,99,0,0.000000,19,0.000000,26.452813,1.323826,99,99,0,0,0,0,0
10,109999,79,100000,24,0,40,9999,0.100000,99,0,0.000000,19,0.000000,24.453015,0.417732,99,99,0,0,0,0,0
10,109999,80,100000,39,10000,40,9999,0.100000,99,0,0.000000,19,1.000000,32.396421,11.173531,99,99,0,0,0,0,0
10,109999,81,100000,57,0,40,9999,0.100000,99,0,0.000000,19,1.000000,35.844873,8.920103,99,99,0,0,0,0,0
10,109999,82,100000,22,0,42,9999,0.100000,99,0,0.000000,19,7.000000,30.628531,19.412941,99,99,0,0,0,0,0
10,109999,83,100000,82,20000,45,9999,0.100000,99,0,0.000000,19,9.000000,16.932918,41.291081,99,99,0,0,0,0,0
10,109999,84,100000,87,0,40,9999,0.100000,99,0,0.000000,19,0.000000,25.484630,23.993215,99,99,0,0,0,0,0
10,109999,85,100000,45,10000,41,9999,0.100000,99,0,0.000000,19,3.000000,21.903325,7.139715,99,99,0,0,0,0,0
10,109999,86,100000,57,20000,40,9999,0.100000,99,0,0.000000,19,0.000000,17.432085,0.677992,99,99,0,0,0,0,0
10,109999,87,100000,79,70000,40,9999,0.100000,99,0,0.000000,19,0.000000,26.262496,1.573778,99,99,0,0,0,0,0
10,109999,88,100000,45,10000,40,9999,0.100000,99,0,0.000000,19,1.000000,25.225944,2.673823,99,99,0,0,0,0,0
10,109999,89,100000,57,50000,40,9999,0.100000,99,0,0.000000,19,0.000000,26.484848,0.963768,99,99,0,0,0,0,0
10,109999,90,100000,44,60000,0,9999,0.100000,99,0,0.112474,19,0.000000,24.469722,0.082034,99,99,0,0,0,0,1
10,109999,91,100000,57,0,0,9999,0.100000,99,0,0.186221,19,0.000000,17.413446,0.307352,99,99,0,0,0,1,0
10,109999,92,100000,6,10000,40,9999,0.100000,99,0,0.000000,19,0.000000,18.682800,0.499830,99,99,0,0,0,0,0
10,109999,93,100000,22,0,41,9999,0.135000,99,0,0.000000,19,3.000000,28.413732,5.329248,99,99,0,0,0,0,0
10,109999,94,100000,91,30000,40,9999,0.100000,99,0,0.000000,19,0.000000,17.452473,0.526835,99,99,0,0,0,0,0
10,109999,95,100000,91,30000,40,9999,0.100000,99,0,0.000000,19,0.000000,26.660252,0.317158,99,99,0,0,0,0,0
10,109999,96,100000,22,0,40,9999,0.100000,99,0,0.000000,19,0.000000,17.406996,0.481725,99,99,0,0,0,0,0
10,109999,97,100000,24,0,40,9999,0.100000,99,0,0.000000,19,0.000000,20.695805,0.244199,99,99,0,0,0,0,0
10,109999,98,100000,57,20000,40,9999,0.100000,99,0,0.000000,19,2.000000,21.934823,9.406825,99,99,0,0,0,0,0
10,109999,99,100000,44,60000,40,9999,0.100000,99,0,0.000000,19,0.000000,24.167331,0.503703,99,99,0,0,0,0,0
11,119999,0,110000,2,20000,40,9999,0.100000,99,0,0.000000,19,2.000000,20.619826,3.946072,99,99,0,0,0,0,0
11,119999,1,110000,44,60000,0,9999,0.100000,99,0,1.684561,19,0.000000,18.835254,1.130054,99,99,0,0,1,0,0
11,119999,2,110000,91,30000,40,9999,0.100000,99,0,0.000000,19,0.000000,33.591812,0.883546,99,99,0,0,0,0,0
11,119999,3,110000,91,30000,40,9999,0.100000,99,0,0.000000,19,0.000000,19.030825,2.747228,99,99,0,0,0,0,0
11,119999,4,110000,18,50000,0,9999,0.100000,99,0,0.734152,19,0.000000,26.629429,0.417874,99,99,0,0,0,0,1
11,119999,5,110000,57,50000,40,9999,0.100000,99,0,0.000000,19,0.000000,29.416178,0.170576,99,99,0,0,0,0,0
11,119999,6,110000,2,20000,42,9999,0.100000,99,0,0.000000,19,6.000000,27.061554,9.635003,99,99,0,0,0,0,0
11,119999,7,110000,86,10000,0,9999,0.100000,99,0,0.733385,19,0.000000,21.135910,0.347253,99,99,0,0,0,0,1
11,119999,8,110000,79,70000,0,9999,0.100000,99,0,0.001372,19,0.000000,25.371540,0.095364,99,99,0,0,0,1,0
11,119999,9,110000,18,50000,0,9999,0.100000,99,0,0.235366,19,0.000000,25.837931,0.828645,99,99,0,0,0,0,1
11,119999,10,110000,87,0,40,9999,0.100000,99,0,0.000000,19,0.000000,19.035803,2.756353,99,99,0,0,0,0,0
11,119999,11,110000,57,20000,40,9999,0.100000,99,0,0.000000,19,1.000000,23.532140,4.788968,99,99,0,0,0,0,0
11,119999,12,110000,22,0,40,9999,0.100000,99,0,0.000000,19,0.000000,22.210134,0.150303,99,99,0,0,0,0,0
11,119999,13,110000,2,20000,40,9999,0.100000,99,0,0.000000,19,0.000000,26.177151,0.873360,99,99,0,0,0,0,0
11,119999,14,110000,82,20000,40,9999,0.100000,99,0,0.000000,19,0.000000,25.308518,0.318306,99,99,0,0,0,0,0
11,119999,15,110000,45,10000,40,9999,0.100000,99,0,0.000000,19,0.000000,25.529390,0.792167,99,99,0,0,0,0,0
11,119999,16,110000,57,50000,43,9999,0.100000,99,0,0.000000,19,10.000000,25.485187,17.009428,99,99,0,0,0,0,0
11,119999,17,110000,79,70000,40,9999,0.100000,99,0,0.000000,19,0.000000,28.347685,10.104451,99,99,0,0,0,0,0
11,119999,18,110000,44,60000,42,9999,0.100000,99,0,0.000000,19,8.000000,31.044490,28.684163,99,99,0,0,0,0,0
11,119999,19,110000,91,30000,40,9999,0.100000,99,0,0.000000,19,0.000000,20.326501,0.942963,99,99,0,0,0,0,0
11,119999,20,110000,11,0,40,9999,0.100000,99,0,0.000000,19,0.000000,29.490945,0.172109,99,99,0,0,0,0,0
11,119999,21,110000,44,60000,40,9999,0.100000,99,0,0.000000,19,0.000000,25.746896,1.569050,99,99,0,0,0,0,0
11,119999,22,110000,57,20000,44,9999,0.100000,99,0,0.000000,19,11.000000,24.750899,26.980627,99,99,0,0,0,0,0
11,119999,23,110000,2,20000,40,9999,0.100000,99,0,0.000000,19,0.000000,10.597686,0.620391,99,99,0,0,0,0,0
11,119999,24,110000,24,0,40,9999,0.100000,99,0,0.000000,19,0.000000,34.080355,0.244917,99,99,0,0,0,0,0
11,119999,25,110000,2,20000,40,9999,0.100000,99,0,0.000000,19,0.000000,26.880009,4.169361,99,99,0,0,0,0,0
11,119999,26,110000,87,0,40,9999,0.100000,99,0,0.000000,19,0.000000,22.358816,0.621946,99,99,0,0,0,0,0
11,119999,27,110000,86,10000,40,9999,0.100000,99,0,0.000000,19,0.000000,26.297123,8.127337,99,99,0,0,0,0,0
11,119999,28,110000,87,0,0,9999,0.100000,99,0,8.301499,19,1.000000,26.863706,2.825948,99,99,0,1,0,0,0
11,119999,29,110000,11,0,40,9999,0.100000,99,0,0.000000,19,0.000000,17.743382,5.713000,99,99,0,0,0,0,0
11,119999,30,110000,79,70000,40,9999,0.100000,99,0,0.000000,19,0.000000,20.421754,5.381651,99,99,0,0,0,0,0
11,119999,31,110000,57,50000,40,9999,0.100000,99,0,0.000000,19,0.000000,32.459066,8.374371,99,99,0,0,0,0,0
11,119999,32,110000,79,70000,41,9999,0.100000,99,0,0.000000,19,5.000000,25.882153,13.481010,99,99,0,0,0,0,0
11,119999,33,110000,57,0,0,9999,0.100000,99,0,0.222451,19,0.000000,22.651377,0.597066,99,99,0,0,0,0,1
11,119999,34,110000,39,10000,40,9999,0.100000,99,0,0.000000,19,2.000000,19.826226,8.804119,99,99,0,0,0,0,0
11,119999,35,110000,57,20000,40,9999,0.100000,99,0,0.000000,19,0.000000,26.138717,0.090722,99,99,0,0,0,0,0
11,119999,36,110000,18,50000,40,9999,0.100000,99,0,0.000000,19,0.000000,26.349278,0.340296,99,99,0,0,0,0,0
11,119999,37,110000,39,10000,40,9999,0.100000,99,0,0.000000,19,2.000000,26.441759,7.613148,99,99,0,0,0,0,0
11,119999,38,110000,45,10000,41,9999,0.100000,99,0,0.000000,19,4.000000,34.894459,10.675882,99,99,0,0,0,0,0
11,119999,39,110000,55,0,40,9999,0.100000,99,0,0.000000,19,0.000000,10.544862,0.176326,99,99,0,0,0,0,0
11,119999,40,110000,79,70000,40,9999,0.100000,99,0,0.000000,19,0.000000,31.462994,0.662527,99,99,0,0,0,0,0
11,119999,41,110000,55,0,40,9999,0.100000,99,0,0.000000,19,0.000000,22.037312,0.154897,99,99,0,0,0,0,0
11,119999,42,110000,82,20000,40,9999,0.100000,99,0,0.000000,19,0.000000,17.176966,0.365134,99,99,0,0,0,0,0
11,119999,43,110000,57,20000,40,9999,0.100000,99,0,0.000000,19,0.000000,28.129561,0.968221,99,99,0,0,0,0,0
11,119999,44,110000,18,50000,41,9999,0.100000,99,0,0.000000,19,4.000000,30.950321,13.528976,99,99,0,0,0,0,0
11,119999,45,110000,45,10000,40,9999,0.100000,99,0,0.000000,19,0.000000,27.454840,0.712477,99,99,0,0,0,0,0
11,119999,46,110000,6,10000,40,9999,0.100000,99,0,0.000000,19,1.000000,17.975053,4.089686,99,99,0,0,0,0,0
11,119999,47,110000,44,60000,40,9999,0.100000,99,0,0.000000,19,0.000000,22.504433,0.858742,99,99,0,0,0,0,0
11,119999,48,110000,39,10000,40,9999,0.100000,99,0,0.000000,19,0.000000,27.890734,0.919091,99,99,0,0,0,0,0
11,119999,49,110000,82,20000,43,9999,0.100000,99,0,0.000000,19,10.000000,30.189600,24.848030,99,99,0,0,0,0,0
11,119999,50,110000,44,60000,40,9999,0.100000,99,0,0.000000,19,1.000000,24.863673,3.457418,99,99,0,0,0,0,0
11,119999,51,110000,79,70000,40,9999,0.100000,99,0,0.000000,19,0.000000,26.540729,0.838992,99,99,0,0,0,0,0
11,119999,52,110000,6,10000,41,9999,0.100000,99,0,0.000000,19,3.000000,26.819008,15.373683,99,99,0,0,0,0,0
11,119999,53,110000,31,60000,40,9999,0.100000,99,0,0.000000,19,0.000000,24.697965,0.315638,99,99,0,0,0,0,0
11,119999,54,110000,87,0,42,9999,0.100000,99,0,0.000000,19,7.000000,27.053172,11.610144,99,99,0,0,0,0,0
11,119999,55,110000,6,10000,40,9999,0.100000,99,0,0.000000,19,0.000000,38.031182,3.164220,99,99,0,0,0,0,0
11,119999,56,110000,2,20000,40,9999,0.100000,99,0,0.000000,19,0.000000,26.017279,1.002370,99,99,0,0,0,0,0
11,119999,57,110000,6,10000,40,9999,0.100000,99,0,0.000000,19,0.000000,18.448402,0.674429,99,99,0,0,0,0,0
11,119999,58,110000,57,50000,40,9999,0.100000,99,0,0.000000,19,0.000000,20.477783,0.784797,99,99,0,0,0,0,0
11,119999,59,110000,6,10000,41,9999,0.100000,99,0,0.000000,19,2.000000,15.973213,18.849379,99,99,0,0,0,0,0
11,119999,60,110000,91,30000,40,9999,0.100000,99,0,0.000000,19,0.000000,17.102644,1.039772,99,99,0,0,0,0,0
11,119999,61,110000,2,20000,40,9999,0.100000,99,0,0.000000,19,0.000000,31.378842,0.494006,99,99,0,0,0,0,0
11,119999,62,110000,11,0,0,9999,0.100000,99,0,0.890446,19,0.000000,27.677809,0.823942,99,99,0,0,0,1,0
11,119999,63,110000,11,0,40,9999,0.100000,99,0,0.000000,19,0.000000,29.814518,3.053099,99,99,0,0,0,0,0
11,119999,64,110000,87,0,0,9999,0.100000,99,0,6.102275,19,1.000000,24.642818,3.405539,99,99,0,0,1,0,0
11,119999,65,110000,57,20000,40,9999,0.100000,99,0,0.000000,19,0.000000,26.394787,0.223799,99,99,0,0,0,0,0
11,119999,66,110000,31,60000,40,9999,0.100000,99,0,0.000000,19,1.000000,23.651377,9.098060,99,99,0,0,0,0,0
11,119999,67,110000,24,0,40,9999,0.100000,99,0,0.000000,19,1.000000,29.532913,6.378302,99,99,0,0,0,0,0
11,119999,68,110000,11,0,0,9999,0.100000,99,0,0.772882,19,0.000000,18.222073,0.560890,99,99,0,1,0,0,0
11,119999,69,110000,6,10000,42,9999,0.100000,99,0,0.000000,19,7.000000,26.923503,11.096343,99,99,0,0,0,0,0
11,119999,70,110000,18,50000,40,9999,0.100000,99,0,0.000000,19,0.000000,25.376415,3.805517,99,99,0,0,0,0,0
11,119999,71,110000,79,70000,40,9999,0.100000,99,0,0.000000,19,0.000000,26.260828,0.985204,99,99,0,0,0,0,0
11,119999,72,110000,91,30000,0,9999,0.100000,99,0,0.145450,19,0.000000,23.497970,0.208715,99,99,0,0,0,1,0
11,119999,73,110000,79,70000,41,9999,0.100000,99,0,0.000000,19,4.000000,34.981493,8.232641,99,99,0,0,0,0,0
11,119999,74,110000,87,0,41,9999,0.100000,99,0,0.000000,19,3.000000,22.421331,8.571963,99,99,0,0,0,0,0
11,119999,75,110000,24,0,40,9999,0.100000,99,0,0.000000,19,0.000000,19.081482,2.517019,99,99,0,0,0,0,0
