generation,iteration,robot,birthday,ancestor_id,ancestor_birthday,cell_id,age,sigma,maps,genomes,fitness,cells_in_map,dist_max,dist_pot_max,dist_total,com_rx,com_tx,obj_group1,obj_group2,obj_group3,obj_group4,obj_group5
0,9999,0,0,0,0,40,9999,0.100000,99,0,0.000000,0,1.000000,32.803509,6.249424,99,99,0,0,0,0,0
0,9999,1,0,1,0,0,9999,0.100000,99,0,0.660056,0,0.000000,19.183137,1.037952,99,99,0,0,0,0,1
0,9999,2,0,2,0,40,9999,0.100000,99,0,0.000000,0,2.000000,31.523011,8.334855,99,99,0,0,0,0,0
0,9999,3,0,3,0,40,9999,0.100000,99,0,0.000000,0,0.000000,25.796518,5.816309,99,99,0,0,0,0,0
0,9999,4,0,4,0,40,9999,0.100000,99,0,0.000000,0,1.000000,19.552487,7.264474,99,99,0,0,0,0,0
0,9999,5,0,5,0,0,9999,0.100000,99,0,0.338578,0,1.000000,18.005623,2.274754,99,99,0,0,0,0,1
0,9999,6,0,6,0,1,9999,0.100000,99,0,0.047398,0,3.000000,26.196605,7.845348,99,99,0,0,0,0,1
0,9999,7,0,7,0,40,9999,0.100000,99,0,0.000000,0,0.000000,24.312582,6.050577,99,99,0,0,0,0,0
0,9999,8,0,8,0,92,9999,0.100000,99,0,32.308747,0,6.000000,25.707960,19.905585,99,99,1,0,0,0,0
0,9999,9,0,9,0,1,9999,0.100000,99,0,0.000000,0,3.000000,24.339107,11.417179,99,99,0,1,0,0,0
0,9999,10,0,10,0,0,9999,0.100000,99,0,0.691448,0,2.000000,26.298466,3.654881,99,99,0,0,0,1,0
0,9999,11,0,11,0,1,9999,0.100000,99,0,23.027215,0,3.000000,22.742449,8.247051,99,99,0,1,0,0,0
0,9999,12,0,12,0,40,9999,0.100000,99,0,0.000000,0,0.000000,15.656854,6.208040,99,99,0,0,0,0,0
0,9999,13,0,13,0,40,9999,0.100000,99,0,0.000000,0,1.000000,21.537764,8.906718,99,99,0,0,0,0,0
0,9999,14,0,14,0,41,9999,0.100000,99,0,0.000000,0,3.000000,22.870120,16.380064,99,99,0,0,0,0,0
0,9999,15,0,15,0,40,9999,0.100000,99,0,0.000000,0,2.000000,31.341275,12.072846,99,99,0,0,0,0,0
0,9999,16,0,16,0,0,9999,0.100000,99,0,0.097406,0,1.000000,31.114214,3.153946,99,99,0,1,0,0,0
0,9999,17,0,17,0,40,9999,0.100000,99,0,0.000000,0,2.000000,22.467959,11.151262,99,99,0,0,0,0,0
0,9999,18,0,18,0,45,9999,0.100000,99,0,0.000000,0,13.000000,24.212670,20.198306,99,99,0,0,0,0,0
0,9999,19,0,19,0,41,9999,0.100000,99,0,0.000000,0,3.000000,27.356555,10.147546,99,99,0,0,0,0,0
0,9999,20,0,20,0,40,9999,0.100000,99,0,0.000000,0,2.000000,20.912378,7.103354,99,99,0,0,0,0,0
0,9999,21,0,21,0,42,9999,0.100000,99,0,0.000000,0,4.000000,13.909453,11.251758,99,99,0,0,0,0,0
0,9999,22,0,22,0,40,9999,0.100000,99,0,0.000000,0,3.000000,28.999474,10.338763,99,99,0,0,0,0,0
0,9999,23,0,23,0,40,9999,0.100000,99,0,0.000000,0,2.000000,24.475497,7.985367,99,99,0,0,0,0,0
0,9999,24,0,24,0,0,9999,0.100000,99,0,3.286777,0,1.000000,33.181242,3.518666,99,99,0,0,1,0,0
0,9999,25,0,25,0,40,9999,0.100000,99,0,0.000000,0,1.000000,27.976930,14.555966,99,99,0,0,0,0,0
0,9999,26,0,26,0,40,9999,0.100000,99,0,0.000000,0,1.000000,21.672618,10.688195,99,99,0,0,0,0,0
0,9999,27,0,27,0,91,9999,0.100000,99,0,17.125477,0,4.000000,25.923881,11.272760,99,99,1,0,0,0,0
0,9999,28,0,28,0,40,9999,0.100000,99,0,0.000000,0,0.000000,14.427188,8.372863,99,99,0,0,0,0,0
0,9999,29,0,29,0,40,9999,0.100000,99,0,0.000000,0,1.000000,20.104455,2.665678,99,99,0,0,0,0,0
0,9999,30,0,30,0,41,9999,0.100000,99,0,0.000000,0,3.000000,19.204890,12.255158,99,99,0,0,0,0,0
0,9999,31,0,31,0,40,9999,0.100000,99,0,0.000000,0,0.000000,29.360010,5.928670,99,99,0,0,0,0,0
0,9999,32,0,32,0,90,9999,0.100000,99,0,16.858573,0,2.000000,29.821453,11.737284,99,99,1,0,0,0,0
0,9999,33,0,33,0,40,9999,0.100000,99,0,0.000000,0,1.000000,16.129437,3.524102,99,99,0,0,0,0,0
0,9999,34,0,34,0,40,9999,0.100000,99,0,0.000000,0,1.000000,15.842089,13.334833,99,99,0,0,0,0,0
0,9999,35,0,35,0,40,9999,0.100000,99,0,0.000000,0,2.000000,27.344163,10.383951,99,99,0,0,0,0,0
0,9999,36,0,36,0,40,9999,0.100000,99,0,0.000000,0,0.000000,23.732079,11.849908,99,99,0,0,0,0,0
0,9999,37,0,37,0,40,9999,0.100000,99,0,0.000000,0,0.000000,18.832327,0.809146,99,99,0,0,0,0,0
0,9999,38,0,38,0,90,9999,0.100000,99,0,14.089467,0,3.000000,28.500000,12.106134,99,99,1,0,0,0,0
0,9999,39,0,39,0,40,9999,0.100000,99,0,0.000000,0,1.000000,26.292637,13.448060,99,99,0,0,0,0,0
0,9999,40,0,40,0,40,9999,0.100000,99,0,0.000000,0,0.000000,17.942921,7.069096,99,99,0,0,0,0,0
0,9999,41,0,41,0,40,9999,0.100000,99,0,0.000000,0,2.000000,23.730623,10.136279,99,99,0,0,0,0,0
0,9999,42,0,42,0,43,9999,0.100000,99,0,0.000000,0,9.000000,27.226143,16.979764,99,99,0,0,0,0,0
0,9999,43,0,43,0,0,9999,0.100000,99,0,0.000477,0,1.000000,11.131371,2.171748,99,99,0,0,0,1,0
0,9999,44,0,44,0,40,9999,0.100000,99,0,0.000000,0,1.000000,20.872442,10.507677,99,99,0,0,0,0,0
0,9999,45,0,45,0,40,9999,0.100000,99,0,0.000000,0,1.000000,23.388054,3.286992,99,99,0,0,0,0,0
0,9999,46,0,46,0,41,9999,0.100000,99,0,0.000000,0,3.000000,18.256513,12.168900,99,99,0,0,0,0,0
0,9999,47,0,47,0,0,9999,0.100000,99,0,2.432709,0,3.000000,31.317833,8.021609,99,99,0,0,1,0,0
0,9999,48,0,48,0,40,9999,0.100000,99,0,0.000000,0,2.000000,27.551353,13.630432,99,99,0,0,0,0,0
0,9999,49,0,49,0,42,9999,0.100000,99,0,0.000000,0,4.000000,15.215362,8.587646,99,99,0,0,0,0,0
0,9999,50,0,50,0,40,9999,0.100000,99,0,0.000000,0,1.000000,32.411604,14.022222,99,99,0,0,0,0,0
0,9999,51,0,51,0,40,9999,0.100000,99,0,0.000000,0,2.000000,25.565667,18.703435,99,99,0,0,0,0,0
0,9999,52,0,52,0,40,9999,0.100000,99,0,0.000000,0,1.000000,29.887936,4.430129,99,99,0,0,0,0,0
0,9999,53,0,53,0,92,9999,0.100000,99,0,7.188203,0,7.000000,28.061285,14.609987,99,99,1,0,0,0,0
0,9999,54,0,54,0,40,9999,0.100000,99,0,0.000000,0,2.000000,28.341211,9.157382,99,99,0,0,0,0,0
0,9999,55,0,55,0,41,9999,0.100000,99,0,0.000000,0,3.000000,26.643317,11.291101,99,99,0,0,0,0,0
0,9999,56,0,56,0,41,9999,0.100000,99,0,0.000000,0,2.000000,15.608030,13.083072,99,99,0,0,0,0,0
0,9999,57,0,57,0,97,9999,0.100000,99,0,73.861499,0,16.000000,19.701546,20.684223,99,99,1,0,0,0,0
0,9999,58,0,58,0,91,9999,0.100000,99,0,26.680104,0,4.000000,25.179592,14.515476,99,99,1,0,0,0,0
0,9999,59,0,59,0,91,9999,0.100000,99,0,17.538948,0,3.000000,21.162885,12.183528,99,99,1,0,0,0,0
0,9999,60,0,60,0,42,9999,0.100000,99,0,0.000000,0,7.000000,30.969740,23.084335,99,99,0,0,0,0,0
0,9999,61,0,61,0,40,9999,0.100000,99,0,0.000000,0,1.000000,30.961155,7.377835,99,99,0,0,0,0,0
0,9999,62,0,62,0,41,9999,0.100000,99,0,0.000000,0,4.000000,26.532695,12.570854,99,99,0,0,0,0,0
0,9999,63,0,63,0,40,9999,0.100000,99,0,0.000000,0,3.000000,31.786234,7.248037,99,99,0,0,0,0,0
0,9999,64,0,64,0,40,9999,0.100000,99,0,0.000000,0,2.000000,31.474170,9.671762,99,99,0,0,0,0,0
0,9999,65,0,65,0,40,9999,0.100000,99,0,0.000000,0,1.000000,15.315073,16.305946,99,99,0,0,0,0,0
0,9999,66,0,66,0,0,9999,0.100000,99,0,0.206608,0,2.000000,29.906029,6.896849,99,99,0,0,0,0,1
0,9999,67,0,67,0,41,9999,0.100000,99,0,0.000000,0,3.000000,23.613229,8.867772,99,99,0,0,0,0,0
0,9999,68,0,68,0,40,9999,0.100000,99,0,0.000000,0,2.000000,25.512898,10.055379,99,99,0,0,0,0,0
0,9999,69,0,69,0,41,9999,0.100000,99,0,0.000000,0,2.000000,16.074537,7.561281,99,99,0,0,0,0,0
0,9999,70,0,70,0,40,9999,0.100000,99,0,0.000000,0,0.000000,25.368799,1.720508,99,99,0,0,0,0,0
0,9999,71,0,71,0,90,9999,0.100000,99,0,10.081778,0,1.000000,22.143311,4.456993,99,99,1,0,0,0,0
0,9999,72,0,72,0,0,9999,0.100000,99,0,0.009089,0,1.000000,29.200521,2.112328,99,99,0,0,0,1,0
0,9999,73,0,73,0,41,9999,0.100000,99,0,0.000000,0,4.000000,24.322360,10.404928,99,99,0,0,0,0,0
0,9999,74,0,74,0,97,9999,0.100000,99,0,59.569770,0,11.000000,14.617359,16.052792,99,99,1,0,0,0,0
0,9999,75,0,75,0,41,9999,0.100000,99,0,0.000000,0,3.000000,25.839823,10.225725,99,99,0,0,0,0,0
0,9999,76,0,76,0,44,9999,0.100000,99,0,3.587561,0,10.000000,22.665702,15.327375,99,99,0,0,0,0,0
0,9999,77,0,77,0,93,9999,0.100000,99,0,47.304226,0,9.000000,26.164467,15.350025,99,99,1,0,0,0,0
0,9999,78,0,78,0,40,9999,0.100000,99,0,0.000000,0,0.000000,23.787313,1.439502,99,99,0,0,0,0,0
0,9999,79,0,79,0,94,9999,0.100000,99,0,36.929619,0,9.000000,18.920202,17.783410,99,99,1,0,0,0,0
0,9999,80,0,80,0,0,9999,0.100000,99,0,0.788993,0,0.000000,22.903488,1.401886,99,99,0,0,1,0,0
0,9999,81,0,81,0,92,9999,0.100000,99,0,27.033360,0,5.000000,18.962700,8.674536,99,99,1,0,0,0,0
0,9999,82,0,82,0,40,9999,0.100000,99,0,0.000000,0,1.000000,14.382921,16.352467,99,99,0,0,0,0,0
0,9999,83,0,83,0,40,9999,0.100000,99,0,0.000000,0,1.000000,32.826519,7.352824,99,99,0,0,0,0,0
0,9999,84,0,84,0,40,9999,0.100000,99,0,0.000000,0,0.000000,27.712425,1.033873,99,99,0,0,0,0,0
0,9999,85,0,85,0,0,9999,0.100000,99,0,0.207290,0,1.000000,17.017835,3.807395,99,99,0,0,0,0,1
0,9999,86,0,86,0,40,9999,0.100000,99,0,0.000000,0,2.000000,32.287440,8.610521,99,99,0,0,0,0,0
0,9999,87,0,87,0,40,9999,0.100000,99,0,0.000000,0,3.000000,32.775426,9.779236,99,99,0,0,0,0,0
0,9999,88,0,88,0,41,9999,0.100000,99,0,0.000000,0,3.000000,26.181780,8.249644,99,99,0,0,0,0,0
0,9999,89,0,89,0,92,9999,0.100000,99,0,21.122265,0,7.000000,26.154875,18.250238,99,99,1,0,0,0,0
0,9999,90,0,90,0,40,9999,0.100000,99,0,0.000000,0,1.000000,20.111874,11.805781,99,99,0,0,0,0,0
0,9999,91,0,91,0,94,9999,0.100000,99,0,63.711479,0,12.000000,25.415576,18.346674,99,99,1,0,0,0,0
0,9999,92,0,92,0,40,9999,0.100000,99,0,0.000000,0,2.000000,27.107308,10.473058,99,99,0,0,0,0,0
0,9999,93,0,93,0,40,9999,0.100000,99,0,0.000000,0,1.000000,30.171763,10.625890,99,99,0,0,0,0,0
0,9999,94,0,94,0,40,9999,0.100000,99,0,0.000000,0,0.000000,24.586638,4.349528,99,99,0,0,0,0,0
0,9999,95,0,95,0,41,9999,0.100000,99,0,0.000000,0,2.000000,18.981091,5.169105,99,99,0,0,0,0,0
0,9999,96,0,96,0,90,9999,0.100000,99,0,4.941001,0,2.000000,30.988092,8.345226,99,99,1,0,0,0,0
0,9999,97,0,97,0,40,9999,0.100000,99,0,0.000000,0,2.000000,19.394147,4.480868,99,99,0,0,0,0,0
0,9999,98,0,98,0,40,9999,0.100000,99,0,0.000000,0,1.000000,24.029255,1.629783,99,99,0,0,0,0,0
0,9999,99,0,99,0,96,9999,0.100000,99,0,84.684851,0,15.000000,21.036757,23.730104,99,99,1,0,0,0,0
1,19999,0,10000,74,0,42,9999,0.100000,99,0,0.000000,10,8.000000,34.698904,15.561287,99,99,0,0,0,0,0
1,19999,1,0,1,0,0,19999,0.100000,99,0,0.463167,1,0.000000,18.901119,0.168559,99,99,0,0,0,0,1
1,19999,2,10000,14,0,40,9999,0.100000,99,0,0.000000,4,0.000000,34.021991,0.247749,99,99,0,0,0,0,0
1,19999,3,10000,77,0,40,9999,0.100000,99,0,0.000000,9,2.000000,26.233690,7.383151,99,99,0,0,0,0,0
1,19999,4,10000,11,0,40,9999,0.100000,99,0,0.000000,11,2.000000,20.746792,6.557733,99,99,0,0,0,0,0
1,19999,5,10000,7,0,0,9999,0.100000,99,0,0.468966,2,0.000000,18.921281,0.118371,99,99,0,0,0,0,1
1,19999,6,10000,30,0,0,9999,0.100000,99,0,0.376283,10,0.000000,23.553393,0.157210,99,99,0,0,0,0,1
1,19999,7,10000,7,0,40,9999,0.100000,99,0,0.000000,2,0.000000,24.991408,7.660715,99,99,0,0,0,0,0
1,19999,8,10000,32,0,93,9999,0.100000,99,0,0.000000,9,10.000000,28.527945,10.288326,99,99,1,0,0,0,0
1,19999,9,10000,1,0,40,9999,0.100000,99,0,0.000000,3,2.000000,27.862999,7.870750,99,99,0,0,0,0,0
1,19999,10,10000,7,0,0,9999,0.100000,99,0,1.957189,9,0.000000,24.706323,0.419780,99,99,0,0,0,1,0
1,19999,11,10000,11,0,5,9999,0.100000,99,0,68.255082,3,13.000000,23.545668,14.905074,99,99,0,1,0,0,0
1,19999,12,10000,32,0,42,9999,0.100000,99,0,0.000000,10,4.000000,16.020421,15.397949,99,99,0,0,0,0,0
1,19999,13,10000,74,0,40,9999,0.100000,99,0,0.000000,10,1.000000,20.632103,3.528785,99,99,0,0,0,0,0
1,19999,14,10000,11,0,40,9999,0.100000,99,0,0.000000,4,2.000000,20.718343,7.181316,99,99,0,0,0,0,0
1,19999,15,10000,77,0,40,9999,0.100000,99,0,0.000000,11,1.000000,30.422918,2.389514,99,99,0,0,0,0,0
1,19999,16,10000,32,0,0,9999,0.100000,99,0,4.700523,9,1.000000,30.304529,1.983414,99,99,0,1,0,0,0
1,19999,17,10000,7,0,40,9999,0.100000,99,0,0.000000,4,0.000000,22.468599,1.108965,99,99,0,0,0,0,0
1,19999,18,10000,49,0,0,9999,0.100000,99,0,4.552117,10,3.000000,31.513602,12.134747,99,99,0,1,0,0,0
1,19999,19,10000,24,0,40,9999,0.100000,99,0,0.000000,11,1.000000,28.853357,2.728902,99,99,0,0,0,0,0
1,19999,20,10000,11,0,40,9999,0.100000,99,0,0.000000,10,2.000000,20.053053,7.291054,99,99,0,0,0,0,0
1,19999,21,10000,7,0,41,9999,0.100000,99,0,0.000000,5,3.000000,16.609318,7.618929,99,99,0,0,0,0,0
1,19999,22,10000,8,0,40,9999,0.100000,99,0,0.000000,10,0.000000,29.581376,16.188258,99,99,0,0,0,0,0
1,19999,23,10000,21,0,92,9999,0.100000,99,0,40.574841,5,6.000000,22.767533,13.552731,99,99,1,0,0,0,0
1,19999,24,10000,74,0,0,9999,0.100000,99,0,4.621711,10,0.000000,33.549277,1.171151,99,99,0,0,1,0,0
1,19999,25,10000,76,0,40,9999,0.100000,99,0,0.000000,10,2.000000,29.100195,5.657867,99,99,0,0,0,0,0
1,19999,26,10000,1,0,41,9999,0.100000,99,0,0.000000,5,4.000000,20.656947,11.283080,99,99,0,0,0,0,0
1,19999,27,10000,24,0,40,9999,0.100000,99,0,0.000000,10,0.000000,29.400127,8.419964,99,99,0,0,0,0,0
1,19999,28,10000,11,0,40,9999,0.100000,99,0,0.000000,5,0.000000,14.039741,5.075466,99,99,0,0,0,0,0
1,19999,29,10000,77,0,40,9999,0.100000,99,0,0.000000,10,0.000000,19.386991,0.429428,99,99,0,0,0,0,0
1,19999,30,10000,21,0,41,9999,0.100000,99,0,0.000000,5,2.000000,16.829734,10.493910,99,99,0,0,0,0,0
1,19999,31,10000,8,0,40,9999,0.100000,99,0,0.000000,10,1.000000,29.933104,8.998671,99,99,0,0,0,0,0
1,19999,32,10000,32,0,40,9999,0.100000,99,0,0.000000,6,2.000000,30.944957,9.227988,99,99,0,0,0,0,0
1,19999,33,10000,11,0,40,9999,0.100000,99,0,0.000000,10,1.000000,16.086271,5.772331,99,99,0,0,0,0,0
1,19999,34,10000,7,0,40,9999,0.100000,99,0,0.000000,11,1.000000,14.768834,5.246216,99,99,0,0,0,0,0
1,19999,35,10000,21,0,40,9999,0.100000,99,0,0.000000,6,1.000000,28.774141,8.337372,99,99,0,0,0,0,0
1,19999,36,10000,76,0,40,9999,0.100000,99,0,0.000000,10,1.000000,24.008284,5.784043,99,99,0,0,0,0,0
1,19999,37,10000,11,0,40,9999,0.100000,99,0,0.000000,6,0.000000,18.501947,0.146787,99,99,0,0,0,0,0
1,19999,38,10000,56,0,40,9999,0.100000,99,0,0.000000,10,0.000000,29.864187,6.103684,99,99,0,0,0,0,0
1,19999,39,10000,74,0,40,9999,0.100000,99,0,0.000000,10,2.000000,26.527760,10.856231,99,99,0,0,0,0,0
1,19999,40,10000,11,0,41,9999,0.100000,99,0,0.000000,10,2.000000,18.202861,11.553664,99,99,0,0,0,0,0
1,19999,41,10000,76,0,40,9999,0.100000,99,0,0.000000,10,0.000000,25.155986,4.635508,99,99,0,0,0,0,0
1,19999,42,10000,8,0,40,9999,0.100000,99,0,0.000000,10,0.000000,33.257549,1.048557,99,99,0,0,0,0,0
1,19999,43,10000,8,0,0,9999,0.100000,99,0,0.844288,10,0.000000,12.371210,0.158704,99,99,0,0,0,1,0
1,19999,44,10000,30,0,41,9999,0.100000,99,0,0.000000,6,3.000000,22.016054,10.515821,99,99,0,0,0,0,0
1,19999,45,10000,24,0,0,9999,0.100000,99,0,2.748413,10,0.000000,22.075490,0.811178,99,99,0,0,1,0,0
1,19999,46,10000,24,0,40,9999,0.100000,99,0,0.000000,10,0.000000,17.606492,1.282613,99,99,0,0,0,0,0
1,19999,47,10000,77,0,0,9999,0.100000,99,0,0.096553,10,0.000000,29.519645,0.324598,99,99,0,0,1,0,0
1,19999,48,10000,77,0,40,9999,0.100000,99,0,0.000000,10,0.000000,25.574463,4.890813,99,99,0,0,0,0,0
1,19999,49,10000,49,0,40,9999,0.100000,99,0,0.000000,6,0.000000,18.305747,0.370412,99,99,0,0,0,0,0
1,19999,50,10000,76,0,40,9999,0.100000,99,0,0.000000,10,1.000000,32.308430,7.350078,99,99,0,0,0,0,0
1,19999,51,10000,11,0,40,9999,0.100000,99,0,0.000000,10,1.000000,26.711840,2.835827,99,99,0,0,0,0,0
1,19999,52,10000,32,0,41,9999,0.100000,99,0,0.000000,11,4.000000,30.324117,12.110140,99,99,0,0,0,0,0
1,19999,53,10000,24,0,40,9999,0.100000,99,0,0.000000,10,2.000000,21.909482,13.162201,99,99,0,0,0,0,0
1,19999,54,10000,77,0,41,9999,0.100000,99,0,0.000000,10,3.000000,26.242292,4.613604,99,99,0,0,0,0,0
1,19999,55,10000,32,0,40,9999,0.100000,99,0,0.000000,11,1.000000,25.944731,11.485982,99,99,0,0,0,0,0
1,19999,56,10000,32,0,40,9999,0.100000,99,0,0.000000,10,1.000000,15.445508,12.336248,99,99,0,0,0,0,0
1,19999,57,10000,8,0,40,9999,0.100000,99,0,0.000000,11,0.000000,30.604372,7.613901,99,99,0,0,0,0,0
1,19999,58,10000,32,0,41,9999,0.100000,99,0,0.000000,10,3.000000,26.157109,13.202651,99,99,0,0,0,0,0
1,19999,59,10000,11,0,40,9999,0.100000,99,0,0.000000,7,2.000000,22.239308,8.401766,99,99,0,0,0,0,0
1,19999,60,10000,8,0,40,9999,0.100000,99,0,0.000000,11,0.000000,24.660594,17.912326,99,99,0,0,0,0,0
1,19999,61,10000,42,0,40,9999,0.100000,99,0,0.000000,10,3.000000,31.543883,13.353742,99,99,0,0,0,0,0
1,19999,62,10000,7,0,5,9999,0.100000,99,0,68.254314,11,13.000000,23.265796,15.601866,99,99,0,1,0,0,0
1,19999,63,10000,49,0,40,9999,0.100000,99,0,0.000000,7,0.000000,33.302899,1.063810,99,99,0,0,0,0,0
1,19999,64,10000,7,0,40,9999,0.100000,99,0,0.000000,10,1.000000,30.939178,5.810817,99,99,0,0,0,0,0
1,19999,65,10000,56,0,96,9999,0.100000,99,0,52.824602,10,11.000000,17.097115,18.647534,99,99,1,0,0,0,0
1,19999,66,10000,30,0,40,9999,0.100000,99,0,0.000000,7,0.000000,28.272029,0.075409,99,99,0,0,0,0,0
1,19999,67,10000,42,0,40,9999,0.100000,99,0,0.000000,11,0.000000,20.609463,5.515104,99,99,0,0,0,0,0
1,19999,68,10000,74,0,40,9999,0.100000,99,0,0.000000,10,1.000000,24.481318,4.487214,99,99,0,0,0,0,0
1,19999,69,10000,49,0,40,9999,0.100000,99,0,0.000000,7,0.000000,16.688727,1.400411,99,99,0,0,0,0,0
1,19999,70,10000,7,0,40,9999,0.100000,99,0,0.000000,11,0.000000,24.700771,1.854866,99,99,0,0,0,0,0
1,19999,71,10000,11,0,0,9999,0.100000,99,0,0.317735,10,0.000000,23.397497,1.362320,99,99,0,0,0,1,0
1,19999,72,10000,32,0,0,9999,0.100000,99,0,1.260352,7,0.000000,28.070418,0.404658,99,99,0,0,0,1,0
1,19999,73,10000,11,0,40,9999,0.100000,99,0,0.000000,11,1.000000,28.249183,7.392272,99,99,0,0,0,0,0
1,19999,74,10000,74,0,90,9999,0.100000,99,0,13.370991,8,2.000000,26.293131,14.632294,99,99,1,0,0,0,0
1,19999,75,10000,24,0,40,9999,0.100000,99,0,0.000000,11,1.000000,27.374536,14.732120,99,99,0,0,0,0,0
1,19999,76,10000,32,0,40,9999,0.100000,99,0,0.000000,10,1.000000,30.938993,8.986899,99,99,0,0,0,0,0
1,19999,77,10000,7,0,90,9999,0.100000,99,0,9.476486,9,2.000000,32.779100,5.465061,99,99,1,0,0,0,0
1,19999,78,10000,56,0,40,9999,0.100000,99,0,0.000000,11,0.000000,24.240555,2.881514,99,99,0,0,0,0,0
1,19999,79,10000,32,0,40,9999,0.100000,99,0,0.000000,9,0.000000,28.019139,6.541260,99,99,0,0,0,0,0
1,19999,80,10000,77,0,40,9999,0.100000,99,0,0.000000,10,0.000000,22.418432,0.634943,99,99,0,0,0,0,0
1,19999,81,10000,32,0,93,9999,0.100000,99,0,42.927487,9,8.000000,22.415404,14.039288,99,99,1,0,0,0,0
1,19999,82,10000,76,0,40,9999,0.100000,99,0,0.000000,10,1.000000,14.350453,8.330378,99,99,0,0,0,0,0
1,19999,83,10000,11,0,40,9999,0.100000,99,0,0.000000,9,0.000000,34.183443,0.246389,99,99,0,0,0,0,0
1,19999,84,10000,24,0,0,9999,0.100000,99,0,0.001104,10,0.000000,28.149159,0.130073,99,99,0,0,0,0,1
1,19999,85,10000,74,0,0,9999,0.100000,99,0,0.681092,9,0.000000,16.824362,0.840538,99,99,0,0,0,0,1
1,19999,86,10000,74,0,40,9999,0.100000,99,0,0.000000,10,0.000000,33.670860,3.222376,99,99,0,0,0,0,0
1,19999,87,10000,8,0,40,9999,0.100000,99,0,0.000000,11,1.000000,29.330809,23.843925,99,99,0,0,0,0,0
1,19999,88,10000,74,0,40,9999,0.100000,99,0,0.000000,9,0.000000,29.541280,0.329862,99,99,0,0,0,0,0
1,19999,89,10000,49,0,40,9999,0.100000,99,0,0.000000,9,0.000000,27.739820,0.978371,99,99,0,0,0,0,0
1,19999,90,10000,56,0,40,9999,0.100000,99,0,0.000000,11,1.000000,21.371965,8.610767,99,99,0,0,0,0,0
1,19999,91,10000,7,0,41,9999,0.100000,99,0,0.000000,10,5.000000,32.572034,10.226360,99,99,0,0,0,0,0
1,19999,92,10000,1,0,40,9999,0.100000,99,0,0.000000,9,0.000000,29.835734,1.048509,99,99,0,0,0,0,0
1,19999,93,10000,76,0,40,9999,0.100000,99,0,0.000000,10,0.000000,31.050416,9.525791,99,99,0,0,0,0,0
1,19999,94,10000,91,0,40,9999,0.100000,99,0,0.000000,11,2.000000,23.877702,8.615373,99,99,0,0,0,0,0
1,19999,95,10000,91,0,40,9999,0.100000,99,0,0.000000,11,0.000000,17.616810,0.786190,99,99,0,0,0,0,0
1,19999,96,10000,1,0,1,9999,0.100000,99,0,4.476797,9,4.000000,32.064408,10.711177,99,99,0,1,0,0,0
1,19999,97,10000,77,0,40,9999,0.100000,99,0,0.000000,10,0.000000,19.992844,1.625751,99,99,0,0,0,0,0
1,19999,98,10000,49,0,40,9999,0.100000,99,0,0.000000,9,0.000000,24.164822,0.188584,99,99,0,0,0,0,0
1,19999,99,10000,76,0,40,9999,0.100000,99,0,0.000000,11,2.000000,30.855960,6.971665,99,99,0,0,0,0,0
2,29999,0,20000,91,0,0,9999,0.100000,99,0,0.157294,12,1.000000,27.129514,3.503746,99,99,0,0,0,0,1
2,29999,1,20000,7,0,0,9999,0.100000,99,0,0.062431,11,0.000000,18.806270,0.112115,99,99,0,0,0,0,1
2,29999,2,20000,56,0,40,9999,0.100000,99,0,0.000000,12,0.000000,34.022348,0.226451,99,99,0,0,0,0,0
2,29999,3,20000,11,0,40,9999,0.100000,99,0,0.000000,12,0.000000,28.590138,6.730326,99,99,0,0,0,0,0
2,29999,4,20000,42,0,0,9999,0.100000,99,0,1.992256,12,0.000000,22.919532,0.860809,99,99,0,0,0,1,0
2,29999,5,20000,7,0,0,9999,0.100000,99,0,0.460029,11,0.000000,18.861625,0.782721,99,99,0,0,0,0,1
2,29999,6,20000,99,0,0,9999,0.100000,99,0,0.617642,12,0.000000,23.551995,0.122408,99,99,0,0,0,0,1
2,29999,7,20000,24,10000,40,9999,0.100000,99,0,0.000000,11,1.000000,25.080014,13.892873,99,99,0,0,0,0,0
2,29999,8,20000,42,0,40,9999,0.100000,99,0,0.000000,11,0.000000,37.170626,0.110451,99,99,0,0,0,0,0
2,29999,9,20000,77,0,41,9999,0.100000,99,0,0.000000,11,4.000000,25.304729,13.680755,99,99,0,0,0,0,0
2,29999,10,20000,91,0,40,9999,0.100000,99,0,0.000000,11,0.000000,24.445164,0.299733,99,99,0,0,0,0,0
2,29999,11,20000,77,0,40,9999,0.100000,99,0,0.000000,12,1.000000,32.190615,12.636036,99,99,0,0,0,0,0
2,29999,12,20000,16,10000,40,9999,0.100000,99,0,0.000000,12,0.000000,16.007904,21.181865,99,99,0,0,0,0,0
2,29999,13,20000,91,0,40,9999,0.100000,99,0,0.000000,12,0.000000,18.691892,0.264607,99,99,0,0,0,0,0
2,29999,14,20000,32,0,40,9999,0.100000,99,0,0.000000,12,1.000000,20.742350,12.323239,99,99,0,0,0,0,0
2,29999,15,20000,32,0,0,9999,0.100000,99,0,1.911224,12,0.000000,29.940905,1.807106,99,99,0,1,0,0,0
2,29999,16,20000,11,0,40,9999,0.100000,99,0,0.000000,11,0.000000,30.064992,11.073955,99,99,0,0,0,0,0
2,29999,17,20000,32,0,40,9999,0.100000,99,0,0.000000,12,0.000000,21.742454,1.090317,99,99,0,0,0,0,0
2,29999,18,20000,99,0,40,9999,0.100000,99,0,0.000000,12,0.000000,29.827251,4.954687,99,99,0,0,0,0,0
2,29999,19,20000,99,0,40,9999,0.100000,99,0,0.000000,11,0.000000,28.199334,0.652108,99,99,0,0,0,0,0
2,29999,20,20000,56,0,41,9999,0.100000,99,0,0.000000,11,3.000000,22.069236,12.714806,99,99,0,0,0,0,0
2,29999,21,20000,7,0,0,9999,0.100000,99,0,0.001890,12,0.000000,13.077794,0.942088,99,99,0,0,0,1,0
2,29999,22,20000,7,0,40,9999,0.100000,99,0,0.000000,12,0.000000,29.737103,4.675903,99,99,0,0,0,0,0
2,29999,23,20000,77,0,90,9999,0.100000,99,0,4.436865,11,1.000000,28.809751,9.606775,99,99,1,0,0,0,0
2,29999,24,20000,99,0,40,9999,0.100000,99,0,0.000000,11,2.000000,33.079466,5.247305,99,99,0,0,0,0,0
2,29999,25,20000,77,0,40,9999,0.100000,99,0,0.000000,11,2.000000,26.729880,8.053907,99,99,0,0,0,0,0
2,29999,26,20000,42,0,40,9999,0.100000,99,0,0.000000,12,0.000000,19.111381,0.092945,99,99,0,0,0,0,0
2,29999,27,20000,7,0,40,9999,0.100000,99,0,0.000000,12,1.000000,29.578082,14.242029,99,99,0,0,0,0,0
2,29999,28,20000,91,0,40,9999,0.100000,99,0,0.000000,12,1.000000,14.408211,10.705802,99,99,0,0,0,0,0
2,29999,29,20000,76,0,41,9999,0.100000,99,0,0.000000,12,3.000000,19.290248,7.163541,99,99,0,0,0,0,0
2,29999,30,20000,42,0,91,9999,0.100000,99,0,21.305622,12,4.000000,19.305513,22.653160,99,99,1,0,0,0,0
2,29999,31,20000,32,0,40,9999,0.100000,99,0,0.000000,12,1.000000,31.637504,9.859946,99,99,0,0,0,0,0
2,29999,32,20000,11,0,40,9999,0.100000,99,0,0.000000,12,1.000000,29.320854,9.265822,99,99,0,0,0,0,0
2,29999,33,20000,11,0,40,9999,0.100000,99,0,0.000000,12,0.000000,14.998373,3.918777,99,99,0,0,0,0,0
2,29999,34,20000,76,0,40,9999,0.100000,99,0,0.000000,12,1.000000,14.378274,6.730827,99,99,0,0,0,0,0
2,29999,35,20000,16,10000,40,9999,0.100000,99,0,0.000000,11,0.000000,28.307542,1.130752,99,99,0,0,0,0,0
2,29999,36,20000,99,0,41,9999,0.100000,99,0,0.000000,12,3.000000,24.399709,18.971624,99,99,0,0,0,0,0
2,29999,37,20000,91,0,40,9999,0.100000,99,0,0.000000,11,0.000000,18.407176,0.269435,99,99,0,0,0,0,0
2,29999,38,20000,76,0,40,9999,0.100000,99,0,0.000000,12,2.000000,29.941245,5.287300,99,99,0,0,0,0,0
2,29999,39,20000,16,10000,40,9999,0.100000,99,0,0.000000,12,1.000000,26.268134,7.725774,99,99,0,0,0,0,0
2,29999,40,20000,99,0,40,9999,0.100000,99,0,0.000000,12,1.000000,19.478893,7.008101,99,99,0,0,0,0,0
2,29999,41,20000,7,0,40,9999,0.100000,99,0,0.000000,12,1.000000,25.060721,8.571790,99,99,0,0,0,0,0
2,29999,42,20000,11,10000,40,9999,0.100000,99,0,0.000000,12,0.000000,33.093706,0.633655,99,99,0,0,0,0,0
2,29999,43,20000,11,0,40,9999,0.100000,99,0,0.000000,12,0.000000,12.462342,0.464995,99,99,0,0,0,0,0
2,29999,44,20000,32,0,42,9999,0.100000,99,0,0.000000,12,6.000000,19.016762,7.730176,99,99,0,0,0,0,0
2,29999,45,20000,56,0,0,9999,0.100000,99,0,2.667061,12,0.000000,21.486852,0.932858,99,99,0,0,1,0,0
2,29999,46,20000,76,0,40,9999,0.100000,99,0,0.000000,12,0.000000,17.614747,0.959342,99,99,0,0,0,0,0
2,29999,47,20000,56,0,40,9999,0.100000,99,0,0.000000,12,0.000000,29.531007,0.645058,99,99,0,0,0,0,0
2,29999,48,20000,32,0,41,9999,0.100000,99,0,0.000000,12,4.000000,25.802461,15.710191,99,99,0,0,0,0,0
2,29999,49,20000,32,0,40,9999,0.100000,99,0,0.000000,12,0.000000,18.195489,0.405631,99,99,0,0,0,0,0
2,29999,50,20000,7,0,0,9999,0.100000,99,0,0.074178,12,0.000000,32.188754,2.308966,99,99,0,0,1,0,0
2,29999,51,20000,77,0,40,9999,0.100000,99,0,0.000000,12,0.000000,27.586783,0.565127,99,99,0,0,0,0,0
2,29999,52,20000,99,0,40,9999,0.100000,99,0,0.000000,12,1.000000,28.686253,7.893732,99,99,0,0,0,0,0
2,29999,53,20000,7,0,41,9999,0.100000,99,0,0.000000,12,3.000000,19.578376,8.597344,99,99,0,0,0,0,0
2,29999,54,20000,7,0,40,9999,0.100000,99,0,0.000000,12,2.000000,29.715283,6.470125,99,99,0,0,0,0,0
2,29999,55,20000,76,0,40,9999,0.100000,99,0,0.000000,11,1.000000,26.560945,5.126802,99,99,0,0,0,0,0
2,29999,56,20000,56,0,42,9999,0.100000,99,0,0.000000,12,4.000000,17.220289,14.661703,99,99,0,0,0,0,0
2,29999,57,20000,76,0,40,9999,0.100000,99,0,0.000000,12,3.000000,31.494482,6.314009,99,99,0,0,0,0,0
2,29999,58,20000,76,0,40,9999,0.100000,99,0,0.000000,11,0.000000,23.829186,4.012201,99,99,0,0,0,0,0
2,29999,59,20000,11,0,40,9999,0.100000,99,0,0.000000,12,0.000000,20.554448,3.469386,99,99,0,0,0,0,0
2,29999,60,20000,42,0,0,9999,0.100000,99,0,0.911361,12,0.000000,24.589312,9.900254,99,99,0,0,0,1,0
2,29999,61,20000,23,10000,40,9999,0.100000,99,0,0.000000,12,0.000000,31.654230,0.949873,99,99,0,0,0,0,0
2,29999,62,20000,77,0,40,9999,0.100000,99,0,0.000000,12,1.000000,32.119850,8.448396,99,99,0,0,0,0,0
2,29999,63,20000,11,0,40,9999,0.100000,99,0,0.000000,12,2.000000,32.644981,4.335239,99,99,0,0,0,0,0
2,29999,64,20000,11,0,40,9999,0.100000,99,0,0.000000,12,1.000000,31.294091,5.555526,99,99,0,0,0,0,0
2,29999,65,20000,32,0,40,9999,0.100000,99,0,0.000000,12,0.000000,28.020021,6.968439,99,99,0,0,0,0,0
2,29999,66,20000,11,0,40,9999,0.100000,99,0,0.000000,12,0.000000,28.268160,0.106508,99,99,0,0,0,0,0
2,29999,67,20000,11,0,40,9999,0.100000,99,0,0.000000,11,0.000000,20.734708,1.102508,99,99,0,0,0,0,0
2,29999,68,20000,42,0,40,9999,0.100000,99,0,0.000000,12,0.000000,23.784181,0.151110,99,99,0,0,0,0,0
2,29999,69,20000,23,10000,40,9999,0.100000,99,0,0.000000,12,0.000000,16.771552,3.889785,99,99,0,0,0,0,0
2,29999,70,20000,77,0,40,9999,0.100000,99,0,0.000000,12,0.000000,24.470023,0.429666,99,99,0,0,0,0,0
2,29999,71,20000,23,10000,40,9999,0.100000,99,0,0.000000,12,0.000000,23.415991,0.974717,99,99,0,0,0,0,0
2,29999,72,20000,11,0,0,9999,0.100000,99,0,1.243239,11,0.000000,27.856133,0.383720,99,99,0,0,0,1,0
2,29999,73,20000,76,0,40,9999,0.100000,99,0,0.000000,12,2.000000,28.062984,6.593010,99,99,0,0,0,0,0
2,29999,74,20000,11,10000,40,9999,0.100000,99,0,0.000000,12,0.000000,25.635000,5.043630,99,99,0,0,0,0,0
2,29999,75,20000,7,0,41,9999,0.100000,99,0,0.000000,12,3.000000,27.503588,8.067617,99,99,0,0,0,0,0
2,29999,76,20000,56,0,40,9999,0.100000,99,0,0.000000,12,1.000000,30.467173,10.830631,99,99,0,0,0,0,0
2,29999,77,20000,32,0,41,9999,0.100000,99,0,0.000000,12,4.000000,34.534823,24.289451,99,99,0,0,0,0,0
2,29999,78,20000,77,0,40,9999,0.100000,99,0,0.000000,12,0.000000,24.211492,0.545503,99,99,0,0,0,0,0
2,29999,79,20000,56,0,41,9999,0.065000,99,0,0.000000,11,4.000000,27.136508,10.536904,99,99,0,0,0,0,0
2,29999,80,20000,11,10000,40,9999,0.100000,99,0,0.000000,12,0.000000,21.931099,0.736677,99,99,0,0,0,0,0
2,29999,81,20000,99,0,40,9999,0.100000,99,0,0.000000,12,0.000000,29.504911,6.308993,99,99,0,0,0,0,0
2,29999,82,20000,16,10000,42,9999,0.100000,99,0,0.000000,12,4.000000,15.968825,14.157565,99,99,0,0,0,0,0
2,29999,83,20000,56,0,40,9999,0.100000,99,0,0.000000,11,0.000000,34.184614,0.241713,99,99,0,0,0,0,0
2,29999,84,20000,76,0,40,9999,0.100000,99,0,0.000000,12,0.000000,28.145292,0.140474,99,99,0,0,0,0,0
2,29999,85,20000,11,10000,40,9999,0.100000,99,0,0.000000,12,0.000000,16.910524,0.840284,99,99,0,0,0,0,0
2,29999,86,20000,16,10000,40,9999,0.100000,99,0,0.000000,11,2.000000,33.219220,8.029517,99,99,0,0,0,0,0
2,29999,87,20000,77,0,40,9999,0.100000,99,0,0.000000,12,0.000000,28.525590,23.741841,99,99,0,0,0,0,0
2,29999,88,20000,7,0,0,9999,0.100000,99,0,1.507703,12,0.000000,29.591485,0.841648,99,99,0,0,1,0,0
2,29999,89,20000,16,10000,40,9999,0.100000,99,0,0.000000,12,0.000000,26.993533,1.028948,99,99,0,0,0,0,0
2,29999,90,20000,77,0,40,9999,0.100000,99,0,0.000000,12,0.000000,23.170891,4.558338,99,99,0,0,0,0,0
2,29999,91,20000,11,0,40,9999,0.100000,99,0,0.000000,12,0.000000,29.697808,4.660228,99,99,0,0,0,0,0
2,29999,92,20000,77,0,40,9999,0.100000,99,0,0.000000,12,0.000000,29.895757,1.041339,99,99,0,0,0,0,0
2,29999,93,20000,32,0,40,9999,0.100000,99,0,0.000000,12,0.000000,30.772405,5.385014,99,99,0,0,0,0,0
2,29999,94,20000,11,10000,40,9999,0.100000,99,0,0.000000,12,2.000000,22.405704,5.849795,99,99,0,0,0,0,0
2,29999,95,20000,7,0,0,9999,0.100000,99,0,0.198318,12,0.000000,17.637224,0.658644,99,99,0,0,0,0,1
2,29999,96,20000,23,10000,40,9999,0.100000,99,0,0.000000,11,1.000000,28.730196,9.000691,99,99,0,0,0,0,0
2,29999,97,20000,11,0,40,9999,0.100000,99,0,0.000000,12,2.000000,19.331079,8.662389,99,99,0,0,0,0,0
2,29999,98,20000,76,0,40,9999,0.100000,99,0,0.000000,12,0.000000,24.167251,0.182425,99,99,0,0,0,0,0
2,29999,99,20000,23,10000,90,9999,0.100000,99,0,1.253977,12,1.000000,29.231986,7.737505,99,99,1,0,0,0,0
3,39999,0,30000,76,0,0,9999,0.100000,99,0,0.473265,12,0.000000,28.052411,0.162834,99,99,0,0,0,0,1
3,39999,1,30000,7,0,0,9999,0.100000,99,0,0.339493,12,0.000000,18.785509,0.108615,99,99,0,0,0,0,1
3,39999,2,30000,99,0,40,9999,0.100000,99,0,0.000000,12,0.000000,34.023880,0.238078,99,99,0,0,0,0,0
3,39999,3,30000,76,0,40,9999,0.100000,99,0,0.000000,12,2.000000,28.380571,5.433849,99,99,0,0,0,0,0
3,39999,4,30000,99,0,0,9999,0.100000,99,0,0.000040,12,0.000000,22.973297,0.161519,99,99,0,0,0,1,0
3,39999,5,30000,42,0,0,9999,0.100000,99,0,0.329317,12,0.000000,18.739144,0.150573,99,99,0,0,0,0,1
3,39999,6,30000,99,0,0,9999,0.100000,99,0,0.472881,12,0.000000,23.557299,0.111366,99,99,0,0,0,0,1
3,39999,7,30000,56,0,40,9999,0.100000,99,0,0.000000,12,1.000000,24.469435,10.159387,99,99,0,0,0,0,0
3,39999,8,30000,7,0,40,9999,0.100000,99,0,0.000000,12,0.000000,37.172818,0.108197,99,99,0,0,0,0,0
3,39999,9,30000,11,10000,40,9999,0.100000,99,0,0.000000,12,0.000000,24.031928,4.854320,99,99,0,0,0,0,0
3,39999,10,30000,99,0,0,9999,0.100000,99,0,1.403564,12,0.000000,24.198271,0.252575,99,99,0,0,0,1,0
3,39999,11,30000,91,0,40,9999,0.100000,99,0,0.000000,12,1.000000,31.315798,7.680660,99,99,0,0,0,0,0
3,39999,12,30000,32,0,40,9999,0.100000,99,0,0.000000,12,0.000000,16.819091,4.468293,99,99,0,0,0,0,0
3,39999,13,30000,79,20000,40,9999,0.065000,99,0,0.000000,12,0.000000,18.544682,1.660282,99,99,0,0,0,0,0
3,39999,14,30000,99,0,41,9999,0.100000,99,0,0.000000,12,3.000000,19.864019,13.041809,99,99,0,0,0,0,0
3,39999,15,30000,56,20000,0,9999,0.100000,99,0,18.748538,12,3.000000,30.668922,12.313675,99,99,0,1,0,0,0
3,39999,16,30000,99,0,40,9999,0.100000,99,0,0.000000,12,1.000000,30.528524,7.188106,99,99,0,0,0,0,0
3,39999,17,30000,16,10000,40,9999,0.100000,99,0,0.000000,12,0.000000,21.232507,1.428109,99,99,0,0,0,0,0
3,39999,18,30000,11,10000,40,9999,0.100000,99,0,0.000000,12,2.000000,29.975549,4.964041,99,99,0,0,0,0,0
3,39999,19,30000,77,0,40,9999,0.100000,99,0,0.000000,12,0.000000,27.785787,0.521909,99,99,0,0,0,0,0
3,39999,20,30000,23,10000,40,9999,0.100000,99,0,0.000000,12,1.000000,21.928939,10.325927,99,99,0,0,0,0,0
3,39999,21,30000,23,10000,0,9999,0.100000,99,0,0.489807,12,0.000000,13.415759,0.272552,99,99,0,0,0,1,0
3,39999,22,30000,23,10000,40,9999,0.100000,99,0,0.000000,12,1.000000,29.680260,15.833410,99,99,0,0,0,0,0
3,39999,23,30000,23,10000,40,9999,0.100000,99,0,0.000000,12,3.000000,29.575835,9.451176,99,99,0,0,0,0,0
3,39999,24,30000,99,0,40,9999,0.100000,99,0,0.000000,12,0.000000,31.500360,1.711205,99,99,0,0,0,0,0
3,39999,25,30000,23,10000,40,9999,0.100000,99,0,0.000000,12,2.000000,28.692874,7.969016,99,99,0,0,0,0,0
3,39999,26,30000,32,0,40,9999,0.100000,99,0,0.000000,12,0.000000,19.103960,0.108150,99,99,0,0,0,0,0
3,39999,27,30000,99,0,40,9999,0.100000,99,0,0.000000,12,0.000000,29.763130,6.369973,99,99,0,0,0,0,0
3,39999,28,30000,56,20000,42,9999,0.100000,99,0,0.000000,12,3.000000,13.101107,8.805064,99,99,0,0,0,0,0
3,39999,29,30000,7,0,40,9999,0.100000,99,0,0.000000,12,0.000000,19.290750,0.400383,99,99,0,0,0,0,0
3,39999,30,30000,99,0,96,9999,0.100000,99,0,66.224225,12,13.000000,19.246850,18.634952,99,99,1,0,0,0,0
3,39999,31,30000,11,0,40,9999,0.100000,99,0,0.000000,12,1.000000,31.347494,10.520147,99,99,0,0,0,0,0
3,39999,32,30000,11,0,40,9999,0.100000,99,0,0.000000,12,2.000000,28.574233,12.675476,99,99,0,0,0,0,0
3,39999,33,30000,11,10000,40,9999,0.100000,99,0,0.000000,12,0.000000,14.606534,4.230407,99,99,0,0,0,0,0
3,39999,34,30000,53,20000,40,9999,0.100000,99,0,0.000000,12,0.000000,15.205429,2.728838,99,99,0,0,0,0,0
3,39999,35,30000,7,0,40,9999,0.100000,99,0,0.000000,12,0.000000,27.872002,0.635964,99,99,0,0,0,0,0
3,39999,36,30000,32,0,40,9999,0.100000,99,0,0.000000,12,1.000000,26.150937,4.893634,99,99,0,0,0,0,0
3,39999,37,30000,99,0,40,9999,0.100000,99,0,0.000000,12,0.000000,18.222420,0.118460,99,99,0,0,0,0,0
3,39999,38,30000,42,0,40,9999,0.100000,99,0,0.000000,12,2.000000,27.096903,8.869771,99,99,0,0,0,0,0
3,39999,39,30000,56,20000,40,9999,0.100000,99,0,0.000000,12,0.000000,27.805467,0.343044,99,99,0,0,0,0,0
3,39999,40,30000,91,0,40,9999,0.100000,99,0,0.000000,12,0.000000,21.031473,2.433121,99,99,0,0,0,0,0
3,39999,41,30000,77,0,40,9999,0.100000,99,0,0.000000,12,1.000000,24.158446,5.926933,99,99,0,0,0,0,0
3,39999,42,30000,11,10000,40,9999,0.100000,99,0,0.000000,12,0.000000,33.184542,0.672748,99,99,0,0,0,0,0
3,39999,43,30000,42,0,40,9999,0.100000,99,0,0.000000,12,0.000000,12.667946,0.552520,99,99,0,0,0,0,0
3,39999,44,30000,56,0,40,9999,0.100000,99,0,0.000000,12,1.000000,21.118356,3.529500,99,99,0,0,0,0,0
3,39999,45,30000,91,0,0,9999,0.100000,99,0,1.402109,12,0.000000,20.977845,0.974947,99,99,0,0,1,0,0
3,39999,46,30000,7,0,40,9999,0.100000,99,0,0.000000,12,0.000000,17.652330,0.967655,99,99,0,0,0,0,0
3,39999,47,30000,56,0,0,9999,0.100000,99,0,2.101941,12,1.000000,29.419603,6.945160,99,99,0,0,1,0,0
3,39999,48,30000,56,20000,40,9999,0.100000,99,0,0.000000,12,1.000000,26.290806,9.588028,99,99,0,0,0,0,0
3,39999,49,30000,7,0,41,9999,0.100000,99,0,0.000000,12,3.000000,17.982121,6.544478,99,99,0,0,0,0,0
3,39999,50,30000,77,0,0,9999,0.100000,99,0,1.633168,12,0.000000,32.281135,0.620126,99,99,0,0,1,0,0
3,39999,51,30000,77,0,40,9999,0.100000,99,0,0.000000,12,0.000000,27.337854,0.623201,99,99,0,0,0,0,0
3,39999,52,30000,77,0,40,9999,0.100000,99,0,0.000000,12,1.000000,29.304078,13.679555,99,99,0,0,0,0,0
3,39999,53,30000,32,0,40,9999,0.100000,99,0,0.000000,12,0.000000,23.384898,1.297788,99,99,0,0,0,0,0
3,39999,54,30000,42,0,45,9999,0.100000,99,0,0.000000,12,16.000000,28.031714,18.253785,99,99,0,0,0,0,0
3,39999,55,30000,42,0,40,9999,0.100000,99,0,0.000000,12,2.000000,24.602246,14.044761,99,99,0,0,0,0,0
3,39999,56,30000,11,0,41,9999,0.100000,99,0,0.000000,12,3.000000,15.574168,17.318895,99,99,0,0,0,0,0
3,39999,57,30000,53,20000,41,9999,0.100000,99,0,0.000000,12,4.000000,28.626934,7.982506,99,99,0,0,0,0,0
3,39999,58,30000,23,10000,41,9999,0.100000,99,0,0.000000,12,3.000000,23.915831,11.055779,99,99,0,0,0,0,0
3,39999,59,30000,77,0,40,9999,0.100000,99,0,0.000000,12,2.000000,21.233727,7.135726,99,99,0,0,0,0,0
3,39999,60,30000,99,0,40,9999,0.100000,99,0,0.000000,12,0.000000,24.056800,0.327042,99,99,0,0,0,0,0
3,39999,61,30000,16,10000,40,9999,0.100000,99,0,0.000000,12,0.000000,31.951672,0.901296,99,99,0,0,0,0,0
3,39999,62,30000,7,0,40,9999,0.100000,99,0,0.000000,12,0.000000,31.149179,8.759172,99,99,0,0,0,0,0
3,39999,63,30000,77,0,40,9999,0.100000,99,0,0.000000,12,0.000000,31.763678,0.831106,99,99,0,0,0,0,0
3,39999,64,30000,7,0,42,9999,0.100000,99,0,0.000000,12,7.000000,29.878304,20.647445,99,99,0,0,0,0,0
3,39999,65,30000,91,0,40,9999,0.100000,99,0,0.000000,12,1.000000,27.498376,16.299119,99,99,0,0,0,0,0
3,39999,66,30000,56,0,40,9999,0.100000,99,0,0.000000,12,0.000000,28.296345,0.112226,99,99,0,0,0,0,0
3,39999,67,30000,91,0,40,9999,0.100000,99,0,0.000000,12,1.000000,21.409487,2.530776,99,99,0,0,0,0,0
3,39999,68,30000,11,10000,40,9999,0.100000,99,0,0.000000,12,0.000000,23.802494,0.145202,99,99,0,0,0,0,0
3,39999,69,30000,76,0,40,9999,0.100000,99,0,0.000000,12,0.000000,17.349355,0.415560,99,99,0,0,0,0,0
3,39999,70,30000,11,10000,40,9999,0.100000,99,0,0.000000,12,0.000000,24.526795,0.426552,99,99,0,0,0,0,0
3,39999,71,30000,7,0,40,9999,0.100000,99,0,0.000000,12,0.000000,23.504971,0.087749,99,99,0,0,0,0,0
3,39999,72,30000,99,0,0,9999,0.100000,99,0,1.159194,12,0.000000,27.651634,0.445389,99,99,0,0,0,1,0
3,39999,73,30000,23,10000,40,9999,0.100000,99,0,0.000000,12,2.000000,25.962199,7.320501,99,99,0,0,0,0,0
3,39999,74,30000,11,10000,40,9999,0.100000,99,0,0.000000,12,0.000000,25.947760,4.884171,99,99,0,0,0,0,0
3,39999,75,30000,91,0,40,9999,0.100000,99,0,0.000000,12,1.000000,28.993948,9.483304,99,99,0,0,0,0,0
3,39999,76,30000,11,0,40,9999,0.100000,99,0,0.000000,12,1.000000,30.662508,8.354149,99,99,0,0,0,0,0
3,39999,77,30000,91,0,0,9999,0.100000,99,0,0.008754,12,3.000000,31.425560,11.924677,99,99,0,0,1,0,0
3,39999,78,30000,99,0,40,9999,0.100000,99,0,0.000000,12,0.000000,23.822468,0.491962,99,99,0,0,0,0,0
3,39999,79,30000,23,10000,40,9999,0.100000,99,0,0.000000,12,0.000000,24.318566,0.992722,99,99,0,0,0,0,0
3,39999,80,30000,56,20000,40,9999,0.100000,99,0,0.000000,12,0.000000,21.505237,0.776506,99,99,0,0,0,0,0
3,39999,81,30000,76,0,42,9999,0.100000,99,0,0.000000,12,7.000000,29.511953,18.697968,99,99,0,0,0,0,0
3,39999,82,30000,11,10000,41,9999,0.100000,99,0,0.000000,12,2.000000,15.957415,6.010693,99,99,0,0,0,0,0
3,39999,83,30000,76,0,40,9999,0.100000,99,0,0.000000,12,0.000000,34.185427,0.231797,99,99,0,0,0,0,0
3,39999,84,30000,32,0,40,9999,0.100000,99,0,0.000000,12,0.000000,28.179758,0.121404,99,99,0,0,0,0,0
3,39999,85,30000,99,0,0,9999,0.100000,99,0,0.656940,12,0.000000,16.948412,0.801658,99,99,0,0,0,0,1
3,39999,86,30000,7,0,40,9999,0.100000,99,0,0.000000,12,0.000000,31.615949,2.096072,99,99,0,0,0,0,0
3,39999,87,30000,77,0,40,9999,0.100000,99,0,0.000000,12,0.000000,28.673152,23.763003,99,99,0,0,0,0,0
3,39999,88,30000,23,10000,40,9999,0.100000,99,0,0.000000,12,0.000000,29.495750,0.801017,99,99,0,0,0,0,0
3,39999,89,30000,23,10000,40,9999,0.100000,99,0,0.000000,12,0.000000,26.216067,1.005508,99,99,0,0,0,0,0
3,39999,90,30000,42,0,41,9999,0.100000,99,0,0.000000,12,4.000000,23.279484,22.464465,99,99,0,0,0,0,0
3,39999,91,30000,23,10000,40,9999,0.100000,99,0,0.000000,12,2.000000,29.602722,8.890635,99,99,0,0,0,0,0
3,39999,92,30000,11,10000,40,9999,0.100000,99,0,0.000000,12,0.000000,29.985372,1.012169,99,99,0,0,0,0,0
3,39999,93,30000,53,20000,40,9999,0.100000,99,0,0.000000,12,3.000000,30.673230,10.816420,99,99,0,0,0,0,0
3,39999,94,30000,91,0,40,9999,0.100000,99,0,0.000000,12,2.000000,22.598888,16.926520,99,99,0,0,0,0,0
3,39999,95,30000,16,10000,40,9999,0.100000,99,0,0.000000,12,0.000000,17.674322,0.725736,99,99,0,0,0,0,0
3,39999,96,30000,23,10000,40,9999,0.100000,99,0,0.000000,12,0.000000,28.875501,14.846647,99,99,0,0,0,0,0
3,39999,97,30000,53,20000,40,9999,0.100000,99,0,0.000000,12,1.000000,21.292783,9.174819,99,99,0,0,0,0,0
3,39999,98,30000,16,10000,40,9999,0.100000,99,0,0.000000,12,0.000000,24.211271,0.158396,99,99,0,0,0,0,0
3,39999,99,30000,56,20000,90,9999,0.100000,99,0,1.618742,12,0.000000,28.067703,0.550263,99,99,1,0,0,0,0
4,49999,0,40000,77,0,0,9999,0.100000,99,0,0.530507,12,0.000000,28.156321,0.167802,99,99,0,0,0,0,1
4,49999,1,40000,32,0,0,9999,0.100000,99,0,0.620520,12,0.000000,18.793718,0.149151,99,99,0,0,0,0,1
4,49999,2,40000,16,10000,40,9999,0.100000,99,0,0.000000,12,0.000000,34.026603,0.268117,99,99,0,0,0,0,0
4,49999,3,40000,99,0,40,9999,0.100000,99,0,0.000000,12,2.000000,26.345469,8.050262,99,99,0,0,0,0,0
4,49999,4,40000,23,10000,0,9999,0.100000,99,0,0.086845,13,0.000000,22.973561,0.194333,99,99,0,0,0,1,0
4,49999,5,40000,99,0,0,9999,0.100000,99,0,0.050018,13,0.000000,18.678713,0.108218,99,99,0,0,0,0,1
4,49999,6,40000,91,0,0,9999,0.100000,99,0,0.403499,12,0.000000,23.564800,0.098468,99,99,0,0,0,0,1
4,49999,7,40000,76,0,40,9999,0.100000,99,0,0.000000,12,1.000000,25.497028,5.786405,99,99,0,0,0,0,0
4,49999,8,40000,77,0,40,9999,0.100000,99,0,0.000000,12,0.000000,37.174285,0.131439,99,99,0,0,0,0,0
4,49999,9,40000,76,0,40,9999,0.100000,99,0,0.000000,13,0.000000,24.939883,7.525459,99,99,0,0,0,0,0
4,49999,10,40000,76,0,40,9999,0.100000,99,0,0.000000,13,0.000000,24.011112,0.552839,99,99,0,0,0,0,0
4,49999,11,40000,11,0,40,9999,0.100000,99,0,0.000000,12,1.000000,32.114497,12.693401,99,99,0,0,0,0,0
4,49999,12,40000,7,0,0,9999,0.100000,99,0,0.074976,12,0.000000,16.941811,4.041109,99,99,0,0,0,0,1
4,49999,13,40000,11,10000,40,9999,0.100000,99,0,0.000000,13,0.000000,18.478528,0.130754,99,99,0,0,0,0,0
4,49999,14,40000,91,0,93,9999,0.100000,99,0,40.454353,12,8.000000,20.021036,19.693762,99,99,1,0,0,0,0
4,49999,15,40000,32,0,2,9999,0.100000,99,0,35.344510,12,7.000000,32.528810,10.611598,99,99,0,1,0,0,0
4,49999,16,40000,54,30000,40,9999,0.100000,99,0,0.000000,13,0.000000,30.926611,1.003393,99,99,0,0,0,0,0
4,49999,17,40000,99,0,40,9999,0.100000,99,0,0.000000,12,0.000000,21.013858,0.956132,99,99,0,0,0,0,0
4,49999,18,40000,11,0,40,9999,0.100000,99,0,0.000000,12,0.000000,27.862265,5.729071,99,99,0,0,0,0,0
4,49999,19,40000,7,0,40,9999,0.100000,99,0,0.000000,13,0.000000,27.360481,0.529187,99,99,0,0,0,0,0
4,49999,20,40000,7,0,41,9999,0.100000,99,0,0.000000,12,4.000000,22.368280,10.259519,99,99,0,0,0,0,0
4,49999,21,40000,48,20000,0,9999,0.100000,99,0,0.489533,13,0.000000,13.576683,0.262904,99,99,0,0,0,1,0
4,49999,22,40000,91,0,40,9999,0.100000,99,0,0.000000,12,1.000000,30.520785,14.310764,99,99,0,0,0,0,0
4,49999,23,40000,11,10000,40,9999,0.100000,99,0,0.000000,12,0.000000,26.640972,4.730853,99,99,0,0,0,0,0
4,49999,24,40000,77,0,40,9999,0.100000,99,0,0.000000,13,0.000000,32.143280,1.404402,99,99,0,0,0,0,0
4,49999,25,40000,99,0,40,9999,0.100000,99,0,0.000000,12,2.000000,26.032918,6.395123,99,99,0,0,0,0,0
4,49999,26,40000,76,0,40,9999,0.100000,99,0,0.000000,13,0.000000,19.139876,0.147279,99,99,0,0,0,0,0
4,49999,27,40000,23,10000,40,9999,0.100000,99,0,0.000000,12,2.000000,29.974399,9.664158,99,99,0,0,0,0,0
4,49999,28,40000,23,10000,40,9999,0.100000,99,0,0.000000,13,0.000000,12.744772,1.038450,99,99,0,0,0,0,0
4,49999,29,40000,77,0,40,9999,0.100000,99,0,0.000000,13,0.000000,19.343291,0.372371,99,99,0,0,0,0,0
4,49999,30,40000,11,0,40,9999,0.100000,99,0,0.000000,12,0.000000,29.349491,6.914128,99,99,0,0,0,0,0
4,49999,31,40000,15,30000,40,9999,0.100000,99,0,0.000000,13,0.000000,31.662216,6.957873,99,99,0,0,0,0,0
4,49999,32,40000,7,0,40,9999,0.100000,99,0,0.000000,13,1.000000,26.697946,5.340587,99,99,0,0,0,0,0
4,49999,33,40000,11,10000,42,9999,0.100000,99,0,0.000000,12,4.000000,14.243485,8.480952,99,99,0,0,0,0,0
4,49999,34,40000,11,10000,40,9999,0.100000,99,0,0.000000,13,0.000000,14.868623,3.771847,99,99,0,0,0,0,0
4,49999,35,40000,23,10000,40,9999,0.100000,99,0,0.000000,12,0.000000,27.446721,0.638926,99,99,0,0,0,0,0
4,49999,36,40000,15,30000,41,9999,0.100000,99,0,0.000000,13,3.000000,27.305787,8.491036,99,99,0,0,0,0,0
4,49999,37,40000,11,0,40,9999,0.100000,99,0,0.000000,12,0.000000,18.144617,0.075716,99,99,0,0,0,0,0
4,49999,38,40000,11,0,40,9999,0.100000,99,0,0.000000,13,0.000000,29.175178,6.439190,99,99,0,0,0,0,0
4,49999,39,40000,76,0,40,9999,0.100000,99,0,0.000000,13,0.000000,27.953196,0.389114,99,99,0,0,0,0,0
4,49999,40,40000,56,20000,40,9999,0.100000,99,0,0.000000,12,0.000000,20.873450,0.914749,99,99,0,0,0,0,0
4,49999,41,40000,56,20000,40,9999,0.100000,99,0,0.000000,12,1.000000,23.579396,10.347018,99,99,0,0,0,0,0
4,49999,42,40000,77,0,45,9999,0.100000,99,0,0.000000,13,19.000000,33.276066,20.673347,99,99,0,0,0,0,0
4,49999,43,40000,11,0,40,9999,0.100000,99,0,0.000000,12,0.000000,12.820850,0.607317,99,99,0,0,0,0,0
4,49999,44,40000,23,10000,40,9999,0.100000,99,0,0.000000,12,0.000000,22.918637,2.324571,99,99,0,0,0,0,0
4,49999,45,40000,32,0,40,9999,0.100000,99,0,0.000000,13,0.000000,20.819707,0.677093,99,99,0,0,0,0,0
4,49999,46,40000,11,10000,40,9999,0.100000,99,0,0.000000,13,0.000000,17.801804,0.944683,99,99,0,0,0,0,0
4,49999,47,40000,23,10000,0,9999,0.100000,99,0,2.695134,12,1.000000,29.816229,1.594959,99,99,0,0,1,0,0
4,49999,48,40000,23,10000,41,9999,0.100000,99,0,0.000000,13,3.000000,27.476490,9.153950,99,99,0,0,0,0,0
4,49999,49,40000,32,0,40,9999,0.100000,99,0,0.000000,13,0.000000,17.889394,0.301820,99,99,0,0,0,0,0
4,49999,50,40000,99,0,0,9999,0.100000,99,0,1.897434,12,0.000000,32.730884,0.715908,99,99,0,0,1,0,0
4,49999,51,40000,99,0,40,9999,0.100000,99,0,0.000000,12,1.000000,27.085185,2.671557,99,99,0,0,0,0,0
4,49999,52,40000,15,30000,40,9999,0.100000,99,0,0.000000,12,1.000000,28.498341,13.167440,99,99,0,0,0,0,0
4,49999,53,40000,77,0,40,9999,0.100000,99,0,0.000000,12,0.000000,23.124876,2.889075,99,99,0,0,0,0,0
4,49999,54,40000,15,30000,3,9999,0.100000,99,0,0.033024,13,13.000000,35.925236,15.799768,99,99,0,0,1,0,0
4,49999,55,40000,23,10000,41,9999,0.100000,99,0,0.000000,13,3.000000,22.418595,11.143240,99,99,0,0,0,0,0
4,49999,56,40000,32,0,40,9999,0.100000,99,0,0.000000,12,0.000000,12.297050,22.468353,99,99,0,0,0,0,0
4,49999,57,40000,99,0,40,9999,0.135000,99,0,0.000000,13,1.000000,32.513069,12.992610,99,99,0,0,0,0,0
4,49999,58,40000,91,0,40,9999,0.100000,99,0,0.000000,12,0.000000,21.153504,1.863643,99,99,0,0,0,0,0
4,49999,59,40000,7,0,40,9999,0.100000,99,0,0.000000,13,0.000000,23.141364,3.237218,99,99,0,0,0,0,0
4,49999,60,40000,54,30000,0,9999,0.100000,99,0,0.186646,13,0.000000,23.821433,0.448168,99,99,0,0,0,1,0
4,49999,61,40000,91,0,40,9999,0.100000,99,0,0.000000,13,1.000000,32.247934,6.744878,99,99,0,0,0,0,0
4,49999,62,40000,54,30000,40,9999,0.100000,99,0,0.000000,13,0.000000,30.767127,7.176330,99,99,0,0,0,0,0
4,49999,63,40000,48,20000,40,9999,0.100000,99,0,0.000000,13,0.000000,32.193711,0.837329,99,99,0,0,0,0,0
4,49999,64,40000,7,0,40,9999,0.100000,99,0,0.000000,13,0.000000,30.965007,3.541125,99,99,0,0,0,0,0
4,49999,65,40000,11,10000,40,9999,0.100000,99,0,0.000000,13,0.000000,25.787671,2.287511,99,99,0,0,0,0,0
4,49999,66,40000,76,0,40,9999,0.100000,99,0,0.000000,13,0.000000,28.365382,0.108704,99,99,0,0,0,0,0
4,49999,67,40000,54,30000,40,9999,0.100000,99,0,0.000000,13,0.000000,22.960557,2.304418,99,99,0,0,0,0,0
4,49999,68,40000,11,0,40,9999,0.100000,99,0,0.000000,13,0.000000,23.817555,0.132941,99,99,0,0,0,0,0
4,49999,69,40000,16,10000,40,9999,0.100000,99,0,0.000000,12,0.000000,17.510496,0.343209,99,99,0,0,0,0,0
4,49999,70,40000,23,10000,40,9999,0.100000,99,0,0.000000,13,0.000000,24.575959,0.381317,99,99,0,0,0,0,0
4,49999,71,40000,15,30000,40,9999,0.100000,99,0,0.000000,13,0.000000,23.504941,0.101428,99,99,0,0,0,0,0
4,49999,72,40000,15,30000,0,9999,0.100000,99,0,2.457523,13,1.000000,27.427852,1.284482,99,99,0,0,0,1,0
4,49999,73,40000,48,20000,40,9999,0.100000,99,0,0.000000,13,0.000000,24.274756,8.736998,99,99,0,0,0,0,0
4,49999,74,40000,76,0,40,9999,0.100000,99,0,0.000000,12,0.000000,25.844019,2.666558,99,99,0,0,0,0,0
4,49999,75,40000,32,0,40,9999,0.100000,99,0,0.000000,13,0.000000,29.793066,1.347059,99,99,0,0,0,0,0
4,49999,76,40000,76,0,40,9999,0.100000,99,0,0.000000,13,3.000000,30.287583,6.034585,99,99,0,0,0,0,0
4,49999,77,40000,11,0,40,9999,0.100000,99,0,0.000000,13,1.000000,34.504191,9.333617,99,99,0,0,0,0,0
4,49999,78,40000,99,0,40,9999,0.100000,99,0,0.000000,13,0.000000,23.528174,0.487819,99,99,0,0,0,0,0
4,49999,79,40000,48,20000,40,9999,0.100000,99,0,0.000000,12,0.000000,23.555362,1.371357,99,99,0,0,0,0,0
4,49999,80,40000,23,10000,0,9999,0.100000,99,0,0.651433,13,0.000000,21.344884,0.721437,99,99,0,0,1,0,0
4,49999,81,40000,99,0,40,9999,0.100000,99,0,0.000000,12,0.000000,29.118933,0.062298,99,99,0,0,0,0,0
4,49999,82,40000,7,0,41,9999,0.100000,99,0,0.000000,12,2.000000,14.984891,8.327283,99,99,0,0,0,0,0
4,49999,83,40000,15,30000,40,9999,0.100000,99,0,0.000000,13,0.000000,34.186351,0.299051,99,99,0,0,0,0,0
4,49999,84,40000,91,0,40,9999,0.100000,99,0,0.000000,13,0.000000,28.264842,0.143884,99,99,0,0,0,0,0
4,49999,85,40000,91,0,40,9999,0.100000,99,0,0.000000,13,0.000000,17.090439,1.126545,99,99,0,0,0,0,0
4,49999,86,40000,56,20000,40,9999,0.100000,99,0,0.000000,13,0.000000,32.264605,1.236710,99,99,0,0,0,0,0
4,49999,87,40000,32,0,40,9999,0.100000,99,0,0.000000,13,0.000000,28.705490,23.735958,99,99,0,0,0,0,0
4,49999,88,40000,11,10000,40,9999,0.100000,99,0,0.000000,12,0.000000,29.776447,1.075976,99,99,0,0,0,0,0
4,49999,89,40000,32,0,40,9999,0.100000,99,0,0.000000,13,0.000000,25.451609,1.013468,99,99,0,0,0,0,0
4,49999,90,40000,56,20000,40,9999,0.100000,99,0,0.000000,12,0.000000,20.681685,22.886671,99,99,0,0,0,0,0
4,49999,91,40000,11,0,40,9999,0.100000,99,0,0.000000,13,1.000000,31.638989,6.142334,99,99,0,0,0,0,0
4,49999,92,40000,99,0,40,9999,0.100000,99,0,0.000000,13,0.000000,30.104327,0.929458,99,99,0,0,0,0,0
4,49999,93,40000,11,0,2,9999,0.100000,99,0,35.455095,12,7.000000,32.291640,14.406272,99,99,0,1,0,0,0
4,49999,94,40000,91,0,40,9999,0.100000,99,0,0.000000,13,1.000000,20.614664,23.196028,99,99,0,0,0,0,0
4,49999,95,40000,23,10000,40,9999,0.100000,99,0,0.000000,13,0.000000,17.835795,0.583182,99,99,0,0,0,0,0
4,49999,96,40000,56,20000,40,9999,0.100000,99,0,0.000000,13,2.000000,28.461166,15.315213,99,99,0,0,0,0,0
4,49999,97,40000,56,20000,40,9999,0.100000,99,0,0.000000,12,0.000000,23.141940,2.712883,99,99,0,0,0,0,0
4,49999,98,40000,32,0,40,9999,0.100000,99,0,0.000000,13,0.000000,24.245391,0.139005,99,99,0,0,0,0,0
4,49999,99,40000,77,0,90,9999,0.100000,99,0,1.018857,12,0.000000,28.121420,0.732786,99,99,1,0,0,0,0
5,59999,0,50000,11,10000,40,9999,0.100000,99,0,0.000000,14,2.000000,28.270363,2.881492,99,99,0,0,0,0,0
5,59999,1,50000,77,0,0,9999,0.100000,99,0,0.264330,14,0.000000,18.854369,0.110017,99,99,0,0,0,0,1
5,59999,2,50000,7,0,40,9999,0.100000,99,0,0.000000,13,0.000000,34.031160,0.238672,99,99,0,0,0,0,0
5,59999,3,50000,99,0,40,9999,0.100000,99,0,0.000000,14,0.000000,28.919739,10.342802,99,99,0,0,0,0,0
5,59999,4,50000,76,0,0,9999,0.100000,99,0,0.001168,15,0.000000,22.985760,0.158841,99,99,0,0,0,1,0
5,59999,5,50000,91,0,0,9999,0.100000,99,0,0.104611,14,0.000000,18.657265,0.101429,99,99,0,0,0,0,1
5,59999,6,50000,76,0,0,9999,0.100000,99,0,0.408733,13,0.000000,23.578672,0.108036,99,99,0,0,0,0,1
5,59999,7,50000,77,0,40,9999,0.100000,99,0,0.000000,14,1.000000,25.359435,5.216043,99,99,0,0,0,0,0
5,59999,8,50000,99,0,40,9999,0.100000,99,0,0.000000,14,0.000000,37.182379,0.109563,99,99,0,0,0,0,0
5,59999,9,50000,54,30000,41,9999,0.100000,99,0,0.000000,14,4.000000,25.196981,13.290881,99,99,0,0,0,0,0
5,59999,10,50000,11,10000,40,9999,0.100000,99,0,0.000000,13,0.000000,23.700398,0.869352,99,99,0,0,0,0,0
5,59999,11,50000,32,0,40,9999,0.100000,99,0,0.000000,14,0.000000,31.558084,9.083965,99,99,0,0,0,0,0
5,59999,12,50000,32,0,0,9999,0.100000,99,0,0.283388,13,0.000000,17.277740,0.139383,99,99,0,0,0,0,1
5,59999,13,50000,11,10000,40,9999,0.100000,99,0,0.000000,14,0.000000,18.452056,0.130940,99,99,0,0,0,0,0
5,59999,14,50000,99,0,40,9999,0.100000,99,0,0.000000,15,0.000000,27.798318,5.232389,99,99,0,0,0,0,0
5,59999,15,50000,15,30000,40,9999,0.100000,99,0,0.000000,13,3.000000,35.693934,9.886232,99,99,0,0,0,0,0
5,59999,16,50000,23,10000,40,9999,0.100000,99,0,0.000000,14,0.000000,31.181318,1.557328,99,99,0,0,0,0,0
5,59999,17,50000,32,0,40,9999,0.100000,99,0,0.000000,13,0.000000,21.202079,1.062493,99,99,0,0,0,0,0
5,59999,18,50000,99,0,40,9999,0.100000,99,0,0.000000,14,2.000000,27.795391,6.988891,99,99,0,0,0,0,0
5,59999,19,50000,48,20000,40,9999,0.100000,99,0,0.000000,14,0.000000,26.930282,0.520506,99,99,0,0,0,0,0
5,59999,20,50000,91,0,41,9999,0.100000,99,0,0.000000,13,2.000000,17.761940,7.764523,99,99,0,0,0,0,0
5,59999,21,50000,48,20000,0,9999,0.100000,99,0,0.377709,14,0.000000,13.739540,0.211014,99,99,0,0,0,1,0
5,59999,22,50000,23,10000,40,9999,0.100000,99,0,0.000000,13,1.000000,30.990355,2.623563,99,99,0,0,0,0,0
5,59999,23,50000,48,20000,40,9999,0.100000,99,0,0.000000,14,1.000000,26.123521,8.811712,99,99,0,0,0,0,0
5,59999,24,50000,54,30000,0,9999,0.100000,99,0,1.855007,13,0.000000,32.440813,3.494650,99,99,0,0,1,0,0
5,59999,25,50000,76,0,41,9999,0.100000,99,0,0.000000,15,3.000000,28.386134,6.011986,99,99,0,0,0,0,0
5,59999,26,50000,76,0,40,9999,0.100000,99,0,0.000000,15,0.000000,19.219057,0.112440,99,99,0,0,0,0,0
5,59999,27,50000,76,0,40,9999,0.100000,99,0,0.000000,14,0.000000,27.106005,3.657278,99,99,0,0,0,0,0
5,59999,28,50000,54,30000,40,9999,0.100000,99,0,0.000000,13,0.000000,12.923485,1.505568,99,99,0,0,0,0,0
5,59999,29,50000,42,40000,40,9999,0.100000,99,0,0.000000,14,0.000000,19.434865,0.318196,99,99,0,0,0,0,0
5,59999,30,50000,42,40000,40,9999,0.100000,99,0,0.000000,14,1.000000,29.451989,7.816817,99,99,0,0,0,0,0
5,59999,31,50000,23,10000,40,9999,0.100000,99,0,0.000000,14,3.000000,31.315712,10.117512,99,99,0,0,0,0,0
5,59999,32,50000,15,40000,40,9999,0.100000,99,0,0.000000,14,0.000000,27.015146,1.402788,99,99,0,0,0,0,0
5,59999,33,50000,56,20000,40,9999,0.100000,99,0,0.000000,13,0.000000,10.398985,0.174670,99,99,0,0,0,0,0
5,59999,34,50000,76,0,40,9999,0.100000,99,0,0.000000,14,0.000000,14.780219,0.512160,99,99,0,0,0,0,0
5,59999,35,50000,11,10000,40,9999,0.100000,99,0,0.000000,13,0.000000,27.016554,0.640132,99,99,0,0,0,0,0
5,59999,36,50000,42,40000,44,9999,0.100000,99,0,0.000000,14,11.000000,25.705655,16.237735,99,99,0,0,0,0,0
5,59999,37,50000,56,20000,40,9999,0.100000,99,0,0.000000,13,0.000000,18.109259,0.074948,99,99,0,0,0,0,0
5,59999,38,50000,56,20000,40,9999,0.100000,99,0,0.000000,13,0.000000,29.145704,6.858772,99,99,0,0,0,0,0
5,59999,39,50000,11,10000,40,9999,0.100000,99,0,0.000000,14,2.000000,28.121550,2.868547,99,99,0,0,0,0,0
5,59999,40,50000,54,30000,40,9999,0.100000,99,0,0.000000,14,1.000000,20.205925,7.304574,99,99,0,0,0,0,0
5,59999,41,50000,32,0,91,9999,0.100000,99,0,25.790587,14,3.000000,25.029208,16.402541,99,99,1,0,0,0,0
5,59999,42,50000,91,0,40,9999,0.100000,99,0,0.000000,14,0.000000,14.824953,0.639304,99,99,0,0,0,0,0
5,59999,43,50000,23,10000,48,9999,0.100000,99,0,0.000000,14,11.000000,12.979743,23.007875,99,99,0,0,0,0,0
5,59999,44,50000,15,30000,40,9999,0.100000,99,0,0.000000,14,0.000000,23.009506,1.543003,99,99,0,0,0,0,0
5,59999,45,50000,48,20000,0,9999,0.100000,99,0,0.937768,14,0.000000,21.014023,0.726850,99,99,0,0,1,0,0
5,59999,46,50000,56,20000,40,9999,0.100000,99,0,0.000000,14,0.000000,17.759497,2.194327,99,99,0,0,0,0,0
5,59999,47,50000,93,40000,0,9999,0.100000,99,0,2.191566,15,2.000000,30.841462,2.670467,99,99,0,0,1,0,0
5,59999,48,50000,56,20000,41,9999,0.100000,99,0,0.000000,14,3.000000,26.506386,10.830700,99,99,0,0,0,0,0
5,59999,49,50000,91,0,40,9999,0.100000,99,0,0.000000,15,0.000000,17.848630,0.306508,99,99,0,0,0,0,0
5,59999,50,50000,32,0,40,9999,0.100000,99,0,0.000000,14,0.000000,32.974167,1.226557,99,99,0,0,0,0,0
5,59999,51,50000,99,0,40,9999,0.100000,99,0,0.000000,14,0.000000,27.104208,0.961070,99,99,0,0,0,0,0
5,59999,52,50000,32,0,40,9999,0.100000,99,0,0.000000,13,1.000000,29.347280,13.062456,99,99,0,0,0,0,0
5,59999,53,50000,23,10000,40,9999,0.100000,99,0,0.000000,14,0.000000,23.241323,2.429259,99,99,0,0,0,0,0
5,59999,54,50000,11,10000,0,9999,0.100000,99,0,0.259380,15,0.000000,30.117461,0.211580,99,99,0,0,1,0,0
5,59999,55,50000,11,10000,40,9999,0.100000,99,0,0.000000,14,2.000000,20.829669,6.097557,99,99,0,0,0,0,0
5,59999,56,50000,23,10000,40,9999,0.100000,99,0,0.000000,14,0.000000,12.528256,15.750422,99,99,0,0,0,0,0
5,59999,57,50000,54,30000,41,9999,0.100000,99,0,0.000000,14,5.000000,31.606209,17.140054,99,99,0,0,0,0,0
5,59999,58,50000,91,0,40,9999,0.100000,99,0,0.000000,15,0.000000,21.134731,1.364473,99,99,0,0,0,0,0
5,59999,59,50000,15,30000,40,9999,0.100000,99,0,0.000000,14,0.000000,23.137674,2.777070,99,99,0,0,0,0,0
5,59999,60,50000,54,30000,40,9999,0.100000,99,0,0.000000,14,0.000000,23.525805,1.014467,99,99,0,0,0,0,0
5,59999,61,50000,15,30000,40,9999,0.100000,99,0,0.000000,14,1.000000,32.279094,17.767472,99,99,0,0,0,0,0
5,59999,62,50000,76,0,40,9999,0.100000,99,0,0.000000,14,2.000000,30.849261,4.468920,99,99,0,0,0,0,0
5,59999,63,50000,23,10000,40,9999,0.100000,99,0,0.000000,14,0.000000,32.454042,1.149213,99,99,0,0,0,0,0
5,59999,64,50000,15,40000,42,9999,0.100000,99,0,0.000000,14,7.000000,31.041434,20.708097,99,99,0,0,0,0,0
5,59999,65,50000,56,20000,40,9999,0.100000,99,0,0.000000,14,0.000000,25.152008,0.980619,99,99,0,0,0,0,0
5,59999,66,50000,91,0,40,9999,0.100000,99,0,0.000000,15,2.000000,28.436002,4.979710,99,99,0,0,0,0,0
5,59999,67,50000,11,10000,40,9999,0.100000,99,0,0.000000,14,0.000000,23.021709,1.823737,99,99,0,0,0,0,0
5,59999,68,50000,76,0,40,9999,0.100000,99,0,0.000000,15,0.000000,23.836460,0.146205,99,99,0,0,0,0,0
5,59999,69,50000,54,30000,40,9999,0.100000,99,0,0.000000,14,0.000000,17.506375,0.296804,99,99,0,0,0,0,0
5,59999,70,50000,77,0,40,9999,0.100000,99,0,0.000000,14,0.000000,24.612460,0.361578,99,99,0,0,0,0,0
5,59999,71,50000,76,0,40,9999,0.100000,99,0,0.000000,14,0.000000,23.513209,0.090148,99,99,0,0,0,0,0
5,59999,72,50000,42,40000,0,9999,0.100000,99,0,0.119283,15,0.000000,27.335107,0.467321,99,99,0,0,0,1,0
5,59999,73,50000,42,40000,41,9999,0.100000,99,0,0.000000,14,5.000000,23.903425,11.847054,99,99,0,0,0,0,0
5,59999,74,50000,15,30000,41,9999,0.100000,99,0,0.000000,13,5.000000,25.642105,11.984872,99,99,0,0,0,0,0
5,59999,75,50000,56,20000,40,9999,0.100000,99,0,0.000000,14,2.000000,30.657115,2.584832,99,99,0,0,0,0,0
5,59999,76,50000,91,0,40,9999,0.100000,99,0,0.000000,15,0.000000,27.812895,0.273481,99,99,0,0,0,0,0
5,59999,77,50000,15,40000,0,9999,0.100000,99,0,0.097199,14,1.000000,35.433775,2.579431,99,99,0,1,0,0,0
5,59999,78,50000,56,20000,40,9999,0.100000,99,0,0.000000,14,0.000000,23.220724,0.940491,99,99,0,0,0,0,0
5,59999,79,50000,23,10000,40,9999,0.100000,99,0,0.000000,14,0.000000,23.347911,1.218684,99,99,0,0,0,0,0
5,59999,80,50000,76,0,40,9999,0.100000,99,0,0.000000,14,0.000000,21.538806,0.762138,99,99,0,0,0,0,0
5,59999,81,50000,32,0,40,9999,0.100000,99,0,0.000000,15,0.000000,29.086636,1.090539,99,99,0,0,0,0,0
5,59999,82,50000,56,20000,42,9999,0.100000,99,0,0.000000,14,3.000000,12.281081,15.416458,99,99,0,0,0,0,0
5,59999,83,50000,77,0,40,9999,0.100000,99,0,0.000000,14,0.000000,34.182194,0.234381,99,99,0,0,0,0,0
5,59999,84,50000,77,0,1,9999,0.100000,99,0,0.328670,14,3.000000,28.354638,8.526531,99,99,0,0,0,0,1
5,59999,85,50000,76,0,40,9999,0.100000,99,0,0.000000,14,0.000000,17.122767,0.428539,99,99,0,0,0,0,0
5,59999,86,50000,54,30000,40,9999,0.100000,99,0,0.000000,15,1.000000,32.568079,13.101095,99,99,0,0,0,0,0
5,59999,87,50000,11,10000,40,9999,0.100000,99,0,0.000000,14,2.000000,28.739739,2.983968,99,99,0,0,0,0,0
5,59999,88,50000,23,10000,40,9999,0.100000,99,0,0.000000,14,2.000000,30.470937,2.436181,99,99,0,0,0,0,0
5,59999,89,50000,54,30000,43,9999,0.100000,99,0,0.000000,14,9.000000,24.673546,20.655645,99,99,0,0,0,0,0
5,59999,90,50000,99,0,40,9999,0.100000,99,0,0.000000,14,1.000000,20.197952,22.653302,99,99,0,0,0,0,0
5,59999,91,50000,15,40000,40,9999,0.100000,99,0,0.000000,14,3.000000,31.861427,16.349062,99,99,0,0,0,0,0
5,59999,92,50000,23,10000,40,9999,0.100000,99,0,0.000000,14,0.000000,30.233640,0.366920,99,99,0,0,0,0,0
5,59999,93,50000,23,10000,41,9999,0.100000,99,0,0.000000,14,4.000000,35.689164,15.778110,99,99,0,0,0,0,0
5,59999,94,50000,23,10000,40,9999,0.100000,99,0,0.000000,14,2.000000,20.518428,23.028540,99,99,0,0,0,0,0
5,59999,95,50000,91,0,40,9999,0.100000,99,0,0.000000,14,0.000000,17.804396,0.847986,99,99,0,0,0,0,0
5,59999,96,50000,7,0,41,9999,0.100000,99,0,0.000000,14,6.000000,30.310287,16.865773,99,99,0,0,0,0,0
5,59999,97,50000,32,0,40,9999,0.100000,99,0,0.000000,14,0.000000,23.190077,2.144019,99,99,0,0,0,0,0
5,59999,98,50000,11,10000,40,9999,0.065000,99,0,0.000000,14,0.000000,24.276874,0.141677,99,99,0,0,0,0,0
5,59999,99,50000,93,40000,90,9999,0.100000,99,0,2.080756,15,0.000000,28.254710,0.696428,99,99,1,0,0,0,0
6,69999,0,60000,11,10000,40,9999,0.100000,99,0,0.000000,16,2.000000,30.500044,11.356848,99,99,0,0,0,0,0
6,69999,1,60000,77,0,0,9999,0.100000,99,0,0.208293,15,0.000000,18.892918,0.100831,99,99,0,0,0,0,1
6,69999,2,60000,76,0,40,9999,0.100000,99,0,0.000000,15,0.000000,34.032049,0.220139,99,99,0,0,0,0,0
6,69999,3,60000,56,20000,40,9999,0.100000,99,0,0.000000,16,0.000000,28.869047,6.453920,99,99,0,0,0,0,0
6,69999,4,60000,15,30000,0,9999,0.100000,99,0,0.000161,16,0.000000,22.987189,0.157035,99,99,0,0,0,1,0
6,69999,5,60000,93,40000,0,9999,0.100000,99,0,0.114236,16,0.000000,18.628511,0.098402,99,99,0,0,0,0,1
6,69999,6,60000,7,0,0,9999,0.100000,99,0,0.789470,16,0.000000,23.595959,0.187596,99,99,0,0,0,0,1
6,69999,7,60000,76,0,40,9999,0.100000,99,0,0.000000,15,1.000000,24.600032,3.350779,99,99,0,0,0,0,0
6,69999,8,60000,42,40000,40,9999,0.100000,99,0,0.000000,15,0.000000,37.183819,0.112900,99,99,0,0,0,0,0
6,69999,9,60000,32,0,40,9999,0.100000,99,0,0.000000,16,2.000000,20.857371,7.237425,99,99,0,0,0,0,0
6,69999,10,60000,23,10000,40,9999,0.100000,99,0,0.000000,16,0.000000,23.278108,0.937262,99,99,0,0,0,0,0
6,69999,11,60000,56,20000,40,9999,0.100000,99,0,0.000000,15,0.000000,31.191340,6.154907,99,99,0,0,0,0,0
6,69999,12,60000,23,10000,0,9999,0.100000,99,0,0.224776,16,0.000000,17.279866,0.109187,99,99,0,0,0,0,1
6,69999,13,60000,11,10000,40,9999,0.100000,99,0,0.000000,15,0.000000,18.418791,0.120780,99,99,0,0,0,0,0
6,69999,14,60000,23,10000,41,9999,0.100000,99,0,0.000000,16,4.000000,28.123920,9.897296,99,99,0,0,0,0,0
6,69999,15,60000,54,30000,40,9999,0.100000,99,0,0.000000,15,3.000000,33.573650,14.218145,99,99,0,0,0,0,0
6,69999,16,60000,15,30000,40,9999,0.100000,99,0,0.000000,16,1.000000,31.415941,7.032545,99,99,0,0,0,0,0
6,69999,17,60000,91,0,40,9999,0.100000,99,0,0.000000,15,0.000000,21.410094,1.049821,99,99,0,0,0,0,0
6,69999,18,60000,56,20000,40,9999,0.100000,99,0,0.000000,16,2.000000,25.739376,11.862720,99,99,0,0,0,0,0
6,69999,19,60000,54,40000,40,9999,0.100000,99,0,0.000000,15,0.000000,26.506363,0.510916,99,99,0,0,0,0,0
6,69999,20,60000,32,0,40,9999,0.100000,99,0,0.000000,16,1.000000,16.846590,8.777593,99,99,0,0,0,0,0
6,69999,21,60000,48,20000,0,9999,0.100000,99,0,0.844325,15,0.000000,13.835595,0.848738,99,99,0,0,0,1,0
6,69999,22,60000,11,10000,40,9999,0.100000,99,0,0.000000,16,0.000000,31.960492,1.547756,99,99,0,0,0,0,0
6,69999,23,60000,91,0,41,9999,0.100000,99,0,0.000000,15,3.000000,25.699340,8.683068,99,99,0,0,0,0,0
6,69999,24,60000,76,0,0,9999,0.100000,99,0,0.061325,16,0.000000,32.968397,1.069591,99,99,0,0,1,0,0
6,69999,25,60000,56,20000,40,9999,0.100000,99,0,0.000000,15,1.000000,25.809971,7.466166,99,99,0,0,0,0,0
6,69999,26,60000,15,30000,40,9999,0.100000,99,0,0.000000,16,0.000000,19.257078,0.106127,99,99,0,0,0,0,0
6,69999,27,60000,15,30000,40,9999,0.100000,99,0,0.000000,16,2.000000,26.545881,9.750938,99,99,0,0,0,0,0
6,69999,28,60000,56,20000,40,9999,0.100000,99,0,0.000000,16,1.000000,13.003982,21.056804,99,99,0,0,0,0,0
6,69999,29,60000,91,0,40,9999,0.100000,99,0,0.000000,16,0.000000,19.473115,0.351819,99,99,0,0,0,0,0
6,69999,30,60000,93,40000,40,9999,0.100000,99,0,0.000000,15,0.000000,28.950428,7.313799,99,99,0,0,0,0,0
6,69999,31,60000,77,0,41,9999,0.100000,99,0,0.000000,16,4.000000,29.841539,11.786543,99,99,0,0,0,0,0
6,69999,32,60000,76,0,40,9999,0.100000,99,0,0.000000,16,0.000000,27.137387,2.715946,99,99,0,0,0,0,0
6,69999,33,60000,77,0,40,9999,0.100000,99,0,0.000000,15,0.000000,10.356963,0.173944,99,99,0,0,0,0,0
6,69999,34,60000,48,20000,41,9999,0.100000,99,0,0.000000,16,2.000000,14.463573,4.447933,99,99,0,0,0,0,0
6,69999,35,60000,42,40000,40,9999,0.100000,99,0,0.000000,15,0.000000,26.592634,0.623427,99,99,0,0,0,0,0
6,69999,36,60000,76,0,42,9999,0.100000,99,0,0.000000,16,9.000000,33.897993,10.987595,99,99,0,0,0,0,0
6,69999,37,60000,32,0,40,9999,0.065000,99,0,0.000000,15,0.000000,18.068311,0.075088,99,99,0,0,0,0,0
6,69999,38,60000,91,0,40,9999,0.100000,99,0,0.000000,16,3.000000,29.109190,9.689845,99,99,0,0,0,0,0
6,69999,39,60000,7,0,40,9999,0.100000,99,0,0.000000,16,2.000000,30.281890,10.643626,99,99,0,0,0,0,0
6,69999,40,60000,7,0,40,9999,0.100000,99,0,0.000000,16,0.000000,19.497522,1.444534,99,99,0,0,0,0,0
6,69999,41,60000,93,40000,40,9999,0.100000,99,0,0.000000,16,1.000000,28.171377,5.520062,99,99,0,0,0,0,0
6,69999,42,60000,76,0,49,9999,0.100000,99,0,0.000000,15,20.000000,14.499330,23.416274,99,99,0,0,0,0,0
6,69999,43,60000,76,0,40,9999,0.100000,99,0,0.000000,16,0.000000,13.079492,0.697570,99,99,0,0,0,0,0
6,69999,44,60000,93,40000,40,9999,0.100000,99,0,0.000000,16,0.000000,22.792450,2.774932,99,99,0,0,0,0,0
6,69999,45,60000,76,0,0,9999,0.100000,99,0,1.087264,16,0.000000,21.212570,0.618099,99,99,0,0,1,0,0
6,69999,46,60000,54,40000,40,9999,0.100000,99,0,0.000000,16,0.000000,17.717244,1.519021,99,99,0,0,0,0,0
6,69999,47,60000,11,10000,40,9999,0.100000,99,0,0.000000,16,0.000000,32.158782,1.561633,99,99,0,0,0,0,0
6,69999,48,60000,43,50000,40,9999,0.100000,99,0,0.000000,16,1.000000,23.976188,6.608502,99,99,0,0,0,0,0
6,69999,49,60000,42,40000,40,9999,0.100000,99,0,0.000000,16,0.000000,17.801310,0.298593,99,99,0,0,0,0,0
6,69999,50,60000,91,0,40,9999,0.100000,99,0,0.000000,16,0.000000,33.255090,1.027273,99,99,0,0,0,0,0
6,69999,51,60000,99,0,40,9999,0.100000,99,0,0.000000,16,0.000000,27.225840,0.927031,99,99,0,0,0,0,0
6,69999,52,60000,43,50000,40,9999,0.100000,99,0,0.000000,16,0.000000,30.624934,10.108165,99,99,0,0,0,0,0
6,69999,53,60000,11,10000,40,9999,0.100000,99,0,0.000000,16,1.000000,23.026157,3.681465,99,99,0,0,0,0,0
6,69999,54,60000,99,0,0,9999,0.100000,99,0,0.192104,16,0.000000,30.117368,0.177353,99,99,0,0,1,0,0
6,69999,55,60000,11,10000,40,9999,0.100000,99,0,0.000000,16,0.000000,21.154056,6.422241,99,99,0,0,0,0,0
6,69999,56,60000,15,30000,40,9999,0.100000,99,0,0.000000,16,0.000000,13.307907,0.969336,99,99,0,0,0,0,0
6,69999,57,60000,77,0,40,9999,0.100000,99,0,0.000000,16,1.000000,28.980162,9.119258,99,99,0,0,0,0,0
6,69999,58,60000,23,10000,40,9999,0.100000,99,0,0.000000,16,0.000000,21.325293,1.581971,99,99,0,0,0,0,0
6,69999,59,60000,48,20000,40,9999,0.100000,99,0,0.000000,16,0.000000,22.923695,3.460811,99,99,0,0,0,0,0
6,69999,60,60000,56,20000,40,9999,0.100000,99,0,0.000000,16,0.000000,22.949133,0.960370,99,99,0,0,0,0,0
6,69999,61,60000,76,0,0,9999,0.100000,99,0,3.799406,16,0.000000,30.783828,2.730460,99,99,0,0,0,0,1
6,69999,62,60000,93,40000,90,9999,0.100000,99,0,14.637392,16,2.000000,28.713654,13.685475,99,99,1,0,0,0,0
6,69999,63,60000,15,30000,40,9999,0.100000,99,0,0.000000,16,0.000000,32.758304,0.997761,99,99,0,0,0,0,0
6,69999,64,60000,42,40000,40,9999,0.100000,99,0,0.000000,16,3.000000,32.330913,9.911074,99,99,0,0,0,0,0
6,69999,65,60000,7,0,40,9999,0.100000,99,0,0.000000,16,0.000000,24.386072,1.187228,99,99,0,0,0,0,0
6,69999,66,60000,7,0,40,9999,0.100000,99,0,0.000000,16,1.000000,30.384258,5.572086,99,99,0,0,0,0,0
6,69999,67,60000,76,0,40,9999,0.100000,99,0,0.000000,15,0.000000,22.805714,3.202201,99,99,0,0,0,0,0
6,69999,68,60000,48,20000,40,9999,0.100000,99,0,0.000000,16,0.000000,23.859061,0.226500,99,99,0,0,0,0,0
6,69999,69,60000,99,0,40,9999,0.100000,99,0,0.000000,16,0.000000,17.507005,0.283433,99,99,0,0,0,0,0
6,69999,70,60000,43,50000,40,9999,0.100000,99,0,0.000000,16,0.000000,24.648897,0.465562,99,99,0,0,0,0,0
6,69999,71,60000,43,50000,40,9999,0.100000,99,0,0.000000,16,0.000000,23.514232,0.089095,99,99,0,0,0,0,0
6,69999,72,60000,77,0,0,9999,0.100000,99,0,0.355028,16,0.000000,27.400800,0.438084,99,99,0,0,0,1,0
6,69999,73,60000,32,0,42,9999,0.100000,99,0,0.000000,16,5.000000,18.801181,14.398172,99,99,0,0,0,0,0
6,69999,74,60000,54,30000,40,9999,0.100000,99,0,0.000000,16,2.000000,28.026610,14.696692,99,99,0,0,0,0,0
6,69999,75,60000,99,0,40,9999,0.100000,99,0,0.000000,16,0.000000,31.955584,1.373536,99,99,0,0,0,0,0
6,69999,76,60000,91,0,40,9999,0.100000,99,0,0.000000,16,0.000000,27.814031,1.170546,99,99,0,0,0,0,0
6,69999,77,60000,43,50000,0,9999,0.100000,99,0,0.494933,16,0.000000,34.516794,0.200165,99,99,0,1,0,0,0
6,69999,78,60000,54,30000,40,9999,0.100000,99,0,0.000000,16,0.000000,22.724784,0.827413,99,99,0,0,0,0,0
6,69999,79,60000,23,10000,40,9999,0.100000,99,0,0.000000,16,0.000000,23.129100,2.226049,99,99,0,0,0,0,0
6,69999,80,60000,93,40000,40,9999,0.100000,99,0,0.000000,16,0.000000,21.735508,0.645606,99,99,0,0,0,0,0
6,69999,81,60000,7,0,40,9999,0.100000,99,0,0.000000,16,1.000000,29.089202,11.095692,99,99,0,0,0,0,0
6,69999,82,60000,77,0,40,9999,0.100000,99,0,0.000000,16,0.000000,13.033300,2.415922,99,99,0,0,0,0,0
6,69999,83,60000,76,0,40,9999,0.100000,99,0,0.000000,16,0.000000,34.183647,0.233295,99,99,0,0,0,0,0
6,69999,84,60000,23,10000,41,9999,0.100000,99,0,0.000000,16,5.000000,30.753955,11.165825,99,99,0,0,0,0,0
6,69999,85,60000,7,0,40,9999,0.100000,99,0,0.000000,16,0.000000,17.069951,0.121988,99,99,0,0,0,0,0
6,69999,86,60000,77,0,40,9999,0.100000,99,0,0.000000,16,0.000000,32.911351,15.436087,99,99,0,0,0,0,0
6,69999,87,60000,48,20000,40,9999,0.100000,99,0,0.000000,16,2.000000,30.636338,12.693336,99,99,0,0,0,0,0
6,69999,88,60000,32,0,0,9999,0.100000,99,0,2.700087,16,0.000000,31.749009,1.670143,99,99,0,0,1,0,0
6,69999,89,60000,15,30000,40,9999,0.100000,99,0,0.000000,16,0.000000,23.889280,1.957596,99,99,0,0,0,0,0
6,69999,90,60000,43,50000,40,9999,0.100000,99,0,0.000000,16,0.000000,20.881015,23.890165,99,99,0,0,0,0,0
6,69999,91,60000,56,20000,40,9999,0.100000,99,0,0.000000,16,1.000000,32.130171,18.794093,99,99,0,0,0,0,0
6,69999,92,60000,11,10000,40,9999,0.100000,99,0,0.000000,16,0.000000,30.251011,0.504189,99,99,0,0,0,0,0
6,69999,93,60000,93,40000,40,9999,0.100000,99,0,0.000000,16,0.000000,32.771291,3.807276,99,99,0,0,0,0,0
6,69999,94,60000,54,30000,40,9999,0.100000,99,0,0.000000,16,1.000000,19.980061,2.860736,99,99,0,0,0,0,0
6,69999,95,60000,54,40000,40,9999,0.100000,99,0,0.000000,16,0.000000,17.801407,0.787075,99,99,0,0,0,0,0
6,69999,96,60000,32,0,40,9999,0.100000,99,0,0.000000,16,2.000000,32.585792,18.494396,99,99,0,0,0,0,0
6,69999,97,60000,48,20000,40,9999,0.100000,99,0,0.000000,16,0.000000,22.972259,3.342739,99,99,0,0,0,0,0
6,69999,98,60000,42,40000,40,9999,0.100000,99,0,0.000000,16,0.000000,24.309114,0.270372,99,99,0,0,0,0,0
6,69999,99,60000,54,40000,90,9999,0.100000,99,0,3.553804,16,0.000000,28.154487,0.940640,99,99,1,0,0,0,0
7,79999,0,70000,43,50000,40,9999,0.100000,99,0,0.000000,17,3.000000,32.488848,24.691275,99,99,0,0,0,0,0
7,79999,1,70000,54,30000,0,9999,0.100000,99,0,0.218801,16,0.000000,18.923503,0.105778,99,99,0,0,0,0,1
7,79999,2,70000,7,0,40,9999,0.100000,99,0,0.000000,17,0.000000,34.032567,0.240800,99,99,0,0,0,0,0
7,79999,3,70000,54,40000,40,9999,0.100000,99,0,0.000000,17,0.000000,28.676468,8.678973,99,99,0,0,0,0,0
7,79999,4,70000,93,40000,0,9999,0.100000,99,0,0.000218,17,0.000000,22.987967,0.155854,99,99,0,0,0,1,0
7,79999,5,70000,7,0,0,9999,0.100000,99,0,0.129209,16,0.000000,18.598003,0.102336,99,99,0,0,0,0,1
7,79999,6,70000,32,0,0,9999,0.100000,99,0,0.870353,17,0.000000,23.627201,0.242581,99,99,0,0,0,0,1
7,79999,7,70000,54,40000,40,9999,0.100000,99,0,0.000000,17,2.000000,25.035873,11.533714,99,99,0,0,0,0,0
7,79999,8,70000,76,0,40,9999,0.100000,99,0,0.000000,16,0.000000,37.185610,0.112979,99,99,0,0,0,0,0
7,79999,9,70000,99,0,40,9999,0.100000,99,0,0.000000,17,2.000000,20.437799,9.681199,99,99,0,0,0,0,0
7,79999,10,70000,48,20000,40,9999,0.100000,99,0,0.000000,17,0.000000,23.345583,1.259182,99,99,0,0,0,0,0
7,79999,11,70000,93,40000,40,9999,0.100000,99,0,0.000000,17,0.000000,31.232638,8.386001,99,99,0,0,0,0,0
7,79999,12,70000,48,20000,40,9999,0.100000,99,0,0.000000,17,0.000000,17.278393,0.109421,99,99,0,0,0,0,0
7,79999,13,70000,48,20000,40,9999,0.100000,99,0,0.000000,17,0.000000,18.384680,0.129881,99,99,0,0,0,0,0
7,79999,14,70000,42,60000,41,9999,0.100000,99,0,0.000000,17,3.000000,23.864476,6.563168,99,99,0,0,0,0,0
7,79999,15,70000,99,0,40,9999,0.100000,99,0,0.000000,17,0.000000,31.824893,7.996557,99,99,0,0,0,0,0
7,79999,16,70000,76,0,40,9999,0.100000,99,0,0.000000,17,0.000000,30.845130,1.573158,99,99,0,0,0,0,0
7,79999,17,70000,11,10000,40,9999,0.100000,99,0,0.000000,17,0.000000,21.553639,1.063709,99,99,0,0,0,0,0
7,79999,18,70000,76,0,40,9999,0.100000,99,0,0.000000,17,1.000000,27.740203,4.153377,99,99,0,0,0,0,0
7,79999,19,70000,54,40000,40,9999,0.100000,99,0,0.000000,17,0.000000,26.084260,0.490014,99,99,0,0,0,0,0
7,79999,20,70000,48,20000,40,9999,0.100000,99,0,0.000000,17,1.000000,18.669412,11.139689,99,99,0,0,0,0,0
7,79999,21,70000,93,40000,40,9999,0.100000,99,0,0.000000,16,0.000000,13.698175,0.844152,99,99,0,0,0,0,0
7,79999,22,70000,56,20000,40,9999,0.100000,99,0,0.000000,17,1.000000,32.270557,2.555403,99,99,0,0,0,0,0
7,79999,23,70000,91,0,40,9999,0.100000,99,0,0.000000,17,0.000000,28.580637,6.515296,99,99,0,0,0,0,0
7,79999,24,70000,54,30000,0,9999,0.100000,99,0,4.611580,17,0.000000,33.048017,1.055602,99,99,0,0,1,0,0
7,79999,25,70000,11,10000,40,9999,0.100000,99,0,0.000000,17,1.000000,26.327067,6.440843,99,99,0,0,0,0,0
7,79999,26,70000,15,30000,40,9999,0.100000,99,0,0.000000,16,0.000000,19.286122,0.106790,99,99,0,0,0,0,0
7,79999,27,70000,48,20000,40,9999,0.100000,99,0,0.000000,17,2.000000,27.092671,12.801052,99,99,0,0,0,0,0
7,79999,28,70000,76,0,40,9999,0.100000,99,0,0.000000,17,0.000000,13.472690,10.837199,99,99,0,0,0,0,0
7,79999,29,70000,99,0,40,9999,0.100000,99,0,0.000000,17,0.000000,19.501719,0.326103,99,99,0,0,0,0,0
7,79999,30,70000,99,0,40,9999,0.100000,99,0,0.000000,17,0.000000,29.201983,5.719733,99,99,0,0,0,0,0
7,79999,31,70000,93,40000,40,9999,0.100000,99,0,0.000000,16,0.000000,30.318974,8.147164,99,99,0,0,0,0,0
7,79999,32,70000,42,60000,40,9999,0.100000,99,0,0.000000,17,0.000000,27.235333,0.804944,99,99,0,0,0,0,0
7,79999,33,70000,54,30000,40,9999,0.100000,99,0,0.000000,17,0.000000,10.311267,0.175664,99,99,0,0,0,0,0
7,79999,34,70000,48,20000,40,9999,0.100000,99,0,0.000000,16,0.000000,17.240177,3.140547,99,99,0,0,0,0,0
7,79999,35,70000,43,50000,40,9999,0.100000,99,0,0.000000,17,0.000000,26.170525,0.599403,99,99,0,0,0,0,0
7,79999,36,70000,77,0,40,9999,0.100000,99,0,0.000000,16,0.000000,24.780088,1.328919,99,99,0,0,0,0,0
7,79999,37,70000,93,40000,40,9999,0.100000,99,0,0.000000,17,0.000000,18.026666,0.080499,99,99,0,0,0,0,0
7,79999,38,70000,7,0,40,9999,0.100000,99,0,0.000000,16,0.000000,26.530713,4.512104,99,99,0,0,0,0,0
7,79999,39,70000,93,40000,40,9999,0.100000,99,0,0.000000,16,2.000000,32.393314,8.339136,99,99,0,0,0,0,0
7,79999,40,70000,43,50000,40,9999,0.100000,99,0,0.000000,17,0.000000,19.551156,1.999844,99,99,0,0,0,0,0
7,79999,41,70000,76,0,40,9999,0.100000,99,0,0.000000,17,1.000000,27.791353,19.691276,99,99,0,0,0,0,0
7,79999,42,70000,15,30000,40,9999,0.100000,99,0,0.000000,17,2.000000,34.476266,5.939467,99,99,0,0,0,0,0
7,79999,43,70000,43,50000,40,9999,0.100000,99,0,0.000000,17,0.000000,12.964472,0.435622,99,99,0,0,0,0,0
7,79999,44,70000,76,0,43,9999,0.100000,99,0,0.000000,17,9.000000,23.164874,23.903610,99,99,0,0,0,0,0
7,79999,45,70000,91,0,0,9999,0.100000,99,0,1.275775,16,0.000000,21.355822,0.594681,99,99,0,0,1,0,0
7,79999,46,70000,32,0,40,9999,0.100000,99,0,0.000000,17,0.000000,17.693720,1.406988,99,99,0,0,0,0,0
7,79999,47,70000,43,50000,0,9999,0.100000,99,0,4.582140,17,1.000000,32.103729,1.989870,99,99,0,0,1,0,0
7,79999,48,70000,77,0,40,9999,0.100000,99,0,0.000000,17,0.000000,24.815279,4.509140,99,99,0,0,0,0,0
7,79999,49,70000,23,10000,40,9999,0.100000,99,0,0.000000,17,0.000000,17.754095,0.316906,99,99,0,0,0,0,0
7,79999,50,70000,42,60000,40,9999,0.100000,99,0,0.000000,17,0.000000,33.232874,0.910415,99,99,0,0,0,0,0
7,79999,51,70000,48,20000,40,9999,0.100000,99,0,0.000000,17,0.000000,27.307970,0.675533,99,99,0,0,0,0,0
7,79999,52,70000,23,10000,40,9999,0.100000,99,0,0.000000,17,0.000000,30.792642,6.897774,99,99,0,0,0,0,0
7,79999,53,70000,77,0,41,9999,0.100000,99,0,0.000000,17,4.000000,23.023258,5.319262,99,99,0,0,0,0,0
7,79999,54,70000,7,0,0,9999,0.100000,99,0,0.193899,17,0.000000,30.137092,0.162148,99,99,0,0,1,0,0
7,79999,55,70000,93,40000,40,9999,0.100000,99,0,0.000000,17,0.000000,20.928435,22.913783,99,99,0,0,0,0,0
7,79999,56,70000,48,20000,40,9999,0.100000,99,0,0.000000,17,0.000000,13.177997,0.603568,99,99,0,0,0,0,0
7,79999,57,70000,23,10000,40,9999,0.100000,99,0,0.000000,17,2.000000,28.762669,6.463986,99,99,0,0,0,0,0
7,79999,58,70000,54,30000,40,9999,0.100000,99,0,0.000000,17,0.000000,21.461974,1.654617,99,99,0,0,0,0,0
7,79999,59,70000,99,0,41,9999,0.100000,99,0,0.000000,17,4.000000,23.409725,8.904283,99,99,0,0,0,0,0
7,79999,60,70000,93,40000,40,9999,0.100000,99,0,0.000000,17,0.000000,23.179138,3.457694,99,99,0,0,0,0,0
7,79999,61,70000,99,0,0,9999,0.100000,99,0,0.128151,17,0.000000,29.835795,1.433112,99,99,0,0,0,0,1
7,79999,62,70000,77,0,40,9999,0.100000,99,0,0.000000,17,0.000000,30.159404,7.228774,99,99,0,0,0,0,0
7,79999,63,70000,11,10000,40,9999,0.100000,99,0,0.000000,17,1.000000,32.900033,1.433444,99,99,0,0,0,0,0
7,79999,64,70000,48,20000,40,9999,0.100000,99,0,0.000000,17,2.000000,31.403249,12.490231,99,99,0,0,0,0,0
7,79999,65,70000,76,0,42,9999,0.100000,99,0,0.000000,17,6.000000,23.656251,11.655064,99,99,0,0,0,0,0
7,79999,66,70000,43,50000,40,9999,0.100000,99,0,0.000000,17,0.000000,29.989733,0.575351,99,99,0,0,0,0,0
7,79999,67,70000,7,0,42,9999,0.100000,99,0,0.000000,17,6.000000,23.072880,14.178169,99,99,0,0,0,0,0
7,79999,68,70000,43,50000,40,9999,0.100000,99,0,0.000000,17,0.000000,23.896197,0.263504,99,99,0,0,0,0,0
7,79999,69,70000,42,40000,40,9999,0.100000,99,0,0.000000,17,0.000000,17.504412,0.275364,99,99,0,0,0,0,0
7,79999,70,70000,93,40000,40,9999,0.100000,99,0,0.000000,17,0.000000,24.688003,0.494392,99,99,0,0,0,0,0
7,79999,71,70000,11,10000,40,9999,0.100000,99,0,0.000000,17,0.000000,23.514673,0.089161,99,99,0,0,0,0,0
7,79999,72,70000,99,0,0,9999,0.100000,99,0,0.596516,17,0.000000,27.534898,0.614041,99,99,0,0,0,1,0
7,79999,73,70000,42,40000,41,9999,0.100000,99,0,0.000000,17,2.000000,13.337738,17.152277,99,99,0,0,0,0,0
7,79999,74,70000,42,40000,40,9999,0.100000,99,0,0.000000,17,1.000000,26.657097,9.203829,99,99,0,0,0,0,0
7,79999,75,70000,77,0,40,9999,0.100000,99,0,0.000000,17,1.000000,31.999322,2.132030,99,99,0,0,0,0,0
7,79999,76,70000,42,60000,40,9999,0.100000,99,0,0.000000,17,0.000000,27.927180,0.932206,99,99,0,0,0,0,0
7,79999,77,70000,42,60000,0,9999,0.100000,99,0,13.488026,17,2.000000,34.585629,3.464411,99,99,0,1,0,0,0
7,79999,78,70000,42,40000,40,9999,0.100000,99,0,0.000000,17,0.000000,22.767074,0.615036,99,99,0,0,0,0,0
7,79999,79,70000,93,40000,40,9999,0.100000,99,0,0.000000,17,0.000000,23.533957,2.756583,99,99,0,0,0,0,0
7,79999,80,70000,99,0,40,9999,0.100000,99,0,0.000000,17,0.000000,21.878407,0.604294,99,99,0,0,0,0,0
7,79999,81,70000,91,0,40,9999,0.100000,99,0,0.000000,17,2.000000,28.652162,12.303412,99,99,0,0,0,0,0
7,79999,82,70000,77,0,0,9999,0.100000,99,0,0.031845,17,0.000000,13.411085,0.704619,99,99,0,0,0,1,0
7,79999,83,70000,15,30000,40,9999,0.100000,99,0,0.000000,17,0.000000,34.185673,0.234042,99,99,0,0,0,0,0
7,79999,84,70000,32,0,40,9999,0.100000,99,0,0.000000,17,0.000000,27.447785,12.900561,99,99,0,0,0,0,0
7,79999,85,70000,23,10000,0,9999,0.100000,99,0,0.229836,17,0.000000,17.067914,0.136008,99,99,0,0,0,0,1
7,79999,86,70000,56,20000,41,9999,0.100000,99,0,0.000000,17,4.000000,32.422747,17.412612,99,99,0,0,0,0,0
7,79999,87,70000,54,40000,40,9999,0.100000,99,0,0.000000,17,3.000000,32.785330,10.042561,99,99,0,0,0,0,0
7,79999,88,70000,7,0,40,9999,0.100000,99,0,0.000000,17,1.000000,31.898226,2.271729,99,99,0,0,0,0,0
7,79999,89,70000,93,40000,40,9999,0.100000,99,0,0.000000,17,0.000000,23.362185,6.611959,99,99,0,0,0,0,0
7,79999,90,70000,77,0,40,9999,0.100000,99,0,0.000000,17,0.000000,20.790760,23.914897,99,99,0,0,0,0,0
7,79999,91,70000,56,20000,40,9999,0.100000,99,0,0.000000,17,0.000000,32.784791,1.328817,99,99,0,0,0,0,0
7,79999,92,70000,76,0,40,9999,0.100000,99,0,0.000000,17,0.000000,30.262587,0.709339,99,99,0,0,0,0,0
7,79999,93,70000,7,0,40,9999,0.100000,99,0,0.000000,17,1.000000,32.101620,1.978466,99,99,0,0,0,0,0
7,79999,94,70000,77,0,40,9999,0.100000,99,0,0.000000,17,0.000000,19.549571,1.859747,99,99,0,0,0,0,0
7,79999,95,70000,76,0,40,9999,0.100000,99,0,0.000000,17,0.000000,17.804819,0.734619,99,99,0,0,0,0,0
7,79999,96,70000,77,0,40,9999,0.100000,99,0,0.000000,17,2.000000,32.468576,5.225529,99,99,0,0,0,0,0
7,79999,97,70000,76,0,40,9999,0.100000,99,0,0.000000,16,0.000000,23.188939,4.952618,99,99,0,0,0,0,0
7,79999,98,70000,15,30000,40,9999,0.100000,99,0,0.000000,17,0.000000,24.358196,0.299477,99,99,0,0,0,0,0
7,79999,99,70000,91,0,90,9999,0.100000,99,0,1.210692,17,0.000000,27.828308,0.858087,99,99,1,0,0,0,0
8,89999,0,80000,54,40000,40,9999,0.100000,99,0,0.000000,17,1.000000,29.549666,5.368880,99,99,0,0,0,0,0
8,89999,1,80000,99,0,0,9999,0.100000,99,0,0.164306,17,0.000000,18.955698,0.124015,99,99,0,0,0,0,1
8,89999,2,80000,54,40000,40,9999,0.100000,99,0,0.000000,17,0.000000,34.032852,0.246426,99,99,0,0,0,0,0
8,89999,3,80000,7,0,40,9999,0.100000,99,0,0.000000,17,0.000000,28.823642,2.712972,99,99,0,0,0,0,0
8,89999,4,80000,93,40000,0,9999,0.100000,99,0,0.000011,17,0.000000,22.988578,0.155845,99,99,0,0,0,1,0
8,89999,5,80000,91,0,40,9999,0.100000,99,0,0.000000,17,0.000000,18.562946,0.112697,99,99,0,0,0,0,0
8,89999,6,80000,43,50000,40,9999,0.100000,99,0,0.000000,17,0.000000,23.651981,0.185264,99,99,0,0,0,0,0
8,89999,7,80000,42,60000,40,9999,0.100000,99,0,0.000000,17,2.000000,26.649825,10.326657,99,99,0,0,0,0,0
8,89999,8,80000,42,60000,40,9999,0.100000,99,0,0.000000,17,0.000000,37.187339,0.113250,99,99,0,0,0,0,0
8,89999,9,80000,99,0,40,9999,0.100000,99,0,0.000000,17,0.000000,21.148393,12.295621,99,99,0,0,0,0,0
8,89999,10,80000,42,40000,0,9999,0.100000,99,0,0.028708,17,0.000000,23.793335,1.376213,99,99,0,0,0,1,0
8,89999,11,80000,43,50000,41,9999,0.100000,99,0,0.000000,17,4.000000,31.079210,9.843953,99,99,0,0,0,0,0
8,89999,12,80000,42,40000,0,9999,0.100000,99,0,0.172698,17,0.000000,17.278446,0.116605,99,99,0,0,0,0,1
8,89999,13,80000,77,0,0,9999,0.100000,99,0,0.145059,17,0.000000,18.344918,0.131118,99,99,0,0,0,0,1
8,89999,14,80000,32,0,40,9999,0.100000,99,0,0.000000,17,2.000000,25.526699,8.915701,99,99,0,0,0,0,0
8,89999,15,80000,54,30000,40,9999,0.100000,99,0,0.000000,17,2.000000,31.908729,15.891531,99,99,0,0,0,0,0
8,89999,16,80000,15,30000,40,9999,0.100000,99,0,0.000000,17,0.000000,30.693861,0.391970,99,99,0,0,0,0,0
8,89999,17,80000,7,0,40,9999,0.100000,99,0,0.000000,17,0.000000,21.664530,1.792233,99,99,0,0,0,0,0
8,89999,18,80000,42,40000,40,9999,0.100000,99,0,0.000000,17,0.000000,27.233830,3.927938,99,99,0,0,0,0,0
8,89999,19,80000,43,50000,40,9999,0.100000,99,0,0.000000,17,0.000000,25.679492,0.733680,99,99,0,0,0,0,0
8,89999,20,80000,23,10000,40,9999,0.100000,99,0,0.000000,17,0.000000,19.942569,8.180623,99,99,0,0,0,0,0
8,89999,21,80000,11,10000,40,9999,0.100000,99,0,0.000000,17,0.000000,13.606093,0.931312,99,99,0,0,0,0,0
8,89999,22,80000,93,40000,40,9999,0.100000,99,0,0.000000,17,2.000000,32.201701,3.895623,99,99,0,0,0,0,0
8,89999,23,80000,93,40000,40,9999,0.100000,99,0,0.000000,17,0.000000,29.179177,6.169746,99,99,0,0,0,0,0
8,89999,24,80000,91,0,0,9999,0.100000,99,0,0.153128,17,0.000000,32.896133,1.016534,99,99,0,0,1,0,0
8,89999,25,80000,32,0,40,9999,0.100000,99,0,0.000000,17,0.000000,25.322781,8.217391,99,99,0,0,0,0,0
8,89999,26,80000,32,0,40,9999,0.100000,99,0,0.000000,17,0.000000,19.317237,0.432331,99,99,0,0,0,0,0
8,89999,27,80000,23,10000,40,9999,0.100000,99,0,0.000000,17,1.000000,26.894298,9.137927,99,99,0,0,0,0,0
8,89999,28,80000,48,20000,42,9999,0.100000,99,0,0.000000,17,3.000000,12.559839,7.690626,99,99,0,0,0,0,0
8,89999,29,80000,23,10000,40,9999,0.100000,99,0,0.000000,17,0.000000,19.531916,0.771238,99,99,0,0,0,0,0
8,89999,30,80000,56,20000,41,9999,0.100000,99,0,0.000000,17,5.000000,29.345753,12.374516,99,99,0,0,0,0,0
8,89999,31,80000,54,40000,40,9999,0.100000,99,0,0.000000,17,1.000000,30.194779,11.256359,99,99,0,0,0,0,0
8,89999,32,80000,77,0,40,9999,0.100000,99,0,0.000000,17,0.000000,27.539168,0.644842,99,99,0,0,0,0,0
8,89999,33,80000,76,0,40,9999,0.100000,99,0,0.000000,17,0.000000,10.259597,0.123648,99,99,0,0,0,0,0
8,89999,34,80000,93,40000,40,9999,0.100000,99,0,0.000000,17,1.000000,17.078354,6.256726,99,99,0,0,0,0,0
8,89999,35,80000,77,0,40,9999,0.100000,99,0,0.000000,17,0.000000,25.765813,0.978435,99,99,0,0,0,0,0
8,89999,36,80000,54,30000,40,9999,0.100000,99,0,0.000000,17,0.000000,24.800940,16.336207,99,99,0,0,0,0,0
8,89999,37,80000,56,20000,40,9999,0.100000,99,0,0.000000,17,0.000000,17.978006,0.089099,99,99,0,0,0,0,0
8,89999,38,80000,54,30000,41,9999,0.100000,99,0,0.000000,17,3.000000,26.538713,17.746139,99,99,0,0,0,0,0
8,89999,39,80000,42,60000,40,9999,0.100000,99,0,0.000000,17,0.000000,29.678763,1.506012,99,99,0,0,0,0,0
8,89999,40,80000,54,40000,40,9999,0.100000,99,0,0.000000,17,0.000000,19.547348,1.982090,99,99,0,0,0,0,0
8,89999,41,80000,54,40000,40,9999,0.100000,99,0,0.000000,17,0.000000,28.620699,1.004595,99,99,0,0,0,0,0
8,89999,42,80000,77,0,40,9999,0.100000,99,0,0.000000,17,0.000000,36.296027,5.749482,99,99,0,0,0,0,0
8,89999,43,80000,54,30000,40,9999,0.100000,99,0,0.000000,17,0.000000,12.910708,0.459448,99,99,0,0,0,0,0
8,89999,44,80000,32,0,40,9999,0.100000,99,0,0.000000,17,0.000000,19.933044,16.998215,99,99,0,0,0,0,0
8,89999,45,80000,93,40000,0,9999,0.100000,99,0,1.991342,17,0.000000,21.457434,0.888436,99,99,0,0,1,0,0
8,89999,46,80000,42,40000,40,9999,0.100000,99,0,0.000000,17,0.000000,17.686853,1.358128,99,99,0,0,0,0,0
8,89999,47,80000,93,40000,0,9999,0.100000,99,0,1.270449,17,2.000000,32.000224,2.450780,99,99,0,0,1,0,0
8,89999,48,80000,42,40000,40,9999,0.100000,99,0,0.000000,17,0.000000,25.703909,7.538556,99,99,0,0,0,0,0
8,89999,49,80000,42,60000,40,9999,0.100000,99,0,0.000000,17,0.000000,17.699086,0.319759,99,99,0,0,0,0,0
8,89999,50,80000,54,40000,40,9999,0.100000,99,0,0.000000,17,1.000000,33.179080,1.523178,99,99,0,0,0,0,0
8,89999,51,80000,7,0,40,9999,0.100000,99,0,0.000000,17,0.000000,27.621157,0.391079,99,99,0,0,0,0,0
8,89999,52,80000,48,20000,40,9999,0.100000,99,0,0.000000,17,1.000000,31.040316,9.142372,99,99,0,0,0,0,0
8,89999,53,80000,43,50000,40,9999,0.100000,99,0,0.000000,17,0.000000,18.526796,0.226383,99,99,0,0,0,0,0
8,89999,54,80000,54,40000,0,9999,0.100000,99,0,0.200827,17,0.000000,30.138744,0.154814,99,99,0,0,1,0,0
8,89999,55,80000,91,0,40,9999,0.100000,99,0,0.000000,17,1.000000,21.084477,23.358091,99,99,0,0,0,0,0
8,89999,56,80000,23,10000,0,9999,0.100000,99,0,0.197836,17,0.000000,13.108596,0.450914,99,99,0,0,0,1,0
8,89999,57,80000,43,50000,40,9999,0.100000,99,0,0.000000,17,2.000000,26.352287,10.151758,99,99,0,0,0,0,0
8,89999,58,80000,7,0,40,9999,0.100000,99,0,0.000000,17,0.000000,21.565310,10.150921,99,99,0,0,0,0,0
8,89999,59,80000,54,30000,91,9999,0.100000,99,0,26.675320,17,4.000000,27.853613,18.748965,99,99,1,0,0,0,0
8,89999,60,80000,48,20000,41,9999,0.100000,99,0,0.000000,17,3.000000,23.541037,11.634897,99,99,0,0,0,0,0
8,89999,61,80000,43,50000,0,9999,0.100000,99,0,0.280660,17,0.000000,29.829714,0.983079,99,99,0,0,0,0,1
8,89999,62,80000,15,30000,40,9999,0.100000,99,0,0.000000,17,1.000000,29.781054,8.976997,99,99,0,0,0,0,0
8,89999,63,80000,15,30000,40,9999,0.100000,99,0,0.000000,17,0.000000,32.636748,0.760779,99,99,0,0,0,0,0
8,89999,64,80000,23,10000,40,9999,0.100000,99,0,0.000000,17,1.000000,29.465092,8.334614,99,99,0,0,0,0,0
8,89999,65,80000,11,10000,40,9999,0.100000,99,0,0.000000,17,2.000000,28.042853,5.093261,99,99,0,0,0,0,0
8,89999,66,80000,42,40000,40,9999,0.100000,99,0,0.000000,17,0.000000,29.988822,0.315837,99,99,0,0,0,0,0
8,89999,67,80000,56,20000,40,9999,0.100000,99,0,0.000000,17,0.000000,28.336331,5.941132,99,99,0,0,0,0,0
8,89999,68,80000,56,20000,0,9999,0.100000,99,0,0.587680,17,0.000000,23.922129,0.193886,99,99,0,0,0,0,1
8,89999,69,80000,54,30000,40,9999,0.100000,99,0,0.000000,17,0.000000,17.503453,0.268376,99,99,0,0,0,0,0
8,89999,70,80000,23,10000,40,9999,0.100000,99,0,0.000000,17,0.000000,24.709624,0.442237,99,99,0,0,0,0,0
8,89999,71,80000,77,0,40,9999,0.100000,99,0,0.000000,17,0.000000,23.514971,0.089246,99,99,0,0,0,0,0
8,89999,72,80000,11,10000,0,9999,0.100000,99,0,0.330514,17,0.000000,27.894031,0.262604,99,99,0,0,0,1,0
8,89999,73,80000,93,40000,40,9999,0.100000,99,0,0.000000,17,0.000000,11.502946,13.784281,99,99,0,0,0,0,0
8,89999,74,80000,91,0,40,9999,0.100000,99,0,0.000000,17,0.000000,25.243809,13.482070,99,99,0,0,0,0,0
8,89999,75,80000,91,0,40,9999,0.100000,99,0,0.000000,17,2.000000,32.108691,2.844479,99,99,0,0,0,0,0
8,89999,76,80000,76,0,40,9999,0.100000,99,0,0.000000,17,0.000000,28.267476,0.610713,99,99,0,0,0,0,0
8,89999,77,80000,42,60000,0,9999,0.100000,99,0,2.898886,17,0.000000,36.338940,1.045410,99,99,0,1,0,0,0
8,89999,78,80000,48,20000,40,9999,0.100000,99,0,0.000000,17,0.000000,22.783199,0.461400,99,99,0,0,0,0,0
8,89999,79,80000,99,0,40,9999,0.100000,99,0,0.000000,17,0.000000,23.789001,1.709785,99,99,0,0,0,0,0
8,89999,80,80000,43,50000,40,9999,0.100000,99,0,0.000000,17,0.000000,21.976706,0.922373,99,99,0,0,0,0,0
8,89999,81,80000,76,0,41,9999,0.100000,99,0,0.000000,17,3.000000,26.622646,17.017625,99,99,0,0,0,0,0
8,89999,82,80000,91,0,40,9999,0.100000,99,0,0.000000,17,0.000000,13.330217,0.601707,99,99,0,0,0,0,0
8,89999,83,80000,43,50000,40,9999,0.100000,99,0,0.000000,17,0.000000,34.185921,0.238606,99,99,0,0,0,0,0
8,89999,84,80000,42,60000,40,9999,0.100000,99,0,0.000000,17,1.000000,27.095986,4.205443,99,99,0,0,0,0,0
8,89999,85,80000,15,30000,42,9999,0.100000,99,0,0.000000,17,5.000000,17.067596,11.136632,99,99,0,0,0,0,0
8,89999,86,80000,42,60000,40,9999,0.100000,99,0,0.000000,17,1.000000,30.480918,4.832256,99,99,0,0,0,0,0
8,89999,87,80000,48,20000,40,9999,0.100000,99,0,0.000000,17,0.000000,29.551373,1.541428,99,99,0,0,0,0,0
8,89999,88,80000,23,10000,40,9999,0.100000,99,0,0.000000,17,2.000000,32.219437,3.180391,99,99,0,0,0,0,0
8,89999,89,80000,76,0,40,9999,0.100000,99,0,0.000000,17,0.000000,23.851037,7.441910,99,99,0,0,0,0,0
8,89999,90,80000,91,0,40,9999,0.100000,99,0,0.000000,17,1.000000,21.027581,24.083400,99,99,0,0,0,0,0
8,89999,91,80000,15,30000,40,9999,0.100000,99,0,0.000000,17,0.000000,32.757826,0.243875,99,99,0,0,0,0,0
8,89999,92,80000,7,0,40,9999,0.100000,99,0,0.000000,17,0.000000,30.274222,0.703048,99,99,0,0,0,0,0
8,89999,93,80000,32,0,42,9999,0.100000,99,0,0.000000,17,7.000000,32.136956,12.271724,99,99,0,0,0,0,0
8,89999,94,80000,32,0,40,9999,0.100000,99,0,0.000000,17,0.000000,19.512193,1.875124,99,99,0,0,0,0,0
8,89999,95,80000,42,60000,40,9999,0.100000,99,0,0.000000,17,0.000000,17.800027,0.786025,99,99,0,0,0,0,0
8,89999,96,80000,42,40000,40,9999,0.100000,99,0,0.000000,17,1.000000,32.067861,5.730980,99,99,0,0,0,0,0
8,89999,97,80000,11,10000,40,9999,0.135000,99,0,0.000000,17,0.000000,23.652667,2.176181,99,99,0,0,0,0,0
8,89999,98,80000,11,10000,40,9999,0.100000,99,0,0.000000,17,0.000000,24.387853,0.268315,99,99,0,0,0,0,0
8,89999,99,80000,54,40000,90,9999,0.100000,99,0,4.379974,17,0.000000,28.471601,0.853116,99,99,1,0,0,0,0
9,99999,0,90000,11,10000,40,9999,0.100000,99,0,0.000000,17,0.000000,29.506414,2.207601,99,99,0,0,0,0,0
9,99999,1,90000,43,50000,0,9999,0.100000,99,0,0.013098,17,0.000000,18.977015,0.099284,99,99,0,0,0,0,1
9,99999,2,90000,56,20000,40,9999,0.100000,99,0,0.000000,17,0.000000,34.033508,0.249419,99,99,0,0,0,0,0
9,99999,3,90000,99,0,40,9999,0.100000,99,0,0.000000,17,0.000000,28.634269,4.421549,99,99,0,0,0,0,0
9,99999,4,90000,23,10000,0,9999,0.100000,99,0,0.000503,17,0.000000,22.989260,0.155275,99,99,0,0,0,1,0
9,99999,5,90000,11,10000,0,9999,0.100000,99,0,0.185481,17,0.000000,18.520724,0.118125,99,99,0,0,0,0,1
9,99999,6,90000,11,10000,0,9999,0.100000,99,0,0.562622,17,0.000000,23.686372,0.224680,99,99,0,0,0,0,1
9,99999,7,90000,15,30000,40,9999,0.100000,99,0,0.000000,17,2.000000,25.214927,11.219569,99,99,0,0,0,0,0
9,99999,8,90000,15,30000,40,9999,0.100000,99,0,0.000000,17,0.000000,37.188683,0.112881,99,99,0,0,0,0,0
9,99999,9,90000,42,60000,40,9999,0.100000,99,0,0.000000,17,2.000000,20.428439,7.227464,99,99,0,0,0,0,0
9,99999,10,90000,23,10000,0,9999,0.100000,99,0,0.000523,17,0.000000,23.909222,0.106196,99,99,0,0,0,1,0
9,99999,11,90000,48,20000,40,9999,0.100000,99,0,0.000000,17,0.000000,28.350986,6.959398,99,99,0,0,0,0,0
9,99999,12,90000,56,20000,40,9999,0.100000,99,0,0.000000,17,0.000000,17.268408,0.146604,99,99,0,0,0,0,0
9,99999,13,90000,93,40000,40,9999,0.100000,99,0,0.000000,17,0.000000,18.298282,0.132342,99,99,0,0,0,0,0
9,99999,14,90000,99,0,41,9999,0.100000,99,0,0.000000,17,3.000000,24.559162,13.817285,99,99,0,0,0,0,0
9,99999,15,90000,54,40000,40,9999,0.100000,99,0,0.000000,17,1.000000,30.681601,9.764174,99,99,0,0,0,0,0
9,99999,16,90000,99,0,40,9999,0.100000,99,0,0.000000,17,1.000000,30.880529,15.146172,99,99,0,0,0,0,0
9,99999,17,90000,32,0,40,9999,0.100000,99,0,0.000000,17,2.000000,21.801521,2.697274,99,99,0,0,0,0,0
9,99999,18,90000,42,60000,41,9999,0.100000,99,0,0.000000,17,4.000000,27.212945,16.700328,99,99,0,0,0,0,0
9,99999,19,90000,56,20000,40,9999,0.100000,99,0,0.000000,17,0.000000,25.137879,0.776587,99,99,0,0,0,0,0
9,99999,20,90000,11,10000,40,9999,0.100000,99,0,0.000000,17,2.000000,19.535282,7.081858,99,99,0,0,0,0,0
9,99999,21,90000,11,10000,0,9999,0.100000,99,0,1.534183,17,0.000000,13.505025,0.984189,99,99,0,0,0,1,0
9,99999,22,90000,23,10000,40,9999,0.100000,99,0,0.000000,17,1.000000,30.145762,4.028764,99,99,0,0,0,0,0
9,99999,23,90000,15,30000,40,9999,0.100000,99,0,0.000000,17,0.000000,29.368821,6.836435,99,99,0,0,0,0,0
9,99999,24,90000,77,0,0,9999,0.100000,99,0,3.627799,17,1.000000,32.581918,2.317617,99,99,0,0,1,0,0
9,99999,25,90000,42,60000,40,9999,0.100000,99,0,0.000000,17,1.000000,24.888090,11.835737,99,99,0,0,0,0,0
9,99999,26,90000,23,10000,40,9999,0.100000,99,0,0.000000,17,0.000000,19.332686,1.088845,99,99,0,0,0,0,0
9,99999,27,90000,76,0,40,9999,0.100000,99,0,0.000000,17,2.000000,25.448317,8.565775,99,99,0,0,0,0,0
9,99999,28,90000,77,0,42,9999,0.100000,99,0,0.000000,17,3.000000,14.225270,6.390371,99,99,0,0,0,0,0
9,99999,29,90000,54,30000,40,9999,0.100000,99,0,0.000000,17,0.000000,19.556525,0.467676,99,99,0,0,0,0,0
9,99999,30,90000,11,10000,40,9999,0.100000,99,0,0.000000,17,1.000000,30.300065,5.904794,99,99,0,0,0,0,0
9,99999,31,90000,99,0,40,9999,0.100000,99,0,0.000000,17,0.000000,30.603885,6.326972,99,99,0,0,0,0,0
9,99999,32,90000,11,10000,40,9999,0.100000,99,0,0.000000,17,0.000000,27.603422,0.636358,99,99,0,0,0,0,0
9,99999,33,90000,91,0,48,9999,0.100000,99,0,0.000000,17,9.000000,10.254654,19.739520,99,99,0,0,0,0,0
9,99999,34,90000,99,0,40,9999,0.100000,99,0,0.000000,17,1.000000,15.749268,10.186129,99,99,0,0,0,0,0
9,99999,35,90000,23,10000,40,9999,0.100000,99,0,0.000000,17,0.000000,25.220684,1.007770,99,99,0,0,0,0,0
9,99999,36,90000,32,0,40,9999,0.100000,99,0,0.000000,17,0.000000,24.776362,22.485408,99,99,0,0,0,0,0
9,99999,37,90000,32,0,40,9999,0.100000,99,0,0.000000,17,0.000000,17.921861,0.095214,99,99,0,0,0,0,0
9,99999,38,90000,93,40000,41,9999,0.065000,99,0,0.000000,17,3.000000,26.586846,14.820790,99,99,0,0,0,0,0
9,99999,39,90000,7,0,40,9999,0.100000,99,0,0.000000,17,2.000000,29.767889,14.916897,99,99,0,0,0,0,0
9,99999,40,90000,54,40000,40,9999,0.100000,99,0,0.000000,17,0.000000,19.227794,1.728394,99,99,0,0,0,0,0
9,99999,41,90000,77,0,0,9999,0.100000,99,0,0.209510,17,0.000000,28.405879,0.243973,99,99,0,0,0,1,0
9,99999,42,90000,23,10000,40,9999,0.100000,99,0,0.000000,17,0.000000,35.999544,5.067968,99,99,0,0,0,0,0
9,99999,43,90000,15,30000,40,9999,0.100000,99,0,0.000000,17,0.000000,12.863133,0.612493,99,99,0,0,0,0,0
9,99999,44,90000,15,30000,40,9999,0.100000,99,0,0.000000,17,0.000000,19.479161,2.015246,99,99,0,0,0,0,0
9,99999,45,90000,43,50000,40,9999,0.100000,99,0,0.000000,17,2.000000,21.634467,2.549309,99,99,0,0,0,0,0
9,99999,46,90000,54,40000,40,9999,0.100000,99,0,0.000000,17,0.000000,17.684218,1.930230,99,99,0,0,0,0,0
9,99999,47,90000,32,0,40,9999,0.100000,99,0,0.000000,17,1.000000,30.116828,2.177635,99,99,0,0,0,0,0
9,99999,48,90000,77,0,41,9999,0.100000,99,0,0.000000,17,4.000000,25.832193,7.589488,99,99,0,0,0,0,0
9,99999,49,90000,48,20000,40,9999,0.100000,99,0,0.000000,17,0.000000,17.636861,0.316412,99,99,0,0,0,0,0
9,99999,50,90000,99,0,40,9999,0.100000,99,0,0.000000,17,1.000000,32.701983,2.559861,99,99,0,0,0,0,0
9,99999,51,90000,43,50000,40,9999,0.100000,99,0,0.000000,17,0.000000,27.680439,0.389008,99,99,0,0,0,0,0
9,99999,52,90000,32,0,40,9999,0.100000,99,0,0.000000,17,3.000000,30.507368,18.185240,99,99,0,0,0,0,0
9,99999,53,90000,7,0,40,9999,0.100000,99,0,0.000000,17,0.000000,18.526677,0.244685,99,99,0,0,0,0,0
9,99999,54,90000,42,60000,40,9999,0.100000,99,0,0.000000,17,0.000000,30.143701,2.747930,99,99,0,0,0,0,0
9,99999,55,90000,42,60000,40,9999,0.100000,99,0,0.000000,17,0.000000,21.356976,10.913772,99,99,0,0,0,0,0
9,99999,56,90000,99,0,40,9999,0.100000,99,0,0.000000,17,0.000000,13.041840,0.413914,99,99,0,0,0,0,0
9,99999,57,90000,42,60000,40,9999,0.100000,99,0,0.000000,17,1.000000,24.754896,10.490320,99,99,0,0,0,0,0
9,99999,58,90000,15,30000,40,9999,0.100000,99,0,0.000000,17,2.000000,21.701404,8.890976,99,99,0,0,0,0,0
9,99999,59,90000,32,0,40,9999,0.100000,99,0,0.000000,17,2.000000,25.761074,6.740122,99,99,0,0,0,0,0
9,99999,60,90000,76,0,40,9999,0.100000,99,0,0.000000,17,1.000000,24.258682,4.114934,99,99,0,0,0,0,0
9,99999,61,90000,99,0,0,9999,0.100000,99,0,0.610846,17,0.000000,29.902972,0.950026,99,99,0,0,0,0,1
9,99999,62,90000,32,0,40,9999,0.100000,99,0,0.000000,17,2.000000,29.510345,3.840308,99,99,0,0,0,0,0
9,99999,63,90000,48,20000,40,9999,0.100000,99,0,0.000000,17,1.000000,32.459720,2.518608,99,99,0,0,0,0,0
9,99999,64,90000,76,0,40,9999,0.100000,99,0,0.000000,17,1.000000,30.173120,5.855789,99,99,0,0,0,0,0
9,99999,65,90000,54,40000,40,9999,0.100000,99,0,0.000000,17,0.000000,25.828563,1.285307,99,99,0,0,0,0,0
9,99999,66,90000,54,30000,40,9999,0.100000,99,0,0.000000,17,0.000000,30.083660,0.273441,99,99,0,0,0,0,0
9,99999,67,90000,42,40000,40,9999,0.100000,99,0,0.000000,17,0.000000,28.341777,7.633668,99,99,0,0,0,0,0
9,99999,68,90000,54,40000,40,9999,0.100000,99,0,0.000000,17,0.000000,23.954807,0.235332,99,99,0,0,0,0,0
9,99999,69,90000,54,40000,40,9999,0.100000,99,0,0.000000,17,0.000000,17.492637,0.286001,99,99,0,0,0,0,0
9,99999,70,90000,11,10000,40,9999,0.100000,99,0,0.000000,17,0.000000,24.755643,0.467370,99,99,0,0,0,0,0
9,99999,71,90000,28,80000,40,9999,0.100000,99,0,0.000000,17,0.000000,23.515270,0.089583,99,99,0,0,0,0,0
9,99999,72,90000,93,40000,40,9999,0.100000,99,0,0.000000,17,0.000000,27.940337,0.229283,99,99,0,0,0,0,0
9,99999,73,90000,32,0,40,9999,0.100000,99,0,0.000000,17,1.000000,11.572582,16.083859,99,99,0,0,0,0,0
9,99999,74,90000,42,40000,41,9999,0.100000,99,0,0.000000,17,3.000000,25.852678,12.714759,99,99,0,0,0,0,0
9,99999,75,90000,77,0,0,9999,0.100000,99,0,0.928698,17,1.000000,30.007055,2.575683,99,99,0,0,1,0,0
9,99999,76,90000,54,40000,40,9999,0.100000,99,0,0.000000,17,0.000000,28.168712,0.238726,99,99,0,0,0,0,0
9,99999,77,90000,48,20000,0,9999,0.100000,99,0,3.426222,17,0.000000,35.986178,1.172735,99,99,0,1,0,0,0
9,99999,78,90000,48,20000,40,9999,0.100000,99,0,0.000000,17,0.000000,22.849655,0.282784,99,99,0,0,0,0,0
9,99999,79,90000,23,10000,40,9999,0.100000,99,0,0.000000,17,0.000000,24.095240,3.905696,99,99,0,0,0,0,0
9,99999,80,90000,43,50000,0,9999,0.100000,99,0,2.411366,17,1.000000,22.149262,2.164513,99,99,0,0,1,0,0
9,99999,81,90000,43,50000,41,9999,0.100000,99,0,0.000000,17,3.000000,26.696758,14.778133,99,99,0,0,0,0,0
9,99999,82,90000,56,20000,40,9999,0.100000,99,0,0.000000,17,0.000000,13.245870,0.482125,99,99,0,0,0,0,0
9,99999,83,90000,32,0,40,9999,0.100000,99,0,0.000000,17,0.000000,34.185818,1.104749,99,99,0,0,0,0,0
9,99999,84,90000,42,40000,41,9999,0.100000,99,0,0.000000,17,3.000000,26.811136,7.353493,99,99,0,0,0,0,0
9,99999,85,90000,54,40000,40,9999,0.100000,99,0,0.000000,17,0.000000,17.058290,0.120556,99,99,0,0,0,0,0
9,99999,86,90000,48,20000,40,9999,0.100000,99,0,0.000000,17,0.000000,31.254813,0.976163,99,99,0,0,0,0,0
9,99999,87,90000,48,20000,40,9999,0.100000,99,0,0.000000,17,1.000000,29.623675,1.411416,99,99,0,0,0,0,0
9,99999,88,90000,76,0,40,9999,0.100000,99,0,0.000000,17,1.000000,29.898848,2.138745,99,99,0,0,0,0,0
9,99999,89,90000,23,10000,41,9999,0.100000,99,0,0.000000,17,4.000000,23.883216,8.576091,99,99,0,0,0,0,0
9,99999,90,90000,99,0,40,9999,0.100000,99,0,0.000000,17,1.000000,21.113550,14.461980,99,99,0,0,0,0,0
9,99999,91,90000,54,30000,40,9999,0.100000,99,0,0.000000,17,0.000000,32.758375,0.247598,99,99,0,0,0,0,0
9,99999,92,90000,11,10000,40,9999,0.100000,99,0,0.000000,17,0.000000,30.285828,1.269688,99,99,0,0,0,0,0
9,99999,93,90000,93,40000,40,9999,0.100000,99,0,0.000000,17,0.000000,34.316654,1.338557,99,99,0,0,0,0,0
9,99999,94,90000,54,30000,40,9999,0.100000,99,0,0.000000,17,0.000000,19.198282,2.027108,99,99,0,0,0,0,0
9,99999,95,90000,42,40000,0,9999,0.100000,99,0,0.019890,17,0.000000,17.783735,0.777087,99,99,0,0,0,0,1
9,99999,96,90000,11,10000,40,9999,0.100000,99,0,0.000000,17,1.000000,32.737644,6.806970,99,99,0,0,0,0,0
9,99999,97,90000,54,40000,40,9999,0.100000,99,0,0.000000,17,1.000000,23.950507,3.266945,99,99,0,0,0,0,0
9,99999,98,90000,54,30000,40,9999,0.100000,99,0,0.000000,17,0.000000,24.419903,0.397449,99,99,0,0,0,0,0
9,99999,99,90000,76,0,90,9999,0.100000,99,0,2.518436,17,0.000000,29.128913,0.792474,99,99,1,0,0,0,0
10,109999,0,100000,93,40000,40,9999,0.100000,99,0,0.000000,17,0.000000,29.594000,1.724009,99,99,0,0,0,0,0
10,109999,1,100000,54,30000,0,9999,0.100000,99,0,0.085751,17,0.000000,18.967207,0.088895,99,99,0,0,0,0,1
10,109999,2,100000,42,40000,40,9999,0.100000,99,0,0.000000,17,0.000000,34.033556,0.222057,99,99,0,0,0,0,0
10,109999,3,100000,48,20000,40,9999,0.100000,99,0,0.000000,18,0.000000,28.883768,5.956675,99,99,0,0,0,0,0
10,109999,4,100000,7,0,0,9999,0.100000,99,0,0.000957,17,0.000000,22.990081,0.156725,99,99,0,0,0,1,0
10,109999,5,100000,77,0,40,9999,0.100000,99,0,0.000000,18,0.000000,18.472379,0.120448,99,99,0,0,0,0,0
10,109999,6,100000,11,10000,0,9999,0.135000,99,0,1.629887,17,0.000000,23.790324,0.730869,99,99,0,0,0,0,1
10,109999,7,100000,11,10000,40,9999,0.100000,99,0,0.000000,18,2.000000,25.728285,9.340400,99,99,0,0,0,0,0
10,109999,8,100000,23,10000,40,9999,0.100000,99,0,0.000000,17,0.000000,37.190791,0.109579,99,99,0,0,0,0,0
10,109999,9,100000,42,40000,42,9999,0.100000,99,0,0.000000,17,6.000000,20.676494,16.302089,99,99,0,0,0,0,0
10,109999,10,100000,48,20000,0,9999,0.100000,99,0,0.000147,17,0.000000,23.978794,0.106407,99,99,0,0,0,1,0
10,109999,11,100000,15,30000,40,9999,0.100000,99,0,0.000000,17,1.000000,27.585211,7.804655,99,99,0,0,0,0,0
10,109999,12,100000,54,40000,40,9999,0.100000,99,0,0.000000,18,0.000000,17.222756,0.131529,99,99,0,0,0,0,0
10,109999,13,100000,7,0,0,9999,0.100000,99,0,0.164087,17,0.000000,18.244817,0.129436,99,99,0,0,0,0,1
10,109999,14,100000,15,30000,41,9999,0.100000,99,0,0.000000,17,3.000000,25.365715,13.604081,99,99,0,0,0,0,0
10,109999,15,100000,42,60000,40,9999,0.100000,99,0,0.000000,18,3.000000,31.062743,6.111055,99,99,0,0,0,0,0
10,109999,16,100000,42,40000,40,9999,0.100000,99,0,0.000000,17,3.000000,31.250953,10.658202,99,99,0,0,0,0,0
10,109999,17,100000,28,80000,40,9999,0.135000,99,0,0.000000,17,1.000000,22.684404,3.539977,99,99,0,0,0,0,0
10,109999,18,100000,91,0,40,9999,0.100000,99,0,0.000000,17,1.000000,22.971861,16.536379,99,99,0,0,0,0,0
10,109999,19,100000,54,30000,40,9999,0.100000,99,0,0.000000,17,0.000000,24.562365,0.757414,99,99,0,0,0,0,0
10,109999,20,100000,54,30000,40,9999,0.100000,99,0,0.000000,17,1.000000,20.941368,18.082467,99,99,0,0,0,0,0
10,109999,21,100000,91,0,0,9999,0.100000,99,0,1.662985,17,0.000000,13.691287,0.964240,99,99,0,0,0,1,0
10,109999,22,100000,54,30000,40,9999,0.100000,99,0,0.000000,17,0.000000,28.646651,1.527617,99,99,0,0,0,0,0
10,109999,23,100000,28,80000,40,9999,0.100000,99,0,0.000000,18,0.000000,29.247302,7.924071,99,99,0,0,0,0,0
10,109999,24,100000,43,50000,0,9999,0.100000,99,0,3.251914,17,0.000000,33.167719,0.962060,99,99,0,0,1,0,0
10,109999,25,100000,93,40000,40,9999,0.100000,99,0,0.000000,17,1.000000,25.551093,7.599734,99,99,0,0,0,0,0
10,109999,26,100000,7,0,40,9999,0.100000,99,0,0.000000,17,0.000000,19.329324,1.068254,99,99,0,0,0,0,0
10,109999,27,100000,43,50000,40,9999,0.100000,99,0,0.000000,17,1.000000,23.252044,4.764349,99,99,0,0,0,0,0
10,109999,28,100000,54,30000,40,9999,0.100000,99,0,0.000000,17,0.000000,10.360875,0.544682,99,99,0,0,0,0,0
10,109999,29,100000,42,60000,40,9999,0.100000,99,0,0.000000,17,0.000000,19.564553,0.431510,99,99,0,0,0,0,0
10,109999,30,100000,42,60000,40,9999,0.100000,99,0,0.000000,17,0.000000,29.268329,5.069196,99,99,0,0,0,0,0
10,109999,31,100000,42,40000,40,9999,0.100000,99,0,0.000000,18,0.000000,30.807303,6.667156,99,99,0,0,0,0,0
10,109999,32,100000,93,40000,40,9999,0.100000,99,0,0.000000,18,0.000000,27.673545,3.483457,99,99,0,0,0,0,0
10,109999,33,100000,42,40000,40,9999,0.100000,99,0,0.000000,18,0.000000,10.253757,0.163167,99,99,0,0,0,0,0
10,109999,34,100000,54,30000,40,9999,0.100000,99,0,0.000000,17,1.000000,16.920469,17.278825,99,99,0,0,0,0,0
10,109999,35,100000,42,60000,40,9999,0.100000,99,0,0.000000,17,0.000000,24.645579,0.997110,99,99,0,0,0,0,0
10,109999,36,100000,54,40000,40,9999,0.100000,99,0,0.000000,18,0.000000,24.852610,14.665931,99,99,0,0,0,0,0
10,109999,37,100000,54,30000,40,9999,0.100000,99,0,0.000000,17,0.000000,17.857651,0.096177,99,99,0,0,0,0,0
10,109999,38,100000,28,80000,40,9999,0.100000,99,0,0.000000,17,2.000000,28.279027,11.003169,99,99,0,0,0,0,0
10,109999,39,100000,43,50000,40,9999,0.100000,99,0,0.000000,18,0.000000,31.519661,21.454193,99,99,0,0,0,0,0
10,109999,40,100000,54,40000,40,9999,0.100000,99,0,0.000000,18,0.000000,19.047917,0.242071,99,99,0,0,0,0,0
10,109999,41,100000,42,60000,0,9999,0.100000,99,0,0.971396,17,0.000000,28.445570,0.458007,99,99,0,0,0,1,0
10,109999,42,100000,23,10000,40,9999,0.100000,99,0,0.000000,17,1.000000,35.571539,12.579023,99,99,0,0,0,0,0
10,109999,43,100000,15,30000,40,9999,0.100000,99,0,0.000000,17,0.000000,13.092474,0.639230,99,99,0,0,0,0,0
10,109999,44,100000,54,30000,40,9999,0.100000,99,0,0.000000,17,0.000000,19.476094,2.068563,99,99,0,0,0,0,0
10,109999,45,100000,77,0,0,9999,0.100000,99,0,11.124884,18,1.000000,22.470974,2.034788,99,99,0,0,1,0,0
10,109999,46,100000,32,0,40,9999,0.100000,99,0,0.000000,17,0.000000,17.603742,1.364399,99,99,0,0,0,0,0
10,109999,47,100000,42,60000,0,9999,0.100000,99,0,0.136320,18,0.000000,28.639032,0.920418,99,99,0,0,1,0,0
10,109999,48,100000,77,0,40,9999,0.100000,99,0,0.000000,17,3.000000,30.205004,7.098064,99,99,0,0,0,0,0
10,109999,49,100000,28,80000,40,9999,0.100000,99,0,0.000000,18,0.000000,17.565300,0.303061,99,99,0,0,0,0,0
10,109999,50,100000,42,60000,40,9999,0.100000,99,0,0.000000,17,0.000000,33.336929,1.201992,99,99,0,0,0,0,0
10,109999,51,100000,99,0,40,9999,0.100000,99,0,0.000000,18,0.000000,27.751265,2.671871,99,99,0,0,0,0,0
10,109999,52,100000,11,10000,40,9999,0.100000,99,0,0.000000,17,0.000000,27.334141,23.820910,99,99,0,0,0,0,0
10,109999,53,100000,99,0,40,9999,0.100000,99,0,0.000000,17,0.000000,18.524862,0.237896,99,99,0,0,0,0,0
10,109999,54,100000,42,60000,0,9999,0.100000,99,0,0.323785,18,0.000000,30.388655,2.090714,99,99,0,0,1,0,0
10,109999,55,100000,32,0,41,9999,0.100000,99,0,0.000000,17,3.000000,20.929247,14.924990,99,99,0,0,0,0,0
10,109999,56,100000,32,0,40,9999,0.100000,99,0,0.000000,18,0.000000,13.256696,0.407565,99,99,0,0,0,0,0
10,109999,57,100000,42,40000,42,9999,0.100000,99,0,0.000000,17,6.000000,25.131711,9.292945,99,99,0,0,0,0,0
10,109999,58,100000,76,0,40,9999,0.100000,99,0,0.000000,17,0.000000,23.030745,2.663575,99,99,0,0,0,0,0
10,109999,59,100000,77,0,40,9999,0.100000,99,0,0.000000,17,2.000000,24.099418,12.172695,99,99,0,0,0,0,0
10,109999,60,100000,48,20000,41,9999,0.100000,99,0,0.000000,18,3.000000,25.264709,22.142070,99,99,0,0,0,0,0
10,109999,61,100000,15,30000,0,9999,0.100000,99,0,0.127329,17,0.000000,29.992561,0.738448,99,99,0,0,0,0,1
10,109999,62,100000,48,20000,40,9999,0.100000,99,0,0.000000,18,1.000000,27.508870,10.072927,99,99,0,0,0,0,0
10,109999,63,100000,54,40000,40,9999,0.100000,99,0,0.000000,17,0.000000,33.005807,1.376893,99,99,0,0,0,0,0
10,109999,64,100000,32,0,40,9999,0.100000,99,0,0.000000,18,1.000000,28.267981,14.176275,99,99,0,0,0,0,0
10,109999,65,100000,7,0,41,9999,0.100000,99,0,0.000000,17,4.000000,25.216178,10.504686,99,99,0,0,0,0,0
10,109999,66,100000,43,50000,40,9999,0.100000,99,0,0.000000,17,0.000000,30.181307,0.173491,99,99,0,0,0,0,0
10,109999,67,100000,42,40000,40,9999,0.100000,99,0,0.000000,17,0.000000,28.502201,8.300107,99,99,0,0,0,0,0
10,109999,68,100000,11,10000,40,9999,0.100000,99,0,0.000000,18,0.000000,24.051839,0.501071,99,99,0,0,0,0,0
10,109999,69,100000,43,50000,40,9999,0.100000,99,0,0.000000,18,0.000000,17.441799,0.314825,99,99,0,0,0,0,0
10,109999,70,100000,43,50000,40,9999,0.100000,99,0,0.000000,17,0.000000,24.831854,0.649655,99,99,0,0,0,0,0
10,109999,71,100000,28,80000,40,9999,0.100000,99,0,0.000000,18,0.000000,23.515779,0.090517,99,99,0,0,0,0,0
10,109999,72,100000,43,50000,40,9999,0.100000,99,0,0.000000,17,0.000000,27.999070,0.600691,99,99,0,0,0,0,0
10,109999,73,100000,15,30000,45,9999,0.100000,99,0,0.000000,18,8.000000,13.150056,15.930616,99,99,0,0,0,0,0
10,109999,74,100000,54,30000,40,9999,0.100000,99,0,0.000000,17,1.000000,22.106695,14.473920,99,99,0,0,0,0,0
10,109999,75,100000,54,40000,40,9999,0.100000,99,0,0.000000,18,0.000000,28.512389,1.193993,99,99,0,0,0,0,0
10,109999,76,100000,77,0,40,9999,0.100000,99,0,0.000000,17,0.000000,28.218535,0.481193,99,99,0,0,0,0,0
10,109999,77,100000,99,0,0,9999,0.100000,99,0,1.579353,17,0.000000,35.558212,0.651177,99,99,0,1,0,0,0
10,109999,78,100000,42,40000,40,9999,0.100000,99,0,0.000000,18,0.000000,22.919265,0.288570,99,99,0,0,0,0,0
10,109999,79,100000,54,40000,40,9999,0.100000,99,0,0.000000,17,2.000000,24.147858,4.860673,99,99,0,0,0,0,0
10,109999,80,100000,77,0,40,9999,0.100000,99,0,0.000000,18,2.000000,22.897137,2.705182,99,99,0,0,0,0,0
10,109999,81,100000,7,0,40,9999,0.100000,99,0,0.000000,17,2.000000,28.392370,10.994459,99,99,0,0,0,0,0
10,109999,82,100000,43,50000,40,9999,0.100000,99,0,0.000000,18,0.000000,13.450467,0.524699,99,99,0,0,0,0,0
10,109999,83,100000,76,0,40,9999,0.100000,99,0,0.000000,17,0.000000,34.463621,0.236531,99,99,0,0,0,0,0
10,109999,84,100000,54,40000,43,9999,0.100000,99,0,0.000000,18,9.000000,25.516398,11.785139,99,99,0,0,0,0,0
10,109999,85,100000,54,30000,0,9999,0.100000,99,0,0.107032,18,0.000000,17.021456,0.106634,99,99,0,0,0,0,1
10,109999,86,100000,23,10000,40,9999,0.100000,99,0,0.000000,17,2.000000,31.531908,7.706375,99,99,0,0,0,0,0
10,109999,87,100000,77,0,40,9999,0.100000,99,0,0.000000,17,0.000000,30.675277,0.094325,99,99,0,0,0,0,0
10,109999,88,100000,99,0,40,9999,0.100000,99,0,0.000000,17,0.000000,28.390687,0.689547,99,99,0,0,0,0,0
10,109999,89,100000,32,0,40,9999,0.100000,99,0,0.000000,18,0.000000,25.365483,8.477687,99,99,0,0,0,0,0
10,109999,90,100000,32,0,40,9999,0.065000,99,0,0.000000,17,0.000000,19.733344,22.874969,99,99,0,0,0,0,0
10,109999,91,100000,93,40000,40,9999,0.100000,99,0,0.000000,18,0.000000,32.759492,0.233397,99,99,0,0,0,0,0
10,109999,92,100000,91,0,40,9999,0.100000,99,0,0.000000,17,0.000000,30.303970,1.676406,99,99,0,0,0,0,0
10,109999,93,100000,54,30000,41,9999,0.100000,99,0,0.000000,18,4.000000,34.876455,8.155433,99,99,0,0,0,0,0
10,109999,94,100000,32,0,40,9999,0.100000,99,0,0.000000,17,0.000000,19.048593,0.329782,99,99,0,0,0,0,0
10,109999,95,100000,23,10000,40,9999,0.100000,99,0,0.000000,18,0.000000,17.722262,2.542039,99,99,0,0,0,0,0
10,109999,96,100000,7,0,40,9999,0.100000,99,0,0.000000,17,0.000000,33.457286,1.682547,99,99,0,0,0,0,0
10,109999,97,100000,23,10000,41,9999,0.100000,99,0,0.000000,18,4.000000,25.145456,8.211725,99,99,0,0,0,0,0
10,109999,98,100000,93,40000,40,9999,0.100000,99,0,0.000000,17,0.000000,24.507984,0.656356,99,99,0,0,0,0,0
10,109999,99,100000,11,10000,90,9999,0.100000,99,0,1.549312,17,0.000000,29.117448,0.819871,99,99,1,0,0,0,0
11,119999,0,110000,11,10000,40,9999,0.100000,99,0,0.000000,18,0.000000,29.949823,1.402727,99,99,0,0,0,0,0
11,119999,1,110000,77,0,0,9999,0.100000,99,0,0.152121,18,0.000000,18.976166,0.111338,99,99,0,0,0,0,1
11,119999,2,110000,42,40000,40,9999,0.100000,99,0,0.000000,18,0.000000,34.033565,0.342842,99,99,0,0,0,0,0
11,119999,3,110000,48,20000,40,9999,0.100000,99,0,0.000000,18,1.000000,28.675703,10.060621,99,99,0,0,0,0,0
11,119999,4,110000,91,0,0,9999,0.100000,99,0,0.001219,18,0.000000,22.991113,0.154843,99,99,0,0,0,1,0
11,119999,5,110000,54,40000,40,9999,0.100000,99,0,0.000000,18,0.000000,18.425759,0.133607,99,99,0,0,0,0,0
11,119999,6,110000,15,30000,40,9999,0.100000,99,0,0.000000,18,0.000000,24.009951,0.786389,99,99,0,0,0,0,0
11,119999,7,110000,7,0,40,9999,0.100000,99,0,0.000000,18,1.000000,27.717518,10.686473,99,99,0,0,0,0,0
11,119999,8,110000,23,10000,40,9999,0.100000,99,0,0.000000,18,0.000000,37.191628,0.107462,99,99,0,0,0,0,0
11,119999,9,110000,93,100000,43,9999,0.100000,99,0,0.000000,18,5.000000,14.532172,14.302698,99,99,0,0,0,0,0
11,119999,10,110000,11,10000,0,9999,0.100000,99,0,0.000626,18,0.000000,24.048009,0.107835,99,99,0,0,0,1,0
11,119999,11,110000,42,60000,40,9999,0.100000,99,0,0.000000,18,3.000000,29.082946,7.221788,99,99,0,0,0,0,0
11,119999,12,110000,76,0,0,9999,0.100000,99,0,0.199301,18,0.000000,17.200822,0.175287,99,99,0,0,0,0,1
11,119999,13,110000,93,40000,0,9999,0.100000,99,0,0.156474,18,0.000000,18.192392,0.134764,99,99,0,0,0,0,1
11,119999,14,110000,77,0,40,9999,0.100000,99,0,0.000000,18,2.000000,27.535466,15.490477,99,99,0,0,0,0,0
11,119999,15,110000,54,30000,41,9999,0.100000,99,0,0.000000,18,3.000000,27.870257,14.263665,99,99,0,0,0,0,0
11,119999,16,110000,99,0,41,9999,0.100000,99,0,0.000000,18,4.000000,29.369604,5.797236,99,99,0,0,0,0,0
11,119999,17,110000,32,0,40,9999,0.100000,99,0,0.000000,18,1.000000,22.210725,1.759148,99,99,0,0,0,0,0
11,119999,18,110000,23,10000,40,9999,0.100000,99,0,0.000000,18,1.000000,23.766759,15.235787,99,99,0,0,0,0,0
11,119999,19,110000,32,0,40,9999,0.100000,99,0,0.000000,18,0.000000,24.002284,0.760966,99,99,0,0,0,0,0
11,119999,20,110000,54,40000,41,9999,0.100000,99,0,0.000000,18,4.000000,20.762468,22.718620,99,99,0,0,0,0,0
11,119999,21,110000,91,0,9,9999,0.100000,99,0,76.618784,18,14.000000,13.945147,16.261565,99,99,0,0,0,1,0
11,119999,22,110000,76,0,40,9999,0.100000,99,0,0.000000,18,0.000000,28.281555,0.768776,99,99,0,0,0,0,0
11,119999,23,110000,54,30000,40,9999,0.100000,99,0,0.000000,18,1.000000,28.352125,11.939227,99,99,0,0,0,0,0
11,119999,24,110000,42,60000,0,9999,0.100000,99,0,2.735668,18,0.000000,32.821332,0.855641,99,99,0,0,1,0,0
11,119999,25,110000,48,20000,40,9999,0.100000,99,0,0.000000,18,0.000000,25.089357,10.591911,99,99,0,0,0,0,0
11,119999,26,110000,54,40000,40,9999,0.100000,99,0,0.000000,18,0.000000,19.339558,1.048867,99,99,0,0,0,0,0
11,119999,27,110000,54,30000,40,9999,0.100000,99,0,0.000000,18,1.000000,23.971672,20.890111,99,99,0,0,0,0,0
11,119999,28,110000,33,90000,40,9999,0.100000,99,0,0.000000,18,0.000000,10.360400,0.547881,99,99,0,0,0,0,0
11,119999,29,110000,93,40000,40,9999,0.100000,99,0,0.000000,18,0.000000,19.586245,0.890994,99,99,0,0,0,0,0
11,119999,30,110000,91,0,40,9999,0.100000,99,0,0.000000,18,1.000000,29.395872,9.826268,99,99,0,0,0,0,0
11,119999,31,110000,32,0,40,9999,0.100000,99,0,0.000000,18,3.000000,30.367810,13.460751,99,99,0,0,0,0,0
11,119999,32,110000,99,0,40,9999,0.100000,99,0,0.000000,18,1.000000,28.120405,10.409096,99,99,0,0,0,0,0
11,119999,33,110000,7,0,40,9999,0.100000,99,0,0.000000,18,0.000000,10.253785,0.167827,99,99,0,0,0,0,0
11,119999,34,110000,43,50000,42,9999,0.100000,99,0,0.000000,18,4.000000,17.809649,10.804313,99,99,0,0,0,0,0
11,119999,35,110000,91,0,40,9999,0.100000,99,0,0.000000,18,0.000000,24.085009,0.985874,99,99,0,0,0,0,0
11,119999,36,110000,91,0,0,9999,0.100000,99,0,2.716823,18,0.000000,24.473644,0.790455,99,99,0,0,0,0,1
11,119999,37,110000,28,80000,40,9999,0.100000,99,0,0.000000,18,0.000000,17.793148,0.106886,99,99,0,0,0,0,0
11,119999,38,110000,54,40000,41,9999,0.100000,99,0,0.000000,18,4.000000,28.475403,14.880544,99,99,0,0,0,0,0
11,119999,39,110000,42,40000,40,9999,0.100000,99,0,0.000000,18,1.000000,31.197679,19.603410,99,99,0,0,0,0,0
11,119999,40,110000,43,50000,40,9999,0.100000,99,0,0.000000,18,0.000000,19.047216,0.238130,99,99,0,0,0,0,0
11,119999,41,110000,54,30000,0,9999,0.100000,99,0,2.469346,18,0.000000,28.689592,0.980060,99,99,0,0,0,1,0
11,119999,42,110000,93,40000,40,9999,0.100000,99,0,0.000000,18,1.000000,34.597393,23.063092,99,99,0,0,0,0,0
11,119999,43,110000,91,0,9,9999,0.100000,99,0,76.618784,18,15.000000,13.380843,16.966321,99,99,0,0,0,1,0
11,119999,44,110000,99,0,40,9999,0.100000,99,0,0.000000,18,0.000000,19.488783,2.067483,99,99,0,0,0,0,0
11,119999,45,110000,42,40000,40,9999,0.100000,99,0,0.000000,18,1.000000,21.843458,5.532857,99,99,0,0,0,0,0
11,119999,46,110000,42,40000,40,9999,0.100000,99,0,0.000000,18,0.000000,17.336370,1.001841,99,99,0,0,0,0,0
11,119999,47,110000,7,0,0,9999,0.100000,99,0,0.194502,18,0.000000,28.202824,0.473240,99,99,0,0,1,0,0
11,119999,48,110000,23,10000,40,9999,0.100000,99,0,0.000000,18,0.000000,32.053576,2.436612,99,99,0,0,0,0,0
11,119999,49,110000,42,40000,40,9999,0.100000,99,0,0.000000,18,0.000000,17.493148,0.306291,99,99,0,0,0,0,0
11,119999,50,110000,42,60000,40,9999,0.100000,99,0,0.000000,18,0.000000,32.985173,0.997720,99,99,0,0,0,0,0
11,119999,51,110000,99,0,40,9999,0.100000,99,0,0.000000,18,1.000000,27.800928,18.059643,99,99,0,0,0,0,0
11,119999,52,110000,93,100000,40,9999,0.100000,99,0,0.000000,18,1.000000,27.642133,10.229255,99,99,0,0,0,0,0
11,119999,53,110000,15,30000,40,9999,0.100000,99,0,0.000000,18,0.000000,18.521775,0.232767,99,99,0,0,0,0,0
11,119999,54,110000,11,10000,40,9999,0.100000,99,0,0.000000,18,0.000000,30.448444,0.054321,99,99,0,0,0,0,0
11,119999,55,110000,43,50000,40,9999,0.100000,99,0,0.000000,18,2.000000,20.032992,9.116291,99,99,0,0,0,0,0
11,119999,56,110000,54,30000,9,9999,0.100000,99,0,76.618784,18,15.000000,13.534304,15.716508,99,99,0,0,0,1,0
11,119999,57,110000,11,10000,40,9999,0.100000,99,0,0.000000,18,0.000000,21.985028,10.152400,99,99,0,0,0,0,0
11,119999,58,110000,42,60000,40,9999,0.100000,99,0,0.000000,18,0.000000,23.591826,0.725057,99,99,0,0,0,0,0
11,119999,59,110000,32,0,40,9999,0.100000,99,0,0.000000,18,0.000000,22.397397,11.221386,99,99,0,0,0,0,0
11,119999,60,110000,28,80000,94,9999,0.100000,99,0,50.833963,18,11.000000,25.165983,20.193819,99,99,1,0,0,0,0
11,119999,61,110000,76,0,40,9999,0.100000,99,0,0.000000,18,0.000000,30.040087,0.690618,99,99,0,0,0,0,0
11,119999,62,110000,33,90000,40,9999,0.100000,99,0,0.000000,18,2.000000,27.086120,8.938775,99,99,0,0,0,0,0
11,119999,63,110000,76,0,40,9999,0.100000,99,0,0.000000,18,0.000000,32.665595,1.275347,99,99,0,0,0,0,0
11,119999,64,110000,76,0,40,9999,0.100000,99,0,0.000000,18,1.000000,27.070368,4.546770,99,99,0,0,0,0,0
11,119999,65,110000,11,10000,41,9999,0.100000,99,0,0.000000,18,3.000000,27.834968,5.476277,99,99,0,0,0,0,0
11,119999,66,110000,43,50000,0,9999,0.100000,99,0,0.144732,18,0.000000,30.225063,0.195770,99,99,0,0,0,0,1
11,119999,67,110000,33,90000,40,9999,0.100000,99,0,0.000000,18,0.000000,28.674920,6.500693,99,99,0,0,0,0,0
11,119999,68,110000,93,40000,40,9999,0.100000,99,0,0.000000,18,0.000000,24.251377,0.785337,99,99,0,0,0,0,0
11,119999,69,110000,99,0,40,9999,0.100000,99,0,0.000000,18,0.000000,17.419201,0.873349,99,99,0,0,0,0,0
11,119999,70,110000,93,100000,40,9999,0.100000,99,0,0.000000,18,0.000000,24.989413,0.809459,99,99,0,0,0,0,0
11,119999,71,110000,7,0,40,9999,0.100000,99,0,0.000000,18,0.000000,23.516432,0.090567,99,99,0,0,0,0,0
11,119999,72,110000,91,0,40,9999,0.100000,99,0,0.000000,18,0.000000,28.323129,1.030602,99,99,0,0,0,0,0
11,119999,73,110000,42,60000,40,9999,0.100000,99,0,0.000000,18,0.000000,21.288346,3.508376,99,99,0,0,0,0,0
11,119999,74,110000,33,90000,40,9999,0.100000,99,0,0.000000,18,0.000000,21.151189,0.921143,99,99,0,0,0,0,0
11,119999,75,110000,11,10000,40,9999,0.100000,99,0,0.000000,18,0.000000,28.143065,0.473801,99,99,0,0,0,0,0
11,119999,76,110000,54,40000,40,9999,0.135000,99,0,0.000000,18,0.000000,28.501832,0.848867,99,99,0,0,0,0,0
11,119999,77,110000,32,0,0,9999,0.100000,99,0,0.101339,18,0.000000,35.359147,0.193155,99,99,0,1,0,0,0
