generation,iteration,robot,birthday,ancestor_id,ancestor_birthday,cell_id,age,sigma,maps,genomes,fitness,cells_in_map,dist_max,dist_pot_max,dist_total,com_rx,com_tx,obj_group1,obj_group2,obj_group3,obj_group4,obj_group5
0,9999,0,0,0,0,1,9999,0.100000,0,0,0.000000,0,10.000000,0.000000,16.203290,0,0,0,0,0,0,0
0,9999,1,0,1,0,1,9999,0.100000,0,0,0.000000,0,8.000000,0.000000,11.659623,0,0,0,0,0,0,0
0,9999,2,0,2,0,1,9999,0.100000,0,0,0.000000,0,9.000000,0.000000,11.320760,0,0,0,0,0,0,0
0,9999,3,0,3,0,1,9999,0.100000,0,0,0.000000,0,9.000000,0.000000,21.754272,0,0,0,0,0,0,0
0,9999,4,0,4,0,1,9999,0.100000,0,0,0.000000,0,9.000000,0.000000,15.958284,0,0,0,0,0,0,0
0,9999,5,0,5,0,1,9999,0.100000,0,0,0.000000,0,7.000000,0.000000,19.267047,0,0,0,0,0,0,0
0,9999,6,0,6,0,1,9999,0.100000,0,0,0.000000,0,7.000000,0.000000,11.674268,0,0,0,0,0,0,0
0,9999,7,0,7,0,1,9999,0.100000,0,0,0.000000,0,9.000000,0.000000,22.793058,0,0,0,0,0,0,0
0,9999,8,0,8,0,1,9999,0.100000,0,0,0.000000,0,6.000000,0.000000,23.459032,0,0,0,0,0,0,0
0,9999,9,0,9,0,1,9999,0.100000,0,0,0.000000,0,11.000000,0.000000,15.054295,0,0,0,0,0,0,0
0,9999,10,0,10,0,1,9999,0.100000,0,0,0.000000,0,4.000000,0.000000,7.752317,0,0,0,0,0,0,0
0,9999,11,0,11,0,1,9999,0.100000,0,0,0.000000,0,12.000000,0.000000,14.429039,0,0,0,0,0,0,0
0,9999,12,0,12,0,1,9999,0.100000,0,0,0.000000,0,4.000000,0.000000,5.045928,0,0,0,0,0,0,0
0,9999,13,0,13,0,1,9999,0.100000,0,0,0.000000,0,10.000000,0.000000,22.751635,0,0,0,0,0,0,0
0,9999,14,0,14,0,1,9999,0.100000,0,0,0.000000,0,8.000000,0.000000,17.717921,0,0,0,0,0,0,0
0,9999,15,0,15,0,1,9999,0.100000,0,0,0.000000,0,9.000000,0.000000,14.583980,0,0,0,0,0,0,0
0,9999,16,0,16,0,1,9999,0.100000,0,0,0.000000,0,3.000000,0.000000,9.575728,0,0,0,0,0,0,0
0,9999,17,0,17,0,3,9999,0.100000,0,0,78.820211,0,8.000000,0.000000,32.606185,0,0,1,0,0,0,0
0,9999,18,0,18,0,1,9999,0.100000,0,0,0.000000,0,7.000000,0.000000,13.392792,0,0,0,0,0,0,0
0,9999,19,0,19,0,1,9999,0.100000,0,0,0.000000,0,12.000000,0.000000,21.927091,0,0,0,0,0,0,0
0,9999,20,0,20,0,3,9999,0.100000,0,0,90.326657,0,9.000000,0.000000,31.085386,0,0,2,0,0,0,0
0,9999,21,0,21,0,1,9999,0.100000,0,0,0.000000,0,3.000000,0.000000,9.837300,0,0,0,0,0,0,0
0,9999,22,0,22,0,1,9999,0.100000,0,0,0.000000,0,10.000000,0.000000,24.680092,0,0,0,0,0,0,0
0,9999,23,0,23,0,1,9999,0.100000,0,0,0.000000,0,7.000000,0.000000,13.228292,0,0,0,0,0,0,0
0,9999,24,0,24,0,1,9999,0.100000,0,0,0.000000,0,4.000000,0.000000,6.173936,0,0,0,0,0,0,0
0,9999,25,0,25,0,1,9999,0.100000,0,0,0.000000,0,4.000000,0.000000,14.909846,0,0,0,0,0,0,0
0,9999,26,0,26,0,1,9999,0.100000,0,0,0.000000,0,4.000000,0.000000,12.444698,0,0,0,0,0,0,0
0,9999,27,0,27,0,1,9999,0.100000,0,0,0.000000,0,4.000000,0.000000,7.109206,0,0,0,0,0,0,0
0,9999,28,0,28,0,1,9999,0.100000,0,0,0.000000,0,10.000000,0.000000,17.175899,0,0,0,0,0,0,0
0,9999,29,0,29,0,1,9999,0.100000,0,0,0.000000,0,8.000000,0.000000,14.879024,0,0,0,0,0,0,0
0,9999,30,0,30,0,1,9999,0.100000,0,0,0.000000,0,6.000000,0.000000,15.622030,0,0,0,0,0,0,0
0,9999,31,0,31,0,1,9999,0.100000,0,0,47.368421,0,8.000000,0.000000,27.748439,0,0,0,1,0,0,0
0,9999,32,0,32,0,1,9999,0.100000,0,0,0.000000,0,9.000000,0.000000,12.937727,0,0,0,0,0,0,0
0,9999,33,0,33,0,1,9999,0.100000,0,0,0.000000,0,8.000000,0.000000,31.839747,0,0,0,0,0,0,0
0,9999,34,0,34,0,1,9999,0.100000,0,0,0.000000,0,2.000000,0.000000,4.839641,0,0,0,0,0,0,0
0,9999,35,0,35,0,1,9999,0.100000,0,0,0.000000,0,7.000000,0.000000,24.327119,0,0,0,0,0,0,0
0,9999,36,0,36,0,1,9999,0.100000,0,0,0.000000,0,7.000000,0.000000,17.353428,0,0,0,0,0,0,0
0,9999,37,0,37,0,1,9999,0.100000,0,0,0.000000,0,6.000000,0.000000,17.884237,0,0,0,0,0,0,0
0,9999,38,0,38,0,1,9999,0.100000,0,0,0.000000,0,8.000000,0.000000,14.061390,0,0,0,0,0,0,0
0,9999,39,0,39,0,1,9999,0.100000,0,0,0.000000,0,6.000000,0.000000,14.209392,0,0,0,0,0,0,0
0,9999,40,0,40,0,1,9999,0.100000,0,0,0.000000,0,10.000000,0.000000,21.734079,0,0,0,0,0,0,0
0,9999,41,0,41,0,1,9999,0.100000,0,0,0.000000,0,9.000000,0.000000,12.160714,0,0,0,0,0,0,0
0,9999,42,0,42,0,1,9999,0.100000,0,0,0.000000,0,8.000000,0.000000,16.047007,0,0,0,0,0,0,0
0,9999,43,0,43,0,1,9999,0.100000,0,0,0.000000,0,9.000000,0.000000,24.022360,0,0,0,0,0,0,0
0,9999,44,0,44,0,1,9999,0.100000,0,0,0.000000,0,4.000000,0.000000,5.179520,0,0,0,0,0,0,0
0,9999,45,0,45,0,1,9999,0.100000,0,0,0.000000,0,8.000000,0.000000,15.536408,0,0,0,0,0,0,0
0,9999,46,0,46,0,1,9999,0.100000,0,0,0.000000,0,8.000000,0.000000,16.551144,0,0,0,0,0,0,0
0,9999,47,0,47,0,1,9999,0.100000,0,0,0.000000,0,9.000000,0.000000,17.951553,0,0,0,0,0,0,0
0,9999,48,0,48,0,1,9999,0.100000,0,0,0.000000,0,5.000000,0.000000,10.213385,0,0,0,0,0,0,0
0,9999,49,0,49,0,1,9999,0.100000,0,0,0.000000,0,5.000000,0.000000,20.682505,0,0,0,0,0,0,0
0,9999,50,0,50,0,1,9999,0.100000,0,0,0.000000,0,9.000000,0.000000,16.457549,0,0,0,0,0,0,0
0,9999,51,0,51,0,1,9999,0.100000,0,0,0.000000,0,10.000000,0.000000,19.693570,0,0,0,0,0,0,0
0,9999,52,0,52,0,1,9999,0.100000,0,0,0.000000,0,3.000000,0.000000,3.759328,0,0,0,0,0,0,0
0,9999,53,0,53,0,1,9999,0.100000,0,0,0.000000,0,10.000000,0.000000,20.832307,0,0,0,0,0,0,0
0,9999,54,0,54,0,1,9999,0.100000,0,0,0.000000,0,1.000000,0.000000,6.083195,0,0,0,0,0,0,0
0,9999,55,0,55,0,1,9999,0.100000,0,0,0.000000,0,4.000000,0.000000,5.675608,0,0,0,0,0,0,0
0,9999,56,0,56,0,1,9999,0.100000,0,0,47.368421,0,8.000000,0.000000,12.033748,0,0,0,1,0,0,0
0,9999,57,0,57,0,1,9999,0.100000,0,0,0.000000,0,9.000000,0.000000,16.210468,0,0,0,0,0,0,0
0,9999,58,0,58,0,1,9999,0.100000,0,0,0.000000,0,6.000000,0.000000,12.994905,0,0,0,0,0,0,0
0,9999,59,0,59,0,1,9999,0.100000,0,0,0.000000,0,10.000000,0.000000,24.177758,0,0,0,0,0,0,0
0,9999,60,0,60,0,1,9999,0.100000,0,0,0.000000,0,6.000000,0.000000,19.133376,0,0,0,0,0,0,0
0,9999,61,0,61,0,3,9999,0.100000,0,0,19.486052,0,8.000000,0.000000,18.767280,0,0,1,0,0,0,0
0,9999,62,0,62,0,1,9999,0.100000,0,0,0.000000,0,7.000000,0.000000,15.083298,0,0,0,0,0,0,0
0,9999,63,0,63,0,1,9999,0.100000,0,0,0.000000,0,12.000000,0.000000,17.560784,0,0,0,0,0,0,0
0,9999,64,0,64,0,1,9999,0.100000,0,0,0.000000,0,7.000000,0.000000,12.373072,0,0,0,0,0,0,0
0,9999,65,0,65,0,1,9999,0.100000,0,0,0.000000,0,8.000000,0.000000,12.021017,0,0,0,0,0,0,0
0,9999,66,0,66,0,1,9999,0.100000,0,0,0.000000,0,9.000000,0.000000,21.716997,0,0,0,0,0,0,0
0,9999,67,0,67,0,1,9999,0.100000,0,0,0.000000,0,10.000000,0.000000,19.790724,0,0,0,0,0,0,0
0,9999,68,0,68,0,1,9999,0.100000,0,0,0.000000,0,9.000000,0.000000,22.241072,0,0,0,0,0,0,0
0,9999,69,0,69,0,1,9999,0.100000,0,0,0.000000,0,2.000000,0.000000,15.565745,0,0,0,0,0,0,0
0,9999,70,0,70,0,1,9999,0.100000,0,0,0.000000,0,9.000000,0.000000,18.854996,0,0,0,0,0,0,0
0,9999,71,0,71,0,1,9999,0.100000,0,0,0.000000,0,6.000000,0.000000,9.714584,0,0,0,0,0,0,0
0,9999,72,0,72,0,1,9999,0.100000,0,0,0.000000,0,11.000000,0.000000,14.871464,0,0,0,0,0,0,0
0,9999,73,0,73,0,1,9999,0.100000,0,0,0.000000,0,8.000000,0.000000,17.283030,0,0,0,0,0,0,0
0,9999,74,0,74,0,1,9999,0.100000,0,0,0.000000,0,5.000000,0.000000,12.677364,0,0,0,0,0,0,0
0,9999,75,0,75,0,1,9999,0.100000,0,0,0.000000,0,10.000000,0.000000,11.127420,0,0,0,0,0,0,0
0,9999,76,0,76,0,1,9999,0.100000,0,0,0.000000,0,9.000000,0.000000,13.053110,0,0,0,0,0,0,0
0,9999,77,0,77,0,1,9999,0.100000,0,0,0.000000,0,4.000000,0.000000,11.796532,0,0,0,0,0,0,0
0,9999,78,0,78,0,1,9999,0.100000,0,0,0.000000,0,9.000000,0.000000,19.406864,0,0,0,0,0,0,0
0,9999,79,0,79,0,1,9999,0.100000,0,0,0.000000,0,3.000000,0.000000,12.024706,0,0,0,0,0,0,0
0,9999,80,0,80,0,1,9999,0.100000,0,0,0.000000,0,2.000000,0.000000,7.031162,0,0,0,0,0,0,0
0,9999,81,0,81,0,1,9999,0.100000,0,0,0.000000,0,12.000000,0.000000,20.482430,0,0,0,0,0,0,0
0,9999,82,0,82,0,1,9999,0.100000,0,0,0.000000,0,10.000000,0.000000,13.466093,0,0,0,0,0,0,0
0,9999,83,0,83,0,1,9999,0.100000,0,0,0.000000,0,4.000000,0.000000,13.599127,0,0,0,0,0,0,0
0,9999,84,0,84,0,1,9999,0.100000,0,0,0.000000,0,3.000000,0.000000,11.134263,0,0,0,0,0,0,0
0,9999,85,0,85,0,1,9999,0.100000,0,0,0.000000,0,6.000000,0.000000,19.360505,0,0,0,0,0,0,0
0,9999,86,0,86,0,1,9999,0.100000,0,0,0.000000,0,6.000000,0.000000,17.593793,0,0,0,0,0,0,0
0,9999,87,0,87,0,1,9999,0.100000,0,0,0.000000,0,6.000000,0.000000,16.010770,0,0,0,0,0,0,0
0,9999,88,0,88,0,1,9999,0.100000,0,0,0.000000,0,9.000000,0.000000,18.956582,0,0,0,0,0,0,0
0,9999,89,0,89,0,1,9999,0.100000,0,0,0.000000,0,13.000000,0.000000,23.428131,0,0,0,0,0,0,0
0,9999,90,0,90,0,1,9999,0.100000,0,0,0.000000,0,2.000000,0.000000,7.932330,0,0,0,0,0,0,0
0,9999,91,0,91,0,1,9999,0.100000,0,0,0.000000,0,8.000000,0.000000,19.114312,0,0,0,0,0,0,0
0,9999,92,0,92,0,1,9999,0.100000,0,0,0.000000,0,5.000000,0.000000,26.550211,0,0,0,0,0,0,0
0,9999,93,0,93,0,1,9999,0.100000,0,0,0.000000,0,8.000000,0.000000,9.384231,0,0,0,0,0,0,0
0,9999,94,0,94,0,1,9999,0.100000,0,0,0.000000,0,6.000000,0.000000,17.343329,0,0,0,0,0,0,0
0,9999,95,0,95,0,1,9999,0.100000,0,0,0.000000,0,7.000000,0.000000,8.711882,0,0,0,0,0,0,0
0,9999,96,0,96,0,1,9999,0.100000,0,0,0.000000,0,3.000000,0.000000,9.261887,0,0,0,0,0,0,0
0,9999,97,0,97,0,1,9999,0.100000,0,0,0.000000,0,6.000000,0.000000,19.025237,0,0,0,0,0,0,0
0,9999,98,0,98,0,1,9999,0.100000,0,0,0.000000,0,8.000000,0.000000,18.578237,0,0,0,0,0,0,0
0,9999,99,0,99,0,1,9999,0.100000,0,0,0.000000,0,6.000000,0.000000,11.638903,0,0,0,0,0,0,0
1,19999,0,10000,0,0,0,9999,0.100000,0,0,0.000000,1,0.000000,0.000000,0.214940,0,0,0,0,0,0,0
1,19999,1,10000,68,0,0,9999,0.100000,0,0,0.000000,2,0.000000,0.000000,0.213446,0,0,0,0,0,0,0
1,19999,2,10000,63,0,0,9999,0.100000,0,0,0.000000,2,0.000000,0.000000,0.072413,0,0,0,0,0,0,0
1,19999,3,10000,63,0,1,9999,0.100000,0,0,0.000000,2,1.000000,0.000000,17.044548,0,0,0,0,0,0,0
1,19999,4,10000,75,0,1,9999,0.100000,0,0,34.210526,2,3.000000,0.000000,5.867274,0,0,0,1,0,0,0
1,19999,5,10000,63,0,1,9999,0.100000,0,0,0.000000,2,1.000000,0.000000,14.437801,0,0,0,0,0,0,0
1,19999,6,10000,0,0,1,9999,0.100000,0,0,0.000000,1,5.000000,0.000000,15.262775,0,0,0,0,0,0,0
1,19999,7,10000,63,0,0,9999,0.100000,0,0,0.000000,2,0.000000,0.000000,3.563419,0,0,0,0,0,0,0
1,19999,8,10000,63,0,1,9999,0.100000,0,0,0.000000,2,3.000000,0.000000,17.394549,0,0,0,0,0,0,0
1,19999,9,10000,63,0,1,9999,0.100000,0,0,0.000000,2,3.000000,0.000000,14.189499,0,0,0,0,0,0,0
1,19999,10,10000,63,0,0,9999,0.100000,0,0,0.000000,2,0.000000,0.000000,0.077281,0,0,0,0,0,0,0
1,19999,11,10000,68,0,0,9999,0.100000,0,0,0.000000,2,0.000000,0.000000,0.986714,0,0,0,0,0,0,0
1,19999,12,10000,63,0,0,9999,0.100000,0,0,0.000000,2,0.000000,0.000000,0.638867,0,0,0,0,0,0,0
1,19999,13,10000,0,0,1,9999,0.100000,0,0,0.000000,1,5.000000,0.000000,9.793881,0,0,0,0,0,0,0
1,19999,14,10000,68,0,1,9999,0.100000,0,0,0.000000,2,1.000000,0.000000,11.154456,0,0,0,0,0,0,0
1,19999,15,10000,63,0,1,9999,0.100000,0,0,0.000000,2,1.000000,0.000000,7.957791,0,0,0,0,0,0,0
1,19999,16,10000,68,0,1,9999,0.100000,0,0,0.000000,2,1.000000,0.000000,2.449045,0,0,0,0,0,0,0
1,19999,17,10000,63,0,1,9999,0.100000,0,0,0.000000,2,3.000000,0.000000,13.031900,0,0,0,0,0,0,0
1,19999,18,10000,20,0,1,9999,0.100000,0,0,0.000000,2,2.000000,0.000000,16.662342,0,0,0,0,0,0,0
1,19999,19,10000,0,0,1,9999,0.100000,0,0,0.000000,2,5.000000,0.000000,13.377681,0,0,0,0,0,0,0
1,19999,20,10000,20,0,1,9999,0.100000,0,0,0.000000,2,4.000000,0.000000,14.922561,0,0,0,0,0,0,0
1,19999,21,10000,20,0,0,9999,0.100000,0,0,0.000000,2,0.000000,0.000000,7.789008,0,0,0,0,0,0,0
1,19999,22,10000,63,0,0,9999,0.100000,0,0,0.000000,2,0.000000,0.000000,14.467059,0,0,0,0,0,0,0
1,19999,23,10000,20,0,0,9999,0.100000,0,0,0.000000,2,0.000000,0.000000,0.859616,0,0,0,0,0,0,0
1,19999,24,10000,75,0,1,9999,0.100000,0,0,0.000000,2,1.000000,0.000000,2.216810,0,0,0,0,0,0,0
1,19999,25,10000,20,0,1,9999,0.100000,0,0,0.000000,2,1.000000,0.000000,7.595431,0,0,0,0,0,0,0
1,19999,26,10000,19,0,1,9999,0.100000,0,0,0.000000,2,1.000000,0.000000,8.442200,0,0,0,0,0,0,0
1,19999,27,10000,20,0,0,9999,0.100000,0,0,0.000000,2,0.000000,0.000000,0.206780,0,0,0,0,0,0,0
1,19999,28,10000,63,0,1,9999,0.100000,0,0,0.000000,2,1.000000,0.000000,2.024975,0,0,0,0,0,0,0
1,19999,29,10000,63,0,1,9999,0.100000,0,0,0.000000,2,2.000000,0.000000,11.497815,0,0,0,0,0,0,0
1,19999,30,10000,63,0,1,9999,0.100000,0,0,0.000000,2,3.000000,0.000000,15.838936,0,0,0,0,0,0,0
1,19999,31,10000,63,0,1,9999,0.100000,0,0,0.000000,2,1.000000,0.000000,9.798864,0,0,0,0,0,0,0
1,19999,32,10000,20,0,1,9999,0.100000,0,0,0.000000,2,1.000000,0.000000,12.780258,0,0,0,0,0,0,0
1,19999,33,10000,63,0,1,9999,0.100000,0,0,0.000000,2,2.000000,0.000000,14.853930,0,0,0,0,0,0,0
1,19999,34,10000,19,0,0,9999,0.100000,0,0,0.000000,2,0.000000,0.000000,1.297546,0,0,0,0,0,0,0
1,19999,35,10000,63,0,1,9999,0.100000,0,0,0.000000,2,3.000000,0.000000,14.684569,0,0,0,0,0,0,0
1,19999,36,10000,20,0,1,9999,0.100000,0,0,0.000000,2,1.000000,0.000000,11.472016,0,0,0,0,0,0,0
1,19999,37,10000,20,0,0,9999,0.100000,0,0,0.000000,2,0.000000,0.000000,7.984505,0,0,0,0,0,0,0
1,19999,38,10000,19,0,1,9999,0.100000,0,0,0.000000,2,3.000000,0.000000,14.418525,0,0,0,0,0,0,0
1,19999,39,10000,75,0,1,9999,0.100000,0,0,0.000000,2,1.000000,0.000000,11.665825,0,0,0,0,0,0,0
1,19999,40,10000,20,0,1,9999,0.100000,0,0,0.000000,2,4.000000,0.000000,6.076650,0,0,0,0,0,0,0
1,19999,41,10000,20,0,0,9999,0.100000,0,0,0.000000,2,0.000000,0.000000,0.817682,0,0,0,0,0,0,0
1,19999,42,10000,20,0,1,9999,0.100000,0,0,0.000000,2,2.000000,0.000000,16.167151,0,0,0,0,0,0,0
1,19999,43,10000,75,0,0,9999,0.100000,0,0,0.000000,2,0.000000,0.000000,4.518088,0,0,0,0,0,0,0
1,19999,44,10000,75,0,0,9999,0.100000,0,0,0.000000,2,0.000000,0.000000,0.148777,0,0,0,0,0,0,0
1,19999,45,10000,20,0,1,9999,0.100000,0,0,0.000000,2,9.000000,0.000000,22.370279,0,0,0,0,0,0,0
1,19999,46,10000,20,0,1,9999,0.100000,0,0,0.000000,2,1.000000,0.000000,13.531710,0,0,0,0,0,0,0
1,19999,47,10000,63,0,1,9999,0.100000,0,0,0.000000,2,2.000000,0.000000,13.236665,0,0,0,0,0,0,0
1,19999,48,10000,20,0,3,9999,0.100000,0,0,48.520040,2,9.000000,0.000000,21.873815,0,0,1,0,0,0,0
1,19999,49,10000,63,0,0,9999,0.100000,0,0,0.000000,2,0.000000,0.000000,16.476806,0,0,0,0,0,0,0
1,19999,50,10000,63,0,1,9999,0.100000,0,0,0.000000,2,10.000000,0.000000,25.004661,0,0,0,0,0,0,0
1,19999,51,10000,63,0,1,9999,0.100000,0,0,0.000000,2,2.000000,0.000000,10.595779,0,0,0,0,0,0,0
1,19999,52,10000,20,0,0,9999,0.100000,0,0,0.000000,2,0.000000,0.000000,0.465695,0,0,0,0,0,0,0
1,19999,53,10000,75,0,0,9999,0.100000,0,0,0.000000,2,0.000000,0.000000,4.550397,0,0,0,0,0,0,0
1,19999,54,10000,63,0,1,9999,0.100000,0,0,0.000000,2,3.000000,0.000000,16.129987,0,0,0,0,0,0,0
1,19999,55,10000,68,0,0,9999,0.100000,0,0,0.000000,2,0.000000,0.000000,0.106231,0,0,0,0,0,0,0
1,19999,56,10000,63,0,1,9999,0.100000,0,0,0.000000,2,1.000000,0.000000,9.262356,0,0,0,0,0,0,0
1,19999,57,10000,20,0,1,9999,0.100000,0,0,0.000000,2,1.000000,0.000000,26.541419,0,0,0,0,0,0,0
1,19999,58,10000,63,0,1,9999,0.100000,0,0,0.000000,2,2.000000,0.000000,12.975708,0,0,0,0,0,0,0
1,19999,59,10000,20,0,1,9999,0.100000,0,0,0.000000,2,1.000000,0.000000,2.636729,0,0,0,0,0,0,0
1,19999,60,10000,63,0,1,9999,0.100000,0,0,0.000000,2,2.000000,0.000000,16.674693,0,0,0,0,0,0,0
1,19999,61,10000,20,0,1,9999,0.100000,0,0,0.000000,2,1.000000,0.000000,8.092834,0,0,0,0,0,0,0
1,19999,62,10000,63,0,1,9999,0.100000,0,0,0.000000,2,2.000000,0.000000,15.854440,0,0,0,0,0,0,0
1,19999,63,10000,68,0,0,9999,0.100000,0,0,0.000000,2,0.000000,0.000000,0.153619,0,0,0,0,0,0,0
1,19999,64,10000,19,0,1,9999,0.100000,0,0,0.000000,2,3.000000,0.000000,10.821567,0,0,0,0,0,0,0
1,19999,65,10000,63,0,1,9999,0.100000,0,0,0.000000,2,2.000000,0.000000,13.327326,0,0,0,0,0,0,0
1,19999,66,10000,63,0,1,9999,0.100000,0,0,0.000000,2,2.000000,0.000000,16.032804,0,0,0,0,0,0,0
1,19999,67,10000,20,0,1,9999,0.100000,0,0,0.000000,2,6.000000,0.000000,13.997761,0,0,0,0,0,0,0
1,19999,68,10000,0,0,1,9999,0.100000,0,0,0.000000,2,3.000000,0.000000,4.671743,0,0,0,0,0,0,0
1,19999,69,10000,63,0,1,9999,0.100000,0,0,0.000000,2,3.000000,0.000000,13.955089,0,0,0,0,0,0,0
1,19999,70,10000,20,0,1,9999,0.100000,0,0,0.000000,2,4.000000,0.000000,17.114869,0,0,0,0,0,0,0
1,19999,71,10000,68,0,0,9999,0.100000,0,0,0.000000,2,0.000000,0.000000,0.151937,0,0,0,0,0,0,0
1,19999,72,10000,63,0,1,9999,0.100000,0,0,0.000000,2,3.000000,0.000000,12.003637,0,0,0,0,0,0,0
1,19999,73,10000,68,0,1,9999,0.100000,0,0,0.000000,2,1.000000,0.000000,12.028960,0,0,0,0,0,0,0
1,19999,74,10000,20,0,3,9999,0.100000,0,0,63.361616,2,10.000000,0.000000,23.366892,0,0,1,0,0,0,0
1,19999,75,10000,68,0,1,9999,0.100000,0,0,0.000000,2,1.000000,0.000000,4.364998,0,0,0,0,0,0,0
1,19999,76,10000,20,0,1,9999,0.100000,0,0,34.210526,2,3.000000,0.000000,15.417715,0,0,0,1,0,0,0
1,19999,77,10000,20,0,0,9999,0.100000,0,0,0.000000,2,0.000000,0.000000,4.617584,0,0,0,0,0,0,0
1,19999,78,10000,63,0,1,9999,0.100000,0,0,0.000000,2,1.000000,0.000000,11.313943,0,0,0,0,0,0,0
1,19999,79,10000,63,0,1,9999,0.100000,0,0,0.000000,2,2.000000,0.000000,16.036983,0,0,0,0,0,0,0
1,19999,80,10000,63,0,0,9999,0.100000,0,0,0.000000,2,0.000000,0.000000,1.603202,0,0,0,0,0,0,0
1,19999,81,10000,63,0,1,9999,0.100000,0,0,0.000000,2,3.000000,0.000000,9.732230,0,0,0,0,0,0,0
1,19999,82,10000,63,0,0,9999,0.100000,0,0,0.000000,2,0.000000,0.000000,0.961495,0,0,0,0,0,0,0
1,19999,83,10000,63,0,0,9999,0.100000,0,0,0.000000,2,0.000000,0.000000,0.976434,0,0,0,0,0,0,0
1,19999,84,10000,20,0,1,9999,0.100000,0,0,0.000000,2,1.000000,0.000000,8.445662,0,0,0,0,0,0,0
1,19999,85,10000,63,0,1,9999,0.100000,0,0,0.000000,2,1.000000,0.000000,17.004548,0,0,0,0,0,0,0
1,19999,86,10000,68,0,1,9999,0.100000,0,0,0.000000,2,6.000000,0.000000,9.882449,0,0,0,0,0,0,0
1,19999,87,10000,20,0,1,9999,0.100000,0,0,0.000000,2,1.000000,0.000000,16.739661,0,0,0,0,0,0,0
1,19999,88,10000,63,0,0,9999,0.100000,0,0,0.000000,2,0.000000,0.000000,0.069665,0,0,0,0,0,0,0
1,19999,89,10000,68,0,0,9999,0.100000,0,0,0.000000,2,0.000000,0.000000,0.695663,0,0,0,0,0,0,0
1,19999,90,10000,68,0,0,9999,0.100000,0,0,0.000000,2,0.000000,0.000000,0.698834,0,0,0,0,0,0,0
1,19999,91,10000,63,0,1,9999,0.100000,0,0,0.000000,2,1.000000,0.000000,14.509167,0,0,0,0,0,0,0
1,19999,92,10000,63,0,0,9999,0.100000,0,0,0.000000,2,0.000000,0.000000,22.410024,0,0,0,0,0,0,0
1,19999,93,10000,20,0,0,9999,0.100000,0,0,0.000000,2,0.000000,0.000000,0.165155,0,0,0,0,0,0,0
1,19999,94,10000,63,0,1,9999,0.100000,0,0,0.000000,2,2.000000,0.000000,12.665657,0,0,0,0,0,0,0
1,19999,95,10000,20,0,0,9999,0.100000,0,0,0.000000,2,0.000000,0.000000,0.436103,0,0,0,0,0,0,0
1,19999,96,10000,63,0,0,9999,0.100000,0,0,0.000000,2,0.000000,0.000000,2.158511,0,0,0,0,0,0,0
1,19999,97,10000,63,0,0,9999,0.100000,0,0,0.000000,2,0.000000,0.000000,1.644964,0,0,0,0,0,0,0
1,19999,98,10000,63,0,1,9999,0.100000,0,0,0.000000,2,4.000000,0.000000,14.322030,0,0,0,0,0,0,0
1,19999,99,10000,75,0,1,9999,0.100000,0,0,0.000000,2,2.000000,0.000000,5.075729,0,0,0,0,0,0,0
2,29999,0,20000,0,10000,0,9999,0.100000,0,0,0.000000,3,0.000000,0.000000,0.122620,0,0,0,0,0,0,0
2,29999,1,20000,63,0,0,9999,0.100000,0,0,0.000000,3,0.000000,0.000000,0.282719,0,0,0,0,0,0,0
2,29999,2,20000,20,0,0,9999,0.100000,0,0,0.000000,3,0.000000,0.000000,0.057157,0,0,0,0,0,0,0
2,29999,3,20000,34,10000,1,9999,0.135000,0,0,0.000000,3,3.000000,0.000000,18.646645,0,0,0,0,0,0,0
2,29999,4,20000,20,0,1,9999,0.100000,0,0,0.000000,3,6.000000,0.000000,13.840503,0,0,0,0,0,0,0
2,29999,5,20000,0,10000,1,9999,0.100000,0,0,0.000000,3,5.000000,0.000000,14.566075,0,0,0,0,0,0,0
2,29999,6,20000,20,0,1,9999,0.100000,0,0,0.000000,2,1.000000,0.000000,10.204469,0,0,0,0,0,0,0
2,29999,7,20000,20,0,1,9999,0.100000,0,0,0.000000,3,1.000000,0.000000,3.416209,0,0,0,0,0,0,0
2,29999,8,20000,63,0,1,9999,0.100000,0,0,0.000000,2,1.000000,0.000000,16.884229,0,0,0,0,0,0,0
2,29999,9,20000,20,0,3,9999,0.100000,0,0,80.567765,3,12.000000,0.000000,18.155358,0,0,1,0,0,0,0
2,29999,10,20000,0,10000,0,9999,0.100000,0,0,0.000000,3,0.000000,0.000000,0.077672,0,0,0,0,0,0,0
2,29999,11,20000,63,0,0,9999,0.100000,0,0,0.000000,3,0.000000,0.000000,1.000952,0,0,0,0,0,0,0
2,29999,12,20000,12,10000,0,9999,0.100000,0,0,0.000000,3,0.000000,0.000000,0.559274,0,0,0,0,0,0,0
2,29999,13,20000,63,0,1,9999,0.100000,0,0,0.000000,3,6.000000,0.000000,13.256141,0,0,0,0,0,0,0
2,29999,14,20000,63,0,1,9999,0.100000,0,0,0.000000,3,2.000000,0.000000,16.865629,0,0,0,0,0,0,0
2,29999,15,20000,63,0,0,9999,0.100000,0,0,0.000000,3,0.000000,0.000000,4.133087,0,0,0,0,0,0,0
2,29999,16,20000,20,0,1,9999,0.100000,0,0,0.000000,3,1.000000,0.000000,1.867873,0,0,0,0,0,0,0
2,29999,17,20000,20,0,0,9999,0.100000,0,0,0.000000,3,0.000000,0.000000,15.271504,0,0,0,0,0,0,0
2,29999,18,20000,20,0,1,9999,0.100000,0,0,0.000000,3,1.000000,0.000000,10.317218,0,0,0,0,0,0,0
2,29999,19,20000,63,0,0,9999,0.100000,0,0,0.000000,3,0.000000,0.000000,23.729413,0,0,0,0,0,0,0
2,29999,20,20000,63,0,1,9999,0.100000,0,0,0.000000,3,2.000000,0.000000,18.316031,0,0,0,0,0,0,0
2,29999,21,20000,63,0,1,9999,0.100000,0,0,0.000000,3,3.000000,0.000000,17.253668,0,0,0,0,0,0,0
2,29999,22,20000,20,0,1,9999,0.100000,0,0,0.000000,3,2.000000,0.000000,20.007318,0,0,0,0,0,0,0
2,29999,23,20000,63,10000,0,9999,0.100000,0,0,0.000000,3,0.000000,0.000000,1.056199,0,0,0,0,0,0,0
2,29999,24,20000,20,0,1,9999,0.100000,0,0,34.210526,3,8.000000,0.000000,18.932224,0,0,0,0,1,0,0
2,29999,25,20000,20,0,1,9999,0.100000,0,0,34.210526,3,8.000000,0.000000,17.920611,0,0,0,0,1,0,0
2,29999,26,20000,20,0,1,9999,0.100000,0,0,0.000000,3,1.000000,0.000000,17.687160,0,0,0,0,0,0,0
2,29999,27,20000,63,0,0,9999,0.100000,0,0,0.000000,3,0.000000,0.000000,0.357423,0,0,0,0,0,0,0
2,29999,28,20000,63,0,0,9999,0.100000,0,0,0.000000,3,0.000000,0.000000,0.498716,0,0,0,0,0,0,0
2,29999,29,20000,90,10000,1,9999,0.100000,0,0,0.000000,3,7.000000,0.000000,11.090072,0,0,0,0,0,0,0
2,29999,30,20000,63,0,1,9999,0.100000,0,0,0.000000,3,2.000000,0.000000,12.205283,0,0,0,0,0,0,0
2,29999,31,20000,20,0,1,9999,0.100000,0,0,0.000000,3,2.000000,0.000000,12.540558,0,0,0,0,0,0,0
2,29999,32,20000,63,0,1,9999,0.100000,0,0,0.000000,3,1.000000,0.000000,12.754806,0,0,0,0,0,0,0
2,29999,33,20000,20,0,1,9999,0.100000,0,0,0.000000,3,3.000000,0.000000,16.801035,0,0,0,0,0,0,0
2,29999,34,20000,63,0,0,9999,0.100000,0,0,0.000000,3,0.000000,0.000000,0.103337,0,0,0,0,0,0,0
2,29999,35,20000,20,0,1,9999,0.100000,0,0,0.000000,3,1.000000,0.000000,11.751460,0,0,0,0,0,0,0
2,29999,36,20000,0,10000,1,9999,0.100000,0,0,0.000000,3,1.000000,0.000000,6.652273,0,0,0,0,0,0,0
2,29999,37,20000,63,0,1,9999,0.100000,0,0,0.000000,3,2.000000,0.000000,18.687878,0,0,0,0,0,0,0
2,29999,38,20000,20,0,1,9999,0.100000,0,0,0.000000,3,4.000000,0.000000,26.727416,0,0,0,0,0,0,0
2,29999,39,20000,0,10000,1,9999,0.100000,0,0,0.000000,3,1.000000,0.000000,12.823478,0,0,0,0,0,0,0
2,29999,40,20000,20,0,0,9999,0.100000,0,0,0.000000,3,0.000000,0.000000,5.466408,0,0,0,0,0,0,0
2,29999,41,20000,63,10000,0,9999,0.100000,0,0,0.000000,3,0.000000,0.000000,1.121165,0,0,0,0,0,0,0
2,29999,42,20000,63,0,1,9999,0.100000,0,0,0.000000,3,3.000000,0.000000,12.240912,0,0,0,0,0,0,0
2,29999,43,20000,63,0,1,9999,0.100000,0,0,0.000000,3,1.000000,0.000000,7.455891,0,0,0,0,0,0,0
2,29999,44,20000,63,10000,0,9999,0.100000,0,0,0.000000,3,0.000000,0.000000,0.243752,0,0,0,0,0,0,0
2,29999,45,20000,63,0,1,9999,0.100000,0,0,0.000000,3,3.000000,0.000000,13.883054,0,0,0,0,0,0,0
2,29999,46,20000,20,0,1,9999,0.100000,0,0,0.000000,3,2.000000,0.000000,14.165828,0,0,0,0,0,0,0
2,29999,47,20000,63,10000,1,9999,0.100000,0,0,0.000000,3,3.000000,0.000000,9.804649,0,0,0,0,0,0,0
2,29999,48,20000,63,0,1,9999,0.100000,0,0,0.000000,3,6.000000,0.000000,13.464379,0,0,0,0,0,0,0
2,29999,49,20000,20,0,1,9999,0.100000,0,0,0.000000,3,1.000000,0.000000,17.453576,0,0,0,0,0,0,0
2,29999,50,20000,63,10000,1,9999,0.100000,0,0,0.000000,3,4.000000,0.000000,4.842419,0,0,0,0,0,0,0
2,29999,51,20000,63,0,1,9999,0.100000,0,0,0.000000,3,1.000000,0.000000,10.207954,0,0,0,0,0,0,0
2,29999,52,20000,0,10000,0,9999,0.100000,0,0,0.000000,3,0.000000,0.000000,0.082925,0,0,0,0,0,0,0
2,29999,53,20000,20,0,1,9999,0.100000,0,0,0.000000,3,1.000000,0.000000,20.852325,0,0,0,0,0,0,0
2,29999,54,20000,63,10000,1,9999,0.100000,0,0,0.000000,3,2.000000,0.000000,9.722121,0,0,0,0,0,0,0
2,29999,55,20000,20,0,0,9999,0.100000,0,0,0.000000,3,0.000000,0.000000,0.234635,0,0,0,0,0,0,0
2,29999,56,20000,20,0,1,9999,0.100000,0,0,0.000000,3,3.000000,0.000000,15.474175,0,0,0,0,0,0,0
2,29999,57,20000,20,0,1,9999,0.100000,0,0,0.000000,3,1.000000,0.000000,19.231847,0,0,0,0,0,0,0
2,29999,58,20000,63,0,1,9999,0.100000,0,0,0.000000,3,1.000000,0.000000,15.092468,0,0,0,0,0,0,0
2,29999,59,20000,63,0,0,9999,0.100000,0,0,0.000000,3,0.000000,0.000000,0.281292,0,0,0,0,0,0,0
2,29999,60,20000,63,0,1,9999,0.100000,0,0,0.000000,3,2.000000,0.000000,14.242797,0,0,0,0,0,0,0
2,29999,61,20000,63,0,1,9999,0.100000,0,0,0.000000,3,10.000000,0.000000,14.745510,0,0,0,0,0,0,0
2,29999,62,20000,0,10000,1,9999,0.100000,0,0,0.000000,3,3.000000,0.000000,16.723930,0,0,0,0,0,0,0
2,29999,63,20000,63,0,0,9999,0.100000,0,0,0.000000,3,0.000000,0.000000,0.141574,0,0,0,0,0,0,0
2,29999,64,20000,63,0,1,9999,0.100000,0,0,0.000000,3,2.000000,0.000000,15.773072,0,0,0,0,0,0,0
2,29999,65,20000,63,10000,1,9999,0.100000,0,0,0.000000,3,2.000000,0.000000,13.655857,0,0,0,0,0,0,0
2,29999,66,20000,63,0,1,9999,0.100000,0,0,0.000000,3,3.000000,0.000000,12.327802,0,0,0,0,0,0,0
2,29999,67,20000,63,10000,3,9999,0.100000,0,0,34.210526,3,12.000000,0.000000,20.722307,0,0,1,0,0,0,0
2,29999,68,20000,20,0,1,9999,0.100000,0,0,0.000000,3,3.000000,0.000000,11.018057,0,0,0,0,0,0,0
2,29999,69,20000,63,10000,3,9999,0.100000,0,0,61.037974,3,8.000000,0.000000,19.710113,0,0,1,0,0,0,0
2,29999,70,20000,20,0,1,9999,0.100000,0,0,0.000000,3,1.000000,0.000000,15.298706,0,0,0,0,0,0,0
2,29999,71,20000,63,10000,0,9999,0.100000,0,0,0.000000,3,0.000000,0.000000,0.272185,0,0,0,0,0,0,0
2,29999,72,20000,20,0,1,9999,0.100000,0,0,0.000000,3,5.000000,0.000000,10.917282,0,0,0,0,0,0,0
2,29999,73,20000,63,10000,1,9999,0.100000,0,0,0.000000,3,2.000000,0.000000,14.091957,0,0,0,0,0,0,0
2,29999,74,20000,63,0,1,9999,0.100000,0,0,0.000000,3,1.000000,0.000000,4.036192,0,0,0,0,0,0,0
2,29999,75,20000,20,0,0,9999,0.100000,0,0,0.000000,3,0.000000,0.000000,7.622976,0,0,0,0,0,0,0
2,29999,76,20000,63,0,1,9999,0.100000,0,0,0.000000,3,3.000000,0.000000,18.499529,0,0,0,0,0,0,0
2,29999,77,20000,63,0,1,9999,0.100000,0,0,0.000000,3,1.000000,0.000000,11.448687,0,0,0,0,0,0,0
2,29999,78,20000,20,0,1,9999,0.100000,0,0,0.000000,3,1.000000,0.000000,16.619756,0,0,0,0,0,0,0
2,29999,79,20000,0,10000,1,9999,0.100000,0,0,0.000000,3,1.000000,0.000000,10.511737,0,0,0,0,0,0,0
2,29999,80,20000,63,0,0,9999,0.100000,0,0,0.000000,3,0.000000,0.000000,0.147230,0,0,0,0,0,0,0
2,29999,81,20000,20,0,1,9999,0.100000,0,0,0.000000,3,9.000000,0.000000,14.388423,0,0,0,0,0,0,0
2,29999,82,20000,63,0,0,9999,0.100000,0,0,0.000000,3,0.000000,0.000000,0.975211,0,0,0,0,0,0,0
2,29999,83,20000,20,0,0,9999,0.100000,0,0,0.000000,3,0.000000,0.000000,1.031761,0,0,0,0,0,0,0
2,29999,84,20000,63,0,1,9999,0.100000,0,0,0.000000,3,1.000000,0.000000,13.177148,0,0,0,0,0,0,0
2,29999,85,20000,63,10000,1,9999,0.100000,0,0,0.000000,3,3.000000,0.000000,11.459148,0,0,0,0,0,0,0
2,29999,86,20000,63,10000,0,9999,0.100000,0,0,0.000000,3,0.000000,0.000000,0.065410,0,0,0,0,0,0,0
2,29999,87,20000,12,10000,1,9999,0.100000,0,0,0.000000,3,2.000000,0.000000,9.884540,0,0,0,0,0,0,0
2,29999,88,20000,63,10000,0,9999,0.100000,0,0,0.000000,3,0.000000,0.000000,0.130723,0,0,0,0,0,0,0
2,29999,89,20000,20,0,0,9999,0.100000,0,0,0.000000,3,0.000000,0.000000,2.795685,0,0,0,0,0,0,0
2,29999,90,20000,63,0,0,9999,0.100000,0,0,0.000000,3,0.000000,0.000000,0.633963,0,0,0,0,0,0,0
2,29999,91,20000,63,10000,1,9999,0.100000,0,0,0.000000,3,5.000000,0.000000,11.328849,0,0,0,0,0,0,0
2,29999,92,20000,63,10000,0,9999,0.100000,0,0,0.000000,3,0.000000,0.000000,22.217508,0,0,0,0,0,0,0
2,29999,93,20000,63,10000,0,9999,0.100000,0,0,0.000000,3,0.000000,0.000000,0.781137,0,0,0,0,0,0,0
2,29999,94,20000,63,10000,1,9999,0.100000,0,0,0.000000,3,1.000000,0.000000,2.859327,0,0,0,0,0,0,0
2,29999,95,20000,0,10000,0,9999,0.100000,0,0,0.000000,3,0.000000,0.000000,0.598672,0,0,0,0,0,0,0
2,29999,96,20000,63,0,1,9999,0.100000,0,0,34.210526,3,8.000000,0.000000,17.428038,0,0,0,0,1,0,0
2,29999,97,20000,0,10000,0,9999,0.100000,0,0,0.000000,3,0.000000,0.000000,1.574016,0,0,0,0,0,0,0
2,29999,98,20000,20,0,0,9999,0.100000,0,0,0.000000,3,0.000000,0.000000,18.903682,0,0,0,0,0,0,0
2,29999,99,20000,63,0,1,9999,0.100000,0,0,0.000000,3,1.000000,0.000000,8.223157,0,0,0,0,0,0,0
3,39999,0,30000,20,0,0,9999,0.100000,0,0,0.000000,3,0.000000,0.000000,0.090470,0,0,0,0,0,0,0
3,39999,1,30000,20,0,0,9999,0.100000,0,0,0.000000,3,0.000000,0.000000,0.932174,0,0,0,0,0,0,0
3,39999,2,30000,63,0,0,9999,0.135000,0,0,0.000000,3,0.000000,0.000000,0.053845,0,0,0,0,0,0,0
3,39999,3,30000,63,0,1,9999,0.100000,0,0,0.000000,3,4.000000,0.000000,12.168142,0,0,0,0,0,0,0
3,39999,4,30000,20,0,1,9999,0.100000,0,0,0.000000,3,2.000000,0.000000,9.990134,0,0,0,0,0,0,0
3,39999,5,30000,63,0,0,9999,0.100000,0,0,0.000000,3,0.000000,0.000000,6.422997,0,0,0,0,0,0,0
3,39999,6,30000,63,0,1,9999,0.100000,0,0,0.000000,3,2.000000,0.000000,17.689209,0,0,0,0,0,0,0
3,39999,7,30000,63,0,0,9999,0.100000,0,0,0.000000,3,0.000000,0.000000,0.096845,0,0,0,0,0,0,0
3,39999,8,30000,20,0,1,9999,0.100000,0,0,0.000000,3,1.000000,0.000000,13.546023,0,0,0,0,0,0,0
3,39999,9,30000,63,10000,0,9999,0.100000,0,0,0.000000,3,0.000000,0.000000,3.677079,0,0,0,0,0,0,0
3,39999,10,30000,63,10000,0,9999,0.100000,0,0,0.000000,3,0.000000,0.000000,0.078913,0,0,0,0,0,0,0
3,39999,11,30000,63,0,0,9999,0.100000,0,0,0.000000,3,0.000000,0.000000,1.164566,0,0,0,0,0,0,0
3,39999,12,30000,63,0,1,9999,0.100000,0,0,0.000000,3,2.000000,0.000000,2.679083,0,0,0,0,0,0,0
3,39999,13,30000,20,0,1,9999,0.100000,0,0,0.000000,3,1.000000,0.000000,2.038735,0,0,0,0,0,0,0
3,39999,14,30000,63,10000,1,9999,0.100000,0,0,0.000000,3,5.000000,0.000000,14.985519,0,0,0,0,0,0,0
3,39999,15,30000,63,10000,0,9999,0.100000,0,0,0.000000,3,0.000000,0.000000,4.258687,0,0,0,0,0,0,0
3,39999,16,30000,63,0,0,9999,0.100000,0,0,0.000000,3,0.000000,0.000000,0.530678,0,0,0,0,0,0,0
3,39999,17,30000,63,10000,1,9999,0.100000,0,0,0.000000,3,3.000000,0.000000,10.494291,0,0,0,0,0,0,0
3,39999,18,30000,63,10000,1,9999,0.100000,0,0,0.000000,3,4.000000,0.000000,10.358976,0,0,0,0,0,0,0
3,39999,19,30000,20,0,1,9999,0.100000,0,0,0.000000,3,1.000000,0.000000,8.831972,0,0,0,0,0,0,0
3,39999,20,30000,63,0,1,9999,0.100000,0,0,0.000000,3,1.000000,0.000000,16.957483,0,0,0,0,0,0,0
3,39999,21,30000,63,10000,1,9999,0.100000,0,0,0.000000,3,4.000000,0.000000,16.942129,0,0,0,0,0,0,0
3,39999,22,30000,63,0,0,9999,0.100000,0,0,0.000000,3,0.000000,0.000000,11.068057,0,0,0,0,0,0,0
3,39999,23,30000,63,10000,0,9999,0.100000,0,0,0.000000,3,0.000000,0.000000,1.648069,0,0,0,0,0,0,0
3,39999,24,30000,63,10000,1,9999,0.100000,0,0,0.000000,3,4.000000,0.000000,12.014803,0,0,0,0,0,0,0
3,39999,25,30000,20,0,1,9999,0.100000,0,0,0.000000,3,3.000000,0.000000,14.936440,0,0,0,0,0,0,0
3,39999,26,30000,63,0,1,9999,0.100000,0,0,0.000000,3,3.000000,0.000000,14.698105,0,0,0,0,0,0,0
3,39999,27,30000,63,0,0,9999,0.100000,0,0,0.000000,3,0.000000,0.000000,0.242231,0,0,0,0,0,0,0
3,39999,28,30000,20,0,0,9999,0.100000,0,0,0.000000,3,0.000000,0.000000,0.111003,0,0,0,0,0,0,0
3,39999,29,30000,63,0,1,9999,0.100000,0,0,0.000000,3,2.000000,0.000000,15.235302,0,0,0,0,0,0,0
3,39999,30,30000,63,0,1,9999,0.100000,0,0,0.000000,3,5.000000,0.000000,14.449376,0,0,0,0,0,0,0
3,39999,31,30000,63,10000,1,9999,0.100000,0,0,0.000000,3,4.000000,0.000000,17.004954,0,0,0,0,0,0,0
3,39999,32,30000,63,0,1,9999,0.100000,0,0,0.000000,3,2.000000,0.000000,6.881758,0,0,0,0,0,0,0
3,39999,33,30000,63,0,1,9999,0.100000,0,0,0.000000,3,2.000000,0.000000,15.115991,0,0,0,0,0,0,0
3,39999,34,30000,20,0,0,9999,0.100000,0,0,0.000000,3,0.000000,0.000000,0.397175,0,0,0,0,0,0,0
3,39999,35,30000,20,0,1,9999,0.100000,0,0,0.000000,3,1.000000,0.000000,10.642433,0,0,0,0,0,0,0
3,39999,36,30000,63,10000,1,9999,0.100000,0,0,0.000000,3,3.000000,0.000000,9.225762,0,0,0,0,0,0,0
3,39999,37,30000,63,10000,1,9999,0.100000,0,0,0.000000,3,2.000000,0.000000,5.103229,0,0,0,0,0,0,0
3,39999,38,30000,63,0,1,9999,0.100000,0,0,0.000000,3,1.000000,0.000000,10.811898,0,0,0,0,0,0,0
3,39999,39,30000,20,0,1,9999,0.100000,0,0,0.000000,3,1.000000,0.000000,11.892515,0,0,0,0,0,0,0
3,39999,40,30000,20,0,1,9999,0.100000,0,0,0.000000,3,2.000000,0.000000,13.896240,0,0,0,0,1,0,0
3,39999,41,30000,20,0,0,9999,0.100000,0,0,0.000000,3,0.000000,0.000000,12.125443,0,0,0,0,0,0,0
3,39999,42,30000,63,10000,1,9999,0.100000,0,0,0.000000,3,3.000000,0.000000,10.419196,0,0,0,0,0,0,0
3,39999,43,30000,63,10000,1,9999,0.100000,0,0,0.000000,3,2.000000,0.000000,10.847257,0,0,0,0,0,0,0
3,39999,44,30000,20,0,0,9999,0.100000,0,0,0.000000,3,0.000000,0.000000,0.137748,0,0,0,0,0,0,0
3,39999,45,30000,20,0,1,9999,0.100000,0,0,0.000000,3,3.000000,0.000000,13.471454,0,0,0,0,0,0,0
3,39999,46,30000,63,0,1,9999,0.100000,0,0,0.000000,3,3.000000,0.000000,16.092866,0,0,0,0,0,0,0
3,39999,47,30000,63,0,0,9999,0.135000,0,0,0.000000,3,0.000000,0.000000,0.725621,0,0,0,0,0,0,0
3,39999,48,30000,63,10000,1,9999,0.100000,0,0,0.000000,3,2.000000,0.000000,10.959826,0,0,0,0,0,0,0
3,39999,49,30000,63,10000,1,9999,0.100000,0,0,0.000000,3,3.000000,0.000000,10.958425,0,0,0,0,0,0,0
3,39999,50,30000,20,0,0,9999,0.100000,0,0,0.000000,3,0.000000,0.000000,0.190754,0,0,0,0,0,0,0
3,39999,51,30000,20,0,3,9999,0.100000,0,0,29.349737,3,6.000000,0.000000,21.589526,0,0,1,0,0,0,0
3,39999,52,30000,20,0,0,9999,0.100000,0,0,0.000000,3,0.000000,0.000000,0.318709,0,0,0,0,0,0,0
3,39999,53,30000,20,0,1,9999,0.100000,0,0,0.000000,3,3.000000,0.000000,17.780766,0,0,0,0,0,0,0
3,39999,54,30000,63,10000,1,9999,0.100000,0,0,0.000000,3,1.000000,0.000000,7.021479,0,0,0,0,0,0,0
3,39999,55,30000,63,10000,0,9999,0.100000,0,0,0.000000,3,0.000000,0.000000,0.118698,0,0,0,0,0,0,0
3,39999,56,30000,20,0,3,9999,0.100000,0,0,34.346408,3,3.000000,0.000000,14.945078,0,0,1,0,0,0,0
3,39999,57,30000,63,0,1,9999,0.100000,0,0,0.000000,3,2.000000,0.000000,11.672393,0,0,0,0,0,0,0
3,39999,58,30000,63,10000,1,9999,0.100000,0,0,0.000000,3,3.000000,0.000000,11.136977,0,0,0,0,1,0,0
3,39999,59,30000,63,0,0,9999,0.100000,0,0,0.000000,3,0.000000,0.000000,0.103581,0,0,0,0,0,0,0
3,39999,60,30000,63,0,0,9999,0.100000,0,0,0.000000,3,0.000000,0.000000,10.584438,0,0,0,0,0,0,0
3,39999,61,30000,63,0,1,9999,0.100000,0,0,0.000000,3,2.000000,0.000000,3.164621,0,0,0,0,0,0,0
3,39999,62,30000,63,0,1,9999,0.100000,0,0,0.000000,3,2.000000,0.000000,17.943023,0,0,0,0,0,0,0
3,39999,63,30000,63,0,0,9999,0.100000,0,0,0.000000,3,0.000000,0.000000,0.138549,0,0,0,0,0,0,0
3,39999,64,30000,20,0,1,9999,0.100000,0,0,0.000000,3,4.000000,0.000000,13.183131,0,0,0,0,0,0,0
3,39999,65,30000,63,10000,1,9999,0.100000,0,0,0.000000,3,8.000000,0.000000,11.482162,0,0,0,0,0,0,0
3,39999,66,30000,20,0,0,9999,0.100000,0,0,0.000000,3,0.000000,0.000000,0.307590,0,0,0,0,0,0,0
3,39999,67,30000,20,0,1,9999,0.100000,0,0,0.000000,3,1.000000,0.000000,14.545087,0,0,0,0,0,0,0
3,39999,68,30000,63,0,1,9999,0.100000,0,0,0.000000,3,2.000000,0.000000,9.458575,0,0,0,0,0,0,0
3,39999,69,30000,63,0,1,9999,0.100000,0,0,0.000000,3,1.000000,0.000000,15.036006,0,0,0,0,0,0,0
3,39999,70,30000,20,0,1,9999,0.100000,0,0,0.000000,3,1.000000,0.000000,13.953011,0,0,0,0,0,0,0
3,39999,71,30000,20,0,1,9999,0.100000,0,0,0.000000,3,1.000000,0.000000,1.318082,0,0,0,0,0,0,0
3,39999,72,30000,20,0,1,9999,0.100000,0,0,0.000000,3,1.000000,0.000000,1.896140,0,0,0,0,0,0,0
3,39999,73,30000,63,10000,1,9999,0.100000,0,0,0.000000,3,3.000000,0.000000,16.153850,0,0,0,0,0,0,0
3,39999,74,30000,63,10000,1,9999,0.100000,0,0,0.000000,3,4.000000,0.000000,12.407842,0,0,0,0,1,0,0
3,39999,75,30000,20,0,1,9999,0.100000,0,0,0.000000,3,1.000000,0.000000,6.565898,0,0,0,0,0,0,0
3,39999,76,30000,20,0,1,9999,0.100000,0,0,0.000000,3,3.000000,0.000000,12.387949,0,0,0,0,0,0,0
3,39999,77,30000,63,0,0,9999,0.100000,0,0,0.000000,3,0.000000,0.000000,1.091171,0,0,0,0,0,0,0
3,39999,78,30000,63,0,1,9999,0.100000,0,0,0.000000,3,4.000000,0.000000,15.398693,0,0,0,0,0,0,0
3,39999,79,30000,63,0,1,9999,0.100000,0,0,0.000000,3,2.000000,0.000000,16.453979,0,0,0,0,0,0,0
3,39999,80,30000,63,0,0,9999,0.100000,0,0,0.000000,3,0.000000,0.000000,1.193587,0,0,0,0,0,0,0
3,39999,81,30000,20,0,1,9999,0.100000,0,0,0.000000,3,3.000000,0.000000,26.477692,0,0,0,0,0,0,0
3,39999,82,30000,20,0,0,9999,0.100000,0,0,0.000000,3,0.000000,0.000000,0.901284,0,0,0,0,0,0,0
3,39999,83,30000,63,0,1,9999,0.100000,0,0,0.000000,3,2.000000,0.000000,3.337985,0,0,0,0,0,0,0
3,39999,84,30000,63,0,1,9999,0.100000,0,0,0.000000,3,2.000000,0.000000,11.873743,0,0,0,0,0,0,0
3,39999,85,30000,63,10000,1,9999,0.100000,0,0,0.000000,3,1.000000,0.000000,7.597578,0,0,0,0,0,0,0
3,39999,86,30000,20,0,0,9999,0.100000,0,0,0.000000,3,0.000000,0.000000,0.958365,0,0,0,0,0,0,0
3,39999,87,30000,63,10000,0,9999,0.100000,0,0,0.000000,3,0.000000,0.000000,0.130342,0,0,0,0,0,0,0
3,39999,88,30000,63,10000,0,9999,0.100000,0,0,0.000000,3,0.000000,0.000000,0.183292,0,0,0,0,0,0,0
3,39999,89,30000,20,0,1,9999,0.100000,0,0,0.000000,3,1.000000,0.000000,1.582064,0,0,0,0,0,0,0
3,39999,90,30000,20,0,0,9999,0.100000,0,0,0.000000,3,0.000000,0.000000,0.235111,0,0,0,0,0,0,0
3,39999,91,30000,63,0,1,9999,0.100000,0,0,0.000000,3,1.000000,0.000000,15.050564,0,0,0,0,0,0,0
3,39999,92,30000,63,0,0,9999,0.100000,0,0,0.000000,3,0.000000,0.000000,22.203374,0,0,0,0,0,0,0
3,39999,93,30000,63,10000,0,9999,0.100000,0,0,0.000000,3,0.000000,0.000000,0.792732,0,0,0,0,0,0,0
3,39999,94,30000,20,0,1,9999,0.100000,0,0,19.820998,3,3.000000,0.000000,18.496390,0,0,1,0,1,0,0
3,39999,95,30000,63,0,1,9999,0.100000,0,0,0.000000,3,1.000000,0.000000,1.341733,0,0,0,0,0,0,0
3,39999,96,30000,20,0,1,9999,0.100000,0,0,0.000000,3,3.000000,0.000000,6.280144,0,0,0,0,0,0,0
3,39999,97,30000,63,0,0,9999,0.100000,0,0,0.000000,3,0.000000,0.000000,0.864276,0,0,0,0,0,0,0
3,39999,98,30000,63,10000,1,9999,0.100000,0,0,0.000000,3,2.000000,0.000000,9.154998,0,0,0,0,0,0,0
3,39999,99,30000,63,0,0,9999,0.100000,0,0,0.000000,3,0.000000,0.000000,1.265888,0,0,0,0,0,0,0
4,49999,0,40000,63,0,0,9999,0.100000,0,0,0.000000,3,0.000000,0.000000,0.311009,0,0,0,0,0,0,0
4,49999,1,40000,63,10000,1,9999,0.100000,0,0,0.000000,3,2.000000,0.000000,2.616106,0,0,0,0,0,0,0
4,49999,2,40000,63,10000,0,9999,0.100000,0,0,0.000000,3,0.000000,0.000000,0.519081,0,0,0,0,0,0,0
4,49999,3,40000,63,0,1,9999,0.100000,0,0,0.000000,3,2.000000,0.000000,10.147725,0,0,0,0,0,0,0
4,49999,4,40000,20,0,1,9999,0.100000,0,0,0.000000,3,2.000000,0.000000,13.649964,0,0,0,0,0,0,0
4,49999,5,40000,63,0,1,9999,0.100000,0,0,34.210526,3,6.000000,0.000000,15.824820,0,0,0,0,0,1,0
4,49999,6,40000,63,10000,1,9999,0.100000,0,0,0.000000,3,3.000000,0.000000,13.587449,0,0,0,0,0,0,0
4,49999,7,40000,63,0,0,9999,0.100000,0,0,0.000000,3,0.000000,0.000000,0.328032,0,0,0,0,0,0,0
4,49999,8,40000,63,0,1,9999,0.100000,0,0,0.000000,3,3.000000,0.000000,10.664486,0,0,0,0,0,0,0
4,49999,9,40000,63,10000,0,9999,0.100000,0,0,0.000000,3,0.000000,0.000000,3.093286,0,0,0,0,0,0,0
4,49999,10,40000,63,10000,0,9999,0.100000,0,0,0.000000,3,0.000000,0.000000,0.078113,0,0,0,0,0,0,0
4,49999,11,40000,20,0,0,9999,0.100000,0,0,0.000000,3,0.000000,0.000000,0.984283,0,0,0,0,0,0,0
4,49999,12,40000,63,10000,1,9999,0.100000,0,0,0.000000,3,2.000000,0.000000,5.568636,0,0,0,0,0,0,0
4,49999,13,40000,63,10000,0,9999,0.100000,0,0,0.000000,3,0.000000,0.000000,1.271844,0,0,0,0,0,0,0
4,49999,14,40000,63,0,1,9999,0.100000,0,0,0.000000,3,1.000000,0.000000,14.840357,0,0,0,0,0,0,0
4,49999,15,40000,63,10000,0,9999,0.100000,0,0,0.000000,3,0.000000,0.000000,3.704518,0,0,0,0,0,0,0
4,49999,16,40000,63,0,0,9999,0.100000,0,0,0.000000,3,0.000000,0.000000,0.388128,0,0,0,0,0,0,0
4,49999,17,40000,63,10000,1,9999,0.100000,0,0,0.000000,3,5.000000,0.000000,17.895475,0,0,0,0,0,0,0
4,49999,18,40000,20,0,0,9999,0.100000,0,0,0.000000,3,0.000000,0.000000,2.653873,0,0,0,0,0,0,0
4,49999,19,40000,63,0,1,9999,0.100000,0,0,0.000000,3,2.000000,0.000000,9.608664,0,0,0,0,0,0,0
4,49999,20,40000,63,0,1,9999,0.100000,0,0,0.000000,3,1.000000,0.000000,12.844816,0,0,0,0,0,0,0
4,49999,21,40000,63,0,1,9999,0.135000,0,0,0.000000,3,9.000000,0.000000,13.275827,0,0,0,0,0,0,0
4,49999,22,40000,63,10000,1,9999,0.100000,0,0,0.000000,3,10.000000,0.000000,16.584604,0,0,0,0,0,0,0
4,49999,23,40000,63,10000,0,9999,0.100000,0,0,0.000000,3,0.000000,0.000000,0.944138,0,0,0,0,0,0,0
4,49999,24,40000,20,0,1,9999,0.100000,0,0,0.000000,3,1.000000,0.000000,6.223817,0,0,0,0,0,0,0
4,49999,25,40000,20,0,1,9999,0.100000,0,0,0.000000,3,2.000000,0.000000,10.642738,0,0,0,0,0,0,0
4,49999,26,40000,63,0,1,9999,0.100000,0,0,0.000000,3,2.000000,0.000000,15.184271,0,0,0,0,0,0,0
4,49999,27,40000,63,10000,0,9999,0.100000,0,0,0.000000,3,0.000000,0.000000,3.260961,0,0,0,0,0,0,0
4,49999,28,40000,20,0,0,9999,0.100000,0,0,0.000000,3,0.000000,0.000000,0.071759,0,0,0,0,0,0,0
4,49999,29,40000,63,10000,1,9999,0.100000,0,0,0.000000,3,1.000000,0.000000,17.446305,0,0,0,0,0,0,0
4,49999,30,40000,63,10000,1,9999,0.100000,0,0,0.000000,3,6.000000,0.000000,16.867031,0,0,0,0,0,0,0
4,49999,31,40000,63,10000,1,9999,0.100000,0,0,0.000000,3,1.000000,0.000000,16.819794,0,0,0,0,0,0,0
4,49999,32,40000,63,0,0,9999,0.100000,0,0,0.000000,3,0.000000,0.000000,1.266354,0,0,0,0,0,0,0
4,49999,33,40000,20,0,1,9999,0.100000,0,0,0.000000,3,4.000000,0.000000,13.859122,0,0,0,0,0,0,0
4,49999,34,40000,63,10000,1,9999,0.100000,0,0,34.210526,3,6.000000,0.000000,13.092648,0,0,0,0,0,1,0
4,49999,35,40000,20,0,1,9999,0.100000,0,0,0.000000,3,1.000000,0.000000,13.784720,0,0,0,0,0,0,0
4,49999,36,40000,63,10000,1,9999,0.100000,0,0,0.000000,3,3.000000,0.000000,7.283030,0,0,0,0,0,0,0
4,49999,37,40000,20,0,1,9999,0.100000,0,0,0.000000,3,1.000000,0.000000,12.620103,0,0,0,0,0,0,0
4,49999,38,40000,20,0,1,9999,0.100000,0,0,0.000000,3,2.000000,0.000000,8.636828,0,0,0,0,0,0,0
4,49999,39,40000,20,0,1,9999,0.100000,0,0,0.000000,3,1.000000,0.000000,11.495642,0,0,0,0,0,0,0
4,49999,40,40000,20,0,1,9999,0.100000,0,0,0.000000,3,2.000000,0.000000,15.696629,0,0,0,0,0,0,0
4,49999,41,40000,63,0,1,9999,0.100000,0,0,0.000000,3,1.000000,0.000000,2.616648,0,0,0,0,0,0,0
4,49999,42,40000,63,0,1,9999,0.100000,0,0,0.000000,3,1.000000,0.000000,8.811817,0,0,0,0,0,0,0
4,49999,43,40000,63,0,1,9999,0.100000,0,0,0.000000,3,2.000000,0.000000,3.457873,0,0,0,0,0,0,0
4,49999,44,40000,20,0,0,9999,0.135000,0,0,0.000000,3,0.000000,0.000000,0.406786,0,0,0,0,0,0,0
4,49999,45,40000,63,10000,1,9999,0.100000,0,0,0.000000,3,6.000000,0.000000,15.346743,0,0,0,0,0,0,0
4,49999,46,40000,63,0,1,9999,0.100000,0,0,0.000000,3,4.000000,0.000000,14.797122,0,0,0,0,0,0,0
4,49999,47,40000,63,0,1,9999,0.100000,0,0,0.000000,3,2.000000,0.000000,2.901486,0,0,0,0,0,0,0
4,49999,48,40000,20,0,0,9999,0.100000,0,0,0.000000,3,0.000000,0.000000,4.404248,0,0,0,0,0,0,0
4,49999,49,40000,20,0,1,9999,0.100000,0,0,0.000000,3,2.000000,0.000000,15.931877,0,0,0,0,0,0,0
4,49999,50,40000,63,0,0,9999,0.100000,0,0,0.000000,3,0.000000,0.000000,0.199687,0,0,0,0,0,0,0
4,49999,51,40000,20,0,1,9999,0.100000,0,0,0.000000,3,3.000000,0.000000,15.756240,0,0,0,0,0,0,0
4,49999,52,40000,63,10000,1,9999,0.100000,0,0,34.210526,3,6.000000,0.000000,13.581114,0,0,0,0,0,1,0
4,49999,53,40000,63,0,1,9999,0.100000,0,0,0.000000,3,3.000000,0.000000,17.070774,0,0,0,0,0,0,0
4,49999,54,40000,63,10000,1,9999,0.100000,0,0,0.000000,3,4.000000,0.000000,7.389824,0,0,0,0,0,0,0
4,49999,55,40000,63,0,0,9999,0.100000,0,0,0.000000,3,0.000000,0.000000,0.281957,0,0,0,0,0,0,0
4,49999,56,40000,20,0,3,9999,0.100000,0,0,25.646858,3,4.000000,0.000000,16.185094,0,0,1,0,0,0,0
4,49999,57,40000,63,10000,1,9999,0.100000,0,0,0.000000,3,4.000000,0.000000,4.216764,0,0,0,0,0,0,0
4,49999,58,40000,63,10000,1,9999,0.100000,0,0,0.000000,3,2.000000,0.000000,10.402770,0,0,0,0,0,0,0
4,49999,59,40000,63,10000,0,9999,0.100000,0,0,0.000000,3,0.000000,0.000000,0.065274,0,0,0,0,0,0,0
4,49999,60,40000,20,0,1,9999,0.100000,0,0,0.000000,3,4.000000,0.000000,15.995348,0,0,0,0,0,0,0
4,49999,61,40000,20,0,0,9999,0.100000,0,0,0.000000,3,0.000000,0.000000,0.523156,0,0,0,0,0,0,0
4,49999,62,40000,20,0,0,9999,0.100000,0,0,0.000000,3,0.000000,0.000000,9.838260,0,0,0,0,0,0,0
4,49999,63,40000,63,10000,0,9999,0.100000,0,0,0.000000,3,0.000000,0.000000,0.134485,0,0,0,0,0,0,0
4,49999,64,40000,63,0,1,9999,0.100000,0,0,0.000000,3,1.000000,0.000000,12.898883,0,0,0,0,0,0,0
4,49999,65,40000,63,0,1,9999,0.100000,0,0,0.000000,3,4.000000,0.000000,15.490571,0,0,0,0,0,0,0
4,49999,66,40000,63,10000,0,9999,0.100000,0,0,0.000000,3,0.000000,0.000000,0.237071,0,0,0,0,0,0,0
4,49999,67,40000,63,0,1,9999,0.100000,0,0,0.000000,3,1.000000,0.000000,11.405940,0,0,0,0,0,0,0
4,49999,68,40000,63,10000,3,9999,0.100000,0,0,73.607622,3,16.000000,0.000000,20.463464,0,0,1,0,0,0,0
4,49999,69,40000,20,0,1,9999,0.100000,0,0,0.000000,3,5.000000,0.000000,15.773481,0,0,0,0,0,0,0
4,49999,70,40000,63,10000,1,9999,0.100000,0,0,0.000000,3,1.000000,0.000000,9.196892,0,0,0,0,0,0,0
4,49999,71,40000,63,10000,0,9999,0.100000,0,0,0.000000,3,0.000000,0.000000,0.425517,0,0,0,0,0,0,0
4,49999,72,40000,63,10000,1,9999,0.100000,0,0,0.000000,3,2.000000,0.000000,4.522011,0,0,0,0,0,0,0
4,49999,73,40000,63,0,1,9999,0.100000,0,0,0.000000,3,4.000000,0.000000,14.802941,0,0,0,0,0,0,0
4,49999,74,40000,20,0,1,9999,0.100000,0,0,0.000000,3,2.000000,0.000000,14.191205,0,0,0,0,0,0,0
4,49999,75,40000,63,0,0,9999,0.100000,0,0,0.000000,3,0.000000,0.000000,0.996173,0,0,0,0,0,0,0
4,49999,76,40000,63,10000,1,9999,0.100000,0,0,0.000000,3,7.000000,0.000000,9.116896,0,0,0,0,0,0,0
4,49999,77,40000,20,0,0,9999,0.100000,0,0,0.000000,3,0.000000,0.000000,0.862169,0,0,0,0,0,0,0
4,49999,78,40000,63,10000,1,9999,0.100000,0,0,0.000000,3,3.000000,0.000000,6.176386,0,0,0,0,0,0,0
4,49999,79,40000,63,10000,1,9999,0.100000,0,0,0.000000,3,2.000000,0.000000,13.908073,0,0,0,0,0,0,0
4,49999,80,40000,63,0,1,9999,0.100000,0,0,34.210526,3,6.000000,0.000000,16.097427,0,0,0,0,0,1,0
4,49999,81,40000,63,10000,1,9999,0.100000,0,0,0.000000,3,10.000000,0.000000,17.324576,0,0,0,0,0,0,0
4,49999,82,40000,63,10000,0,9999,0.100000,0,0,0.000000,3,0.000000,0.000000,0.943879,0,0,0,0,0,0,0
4,49999,83,40000,63,0,1,9999,0.100000,0,0,0.000000,3,1.000000,0.000000,1.481979,0,0,0,0,0,0,0
4,49999,84,40000,63,0,1,9999,0.100000,0,0,0.000000,3,1.000000,0.000000,12.207698,0,0,0,0,0,0,0
4,49999,85,40000,20,0,1,9999,0.100000,0,0,0.000000,3,4.000000,0.000000,14.917783,0,0,0,0,0,0,0
4,49999,86,40000,63,10000,0,9999,0.100000,0,0,0.000000,3,0.000000,0.000000,1.898437,0,0,0,0,0,0,0
4,49999,87,40000,20,0,0,9999,0.100000,0,0,0.000000,3,0.000000,0.000000,0.093975,0,0,0,0,0,0,0
4,49999,88,40000,63,0,0,9999,0.100000,0,0,0.000000,3,0.000000,0.000000,0.134821,0,0,0,0,0,0,0
4,49999,89,40000,63,0,1,9999,0.100000,0,0,0.000000,3,2.000000,0.000000,3.583411,0,0,0,0,0,0,0
4,49999,90,40000,20,0,0,9999,0.100000,0,0,0.000000,3,0.000000,0.000000,0.375661,0,0,0,0,0,0,0
4,49999,91,40000,63,0,0,9999,0.100000,0,0,0.000000,3,0.000000,0.000000,13.758621,0,0,0,0,0,0,0
4,49999,92,40000,63,0,0,9999,0.100000,0,0,0.000000,3,0.000000,0.000000,22.482382,0,0,0,0,0,0,0
4,49999,93,40000,20,0,1,9999,0.100000,0,0,0.000000,3,2.000000,0.000000,4.721047,0,0,0,0,0,0,0
4,49999,94,40000,20,0,1,9999,0.100000,0,0,0.000000,3,1.000000,0.000000,15.917426,0,0,0,0,0,0,0
4,49999,95,40000,63,0,1,9999,0.100000,0,0,0.000000,3,1.000000,0.000000,3.450508,0,0,0,0,0,0,0
4,49999,96,40000,63,0,0,9999,0.100000,0,0,0.000000,3,0.000000,0.000000,1.390608,0,0,0,0,0,0,0
4,49999,97,40000,63,10000,0,9999,0.100000,0,0,0.000000,3,0.000000,0.000000,0.576218,0,0,0,0,0,0,0
4,49999,98,40000,63,10000,1,9999,0.100000,0,0,0.000000,3,1.000000,0.000000,1.492593,0,0,0,0,0,0,0
4,49999,99,40000,63,0,0,9999,0.100000,0,0,0.000000,3,0.000000,0.000000,0.277578,0,0,0,0,0,0,0
5,59999,0,50000,20,0,0,9999,0.100000,0,0,0.000000,3,0.000000,0.000000,0.789358,0,0,0,0,0,0,0
5,59999,1,50000,1,40000,1,9999,0.100000,0,0,0.000000,3,1.000000,0.000000,2.712521,0,0,0,0,0,0,0
5,59999,2,50000,63,0,0,9999,0.100000,0,0,0.000000,3,0.000000,0.000000,3.248377,0,0,0,0,0,0,0
5,59999,3,50000,63,10000,1,9999,0.100000,0,0,0.000000,3,5.000000,0.000000,9.760803,0,0,0,0,0,0,0
5,59999,4,50000,63,10000,1,9999,0.100000,0,0,0.000000,3,5.000000,0.000000,11.275682,0,0,0,0,0,0,0
5,59999,5,50000,63,10000,1,9999,0.100000,0,0,0.000000,3,5.000000,0.000000,11.981347,0,0,0,0,0,0,0
5,59999,6,50000,20,0,1,9999,0.100000,0,0,0.000000,3,4.000000,0.000000,18.335672,0,0,0,0,0,0,0
5,59999,7,50000,63,0,1,9999,0.100000,0,0,0.000000,3,1.000000,0.000000,5.988522,0,0,0,0,0,0,0
5,59999,8,50000,1,40000,1,9999,0.100000,0,0,0.000000,3,4.000000,0.000000,10.120929,0,0,0,0,0,0,0
5,59999,9,50000,20,0,0,9999,0.100000,0,0,0.000000,3,0.000000,0.000000,3.273755,0,0,0,0,0,0,0
5,59999,10,50000,20,0,0,9999,0.100000,0,0,0.000000,3,0.000000,0.000000,0.077938,0,0,0,0,0,0,0
5,59999,11,50000,63,10000,0,9999,0.100000,0,0,0.000000,3,0.000000,0.000000,1.273411,0,0,0,0,0,0,0
5,59999,12,50000,20,0,1,9999,0.100000,0,0,0.000000,3,1.000000,0.000000,11.373041,0,0,0,0,0,0,0
5,59999,13,50000,20,0,0,9999,0.100000,0,0,0.000000,3,0.000000,0.000000,1.711038,0,0,0,0,0,0,0
5,59999,14,50000,20,0,1,9999,0.100000,0,0,0.000000,3,5.000000,0.000000,16.345727,0,0,0,0,0,0,0
5,59999,15,50000,63,0,0,9999,0.100000,0,0,0.000000,3,0.000000,0.000000,3.963492,0,0,0,0,0,0,0
5,59999,16,50000,20,0,0,9999,0.100000,0,0,0.000000,3,0.000000,0.000000,5.962949,0,0,0,0,0,0,0
5,59999,17,50000,20,0,0,9999,0.100000,0,0,0.000000,3,0.000000,0.000000,4.995447,0,0,0,0,0,0,0
5,59999,18,50000,63,0,1,9999,0.100000,0,0,0.000000,3,4.000000,0.000000,6.430366,0,0,0,0,0,0,0
5,59999,19,50000,63,10000,1,9999,0.100000,0,0,0.000000,3,1.000000,0.000000,3.739232,0,0,0,0,0,0,0
5,59999,20,50000,20,0,1,9999,0.100000,0,0,0.000000,3,4.000000,0.000000,10.478471,0,0,0,0,0,0,0
5,59999,21,50000,63,0,0,9999,0.100000,0,0,0.000000,3,0.000000,0.000000,1.255716,0,0,0,0,0,0,0
5,59999,22,50000,63,10000,1,9999,0.100000,0,0,0.000000,3,6.000000,0.000000,13.496339,0,0,0,0,0,0,0
5,59999,23,50000,1,40000,0,9999,0.100000,0,0,0.000000,3,0.000000,0.000000,1.120917,0,0,0,0,0,0,0
5,59999,24,50000,63,0,1,9999,0.100000,0,0,0.000000,3,3.000000,0.000000,13.786759,0,0,0,0,0,0,0
5,59999,25,50000,1,40000,1,9999,0.100000,0,0,0.000000,3,4.000000,0.000000,9.281307,0,0,0,0,0,0,0
5,59999,26,50000,63,10000,0,9999,0.100000,0,0,0.000000,3,0.000000,0.000000,4.375996,0,0,0,0,0,0,0
5,59999,27,50000,63,0,1,9999,0.100000,0,0,0.000000,3,4.000000,0.000000,7.210644,0,0,0,0,0,0,0
5,59999,28,50000,20,0,0,9999,0.100000,0,0,0.000000,3,0.000000,0.000000,1.273746,0,0,0,0,0,0,0
5,59999,29,50000,63,10000,1,9999,0.100000,0,0,0.000000,3,1.000000,0.000000,2.711465,0,0,0,0,0,0,0
5,59999,30,50000,63,0,0,9999,0.100000,0,0,0.000000,3,0.000000,0.000000,15.725374,0,0,0,0,0,0,0
5,59999,31,50000,1,40000,1,9999,0.100000,0,0,0.000000,3,3.000000,0.000000,13.879161,0,0,0,0,0,0,0
5,59999,32,50000,63,10000,1,9999,0.100000,0,0,0.000000,3,1.000000,0.000000,1.402458,0,0,0,0,0,0,0
5,59999,33,50000,1,40000,1,9999,0.100000,0,0,0.000000,3,2.000000,0.000000,13.842318,0,0,0,0,0,0,0
5,59999,34,50000,1,40000,1,9999,0.100000,0,0,0.000000,3,5.000000,0.000000,7.932185,0,0,0,0,0,0,0
5,59999,35,50000,20,0,1,9999,0.100000,0,0,0.000000,3,5.000000,0.000000,11.896452,0,0,0,0,0,0,0
5,59999,36,50000,63,10000,0,9999,0.100000,0,0,0.000000,3,0.000000,0.000000,2.342927,0,0,0,0,0,0,0
5,59999,37,50000,20,0,1,9999,0.100000,0,0,0.000000,3,2.000000,0.000000,16.378909,0,0,0,0,0,0,0
5,59999,38,50000,1,40000,1,9999,0.100000,0,0,0.000000,3,2.000000,0.000000,16.856685,0,0,0,0,0,0,0
5,59999,39,50000,63,0,1,9999,0.100000,0,0,0.000000,3,1.000000,0.000000,16.976035,0,0,0,0,0,0,0
5,59999,40,50000,63,0,1,9999,0.100000,0,0,0.000000,3,2.000000,0.000000,13.966494,0,0,0,0,0,0,0
5,59999,41,50000,20,0,0,9999,0.100000,0,0,0.000000,3,0.000000,0.000000,2.718769,0,0,0,0,0,0,0
5,59999,42,50000,20,0,0,9999,0.100000,0,0,0.000000,3,0.000000,0.000000,0.635246,0,0,0,0,0,0,0
5,59999,43,50000,1,40000,1,9999,0.100000,0,0,0.000000,3,1.000000,0.000000,2.594598,0,0,0,0,0,0,0
5,59999,44,50000,20,0,1,9999,0.100000,0,0,0.000000,3,4.000000,0.000000,5.461468,0,0,0,0,0,0,0
5,59999,45,50000,63,10000,1,9999,0.100000,0,0,0.000000,3,4.000000,0.000000,17.178520,0,0,0,0,0,0,0
5,59999,46,50000,63,0,1,9999,0.100000,0,0,0.000000,3,2.000000,0.000000,7.246148,0,0,0,0,0,0,0
5,59999,47,50000,63,10000,1,9999,0.100000,0,0,0.000000,3,1.000000,0.000000,3.971874,0,0,0,0,0,0,0
5,59999,48,50000,63,0,0,9999,0.100000,0,0,0.000000,3,0.000000,0.000000,0.909864,0,0,0,0,0,0,0
5,59999,49,50000,1,40000,1,9999,0.100000,0,0,0.000000,3,2.000000,0.000000,14.312143,0,0,0,0,0,0,0
5,59999,50,50000,20,0,0,9999,0.100000,0,0,0.000000,3,0.000000,0.000000,0.245898,0,0,0,0,0,0,0
5,59999,51,50000,63,0,1,9999,0.100000,0,0,0.000000,3,2.000000,0.000000,15.104641,0,0,0,0,0,0,0
5,59999,52,50000,20,0,1,9999,0.100000,0,0,0.000000,3,2.000000,0.000000,18.974694,0,0,0,0,0,0,0
5,59999,53,50000,1,40000,1,9999,0.100000,0,0,0.000000,3,3.000000,0.000000,19.960812,0,0,0,0,0,0,0
5,59999,54,50000,63,10000,0,9999,0.100000,0,0,0.000000,3,0.000000,0.000000,8.406865,0,0,0,0,0,0,0
5,59999,55,50000,20,0,1,9999,0.100000,0,0,0.000000,3,4.000000,0.000000,5.503201,0,0,0,0,0,0,0
5,59999,56,50000,20,0,1,9999,0.100000,0,0,0.000000,3,4.000000,0.000000,14.440827,0,0,0,0,0,0,0
5,59999,57,50000,63,0,3,9999,0.100000,0,0,34.210526,3,13.000000,0.000000,21.034971,0,0,1,0,0,0,0
5,59999,58,50000,63,0,1,9999,0.100000,0,0,0.000000,3,5.000000,0.000000,11.203177,0,0,0,0,0,0,0
5,59999,59,50000,1,40000,0,9999,0.100000,0,0,0.000000,3,0.000000,0.000000,1.198731,0,0,0,0,0,0,0
5,59999,60,50000,20,0,0,9999,0.100000,0,0,0.000000,3,0.000000,0.000000,2.217498,0,0,0,0,0,0,0
5,59999,61,50000,20,0,1,9999,0.100000,0,0,0.000000,3,4.000000,0.000000,22.708229,0,0,0,0,0,0,0
5,59999,62,50000,63,10000,1,9999,0.100000,0,0,0.000000,3,5.000000,0.000000,10.648833,0,0,0,0,0,0,0
5,59999,63,50000,20,0,0,9999,0.100000,0,0,0.000000,3,0.000000,0.000000,0.136181,0,0,0,0,0,0,0
5,59999,64,50000,63,0,0,9999,0.100000,0,0,0.000000,3,0.000000,0.000000,10.674336,0,0,0,0,0,0,0
5,59999,65,50000,20,0,1,9999,0.100000,0,0,0.000000,3,6.000000,0.000000,17.112980,0,0,0,0,0,0,0
5,59999,66,50000,20,0,0,9999,0.100000,0,0,0.000000,3,0.000000,0.000000,0.746728,0,0,0,0,0,0,0
5,59999,67,50000,63,10000,1,9999,0.100000,0,0,0.000000,3,2.000000,0.000000,17.297805,0,0,0,0,0,0,0
5,59999,68,50000,63,10000,1,9999,0.100000,0,0,0.000000,3,4.000000,0.000000,14.436903,0,0,0,0,0,0,0
5,59999,69,50000,1,40000,1,9999,0.100000,0,0,0.000000,3,4.000000,0.000000,7.984353,0,0,0,0,0,0,0
5,59999,70,50000,20,0,1,9999,0.100000,0,0,0.000000,3,1.000000,0.000000,13.848576,0,0,0,0,0,0,0
5,59999,71,50000,1,40000,0,9999,0.100000,0,0,0.000000,3,0.000000,0.000000,0.918963,0,0,0,0,0,0,0
5,59999,72,50000,63,10000,1,9999,0.100000,0,0,0.000000,3,3.000000,0.000000,13.757306,0,0,0,0,0,0,0
5,59999,73,50000,63,10000,1,9999,0.100000,0,0,0.000000,3,8.000000,0.000000,16.765352,0,0,0,0,0,0,0
5,59999,74,50000,63,10000,3,9999,0.100000,0,0,43.104285,3,2.000000,0.000000,14.083924,0,0,1,0,0,0,0
5,59999,75,50000,20,0,0,9999,0.100000,0,0,0.000000,3,0.000000,0.000000,1.229223,0,0,0,0,0,0,0
5,59999,76,50000,1,40000,1,9999,0.100000,0,0,0.000000,3,2.000000,0.000000,3.232830,0,0,0,0,0,0,0
5,59999,77,50000,63,0,0,9999,0.100000,0,0,0.000000,3,0.000000,0.000000,0.799575,0,0,0,0,0,0,0
5,59999,78,50000,63,10000,1,9999,0.100000,0,0,0.000000,3,1.000000,0.000000,4.282656,0,0,0,0,0,0,0
5,59999,79,50000,20,0,1,9999,0.100000,0,0,0.000000,3,1.000000,0.000000,14.612373,0,0,0,0,0,0,0
5,59999,80,50000,20,0,1,9999,0.100000,0,0,0.000000,3,3.000000,0.000000,13.795182,0,0,0,0,0,0,0
5,59999,81,50000,20,0,0,9999,0.100000,0,0,0.000000,3,0.000000,0.000000,0.992932,0,0,0,0,0,0,0
5,59999,82,50000,63,0,0,9999,0.100000,0,0,0.000000,3,0.000000,0.000000,9.576581,0,0,0,0,0,0,0
5,59999,83,50000,20,0,0,9999,0.100000,0,0,0.000000,3,0.000000,0.000000,10.914839,0,0,0,0,0,0,0
5,59999,84,50000,20,0,1,9999,0.100000,0,0,0.000000,3,3.000000,0.000000,13.911019,0,0,0,0,0,0,0
5,59999,85,50000,1,40000,1,9999,0.100000,0,0,0.000000,3,5.000000,0.000000,12.745613,0,0,0,0,0,0,0
5,59999,86,50000,63,0,0,9999,0.100000,0,0,0.000000,3,0.000000,0.000000,1.235381,0,0,0,0,0,0,0
5,59999,87,50000,20,0,0,9999,0.100000,0,0,0.000000,3,0.000000,0.000000,0.098313,0,0,0,0,0,0,0
5,59999,88,50000,1,40000,0,9999,0.100000,0,0,0.000000,3,0.000000,0.000000,0.196955,0,0,0,0,0,0,0
5,59999,89,50000,20,0,1,9999,0.100000,0,0,0.000000,3,1.000000,0.000000,16.939722,0,0,0,0,0,0,0
5,59999,90,50000,20,0,0,9999,0.100000,0,0,0.000000,3,0.000000,0.000000,1.498635,0,0,0,0,0,0,0
5,59999,91,50000,63,10000,0,9999,0.100000,0,0,0.000000,3,0.000000,0.000000,12.564289,0,0,0,0,0,0,0
5,59999,92,50000,63,10000,0,9999,0.100000,0,0,0.000000,3,0.000000,0.000000,22.388908,0,0,0,0,0,0,0
5,59999,93,50000,20,0,1,9999,0.100000,0,0,0.000000,3,1.000000,0.000000,14.520079,0,0,0,0,0,0,0
5,59999,94,50000,20,0,1,9999,0.100000,0,0,0.000000,3,1.000000,0.000000,18.038952,0,0,0,0,0,0,0
5,59999,95,50000,63,10000,1,9999,0.100000,0,0,0.000000,3,2.000000,0.000000,3.514796,0,0,0,0,0,0,0
5,59999,96,50000,63,10000,0,9999,0.100000,0,0,0.000000,3,0.000000,0.000000,0.752083,0,0,0,0,0,0,0
5,59999,97,50000,63,10000,0,9999,0.100000,0,0,0.000000,3,0.000000,0.000000,0.478838,0,0,0,0,0,0,0
5,59999,98,50000,20,0,1,9999,0.100000,0,0,0.000000,3,3.000000,0.000000,7.503226,0,0,0,0,0,0,0
5,59999,99,50000,1,40000,0,9999,0.100000,0,0,0.000000,3,0.000000,0.000000,0.600274,0,0,0,0,0,0,0
6,69999,0,60000,1,40000,0,9999,0.100000,0,0,0.000000,3,0.000000,0.000000,0.480598,0,0,0,0,0,0,0
6,69999,1,60000,1,40000,0,9999,0.100000,0,0,0.000000,3,0.000000,0.000000,0.569578,0,0,0,0,0,0,0
6,69999,2,60000,1,40000,0,9999,0.100000,0,0,0.000000,3,0.000000,0.000000,0.436054,0,0,0,0,0,0,0
6,69999,3,60000,20,0,0,9999,0.100000,0,0,0.000000,3,0.000000,0.000000,0.567720,0,0,0,0,0,0,0
6,69999,4,60000,1,40000,1,9999,0.100000,0,0,0.000000,3,3.000000,0.000000,10.983180,0,0,0,0,0,0,0
6,69999,5,60000,63,10000,0,9999,0.065000,0,0,0.000000,3,0.000000,0.000000,0.239151,0,0,0,0,0,0,0
6,69999,6,60000,1,40000,1,9999,0.100000,0,0,0.000000,3,3.000000,0.000000,14.056148,0,0,0,0,0,0,0
6,69999,7,60000,20,0,1,9999,0.100000,0,0,0.000000,3,1.000000,0.000000,4.656039,0,0,0,0,0,0,0
6,69999,8,60000,20,0,1,9999,0.100000,0,0,0.000000,3,2.000000,0.000000,8.317777,0,0,0,0,0,0,0
6,69999,9,60000,63,10000,0,9999,0.100000,0,0,0.000000,3,0.000000,0.000000,3.317551,0,0,0,0,0,0,0
6,69999,10,60000,1,40000,1,9999,0.100000,0,0,0.000000,3,3.000000,0.000000,7.841753,0,0,0,0,0,0,0
6,69999,11,60000,1,40000,1,9999,0.100000,0,0,0.000000,3,1.000000,0.000000,7.417787,0,0,0,0,0,0,0
6,69999,12,60000,20,0,1,9999,0.100000,0,0,0.000000,3,1.000000,0.000000,6.984489,0,0,0,0,0,0,0
6,69999,13,60000,1,40000,0,9999,0.100000,0,0,0.000000,3,0.000000,0.000000,0.824845,0,0,0,0,0,0,0
6,69999,14,60000,63,10000,1,9999,0.100000,0,0,0.000000,3,3.000000,0.000000,10.940450,0,0,0,0,0,0,0
6,69999,15,60000,1,40000,0,9999,0.100000,0,0,0.000000,3,0.000000,0.000000,0.296206,0,0,0,0,0,0,0
6,69999,16,60000,1,40000,1,9999,0.100000,0,0,0.000000,3,1.000000,0.000000,7.370028,0,0,0,0,0,0,0
6,69999,17,60000,63,10000,0,9999,0.100000,0,0,0.000000,3,0.000000,0.000000,1.208649,0,0,0,0,0,0,0
6,69999,18,60000,63,10000,1,9999,0.100000,0,0,0.000000,3,1.000000,0.000000,8.444709,0,0,0,0,0,0,0
6,69999,19,60000,20,0,0,9999,0.100000,0,0,0.000000,3,0.000000,0.000000,0.543736,0,0,0,0,0,0,0
6,69999,20,60000,63,10000,0,9999,0.100000,0,0,0.000000,3,0.000000,0.000000,5.092534,0,0,0,0,0,0,0
6,69999,21,60000,63,10000,0,9999,0.100000,0,0,0.000000,3,0.000000,0.000000,1.213362,0,0,0,0,0,0,0
6,69999,22,60000,63,10000,1,9999,0.100000,0,0,0.000000,3,1.000000,0.000000,11.094793,0,0,0,0,0,0,0
6,69999,23,60000,63,10000,0,9999,0.100000,0,0,0.000000,3,0.000000,0.000000,5.193474,0,0,0,0,0,0,0
6,69999,24,60000,63,10000,1,9999,0.100000,0,0,0.000000,3,2.000000,0.000000,8.537887,0,0,0,0,0,0,0
6,69999,25,60000,1,40000,1,9999,0.100000,0,0,0.000000,3,8.000000,0.000000,18.546583,0,0,0,0,0,0,0
6,69999,26,60000,20,0,1,9999,0.100000,0,0,0.000000,3,4.000000,0.000000,13.898911,0,0,0,0,0,0,0
6,69999,27,60000,63,10000,1,9999,0.100000,0,0,0.000000,3,1.000000,0.000000,2.142069,0,0,0,0,0,0,0
6,69999,28,60000,20,0,1,9999,0.100000,0,0,0.000000,3,3.000000,0.000000,4.035866,0,0,0,0,0,0,0
6,69999,29,60000,63,10000,0,9999,0.100000,0,0,0.000000,3,0.000000,0.000000,0.137079,0,0,0,0,0,0,0
6,69999,30,60000,20,0,0,9999,0.100000,0,0,0.000000,3,0.000000,0.000000,1.958018,0,0,0,0,0,0,0
6,69999,31,60000,20,0,1,9999,0.100000,0,0,0.000000,3,2.000000,0.000000,16.395756,0,0,0,0,0,0,0
6,69999,32,60000,20,0,1,9999,0.100000,0,0,0.000000,3,3.000000,0.000000,7.654268,0,0,0,0,0,0,0
6,69999,33,60000,1,40000,1,9999,0.100000,0,0,0.000000,3,6.000000,0.000000,13.120485,0,0,0,0,0,0,0
6,69999,34,60000,63,10000,1,9999,0.100000,0,0,0.000000,3,8.000000,0.000000,10.897389,0,0,0,0,0,0,0
6,69999,35,60000,1,40000,0,9999,0.100000,0,0,0.000000,3,0.000000,0.000000,2.512493,0,0,0,0,0,0,0
6,69999,36,60000,1,40000,0,9999,0.100000,0,0,0.000000,3,0.000000,0.000000,3.737054,0,0,0,0,0,0,0
6,69999,37,60000,20,0,1,9999,0.100000,0,0,0.000000,3,2.000000,0.000000,17.006042,0,0,0,0,0,0,0
6,69999,38,60000,63,10000,1,9999,0.100000,0,0,0.000000,3,1.000000,0.000000,28.908339,0,0,0,0,0,0,0
6,69999,39,60000,20,0,1,9999,0.100000,0,0,0.000000,3,1.000000,0.000000,6.265298,0,0,0,0,0,0,0
6,69999,40,60000,63,10000,1,9999,0.100000,0,0,0.000000,3,4.000000,0.000000,8.983683,0,0,0,0,0,0,0
6,69999,41,60000,63,10000,0,9999,0.100000,0,0,0.000000,3,0.000000,0.000000,1.121572,0,0,0,0,0,0,0
6,69999,42,60000,20,0,0,9999,0.100000,0,0,0.000000,3,0.000000,0.000000,0.692414,0,0,0,0,0,0,0
6,69999,43,60000,1,40000,0,9999,0.100000,0,0,0.000000,3,0.000000,0.000000,0.810340,0,0,0,0,0,0,0
6,69999,44,60000,20,0,1,9999,0.100000,0,0,0.000000,3,1.000000,0.000000,2.134879,0,0,0,0,0,0,0
6,69999,45,60000,63,10000,1,9999,0.100000,0,0,0.000000,3,3.000000,0.000000,6.658277,0,0,0,0,0,0,0
6,69999,46,60000,63,10000,1,9999,0.100000,0,0,0.000000,3,8.000000,0.000000,15.272278,0,0,0,0,0,0,0
6,69999,47,60000,1,40000,0,9999,0.100000,0,0,0.000000,3,0.000000,0.000000,0.579978,0,0,0,0,0,0,0
6,69999,48,60000,1,40000,0,9999,0.100000,0,0,0.000000,3,0.000000,0.000000,0.698514,0,0,0,0,0,0,0
6,69999,49,60000,20,0,1,9999,0.100000,0,0,0.000000,3,1.000000,0.000000,13.255836,0,0,0,0,0,0,0
6,69999,50,60000,20,0,0,9999,0.100000,0,0,0.000000,3,0.000000,0.000000,0.864660,0,0,0,0,0,0,0
6,69999,51,60000,20,0,1,9999,0.100000,0,0,0.000000,3,4.000000,0.000000,15.926045,0,0,0,0,0,0,0
6,69999,52,60000,63,10000,1,9999,0.100000,0,0,0.000000,3,7.000000,0.000000,20.964978,0,0,0,0,0,0,0
6,69999,53,60000,20,0,1,9999,0.100000,0,0,0.000000,3,1.000000,0.000000,11.032074,0,0,0,0,0,0,0
6,69999,54,60000,63,10000,0,9999,0.100000,0,0,0.000000,3,0.000000,0.000000,3.342175,0,0,0,0,0,0,0
6,69999,55,60000,20,0,1,9999,0.100000,0,0,0.000000,3,1.000000,0.000000,2.102150,0,0,0,0,0,0,0
6,69999,56,60000,1,40000,1,9999,0.100000,0,0,0.000000,3,4.000000,0.000000,15.348395,0,0,0,0,0,0,0
6,69999,57,60000,1,40000,1,9999,0.100000,0,0,0.000000,3,6.000000,0.000000,16.637697,0,0,0,0,0,0,0
6,69999,58,60000,1,40000,0,9999,0.100000,0,0,0.000000,3,0.000000,0.000000,0.960223,0,0,0,0,0,0,0
6,69999,59,60000,1,40000,1,9999,0.100000,0,0,0.000000,3,3.000000,0.000000,5.629896,0,0,0,0,0,0,0
6,69999,60,60000,20,0,0,9999,0.100000,0,0,0.000000,3,0.000000,0.000000,0.443702,0,0,0,0,0,0,0
6,69999,61,60000,20,0,1,9999,0.100000,0,0,0.000000,3,1.000000,0.000000,8.576377,0,0,0,0,0,0,0
6,69999,62,60000,20,0,1,9999,0.100000,0,0,0.000000,3,2.000000,0.000000,15.486847,0,0,0,0,0,0,0
6,69999,63,60000,63,10000,0,9999,0.100000,0,0,0.000000,3,0.000000,0.000000,0.136030,0,0,0,0,0,0,0
6,69999,64,60000,20,0,1,9999,0.100000,0,0,0.000000,3,4.000000,0.000000,14.206480,0,0,0,0,0,0,0
6,69999,65,60000,20,0,1,9999,0.100000,0,0,0.000000,3,2.000000,0.000000,16.091497,0,0,0,0,0,0,0
6,69999,66,60000,1,40000,0,9999,0.100000,0,0,0.000000,3,0.000000,0.000000,1.724471,0,0,0,0,0,0,0
6,69999,67,60000,1,40000,1,9999,0.100000,0,0,0.000000,3,7.000000,0.000000,16.571389,0,0,0,0,0,0,0
6,69999,68,60000,1,40000,1,9999,0.100000,0,0,0.000000,3,1.000000,0.000000,14.145284,0,0,0,0,0,0,0
6,69999,69,60000,63,10000,1,9999,0.100000,0,0,0.000000,3,4.000000,0.000000,15.120496,0,0,0,0,0,0,0
6,69999,70,60000,20,0,1,9999,0.100000,0,0,0.000000,3,3.000000,0.000000,8.753032,0,0,0,0,0,0,0
6,69999,71,60000,1,40000,0,9999,0.100000,0,0,0.000000,3,0.000000,0.000000,0.959676,0,0,0,0,0,0,0
6,69999,72,60000,63,10000,1,9999,0.100000,0,0,0.000000,3,2.000000,0.000000,7.663930,0,0,0,0,0,0,0
6,69999,73,60000,1,40000,1,9999,0.100000,0,0,0.000000,3,1.000000,0.000000,2.922817,0,0,0,0,0,0,0
6,69999,74,60000,1,40000,3,9999,0.100000,0,0,51.459723,3,3.000000,0.000000,22.595111,0,0,1,0,0,0,0
6,69999,75,60000,20,0,0,9999,0.100000,0,0,0.000000,3,0.000000,0.000000,0.917830,0,0,0,0,0,0,0
6,69999,76,60000,20,0,0,9999,0.100000,0,0,0.000000,3,0.000000,0.000000,2.979494,0,0,0,0,0,0,0
6,69999,77,60000,63,10000,0,9999,0.100000,0,0,0.000000,3,0.000000,0.000000,0.853725,0,0,0,0,0,0,0
6,69999,78,60000,63,10000,0,9999,0.100000,0,0,0.000000,3,0.000000,0.000000,0.995875,0,0,0,0,0,0,0
6,69999,79,60000,20,0,1,9999,0.100000,0,0,0.000000,3,1.000000,0.000000,16.725863,0,0,0,0,0,0,0
6,69999,80,60000,63,10000,1,9999,0.100000,0,0,0.000000,3,7.000000,0.000000,17.637195,0,0,0,0,0,0,0
6,69999,81,60000,20,0,0,9999,0.100000,0,0,0.000000,3,0.000000,0.000000,0.301094,0,0,0,0,0,0,0
6,69999,82,60000,63,10000,0,9999,0.100000,0,0,0.000000,3,0.000000,0.000000,10.033627,0,0,0,0,0,0,0
6,69999,83,60000,20,0,1,9999,0.100000,0,0,0.000000,3,1.000000,0.000000,16.410436,0,0,0,0,0,0,0
6,69999,84,60000,63,10000,1,9999,0.100000,0,0,0.000000,3,6.000000,0.000000,13.935998,0,0,0,0,0,0,0
6,69999,85,60000,1,40000,1,9999,0.100000,0,0,0.000000,3,3.000000,0.000000,10.315775,0,0,0,0,0,0,0
6,69999,86,60000,63,10000,0,9999,0.100000,0,0,0.000000,3,0.000000,0.000000,1.551686,0,0,0,0,0,0,0
6,69999,87,60000,63,10000,0,9999,0.100000,0,0,0.000000,3,0.000000,0.000000,0.119554,0,0,0,0,0,0,0
6,69999,88,60000,63,10000,0,9999,0.100000,0,0,0.000000,3,0.000000,0.000000,0.327567,0,0,0,0,0,0,0
6,69999,89,60000,20,0,1,9999,0.100000,0,0,0.000000,3,3.000000,0.000000,26.740804,0,0,0,0,0,0,0
6,69999,90,60000,1,40000,0,9999,0.100000,0,0,0.000000,3,0.000000,0.000000,1.414473,0,0,0,0,0,0,0
6,69999,91,60000,20,0,1,9999,0.100000,0,0,0.000000,3,3.000000,0.000000,17.131791,0,0,0,0,0,0,0
6,69999,92,60000,1,40000,0,9999,0.100000,0,0,0.000000,3,0.000000,0.000000,22.286147,0,0,0,0,0,0,0
6,69999,93,60000,63,10000,1,9999,0.100000,0,0,0.000000,3,1.000000,0.000000,7.921957,0,0,0,0,0,0,0
6,69999,94,60000,63,10000,1,9999,0.100000,0,0,0.000000,3,5.000000,0.000000,16.833444,0,0,0,0,0,0,0
6,69999,95,60000,20,0,1,9999,0.100000,0,0,0.000000,3,1.000000,0.000000,4.807548,0,0,0,0,0,0,0
6,69999,96,60000,63,10000,0,9999,0.100000,0,0,0.000000,3,0.000000,0.000000,0.847663,0,0,0,0,0,0,0
6,69999,97,60000,20,0,0,9999,0.100000,0,0,0.000000,3,0.000000,0.000000,0.555714,0,0,0,0,0,0,0
6,69999,98,60000,63,10000,1,9999,0.100000,0,0,0.000000,3,1.000000,0.000000,4.938744,0,0,0,0,0,0,0
6,69999,99,60000,1,40000,0,9999,0.100000,0,0,0.000000,3,0.000000,0.000000,4.002032,0,0,0,0,0,0,0
7,79999,0,70000,1,40000,0,9999,0.100000,0,0,0.000000,3,0.000000,0.000000,0.468341,0,0,0,0,0,0,0
7,79999,1,70000,1,40000,0,9999,0.100000,0,0,0.000000,3,0.000000,0.000000,0.690632,0,0,0,0,0,0,0
7,79999,2,70000,20,0,1,9999,0.100000,0,0,0.000000,3,11.000000,0.000000,11.806449,0,0,0,0,0,0,0
7,79999,3,70000,1,40000,0,9999,0.100000,0,0,0.000000,3,0.000000,0.000000,0.683555,0,0,0,0,0,0,0
7,79999,4,70000,20,0,1,9999,0.100000,0,0,0.000000,3,2.000000,0.000000,12.293019,0,0,0,0,0,0,0
7,79999,5,70000,63,10000,0,9999,0.100000,0,0,0.000000,3,0.000000,0.000000,0.246008,0,0,0,0,0,0,0
7,79999,6,70000,1,40000,0,9999,0.100000,0,0,0.000000,3,0.000000,0.000000,7.799961,0,0,0,0,0,0,0
7,79999,7,70000,63,10000,1,9999,0.100000,0,0,0.000000,3,1.000000,0.000000,6.405946,0,0,0,0,0,0,0
7,79999,8,70000,1,40000,0,9999,0.100000,0,0,0.000000,3,0.000000,0.000000,4.020912,0,0,0,0,0,0,0
7,79999,9,70000,20,0,0,9999,0.100000,0,0,0.000000,3,0.000000,0.000000,2.304253,0,0,0,0,0,0,0
7,79999,10,70000,63,10000,1,9999,0.100000,0,0,0.000000,3,1.000000,0.000000,1.235949,0,0,0,0,0,0,0
7,79999,11,70000,20,0,0,9999,0.100000,0,0,0.000000,3,0.000000,0.000000,7.354772,0,0,0,0,0,0,0
7,79999,12,70000,20,0,0,9999,0.100000,0,0,0.000000,3,0.000000,0.000000,0.666678,0,0,0,0,0,0,0
7,79999,13,70000,1,40000,0,9999,0.100000,0,0,0.000000,3,0.000000,0.000000,0.901341,0,0,0,0,0,0,0
7,79999,14,70000,20,0,1,9999,0.100000,0,0,0.000000,3,3.000000,0.000000,9.360406,0,0,0,0,0,0,0
7,79999,15,70000,63,10000,0,9999,0.100000,0,0,0.000000,3,0.000000,0.000000,0.660609,0,0,0,0,0,0,0
7,79999,16,70000,63,10000,1,9999,0.100000,0,0,0.000000,3,2.000000,0.000000,5.018564,0,0,0,0,0,0,0
7,79999,17,70000,1,40000,0,9999,0.100000,0,0,0.000000,3,0.000000,0.000000,0.648318,0,0,0,0,0,0,0
7,79999,18,70000,1,40000,1,9999,0.100000,0,0,0.000000,3,3.000000,0.000000,5.763670,0,0,0,0,0,0,0
7,79999,19,70000,1,40000,0,9999,0.100000,0,0,0.000000,3,0.000000,0.000000,0.563735,0,0,0,0,0,0,0
7,79999,20,70000,1,40000,0,9999,0.100000,0,0,0.000000,3,0.000000,0.000000,5.894734,0,0,0,0,0,0,0
7,79999,21,70000,1,40000,0,9999,0.100000,0,0,0.000000,3,0.000000,0.000000,1.317457,0,0,0,0,0,0,0
7,79999,22,70000,63,10000,1,9999,0.100000,0,0,0.000000,3,8.000000,0.000000,16.404332,0,0,0,0,0,0,0
7,79999,23,70000,63,10000,0,9999,0.100000,0,0,0.000000,3,0.000000,0.000000,3.700196,0,0,0,0,0,0,0
7,79999,24,70000,1,40000,0,9999,0.100000,0,0,0.000000,3,0.000000,0.000000,3.674397,0,0,0,0,0,0,0
7,79999,25,70000,63,10000,1,9999,0.100000,0,0,0.000000,3,6.000000,0.000000,22.436101,0,0,0,0,0,0,0
7,79999,26,70000,20,0,1,9999,0.135000,0,0,0.000000,3,5.000000,0.000000,19.299278,0,0,0,0,0,0,0
7,79999,27,70000,63,10000,1,9999,0.100000,0,0,34.210526,3,7.000000,0.000000,12.981419,0,0,0,0,0,1,0
7,79999,28,70000,63,10000,0,9999,0.100000,0,0,0.000000,3,0.000000,0.000000,0.066450,0,0,0,0,0,0,0
7,79999,29,70000,1,40000,0,9999,0.100000,0,0,0.000000,3,0.000000,0.000000,0.134792,0,0,0,0,0,0,0
7,79999,30,70000,63,10000,0,9999,0.100000,0,0,0.000000,3,0.000000,0.000000,1.193565,0,0,0,0,0,0,0
7,79999,31,70000,1,40000,1,9999,0.100000,0,0,0.000000,3,4.000000,0.000000,9.577223,0,0,0,0,0,0,0
7,79999,32,70000,1,40000,1,9999,0.100000,0,0,0.000000,3,1.000000,0.000000,9.587684,0,0,0,0,0,0,0
7,79999,33,70000,20,0,0,9999,0.100000,0,0,0.000000,3,0.000000,0.000000,2.624168,0,0,0,0,0,0,0
7,79999,34,70000,1,40000,0,9999,0.100000,0,0,0.000000,3,0.000000,0.000000,0.949379,0,0,0,0,0,0,0
7,79999,35,70000,63,10000,0,9999,0.100000,0,0,0.000000,3,0.000000,0.000000,0.409643,0,0,0,0,0,0,0
7,79999,36,70000,20,0,0,9999,0.100000,0,0,0.000000,3,0.000000,0.000000,2.512327,0,0,0,0,0,0,0
7,79999,37,70000,1,40000,1,9999,0.100000,0,0,0.000000,3,1.000000,0.000000,1.751802,0,0,0,0,0,0,0
7,79999,38,70000,20,0,1,9999,0.100000,0,0,0.000000,3,1.000000,0.000000,25.706376,0,0,0,0,0,0,0
7,79999,39,70000,20,0,1,9999,0.100000,0,0,0.000000,3,1.000000,0.000000,6.779323,0,0,0,0,0,0,0
7,79999,40,70000,1,40000,1,9999,0.100000,0,0,0.000000,3,6.000000,0.000000,20.875191,0,0,0,0,0,0,0
7,79999,41,70000,1,40000,0,9999,0.100000,0,0,0.000000,3,0.000000,0.000000,0.949314,0,0,0,0,0,0,0
7,79999,42,70000,63,10000,0,9999,0.100000,0,0,0.000000,3,0.000000,0.000000,0.631561,0,0,0,0,0,0,0
7,79999,43,70000,20,0,0,9999,0.100000,0,0,0.000000,3,0.000000,0.000000,0.822795,0,0,0,0,0,0,0
7,79999,44,70000,1,40000,1,9999,0.100000,0,0,34.210526,3,6.000000,0.000000,13.690757,0,0,0,0,0,1,0
7,79999,45,70000,63,10000,1,9999,0.100000,0,0,0.000000,3,4.000000,0.000000,20.983388,0,0,0,0,0,0,0
7,79999,46,70000,1,40000,1,9999,0.100000,0,0,0.000000,3,1.000000,0.000000,1.588574,0,0,0,0,0,0,0
7,79999,47,70000,63,10000,0,9999,0.100000,0,0,0.000000,3,0.000000,0.000000,0.626892,0,0,0,0,0,0,0
7,79999,48,70000,63,10000,0,9999,0.100000,0,0,0.000000,3,0.000000,0.000000,0.537134,0,0,0,0,0,0,0
7,79999,49,70000,63,10000,1,9999,0.100000,0,0,0.000000,3,6.000000,0.000000,15.409644,0,0,0,0,0,0,0
7,79999,50,70000,63,10000,0,9999,0.100000,0,0,0.000000,3,0.000000,0.000000,1.060730,0,0,0,0,0,0,0
7,79999,51,70000,63,10000,1,9999,0.100000,0,0,0.000000,3,6.000000,0.000000,17.387998,0,0,0,0,0,0,0
7,79999,52,70000,63,10000,0,9999,0.100000,0,0,0.000000,3,0.000000,0.000000,16.473321,0,0,0,0,0,0,0
7,79999,53,70000,20,0,0,9999,0.100000,0,0,0.000000,3,0.000000,0.000000,1.440046,0,0,0,0,0,0,0
7,79999,54,70000,20,0,0,9999,0.100000,0,0,0.000000,3,0.000000,0.000000,0.873874,0,0,0,0,0,0,0
7,79999,55,70000,20,0,1,9999,0.100000,0,0,34.210526,3,7.000000,0.000000,15.095352,0,0,0,0,0,1,0
7,79999,56,70000,20,0,1,9999,0.065000,0,0,0.000000,3,5.000000,0.000000,7.750729,0,0,0,0,0,0,0
7,79999,57,70000,1,40000,1,9999,0.100000,0,0,0.000000,3,1.000000,0.000000,6.951632,0,0,0,0,0,0,0
7,79999,58,70000,63,10000,0,9999,0.100000,0,0,0.000000,3,0.000000,0.000000,0.922439,0,0,0,0,0,0,0
7,79999,59,70000,63,10000,0,9999,0.135000,0,0,0.000000,3,0.000000,0.000000,0.076771,0,0,0,0,0,0,0
7,79999,60,70000,63,10000,0,9999,0.100000,0,0,0.000000,3,0.000000,0.000000,0.359598,0,0,0,0,0,0,0
7,79999,61,70000,1,40000,1,9999,0.100000,0,0,0.000000,3,1.000000,0.000000,6.236413,0,0,0,0,0,0,0
7,79999,62,70000,1,40000,1,9999,0.100000,0,0,0.000000,3,5.000000,0.000000,9.573919,0,0,0,0,0,0,0
7,79999,63,70000,1,40000,0,9999,0.100000,0,0,0.000000,3,0.000000,0.000000,0.130208,0,0,0,0,0,0,0
7,79999,64,70000,20,0,0,9999,0.100000,0,0,0.000000,3,0.000000,0.000000,1.568767,0,0,0,0,0,0,0
7,79999,65,70000,63,10000,1,9999,0.100000,0,0,0.000000,3,7.000000,0.000000,17.393277,0,0,0,0,0,0,0
7,79999,66,70000,1,40000,0,9999,0.100000,0,0,0.000000,3,0.000000,0.000000,1.293799,0,0,0,0,0,0,0
7,79999,67,70000,20,0,1,9999,0.100000,0,0,0.000000,3,1.000000,0.000000,17.561306,0,0,0,0,0,0,0
7,79999,68,70000,63,10000,1,9999,0.100000,0,0,0.000000,3,2.000000,0.000000,17.756752,0,0,0,0,0,0,0
7,79999,69,70000,20,0,1,9999,0.100000,0,0,0.000000,3,3.000000,0.000000,16.126969,0,0,0,0,0,0,0
7,79999,70,70000,63,10000,1,9999,0.100000,0,0,34.210526,3,7.000000,0.000000,13.521982,0,0,0,0,0,1,0
7,79999,71,70000,1,40000,0,9999,0.100000,0,0,0.000000,3,0.000000,0.000000,0.422571,0,0,0,0,0,0,0
7,79999,72,70000,1,40000,1,9999,0.100000,0,0,0.000000,3,2.000000,0.000000,15.896501,0,0,0,0,0,0,0
7,79999,73,70000,1,40000,0,9999,0.100000,0,0,0.000000,3,0.000000,0.000000,1.059009,0,0,0,0,0,0,0
7,79999,74,70000,63,10000,1,9999,0.100000,0,0,0.000000,3,2.000000,0.000000,5.552520,0,0,0,0,0,0,0
7,79999,75,70000,20,0,0,9999,0.100000,0,0,0.000000,3,0.000000,0.000000,0.774820,0,0,0,0,0,0,0
7,79999,76,70000,20,0,1,9999,0.100000,0,0,0.000000,3,6.000000,0.000000,10.924973,0,0,0,0,0,0,0
7,79999,77,70000,63,10000,0,9999,0.100000,0,0,0.000000,3,0.000000,0.000000,0.897761,0,0,0,0,0,0,0
7,79999,78,70000,1,40000,0,9999,0.100000,0,0,0.000000,3,0.000000,0.000000,1.067032,0,0,0,0,0,0,0
7,79999,79,70000,1,40000,1,9999,0.100000,0,0,0.000000,3,8.000000,0.000000,18.563704,0,0,0,0,0,0,0
7,79999,80,70000,1,40000,1,9999,0.100000,0,0,0.000000,3,1.000000,0.000000,11.646248,0,0,0,0,0,0,0
7,79999,81,70000,1,40000,0,9999,0.100000,0,0,0.000000,3,0.000000,0.000000,0.551089,0,0,0,0,0,0,0
7,79999,82,70000,63,10000,1,9999,0.100000,0,0,0.000000,3,1.000000,0.000000,3.014954,0,0,0,0,0,0,0
7,79999,83,70000,20,0,0,9999,0.100000,0,0,0.000000,3,0.000000,0.000000,13.817802,0,0,0,0,0,0,0
7,79999,84,70000,63,10000,1,9999,0.100000,0,0,0.000000,3,1.000000,0.000000,18.390466,0,0,0,0,0,0,0
7,79999,85,70000,1,40000,1,9999,0.100000,0,0,0.000000,3,4.000000,0.000000,19.209343,0,0,0,0,0,0,0
7,79999,86,70000,20,0,0,9999,0.135000,0,0,0.000000,3,0.000000,0.000000,1.386833,0,0,0,0,0,0,0
7,79999,87,70000,1,40000,1,9999,0.100000,0,0,0.000000,3,2.000000,0.000000,3.009549,0,0,0,0,0,0,0
7,79999,88,70000,63,10000,0,9999,0.100000,0,0,0.000000,3,0.000000,0.000000,0.317970,0,0,0,0,0,0,0
7,79999,89,70000,63,10000,1,9999,0.100000,0,0,0.000000,3,2.000000,0.000000,12.845157,0,0,0,0,0,0,0
7,79999,90,70000,20,0,0,9999,0.100000,0,0,0.000000,3,0.000000,0.000000,0.942525,0,0,0,0,0,0,0
7,79999,91,70000,63,10000,1,9999,0.100000,0,0,0.000000,3,7.000000,0.000000,16.355413,0,0,0,0,0,0,0
7,79999,92,70000,1,40000,1,9999,0.100000,0,0,0.000000,3,1.000000,0.000000,5.116000,0,0,0,0,0,0,0
7,79999,93,70000,63,10000,1,9999,0.100000,0,0,0.000000,3,3.000000,0.000000,7.520857,0,0,0,0,0,0,0
7,79999,94,70000,63,10000,1,9999,0.100000,0,0,0.000000,3,15.000000,0.000000,17.210593,0,0,0,0,0,0,0
7,79999,95,70000,63,10000,1,9999,0.100000,0,0,0.000000,3,7.000000,0.000000,13.096757,0,0,0,0,0,0,0
7,79999,96,70000,63,10000,0,9999,0.100000,0,0,0.000000,3,0.000000,0.000000,0.820046,0,0,0,0,0,0,0
7,79999,97,70000,20,0,0,9999,0.100000,0,0,0.000000,3,0.000000,0.000000,0.620310,0,0,0,0,0,0,0
7,79999,98,70000,1,40000,1,9999,0.100000,0,0,0.000000,3,1.000000,0.000000,8.759233,0,0,0,0,0,0,0
7,79999,99,70000,20,0,0,9999,0.100000,0,0,0.000000,3,0.000000,0.000000,8.016679,0,0,0,0,0,0,0
8,89999,0,80000,1,40000,0,9999,0.100000,0,0,0.000000,3,0.000000,0.000000,0.363928,0,0,0,0,0,0,0
8,89999,1,80000,63,10000,0,9999,0.100000,0,0,0.000000,3,0.000000,0.000000,0.230952,0,0,0,0,0,0,0
8,89999,2,80000,63,10000,0,9999,0.100000,0,0,0.000000,3,0.000000,0.000000,0.136814,0,0,0,0,0,0,0
8,89999,3,80000,63,10000,0,9999,0.100000,0,0,0.000000,3,0.000000,0.000000,0.733994,0,0,0,0,0,0,0
8,89999,4,80000,1,40000,1,9999,0.100000,0,0,0.000000,3,5.000000,0.000000,10.317346,0,0,0,0,0,0,0
8,89999,5,80000,1,40000,0,9999,0.100000,0,0,0.000000,3,0.000000,0.000000,0.225963,0,0,0,0,0,0,0
8,89999,6,80000,20,0,1,9999,0.100000,0,0,0.000000,3,5.000000,0.000000,10.306163,0,0,0,0,0,0,0
8,89999,7,80000,1,40000,0,9999,0.100000,0,0,0.000000,3,0.000000,0.000000,1.274821,0,0,0,0,0,0,0
8,89999,8,80000,1,40000,0,9999,0.100000,0,0,0.000000,3,0.000000,0.000000,2.759076,0,0,0,0,0,0,0
8,89999,9,80000,1,40000,0,9999,0.100000,0,0,0.000000,3,0.000000,0.000000,0.089973,0,0,0,0,0,0,0
8,89999,10,80000,63,10000,1,9999,0.100000,0,0,0.000000,3,1.000000,0.000000,1.703362,0,0,0,0,0,0,0
8,89999,11,80000,20,0,0,9999,0.100000,0,0,0.000000,3,0.000000,0.000000,6.592284,0,0,0,0,0,0,0
8,89999,12,80000,20,0,1,9999,0.100000,0,0,0.000000,3,1.000000,0.000000,5.683371,0,0,0,0,0,0,0
8,89999,13,80000,1,40000,0,9999,0.100000,0,0,0.000000,3,0.000000,0.000000,0.285565,0,0,0,0,0,0,0
8,89999,14,80000,1,40000,1,9999,0.100000,0,0,0.000000,3,2.000000,0.000000,6.525865,0,0,0,0,0,0,0
8,89999,15,80000,63,10000,0,9999,0.100000,0,0,0.000000,3,0.000000,0.000000,1.111565,0,0,0,0,0,0,0
8,89999,16,80000,63,10000,1,9999,0.100000,0,0,0.000000,3,1.000000,0.000000,7.640402,0,0,0,0,0,0,0
8,89999,17,80000,20,0,1,9999,0.100000,0,0,0.000000,3,1.000000,0.000000,1.453882,0,0,0,0,0,0,0
8,89999,18,80000,63,10000,1,9999,0.100000,0,0,0.000000,3,1.000000,0.000000,6.319780,0,0,0,0,0,0,0
8,89999,19,80000,20,0,0,9999,0.100000,0,0,0.000000,3,0.000000,0.000000,0.368348,0,0,0,0,0,0,0
8,89999,20,80000,63,10000,0,9999,0.100000,0,0,0.000000,3,0.000000,0.000000,1.111094,0,0,0,0,0,0,0
8,89999,21,80000,20,0,1,9999,0.100000,0,0,0.000000,3,1.000000,0.000000,2.518152,0,0,0,0,0,0,0
8,89999,22,80000,63,10000,1,9999,0.100000,0,0,0.000000,3,2.000000,0.000000,8.048141,0,0,0,0,0,0,0
8,89999,23,80000,20,0,0,9999,0.100000,0,0,0.000000,3,0.000000,0.000000,16.056950,0,0,0,0,0,0,0
8,89999,24,80000,1,40000,1,9999,0.100000,0,0,0.000000,3,1.000000,0.000000,3.832353,0,0,0,0,0,0,0
8,89999,25,80000,20,0,1,9999,0.100000,0,0,0.000000,3,1.000000,0.000000,15.632062,0,0,0,0,0,0,0
8,89999,26,80000,20,0,1,9999,0.100000,0,0,0.000000,3,3.000000,0.000000,15.254334,0,0,0,0,0,0,0
8,89999,27,80000,1,40000,0,9999,0.100000,0,0,0.000000,3,0.000000,0.000000,12.384864,0,0,0,0,0,0,0
8,89999,28,80000,20,0,0,9999,0.100000,0,0,0.000000,3,0.000000,0.000000,0.064143,0,0,0,0,0,0,0
8,89999,29,80000,1,40000,0,9999,0.100000,0,0,0.000000,3,0.000000,0.000000,0.143415,0,0,0,0,0,0,0
8,89999,30,80000,63,10000,0,9999,0.100000,0,0,0.000000,3,0.000000,0.000000,2.099653,0,0,0,0,0,0,0
8,89999,31,80000,20,0,1,9999,0.065000,0,0,0.000000,3,2.000000,0.000000,15.395263,0,0,0,0,0,0,0
8,89999,32,80000,1,40000,1,9999,0.100000,0,0,0.000000,3,1.000000,0.000000,2.847276,0,0,0,0,0,0,0
8,89999,33,80000,20,0,1,9999,0.100000,0,0,0.000000,3,1.000000,0.000000,5.690226,0,0,0,0,0,0,0
8,89999,34,80000,1,40000,0,9999,0.100000,0,0,0.000000,3,0.000000,0.000000,0.930569,0,0,0,0,0,0,0
8,89999,35,80000,20,0,0,9999,0.100000,0,0,0.000000,3,0.000000,0.000000,0.418253,0,0,0,0,0,0,0
8,89999,36,80000,63,10000,0,9999,0.100000,0,0,0.000000,3,0.000000,0.000000,1.335291,0,0,0,0,0,0,0
8,89999,37,80000,63,10000,0,9999,0.100000,0,0,0.000000,3,0.000000,0.000000,1.058619,0,0,0,0,0,0,0
8,89999,38,80000,63,10000,1,9999,0.100000,0,0,0.000000,3,1.000000,0.000000,10.362761,0,0,0,0,0,0,0
8,89999,39,80000,20,0,1,9999,0.100000,0,0,0.000000,3,2.000000,0.000000,8.473308,0,0,0,0,0,0,0
8,89999,40,80000,63,10000,1,9999,0.100000,0,0,0.000000,3,2.000000,0.000000,15.659774,0,0,0,0,0,0,0
8,89999,41,80000,63,10000,0,9999,0.100000,0,0,0.000000,3,0.000000,0.000000,0.155071,0,0,0,0,0,0,0
8,89999,42,80000,1,40000,0,9999,0.100000,0,0,0.000000,3,0.000000,0.000000,0.522966,0,0,0,0,0,0,0
8,89999,43,80000,1,40000,0,9999,0.100000,0,0,0.000000,3,0.000000,0.000000,0.181146,0,0,0,0,0,0,0
8,89999,44,80000,63,10000,1,9999,0.100000,0,0,0.000000,3,7.000000,0.000000,16.548860,0,0,0,0,0,0,0
8,89999,45,80000,63,10000,0,9999,0.100000,0,0,0.000000,3,0.000000,0.000000,2.162656,0,0,0,0,0,0,0
8,89999,46,80000,1,40000,0,9999,0.100000,0,0,0.000000,3,0.000000,0.000000,0.923369,0,0,0,0,0,0,0
8,89999,47,80000,63,10000,0,9999,0.100000,0,0,0.000000,3,0.000000,0.000000,0.558650,0,0,0,0,0,0,0
8,89999,48,80000,1,40000,0,9999,0.100000,0,0,0.000000,3,0.000000,0.000000,0.440151,0,0,0,0,0,0,0
8,89999,49,80000,1,40000,1,9999,0.100000,0,0,0.000000,3,4.000000,0.000000,18.083440,0,0,0,0,0,0,0
8,89999,50,80000,20,0,0,9999,0.100000,0,0,0.000000,3,0.000000,0.000000,0.564814,0,0,0,0,0,0,0
8,89999,51,80000,63,10000,1,9999,0.100000,0,0,0.000000,3,2.000000,0.000000,11.314169,0,0,0,0,0,0,0
8,89999,52,80000,20,0,1,9999,0.100000,0,0,0.000000,3,1.000000,0.000000,5.297544,0,0,0,0,0,0,0
8,89999,53,80000,63,10000,1,9999,0.100000,0,0,0.000000,3,1.000000,0.000000,7.229111,0,0,0,0,0,0,0
8,89999,54,80000,1,40000,1,9999,0.100000,0,0,0.000000,3,1.000000,0.000000,1.816327,0,0,0,0,0,0,0
8,89999,55,80000,1,40000,1,9999,0.100000,0,0,0.000000,3,4.000000,0.000000,17.218631,0,0,0,0,0,0,0
8,89999,56,80000,63,10000,1,9999,0.100000,0,0,0.000000,3,4.000000,0.000000,7.542351,0,0,0,0,0,0,0
8,89999,57,80000,63,10000,0,9999,0.100000,0,0,0.000000,3,0.000000,0.000000,0.239008,0,0,0,0,0,0,0
8,89999,58,80000,20,0,0,9999,0.100000,0,0,0.000000,3,0.000000,0.000000,1.014473,0,0,0,0,0,0,0
8,89999,59,80000,1,40000,0,9999,0.100000,0,0,0.000000,3,0.000000,0.000000,0.077498,0,0,0,0,0,0,0
8,89999,60,80000,20,0,0,9999,0.100000,0,0,0.000000,3,0.000000,0.000000,1.800469,0,0,0,0,0,0,0
8,89999,61,80000,20,0,0,9999,0.100000,0,0,0.000000,3,0.000000,0.000000,10.299593,0,0,0,0,0,0,0
8,89999,62,80000,1,40000,1,9999,0.100000,0,0,0.000000,3,2.000000,0.000000,15.068856,0,0,0,0,0,0,0
8,89999,63,80000,63,10000,0,9999,0.100000,0,0,0.000000,3,0.000000,0.000000,0.130310,0,0,0,0,0,0,0
8,89999,64,80000,1,40000,1,9999,0.100000,0,0,0.000000,3,7.000000,0.000000,17.318718,0,0,0,0,0,0,0
8,89999,65,80000,20,0,0,9999,0.100000,0,0,0.000000,3,0.000000,0.000000,2.162816,0,0,0,0,0,0,0
8,89999,66,80000,20,0,0,9999,0.100000,0,0,0.000000,3,0.000000,0.000000,1.090520,0,0,0,0,0,0,0
8,89999,67,80000,20,0,1,9999,0.100000,0,0,0.000000,3,3.000000,0.000000,15.201948,0,0,0,0,0,0,0
8,89999,68,80000,1,40000,1,9999,0.100000,0,0,0.000000,3,2.000000,0.000000,16.918625,0,0,0,0,0,0,0
8,89999,69,80000,63,10000,1,9999,0.100000,0,0,0.000000,3,3.000000,0.000000,17.025229,0,0,0,0,0,0,0
8,89999,70,80000,63,10000,1,9999,0.100000,0,0,0.000000,3,3.000000,0.000000,17.013892,0,0,0,0,0,0,0
8,89999,71,80000,20,0,1,9999,0.100000,0,0,0.000000,3,1.000000,0.000000,3.257757,0,0,0,0,0,0,0
8,89999,72,80000,1,40000,1,9999,0.100000,0,0,0.000000,3,6.000000,0.000000,17.884651,0,0,0,0,0,0,0
8,89999,73,80000,63,10000,0,9999,0.100000,0,0,0.000000,3,0.000000,0.000000,1.143276,0,0,0,0,0,0,0
8,89999,74,80000,63,10000,1,9999,0.100000,0,0,0.000000,3,2.000000,0.000000,3.319066,0,0,0,0,0,0,0
8,89999,75,80000,63,10000,0,9999,0.100000,0,0,0.000000,3,0.000000,0.000000,0.529302,0,0,0,0,0,0,0
8,89999,76,80000,1,40000,1,9999,0.100000,0,0,0.000000,3,6.000000,0.000000,8.436473,0,0,0,0,0,0,0
8,89999,77,80000,63,10000,0,9999,0.100000,0,0,0.000000,3,0.000000,0.000000,0.857571,0,0,0,0,0,0,0
8,89999,78,80000,63,10000,0,9999,0.100000,0,0,0.000000,3,0.000000,0.000000,0.458403,0,0,0,0,0,0,0
8,89999,79,80000,63,10000,1,9999,0.100000,0,0,0.000000,3,1.000000,0.000000,3.486104,0,0,0,0,0,0,0
8,89999,80,80000,1,40000,1,9999,0.100000,0,0,0.000000,3,1.000000,0.000000,24.291606,0,0,0,0,0,0,0
8,89999,81,80000,20,0,0,9999,0.100000,0,0,0.000000,3,0.000000,0.000000,0.445570,0,0,0,0,0,0,0
8,89999,82,80000,20,0,0,9999,0.100000,0,0,0.000000,3,0.000000,0.000000,0.919342,0,0,0,0,0,0,0
8,89999,83,80000,1,40000,1,9999,0.100000,0,0,0.000000,3,16.000000,0.000000,17.621383,0,0,0,0,0,0,0
8,89999,84,80000,1,40000,1,9999,0.100000,0,0,0.000000,3,1.000000,0.000000,2.917102,0,0,0,0,0,0,0
8,89999,85,80000,1,40000,1,9999,0.100000,0,0,0.000000,3,1.000000,0.000000,12.211005,0,0,0,0,0,0,0
8,89999,86,80000,1,40000,0,9999,0.100000,0,0,0.000000,3,0.000000,0.000000,0.473252,0,0,0,0,0,0,0
8,89999,87,80000,63,10000,1,9999,0.100000,0,0,0.000000,3,1.000000,0.000000,1.703937,0,0,0,0,0,0,0
8,89999,88,80000,20,0,0,9999,0.100000,0,0,0.000000,3,0.000000,0.000000,0.333221,0,0,0,0,0,0,0
8,89999,89,80000,63,10000,1,9999,0.100000,0,0,0.000000,3,3.000000,0.000000,7.344595,0,0,0,0,0,0,0
8,89999,90,80000,20,0,0,9999,0.100000,0,0,0.000000,3,0.000000,0.000000,0.739344,0,0,0,0,0,0,0
8,89999,91,80000,20,0,1,9999,0.100000,0,0,0.000000,3,5.000000,0.000000,15.387703,0,0,0,0,0,0,0
8,89999,92,80000,20,0,1,9999,0.100000,0,0,0.000000,3,1.000000,0.000000,2.014486,0,0,0,0,0,0,0
8,89999,93,80000,1,40000,1,9999,0.100000,0,0,0.000000,3,1.000000,0.000000,2.116959,0,0,0,0,0,0,0
8,89999,94,80000,1,40000,0,9999,0.100000,0,0,0.000000,3,0.000000,0.000000,1.089369,0,0,0,0,0,0,0
8,89999,95,80000,63,10000,1,9999,0.100000,0,0,0.000000,3,5.000000,0.000000,14.723684,0,0,0,0,0,0,0
8,89999,96,80000,63,10000,0,9999,0.100000,0,0,0.000000,3,0.000000,0.000000,0.932002,0,0,0,0,0,0,0
8,89999,97,80000,63,10000,0,9999,0.100000,0,0,0.000000,3,0.000000,0.000000,0.541296,0,0,0,0,0,0,0
8,89999,98,80000,1,40000,1,9999,0.100000,0,0,0.000000,3,1.000000,0.000000,1.729579,0,0,0,0,0,0,0
8,89999,99,80000,1,40000,0,9999,0.100000,0,0,0.000000,3,0.000000,0.000000,17.010602,0,0,0,0,0,0,0
9,99999,0,90000,63,10000,0,9999,0.100000,0,0,0.000000,3,0.000000,0.000000,0.252888,0,0,0,0,0,0,0
9,99999,1,90000,1,40000,0,9999,0.100000,0,0,0.000000,3,0.000000,0.000000,0.314674,0,0,0,0,0,0,0
9,99999,2,90000,20,0,0,9999,0.100000,0,0,0.000000,3,0.000000,0.000000,0.143481,0,0,0,0,0,0,0
9,99999,3,90000,20,0,0,9999,0.100000,0,0,0.000000,3,0.000000,0.000000,0.812394,0,0,0,0,0,0,0
9,99999,4,90000,63,10000,1,9999,0.100000,0,0,0.000000,3,4.000000,0.000000,19.319157,0,0,0,0,0,0,0
9,99999,5,90000,1,40000,0,9999,0.100000,0,0,0.000000,3,0.000000,0.000000,0.230418,0,0,0,0,0,0,0
9,99999,6,90000,20,0,0,9999,0.100000,0,0,0.000000,3,0.000000,0.000000,0.305148,0,0,0,0,0,0,0
9,99999,7,90000,63,10000,0,9999,0.100000,0,0,0.000000,3,0.000000,0.000000,1.011389,0,0,0,0,0,0,0
9,99999,8,90000,63,10000,0,9999,0.100000,0,0,0.000000,3,0.000000,0.000000,2.353279,0,0,0,0,0,0,0
9,99999,9,90000,1,40000,0,9999,0.100000,0,0,0.000000,3,0.000000,0.000000,0.847737,0,0,0,0,0,0,0
9,99999,10,90000,20,0,1,9999,0.100000,0,0,0.000000,3,1.000000,0.000000,1.832005,0,0,0,0,0,0,0
9,99999,11,90000,20,0,0,9999,0.100000,0,0,0.000000,3,0.000000,0.000000,3.633040,0,0,0,0,0,0,0
9,99999,12,90000,63,10000,1,9999,0.100000,0,0,0.000000,3,2.000000,0.000000,5.607522,0,0,0,0,0,0,0
9,99999,13,90000,20,0,1,9999,0.100000,0,0,0.000000,3,1.000000,0.000000,3.582367,0,0,0,0,0,0,0
9,99999,14,90000,20,0,1,9999,0.100000,0,0,0.000000,3,3.000000,0.000000,13.384734,0,0,0,0,0,0,0
9,99999,15,90000,1,40000,0,9999,0.100000,0,0,0.000000,3,0.000000,0.000000,0.367651,0,0,0,0,0,0,0
9,99999,16,90000,20,0,0,9999,0.100000,0,0,0.000000,3,0.000000,0.000000,6.713284,0,0,0,0,0,0,0
9,99999,17,90000,1,40000,1,9999,0.100000,0,0,0.000000,3,1.000000,0.000000,13.092688,0,0,0,0,0,0,0
9,99999,18,90000,20,0,1,9999,0.100000,0,0,0.000000,3,1.000000,0.000000,9.726610,0,0,0,0,0,0,0
9,99999,19,90000,20,0,0,9999,0.100000,0,0,0.000000,3,0.000000,0.000000,0.572381,0,0,0,0,0,0,0
9,99999,20,90000,20,0,0,9999,0.100000,0,0,0.000000,3,0.000000,0.000000,0.470545,0,0,0,0,0,0,0
9,99999,21,90000,63,10000,0,9999,0.100000,0,0,0.000000,3,0.000000,0.000000,2.858901,0,0,0,0,0,0,0
9,99999,22,90000,63,10000,0,9999,0.100000,0,0,0.000000,3,0.000000,0.000000,0.137696,0,0,0,0,0,0,0
9,99999,23,90000,1,40000,1,9999,0.100000,0,0,0.000000,3,1.000000,0.000000,6.952345,0,0,0,0,0,0,0
9,99999,24,90000,63,10000,1,9999,0.100000,0,0,0.000000,3,9.000000,0.000000,16.208670,0,0,0,0,0,0,0
9,99999,25,90000,1,40000,1,9999,0.100000,0,0,0.000000,3,1.000000,0.000000,8.606619,0,0,0,0,0,0,0
9,99999,26,90000,1,40000,1,9999,0.100000,0,0,0.000000,3,7.000000,0.000000,16.095042,0,0,0,0,0,0,0
9,99999,27,90000,20,0,1,9999,0.100000,0,0,0.000000,3,3.000000,0.000000,15.833079,0,0,0,0,0,0,0
9,99999,28,90000,1,40000,0,9999,0.100000,0,0,0.000000,3,0.000000,0.000000,0.063712,0,0,0,0,0,0,0
9,99999,29,90000,1,40000,0,9999,0.100000,0,0,0.000000,3,0.000000,0.000000,0.137197,0,0,0,0,0,0,0
9,99999,30,90000,20,0,1,9999,0.100000,0,0,0.000000,3,10.000000,0.000000,13.882768,0,0,0,0,0,0,0
9,99999,31,90000,63,10000,1,9999,0.100000,0,0,0.000000,3,6.000000,0.000000,13.701382,0,0,0,0,0,0,0
9,99999,32,90000,63,10000,0,9999,0.100000,0,0,0.000000,3,0.000000,0.000000,4.817139,0,0,0,0,0,0,0
9,99999,33,90000,20,0,1,9999,0.100000,0,0,0.000000,3,1.000000,0.000000,5.072409,0,0,0,0,0,0,0
9,99999,34,90000,1,40000,0,9999,0.100000,0,0,0.000000,3,0.000000,0.000000,0.954743,0,0,0,0,0,0,0
9,99999,35,90000,63,10000,0,9999,0.100000,0,0,0.000000,3,0.000000,0.000000,0.286836,0,0,0,0,0,0,0
9,99999,36,90000,20,0,0,9999,0.100000,0,0,0.000000,3,0.000000,0.000000,1.054892,0,0,0,0,0,0,0
9,99999,37,90000,20,0,1,9999,0.100000,0,0,0.000000,3,2.000000,0.000000,2.404065,0,0,0,0,0,0,0
9,99999,38,90000,1,40000,0,9999,0.100000,0,0,0.000000,3,0.000000,0.000000,10.143786,0,0,0,0,0,0,0
9,99999,39,90000,1,40000,0,9999,0.100000,0,0,0.000000,3,0.000000,0.000000,9.486651,0,0,0,0,0,0,0
9,99999,40,90000,1,40000,1,9999,0.100000,0,0,0.000000,3,1.000000,0.000000,17.445609,0,0,0,0,0,0,0
9,99999,41,90000,63,10000,0,9999,0.100000,0,0,0.000000,3,0.000000,0.000000,0.230665,0,0,0,0,0,0,0
9,99999,42,90000,1,40000,0,9999,0.100000,0,0,0.000000,3,0.000000,0.000000,3.475544,0,0,0,0,0,0,0
9,99999,43,90000,20,0,0,9999,0.100000,0,0,0.000000,3,0.000000,0.000000,0.282604,0,0,0,0,0,0,0
9,99999,44,90000,20,0,1,9999,0.100000,0,0,0.000000,3,1.000000,0.000000,5.478783,0,0,0,0,0,0,0
9,99999,45,90000,63,10000,0,9999,0.100000,0,0,0.000000,3,0.000000,0.000000,0.506440,0,0,0,0,0,0,0
9,99999,46,90000,1,40000,0,9999,0.100000,0,0,0.000000,3,0.000000,0.000000,1.132907,0,0,0,0,0,0,0
9,99999,47,90000,20,0,0,9999,0.100000,0,0,0.000000,3,0.000000,0.000000,0.498161,0,0,0,0,0,0,0
9,99999,48,90000,63,10000,0,9999,0.100000,0,0,0.000000,3,0.000000,0.000000,0.730427,0,0,0,0,0,0,0
9,99999,49,90000,20,0,1,9999,0.100000,0,0,0.000000,3,2.000000,0.000000,9.617157,0,0,0,0,0,0,0
9,99999,50,90000,1,40000,0,9999,0.100000,0,0,0.000000,3,0.000000,0.000000,1.189968,0,0,0,0,0,0,0
9,99999,51,90000,1,40000,1,9999,0.100000,0,0,0.000000,3,6.000000,0.000000,11.783671,0,0,0,0,0,0,0
9,99999,52,90000,1,40000,1,9999,0.100000,0,0,0.000000,3,1.000000,0.000000,12.343071,0,0,0,0,0,0,0
9,99999,53,90000,63,10000,1,9999,0.100000,0,0,0.000000,3,1.000000,0.000000,5.320685,0,0,0,0,0,0,0
9,99999,54,90000,1,40000,0,9999,0.100000,0,0,0.000000,3,0.000000,0.000000,1.686756,0,0,0,0,0,0,0
9,99999,55,90000,63,10000,1,9999,0.100000,0,0,0.000000,3,5.000000,0.000000,15.079103,0,0,0,0,0,0,0
9,99999,56,90000,63,10000,1,9999,0.100000,0,0,0.000000,3,1.000000,0.000000,7.985018,0,0,0,0,0,0,0
9,99999,57,90000,1,40000,0,9999,0.100000,0,0,0.000000,3,0.000000,0.000000,0.304937,0,0,0,0,0,0,0
9,99999,58,90000,1,40000,0,9999,0.100000,0,0,0.000000,3,0.000000,0.000000,0.602184,0,0,0,0,0,0,0
9,99999,59,90000,63,10000,0,9999,0.100000,0,0,0.000000,3,0.000000,0.000000,0.076294,0,0,0,0,0,0,0
9,99999,60,90000,1,40000,0,9999,0.100000,0,0,0.000000,3,0.000000,0.000000,0.628370,0,0,0,0,0,0,0
9,99999,61,90000,1,40000,1,9999,0.100000,0,0,0.000000,3,2.000000,0.000000,2.336879,0,0,0,0,0,0,0
9,99999,62,90000,20,0,1,9999,0.100000,0,0,0.000000,3,6.000000,0.000000,16.543364,0,0,0,0,0,0,0
9,99999,63,90000,1,40000,0,9999,0.100000,0,0,0.000000,3,0.000000,0.000000,0.129795,0,0,0,0,0,0,0
9,99999,64,90000,20,0,1,9999,0.100000,0,0,0.000000,3,3.000000,0.000000,14.346147,0,0,0,0,0,0,0
9,99999,65,90000,20,0,0,9999,0.100000,0,0,0.000000,3,0.000000,0.000000,0.614360,0,0,0,0,0,0,0
9,99999,66,90000,63,10000,0,9999,0.100000,0,0,0.000000,3,0.000000,0.000000,5.019883,0,0,0,0,0,0,0
9,99999,67,90000,1,40000,1,9999,0.100000,0,0,0.000000,3,2.000000,0.000000,10.617325,0,0,0,0,0,0,0
9,99999,68,90000,1,40000,1,9999,0.100000,0,0,0.000000,3,2.000000,0.000000,17.944097,0,0,0,0,0,0,0
9,99999,69,90000,63,10000,1,9999,0.100000,0,0,0.000000,3,2.000000,0.000000,16.115897,0,0,0,0,0,0,0
9,99999,70,90000,20,0,1,9999,0.100000,0,0,0.000000,3,2.000000,0.000000,18.738480,0,0,0,0,0,0,0
9,99999,71,90000,1,40000,1,9999,0.100000,0,0,0.000000,3,10.000000,0.000000,15.010092,0,0,0,0,0,0,0
9,99999,72,90000,1,40000,1,9999,0.100000,0,0,0.000000,3,10.000000,0.000000,13.126077,0,0,0,0,0,0,0
9,99999,73,90000,20,0,0,9999,0.100000,0,0,0.000000,3,0.000000,0.000000,1.356195,0,0,0,0,0,0,0
9,99999,74,90000,1,40000,0,9999,0.100000,0,0,0.000000,3,0.000000,0.000000,0.459100,0,0,0,0,0,0,0
9,99999,75,90000,1,40000,1,9999,0.100000,0,0,0.000000,3,1.000000,0.000000,2.455912,0,0,0,0,0,0,0
9,99999,76,90000,20,0,1,9999,0.100000,0,0,0.000000,3,3.000000,0.000000,4.664184,0,0,0,0,0,0,0
9,99999,77,90000,20,0,0,9999,0.100000,0,0,0.000000,3,0.000000,0.000000,0.862735,0,0,0,0,0,0,0
9,99999,78,90000,63,10000,0,9999,0.100000,0,0,0.000000,3,0.000000,0.000000,0.533360,0,0,0,0,0,0,0
9,99999,79,90000,63,10000,1,9999,0.100000,0,0,0.000000,3,1.000000,0.000000,4.177721,0,0,0,0,0,0,0
9,99999,80,90000,1,40000,1,9999,0.100000,0,0,0.000000,3,1.000000,0.000000,22.058959,0,0,0,0,0,0,0
9,99999,81,90000,1,40000,0,9999,0.100000,0,0,0.000000,3,0.000000,0.000000,0.258043,0,0,0,0,0,0,0
9,99999,82,90000,20,0,0,9999,0.100000,0,0,0.000000,3,0.000000,0.000000,0.781653,0,0,0,0,0,0,0
9,99999,83,90000,63,10000,0,9999,0.100000,0,0,0.000000,3,0.000000,0.000000,1.408365,0,0,0,0,0,0,0
9,99999,84,90000,63,10000,0,9999,0.100000,0,0,0.000000,3,0.000000,0.000000,2.050421,0,0,0,0,0,0,0
9,99999,85,90000,63,10000,1,9999,0.100000,0,0,0.000000,3,4.000000,0.000000,14.341208,0,0,0,0,0,0,0
9,99999,86,90000,20,0,0,9999,0.100000,0,0,0.000000,3,0.000000,0.000000,11.384116,0,0,0,0,0,0,0
9,99999,87,90000,20,0,1,9999,0.100000,0,0,0.000000,3,1.000000,0.000000,1.831418,0,0,0,0,0,0,0
9,99999,88,90000,1,40000,0,9999,0.100000,0,0,0.000000,3,0.000000,0.000000,0.610760,0,0,0,0,0,0,0
9,99999,89,90000,20,0,0,9999,0.100000,0,0,0.000000,3,0.000000,0.000000,0.503957,0,0,0,0,0,0,0
9,99999,90,90000,63,10000,1,9999,0.100000,0,0,0.000000,3,2.000000,0.000000,2.439926,0,0,0,0,0,0,0
9,99999,91,90000,20,0,1,9999,0.100000,0,0,0.000000,3,3.000000,0.000000,11.307204,0,0,0,0,0,0,0
9,99999,92,90000,1,40000,1,9999,0.100000,0,0,0.000000,3,1.000000,0.000000,2.119671,0,0,0,0,0,0,0
9,99999,93,90000,1,40000,1,9999,0.100000,0,0,0.000000,3,2.000000,0.000000,4.785687,0,0,0,0,0,0,0
9,99999,94,90000,20,0,0,9999,0.100000,0,0,0.000000,3,0.000000,0.000000,1.199501,0,0,0,0,0,0,0
9,99999,95,90000,63,10000,1,9999,0.100000,0,0,0.000000,3,1.000000,0.000000,6.728572,0,0,0,0,0,0,0
9,99999,96,90000,1,40000,0,9999,0.100000,0,0,0.000000,3,0.000000,0.000000,0.911326,0,0,0,0,0,0,0
9,99999,97,90000,63,10000,0,9999,0.100000,0,0,0.000000,3,0.000000,0.000000,0.571065,0,0,0,0,0,0,0
9,99999,98,90000,20,0,1,9999,0.100000,0,0,0.000000,3,2.000000,0.000000,4.396129,0,0,0,0,0,0,0
9,99999,99,90000,20,0,0,9999,0.100000,0,0,0.000000,3,0.000000,0.000000,11.789105,0,0,0,0,0,0,0
10,109999,0,100000,1,40000,0,9999,0.100000,0,0,0.000000,3,0.000000,0.000000,0.318349,0,0,0,0,0,0,0
10,109999,1,100000,1,40000,0,9999,0.100000,0,0,0.000000,3,0.000000,0.000000,0.381491,0,0,0,0,0,0,0
10,109999,2,100000,63,10000,0,9999,0.100000,0,0,0.000000,3,0.000000,0.000000,0.136175,0,0,0,0,0,0,0
10,109999,3,100000,63,10000,0,9999,0.100000,0,0,0.000000,3,0.000000,0.000000,0.796470,0,0,0,0,0,0,0
10,109999,4,100000,1,40000,1,9999,0.100000,0,0,0.000000,3,2.000000,0.000000,12.463874,0,0,0,0,0,0,0
10,109999,5,100000,1,40000,0,9999,0.100000,0,0,0.000000,3,0.000000,0.000000,0.250412,0,0,0,0,0,0,0
10,109999,6,100000,1,40000,0,9999,0.100000,0,0,0.000000,3,0.000000,0.000000,0.666082,0,0,0,0,0,0,0
10,109999,7,100000,20,0,0,9999,0.100000,0,0,0.000000,3,0.000000,0.000000,1.118423,0,0,0,0,0,0,0
10,109999,8,100000,20,0,1,9999,0.100000,0,0,0.000000,3,1.000000,0.000000,4.844316,0,0,0,0,0,0,0
10,109999,9,100000,63,10000,0,9999,0.100000,0,0,0.000000,3,0.000000,0.000000,0.848723,0,0,0,0,0,0,0
10,109999,10,100000,20,0,1,9999,0.100000,0,0,0.000000,3,1.000000,0.000000,1.632926,0,0,0,0,0,0,0
10,109999,11,100000,1,40000,0,9999,0.100000,0,0,0.000000,3,0.000000,0.000000,0.756672,0,0,0,0,0,0,0
10,109999,12,100000,63,10000,1,9999,0.100000,0,0,0.000000,3,8.000000,0.000000,9.953160,0,0,0,0,0,0,0
10,109999,13,100000,20,0,1,9999,0.100000,0,0,0.000000,3,1.000000,0.000000,3.762808,0,0,0,0,0,0,0
10,109999,14,100000,20,0,1,9999,0.100000,0,0,0.000000,3,2.000000,0.000000,8.903604,0,0,0,0,0,0,0
10,109999,15,100000,1,40000,0,9999,0.100000,0,0,0.000000,3,0.000000,0.000000,0.245636,0,0,0,0,0,0,0
10,109999,16,100000,63,10000,0,9999,0.100000,0,0,0.000000,3,0.000000,0.000000,5.852930,0,0,0,0,0,0,0
10,109999,17,100000,63,10000,1,9999,0.100000,0,0,0.000000,3,1.000000,0.000000,8.923342,0,0,0,0,0,0,0
10,109999,18,100000,20,0,1,9999,0.100000,0,0,0.000000,3,1.000000,0.000000,8.160200,0,0,0,0,0,0,0
10,109999,19,100000,1,40000,0,9999,0.100000,0,0,0.000000,3,0.000000,0.000000,0.477048,0,0,0,0,0,0,0
10,109999,20,100000,63,10000,0,9999,0.100000,0,0,0.000000,3,0.000000,0.000000,0.364876,0,0,0,0,0,0,0
10,109999,21,100000,20,0,0,9999,0.100000,0,0,0.000000,3,0.000000,0.000000,0.512144,0,0,0,0,0,0,0
10,109999,22,100000,63,10000,0,9999,0.100000,0,0,0.000000,3,0.000000,0.000000,0.139561,0,0,0,0,0,0,0
10,109999,23,100000,20,0,0,9999,0.100000,0,0,0.000000,3,0.000000,0.000000,0.740473,0,0,0,0,0,0,0
10,109999,24,100000,1,40000,0,9999,0.100000,0,0,0.000000,3,0.000000,0.000000,1.002634,0,0,0,0,0,0,0
10,109999,25,100000,63,10000,1,9999,0.100000,0,0,0.000000,3,1.000000,0.000000,2.616728,0,0,0,0,0,0,0
10,109999,26,100000,63,10000,1,9999,0.100000,0,0,0.000000,3,1.000000,0.000000,13.861721,0,0,0,0,0,0,0
10,109999,27,100000,63,10000,1,9999,0.100000,0,0,0.000000,3,4.000000,0.000000,16.726996,0,0,0,0,0,0,0
10,109999,28,100000,63,10000,0,9999,0.100000,0,0,0.000000,3,0.000000,0.000000,0.062914,0,0,0,0,0,0,0
10,109999,29,100000,20,0,0,9999,0.100000,0,0,0.000000,3,0.000000,0.000000,0.138908,0,0,0,0,0,0,0
10,109999,30,100000,1,40000,0,9999,0.100000,0,0,0.000000,3,0.000000,0.000000,0.234888,0,0,0,0,0,0,0
10,109999,31,100000,20,0,1,9999,0.100000,0,0,0.000000,3,2.000000,0.000000,10.347179,0,0,0,0,0,0,0
10,109999,32,100000,63,10000,1,9999,0.100000,0,0,0.000000,3,5.000000,0.000000,8.185141,0,0,0,0,0,0,0
10,109999,33,100000,1,40000,1,9999,0.100000,0,0,0.000000,3,2.000000,0.000000,20.402866,0,0,0,0,0,0,0
10,109999,34,100000,63,10000,0,9999,0.100000,0,0,0.000000,3,0.000000,0.000000,0.962923,0,0,0,0,0,0,0
10,109999,35,100000,63,10000,0,9999,0.100000,0,0,0.000000,3,0.000000,0.000000,0.370596,0,0,0,0,0,0,0
10,109999,36,100000,20,0,0,9999,0.100000,0,0,0.000000,3,0.000000,0.000000,1.077229,0,0,0,0,0,0,0
10,109999,37,100000,63,10000,1,9999,0.100000,0,0,0.000000,3,3.000000,0.000000,3.481174,0,0,0,0,0,0,0
10,109999,38,100000,20,0,1,9999,0.100000,0,0,0.000000,3,2.000000,0.000000,20.695773,0,0,0,0,0,0,0
10,109999,39,100000,1,40000,0,9999,0.100000,0,0,0.000000,3,0.000000,0.000000,7.193519,0,0,0,0,0,0,0
10,109999,40,100000,1,40000,1,9999,0.100000,0,0,0.000000,3,2.000000,0.000000,11.893662,0,0,0,0,0,0,0
10,109999,41,100000,63,10000,0,9999,0.100000,0,0,0.000000,3,0.000000,0.000000,0.312024,0,0,0,0,0,0,0
10,109999,42,100000,20,0,0,9999,0.100000,0,0,0.000000,3,0.000000,0.000000,5.795797,0,0,0,0,0,0,0
10,109999,43,100000,20,0,0,9999,0.100000,0,0,0.000000,3,0.000000,0.000000,0.345023,0,0,0,0,0,0,0
10,109999,44,100000,20,0,1,9999,0.100000,0,0,0.000000,3,1.000000,0.000000,1.530434,0,0,0,0,0,0,0
10,109999,45,100000,63,10000,0,9999,0.100000,0,0,0.000000,3,0.000000,0.000000,0.521027,0,0,0,0,0,0,0
10,109999,46,100000,1,40000,1,9999,0.100000,0,0,0.000000,3,4.000000,0.000000,5.701185,0,0,0,0,0,0,0
10,109999,47,100000,1,40000,0,9999,0.100000,0,0,0.000000,3,0.000000,0.000000,0.644653,0,0,0,0,0,0,0
10,109999,48,100000,20,0,0,9999,0.100000,0,0,0.000000,3,0.000000,0.000000,2.712295,0,0,0,0,0,0,0
10,109999,49,100000,1,40000,1,9999,0.100000,0,0,0.000000,3,9.000000,0.000000,20.546226,0,0,0,0,0,0,0
10,109999,50,100000,20,0,1,9999,0.100000,0,0,0.000000,3,18.000000,0.000000,19.632488,0,0,0,0,0,0,0
10,109999,51,100000,1,40000,0,9999,0.100000,0,0,0.000000,3,0.000000,0.000000,15.255552,0,0,0,0,0,0,0
10,109999,52,100000,20,0,0,9999,0.100000,0,0,0.000000,3,0.000000,0.000000,9.008736,0,0,0,0,0,0,0
10,109999,53,100000,1,40000,0,9999,0.100000,0,0,0.000000,3,0.000000,0.000000,0.645712,0,0,0,0,0,0,0
10,109999,54,100000,63,10000,1,9999,0.100000,0,0,0.000000,3,1.000000,0.000000,4.351589,0,0,0,0,0,0,0
10,109999,55,100000,1,40000,1,9999,0.100000,0,0,0.000000,3,9.000000,0.000000,12.963684,0,0,0,0,0,0,0
10,109999,56,100000,63,10000,1,9999,0.100000,0,0,0.000000,3,6.000000,0.000000,12.657306,0,0,0,0,0,0,0
10,109999,57,100000,1,40000,0,9999,0.100000,0,0,0.000000,3,0.000000,0.000000,0.288164,0,0,0,0,0,0,0
10,109999,58,100000,20,0,0,9999,0.100000,0,0,0.000000,3,0.000000,0.000000,0.381335,0,0,0,0,0,0,0
10,109999,59,100000,63,10000,0,9999,0.100000,0,0,0.000000,3,0.000000,0.000000,0.075140,0,0,0,0,0,0,0
10,109999,60,100000,20,0,0,9999,0.100000,0,0,0.000000,3,0.000000,0.000000,0.326819,0,0,0,0,0,0,0
10,109999,61,100000,20,0,1,9999,0.100000,0,0,0.000000,3,3.000000,0.000000,3.484358,0,0,0,0,0,0,0
10,109999,62,100000,20,0,1,9999,0.100000,0,0,0.000000,3,4.000000,0.000000,15.946580,0,0,0,0,0,0,0
10,109999,63,100000,20,0,0,9999,0.100000,0,0,0.000000,3,0.000000,0.000000,0.132658,0,0,0,0,0,0,0
10,109999,64,100000,1,40000,1,9999,0.100000,0,0,0.000000,3,6.000000,0.000000,17.815688,0,0,0,0,0,0,0
10,109999,65,100000,1,40000,0,9999,0.100000,0,0,0.000000,3,0.000000,0.000000,0.645700,0,0,0,0,0,0,0
10,109999,66,100000,63,10000,1,9999,0.100000,0,0,0.000000,3,18.000000,0.000000,18.907989,0,0,0,0,0,0,0
10,109999,67,100000,63,10000,1,9999,0.100000,0,0,0.000000,3,7.000000,0.000000,9.462095,0,0,0,0,0,0,0
10,109999,68,100000,20,0,1,9999,0.100000,0,0,0.000000,3,1.000000,0.000000,17.586859,0,0,0,0,0,0,0
10,109999,69,100000,63,10000,0,9999,0.100000,0,0,0.000000,3,0.000000,0.000000,0.144301,0,0,0,0,0,0,0
10,109999,70,100000,20,0,1,9999,0.100000,0,0,0.000000,3,4.000000,0.000000,16.737818,0,0,0,0,0,0,0
10,109999,71,100000,1,40000,0,9999,0.100000,0,0,0.000000,3,0.000000,0.000000,0.229621,0,0,0,0,0,0,0
10,109999,72,100000,63,10000,0,9999,0.100000,0,0,0.000000,3,0.000000,0.000000,2.431454,0,0,0,0,0,0,0
10,109999,73,100000,1,40000,1,9999,0.100000,0,0,0.000000,3,1.000000,0.000000,1.433878,0,0,0,0,0,0,0
10,109999,74,100000,1,40000,0,9999,0.100000,0,0,0.000000,3,0.000000,0.000000,0.430151,0,0,0,0,0,0,0
10,109999,75,100000,63,10000,0,9999,0.100000,0,0,0.000000,3,0.000000,0.000000,0.316082,0,0,0,0,0,0,0
10,109999,76,100000,1,40000,0,9999,0.100000,0,0,0.000000,3,0.000000,0.000000,1.370620,0,0,0,0,0,0,0
10,109999,77,100000,63,10000,0,9999,0.100000,0,0,0.000000,3,0.000000,0.000000,0.831912,0,0,0,0,0,0,0
10,109999,78,100000,1,40000,0,9999,0.100000,0,0,0.000000,3,0.000000,0.000000,0.628306,0,0,0,0,0,0,0
10,109999,79,100000,1,40000,1,9999,0.100000,0,0,0.000000,3,1.000000,0.000000,8.154292,0,0,0,0,0,0,0
10,109999,80,100000,63,10000,1,9999,0.100000,0,0,0.000000,3,1.000000,0.000000,5.536040,0,0,0,0,0,0,0
10,109999,81,100000,20,0,0,9999,0.100000,0,0,0.000000,3,0.000000,0.000000,0.558032,0,0,0,0,0,0,0
10,109999,82,100000,63,10000,0,9999,0.100000,0,0,0.000000,3,0.000000,0.000000,1.870638,0,0,0,0,0,0,0
10,109999,83,100000,63,10000,0,9999,0.100000,0,0,0.000000,3,0.000000,0.000000,0.870208,0,0,0,0,0,0,0
10,109999,84,100000,1,40000,1,9999,0.100000,0,0,0.000000,3,10.000000,0.000000,12.706385,0,0,0,0,0,0,0
10,109999,85,100000,63,10000,0,9999,0.100000,0,0,0.000000,3,0.000000,0.000000,4.862073,0,0,0,0,0,0,0
10,109999,86,100000,20,0,0,9999,0.100000,0,0,0.000000,3,0.000000,0.000000,1.224505,0,0,0,0,0,0,0
10,109999,87,100000,1,40000,1,9999,0.100000,0,0,0.000000,3,1.000000,0.000000,1.674891,0,0,0,0,0,0,0
10,109999,88,100000,20,0,0,9999,0.100000,0,0,0.000000,3,0.000000,0.000000,1.122839,0,0,0,0,0,0,0
10,109999,89,100000,1,40000,0,9999,0.100000,0,0,0.000000,3,0.000000,0.000000,0.166336,0,0,0,0,0,0,0
10,109999,90,100000,20,0,1,9999,0.100000,0,0,0.000000,3,3.000000,0.000000,3.492834,0,0,0,0,0,0,0
10,109999,91,100000,63,10000,1,9999,0.100000,0,0,0.000000,3,2.000000,0.000000,6.056553,0,0,0,0,0,0,0
10,109999,92,100000,20,0,1,9999,0.100000,0,0,0.000000,3,1.000000,0.000000,1.928704,0,0,0,0,0,0,0
10,109999,93,100000,20,0,1,9999,0.100000,0,0,0.000000,3,1.000000,0.000000,2.908112,0,0,0,0,0,0,0
10,109999,94,100000,63,10000,0,9999,0.100000,0,0,0.000000,3,0.000000,0.000000,1.324536,0,0,0,0,0,0,0
10,109999,95,100000,1,40000,1,9999,0.100000,0,0,0.000000,3,5.000000,0.000000,10.880089,0,0,0,0,0,0,0
10,109999,96,100000,63,10000,0,9999,0.100000,0,0,0.000000,3,0.000000,0.000000,0.936368,0,0,0,0,0,0,0
10,109999,97,100000,63,10000,0,9999,0.100000,0,0,0.000000,3,0.000000,0.000000,0.523958,0,0,0,0,0,0,0
10,109999,98,100000,20,0,1,9999,0.100000,0,0,0.000000,3,9.000000,0.000000,20.884096,0,0,0,0,0,0,0
10,109999,99,100000,1,40000,0,9999,0.100000,0,0,0.000000,3,0.000000,0.000000,2.834963,0,0,0,0,0,0,0
11,119999,0,110000,63,10000,0,9999,0.100000,0,0,0.000000,3,0.000000,0.000000,0.688186,0,0,0,0,0,0,0
11,119999,1,110000,63,10000,0,9999,0.100000,0,0,0.000000,3,0.000000,0.000000,0.476334,0,0,0,0,0,0,0
11,119999,2,110000,63,10000,0,9999,0.100000,0,0,0.000000,3,0.000000,0.000000,0.139962,0,0,0,0,0,0,0
11,119999,3,110000,1,40000,0,9999,0.100000,0,0,0.000000,3,0.000000,0.000000,0.821998,0,0,0,0,0,0,0
11,119999,4,110000,20,0,1,9999,0.100000,0,0,0.000000,3,1.000000,0.000000,6.837022,0,0,0,0,0,0,0
11,119999,5,110000,1,40000,0,9999,0.100000,0,0,0.000000,3,0.000000,0.000000,0.229633,0,0,0,0,0,0,0
11,119999,6,110000,63,10000,0,9999,0.100000,0,0,0.000000,3,0.000000,0.000000,0.681582,0,0,0,0,0,0,0
11,119999,7,110000,63,10000,0,9999,0.100000,0,0,0.000000,3,0.000000,0.000000,3.369738,0,0,0,0,0,0,0
11,119999,8,110000,63,10000,0,9999,0.100000,0,0,0.000000,3,0.000000,0.000000,2.385892,0,0,0,0,0,0,0
11,119999,9,110000,20,0,0,9999,0.100000,0,0,0.000000,3,0.000000,0.000000,0.874117,0,0,0,0,0,0,0
11,119999,10,110000,20,0,0,9999,0.100000,0,0,0.000000,3,0.000000,0.000000,0.774726,0,0,0,0,0,0,0
11,119999,11,110000,1,40000,0,9999,0.100000,0,0,0.000000,3,0.000000,0.000000,0.733760,0,0,0,0,0,0,0
11,119999,12,110000,20,0,1,9999,0.100000,0,0,0.000000,3,1.000000,0.000000,4.970829,0,0,0,0,0,0,0
11,119999,13,110000,20,0,0,9999,0.100000,0,0,0.000000,3,0.000000,0.000000,2.342324,0,0,0,0,0,0,0
11,119999,14,110000,20,0,0,9999,0.100000,0,0,0.000000,3,0.000000,0.000000,0.940651,0,0,0,0,0,0,0
11,119999,15,110000,1,40000,0,9999,0.100000,0,0,0.000000,3,0.000000,0.000000,0.246519,0,0,0,0,0,0,0
11,119999,16,110000,20,0,1,9999,0.100000,0,0,0.000000,3,4.000000,0.000000,9.417099,0,0,0,0,0,0,0
11,119999,17,110000,1,40000,1,9999,0.100000,0,0,0.000000,3,1.000000,0.000000,2.416799,0,0,0,0,0,0,0
11,119999,18,110000,1,40000,1,9999,0.100000,0,0,0.000000,3,5.000000,0.000000,8.450589,0,0,0,0,0,0,0
11,119999,19,110000,20,0,0,9999,0.100000,0,0,0.000000,3,0.000000,0.000000,0.682836,0,0,0,0,0,0,0
11,119999,20,110000,63,10000,0,9999,0.100000,0,0,0.000000,3,0.000000,0.000000,0.401380,0,0,0,0,0,0,0
11,119999,21,110000,1,40000,0,9999,0.100000,0,0,0.000000,3,0.000000,0.000000,1.878984,0,0,0,0,0,0,0
11,119999,22,110000,1,40000,0,9999,0.100000,0,0,0.000000,3,0.000000,0.000000,0.141710,0,0,0,0,0,0,0
11,119999,23,110000,63,10000,1,9999,0.100000,0,0,0.000000,3,4.000000,0.000000,8.736319,0,0,0,0,0,0,0
11,119999,24,110000,1,40000,0,9999,0.100000,0,0,0.000000,3,0.000000,0.000000,0.192034,0,0,0,0,0,0,0
11,119999,25,110000,1,40000,1,9999,0.100000,0,0,0.000000,3,1.000000,0.000000,2.120757,0,0,0,0,0,0,0
11,119999,26,110000,1,40000,1,9999,0.100000,0,0,0.000000,3,1.000000,0.000000,2.462607,0,0,0,0,0,0,0
11,119999,27,110000,20,0,1,9999,0.100000,0,0,0.000000,3,10.000000,0.000000,33.354999,0,0,0,0,0,0,0
11,119999,28,110000,20,0,0,9999,0.100000,0,0,0.000000,3,0.000000,0.000000,0.062808,0,0,0,0,0,0,0
11,119999,29,110000,63,10000,0,9999,0.100000,0,0,0.000000,3,0.000000,0.000000,0.140094,0,0,0,0,0,0,0
11,119999,30,110000,20,0,0,9999,0.100000,0,0,0.000000,3,0.000000,0.000000,0.224361,0,0,0,0,0,0,0
11,119999,31,110000,1,40000,1,9999,0.100000,0,0,0.000000,3,1.000000,0.000000,2.073040,0,0,0,0,0,0,0
11,119999,32,110000,63,10000,0,9999,0.100000,0,0,0.000000,3,0.000000,0.000000,0.475713,0,0,0,0,0,0,0
11,119999,33,110000,20,0,1,9999,0.100000,0,0,0.000000,3,1.000000,0.000000,10.728861,0,0,0,0,0,0,0
11,119999,34,110000,63,10000,1,9999,0.100000,0,0,0.000000,3,4.000000,0.000000,6.327370,0,0,0,0,0,0,0
11,119999,35,110000,63,10000,0,9999,0.100000,0,0,0.000000,3,0.000000,0.000000,0.370814,0,0,0,0,0,0,0
11,119999,36,110000,1,40000,0,9999,0.100000,0,0,0.000000,3,0.000000,0.000000,1.893361,0,0,0,0,0,0,0
11,119999,37,110000,20,0,0,9999,0.100000,0,0,0.000000,3,0.000000,0.000000,1.018805,0,0,0,0,0,0,0
11,119999,38,110000,63,10000,1,9999,0.100000,0,0,0.000000,3,1.000000,0.000000,4.274168,0,0,0,0,0,0,0
11,119999,39,110000,20,0,0,9999,0.100000,0,0,0.000000,3,0.000000,0.000000,24.421900,0,0,0,0,0,0,0
11,119999,40,110000,63,10000,1,9999,0.100000,0,0,0.000000,3,1.000000,0.000000,2.169924,0,0,0,0,0,0,0
11,119999,41,110000,63,10000,0,9999,0.100000,0,0,0.000000,3,0.000000,0.000000,0.787836,0,0,0,0,0,0,0
11,119999,42,110000,63,10000,0,9999,0.100000,0,0,0.000000,3,0.000000,0.000000,2.778386,0,0,0,0,0,0,0
11,119999,43,110000,63,10000,0,9999,0.100000,0,0,0.000000,3,0.000000,0.000000,0.567597,0,0,0,0,0,0,0
11,119999,44,110000,1,40000,1,9999,0.100000,0,0,0.000000,3,1.000000,0.000000,2.058590,0,0,0,0,0,0,0
11,119999,45,110000,1,40000,0,9999,0.100000,0,0,0.000000,3,0.000000,0.000000,0.528217,0,0,0,0,0,0,0
11,119999,46,110000,1,40000,1,9999,0.100000,0,0,0.000000,3,3.000000,0.000000,11.568947,0,0,0,0,0,0,0
11,119999,47,110000,63,10000,0,9999,0.100000,0,0,0.000000,3,0.000000,0.000000,0.756043,0,0,0,0,0,0,0
11,119999,48,110000,63,10000,1,9999,0.100000,0,0,0.000000,3,18.000000,0.000000,19.144841,0,0,0,0,0,0,0
11,119999,49,110000,1,40000,1,9999,0.100000,0,0,0.000000,3,2.000000,0.000000,10.335510,0,0,0,0,0,0,0
11,119999,50,110000,20,0,0,9999,0.100000,0,0,0.000000,3,0.000000,0.000000,0.237108,0,0,0,0,0,0,0
11,119999,51,110000,20,0,1,9999,0.100000,0,0,0.000000,3,2.000000,0.000000,5.451239,0,0,0,0,0,0,0
11,119999,52,110000,63,10000,0,9999,0.100000,0,0,0.000000,3,0.000000,0.000000,1.883969,0,0,0,0,0,0,0
11,119999,53,110000,20,0,0,9999,0.100000,0,0,0.000000,3,0.000000,0.000000,0.601647,0,0,0,0,0,0,0
11,119999,54,110000,1,40000,1,9999,0.100000,0,0,0.000000,3,2.000000,0.000000,2.166091,0,0,0,0,0,0,0
11,119999,55,110000,1,40000,0,9999,0.100000,0,0,0.000000,3,0.000000,0.000000,2.852388,0,0,0,0,0,0,0
11,119999,56,110000,20,0,1,9999,0.100000,0,0,0.000000,3,5.000000,0.000000,17.465555,0,0,0,0,0,0,0
11,119999,57,110000,20,0,0,9999,0.100000,0,0,0.000000,3,0.000000,0.000000,0.415244,0,0,0,0,0,0,0
11,119999,58,110000,1,40000,0,9999,0.100000,0,0,0.000000,3,0.000000,0.000000,0.391539,0,0,0,0,0,0,0
11,119999,59,110000,63,10000,0,9999,0.100000,0,0,0.000000,3,0.000000,0.000000,0.076487,0,0,0,0,0,0,0
11,119999,60,110000,20,0,0,9999,0.100000,0,0,0.000000,3,0.000000,0.000000,0.421497,0,0,0,0,0,0,0
11,119999,61,110000,63,10000,0,9999,0.100000,0,0,0.000000,3,0.000000,0.000000,1.087646,0,0,0,0,0,0,0
11,119999,62,110000,1,40000,0,9999,0.100000,0,0,0.000000,3,0.000000,0.000000,4.105756,0,0,0,0,0,0,0
11,119999,63,110000,1,40000,0,9999,0.100000,0,0,0.000000,3,0.000000,0.000000,0.677405,0,0,0,0,0,0,0
11,119999,64,110000,63,10000,1,9999,0.100000,0,0,0.000000,3,2.000000,0.000000,14.114715,0,0,0,0,0,0,0
11,119999,65,110000,63,10000,0,9999,0.100000,0,0,0.000000,3,0.000000,0.000000,0.643004,0,0,0,0,0,0,0
11,119999,66,110000,20,0,0,9999,0.100000,0,0,0.000000,3,0.000000,0.000000,0.915547,0,0,0,0,0,0,0
11,119999,67,110000,1,40000,1,9999,0.100000,0,0,0.000000,3,1.000000,0.000000,6.515556,0,0,0,0,0,0,0
11,119999,68,110000,20,0,1,9999,0.100000,0,0,0.000000,3,6.000000,0.000000,16.690855,0,0,0,0,0,0,0
11,119999,69,110000,63,10000,0,9999,0.100000,0,0,0.000000,3,0.000000,0.000000,0.143180,0,0,0,0,0,0,0
11,119999,70,110000,20,0,1,9999,0.100000,0,0,0.000000,3,2.000000,0.000000,16.986594,0,0,0,0,0,0,0
11,119999,71,110000,63,10000,0,9999,0.100000,0,0,0.000000,3,0.000000,0.000000,0.230796,0,0,0,0,0,0,0
11,119999,72,110000,63,10000,0,9999,0.100000,0,0,0.000000,3,0.000000,0.000000,2.577097,0,0,0,0,0,0,0
11,119999,73,110000,63,10000,0,9999,0.100000,0,0,0.000000,3,0.000000,0.000000,2.016745,0,0,0,0,0,0,0
11,119999,74,110000,20,0,0,9999,0.100000,0,0,0.000000,3,0.000000,0.000000,0.384731,0,0,0,0,0,0,0
11,119999,75,110000,63,10000,0,9999,0.100000,0,0,0.000000,3,0.000000,0.000000,0.433777,0,0,0,0,0,0,0
11,119999,76,110000,1,40000,0,9999,0.100000,0,0,0.000000,3,0.000000,0.000000,1.698166,0,0,0,0,0,0,0
11,119999,77,110000,63,10000,0,9999,0.100000,0,0,0.000000,3,0.000000,0.000000,0.947413,0,0,0,0,0,0,0
11,119999,78,110000,1,40000,0,9999,0.100000,0,0,0.000000,3,0.000000,0.000000,0.640680,0,0,0,0,0,0,0
11,119999,79,110000,63,10000,1,9999,0.100000,0,0,0.000000,3,1.000000,0.000000,2.129541,0,0,0,0,0,0,0
11,119999,80,110000,1,40000,1,9999,0.100000,0,0,0.000000,3,2.000000,0.000000,20.294199,0,0,0,0,0,0,0
11,119999,81,110000,20,0,0,9999,0.100000,0,0,0.000000,3,0.000000,0.000000,0.921949,0,0,0,0,0,0,0
11,119999,82,110000,20,0,0,9999,0.100000,0,0,0.000000,3,0.000000,0.000000,2.847161,0,0,0,0,0,0,0
11,119999,83,110000,63,10000,0,9999,0.100000,0,0,0.000000,3,0.000000,0.000000,0.814966,0,0,0,0,0,0,0
11,119999,84,110000,20,0,0,9999,0.100000,0,0,0.000000,3,0.000000,0.000000,4.246780,0,0,0,0,0,0,0
11,119999,85,110000,63,10000,0,9999,0.100000,0,0,0.000000,3,0.000000,0.000000,3.261884,0,0,0,0,0,0,0
11,119999,86,110000,1,40000,0,9999,0.100000,0,0,0.000000,3,0.000000,0.000000,1.758147,0,0,0,0,0,0,0
11,119999,87,110000,20,0,0,9999,0.100000,0,0,0.000000,3,0.000000,0.000000,0.300919,0,0,0,0,0,0,0
11,119999,88,110000,20,0,0,9999,0.100000,0,0,0.000000,3,0.000000,0.000000,1.151026,0,0,0,0,0,0,0
11,119999,89,110000,1,40000,0,9999,0.100000,0,0,0.000000,3,0.000000,0.000000,0.245384,0,0,0,0,0,0,0
11,119999,90,110000,20,0,0,9999,0.100000,0,0,0.000000,3,0.000000,0.000000,0.912352,0,0,0,0,0,0,0
11,119999,91,110000,20,0,1,9999,0.100000,0,0,0.000000,3,5.000000,0.000000,16.203833,0,0,0,0,0,0,0
11,119999,92,110000,63,10000,0,9999,0.100000,0,0,0.000000,3,0.000000,0.000000,1.632654,0,0,0,0,0,0,0
11,119999,93,110000,20,0,1,9999,0.100000,0,0,0.000000,3,1.000000,0.000000,1.824431,0,0,0,0,0,0,0
11,119999,94,110000,63,10000,1,9999,0.100000,0,0,0.000000,3,1.000000,0.000000,1.571262,0,0,0,0,0,0,0
11,119999,95,110000,20,0,1,9999,0.100000,0,0,0.000000,3,4.000000,0.000000,16.043094,0,0,0,0,0,0,0
11,119999,96,110000,1,40000,1,9999,0.100000,0,0,0.000000,3,4.000000,0.000000,7.289250,0,0,0,0,0,0,0
11,119999,97,110000,63,10000,0,9999,0.100000,0,0,0.000000,3,0.000000,0.000000,0.674641,0,0,0,0,0,0,0
11,119999,98,110000,1,40000,1,9999,0.100000,0,0,0.000000,3,3.000000,0.000000,9.709370,0,0,0,0,0,0,0
11,119999,99,110000,1,40000,0,9999,0.100000,0,0,0.000000,3,0.000000,0.000000,3.739309,0,0,0,0,0,0,0
12,129999,0,120000,20,0,0,9999,0.100000,0,0,0.000000,3,0.000000,0.000000,0.679754,0,0,0,0,0,0,0
12,129999,1,120000,1,40000,0,9999,0.100000,0,0,0.000000,3,0.000000,0.000000,0.577411,0,0,0,0,0,0,0
12,129999,2,120000,20,0,0,9999,0.100000,0,0,0.000000,3,0.000000,0.000000,0.138769,0,0,0,0,0,0,0
12,129999,3,120000,1,40000,0,9999,0.100000,0,0,0.000000,3,0.000000,0.000000,0.944431,0,0,0,0,0,0,0
12,129999,4,120000,20,0,0,9999,0.100000,0,0,0.000000,3,0.000000,0.000000,1.952888,0,0,0,0,0,0,0
12,129999,5,120000,1,40000,0,9999,0.100000,0,0,0.000000,3,0.000000,0.000000,0.224859,0,0,0,0,0,0,0
12,129999,6,120000,63,10000,0,9999,0.100000,0,0,0.000000,3,0.000000,0.000000,1.295845,0,0,0,0,0,0,0
12,129999,7,120000,1,40000,0,9999,0.100000,0,0,0.000000,3,0.000000,0.000000,1.157600,0,0,0,0,0,0,0
12,129999,8,120000,63,10000,0,9999,0.100000,0,0,0.000000,3,0.000000,0.000000,2.369086,0,0,0,0,0,0,0
12,129999,9,120000,63,10000,0,9999,0.100000,0,0,0.000000,3,0.000000,0.000000,0.985543,0,0,0,0,0,0,0
12,129999,10,120000,1,40000,0,9999,0.100000,0,0,0.000000,3,0.000000,0.000000,0.867059,0,0,0,0,0,0,0
12,129999,11,120000,63,10000,0,9999,0.100000,0,0,0.000000,3,0.000000,0.000000,0.752260,0,0,0,0,0,0,0
12,129999,12,120000,1,40000,0,9999,0.100000,0,0,0.000000,3,0.000000,0.000000,0.847651,0,0,0,0,0,0,0
12,129999,13,120000,1,40000,0,9999,0.100000,0,0,0.000000,3,0.000000,0.000000,8.537097,0,0,0,0,0,0,0
12,129999,14,120000,20,0,1,9999,0.100000,0,0,0.000000,3,9.000000,0.000000,18.580319,0,0,0,0,0,0,0
12,129999,15,120000,63,10000,0,9999,0.100000,0,0,0.000000,3,0.000000,0.000000,0.175887,0,0,0,0,0,0,0
12,129999,16,120000,1,40000,1,9999,0.100000,0,0,0.000000,3,4.000000,0.000000,6.242126,0,0,0,0,0,0,0
12,129999,17,120000,20,0,0,9999,0.100000,0,0,0.000000,3,0.000000,0.000000,2.129705,0,0,0,0,0,0,0
12,129999,18,120000,20,0,0,9999,0.100000,0,0,0.000000,3,0.000000,0.000000,0.150659,0,0,0,0,0,0,0
12,129999,19,120000,1,40000,0,9999,0.100000,0,0,0.000000,3,0.000000,0.000000,0.538343,0,0,0,0,0,0,0
12,129999,20,120000,63,10000,0,9999,0.100000,0,0,0.000000,3,0.000000,0.000000,0.426694,0,0,0,0,0,0,0
12,129999,21,120000,63,10000,0,9999,0.100000,0,0,0.000000,3,0.000000,0.000000,1.289158,0,0,0,0,0,0,0
12,129999,22,120000,1,40000,0,9999,0.100000,0,0,0.000000,3,0.000000,0.000000,0.138668,0,0,0,0,0,0,0
12,129999,23,120000,20,0,0,9999,0.100000,0,0,0.000000,3,0.000000,0.000000,1.214810,0,0,0,0,0,0,0
12,129999,24,120000,1,40000,0,9999,0.100000,0,0,0.000000,3,0.000000,0.000000,0.197363,0,0,0,0,0,0,0
12,129999,25,120000,20,0,0,9999,0.100000,0,0,0.000000,3,0.000000,0.000000,0.089046,0,0,0,0,0,0,0
12,129999,26,120000,20,0,0,9999,0.100000,0,0,0.000000,3,0.000000,0.000000,1.066817,0,0,0,0,0,0,0
12,129999,27,120000,20,0,1,9999,0.100000,0,0,0.000000,3,5.000000,0.000000,18.231482,0,0,0,0,0,0,0
12,129999,28,120000,63,10000,0,9999,0.100000,0,0,0.000000,3,0.000000,0.000000,0.062837,0,0,0,0,0,0,0
12,129999,29,120000,63,10000,0,9999,0.100000,0,0,0.000000,3,0.000000,0.000000,0.141149,0,0,0,0,0,0,0
12,129999,30,120000,1,40000,0,9999,0.100000,0,0,0.000000,3,0.000000,0.000000,0.237271,0,0,0,0,0,0,0
12,129999,31,120000,1,40000,0,9999,0.100000,0,0,0.000000,3,0.000000,0.000000,0.530421,0,0,0,0,0,0,0
12,129999,32,120000,1,40000,0,9999,0.100000,0,0,0.000000,3,0.000000,0.000000,0.220272,0,0,0,0,0,0,0
12,129999,33,120000,1,40000,0,9999,0.100000,0,0,0.000000,3,0.000000,0.000000,2.615949,0,0,0,0,0,0,0
12,129999,34,120000,20,0,0,9999,0.100000,0,0,0.000000,3,0.000000,0.000000,0.287418,0,0,0,0,0,0,0
12,129999,35,120000,63,10000,0,9999,0.100000,0,0,0.000000,3,0.000000,0.000000,0.337107,0,0,0,0,0,0,0
12,129999,36,120000,20,0,0,9999,0.100000,0,0,0.000000,3,0.000000,0.000000,0.785219,0,0,0,0,0,0,0
12,129999,37,120000,63,10000,1,9999,0.100000,0,0,34.210526,3,3.000000,0.000000,12.046926,0,0,0,0,1,0,0
12,129999,38,120000,1,40000,0,9999,0.100000,0,0,0.000000,3,0.000000,0.000000,2.643602,0,0,0,0,0,0,0
12,129999,39,120000,20,0,1,9999,0.100000,0,0,0.000000,3,2.000000,0.000000,9.555903,0,0,0,0,0,0,0
12,129999,40,120000,63,10000,0,9999,0.100000,0,0,0.000000,3,0.000000,0.000000,0.768817,0,0,0,0,0,0,0
12,129999,41,120000,20,0,0,9999,0.100000,0,0,0.000000,3,0.000000,0.000000,1.212208,0,0,0,0,0,0,0
12,129999,42,120000,20,0,0,9999,0.100000,0,0,0.000000,3,0.000000,0.000000,1.976639,0,0,0,0,0,0,0
12,129999,43,120000,63,10000,0,9999,0.100000,0,0,0.000000,3,0.000000,0.000000,0.656755,0,0,0,0,0,0,0
12,129999,44,120000,20,0,0,9999,0.100000,0,0,0.000000,3,0.000000,0.000000,0.120698,0,0,0,0,0,0,0
