generation,iteration,robot,birthday,ancestor_id,ancestor_birthday,cell_id,age,sigma,maps,genomes,fitness,cells_in_map,dist_max,dist_pot_max,dist_total,com_rx,com_tx,obj_group1,obj_group2,obj_group3,obj_group4,obj_group5
0,9999,0,0,0,0,1,9999,0.100000,0,0,0.000000,0,8.000000,0.000000,11.879724,0,0,0,0,0,0,0
0,9999,1,0,1,0,1,9999,0.100000,0,0,0.000000,0,9.000000,0.000000,10.052846,0,0,0,0,0,0,0
0,9999,2,0,2,0,1,9999,0.100000,0,0,0.000000,0,9.000000,0.000000,18.888229,0,0,0,0,0,0,0
0,9999,3,0,3,0,1,9999,0.100000,0,0,0.000000,0,9.000000,0.000000,12.472529,0,0,0,0,0,0,0
0,9999,4,0,4,0,1,9999,0.100000,0,0,0.000000,0,8.000000,0.000000,15.786481,0,0,0,0,0,0,0
0,9999,5,0,5,0,1,9999,0.100000,0,0,0.000000,0,8.000000,0.000000,28.631915,0,0,0,0,0,0,0
0,9999,6,0,6,0,1,9999,0.100000,0,0,0.000000,0,2.000000,0.000000,3.541381,0,0,0,0,0,0,0
0,9999,7,0,7,0,1,9999,0.100000,0,0,0.000000,0,11.000000,0.000000,29.334855,0,0,0,0,0,0,0
0,9999,8,0,8,0,1,9999,0.100000,0,0,0.000000,0,5.000000,0.000000,9.887144,0,0,0,0,0,0,0
0,9999,9,0,9,0,1,9999,0.100000,0,0,0.000000,0,10.000000,0.000000,14.870272,0,0,0,0,0,0,0
0,9999,10,0,10,0,1,9999,0.100000,0,0,0.000000,0,6.000000,0.000000,9.361877,0,0,0,0,0,0,0
0,9999,11,0,11,0,1,9999,0.100000,0,0,0.000000,0,8.000000,0.000000,15.218006,0,0,0,0,0,0,0
0,9999,12,0,12,0,1,9999,0.100000,0,0,0.000000,0,2.000000,0.000000,12.833677,0,0,0,0,0,0,0
0,9999,13,0,13,0,3,9999,0.100000,0,0,81.308567,0,12.000000,0.000000,31.149702,0,0,1,0,0,0,0
0,9999,14,0,14,0,1,9999,0.100000,0,0,0.000000,0,4.000000,0.000000,10.567815,0,0,0,0,0,0,0
0,9999,15,0,15,0,1,9999,0.100000,0,0,0.000000,0,7.000000,0.000000,13.037322,0,0,0,0,0,0,0
0,9999,16,0,16,0,1,9999,0.100000,0,0,0.000000,0,9.000000,0.000000,16.319872,0,0,0,0,0,0,0
0,9999,17,0,17,0,1,9999,0.100000,0,0,0.000000,0,6.000000,0.000000,14.799172,0,0,0,0,0,0,0
0,9999,18,0,18,0,1,9999,0.100000,0,0,0.000000,0,11.000000,0.000000,14.224637,0,0,0,0,0,0,0
0,9999,19,0,19,0,1,9999,0.100000,0,0,0.000000,0,9.000000,0.000000,16.997587,0,0,0,0,0,0,0
0,9999,20,0,20,0,1,9999,0.100000,0,0,0.000000,0,9.000000,0.000000,30.509051,0,0,0,0,0,0,0
0,9999,21,0,21,0,1,9999,0.100000,0,0,0.000000,0,13.000000,0.000000,27.932421,0,0,0,0,0,0,0
0,9999,22,0,22,0,1,9999,0.100000,0,0,0.000000,0,9.000000,0.000000,22.137880,0,0,0,0,0,0,0
0,9999,23,0,23,0,1,9999,0.100000,0,0,0.000000,0,11.000000,0.000000,20.790401,0,0,0,0,0,0,0
0,9999,24,0,24,0,1,9999,0.100000,0,0,0.000000,0,2.000000,0.000000,3.271090,0,0,0,0,0,0,0
0,9999,25,0,25,0,1,9999,0.100000,0,0,0.000000,0,6.000000,0.000000,15.739754,0,0,0,0,0,0,0
0,9999,26,0,26,0,1,9999,0.100000,0,0,0.000000,0,9.000000,0.000000,18.747742,0,0,0,0,0,0,0
0,9999,27,0,27,0,1,9999,0.100000,0,0,0.000000,0,6.000000,0.000000,7.254277,0,0,0,0,0,0,0
0,9999,28,0,28,0,1,9999,0.100000,0,0,0.000000,0,7.000000,0.000000,9.208965,0,0,0,0,0,0,0
0,9999,29,0,29,0,1,9999,0.100000,0,0,0.000000,0,9.000000,0.000000,15.052120,0,0,0,0,0,0,0
0,9999,30,0,30,0,1,9999,0.100000,0,0,0.000000,0,11.000000,0.000000,24.313275,0,0,0,0,0,0,0
0,9999,31,0,31,0,1,9999,0.100000,0,0,0.000000,0,10.000000,0.000000,18.127565,0,0,0,0,0,0,0
0,9999,32,0,32,0,1,9999,0.100000,0,0,0.000000,0,11.000000,0.000000,13.111820,0,0,0,0,0,0,0
0,9999,33,0,33,0,1,9999,0.100000,0,0,0.000000,0,9.000000,0.000000,24.537270,0,0,0,0,0,0,0
0,9999,34,0,34,0,1,9999,0.100000,0,0,0.000000,0,7.000000,0.000000,18.507431,0,0,0,0,0,0,0
0,9999,35,0,35,0,1,9999,0.100000,0,0,0.000000,0,10.000000,0.000000,10.497260,0,0,0,0,0,0,0
0,9999,36,0,36,0,1,9999,0.100000,0,0,0.000000,0,4.000000,0.000000,10.855635,0,0,0,0,0,0,0
0,9999,37,0,37,0,1,9999,0.100000,0,0,0.000000,0,9.000000,0.000000,12.763142,0,0,0,0,0,0,0
0,9999,38,0,38,0,1,9999,0.100000,0,0,0.000000,0,7.000000,0.000000,17.950858,0,0,0,0,0,0,0
0,9999,39,0,39,0,1,9999,0.100000,0,0,0.000000,0,6.000000,0.000000,7.892240,0,0,0,0,0,0,0
0,9999,40,0,40,0,1,9999,0.100000,0,0,0.000000,0,4.000000,0.000000,7.883691,0,0,0,0,0,0,0
0,9999,41,0,41,0,1,9999,0.100000,0,0,0.000000,0,13.000000,0.000000,17.668582,0,0,0,0,0,0,0
0,9999,42,0,42,0,1,9999,0.100000,0,0,0.000000,0,8.000000,0.000000,15.163691,0,0,0,0,0,0,0
0,9999,43,0,43,0,1,9999,0.100000,0,0,0.000000,0,8.000000,0.000000,10.554946,0,0,0,0,0,0,0
0,9999,44,0,44,0,1,9999,0.100000,0,0,0.000000,0,5.000000,0.000000,11.590490,0,0,0,0,0,0,0
0,9999,45,0,45,0,1,9999,0.100000,0,0,0.000000,0,9.000000,0.000000,17.134884,0,0,0,0,0,0,0
0,9999,46,0,46,0,1,9999,0.100000,0,0,0.000000,0,10.000000,0.000000,17.464995,0,0,0,0,0,0,0
0,9999,47,0,47,0,1,9999,0.100000,0,0,0.000000,0,1.000000,0.000000,15.297200,0,0,0,0,0,0,0
0,9999,48,0,48,0,1,9999,0.100000,0,0,0.000000,0,7.000000,0.000000,14.674460,0,0,0,0,0,0,0
0,9999,49,0,49,0,3,9999,0.100000,0,0,39.434851,0,8.000000,0.000000,21.465182,0,0,1,0,0,0,0
0,9999,50,0,50,0,1,9999,0.100000,0,0,0.000000,0,2.000000,0.000000,16.615270,0,0,0,0,0,0,0
0,9999,51,0,51,0,1,9999,0.100000,0,0,0.000000,0,8.000000,0.000000,15.531283,0,0,0,0,0,0,0
0,9999,52,0,52,0,1,9999,0.100000,0,0,0.000000,0,7.000000,0.000000,7.740333,0,0,0,0,0,0,0
0,9999,53,0,53,0,1,9999,0.100000,0,0,0.000000,0,9.000000,0.000000,22.108412,0,0,0,0,0,0,0
0,9999,54,0,54,0,1,9999,0.100000,0,0,0.000000,0,10.000000,0.000000,14.643598,0,0,0,0,0,0,0
0,9999,55,0,55,0,1,9999,0.100000,0,0,0.000000,0,7.000000,0.000000,26.079154,0,0,0,0,0,0,0
0,9999,56,0,56,0,1,9999,0.100000,0,0,0.000000,0,10.000000,0.000000,22.660063,0,0,0,0,0,0,0
0,9999,57,0,57,0,1,9999,0.100000,0,0,0.000000,0,9.000000,0.000000,14.923558,0,0,0,0,0,0,0
0,9999,58,0,58,0,1,9999,0.100000,0,0,0.000000,0,8.000000,0.000000,18.627103,0,0,0,0,0,0,0
0,9999,59,0,59,0,1,9999,0.100000,0,0,0.000000,0,2.000000,0.000000,11.691839,0,0,0,0,0,0,0
0,9999,60,0,60,0,1,9999,0.100000,0,0,0.000000,0,8.000000,0.000000,19.105300,0,0,0,0,0,0,0
0,9999,61,0,61,0,1,9999,0.100000,0,0,0.000000,0,4.000000,0.000000,13.969883,0,0,0,0,0,0,0
0,9999,62,0,62,0,1,9999,0.100000,0,0,0.000000,0,5.000000,0.000000,13.262486,0,0,0,0,0,0,0
0,9999,63,0,63,0,1,9999,0.100000,0,0,0.000000,0,5.000000,0.000000,19.583542,0,0,0,0,0,0,0
0,9999,64,0,64,0,1,9999,0.100000,0,0,0.000000,0,11.000000,0.000000,12.836299,0,0,0,0,0,0,0
0,9999,65,0,65,0,1,9999,0.100000,0,0,0.000000,0,5.000000,0.000000,6.741381,0,0,0,0,0,0,0
0,9999,66,0,66,0,1,9999,0.100000,0,0,0.000000,0,4.000000,0.000000,9.446479,0,0,0,0,0,0,0
0,9999,67,0,67,0,1,9999,0.100000,0,0,0.000000,0,10.000000,0.000000,13.241169,0,0,0,0,0,0,0
0,9999,68,0,68,0,1,9999,0.100000,0,0,0.000000,0,9.000000,0.000000,12.764457,0,0,0,0,0,0,0
0,9999,69,0,69,0,1,9999,0.100000,0,0,0.000000,0,6.000000,0.000000,12.968189,0,0,0,0,0,0,0
0,9999,70,0,70,0,1,9999,0.100000,0,0,0.000000,0,5.000000,0.000000,12.017084,0,0,0,0,0,0,0
0,9999,71,0,71,0,1,9999,0.100000,0,0,0.000000,0,2.000000,0.000000,13.734885,0,0,0,0,0,0,0
0,9999,72,0,72,0,1,9999,0.100000,0,0,0.000000,0,9.000000,0.000000,22.149295,0,0,0,0,0,0,0
0,9999,73,0,73,0,1,9999,0.100000,0,0,0.000000,0,8.000000,0.000000,13.323625,0,0,0,0,0,0,0
0,9999,74,0,74,0,1,9999,0.100000,0,0,0.000000,0,9.000000,0.000000,13.500649,0,0,0,0,0,0,0
0,9999,75,0,75,0,1,9999,0.100000,0,0,0.000000,0,10.000000,0.000000,19.913941,0,0,0,0,0,0,0
0,9999,76,0,76,0,1,9999,0.100000,0,0,0.000000,0,4.000000,0.000000,10.911480,0,0,0,0,0,0,0
0,9999,77,0,77,0,1,9999,0.100000,0,0,0.000000,0,5.000000,0.000000,10.596628,0,0,0,0,0,0,0
0,9999,78,0,78,0,1,9999,0.100000,0,0,0.000000,0,8.000000,0.000000,14.252524,0,0,0,0,0,0,0
0,9999,79,0,79,0,1,9999,0.100000,0,0,0.000000,0,11.000000,0.000000,20.001174,0,0,0,0,0,0,0
0,9999,80,0,80,0,1,9999,0.100000,0,0,0.000000,0,4.000000,0.000000,16.488660,0,0,0,0,0,0,0
0,9999,81,0,81,0,1,9999,0.100000,0,0,0.000000,0,3.000000,0.000000,15.877984,0,0,0,0,0,0,0
0,9999,82,0,82,0,1,9999,0.100000,0,0,0.000000,0,5.000000,0.000000,7.128638,0,0,0,0,0,0,0
0,9999,83,0,83,0,1,9999,0.100000,0,0,0.000000,0,3.000000,0.000000,14.492113,0,0,0,0,0,0,0
0,9999,84,0,84,0,1,9999,0.100000,0,0,0.000000,0,9.000000,0.000000,16.061549,0,0,0,0,0,0,0
0,9999,85,0,85,0,1,9999,0.100000,0,0,0.000000,0,4.000000,0.000000,13.862251,0,0,0,0,0,0,0
0,9999,86,0,86,0,1,9999,0.100000,0,0,0.000000,0,5.000000,0.000000,19.991674,0,0,0,0,0,0,0
0,9999,87,0,87,0,1,9999,0.100000,0,0,0.000000,0,6.000000,0.000000,15.132804,0,0,0,0,0,0,0
0,9999,88,0,88,0,1,9999,0.100000,0,0,0.000000,0,8.000000,0.000000,14.261204,0,0,0,0,0,0,0
0,9999,89,0,89,0,1,9999,0.100000,0,0,0.000000,0,11.000000,0.000000,19.254636,0,0,0,0,0,0,0
0,9999,90,0,90,0,1,9999,0.100000,0,0,0.000000,0,13.000000,0.000000,24.632694,0,0,0,0,0,0,0
0,9999,91,0,91,0,1,9999,0.100000,0,0,0.000000,0,4.000000,0.000000,12.410278,0,0,0,0,0,0,0
0,9999,92,0,92,0,1,9999,0.100000,0,0,0.000000,0,7.000000,0.000000,15.077794,0,0,0,0,0,0,0
0,9999,93,0,93,0,1,9999,0.100000,0,0,0.000000,0,10.000000,0.000000,18.658517,0,0,0,0,0,0,0
0,9999,94,0,94,0,1,9999,0.100000,0,0,0.000000,0,6.000000,0.000000,13.513467,0,0,0,0,0,0,0
0,9999,95,0,95,0,1,9999,0.100000,0,0,0.000000,0,8.000000,0.000000,20.876632,0,0,0,0,0,0,0
0,9999,96,0,96,0,1,9999,0.100000,0,0,0.000000,0,8.000000,0.000000,10.682328,0,0,0,0,0,0,0
0,9999,97,0,97,0,1,9999,0.100000,0,0,0.000000,0,7.000000,0.000000,10.012150,0,0,0,0,0,0,0
0,9999,98,0,98,0,1,9999,0.100000,0,0,0.000000,0,8.000000,0.000000,9.073856,0,0,0,0,0,0,0
0,9999,99,0,99,0,1,9999,0.100000,0,0,0.000000,0,7.000000,0.000000,12.032464,0,0,0,0,0,0,0
1,19999,0,10000,1,0,0,9999,0.100000,0,0,0.000000,1,0.000000,0.000000,0.879521,0,0,0,0,0,0,0
1,19999,1,10000,1,0,0,9999,0.100000,0,0,0.000000,2,0.000000,0.000000,0.102205,0,0,0,0,0,0,0
1,19999,2,10000,1,0,0,9999,0.100000,0,0,0.000000,1,0.000000,0.000000,2.779996,0,0,0,0,0,0,0
1,19999,3,10000,1,0,0,9999,0.100000,0,0,0.000000,2,0.000000,0.000000,0.133652,0,0,0,0,0,0,0
1,19999,4,10000,1,0,0,9999,0.100000,0,0,0.000000,1,0.000000,0.000000,2.250146,0,0,0,0,0,0,0
1,19999,5,10000,1,0,0,9999,0.100000,0,0,0.000000,1,0.000000,0.000000,21.965142,0,0,0,0,0,0,0
1,19999,6,10000,1,0,0,9999,0.100000,0,0,0.000000,1,0.000000,0.000000,1.020557,0,0,0,0,0,0,0
1,19999,7,10000,1,0,1,9999,0.100000,0,0,0.000000,1,1.000000,0.000000,3.198628,0,0,0,0,0,0,0
1,19999,8,10000,1,0,0,9999,0.100000,0,0,0.000000,1,0.000000,0.000000,0.129300,0,0,0,0,0,0,0
1,19999,9,10000,1,0,0,9999,0.100000,0,0,0.000000,1,0.000000,0.000000,2.032658,0,0,0,0,0,0,0
1,19999,10,10000,1,0,0,9999,0.100000,0,0,0.000000,2,0.000000,0.000000,0.210893,0,0,0,0,0,0,0
1,19999,11,10000,1,0,1,9999,0.100000,0,0,0.000000,2,1.000000,0.000000,7.478356,0,0,0,0,0,0,0
1,19999,12,10000,13,0,1,9999,0.100000,0,0,0.000000,2,1.000000,0.000000,17.915051,0,0,0,0,0,0,0
1,19999,13,10000,1,0,0,9999,0.100000,0,0,0.000000,2,0.000000,0.000000,2.122312,0,0,0,0,0,0,0
1,19999,14,10000,1,0,1,9999,0.100000,0,0,0.000000,2,2.000000,0.000000,6.668344,0,0,0,0,0,0,0
1,19999,15,10000,1,0,0,9999,0.100000,0,0,0.000000,2,0.000000,0.000000,5.007341,0,0,0,0,0,0,0
1,19999,16,10000,1,0,0,9999,0.100000,0,0,0.000000,2,0.000000,0.000000,1.809484,0,0,0,0,0,0,0
1,19999,17,10000,1,0,0,9999,0.100000,0,0,0.000000,2,0.000000,0.000000,0.287046,0,0,0,0,0,0,0
1,19999,18,10000,1,0,0,9999,0.100000,0,0,0.000000,2,0.000000,0.000000,2.263414,0,0,0,0,0,0,0
1,19999,19,10000,1,0,0,9999,0.100000,0,0,0.000000,2,0.000000,0.000000,4.309976,0,0,0,0,0,0,0
1,19999,20,10000,1,0,0,9999,0.100000,0,0,0.000000,2,0.000000,0.000000,3.237579,0,0,0,0,0,0,0
1,19999,21,10000,1,0,1,9999,0.100000,0,0,0.000000,2,1.000000,0.000000,2.601097,0,0,0,0,0,0,0
1,19999,22,10000,1,0,0,9999,0.100000,0,0,0.000000,2,0.000000,0.000000,1.792794,0,0,0,0,0,0,0
1,19999,23,10000,1,0,0,9999,0.100000,0,0,0.000000,2,0.000000,0.000000,0.799262,0,0,0,0,0,0,0
1,19999,24,10000,1,0,0,9999,0.100000,0,0,0.000000,2,0.000000,0.000000,1.444389,0,0,0,0,0,0,0
1,19999,25,10000,1,0,0,9999,0.100000,0,0,0.000000,2,0.000000,0.000000,1.547896,0,0,0,0,0,0,0
1,19999,26,10000,1,0,1,9999,0.100000,0,0,0.000000,2,1.000000,0.000000,2.848412,0,0,0,0,0,0,0
1,19999,27,10000,1,0,0,9999,0.100000,0,0,0.000000,2,0.000000,0.000000,0.666494,0,0,0,0,0,0,0
1,19999,28,10000,1,0,0,9999,0.100000,0,0,0.000000,2,0.000000,0.000000,0.596455,0,0,0,0,0,0,0
1,19999,29,10000,1,0,0,9999,0.100000,0,0,0.000000,2,0.000000,0.000000,1.147556,0,0,0,0,0,0,0
1,19999,30,10000,1,0,0,9999,0.100000,0,0,0.000000,2,0.000000,0.000000,2.734493,0,0,0,0,0,0,0
1,19999,31,10000,1,0,0,9999,0.100000,0,0,0.000000,2,0.000000,0.000000,1.644638,0,0,0,0,0,0,0
1,19999,32,10000,1,0,0,9999,0.100000,0,0,0.000000,2,0.000000,0.000000,0.601704,0,0,0,0,0,0,0
1,19999,33,10000,35,0,1,9999,0.100000,0,0,0.000000,2,1.000000,0.000000,7.809826,0,0,0,0,0,0,0
1,19999,34,10000,1,0,0,9999,0.100000,0,0,0.000000,2,0.000000,0.000000,3.219309,0,0,0,0,0,0,0
1,19999,35,10000,35,0,0,9999,0.100000,0,0,0.000000,2,0.000000,0.000000,0.100344,0,0,0,0,0,0,0
1,19999,36,10000,35,0,1,9999,0.100000,0,0,0.000000,2,1.000000,0.000000,3.308414,0,0,0,0,0,0,0
1,19999,37,10000,64,0,1,9999,0.100000,0,0,0.000000,2,2.000000,0.000000,9.307126,0,0,0,0,0,0,0
1,19999,38,10000,35,0,1,9999,0.100000,0,0,0.000000,2,1.000000,0.000000,5.776454,0,0,0,0,0,0,0
1,19999,39,10000,35,0,0,9999,0.100000,0,0,0.000000,2,0.000000,0.000000,0.429350,0,0,0,0,0,0,0
1,19999,40,10000,35,0,0,9999,0.100000,0,0,0.000000,2,0.000000,0.000000,0.671846,0,0,0,0,0,0,0
1,19999,41,10000,35,0,1,9999,0.100000,0,0,0.000000,2,4.000000,0.000000,7.777313,0,0,0,0,0,0,0
1,19999,42,10000,35,0,1,9999,0.100000,0,0,0.000000,2,2.000000,0.000000,4.476657,0,0,0,0,0,0,0
1,19999,43,10000,35,0,1,9999,0.100000,0,0,0.000000,2,2.000000,0.000000,2.975290,0,0,0,0,0,0,0
1,19999,44,10000,35,0,1,9999,0.100000,0,0,0.000000,2,2.000000,0.000000,7.602140,0,0,0,0,0,0,0
1,19999,45,10000,35,0,1,9999,0.100000,0,0,0.000000,2,2.000000,0.000000,22.378960,0,0,0,0,0,0,0
1,19999,46,10000,35,0,3,9999,0.100000,0,0,71.809027,2,11.000000,0.000000,27.486904,0,0,1,0,0,0,0
1,19999,47,10000,35,0,1,9999,0.100000,0,0,0.000000,2,2.000000,0.000000,6.633323,0,0,0,0,0,0,0
1,19999,48,10000,35,0,1,9999,0.100000,0,0,0.000000,2,1.000000,0.000000,3.524214,0,0,0,0,0,0,0
1,19999,49,10000,35,0,1,9999,0.100000,0,0,0.000000,2,3.000000,0.000000,11.703671,0,0,0,0,0,0,0
1,19999,50,10000,35,0,1,9999,0.100000,0,0,0.000000,2,2.000000,0.000000,12.487508,0,0,0,0,0,0,0
1,19999,51,10000,35,0,0,9999,0.100000,0,0,0.000000,2,0.000000,0.000000,0.568234,0,0,0,0,0,0,0
1,19999,52,10000,35,0,0,9999,0.100000,0,0,0.000000,2,0.000000,0.000000,0.896802,0,0,0,0,0,0,0
1,19999,53,10000,35,0,1,9999,0.100000,0,0,0.000000,2,3.000000,0.000000,15.682371,0,0,0,0,0,0,0
1,19999,54,10000,35,0,0,9999,0.100000,0,0,0.000000,2,0.000000,0.000000,0.481530,0,0,0,0,0,0,0
1,19999,55,10000,35,0,1,9999,0.100000,0,0,0.000000,2,3.000000,0.000000,12.629920,0,0,0,0,0,0,0
1,19999,56,10000,35,0,1,9999,0.100000,0,0,0.000000,2,5.000000,0.000000,11.827548,0,0,0,0,0,0,0
1,19999,57,10000,35,0,1,9999,0.100000,0,0,0.000000,2,3.000000,0.000000,5.558381,0,0,0,0,0,0,0
1,19999,58,10000,35,0,1,9999,0.100000,0,0,0.000000,2,3.000000,0.000000,7.749580,0,0,0,0,0,0,0
1,19999,59,10000,35,0,1,9999,0.100000,0,0,0.000000,2,1.000000,0.000000,7.884401,0,0,0,0,0,0,0
1,19999,60,10000,35,0,1,9999,0.100000,0,0,0.000000,2,2.000000,0.000000,19.091666,0,0,0,0,0,0,0
1,19999,61,10000,35,0,1,9999,0.100000,0,0,0.000000,2,1.000000,0.000000,9.130913,0,0,0,0,0,0,0
1,19999,62,10000,35,0,1,9999,0.100000,0,0,0.000000,2,2.000000,0.000000,18.516102,0,0,0,0,0,0,0
1,19999,63,10000,35,0,1,9999,0.100000,0,0,0.000000,2,1.000000,0.000000,12.589867,0,0,0,0,0,0,0
1,19999,64,10000,64,0,1,9999,0.100000,0,0,0.000000,2,1.000000,0.000000,2.264062,0,0,0,0,0,0,0
1,19999,65,10000,64,0,0,9999,0.100000,0,0,0.000000,2,0.000000,0.000000,2.271965,0,0,0,0,0,0,0
1,19999,66,10000,64,0,0,9999,0.100000,0,0,0.000000,2,0.000000,0.000000,1.389847,0,0,0,0,0,0,0
1,19999,67,10000,64,0,0,9999,0.100000,0,0,0.000000,2,0.000000,0.000000,0.598660,0,0,0,0,0,0,0
1,19999,68,10000,64,0,0,9999,0.100000,0,0,0.000000,2,0.000000,0.000000,0.292708,0,0,0,0,0,0,0
1,19999,69,10000,64,0,1,9999,0.100000,0,0,0.000000,2,3.000000,0.000000,9.710012,0,0,0,0,0,0,0
1,19999,70,10000,64,0,1,9999,0.100000,0,0,0.000000,2,1.000000,0.000000,6.119072,0,0,0,0,0,0,0
1,19999,71,10000,64,0,0,9999,0.100000,0,0,0.000000,2,0.000000,0.000000,9.014504,0,0,0,0,0,0,0
1,19999,72,10000,64,0,1,9999,0.100000,0,0,0.000000,2,1.000000,0.000000,8.274160,0,0,0,0,0,0,0
1,19999,73,10000,64,0,0,9999,0.100000,0,0,0.000000,2,0.000000,0.000000,2.361862,0,0,0,0,0,0,0
1,19999,74,10000,64,0,1,9999,0.100000,0,0,0.000000,2,1.000000,0.000000,5.355856,0,0,0,0,0,0,0
1,19999,75,10000,64,0,1,9999,0.100000,0,0,0.000000,2,1.000000,0.000000,3.111157,0,0,0,0,0,0,0
1,19999,76,10000,64,0,1,9999,0.100000,0,0,0.000000,2,2.000000,0.000000,8.868740,0,0,0,0,0,0,0
1,19999,77,10000,64,0,1,9999,0.100000,0,0,0.000000,2,1.000000,0.000000,11.007781,0,0,0,0,0,0,0
1,19999,78,10000,64,0,1,9999,0.100000,0,0,0.000000,2,4.000000,0.000000,14.591168,0,0,0,0,0,0,0
1,19999,79,10000,64,0,1,9999,0.100000,0,0,0.000000,2,1.000000,0.000000,2.999703,0,0,0,0,0,0,0
1,19999,80,10000,64,0,1,9999,0.100000,0,0,0.000000,2,4.000000,0.000000,18.293835,0,0,0,0,0,0,0
1,19999,81,10000,64,0,1,9999,0.100000,0,0,0.000000,2,2.000000,0.000000,13.621049,0,0,0,0,0,0,0
1,19999,82,10000,64,0,0,9999,0.100000,0,0,0.000000,2,0.000000,0.000000,0.081334,0,0,0,0,0,0,0
1,19999,83,10000,64,0,1,9999,0.100000,0,0,0.000000,2,1.000000,0.000000,3.758220,0,0,0,0,0,0,0
1,19999,84,10000,64,0,0,9999,0.100000,0,0,0.000000,2,0.000000,0.000000,24.130107,0,0,0,0,0,0,0
1,19999,85,10000,64,0,0,9999,0.100000,0,0,0.000000,2,0.000000,0.000000,7.570043,0,0,0,0,0,0,0
1,19999,86,10000,64,0,1,9999,0.100000,0,0,0.000000,2,1.000000,0.000000,13.779445,0,0,0,0,0,0,0
1,19999,87,10000,64,0,1,9999,0.100000,0,0,0.000000,2,3.000000,0.000000,13.881891,0,0,0,0,0,0,0
1,19999,88,10000,64,0,1,9999,0.100000,0,0,0.000000,2,1.000000,0.000000,5.612373,0,0,0,0,0,0,0
1,19999,89,10000,64,0,1,9999,0.100000,0,0,0.000000,2,1.000000,0.000000,4.939262,0,0,0,0,0,0,0
1,19999,90,10000,64,0,0,9999,0.100000,0,0,0.000000,2,0.000000,0.000000,1.338683,0,0,0,0,0,0,0
1,19999,91,10000,64,0,1,9999,0.100000,0,0,0.000000,2,4.000000,0.000000,13.585978,0,0,0,0,0,0,0
1,19999,92,10000,64,0,0,9999,0.100000,0,0,0.000000,2,0.000000,0.000000,0.744485,0,0,0,0,0,0,0
1,19999,93,10000,64,0,0,9999,0.100000,0,0,0.000000,2,0.000000,0.000000,3.562095,0,0,0,0,0,0,0
1,19999,94,10000,64,0,1,9999,0.100000,0,0,0.000000,2,2.000000,0.000000,8.541789,0,0,0,0,0,0,0
1,19999,95,10000,64,0,0,9999,0.100000,0,0,0.000000,2,0.000000,0.000000,0.206370,0,0,0,0,0,0,0
1,19999,96,10000,64,0,0,9999,0.100000,0,0,0.000000,2,0.000000,0.000000,0.040115,0,0,0,0,0,0,0
1,19999,97,10000,64,0,1,9999,0.100000,0,0,0.000000,2,1.000000,0.000000,10.872177,0,0,0,0,0,0,0
1,19999,98,10000,64,0,0,9999,0.100000,0,0,0.000000,2,0.000000,0.000000,0.748727,0,0,0,0,0,0,0
1,19999,99,10000,64,0,1,9999,0.100000,0,0,0.000000,2,1.000000,0.000000,10.547910,0,0,0,0,0,0,0
2,29999,0,20000,1,10000,0,9999,0.100000,0,0,0.000000,3,0.000000,0.000000,0.957843,0,0,0,0,0,0,0
2,29999,1,20000,64,0,0,9999,0.100000,0,0,0.000000,3,0.000000,0.000000,0.100373,0,0,0,0,0,0,0
2,29999,2,20000,17,10000,0,9999,0.100000,0,0,0.000000,3,0.000000,0.000000,3.119088,0,0,0,0,0,0,0
2,29999,3,20000,64,0,0,9999,0.100000,0,0,0.000000,3,0.000000,0.000000,0.172002,0,0,0,0,0,0,0
2,29999,4,20000,1,10000,0,9999,0.100000,0,0,0.000000,3,0.000000,0.000000,1.978882,0,0,0,0,0,0,0
2,29999,5,20000,1,10000,1,9999,0.100000,0,0,0.000000,3,1.000000,0.000000,21.824151,0,0,0,0,0,0,0
2,29999,6,20000,64,0,0,9999,0.100000,0,0,0.000000,3,0.000000,0.000000,0.738052,0,0,0,0,0,0,0
2,29999,7,20000,64,0,0,9999,0.100000,0,0,0.000000,3,0.000000,0.000000,0.373576,0,0,0,0,0,0,0
2,29999,8,20000,1,10000,0,9999,0.100000,0,0,0.000000,3,0.000000,0.000000,0.136347,0,0,0,0,0,0,0
2,29999,9,20000,17,10000,0,9999,0.100000,0,0,0.000000,3,0.000000,0.000000,1.734967,0,0,0,0,0,0,0
2,29999,10,20000,1,10000,0,9999,0.100000,0,0,0.000000,3,0.000000,0.000000,0.522304,0,0,0,0,0,0,0
2,29999,11,20000,64,0,1,9999,0.135000,0,0,0.000000,3,1.000000,0.000000,5.686927,0,0,0,0,0,0,0
2,29999,12,20000,64,0,1,9999,0.100000,0,0,0.000000,3,2.000000,0.000000,8.124569,0,0,0,0,0,0,0
2,29999,13,20000,64,0,1,9999,0.100000,0,0,0.000000,3,1.000000,0.000000,2.289952,0,0,0,0,0,0,0
2,29999,14,20000,64,0,1,9999,0.100000,0,0,0.000000,3,2.000000,0.000000,14.924941,0,0,0,0,0,0,0
2,29999,15,20000,1,10000,0,9999,0.100000,0,0,0.000000,3,0.000000,0.000000,5.443771,0,0,0,0,0,0,0
2,29999,16,20000,64,0,1,9999,0.100000,0,0,0.000000,3,1.000000,0.000000,3.528917,0,0,0,0,0,0,0
2,29999,17,20000,1,10000,0,9999,0.100000,0,0,0.000000,3,0.000000,0.000000,0.216212,0,0,0,0,0,0,0
2,29999,18,20000,1,10000,0,9999,0.100000,0,0,0.000000,3,0.000000,0.000000,1.089196,0,0,0,0,0,0,0
2,29999,19,20000,64,0,1,9999,0.100000,0,0,0.000000,3,1.000000,0.000000,9.443476,0,0,0,0,0,0,0
2,29999,20,20000,1,10000,0,9999,0.100000,0,0,0.000000,3,0.000000,0.000000,2.386457,0,0,0,0,0,0,0
2,29999,21,20000,1,10000,0,9999,0.100000,0,0,0.000000,3,0.000000,0.000000,1.669129,0,0,0,0,0,0,0
2,29999,22,20000,64,0,1,9999,0.100000,0,0,0.000000,3,1.000000,0.000000,5.012063,0,0,0,0,0,0,0
2,29999,23,20000,64,0,1,9999,0.100000,0,0,0.000000,3,1.000000,0.000000,1.918537,0,0,0,0,0,0,0
2,29999,24,20000,1,10000,0,9999,0.100000,0,0,0.000000,3,0.000000,0.000000,1.380235,0,0,0,0,0,0,0
2,29999,25,20000,64,0,0,9999,0.100000,0,0,0.000000,3,0.000000,0.000000,0.994141,0,0,0,0,0,0,0
2,29999,26,20000,1,10000,0,9999,0.100000,0,0,0.000000,3,0.000000,0.000000,0.924129,0,0,0,0,0,0,0
2,29999,27,20000,64,0,0,9999,0.100000,0,0,0.000000,3,0.000000,0.000000,0.541390,0,0,0,0,0,0,0
2,29999,28,20000,64,0,0,9999,0.100000,0,0,0.000000,3,0.000000,0.000000,0.798339,0,0,0,0,0,0,0
2,29999,29,20000,28,10000,0,9999,0.100000,0,0,0.000000,3,0.000000,0.000000,0.880056,0,0,0,0,0,0,0
2,29999,30,20000,64,0,0,9999,0.100000,0,0,0.000000,3,0.000000,0.000000,6.498830,0,0,0,0,0,0,0
2,29999,31,20000,28,10000,1,9999,0.100000,0,0,0.000000,3,1.000000,0.000000,1.893281,0,0,0,0,0,0,0
2,29999,32,20000,28,10000,0,9999,0.100000,0,0,0.000000,3,0.000000,0.000000,1.541437,0,0,0,0,0,0,0
2,29999,33,20000,28,10000,0,9999,0.100000,0,0,0.000000,3,0.000000,0.000000,4.681656,0,0,0,0,0,0,0
2,29999,34,20000,28,10000,0,9999,0.100000,0,0,0.000000,3,0.000000,0.000000,0.583715,0,0,0,0,0,0,0
2,29999,35,20000,28,10000,0,9999,0.100000,0,0,0.000000,3,0.000000,0.000000,0.102330,0,0,0,0,0,0,0
2,29999,36,20000,64,0,0,9999,0.100000,0,0,0.000000,3,0.000000,0.000000,0.422890,0,0,0,0,0,0,0
2,29999,37,20000,64,0,1,9999,0.100000,0,0,0.000000,3,2.000000,0.000000,13.438119,0,0,0,0,0,0,0
2,29999,38,20000,64,0,0,9999,0.100000,0,0,0.000000,3,0.000000,0.000000,0.487050,0,0,0,0,0,0,0
2,29999,39,20000,64,0,0,9999,0.100000,0,0,0.000000,3,0.000000,0.000000,0.659703,0,0,0,0,0,0,0
2,29999,40,20000,41,10000,0,9999,0.100000,0,0,0.000000,3,0.000000,0.000000,0.793315,0,0,0,0,0,0,0
2,29999,41,20000,28,10000,1,9999,0.100000,0,0,0.000000,3,1.000000,0.000000,5.533893,0,0,0,0,0,0,0
2,29999,42,20000,41,10000,1,9999,0.100000,0,0,0.000000,3,4.000000,0.000000,10.238791,0,0,0,0,0,0,0
2,29999,43,20000,41,10000,1,9999,0.100000,0,0,0.000000,3,1.000000,0.000000,2.548235,0,0,0,0,0,0,0
2,29999,44,20000,41,10000,0,9999,0.100000,0,0,0.000000,3,0.000000,0.000000,2.944830,0,0,0,0,0,0,0
2,29999,45,20000,41,10000,1,9999,0.100000,0,0,0.000000,3,1.000000,0.000000,15.935809,0,0,0,0,0,0,0
2,29999,46,20000,41,10000,1,9999,0.100000,0,0,0.000000,3,2.000000,0.000000,16.181274,0,0,0,0,0,0,0
2,29999,47,20000,41,10000,0,9999,0.100000,0,0,0.000000,3,0.000000,0.000000,0.833106,0,0,0,0,0,0,0
2,29999,48,20000,28,10000,0,9999,0.100000,0,0,0.000000,3,0.000000,0.000000,0.983580,0,0,0,0,0,0,0
2,29999,49,20000,28,10000,1,9999,0.100000,0,0,0.000000,3,1.000000,0.000000,5.560678,0,0,0,0,0,0,0
2,29999,50,20000,41,10000,1,9999,0.100000,0,0,0.000000,3,1.000000,0.000000,2.945636,0,0,0,0,0,0,0
2,29999,51,20000,28,10000,0,9999,0.100000,0,0,0.000000,3,0.000000,0.000000,0.382418,0,0,0,0,0,0,0
2,29999,52,20000,28,10000,0,9999,0.100000,0,0,0.000000,3,0.000000,0.000000,0.682135,0,0,0,0,0,0,0
2,29999,53,20000,41,10000,1,9999,0.100000,0,0,0.000000,3,4.000000,0.000000,16.133719,0,0,0,0,0,0,0
2,29999,54,20000,28,10000,0,9999,0.100000,0,0,0.000000,3,0.000000,0.000000,1.772656,0,0,0,0,0,0,0
2,29999,55,20000,28,10000,1,9999,0.100000,0,0,0.000000,3,2.000000,0.000000,7.030259,0,0,0,0,0,0,0
2,29999,56,20000,41,10000,0,9999,0.100000,0,0,0.000000,3,0.000000,0.000000,4.394827,0,0,0,0,0,0,0
2,29999,57,20000,41,10000,0,9999,0.100000,0,0,0.000000,3,0.000000,0.000000,0.682424,0,0,0,0,0,0,0
2,29999,58,20000,41,10000,0,9999,0.100000,0,0,0.000000,3,0.000000,0.000000,0.626249,0,0,0,0,0,0,0
2,29999,59,20000,41,10000,1,9999,0.100000,0,0,0.000000,3,2.000000,0.000000,9.686669,0,0,0,0,0,0,0
2,29999,60,20000,41,10000,0,9999,0.100000,0,0,0.000000,3,0.000000,0.000000,10.679732,0,0,0,0,0,0,0
2,29999,61,20000,41,10000,0,9999,0.100000,0,0,0.000000,3,0.000000,0.000000,9.048329,0,0,0,0,0,0,0
2,29999,62,20000,41,10000,1,9999,0.100000,0,0,0.000000,3,1.000000,0.000000,21.070637,0,0,0,0,0,0,0
2,29999,63,20000,28,10000,0,9999,0.100000,0,0,0.000000,3,0.000000,0.000000,5.007789,0,0,0,0,0,0,0
2,29999,64,20000,28,10000,0,9999,0.100000,0,0,0.000000,3,0.000000,0.000000,4.711368,0,0,0,0,0,0,0
2,29999,65,20000,28,10000,0,9999,0.100000,0,0,0.000000,3,0.000000,0.000000,7.603164,0,0,0,0,0,0,0
2,29999,66,20000,28,10000,0,9999,0.100000,0,0,0.000000,3,0.000000,0.000000,1.907000,0,0,0,0,0,0,0
2,29999,67,20000,41,10000,0,9999,0.100000,0,0,0.000000,3,0.000000,0.000000,0.691705,0,0,0,0,0,0,0
2,29999,68,20000,28,10000,0,9999,0.100000,0,0,0.000000,3,0.000000,0.000000,0.485470,0,0,0,0,0,0,0
2,29999,69,20000,41,10000,0,9999,0.100000,0,0,0.000000,3,0.000000,0.000000,0.584448,0,0,0,0,0,0,0
2,29999,70,20000,41,10000,1,9999,0.100000,0,0,0.000000,3,1.000000,0.000000,8.651244,0,0,0,0,0,0,0
2,29999,71,20000,41,10000,1,9999,0.100000,0,0,0.000000,3,2.000000,0.000000,11.565120,0,0,0,0,0,0,0
2,29999,72,20000,41,10000,1,9999,0.100000,0,0,0.000000,3,1.000000,0.000000,13.912678,0,0,0,0,0,0,0
2,29999,73,20000,28,10000,0,9999,0.100000,0,0,0.000000,3,0.000000,0.000000,2.348556,0,0,0,0,0,0,0
2,29999,74,20000,28,10000,1,9999,0.100000,0,0,0.000000,3,1.000000,0.000000,2.867934,0,0,0,0,0,0,0
2,29999,75,20000,41,10000,1,9999,0.100000,0,0,0.000000,3,1.000000,0.000000,15.519340,0,0,0,0,0,0,0
2,29999,76,20000,41,10000,1,9999,0.100000,0,0,0.000000,3,2.000000,0.000000,11.464498,0,0,0,0,0,0,0
2,29999,77,20000,41,10000,1,9999,0.100000,0,0,0.000000,3,1.000000,0.000000,12.018915,0,0,0,0,0,0,0
2,29999,78,20000,28,10000,1,9999,0.100000,0,0,0.000000,3,1.000000,0.000000,4.567088,0,0,0,0,0,0,0
2,29999,79,20000,28,10000,1,9999,0.100000,0,0,0.000000,3,2.000000,0.000000,8.011892,0,0,0,0,0,0,0
2,29999,80,20000,28,10000,1,9999,0.100000,0,0,0.000000,3,1.000000,0.000000,6.923513,0,0,0,0,0,0,0
2,29999,81,20000,41,10000,1,9999,0.100000,0,0,0.000000,3,1.000000,0.000000,10.829528,0,0,0,0,0,0,0
2,29999,82,20000,41,10000,0,9999,0.100000,0,0,0.000000,3,0.000000,0.000000,0.083145,0,0,0,0,0,0,0
2,29999,83,20000,41,10000,0,9999,0.100000,0,0,0.000000,3,0.000000,0.000000,0.552393,0,0,0,0,0,0,0
2,29999,84,20000,28,10000,1,9999,0.100000,0,0,0.000000,3,1.000000,0.000000,21.276672,0,0,0,0,0,0,0
2,29999,85,20000,41,10000,1,9999,0.100000,0,0,0.000000,3,1.000000,0.000000,7.336326,0,0,0,0,0,0,0
2,29999,86,20000,41,10000,1,9999,0.100000,0,0,0.000000,3,1.000000,0.000000,14.086663,0,0,0,0,0,0,0
2,29999,87,20000,28,10000,0,9999,0.100000,0,0,0.000000,3,0.000000,0.000000,1.745324,0,0,0,0,0,0,0
2,29999,88,20000,28,10000,0,9999,0.100000,0,0,0.000000,3,0.000000,0.000000,1.363342,0,0,0,0,0,0,0
2,29999,89,20000,28,10000,0,9999,0.100000,0,0,0.000000,3,0.000000,0.000000,1.446430,0,0,0,0,0,0,0
2,29999,90,20000,41,10000,1,9999,0.100000,0,0,0.000000,3,7.000000,0.000000,21.012317,0,0,0,0,0,0,0
2,29999,91,20000,41,10000,0,9999,0.100000,0,0,0.000000,3,0.000000,0.000000,5.869498,0,0,0,0,0,0,0
2,29999,92,20000,28,10000,0,9999,0.100000,0,0,0.000000,3,0.000000,0.000000,0.682614,0,0,0,0,0,0,0
2,29999,93,20000,28,10000,0,9999,0.100000,0,0,0.000000,3,0.000000,0.000000,3.306126,0,0,0,0,0,0,0
2,29999,94,20000,41,10000,1,9999,0.100000,0,0,0.000000,3,2.000000,0.000000,8.551158,0,0,0,0,0,0,0
2,29999,95,20000,41,10000,0,9999,0.100000,0,0,0.000000,3,0.000000,0.000000,0.188213,0,0,0,0,0,0,0
2,29999,96,20000,41,10000,0,9999,0.100000,0,0,0.000000,3,0.000000,0.000000,0.457181,0,0,0,0,0,0,0
2,29999,97,20000,28,10000,1,9999,0.100000,0,0,0.000000,3,4.000000,0.000000,5.153929,0,0,0,0,0,0,0
2,29999,98,20000,28,10000,0,9999,0.100000,0,0,0.000000,3,0.000000,0.000000,1.412186,0,0,0,0,0,0,0
2,29999,99,20000,41,10000,0,9999,0.100000,0,0,0.000000,3,0.000000,0.000000,8.554100,0,0,0,0,0,0,0
3,39999,0,30000,28,10000,0,9999,0.100000,0,0,0.000000,3,0.000000,0.000000,1.026408,0,0,0,0,0,0,0
3,39999,1,30000,41,10000,0,9999,0.100000,0,0,0.000000,3,0.000000,0.000000,0.143359,0,0,0,0,0,0,0
3,39999,2,30000,28,10000,0,9999,0.100000,0,0,0.000000,3,0.000000,0.000000,1.625155,0,0,0,0,0,0,0
3,39999,3,30000,41,10000,0,9999,0.100000,0,0,0.000000,3,0.000000,0.000000,0.236171,0,0,0,0,0,0,0
3,39999,4,30000,41,10000,1,9999,0.100000,0,0,0.000000,3,6.000000,0.000000,18.630132,0,0,0,0,0,0,0
3,39999,5,30000,28,10000,1,9999,0.100000,0,0,0.000000,3,1.000000,0.000000,14.179023,0,0,0,0,0,0,0
3,39999,6,30000,41,10000,1,9999,0.100000,0,0,0.000000,3,1.000000,0.000000,2.871207,0,0,0,0,0,0,0
3,39999,7,30000,28,10000,0,9999,0.100000,0,0,0.000000,3,0.000000,0.000000,0.176074,0,0,0,0,0,0,0
3,39999,8,30000,41,10000,0,9999,0.100000,0,0,0.000000,3,0.000000,0.000000,0.153906,0,0,0,0,0,0,0
3,39999,9,30000,28,10000,0,9999,0.100000,0,0,0.000000,3,0.000000,0.000000,1.899751,0,0,0,0,0,0,0
3,39999,10,30000,41,10000,0,9999,0.100000,0,0,0.000000,3,0.000000,0.000000,0.280451,0,0,0,0,0,0,0
3,39999,11,30000,28,10000,0,9999,0.100000,0,0,0.000000,3,0.000000,0.000000,21.770400,0,0,0,0,0,0,0
3,39999,12,30000,41,10000,1,9999,0.100000,0,0,0.000000,3,3.000000,0.000000,9.963096,0,0,0,0,0,0,0
3,39999,13,30000,28,10000,0,9999,0.100000,0,0,0.000000,3,0.000000,0.000000,1.568173,0,0,0,0,0,0,0
3,39999,14,30000,41,10000,1,9999,0.100000,0,0,0.000000,3,1.000000,0.000000,11.878289,0,0,0,0,0,0,0
3,39999,15,30000,41,10000,0,9999,0.100000,0,0,0.000000,3,0.000000,0.000000,6.505986,0,0,0,0,0,0,0
3,39999,16,30000,41,10000,1,9999,0.100000,0,0,0.000000,3,3.000000,0.000000,14.307051,0,0,0,0,0,0,0
3,39999,17,30000,28,10000,1,9999,0.100000,0,0,0.000000,3,1.000000,0.000000,1.376405,0,0,0,0,0,0,0
3,39999,18,30000,28,10000,0,9999,0.100000,0,0,0.000000,3,0.000000,0.000000,1.012371,0,0,0,0,0,0,0
3,39999,19,30000,41,10000,1,9999,0.100000,0,0,0.000000,3,1.000000,0.000000,15.693084,0,0,0,0,0,0,0
3,39999,20,30000,28,10000,1,9999,0.100000,0,0,0.000000,3,3.000000,0.000000,10.639581,0,0,0,0,0,0,0
3,39999,21,30000,28,10000,1,9999,0.100000,0,0,0.000000,3,1.000000,0.000000,3.227027,0,0,0,0,0,0,0
3,39999,22,30000,41,10000,1,9999,0.100000,0,0,0.000000,3,3.000000,0.000000,13.832449,0,0,0,0,0,0,0
3,39999,23,30000,41,10000,1,9999,0.100000,0,0,0.000000,3,3.000000,0.000000,5.132253,0,0,0,0,0,0,0
3,39999,24,30000,28,10000,1,9999,0.100000,0,0,0.000000,3,1.000000,0.000000,1.937038,0,0,0,0,0,0,0
3,39999,25,30000,28,10000,0,9999,0.100000,0,0,0.000000,3,0.000000,0.000000,0.760015,0,0,0,0,0,0,0
3,39999,26,30000,41,10000,1,9999,0.100000,0,0,0.000000,3,4.000000,0.000000,7.589340,0,0,0,0,0,0,0
3,39999,27,30000,28,10000,0,9999,0.100000,0,0,0.000000,3,0.000000,0.000000,3.098730,0,0,0,0,0,0,0
3,39999,28,30000,41,10000,0,9999,0.100000,0,0,0.000000,3,0.000000,0.000000,0.559618,0,0,0,0,0,0,0
3,39999,29,30000,28,10000,0,9999,0.100000,0,0,0.000000,3,0.000000,0.000000,0.680960,0,0,0,0,0,0,0
3,39999,30,30000,41,10000,1,9999,0.100000,0,0,0.000000,3,2.000000,0.000000,11.397473,0,0,0,0,0,0,0
3,39999,31,30000,41,10000,1,9999,0.100000,0,0,0.000000,3,5.000000,0.000000,11.894062,0,0,0,0,0,0,0
3,39999,32,30000,28,10000,0,9999,0.100000,0,0,0.000000,3,0.000000,0.000000,0.774842,0,0,0,0,0,0,0
3,39999,33,30000,41,10000,0,9999,0.100000,0,0,0.000000,3,0.000000,0.000000,5.079522,0,0,0,0,0,0,0
3,39999,34,30000,28,10000,0,9999,0.100000,0,0,0.000000,3,0.000000,0.000000,0.592295,0,0,0,0,0,0,0
3,39999,35,30000,28,10000,0,9999,0.100000,0,0,0.000000,3,0.000000,0.000000,0.102915,0,0,0,0,0,0,0
3,39999,36,30000,41,10000,0,9999,0.100000,0,0,0.000000,3,0.000000,0.000000,0.198413,0,0,0,0,0,0,0
3,39999,37,30000,28,10000,0,9999,0.100000,0,0,0.000000,3,0.000000,0.000000,2.374777,0,0,0,0,0,0,0
3,39999,38,30000,28,10000,1,9999,0.100000,0,0,0.000000,3,11.000000,0.000000,15.465871,0,0,0,0,0,0,0
3,39999,39,30000,41,10000,1,9999,0.100000,0,0,0.000000,3,1.000000,0.000000,1.508269,0,0,0,0,0,0,0
3,39999,40,30000,28,10000,0,9999,0.100000,0,0,0.000000,3,0.000000,0.000000,3.052167,0,0,0,0,0,0,0
3,39999,41,30000,41,10000,0,9999,0.100000,0,0,0.000000,3,0.000000,0.000000,3.841139,0,0,0,0,0,0,0
3,39999,42,30000,28,10000,0,9999,0.135000,0,0,0.000000,3,0.000000,0.000000,0.202646,0,0,0,0,0,0,0
3,39999,43,30000,28,10000,0,9999,0.100000,0,0,0.000000,3,0.000000,0.000000,0.762398,0,0,0,0,0,0,0
3,39999,44,30000,41,10000,1,9999,0.100000,0,0,0.000000,3,1.000000,0.000000,8.231951,0,0,0,0,0,0,0
3,39999,45,30000,41,10000,1,9999,0.100000,0,0,0.000000,3,1.000000,0.000000,11.420658,0,0,0,0,0,0,0
3,39999,46,30000,41,10000,1,9999,0.100000,0,0,0.000000,3,2.000000,0.000000,16.520471,0,0,0,0,0,0,0
3,39999,47,30000,41,10000,1,9999,0.100000,0,0,0.000000,3,1.000000,0.000000,6.578557,0,0,0,0,0,0,0
3,39999,48,30000,41,10000,0,9999,0.100000,0,0,0.000000,3,0.000000,0.000000,0.425191,0,0,0,0,0,0,0
3,39999,49,30000,28,10000,0,9999,0.100000,0,0,0.000000,3,0.000000,0.000000,5.289730,0,0,0,0,0,0,0
3,39999,50,30000,41,10000,0,9999,0.100000,0,0,0.000000,3,0.000000,0.000000,0.090493,0,0,0,0,0,0,0
3,39999,51,30000,28,10000,0,9999,0.100000,0,0,0.000000,3,0.000000,0.000000,0.730857,0,0,0,0,0,0,0
3,39999,52,30000,41,10000,0,9999,0.100000,0,0,0.000000,3,0.000000,0.000000,0.369095,0,0,0,0,0,0,0
3,39999,53,30000,41,10000,0,9999,0.100000,0,0,0.000000,3,0.000000,0.000000,3.187996,0,0,0,0,0,0,0
3,39999,54,30000,28,10000,0,9999,0.100000,0,0,0.000000,3,0.000000,0.000000,4.756995,0,0,0,0,0,0,0
3,39999,55,30000,41,10000,1,9999,0.100000,0,0,0.000000,3,1.000000,0.000000,6.373547,0,0,0,0,0,0,0
3,39999,56,30000,41,10000,1,9999,0.100000,0,0,0.000000,3,1.000000,0.000000,3.227196,0,0,0,0,0,0,0
3,39999,57,30000,28,10000,0,9999,0.100000,0,0,0.000000,3,0.000000,0.000000,0.478654,0,0,0,0,0,0,0
3,39999,58,30000,41,10000,0,9999,0.100000,0,0,0.000000,3,0.000000,0.000000,5.757582,0,0,0,0,0,0,0
3,39999,59,30000,28,10000,1,9999,0.100000,0,0,0.000000,3,1.000000,0.000000,6.689937,0,0,0,0,0,0,0
3,39999,60,30000,41,10000,1,9999,0.100000,0,0,0.000000,3,1.000000,0.000000,19.205062,0,0,0,0,0,0,0
3,39999,61,30000,28,10000,0,9999,0.100000,0,0,0.000000,3,0.000000,0.000000,6.319541,0,0,0,0,0,0,0
3,39999,62,30000,41,10000,1,9999,0.100000,0,0,0.000000,3,1.000000,0.000000,13.914456,0,0,0,0,0,0,0
3,39999,63,30000,28,10000,1,9999,0.100000,0,0,0.000000,3,1.000000,0.000000,14.009418,0,0,0,0,0,0,0
3,39999,64,30000,41,10000,0,9999,0.100000,0,0,0.000000,3,0.000000,0.000000,3.208461,0,0,0,0,0,0,0
3,39999,65,30000,41,10000,0,9999,0.100000,0,0,0.000000,3,0.000000,0.000000,0.986004,0,0,0,0,0,0,0
3,39999,66,30000,28,10000,1,9999,0.100000,0,0,0.000000,3,1.000000,0.000000,3.863060,0,0,0,0,0,0,0
3,39999,67,30000,41,10000,0,9999,0.100000,0,0,0.000000,3,0.000000,0.000000,1.219936,0,0,0,0,0,0,0
3,39999,68,30000,28,10000,0,9999,0.100000,0,0,0.000000,3,0.000000,0.000000,0.727366,0,0,0,0,0,0,0
3,39999,69,30000,28,10000,0,9999,0.100000,0,0,0.000000,3,0.000000,0.000000,0.813922,0,0,0,0,0,0,0
3,39999,70,30000,41,10000,0,9999,0.100000,0,0,0.000000,3,0.000000,0.000000,4.206823,0,0,0,0,0,0,0
3,39999,71,30000,41,10000,1,9999,0.100000,0,0,0.000000,3,2.000000,0.000000,9.978188,0,0,0,0,0,0,0
3,39999,72,30000,41,10000,1,9999,0.100000,0,0,0.000000,3,1.000000,0.000000,3.185106,0,0,0,0,0,0,0
3,39999,73,30000,41,10000,1,9999,0.100000,0,0,0.000000,3,1.000000,0.000000,2.079664,0,0,0,0,0,0,0
3,39999,74,30000,28,10000,0,9999,0.100000,0,0,0.000000,3,0.000000,0.000000,0.784783,0,0,0,0,0,0,0
3,39999,75,30000,28,10000,1,9999,0.100000,0,0,0.000000,3,2.000000,0.000000,8.174059,0,0,0,0,0,0,0
3,39999,76,30000,28,10000,0,9999,0.100000,0,0,0.000000,3,0.000000,0.000000,0.070697,0,0,0,0,0,0,0
3,39999,77,30000,41,10000,1,9999,0.100000,0,0,0.000000,3,2.000000,0.000000,13.893993,0,0,0,0,0,0,0
3,39999,78,30000,41,10000,1,9999,0.100000,0,0,0.000000,3,3.000000,0.000000,22.627044,0,0,0,0,0,0,0
3,39999,79,30000,41,10000,3,9999,0.100000,0,0,66.871623,3,12.000000,0.000000,24.924284,0,0,1,0,0,0,0
3,39999,80,30000,28,10000,0,9999,0.100000,0,0,0.000000,3,0.000000,0.000000,4.000925,0,0,0,0,0,0,0
3,39999,81,30000,41,10000,1,9999,0.100000,0,0,0.000000,3,2.000000,0.000000,16.788137,0,0,0,0,0,0,0
3,39999,82,30000,41,10000,0,9999,0.100000,0,0,0.000000,3,0.000000,0.000000,0.082237,0,0,0,0,0,0,0
3,39999,83,30000,28,10000,1,9999,0.100000,0,0,0.000000,3,1.000000,0.000000,1.406384,0,0,0,0,0,0,0
3,39999,84,30000,28,10000,0,9999,0.100000,0,0,0.000000,3,0.000000,0.000000,0.615059,0,0,0,0,0,0,0
3,39999,85,30000,28,10000,0,9999,0.100000,0,0,0.000000,3,0.000000,0.000000,4.897546,0,0,0,0,0,0,0
3,39999,86,30000,28,10000,0,9999,0.100000,0,0,0.000000,3,0.000000,0.000000,8.553889,0,0,0,0,0,0,0
3,39999,87,30000,28,10000,1,9999,0.100000,0,0,0.000000,3,1.000000,0.000000,2.284954,0,0,0,0,0,0,0
3,39999,88,30000,28,10000,0,9999,0.100000,0,0,0.000000,3,0.000000,0.000000,1.850915,0,0,0,0,0,0,0
3,39999,89,30000,28,10000,0,9999,0.100000,0,0,0.000000,3,0.000000,0.000000,0.278892,0,0,0,0,0,0,0
3,39999,90,30000,28,10000,0,9999,0.135000,0,0,0.000000,3,0.000000,0.000000,7.777972,0,0,0,0,0,0,0
3,39999,91,30000,41,10000,0,9999,0.100000,0,0,0.000000,3,0.000000,0.000000,2.473337,0,0,0,0,0,0,0
3,39999,92,30000,41,10000,0,9999,0.100000,0,0,0.000000,3,0.000000,0.000000,0.720065,0,0,0,0,0,0,0
3,39999,93,30000,28,10000,0,9999,0.100000,0,0,0.000000,3,0.000000,0.000000,0.974999,0,0,0,0,0,0,0
3,39999,94,30000,41,10000,1,9999,0.100000,0,0,0.000000,3,2.000000,0.000000,5.283073,0,0,0,0,0,0,0
3,39999,95,30000,41,10000,0,9999,0.100000,0,0,0.000000,3,0.000000,0.000000,0.285376,0,0,0,0,0,0,0
3,39999,96,30000,28,10000,0,9999,0.100000,0,0,0.000000,3,0.000000,0.000000,0.562583,0,0,0,0,0,0,0
3,39999,97,30000,28,10000,0,9999,0.100000,0,0,0.000000,3,0.000000,0.000000,1.431579,0,0,0,0,0,0,0
3,39999,98,30000,28,10000,1,9999,0.100000,0,0,0.000000,3,1.000000,0.000000,2.783539,0,0,0,0,0,0,0
3,39999,99,30000,28,10000,0,9999,0.100000,0,0,0.000000,3,0.000000,0.000000,4.417550,0,0,0,0,0,0,0
