generation,iteration,robot,birthday,ancestor_id,ancestor_birthday,cell_id,age,sigma,maps,genomes,fitness,cells_in_map,dist_max,dist_pot_max,dist_total,com_rx,com_tx,obj_group1,obj_group2,obj_group3,obj_group4,obj_group5
0,9999,0,0,0,0,90,9999,0.100000,99,99,3.825109,0,0.000000,14.614109,2.881123,99,99,1,0,0,0,0
0,9999,1,0,1,0,40,9999,0.100000,99,99,0.000000,0,0.000000,26.434415,4.673786,99,99,0,0,0,0,0
0,9999,2,0,2,0,40,9999,0.100000,99,99,0.000000,0,2.000000,25.028307,7.927502,99,99,0,0,0,0,0
0,9999,3,0,3,0,42,9999,0.100000,99,99,0.000000,0,6.000000,27.972479,13.832337,99,99,0,0,0,0,0
0,9999,4,0,4,0,42,9999,0.100000,99,99,0.000000,0,6.000000,19.646243,12.585981,99,99,0,0,0,0,0
0,9999,5,0,5,0,40,9999,0.100000,99,99,0.000000,0,1.000000,31.308449,11.936237,99,99,0,0,0,0,0
0,9999,6,0,6,0,41,9999,0.100000,99,99,0.000000,0,5.000000,31.260762,19.664724,99,99,0,0,0,0,0
0,9999,7,0,7,0,41,9999,0.100000,99,99,0.000000,0,3.000000,24.431216,16.716317,99,99,0,0,0,0,0
0,9999,8,0,8,0,41,9999,0.100000,99,99,0.000000,0,2.000000,17.424958,17.725230,99,99,0,0,0,0,0
0,9999,9,0,9,0,93,9999,0.100000,99,99,47.746585,0,8.000000,23.462912,15.803482,99,99,1,0,0,0,0
0,9999,10,0,10,0,40,9999,0.100000,99,99,0.000000,0,0.000000,28.009997,3.152304,99,99,0,0,0,0,0
0,9999,11,0,11,0,40,9999,0.100000,99,99,0.000000,0,1.000000,14.964877,9.252813,99,99,0,0,0,0,0
0,9999,12,0,12,0,41,9999,0.100000,99,99,0.000000,0,4.000000,19.827004,12.730453,99,99,0,0,0,0,0
0,9999,13,0,13,0,91,9999,0.100000,99,99,14.502780,0,4.000000,31.924416,16.110291,99,99,1,0,0,0,0
0,9999,14,0,14,0,40,9999,0.100000,99,99,0.000000,0,2.000000,23.048372,9.633634,99,99,0,0,0,0,0
0,9999,15,0,15,0,92,9999,0.100000,99,99,43.606551,0,8.000000,29.809341,16.926328,99,99,1,0,0,0,0
0,9999,16,0,16,0,49,9999,0.100000,99,99,0.000000,0,18.000000,15.727128,21.571735,99,99,0,0,0,0,0
0,9999,17,0,17,0,90,9999,0.100000,99,99,13.025790,0,2.000000,28.916924,20.112101,99,99,1,0,0,0,0
0,9999,18,0,18,0,0,9999,0.100000,99,99,1.128666,0,0.000000,25.826876,1.659222,99,99,0,0,1,0,0
0,9999,19,0,19,0,40,9999,0.100000,99,99,0.000000,0,1.000000,25.970285,16.071327,99,99,0,0,0,0,0
0,9999,20,0,20,0,40,9999,0.100000,99,99,0.000000,0,1.000000,21.064357,16.082645,99,99,0,0,0,0,0
0,9999,21,0,21,0,42,9999,0.100000,99,99,0.000000,0,5.000000,23.313527,10.207679,99,99,0,0,0,0,0
0,9999,22,0,22,0,40,9999,0.100000,99,99,0.000000,0,2.000000,28.422812,8.980120,99,99,0,0,0,0,0
0,9999,23,0,23,0,40,9999,0.100000,99,99,0.000000,0,3.000000,33.176712,10.832252,99,99,0,0,0,0,0
0,9999,24,0,24,0,1,9999,0.100000,99,99,0.374038,0,3.000000,27.844047,4.515543,99,99,0,0,1,0,0
0,9999,25,0,25,0,41,9999,0.100000,99,99,0.000000,0,5.000000,28.603494,11.938934,99,99,0,0,0,0,0
0,9999,26,0,26,0,91,9999,0.100000,99,99,34.365029,0,5.000000,32.604645,15.775097,99,99,1,0,0,0,0
0,9999,27,0,27,0,40,9999,0.100000,99,99,0.000000,0,3.000000,29.958206,9.250268,99,99,0,0,0,0,0
0,9999,28,0,28,0,40,9999,0.100000,99,99,0.000000,0,2.000000,28.172782,4.173942,99,99,0,0,0,0,0
0,9999,29,0,29,0,40,9999,0.100000,99,99,0.000000,0,1.000000,19.946356,10.780744,99,99,0,0,0,0,0
0,9999,30,0,30,0,40,9999,0.100000,99,99,0.000000,0,3.000000,32.722896,19.815003,99,99,0,0,0,0,0
0,9999,31,0,31,0,0,9999,0.100000,99,99,0.026542,0,1.000000,24.066272,2.320348,99,99,0,1,0,0,0
0,9999,32,0,32,0,40,9999,0.100000,99,99,0.000000,0,1.000000,28.294535,10.692799,99,99,0,0,0,0,0
0,9999,33,0,33,0,40,9999,0.100000,99,99,0.000000,0,1.000000,27.006175,11.693741,99,99,0,0,0,0,0
0,9999,34,0,34,0,0,9999,0.100000,99,99,0.010314,0,0.000000,25.147607,1.008840,99,99,0,0,1,0,0
0,9999,35,0,35,0,42,9999,0.100000,99,99,0.000000,0,4.000000,18.660831,8.845559,99,99,0,0,0,0,0
0,9999,36,0,36,0,40,9999,0.100000,99,99,0.000000,0,0.000000,32.660318,9.101830,99,99,0,0,0,0,0
0,9999,37,0,37,0,90,9999,0.100000,99,99,1.865314,0,0.000000,14.440721,4.892037,99,99,1,0,0,0,0
0,9999,38,0,38,0,40,9999,0.100000,99,99,0.000000,0,2.000000,20.101980,8.149664,99,99,0,0,0,0,0
0,9999,39,0,39,0,1,9999,0.100000,99,99,0.813113,0,3.000000,24.749237,22.283690,99,99,0,0,1,0,0
0,9999,40,0,40,0,41,9999,0.100000,99,99,0.000000,0,3.000000,23.132022,15.636873,99,99,0,0,0,0,0
0,9999,41,0,41,0,97,9999,0.100000,99,99,66.322816,0,13.000000,17.592760,23.130176,99,99,1,0,0,0,0
0,9999,42,0,42,0,40,9999,0.100000,99,99,0.000000,0,0.000000,23.430190,17.443987,99,99,0,0,0,0,0
0,9999,43,0,43,0,41,9999,0.100000,99,99,0.000000,0,3.000000,27.860011,6.282695,99,99,0,0,0,0,0
0,9999,44,0,44,0,0,9999,0.100000,99,99,0.133761,0,2.000000,32.900873,4.422671,99,99,0,0,0,1,0
0,9999,45,0,45,0,40,9999,0.100000,99,99,0.000000,0,1.000000,30.035968,3.750549,99,99,0,0,0,0,0
0,9999,46,0,46,0,93,9999,0.100000,99,99,40.604774,0,7.000000,21.162885,19.729072,99,99,1,0,0,0,0
0,9999,47,0,47,0,0,9999,0.100000,99,99,0.025684,0,2.000000,21.667476,6.618027,99,99,0,1,0,0,0
0,9999,48,0,48,0,40,9999,0.100000,99,99,0.000000,0,2.000000,21.947385,18.208742,99,99,0,0,0,0,0
0,9999,49,0,49,0,9,9999,0.100000,99,99,69.477531,0,13.000000,12.617250,17.818201,99,99,0,1,0,0,0
0,9999,50,0,50,0,92,9999,0.100000,99,99,39.809619,0,5.000000,22.119818,21.227943,99,99,1,0,0,0,0
0,9999,51,0,51,0,0,9999,0.100000,99,99,0.164971,0,1.000000,26.200309,2.857334,99,99,0,0,1,0,0
0,9999,52,0,52,0,41,9999,0.100000,99,99,0.000000,0,3.000000,23.081667,17.429507,99,99,0,0,0,0,0
0,9999,53,0,53,0,90,9999,0.100000,99,99,9.159350,0,2.000000,27.079227,26.197336,99,99,1,0,0,0,0
0,9999,54,0,54,0,40,9999,0.100000,99,99,0.000000,0,1.000000,27.098538,9.134935,99,99,0,0,0,0,0
0,9999,55,0,55,0,41,9999,0.100000,99,99,0.000000,0,4.000000,30.248457,10.019638,99,99,0,0,0,0,0
0,9999,56,0,56,0,40,9999,0.100000,99,99,0.000000,0,1.000000,27.713272,11.421015,99,99,0,0,0,0,0
0,9999,57,0,57,0,94,9999,0.100000,99,99,54.365098,0,10.000000,20.234256,19.261910,99,99,1,0,0,0,0
0,9999,58,0,58,0,40,9999,0.100000,99,99,0.000000,0,1.000000,30.506096,3.447955,99,99,0,0,0,0,0
0,9999,59,0,59,0,0,9999,0.100000,99,99,0.103914,0,1.000000,13.492850,4.091873,99,99,0,0,0,1,0
0,9999,60,0,60,0,40,9999,0.100000,99,99,0.000000,0,1.000000,20.916501,10.645333,99,99,0,0,0,0,0
0,9999,61,0,61,0,40,9999,0.100000,99,99,0.000000,0,2.000000,34.326118,7.335325,99,99,0,0,0,0,0
0,9999,62,0,62,0,91,9999,0.100000,99,99,29.865788,0,5.000000,26.602711,19.145970,99,99,1,0,0,0,0
0,9999,63,0,63,0,42,9999,0.100000,99,99,0.000000,0,5.000000,18.061017,17.821429,99,99,0,0,0,0,0
0,9999,64,0,64,0,40,9999,0.100000,99,99,0.000000,0,1.000000,24.983324,10.647834,99,99,0,0,0,0,0
0,9999,65,0,65,0,40,9999,0.100000,99,99,0.000000,0,2.000000,31.023083,12.938669,99,99,0,0,0,0,0
0,9999,66,0,66,0,0,9999,0.100000,99,99,1.976065,0,1.000000,16.500000,2.820953,99,99,0,1,0,0,0
0,9999,67,0,67,0,92,9999,0.100000,99,99,43.757084,0,7.000000,29.181762,22.950832,99,99,1,0,0,0,0
0,9999,68,0,68,0,40,9999,0.100000,99,99,0.000000,0,1.000000,28.764061,8.145111,99,99,0,0,0,0,0
0,9999,69,0,69,0,40,9999,0.100000,99,99,0.000000,0,1.000000,25.791770,1.881742,99,99,0,0,0,0,0
0,9999,70,0,70,0,40,9999,0.100000,99,99,0.000000,0,1.000000,22.747549,16.931261,99,99,0,0,0,0,0
0,9999,71,0,71,0,40,9999,0.100000,99,99,0.000000,0,3.000000,29.969226,10.896493,99,99,0,0,0,0,0
0,9999,72,0,72,0,91,9999,0.100000,99,99,23.086873,0,6.000000,35.911387,21.884293,99,99,1,0,0,0,0
0,9999,73,0,73,0,93,9999,0.100000,99,99,53.749616,0,9.000000,24.268847,14.407129,99,99,1,0,0,0,0
0,9999,74,0,74,0,40,9999,0.100000,99,99,0.000000,0,2.000000,23.461798,5.583910,99,99,0,0,0,0,0
0,9999,75,0,75,0,40,9999,0.100000,99,99,0.000000,0,2.000000,23.928388,4.617846,99,99,0,0,0,0,0
0,9999,76,0,76,0,41,9999,0.100000,99,99,0.000000,0,3.000000,25.081446,11.672631,99,99,0,0,0,0,0
0,9999,77,0,77,0,40,9999,0.100000,99,99,0.000000,0,2.000000,32.424317,9.020841,99,99,0,0,0,0,0
0,9999,78,0,78,0,41,9999,0.100000,99,99,0.000000,0,3.000000,25.897798,16.465484,99,99,0,0,0,0,0
0,9999,79,0,79,0,41,9999,0.100000,99,99,0.000000,0,3.000000,23.497407,9.230669,99,99,0,0,0,0,0
0,9999,80,0,80,0,40,9999,0.100000,99,99,0.000000,0,2.000000,31.741435,7.748575,99,99,0,0,0,0,0
0,9999,81,0,81,0,0,9999,0.100000,99,99,0.038746,0,2.000000,24.462711,8.322838,99,99,0,0,0,0,1
0,9999,82,0,82,0,40,9999,0.100000,99,99,0.000000,0,1.000000,15.124451,6.366353,99,99,0,0,0,0,0
0,9999,83,0,83,0,40,9999,0.100000,99,99,0.000000,0,1.000000,32.887769,6.188288,99,99,0,0,0,0,0
0,9999,84,0,84,0,40,9999,0.100000,99,99,0.000000,0,2.000000,21.161093,6.555882,99,99,0,0,0,0,0
0,9999,85,0,85,0,40,9999,0.100000,99,99,0.000000,0,1.000000,18.000625,6.982782,99,99,0,0,0,0,0
0,9999,86,0,86,0,42,9999,0.100000,99,99,0.000000,0,4.000000,18.381527,11.138214,99,99,0,0,0,0,0
0,9999,87,0,87,0,41,9999,0.100000,99,99,0.000000,0,3.000000,23.223086,14.515774,99,99,0,0,0,0,0
0,9999,88,0,88,0,47,9999,0.100000,99,99,0.000000,0,12.000000,14.891830,14.336172,99,99,0,0,0,0,0
0,9999,89,0,89,0,90,9999,0.100000,99,99,14.372794,0,2.000000,29.762591,9.181785,99,99,1,0,0,0,0
0,9999,90,0,90,0,40,9999,0.100000,99,99,0.000000,0,0.000000,26.824090,15.259086,99,99,0,0,0,0,0
0,9999,91,0,91,0,0,9999,0.100000,99,99,0.066175,0,0.000000,19.932271,3.473494,99,99,0,0,0,0,1
0,9999,92,0,92,0,1,9999,0.100000,99,99,0.817871,0,2.000000,17.723341,6.051517,99,99,0,0,0,0,1
0,9999,93,0,93,0,41,9999,0.100000,99,99,0.000000,0,4.000000,29.451735,10.065177,99,99,0,0,0,0,0
0,9999,94,0,94,0,41,9999,0.100000,99,99,0.000000,0,3.000000,16.841053,14.452154,99,99,0,0,0,0,0
0,9999,95,0,95,0,40,9999,0.100000,99,99,0.000000,0,1.000000,15.889822,5.846098,99,99,0,0,0,0,0
0,9999,96,0,96,0,40,9999,0.100000,99,99,0.000000,0,1.000000,13.911522,2.121491,99,99,0,0,0,0,0
0,9999,97,0,97,0,41,9999,0.100000,99,99,0.000000,0,4.000000,32.643321,7.436728,99,99,0,0,0,0,0
0,9999,98,0,98,0,41,9999,0.100000,99,99,0.000000,0,4.000000,20.607544,5.938198,99,99,0,0,0,0,0
0,9999,99,0,99,0,40,9999,0.100000,99,99,0.000000,0,0.000000,12.334524,1.130302,99,99,0,0,0,0,0
1,19999,0,10000,49,0,90,9999,0.100000,99,198,9.270175,1,1.000000,15.440587,2.395599,99,99,1,0,0,0,0
1,19999,1,10000,49,0,40,9999,0.100000,99,198,0.000000,1,1.000000,26.151450,18.507997,99,99,0,0,0,0,0
1,19999,2,10000,49,0,41,9999,0.100000,99,198,0.000000,1,3.000000,26.668132,12.813490,99,99,0,0,0,0,0
1,19999,3,10000,49,0,40,9999,0.100000,99,198,0.000000,1,2.000000,27.930464,18.000595,99,99,0,0,0,0,0
1,19999,4,10000,49,0,42,9999,0.100000,99,198,0.000000,1,3.000000,13.667693,14.297526,99,99,0,0,0,0,0
1,19999,5,10000,49,0,1,9999,0.100000,99,198,0.495991,1,5.000000,31.785101,15.936426,99,99,0,0,0,1,0
1,19999,6,10000,49,0,40,9999,0.100000,99,198,0.000000,1,1.000000,28.883279,16.213242,99,99,0,0,0,0,0
1,19999,7,10000,49,0,0,9999,0.100000,99,198,1.405795,1,1.000000,23.867251,7.550790,99,99,0,0,1,0,0
1,19999,8,10000,49,0,40,9999,0.100000,99,198,0.000000,1,0.000000,17.418388,22.447926,99,99,0,0,0,0,0
1,19999,9,10000,49,0,42,9999,0.100000,99,198,0.000000,1,7.000000,30.864199,17.175988,99,99,0,0,0,0,0
1,19999,10,10000,49,0,42,9999,0.100000,99,198,0.000000,1,9.000000,28.671595,19.612923,99,99,0,0,0,0,0
1,19999,11,10000,49,0,42,9999,0.100000,99,198,0.000000,1,4.000000,15.932697,17.421001,99,99,0,0,0,0,0
1,19999,12,10000,49,0,41,9999,0.100000,99,198,0.000000,1,5.000000,24.726479,29.294045,99,99,0,0,0,0,0
1,19999,13,10000,49,0,40,9999,0.100000,99,198,0.000000,1,0.000000,36.347020,0.202874,99,99,0,0,0,0,0
1,19999,14,10000,49,0,41,9999,0.100000,99,198,0.000000,1,3.000000,23.863812,15.015269,99,99,0,0,0,0,0
1,19999,15,10000,49,0,41,9999,0.100000,99,198,0.000000,1,6.000000,35.725186,18.890749,99,99,0,0,0,0,0
1,19999,16,10000,49,0,40,9999,0.100000,99,198,0.000000,1,1.000000,28.392874,8.817996,99,99,0,0,0,0,0
1,19999,17,10000,49,0,40,9999,0.100000,99,198,0.000000,1,1.000000,28.897157,16.277614,99,99,0,0,0,0,0
1,19999,18,10000,49,0,90,9999,0.100000,99,198,19.524841,1,2.000000,26.723741,22.163563,99,99,1,0,0,0,0
1,19999,19,10000,49,0,1,9999,0.100000,99,198,0.012174,1,3.000000,26.248371,9.284528,99,99,0,0,0,0,1
1,19999,20,10000,49,0,0,9999,0.100000,99,198,0.000235,1,2.000000,19.341714,4.226183,99,99,0,0,0,0,1
1,19999,21,10000,49,0,41,9999,0.100000,99,198,0.000000,1,3.000000,25.426683,18.896119,99,99,0,0,0,0,0
1,19999,22,10000,49,0,91,9999,0.100000,99,198,34.052516,1,4.000000,25.776439,20.630158,99,99,1,0,0,0,0
1,19999,23,10000,49,0,40,9999,0.100000,99,198,0.000000,1,1.000000,30.520311,17.379225,99,99,0,0,0,0,0
1,19999,24,10000,49,0,41,9999,0.100000,99,198,0.000000,1,5.000000,29.830203,16.526323,99,99,0,0,0,0,0
1,19999,25,10000,49,0,40,9999,0.100000,99,198,0.000000,1,1.000000,25.581370,14.301530,99,99,0,0,0,0,0
1,19999,26,10000,49,0,42,9999,0.100000,99,198,0.000000,1,10.000000,36.259766,23.582398,99,99,0,0,0,0,0
1,19999,27,10000,49,0,40,9999,0.100000,99,198,0.000000,1,1.000000,29.634933,4.032115,99,99,0,0,0,0,0
1,19999,28,10000,49,0,40,9999,0.100000,99,198,0.000000,1,0.000000,28.895750,0.478086,99,99,0,0,0,0,0
1,19999,29,10000,49,0,42,9999,0.100000,99,198,0.000000,1,5.000000,20.841349,21.359197,99,99,0,0,0,0,0
1,19999,30,10000,49,0,40,9999,0.100000,99,198,0.000000,1,3.000000,31.262015,17.375651,99,99,0,0,0,0,0
1,19999,31,10000,49,0,2,9999,0.100000,99,198,35.364182,1,6.000000,23.366062,13.454752,99,99,0,1,0,0,0
1,19999,32,10000,49,0,40,9999,0.100000,99,198,0.000000,1,2.000000,27.455534,15.248864,99,99,0,0,0,0,0
1,19999,33,10000,49,0,41,9999,0.100000,99,198,0.000000,1,3.000000,26.410676,19.772447,99,99,0,0,0,0,0
1,19999,34,10000,49,0,40,9999,0.100000,99,198,0.000000,1,0.000000,24.524297,1.017697,99,99,0,0,0,0,0
1,19999,35,10000,49,0,40,9999,0.100000,99,198,0.000000,1,0.000000,17.234512,13.394720,99,99,0,0,0,0,0
1,19999,36,10000,49,0,41,9999,0.100000,99,198,0.000000,1,4.000000,33.185454,16.924374,99,99,0,0,0,0,0
1,19999,37,10000,49,0,98,9999,0.100000,99,198,67.149972,1,13.000000,14.762156,22.554481,99,99,1,0,0,0,0
1,19999,38,10000,49,0,40,9999,0.100000,99,198,0.000000,1,0.000000,18.722122,4.061827,99,99,0,0,0,0,0
1,19999,39,10000,49,0,2,9999,0.100000,99,198,36.850363,1,7.000000,22.519668,7.526922,99,99,0,0,1,0,0
1,19999,40,10000,49,0,2,9999,0.100000,99,198,35.369270,1,6.000000,23.440260,21.528974,99,99,0,1,0,0,0
1,19999,41,10000,49,0,40,9999,0.100000,99,198,0.000000,1,1.000000,25.952157,16.286174,99,99,0,0,0,0,0
1,19999,42,10000,49,0,40,9999,0.100000,99,198,0.000000,1,0.000000,23.098281,1.158643,99,99,0,0,0,0,0
1,19999,43,10000,49,0,40,9999,0.100000,99,198,0.000000,1,1.000000,29.770611,3.426199,99,99,0,0,0,0,0
1,19999,44,10000,49,0,0,9999,0.100000,99,198,0.753277,1,0.000000,31.261784,0.663793,99,99,0,0,0,1,0
1,19999,45,10000,49,0,41,9999,0.100000,99,198,0.000000,1,4.000000,29.274366,11.091755,99,99,0,0,0,0,0
1,19999,46,10000,49,0,0,9999,0.100000,99,198,0.000000,1,1.000000,26.024112,12.980073,99,99,0,0,1,0,0
1,19999,47,10000,49,0,0,9999,0.100000,99,198,2.580604,1,1.000000,22.006194,2.743706,99,99,0,1,0,0,0
1,19999,48,10000,49,0,40,9999,0.100000,99,198,0.000000,1,0.000000,21.914013,15.877624,99,99,0,0,0,0,0
1,19999,49,10000,41,0,0,9999,0.100000,99,198,11.973014,1,2.000000,26.072269,3.348341,99,99,0,1,0,0,0
1,19999,50,10000,49,0,93,9999,0.100000,99,198,50.911131,1,9.000000,23.202938,12.320448,99,99,2,0,0,0,0
1,19999,51,10000,49,0,0,9999,0.100000,99,198,0.080226,1,0.000000,24.389881,0.335620,99,99,0,0,1,0,0
1,19999,52,10000,49,0,0,9999,0.100000,99,198,0.306924,1,0.000000,22.445217,15.182063,99,99,0,0,0,0,1
1,19999,53,10000,49,0,91,9999,0.100000,99,198,13.415669,1,4.000000,27.437959,17.491085,99,99,1,0,0,0,0
1,19999,54,10000,49,0,40,9999,0.135000,99,198,0.000000,1,2.000000,27.216862,17.237338,99,99,0,0,0,0,0
1,19999,55,10000,49,0,42,9999,0.100000,99,198,0.000000,1,8.000000,30.624273,19.584710,99,99,0,0,0,0,0
1,19999,56,10000,49,0,94,9999,0.100000,99,198,79.538944,1,15.000000,28.631213,20.155587,99,99,1,0,0,0,0
1,19999,57,10000,49,0,41,9999,0.100000,99,198,0.000000,1,4.000000,28.814136,17.885323,99,99,0,0,0,0,0
1,19999,58,10000,49,0,40,9999,0.100000,99,198,0.000000,1,0.000000,30.771502,0.371401,99,99,0,0,0,0,0
1,19999,59,10000,49,0,0,9999,0.100000,99,198,0.003636,1,0.000000,11.881716,0.100504,99,99,0,0,0,1,0
1,19999,60,10000,49,0,41,9999,0.100000,99,198,0.000000,1,4.000000,19.759781,22.626013,99,99,0,0,0,0,0
1,19999,61,10000,49,0,42,9999,0.100000,99,198,0.000000,1,9.000000,33.661320,20.184480,99,99,0,0,0,0,0
1,19999,62,10000,49,0,40,9999,0.100000,99,198,0.000000,1,1.000000,28.471652,14.668964,99,99,0,0,0,0,0
1,19999,63,10000,49,0,42,9999,0.100000,99,198,0.000000,1,4.000000,16.049139,14.511934,99,99,0,0,0,0,0
1,19999,64,10000,49,0,41,9999,0.100000,99,198,0.000000,1,3.000000,26.850863,18.314370,99,99,0,0,0,0,0
1,19999,65,10000,49,0,40,9999,0.100000,99,198,0.000000,1,3.000000,32.807226,17.951119,99,99,0,0,0,0,0
1,19999,66,10000,49,0,0,9999,0.100000,99,198,0.171787,1,0.000000,17.545112,0.628597,99,99,0,1,0,0,0
1,19999,67,10000,49,0,40,9999,0.100000,99,198,0.000000,1,0.000000,32.206084,3.930013,99,99,0,0,0,0,0
1,19999,68,10000,49,0,40,9999,0.100000,99,198,0.000000,1,3.000000,29.953044,19.886253,99,99,0,0,0,0,0
1,19999,69,10000,49,0,40,9999,0.100000,99,198,0.000000,1,0.000000,24.582513,0.510999,99,99,0,0,0,0,0
1,19999,70,10000,49,0,40,9999,0.100000,99,198,0.000000,1,1.000000,23.397826,13.109512,99,99,0,0,0,0,0
1,19999,71,10000,49,0,40,9999,0.100000,99,198,0.000000,1,2.000000,30.051680,17.162159,99,99,0,0,0,0,0
1,19999,72,10000,49,0,40,9999,0.100000,99,198,0.000000,1,2.000000,30.022917,17.980185,99,99,0,0,0,0,0
1,19999,73,10000,49,0,41,9999,0.100000,99,198,0.000000,1,5.000000,31.759771,21.342366,99,99,0,0,0,0,0
1,19999,74,10000,49,0,40,9999,0.100000,99,198,0.000000,1,0.000000,21.652899,0.906315,99,99,0,0,0,0,0
1,19999,75,10000,49,0,40,9999,0.100000,99,198,0.000000,1,0.000000,24.706154,0.811769,99,99,0,0,0,0,0
1,19999,76,10000,49,0,40,9999,0.100000,99,198,0.000000,1,2.000000,22.405394,6.503871,99,99,0,0,0,0,0
1,19999,77,10000,49,0,40,9999,0.100000,99,198,0.000000,1,3.000000,33.113630,17.909282,99,99,0,0,0,0,0
1,19999,78,10000,49,0,41,9999,0.100000,99,198,0.000000,1,4.000000,23.435704,18.304877,99,99,0,0,0,0,0
1,19999,79,10000,49,0,42,9999,0.100000,99,198,0.000000,1,6.000000,22.430824,7.083473,99,99,0,0,0,0,0
1,19999,80,10000,49,0,40,9999,0.100000,99,198,0.000000,1,1.000000,30.433243,16.388058,99,99,0,0,0,0,0
1,19999,81,10000,49,0,40,9999,0.100000,99,198,0.000000,1,0.000000,26.818191,0.757206,99,99,0,0,0,0,0
1,19999,82,10000,49,0,2,9999,0.100000,99,198,0.018802,1,4.000000,16.486952,7.265734,99,99,0,0,0,0,1
1,19999,83,10000,49,0,40,9999,0.100000,99,198,0.000000,1,3.000000,31.468195,19.640742,99,99,0,0,0,0,0
1,19999,84,10000,49,0,40,9999,0.100000,99,198,0.000000,1,2.000000,19.295196,4.440477,99,99,0,0,0,0,0
1,19999,85,10000,49,0,40,9999,0.100000,99,198,0.000000,1,0.000000,19.298582,0.468643,99,99,0,0,0,0,0
1,19999,86,10000,49,0,98,9999,0.100000,99,198,68.804707,1,13.000000,15.157719,22.211151,99,99,1,0,0,0,0
1,19999,87,10000,49,0,40,9999,0.100000,99,198,0.000000,1,1.000000,24.112692,15.862099,99,99,0,0,0,0,0
1,19999,88,10000,49,0,40,9999,0.100000,99,198,0.000000,1,2.000000,26.153015,3.628133,99,99,0,0,0,0,0
1,19999,89,10000,49,0,91,9999,0.100000,99,198,7.369262,1,4.000000,32.415210,19.759701,99,99,1,0,0,0,0
1,19999,90,10000,49,0,96,9999,0.100000,99,198,48.537319,1,17.000000,26.380454,26.890230,99,99,1,0,0,0,0
1,19999,91,10000,49,0,40,9999,0.100000,99,198,0.000000,1,0.000000,20.808445,0.247276,99,99,0,0,0,0,0
1,19999,92,10000,49,0,40,9999,0.100000,99,198,0.000000,1,0.000000,18.837469,0.996811,99,99,0,0,0,0,0
1,19999,93,10000,49,0,40,9999,0.100000,99,198,0.000000,1,0.000000,26.691854,2.490760,99,99,0,0,0,0,0
1,19999,94,10000,49,0,40,9999,0.100000,99,198,0.000000,1,2.000000,20.003152,6.481223,99,99,0,0,0,0,0
1,19999,95,10000,49,0,40,9999,0.100000,99,198,0.000000,1,0.000000,16.671115,1.704299,99,99,0,0,0,0,0
1,19999,96,10000,49,0,43,9999,0.100000,99,198,0.000000,1,5.000000,12.207044,12.369546,99,99,0,0,0,0,0
1,19999,97,10000,49,0,40,9999,0.100000,99,198,0.000000,1,0.000000,30.933861,0.236561,99,99,0,0,0,0,0
1,19999,98,10000,49,0,42,9999,0.100000,99,198,0.000000,1,7.000000,22.480964,7.269258,99,99,0,0,0,0,0
1,19999,99,10000,49,0,40,9999,0.100000,99,198,0.000000,1,0.000000,12.125027,0.119801,99,99,0,0,0,0,0
2,29999,0,20000,56,10000,93,9999,0.100000,99,297,31.615693,1,6.000000,17.144592,6.311599,99,99,1,0,0,0,0
2,29999,1,20000,56,10000,40,9999,0.100000,99,297,0.000000,1,2.000000,25.982147,15.646269,99,99,0,0,0,0,0
2,29999,2,20000,56,10000,40,9999,0.100000,99,297,0.000000,2,2.000000,24.409791,10.633956,99,99,0,0,0,0,0
2,29999,3,20000,56,10000,40,9999,0.100000,99,297,0.000000,2,1.000000,27.295282,21.018030,99,99,0,0,0,0,0
2,29999,4,20000,56,10000,41,9999,0.100000,99,297,0.000000,2,3.000000,16.354321,12.961778,99,99,0,0,0,0,0
2,29999,5,20000,56,10000,40,9999,0.100000,99,297,0.000000,2,2.000000,28.858266,21.472664,99,99,0,0,0,0,0
2,29999,6,20000,56,10000,40,9999,0.100000,99,297,0.000000,2,2.000000,29.924985,18.120566,99,99,0,0,0,0,0
2,29999,7,20000,56,10000,0,9999,0.100000,99,297,4.212610,2,1.000000,24.777955,1.553862,99,99,0,0,1,0,0
2,29999,8,20000,56,10000,42,9999,0.100000,99,297,0.000000,2,5.000000,17.488995,18.884710,99,99,0,0,0,0,0
2,29999,9,20000,56,10000,40,9999,0.135000,99,297,0.000000,2,2.000000,26.386932,16.763460,99,99,0,0,0,0,0
2,29999,10,20000,56,10000,40,9999,0.100000,99,297,0.000000,2,0.000000,28.061539,1.573251,99,99,0,0,0,0,0
2,29999,11,20000,56,10000,40,9999,0.100000,99,297,0.000000,2,1.000000,16.552170,15.042636,99,99,0,0,0,0,0
2,29999,12,20000,56,10000,40,9999,0.100000,99,297,0.000000,1,1.000000,25.323025,8.475517,99,99,0,0,0,0,0
2,29999,13,20000,56,10000,40,9999,0.100000,99,297,0.000000,2,0.000000,36.347618,0.206304,99,99,0,0,0,0,0
2,29999,14,20000,56,10000,40,9999,0.100000,99,297,0.000000,2,2.000000,24.164851,10.208670,99,99,0,0,0,0,0
2,29999,15,20000,56,10000,44,9999,0.100000,99,297,0.000000,2,13.000000,29.810256,15.833976,99,99,0,0,0,0,0
2,29999,16,20000,56,10000,40,9999,0.100000,99,297,0.000000,2,0.000000,29.509707,13.090910,99,99,0,0,0,0,0
2,29999,17,20000,56,10000,1,9999,0.100000,99,297,27.548258,2,5.000000,27.406329,9.776075,99,99,0,0,0,1,0
2,29999,18,20000,56,10000,40,9999,0.100000,99,297,0.000000,2,2.000000,25.813762,16.621008,99,99,0,0,0,0,0
2,29999,19,20000,56,10000,0,9999,0.100000,99,297,0.312498,2,0.000000,27.874820,0.748277,99,99,0,0,0,0,1
2,29999,20,20000,56,10000,0,9999,0.100000,99,297,0.001863,2,0.000000,17.642663,0.056871,99,99,0,0,0,0,1
2,29999,21,20000,56,10000,42,9999,0.100000,99,297,0.000000,1,6.000000,25.583680,22.531198,99,99,0,0,0,0,0
2,29999,22,20000,56,10000,41,9999,0.100000,99,297,0.000000,2,4.000000,26.634589,11.040425,99,99,0,0,0,0,0
2,29999,23,20000,56,10000,42,9999,0.100000,99,297,0.000000,1,8.000000,29.927288,17.177709,99,99,0,0,0,0,0
2,29999,24,20000,56,10000,41,9999,0.100000,99,297,0.000000,2,3.000000,25.671479,14.011920,99,99,0,0,0,0,0
2,29999,25,20000,56,10000,40,9999,0.100000,99,297,0.000000,2,1.000000,25.177349,6.540037,99,99,0,0,0,0,0
2,29999,26,20000,56,10000,41,9999,0.100000,99,297,0.000000,2,3.000000,27.701710,13.538577,99,99,0,0,0,0,0
2,29999,27,20000,56,10000,0,9999,0.100000,99,297,2.175005,1,0.000000,30.476670,1.821691,99,99,0,0,1,0,0
2,29999,28,20000,56,10000,40,9999,0.100000,99,297,0.000000,1,0.000000,28.900300,0.561806,99,99,0,0,0,0,0
2,29999,29,20000,56,10000,41,9999,0.100000,99,297,0.000000,2,3.000000,17.032321,10.159441,99,99,0,0,0,0,0
2,29999,30,20000,56,10000,41,9999,0.100000,99,297,0.000000,2,3.000000,28.316049,15.276620,99,99,0,0,0,0,0
2,29999,31,20000,56,10000,41,9999,0.100000,99,297,0.000000,2,3.000000,27.578186,19.388626,99,99,0,0,0,0,0
2,29999,32,20000,56,10000,41,9999,0.100000,99,297,0.000000,1,3.000000,27.049629,16.701650,99,99,0,0,0,0,0
2,29999,33,20000,56,10000,40,9999,0.100000,99,297,0.000000,2,2.000000,25.532314,13.624474,99,99,0,0,0,0,0
2,29999,34,20000,56,10000,40,9999,0.100000,99,297,0.000000,2,0.000000,24.285365,1.269662,99,99,0,0,0,0,0
2,29999,35,20000,56,10000,2,9999,0.100000,99,297,25.504190,2,4.000000,17.761905,6.524158,99,99,0,1,0,0,0
2,29999,36,20000,56,10000,40,9999,0.100000,99,297,0.000000,2,1.000000,29.531264,16.822404,99,99,0,0,0,0,0
2,29999,37,20000,56,10000,40,9999,0.100000,99,297,0.000000,2,2.000000,25.221216,5.608950,99,99,0,0,0,0,0
2,29999,38,20000,56,10000,0,9999,0.100000,99,297,0.019274,2,0.000000,18.963171,0.911963,99,99,0,0,0,0,1
2,29999,39,20000,56,10000,2,9999,0.100000,99,297,33.052013,2,6.000000,27.345693,9.083247,99,99,0,0,1,0,0
2,29999,40,20000,56,10000,41,9999,0.100000,99,297,0.000000,2,3.000000,28.238792,15.405817,99,99,0,0,0,0,0
2,29999,41,20000,56,10000,40,9999,0.100000,99,297,0.000000,2,1.000000,26.439690,18.005102,99,99,0,0,0,0,0
2,29999,42,20000,56,10000,40,9999,0.100000,99,297,0.000000,1,0.000000,23.025516,0.356542,99,99,0,0,0,0,0
2,29999,43,20000,56,10000,40,9999,0.100000,99,297,0.000000,1,0.000000,30.515802,0.968290,99,99,0,0,0,0,0
2,29999,44,20000,56,10000,0,9999,0.100000,99,297,0.688320,1,0.000000,31.157702,0.697821,99,99,0,0,0,1,0
2,29999,45,20000,56,10000,40,9999,0.100000,99,297,0.000000,2,0.000000,30.698210,0.952173,99,99,0,0,0,0,0
2,29999,46,20000,56,10000,40,9999,0.100000,99,297,0.000000,2,2.000000,24.409842,16.230566,99,99,0,0,0,0,0
2,29999,47,20000,56,10000,4,9999,0.100000,99,297,56.966234,1,10.000000,23.616002,11.687546,99,99,0,1,0,0,0
2,29999,48,20000,56,10000,40,9999,0.100000,99,297,0.000000,1,0.000000,21.600278,1.274884,99,99,0,0,0,0,0
2,29999,49,20000,56,10000,41,9999,0.100000,99,297,0.000000,2,4.000000,28.444347,12.827774,99,99,0,0,0,0,0
2,29999,50,20000,56,10000,93,9999,0.100000,99,297,18.441611,1,10.000000,29.928566,12.650709,99,99,1,0,0,0,0
2,29999,51,20000,56,10000,0,9999,0.100000,99,297,0.201915,1,0.000000,24.137724,0.278574,99,99,0,0,1,0,0
2,29999,52,20000,56,10000,0,9999,0.100000,99,297,0.565360,2,0.000000,21.822403,0.293978,99,99,0,0,0,0,1
2,29999,53,20000,56,10000,40,9999,0.100000,99,297,0.000000,2,3.000000,29.015149,16.831633,99,99,0,0,0,0,0
2,29999,54,20000,56,10000,41,9999,0.100000,99,297,0.000000,1,4.000000,27.224787,16.935299,99,99,0,0,0,0,0
2,29999,55,20000,56,10000,40,9999,0.100000,99,297,0.000000,2,2.000000,31.062531,19.298667,99,99,0,0,0,0,0
2,29999,56,20000,86,10000,40,9999,0.100000,99,297,0.000000,2,1.000000,36.041584,3.676542,99,99,0,0,0,0,0
2,29999,57,20000,56,10000,40,9999,0.100000,99,297,0.000000,2,2.000000,27.781190,19.811522,99,99,0,0,0,0,0
2,29999,58,20000,56,10000,40,9999,0.100000,99,297,0.000000,1,0.000000,30.725316,0.573620,99,99,0,0,0,0,0
2,29999,59,20000,56,10000,0,9999,0.100000,99,297,0.047134,1,0.000000,11.881361,0.139355,99,99,0,0,0,1,0
2,29999,60,20000,56,10000,40,9999,0.100000,99,297,0.000000,2,1.000000,17.575419,8.241447,99,99,0,0,0,0,0
2,29999,61,20000,56,10000,41,9999,0.100000,99,297,0.000000,2,3.000000,27.628056,13.448714,99,99,0,0,0,0,0
2,29999,62,20000,56,10000,1,9999,0.100000,99,297,21.091703,2,4.000000,28.231805,10.769146,99,99,0,0,0,1,0
2,29999,63,20000,56,10000,42,9999,0.100000,99,297,0.000000,1,4.000000,16.549858,9.061057,99,99,0,0,0,0,0
2,29999,64,20000,56,10000,40,9999,0.100000,99,297,0.000000,2,2.000000,25.948973,18.202073,99,99,0,0,0,0,0
2,29999,65,20000,56,10000,40,9999,0.100000,99,297,0.000000,1,2.000000,30.042594,20.503895,99,99,0,0,0,0,0
2,29999,66,20000,56,10000,42,9999,0.100000,99,297,0.000000,1,4.000000,17.806317,5.315796,99,99,0,0,0,0,0
2,29999,67,20000,56,10000,40,9999,0.100000,99,297,0.000000,2,0.000000,31.317963,3.128375,99,99,0,0,0,0,0
2,29999,68,20000,56,10000,41,9999,0.100000,99,297,0.000000,2,4.000000,27.667466,20.718829,99,99,0,0,0,0,0
2,29999,69,20000,56,10000,40,9999,0.100000,99,297,0.000000,1,0.000000,24.348964,0.436115,99,99,0,0,0,0,0
2,29999,70,20000,56,10000,40,9999,0.100000,99,297,0.000000,1,1.000000,23.129025,13.287633,99,99,0,0,0,0,0
2,29999,71,20000,56,10000,42,9999,0.100000,99,297,0.000000,1,7.000000,28.983887,12.890316,99,99,0,0,0,0,0
2,29999,72,20000,56,10000,1,9999,0.100000,99,297,25.191012,2,4.000000,29.792229,15.477221,99,99,0,0,0,1,0
2,29999,73,20000,56,10000,42,9999,0.100000,99,297,0.000000,2,8.000000,26.985907,22.032339,99,99,0,0,0,0,0
2,29999,74,20000,56,10000,40,9999,0.100000,99,297,0.000000,1,0.000000,21.590672,0.599256,99,99,0,0,0,0,0
2,29999,75,20000,56,10000,40,9999,0.100000,99,297,0.000000,1,0.000000,24.469666,0.850875,99,99,0,0,0,0,0
2,29999,76,20000,56,10000,44,9999,0.100000,99,297,0.000000,2,11.000000,23.359486,11.911057,99,99,0,0,0,0,0
2,29999,77,20000,56,10000,40,9999,0.100000,99,297,0.000000,1,1.000000,30.804727,18.707449,99,99,0,0,0,0,0
2,29999,78,20000,56,10000,40,9999,0.100000,99,297,0.000000,2,0.000000,18.512640,6.018979,99,99,0,0,0,0,0
2,29999,79,20000,56,10000,2,9999,0.100000,99,297,33.051591,2,6.000000,27.014741,10.757050,99,99,0,0,1,0,0
2,29999,80,20000,56,10000,42,9999,0.100000,99,297,0.000000,1,8.000000,30.029487,17.248831,99,99,0,0,0,0,0
2,29999,81,20000,56,10000,40,9999,0.100000,99,297,0.000000,2,0.000000,27.005570,0.674729,99,99,0,0,0,0,0
2,29999,82,20000,56,10000,40,9999,0.100000,99,297,0.000000,2,0.000000,19.893230,0.091484,99,99,0,0,0,0,0
2,29999,83,20000,56,10000,40,9999,0.100000,99,297,0.000000,1,3.000000,31.709155,12.603662,99,99,0,0,0,0,0
2,29999,84,20000,56,10000,40,9999,0.100000,99,297,0.000000,2,0.000000,17.383393,0.082671,99,99,0,0,0,0,0
2,29999,85,20000,56,10000,40,9999,0.100000,99,297,0.000000,1,0.000000,19.435340,0.151923,99,99,0,0,0,0,0
2,29999,86,20000,56,10000,40,9999,0.100000,99,297,0.000000,2,1.000000,28.023374,5.208155,99,99,0,0,0,0,0
2,29999,87,20000,56,10000,40,9999,0.100000,99,297,0.000000,2,0.000000,24.528826,1.328656,99,99,0,0,0,0,0
2,29999,88,20000,56,10000,41,9999,0.100000,99,297,0.000000,2,5.000000,28.526700,11.774575,99,99,0,0,0,0,0
2,29999,89,20000,56,10000,1,9999,0.100000,99,297,21.069695,2,4.000000,28.899513,17.802848,99,99,0,0,0,1,0
2,29999,90,20000,56,10000,40,9999,0.100000,99,297,0.000000,2,2.000000,32.067790,13.412406,99,99,0,0,0,0,0
2,29999,91,20000,56,10000,40,9999,0.100000,99,297,0.000000,2,0.000000,20.890520,0.197104,99,99,0,0,0,0,0
2,29999,92,20000,56,10000,40,9999,0.100000,99,297,0.000000,2,0.000000,18.982524,0.182792,99,99,0,0,0,0,0
2,29999,93,20000,56,10000,40,9999,0.100000,99,297,0.000000,2,0.000000,27.456732,0.191462,99,99,0,0,0,0,0
2,29999,94,20000,56,10000,40,9999,0.100000,99,297,0.000000,2,0.000000,21.962492,0.367613,99,99,0,0,0,0,0
2,29999,95,20000,56,10000,40,9999,0.100000,99,297,0.000000,1,0.000000,16.672023,0.061153,99,99,0,0,0,0,0
2,29999,96,20000,56,10000,40,9999,0.100000,99,297,0.000000,2,0.000000,17.154518,0.171641,99,99,0,0,0,0,0
2,29999,97,20000,56,10000,40,9999,0.100000,99,297,0.000000,2,0.000000,30.863273,0.240882,99,99,0,0,0,0,0
2,29999,98,20000,56,10000,2,9999,0.100000,99,297,33.052013,2,6.000000,27.192442,9.921486,99,99,0,0,1,0,0
2,29999,99,20000,56,10000,40,9999,0.100000,99,297,0.000000,1,0.000000,12.124555,0.161409,99,99,0,0,0,0,0
3,39999,0,30000,47,20000,92,9999,0.100000,99,396,27.409874,2,5.000000,23.157968,15.168921,99,99,1,0,0,0,0
3,39999,1,30000,47,20000,40,9999,0.100000,99,396,0.000000,1,1.000000,25.834189,12.570053,99,99,0,0,0,0,0
3,39999,2,30000,47,20000,42,9999,0.100000,99,396,0.000000,2,7.000000,23.539371,19.020401,99,99,0,0,0,0,0
3,39999,3,30000,47,20000,91,9999,0.100000,99,396,36.244929,2,5.000000,27.687767,16.888692,99,99,1,0,0,0,0
3,39999,4,30000,47,20000,40,9999,0.100000,99,396,0.000000,2,1.000000,16.879087,10.789887,99,99,0,0,0,0,0
3,39999,5,30000,47,20000,40,9999,0.100000,99,396,0.000000,2,1.000000,28.987508,14.713835,99,99,0,0,0,0,0
3,39999,6,30000,47,20000,42,9999,0.100000,99,396,0.000000,2,6.000000,27.803378,13.102508,99,99,0,0,0,0,0
3,39999,7,30000,47,20000,1,9999,0.100000,99,396,0.302016,2,3.000000,24.830062,5.387523,99,99,0,0,1,0,0
3,39999,8,30000,47,20000,42,9999,0.100000,99,396,0.000000,3,5.000000,22.501040,10.567036,99,99,0,0,0,0,0
3,39999,9,30000,47,20000,40,9999,0.100000,99,396,0.000000,3,1.000000,26.154859,5.795854,99,99,0,0,0,0,0
3,39999,10,30000,47,20000,0,9999,0.100000,99,396,0.280584,2,0.000000,27.895305,1.213987,99,99,0,0,0,0,1
3,39999,11,30000,47,20000,41,9999,0.100000,99,396,0.000000,2,3.000000,18.015093,18.970605,99,99,0,0,0,0,0
3,39999,12,30000,47,20000,40,9999,0.100000,99,396,0.000000,2,2.000000,24.724400,14.087424,99,99,0,0,0,0,0
3,39999,13,30000,47,20000,40,9999,0.100000,99,396,0.000000,2,0.000000,36.347523,0.204507,99,99,0,0,0,0,0
3,39999,14,30000,47,20000,0,9999,0.100000,99,396,3.076638,2,0.000000,22.936649,1.245942,99,99,0,1,0,0,0
3,39999,15,30000,47,20000,40,9999,0.100000,99,396,0.000000,3,0.000000,25.723765,1.015461,99,99,0,0,0,0,0
3,39999,16,30000,47,20000,40,9999,0.100000,99,396,0.000000,2,0.000000,29.528256,13.248658,99,99,0,0,0,0,0
3,39999,17,30000,47,20000,42,9999,0.100000,99,396,3.174691,3,7.000000,32.034434,16.281125,99,99,0,0,0,0,0
3,39999,18,30000,47,20000,41,9999,0.100000,99,396,0.000000,3,3.000000,27.598482,15.089603,99,99,0,0,0,0,0
3,39999,19,30000,47,20000,40,9999,0.100000,99,396,0.000000,3,0.000000,27.899195,1.179237,99,99,0,0,0,0,0
3,39999,20,30000,47,20000,0,9999,0.100000,99,396,0.217787,3,0.000000,17.642024,0.110191,99,99,0,0,0,0,1
3,39999,21,30000,47,20000,40,9999,0.100000,99,396,0.000000,1,1.000000,30.219249,1.856061,99,99,0,0,0,0,0
3,39999,22,30000,47,20000,40,9999,0.100000,99,396,0.000000,3,1.000000,23.406290,10.442355,99,99,0,0,0,0,0
3,39999,23,30000,47,20000,41,9999,0.100000,99,396,0.000000,2,5.000000,26.163367,14.042084,99,99,0,0,0,0,0
3,39999,24,30000,47,20000,40,9999,0.100000,99,396,0.000000,2,0.000000,23.532005,1.924868,99,99,0,0,0,0,0
3,39999,25,30000,47,20000,40,9999,0.100000,99,396,0.000000,2,0.000000,26.926003,1.277941,99,99,0,0,0,0,0
3,39999,26,30000,47,20000,40,9999,0.100000,99,396,0.000000,3,3.000000,28.620747,16.574190,99,99,0,0,0,0,0
3,39999,27,30000,47,20000,0,9999,0.100000,99,396,2.594711,2,0.000000,30.837325,0.771190,99,99,0,0,1,0,0
3,39999,28,30000,47,20000,40,9999,0.100000,99,396,0.000000,1,0.000000,28.915419,0.615386,99,99,0,0,0,0,0
3,39999,29,30000,47,20000,40,9999,0.100000,99,396,0.000000,3,1.000000,15.504757,4.681289,99,99,0,0,0,0,0
3,39999,30,30000,47,20000,40,9999,0.100000,99,396,0.000000,2,2.000000,26.960720,11.828742,99,99,0,0,0,0,0
3,39999,31,30000,47,20000,40,9999,0.100000,99,396,0.000000,3,1.000000,26.909407,12.872287,99,99,0,0,0,0,0
3,39999,32,30000,47,20000,41,9999,0.100000,99,396,0.000000,2,4.000000,23.787712,14.579091,99,99,0,0,0,0,0
3,39999,33,30000,47,20000,40,9999,0.100000,99,396,0.000000,2,1.000000,23.589346,10.555418,99,99,0,0,0,0,0
3,39999,34,30000,47,20000,41,9999,0.100000,99,396,0.000000,2,3.000000,24.322316,5.478990,99,99,0,0,0,0,0
3,39999,35,30000,47,20000,2,9999,0.100000,99,396,30.575883,3,6.000000,22.450105,10.233457,99,99,0,1,0,0,0
3,39999,36,30000,47,20000,40,9999,0.100000,99,396,0.000000,2,2.000000,29.139215,13.914904,99,99,0,0,0,0,0
3,39999,37,30000,47,20000,40,9999,0.100000,99,396,0.000000,3,1.000000,26.389017,6.116534,99,99,0,0,0,0,0
3,39999,38,30000,47,20000,0,9999,0.100000,99,396,0.030860,3,0.000000,19.194299,0.095751,99,99,0,0,0,0,1
3,39999,39,30000,47,20000,41,9999,0.100000,99,396,0.000000,2,5.000000,33.443836,11.289972,99,99,0,0,0,0,0
3,39999,40,30000,47,20000,40,9999,0.100000,99,396,0.000000,2,1.000000,25.176143,11.384989,99,99,0,0,0,0,0
3,39999,41,30000,47,20000,40,9999,0.100000,99,396,0.000000,2,2.000000,25.967120,7.768664,99,99,0,0,0,0,0
3,39999,42,30000,47,20000,40,9999,0.100000,99,396,0.000000,1,0.000000,23.121430,0.573871,99,99,0,0,0,0,0
3,39999,43,30000,47,20000,40,9999,0.100000,99,396,0.000000,1,0.000000,30.684311,0.771577,99,99,0,0,0,0,0
3,39999,44,30000,47,20000,0,9999,0.100000,99,396,0.414459,1,0.000000,31.082386,0.618545,99,99,0,0,0,1,0
3,39999,45,30000,47,20000,40,9999,0.100000,99,396,0.000000,2,0.000000,30.686917,0.873334,99,99,0,0,0,0,0
3,39999,46,30000,47,20000,40,9999,0.100000,99,396,0.000000,3,1.000000,23.770779,7.089558,99,99,0,0,0,0,0
3,39999,47,30000,39,20000,40,9999,0.100000,99,396,0.000000,2,3.000000,31.695629,7.926425,99,99,0,0,0,0,0
3,39999,48,30000,47,20000,40,9999,0.100000,99,396,0.000000,1,0.000000,21.572559,0.920949,99,99,0,0,0,0,0
3,39999,49,30000,47,20000,40,9999,0.100000,99,396,0.000000,3,2.000000,26.321397,9.122520,99,99,0,0,0,0,0
3,39999,50,30000,47,20000,90,9999,0.100000,99,396,2.440022,1,0.000000,33.953969,3.760568,99,99,1,0,0,0,0
3,39999,51,30000,47,20000,0,9999,0.100000,99,396,2.059010,1,0.000000,23.948469,0.561176,99,99,0,0,1,0,0
3,39999,52,30000,47,20000,0,9999,0.100000,99,396,0.406786,2,0.000000,21.910880,0.219368,99,99,0,0,0,0,1
3,39999,53,30000,47,20000,40,9999,0.100000,99,396,0.000000,3,1.000000,29.282467,10.698849,99,99,0,0,0,0,0
3,39999,54,30000,47,20000,41,9999,0.100000,99,396,0.000000,2,5.000000,27.983773,16.825913,99,99,0,0,0,0,0
3,39999,55,30000,47,20000,40,9999,0.100000,99,396,0.000000,3,1.000000,28.743189,12.682466,99,99,0,0,0,0,0
3,39999,56,30000,47,20000,40,9999,0.100000,99,396,0.000000,2,3.000000,35.661830,5.960424,99,99,0,0,0,0,0
3,39999,57,30000,47,20000,40,9999,0.100000,99,396,0.000000,3,1.000000,26.005187,11.438063,99,99,0,0,0,0,0
3,39999,58,30000,47,20000,40,9999,0.100000,99,396,0.000000,1,0.000000,30.720558,0.426161,99,99,0,0,0,0,0
3,39999,59,30000,47,20000,0,9999,0.100000,99,396,0.061737,1,0.000000,11.873628,0.349979,99,99,0,0,0,1,0
3,39999,60,30000,47,20000,40,9999,0.100000,99,396,0.000000,2,0.000000,17.386800,5.671735,99,99,0,0,0,0,0
3,39999,61,30000,47,20000,40,9999,0.100000,99,396,0.000000,2,3.000000,28.508597,16.626633,99,99,0,0,0,0,0
3,39999,62,30000,47,20000,41,9999,0.100000,99,396,0.000000,3,4.000000,32.141144,15.635228,99,99,0,0,0,0,0
3,39999,63,30000,47,20000,40,9999,0.100000,99,396,0.000000,2,0.000000,12.399653,1.169401,99,99,0,0,0,0,0
3,39999,64,30000,47,20000,40,9999,0.100000,99,396,0.000000,2,0.000000,25.972774,14.598160,99,99,0,0,0,0,0
3,39999,65,30000,47,20000,40,9999,0.100000,99,396,0.000000,1,1.000000,28.779876,12.708640,99,99,0,0,0,0,0
3,39999,66,30000,47,20000,2,9999,0.100000,99,396,30.645597,2,6.000000,22.482139,10.195160,99,99,0,1,0,0,0
3,39999,67,30000,47,20000,40,9999,0.100000,99,396,0.000000,2,0.000000,31.235999,3.151978,99,99,0,0,0,0,0
3,39999,68,30000,47,20000,40,9999,0.100000,99,396,0.000000,2,2.000000,28.285292,15.424890,99,99,0,0,0,0,0
3,39999,69,30000,47,20000,40,9999,0.100000,99,396,0.000000,1,0.000000,24.159940,0.629822,99,99,0,0,0,0,0
3,39999,70,30000,47,20000,40,9999,0.100000,99,396,0.000000,1,2.000000,24.241645,14.934759,99,99,0,0,0,0,0
3,39999,71,30000,47,20000,40,9999,0.100000,99,396,0.000000,2,2.000000,35.958782,10.998219,99,99,0,0,0,0,0
3,39999,72,30000,47,20000,40,9999,0.100000,99,396,0.000000,3,2.000000,31.618201,11.585460,99,99,0,0,0,0,0
3,39999,73,30000,47,20000,41,9999,0.100000,99,396,0.000000,3,4.000000,23.524546,8.206447,99,99,0,0,0,0,0
3,39999,74,30000,47,20000,40,9999,0.100000,99,396,0.000000,1,0.000000,21.625893,0.458399,99,99,0,0,0,0,0
3,39999,75,30000,47,20000,40,9999,0.100000,99,396,0.000000,1,0.000000,24.282092,0.878822,99,99,0,0,0,0,0
3,39999,76,30000,47,20000,40,9999,0.100000,99,396,0.000000,3,3.000000,31.569320,12.597872,99,99,0,0,0,0,0
3,39999,77,30000,47,20000,40,9999,0.065000,99,396,0.000000,1,1.000000,29.443576,13.854512,99,99,0,0,0,0,0
3,39999,78,30000,47,20000,40,9999,0.100000,99,396,0.000000,3,2.000000,19.176194,16.150271,99,99,0,0,0,0,0
3,39999,79,30000,47,20000,40,9999,0.100000,99,396,0.000000,3,3.000000,32.088977,15.277046,99,99,0,0,0,0,0
3,39999,80,30000,47,20000,40,9999,0.100000,99,396,0.000000,2,1.000000,26.070523,14.791161,99,99,0,0,0,0,0
3,39999,81,30000,47,20000,40,9999,0.100000,99,396,0.000000,2,0.000000,27.031981,0.819770,99,99,0,0,0,0,0
3,39999,82,30000,47,20000,40,9999,0.100000,99,396,0.000000,2,0.000000,19.889797,0.092255,99,99,0,0,0,0,0
3,39999,83,30000,47,20000,40,9999,0.100000,99,396,0.000000,1,2.000000,29.467665,5.268285,99,99,0,0,0,0,0
3,39999,84,30000,47,20000,40,9999,0.100000,99,396,0.000000,2,0.000000,17.382803,0.120037,99,99,0,0,0,0,0
3,39999,85,30000,47,20000,40,9999,0.100000,99,396,0.000000,1,0.000000,19.432803,0.176071,99,99,0,0,0,0,0
3,39999,86,30000,47,20000,40,9999,0.100000,99,396,0.000000,3,1.000000,26.524086,4.651112,99,99,0,0,0,0,0
3,39999,87,30000,47,20000,41,9999,0.100000,99,396,0.000000,2,3.000000,24.577124,5.320637,99,99,0,0,0,0,0
3,39999,88,30000,47,20000,40,9999,0.100000,99,396,0.000000,3,2.000000,26.126160,13.062994,99,99,0,0,0,0,0
3,39999,89,30000,47,20000,40,9999,0.100000,99,396,0.000000,3,1.000000,32.333543,7.027221,99,99,0,0,0,0,0
3,39999,90,30000,47,20000,40,9999,0.100000,99,396,0.000000,2,1.000000,30.282439,15.395338,99,99,0,0,0,0,0
3,39999,91,30000,47,20000,40,9999,0.100000,99,396,0.000000,2,0.000000,20.957545,0.161056,99,99,0,0,0,0,0
3,39999,92,30000,47,20000,40,9999,0.100000,99,396,0.000000,2,0.000000,18.977636,0.088091,99,99,0,0,0,0,0
3,39999,93,30000,47,20000,40,9999,0.100000,99,396,0.000000,2,0.000000,27.481936,0.215252,99,99,0,0,0,0,0
3,39999,94,30000,47,20000,40,9999,0.100000,99,396,0.000000,2,0.000000,21.866232,0.541415,99,99,0,0,0,0,0
3,39999,95,30000,47,20000,40,9999,0.100000,99,396,0.000000,1,0.000000,16.671778,0.902409,99,99,0,0,0,0,0
3,39999,96,30000,47,20000,40,9999,0.100000,99,396,0.000000,2,0.000000,17.154070,0.176598,99,99,0,0,0,0,0
3,39999,97,30000,47,20000,40,9999,0.100000,99,396,0.000000,2,0.000000,30.833743,0.198312,99,99,0,0,0,0,0
3,39999,98,30000,47,20000,40,9999,0.100000,99,396,0.000000,3,2.000000,32.640033,16.081446,99,99,0,0,0,0,0
3,39999,99,30000,47,20000,40,9999,0.100000,99,396,0.000000,1,0.000000,12.115162,0.404016,99,99,0,0,0,0,0
4,49999,0,40000,3,30000,41,9999,0.100000,99,495,0.000000,3,3.000000,27.671615,10.235953,99,99,0,0,0,0,0
4,49999,1,40000,3,30000,40,9999,0.100000,99,495,0.000000,1,2.000000,24.578005,13.184507,99,99,0,0,0,0,0
4,49999,2,40000,3,30000,40,9999,0.100000,99,495,0.000000,3,0.000000,30.529053,0.136024,99,99,0,0,0,0,0
4,49999,3,40000,66,30000,40,9999,0.100000,99,495,0.000000,3,2.000000,30.128078,13.577219,99,99,0,0,0,0,0
4,49999,4,40000,3,30000,41,9999,0.100000,99,495,0.000000,3,2.000000,16.699272,15.478150,99,99,0,0,0,0,0
4,49999,5,40000,3,30000,40,9999,0.100000,99,495,0.000000,2,2.000000,27.717102,14.167245,99,99,0,0,0,0,0
4,49999,6,40000,3,30000,90,9999,0.100000,99,495,41.828990,2,1.000000,32.774133,5.203142,99,99,1,0,0,0,0
4,49999,7,40000,3,30000,0,9999,0.100000,99,495,14.185951,3,2.000000,25.425586,3.107124,99,99,0,0,1,0,0
4,49999,8,40000,3,30000,40,9999,0.100000,99,495,0.000000,3,1.000000,28.026502,7.555089,99,99,0,0,0,0,0
4,49999,9,40000,3,30000,40,9999,0.100000,99,495,0.000000,3,2.000000,26.410947,11.796079,99,99,0,0,0,0,0
4,49999,10,40000,3,30000,0,9999,0.100000,99,495,0.510874,3,0.000000,27.969250,0.131343,99,99,0,0,0,0,1
4,49999,11,40000,3,30000,40,9999,0.100000,99,495,0.000000,3,0.000000,16.121811,9.274432,99,99,0,0,0,0,0
4,49999,12,40000,3,30000,41,9999,0.100000,99,495,0.000000,2,4.000000,22.407710,12.462927,99,99,0,0,0,0,0
4,49999,13,40000,3,30000,40,9999,0.100000,99,495,0.000000,2,0.000000,36.348443,0.198898,99,99,0,0,0,0,0
4,49999,14,40000,3,30000,0,9999,0.100000,99,495,3.941602,3,0.000000,22.143158,0.904187,99,99,0,1,0,0,0
4,49999,15,40000,3,30000,40,9999,0.100000,99,495,0.000000,4,0.000000,24.986529,0.996358,99,99,0,0,0,0,0
4,49999,16,40000,3,30000,40,9999,0.100000,99,495,0.000000,2,0.000000,29.579273,12.250002,99,99,0,0,0,0,0
4,49999,17,40000,3,30000,40,9999,0.100000,99,495,0.000000,4,2.000000,25.921606,14.691399,99,99,0,0,0,0,0
4,49999,18,40000,3,30000,40,9999,0.100000,99,495,0.000000,4,2.000000,25.451940,8.721710,99,99,0,0,0,0,0
4,49999,19,40000,3,30000,40,9999,0.100000,99,495,0.000000,3,0.000000,27.720991,0.766409,99,99,0,0,0,0,0
4,49999,20,40000,3,30000,0,9999,0.100000,99,495,0.832294,3,0.000000,17.700324,0.249630,99,99,0,0,0,0,1
4,49999,21,40000,3,30000,40,9999,0.135000,99,495,0.000000,2,0.000000,31.205894,0.804155,99,99,0,0,0,0,0
4,49999,22,40000,3,30000,40,9999,0.100000,99,495,0.000000,3,2.000000,22.737269,9.150425,99,99,0,0,0,0,0
4,49999,23,40000,3,30000,40,9999,0.100000,99,495,0.000000,3,0.000000,29.778846,0.859406,99,99,0,0,0,0,0
4,49999,24,40000,3,30000,40,9999,0.100000,99,495,0.000000,3,0.000000,22.707233,1.185442,99,99,0,0,0,0,0
4,49999,25,40000,3,30000,40,9999,0.100000,99,495,0.000000,2,0.000000,26.985202,1.494555,99,99,0,0,0,0,0
4,49999,26,40000,3,30000,41,9999,0.100000,99,495,0.000000,4,3.000000,27.311244,16.281152,99,99,0,0,0,0,0
4,49999,27,40000,3,30000,0,9999,0.100000,99,495,0.531445,2,0.000000,30.923959,0.222593,99,99,0,0,1,0,0
4,49999,28,40000,3,30000,40,9999,0.100000,99,495,0.000000,1,0.000000,28.936831,0.635596,99,99,0,0,0,0,0
4,49999,29,40000,3,30000,40,9999,0.100000,99,495,0.000000,3,0.000000,16.628820,3.441390,99,99,0,0,0,0,0
4,49999,30,40000,3,30000,40,9999,0.100000,99,495,0.000000,2,1.000000,25.366609,16.435060,99,99,0,0,0,0,0
4,49999,31,40000,3,30000,40,9999,0.100000,99,495,0.000000,4,0.000000,26.354097,7.800854,99,99,0,0,0,0,0
4,49999,32,40000,3,30000,42,9999,0.100000,99,495,0.000000,2,6.000000,20.207486,17.194454,99,99,0,0,0,0,0
4,49999,33,40000,3,30000,40,9999,0.100000,99,495,0.000000,2,1.000000,24.763967,15.107591,99,99,0,0,0,0,0
4,49999,34,40000,3,30000,40,9999,0.100000,99,495,0.000000,3,2.000000,25.950860,3.239604,99,99,0,0,0,0,0
4,49999,35,40000,3,30000,40,9999,0.100000,99,495,0.000000,4,2.000000,26.936133,8.574765,99,99,0,0,0,0,0
4,49999,36,40000,3,30000,41,9999,0.100000,99,495,0.000000,2,3.000000,26.658144,13.652141,99,99,0,0,0,0,0
4,49999,37,40000,3,30000,40,9999,0.100000,99,495,0.000000,3,0.000000,27.860855,4.472808,99,99,0,0,0,0,0
4,49999,38,40000,3,30000,0,9999,0.100000,99,495,0.018550,3,0.000000,19.190904,0.091391,99,99,0,0,0,0,1
4,49999,39,40000,3,30000,40,9999,0.100000,99,495,0.000000,3,2.000000,29.567500,15.758510,99,99,0,0,0,0,0
4,49999,40,40000,3,30000,40,9999,0.100000,99,495,0.000000,3,0.000000,23.670881,7.950547,99,99,0,0,0,0,0
4,49999,41,40000,3,30000,40,9999,0.100000,99,495,0.000000,2,1.000000,26.112338,12.270297,99,99,0,0,0,0,0
4,49999,42,40000,3,30000,40,9999,0.100000,99,495,0.000000,1,0.000000,23.090617,0.463494,99,99,0,0,0,0,0
4,49999,43,40000,3,30000,40,9999,0.100000,99,495,0.000000,1,0.000000,30.797183,0.217571,99,99,0,0,0,0,0
4,49999,44,40000,3,30000,0,9999,0.100000,99,495,0.457986,1,0.000000,31.036750,0.571204,99,99,0,0,0,1,0
4,49999,45,40000,3,30000,40,9999,0.100000,99,495,0.000000,2,0.000000,30.720954,0.813980,99,99,0,0,0,0,0
4,49999,46,40000,3,30000,40,9999,0.100000,99,495,0.000000,3,2.000000,24.670562,7.493879,99,99,0,0,0,0,0
4,49999,47,40000,3,30000,40,9999,0.100000,99,495,0.000000,3,2.000000,31.990402,15.646100,99,99,0,0,0,0,0
4,49999,48,40000,3,30000,40,9999,0.100000,99,495,0.000000,1,0.000000,21.625185,0.838022,99,99,0,0,0,0,0
4,49999,49,40000,3,30000,40,9999,0.100000,99,495,0.000000,4,0.000000,27.575899,7.163440,99,99,0,0,0,0,0
4,49999,50,40000,3,30000,90,9999,0.100000,99,495,2.586900,2,0.000000,33.676864,4.467435,99,99,1,0,0,0,0
4,49999,51,40000,3,30000,0,9999,0.100000,99,495,1.679790,1,0.000000,23.681349,0.434188,99,99,0,0,1,0,0
4,49999,52,40000,3,30000,0,9999,0.100000,99,495,0.274168,2,0.000000,21.969949,0.171659,99,99,0,0,0,0,1
4,49999,53,40000,3,30000,40,9999,0.100000,99,495,0.000000,3,2.000000,29.630148,13.207275,99,99,0,0,0,0,0
4,49999,54,40000,3,30000,40,9999,0.100000,99,495,0.000000,2,1.000000,26.055825,10.973054,99,99,0,0,0,0,0
4,49999,55,40000,3,30000,40,9999,0.100000,99,495,0.000000,3,3.000000,28.885314,22.037110,99,99,0,0,0,0,0
4,49999,56,40000,3,30000,41,9999,0.100000,99,495,0.000000,2,5.000000,34.478383,15.774816,99,99,0,0,0,0,0
4,49999,57,40000,3,30000,40,9999,0.100000,99,495,0.000000,3,1.000000,26.179103,7.491652,99,99,0,0,0,0,0
4,49999,58,40000,3,30000,40,9999,0.100000,99,495,0.000000,1,0.000000,30.739183,0.528723,99,99,0,0,0,0,0
4,49999,59,40000,3,30000,0,9999,0.100000,99,495,1.070607,1,0.000000,11.797936,1.708180,99,99,0,0,0,1,0
4,49999,60,40000,3,30000,41,9999,0.100000,99,495,0.000000,2,3.000000,16.979787,6.501318,99,99,0,0,0,0,0
4,49999,61,40000,3,30000,41,9999,0.100000,99,495,0.000000,3,3.000000,27.202746,16.308107,99,99,0,0,0,0,0
4,49999,62,40000,3,30000,40,9999,0.100000,99,495,0.000000,4,1.000000,30.350786,14.741250,99,99,0,0,0,0,0
4,49999,63,40000,3,30000,40,9999,0.100000,99,495,0.000000,3,0.000000,12.235090,2.645315,99,99,0,0,0,0,0
4,49999,64,40000,3,30000,40,9999,0.100000,99,495,0.000000,2,1.000000,25.341619,5.512699,99,99,0,0,0,0,0
4,49999,65,40000,3,30000,40,9999,0.100000,99,495,0.000000,1,2.000000,27.743227,12.458752,99,99,0,0,0,0,0
4,49999,66,40000,3,30000,41,9999,0.100000,99,495,0.000000,3,3.000000,28.024890,10.535730,99,99,0,0,0,0,0
4,49999,67,40000,3,30000,40,9999,0.100000,99,495,0.000000,2,0.000000,31.192619,3.236594,99,99,0,0,0,0,0
4,49999,68,40000,3,30000,41,9999,0.100000,99,495,0.000000,2,3.000000,27.271890,14.694466,99,99,0,0,0,0,0
4,49999,69,40000,3,30000,40,9999,0.100000,99,495,0.000000,1,0.000000,23.911035,0.584551,99,99,0,0,0,0,0
4,49999,70,40000,3,30000,40,9999,0.100000,99,495,0.000000,1,2.000000,24.373269,14.297552,99,99,0,0,0,0,0
4,49999,71,40000,3,30000,41,9999,0.100000,99,495,0.000000,2,4.000000,35.471731,8.711801,99,99,0,0,0,0,0
4,49999,72,40000,3,30000,40,9999,0.100000,99,495,0.000000,3,1.000000,29.784900,12.619849,99,99,0,0,0,0,0
4,49999,73,40000,3,30000,40,9999,0.100000,99,495,0.000000,3,0.000000,20.267023,0.973819,99,99,0,0,0,0,0
4,49999,74,40000,3,30000,40,9999,0.100000,99,495,0.000000,1,0.000000,21.658127,0.398868,99,99,0,0,0,0,0
4,49999,75,40000,3,30000,40,9999,0.100000,99,495,0.000000,1,0.000000,24.038311,0.883125,99,99,0,0,0,0,0
4,49999,76,40000,3,30000,43,9999,0.100000,99,495,0.000000,3,10.000000,30.190564,23.707062,99,99,0,0,0,0,0
4,49999,77,40000,3,30000,40,9999,0.100000,99,495,0.000000,1,2.000000,29.511177,19.368681,99,99,0,0,0,0,0
4,49999,78,40000,3,30000,40,9999,0.100000,99,495,0.000000,3,2.000000,21.457269,9.089565,99,99,0,0,0,0,0
4,49999,79,40000,3,30000,41,9999,0.100000,99,495,0.000000,4,4.000000,28.969086,17.547614,99,99,0,0,0,0,0
4,49999,80,40000,3,30000,40,9999,0.100000,99,495,0.000000,2,0.000000,25.111934,16.526765,99,99,0,0,0,0,0
4,49999,81,40000,3,30000,40,9999,0.100000,99,495,0.000000,2,0.000000,27.088278,1.055915,99,99,0,0,0,0,0
4,49999,82,40000,3,30000,40,9999,0.100000,99,495,0.000000,2,0.000000,19.886256,0.086877,99,99,0,0,0,0,0
4,49999,83,40000,3,30000,40,9999,0.100000,99,495,0.000000,1,0.000000,27.597999,0.922496,99,99,0,0,0,0,0
4,49999,84,40000,3,30000,40,9999,0.100000,99,495,0.000000,2,0.000000,17.441028,0.259413,99,99,0,0,0,0,0
4,49999,85,40000,3,30000,40,9999,0.100000,99,495,0.000000,1,0.000000,19.428948,0.143530,99,99,0,0,0,0,0
4,49999,86,40000,3,30000,40,9999,0.100000,99,495,0.000000,3,0.000000,27.696565,1.019032,99,99,0,0,0,0,0
4,49999,87,40000,3,30000,40,9999,0.100000,99,495,0.000000,2,2.000000,25.687224,3.111000,99,99,0,0,0,0,0
4,49999,88,40000,3,30000,40,9999,0.100000,99,495,0.000000,4,0.000000,25.971823,11.314992,99,99,0,0,0,0,0
4,49999,89,40000,3,30000,40,9999,0.100000,99,495,0.000000,4,3.000000,33.058284,11.391543,99,99,0,0,0,0,0
4,49999,90,40000,3,30000,40,9999,0.100000,99,495,0.000000,2,3.000000,29.747710,15.373899,99,99,0,0,0,0,0
4,49999,91,40000,3,30000,40,9999,0.100000,99,495,0.000000,2,0.000000,21.006691,0.141992,99,99,0,0,0,0,0
4,49999,92,40000,3,30000,40,9999,0.100000,99,495,0.000000,2,0.000000,18.974446,0.086466,99,99,0,0,0,0,0
4,49999,93,40000,3,30000,40,9999,0.100000,99,495,0.000000,2,0.000000,27.540907,0.266238,99,99,0,0,0,0,0
4,49999,94,40000,3,30000,40,9999,0.135000,99,495,0.000000,2,0.000000,21.545282,0.507965,99,99,0,0,0,0,0
4,49999,95,40000,3,30000,40,9999,0.100000,99,495,0.000000,1,0.000000,16.737306,1.215886,99,99,0,0,0,0,0
4,49999,96,40000,3,30000,40,9999,0.100000,99,495,0.000000,2,0.000000,17.212029,0.278259,99,99,0,0,0,0,0
4,49999,97,40000,3,30000,40,9999,0.100000,99,495,0.000000,2,0.000000,30.829306,0.207331,99,99,0,0,0,0,0
4,49999,98,40000,3,30000,40,9999,0.100000,99,495,0.000000,4,1.000000,30.318870,14.240076,99,99,0,0,0,0,0
4,49999,99,40000,3,30000,40,9999,0.100000,99,495,0.000000,1,0.000000,11.975423,2.010721,99,99,0,0,0,0,0
5,59999,0,50000,6,40000,41,9999,0.100000,99,594,0.000000,4,3.000000,25.710923,8.277127,99,99,0,0,0,0,0
5,59999,1,50000,6,40000,40,9999,0.100000,99,594,0.000000,1,2.000000,26.584011,8.554527,99,99,0,0,0,0,0
5,59999,2,50000,6,40000,40,9999,0.100000,99,594,0.000000,3,0.000000,30.528966,0.135309,99,99,0,0,0,0,0
5,59999,3,50000,6,40000,40,9999,0.100000,99,594,0.000000,3,2.000000,28.095754,10.495972,99,99,0,0,0,0,0
5,59999,4,50000,6,40000,41,9999,0.100000,99,594,0.000000,3,3.000000,16.607940,12.576505,99,99,0,0,0,0,0
5,59999,5,50000,6,40000,40,9999,0.100000,99,594,0.000000,2,2.000000,28.968466,12.449062,99,99,0,0,0,0,0
5,59999,6,50000,7,40000,40,9999,0.135000,99,594,0.000000,3,3.000000,33.188010,15.503816,99,99,0,0,0,0,0
5,59999,7,50000,6,40000,2,9999,0.100000,99,594,23.401347,3,6.000000,27.323819,14.812148,99,99,0,0,1,0,0
5,59999,8,50000,6,40000,40,9999,0.100000,99,594,0.000000,3,0.000000,29.821167,3.178826,99,99,0,0,0,0,0
5,59999,9,50000,6,40000,41,9999,0.100000,99,594,0.000000,3,3.000000,25.801726,11.238053,99,99,0,0,0,0,0
5,59999,10,50000,6,40000,0,9999,0.100000,99,594,0.335730,3,0.000000,28.007649,0.110033,99,99,0,0,0,0,1
5,59999,11,50000,6,40000,42,9999,0.100000,99,594,0.000000,3,4.000000,16.808388,12.578779,99,99,0,0,0,0,0
5,59999,12,50000,6,40000,41,9999,0.100000,99,594,0.000000,3,2.000000,18.048146,8.267874,99,99,0,0,0,0,0
5,59999,13,50000,6,40000,40,9999,0.100000,99,594,0.000000,2,0.000000,36.350455,0.208299,99,99,0,0,0,0,0
5,59999,14,50000,6,40000,0,9999,0.100000,99,594,3.268082,3,0.000000,21.485361,0.623846,99,99,0,1,0,0,0
5,59999,15,50000,6,40000,40,9999,0.100000,99,594,0.000000,4,0.000000,24.233884,1.013242,99,99,0,0,0,0,0
5,59999,16,50000,6,40000,40,9999,0.100000,99,594,0.000000,2,0.000000,29.569673,11.091011,99,99,0,0,0,0,0
5,59999,17,50000,6,40000,40,9999,0.100000,99,594,0.000000,4,2.000000,24.245436,12.669901,99,99,0,0,0,0,0
5,59999,18,50000,6,40000,40,9999,0.100000,99,594,0.000000,4,0.000000,23.542492,5.730742,99,99,0,0,0,0,0
5,59999,19,50000,6,40000,40,9999,0.100000,99,594,0.000000,3,0.000000,27.758916,0.432091,99,99,0,0,0,0,0
5,59999,20,50000,6,40000,0,9999,0.100000,99,594,7.666167,3,1.000000,17.866014,1.805939,99,99,0,0,0,0,1
5,59999,21,50000,6,40000,40,9999,0.100000,99,594,0.000000,2,0.000000,31.202370,0.899091,99,99,0,0,0,0,0
5,59999,22,50000,6,40000,41,9999,0.100000,99,594,0.000000,3,3.000000,20.375533,8.104225,99,99,0,0,0,0,0
5,59999,23,50000,6,40000,40,9999,0.100000,99,594,0.000000,3,0.000000,29.967200,0.280502,99,99,0,0,0,0,0
5,59999,24,50000,6,40000,40,9999,0.100000,99,594,0.000000,3,0.000000,21.917239,0.842567,99,99,0,0,0,0,0
5,59999,25,50000,6,40000,40,9999,0.100000,99,594,0.000000,2,0.000000,27.041256,2.990758,99,99,0,0,0,0,0
5,59999,26,50000,6,40000,41,9999,0.100000,99,594,0.000000,4,5.000000,26.726721,18.636258,99,99,0,0,0,0,0
5,59999,27,50000,6,40000,0,9999,0.100000,99,594,0.567965,2,0.000000,30.961752,0.214899,99,99,0,0,1,0,0
5,59999,28,50000,6,40000,40,9999,0.100000,99,594,0.000000,1,0.000000,28.966163,0.647379,99,99,0,0,0,0,0
5,59999,29,50000,6,40000,41,9999,0.100000,99,594,0.000000,3,2.000000,16.243015,6.564526,99,99,0,0,0,0,0
5,59999,30,50000,6,40000,40,9999,0.100000,99,594,0.000000,2,1.000000,25.119424,10.021169,99,99,0,0,0,0,0
5,59999,31,50000,6,40000,41,9999,0.100000,99,594,0.000000,4,4.000000,26.632353,11.271731,99,99,0,0,0,0,0
5,59999,32,50000,6,40000,41,9999,0.100000,99,594,0.000000,3,3.000000,16.839357,12.328548,99,99,0,0,0,0,0
5,59999,33,50000,6,40000,40,9999,0.100000,99,594,0.000000,2,2.000000,23.814813,13.814946,99,99,0,0,0,0,0
5,59999,34,50000,6,40000,1,9999,0.100000,99,594,23.384979,3,4.000000,27.669464,12.332809,99,99,0,0,1,0,0
5,59999,35,50000,6,40000,40,9999,0.100000,99,594,0.000000,4,1.000000,24.684547,7.404311,99,99,0,0,0,0,0
5,59999,36,50000,6,40000,40,9999,0.100000,99,594,0.000000,2,1.000000,24.602528,15.300985,99,99,0,0,0,0,0
5,59999,37,50000,6,40000,40,9999,0.100000,99,594,0.000000,3,0.000000,27.332783,5.364038,99,99,0,0,0,0,0
5,59999,38,50000,6,40000,0,9999,0.100000,99,594,0.013207,3,0.000000,19.189246,0.091279,99,99,0,0,0,0,1
5,59999,39,50000,6,40000,40,9999,0.100000,99,594,0.000000,4,1.000000,30.889544,9.000351,99,99,0,0,0,0,0
5,59999,40,50000,6,40000,41,9999,0.100000,99,594,0.000000,3,4.000000,23.112767,8.841487,99,99,0,0,0,0,0
5,59999,41,50000,6,40000,41,9999,0.100000,99,594,0.000000,2,5.000000,24.750509,10.128899,99,99,0,0,0,0,0
5,59999,42,50000,6,40000,40,9999,0.100000,99,594,0.000000,1,0.000000,23.021550,0.344631,99,99,0,0,0,0,0
5,59999,43,50000,6,40000,40,9999,0.100000,99,594,0.000000,1,0.000000,30.832856,0.221301,99,99,0,0,0,0,0
5,59999,44,50000,6,40000,0,9999,0.100000,99,594,0.598771,1,0.000000,30.982940,0.573786,99,99,0,0,0,1,0
5,59999,45,50000,6,40000,40,9999,0.100000,99,594,0.000000,2,0.000000,30.760967,0.769871,99,99,0,0,0,0,0
5,59999,46,50000,6,40000,40,9999,0.100000,99,594,0.000000,3,1.000000,21.955673,4.932977,99,99,0,0,0,0,0
5,59999,47,50000,6,40000,40,9999,0.100000,99,594,0.000000,3,1.000000,29.961323,7.696114,99,99,0,0,0,0,0
5,59999,48,50000,6,40000,40,9999,0.100000,99,594,0.000000,1,0.000000,21.665918,1.771709,99,99,0,0,0,0,0
5,59999,49,50000,6,40000,40,9999,0.100000,99,594,0.000000,4,1.000000,28.340520,9.405020,99,99,0,0,0,0,0
5,59999,50,50000,6,40000,91,9999,0.100000,99,594,27.052017,2,5.000000,33.397227,10.870944,99,99,1,0,0,0,0
5,59999,51,50000,6,40000,0,9999,0.100000,99,594,0.395374,1,0.000000,23.610869,0.233115,99,99,0,0,1,0,0
5,59999,52,50000,6,40000,0,9999,0.100000,99,594,0.542612,2,0.000000,22.017241,0.263638,99,99,0,0,0,0,1
5,59999,53,50000,6,40000,41,9999,0.100000,99,594,0.000000,3,3.000000,27.665973,10.859065,99,99,0,0,0,0,0
5,59999,54,50000,6,40000,41,9999,0.100000,99,594,0.000000,2,3.000000,26.132342,12.185853,99,99,0,0,0,0,0
5,59999,55,50000,6,40000,40,9999,0.100000,99,594,0.000000,3,0.000000,26.646330,22.693551,99,99,0,0,0,0,0
5,59999,56,50000,6,40000,40,9999,0.100000,99,594,0.000000,3,1.000000,29.673746,12.987648,99,99,0,0,0,0,0
5,59999,57,50000,6,40000,40,9999,0.100000,99,594,0.000000,3,2.000000,27.744444,9.486327,99,99,0,0,0,0,0
5,59999,58,50000,6,40000,40,9999,0.100000,99,594,0.000000,1,0.000000,30.759307,0.692580,99,99,0,0,0,0,0
5,59999,59,50000,6,40000,0,9999,0.100000,99,594,0.485618,1,0.000000,12.616121,1.171050,99,99,0,0,0,1,0
5,59999,60,50000,6,40000,40,9999,0.100000,99,594,0.000000,3,1.000000,16.046583,6.699967,99,99,0,0,0,0,0
5,59999,61,50000,6,40000,41,9999,0.100000,99,594,0.000000,3,5.000000,26.621407,18.676501,99,99,0,0,0,0,0
5,59999,62,50000,6,40000,41,9999,0.100000,99,594,0.000000,4,4.000000,29.624096,10.388257,99,99,0,0,0,0,0
5,59999,63,50000,6,40000,40,9999,0.100000,99,594,0.000000,3,0.000000,12.553372,1.521414,99,99,0,0,0,0,0
5,59999,64,50000,6,40000,41,9999,0.100000,99,594,0.000000,2,3.000000,24.784133,7.976905,99,99,0,0,0,0,0
5,59999,65,50000,6,40000,40,9999,0.100000,99,594,0.000000,1,2.000000,25.893040,12.816520,99,99,0,0,0,0,0
5,59999,66,50000,6,40000,40,9999,0.100000,99,594,0.000000,3,1.000000,28.179912,8.182148,99,99,0,0,0,0,0
5,59999,67,50000,6,40000,40,9999,0.100000,99,594,0.000000,2,0.000000,31.144116,0.884690,99,99,0,0,0,0,0
5,59999,68,50000,6,40000,41,9999,0.100000,99,594,0.000000,2,4.000000,30.558467,9.846586,99,99,0,0,0,0,0
5,59999,69,50000,6,40000,40,9999,0.100000,99,594,0.000000,1,0.000000,23.829702,0.483525,99,99,0,0,0,0,0
5,59999,70,50000,6,40000,40,9999,0.100000,99,594,0.000000,1,0.000000,25.546279,7.184065,99,99,0,0,0,0,0
5,59999,71,50000,6,40000,40,9999,0.100000,99,594,0.000000,2,0.000000,32.253140,4.543197,99,99,0,0,0,0,0
5,59999,72,50000,6,40000,40,9999,0.100000,99,594,0.000000,3,2.000000,28.281994,4.964371,99,99,0,0,0,0,0
5,59999,73,50000,6,40000,40,9999,0.100000,99,594,0.000000,4,0.000000,20.632617,1.088103,99,99,0,0,0,0,0
5,59999,74,50000,6,40000,40,9999,0.100000,99,594,0.000000,1,0.000000,21.701284,2.223611,99,99,0,0,0,0,0
5,59999,75,50000,6,40000,40,9999,0.100000,99,594,0.000000,1,0.000000,23.954583,0.851688,99,99,0,0,0,0,0
5,59999,76,50000,6,40000,40,9999,0.100000,99,594,0.000000,4,0.000000,30.383688,0.140917,99,99,0,0,0,0,0
5,59999,77,50000,6,40000,40,9999,0.100000,99,594,0.000000,1,3.000000,29.633728,11.714265,99,99,0,0,0,0,0
5,59999,78,50000,6,40000,42,9999,0.100000,99,594,0.000000,3,5.000000,19.309398,6.703062,99,99,0,0,0,0,0
5,59999,79,50000,6,40000,40,9999,0.100000,99,594,0.000000,4,2.000000,26.343939,12.550870,99,99,0,0,0,0,0
5,59999,80,50000,6,40000,41,9999,0.100000,99,594,0.000000,2,3.000000,24.424694,11.425435,99,99,0,0,0,0,0
5,59999,81,50000,6,40000,40,9999,0.100000,99,594,0.000000,2,0.000000,27.155133,1.280194,99,99,0,0,0,0,0
5,59999,82,50000,6,40000,40,9999,0.100000,99,594,0.000000,2,0.000000,19.884474,0.085562,99,99,0,0,0,0,0
5,59999,83,50000,6,40000,40,9999,0.100000,99,594,0.000000,1,0.000000,27.627455,0.772009,99,99,0,0,0,0,0
5,59999,84,50000,6,40000,40,9999,0.100000,99,594,0.000000,2,1.000000,17.608952,1.736654,99,99,0,0,0,0,0
5,59999,85,50000,6,40000,40,9999,0.100000,99,594,0.000000,1,0.000000,19.427160,0.115444,99,99,0,0,0,0,0
5,59999,86,50000,6,40000,40,9999,0.100000,99,594,0.000000,3,0.000000,26.926460,0.986281,99,99,0,0,0,0,0
5,59999,87,50000,6,40000,2,9999,0.100000,99,594,23.369085,2,6.000000,27.498386,15.293669,99,99,0,0,1,0,0
5,59999,88,50000,6,40000,41,9999,0.100000,99,594,0.000000,4,3.000000,26.199334,9.534157,99,99,0,0,0,0,0
5,59999,89,50000,6,40000,40,9999,0.100000,99,594,0.000000,4,2.000000,29.568724,8.292752,99,99,0,0,0,0,0
5,59999,90,50000,6,40000,40,9999,0.100000,99,594,0.000000,2,3.000000,30.751046,15.272288,99,99,0,0,0,0,0
5,59999,91,50000,6,40000,40,9999,0.100000,99,594,0.000000,2,0.000000,21.048818,0.287336,99,99,0,0,0,0,0
5,59999,92,50000,6,40000,40,9999,0.100000,99,594,0.000000,2,0.000000,18.972804,0.095512,99,99,0,0,0,0,0
5,59999,93,50000,6,40000,40,9999,0.100000,99,594,0.000000,2,0.000000,27.588901,0.217661,99,99,0,0,0,0,0
5,59999,94,50000,6,40000,40,9999,0.100000,99,594,0.000000,2,0.000000,21.320878,0.406160,99,99,0,0,0,0,0
5,59999,95,50000,6,40000,40,9999,0.100000,99,594,0.000000,1,1.000000,16.921979,1.798065,99,99,0,0,0,0,0
5,59999,96,50000,6,40000,40,9999,0.100000,99,594,0.000000,2,1.000000,17.382616,1.727480,99,99,0,0,0,0,0
5,59999,97,50000,6,40000,40,9999,0.100000,99,594,0.000000,2,0.000000,30.823576,0.214402,99,99,0,0,0,0,0
5,59999,98,50000,6,40000,40,9999,0.100000,99,594,0.000000,4,3.000000,30.291440,13.676720,99,99,0,0,0,0,0
5,59999,99,50000,6,40000,40,9999,0.100000,99,594,0.000000,1,0.000000,12.566691,1.501127,99,99,0,0,0,0,0
6,69999,0,60000,50,50000,40,9999,0.100000,99,693,0.000000,5,0.000000,28.801299,9.164151,99,99,0,0,0,0,0
6,69999,1,60000,50,50000,41,9999,0.100000,99,693,0.000000,1,3.000000,26.518386,8.586151,99,99,0,0,0,0,0
6,69999,2,60000,50,50000,40,9999,0.100000,99,693,0.000000,3,0.000000,30.528574,0.136224,99,99,0,0,0,0,0
6,69999,3,60000,50,50000,40,9999,0.100000,99,693,0.000000,3,2.000000,26.034098,10.735057,99,99,0,0,0,0,0
6,69999,4,60000,50,50000,41,9999,0.100000,99,693,0.000000,4,2.000000,13.030334,4.319732,99,99,0,0,0,0,0
6,69999,5,60000,50,50000,41,9999,0.100000,99,693,0.000000,2,4.000000,27.708631,11.089552,99,99,0,0,0,0,0
6,69999,6,60000,50,50000,40,9999,0.100000,99,693,0.000000,3,3.000000,29.318203,14.618011,99,99,0,0,0,0,0
6,69999,7,60000,50,50000,40,9999,0.100000,99,693,0.000000,3,1.000000,29.134046,8.382678,99,99,0,0,0,0,0
6,69999,8,60000,50,50000,40,9999,0.100000,99,693,0.000000,3,0.000000,29.822854,3.214281,99,99,0,0,0,0,0
6,69999,9,60000,50,50000,42,9999,0.100000,99,693,0.000000,4,6.000000,24.666604,8.519867,99,99,0,0,0,0,0
6,69999,10,60000,50,50000,2,9999,0.100000,99,693,43.546984,3,8.000000,28.022899,9.510084,99,99,0,0,0,0,1
6,69999,11,60000,50,50000,40,9999,0.100000,99,693,0.000000,3,1.000000,13.905677,9.302559,99,99,0,0,0,0,0
6,69999,12,60000,50,50000,41,9999,0.100000,99,693,0.000000,3,2.000000,15.812493,3.445009,99,99,0,0,0,0,0
6,69999,13,60000,50,50000,40,9999,0.100000,99,693,0.000000,2,0.000000,36.351522,0.213625,99,99,0,0,0,0,0
6,69999,14,60000,50,50000,0,9999,0.100000,99,693,4.778369,3,1.000000,21.287923,1.101920,99,99,0,1,0,0,0
6,69999,15,60000,50,50000,40,9999,0.100000,99,693,0.000000,4,0.000000,23.454038,1.015278,99,99,0,0,0,0,0
6,69999,16,60000,50,50000,40,9999,0.100000,99,693,0.000000,2,0.000000,29.565743,11.505063,99,99,0,0,0,0,0
6,69999,17,60000,50,50000,41,9999,0.100000,99,693,0.000000,4,3.000000,21.381632,8.549291,99,99,0,0,0,0,0
6,69999,18,60000,50,50000,43,9999,0.100000,99,693,0.000000,4,8.000000,23.542082,8.631189,99,99,0,0,0,0,0
6,69999,19,60000,50,50000,2,9999,0.100000,99,693,43.546991,3,8.000000,27.777002,15.428499,99,99,0,0,0,0,1
6,69999,20,60000,50,50000,1,9999,0.100000,99,693,19.591229,3,3.000000,18.942523,4.369525,99,99,0,0,0,0,1
6,69999,21,60000,50,50000,40,9999,0.100000,99,693,0.000000,2,0.000000,31.161396,1.040284,99,99,0,0,0,0,0
6,69999,22,60000,50,50000,42,9999,0.100000,99,693,0.000000,3,4.000000,18.123109,5.887339,99,99,0,0,0,0,0
6,69999,23,60000,50,50000,40,9999,0.100000,99,693,0.000000,3,0.000000,30.080950,0.135769,99,99,0,0,0,0,0
6,69999,24,60000,50,50000,40,9999,0.100000,99,693,0.000000,3,1.000000,21.439189,1.273679,99,99,0,0,0,0,0
6,69999,25,60000,50,50000,3,9999,0.100000,99,693,43.531850,2,9.000000,27.104705,18.296120,99,99,0,0,0,0,1
6,69999,26,60000,50,50000,41,9999,0.100000,99,693,0.000000,4,5.000000,28.679337,20.048385,99,99,0,0,0,0,0
6,69999,27,60000,50,50000,0,9999,0.100000,99,693,0.611033,2,0.000000,30.990430,0.229576,99,99,0,0,1,0,0
6,69999,28,60000,50,50000,40,9999,0.100000,99,693,0.000000,1,0.000000,29.001383,0.671184,99,99,0,0,0,0,0
6,69999,29,60000,50,50000,41,9999,0.100000,99,693,0.000000,3,3.000000,18.257722,4.223229,99,99,0,0,0,0,0
6,69999,30,60000,50,50000,40,9999,0.100000,99,693,0.000000,2,1.000000,25.006807,8.684463,99,99,0,0,0,0,0
6,69999,31,60000,50,50000,41,9999,0.100000,99,693,0.000000,4,4.000000,27.702307,10.806769,99,99,0,0,0,0,0
6,69999,32,60000,50,50000,40,9999,0.100000,99,693,0.000000,3,1.000000,14.505245,11.849737,99,99,0,0,0,0,0
6,69999,33,60000,50,50000,40,9999,0.100000,99,693,0.000000,2,0.000000,25.365485,8.819949,99,99,0,0,0,0,0
6,69999,34,60000,50,50000,40,9999,0.100000,99,693,0.000000,4,2.000000,31.654165,7.001810,99,99,0,0,0,0,0
6,69999,35,60000,50,50000,41,9999,0.100000,99,693,0.000000,4,3.000000,23.318152,9.436791,99,99,0,0,0,0,0
6,69999,36,60000,50,50000,40,9999,0.100000,99,693,0.000000,2,2.000000,24.823568,11.855378,99,99,0,0,0,0,0
6,69999,37,60000,50,50000,40,9999,0.100000,99,693,0.000000,3,0.000000,27.884654,10.379727,99,99,0,0,0,0,0
6,69999,38,60000,50,50000,40,9999,0.100000,99,693,0.000000,3,0.000000,19.188201,0.125869,99,99,0,0,0,0,0
6,69999,39,60000,50,50000,40,9999,0.100000,99,693,0.000000,4,3.000000,32.416122,10.806353,99,99,0,0,0,0,0
6,69999,40,60000,50,50000,92,9999,0.100000,99,693,47.027236,3,6.000000,20.854009,17.132491,99,99,1,0,0,0,0
6,69999,41,60000,50,50000,41,9999,0.100000,99,693,0.000000,3,4.000000,19.186236,5.580743,99,99,0,0,0,0,0
6,69999,42,60000,50,50000,40,9999,0.100000,99,693,0.000000,1,0.000000,22.981394,0.292148,99,99,0,0,0,0,0
6,69999,43,60000,50,50000,40,9999,0.100000,99,693,0.000000,1,0.000000,30.867792,0.239433,99,99,0,0,0,0,0
6,69999,44,60000,50,50000,0,9999,0.100000,99,693,1.398482,1,0.000000,30.866339,0.870006,99,99,0,0,0,1,0
6,69999,45,60000,50,50000,40,9999,0.100000,99,693,0.000000,2,1.000000,30.754093,11.709075,99,99,0,0,0,0,0
6,69999,46,60000,50,50000,43,9999,0.100000,99,693,0.000000,3,7.000000,21.624895,8.862603,99,99,0,0,0,0,0
6,69999,47,60000,50,50000,40,9999,0.100000,99,693,0.000000,3,1.000000,29.951548,9.610196,99,99,0,0,0,0,0
6,69999,48,60000,50,50000,40,9999,0.100000,99,693,0.000000,1,0.000000,21.242298,0.808722,99,99,0,0,0,0,0
6,69999,49,60000,50,50000,40,9999,0.100000,99,693,0.000000,4,1.000000,29.031391,7.882013,99,99,0,0,0,0,0
6,69999,50,60000,7,50000,41,9999,0.100000,99,693,0.000000,3,5.000000,35.885359,11.794192,99,99,0,0,0,0,0
6,69999,51,60000,50,50000,40,9999,0.100000,99,693,0.000000,1,0.000000,23.588427,0.226469,99,99,0,0,0,0,0
6,69999,52,60000,50,50000,0,9999,0.100000,99,693,3.319918,2,0.000000,22.049289,0.613568,99,99,0,0,0,0,1
6,69999,53,60000,50,50000,41,9999,0.100000,99,693,0.000000,4,4.000000,27.775473,10.043988,99,99,0,0,0,0,0
6,69999,54,60000,50,50000,41,9999,0.100000,99,693,0.000000,2,3.000000,25.607209,7.583606,99,99,0,0,0,0,0
6,69999,55,60000,50,50000,40,9999,0.100000,99,693,0.000000,3,2.000000,26.714480,14.403620,99,99,0,0,0,0,0
6,69999,56,60000,50,50000,40,9999,0.100000,99,693,0.000000,3,1.000000,29.932225,9.761060,99,99,0,0,0,0,0
6,69999,57,60000,50,50000,41,9999,0.100000,99,693,0.000000,3,3.000000,27.785475,8.563680,99,99,0,0,0,0,0
6,69999,58,60000,50,50000,40,9999,0.100000,99,693,0.000000,1,0.000000,30.719320,0.725193,99,99,0,0,0,0,0
6,69999,59,60000,50,50000,40,9999,0.100000,99,693,0.000000,1,0.000000,12.732559,4.767266,99,99,0,0,0,0,0
6,69999,60,60000,50,50000,1,9999,0.100000,99,693,0.064515,3,2.000000,15.818584,4.724747,99,99,0,0,0,1,0
6,69999,61,60000,50,50000,41,9999,0.100000,99,693,0.000000,3,4.000000,28.567003,20.057438,99,99,0,0,0,0,0
6,69999,62,60000,50,50000,40,9999,0.100000,99,693,0.000000,4,0.000000,30.377563,8.359231,99,99,0,0,0,0,0
6,69999,63,60000,50,50000,40,9999,0.100000,99,693,0.000000,3,0.000000,12.522481,0.482590,99,99,0,0,0,0,0
6,69999,64,60000,50,50000,40,9999,0.100000,99,693,0.000000,2,2.000000,22.531434,3.195678,99,99,0,0,0,0,0
6,69999,65,60000,50,50000,40,9999,0.100000,99,693,0.000000,1,1.000000,23.752549,8.890774,99,99,0,0,0,0,0
6,69999,66,60000,50,50000,40,9999,0.100000,99,693,0.000000,4,3.000000,29.502879,8.646966,99,99,0,0,0,0,0
6,69999,67,60000,50,50000,40,9999,0.100000,99,693,0.000000,2,3.000000,31.031696,6.311659,99,99,0,0,0,0,0
6,69999,68,60000,50,50000,40,9999,0.100000,99,693,0.000000,2,0.000000,35.390776,11.188095,99,99,0,0,0,0,0
6,69999,69,60000,50,50000,0,9999,0.100000,99,693,0.584228,1,0.000000,23.802986,0.421032,99,99,0,0,1,0,0
6,69999,70,60000,50,50000,40,9999,0.100000,99,693,0.000000,1,2.000000,25.162027,7.650352,99,99,0,0,0,0,0
6,69999,71,60000,50,50000,40,9999,0.100000,99,693,0.000000,2,3.000000,32.653786,10.206785,99,99,0,0,0,0,0
6,69999,72,60000,50,50000,41,9999,0.100000,99,693,0.000000,3,5.000000,27.887403,14.668528,99,99,0,0,0,0,0
6,69999,73,60000,50,50000,42,9999,0.100000,99,693,0.000000,4,5.000000,21.175235,11.899612,99,99,0,0,0,0,0
6,69999,74,60000,50,50000,40,9999,0.100000,99,693,0.000000,1,0.000000,21.254581,6.300154,99,99,0,0,0,0,0
6,69999,75,60000,50,50000,40,9999,0.100000,99,693,0.000000,1,0.000000,23.927912,0.804919,99,99,0,0,0,0,0
6,69999,76,60000,50,50000,40,9999,0.100000,99,693,0.000000,4,0.000000,30.383485,0.144399,99,99,0,0,0,0,0
6,69999,77,60000,50,50000,40,9999,0.100000,99,693,0.000000,1,2.000000,30.212915,9.221430,99,99,0,0,0,0,0
6,69999,78,60000,50,50000,40,9999,0.100000,99,693,0.000000,4,1.000000,14.476403,8.582008,99,99,0,0,0,0,0
6,69999,79,60000,50,50000,40,9999,0.100000,99,693,0.000000,4,0.000000,26.255264,7.630629,99,99,0,0,0,0,0
6,69999,80,60000,50,50000,41,9999,0.100000,99,693,0.000000,3,4.000000,21.206343,16.074206,99,99,0,0,0,0,0
6,69999,81,60000,50,50000,2,9999,0.100000,99,693,43.546984,2,8.000000,27.191117,15.083459,99,99,0,0,0,0,1
6,69999,82,60000,50,50000,0,9999,0.100000,99,693,0.118444,2,0.000000,19.883356,0.102736,99,99,0,0,0,0,1
6,69999,83,60000,50,50000,41,9999,0.100000,99,693,0.000000,1,3.000000,27.638386,13.134875,99,99,0,0,0,0,0
6,69999,84,60000,50,50000,41,9999,0.100000,99,693,0.000000,2,3.000000,18.692999,4.294146,99,99,0,0,0,0,0
6,69999,85,60000,50,50000,40,9999,0.100000,99,693,0.000000,1,0.000000,19.426020,0.118228,99,99,0,0,0,0,0
6,69999,86,60000,50,50000,40,9999,0.100000,99,693,0.000000,3,0.000000,26.184563,1.031420,99,99,0,0,0,0,0
6,69999,87,60000,50,50000,40,9999,0.100000,99,693,0.000000,3,1.000000,29.220533,8.745374,99,99,0,0,0,0,0
6,69999,88,60000,50,50000,40,9999,0.100000,99,693,0.000000,4,0.000000,28.155781,6.487991,99,99,0,0,0,0,0
6,69999,89,60000,50,50000,41,9999,0.100000,99,693,0.000000,4,3.000000,28.022491,14.183623,99,99,0,0,0,0,0
6,69999,90,60000,50,50000,40,9999,0.100000,99,693,0.000000,2,1.000000,28.826386,10.705194,99,99,0,0,0,0,0
6,69999,91,60000,50,50000,40,9999,0.100000,99,693,0.000000,2,0.000000,21.075847,0.488431,99,99,0,0,0,0,0
6,69999,92,60000,50,50000,40,9999,0.100000,99,693,0.000000,2,0.000000,18.971914,0.806619,99,99,0,0,0,0,0
6,69999,93,60000,50,50000,2,9999,0.100000,99,693,43.546984,2,8.000000,27.611478,14.495725,99,99,0,0,0,0,1
6,69999,94,60000,50,50000,40,9999,0.100000,99,693,0.000000,2,0.000000,21.259816,0.273578,99,99,0,0,0,0,0
6,69999,95,60000,50,50000,41,9999,0.100000,99,693,0.000000,1,3.000000,18.049226,4.428473,99,99,0,0,0,0,0
6,69999,96,60000,50,50000,41,9999,0.100000,99,693,0.000000,2,3.000000,18.491059,4.074900,99,99,0,0,0,0,0
6,69999,97,60000,50,50000,40,9999,0.100000,99,693,0.000000,2,0.000000,30.757216,0.537286,99,99,0,0,0,0,0
6,69999,98,60000,50,50000,40,9999,0.100000,99,693,0.000000,4,2.000000,27.197510,13.872174,99,99,0,0,0,0,0
6,69999,99,60000,50,50000,40,9999,0.100000,99,693,0.000000,1,0.000000,12.628947,1.125876,99,99,0,0,0,0,0
7,79999,0,70000,40,60000,41,9999,0.100000,99,792,0.000000,5,3.000000,28.384734,8.223707,99,99,0,0,0,0,0
7,79999,1,70000,40,60000,40,9999,0.100000,99,792,0.000000,2,2.000000,26.449009,6.480230,99,99,0,0,0,0,0
7,79999,2,70000,40,60000,40,9999,0.100000,99,792,0.000000,3,0.000000,30.528189,0.137026,99,99,0,0,0,0,0
7,79999,3,70000,40,60000,41,9999,0.100000,99,792,0.000000,3,3.000000,24.217840,12.787592,99,99,0,0,0,0,0
7,79999,4,70000,40,60000,40,9999,0.100000,99,792,0.000000,4,0.000000,11.374223,1.008863,99,99,0,0,0,0,0
7,79999,5,70000,40,60000,40,9999,0.100000,99,792,0.000000,3,1.000000,28.264746,5.665192,99,99,0,0,0,0,0
7,79999,6,70000,40,60000,41,9999,0.100000,99,792,0.000000,3,3.000000,26.230416,12.070151,99,99,0,0,0,0,0
7,79999,7,70000,40,60000,40,9999,0.100000,99,792,0.000000,4,1.000000,28.555742,6.985220,99,99,0,0,0,0,0
7,79999,8,70000,40,60000,40,9999,0.100000,99,792,0.000000,3,0.000000,29.819201,2.061113,99,99,0,0,0,0,0
7,79999,9,70000,40,60000,42,9999,0.100000,99,792,0.000000,5,4.000000,17.929541,5.863560,99,99,0,0,0,0,0
7,79999,10,70000,40,60000,40,9999,0.100000,99,792,0.000000,4,1.000000,33.715162,5.777428,99,99,0,0,0,0,0
7,79999,11,70000,40,60000,41,9999,0.100000,99,792,0.000000,3,2.000000,12.930338,5.628074,99,99,0,0,0,0,0
7,79999,12,70000,40,60000,40,9999,0.100000,99,792,0.000000,3,0.000000,13.123609,0.690673,99,99,0,0,0,0,0
7,79999,13,70000,40,60000,40,9999,0.100000,99,792,0.000000,2,0.000000,36.351973,0.251394,99,99,0,0,0,0,0
7,79999,14,70000,40,60000,0,9999,0.100000,99,792,3.922548,3,0.000000,21.340820,1.127980,99,99,0,1,0,0,0
7,79999,15,70000,40,60000,40,9999,0.100000,99,792,0.000000,4,0.000000,22.709752,1.008032,99,99,0,0,0,0,0
7,79999,16,70000,40,60000,40,9999,0.100000,99,792,0.000000,2,0.000000,29.612235,10.764249,99,99,0,0,0,0,0
7,79999,17,70000,40,60000,40,9999,0.100000,99,792,0.000000,4,0.000000,21.024031,1.755870,99,99,0,0,0,0,0
7,79999,18,70000,40,60000,40,9999,0.100000,99,792,0.000000,5,0.000000,15.532629,13.450877,99,99,0,0,0,0,0
7,79999,19,70000,40,60000,40,9999,0.100000,99,792,0.000000,4,2.000000,31.905520,13.532343,99,99,0,0,0,0,0
7,79999,20,70000,40,60000,0,9999,0.100000,99,792,0.102279,3,0.000000,21.629592,0.094368,99,99,0,0,0,0,1
7,79999,21,70000,40,60000,40,9999,0.100000,99,792,0.000000,2,0.000000,30.985932,0.872583,99,99,0,0,0,0,0
7,79999,22,70000,40,60000,0,9999,0.100000,99,792,0.060717,4,0.000000,13.795899,5.717438,99,99,0,0,0,1,0
7,79999,23,70000,40,60000,40,9999,0.100000,99,792,0.000000,3,0.000000,30.080708,0.134993,99,99,0,0,0,0,0
7,79999,24,70000,40,60000,40,9999,0.100000,99,792,0.000000,3,0.000000,21.280645,1.464129,99,99,0,0,0,0,0
7,79999,25,70000,40,60000,40,9999,0.100000,99,792,0.000000,3,1.000000,32.027147,5.866765,99,99,0,0,0,0,0
7,79999,26,70000,40,60000,41,9999,0.100000,99,792,0.000000,4,3.000000,27.087154,15.457412,99,99,0,0,0,0,0
7,79999,27,70000,40,60000,0,9999,0.100000,99,792,1.558617,2,0.000000,31.015786,0.620413,99,99,0,0,1,0,0
7,79999,28,70000,40,60000,40,9999,0.100000,99,792,0.000000,1,0.000000,29.038244,0.660742,99,99,0,0,0,0,0
7,79999,29,70000,40,60000,45,9999,0.100000,99,792,0.000000,3,12.000000,21.070440,13.682708,99,99,0,0,0,0,0
7,79999,30,70000,40,60000,40,9999,0.100000,99,792,0.000000,2,0.000000,25.728660,9.018798,99,99,0,0,0,0,0
7,79999,31,70000,40,60000,40,9999,0.100000,99,792,0.000000,4,0.000000,23.445724,3.785867,99,99,0,0,0,0,0
7,79999,32,70000,40,60000,40,9999,0.100000,99,792,0.000000,3,0.000000,13.894517,8.278664,99,99,0,0,0,0,0
7,79999,33,70000,40,60000,40,9999,0.100000,99,792,0.000000,2,1.000000,24.590840,7.846701,99,99,0,0,0,0,0
7,79999,34,70000,40,60000,40,9999,0.100000,99,792,0.000000,4,1.000000,31.227769,5.034051,99,99,0,0,0,0,0
7,79999,35,70000,40,60000,41,9999,0.100000,99,792,0.000000,5,3.000000,20.281660,10.460120,99,99,0,0,0,0,0
7,79999,36,70000,40,60000,42,9999,0.100000,99,792,0.000000,2,7.000000,25.098446,20.863175,99,99,0,0,0,0,0
7,79999,37,70000,40,60000,40,9999,0.100000,99,792,0.000000,3,0.000000,27.195760,9.860140,99,99,0,0,0,0,0
7,79999,38,70000,40,60000,0,9999,0.100000,99,792,0.073487,3,0.000000,19.207959,0.167982,99,99,0,0,0,0,1
7,79999,39,70000,40,60000,41,9999,0.100000,99,792,0.000000,4,5.000000,35.971258,10.081053,99,99,0,0,0,0,0
7,79999,40,70000,19,60000,90,9999,0.100000,99,792,0.000000,4,0.000000,27.581243,7.590061,99,99,1,0,0,0,0
7,79999,41,70000,40,60000,40,9999,0.100000,99,792,0.000000,3,1.000000,14.744019,12.020597,99,99,0,0,0,0,0
7,79999,42,70000,40,60000,40,9999,0.100000,99,792,0.000000,1,0.000000,22.937804,0.228319,99,99,0,0,0,0,0
7,79999,43,70000,40,60000,40,9999,0.100000,99,792,0.000000,1,1.000000,30.903007,2.455098,99,99,0,0,0,0,0
7,79999,44,70000,40,60000,0,9999,0.100000,99,792,1.142458,1,0.000000,30.382344,0.910425,99,99,0,0,0,1,0
7,79999,45,70000,40,60000,40,9999,0.100000,99,792,0.000000,2,0.000000,30.366542,0.958706,99,99,0,0,0,0,0
7,79999,46,70000,40,60000,41,9999,0.100000,99,792,0.000000,4,2.000000,14.054178,10.658878,99,99,0,0,0,0,0
7,79999,47,70000,40,60000,40,9999,0.100000,99,792,0.000000,3,3.000000,28.523185,9.098253,99,99,0,0,0,0,0
7,79999,48,70000,40,60000,0,9999,0.100000,99,792,0.003149,1,0.000000,21.577527,0.086761,99,99,0,0,0,0,1
7,79999,49,70000,40,60000,40,9999,0.100000,99,792,0.000000,4,0.000000,27.696633,4.900572,99,99,0,0,0,0,0
7,79999,50,70000,40,60000,40,9999,0.100000,99,792,0.000000,4,0.000000,31.663906,6.455488,99,99,0,0,0,0,0
7,79999,51,70000,40,60000,0,9999,0.100000,99,792,0.409503,2,0.000000,23.554542,0.241488,99,99,0,0,1,0,0
7,79999,52,70000,40,60000,40,9999,0.100000,99,792,0.000000,2,0.000000,22.145183,0.085454,99,99,0,0,0,0,0
7,79999,53,70000,40,60000,40,9999,0.100000,99,792,0.000000,4,0.000000,28.965861,12.026833,99,99,0,0,0,0,0
7,79999,54,70000,40,60000,40,9999,0.100000,99,792,0.000000,2,2.000000,28.883301,7.350742,99,99,0,0,0,0,0
7,79999,55,70000,40,60000,40,9999,0.100000,99,792,0.000000,3,0.000000,26.973148,6.691706,99,99,0,0,0,0,0
7,79999,56,70000,40,60000,40,9999,0.100000,99,792,0.000000,3,2.000000,30.574605,9.612018,99,99,0,0,0,0,0
7,79999,57,70000,40,60000,41,9999,0.100000,99,792,0.000000,3,5.000000,25.765647,8.465337,99,99,0,0,0,0,0
7,79999,58,70000,40,60000,40,9999,0.100000,99,792,0.000000,1,0.000000,30.323603,1.109420,99,99,0,0,0,0,0
7,79999,59,70000,40,60000,40,9999,0.100000,99,792,0.000000,2,0.000000,12.465540,5.236745,99,99,0,0,0,0,0
7,79999,60,70000,40,60000,40,9999,0.100000,99,792,0.000000,4,0.000000,13.432437,0.300698,99,99,0,0,0,0,0
7,79999,61,70000,40,60000,41,9999,0.100000,99,792,0.000000,3,3.000000,27.012945,15.507200,99,99,0,0,0,0,0
7,79999,62,70000,40,60000,40,9999,0.100000,99,792,0.000000,4,2.000000,30.124540,10.111190,99,99,0,0,0,0,0
7,79999,63,70000,40,60000,40,9999,0.100000,99,792,0.000000,3,0.000000,12.542901,0.487555,99,99,0,0,0,0,0
7,79999,64,70000,40,60000,40,9999,0.100000,99,792,0.000000,2,0.000000,20.427811,0.899190,99,99,0,0,0,0,0
7,79999,65,70000,40,60000,40,9999,0.100000,99,792,0.000000,1,2.000000,24.742615,10.093809,99,99,0,0,0,0,0
7,79999,66,70000,40,60000,41,9999,0.100000,99,792,0.000000,4,4.000000,27.840326,9.989344,99,99,0,0,0,0,0
7,79999,67,70000,40,60000,40,9999,0.100000,99,792,0.000000,2,2.000000,33.611522,5.952932,99,99,0,0,0,0,0
7,79999,68,70000,40,60000,40,9999,0.100000,99,792,0.000000,2,3.000000,35.209049,11.252665,99,99,0,0,0,0,0
7,79999,69,70000,40,60000,40,9999,0.100000,99,792,0.000000,2,0.000000,23.763615,0.474521,99,99,0,0,0,0,0
7,79999,70,70000,40,60000,40,9999,0.100000,99,792,0.000000,1,2.000000,24.679890,6.318365,99,99,0,0,0,0,0
7,79999,71,70000,40,60000,40,9999,0.100000,99,792,0.000000,2,1.000000,30.905642,2.915213,99,99,0,0,0,0,0
7,79999,72,70000,40,60000,40,9999,0.100000,99,792,0.000000,4,1.000000,24.344379,9.134332,99,99,0,0,0,0,0
7,79999,73,70000,40,60000,44,9999,0.100000,99,792,0.000000,5,9.000000,20.575648,20.466869,99,99,0,0,0,0,0
7,79999,74,70000,40,60000,40,9999,0.100000,99,792,0.000000,1,0.000000,21.758611,0.071075,99,99,0,0,0,0,0
7,79999,75,70000,40,60000,40,9999,0.100000,99,792,0.000000,1,0.000000,23.887297,0.830364,99,99,0,0,0,0,0
7,79999,76,70000,40,60000,40,9999,0.100000,99,792,0.000000,4,0.000000,30.383142,0.135889,99,99,0,0,0,0,0
7,79999,77,70000,40,60000,40,9999,0.100000,99,792,0.000000,1,2.000000,28.832501,10.847663,99,99,0,0,0,0,0
7,79999,78,70000,40,60000,40,9999,0.100000,99,792,0.000000,4,0.000000,13.614978,1.585085,99,99,0,0,0,0,0
7,79999,79,70000,40,60000,40,9999,0.100000,99,792,0.000000,4,1.000000,26.316949,7.235107,99,99,0,0,0,0,0
7,79999,80,70000,40,60000,45,9999,0.100000,99,792,0.000000,3,12.000000,20.763502,14.222279,99,99,0,0,0,0,0
7,79999,81,70000,40,60000,40,9999,0.100000,99,792,0.000000,3,2.000000,31.307848,10.449085,99,99,0,0,0,0,0
7,79999,82,70000,40,60000,40,9999,0.100000,99,792,0.000000,3,0.000000,19.908820,0.129440,99,99,0,0,0,0,0
7,79999,83,70000,40,60000,41,9999,0.100000,99,792,0.000000,1,5.000000,29.365606,10.718292,99,99,0,0,0,0,0
7,79999,84,70000,40,60000,40,9999,0.100000,99,792,0.000000,2,0.000000,21.420370,0.159292,99,99,0,0,0,0,0
7,79999,85,70000,40,60000,40,9999,0.100000,99,792,0.000000,1,0.000000,19.447638,0.137424,99,99,0,0,0,0,0
7,79999,86,70000,40,60000,40,9999,0.100000,99,792,0.000000,3,0.000000,25.399473,1.031683,99,99,0,0,0,0,0
7,79999,87,70000,40,60000,40,9999,0.100000,99,792,0.000000,3,0.000000,28.898639,5.898531,99,99,0,0,0,0,0
7,79999,88,70000,40,60000,40,9999,0.100000,99,792,0.000000,4,0.000000,28.483657,6.511948,99,99,0,0,0,0,0
7,79999,89,70000,40,60000,40,9999,0.100000,99,792,0.000000,5,1.000000,26.837019,12.477458,99,99,0,0,0,0,0
7,79999,90,70000,40,60000,41,9999,0.100000,99,792,0.000000,2,3.000000,28.249035,7.891026,99,99,0,0,0,0,0
7,79999,91,70000,40,60000,40,9999,0.100000,99,792,0.000000,2,0.000000,21.391764,0.074668,99,99,0,0,0,0,0
7,79999,92,70000,40,60000,40,9999,0.100000,99,792,0.000000,2,0.000000,18.993114,0.872774,99,99,0,0,0,0,0
7,79999,93,70000,40,60000,40,9999,0.100000,99,792,0.000000,3,2.000000,32.871745,11.864218,99,99,0,0,0,0,0
7,79999,94,70000,40,60000,40,9999,0.100000,99,792,0.000000,2,0.000000,21.232827,0.206375,99,99,0,0,0,0,0
7,79999,95,70000,40,60000,40,9999,0.100000,99,792,0.000000,2,0.000000,20.914766,0.188922,99,99,0,0,0,0,0
7,79999,96,70000,40,60000,40,9999,0.100000,99,792,0.000000,3,0.000000,21.271918,0.175375,99,99,0,0,0,0,0
7,79999,97,70000,40,60000,40,9999,0.065000,99,792,0.000000,2,0.000000,30.339357,0.673010,99,99,0,0,0,0,0
7,79999,98,70000,40,60000,41,9999,0.100000,99,792,0.000000,4,5.000000,25.030473,19.328508,99,99,0,0,0,0,0
7,79999,99,70000,40,60000,40,9999,0.100000,99,792,0.000000,1,0.000000,12.636165,0.295691,99,99,0,0,0,0,0
8,89999,0,80000,14,70000,42,9999,0.100000,99,891,0.000000,5,6.000000,25.171654,8.755023,99,99,0,0,0,0,0
8,89999,1,80000,14,70000,43,9999,0.100000,99,891,0.000000,2,10.000000,24.343365,14.655294,99,99,0,0,0,0,0
8,89999,2,80000,14,70000,40,9999,0.100000,99,891,0.000000,3,0.000000,30.528015,0.139032,99,99,0,0,0,0,0
8,89999,3,80000,14,70000,42,9999,0.100000,99,891,0.000000,4,6.000000,24.601026,12.672533,99,99,0,0,0,0,0
8,89999,4,80000,14,70000,40,9999,0.100000,99,891,0.000000,4,0.000000,12.144038,0.996541,99,99,0,0,0,0,0
8,89999,5,80000,14,70000,40,9999,0.100000,99,891,0.000000,3,1.000000,28.309613,8.886960,99,99,0,0,0,0,0
8,89999,6,80000,14,70000,40,9999,0.100000,99,891,0.000000,3,0.000000,22.960096,0.653098,99,99,0,0,0,0,0
8,89999,7,80000,14,70000,40,9999,0.100000,99,891,0.000000,4,1.000000,28.311784,8.106224,99,99,0,0,0,0,0
8,89999,8,80000,14,70000,40,9999,0.100000,99,891,0.000000,3,0.000000,29.833997,0.065689,99,99,0,0,0,0,0
8,89999,9,80000,14,70000,40,9999,0.100000,99,891,0.000000,5,0.000000,13.597266,4.352219,99,99,0,0,0,0,0
8,89999,10,80000,14,70000,40,9999,0.100000,99,891,0.000000,4,2.000000,32.610636,10.745110,99,99,0,0,0,0,0
8,89999,11,80000,14,70000,40,9999,0.100000,99,891,0.000000,3,1.000000,14.223790,10.872876,99,99,0,0,0,0,0
8,89999,12,80000,14,70000,40,9999,0.100000,99,891,0.000000,3,0.000000,12.792675,1.234015,99,99,0,0,0,0,0
8,89999,13,80000,14,70000,40,9999,0.100000,99,891,0.000000,2,0.000000,36.340854,0.193946,99,99,0,0,0,0,0
8,89999,14,80000,27,70000,0,9999,0.100000,99,891,1.640273,3,0.000000,21.750811,0.808470,99,99,0,1,0,0,0
8,89999,15,80000,14,70000,40,9999,0.100000,99,891,0.000000,4,0.000000,21.932396,1.551116,99,99,0,0,0,0,0
8,89999,16,80000,14,70000,40,9999,0.100000,99,891,0.000000,2,0.000000,29.666431,9.909539,99,99,0,0,0,0,0
8,89999,17,80000,14,70000,40,9999,0.100000,99,891,0.000000,4,0.000000,21.371118,1.373532,99,99,0,0,0,0,0
8,89999,18,80000,14,70000,1,9999,0.100000,99,891,0.029808,5,2.000000,16.006190,6.085200,99,99,0,0,0,1,0
8,89999,19,80000,14,70000,40,9999,0.100000,99,891,0.000000,4,2.000000,29.616112,13.731505,99,99,0,0,0,0,0
8,89999,20,80000,14,70000,0,9999,0.100000,99,891,0.797650,3,0.000000,21.621185,0.224837,99,99,0,0,0,0,1
8,89999,21,80000,14,70000,40,9999,0.100000,99,891,0.000000,2,0.000000,30.889376,0.946637,99,99,0,0,0,0,0
8,89999,22,80000,14,70000,40,9999,0.100000,99,891,0.000000,5,0.000000,13.118898,3.932059,99,99,0,0,0,0,0
8,89999,23,80000,14,70000,40,9999,0.100000,99,891,0.000000,3,0.000000,30.080379,0.135228,99,99,0,0,0,0,0
8,89999,24,80000,14,70000,40,9999,0.100000,99,891,0.000000,3,0.000000,21.445363,1.059349,99,99,0,0,0,0,0
8,89999,25,80000,14,70000,41,9999,0.100000,99,891,0.000000,3,5.000000,30.496196,12.318356,99,99,0,0,0,0,0
8,89999,26,80000,14,70000,42,9999,0.100000,99,891,0.000000,4,7.000000,26.462480,14.258485,99,99,0,0,0,0,0
8,89999,27,80000,14,70000,0,9999,0.100000,99,891,0.595913,2,0.000000,31.064930,0.363344,99,99,0,0,1,0,0
8,89999,28,80000,14,70000,40,9999,0.100000,99,891,0.000000,1,0.000000,29.082809,0.642131,99,99,0,0,0,0,0
8,89999,29,80000,14,70000,40,9999,0.100000,99,891,0.000000,4,0.000000,26.985313,0.484804,99,99,0,0,0,0,0
8,89999,30,80000,14,70000,40,9999,0.100000,99,891,0.000000,2,2.000000,25.573635,12.120872,99,99,0,0,0,0,0
8,89999,31,80000,14,70000,40,9999,0.100000,99,891,0.000000,4,2.000000,22.627633,6.386588,99,99,0,0,0,0,0
8,89999,32,80000,14,70000,40,9999,0.100000,99,891,0.000000,3,0.000000,13.883328,14.350451,99,99,0,0,0,0,0
8,89999,33,80000,14,70000,40,9999,0.100000,99,891,0.000000,2,1.000000,23.957119,10.395603,99,99,0,0,0,0,0
8,89999,34,80000,14,70000,40,9999,0.100000,99,891,0.000000,4,3.000000,30.510609,7.956526,99,99,0,0,0,0,0
8,89999,35,80000,14,70000,42,9999,0.100000,99,891,0.000000,5,4.000000,18.263235,6.321193,99,99,0,0,0,0,0
8,89999,36,80000,14,70000,42,9999,0.100000,99,891,0.000000,3,7.000000,32.404440,26.806459,99,99,0,0,0,0,0
8,89999,37,80000,14,70000,40,9999,0.100000,99,891,0.000000,3,1.000000,26.280367,3.602210,99,99,0,0,0,0,0
8,89999,38,80000,14,70000,0,9999,0.100000,99,891,0.092145,3,0.000000,19.199525,0.224973,99,99,0,0,0,0,1
8,89999,39,80000,14,70000,41,9999,0.100000,99,891,0.000000,4,4.000000,31.935485,9.472049,99,99,0,0,0,0,0
8,89999,40,80000,14,70000,41,9999,0.100000,99,891,0.000000,5,3.000000,27.585319,10.906240,99,99,0,0,0,0,0
8,89999,41,80000,14,70000,40,9999,0.100000,99,891,0.000000,3,0.000000,13.285520,3.358658,99,99,0,0,0,0,0
8,89999,42,80000,14,70000,40,9999,0.100000,99,891,0.000000,1,0.000000,22.903394,0.226564,99,99,0,0,0,0,0
8,89999,43,80000,14,70000,40,9999,0.100000,99,891,0.000000,1,0.000000,29.843971,1.014883,99,99,0,0,0,0,0
8,89999,44,80000,14,70000,40,9999,0.100000,99,891,0.000000,1,0.000000,29.718405,15.830700,99,99,0,0,0,0,0
8,89999,45,80000,14,70000,0,9999,0.100000,99,891,0.133906,2,0.000000,29.775460,0.341551,99,99,0,0,0,1,0
8,89999,46,80000,14,70000,41,9999,0.100000,99,891,0.000000,5,2.000000,14.461345,3.936922,99,99,0,0,0,0,0
8,89999,47,80000,14,70000,40,9999,0.100000,99,891,0.000000,3,2.000000,29.346473,7.560031,99,99,0,0,0,0,0
8,89999,48,80000,14,70000,0,9999,0.100000,99,891,0.172732,2,0.000000,21.577807,0.102076,99,99,0,0,0,0,1
8,89999,49,80000,14,70000,40,9999,0.100000,99,891,0.000000,4,1.000000,28.498712,9.484805,99,99,0,0,0,0,0
8,89999,50,80000,14,70000,40,9999,0.100000,99,891,0.000000,5,2.000000,31.216218,8.102857,99,99,0,0,0,0,0
8,89999,51,80000,14,70000,0,9999,0.100000,99,891,0.150037,2,0.000000,23.487353,0.195390,99,99,0,0,1,0,0
8,89999,52,80000,14,70000,40,9999,0.100000,99,891,0.000000,3,0.000000,22.145952,0.163247,99,99,0,0,0,0,0
8,89999,53,80000,14,70000,40,9999,0.100000,99,891,0.000000,4,3.000000,28.988788,15.675711,99,99,0,0,0,0,0
8,89999,54,80000,14,70000,40,9999,0.100000,99,891,0.000000,2,0.000000,30.907463,1.369487,99,99,0,0,0,0,0
8,89999,55,80000,14,70000,40,9999,0.100000,99,891,0.000000,3,0.000000,27.434458,6.231270,99,99,0,0,0,0,0
8,89999,56,80000,14,70000,40,9999,0.100000,99,891,0.000000,3,1.000000,29.622437,5.009422,99,99,0,0,0,0,0
8,89999,57,80000,14,70000,40,9999,0.100000,99,891,0.000000,4,0.000000,22.067073,1.364952,99,99,0,0,0,0,0
8,89999,58,80000,14,70000,40,9999,0.100000,99,891,0.000000,1,0.000000,29.909975,0.173522,99,99,0,0,0,0,0
8,89999,59,80000,14,70000,40,9999,0.100000,99,891,0.000000,2,0.000000,12.404307,1.369398,99,99,0,0,0,0,0
8,89999,60,80000,14,70000,40,9999,0.100000,99,891,0.000000,4,0.000000,13.336045,0.676318,99,99,0,0,0,0,0
8,89999,61,80000,14,70000,42,9999,0.100000,99,891,0.000000,3,7.000000,26.365372,14.250832,99,99,0,0,0,0,0
8,89999,62,80000,14,70000,40,9999,0.100000,99,891,0.000000,4,1.000000,29.322706,7.964702,99,99,0,0,0,0,0
8,89999,63,80000,14,70000,40,9999,0.100000,99,891,0.000000,3,0.000000,12.586714,0.532717,99,99,0,0,0,0,0
8,89999,64,80000,14,70000,40,9999,0.100000,99,891,0.000000,2,1.000000,19.752846,5.165069,99,99,0,0,0,0,0
8,89999,65,80000,14,70000,40,9999,0.100000,99,891,0.000000,1,0.000000,26.464242,9.591333,99,99,0,0,0,0,0
8,89999,66,80000,14,70000,40,9999,0.100000,99,891,0.000000,4,1.000000,29.201432,6.510672,99,99,0,0,0,0,0
8,89999,67,80000,14,70000,40,9999,0.100000,99,891,0.000000,2,2.000000,34.132724,7.607263,99,99,0,0,0,0,0
8,89999,68,80000,14,70000,41,9999,0.100000,99,891,0.000000,2,4.000000,33.481043,10.349958,99,99,0,0,0,0,0
8,89999,69,80000,14,70000,40,9999,0.100000,99,891,0.000000,2,0.000000,23.696988,0.440796,99,99,0,0,0,0,0
8,89999,70,80000,14,70000,43,9999,0.100000,99,891,0.000000,1,9.000000,22.732717,14.037811,99,99,0,0,0,0,0
8,89999,71,80000,14,70000,40,9999,0.100000,99,891,0.000000,2,2.000000,30.375673,5.650965,99,99,0,0,0,0,0
8,89999,72,80000,14,70000,41,9999,0.100000,99,891,0.000000,4,3.000000,23.596624,9.216549,99,99,0,0,0,0,0
8,89999,73,80000,14,70000,42,9999,0.100000,99,891,0.000000,5,8.000000,26.475766,13.153368,99,99,0,0,0,0,0
8,89999,74,80000,14,70000,40,9999,0.100000,99,891,0.000000,1,0.000000,21.759086,0.148887,99,99,0,0,0,0,0
8,89999,75,80000,14,70000,40,9999,0.100000,99,891,0.000000,1,0.000000,23.822647,0.728736,99,99,0,0,0,0,0
8,89999,76,80000,14,70000,40,9999,0.100000,99,891,0.000000,4,0.000000,30.382853,0.135257,99,99,0,0,0,0,0
8,89999,77,80000,14,70000,40,9999,0.100000,99,891,0.000000,1,3.000000,29.321761,14.961001,99,99,0,0,0,0,0
8,89999,78,80000,14,70000,40,9999,0.100000,99,891,0.000000,4,0.000000,13.207696,0.778013,99,99,0,0,0,0,0
8,89999,79,80000,14,70000,40,9999,0.100000,99,891,0.000000,4,1.000000,27.280146,9.365014,99,99,0,0,0,0,0
8,89999,80,80000,14,70000,40,9999,0.100000,99,891,0.000000,4,0.000000,27.164667,0.200283,99,99,0,0,0,0,0
8,89999,81,80000,14,70000,40,9999,0.100000,99,891,0.000000,3,3.000000,30.501849,8.989486,99,99,0,0,0,0,0
8,89999,82,80000,14,70000,40,9999,0.100000,99,891,0.000000,3,0.000000,19.895795,0.062801,99,99,0,0,0,0,0
8,89999,83,80000,14,70000,41,9999,0.100000,99,891,0.000000,2,4.000000,33.712459,8.664587,99,99,0,0,0,0,0
8,89999,84,80000,14,70000,40,9999,0.100000,99,891,0.000000,2,0.000000,21.418055,0.273701,99,99,0,0,0,0,0
8,89999,85,80000,14,70000,40,9999,0.100000,99,891,0.000000,1,0.000000,19.437656,0.163519,99,99,0,0,0,0,0
8,89999,86,80000,14,70000,40,9999,0.100000,99,891,0.000000,3,0.000000,24.613673,1.015659,99,99,0,0,0,0,0
8,89999,87,80000,14,70000,40,9999,0.100000,99,891,0.000000,3,1.000000,28.811232,9.138944,99,99,0,0,0,0,0
8,89999,88,80000,14,70000,40,9999,0.100000,99,891,0.000000,4,1.000000,28.436466,8.041335,99,99,0,0,0,0,0
8,89999,89,80000,14,70000,42,9999,0.100000,99,891,0.000000,5,7.000000,26.063509,18.992601,99,99,0,0,0,0,0
8,89999,90,80000,14,70000,40,9999,0.100000,99,891,0.000000,2,2.000000,28.988839,10.697197,99,99,0,0,0,0,0
8,89999,91,80000,14,70000,40,9999,0.100000,99,891,0.000000,2,0.000000,21.391819,0.088691,99,99,0,0,0,0,0
8,89999,92,80000,14,70000,40,9999,0.100000,99,891,0.000000,2,0.000000,18.985585,1.051155,99,99,0,0,0,0,0
8,89999,93,80000,14,70000,41,9999,0.100000,99,891,0.000000,3,4.000000,30.832608,10.863502,99,99,0,0,0,0,0
8,89999,94,80000,14,70000,40,9999,0.100000,99,891,0.000000,2,0.000000,21.205867,0.193312,99,99,0,0,0,0,0
8,89999,95,80000,14,70000,40,9999,0.100000,99,891,0.000000,2,0.000000,20.921366,1.114860,99,99,0,0,0,0,0
8,89999,96,80000,14,70000,40,9999,0.100000,99,891,0.000000,3,0.000000,21.272375,0.314165,99,99,0,0,0,0,0
8,89999,97,80000,14,70000,40,9999,0.100000,99,891,0.000000,2,0.000000,29.844511,0.217798,99,99,0,0,0,0,0
8,89999,98,80000,14,70000,40,9999,0.100000,99,891,0.000000,4,0.000000,22.897721,0.511207,99,99,0,0,0,0,0
8,89999,99,80000,14,70000,40,9999,0.100000,99,891,0.000000,1,0.000000,12.633474,0.893905,99,99,0,0,0,0,0
9,99999,0,90000,14,80000,42,9999,0.100000,99,990,0.000000,6,5.000000,18.277393,11.621560,99,99,0,0,0,0,0
9,99999,1,90000,14,80000,40,9999,0.100000,99,990,0.000000,3,0.000000,13.623521,3.361789,99,99,0,0,0,0,0
9,99999,2,90000,14,80000,40,9999,0.100000,99,990,0.000000,3,0.000000,30.527533,0.140476,99,99,0,0,0,0,0
9,99999,3,90000,14,80000,40,9999,0.100000,99,990,0.000000,4,1.000000,21.172999,2.383300,99,99,0,0,0,0,0
9,99999,4,90000,14,80000,40,9999,0.100000,99,990,0.000000,4,0.000000,12.898727,1.007366,99,99,0,0,0,0,0
9,99999,5,90000,14,80000,40,9999,0.100000,99,990,0.000000,3,1.000000,28.461683,7.222723,99,99,0,0,0,0,0
9,99999,6,90000,14,80000,40,9999,0.100000,99,990,0.000000,3,0.000000,22.902301,0.452295,99,99,0,0,0,0,0
9,99999,7,90000,14,80000,40,9999,0.100000,99,990,0.000000,4,0.000000,28.166530,8.074041,99,99,0,0,0,0,0
9,99999,8,90000,14,80000,40,9999,0.100000,99,990,0.000000,3,0.000000,29.835516,0.079462,99,99,0,0,0,0,0
9,99999,9,90000,14,80000,40,9999,0.100000,99,990,0.000000,5,0.000000,13.380125,1.861549,99,99,0,0,0,0,0
9,99999,10,90000,14,80000,40,9999,0.100000,99,990,0.000000,4,2.000000,31.232997,6.827505,99,99,0,0,0,0,0
9,99999,11,90000,14,80000,40,9999,0.100000,99,990,0.000000,3,1.000000,15.454447,16.468313,99,99,0,0,0,0,0
9,99999,12,90000,14,80000,40,9999,0.100000,99,990,0.000000,3,1.000000,12.121408,4.456964,99,99,0,0,0,0,0
9,99999,13,90000,14,80000,40,9999,0.100000,99,990,0.000000,2,0.000000,36.342113,0.203398,99,99,0,0,0,0,0
9,99999,14,90000,20,80000,0,9999,0.100000,99,990,0.917466,3,0.000000,22.327162,0.787214,99,99,0,1,0,0,0
9,99999,15,90000,14,80000,40,9999,0.100000,99,990,0.000000,4,0.000000,21.076580,7.098535,99,99,0,0,0,0,0
9,99999,16,90000,14,80000,40,9999,0.100000,99,990,0.000000,2,0.000000,29.685565,9.634807,99,99,0,0,0,0,0
9,99999,17,90000,14,80000,40,9999,0.100000,99,990,0.000000,4,0.000000,21.663699,1.755398,99,99,0,0,0,0,0
9,99999,18,90000,14,80000,0,9999,0.100000,99,990,1.917531,6,0.000000,13.167652,1.051876,99,99,0,0,0,1,0
9,99999,19,90000,14,80000,40,9999,0.100000,99,990,0.000000,4,1.000000,27.835821,10.020833,99,99,0,0,0,0,0
9,99999,20,90000,14,80000,0,9999,0.100000,99,990,2.054181,3,0.000000,21.658274,0.403548,99,99,0,0,0,0,1
9,99999,21,90000,14,80000,40,9999,0.100000,99,990,0.000000,2,0.000000,30.784084,0.940469,99,99,0,0,0,0,0
9,99999,22,90000,14,80000,40,9999,0.100000,99,990,0.000000,5,0.000000,13.339133,2.338147,99,99,0,0,0,0,0
9,99999,23,90000,14,80000,40,9999,0.100000,99,990,0.000000,3,0.000000,30.080253,0.140088,99,99,0,0,0,0,0
9,99999,24,90000,14,80000,40,9999,0.100000,99,990,0.000000,3,0.000000,21.781050,0.946493,99,99,0,0,0,0,0
9,99999,25,90000,14,80000,40,9999,0.100000,99,990,0.000000,3,1.000000,29.320690,7.164971,99,99,0,0,0,0,0
9,99999,26,90000,14,80000,41,9999,0.100000,99,990,0.000000,5,4.000000,28.582439,10.165859,99,99,0,0,0,0,0
9,99999,27,90000,14,80000,0,9999,0.100000,99,990,0.630960,2,0.000000,31.112855,0.322694,99,99,0,0,1,0,0
9,99999,28,90000,14,80000,40,9999,0.100000,99,990,0.000000,1,0.000000,29.129350,0.682411,99,99,0,0,0,0,0
9,99999,29,90000,14,80000,40,9999,0.100000,99,990,0.000000,4,0.000000,27.111888,0.464230,99,99,0,0,0,0,0
9,99999,30,90000,14,80000,40,9999,0.100000,99,990,0.000000,2,1.000000,27.557479,9.617991,99,99,0,0,0,0,0
9,99999,31,90000,14,80000,40,9999,0.100000,99,990,0.000000,4,1.000000,20.958010,3.999165,99,99,0,0,0,0,0
9,99999,32,90000,14,80000,40,9999,0.100000,99,990,0.000000,3,0.000000,13.678151,12.091926,99,99,0,0,0,0,0
9,99999,33,90000,14,80000,40,9999,0.100000,99,990,0.000000,2,2.000000,24.410370,12.934553,99,99,0,0,0,0,0
9,99999,34,90000,14,80000,40,9999,0.100000,99,990,0.000000,4,1.000000,28.950031,5.651424,99,99,0,0,0,0,0
9,99999,35,90000,14,80000,40,9999,0.100000,99,990,0.000000,5,1.000000,13.834214,6.994348,99,99,0,0,0,0,0
9,99999,36,90000,14,80000,40,9999,0.100000,99,990,0.000000,3,2.000000,24.600880,24.528380,99,99,0,0,0,0,0
9,99999,37,90000,14,80000,40,9999,0.100000,99,990,2.322175,3,1.000000,26.691328,13.774560,99,99,0,0,0,0,0
9,99999,38,90000,14,80000,41,9999,0.100000,99,990,0.000000,3,3.000000,19.204958,3.798657,99,99,0,0,0,0,0
9,99999,39,90000,14,80000,40,9999,0.100000,99,990,0.000000,4,0.000000,30.054854,6.145021,99,99,0,0,0,0,0
9,99999,40,90000,14,80000,40,9999,0.100000,99,990,0.000000,5,1.000000,24.019277,11.902281,99,99,0,0,0,0,0
9,99999,41,90000,14,80000,40,9999,0.100000,99,990,0.000000,3,0.000000,13.263909,1.478625,99,99,0,0,0,0,0
9,99999,42,90000,14,80000,40,9999,0.100000,99,990,0.000000,1,0.000000,22.872043,0.244066,99,99,0,0,0,0,0
9,99999,43,90000,14,80000,40,9999,0.100000,99,990,0.000000,1,0.000000,29.649758,0.718168,99,99,0,0,0,0,0
9,99999,44,90000,14,80000,40,9999,0.100000,99,990,0.000000,2,0.000000,29.633539,21.352185,99,99,0,0,0,0,0
9,99999,45,90000,14,80000,40,9999,0.100000,99,990,0.000000,3,0.000000,29.659069,0.261881,99,99,0,0,0,0,0
9,99999,46,90000,14,80000,40,9999,0.100000,99,990,0.000000,5,1.000000,12.128843,7.167346,99,99,0,0,0,0,0
9,99999,47,90000,14,80000,40,9999,0.100000,99,990,0.000000,3,2.000000,29.410594,7.732682,99,99,0,0,0,0,0
9,99999,48,90000,14,80000,40,9999,0.100000,99,990,0.000000,2,0.000000,21.583460,0.134268,99,99,0,0,0,0,0
9,99999,49,90000,14,80000,40,9999,0.100000,99,990,0.000000,4,1.000000,28.388248,11.418305,99,99,-1,0,0,0,0
9,99999,50,90000,14,80000,40,9999,0.100000,99,990,0.000000,5,2.000000,31.103621,6.419257,99,99,0,0,0,0,0
9,99999,51,90000,14,80000,40,9999,0.100000,99,990,0.000000,2,0.000000,23.445222,0.169844,99,99,0,0,0,0,0
9,99999,52,90000,14,80000,0,9999,0.100000,99,990,0.471507,3,0.000000,22.179225,0.273516,99,99,0,0,0,0,1
9,99999,53,90000,14,80000,40,9999,0.100000,99,990,0.000000,4,0.000000,27.962590,6.682567,99,99,0,0,0,0,0
9,99999,54,90000,14,80000,40,9999,0.100000,99,990,0.000000,2,0.000000,30.999068,0.586056,99,99,0,0,0,0,0
9,99999,55,90000,14,80000,41,9999,0.100000,99,990,0.000000,3,3.000000,27.490343,12.355770,99,99,0,0,0,0,0
9,99999,56,90000,14,80000,42,9999,0.100000,99,990,0.000000,3,8.000000,29.072644,53.718904,99,99,0,0,0,0,0
9,99999,57,90000,14,80000,40,9999,0.100000,99,990,0.000000,4,0.000000,21.096812,6.158071,99,99,0,0,0,0,0
9,99999,58,90000,14,80000,0,9999,0.100000,99,990,0.183391,1,0.000000,29.825436,0.130827,99,99,0,0,0,1,0
9,99999,59,90000,14,80000,41,9999,0.100000,99,990,0.000000,2,2.000000,12.435330,4.891940,99,99,0,0,0,0,0
9,99999,60,90000,14,80000,40,9999,0.100000,99,990,0.000000,4,0.000000,13.468450,0.753027,99,99,0,0,0,0,0
9,99999,61,90000,14,80000,41,9999,0.100000,99,990,0.000000,4,4.000000,28.471459,10.267803,99,99,0,0,0,0,0
9,99999,62,90000,14,80000,40,9999,0.100000,99,990,0.000000,4,1.000000,28.921273,4.905743,99,99,0,0,0,0,0
9,99999,63,90000,14,80000,40,9999,0.100000,99,990,0.000000,3,0.000000,12.807486,0.261999,99,99,0,0,0,0,0
9,99999,64,90000,14,80000,40,9999,0.100000,99,990,0.000000,2,0.000000,20.770370,12.407351,99,99,0,0,0,0,0
9,99999,65,90000,14,80000,40,9999,0.100000,99,990,0.000000,1,1.000000,26.862244,8.737112,99,99,0,0,0,0,0
9,99999,66,90000,14,80000,40,9999,0.100000,99,990,0.000000,4,2.000000,28.705969,7.629990,99,99,0,0,0,0,0
9,99999,67,90000,14,80000,41,9999,0.100000,99,990,0.000000,2,5.000000,36.040524,8.552729,99,99,0,0,0,0,0
9,99999,68,90000,14,80000,40,9999,0.100000,99,990,0.000000,2,3.000000,31.503283,9.317678,99,99,0,0,0,0,0
9,99999,69,90000,14,80000,0,9999,0.100000,99,990,0.214110,2,0.000000,23.652150,0.414944,99,99,0,0,1,0,0
9,99999,70,90000,14,80000,40,9999,0.100000,99,990,0.000000,2,1.000000,13.327521,4.127077,99,99,0,0,0,0,0
9,99999,71,90000,14,80000,40,9999,0.100000,99,990,0.000000,2,2.000000,29.138462,4.871760,99,99,0,0,0,0,0
9,99999,72,90000,14,80000,40,9999,0.100000,99,990,0.000000,4,1.000000,22.314460,12.626589,99,99,0,0,0,0,0
9,99999,73,90000,14,80000,40,9999,0.100000,99,990,0.000000,5,0.000000,22.681786,0.332447,99,99,0,0,0,0,0
9,99999,74,90000,14,80000,40,9999,0.100000,99,990,0.000000,1,0.000000,21.775140,0.185126,99,99,0,0,0,0,0
9,99999,75,90000,14,80000,40,9999,0.100000,99,990,0.000000,1,0.000000,23.777034,0.546479,99,99,0,0,0,0,0
9,99999,76,90000,14,80000,40,9999,0.100000,99,990,0.000000,4,0.000000,30.382602,0.136539,99,99,0,0,0,0,0
9,99999,77,90000,14,80000,41,9999,0.100000,99,990,0.000000,2,4.000000,27.096022,6.877549,99,99,0,0,0,0,0
9,99999,78,90000,14,80000,40,9999,0.100000,99,990,0.000000,4,0.000000,13.356232,1.069867,99,99,0,0,0,0,0
9,99999,79,90000,14,80000,40,9999,0.100000,99,990,0.000000,4,2.000000,27.158209,8.483339,99,99,0,0,0,0,0
9,99999,80,90000,14,80000,40,9999,0.100000,99,990,0.000000,4,0.000000,27.291259,0.194739,99,99,0,0,0,0,0
9,99999,81,90000,14,80000,40,9999,0.100000,99,990,0.000000,3,2.000000,29.259393,6.935463,99,99,0,0,0,0,0
9,99999,82,90000,14,80000,0,9999,0.100000,99,990,15.633583,3,2.000000,19.899382,3.006329,99,99,0,0,0,0,1
9,99999,83,90000,14,80000,41,9999,0.100000,99,990,0.000000,2,5.000000,34.525924,10.253792,99,99,0,0,0,0,0
9,99999,84,90000,14,80000,40,9999,0.100000,99,990,0.000000,2,0.000000,21.433872,0.503521,99,99,0,0,0,0,0
9,99999,85,90000,14,80000,41,9999,0.100000,99,990,0.000000,1,3.000000,19.443443,3.517822,99,99,0,0,0,0,0
9,99999,86,90000,14,80000,40,9999,0.100000,99,990,0.000000,3,0.000000,23.850420,0.987229,99,99,0,0,0,0,0
9,99999,87,90000,14,80000,40,9999,0.100000,99,990,0.000000,3,0.000000,28.517792,4.948092,99,99,0,0,0,0,0
9,99999,88,90000,14,80000,40,9999,0.100000,99,990,0.000000,4,1.000000,28.444813,7.469098,99,99,0,0,0,0,0
9,99999,89,90000,14,80000,42,9999,0.100000,99,990,0.000000,6,8.000000,26.702846,16.723514,99,99,0,0,0,0,0
9,99999,90,90000,14,80000,40,9999,0.100000,99,990,0.000000,2,2.000000,26.173515,6.345719,99,99,0,0,0,0,0
9,99999,91,90000,14,80000,40,9999,0.100000,99,990,0.000000,2,0.000000,21.387934,0.105261,99,99,0,0,0,0,0
9,99999,92,90000,14,80000,41,9999,0.100000,99,990,0.000000,2,3.000000,19.029881,3.976324,99,99,0,0,0,0,0
9,99999,93,90000,14,80000,40,9999,0.100000,99,990,0.000000,3,0.000000,29.631787,8.742527,99,99,0,0,0,0,0
9,99999,94,90000,14,80000,40,9999,0.100000,99,990,0.000000,2,0.000000,21.178313,0.179867,99,99,0,0,0,0,0
9,99999,95,90000,14,80000,40,9999,0.100000,99,990,0.000000,2,0.000000,20.880125,2.205560,99,99,0,0,0,0,0
9,99999,96,90000,14,80000,40,9999,0.100000,99,990,0.000000,3,0.000000,21.268773,0.583344,99,99,0,0,0,0,0
9,99999,97,90000,14,80000,40,9999,0.100000,99,990,0.000000,2,0.000000,29.745255,0.131281,99,99,0,0,0,0,0
9,99999,98,90000,14,80000,40,9999,0.100000,99,990,0.000000,4,0.000000,22.900125,0.365397,99,99,0,0,0,0,0
9,99999,99,90000,14,80000,41,9999,0.100000,99,990,0.000000,1,2.000000,12.460099,4.300875,99,99,0,0,0,0,0
10,109999,0,100000,82,90000,40,9999,0.100000,99,1089,0.000000,6,1.000000,12.673978,13.606995,99,99,0,0,0,0,0
10,109999,1,100000,82,90000,41,9999,0.100000,99,1089,0.000000,3,2.000000,13.857202,9.405439,99,99,0,0,0,0,0
10,109999,2,100000,82,90000,40,9999,0.100000,99,1089,0.000000,3,0.000000,30.527279,0.139721,99,99,0,0,0,0,0
10,109999,3,100000,82,90000,40,9999,0.100000,99,1089,0.000000,4,0.000000,22.194963,0.967991,99,99,0,0,0,0,0
10,109999,4,100000,82,90000,40,9999,0.100000,99,1089,0.000000,4,0.000000,13.671038,1.018321,99,99,0,0,0,0,0
10,109999,5,100000,82,90000,41,9999,0.100000,99,1089,0.000000,3,3.000000,26.774333,8.457557,99,99,0,0,0,0,0
10,109999,6,100000,82,90000,40,9999,0.100000,99,1089,0.000000,3,0.000000,22.909078,0.488825,99,99,0,0,0,0,0
10,109999,7,100000,82,90000,40,9999,0.100000,99,1089,0.000000,4,0.000000,28.173312,8.448456,99,99,0,0,0,0,0
10,109999,8,100000,82,90000,40,9999,0.100000,99,1089,0.000000,3,0.000000,29.841463,0.089295,99,99,0,0,0,0,0
10,109999,9,100000,82,90000,41,9999,0.100000,99,1089,0.000000,5,2.000000,13.216455,5.695059,99,99,0,0,0,0,0
10,109999,10,100000,82,90000,40,9999,0.100000,99,1089,0.000000,4,0.000000,30.101492,7.994448,99,99,0,0,0,0,0
10,109999,11,100000,82,90000,41,9999,0.100000,99,1089,0.000000,3,2.000000,14.400400,8.414886,99,99,0,0,0,0,0
10,109999,12,100000,82,90000,40,9999,0.100000,99,1089,0.000000,3,0.000000,10.293498,0.162685,99,99,0,0,0,0,0
10,109999,13,100000,82,90000,40,9999,0.100000,99,1089,0.000000,2,0.000000,36.342275,0.216566,99,99,0,0,0,0,0
10,109999,14,100000,82,90000,0,9999,0.100000,99,1089,2.807309,3,0.000000,22.989214,1.096297,99,99,0,1,0,0,0
10,109999,15,100000,82,90000,40,9999,0.100000,99,1089,0.000000,4,0.000000,21.256067,4.587351,99,99,0,0,0,0,0
10,109999,16,100000,82,90000,40,9999,0.100000,99,1089,0.000000,2,0.000000,29.725544,9.955859,99,99,0,0,0,0,0
10,109999,17,100000,82,90000,40,9999,0.100000,99,1089,0.000000,4,0.000000,21.801418,1.409348,99,99,0,0,0,0,0
10,109999,18,100000,82,90000,0,9999,0.100000,99,1089,2.295467,6,0.000000,12.848759,0.944688,99,99,0,0,0,1,0
10,109999,19,100000,82,90000,40,9999,0.100000,99,1089,0.000000,4,3.000000,28.617558,12.111816,99,99,0,0,0,0,0
10,109999,20,100000,82,90000,0,9999,0.100000,99,1089,0.853734,3,0.000000,21.753660,0.258177,99,99,0,0,0,0,1
10,109999,21,100000,82,90000,40,9999,0.100000,99,1089,0.000000,2,0.000000,30.682263,0.952014,99,99,0,0,0,0,0
10,109999,22,100000,82,90000,40,9999,0.100000,99,1089,0.000000,5,0.000000,13.207495,3.206219,99,99,0,0,0,0,0
10,109999,23,100000,82,90000,40,9999,0.100000,99,1089,0.000000,3,0.000000,30.079967,0.137283,99,99,0,0,0,0,0
10,109999,24,100000,82,90000,40,9999,0.100000,99,1089,0.000000,3,0.000000,22.416053,1.404608,99,99,0,0,0,0,0
10,109999,25,100000,82,90000,40,9999,0.100000,99,1089,0.000000,3,1.000000,28.842725,9.230546,99,99,0,0,0,0,0
10,109999,26,100000,82,90000,40,9999,0.100000,99,1089,0.000000,5,0.000000,26.738648,2.465347,99,99,0,0,0,0,0
10,109999,27,100000,82,90000,40,9999,0.100000,99,1089,0.000000,2,0.000000,31.197824,3.158121,99,99,0,0,0,0,0
10,109999,28,100000,82,90000,40,9999,0.100000,99,1089,0.000000,1,0.000000,29.184293,0.657651,99,99,0,0,0,0,0
10,109999,29,100000,82,90000,40,9999,0.100000,99,1089,0.000000,4,0.000000,27.236800,0.469968,99,99,0,0,0,0,0
10,109999,30,100000,82,90000,40,9999,0.100000,99,1089,0.000000,2,1.000000,27.820193,12.084231,99,99,0,0,0,0,0
10,109999,31,100000,82,90000,40,9999,0.100000,99,1089,0.000000,4,0.000000,22.009200,2.415192,99,99,0,0,0,0,0
10,109999,32,100000,82,90000,41,9999,0.100000,99,1089,0.000000,3,2.000000,14.096377,8.925065,99,99,0,0,0,0,0
10,109999,33,100000,82,90000,42,9999,0.100000,99,1089,0.000000,2,6.000000,26.836317,18.271314,99,99,0,0,0,0,0
10,109999,34,100000,82,90000,40,9999,0.100000,99,1089,0.000000,4,0.000000,28.545141,2.051774,99,99,0,0,0,0,0
10,109999,35,100000,82,90000,40,9999,0.100000,99,1089,0.000000,5,0.000000,13.018894,1.495169,99,99,0,0,0,0,0
10,109999,36,100000,82,90000,40,9999,0.100000,99,1089,0.000000,3,0.000000,22.748254,23.704712,99,99,0,0,0,0,0
10,109999,37,100000,82,90000,90,9999,0.100000,99,1089,5.635403,3,1.000000,27.464447,9.061897,99,99,1,0,0,0,0
10,109999,38,100000,82,90000,0,9999,0.100000,99,1089,0.006654,3,2.000000,21.564978,2.370883,99,99,0,0,0,0,1
10,109999,39,100000,82,90000,40,9999,0.100000,99,1089,0.000000,4,0.000000,29.732480,8.170604,99,99,0,0,0,0,0
10,109999,40,100000,82,90000,90,9999,0.100000,99,1089,0.000000,5,2.000000,25.359450,13.227469,99,99,1,0,0,0,0
10,109999,41,100000,82,90000,40,9999,0.100000,99,1089,0.000000,3,0.000000,13.083176,7.036372,99,99,0,0,0,0,0
10,109999,42,100000,82,90000,40,9999,0.100000,99,1089,0.000000,1,0.000000,22.837544,0.255083,99,99,0,0,0,0,0
10,109999,43,100000,82,90000,40,9999,0.100000,99,1089,0.000000,1,0.000000,29.638655,0.891706,99,99,0,0,0,0,0
10,109999,44,100000,82,90000,40,9999,0.100000,99,1089,0.000000,2,0.000000,29.665507,19.032991,99,99,0,0,0,0,0
10,109999,45,100000,82,90000,0,9999,0.100000,99,1089,0.213816,3,0.000000,29.644561,0.335766,99,99,0,0,0,1,0
10,109999,46,100000,82,90000,41,9999,0.100000,99,1089,0.000000,5,2.000000,13.081374,9.020433,99,99,0,0,0,0,0
10,109999,47,100000,82,90000,40,9999,0.100000,99,1089,0.000000,3,1.000000,28.667224,8.547575,99,99,0,0,0,0,0
10,109999,48,100000,82,90000,0,9999,0.100000,99,1089,0.908662,2,0.000000,21.605698,0.221911,99,99,0,0,0,0,1
10,109999,49,100000,82,90000,40,9999,0.100000,99,1089,8.397225,4,1.000000,28.053387,10.385234,99,99,-1,0,0,0,0
10,109999,50,100000,82,90000,40,9999,0.100000,99,1089,0.000000,5,2.000000,29.932084,10.570309,99,99,0,0,0,0,0
10,109999,51,100000,82,90000,0,9999,0.100000,99,1089,0.182516,2,0.000000,23.404190,0.175730,99,99,0,0,1,0,0
10,109999,52,100000,82,90000,40,9999,0.100000,99,1089,0.000000,3,0.000000,22.240969,0.956851,99,99,0,0,0,0,0
10,109999,53,100000,82,90000,40,9999,0.100000,99,1089,0.000000,4,2.000000,28.255041,6.927270,99,99,0,0,0,0,0
10,109999,54,100000,82,90000,40,9999,0.100000,99,1089,0.000000,2,0.000000,31.118967,2.231099,99,99,0,0,0,0,0
10,109999,55,100000,82,90000,40,9999,0.100000,99,1089,0.000000,3,3.000000,30.223518,7.131024,99,99,0,0,0,0,0
10,109999,56,100000,82,90000,40,9999,0.100000,99,1089,0.000000,4,1.000000,29.297800,9.860991,99,99,0,0,0,0,0
10,109999,57,100000,82,90000,40,9999,0.100000,99,1089,0.000000,4,0.000000,21.810014,2.141554,99,99,0,0,0,0,0
10,109999,58,100000,82,90000,40,9999,0.100000,99,1089,0.000000,2,0.000000,29.796233,0.178300,99,99,0,0,0,0,0
10,109999,59,100000,82,90000,40,9999,0.100000,99,1089,0.000000,3,0.000000,13.611652,2.036763,99,99,0,0,0,0,0
10,109999,60,100000,82,90000,40,9999,0.100000,99,1089,0.000000,4,0.000000,13.505761,0.936886,99,99,0,0,0,0,0
10,109999,61,100000,82,90000,40,9999,0.100000,99,1089,0.000000,4,0.000000,26.637379,2.608278,99,99,0,0,0,0,0
10,109999,62,100000,82,90000,41,9999,0.065000,99,1089,0.000000,4,3.000000,28.458219,10.386557,99,99,0,0,0,0,0
10,109999,63,100000,82,90000,40,9999,0.100000,99,1089,0.000000,3,0.000000,12.799874,0.227092,99,99,0,0,0,0,0
10,109999,64,100000,82,90000,40,9999,0.100000,99,1089,0.000000,2,1.000000,19.958934,5.953129,99,99,0,0,0,0,0
10,109999,65,100000,82,90000,40,9999,0.100000,99,1089,0.000000,1,2.000000,27.947735,22.343118,99,99,0,0,0,0,0
10,109999,66,100000,82,90000,40,9999,0.100000,99,1089,0.000000,4,1.000000,28.247102,9.292597,99,99,0,0,0,0,0
10,109999,67,100000,82,90000,40,9999,0.100000,99,1089,0.000000,3,0.000000,32.600399,5.766021,99,99,0,0,0,0,0
10,109999,68,100000,82,90000,41,9999,0.100000,99,1089,0.000000,2,5.000000,28.068819,12.570469,99,99,0,0,0,0,0
10,109999,69,100000,82,90000,40,9999,0.100000,99,1089,0.000000,2,0.000000,23.609300,0.418905,99,99,0,0,0,0,0
10,109999,70,100000,82,90000,40,9999,0.100000,99,1089,0.000000,2,0.000000,12.328734,2.928644,99,99,0,0,0,0,0
10,109999,71,100000,82,90000,40,9999,0.100000,99,1089,0.000000,2,0.000000,28.352984,2.923820,99,99,0,0,0,0,0
10,109999,72,100000,82,90000,40,9999,0.100000,99,1089,0.000000,4,1.000000,20.951068,12.612997,99,99,0,0,0,0,0
10,109999,73,100000,82,90000,40,9999,0.100000,99,1089,0.000000,5,0.000000,22.622961,0.637030,99,99,0,0,0,0,0
10,109999,74,100000,82,90000,40,9999,0.065000,99,1089,0.000000,1,0.000000,21.814387,0.260365,99,99,0,0,0,0,0
10,109999,75,100000,82,90000,40,9999,0.100000,99,1089,0.000000,1,0.000000,23.734361,0.547319,99,99,0,0,0,0,0
10,109999,76,100000,82,90000,40,9999,0.100000,99,1089,0.000000,4,0.000000,30.382289,0.132853,99,99,0,0,0,0,0
10,109999,77,100000,82,90000,40,9999,0.100000,99,1089,0.000000,2,0.000000,23.344341,7.407629,99,99,0,0,0,0,0
10,109999,78,100000,82,90000,40,9999,0.100000,99,1089,0.000000,4,0.000000,13.295351,0.952994,99,99,0,0,0,0,0
10,109999,79,100000,82,90000,40,9999,0.100000,99,1089,0.000000,4,1.000000,26.487706,8.536685,99,99,0,0,0,0,0
10,109999,80,100000,82,90000,40,9999,0.100000,99,1089,0.000000,4,0.000000,27.416153,0.194272,99,99,0,0,0,0,0
10,109999,81,100000,82,90000,41,9999,0.100000,99,1089,0.000000,3,4.000000,26.631392,13.049496,99,99,0,0,0,0,0
10,109999,82,100000,37,90000,40,9999,0.100000,99,1089,0.000000,3,1.000000,21.569567,1.886561,99,99,0,0,0,0,0
10,109999,83,100000,82,90000,40,9999,0.100000,99,1089,0.000000,2,1.000000,31.545177,7.248536,99,99,0,0,0,0,0
10,109999,84,100000,82,90000,40,9999,0.100000,99,1089,0.000000,2,0.000000,21.493682,0.268690,99,99,0,0,0,0,0
10,109999,85,100000,82,90000,40,9999,0.100000,99,1089,0.000000,2,2.000000,21.555970,2.278061,99,99,0,0,0,0,0
10,109999,86,100000,82,90000,40,9999,0.100000,99,1089,0.000000,3,0.000000,23.094611,0.752103,99,99,0,0,0,0,0
10,109999,87,100000,82,90000,40,9999,0.100000,99,1089,0.000000,3,2.000000,28.490186,7.208339,99,99,0,0,0,0,0
10,109999,88,100000,82,90000,40,9999,0.100000,99,1089,0.000000,4,0.000000,28.020354,5.470878,99,99,0,0,0,0,0
10,109999,89,100000,82,90000,40,9999,0.100000,99,1089,0.000000,7,0.000000,22.198432,2.087499,99,99,0,0,0,0,0
10,109999,90,100000,82,90000,40,9999,0.100000,99,1089,0.000000,2,0.000000,26.736711,2.385281,99,99,0,0,0,0,0
10,109999,91,100000,82,90000,40,9999,0.100000,99,1089,0.000000,2,0.000000,21.395144,0.174681,99,99,0,0,0,0,0
10,109999,92,100000,82,90000,40,9999,0.100000,99,1089,0.000000,3,2.000000,21.580577,2.493806,99,99,0,0,0,0,0
10,109999,93,100000,82,90000,40,9999,0.100000,99,1089,0.000000,3,2.000000,29.156352,10.888396,99,99,0,0,0,0,0
10,109999,94,100000,82,90000,40,9999,0.100000,99,1089,0.000000,2,0.000000,21.147660,0.187169,99,99,0,0,0,0,0
10,109999,95,100000,82,90000,40,9999,0.100000,99,1089,0.000000,2,0.000000,20.846496,1.208517,99,99,0,0,0,0,0
10,109999,96,100000,82,90000,40,9999,0.100000,99,1089,0.000000,3,0.000000,21.292094,0.301510,99,99,0,0,0,0,0
10,109999,97,100000,82,90000,40,9999,0.100000,99,1089,0.000000,2,0.000000,29.722249,0.188553,99,99,0,0,0,0,0
10,109999,98,100000,82,90000,40,9999,0.100000,99,1089,0.000000,4,0.000000,22.918841,0.410050,99,99,0,0,0,0,0
10,109999,99,100000,82,90000,41,9999,0.100000,99,1089,0.000000,2,2.000000,10.860978,21.358711,99,99,0,0,0,0,0
11,119999,0,110000,49,100000,43,9999,0.100000,99,1188,0.000000,6,5.000000,13.886006,7.257067,99,99,0,0,0,0,0
11,119999,1,110000,49,100000,41,9999,0.100000,99,1188,0.000000,3,3.000000,14.506830,8.203398,99,99,0,0,0,0,0
11,119999,2,110000,49,100000,40,9999,0.100000,99,1188,0.000000,3,0.000000,30.527091,0.137176,99,99,0,0,0,0,0
11,119999,3,110000,49,100000,40,9999,0.100000,99,1188,0.000000,4,0.000000,22.696166,0.707895,99,99,0,0,0,0,0
11,119999,4,110000,49,100000,40,9999,0.100000,99,1188,0.000000,4,0.000000,14.453140,0.984593,99,99,0,0,0,0,0
11,119999,5,110000,49,100000,40,9999,0.100000,99,1188,0.000000,3,0.000000,23.986089,3.996155,99,99,0,0,0,0,0
11,119999,6,110000,49,100000,40,9999,0.100000,99,1188,0.000000,3,0.000000,22.863705,0.579011,99,99,0,0,0,0,0
11,119999,7,110000,49,100000,40,9999,0.100000,99,1188,0.000000,4,0.000000,28.206242,6.445194,99,99,0,0,0,0,0
11,119999,8,110000,49,100000,40,9999,0.100000,99,1188,0.000000,3,0.000000,29.841473,0.088828,99,99,0,0,0,0,0
11,119999,9,110000,49,100000,40,9999,0.100000,99,1188,0.000000,5,0.000000,14.006961,0.411624,99,99,0,0,0,0,0
11,119999,10,110000,49,100000,40,9999,0.100000,99,1188,0.000000,4,0.000000,30.169001,7.278501,99,99,0,0,0,0,0
11,119999,11,110000,49,100000,40,9999,0.100000,99,1188,0.000000,3,1.000000,14.183054,6.097606,99,99,0,0,0,0,0
11,119999,12,110000,49,100000,40,9999,0.100000,99,1188,0.000000,3,0.000000,10.254751,0.111962,99,99,0,0,0,0,0
11,119999,13,110000,49,100000,40,9999,0.100000,99,1188,0.000000,2,0.000000,36.341979,0.212550,99,99,0,0,0,0,0
11,119999,14,110000,49,100000,0,9999,0.100000,99,1188,4.238760,3,0.000000,23.903828,1.129557,99,99,0,1,0,0,0
11,119999,15,110000,49,100000,40,9999,0.100000,99,1188,0.000000,4,0.000000,21.589621,2.273452,99,99,0,0,0,0,0
11,119999,16,110000,49,100000,40,9999,0.100000,99,1188,0.000000,2,0.000000,29.789663,9.224229,99,99,0,0,0,0,0
11,119999,17,110000,49,100000,40,9999,0.100000,99,1188,0.000000,4,1.000000,22.060520,8.690222,99,99,0,0,0,0,0
11,119999,18,110000,49,100000,0,9999,0.100000,99,1188,0.933300,6,0.000000,12.529910,0.828641,99,99,0,0,0,1,0
11,119999,19,110000,49,100000,43,9999,0.100000,99,1188,0.000000,5,10.000000,25.007446,12.552718,99,99,0,0,0,0,0
11,119999,20,110000,49,100000,0,9999,0.100000,99,1188,0.375053,3,0.000000,21.799274,0.204054,99,99,0,0,0,0,1
11,119999,21,110000,49,100000,40,9999,0.100000,99,1188,0.000000,2,0.000000,30.581200,0.922112,99,99,0,0,0,0,0
11,119999,22,110000,49,100000,40,9999,0.100000,99,1188,0.000000,5,0.000000,12.775801,0.642573,99,99,0,0,0,0,0
11,119999,23,110000,49,100000,40,9999,0.100000,99,1188,0.000000,3,0.000000,30.079846,0.134303,99,99,0,0,0,0,0
11,119999,24,110000,49,100000,40,9999,0.100000,99,1188,0.000000,3,1.000000,23.356173,1.433085,99,99,0,0,0,0,0
11,119999,25,110000,49,100000,40,9999,0.100000,99,1188,0.000000,3,1.000000,28.733445,9.447448,99,99,0,0,0,0,0
11,119999,26,110000,49,100000,40,9999,0.100000,99,1188,0.000000,5,0.000000,26.815329,1.909145,99,99,0,0,0,0,0
11,119999,27,110000,49,100000,40,9999,0.100000,99,1188,0.000000,2,0.000000,31.296934,0.723602,99,99,0,0,0,0,0
11,119999,28,110000,49,100000,40,9999,0.100000,99,1188,0.000000,1,0.000000,29.244547,0.627718,99,99,0,0,0,0,0
11,119999,29,110000,49,100000,40,9999,0.100000,99,1188,0.000000,4,0.000000,27.360694,0.456206,99,99,0,0,0,0,0
11,119999,30,110000,49,100000,40,9999,0.100000,99,1188,0.000000,2,2.000000,28.363916,10.304794,99,99,0,0,0,0,0
11,119999,31,110000,49,100000,40,9999,0.100000,99,1188,0.000000,4,1.000000,21.726482,2.361961,99,99,0,0,0,0,0
11,119999,32,110000,49,100000,44,9999,0.100000,99,1188,0.000000,3,6.000000,13.354736,12.037996,99,99,0,0,0,0,0
11,119999,33,110000,49,100000,40,9999,0.100000,99,1188,0.000000,2,0.000000,33.228288,0.232869,99,99,0,0,0,0,0
11,119999,34,110000,49,100000,40,9999,0.100000,99,1188,0.000000,4,1.000000,28.093699,11.571820,99,99,0,0,0,0,0
11,119999,35,110000,49,100000,40,9999,0.100000,99,1188,0.000000,5,1.000000,12.608206,6.070474,99,99,0,0,0,0,0
11,119999,36,110000,49,100000,0,9999,0.135000,99,1188,0.997836,3,0.000000,22.570988,3.756263,99,99,0,0,0,0,1
11,119999,37,110000,49,100000,40,9999,0.100000,99,1188,0.000000,3,0.000000,27.840205,5.001515,99,99,0,0,0,0,0
11,119999,38,110000,49,100000,0,9999,0.100000,99,1188,0.000372,3,0.000000,23.763441,0.086592,99,99,0,0,0,0,1
11,119999,39,110000,49,100000,40,9999,0.100000,99,1188,0.000000,4,1.000000,29.675612,7.122947,99,99,0,0,0,0,0
11,119999,40,110000,49,100000,40,9999,0.100000,99,1188,0.000000,5,0.000000,28.024084,9.994353,99,99,0,0,0,0,0
11,119999,41,110000,49,100000,40,9999,0.100000,99,1188,0.000000,3,1.000000,12.687738,10.288754,99,99,0,0,0,0,0
11,119999,42,110000,49,100000,40,9999,0.065000,99,1188,0.000000,1,0.000000,22.802244,0.240937,99,99,0,0,0,0,0
11,119999,43,110000,49,100000,40,9999,0.100000,99,1188,0.000000,1,0.000000,29.581502,0.793895,99,99,0,0,0,0,0
11,119999,44,110000,49,100000,40,9999,0.100000,99,1188,0.000000,2,0.000000,29.252625,0.506945,99,99,0,0,0,0,0
11,119999,45,110000,49,100000,0,9999,0.100000,99,1188,0.304693,3,0.000000,29.587469,0.271698,99,99,0,0,0,1,0
11,119999,46,110000,49,100000,40,9999,0.100000,99,1188,0.000000,5,0.000000,14.599729,8.103821,99,99,0,0,0,0,0
