generation,iteration,robot,birthday,ancestor_id,ancestor_birthday,cell_id,age,sigma,maps,genomes,fitness,cells_in_map,dist_max,dist_pot_max,dist_total,com_rx,com_tx,obj_group1,obj_group2,obj_group3,obj_group4,obj_group5
0,9999,0,0,0,0,41,9999,0.100000,99,0,0.000000,0,5.000000,24.736350,9.092606,99,99,0,0,0,0,0
0,9999,1,0,1,0,0,9999,0.100000,99,0,0.366730,0,0.000000,28.045851,0.634415,99,99,0,0,0,0,1
0,9999,2,0,2,0,40,9999,0.100000,99,0,0.000000,0,1.000000,31.472308,6.578094,99,99,0,0,0,0,0
0,9999,3,0,3,0,40,9999,0.100000,99,0,0.000000,0,1.000000,28.815153,1.715168,99,99,0,0,0,0,0
0,9999,4,0,4,0,0,9999,0.100000,99,0,0.019066,0,0.000000,20.689247,0.404918,99,99,0,0,0,0,1
0,9999,5,0,5,0,41,9999,0.100000,99,0,0.000000,0,3.000000,18.902247,14.571939,99,99,0,0,0,0,0
0,9999,6,0,6,0,40,9999,0.100000,99,0,0.000000,0,1.000000,31.446212,16.282955,99,99,0,0,0,0,0
0,9999,7,0,7,0,40,9999,0.100000,99,0,0.000000,0,0.000000,30.024984,5.768063,99,99,0,0,0,0,0
0,9999,8,0,8,0,41,9999,0.100000,99,0,0.000000,0,4.000000,28.970767,7.780235,99,99,0,0,0,0,0
0,9999,9,0,9,0,0,9999,0.100000,99,0,0.573885,0,0.000000,27.426417,0.295547,99,99,0,1,0,0,0
0,9999,10,0,10,0,0,9999,0.100000,99,0,0.107089,0,0.000000,25.697452,2.791199,99,99,0,0,1,0,0
0,9999,11,0,11,0,0,9999,0.100000,99,0,0.051479,0,2.000000,30.330273,5.030372,99,99,0,0,0,0,1
0,9999,12,0,12,0,1,9999,0.100000,99,0,0.013439,0,3.000000,18.490583,5.161501,99,99,0,0,0,0,1
0,9999,13,0,13,0,0,9999,0.100000,99,0,0.024365,0,0.000000,22.983836,1.566792,99,99,0,0,0,0,1
0,9999,14,0,14,0,0,9999,0.100000,99,0,0.900516,0,2.000000,29.226284,3.088579,99,99,0,0,0,1,0
0,9999,15,0,15,0,40,9999,0.100000,99,0,0.000000,0,0.000000,24.852946,4.919355,99,99,0,0,0,0,0
0,9999,16,0,16,0,40,9999,0.100000,99,0,0.000000,0,1.000000,25.592947,16.910956,99,99,0,0,0,0,0
0,9999,17,0,17,0,40,9999,0.100000,99,0,0.000000,0,1.000000,22.814055,10.333789,99,99,0,0,0,0,0
0,9999,18,0,18,0,40,9999,0.100000,99,0,0.000000,0,1.000000,29.398196,13.298741,99,99,0,0,0,0,0
0,9999,19,0,19,0,40,9999,0.100000,99,0,0.000000,0,0.000000,23.200379,5.930576,99,99,0,0,0,0,0
0,9999,20,0,20,0,41,9999,0.100000,99,0,0.000000,0,2.000000,18.336066,5.268222,99,99,0,0,0,0,0
0,9999,21,0,21,0,40,9999,0.100000,99,0,0.000000,0,2.000000,22.557468,3.836384,99,99,0,0,0,0,0
0,9999,22,0,22,0,2,9999,0.100000,99,0,0.027373,0,6.000000,25.670673,14.201992,99,99,0,0,0,1,0
0,9999,23,0,23,0,41,9999,0.100000,99,0,0.000000,0,3.000000,23.634148,14.542767,99,99,0,0,0,0,0
0,9999,24,0,24,0,40,9999,0.100000,99,0,0.000000,0,0.000000,26.735890,0.945897,99,99,0,0,0,0,0
0,9999,25,0,25,0,0,9999,0.100000,99,0,0.167358,0,1.000000,22.879829,4.065130,99,99,0,0,0,1,0
0,9999,26,0,26,0,40,9999,0.100000,99,0,0.000000,0,1.000000,24.681962,3.527070,99,99,0,0,0,0,0
0,9999,27,0,27,0,41,9999,0.100000,99,0,0.000000,0,3.000000,19.138928,8.124737,99,99,0,0,0,0,0
0,9999,28,0,28,0,43,9999,0.100000,99,0,0.000000,0,5.000000,14.275512,9.636059,99,99,0,0,0,0,0
0,9999,29,0,29,0,40,9999,0.100000,99,0,0.000000,0,0.000000,27.053152,1.144275,99,99,0,0,0,0,0
0,9999,30,0,30,0,40,9999,0.100000,99,0,0.000000,0,0.000000,28.883061,3.169715,99,99,0,0,0,0,0
0,9999,31,0,31,0,41,9999,0.100000,99,0,0.000000,0,2.000000,17.169379,8.523130,99,99,0,0,0,0,0
0,9999,32,0,32,0,40,9999,0.100000,99,0,0.000000,0,2.000000,30.362956,9.310497,99,99,0,0,0,0,0
0,9999,33,0,33,0,40,9999,0.100000,99,0,0.000000,0,1.000000,24.417004,4.834915,99,99,0,0,0,0,0
0,9999,34,0,34,0,0,9999,0.100000,99,0,0.377453,0,0.000000,18.798295,1.252076,99,99,0,0,1,0,0
0,9999,35,0,35,0,40,9999,0.100000,99,0,0.000000,0,3.000000,30.789420,15.101661,99,99,0,0,0,0,0
0,9999,36,0,36,0,40,9999,0.100000,99,0,0.000000,0,1.000000,25.204276,5.316647,99,99,0,0,0,0,0
0,9999,37,0,37,0,40,9999,0.100000,99,0,0.000000,0,1.000000,18.746428,17.583654,99,99,0,0,0,0,0
0,9999,38,0,38,0,40,9999,0.100000,99,0,0.000000,0,2.000000,30.961870,7.897862,99,99,0,0,0,0,0
0,9999,39,0,39,0,41,9999,0.100000,99,0,0.000000,0,2.000000,15.474486,10.547176,99,99,0,0,0,0,0
0,9999,40,0,40,0,40,9999,0.100000,99,0,0.000000,0,1.000000,30.630317,7.299894,99,99,0,0,0,0,0
0,9999,41,0,41,0,40,9999,0.100000,99,0,0.000000,0,0.000000,23.503333,1.215073,99,99,0,0,0,0,0
0,9999,42,0,42,0,96,9999,0.100000,99,0,66.768213,0,12.000000,18.918520,14.191228,99,99,1,0,0,0,0
0,9999,43,0,43,0,40,9999,0.100000,99,0,0.000000,0,1.000000,29.764868,2.209728,99,99,0,0,0,0,0
0,9999,44,0,44,0,40,9999,0.100000,99,0,0.000000,0,0.000000,11.838478,0.633777,99,99,0,0,0,0,0
0,9999,45,0,45,0,0,9999,0.100000,99,0,0.418872,0,0.000000,22.571794,2.308375,99,99,0,1,0,0,0
0,9999,46,0,46,0,42,9999,0.100000,99,0,0.000000,0,5.000000,22.876335,18.907511,99,99,0,0,0,0,0
0,9999,47,0,47,0,40,9999,0.100000,99,0,0.000000,0,0.000000,33.564592,1.134660,99,99,0,0,0,0,0
0,9999,48,0,48,0,40,9999,0.100000,99,0,0.000000,0,2.000000,19.849366,5.984498,99,99,0,0,0,0,0
0,9999,49,0,49,0,0,9999,0.100000,99,0,0.441078,0,0.000000,23.700365,2.125086,99,99,0,0,0,1,0
0,9999,50,0,50,0,41,9999,0.100000,99,0,0.000000,0,3.000000,14.669047,12.977967,99,99,0,0,0,0,0
0,9999,51,0,51,0,40,9999,0.100000,99,0,0.000000,0,3.000000,29.865800,13.356300,99,99,0,0,0,0,0
0,9999,52,0,52,0,40,9999,0.100000,99,0,0.000000,0,0.000000,21.515642,1.144723,99,99,0,0,0,0,0
0,9999,53,0,53,0,0,9999,0.100000,99,0,0.325981,0,1.000000,13.255764,2.050872,99,99,0,0,0,1,0
0,9999,54,0,54,0,0,9999,0.100000,99,0,0.001140,0,0.000000,23.461426,0.371830,99,99,0,0,0,0,1
0,9999,55,0,55,0,41,9999,0.100000,99,0,0.000000,0,2.000000,16.521503,15.304267,99,99,0,0,0,0,0
0,9999,56,0,56,0,40,9999,0.100000,99,0,0.000000,0,1.000000,27.564168,6.252383,99,99,0,0,0,0,0
0,9999,57,0,57,0,40,9999,0.100000,99,0,0.000000,0,0.000000,19.154780,7.844436,99,99,0,0,0,0,0
0,9999,58,0,58,0,0,9999,0.100000,99,0,0.020281,0,0.000000,29.237984,0.720512,99,99,0,0,0,0,1
0,9999,59,0,59,0,0,9999,0.100000,99,0,0.081994,0,1.000000,27.344163,5.920575,99,99,0,0,0,0,1
0,9999,60,0,60,0,40,9999,0.100000,99,0,0.000000,0,0.000000,28.969449,4.623101,99,99,0,0,0,0,0
0,9999,61,0,61,0,40,9999,0.100000,99,0,0.000000,0,1.000000,31.780037,8.577540,99,99,0,0,0,0,0
0,9999,62,0,62,0,41,9999,0.100000,99,0,0.000000,0,6.000000,31.497907,16.583638,99,99,0,0,0,0,0
0,9999,63,0,63,0,40,9999,0.100000,99,0,0.000000,0,1.000000,32.641555,8.112491,99,99,0,0,0,0,0
0,9999,64,0,64,0,0,9999,0.100000,99,0,0.002069,0,1.000000,28.333031,8.239992,99,99,0,0,0,0,1
0,9999,65,0,65,0,40,9999,0.100000,99,0,0.000000,0,3.000000,30.978084,10.632994,99,99,0,0,0,0,0
0,9999,66,0,66,0,40,9999,0.100000,99,0,0.000000,0,1.000000,27.083618,3.603102,99,99,0,0,0,0,0
0,9999,67,0,67,0,0,9999,0.100000,99,0,0.604554,0,0.000000,20.186756,0.641626,99,99,0,0,0,0,1
0,9999,68,0,68,0,40,9999,0.100000,99,0,0.000000,0,0.000000,28.660118,2.532124,99,99,0,0,0,0,0
0,9999,69,0,69,0,40,9999,0.100000,99,0,0.000000,0,1.000000,29.184629,3.621201,99,99,0,0,0,0,0
0,9999,70,0,70,0,93,9999,0.100000,99,0,47.677021,0,8.000000,20.057833,15.573879,99,99,1,0,0,0,0
0,9999,71,0,71,0,40,9999,0.100000,99,0,0.000000,0,0.000000,24.632840,1.574432,99,99,0,0,0,0,0
0,9999,72,0,72,0,0,9999,0.100000,99,0,0.308036,0,0.000000,31.466252,1.880438,99,99,0,0,0,0,1
0,9999,73,0,73,0,0,9999,0.100000,99,0,0.085520,0,0.000000,27.944916,1.438496,99,99,0,0,0,0,1
0,9999,74,0,74,0,40,9999,0.100000,99,0,0.000000,0,2.000000,28.018879,16.076280,99,99,0,0,0,0,0
0,9999,75,0,75,0,40,9999,0.100000,99,0,0.000000,0,0.000000,19.486833,3.923806,99,99,0,0,0,0,0
0,9999,76,0,76,0,91,9999,0.100000,99,0,23.319935,0,4.000000,32.291254,12.943039,99,99,1,0,0,0,0
0,9999,77,0,77,0,0,9999,0.100000,99,0,1.948234,0,1.000000,30.554805,5.784240,99,99,0,0,1,0,0
0,9999,78,0,78,0,40,9999,0.100000,99,0,0.000000,0,0.000000,17.387828,3.410157,99,99,0,0,0,0,0
0,9999,79,0,79,0,40,9999,0.100000,99,0,0.000000,0,3.000000,32.756318,18.240329,99,99,0,0,0,0,0
0,9999,80,0,80,0,2,9999,0.100000,99,0,0.000161,0,4.000000,16.360031,7.951715,99,99,0,0,0,0,1
0,9999,81,0,81,0,0,9999,0.100000,99,0,0.081043,0,1.000000,27.729354,2.296870,99,99,0,0,0,0,1
0,9999,82,0,82,0,41,9999,0.100000,99,0,0.000000,0,3.000000,22.949517,15.434744,99,99,0,0,0,0,0
0,9999,83,0,83,0,40,9999,0.100000,99,0,0.000000,0,1.000000,21.754574,11.617587,99,99,0,0,0,0,0
0,9999,84,0,84,0,40,9999,0.100000,99,0,0.000000,0,1.000000,13.573514,7.027805,99,99,0,0,0,0,0
0,9999,85,0,85,0,40,9999,0.100000,99,0,0.000000,0,0.000000,34.892770,0.370501,99,99,0,0,0,0,0
0,9999,86,0,86,0,0,9999,0.100000,99,0,0.005229,0,0.000000,28.015549,1.603230,99,99,0,0,0,0,1
0,9999,87,0,87,0,0,9999,0.100000,99,0,1.055015,0,0.000000,25.868522,0.457396,99,99,0,0,0,0,1
0,9999,88,0,88,0,41,9999,0.100000,99,0,0.000000,0,3.000000,27.523128,10.027844,99,99,0,0,0,0,0
0,9999,89,0,89,0,40,9999,0.100000,99,0,0.000000,0,3.000000,32.408927,8.352648,99,99,0,0,0,0,0
0,9999,90,0,90,0,40,9999,0.100000,99,0,0.000000,0,1.000000,28.512969,3.633436,99,99,0,0,0,0,0
0,9999,91,0,91,0,0,9999,0.100000,99,0,0.007467,0,0.000000,20.878419,1.416813,99,99,0,0,0,0,1
0,9999,92,0,92,0,0,9999,0.100000,99,0,0.141701,0,1.000000,22.690548,3.040489,99,99,0,1,0,0,0
0,9999,93,0,93,0,43,9999,0.100000,99,0,0.000000,0,5.000000,13.052868,12.315448,99,99,0,0,0,0,0
0,9999,94,0,94,0,40,9999,0.100000,99,0,0.000000,0,1.000000,20.272780,2.662740,99,99,0,0,0,0,0
0,9999,95,0,95,0,40,9999,0.100000,99,0,0.000000,0,0.000000,16.800735,0.675742,99,99,0,0,0,0,0
0,9999,96,0,96,0,40,9999,0.100000,99,0,0.000000,0,2.000000,32.484884,7.362705,99,99,0,0,0,0,0
0,9999,97,0,97,0,0,9999,0.100000,99,0,0.013836,0,0.000000,22.819126,5.098892,99,99,0,0,0,0,1
0,9999,98,0,98,0,0,9999,0.100000,99,0,0.348805,0,0.000000,28.027756,1.168671,99,99,0,1,0,0,0
0,9999,99,0,99,0,40,9999,0.100000,99,0,0.000000,0,0.000000,29.416488,21.370319,99,99,0,0,0,0,0
1,19999,0,0,0,0,40,19999,0.100000,99,0,0.000000,1,0.000000,21.452890,0.953446,99,99,0,0,0,0,0
1,19999,1,10000,28,0,0,9999,0.100000,99,0,4.540294,6,0.000000,27.857359,0.889320,99,99,0,0,0,0,1
1,19999,2,10000,2,0,40,9999,0.100000,99,0,0.000000,3,0.000000,31.125505,1.064118,99,99,0,0,0,0,0
1,19999,3,10000,80,0,40,9999,0.100000,99,0,0.000000,6,0.000000,27.620061,2.010755,99,99,0,0,0,0,0
1,19999,4,10000,24,0,0,9999,0.100000,99,0,0.352439,4,0.000000,20.704926,0.175469,99,99,0,0,0,0,1
1,19999,5,10000,24,0,40,9999,0.100000,99,0,0.000000,4,1.000000,21.451311,5.590999,99,99,0,0,0,0,0
1,19999,6,10000,6,0,0,9999,0.100000,99,0,0.140892,2,1.000000,32.668506,10.617609,99,99,0,0,0,0,1
1,19999,7,10000,77,0,40,9999,0.100000,99,0,0.000000,7,2.000000,30.331902,8.677678,99,99,0,0,0,0,0
1,19999,8,10000,42,0,40,9999,0.100000,99,0,0.000000,6,1.000000,33.313595,3.564920,99,99,0,0,0,0,0
1,19999,9,10000,80,0,0,9999,0.100000,99,0,0.698449,6,0.000000,27.404273,0.180616,99,99,0,1,0,0,0
1,19999,10,10000,0,0,0,9999,0.100000,99,0,0.017672,3,0.000000,25.393639,0.137787,99,99,0,0,1,0,0
1,19999,11,10000,98,0,0,9999,0.100000,99,0,0.031863,4,0.000000,28.440822,0.095090,99,99,0,0,0,0,1
1,19999,12,10000,22,0,0,9999,0.100000,99,0,0.025492,9,0.000000,15.298790,0.201850,99,99,0,0,0,0,1
1,19999,13,10000,13,0,0,9999,0.100000,99,0,0.032655,3,0.000000,22.539425,0.925408,99,99,0,0,0,0,1
1,19999,14,10000,24,0,0,9999,0.100000,99,0,0.607283,6,0.000000,29.633483,0.520148,99,99,0,0,0,1,0
1,19999,15,10000,42,0,0,9999,0.100000,99,0,0.323041,5,1.000000,25.129602,2.224537,99,99,0,0,0,1,0
1,19999,16,10000,0,0,40,9999,0.100000,99,0,0.000000,3,2.000000,24.332876,10.194876,99,99,0,0,0,0,0
1,19999,17,10000,24,0,40,9999,0.100000,99,0,0.000000,4,0.000000,24.357513,0.707882,99,99,0,0,0,0,0
1,19999,18,10000,5,0,40,9999,0.100000,99,0,0.000000,7,2.000000,30.436338,4.220360,99,99,0,0,0,0,0
1,19999,19,10000,67,0,40,9999,0.100000,99,0,0.000000,5,0.000000,23.751337,1.034649,99,99,0,0,0,0,0
1,19999,20,10000,22,0,40,9999,0.100000,99,0,0.000000,9,0.000000,20.314439,1.547000,99,99,0,0,0,0,0
1,19999,21,10000,0,0,40,9999,0.100000,99,0,0.000000,3,0.000000,20.341581,0.464807,99,99,0,0,0,0,0
1,19999,22,10000,22,0,40,9999,0.100000,99,0,0.000000,7,0.000000,25.766753,0.132930,99,99,0,0,0,0,0
1,19999,23,10000,98,0,0,9999,0.100000,99,0,0.001488,4,2.000000,20.779893,4.288815,99,99,0,0,0,0,1
1,19999,24,10000,0,0,40,9999,0.100000,99,0,0.000000,3,0.000000,26.545000,0.818442,99,99,0,0,0,0,0
1,19999,25,10000,42,0,0,9999,0.100000,99,0,1.608753,7,0.000000,24.018964,0.485747,99,99,0,0,0,1,0
1,19999,26,10000,5,0,0,9999,0.100000,99,0,0.329140,7,0.000000,26.077782,1.290055,99,99,0,0,0,0,1
1,19999,27,10000,5,0,1,9999,0.100000,99,0,0.032713,7,2.000000,17.161483,6.076570,99,99,0,0,0,0,1
1,19999,28,10000,28,0,40,9999,0.100000,99,0,0.000000,4,0.000000,16.478916,0.861452,99,99,0,0,0,0,0
1,19999,29,10000,5,0,40,9999,0.100000,99,0,0.000000,5,2.000000,27.119690,5.127575,99,99,0,0,0,0,0
1,19999,30,10000,24,0,40,9999,0.100000,99,0,0.000000,3,0.000000,28.084536,1.833655,99,99,0,0,0,0,0
1,19999,31,10000,0,0,41,9999,0.100000,99,0,0.000000,4,2.000000,17.576543,9.446975,99,99,0,0,0,0,0
1,19999,32,10000,0,0,40,9999,0.100000,99,0,0.000000,3,1.000000,32.176885,2.495281,99,99,0,0,0,0,0
1,19999,33,10000,5,0,40,9999,0.100000,99,0,0.000000,4,2.000000,23.111436,13.405502,99,99,0,0,0,0,0
1,19999,34,10000,34,0,0,9999,0.100000,99,0,0.222469,4,0.000000,18.868765,0.448782,99,99,0,0,1,0,0
1,19999,35,10000,24,0,40,9999,0.100000,99,0,0.000000,4,3.000000,34.160330,10.771085,99,99,0,0,0,0,0
1,19999,36,10000,2,0,40,9999,0.100000,99,0,0.000000,3,0.000000,26.228133,4.104321,99,99,0,0,0,0,0
1,19999,37,10000,24,0,42,9999,0.100000,99,0,0.000000,6,4.000000,18.637589,9.864906,99,99,0,0,0,0,0
1,19999,38,10000,24,0,40,9999,0.100000,99,0,0.000000,4,3.000000,29.578675,11.411705,99,99,0,0,0,0,0
1,19999,39,10000,5,0,41,9999,0.100000,99,0,0.000000,4,3.000000,18.301997,17.988750,99,99,0,0,0,0,0
1,19999,40,10000,5,0,41,9999,0.100000,99,0,0.000000,6,4.000000,29.233669,17.479502,99,99,0,0,0,0,0
1,19999,41,10000,24,0,40,9999,0.100000,99,0,0.000000,4,0.000000,22.564432,0.980192,99,99,0,0,0,0,0
1,19999,42,10000,34,0,40,9999,0.100000,99,0,0.000000,5,0.000000,28.815898,2.050415,99,99,0,0,0,0,0
1,19999,43,10000,70,0,0,9999,0.100000,99,0,0.027122,7,0.000000,28.027181,0.811842,99,99,0,0,1,0,0
1,19999,44,10000,24,0,40,9999,0.100000,99,0,0.000000,4,0.000000,12.066406,0.258294,99,99,0,0,0,0,0
1,19999,45,10000,42,0,40,9999,0.100000,99,0,0.000000,7,0.000000,23.392723,0.989522,99,99,0,0,0,0,0
1,19999,46,10000,34,0,0,9999,0.100000,99,0,0.599123,5,0.000000,23.333231,4.915994,99,99,0,1,0,0,0
1,19999,47,10000,42,0,40,9999,0.100000,99,0,0.000000,9,0.000000,34.065773,1.186249,99,99,0,0,0,0,0
1,19999,48,10000,28,0,40,9999,0.100000,99,0,0.000000,5,0.000000,18.685041,0.544551,99,99,0,0,0,0,0
1,19999,49,10000,42,0,40,9999,0.100000,99,0,0.000000,7,0.000000,23.720346,0.606227,99,99,0,0,0,0,0
1,19999,50,10000,28,0,41,9999,0.100000,99,0,0.000000,5,2.000000,17.653183,12.603512,99,99,0,0,0,0,0
1,19999,51,10000,42,0,41,9999,0.100000,99,0,0.000000,7,4.000000,33.550006,13.374711,99,99,0,0,0,0,0
1,19999,52,10000,28,0,40,9999,0.100000,99,0,0.000000,7,0.000000,21.199042,1.525494,99,99,0,0,0,0,0
1,19999,53,10000,5,0,6,9999,0.100000,99,0,0.243346,4,8.000000,12.450225,17.087220,99,99,0,0,0,1,0
1,19999,54,10000,24,0,0,9999,0.100000,99,0,0.000819,4,0.000000,23.293073,0.082799,99,99,0,0,0,0,1
1,19999,55,10000,42,0,41,9999,0.100000,99,0,0.000000,7,3.000000,18.585614,9.496507,99,99,0,0,0,0,0
1,19999,56,10000,5,0,41,9999,0.100000,99,0,0.000000,5,3.000000,26.647454,13.631626,99,99,0,0,0,0,0
1,19999,57,10000,24,0,40,9999,0.100000,99,0,0.000000,5,1.000000,19.183009,8.304750,99,99,0,0,0,0,0
1,19999,58,10000,34,0,0,9999,0.100000,99,0,0.002812,5,0.000000,29.433276,0.076545,99,99,0,0,0,0,1
1,19999,59,10000,80,0,40,9999,0.100000,99,0,0.000000,6,0.000000,26.146276,3.528370,99,99,0,0,0,0,0
1,19999,60,10000,10,0,40,9999,0.100000,99,0,0.000000,3,1.000000,28.614309,8.815870,99,99,0,0,0,0,0
1,19999,61,10000,5,0,0,9999,0.100000,99,0,0.001858,5,1.000000,31.180504,3.315513,99,99,0,0,0,0,1
1,19999,62,10000,24,0,0,9999,0.100000,99,0,0.034655,9,0.000000,31.274288,1.122493,99,99,0,0,0,0,1
1,19999,63,10000,80,0,40,9999,0.100000,99,0,0.000000,6,2.000000,31.349463,3.352445,99,99,0,0,0,0,0
1,19999,64,10000,77,0,0,9999,0.100000,99,0,0.002800,7,0.000000,27.159309,0.075838,99,99,0,0,0,0,1
1,19999,65,10000,24,0,40,9999,0.100000,99,0,0.000000,7,1.000000,27.895618,10.180634,99,99,0,0,0,0,0
1,19999,66,10000,24,0,40,9999,0.100000,99,0,0.000000,5,0.000000,26.717909,2.076358,99,99,0,0,0,0,0
1,19999,67,10000,42,0,0,9999,0.100000,99,0,0.795394,5,0.000000,20.389531,0.192829,99,99,0,0,0,0,1
1,19999,68,10000,80,0,40,9999,0.100000,99,0,0.000000,6,0.000000,28.356878,0.265897,99,99,0,0,0,0,0
1,19999,69,10000,5,0,40,9999,0.100000,99,0,0.000000,6,1.000000,30.277312,8.591383,99,99,0,0,0,0,0
1,19999,70,10000,80,0,40,9999,0.100000,99,0,0.000000,7,0.000000,28.073661,6.524608,99,99,0,0,0,0,0
1,19999,71,10000,67,0,0,9999,0.100000,99,0,0.033259,5,0.000000,25.227116,0.122694,99,99,0,0,0,1,0
1,19999,72,10000,24,0,40,9999,0.100000,99,0,0.000000,4,0.000000,31.023575,1.033498,99,99,0,0,0,0,0
1,19999,73,10000,0,0,0,9999,0.065000,99,0,0.054565,3,0.000000,27.541356,1.343432,99,99,0,0,0,0,1
1,19999,74,10000,10,0,40,9999,0.100000,99,0,0.000000,3,0.000000,27.098234,5.231757,99,99,0,0,0,0,0
1,19999,75,10000,70,0,40,9999,0.100000,99,0,0.000000,7,0.000000,18.713682,0.826404,99,99,0,0,0,0,0
1,19999,76,10000,22,0,41,9999,0.100000,99,0,0.000000,8,4.000000,34.559414,8.104592,99,99,0,0,0,0,0
1,19999,77,10000,70,0,0,9999,0.100000,99,0,0.006024,7,0.000000,29.655446,0.116854,99,99,0,0,1,0,0
1,19999,78,10000,28,0,40,9999,0.100000,99,0,0.000000,7,0.000000,16.957554,9.417876,99,99,0,0,0,0,0
1,19999,79,10000,24,0,40,9999,0.100000,99,0,0.000000,9,2.000000,31.002037,9.993710,99,99,0,0,0,0,0
1,19999,80,10000,28,0,40,9999,0.100000,99,0,0.000000,6,0.000000,17.303332,0.982275,99,99,0,0,0,0,0
1,19999,81,10000,98,0,0,9999,0.100000,99,0,0.109692,4,0.000000,26.301074,0.119635,99,99,0,0,0,0,1
1,19999,82,10000,70,0,41,9999,0.100000,99,0,0.000000,9,3.000000,24.050719,14.805747,99,99,0,0,0,0,0
1,19999,83,10000,77,0,41,9999,0.100000,99,0,0.000000,8,3.000000,20.364189,10.180799,99,99,0,0,0,0,0
1,19999,84,10000,24,0,0,9999,0.100000,99,0,0.000738,7,1.000000,14.735363,1.602798,99,99,0,0,0,0,1
1,19999,85,10000,28,0,0,9999,0.100000,99,0,0.005495,6,0.000000,34.739678,1.611609,99,99,0,0,0,0,1
1,19999,86,10000,5,0,0,9999,0.100000,99,0,0.003120,9,0.000000,27.944285,0.091766,99,99,0,0,0,0,1
1,19999,87,10000,42,0,0,9999,0.100000,99,0,0.915620,8,0.000000,26.186811,0.270863,99,99,0,0,0,0,1
1,19999,88,10000,42,0,40,9999,0.100000,99,0,0.000000,6,0.000000,28.517367,6.734526,99,99,0,0,0,0,0
1,19999,89,10000,5,0,41,9999,0.100000,99,0,0.000000,7,4.000000,31.249955,16.335196,99,99,0,0,0,0,0
1,19999,90,10000,77,0,40,9999,0.100000,99,0,0.000000,7,0.000000,27.175565,0.079621,99,99,0,0,0,0,0
1,19999,91,10000,76,0,0,9999,0.100000,99,0,0.003679,9,0.000000,21.073110,0.169028,99,99,0,0,0,0,1
1,19999,92,10000,77,0,0,9999,0.100000,99,0,0.171254,7,0.000000,21.830868,0.198053,99,99,0,1,0,0,0
1,19999,93,10000,80,0,42,9999,0.100000,99,0,0.000000,6,4.000000,18.350503,5.658783,99,99,0,0,0,0,0
1,19999,94,10000,28,0,40,9999,0.100000,99,0,0.000000,6,0.000000,19.994063,0.132037,99,99,0,0,0,0,0
1,19999,95,10000,10,0,40,9999,0.100000,99,0,0.000000,4,0.000000,16.579478,1.876869,99,99,0,0,0,0,0
1,19999,96,10000,70,0,40,9999,0.100000,99,0,0.000000,7,0.000000,33.957395,0.687906,99,99,0,0,0,0,0
1,19999,97,10000,24,0,0,9999,0.100000,99,0,0.000269,7,0.000000,23.464407,0.076968,99,99,0,0,0,0,1
1,19999,98,10000,24,0,0,9999,0.100000,99,0,0.016636,4,0.000000,28.597175,0.160207,99,99,0,1,0,0,0
1,19999,99,10000,24,0,40,9999,0.100000,99,0,0.000000,7,0.000000,28.856851,21.624582,99,99,0,0,0,0,0
2,29999,0,20000,12,0,40,9999,0.100000,99,0,0.000000,9,0.000000,20.744960,0.883919,99,99,0,0,0,0,0
2,29999,1,20000,0,0,0,9999,0.100000,99,0,6.369368,9,1.000000,27.390679,1.299130,99,99,0,0,0,0,1
2,29999,2,20000,27,10000,40,9999,0.100000,99,0,0.000000,9,0.000000,30.793695,0.236977,99,99,0,0,0,0,0
2,29999,3,20000,0,0,40,9999,0.100000,99,0,0.000000,9,1.000000,27.161136,1.321428,99,99,0,0,0,0,0
2,29999,4,20000,28,0,0,9999,0.100000,99,0,1.171579,9,0.000000,20.681671,0.303026,99,99,0,0,0,0,1
2,29999,5,20000,76,0,40,9999,0.100000,99,0,0.000000,9,1.000000,22.689700,7.029834,99,99,0,0,0,0,0
2,29999,6,20000,22,0,0,9999,0.100000,99,0,1.204006,9,0.000000,33.648172,0.313911,99,99,0,0,0,0,1
2,29999,7,20000,70,0,40,9999,0.100000,99,0,0.000000,9,0.000000,32.441916,6.465561,99,99,0,0,0,0,0
2,29999,8,20000,70,0,40,9999,0.100000,99,0,0.000000,9,0.000000,35.154669,0.240294,99,99,0,0,0,0,0
2,29999,9,20000,42,0,0,9999,0.100000,99,0,0.696740,9,0.000000,27.291768,0.182397,99,99,0,1,0,0,0
2,29999,10,20000,42,0,1,9999,0.100000,99,0,2.865185,9,4.000000,25.395428,8.670715,99,99,0,0,1,0,0
2,29999,11,20000,76,0,0,9999,0.100000,99,0,0.046388,9,0.000000,28.435123,0.085315,99,99,0,0,0,0,1
2,29999,12,20000,0,0,40,9999,0.100000,99,0,0.000000,9,0.000000,15.292104,0.225033,99,99,0,0,0,0,0
2,29999,13,20000,70,0,0,9999,0.100000,99,0,0.000582,9,0.000000,22.551426,0.500028,99,99,0,0,0,0,1
2,29999,14,20000,77,0,40,9999,0.100000,99,0,0.000000,9,0.000000,29.323507,0.142109,99,99,0,0,0,0,0
2,29999,15,20000,27,10000,0,9999,0.100000,99,0,0.284075,9,0.000000,24.327530,0.211330,99,99,0,0,0,1,0
2,29999,16,20000,76,0,41,9999,0.100000,99,0,0.000000,9,3.000000,22.214976,9.980042,99,99,0,0,0,0,0
2,29999,17,20000,27,10000,40,9999,0.100000,99,0,0.000000,9,1.000000,24.706431,1.432516,99,99,0,0,0,0,0
2,29999,18,20000,22,0,0,9999,0.100000,99,0,0.252885,9,0.000000,29.144386,0.199398,99,99,0,0,0,1,0
2,29999,19,20000,22,0,40,9999,0.100000,99,0,0.000000,9,0.000000,23.834779,1.058005,99,99,0,0,0,0,0
2,29999,20,20000,77,0,41,9999,0.100000,99,0,0.000000,9,4.000000,19.674640,9.057771,99,99,0,0,0,0,0
2,29999,21,20000,0,0,40,9999,0.100000,99,0,0.000000,9,0.000000,20.564017,0.393083,99,99,0,0,0,0,0
2,29999,22,20000,0,0,0,9999,0.100000,99,0,0.006140,9,0.000000,25.771288,0.125512,99,99,0,0,0,1,0
2,29999,23,20000,27,10000,0,9999,0.100000,99,0,0.000960,9,0.000000,22.384191,0.072037,99,99,0,0,0,0,1
2,29999,24,20000,27,10000,0,9999,0.100000,99,0,0.001719,9,1.000000,26.621790,4.473989,99,99,0,0,0,0,1
2,29999,25,20000,27,10000,0,9999,0.100000,99,0,0.185539,9,1.000000,24.221450,1.320582,99,99,0,0,0,1,0
2,29999,26,20000,77,0,0,9999,0.100000,99,0,0.341024,9,0.000000,25.855181,0.864881,99,99,0,0,0,0,1
2,29999,27,20000,22,0,0,9999,0.100000,99,0,0.024546,9,0.000000,14.538010,0.303665,99,99,0,0,0,0,1
2,29999,28,20000,70,0,0,9999,0.100000,99,0,0.179349,10,1.000000,16.480596,3.034424,99,99,0,0,0,0,1
2,29999,29,20000,5,0,40,9999,0.100000,99,0,0.000000,9,0.000000,28.487741,0.748468,99,99,0,0,0,0,0
2,29999,30,20000,42,0,0,9999,0.100000,99,0,1.431277,9,0.000000,28.050663,0.993748,99,99,0,0,1,0,0
2,29999,31,20000,70,0,43,9999,0.100000,99,0,0.000000,9,5.000000,14.780477,17.343776,99,99,0,0,0,0,0
2,29999,32,20000,22,0,40,9999,0.100000,99,0,0.000000,9,1.000000,33.649160,4.304138,99,99,0,0,0,0,0
2,29999,33,20000,70,0,40,9999,0.100000,99,0,0.000000,9,1.000000,24.558414,14.241702,99,99,0,0,0,0,0
2,29999,34,20000,0,0,40,9999,0.100000,99,0,0.000000,10,0.000000,18.749050,0.477150,99,99,0,0,0,0,0
2,29999,35,20000,42,0,40,9999,0.100000,99,0,0.000000,9,2.000000,30.836734,10.119804,99,99,0,0,0,0,0
2,29999,36,20000,22,0,40,9999,0.100000,99,0,0.000000,9,0.000000,26.244979,4.858186,99,99,0,0,0,0,0
2,29999,37,20000,27,10000,41,9999,0.100000,99,0,0.000000,9,2.000000,15.476183,10.165974,99,99,0,0,0,0,0
2,29999,38,20000,27,10000,40,9999,0.100000,99,0,0.000000,9,1.000000,26.949626,1.390710,99,99,0,0,0,0,0
2,29999,39,20000,76,0,41,9999,0.100000,99,0,0.000000,9,3.000000,15.271388,8.227085,99,99,0,0,0,0,0
2,29999,40,20000,42,0,40,9999,0.100000,99,0,0.000000,9,1.000000,31.641092,7.186397,99,99,0,0,0,0,0
2,29999,41,20000,5,0,40,9999,0.100000,99,0,0.000000,9,0.000000,21.821332,0.954877,99,99,0,0,0,0,0
2,29999,42,20000,5,0,40,9999,0.100000,99,0,0.000000,9,0.000000,28.597603,2.088352,99,99,0,0,0,0,0
2,29999,43,20000,22,0,42,9999,0.100000,99,0,0.000000,9,8.000000,27.830258,10.308720,99,99,0,0,0,0,0
2,29999,44,20000,42,0,40,9999,0.100000,99,0,0.000000,9,0.000000,12.113252,0.368212,99,99,0,0,0,0,0
2,29999,45,20000,77,0,0,9999,0.100000,99,0,1.502397,9,0.000000,23.727844,1.172810,99,99,0,1,0,0,0
2,29999,46,20000,76,0,40,9999,0.100000,99,0,0.000000,9,0.000000,23.849917,1.262143,99,99,0,0,0,0,0
2,29999,47,20000,22,0,0,9999,0.100000,99,0,0.084870,9,0.000000,34.608129,1.806551,99,99,0,0,0,0,1
2,29999,48,20000,76,0,0,9999,0.100000,99,0,0.156356,10,0.000000,18.594785,0.533752,99,99,0,0,1,0,0
2,29999,49,20000,42,0,40,9999,0.100000,99,0,0.000000,9,0.000000,23.786112,0.642494,99,99,0,0,0,0,0
2,29999,50,20000,27,10000,40,9999,0.100000,99,0,0.000000,9,1.000000,19.835261,14.139240,99,99,0,0,0,0,0
2,29999,51,20000,28,0,40,9999,0.100000,99,0,0.000000,9,0.000000,33.221598,1.337639,99,99,0,0,0,0,0
2,29999,52,20000,28,0,40,9999,0.100000,99,0,0.000000,9,0.000000,20.991630,0.464934,99,99,0,0,0,0,0
2,29999,53,20000,53,10000,0,9999,0.100000,99,0,0.899701,10,0.000000,12.432169,0.389903,99,99,0,0,0,1,0
2,29999,54,20000,42,0,0,9999,0.100000,99,0,0.046522,10,0.000000,23.293375,0.090719,99,99,0,0,0,0,1
2,29999,55,20000,42,0,40,9999,0.100000,99,0,0.000000,10,0.000000,16.036675,3.620242,99,99,0,0,0,0,0
2,29999,56,20000,0,0,0,9999,0.100000,99,0,0.013960,9,1.000000,29.473946,7.908408,99,99,0,0,0,0,1
2,29999,57,20000,1,10000,40,9999,0.100000,99,0,0.000000,9,2.000000,19.217694,6.448964,99,99,0,0,0,0,0
2,29999,58,20000,5,0,40,9999,0.100000,99,0,0.000000,9,0.000000,29.433275,0.078981,99,99,0,0,0,0,0
2,29999,59,20000,76,0,40,9999,0.100000,99,0,0.000000,9,0.000000,25.824425,2.040830,99,99,0,0,0,0,0
2,29999,60,20000,0,0,40,9999,0.100000,99,0,0.000000,10,0.000000,29.787601,12.907774,99,99,0,0,0,0,0
2,29999,61,20000,1,10000,0,9999,0.100000,99,0,0.000181,10,0.000000,31.346924,0.092034,99,99,0,0,0,0,1
2,29999,62,20000,70,0,0,9999,0.100000,99,0,0.007905,9,0.000000,30.781719,0.241762,99,99,0,0,0,0,1
2,29999,63,20000,0,0,40,9999,0.100000,99,0,0.000000,9,0.000000,33.477681,0.396376,99,99,0,0,0,0,0
2,29999,64,20000,42,0,0,9999,0.100000,99,0,0.005773,9,0.000000,27.160522,0.075128,99,99,0,0,0,0,1
2,29999,65,20000,42,0,41,9999,0.100000,99,0,0.000000,9,4.000000,29.398272,17.393795,99,99,0,0,0,0,0
2,29999,66,20000,77,0,40,9999,0.100000,99,0,0.000000,9,1.000000,26.531608,1.345878,99,99,0,0,0,0,0
2,29999,67,20000,5,0,0,9999,0.100000,99,0,0.481094,9,0.000000,20.524612,0.169801,99,99,0,0,0,0,1
2,29999,68,20000,76,0,40,9999,0.100000,99,0,0.000000,9,0.000000,28.345231,0.383786,99,99,0,0,0,0,0
2,29999,69,20000,27,10000,40,9999,0.100000,99,0,0.000000,10,0.000000,31.164542,3.786640,99,99,0,0,0,0,0
2,29999,70,20000,0,0,40,9999,0.100000,99,0,0.000000,9,0.000000,28.040831,3.525589,99,99,0,0,0,0,0
2,29999,71,20000,28,0,40,9999,0.100000,99,0,0.000000,10,0.000000,25.232119,0.093249,99,99,0,0,0,0,0
2,29999,72,20000,42,0,40,9999,0.100000,99,0,0.000000,9,0.000000,30.977801,0.670971,99,99,0,0,0,0,0
2,29999,73,20000,5,0,0,9999,0.100000,99,0,0.028861,9,0.000000,27.315947,0.078047,99,99,0,0,0,0,1
2,29999,74,20000,22,0,42,9999,0.100000,99,0,0.000000,9,7.000000,26.890952,19.885775,99,99,0,0,0,0,0
2,29999,75,20000,77,0,40,9999,0.100000,99,0,0.000000,9,0.000000,18.593944,2.459572,99,99,0,0,0,0,0
2,29999,76,20000,70,0,40,9999,0.100000,99,0,0.000000,10,0.000000,30.253237,3.356404,99,99,0,0,0,0,0
2,29999,77,20000,70,0,0,9999,0.100000,99,0,0.006218,9,0.000000,29.655964,0.112091,99,99,0,0,1,0,0
2,29999,78,20000,42,0,41,9999,0.100000,99,0,0.000000,9,3.000000,17.188522,6.687849,99,99,0,0,0,0,0
2,29999,79,20000,28,0,40,9999,0.100000,99,0,0.000000,9,2.000000,29.944989,5.709324,99,99,0,0,0,0,0
2,29999,80,20000,70,0,40,9999,0.100000,99,0,0.000000,9,1.000000,17.187415,3.636764,99,99,0,0,0,0,0
2,29999,81,20000,28,0,40,9999,0.100000,99,0,0.000000,9,0.000000,26.270706,0.126579,99,99,0,0,0,0,0
2,29999,82,20000,70,0,40,9999,0.100000,99,0,0.000000,9,0.000000,24.779755,0.673907,99,99,0,0,0,0,0
2,29999,83,20000,27,10000,40,9999,0.100000,99,0,0.000000,9,2.000000,23.584763,5.363226,99,99,0,0,0,0,0
2,29999,84,20000,76,0,40,9999,0.100000,99,0,0.000000,9,0.000000,15.968668,0.340038,99,99,0,0,0,0,0
2,29999,85,20000,70,0,40,9999,0.100000,99,0,0.000000,9,0.000000,34.883946,0.126263,99,99,0,0,0,0,0
2,29999,86,20000,70,0,0,9999,0.100000,99,0,0.003046,10,0.000000,27.944137,0.091314,99,99,0,0,0,0,1
2,29999,87,20000,76,0,0,9999,0.100000,99,0,0.002165,9,0.000000,26.334766,0.114175,99,99,0,0,0,0,1
2,29999,88,20000,5,0,41,9999,0.100000,99,0,0.000000,9,3.000000,28.404008,7.554654,99,99,0,0,0,0,0
2,29999,89,20000,22,0,41,9999,0.100000,99,0,0.000000,9,4.000000,34.815856,8.988652,99,99,0,0,0,0,0
2,29999,90,20000,28,0,40,9999,0.100000,99,0,0.000000,9,0.000000,27.177407,0.075942,99,99,0,0,0,0,0
2,29999,91,20000,70,0,0,9999,0.100000,99,0,0.000857,9,0.000000,21.068064,0.113951,99,99,0,0,0,0,1
2,29999,92,20000,0,0,0,9999,0.100000,99,0,0.195022,9,0.000000,21.928029,0.187858,99,99,0,1,0,0,0
2,29999,93,20000,0,0,44,9999,0.100000,99,0,0.000000,9,8.000000,16.869046,18.265716,99,99,0,0,0,0,0
2,29999,94,20000,22,0,40,9999,0.100000,99,0,0.000000,9,0.000000,19.966536,0.504183,99,99,0,0,0,0,0
2,29999,95,20000,27,10000,0,9999,0.100000,99,0,0.000866,9,0.000000,16.015445,1.061779,99,99,0,0,0,0,1
2,29999,96,20000,1,10000,40,9999,0.100000,99,0,0.000000,9,1.000000,34.231116,4.634477,99,99,0,0,0,0,0
2,29999,97,20000,1,10000,0,9999,0.100000,99,0,0.000592,9,0.000000,23.465055,0.077254,99,99,0,0,0,0,1
2,29999,98,20000,28,0,0,9999,0.100000,99,0,0.011833,9,0.000000,28.577967,0.156924,99,99,0,1,0,0,0
2,29999,99,20000,5,0,40,9999,0.100000,99,0,0.000000,9,0.000000,28.816724,21.668085,99,99,0,0,0,0,0
3,39999,0,30000,70,0,40,9999,0.100000,99,0,0.000000,10,0.000000,20.094247,6.071427,99,99,0,0,0,0,0
3,39999,1,30000,70,0,0,9999,0.100000,99,0,0.026147,10,0.000000,26.908152,0.082766,99,99,0,0,0,0,1
3,39999,2,30000,22,0,40,9999,0.100000,99,0,0.000000,10,0.000000,30.779251,0.327272,99,99,0,0,0,0,0
3,39999,3,30000,55,10000,40,9999,0.100000,99,0,0.000000,10,0.000000,26.679066,0.094063,99,99,0,0,0,0,0
3,39999,4,30000,76,0,0,9999,0.100000,99,0,1.901913,10,0.000000,20.767920,0.458137,99,99,0,0,0,0,1
3,39999,5,30000,42,0,40,9999,0.100000,99,0,0.000000,11,1.000000,21.308066,14.628017,99,99,0,0,0,0,0
3,39999,6,30000,55,10000,0,9999,0.100000,99,0,1.310075,10,0.000000,33.802088,0.345804,99,99,0,0,0,0,1
3,39999,7,30000,22,0,0,9999,0.100000,99,0,0.001073,10,1.000000,32.633047,2.669710,99,99,0,0,0,0,1
3,39999,8,30000,76,0,40,9999,0.100000,99,0,0.000000,10,0.000000,35.156079,0.214282,99,99,0,0,0,0,0
3,39999,9,30000,22,0,0,9999,0.100000,99,0,0.680985,10,0.000000,27.185648,0.176778,99,99,0,1,0,0,0
3,39999,10,30000,22,0,40,9999,0.100000,99,0,0.000000,10,2.000000,25.204688,2.321503,99,99,0,0,0,0,0
3,39999,11,30000,42,0,0,9999,0.100000,99,0,0.021030,10,0.000000,28.405547,0.093092,99,99,0,0,0,0,1
3,39999,12,30000,10,20000,40,9999,0.100000,99,0,0.000000,10,0.000000,15.352031,0.080500,99,99,0,0,0,0,0
3,39999,13,30000,27,10000,0,9999,0.100000,99,0,0.002712,10,0.000000,22.595957,0.304405,99,99,0,0,0,0,1
3,39999,14,30000,42,0,0,9999,0.100000,99,0,0.447924,10,0.000000,29.276178,0.178969,99,99,0,0,0,1,0
3,39999,15,30000,76,0,0,9999,0.100000,99,0,0.216918,10,0.000000,24.371355,0.254731,99,99,0,0,0,1,0
3,39999,16,30000,70,0,41,9999,0.100000,99,0,0.000000,10,3.000000,19.185649,8.441291,99,99,0,0,0,0,0
3,39999,17,30000,22,0,40,9999,0.100000,99,0,0.000000,10,0.000000,25.296316,0.598567,99,99,0,0,0,0,0
3,39999,18,30000,28,0,40,9999,0.100000,99,0,0.000000,10,0.000000,29.068521,0.220425,99,99,0,0,0,0,0
3,39999,19,30000,28,0,40,9999,0.100000,99,0,0.000000,10,0.000000,23.942209,1.081016,99,99,0,0,0,0,0
3,39999,20,30000,0,0,40,9999,0.100000,99,0,0.000000,10,0.000000,23.730325,7.486747,99,99,0,0,0,0,0
3,39999,21,30000,42,0,40,9999,0.100000,99,0,0.000000,10,0.000000,20.707029,0.408033,99,99,0,0,0,0,0
3,39999,22,30000,0,0,0,9999,0.100000,99,0,0.072677,11,0.000000,25.771524,0.141906,99,99,0,0,0,1,0
3,39999,23,30000,55,10000,0,9999,0.100000,99,0,0.000035,10,0.000000,22.384735,0.071239,99,99,0,0,0,0,1
3,39999,24,30000,76,0,0,9999,0.100000,99,0,0.002069,10,0.000000,26.480318,0.069408,99,99,0,0,0,0,1
3,39999,25,30000,0,0,0,9999,0.100000,99,0,0.139953,10,0.000000,24.782681,0.706030,99,99,0,0,0,1,0
3,39999,26,30000,53,10000,0,9999,0.100000,99,0,0.356314,10,0.000000,25.801097,0.791232,99,99,0,0,0,0,1
3,39999,27,30000,55,10000,0,9999,0.100000,99,0,0.055621,10,0.000000,14.521879,0.171246,99,99,0,0,0,0,1
3,39999,28,30000,22,0,0,9999,0.100000,99,0,0.002817,10,0.000000,15.787405,0.083191,99,99,0,0,0,0,1
3,39999,29,30000,42,0,40,9999,0.100000,99,0,0.000000,10,0.000000,28.453519,3.540780,99,99,0,0,0,0,0
3,39999,30,30000,1,20000,0,9999,0.100000,99,0,0.552714,10,0.000000,28.421360,0.203484,99,99,0,0,1,0,0
3,39999,31,30000,42,0,40,9999,0.100000,99,0,0.000000,11,2.000000,20.289345,4.788802,99,99,0,0,0,0,0
3,39999,32,30000,1,20000,40,9999,0.100000,99,0,0.000000,10,0.000000,33.237750,2.458062,99,99,0,0,0,0,0
3,39999,33,30000,53,10000,40,9999,0.100000,99,0,0.000000,10,2.000000,23.792352,6.770487,99,99,0,0,0,0,0
3,39999,34,30000,22,0,40,9999,0.100000,99,0,0.000000,10,0.000000,18.841221,0.335108,99,99,0,0,0,0,0
3,39999,35,30000,28,0,40,9999,0.100000,99,0,0.000000,10,3.000000,33.239437,14.738194,99,99,0,0,0,0,0
3,39999,36,30000,27,10000,40,9999,0.100000,99,0,0.000000,10,0.000000,26.400136,2.046367,99,99,0,0,0,0,0
3,39999,37,30000,55,10000,43,9999,0.100000,99,0,0.000000,10,5.000000,13.552315,23.804390,99,99,0,0,0,0,0
3,39999,38,30000,0,0,40,9999,0.100000,99,0,0.000000,10,0.000000,26.457644,0.168703,99,99,0,0,0,0,0
3,39999,39,30000,42,0,41,9999,0.100000,99,0,0.000000,10,3.000000,17.467333,13.169644,99,99,0,0,0,0,0
3,39999,40,30000,22,0,40,9999,0.100000,99,0,0.000000,10,0.000000,31.097234,5.251264,99,99,0,0,0,0,0
3,39999,41,30000,22,0,40,9999,0.100000,99,0,0.000000,10,0.000000,21.102035,0.919515,99,99,0,0,0,0,0
3,39999,42,30000,55,10000,90,9999,0.100000,99,0,4.069015,10,1.000000,28.451570,4.128165,99,99,1,0,0,0,0
3,39999,43,30000,1,20000,40,9999,0.100000,99,0,0.000000,10,0.000000,35.788383,0.216550,99,99,0,0,0,0,0
3,39999,44,30000,1,20000,40,9999,0.100000,99,0,0.000000,10,0.000000,12.285704,0.279848,99,99,0,0,0,0,0
3,39999,45,30000,0,0,1,9999,0.100000,99,0,3.265119,11,3.000000,24.112944,7.532559,99,99,0,1,0,0,0
3,39999,46,30000,55,10000,40,9999,0.100000,99,0,0.000000,10,0.000000,24.202274,1.435632,99,99,0,0,0,0,0
3,39999,47,30000,70,0,0,9999,0.100000,99,0,0.389180,10,0.000000,34.689488,0.148236,99,99,0,0,0,0,1
3,39999,48,30000,53,10000,0,9999,0.100000,99,0,0.311254,10,0.000000,18.675474,0.344832,99,99,0,0,1,0,0
3,39999,49,30000,22,0,40,9999,0.100000,99,0,0.000000,10,0.000000,23.881179,0.645564,99,99,0,0,0,0,0
3,39999,50,30000,1,20000,42,9999,0.100000,99,0,0.000000,11,5.000000,18.525422,24.515356,99,99,0,0,0,0,0
3,39999,51,30000,42,0,40,9999,0.100000,99,0,0.000000,10,0.000000,33.377678,1.306420,99,99,0,0,0,0,0
3,39999,52,30000,76,0,40,9999,0.100000,99,0,0.000000,10,0.000000,21.081419,0.605051,99,99,0,0,0,0,0
3,39999,53,30000,76,0,0,9999,0.100000,99,0,0.413907,10,0.000000,12.644535,0.260656,99,99,0,0,0,1,0
3,39999,54,30000,27,10000,0,9999,0.100000,99,0,0.063564,10,0.000000,23.290955,0.134411,99,99,0,0,0,0,1
3,39999,55,30000,55,10000,40,9999,0.100000,99,0,0.000000,10,0.000000,16.225106,1.671071,99,99,0,0,0,0,0
3,39999,56,30000,22,0,40,9999,0.100000,99,0,0.000000,10,0.000000,29.667175,0.080821,99,99,0,0,0,0,0
3,39999,57,30000,1,20000,40,9999,0.100000,99,0,0.000000,10,0.000000,19.944885,1.358701,99,99,0,0,0,0,0
3,39999,58,30000,76,0,2,9999,0.100000,99,0,0.002929,10,7.000000,29.434056,14.230290,99,99,0,0,0,0,1
3,39999,59,30000,55,10000,40,9999,0.100000,99,0,0.000000,10,0.000000,25.763533,1.187902,99,99,0,0,0,0,0
3,39999,60,30000,28,0,40,9999,0.100000,99,0,0.000000,10,1.000000,29.545979,7.970538,99,99,0,0,0,0,0
3,39999,61,30000,76,0,40,9999,0.100000,99,0,0.000000,10,0.000000,31.347359,0.094446,99,99,0,0,0,0,0
3,39999,62,30000,76,0,0,9999,0.100000,99,0,0.033958,10,0.000000,30.767391,0.346270,99,99,0,0,0,0,1
3,39999,63,30000,42,0,40,9999,0.100000,99,0,0.000000,11,0.000000,33.640092,0.541080,99,99,0,0,0,0,0
3,39999,64,30000,42,0,40,9999,0.100000,99,0,0.000000,10,0.000000,27.160411,0.073695,99,99,0,0,0,0,0
3,39999,65,30000,70,0,40,9999,0.100000,99,0,0.000000,10,0.000000,31.144235,17.849212,99,99,0,0,0,0,0
3,39999,66,30000,22,0,40,9999,0.100000,99,0,0.000000,10,0.000000,26.016517,0.078149,99,99,0,0,0,0,0
3,39999,67,30000,53,10000,0,9999,0.100000,99,0,0.571368,10,0.000000,20.611341,0.164475,99,99,0,0,0,0,1
3,39999,68,30000,10,20000,40,9999,0.100000,99,0,0.000000,11,0.000000,28.311846,0.206226,99,99,0,0,0,0,0
3,39999,69,30000,53,10000,40,9999,0.100000,99,0,0.000000,10,0.000000,31.221645,3.593231,99,99,0,0,0,0,0
3,39999,70,30000,28,0,40,9999,0.100000,99,0,0.000000,10,2.000000,27.745600,7.406863,99,99,0,0,0,0,0
3,39999,71,30000,22,0,40,9999,0.100000,99,0,0.000000,10,0.000000,25.232375,0.138377,99,99,0,0,0,0,0
3,39999,72,30000,10,20000,40,9999,0.100000,99,0,0.000000,10,0.000000,30.957625,1.243194,99,99,0,0,0,0,0
3,39999,73,30000,93,20000,0,9999,0.100000,99,0,0.020972,11,0.000000,27.304283,0.076952,99,99,0,0,0,0,1
3,39999,74,30000,53,10000,0,9999,0.100000,99,0,0.003343,10,0.000000,27.105245,0.083374,99,99,0,0,0,0,1
3,39999,75,30000,53,10000,40,9999,0.100000,99,0,0.000000,10,0.000000,18.649284,2.092271,99,99,0,0,0,0,0
3,39999,76,30000,42,0,40,9999,0.100000,99,0,0.000000,10,3.000000,30.831412,19.820921,99,99,0,0,0,0,0
3,39999,77,30000,1,20000,0,9999,0.100000,99,0,1.792304,10,0.000000,29.656428,0.647893,99,99,0,0,1,0,0
3,39999,78,30000,70,0,40,9999,0.100000,99,0,0.000000,10,0.000000,14.950855,0.079476,99,99,0,0,0,0,0
3,39999,79,30000,10,20000,40,9999,0.100000,99,0,0.000000,10,2.000000,28.248279,3.793426,99,99,0,0,0,0,0
3,39999,80,30000,1,20000,40,9999,0.100000,99,0,0.000000,10,0.000000,16.118097,2.238074,99,99,0,0,0,0,0
3,39999,81,30000,93,20000,40,9999,0.100000,99,0,0.000000,11,0.000000,26.246313,0.100638,99,99,0,0,0,0,0
3,39999,82,30000,10,20000,40,9999,0.100000,99,0,0.000000,10,0.000000,25.094929,0.212409,99,99,0,0,0,0,0
3,39999,83,30000,42,0,40,9999,0.100000,99,0,0.000000,10,0.000000,21.296080,0.944665,99,99,0,0,0,0,0
3,39999,84,30000,22,0,0,9999,0.100000,99,0,0.000220,10,0.000000,16.197996,1.012549,99,99,0,0,0,0,1
3,39999,85,30000,70,0,40,9999,0.100000,99,0,0.000000,10,0.000000,34.900189,0.153467,99,99,0,0,0,0,0
3,39999,86,30000,10,20000,0,9999,0.100000,99,0,0.003508,10,0.000000,27.944026,0.091274,99,99,0,0,0,0,1
3,39999,87,30000,53,10000,0,9999,0.100000,99,0,0.001485,10,0.000000,26.335984,0.114390,99,99,0,0,0,0,1
3,39999,88,30000,28,0,1,9999,0.100000,99,0,0.378445,10,4.000000,27.825098,5.609191,99,99,0,0,0,0,1
3,39999,89,30000,55,10000,40,9999,0.100000,99,0,0.000000,10,3.000000,30.665406,9.033695,99,99,0,0,0,0,0
3,39999,90,30000,53,10000,40,9999,0.100000,99,0,0.000000,10,0.000000,27.178264,0.073825,99,99,0,0,0,0,0
3,39999,91,30000,1,20000,0,9999,0.100000,99,0,0.001466,10,0.000000,21.067205,0.142870,99,99,0,0,0,0,1
3,39999,92,30000,27,10000,0,9999,0.100000,99,0,0.231940,10,0.000000,22.021282,0.193275,99,99,0,1,0,0,0
3,39999,93,30000,28,0,42,9999,0.100000,99,0,0.000000,11,4.000000,17.545998,20.808867,99,99,0,0,0,0,0
3,39999,94,30000,27,10000,42,9999,0.100000,99,0,0.000000,10,5.000000,20.051652,12.775320,99,99,0,0,0,0,0
3,39999,95,30000,1,20000,40,9999,0.100000,99,0,0.000000,10,0.000000,16.239547,0.844610,99,99,0,0,0,0,0
3,39999,96,30000,42,0,40,9999,0.100000,99,0,0.000000,11,0.000000,35.490415,0.344385,99,99,0,0,0,0,0
3,39999,97,30000,53,10000,0,9999,0.100000,99,0,0.000367,10,0.000000,23.465637,0.076672,99,99,0,0,0,0,1
3,39999,98,30000,28,0,0,9999,0.100000,99,0,1.480105,10,0.000000,28.559560,1.487363,99,99,0,1,0,0,0
3,39999,99,30000,0,0,40,9999,0.100000,99,0,0.000000,11,1.000000,28.885783,6.298739,99,99,0,0,0,0,0
4,49999,0,40000,55,10000,40,9999,0.100000,99,0,0.000000,12,1.000000,20.876731,17.004024,99,99,0,0,0,0,0
4,49999,1,40000,93,20000,0,9999,0.100000,99,0,0.025135,11,0.000000,26.910798,0.082154,99,99,0,0,0,0,1
4,49999,2,40000,42,30000,40,9999,0.100000,99,0,0.000000,13,0.000000,30.630307,0.437251,99,99,0,0,0,0,0
4,49999,3,40000,10,20000,40,9999,0.100000,99,0,0.000000,12,0.000000,26.681875,0.091145,99,99,0,0,0,0,0
4,49999,4,40000,1,20000,0,9999,0.100000,99,0,1.131547,13,0.000000,20.987857,0.275194,99,99,0,0,0,0,1
4,49999,5,40000,53,10000,40,9999,0.100000,99,0,0.000000,11,0.000000,22.291467,15.034768,99,99,0,0,0,0,0
4,49999,6,40000,93,20000,40,9999,0.100000,99,0,0.000000,12,0.000000,33.936510,0.141816,99,99,0,0,0,0,0
4,49999,7,40000,28,0,40,9999,0.100000,99,0,0.000000,12,0.000000,31.525492,0.081705,99,99,0,0,0,0,0
4,49999,8,40000,0,0,40,9999,0.100000,99,0,0.000000,12,0.000000,35.179708,0.203955,99,99,0,0,0,0,0
4,49999,9,40000,93,20000,0,9999,0.100000,99,0,0.697248,13,0.000000,27.084432,0.183222,99,99,0,1,0,0,0
4,49999,10,40000,37,30000,40,9999,0.100000,99,0,0.000000,13,0.000000,23.969724,1.000384,99,99,0,0,0,0,0
4,49999,11,40000,28,0,0,9999,0.100000,99,0,0.002717,13,0.000000,28.389189,0.077704,99,99,0,0,0,0,1
4,49999,12,40000,10,20000,40,9999,0.100000,99,0,0.000000,12,0.000000,15.353098,0.080949,99,99,0,0,0,0,0
4,49999,13,40000,55,10000,0,9999,0.100000,99,0,0.150852,13,0.000000,22.609809,0.085196,99,99,0,0,0,0,1
4,49999,14,40000,70,0,40,9999,0.100000,99,0,0.000000,13,0.000000,29.341504,0.076387,99,99,0,0,0,0,0
4,49999,15,40000,42,30000,0,9999,0.100000,99,0,0.254640,13,0.000000,24.445626,0.228694,99,99,0,0,0,1,0
4,49999,16,40000,42,0,40,9999,0.100000,99,0,0.000000,13,0.000000,16.432571,2.163168,99,99,0,0,0,0,0
4,49999,17,40000,1,20000,40,9999,0.100000,99,0,0.000000,12,0.000000,25.515965,7.839376,99,99,0,0,0,0,0
4,49999,18,40000,55,10000,40,9999,0.100000,99,0,0.000000,13,0.000000,29.132580,0.122885,99,99,0,0,0,0,0
4,49999,19,40000,53,10000,40,9999,0.100000,99,0,0.000000,13,0.000000,24.120203,0.940227,99,99,0,0,0,0,0
4,49999,20,40000,0,0,40,9999,0.100000,99,0,0.000000,13,1.000000,22.789815,3.077342,99,99,0,0,0,0,0
4,49999,21,40000,22,0,40,9999,0.100000,99,0,0.000000,13,0.000000,20.884513,0.342557,99,99,0,0,0,0,0
4,49999,22,40000,93,20000,0,9999,0.100000,99,0,0.004101,12,0.000000,25.783520,0.121216,99,99,0,0,0,1,0
4,49999,23,40000,37,30000,0,9999,0.100000,99,0,0.001048,13,0.000000,22.384632,0.090826,99,99,0,0,0,0,1
4,49999,24,40000,76,0,0,9999,0.100000,99,0,0.004421,12,0.000000,26.479373,0.069649,99,99,0,0,0,0,1
4,49999,25,40000,22,0,0,9999,0.100000,99,0,0.053169,13,0.000000,24.948385,0.485224,99,99,0,0,0,1,0
4,49999,26,40000,22,0,0,9999,0.100000,99,0,1.250865,13,0.000000,25.739601,1.066670,99,99,0,0,0,0,1
4,49999,27,40000,42,0,0,9999,0.100000,99,0,0.297779,12,0.000000,14.532339,0.200162,99,99,0,0,0,0,1
4,49999,28,40000,0,0,0,9999,0.100000,99,0,0.002521,13,0.000000,15.788958,0.094162,99,99,0,0,0,0,1
4,49999,29,40000,10,20000,40,9999,0.100000,99,0,0.000000,13,0.000000,28.228586,0.077932,99,99,0,0,0,0,0
4,49999,30,40000,1,20000,0,9999,0.100000,99,0,0.027020,12,0.000000,28.501513,0.149619,99,99,0,0,1,0,0
4,49999,31,40000,55,10000,41,9999,0.100000,99,0,0.000000,13,3.000000,22.324457,6.854114,99,99,0,0,0,0,0
4,49999,32,40000,55,10000,40,9999,0.100000,99,0,0.000000,13,0.000000,33.391867,1.682736,99,99,0,0,0,0,0
4,49999,33,40000,22,0,40,9999,0.100000,99,0,0.000000,12,0.000000,23.966670,2.806355,99,99,0,0,0,0,0
4,49999,34,40000,70,0,40,9999,0.100000,99,0,0.000000,12,0.000000,19.023810,0.328076,99,99,0,0,0,0,0
4,49999,35,40000,70,0,40,9999,0.100000,99,0,0.000000,13,1.000000,30.686768,7.073072,99,99,0,0,0,0,0
4,49999,36,40000,28,0,0,9999,0.100000,99,0,0.000813,12,0.000000,26.595535,0.286900,99,99,0,0,0,0,1
4,49999,37,40000,22,0,40,9999,0.100000,99,0,0.000000,12,0.000000,13.041367,6.899883,99,99,0,0,0,0,0
4,49999,38,40000,28,0,40,9999,0.100000,99,0,0.000000,13,0.000000,26.460585,0.164816,99,99,0,0,0,0,0
4,49999,39,40000,70,0,42,9999,0.100000,99,0,0.000000,13,5.000000,16.618582,16.283901,99,99,0,0,0,0,0
4,49999,40,40000,0,0,40,9999,0.100000,99,0,0.000000,13,0.000000,30.885446,2.638420,99,99,0,0,0,0,0
4,49999,41,40000,0,0,40,9999,0.100000,99,0,0.000000,12,0.000000,20.428088,1.124323,99,99,0,0,0,0,0
4,49999,42,40000,0,0,0,9999,0.100000,99,0,0.001883,13,0.000000,28.373507,0.983401,99,99,0,0,0,1,0
4,49999,43,40000,10,20000,40,9999,0.100000,99,0,0.000000,12,0.000000,35.788921,0.220242,99,99,0,0,0,0,0
4,49999,44,40000,22,0,40,9999,0.100000,99,0,0.000000,13,0.000000,12.378914,0.389358,99,99,0,0,0,0,0
4,49999,45,40000,93,20000,40,9999,0.100000,99,0,0.000000,13,1.000000,24.878813,1.666613,99,99,0,0,0,0,0
4,49999,46,40000,28,0,0,9999,0.100000,99,0,5.893822,13,1.000000,24.940030,1.577412,99,99,0,1,0,0,0
4,49999,47,40000,76,0,0,9999,0.100000,99,0,0.434670,13,0.000000,34.590005,0.147659,99,99,0,0,0,0,1
4,49999,48,40000,55,10000,0,9999,0.100000,99,0,0.262761,13,0.000000,18.825218,0.326879,99,99,0,0,1,0,0
4,49999,49,40000,76,0,40,9999,0.100000,99,0,0.000000,12,0.000000,24.042603,0.438711,99,99,0,0,0,0,0
4,49999,50,40000,42,0,2,9999,0.100000,99,0,0.172021,13,6.000000,19.111922,13.977690,99,99,0,0,0,1,0
4,49999,51,40000,76,0,0,9999,0.100000,99,0,0.360726,13,0.000000,33.526158,1.122872,99,99,0,0,0,0,1
4,49999,52,40000,0,0,40,9999,0.100000,99,0,0.000000,13,0.000000,21.307529,0.489333,99,99,0,0,0,0,0
4,49999,53,40000,55,10000,40,9999,0.100000,99,0,0.000000,13,0.000000,12.708650,0.519872,99,99,0,0,0,0,0
4,49999,54,40000,93,20000,0,9999,0.100000,99,0,0.042822,13,0.000000,23.287226,0.092672,99,99,0,0,0,0,1
4,49999,55,40000,55,10000,0,9999,0.100000,99,0,0.059568,13,0.000000,16.557287,1.338433,99,99,0,0,0,0,1
4,49999,56,40000,37,30000,40,9999,0.100000,99,0,0.000000,12,0.000000,29.666503,0.081243,99,99,0,0,0,0,0
4,49999,57,40000,22,0,40,9999,0.100000,99,0,0.000000,13,0.000000,20.184352,1.337874,99,99,0,0,0,0,0
4,49999,58,40000,42,30000,0,9999,0.100000,99,0,0.003000,13,0.000000,29.433594,0.075686,99,99,0,0,0,0,1
4,49999,59,40000,55,10000,40,9999,0.100000,99,0,0.000000,12,0.000000,25.694624,1.428299,99,99,0,0,0,0,0
4,49999,60,40000,55,10000,40,9999,0.100000,99,0,0.000000,12,3.000000,29.989709,13.211289,99,99,0,0,0,0,0
4,49999,61,40000,93,20000,0,9999,0.100000,99,0,0.007456,13,0.000000,31.346576,0.095729,99,99,0,0,0,0,1
4,49999,62,40000,42,30000,40,9999,0.100000,99,0,0.000000,13,0.000000,30.613678,0.399422,99,99,0,0,0,0,0
4,49999,63,40000,37,30000,40,9999,0.100000,99,0,0.000000,13,0.000000,33.763389,0.224054,99,99,0,0,0,0,0
4,49999,64,40000,10,20000,0,9999,0.100000,99,0,0.003257,12,0.000000,27.161668,0.075838,99,99,0,0,0,0,1
4,49999,65,40000,70,0,40,9999,0.100000,99,0,0.000000,12,0.000000,31.485869,4.191228,99,99,0,0,0,0,0
4,49999,66,40000,22,0,40,9999,0.100000,99,0,0.000000,13,0.000000,26.020085,0.080704,99,99,0,0,0,0,0
4,49999,67,40000,53,10000,0,9999,0.100000,99,0,0.097576,12,0.000000,20.718481,0.139067,99,99,0,0,0,0,1
4,49999,68,40000,53,10000,40,9999,0.100000,99,0,0.000000,13,0.000000,28.296844,0.093136,99,99,0,0,0,0,0
4,49999,69,40000,22,0,40,9999,0.100000,99,0,0.000000,11,0.000000,31.459698,1.262015,99,99,0,0,0,0,0
4,49999,70,40000,76,0,40,9999,0.100000,99,0,0.000000,13,0.000000,29.818407,3.199609,99,99,0,0,0,0,0
4,49999,71,40000,76,0,40,9999,0.100000,99,0,0.000000,13,0.000000,25.245194,0.094211,99,99,0,0,0,0,0
4,49999,72,40000,76,0,0,9999,0.100000,99,0,0.684794,13,0.000000,30.809560,1.137723,99,99,0,0,0,0,1
4,49999,73,40000,76,0,0,9999,0.100000,99,0,0.002844,12,0.000000,27.293677,0.100974,99,99,0,0,0,0,1
4,49999,74,40000,55,10000,40,9999,0.100000,99,0,0.000000,13,0.000000,27.106324,0.082118,99,99,0,0,0,0,0
4,49999,75,40000,0,0,40,9999,0.100000,99,0,0.000000,12,0.000000,18.831202,1.932250,99,99,0,0,0,0,0
4,49999,76,40000,53,10000,40,9999,0.100000,99,0,0.000000,12,1.000000,33.256999,18.355486,99,99,0,0,0,0,0
4,49999,77,40000,70,0,0,9999,0.100000,99,0,3.301081,13,1.000000,29.850215,1.227982,99,99,0,0,1,0,0
4,49999,78,40000,37,30000,40,9999,0.100000,99,0,0.000000,13,0.000000,14.951649,0.078909,99,99,0,0,0,0,0
4,49999,79,40000,76,0,40,9999,0.100000,99,0,0.000000,12,1.000000,29.776871,1.374559,99,99,0,0,0,0,0
4,49999,80,40000,1,20000,45,9999,0.100000,99,0,0.000000,13,10.000000,16.504391,12.780244,99,99,0,0,0,0,0
4,49999,81,40000,1,20000,40,9999,0.100000,99,0,0.000000,12,0.000000,26.245564,0.146327,99,99,0,0,0,0,0
4,49999,82,40000,55,10000,41,9999,0.100000,99,0,0.000000,13,5.000000,25.158057,10.676165,99,99,0,0,0,0,0
4,49999,83,40000,70,0,40,9999,0.100000,99,0,0.000000,13,0.000000,20.615275,1.051340,99,99,0,0,0,0,0
4,49999,84,40000,70,0,40,9999,0.100000,99,0,0.000000,13,0.000000,16.482124,1.076509,99,99,0,0,0,0,0
4,49999,85,40000,70,0,40,9999,0.100000,99,0,0.000000,13,0.000000,34.795329,0.156165,99,99,0,0,0,0,0
4,49999,86,40000,10,20000,0,9999,0.100000,99,0,0.003164,12,0.000000,27.943813,0.090319,99,99,0,0,0,0,1
4,49999,87,40000,42,0,0,9999,0.100000,99,0,0.000611,12,0.000000,26.336839,0.114379,99,99,0,0,0,0,1
4,49999,88,40000,22,0,0,9999,0.100000,99,0,0.381954,13,0.000000,26.541137,0.174300,99,99,0,0,0,0,1
4,49999,89,40000,53,10000,40,9999,0.100000,99,0,0.000000,13,2.000000,33.617766,6.982530,99,99,0,0,0,0,0
4,49999,90,40000,28,0,40,9999,0.100000,99,0,0.000000,13,0.000000,27.179615,0.073240,99,99,0,0,0,0,0
4,49999,91,40000,55,10000,0,9999,0.100000,99,0,0.000169,13,0.000000,21.064855,0.106080,99,99,0,0,0,0,1
4,49999,92,40000,55,10000,0,9999,0.100000,99,0,0.236512,12,0.000000,22.118689,0.192617,99,99,0,1,0,0,0
4,49999,93,40000,70,0,43,9999,0.100000,99,0,0.000000,12,7.000000,17.920533,14.181745,99,99,0,0,0,0,0
4,49999,94,40000,53,10000,40,9999,0.100000,99,0,0.000000,13,0.000000,20.274951,0.307724,99,99,0,0,0,0,0
4,49999,95,40000,42,30000,40,9999,0.100000,99,0,0.000000,13,0.000000,16.523347,1.491376,99,99,0,0,0,0,0
4,49999,96,40000,53,10000,40,9999,0.100000,99,0,0.000000,13,0.000000,35.383494,0.336805,99,99,0,0,0,0,0
4,49999,97,40000,93,20000,0,9999,0.100000,99,0,0.275059,13,0.000000,23.466197,0.135419,99,99,0,0,0,0,1
4,49999,98,40000,70,0,1,9999,0.100000,99,0,17.839556,13,4.000000,28.911798,16.547603,99,99,0,1,0,0,0
4,49999,99,40000,22,0,0,9999,0.100000,99,0,17.839679,12,3.000000,29.130368,7.298878,99,99,0,1,0,0,0
5,59999,0,50000,93,20000,40,9999,0.100000,99,0,0.000000,13,1.000000,21.769061,3.601948,99,99,0,0,0,0,0
5,59999,1,50000,1,20000,40,9999,0.100000,99,0,0.000000,13,0.000000,26.913417,0.393856,99,99,0,0,0,0,0
5,59999,2,50000,53,10000,40,9999,0.100000,99,0,0.000000,13,0.000000,30.535475,0.745637,99,99,0,0,0,0,0
5,59999,3,50000,42,0,0,9999,0.100000,99,0,0.575764,13,0.000000,26.684633,0.203131,99,99,0,0,0,0,1
5,59999,4,50000,53,10000,0,9999,0.100000,99,0,0.344907,14,0.000000,20.959224,0.122916,99,99,0,0,0,0,1
5,59999,5,50000,93,20000,40,9999,0.100000,99,0,0.000000,13,0.000000,23.077173,9.285856,99,99,0,0,0,0,0
5,59999,6,50000,28,0,0,9999,0.100000,99,0,0.282373,14,0.000000,33.961089,0.136572,99,99,0,0,0,0,1
5,59999,7,50000,42,0,0,9999,0.100000,99,0,0.001898,14,0.000000,31.523958,0.077944,99,99,0,0,0,0,1
5,59999,8,50000,93,20000,40,9999,0.100000,99,0,0.000000,13,0.000000,35.217237,0.186700,99,99,0,0,0,0,0
5,59999,9,50000,45,30000,0,9999,0.100000,99,0,0.671754,13,0.000000,26.984440,0.176589,99,99,0,1,0,0,0
5,59999,10,50000,70,0,0,9999,0.100000,99,0,0.124958,14,0.000000,23.494833,0.326070,99,99,0,0,1,0,0
5,59999,11,50000,37,30000,0,9999,0.100000,99,0,0.003255,13,0.000000,28.390650,0.076591,99,99,0,0,0,0,1
5,59999,12,50000,80,40000,0,9999,0.100000,99,0,0.002983,14,0.000000,15.354251,0.081327,99,99,0,0,0,0,1
5,59999,13,50000,76,0,0,9999,0.100000,99,0,0.143367,13,0.000000,22.616851,0.112110,99,99,0,0,0,0,1
5,59999,14,50000,22,0,40,9999,0.100000,99,0,0.000000,13,0.000000,29.340922,0.069029,99,99,0,0,0,0,0
5,59999,15,50000,37,30000,1,9999,0.100000,99,0,0.226960,13,4.000000,24.486706,8.006724,99,99,0,0,0,1,0
5,59999,16,50000,53,10000,40,9999,0.100000,99,0,0.000000,13,0.000000,16.736711,1.677207,99,99,0,0,0,0,0
5,59999,17,50000,0,0,40,9999,0.100000,99,0,0.000000,15,0.000000,25.437504,0.339637,99,99,0,0,0,0,0
5,59999,18,50000,76,0,0,9999,0.100000,99,0,0.000428,13,0.000000,29.128869,0.116024,99,99,0,0,0,1,0
5,59999,19,50000,0,0,40,9999,0.100000,99,0,0.000000,13,0.000000,24.266296,0.986481,99,99,0,0,0,0,0
5,59999,20,50000,42,30000,40,9999,0.100000,99,0,0.000000,13,0.000000,21.213117,0.759409,99,99,0,0,0,0,0
5,59999,21,50000,28,0,40,9999,0.100000,99,0,0.000000,13,0.000000,20.987524,0.344260,99,99,0,0,0,0,0
5,59999,22,50000,42,30000,2,9999,0.100000,99,0,0.003617,15,6.000000,25.783629,13.854749,99,99,0,0,0,1,0
5,59999,23,50000,37,30000,0,9999,0.100000,99,0,0.001509,14,0.000000,22.384657,0.071630,99,99,0,0,0,0,1
5,59999,24,50000,42,0,0,9999,0.100000,99,0,0.035137,14,0.000000,26.480648,0.067877,99,99,0,0,0,0,1
5,59999,25,50000,53,10000,0,9999,0.100000,99,0,0.183927,13,0.000000,24.884013,0.402669,99,99,0,0,0,1,0
5,59999,26,50000,55,10000,40,9999,0.100000,99,0,0.000000,13,0.000000,25.461552,0.669245,99,99,0,0,0,0,0
5,59999,27,50000,99,40000,0,9999,0.100000,99,0,0.410117,14,0.000000,14.585585,0.194502,99,99,0,0,0,0,1
5,59999,28,50000,98,40000,40,9999,0.100000,99,0,0.000000,15,0.000000,15.790388,0.093410,99,99,0,0,0,0,0
5,59999,29,50000,76,0,40,9999,0.100000,99,0,0.000000,14,0.000000,28.229451,0.079137,99,99,0,0,0,0,0
5,59999,30,50000,80,40000,40,9999,0.100000,99,0,0.000000,13,0.000000,28.507311,0.208096,99,99,0,0,0,0,0
5,59999,31,50000,42,30000,40,9999,0.100000,99,0,0.000000,13,0.000000,19.062831,0.247549,99,99,0,0,0,0,0
5,59999,32,50000,42,30000,40,9999,0.100000,99,0,0.000000,14,0.000000,33.428646,2.393451,99,99,0,0,0,0,0
5,59999,33,50000,80,40000,40,9999,0.100000,99,0,0.000000,14,1.000000,23.449251,14.495609,99,99,0,0,0,0,0
5,59999,34,50000,45,30000,0,9999,0.100000,99,0,0.182640,13,0.000000,19.218932,0.345507,99,99,0,0,1,0,0
5,59999,35,50000,53,10000,0,9999,0.100000,99,0,0.108452,14,1.000000,29.836178,3.500939,99,99,0,0,1,0,0
5,59999,36,50000,22,0,0,9999,0.100000,99,0,0.025220,13,0.000000,26.693361,0.107183,99,99,0,0,0,0,1
5,59999,37,50000,45,30000,40,9999,0.100000,99,0,0.000000,13,0.000000,13.066184,7.101952,99,99,0,0,0,0,0
5,59999,38,50000,42,0,40,9999,0.100000,99,0,0.000000,14,0.000000,26.463549,0.207338,99,99,0,0,0,0,0
5,59999,39,50000,53,10000,40,9999,0.100000,99,0,0.000000,13,0.000000,22.034063,0.706919,99,99,0,0,0,0,0
5,59999,40,50000,42,0,40,9999,0.100000,99,0,0.000000,14,0.000000,30.123887,0.144687,99,99,0,0,0,0,0
5,59999,41,50000,42,30000,40,9999,0.100000,99,0,0.000000,14,1.000000,19.908682,5.033597,99,99,0,0,0,0,0
5,59999,42,50000,45,30000,40,9999,0.100000,99,0,0.000000,13,0.000000,28.681439,0.090327,99,99,0,0,0,0,0
5,59999,43,50000,42,30000,40,9999,0.100000,99,0,0.000000,13,0.000000,35.789592,0.225863,99,99,0,0,0,0,0
5,59999,44,50000,0,0,5,9999,0.100000,99,0,0.000435,15,7.000000,12.525882,16.438614,99,99,0,0,0,1,0
5,59999,45,50000,55,10000,0,9999,0.100000,99,0,0.324041,15,0.000000,26.136235,0.611856,99,99,0,1,0,0,0
5,59999,46,50000,55,10000,40,9999,0.100000,99,0,0.000000,15,0.000000,26.195905,0.512727,99,99,0,0,0,0,0
5,59999,47,50000,99,40000,0,9999,0.100000,99,0,0.441889,13,0.000000,34.480273,0.139767,99,99,0,0,0,0,1
5,59999,48,50000,53,10000,40,9999,0.100000,99,0,0.000000,13,0.000000,18.992405,0.307919,99,99,0,0,0,0,0
5,59999,49,50000,70,0,40,9999,0.100000,99,0,0.000000,13,0.000000,24.166112,0.397085,99,99,0,0,0,0,0
5,59999,50,50000,28,0,40,9999,0.100000,99,0,0.000000,15,0.000000,12.678489,0.278180,99,99,0,0,0,0,0
5,59999,51,50000,55,10000,40,9999,0.100000,99,0,0.000000,14,0.000000,33.562102,0.897978,99,99,0,0,0,0,0
5,59999,52,50000,45,30000,40,9999,0.100000,99,0,0.000000,14,0.000000,21.282367,0.398861,99,99,0,0,0,0,0
5,59999,53,50000,99,40000,40,9999,0.100000,99,0,0.000000,14,0.000000,12.859922,0.321067,99,99,0,0,0,0,0
5,59999,54,50000,70,0,0,9999,0.100000,99,0,0.038259,15,0.000000,23.281322,0.121070,99,99,0,0,0,0,1
5,59999,55,50000,37,30000,43,9999,0.100000,99,0,0.000000,15,6.000000,16.953419,7.219505,99,99,0,0,0,0,0
5,59999,56,50000,55,10000,40,9999,0.100000,99,0,0.000000,13,0.000000,29.665914,0.082146,99,99,0,0,0,0,0
5,59999,57,50000,55,10000,42,9999,0.100000,99,0,0.000000,14,5.000000,20.490454,10.898445,99,99,0,0,0,0,0
5,59999,58,50000,53,10000,0,9999,0.100000,99,0,0.002888,15,0.000000,29.433078,0.076549,99,99,0,0,0,0,1
5,59999,59,50000,37,30000,40,9999,0.100000,99,0,0.000000,15,0.000000,25.374720,1.018583,99,99,0,0,0,0,0
5,59999,60,50000,99,40000,41,9999,0.100000,99,0,0.000000,14,4.000000,33.131530,7.424919,99,99,0,0,0,0,0
5,59999,61,50000,28,0,40,9999,0.100000,99,0,0.000000,13,0.000000,31.345307,0.091736,99,99,0,0,0,0,0
5,59999,62,50000,93,40000,40,9999,0.100000,99,0,0.000000,15,0.000000,30.517456,0.671003,99,99,0,0,0,0,0
5,59999,63,50000,76,0,40,9999,0.100000,99,0,0.000000,14,0.000000,33.808399,0.187400,99,99,0,0,0,0,0
5,59999,64,50000,76,0,40,9999,0.100000,99,0,0.000000,13,0.000000,27.162965,0.075949,99,99,0,0,0,0,0
5,59999,65,50000,70,0,0,9999,0.100000,99,0,0.002088,15,0.000000,30.642864,4.306150,99,99,0,0,0,0,1
5,59999,66,50000,99,40000,40,9999,0.100000,99,0,0.000000,15,0.000000,26.023541,0.124839,99,99,0,0,0,0,0
5,59999,67,50000,42,0,0,9999,0.100000,99,0,0.080519,14,0.000000,20.780507,0.143223,99,99,0,0,0,0,1
5,59999,68,50000,93,20000,40,9999,0.100000,99,0,0.000000,13,0.000000,28.298035,0.094484,99,99,0,0,0,0,0
5,59999,69,50000,76,0,40,9999,0.100000,99,0,0.000000,14,1.000000,31.147265,1.467552,99,99,0,0,0,0,0
5,59999,70,50000,28,0,40,9999,0.100000,99,0,0.000000,13,0.000000,29.819151,1.308158,99,99,0,0,0,0,0
5,59999,71,50000,45,30000,40,9999,0.100000,99,0,0.000000,14,0.000000,25.245711,0.092529,99,99,0,0,0,0,0
5,59999,72,50000,28,0,40,9999,0.100000,99,0,0.000000,15,0.000000,30.727451,0.183838,99,99,0,0,0,0,0
5,59999,73,50000,28,0,0,9999,0.100000,99,0,0.079144,13,0.000000,27.267499,0.084538,99,99,0,0,0,0,1
5,59999,74,50000,53,10000,0,9999,0.100000,99,0,0.003062,14,0.000000,27.107220,0.082706,99,99,0,0,0,0,1
5,59999,75,50000,50,40000,40,9999,0.100000,99,0,0.000000,15,0.000000,19.032468,1.950918,99,99,0,0,0,0,0
5,59999,76,50000,99,40000,41,9999,0.100000,99,0,0.000000,15,4.000000,32.842851,6.998295,99,99,0,0,0,0,0
5,59999,77,50000,99,40000,0,9999,0.100000,99,0,1.082212,14,0.000000,30.155870,0.511678,99,99,0,0,1,0,0
5,59999,78,50000,80,40000,40,9999,0.100000,99,0,0.000000,13,0.000000,14.952379,0.084794,99,99,0,0,0,0,0
5,59999,79,50000,0,0,40,9999,0.100000,99,0,0.000000,14,0.000000,30.195037,2.052837,99,99,0,0,0,0,0
5,59999,80,50000,0,0,40,9999,0.100000,99,0,0.000000,13,1.000000,19.885163,5.574843,99,99,0,0,0,0,0
5,59999,81,50000,37,30000,41,9999,0.100000,99,0,0.000000,15,5.000000,26.248143,11.806974,99,99,0,0,0,0,0
5,59999,82,50000,42,0,40,9999,0.100000,99,0,0.000000,15,0.000000,25.247271,0.219025,99,99,0,0,0,0,0
5,59999,83,50000,80,40000,40,9999,0.100000,99,0,0.000000,13,0.000000,20.052359,2.349214,99,99,0,0,0,0,0
5,59999,84,50000,37,30000,0,9999,0.100000,99,0,0.176664,14,0.000000,16.816940,1.562926,99,99,0,0,0,0,1
5,59999,85,50000,80,40000,40,9999,0.100000,99,0,0.000000,15,0.000000,34.680883,0.142613,99,99,0,0,0,0,0
5,59999,86,50000,93,20000,0,9999,0.100000,99,0,0.097989,13,0.000000,27.943547,0.110761,99,99,0,0,0,0,1
5,59999,87,50000,99,40000,0,9999,0.100000,99,0,0.000884,14,0.000000,26.337162,0.113530,99,99,0,0,0,0,1
5,59999,88,50000,55,10000,0,9999,0.100000,99,0,0.471536,13,0.000000,26.604117,0.173142,99,99,0,0,0,0,1
5,59999,89,50000,0,0,40,9999,0.100000,99,0,0.000000,14,0.000000,31.717246,0.070853,99,99,0,0,0,0,0
5,59999,90,50000,42,0,40,9999,0.100000,99,0,0.000000,14,0.000000,27.181058,0.072895,99,99,0,0,0,0,0
5,59999,91,50000,28,0,0,9999,0.100000,99,0,0.002857,14,0.000000,21.064135,0.162909,99,99,0,0,0,0,1
5,59999,92,50000,76,0,0,9999,0.100000,99,0,0.237659,13,0.000000,22.210594,0.190387,99,99,0,1,0,0,0
5,59999,93,50000,80,40000,41,9999,0.100000,99,0,0.000000,14,2.000000,11.586747,7.165376,99,99,0,0,0,0,0
5,59999,94,50000,98,40000,40,9999,0.100000,99,0,0.000000,14,0.000000,20.269344,0.090177,99,99,0,0,0,0,0
5,59999,95,50000,28,0,40,9999,0.100000,99,0,0.000000,14,0.000000,16.850442,1.150414,99,99,0,0,0,0,0
5,59999,96,50000,93,40000,40,9999,0.100000,99,0,0.000000,14,0.000000,35.255129,0.355874,99,99,0,0,0,0,0
5,59999,97,50000,42,0,0,9999,0.100000,99,0,0.141917,13,0.000000,23.486387,0.113254,99,99,0,0,0,0,1
5,59999,98,50000,0,0,40,9999,0.135000,99,0,0.000000,14,0.000000,32.929178,8.278822,99,99,0,0,0,0,0
5,59999,99,50000,55,10000,40,9999,0.100000,99,0,0.000000,13,0.000000,31.906469,0.083727,99,99,0,0,0,0,0
6,69999,0,60000,50,40000,40,9999,0.100000,99,0,0.000000,15,2.000000,22.055834,8.531013,99,99,0,0,0,0,0
6,69999,1,60000,37,30000,0,9999,0.100000,99,0,0.337063,15,0.000000,26.867224,0.960634,99,99,0,0,0,0,1
6,69999,2,60000,37,30000,40,9999,0.100000,99,0,0.000000,15,0.000000,30.532213,0.143445,99,99,0,0,0,0,0
6,69999,3,60000,42,0,40,9999,0.100000,99,0,0.000000,15,0.000000,26.691645,0.972010,99,99,0,0,0,0,0
6,69999,4,60000,28,0,0,9999,0.100000,99,0,0.382511,15,0.000000,20.959397,0.131806,99,99,0,0,0,0,1
6,69999,5,60000,99,40000,40,9999,0.100000,99,0,0.000000,15,0.000000,23.733770,0.707993,99,99,0,0,0,0,0
6,69999,6,60000,70,0,40,9999,0.100000,99,0,0.000000,15,0.000000,33.980634,0.223815,99,99,0,0,0,0,0
6,69999,7,60000,98,40000,40,9999,0.100000,99,0,0.000000,15,0.000000,31.523759,0.079273,99,99,0,0,0,0,0
6,69999,8,60000,70,0,40,9999,0.100000,99,0,0.000000,15,0.000000,35.246566,0.224338,99,99,0,0,0,0,0
6,69999,9,60000,53,10000,0,9999,0.135000,99,0,0.682809,15,0.000000,26.888084,0.179524,99,99,0,1,0,0,0
6,69999,10,60000,42,30000,0,9999,0.065000,99,0,0.097143,15,0.000000,23.510668,0.562598,99,99,0,0,1,0,0
6,69999,11,60000,53,10000,0,9999,0.100000,99,0,0.003353,15,0.000000,28.392091,0.077445,99,99,0,0,0,0,1
6,69999,12,60000,37,30000,43,9999,0.100000,99,0,0.000000,15,5.000000,15.355494,10.118895,99,99,0,0,0,0,0
6,69999,13,60000,53,10000,0,9999,0.100000,99,0,0.145521,15,0.000000,22.625649,0.079902,99,99,0,0,0,0,1
6,69999,14,60000,42,30000,40,9999,0.100000,99,0,0.000000,15,0.000000,29.341567,0.087991,99,99,0,0,0,0,0
6,69999,15,60000,53,10000,0,9999,0.100000,99,0,0.172007,15,0.000000,24.498534,0.155774,99,99,0,0,0,1,0
6,69999,16,60000,70,0,40,9999,0.100000,99,0,0.000000,15,0.000000,17.338060,1.317901,99,99,0,0,0,0,0
6,69999,17,60000,42,0,40,9999,0.100000,99,0,0.000000,15,0.000000,25.480760,0.541482,99,99,0,0,0,0,0
6,69999,18,60000,76,0,0,9999,0.065000,99,0,0.076409,16,0.000000,29.129769,0.130587,99,99,0,0,0,1,0
6,69999,19,60000,42,0,40,9999,0.100000,99,0,0.000000,15,0.000000,24.341952,1.161916,99,99,0,0,0,0,0
6,69999,20,60000,22,0,40,9999,0.100000,99,0,0.000000,15,0.000000,21.083364,2.725444,99,99,0,0,0,0,0
6,69999,21,60000,55,50000,40,9999,0.100000,99,0,0.000000,16,0.000000,21.103324,0.341009,99,99,0,0,0,0,0
6,69999,22,60000,42,0,0,9999,0.100000,99,0,0.195762,16,0.000000,25.784025,0.180417,99,99,0,0,0,1,0
6,69999,23,60000,42,30000,0,9999,0.100000,99,0,0.068468,15,2.000000,22.385356,4.307108,99,99,0,0,0,0,1
6,69999,24,60000,0,0,0,9999,0.100000,99,0,0.258531,15,0.000000,26.492096,0.136857,99,99,0,0,0,0,1
6,69999,25,60000,98,40000,40,9999,0.100000,99,0,0.000000,15,0.000000,24.914554,0.624979,99,99,0,0,0,0,0
6,69999,26,60000,37,30000,40,9999,0.100000,99,0,0.000000,15,0.000000,25.445635,0.563452,99,99,0,0,0,0,0
6,69999,27,60000,37,30000,40,9999,0.100000,99,0,0.000000,15,0.000000,14.653930,0.688439,99,99,0,0,0,0,0
6,69999,28,60000,42,0,0,9999,0.100000,99,0,0.117192,15,0.000000,15.791874,0.101029,99,99,0,0,0,0,1
6,69999,29,60000,22,0,40,9999,0.100000,99,0,0.000000,16,0.000000,28.230381,0.079577,99,99,0,0,0,0,0
6,69999,30,60000,50,40000,0,9999,0.100000,99,0,0.023458,15,0.000000,28.520460,0.620663,99,99,0,0,1,0,0
6,69999,31,60000,42,30000,40,9999,0.100000,99,0,0.000000,15,0.000000,19.060458,0.238490,99,99,0,0,0,0,0
6,69999,32,60000,50,40000,0,9999,0.100000,99,0,0.093257,15,0.000000,33.437664,0.959058,99,99,0,0,0,0,1
6,69999,33,60000,80,40000,40,9999,0.100000,99,0,0.000000,15,0.000000,23.582536,13.833888,99,99,0,0,0,0,0
6,69999,34,60000,37,30000,0,9999,0.100000,99,0,0.004663,15,0.000000,19.384295,0.704188,99,99,0,0,1,0,0
6,69999,35,60000,80,40000,40,9999,0.100000,99,0,0.000000,15,0.000000,28.528020,0.370748,99,99,0,0,0,0,0
6,69999,36,60000,42,30000,0,9999,0.100000,99,0,0.097715,15,0.000000,26.689626,0.115756,99,99,0,0,0,0,1
6,69999,37,60000,53,10000,40,9999,0.100000,99,0,0.000000,15,0.000000,13.121585,0.893044,99,99,0,0,0,0,0
6,69999,38,60000,55,10000,40,9999,0.100000,99,0,0.000000,16,0.000000,26.479162,0.913281,99,99,0,0,0,0,0
6,69999,39,60000,42,30000,40,9999,0.100000,99,0,0.000000,15,2.000000,22.107693,8.125113,99,99,0,0,0,0,0
6,69999,40,60000,50,40000,0,9999,0.100000,99,0,0.017123,15,0.000000,30.075651,0.092651,99,99,0,0,0,0,1
6,69999,41,60000,76,0,40,9999,0.100000,99,0,0.000000,15,0.000000,20.715398,1.592549,99,99,0,0,0,0,0
6,69999,42,60000,22,0,40,9999,0.100000,99,0,0.000000,15,0.000000,28.683010,0.113815,99,99,0,0,0,0,0
6,69999,43,60000,70,0,40,9999,0.100000,99,0,0.000000,15,0.000000,35.789298,0.225795,99,99,0,0,0,0,0
6,69999,44,60000,98,40000,0,9999,0.100000,99,0,0.318004,16,0.000000,12.606903,0.181181,99,99,0,0,0,1,0
6,69999,45,60000,99,40000,0,9999,0.100000,99,0,7.536267,15,1.000000,26.306238,1.915440,99,99,0,1,0,0,0
6,69999,46,60000,44,50000,40,9999,0.100000,99,0,0.000000,16,1.000000,26.368993,1.835092,99,99,0,0,0,0,0
6,69999,47,60000,53,10000,0,9999,0.100000,99,0,0.601524,15,0.000000,34.381849,0.140814,99,99,0,0,0,0,1
6,69999,48,60000,42,0,40,9999,0.100000,99,0,0.000000,15,0.000000,19.139918,0.442082,99,99,0,0,0,0,0
6,69999,49,60000,80,40000,40,9999,0.100000,99,0,0.000000,15,0.000000,24.235320,0.360136,99,99,0,0,0,0,0
6,69999,50,60000,80,40000,40,9999,0.100000,99,0,0.000000,15,0.000000,12.698435,1.556578,99,99,0,0,0,0,0
6,69999,51,60000,50,40000,40,9999,0.100000,99,0,0.000000,16,0.000000,33.591390,2.275420,99,99,0,0,0,0,0
6,69999,52,60000,55,10000,40,9999,0.100000,99,0,0.000000,15,0.000000,21.288238,0.375673,99,99,0,0,0,0,0
6,69999,53,60000,22,0,40,9999,0.100000,99,0,0.000000,16,0.000000,12.853392,0.361321,99,99,0,0,0,0,0
6,69999,54,60000,55,50000,0,9999,0.100000,99,0,0.058309,15,0.000000,23.270301,0.081361,99,99,0,0,0,0,1
6,69999,55,60000,42,30000,40,9999,0.100000,99,0,0.000000,15,0.000000,11.319868,0.167337,99,99,0,0,0,0,0
6,69999,56,60000,76,0,0,9999,0.100000,99,0,0.003563,15,0.000000,29.665234,0.081654,99,99,0,0,0,0,1
6,69999,57,60000,28,0,40,9999,0.100000,99,0,0.000000,16,0.000000,20.484564,0.127267,99,99,0,0,0,0,0
6,69999,58,60000,53,10000,40,9999,0.100000,99,0,0.000000,15,0.000000,29.432485,0.076202,99,99,0,0,0,0,0
6,69999,59,60000,76,0,40,9999,0.100000,99,0,0.000000,15,0.000000,25.359751,0.718597,99,99,0,0,0,0,0
6,69999,60,60000,37,30000,40,9999,0.100000,99,0,0.000000,16,0.000000,29.458436,7.524160,99,99,0,0,0,0,0
6,69999,61,60000,98,40000,0,9999,0.100000,99,0,0.002245,15,0.000000,31.344973,0.092637,99,99,0,0,0,0,1
6,69999,62,60000,55,10000,40,9999,0.100000,99,0,0.000000,15,0.000000,30.480955,0.077274,99,99,0,0,0,0,0
6,69999,63,60000,50,40000,40,9999,0.100000,99,0,0.000000,16,0.000000,33.829944,1.143049,99,99,0,0,0,0,0
6,69999,64,60000,55,50000,40,9999,0.100000,99,0,0.000000,15,0.000000,27.164253,0.074908,99,99,0,0,0,0,0
6,69999,65,60000,55,10000,40,9999,0.100000,99,0,0.000000,15,0.000000,30.283583,0.133555,99,99,0,0,0,0,0
6,69999,66,60000,98,40000,40,9999,0.100000,99,0,0.000000,15,0.000000,26.057440,1.145808,99,99,0,0,0,0,0
6,69999,67,60000,55,10000,0,9999,0.100000,99,0,0.089340,15,0.000000,20.848176,0.142443,99,99,0,0,0,0,1
6,69999,68,60000,98,40000,40,9999,0.100000,99,0,0.000000,15,0.000000,28.299246,0.092942,99,99,0,0,0,0,0
6,69999,69,60000,76,0,40,9999,0.100000,99,0,0.000000,16,1.000000,30.802112,3.177719,99,99,0,0,0,0,0
6,69999,70,60000,37,30000,40,9999,0.100000,99,0,0.000000,15,0.000000,29.821908,3.029211,99,99,0,0,0,0,0
6,69999,71,60000,42,30000,40,9999,0.100000,99,0,0.000000,15,0.000000,25.246144,0.141513,99,99,0,0,0,0,0
6,69999,72,60000,42,30000,40,9999,0.100000,99,0,0.000000,16,0.000000,30.697687,0.146853,99,99,0,0,0,0,0
6,69999,73,60000,37,30000,0,9999,0.100000,99,0,0.212045,15,0.000000,27.262920,0.099576,99,99,0,0,0,0,1
6,69999,74,60000,98,40000,0,9999,0.100000,99,0,0.003416,15,0.000000,27.108189,0.082397,99,99,0,0,0,0,1
6,69999,75,60000,42,30000,40,9999,0.100000,99,0,0.000000,15,0.000000,19.209205,2.349638,99,99,0,0,0,0,0
6,69999,76,60000,37,30000,41,9999,0.100000,99,0,0.000000,15,6.000000,31.217337,10.842907,99,99,0,0,0,0,0
6,69999,77,60000,28,0,0,9999,0.100000,99,0,0.486709,16,0.000000,29.825612,0.283591,99,99,0,0,1,0,0
6,69999,78,60000,98,40000,40,9999,0.100000,99,0,0.000000,16,0.000000,14.954338,0.486661,99,99,0,0,0,0,0
6,69999,79,60000,0,0,40,9999,0.100000,99,0,0.000000,16,0.000000,29.906766,0.351466,99,99,0,0,0,0,0
6,69999,80,60000,22,0,40,9999,0.100000,99,0,0.000000,15,0.000000,20.603053,1.657666,99,99,0,0,0,0,0
6,69999,81,60000,76,0,40,9999,0.100000,99,0,0.000000,16,0.000000,26.261131,0.228539,99,99,0,0,0,0,0
6,69999,82,60000,22,0,41,9999,0.100000,99,0,0.000000,16,5.000000,25.315249,10.824180,99,99,0,0,0,0,0
6,69999,83,60000,0,0,40,9999,0.100000,99,0,0.000000,15,0.000000,20.935474,1.461518,99,99,0,0,0,0,0
6,69999,84,60000,22,0,0,9999,0.100000,99,0,0.044842,15,0.000000,17.446812,0.380642,99,99,0,0,0,0,1
6,69999,85,60000,55,10000,40,9999,0.100000,99,0,0.000000,16,0.000000,34.575101,0.154469,99,99,0,0,0,0,0
6,69999,86,60000,98,40000,0,9999,0.100000,99,0,0.294659,16,0.000000,27.921539,0.171661,99,99,0,0,0,0,1
6,69999,87,60000,53,10000,0,9999,0.100000,99,0,0.001005,16,0.000000,26.337894,0.113335,99,99,0,0,0,0,1
6,69999,88,60000,50,40000,0,9999,0.100000,99,0,0.883244,15,0.000000,26.692039,0.215815,99,99,0,0,0,0,1
6,69999,89,60000,53,10000,40,9999,0.100000,99,0,0.000000,15,0.000000,31.717215,0.073187,99,99,0,0,0,0,0
6,69999,90,60000,50,40000,40,9999,0.100000,99,0,0.000000,15,0.000000,27.182493,0.072619,99,99,0,0,0,0,0
6,69999,91,60000,55,50000,0,9999,0.100000,99,0,0.001006,15,0.000000,21.059777,0.098843,99,99,0,0,0,0,1
6,69999,92,60000,37,30000,0,9999,0.100000,99,0,0.220405,15,0.000000,22.293060,0.187617,99,99,0,1,0,0,0
6,69999,93,60000,70,0,40,9999,0.100000,99,0,0.000000,15,1.000000,12.661347,10.956727,99,99,0,0,0,0,0
6,69999,94,60000,99,40000,42,9999,0.100000,99,0,0.000000,15,5.000000,20.260005,10.836201,99,99,0,0,0,0,0
6,69999,95,60000,76,0,40,9999,0.100000,99,0,0.000000,15,0.000000,17.479969,0.470816,99,99,0,0,0,0,0
6,69999,96,60000,98,40000,40,9999,0.100000,99,0,0.000000,15,0.000000,35.127424,0.380338,99,99,0,0,0,0,0
6,69999,97,60000,28,0,0,9999,0.100000,99,0,0.171368,15,0.000000,23.496404,0.112971,99,99,0,0,0,0,1
6,69999,98,60000,42,0,40,9999,0.100000,99,0,0.000000,15,0.000000,32.531164,8.289259,99,99,0,0,0,0,0
6,69999,99,60000,70,0,40,9999,0.100000,99,0,0.000000,15,0.000000,31.906589,0.083561,99,99,0,0,0,0,0
7,79999,0,70000,76,0,40,9999,0.100000,99,0,0.000000,16,0.000000,21.080807,1.097047,99,99,0,0,0,0,0
7,79999,1,70000,55,50000,0,9999,0.100000,99,0,0.159821,16,0.000000,26.656305,0.094580,99,99,0,0,0,0,1
7,79999,2,70000,55,10000,40,9999,0.100000,99,0,0.000000,16,0.000000,30.539930,0.763165,99,99,0,0,0,0,0
7,79999,3,70000,0,0,40,9999,0.100000,99,0,0.000000,16,0.000000,26.436031,0.101222,99,99,0,0,0,0,0
7,79999,4,70000,55,50000,0,9999,0.100000,99,0,0.382142,16,0.000000,20.967244,0.137148,99,99,0,0,0,0,1
7,79999,5,70000,99,40000,0,9999,0.100000,99,0,0.214875,16,0.000000,23.744175,0.125811,99,99,0,0,0,0,1
7,79999,6,70000,53,10000,0,9999,0.100000,99,0,0.252897,16,0.000000,33.983436,0.175904,99,99,0,0,0,0,1
7,79999,7,70000,80,40000,0,9999,0.100000,99,0,0.001687,16,0.000000,31.523420,0.080260,99,99,0,0,0,0,1
7,79999,8,70000,76,0,40,9999,0.100000,99,0,0.000000,16,0.000000,35.262851,0.197515,99,99,0,0,0,0,0
7,79999,9,70000,53,10000,0,9999,0.100000,99,0,0.645051,16,0.000000,26.797376,0.171125,99,99,0,1,0,0,0
7,79999,10,70000,22,0,0,9999,0.100000,99,0,0.077240,16,0.000000,23.509804,0.496139,99,99,0,0,1,0,0
7,79999,11,70000,99,40000,40,9999,0.100000,99,0,0.000000,16,0.000000,28.393440,0.079305,99,99,0,0,0,0,0
7,79999,12,70000,53,10000,40,9999,0.100000,99,0,0.000000,16,0.000000,15.389060,0.091820,99,99,0,0,0,0,0
7,79999,13,70000,76,0,0,9999,0.100000,99,0,0.170678,16,0.000000,22.633471,0.083073,99,99,0,0,0,0,1
7,79999,14,70000,99,40000,40,9999,0.100000,99,0,0.000000,16,0.000000,29.361326,0.181351,99,99,0,0,0,0,0
7,79999,15,70000,28,0,0,9999,0.100000,99,0,0.175575,16,0.000000,24.495578,0.163830,99,99,0,0,0,1,0
7,79999,16,70000,55,50000,40,9999,0.100000,99,0,0.000000,16,0.000000,17.795228,0.307318,99,99,0,0,0,0,0
7,79999,17,70000,98,40000,40,9999,0.100000,99,0,0.000000,16,0.000000,25.495685,0.485132,99,99,0,0,0,0,0
7,79999,18,70000,99,40000,40,9999,0.100000,99,0,0.000000,16,0.000000,29.151822,0.197795,99,99,0,0,0,0,0
7,79999,19,70000,42,30000,40,9999,0.100000,99,0,0.000000,16,0.000000,24.366554,1.108885,99,99,0,0,0,0,0
7,79999,20,70000,28,0,40,9999,0.100000,99,0,0.000000,16,0.000000,21.870826,1.287205,99,99,0,0,0,0,0
7,79999,21,70000,55,10000,40,9999,0.100000,99,0,0.000000,16,0.000000,21.224265,0.333709,99,99,0,0,0,0,0
7,79999,22,70000,28,0,0,9999,0.100000,99,0,0.091051,16,0.000000,25.793469,0.153859,99,99,0,0,0,1,0
7,79999,23,70000,50,40000,0,9999,0.100000,99,0,0.000873,16,0.000000,22.395719,0.080166,99,99,0,0,0,0,1
7,79999,24,70000,76,0,40,9999,0.100000,99,0,0.000000,16,0.000000,26.497991,0.133702,99,99,0,0,0,0,0
7,79999,25,70000,44,50000,40,9999,0.100000,99,0,0.000000,16,0.000000,24.955782,0.544850,99,99,0,0,0,0,0
7,79999,26,70000,76,0,40,9999,0.100000,99,0,0.000000,16,0.000000,25.363751,0.637830,99,99,0,0,0,0,0
7,79999,27,70000,53,10000,43,9999,0.100000,99,0,0.000000,16,5.000000,14.743380,10.867872,99,99,0,0,0,0,0
7,79999,28,70000,98,40000,0,9999,0.100000,99,0,0.125171,16,0.000000,15.828374,0.100241,99,99,0,0,0,0,1
7,79999,29,70000,98,40000,0,9999,0.100000,99,0,0.003406,16,0.000000,28.231188,0.080466,99,99,0,0,0,0,1
7,79999,30,70000,55,50000,0,9999,0.100000,99,0,0.035012,16,0.000000,28.236745,0.345398,99,99,0,0,1,0,0
7,79999,31,70000,76,0,40,9999,0.100000,99,0,0.000000,16,0.000000,19.058874,0.232563,99,99,0,0,0,0,0
7,79999,32,70000,22,0,41,9999,0.100000,99,0,0.000000,16,5.000000,33.617358,6.318096,99,99,0,0,0,0,0
7,79999,33,70000,37,30000,40,9999,0.100000,99,0,0.000000,16,0.000000,24.163660,6.209332,99,99,0,0,0,0,0
7,79999,34,70000,55,10000,0,9999,0.100000,99,0,0.740405,16,0.000000,19.327304,0.993209,99,99,0,0,1,0,0
7,79999,35,70000,55,50000,40,9999,0.100000,99,0,0.000000,16,0.000000,28.467370,0.353087,99,99,0,0,0,0,0
7,79999,36,70000,0,0,0,9999,0.100000,99,0,0.030494,16,0.000000,26.676370,0.090217,99,99,0,0,0,0,1
7,79999,37,70000,44,50000,40,9999,0.100000,99,0,0.000000,16,0.000000,13.419641,0.269921,99,99,0,0,0,0,0
7,79999,38,70000,76,0,40,9999,0.100000,99,0,0.000000,16,0.000000,26.215904,0.123633,99,99,0,0,0,0,0
7,79999,39,70000,42,30000,40,9999,0.100000,99,0,0.000000,16,0.000000,20.951927,1.300428,99,99,0,0,0,0,0
7,79999,40,70000,28,0,0,9999,0.100000,99,0,0.167831,16,0.000000,30.084728,0.158193,99,99,0,0,0,0,1
7,79999,41,70000,28,0,40,9999,0.100000,99,0,0.000000,16,0.000000,20.481710,1.255096,99,99,0,0,0,0,0
7,79999,42,70000,55,50000,0,9999,0.100000,99,0,0.280661,16,0.000000,28.710665,0.645747,99,99,0,0,0,1,0
7,79999,43,70000,55,50000,40,9999,0.100000,99,0,0.000000,16,0.000000,35.789616,0.216287,99,99,0,0,0,0,0
7,79999,44,70000,28,0,0,9999,0.100000,99,0,0.323530,16,0.000000,12.616702,0.184539,99,99,0,0,0,1,0
7,79999,45,70000,44,50000,0,9999,0.100000,99,0,9.856280,16,2.000000,27.860030,4.262127,99,99,0,1,0,0,0
7,79999,46,70000,0,0,0,9999,0.100000,99,0,9.857102,16,2.000000,27.920280,4.439869,99,99,0,1,0,0,0
7,79999,47,70000,42,0,0,9999,0.100000,99,0,0.724413,16,0.000000,34.278751,0.133176,99,99,0,0,0,0,1
7,79999,48,70000,53,10000,40,9999,0.100000,99,0,0.000000,16,0.000000,19.111472,0.395054,99,99,0,0,0,0,0
7,79999,49,70000,42,0,40,9999,0.100000,99,0,0.000000,16,0.000000,24.258078,0.335448,99,99,0,0,0,0,0
7,79999,50,70000,22,0,40,9999,0.135000,99,0,0.000000,16,0.000000,12.700868,0.611579,99,99,0,0,0,0,0
7,79999,51,70000,42,30000,40,9999,0.100000,99,0,0.000000,16,0.000000,34.148541,0.144374,99,99,0,0,0,0,0
7,79999,52,70000,99,40000,40,9999,0.100000,99,0,0.000000,16,0.000000,21.298209,0.368726,99,99,0,0,0,0,0
7,79999,53,70000,53,10000,40,9999,0.100000,99,0,0.000000,16,0.000000,12.860525,0.388289,99,99,0,0,0,0,0
7,79999,54,70000,44,50000,0,9999,0.100000,99,0,0.052912,16,0.000000,23.259739,0.082699,99,99,0,0,0,0,1
7,79999,55,70000,22,0,40,9999,0.100000,99,0,0.000000,16,0.000000,11.324532,0.176622,99,99,0,0,0,0,0
7,79999,56,70000,22,0,40,9999,0.100000,99,0,0.000000,16,0.000000,29.664668,0.164460,99,99,0,0,0,0,0
7,79999,57,70000,50,40000,40,9999,0.100000,99,0,0.000000,16,0.000000,20.487093,0.130202,99,99,0,0,0,0,0
7,79999,58,70000,44,50000,0,9999,0.100000,99,0,0.258876,16,0.000000,29.432023,0.202623,99,99,0,0,0,0,1
7,79999,59,70000,44,50000,40,9999,0.100000,99,0,0.000000,16,0.000000,25.280895,0.867039,99,99,0,0,0,0,0
7,79999,60,70000,70,0,40,9999,0.100000,99,0,0.000000,16,2.000000,30.148576,8.236862,99,99,0,0,0,0,0
7,79999,61,70000,0,0,40,9999,0.100000,99,0,0.000000,16,0.000000,31.344397,0.091972,99,99,0,0,0,0,0
7,79999,62,70000,50,40000,40,9999,0.135000,99,0,0.000000,16,0.000000,30.488974,0.311675,99,99,0,0,0,0,0
7,79999,63,70000,37,30000,40,9999,0.100000,99,0,0.000000,16,0.000000,33.821606,0.325086,99,99,0,0,0,0,0
7,79999,64,70000,37,30000,0,9999,0.100000,99,0,0.002912,16,0.000000,27.165539,0.071892,99,99,0,0,0,0,1
7,79999,65,70000,55,10000,40,9999,0.100000,99,0,0.000000,16,0.000000,30.292508,0.214328,99,99,0,0,0,0,0
7,79999,66,70000,98,40000,40,9999,0.100000,99,0,0.000000,16,0.000000,25.739253,0.289737,99,99,0,0,0,0,0
7,79999,67,70000,98,40000,0,9999,0.100000,99,0,0.103430,16,0.000000,20.918722,0.153492,99,99,0,0,0,0,1
7,79999,68,70000,98,40000,40,9999,0.100000,99,0,0.000000,16,0.000000,28.300384,0.094074,99,99,0,0,0,0,0
7,79999,69,70000,42,30000,40,9999,0.100000,99,0,0.000000,16,0.000000,30.258801,3.356282,99,99,0,0,0,0,0
7,79999,70,70000,50,40000,40,9999,0.100000,99,0,0.000000,16,0.000000,29.814935,2.973967,99,99,0,0,0,0,0
7,79999,71,70000,99,40000,40,9999,0.100000,99,0,0.000000,16,0.000000,25.253107,0.090821,99,99,0,0,0,0,0
7,79999,72,70000,76,0,40,9999,0.100000,99,0,0.000000,16,0.000000,30.706571,0.171680,99,99,0,0,0,0,0
7,79999,73,70000,98,40000,0,9999,0.100000,99,0,0.071865,16,0.000000,27.255797,0.095745,99,99,0,0,0,0,1
7,79999,74,70000,76,0,40,9999,0.100000,99,0,0.000000,16,0.000000,27.109342,0.081580,99,99,0,0,0,0,0
7,79999,75,70000,55,50000,40,9999,0.100000,99,0,0.000000,16,0.000000,18.911856,0.695909,99,99,0,0,0,0,0
7,79999,76,70000,42,0,40,9999,0.100000,99,0,0.000000,16,0.000000,31.355318,10.108521,99,99,0,0,0,0,0
7,79999,77,70000,99,40000,0,9999,0.100000,99,0,0.429561,16,0.000000,29.699126,0.313005,99,99,0,0,1,0,0
7,79999,78,70000,55,50000,40,9999,0.100000,99,0,0.000000,16,0.000000,14.986537,0.543083,99,99,0,0,0,0,0
7,79999,79,70000,42,0,40,9999,0.100000,99,0,0.000000,16,0.000000,29.759660,0.383971,99,99,0,0,0,0,0
7,79999,80,70000,55,50000,40,9999,0.100000,99,0,0.000000,16,0.000000,20.371726,1.281832,99,99,0,0,0,0,0
7,79999,81,70000,50,40000,0,9999,0.100000,99,0,0.226886,16,0.000000,26.265357,0.219628,99,99,0,0,0,0,1
7,79999,82,70000,44,50000,40,9999,0.100000,99,0,0.000000,16,0.000000,25.371836,0.211244,99,99,0,0,0,0,0
7,79999,83,70000,44,50000,40,9999,0.100000,99,0,0.000000,16,0.000000,21.581596,1.203914,99,99,0,0,0,0,0
7,79999,84,70000,55,50000,0,9999,0.100000,99,0,0.025989,16,0.000000,17.733461,0.161649,99,99,0,0,0,0,1
7,79999,85,70000,42,0,40,9999,0.100000,99,0,0.000000,16,0.000000,34.456297,0.158749,99,99,0,0,0,0,0
7,79999,86,70000,37,30000,0,9999,0.100000,99,0,0.175850,16,0.000000,27.856290,0.160201,99,99,0,0,0,0,1
7,79999,87,70000,37,30000,0,9999,0.100000,99,0,0.001218,16,0.000000,26.338441,0.113565,99,99,0,0,0,0,1
7,79999,88,70000,42,30000,0,9999,0.135000,99,0,0.688008,16,0.000000,26.837920,0.167556,99,99,0,0,0,0,1
7,79999,89,70000,42,30000,40,9999,0.100000,99,0,0.000000,16,0.000000,31.716947,0.072782,99,99,0,0,0,0,0
7,79999,90,70000,55,10000,40,9999,0.100000,99,0,0.000000,16,0.000000,27.183863,0.071836,99,99,0,0,0,0,0
7,79999,91,70000,55,50000,0,9999,0.100000,99,0,0.000481,16,0.000000,21.059068,0.105679,99,99,0,0,0,0,1
7,79999,92,70000,70,0,0,9999,0.100000,99,0,0.243357,16,0.000000,22.363752,0.186385,99,99,0,1,0,0,0
7,79999,93,70000,80,40000,40,9999,0.100000,99,0,0.000000,16,1.000000,11.994616,6.945237,99,99,0,0,0,0,0
7,79999,94,70000,37,30000,40,9999,0.100000,99,0,0.000000,16,0.000000,20.259716,0.110662,99,99,0,0,0,0,0
7,79999,95,70000,98,40000,40,9999,0.100000,99,0,0.000000,16,0.000000,17.759395,0.187420,99,99,0,0,0,0,0
7,79999,96,70000,99,40000,40,9999,0.100000,99,0,0.000000,16,0.000000,34.964083,0.459933,99,99,0,0,0,0,0
7,79999,97,70000,70,0,40,9999,0.100000,99,0,0.000000,16,0.000000,23.508742,0.116324,99,99,0,0,0,0,0
7,79999,98,70000,37,30000,40,9999,0.100000,99,0,0.000000,16,0.000000,32.608268,8.602011,99,99,0,0,0,0,0
7,79999,99,70000,0,0,40,9999,0.100000,99,0,0.000000,16,0.000000,31.906567,0.083877,99,99,0,0,0,0,0
8,89999,0,80000,37,30000,40,9999,0.100000,99,0,0.000000,16,1.000000,21.807380,1.380304,99,99,0,0,0,0,0
8,89999,1,80000,50,40000,0,9999,0.100000,99,0,0.166795,16,0.000000,26.603941,0.091216,99,99,0,0,0,0,1
8,89999,2,80000,37,30000,40,9999,0.100000,99,0,0.000000,16,0.000000,30.497649,2.297627,99,99,0,0,0,0,0
8,89999,3,80000,42,30000,40,9999,0.100000,99,0,0.000000,16,0.000000,26.378719,0.098847,99,99,0,0,0,0,0
8,89999,4,80000,42,0,0,9999,0.100000,99,0,0.401250,16,0.000000,20.973386,0.148797,99,99,0,0,0,0,1
8,89999,5,80000,28,0,0,9999,0.100000,99,0,0.183546,16,0.000000,23.757754,0.150709,99,99,0,0,0,0,1
8,89999,6,80000,53,10000,0,9999,0.100000,99,0,0.051569,16,0.000000,34.014678,0.168463,99,99,0,0,0,0,1
8,89999,7,80000,0,0,0,9999,0.100000,99,0,0.610114,16,2.000000,31.523267,2.275250,99,99,0,0,0,0,1
8,89999,8,80000,42,0,40,9999,0.100000,99,0,0.000000,16,0.000000,35.291941,0.222693,99,99,0,0,0,0,0
8,89999,9,80000,70,0,0,9999,0.100000,99,0,0.674314,16,0.000000,26.710615,0.180559,99,99,0,1,0,0,0
8,89999,10,80000,98,40000,0,9999,0.100000,99,0,0.094575,16,0.000000,23.508993,0.477313,99,99,0,0,1,0,0
8,89999,11,80000,42,0,0,9999,0.100000,99,0,0.003426,16,0.000000,28.394632,0.090184,99,99,0,0,0,0,1
8,89999,12,80000,50,40000,0,9999,0.100000,99,0,0.094940,16,0.000000,15.425752,0.085861,99,99,0,0,0,0,1
8,89999,13,80000,99,40000,0,9999,0.100000,99,0,0.166886,16,0.000000,22.638765,0.082421,99,99,0,0,0,0,1
8,89999,14,80000,53,10000,40,9999,0.100000,99,0,0.000000,16,1.000000,29.469340,6.310117,99,99,0,0,0,0,0
8,89999,15,80000,22,0,0,9999,0.100000,99,0,0.147728,16,0.000000,24.491265,0.188754,99,99,0,0,0,1,0
8,89999,16,80000,37,30000,40,9999,0.100000,99,0,0.000000,16,0.000000,17.916502,0.492803,99,99,0,0,0,0,0
8,89999,17,80000,80,40000,40,9999,0.100000,99,0,0.000000,16,0.000000,25.506614,0.494398,99,99,0,0,0,0,0
8,89999,18,80000,55,50000,0,9999,0.100000,99,0,0.858850,16,0.000000,29.284511,0.294807,99,99,0,0,0,1,0
8,89999,19,80000,55,10000,40,9999,0.100000,99,0,0.000000,16,0.000000,24.377495,0.811875,99,99,0,0,0,0,0
8,89999,20,80000,22,0,40,9999,0.100000,99,0,0.000000,16,1.000000,22.757594,1.388043,99,99,0,0,0,0,0
8,89999,21,80000,99,40000,40,9999,0.100000,99,0,0.000000,16,0.000000,21.364159,0.339831,99,99,0,0,0,0,0
8,89999,22,80000,55,50000,0,9999,0.100000,99,0,0.134385,16,0.000000,25.799058,0.154345,99,99,0,0,0,1,0
8,89999,23,80000,28,0,0,9999,0.100000,99,0,0.000806,16,0.000000,22.394638,0.079873,99,99,0,0,0,0,1
8,89999,24,80000,55,50000,0,9999,0.100000,99,0,0.072032,16,0.000000,26.515027,0.111855,99,99,0,0,0,0,1
8,89999,25,80000,70,0,40,9999,0.100000,99,0,0.000000,16,0.000000,24.975371,0.498220,99,99,0,0,0,0,0
8,89999,26,80000,42,0,40,9999,0.100000,99,0,0.000000,16,0.000000,25.249040,0.595605,99,99,0,0,0,0,0
8,89999,27,80000,44,50000,40,9999,0.100000,99,0,0.000000,16,0.000000,14.788061,0.305830,99,99,0,0,0,0,0
8,89999,28,80000,99,40000,40,9999,0.100000,99,0,0.000000,16,0.000000,15.868508,0.104529,99,99,0,0,0,0,0
8,89999,29,80000,42,30000,40,9999,0.100000,99,0,0.000000,16,0.000000,28.231959,0.083370,99,99,0,0,0,0,0
8,89999,30,80000,70,0,40,9999,0.100000,99,0,0.000000,16,0.000000,28.170982,0.153581,99,99,0,0,0,0,0
8,89999,31,80000,98,40000,40,9999,0.100000,99,0,0.000000,16,0.000000,19.057397,0.232121,99,99,0,0,0,0,0
8,89999,32,80000,50,40000,40,9999,0.100000,99,0,0.000000,16,0.000000,30.396623,2.436024,99,99,0,0,0,0,0
8,89999,33,80000,28,0,40,9999,0.100000,99,0,0.000000,16,2.000000,23.567968,11.680036,99,99,0,0,0,0,0
8,89999,34,80000,37,30000,0,9999,0.100000,99,0,1.111295,16,0.000000,19.268899,0.654717,99,99,0,0,1,0,0
8,89999,35,80000,76,0,0,9999,0.100000,99,0,0.064926,16,0.000000,28.456940,0.107506,99,99,0,0,1,0,0
8,89999,36,80000,55,50000,0,9999,0.100000,99,0,0.016167,16,0.000000,26.673884,0.527296,99,99,0,0,0,0,1
8,89999,37,80000,42,30000,44,9999,0.100000,99,0,0.000000,16,6.000000,13.467034,13.317715,99,99,0,0,0,0,0
8,89999,38,80000,70,0,40,9999,0.100000,99,0,0.000000,16,0.000000,26.153316,0.116864,99,99,0,0,0,0,0
8,89999,39,80000,42,30000,40,9999,0.100000,99,0,0.000000,16,1.000000,21.673485,1.543340,99,99,0,0,0,0,0
8,89999,40,80000,42,0,0,9999,0.100000,99,0,0.118509,16,0.000000,30.134780,0.984423,99,99,0,0,0,0,1
8,89999,41,80000,76,0,40,9999,0.100000,99,0,0.000000,16,0.000000,20.428170,1.990943,99,99,0,0,0,0,0
8,89999,42,80000,53,10000,40,9999,0.100000,99,0,0.000000,16,0.000000,28.900846,0.378895,99,99,0,0,0,0,0
8,89999,43,80000,70,0,40,9999,0.100000,99,0,0.000000,16,0.000000,35.790075,0.218487,99,99,0,0,0,0,0
8,89999,44,80000,42,0,0,9999,0.100000,99,0,0.284459,16,0.000000,12.634148,0.165984,99,99,0,0,0,1,0
8,89999,45,80000,44,50000,40,9999,0.100000,99,0,0.000000,16,1.000000,29.714956,3.474346,99,99,0,0,0,0,0
8,89999,46,80000,76,0,40,9999,0.100000,99,0,0.000000,16,1.000000,29.279820,9.775691,99,99,0,0,0,0,0
8,89999,47,80000,44,50000,0,9999,0.100000,99,0,0.675421,16,0.000000,34.189253,0.136845,99,99,0,0,0,0,1
8,89999,48,80000,28,0,40,9999,0.100000,99,0,0.000000,16,0.000000,19.124602,0.628545,99,99,0,0,0,0,0
8,89999,49,80000,70,0,40,9999,0.100000,99,0,0.000000,16,0.000000,24.276448,0.446389,99,99,0,0,0,0,0
8,89999,50,80000,76,0,40,9999,0.100000,99,0,0.000000,16,0.000000,12.732662,0.699925,99,99,0,0,0,0,0
8,89999,51,80000,55,50000,40,9999,0.100000,99,0,0.000000,16,0.000000,34.170896,0.106872,99,99,0,0,0,0,0
8,89999,52,80000,50,40000,40,9999,0.100000,99,0,0.000000,16,0.000000,21.304334,0.356307,99,99,0,0,0,0,0
8,89999,53,80000,22,0,40,9999,0.100000,99,0,0.000000,16,0.000000,12.862302,0.366238,99,99,0,0,0,0,0
8,89999,54,80000,80,40000,0,9999,0.100000,99,0,0.020849,16,0.000000,23.248985,0.082801,99,99,0,0,0,0,1
8,89999,55,80000,53,10000,40,9999,0.100000,99,0,0.000000,16,0.000000,11.328152,0.174290,99,99,0,0,0,0,0
8,89999,56,80000,28,0,40,9999,0.100000,99,0,0.000000,16,0.000000,29.623950,0.160080,99,99,0,0,0,0,0
8,89999,57,80000,55,50000,40,9999,0.100000,99,0,0.000000,16,0.000000,20.489441,0.134412,99,99,0,0,0,0,0
8,89999,58,80000,55,10000,0,9999,0.100000,99,0,0.251164,16,0.000000,29.395354,0.172039,99,99,0,0,0,0,1
8,89999,59,80000,53,10000,40,9999,0.100000,99,0,0.000000,16,0.000000,25.164167,0.952627,99,99,0,0,0,0,0
8,89999,60,80000,76,0,40,9999,0.100000,99,0,0.000000,16,2.000000,30.805245,5.421245,99,99,0,0,0,0,0
8,89999,61,80000,55,50000,40,9999,0.100000,99,0,0.000000,16,2.000000,31.344143,2.201201,99,99,0,0,0,0,0
8,89999,62,80000,55,10000,40,9999,0.100000,99,0,0.000000,16,0.000000,30.542752,0.549248,99,99,0,0,0,0,0
8,89999,63,80000,55,10000,40,9999,0.100000,99,0,0.000000,16,0.000000,33.853273,0.302686,99,99,0,0,0,0,0
8,89999,64,80000,22,0,0,9999,0.100000,99,0,0.003010,16,0.000000,27.166712,0.070324,99,99,0,0,0,0,1
8,89999,65,80000,98,40000,40,9999,0.100000,99,0,0.000000,16,0.000000,30.345545,1.355683,99,99,0,0,0,0,0
8,89999,66,80000,42,30000,40,9999,0.100000,99,0,0.000000,16,0.000000,25.674405,0.222410,99,99,0,0,0,0,0
8,89999,67,80000,37,30000,0,9999,0.100000,99,0,0.120090,16,0.000000,20.995898,0.169206,99,99,0,0,0,0,1
8,89999,68,80000,80,40000,40,9999,0.100000,99,0,0.000000,16,0.000000,28.301442,0.088420,99,99,0,0,0,0,0
8,89999,69,80000,42,30000,40,9999,0.100000,99,0,0.000000,16,0.000000,30.247791,2.984857,99,99,0,0,0,0,0
8,89999,70,80000,42,30000,40,9999,0.100000,99,0,0.000000,16,0.000000,29.822525,2.843097,99,99,0,0,0,0,0
8,89999,71,80000,98,40000,40,9999,0.100000,99,0,0.000000,16,0.000000,25.258320,0.107954,99,99,0,0,0,0,0
8,89999,72,80000,53,10000,40,9999,0.100000,99,0,0.000000,16,0.000000,30.753041,0.159913,99,99,0,0,0,0,0
8,89999,73,80000,76,0,0,9999,0.100000,99,0,0.112392,16,0.000000,27.262670,0.081687,99,99,0,0,0,0,1
8,89999,74,80000,27,70000,40,9999,0.100000,99,0,0.000000,16,0.000000,27.110330,0.081684,99,99,0,0,0,0,0
8,89999,75,80000,53,10000,40,9999,0.100000,99,0,0.000000,16,0.000000,18.993674,0.684936,99,99,0,0,0,0,0
8,89999,76,80000,37,30000,40,9999,0.100000,99,0,0.000000,16,1.000000,31.271546,19.022360,99,99,0,0,0,0,0
8,89999,77,80000,50,40000,0,9999,0.100000,99,0,0.561077,16,0.000000,29.658868,0.250512,99,99,0,0,1,0,0
8,89999,78,80000,42,0,40,9999,0.100000,99,0,0.000000,16,0.000000,15.023104,0.470825,99,99,0,0,0,0,0
8,89999,79,80000,55,50000,40,9999,0.100000,99,0,0.000000,16,0.000000,29.719259,0.289725,99,99,0,0,0,0,0
8,89999,80,80000,98,40000,40,9999,0.100000,99,0,0.000000,16,0.000000,20.321038,1.991325,99,99,0,0,0,0,0
8,89999,81,80000,0,0,40,9999,0.100000,99,0,0.000000,16,0.000000,26.282607,0.506675,99,99,0,0,0,0,0
8,89999,82,80000,55,10000,40,9999,0.100000,99,0,0.000000,16,0.000000,25.433689,1.200629,99,99,0,0,0,0,0
8,89999,83,80000,70,0,40,9999,0.100000,99,0,0.000000,16,1.000000,22.366897,1.460237,99,99,0,0,0,0,0
8,89999,84,80000,22,0,0,9999,0.100000,99,0,0.030004,16,0.000000,17.847886,0.509685,99,99,0,0,0,0,1
8,89999,85,80000,44,50000,40,9999,0.100000,99,0,0.000000,16,0.000000,34.338720,0.157891,99,99,0,0,0,0,0
8,89999,86,80000,42,0,0,9999,0.100000,99,0,0.220810,16,0.000000,27.816115,0.165012,99,99,0,0,0,0,1
8,89999,87,80000,0,0,0,9999,0.100000,99,0,0.000986,16,0.000000,26.339336,0.113436,99,99,0,0,0,0,1
8,89999,88,80000,0,0,0,9999,0.100000,99,0,0.588226,16,0.000000,26.948019,0.158830,99,99,0,0,0,0,1
8,89999,89,80000,98,40000,40,9999,0.100000,99,0,0.000000,16,2.000000,31.716863,2.242559,99,99,0,0,0,0,0
8,89999,90,80000,50,40000,40,9999,0.100000,99,0,0.000000,16,0.000000,27.185154,0.070933,99,99,0,0,0,0,0
8,89999,91,80000,76,0,0,9999,0.100000,99,0,0.003428,16,0.000000,21.057739,0.162278,99,99,0,0,0,0,1
8,89999,92,80000,55,10000,0,9999,0.100000,99,0,0.243906,16,0.000000,22.437374,0.606601,99,99,0,1,0,0,0
8,89999,93,80000,50,40000,41,9999,0.100000,99,0,0.000000,16,2.000000,13.159755,18.801300,99,99,0,0,0,0,0
8,89999,94,80000,50,40000,40,9999,0.100000,99,0,0.000000,16,0.000000,20.259989,0.118101,99,99,0,0,0,0,0
8,89999,95,80000,42,30000,40,9999,0.100000,99,0,0.000000,16,0.000000,17.885267,0.519606,99,99,0,0,0,0,0
8,89999,96,80000,99,40000,40,9999,0.100000,99,0,0.000000,16,0.000000,34.767026,0.544240,99,99,0,0,0,0,0
8,89999,97,80000,70,0,40,9999,0.100000,99,0,0.000000,16,0.000000,23.522303,0.100491,99,99,0,0,0,0,0
8,89999,98,80000,28,0,40,9999,0.100000,99,0,0.000000,16,2.000000,32.591634,5.551769,99,99,0,0,0,0,0
8,89999,99,80000,70,0,40,9999,0.100000,99,0,0.000000,16,2.000000,31.906726,2.325421,99,99,0,0,0,0,0
9,99999,0,90000,55,10000,40,9999,0.100000,99,0,0.000000,16,1.000000,22.849471,1.690007,99,99,0,0,0,0,0
9,99999,1,90000,50,40000,0,9999,0.100000,99,0,0.005289,16,0.000000,26.574246,0.082448,99,99,0,0,0,0,1
9,99999,2,90000,98,40000,41,9999,0.100000,99,0,0.000000,16,6.000000,30.393478,9.119269,99,99,0,0,0,0,0
9,99999,3,90000,80,40000,40,9999,0.100000,99,0,0.000000,16,0.000000,26.346793,0.089938,99,99,0,0,0,0,0
9,99999,4,90000,99,40000,0,9999,0.100000,99,0,0.390390,16,0.000000,20.982443,0.156102,99,99,0,0,0,0,1
9,99999,5,90000,70,0,0,9999,0.100000,99,0,0.499481,16,0.000000,23.766088,0.177780,99,99,0,0,0,0,1
9,99999,6,90000,70,0,40,9999,0.100000,99,0,0.000000,16,0.000000,34.040209,0.446605,99,99,0,0,0,0,0
9,99999,7,90000,28,0,0,9999,0.100000,99,0,0.352072,16,0.000000,32.637667,0.622101,99,99,0,0,0,0,1
9,99999,8,90000,27,70000,40,9999,0.100000,99,0,0.000000,16,0.000000,35.304779,0.229356,99,99,0,0,0,0,0
9,99999,9,90000,76,0,0,9999,0.100000,99,0,0.646569,16,0.000000,26.628217,0.174341,99,99,0,1,0,0,0
9,99999,10,90000,28,0,0,9999,0.100000,99,0,0.002399,16,0.000000,23.527782,0.696250,99,99,0,0,1,0,0
9,99999,11,90000,55,10000,40,9999,0.100000,99,0,0.000000,16,0.000000,28.396063,0.089913,99,99,0,0,0,0,0
9,99999,12,90000,80,40000,0,9999,0.100000,99,0,0.424275,16,0.000000,15.454046,0.186052,99,99,0,0,0,0,1
9,99999,13,90000,28,0,0,9999,0.100000,99,0,0.168972,16,0.000000,22.642653,0.083155,99,99,0,0,0,0,1
9,99999,14,90000,42,30000,40,9999,0.100000,99,0,0.000000,16,1.000000,29.129760,7.958052,99,99,0,0,0,0,0
9,99999,15,90000,80,40000,0,9999,0.100000,99,0,5.808637,16,0.000000,24.482594,0.860311,99,99,0,0,0,1,0
9,99999,16,90000,76,0,40,9999,0.100000,99,0,0.000000,16,0.000000,18.326080,0.431146,99,99,0,0,0,0,0
9,99999,17,90000,42,0,40,9999,0.100000,99,0,0.000000,16,0.000000,25.452914,0.601768,99,99,0,0,0,0,0
9,99999,18,90000,0,0,40,9999,0.100000,99,0,0.000000,16,0.000000,29.330187,3.298394,99,99,0,0,0,0,0
9,99999,19,90000,50,40000,40,9999,0.100000,99,0,0.000000,16,1.000000,24.414247,10.187345,99,99,0,0,0,0,0
9,99999,20,90000,70,0,40,9999,0.100000,99,0,0.000000,16,1.000000,23.775416,3.689258,99,99,0,0,0,0,0
9,99999,21,90000,55,50000,40,9999,0.100000,99,0,0.000000,16,0.000000,21.527958,0.363095,99,99,0,0,0,0,0
9,99999,22,90000,44,50000,0,9999,0.100000,99,0,0.001323,16,0.000000,25.810864,0.161689,99,99,0,0,0,1,0
9,99999,23,90000,53,10000,0,9999,0.100000,99,0,0.001544,16,0.000000,22.393528,0.077293,99,99,0,0,0,0,1
9,99999,24,90000,55,50000,0,9999,0.100000,99,0,0.100295,16,0.000000,26.530576,0.217843,99,99,0,0,0,0,1
9,99999,25,90000,22,0,40,9999,0.100000,99,0,0.000000,16,0.000000,24.955478,0.793494,99,99,0,0,0,0,0
9,99999,26,90000,99,40000,0,9999,0.100000,99,0,0.005073,16,0.000000,25.190578,0.770408,99,99,0,0,0,0,1
9,99999,27,90000,70,0,40,9999,0.100000,99,0,0.000000,16,0.000000,14.845263,0.324713,99,99,0,0,0,0,0
9,99999,28,90000,28,0,40,9999,0.100000,99,0,0.000000,16,0.000000,15.899129,0.206168,99,99,0,0,0,0,0
9,99999,29,90000,0,0,0,9999,0.100000,99,0,0.003644,16,0.000000,28.232686,0.085794,99,99,0,0,0,0,1
9,99999,30,90000,98,40000,0,9999,0.100000,99,0,0.286976,16,0.000000,28.217631,0.221053,99,99,0,0,1,0,0
9,99999,31,90000,70,0,40,9999,0.100000,99,0,0.000000,16,0.000000,19.056556,0.242766,99,99,0,0,0,0,0
9,99999,32,90000,98,40000,40,9999,0.100000,99,0,0.000000,16,1.000000,30.278378,4.569096,99,99,0,0,0,0,0
9,99999,33,90000,42,0,40,9999,0.100000,99,0,0.000000,16,0.000000,22.509441,6.027486,99,99,0,0,0,0,0
9,99999,34,90000,28,0,40,9999,0.100000,99,0,0.000000,16,0.000000,19.426692,0.866424,99,99,0,0,0,0,0
9,99999,35,90000,55,50000,40,9999,0.100000,99,0,0.000000,16,0.000000,28.498775,0.163104,99,99,0,0,0,0,0
9,99999,36,90000,70,0,0,9999,0.100000,99,0,0.181453,16,0.000000,26.670335,0.841287,99,99,0,0,0,0,1
9,99999,37,90000,80,40000,44,9999,0.100000,99,0,0.000000,16,6.000000,13.525089,13.277407,99,99,0,0,0,0,0
9,99999,38,90000,42,0,40,9999,0.100000,99,0,0.000000,16,0.000000,26.119101,0.100496,99,99,0,0,0,0,0
9,99999,39,90000,42,30000,40,9999,0.100000,99,0,0.000000,16,1.000000,22.709940,2.186253,99,99,0,0,0,0,0
9,99999,40,90000,76,0,40,9999,0.100000,99,0,0.000000,16,0.000000,30.127635,1.920782,99,99,0,0,0,0,0
9,99999,41,90000,22,0,40,9999,0.100000,99,0,0.000000,16,0.000000,20.524305,1.329474,99,99,0,0,0,0,0
9,99999,42,90000,70,0,40,9999,0.100000,99,0,0.000000,16,3.000000,28.891662,9.485588,99,99,0,0,0,0,0
9,99999,43,90000,70,0,40,9999,0.100000,99,0,0.000000,16,0.000000,35.791284,0.223347,99,99,0,0,0,0,0
9,99999,44,90000,50,40000,0,9999,0.100000,99,0,0.752566,16,0.000000,12.649002,0.443047,99,99,0,0,0,1,0
9,99999,45,90000,42,30000,90,9999,0.100000,99,0,6.578465,16,1.000000,28.445193,4.182552,99,99,1,0,0,0,0
9,99999,46,90000,50,40000,40,9999,0.100000,99,0,0.000000,16,0.000000,29.480222,6.066379,99,99,0,0,0,0,0
9,99999,47,90000,70,0,0,9999,0.100000,99,0,0.813518,16,0.000000,34.111892,0.241312,99,99,0,0,0,0,1
9,99999,48,90000,99,40000,0,9999,0.100000,99,0,1.585777,16,0.000000,19.356648,0.831148,99,99,0,0,1,0,0
9,99999,49,90000,27,70000,42,9999,0.100000,99,0,0.000000,16,6.000000,24.315687,11.497969,99,99,0,0,0,0,0
9,99999,50,90000,27,70000,40,9999,0.100000,99,0,0.000000,16,0.000000,12.732646,0.815248,99,99,0,0,0,0,0
9,99999,51,90000,53,10000,0,9999,0.100000,99,0,0.369960,16,0.000000,34.197836,0.525089,99,99,0,0,0,0,1
9,99999,52,90000,44,50000,40,9999,0.100000,99,0,0.000000,16,0.000000,21.312080,0.343612,99,99,0,0,0,0,0
9,99999,53,90000,99,40000,40,9999,0.100000,99,0,0.000000,16,0.000000,12.850251,0.446869,99,99,0,0,0,0,0
9,99999,54,90000,22,0,0,9999,0.100000,99,0,0.155958,16,0.000000,23.243887,0.205729,99,99,0,0,0,0,1
9,99999,55,90000,55,50000,40,9999,0.100000,99,0,0.000000,16,0.000000,11.333546,0.165622,99,99,0,0,0,0,0
9,99999,56,90000,0,0,0,9999,0.100000,99,0,0.718452,16,0.000000,29.564613,0.838785,99,99,0,0,0,0,1
9,99999,57,90000,53,10000,40,9999,0.100000,99,0,0.000000,16,0.000000,20.496900,0.130805,99,99,0,0,0,0,0
9,99999,58,90000,76,0,40,9999,0.100000,99,0,0.000000,16,0.000000,29.339203,0.523763,99,99,0,0,0,0,0
9,99999,59,90000,42,30000,40,9999,0.100000,99,0,0.000000,16,0.000000,25.102167,2.314571,99,99,0,0,0,0,0
9,99999,60,90000,55,50000,40,9999,0.100000,99,0,0.000000,16,2.000000,32.335688,6.148116,99,99,0,0,0,0,0
9,99999,61,90000,70,0,40,9999,0.100000,99,0,0.000000,16,0.000000,32.463128,0.609111,99,99,0,0,0,0,0
9,99999,62,90000,50,40000,0,9999,0.100000,99,0,0.246335,16,0.000000,30.522339,0.141149,99,99,0,0,0,0,1
9,99999,63,90000,70,0,40,9999,0.100000,99,0,0.000000,16,0.000000,33.878313,1.508905,99,99,0,0,0,0,0
9,99999,64,90000,76,0,0,9999,0.100000,99,0,0.002824,16,0.000000,27.167898,0.072201,99,99,0,0,0,0,1
9,99999,65,90000,99,40000,40,9999,0.100000,99,0,0.000000,16,0.000000,30.294452,1.464806,99,99,0,0,0,0,0
9,99999,66,90000,55,10000,40,9999,0.100000,99,0,0.000000,16,0.000000,25.665125,0.080810,99,99,0,0,0,0,0
9,99999,67,90000,22,0,0,9999,0.100000,99,0,0.156075,16,0.000000,21.089161,0.204497,99,99,0,0,0,0,1
9,99999,68,90000,99,40000,40,9999,0.100000,99,0,0.000000,16,0.000000,28.302529,0.089577,99,99,0,0,0,0,0
9,99999,69,90000,44,50000,40,9999,0.100000,99,0,0.000000,16,0.000000,30.235968,2.542766,99,99,0,0,0,0,0
9,99999,70,90000,98,40000,40,9999,0.100000,99,0,0.000000,16,0.000000,29.822511,3.199089,99,99,0,0,0,0,0
9,99999,71,90000,53,10000,40,9999,0.100000,99,0,0.000000,16,0.000000,25.268322,0.080600,99,99,0,0,0,0,0
9,99999,72,90000,22,0,40,9999,0.100000,99,0,0.000000,16,0.000000,30.745912,0.130448,99,99,0,0,0,0,0
9,99999,73,90000,28,0,0,9999,0.100000,99,0,0.099990,16,0.000000,27.277210,0.077780,99,99,0,0,0,0,1
9,99999,74,90000,98,40000,40,9999,0.100000,99,0,0.000000,16,0.000000,27.111380,0.082339,99,99,0,0,0,0,0
9,99999,75,90000,99,40000,40,9999,0.100000,99,0,0.000000,16,0.000000,19.298631,0.784894,99,99,0,0,0,0,0
9,99999,76,90000,98,40000,41,9999,0.100000,99,0,0.000000,16,5.000000,30.980836,11.780522,99,99,0,0,0,0,0
9,99999,77,90000,0,0,0,9999,0.100000,99,0,0.772683,16,0.000000,29.621832,0.387802,99,99,0,0,1,0,0
9,99999,78,90000,80,40000,40,9999,0.100000,99,0,0.000000,16,0.000000,15.052540,0.968503,99,99,0,0,0,0,0
9,99999,79,90000,80,40000,41,9999,0.100000,99,0,0.000000,16,5.000000,29.684075,6.706294,99,99,0,0,0,0,0
9,99999,80,90000,22,0,40,9999,0.135000,99,0,0.000000,16,0.000000,20.414391,1.338664,99,99,0,0,0,0,0
9,99999,81,90000,76,0,40,9999,0.100000,99,0,0.000000,16,0.000000,26.339176,0.531497,99,99,0,0,0,0,0
9,99999,82,90000,53,10000,40,9999,0.100000,99,0,0.000000,16,0.000000,25.482777,0.286969,99,99,0,0,0,0,0
9,99999,83,90000,22,0,40,9999,0.100000,99,0,0.000000,16,1.000000,23.376345,1.417079,99,99,0,0,0,0,0
9,99999,84,90000,98,40000,0,9999,0.135000,99,0,0.001624,16,0.000000,18.263438,0.441967,99,99,0,0,0,0,1
9,99999,85,90000,28,0,40,9999,0.100000,99,0,0.000000,16,0.000000,34.233084,0.216795,99,99,0,0,0,0,0
9,99999,86,90000,80,40000,0,9999,0.100000,99,0,0.328767,16,0.000000,27.767295,0.201671,99,99,0,0,0,0,1
9,99999,87,90000,42,0,0,9999,0.100000,99,0,0.001144,16,0.000000,26.340017,0.112935,99,99,0,0,0,0,1
9,99999,88,90000,44,50000,0,9999,0.100000,99,0,0.609647,16,0.000000,27.047566,0.145287,99,99,0,0,0,0,1
9,99999,89,90000,42,30000,40,9999,0.100000,99,0,0.000000,16,0.000000,32.847159,0.560813,99,99,0,0,0,0,0
9,99999,90,90000,27,70000,40,9999,0.100000,99,0,0.000000,16,0.000000,27.186440,0.072293,99,99,0,0,0,0,0
9,99999,91,90000,80,40000,0,9999,0.100000,99,0,0.004840,16,0.000000,21.052832,0.108814,99,99,0,0,0,0,1
9,99999,92,90000,98,40000,0,9999,0.100000,99,0,2.102351,16,0.000000,22.529162,2.003252,99,99,0,1,0,0,0
9,99999,93,90000,27,70000,40,9999,0.100000,99,0,0.000000,16,0.000000,12.488008,0.649980,99,99,0,0,0,0,0
9,99999,94,90000,42,0,40,9999,0.100000,99,0,0.000000,16,0.000000,20.266065,0.131047,99,99,0,0,0,0,0
9,99999,95,90000,22,0,40,9999,0.100000,99,0,0.000000,16,0.000000,18.297667,0.459098,99,99,0,0,0,0,0
9,99999,96,90000,98,40000,40,9999,0.100000,99,0,0.000000,16,0.000000,34.577548,0.416899,99,99,0,0,0,0,0
9,99999,97,90000,27,70000,40,9999,0.100000,99,0,0.000000,16,0.000000,23.530613,0.163234,99,99,0,0,0,0,0
9,99999,98,90000,50,40000,40,9999,0.100000,99,0,0.000000,16,0.000000,32.208790,0.501045,99,99,0,0,0,0,0
9,99999,99,90000,22,0,40,9999,0.100000,99,0,0.000000,16,0.000000,33.052707,0.788992,99,99,0,0,0,0,0
10,109999,0,100000,0,0,40,9999,0.100000,99,0,0.000000,16,1.000000,24.214821,3.984348,99,99,0,0,0,0,0
10,109999,1,100000,98,40000,0,9999,0.100000,99,0,0.004250,16,0.000000,26.574302,0.081983,99,99,0,0,0,0,1
10,109999,2,100000,76,0,40,9999,0.100000,99,0,0.000000,16,1.000000,28.235872,3.092489,99,99,0,0,0,0,0
10,109999,3,100000,53,10000,40,9999,0.100000,99,0,0.000000,16,0.000000,26.346688,0.088108,99,99,0,0,0,0,0
10,109999,4,100000,98,40000,0,9999,0.100000,99,0,0.404241,16,0.000000,20.992275,0.169784,99,99,0,0,0,0,1
10,109999,5,100000,98,40000,0,9999,0.100000,99,0,0.375616,16,0.000000,23.797158,0.195232,99,99,0,0,0,0,1
10,109999,6,100000,98,40000,40,9999,0.100000,99,0,0.000000,16,1.000000,34.157915,2.456047,99,99,0,0,0,0,0
10,109999,7,100000,80,40000,0,9999,0.100000,99,0,0.017457,16,0.000000,32.427581,0.532210,99,99,0,0,0,0,1
10,109999,8,100000,27,70000,40,9999,0.100000,99,0,0.000000,16,0.000000,35.365197,0.226967,99,99,0,0,0,0,0
10,109999,9,100000,42,30000,0,9999,0.100000,99,0,0.657318,16,0.000000,26.550273,0.180779,99,99,0,1,0,0,0
10,109999,10,100000,55,50000,40,9999,0.100000,99,0,0.000000,16,0.000000,23.475643,3.122976,99,99,0,0,0,0,0
10,109999,11,100000,98,40000,0,9999,0.100000,99,0,0.003218,16,0.000000,28.397300,0.090436,99,99,0,0,0,0,1
10,109999,12,100000,53,10000,0,9999,0.100000,99,0,0.235323,16,0.000000,15.581317,0.126552,99,99,0,0,0,0,1
10,109999,13,100000,98,40000,0,9999,0.100000,99,0,0.143997,16,0.000000,22.644111,0.078064,99,99,0,0,0,0,1
10,109999,14,100000,42,0,40,9999,0.100000,99,0,0.000000,16,0.000000,29.819638,7.867958,99,99,0,0,0,0,0
10,109999,15,100000,50,40000,0,9999,0.100000,99,0,0.002145,16,0.000000,24.179204,0.167949,99,99,0,0,0,1,0
10,109999,16,100000,27,70000,40,9999,0.100000,99,0,0.000000,16,0.000000,18.673727,0.425304,99,99,0,0,0,0,0
10,109999,17,100000,55,10000,40,9999,0.100000,99,0,0.000000,16,0.000000,25.247511,0.578566,99,99,0,0,0,0,0
10,109999,18,100000,76,0,40,9999,0.100000,99,0,0.000000,16,0.000000,29.468126,2.172717,99,99,0,0,0,0,0
10,109999,19,100000,70,0,40,9999,0.100000,99,0,0.000000,16,0.000000,23.667349,0.096048,99,99,0,0,0,0,0
10,109999,20,100000,80,40000,0,9999,0.100000,99,0,0.316236,16,0.000000,25.648218,3.701038,99,99,0,0,0,0,1
10,109999,21,100000,44,50000,40,9999,0.100000,99,0,0.000000,16,0.000000,21.727809,0.356192,99,99,0,0,0,0,0
10,109999,22,100000,22,0,0,9999,0.100000,99,0,0.000839,16,0.000000,25.811463,0.162906,99,99,0,0,0,1,0
10,109999,23,100000,55,10000,0,9999,0.100000,99,0,0.000053,16,0.000000,22.391954,0.082267,99,99,0,0,0,0,1
10,109999,24,100000,45,90000,0,9999,0.100000,99,0,0.029708,16,0.000000,26.568407,0.108883,99,99,0,0,0,0,1
10,109999,25,100000,50,40000,0,9999,0.100000,99,0,0.122293,16,0.000000,24.792639,0.984343,99,99,0,0,0,1,0
10,109999,26,100000,70,0,0,9999,0.100000,99,0,0.031431,16,0.000000,25.207267,0.163079,99,99,0,0,0,0,1
10,109999,27,100000,27,70000,40,9999,0.100000,99,0,0.000000,16,0.000000,15.002597,3.934044,99,99,0,0,0,0,0
10,109999,28,100000,0,0,40,9999,0.100000,99,0,0.000000,16,0.000000,16.041551,0.146748,99,99,0,0,0,0,0
10,109999,29,100000,55,50000,40,9999,0.100000,99,0,0.000000,16,0.000000,28.233228,0.086711,99,99,0,0,0,0,0
10,109999,30,100000,70,0,40,9999,0.100000,99,0,0.000000,16,0.000000,28.282013,2.271883,99,99,0,0,0,0,0
10,109999,31,100000,70,0,40,9999,0.100000,99,0,0.000000,16,0.000000,19.054604,0.244063,99,99,0,0,0,0,0
10,109999,32,100000,70,0,40,9999,0.100000,99,0,0.000000,16,0.000000,29.431721,4.763239,99,99,0,0,0,0,0
10,109999,33,100000,50,40000,40,9999,0.100000,99,0,0.000000,16,0.000000,22.974346,6.951083,99,99,0,0,0,0,0
10,109999,34,100000,70,0,0,9999,0.065000,99,0,1.183718,16,0.000000,19.802880,0.709296,99,99,0,0,1,0,0
10,109999,35,100000,98,40000,0,9999,0.100000,99,0,1.760982,16,0.000000,28.540555,0.830314,99,99,0,0,1,0,0
10,109999,36,100000,42,0,0,9999,0.065000,99,0,0.291145,16,0.000000,26.736996,0.532100,99,99,0,0,0,0,1
10,109999,37,100000,45,90000,0,9999,0.100000,99,0,0.116713,16,0.000000,13.682172,0.495724,99,99,0,0,0,0,1
10,109999,38,100000,50,40000,40,9999,0.100000,99,0,0.000000,16,0.000000,26.119112,0.093611,99,99,0,0,0,0,0
10,109999,39,100000,22,0,41,9999,0.100000,99,0,0.000000,16,3.000000,24.067814,6.181502,99,99,0,0,0,0,0
10,109999,40,100000,22,0,0,9999,0.100000,99,0,0.010021,16,0.000000,29.856987,0.077502,99,99,0,0,0,0,1
10,109999,41,100000,27,70000,40,9999,0.100000,99,0,0.000000,16,0.000000,20.409222,1.231222,99,99,0,0,0,0,0
10,109999,42,100000,0,0,40,9999,0.100000,99,0,0.000000,16,1.000000,26.013655,7.215499,99,99,0,0,0,0,0
10,109999,43,100000,50,40000,40,9999,0.100000,99,0,0.000000,16,0.000000,35.792434,0.222907,99,99,0,0,0,0,0
10,109999,44,100000,22,0,0,9999,0.100000,99,0,0.385798,16,0.000000,12.785664,0.346908,99,99,0,0,0,1,0
10,109999,45,100000,22,0,40,9999,0.100000,99,0,0.000000,16,0.000000,29.720239,1.882234,99,99,0,0,0,0,0
10,109999,46,100000,55,10000,40,9999,0.100000,99,0,0.000000,16,0.000000,29.655811,6.447708,99,99,0,0,0,0,0
10,109999,47,100000,99,40000,0,9999,0.100000,99,0,0.556718,16,0.000000,33.948312,0.113443,99,99,0,0,0,0,1
10,109999,48,100000,70,0,40,9999,0.100000,99,0,0.000000,16,0.000000,19.793439,2.583263,99,99,0,0,0,0,0
10,109999,49,100000,44,50000,43,9999,0.100000,99,0,0.000000,16,9.000000,24.800953,17.193023,99,99,0,0,0,0,0
10,109999,50,100000,22,0,40,9999,0.100000,99,0,0.000000,16,0.000000,12.844127,1.522601,99,99,0,0,0,0,0
10,109999,51,100000,27,70000,40,9999,0.100000,99,0,0.000000,16,1.000000,34.302502,9.846356,99,99,0,0,0,0,0
10,109999,52,100000,99,40000,40,9999,0.100000,99,0,0.000000,16,0.000000,21.319395,0.347730,99,99,0,0,0,0,0
10,109999,53,100000,98,40000,45,9999,0.100000,99,0,0.000000,16,7.000000,12.941362,30.519731,99,99,0,0,0,0,0
10,109999,54,100000,80,40000,0,9999,0.100000,99,0,0.001027,16,0.000000,23.203549,0.113922,99,99,0,0,0,0,1
10,109999,55,100000,44,50000,40,9999,0.100000,99,0,0.000000,16,0.000000,11.337482,0.174454,99,99,0,0,0,0,0
10,109999,56,100000,70,0,0,9999,0.100000,99,0,0.188363,16,0.000000,29.742736,0.204923,99,99,0,0,0,0,1
10,109999,57,100000,99,40000,40,9999,0.100000,99,0,0.000000,16,0.000000,20.508203,0.133035,99,99,0,0,0,0,0
10,109999,58,100000,76,0,40,9999,0.100000,99,0,0.000000,16,0.000000,29.550911,0.270563,99,99,0,0,0,0,0
10,109999,59,100000,98,40000,40,9999,0.100000,99,0,0.000000,16,0.000000,25.269683,3.642388,99,99,0,0,0,0,0
10,109999,60,100000,0,0,0,9999,0.100000,99,0,0.445899,16,0.000000,34.095817,0.917843,99,99,0,0,0,0,1
10,109999,61,100000,44,50000,40,9999,0.100000,99,0,0.000000,16,0.000000,32.256572,0.517026,99,99,0,0,0,0,0
10,109999,62,100000,42,0,40,9999,0.100000,99,0,0.000000,16,0.000000,30.504167,0.105039,99,99,0,0,0,0,0
10,109999,63,100000,27,70000,40,9999,0.100000,99,0,0.000000,16,2.000000,34.023012,8.099328,99,99,0,0,0,0,0
10,109999,64,100000,99,40000,40,9999,0.100000,99,0,0.000000,16,0.000000,27.169057,0.073558,99,99,0,0,0,0,0
10,109999,65,100000,55,10000,40,9999,0.100000,99,0,0.000000,16,0.000000,30.288856,0.139616,99,99,0,0,0,0,0
10,109999,66,100000,55,50000,40,9999,0.100000,99,0,0.000000,16,0.000000,25.665219,0.078216,99,99,0,0,0,0,0
10,109999,67,100000,99,40000,0,9999,0.100000,99,0,0.186994,16,0.000000,21.205688,0.179372,99,99,0,0,0,0,1
10,109999,68,100000,0,0,40,9999,0.100000,99,0,0.000000,16,0.000000,28.303417,0.089393,99,99,0,0,0,0,0
10,109999,69,100000,0,0,40,9999,0.100000,99,0,0.000000,16,0.000000,30.264446,3.588525,99,99,0,0,0,0,0
10,109999,70,100000,28,0,40,9999,0.135000,99,0,0.000000,16,0.000000,29.822578,2.937724,99,99,0,0,0,0,0
10,109999,71,100000,0,0,40,9999,0.100000,99,0,0.000000,16,0.000000,25.269011,0.081216,99,99,0,0,0,0,0
10,109999,72,100000,22,0,40,9999,0.100000,99,0,0.000000,16,0.000000,30.732940,0.100039,99,99,0,0,0,0,0
10,109999,73,100000,80,40000,0,9999,0.100000,99,0,0.257737,16,0.000000,27.291725,0.200322,99,99,0,0,0,0,1
10,109999,74,100000,45,90000,2,9999,0.100000,99,0,0.002996,16,8.000000,27.112113,16.615670,99,99,0,0,0,0,1
10,109999,75,100000,28,0,40,9999,0.100000,99,0,0.000000,16,0.000000,19.791832,1.800844,99,99,0,0,0,0,0
10,109999,76,100000,55,10000,40,9999,0.100000,99,0,0.000000,16,0.000000,29.012425,0.108579,99,99,0,0,0,0,0
10,109999,77,100000,55,10000,0,9999,0.100000,99,0,1.073626,16,0.000000,29.548735,0.423646,99,99,0,0,1,0,0
10,109999,78,100000,80,40000,40,9999,0.100000,99,0,0.000000,16,0.000000,15.170966,0.591902,99,99,0,0,0,0,0
10,109999,79,100000,22,0,42,9999,0.100000,99,0,0.000000,16,6.000000,28.304535,7.153176,99,99,0,0,0,0,0
10,109999,80,100000,76,0,40,9999,0.100000,99,0,0.000000,16,0.000000,20.299569,1.257612,99,99,0,0,0,0,0
10,109999,81,100000,99,40000,40,9999,0.100000,99,0,0.000000,16,0.000000,26.389581,0.406359,99,99,0,0,0,0,0
10,109999,82,100000,50,40000,40,9999,0.100000,99,0,0.000000,16,0.000000,25.543527,1.451607,99,99,0,0,0,0,0
10,109999,83,100000,53,10000,40,9999,0.100000,99,0,0.000000,16,1.000000,24.493088,6.176902,99,99,0,0,0,0,0
10,109999,84,100000,53,10000,0,9999,0.100000,99,0,0.007801,16,0.000000,18.613110,0.436363,99,99,0,0,0,0,1
10,109999,85,100000,28,0,40,9999,0.100000,99,0,0.000000,16,0.000000,34.055705,0.145881,99,99,0,0,0,0,0
10,109999,86,100000,70,0,0,9999,0.100000,99,0,0.108317,16,0.000000,27.700882,0.167463,99,99,0,0,0,0,1
10,109999,87,100000,55,10000,0,9999,0.100000,99,0,0.001208,16,0.000000,26.340731,0.112907,99,99,0,0,0,0,1
10,109999,88,100000,53,10000,0,9999,0.100000,99,0,0.295781,16,0.000000,27.149072,0.136375,99,99,0,0,0,0,1
10,109999,89,100000,28,0,40,9999,0.100000,99,0,0.000000,16,0.000000,32.624692,0.467182,99,99,0,0,0,0,0
10,109999,90,100000,0,0,40,9999,0.100000,99,0,0.000000,16,0.000000,27.187755,0.071334,99,99,0,0,0,0,0
10,109999,91,100000,44,50000,0,9999,0.100000,99,0,0.376622,16,0.000000,21.053480,0.169209,99,99,0,0,0,0,1
10,109999,92,100000,99,40000,0,9999,0.100000,99,0,2.297026,16,0.000000,22.688797,2.129662,99,99,0,1,0,0,0
10,109999,93,100000,70,0,40,9999,0.100000,99,0,0.000000,16,0.000000,12.790456,0.347906,99,99,0,0,0,0,0
10,109999,94,100000,80,40000,40,9999,0.100000,99,0,0.000000,16,0.000000,20.277741,0.138269,99,99,0,0,0,0,0
10,109999,95,100000,80,40000,40,9999,0.100000,99,0,0.000000,16,0.000000,18.646332,0.427922,99,99,0,0,0,0,0
10,109999,96,100000,44,50000,40,9999,0.100000,99,0,0.000000,16,0.000000,34.358592,0.390277,99,99,0,0,0,0,0
10,109999,97,100000,55,50000,40,9999,0.100000,99,0,0.000000,16,0.000000,23.561726,0.157381,99,99,0,0,0,0,0
10,109999,98,100000,44,50000,40,9999,0.100000,99,0,0.000000,16,0.000000,32.011685,0.444819,99,99,0,0,0,0,0
10,109999,99,100000,76,0,40,9999,0.100000,99,0,0.000000,16,0.000000,32.891683,0.569574,99,99,0,0,0,0,0
11,119999,0,110000,80,40000,40,9999,0.100000,99,0,0.000000,16,0.000000,25.885593,1.015835,99,99,0,0,0,0,0
11,119999,1,110000,99,40000,0,9999,0.100000,99,0,0.015628,16,0.000000,26.574073,0.078515,99,99,0,0,0,0,1
11,119999,2,110000,28,0,40,9999,0.100000,99,0,0.000000,16,0.000000,28.669630,1.076184,99,99,0,0,0,0,0
11,119999,3,110000,42,0,40,9999,0.100000,99,0,0.000000,16,0.000000,26.346687,0.147640,99,99,0,0,0,0,0
11,119999,4,110000,42,0,0,9999,0.100000,99,0,0.295673,16,0.000000,20.998615,0.184279,99,99,0,0,0,0,1
11,119999,5,110000,76,0,0,9999,0.100000,99,0,0.005746,16,0.000000,23.822167,0.164937,99,99,0,0,0,0,1
11,119999,6,110000,28,0,40,9999,0.100000,99,0,0.000000,16,0.000000,33.660401,0.746944,99,99,0,0,0,0,0
11,119999,7,110000,53,10000,0,9999,0.100000,99,0,0.113341,16,0.000000,32.150519,0.448050,99,99,0,0,0,0,1
11,119999,8,110000,44,50000,40,9999,0.100000,99,0,0.000000,16,0.000000,35.381669,0.219177,99,99,0,0,0,0,0
11,119999,9,110000,55,10000,0,9999,0.100000,99,0,0.618283,16,0.000000,26.475798,0.176152,99,99,0,1,0,0,0
11,119999,10,110000,27,70000,40,9999,0.100000,99,0,0.000000,16,0.000000,23.466487,1.193580,99,99,0,0,0,0,0
11,119999,11,110000,76,0,40,9999,0.100000,99,0,0.000000,16,0.000000,28.398628,0.089888,99,99,0,0,0,0,0
11,119999,12,110000,80,40000,0,9999,0.100000,99,0,0.129482,16,0.000000,15.648389,0.143393,99,99,0,0,0,0,1
11,119999,13,110000,50,40000,0,9999,0.100000,99,0,0.458683,16,0.000000,22.642990,0.136414,99,99,0,0,0,0,1
11,119999,14,110000,80,40000,40,9999,0.100000,99,0,0.000000,16,3.000000,29.999246,13.793228,99,99,0,0,0,0,0
11,119999,15,110000,53,10000,0,9999,0.100000,99,0,0.003157,16,0.000000,24.178785,0.164909,99,99,0,0,0,1,0
11,119999,16,110000,76,0,40,9999,0.100000,99,0,0.000000,16,0.000000,19.004267,0.360941,99,99,0,0,0,0,0
11,119999,17,110000,44,50000,40,9999,0.100000,99,0,0.000000,16,0.000000,25.103943,0.851389,99,99,0,0,0,0,0
11,119999,18,110000,70,0,40,9999,0.100000,99,0,0.000000,16,0.000000,29.514642,3.512189,99,99,0,0,0,0,0
11,119999,19,110000,28,0,40,9999,0.100000,99,0,0.000000,16,0.000000,23.666884,0.094772,99,99,0,0,0,0,0
11,119999,20,110000,0,0,0,9999,0.100000,99,0,2.165763,16,0.000000,25.947414,0.544430,99,99,0,0,0,0,1
11,119999,21,110000,44,50000,40,9999,0.100000,99,0,0.000000,16,0.000000,21.907463,0.395123,99,99,0,0,0,0,0
11,119999,22,110000,99,40000,0,9999,0.100000,99,0,0.000540,16,0.000000,25.811998,0.162353,99,99,0,0,0,1,0
11,119999,23,110000,53,100000,0,9999,0.100000,99,0,0.001349,16,0.000000,22.391653,0.077724,99,99,0,0,0,0,1
11,119999,24,110000,98,40000,0,9999,0.100000,99,0,0.780717,16,0.000000,26.580186,0.273071,99,99,0,0,0,0,1
11,119999,25,110000,98,40000,0,9999,0.100000,99,0,0.191764,16,1.000000,24.806820,2.321831,99,99,0,0,0,1,0
11,119999,26,110000,50,40000,0,9999,0.100000,99,0,0.037025,16,0.000000,25.174091,0.077294,99,99,0,0,0,0,1
11,119999,27,110000,44,50000,2,9999,0.100000,99,0,0.211701,16,4.000000,15.145566,10.053682,99,99,0,0,0,0,1
11,119999,28,110000,0,0,40,9999,0.100000,99,0,0.000000,16,0.000000,16.111840,0.095897,99,99,0,0,0,0,0
11,119999,29,110000,50,40000,0,9999,0.100000,99,0,0.003859,16,0.000000,28.233886,0.089515,99,99,0,0,0,0,1
11,119999,30,110000,55,10000,40,9999,0.100000,99,0,0.000000,16,0.000000,28.706758,1.037294,99,99,0,0,0,0,0
11,119999,31,110000,42,0,40,9999,0.100000,99,0,0.000000,16,0.000000,19.052883,0.226739,99,99,0,0,0,0,0
11,119999,32,110000,45,90000,40,9999,0.100000,99,0,0.000000,16,0.000000,29.236249,5.634279,99,99,0,0,0,0,0
11,119999,33,110000,50,40000,40,9999,0.135000,99,0,0.000000,16,0.000000,22.486659,6.624445,99,99,0,0,0,0,0
11,119999,34,110000,98,40000,0,9999,0.100000,99,0,0.393582,16,0.000000,19.769223,0.242180,99,99,0,0,1,0,0
11,119999,35,110000,76,0,0,9999,0.100000,99,0,1.218806,16,0.000000,28.687890,0.513327,99,99,0,0,1,0,0
11,119999,36,110000,22,0,0,9999,0.100000,99,0,0.000268,16,0.000000,26.760589,0.182319,99,99,0,0,0,0,1
11,119999,37,110000,53,10000,40,9999,0.100000,99,0,0.000000,16,0.000000,13.751227,6.654065,99,99,0,0,0,0,0
11,119999,38,110000,42,0,40,9999,0.100000,99,0,0.000000,16,0.000000,26.118970,0.084360,99,99,0,0,0,0,0
11,119999,39,110000,99,40000,40,9999,0.100000,99,0,0.000000,16,2.000000,27.077007,6.028830,99,99,0,0,0,0,0
11,119999,40,110000,45,90000,0,9999,0.100000,99,0,0.002011,16,0.000000,29.862677,0.061724,99,99,0,0,0,0,1
11,119999,41,110000,44,50000,40,9999,0.100000,99,0,0.000000,16,0.000000,20.212886,1.313373,99,99,0,0,0,0,0
11,119999,42,110000,98,40000,44,9999,0.100000,99,0,0.000000,16,12.000000,27.760077,14.447391,99,99,0,0,0,0,0
11,119999,43,110000,76,0,40,9999,0.100000,99,0,0.000000,16,0.000000,35.793183,0.225871,99,99,0,0,0,0,0
11,119999,44,110000,50,40000,40,9999,0.135000,99,0,0.000000,16,0.000000,12.857777,0.282547,99,99,0,0,0,0,0
11,119999,45,110000,53,10000,40,9999,0.100000,99,0,0.000000,16,1.000000,29.619984,4.177807,99,99,0,0,0,0,0
11,119999,46,110000,45,90000,40,9999,0.100000,99,0,0.000000,16,0.000000,29.768095,7.559866,99,99,0,0,0,0,0
11,119999,47,110000,70,0,0,9999,0.100000,99,0,0.516094,16,0.000000,33.883672,0.172307,99,99,0,0,0,0,1
11,119999,48,110000,44,50000,40,9999,0.100000,99,0,0.000000,16,0.000000,19.912606,0.348232,99,99,0,0,0,0,0
11,119999,49,110000,76,0,40,9999,0.100000,99,0,0.000000,16,2.000000,27.761187,3.299778,99,99,0,0,0,0,0
11,119999,50,110000,80,40000,0,9999,0.100000,99,0,0.199342,16,0.000000,12.878337,0.186025,99,99,0,0,0,1,0
11,119999,51,110000,98,40000,40,9999,0.100000,99,0,0.000000,16,0.000000,33.556581,1.214098,99,99,0,0,0,0,0
11,119999,52,110000,27,70000,40,9999,0.100000,99,0,0.000000,16,0.000000,21.319529,0.349247,99,99,0,0,0,0,0
11,119999,53,110000,53,10000,40,9999,0.100000,99,0,0.000000,16,0.000000,12.972402,0.261642,99,99,0,0,0,0,0
11,119999,54,110000,0,0,0,9999,0.100000,99,0,0.000731,16,0.000000,23.203135,0.113891,99,99,0,0,0,0,1
11,119999,55,110000,27,70000,40,9999,0.100000,99,0,0.000000,16,0.000000,11.343163,0.176151,99,99,0,0,0,0,0
11,119999,56,110000,53,100000,0,9999,0.100000,99,0,0.187375,16,0.000000,29.742692,0.204727,99,99,0,0,0,0,1
11,119999,57,110000,55,10000,40,9999,0.100000,99,0,0.000000,16,0.000000,20.519335,0.190717,99,99,0,0,0,0,0
11,119999,58,110000,76,0,40,9999,0.100000,99,0,0.000000,16,0.000000,29.554712,0.269701,99,99,0,0,0,0,0
11,119999,59,110000,70,0,40,9999,0.100000,99,0,0.000000,16,0.000000,25.334901,0.166235,99,99,0,0,0,0,0
11,119999,60,110000,28,0,0,9999,0.100000,99,0,0.004702,16,0.000000,34.400704,0.336940,99,99,0,0,0,0,1
11,119999,61,110000,50,40000,40,9999,0.100000,99,0,0.000000,16,0.000000,31.980917,0.448906,99,99,0,0,0,0,0
11,119999,62,110000,42,0,40,9999,0.100000,99,0,0.000000,16,0.000000,30.509373,0.113404,99,99,0,0,0,0,0
11,119999,63,110000,27,70000,40,9999,0.100000,99,0,0.000000,16,0.000000,33.119996,0.239813,99,99,0,0,0,0,0
11,119999,64,110000,70,0,0,9999,0.100000,99,0,0.002521,16,0.000000,27.170232,0.073557,99,99,0,0,0,0,1
11,119999,65,110000,55,50000,40,9999,0.100000,99,0,0.000000,16,0.000000,30.294171,0.169321,99,99,0,0,0,0,0
11,119999,66,110000,53,10000,40,9999,0.100000,99,0,0.000000,16,0.000000,25.665075,0.072417,99,99,0,0,0,0,0
11,119999,67,110000,98,40000,0,9999,0.100000,99,0,0.491763,16,0.000000,21.316356,0.165018,99,99,0,0,0,0,1
11,119999,68,110000,99,40000,40,9999,0.100000,99,0,0.000000,16,0.000000,28.304424,0.089283,99,99,0,0,0,0,0
11,119999,69,110000,55,50000,40,9999,0.100000,99,0,0.000000,16,0.000000,30.272266,3.486132,99,99,0,0,0,0,0
11,119999,70,110000,55,50000,40,9999,0.100000,99,0,0.000000,16,0.000000,29.834132,1.982143,99,99,0,0,0,0,0
11,119999,71,110000,28,0,40,9999,0.100000,99,0,0.000000,16,0.000000,25.269560,0.080822,99,99,0,0,0,0,0
11,119999,72,110000,55,10000,40,9999,0.100000,99,0,0.000000,16,0.000000,30.738312,0.085250,99,99,0,0,0,0,0
11,119999,73,110000,55,10000,0,9999,0.100000,99,0,0.013109,16,0.000000,27.217990,0.095248,99,99,0,0,0,0,1
11,119999,74,110000,53,10000,40,9999,0.100000,99,0,0.000000,16,0.000000,27.113062,0.081737,99,99,0,0,0,0,0
11,119999,75,110000,22,0,40,9999,0.100000,99,0,0.000000,16,0.000000,20.111805,0.583640,99,99,0,0,0,0,0
11,119999,76,110000,55,50000,40,9999,0.100000,99,0,0.000000,16,0.000000,29.010584,0.120329,99,99,0,0,0,0,0
11,119999,77,110000,76,0,0,9999,0.100000,99,0,1.080061,16,0.000000,29.373728,0.432970,99,99,0,0,1,0,0
11,119999,78,110000,28,0,40,9999,0.100000,99,0,0.000000,16,0.000000,15.237064,0.291256,99,99,0,0,0,0,0
11,119999,79,110000,0,0,40,9999,0.100000,99,0,0.000000,16,2.000000,30.131608,2.792206,99,99,0,0,0,0,0
11,119999,80,110000,70,0,40,9999,0.100000,99,0,0.000000,16,0.000000,20.105475,1.319773,99,99,0,0,0,0,0
11,119999,81,110000,53,10000,40,9999,0.100000,99,0,0.000000,16,0.000000,26.351782,0.231097,99,99,0,0,0,0,0
11,119999,82,110000,44,50000,40,9999,0.100000,99,0,0.000000,16,0.000000,25.909026,1.087468,99,99,0,0,0,0,0
