generation,iteration,robot,birthday,ancestor_id,ancestor_birthday,cell_id,age,sigma,maps,genomes,fitness,cells_in_map,dist_max,dist_pot_max,dist_total,com_rx,com_tx,obj_group1,obj_group2,obj_group3,obj_group4,obj_group5
0,9999,0,0,0,0,49,9999,0.100000,0,0,0.000000,0,5.000000,0.000000,9.056982,0,0,0,0,0,0,0
0,9999,1,0,1,0,49,9999,0.100000,0,0,0.000000,0,9.000000,0.000000,15.934058,0,0,0,0,0,0,0
0,9999,2,0,2,0,49,9999,0.100000,0,0,0.000000,0,10.000000,0.000000,14.537546,0,0,0,0,0,0,0
0,9999,3,0,3,0,49,9999,0.100000,0,0,0.000000,0,5.000000,0.000000,6.763680,0,0,0,0,0,0,0
0,9999,4,0,4,0,49,9999,0.100000,0,0,0.000000,0,12.000000,0.000000,13.940276,0,0,0,0,0,0,0
0,9999,5,0,5,0,49,9999,0.100000,0,0,0.000000,0,7.000000,0.000000,7.914674,0,0,0,0,0,0,0
0,9999,6,0,6,0,49,9999,0.100000,0,0,0.000000,0,8.000000,0.000000,18.755032,0,0,0,0,0,0,0
0,9999,7,0,7,0,49,9999,0.100000,0,0,0.000000,0,8.000000,0.000000,12.431022,0,0,0,0,0,0,0
0,9999,8,0,8,0,49,9999,0.100000,0,0,0.000000,0,8.000000,0.000000,13.958162,0,0,0,0,0,0,0
0,9999,9,0,9,0,49,9999,0.100000,0,0,0.000000,0,11.000000,0.000000,32.290347,0,0,0,0,0,0,0
0,9999,10,0,10,0,49,9999,0.100000,0,0,0.000000,0,5.000000,0.000000,13.638131,0,0,0,0,0,0,0
0,9999,11,0,11,0,49,9999,0.100000,0,0,0.000000,0,10.000000,0.000000,18.105369,0,0,0,0,0,0,0
0,9999,12,0,12,0,49,9999,0.100000,0,0,0.000000,0,5.000000,0.000000,7.445168,0,0,0,0,0,0,0
0,9999,13,0,13,0,49,9999,0.100000,0,0,0.000000,0,9.000000,0.000000,9.507484,0,0,0,0,0,0,0
0,9999,14,0,14,0,49,9999,0.100000,0,0,0.000000,0,11.000000,0.000000,13.506376,0,0,0,0,0,0,0
0,9999,15,0,15,0,49,9999,0.100000,0,0,0.000000,0,2.000000,0.000000,2.947908,0,0,0,0,0,0,0
0,9999,16,0,16,0,49,9999,0.100000,0,0,0.000000,0,9.000000,0.000000,17.455473,0,0,0,0,0,0,0
0,9999,17,0,17,0,49,9999,0.100000,0,0,0.000000,0,6.000000,0.000000,8.879570,0,0,0,0,0,0,0
0,9999,18,0,18,0,49,9999,0.100000,0,0,0.000000,0,6.000000,0.000000,9.223179,0,0,0,0,0,0,0
0,9999,19,0,19,0,49,9999,0.100000,0,0,0.000000,0,10.000000,0.000000,11.679694,0,0,0,0,0,0,0
0,9999,20,0,20,0,49,9999,0.100000,0,0,0.000000,0,7.000000,0.000000,15.576920,0,0,0,0,0,0,0
0,9999,21,0,21,0,49,9999,0.100000,0,0,0.000000,0,9.000000,0.000000,16.923351,0,0,0,0,0,0,0
0,9999,22,0,22,0,49,9999,0.100000,0,0,0.000000,0,9.000000,0.000000,14.759301,0,0,0,0,0,0,0
0,9999,23,0,23,0,49,9999,0.100000,0,0,0.000000,0,6.000000,0.000000,8.478556,0,0,0,0,0,0,0
0,9999,24,0,24,0,49,9999,0.100000,0,0,0.000000,0,7.000000,0.000000,12.347158,0,0,0,0,0,0,0
0,9999,25,0,25,0,49,9999,0.100000,0,0,0.000000,0,9.000000,0.000000,12.682266,0,0,0,0,0,0,0
0,9999,26,0,26,0,49,9999,0.100000,0,0,0.000000,0,9.000000,0.000000,13.592968,0,0,0,0,0,0,0
0,9999,27,0,27,0,49,9999,0.100000,0,0,0.000000,0,5.000000,0.000000,9.740295,0,0,0,0,0,0,0
0,9999,28,0,28,0,49,9999,0.100000,0,0,0.000000,0,4.000000,0.000000,9.190584,0,0,0,0,0,0,0
0,9999,29,0,29,0,49,9999,0.100000,0,0,0.000000,0,2.000000,0.000000,9.566525,0,0,0,0,0,0,0
0,9999,30,0,30,0,49,9999,0.100000,0,0,0.000000,0,9.000000,0.000000,10.038269,0,0,0,0,0,0,0
0,9999,31,0,31,0,49,9999,0.100000,0,0,0.000000,0,6.000000,0.000000,8.122404,0,0,0,0,0,0,0
0,9999,32,0,32,0,49,9999,0.100000,0,0,0.000000,0,12.000000,0.000000,15.063090,0,0,0,0,0,0,0
0,9999,33,0,33,0,49,9999,0.100000,0,0,0.000000,0,7.000000,0.000000,29.993837,0,0,0,0,0,0,0
0,9999,34,0,34,0,49,9999,0.100000,0,0,0.000000,0,1.000000,0.000000,3.008141,0,0,0,0,0,0,0
0,9999,35,0,35,0,49,9999,0.100000,0,0,0.000000,0,6.000000,0.000000,16.929481,0,0,0,0,0,0,0
0,9999,36,0,36,0,49,9999,0.100000,0,0,0.000000,0,11.000000,0.000000,14.771556,0,0,0,0,0,0,0
0,9999,37,0,37,0,49,9999,0.100000,0,0,0.000000,0,8.000000,0.000000,14.789813,0,0,0,0,0,0,0
0,9999,38,0,38,0,49,9999,0.100000,0,0,0.000000,0,2.000000,0.000000,7.582637,0,0,0,0,0,0,0
0,9999,39,0,39,0,49,9999,0.100000,0,0,0.000000,0,6.000000,0.000000,6.876230,0,0,0,0,0,0,0
0,9999,40,0,40,0,49,9999,0.100000,0,0,0.000000,0,5.000000,0.000000,7.750670,0,0,0,0,0,0,0
0,9999,41,0,41,0,49,9999,0.100000,0,0,0.000000,0,2.000000,0.000000,6.988214,0,0,0,0,0,0,0
0,9999,42,0,42,0,49,9999,0.100000,0,0,0.000000,0,9.000000,0.000000,15.667201,0,0,0,0,0,0,0
0,9999,43,0,43,0,49,9999,0.100000,0,0,0.000000,0,5.000000,0.000000,12.840954,0,0,0,0,0,0,0
0,9999,44,0,44,0,49,9999,0.100000,0,0,0.000000,0,2.000000,0.000000,11.857033,0,0,0,0,0,0,0
0,9999,45,0,45,0,49,9999,0.100000,0,0,0.000000,0,9.000000,0.000000,11.743837,0,0,0,0,0,0,0
0,9999,46,0,46,0,49,9999,0.100000,0,0,0.000000,0,10.000000,0.000000,23.782856,0,0,0,0,0,0,0
0,9999,47,0,47,0,49,9999,0.100000,0,0,0.000000,0,9.000000,0.000000,13.665574,0,0,0,0,0,0,0
0,9999,48,0,48,0,49,9999,0.100000,0,0,0.000000,0,4.000000,0.000000,5.137781,0,0,0,0,0,0,0
0,9999,49,0,49,0,49,9999,0.100000,0,0,0.000000,0,6.000000,0.000000,16.173221,0,0,0,0,0,0,0
0,9999,50,0,50,0,49,9999,0.100000,0,0,0.000000,0,6.000000,0.000000,11.175064,0,0,0,0,0,0,0
0,9999,51,0,51,0,49,9999,0.100000,0,0,0.000000,0,9.000000,0.000000,11.414439,0,0,0,0,0,0,0
0,9999,52,0,52,0,49,9999,0.100000,0,0,0.000000,0,9.000000,0.000000,12.919616,0,0,0,0,0,0,0
0,9999,53,0,53,0,49,9999,0.100000,0,0,0.000000,0,8.000000,0.000000,14.447120,0,0,0,0,0,0,0
0,9999,54,0,54,0,49,9999,0.100000,0,0,0.000000,0,9.000000,0.000000,16.043683,0,0,0,0,0,0,0
0,9999,55,0,55,0,49,9999,0.100000,0,0,0.000000,0,11.000000,0.000000,30.955609,0,0,0,0,0,0,0
0,9999,56,0,56,0,49,9999,0.100000,0,0,0.000000,0,4.000000,0.000000,5.311115,0,0,0,0,0,0,0
0,9999,57,0,57,0,49,9999,0.100000,0,0,0.000000,0,5.000000,0.000000,5.702427,0,0,0,0,0,0,0
0,9999,58,0,58,0,49,9999,0.100000,0,0,0.000000,0,9.000000,0.000000,27.903536,0,0,0,0,0,0,0
0,9999,59,0,59,0,49,9999,0.100000,0,0,0.000000,0,4.000000,0.000000,6.600871,0,0,0,0,0,0,0
0,9999,60,0,60,0,49,9999,0.100000,0,0,0.000000,0,5.000000,0.000000,6.609113,0,0,0,0,0,0,0
0,9999,61,0,61,0,49,9999,0.100000,0,0,0.000000,0,9.000000,0.000000,12.959445,0,0,0,0,0,0,0
0,9999,62,0,62,0,49,9999,0.100000,0,0,0.000000,0,8.000000,0.000000,34.408329,0,0,0,0,0,0,0
0,9999,63,0,63,0,49,9999,0.100000,0,0,0.000000,0,8.000000,0.000000,18.573438,0,0,0,0,0,0,0
0,9999,64,0,64,0,49,9999,0.100000,0,0,0.000000,0,4.000000,0.000000,20.659647,0,0,0,0,0,0,0
0,9999,65,0,65,0,49,9999,0.100000,0,0,0.000000,0,7.000000,0.000000,15.456977,0,0,0,0,0,0,0
0,9999,66,0,66,0,49,9999,0.100000,0,0,0.000000,0,7.000000,0.000000,22.734592,0,0,0,0,0,0,0
0,9999,67,0,67,0,49,9999,0.100000,0,0,0.000000,0,9.000000,0.000000,18.953779,0,0,0,0,0,0,0
0,9999,68,0,68,0,49,9999,0.100000,0,0,0.000000,0,9.000000,0.000000,25.985213,0,0,0,0,0,0,0
0,9999,69,0,69,0,49,9999,0.100000,0,0,0.000000,0,10.000000,0.000000,16.671678,0,0,0,0,0,0,0
0,9999,70,0,70,0,49,9999,0.100000,0,0,0.000000,0,9.000000,0.000000,21.636276,0,0,0,0,0,0,0
0,9999,71,0,71,0,49,9999,0.100000,0,0,0.000000,0,8.000000,0.000000,9.943201,0,0,0,0,0,0,0
0,9999,72,0,72,0,49,9999,0.100000,0,0,0.000000,0,11.000000,0.000000,23.939900,0,0,0,0,0,0,0
0,9999,73,0,73,0,49,9999,0.100000,0,0,0.000000,0,10.000000,0.000000,24.268823,0,0,0,0,0,0,0
0,9999,74,0,74,0,49,9999,0.100000,0,0,0.000000,0,7.000000,0.000000,13.629344,0,0,0,0,0,0,0
0,9999,75,0,75,0,49,9999,0.100000,0,0,0.000000,0,9.000000,0.000000,19.305149,0,0,0,0,0,0,0
0,9999,76,0,76,0,49,9999,0.100000,0,0,0.000000,0,4.000000,0.000000,6.068404,0,0,0,0,0,0,0
0,9999,77,0,77,0,49,9999,0.100000,0,0,0.000000,0,12.000000,0.000000,20.044582,0,0,0,0,0,0,0
0,9999,78,0,78,0,49,9999,0.100000,0,0,0.000000,0,9.000000,0.000000,19.515170,0,0,0,0,0,0,0
0,9999,79,0,79,0,49,9999,0.100000,0,0,0.000000,0,4.000000,0.000000,12.682146,0,0,0,0,0,0,0
0,9999,80,0,80,0,49,9999,0.100000,0,0,0.000000,0,4.000000,0.000000,14.109419,0,0,0,0,0,0,0
0,9999,81,0,81,0,49,9999,0.100000,0,0,0.000000,0,9.000000,0.000000,15.525498,0,0,0,0,0,0,0
0,9999,82,0,82,0,49,9999,0.100000,0,0,0.000000,0,9.000000,0.000000,13.336006,0,0,0,0,0,0,0
0,9999,83,0,83,0,49,9999,0.100000,0,0,0.000000,0,12.000000,0.000000,25.067401,0,0,0,0,0,0,0
0,9999,84,0,84,0,49,9999,0.100000,0,0,0.000000,0,9.000000,0.000000,11.040623,0,0,0,0,0,0,0
0,9999,85,0,85,0,49,9999,0.100000,0,0,0.000000,0,9.000000,0.000000,21.906887,0,0,0,0,0,0,0
0,9999,86,0,86,0,49,9999,0.100000,0,0,0.000000,0,1.000000,0.000000,8.988720,0,0,0,0,0,0,0
0,9999,87,0,87,0,49,9999,0.100000,0,0,0.000000,0,7.000000,0.000000,29.764639,0,0,0,0,0,0,0
0,9999,88,0,88,0,49,9999,0.100000,0,0,0.000000,0,9.000000,0.000000,12.378658,0,0,0,0,0,0,0
0,9999,89,0,89,0,49,9999,0.100000,0,0,0.000000,0,5.000000,0.000000,10.433212,0,0,0,0,0,0,0
0,9999,90,0,90,0,49,9999,0.100000,0,0,0.000000,0,12.000000,0.000000,14.679252,0,0,0,0,0,0,0
0,9999,91,0,91,0,49,9999,0.100000,0,0,0.000000,0,9.000000,0.000000,9.952720,0,0,0,0,0,0,0
0,9999,92,0,92,0,49,9999,0.100000,0,0,0.000000,0,8.000000,0.000000,10.067925,0,0,0,0,0,0,0
0,9999,93,0,93,0,99,9999,0.100000,0,0,47.368421,0,10.000000,0.000000,21.563295,0,0,1,0,0,0,0
0,9999,94,0,94,0,49,9999,0.100000,0,0,0.000000,0,8.000000,0.000000,15.879608,0,0,0,0,0,0,0
0,9999,95,0,95,0,49,9999,0.100000,0,0,0.000000,0,6.000000,0.000000,7.251670,0,0,0,0,0,0,0
0,9999,96,0,96,0,49,9999,0.100000,0,0,0.000000,0,6.000000,0.000000,11.025454,0,0,0,0,0,0,0
0,9999,97,0,97,0,49,9999,0.100000,0,0,0.000000,0,9.000000,0.000000,10.727057,0,0,0,0,0,0,0
0,9999,98,0,98,0,99,9999,0.100000,0,0,47.368421,0,10.000000,0.000000,19.413335,0,0,1,0,0,0,0
0,9999,99,0,99,0,49,9999,0.100000,0,0,0.000000,0,14.000000,0.000000,87.433895,0,0,0,0,0,0,0
1,19999,0,10000,9,0,49,9999,0.100000,0,0,0.000000,3,2.000000,0.000000,6.106156,0,0,0,0,0,0,0
1,19999,1,0,1,0,40,19999,0.100000,0,0,0.000000,3,0.000000,0.000000,0.157316,0,0,0,0,0,0,0
1,19999,2,10000,0,0,40,9999,0.100000,0,0,0.000000,3,0.000000,0.000000,1.001214,0,0,0,0,0,0,0
1,19999,3,10000,90,0,49,9999,0.100000,0,0,0.000000,3,1.000000,0.000000,4.127554,0,0,0,0,0,0,0
1,19999,4,0,4,0,40,19999,0.100000,0,0,0.000000,1,0.000000,0.000000,0.230473,0,0,0,0,0,0,0
1,19999,5,10000,9,0,40,9999,0.100000,0,0,0.000000,3,0.000000,0.000000,0.238561,0,0,0,0,0,0,0
1,19999,6,10000,9,0,49,9999,0.100000,0,0,0.000000,3,4.000000,0.000000,8.211185,0,0,0,0,0,0,0
1,19999,7,10000,90,0,40,9999,0.100000,0,0,0.000000,3,0.000000,0.000000,0.421837,0,0,0,0,0,0,0
1,19999,8,10000,8,0,40,9999,0.100000,0,0,0.000000,2,0.000000,0.000000,0.829760,0,0,0,0,0,0,0
1,19999,9,10000,8,0,99,9999,0.100000,0,0,34.210526,3,3.000000,0.000000,15.176167,0,0,1,0,0,0,0
1,19999,10,10000,9,0,49,9999,0.100000,0,0,0.000000,3,2.000000,0.000000,5.598247,0,0,0,0,0,0,0
1,19999,11,10000,45,0,49,9999,0.100000,0,0,0.000000,3,2.000000,0.000000,12.333753,0,0,0,0,0,0,0
1,19999,12,10000,90,0,40,9999,0.100000,0,0,0.000000,3,0.000000,0.000000,0.811681,0,0,0,0,0,0,0
1,19999,13,10000,0,0,40,9999,0.100000,0,0,0.000000,3,0.000000,0.000000,0.567371,0,0,0,0,0,0,0
1,19999,14,10000,45,0,40,9999,0.100000,0,0,0.000000,3,0.000000,0.000000,0.068867,0,0,0,0,0,0,0
1,19999,15,10000,9,0,40,9999,0.100000,0,0,0.000000,3,0.000000,0.000000,0.213560,0,0,0,0,0,0,0
1,19999,16,10000,55,0,49,9999,0.100000,0,0,0.000000,3,3.000000,0.000000,7.623176,0,0,0,0,0,0,0
1,19999,17,10000,45,0,40,9999,0.100000,0,0,0.000000,3,0.000000,0.000000,0.120867,0,0,0,0,0,0,0
1,19999,18,10000,55,0,49,9999,0.100000,0,0,0.000000,3,1.000000,0.000000,6.275242,0,0,0,0,0,0,0
1,19999,19,10000,90,0,40,9999,0.100000,0,0,0.000000,3,0.000000,0.000000,0.459459,0,0,0,0,0,0,0
1,19999,20,10000,90,0,49,9999,0.100000,0,0,0.000000,3,1.000000,0.000000,7.491064,0,0,0,0,0,0,0
1,19999,21,10000,9,0,49,9999,0.100000,0,0,0.000000,3,3.000000,0.000000,5.623327,0,0,0,0,0,0,0
1,19999,22,10000,9,0,49,9999,0.100000,0,0,0.000000,3,4.000000,0.000000,6.464274,0,0,0,0,0,0,0
1,19999,23,10000,9,0,40,9999,0.100000,0,0,0.000000,3,0.000000,0.000000,2.109891,0,0,0,0,0,0,0
1,19999,24,10000,9,0,40,9999,0.100000,0,0,0.000000,3,0.000000,0.000000,12.083496,0,0,0,0,0,0,0
1,19999,25,10000,0,0,49,9999,0.100000,0,0,0.000000,3,4.000000,0.000000,4.951209,0,0,0,0,0,0,0
1,19999,26,10000,55,0,49,9999,0.100000,0,0,0.000000,3,2.000000,0.000000,4.830704,0,0,0,0,0,0,0
1,19999,27,10000,0,0,40,9999,0.100000,0,0,0.000000,3,0.000000,0.000000,0.488357,0,0,0,0,0,0,0
1,19999,28,10000,0,0,40,9999,0.100000,0,0,0.000000,3,0.000000,0.000000,0.142646,0,0,0,0,0,0,0
1,19999,29,10000,55,0,49,9999,0.100000,0,0,0.000000,3,2.000000,0.000000,4.565516,0,0,0,0,0,0,0
1,19999,30,10000,45,0,49,9999,0.100000,0,0,0.000000,3,2.000000,0.000000,2.250312,0,0,0,0,0,0,0
1,19999,31,10000,0,0,40,9999,0.100000,0,0,0.000000,3,0.000000,0.000000,0.298689,0,0,0,0,0,0,0
1,19999,32,10000,98,0,40,9999,0.100000,0,0,0.000000,3,0.000000,0.000000,0.329359,0,0,0,0,0,0,0
1,19999,33,10000,90,0,40,9999,0.100000,0,0,0.000000,3,0.000000,0.000000,5.292172,0,0,0,0,0,0,0
1,19999,34,10000,9,0,40,9999,0.100000,0,0,0.000000,3,0.000000,0.000000,0.214866,0,0,0,0,0,0,0
1,19999,35,10000,98,0,49,9999,0.100000,0,0,0.000000,3,1.000000,0.000000,5.577742,0,0,0,0,0,0,0
1,19999,36,10000,90,0,49,9999,0.100000,0,0,0.000000,3,10.000000,0.000000,20.273355,0,0,0,0,0,0,0
1,19999,37,10000,90,0,49,9999,0.100000,0,0,0.000000,3,2.000000,0.000000,9.299298,0,0,0,0,0,0,0
1,19999,38,10000,55,0,40,9999,0.100000,0,0,0.000000,3,0.000000,0.000000,0.371164,0,0,0,0,0,0,0
1,19999,39,10000,8,0,40,9999,0.100000,0,0,0.000000,3,0.000000,0.000000,0.843071,0,0,0,0,0,0,0
1,19999,40,10000,45,0,40,9999,0.100000,0,0,0.000000,3,0.000000,0.000000,2.642809,0,0,0,0,0,0,0
1,19999,41,10000,0,0,40,9999,0.100000,0,0,0.000000,3,0.000000,0.000000,0.184618,0,0,0,0,0,0,0
1,19999,42,10000,90,0,40,9999,0.100000,0,0,0.000000,3,0.000000,0.000000,8.999489,0,0,0,0,0,0,0
1,19999,43,10000,55,0,40,9999,0.100000,0,0,0.000000,3,0.000000,0.000000,0.458612,0,0,0,0,0,0,0
1,19999,44,10000,0,0,49,9999,0.100000,0,0,0.000000,3,4.000000,0.000000,11.905668,0,0,0,0,0,0,0
1,19999,45,10000,45,0,40,9999,0.100000,0,0,0.000000,3,0.000000,0.000000,0.074384,0,0,0,0,0,0,0
1,19999,46,10000,90,0,49,9999,0.100000,0,0,0.000000,3,2.000000,0.000000,5.093836,0,0,0,0,0,0,0
1,19999,47,10000,98,0,49,9999,0.100000,0,0,0.000000,3,1.000000,0.000000,8.086063,0,0,0,0,0,0,0
1,19999,48,10000,0,0,40,9999,0.100000,0,0,0.000000,3,0.000000,0.000000,0.526483,0,0,0,0,0,0,0
1,19999,49,10000,0,0,40,9999,0.100000,0,0,0.000000,3,0.000000,0.000000,0.156047,0,0,0,0,0,0,0
1,19999,50,10000,9,0,40,9999,0.100000,0,0,0.000000,3,0.000000,0.000000,0.419393,0,0,0,0,0,0,0
1,19999,51,10000,0,0,40,9999,0.100000,0,0,0.000000,3,0.000000,0.000000,0.279939,0,0,0,0,0,0,0
1,19999,52,10000,0,0,49,9999,0.100000,0,0,0.000000,3,1.000000,0.000000,3.859660,0,0,0,0,0,0,0
1,19999,53,10000,0,0,40,9999,0.100000,0,0,0.000000,3,0.000000,0.000000,0.287455,0,0,0,0,0,0,0
1,19999,54,10000,55,0,49,9999,0.100000,0,0,0.000000,3,1.000000,0.000000,6.001664,0,0,0,0,0,0,0
1,19999,55,10000,55,0,99,9999,0.100000,0,0,34.210526,3,3.000000,0.000000,16.592763,0,0,1,0,0,0,0
1,19999,56,10000,0,0,40,9999,0.100000,0,0,0.000000,3,0.000000,0.000000,0.525979,0,0,0,0,0,0,0
1,19999,57,10000,0,0,40,9999,0.100000,0,0,0.000000,3,0.000000,0.000000,0.104147,0,0,0,0,0,0,0
1,19999,58,10000,0,0,40,9999,0.100000,0,0,0.000000,3,0.000000,0.000000,0.598427,0,0,0,0,0,0,0
1,19999,59,10000,90,0,49,9999,0.100000,0,0,0.000000,3,1.000000,0.000000,19.149687,0,0,0,0,0,0,0
1,19999,60,10000,0,0,40,9999,0.100000,0,0,0.000000,3,0.000000,0.000000,0.344900,0,0,0,0,0,0,0
1,19999,61,10000,55,0,49,9999,0.100000,0,0,0.000000,3,5.000000,0.000000,23.612691,0,0,0,0,0,0,0
1,19999,62,10000,55,0,40,9999,0.100000,0,0,0.000000,3,0.000000,0.000000,0.148592,0,0,0,0,0,0,0
1,19999,63,10000,98,0,40,9999,0.100000,0,0,0.000000,3,0.000000,0.000000,0.170659,0,0,0,0,0,0,0
1,19999,64,10000,45,0,40,9999,0.100000,0,0,0.000000,3,0.000000,0.000000,0.073776,0,0,0,0,0,0,0
1,19999,65,10000,90,0,49,9999,0.100000,0,0,0.000000,3,1.000000,0.000000,2.414020,0,0,0,0,0,0,0
1,19999,66,10000,8,0,49,9999,0.100000,0,0,0.000000,3,3.000000,0.000000,6.125047,0,0,0,0,0,0,0
1,19999,67,10000,55,0,49,9999,0.100000,0,0,0.000000,3,3.000000,0.000000,9.075442,0,0,0,0,0,0,0
1,19999,68,10000,90,0,49,9999,0.100000,0,0,0.000000,3,2.000000,0.000000,11.980795,0,0,0,0,0,0,0
1,19999,69,10000,45,0,49,9999,0.100000,0,0,0.000000,3,3.000000,0.000000,9.493859,0,0,0,0,0,0,0
1,19999,70,10000,9,0,49,9999,0.100000,0,0,0.000000,3,3.000000,0.000000,5.568815,0,0,0,0,0,0,0
1,19999,71,10000,45,0,40,9999,0.100000,0,0,0.000000,3,0.000000,0.000000,0.471912,0,0,0,0,0,0,0
1,19999,72,10000,90,0,49,9999,0.100000,0,0,0.000000,3,2.000000,0.000000,7.319977,0,0,0,0,0,0,0
1,19999,73,10000,0,0,99,9999,0.100000,0,0,34.210526,3,14.000000,0.000000,44.939717,0,0,1,0,0,0,0
1,19999,74,10000,0,0,40,9999,0.100000,0,0,0.000000,3,0.000000,0.000000,1.887141,0,0,0,0,0,0,0
1,19999,75,10000,0,0,49,9999,0.100000,0,0,0.000000,3,3.000000,0.000000,9.426409,0,0,0,0,0,0,0
1,19999,76,10000,90,0,40,9999,0.100000,0,0,0.000000,3,0.000000,0.000000,1.327500,0,0,0,0,0,0,0
1,19999,77,10000,9,0,49,9999,0.100000,0,0,0.000000,3,7.000000,0.000000,17.919140,0,0,0,0,0,0,0
1,19999,78,10000,0,0,49,9999,0.100000,0,0,0.000000,3,3.000000,0.000000,8.084901,0,0,0,0,0,0,0
1,19999,79,10000,0,0,40,9999,0.100000,0,0,0.000000,3,0.000000,0.000000,1.327372,0,0,0,0,0,0,0
1,19999,80,10000,90,0,49,9999,0.100000,0,0,0.000000,3,2.000000,0.000000,3.485831,0,0,0,0,0,0,0
1,19999,81,10000,55,0,40,9999,0.100000,0,0,0.000000,3,0.000000,0.000000,23.809717,0,0,0,0,0,0,0
1,19999,82,10000,0,0,40,9999,0.100000,0,0,0.000000,3,0.000000,0.000000,0.673410,0,0,0,0,0,0,0
1,19999,83,10000,0,0,40,9999,0.100000,0,0,0.000000,3,0.000000,0.000000,1.612118,0,0,0,0,0,0,0
1,19999,84,10000,55,0,49,9999,0.100000,0,0,0.000000,3,1.000000,0.000000,7.599232,0,0,0,0,0,0,0
1,19999,85,10000,0,0,49,9999,0.100000,0,0,0.000000,3,2.000000,0.000000,9.977034,0,0,0,0,0,0,0
1,19999,86,10000,45,0,49,9999,0.100000,0,0,0.000000,3,2.000000,0.000000,8.418405,0,0,0,0,0,0,0
1,19999,87,10000,55,0,49,9999,0.100000,0,0,0.000000,3,1.000000,0.000000,2.376485,0,0,0,0,0,0,0
1,19999,88,10000,90,0,49,9999,0.100000,0,0,0.000000,3,4.000000,0.000000,9.253721,0,0,0,0,0,0,0
1,19999,89,10000,55,0,40,9999,0.100000,0,0,0.000000,3,0.000000,0.000000,0.180027,0,0,0,0,0,0,0
1,19999,90,10000,90,0,49,9999,0.100000,0,0,0.000000,3,1.000000,0.000000,7.372686,0,0,0,0,0,0,0
1,19999,91,10000,90,0,49,9999,0.100000,0,0,0.000000,3,5.000000,0.000000,15.406826,0,0,0,0,0,0,0
1,19999,92,10000,45,0,49,9999,0.100000,0,0,0.000000,3,1.000000,0.000000,1.377832,0,0,0,0,0,0,0
1,19999,93,10000,0,0,49,9999,0.100000,0,0,0.000000,3,2.000000,0.000000,7.997594,0,0,0,0,0,0,0
1,19999,94,10000,0,0,49,9999,0.100000,0,0,0.000000,3,1.000000,0.000000,3.569395,0,0,0,0,0,0,0
1,19999,95,10000,90,0,40,9999,0.100000,0,0,0.000000,3,0.000000,0.000000,0.819235,0,0,0,0,0,0,0
1,19999,96,10000,90,0,49,9999,0.100000,0,0,0.000000,3,3.000000,0.000000,9.408989,0,0,0,0,0,0,0
1,19999,97,10000,90,0,49,9999,0.100000,0,0,0.000000,3,4.000000,0.000000,28.697919,0,0,0,0,0,0,0
1,19999,98,10000,98,0,49,9999,0.100000,0,0,0.000000,3,2.000000,0.000000,9.287597,0,0,0,0,0,0,0
1,19999,99,10000,55,0,49,9999,0.100000,0,0,0.000000,3,9.000000,0.000000,37.052339,0,0,0,0,0,0,0
2,29999,0,20000,0,0,49,9999,0.100000,0,0,0.000000,5,1.000000,0.000000,1.808346,0,0,0,0,0,0,0
2,29999,1,20000,2,10000,40,9999,0.100000,0,0,0.000000,5,0.000000,0.000000,0.078771,0,0,0,0,0,0,0
2,29999,2,20000,2,10000,40,9999,0.100000,0,0,0.000000,5,0.000000,0.000000,0.723618,0,0,0,0,0,0,0
2,29999,3,20000,55,0,49,9999,0.100000,0,0,0.000000,3,1.000000,0.000000,1.732436,0,0,0,0,0,0,0
2,29999,4,20000,55,0,40,9999,0.100000,0,0,0.000000,5,0.000000,0.000000,0.227109,0,0,0,0,0,0,0
2,29999,5,20000,14,10000,40,9999,0.100000,0,0,0.000000,4,0.000000,0.000000,0.124151,0,0,0,0,0,0,0
2,29999,6,20000,0,0,40,9999,0.100000,0,0,0.000000,4,0.000000,0.000000,3.543803,0,0,0,0,0,0,0
2,29999,7,20000,55,0,40,9999,0.100000,0,0,0.000000,4,0.000000,0.000000,0.888658,0,0,0,0,0,0,0
2,29999,8,20000,0,0,40,9999,0.100000,0,0,0.000000,5,0.000000,0.000000,0.451805,0,0,0,0,0,0,0
2,29999,9,20000,2,10000,0,9999,0.100000,0,0,0.000000,5,0.000000,0.000000,1.281705,0,0,0,0,0,0,1
2,29999,10,20000,0,0,40,9999,0.100000,0,0,0.000000,5,0.000000,0.000000,1.205047,0,0,0,0,0,0,0
2,29999,11,20000,45,10000,9,9999,0.100000,0,0,0.000000,5,1.000000,0.000000,11.276647,0,0,0,0,0,0,1
2,29999,12,20000,0,0,40,9999,0.100000,0,0,0.000000,4,0.000000,0.000000,0.155730,0,0,0,0,0,0,0
2,29999,13,20000,0,0,40,9999,0.100000,0,0,0.000000,5,0.000000,0.000000,1.004682,0,0,0,0,0,0,0
2,29999,14,20000,55,0,40,9999,0.100000,0,0,0.000000,4,0.000000,0.000000,0.069086,0,0,0,0,0,0,0
2,29999,15,20000,2,10000,40,9999,0.100000,0,0,0.000000,5,0.000000,0.000000,0.161682,0,0,0,0,0,0,0
2,29999,16,20000,0,0,49,9999,0.100000,0,0,0.000000,5,1.000000,0.000000,3.889630,0,0,0,0,0,0,0
2,29999,17,20000,2,10000,40,9999,0.100000,0,0,0.000000,5,0.000000,0.000000,0.124636,0,0,0,0,0,0,0
2,29999,18,20000,55,0,49,9999,0.100000,0,0,0.000000,5,1.000000,0.000000,1.228207,0,0,0,0,0,0,0
2,29999,19,20000,2,10000,40,9999,0.100000,0,0,0.000000,5,0.000000,0.000000,0.433845,0,0,0,0,0,0,0
2,29999,20,20000,2,10000,49,9999,0.100000,0,0,0.000000,5,1.000000,0.000000,2.950651,0,0,0,0,0,0,0
2,29999,21,20000,90,0,40,9999,0.100000,0,0,0.000000,5,0.000000,0.000000,0.895227,0,0,0,0,0,0,0
2,29999,22,20000,90,0,49,9999,0.100000,0,0,0.000000,5,6.000000,0.000000,8.547577,0,0,0,0,0,0,0
2,29999,23,20000,0,0,40,9999,0.100000,0,0,0.000000,5,0.000000,0.000000,0.176610,0,0,0,0,0,0,0
2,29999,24,20000,55,0,40,9999,0.100000,0,0,0.000000,5,0.000000,0.000000,6.186821,0,0,0,0,0,0,0
2,29999,25,20000,90,0,40,9999,0.100000,0,0,0.000000,5,0.000000,0.000000,0.430414,0,0,0,0,0,0,0
2,29999,26,20000,45,10000,40,9999,0.100000,0,0,0.000000,5,0.000000,0.000000,1.051399,0,0,0,0,0,0,0
2,29999,27,20000,14,10000,40,9999,0.100000,0,0,0.000000,5,0.000000,0.000000,0.777858,0,0,0,0,0,0,0
2,29999,28,20000,55,0,40,9999,0.100000,0,0,0.000000,5,0.000000,0.000000,0.122090,0,0,0,0,0,0,0
2,29999,29,20000,90,0,49,9999,0.100000,0,0,0.000000,5,1.000000,0.000000,3.963221,0,0,0,0,0,0,0
2,29999,30,20000,55,0,9,9999,0.100000,0,0,0.000000,5,4.000000,0.000000,12.212888,0,0,0,0,0,0,1
2,29999,31,20000,0,0,49,9999,0.100000,0,0,0.000000,5,1.000000,0.000000,1.171216,0,0,0,0,0,0,0
2,29999,32,20000,2,10000,40,9999,0.100000,0,0,0.000000,5,0.000000,0.000000,0.826396,0,0,0,0,0,0,0
2,29999,33,20000,0,0,49,9999,0.100000,0,0,0.000000,5,1.000000,0.000000,11.956814,0,0,0,0,0,0,0
2,29999,34,20000,55,0,40,9999,0.100000,0,0,0.000000,5,0.000000,0.000000,0.103990,0,0,0,0,0,0,0
2,29999,35,20000,55,0,49,9999,0.100000,0,0,0.000000,5,2.000000,0.000000,7.432308,0,0,0,0,0,0,0
2,29999,36,20000,0,0,40,9999,0.100000,0,0,0.000000,5,0.000000,0.000000,0.095259,0,0,0,0,0,0,0
2,29999,37,20000,55,0,40,9999,0.100000,0,0,0.000000,5,0.000000,0.000000,1.142179,0,0,0,0,0,0,0
2,29999,38,20000,0,0,40,9999,0.100000,0,0,0.000000,5,0.000000,0.000000,0.278487,0,0,0,0,0,0,0
2,29999,39,20000,0,0,40,9999,0.100000,0,0,0.000000,5,0.000000,0.000000,0.610061,0,0,0,0,0,0,0
2,29999,40,20000,55,0,40,9999,0.100000,0,0,0.000000,5,0.000000,0.000000,0.379095,0,0,0,0,0,0,0
2,29999,41,20000,2,10000,40,9999,0.100000,0,0,0.000000,5,0.000000,0.000000,0.182903,0,0,0,0,0,0,0
2,29999,42,20000,90,0,49,9999,0.100000,0,0,0.000000,5,2.000000,0.000000,9.447866,0,0,0,0,0,0,0
2,29999,43,20000,0,0,40,9999,0.100000,0,0,0.000000,5,0.000000,0.000000,0.216766,0,0,0,0,0,0,0
2,29999,44,20000,55,0,40,9999,0.100000,0,0,0.000000,5,0.000000,0.000000,6.024742,0,0,0,0,0,0,0
2,29999,45,20000,0,0,40,9999,0.100000,0,0,0.000000,5,0.000000,0.000000,0.073333,0,0,0,0,0,0,0
2,29999,46,20000,14,10000,9,9999,0.100000,0,0,0.000000,5,1.000000,0.000000,14.150432,0,0,0,0,0,0,1
2,29999,47,20000,45,10000,49,9999,0.100000,0,0,0.000000,5,1.000000,0.000000,10.966285,0,0,0,0,0,0,0
2,29999,48,20000,45,10000,40,9999,0.100000,0,0,0.000000,5,0.000000,0.000000,0.510490,0,0,0,0,0,0,0
2,29999,49,20000,55,0,40,9999,0.100000,0,0,0.000000,5,0.000000,0.000000,0.740039,0,0,0,0,0,0,0
2,29999,50,20000,55,0,40,9999,0.100000,0,0,0.000000,5,0.000000,0.000000,0.901259,0,0,0,0,0,0,0
2,29999,51,20000,90,0,40,9999,0.100000,0,0,0.000000,5,0.000000,0.000000,1.484539,0,0,0,0,0,0,0
2,29999,52,20000,90,0,40,9999,0.100000,0,0,0.000000,5,0.000000,0.000000,0.766281,0,0,0,0,0,0,0
2,29999,53,20000,55,0,40,9999,0.100000,0,0,0.000000,4,0.000000,0.000000,0.083351,0,0,0,0,0,0,0
2,29999,54,20000,0,0,40,9999,0.100000,0,0,0.000000,5,0.000000,0.000000,0.338504,0,0,0,0,0,0,0
2,29999,55,20000,55,0,49,9999,0.100000,0,0,0.000000,5,1.000000,0.000000,12.004066,0,0,0,0,0,0,0
2,29999,56,20000,90,0,40,9999,0.100000,0,0,0.000000,5,0.000000,0.000000,0.104985,0,0,0,0,0,0,0
2,29999,57,20000,0,0,40,9999,0.100000,0,0,0.000000,5,0.000000,0.000000,0.103550,0,0,0,0,0,0,0
2,29999,58,20000,58,10000,40,9999,0.100000,0,0,0.000000,5,0.000000,0.000000,0.898400,0,0,0,0,0,0,0
2,29999,59,20000,90,0,49,9999,0.100000,0,0,0.000000,5,2.000000,0.000000,10.853165,0,0,0,0,0,0,0
2,29999,60,20000,2,10000,40,9999,0.100000,0,0,0.000000,5,0.000000,0.000000,0.194121,0,0,0,0,0,0,0
2,29999,61,20000,19,10000,49,9999,0.100000,0,0,0.000000,5,1.000000,0.000000,7.042872,0,0,0,0,0,0,0
2,29999,62,20000,0,0,40,9999,0.100000,0,0,0.000000,5,0.000000,0.000000,1.286639,0,0,0,0,0,0,0
2,29999,63,20000,0,0,40,9999,0.100000,0,0,0.000000,5,0.000000,0.000000,0.069040,0,0,0,0,0,0,0
2,29999,64,20000,90,0,40,9999,0.100000,0,0,0.000000,5,0.000000,0.000000,0.080700,0,0,0,0,0,0,0
2,29999,65,20000,19,10000,49,9999,0.100000,0,0,0.000000,5,2.000000,0.000000,5.711428,0,0,0,0,0,0,0
2,29999,66,20000,0,0,40,9999,0.100000,0,0,0.000000,5,0.000000,0.000000,1.118576,0,0,0,0,0,0,0
2,29999,67,20000,55,0,49,9999,0.100000,0,0,0.000000,5,4.000000,0.000000,19.679477,0,0,0,0,0,0,0
2,29999,68,20000,55,0,40,9999,0.100000,0,0,0.000000,5,0.000000,0.000000,0.493643,0,0,0,0,0,0,0
2,29999,69,20000,55,0,49,9999,0.100000,0,0,0.000000,5,1.000000,0.000000,26.436602,0,0,0,0,0,0,0
2,29999,70,20000,0,0,40,9999,0.100000,0,0,0.000000,5,0.000000,0.000000,1.419770,0,0,0,0,0,0,0
2,29999,71,20000,90,0,40,9999,0.100000,0,0,0.000000,5,0.000000,0.000000,0.970563,0,0,0,0,0,0,0
2,29999,72,20000,55,0,9,9999,0.100000,0,0,0.000000,5,3.000000,0.000000,11.821445,0,0,0,0,0,0,1
2,29999,73,20000,19,10000,49,9999,0.100000,0,0,0.000000,5,8.000000,0.000000,58.902764,0,0,0,0,0,0,0
2,29999,74,20000,2,10000,40,9999,0.100000,0,0,0.000000,5,0.000000,0.000000,0.642167,0,0,0,0,0,0,0
2,29999,75,20000,2,10000,49,9999,0.100000,0,0,0.000000,5,1.000000,0.000000,5.130330,0,0,0,0,0,0,0
2,29999,76,20000,0,0,40,9999,0.100000,0,0,0.000000,5,0.000000,0.000000,0.130107,0,0,0,0,0,0,0
2,29999,77,20000,55,0,40,9999,0.100000,0,0,0.000000,5,0.000000,0.000000,0.127651,0,0,0,0,0,0,0
2,29999,78,20000,0,0,49,9999,0.100000,0,0,0.000000,5,1.000000,0.000000,2.654406,0,0,0,0,0,0,0
2,29999,79,20000,90,0,40,9999,0.100000,0,0,0.000000,5,0.000000,0.000000,0.145866,0,0,0,0,0,0,0
2,29999,80,20000,2,10000,49,9999,0.100000,0,0,0.000000,5,1.000000,0.000000,1.373793,0,0,0,0,0,0,0
2,29999,81,20000,55,0,40,9999,0.100000,0,0,0.000000,5,0.000000,0.000000,23.876802,0,0,0,0,0,0,0
2,29999,82,20000,19,10000,40,9999,0.100000,0,0,0.000000,5,0.000000,0.000000,1.576887,0,0,0,0,0,0,0
2,29999,83,20000,55,0,40,9999,0.100000,0,0,0.000000,5,0.000000,0.000000,0.164563,0,0,0,0,0,0,0
2,29999,84,20000,90,0,40,9999,0.100000,0,0,0.000000,5,0.000000,0.000000,1.054577,0,0,0,0,0,0,0
2,29999,85,20000,2,10000,40,9999,0.100000,0,0,0.000000,5,0.000000,0.000000,0.802332,0,0,0,0,0,0,0
2,29999,86,20000,55,0,40,9999,0.100000,0,0,0.000000,5,0.000000,0.000000,0.421043,0,0,0,0,0,0,0
2,29999,87,20000,0,0,40,9999,0.100000,0,0,0.000000,5,0.000000,0.000000,0.989088,0,0,0,0,0,0,0
2,29999,88,20000,90,0,40,9999,0.100000,0,0,0.000000,5,0.000000,0.000000,0.592294,0,0,0,0,0,0,0
2,29999,89,20000,55,0,49,9999,0.100000,0,0,0.000000,5,4.000000,0.000000,18.552734,0,0,0,0,0,0,0
2,29999,90,20000,58,10000,40,9999,0.100000,0,0,0.000000,5,0.000000,0.000000,0.751552,0,0,0,0,0,0,0
2,29999,91,20000,0,0,40,9999,0.100000,0,0,0.000000,5,0.000000,0.000000,0.194387,0,0,0,0,0,0,0
2,29999,92,20000,55,0,40,9999,0.100000,0,0,0.000000,5,0.000000,0.000000,1.557608,0,0,0,0,0,0,0
2,29999,93,20000,55,0,49,9999,0.100000,0,0,0.000000,5,2.000000,0.000000,13.800443,0,0,0,0,0,0,0
2,29999,94,20000,2,10000,40,9999,0.100000,0,0,0.000000,5,0.000000,0.000000,2.252555,0,0,0,0,0,0,0
2,29999,95,20000,45,10000,40,9999,0.100000,0,0,0.000000,5,0.000000,0.000000,0.958309,0,0,0,0,0,0,0
2,29999,96,10000,90,0,40,19999,0.100000,0,0,0.000000,5,0.000000,0.000000,1.189331,0,0,0,0,0,0,0
2,29999,97,20000,0,0,49,9999,0.100000,0,0,0.000000,5,4.000000,0.000000,9.467395,0,0,0,0,0,0,0
2,29999,98,20000,55,0,49,9999,0.100000,0,0,0.000000,5,1.000000,0.000000,6.801805,0,0,0,0,0,0,0
2,29999,99,20000,0,0,49,9999,0.100000,0,0,0.000000,5,9.000000,0.000000,37.052285,0,0,0,0,0,0,0
3,39999,0,30000,0,0,49,9999,0.100000,0,0,0.000000,5,2.000000,0.000000,3.647357,0,0,0,0,0,0,0
3,39999,1,30000,90,0,40,9999,0.100000,0,0,0.000000,5,0.000000,0.000000,0.071582,0,0,0,0,0,0,0
3,39999,2,30000,19,10000,40,9999,0.100000,0,0,0.000000,5,0.000000,0.000000,0.735650,0,0,0,0,0,0,0
3,39999,3,30000,0,0,40,9999,0.100000,0,0,0.000000,5,0.000000,0.000000,1.886444,0,0,0,0,0,0,0
3,39999,4,30000,2,10000,40,9999,0.100000,0,0,0.000000,5,0.000000,0.000000,0.216579,0,0,0,0,0,0,0
3,39999,5,30000,19,10000,40,9999,0.100000,0,0,0.000000,5,0.000000,0.000000,0.293562,0,0,0,0,0,0,0
3,39999,6,30000,90,0,40,9999,0.100000,0,0,0.000000,5,0.000000,0.000000,1.893536,0,0,0,0,0,0,0
3,39999,7,30000,55,0,40,9999,0.100000,0,0,0.000000,5,0.000000,0.000000,0.306404,0,0,0,0,0,0,0
3,39999,8,30000,0,0,40,9999,0.100000,0,0,0.000000,5,0.000000,0.000000,0.391882,0,0,0,0,0,0,0
3,39999,9,30000,2,10000,40,9999,0.100000,0,0,0.000000,5,0.000000,0.000000,1.514287,0,0,0,0,0,0,0
3,39999,10,30000,2,10000,40,9999,0.100000,0,0,0.000000,5,0.000000,0.000000,0.961251,0,0,0,0,0,0,0
3,39999,11,30000,55,0,49,9999,0.100000,0,0,0.000000,5,3.000000,0.000000,15.028262,0,0,0,0,0,0,0
3,39999,12,30000,2,10000,40,9999,0.100000,0,0,0.000000,5,0.000000,0.000000,0.163014,0,0,0,0,0,0,0
3,39999,13,30000,0,0,40,9999,0.100000,0,0,0.000000,5,0.000000,0.000000,0.467010,0,0,0,0,0,0,0
3,39999,14,30000,55,0,40,9999,0.100000,0,0,0.000000,5,0.000000,0.000000,0.069422,0,0,0,0,0,0,0
3,39999,15,30000,2,10000,40,9999,0.100000,0,0,0.000000,5,0.000000,0.000000,0.153674,0,0,0,0,0,0,0
3,39999,16,30000,0,0,49,9999,0.100000,0,0,0.000000,5,2.000000,0.000000,10.426761,0,0,0,0,0,0,0
3,39999,17,30000,90,0,40,9999,0.100000,0,0,0.000000,5,0.000000,0.000000,0.126898,0,0,0,0,0,0,0
3,39999,18,30000,90,0,40,9999,0.100000,0,0,0.000000,5,0.000000,0.000000,0.609876,0,0,0,0,0,0,0
3,39999,19,30000,0,0,40,9999,0.100000,0,0,0.000000,5,0.000000,0.000000,0.453535,0,0,0,0,0,0,0
3,39999,20,30000,0,0,40,9999,0.100000,0,0,0.000000,5,0.000000,0.000000,2.451642,0,0,0,0,0,0,0
3,39999,21,30000,55,0,40,9999,0.100000,0,0,0.000000,5,0.000000,0.000000,1.222109,0,0,0,0,0,0,0
3,39999,22,30000,0,0,40,9999,0.100000,0,0,0.000000,5,0.000000,0.000000,3.564834,0,0,0,0,0,0,0
3,39999,23,30000,55,0,40,9999,0.100000,0,0,0.000000,5,0.000000,0.000000,0.260511,0,0,0,0,0,0,0
3,39999,24,30000,2,10000,49,9999,0.100000,0,0,0.000000,5,1.000000,0.000000,6.586940,0,0,0,0,0,0,0
3,39999,25,30000,19,10000,40,9999,0.100000,0,0,0.000000,5,0.000000,0.000000,0.301867,0,0,0,0,0,0,0
3,39999,26,30000,90,0,49,9999,0.100000,0,0,0.000000,5,1.000000,0.000000,22.637790,0,0,0,0,0,0,0
3,39999,27,30000,2,10000,40,9999,0.100000,0,0,0.000000,5,0.000000,0.000000,0.525331,0,0,0,0,0,0,0
3,39999,28,30000,90,0,40,9999,0.100000,0,0,0.000000,5,0.000000,0.000000,0.124187,0,0,0,0,0,0,0
3,39999,29,30000,19,10000,40,9999,0.100000,0,0,0.000000,5,0.000000,0.000000,0.436081,0,0,0,0,0,0,0
3,39999,30,30000,2,10000,49,9999,0.100000,0,0,0.000000,5,3.000000,0.000000,13.578018,0,0,0,0,0,0,0
3,39999,31,30000,2,10000,0,9999,0.100000,0,0,0.000000,5,0.000000,0.000000,4.163627,0,0,0,0,0,0,1
3,39999,32,30000,19,10000,40,9999,0.100000,0,0,0.000000,5,0.000000,0.000000,0.807718,0,0,0,0,0,0,0
3,39999,33,30000,55,0,49,9999,0.100000,0,0,0.000000,5,1.000000,0.000000,16.895274,0,0,0,0,0,0,0
3,39999,34,30000,0,0,40,9999,0.100000,0,0,0.000000,5,0.000000,0.000000,0.162142,0,0,0,0,0,0,0
3,39999,35,30000,0,0,40,9999,0.100000,0,0,0.000000,5,0.000000,0.000000,0.083131,0,0,0,0,0,0,0
3,39999,36,30000,90,0,40,9999,0.100000,0,0,0.000000,5,0.000000,0.000000,0.092030,0,0,0,0,0,0,0
3,39999,37,30000,2,10000,40,9999,0.100000,0,0,0.000000,5,0.000000,0.000000,1.384523,0,0,0,0,0,0,0
3,39999,38,30000,19,10000,49,9999,0.100000,0,0,0.000000,5,1.000000,0.000000,2.982764,0,0,0,0,0,0,0
3,39999,39,30000,55,0,40,9999,0.100000,0,0,0.000000,5,0.000000,0.000000,1.193630,0,0,0,0,0,0,0
3,39999,40,30000,90,0,40,9999,0.100000,0,0,0.000000,5,0.000000,0.000000,0.313649,0,0,0,0,0,0,0
3,39999,41,30000,0,0,40,9999,0.100000,0,0,0.000000,5,0.000000,0.000000,0.154630,0,0,0,0,0,0,0
3,39999,42,30000,2,10000,49,9999,0.100000,0,0,0.000000,5,2.000000,0.000000,10.841559,0,0,0,0,0,0,0
3,39999,43,30000,19,10000,40,9999,0.100000,0,0,0.000000,5,0.000000,0.000000,0.169258,0,0,0,0,0,0,0
3,39999,44,30000,90,0,40,9999,0.100000,0,0,0.000000,5,0.000000,0.000000,5.292651,0,0,0,0,0,0,0
3,39999,45,30000,2,10000,40,9999,0.100000,0,0,0.000000,5,0.000000,0.000000,0.073807,0,0,0,0,0,0,0
3,39999,46,30000,55,0,40,9999,0.100000,0,0,0.000000,5,0.000000,0.000000,0.701967,0,0,0,0,0,0,0
3,39999,47,30000,2,10000,40,9999,0.100000,0,0,0.000000,5,0.000000,0.000000,8.962273,0,0,0,0,0,0,0
3,39999,48,30000,2,10000,40,9999,0.100000,0,0,0.000000,5,0.000000,0.000000,0.408332,0,0,0,0,0,0,0
3,39999,49,30000,0,0,40,9999,0.100000,0,0,0.000000,5,0.000000,0.000000,0.404581,0,0,0,0,0,0,0
3,39999,50,30000,90,0,40,9999,0.100000,0,0,0.000000,5,0.000000,0.000000,1.143030,0,0,0,0,0,0,0
3,39999,51,30000,90,20000,40,9999,0.100000,0,0,0.000000,5,0.000000,0.000000,1.380170,0,0,0,0,0,0,0
3,39999,52,30000,0,0,49,9999,0.100000,0,0,0.000000,5,3.000000,0.000000,8.045510,0,0,0,0,0,0,0
3,39999,53,30000,90,0,40,9999,0.100000,0,0,0.000000,5,0.000000,0.000000,0.083743,0,0,0,0,0,0,0
3,39999,54,30000,19,10000,49,9999,0.100000,0,0,0.000000,5,6.000000,0.000000,19.603248,0,0,0,0,0,0,0
3,39999,55,30000,19,10000,49,9999,0.100000,0,0,0.000000,5,2.000000,0.000000,16.432851,0,0,0,0,0,0,0
3,39999,56,30000,55,0,40,9999,0.100000,0,0,0.000000,5,0.000000,0.000000,0.077425,0,0,0,0,0,0,0
3,39999,57,30000,2,10000,40,9999,0.100000,0,0,0.000000,5,0.000000,0.000000,0.187905,0,0,0,0,0,0,0
3,39999,58,30000,90,0,40,9999,0.100000,0,0,0.000000,5,0.000000,0.000000,1.207533,0,0,0,0,0,0,0
3,39999,59,30000,90,0,9,9999,0.100000,0,0,0.000000,5,3.000000,0.000000,12.662438,0,0,0,0,0,0,1
3,39999,60,30000,90,20000,40,9999,0.100000,0,0,0.000000,5,0.000000,0.000000,0.175724,0,0,0,0,0,0,0
3,39999,61,30000,90,0,40,9999,0.100000,0,0,0.000000,5,0.000000,0.000000,1.735216,0,0,0,0,0,0,0
3,39999,62,30000,0,0,40,9999,0.100000,0,0,0.000000,5,0.000000,0.000000,0.210809,0,0,0,0,0,0,0
3,39999,63,30000,19,10000,40,9999,0.100000,0,0,0.000000,5,0.000000,0.000000,0.069101,0,0,0,0,0,0,0
3,39999,64,30000,2,10000,40,9999,0.100000,0,0,0.000000,5,0.000000,0.000000,0.308172,0,0,0,0,0,0,0
3,39999,65,30000,90,20000,49,9999,0.100000,0,0,0.000000,5,3.000000,0.000000,10.101517,0,0,0,0,0,0,0
3,39999,66,30000,0,0,40,9999,0.100000,0,0,0.000000,5,0.000000,0.000000,1.014860,0,0,0,0,0,0,0
3,39999,67,30000,90,0,49,9999,0.100000,0,0,0.000000,5,3.000000,0.000000,12.849622,0,0,0,0,0,0,0
3,39999,68,30000,19,10000,40,9999,0.100000,0,0,0.000000,5,0.000000,0.000000,0.420187,0,0,0,0,0,0,0
3,39999,69,30000,2,10000,49,9999,0.100000,0,0,0.000000,5,2.000000,0.000000,13.139944,0,0,0,0,0,0,0
3,39999,70,30000,2,10000,40,9999,0.100000,0,0,0.000000,5,0.000000,0.000000,1.331260,0,0,0,0,0,0,0
3,39999,71,30000,0,0,40,9999,0.100000,0,0,0.000000,5,0.000000,0.000000,0.316903,0,0,0,0,0,0,0
3,39999,72,30000,90,0,49,9999,0.100000,0,0,0.000000,5,8.000000,0.000000,18.939807,0,0,0,0,0,0,0
3,39999,73,30000,2,10000,40,9999,0.100000,0,0,0.000000,5,0.000000,0.000000,0.160056,0,0,0,0,0,0,0
3,39999,74,30000,90,0,40,9999,0.100000,0,0,0.000000,5,0.000000,0.000000,0.492787,0,0,0,0,0,0,0
3,39999,75,30000,19,10000,49,9999,0.100000,0,0,0.000000,5,7.000000,0.000000,16.075687,0,0,0,0,0,0,0
3,39999,76,30000,19,10000,40,9999,0.100000,0,0,0.000000,5,0.000000,0.000000,0.163488,0,0,0,0,0,0,0
3,39999,77,30000,2,10000,40,9999,0.100000,0,0,0.000000,5,0.000000,0.000000,0.153929,0,0,0,0,0,0,0
3,39999,78,30000,90,20000,40,9999,0.100000,0,0,0.000000,5,0.000000,0.000000,0.671600,0,0,0,0,0,0,0
3,39999,79,30000,2,10000,40,9999,0.100000,0,0,0.000000,5,0.000000,0.000000,0.078450,0,0,0,0,0,0,0
3,39999,80,30000,90,0,49,9999,0.100000,0,0,0.000000,5,1.000000,0.000000,2.048302,0,0,0,0,0,0,0
3,39999,81,30000,2,10000,40,9999,0.100000,0,0,0.000000,5,0.000000,0.000000,23.840981,0,0,0,0,0,0,0
3,39999,82,30000,2,10000,49,9999,0.100000,0,0,0.000000,5,1.000000,0.000000,6.138862,0,0,0,0,0,0,0
3,39999,83,30000,90,0,40,9999,0.100000,0,0,0.000000,5,0.000000,0.000000,0.164204,0,0,0,0,0,0,0
3,39999,84,30000,0,0,40,9999,0.100000,0,0,0.000000,5,0.000000,0.000000,0.741488,0,0,0,0,0,0,0
3,39999,85,30000,90,0,40,9999,0.100000,0,0,0.000000,5,0.000000,0.000000,1.063571,0,0,0,0,0,0,0
3,39999,86,30000,19,10000,40,9999,0.100000,0,0,0.000000,5,0.000000,0.000000,0.431691,0,0,0,0,0,0,0
3,39999,87,30000,55,0,40,9999,0.100000,0,0,0.000000,5,0.000000,0.000000,0.376260,0,0,0,0,0,0,0
3,39999,88,30000,90,0,40,9999,0.100000,0,0,0.000000,5,0.000000,0.000000,0.562598,0,0,0,0,0,0,0
3,39999,89,30000,90,20000,49,9999,0.100000,0,0,0.000000,5,4.000000,0.000000,8.937130,0,0,0,0,0,0,0
3,39999,90,30000,55,0,40,9999,0.100000,0,0,0.000000,5,0.000000,0.000000,0.113351,0,0,0,0,0,0,0
3,39999,91,30000,55,0,40,9999,0.100000,0,0,0.000000,5,0.000000,0.000000,0.193386,0,0,0,0,0,0,0
3,39999,92,30000,0,0,40,9999,0.100000,0,0,0.000000,5,0.000000,0.000000,0.374905,0,0,0,0,0,0,0
3,39999,93,30000,2,10000,9,9999,0.100000,0,0,0.000000,5,6.000000,0.000000,18.899821,0,0,0,0,0,0,1
3,39999,94,30000,2,10000,40,9999,0.100000,0,0,0.000000,5,0.000000,0.000000,0.398842,0,0,0,0,0,0,0
3,39999,95,30000,90,20000,40,9999,0.100000,0,0,0.000000,5,0.000000,0.000000,1.037960,0,0,0,0,0,0,0
3,39999,96,30000,0,0,40,9999,0.100000,0,0,0.000000,5,0.000000,0.000000,0.361591,0,0,0,0,0,0,0
3,39999,97,30000,0,0,49,9999,0.100000,0,0,0.000000,5,4.000000,0.000000,9.524960,0,0,0,0,0,0,0
3,39999,98,30000,0,0,49,9999,0.100000,0,0,0.000000,5,2.000000,0.000000,8.772403,0,0,0,0,0,0,0
3,39999,99,30000,55,0,49,9999,0.100000,0,0,0.000000,5,9.000000,0.000000,37.051511,0,0,0,0,0,0,0
4,49999,0,40000,0,0,40,9999,0.100000,0,0,0.000000,5,0.000000,0.000000,0.586823,0,0,0,0,0,0,0
4,49999,1,40000,90,20000,40,9999,0.100000,0,0,0.000000,5,0.000000,0.000000,0.070995,0,0,0,0,0,0,0
4,49999,2,40000,90,20000,40,9999,0.100000,0,0,0.000000,5,0.000000,0.000000,0.756833,0,0,0,0,0,0,0
4,49999,3,40000,0,0,40,9999,0.100000,0,0,0.000000,5,0.000000,0.000000,1.034405,0,0,0,0,0,0,0
4,49999,4,40000,90,20000,40,9999,0.100000,0,0,0.000000,5,0.000000,0.000000,0.219905,0,0,0,0,0,0,0
4,49999,5,40000,90,0,40,9999,0.100000,0,0,0.000000,5,0.000000,0.000000,0.411442,0,0,0,0,0,0,0
4,49999,6,40000,90,0,40,9999,0.100000,0,0,0.000000,5,0.000000,0.000000,1.290986,0,0,0,0,0,0,0
4,49999,7,40000,55,0,40,9999,0.100000,0,0,0.000000,5,0.000000,0.000000,0.676670,0,0,0,0,0,0,0
4,49999,8,40000,90,20000,40,9999,0.100000,0,0,0.000000,5,0.000000,0.000000,0.272428,0,0,0,0,0,0,0
4,49999,9,40000,0,0,40,9999,0.100000,0,0,0.000000,5,0.000000,0.000000,0.682605,0,0,0,0,0,0,0
4,49999,10,40000,0,0,40,9999,0.100000,0,0,0.000000,5,0.000000,0.000000,0.084202,0,0,0,0,0,0,0
4,49999,11,40000,2,10000,49,9999,0.100000,0,0,0.000000,5,1.000000,0.000000,14.057534,0,0,0,0,0,0,0
4,49999,12,40000,2,10000,40,9999,0.100000,0,0,0.000000,5,0.000000,0.000000,0.165808,0,0,0,0,0,0,0
4,49999,13,40000,2,10000,40,9999,0.100000,0,0,0.000000,5,0.000000,0.000000,2.241033,0,0,0,0,0,0,0
4,49999,14,40000,55,0,40,9999,0.100000,0,0,0.000000,5,0.000000,0.000000,0.069002,0,0,0,0,0,0,0
4,49999,15,40000,90,20000,40,9999,0.100000,0,0,0.000000,5,0.000000,0.000000,0.150461,0,0,0,0,0,0,0
4,49999,16,40000,2,10000,40,9999,0.065000,0,0,0.000000,5,0.000000,0.000000,3.396797,0,0,0,0,0,0,0
4,49999,17,40000,2,10000,40,9999,0.100000,0,0,0.000000,5,0.000000,0.000000,0.125671,0,0,0,0,0,0,0
4,49999,18,40000,90,20000,40,9999,0.100000,0,0,0.000000,5,0.000000,0.000000,0.924628,0,0,0,0,0,0,0
4,49999,19,40000,55,0,40,9999,0.100000,0,0,0.000000,5,0.000000,0.000000,0.435100,0,0,0,0,0,0,0
4,49999,20,40000,90,0,40,9999,0.100000,0,0,0.000000,5,0.000000,0.000000,2.792298,0,0,0,0,0,0,0
4,49999,21,40000,0,0,40,9999,0.100000,0,0,0.000000,5,0.000000,0.000000,0.518616,0,0,0,0,0,0,0
4,49999,22,40000,55,0,40,9999,0.100000,0,0,0.000000,5,0.000000,0.000000,3.766475,0,0,0,0,0,0,0
4,49999,23,40000,0,0,40,9999,0.100000,0,0,0.000000,5,0.000000,0.000000,0.603224,0,0,0,0,0,0,0
4,49999,24,40000,0,0,49,9999,0.100000,0,0,0.000000,5,1.000000,0.000000,6.362219,0,0,0,0,0,0,0
4,49999,25,40000,55,0,40,9999,0.100000,0,0,0.000000,5,0.000000,0.000000,0.561662,0,0,0,0,0,0,0
4,49999,26,40000,2,10000,49,9999,0.135000,0,0,0.000000,5,1.000000,0.000000,21.826387,0,0,0,0,0,0,0
4,49999,27,40000,2,10000,40,9999,0.100000,0,0,0.000000,5,0.000000,0.000000,0.635229,0,0,0,0,0,0,0
4,49999,28,40000,0,0,40,9999,0.100000,0,0,0.000000,5,0.000000,0.000000,0.122156,0,0,0,0,0,0,0
4,49999,29,40000,2,10000,49,9999,0.100000,0,0,0.000000,5,1.000000,0.000000,1.702560,0,0,0,0,0,0,0
4,49999,30,40000,90,20000,40,9999,0.100000,0,0,0.000000,5,0.000000,0.000000,10.224632,0,0,0,0,0,0,0
4,49999,31,40000,2,10000,40,9999,0.100000,0,0,0.000000,5,0.000000,0.000000,5.506390,0,0,0,0,0,0,0
4,49999,32,40000,0,0,40,9999,0.100000,0,0,0.000000,5,0.000000,0.000000,0.236483,0,0,0,0,0,0,0
4,49999,33,40000,2,10000,49,9999,0.100000,0,0,0.000000,5,1.000000,0.000000,8.926406,0,0,0,0,0,0,0
4,49999,34,40000,90,20000,40,9999,0.100000,0,0,0.000000,5,0.000000,0.000000,0.121565,0,0,0,0,0,0,0
4,49999,35,40000,0,0,40,9999,0.100000,0,0,0.000000,5,0.000000,0.000000,0.084359,0,0,0,0,0,0,0
4,49999,36,40000,90,0,49,9999,0.100000,0,0,0.000000,5,7.000000,0.000000,14.250204,0,0,0,0,0,0,0
4,49999,37,40000,55,0,40,9999,0.100000,0,0,0.000000,5,0.000000,0.000000,0.518048,0,0,0,0,0,0,0
4,49999,38,40000,0,0,49,9999,0.100000,0,0,0.000000,5,1.000000,0.000000,1.940121,0,0,0,0,0,0,0
4,49999,39,40000,90,20000,40,9999,0.100000,0,0,0.000000,5,0.000000,0.000000,0.427449,0,0,0,0,0,0,0
4,49999,40,40000,55,0,40,9999,0.100000,0,0,0.000000,5,0.000000,0.000000,1.126811,0,0,0,0,0,0,0
4,49999,41,40000,2,10000,49,9999,0.100000,0,0,0.000000,5,1.000000,0.000000,1.552362,0,0,0,0,0,0,0
4,49999,42,40000,90,0,49,9999,0.100000,0,0,0.000000,5,2.000000,0.000000,8.289731,0,0,0,0,0,0,0
4,49999,43,40000,55,0,40,9999,0.100000,0,0,0.000000,5,0.000000,0.000000,0.228709,0,0,0,0,0,0,0
4,49999,44,40000,90,20000,40,9999,0.100000,0,0,0.000000,5,0.000000,0.000000,0.345002,0,0,0,0,0,0,0
4,49999,45,40000,0,0,40,9999,0.100000,0,0,0.000000,5,0.000000,0.000000,0.072259,0,0,0,0,0,0,0
4,49999,46,40000,90,0,40,9999,0.100000,0,0,0.000000,5,0.000000,0.000000,0.183326,0,0,0,0,0,0,0
4,49999,47,40000,2,10000,40,9999,0.100000,0,0,0.000000,5,0.000000,0.000000,4.503311,0,0,0,0,0,0,0
4,49999,48,40000,90,20000,40,9999,0.100000,0,0,0.000000,5,0.000000,0.000000,0.398403,0,0,0,0,0,0,0
4,49999,49,40000,90,0,40,9999,0.100000,0,0,0.000000,5,0.000000,0.000000,0.526402,0,0,0,0,0,0,0
4,49999,50,40000,0,0,40,9999,0.100000,0,0,0.000000,5,0.000000,0.000000,0.678564,0,0,0,0,0,0,0
4,49999,51,40000,0,0,40,9999,0.100000,0,0,0.000000,5,0.000000,0.000000,0.600073,0,0,0,0,0,0,0
4,49999,52,40000,0,0,49,9999,0.100000,0,0,0.000000,5,2.000000,0.000000,2.862400,0,0,0,0,0,0,0
4,49999,53,40000,55,0,40,9999,0.100000,0,0,0.000000,5,0.000000,0.000000,0.083128,0,0,0,0,0,0,0
4,49999,54,40000,0,0,40,9999,0.100000,0,0,0.000000,5,0.000000,0.000000,0.656496,0,0,0,0,0,0,0
4,49999,55,40000,55,0,49,9999,0.100000,0,0,0.000000,5,1.000000,0.000000,14.696344,0,0,0,0,0,0,0
4,49999,56,40000,55,0,40,9999,0.100000,0,0,0.000000,5,0.000000,0.000000,0.077808,0,0,0,0,0,0,0
4,49999,57,40000,2,10000,49,9999,0.100000,0,0,0.000000,5,3.000000,0.000000,7.417056,0,0,0,0,0,0,0
4,49999,58,40000,90,0,40,9999,0.100000,0,0,0.000000,5,0.000000,0.000000,0.603190,0,0,0,0,0,0,0
4,49999,59,40000,55,0,49,9999,0.100000,0,0,0.000000,5,2.000000,0.000000,5.966867,0,0,0,0,0,0,0
4,49999,60,40000,55,0,40,9999,0.100000,0,0,0.000000,5,0.000000,0.000000,0.167021,0,0,0,0,0,0,0
4,49999,61,40000,0,0,40,9999,0.100000,0,0,0.000000,5,0.000000,0.000000,2.884224,0,0,0,0,0,0,0
4,49999,62,40000,55,0,40,9999,0.100000,0,0,0.000000,5,0.000000,0.000000,0.161157,0,0,0,0,0,0,0
4,49999,63,40000,0,0,40,9999,0.100000,0,0,0.000000,5,0.000000,0.000000,0.069854,0,0,0,0,0,0,0
4,49999,64,40000,55,0,49,9999,0.100000,0,0,0.000000,5,3.000000,0.000000,6.727336,0,0,0,0,0,0,0
4,49999,65,40000,0,0,40,9999,0.100000,0,0,0.000000,5,0.000000,0.000000,0.897285,0,0,0,0,0,0,0
4,49999,66,40000,0,0,40,9999,0.100000,0,0,0.000000,5,0.000000,0.000000,0.913819,0,0,0,0,0,0,0
4,49999,67,40000,2,10000,40,9999,0.100000,0,0,0.000000,5,0.000000,0.000000,0.311071,0,0,0,0,0,0,0
4,49999,68,40000,90,0,40,9999,0.100000,0,0,0.000000,5,0.000000,0.000000,0.485598,0,0,0,0,0,0,0
4,49999,69,40000,0,0,49,9999,0.100000,0,0,0.000000,5,1.000000,0.000000,12.428708,0,0,0,0,0,0,0
4,49999,70,40000,2,10000,40,9999,0.100000,0,0,0.000000,5,0.000000,0.000000,0.750742,0,0,0,0,0,0,0
4,49999,71,40000,55,0,40,9999,0.100000,0,0,0.000000,5,0.000000,0.000000,0.750545,0,0,0,0,0,0,0
4,49999,72,40000,90,0,49,9999,0.100000,0,0,0.000000,5,7.000000,0.000000,9.207411,0,0,0,0,0,0,0
4,49999,73,40000,2,10000,49,9999,0.100000,0,0,0.000000,5,7.000000,0.000000,15.654406,0,0,0,0,0,0,0
4,49999,74,40000,55,0,40,9999,0.100000,0,0,0.000000,5,0.000000,0.000000,1.084507,0,0,0,0,0,0,0
4,49999,75,40000,0,0,40,9999,0.100000,0,0,0.000000,5,0.000000,0.000000,0.324165,0,0,0,0,0,0,0
4,49999,76,40000,55,0,40,9999,0.100000,0,0,0.000000,5,0.000000,0.000000,0.165082,0,0,0,0,0,0,0
4,49999,77,40000,55,0,40,9999,0.100000,0,0,0.000000,5,0.000000,0.000000,0.390110,0,0,0,0,0,0,0
4,49999,78,40000,55,0,40,9999,0.100000,0,0,0.000000,5,0.000000,0.000000,5.744537,0,0,0,0,0,0,0
4,49999,79,40000,90,0,40,9999,0.100000,0,0,0.000000,5,0.000000,0.000000,0.077985,0,0,0,0,0,0,0
4,49999,80,40000,0,0,40,9999,0.100000,0,0,0.000000,5,0.000000,0.000000,0.700901,0,0,0,0,0,0,0
4,49999,81,40000,0,0,40,9999,0.100000,0,0,0.000000,5,0.000000,0.000000,23.929005,0,0,0,0,0,0,0
4,49999,82,40000,90,0,40,9999,0.100000,0,0,0.000000,5,0.000000,0.000000,0.568097,0,0,0,0,0,0,0
4,49999,83,40000,90,0,40,9999,0.100000,0,0,0.000000,5,0.000000,0.000000,0.164035,0,0,0,0,0,0,0
4,49999,84,40000,0,0,49,9999,0.100000,0,0,0.000000,5,6.000000,0.000000,14.850704,0,0,0,0,0,0,0
4,49999,85,40000,90,20000,40,9999,0.100000,0,0,0.000000,5,0.000000,0.000000,0.626477,0,0,0,0,0,0,0
4,49999,86,40000,90,20000,49,9999,0.100000,0,0,0.000000,5,1.000000,0.000000,5.358286,0,0,0,0,0,0,0
4,49999,87,40000,55,0,49,9999,0.100000,0,0,0.000000,5,1.000000,0.000000,3.492575,0,0,0,0,0,0,0
4,49999,88,40000,90,0,40,9999,0.100000,0,0,0.000000,5,0.000000,0.000000,0.505896,0,0,0,0,0,0,0
4,49999,89,40000,2,10000,49,9999,0.100000,0,0,0.000000,5,4.000000,0.000000,17.223048,0,0,0,0,0,0,0
4,49999,90,40000,90,0,40,9999,0.100000,0,0,0.000000,5,0.000000,0.000000,0.113224,0,0,0,0,0,0,0
4,49999,91,40000,0,0,40,9999,0.100000,0,0,0.000000,5,0.000000,0.000000,0.197759,0,0,0,0,0,0,0
4,49999,92,40000,0,0,40,9999,0.100000,0,0,0.000000,5,0.000000,0.000000,0.358405,0,0,0,0,0,0,0
4,49999,93,40000,90,20000,40,9999,0.100000,0,0,0.000000,5,0.000000,0.000000,1.316972,0,0,0,0,0,0,0
4,49999,94,40000,55,0,40,9999,0.100000,0,0,0.000000,5,0.000000,0.000000,0.615708,0,0,0,0,0,0,0
4,49999,95,40000,2,10000,49,9999,0.100000,0,0,0.000000,5,1.000000,0.000000,3.917313,0,0,0,0,0,0,0
4,49999,96,40000,0,0,40,9999,0.100000,0,0,0.000000,5,0.000000,0.000000,0.348253,0,0,0,0,0,0,0
4,49999,97,40000,0,0,40,9999,0.100000,0,0,0.000000,5,0.000000,0.000000,0.385057,0,0,0,0,0,0,0
4,49999,98,40000,0,0,40,9999,0.100000,0,0,0.000000,5,0.000000,0.000000,8.156121,0,0,0,0,0,0,0
4,49999,99,40000,90,0,49,9999,0.100000,0,0,0.000000,5,6.000000,0.000000,13.235670,0,0,0,0,0,0,0
5,59999,0,50000,2,10000,40,9999,0.100000,0,0,0.000000,5,0.000000,0.000000,0.692021,0,0,0,0,0,0,0
5,59999,1,50000,90,20000,40,9999,0.100000,0,0,0.000000,5,0.000000,0.000000,0.070232,0,0,0,0,0,0,0
5,59999,2,50000,2,10000,40,9999,0.100000,0,0,0.000000,5,0.000000,0.000000,2.495881,0,0,0,0,0,0,0
5,59999,3,50000,2,10000,40,9999,0.100000,0,0,0.000000,5,0.000000,0.000000,1.684464,0,0,0,0,0,0,0
5,59999,4,50000,0,0,40,9999,0.100000,0,0,0.000000,5,0.000000,0.000000,0.226864,0,0,0,0,0,0,0
5,59999,5,50000,55,0,40,9999,0.100000,0,0,0.000000,5,0.000000,0.000000,0.443290,0,0,0,0,0,0,0
5,59999,6,50000,55,0,40,9999,0.100000,0,0,0.000000,5,0.000000,0.000000,1.701295,0,0,0,0,0,0,0
5,59999,7,50000,0,0,40,9999,0.100000,0,0,0.000000,5,0.000000,0.000000,0.301039,0,0,0,0,0,0,0
5,59999,8,50000,2,10000,49,9999,0.100000,0,0,0.000000,5,1.000000,0.000000,3.410239,0,0,0,0,0,0,0
5,59999,9,50000,90,20000,40,9999,0.100000,0,0,0.000000,5,0.000000,0.000000,0.577831,0,0,0,0,0,0,0
5,59999,10,50000,90,20000,40,9999,0.100000,0,0,0.000000,5,0.000000,0.000000,0.083776,0,0,0,0,0,0,0
5,59999,11,50000,90,0,49,9999,0.100000,0,0,0.000000,5,1.000000,0.000000,18.071875,0,0,0,0,0,0,0
5,59999,12,50000,55,0,40,9999,0.100000,0,0,0.000000,5,0.000000,0.000000,0.164239,0,0,0,0,0,0,0
5,59999,13,50000,2,10000,40,9999,0.100000,0,0,0.000000,5,0.000000,0.000000,0.167052,0,0,0,0,0,0,0
5,59999,14,50000,90,0,40,9999,0.100000,0,0,0.000000,5,0.000000,0.000000,0.070189,0,0,0,0,0,0,0
5,59999,15,50000,90,20000,40,9999,0.100000,0,0,0.000000,5,0.000000,0.000000,0.151064,0,0,0,0,0,0,0
5,59999,16,50000,55,0,49,9999,0.100000,0,0,0.000000,5,1.000000,0.000000,3.292483,0,0,0,0,0,0,0
5,59999,17,50000,90,0,40,9999,0.100000,0,0,0.000000,5,0.000000,0.000000,0.118151,0,0,0,0,0,0,0
5,59999,18,50000,90,20000,40,9999,0.100000,0,0,0.000000,5,0.000000,0.000000,0.752653,0,0,0,0,0,0,0
5,59999,19,50000,0,0,40,9999,0.100000,0,0,0.000000,5,0.000000,0.000000,0.393211,0,0,0,0,0,0,0
5,59999,20,50000,55,0,40,9999,0.100000,0,0,0.000000,5,0.000000,0.000000,4.128916,0,0,0,0,0,0,0
5,59999,21,50000,0,0,40,9999,0.100000,0,0,0.000000,5,0.000000,0.000000,0.501242,0,0,0,0,0,0,0
5,59999,22,50000,90,0,40,9999,0.100000,0,0,0.000000,5,0.000000,0.000000,1.756530,0,0,0,0,0,0,0
5,59999,23,50000,0,0,40,9999,0.100000,0,0,0.000000,5,0.000000,0.000000,0.242925,0,0,0,0,0,0,0
5,59999,24,50000,55,0,49,9999,0.100000,0,0,0.000000,5,1.000000,0.000000,6.530086,0,0,0,0,0,0,0
5,59999,25,50000,0,0,40,9999,0.100000,0,0,0.000000,5,0.000000,0.000000,0.468429,0,0,0,0,0,0,0
5,59999,26,50000,2,10000,49,9999,0.100000,0,0,0.000000,5,1.000000,0.000000,27.363954,0,0,0,0,0,0,0
5,59999,27,50000,2,10000,40,9999,0.100000,0,0,0.000000,5,0.000000,0.000000,0.878168,0,0,0,0,0,0,0
5,59999,28,50000,90,0,40,9999,0.100000,0,0,0.000000,5,0.000000,0.000000,0.123657,0,0,0,0,0,0,0
5,59999,29,50000,90,0,40,9999,0.100000,0,0,0.000000,5,0.000000,0.000000,0.442114,0,0,0,0,0,0,0
5,59999,30,50000,2,10000,49,9999,0.100000,0,0,0.000000,5,1.000000,0.000000,17.685575,0,0,0,0,0,0,0
5,59999,31,50000,2,10000,49,9999,0.100000,0,0,0.000000,5,3.000000,0.000000,7.207406,0,0,0,0,0,0,0
5,59999,32,50000,0,0,40,9999,0.100000,0,0,0.000000,5,0.000000,0.000000,0.215573,0,0,0,0,0,0,0
5,59999,33,50000,2,10000,40,9999,0.100000,0,0,0.000000,5,0.000000,0.000000,14.754667,0,0,0,0,0,0,0
5,59999,34,40000,90,20000,40,19999,0.100000,0,0,0.000000,5,0.000000,0.000000,0.361484,0,0,0,0,0,0,0
5,59999,35,50000,55,0,40,9999,0.100000,0,0,0.000000,5,0.000000,0.000000,0.084569,0,0,0,0,0,0,0
5,59999,36,50000,0,0,40,9999,0.100000,0,0,0.000000,5,0.000000,0.000000,0.087963,0,0,0,0,0,0,0
5,59999,37,50000,90,20000,40,9999,0.100000,0,0,0.000000,5,0.000000,0.000000,0.708561,0,0,0,0,0,0,0
5,59999,38,50000,55,0,40,9999,0.100000,0,0,0.000000,5,0.000000,0.000000,0.393954,0,0,0,0,0,0,0
5,59999,39,50000,90,20000,40,9999,0.100000,0,0,0.000000,5,0.000000,0.000000,0.815589,0,0,0,0,0,0,0
5,59999,40,50000,0,0,40,9999,0.100000,0,0,0.000000,5,0.000000,0.000000,0.780304,0,0,0,0,0,0,0
5,59999,41,50000,90,0,40,9999,0.100000,0,0,0.000000,5,0.000000,0.000000,0.372963,0,0,0,0,0,0,0
5,59999,42,50000,0,0,40,9999,0.100000,0,0,0.000000,5,0.000000,0.000000,0.156463,0,0,0,0,0,0,0
5,59999,43,50000,55,0,40,9999,0.100000,0,0,0.000000,5,0.000000,0.000000,0.318387,0,0,0,0,0,0,0
5,59999,44,50000,2,10000,40,9999,0.100000,0,0,0.000000,5,0.000000,0.000000,0.290709,0,0,0,0,0,0,0
5,59999,45,50000,90,0,40,9999,0.100000,0,0,0.000000,5,0.000000,0.000000,0.171780,0,0,0,0,0,0,0
5,59999,46,50000,2,10000,40,9999,0.100000,0,0,0.000000,5,0.000000,0.000000,0.088319,0,0,0,0,0,0,0
5,59999,47,50000,55,0,49,9999,0.100000,0,0,0.000000,5,5.000000,0.000000,10.526740,0,0,0,0,0,0,0
5,59999,48,50000,90,20000,40,9999,0.100000,0,0,0.000000,5,0.000000,0.000000,0.419968,0,0,0,0,0,0,0
5,59999,49,50000,2,10000,40,9999,0.100000,0,0,0.000000,5,0.000000,0.000000,0.653749,0,0,0,0,0,0,0
5,59999,50,50000,90,0,40,9999,0.065000,0,0,0.000000,5,0.000000,0.000000,0.783868,0,0,0,0,0,0,0
5,59999,51,50000,0,0,40,9999,0.100000,0,0,0.000000,5,0.000000,0.000000,0.555144,0,0,0,0,0,0,0
5,59999,52,50000,0,0,40,9999,0.100000,0,0,0.000000,5,0.000000,0.000000,1.319811,0,0,0,0,0,0,0
5,59999,53,50000,90,20000,40,9999,0.100000,0,0,0.000000,5,0.000000,0.000000,0.094146,0,0,0,0,0,0,0
5,59999,54,50000,90,20000,40,9999,0.100000,0,0,0.000000,5,0.000000,0.000000,0.644850,0,0,0,0,0,0,0
5,59999,55,50000,2,10000,49,9999,0.100000,0,0,0.000000,5,1.000000,0.000000,14.064264,0,0,0,0,0,0,0
5,59999,56,50000,2,10000,40,9999,0.100000,0,0,0.000000,5,0.000000,0.000000,0.254021,0,0,0,0,0,0,0
5,59999,57,50000,0,0,49,9999,0.100000,0,0,0.000000,5,3.000000,0.000000,7.705652,0,0,0,0,0,0,0
5,59999,58,50000,0,0,40,9999,0.100000,0,0,0.000000,5,0.000000,0.000000,0.558695,0,0,0,0,0,0,0
5,59999,59,50000,2,10000,40,9999,0.100000,0,0,0.000000,5,0.000000,0.000000,6.705066,0,0,0,0,0,0,0
5,59999,60,50000,0,0,40,9999,0.100000,0,0,0.000000,5,0.000000,0.000000,0.162774,0,0,0,0,0,0,0
5,59999,61,50000,90,20000,40,9999,0.100000,0,0,0.000000,5,0.000000,0.000000,1.698300,0,0,0,0,0,0,0
5,59999,62,50000,0,0,40,9999,0.100000,0,0,0.000000,5,0.000000,0.000000,0.157073,0,0,0,0,0,0,0
5,59999,63,50000,0,0,40,9999,0.100000,0,0,0.000000,5,0.000000,0.000000,0.331330,0,0,0,0,0,0,0
5,59999,64,50000,55,0,40,9999,0.100000,0,0,0.000000,5,0.000000,0.000000,0.069130,0,0,0,0,0,0,0
5,59999,65,50000,55,0,49,9999,0.100000,0,0,0.000000,5,1.000000,0.000000,2.637845,0,0,0,0,0,0,0
5,59999,66,50000,2,10000,40,9999,0.100000,0,0,0.000000,5,0.000000,0.000000,0.833946,0,0,0,0,0,0,0
5,59999,67,50000,2,10000,40,9999,0.100000,0,0,0.000000,5,0.000000,0.000000,0.262790,0,0,0,0,0,0,0
5,59999,68,50000,0,0,40,9999,0.100000,0,0,0.000000,5,0.000000,0.000000,0.456193,0,0,0,0,0,0,0
5,59999,69,50000,90,0,40,9999,0.100000,0,0,0.000000,5,0.000000,0.000000,17.352754,0,0,0,0,0,0,0
5,59999,70,50000,55,0,40,9999,0.100000,0,0,0.000000,5,0.000000,0.000000,1.019135,0,0,0,0,0,0,0
5,59999,71,50000,2,10000,49,9999,0.100000,0,0,0.000000,5,8.000000,0.000000,18.878642,0,0,0,0,0,0,0
5,59999,72,50000,55,0,40,9999,0.100000,0,0,0.000000,5,0.000000,0.000000,0.283098,0,0,0,0,0,0,0
5,59999,73,50000,55,0,49,9999,0.100000,0,0,0.000000,5,7.000000,0.000000,15.642103,0,0,0,0,0,0,0
5,59999,74,50000,55,0,40,9999,0.100000,0,0,0.000000,5,0.000000,0.000000,1.572239,0,0,0,0,0,0,0
5,59999,75,50000,2,10000,40,9999,0.100000,0,0,0.000000,5,0.000000,0.000000,0.314352,0,0,0,0,0,0,0
5,59999,76,50000,90,0,40,9999,0.100000,0,0,0.000000,5,0.000000,0.000000,0.163859,0,0,0,0,0,0,0
5,59999,77,50000,90,0,40,9999,0.100000,0,0,0.000000,5,0.000000,0.000000,1.058888,0,0,0,0,0,0,0
5,59999,78,50000,0,0,40,9999,0.100000,0,0,0.000000,5,0.000000,0.000000,2.741313,0,0,0,0,0,0,0
5,59999,79,50000,90,20000,40,9999,0.100000,0,0,0.000000,5,0.000000,0.000000,0.076546,0,0,0,0,0,0,0
5,59999,80,50000,55,0,40,9999,0.100000,0,0,0.000000,5,0.000000,0.000000,0.675543,0,0,0,0,0,0,0
5,59999,81,50000,90,20000,40,9999,0.100000,0,0,0.000000,5,0.000000,0.000000,15.577429,0,0,0,0,0,0,0
5,59999,82,50000,2,10000,40,9999,0.100000,0,0,0.000000,5,0.000000,0.000000,0.687783,0,0,0,0,0,0,0
5,59999,83,50000,0,0,40,9999,0.100000,0,0,0.000000,5,0.000000,0.000000,0.158954,0,0,0,0,0,0,0
5,59999,84,50000,55,0,49,9999,0.100000,0,0,0.000000,5,1.000000,0.000000,1.124424,0,0,0,0,0,0,0
5,59999,85,50000,90,20000,40,9999,0.100000,0,0,0.000000,5,0.000000,0.000000,0.746564,0,0,0,0,0,0,0
5,59999,86,50000,55,0,40,9999,0.100000,0,0,0.000000,5,0.000000,0.000000,0.657498,0,0,0,0,0,0,0
5,59999,87,50000,55,0,40,9999,0.100000,0,0,0.000000,5,0.000000,0.000000,0.316160,0,0,0,0,0,0,0
5,59999,88,50000,90,20000,40,9999,0.100000,0,0,0.000000,5,0.000000,0.000000,0.346574,0,0,0,0,0,0,0
5,59999,89,50000,55,0,49,9999,0.100000,0,0,0.000000,5,3.000000,0.000000,8.595668,0,0,0,0,0,0,0
5,59999,90,50000,90,20000,40,9999,0.100000,0,0,0.000000,5,0.000000,0.000000,0.114104,0,0,0,0,0,0,0
5,59999,91,50000,90,20000,40,9999,0.100000,0,0,0.000000,5,0.000000,0.000000,0.194972,0,0,0,0,0,0,0
5,59999,92,50000,0,0,40,9999,0.100000,0,0,0.000000,5,0.000000,0.000000,0.351081,0,0,0,0,0,0,0
5,59999,93,50000,55,0,40,9999,0.100000,0,0,0.000000,5,0.000000,0.000000,1.250979,0,0,0,0,0,0,0
5,59999,94,50000,2,10000,40,9999,0.100000,0,0,0.000000,5,0.000000,0.000000,0.294959,0,0,0,0,0,0,0
5,59999,95,50000,0,0,40,9999,0.100000,0,0,0.000000,5,0.000000,0.000000,0.387101,0,0,0,0,0,0,0
5,59999,96,50000,55,0,40,9999,0.100000,0,0,0.000000,5,0.000000,0.000000,0.342969,0,0,0,0,0,0,0
5,59999,97,50000,2,10000,49,9999,0.100000,0,0,0.000000,5,4.000000,0.000000,9.296087,0,0,0,0,0,0,0
5,59999,98,50000,0,0,40,9999,0.100000,0,0,0.000000,5,0.000000,0.000000,7.428884,0,0,0,0,0,0,0
5,59999,99,50000,0,0,49,9999,0.100000,0,0,0.000000,5,9.000000,0.000000,68.798354,0,0,0,0,0,0,0
6,69999,0,60000,90,20000,49,9999,0.100000,0,0,0.000000,5,1.000000,0.000000,1.342549,0,0,0,0,0,0,0
6,69999,1,60000,2,10000,40,9999,0.100000,0,0,0.000000,5,0.000000,0.000000,0.069779,0,0,0,0,0,0,0
6,69999,2,60000,55,0,40,9999,0.100000,0,0,0.000000,5,0.000000,0.000000,0.705977,0,0,0,0,0,0,0
6,69999,3,60000,2,10000,40,9999,0.100000,0,0,0.000000,5,0.000000,0.000000,1.147696,0,0,0,0,0,0,0
6,69999,4,60000,90,0,40,9999,0.100000,0,0,0.000000,5,0.000000,0.000000,0.229905,0,0,0,0,0,0,0
6,69999,5,60000,90,20000,40,9999,0.100000,0,0,0.000000,5,0.000000,0.000000,0.972641,0,0,0,0,0,0,0
6,69999,6,60000,90,0,40,9999,0.100000,0,0,0.000000,5,0.000000,0.000000,1.944841,0,0,0,0,0,0,0
6,69999,7,60000,0,0,40,9999,0.100000,0,0,0.000000,5,0.000000,0.000000,0.148261,0,0,0,0,0,0,0
6,69999,8,60000,0,0,40,9999,0.100000,0,0,0.000000,5,0.000000,0.000000,0.280855,0,0,0,0,0,0,0
6,69999,9,50000,90,20000,49,19999,0.100000,0,0,0.000000,5,1.000000,0.000000,3.371592,0,0,0,0,0,0,0
6,69999,10,60000,90,0,40,9999,0.100000,0,0,0.000000,5,0.000000,0.000000,0.085783,0,0,0,0,0,0,0
6,69999,11,60000,55,0,49,9999,0.100000,0,0,0.000000,5,2.000000,0.000000,17.425657,0,0,0,0,0,0,0
6,69999,12,60000,90,20000,40,9999,0.100000,0,0,0.000000,5,0.000000,0.000000,0.166187,0,0,0,0,0,0,0
6,69999,13,60000,0,0,40,9999,0.100000,0,0,0.000000,5,0.000000,0.000000,0.163816,0,0,0,0,0,0,0
6,69999,14,60000,90,0,40,9999,0.100000,0,0,0.000000,5,0.000000,0.000000,0.072074,0,0,0,0,0,0,0
6,69999,15,60000,0,0,40,9999,0.100000,0,0,0.000000,5,0.000000,0.000000,0.152958,0,0,0,0,0,0,0
6,69999,16,60000,2,10000,40,9999,0.100000,0,0,0.000000,5,0.000000,0.000000,0.644950,0,0,0,0,0,0,0
6,69999,17,60000,0,0,40,9999,0.100000,0,0,0.000000,5,0.000000,0.000000,0.125349,0,0,0,0,0,0,0
6,69999,18,50000,90,20000,40,19999,0.100000,0,0,0.000000,5,0.000000,0.000000,0.614133,0,0,0,0,0,0,0
6,69999,19,60000,55,0,49,9999,0.100000,0,0,0.000000,5,8.000000,0.000000,17.263755,0,0,0,0,0,0,0
6,69999,20,60000,0,0,40,9999,0.100000,0,0,0.000000,5,0.000000,0.000000,6.739777,0,0,0,0,0,0,0
6,69999,21,60000,90,20000,40,9999,0.100000,0,0,0.000000,5,0.000000,0.000000,0.481091,0,0,0,0,0,0,0
6,69999,22,60000,0,0,40,9999,0.100000,0,0,0.000000,5,0.000000,0.000000,0.284791,0,0,0,0,0,0,0
6,69999,23,60000,90,0,40,9999,0.100000,0,0,0.000000,5,0.000000,0.000000,0.186708,0,0,0,0,0,0,0
6,69999,24,60000,90,0,49,9999,0.100000,0,0,0.000000,5,1.000000,0.000000,10.897391,0,0,0,0,0,0,0
6,69999,25,60000,90,20000,40,9999,0.100000,0,0,0.000000,5,0.000000,0.000000,0.304614,0,0,0,0,0,0,0
6,69999,26,60000,90,0,49,9999,0.100000,0,0,0.000000,5,1.000000,0.000000,24.802174,0,0,0,0,0,0,0
6,69999,27,60000,2,10000,40,9999,0.100000,0,0,0.000000,5,0.000000,0.000000,0.900951,0,0,0,0,0,0,0
6,69999,28,60000,0,0,40,9999,0.100000,0,0,0.000000,5,0.000000,0.000000,0.121303,0,0,0,0,0,0,0
6,69999,29,60000,90,20000,40,9999,0.100000,0,0,0.000000,5,0.000000,0.000000,0.101251,0,0,0,0,0,0,0
6,69999,30,60000,0,0,40,9999,0.100000,0,0,0.000000,5,0.000000,0.000000,15.045987,0,0,0,0,0,0,0
6,69999,31,60000,2,10000,40,9999,0.100000,0,0,0.000000,5,0.000000,0.000000,1.301436,0,0,0,0,0,0,0
6,69999,32,60000,2,10000,40,9999,0.100000,0,0,0.000000,5,0.000000,0.000000,0.196048,0,0,0,0,0,0,0
6,69999,33,60000,90,20000,49,9999,0.100000,0,0,0.000000,5,1.000000,0.000000,14.294631,0,0,0,0,0,0,0
6,69999,34,60000,90,0,40,9999,0.100000,0,0,0.000000,5,0.000000,0.000000,0.290634,0,0,0,0,0,0,0
6,69999,35,60000,90,20000,40,9999,0.100000,0,0,0.000000,5,0.000000,0.000000,0.086263,0,0,0,0,0,0,0
6,69999,36,50000,0,0,40,19999,0.100000,0,0,0.000000,5,0.000000,0.000000,0.086304,0,0,0,0,0,0,0
6,69999,37,60000,90,20000,40,9999,0.100000,0,0,0.000000,5,0.000000,0.000000,0.385861,0,0,0,0,0,0,0
6,69999,38,60000,0,0,40,9999,0.100000,0,0,0.000000,5,0.000000,0.000000,0.103425,0,0,0,0,0,0,0
6,69999,39,60000,90,0,40,9999,0.100000,0,0,0.000000,5,0.000000,0.000000,0.864626,0,0,0,0,0,0,0
6,69999,40,60000,55,0,40,9999,0.100000,0,0,0.000000,5,0.000000,0.000000,0.452628,0,0,0,0,0,0,0
6,69999,41,60000,55,0,40,9999,0.100000,0,0,0.000000,5,0.000000,0.000000,0.086239,0,0,0,0,0,0,0
6,69999,42,60000,90,20000,40,9999,0.100000,0,0,0.000000,5,0.000000,0.000000,0.141333,0,0,0,0,0,0,0
6,69999,43,60000,55,0,40,9999,0.100000,0,0,0.000000,5,0.000000,0.000000,0.315313,0,0,0,0,0,0,0
6,69999,44,60000,2,10000,40,9999,0.100000,0,0,0.000000,5,0.000000,0.000000,1.007530,0,0,0,0,0,0,0
6,69999,45,60000,55,0,40,9999,0.100000,0,0,0.000000,5,0.000000,0.000000,0.161848,0,0,0,0,0,0,0
6,69999,46,60000,90,20000,40,9999,0.100000,0,0,0.000000,5,0.000000,0.000000,0.091531,0,0,0,0,0,0,0
6,69999,47,60000,2,10000,40,9999,0.100000,0,0,0.000000,5,0.000000,0.000000,1.364446,0,0,0,0,0,0,0
6,69999,48,60000,90,0,40,9999,0.100000,0,0,0.000000,5,0.000000,0.000000,0.943855,0,0,0,0,0,0,0
6,69999,49,60000,55,0,40,9999,0.100000,0,0,0.000000,5,0.000000,0.000000,0.707080,0,0,0,0,0,0,0
6,69999,50,60000,55,0,40,9999,0.100000,0,0,0.000000,5,0.000000,0.000000,0.766249,0,0,0,0,0,0,0
6,69999,51,60000,55,0,40,9999,0.100000,0,0,0.000000,5,0.000000,0.000000,0.449289,0,0,0,0,0,0,0
6,69999,52,60000,55,0,40,9999,0.100000,0,0,0.000000,5,0.000000,0.000000,0.473441,0,0,0,0,0,0,0
6,69999,53,60000,90,0,40,9999,0.100000,0,0,0.000000,5,0.000000,0.000000,0.123403,0,0,0,0,0,0,0
6,69999,54,60000,2,10000,40,9999,0.100000,0,0,0.000000,5,0.000000,0.000000,0.630239,0,0,0,0,0,0,0
6,69999,55,60000,90,0,49,9999,0.100000,0,0,0.000000,5,4.000000,0.000000,14.641972,0,0,0,0,0,0,0
6,69999,56,60000,90,0,40,9999,0.100000,0,0,0.000000,5,0.000000,0.000000,0.077260,0,0,0,0,0,0,0
6,69999,57,60000,55,0,40,9999,0.100000,0,0,0.000000,5,0.000000,0.000000,1.199056,0,0,0,0,0,0,0
6,69999,58,60000,0,0,40,9999,0.100000,0,0,0.000000,5,0.000000,0.000000,0.702003,0,0,0,0,0,0,0
6,69999,59,60000,0,0,49,9999,0.100000,0,0,0.000000,5,1.000000,0.000000,5.683542,0,0,0,0,0,0,0
6,69999,60,60000,0,0,40,9999,0.100000,0,0,0.000000,5,0.000000,0.000000,0.162468,0,0,0,0,0,0,0
6,69999,61,60000,90,0,40,9999,0.100000,0,0,0.000000,5,0.000000,0.000000,1.925408,0,0,0,0,0,0,0
6,69999,62,60000,90,0,49,9999,0.100000,0,0,0.000000,5,7.000000,0.000000,16.141944,0,0,0,0,0,0,0
6,69999,63,60000,90,0,40,9999,0.100000,0,0,0.000000,5,0.000000,0.000000,0.643917,0,0,0,0,0,0,0
6,69999,64,60000,90,20000,40,9999,0.100000,0,0,0.000000,5,0.000000,0.000000,0.069264,0,0,0,0,0,0,0
6,69999,65,60000,2,10000,49,9999,0.100000,0,0,0.000000,5,1.000000,0.000000,1.466464,0,0,0,0,0,0,0
6,69999,66,60000,55,0,40,9999,0.100000,0,0,0.000000,5,0.000000,0.000000,0.964777,0,0,0,0,0,0,0
6,69999,67,60000,55,0,40,9999,0.100000,0,0,0.000000,5,0.000000,0.000000,0.328704,0,0,0,0,0,0,0
6,69999,68,60000,2,10000,40,9999,0.100000,0,0,0.000000,5,0.000000,0.000000,0.370729,0,0,0,0,0,0,0
6,69999,69,60000,2,10000,40,9999,0.100000,0,0,0.000000,5,0.000000,0.000000,15.047677,0,0,0,0,0,0,0
6,69999,70,60000,55,0,40,9999,0.100000,0,0,0.000000,5,0.000000,0.000000,0.801345,0,0,0,0,0,0,0
6,69999,71,60000,90,20000,49,9999,0.100000,0,0,0.000000,5,10.000000,0.000000,22.190943,0,0,0,0,0,0,0
6,69999,72,60000,90,20000,40,9999,0.100000,0,0,0.000000,5,0.000000,0.000000,0.254784,0,0,0,0,0,0,0
6,69999,73,60000,2,10000,49,9999,0.100000,0,0,0.000000,5,7.000000,0.000000,31.133719,0,0,0,0,0,0,0
6,69999,74,60000,0,0,40,9999,0.100000,0,0,0.000000,5,0.000000,0.000000,0.319774,0,0,0,0,0,0,0
6,69999,75,60000,2,10000,40,9999,0.100000,0,0,0.000000,5,0.000000,0.000000,0.286493,0,0,0,0,0,0,0
6,69999,76,60000,90,0,40,9999,0.100000,0,0,0.000000,5,0.000000,0.000000,0.164541,0,0,0,0,0,0,0
6,69999,77,60000,90,20000,40,9999,0.100000,0,0,0.000000,5,0.000000,0.000000,0.474540,0,0,0,0,0,0,0
6,69999,78,60000,55,0,40,9999,0.100000,0,0,0.000000,5,0.000000,0.000000,0.671190,0,0,0,0,0,0,0
6,69999,79,60000,0,0,49,9999,0.100000,0,0,0.000000,5,2.000000,0.000000,4.438820,0,0,0,0,0,0,0
6,69999,80,60000,90,0,40,9999,0.100000,0,0,0.000000,5,0.000000,0.000000,0.984573,0,0,0,0,0,0,0
6,69999,81,60000,0,0,49,9999,0.100000,0,0,0.000000,5,6.000000,0.000000,14.445119,0,0,0,0,0,0,0
6,69999,82,60000,55,0,40,9999,0.100000,0,0,0.000000,5,0.000000,0.000000,0.686949,0,0,0,0,0,0,0
6,69999,83,60000,55,0,40,9999,0.100000,0,0,0.000000,5,0.000000,0.000000,0.151940,0,0,0,0,0,0,0
6,69999,84,60000,90,0,40,9999,0.100000,0,0,0.000000,5,0.000000,0.000000,0.356694,0,0,0,0,0,0,0
6,69999,85,60000,2,10000,40,9999,0.100000,0,0,0.000000,5,0.000000,0.000000,1.112613,0,0,0,0,0,0,0
6,69999,86,60000,90,0,40,9999,0.100000,0,0,0.000000,5,0.000000,0.000000,0.232201,0,0,0,0,0,0,0
6,69999,87,60000,55,0,40,9999,0.100000,0,0,0.000000,5,0.000000,0.000000,0.605110,0,0,0,0,0,0,0
6,69999,88,60000,2,10000,40,9999,0.100000,0,0,0.000000,5,0.000000,0.000000,0.226683,0,0,0,0,0,0,0
6,69999,89,60000,90,0,49,9999,0.100000,0,0,0.000000,5,3.000000,0.000000,14.560163,0,0,0,0,0,0,0
6,69999,90,60000,90,0,40,9999,0.100000,0,0,0.000000,5,0.000000,0.000000,0.117520,0,0,0,0,0,0,0
6,69999,91,60000,90,20000,40,9999,0.100000,0,0,0.000000,5,0.000000,0.000000,0.204657,0,0,0,0,0,0,0
6,69999,92,60000,55,0,40,9999,0.100000,0,0,0.000000,5,0.000000,0.000000,0.343016,0,0,0,0,0,0,0
6,69999,93,60000,2,10000,40,9999,0.100000,0,0,0.000000,5,0.000000,0.000000,1.456305,0,0,0,0,0,0,0
6,69999,94,60000,0,0,40,9999,0.100000,0,0,0.000000,5,0.000000,0.000000,0.703914,0,0,0,0,0,0,0
6,69999,95,60000,90,20000,40,9999,0.100000,0,0,0.000000,5,0.000000,0.000000,0.417012,0,0,0,0,0,0,0
6,69999,96,60000,55,0,40,9999,0.100000,0,0,0.000000,5,0.000000,0.000000,0.329285,0,0,0,0,0,0,0
6,69999,97,60000,2,10000,40,9999,0.100000,0,0,0.000000,5,0.000000,0.000000,1.025186,0,0,0,0,0,0,0
6,69999,98,60000,90,20000,49,9999,0.100000,0,0,0.000000,5,1.000000,0.000000,7.108838,0,0,0,0,0,0,0
6,69999,99,60000,55,0,40,9999,0.100000,0,0,0.000000,5,0.000000,0.000000,0.009368,0,0,0,0,0,0,0
7,79999,0,70000,2,10000,40,9999,0.100000,0,0,0.000000,5,0.000000,0.000000,1.052629,0,0,0,0,0,0,0
7,79999,1,70000,90,20000,40,9999,0.100000,0,0,0.000000,5,0.000000,0.000000,0.069789,0,0,0,0,0,0,0
7,79999,2,70000,90,20000,40,9999,0.100000,0,0,0.000000,5,0.000000,0.000000,0.654546,0,0,0,0,0,0,0
7,79999,3,70000,90,0,40,9999,0.100000,0,0,0.000000,5,0.000000,0.000000,0.551039,0,0,0,0,0,0,0
7,79999,4,70000,2,10000,40,9999,0.100000,0,0,0.000000,5,0.000000,0.000000,0.223390,0,0,0,0,0,0,0
7,79999,5,70000,55,0,40,9999,0.100000,0,0,0.000000,5,0.000000,0.000000,0.572109,0,0,0,0,0,0,0
7,79999,6,60000,90,0,40,19999,0.100000,0,0,0.000000,5,0.000000,0.000000,1.601587,0,0,0,0,0,0,0
7,79999,7,70000,55,0,40,9999,0.100000,0,0,0.000000,5,0.000000,0.000000,0.241261,0,0,0,0,0,0,0
7,79999,8,70000,55,0,40,9999,0.100000,0,0,0.000000,5,0.000000,0.000000,0.276856,0,0,0,0,0,0,0
7,79999,9,70000,55,0,49,9999,0.100000,0,0,0.000000,5,6.000000,0.000000,16.099916,0,0,0,0,0,0,0
7,79999,10,70000,0,0,40,9999,0.100000,0,0,0.000000,5,0.000000,0.000000,0.084226,0,0,0,0,0,0,0
7,79999,11,70000,90,0,49,9999,0.100000,0,0,0.000000,5,2.000000,0.000000,14.354579,0,0,0,0,0,0,0
7,79999,12,70000,0,0,40,9999,0.100000,0,0,0.000000,5,0.000000,0.000000,0.163912,0,0,0,0,0,0,0
7,79999,13,70000,0,0,40,9999,0.100000,0,0,0.000000,5,0.000000,0.000000,0.485871,0,0,0,0,0,0,0
7,79999,14,70000,90,20000,40,9999,0.100000,0,0,0.000000,5,0.000000,0.000000,0.074963,0,0,0,0,0,0,0
7,79999,15,70000,0,0,40,9999,0.100000,0,0,0.000000,5,0.000000,0.000000,0.149465,0,0,0,0,0,0,0
7,79999,16,70000,55,0,40,9999,0.100000,0,0,0.000000,5,0.000000,0.000000,0.331067,0,0,0,0,0,0,0
7,79999,17,70000,0,0,40,9999,0.100000,0,0,0.000000,5,0.000000,0.000000,0.126118,0,0,0,0,0,0,0
7,79999,18,70000,55,0,40,9999,0.100000,0,0,0.000000,5,0.000000,0.000000,0.664529,0,0,0,0,0,0,0
7,79999,19,70000,0,0,40,9999,0.100000,0,0,0.000000,5,0.000000,0.000000,0.346949,0,0,0,0,0,0,0
7,79999,20,70000,2,10000,40,9999,0.100000,0,0,0.000000,5,0.000000,0.000000,2.441451,0,0,0,0,0,0,0
7,79999,21,70000,90,20000,40,9999,0.100000,0,0,0.000000,5,0.000000,0.000000,0.455480,0,0,0,0,0,0,0
7,79999,22,70000,2,10000,40,9999,0.100000,0,0,0.000000,5,0.000000,0.000000,0.192990,0,0,0,0,0,0,0
7,79999,23,70000,2,10000,40,9999,0.100000,0,0,0.000000,5,0.000000,0.000000,0.175962,0,0,0,0,0,0,0
7,79999,24,70000,2,10000,49,9999,0.100000,0,0,0.000000,5,1.000000,0.000000,3.712525,0,0,0,0,0,0,0
7,79999,25,70000,90,0,40,9999,0.100000,0,0,0.000000,5,0.000000,0.000000,0.277796,0,0,0,0,0,0,0
7,79999,26,70000,90,0,49,9999,0.100000,0,0,0.000000,5,1.000000,0.000000,23.981749,0,0,0,0,0,0,0
7,79999,27,70000,90,0,40,9999,0.100000,0,0,0.000000,5,0.000000,0.000000,0.728129,0,0,0,0,0,0,0
7,79999,28,70000,2,10000,40,9999,0.100000,0,0,0.000000,5,0.000000,0.000000,0.124174,0,0,0,0,0,0,0
7,79999,29,70000,2,10000,40,9999,0.100000,0,0,0.000000,5,0.000000,0.000000,0.095335,0,0,0,0,0,0,0
7,79999,30,70000,2,10000,49,9999,0.100000,0,0,0.000000,5,1.000000,0.000000,6.036607,0,0,0,0,0,0,0
7,79999,31,70000,90,20000,40,9999,0.100000,0,0,0.000000,5,0.000000,0.000000,0.946260,0,0,0,0,0,0,0
7,79999,32,70000,2,10000,40,9999,0.100000,0,0,0.000000,5,0.000000,0.000000,0.188850,0,0,0,0,0,0,0
7,79999,33,70000,90,0,49,9999,0.100000,0,0,0.000000,5,1.000000,0.000000,12.845515,0,0,0,0,0,0,0
7,79999,34,70000,55,0,40,9999,0.100000,0,0,0.000000,5,0.000000,0.000000,0.266040,0,0,0,0,0,0,0
7,79999,35,70000,0,0,40,9999,0.100000,0,0,0.000000,5,0.000000,0.000000,0.088745,0,0,0,0,0,0,0
7,79999,36,70000,90,20000,40,9999,0.100000,0,0,0.000000,5,0.000000,0.000000,0.084919,0,0,0,0,0,0,0
7,79999,37,70000,55,0,40,9999,0.100000,0,0,0.000000,5,0.000000,0.000000,0.425369,0,0,0,0,0,0,0
7,79999,38,70000,90,0,40,9999,0.100000,0,0,0.000000,5,0.000000,0.000000,0.102813,0,0,0,0,0,0,0
7,79999,39,70000,55,0,40,9999,0.100000,0,0,0.000000,5,0.000000,0.000000,0.856578,0,0,0,0,0,0,0
7,79999,40,70000,90,0,40,9999,0.100000,0,0,0.000000,5,0.000000,0.000000,0.145158,0,0,0,0,0,0,0
7,79999,41,70000,0,0,40,9999,0.100000,0,0,0.000000,5,0.000000,0.000000,0.086152,0,0,0,0,0,0,0
7,79999,42,70000,0,0,40,9999,0.100000,0,0,0.000000,5,0.000000,0.000000,0.218335,0,0,0,0,0,0,0
7,79999,43,70000,55,0,40,9999,0.100000,0,0,0.000000,5,0.000000,0.000000,0.315922,0,0,0,0,0,0,0
7,79999,44,70000,2,10000,40,9999,0.100000,0,0,0.000000,5,0.000000,0.000000,0.762693,0,0,0,0,0,0,0
7,79999,45,70000,55,0,40,9999,0.100000,0,0,0.000000,5,0.000000,0.000000,0.192423,0,0,0,0,0,0,0
7,79999,46,70000,0,0,40,9999,0.100000,0,0,0.000000,5,0.000000,0.000000,0.233751,0,0,0,0,0,0,0
7,79999,47,70000,55,0,40,9999,0.100000,0,0,0.000000,5,0.000000,0.000000,1.270487,0,0,0,0,0,0,0
7,79999,48,70000,90,20000,40,9999,0.100000,0,0,0.000000,5,0.000000,0.000000,1.078035,0,0,0,0,0,0,0
7,79999,49,70000,90,0,40,9999,0.100000,0,0,0.000000,5,0.000000,0.000000,0.877896,0,0,0,0,0,0,0
7,79999,50,70000,90,0,40,9999,0.100000,0,0,0.000000,5,0.000000,0.000000,0.755284,0,0,0,0,0,0,0
7,79999,51,70000,90,0,40,9999,0.100000,0,0,0.000000,5,0.000000,0.000000,0.321320,0,0,0,0,0,0,0
7,79999,52,70000,90,20000,40,9999,0.100000,0,0,0.000000,5,0.000000,0.000000,0.535629,0,0,0,0,0,0,0
7,79999,53,70000,0,0,49,9999,0.100000,0,0,0.000000,5,5.000000,0.000000,11.764300,0,0,0,0,0,0,0
7,79999,54,70000,55,0,40,9999,0.100000,0,0,0.000000,5,0.000000,0.000000,1.033930,0,0,0,0,0,0,0
7,79999,55,70000,90,0,40,9999,0.100000,0,0,0.000000,5,0.000000,0.000000,1.150089,0,0,0,0,0,0,0
7,79999,56,70000,90,20000,40,9999,0.100000,0,0,0.000000,5,0.000000,0.000000,0.077592,0,0,0,0,0,0,0
7,79999,57,70000,55,0,40,9999,0.100000,0,0,0.000000,5,0.000000,0.000000,0.757798,0,0,0,0,0,0,0
7,79999,58,70000,90,0,40,9999,0.100000,0,0,0.000000,5,0.000000,0.000000,0.841946,0,0,0,0,0,0,0
7,79999,59,70000,2,10000,49,9999,0.100000,0,0,0.000000,5,1.000000,0.000000,6.390466,0,0,0,0,0,0,0
7,79999,60,70000,90,20000,40,9999,0.100000,0,0,0.000000,5,0.000000,0.000000,0.153426,0,0,0,0,0,0,0
7,79999,61,70000,0,0,40,9999,0.100000,0,0,0.000000,5,0.000000,0.000000,2.677483,0,0,0,0,0,0,0
7,79999,62,70000,2,10000,40,9999,0.100000,0,0,0.000000,5,0.000000,0.000000,0.156891,0,0,0,0,0,0,0
7,79999,63,70000,0,0,40,9999,0.100000,0,0,0.000000,5,0.000000,0.000000,0.632262,0,0,0,0,0,0,0
7,79999,64,70000,0,0,40,9999,0.100000,0,0,0.000000,5,0.000000,0.000000,0.069126,0,0,0,0,0,0,0
7,79999,65,70000,90,0,40,9999,0.100000,0,0,0.000000,5,0.000000,0.000000,3.310784,0,0,0,0,0,0,0
7,79999,66,70000,0,0,40,9999,0.100000,0,0,0.000000,5,0.000000,0.000000,0.911209,0,0,0,0,0,0,0
7,79999,67,70000,90,20000,40,9999,0.100000,0,0,0.000000,5,0.000000,0.000000,0.609789,0,0,0,0,0,0,0
7,79999,68,70000,90,20000,40,9999,0.100000,0,0,0.000000,5,0.000000,0.000000,0.188263,0,0,0,0,0,0,0
7,79999,69,70000,90,0,49,9999,0.100000,0,0,0.000000,5,2.000000,0.000000,8.845728,0,0,0,0,0,0,0
7,79999,70,70000,90,0,40,9999,0.100000,0,0,0.000000,5,0.000000,0.000000,0.705280,0,0,0,0,0,0,0
7,79999,71,70000,90,20000,49,9999,0.100000,0,0,0.000000,5,5.000000,0.000000,6.546010,0,0,0,0,0,0,0
7,79999,72,70000,90,0,40,9999,0.100000,0,0,0.000000,5,0.000000,0.000000,0.273725,0,0,0,0,0,0,0
7,79999,73,70000,90,20000,40,9999,0.100000,0,0,0.000000,5,0.000000,0.000000,0.190779,0,0,0,0,0,0,0
7,79999,74,70000,2,10000,40,9999,0.100000,0,0,0.000000,5,0.000000,0.000000,0.398644,0,0,0,0,0,0,0
7,79999,75,70000,90,20000,40,9999,0.100000,0,0,0.000000,5,0.000000,0.000000,0.393875,0,0,0,0,0,0,0
7,79999,76,70000,2,10000,40,9999,0.100000,0,0,0.000000,5,0.000000,0.000000,0.165398,0,0,0,0,0,0,0
7,79999,77,70000,2,10000,40,9999,0.100000,0,0,0.000000,5,0.000000,0.000000,0.446477,0,0,0,0,0,0,0
7,79999,78,70000,90,20000,40,9999,0.100000,0,0,0.000000,5,0.000000,0.000000,0.657026,0,0,0,0,0,0,0
7,79999,79,70000,90,0,40,9999,0.100000,0,0,0.000000,5,0.000000,0.000000,0.077191,0,0,0,0,0,0,0
7,79999,80,70000,90,20000,40,9999,0.100000,0,0,0.000000,5,0.000000,0.000000,0.802773,0,0,0,0,0,0,0
7,79999,81,70000,90,0,40,9999,0.100000,0,0,0.000000,5,0.000000,0.000000,0.909213,0,0,0,0,0,0,0
7,79999,82,70000,2,10000,40,9999,0.100000,0,0,0.000000,5,0.000000,0.000000,0.788339,0,0,0,0,0,0,0
7,79999,83,70000,2,10000,40,9999,0.100000,0,0,0.000000,5,0.000000,0.000000,0.160265,0,0,0,0,0,0,0
7,79999,84,70000,90,0,40,9999,0.100000,0,0,0.000000,5,0.000000,0.000000,0.410858,0,0,0,0,0,0,0
7,79999,85,70000,90,0,40,9999,0.100000,0,0,0.000000,5,0.000000,0.000000,2.722488,0,0,0,0,0,0,0
7,79999,86,70000,90,0,40,9999,0.100000,0,0,0.000000,5,0.000000,0.000000,0.225396,0,0,0,0,0,0,0
7,79999,87,70000,90,0,40,9999,0.100000,0,0,0.000000,5,0.000000,0.000000,0.783869,0,0,0,0,0,0,0
7,79999,88,60000,2,10000,40,19999,0.100000,0,0,0.000000,5,0.000000,0.000000,0.207895,0,0,0,0,0,0,0
7,79999,89,70000,90,0,49,9999,0.100000,0,0,0.000000,5,1.000000,0.000000,4.253322,0,0,0,0,0,0,0
7,79999,90,70000,0,0,40,9999,0.100000,0,0,0.000000,5,0.000000,0.000000,0.128808,0,0,0,0,0,0,0
7,79999,91,70000,90,20000,40,9999,0.100000,0,0,0.000000,5,0.000000,0.000000,0.200185,0,0,0,0,0,0,0
7,79999,92,70000,0,0,40,9999,0.100000,0,0,0.000000,5,0.000000,0.000000,2.367823,0,0,0,0,0,0,0
7,79999,93,70000,0,0,40,9999,0.100000,0,0,0.000000,5,0.000000,0.000000,1.231766,0,0,0,0,0,0,0
7,79999,94,70000,90,0,40,9999,0.100000,0,0,0.000000,5,0.000000,0.000000,1.040307,0,0,0,0,0,0,0
7,79999,95,70000,0,0,40,9999,0.100000,0,0,0.000000,5,0.000000,0.000000,0.515221,0,0,0,0,0,0,0
7,79999,96,70000,0,0,40,9999,0.100000,0,0,0.000000,5,0.000000,0.000000,0.942172,0,0,0,0,0,0,0
7,79999,97,70000,55,0,49,9999,0.100000,0,0,0.000000,5,4.000000,0.000000,9.716482,0,0,0,0,0,0,0
7,79999,98,70000,0,0,40,9999,0.100000,0,0,0.000000,5,0.000000,0.000000,5.629068,0,0,0,0,0,0,0
7,79999,99,70000,0,0,49,9999,0.100000,0,0,0.000000,5,9.000000,0.000000,18.530537,0,0,0,0,0,0,0
8,89999,0,80000,90,0,40,9999,0.100000,0,0,0.000000,5,0.000000,0.000000,8.403026,0,0,0,0,0,0,0
8,89999,1,70000,90,20000,40,19999,0.100000,0,0,0.000000,5,0.000000,0.000000,0.070257,0,0,0,0,0,0,0
8,89999,2,80000,0,0,40,9999,0.100000,0,0,0.000000,5,0.000000,0.000000,0.567601,0,0,0,0,0,0,0
8,89999,3,80000,55,0,40,9999,0.100000,0,0,0.000000,5,0.000000,0.000000,0.702048,0,0,0,0,0,0,0
8,89999,4,80000,90,20000,40,9999,0.100000,0,0,0.000000,5,0.000000,0.000000,0.223721,0,0,0,0,0,0,0
8,89999,5,80000,0,0,40,9999,0.100000,0,0,0.000000,5,0.000000,0.000000,3.192086,0,0,0,0,0,0,0
8,89999,6,80000,2,10000,40,9999,0.100000,0,0,0.000000,5,0.000000,0.000000,2.400901,0,0,0,0,0,0,0
8,89999,7,80000,90,20000,40,9999,0.100000,0,0,0.000000,5,0.000000,0.000000,0.276059,0,0,0,0,0,0,0
8,89999,8,80000,0,0,40,9999,0.100000,0,0,0.000000,5,0.000000,0.000000,0.253457,0,0,0,0,0,0,0
8,89999,9,80000,55,0,49,9999,0.100000,0,0,0.000000,5,1.000000,0.000000,14.568923,0,0,0,0,0,0,0
8,89999,10,80000,55,0,40,9999,0.100000,0,0,0.000000,5,0.000000,0.000000,0.176292,0,0,0,0,0,0,0
8,89999,11,80000,55,0,49,9999,0.100000,0,0,0.000000,5,1.000000,0.000000,12.276223,0,0,0,0,0,0,0
8,89999,12,80000,55,0,40,9999,0.100000,0,0,0.000000,5,0.000000,0.000000,0.163316,0,0,0,0,0,0,0
8,89999,13,80000,0,0,40,9999,0.100000,0,0,0.000000,5,0.000000,0.000000,1.595105,0,0,0,0,0,0,0
8,89999,14,80000,90,0,40,9999,0.100000,0,0,0.000000,5,0.000000,0.000000,0.076221,0,0,0,0,0,0,0
8,89999,15,80000,0,0,40,9999,0.100000,0,0,0.000000,5,0.000000,0.000000,0.147179,0,0,0,0,0,0,0
8,89999,16,80000,0,0,40,9999,0.100000,0,0,0.000000,5,0.000000,0.000000,0.293352,0,0,0,0,0,0,0
8,89999,17,80000,0,0,40,9999,0.100000,0,0,0.000000,5,0.000000,0.000000,0.125166,0,0,0,0,0,0,0
8,89999,18,80000,90,20000,40,9999,0.100000,0,0,0.000000,5,0.000000,0.000000,0.813711,0,0,0,0,0,0,0
8,89999,19,80000,90,0,40,9999,0.100000,0,0,0.000000,5,0.000000,0.000000,0.318822,0,0,0,0,0,0,0
8,89999,20,80000,90,0,40,9999,0.100000,0,0,0.000000,5,0.000000,0.000000,5.675364,0,0,0,0,0,0,0
8,89999,21,80000,90,0,49,9999,0.100000,0,0,0.000000,5,2.000000,0.000000,4.496764,0,0,0,0,0,0,0
8,89999,22,80000,90,0,40,9999,0.100000,0,0,0.000000,5,0.000000,0.000000,0.327760,0,0,0,0,0,0,0
8,89999,23,80000,0,0,40,9999,0.100000,0,0,0.000000,5,0.000000,0.000000,0.427864,0,0,0,0,0,0,0
8,89999,24,80000,90,0,49,9999,0.100000,0,0,0.000000,5,2.000000,0.000000,11.836131,0,0,0,0,0,0,0
8,89999,25,80000,90,0,40,9999,0.100000,0,0,0.000000,5,0.000000,0.000000,0.244005,0,0,0,0,0,0,0
8,89999,26,80000,90,0,49,9999,0.100000,0,0,0.000000,5,1.000000,0.000000,22.630692,0,0,0,0,0,0,0
8,89999,27,80000,0,0,40,9999,0.100000,0,0,0.000000,5,0.000000,0.000000,0.543808,0,0,0,0,0,0,0
8,89999,28,80000,0,0,40,9999,0.100000,0,0,0.000000,5,0.000000,0.000000,0.118445,0,0,0,0,0,0,0
8,89999,29,80000,2,10000,40,9999,0.100000,0,0,0.000000,5,0.000000,0.000000,0.092922,0,0,0,0,0,0,0
8,89999,30,80000,90,20000,40,9999,0.100000,0,0,0.000000,5,0.000000,0.000000,4.917607,0,0,0,0,0,0,0
8,89999,31,80000,90,20000,40,9999,0.100000,0,0,0.000000,5,0.000000,0.000000,9.403303,0,0,0,0,0,0,0
8,89999,32,80000,55,0,40,9999,0.100000,0,0,0.000000,5,0.000000,0.000000,0.429038,0,0,0,0,0,0,0
8,89999,33,80000,55,0,40,9999,0.100000,0,0,0.000000,5,0.000000,0.000000,10.435364,0,0,0,0,0,0,0
8,89999,34,80000,55,0,40,9999,0.100000,0,0,0.000000,5,0.000000,0.000000,0.269394,0,0,0,0,0,0,0
8,89999,35,80000,90,20000,40,9999,0.100000,0,0,0.000000,5,0.000000,0.000000,0.090873,0,0,0,0,0,0,0
8,89999,36,80000,90,20000,40,9999,0.100000,0,0,0.000000,5,0.000000,0.000000,0.086484,0,0,0,0,0,0,0
8,89999,37,80000,2,10000,40,9999,0.100000,0,0,0.000000,5,0.000000,0.000000,0.329271,0,0,0,0,0,0,0
8,89999,38,80000,0,0,40,9999,0.100000,0,0,0.000000,5,0.000000,0.000000,0.106076,0,0,0,0,0,0,0
8,89999,39,80000,90,0,40,9999,0.100000,0,0,0.000000,5,0.000000,0.000000,0.646320,0,0,0,0,0,0,0
8,89999,40,80000,90,20000,40,9999,0.100000,0,0,0.000000,5,0.000000,0.000000,0.440991,0,0,0,0,0,0,0
8,89999,41,80000,55,0,40,9999,0.100000,0,0,0.000000,5,0.000000,0.000000,0.091963,0,0,0,0,0,0,0
8,89999,42,80000,90,0,40,9999,0.100000,0,0,0.000000,5,0.000000,0.000000,0.778274,0,0,0,0,0,0,0
8,89999,43,80000,0,0,40,9999,0.100000,0,0,0.000000,5,0.000000,0.000000,0.310648,0,0,0,0,0,0,0
8,89999,44,80000,90,20000,40,9999,0.100000,0,0,0.000000,5,0.000000,0.000000,0.313030,0,0,0,0,0,0,0
8,89999,45,80000,90,20000,40,9999,0.100000,0,0,0.000000,5,0.000000,0.000000,0.186988,0,0,0,0,0,0,0
8,89999,46,80000,55,0,49,9999,0.100000,0,0,0.000000,5,1.000000,0.000000,1.311311,0,0,0,0,0,0,0
8,89999,47,80000,2,10000,40,9999,0.100000,0,0,0.000000,5,0.000000,0.000000,9.639133,0,0,0,0,0,0,0
8,89999,48,80000,90,20000,40,9999,0.100000,0,0,0.000000,5,0.000000,0.000000,0.770484,0,0,0,0,0,0,0
8,89999,49,80000,2,10000,40,9999,0.100000,0,0,0.000000,5,0.000000,0.000000,0.640231,0,0,0,0,0,0,0
8,89999,50,80000,90,20000,40,9999,0.100000,0,0,0.000000,5,0.000000,0.000000,0.771481,0,0,0,0,0,0,0
8,89999,51,80000,90,20000,49,9999,0.100000,0,0,0.000000,5,1.000000,0.000000,5.209347,0,0,0,0,0,0,0
8,89999,52,80000,0,0,40,9999,0.100000,0,0,0.000000,5,0.000000,0.000000,1.304332,0,0,0,0,0,0,0
8,89999,53,80000,0,0,40,9999,0.100000,0,0,0.000000,5,0.000000,0.000000,0.114752,0,0,0,0,0,0,0
8,89999,54,80000,90,20000,40,9999,0.100000,0,0,0.000000,5,0.000000,0.000000,1.185227,0,0,0,0,0,0,0
8,89999,55,80000,55,0,49,9999,0.100000,0,0,0.000000,5,1.000000,0.000000,3.217907,0,0,0,0,0,0,0
8,89999,56,80000,90,20000,40,9999,0.100000,0,0,0.000000,5,0.000000,0.000000,0.077787,0,0,0,0,0,0,0
8,89999,57,80000,0,0,40,9999,0.100000,0,0,0.000000,5,0.000000,0.000000,0.436835,0,0,0,0,0,0,0
8,89999,58,80000,90,0,40,9999,0.100000,0,0,0.000000,5,0.000000,0.000000,0.899709,0,0,0,0,0,0,0
8,89999,59,80000,55,0,49,9999,0.100000,0,0,0.000000,5,1.000000,0.000000,4.790213,0,0,0,0,0,0,0
8,89999,60,80000,0,0,49,9999,0.100000,0,0,0.000000,5,5.000000,0.000000,11.386833,0,0,0,0,0,0,0
8,89999,61,80000,90,0,40,9999,0.100000,0,0,0.000000,5,0.000000,0.000000,1.123104,0,0,0,0,0,0,0
8,89999,62,80000,90,0,40,9999,0.100000,0,0,0.000000,5,0.000000,0.000000,0.161855,0,0,0,0,0,0,0
8,89999,63,80000,90,0,40,9999,0.100000,0,0,0.000000,5,0.000000,0.000000,0.750398,0,0,0,0,0,0,0
8,89999,64,80000,55,0,40,9999,0.100000,0,0,0.000000,5,0.000000,0.000000,0.068152,0,0,0,0,0,0,0
8,89999,65,80000,0,0,40,9999,0.100000,0,0,0.000000,5,0.000000,0.000000,3.232703,0,0,0,0,0,0,0
8,89999,66,80000,90,20000,40,9999,0.100000,0,0,0.000000,5,0.000000,0.000000,0.982804,0,0,0,0,0,0,0
8,89999,67,80000,55,0,40,9999,0.100000,0,0,0.000000,5,0.000000,0.000000,11.044961,0,0,0,0,0,0,0
8,89999,68,80000,90,20000,40,9999,0.100000,0,0,0.000000,5,0.000000,0.000000,0.232539,0,0,0,0,0,0,0
8,89999,69,80000,2,10000,49,9999,0.100000,0,0,0.000000,5,1.000000,0.000000,17.516969,0,0,0,0,0,0,0
8,89999,70,80000,55,0,40,9999,0.100000,0,0,0.000000,5,0.000000,0.000000,0.459898,0,0,0,0,0,0,0
8,89999,71,80000,90,20000,40,9999,0.100000,0,0,0.000000,5,0.000000,0.000000,1.418977,0,0,0,0,0,0,0
8,89999,72,80000,90,20000,40,9999,0.100000,0,0,0.000000,5,0.000000,0.000000,0.365862,0,0,0,0,0,0,0
8,89999,73,80000,55,0,40,9999,0.100000,0,0,0.000000,5,0.000000,0.000000,0.293374,0,0,0,0,0,0,0
8,89999,74,80000,90,0,40,9999,0.100000,0,0,0.000000,5,0.000000,0.000000,0.639538,0,0,0,0,0,0,0
8,89999,75,80000,90,0,40,9999,0.100000,0,0,0.000000,5,0.000000,0.000000,0.400901,0,0,0,0,0,0,0
8,89999,76,80000,55,0,40,9999,0.100000,0,0,0.000000,5,0.000000,0.000000,0.166273,0,0,0,0,0,0,0
8,89999,77,80000,90,0,40,9999,0.100000,0,0,0.000000,5,0.000000,0.000000,0.431498,0,0,0,0,0,0,0
8,89999,78,80000,0,0,40,9999,0.100000,0,0,0.000000,5,0.000000,0.000000,1.129662,0,0,0,0,0,0,0
8,89999,79,80000,55,0,40,9999,0.100000,0,0,0.000000,5,0.000000,0.000000,0.076739,0,0,0,0,0,0,0
8,89999,80,80000,55,0,40,9999,0.100000,0,0,0.000000,5,0.000000,0.000000,1.431911,0,0,0,0,0,0,0
8,89999,81,80000,2,10000,40,9999,0.100000,0,0,0.000000,5,0.000000,0.000000,1.620415,0,0,0,0,0,0,0
8,89999,82,80000,90,20000,40,9999,0.100000,0,0,0.000000,5,0.000000,0.000000,0.867880,0,0,0,0,0,0,0
8,89999,83,80000,55,0,40,9999,0.100000,0,0,0.000000,5,0.000000,0.000000,0.162841,0,0,0,0,0,0,0
8,89999,84,80000,55,0,40,9999,0.100000,0,0,0.000000,5,0.000000,0.000000,0.560885,0,0,0,0,0,0,0
8,89999,85,80000,90,0,40,9999,0.100000,0,0,0.000000,5,0.000000,0.000000,0.274680,0,0,0,0,0,0,0
8,89999,86,80000,0,0,40,9999,0.100000,0,0,0.000000,5,0.000000,0.000000,0.228496,0,0,0,0,0,0,0
8,89999,87,80000,2,10000,40,9999,0.100000,0,0,0.000000,5,0.000000,0.000000,0.925560,0,0,0,0,0,0,0
8,89999,88,80000,0,0,40,9999,0.100000,0,0,0.000000,5,0.000000,0.000000,0.192643,0,0,0,0,0,0,0
8,89999,89,80000,55,0,40,9999,0.100000,0,0,0.000000,5,0.000000,0.000000,6.716502,0,0,0,0,0,0,0
8,89999,90,80000,55,0,40,9999,0.100000,0,0,0.000000,5,0.000000,0.000000,0.138406,0,0,0,0,0,0,0
8,89999,91,80000,0,0,40,9999,0.100000,0,0,0.000000,5,0.000000,0.000000,0.191613,0,0,0,0,0,0,0
8,89999,92,80000,55,0,40,9999,0.100000,0,0,0.000000,5,0.000000,0.000000,0.512710,0,0,0,0,0,0,0
8,89999,93,80000,90,0,49,9999,0.100000,0,0,0.000000,5,1.000000,0.000000,10.608766,0,0,0,0,0,0,0
8,89999,94,80000,2,10000,49,9999,0.100000,0,0,0.000000,5,1.000000,0.000000,1.172823,0,0,0,0,0,0,0
8,89999,95,80000,90,0,40,9999,0.100000,0,0,0.000000,5,0.000000,0.000000,0.656409,0,0,0,0,0,0,0
8,89999,96,80000,0,0,40,9999,0.100000,0,0,0.000000,5,0.000000,0.000000,0.640018,0,0,0,0,0,0,0
8,89999,97,80000,90,20000,40,9999,0.100000,0,0,0.000000,5,0.000000,0.000000,0.833350,0,0,0,0,0,0,0
8,89999,98,80000,55,0,49,9999,0.100000,0,0,0.000000,5,2.000000,0.000000,6.091394,0,0,0,0,0,0,0
8,89999,99,80000,2,10000,40,9999,0.100000,0,0,0.000000,5,0.000000,0.000000,0.009285,0,0,0,0,0,0,0
9,99999,0,90000,90,20000,49,9999,0.100000,0,0,0.000000,5,1.000000,0.000000,7.118913,0,0,0,0,0,0,0
9,99999,1,90000,55,0,40,9999,0.100000,0,0,0.000000,5,0.000000,0.000000,0.069521,0,0,0,0,0,0,0
9,99999,2,90000,90,20000,40,9999,0.100000,0,0,0.000000,5,0.000000,0.000000,0.821590,0,0,0,0,0,0,0
9,99999,3,90000,90,20000,40,9999,0.100000,0,0,0.000000,5,0.000000,0.000000,0.240247,0,0,0,0,0,0,0
9,99999,4,90000,0,0,40,9999,0.100000,0,0,0.000000,5,0.000000,0.000000,0.229613,0,0,0,0,0,0,0
9,99999,5,90000,2,10000,40,9999,0.100000,0,0,0.000000,5,0.000000,0.000000,0.350906,0,0,0,0,0,0,0
9,99999,6,90000,0,0,40,9999,0.100000,0,0,0.000000,5,0.000000,0.000000,1.042317,0,0,0,0,0,0,0
9,99999,7,90000,55,0,40,9999,0.100000,0,0,0.000000,5,0.000000,0.000000,0.084284,0,0,0,0,0,0,0
9,99999,8,90000,90,0,40,9999,0.100000,0,0,0.000000,5,0.000000,0.000000,0.224616,0,0,0,0,0,0,0
9,99999,9,90000,2,10000,49,9999,0.100000,0,0,0.000000,5,2.000000,0.000000,4.408469,0,0,0,0,0,0,0
9,99999,10,90000,0,0,40,9999,0.100000,0,0,0.000000,5,0.000000,0.000000,0.265081,0,0,0,0,0,0,0
9,99999,11,90000,0,0,49,9999,0.100000,0,0,0.000000,5,1.000000,0.000000,6.667803,0,0,0,0,0,0,0
9,99999,12,90000,2,10000,40,9999,0.100000,0,0,0.000000,5,0.000000,0.000000,0.159910,0,0,0,0,0,0,0
9,99999,13,90000,90,0,40,9999,0.100000,0,0,0.000000,5,0.000000,0.000000,0.100933,0,0,0,0,0,0,0
9,99999,14,90000,2,10000,40,9999,0.100000,0,0,0.000000,5,0.000000,0.000000,0.075251,0,0,0,0,0,0,0
9,99999,15,90000,0,0,40,9999,0.100000,0,0,0.000000,5,0.000000,0.000000,0.147729,0,0,0,0,0,0,0
9,99999,16,90000,0,0,40,9999,0.100000,0,0,0.000000,5,0.000000,0.000000,0.233021,0,0,0,0,0,0,0
9,99999,17,90000,90,20000,40,9999,0.100000,0,0,0.000000,5,0.000000,0.000000,0.145418,0,0,0,0,0,0,0
9,99999,18,90000,0,0,40,9999,0.100000,0,0,0.000000,5,0.000000,0.000000,0.197121,0,0,0,0,0,0,0
9,99999,19,90000,55,0,40,9999,0.100000,0,0,0.000000,5,0.000000,0.000000,0.383258,0,0,0,0,0,0,0
9,99999,20,90000,2,10000,40,9999,0.100000,0,0,0.000000,5,0.000000,0.000000,0.833316,0,0,0,0,0,0,0
9,99999,21,90000,90,0,40,9999,0.100000,0,0,0.000000,5,0.000000,0.000000,0.407101,0,0,0,0,0,0,0
9,99999,22,90000,90,0,40,9999,0.100000,0,0,0.000000,5,0.000000,0.000000,3.114362,0,0,0,0,0,0,0
9,99999,23,90000,55,0,40,9999,0.100000,0,0,0.000000,5,0.000000,0.000000,0.277867,0,0,0,0,0,0,0
9,99999,24,90000,55,0,49,9999,0.100000,0,0,0.000000,5,2.000000,0.000000,16.684084,0,0,0,0,0,0,0
9,99999,25,90000,2,10000,40,9999,0.100000,0,0,0.000000,5,0.000000,0.000000,0.223391,0,0,0,0,0,0,0
9,99999,26,90000,55,0,49,9999,0.100000,0,0,0.000000,5,1.000000,0.000000,23.124062,0,0,0,0,0,0,0
9,99999,27,90000,0,0,40,9999,0.100000,0,0,0.000000,5,0.000000,0.000000,0.402343,0,0,0,0,0,0,0
9,99999,28,90000,90,0,40,9999,0.100000,0,0,0.000000,5,0.000000,0.000000,0.128306,0,0,0,0,0,0,0
9,99999,29,90000,90,0,40,9999,0.100000,0,0,0.000000,5,0.000000,0.000000,0.093593,0,0,0,0,0,0,0
9,99999,30,80000,90,20000,40,19999,0.100000,0,0,0.000000,5,0.000000,0.000000,2.456433,0,0,0,0,0,0,0
9,99999,31,90000,0,0,49,9999,0.100000,0,0,0.000000,5,1.000000,0.000000,10.149843,0,0,0,0,0,0,0
9,99999,32,90000,90,0,40,9999,0.100000,0,0,0.000000,5,0.000000,0.000000,0.121328,0,0,0,0,0,0,0
9,99999,33,90000,90,0,40,9999,0.100000,0,0,0.000000,5,0.000000,0.000000,2.979746,0,0,0,0,0,0,0
9,99999,34,80000,55,0,40,19999,0.100000,0,0,0.000000,5,0.000000,0.000000,0.284543,0,0,0,0,0,0,0
9,99999,35,90000,90,0,40,9999,0.100000,0,0,0.000000,5,0.000000,0.000000,0.091856,0,0,0,0,0,0,0
9,99999,36,90000,55,0,40,9999,0.100000,0,0,0.000000,5,0.000000,0.000000,0.085198,0,0,0,0,0,0,0
9,99999,37,90000,55,0,40,9999,0.100000,0,0,0.000000,5,0.000000,0.000000,0.180855,0,0,0,0,0,0,0
9,99999,38,90000,2,10000,40,9999,0.100000,0,0,0.000000,5,0.000000,0.000000,0.110470,0,0,0,0,0,0,0
9,99999,39,90000,2,10000,40,9999,0.100000,0,0,0.000000,5,0.000000,0.000000,0.216707,0,0,0,0,0,0,0
9,99999,40,90000,90,20000,40,9999,0.100000,0,0,0.000000,5,0.000000,0.000000,0.195714,0,0,0,0,0,0,0
9,99999,41,90000,2,10000,40,9999,0.100000,0,0,0.000000,5,0.000000,0.000000,0.089877,0,0,0,0,0,0,0
9,99999,42,90000,0,0,40,9999,0.100000,0,0,0.000000,5,0.000000,0.000000,0.602750,0,0,0,0,0,0,0
9,99999,43,90000,2,10000,40,9999,0.100000,0,0,0.000000,5,0.000000,0.000000,0.374467,0,0,0,0,0,0,0
9,99999,44,90000,2,10000,40,9999,0.100000,0,0,0.000000,5,0.000000,0.000000,0.230578,0,0,0,0,0,0,0
9,99999,45,90000,0,0,40,9999,0.100000,0,0,0.000000,5,0.000000,0.000000,0.072397,0,0,0,0,0,0,0
9,99999,46,90000,2,10000,40,9999,0.100000,0,0,0.000000,5,0.000000,0.000000,1.088408,0,0,0,0,0,0,0
9,99999,47,90000,90,20000,40,9999,0.100000,0,0,0.000000,5,0.000000,0.000000,2.996712,0,0,0,0,0,0,0
9,99999,48,90000,0,0,40,9999,0.100000,0,0,0.000000,5,0.000000,0.000000,0.709219,0,0,0,0,0,0,0
9,99999,49,90000,55,0,40,9999,0.100000,0,0,0.000000,5,0.000000,0.000000,0.534051,0,0,0,0,0,0,0
9,99999,50,90000,0,0,40,9999,0.100000,0,0,0.000000,5,0.000000,0.000000,0.730554,0,0,0,0,0,0,0
9,99999,51,90000,90,0,40,9999,0.100000,0,0,0.000000,5,0.000000,0.000000,1.244119,0,0,0,0,0,0,0
9,99999,52,90000,90,20000,9,9999,0.100000,0,0,34.210526,5,7.000000,0.000000,11.634261,0,0,0,0,1,0,0
9,99999,53,90000,90,0,40,9999,0.100000,0,0,0.000000,5,0.000000,0.000000,0.231036,0,0,0,0,0,0,0
9,99999,54,90000,90,20000,40,9999,0.100000,0,0,0.000000,5,0.000000,0.000000,1.197376,0,0,0,0,0,0,0
9,99999,55,90000,2,10000,40,9999,0.100000,0,0,0.000000,5,0.000000,0.000000,2.540556,0,0,0,0,0,0,0
9,99999,56,90000,90,0,40,9999,0.100000,0,0,0.000000,5,0.000000,0.000000,0.242542,0,0,0,0,0,0,0
9,99999,57,90000,55,0,40,9999,0.100000,0,0,0.000000,5,0.000000,0.000000,0.153985,0,0,0,0,0,0,0
9,99999,58,90000,90,0,40,9999,0.100000,0,0,0.000000,5,0.000000,0.000000,0.917260,0,0,0,0,0,0,0
9,99999,59,90000,55,0,40,9999,0.100000,0,0,0.000000,5,0.000000,0.000000,2.559239,0,0,0,0,0,0,0
9,99999,60,90000,55,0,40,9999,0.100000,0,0,0.000000,5,0.000000,0.000000,0.123946,0,0,0,0,0,0,0
9,99999,61,90000,2,10000,40,9999,0.100000,0,0,0.000000,5,0.000000,0.000000,1.671461,0,0,0,0,0,0,0
9,99999,62,90000,90,0,40,9999,0.100000,0,0,0.000000,5,0.000000,0.000000,0.162486,0,0,0,0,0,0,0
9,99999,63,90000,90,0,40,9999,0.100000,0,0,0.000000,5,0.000000,0.000000,0.788764,0,0,0,0,0,0,0
9,99999,64,90000,55,0,40,9999,0.100000,0,0,0.000000,5,0.000000,0.000000,0.069496,0,0,0,0,0,0,0
9,99999,65,90000,90,20000,40,9999,0.100000,0,0,0.000000,5,0.000000,0.000000,3.398527,0,0,0,0,0,0,0
9,99999,66,90000,90,0,40,9999,0.100000,0,0,0.000000,5,0.000000,0.000000,0.717571,0,0,0,0,0,0,0
9,99999,67,90000,0,0,40,9999,0.100000,0,0,0.000000,5,0.000000,0.000000,5.641876,0,0,0,0,0,0,0
9,99999,68,90000,90,20000,49,9999,0.100000,0,0,0.000000,5,4.000000,0.000000,9.667820,0,0,0,0,0,0,0
9,99999,69,90000,90,20000,49,9999,0.100000,0,0,0.000000,5,1.000000,0.000000,19.282774,0,0,0,0,0,0,0
9,99999,70,90000,90,0,40,9999,0.100000,0,0,0.000000,5,0.000000,0.000000,0.292756,0,0,0,0,0,0,0
9,99999,71,90000,55,0,49,9999,0.100000,0,0,0.000000,5,3.000000,0.000000,4.446880,0,0,0,0,0,0,0
9,99999,72,90000,2,10000,40,9999,0.100000,0,0,0.000000,5,0.000000,0.000000,0.305328,0,0,0,0,0,0,0
9,99999,73,90000,90,20000,40,9999,0.100000,0,0,0.000000,5,0.000000,0.000000,0.336059,0,0,0,0,0,0,0
9,99999,74,90000,90,20000,9,9999,0.100000,0,0,34.210526,5,7.000000,0.000000,10.486461,0,0,0,0,1,0,0
9,99999,75,90000,90,0,40,9999,0.100000,0,0,0.000000,5,0.000000,0.000000,0.365407,0,0,0,0,0,0,0
9,99999,76,90000,90,20000,40,9999,0.100000,0,0,0.000000,5,0.000000,0.000000,0.185314,0,0,0,0,0,0,0
9,99999,77,90000,90,0,40,9999,0.100000,0,0,0.000000,5,0.000000,0.000000,0.904391,0,0,0,0,0,0,0
9,99999,78,90000,90,0,49,9999,0.100000,0,0,0.000000,5,9.000000,0.000000,18.533135,0,0,0,0,0,0,0
9,99999,79,90000,90,0,40,9999,0.100000,0,0,0.000000,5,0.000000,0.000000,0.076160,0,0,0,0,0,0,0
9,99999,80,90000,0,0,49,9999,0.100000,0,0,0.000000,5,1.000000,0.000000,1.854011,0,0,0,0,0,0,0
9,99999,81,90000,2,10000,49,9999,0.100000,0,0,0.000000,5,6.000000,0.000000,13.738303,0,0,0,0,0,0,0
9,99999,82,90000,90,0,40,9999,0.100000,0,0,0.000000,5,0.000000,0.000000,0.930415,0,0,0,0,0,0,0
9,99999,83,90000,90,0,40,9999,0.100000,0,0,0.000000,5,0.000000,0.000000,0.175424,0,0,0,0,0,0,0
9,99999,84,90000,90,0,9,9999,0.100000,0,0,34.210526,5,7.000000,0.000000,10.936367,0,0,0,0,1,0,0
9,99999,85,90000,0,0,40,9999,0.065000,0,0,0.000000,5,0.000000,0.000000,1.451219,0,0,0,0,0,0,0
9,99999,86,90000,90,20000,40,9999,0.100000,0,0,0.000000,5,0.000000,0.000000,0.227201,0,0,0,0,0,0,0
9,99999,87,80000,2,10000,40,19999,0.100000,0,0,0.000000,5,0.000000,0.000000,1.085199,0,0,0,0,0,0,0
9,99999,88,90000,90,20000,40,9999,0.100000,0,0,0.000000,5,0.000000,0.000000,0.186249,0,0,0,0,0,0,0
9,99999,89,90000,2,10000,40,9999,0.100000,0,0,0.000000,5,0.000000,0.000000,0.827945,0,0,0,0,0,0,0
9,99999,90,90000,2,10000,40,9999,0.100000,0,0,0.000000,5,0.000000,0.000000,0.132912,0,0,0,0,0,0,0
9,99999,91,90000,55,0,40,9999,0.100000,0,0,0.000000,5,0.000000,0.000000,0.195491,0,0,0,0,0,0,0
9,99999,92,90000,2,10000,40,9999,0.100000,0,0,0.000000,5,0.000000,0.000000,0.386729,0,0,0,0,0,0,0
9,99999,93,90000,2,10000,40,9999,0.100000,0,0,0.000000,5,0.000000,0.000000,1.418568,0,0,0,0,0,0,0
9,99999,94,90000,55,0,40,9999,0.100000,0,0,0.000000,5,0.000000,0.000000,0.253330,0,0,0,0,0,0,0
9,99999,95,90000,90,0,40,9999,0.100000,0,0,0.000000,5,0.000000,0.000000,0.700859,0,0,0,0,0,0,0
9,99999,96,90000,90,20000,40,9999,0.100000,0,0,0.000000,5,0.000000,0.000000,0.517530,0,0,0,0,0,0,0
9,99999,97,90000,90,20000,49,9999,0.100000,0,0,0.000000,5,4.000000,0.000000,9.589661,0,0,0,0,0,0,0
9,99999,98,90000,55,0,49,9999,0.100000,0,0,0.000000,5,1.000000,0.000000,6.778537,0,0,0,0,0,0,0
9,99999,99,90000,55,0,49,9999,0.100000,0,0,0.000000,5,9.000000,0.000000,18.530803,0,0,0,0,0,0,0
10,109999,0,100000,55,0,40,9999,0.100000,0,0,0.000000,5,0.000000,0.000000,0.091800,0,0,0,0,0,0,0
10,109999,1,100000,90,20000,40,9999,0.100000,0,0,0.000000,5,0.000000,0.000000,0.541458,0,0,0,0,0,0,0
10,109999,2,100000,90,20000,40,9999,0.100000,0,0,0.000000,5,0.000000,0.000000,0.654469,0,0,0,0,0,0,0
10,109999,3,100000,90,0,40,9999,0.100000,0,0,0.000000,5,0.000000,0.000000,1.342394,0,0,0,0,0,0,0
10,109999,4,100000,55,0,40,9999,0.100000,0,0,0.000000,5,0.000000,0.000000,0.231403,0,0,0,0,0,0,0
10,109999,5,100000,2,10000,40,9999,0.100000,0,0,0.000000,5,0.000000,0.000000,1.153626,0,0,0,0,0,0,0
10,109999,6,100000,55,0,40,9999,0.100000,0,0,0.000000,5,0.000000,0.000000,1.033735,0,0,0,0,0,0,0
10,109999,7,100000,90,0,40,9999,0.100000,0,0,0.000000,5,0.000000,0.000000,0.205075,0,0,0,0,0,0,0
10,109999,8,100000,2,10000,40,9999,0.100000,0,0,0.000000,5,0.000000,0.000000,0.287022,0,0,0,0,0,0,0
10,109999,9,100000,90,0,40,9999,0.100000,0,0,0.000000,5,0.000000,0.000000,2.220958,0,0,0,0,0,0,0
10,109999,10,100000,55,0,40,9999,0.100000,0,0,0.000000,5,0.000000,0.000000,0.082840,0,0,0,0,0,0,0
10,109999,11,100000,90,0,49,9999,0.100000,0,0,0.000000,5,1.000000,0.000000,15.737734,0,0,0,0,0,0,0
10,109999,12,100000,55,0,40,9999,0.100000,0,0,0.000000,5,0.000000,0.000000,0.161150,0,0,0,0,0,0,0
10,109999,13,100000,2,10000,40,9999,0.100000,0,0,0.000000,5,0.000000,0.000000,0.169376,0,0,0,0,0,0,0
10,109999,14,100000,90,20000,40,9999,0.100000,0,0,0.000000,5,0.000000,0.000000,0.075636,0,0,0,0,0,0,0
10,109999,15,100000,90,0,40,9999,0.100000,0,0,0.000000,5,0.000000,0.000000,0.145678,0,0,0,0,0,0,0
10,109999,16,100000,2,10000,40,9999,0.100000,0,0,0.000000,5,0.000000,0.000000,0.771456,0,0,0,0,0,0,0
10,109999,17,100000,55,0,40,9999,0.100000,0,0,0.000000,5,0.000000,0.000000,0.124582,0,0,0,0,0,0,0
10,109999,18,100000,52,90000,49,9999,0.100000,0,0,0.000000,5,1.000000,0.000000,1.419182,0,0,0,0,0,0,0
10,109999,19,100000,90,0,40,9999,0.100000,0,0,0.000000,5,0.000000,0.000000,0.340939,0,0,0,0,0,0,0
10,109999,20,100000,2,10000,49,9999,0.100000,0,0,0.000000,5,1.000000,0.000000,6.355533,0,0,0,0,0,0,0
10,109999,21,100000,90,20000,40,9999,0.100000,0,0,0.000000,5,0.000000,0.000000,0.406702,0,0,0,0,0,0,0
10,109999,22,100000,55,0,40,9999,0.100000,0,0,0.000000,5,0.000000,0.000000,1.303665,0,0,0,0,0,0,0
10,109999,23,100000,55,0,40,9999,0.100000,0,0,0.000000,5,0.000000,0.000000,0.275264,0,0,0,0,0,0,0
10,109999,24,100000,90,0,40,9999,0.100000,0,0,0.000000,5,0.000000,0.000000,1.653291,0,0,0,0,0,0,0
10,109999,25,100000,90,0,40,9999,0.100000,0,0,0.000000,5,0.000000,0.000000,0.225206,0,0,0,0,0,0,0
10,109999,26,100000,90,0,40,9999,0.100000,0,0,0.000000,5,0.000000,0.000000,19.078140,0,0,0,0,0,0,0
10,109999,27,100000,90,20000,40,9999,0.100000,0,0,0.000000,5,0.000000,0.000000,0.265707,0,0,0,0,0,0,0
10,109999,28,100000,2,10000,40,9999,0.100000,0,0,0.000000,5,0.000000,0.000000,0.117898,0,0,0,0,0,0,0
10,109999,29,100000,55,0,40,9999,0.100000,0,0,0.000000,5,0.000000,0.000000,0.111288,0,0,0,0,0,0,0
10,109999,30,100000,2,10000,40,9999,0.100000,0,0,0.000000,5,0.000000,0.000000,23.636821,0,0,0,0,0,0,0
10,109999,31,100000,55,0,40,9999,0.100000,0,0,0.000000,5,0.000000,0.000000,0.080235,0,0,0,0,0,0,0
10,109999,32,100000,90,0,40,9999,0.100000,0,0,0.000000,5,0.000000,0.000000,0.113838,0,0,0,0,0,0,0
10,109999,33,100000,90,20000,40,9999,0.100000,0,0,0.000000,5,0.000000,0.000000,0.574897,0,0,0,0,0,0,0
10,109999,34,100000,52,90000,40,9999,0.100000,0,0,0.000000,5,0.000000,0.000000,0.213876,0,0,0,0,0,0,0
10,109999,35,100000,55,0,40,9999,0.100000,0,0,0.000000,5,0.000000,0.000000,0.091549,0,0,0,0,0,0,0
10,109999,36,100000,90,20000,40,9999,0.100000,0,0,0.000000,5,0.000000,0.000000,0.088872,0,0,0,0,0,0,0
10,109999,37,100000,2,10000,40,9999,0.100000,0,0,0.000000,5,0.000000,0.000000,0.137909,0,0,0,0,0,0,0
10,109999,38,100000,55,0,40,9999,0.100000,0,0,0.000000,5,0.000000,0.000000,0.123980,0,0,0,0,0,0,0
10,109999,39,100000,0,0,40,9999,0.100000,0,0,0.000000,5,0.000000,0.000000,0.255871,0,0,0,0,0,0,0
10,109999,40,100000,55,0,40,9999,0.100000,0,0,0.000000,5,0.000000,0.000000,0.432925,0,0,0,0,0,0,0
10,109999,41,100000,2,10000,40,9999,0.100000,0,0,0.000000,5,0.000000,0.000000,0.102994,0,0,0,0,0,0,0
10,109999,42,100000,90,0,40,9999,0.100000,0,0,0.000000,5,0.000000,0.000000,0.774400,0,0,0,0,0,0,0
10,109999,43,100000,2,10000,40,9999,0.100000,0,0,0.000000,5,0.000000,0.000000,0.345738,0,0,0,0,0,0,0
10,109999,44,100000,90,20000,40,9999,0.100000,0,0,0.000000,5,0.000000,0.000000,1.134165,0,0,0,0,0,0,0
10,109999,45,100000,2,10000,40,9999,0.100000,0,0,0.000000,5,0.000000,0.000000,0.116404,0,0,0,0,0,0,0
10,109999,46,100000,55,0,40,9999,0.100000,0,0,0.000000,5,0.000000,0.000000,4.157974,0,0,0,0,0,0,0
10,109999,47,100000,55,0,40,9999,0.100000,0,0,0.000000,5,0.000000,0.000000,2.178377,0,0,0,0,0,0,0
10,109999,48,100000,2,10000,40,9999,0.100000,0,0,0.000000,5,0.000000,0.000000,0.626373,0,0,0,0,0,0,0
10,109999,49,100000,90,20000,40,9999,0.100000,0,0,0.000000,5,0.000000,0.000000,0.438101,0,0,0,0,0,0,0
10,109999,50,100000,90,0,40,9999,0.100000,0,0,0.000000,5,0.000000,0.000000,0.696043,0,0,0,0,0,0,0
10,109999,51,100000,55,0,40,9999,0.100000,0,0,0.000000,5,0.000000,0.000000,2.754421,0,0,0,0,0,0,0
10,109999,52,100000,55,0,40,9999,0.100000,0,0,0.000000,5,0.000000,0.000000,0.218094,0,0,0,0,0,0,0
10,109999,53,100000,55,0,40,9999,0.100000,0,0,0.000000,5,0.000000,0.000000,0.349108,0,0,0,0,0,0,0
10,109999,54,100000,90,20000,40,9999,0.100000,0,0,0.000000,5,0.000000,0.000000,1.196458,0,0,0,0,0,0,0
10,109999,55,100000,90,0,49,9999,0.100000,0,0,0.000000,5,1.000000,0.000000,12.784975,0,0,0,0,0,0,0
10,109999,56,100000,2,10000,40,9999,0.100000,0,0,0.000000,5,0.000000,0.000000,0.104992,0,0,0,0,0,0,0
10,109999,57,100000,90,20000,40,9999,0.100000,0,0,0.000000,5,0.000000,0.000000,0.144303,0,0,0,0,0,0,0
10,109999,58,100000,90,0,40,9999,0.100000,0,0,0.000000,5,0.000000,0.000000,0.882900,0,0,0,0,0,0,0
10,109999,59,100000,90,20000,40,9999,0.100000,0,0,0.000000,5,0.000000,0.000000,0.130946,0,0,0,0,0,0,0
10,109999,60,100000,2,10000,40,9999,0.100000,0,0,0.000000,5,0.000000,0.000000,0.204137,0,0,0,0,0,0,0
10,109999,61,100000,55,0,49,9999,0.100000,0,0,0.000000,5,1.000000,0.000000,5.556684,0,0,0,0,0,0,0
10,109999,62,100000,2,10000,40,9999,0.100000,0,0,0.000000,5,0.000000,0.000000,0.163405,0,0,0,0,0,0,0
10,109999,63,100000,90,0,40,9999,0.100000,0,0,0.000000,5,0.000000,0.000000,0.545077,0,0,0,0,0,0,0
10,109999,64,100000,52,90000,40,9999,0.100000,0,0,0.000000,5,0.000000,0.000000,0.068977,0,0,0,0,0,0,0
10,109999,65,100000,2,10000,40,9999,0.100000,0,0,0.000000,5,0.000000,0.000000,3.326875,0,0,0,0,0,0,0
10,109999,66,100000,2,10000,40,9999,0.100000,0,0,0.000000,5,0.000000,0.000000,0.232803,0,0,0,0,0,0,0
10,109999,67,100000,90,0,49,9999,0.100000,0,0,0.000000,5,1.000000,0.000000,7.045314,0,0,0,0,0,0,0
10,109999,68,100000,2,10000,40,9999,0.100000,0,0,0.000000,5,0.000000,0.000000,0.733410,0,0,0,0,0,0,0
10,109999,69,100000,2,10000,49,9999,0.100000,0,0,0.000000,5,2.000000,0.000000,7.416157,0,0,0,0,0,0,0
10,109999,70,100000,90,0,40,9999,0.100000,0,0,0.000000,5,0.000000,0.000000,0.207644,0,0,0,0,0,0,0
10,109999,71,100000,2,10000,49,9999,0.100000,0,0,0.000000,5,9.000000,0.000000,39.459522,0,0,0,0,0,0,0
10,109999,72,100000,52,90000,49,9999,0.100000,0,0,0.000000,5,2.000000,0.000000,6.494873,0,0,0,0,0,0,0
10,109999,73,100000,90,0,0,9999,0.100000,0,0,0.000000,5,0.000000,0.000000,0.361753,0,0,0,0,0,2,0
10,109999,74,100000,55,0,49,9999,0.100000,0,0,0.000000,5,3.000000,0.000000,7.462247,0,0,0,0,0,0,0
10,109999,75,100000,52,90000,9,9999,0.100000,0,0,0.000000,5,7.000000,0.000000,16.360563,0,0,0,0,0,1,0
10,109999,76,100000,55,0,40,9999,0.100000,0,0,0.000000,5,0.000000,0.000000,0.130457,0,0,0,0,0,0,0
10,109999,77,100000,2,10000,40,9999,0.100000,0,0,0.000000,5,0.000000,0.000000,0.448432,0,0,0,0,0,0,0
10,109999,78,100000,52,90000,40,9999,0.100000,0,0,0.000000,5,0.000000,0.000000,0.216972,0,0,0,0,0,0,0
10,109999,79,100000,2,10000,40,9999,0.100000,0,0,0.000000,5,0.000000,0.000000,0.077597,0,0,0,0,0,0,0
10,109999,80,100000,90,0,40,9999,0.100000,0,0,0.000000,5,0.000000,0.000000,1.017669,0,0,0,0,0,0,0
10,109999,81,100000,2,10000,40,9999,0.065000,0,0,0.000000,5,0.000000,0.000000,1.309104,0,0,0,0,0,0,0
10,109999,82,100000,0,0,40,9999,0.100000,0,0,0.000000,5,0.000000,0.000000,0.826993,0,0,0,0,0,0,0
10,109999,83,100000,2,10000,40,9999,0.100000,0,0,0.000000,5,0.000000,0.000000,0.165362,0,0,0,0,0,0,0
10,109999,84,100000,2,10000,40,9999,0.100000,0,0,0.000000,5,0.000000,0.000000,0.089627,0,0,0,0,0,0,0
10,109999,85,100000,55,0,40,9999,0.100000,0,0,0.000000,5,0.000000,0.000000,0.773678,0,0,0,0,0,0,0
10,109999,86,100000,55,0,40,9999,0.100000,0,0,0.000000,5,0.000000,0.000000,0.677915,0,0,0,0,0,0,0
10,109999,87,100000,55,0,49,9999,0.100000,0,0,0.000000,5,1.000000,0.000000,1.524291,0,0,0,0,0,0,0
10,109999,88,100000,2,10000,40,9999,0.100000,0,0,0.000000,5,0.000000,0.000000,0.185870,0,0,0,0,0,0,0
10,109999,89,100000,52,90000,40,9999,0.100000,0,0,0.000000,5,0.000000,0.000000,0.772230,0,0,0,0,0,0,0
10,109999,90,100000,90,20000,40,9999,0.100000,0,0,0.000000,5,0.000000,0.000000,0.119522,0,0,0,0,0,0,0
10,109999,91,100000,52,90000,40,9999,0.100000,0,0,0.000000,5,0.000000,0.000000,0.205455,0,0,0,0,0,0,0
10,109999,92,100000,52,90000,40,9999,0.100000,0,0,0.000000,5,0.000000,0.000000,0.333698,0,0,0,0,0,0,0
10,109999,93,100000,90,0,40,9999,0.100000,0,0,0.000000,5,0.000000,0.000000,0.862266,0,0,0,0,0,0,0
10,109999,94,100000,52,90000,49,9999,0.100000,0,0,0.000000,5,1.000000,0.000000,1.676452,0,0,0,0,0,0,0
10,109999,95,100000,90,20000,40,9999,0.100000,0,0,0.000000,5,0.000000,0.000000,0.599920,0,0,0,0,0,0,0
10,109999,96,100000,55,0,40,9999,0.100000,0,0,0.000000,5,0.000000,0.000000,0.333469,0,0,0,0,0,0,0
10,109999,97,100000,90,0,40,9999,0.100000,0,0,0.000000,5,0.000000,0.000000,0.730656,0,0,0,0,0,0,0
10,109999,98,100000,90,0,49,9999,0.100000,0,0,0.000000,5,1.000000,0.000000,12.194555,0,0,0,0,0,0,0
10,109999,99,100000,2,10000,49,9999,0.100000,0,0,0.000000,5,6.000000,0.000000,13.236943,0,0,0,0,0,0,0
11,119999,0,110000,90,0,40,9999,0.100000,0,0,0.000000,5,0.000000,0.000000,0.090516,0,0,0,0,0,0,0
11,119999,1,110000,2,10000,40,9999,0.100000,0,0,0.000000,5,0.000000,0.000000,1.062090,0,0,0,0,0,0,0
11,119999,2,100000,90,20000,40,19999,0.100000,0,0,0.000000,5,0.000000,0.000000,1.931380,0,0,0,0,0,0,0
11,119999,3,110000,90,20000,49,9999,0.100000,0,0,0.000000,5,1.000000,0.000000,2.818222,0,0,0,0,0,0,0
11,119999,4,110000,2,10000,40,9999,0.100000,0,0,0.000000,5,0.000000,0.000000,0.214455,0,0,0,0,0,0,0
11,119999,5,110000,2,10000,49,9999,0.100000,0,0,0.000000,5,7.000000,0.000000,8.159629,0,0,0,0,0,0,0
11,119999,6,110000,2,10000,40,9999,0.100000,0,0,0.000000,5,0.000000,0.000000,0.998273,0,0,0,0,0,0,0
11,119999,7,110000,52,90000,40,9999,0.100000,0,0,0.000000,5,0.000000,0.000000,1.700855,0,0,0,0,0,0,0
11,119999,8,110000,52,90000,40,9999,0.100000,0,0,0.000000,5,0.000000,0.000000,0.284569,0,0,0,0,0,0,0
11,119999,9,110000,2,10000,49,9999,0.100000,0,0,0.000000,5,10.000000,0.000000,18.364893,0,0,0,0,0,0,0
11,119999,10,110000,90,0,40,9999,0.100000,0,0,0.000000,5,0.000000,0.000000,0.082627,0,0,0,0,0,0,0
11,119999,11,110000,90,0,40,9999,0.100000,0,0,0.000000,5,0.000000,0.000000,1.603220,0,0,0,0,0,0,0
11,119999,12,110000,2,10000,40,9999,0.100000,0,0,0.000000,5,0.000000,0.000000,0.168170,0,0,0,0,0,0,0
11,119999,13,110000,2,10000,40,9999,0.100000,0,0,0.000000,5,0.000000,0.000000,0.502999,0,0,0,0,0,0,0
11,119999,14,110000,2,10000,40,9999,0.100000,0,0,0.000000,5,0.000000,0.000000,0.229372,0,0,0,0,0,0,0
11,119999,15,110000,2,10000,40,9999,0.100000,0,0,0.000000,5,0.000000,0.000000,0.146249,0,0,0,0,0,0,0
11,119999,16,110000,2,10000,40,9999,0.100000,0,0,0.000000,5,0.000000,0.000000,2.692090,0,0,0,0,0,0,0
11,119999,17,110000,55,0,40,9999,0.100000,0,0,0.000000,5,0.000000,0.000000,0.122828,0,0,0,0,0,0,0
11,119999,18,110000,90,0,49,9999,0.100000,0,0,0.000000,5,1.000000,0.000000,3.053389,0,0,0,0,0,0,0
11,119999,19,110000,90,0,40,9999,0.100000,0,0,0.000000,5,0.000000,0.000000,0.309384,0,0,0,0,0,0,0
11,119999,20,110000,90,20000,49,9999,0.100000,0,0,0.000000,5,1.000000,0.000000,10.926546,0,0,0,0,0,0,0
11,119999,21,110000,90,0,40,9999,0.100000,0,0,0.000000,5,0.000000,0.000000,0.303297,0,0,0,0,0,0,0
11,119999,22,110000,90,0,40,9999,0.100000,0,0,0.000000,5,0.000000,0.000000,1.938047,0,0,0,0,0,0,0
11,119999,23,110000,2,10000,40,9999,0.100000,0,0,0.000000,5,0.000000,0.000000,0.721833,0,0,0,0,0,0,0
11,119999,24,110000,2,10000,40,9999,0.100000,0,0,0.000000,5,0.000000,0.000000,3.132821,0,0,0,0,0,0,0
11,119999,25,110000,2,10000,40,9999,0.100000,0,0,0.000000,5,0.000000,0.000000,0.799013,0,0,0,0,0,0,0
11,119999,26,110000,52,90000,49,9999,0.100000,0,0,0.000000,5,1.000000,0.000000,21.222892,0,0,0,0,0,0,0
11,119999,27,110000,90,0,40,9999,0.135000,0,0,0.000000,5,0.000000,0.000000,0.503666,0,0,0,0,0,0,0
11,119999,28,110000,52,90000,40,9999,0.100000,0,0,0.000000,5,0.000000,0.000000,0.118282,0,0,0,0,0,0,0
11,119999,29,110000,90,20000,40,9999,0.100000,0,0,0.000000,5,0.000000,0.000000,0.097684,0,0,0,0,0,0,0
11,119999,30,110000,55,0,49,9999,0.100000,0,0,0.000000,5,2.000000,0.000000,9.645505,0,0,0,0,0,0,0
11,119999,31,110000,90,20000,40,9999,0.100000,0,0,0.000000,5,0.000000,0.000000,0.079974,0,0,0,0,0,0,0
11,119999,32,110000,52,90000,40,9999,0.100000,0,0,0.000000,5,0.000000,0.000000,0.112757,0,0,0,0,0,0,0
11,119999,33,110000,90,20000,40,9999,0.100000,0,0,0.000000,5,0.000000,0.000000,4.609349,0,0,0,0,0,0,0
11,119999,34,110000,52,90000,40,9999,0.100000,0,0,0.000000,5,0.000000,0.000000,0.226838,0,0,0,0,0,0,0
11,119999,35,110000,90,0,40,9999,0.100000,0,0,0.000000,5,0.000000,0.000000,0.092192,0,0,0,0,0,0,0
11,119999,36,110000,2,10000,40,9999,0.100000,0,0,0.000000,5,0.000000,0.000000,0.093657,0,0,0,0,0,0,0
11,119999,37,110000,2,10000,40,9999,0.100000,0,0,0.000000,5,0.000000,0.000000,0.164765,0,0,0,0,0,0,0
11,119999,38,110000,90,0,40,9999,0.100000,0,0,0.000000,5,0.000000,0.000000,0.162119,0,0,0,0,0,0,0
11,119999,39,110000,2,10000,40,9999,0.100000,0,0,0.000000,5,0.000000,0.000000,0.260674,0,0,0,0,0,0,0
11,119999,40,110000,90,0,40,9999,0.100000,0,0,0.000000,5,0.000000,0.000000,0.964950,0,0,0,0,0,0,0
11,119999,41,110000,52,90000,40,9999,0.100000,0,0,0.000000,5,0.000000,0.000000,0.099139,0,0,0,0,0,0,0
11,119999,42,110000,90,0,40,9999,0.100000,0,0,0.000000,5,0.000000,0.000000,0.512558,0,0,0,0,0,0,0
11,119999,43,110000,90,20000,40,9999,0.100000,0,0,0.000000,5,0.000000,0.000000,0.715716,0,0,0,0,0,0,0
11,119999,44,110000,90,0,40,9999,0.100000,0,0,0.000000,5,0.000000,0.000000,1.251195,0,0,0,0,0,0,0
11,119999,45,110000,52,90000,40,9999,0.100000,0,0,0.000000,5,0.000000,0.000000,0.074232,0,0,0,0,0,0,0
11,119999,46,110000,2,10000,49,9999,0.100000,0,0,0.000000,5,1.000000,0.000000,7.132360,0,0,0,0,0,0,0
11,119999,47,110000,2,10000,49,9999,0.100000,0,0,0.000000,5,1.000000,0.000000,2.263828,0,0,0,0,0,0,0
11,119999,48,110000,90,0,49,9999,0.100000,0,0,0.000000,5,3.000000,0.000000,7.706502,0,0,0,0,0,0,0
11,119999,49,110000,90,0,40,9999,0.100000,0,0,0.000000,5,0.000000,0.000000,1.160530,0,0,0,0,0,0,0
11,119999,50,110000,90,0,40,9999,0.100000,0,0,0.000000,5,0.000000,0.000000,0.667234,0,0,0,0,0,0,0
11,119999,51,110000,2,10000,49,9999,0.100000,0,0,0.000000,5,1.000000,0.000000,9.608139,0,0,0,0,0,0,0
11,119999,52,110000,55,0,40,9999,0.100000,0,0,0.000000,5,0.000000,0.000000,0.186735,0,0,0,0,0,0,0
11,119999,53,110000,2,10000,40,9999,0.100000,0,0,0.000000,5,0.000000,0.000000,0.365769,0,0,0,0,0,0,0
11,119999,54,110000,90,0,40,9999,0.100000,0,0,0.000000,5,0.000000,0.000000,1.235965,0,0,0,0,0,0,0
11,119999,55,110000,55,0,49,9999,0.100000,0,0,0.000000,5,1.000000,0.000000,4.751696,0,0,0,0,0,0,0
11,119999,56,110000,52,90000,40,9999,0.100000,0,0,0.000000,5,0.000000,0.000000,0.099056,0,0,0,0,0,0,0
11,119999,57,110000,52,90000,40,9999,0.100000,0,0,0.000000,5,0.000000,0.000000,0.978335,0,0,0,0,0,0,0
11,119999,58,110000,52,90000,40,9999,0.100000,0,0,0.000000,5,0.000000,0.000000,0.858873,0,0,0,0,0,0,0
11,119999,59,110000,90,0,40,9999,0.100000,0,0,0.000000,5,0.000000,0.000000,0.088330,0,0,0,0,0,0,0
11,119999,60,110000,52,90000,40,9999,0.100000,0,0,0.000000,5,0.000000,0.000000,0.224158,0,0,0,0,0,0,0
11,119999,61,110000,90,20000,49,9999,0.100000,0,0,0.000000,5,5.000000,0.000000,14.775297,0,0,0,0,0,0,0
11,119999,62,110000,55,0,40,9999,0.100000,0,0,0.000000,5,0.000000,0.000000,0.164425,0,0,0,0,0,0,0
11,119999,63,110000,2,10000,40,9999,0.100000,0,0,0.000000,5,0.000000,0.000000,0.504313,0,0,0,0,0,0,0
11,119999,64,110000,90,20000,40,9999,0.100000,0,0,0.000000,5,0.000000,0.000000,0.068427,0,0,0,0,0,0,0
11,119999,65,110000,90,0,40,9999,0.100000,0,0,0.000000,5,0.000000,0.000000,3.387149,0,0,0,0,0,0,0
11,119999,66,110000,52,90000,40,9999,0.100000,0,0,0.000000,5,0.000000,0.000000,0.990652,0,0,0,0,0,0,0
11,119999,67,110000,55,0,49,9999,0.100000,0,0,0.000000,5,11.000000,0.000000,27.235640,0,0,0,0,0,0,0
11,119999,68,110000,90,0,40,9999,0.100000,0,0,0.000000,5,0.000000,0.000000,1.274270,0,0,0,0,0,0,0
11,119999,69,110000,55,0,49,9999,0.100000,0,0,0.000000,5,2.000000,0.000000,14.225163,0,0,0,0,0,0,0
11,119999,70,110000,90,0,40,9999,0.100000,0,0,0.000000,5,0.000000,0.000000,0.460169,0,0,0,0,0,0,0
11,119999,71,110000,90,0,40,9999,0.100000,0,0,0.000000,5,0.000000,0.000000,0.132631,0,0,0,0,0,0,0
11,119999,72,110000,90,0,49,9999,0.100000,0,0,0.000000,5,1.000000,0.000000,1.986788,0,0,0,0,0,0,0
11,119999,73,110000,90,0,40,9999,0.100000,0,0,0.000000,5,0.000000,0.000000,0.257155,0,0,0,0,0,0,0
11,119999,74,110000,90,0,40,9999,0.100000,0,0,0.000000,5,0.000000,0.000000,1.350530,0,0,0,0,0,0,0
11,119999,75,110000,52,90000,40,9999,0.100000,0,0,0.000000,5,0.000000,0.000000,0.407235,0,0,0,0,0,0,0
11,119999,76,110000,90,20000,40,9999,0.100000,0,0,0.000000,5,0.000000,0.000000,0.091345,0,0,0,0,0,0,0
11,119999,77,110000,90,0,40,9999,0.100000,0,0,0.000000,5,0.000000,0.000000,1.428034,0,0,0,0,0,0,0
11,119999,78,110000,55,0,40,9999,0.100000,0,0,0.000000,5,0.000000,0.000000,0.824129,0,0,0,0,0,0,0
11,119999,79,110000,55,0,40,9999,0.100000,0,0,0.000000,5,0.000000,0.000000,0.076371,0,0,0,0,0,0,0
11,119999,80,110000,52,90000,9,9999,0.100000,0,0,34.210526,5,2.000000,0.000000,7.316595,0,0,0,1,0,0,0
11,119999,81,110000,2,10000,40,9999,0.100000,0,0,0.000000,5,0.000000,0.000000,1.477665,0,0,0,0,0,0,0
11,119999,82,110000,90,20000,40,9999,0.100000,0,0,0.000000,5,0.000000,0.000000,0.792415,0,0,0,0,0,0,0
11,119999,83,110000,2,10000,40,9999,0.100000,0,0,0.000000,5,0.000000,0.000000,0.162256,0,0,0,0,0,0,0
11,119999,84,110000,55,0,40,9999,0.100000,0,0,0.000000,5,0.000000,0.000000,0.070334,0,0,0,0,0,0,0
11,119999,85,110000,52,90000,40,9999,0.100000,0,0,0.000000,5,0.000000,0.000000,0.804659,0,0,0,0,0,0,0
11,119999,86,110000,2,10000,40,9999,0.100000,0,0,0.000000,5,0.000000,0.000000,0.215023,0,0,0,0,0,0,0
11,119999,87,110000,90,0,49,9999,0.100000,0,0,0.000000,5,1.000000,0.000000,3.271384,0,0,0,0,0,0,0
11,119999,88,110000,52,90000,40,9999,0.100000,0,0,0.000000,5,0.000000,0.000000,0.756413,0,0,0,0,0,0,0
11,119999,89,110000,2,10000,40,9999,0.100000,0,0,0.000000,5,0.000000,0.000000,0.713856,0,0,0,0,0,0,0
11,119999,90,110000,2,10000,40,9999,0.100000,0,0,0.000000,5,0.000000,0.000000,0.279015,0,0,0,0,0,0,0
11,119999,91,110000,90,0,40,9999,0.100000,0,0,0.000000,5,0.000000,0.000000,0.205694,0,0,0,0,0,0,0
11,119999,92,110000,2,10000,40,9999,0.100000,0,0,0.000000,5,0.000000,0.000000,1.352708,0,0,0,0,0,0,0
11,119999,93,110000,55,0,9,9999,0.100000,0,0,34.210526,5,2.000000,0.000000,7.613786,0,0,0,1,0,0,0
11,119999,94,110000,2,10000,49,9999,0.100000,0,0,0.000000,5,1.000000,0.000000,3.529893,0,0,0,0,0,0,0
11,119999,95,110000,52,90000,40,9999,0.100000,0,0,0.000000,5,0.000000,0.000000,0.544077,0,0,0,0,0,0,0
11,119999,96,110000,90,20000,40,9999,0.100000,0,0,0.000000,5,0.000000,0.000000,1.063250,0,0,0,0,0,0,0
11,119999,97,110000,52,90000,40,9999,0.100000,0,0,0.000000,5,0.000000,0.000000,1.037105,0,0,0,0,0,0,0
11,119999,98,110000,52,90000,40,9999,0.100000,0,0,0.000000,5,0.000000,0.000000,5.449264,0,0,0,0,0,0,0
11,119999,99,110000,90,0,40,9999,0.100000,0,0,0.000000,5,0.000000,0.000000,0.009330,0,0,0,0,0,0,0
12,129999,0,120000,55,0,40,9999,0.100000,0,0,0.000000,5,0.000000,0.000000,0.090685,0,0,0,0,0,0,0
12,129999,1,120000,90,20000,40,9999,0.100000,0,0,0.000000,5,0.000000,0.000000,1.111820,0,0,0,0,0,0,0
12,129999,2,120000,90,0,49,9999,0.100000,0,0,0.000000,5,12.000000,0.000000,15.909490,0,0,0,0,0,0,0
12,129999,3,120000,52,90000,49,9999,0.100000,0,0,0.000000,5,4.000000,0.000000,8.657226,0,0,0,0,0,0,0
12,129999,4,120000,90,0,40,9999,0.100000,0,0,0.000000,5,0.000000,0.000000,0.221246,0,0,0,0,0,0,0
12,129999,5,120000,2,10000,40,9999,0.100000,0,0,0.000000,5,0.000000,0.000000,0.236397,0,0,0,0,0,0,0
12,129999,6,120000,90,0,40,9999,0.100000,0,0,0.000000,5,0.000000,0.000000,0.753796,0,0,0,0,0,0,0
12,129999,7,120000,52,90000,40,9999,0.100000,0,0,0.000000,5,0.000000,0.000000,0.558062,0,0,0,0,0,0,0
12,129999,8,120000,2,10000,40,9999,0.100000,0,0,0.000000,5,0.000000,0.000000,0.221167,0,0,0,0,0,0,0
12,129999,9,120000,90,20000,49,9999,0.100000,0,0,0.000000,5,4.000000,0.000000,5.933955,0,0,0,0,0,0,0
12,129999,10,120000,90,20000,40,9999,0.100000,0,0,0.000000,5,0.000000,0.000000,0.084956,0,0,0,0,0,0,0
12,129999,11,120000,55,0,40,9999,0.100000,0,0,0.000000,5,0.000000,0.000000,0.211011,0,0,0,0,0,0,0
12,129999,12,120000,55,0,40,9999,0.100000,0,0,0.000000,5,0.000000,0.000000,1.287191,0,0,0,0,0,0,0
12,129999,13,120000,2,10000,40,9999,0.100000,0,0,0.000000,5,0.000000,0.000000,0.435360,0,0,0,0,0,0,0
12,129999,14,120000,90,20000,40,9999,0.100000,0,0,0.000000,5,0.000000,0.000000,0.118522,0,0,0,0,0,0,0
12,129999,15,120000,2,10000,40,9999,0.100000,0,0,0.000000,5,0.000000,0.000000,0.140050,0,0,0,0,0,0,0
12,129999,16,120000,90,20000,40,9999,0.100000,0,0,0.000000,5,0.000000,0.000000,0.147463,0,0,0,0,0,0,0
12,129999,17,120000,90,0,40,9999,0.100000,0,0,0.000000,5,0.000000,0.000000,0.144123,0,0,0,0,0,0,0
12,129999,18,120000,55,0,49,9999,0.100000,0,0,0.000000,5,1.000000,0.000000,2.733275,0,0,0,0,0,0,0
12,129999,19,120000,90,0,40,9999,0.100000,0,0,0.000000,5,0.000000,0.000000,0.225392,0,0,0,0,0,0,0
12,129999,20,120000,55,0,49,9999,0.100000,0,0,0.000000,5,1.000000,0.000000,5.410199,0,0,0,0,0,0,0
12,129999,21,120000,55,0,40,9999,0.100000,0,0,0.000000,5,0.000000,0.000000,0.606755,0,0,0,0,0,0,0
12,129999,22,120000,90,20000,40,9999,0.100000,0,0,0.000000,5,0.000000,0.000000,1.371411,0,0,0,0,0,0,0
12,129999,23,120000,90,0,40,9999,0.100000,0,0,0.000000,5,0.000000,0.000000,0.262820,0,0,0,0,0,0,0
12,129999,24,120000,90,0,40,9999,0.100000,0,0,0.000000,5,0.000000,0.000000,3.321473,0,0,0,0,0,0,0
12,129999,25,120000,55,0,49,9999,0.100000,0,0,0.000000,5,1.000000,0.000000,1.906028,0,0,0,0,0,0,0
12,129999,26,120000,2,10000,49,9999,0.100000,0,0,0.000000,5,1.000000,0.000000,22.284735,0,0,0,0,0,0,0
12,129999,27,120000,90,0,40,9999,0.100000,0,0,0.000000,5,0.000000,0.000000,0.566515,0,0,0,0,0,0,0
12,129999,28,120000,55,0,40,9999,0.100000,0,0,0.000000,5,0.000000,0.000000,0.129830,0,0,0,0,0,0,0
12,129999,29,120000,2,10000,40,9999,0.100000,0,0,0.000000,5,0.000000,0.000000,0.108220,0,0,0,0,0,0,0
12,129999,30,120000,55,0,40,9999,0.100000,0,0,0.000000,5,0.000000,0.000000,0.260538,0,0,0,0,0,0,0
12,129999,31,120000,52,90000,40,9999,0.100000,0,0,0.000000,5,0.000000,0.000000,0.080445,0,0,0,0,0,0,0
12,129999,32,120000,90,0,40,9999,0.100000,0,0,0.000000,5,0.000000,0.000000,0.111407,0,0,0,0,0,0,0
12,129999,33,120000,2,10000,40,9999,0.100000,0,0,0.000000,5,0.000000,0.000000,7.944033,0,0,0,0,0,0,0
12,129999,34,120000,90,0,40,9999,0.100000,0,0,0.000000,5,0.000000,0.000000,0.240604,0,0,0,0,0,0,0
12,129999,35,120000,52,90000,40,9999,0.100000,0,0,0.000000,5,0.000000,0.000000,0.092241,0,0,0,0,0,0,0
12,129999,36,120000,90,110000,40,9999,0.100000,0,0,0.000000,5,0.000000,0.000000,0.099662,0,0,0,0,0,0,0
12,129999,37,120000,52,90000,40,9999,0.100000,0,0,0.000000,5,0.000000,0.000000,0.094766,0,0,0,0,0,0,0
12,129999,38,120000,55,0,40,9999,0.100000,0,0,0.000000,5,0.000000,0.000000,0.119386,0,0,0,0,0,0,0
12,129999,39,120000,52,90000,40,9999,0.100000,0,0,0.000000,5,0.000000,0.000000,0.220383,0,0,0,0,0,0,0
12,129999,40,120000,55,0,40,9999,0.100000,0,0,0.000000,5,0.000000,0.000000,0.211032,0,0,0,0,0,0,0
12,129999,41,120000,55,0,40,9999,0.100000,0,0,0.000000,5,0.000000,0.000000,0.092785,0,0,0,0,0,0,0
12,129999,42,120000,90,0,40,9999,0.100000,0,0,0.000000,5,0.000000,0.000000,0.390964,0,0,0,0,0,0,0
12,129999,43,120000,52,90000,40,9999,0.100000,0,0,0.000000,5,0.000000,0.000000,0.306565,0,0,0,0,0,0,0
