generation,iteration,robot,birthday,ancestor_id,ancestor_birthday,cell_id,age,sigma,maps,genomes,fitness,cells_in_map,dist_max,dist_pot_max,dist_total,com_rx,com_tx,obj_group1,obj_group2,obj_group3,obj_group4,obj_group5
0,9999,0,0,0,0,49,9999,0.100000,0,0,0.000000,0,10.000000,0.000000,19.902355,0,0,0,0,0,0,0
0,9999,1,0,1,0,49,9999,0.100000,0,0,0.000000,0,7.000000,0.000000,13.774085,0,0,0,0,0,0,0
0,9999,2,0,2,0,49,9999,0.100000,0,0,0.000000,0,11.000000,0.000000,15.470838,0,0,0,0,0,0,0
0,9999,3,0,3,0,49,9999,0.100000,0,0,0.000000,0,4.000000,0.000000,13.286253,0,0,0,0,0,0,0
0,9999,4,0,4,0,49,9999,0.100000,0,0,0.000000,0,6.000000,0.000000,7.909950,0,0,0,0,0,0,0
0,9999,5,0,5,0,49,9999,0.100000,0,0,0.000000,0,2.000000,0.000000,3.858271,0,0,0,0,0,0,0
0,9999,6,0,6,0,49,9999,0.100000,0,0,0.000000,0,7.000000,0.000000,9.988422,0,0,0,0,0,0,0
0,9999,7,0,7,0,49,9999,0.100000,0,0,0.000000,0,8.000000,0.000000,15.676328,0,0,0,0,0,0,0
0,9999,8,0,8,0,49,9999,0.100000,0,0,0.000000,0,9.000000,0.000000,23.447980,0,0,0,0,0,0,0
0,9999,9,0,9,0,49,9999,0.100000,0,0,0.000000,0,5.000000,0.000000,7.274338,0,0,0,0,0,0,0
0,9999,10,0,10,0,49,9999,0.100000,0,0,0.000000,0,9.000000,0.000000,11.283513,0,0,0,0,0,0,0
0,9999,11,0,11,0,49,9999,0.100000,0,0,0.000000,0,9.000000,0.000000,20.478150,0,0,0,0,0,0,0
0,9999,12,0,12,0,49,9999,0.100000,0,0,0.000000,0,9.000000,0.000000,13.494686,0,0,0,0,0,0,0
0,9999,13,0,13,0,49,9999,0.100000,0,0,0.000000,0,9.000000,0.000000,18.763505,0,0,0,0,0,0,0
0,9999,14,0,14,0,49,9999,0.100000,0,0,0.000000,0,13.000000,0.000000,29.814700,0,0,0,0,0,0,0
0,9999,15,0,15,0,49,9999,0.100000,0,0,0.000000,0,10.000000,0.000000,11.238681,0,0,0,0,0,0,0
0,9999,16,0,16,0,49,9999,0.100000,0,0,0.000000,0,8.000000,0.000000,10.251538,0,0,0,0,0,0,0
0,9999,17,0,17,0,49,9999,0.100000,0,0,0.000000,0,8.000000,0.000000,18.584568,0,0,0,0,0,0,0
0,9999,18,0,18,0,49,9999,0.100000,0,0,0.000000,0,4.000000,0.000000,6.623901,0,0,0,0,0,0,0
0,9999,19,0,19,0,49,9999,0.100000,0,0,0.000000,0,2.000000,0.000000,3.759033,0,0,0,0,0,0,0
0,9999,20,0,20,0,49,9999,0.100000,0,0,0.000000,0,10.000000,0.000000,12.161327,0,0,0,0,0,0,0
0,9999,21,0,21,0,49,9999,0.100000,0,0,0.000000,0,8.000000,0.000000,10.355129,0,0,0,0,0,0,0
0,9999,22,0,22,0,49,9999,0.100000,0,0,0.000000,0,5.000000,0.000000,5.786560,0,0,0,0,0,0,0
0,9999,23,0,23,0,49,9999,0.100000,0,0,0.000000,0,3.000000,0.000000,3.836530,0,0,0,0,0,0,0
0,9999,24,0,24,0,49,9999,0.100000,0,0,0.000000,0,8.000000,0.000000,16.850373,0,0,0,0,0,0,0
0,9999,25,0,25,0,49,9999,0.100000,0,0,0.000000,0,8.000000,0.000000,11.242153,0,0,0,0,0,0,0
0,9999,26,0,26,0,49,9999,0.100000,0,0,0.000000,0,10.000000,0.000000,25.650810,0,0,0,0,0,0,0
0,9999,27,0,27,0,49,9999,0.100000,0,0,0.000000,0,11.000000,0.000000,13.236046,0,0,0,0,0,0,0
0,9999,28,0,28,0,49,9999,0.100000,0,0,0.000000,0,7.000000,0.000000,8.180846,0,0,0,0,0,0,0
0,9999,29,0,29,0,49,9999,0.100000,0,0,0.000000,0,4.000000,0.000000,9.906790,0,0,0,0,0,0,0
0,9999,30,0,30,0,49,9999,0.100000,0,0,0.000000,0,10.000000,0.000000,17.091828,0,0,0,0,0,0,0
0,9999,31,0,31,0,49,9999,0.100000,0,0,0.000000,0,4.000000,0.000000,5.232083,0,0,0,0,0,0,0
0,9999,32,0,32,0,49,9999,0.100000,0,0,0.000000,0,4.000000,0.000000,21.450487,0,0,0,0,0,0,0
0,9999,33,0,33,0,49,9999,0.100000,0,0,0.000000,0,10.000000,0.000000,17.852166,0,0,0,0,0,0,0
0,9999,34,0,34,0,49,9999,0.100000,0,0,0.000000,0,8.000000,0.000000,12.475493,0,0,0,0,0,0,0
0,9999,35,0,35,0,49,9999,0.100000,0,0,0.000000,0,8.000000,0.000000,16.532822,0,0,0,0,0,0,0
0,9999,36,0,36,0,49,9999,0.100000,0,0,0.000000,0,7.000000,0.000000,9.037581,0,0,0,0,0,0,0
0,9999,37,0,37,0,49,9999,0.100000,0,0,0.000000,0,2.000000,0.000000,8.305708,0,0,0,0,0,0,0
0,9999,38,0,38,0,49,9999,0.100000,0,0,0.000000,0,9.000000,0.000000,19.461882,0,0,0,0,0,0,0
0,9999,39,0,39,0,49,9999,0.100000,0,0,0.000000,0,18.000000,0.000000,38.555591,0,0,0,0,0,0,0
0,9999,40,0,40,0,49,9999,0.100000,0,0,0.000000,0,6.000000,0.000000,7.533419,0,0,0,0,0,0,0
0,9999,41,0,41,0,49,9999,0.100000,0,0,0.000000,0,9.000000,0.000000,15.523652,0,0,0,0,0,0,0
0,9999,42,0,42,0,49,9999,0.100000,0,0,0.000000,0,9.000000,0.000000,10.084161,0,0,0,0,0,0,0
0,9999,43,0,43,0,49,9999,0.100000,0,0,0.000000,0,4.000000,0.000000,25.516990,0,0,0,0,0,0,0
0,9999,44,0,44,0,49,9999,0.100000,0,0,0.000000,0,11.000000,0.000000,13.623636,0,0,0,0,0,0,0
0,9999,45,0,45,0,49,9999,0.100000,0,0,0.000000,0,9.000000,0.000000,13.165636,0,0,0,0,0,0,0
0,9999,46,0,46,0,49,9999,0.100000,0,0,0.000000,0,6.000000,0.000000,19.288987,0,0,0,0,0,0,0
0,9999,47,0,47,0,49,9999,0.100000,0,0,0.000000,0,7.000000,0.000000,12.994238,0,0,0,0,0,0,0
0,9999,48,0,48,0,49,9999,0.100000,0,0,0.000000,0,7.000000,0.000000,24.278584,0,0,0,0,0,0,0
0,9999,49,0,49,0,49,9999,0.100000,0,0,0.000000,0,12.000000,0.000000,14.287757,0,0,0,0,0,0,0
0,9999,50,0,50,0,49,9999,0.100000,0,0,0.000000,0,7.000000,0.000000,9.412125,0,0,0,0,0,0,0
0,9999,51,0,51,0,49,9999,0.100000,0,0,0.000000,0,12.000000,0.000000,17.758952,0,0,0,0,0,0,0
0,9999,52,0,52,0,49,9999,0.100000,0,0,0.000000,0,9.000000,0.000000,10.465974,0,0,0,0,0,0,0
0,9999,53,0,53,0,49,9999,0.100000,0,0,0.000000,0,6.000000,0.000000,6.801807,0,0,0,0,0,0,0
0,9999,54,0,54,0,49,9999,0.100000,0,0,0.000000,0,9.000000,0.000000,12.280553,0,0,0,0,0,0,0
0,9999,55,0,55,0,49,9999,0.100000,0,0,0.000000,0,8.000000,0.000000,12.210748,0,0,0,0,0,0,0
0,9999,56,0,56,0,49,9999,0.100000,0,0,0.000000,0,7.000000,0.000000,21.440301,0,0,0,0,0,0,0
0,9999,57,0,57,0,49,9999,0.100000,0,0,0.000000,0,5.000000,0.000000,9.115619,0,0,0,0,0,0,0
0,9999,58,0,58,0,49,9999,0.100000,0,0,0.000000,0,1.000000,0.000000,2.085130,0,0,0,0,0,0,0
0,9999,59,0,59,0,49,9999,0.100000,0,0,0.000000,0,10.000000,0.000000,10.606422,0,0,0,0,0,0,0
0,9999,60,0,60,0,49,9999,0.100000,0,0,0.000000,0,11.000000,0.000000,12.761235,0,0,0,0,0,0,0
0,9999,61,0,61,0,49,9999,0.100000,0,0,0.000000,0,6.000000,0.000000,13.158020,0,0,0,0,0,0,0
0,9999,62,0,62,0,49,9999,0.100000,0,0,0.000000,0,8.000000,0.000000,8.889453,0,0,0,0,0,0,0
0,9999,63,0,63,0,49,9999,0.100000,0,0,0.000000,0,6.000000,0.000000,9.370423,0,0,0,0,0,0,0
0,9999,64,0,64,0,49,9999,0.100000,0,0,0.000000,0,10.000000,0.000000,11.453516,0,0,0,0,0,0,0
0,9999,65,0,65,0,49,9999,0.100000,0,0,0.000000,0,7.000000,0.000000,8.156237,0,0,0,0,0,0,0
0,9999,66,0,66,0,49,9999,0.100000,0,0,0.000000,0,7.000000,0.000000,15.331193,0,0,0,0,0,0,0
0,9999,67,0,67,0,49,9999,0.100000,0,0,0.000000,0,3.000000,0.000000,5.986135,0,0,0,0,0,0,0
0,9999,68,0,68,0,99,9999,0.100000,0,0,47.368421,0,10.000000,0.000000,34.567250,0,0,1,0,0,0,0
0,9999,69,0,69,0,49,9999,0.100000,0,0,0.000000,0,7.000000,0.000000,14.457468,0,0,0,0,0,0,0
0,9999,70,0,70,0,49,9999,0.100000,0,0,0.000000,0,11.000000,0.000000,21.277642,0,0,0,0,0,0,0
0,9999,71,0,71,0,49,9999,0.100000,0,0,0.000000,0,8.000000,0.000000,8.693800,0,0,0,0,0,0,0
0,9999,72,0,72,0,49,9999,0.100000,0,0,0.000000,0,7.000000,0.000000,10.837273,0,0,0,0,0,0,0
0,9999,73,0,73,0,49,9999,0.100000,0,0,0.000000,0,9.000000,0.000000,31.501818,0,0,0,0,0,0,0
0,9999,74,0,74,0,49,9999,0.100000,0,0,0.000000,0,5.000000,0.000000,6.785434,0,0,0,0,0,0,0
0,9999,75,0,75,0,49,9999,0.100000,0,0,0.000000,0,4.000000,0.000000,16.679572,0,0,0,0,0,0,0
0,9999,76,0,76,0,49,9999,0.100000,0,0,0.000000,0,7.000000,0.000000,12.483201,0,0,0,0,0,0,0
0,9999,77,0,77,0,49,9999,0.100000,0,0,0.000000,0,9.000000,0.000000,14.025536,0,0,0,0,0,0,0
0,9999,78,0,78,0,49,9999,0.100000,0,0,0.000000,0,4.000000,0.000000,12.689863,0,0,0,0,0,0,0
0,9999,79,0,79,0,49,9999,0.100000,0,0,0.000000,0,9.000000,0.000000,10.561267,0,0,0,0,0,0,0
0,9999,80,0,80,0,49,9999,0.100000,0,0,0.000000,0,8.000000,0.000000,16.631978,0,0,0,0,0,0,0
0,9999,81,0,81,0,49,9999,0.100000,0,0,0.000000,0,10.000000,0.000000,11.842761,0,0,0,0,0,0,0
0,9999,82,0,82,0,49,9999,0.100000,0,0,0.000000,0,8.000000,0.000000,9.720111,0,0,0,0,0,0,0
0,9999,83,0,83,0,49,9999,0.100000,0,0,0.000000,0,5.000000,0.000000,12.943854,0,0,0,0,0,0,0
0,9999,84,0,84,0,49,9999,0.100000,0,0,0.000000,0,8.000000,0.000000,14.404641,0,0,0,0,0,0,0
0,9999,85,0,85,0,49,9999,0.100000,0,0,0.000000,0,6.000000,0.000000,15.244455,0,0,0,0,0,0,0
0,9999,86,0,86,0,49,9999,0.100000,0,0,0.000000,0,8.000000,0.000000,10.367486,0,0,0,0,0,0,0
0,9999,87,0,87,0,49,9999,0.100000,0,0,0.000000,0,5.000000,0.000000,17.815579,0,0,0,0,0,0,0
0,9999,88,0,88,0,49,9999,0.100000,0,0,0.000000,0,10.000000,0.000000,17.813881,0,0,0,0,0,0,0
0,9999,89,0,89,0,49,9999,0.100000,0,0,0.000000,0,9.000000,0.000000,18.690361,0,0,0,0,0,0,0
0,9999,90,0,90,0,49,9999,0.100000,0,0,0.000000,0,5.000000,0.000000,6.188383,0,0,0,0,0,0,0
0,9999,91,0,91,0,49,9999,0.100000,0,0,0.000000,0,9.000000,0.000000,19.343153,0,0,0,0,0,0,0
0,9999,92,0,92,0,49,9999,0.100000,0,0,0.000000,0,5.000000,0.000000,20.964361,0,0,0,0,0,0,0
0,9999,93,0,93,0,49,9999,0.100000,0,0,0.000000,0,6.000000,0.000000,15.695861,0,0,0,0,0,0,0
0,9999,94,0,94,0,49,9999,0.100000,0,0,0.000000,0,5.000000,0.000000,10.373849,0,0,0,0,0,0,0
0,9999,95,0,95,0,49,9999,0.100000,0,0,0.000000,0,9.000000,0.000000,12.247481,0,0,0,0,0,0,0
0,9999,96,0,96,0,49,9999,0.100000,0,0,0.000000,0,7.000000,0.000000,15.405521,0,0,0,0,0,0,0
0,9999,97,0,97,0,49,9999,0.100000,0,0,0.000000,0,8.000000,0.000000,11.924291,0,0,0,0,0,0,0
0,9999,98,0,98,0,49,9999,0.100000,0,0,0.000000,0,3.000000,0.000000,8.077598,0,0,0,0,0,0,0
0,9999,99,0,99,0,49,9999,0.100000,0,0,0.000000,0,5.000000,0.000000,11.014127,0,0,0,0,0,0,0
1,19999,0,10000,0,0,49,9999,0.100000,0,0,0.000000,2,1.000000,0.000000,4.312248,0,0,0,0,0,0,0
1,19999,1,10000,3,0,40,9999,0.100000,0,0,0.000000,2,0.000000,0.000000,0.430374,0,0,0,0,0,0,0
1,19999,2,10000,3,0,40,9999,0.100000,0,0,0.000000,2,0.000000,0.000000,1.869237,0,0,0,0,0,0,0
1,19999,3,10000,3,0,49,9999,0.100000,0,0,0.000000,2,2.000000,0.000000,8.855230,0,0,0,0,0,0,0
1,19999,4,10000,9,0,40,9999,0.100000,0,0,0.000000,2,0.000000,0.000000,0.485139,0,0,0,0,0,0,0
1,19999,5,10000,3,0,40,9999,0.100000,0,0,0.000000,2,0.000000,0.000000,0.622057,0,0,0,0,0,0,0
1,19999,6,10000,3,0,40,9999,0.100000,0,0,0.000000,2,0.000000,0.000000,0.492783,0,0,0,0,0,0,0
1,19999,7,10000,15,0,49,9999,0.100000,0,0,0.000000,2,2.000000,0.000000,3.931148,0,0,0,0,0,0,0
1,19999,8,10000,21,0,40,9999,0.100000,0,0,0.000000,2,0.000000,0.000000,0.454354,0,0,0,0,0,0,0
1,19999,9,10000,9,0,40,9999,0.100000,0,0,0.000000,1,0.000000,0.000000,0.097413,0,0,0,0,0,0,0
1,19999,10,10000,3,0,49,9999,0.100000,0,0,0.000000,2,2.000000,0.000000,5.144045,0,0,0,0,0,0,0
1,19999,11,10000,3,0,49,9999,0.100000,0,0,0.000000,2,3.000000,0.000000,4.885656,0,0,0,0,0,0,0
1,19999,12,10000,3,0,40,9999,0.100000,0,0,0.000000,2,0.000000,0.000000,0.453271,0,0,0,0,0,0,0
1,19999,13,10000,4,0,40,9999,0.100000,0,0,0.000000,2,0.000000,0.000000,0.070597,0,0,0,0,0,0,0
1,19999,14,10000,15,0,49,9999,0.100000,0,0,0.000000,2,2.000000,0.000000,4.947801,0,0,0,0,0,0,0
1,19999,15,10000,3,0,40,9999,0.100000,0,0,0.000000,2,0.000000,0.000000,0.256045,0,0,0,0,0,0,0
1,19999,16,10000,21,0,40,9999,0.100000,0,0,0.000000,2,0.000000,0.000000,0.144128,0,0,0,0,0,0,0
1,19999,17,10000,15,0,49,9999,0.100000,0,0,0.000000,2,1.000000,0.000000,4.186886,0,0,0,0,0,0,0
1,19999,18,10000,3,0,40,9999,0.100000,0,0,0.000000,2,0.000000,0.000000,0.066999,0,0,0,0,0,0,0
1,19999,19,10000,0,0,40,9999,0.100000,0,0,0.000000,2,0.000000,0.000000,0.883304,0,0,0,0,0,0,0
1,19999,20,10000,0,0,40,9999,0.100000,0,0,0.000000,2,0.000000,0.000000,0.242771,0,0,0,0,0,0,0
1,19999,21,10000,21,0,40,9999,0.100000,0,0,0.000000,2,0.000000,0.000000,0.993120,0,0,0,0,0,0,0
1,19999,22,10000,0,0,40,9999,0.100000,0,0,0.000000,2,0.000000,0.000000,0.125754,0,0,0,0,0,0,0
1,19999,23,10000,15,0,40,9999,0.100000,0,0,0.000000,2,0.000000,0.000000,0.072708,0,0,0,0,0,0,0
1,19999,24,10000,3,0,49,9999,0.100000,0,0,0.000000,2,2.000000,0.000000,3.910118,0,0,0,0,0,0,0
1,19999,25,10000,0,0,40,9999,0.100000,0,0,0.000000,2,0.000000,0.000000,0.646512,0,0,0,0,0,0,0
1,19999,26,10000,21,0,40,9999,0.100000,0,0,0.000000,2,0.000000,0.000000,4.757204,0,0,0,0,0,0,0
1,19999,27,10000,21,0,40,9999,0.100000,0,0,0.000000,2,0.000000,0.000000,0.094855,0,0,0,0,0,0,0
1,19999,28,10000,0,0,40,9999,0.100000,0,0,0.000000,2,0.000000,0.000000,0.167993,0,0,0,0,0,0,0
1,19999,29,10000,15,0,40,9999,0.100000,0,0,0.000000,2,0.000000,0.000000,0.065648,0,0,0,0,0,0,0
1,19999,30,10000,0,0,40,9999,0.100000,0,0,0.000000,2,0.000000,0.000000,2.285058,0,0,0,0,0,0,0
1,19999,31,10000,15,0,40,9999,0.100000,0,0,0.000000,2,0.000000,0.000000,0.098853,0,0,0,0,0,0,0
1,19999,32,0,32,0,49,19999,0.100000,0,0,0.000000,2,3.000000,0.000000,17.960333,0,0,0,0,0,0,0
1,19999,33,10000,3,0,49,9999,0.100000,0,0,0.000000,2,1.000000,0.000000,4.943580,0,0,0,0,0,0,0
1,19999,34,10000,3,0,40,9999,0.100000,0,0,0.000000,2,0.000000,0.000000,0.093407,0,0,0,0,0,0,0
1,19999,35,10000,15,0,49,9999,0.100000,0,0,0.000000,2,1.000000,0.000000,5.216774,0,0,0,0,0,0,0
1,19999,36,10000,3,0,40,9999,0.100000,0,0,0.000000,2,0.000000,0.000000,0.389559,0,0,0,0,0,0,0
1,19999,37,10000,15,0,40,9999,0.100000,0,0,0.000000,2,0.000000,0.000000,0.664633,0,0,0,0,0,0,0
1,19999,38,10000,15,0,49,9999,0.100000,0,0,0.000000,2,1.000000,0.000000,5.504608,0,0,0,0,0,0,0
1,19999,39,10000,15,0,49,9999,0.100000,0,0,0.000000,2,2.000000,0.000000,7.686773,0,0,0,0,0,0,0
1,19999,40,10000,3,0,40,9999,0.100000,0,0,0.000000,2,0.000000,0.000000,0.084008,0,0,0,0,0,0,0
1,19999,41,10000,3,0,49,9999,0.100000,0,0,0.000000,2,1.000000,0.000000,2.395174,0,0,0,0,0,0,0
1,19999,42,10000,3,0,40,9999,0.100000,0,0,0.000000,2,0.000000,0.000000,0.733072,0,0,0,0,0,0,0
1,19999,43,10000,15,0,40,9999,0.100000,0,0,0.000000,2,0.000000,0.000000,22.457616,0,0,0,0,0,0,0
1,19999,44,10000,3,0,40,9999,0.100000,0,0,0.000000,2,0.000000,0.000000,1.003795,0,0,0,0,0,0,0
1,19999,45,10000,3,0,49,9999,0.100000,0,0,0.000000,2,2.000000,0.000000,6.260223,0,0,0,0,0,0,0
1,19999,46,10000,3,0,40,9999,0.100000,0,0,0.000000,2,0.000000,0.000000,3.312244,0,0,0,0,0,0,0
1,19999,47,10000,15,0,40,9999,0.100000,0,0,0.000000,2,0.000000,0.000000,4.750996,0,0,0,0,0,0,0
1,19999,48,10000,10,0,49,9999,0.100000,0,0,0.000000,2,5.000000,0.000000,13.521262,0,0,0,0,0,0,0
1,19999,49,0,49,0,40,19999,0.100000,0,0,0.000000,2,0.000000,0.000000,0.275969,0,0,0,0,0,0,0
1,19999,50,10000,3,0,40,9999,0.100000,0,0,0.000000,2,0.000000,0.000000,1.444780,0,0,0,0,0,0,0
1,19999,51,10000,15,0,40,9999,0.100000,0,0,0.000000,2,0.000000,0.000000,0.112454,0,0,0,0,0,0,0
1,19999,52,10000,0,0,40,9999,0.100000,0,0,0.000000,2,0.000000,0.000000,0.085417,0,0,0,0,0,0,0
1,19999,53,10000,15,0,40,9999,0.100000,0,0,0.000000,2,0.000000,0.000000,0.096758,0,0,0,0,0,0,0
1,19999,54,10000,15,0,49,9999,0.100000,0,0,0.000000,2,6.000000,0.000000,6.994996,0,0,0,0,0,0,0
1,19999,55,10000,15,0,49,9999,0.100000,0,0,0.000000,2,3.000000,0.000000,8.543158,0,0,0,0,0,0,0
1,19999,56,10000,15,0,49,9999,0.100000,0,0,0.000000,2,1.000000,0.000000,3.461622,0,0,0,0,0,0,0
1,19999,57,0,57,0,40,19999,0.100000,0,0,0.000000,2,0.000000,0.000000,1.109533,0,0,0,0,0,0,0
1,19999,58,10000,3,0,40,9999,0.100000,0,0,0.000000,2,0.000000,0.000000,0.093316,0,0,0,0,0,0,0
1,19999,59,10000,0,0,40,9999,0.100000,0,0,0.000000,2,0.000000,0.000000,0.083717,0,0,0,0,0,0,0
1,19999,60,10000,3,0,40,9999,0.100000,0,0,0.000000,2,0.000000,0.000000,0.373865,0,0,0,0,0,0,0
1,19999,61,10000,3,0,49,9999,0.100000,0,0,0.000000,2,1.000000,0.000000,8.514022,0,0,0,0,0,0,0
1,19999,62,10000,0,0,40,9999,0.100000,0,0,0.000000,2,0.000000,0.000000,0.085948,0,0,0,0,0,0,0
1,19999,63,10000,3,0,40,9999,0.100000,0,0,0.000000,2,0.000000,0.000000,0.088000,0,0,0,0,0,0,0
1,19999,64,10000,0,0,40,9999,0.100000,0,0,0.000000,2,0.000000,0.000000,1.644493,0,0,0,0,0,0,0
1,19999,65,10000,0,0,40,9999,0.100000,0,0,0.000000,2,0.000000,0.000000,1.484911,0,0,0,0,0,0,0
1,19999,66,10000,15,0,49,9999,0.100000,0,0,0.000000,2,1.000000,0.000000,3.847143,0,0,0,0,0,0,0
1,19999,67,10000,3,0,40,9999,0.100000,0,0,0.000000,2,0.000000,0.000000,0.099721,0,0,0,0,0,0,0
1,19999,68,10000,15,0,49,9999,0.100000,0,0,0.000000,3,1.000000,0.000000,13.947039,0,0,0,0,0,0,0
1,19999,69,10000,15,0,49,9999,0.100000,0,0,0.000000,2,2.000000,0.000000,6.841401,0,0,0,0,0,0,0
1,19999,70,10000,15,0,40,9999,0.100000,0,0,0.000000,2,0.000000,0.000000,2.601044,0,0,0,0,0,0,0
1,19999,71,10000,15,0,40,9999,0.100000,0,0,0.000000,2,0.000000,0.000000,0.112675,0,0,0,0,0,0,0
1,19999,72,10000,15,0,40,9999,0.100000,0,0,0.000000,2,0.000000,0.000000,0.371279,0,0,0,0,0,0,0
1,19999,73,10000,3,0,40,9999,0.100000,0,0,0.000000,2,0.000000,0.000000,1.345198,0,0,0,0,0,0,0
1,19999,74,10000,21,0,40,9999,0.100000,0,0,0.000000,2,0.000000,0.000000,0.577205,0,0,0,0,0,0,0
1,19999,75,10000,0,0,49,9999,0.100000,0,0,0.000000,2,4.000000,0.000000,8.687754,0,0,0,0,0,0,0
1,19999,76,10000,0,0,49,9999,0.100000,0,0,0.000000,2,1.000000,0.000000,14.500316,0,0,0,0,0,0,0
1,19999,77,10000,3,0,49,9999,0.100000,0,0,0.000000,2,6.000000,0.000000,7.190347,0,0,0,0,0,0,0
1,19999,78,10000,21,0,40,9999,0.100000,0,0,0.000000,2,0.000000,0.000000,0.086918,0,0,0,0,0,0,0
1,19999,79,0,79,0,40,19999,0.100000,0,0,0.000000,2,0.000000,0.000000,1.576545,0,0,0,0,0,0,0
1,19999,80,10000,0,0,49,9999,0.100000,0,0,0.000000,2,2.000000,0.000000,3.514412,0,0,0,0,0,0,0
1,19999,81,10000,0,0,40,9999,0.100000,0,0,0.000000,2,0.000000,0.000000,0.174080,0,0,0,0,0,0,0
1,19999,82,10000,15,0,40,9999,0.100000,0,0,0.000000,2,0.000000,0.000000,0.895812,0,0,0,0,0,0,0
1,19999,83,10000,15,0,49,9999,0.100000,0,0,0.000000,2,1.000000,0.000000,1.957261,0,0,0,0,0,0,0
1,19999,84,0,84,0,40,19999,0.100000,0,0,0.000000,2,0.000000,0.000000,0.782562,0,0,0,0,0,0,0
1,19999,85,10000,15,0,40,9999,0.100000,0,0,0.000000,2,0.000000,0.000000,0.237842,0,0,0,0,0,0,0
1,19999,86,10000,15,0,40,9999,0.100000,0,0,0.000000,2,0.000000,0.000000,0.138530,0,0,0,0,0,0,0
1,19999,87,10000,21,0,40,9999,0.100000,0,0,0.000000,2,0.000000,0.000000,5.222201,0,0,0,0,0,0,0
1,19999,88,10000,3,0,40,9999,0.100000,0,0,0.000000,2,0.000000,0.000000,0.105699,0,0,0,0,0,0,0
1,19999,89,10000,3,0,49,9999,0.100000,0,0,0.000000,2,3.000000,0.000000,3.875335,0,0,0,0,0,0,0
1,19999,90,10000,0,0,40,9999,0.100000,0,0,0.000000,2,0.000000,0.000000,18.770395,0,0,0,0,0,0,0
1,19999,91,10000,3,0,49,9999,0.100000,0,0,0.000000,2,1.000000,0.000000,3.136665,0,0,0,0,0,0,0
1,19999,92,0,92,0,40,19999,0.100000,0,0,0.000000,2,0.000000,0.000000,22.929108,0,0,0,0,0,0,0
1,19999,93,10000,68,0,40,9999,0.100000,0,0,0.000000,3,0.000000,0.000000,0.723842,0,0,0,0,0,0,0
1,19999,94,10000,15,0,49,9999,0.100000,0,0,0.000000,2,1.000000,0.000000,3.838834,0,0,0,0,0,0,0
1,19999,95,10000,21,0,40,9999,0.100000,0,0,0.000000,2,0.000000,0.000000,0.923150,0,0,0,0,0,0,0
1,19999,96,10000,15,0,49,9999,0.100000,0,0,0.000000,2,1.000000,0.000000,3.718739,0,0,0,0,0,0,0
1,19999,97,10000,15,0,49,9999,0.100000,0,0,0.000000,2,2.000000,0.000000,8.254768,0,0,0,0,0,0,0
1,19999,98,10000,3,0,40,9999,0.100000,0,0,0.000000,2,0.000000,0.000000,0.194185,0,0,0,0,0,0,0
1,19999,99,10000,3,0,49,9999,0.100000,0,0,0.000000,2,1.000000,0.000000,8.652910,0,0,0,0,0,0,0
2,29999,0,20000,70,10000,49,9999,0.100000,0,0,0.000000,5,3.000000,0.000000,7.009861,0,0,0,0,0,0,0
2,29999,1,20000,17,10000,40,9999,0.100000,0,0,0.000000,5,0.000000,0.000000,0.555294,0,0,0,0,0,0,0
2,29999,2,20000,68,0,40,9999,0.100000,0,0,0.000000,4,0.000000,0.000000,3.279186,0,0,0,0,0,0,0
2,29999,3,20000,15,0,40,9999,0.100000,0,0,0.000000,5,0.000000,0.000000,4.259327,0,0,0,0,0,0,0
2,29999,4,20000,81,10000,40,9999,0.100000,0,0,0.000000,5,0.000000,0.000000,1.523339,0,0,0,0,0,0,0
2,29999,5,20000,2,10000,40,9999,0.100000,0,0,0.000000,5,0.000000,0.000000,0.784628,0,0,0,0,0,0,0
2,29999,6,20000,15,0,40,9999,0.100000,0,0,0.000000,5,0.000000,0.000000,0.483875,0,0,0,0,0,0,0
2,29999,7,20000,14,10000,40,9999,0.100000,0,0,0.000000,5,0.000000,0.000000,0.617450,0,0,0,0,0,0,0
2,29999,8,20000,15,0,40,9999,0.100000,0,0,0.000000,5,0.000000,0.000000,0.589598,0,0,0,0,0,0,0
2,29999,9,20000,9,10000,40,9999,0.100000,0,0,0.000000,5,0.000000,0.000000,0.266885,0,0,0,0,0,0,0
2,29999,10,20000,0,0,40,9999,0.100000,0,0,0.000000,5,0.000000,0.000000,0.125173,0,0,0,0,0,0,0
2,29999,11,20000,15,0,40,9999,0.100000,0,0,0.000000,5,0.000000,0.000000,0.470768,0,0,0,0,0,0,0
2,29999,12,20000,68,0,40,9999,0.100000,0,0,0.000000,5,0.000000,0.000000,0.101337,0,0,0,0,0,0,0
2,29999,13,20000,68,0,40,9999,0.100000,0,0,0.000000,5,0.000000,0.000000,0.069971,0,0,0,0,0,0,0
2,29999,14,20000,17,10000,40,9999,0.100000,0,0,0.000000,5,0.000000,0.000000,0.880947,0,0,0,0,0,0,0
2,29999,15,20000,14,10000,40,9999,0.100000,0,0,0.000000,5,0.000000,0.000000,0.151984,0,0,0,0,0,0,0
2,29999,16,20000,70,10000,40,9999,0.100000,0,0,0.000000,5,0.000000,0.000000,0.160693,0,0,0,0,0,0,0
2,29999,17,20000,2,10000,40,9999,0.100000,0,0,0.000000,5,0.000000,0.000000,1.017678,0,0,0,0,0,0,0
2,29999,18,20000,17,10000,40,9999,0.100000,0,0,0.000000,5,0.000000,0.000000,0.066607,0,0,0,0,0,0,0
2,29999,19,20000,68,0,40,9999,0.100000,0,0,0.000000,5,0.000000,0.000000,0.815396,0,0,0,0,0,0,0
2,29999,20,20000,68,0,40,9999,0.100000,0,0,0.000000,5,0.000000,0.000000,0.131668,0,0,0,0,0,0,0
2,29999,21,20000,17,10000,40,9999,0.100000,0,0,0.000000,5,0.000000,0.000000,0.240093,0,0,0,0,0,0,0
2,29999,22,20000,15,0,40,9999,0.100000,0,0,0.000000,5,0.000000,0.000000,0.125862,0,0,0,0,0,0,0
2,29999,23,20000,2,10000,40,9999,0.100000,0,0,0.000000,5,0.000000,0.000000,0.075019,0,0,0,0,0,0,0
2,29999,24,20000,15,0,40,9999,0.100000,0,0,0.000000,5,0.000000,0.000000,0.886394,0,0,0,0,0,0,0
2,29999,25,20000,2,10000,40,9999,0.100000,0,0,0.000000,5,0.000000,0.000000,4.608458,0,0,0,0,0,0,0
2,29999,26,20000,15,0,40,9999,0.100000,0,0,0.000000,5,0.000000,0.000000,1.570661,0,0,0,0,0,0,0
2,29999,27,20000,70,10000,40,9999,0.100000,0,0,0.000000,5,0.000000,0.000000,0.092780,0,0,0,0,0,0,0
2,29999,28,20000,0,0,40,9999,0.100000,0,0,0.000000,5,0.000000,0.000000,0.160661,0,0,0,0,0,0,0
2,29999,29,20000,2,10000,40,9999,0.100000,0,0,0.000000,5,0.000000,0.000000,0.065118,0,0,0,0,0,0,0
2,29999,30,20000,68,0,40,9999,0.100000,0,0,0.000000,5,0.000000,0.000000,0.091283,0,0,0,0,0,0,0
2,29999,31,20000,0,0,40,9999,0.100000,0,0,0.000000,5,0.000000,0.000000,0.098651,0,0,0,0,0,0,0
2,29999,32,20000,15,0,49,9999,0.100000,0,0,0.000000,5,2.000000,0.000000,13.254131,0,0,0,0,0,0,0
2,29999,33,20000,2,10000,49,9999,0.100000,0,0,0.000000,5,2.000000,0.000000,7.090800,0,0,0,0,0,0,0
2,29999,34,20000,2,10000,40,9999,0.100000,0,0,0.000000,5,0.000000,0.000000,0.093523,0,0,0,0,0,0,0
2,29999,35,20000,0,0,49,9999,0.100000,0,0,0.000000,5,1.000000,0.000000,18.107709,0,0,0,0,0,0,0
2,29999,36,20000,15,0,49,9999,0.100000,0,0,0.000000,5,1.000000,0.000000,4.033236,0,0,0,0,0,0,0
2,29999,37,20000,70,10000,40,9999,0.100000,0,0,0.000000,5,0.000000,0.000000,2.083290,0,0,0,0,0,0,0
2,29999,38,20000,34,10000,49,9999,0.100000,0,0,0.000000,5,1.000000,0.000000,1.473074,0,0,0,0,0,0,0
2,29999,39,20000,2,10000,49,9999,0.100000,0,0,0.000000,5,2.000000,0.000000,7.039254,0,0,0,0,0,0,0
2,29999,40,20000,81,10000,40,9999,0.100000,0,0,0.000000,5,0.000000,0.000000,0.079500,0,0,0,0,0,0,0
2,29999,41,20000,68,0,40,9999,0.100000,0,0,0.000000,5,0.000000,0.000000,0.812170,0,0,0,0,0,0,0
2,29999,42,20000,0,0,40,9999,0.100000,0,0,0.000000,5,0.000000,0.000000,1.098432,0,0,0,0,0,0,0
2,29999,43,20000,0,0,40,9999,0.100000,0,0,0.000000,5,0.000000,0.000000,23.045518,0,0,0,0,0,0,0
2,29999,44,20000,2,10000,40,9999,0.100000,0,0,0.000000,4,0.000000,0.000000,1.008658,0,0,0,0,0,0,0
2,29999,45,20000,17,10000,40,9999,0.100000,0,0,0.000000,5,0.000000,0.000000,1.260265,0,0,0,0,0,0,0
2,29999,46,20000,2,10000,40,9999,0.100000,0,0,0.000000,5,0.000000,0.000000,1.163192,0,0,0,0,0,0,0
2,29999,47,20000,2,10000,49,9999,0.100000,0,0,0.000000,5,2.000000,0.000000,6.299117,0,0,0,0,0,0,0
2,29999,48,20000,15,0,49,9999,0.100000,0,0,0.000000,5,4.000000,0.000000,4.963950,0,0,0,0,0,0,0
2,29999,49,20000,2,10000,40,9999,0.100000,0,0,0.000000,5,0.000000,0.000000,0.391519,0,0,0,0,0,0,0
2,29999,50,20000,70,10000,49,9999,0.100000,0,0,0.000000,5,4.000000,0.000000,4.838355,0,0,0,0,0,0,0
2,29999,51,20000,70,10000,40,9999,0.100000,0,0,0.000000,5,0.000000,0.000000,0.098259,0,0,0,0,0,0,0
2,29999,52,20000,2,10000,40,9999,0.100000,0,0,0.000000,5,0.000000,0.000000,0.083666,0,0,0,0,0,0,0
2,29999,53,20000,2,10000,40,9999,0.100000,0,0,0.000000,5,0.000000,0.000000,0.683655,0,0,0,0,0,0,0
2,29999,54,20000,68,0,49,9999,0.100000,0,0,0.000000,5,6.000000,0.000000,6.714175,0,0,0,0,0,0,0
2,29999,55,20000,0,0,49,9999,0.100000,0,0,0.000000,5,2.000000,0.000000,5.227152,0,0,0,0,0,0,0
2,29999,56,20000,81,10000,49,9999,0.100000,0,0,0.000000,5,1.000000,0.000000,8.135618,0,0,0,0,0,0,0
2,29999,57,20000,68,0,40,9999,0.100000,0,0,0.000000,5,0.000000,0.000000,0.879911,0,0,0,0,0,0,0
2,29999,58,20000,2,10000,40,9999,0.100000,0,0,0.000000,5,0.000000,0.000000,0.079972,0,0,0,0,0,0,0
2,29999,59,20000,12,10000,40,9999,0.100000,0,0,0.000000,5,0.000000,0.000000,0.083519,0,0,0,0,0,0,0
2,29999,60,20000,0,0,49,9999,0.100000,0,0,0.000000,5,4.000000,0.000000,12.239820,0,0,0,0,0,0,0
2,29999,61,20000,68,0,40,9999,0.100000,0,0,0.000000,4,0.000000,0.000000,5.062356,0,0,0,0,0,0,0
2,29999,62,20000,15,0,40,9999,0.100000,0,0,0.000000,5,0.000000,0.000000,0.087339,0,0,0,0,0,0,0
2,29999,63,20000,14,10000,40,9999,0.100000,0,0,0.000000,5,0.000000,0.000000,0.085376,0,0,0,0,0,0,0
2,29999,64,20000,0,0,40,9999,0.100000,0,0,0.000000,5,0.000000,0.000000,0.245373,0,0,0,0,0,0,0
2,29999,65,20000,2,10000,49,9999,0.100000,0,0,0.000000,5,4.000000,0.000000,4.886789,0,0,0,0,0,0,0
2,29999,66,20000,70,10000,49,9999,0.100000,0,0,0.000000,5,1.000000,0.000000,3.048681,0,0,0,0,0,0,0
2,29999,67,20000,0,0,40,9999,0.100000,0,0,0.000000,5,0.000000,0.000000,0.094295,0,0,0,0,0,0,0
2,29999,68,20000,2,10000,49,9999,0.100000,0,0,0.000000,5,3.000000,0.000000,17.400843,0,0,0,0,0,0,0
2,29999,69,20000,0,0,49,9999,0.100000,0,0,0.000000,5,4.000000,0.000000,10.804138,0,0,0,0,0,0,0
2,29999,70,20000,15,0,40,9999,0.100000,0,0,0.000000,5,0.000000,0.000000,0.070830,0,0,0,0,0,0,0
2,29999,71,20000,68,0,40,9999,0.100000,0,0,0.000000,5,0.000000,0.000000,0.112561,0,0,0,0,0,0,0
2,29999,72,20000,2,10000,40,9999,0.100000,0,0,0.000000,5,0.000000,0.000000,0.600744,0,0,0,0,0,0,0
2,29999,73,20000,15,0,40,9999,0.065000,0,0,0.000000,5,0.000000,0.000000,1.749230,0,0,0,0,0,0,0
2,29999,74,20000,15,0,40,9999,0.100000,0,0,0.000000,5,0.000000,0.000000,0.673474,0,0,0,0,0,0,0
2,29999,75,20000,68,0,49,9999,0.100000,0,0,0.000000,5,1.000000,0.000000,2.208477,0,0,0,0,0,0,0
2,29999,76,20000,9,10000,49,9999,0.100000,0,0,0.000000,5,3.000000,0.000000,17.427383,0,0,0,0,0,0,0
2,29999,77,20000,2,10000,49,9999,0.100000,0,0,0.000000,5,6.000000,0.000000,6.830098,0,0,0,0,0,0,0
2,29999,78,20000,2,10000,40,9999,0.100000,0,0,0.000000,5,0.000000,0.000000,0.063402,0,0,0,0,0,0,0
2,29999,79,20000,0,0,40,9999,0.100000,0,0,0.000000,5,0.000000,0.000000,0.246107,0,0,0,0,0,0,0
2,29999,80,10000,0,0,49,19999,0.100000,0,0,0.000000,5,1.000000,0.000000,1.686121,0,0,0,0,0,0,0
2,29999,81,20000,81,10000,49,9999,0.100000,0,0,0.000000,5,9.000000,0.000000,18.681845,0,0,0,0,0,0,0
2,29999,82,20000,15,0,49,9999,0.100000,0,0,0.000000,5,1.000000,0.000000,3.681852,0,0,0,0,0,0,0
2,29999,83,20000,2,10000,40,9999,0.100000,0,0,0.000000,5,0.000000,0.000000,0.192396,0,0,0,0,0,0,0
2,29999,84,20000,17,10000,40,9999,0.100000,0,0,0.000000,5,0.000000,0.000000,0.872430,0,0,0,0,0,0,0
2,29999,85,20000,15,0,40,9999,0.100000,0,0,0.000000,5,0.000000,0.000000,0.234539,0,0,0,0,0,0,0
2,29999,86,20000,17,10000,49,9999,0.100000,0,0,0.000000,5,1.000000,0.000000,1.935271,0,0,0,0,0,0,0
2,29999,87,20000,2,10000,49,9999,0.100000,0,0,0.000000,5,1.000000,0.000000,8.190369,0,0,0,0,0,0,0
2,29999,88,20000,15,0,40,9999,0.100000,0,0,0.000000,5,0.000000,0.000000,0.137513,0,0,0,0,0,0,0
2,29999,89,20000,68,0,40,9999,0.100000,0,0,0.000000,5,0.000000,0.000000,0.200590,0,0,0,0,0,0,0
2,29999,90,20000,0,0,49,9999,0.100000,0,0,0.000000,5,1.000000,0.000000,14.800246,0,0,0,0,0,0,0
2,29999,91,20000,70,10000,40,9999,0.100000,0,0,0.000000,5,0.000000,0.000000,3.655378,0,0,0,0,0,0,0
2,29999,92,20000,0,0,40,9999,0.100000,0,0,0.000000,5,0.000000,0.000000,23.028583,0,0,0,0,0,0,0
2,29999,93,20000,15,0,49,9999,0.100000,0,0,0.000000,5,5.000000,0.000000,22.805702,0,0,0,0,0,0,0
2,29999,94,20000,2,10000,49,9999,0.100000,0,0,0.000000,5,1.000000,0.000000,20.839379,0,0,0,0,0,0,0
2,29999,95,20000,2,10000,40,9999,0.100000,0,0,0.000000,5,0.000000,0.000000,0.924290,0,0,0,0,0,0,0
2,29999,96,20000,14,10000,40,9999,0.100000,0,0,0.000000,5,0.000000,0.000000,2.112662,0,0,0,0,0,0,0
2,29999,97,20000,0,0,40,9999,0.100000,0,0,0.000000,5,0.000000,0.000000,4.154528,0,0,0,0,0,0,0
2,29999,98,20000,2,10000,40,9999,0.100000,0,0,0.000000,5,0.000000,0.000000,0.175366,0,0,0,0,0,0,0
2,29999,99,20000,2,10000,40,9999,0.100000,0,0,0.000000,5,0.000000,0.000000,6.072932,0,0,0,0,0,0,0
3,39999,0,20000,70,10000,40,19999,0.100000,0,0,0.000000,5,0.000000,0.000000,0.246763,0,0,0,0,0,0,0
3,39999,1,30000,17,10000,40,9999,0.100000,0,0,0.000000,5,0.000000,0.000000,1.135594,0,0,0,0,0,0,0
3,39999,2,30000,17,10000,40,9999,0.100000,0,0,0.000000,5,0.000000,0.000000,2.622339,0,0,0,0,0,0,0
3,39999,3,30000,17,20000,49,9999,0.100000,0,0,0.000000,6,1.000000,0.000000,5.677832,0,0,0,0,0,0,0
3,39999,4,30000,70,10000,40,9999,0.100000,0,0,0.000000,5,0.000000,0.000000,0.151763,0,0,0,0,0,0,0
3,39999,5,30000,0,0,40,9999,0.100000,0,0,0.000000,5,0.000000,0.000000,0.734011,0,0,0,0,0,0,0
3,39999,6,30000,17,10000,40,9999,0.100000,0,0,0.000000,5,0.000000,0.000000,0.494608,0,0,0,0,0,0,0
3,39999,7,30000,17,10000,40,9999,0.100000,0,0,0.000000,5,0.000000,0.000000,0.439974,0,0,0,0,0,0,0
3,39999,8,30000,0,0,40,9999,0.100000,0,0,0.000000,5,0.000000,0.000000,0.949956,0,0,0,0,0,0,0
3,39999,9,30000,14,10000,40,9999,0.100000,0,0,0.000000,5,0.000000,0.000000,0.181481,0,0,0,0,0,0,0
3,39999,10,30000,0,0,40,9999,0.100000,0,0,0.000000,5,0.000000,0.000000,0.114335,0,0,0,0,0,0,0
3,39999,11,30000,17,20000,40,9999,0.100000,0,0,0.000000,6,0.000000,0.000000,0.453927,0,0,0,0,0,0,0
3,39999,12,30000,14,10000,40,9999,0.100000,0,0,0.000000,6,0.000000,0.000000,0.088238,0,0,0,0,0,0,0
3,39999,13,30000,0,0,40,9999,0.100000,0,0,0.000000,5,0.000000,0.000000,0.070161,0,0,0,0,0,0,0
3,39999,14,30000,70,10000,40,9999,0.100000,0,0,0.000000,6,0.000000,0.000000,0.648481,0,0,0,0,0,0,0
3,39999,15,30000,0,0,40,9999,0.100000,0,0,0.000000,5,0.000000,0.000000,0.163820,0,0,0,0,0,0,0
3,39999,16,30000,2,10000,40,9999,0.100000,0,0,0.000000,5,0.000000,0.000000,0.241200,0,0,0,0,0,0,0
3,39999,17,30000,2,10000,40,9999,0.100000,0,0,0.000000,6,0.000000,0.000000,1.469250,0,0,0,0,0,0,0
3,39999,18,30000,17,10000,40,9999,0.100000,0,0,0.000000,5,0.000000,0.000000,0.065582,0,0,0,0,0,0,0
3,39999,19,30000,0,0,40,9999,0.100000,0,0,0.000000,5,0.000000,0.000000,0.801850,0,0,0,0,0,0,0
3,39999,20,30000,2,10000,40,9999,0.100000,0,0,0.000000,5,0.000000,0.000000,0.116030,0,0,0,0,0,0,0
3,39999,21,30000,2,10000,40,9999,0.100000,0,0,0.000000,6,0.000000,0.000000,0.184086,0,0,0,0,0,0,0
3,39999,22,30000,14,10000,40,9999,0.100000,0,0,0.000000,6,0.000000,0.000000,0.127583,0,0,0,0,0,0,0
3,39999,23,30000,14,10000,40,9999,0.100000,0,0,0.000000,5,0.000000,0.000000,0.075710,0,0,0,0,0,0,0
3,39999,24,30000,17,20000,40,9999,0.100000,0,0,0.000000,6,0.000000,0.000000,0.551505,0,0,0,0,0,0,0
3,39999,25,30000,14,10000,40,9999,0.100000,0,0,0.000000,5,0.000000,0.000000,0.386710,0,0,0,0,0,0,0
3,39999,26,30000,70,10000,40,9999,0.100000,0,0,0.000000,5,0.000000,0.000000,0.768074,0,0,0,0,0,0,0
3,39999,27,30000,14,10000,40,9999,0.100000,0,0,0.000000,5,0.000000,0.000000,0.094866,0,0,0,0,0,0,0
3,39999,28,30000,70,10000,49,9999,0.100000,0,0,0.000000,5,5.000000,0.000000,6.117442,0,0,0,0,0,0,0
3,39999,29,30000,0,0,40,9999,0.100000,0,0,0.000000,6,0.000000,0.000000,0.066119,0,0,0,0,0,0,0
3,39999,30,30000,14,10000,40,9999,0.100000,0,0,0.000000,5,0.000000,0.000000,0.120990,0,0,0,0,0,0,0
3,39999,31,30000,2,10000,40,9999,0.100000,0,0,0.000000,6,0.000000,0.000000,0.097571,0,0,0,0,0,0,0
3,39999,32,30000,17,10000,49,9999,0.100000,0,0,0.000000,5,1.000000,0.000000,6.683281,0,0,0,0,0,0,0
3,39999,33,30000,0,0,40,9999,0.100000,0,0,0.000000,6,0.000000,0.000000,0.815833,0,0,0,0,0,0,0
3,39999,34,30000,14,10000,40,9999,0.100000,0,0,0.000000,5,0.000000,0.000000,0.091750,0,0,0,0,0,0,0
3,39999,35,30000,0,0,40,9999,0.100000,0,0,0.000000,6,0.000000,0.000000,12.773393,0,0,0,0,0,0,0
3,39999,36,30000,17,10000,49,9999,0.100000,0,0,0.000000,5,2.000000,0.000000,4.496259,0,0,0,0,0,0,0
3,39999,37,30000,2,10000,40,9999,0.100000,0,0,0.000000,5,0.000000,0.000000,1.398547,0,0,0,0,0,0,0
3,39999,38,30000,17,20000,40,9999,0.100000,0,0,0.000000,6,0.000000,0.000000,0.689379,0,0,0,0,0,0,0
3,39999,39,30000,14,10000,49,9999,0.100000,0,0,0.000000,5,2.000000,0.000000,4.684966,0,0,0,0,0,0,0
3,39999,40,30000,2,10000,40,9999,0.100000,0,0,0.000000,5,0.000000,0.000000,0.081117,0,0,0,0,0,0,0
3,39999,41,30000,14,10000,40,9999,0.100000,0,0,0.000000,6,0.000000,0.000000,1.049960,0,0,0,0,0,0,0
3,39999,42,30000,2,10000,40,9999,0.100000,0,0,0.000000,5,0.000000,0.000000,0.904841,0,0,0,0,0,0,0
3,39999,43,30000,14,10000,40,9999,0.100000,0,0,0.000000,5,0.000000,0.000000,22.591887,0,0,0,0,0,0,0
3,39999,44,30000,0,0,40,9999,0.100000,0,0,0.000000,5,0.000000,0.000000,0.980929,0,0,0,0,0,0,0
3,39999,45,30000,2,10000,40,9999,0.100000,0,0,0.000000,5,0.000000,0.000000,1.192152,0,0,0,0,0,0,0
3,39999,46,30000,17,10000,49,9999,0.100000,0,0,0.000000,5,1.000000,0.000000,2.147572,0,0,0,0,0,0,0
3,39999,47,30000,14,10000,49,9999,0.100000,0,0,0.000000,5,4.000000,0.000000,12.311274,0,0,0,0,0,0,0
3,39999,48,30000,0,0,49,9999,0.100000,0,0,0.000000,5,2.000000,0.000000,2.471848,0,0,0,0,0,0,0
3,39999,49,30000,2,10000,40,9999,0.100000,0,0,0.000000,5,0.000000,0.000000,0.240874,0,0,0,0,0,0,0
3,39999,50,30000,2,10000,49,9999,0.100000,0,0,0.000000,5,2.000000,0.000000,2.363665,0,0,0,0,0,0,0
3,39999,51,30000,70,10000,40,9999,0.100000,0,0,0.000000,5,0.000000,0.000000,0.096119,0,0,0,0,0,0,0
3,39999,52,30000,14,10000,40,9999,0.100000,0,0,0.000000,6,0.000000,0.000000,0.086566,0,0,0,0,0,0,0
3,39999,53,30000,0,0,40,9999,0.100000,0,0,0.000000,5,0.000000,0.000000,0.498185,0,0,0,0,0,0,0
3,39999,54,30000,0,0,40,9999,0.100000,0,0,0.000000,5,0.000000,0.000000,1.042680,0,0,0,0,0,0,0
3,39999,55,30000,70,10000,49,9999,0.100000,0,0,0.000000,6,1.000000,0.000000,13.101016,0,0,0,0,0,0,0
3,39999,56,30000,0,0,40,9999,0.100000,0,0,0.000000,5,0.000000,0.000000,4.903304,0,0,0,0,0,0,0
3,39999,57,30000,70,10000,49,9999,0.100000,0,0,0.000000,5,1.000000,0.000000,1.312207,0,0,0,0,0,0,0
3,39999,58,30000,14,10000,40,9999,0.100000,0,0,0.000000,6,0.000000,0.000000,0.143363,0,0,0,0,0,0,0
3,39999,59,30000,14,10000,40,9999,0.100000,0,0,0.000000,5,0.000000,0.000000,0.085986,0,0,0,0,0,0,0
3,39999,60,30000,14,10000,40,9999,0.100000,0,0,0.000000,5,0.000000,0.000000,3.704836,0,0,0,0,0,0,0
3,39999,61,30000,17,10000,40,9999,0.100000,0,0,0.000000,5,0.000000,0.000000,3.712800,0,0,0,0,0,0,0
3,39999,62,30000,14,10000,40,9999,0.100000,0,0,0.000000,6,0.000000,0.000000,0.085641,0,0,0,0,0,0,0
3,39999,63,30000,2,10000,40,9999,0.100000,0,0,0.000000,5,0.000000,0.000000,0.081854,0,0,0,0,0,0,0
3,39999,64,30000,0,0,40,9999,0.100000,0,0,0.000000,6,0.000000,0.000000,0.503176,0,0,0,0,0,0,0
3,39999,65,30000,70,10000,49,9999,0.100000,0,0,0.000000,5,2.000000,0.000000,2.306003,0,0,0,0,0,0,0
3,39999,66,30000,14,10000,40,9999,0.100000,0,0,0.000000,6,0.000000,0.000000,2.556214,0,0,0,0,0,0,0
3,39999,67,30000,17,10000,40,9999,0.100000,0,0,0.000000,5,0.000000,0.000000,0.099983,0,0,0,0,0,0,0
3,39999,68,30000,70,10000,49,9999,0.100000,0,0,0.000000,6,3.000000,0.000000,14.149086,0,0,0,0,0,0,0
3,39999,69,30000,17,10000,49,9999,0.100000,0,0,0.000000,6,1.000000,0.000000,4.929535,0,0,0,0,0,0,0
3,39999,70,30000,14,10000,40,9999,0.100000,0,0,0.000000,5,0.000000,0.000000,0.074583,0,0,0,0,0,0,0
3,39999,71,30000,70,10000,40,9999,0.100000,0,0,0.000000,5,0.000000,0.000000,0.112526,0,0,0,0,0,0,0
3,39999,72,30000,0,0,40,9999,0.100000,0,0,0.000000,6,0.000000,0.000000,0.495884,0,0,0,0,0,0,0
3,39999,73,30000,70,10000,49,9999,0.100000,0,0,0.000000,6,5.000000,0.000000,5.978692,0,0,0,0,0,0,0
3,39999,74,30000,2,10000,40,9999,0.100000,0,0,0.000000,6,0.000000,0.000000,0.980959,0,0,0,0,0,0,0
3,39999,75,30000,2,10000,40,9999,0.100000,0,0,0.000000,5,0.000000,0.000000,0.635642,0,0,0,0,0,0,0
3,39999,76,30000,0,0,49,9999,0.100000,0,0,0.000000,5,3.000000,0.000000,13.942881,0,0,0,0,0,0,0
3,39999,77,30000,17,10000,40,9999,0.100000,0,0,0.000000,6,0.000000,0.000000,0.919290,0,0,0,0,0,0,0
3,39999,78,30000,70,10000,40,9999,0.100000,0,0,0.000000,5,0.000000,0.000000,0.243781,0,0,0,0,0,0,0
3,39999,79,30000,17,10000,40,9999,0.100000,0,0,0.000000,5,0.000000,0.000000,0.242353,0,0,0,0,0,0,0
3,39999,80,30000,0,0,40,9999,0.100000,0,0,0.000000,5,0.000000,0.000000,0.128695,0,0,0,0,0,0,0
3,39999,81,30000,0,0,49,9999,0.100000,0,0,0.000000,6,9.000000,0.000000,37.276250,0,0,0,0,0,0,0
3,39999,82,30000,17,20000,40,9999,0.100000,0,0,0.000000,6,0.000000,0.000000,2.043681,0,0,0,0,0,0,0
3,39999,83,30000,14,10000,40,9999,0.100000,0,0,0.000000,6,0.000000,0.000000,0.191492,0,0,0,0,0,0,0
3,39999,84,30000,70,10000,40,9999,0.100000,0,0,0.000000,5,0.000000,0.000000,0.976602,0,0,0,0,0,0,0
3,39999,85,30000,70,10000,40,9999,0.100000,0,0,0.000000,6,0.000000,0.000000,0.276237,0,0,0,0,0,0,0
3,39999,86,30000,14,10000,40,9999,0.100000,0,0,0.000000,6,0.000000,0.000000,0.088512,0,0,0,0,0,0,0
3,39999,87,30000,14,10000,49,9999,0.100000,0,0,0.000000,5,2.000000,0.000000,2.640271,0,0,0,0,0,0,0
3,39999,88,30000,70,10000,40,9999,0.100000,0,0,0.000000,5,0.000000,0.000000,0.396924,0,0,0,0,0,0,0
3,39999,89,30000,70,10000,40,9999,0.100000,0,0,0.000000,6,0.000000,0.000000,0.169596,0,0,0,0,0,0,0
3,39999,90,30000,2,10000,40,9999,0.100000,0,0,0.000000,5,0.000000,0.000000,0.293436,0,0,0,0,0,0,0
3,39999,91,30000,17,10000,49,9999,0.100000,0,0,0.000000,6,1.000000,0.000000,4.572768,0,0,0,0,0,0,0
3,39999,92,30000,14,10000,49,9999,0.100000,0,0,0.000000,6,1.000000,0.000000,9.183887,0,0,0,0,0,0,0
3,39999,93,30000,14,10000,49,9999,0.100000,0,0,0.000000,6,5.000000,0.000000,16.971512,0,0,0,0,0,0,0
3,39999,94,30000,14,10000,49,9999,0.100000,0,0,0.000000,6,1.000000,0.000000,6.783214,0,0,0,0,0,0,0
3,39999,95,30000,0,0,49,9999,0.100000,0,0,0.000000,5,1.000000,0.000000,12.460764,0,0,0,0,0,0,0
3,39999,96,30000,0,0,49,9999,0.100000,0,0,0.000000,5,2.000000,0.000000,11.823954,0,0,0,0,0,0,0
3,39999,97,30000,70,10000,49,9999,0.100000,0,0,0.000000,5,3.000000,0.000000,6.972041,0,0,0,0,0,0,0
3,39999,98,30000,14,10000,40,9999,0.100000,0,0,0.000000,5,0.000000,0.000000,0.150944,0,0,0,0,0,0,0
3,39999,99,30000,14,10000,40,9999,0.100000,0,0,0.000000,5,0.000000,0.000000,1.125108,0,0,0,0,0,0,0
4,49999,0,40000,0,0,40,9999,0.100000,0,0,0.000000,6,0.000000,0.000000,0.269506,0,0,0,0,0,0,0
4,49999,1,40000,70,10000,40,9999,0.100000,0,0,0.000000,6,0.000000,0.000000,0.216300,0,0,0,0,0,0,0
4,49999,2,40000,2,10000,40,9999,0.100000,0,0,0.000000,6,0.000000,0.000000,4.793046,0,0,0,0,0,0,0
4,49999,3,40000,2,10000,40,9999,0.100000,0,0,0.000000,6,0.000000,0.000000,7.085840,0,0,0,0,0,0,0
4,49999,4,40000,70,10000,40,9999,0.100000,0,0,0.000000,6,0.000000,0.000000,0.116942,0,0,0,0,0,0,0
4,49999,5,40000,70,10000,40,9999,0.100000,0,0,0.000000,6,0.000000,0.000000,2.068617,0,0,0,0,0,0,0
4,49999,6,40000,0,0,40,9999,0.100000,0,0,0.000000,6,0.000000,0.000000,2.177717,0,0,0,0,0,0,0
4,49999,7,40000,14,10000,40,9999,0.100000,0,0,0.000000,6,0.000000,0.000000,0.254268,0,0,0,0,0,0,0
4,49999,8,40000,70,10000,40,9999,0.100000,0,0,0.000000,6,0.000000,0.000000,9.905532,0,0,0,0,0,0,0
4,49999,9,40000,70,10000,40,9999,0.100000,0,0,0.000000,6,0.000000,0.000000,0.457517,0,0,0,0,0,0,0
4,49999,10,40000,70,10000,40,9999,0.100000,0,0,0.000000,6,0.000000,0.000000,0.095226,0,0,0,0,0,0,0
4,49999,11,40000,2,10000,40,9999,0.100000,0,0,0.000000,6,0.000000,0.000000,0.473199,0,0,0,0,0,0,0
4,49999,12,40000,70,10000,40,9999,0.100000,0,0,0.000000,6,0.000000,0.000000,0.075096,0,0,0,0,0,0,0
4,49999,13,40000,0,0,40,9999,0.100000,0,0,0.000000,6,0.000000,0.000000,0.076141,0,0,0,0,0,0,0
4,49999,14,40000,2,10000,40,9999,0.100000,0,0,0.000000,6,0.000000,0.000000,0.272303,0,0,0,0,0,0,0
4,49999,15,40000,0,0,40,9999,0.100000,0,0,0.000000,6,0.000000,0.000000,0.157433,0,0,0,0,0,0,0
4,49999,16,40000,0,0,40,9999,0.100000,0,0,0.000000,6,0.000000,0.000000,0.966017,0,0,0,0,0,0,0
4,49999,17,40000,70,10000,40,9999,0.100000,0,0,0.000000,6,0.000000,0.000000,1.908117,0,0,0,0,0,0,0
4,49999,18,40000,2,10000,40,9999,0.100000,0,0,0.000000,6,0.000000,0.000000,0.064990,0,0,0,0,0,0,0
4,49999,19,40000,17,10000,40,9999,0.100000,0,0,0.000000,6,0.000000,0.000000,0.846191,0,0,0,0,0,0,0
4,49999,20,40000,2,10000,40,9999,0.100000,0,0,0.000000,6,0.000000,0.000000,0.110967,0,0,0,0,0,0,0
4,49999,21,40000,0,0,40,9999,0.100000,0,0,0.000000,6,0.000000,0.000000,0.142017,0,0,0,0,0,0,0
4,49999,22,30000,14,10000,40,19999,0.100000,0,0,0.000000,6,0.000000,0.000000,0.127385,0,0,0,0,0,0,0
4,49999,23,40000,2,10000,40,9999,0.100000,0,0,0.000000,6,0.000000,0.000000,0.083792,0,0,0,0,0,0,0
4,49999,24,40000,70,10000,40,9999,0.135000,0,0,0.000000,6,0.000000,0.000000,1.127374,0,0,0,0,0,0,0
4,49999,25,40000,17,10000,40,9999,0.100000,0,0,0.000000,6,0.000000,0.000000,0.309365,0,0,0,0,0,0,0
4,49999,26,40000,17,20000,40,9999,0.100000,0,0,0.000000,6,0.000000,0.000000,0.991793,0,0,0,0,0,0,0
4,49999,27,40000,0,0,40,9999,0.100000,0,0,0.000000,6,0.000000,0.000000,0.095474,0,0,0,0,0,0,0
4,49999,28,40000,17,10000,40,9999,0.100000,0,0,0.000000,6,0.000000,0.000000,1.261163,0,0,0,0,0,0,0
4,49999,29,40000,17,20000,40,9999,0.100000,0,0,0.000000,6,0.000000,0.000000,0.068602,0,0,0,0,0,0,0
4,49999,30,40000,14,10000,40,9999,0.100000,0,0,0.000000,6,0.000000,0.000000,0.077413,0,0,0,0,0,0,0
4,49999,31,40000,70,10000,40,9999,0.100000,0,0,0.000000,6,0.000000,0.000000,0.098027,0,0,0,0,0,0,0
4,49999,32,40000,0,0,49,9999,0.100000,0,0,0.000000,6,3.000000,0.000000,8.521904,0,0,0,0,0,0,0
4,49999,33,40000,17,10000,40,9999,0.100000,0,0,0.000000,6,0.000000,0.000000,0.518204,0,0,0,0,0,0,0
4,49999,34,40000,14,10000,40,9999,0.100000,0,0,0.000000,6,0.000000,0.000000,0.092290,0,0,0,0,0,0,0
4,49999,35,40000,70,10000,40,9999,0.100000,0,0,0.000000,6,0.000000,0.000000,3.118661,0,0,0,0,0,0,0
4,49999,36,40000,0,0,49,9999,0.100000,0,0,0.000000,6,2.000000,0.000000,4.970196,0,0,0,0,0,0,0
4,49999,37,40000,17,10000,40,9999,0.100000,0,0,0.000000,6,0.000000,0.000000,0.714933,0,0,0,0,0,0,0
4,49999,38,40000,17,20000,40,9999,0.100000,0,0,0.000000,6,0.000000,0.000000,0.369989,0,0,0,0,0,0,0
4,49999,39,40000,14,10000,40,9999,0.100000,0,0,0.000000,6,0.000000,0.000000,0.948926,0,0,0,0,0,0,0
4,49999,40,40000,70,10000,40,9999,0.100000,0,0,0.000000,6,0.000000,0.000000,0.147271,0,0,0,0,0,0,0
4,49999,41,40000,17,20000,40,9999,0.100000,0,0,0.000000,6,0.000000,0.000000,2.413377,0,0,0,0,0,0,0
4,49999,42,40000,17,10000,40,9999,0.100000,0,0,0.000000,6,0.000000,0.000000,0.762860,0,0,0,0,0,0,0
4,49999,43,40000,14,10000,40,9999,0.100000,0,0,0.000000,6,0.000000,0.000000,22.999654,0,0,0,0,0,0,0
4,49999,44,40000,17,20000,40,9999,0.100000,0,0,0.000000,6,0.000000,0.000000,1.008256,0,0,0,0,0,0,0
4,49999,45,40000,70,10000,40,9999,0.100000,0,0,0.000000,6,0.000000,0.000000,1.291194,0,0,0,0,0,0,0
4,49999,46,40000,14,10000,40,9999,0.100000,0,0,0.000000,6,0.000000,0.000000,0.970176,0,0,0,0,0,0,0
4,49999,47,40000,14,10000,40,9999,0.100000,0,0,0.000000,6,0.000000,0.000000,0.771222,0,0,0,0,0,0,0
4,49999,48,40000,0,0,49,9999,0.100000,0,0,0.000000,6,1.000000,0.000000,1.738972,0,0,0,0,0,0,0
4,49999,49,40000,0,0,40,9999,0.100000,0,0,0.000000,6,0.000000,0.000000,0.238052,0,0,0,0,0,0,0
4,49999,50,40000,17,20000,49,9999,0.100000,0,0,0.000000,6,1.000000,0.000000,1.385284,0,0,0,0,0,0,0
4,49999,51,40000,17,10000,40,9999,0.100000,0,0,0.000000,6,0.000000,0.000000,0.095080,0,0,0,0,0,0,0
4,49999,52,40000,17,20000,40,9999,0.100000,0,0,0.000000,6,0.000000,0.000000,0.086062,0,0,0,0,0,0,0
4,49999,53,40000,14,10000,40,9999,0.100000,0,0,0.000000,6,0.000000,0.000000,0.107820,0,0,0,0,0,0,0
4,49999,54,40000,0,0,40,9999,0.100000,0,0,0.000000,6,0.000000,0.000000,0.686487,0,0,0,0,0,0,0
4,49999,55,40000,17,20000,49,9999,0.100000,0,0,0.000000,6,1.000000,0.000000,4.286164,0,0,0,0,0,0,0
4,49999,56,40000,70,10000,49,9999,0.100000,0,0,0.000000,6,1.000000,0.000000,4.207449,0,0,0,0,0,0,0
4,49999,57,40000,17,10000,40,9999,0.100000,0,0,0.000000,6,0.000000,0.000000,0.472755,0,0,0,0,0,0,0
4,49999,58,40000,0,0,40,9999,0.100000,0,0,0.000000,6,0.000000,0.000000,0.549800,0,0,0,0,0,0,0
4,49999,59,40000,14,10000,40,9999,0.100000,0,0,0.000000,6,0.000000,0.000000,0.084870,0,0,0,0,0,0,0
4,49999,60,40000,17,20000,40,9999,0.100000,0,0,0.000000,6,0.000000,0.000000,0.188957,0,0,0,0,0,0,0
4,49999,61,40000,0,0,49,9999,0.100000,0,0,0.000000,6,1.000000,0.000000,3.955559,0,0,0,0,0,0,0
4,49999,62,40000,2,10000,40,9999,0.100000,0,0,0.000000,6,0.000000,0.000000,0.086152,0,0,0,0,0,0,0
4,49999,63,40000,0,0,40,9999,0.100000,0,0,0.000000,6,0.000000,0.000000,0.081561,0,0,0,0,0,0,0
4,49999,64,40000,14,10000,40,9999,0.100000,0,0,0.000000,6,0.000000,0.000000,0.121285,0,0,0,0,0,0,0
4,49999,65,40000,17,10000,40,9999,0.100000,0,0,0.000000,6,0.000000,0.000000,1.291407,0,0,0,0,0,0,0
4,49999,66,40000,14,10000,40,9999,0.100000,0,0,0.000000,6,0.000000,0.000000,1.902717,0,0,0,0,0,0,0
4,49999,67,40000,70,10000,40,9999,0.100000,0,0,0.000000,6,0.000000,0.000000,0.108188,0,0,0,0,0,0,0
4,49999,68,40000,70,10000,49,9999,0.100000,0,0,0.000000,6,7.000000,0.000000,14.864649,0,0,0,0,0,0,0
4,49999,69,40000,2,10000,40,9999,0.100000,0,0,0.000000,6,0.000000,0.000000,0.088539,0,0,0,0,0,0,0
4,49999,70,40000,14,10000,40,9999,0.100000,0,0,0.000000,6,0.000000,0.000000,0.094789,0,0,0,0,0,0,0
4,49999,71,40000,2,10000,40,9999,0.100000,0,0,0.000000,6,0.000000,0.000000,0.112019,0,0,0,0,0,0,0
4,49999,72,40000,17,20000,40,9999,0.100000,0,0,0.000000,6,0.000000,0.000000,0.624819,0,0,0,0,0,0,0
4,49999,73,40000,17,10000,40,9999,0.100000,0,0,0.000000,6,0.000000,0.000000,0.828838,0,0,0,0,0,0,0
4,49999,74,40000,17,20000,40,9999,0.100000,0,0,0.000000,6,0.000000,0.000000,0.558048,0,0,0,0,0,0,0
4,49999,75,40000,17,10000,49,9999,0.100000,0,0,0.000000,6,1.000000,0.000000,1.654428,0,0,0,0,0,0,0
4,49999,76,40000,0,0,49,9999,0.100000,0,0,0.000000,6,14.000000,0.000000,19.350115,0,0,0,0,0,0,0
4,49999,77,40000,70,10000,40,9999,0.100000,0,0,0.000000,6,0.000000,0.000000,0.765414,0,0,0,0,0,0,0
4,49999,78,40000,0,0,40,9999,0.100000,0,0,0.000000,6,0.000000,0.000000,1.420109,0,0,0,0,0,0,0
4,49999,79,40000,2,10000,40,9999,0.100000,0,0,0.000000,6,0.000000,0.000000,0.234707,0,0,0,0,0,0,0
4,49999,80,40000,70,10000,40,9999,0.100000,0,0,0.000000,6,0.000000,0.000000,0.128109,0,0,0,0,0,0,0
4,49999,81,40000,17,10000,40,9999,0.100000,0,0,0.000000,6,0.000000,0.000000,0.209164,0,0,0,0,0,0,0
4,49999,82,40000,14,10000,40,9999,0.100000,0,0,0.000000,6,0.000000,0.000000,2.088617,0,0,0,0,0,0,0
4,49999,83,40000,70,10000,40,9999,0.100000,0,0,0.000000,6,0.000000,0.000000,0.192113,0,0,0,0,0,0,0
4,49999,84,40000,14,10000,40,9999,0.100000,0,0,0.000000,6,0.000000,0.000000,3.476605,0,0,0,0,0,0,0
4,49999,85,40000,0,0,40,9999,0.100000,0,0,0.000000,6,0.000000,0.000000,0.303348,0,0,0,0,0,0,0
4,49999,86,40000,14,10000,49,9999,0.100000,0,0,0.000000,6,1.000000,0.000000,1.361501,0,0,0,0,0,0,0
4,49999,87,40000,17,20000,49,9999,0.100000,0,0,0.000000,6,5.000000,0.000000,12.881058,0,0,0,0,0,0,0
4,49999,88,40000,70,10000,40,9999,0.100000,0,0,0.000000,6,0.000000,0.000000,0.095104,0,0,0,0,0,0,0
4,49999,89,40000,0,0,40,9999,0.100000,0,0,0.000000,6,0.000000,0.000000,0.151613,0,0,0,0,0,0,0
4,49999,90,40000,70,10000,40,9999,0.100000,0,0,0.000000,6,0.000000,0.000000,0.211314,0,0,0,0,0,0,0
4,49999,91,40000,70,10000,49,9999,0.100000,0,0,0.000000,6,1.000000,0.000000,6.518282,0,0,0,0,0,0,0
4,49999,92,40000,17,20000,40,9999,0.100000,0,0,0.000000,6,0.000000,0.000000,3.012812,0,0,0,0,0,0,0
4,49999,93,40000,70,10000,40,9999,0.100000,0,0,0.000000,6,0.000000,0.000000,0.879390,0,0,0,0,0,0,0
4,49999,94,40000,2,10000,49,9999,0.100000,0,0,0.000000,6,1.000000,0.000000,1.769454,0,0,0,0,0,0,0
4,49999,95,40000,70,10000,40,9999,0.100000,0,0,0.000000,6,0.000000,0.000000,1.690003,0,0,0,0,0,0,0
4,49999,96,40000,70,10000,49,9999,0.100000,0,0,0.000000,6,2.000000,0.000000,11.606872,0,0,0,0,0,0,0
4,49999,97,40000,14,10000,49,9999,0.100000,0,0,0.000000,6,5.000000,0.000000,12.379136,0,0,0,0,0,0,0
4,49999,98,40000,70,10000,40,9999,0.100000,0,0,0.000000,6,0.000000,0.000000,0.198184,0,0,0,0,0,0,0
4,49999,99,40000,0,0,40,9999,0.100000,0,0,0.000000,6,0.000000,0.000000,0.068736,0,0,0,0,0,0,0
5,59999,0,50000,17,10000,40,9999,0.100000,0,0,0.000000,6,0.000000,0.000000,0.246023,0,0,0,0,0,0,0
5,59999,1,50000,14,10000,40,9999,0.100000,0,0,0.000000,6,0.000000,0.000000,0.432891,0,0,0,0,0,0,0
5,59999,2,50000,2,10000,40,9999,0.100000,0,0,0.000000,6,0.000000,0.000000,2.721086,0,0,0,0,0,0,0
5,59999,3,50000,14,10000,40,9999,0.100000,0,0,0.000000,6,0.000000,0.000000,5.152322,0,0,0,0,0,0,0
5,59999,4,50000,17,20000,40,9999,0.100000,0,0,0.000000,6,0.000000,0.000000,0.121752,0,0,0,0,0,0,0
5,59999,5,50000,55,40000,40,9999,0.100000,0,0,0.000000,6,0.000000,0.000000,0.101083,0,0,0,0,0,0,0
5,59999,6,50000,2,10000,40,9999,0.100000,0,0,0.000000,6,0.000000,0.000000,0.506332,0,0,0,0,0,0,0
5,59999,7,50000,55,40000,40,9999,0.100000,0,0,0.000000,6,0.000000,0.000000,1.713091,0,0,0,0,0,0,0
5,59999,8,50000,17,10000,40,9999,0.100000,0,0,0.000000,6,0.000000,0.000000,3.202820,0,0,0,0,0,0,0
5,59999,9,50000,70,10000,40,9999,0.100000,0,0,0.000000,6,0.000000,0.000000,0.251329,0,0,0,0,0,0,0
5,59999,10,50000,0,0,40,9999,0.100000,0,0,0.000000,6,0.000000,0.000000,0.094837,0,0,0,0,0,0,0
5,59999,11,50000,70,10000,40,9999,0.100000,0,0,0.000000,6,0.000000,0.000000,0.481532,0,0,0,0,0,0,0
5,59999,12,50000,17,10000,40,9999,0.100000,0,0,0.000000,6,0.000000,0.000000,0.075139,0,0,0,0,0,0,0
5,59999,13,50000,2,10000,40,9999,0.100000,0,0,0.000000,6,0.000000,0.000000,0.070683,0,0,0,0,0,0,0
5,59999,14,50000,17,20000,40,9999,0.100000,0,0,0.000000,6,0.000000,0.000000,0.401395,0,0,0,0,0,0,0
5,59999,15,50000,2,10000,40,9999,0.100000,0,0,0.000000,6,0.000000,0.000000,0.154758,0,0,0,0,0,0,0
5,59999,16,50000,70,10000,40,9999,0.100000,0,0,0.000000,6,0.000000,0.000000,0.949726,0,0,0,0,0,0,0
5,59999,17,50000,70,10000,40,9999,0.100000,0,0,0.000000,6,0.000000,0.000000,0.873353,0,0,0,0,0,0,0
5,59999,18,50000,2,10000,40,9999,0.100000,0,0,0.000000,6,0.000000,0.000000,0.065234,0,0,0,0,0,0,0
5,59999,19,50000,17,20000,40,9999,0.100000,0,0,0.000000,6,0.000000,0.000000,0.759505,0,0,0,0,0,0,0
5,59999,20,50000,17,20000,40,9999,0.100000,0,0,0.000000,6,0.000000,0.000000,0.107072,0,0,0,0,0,0,0
5,59999,21,50000,14,10000,40,9999,0.100000,0,0,0.000000,6,0.000000,0.000000,0.125689,0,0,0,0,0,0,0
5,59999,22,50000,14,10000,40,9999,0.100000,0,0,0.000000,6,0.000000,0.000000,0.126452,0,0,0,0,0,0,0
5,59999,23,50000,14,10000,40,9999,0.100000,0,0,0.000000,6,0.000000,0.000000,0.268038,0,0,0,0,0,0,0
5,59999,24,50000,70,10000,40,9999,0.100000,0,0,0.000000,6,0.000000,0.000000,11.009339,0,0,0,0,0,0,0
5,59999,25,50000,70,10000,40,9999,0.100000,0,0,0.000000,6,0.000000,0.000000,0.233883,0,0,0,0,0,0,0
5,59999,26,50000,17,20000,40,9999,0.100000,0,0,0.000000,6,0.000000,0.000000,0.892155,0,0,0,0,0,0,0
5,59999,27,50000,70,10000,40,9999,0.100000,0,0,0.000000,6,0.000000,0.000000,0.096199,0,0,0,0,0,0,0
5,59999,28,50000,2,10000,40,9999,0.100000,0,0,0.000000,6,0.000000,0.000000,1.004302,0,0,0,0,0,0,0
5,59999,29,50000,0,0,40,9999,0.100000,0,0,0.000000,6,0.000000,0.000000,0.092203,0,0,0,0,0,0,0
5,59999,30,50000,70,10000,40,9999,0.100000,0,0,0.000000,6,0.000000,0.000000,0.077739,0,0,0,0,0,0,0
5,59999,31,50000,0,0,40,9999,0.100000,0,0,0.000000,6,0.000000,0.000000,0.214889,0,0,0,0,0,0,0
5,59999,32,50000,14,10000,40,9999,0.100000,0,0,0.000000,6,0.000000,0.000000,0.422476,0,0,0,0,0,0,0
5,59999,33,50000,17,20000,40,9999,0.100000,0,0,0.000000,6,0.000000,0.000000,0.453503,0,0,0,0,0,0,0
5,59999,34,50000,70,10000,40,9999,0.100000,0,0,0.000000,6,0.000000,0.000000,0.092989,0,0,0,0,0,0,0
5,59999,35,50000,0,0,49,9999,0.100000,0,0,0.000000,6,5.000000,0.000000,14.437588,0,0,0,0,0,0,0
5,59999,36,50000,17,20000,40,9999,0.100000,0,0,0.000000,6,0.000000,0.000000,0.402488,0,0,0,0,0,0,0
5,59999,37,50000,2,10000,40,9999,0.100000,0,0,0.000000,6,0.000000,0.000000,0.088196,0,0,0,0,0,0,0
5,59999,38,50000,0,0,40,9999,0.100000,0,0,0.000000,6,0.000000,0.000000,0.364918,0,0,0,0,0,0,0
5,59999,39,50000,0,0,40,9999,0.100000,0,0,0.000000,6,0.000000,0.000000,0.590051,0,0,0,0,0,0,0
5,59999,40,50000,0,0,40,9999,0.100000,0,0,0.000000,6,0.000000,0.000000,0.137216,0,0,0,0,0,0,0
5,59999,41,50000,2,10000,49,9999,0.100000,0,0,0.000000,6,8.000000,0.000000,18.604495,0,0,0,0,0,0,0
5,59999,42,50000,2,10000,40,9999,0.100000,0,0,0.000000,6,0.000000,0.000000,0.667851,0,0,0,0,0,0,0
5,59999,43,50000,0,0,40,9999,0.100000,0,0,0.000000,6,0.000000,0.000000,22.152063,0,0,0,0,0,0,0
5,59999,44,50000,2,10000,40,9999,0.100000,0,0,0.000000,6,0.000000,0.000000,0.940569,0,0,0,0,0,0,0
5,59999,45,50000,0,0,40,9999,0.100000,0,0,0.000000,6,0.000000,0.000000,1.226462,0,0,0,0,0,0,0
5,59999,46,50000,2,10000,40,9999,0.100000,0,0,0.000000,6,0.000000,0.000000,1.005740,0,0,0,0,0,0,0
5,59999,47,50000,0,0,40,9999,0.100000,0,0,0.000000,6,0.000000,0.000000,0.332476,0,0,0,0,0,0,0
5,59999,48,50000,2,10000,40,9999,0.100000,0,0,0.000000,6,0.000000,0.000000,0.565133,0,0,0,0,0,0,0
5,59999,49,50000,2,10000,40,9999,0.100000,0,0,0.000000,6,0.000000,0.000000,0.227802,0,0,0,0,0,0,0
5,59999,50,50000,70,10000,40,9999,0.100000,0,0,0.000000,6,0.000000,0.000000,0.371741,0,0,0,0,0,0,0
5,59999,51,50000,70,10000,40,9999,0.100000,0,0,0.000000,6,0.000000,0.000000,0.096269,0,0,0,0,0,0,0
5,59999,52,50000,2,10000,40,9999,0.100000,0,0,0.000000,6,0.000000,0.000000,0.083765,0,0,0,0,0,0,0
5,59999,53,50000,17,20000,40,9999,0.100000,0,0,0.000000,6,0.000000,0.000000,0.076436,0,0,0,0,0,0,0
5,59999,54,50000,17,20000,40,9999,0.100000,0,0,0.000000,6,0.000000,0.000000,0.489725,0,0,0,0,0,0,0
5,59999,55,50000,0,0,40,9999,0.100000,0,0,0.000000,6,0.000000,0.000000,1.277753,0,0,0,0,0,0,0
5,59999,56,50000,55,40000,40,9999,0.100000,0,0,0.000000,6,0.000000,0.000000,3.952816,0,0,0,0,0,0,0
5,59999,57,50000,2,10000,40,9999,0.100000,0,0,0.000000,6,0.000000,0.000000,0.649408,0,0,0,0,0,0,0
5,59999,58,50000,17,20000,40,9999,0.065000,0,0,0.000000,6,0.000000,0.000000,0.667872,0,0,0,0,0,0,0
5,59999,59,50000,70,10000,40,9999,0.100000,0,0,0.000000,6,0.000000,0.000000,0.083966,0,0,0,0,0,0,0
5,59999,60,50000,2,10000,40,9999,0.100000,0,0,0.000000,6,0.000000,0.000000,0.113057,0,0,0,0,0,0,0
5,59999,61,50000,2,10000,40,9999,0.100000,0,0,0.000000,6,0.000000,0.000000,1.519846,0,0,0,0,0,0,0
5,59999,62,50000,55,40000,40,9999,0.100000,0,0,0.000000,6,0.000000,0.000000,0.086401,0,0,0,0,0,0,0
5,59999,63,50000,2,10000,40,9999,0.100000,0,0,0.000000,6,0.000000,0.000000,0.088048,0,0,0,0,0,0,0
5,59999,64,50000,0,0,40,9999,0.100000,0,0,0.000000,6,0.000000,0.000000,0.088440,0,0,0,0,0,0,0
5,59999,65,50000,0,0,40,9999,0.100000,0,0,0.000000,6,0.000000,0.000000,0.323326,0,0,0,0,0,0,0
5,59999,66,50000,17,20000,40,9999,0.100000,0,0,0.000000,6,0.000000,0.000000,0.509198,0,0,0,0,0,0,0
5,59999,67,50000,17,20000,40,9999,0.100000,0,0,0.000000,6,0.000000,0.000000,0.077538,0,0,0,0,0,0,0
5,59999,68,50000,17,20000,40,9999,0.100000,0,0,0.000000,6,0.000000,0.000000,0.142686,0,0,0,0,0,0,0
5,59999,69,50000,2,10000,40,9999,0.100000,0,0,0.000000,6,0.000000,0.000000,0.087782,0,0,0,0,0,0,0
5,59999,70,50000,17,20000,40,9999,0.100000,0,0,0.000000,6,0.000000,0.000000,0.992544,0,0,0,0,0,0,0
5,59999,71,50000,0,0,40,9999,0.100000,0,0,0.000000,6,0.000000,0.000000,0.111553,0,0,0,0,0,0,0
5,59999,72,50000,2,10000,40,9999,0.100000,0,0,0.000000,6,0.000000,0.000000,5.716861,0,0,0,0,0,0,0
5,59999,73,50000,2,10000,40,9999,0.100000,0,0,0.000000,6,0.000000,0.000000,0.503937,0,0,0,0,0,0,0
5,59999,74,50000,17,10000,40,9999,0.100000,0,0,0.000000,6,0.000000,0.000000,1.021863,0,0,0,0,0,0,0
5,59999,75,50000,70,10000,40,9999,0.100000,0,0,0.000000,6,0.000000,0.000000,0.499483,0,0,0,0,0,0,0
5,59999,76,50000,17,20000,49,9999,0.100000,0,0,0.000000,6,8.000000,0.000000,18.007100,0,0,0,0,0,0,0
5,59999,77,50000,17,10000,40,9999,0.100000,0,0,0.000000,6,0.000000,0.000000,0.663110,0,0,0,0,0,0,0
5,59999,78,50000,14,10000,40,9999,0.100000,0,0,0.000000,6,0.000000,0.000000,1.309354,0,0,0,0,0,0,0
5,59999,79,50000,2,10000,40,9999,0.100000,0,0,0.000000,6,0.000000,0.000000,0.235258,0,0,0,0,0,0,0
5,59999,80,50000,0,0,40,9999,0.100000,0,0,0.000000,6,0.000000,0.000000,0.389639,0,0,0,0,0,0,0
5,59999,81,50000,14,10000,40,9999,0.100000,0,0,0.000000,6,0.000000,0.000000,0.276171,0,0,0,0,0,0,0
5,59999,82,50000,0,0,40,9999,0.100000,0,0,0.000000,6,0.000000,0.000000,0.856234,0,0,0,0,0,0,0
5,59999,83,50000,55,40000,40,9999,0.100000,0,0,0.000000,6,0.000000,0.000000,0.214087,0,0,0,0,0,0,0
5,59999,84,50000,70,10000,40,9999,0.100000,0,0,0.000000,6,0.000000,0.000000,1.729705,0,0,0,0,0,0,0
5,59999,85,50000,70,10000,40,9999,0.100000,0,0,0.000000,6,0.000000,0.000000,0.178842,0,0,0,0,0,0,0
5,59999,86,50000,0,0,40,9999,0.100000,0,0,0.000000,6,0.000000,0.000000,0.235389,0,0,0,0,0,0,0
5,59999,87,50000,14,10000,40,9999,0.100000,0,0,0.000000,6,0.000000,0.000000,1.273773,0,0,0,0,0,0,0
5,59999,88,50000,14,10000,40,9999,0.100000,0,0,0.000000,6,0.000000,0.000000,0.095597,0,0,0,0,0,0,0
5,59999,89,50000,2,10000,40,9999,0.100000,0,0,0.000000,6,0.000000,0.000000,0.163237,0,0,0,0,0,0,0
5,59999,90,50000,17,20000,40,9999,0.100000,0,0,0.000000,6,0.000000,0.000000,0.309635,0,0,0,0,0,0,0
5,59999,91,50000,2,10000,49,9999,0.100000,0,0,0.000000,6,4.000000,0.000000,9.579420,0,0,0,0,0,0,0
5,59999,92,50000,70,10000,40,9999,0.100000,0,0,0.000000,6,0.000000,0.000000,1.148481,0,0,0,0,0,0,0
5,59999,93,50000,0,0,40,9999,0.100000,0,0,0.000000,6,0.000000,0.000000,0.503057,0,0,0,0,0,0,0
5,59999,94,50000,70,10000,40,9999,0.100000,0,0,0.000000,6,0.000000,0.000000,0.447192,0,0,0,0,0,0,0
5,59999,95,50000,17,20000,40,9999,0.100000,0,0,0.000000,6,0.000000,0.000000,0.874961,0,0,0,0,0,0,0
5,59999,96,50000,17,20000,49,9999,0.100000,0,0,0.000000,6,5.000000,0.000000,6.138159,0,0,0,0,0,0,0
5,59999,97,50000,17,20000,40,9999,0.100000,0,0,0.000000,6,0.000000,0.000000,2.151444,0,0,0,0,0,0,0
5,59999,98,50000,17,20000,40,9999,0.100000,0,0,0.000000,6,0.000000,0.000000,0.101372,0,0,0,0,0,0,0
5,59999,99,50000,55,40000,40,9999,0.100000,0,0,0.000000,6,0.000000,0.000000,0.070744,0,0,0,0,0,0,0
6,69999,0,60000,70,10000,40,9999,0.100000,0,0,0.000000,6,0.000000,0.000000,0.292251,0,0,0,0,0,0,0
6,69999,1,60000,0,0,40,9999,0.100000,0,0,0.000000,6,0.000000,0.000000,0.308713,0,0,0,0,0,0,0
6,69999,2,60000,14,10000,40,9999,0.100000,0,0,0.000000,6,0.000000,0.000000,3.426317,0,0,0,0,0,0,0
6,69999,3,60000,17,20000,49,9999,0.100000,0,0,0.000000,6,1.000000,0.000000,6.322147,0,0,0,0,0,0,0
6,69999,4,60000,55,40000,40,9999,0.100000,0,0,0.000000,6,0.000000,0.000000,0.129901,0,0,0,0,0,0,0
6,69999,5,60000,70,10000,40,9999,0.100000,0,0,0.000000,6,0.000000,0.000000,0.100637,0,0,0,0,0,0,0
6,69999,6,60000,70,10000,40,9999,0.100000,0,0,0.000000,6,0.000000,0.000000,0.533190,0,0,0,0,0,0,0
6,69999,7,60000,70,10000,40,9999,0.100000,0,0,0.000000,6,0.000000,0.000000,0.437538,0,0,0,0,0,0,0
6,69999,8,60000,14,10000,40,9999,0.100000,0,0,0.000000,6,0.000000,0.000000,1.461518,0,0,0,0,0,0,0
6,69999,9,60000,17,20000,40,9999,0.100000,0,0,0.000000,6,0.000000,0.000000,0.548571,0,0,0,0,0,0,0
6,69999,10,60000,14,10000,40,9999,0.100000,0,0,0.000000,6,0.000000,0.000000,0.094905,0,0,0,0,0,0,0
6,69999,11,60000,2,10000,40,9999,0.100000,0,0,0.000000,6,0.000000,0.000000,0.591029,0,0,0,0,0,0,0
6,69999,12,60000,17,20000,40,9999,0.100000,0,0,0.000000,6,0.000000,0.000000,0.084312,0,0,0,0,0,0,0
6,69999,13,60000,14,10000,40,9999,0.100000,0,0,0.000000,6,0.000000,0.000000,0.085576,0,0,0,0,0,0,0
6,69999,14,60000,0,0,40,9999,0.100000,0,0,0.000000,6,0.000000,0.000000,0.357425,0,0,0,0,0,0,0
6,69999,15,60000,2,10000,40,9999,0.100000,0,0,0.000000,6,0.000000,0.000000,0.188685,0,0,0,0,0,0,0
6,69999,16,60000,14,10000,40,9999,0.100000,0,0,0.000000,6,0.000000,0.000000,0.578697,0,0,0,0,0,0,0
6,69999,17,60000,14,10000,40,9999,0.100000,0,0,0.000000,6,0.000000,0.000000,0.642857,0,0,0,0,0,0,0
6,69999,18,60000,0,0,40,9999,0.100000,0,0,0.000000,6,0.000000,0.000000,0.064981,0,0,0,0,0,0,0
6,69999,19,60000,17,20000,40,9999,0.100000,0,0,0.000000,6,0.000000,0.000000,0.753595,0,0,0,0,0,0,0
6,69999,20,60000,0,0,40,9999,0.100000,0,0,0.000000,6,0.000000,0.000000,0.121299,0,0,0,0,0,0,0
6,69999,21,60000,70,10000,40,9999,0.100000,0,0,0.000000,6,0.000000,0.000000,0.274631,0,0,0,0,0,0,0
6,69999,22,60000,2,10000,40,9999,0.100000,0,0,0.000000,6,0.000000,0.000000,0.464905,0,0,0,0,0,0,0
6,69999,23,60000,0,0,40,9999,0.100000,0,0,0.000000,6,0.000000,0.000000,0.619661,0,0,0,0,0,0,0
6,69999,24,60000,0,0,40,9999,0.100000,0,0,0.000000,6,0.000000,0.000000,2.997274,0,0,0,0,0,0,0
6,69999,25,60000,14,10000,40,9999,0.100000,0,0,0.000000,6,0.000000,0.000000,0.488525,0,0,0,0,0,0,0
6,69999,26,60000,55,40000,49,9999,0.100000,0,0,0.000000,6,1.000000,0.000000,3.314673,0,0,0,0,0,0,0
6,69999,27,60000,0,0,40,9999,0.100000,0,0,0.000000,6,0.000000,0.000000,0.094343,0,0,0,0,0,0,0
6,69999,28,60000,14,10000,49,9999,0.100000,0,0,0.000000,6,2.000000,0.000000,3.294888,0,0,0,0,0,0,0
6,69999,29,60000,70,10000,40,9999,0.100000,0,0,0.000000,6,0.000000,0.000000,0.488881,0,0,0,0,0,0,0
6,69999,30,60000,55,40000,40,9999,0.100000,0,0,0.000000,6,0.000000,0.000000,0.081806,0,0,0,0,0,0,0
6,69999,31,60000,2,10000,40,9999,0.100000,0,0,0.000000,6,0.000000,0.000000,0.835071,0,0,0,0,0,0,0
6,69999,32,60000,0,0,40,9999,0.100000,0,0,0.000000,6,0.000000,0.000000,0.613158,0,0,0,0,0,0,0
6,69999,33,60000,0,0,40,9999,0.100000,0,0,0.000000,6,0.000000,0.000000,1.845211,0,0,0,0,0,0,0
6,69999,34,60000,14,10000,40,9999,0.100000,0,0,0.000000,6,0.000000,0.000000,0.093399,0,0,0,0,0,0,0
6,69999,35,60000,14,10000,49,9999,0.100000,0,0,0.000000,6,2.000000,0.000000,6.691345,0,0,0,0,0,0,0
6,69999,36,60000,2,10000,49,9999,0.100000,0,0,0.000000,6,2.000000,0.000000,5.661418,0,0,0,0,0,0,0
6,69999,37,60000,14,10000,40,9999,0.100000,0,0,0.000000,6,0.000000,0.000000,0.089548,0,0,0,0,0,0,0
6,69999,38,60000,14,10000,40,9999,0.100000,0,0,0.000000,6,0.000000,0.000000,0.420539,0,0,0,0,0,0,0
6,69999,39,60000,0,0,40,9999,0.100000,0,0,0.000000,6,0.000000,0.000000,0.555114,0,0,0,0,0,0,0
6,69999,40,60000,2,10000,40,9999,0.100000,0,0,0.000000,6,0.000000,0.000000,0.146119,0,0,0,0,0,0,0
6,69999,41,60000,17,20000,40,9999,0.100000,0,0,0.000000,6,0.000000,0.000000,0.855915,0,0,0,0,0,0,0
6,69999,42,60000,17,20000,0,9999,0.100000,0,0,0.000000,6,0.000000,0.000000,1.131357,0,0,0,0,0,0,1
6,69999,43,60000,17,20000,40,9999,0.100000,0,0,0.000000,6,0.000000,0.000000,21.453285,0,0,0,0,0,0,0
6,69999,44,60000,55,40000,40,9999,0.100000,0,0,0.000000,6,0.000000,0.000000,0.875075,0,0,0,0,0,0,0
6,69999,45,60000,14,10000,40,9999,0.100000,0,0,0.000000,6,0.000000,0.000000,1.153596,0,0,0,0,0,0,0
6,69999,46,60000,55,40000,40,9999,0.100000,0,0,0.000000,6,0.000000,0.000000,1.210576,0,0,0,0,0,0,0
6,69999,47,60000,55,40000,49,9999,0.100000,0,0,0.000000,6,2.000000,0.000000,2.821204,0,0,0,0,0,0,0
6,69999,48,60000,2,10000,49,9999,0.100000,0,0,0.000000,6,2.000000,0.000000,5.863296,0,0,0,0,0,0,0
6,69999,49,60000,55,40000,40,9999,0.100000,0,0,0.000000,6,0.000000,0.000000,1.072638,0,0,0,0,0,0,0
6,69999,50,60000,2,10000,40,9999,0.100000,0,0,0.000000,6,0.000000,0.000000,0.589392,0,0,0,0,0,0,0
6,69999,51,60000,70,10000,40,9999,0.100000,0,0,0.000000,6,0.000000,0.000000,0.095543,0,0,0,0,0,0,0
6,69999,52,60000,0,0,40,9999,0.100000,0,0,0.000000,6,0.000000,0.000000,0.087038,0,0,0,0,0,0,0
6,69999,53,60000,55,40000,40,9999,0.100000,0,0,0.000000,6,0.000000,0.000000,0.075804,0,0,0,0,0,0,0
6,69999,54,60000,14,10000,40,9999,0.100000,0,0,0.000000,6,0.000000,0.000000,0.505569,0,0,0,0,0,0,0
6,69999,55,60000,70,10000,49,9999,0.100000,0,0,0.000000,6,8.000000,0.000000,10.593433,0,0,0,0,0,0,0
6,69999,56,60000,14,10000,40,9999,0.100000,0,0,0.000000,6,0.000000,0.000000,6.120608,0,0,0,0,0,0,0
6,69999,57,60000,0,0,40,9999,0.100000,0,0,0.000000,6,0.000000,0.000000,1.475238,0,0,0,0,0,0,0
6,69999,58,60000,0,0,40,9999,0.100000,0,0,0.000000,6,0.000000,0.000000,0.506185,0,0,0,0,0,0,0
6,69999,59,60000,0,0,40,9999,0.065000,0,0,0.000000,6,0.000000,0.000000,0.085200,0,0,0,0,0,0,0
6,69999,60,60000,17,20000,40,9999,0.100000,0,0,0.000000,6,0.000000,0.000000,0.172777,0,0,0,0,0,0,0
6,69999,61,60000,55,40000,40,9999,0.100000,0,0,0.000000,6,0.000000,0.000000,1.184862,0,0,0,0,0,0,0
6,69999,62,60000,70,10000,40,9999,0.100000,0,0,0.000000,6,0.000000,0.000000,0.087982,0,0,0,0,0,0,0
6,69999,63,60000,17,20000,40,9999,0.100000,0,0,0.000000,6,0.000000,0.000000,0.083651,0,0,0,0,0,0,0
6,69999,64,60000,2,10000,40,9999,0.100000,0,0,0.000000,6,0.000000,0.000000,0.611388,0,0,0,0,0,0,0
6,69999,65,60000,70,10000,40,9999,0.100000,0,0,0.000000,6,0.000000,0.000000,0.448472,0,0,0,0,0,0,0
6,69999,66,60000,55,40000,40,9999,0.100000,0,0,0.000000,6,0.000000,0.000000,0.698099,0,0,0,0,0,0,0
6,69999,67,60000,14,10000,40,9999,0.100000,0,0,0.000000,6,0.000000,0.000000,0.077281,0,0,0,0,0,0,0
6,69999,68,60000,2,10000,40,9999,0.100000,0,0,0.000000,6,0.000000,0.000000,0.146010,0,0,0,0,0,0,0
6,69999,69,60000,14,10000,40,9999,0.100000,0,0,0.000000,6,0.000000,0.000000,0.093202,0,0,0,0,0,0,0
6,69999,70,60000,2,10000,40,9999,0.100000,0,0,0.000000,6,0.000000,0.000000,0.081415,0,0,0,0,0,0,0
6,69999,71,60000,2,10000,40,9999,0.100000,0,0,0.000000,6,0.000000,0.000000,0.111217,0,0,0,0,0,0,0
6,69999,72,60000,14,10000,40,9999,0.100000,0,0,0.000000,6,0.000000,0.000000,2.321227,0,0,0,0,0,0,0
6,69999,73,60000,55,40000,49,9999,0.100000,0,0,0.000000,6,2.000000,0.000000,2.963923,0,0,0,0,0,0,0
6,69999,74,60000,55,40000,40,9999,0.100000,0,0,0.000000,6,0.000000,0.000000,0.692019,0,0,0,0,0,0,0
6,69999,75,60000,70,10000,40,9999,0.100000,0,0,0.000000,6,0.000000,0.000000,0.740554,0,0,0,0,0,0,0
6,69999,76,60000,14,10000,49,9999,0.100000,0,0,0.000000,6,4.000000,0.000000,7.282407,0,0,0,0,0,0,0
6,69999,77,60000,2,10000,40,9999,0.100000,0,0,0.000000,6,0.000000,0.000000,0.666261,0,0,0,0,0,0,0
6,69999,78,60000,2,10000,40,9999,0.100000,0,0,0.000000,6,0.000000,0.000000,1.919392,0,0,0,0,0,0,0
6,69999,79,60000,17,20000,40,9999,0.100000,0,0,0.000000,6,0.000000,0.000000,0.234894,0,0,0,0,0,0,0
6,69999,80,60000,0,0,40,9999,0.100000,0,0,0.000000,6,0.000000,0.000000,0.348149,0,0,0,0,0,0,0
6,69999,81,60000,0,0,40,9999,0.100000,0,0,0.000000,6,0.000000,0.000000,0.389922,0,0,0,0,0,0,0
6,69999,82,60000,17,20000,40,9999,0.100000,0,0,0.000000,6,0.000000,0.000000,1.305195,0,0,0,0,0,0,0
6,69999,83,60000,55,40000,40,9999,0.100000,0,0,0.000000,6,0.000000,0.000000,0.316501,0,0,0,0,0,0,0
6,69999,84,60000,70,10000,40,9999,0.100000,0,0,0.000000,6,0.000000,0.000000,0.877485,0,0,0,0,0,0,0
6,69999,85,60000,55,40000,40,9999,0.100000,0,0,0.000000,6,0.000000,0.000000,0.173671,0,0,0,0,0,0,0
6,69999,86,60000,14,10000,49,9999,0.100000,0,0,0.000000,6,3.000000,0.000000,6.766119,0,0,0,0,0,0,0
6,69999,87,60000,14,10000,40,9999,0.100000,0,0,0.000000,6,0.000000,0.000000,1.234241,0,0,0,0,0,0,0
6,69999,88,60000,14,10000,40,9999,0.100000,0,0,0.000000,6,0.000000,0.000000,0.095191,0,0,0,0,0,0,0
6,69999,89,60000,70,10000,40,9999,0.100000,0,0,0.000000,6,0.000000,0.000000,0.182771,0,0,0,0,0,0,0
6,69999,90,60000,55,40000,40,9999,0.100000,0,0,0.000000,6,0.000000,0.000000,0.529346,0,0,0,0,0,0,0
6,69999,91,60000,14,10000,40,9999,0.100000,0,0,0.000000,6,0.000000,0.000000,16.072353,0,0,0,0,0,0,0
6,69999,92,60000,2,10000,40,9999,0.100000,0,0,0.000000,6,0.000000,0.000000,1.080867,0,0,0,0,0,0,0
6,69999,93,60000,55,40000,49,9999,0.100000,0,0,0.000000,6,2.000000,0.000000,3.048913,0,0,0,0,0,0,0
6,69999,94,60000,70,10000,40,9999,0.100000,0,0,0.000000,6,0.000000,0.000000,0.772245,0,0,0,0,0,0,0
6,69999,95,60000,55,40000,40,9999,0.100000,0,0,0.000000,6,0.000000,0.000000,1.037118,0,0,0,0,0,0,0
6,69999,96,60000,70,10000,40,9999,0.100000,0,0,0.000000,6,0.000000,0.000000,1.627929,0,0,0,0,0,0,0
6,69999,97,60000,2,10000,40,9999,0.100000,0,0,0.000000,6,0.000000,0.000000,2.119115,0,0,0,0,0,0,0
6,69999,98,60000,55,40000,40,9999,0.100000,0,0,0.000000,6,0.000000,0.000000,0.106415,0,0,0,0,0,0,0
6,69999,99,60000,14,10000,40,9999,0.100000,0,0,0.000000,6,0.000000,0.000000,0.070704,0,0,0,0,0,0,0
7,79999,0,70000,55,40000,40,9999,0.100000,0,0,0.000000,6,0.000000,0.000000,0.343894,0,0,0,0,0,0,0
7,79999,1,70000,55,40000,40,9999,0.100000,0,0,0.000000,6,0.000000,0.000000,0.152629,0,0,0,0,0,0,0
7,79999,2,70000,2,10000,40,9999,0.100000,0,0,0.000000,6,0.000000,0.000000,2.621585,0,0,0,0,0,0,0
7,79999,3,70000,2,10000,49,9999,0.100000,0,0,0.000000,6,1.000000,0.000000,5.701465,0,0,0,0,0,0,0
7,79999,4,70000,2,10000,40,9999,0.100000,0,0,0.000000,6,0.000000,0.000000,0.137574,0,0,0,0,0,0,0
7,79999,5,70000,70,10000,40,9999,0.100000,0,0,0.000000,6,0.000000,0.000000,0.101618,0,0,0,0,0,0,0
7,79999,6,70000,14,10000,40,9999,0.100000,0,0,0.000000,6,0.000000,0.000000,0.910927,0,0,0,0,0,0,0
7,79999,7,70000,17,20000,40,9999,0.100000,0,0,0.000000,6,0.000000,0.000000,0.373819,0,0,0,0,0,0,0
7,79999,8,70000,2,10000,40,9999,0.100000,0,0,0.000000,6,0.000000,0.000000,0.806180,0,0,0,0,0,0,0
7,79999,9,70000,2,10000,40,9999,0.100000,0,0,0.000000,6,0.000000,0.000000,0.947351,0,0,0,0,0,0,0
7,79999,10,70000,70,10000,40,9999,0.100000,0,0,0.000000,6,0.000000,0.000000,0.096212,0,0,0,0,0,0,0
7,79999,11,70000,0,0,40,9999,0.100000,0,0,0.000000,6,0.000000,0.000000,1.090408,0,0,0,0,0,0,0
7,79999,12,70000,0,0,40,9999,0.100000,0,0,0.000000,6,0.000000,0.000000,0.080624,0,0,0,0,0,0,0
7,79999,13,70000,0,0,40,9999,0.100000,0,0,0.000000,6,0.000000,0.000000,0.071967,0,0,0,0,0,0,0
7,79999,14,70000,2,10000,40,9999,0.100000,0,0,0.000000,6,0.000000,0.000000,0.190129,0,0,0,0,0,0,0
7,79999,15,70000,14,10000,40,9999,0.100000,0,0,0.000000,6,0.000000,0.000000,0.230451,0,0,0,0,0,0,0
7,79999,16,70000,55,40000,40,9999,0.100000,0,0,0.000000,6,0.000000,0.000000,0.405304,0,0,0,0,0,0,0
7,79999,17,70000,55,40000,40,9999,0.100000,0,0,0.000000,6,0.000000,0.000000,0.404195,0,0,0,0,0,0,0
7,79999,18,70000,2,10000,40,9999,0.100000,0,0,0.000000,6,0.000000,0.000000,0.064857,0,0,0,0,0,0,0
7,79999,19,70000,17,20000,40,9999,0.100000,0,0,0.000000,6,0.000000,0.000000,0.794155,0,0,0,0,0,0,0
7,79999,20,70000,55,40000,40,9999,0.100000,0,0,0.000000,6,0.000000,0.000000,0.162401,0,0,0,0,0,0,0
7,79999,21,70000,70,10000,40,9999,0.100000,0,0,0.000000,6,0.000000,0.000000,0.161384,0,0,0,0,0,0,0
7,79999,22,70000,14,10000,40,9999,0.100000,0,0,0.000000,6,0.000000,0.000000,0.739647,0,0,0,0,0,0,0
7,79999,23,70000,55,40000,40,9999,0.100000,0,0,0.000000,6,0.000000,0.000000,0.956420,0,0,0,0,0,0,0
7,79999,24,70000,0,0,40,9999,0.100000,0,0,0.000000,6,0.000000,0.000000,2.363052,0,0,0,0,0,0,0
7,79999,25,70000,17,20000,40,9999,0.100000,0,0,0.000000,6,0.000000,0.000000,0.201020,0,0,0,0,0,0,0
7,79999,26,70000,0,0,49,9999,0.100000,0,0,0.000000,6,1.000000,0.000000,13.636461,0,0,0,0,0,0,0
7,79999,27,70000,17,20000,40,9999,0.100000,0,0,0.000000,6,0.000000,0.000000,0.092568,0,0,0,0,0,0,0
7,79999,28,70000,2,10000,49,9999,0.100000,0,0,0.000000,6,1.000000,0.000000,1.896965,0,0,0,0,0,0,0
7,79999,29,70000,2,10000,49,9999,0.100000,0,0,0.000000,6,4.000000,0.000000,9.606872,0,0,0,0,0,0,0
7,79999,30,70000,0,0,40,9999,0.100000,0,0,0.000000,6,0.000000,0.000000,0.086232,0,0,0,0,0,0,0
7,79999,31,70000,14,10000,40,9999,0.100000,0,0,0.000000,6,0.000000,0.000000,0.629733,0,0,0,0,0,0,0
7,79999,32,70000,17,20000,40,9999,0.100000,0,0,0.000000,6,0.000000,0.000000,0.072875,0,0,0,0,0,0,0
7,79999,33,70000,70,10000,40,9999,0.100000,0,0,0.000000,6,0.000000,0.000000,0.417978,0,0,0,0,0,0,0
7,79999,34,70000,17,20000,40,9999,0.100000,0,0,0.000000,6,0.000000,0.000000,0.193063,0,0,0,0,0,0,0
7,79999,35,70000,14,10000,40,9999,0.100000,0,0,0.000000,6,0.000000,0.000000,3.925429,0,0,0,0,0,0,0
7,79999,36,70000,2,10000,40,9999,0.100000,0,0,0.000000,6,0.000000,0.000000,0.383485,0,0,0,0,0,0,0
7,79999,37,70000,55,40000,40,9999,0.100000,0,0,0.000000,6,0.000000,0.000000,0.090306,0,0,0,0,0,0,0
7,79999,38,70000,2,10000,40,9999,0.100000,0,0,0.000000,6,0.000000,0.000000,0.411242,0,0,0,0,0,0,0
7,79999,39,70000,2,10000,49,9999,0.100000,0,0,0.000000,6,1.000000,0.000000,5.927728,0,0,0,0,0,0,0
7,79999,40,70000,17,20000,40,9999,0.100000,0,0,0.000000,6,0.000000,0.000000,0.109141,0,0,0,0,0,0,0
7,79999,41,70000,14,10000,40,9999,0.100000,0,0,0.000000,6,0.000000,0.000000,0.581851,0,0,0,0,0,0,0
7,79999,42,70000,70,10000,40,9999,0.100000,0,0,0.000000,6,0.000000,0.000000,0.127777,0,0,0,0,0,0,0
7,79999,43,70000,2,10000,40,9999,0.100000,0,0,0.000000,6,0.000000,0.000000,1.364059,0,0,0,0,0,0,0
7,79999,44,70000,2,10000,40,9999,0.100000,0,0,0.000000,6,0.000000,0.000000,0.860505,0,0,0,0,0,0,0
7,79999,45,70000,2,10000,40,9999,0.100000,0,0,0.000000,6,0.000000,0.000000,1.744495,0,0,0,0,0,0,0
7,79999,46,70000,55,40000,40,9999,0.100000,0,0,0.000000,6,0.000000,0.000000,0.252344,0,0,0,0,0,0,0
7,79999,47,70000,0,0,49,9999,0.100000,0,0,0.000000,6,1.000000,0.000000,1.849243,0,0,0,0,0,0,0
7,79999,48,70000,0,0,40,9999,0.100000,0,0,0.000000,6,0.000000,0.000000,1.291659,0,0,0,0,0,0,0
7,79999,49,70000,17,20000,40,9999,0.100000,0,0,0.000000,6,0.000000,0.000000,1.039083,0,0,0,0,0,0,0
7,79999,50,70000,70,10000,40,9999,0.100000,0,0,0.000000,6,0.000000,0.000000,0.536325,0,0,0,0,0,0,0
7,79999,51,70000,0,0,40,9999,0.100000,0,0,0.000000,6,0.000000,0.000000,0.093994,0,0,0,0,0,0,0
7,79999,52,70000,2,10000,40,9999,0.100000,0,0,0.000000,6,0.000000,0.000000,0.084857,0,0,0,0,0,0,0
7,79999,53,70000,2,10000,40,9999,0.100000,0,0,0.000000,6,0.000000,0.000000,0.075400,0,0,0,0,0,0,0
7,79999,54,70000,55,40000,40,9999,0.100000,0,0,0.000000,6,0.000000,0.000000,0.447124,0,0,0,0,0,0,0
7,79999,55,70000,70,10000,49,9999,0.100000,0,0,0.000000,6,3.000000,0.000000,19.819724,0,0,0,0,0,0,0
7,79999,56,70000,70,10000,40,9999,0.100000,0,0,0.000000,6,0.000000,0.000000,1.693979,0,0,0,0,0,0,0
7,79999,57,70000,70,10000,49,9999,0.100000,0,0,0.000000,6,3.000000,0.000000,5.460688,0,0,0,0,0,0,0
7,79999,58,70000,14,10000,40,9999,0.100000,0,0,0.000000,6,0.000000,0.000000,0.278582,0,0,0,0,0,0,0
7,79999,59,70000,17,20000,40,9999,0.100000,0,0,0.000000,6,0.000000,0.000000,0.083647,0,0,0,0,0,0,0
7,79999,60,70000,0,0,40,9999,0.100000,0,0,0.000000,6,0.000000,0.000000,0.168340,0,0,0,0,0,0,0
7,79999,61,70000,17,20000,40,9999,0.100000,0,0,0.000000,6,0.000000,0.000000,1.561677,0,0,0,0,0,0,0
7,79999,62,70000,17,20000,40,9999,0.100000,0,0,0.000000,6,0.000000,0.000000,0.087718,0,0,0,0,0,0,0
7,79999,63,70000,55,40000,40,9999,0.100000,0,0,0.000000,6,0.000000,0.000000,0.235127,0,0,0,0,0,0,0
7,79999,64,70000,2,10000,40,9999,0.100000,0,0,0.000000,6,0.000000,0.000000,0.588550,0,0,0,0,0,0,0
7,79999,65,70000,14,10000,40,9999,0.100000,0,0,0.000000,6,0.000000,0.000000,0.364072,0,0,0,0,0,0,0
7,79999,66,70000,2,10000,40,9999,0.100000,0,0,0.000000,6,0.000000,0.000000,0.378414,0,0,0,0,0,0,0
7,79999,67,70000,2,10000,40,9999,0.100000,0,0,0.000000,6,0.000000,0.000000,0.077878,0,0,0,0,0,0,0
7,79999,68,70000,70,10000,40,9999,0.100000,0,0,0.000000,6,0.000000,0.000000,0.146836,0,0,0,0,0,0,0
7,79999,69,70000,14,10000,40,9999,0.100000,0,0,0.000000,6,0.000000,0.000000,0.157580,0,0,0,0,0,0,0
7,79999,70,70000,17,20000,40,9999,0.100000,0,0,0.000000,6,0.000000,0.000000,0.080196,0,0,0,0,0,0,0
7,79999,71,70000,0,0,40,9999,0.100000,0,0,0.000000,6,0.000000,0.000000,0.110938,0,0,0,0,0,0,0
7,79999,72,70000,55,40000,40,9999,0.100000,0,0,0.000000,6,0.000000,0.000000,1.393140,0,0,0,0,0,0,0
7,79999,73,70000,55,40000,49,9999,0.100000,0,0,0.000000,6,1.000000,0.000000,1.632403,0,0,0,0,0,0,0
7,79999,74,70000,17,20000,40,9999,0.100000,0,0,0.000000,6,0.000000,0.000000,4.004186,0,0,0,0,0,0,0
7,79999,75,70000,17,20000,40,9999,0.100000,0,0,0.000000,6,0.000000,0.000000,1.222307,0,0,0,0,0,0,0
7,79999,76,70000,14,10000,40,9999,0.100000,0,0,0.000000,6,0.000000,0.000000,3.829321,0,0,0,0,0,0,0
7,79999,77,70000,2,10000,40,9999,0.100000,0,0,0.000000,6,0.000000,0.000000,0.693582,0,0,0,0,0,0,0
7,79999,78,70000,14,10000,40,9999,0.100000,0,0,0.000000,6,0.000000,0.000000,1.844079,0,0,0,0,0,0,0
7,79999,79,70000,70,10000,40,9999,0.100000,0,0,0.000000,6,0.000000,0.000000,0.239499,0,0,0,0,0,0,0
7,79999,80,70000,17,20000,40,9999,0.100000,0,0,0.000000,6,0.000000,0.000000,0.131374,0,0,0,0,0,0,0
7,79999,81,70000,14,10000,40,9999,0.100000,0,0,0.000000,6,0.000000,0.000000,0.140640,0,0,0,0,0,0,0
7,79999,82,70000,0,0,40,9999,0.100000,0,0,0.000000,6,0.000000,0.000000,1.687665,0,0,0,0,0,0,0
7,79999,83,70000,2,10000,40,9999,0.100000,0,0,0.000000,6,0.000000,0.000000,0.660469,0,0,0,0,0,0,0
7,79999,84,70000,2,10000,40,9999,0.100000,0,0,0.000000,6,0.000000,0.000000,0.309620,0,0,0,0,0,0,0
7,79999,85,70000,2,10000,40,9999,0.100000,0,0,0.000000,6,0.000000,0.000000,0.165859,0,0,0,0,0,0,0
7,79999,86,70000,14,10000,40,9999,0.100000,0,0,0.000000,6,0.000000,0.000000,1.333983,0,0,0,0,0,0,0
7,79999,87,70000,55,40000,40,9999,0.100000,0,0,0.000000,6,0.000000,0.000000,1.530514,0,0,0,0,0,0,0
7,79999,88,70000,2,10000,40,9999,0.100000,0,0,0.000000,6,0.000000,0.000000,0.093669,0,0,0,0,0,0,0
7,79999,89,70000,70,10000,40,9999,0.100000,0,0,0.000000,6,0.000000,0.000000,0.191549,0,0,0,0,0,0,0
7,79999,90,70000,17,20000,40,9999,0.100000,0,0,0.000000,6,0.000000,0.000000,0.234051,0,0,0,0,0,0,0
7,79999,91,70000,55,40000,40,9999,0.100000,0,0,0.000000,6,0.000000,0.000000,11.788478,0,0,0,0,0,0,0
7,79999,92,70000,70,10000,40,9999,0.100000,0,0,0.000000,6,0.000000,0.000000,0.546148,0,0,0,0,0,0,0
7,79999,93,70000,55,40000,49,9999,0.100000,0,0,0.000000,6,1.000000,0.000000,1.696590,0,0,0,0,0,0,0
7,79999,94,70000,2,10000,40,9999,0.100000,0,0,0.000000,6,0.000000,0.000000,0.550658,0,0,0,0,0,0,0
7,79999,95,70000,14,10000,40,9999,0.100000,0,0,0.000000,6,0.000000,0.000000,1.547554,0,0,0,0,0,0,0
7,79999,96,70000,17,20000,40,9999,0.100000,0,0,0.000000,6,0.000000,0.000000,1.096361,0,0,0,0,0,0,0
7,79999,97,70000,2,10000,40,9999,0.100000,0,0,0.000000,6,0.000000,0.000000,4.894108,0,0,0,0,0,0,0
7,79999,98,70000,14,10000,40,9999,0.100000,0,0,0.000000,6,0.000000,0.000000,0.111664,0,0,0,0,0,0,0
7,79999,99,70000,14,10000,40,9999,0.100000,0,0,0.000000,6,0.000000,0.000000,0.072294,0,0,0,0,0,0,0
8,89999,0,80000,0,0,40,9999,0.100000,0,0,0.000000,6,0.000000,0.000000,0.253681,0,0,0,0,0,0,0
8,89999,1,80000,17,20000,40,9999,0.100000,0,0,0.000000,6,0.000000,0.000000,0.128102,0,0,0,0,0,0,0
8,89999,2,80000,2,10000,40,9999,0.100000,0,0,0.000000,6,0.000000,0.000000,3.610563,0,0,0,0,0,0,0
8,89999,3,80000,70,10000,40,9999,0.100000,0,0,0.000000,6,0.000000,0.000000,5.077366,0,0,0,0,0,0,0
8,89999,4,80000,55,40000,40,9999,0.100000,0,0,0.000000,6,0.000000,0.000000,0.147492,0,0,0,0,0,0,0
8,89999,5,80000,14,10000,40,9999,0.100000,0,0,0.000000,6,0.000000,0.000000,0.100243,0,0,0,0,0,0,0
8,89999,6,80000,55,40000,40,9999,0.100000,0,0,0.000000,6,0.000000,0.000000,0.931278,0,0,0,0,0,0,0
8,89999,7,80000,55,40000,40,9999,0.100000,0,0,0.000000,6,0.000000,0.000000,0.757847,0,0,0,0,0,0,0
8,89999,8,80000,17,20000,40,9999,0.100000,0,0,0.000000,6,0.000000,0.000000,0.810895,0,0,0,0,0,0,0
8,89999,9,80000,14,10000,40,9999,0.100000,0,0,0.000000,6,0.000000,0.000000,1.013713,0,0,0,0,0,0,0
8,89999,10,80000,0,0,40,9999,0.100000,0,0,0.000000,6,0.000000,0.000000,0.094994,0,0,0,0,0,0,0
8,89999,11,80000,0,0,40,9999,0.100000,0,0,0.000000,6,0.000000,0.000000,0.616214,0,0,0,0,0,0,0
8,89999,12,80000,55,40000,40,9999,0.100000,0,0,0.000000,6,0.000000,0.000000,0.079889,0,0,0,0,0,0,0
8,89999,13,80000,0,0,40,9999,0.100000,0,0,0.000000,6,0.000000,0.000000,0.070146,0,0,0,0,0,0,0
8,89999,14,80000,0,0,40,9999,0.100000,0,0,0.000000,6,0.000000,0.000000,0.194524,0,0,0,0,0,0,0
8,89999,15,80000,0,0,40,9999,0.100000,0,0,0.000000,6,0.000000,0.000000,0.140240,0,0,0,0,0,0,0
8,89999,16,80000,70,10000,40,9999,0.100000,0,0,0.000000,6,0.000000,0.000000,0.177737,0,0,0,0,0,0,0
8,89999,17,80000,55,40000,40,9999,0.100000,0,0,0.000000,6,0.000000,0.000000,0.147173,0,0,0,0,0,0,0
8,89999,18,80000,70,10000,40,9999,0.100000,0,0,0.000000,6,0.000000,0.000000,0.065464,0,0,0,0,0,0,0
8,89999,19,80000,70,10000,40,9999,0.100000,0,0,0.000000,6,0.000000,0.000000,0.571283,0,0,0,0,0,0,0
8,89999,20,80000,70,10000,40,9999,0.100000,0,0,0.000000,6,0.000000,0.000000,0.117232,0,0,0,0,0,0,0
8,89999,21,80000,0,0,40,9999,0.100000,0,0,0.000000,6,0.000000,0.000000,0.166331,0,0,0,0,0,0,0
8,89999,22,80000,17,20000,40,9999,0.100000,0,0,0.000000,6,0.000000,0.000000,0.564769,0,0,0,0,0,0,0
8,89999,23,80000,17,20000,49,9999,0.100000,0,0,0.000000,6,1.000000,0.000000,3.280874,0,0,0,0,0,0,0
8,89999,24,80000,70,10000,40,9999,0.100000,0,0,0.000000,6,0.000000,0.000000,1.446173,0,0,0,0,0,0,0
8,89999,25,80000,70,10000,40,9999,0.100000,0,0,0.000000,6,0.000000,0.000000,0.166080,0,0,0,0,0,0,0
8,89999,26,80000,70,10000,49,9999,0.100000,0,0,0.000000,6,1.000000,0.000000,4.924324,0,0,0,0,0,0,0
8,89999,27,80000,17,20000,49,9999,0.100000,0,0,0.000000,6,9.000000,0.000000,18.643797,0,0,0,0,0,0,0
8,89999,28,80000,17,20000,40,9999,0.100000,0,0,0.000000,6,0.000000,0.000000,0.700661,0,0,0,0,0,0,0
8,89999,29,80000,2,10000,40,9999,0.100000,0,0,0.000000,6,0.000000,0.000000,2.872925,0,0,0,0,0,0,0
8,89999,30,80000,55,40000,40,9999,0.100000,0,0,0.000000,6,0.000000,0.000000,0.087557,0,0,0,0,0,0,0
8,89999,31,80000,2,10000,40,9999,0.100000,0,0,0.000000,6,0.000000,0.000000,0.866133,0,0,0,0,0,0,0
8,89999,32,80000,0,0,40,9999,0.100000,0,0,0.000000,6,0.000000,0.000000,0.073239,0,0,0,0,0,0,0
8,89999,33,80000,55,40000,40,9999,0.100000,0,0,0.000000,6,0.000000,0.000000,2.033274,0,0,0,0,0,0,0
8,89999,34,80000,70,10000,40,9999,0.100000,0,0,0.000000,6,0.000000,0.000000,0.140742,0,0,0,0,0,0,0
8,89999,35,80000,70,10000,40,9999,0.100000,0,0,0.000000,6,0.000000,0.000000,5.430648,0,0,0,0,0,0,0
8,89999,36,80000,70,10000,40,9999,0.100000,0,0,0.000000,6,0.000000,0.000000,0.378125,0,0,0,0,0,0,0
8,89999,37,80000,0,0,40,9999,0.100000,0,0,0.000000,6,0.000000,0.000000,0.089811,0,0,0,0,0,0,0
8,89999,38,80000,14,10000,40,9999,0.100000,0,0,0.000000,6,0.000000,0.000000,0.351354,0,0,0,0,0,0,0
8,89999,39,80000,0,0,49,9999,0.100000,0,0,0.000000,6,1.000000,0.000000,2.186198,0,0,0,0,0,0,0
8,89999,40,80000,14,10000,40,9999,0.100000,0,0,0.000000,6,0.000000,0.000000,23.530487,0,0,0,0,0,0,0
8,89999,41,80000,55,40000,40,9999,0.100000,0,0,0.000000,6,0.000000,0.000000,0.380007,0,0,0,0,0,0,0
8,89999,42,80000,55,40000,40,9999,0.100000,0,0,0.000000,6,0.000000,0.000000,0.127353,0,0,0,0,0,0,0
8,89999,43,80000,0,0,40,9999,0.100000,0,0,0.000000,6,0.000000,0.000000,1.827691,0,0,0,0,0,0,0
8,89999,44,80000,2,10000,40,9999,0.100000,0,0,0.000000,6,0.000000,0.000000,0.893378,0,0,0,0,0,0,0
8,89999,45,80000,17,20000,40,9999,0.100000,0,0,0.000000,6,0.000000,0.000000,1.300443,0,0,0,0,0,0,0
8,89999,46,80000,0,0,40,9999,0.100000,0,0,0.000000,6,0.000000,0.000000,0.214267,0,0,0,0,0,0,0
8,89999,47,80000,17,20000,40,9999,0.100000,0,0,0.000000,6,0.000000,0.000000,0.561645,0,0,0,0,0,0,0
8,89999,48,80000,14,10000,40,9999,0.100000,0,0,0.000000,6,0.000000,0.000000,1.987238,0,0,0,0,0,0,0
8,89999,49,80000,2,10000,40,9999,0.100000,0,0,0.000000,6,0.000000,0.000000,0.454540,0,0,0,0,0,0,0
8,89999,50,80000,17,20000,40,9999,0.100000,0,0,0.000000,6,0.000000,0.000000,0.604948,0,0,0,0,0,0,0
8,89999,51,80000,17,20000,40,9999,0.100000,0,0,0.000000,6,0.000000,0.000000,0.094107,0,0,0,0,0,0,0
8,89999,52,80000,0,0,40,9999,0.100000,0,0,0.000000,6,0.000000,0.000000,0.086585,0,0,0,0,0,0,0
8,89999,53,80000,2,10000,40,9999,0.100000,0,0,0.000000,6,0.000000,0.000000,0.078873,0,0,0,0,0,0,0
8,89999,54,80000,17,20000,40,9999,0.100000,0,0,0.000000,6,0.000000,0.000000,0.476994,0,0,0,0,0,0,0
8,89999,55,80000,2,10000,40,9999,0.100000,0,0,0.000000,6,0.000000,0.000000,4.892759,0,0,0,0,0,0,0
8,89999,56,80000,70,10000,40,9999,0.100000,0,0,0.000000,6,0.000000,0.000000,2.990930,0,0,0,0,0,0,0
8,89999,57,80000,2,10000,49,9999,0.100000,0,0,0.000000,6,2.000000,0.000000,6.381026,0,0,0,0,0,0,0
8,89999,58,80000,55,40000,40,9999,0.100000,0,0,0.000000,6,0.000000,0.000000,0.270385,0,0,0,0,0,0,0
8,89999,59,80000,2,10000,40,9999,0.100000,0,0,0.000000,6,0.000000,0.000000,0.086105,0,0,0,0,0,0,0
8,89999,60,80000,55,40000,40,9999,0.135000,0,0,0.000000,6,0.000000,0.000000,0.219485,0,0,0,0,0,0,0
8,89999,61,80000,14,10000,40,9999,0.100000,0,0,0.000000,6,0.000000,0.000000,3.355496,0,0,0,0,0,0,0
8,89999,62,80000,2,10000,40,9999,0.100000,0,0,0.000000,6,0.000000,0.000000,0.088341,0,0,0,0,0,0,0
8,89999,63,80000,14,10000,49,9999,0.100000,0,0,0.000000,6,2.000000,0.000000,3.509107,0,0,0,0,0,0,0
8,89999,64,80000,55,40000,40,9999,0.100000,0,0,0.000000,6,0.000000,0.000000,0.089007,0,0,0,0,0,0,0
8,89999,65,80000,70,10000,40,9999,0.100000,0,0,0.000000,6,0.000000,0.000000,0.510326,0,0,0,0,0,0,0
8,89999,66,80000,2,10000,40,9999,0.100000,0,0,0.000000,6,0.000000,0.000000,0.350366,0,0,0,0,0,0,0
8,89999,67,80000,14,10000,40,9999,0.100000,0,0,0.000000,6,0.000000,0.000000,0.077987,0,0,0,0,0,0,0
8,89999,68,80000,14,10000,40,9999,0.100000,0,0,0.000000,6,0.000000,0.000000,0.140872,0,0,0,0,0,0,0
8,89999,69,80000,14,10000,40,9999,0.100000,0,0,0.000000,6,0.000000,0.000000,0.120035,0,0,0,0,0,0,0
8,89999,70,80000,55,40000,40,9999,0.100000,0,0,0.000000,6,0.000000,0.000000,0.082249,0,0,0,0,0,0,0
8,89999,71,80000,2,10000,40,9999,0.100000,0,0,0.000000,6,0.000000,0.000000,0.110643,0,0,0,0,0,0,0
8,89999,72,80000,0,0,40,9999,0.100000,0,0,0.000000,6,0.000000,0.000000,1.294738,0,0,0,0,0,0,0
8,89999,73,80000,17,20000,40,9999,0.100000,0,0,0.000000,6,0.000000,0.000000,0.420661,0,0,0,0,0,0,0
8,89999,74,80000,55,40000,40,9999,0.100000,0,0,0.000000,6,0.000000,0.000000,4.565848,0,0,0,0,0,0,0
8,89999,75,80000,55,40000,40,9999,0.100000,0,0,0.000000,6,0.000000,0.000000,2.379714,0,0,0,0,0,0,0
8,89999,76,80000,14,10000,40,9999,0.100000,0,0,0.000000,6,0.000000,0.000000,1.263711,0,0,0,0,0,0,0
8,89999,77,80000,0,0,40,9999,0.100000,0,0,0.000000,6,0.000000,0.000000,0.742378,0,0,0,0,0,0,0
8,89999,78,80000,17,20000,40,9999,0.100000,0,0,0.000000,6,0.000000,0.000000,1.166809,0,0,0,0,0,0,0
8,89999,79,80000,70,10000,40,9999,0.100000,0,0,0.000000,6,0.000000,0.000000,0.230177,0,0,0,0,0,0,0
8,89999,80,80000,14,10000,40,9999,0.100000,0,0,0.000000,6,0.000000,0.000000,0.346936,0,0,0,0,0,0,0
8,89999,81,80000,0,0,40,9999,0.100000,0,0,0.000000,6,0.000000,0.000000,0.141919,0,0,0,0,0,0,0
8,89999,82,80000,70,10000,40,9999,0.100000,0,0,0.000000,6,0.000000,0.000000,0.127398,0,0,0,0,0,0,0
8,89999,83,80000,14,10000,40,9999,0.100000,0,0,0.000000,6,0.000000,0.000000,0.260919,0,0,0,0,0,0,0
8,89999,84,80000,70,10000,40,9999,0.100000,0,0,0.000000,6,0.000000,0.000000,0.226972,0,0,0,0,0,0,0
8,89999,85,80000,0,0,40,9999,0.100000,0,0,0.000000,6,0.000000,0.000000,0.215916,0,0,0,0,0,0,0
8,89999,86,80000,2,10000,40,9999,0.100000,0,0,0.000000,6,0.000000,0.000000,0.960842,0,0,0,0,0,0,0
8,89999,87,80000,17,20000,40,9999,0.100000,0,0,0.000000,6,0.000000,0.000000,1.696224,0,0,0,0,0,0,0
8,89999,88,80000,55,40000,40,9999,0.100000,0,0,0.000000,6,0.000000,0.000000,0.093530,0,0,0,0,0,0,0
8,89999,89,80000,55,40000,40,9999,0.100000,0,0,0.000000,6,0.000000,0.000000,0.205471,0,0,0,0,0,0,0
8,89999,90,80000,2,10000,40,9999,0.100000,0,0,0.000000,6,0.000000,0.000000,0.194673,0,0,0,0,0,0,0
8,89999,91,80000,70,10000,49,9999,0.100000,0,0,0.000000,6,3.000000,0.000000,15.235706,0,0,0,0,0,0,0
8,89999,92,80000,17,20000,40,9999,0.100000,0,0,0.000000,6,0.000000,0.000000,0.604635,0,0,0,0,0,0,0
8,89999,93,80000,0,0,40,9999,0.100000,0,0,0.000000,6,0.000000,0.000000,0.453677,0,0,0,0,0,0,0
8,89999,94,80000,17,20000,40,9999,0.100000,0,0,0.000000,6,0.000000,0.000000,0.332392,0,0,0,0,0,0,0
8,89999,95,80000,14,10000,40,9999,0.100000,0,0,0.000000,6,0.000000,0.000000,2.796887,0,0,0,0,0,0,0
8,89999,96,80000,55,40000,40,9999,0.100000,0,0,0.000000,6,0.000000,0.000000,0.284478,0,0,0,0,0,0,0
8,89999,97,80000,0,0,40,9999,0.100000,0,0,0.000000,6,0.000000,0.000000,3.104761,0,0,0,0,0,0,0
8,89999,98,80000,55,40000,40,9999,0.100000,0,0,0.000000,6,0.000000,0.000000,0.111485,0,0,0,0,0,0,0
8,89999,99,80000,17,20000,40,9999,0.100000,0,0,0.000000,6,0.000000,0.000000,0.070204,0,0,0,0,0,0,0
9,99999,0,90000,17,20000,40,9999,0.100000,0,0,0.000000,6,0.000000,0.000000,0.219289,0,0,0,0,0,0,0
9,99999,1,90000,70,10000,40,9999,0.100000,0,0,0.000000,6,0.000000,0.000000,0.071391,0,0,0,0,0,0,0
9,99999,2,90000,0,0,40,9999,0.100000,0,0,0.000000,6,0.000000,0.000000,2.252686,0,0,0,0,0,0,0
9,99999,3,90000,0,0,49,9999,0.100000,0,0,0.000000,6,5.000000,0.000000,15.730249,0,0,0,0,0,0,0
9,99999,4,90000,0,0,40,9999,0.100000,0,0,0.000000,6,0.000000,0.000000,0.146372,0,0,0,0,0,0,0
9,99999,5,90000,0,0,40,9999,0.100000,0,0,0.000000,6,0.000000,0.000000,0.099213,0,0,0,0,0,0,0
9,99999,6,90000,17,20000,40,9999,0.100000,0,0,0.000000,6,0.000000,0.000000,0.655626,0,0,0,0,0,0,0
9,99999,7,90000,2,10000,40,9999,0.100000,0,0,0.000000,6,0.000000,0.000000,0.279152,0,0,0,0,0,0,0
9,99999,8,90000,0,0,40,9999,0.100000,0,0,0.000000,6,0.000000,0.000000,0.628797,0,0,0,0,0,0,0
9,99999,9,90000,70,10000,40,9999,0.100000,0,0,0.000000,6,0.000000,0.000000,0.670806,0,0,0,0,0,0,0
9,99999,10,90000,70,10000,40,9999,0.100000,0,0,0.000000,6,0.000000,0.000000,0.093949,0,0,0,0,0,0,0
9,99999,11,90000,14,10000,49,9999,0.100000,0,0,0.000000,6,5.000000,0.000000,6.168110,0,0,0,0,0,0,0
9,99999,12,90000,14,10000,40,9999,0.100000,0,0,0.000000,6,0.000000,0.000000,0.080450,0,0,0,0,0,0,0
9,99999,13,90000,14,10000,40,9999,0.100000,0,0,0.000000,6,0.000000,0.000000,0.109517,0,0,0,0,0,0,0
9,99999,14,90000,14,10000,40,9999,0.100000,0,0,0.000000,6,0.000000,0.000000,0.194162,0,0,0,0,0,0,0
9,99999,15,90000,70,10000,40,9999,0.100000,0,0,0.000000,6,0.000000,0.000000,0.150004,0,0,0,0,0,0,0
9,99999,16,90000,55,40000,40,9999,0.100000,0,0,0.000000,6,0.000000,0.000000,0.130665,0,0,0,0,0,0,0
9,99999,17,80000,55,40000,40,19999,0.100000,0,0,0.000000,6,0.000000,0.000000,0.108235,0,0,0,0,0,0,0
9,99999,18,90000,17,20000,40,9999,0.100000,0,0,0.000000,6,0.000000,0.000000,0.071298,0,0,0,0,0,0,0
9,99999,19,90000,17,20000,40,9999,0.100000,0,0,0.000000,6,0.000000,0.000000,0.265233,0,0,0,0,0,0,0
9,99999,20,90000,70,10000,40,9999,0.100000,0,0,0.000000,6,0.000000,0.000000,0.114965,0,0,0,0,0,0,0
9,99999,21,90000,2,10000,40,9999,0.100000,0,0,0.000000,6,0.000000,0.000000,0.217002,0,0,0,0,0,0,0
9,99999,22,90000,0,0,40,9999,0.065000,0,0,0.000000,6,0.000000,0.000000,0.628880,0,0,0,0,0,0,0
9,99999,23,90000,17,20000,49,9999,0.100000,0,0,0.000000,6,2.000000,0.000000,4.747623,0,0,0,0,0,0,0
9,99999,24,90000,14,10000,40,9999,0.100000,0,0,0.000000,6,0.000000,0.000000,0.350207,0,0,0,0,0,0,0
9,99999,25,90000,55,40000,40,9999,0.100000,0,0,0.000000,6,0.000000,0.000000,0.242730,0,0,0,0,0,0,0
9,99999,26,90000,55,40000,49,9999,0.100000,0,0,0.000000,6,1.000000,0.000000,7.723947,0,0,0,0,0,0,0
9,99999,27,90000,0,0,40,9999,0.100000,0,0,0.000000,6,0.000000,0.000000,0.092591,0,0,0,0,0,0,0
9,99999,28,90000,55,40000,49,9999,0.100000,0,0,0.000000,6,4.000000,0.000000,10.706276,0,0,0,0,0,0,0
9,99999,29,90000,2,10000,49,9999,0.100000,0,0,0.000000,6,4.000000,0.000000,10.791509,0,0,0,0,0,0,0
9,99999,30,90000,70,10000,40,9999,0.100000,0,0,0.000000,6,0.000000,0.000000,0.084802,0,0,0,0,0,0,0
9,99999,31,90000,70,10000,40,9999,0.100000,0,0,0.000000,6,0.000000,0.000000,0.358337,0,0,0,0,0,0,0
9,99999,32,90000,0,0,40,9999,0.100000,0,0,0.000000,6,0.000000,0.000000,0.073005,0,0,0,0,0,0,0
9,99999,33,90000,70,10000,40,9999,0.100000,0,0,0.000000,6,0.000000,0.000000,0.628652,0,0,0,0,0,0,0
9,99999,34,90000,70,10000,40,9999,0.100000,0,0,0.000000,6,0.000000,0.000000,0.141781,0,0,0,0,0,0,0
9,99999,35,90000,70,10000,40,9999,0.100000,0,0,0.000000,6,0.000000,0.000000,5.898131,0,0,0,0,0,0,0
9,99999,36,90000,2,10000,49,9999,0.100000,0,0,0.000000,6,3.000000,0.000000,6.574128,0,0,0,0,0,0,0
9,99999,37,90000,2,10000,40,9999,0.100000,0,0,0.000000,6,0.000000,0.000000,0.093078,0,0,0,0,0,0,0
9,99999,38,90000,70,10000,40,9999,0.100000,0,0,0.000000,6,0.000000,0.000000,0.392506,0,0,0,0,0,0,0
9,99999,39,90000,2,10000,49,9999,0.100000,0,0,0.000000,6,1.000000,0.000000,2.992843,0,0,0,0,0,0,0
9,99999,40,90000,70,10000,40,9999,0.100000,0,0,0.000000,6,0.000000,0.000000,23.853890,0,0,0,0,0,0,0
9,99999,41,90000,14,10000,40,9999,0.100000,0,0,0.000000,6,0.000000,0.000000,0.342385,0,0,0,0,0,0,0
9,99999,42,90000,0,0,40,9999,0.100000,0,0,0.000000,6,0.000000,0.000000,0.103856,0,0,0,0,0,0,0
9,99999,43,90000,17,20000,40,9999,0.100000,0,0,0.000000,6,0.000000,0.000000,0.601848,0,0,0,0,0,0,0
9,99999,44,90000,14,10000,40,9999,0.100000,0,0,0.000000,6,0.000000,0.000000,0.937151,0,0,0,0,0,0,0
9,99999,45,90000,70,10000,49,9999,0.100000,0,0,0.000000,6,5.000000,0.000000,6.592413,0,0,0,0,0,0,0
9,99999,46,90000,17,20000,40,9999,0.100000,0,0,0.000000,6,0.000000,0.000000,0.202680,0,0,0,0,0,0,0
9,99999,47,90000,55,40000,40,9999,0.100000,0,0,0.000000,6,0.000000,0.000000,0.561832,0,0,0,0,0,0,0
9,99999,48,90000,0,0,9,9999,0.100000,0,0,34.210526,6,5.000000,0.000000,12.314321,0,0,0,0,1,0,0
9,99999,49,90000,0,0,49,9999,0.100000,0,0,0.000000,6,7.000000,0.000000,15.897551,0,0,0,0,0,0,0
9,99999,50,90000,2,10000,9,9999,0.100000,0,0,34.210526,6,5.000000,0.000000,13.047711,0,0,0,0,1,0,0
9,99999,51,90000,2,10000,40,9999,0.100000,0,0,0.000000,6,0.000000,0.000000,0.093395,0,0,0,0,0,0,0
9,99999,52,90000,0,0,40,9999,0.100000,0,0,0.000000,6,0.000000,0.000000,0.088094,0,0,0,0,0,0,0
9,99999,53,90000,55,40000,40,9999,0.100000,0,0,0.000000,6,0.000000,0.000000,0.078706,0,0,0,0,0,0,0
9,99999,54,90000,70,10000,40,9999,0.100000,0,0,0.000000,6,0.000000,0.000000,1.554440,0,0,0,0,0,0,0
9,99999,55,90000,2,10000,40,9999,0.100000,0,0,0.000000,6,0.000000,0.000000,3.847848,0,0,0,0,0,0,0
9,99999,56,90000,70,10000,49,9999,0.100000,0,0,0.000000,6,1.000000,0.000000,11.194945,0,0,0,0,0,0,0
9,99999,57,90000,0,0,49,9999,0.100000,0,0,0.000000,6,3.000000,0.000000,23.947989,0,0,0,0,0,0,0
9,99999,58,90000,70,10000,40,9999,0.100000,0,0,0.000000,6,0.000000,0.000000,0.298564,0,0,0,0,0,0,0
9,99999,59,90000,14,10000,40,9999,0.100000,0,0,0.000000,6,0.000000,0.000000,0.099009,0,0,0,0,0,0,0
9,99999,60,90000,0,0,40,9999,0.100000,0,0,0.000000,6,0.000000,0.000000,0.209609,0,0,0,0,0,0,0
9,99999,61,90000,70,10000,40,9999,0.100000,0,0,0.000000,6,0.000000,0.000000,2.395124,0,0,0,0,0,0,0
9,99999,62,90000,0,0,40,9999,0.100000,0,0,0.000000,6,0.000000,0.000000,0.224265,0,0,0,0,0,0,0
9,99999,63,90000,70,10000,40,9999,0.100000,0,0,0.000000,6,0.000000,0.000000,0.171074,0,0,0,0,0,0,0
9,99999,64,90000,17,20000,40,9999,0.100000,0,0,0.000000,6,0.000000,0.000000,0.088609,0,0,0,0,0,0,0
9,99999,65,90000,14,10000,9,9999,0.100000,0,0,34.210526,6,5.000000,0.000000,9.624746,0,0,0,0,1,0,0
9,99999,66,90000,2,10000,40,9999,0.100000,0,0,0.000000,6,0.000000,0.000000,0.383245,0,0,0,0,0,0,0
9,99999,67,90000,70,10000,40,9999,0.100000,0,0,0.000000,6,0.000000,0.000000,0.077564,0,0,0,0,0,0,0
9,99999,68,90000,14,10000,40,9999,0.100000,0,0,0.000000,6,0.000000,0.000000,0.141757,0,0,0,0,0,0,0
9,99999,69,90000,14,10000,40,9999,0.100000,0,0,0.000000,6,0.000000,0.000000,0.122704,0,0,0,0,0,0,0
9,99999,70,90000,14,10000,40,9999,0.100000,0,0,0.000000,6,0.000000,0.000000,0.083188,0,0,0,0,0,0,0
9,99999,71,90000,70,10000,40,9999,0.100000,0,0,0.000000,6,0.000000,0.000000,0.110618,0,0,0,0,0,0,0
9,99999,72,90000,2,10000,40,9999,0.100000,0,0,0.000000,6,0.000000,0.000000,1.047151,0,0,0,0,0,0,0
9,99999,73,90000,0,0,40,9999,0.100000,0,0,0.000000,6,0.000000,0.000000,0.720368,0,0,0,0,0,0,0
9,99999,74,90000,55,40000,40,9999,0.100000,0,0,0.000000,6,0.000000,0.000000,1.815635,0,0,0,0,0,0,0
9,99999,75,90000,2,10000,40,9999,0.100000,0,0,0.000000,6,0.000000,0.000000,1.591338,0,0,0,0,0,0,0
9,99999,76,90000,14,10000,40,9999,0.100000,0,0,0.000000,6,0.000000,0.000000,0.103615,0,0,0,0,0,0,0
9,99999,77,90000,2,10000,40,9999,0.100000,0,0,0.000000,6,0.000000,0.000000,3.586932,0,0,0,0,0,0,0
9,99999,78,90000,14,10000,40,9999,0.100000,0,0,0.000000,6,0.000000,0.000000,1.643452,0,0,0,0,0,0,0
9,99999,79,90000,14,10000,40,9999,0.100000,0,0,0.000000,6,0.000000,0.000000,0.231350,0,0,0,0,0,0,0
9,99999,80,90000,55,40000,40,9999,0.100000,0,0,0.000000,6,0.000000,0.000000,1.011575,0,0,0,0,0,0,0
9,99999,81,90000,2,10000,40,9999,0.100000,0,0,0.000000,6,0.000000,0.000000,0.143621,0,0,0,0,0,0,0
9,99999,82,90000,55,40000,40,9999,0.100000,0,0,0.000000,6,0.000000,0.000000,0.103413,0,0,0,0,0,0,0
9,99999,83,90000,0,0,49,9999,0.100000,0,0,0.000000,6,5.000000,0.000000,5.747916,0,0,0,0,0,0,0
9,99999,84,90000,70,10000,40,9999,0.100000,0,0,0.000000,6,0.000000,0.000000,0.699639,0,0,0,0,0,0,0
9,99999,85,90000,14,10000,40,9999,0.100000,0,0,0.000000,6,0.000000,0.000000,0.491839,0,0,0,0,0,0,0
9,99999,86,90000,17,20000,40,9999,0.100000,0,0,0.000000,6,0.000000,0.000000,1.937951,0,0,0,0,0,0,0
9,99999,87,90000,2,10000,40,9999,0.100000,0,0,0.000000,6,0.000000,0.000000,3.357426,0,0,0,0,0,0,0
9,99999,88,90000,17,20000,40,9999,0.100000,0,0,0.000000,6,0.000000,0.000000,0.124659,0,0,0,0,0,0,0
9,99999,89,90000,14,10000,40,9999,0.100000,0,0,0.000000,6,0.000000,0.000000,0.214759,0,0,0,0,0,0,0
9,99999,90,90000,2,10000,40,9999,0.100000,0,0,0.000000,6,0.000000,0.000000,0.280489,0,0,0,0,0,0,0
9,99999,91,90000,55,40000,49,9999,0.100000,0,0,0.000000,6,2.000000,0.000000,2.664592,0,0,0,0,0,0,0
9,99999,92,90000,0,0,40,9999,0.100000,0,0,0.000000,6,0.000000,0.000000,0.419597,0,0,0,0,0,0,0
9,99999,93,90000,55,40000,49,9999,0.100000,0,0,0.000000,6,4.000000,0.000000,10.654279,0,0,0,0,0,0,0
9,99999,94,90000,0,0,40,9999,0.100000,0,0,0.000000,6,0.000000,0.000000,0.813868,0,0,0,0,0,0,0
9,99999,95,90000,70,10000,49,9999,0.100000,0,0,0.000000,6,9.000000,0.000000,22.428288,0,0,0,0,0,0,0
9,99999,96,90000,0,0,40,9999,0.100000,0,0,0.000000,6,0.000000,0.000000,0.167117,0,0,0,0,0,0,0
9,99999,97,90000,17,20000,49,9999,0.100000,0,0,0.000000,6,5.000000,0.000000,11.851716,0,0,0,0,0,0,0
9,99999,98,90000,0,0,40,9999,0.100000,0,0,0.000000,6,0.000000,0.000000,0.110293,0,0,0,0,0,0,0
9,99999,99,90000,55,40000,40,9999,0.100000,0,0,0.000000,6,0.000000,0.000000,0.070093,0,0,0,0,0,0,0
10,109999,0,100000,70,10000,40,9999,0.100000,0,0,0.000000,6,0.000000,0.000000,0.198063,0,0,0,0,0,0,0
10,109999,1,100000,17,20000,40,9999,0.100000,0,0,0.000000,6,0.000000,0.000000,0.064209,0,0,0,0,0,0,0
10,109999,2,100000,55,40000,40,9999,0.100000,0,0,0.000000,6,0.000000,0.000000,2.519523,0,0,0,0,0,0,0
10,109999,3,100000,70,10000,40,9999,0.100000,0,0,0.000000,6,0.000000,0.000000,8.664645,0,0,0,0,0,0,0
10,109999,4,100000,55,40000,40,9999,0.100000,0,0,0.000000,6,0.000000,0.000000,0.133467,0,0,0,0,0,0,0
10,109999,5,100000,17,20000,40,9999,0.100000,0,0,0.000000,6,0.000000,0.000000,0.099330,0,0,0,0,0,0,0
10,109999,6,100000,55,40000,40,9999,0.100000,0,0,0.000000,6,0.000000,0.000000,0.816446,0,0,0,0,0,0,0
10,109999,7,100000,17,20000,40,9999,0.100000,0,0,0.000000,6,0.000000,0.000000,0.262978,0,0,0,0,0,0,0
10,109999,8,100000,2,10000,40,9999,0.100000,0,0,0.000000,6,0.000000,0.000000,0.587038,0,0,0,0,0,0,0
10,109999,9,100000,70,10000,40,9999,0.100000,0,0,0.000000,6,0.000000,0.000000,0.164836,0,0,0,0,0,0,0
10,109999,10,100000,2,10000,40,9999,0.100000,0,0,0.000000,6,0.000000,0.000000,0.096487,0,0,0,0,0,0,0
10,109999,11,100000,70,10000,40,9999,0.100000,0,0,0.000000,6,0.000000,0.000000,0.494012,0,0,0,0,0,0,0
10,109999,12,100000,55,40000,40,9999,0.100000,0,0,0.000000,6,0.000000,0.000000,0.085175,0,0,0,0,0,0,0
10,109999,13,100000,17,20000,40,9999,0.065000,0,0,0.000000,6,0.000000,0.000000,0.331622,0,0,0,0,0,0,0
10,109999,14,100000,70,10000,40,9999,0.100000,0,0,0.000000,6,0.000000,0.000000,0.186127,0,0,0,0,0,0,0
10,109999,15,100000,0,0,40,9999,0.100000,0,0,0.000000,6,0.000000,0.000000,0.136201,0,0,0,0,0,0,0
10,109999,16,100000,17,20000,40,9999,0.100000,0,0,0.000000,6,0.000000,0.000000,0.121388,0,0,0,0,0,0,0
10,109999,17,80000,55,40000,40,29999,0.100000,0,0,0.000000,6,0.000000,0.000000,0.117604,0,0,0,0,0,0,0
10,109999,18,100000,2,10000,40,9999,0.100000,0,0,0.000000,6,0.000000,0.000000,0.114250,0,0,0,0,0,0,0
10,109999,19,100000,17,20000,40,9999,0.100000,0,0,0.000000,6,0.000000,0.000000,1.484609,0,0,0,0,0,0,0
10,109999,20,100000,14,10000,40,9999,0.100000,0,0,0.000000,6,0.000000,0.000000,0.113279,0,0,0,0,0,0,0
10,109999,21,100000,14,10000,40,9999,0.100000,0,0,0.000000,6,0.000000,0.000000,0.531938,0,0,0,0,0,0,0
10,109999,22,100000,0,0,40,9999,0.100000,0,0,0.000000,6,0.000000,0.000000,0.611940,0,0,0,0,0,0,0
10,109999,23,100000,14,10000,40,9999,0.100000,0,0,0.000000,6,0.000000,0.000000,0.609136,0,0,0,0,0,0,0
10,109999,24,100000,2,10000,40,9999,0.100000,0,0,0.000000,6,0.000000,0.000000,0.368039,0,0,0,0,0,0,0
10,109999,25,100000,17,20000,40,9999,0.100000,0,0,0.000000,6,0.000000,0.000000,0.200281,0,0,0,0,0,0,0
10,109999,26,100000,17,20000,49,9999,0.100000,0,0,0.000000,6,4.000000,0.000000,12.291887,0,0,0,0,0,0,0
10,109999,27,100000,17,20000,40,9999,0.100000,0,0,0.000000,6,0.000000,0.000000,0.091597,0,0,0,0,0,0,0
10,109999,28,100000,55,40000,40,9999,0.100000,0,0,0.000000,6,0.000000,0.000000,0.698084,0,0,0,0,0,0,0
10,109999,29,100000,2,10000,40,9999,0.100000,0,0,0.000000,6,0.000000,0.000000,0.654125,0,0,0,0,0,0,0
10,109999,30,100000,17,20000,40,9999,0.100000,0,0,0.000000,6,0.000000,0.000000,0.559643,0,0,0,0,0,0,0
10,109999,31,100000,17,20000,40,9999,0.100000,0,0,0.000000,6,0.000000,0.000000,0.365128,0,0,0,0,0,0,0
10,109999,32,100000,0,0,40,9999,0.135000,0,0,0.000000,6,0.000000,0.000000,0.073023,0,0,0,0,0,0,0
10,109999,33,100000,2,10000,49,9999,0.100000,0,0,0.000000,6,1.000000,0.000000,2.286585,0,0,0,0,0,0,0
10,109999,34,100000,0,0,40,9999,0.100000,0,0,0.000000,6,0.000000,0.000000,0.090929,0,0,0,0,0,0,0
10,109999,35,100000,17,20000,49,9999,0.100000,0,0,0.000000,6,7.000000,0.000000,25.183650,0,0,0,0,0,0,0
10,109999,36,100000,55,40000,40,9999,0.100000,0,0,0.000000,6,0.000000,0.000000,0.382650,0,0,0,0,0,0,0
10,109999,37,100000,55,40000,40,9999,0.100000,0,0,0.000000,6,0.000000,0.000000,0.092249,0,0,0,0,0,0,0
10,109999,38,100000,2,10000,49,9999,0.100000,0,0,0.000000,6,1.000000,0.000000,2.207444,0,0,0,0,0,0,0
10,109999,39,100000,14,10000,40,9999,0.100000,0,0,0.000000,6,0.000000,0.000000,3.367475,0,0,0,0,0,0,0
10,109999,40,100000,55,40000,40,9999,0.100000,0,0,0.000000,6,0.000000,0.000000,23.276234,0,0,0,0,0,0,0
10,109999,41,100000,17,20000,40,9999,0.100000,0,0,0.000000,6,0.000000,0.000000,0.324816,0,0,0,0,0,0,0
10,109999,42,100000,14,10000,40,9999,0.100000,0,0,0.000000,6,0.000000,0.000000,0.113874,0,0,0,0,0,0,0
10,109999,43,100000,55,40000,40,9999,0.100000,0,0,0.000000,6,0.000000,0.000000,0.416463,0,0,0,0,0,0,0
10,109999,44,100000,17,20000,49,9999,0.100000,0,0,0.000000,6,2.000000,0.000000,5.723741,0,0,0,0,0,0,0
10,109999,45,100000,2,10000,40,9999,0.100000,0,0,0.000000,6,0.000000,0.000000,0.506994,0,0,0,0,0,0,0
10,109999,46,100000,14,10000,40,9999,0.135000,0,0,0.000000,6,0.000000,0.000000,0.191290,0,0,0,0,0,0,0
10,109999,47,100000,0,0,40,9999,0.100000,0,0,0.000000,6,0.000000,0.000000,0.361569,0,0,0,0,0,0,0
10,109999,48,100000,2,10000,49,9999,0.100000,0,0,0.000000,6,1.000000,0.000000,4.909748,0,0,0,0,0,0,0
10,109999,49,100000,17,20000,40,9999,0.100000,0,0,0.000000,6,0.000000,0.000000,0.078251,0,0,0,0,0,0,0
10,109999,50,100000,55,40000,49,9999,0.100000,0,0,0.000000,6,3.000000,0.000000,7.625241,0,0,0,0,0,0,0
10,109999,51,100000,0,0,40,9999,0.100000,0,0,0.000000,6,0.000000,0.000000,0.093512,0,0,0,0,0,0,0
10,109999,52,100000,2,10000,40,9999,0.100000,0,0,0.000000,6,0.000000,0.000000,0.086338,0,0,0,0,0,0,0
10,109999,53,100000,55,40000,40,9999,0.100000,0,0,0.000000,6,0.000000,0.000000,0.078558,0,0,0,0,0,0,0
10,109999,54,100000,0,0,40,9999,0.100000,0,0,0.000000,6,0.000000,0.000000,1.028989,0,0,0,0,0,0,0
10,109999,55,100000,17,20000,40,9999,0.100000,0,0,0.000000,6,0.000000,0.000000,0.247848,0,0,0,0,0,0,0
10,109999,56,100000,70,10000,49,9999,0.100000,0,0,0.000000,6,7.000000,0.000000,8.279238,0,0,0,0,0,0,0
10,109999,57,100000,14,10000,49,9999,0.100000,0,0,0.000000,6,1.000000,0.000000,4.530441,0,0,0,0,0,0,0
10,109999,58,100000,70,10000,40,9999,0.100000,0,0,0.000000,6,0.000000,0.000000,0.793026,0,0,0,0,0,0,0
10,109999,59,100000,70,10000,40,9999,0.100000,0,0,0.000000,6,0.000000,0.000000,0.071671,0,0,0,0,0,0,0
10,109999,60,100000,0,0,40,9999,0.100000,0,0,0.000000,6,0.000000,0.000000,1.471436,0,0,0,0,0,0,0
10,109999,61,100000,55,40000,40,9999,0.100000,0,0,0.000000,6,0.000000,0.000000,1.193289,0,0,0,0,0,0,0
10,109999,62,100000,70,10000,40,9999,0.100000,0,0,0.000000,6,0.000000,0.000000,0.157127,0,0,0,0,0,0,0
10,109999,63,100000,0,0,40,9999,0.100000,0,0,0.000000,6,0.000000,0.000000,0.089060,0,0,0,0,0,0,0
10,109999,64,100000,70,10000,40,9999,0.100000,0,0,0.000000,6,0.000000,0.000000,0.749249,0,0,0,0,0,0,0
10,109999,65,100000,17,20000,49,9999,0.100000,0,0,0.000000,6,7.000000,0.000000,19.770525,0,0,0,0,0,0,0
10,109999,66,100000,0,0,40,9999,0.100000,0,0,0.000000,6,0.000000,0.000000,0.342704,0,0,0,0,0,0,0
10,109999,67,100000,55,40000,40,9999,0.100000,0,0,0.000000,6,0.000000,0.000000,0.077662,0,0,0,0,0,0,0
10,109999,68,100000,70,10000,49,9999,0.100000,0,0,0.000000,6,1.000000,0.000000,1.797851,0,0,0,0,0,0,0
10,109999,69,100000,14,10000,40,9999,0.100000,0,0,0.000000,6,0.000000,0.000000,0.439712,0,0,0,0,0,0,0
10,109999,70,100000,14,10000,40,9999,0.100000,0,0,0.000000,6,0.000000,0.000000,0.091005,0,0,0,0,0,0,0
10,109999,71,100000,2,10000,40,9999,0.100000,0,0,0.000000,6,0.000000,0.000000,0.113720,0,0,0,0,0,0,0
10,109999,72,100000,17,20000,40,9999,0.100000,0,0,0.000000,6,0.000000,0.000000,1.092563,0,0,0,0,0,0,0
10,109999,73,100000,49,90000,40,9999,0.100000,0,0,0.000000,6,0.000000,0.000000,0.410830,0,0,0,0,0,0,0
10,109999,74,100000,70,10000,40,9999,0.100000,0,0,0.000000,6,0.000000,0.000000,1.261784,0,0,0,0,0,0,0
10,109999,75,100000,2,10000,40,9999,0.100000,0,0,0.000000,6,0.000000,0.000000,1.328167,0,0,0,0,0,0,0
10,109999,76,100000,70,10000,40,9999,0.100000,0,0,0.000000,6,0.000000,0.000000,0.325664,0,0,0,0,0,0,0
10,109999,77,100000,55,40000,40,9999,0.100000,0,0,0.000000,6,0.000000,0.000000,2.556764,0,0,0,0,0,0,0
10,109999,78,100000,55,40000,40,9999,0.100000,0,0,0.000000,6,0.000000,0.000000,1.676522,0,0,0,0,0,0,0
10,109999,79,100000,14,10000,40,9999,0.100000,0,0,0.000000,6,0.000000,0.000000,0.245465,0,0,0,0,0,0,0
10,109999,80,100000,55,40000,40,9999,0.100000,0,0,0.000000,6,0.000000,0.000000,0.119740,0,0,0,0,0,0,0
10,109999,81,100000,55,40000,40,9999,0.100000,0,0,0.000000,6,0.000000,0.000000,0.143629,0,0,0,0,0,0,0
10,109999,82,100000,17,20000,40,9999,0.100000,0,0,0.000000,6,0.000000,0.000000,0.089347,0,0,0,0,0,0,0
10,109999,83,100000,14,10000,40,9999,0.100000,0,0,0.000000,6,0.000000,0.000000,0.788860,0,0,0,0,0,0,0
10,109999,84,100000,70,10000,40,9999,0.100000,0,0,0.000000,6,0.000000,0.000000,1.051608,0,0,0,0,0,0,0
10,109999,85,100000,2,10000,40,9999,0.100000,0,0,0.000000,6,0.000000,0.000000,0.257249,0,0,0,0,0,0,0
10,109999,86,100000,14,10000,40,9999,0.100000,0,0,0.000000,6,0.000000,0.000000,2.276933,0,0,0,0,0,0,0
10,109999,87,100000,14,10000,40,9999,0.100000,0,0,0.000000,6,0.000000,0.000000,0.728459,0,0,0,0,0,0,0
10,109999,88,100000,0,0,49,9999,0.100000,0,0,0.000000,6,3.000000,0.000000,7.840282,0,0,0,0,0,0,0
10,109999,89,100000,2,10000,40,9999,0.100000,0,0,0.000000,6,0.000000,0.000000,0.231302,0,0,0,0,0,0,0
10,109999,90,100000,2,10000,40,9999,0.100000,0,0,0.000000,6,0.000000,0.000000,0.189592,0,0,0,0,0,0,0
10,109999,91,100000,0,0,40,9999,0.100000,0,0,0.000000,6,0.000000,0.000000,1.758776,0,0,0,0,0,0,0
10,109999,92,100000,70,10000,40,9999,0.100000,0,0,0.000000,6,0.000000,0.000000,0.384434,0,0,0,0,0,0,0
10,109999,93,100000,70,10000,40,9999,0.100000,0,0,0.000000,6,0.000000,0.000000,0.464021,0,0,0,0,0,0,0
10,109999,94,100000,70,10000,40,9999,0.100000,0,0,0.000000,6,0.000000,0.000000,0.710283,0,0,0,0,0,0,0
10,109999,95,100000,70,10000,49,9999,0.100000,0,0,0.000000,6,7.000000,0.000000,7.963095,0,0,0,0,0,0,0
10,109999,96,100000,0,0,40,9999,0.100000,0,0,0.000000,6,0.000000,0.000000,0.151603,0,0,0,0,0,0,0
10,109999,97,100000,55,40000,49,9999,0.100000,0,0,0.000000,6,5.000000,0.000000,11.834434,0,0,0,0,0,0,0
10,109999,98,100000,14,10000,40,9999,0.100000,0,0,0.000000,6,0.000000,0.000000,0.112170,0,0,0,0,0,0,0
10,109999,99,100000,2,10000,40,9999,0.100000,0,0,0.000000,6,0.000000,0.000000,0.068799,0,0,0,0,0,0,0
11,119999,0,110000,17,20000,40,9999,0.100000,0,0,0.000000,6,0.000000,0.000000,0.339921,0,0,0,0,0,0,0
11,119999,1,110000,17,20000,40,9999,0.100000,0,0,0.000000,6,0.000000,0.000000,0.077142,0,0,0,0,0,0,0
11,119999,2,110000,70,10000,40,9999,0.100000,0,0,0.000000,6,0.000000,0.000000,3.113502,0,0,0,0,0,0,0
11,119999,3,110000,2,10000,49,9999,0.100000,0,0,0.000000,6,1.000000,0.000000,12.814153,0,0,0,0,0,0,0
11,119999,4,110000,55,40000,40,9999,0.100000,0,0,0.000000,6,0.000000,0.000000,0.088933,0,0,0,0,0,0,0
11,119999,5,110000,2,10000,40,9999,0.100000,0,0,0.000000,6,0.000000,0.000000,0.099379,0,0,0,0,0,0,0
11,119999,6,110000,70,10000,40,9999,0.135000,0,0,0.000000,6,0.000000,0.000000,0.911179,0,0,0,0,0,0,0
11,119999,7,110000,70,10000,40,9999,0.100000,0,0,0.000000,6,0.000000,0.000000,0.275605,0,0,0,0,0,0,0
11,119999,8,110000,70,10000,40,9999,0.100000,0,0,0.000000,6,0.000000,0.000000,0.554189,0,0,0,0,0,0,0
11,119999,9,110000,0,0,9,9999,0.100000,0,0,34.210526,6,2.000000,0.000000,10.206223,0,0,0,1,0,0,0
11,119999,10,110000,2,10000,40,9999,0.100000,0,0,0.000000,6,0.000000,0.000000,0.095606,0,0,0,0,0,0,0
11,119999,11,110000,2,10000,40,9999,0.100000,0,0,0.000000,6,0.000000,0.000000,0.858111,0,0,0,0,0,0,0
11,119999,12,110000,70,10000,40,9999,0.100000,0,0,0.000000,6,0.000000,0.000000,0.080957,0,0,0,0,0,0,0
11,119999,13,110000,55,40000,40,9999,0.100000,0,0,0.000000,6,0.000000,0.000000,0.195780,0,0,0,0,0,0,0
11,119999,14,110000,55,40000,40,9999,0.100000,0,0,0.000000,6,0.000000,0.000000,0.174491,0,0,0,0,0,0,0
11,119999,15,100000,0,0,40,19999,0.100000,0,0,0.000000,6,0.000000,0.000000,0.436047,0,0,0,0,0,0,0
11,119999,16,110000,0,0,40,9999,0.100000,0,0,0.000000,6,0.000000,0.000000,0.114316,0,0,0,0,0,0,0
11,119999,17,110000,55,40000,40,9999,0.100000,0,0,0.000000,6,0.000000,0.000000,0.093817,0,0,0,0,0,0,0
11,119999,18,110000,0,0,40,9999,0.100000,0,0,0.000000,6,0.000000,0.000000,0.103901,0,0,0,0,0,0,0
11,119999,19,110000,55,40000,40,9999,0.100000,0,0,0.000000,6,0.000000,0.000000,1.463024,0,0,0,0,0,0,0
11,119999,20,110000,17,20000,40,9999,0.100000,0,0,0.000000,6,0.000000,0.000000,0.236372,0,0,0,0,0,0,0
11,119999,21,110000,17,20000,40,9999,0.100000,0,0,0.000000,6,0.000000,0.000000,0.343933,0,0,0,0,0,0,0
11,119999,22,110000,55,40000,40,9999,0.100000,0,0,0.000000,6,0.000000,0.000000,0.282002,0,0,0,0,0,0,0
11,119999,23,110000,0,0,40,9999,0.100000,0,0,0.000000,6,0.000000,0.000000,0.171319,0,0,0,0,0,0,0
11,119999,24,110000,17,20000,40,9999,0.100000,0,0,0.000000,6,0.000000,0.000000,0.441164,0,0,0,0,0,0,0
11,119999,25,110000,17,20000,40,9999,0.100000,0,0,0.000000,6,0.000000,0.000000,0.227492,0,0,0,0,0,0,0
11,119999,26,110000,70,10000,49,9999,0.100000,0,0,0.000000,6,3.000000,0.000000,10.352461,0,0,0,0,0,0,0
11,119999,27,110000,0,0,40,9999,0.100000,0,0,0.000000,6,0.000000,0.000000,0.089581,0,0,0,0,0,0,0
11,119999,28,110000,55,40000,40,9999,0.100000,0,0,0.000000,6,0.000000,0.000000,0.804825,0,0,0,0,0,0,0
11,119999,29,110000,2,10000,40,9999,0.100000,0,0,0.000000,6,0.000000,0.000000,0.727679,0,0,0,0,0,0,0
11,119999,30,110000,2,10000,40,9999,0.100000,0,0,0.000000,6,0.000000,0.000000,0.469955,0,0,0,0,0,0,0
11,119999,31,110000,0,0,40,9999,0.100000,0,0,0.000000,6,0.000000,0.000000,0.191421,0,0,0,0,0,0,0
11,119999,32,110000,49,90000,40,9999,0.100000,0,0,0.000000,6,0.000000,0.000000,0.073140,0,0,0,0,0,0,0
11,119999,33,110000,70,10000,40,9999,0.100000,0,0,0.000000,6,0.000000,0.000000,0.982372,0,0,0,0,0,0,0
11,119999,34,110000,17,20000,40,9999,0.100000,0,0,0.000000,6,0.000000,0.000000,0.092406,0,0,0,0,0,0,0
11,119999,35,110000,17,20000,9,9999,0.100000,0,0,34.210526,6,1.000000,0.000000,10.128126,0,0,0,1,0,0,0
11,119999,36,110000,49,90000,40,9999,0.100000,0,0,0.000000,6,0.000000,0.000000,0.308247,0,0,0,0,0,0,0
11,119999,37,110000,70,10000,40,9999,0.100000,0,0,0.000000,6,0.000000,0.000000,0.091988,0,0,0,0,0,0,0
11,119999,38,110000,2,10000,40,9999,0.100000,0,0,0.000000,6,0.000000,0.000000,1.079227,0,0,0,0,0,0,0
11,119999,39,110000,0,0,49,9999,0.100000,0,0,0.000000,6,1.000000,0.000000,6.035266,0,0,0,0,0,0,0
11,119999,40,110000,55,40000,40,9999,0.100000,0,0,0.000000,6,0.000000,0.000000,23.958020,0,0,0,0,0,0,0
11,119999,41,110000,55,40000,40,9999,0.100000,0,0,0.000000,6,0.000000,0.000000,0.238791,0,0,0,0,0,0,0
11,119999,42,110000,55,40000,40,9999,0.100000,0,0,0.000000,6,0.000000,0.000000,0.089180,0,0,0,0,0,0,0
11,119999,43,110000,17,20000,40,9999,0.100000,0,0,0.000000,6,0.000000,0.000000,0.609259,0,0,0,0,0,0,0
11,119999,44,110000,49,90000,49,9999,0.100000,0,0,0.000000,6,1.000000,0.000000,1.686775,0,0,0,0,0,0,0
11,119999,45,110000,17,20000,40,9999,0.100000,0,0,0.000000,6,0.000000,0.000000,0.743342,0,0,0,0,0,0,0
11,119999,46,110000,0,0,40,9999,0.100000,0,0,0.000000,6,0.000000,0.000000,0.145397,0,0,0,0,0,0,0
11,119999,47,110000,0,0,40,9999,0.100000,0,0,0.000000,6,0.000000,0.000000,0.612564,0,0,0,0,0,0,0
11,119999,48,110000,2,10000,40,9999,0.100000,0,0,0.000000,6,0.000000,0.000000,0.299344,0,0,0,0,0,0,0
11,119999,49,110000,0,0,40,9999,0.100000,0,0,0.000000,6,0.000000,0.000000,0.085360,0,0,0,0,0,0,0
11,119999,50,110000,2,10000,49,9999,0.100000,0,0,0.000000,6,1.000000,0.000000,5.866815,0,0,0,0,0,0,0
11,119999,51,110000,0,0,40,9999,0.100000,0,0,0.000000,6,0.000000,0.000000,0.091446,0,0,0,0,0,0,0
11,119999,52,110000,0,0,49,9999,0.100000,0,0,0.000000,6,7.000000,0.000000,16.071553,0,0,0,0,0,0,0
11,119999,53,110000,0,0,40,9999,0.100000,0,0,0.000000,6,0.000000,0.000000,0.081217,0,0,0,0,0,0,0
11,119999,54,110000,0,0,40,9999,0.100000,0,0,0.000000,6,0.000000,0.000000,0.713857,0,0,0,0,0,0,0
11,119999,55,110000,70,10000,40,9999,0.100000,0,0,0.000000,6,0.000000,0.000000,0.226885,0,0,0,0,0,0,0
11,119999,56,110000,70,10000,9,9999,0.100000,0,0,0.000000,6,1.000000,0.000000,8.712057,0,0,0,1,0,0,0
11,119999,57,110000,17,20000,49,9999,0.100000,0,0,0.000000,6,2.000000,0.000000,5.339160,0,0,0,0,0,0,0
11,119999,58,110000,55,40000,40,9999,0.100000,0,0,0.000000,6,0.000000,0.000000,1.195929,0,0,0,0,0,0,0
11,119999,59,110000,2,10000,40,9999,0.100000,0,0,0.000000,6,0.000000,0.000000,0.070872,0,0,0,0,0,0,0
11,119999,60,110000,0,0,49,9999,0.100000,0,0,0.000000,6,1.000000,0.000000,3.730203,0,0,0,0,0,0,0
11,119999,61,110000,55,40000,40,9999,0.100000,0,0,0.000000,6,0.000000,0.000000,2.178741,0,0,0,0,0,0,0
11,119999,62,110000,17,20000,40,9999,0.100000,0,0,0.000000,6,0.000000,0.000000,0.109156,0,0,0,0,0,0,0
11,119999,63,110000,0,0,40,9999,0.100000,0,0,0.000000,6,0.000000,0.000000,0.128704,0,0,0,0,0,0,0
11,119999,64,110000,17,20000,40,9999,0.100000,0,0,0.000000,6,0.000000,0.000000,0.263304,0,0,0,0,0,0,0
11,119999,65,110000,70,10000,49,9999,0.065000,0,0,0.000000,6,1.000000,0.000000,6.044055,0,0,0,0,0,0,0
11,119999,66,110000,55,40000,40,9999,0.100000,0,0,0.000000,6,0.000000,0.000000,0.372941,0,0,0,0,0,0,0
11,119999,67,110000,49,90000,40,9999,0.100000,0,0,0.000000,6,0.000000,0.000000,0.077462,0,0,0,0,0,0,0
11,119999,68,110000,17,20000,49,9999,0.100000,0,0,0.000000,6,1.000000,0.000000,6.390208,0,0,0,0,0,0,0
11,119999,69,110000,55,40000,40,9999,0.100000,0,0,0.000000,6,0.000000,0.000000,0.662279,0,0,0,0,0,0,0
11,119999,70,110000,17,20000,40,9999,0.100000,0,0,0.000000,6,0.000000,0.000000,0.092704,0,0,0,0,0,0,0
11,119999,71,110000,70,10000,40,9999,0.100000,0,0,0.000000,6,0.000000,0.000000,0.112091,0,0,0,0,0,0,0
11,119999,72,110000,55,40000,40,9999,0.100000,0,0,0.000000,6,0.000000,0.000000,1.865150,0,0,0,0,0,0,0
11,119999,73,110000,49,90000,40,9999,0.100000,0,0,0.000000,6,0.000000,0.000000,0.655498,0,0,0,0,0,0,0
11,119999,74,110000,2,10000,40,9999,0.100000,0,0,0.000000,6,0.000000,0.000000,1.287538,0,0,0,0,0,0,0
11,119999,75,110000,55,40000,40,9999,0.100000,0,0,0.000000,6,0.000000,0.000000,0.207206,0,0,0,0,0,0,0
11,119999,76,110000,17,20000,40,9999,0.100000,0,0,0.000000,6,0.000000,0.000000,0.278183,0,0,0,0,0,0,0
11,119999,77,110000,55,40000,40,9999,0.100000,0,0,0.000000,6,0.000000,0.000000,1.635389,0,0,0,0,0,0,0
11,119999,78,110000,2,10000,40,9999,0.100000,0,0,0.000000,6,0.000000,0.000000,0.818527,0,0,0,0,0,0,0
11,119999,79,110000,70,10000,40,9999,0.100000,0,0,0.000000,6,0.000000,0.000000,0.229866,0,0,0,0,0,0,0
11,119999,80,110000,49,90000,40,9999,0.100000,0,0,0.000000,6,0.000000,0.000000,0.120079,0,0,0,0,0,0,0
11,119999,81,110000,49,90000,40,9999,0.100000,0,0,0.000000,6,0.000000,0.000000,0.143843,0,0,0,0,0,0,0
11,119999,82,110000,0,0,40,9999,0.100000,0,0,0.000000,6,0.000000,0.000000,0.089573,0,0,0,0,0,0,0
11,119999,83,110000,0,0,40,9999,0.100000,0,0,0.000000,6,0.000000,0.000000,0.811103,0,0,0,0,0,0,0
11,119999,84,110000,49,90000,40,9999,0.100000,0,0,0.000000,6,0.000000,0.000000,0.142080,0,0,0,0,0,0,0
11,119999,85,110000,55,40000,40,9999,0.100000,0,0,0.000000,6,0.000000,0.000000,0.262241,0,0,0,0,0,0,0
11,119999,86,110000,17,20000,40,9999,0.100000,0,0,0.000000,6,0.000000,0.000000,0.619691,0,0,0,0,0,0,0
11,119999,87,110000,70,10000,40,9999,0.100000,0,0,0.000000,6,0.000000,0.000000,0.286156,0,0,0,0,0,0,0
11,119999,88,110000,17,20000,40,9999,0.100000,0,0,0.000000,6,0.000000,0.000000,0.089657,0,0,0,0,0,0,0
11,119999,89,110000,70,10000,40,9999,0.100000,0,0,0.000000,6,0.000000,0.000000,0.143912,0,0,0,0,0,0,0
11,119999,90,110000,17,20000,49,9999,0.100000,0,0,0.000000,6,1.000000,0.000000,9.402853,0,0,0,0,0,0,0
11,119999,91,110000,55,40000,40,9999,0.100000,0,0,0.000000,6,0.000000,0.000000,0.122173,0,0,0,0,0,0,0
11,119999,92,110000,0,0,40,9999,0.100000,0,0,0.000000,6,0.000000,0.000000,0.381102,0,0,0,0,0,0,0
11,119999,93,110000,0,0,40,9999,0.100000,0,0,0.000000,6,0.000000,0.000000,0.704364,0,0,0,0,0,0,0
11,119999,94,110000,49,90000,40,9999,0.100000,0,0,0.000000,6,0.000000,0.000000,0.526492,0,0,0,0,0,0,0
11,119999,95,110000,49,90000,9,9999,0.100000,0,0,0.000000,6,1.000000,0.000000,5.329031,0,0,0,1,0,0,0
11,119999,96,110000,0,0,40,9999,0.100000,0,0,0.000000,6,0.000000,0.000000,0.117365,0,0,0,0,0,0,0
11,119999,97,110000,0,0,40,9999,0.100000,0,0,0.000000,6,0.000000,0.000000,1.768162,0,0,0,0,0,0,0
11,119999,98,110000,70,10000,40,9999,0.100000,0,0,0.000000,6,0.000000,0.000000,0.123724,0,0,0,0,0,0,0
11,119999,99,110000,0,0,40,9999,0.100000,0,0,0.000000,6,0.000000,0.000000,0.069535,0,0,0,0,0,0,0
12,129999,0,120000,2,10000,40,9999,0.100000,0,0,0.000000,6,0.000000,0.000000,0.469931,0,0,0,0,0,0,0
12,129999,1,120000,70,10000,40,9999,0.100000,0,0,0.000000,6,0.000000,0.000000,0.096387,0,0,0,0,0,0,0
12,129999,2,120000,49,90000,40,9999,0.100000,0,0,0.000000,6,0.000000,0.000000,3.752851,0,0,0,0,0,0,0
12,129999,3,120000,55,40000,40,9999,0.100000,0,0,0.000000,6,0.000000,0.000000,23.902333,0,0,0,0,0,0,0
12,129999,4,120000,70,10000,40,9999,0.100000,0,0,0.000000,6,0.000000,0.000000,0.084860,0,0,0,0,0,0,0
12,129999,5,120000,49,90000,40,9999,0.100000,0,0,0.000000,6,0.000000,0.000000,0.098506,0,0,0,0,0,0,0
12,129999,6,120000,17,20000,40,9999,0.100000,0,0,0.000000,6,0.000000,0.000000,0.597287,0,0,0,0,0,0,0
12,129999,7,120000,55,40000,40,9999,0.100000,0,0,0.000000,6,0.000000,0.000000,0.254988,0,0,0,0,0,0,0
12,129999,8,120000,55,40000,40,9999,0.100000,0,0,0.000000,6,0.000000,0.000000,0.496862,0,0,0,0,0,0,0
12,129999,9,120000,2,10000,49,9999,0.100000,0,0,0.000000,6,1.000000,0.000000,5.737907,0,0,0,0,0,0,0
12,129999,10,120000,2,10000,40,9999,0.100000,0,0,0.000000,6,0.000000,0.000000,0.095628,0,0,0,0,0,0,0
12,129999,11,120000,0,0,40,9999,0.100000,0,0,0.000000,6,0.000000,0.000000,0.467561,0,0,0,0,0,0,0
12,129999,12,120000,49,110000,40,9999,0.100000,0,0,0.000000,6,0.000000,0.000000,0.289885,0,0,0,0,0,0,0
12,129999,13,120000,0,0,40,9999,0.100000,0,0,0.000000,6,0.000000,0.000000,0.086448,0,0,0,0,0,0,0
12,129999,14,120000,17,20000,40,9999,0.100000,0,0,0.000000,6,0.000000,0.000000,0.175117,0,0,0,0,0,0,0
12,129999,15,120000,49,110000,40,9999,0.100000,0,0,0.000000,6,0.000000,0.000000,0.587596,0,0,0,0,0,0,0
12,129999,16,120000,0,0,40,9999,0.100000,0,0,0.000000,6,0.000000,0.000000,0.105074,0,0,0,0,0,0,0
12,129999,17,120000,0,0,40,9999,0.100000,0,0,0.000000,6,0.000000,0.000000,0.090331,0,0,0,0,0,0,0
12,129999,18,120000,55,40000,40,9999,0.100000,0,0,0.000000,6,0.000000,0.000000,0.078159,0,0,0,0,0,0,0
12,129999,19,120000,17,20000,40,9999,0.100000,0,0,0.000000,6,0.000000,0.000000,1.461515,0,0,0,0,0,0,0
12,129999,20,120000,49,110000,40,9999,0.100000,0,0,0.000000,6,0.000000,0.000000,0.161251,0,0,0,0,0,0,0
12,129999,21,120000,49,90000,40,9999,0.100000,0,0,0.000000,6,0.000000,0.000000,0.712407,0,0,0,0,0,0,0
12,129999,22,120000,49,90000,40,9999,0.100000,0,0,0.000000,6,0.000000,0.000000,0.216070,0,0,0,0,0,0,0
12,129999,23,120000,0,0,40,9999,0.100000,0,0,0.000000,6,0.000000,0.000000,0.209259,0,0,0,0,0,0,0
12,129999,24,120000,17,20000,40,9999,0.100000,0,0,0.000000,6,0.000000,0.000000,0.160036,0,0,0,0,0,0,0
12,129999,25,120000,17,20000,40,9999,0.100000,0,0,0.000000,6,0.000000,0.000000,0.454072,0,0,0,0,0,0,0
12,129999,26,120000,17,20000,40,9999,0.100000,0,0,0.000000,6,0.000000,0.000000,0.589070,0,0,0,0,0,0,0
12,129999,27,120000,2,10000,40,9999,0.100000,0,0,0.000000,6,0.000000,0.000000,0.088241,0,0,0,0,0,0,0
