generation,iteration,robot,birthday,ancestor_id,ancestor_birthday,cell_id,age,sigma,maps,genomes,fitness,cells_in_map,dist_max,dist_pot_max,dist_total,com_rx,com_tx,obj_group1,obj_group2,obj_group3,obj_group4,obj_group5
0,9999,0,0,0,0,0,9999,0.100000,99,99,5.107537,0,0.000000,27.167994,1.742444,99,99,0,1,0,0,0
0,9999,1,0,1,0,40,9999,0.100000,99,99,0.000000,0,1.000000,30.364675,8.741811,99,99,0,0,0,0,0
0,9999,2,0,2,0,40,9999,0.100000,99,99,0.000000,0,1.000000,29.940913,15.173197,99,99,0,0,0,0,0
0,9999,3,0,3,0,40,9999,0.100000,99,99,0.000000,0,1.000000,23.633048,3.766036,99,99,0,0,0,0,0
0,9999,4,0,4,0,40,9999,0.100000,99,99,0.000000,0,0.000000,24.105673,6.129965,99,99,0,0,0,0,0
0,9999,5,0,5,0,0,9999,0.100000,99,99,3.312170,0,0.000000,12.184033,1.554962,99,99,0,0,1,0,0
0,9999,6,0,6,0,0,9999,0.100000,99,99,0.167468,0,1.000000,31.646247,4.386034,99,99,0,0,0,0,1
0,9999,7,0,7,0,0,9999,0.100000,99,99,0.007818,0,2.000000,27.223530,5.457974,99,99,0,0,0,0,1
0,9999,8,0,8,0,40,9999,0.100000,99,99,0.000000,0,1.000000,21.264102,2.411674,99,99,0,0,0,0,0
0,9999,9,0,9,0,0,9999,0.100000,99,99,0.008154,0,0.000000,19.615092,0.719100,99,99,0,0,0,0,1
0,9999,10,0,10,0,40,9999,0.100000,99,99,0.000000,0,0.000000,26.381697,7.824402,99,99,0,0,0,0,0
0,9999,11,0,11,0,0,9999,0.100000,99,99,0.000635,0,0.000000,29.942166,0.425968,99,99,0,0,0,0,1
0,9999,12,0,12,0,40,9999,0.100000,99,99,0.000000,0,2.000000,25.550241,10.089499,99,99,0,0,0,0,0
0,9999,13,0,13,0,40,9999,0.100000,99,99,0.000000,0,2.000000,32.638463,15.112216,99,99,0,0,0,0,0
0,9999,14,0,14,0,44,9999,0.100000,99,99,0.000000,0,9.000000,20.348430,20.727023,99,99,0,0,0,0,0
0,9999,15,0,15,0,0,9999,0.100000,99,99,2.625270,0,0.000000,24.144964,1.968519,99,99,0,0,0,1,0
0,9999,16,0,16,0,0,9999,0.100000,99,99,0.501149,0,1.000000,16.637017,3.244167,99,99,0,0,0,1,0
0,9999,17,0,17,0,91,9999,0.100000,99,99,18.207976,0,3.000000,27.664937,19.305266,99,99,1,0,0,0,0
0,9999,18,0,18,0,0,9999,0.100000,99,99,0.010422,0,1.000000,28.534832,5.209854,99,99,0,0,1,0,0
0,9999,19,0,19,0,40,9999,0.100000,99,99,0.000000,0,2.000000,23.150285,15.000167,99,99,0,0,0,0,0
0,9999,20,0,20,0,41,9999,0.100000,99,99,0.000000,0,4.000000,19.962429,10.447996,99,99,0,0,0,0,0
0,9999,21,0,21,0,45,9999,0.100000,99,99,0.000000,0,9.000000,16.276942,18.097396,99,99,0,0,0,0,0
0,9999,22,0,22,0,0,9999,0.100000,99,99,0.034477,0,1.000000,17.940403,3.870929,99,99,0,0,0,0,1
0,9999,23,0,23,0,0,9999,0.100000,99,99,0.125741,0,2.000000,32.051077,2.979896,99,99,0,1,0,0,0
0,9999,24,0,24,0,0,9999,0.100000,99,99,0.009872,0,0.000000,22.887591,1.523844,99,99,0,0,0,0,1
0,9999,25,0,25,0,0,9999,0.100000,99,99,0.395310,0,2.000000,24.269548,3.215330,99,99,0,0,1,0,0
0,9999,26,0,26,0,40,9999,0.100000,99,99,0.000000,0,0.000000,27.184295,4.926774,99,99,0,0,0,0,0
0,9999,27,0,27,0,40,9999,0.100000,99,99,0.000000,0,1.000000,18.021222,9.292808,99,99,0,0,0,0,0
0,9999,28,0,28,0,40,9999,0.100000,99,99,0.000000,0,0.000000,13.939543,0.891759,99,99,0,0,0,0,0
0,9999,29,0,29,0,41,9999,0.100000,99,99,0.000000,0,4.000000,20.623088,12.274031,99,99,0,0,0,0,0
0,9999,30,0,30,0,40,9999,0.100000,99,99,0.000000,0,2.000000,24.567086,10.786858,99,99,0,0,0,0,0
0,9999,31,0,31,0,40,9999,0.100000,99,99,0.000000,0,0.000000,22.593649,11.984136,99,99,0,0,0,0,0
0,9999,32,0,32,0,40,9999,0.100000,99,99,0.000000,0,2.000000,24.934524,16.908389,99,99,0,0,0,0,0
0,9999,33,0,33,0,40,9999,0.100000,99,99,0.000000,0,1.000000,27.199128,10.674057,99,99,0,0,0,0,0
0,9999,34,0,34,0,0,9999,0.100000,99,99,0.324563,0,0.000000,22.902713,0.832927,99,99,0,0,0,0,1
0,9999,35,0,35,0,0,9999,0.100000,99,99,0.001688,0,2.000000,20.187247,3.693089,99,99,0,0,0,1,0
0,9999,36,0,36,0,40,9999,0.100000,99,99,0.000000,0,2.000000,28.730190,8.249095,99,99,0,0,0,0,0
0,9999,37,0,37,0,0,9999,0.100000,99,99,0.687467,0,0.000000,26.308587,1.526302,99,99,0,1,0,0,0
0,9999,38,0,38,0,40,9999,0.100000,99,99,0.000000,0,1.000000,27.880716,7.564124,99,99,0,0,0,0,0
0,9999,39,0,39,0,41,9999,0.100000,99,99,0.000000,0,5.000000,28.655026,12.270228,99,99,0,0,0,0,0
0,9999,40,0,40,0,0,9999,0.100000,99,99,0.053379,0,1.000000,20.239629,4.994434,99,99,0,0,1,0,0
0,9999,41,0,41,0,0,9999,0.100000,99,99,0.002429,0,2.000000,31.557365,8.493711,99,99,0,0,1,0,0
0,9999,42,0,42,0,40,9999,0.100000,99,99,0.000000,0,0.000000,18.158431,8.913544,99,99,0,0,0,0,0
0,9999,43,0,43,0,40,9999,0.100000,99,99,0.000000,0,1.000000,18.324061,3.543276,99,99,0,0,0,0,0
0,9999,44,0,44,0,40,9999,0.100000,99,99,0.000000,0,0.000000,26.924834,9.375743,99,99,0,0,0,0,0
0,9999,45,0,45,0,41,9999,0.100000,99,99,0.000000,0,5.000000,27.216852,23.959789,99,99,0,0,0,0,0
0,9999,46,0,46,0,0,9999,0.100000,99,99,0.195390,0,2.000000,25.986244,2.305210,99,99,0,0,0,0,1
0,9999,47,0,47,0,40,9999,0.100000,99,99,0.000000,0,1.000000,23.671869,17.826107,99,99,0,0,0,0,0
0,9999,48,0,48,0,40,9999,0.100000,99,99,0.000000,0,1.000000,25.498387,4.095644,99,99,0,0,0,0,0
0,9999,49,0,49,0,0,9999,0.100000,99,99,0.685337,0,1.000000,18.839118,4.096527,99,99,0,1,0,0,0
0,9999,50,0,50,0,41,9999,0.100000,99,99,0.000000,0,2.000000,13.640055,7.650869,99,99,0,0,0,0,0
0,9999,51,0,51,0,40,9999,0.100000,99,99,0.000000,0,2.000000,25.879547,5.874870,99,99,0,0,0,0,0
0,9999,52,0,52,0,40,9999,0.100000,99,99,0.000000,0,2.000000,21.573245,7.528434,99,99,0,0,0,0,0
0,9999,53,0,53,0,0,9999,0.100000,99,99,0.000000,0,2.000000,30.652603,2.817588,99,99,0,0,0,0,1
0,9999,54,0,54,0,40,9999,0.100000,99,99,0.000000,0,2.000000,26.834488,14.690710,99,99,0,0,0,0,0
0,9999,55,0,55,0,40,9999,0.100000,99,99,0.000000,0,1.000000,13.026549,1.838147,99,99,0,0,0,0,0
0,9999,56,0,56,0,0,9999,0.100000,99,99,13.533377,0,2.000000,29.637973,9.653451,99,99,0,1,0,0,0
0,9999,57,0,57,0,40,9999,0.100000,99,99,0.000000,0,2.000000,31.703917,15.279501,99,99,0,0,0,0,0
0,9999,58,0,58,0,40,9999,0.100000,99,99,0.000000,0,2.000000,24.143903,3.200894,99,99,0,0,0,0,0
0,9999,59,0,59,0,40,9999,0.100000,99,99,0.000000,0,1.000000,26.614752,10.789352,99,99,0,0,0,0,0
0,9999,60,0,60,0,40,9999,0.100000,99,99,0.000000,0,3.000000,29.982242,8.890205,99,99,0,0,0,0,0
0,9999,61,0,61,0,0,9999,0.100000,99,99,0.039631,0,1.000000,25.512898,3.691169,99,99,0,0,1,0,0
0,9999,62,0,62,0,41,9999,0.100000,99,99,0.000000,0,4.000000,25.608011,8.349464,99,99,0,0,0,0,0
0,9999,63,0,63,0,40,9999,0.100000,99,99,0.000000,0,2.000000,24.782760,8.444479,99,99,0,0,0,0,0
0,9999,64,0,64,0,40,9999,0.100000,99,99,0.000000,0,2.000000,28.965495,3.904720,99,99,0,0,0,0,0
0,9999,65,0,65,0,41,9999,0.100000,99,99,0.000000,0,3.000000,15.096077,4.094566,99,99,0,0,0,0,0
0,9999,66,0,66,0,40,9999,0.100000,99,99,0.000000,0,2.000000,28.754466,12.760601,99,99,0,0,0,0,0
0,9999,67,0,67,0,40,9999,0.100000,99,99,0.000000,0,2.000000,32.714973,5.634629,99,99,0,0,0,0,0
0,9999,68,0,68,0,40,9999,0.100000,99,99,0.000000,0,2.000000,27.548219,11.674300,99,99,0,0,0,0,0
0,9999,69,0,69,0,40,9999,0.100000,99,99,0.000000,0,1.000000,16.198387,3.217150,99,99,0,0,0,0,0
0,9999,70,0,70,0,97,9999,0.100000,99,99,88.459118,0,13.000000,17.621679,27.100430,99,99,1,0,0,0,0
0,9999,71,0,71,0,40,9999,0.100000,99,99,0.000000,0,2.000000,24.213022,4.773783,99,99,0,0,0,0,0
0,9999,72,0,72,0,40,9999,0.100000,99,99,0.000000,0,0.000000,28.117671,1.373805,99,99,0,0,0,0,0
0,9999,73,0,73,0,96,9999,0.100000,99,99,36.558116,0,9.000000,13.383785,12.315760,99,99,1,0,0,0,0
0,9999,74,0,74,0,40,9999,0.100000,99,99,0.000000,0,2.000000,26.901183,6.828635,99,99,0,0,0,0,0
0,9999,75,0,75,0,40,9999,0.100000,99,99,0.000000,0,1.000000,21.401754,6.759511,99,99,0,0,0,0,0
0,9999,76,0,76,0,0,9999,0.100000,99,99,2.051366,0,0.000000,26.890826,1.318605,99,99,0,0,1,0,0
0,9999,77,0,77,0,40,9999,0.100000,99,99,0.000000,0,0.000000,25.253196,0.674038,99,99,0,0,0,0,0
0,9999,78,0,78,0,40,9999,0.100000,99,99,0.000000,0,1.000000,26.888457,4.597430,99,99,0,0,0,0,0
0,9999,79,0,79,0,0,9999,0.100000,99,99,0.000572,0,0.000000,27.836199,0.474785,99,99,0,0,0,1,0
0,9999,80,0,80,0,40,9999,0.100000,99,99,0.000000,0,1.000000,24.656398,3.735666,99,99,0,0,0,0,0
0,9999,81,0,81,0,40,9999,0.100000,99,99,0.000000,0,1.000000,31.153959,4.233981,99,99,0,0,0,0,0
0,9999,82,0,82,0,1,9999,0.100000,99,99,0.021392,0,3.000000,20.530432,3.778342,99,99,0,0,0,0,1
0,9999,83,0,83,0,40,9999,0.100000,99,99,0.000000,0,2.000000,34.695142,6.688452,99,99,0,0,0,0,0
0,9999,84,0,84,0,40,9999,0.100000,99,99,0.000000,0,1.000000,17.752419,12.826091,99,99,0,0,0,0,0
0,9999,85,0,85,0,40,9999,0.100000,99,99,0.000000,0,1.000000,34.628845,11.257261,99,99,0,0,0,0,0
0,9999,86,0,86,0,40,9999,0.100000,99,99,0.000000,0,2.000000,25.556992,2.518088,99,99,0,0,0,0,0
0,9999,87,0,87,0,40,9999,0.100000,99,99,0.000000,0,1.000000,25.450566,7.787723,99,99,0,0,0,0,0
0,9999,88,0,88,0,0,9999,0.100000,99,99,0.000000,0,0.000000,30.203960,8.407651,99,99,0,0,0,0,1
0,9999,89,0,89,0,40,9999,0.100000,99,99,0.000000,0,0.000000,28.645375,9.002316,99,99,0,0,0,0,0
0,9999,90,0,90,0,40,9999,0.100000,99,99,0.000000,0,0.000000,22.907362,1.493167,99,99,0,0,0,0,0
0,9999,91,0,91,0,41,9999,0.100000,99,99,0.000000,0,4.000000,31.602083,12.126738,99,99,0,0,0,0,0
0,9999,92,0,92,0,40,9999,0.100000,99,99,0.000000,0,0.000000,19.100000,3.274247,99,99,0,0,0,0,0
0,9999,93,0,93,0,92,9999,0.100000,99,99,30.891472,0,5.000000,19.360555,14.015643,99,99,1,0,0,0,0
0,9999,94,0,94,0,40,9999,0.100000,99,99,0.000000,0,0.000000,27.507141,0.990130,99,99,0,0,0,0,0
0,9999,95,0,95,0,40,9999,0.100000,99,99,0.000000,0,0.000000,33.352944,15.403937,99,99,0,0,0,0,0
0,9999,96,0,96,0,40,9999,0.100000,99,99,0.000000,0,0.000000,32.129844,1.019681,99,99,0,0,0,0,0
0,9999,97,0,97,0,40,9999,0.100000,99,99,0.000000,0,0.000000,21.287161,2.666120,99,99,0,0,0,0,0
0,9999,98,0,98,0,41,9999,0.100000,99,99,30.282393,0,5.000000,24.822281,14.232952,99,99,1,0,0,1,0
0,9999,99,0,99,0,40,9999,0.100000,99,99,0.000000,0,1.000000,22.111565,1.897314,99,99,0,0,0,0,0
1,19999,0,10000,70,0,1,9999,0.100000,99,198,0.895666,1,3.000000,27.120132,4.426710,99,99,0,1,0,0,0
1,19999,1,10000,70,0,40,9999,0.100000,99,198,0.000000,1,3.000000,30.735274,10.842314,99,99,0,0,0,0,0
1,19999,2,10000,70,0,40,9999,0.100000,99,198,0.000000,1,3.000000,30.093568,8.294901,99,99,0,0,0,0,0
1,19999,3,10000,70,0,40,9999,0.100000,99,198,0.000000,1,0.000000,23.049268,1.308429,99,99,0,0,0,0,0
1,19999,4,10000,70,0,42,9999,0.100000,99,198,0.000000,1,7.000000,24.521699,19.389346,99,99,0,0,0,0,0
1,19999,5,10000,70,0,40,9999,0.100000,99,198,0.000000,1,0.000000,12.764744,1.026954,99,99,0,0,0,0,0
1,19999,6,10000,70,0,0,9999,0.100000,99,198,0.312265,1,0.000000,31.893491,1.295375,99,99,0,0,0,0,1
1,19999,7,10000,70,0,0,9999,0.100000,99,198,0.038488,1,0.000000,24.941760,0.210757,99,99,0,0,0,0,1
1,19999,8,10000,70,0,0,9999,0.100000,99,198,0.016680,1,0.000000,22.264469,0.109222,99,99,0,0,0,0,1
1,19999,9,10000,70,0,0,9999,0.100000,99,198,0.520981,1,0.000000,19.659775,0.133369,99,99,0,0,0,0,1
1,19999,10,10000,70,0,40,9999,0.100000,99,198,0.000000,1,0.000000,26.401647,0.926312,99,99,0,0,0,0,0
1,19999,11,10000,70,0,0,9999,0.100000,99,198,0.324178,1,0.000000,30.192300,0.574059,99,99,0,0,0,0,1
1,19999,12,10000,70,0,44,9999,0.100000,99,198,0.000000,1,12.000000,25.139395,24.196301,99,99,0,0,0,0,0
1,19999,13,10000,70,0,40,9999,0.100000,99,198,0.000000,1,2.000000,32.581831,8.160551,99,99,0,0,0,0,0
1,19999,14,10000,70,0,40,9999,0.100000,99,198,0.000000,1,0.000000,11.272044,1.094694,99,99,0,0,0,0,0
1,19999,15,10000,70,0,0,9999,0.100000,99,198,1.214255,1,0.000000,23.771850,0.451382,99,99,0,0,0,1,0
1,19999,16,10000,70,0,40,9999,0.100000,99,198,0.000000,1,0.000000,17.171642,0.320094,99,99,0,0,0,0,0
1,19999,17,10000,70,0,40,9999,0.100000,99,198,0.000000,1,1.000000,29.252681,13.645030,99,99,0,0,0,0,0
1,19999,18,10000,70,0,40,9999,0.100000,99,198,0.000000,1,0.000000,27.197317,0.633834,99,99,0,0,0,0,0
1,19999,19,10000,70,0,40,9999,0.100000,99,198,0.000000,1,2.000000,23.019323,14.930117,99,99,0,0,0,0,0
1,19999,20,10000,70,0,0,9999,0.100000,99,198,0.009187,1,0.000000,17.829942,0.610203,99,99,0,0,0,1,0
1,19999,21,10000,70,0,41,9999,0.100000,99,198,0.000000,1,5.000000,25.309883,20.082175,99,99,0,0,0,0,0
1,19999,22,10000,70,0,0,9999,0.100000,99,198,0.185296,1,0.000000,16.733672,0.820766,99,99,0,0,0,0,1
1,19999,23,10000,70,0,2,9999,0.100000,99,198,46.206482,1,8.000000,30.129645,11.201802,99,99,0,1,0,0,0
1,19999,24,10000,70,0,40,9999,0.100000,99,198,0.000000,1,0.000000,22.538067,0.105125,99,99,0,0,0,0,0
1,19999,25,10000,70,0,0,9999,0.100000,99,198,0.379517,1,0.000000,21.828699,0.244023,99,99,0,0,1,0,0
1,19999,26,10000,70,0,41,9999,0.100000,99,198,0.000000,1,4.000000,27.403924,7.665947,99,99,0,0,0,0,0
1,19999,27,10000,70,0,40,9999,0.100000,99,198,0.000000,1,1.000000,19.859594,8.832599,99,99,0,0,0,0,0
1,19999,28,10000,70,0,40,9999,0.100000,99,198,0.000000,1,0.000000,14.332084,0.548066,99,99,0,0,0,0,0
1,19999,29,10000,70,0,2,9999,0.100000,99,198,0.108142,1,4.000000,15.743088,11.437439,99,99,0,0,1,0,0
1,19999,30,10000,70,0,43,9999,0.100000,99,198,0.000000,1,9.000000,23.938395,19.931910,99,99,0,0,0,0,0
1,19999,31,10000,70,0,40,9999,0.100000,99,198,0.000000,1,0.000000,22.105366,0.346256,99,99,0,0,0,0,0
1,19999,32,10000,70,0,42,9999,0.100000,99,198,0.000000,1,6.000000,23.722469,11.891137,99,99,0,0,0,0,0
1,19999,33,10000,70,0,40,9999,0.100000,99,198,0.000000,1,2.000000,25.937790,8.857429,99,99,0,0,0,0,0
1,19999,34,10000,70,0,0,9999,0.100000,99,198,0.390065,1,0.000000,23.475711,0.110306,99,99,0,0,0,0,1
1,19999,35,10000,70,0,0,9999,0.100000,99,198,0.251326,1,0.000000,21.799504,0.256775,99,99,0,0,0,1,0
1,19999,36,10000,70,0,41,9999,0.100000,99,198,0.000000,1,3.000000,27.426924,6.165779,99,99,0,0,0,0,0
1,19999,37,10000,70,0,0,9999,0.100000,99,198,0.357738,1,0.000000,26.219331,1.099487,99,99,0,1,0,0,0
1,19999,38,10000,70,0,3,9999,0.100000,99,198,45.916987,1,9.000000,27.865318,20.633060,99,99,0,1,0,0,0
1,19999,39,10000,70,0,0,9999,0.100000,99,198,0.341848,1,0.000000,27.483263,0.394448,99,99,0,0,1,0,0
1,19999,40,10000,70,0,40,9999,0.100000,99,198,0.000000,1,1.000000,19.541813,3.869563,99,99,0,0,0,0,0
1,19999,41,10000,70,0,0,9999,0.100000,99,198,1.473901,1,0.000000,29.808883,0.517077,99,99,0,0,1,0,0
1,19999,42,10000,70,0,2,9999,0.100000,99,198,0.003609,1,5.000000,18.622350,8.166119,99,99,0,0,0,0,1
1,19999,43,10000,70,0,40,9999,0.100000,99,198,0.000000,1,0.000000,18.764525,0.487434,99,99,0,0,0,0,0
1,19999,44,10000,70,0,0,9999,0.100000,99,198,0.055297,1,2.000000,27.379050,11.748425,99,99,0,0,0,1,0
1,19999,45,10000,70,0,40,9999,0.100000,99,198,0.000000,1,0.000000,27.864914,6.478164,99,99,0,0,0,0,0
1,19999,46,10000,70,0,0,9999,0.100000,99,198,3.378160,1,0.000000,24.981993,0.715444,99,99,0,0,0,0,1
1,19999,47,10000,70,0,43,9999,0.100000,99,198,0.000000,1,9.000000,23.235204,17.978210,99,99,0,0,0,0,0
1,19999,48,10000,70,0,40,9999,0.100000,99,198,0.000000,1,1.000000,24.927651,2.442864,99,99,0,0,0,0,0
1,19999,49,10000,70,0,0,9999,0.100000,99,198,0.223174,1,0.000000,17.713735,0.199447,99,99,0,1,0,0,0
1,19999,50,10000,70,0,41,9999,0.100000,99,198,0.000000,1,2.000000,13.791128,9.997407,99,99,0,0,0,0,0
1,19999,51,10000,70,0,40,9999,0.100000,99,198,0.000000,1,1.000000,27.219230,9.025425,99,99,0,0,0,0,0
1,19999,52,10000,70,0,94,9999,0.100000,99,198,55.249936,1,10.000000,19.456526,15.493142,99,99,1,0,0,0,0
1,19999,53,10000,70,0,40,9999,0.100000,99,198,0.000000,1,0.000000,31.519214,1.698906,99,99,0,0,0,0,0
1,19999,54,10000,70,0,40,9999,0.065000,99,198,0.000000,1,2.000000,28.675970,10.996996,99,99,0,0,0,0,0
1,19999,55,10000,70,0,40,9999,0.100000,99,198,0.000000,1,0.000000,13.060769,1.348753,99,99,0,0,0,0,0
1,19999,56,10000,70,0,0,9999,0.100000,99,198,7.500986,1,1.000000,31.118466,5.592424,99,99,0,1,0,0,0
1,19999,57,10000,70,0,40,9999,0.100000,99,198,0.000000,1,1.000000,32.368047,12.449514,99,99,0,0,0,0,0
1,19999,58,10000,70,0,40,9999,0.100000,99,198,0.000000,1,0.000000,21.610018,0.352706,99,99,0,0,0,0,0
1,19999,59,10000,70,0,43,9999,0.100000,99,198,0.000000,1,9.000000,25.542741,20.087751,99,99,0,0,0,0,0
1,19999,60,10000,70,0,0,9999,0.100000,99,198,6.556694,1,1.000000,30.957381,4.575928,99,99,0,1,0,0,0
1,19999,61,10000,70,0,0,9999,0.100000,99,198,1.862848,1,0.000000,25.328985,0.486350,99,99,0,0,1,0,0
1,19999,62,10000,70,0,44,9999,0.100000,99,198,0.000000,1,10.000000,22.418719,22.139613,99,99,0,0,0,0,0
1,19999,63,10000,70,0,40,9999,0.100000,99,198,0.000000,1,0.000000,22.628178,0.083874,99,99,0,0,0,0,0
1,19999,64,10000,70,0,43,9999,0.100000,99,198,0.000000,1,11.000000,27.796011,18.526163,99,99,0,0,0,0,0
1,19999,65,10000,70,0,40,9999,0.100000,99,198,0.000000,1,0.000000,17.394388,0.386741,99,99,0,0,0,0,0
1,19999,66,10000,70,0,40,9999,0.100000,99,198,0.000000,1,1.000000,31.515422,5.644257,99,99,0,0,0,0,0
1,19999,67,10000,70,0,40,9999,0.100000,99,198,0.000000,1,3.000000,31.819752,13.375180,99,99,0,0,0,0,0
1,19999,68,10000,70,0,40,9999,0.100000,99,198,0.000000,1,0.000000,28.806469,7.522328,99,99,0,0,0,0,0
1,19999,69,10000,70,0,41,9999,0.100000,99,198,0.000000,1,3.000000,15.068828,8.269021,99,99,0,0,0,0,0
1,19999,70,10000,73,0,41,9999,0.100000,99,198,0.000000,1,5.000000,28.972815,10.393769,99,99,0,0,0,0,0
1,19999,71,10000,70,0,40,9999,0.100000,99,198,0.000000,1,0.000000,23.814420,0.972245,99,99,0,0,0,0,0
1,19999,72,10000,70,0,43,9999,0.100000,99,198,0.000000,1,10.000000,28.870316,17.068148,99,99,0,0,0,0,0
1,19999,73,10000,70,0,0,9999,0.100000,99,198,0.059655,1,0.000000,21.488633,0.790118,99,99,0,0,1,0,0
1,19999,74,10000,70,0,40,9999,0.100000,99,198,0.000000,1,0.000000,28.031685,6.256556,99,99,0,0,0,0,0
1,19999,75,10000,70,0,0,9999,0.100000,99,198,0.394019,1,0.000000,21.209320,0.985869,99,99,0,0,0,1,0
1,19999,76,10000,70,0,0,9999,0.100000,99,198,1.791971,1,0.000000,26.257033,0.557245,99,99,0,0,1,0,0
1,19999,77,10000,70,0,40,9999,0.100000,99,198,0.000000,1,0.000000,24.841061,0.190791,99,99,0,0,0,0,0
1,19999,78,10000,70,0,42,9999,0.100000,99,198,0.000000,1,8.000000,25.499252,18.408273,99,99,0,0,0,0,0
1,19999,79,10000,70,0,0,9999,0.100000,99,198,0.018144,1,0.000000,27.792067,0.110265,99,99,0,0,0,1,0
1,19999,80,10000,70,0,43,9999,0.100000,99,198,0.000000,1,9.000000,25.011471,21.560571,99,99,0,0,0,0,0
1,19999,81,10000,70,0,40,9999,0.100000,99,198,0.000000,1,0.000000,30.383591,0.635699,99,99,0,0,0,0,0
1,19999,82,10000,70,0,40,9999,0.100000,99,198,0.000000,1,0.000000,24.211961,0.082228,99,99,0,0,0,0,0
1,19999,83,10000,70,0,40,9999,0.100000,99,198,0.000000,1,0.000000,32.536264,1.747671,99,99,0,0,0,0,0
1,19999,84,10000,70,0,42,9999,0.100000,99,198,0.000000,1,4.000000,18.189180,25.504924,99,99,0,0,0,0,0
1,19999,85,10000,70,0,42,9999,0.100000,99,198,0.000000,1,8.000000,34.856528,20.285616,99,99,0,0,0,0,0
1,19999,86,10000,70,0,40,9999,0.100000,99,198,0.000000,1,0.000000,24.393608,1.008675,99,99,0,0,0,0,0
1,19999,87,10000,70,0,40,9999,0.100000,99,198,0.000000,1,1.000000,25.814110,3.865027,99,99,0,0,0,0,0
1,19999,88,10000,70,0,40,9999,0.100000,99,198,0.000000,1,1.000000,30.364637,6.658661,99,99,0,0,0,0,0
1,19999,89,10000,70,0,40,9999,0.100000,99,198,0.000000,1,3.000000,28.502125,13.367698,99,99,0,0,0,0,0
1,19999,90,10000,70,0,40,9999,0.100000,99,198,0.000000,1,0.000000,23.211036,1.021368,99,99,0,0,0,0,0
1,19999,91,10000,70,0,40,9999,0.100000,99,198,0.000000,1,0.000000,31.757642,3.075178,99,99,0,0,0,0,0
1,19999,92,10000,70,0,40,9999,0.100000,99,198,0.000000,1,0.000000,18.793884,0.520431,99,99,0,0,0,0,0
1,19999,93,10000,70,0,40,9999,0.100000,99,198,0.000000,1,1.000000,23.529539,6.823253,99,99,0,0,0,0,0
1,19999,94,10000,70,0,40,9999,0.100000,99,198,0.000000,1,0.000000,26.811781,0.287144,99,99,0,0,0,0,0
1,19999,95,10000,70,0,41,9999,0.100000,99,198,0.000000,1,6.000000,33.490291,15.399781,99,99,0,0,0,0,0
1,19999,96,10000,70,0,40,9999,0.100000,99,198,0.000000,1,0.000000,32.606636,0.249262,99,99,0,0,0,0,0
1,19999,97,10000,70,0,40,9999,0.100000,99,198,0.000000,1,0.000000,21.204720,1.235166,99,99,0,0,0,0,0
1,19999,98,10000,70,0,0,9999,0.100000,99,198,0.004309,1,0.000000,29.036847,0.182087,99,99,0,0,0,1,0
1,19999,99,10000,70,0,40,9999,0.100000,99,198,0.000000,1,0.000000,23.341821,0.176883,99,99,0,0,0,0,0
2,29999,0,20000,52,10000,0,9999,0.100000,99,297,1.051015,2,1.000000,27.191469,1.547106,99,99,0,1,0,0,0
2,29999,1,20000,52,10000,0,9999,0.100000,99,297,0.001210,1,2.000000,33.132011,6.205477,99,99,0,0,0,1,0
2,29999,2,20000,52,10000,40,9999,0.100000,99,297,0.000000,1,0.000000,31.575993,4.885393,99,99,0,0,0,0,0
2,29999,3,20000,52,10000,40,9999,0.100000,99,297,0.000000,1,0.000000,23.152148,1.270737,99,99,0,0,0,0,0
2,29999,4,20000,52,10000,43,9999,0.100000,99,297,0.000000,2,8.000000,19.980935,10.261695,99,99,0,0,0,0,0
2,29999,5,20000,52,10000,40,9999,0.100000,99,297,0.000000,2,0.000000,12.485686,2.951308,99,99,0,0,0,0,0
2,29999,6,20000,52,10000,0,9999,0.100000,99,297,0.390224,1,0.000000,32.052687,1.450949,99,99,0,0,0,0,1
2,29999,7,20000,52,10000,0,9999,0.100000,99,297,2.821886,1,0.000000,24.924308,0.664559,99,99,0,0,0,0,1
2,29999,8,20000,52,10000,0,9999,0.100000,99,297,0.000257,2,0.000000,22.269912,0.089092,99,99,0,0,0,0,1
2,29999,9,20000,52,10000,0,9999,0.100000,99,297,0.801416,1,0.000000,19.579372,0.166596,99,99,0,0,0,0,1
2,29999,10,20000,52,10000,40,9999,0.100000,99,297,0.000000,1,0.000000,26.098989,1.056127,99,99,0,0,0,0,0
2,29999,11,20000,52,10000,0,9999,0.100000,99,297,0.002213,1,0.000000,30.336134,0.063167,99,99,0,0,0,0,1
2,29999,12,20000,52,10000,40,9999,0.100000,99,297,0.000000,2,1.000000,13.086580,2.722821,99,99,0,0,0,0,0
2,29999,13,20000,52,10000,40,9999,0.100000,99,297,0.000000,1,0.000000,31.543461,7.633355,99,99,0,0,0,0,0
2,29999,14,20000,52,10000,40,9999,0.100000,99,297,0.000000,2,0.000000,11.894926,1.847761,99,99,0,0,0,0,0
2,29999,15,20000,52,10000,0,9999,0.100000,99,297,1.775819,1,0.000000,23.898107,0.392482,99,99,0,0,0,1,0
2,29999,16,20000,52,10000,40,9999,0.100000,99,297,0.000000,2,0.000000,17.249033,0.174273,99,99,0,0,0,0,0
2,29999,17,20000,52,10000,40,9999,0.100000,99,297,0.000000,2,0.000000,29.786338,10.788166,99,99,0,0,0,0,0
2,29999,18,20000,52,10000,0,9999,0.100000,99,297,0.545059,2,0.000000,27.257485,0.749046,99,99,0,0,1,0,0
2,29999,19,20000,52,10000,40,9999,0.100000,99,297,0.000000,1,0.000000,24.793504,0.904616,99,99,0,0,0,0,0
2,29999,20,20000,52,10000,0,9999,0.100000,99,297,0.007810,2,0.000000,18.005516,0.128427,99,99,0,0,0,1,0
2,29999,21,20000,52,10000,43,9999,0.100000,99,297,0.000000,2,8.000000,20.152518,20.814969,99,99,0,0,0,0,0
2,29999,22,20000,52,10000,0,9999,0.100000,99,297,0.005184,1,0.000000,16.715850,0.399542,99,99,0,0,0,0,1
2,29999,23,20000,52,10000,40,9999,0.100000,99,297,0.000000,2,0.000000,36.846361,0.149529,99,99,0,0,0,0,0
2,29999,24,20000,52,10000,40,9999,0.100000,99,297,0.000000,2,0.000000,22.545187,0.100421,99,99,0,0,0,0,0
2,29999,25,20000,52,10000,0,9999,0.100000,99,297,0.004995,1,0.000000,21.713710,0.857731,99,99,0,0,1,0,0
2,29999,26,20000,52,10000,40,9999,0.100000,99,297,0.000000,2,2.000000,28.788428,2.187628,99,99,0,0,0,0,0
2,29999,27,20000,52,10000,40,9999,0.100000,99,297,0.000000,1,0.000000,21.580302,11.870583,99,99,0,0,0,0,0
2,29999,28,20000,52,10000,40,9999,0.100000,99,297,0.000000,1,0.000000,14.645625,0.468597,99,99,0,0,0,0,0
2,29999,29,20000,52,10000,40,9999,0.100000,99,297,0.000000,2,0.000000,12.802040,1.886993,99,99,0,0,0,0,0
2,29999,30,20000,52,10000,42,9999,0.100000,99,297,0.000000,2,4.000000,15.311710,10.302972,99,99,0,0,0,0,0
2,29999,31,20000,52,10000,40,9999,0.100000,99,297,0.000000,1,0.000000,21.982222,0.897224,99,99,0,0,0,0,0
2,29999,32,20000,52,10000,40,9999,0.100000,99,297,0.000000,2,0.000000,18.163072,0.937408,99,99,0,0,0,0,0
2,29999,33,20000,52,10000,40,9999,0.100000,99,297,0.000000,1,1.000000,28.032441,9.780021,99,99,0,0,0,0,0
2,29999,34,20000,52,10000,0,9999,0.100000,99,297,1.502806,1,0.000000,23.537444,0.254617,99,99,0,0,0,0,1
2,29999,35,20000,52,10000,0,9999,0.100000,99,297,0.332738,1,0.000000,21.715639,0.484802,99,99,0,0,0,1,0
2,29999,36,20000,52,10000,40,9999,0.100000,99,297,0.000000,2,1.000000,27.250557,1.540458,99,99,0,0,0,0,0
2,29999,37,20000,52,10000,0,9999,0.100000,99,297,1.596316,1,0.000000,26.726770,1.360790,99,99,0,1,0,0,0
2,29999,38,20000,52,10000,2,9999,0.100000,99,297,0.000000,2,9.000000,34.043660,24.315400,99,99,0,1,0,0,0
2,29999,39,20000,52,10000,40,9999,0.100000,99,297,0.000000,2,0.000000,27.596651,0.559210,99,99,0,0,0,0,0
2,29999,40,20000,52,10000,40,9999,0.100000,99,297,0.000000,2,0.000000,20.524356,0.467632,99,99,0,0,0,0,0
2,29999,41,20000,52,10000,0,9999,0.100000,99,297,2.805097,1,0.000000,29.559923,0.728952,99,99,0,0,1,0,0
2,29999,42,20000,52,10000,0,9999,0.100000,99,297,0.005023,2,0.000000,24.169268,0.086495,99,99,0,0,0,0,1
2,29999,43,20000,52,10000,40,9999,0.100000,99,297,0.000000,1,0.000000,18.628536,1.499574,99,99,0,0,0,0,0
2,29999,44,20000,52,10000,0,9999,0.100000,99,297,0.378327,2,0.000000,26.916770,0.136529,99,99,0,0,0,1,0
2,29999,45,20000,52,10000,40,9999,0.100000,99,297,0.000000,2,0.000000,28.012202,6.356586,99,99,0,0,0,0,0
2,29999,46,20000,52,10000,0,9999,0.100000,99,297,4.230563,1,0.000000,25.312157,0.788298,99,99,0,0,0,0,1
2,29999,47,20000,52,10000,43,9999,0.100000,99,297,0.000000,2,6.000000,16.249239,21.700927,99,99,0,0,0,0,0
2,29999,48,20000,52,10000,40,9999,0.100000,99,297,0.000000,1,1.000000,24.498365,2.191593,99,99,0,0,0,0,0
2,29999,49,20000,52,10000,0,9999,0.100000,99,297,0.191368,1,0.000000,17.738555,0.199019,99,99,0,1,0,0,0
2,29999,50,20000,52,10000,41,9999,0.100000,99,297,0.000000,1,2.000000,12.882275,16.374319,99,99,0,0,0,0,0
2,29999,51,20000,52,10000,40,9999,0.100000,99,297,0.000000,1,0.000000,25.264197,0.880716,99,99,0,0,0,0,0
2,29999,52,20000,23,10000,90,9999,0.100000,99,297,1.215862,2,0.000000,22.631975,0.702984,99,99,1,0,0,0,0
2,29999,53,20000,52,10000,40,9999,0.100000,99,297,0.000000,2,0.000000,30.771714,0.805896,99,99,0,0,0,0,0
2,29999,54,20000,52,10000,40,9999,0.100000,99,297,0.000000,1,0.000000,26.594709,0.159507,99,99,0,0,0,0,0
2,29999,55,20000,52,10000,40,9999,0.100000,99,297,0.000000,1,0.000000,12.638537,1.372230,99,99,0,0,0,0,0
2,29999,56,20000,52,10000,40,9999,0.100000,99,297,0.000000,1,1.000000,32.324023,7.001317,99,99,0,0,0,0,0
2,29999,57,20000,52,10000,40,9999,0.100000,99,297,0.000000,1,0.000000,31.993577,7.799485,99,99,0,0,0,0,0
2,29999,58,20000,52,10000,40,9999,0.100000,99,297,0.000000,1,0.000000,21.503197,0.919633,99,99,0,0,0,0,0
2,29999,59,20000,52,10000,42,9999,0.100000,99,297,0.000000,2,4.000000,16.249585,11.970138,99,99,0,0,0,0,0
2,29999,60,20000,52,10000,40,9999,0.100000,99,297,0.000000,2,1.000000,32.129183,11.883752,99,99,0,0,0,0,0
2,29999,61,20000,52,10000,40,9999,0.100000,99,297,0.000000,1,0.000000,25.103567,0.950237,99,99,0,0,0,0,0
2,29999,62,20000,52,10000,40,9999,0.100000,99,297,0.000000,2,0.000000,12.785869,7.177850,99,99,0,0,0,0,0
2,29999,63,20000,52,10000,40,9999,0.100000,99,297,0.000000,1,0.000000,22.635883,0.087012,99,99,0,0,0,0,0
2,29999,64,20000,52,10000,42,9999,0.100000,99,297,0.000000,2,5.000000,16.726973,14.736656,99,99,0,0,0,0,0
2,29999,65,20000,52,10000,40,9999,0.100000,99,297,0.000000,2,0.000000,17.518521,0.104744,99,99,0,0,0,0,0
2,29999,66,20000,52,10000,40,9999,0.100000,99,297,0.000000,1,0.000000,31.955557,1.333770,99,99,0,0,0,0,0
2,29999,67,20000,52,10000,40,9999,0.100000,99,297,0.000000,1,0.000000,30.259482,2.169752,99,99,0,0,0,0,0
2,29999,68,20000,52,10000,40,9999,0.100000,99,297,0.000000,1,0.000000,29.041296,6.504999,99,99,0,0,0,0,0
2,29999,69,20000,52,10000,0,9999,0.100000,99,297,0.570833,2,1.000000,12.599603,3.834519,99,99,0,0,0,1,0
2,29999,70,20000,52,10000,0,9999,0.100000,99,297,0.015044,2,0.000000,23.619230,0.833728,99,99,0,0,1,0,0
2,29999,71,20000,52,10000,40,9999,0.100000,99,297,0.000000,1,0.000000,24.234615,0.977457,99,99,0,0,0,0,0
2,29999,72,20000,52,10000,42,9999,0.100000,99,297,0.000000,2,4.000000,18.563636,21.180374,99,99,0,0,0,0,0
2,29999,73,20000,52,10000,0,9999,0.100000,99,297,0.025072,2,0.000000,21.638386,0.197492,99,99,0,0,1,0,0
2,29999,74,20000,52,10000,40,9999,0.100000,99,297,0.000000,1,0.000000,28.015273,6.792545,99,99,0,0,0,0,0
2,29999,75,20000,52,10000,0,9999,0.100000,99,297,0.594349,2,0.000000,21.168266,0.159209,99,99,0,0,0,1,0
2,29999,76,20000,52,10000,0,9999,0.100000,99,297,3.688087,1,0.000000,25.956011,0.931829,99,99,0,0,1,0,0
2,29999,77,20000,52,10000,40,9999,0.100000,99,297,0.000000,1,0.000000,24.823314,0.626314,99,99,0,0,0,0,0
2,29999,78,20000,52,10000,43,9999,0.100000,99,297,0.000000,2,10.000000,25.075102,22.642648,99,99,0,0,0,0,0
2,29999,79,20000,52,10000,0,9999,0.100000,99,297,0.201763,1,0.000000,27.801976,0.177602,99,99,0,0,0,1,0
2,29999,80,20000,52,10000,41,9999,0.100000,99,297,0.000000,2,3.000000,16.098430,21.236680,99,99,0,0,0,0,0
2,29999,81,20000,52,10000,40,9999,0.100000,99,297,0.000000,1,0.000000,30.121494,0.877811,99,99,0,0,0,0,0
2,29999,82,20000,52,10000,41,9999,0.100000,99,297,0.000000,2,4.000000,24.212534,8.323682,99,99,0,0,0,0,0
2,29999,83,20000,52,10000,40,9999,0.100000,99,297,0.000000,1,0.000000,32.436632,0.235873,99,99,0,0,0,0,0
2,29999,84,20000,52,10000,42,9999,0.100000,99,297,0.000000,2,4.000000,16.128730,19.673472,99,99,0,0,0,0,0
2,29999,85,20000,52,10000,40,9999,0.100000,99,297,0.000000,2,1.000000,30.981980,22.605826,99,99,0,0,0,0,0
2,29999,86,20000,52,10000,40,9999,0.100000,99,297,0.000000,1,0.000000,24.657082,1.057095,99,99,0,0,0,0,0
2,29999,87,20000,52,10000,40,9999,0.100000,99,297,0.000000,1,0.000000,26.596329,2.268500,99,99,0,0,0,0,0
2,29999,88,20000,52,10000,40,9999,0.100000,99,297,0.000000,2,1.000000,32.309255,10.452368,99,99,0,0,0,0,0
2,29999,89,20000,52,10000,40,9999,0.100000,99,297,0.000000,1,0.000000,31.858016,1.056454,99,99,0,0,0,0,0
2,29999,90,20000,52,10000,40,9999,0.100000,99,297,0.000000,1,0.000000,23.314255,0.777062,99,99,0,0,0,0,0
2,29999,91,20000,52,10000,40,9999,0.100000,99,297,0.000000,2,0.000000,32.455930,3.679521,99,99,0,0,0,0,0
2,29999,92,20000,52,10000,40,9999,0.100000,99,297,0.000000,1,1.000000,18.657041,1.937854,99,99,0,0,0,0,0
2,29999,93,20000,52,10000,40,9999,0.100000,99,297,0.000000,2,0.000000,24.750847,1.752322,99,99,0,0,0,0,0
2,29999,94,20000,52,10000,40,9999,0.100000,99,297,0.000000,1,0.000000,26.707288,0.217157,99,99,0,0,0,0,0
2,29999,95,20000,52,10000,40,9999,0.100000,99,297,0.000000,2,0.000000,30.175729,1.244024,99,99,0,0,0,0,0
2,29999,96,20000,52,10000,40,9999,0.100000,99,297,0.000000,1,0.000000,32.784397,0.156432,99,99,0,0,0,0,0
2,29999,97,20000,52,10000,40,9999,0.100000,99,297,0.000000,1,0.000000,21.347458,1.299105,99,99,0,0,0,0,0
2,29999,98,20000,52,10000,0,9999,0.100000,99,297,0.001932,2,0.000000,29.042488,0.167488,99,99,0,0,0,1,0
2,29999,99,20000,52,10000,40,9999,0.100000,99,297,0.000000,1,0.000000,23.421516,0.367487,99,99,0,0,0,0,0
3,39999,0,30000,46,20000,0,9999,0.100000,99,396,1.592954,2,1.000000,26.829200,1.594282,99,99,0,1,0,0,0
3,39999,1,30000,46,20000,40,9999,0.100000,99,396,0.000000,2,1.000000,33.692847,2.313360,99,99,0,0,0,0,0
3,39999,2,30000,46,20000,40,9999,0.100000,99,396,0.000000,1,0.000000,31.509696,7.676205,99,99,0,0,0,0,0
3,39999,3,30000,46,20000,0,9999,0.100000,99,396,0.133448,1,0.000000,23.564832,3.720051,99,99,0,0,0,0,1
3,39999,4,30000,46,20000,40,9999,0.100000,99,396,0.000000,3,0.000000,12.394465,0.200212,99,99,0,0,0,0,0
3,39999,5,30000,46,20000,44,9999,0.100000,99,396,0.000000,2,6.000000,12.613903,15.949364,99,99,0,0,0,0,0
3,39999,6,30000,46,20000,40,9999,0.100000,99,396,0.000000,1,0.000000,32.361368,2.668412,99,99,0,0,0,0,0
3,39999,7,30000,46,20000,0,9999,0.100000,99,396,1.403278,1,0.000000,24.633424,1.234592,99,99,0,0,0,0,1
3,39999,8,30000,46,20000,0,9999,0.100000,99,396,0.103501,2,0.000000,22.270883,0.125547,99,99,0,0,0,0,1
3,39999,9,30000,46,20000,0,9999,0.100000,99,396,0.674497,1,0.000000,19.469713,0.126570,99,99,0,0,0,0,1
3,39999,10,30000,46,20000,40,9999,0.100000,99,396,0.000000,1,0.000000,25.431127,1.002775,99,99,0,0,0,0,0
3,39999,11,30000,46,20000,0,9999,0.100000,99,396,0.001711,1,0.000000,30.336335,0.063149,99,99,0,0,0,0,1
3,39999,12,30000,46,20000,0,9999,0.100000,99,396,5.568480,2,1.000000,11.527051,3.441432,99,99,0,0,1,0,0
3,39999,13,30000,46,20000,40,9999,0.100000,99,396,0.000000,1,0.000000,31.755934,8.392801,99,99,0,0,0,0,0
3,39999,14,30000,46,20000,0,9999,0.100000,99,396,0.051983,2,0.000000,11.382494,1.500795,99,99,0,1,0,0,0
3,39999,15,30000,46,20000,0,9999,0.100000,99,396,0.344331,1,0.000000,24.191940,0.145998,99,99,0,0,0,1,0
3,39999,16,30000,46,20000,0,9999,0.100000,99,396,0.006390,2,0.000000,17.248958,0.170699,99,99,0,0,0,1,0
3,39999,17,30000,46,20000,0,9999,0.100000,99,396,0.256678,2,0.000000,29.819720,4.544320,99,99,0,0,0,1,0
3,39999,18,30000,46,20000,0,9999,0.100000,99,396,1.824127,2,0.000000,27.542360,0.424644,99,99,0,0,1,0,0
3,39999,19,30000,46,20000,40,9999,0.100000,99,396,0.000000,1,0.000000,24.513399,0.909679,99,99,0,0,0,0,0
3,39999,20,30000,46,20000,40,9999,0.100000,99,396,0.000000,2,0.000000,18.004861,0.124740,99,99,0,0,0,0,0
3,39999,21,30000,46,20000,40,9999,0.100000,99,396,0.000000,3,1.000000,12.505564,8.616647,99,99,0,0,0,0,0
3,39999,22,30000,46,20000,0,9999,0.100000,99,396,0.034499,1,0.000000,16.710146,0.478109,99,99,0,0,0,0,1
3,39999,23,30000,46,20000,40,9999,0.100000,99,396,0.000000,3,0.000000,36.848835,0.142450,99,99,0,0,0,0,0
3,39999,24,30000,46,20000,40,9999,0.100000,99,396,0.000000,2,0.000000,22.554272,0.879028,99,99,0,0,0,0,0
3,39999,25,30000,46,20000,40,9999,0.100000,99,396,0.000000,1,2.000000,21.058171,6.237740,99,99,0,0,0,0,0
3,39999,26,30000,46,20000,40,9999,0.100000,99,396,0.000000,2,0.000000,28.289918,0.487853,99,99,0,0,0,0,0
3,39999,27,30000,46,20000,0,9999,0.100000,99,396,0.311136,1,2.000000,21.275041,6.729652,99,99,0,0,1,0,0
3,39999,28,30000,46,20000,40,9999,0.100000,99,396,0.000000,1,0.000000,14.944110,0.550141,99,99,0,0,0,0,0
3,39999,29,30000,46,20000,49,9999,0.100000,99,396,0.000000,3,12.000000,12.475678,17.330860,99,99,0,0,0,0,0
3,39999,30,30000,46,20000,40,9999,0.100000,99,396,0.000000,3,1.000000,11.453221,5.255353,99,99,0,0,0,0,0
3,39999,31,30000,46,20000,40,9999,0.100000,99,396,0.000000,1,2.000000,21.362144,15.343138,99,99,0,0,0,0,0
3,39999,32,30000,46,20000,40,9999,0.100000,99,396,0.000000,2,0.000000,18.850308,0.881448,99,99,0,0,0,0,0
3,39999,33,30000,46,20000,40,9999,0.100000,99,396,0.000000,1,0.000000,28.177986,8.152156,99,99,0,0,0,0,0
3,39999,34,30000,46,20000,40,9999,0.100000,99,396,0.000000,1,0.000000,23.708724,0.591707,99,99,0,0,0,0,0
3,39999,35,30000,46,20000,0,9999,0.100000,99,396,0.000392,1,0.000000,21.645131,0.804728,99,99,0,0,0,1,0
3,39999,36,30000,46,20000,40,9999,0.100000,99,396,0.000000,2,1.000000,26.877324,1.589208,99,99,0,0,0,0,0
3,39999,37,30000,46,20000,0,9999,0.100000,99,396,0.418717,1,0.000000,27.395171,1.468449,99,99,0,1,0,0,0
3,39999,38,30000,46,20000,40,9999,0.100000,99,396,0.000000,2,0.000000,30.496492,9.741815,99,99,0,0,0,0,0
3,39999,39,30000,46,20000,40,9999,0.100000,99,396,0.000000,3,0.000000,27.852320,0.395994,99,99,0,0,0,0,0
3,39999,40,30000,46,20000,40,9999,0.100000,99,396,0.000000,2,0.000000,20.361622,0.476586,99,99,0,0,0,0,0
3,39999,41,30000,46,20000,0,9999,0.100000,99,396,9.796090,1,2.000000,29.476431,3.153817,99,99,0,0,1,0,0
3,39999,42,30000,46,20000,0,9999,0.100000,99,396,0.161105,3,0.000000,24.167696,0.097303,99,99,0,0,0,0,1
3,39999,43,30000,46,20000,41,9999,0.100000,99,396,0.000000,1,4.000000,19.011680,5.311794,99,99,0,0,0,0,0
3,39999,44,30000,46,20000,0,9999,0.100000,99,396,0.882676,2,0.000000,26.862925,0.227822,99,99,0,0,0,1,0
3,39999,45,30000,46,20000,42,9999,0.100000,99,396,0.000000,2,8.000000,28.012581,26.264190,99,99,0,0,0,0,0
3,39999,46,30000,76,20000,0,9999,0.100000,99,396,2.140565,1,0.000000,25.611476,0.456708,99,99,0,0,0,0,1
3,39999,47,30000,46,20000,40,9999,0.100000,99,396,0.000000,3,0.000000,22.933915,2.670151,99,99,0,0,0,0,0
3,39999,48,30000,46,20000,0,9999,0.100000,99,396,3.672751,1,0.000000,24.411433,1.794763,99,99,0,1,0,0,0
3,39999,49,30000,46,20000,1,9999,0.100000,99,396,0.165586,1,2.000000,17.755799,5.413281,99,99,0,1,0,0,0
3,39999,50,30000,46,20000,40,9999,0.100000,99,396,0.000000,1,0.000000,14.822471,0.698092,99,99,0,0,0,0,0
3,39999,51,30000,46,20000,0,9999,0.100000,99,396,0.418050,1,0.000000,24.996178,1.257055,99,99,0,0,1,0,0
3,39999,52,30000,46,20000,40,9999,0.100000,99,396,0.000000,3,0.000000,23.006225,0.513089,99,99,0,0,0,0,0
3,39999,53,30000,46,20000,40,9999,0.100000,99,396,0.000000,2,0.000000,30.772079,0.822121,99,99,0,0,0,0,0
3,39999,54,30000,46,20000,40,9999,0.100000,99,396,0.000000,1,0.000000,26.546190,0.334468,99,99,0,0,0,0,0
3,39999,55,30000,46,20000,40,9999,0.100000,99,396,0.000000,1,1.000000,12.597722,11.810981,99,99,0,0,0,0,0
3,39999,56,30000,46,20000,40,9999,0.100000,99,396,0.000000,2,0.000000,33.361769,7.024689,99,99,0,0,0,0,0
3,39999,57,30000,46,20000,40,9999,0.100000,99,396,0.000000,1,1.000000,32.264975,9.803405,99,99,0,0,0,0,0
3,39999,58,30000,46,20000,40,9999,0.100000,99,396,0.000000,1,1.000000,20.827397,2.351730,99,99,0,0,0,0,0
3,39999,59,30000,46,20000,40,9999,0.100000,99,396,0.000000,3,1.000000,12.362228,8.393543,99,99,0,0,0,0,0
3,39999,60,30000,46,20000,40,9999,0.100000,99,396,0.000000,2,0.000000,32.149054,7.618446,99,99,0,0,0,0,0
3,39999,61,30000,46,20000,40,9999,0.100000,99,396,0.000000,2,0.000000,24.781441,3.455677,99,99,0,0,0,0,0
3,39999,62,30000,46,20000,41,9999,0.065000,99,396,0.000000,3,2.000000,12.429390,7.874697,99,99,0,0,0,0,0
3,39999,63,30000,46,20000,40,9999,0.100000,99,396,0.000000,1,0.000000,22.647639,0.098688,99,99,0,0,0,0,0
3,39999,64,30000,46,20000,48,9999,0.100000,99,396,0.000000,3,11.000000,12.260292,15.371012,99,99,0,0,0,0,0
3,39999,65,30000,46,20000,40,9999,0.100000,99,396,0.000000,2,0.000000,17.518251,0.101778,99,99,0,0,0,0,0
3,39999,66,30000,46,20000,40,9999,0.100000,99,396,0.000000,1,0.000000,32.316726,2.295162,99,99,0,0,0,0,0
3,39999,67,30000,46,20000,40,9999,0.100000,99,396,0.000000,1,1.000000,29.921922,4.726243,99,99,0,0,0,0,0
3,39999,68,30000,46,20000,40,9999,0.100000,99,396,0.000000,1,1.000000,29.181941,13.209056,99,99,0,0,0,0,0
3,39999,69,30000,46,20000,0,9999,0.100000,99,396,1.078603,3,0.000000,14.292213,0.383794,99,99,0,0,0,1,0
3,39999,70,30000,46,20000,0,9999,0.100000,99,396,0.037547,3,0.000000,23.510033,0.173716,99,99,0,0,1,0,0
3,39999,71,30000,46,20000,40,9999,0.100000,99,396,0.000000,1,0.000000,24.665124,1.858818,99,99,0,0,0,0,0
3,39999,72,30000,46,20000,42,9999,0.100000,99,396,0.000000,3,3.000000,13.706633,14.866364,99,99,0,0,0,0,0
3,39999,73,30000,46,20000,0,9999,0.100000,99,396,0.004914,2,0.000000,21.613059,0.199763,99,99,0,0,1,0,0
3,39999,74,30000,46,20000,40,9999,0.100000,99,396,0.000000,1,0.000000,28.015883,6.849830,99,99,0,0,0,0,0
3,39999,75,30000,46,20000,0,9999,0.100000,99,396,2.703760,2,0.000000,21.211288,0.719252,99,99,0,0,0,1,0
3,39999,76,30000,46,20000,0,9999,0.100000,99,396,1.451331,1,0.000000,25.296515,0.863704,99,99,0,0,1,0,0
3,39999,77,30000,46,20000,40,9999,0.100000,99,396,0.000000,1,0.000000,24.538068,1.332645,99,99,0,0,0,0,0
3,39999,78,30000,46,20000,40,9999,0.100000,99,396,0.000000,2,0.000000,24.912911,8.196375,99,99,0,0,0,0,0
3,39999,79,30000,46,20000,0,9999,0.100000,99,396,0.670712,1,0.000000,27.829776,0.276253,99,99,0,0,0,1,0
3,39999,80,30000,46,20000,41,9999,0.100000,99,396,0.000000,3,2.000000,13.870324,10.516724,99,99,0,0,0,0,0
3,39999,81,30000,46,20000,40,9999,0.100000,99,396,0.000000,1,1.000000,30.030993,1.988916,99,99,0,0,0,0,0
3,39999,82,30000,46,20000,40,9999,0.100000,99,396,0.000000,3,0.000000,24.211774,0.124221,99,99,0,0,0,0,0
3,39999,83,30000,46,20000,0,9999,0.100000,99,396,1.183598,1,0.000000,32.531351,0.536365,99,99,0,0,0,0,1
3,39999,84,30000,46,20000,43,9999,0.100000,99,396,0.000000,3,4.000000,12.630329,20.298103,99,99,0,0,0,0,0
3,39999,85,30000,46,20000,40,9999,0.100000,99,396,0.000000,2,0.000000,30.388492,9.637263,99,99,0,0,0,0,0
3,39999,86,30000,46,20000,40,9999,0.135000,99,396,0.000000,1,0.000000,25.023503,0.669976,99,99,0,0,0,0,0
3,39999,87,30000,46,20000,40,9999,0.100000,99,396,0.000000,1,0.000000,27.280755,1.394775,99,99,0,0,0,0,0
3,39999,88,30000,46,20000,40,9999,0.100000,99,396,0.000000,2,0.000000,33.160512,7.144828,99,99,0,0,0,0,0
3,39999,89,30000,46,20000,40,9999,0.100000,99,396,0.000000,1,0.000000,32.241912,1.920961,99,99,0,0,0,0,0
3,39999,90,30000,46,20000,40,9999,0.100000,99,396,0.000000,1,0.000000,23.729482,4.264840,99,99,0,0,0,0,0
3,39999,91,30000,46,20000,40,9999,0.100000,99,396,0.000000,2,0.000000,32.133312,1.093006,99,99,0,0,0,0,0
3,39999,92,30000,46,20000,41,9999,0.100000,99,396,0.000000,1,2.000000,17.770030,3.222832,99,99,0,0,0,0,0
3,39999,93,30000,46,20000,40,9999,0.100000,99,396,0.000000,2,0.000000,24.989518,1.490747,99,99,0,0,0,0,0
3,39999,94,30000,46,20000,40,9999,0.100000,99,396,0.000000,1,0.000000,26.655199,0.315114,99,99,0,0,0,0,0
3,39999,95,30000,46,20000,41,9999,0.100000,99,396,0.000000,2,4.000000,30.021869,15.316051,99,99,0,0,0,0,0
3,39999,96,30000,46,20000,40,9999,0.100000,99,396,0.000000,1,0.000000,32.840407,0.246969,99,99,0,0,0,0,0
3,39999,97,30000,46,20000,40,9999,0.100000,99,396,0.000000,1,1.000000,20.906628,1.819371,99,99,0,0,0,0,0
3,39999,98,30000,46,20000,40,9999,0.100000,99,396,0.000000,2,0.000000,29.046273,0.334435,99,99,0,0,0,0,0
3,39999,99,30000,46,20000,40,9999,0.100000,99,396,0.000000,1,0.000000,23.719186,0.414230,99,99,0,0,0,0,0
4,49999,0,40000,41,30000,41,9999,0.100000,99,495,0.000000,2,3.000000,26.697496,14.652311,99,99,0,0,0,0,0
4,49999,1,40000,41,30000,0,9999,0.100000,99,495,0.002553,2,0.000000,34.688891,1.569144,99,99,0,0,0,1,0
4,49999,2,40000,41,30000,40,9999,0.100000,99,495,0.000000,1,0.000000,31.883070,8.189681,99,99,0,0,0,0,0
4,49999,3,40000,41,30000,0,9999,0.100000,99,495,0.415731,2,0.000000,23.964286,0.117615,99,99,0,0,0,0,1
4,49999,4,40000,41,30000,40,9999,0.100000,99,495,0.000000,3,0.000000,12.394291,0.496105,99,99,0,0,0,0,0
4,49999,5,40000,41,30000,40,9999,0.100000,99,495,0.000000,3,1.000000,17.237286,2.779500,99,99,0,0,0,0,0
4,49999,6,40000,41,30000,40,9999,0.100000,99,495,0.000000,2,0.000000,32.621077,0.983741,99,99,0,0,0,0,0
4,49999,7,40000,41,30000,0,9999,0.100000,99,495,0.056131,1,0.000000,24.311439,0.104738,99,99,0,0,0,0,1
4,49999,8,40000,41,30000,0,9999,0.100000,99,495,0.009554,2,0.000000,22.201375,0.160650,99,99,0,0,0,0,1
4,49999,9,40000,41,30000,40,9999,0.100000,99,495,0.000000,1,1.000000,19.396151,1.646666,99,99,0,0,0,0,0
4,49999,10,40000,41,30000,40,9999,0.100000,99,495,0.000000,1,0.000000,25.000342,1.677732,99,99,0,0,0,0,0
4,49999,11,40000,41,30000,0,9999,0.100000,99,495,0.115632,1,0.000000,30.336480,0.090227,99,99,0,0,0,0,1
4,49999,12,40000,41,30000,40,9999,0.100000,99,495,0.000000,3,0.000000,12.896842,1.317448,99,99,0,0,0,0,0
4,49999,13,40000,41,30000,40,9999,0.100000,99,495,0.000000,1,0.000000,31.767517,8.695143,99,99,0,0,0,0,0
4,49999,14,40000,41,30000,40,9999,0.100000,99,495,0.000000,3,1.000000,11.118959,6.800486,99,99,0,0,0,0,0
4,49999,15,40000,41,30000,0,9999,0.100000,99,495,0.525978,1,0.000000,24.241982,0.428735,99,99,0,0,0,1,0
4,49999,16,40000,41,30000,40,9999,0.100000,99,495,0.000000,2,0.000000,17.249416,0.167007,99,99,0,0,0,0,0
4,49999,17,40000,41,30000,0,9999,0.100000,99,495,0.000323,3,0.000000,29.270528,0.109362,99,99,0,0,0,1,0
4,49999,18,40000,41,30000,0,9999,0.100000,99,495,0.443860,2,0.000000,27.600009,0.288142,99,99,0,0,1,0,0
4,49999,19,40000,41,30000,42,9999,0.100000,99,495,0.000000,1,7.000000,24.367035,9.172849,99,99,0,0,0,0,0
4,49999,20,40000,41,30000,0,9999,0.100000,99,495,0.006798,3,0.000000,18.004958,0.122227,99,99,0,0,0,1,0
4,49999,21,40000,41,30000,40,9999,0.100000,99,495,0.000000,4,0.000000,11.493657,0.171415,99,99,0,0,0,0,0
4,49999,22,40000,41,30000,0,9999,0.100000,99,495,0.916799,1,0.000000,16.621537,0.721835,99,99,0,0,0,0,1
4,49999,23,40000,41,30000,40,9999,0.100000,99,495,0.000000,3,0.000000,36.850188,0.120436,99,99,0,0,0,0,0
4,49999,24,40000,41,30000,40,9999,0.100000,99,495,0.000000,2,0.000000,22.493507,0.422866,99,99,0,0,0,0,0
4,49999,25,40000,41,30000,40,9999,0.100000,99,495,0.000000,2,0.000000,20.133361,10.498412,99,99,0,0,0,0,0
4,49999,26,40000,41,30000,40,9999,0.100000,99,495,0.000000,2,0.000000,28.419729,0.299094,99,99,0,0,0,0,0
4,49999,27,40000,41,30000,0,9999,0.100000,99,495,0.362729,2,0.000000,19.827357,1.192559,99,99,0,0,1,0,0
4,49999,28,40000,41,30000,40,9999,0.100000,99,495,0.000000,1,0.000000,15.381774,0.732364,99,99,0,0,0,0,0
4,49999,29,40000,41,30000,41,9999,0.100000,99,495,0.000000,4,3.000000,23.777369,14.726485,99,99,0,0,0,0,0
4,49999,30,40000,41,30000,41,9999,0.100000,99,495,0.000000,3,2.000000,12.611717,9.240717,99,99,0,0,0,0,0
4,49999,31,40000,41,30000,40,9999,0.100000,99,495,0.000000,1,1.000000,20.695288,9.849154,99,99,0,0,0,0,0
4,49999,32,40000,41,30000,40,9999,0.100000,99,495,0.000000,2,0.000000,19.499270,0.897360,99,99,0,0,0,0,0
4,49999,33,40000,41,30000,40,9999,0.100000,99,495,0.000000,1,0.000000,28.236691,7.620461,99,99,0,0,0,0,0
4,49999,34,40000,41,30000,40,9999,0.100000,99,495,0.000000,2,0.000000,24.083333,0.263762,99,99,0,0,0,0,0
4,49999,35,40000,41,30000,40,9999,0.100000,99,495,0.000000,1,0.000000,21.885701,0.406282,99,99,0,0,0,0,0
4,49999,36,40000,41,30000,1,9999,0.100000,99,495,0.064850,2,3.000000,26.734377,3.626571,99,99,0,1,0,0,0
4,49999,37,40000,41,30000,2,9999,0.100000,99,495,33.700768,1,6.000000,27.979665,6.844579,99,99,0,1,0,0,0
4,49999,38,40000,41,30000,40,9999,0.100000,99,495,0.000000,2,0.000000,30.981348,0.970114,99,99,0,0,0,0,0
4,49999,39,40000,41,30000,40,9999,0.100000,99,495,0.000000,3,0.000000,27.905396,0.336294,99,99,0,0,0,0,0
4,49999,40,40000,41,30000,40,9999,0.100000,99,495,0.000000,2,1.000000,20.227262,1.231296,99,99,0,0,0,0,0
4,49999,41,40000,12,30000,0,9999,0.100000,99,495,0.896293,1,0.000000,31.078529,1.380827,99,99,0,0,1,0,0
4,49999,42,40000,41,30000,0,9999,0.100000,99,495,0.376036,3,0.000000,24.192229,0.111778,99,99,0,0,0,0,1
4,49999,43,40000,41,30000,40,9999,0.100000,99,495,0.000000,2,0.000000,23.253569,1.154848,99,99,0,0,0,0,0
4,49999,44,40000,41,30000,0,9999,0.100000,99,495,0.895513,2,0.000000,26.724535,0.223716,99,99,0,0,0,1,0
4,49999,45,40000,41,30000,40,9999,0.100000,99,495,0.000000,3,0.000000,28.058654,8.428862,99,99,0,0,0,0,0
4,49999,46,40000,41,30000,0,9999,0.135000,99,495,1.578254,1,0.000000,25.757335,1.026903,99,99,0,0,0,0,1
4,49999,47,40000,41,30000,40,9999,0.100000,99,495,0.000000,3,0.000000,22.634408,0.763499,99,99,0,0,0,0,0
4,49999,48,40000,41,30000,6,9999,0.100000,99,495,70.014516,2,17.000000,24.728743,21.425868,99,99,0,1,0,0,0
4,49999,49,40000,41,30000,0,9999,0.100000,99,495,0.152327,2,0.000000,17.765411,0.211282,99,99,0,1,0,0,0
4,49999,50,40000,41,30000,40,9999,0.100000,99,495,0.000000,2,0.000000,15.262791,1.918234,99,99,0,0,0,0,0
4,49999,51,40000,41,30000,0,9999,0.100000,99,495,2.204735,2,0.000000,24.662436,1.050963,99,99,0,0,1,0,0
4,49999,52,40000,41,30000,40,9999,0.100000,99,495,0.000000,3,0.000000,23.128360,0.529434,99,99,0,0,0,0,0
4,49999,53,40000,41,30000,40,9999,0.100000,99,495,0.000000,2,2.000000,30.800934,4.335986,99,99,0,0,0,0,0
4,49999,54,40000,41,30000,42,9999,0.100000,99,495,0.000000,1,6.000000,26.421880,8.783261,99,99,0,0,0,0,0
4,49999,55,40000,41,30000,40,9999,0.100000,99,495,0.000000,1,0.000000,12.710608,1.538483,99,99,0,0,0,0,0
4,49999,56,40000,41,30000,40,9999,0.100000,99,495,0.000000,2,0.000000,33.769106,8.834793,99,99,0,0,0,0,0
4,49999,57,40000,41,30000,40,9999,0.100000,99,495,0.000000,1,0.000000,32.883268,7.463515,99,99,0,0,0,0,0
4,49999,58,40000,41,30000,40,9999,0.100000,99,495,0.000000,1,0.000000,19.953272,0.845644,99,99,0,0,0,0,0
4,49999,59,40000,41,30000,41,9999,0.100000,99,495,0.000000,3,2.000000,12.977623,5.736036,99,99,0,0,0,0,0
4,49999,60,40000,41,30000,40,9999,0.100000,99,495,0.000000,2,0.000000,32.514796,7.837705,99,99,0,0,0,0,0
4,49999,61,40000,41,30000,40,9999,0.100000,99,495,0.000000,2,1.000000,24.674344,3.943041,99,99,0,0,0,0,0
4,49999,62,40000,41,30000,40,9999,0.100000,99,495,0.000000,3,0.000000,13.608825,1.276612,99,99,0,0,0,0,0
4,49999,63,40000,41,30000,40,9999,0.100000,99,495,0.000000,1,0.000000,22.592261,0.206527,99,99,0,0,0,0,0
4,49999,64,40000,41,30000,41,9999,0.100000,99,495,0.000000,4,3.000000,23.691524,14.716592,99,99,0,0,0,0,0
4,49999,65,40000,41,30000,40,9999,0.100000,99,495,0.000000,2,0.000000,17.518611,0.100383,99,99,0,0,0,0,0
4,49999,66,40000,41,30000,40,9999,0.100000,99,495,0.000000,1,0.000000,32.467210,1.421309,99,99,0,0,0,0,0
4,49999,67,40000,41,30000,40,9999,0.100000,99,495,0.000000,1,0.000000,30.933334,0.899425,99,99,0,0,0,0,0
4,49999,68,40000,41,30000,40,9999,0.100000,99,495,0.000000,1,0.000000,29.066693,0.116349,99,99,0,0,0,0,0
4,49999,69,40000,41,30000,0,9999,0.100000,99,495,0.124895,3,0.000000,14.589128,0.290444,99,99,0,0,0,1,0
4,49999,70,40000,41,30000,0,9999,0.100000,99,495,0.027410,3,0.000000,23.517272,0.169784,99,99,0,0,1,0,0
4,49999,71,40000,41,30000,40,9999,0.100000,99,495,0.000000,1,0.000000,24.493664,0.332066,99,99,0,0,0,0,0
4,49999,72,40000,41,30000,0,9999,0.100000,99,495,2.075433,3,0.000000,13.282221,0.914417,99,99,0,0,1,0,0
4,49999,73,40000,41,30000,0,9999,0.100000,99,495,0.042665,2,0.000000,21.599140,0.206858,99,99,0,0,1,0,0
4,49999,74,40000,41,30000,40,9999,0.100000,99,495,0.000000,1,0.000000,28.007928,6.795854,99,99,0,0,0,0,0
4,49999,75,40000,41,30000,0,9999,0.100000,99,495,0.091054,2,0.000000,21.510106,0.112157,99,99,0,0,0,1,0
4,49999,76,40000,41,30000,40,9999,0.100000,99,495,0.000000,1,0.000000,24.904749,1.216603,99,99,0,0,0,0,0
4,49999,77,40000,41,30000,40,9999,0.100000,99,495,0.000000,1,0.000000,24.118764,0.127968,99,99,0,0,0,0,0
4,49999,78,40000,41,30000,6,9999,0.100000,99,495,69.853281,2,17.000000,24.584068,22.540612,99,99,0,1,0,0,0
4,49999,79,40000,41,30000,0,9999,0.100000,99,495,0.547412,1,0.000000,27.788843,0.168061,99,99,0,0,0,1,0
4,49999,80,40000,41,30000,40,9999,0.100000,99,495,0.000000,4,0.000000,13.112012,1.217144,99,99,0,0,0,0,0
4,49999,81,40000,41,30000,40,9999,0.100000,99,495,0.000000,1,0.000000,30.780415,0.619320,99,99,0,0,0,0,0
4,49999,82,40000,41,30000,0,9999,0.100000,99,495,0.362632,3,0.000000,24.243953,0.670357,99,99,0,0,1,0,0
4,49999,83,40000,41,30000,40,9999,0.100000,99,495,0.000000,2,0.000000,32.728828,0.451007,99,99,0,0,0,0,0
4,49999,84,40000,41,30000,40,9999,0.100000,99,495,0.000000,3,0.000000,16.486878,1.875122,99,99,0,0,0,0,0
4,49999,85,40000,41,30000,41,9999,0.100000,99,495,0.000000,2,4.000000,30.081056,10.520612,99,99,0,0,0,0,0
4,49999,86,40000,41,30000,40,9999,0.100000,99,495,0.000000,1,0.000000,25.206202,0.752936,99,99,0,0,0,0,0
4,49999,87,40000,41,30000,42,9999,0.100000,99,495,0.000000,1,6.000000,27.736402,6.798172,99,99,0,0,0,0,0
4,49999,88,40000,41,30000,40,9999,0.100000,99,495,0.000000,2,0.000000,33.611785,6.950126,99,99,0,0,0,0,0
4,49999,89,40000,41,30000,40,9999,0.100000,99,495,0.000000,1,0.000000,32.555180,1.952967,99,99,0,0,0,0,0
4,49999,90,40000,41,30000,40,9999,0.100000,99,495,0.000000,1,0.000000,23.978553,0.123839,99,99,0,0,0,0,0
4,49999,91,40000,41,30000,40,9999,0.100000,99,495,0.000000,2,0.000000,32.480619,0.752754,99,99,0,0,0,0,0
4,49999,92,40000,41,30000,40,9999,0.100000,99,495,0.000000,2,0.000000,15.279497,0.196328,99,99,0,0,0,0,0
4,49999,93,40000,41,30000,40,9999,0.100000,99,495,0.000000,2,0.000000,25.169176,1.865823,99,99,0,0,0,0,0
4,49999,94,40000,41,30000,40,9999,0.100000,99,495,0.000000,1,0.000000,26.525298,0.325739,99,99,0,0,0,0,0
4,49999,95,40000,41,30000,43,9999,0.100000,99,495,0.000000,2,11.000000,26.325273,20.089339,99,99,0,0,0,0,0
4,49999,96,40000,41,30000,0,9999,0.100000,99,495,0.528162,1,0.000000,32.988503,0.165185,99,99,0,0,0,0,1
4,49999,97,40000,41,30000,40,9999,0.100000,99,495,0.000000,1,0.000000,20.066697,1.094392,99,99,0,0,0,0,0
4,49999,98,40000,41,30000,40,9999,0.100000,99,495,0.000000,3,0.000000,28.870372,0.108982,99,99,0,0,0,0,0
4,49999,99,40000,41,30000,40,9999,0.100000,99,495,0.000000,1,0.000000,24.001053,0.139635,99,99,0,0,0,0,0
5,59999,0,50000,48,40000,40,9999,0.100000,99,594,0.000000,3,0.000000,27.766311,1.114412,99,99,0,0,0,0,0
5,59999,1,50000,48,40000,0,9999,0.100000,99,594,0.244109,2,0.000000,34.949045,0.136220,99,99,0,0,0,1,0
5,59999,2,50000,48,40000,40,9999,0.100000,99,594,0.000000,1,1.000000,31.504688,10.814372,99,99,0,0,0,0,0
5,59999,3,50000,48,40000,0,9999,0.100000,99,594,0.400487,2,0.000000,24.024855,0.112435,99,99,0,0,0,0,1
5,59999,4,50000,48,40000,40,9999,0.100000,99,594,0.000000,3,0.000000,12.652118,0.646602,99,99,0,0,0,0,0
5,59999,5,50000,48,40000,1,9999,0.100000,99,594,0.341440,3,3.000000,15.519572,4.853295,99,99,0,0,0,0,1
5,59999,6,50000,48,40000,0,9999,0.100000,99,594,0.511172,2,0.000000,32.749859,1.569370,99,99,0,0,0,0,1
5,59999,7,50000,48,40000,0,9999,0.100000,99,594,0.089724,1,0.000000,24.308530,0.104124,99,99,0,0,0,0,1
5,59999,8,50000,48,40000,0,9999,0.065000,99,594,0.060385,2,0.000000,22.119135,0.103213,99,99,0,0,0,0,1
5,59999,9,50000,48,40000,0,9999,0.100000,99,594,0.366984,2,0.000000,18.333170,0.511317,99,99,0,0,0,0,1
5,59999,10,50000,48,40000,40,9999,0.100000,99,594,0.000000,1,0.000000,24.545708,1.579361,99,99,0,0,0,0,0
5,59999,11,50000,48,40000,0,9999,0.100000,99,594,1.053835,1,0.000000,30.343249,0.348711,99,99,0,0,0,0,1
5,59999,12,50000,48,40000,40,9999,0.100000,99,594,0.000000,3,0.000000,13.327733,0.552265,99,99,0,0,0,0,0
5,59999,13,50000,48,40000,40,9999,0.100000,99,594,0.000000,1,1.000000,31.635790,9.026945,99,99,0,0,0,0,0
5,59999,14,50000,48,40000,40,9999,0.100000,99,594,0.000000,3,0.000000,12.564265,0.908697,99,99,0,0,0,0,0
5,59999,15,50000,48,40000,40,9999,0.100000,99,594,0.000000,1,0.000000,24.272819,1.037271,99,99,0,0,0,0,0
5,59999,16,50000,48,40000,40,9999,0.100000,99,594,0.000000,2,0.000000,17.250049,0.170522,99,99,0,0,0,0,0
5,59999,17,50000,48,40000,0,9999,0.100000,99,594,0.000528,3,0.000000,29.271321,0.107494,99,99,0,0,0,1,0
5,59999,18,50000,48,40000,0,9999,0.100000,99,594,0.116515,2,0.000000,27.681626,2.576563,99,99,0,0,1,0,0
5,59999,19,50000,48,40000,40,9999,0.100000,99,594,0.000000,2,0.000000,25.660080,0.879215,99,99,0,0,0,0,0
5,59999,20,50000,48,40000,0,9999,0.100000,99,594,0.005676,3,0.000000,18.005413,0.124257,99,99,0,0,0,1,0
5,59999,21,50000,48,40000,40,9999,0.065000,99,594,0.000000,4,0.000000,11.496241,0.172980,99,99,0,0,0,0,0
5,59999,22,50000,48,40000,41,9999,0.100000,99,594,0.000000,1,2.000000,16.474596,7.007964,99,99,0,0,0,0,0
5,59999,23,50000,48,40000,40,9999,0.100000,99,594,0.000000,3,0.000000,36.852118,0.118624,99,99,0,0,0,0,0
5,59999,24,50000,48,40000,40,9999,0.100000,99,594,0.000000,2,0.000000,22.371295,0.575986,99,99,0,0,0,0,0
5,59999,25,50000,48,40000,0,9999,0.100000,99,594,4.523143,2,1.000000,20.270280,8.098372,99,99,0,0,1,0,0
5,59999,26,50000,48,40000,40,9999,0.100000,99,594,0.000000,2,1.000000,28.387692,2.411085,99,99,0,0,0,0,0
5,59999,27,50000,48,40000,40,9999,0.100000,99,594,0.000000,2,1.000000,19.901261,1.612991,99,99,0,0,0,0,0
5,59999,28,50000,48,40000,40,9999,0.100000,99,594,0.000000,1,0.000000,15.561063,2.642214,99,99,0,0,0,0,0
5,59999,29,50000,48,40000,42,9999,0.100000,99,594,0.000000,5,5.000000,21.093033,19.172599,99,99,0,0,0,0,0
5,59999,30,50000,48,40000,40,9999,0.100000,99,594,0.000000,4,0.000000,13.063818,2.495081,99,99,0,0,0,0,0
5,59999,31,50000,48,40000,40,9999,0.100000,99,594,0.000000,1,0.000000,20.740690,11.941526,99,99,0,0,0,0,0
5,59999,32,50000,48,40000,41,9999,0.100000,99,594,0.000000,2,4.000000,20.146411,12.910220,99,99,0,0,0,0,0
5,59999,33,50000,48,40000,40,9999,0.100000,99,594,0.000000,1,1.000000,28.254951,8.090664,99,99,0,0,0,0,0
5,59999,34,50000,48,40000,40,9999,0.100000,99,594,0.000000,2,0.000000,24.151398,0.284706,99,99,0,0,0,0,0
5,59999,35,50000,48,40000,40,9999,0.100000,99,594,0.000000,2,0.000000,21.735757,0.283968,99,99,0,0,0,0,0
5,59999,36,50000,48,40000,0,9999,0.100000,99,594,4.702610,3,0.000000,26.670720,4.097546,99,99,0,1,0,0,0
5,59999,37,50000,48,40000,0,9999,0.100000,99,594,0.726253,2,0.000000,30.651275,0.799848,99,99,0,1,0,0,0
5,59999,38,50000,48,40000,40,9999,0.100000,99,594,0.000000,2,0.000000,31.236135,0.958077,99,99,0,0,0,0,0
5,59999,39,50000,48,40000,40,9999,0.100000,99,594,0.000000,3,0.000000,27.982766,0.358302,99,99,0,0,0,0,0
5,59999,40,50000,48,40000,40,9999,0.100000,99,594,0.000000,2,0.000000,19.288682,0.374001,99,99,0,0,0,0,0
5,59999,41,50000,48,40000,0,9999,0.100000,99,594,1.110738,1,0.000000,31.010643,1.592444,99,99,0,0,1,0,0
5,59999,42,50000,48,40000,0,9999,0.100000,99,594,0.249205,3,0.000000,24.246847,0.098975,99,99,0,0,0,0,1
5,59999,43,50000,48,40000,40,9999,0.100000,99,594,0.000000,2,0.000000,23.255308,0.701690,99,99,0,0,0,0,0
5,59999,44,50000,48,40000,0,9999,0.100000,99,594,0.530344,2,0.000000,26.596621,0.160560,99,99,0,0,0,1,0
5,59999,45,50000,48,40000,40,9999,0.100000,99,594,0.000000,3,1.000000,27.994032,3.190399,99,99,0,0,0,0,0
5,59999,46,50000,48,40000,40,9999,0.100000,99,594,0.000000,1,0.000000,25.711442,0.713502,99,99,0,0,0,0,0
5,59999,47,50000,48,40000,40,9999,0.100000,99,594,0.000000,3,0.000000,22.510578,0.891423,99,99,0,0,0,0,0
5,59999,48,50000,78,40000,40,9999,0.100000,99,594,0.000000,3,0.000000,33.250682,8.469771,99,99,0,0,0,0,0
5,59999,49,50000,48,40000,0,9999,0.100000,99,594,0.158887,2,0.000000,17.773786,0.195079,99,99,0,1,0,0,0
5,59999,50,50000,48,40000,40,9999,0.100000,99,594,0.000000,2,0.000000,15.389615,1.477118,99,99,0,0,0,0,0
5,59999,51,50000,48,40000,0,9999,0.100000,99,594,0.010497,2,0.000000,25.435723,2.382663,99,99,0,0,1,0,0
5,59999,52,50000,48,40000,40,9999,0.100000,99,594,0.000000,3,2.000000,23.189456,7.403358,99,99,0,0,0,0,0
5,59999,53,50000,48,40000,42,9999,0.100000,99,594,0.000000,2,7.000000,32.025994,21.484860,99,99,0,0,0,0,0
5,59999,54,50000,48,40000,40,9999,0.100000,99,594,0.000000,2,1.000000,32.990073,2.417509,99,99,0,0,0,0,0
5,59999,55,50000,48,40000,40,9999,0.100000,99,594,0.000000,1,0.000000,13.251662,0.887880,99,99,0,0,0,0,0
5,59999,56,50000,48,40000,40,9999,0.100000,99,594,0.000000,2,0.000000,34.264721,8.713882,99,99,0,0,0,0,0
5,59999,57,50000,48,40000,40,9999,0.100000,99,594,0.000000,1,0.000000,32.957479,7.236182,99,99,0,0,0,0,0
5,59999,58,50000,48,40000,41,9999,0.100000,99,594,0.000000,1,3.000000,19.948293,6.641922,99,99,0,0,0,0,0
5,59999,59,50000,48,40000,40,9999,0.100000,99,594,0.000000,4,0.000000,11.452265,0.988492,99,99,0,0,0,0,0
5,59999,60,50000,48,40000,40,9999,0.100000,99,594,0.000000,2,1.000000,32.594575,9.791936,99,99,0,0,0,0,0
5,59999,61,50000,48,40000,40,9999,0.100000,99,594,0.000000,2,0.000000,25.610336,1.621977,99,99,0,0,0,0,0
5,59999,62,50000,48,40000,40,9999,0.100000,99,594,0.000000,3,0.000000,13.656404,0.968999,99,99,0,0,0,0,0
5,59999,63,50000,48,40000,40,9999,0.100000,99,594,0.000000,1,0.000000,22.466235,0.094449,99,99,0,0,0,0,0
5,59999,64,50000,48,40000,42,9999,0.100000,99,594,0.000000,5,5.000000,21.002540,19.219893,99,99,0,0,0,0,0
5,59999,65,50000,48,40000,40,9999,0.100000,99,594,0.000000,2,0.000000,17.519165,0.101458,99,99,0,0,0,0,0
5,59999,66,50000,48,40000,40,9999,0.100000,99,594,0.000000,1,0.000000,32.623816,1.561849,99,99,0,0,0,0,0
5,59999,67,50000,48,40000,40,9999,0.100000,99,594,0.000000,1,0.000000,30.956302,1.622483,99,99,0,0,0,0,0
5,59999,68,50000,48,40000,40,9999,0.100000,99,594,0.000000,1,0.000000,29.066783,0.117426,99,99,0,0,0,0,0
5,59999,69,50000,48,40000,40,9999,0.100000,99,594,0.000000,3,0.000000,14.701134,0.708914,99,99,0,0,0,0,0
5,59999,70,50000,48,40000,0,9999,0.100000,99,594,0.027949,3,0.000000,23.522483,0.168679,99,99,0,0,1,0,0
5,59999,71,50000,48,40000,0,9999,0.100000,99,594,1.535992,1,0.000000,24.529944,0.597920,99,99,0,0,0,1,0
5,59999,72,50000,48,40000,42,9999,0.100000,99,594,0.000000,4,3.000000,14.002407,8.631290,99,99,0,0,0,0,0
5,59999,73,50000,48,40000,0,9999,0.100000,99,594,0.086608,2,0.000000,21.624944,0.226131,99,99,0,0,1,0,0
5,59999,74,50000,48,40000,40,9999,0.100000,99,594,0.000000,1,1.000000,28.019605,2.942637,99,99,0,0,0,0,0
5,59999,75,50000,48,40000,0,9999,0.100000,99,594,0.939686,2,0.000000,21.514389,0.243161,99,99,0,0,0,1,0
5,59999,76,50000,48,40000,40,9999,0.100000,99,594,0.000000,2,0.000000,24.498371,1.146356,99,99,0,0,0,0,0
5,59999,77,50000,48,40000,40,9999,0.100000,99,594,0.000000,1,0.000000,24.117222,0.121623,99,99,0,0,0,0,0
5,59999,78,50000,48,40000,42,9999,0.100000,99,594,0.000000,3,8.000000,33.494629,41.891903,99,99,0,0,0,0,0
5,59999,79,50000,48,40000,0,9999,0.100000,99,594,0.286628,1,0.000000,27.734972,0.155018,99,99,0,0,0,1,0
5,59999,80,50000,48,40000,0,9999,0.100000,99,594,1.374147,4,0.000000,13.696477,0.567094,99,99,0,0,1,0,0
5,59999,81,50000,48,40000,40,9999,0.100000,99,594,0.000000,1,0.000000,30.911159,1.365982,99,99,0,0,0,0,0
5,59999,82,50000,48,40000,0,9999,0.100000,99,594,0.307869,4,0.000000,24.129461,0.199925,99,99,0,0,1,0,0
5,59999,83,50000,48,40000,40,9999,0.100000,99,594,0.000000,2,0.000000,32.856453,0.464996,99,99,0,0,0,0,0
5,59999,84,50000,48,40000,41,9999,0.100000,99,594,0.000000,3,2.000000,16.183855,4.442960,99,99,0,0,0,0,0
5,59999,85,50000,48,40000,45,9999,0.100000,99,594,0.000000,3,16.000000,27.906905,17.999807,99,99,0,0,0,0,0
5,59999,86,50000,48,40000,40,9999,0.100000,99,594,0.000000,1,0.000000,25.203385,1.184263,99,99,0,0,0,0,0
5,59999,87,50000,48,40000,40,9999,0.100000,99,594,0.000000,2,0.000000,30.452019,0.667463,99,99,0,0,0,0,0
5,59999,88,50000,48,40000,40,9999,0.100000,99,594,0.000000,2,0.000000,33.962383,8.277256,99,99,0,0,0,0,0
5,59999,89,50000,48,40000,40,9999,0.100000,99,594,0.000000,1,0.000000,32.690116,1.615341,99,99,0,0,0,0,0
5,59999,90,50000,48,40000,40,9999,0.100000,99,594,0.000000,1,0.000000,24.042236,0.123111,99,99,0,0,0,0,0
5,59999,91,50000,48,40000,40,9999,0.100000,99,594,0.000000,2,0.000000,32.621398,1.320909,99,99,0,0,0,0,0
5,59999,92,50000,48,40000,40,9999,0.100000,99,594,0.000000,2,0.000000,15.315080,0.216078,99,99,0,0,0,0,0
5,59999,93,50000,48,40000,40,9999,0.100000,99,594,0.000000,2,0.000000,25.138601,2.131912,99,99,0,0,0,0,0
5,59999,94,50000,48,40000,40,9999,0.100000,99,594,0.000000,1,0.000000,26.394044,0.230256,99,99,0,0,0,0,0
5,59999,95,50000,48,40000,44,9999,0.100000,99,594,0.000000,3,8.000000,15.393862,13.628450,99,99,0,0,0,0,0
5,59999,96,50000,48,40000,40,9999,0.100000,99,594,0.000000,2,0.000000,33.101082,0.238842,99,99,0,0,0,0,0
5,59999,97,50000,48,40000,40,9999,0.100000,99,594,0.000000,1,1.000000,20.461113,2.606388,99,99,0,0,0,0,0
5,59999,98,50000,48,40000,40,9999,0.100000,99,594,0.000000,3,0.000000,28.869869,0.103450,99,99,0,0,0,0,0
5,59999,99,50000,48,40000,40,9999,0.100000,99,594,0.000000,1,0.000000,24.065697,0.139625,99,99,0,0,0,0,0
6,69999,0,60000,36,50000,40,9999,0.100000,99,693,0.000000,4,0.000000,26.926095,1.043532,99,99,0,0,0,0,0
6,69999,1,60000,36,50000,0,9999,0.100000,99,693,1.250335,2,0.000000,34.994050,0.296528,99,99,0,0,0,1,0
6,69999,2,60000,36,50000,40,9999,0.100000,99,693,0.000000,1,0.000000,31.409391,6.742399,99,99,0,0,0,0,0
6,69999,3,60000,36,50000,0,9999,0.100000,99,693,0.400631,2,0.000000,24.082039,0.117620,99,99,0,0,0,0,1
6,69999,4,60000,36,50000,40,9999,0.100000,99,693,0.000000,3,0.000000,13.124362,0.664701,99,99,0,0,0,0,0
6,69999,5,60000,36,50000,0,9999,0.100000,99,693,1.391232,4,0.000000,15.016501,0.282901,99,99,0,0,0,0,1
6,69999,6,60000,36,50000,0,9999,0.100000,99,693,1.211898,2,0.000000,33.174775,0.728415,99,99,0,0,0,0,1
6,69999,7,60000,36,50000,0,9999,0.100000,99,693,0.143276,1,0.000000,24.308029,0.117485,99,99,0,0,0,0,1
6,69999,8,60000,36,50000,40,9999,0.100000,99,693,0.000000,2,0.000000,22.073119,0.143402,99,99,0,0,0,0,0
6,69999,9,60000,36,50000,0,9999,0.100000,99,693,0.336099,2,0.000000,18.316891,0.182850,99,99,0,0,0,0,1
6,69999,10,60000,36,50000,40,9999,0.100000,99,693,0.000000,1,0.000000,24.164935,2.809889,99,99,0,0,0,0,0
6,69999,11,60000,36,50000,0,9999,0.100000,99,693,0.699386,1,0.000000,30.393386,0.179777,99,99,0,0,0,0,1
6,69999,12,60000,36,50000,40,9999,0.100000,99,693,0.000000,3,0.000000,13.585208,4.023318,99,99,0,0,0,0,0
6,69999,13,60000,36,50000,41,9999,0.100000,99,693,0.000000,1,5.000000,32.215567,12.478211,99,99,0,0,0,0,0
6,69999,14,60000,36,50000,40,9999,0.100000,99,693,0.000000,3,0.000000,13.026837,1.249113,99,99,0,0,0,0,0
6,69999,15,60000,36,50000,40,9999,0.100000,99,693,0.000000,2,0.000000,24.212700,1.726664,99,99,0,0,0,0,0
6,69999,16,60000,36,50000,40,9999,0.100000,99,693,0.000000,2,0.000000,17.251128,0.167036,99,99,0,0,0,0,0
6,69999,17,60000,36,50000,0,9999,0.100000,99,693,0.000274,3,0.000000,29.271796,0.104177,99,99,0,0,0,1,0
6,69999,18,60000,36,50000,0,9999,0.100000,99,693,0.007380,2,0.000000,27.351969,0.083374,99,99,0,0,1,0,0
6,69999,19,60000,36,50000,40,9999,0.100000,99,693,0.000000,2,0.000000,25.784576,0.624185,99,99,0,0,0,0,0
6,69999,20,60000,36,50000,0,9999,0.100000,99,693,0.003998,3,0.000000,18.006317,0.121717,99,99,0,0,0,1,0
6,69999,21,60000,36,50000,40,9999,0.100000,99,693,0.000000,4,0.000000,11.498545,0.169244,99,99,0,0,0,0,0
6,69999,22,60000,36,50000,40,9999,0.100000,99,693,0.000000,2,0.000000,14.204503,5.912380,99,99,0,0,0,0,0
6,69999,23,60000,36,50000,40,9999,0.100000,99,693,0.000000,3,0.000000,36.853929,0.118885,99,99,0,0,0,0,0
6,69999,24,60000,36,50000,0,9999,0.135000,99,693,0.012569,2,0.000000,22.328971,0.358403,99,99,0,0,0,0,1
6,69999,25,60000,36,50000,0,9999,0.100000,99,693,0.124610,2,0.000000,19.448386,0.599644,99,99,0,0,1,0,0
6,69999,26,60000,36,50000,40,9999,0.100000,99,693,0.000000,2,0.000000,28.225738,1.162780,99,99,0,0,0,0,0
6,69999,27,60000,36,50000,40,9999,0.100000,99,693,0.000000,2,0.000000,19.424054,0.699865,99,99,0,0,0,0,0
6,69999,28,60000,36,50000,0,9999,0.100000,99,693,0.040030,1,0.000000,15.666749,2.185478,99,99,0,0,0,1,0
6,69999,29,60000,36,50000,42,9999,0.100000,99,693,0.000000,5,5.000000,16.535476,10.054693,99,99,0,0,0,0,0
6,69999,30,60000,36,50000,0,9999,0.100000,99,693,0.909201,4,0.000000,13.370458,2.470167,99,99,0,0,1,0,0
6,69999,31,60000,36,50000,40,9999,0.100000,99,693,0.000000,1,0.000000,21.395191,0.634009,99,99,0,0,0,0,0
6,69999,32,60000,36,50000,42,9999,0.100000,99,693,0.000000,3,5.000000,16.084928,19.338010,99,99,0,0,0,0,0
6,69999,33,60000,36,50000,40,9999,0.100000,99,693,0.000000,1,0.000000,28.536217,7.526629,99,99,0,0,0,0,0
6,69999,34,60000,36,50000,40,9999,0.100000,99,693,0.000000,2,0.000000,24.219295,0.273133,99,99,0,0,0,0,0
6,69999,35,60000,36,50000,40,9999,0.100000,99,693,0.000000,2,0.000000,21.603861,0.681167,99,99,0,0,0,0,0
6,69999,36,60000,25,50000,0,9999,0.100000,99,693,2.170216,4,0.000000,26.322788,0.751660,99,99,0,1,0,0,0
6,69999,37,60000,36,50000,0,9999,0.100000,99,693,13.505094,2,3.000000,30.955462,8.012791,99,99,0,1,0,0,0
6,69999,38,60000,36,50000,40,9999,0.100000,99,693,0.000000,2,0.000000,31.505475,0.935837,99,99,0,0,0,0,0
6,69999,39,60000,36,50000,40,9999,0.100000,99,693,0.000000,3,0.000000,27.922915,0.144927,99,99,0,0,0,0,0
6,69999,40,60000,36,50000,40,9999,0.100000,99,693,0.000000,2,0.000000,19.125946,0.274886,99,99,0,0,0,0,0
6,69999,41,60000,36,50000,0,9999,0.100000,99,693,0.549260,1,1.000000,31.350626,2.039202,99,99,0,0,1,0,0
6,69999,42,60000,36,50000,0,9999,0.100000,99,693,0.068486,3,0.000000,24.282114,0.091769,99,99,0,0,0,0,1
6,69999,43,60000,36,50000,40,9999,0.100000,99,693,0.000000,2,0.000000,23.313027,0.401601,99,99,0,0,0,0,0
6,69999,44,60000,36,50000,0,9999,0.100000,99,693,0.987641,2,0.000000,26.523318,0.254774,99,99,0,0,0,1,0
6,69999,45,60000,36,50000,40,9999,0.100000,99,693,0.000000,3,0.000000,26.492733,0.819318,99,99,0,0,0,0,0
6,69999,46,60000,36,50000,40,9999,0.100000,99,693,0.000000,2,0.000000,25.810109,0.458185,99,99,0,0,0,0,0
6,69999,47,60000,36,50000,40,9999,0.100000,99,693,0.000000,3,0.000000,22.467766,2.519936,99,99,0,0,0,0,0
6,69999,48,60000,36,50000,42,9999,0.100000,99,693,0.000000,3,9.000000,33.197974,27.930990,99,99,0,0,0,0,0
6,69999,49,60000,36,50000,0,9999,0.100000,99,693,0.070925,2,0.000000,17.784651,0.209002,99,99,0,1,0,0,0
6,69999,50,60000,36,50000,40,9999,0.100000,99,693,0.000000,2,0.000000,15.604175,2.215086,99,99,0,0,0,0,0
6,69999,51,60000,36,50000,0,9999,0.100000,99,693,0.006189,2,0.000000,24.916614,0.122739,99,99,0,0,1,0,0
6,69999,52,60000,36,50000,40,9999,0.100000,99,693,0.000000,3,1.000000,23.516430,1.493721,99,99,0,0,0,0,0
6,69999,53,60000,36,50000,43,9999,0.100000,99,693,0.000000,3,9.000000,27.397842,12.708856,99,99,0,0,0,0,0
6,69999,54,60000,36,50000,42,9999,0.100000,99,693,0.000000,2,8.000000,34.848280,15.804131,99,99,0,0,0,0,0
6,69999,55,60000,36,50000,42,9999,0.100000,99,693,0.000000,1,3.000000,13.505271,8.410797,99,99,0,0,0,0,0
6,69999,56,60000,36,50000,40,9999,0.100000,99,693,0.000000,2,0.000000,34.111438,8.617156,99,99,0,0,0,0,0
6,69999,57,60000,36,50000,40,9999,0.100000,99,693,0.000000,1,0.000000,33.038519,7.920723,99,99,0,0,0,0,0
6,69999,58,60000,36,50000,40,9999,0.100000,99,693,0.000000,2,0.000000,18.598326,27.832082,99,99,0,0,0,0,0
6,69999,59,60000,36,50000,40,9999,0.100000,99,693,0.000000,4,0.000000,12.203657,1.003960,99,99,0,0,0,0,0
6,69999,60,60000,36,50000,40,9999,0.100000,99,693,0.000000,2,1.000000,31.499986,9.754814,99,99,0,0,0,0,0
6,69999,61,60000,36,50000,40,9999,0.100000,99,693,0.000000,2,0.000000,25.488741,0.155018,99,99,0,0,0,0,0
6,69999,62,60000,36,50000,40,9999,0.100000,99,693,0.000000,3,0.000000,13.671477,0.407880,99,99,0,0,0,0,0
6,69999,63,60000,36,50000,40,9999,0.100000,99,693,0.000000,1,0.000000,22.427495,0.257750,99,99,0,0,0,0,0
6,69999,64,60000,36,50000,42,9999,0.100000,99,693,0.000000,6,5.000000,16.434084,12.967593,99,99,0,0,0,0,0
6,69999,65,60000,36,50000,40,9999,0.100000,99,693,0.000000,2,0.000000,17.520175,0.098786,99,99,0,0,0,0,0
6,69999,66,60000,36,50000,41,9999,0.100000,99,693,0.000000,1,5.000000,32.856267,11.796132,99,99,0,0,0,0,0
6,69999,67,60000,36,50000,40,9999,0.100000,99,693,0.000000,1,0.000000,31.215791,1.643541,99,99,0,0,0,0,0
6,69999,68,60000,36,50000,40,9999,0.100000,99,693,0.000000,1,0.000000,29.066578,0.115848,99,99,0,0,0,0,0
6,69999,69,60000,36,50000,40,9999,0.100000,99,693,0.000000,3,0.000000,14.955596,0.841182,99,99,0,0,0,0,0
6,69999,70,60000,36,50000,0,9999,0.100000,99,693,0.029844,3,0.000000,23.527866,0.170282,99,99,0,0,1,0,0
6,69999,71,60000,36,50000,1,9999,0.100000,99,693,0.770348,2,3.000000,24.483009,11.916606,99,99,0,0,0,1,0
6,69999,72,60000,36,50000,40,9999,0.100000,99,693,0.000000,4,0.000000,11.033445,2.575306,99,99,0,0,0,0,0
6,69999,73,60000,36,50000,0,9999,0.100000,99,693,0.100587,2,0.000000,21.659499,0.235746,99,99,0,0,1,0,0
6,69999,74,60000,36,50000,40,9999,0.100000,99,693,0.000000,1,0.000000,26.602620,0.796943,99,99,0,0,0,0,0
6,69999,75,60000,36,50000,0,9999,0.100000,99,693,1.747492,2,0.000000,21.622875,0.266331,99,99,0,0,0,1,0
6,69999,76,60000,36,50000,40,9999,0.100000,99,693,0.000000,2,1.000000,24.141982,11.482398,99,99,0,0,0,0,0
6,69999,77,60000,36,50000,40,9999,0.100000,99,693,0.000000,1,0.000000,24.113857,0.124667,99,99,0,0,0,0,0
6,69999,78,60000,36,50000,42,9999,0.100000,99,693,0.000000,4,8.000000,33.316866,25.477782,99,99,0,0,0,0,0
6,69999,79,60000,36,50000,0,9999,0.100000,99,693,0.903139,1,0.000000,27.704120,0.222639,99,99,0,0,0,1,0
6,69999,80,60000,36,50000,40,9999,0.100000,99,693,0.000000,5,0.000000,13.938967,2.148500,99,99,0,0,0,0,0
6,69999,81,60000,36,50000,40,9999,0.100000,99,693,0.000000,1,0.000000,31.076322,1.487243,99,99,0,0,0,0,0
6,69999,82,60000,36,50000,0,9999,0.100000,99,693,0.127971,4,0.000000,24.223362,0.164529,99,99,0,0,1,0,0
6,69999,83,60000,36,50000,40,9999,0.100000,99,693,0.000000,2,1.000000,33.080206,8.231756,99,99,0,0,0,0,0
6,69999,84,60000,36,50000,40,9999,0.100000,99,693,0.000000,4,0.000000,14.342054,3.154176,99,99,0,0,0,0,0
6,69999,85,60000,36,50000,40,9999,0.100000,99,693,0.000000,4,0.000000,31.330911,0.140535,99,99,0,0,0,0,0
6,69999,86,60000,36,50000,40,9999,0.100000,99,693,0.000000,1,0.000000,25.162830,1.326097,99,99,0,0,0,0,0
6,69999,87,60000,36,50000,40,9999,0.100000,99,693,0.000000,2,3.000000,30.753314,6.717932,99,99,0,0,0,0,0
6,69999,88,60000,36,50000,40,9999,0.100000,99,693,0.000000,2,1.000000,33.693517,9.949971,99,99,0,0,0,0,0
6,69999,89,60000,36,50000,40,9999,0.100000,99,693,0.000000,1,0.000000,32.950125,1.160735,99,99,0,0,0,0,0
6,69999,90,60000,36,50000,40,9999,0.100000,99,693,0.000000,1,0.000000,24.103638,0.115632,99,99,0,0,0,0,0
6,69999,91,60000,36,50000,40,9999,0.100000,99,693,0.000000,2,0.000000,32.934834,0.914749,99,99,0,0,0,0,0
6,69999,92,60000,36,50000,40,9999,0.100000,99,693,0.000000,2,0.000000,15.355358,0.185119,99,99,0,0,0,0,0
6,69999,93,60000,36,50000,0,9999,0.100000,99,693,0.381377,2,0.000000,25.091083,1.202699,99,99,0,0,0,0,1
6,69999,94,60000,36,50000,40,9999,0.100000,99,693,0.000000,1,0.000000,26.324394,0.932712,99,99,0,0,0,0,0
6,69999,95,60000,36,50000,40,9999,0.100000,99,693,0.000000,4,0.000000,22.867606,11.190485,99,99,0,0,0,0,0
6,69999,96,60000,36,50000,40,9999,0.100000,99,693,0.000000,2,1.000000,33.284602,15.065183,99,99,0,0,0,0,0
6,69999,97,60000,36,50000,40,9999,0.100000,99,693,0.000000,1,0.000000,19.494200,0.310120,99,99,0,0,0,0,0
6,69999,98,60000,36,50000,40,9999,0.100000,99,693,0.000000,3,0.000000,28.869025,0.103370,99,99,0,0,0,0,0
6,69999,99,60000,36,50000,40,9999,0.100000,99,693,0.000000,1,0.000000,24.129065,0.138646,99,99,0,0,0,0,0
7,79999,0,70000,37,60000,40,9999,0.100000,99,792,0.000000,4,0.000000,26.137508,0.998125,99,99,0,0,0,0,0
7,79999,1,70000,37,60000,0,9999,0.100000,99,792,0.773427,2,0.000000,35.174423,0.281515,99,99,0,0,0,1,0
7,79999,2,70000,37,60000,40,9999,0.100000,99,792,0.000000,1,0.000000,31.392269,7.762902,99,99,0,0,0,0,0
7,79999,3,70000,37,60000,0,9999,0.100000,99,792,0.414279,2,0.000000,24.135573,0.111016,99,99,0,0,0,0,1
7,79999,4,70000,37,60000,40,9999,0.100000,99,792,0.000000,3,0.000000,13.506146,0.595743,99,99,0,0,0,0,0
7,79999,5,70000,37,60000,0,9999,0.100000,99,792,1.035412,4,0.000000,15.229192,0.233229,99,99,0,0,0,0,1
7,79999,6,70000,37,60000,40,9999,0.100000,99,792,0.000000,2,0.000000,33.480413,1.526732,99,99,0,0,0,0,0
7,79999,7,70000,37,60000,0,9999,0.100000,99,792,0.000938,1,0.000000,24.323970,0.105445,99,99,0,0,0,0,1
7,79999,8,70000,37,60000,0,9999,0.100000,99,792,0.016753,2,0.000000,21.985584,0.192817,99,99,0,0,0,0,1
7,79999,9,70000,37,60000,0,9999,0.100000,99,792,0.317297,2,0.000000,18.209447,0.160966,99,99,0,0,0,0,1
7,79999,10,70000,37,60000,0,9999,0.100000,99,792,2.343576,1,0.000000,23.741454,0.814677,99,99,0,0,1,0,0
7,79999,11,70000,37,60000,0,9999,0.100000,99,792,0.003202,1,0.000000,30.436892,0.063606,99,99,0,0,0,0,1
7,79999,12,70000,37,60000,40,9999,0.100000,99,792,0.000000,3,0.000000,13.960187,3.566282,99,99,0,0,0,0,0
7,79999,13,70000,37,60000,40,9999,0.100000,99,792,0.000000,2,1.000000,36.160890,5.505020,99,99,0,0,0,0,0
7,79999,14,70000,37,60000,40,9999,0.100000,99,792,0.000000,3,0.000000,13.461076,1.618689,99,99,0,0,0,0,0
7,79999,15,70000,37,60000,43,9999,0.100000,99,792,0.000000,2,10.000000,24.357194,11.534331,99,99,0,0,0,0,0
7,79999,16,70000,37,60000,0,9999,0.100000,99,792,0.035932,2,0.000000,17.252629,0.171592,99,99,0,0,0,1,0
7,79999,17,70000,37,60000,0,9999,0.100000,99,792,0.005287,3,0.000000,29.272023,0.100240,99,99,0,0,0,1,0
7,79999,18,70000,37,60000,0,9999,0.100000,99,792,0.011581,2,0.000000,27.348871,0.112426,99,99,0,0,1,0,0
7,79999,19,70000,37,60000,40,9999,0.100000,99,792,0.000000,2,0.000000,25.823456,0.386677,99,99,0,0,0,0,0
7,79999,20,70000,37,60000,40,9999,0.100000,99,792,0.000000,3,0.000000,18.007571,0.463686,99,99,0,0,0,0,0
7,79999,21,70000,37,60000,40,9999,0.100000,99,792,0.000000,4,0.000000,11.501763,0.178786,99,99,0,0,0,0,0
7,79999,22,70000,37,60000,40,9999,0.100000,99,792,0.000000,3,0.000000,14.630955,1.648840,99,99,0,0,0,0,0
7,79999,23,70000,37,60000,40,9999,0.100000,99,792,0.000000,3,0.000000,36.856107,0.148007,99,99,0,0,0,0,0
7,79999,24,70000,37,60000,40,9999,0.100000,99,792,0.000000,2,0.000000,22.233464,0.180231,99,99,0,0,0,0,0
7,79999,25,70000,37,60000,1,9999,0.100000,99,792,22.185326,2,4.000000,19.447515,4.667888,99,99,0,0,1,0,0
7,79999,26,70000,37,60000,0,9999,0.065000,99,792,0.015283,2,0.000000,27.977416,0.371222,99,99,0,0,1,0,0
7,79999,27,70000,37,60000,41,9999,0.100000,99,792,0.000000,2,4.000000,19.467705,4.878027,99,99,0,0,0,0,0
7,79999,28,70000,37,60000,40,9999,0.100000,99,792,0.000000,2,1.000000,16.033169,2.547585,99,99,0,0,0,0,0
7,79999,29,70000,37,60000,40,9999,0.100000,99,792,0.000000,5,0.000000,10.965012,2.053409,99,99,0,0,0,0,0
7,79999,30,70000,37,60000,0,9999,0.100000,99,792,0.614032,5,0.000000,14.165239,1.619037,99,99,0,0,1,0,0
7,79999,31,70000,37,60000,40,9999,0.100000,99,792,0.000000,1,0.000000,21.915880,0.591021,99,99,0,0,0,0,0
7,79999,32,70000,37,60000,40,9999,0.100000,99,792,0.000000,3,0.000000,12.956046,5.835695,99,99,0,0,0,0,0
7,79999,33,70000,37,60000,40,9999,0.100000,99,792,0.000000,1,0.000000,28.400569,6.758528,99,99,0,0,0,0,0
7,79999,34,70000,37,60000,40,9999,0.100000,99,792,0.000000,2,0.000000,24.291622,0.295681,99,99,0,0,0,0,0
7,79999,35,70000,37,60000,40,9999,0.100000,99,792,0.000000,2,0.000000,21.515009,0.976723,99,99,0,0,0,0,0
7,79999,36,70000,37,60000,1,9999,0.100000,99,792,11.593652,4,4.000000,25.845620,10.723969,99,99,0,1,0,0,0
7,79999,37,70000,36,60000,0,9999,0.100000,99,792,15.284531,2,3.000000,33.701241,5.887629,99,99,0,1,0,0,0
7,79999,38,70000,37,60000,40,9999,0.100000,99,792,0.000000,2,0.000000,31.785487,0.911772,99,99,0,0,0,0,0
7,79999,39,70000,37,60000,40,9999,0.100000,99,792,0.000000,3,0.000000,27.919015,0.146728,99,99,0,0,0,0,0
7,79999,40,70000,37,60000,40,9999,0.100000,99,792,0.000000,2,0.000000,19.013717,0.258618,99,99,0,0,0,0,0
7,79999,41,70000,37,60000,0,9999,0.100000,99,792,0.426686,1,0.000000,30.945840,1.372573,99,99,0,0,1,0,0
7,79999,42,70000,37,60000,0,9999,0.100000,99,792,0.131634,3,0.000000,24.292763,0.086668,99,99,0,0,0,0,1
7,79999,43,70000,37,60000,40,9999,0.100000,99,792,0.000000,2,0.000000,23.290954,0.353542,99,99,0,0,0,0,0
7,79999,44,70000,37,60000,0,9999,0.100000,99,792,0.078169,2,0.000000,26.374951,0.106084,99,99,0,0,0,1,0
7,79999,45,70000,37,60000,41,9999,0.100000,99,792,0.000000,3,5.000000,26.033924,17.383852,99,99,0,0,0,0,0
7,79999,46,70000,37,60000,40,9999,0.100000,99,792,0.000000,2,0.000000,25.871199,0.261442,99,99,0,0,0,0,0
7,79999,47,70000,37,60000,40,9999,0.100000,99,792,0.000000,3,0.000000,22.150374,0.585430,99,99,0,0,0,0,0
7,79999,48,70000,37,60000,40,9999,0.100000,99,792,0.000000,4,0.000000,33.340548,7.868816,99,99,0,0,0,0,0
7,79999,49,70000,37,60000,0,9999,0.100000,99,792,0.114376,2,0.000000,17.768456,0.232274,99,99,0,1,0,0,0
7,79999,50,70000,37,60000,40,9999,0.100000,99,792,0.000000,2,1.000000,15.905326,4.293952,99,99,0,0,0,0,0
7,79999,51,70000,37,60000,0,9999,0.100000,99,792,0.009961,2,0.000000,24.919579,0.126771,99,99,0,0,1,0,0
7,79999,52,70000,37,60000,40,9999,0.100000,99,792,0.000000,3,0.000000,23.667335,0.632196,99,99,0,0,0,0,0
7,79999,53,70000,37,60000,40,9999,0.100000,99,792,0.000000,3,3.000000,35.915223,9.657020,99,99,0,0,0,0,0
7,79999,54,70000,37,60000,40,9999,0.100000,99,792,0.000000,3,0.000000,26.063515,0.309286,99,99,0,0,0,0,0
7,79999,55,70000,37,60000,40,9999,0.100000,99,792,0.000000,2,1.000000,10.932784,4.946043,99,99,0,0,0,0,0
7,79999,56,70000,37,60000,40,9999,0.100000,99,792,0.000000,2,1.000000,33.968524,4.776746,99,99,0,0,0,0,0
7,79999,57,70000,37,60000,40,9999,0.100000,99,792,0.000000,1,0.000000,32.716799,7.298237,99,99,0,0,0,0,0
7,79999,58,70000,37,60000,40,9999,0.100000,99,792,0.000000,2,1.000000,19.021711,21.663664,99,99,0,0,0,0,0
7,79999,59,70000,37,60000,40,9999,0.100000,99,792,0.000000,4,0.000000,12.975641,1.006155,99,99,0,0,0,0,0
7,79999,60,70000,37,60000,40,9999,0.100000,99,792,0.000000,2,0.000000,31.912946,8.338753,99,99,0,0,0,0,0
7,79999,61,70000,37,60000,40,9999,0.100000,99,792,0.000000,2,0.000000,25.490271,0.152204,99,99,0,0,0,0,0
7,79999,62,70000,37,60000,40,9999,0.100000,99,792,0.000000,3,0.000000,13.685927,0.721272,99,99,0,0,0,0,0
7,79999,63,70000,37,60000,40,9999,0.100000,99,792,0.000000,1,0.000000,22.325189,0.167811,99,99,0,0,0,0,0
7,79999,64,70000,37,60000,40,9999,0.100000,99,792,0.000000,6,1.000000,10.996582,5.271654,99,99,0,0,0,0,0
7,79999,65,70000,37,60000,40,9999,0.100000,99,792,0.000000,2,0.000000,17.521440,0.112876,99,99,0,0,0,0,0
7,79999,66,70000,37,60000,40,9999,0.100000,99,792,0.000000,2,0.000000,33.221053,0.557254,99,99,0,0,0,0,0
7,79999,67,70000,37,60000,40,9999,0.100000,99,792,0.000000,1,0.000000,30.816707,0.986648,99,99,0,0,0,0,0
7,79999,68,70000,37,60000,40,9999,0.100000,99,792,0.000000,1,0.000000,29.066215,0.114031,99,99,0,0,0,0,0
7,79999,69,70000,37,60000,40,9999,0.100000,99,792,0.000000,3,1.000000,15.321468,3.522815,99,99,0,0,0,0,0
7,79999,70,70000,37,60000,0,9999,0.100000,99,792,0.022232,3,0.000000,23.533701,0.159491,99,99,0,0,1,0,0
7,79999,71,70000,37,60000,0,9999,0.100000,99,792,0.171353,3,0.000000,24.528061,0.437177,99,99,0,0,0,1,0
7,79999,72,70000,37,60000,40,9999,0.100000,99,792,0.000000,4,0.000000,11.101103,2.526387,99,99,0,0,0,0,0
7,79999,73,70000,37,60000,93,9999,0.100000,99,792,28.598390,2,7.000000,21.688500,14.415214,99,99,1,0,0,0,0
7,79999,74,70000,37,60000,41,9999,0.100000,99,792,0.000000,1,4.000000,26.114993,5.968504,99,99,0,0,0,0,0
7,79999,75,70000,37,60000,0,9999,0.100000,99,792,1.723944,2,0.000000,21.850652,0.279899,99,99,0,0,0,1,0
7,79999,76,70000,37,60000,40,9999,0.100000,99,792,0.000000,2,0.000000,23.672746,8.496478,99,99,0,0,0,0,0
7,79999,77,70000,37,60000,40,9999,0.100000,99,792,0.000000,1,0.000000,24.124611,0.111152,99,99,0,0,0,0,0
7,79999,78,70000,37,60000,40,9999,0.100000,99,792,0.000000,4,1.000000,33.568865,8.720953,99,99,0,0,0,0,0
7,79999,79,70000,37,60000,0,9999,0.100000,99,792,0.397807,1,0.000000,27.649311,0.195792,99,99,0,0,0,1,0
7,79999,80,70000,37,60000,40,9999,0.100000,99,792,0.000000,5,0.000000,14.021795,3.500941,99,99,0,0,0,0,0
7,79999,81,70000,37,60000,40,9999,0.100000,99,792,0.000000,1,0.000000,30.688855,0.979719,99,99,0,0,0,0,0
7,79999,82,70000,37,60000,0,9999,0.100000,99,792,0.168333,4,0.000000,24.210167,0.138177,99,99,0,0,1,0,0
7,79999,83,70000,37,60000,0,9999,0.100000,99,792,1.001077,2,0.000000,33.597561,0.625588,99,99,0,0,0,0,1
7,79999,84,70000,37,60000,40,9999,0.100000,99,792,0.000000,4,0.000000,14.752087,1.617581,99,99,0,0,0,0,0
7,79999,85,70000,37,60000,40,9999,0.100000,99,792,0.000000,4,0.000000,31.330440,0.143672,99,99,0,0,0,0,0
7,79999,86,70000,37,60000,0,9999,0.100000,99,792,0.115030,1,0.000000,25.164930,0.136910,99,99,0,0,0,0,1
7,79999,87,70000,37,60000,40,9999,0.100000,99,792,0.000000,2,3.000000,33.681449,4.915753,99,99,0,0,0,0,0
7,79999,88,70000,37,60000,40,9999,0.100000,99,792,0.000000,2,0.000000,32.954577,8.647160,99,99,0,0,0,0,0
7,79999,89,70000,37,60000,40,9999,0.100000,99,792,0.000000,1,0.000000,33.304651,2.168732,99,99,0,0,0,0,0
7,79999,90,70000,37,60000,40,9999,0.100000,99,792,0.000000,1,0.000000,24.162798,0.115376,99,99,0,0,0,0,0
7,79999,91,70000,37,60000,40,9999,0.100000,99,792,0.000000,2,0.000000,33.290094,0.709881,99,99,0,0,0,0,0
7,79999,92,70000,37,60000,40,9999,0.100000,99,792,0.000000,2,0.000000,15.369453,0.174663,99,99,0,0,0,0,0
7,79999,93,70000,37,60000,40,9999,0.100000,99,792,0.000000,3,0.000000,25.307789,0.136190,99,99,0,0,0,0,0
7,79999,94,70000,37,60000,40,9999,0.100000,99,792,0.000000,1,0.000000,26.114705,0.475138,99,99,0,0,0,0,0
7,79999,95,70000,37,60000,40,9999,0.100000,99,792,0.000000,4,0.000000,22.291906,0.722841,99,99,0,0,0,0,0
7,79999,96,70000,37,60000,40,9999,0.100000,99,792,0.000000,2,0.000000,33.523674,7.239030,99,99,0,0,0,0,0
7,79999,97,70000,37,60000,41,9999,0.100000,99,792,0.000000,1,4.000000,19.445916,4.375182,99,99,0,0,0,0,0
7,79999,98,70000,37,60000,40,9999,0.100000,99,792,0.000000,3,0.000000,28.867916,0.167026,99,99,0,0,0,0,0
7,79999,99,70000,37,60000,40,9999,0.100000,99,792,0.000000,1,0.000000,24.191730,0.141174,99,99,0,0,0,0,0
8,89999,0,80000,73,70000,40,9999,0.100000,99,891,0.000000,4,0.000000,25.380969,1.030376,99,99,0,0,0,0,0
8,89999,1,80000,73,70000,0,9999,0.100000,99,891,1.403532,2,0.000000,35.318433,0.950111,99,99,0,0,0,1,0
8,89999,2,80000,73,70000,40,9999,0.100000,99,891,0.000000,1,0.000000,31.525155,7.702140,99,99,0,0,0,0,0
8,89999,3,80000,73,70000,0,9999,0.100000,99,891,2.768130,2,0.000000,24.186867,0.471171,99,99,0,0,0,0,1
8,89999,4,80000,73,70000,40,9999,0.100000,99,891,0.000000,3,0.000000,13.274866,1.086516,99,99,0,0,0,0,0
8,89999,5,80000,73,70000,0,9999,0.100000,99,891,0.722579,4,0.000000,15.391554,0.245028,99,99,0,0,0,0,1
8,89999,6,80000,73,70000,40,9999,0.100000,99,891,0.000000,2,0.000000,33.827527,1.872653,99,99,0,0,0,0,0
8,89999,7,80000,73,70000,0,9999,0.100000,99,891,0.001295,1,0.000000,24.325132,0.105529,99,99,0,0,0,0,1
8,89999,8,80000,73,70000,40,9999,0.100000,99,891,0.000000,2,0.000000,21.829841,0.177235,99,99,0,0,0,0,0
8,89999,9,80000,73,70000,0,9999,0.100000,99,891,0.258244,2,0.000000,18.112938,0.138165,99,99,0,0,0,0,1
8,89999,10,80000,73,70000,0,9999,0.100000,99,891,3.023040,2,0.000000,24.235060,0.718246,99,99,0,0,1,0,0
8,89999,11,80000,73,70000,0,9999,0.100000,99,891,0.003395,1,0.000000,30.437222,0.063732,99,99,0,0,0,0,1
8,89999,12,80000,73,70000,40,9999,0.100000,99,891,0.000000,3,0.000000,13.951780,2.475218,99,99,0,0,0,0,0
8,89999,13,80000,73,70000,40,9999,0.100000,99,891,0.000000,2,1.000000,36.587612,4.959394,99,99,0,0,0,0,0
8,89999,14,80000,73,70000,40,9999,0.100000,99,891,0.000000,3,0.000000,13.332589,2.075566,99,99,0,0,0,0,0
8,89999,15,80000,73,70000,42,9999,0.100000,99,891,0.000000,3,10.000000,34.767185,23.841623,99,99,0,0,0,0,0
8,89999,16,80000,73,70000,40,9999,0.100000,99,891,0.000000,2,0.000000,17.262747,0.162252,99,99,0,0,0,0,0
8,89999,17,80000,73,70000,0,9999,0.100000,99,891,0.003592,3,0.000000,29.276936,0.093314,99,99,0,0,0,1,0
8,89999,18,80000,73,70000,0,9999,0.100000,99,891,0.013579,2,0.000000,27.349079,0.129293,99,99,0,0,1,0,0
8,89999,19,80000,73,70000,40,9999,0.100000,99,891,0.000000,2,0.000000,25.901592,0.433868,99,99,0,0,0,0,0
8,89999,20,80000,73,70000,0,9999,0.100000,99,891,0.004485,3,0.000000,18.022945,0.432618,99,99,0,0,0,1,0
8,89999,21,80000,73,70000,40,9999,0.100000,99,891,0.000000,4,0.000000,11.505160,0.179728,99,99,0,0,0,0,0
8,89999,22,80000,73,70000,40,9999,0.100000,99,891,0.000000,3,0.000000,15.002881,1.281362,99,99,0,0,0,0,0
8,89999,23,80000,73,70000,40,9999,0.100000,99,891,0.000000,3,0.000000,36.877374,0.134732,99,99,0,0,0,0,0
8,89999,24,80000,73,70000,0,9999,0.100000,99,891,0.008593,2,0.000000,22.093773,0.170885,99,99,0,0,0,0,1
8,89999,25,80000,73,70000,40,9999,0.100000,99,891,0.000000,3,0.000000,23.547102,0.881906,99,99,0,0,0,0,0
8,89999,26,80000,73,70000,0,9999,0.100000,99,891,0.155962,3,2.000000,28.096077,6.566987,99,99,0,1,0,0,0
8,89999,27,80000,73,70000,0,9999,0.100000,99,891,3.360801,3,0.000000,23.737613,1.091090,99,99,0,0,1,0,0
8,89999,28,80000,73,70000,40,9999,0.100000,99,891,0.000000,2,1.000000,15.502979,2.280787,99,99,0,0,0,0,0
8,89999,29,80000,73,70000,40,9999,0.100000,99,891,0.000000,5,0.000000,10.936377,2.387786,99,99,0,0,0,0,0
8,89999,30,80000,73,70000,0,9999,0.065000,99,891,1.380991,5,0.000000,14.308563,0.836667,99,99,0,0,1,0,0
8,89999,31,80000,73,70000,40,9999,0.100000,99,891,0.000000,1,0.000000,22.373696,0.370111,99,99,0,0,0,0,0
8,89999,32,80000,73,70000,40,9999,0.100000,99,891,0.000000,3,1.000000,12.907271,18.378819,99,99,0,0,0,0,0
8,89999,33,80000,73,70000,40,9999,0.100000,99,891,0.000000,1,0.000000,28.404867,6.868085,99,99,0,0,0,0,0
8,89999,34,80000,73,70000,40,9999,0.100000,99,891,0.000000,2,0.000000,24.373604,0.740739,99,99,0,0,0,0,0
8,89999,35,80000,73,70000,0,9999,0.100000,99,891,0.000130,2,0.000000,21.456179,0.975318,99,99,0,0,0,1,0
8,89999,36,80000,73,70000,40,9999,0.100000,99,891,0.000000,4,0.000000,28.463679,7.347260,99,99,0,0,0,0,0
8,89999,37,80000,73,70000,40,9999,0.100000,99,891,0.000000,2,0.000000,35.574305,3.862172,99,99,0,0,0,0,0
8,89999,38,80000,73,70000,40,9999,0.100000,99,891,0.000000,2,0.000000,32.071537,3.136492,99,99,0,0,0,0,0
8,89999,39,80000,73,70000,40,9999,0.100000,99,891,0.000000,3,0.000000,27.919205,0.142281,99,99,0,0,0,0,0
8,89999,40,80000,73,70000,40,9999,0.100000,99,891,0.000000,2,0.000000,18.913669,0.239164,99,99,0,0,0,0,0
8,89999,41,80000,73,70000,0,9999,0.100000,99,891,0.594876,1,0.000000,30.831779,1.314999,99,99,0,0,1,0,0
8,89999,42,80000,73,70000,0,9999,0.100000,99,891,0.134233,3,0.000000,24.309654,0.089124,99,99,0,0,0,0,1
8,89999,43,80000,73,70000,40,9999,0.100000,99,891,0.000000,2,0.000000,23.326205,0.343110,99,99,0,0,0,0,0
8,89999,44,80000,73,70000,0,9999,0.100000,99,891,0.003381,2,0.000000,26.369980,0.285499,99,99,0,0,0,1,0
8,89999,45,80000,73,70000,40,9999,0.100000,99,891,0.000000,4,1.000000,28.414615,7.680881,99,99,0,0,0,0,0
8,89999,46,80000,73,70000,40,9999,0.100000,99,891,0.000000,2,0.000000,25.943919,0.262608,99,99,0,0,0,0,0
8,89999,47,80000,73,70000,40,9999,0.100000,99,891,0.000000,3,0.000000,22.001733,0.457149,99,99,0,0,0,0,0
8,89999,48,80000,73,70000,40,9999,0.100000,99,891,0.000000,4,0.000000,33.473896,7.136055,99,99,0,0,0,0,0
8,89999,49,80000,73,70000,0,9999,0.100000,99,891,0.060896,2,0.000000,17.688711,0.206712,99,99,0,1,0,0,0
8,89999,50,80000,73,70000,40,9999,0.100000,99,891,0.000000,2,1.000000,15.353734,4.318437,99,99,0,0,0,0,0
8,89999,51,80000,73,70000,40,9999,0.100000,99,891,0.000000,2,0.000000,24.922146,0.129634,99,99,0,0,0,0,0
8,89999,52,80000,73,70000,40,9999,0.100000,99,891,0.000000,3,0.000000,23.876458,1.272330,99,99,0,0,0,0,0
8,89999,53,80000,73,70000,40,9999,0.100000,99,891,0.000000,3,0.000000,35.266130,1.018380,99,99,0,0,0,0,0
8,89999,54,80000,73,70000,40,9999,0.100000,99,891,0.000000,3,0.000000,26.069619,0.376083,99,99,0,0,0,0,0
8,89999,55,80000,73,70000,43,9999,0.100000,99,891,0.000000,2,4.000000,11.965810,5.920794,99,99,0,0,0,0,0
8,89999,56,80000,73,70000,40,9999,0.100000,99,891,0.000000,2,0.000000,34.672886,3.682449,99,99,0,0,0,0,0
8,89999,57,80000,73,70000,40,9999,0.100000,99,891,0.000000,1,3.000000,32.789632,11.270926,99,99,0,0,0,0,0
8,89999,58,80000,73,70000,40,9999,0.100000,99,891,0.000000,2,0.000000,18.093016,22.314352,99,99,0,0,0,0,0
8,89999,59,80000,73,70000,40,9999,0.100000,99,891,0.000000,4,0.000000,13.738626,1.003180,99,99,0,0,0,0,0
8,89999,60,80000,73,70000,40,9999,0.100000,99,891,0.000000,2,0.000000,31.782544,8.237849,99,99,0,0,0,0,0
8,89999,61,80000,73,70000,0,9999,0.100000,99,891,0.011565,2,0.000000,25.492437,0.151878,99,99,0,0,1,0,0
8,89999,62,80000,73,70000,40,9999,0.100000,99,891,0.000000,3,0.000000,13.455339,2.063324,99,99,0,0,0,0,0
8,89999,63,80000,73,70000,40,9999,0.100000,99,891,0.000000,1,0.000000,22.190839,0.167418,99,99,0,0,0,0,0
8,89999,64,80000,73,70000,40,9999,0.100000,99,891,0.000000,6,1.000000,11.929432,2.500670,99,99,0,0,0,0,0
8,89999,65,80000,73,70000,40,9999,0.100000,99,891,0.000000,2,0.000000,17.533486,0.104067,99,99,0,0,0,0,0
8,89999,66,80000,73,70000,40,9999,0.100000,99,891,0.000000,2,1.000000,33.547913,9.272460,99,99,0,0,0,0,0
8,89999,67,80000,73,70000,40,9999,0.100000,99,891,0.000000,1,0.000000,30.729035,0.943295,99,99,0,0,0,0,0
8,89999,68,80000,73,70000,40,9999,0.100000,99,891,0.000000,1,0.000000,29.070892,0.108531,99,99,0,0,0,0,0
8,89999,69,80000,73,70000,0,9999,0.100000,99,891,0.430899,3,0.000000,16.001270,0.429236,99,99,0,0,0,1,0
8,89999,70,80000,73,70000,0,9999,0.100000,99,891,0.027795,3,2.000000,23.537992,5.189307,99,99,0,0,1,0,0
8,89999,71,80000,73,70000,40,9999,0.100000,99,891,0.000000,3,0.000000,24.696523,8.781553,99,99,0,0,0,0,0
8,89999,72,80000,73,70000,0,9999,0.100000,99,891,0.233274,4,0.000000,10.969465,2.140076,99,99,0,1,0,0,0
8,89999,73,80000,25,70000,40,9999,0.100000,99,891,0.000000,3,0.000000,28.291889,6.545521,99,99,0,0,0,0,0
8,89999,74,80000,73,70000,40,9999,0.100000,99,891,0.000000,2,0.000000,26.312735,0.710932,99,99,0,0,0,0,0
8,89999,75,80000,73,70000,0,9999,0.100000,99,891,1.202364,2,0.000000,22.071466,0.214264,99,99,0,0,0,1,0
8,89999,76,80000,73,70000,40,9999,0.100000,99,891,0.000000,2,0.000000,24.397469,22.928279,99,99,0,0,0,0,0
8,89999,77,80000,73,70000,40,9999,0.100000,99,891,0.000000,1,0.000000,24.126106,0.109223,99,99,0,0,0,0,0
8,89999,78,80000,73,70000,40,9999,0.100000,99,891,0.000000,4,0.000000,34.587492,1.715666,99,99,0,0,0,0,0
8,89999,79,80000,73,70000,0,9999,0.100000,99,891,0.025231,1,0.000000,27.610753,0.135818,99,99,0,0,0,1,0
8,89999,80,80000,73,70000,40,9999,0.100000,99,891,0.000000,5,0.000000,14.090829,0.767274,99,99,0,0,0,0,0
8,89999,81,80000,73,70000,40,9999,0.100000,99,891,0.000000,1,0.000000,30.630045,0.775850,99,99,0,0,0,0,0
8,89999,82,80000,73,70000,0,9999,0.100000,99,891,0.167938,4,0.000000,24.247789,0.135330,99,99,0,0,1,0,0
8,89999,83,80000,73,70000,0,9999,0.100000,99,891,1.076486,2,0.000000,33.953852,0.736853,99,99,0,0,0,0,1
8,89999,84,80000,73,70000,40,9999,0.100000,99,891,0.000000,4,0.000000,15.105421,1.340688,99,99,0,0,0,0,0
8,89999,85,80000,73,70000,40,9999,0.100000,99,891,0.000000,4,0.000000,31.330259,0.143861,99,99,0,0,0,0,0
8,89999,86,80000,73,70000,0,9999,0.100000,99,891,0.221565,2,0.000000,25.169529,0.171692,99,99,0,0,0,0,1
8,89999,87,80000,73,70000,40,9999,0.100000,99,891,0.000000,2,1.000000,35.622513,2.823742,99,99,0,0,0,0,0
8,89999,88,80000,73,70000,40,9999,0.100000,99,891,0.000000,2,1.000000,33.088537,7.018609,99,99,0,0,0,0,0
8,89999,89,80000,73,70000,40,9999,0.100000,99,891,0.000000,1,0.000000,33.756937,1.788325,99,99,0,0,0,0,0
8,89999,90,80000,73,70000,40,9999,0.100000,99,891,0.000000,1,0.000000,24.223156,0.507079,99,99,0,0,0,0,0
8,89999,91,80000,73,70000,40,9999,0.100000,99,891,0.000000,2,0.000000,33.674525,3.669846,99,99,0,0,0,0,0
8,89999,92,80000,73,70000,40,9999,0.100000,99,891,0.000000,2,0.000000,15.354491,0.243610,99,99,0,0,0,0,0
8,89999,93,80000,73,70000,40,9999,0.100000,99,891,0.000000,3,0.000000,25.339110,0.108836,99,99,0,0,0,0,0
8,89999,94,80000,73,70000,40,9999,0.100000,99,891,0.000000,1,0.000000,26.131244,0.512632,99,99,0,0,0,0,0
8,89999,95,80000,73,70000,40,9999,0.100000,99,891,0.000000,4,0.000000,22.133171,0.644181,99,99,0,0,0,0,0
8,89999,96,80000,73,70000,40,9999,0.100000,99,891,0.000000,2,0.000000,33.842887,1.920626,99,99,0,0,0,0,0
8,89999,97,80000,73,70000,40,9999,0.100000,99,891,0.000000,2,0.000000,23.341769,1.129410,99,99,0,0,0,0,0
8,89999,98,80000,73,70000,40,9999,0.100000,99,891,0.000000,3,0.000000,28.872721,0.163284,99,99,0,0,0,0,0
8,89999,99,80000,73,70000,40,9999,0.100000,99,891,0.000000,1,0.000000,24.258247,0.628314,99,99,0,0,0,0,0
9,99999,0,90000,27,80000,40,9999,0.100000,99,990,0.000000,4,0.000000,24.595589,1.022830,99,99,0,0,0,0,0
9,99999,1,90000,27,80000,0,9999,0.100000,99,990,2.473555,2,0.000000,34.659057,0.616699,99,99,0,0,0,1,0
9,99999,2,90000,27,80000,40,9999,0.100000,99,990,0.000000,1,0.000000,31.582108,7.585524,99,99,0,0,0,0,0
9,99999,3,90000,27,80000,0,9999,0.100000,99,990,1.373699,2,0.000000,24.610569,0.280899,99,99,0,0,0,0,1
9,99999,4,90000,27,80000,40,9999,0.100000,99,990,0.000000,3,0.000000,12.687873,0.929628,99,99,0,0,0,0,0
9,99999,5,90000,27,80000,0,9999,0.100000,99,990,0.336764,4,0.000000,15.534754,0.287721,99,99,0,0,0,0,1
9,99999,6,90000,27,80000,40,9999,0.100000,99,990,0.000000,2,0.000000,34.450100,0.912132,99,99,0,0,0,0,0
9,99999,7,90000,27,80000,0,9999,0.100000,99,990,0.001126,1,0.000000,24.326090,0.104296,99,99,0,0,0,0,1
9,99999,8,90000,27,80000,0,9999,0.100000,99,990,0.003622,2,0.000000,21.695070,0.183168,99,99,0,0,0,0,1
9,99999,9,90000,27,80000,0,9999,0.100000,99,990,0.249419,2,0.000000,18.030127,0.142205,99,99,0,0,0,0,1
9,99999,10,90000,27,80000,90,9999,0.100000,99,990,16.463125,2,2.000000,24.817742,12.213592,99,99,1,0,0,0,0
9,99999,11,90000,27,80000,0,9999,0.100000,99,990,0.002830,1,0.000000,30.437579,0.063293,99,99,0,0,0,0,1
9,99999,12,90000,27,80000,2,9999,0.065000,99,990,2.294337,3,4.000000,14.348139,10.362681,99,99,0,0,1,0,0
9,99999,13,90000,27,80000,40,9999,0.100000,99,990,0.000000,2,0.000000,38.017037,3.270052,99,99,0,0,0,0,0
9,99999,14,90000,27,80000,40,9999,0.100000,99,990,0.000000,3,0.000000,12.717719,1.730520,99,99,0,0,0,0,0
9,99999,15,90000,27,80000,0,9999,0.100000,99,990,7.962748,4,1.000000,25.145830,2.525253,99,99,0,0,1,0,0
9,99999,16,90000,27,80000,40,9999,0.100000,99,990,0.000000,2,0.000000,17.274780,0.274518,99,99,0,0,0,0,0
9,99999,17,90000,27,80000,0,9999,0.100000,99,990,0.475020,3,0.000000,29.280546,0.172960,99,99,0,0,0,1,0
9,99999,18,90000,27,80000,0,9999,0.100000,99,990,0.012615,2,0.000000,27.351238,0.128768,99,99,0,0,1,0,0
9,99999,19,90000,27,80000,40,9999,0.100000,99,990,0.000000,2,1.000000,25.951593,2.345577,99,99,0,0,0,0,0
9,99999,20,90000,27,80000,0,9999,0.100000,99,990,0.326807,3,0.000000,18.038560,0.288205,99,99,0,0,0,1,0
9,99999,21,90000,27,80000,40,9999,0.100000,99,990,0.000000,4,0.000000,11.507775,0.168278,99,99,0,0,0,0,0
9,99999,22,90000,27,80000,40,9999,0.100000,99,990,0.000000,3,0.000000,15.314142,1.413439,99,99,0,0,0,0,0
9,99999,23,90000,27,80000,40,9999,0.100000,99,990,0.000000,3,0.000000,36.882090,0.201418,99,99,0,0,0,0,0
9,99999,24,90000,27,80000,40,9999,0.100000,99,990,0.000000,2,0.000000,21.963914,0.179495,99,99,0,0,0,0,0
9,99999,25,90000,27,80000,41,9999,0.100000,99,990,0.000000,3,4.000000,24.274361,4.939349,99,99,0,0,0,0,0
9,99999,26,90000,27,80000,0,9999,0.100000,99,990,0.149844,3,0.000000,28.443354,0.421964,99,99,0,1,0,0,0
9,99999,27,90000,10,80000,1,9999,0.100000,99,990,23.548691,3,4.000000,24.449388,6.129831,99,99,0,0,1,0,0
9,99999,28,90000,27,80000,40,9999,0.100000,99,990,0.000000,2,0.000000,14.750482,1.359181,99,99,0,0,0,0,0
9,99999,29,90000,27,80000,40,9999,0.100000,99,990,0.000000,5,0.000000,10.939614,4.006383,99,99,0,0,0,0,0
9,99999,30,90000,27,80000,40,9999,0.100000,99,990,0.000000,5,0.000000,14.425437,0.750355,99,99,0,0,0,0,0
9,99999,31,90000,27,80000,40,9999,0.100000,99,990,0.000000,1,0.000000,22.569886,0.319303,99,99,0,0,0,0,0
9,99999,32,90000,27,80000,40,9999,0.100000,99,990,0.000000,3,1.000000,14.007563,8.391280,99,99,0,0,0,0,0
9,99999,33,90000,27,80000,40,9999,0.100000,99,990,0.000000,1,0.000000,28.312798,7.341047,99,99,0,0,0,0,0
9,99999,34,90000,27,80000,40,9999,0.100000,99,990,0.000000,2,0.000000,24.994940,0.643140,99,99,0,0,0,0,0
9,99999,35,90000,27,80000,0,9999,0.100000,99,990,0.193222,2,0.000000,21.551539,0.584178,99,99,0,0,0,1,0
9,99999,36,90000,27,80000,40,9999,0.100000,99,990,0.000000,4,0.000000,28.949648,6.892530,99,99,0,0,0,0,0
9,99999,37,90000,27,80000,1,9999,0.100000,99,990,0.000000,3,7.000000,36.048979,16.581360,99,99,0,1,0,0,0
9,99999,38,90000,27,80000,41,9999,0.100000,99,990,0.000000,2,4.000000,31.585735,11.130438,99,99,0,0,0,0,0
9,99999,39,90000,27,80000,40,9999,0.100000,99,990,0.000000,3,0.000000,27.921870,0.142919,99,99,0,0,0,0,0
9,99999,40,90000,27,80000,40,9999,0.100000,99,990,0.000000,2,0.000000,18.828190,0.237989,99,99,0,0,0,0,0
9,99999,41,90000,27,80000,0,9999,0.100000,99,990,0.944411,1,2.000000,30.802001,5.874024,99,99,0,0,1,0,0
9,99999,42,90000,27,80000,0,9999,0.100000,99,990,0.126487,3,0.000000,24.327854,0.088138,99,99,0,0,0,0,1
9,99999,43,90000,27,80000,40,9999,0.100000,99,990,0.000000,2,0.000000,23.360670,0.342276,99,99,0,0,0,0,0
9,99999,44,90000,27,80000,40,9999,0.100000,99,990,0.000000,2,0.000000,26.497885,0.153998,99,99,0,0,0,0,0
9,99999,45,90000,27,80000,40,9999,0.100000,99,990,0.000000,4,0.000000,28.499778,7.008075,99,99,0,0,0,0,0
9,99999,46,90000,27,80000,40,9999,0.100000,99,990,0.000000,2,1.000000,25.998726,1.945890,99,99,0,0,0,0,0
9,99999,47,90000,27,80000,40,9999,0.100000,99,990,0.000000,3,0.000000,21.872006,0.429914,99,99,0,0,0,0,0
9,99999,48,90000,27,80000,40,9999,0.100000,99,990,0.000000,4,0.000000,33.227255,8.215336,99,99,0,0,0,0,0
9,99999,49,90000,27,80000,0,9999,0.100000,99,990,0.050184,2,0.000000,17.623220,0.207789,99,99,0,1,0,0,0
9,99999,50,90000,27,80000,40,9999,0.100000,99,990,0.000000,2,0.000000,14.601956,2.074193,99,99,0,0,0,0,0
9,99999,51,90000,27,80000,40,9999,0.100000,99,990,0.000000,2,0.000000,24.924914,0.296677,99,99,0,0,0,0,0
9,99999,52,90000,27,80000,40,9999,0.100000,99,990,0.000000,3,0.000000,24.404564,0.410136,99,99,0,0,0,0,0
9,99999,53,90000,27,80000,40,9999,0.100000,99,990,0.000000,3,0.000000,34.602356,0.696180,99,99,0,0,0,0,0
9,99999,54,90000,27,80000,0,9999,0.100000,99,990,0.021676,3,0.000000,26.228652,0.305203,99,99,0,0,0,1,0
9,99999,55,90000,27,80000,40,9999,0.100000,99,990,0.000000,2,1.000000,14.582145,3.211311,99,99,0,0,0,0,0
9,99999,56,90000,27,80000,40,9999,0.100000,99,990,0.000000,2,0.000000,34.283398,0.617116,99,99,0,0,0,0,0
9,99999,57,90000,27,80000,41,9999,0.100000,99,990,0.000000,1,4.000000,29.278636,24.450549,99,99,0,0,0,0,0
9,99999,58,90000,27,80000,40,9999,0.100000,99,990,0.000000,2,0.000000,17.726289,21.538007,99,99,0,0,0,0,0
9,99999,59,90000,27,80000,40,9999,0.100000,99,990,0.000000,4,0.000000,14.490820,1.036218,99,99,0,0,0,0,0
9,99999,60,90000,27,80000,40,9999,0.100000,99,990,0.000000,2,0.000000,31.682626,7.377220,99,99,0,0,0,0,0
9,99999,61,90000,27,80000,0,9999,0.100000,99,990,0.451396,2,0.000000,25.494895,0.200452,99,99,0,0,1,0,0
9,99999,62,90000,27,80000,40,9999,0.100000,99,990,0.000000,3,0.000000,12.819800,2.272279,99,99,0,0,0,0,0
9,99999,63,90000,27,80000,40,9999,0.100000,99,990,0.000000,1,0.000000,22.062746,0.176552,99,99,0,0,0,0,0
9,99999,64,90000,27,80000,40,9999,0.100000,99,990,0.000000,6,0.000000,10.689924,0.712820,99,99,0,0,0,0,0
9,99999,65,90000,27,80000,40,9999,0.100000,99,990,0.000000,2,0.000000,17.546486,0.248094,99,99,0,0,0,0,0
9,99999,66,90000,27,80000,41,9999,0.100000,99,990,0.000000,2,6.000000,34.538871,14.674263,99,99,0,0,0,0,0
9,99999,67,90000,27,80000,40,9999,0.100000,99,990,0.000000,1,0.000000,30.694202,0.943601,99,99,0,0,0,0,0
9,99999,68,90000,27,80000,40,9999,0.100000,99,990,0.000000,1,0.000000,29.074193,0.198579,99,99,0,0,0,0,0
9,99999,69,90000,27,80000,0,9999,0.100000,99,990,2.280201,3,0.000000,16.005772,0.870272,99,99,0,0,0,1,0
9,99999,70,90000,27,80000,0,9999,0.100000,99,990,0.026823,3,2.000000,23.543307,5.191963,99,99,0,0,1,0,0
9,99999,71,90000,27,80000,41,9999,0.100000,99,990,0.000000,3,3.000000,24.089753,20.786760,99,99,0,0,0,0,0
9,99999,72,90000,27,80000,40,9999,0.100000,99,990,0.000000,4,1.000000,10.824501,12.038425,99,99,0,0,0,0,0
9,99999,73,90000,27,80000,40,9999,0.100000,99,990,0.000000,4,0.000000,28.203958,6.569589,99,99,0,0,0,0,0
9,99999,74,90000,27,80000,40,9999,0.100000,99,990,0.000000,2,2.000000,26.449738,8.331470,99,99,0,0,0,0,0
9,99999,75,90000,27,80000,0,9999,0.100000,99,990,1.062792,2,0.000000,22.196051,0.246173,99,99,0,0,0,1,0
9,99999,76,90000,27,80000,40,9999,0.100000,99,990,0.000000,2,1.000000,25.217490,12.305637,99,99,0,0,0,0,0
9,99999,77,90000,27,80000,40,9999,0.100000,99,990,0.000000,1,0.000000,24.127407,0.110515,99,99,0,0,0,0,0
9,99999,78,90000,27,80000,40,9999,0.100000,99,990,0.000000,4,0.000000,33.975715,0.659077,99,99,0,0,0,0,0
9,99999,79,90000,27,80000,0,9999,0.100000,99,990,0.010111,1,0.000000,27.609926,0.144832,99,99,0,0,0,1,0
9,99999,80,90000,27,80000,40,9999,0.100000,99,990,0.000000,5,0.000000,14.282147,0.664246,99,99,0,0,0,0,0
9,99999,81,90000,27,80000,40,9999,0.100000,99,990,0.000000,1,0.000000,30.591982,0.673870,99,99,0,0,0,0,0
9,99999,82,90000,27,80000,1,9999,0.100000,99,990,0.163099,4,4.000000,24.282189,8.572183,99,99,0,0,1,0,0
9,99999,83,90000,27,80000,0,9999,0.100000,99,990,0.225581,2,0.000000,34.504542,0.490556,99,99,0,0,0,0,1
9,99999,84,90000,27,80000,43,9999,0.100000,99,990,0.000000,4,5.000000,15.400186,12.307002,99,99,0,0,0,0,0
9,99999,85,90000,27,80000,40,9999,0.100000,99,990,0.000000,4,0.000000,31.329809,0.139443,99,99,0,0,0,0,0
9,99999,86,90000,27,80000,0,9999,0.100000,99,990,1.455033,2,0.000000,25.219991,0.708670,99,99,0,0,0,0,1
9,99999,87,90000,27,80000,40,9999,0.100000,99,990,0.000000,2,0.000000,34.996308,0.895660,99,99,0,0,0,0,0
9,99999,88,90000,27,80000,40,9999,0.100000,99,990,0.000000,2,0.000000,32.348301,7.159601,99,99,0,0,0,0,0
9,99999,89,90000,27,80000,40,9999,0.100000,99,990,0.000000,1,0.000000,34.293413,0.536285,99,99,0,0,0,0,0
9,99999,90,90000,27,80000,40,9999,0.100000,99,990,0.000000,1,0.000000,24.700792,0.306967,99,99,0,0,0,0,0
9,99999,91,90000,27,80000,40,9999,0.100000,99,990,0.000000,2,0.000000,34.300901,1.881558,99,99,0,0,0,0,0
9,99999,92,90000,27,80000,40,9999,0.100000,99,990,0.000000,2,0.000000,15.352985,0.229094,99,99,0,0,0,0,0
9,99999,93,90000,27,80000,40,9999,0.100000,99,990,0.000000,3,0.000000,25.375186,0.873317,99,99,0,0,0,0,0
9,99999,94,90000,27,80000,40,9999,0.100000,99,990,0.000000,1,2.000000,26.288664,4.549436,99,99,0,0,0,0,0
9,99999,95,90000,27,80000,40,9999,0.100000,99,990,0.000000,4,0.000000,22.002840,0.630322,99,99,0,0,0,0,0
9,99999,96,90000,27,80000,40,9999,0.100000,99,990,0.000000,2,0.000000,34.369664,0.495958,99,99,0,0,0,0,0
9,99999,97,90000,27,80000,41,9999,0.100000,99,990,0.000000,2,4.000000,24.080038,5.002415,99,99,0,0,0,0,0
9,99999,98,90000,27,80000,40,9999,0.100000,99,990,0.000000,3,0.000000,28.875630,0.263766,99,99,0,0,0,0,0
9,99999,99,90000,27,80000,40,9999,0.100000,99,990,0.000000,1,0.000000,24.792602,0.368179,99,99,0,0,0,0,0
10,109999,0,100000,27,90000,40,9999,0.100000,99,1089,0.000000,4,0.000000,23.805665,1.028615,99,99,0,0,0,0,0
10,109999,1,100000,27,90000,0,9999,0.100000,99,1089,1.518492,2,0.000000,34.098743,0.270412,99,99,0,0,0,1,0
10,109999,2,100000,27,90000,40,9999,0.100000,99,1089,0.000000,1,0.000000,31.407857,7.606810,99,99,0,0,0,0,0
10,109999,3,100000,27,90000,0,9999,0.100000,99,1089,0.397090,2,0.000000,24.793280,0.103239,99,99,0,0,0,0,1
10,109999,4,100000,27,90000,40,9999,0.100000,99,1089,0.000000,3,0.000000,12.170672,1.949045,99,99,0,0,0,0,0
10,109999,5,100000,27,90000,0,9999,0.100000,99,1089,1.590452,4,0.000000,15.692294,0.744086,99,99,0,0,0,0,1
10,109999,6,100000,27,90000,40,9999,0.100000,99,1089,0.000000,2,0.000000,34.856441,0.897678,99,99,0,0,0,0,0
10,109999,7,100000,27,90000,0,9999,0.100000,99,1089,0.001959,1,0.000000,24.326976,0.105033,99,99,0,0,0,0,1
10,109999,8,100000,27,90000,0,9999,0.100000,99,1089,0.008160,2,0.000000,21.555696,0.174772,99,99,0,0,0,0,1
10,109999,9,100000,27,90000,40,9999,0.100000,99,1089,0.000000,2,0.000000,17.953502,2.973528,99,99,0,0,0,0,0
10,109999,10,100000,27,90000,91,9999,0.100000,99,1089,16.453924,3,3.000000,26.145844,12.213228,99,99,1,0,0,0,0
10,109999,11,100000,27,90000,0,9999,0.100000,99,1089,0.001548,1,0.000000,30.437784,0.062680,99,99,0,0,0,0,1
10,109999,12,100000,27,90000,4,9999,0.100000,99,1089,34.276911,4,7.000000,14.881984,7.632143,99,99,0,0,1,0,0
10,109999,13,100000,27,90000,40,9999,0.100000,99,1089,0.000000,2,0.000000,38.015970,3.754375,99,99,0,0,0,0,0
10,109999,14,100000,27,90000,40,9999,0.100000,99,1089,0.000000,3,0.000000,12.126737,1.815465,99,99,0,0,0,0,0
10,109999,15,100000,27,90000,0,9999,0.100000,99,1089,0.579125,4,0.000000,26.697320,1.297458,99,99,0,0,1,0,0
10,109999,16,100000,27,90000,0,9999,0.100000,99,1089,3.556112,2,0.000000,17.268717,1.162791,99,99,0,0,0,1,0
10,109999,17,100000,27,90000,0,9999,0.100000,99,1089,0.003785,3,0.000000,29.365610,0.099550,99,99,0,0,0,1,0
10,109999,18,100000,27,90000,0,9999,0.100000,99,1089,0.012992,2,0.000000,27.353480,0.126473,99,99,0,0,1,0,0
10,109999,19,100000,27,90000,40,9999,0.100000,99,1089,0.000000,2,0.000000,26.473309,2.912208,99,99,0,0,0,0,0
10,109999,20,100000,27,90000,40,9999,0.100000,99,1089,0.000000,3,1.000000,18.025192,1.544343,99,99,0,0,0,0,0
10,109999,21,100000,27,90000,40,9999,0.100000,99,1089,0.000000,4,0.000000,11.510844,0.380811,99,99,0,0,0,0,0
10,109999,22,100000,27,90000,40,9999,0.100000,99,1089,0.000000,3,0.000000,15.466384,8.804596,99,99,0,0,0,0,0
10,109999,23,100000,27,90000,40,9999,0.100000,99,1089,0.000000,3,0.000000,36.914841,0.120154,99,99,0,0,0,0,0
10,109999,24,100000,27,90000,40,9999,0.100000,99,1089,0.000000,2,0.000000,21.827661,0.170789,99,99,0,0,0,0,0
10,109999,25,100000,27,90000,0,9999,0.100000,99,1089,0.166553,4,0.000000,28.447962,0.255536,99,99,0,0,1,0,0
10,109999,26,100000,27,90000,0,9999,0.100000,99,1089,0.172062,3,0.000000,28.310308,0.207431,99,99,0,1,0,0,0
10,109999,27,100000,10,90000,40,9999,0.100000,99,1089,0.000000,4,1.000000,28.622529,18.609149,99,99,0,0,0,0,0
10,109999,28,100000,27,90000,40,9999,0.100000,99,1089,0.000000,2,0.000000,14.666162,1.226945,99,99,0,0,0,0,0
10,109999,29,100000,27,90000,40,9999,0.100000,99,1089,0.000000,5,0.000000,10.721959,3.013584,99,99,0,0,0,0,0
10,109999,30,100000,27,90000,44,9999,0.100000,99,1089,0.000000,5,7.000000,14.755448,7.592354,99,99,0,0,0,0,0
10,109999,31,100000,27,90000,40,9999,0.100000,99,1089,0.000000,1,0.000000,22.676347,0.334042,99,99,0,0,0,0,0
10,109999,32,100000,27,90000,40,9999,0.100000,99,1089,0.000000,3,0.000000,15.138865,3.957119,99,99,0,0,0,0,0
10,109999,33,100000,27,90000,42,9999,0.100000,99,1089,0.000000,1,7.000000,28.268042,22.627646,99,99,0,0,0,0,0
10,109999,34,100000,27,90000,40,9999,0.100000,99,1089,0.000000,2,0.000000,25.352933,0.377122,99,99,0,0,0,0,0
10,109999,35,100000,27,90000,0,9999,0.100000,99,1089,0.136582,2,1.000000,21.506660,2.070083,99,99,0,0,0,1,0
10,109999,36,100000,27,90000,40,9999,0.100000,99,1089,0.000000,4,0.000000,28.883738,6.611711,99,99,0,0,0,0,0
10,109999,37,100000,27,90000,40,9999,0.100000,99,1089,0.000000,3,1.000000,36.387134,1.647655,99,99,0,0,0,0,0
10,109999,38,100000,27,90000,40,9999,0.100000,99,1089,0.000000,3,0.000000,30.530793,1.046443,99,99,0,0,0,0,0
10,109999,39,100000,27,90000,40,9999,0.100000,99,1089,0.000000,3,0.000000,27.924613,0.143813,99,99,0,0,0,0,0
10,109999,40,100000,27,90000,40,9999,0.100000,99,1089,0.000000,2,0.000000,18.748184,0.462980,99,99,0,0,0,0,0
10,109999,41,100000,27,90000,0,9999,0.100000,99,1089,0.014556,1,0.000000,30.797921,1.487273,99,99,0,0,1,0,0
10,109999,42,100000,27,90000,0,9999,0.100000,99,1089,0.151659,3,0.000000,24.344659,0.088428,99,99,0,0,0,0,1
10,109999,43,100000,27,90000,40,9999,0.100000,99,1089,0.000000,2,0.000000,23.394385,0.368613,99,99,0,0,0,0,0
10,109999,44,100000,27,90000,0,9999,0.100000,99,1089,0.130804,2,0.000000,26.544254,0.151078,99,99,0,0,0,1,0
10,109999,45,100000,27,90000,40,9999,0.100000,99,1089,0.000000,4,0.000000,28.437807,6.591570,99,99,0,0,0,0,0
10,109999,46,100000,27,90000,40,9999,0.100000,99,1089,0.000000,2,0.000000,26.421986,2.547883,99,99,0,0,0,0,0
10,109999,47,100000,27,90000,40,9999,0.100000,99,1089,0.000000,3,0.000000,21.736719,0.470094,99,99,0,0,0,0,0
10,109999,48,100000,27,90000,42,9999,0.100000,99,1089,0.000000,4,7.000000,33.049451,23.743373,99,99,0,0,0,0,0
10,109999,49,100000,27,90000,0,9999,0.100000,99,1089,2.883675,2,0.000000,17.558953,1.727767,99,99,0,1,0,0,0
10,109999,50,100000,27,90000,40,9999,0.100000,99,1089,0.000000,2,0.000000,14.539400,1.635100,99,99,0,0,0,0,0
10,109999,51,100000,27,90000,0,9999,0.100000,99,1089,0.013871,2,0.000000,24.971686,0.120725,99,99,0,0,1,0,0
10,109999,52,100000,27,90000,40,9999,0.100000,99,1089,0.000000,3,0.000000,24.652650,0.375157,99,99,0,0,0,0,0
10,109999,53,100000,27,90000,40,9999,0.100000,99,1089,0.000000,3,0.000000,34.028412,1.142343,99,99,0,0,0,0,0
10,109999,54,100000,27,90000,40,9999,0.100000,99,1089,0.000000,4,0.000000,26.309218,0.389293,99,99,0,0,0,0,0
10,109999,55,100000,27,90000,1,9999,0.100000,99,1089,0.003262,2,2.000000,15.280106,7.209736,99,99,0,0,0,1,0
10,109999,56,100000,27,90000,40,9999,0.100000,99,1089,0.000000,2,0.000000,33.713552,0.417451,99,99,0,0,0,0,0
10,109999,57,100000,27,90000,41,9999,0.100000,99,1089,0.000000,2,5.000000,30.549979,34.230662,99,99,0,0,0,0,0
10,109999,58,100000,27,90000,40,9999,0.100000,99,1089,0.000000,2,1.000000,17.737124,1.165392,99,99,0,0,0,0,0
10,109999,59,100000,27,90000,40,9999,0.100000,99,1089,0.000000,4,0.000000,15.270102,0.981708,99,99,0,0,0,0,0
10,109999,60,100000,27,90000,40,9999,0.100000,99,1089,0.000000,2,0.000000,31.714836,7.849171,99,99,0,0,0,0,0
10,109999,61,100000,27,90000,40,9999,0.100000,99,1089,0.000000,2,0.000000,25.514948,0.121759,99,99,0,0,0,0,0
10,109999,62,100000,27,90000,40,9999,0.100000,99,1089,0.000000,3,0.000000,12.297920,4.244058,99,99,0,0,0,0,0
10,109999,63,100000,27,90000,40,9999,0.100000,99,1089,0.000000,1,0.000000,21.927620,0.168807,99,99,0,0,0,0,0
10,109999,64,100000,27,90000,40,9999,0.100000,99,1089,0.000000,6,0.000000,10.690131,0.647111,99,99,0,0,0,0,0
10,109999,65,100000,27,90000,40,9999,0.100000,99,1089,0.000000,2,0.000000,17.540775,1.038197,99,99,0,0,0,0,0
10,109999,66,100000,27,90000,40,9999,0.100000,99,1089,0.000000,2,0.000000,31.604033,0.928709,99,99,0,0,0,0,0
10,109999,67,100000,27,90000,40,9999,0.100000,99,1089,0.000000,1,0.000000,30.712045,1.576603,99,99,0,0,0,0,0
10,109999,68,100000,27,90000,40,9999,0.100000,99,1089,0.000000,1,0.000000,29.162875,0.111358,99,99,0,0,0,0,0
10,109999,69,100000,27,90000,40,9999,0.100000,99,1089,0.000000,3,0.000000,16.421118,0.566084,99,99,0,0,0,0,0
10,109999,70,100000,27,90000,0,9999,0.100000,99,1089,0.025289,3,2.000000,23.548431,5.201924,99,99,0,0,1,0,0
10,109999,71,100000,27,90000,40,9999,0.100000,99,1089,0.000000,4,0.000000,26.486200,3.016718,99,99,0,0,0,0,0
10,109999,72,100000,27,90000,40,9999,0.100000,99,1089,0.000000,4,1.000000,12.376563,14.092251,99,99,0,0,0,0,0
10,109999,73,100000,27,90000,40,9999,0.100000,99,1089,0.000000,4,0.000000,28.147619,6.307233,99,99,0,0,0,0,0
10,109999,74,100000,27,90000,0,9999,0.100000,99,1089,0.041223,2,0.000000,26.539131,1.356000,99,99,0,0,0,0,1
10,109999,75,100000,27,90000,0,9999,0.100000,99,1089,1.063562,2,0.000000,22.296253,0.268197,99,99,0,0,0,1,0
10,109999,76,100000,27,90000,40,9999,0.100000,99,1089,0.000000,2,0.000000,26.910082,0.939234,99,99,0,0,0,0,0
10,109999,77,100000,27,90000,40,9999,0.100000,99,1089,0.000000,1,0.000000,24.128586,0.111305,99,99,0,0,0,0,0
10,109999,78,100000,27,90000,40,9999,0.100000,99,1089,0.000000,4,0.000000,33.398936,0.638054,99,99,0,0,0,0,0
10,109999,79,100000,27,90000,0,9999,0.100000,99,1089,0.001937,1,0.000000,27.610371,0.145379,99,99,0,0,0,1,0
10,109999,80,100000,27,90000,44,9999,0.135000,99,1089,0.000000,5,7.000000,14.659030,7.644470,99,99,0,0,0,0,0
10,109999,81,100000,27,90000,40,9999,0.100000,99,1089,0.000000,1,0.000000,30.632787,2.290148,99,99,0,0,0,0,0
10,109999,82,100000,27,90000,1,9999,0.100000,99,1089,0.198571,4,4.000000,24.315001,8.666138,99,99,0,0,1,0,0
10,109999,83,100000,27,90000,0,9999,0.100000,99,1089,0.236805,2,0.000000,34.833246,0.642297,99,99,0,0,0,0,1
10,109999,84,100000,27,90000,40,9999,0.100000,99,1089,0.000000,4,0.000000,15.552266,2.118396,99,99,0,0,0,0,0
10,109999,85,100000,27,90000,40,9999,0.100000,99,1089,0.000000,4,0.000000,31.329543,0.139156,99,99,0,0,0,0,0
10,109999,86,100000,27,90000,40,9999,0.100000,99,1089,0.000000,2,0.000000,25.572211,0.336001,99,99,0,0,0,0,0
10,109999,87,100000,27,90000,40,9999,0.100000,99,1089,0.000000,2,0.000000,34.689668,0.846059,99,99,0,0,0,0,0
10,109999,88,100000,27,90000,40,9999,0.100000,99,1089,0.000000,2,0.000000,32.335995,7.577050,99,99,0,0,0,0,0
10,109999,89,100000,27,90000,40,9999,0.100000,99,1089,0.000000,1,0.000000,34.632811,0.599210,99,99,0,0,0,0,0
10,109999,90,100000,27,90000,40,9999,0.100000,99,1089,0.000000,1,0.000000,24.924335,0.132908,99,99,0,0,0,0,0
10,109999,91,100000,27,90000,40,9999,0.100000,99,1089,0.000000,2,0.000000,34.734557,2.159916,99,99,0,0,0,0,0
10,109999,92,100000,27,90000,40,9999,0.100000,99,1089,0.000000,2,0.000000,15.351285,1.056630,99,99,0,0,0,0,0
10,109999,93,100000,27,90000,40,9999,0.065000,99,1089,0.000000,3,0.000000,25.790950,0.423819,99,99,0,0,0,0,0
10,109999,94,100000,27,90000,40,9999,0.100000,99,1089,0.000000,1,0.000000,26.367350,0.758344,99,99,0,0,0,0,0
10,109999,95,100000,27,90000,40,9999,0.100000,99,1089,0.000000,4,0.000000,21.867312,0.649386,99,99,0,0,0,0,0
10,109999,96,100000,27,90000,40,9999,0.100000,99,1089,0.000000,2,0.000000,34.695470,0.582851,99,99,0,0,0,0,0
10,109999,97,100000,27,90000,40,9999,0.100000,99,1089,0.000000,2,0.000000,28.280309,0.158276,99,99,0,0,0,0,0
10,109999,98,100000,27,90000,40,9999,0.100000,99,1089,0.000000,3,0.000000,28.972857,0.178904,99,99,0,0,0,0,0
10,109999,99,100000,27,90000,40,9999,0.100000,99,1089,0.000000,1,0.000000,25.046512,0.144670,99,99,0,0,0,0,0
11,119999,0,110000,12,100000,40,9999,0.100000,99,1188,0.000000,4,0.000000,23.030610,0.978348,99,99,0,0,0,0,0
11,119999,1,110000,12,100000,0,9999,0.100000,99,1188,1.030839,2,0.000000,33.946129,0.240076,99,99,0,0,0,1,0
11,119999,2,110000,12,100000,40,9999,0.100000,99,1188,0.000000,1,0.000000,31.483246,6.590135,99,99,0,0,0,0,0
11,119999,3,110000,12,100000,0,9999,0.100000,99,1188,0.346974,2,0.000000,24.844068,0.192548,99,99,0,0,0,0,1
11,119999,4,110000,12,100000,40,9999,0.100000,99,1188,0.000000,3,0.000000,11.539111,3.190463,99,99,0,0,0,0,0
11,119999,5,110000,12,100000,0,9999,0.100000,99,1188,0.106572,4,0.000000,16.182225,0.123507,99,99,0,0,0,0,1
11,119999,6,110000,12,100000,40,9999,0.100000,99,1188,0.000000,2,0.000000,35.255763,3.050949,99,99,0,0,0,0,0
11,119999,7,110000,12,100000,0,9999,0.100000,99,1188,0.002135,1,0.000000,24.327895,0.104797,99,99,0,0,0,0,1
11,119999,8,110000,12,100000,40,9999,0.100000,99,1188,0.000000,2,0.000000,21.424498,0.172136,99,99,0,0,0,0,0
11,119999,9,110000,12,100000,40,9999,0.100000,99,1188,0.000000,2,1.000000,17.780342,3.966415,99,99,0,0,0,0,0
11,119999,10,110000,12,100000,40,9999,0.100000,99,1188,0.000000,3,1.000000,29.141997,11.892413,99,99,0,0,0,0,0
11,119999,11,110000,12,100000,0,9999,0.100000,99,1188,0.001911,1,0.000000,30.438068,0.063316,99,99,0,0,0,0,1
11,119999,12,110000,10,100000,0,9999,0.100000,99,1188,0.179172,5,0.000000,21.931761,0.159075,99,99,0,0,1,0,0
11,119999,13,110000,12,100000,40,9999,0.100000,99,1188,0.000000,2,0.000000,38.013752,3.257011,99,99,0,0,0,0,0
11,119999,14,110000,12,100000,40,9999,0.100000,99,1188,0.000000,3,0.000000,11.511701,3.510678,99,99,0,0,0,0,0
11,119999,15,110000,12,100000,0,9999,0.100000,99,1188,0.010261,4,1.000000,26.421129,1.835839,99,99,0,0,1,0,0
11,119999,16,110000,12,100000,0,9999,0.100000,99,1188,1.685580,2,0.000000,17.243532,0.947600,99,99,0,0,0,1,0
11,119999,17,110000,12,100000,0,9999,0.100000,99,1188,0.103523,3,0.000000,29.364716,0.102140,99,99,0,0,0,1,0
11,119999,18,110000,12,100000,0,9999,0.100000,99,1188,0.013902,2,0.000000,27.355241,0.125511,99,99,0,0,1,0,0
11,119999,19,110000,12,100000,42,9999,0.100000,99,1188,0.000000,2,6.000000,26.515706,10.067331,99,99,0,0,0,0,0
11,119999,20,110000,12,100000,40,9999,0.100000,99,1188,0.000000,3,0.000000,17.962980,1.057941,99,99,0,0,0,0,0
11,119999,21,110000,12,100000,40,9999,0.100000,99,1188,0.000000,4,0.000000,11.387807,2.155056,99,99,0,0,0,0,0
11,119999,22,110000,12,100000,40,9999,0.100000,99,1188,0.000000,3,0.000000,16.356951,2.181543,99,99,0,0,0,0,0
11,119999,23,110000,12,100000,40,9999,0.100000,99,1188,0.000000,3,0.000000,36.916230,0.123234,99,99,0,0,0,0,0
11,119999,24,110000,12,100000,0,9999,0.100000,99,1188,0.016256,2,0.000000,21.699129,0.168468,99,99,0,0,0,0,1
11,119999,25,110000,12,100000,0,9999,0.100000,99,1188,0.058910,4,0.000000,28.419907,0.165448,99,99,0,0,1,0,0
11,119999,26,110000,12,100000,0,9999,0.100000,99,1188,0.206155,3,0.000000,28.372479,0.212013,99,99,0,1,0,0,0
11,119999,27,110000,12,100000,40,9999,0.100000,99,1188,0.000000,4,0.000000,29.726182,9.265565,99,99,0,0,0,0,0
11,119999,28,110000,12,100000,40,9999,0.100000,99,1188,0.000000,2,0.000000,14.940349,0.519498,99,99,0,0,0,0,0
11,119999,29,110000,12,100000,40,9999,0.100000,99,1188,0.000000,5,0.000000,10.722420,3.030044,99,99,0,0,0,0,0
11,119999,30,110000,12,100000,40,9999,0.100000,99,1188,0.000000,5,0.000000,21.833529,0.416862,99,99,0,0,0,0,0
11,119999,31,110000,12,100000,40,9999,0.100000,99,1188,0.000000,1,2.000000,22.761540,6.474879,99,99,0,0,0,0,0
11,119999,32,110000,12,100000,40,9999,0.100000,99,1188,0.000000,3,0.000000,15.519447,3.839974,99,99,0,0,0,0,0
11,119999,33,110000,12,100000,40,9999,0.100000,99,1188,0.000000,2,0.000000,28.198499,6.240444,99,99,0,0,0,0,0
11,119999,34,110000,12,100000,40,9999,0.100000,99,1188,0.000000,2,0.000000,25.473567,0.540353,99,99,0,0,0,0,0
11,119999,35,110000,12,100000,0,9999,0.100000,99,1188,0.160767,2,0.000000,23.000185,0.202310,99,99,0,0,0,1,0
11,119999,36,110000,12,100000,40,9999,0.100000,99,1188,0.000000,4,0.000000,29.025890,6.647781,99,99,0,0,0,0,0
11,119999,37,110000,12,100000,40,9999,0.100000,99,1188,0.000000,3,0.000000,37.172247,1.521195,99,99,0,0,0,0,0
11,119999,38,110000,12,100000,40,9999,0.100000,99,1188,0.000000,3,0.000000,30.755131,1.031603,99,99,0,0,0,0,0
11,119999,39,110000,12,100000,40,9999,0.100000,99,1188,0.000000,3,0.000000,27.926759,0.142490,99,99,0,0,0,0,0
11,119999,40,110000,12,100000,40,9999,0.100000,99,1188,0.000000,2,0.000000,18.621564,0.290576,99,99,0,0,0,0,0
11,119999,41,110000,12,100000,0,9999,0.100000,99,1188,0.171995,1,0.000000,30.413086,0.595233,99,99,0,0,1,0,0
11,119999,42,110000,12,100000,0,9999,0.100000,99,1188,0.121104,3,0.000000,24.365240,0.084856,99,99,0,0,0,0,1
11,119999,43,110000,12,100000,40,9999,0.100000,99,1188,0.000000,2,0.000000,23.435085,0.334006,99,99,0,0,0,0,0
11,119999,44,110000,12,100000,0,9999,0.100000,99,1188,0.122593,2,0.000000,26.561468,0.217715,99,99,0,0,0,1,0
11,119999,45,110000,12,100000,40,9999,0.100000,99,1188,0.000000,4,0.000000,28.426029,6.289626,99,99,0,0,0,0,0
11,119999,46,110000,12,100000,40,9999,0.100000,99,1188,0.000000,2,1.000000,26.406102,5.088518,99,99,0,0,0,0,0
11,119999,47,110000,12,100000,40,9999,0.100000,99,1188,0.000000,3,0.000000,21.610416,0.492225,99,99,0,0,0,0,0
11,119999,48,110000,12,100000,40,9999,0.100000,99,1188,0.000000,4,1.000000,32.955120,5.856310,99,99,0,0,0,0,0
11,119999,49,110000,12,100000,0,9999,0.100000,99,1188,0.300202,2,1.000000,17.824877,2.249417,99,99,0,1,0,0,0
