generation,iteration,robot,birthday,ancestor_id,ancestor_birthday,cell_id,age,sigma,maps,genomes,fitness,cells_in_map,dist_max,dist_pot_max,dist_total,com_rx,com_tx,obj_group1,obj_group2,obj_group3,obj_group4,obj_group5
0,9999,0,0,0,0,1,9999,0.100000,0,0,0.000000,0,6.000000,0.000000,17.123154,0,0,0,0,0,0,0
0,9999,1,0,1,0,1,9999,0.100000,0,0,0.000000,0,7.000000,0.000000,17.202872,0,0,0,0,0,0,0
0,9999,2,0,2,0,1,9999,0.100000,0,0,0.000000,0,11.000000,0.000000,15.593448,0,0,0,0,0,0,0
0,9999,3,0,3,0,1,9999,0.100000,0,0,0.000000,0,5.000000,0.000000,12.532064,0,0,0,0,0,0,0
0,9999,4,0,4,0,1,9999,0.100000,0,0,0.000000,0,6.000000,0.000000,8.653080,0,0,0,0,0,0,0
0,9999,5,0,5,0,1,9999,0.100000,0,0,0.000000,0,2.000000,0.000000,4.931823,0,0,0,0,0,0,0
0,9999,6,0,6,0,1,9999,0.100000,0,0,0.000000,0,7.000000,0.000000,9.991456,0,0,0,0,0,0,0
0,9999,7,0,7,0,1,9999,0.100000,0,0,0.000000,0,9.000000,0.000000,14.743609,0,0,0,0,0,0,0
0,9999,8,0,8,0,1,9999,0.100000,0,0,0.000000,0,9.000000,0.000000,11.928381,0,0,0,0,0,0,0
0,9999,9,0,9,0,1,9999,0.100000,0,0,0.000000,0,5.000000,0.000000,8.144300,0,0,0,0,0,0,0
0,9999,10,0,10,0,1,9999,0.100000,0,0,0.000000,0,8.000000,0.000000,12.044228,0,0,0,0,0,0,0
0,9999,11,0,11,0,1,9999,0.100000,0,0,0.000000,0,10.000000,0.000000,21.012166,0,0,0,0,0,0,0
0,9999,12,0,12,0,1,9999,0.100000,0,0,0.000000,0,9.000000,0.000000,12.870309,0,0,0,0,0,0,0
0,9999,13,0,13,0,1,9999,0.100000,0,0,0.000000,0,8.000000,0.000000,15.162170,0,0,0,0,0,0,0
0,9999,14,0,14,0,1,9999,0.100000,0,0,0.000000,0,11.000000,0.000000,13.891510,0,0,0,0,0,0,0
0,9999,15,0,15,0,1,9999,0.100000,0,0,0.000000,0,10.000000,0.000000,11.230535,0,0,0,0,0,0,0
0,9999,16,0,16,0,1,9999,0.100000,0,0,0.000000,0,8.000000,0.000000,9.921162,0,0,0,0,0,0,0
0,9999,17,0,17,0,1,9999,0.100000,0,0,0.000000,0,8.000000,0.000000,27.628657,0,0,0,0,0,0,0
0,9999,18,0,18,0,1,9999,0.100000,0,0,0.000000,0,4.000000,0.000000,16.055788,0,0,0,0,0,0,0
0,9999,19,0,19,0,1,9999,0.100000,0,0,0.000000,0,2.000000,0.000000,4.379149,0,0,0,0,0,0,0
0,9999,20,0,20,0,1,9999,0.100000,0,0,0.000000,0,10.000000,0.000000,12.239721,0,0,0,0,0,0,0
0,9999,21,0,21,0,1,9999,0.100000,0,0,0.000000,0,8.000000,0.000000,20.504305,0,0,0,0,0,0,0
0,9999,22,0,22,0,1,9999,0.100000,0,0,0.000000,0,5.000000,0.000000,7.791696,0,0,0,0,0,0,0
0,9999,23,0,23,0,1,9999,0.100000,0,0,0.000000,0,3.000000,0.000000,3.841263,0,0,0,0,0,0,0
0,9999,24,0,24,0,1,9999,0.100000,0,0,0.000000,0,9.000000,0.000000,17.942507,0,0,0,0,0,0,0
0,9999,25,0,25,0,1,9999,0.100000,0,0,0.000000,0,8.000000,0.000000,9.144693,0,0,0,0,0,0,0
0,9999,26,0,26,0,1,9999,0.100000,0,0,0.000000,0,10.000000,0.000000,17.542842,0,0,0,0,0,0,0
0,9999,27,0,27,0,1,9999,0.100000,0,0,0.000000,0,11.000000,0.000000,12.540443,0,0,0,0,0,0,0
0,9999,28,0,28,0,1,9999,0.100000,0,0,0.000000,0,8.000000,0.000000,24.890718,0,0,0,0,0,0,0
0,9999,29,0,29,0,1,9999,0.100000,0,0,0.000000,0,5.000000,0.000000,9.014974,0,0,0,0,0,0,0
0,9999,30,0,30,0,1,9999,0.100000,0,0,0.000000,0,9.000000,0.000000,11.799643,0,0,0,0,0,0,0
0,9999,31,0,31,0,1,9999,0.100000,0,0,0.000000,0,4.000000,0.000000,5.255169,0,0,0,0,0,0,0
0,9999,32,0,32,0,1,9999,0.100000,0,0,0.000000,0,5.000000,0.000000,23.143653,0,0,0,0,0,0,0
0,9999,33,0,33,0,1,9999,0.100000,0,0,0.000000,0,10.000000,0.000000,16.803725,0,0,0,0,0,0,0
0,9999,34,0,34,0,1,9999,0.100000,0,0,0.000000,0,8.000000,0.000000,15.511466,0,0,0,0,0,0,0
0,9999,35,0,35,0,1,9999,0.100000,0,0,0.000000,0,8.000000,0.000000,18.776060,0,0,0,0,0,0,0
0,9999,36,0,36,0,1,9999,0.100000,0,0,0.000000,0,7.000000,0.000000,9.523489,0,0,0,0,0,0,0
0,9999,37,0,37,0,1,9999,0.100000,0,0,0.000000,0,2.000000,0.000000,9.994785,0,0,0,0,0,0,0
0,9999,38,0,38,0,1,9999,0.100000,0,0,0.000000,0,8.000000,0.000000,17.178561,0,0,0,0,0,0,0
0,9999,39,0,39,0,1,9999,0.100000,0,0,0.000000,0,9.000000,0.000000,22.522232,0,0,0,0,0,0,0
0,9999,40,0,40,0,1,9999,0.100000,0,0,0.000000,0,6.000000,0.000000,7.451501,0,0,0,0,0,0,0
0,9999,41,0,41,0,1,9999,0.100000,0,0,0.000000,0,9.000000,0.000000,27.942931,0,0,0,0,0,0,0
0,9999,42,0,42,0,1,9999,0.100000,0,0,0.000000,0,9.000000,0.000000,10.270602,0,0,0,0,0,0,0
0,9999,43,0,43,0,1,9999,0.100000,0,0,0.000000,0,6.000000,0.000000,18.616422,0,0,0,0,0,0,0
0,9999,44,0,44,0,1,9999,0.100000,0,0,0.000000,0,11.000000,0.000000,18.322628,0,0,0,0,0,0,0
0,9999,45,0,45,0,1,9999,0.100000,0,0,0.000000,0,9.000000,0.000000,14.069770,0,0,0,0,0,0,0
0,9999,46,0,46,0,1,9999,0.100000,0,0,0.000000,0,7.000000,0.000000,19.091144,0,0,0,0,0,0,0
0,9999,47,0,47,0,1,9999,0.100000,0,0,0.000000,0,7.000000,0.000000,13.893077,0,0,0,0,0,0,0
0,9999,48,0,48,0,1,9999,0.100000,0,0,0.000000,0,7.000000,0.000000,20.615505,0,0,0,0,0,0,0
0,9999,49,0,49,0,1,9999,0.100000,0,0,0.000000,0,12.000000,0.000000,18.207556,0,0,0,0,0,0,0
0,9999,50,0,50,0,1,9999,0.100000,0,0,0.000000,0,7.000000,0.000000,12.618732,0,0,0,0,0,0,0
0,9999,51,0,51,0,1,9999,0.100000,0,0,0.000000,0,11.000000,0.000000,21.260924,0,0,0,0,0,0,0
0,9999,52,0,52,0,1,9999,0.100000,0,0,0.000000,0,9.000000,0.000000,17.119471,0,0,0,0,0,0,0
0,9999,53,0,53,0,1,9999,0.100000,0,0,0.000000,0,6.000000,0.000000,6.768336,0,0,0,0,0,0,0
0,9999,54,0,54,0,1,9999,0.100000,0,0,0.000000,0,9.000000,0.000000,10.476686,0,0,0,0,0,0,0
0,9999,55,0,55,0,1,9999,0.100000,0,0,0.000000,0,8.000000,0.000000,13.165081,0,0,0,0,0,0,0
0,9999,56,0,56,0,1,9999,0.100000,0,0,0.000000,0,6.000000,0.000000,20.206668,0,0,0,0,0,0,0
0,9999,57,0,57,0,1,9999,0.100000,0,0,0.000000,0,4.000000,0.000000,21.007824,0,0,0,0,0,0,0
0,9999,58,0,58,0,1,9999,0.100000,0,0,0.000000,0,1.000000,0.000000,1.979689,0,0,0,0,0,0,0
0,9999,59,0,59,0,1,9999,0.100000,0,0,0.000000,0,10.000000,0.000000,10.937145,0,0,0,0,0,0,0
0,9999,60,0,60,0,1,9999,0.100000,0,0,0.000000,0,11.000000,0.000000,12.354238,0,0,0,0,0,0,0
0,9999,61,0,61,0,1,9999,0.100000,0,0,0.000000,0,7.000000,0.000000,16.197909,0,0,0,0,0,0,0
0,9999,62,0,62,0,1,9999,0.100000,0,0,0.000000,0,8.000000,0.000000,9.203623,0,0,0,0,0,0,0
0,9999,63,0,63,0,1,9999,0.100000,0,0,0.000000,0,6.000000,0.000000,9.582262,0,0,0,0,0,0,0
0,9999,64,0,64,0,1,9999,0.100000,0,0,0.000000,0,10.000000,0.000000,12.091084,0,0,0,0,0,0,0
0,9999,65,0,65,0,1,9999,0.100000,0,0,0.000000,0,7.000000,0.000000,8.638457,0,0,0,0,0,0,0
0,9999,66,0,66,0,1,9999,0.100000,0,0,0.000000,0,7.000000,0.000000,16.147090,0,0,0,0,0,0,0
0,9999,67,0,67,0,1,9999,0.100000,0,0,0.000000,0,3.000000,0.000000,6.945664,0,0,0,0,0,0,0
0,9999,68,0,68,0,1,9999,0.100000,0,0,0.000000,0,10.000000,0.000000,22.672299,0,0,0,0,0,0,0
0,9999,69,0,69,0,1,9999,0.100000,0,0,0.000000,0,6.000000,0.000000,14.904437,0,0,0,0,0,0,0
0,9999,70,0,70,0,1,9999,0.100000,0,0,0.000000,0,11.000000,0.000000,18.245145,0,0,0,0,0,0,0
0,9999,71,0,71,0,1,9999,0.100000,0,0,0.000000,0,8.000000,0.000000,8.674488,0,0,0,0,0,0,0
0,9999,72,0,72,0,1,9999,0.100000,0,0,0.000000,0,7.000000,0.000000,12.469700,0,0,0,0,0,0,0
0,9999,73,0,73,0,1,9999,0.100000,0,0,0.000000,0,6.000000,0.000000,26.952922,0,0,0,0,0,0,0
0,9999,74,0,74,0,1,9999,0.100000,0,0,0.000000,0,6.000000,0.000000,11.196716,0,0,0,0,0,0,0
0,9999,75,0,75,0,1,9999,0.100000,0,0,0.000000,0,5.000000,0.000000,11.008969,0,0,0,0,0,0,0
0,9999,76,0,76,0,1,9999,0.100000,0,0,0.000000,0,7.000000,0.000000,13.744243,0,0,0,0,0,0,0
0,9999,77,0,77,0,1,9999,0.100000,0,0,0.000000,0,10.000000,0.000000,22.860853,0,0,0,0,0,0,0
0,9999,78,0,78,0,1,9999,0.100000,0,0,0.000000,0,5.000000,0.000000,7.004881,0,0,0,0,0,0,0
0,9999,79,0,79,0,1,9999,0.100000,0,0,0.000000,0,10.000000,0.000000,14.274784,0,0,0,0,0,0,0
0,9999,80,0,80,0,1,9999,0.100000,0,0,0.000000,0,8.000000,0.000000,15.624950,0,0,0,0,0,0,0
0,9999,81,0,81,0,1,9999,0.100000,0,0,0.000000,0,10.000000,0.000000,14.347077,0,0,0,0,0,0,0
0,9999,82,0,82,0,1,9999,0.100000,0,0,0.000000,0,8.000000,0.000000,9.608420,0,0,0,0,0,0,0
0,9999,83,0,83,0,1,9999,0.100000,0,0,0.000000,0,5.000000,0.000000,12.057238,0,0,0,0,0,0,0
0,9999,84,0,84,0,1,9999,0.100000,0,0,0.000000,0,8.000000,0.000000,14.641843,0,0,0,0,0,0,0
0,9999,85,0,85,0,1,9999,0.100000,0,0,0.000000,0,3.000000,0.000000,4.071562,0,0,0,0,0,0,0
0,9999,86,0,86,0,1,9999,0.100000,0,0,0.000000,0,8.000000,0.000000,10.393452,0,0,0,0,0,0,0
0,9999,87,0,87,0,1,9999,0.100000,0,0,0.000000,0,6.000000,0.000000,18.923630,0,0,0,0,0,0,0
0,9999,88,0,88,0,1,9999,0.100000,0,0,0.000000,0,8.000000,0.000000,13.029900,0,0,0,0,0,0,0
0,9999,89,0,89,0,1,9999,0.100000,0,0,0.000000,0,9.000000,0.000000,25.076231,0,0,0,0,0,0,0
0,9999,90,0,90,0,1,9999,0.100000,0,0,0.000000,0,5.000000,0.000000,5.356683,0,0,0,0,0,0,0
0,9999,91,0,91,0,1,9999,0.100000,0,0,0.000000,0,9.000000,0.000000,14.922654,0,0,0,0,0,0,0
0,9999,92,0,92,0,1,9999,0.100000,0,0,0.000000,0,4.000000,0.000000,13.375725,0,0,0,0,0,0,0
0,9999,93,0,93,0,1,9999,0.100000,0,0,0.000000,0,4.000000,0.000000,11.475854,0,0,0,0,0,0,0
0,9999,94,0,94,0,1,9999,0.100000,0,0,0.000000,0,6.000000,0.000000,10.862455,0,0,0,0,0,0,0
0,9999,95,0,95,0,1,9999,0.100000,0,0,0.000000,0,10.000000,0.000000,11.689447,0,0,0,0,0,0,0
0,9999,96,0,96,0,1,9999,0.100000,0,0,0.000000,0,8.000000,0.000000,15.687301,0,0,0,0,0,0,0
0,9999,97,0,97,0,1,9999,0.100000,0,0,0.000000,0,8.000000,0.000000,21.542922,0,0,0,0,0,0,0
0,9999,98,0,98,0,1,9999,0.100000,0,0,0.000000,0,2.000000,0.000000,17.001305,0,0,0,0,0,0,0
0,9999,99,0,99,0,1,9999,0.100000,0,0,0.000000,0,3.000000,0.000000,8.881732,0,0,0,0,0,0,0
1,19999,0,10000,0,0,0,9999,0.100000,0,0,0.000000,1,0.000000,0.000000,0.887231,0,0,0,0,0,0,0
1,19999,1,10000,68,0,0,9999,0.100000,0,0,0.000000,2,0.000000,0.000000,1.784629,0,0,0,0,0,0,0
1,19999,2,10000,68,0,0,9999,0.100000,0,0,0.000000,2,0.000000,0.000000,3.968161,0,0,0,0,0,0,0
1,19999,3,10000,68,0,1,9999,0.100000,0,0,0.000000,2,4.000000,0.000000,11.276116,0,0,0,0,0,0,0
1,19999,4,10000,42,0,1,9999,0.100000,0,0,0.000000,2,1.000000,0.000000,12.111086,0,0,0,0,0,0,0
1,19999,5,10000,42,0,0,9999,0.100000,0,0,0.000000,2,0.000000,0.000000,2.070588,0,0,0,0,0,0,0
1,19999,6,10000,68,0,0,9999,0.100000,0,0,0.000000,2,0.000000,0.000000,0.499928,0,0,0,0,0,0,0
1,19999,7,10000,68,0,1,9999,0.100000,0,0,0.000000,2,1.000000,0.000000,17.297054,0,0,0,0,0,0,0
1,19999,8,10000,68,0,1,9999,0.100000,0,0,0.000000,2,3.000000,0.000000,8.820370,0,0,0,0,0,0,0
1,19999,9,10000,42,0,0,9999,0.100000,0,0,0.000000,2,0.000000,0.000000,0.073799,0,0,0,0,0,0,0
1,19999,10,10000,68,0,0,9999,0.100000,0,0,0.000000,2,0.000000,0.000000,1.042537,0,0,0,0,0,0,0
1,19999,11,10000,68,0,1,9999,0.100000,0,0,0.000000,2,4.000000,0.000000,9.028407,0,0,0,0,0,0,0
1,19999,12,10000,68,0,0,9999,0.100000,0,0,0.000000,2,0.000000,0.000000,0.076699,0,0,0,0,0,0,0
1,19999,13,10000,42,0,0,9999,0.100000,0,0,0.000000,2,0.000000,0.000000,0.307690,0,0,0,0,0,0,0
1,19999,14,10000,42,0,0,9999,0.100000,0,0,0.000000,2,0.000000,0.000000,1.001123,0,0,0,0,0,0,0
1,19999,15,10000,15,0,0,9999,0.100000,0,0,0.000000,2,0.000000,0.000000,0.460937,0,0,0,0,0,0,0
1,19999,16,10000,16,0,0,9999,0.100000,0,0,0.000000,1,0.000000,0.000000,1.032238,0,0,0,0,0,0,0
1,19999,17,10000,68,0,1,9999,0.100000,0,0,0.000000,2,2.000000,0.000000,6.706434,0,0,0,0,0,0,0
1,19999,18,10000,68,0,0,9999,0.100000,0,0,0.000000,2,0.000000,0.000000,0.506819,0,0,0,0,0,0,0
1,19999,19,10000,16,0,0,9999,0.100000,0,0,0.000000,1,0.000000,0.000000,2.390502,0,0,0,0,0,0,0
1,19999,20,10000,15,0,0,9999,0.100000,0,0,0.000000,2,0.000000,0.000000,3.749864,0,0,0,0,0,0,0
1,19999,21,10000,68,0,1,9999,0.100000,0,0,0.000000,2,2.000000,0.000000,18.083553,0,0,0,0,0,0,0
1,19999,22,10000,68,0,1,9999,0.100000,0,0,0.000000,2,3.000000,0.000000,4.487465,0,0,0,0,0,0,0
1,19999,23,10000,68,0,0,9999,0.100000,0,0,0.000000,2,0.000000,0.000000,0.114834,0,0,0,0,0,0,0
1,19999,24,10000,68,0,0,9999,0.100000,0,0,0.000000,2,0.000000,0.000000,1.036438,0,0,0,0,0,0,0
1,19999,25,10000,42,0,0,9999,0.100000,0,0,0.000000,2,0.000000,0.000000,0.115447,0,0,0,0,0,0,0
1,19999,26,10000,68,0,0,9999,0.100000,0,0,0.000000,2,0.000000,0.000000,0.316156,0,0,0,0,0,0,0
1,19999,27,10000,15,0,0,9999,0.100000,0,0,0.000000,2,0.000000,0.000000,0.467534,0,0,0,0,0,0,0
1,19999,28,10000,68,0,1,9999,0.100000,0,0,0.000000,2,1.000000,0.000000,5.281990,0,0,0,0,0,0,0
1,19999,29,10000,42,0,0,9999,0.100000,0,0,0.000000,2,0.000000,0.000000,1.284669,0,0,0,0,0,0,0
1,19999,30,10000,68,0,0,9999,0.100000,0,0,0.000000,2,0.000000,0.000000,0.948317,0,0,0,0,0,0,0
1,19999,31,10000,68,0,0,9999,0.100000,0,0,0.000000,2,0.000000,0.000000,0.114297,0,0,0,0,0,0,0
1,19999,32,10000,15,0,0,9999,0.100000,0,0,0.000000,2,0.000000,0.000000,4.253480,0,0,0,0,0,0,0
1,19999,33,10000,68,0,1,9999,0.100000,0,0,0.000000,2,4.000000,0.000000,7.308043,0,0,0,0,0,0,0
1,19999,34,10000,68,0,0,9999,0.100000,0,0,0.000000,2,0.000000,0.000000,0.250356,0,0,0,0,0,0,0
1,19999,35,10000,68,0,1,9999,0.100000,0,0,0.000000,2,3.000000,0.000000,7.962129,0,0,0,0,0,0,0
1,19999,36,10000,16,0,1,9999,0.100000,0,0,0.000000,1,2.000000,0.000000,17.567636,0,0,0,0,0,0,0
1,19999,37,10000,68,0,0,9999,0.100000,0,0,0.000000,2,0.000000,0.000000,1.789013,0,0,0,0,0,0,0
1,19999,38,10000,16,0,0,9999,0.100000,0,0,0.000000,1,0.000000,0.000000,0.559169,0,0,0,0,0,0,0
1,19999,39,10000,68,0,1,9999,0.100000,0,0,0.000000,2,3.000000,0.000000,9.119368,0,0,0,0,0,0,0
1,19999,40,10000,68,0,0,9999,0.100000,0,0,0.000000,2,0.000000,0.000000,0.095669,0,0,0,0,0,0,0
1,19999,41,10000,68,0,1,9999,0.100000,0,0,0.000000,2,1.000000,0.000000,2.893232,0,0,0,0,0,0,0
1,19999,42,10000,42,0,0,9999,0.100000,0,0,0.000000,1,0.000000,0.000000,0.374507,0,0,0,0,0,0,0
1,19999,43,10000,42,0,0,9999,0.100000,0,0,0.000000,2,0.000000,0.000000,1.649665,0,0,0,0,0,0,0
1,19999,44,10000,15,0,1,9999,0.100000,0,0,0.000000,2,1.000000,0.000000,2.500857,0,0,0,0,0,0,0
1,19999,45,10000,68,0,0,9999,0.100000,0,0,0.000000,2,0.000000,0.000000,2.070590,0,0,0,0,0,0,0
1,19999,46,10000,68,0,1,9999,0.100000,0,0,0.000000,2,1.000000,0.000000,1.508344,0,0,0,0,0,0,0
1,19999,47,10000,68,0,0,9999,0.100000,0,0,0.000000,2,0.000000,0.000000,1.882261,0,0,0,0,0,0,0
1,19999,48,10000,42,0,0,9999,0.100000,0,0,0.000000,1,0.000000,0.000000,10.202327,0,0,0,0,0,0,0
1,19999,49,10000,15,0,0,9999,0.100000,0,0,0.000000,2,0.000000,0.000000,2.625894,0,0,0,0,0,0,0
1,19999,50,10000,15,0,1,9999,0.100000,0,0,0.000000,2,3.000000,0.000000,10.153074,0,0,0,0,0,0,0
1,19999,51,10000,68,0,1,9999,0.100000,0,0,0.000000,2,5.000000,0.000000,8.065242,0,0,0,0,0,0,0
1,19999,52,10000,15,0,0,9999,0.100000,0,0,0.000000,2,0.000000,0.000000,1.215309,0,0,0,0,0,0,0
1,19999,53,10000,15,0,0,9999,0.100000,0,0,0.000000,2,0.000000,0.000000,0.062030,0,0,0,0,0,0,0
1,19999,54,10000,68,0,1,9999,0.100000,0,0,0.000000,2,6.000000,0.000000,20.945624,0,0,0,0,0,0,0
1,19999,55,10000,15,0,1,9999,0.100000,0,0,0.000000,2,3.000000,0.000000,14.819324,0,0,0,0,0,0,0
1,19999,56,10000,15,0,1,9999,0.100000,0,0,0.000000,2,2.000000,0.000000,15.386915,0,0,0,0,0,0,0
1,19999,57,10000,68,0,1,9999,0.100000,0,0,0.000000,2,1.000000,0.000000,2.784190,0,0,0,0,0,0,0
1,19999,58,10000,68,0,0,9999,0.100000,0,0,0.000000,2,0.000000,0.000000,0.173331,0,0,0,0,0,0,0
1,19999,59,10000,15,0,0,9999,0.100000,0,0,0.000000,2,0.000000,0.000000,0.702047,0,0,0,0,0,0,0
1,19999,60,10000,15,0,0,9999,0.100000,0,0,0.000000,2,0.000000,0.000000,0.090719,0,0,0,0,0,0,0
1,19999,61,10000,42,0,1,9999,0.100000,0,0,0.000000,2,1.000000,0.000000,2.371099,0,0,0,0,0,0,0
1,19999,62,10000,42,0,0,9999,0.100000,0,0,0.000000,2,0.000000,0.000000,0.094301,0,0,0,0,0,0,0
1,19999,63,10000,68,0,0,9999,0.100000,0,0,0.000000,2,0.000000,0.000000,0.111610,0,0,0,0,0,0,0
1,19999,64,10000,15,0,1,9999,0.100000,0,0,0.000000,2,7.000000,0.000000,19.789215,0,0,0,0,0,0,0
1,19999,65,10000,68,0,1,9999,0.100000,0,0,0.000000,2,1.000000,0.000000,2.346086,0,0,0,0,0,0,0
1,19999,66,10000,42,0,1,9999,0.100000,0,0,0.000000,2,1.000000,0.000000,17.380931,0,0,0,0,0,0,0
1,19999,67,10000,42,0,0,9999,0.100000,0,0,0.000000,2,0.000000,0.000000,0.906997,0,0,0,0,0,0,0
1,19999,68,10000,42,0,1,9999,0.100000,0,0,0.000000,2,10.000000,0.000000,17.379732,0,0,0,0,0,0,0
1,19999,69,10000,15,0,1,9999,0.100000,0,0,0.000000,2,2.000000,0.000000,7.155010,0,0,0,0,0,0,0
1,19999,70,10000,15,0,0,9999,0.100000,0,0,0.000000,2,0.000000,0.000000,2.289857,0,0,0,0,0,0,0
1,19999,71,10000,42,0,0,9999,0.100000,0,0,0.000000,2,0.000000,0.000000,0.100113,0,0,0,0,0,0,0
1,19999,72,10000,15,0,0,9999,0.100000,0,0,0.000000,2,0.000000,0.000000,0.154046,0,0,0,0,0,0,0
1,19999,73,10000,42,0,3,9999,0.100000,0,0,34.210526,2,5.000000,0.000000,15.560549,0,0,1,0,0,0,0
1,19999,74,10000,68,0,1,9999,0.100000,0,0,0.000000,2,1.000000,0.000000,12.496703,0,0,0,0,0,0,0
1,19999,75,10000,68,0,0,9999,0.100000,0,0,0.000000,2,0.000000,0.000000,0.692511,0,0,0,0,0,0,0
1,19999,76,10000,42,0,1,9999,0.100000,0,0,0.000000,2,4.000000,0.000000,21.962297,0,0,0,0,0,0,0
1,19999,77,10000,15,0,1,9999,0.100000,0,0,0.000000,2,1.000000,0.000000,5.101828,0,0,0,0,0,0,0
1,19999,78,10000,68,0,1,9999,0.100000,0,0,0.000000,2,1.000000,0.000000,6.169891,0,0,0,0,0,0,0
1,19999,79,10000,15,0,0,9999,0.100000,0,0,0.000000,2,0.000000,0.000000,0.089185,0,0,0,0,0,0,0
1,19999,80,10000,15,0,1,9999,0.100000,0,0,0.000000,2,1.000000,0.000000,6.306819,0,0,0,0,0,0,0
1,19999,81,10000,15,0,0,9999,0.100000,0,0,0.000000,2,0.000000,0.000000,0.317088,0,0,0,0,0,0,0
1,19999,82,10000,42,0,0,9999,0.100000,0,0,0.000000,2,0.000000,0.000000,1.284318,0,0,0,0,0,0,0
1,19999,83,10000,68,0,1,9999,0.100000,0,0,0.000000,2,1.000000,0.000000,8.916712,0,0,0,0,0,0,0
1,19999,84,10000,15,0,1,9999,0.100000,0,0,0.000000,2,7.000000,0.000000,29.714108,0,0,0,0,0,0,0
1,19999,85,10000,15,0,0,9999,0.100000,0,0,0.000000,2,0.000000,0.000000,0.845178,0,0,0,0,0,0,0
1,19999,86,10000,68,0,0,9999,0.100000,0,0,0.000000,2,0.000000,0.000000,0.303167,0,0,0,0,0,0,0
1,19999,87,10000,15,0,1,9999,0.100000,0,0,0.000000,2,2.000000,0.000000,10.008859,0,0,0,0,0,0,0
1,19999,88,10000,68,0,1,9999,0.100000,0,0,0.000000,2,2.000000,0.000000,5.250217,0,0,0,0,0,0,0
1,19999,89,10000,68,0,1,9999,0.100000,0,0,0.000000,2,2.000000,0.000000,5.097647,0,0,0,0,0,0,0
1,19999,90,10000,42,0,0,9999,0.100000,0,0,0.000000,2,0.000000,0.000000,0.187275,0,0,0,0,0,0,0
1,19999,91,10000,15,0,1,9999,0.100000,0,0,0.000000,2,2.000000,0.000000,8.859821,0,0,0,0,0,0,0
1,19999,92,10000,15,0,1,9999,0.100000,0,0,0.000000,2,1.000000,0.000000,7.723192,0,0,0,0,0,0,0
1,19999,93,10000,68,0,0,9999,0.100000,0,0,0.000000,2,0.000000,0.000000,0.972671,0,0,0,0,0,0,0
1,19999,94,10000,42,0,1,9999,0.100000,0,0,0.000000,2,1.000000,0.000000,5.077773,0,0,0,0,0,0,0
1,19999,95,10000,15,0,0,9999,0.100000,0,0,0.000000,2,0.000000,0.000000,0.965549,0,0,0,0,0,0,0
1,19999,96,10000,42,0,1,9999,0.100000,0,0,0.000000,2,2.000000,0.000000,17.772462,0,0,0,0,0,0,0
1,19999,97,10000,68,0,1,9999,0.100000,0,0,0.000000,2,2.000000,0.000000,6.391869,0,0,0,0,0,0,0
1,19999,98,10000,42,0,0,9999,0.100000,0,0,0.000000,2,0.000000,0.000000,1.563337,0,0,0,0,0,0,0
1,19999,99,10000,42,0,1,9999,0.100000,0,0,0.000000,2,4.000000,0.000000,16.521334,0,0,0,0,0,0,0
2,29999,0,20000,15,0,0,9999,0.100000,0,0,0.000000,3,0.000000,0.000000,2.477043,0,0,0,0,0,0,0
2,29999,1,20000,15,0,1,9999,0.100000,0,0,0.000000,3,2.000000,0.000000,6.277928,0,0,0,0,0,0,0
2,29999,2,20000,15,0,0,9999,0.100000,0,0,0.000000,3,0.000000,0.000000,8.113919,0,0,0,0,0,0,0
2,29999,3,20000,15,0,0,9999,0.100000,0,0,0.000000,3,0.000000,0.000000,2.657529,0,0,0,0,0,0,0
2,29999,4,20000,68,0,0,9999,0.100000,0,0,0.000000,3,0.000000,0.000000,2.462350,0,0,0,0,0,0,0
2,29999,5,20000,5,10000,0,9999,0.100000,0,0,0.000000,3,0.000000,0.000000,1.620861,0,0,0,0,0,0,0
2,29999,6,20000,59,10000,0,9999,0.100000,0,0,0.000000,3,0.000000,0.000000,0.453238,0,0,0,0,0,0,0
2,29999,7,20000,25,10000,1,9999,0.100000,0,0,0.000000,3,3.000000,0.000000,24.855552,0,0,0,0,0,0,0
2,29999,8,20000,15,0,1,9999,0.100000,0,0,0.000000,3,2.000000,0.000000,5.807984,0,0,0,0,0,0,0
2,29999,9,20000,15,0,0,9999,0.100000,0,0,0.000000,3,0.000000,0.000000,0.076504,0,0,0,0,0,0,0
2,29999,10,20000,15,10000,0,9999,0.100000,0,0,0.000000,3,0.000000,0.000000,1.299933,0,0,0,0,0,0,0
2,29999,11,20000,5,10000,0,9999,0.100000,0,0,0.000000,3,0.000000,0.000000,0.243945,0,0,0,0,0,0,0
2,29999,12,20000,25,10000,0,9999,0.100000,0,0,0.000000,3,0.000000,0.000000,0.073104,0,0,0,0,0,0,0
2,29999,13,20000,15,0,0,9999,0.100000,0,0,0.000000,3,0.000000,0.000000,0.087422,0,0,0,0,0,0,0
2,29999,14,20000,15,0,0,9999,0.100000,0,0,0.000000,3,0.000000,0.000000,1.776043,0,0,0,0,0,0,0
2,29999,15,20000,15,10000,0,9999,0.100000,0,0,0.000000,3,0.000000,0.000000,0.296187,0,0,0,0,0,0,0
2,29999,16,20000,15,0,0,9999,0.100000,0,0,0.000000,3,0.000000,0.000000,1.063650,0,0,0,0,0,0,0
2,29999,17,20000,81,10000,0,9999,0.100000,0,0,0.000000,3,0.000000,0.000000,0.078664,0,0,0,0,0,0,0
2,29999,18,20000,68,0,0,9999,0.100000,0,0,0.000000,3,0.000000,0.000000,0.562921,0,0,0,0,0,0,0
2,29999,19,20000,15,0,0,9999,0.100000,0,0,0.000000,3,0.000000,0.000000,3.231640,0,0,0,0,0,0,0
2,29999,20,20000,68,0,0,9999,0.100000,0,0,0.000000,3,0.000000,0.000000,0.251481,0,0,0,0,0,0,0
2,29999,21,20000,81,10000,1,9999,0.100000,0,0,0.000000,3,4.000000,0.000000,14.092560,0,0,0,0,0,0,0
2,29999,22,20000,15,0,0,9999,0.100000,0,0,0.000000,3,0.000000,0.000000,2.355427,0,0,0,0,0,0,0
2,29999,23,20000,81,10000,0,9999,0.100000,0,0,0.000000,3,0.000000,0.000000,0.148971,0,0,0,0,0,0,0
2,29999,24,20000,59,10000,0,9999,0.100000,0,0,0.000000,3,0.000000,0.000000,0.643453,0,0,0,0,0,0,0
2,29999,25,20000,25,10000,0,9999,0.100000,0,0,0.000000,3,0.000000,0.000000,0.100189,0,0,0,0,0,0,0
2,29999,26,20000,68,0,0,9999,0.100000,0,0,0.000000,3,0.000000,0.000000,1.145606,0,0,0,0,0,0,0
2,29999,27,20000,68,0,0,9999,0.100000,0,0,0.000000,3,0.000000,0.000000,0.359966,0,0,0,0,0,0,0
2,29999,28,20000,25,10000,0,9999,0.100000,0,0,0.000000,3,0.000000,0.000000,1.355336,0,0,0,0,0,0,0
2,29999,29,20000,25,10000,1,9999,0.100000,0,0,0.000000,3,1.000000,0.000000,6.489603,0,0,0,0,0,0,0
2,29999,30,20000,68,0,0,9999,0.100000,0,0,0.000000,3,0.000000,0.000000,0.725160,0,0,0,0,0,0,0
2,29999,31,20000,15,0,0,9999,0.100000,0,0,0.000000,3,0.000000,0.000000,0.102621,0,0,0,0,0,0,0
2,29999,32,20000,59,10000,0,9999,0.100000,0,0,0.000000,3,0.000000,0.000000,5.120699,0,0,0,0,0,0,0
2,29999,33,20000,41,10000,0,9999,0.100000,0,0,0.000000,3,0.000000,0.000000,0.259986,0,0,0,0,0,0,0
2,29999,34,20000,41,10000,0,9999,0.100000,0,0,0.000000,3,0.000000,0.000000,0.594652,0,0,0,0,0,0,0
2,29999,35,20000,68,0,0,9999,0.100000,0,0,0.000000,3,0.000000,0.000000,1.523736,0,0,0,0,0,0,0
2,29999,36,20000,68,0,1,9999,0.100000,0,0,0.000000,3,3.000000,0.000000,6.543335,0,0,0,0,0,0,0
2,29999,37,20000,25,10000,0,9999,0.100000,0,0,0.000000,3,0.000000,0.000000,1.817522,0,0,0,0,0,0,0
2,29999,38,20000,25,10000,0,9999,0.100000,0,0,0.000000,3,0.000000,0.000000,0.191206,0,0,0,0,0,0,0
2,29999,39,20000,81,10000,1,9999,0.100000,0,0,0.000000,3,6.000000,0.000000,6.551752,0,0,0,0,0,0,0
2,29999,40,20000,25,10000,0,9999,0.100000,0,0,0.000000,3,0.000000,0.000000,0.673148,0,0,0,0,0,0,0
2,29999,41,20000,68,0,0,9999,0.100000,0,0,0.000000,3,0.000000,0.000000,0.895876,0,0,0,0,0,0,0
2,29999,42,20000,25,10000,0,9999,0.100000,0,0,0.000000,3,0.000000,0.000000,0.980206,0,0,0,0,0,0,0
2,29999,43,20000,15,0,0,9999,0.100000,0,0,0.000000,3,0.000000,0.000000,0.069182,0,0,0,0,0,0,0
2,29999,44,20000,68,0,0,9999,0.100000,0,0,0.000000,3,0.000000,0.000000,0.369789,0,0,0,0,0,0,0
2,29999,45,20000,15,0,1,9999,0.100000,0,0,0.000000,3,1.000000,0.000000,2.025933,0,0,0,0,0,0,0
2,29999,46,20000,81,10000,0,9999,0.100000,0,0,0.000000,3,0.000000,0.000000,2.131991,0,0,0,0,0,0,0
2,29999,47,20000,81,10000,0,9999,0.100000,0,0,0.000000,3,0.000000,0.000000,0.068203,0,0,0,0,0,0,0
2,29999,48,20000,68,0,1,9999,0.100000,0,0,0.000000,3,6.000000,0.000000,6.506869,0,0,0,0,0,0,0
2,29999,49,20000,68,0,0,9999,0.100000,0,0,0.000000,3,0.000000,0.000000,0.241693,0,0,0,0,0,0,0
2,29999,50,20000,15,0,1,9999,0.100000,0,0,0.000000,3,3.000000,0.000000,4.651783,0,0,0,0,0,0,0
2,29999,51,20000,68,0,0,9999,0.100000,0,0,0.000000,3,0.000000,0.000000,1.125821,0,0,0,0,0,0,0
2,29999,52,20000,25,10000,1,9999,0.100000,0,0,0.000000,3,1.000000,0.000000,4.177413,0,0,0,0,0,0,0
2,29999,53,20000,15,0,0,9999,0.100000,0,0,0.000000,3,0.000000,0.000000,0.061505,0,0,0,0,0,0,0
2,29999,54,20000,25,10000,1,9999,0.100000,0,0,0.000000,3,1.000000,0.000000,1.981804,0,0,0,0,0,0,0
2,29999,55,20000,81,10000,1,9999,0.100000,0,0,0.000000,3,4.000000,0.000000,13.895569,0,0,0,0,0,0,0
2,29999,56,20000,41,10000,0,9999,0.100000,0,0,0.000000,3,0.000000,0.000000,7.654727,0,0,0,0,0,0,0
2,29999,57,20000,41,10000,0,9999,0.100000,0,0,0.000000,3,0.000000,0.000000,4.205635,0,0,0,0,0,0,0
2,29999,58,20000,81,10000,0,9999,0.100000,0,0,0.000000,3,0.000000,0.000000,0.381686,0,0,0,0,0,0,0
2,29999,59,20000,15,0,0,9999,0.100000,0,0,0.000000,3,0.000000,0.000000,0.909618,0,0,0,0,0,0,0
2,29999,60,20000,81,10000,0,9999,0.100000,0,0,0.000000,3,0.000000,0.000000,0.094659,0,0,0,0,0,0,0
2,29999,61,20000,68,0,1,9999,0.100000,0,0,0.000000,3,1.000000,0.000000,1.564321,0,0,0,0,0,0,0
2,29999,62,20000,15,0,0,9999,0.100000,0,0,0.000000,3,0.000000,0.000000,0.231569,0,0,0,0,0,0,0
2,29999,63,20000,25,10000,0,9999,0.100000,0,0,0.000000,3,0.000000,0.000000,0.675694,0,0,0,0,0,0,0
2,29999,64,20000,81,10000,0,9999,0.100000,0,0,0.000000,3,0.000000,0.000000,0.804565,0,0,0,0,0,0,0
2,29999,65,20000,41,10000,1,9999,0.100000,0,0,0.000000,3,6.000000,0.000000,6.569138,0,0,0,0,0,0,0
2,29999,66,20000,15,0,0,9999,0.100000,0,0,0.000000,3,0.000000,0.000000,0.740806,0,0,0,0,0,0,0
2,29999,67,20000,68,0,0,9999,0.100000,0,0,0.000000,3,0.000000,0.000000,0.996619,0,0,0,0,0,0,0
2,29999,68,20000,68,0,3,9999,0.100000,0,0,34.210526,3,5.000000,0.000000,17.132873,0,0,1,0,0,0,0
2,29999,69,20000,25,10000,1,9999,0.100000,0,0,0.000000,3,1.000000,0.000000,5.765064,0,0,0,0,0,0,0
2,29999,70,20000,68,0,0,9999,0.100000,0,0,0.000000,3,0.000000,0.000000,0.529993,0,0,0,0,0,0,0
2,29999,71,20000,81,10000,0,9999,0.100000,0,0,0.000000,3,0.000000,0.000000,0.099085,0,0,0,0,0,0,0
2,29999,72,20000,25,10000,0,9999,0.100000,0,0,0.000000,3,0.000000,0.000000,0.178482,0,0,0,0,0,0,0
2,29999,73,20000,15,10000,1,9999,0.100000,0,0,0.000000,3,1.000000,0.000000,6.027895,0,0,0,0,0,0,0
2,29999,74,20000,68,0,0,9999,0.100000,0,0,0.000000,3,0.000000,0.000000,1.116928,0,0,0,0,0,0,0
2,29999,75,20000,81,10000,0,9999,0.100000,0,0,0.000000,3,0.000000,0.000000,0.651655,0,0,0,0,0,0,0
2,29999,76,20000,25,10000,1,9999,0.100000,0,0,0.000000,3,1.000000,0.000000,11.739544,0,0,0,0,0,0,0
2,29999,77,20000,41,10000,1,9999,0.100000,0,0,0.000000,3,9.000000,0.000000,16.580380,0,0,0,0,0,0,0
2,29999,78,20000,41,10000,0,9999,0.100000,0,0,0.000000,3,0.000000,0.000000,0.099546,0,0,0,0,0,0,0
2,29999,79,20000,68,0,0,9999,0.100000,0,0,0.000000,3,0.000000,0.000000,0.087905,0,0,0,0,0,0,0
2,29999,80,20000,59,10000,1,9999,0.100000,0,0,0.000000,3,1.000000,0.000000,2.354523,0,0,0,0,0,0,0
2,29999,81,20000,68,0,0,9999,0.100000,0,0,0.000000,3,0.000000,0.000000,0.172868,0,0,0,0,0,0,0
2,29999,82,20000,68,0,0,9999,0.100000,0,0,0.000000,3,0.000000,0.000000,0.411833,0,0,0,0,0,0,0
2,29999,83,20000,25,10000,0,9999,0.065000,0,0,0.000000,3,0.000000,0.000000,0.303925,0,0,0,0,0,0,0
2,29999,84,20000,25,10000,1,9999,0.100000,0,0,0.000000,3,9.000000,0.000000,18.107889,0,0,0,0,0,0,0
2,29999,85,20000,41,10000,0,9999,0.100000,0,0,0.000000,3,0.000000,0.000000,0.805165,0,0,0,0,0,0,0
2,29999,86,20000,25,10000,1,9999,0.100000,0,0,0.000000,3,1.000000,0.000000,1.248928,0,0,0,0,0,0,0
2,29999,87,20000,41,10000,0,9999,0.100000,0,0,0.000000,3,0.000000,0.000000,0.558441,0,0,0,0,0,0,0
2,29999,88,20000,15,0,1,9999,0.100000,0,0,0.000000,3,3.000000,0.000000,8.804112,0,0,0,0,0,0,0
2,29999,89,20000,68,0,1,9999,0.100000,0,0,0.000000,3,3.000000,0.000000,5.860320,0,0,0,0,0,0,0
2,29999,90,20000,41,10000,0,9999,0.100000,0,0,0.000000,3,0.000000,0.000000,0.208651,0,0,0,0,0,0,0
2,29999,91,20000,15,0,0,9999,0.100000,0,0,0.000000,3,0.000000,0.000000,4.692855,0,0,0,0,0,0,0
2,29999,92,20000,68,0,1,9999,0.100000,0,0,0.000000,3,4.000000,0.000000,16.963198,0,0,0,0,0,0,0
2,29999,93,20000,68,0,0,9999,0.100000,0,0,0.000000,3,0.000000,0.000000,0.184320,0,0,0,0,0,0,0
2,29999,94,20000,68,0,0,9999,0.100000,0,0,0.000000,3,0.000000,0.000000,1.150271,0,0,0,0,0,0,0
2,29999,95,20000,25,10000,0,9999,0.100000,0,0,0.000000,3,0.000000,0.000000,0.883699,0,0,0,0,0,0,0
2,29999,96,20000,15,0,0,9999,0.100000,0,0,0.000000,3,0.000000,0.000000,5.075245,0,0,0,0,0,0,0
2,29999,97,20000,41,10000,0,9999,0.100000,0,0,0.000000,3,0.000000,0.000000,2.037660,0,0,0,0,0,0,0
2,29999,98,20000,81,10000,0,9999,0.100000,0,0,0.000000,3,0.000000,0.000000,0.783306,0,0,0,0,0,0,0
2,29999,99,20000,15,0,0,9999,0.100000,0,0,0.000000,3,0.000000,0.000000,6.317654,0,0,0,0,0,0,0
3,39999,0,30000,81,10000,0,9999,0.100000,0,0,0.000000,3,0.000000,0.000000,0.550044,0,0,0,0,0,0,0
3,39999,1,30000,68,0,1,9999,0.100000,0,0,0.000000,3,1.000000,0.000000,8.048842,0,0,0,0,0,0,0
3,39999,2,30000,68,0,0,9999,0.100000,0,0,0.000000,3,0.000000,0.000000,0.232183,0,0,0,0,0,0,0
3,39999,3,30000,41,20000,0,9999,0.100000,0,0,0.000000,3,0.000000,0.000000,4.837784,0,0,0,0,0,0,0
3,39999,4,30000,81,10000,1,9999,0.100000,0,0,0.000000,3,5.000000,0.000000,8.072960,0,0,0,0,0,0,0
3,39999,5,30000,68,0,0,9999,0.100000,0,0,0.000000,3,0.000000,0.000000,0.290853,0,0,0,0,0,0,0
3,39999,6,30000,81,10000,0,9999,0.100000,0,0,0.000000,3,0.000000,0.000000,0.452343,0,0,0,0,0,0,0
3,39999,7,30000,41,10000,0,9999,0.100000,0,0,0.000000,3,0.000000,0.000000,23.886226,0,0,0,0,0,0,0
3,39999,8,30000,68,0,0,9999,0.100000,0,0,0.000000,3,0.000000,0.000000,0.151565,0,0,0,0,0,0,0
3,39999,9,30000,68,0,0,9999,0.100000,0,0,0.000000,3,0.000000,0.000000,0.075331,0,0,0,0,0,0,0
3,39999,10,30000,68,0,0,9999,0.100000,0,0,0.000000,3,0.000000,0.000000,1.883994,0,0,0,0,0,0,0
3,39999,11,30000,81,10000,0,9999,0.100000,0,0,0.000000,3,0.000000,0.000000,0.236433,0,0,0,0,0,0,0
3,39999,12,30000,68,0,0,9999,0.100000,0,0,0.000000,3,0.000000,0.000000,0.073182,0,0,0,0,0,0,0
3,39999,13,30000,8,20000,0,9999,0.100000,0,0,0.000000,3,0.000000,0.000000,0.074857,0,0,0,0,0,0,0
3,39999,14,30000,8,20000,0,9999,0.100000,0,0,0.000000,3,0.000000,0.000000,7.533333,0,0,0,0,0,0,0
3,39999,15,30000,68,0,0,9999,0.100000,0,0,0.000000,3,0.000000,0.000000,1.686084,0,0,0,0,0,0,0
3,39999,16,30000,81,10000,1,9999,0.100000,0,0,0.000000,3,1.000000,0.000000,3.624189,0,0,0,0,0,0,0
3,39999,17,30000,41,20000,0,9999,0.100000,0,0,0.000000,3,0.000000,0.000000,0.078144,0,0,0,0,0,0,0
3,39999,18,30000,41,10000,1,9999,0.100000,0,0,0.000000,3,1.000000,0.000000,1.274216,0,0,0,0,0,0,0
3,39999,19,30000,68,0,0,9999,0.100000,0,0,0.000000,3,0.000000,0.000000,0.304884,0,0,0,0,0,0,0
3,39999,20,30000,8,20000,0,9999,0.100000,0,0,0.000000,3,0.000000,0.000000,0.780586,0,0,0,0,0,0,0
3,39999,21,30000,68,0,0,9999,0.100000,0,0,0.000000,3,0.000000,0.000000,0.432224,0,0,0,0,0,0,0
3,39999,22,30000,68,0,0,9999,0.100000,0,0,0.000000,3,0.000000,0.000000,2.231113,0,0,0,0,0,0,0
3,39999,23,30000,68,0,0,9999,0.100000,0,0,0.000000,3,0.000000,0.000000,0.152506,0,0,0,0,0,0,0
3,39999,24,30000,8,20000,0,9999,0.100000,0,0,0.000000,3,0.000000,0.000000,1.037396,0,0,0,0,0,0,0
3,39999,25,30000,68,0,0,9999,0.100000,0,0,0.000000,3,0.000000,0.000000,0.109046,0,0,0,0,0,0,0
3,39999,26,30000,8,20000,0,9999,0.100000,0,0,0.000000,3,0.000000,0.000000,0.380035,0,0,0,0,0,0,0
3,39999,27,30000,81,10000,0,9999,0.100000,0,0,0.000000,3,0.000000,0.000000,0.409199,0,0,0,0,0,0,0
3,39999,28,30000,41,10000,0,9999,0.100000,0,0,0.000000,3,0.000000,0.000000,4.750207,0,0,0,0,0,0,0
3,39999,29,30000,41,10000,1,9999,0.100000,0,0,0.000000,3,2.000000,0.000000,15.948216,0,0,0,0,0,0,0
3,39999,30,30000,81,10000,1,9999,0.100000,0,0,0.000000,3,3.000000,0.000000,13.243801,0,0,0,0,0,0,0
3,39999,31,30000,81,10000,0,9999,0.100000,0,0,0.000000,3,0.000000,0.000000,0.145587,0,0,0,0,0,0,0
3,39999,32,30000,68,0,1,9999,0.100000,0,0,0.000000,3,3.000000,0.000000,12.103758,0,0,0,0,0,0,0
3,39999,33,30000,68,0,0,9999,0.100000,0,0,0.000000,3,0.000000,0.000000,0.159766,0,0,0,0,0,0,0
3,39999,34,30000,8,20000,0,9999,0.100000,0,0,0.000000,3,0.000000,0.000000,0.204510,0,0,0,0,0,0,0
3,39999,35,30000,81,10000,0,9999,0.100000,0,0,0.000000,3,0.000000,0.000000,0.640293,0,0,0,0,0,0,0
3,39999,36,30000,8,20000,0,9999,0.100000,0,0,0.000000,3,0.000000,0.000000,1.104173,0,0,0,0,0,0,0
3,39999,37,30000,41,10000,0,9999,0.100000,0,0,0.000000,3,0.000000,0.000000,0.396428,0,0,0,0,0,0,0
3,39999,38,30000,81,10000,0,9999,0.100000,0,0,0.000000,3,0.000000,0.000000,0.089539,0,0,0,0,0,0,0
3,39999,39,30000,68,0,1,9999,0.100000,0,0,34.210526,3,7.000000,0.000000,16.351325,0,0,0,0,1,0,0
3,39999,40,30000,81,10000,0,9999,0.100000,0,0,0.000000,3,0.000000,0.000000,0.195717,0,0,0,0,0,0,0
3,39999,41,30000,41,20000,0,9999,0.100000,0,0,0.000000,3,0.000000,0.000000,0.804539,0,0,0,0,0,0,0
3,39999,42,30000,81,10000,0,9999,0.100000,0,0,0.000000,3,0.000000,0.000000,1.148392,0,0,0,0,0,0,0
3,39999,43,30000,81,10000,0,9999,0.100000,0,0,0.000000,3,0.000000,0.000000,0.069160,0,0,0,0,0,0,0
3,39999,44,30000,8,20000,0,9999,0.100000,0,0,0.000000,3,0.000000,0.000000,0.403125,0,0,0,0,0,0,0
3,39999,45,30000,41,10000,0,9999,0.100000,0,0,0.000000,3,0.000000,0.000000,0.941601,0,0,0,0,0,0,0
3,39999,46,30000,68,0,1,9999,0.100000,0,0,0.000000,3,3.000000,0.000000,5.611410,0,0,0,0,0,0,0
3,39999,47,30000,8,20000,0,9999,0.100000,0,0,0.000000,3,0.000000,0.000000,0.162403,0,0,0,0,0,0,0
3,39999,48,30000,8,20000,1,9999,0.100000,0,0,34.210526,3,7.000000,0.000000,13.410233,0,0,0,0,1,0,0
3,39999,49,30000,68,0,0,9999,0.100000,0,0,0.000000,3,0.000000,0.000000,0.246316,0,0,0,0,0,0,0
3,39999,50,30000,81,10000,0,9999,0.100000,0,0,0.000000,3,0.000000,0.000000,0.292043,0,0,0,0,0,0,0
3,39999,51,30000,68,0,0,9999,0.100000,0,0,0.000000,3,0.000000,0.000000,1.082546,0,0,0,0,0,0,0
3,39999,52,30000,8,20000,0,9999,0.100000,0,0,0.000000,3,0.000000,0.000000,0.239869,0,0,0,0,0,0,0
3,39999,53,30000,41,10000,0,9999,0.100000,0,0,0.000000,3,0.000000,0.000000,0.061639,0,0,0,0,0,0,0
3,39999,54,30000,68,0,0,9999,0.100000,0,0,0.000000,3,0.000000,0.000000,0.397149,0,0,0,0,0,0,0
3,39999,55,30000,8,20000,0,9999,0.100000,0,0,0.000000,3,0.000000,0.000000,23.016727,0,0,0,0,0,0,0
3,39999,56,30000,8,20000,0,9999,0.100000,0,0,0.000000,3,0.000000,0.000000,1.887053,0,0,0,0,0,0,0
3,39999,57,30000,41,10000,0,9999,0.100000,0,0,0.000000,3,0.000000,0.000000,1.380905,0,0,0,0,0,0,0
3,39999,58,30000,41,10000,1,9999,0.100000,0,0,0.000000,3,1.000000,0.000000,1.896062,0,0,0,0,0,0,0
3,39999,59,30000,68,0,0,9999,0.100000,0,0,0.000000,3,0.000000,0.000000,0.856665,0,0,0,0,0,0,0
3,39999,60,30000,81,10000,0,9999,0.100000,0,0,0.000000,3,0.000000,0.000000,0.089487,0,0,0,0,0,0,0
3,39999,61,30000,68,0,1,9999,0.100000,0,0,0.000000,3,3.000000,0.000000,20.512235,0,0,0,1,0,0,0
3,39999,62,30000,81,10000,0,9999,0.100000,0,0,0.000000,3,0.000000,0.000000,0.433302,0,0,0,0,0,0,0
3,39999,63,30000,81,10000,0,9999,0.100000,0,0,0.000000,3,0.000000,0.000000,0.164904,0,0,0,0,0,0,0
3,39999,64,30000,68,0,0,9999,0.100000,0,0,0.000000,3,0.000000,0.000000,1.191325,0,0,0,0,0,0,0
3,39999,65,30000,8,20000,1,9999,0.100000,0,0,34.210526,3,7.000000,0.000000,13.173889,0,0,0,0,1,0,0
3,39999,66,30000,81,10000,0,9999,0.100000,0,0,0.000000,3,0.000000,0.000000,0.656791,0,0,0,0,0,0,0
3,39999,67,30000,8,20000,0,9999,0.100000,0,0,0.000000,3,0.000000,0.000000,1.003662,0,0,0,0,0,0,0
3,39999,68,30000,68,0,1,9999,0.100000,0,0,0.000000,3,3.000000,0.000000,10.728900,0,0,0,0,0,0,0
3,39999,69,30000,68,0,0,9999,0.100000,0,0,0.000000,3,0.000000,0.000000,1.679159,0,0,0,0,0,0,0
3,39999,70,30000,68,0,0,9999,0.100000,0,0,0.000000,3,0.000000,0.000000,2.542980,0,0,0,0,0,0,0
3,39999,71,30000,41,10000,0,9999,0.100000,0,0,0.000000,3,0.000000,0.000000,0.097607,0,0,0,0,0,0,0
3,39999,72,30000,41,10000,0,9999,0.100000,0,0,0.000000,3,0.000000,0.000000,0.167749,0,0,0,0,0,0,0
3,39999,73,30000,41,20000,0,9999,0.100000,0,0,0.000000,3,0.000000,0.000000,19.989312,0,0,0,0,0,0,0
3,39999,74,30000,68,0,0,9999,0.100000,0,0,0.000000,3,0.000000,0.000000,1.898178,0,0,0,0,0,0,0
3,39999,75,30000,68,0,0,9999,0.100000,0,0,0.000000,3,0.000000,0.000000,0.672467,0,0,0,0,0,0,0
3,39999,76,30000,41,20000,1,9999,0.100000,0,0,0.000000,3,1.000000,0.000000,19.823274,0,0,0,0,0,0,0
3,39999,77,30000,68,0,1,9999,0.100000,0,0,0.000000,3,1.000000,0.000000,11.525252,0,0,0,0,0,0,0
3,39999,78,30000,41,10000,0,9999,0.100000,0,0,0.000000,3,0.000000,0.000000,0.074448,0,0,0,0,0,0,0
3,39999,79,30000,41,20000,0,9999,0.100000,0,0,0.000000,3,0.000000,0.000000,0.089570,0,0,0,0,0,0,0
3,39999,80,30000,8,20000,0,9999,0.100000,0,0,0.000000,3,0.000000,0.000000,1.614740,0,0,0,0,0,0,0
3,39999,81,30000,68,0,0,9999,0.100000,0,0,0.000000,3,0.000000,0.000000,0.170846,0,0,0,0,0,0,0
3,39999,82,30000,81,10000,0,9999,0.100000,0,0,0.000000,3,0.000000,0.000000,0.179790,0,0,0,0,0,0,0
3,39999,83,30000,68,0,0,9999,0.100000,0,0,0.000000,3,0.000000,0.000000,0.172737,0,0,0,0,0,0,0
3,39999,84,30000,68,0,1,9999,0.100000,0,0,0.000000,3,2.000000,0.000000,18.058283,0,0,0,1,0,0,0
3,39999,85,30000,8,20000,0,9999,0.100000,0,0,0.000000,3,0.000000,0.000000,0.638611,0,0,0,0,0,0,0
3,39999,86,30000,68,0,0,9999,0.100000,0,0,0.000000,3,0.000000,0.000000,0.484831,0,0,0,0,0,0,0
3,39999,87,30000,41,10000,0,9999,0.100000,0,0,0.000000,3,0.000000,0.000000,0.601893,0,0,0,0,0,0,0
3,39999,88,30000,41,20000,0,9999,0.100000,0,0,0.000000,3,0.000000,0.000000,1.202728,0,0,0,0,0,0,0
3,39999,89,30000,8,20000,0,9999,0.100000,0,0,0.000000,3,0.000000,0.000000,1.242153,0,0,0,0,0,0,0
3,39999,90,30000,8,20000,0,9999,0.100000,0,0,0.000000,3,0.000000,0.000000,0.193553,0,0,0,0,0,0,0
3,39999,91,30000,41,10000,1,9999,0.100000,0,0,0.000000,3,2.000000,0.000000,4.359340,0,0,0,0,0,0,0
3,39999,92,30000,68,0,0,9999,0.100000,0,0,0.000000,3,0.000000,0.000000,0.146703,0,0,0,0,0,0,0
3,39999,93,30000,81,10000,0,9999,0.100000,0,0,0.000000,3,0.000000,0.000000,0.184728,0,0,0,0,0,0,0
3,39999,94,30000,68,0,0,9999,0.100000,0,0,0.000000,3,0.000000,0.000000,0.739693,0,0,0,0,0,0,0
3,39999,95,30000,68,0,1,9999,0.100000,0,0,0.000000,3,3.000000,0.000000,6.305283,0,0,0,0,0,0,0
3,39999,96,30000,81,10000,0,9999,0.100000,0,0,0.000000,3,0.000000,0.000000,2.430748,0,0,0,0,0,0,0
3,39999,97,30000,68,0,0,9999,0.100000,0,0,0.000000,3,0.000000,0.000000,0.766070,0,0,0,0,0,0,0
3,39999,98,30000,8,20000,0,9999,0.100000,0,0,0.000000,3,0.000000,0.000000,0.262209,0,0,0,0,0,0,0
3,39999,99,30000,68,0,0,9999,0.100000,0,0,0.000000,3,0.000000,0.000000,0.370013,0,0,0,0,0,0,0
4,49999,0,40000,68,0,0,9999,0.100000,0,0,0.000000,3,0.000000,0.000000,0.372536,0,0,0,0,0,0,0
4,49999,1,40000,8,30000,0,9999,0.100000,0,0,0.000000,3,0.000000,0.000000,1.225332,0,0,0,0,0,0,0
4,49999,2,40000,68,0,0,9999,0.100000,0,0,0.000000,3,0.000000,0.000000,0.216343,0,0,0,0,0,0,0
4,49999,3,40000,8,20000,0,9999,0.100000,0,0,0.000000,3,0.000000,0.000000,0.499787,0,0,0,0,0,0,0
4,49999,4,40000,41,20000,1,9999,0.100000,0,0,0.000000,3,1.000000,0.000000,1.702140,0,0,0,0,0,0,0
4,49999,5,40000,41,20000,0,9999,0.100000,0,0,0.000000,3,0.000000,0.000000,0.336223,0,0,0,0,0,0,0
4,49999,6,40000,8,20000,0,9999,0.100000,0,0,0.000000,3,0.000000,0.000000,0.436184,0,0,0,0,0,0,0
4,49999,7,40000,68,0,0,9999,0.100000,0,0,0.000000,3,0.000000,0.000000,23.824383,0,0,0,0,0,0,0
4,49999,8,40000,8,20000,0,9999,0.100000,0,0,0.000000,3,0.000000,0.000000,0.159517,0,0,0,0,0,0,0
4,49999,9,40000,8,30000,0,9999,0.100000,0,0,0.000000,3,0.000000,0.000000,0.708099,0,0,0,0,0,0,0
4,49999,10,40000,41,20000,0,9999,0.100000,0,0,0.000000,3,0.000000,0.000000,0.235957,0,0,0,0,0,0,0
4,49999,11,40000,41,20000,0,9999,0.100000,0,0,0.000000,3,0.000000,0.000000,0.250078,0,0,0,0,0,0,0
4,49999,12,40000,8,20000,0,9999,0.100000,0,0,0.000000,3,0.000000,0.000000,0.075287,0,0,0,0,0,0,0
4,49999,13,40000,8,20000,0,9999,0.100000,0,0,0.000000,3,0.000000,0.000000,0.075241,0,0,0,0,0,0,0
4,49999,14,40000,41,20000,0,9999,0.100000,0,0,0.000000,3,0.000000,0.000000,0.622830,0,0,0,0,0,0,0
4,49999,15,40000,68,0,0,9999,0.100000,0,0,0.000000,3,0.000000,0.000000,1.702758,0,0,0,0,0,0,0
4,49999,16,40000,8,30000,0,9999,0.100000,0,0,0.000000,3,0.000000,0.000000,0.815403,0,0,0,0,0,0,0
4,49999,17,40000,68,0,0,9999,0.100000,0,0,0.000000,3,0.000000,0.000000,0.090994,0,0,0,0,0,0,0
4,49999,18,40000,8,20000,1,9999,0.100000,0,0,0.000000,3,1.000000,0.000000,1.165290,0,0,0,0,0,0,0
4,49999,19,40000,68,0,0,9999,0.100000,0,0,0.000000,3,0.000000,0.000000,0.466229,0,0,0,0,0,0,0
4,49999,20,40000,8,20000,0,9999,0.100000,0,0,0.000000,3,0.000000,0.000000,1.477473,0,0,0,0,0,0,0
4,49999,21,40000,68,0,0,9999,0.100000,0,0,0.000000,3,0.000000,0.000000,0.387127,0,0,0,0,0,0,0
4,49999,22,40000,68,0,0,9999,0.100000,0,0,0.000000,3,0.000000,0.000000,2.469153,0,0,0,0,0,0,0
4,49999,23,40000,8,30000,0,9999,0.100000,0,0,0.000000,3,0.000000,0.000000,0.625855,0,0,0,0,0,0,0
4,49999,24,40000,8,30000,0,9999,0.100000,0,0,0.000000,3,0.000000,0.000000,0.317173,0,0,0,0,0,0,0
4,49999,25,40000,68,0,0,9999,0.100000,0,0,0.000000,3,0.000000,0.000000,0.092128,0,0,0,0,0,0,0
4,49999,26,40000,8,20000,0,9999,0.100000,0,0,0.000000,3,0.000000,0.000000,1.165864,0,0,0,0,0,0,0
4,49999,27,40000,41,20000,0,9999,0.100000,0,0,0.000000,3,0.000000,0.000000,0.458936,0,0,0,0,0,0,0
4,49999,28,40000,8,30000,0,9999,0.100000,0,0,0.000000,3,0.000000,0.000000,2.804198,0,0,0,0,0,0,0
4,49999,29,40000,8,20000,0,9999,0.100000,0,0,0.000000,3,0.000000,0.000000,1.838935,0,0,0,0,0,0,0
4,49999,30,40000,8,20000,0,9999,0.100000,0,0,0.000000,3,0.000000,0.000000,3.420719,0,0,0,0,0,0,0
4,49999,31,40000,68,0,0,9999,0.100000,0,0,0.000000,3,0.000000,0.000000,0.135252,0,0,0,0,0,0,0
4,49999,32,40000,8,20000,1,9999,0.100000,0,0,0.000000,3,1.000000,0.000000,3.248450,0,0,0,0,0,0,0
4,49999,33,40000,41,20000,0,9999,0.100000,0,0,0.000000,3,0.000000,0.000000,0.174611,0,0,0,0,0,0,0
4,49999,34,40000,68,0,0,9999,0.100000,0,0,0.000000,3,0.000000,0.000000,0.220321,0,0,0,0,0,0,0
4,49999,35,40000,68,0,0,9999,0.100000,0,0,0.000000,3,0.000000,0.000000,1.667218,0,0,0,0,0,0,0
4,49999,36,40000,8,30000,1,9999,0.100000,0,0,0.000000,3,1.000000,0.000000,1.429075,0,0,0,0,0,0,0
4,49999,37,40000,68,0,0,9999,0.100000,0,0,0.000000,3,0.000000,0.000000,0.376757,0,0,0,0,0,0,0
4,49999,38,40000,8,30000,0,9999,0.100000,0,0,0.000000,3,0.000000,0.000000,0.089040,0,0,0,0,0,0,0
4,49999,39,40000,41,20000,1,9999,0.100000,0,0,0.000000,3,3.000000,0.000000,8.198950,0,0,0,0,0,0,0
4,49999,40,40000,68,0,0,9999,0.100000,0,0,0.000000,3,0.000000,0.000000,0.176147,0,0,0,0,0,0,0
4,49999,41,40000,68,0,0,9999,0.100000,0,0,0.000000,3,0.000000,0.000000,0.725313,0,0,0,0,0,0,0
4,49999,42,40000,8,20000,0,9999,0.100000,0,0,0.000000,3,0.000000,0.000000,0.930480,0,0,0,0,0,0,0
4,49999,43,40000,68,0,0,9999,0.100000,0,0,0.000000,3,0.000000,0.000000,0.065757,0,0,0,0,0,0,0
4,49999,44,40000,68,0,0,9999,0.100000,0,0,0.000000,3,0.000000,0.000000,0.438379,0,0,0,0,0,0,0
4,49999,45,40000,8,30000,0,9999,0.100000,0,0,0.000000,3,0.000000,0.000000,0.371724,0,0,0,0,0,0,0
4,49999,46,40000,8,20000,0,9999,0.100000,0,0,0.000000,3,0.000000,0.000000,0.974448,0,0,0,0,0,0,0
4,49999,47,40000,68,0,0,9999,0.100000,0,0,0.000000,3,0.000000,0.000000,0.784451,0,0,0,0,0,0,0
4,49999,48,40000,8,20000,0,9999,0.100000,0,0,0.000000,3,0.000000,0.000000,3.758167,0,0,0,0,0,0,0
4,49999,49,40000,8,30000,0,9999,0.100000,0,0,0.000000,3,0.000000,0.000000,0.251662,0,0,0,0,0,0,0
4,49999,50,40000,68,0,0,9999,0.100000,0,0,0.000000,3,0.000000,0.000000,0.250663,0,0,0,0,0,0,0
4,49999,51,40000,8,20000,0,9999,0.100000,0,0,0.000000,3,0.000000,0.000000,1.598051,0,0,0,0,0,0,0
4,49999,52,40000,41,20000,0,9999,0.100000,0,0,0.000000,3,0.000000,0.000000,0.571692,0,0,0,0,0,0,0
4,49999,53,40000,68,0,0,9999,0.100000,0,0,0.000000,3,0.000000,0.000000,0.061592,0,0,0,0,0,0,0
4,49999,54,40000,8,20000,0,9999,0.100000,0,0,0.000000,3,0.000000,0.000000,0.260619,0,0,0,0,0,0,0
4,49999,55,40000,8,20000,0,9999,0.100000,0,0,0.000000,3,0.000000,0.000000,2.019822,0,0,0,0,0,0,0
4,49999,56,40000,8,20000,0,9999,0.100000,0,0,0.000000,3,0.000000,0.000000,2.190677,0,0,0,0,0,0,0
4,49999,57,40000,68,0,0,9999,0.100000,0,0,0.000000,3,0.000000,0.000000,1.840228,0,0,0,0,0,0,0
4,49999,58,40000,8,20000,1,9999,0.100000,0,0,0.000000,3,1.000000,0.000000,2.013427,0,0,0,0,0,0,0
4,49999,59,40000,8,20000,0,9999,0.100000,0,0,0.000000,3,0.000000,0.000000,0.486971,0,0,0,0,0,0,0
4,49999,60,40000,68,0,0,9999,0.100000,0,0,0.000000,3,0.000000,0.000000,0.097332,0,0,0,0,0,0,0
4,49999,61,40000,41,20000,0,9999,0.100000,0,0,0.000000,3,0.000000,0.000000,23.872821,0,0,0,0,0,0,0
4,49999,62,40000,41,20000,0,9999,0.100000,0,0,0.000000,3,0.000000,0.000000,2.007862,0,0,0,0,0,0,0
4,49999,63,40000,41,20000,0,9999,0.100000,0,0,0.000000,3,0.000000,0.000000,0.141955,0,0,0,0,0,0,0
4,49999,64,40000,8,30000,0,9999,0.100000,0,0,0.000000,3,0.000000,0.000000,0.197521,0,0,0,0,0,0,0
4,49999,65,40000,8,20000,1,9999,0.100000,0,0,0.000000,3,2.000000,0.000000,6.552232,0,0,0,0,0,0,0
4,49999,66,40000,68,0,0,9999,0.100000,0,0,0.000000,3,0.000000,0.000000,0.861570,0,0,0,0,0,0,0
4,49999,67,40000,41,20000,0,9999,0.100000,0,0,0.000000,3,0.000000,0.000000,1.081728,0,0,0,0,0,0,0
4,49999,68,40000,68,0,0,9999,0.100000,0,0,0.000000,3,0.000000,0.000000,0.439363,0,0,0,0,0,0,0
4,49999,69,40000,41,20000,0,9999,0.100000,0,0,0.000000,3,0.000000,0.000000,0.795021,0,0,0,0,0,0,0
4,49999,70,40000,8,20000,0,9999,0.100000,0,0,0.000000,3,0.000000,0.000000,4.409750,0,0,0,0,0,0,0
4,49999,71,40000,8,20000,0,9999,0.135000,0,0,0.000000,3,0.000000,0.000000,0.096897,0,0,0,0,0,0,0
4,49999,72,40000,68,0,0,9999,0.100000,0,0,0.000000,3,0.000000,0.000000,0.189221,0,0,0,0,0,0,0
4,49999,73,40000,8,20000,1,9999,0.100000,0,0,0.000000,3,6.000000,0.000000,32.496737,0,0,0,0,0,0,0
4,49999,74,40000,68,0,0,9999,0.100000,0,0,0.000000,3,0.000000,0.000000,1.844250,0,0,0,0,0,0,0
4,49999,75,40000,68,0,0,9999,0.100000,0,0,0.000000,3,0.000000,0.000000,0.671779,0,0,0,0,0,0,0
4,49999,76,40000,68,0,0,9999,0.100000,0,0,0.000000,3,0.000000,0.000000,1.273938,0,0,0,0,0,0,0
4,49999,77,40000,68,0,0,9999,0.100000,0,0,0.000000,3,0.000000,0.000000,0.914011,0,0,0,0,0,0,0
4,49999,78,40000,41,20000,0,9999,0.100000,0,0,0.000000,3,0.000000,0.000000,0.075164,0,0,0,0,0,0,0
4,49999,79,40000,8,30000,0,9999,0.100000,0,0,0.000000,3,0.000000,0.000000,0.088723,0,0,0,0,0,0,0
4,49999,80,40000,68,0,0,9999,0.100000,0,0,0.000000,3,0.000000,0.000000,2.483806,0,0,0,0,0,0,0
4,49999,81,40000,8,20000,0,9999,0.100000,0,0,0.000000,3,0.000000,0.000000,0.189829,0,0,0,0,0,0,0
4,49999,82,40000,41,20000,0,9999,0.100000,0,0,0.000000,3,0.000000,0.000000,0.314286,0,0,0,0,0,0,0
4,49999,83,40000,8,20000,0,9999,0.100000,0,0,0.000000,3,0.000000,0.000000,0.172525,0,0,0,0,0,0,0
4,49999,84,40000,68,0,1,9999,0.100000,0,0,0.000000,3,6.000000,0.000000,27.130712,0,0,0,0,0,0,0
4,49999,85,40000,68,0,0,9999,0.100000,0,0,0.000000,3,0.000000,0.000000,6.895610,0,0,0,0,0,0,0
4,49999,86,40000,41,20000,1,9999,0.100000,0,0,0.000000,3,1.000000,0.000000,3.133703,0,0,0,0,0,0,0
4,49999,87,40000,8,30000,0,9999,0.100000,0,0,0.000000,3,0.000000,0.000000,0.794583,0,0,0,0,0,0,0
4,49999,88,40000,41,20000,0,9999,0.100000,0,0,0.000000,3,0.000000,0.000000,0.895509,0,0,0,0,0,0,0
4,49999,89,40000,8,20000,0,9999,0.100000,0,0,0.000000,3,0.000000,0.000000,0.951158,0,0,0,0,0,0,0
4,49999,90,40000,68,0,0,9999,0.100000,0,0,0.000000,3,0.000000,0.000000,0.333320,0,0,0,0,0,0,0
4,49999,91,40000,68,0,0,9999,0.100000,0,0,0.000000,3,0.000000,0.000000,1.199379,0,0,0,0,0,0,0
4,49999,92,40000,68,0,0,9999,0.100000,0,0,0.000000,3,0.000000,0.000000,0.146815,0,0,0,0,0,0,0
4,49999,93,40000,68,0,0,9999,0.100000,0,0,0.000000,3,0.000000,0.000000,0.173205,0,0,0,0,0,0,0
4,49999,94,40000,8,20000,0,9999,0.100000,0,0,0.000000,3,0.000000,0.000000,0.228690,0,0,0,0,0,0,0
4,49999,95,40000,8,20000,1,9999,0.100000,0,0,0.000000,3,1.000000,0.000000,2.388395,0,0,0,0,0,0,0
4,49999,96,40000,41,20000,0,9999,0.100000,0,0,0.000000,3,0.000000,0.000000,2.046244,0,0,0,0,0,0,0
4,49999,97,40000,8,20000,0,9999,0.100000,0,0,0.000000,3,0.000000,0.000000,0.774288,0,0,0,0,0,0,0
4,49999,98,40000,8,30000,0,9999,0.100000,0,0,0.000000,3,0.000000,0.000000,0.288767,0,0,0,0,0,0,0
4,49999,99,40000,68,0,0,9999,0.100000,0,0,0.000000,3,0.000000,0.000000,0.415854,0,0,0,0,0,0,0
