generation,iteration,robot,birthday,ancestor_id,ancestor_birthday,cell_id,age,sigma,maps,genomes,fitness,cells_in_map,dist_max,dist_pot_max,dist_total,com_rx,com_tx,obj_group1,obj_group2,obj_group3,obj_group4,obj_group5
0,9999,0,0,0,0,49,9999,0.100000,0,0,0.000000,0,9.000000,0.000000,16.394203,0,0,0,0,0,0,0
0,9999,1,0,1,0,49,9999,0.100000,0,0,0.000000,0,9.000000,0.000000,12.154635,0,0,0,0,0,0,0
0,9999,2,0,2,0,49,9999,0.100000,0,0,0.000000,0,2.000000,0.000000,11.623452,0,0,0,0,0,0,0
0,9999,3,0,3,0,49,9999,0.100000,0,0,0.000000,0,3.000000,0.000000,9.616798,0,0,0,0,0,0,0
0,9999,4,0,4,0,49,9999,0.100000,0,0,0.000000,0,11.000000,0.000000,29.687649,0,0,0,0,0,0,0
0,9999,5,0,5,0,49,9999,0.100000,0,0,0.000000,0,6.000000,0.000000,15.755676,0,0,0,0,0,0,0
0,9999,6,0,6,0,49,9999,0.100000,0,0,0.000000,0,9.000000,0.000000,18.205807,0,0,0,0,0,0,0
0,9999,7,0,7,0,49,9999,0.100000,0,0,0.000000,0,8.000000,0.000000,34.974877,0,0,0,0,0,0,0
0,9999,8,0,8,0,49,9999,0.100000,0,0,0.000000,0,6.000000,0.000000,17.098837,0,0,0,0,0,0,0
0,9999,9,0,9,0,49,9999,0.100000,0,0,0.000000,0,5.000000,0.000000,21.510942,0,0,0,0,0,0,0
0,9999,10,0,10,0,99,9999,0.100000,0,0,47.368421,0,9.000000,0.000000,23.861369,0,0,1,0,0,0,0
0,9999,11,0,11,0,49,9999,0.100000,0,0,0.000000,0,9.000000,0.000000,19.378036,0,0,0,0,0,0,0
0,9999,12,0,12,0,49,9999,0.100000,0,0,0.000000,0,10.000000,0.000000,12.814264,0,0,0,0,0,0,0
0,9999,13,0,13,0,49,9999,0.100000,0,0,0.000000,0,8.000000,0.000000,19.693512,0,0,0,0,0,0,0
0,9999,14,0,14,0,49,9999,0.100000,0,0,0.000000,0,12.000000,0.000000,20.100459,0,0,0,0,0,0,0
0,9999,15,0,15,0,49,9999,0.100000,0,0,0.000000,0,10.000000,0.000000,25.211431,0,0,0,0,0,0,0
0,9999,16,0,16,0,49,9999,0.100000,0,0,0.000000,0,9.000000,0.000000,16.570654,0,0,0,0,0,0,0
0,9999,17,0,17,0,49,9999,0.100000,0,0,0.000000,0,5.000000,0.000000,15.789245,0,0,0,0,0,0,0
0,9999,18,0,18,0,49,9999,0.100000,0,0,0.000000,0,8.000000,0.000000,22.996321,0,0,0,0,0,0,0
0,9999,19,0,19,0,49,9999,0.100000,0,0,0.000000,0,6.000000,0.000000,7.358903,0,0,0,0,0,0,0
0,9999,20,0,20,0,49,9999,0.100000,0,0,0.000000,0,2.000000,0.000000,4.859372,0,0,0,0,0,0,0
0,9999,21,0,21,0,49,9999,0.100000,0,0,0.000000,0,3.000000,0.000000,9.751245,0,0,0,0,0,0,0
0,9999,22,0,22,0,49,9999,0.100000,0,0,0.000000,0,7.000000,0.000000,22.716067,0,0,0,0,0,0,0
0,9999,23,0,23,0,49,9999,0.100000,0,0,0.000000,0,9.000000,0.000000,16.485810,0,0,0,0,0,0,0
0,9999,24,0,24,0,49,9999,0.100000,0,0,0.000000,0,7.000000,0.000000,15.058018,0,0,0,0,0,0,0
0,9999,25,0,25,0,49,9999,0.100000,0,0,0.000000,0,4.000000,0.000000,8.548723,0,0,0,0,0,0,0
0,9999,26,0,26,0,49,9999,0.100000,0,0,0.000000,0,7.000000,0.000000,18.753303,0,0,0,0,0,0,0
0,9999,27,0,27,0,49,9999,0.100000,0,0,0.000000,0,8.000000,0.000000,13.665119,0,0,0,0,0,0,0
0,9999,28,0,28,0,49,9999,0.100000,0,0,0.000000,0,13.000000,0.000000,27.742185,0,0,0,0,0,0,0
0,9999,29,0,29,0,49,9999,0.100000,0,0,0.000000,0,8.000000,0.000000,19.996350,0,0,0,0,0,0,0
0,9999,30,0,30,0,99,9999,0.100000,0,0,47.368421,0,9.000000,0.000000,17.969921,0,0,1,0,0,0,0
0,9999,31,0,31,0,49,9999,0.100000,0,0,0.000000,0,6.000000,0.000000,14.589926,0,0,0,0,0,0,0
0,9999,32,0,32,0,99,9999,0.100000,0,0,94.736842,0,12.000000,0.000000,37.319715,0,0,2,0,0,0,0
0,9999,33,0,33,0,49,9999,0.100000,0,0,0.000000,0,9.000000,0.000000,20.132436,0,0,0,0,0,0,0
0,9999,34,0,34,0,49,9999,0.100000,0,0,0.000000,0,12.000000,0.000000,14.034327,0,0,0,0,0,0,0
0,9999,35,0,35,0,49,9999,0.100000,0,0,0.000000,0,7.000000,0.000000,17.005873,0,0,0,0,0,0,0
0,9999,36,0,36,0,49,9999,0.100000,0,0,0.000000,0,8.000000,0.000000,19.986362,0,0,0,0,0,0,0
0,9999,37,0,37,0,49,9999,0.100000,0,0,0.000000,0,9.000000,0.000000,18.361060,0,0,0,0,0,0,0
0,9999,38,0,38,0,49,9999,0.100000,0,0,0.000000,0,13.000000,0.000000,37.896999,0,0,0,0,0,0,0
0,9999,39,0,39,0,49,9999,0.100000,0,0,0.000000,0,12.000000,0.000000,22.414008,0,0,0,0,0,0,0
0,9999,40,0,40,0,49,9999,0.100000,0,0,0.000000,0,4.000000,0.000000,5.176561,0,0,0,0,0,0,0
0,9999,41,0,41,0,49,9999,0.100000,0,0,0.000000,0,7.000000,0.000000,11.233165,0,0,0,0,0,0,0
0,9999,42,0,42,0,49,9999,0.100000,0,0,0.000000,0,9.000000,0.000000,18.063334,0,0,0,0,0,0,0
0,9999,43,0,43,0,99,9999,0.100000,0,0,47.368421,0,9.000000,0.000000,15.239238,0,0,1,0,0,0,0
0,9999,44,0,44,0,99,9999,0.100000,0,0,47.368421,0,8.000000,0.000000,18.288727,0,0,1,0,0,0,0
0,9999,45,0,45,0,49,9999,0.100000,0,0,0.000000,0,10.000000,0.000000,15.505936,0,0,0,0,0,0,0
0,9999,46,0,46,0,49,9999,0.100000,0,0,0.000000,0,11.000000,0.000000,36.429632,0,0,0,0,0,0,0
0,9999,47,0,47,0,49,9999,0.100000,0,0,0.000000,0,10.000000,0.000000,22.195086,0,0,0,0,0,0,0
0,9999,48,0,48,0,49,9999,0.100000,0,0,0.000000,0,11.000000,0.000000,32.345912,0,0,0,0,0,0,0
0,9999,49,0,49,0,49,9999,0.100000,0,0,0.000000,0,9.000000,0.000000,24.044942,0,0,0,0,0,0,0
0,9999,50,0,50,0,49,9999,0.100000,0,0,0.000000,0,3.000000,0.000000,21.150265,0,0,0,0,0,0,0
0,9999,51,0,51,0,49,9999,0.100000,0,0,0.000000,0,2.000000,0.000000,4.796759,0,0,0,0,0,0,0
0,9999,52,0,52,0,49,9999,0.100000,0,0,0.000000,0,9.000000,0.000000,17.344789,0,0,0,0,0,0,0
0,9999,53,0,53,0,49,9999,0.100000,0,0,0.000000,0,10.000000,0.000000,16.669601,0,0,0,0,0,0,0
0,9999,54,0,54,0,49,9999,0.100000,0,0,0.000000,0,11.000000,0.000000,28.083839,0,0,0,0,0,0,0
0,9999,55,0,55,0,49,9999,0.100000,0,0,0.000000,0,8.000000,0.000000,10.466554,0,0,0,0,0,0,0
0,9999,56,0,56,0,49,9999,0.100000,0,0,0.000000,0,10.000000,0.000000,19.020181,0,0,0,0,0,0,0
0,9999,57,0,57,0,49,9999,0.100000,0,0,0.000000,0,7.000000,0.000000,11.201666,0,0,0,0,0,0,0
0,9999,58,0,58,0,99,9999,0.100000,0,0,47.368421,0,9.000000,0.000000,20.124428,0,0,1,0,0,0,0
0,9999,59,0,59,0,49,9999,0.100000,0,0,0.000000,0,7.000000,0.000000,13.496753,0,0,0,0,0,0,0
0,9999,60,0,60,0,49,9999,0.100000,0,0,0.000000,0,9.000000,0.000000,17.515326,0,0,0,0,0,0,0
0,9999,61,0,61,0,49,9999,0.100000,0,0,0.000000,0,11.000000,0.000000,23.045439,0,0,0,0,0,0,0
0,9999,62,0,62,0,49,9999,0.100000,0,0,0.000000,0,16.000000,0.000000,33.381029,0,0,0,0,0,0,0
0,9999,63,0,63,0,49,9999,0.100000,0,0,0.000000,0,8.000000,0.000000,20.675978,0,0,0,0,0,0,0
0,9999,64,0,64,0,49,9999,0.100000,0,0,0.000000,0,9.000000,0.000000,13.040768,0,0,0,0,0,0,0
0,9999,65,0,65,0,49,9999,0.100000,0,0,0.000000,0,8.000000,0.000000,17.506293,0,0,0,0,0,0,0
0,9999,66,0,66,0,49,9999,0.100000,0,0,0.000000,0,6.000000,0.000000,19.873014,0,0,0,0,0,0,0
0,9999,67,0,67,0,49,9999,0.100000,0,0,0.000000,0,9.000000,0.000000,20.218979,0,0,0,0,0,0,0
0,9999,68,0,68,0,49,9999,0.100000,0,0,0.000000,0,8.000000,0.000000,14.471204,0,0,0,0,0,0,0
0,9999,69,0,69,0,49,9999,0.100000,0,0,0.000000,0,3.000000,0.000000,5.947051,0,0,0,0,0,0,0
0,9999,70,0,70,0,49,9999,0.100000,0,0,0.000000,0,7.000000,0.000000,12.085516,0,0,0,0,0,0,0
0,9999,71,0,71,0,49,9999,0.100000,0,0,0.000000,0,5.000000,0.000000,14.087462,0,0,0,0,0,0,0
0,9999,72,0,72,0,49,9999,0.100000,0,0,0.000000,0,10.000000,0.000000,16.274214,0,0,0,0,0,0,0
0,9999,73,0,73,0,49,9999,0.100000,0,0,0.000000,0,3.000000,0.000000,14.974736,0,0,0,0,0,0,0
0,9999,74,0,74,0,49,9999,0.100000,0,0,0.000000,0,6.000000,0.000000,15.476773,0,0,0,0,0,0,0
0,9999,75,0,75,0,49,9999,0.100000,0,0,0.000000,0,8.000000,0.000000,22.980401,0,0,0,0,0,0,0
0,9999,76,0,76,0,99,9999,0.100000,0,0,47.368421,0,11.000000,0.000000,25.570843,0,0,1,0,0,0,0
0,9999,77,0,77,0,99,9999,0.100000,0,0,47.368421,0,11.000000,0.000000,41.561811,0,0,1,0,0,0,0
0,9999,78,0,78,0,49,9999,0.100000,0,0,0.000000,0,9.000000,0.000000,18.142409,0,0,0,0,0,0,0
0,9999,79,0,79,0,99,9999,0.100000,0,0,47.368421,0,10.000000,0.000000,28.720660,0,0,1,0,0,0,0
0,9999,80,0,80,0,49,9999,0.100000,0,0,0.000000,0,9.000000,0.000000,11.901662,0,0,0,0,0,0,0
0,9999,81,0,81,0,49,9999,0.100000,0,0,0.000000,0,7.000000,0.000000,13.149502,0,0,0,0,0,0,0
0,9999,82,0,82,0,49,9999,0.100000,0,0,0.000000,0,12.000000,0.000000,22.532209,0,0,0,0,0,0,0
0,9999,83,0,83,0,49,9999,0.100000,0,0,0.000000,0,7.000000,0.000000,15.313907,0,0,0,0,0,0,0
0,9999,84,0,84,0,49,9999,0.100000,0,0,0.000000,0,7.000000,0.000000,16.131759,0,0,0,0,0,0,0
0,9999,85,0,85,0,49,9999,0.100000,0,0,0.000000,0,2.000000,0.000000,13.372327,0,0,0,0,0,0,0
0,9999,86,0,86,0,49,9999,0.100000,0,0,0.000000,0,8.000000,0.000000,21.616933,0,0,0,0,0,0,0
0,9999,87,0,87,0,49,9999,0.100000,0,0,0.000000,0,9.000000,0.000000,11.320458,0,0,0,0,0,0,0
0,9999,88,0,88,0,49,9999,0.100000,0,0,0.000000,0,5.000000,0.000000,12.573259,0,0,0,0,0,0,0
0,9999,89,0,89,0,49,9999,0.100000,0,0,0.000000,0,2.000000,0.000000,9.586956,0,0,0,0,0,0,0
0,9999,90,0,90,0,99,9999,0.100000,0,0,0.000000,0,11.000000,0.000000,25.942532,0,0,1,0,0,0,0
0,9999,91,0,91,0,49,9999,0.100000,0,0,0.000000,0,8.000000,0.000000,11.776773,0,0,0,0,0,0,0
0,9999,92,0,92,0,49,9999,0.100000,0,0,0.000000,0,4.000000,0.000000,8.977323,0,0,0,0,0,0,0
0,9999,93,0,93,0,99,9999,0.100000,0,0,47.368421,0,8.000000,0.000000,17.391088,0,0,1,0,0,0,0
0,9999,94,0,94,0,49,9999,0.100000,0,0,0.000000,0,3.000000,0.000000,15.570747,0,0,0,0,0,0,0
0,9999,95,0,95,0,49,9999,0.100000,0,0,0.000000,0,4.000000,0.000000,11.477752,0,0,0,0,0,0,0
0,9999,96,0,96,0,49,9999,0.100000,0,0,0.000000,0,10.000000,0.000000,13.684595,0,0,0,0,0,0,0
0,9999,97,0,97,0,99,9999,0.100000,0,0,47.368421,0,11.000000,0.000000,35.136727,0,0,1,0,0,0,0
0,9999,98,0,98,0,49,9999,0.100000,0,0,0.000000,0,8.000000,0.000000,16.217032,0,0,0,0,0,0,0
0,9999,99,0,99,0,49,9999,0.100000,0,0,0.000000,0,7.000000,0.000000,9.361918,0,0,0,0,0,0,0
1,19999,0,10000,0,0,49,9999,0.100000,0,0,0.000000,3,1.000000,0.000000,2.495829,0,0,0,0,0,0,0
1,19999,1,10000,2,0,40,9999,0.100000,0,0,0.000000,2,0.000000,0.000000,1.034566,0,0,0,0,0,0,0
1,19999,2,0,2,0,49,19999,0.100000,0,0,0.000000,1,1.000000,0.000000,5.896608,0,0,0,0,0,0,0
1,19999,3,10000,3,0,49,9999,0.100000,0,0,0.000000,1,2.000000,0.000000,21.640905,0,0,0,0,0,0,0
1,19999,4,10000,53,0,49,9999,0.100000,0,0,0.000000,3,4.000000,0.000000,8.260213,0,0,0,0,0,0,0
1,19999,5,10000,32,0,40,9999,0.100000,0,0,0.000000,3,0.000000,0.000000,9.507898,0,0,0,0,0,0,0
1,19999,6,10000,1,0,49,9999,0.100000,0,0,0.000000,3,3.000000,0.000000,8.820790,0,0,0,0,0,0,0
1,19999,7,10000,2,0,99,9999,0.100000,0,0,34.210526,3,2.000000,0.000000,8.269099,0,0,1,0,0,0,0
1,19999,8,10000,7,0,49,9999,0.100000,0,0,0.000000,3,2.000000,0.000000,5.609286,0,0,0,0,0,0,0
1,19999,9,10000,2,0,49,9999,0.100000,0,0,0.000000,1,5.000000,0.000000,16.531134,0,0,0,0,0,0,0
1,19999,10,10000,72,0,49,9999,0.100000,0,0,0.000000,3,2.000000,0.000000,6.767287,0,0,0,0,0,0,0
1,19999,11,10000,32,0,49,9999,0.100000,0,0,0.000000,3,4.000000,0.000000,12.886507,0,0,0,0,0,0,0
1,19999,12,10000,72,0,40,9999,0.100000,0,0,0.000000,3,0.000000,0.000000,0.097952,0,0,0,0,0,0,0
1,19999,13,10000,2,0,49,9999,0.100000,0,0,0.000000,3,1.000000,0.000000,9.643472,0,0,0,0,0,0,0
1,19999,14,10000,2,0,49,9999,0.100000,0,0,0.000000,3,2.000000,0.000000,19.155767,0,0,0,0,0,0,0
1,19999,15,10000,1,0,40,9999,0.100000,0,0,0.000000,3,0.000000,0.000000,0.254142,0,0,0,0,0,0,0
1,19999,16,10000,0,0,49,9999,0.100000,0,0,0.000000,3,1.000000,0.000000,5.261151,0,0,0,0,0,0,0
1,19999,17,10000,53,0,49,9999,0.100000,0,0,0.000000,3,3.000000,0.000000,12.948417,0,0,0,0,0,0,0
1,19999,18,10000,0,0,99,9999,0.100000,0,0,34.210526,3,3.000000,0.000000,8.647225,0,0,1,0,0,0,0
1,19999,19,10000,0,0,40,9999,0.100000,0,0,0.000000,3,0.000000,0.000000,0.633426,0,0,0,0,0,0,0
1,19999,20,10000,2,0,49,9999,0.100000,0,0,0.000000,2,4.000000,0.000000,12.945906,0,0,0,0,0,0,0
1,19999,21,10000,53,0,49,9999,0.100000,0,0,0.000000,3,1.000000,0.000000,6.062871,0,0,0,0,0,0,0
1,19999,22,10000,0,0,49,9999,0.100000,0,0,0.000000,3,1.000000,0.000000,12.999689,0,0,0,0,0,0,0
1,19999,23,10000,20,0,49,9999,0.100000,0,0,0.000000,2,8.000000,0.000000,17.938323,0,0,0,0,0,0,0
1,19999,24,10000,1,0,49,9999,0.100000,0,0,0.000000,3,2.000000,0.000000,22.459250,0,0,0,0,0,0,0
1,19999,25,10000,53,0,40,9999,0.100000,0,0,0.000000,3,0.000000,0.000000,0.092203,0,0,0,0,0,0,0
1,19999,26,10000,1,0,49,9999,0.100000,0,0,0.000000,3,2.000000,0.000000,3.943501,0,0,0,0,0,0,0
1,19999,27,10000,0,0,49,9999,0.100000,0,0,0.000000,3,2.000000,0.000000,4.499996,0,0,0,0,0,0,0
1,19999,28,10000,1,0,49,9999,0.100000,0,0,0.000000,3,4.000000,0.000000,8.179701,0,0,0,0,0,0,0
1,19999,29,10000,1,0,49,9999,0.100000,0,0,0.000000,3,2.000000,0.000000,7.622946,0,0,0,0,0,0,0
1,19999,30,10000,72,0,49,9999,0.100000,0,0,0.000000,3,3.000000,0.000000,13.035728,0,0,0,0,0,0,0
1,19999,31,10000,32,0,49,9999,0.100000,0,0,0.000000,3,1.000000,0.000000,3.440682,0,0,0,0,0,0,0
1,19999,32,10000,32,0,49,9999,0.100000,0,0,0.000000,3,1.000000,0.000000,9.393776,0,0,0,0,0,0,0
1,19999,33,10000,32,0,49,9999,0.100000,0,0,0.000000,3,2.000000,0.000000,10.431426,0,0,0,0,0,0,0
1,19999,34,10000,1,0,40,9999,0.100000,0,0,0.000000,3,0.000000,0.000000,1.020562,0,0,0,0,0,0,0
1,19999,35,10000,32,0,40,9999,0.100000,0,0,0.000000,3,0.000000,0.000000,6.768753,0,0,0,0,0,0,0
1,19999,36,10000,1,0,49,9999,0.100000,0,0,0.000000,3,3.000000,0.000000,11.434078,0,0,0,0,0,0,0
1,19999,37,10000,1,0,49,9999,0.100000,0,0,0.000000,3,3.000000,0.000000,10.351639,0,0,0,0,0,0,0
1,19999,38,10000,72,0,49,9999,0.100000,0,0,0.000000,3,5.000000,0.000000,15.362460,0,0,0,0,0,0,0
1,19999,39,10000,32,0,49,9999,0.100000,0,0,0.000000,3,8.000000,0.000000,12.362612,0,0,0,0,0,0,0
1,19999,40,10000,53,0,40,9999,0.100000,0,0,0.000000,3,0.000000,0.000000,0.986790,0,0,0,0,0,0,0
1,19999,41,10000,2,0,40,9999,0.100000,0,0,0.000000,3,0.000000,0.000000,0.532488,0,0,0,0,0,0,0
1,19999,42,10000,32,0,40,9999,0.100000,0,0,0.000000,3,0.000000,0.000000,2.385704,0,0,0,0,0,0,0
1,19999,43,10000,32,0,49,9999,0.100000,0,0,0.000000,3,2.000000,0.000000,8.627878,0,0,0,0,0,0,0
1,19999,44,10000,0,0,49,9999,0.100000,0,0,0.000000,3,2.000000,0.000000,8.128763,0,0,0,0,0,0,0
1,19999,45,10000,1,0,49,9999,0.100000,0,0,0.000000,3,1.000000,0.000000,4.144103,0,0,0,0,0,0,0
1,19999,46,10000,72,0,99,9999,0.100000,0,0,34.210526,3,4.000000,0.000000,17.119852,0,0,1,0,0,0,0
1,19999,47,10000,1,0,49,9999,0.100000,0,0,0.000000,3,4.000000,0.000000,7.295049,0,0,0,0,0,0,0
1,19999,48,10000,32,0,49,9999,0.100000,0,0,0.000000,3,2.000000,0.000000,7.415935,0,0,0,0,0,0,0
1,19999,49,10000,32,0,40,9999,0.100000,0,0,0.000000,3,0.000000,0.000000,20.994696,0,0,0,0,0,0,0
1,19999,50,10000,72,0,40,9999,0.100000,0,0,0.000000,3,0.000000,0.000000,2.032172,0,0,0,0,0,0,0
1,19999,51,10000,32,0,40,9999,0.100000,0,0,0.000000,3,0.000000,0.000000,0.138989,0,0,0,0,0,0,0
1,19999,52,10000,1,0,49,9999,0.100000,0,0,0.000000,3,1.000000,0.000000,11.110639,0,0,0,0,0,0,0
1,19999,53,10000,2,0,99,9999,0.100000,0,0,34.210526,3,15.000000,0.000000,22.924767,0,0,1,0,0,0,0
1,19999,54,10000,0,0,40,9999,0.100000,0,0,0.000000,3,0.000000,0.000000,3.364831,0,0,0,0,0,0,0
1,19999,55,10000,72,0,49,9999,0.100000,0,0,0.000000,3,4.000000,0.000000,4.779883,0,0,0,0,0,0,0
1,19999,56,10000,2,0,49,9999,0.100000,0,0,0.000000,3,3.000000,0.000000,15.118717,0,0,0,0,0,0,0
1,19999,57,10000,32,0,49,9999,0.100000,0,0,0.000000,3,2.000000,0.000000,11.748047,0,0,0,0,0,0,0
1,19999,58,10000,1,0,49,9999,0.100000,0,0,0.000000,3,3.000000,0.000000,8.005404,0,0,0,0,0,0,0
1,19999,59,10000,72,0,49,9999,0.100000,0,0,0.000000,3,2.000000,0.000000,7.300981,0,0,0,0,0,0,0
1,19999,60,10000,0,0,40,9999,0.100000,0,0,0.000000,3,0.000000,0.000000,9.032330,0,0,0,0,0,0,0
1,19999,61,10000,0,0,49,9999,0.100000,0,0,0.000000,3,1.000000,0.000000,1.879307,0,0,0,0,0,0,0
1,19999,62,10000,1,0,49,9999,0.100000,0,0,0.000000,3,2.000000,0.000000,7.459397,0,0,0,0,0,0,0
1,19999,63,10000,53,0,99,9999,0.100000,0,0,34.210526,3,6.000000,0.000000,9.550102,0,0,1,0,0,0,0
1,19999,64,10000,0,0,40,9999,0.100000,0,0,0.000000,3,0.000000,0.000000,3.004835,0,0,0,0,0,0,0
1,19999,65,10000,1,0,49,9999,0.100000,0,0,0.000000,3,3.000000,0.000000,8.241749,0,0,0,0,0,0,0
1,19999,66,10000,32,0,49,9999,0.100000,0,0,0.000000,3,1.000000,0.000000,6.256065,0,0,0,0,0,0,0
1,19999,67,10000,72,0,49,9999,0.100000,0,0,0.000000,3,2.000000,0.000000,9.567828,0,0,0,0,0,0,0
1,19999,68,10000,32,0,49,9999,0.100000,0,0,0.000000,3,1.000000,0.000000,7.313706,0,0,0,0,0,0,0
1,19999,69,10000,1,0,40,9999,0.100000,0,0,0.000000,3,0.000000,0.000000,0.570473,0,0,0,0,0,0,0
1,19999,70,10000,72,0,49,9999,0.100000,0,0,0.000000,3,1.000000,0.000000,1.407357,0,0,0,0,0,0,0
1,19999,71,0,71,0,49,19999,0.100000,0,0,0.000000,3,1.000000,0.000000,8.825477,0,0,0,0,0,0,0
1,19999,72,10000,2,0,40,9999,0.100000,0,0,0.000000,3,0.000000,0.000000,5.283472,0,0,0,0,0,0,0
1,19999,73,10000,2,0,49,9999,0.100000,0,0,0.000000,3,2.000000,0.000000,8.347741,0,0,0,0,0,0,0
1,19999,74,10000,2,0,49,9999,0.100000,0,0,0.000000,3,3.000000,0.000000,7.404850,0,0,0,0,0,0,0
1,19999,75,0,75,0,49,19999,0.100000,0,0,0.000000,3,7.000000,0.000000,17.473872,0,0,0,0,0,0,0
1,19999,76,10000,0,0,40,9999,0.100000,0,0,0.000000,3,0.000000,0.000000,8.302864,0,0,0,0,0,0,0
1,19999,77,10000,72,0,40,9999,0.100000,0,0,0.000000,3,0.000000,0.000000,11.102416,0,0,0,0,0,0,0
1,19999,78,10000,72,0,99,9999,0.100000,0,0,34.210526,3,6.000000,0.000000,16.106732,0,0,1,0,0,0,0
1,19999,79,10000,2,0,49,9999,0.100000,0,0,0.000000,3,2.000000,0.000000,3.385849,0,0,0,0,0,0,0
1,19999,80,0,80,0,40,19999,0.100000,0,0,0.000000,3,0.000000,0.000000,1.474719,0,0,0,0,0,0,0
1,19999,81,10000,53,0,40,9999,0.100000,0,0,0.000000,3,0.000000,0.000000,2.519894,0,0,0,0,0,0,0
1,19999,82,10000,0,0,49,9999,0.100000,0,0,0.000000,3,1.000000,0.000000,3.864585,0,0,0,0,0,0,0
1,19999,83,10000,32,0,49,9999,0.100000,0,0,0.000000,3,3.000000,0.000000,6.707454,0,0,0,0,0,0,0
1,19999,84,10000,72,0,49,9999,0.100000,0,0,0.000000,3,1.000000,0.000000,7.797300,0,0,0,0,0,0,0
1,19999,85,10000,72,0,49,9999,0.100000,0,0,0.000000,3,10.000000,0.000000,19.665381,0,0,0,0,0,0,0
1,19999,86,10000,0,0,49,9999,0.100000,0,0,0.000000,3,1.000000,0.000000,10.334304,0,0,0,0,0,0,0
1,19999,87,10000,32,0,49,9999,0.100000,0,0,0.000000,3,2.000000,0.000000,6.087034,0,0,0,0,0,0,0
1,19999,88,10000,0,0,49,9999,0.100000,0,0,0.000000,3,4.000000,0.000000,10.504333,0,0,0,0,0,0,0
1,19999,89,10000,72,0,40,9999,0.100000,0,0,0.000000,3,0.000000,0.000000,0.176002,0,0,0,0,0,0,0
1,19999,90,10000,0,0,40,9999,0.100000,0,0,0.000000,3,0.000000,0.000000,0.784126,0,0,0,0,0,0,0
1,19999,91,10000,32,0,40,9999,0.100000,0,0,0.000000,3,0.000000,0.000000,0.290433,0,0,0,0,0,0,0
1,19999,92,10000,2,0,40,9999,0.100000,0,0,0.000000,3,0.000000,0.000000,0.665777,0,0,0,0,0,0,0
1,19999,93,10000,72,0,49,9999,0.100000,0,0,0.000000,3,1.000000,0.000000,6.571967,0,0,0,0,0,0,0
1,19999,94,10000,1,0,40,9999,0.100000,0,0,0.000000,3,0.000000,0.000000,8.541065,0,0,0,0,0,0,0
1,19999,95,10000,0,0,40,9999,0.100000,0,0,0.000000,3,0.000000,0.000000,1.429610,0,0,0,0,0,0,0
1,19999,96,10000,32,0,49,9999,0.100000,0,0,0.000000,3,1.000000,0.000000,1.341161,0,0,0,0,0,0,0
1,19999,97,10000,72,0,40,9999,0.100000,0,0,0.000000,3,0.000000,0.000000,6.835657,0,0,0,0,0,0,0
1,19999,98,0,98,0,49,19999,0.100000,0,0,0.000000,3,2.000000,0.000000,7.619675,0,0,0,0,0,0,0
1,19999,99,10000,32,0,40,9999,0.100000,0,0,0.000000,3,0.000000,0.000000,0.081981,0,0,0,0,0,0,0
2,29999,0,20000,72,0,40,9999,0.100000,0,0,0.000000,3,0.000000,0.000000,3.289739,0,0,0,0,0,0,0
2,29999,1,20000,72,0,40,9999,0.100000,0,0,0.000000,5,0.000000,0.000000,0.753348,0,0,0,0,0,0,0
2,29999,2,20000,15,10000,49,9999,0.100000,0,0,0.000000,5,1.000000,0.000000,6.955446,0,0,0,0,0,0,0
2,29999,3,20000,90,10000,40,9999,0.100000,0,0,0.000000,5,0.000000,0.000000,6.065644,0,0,0,0,0,0,0
2,29999,4,20000,0,0,49,9999,0.100000,0,0,0.000000,4,1.000000,0.000000,8.698844,0,0,0,0,0,0,0
2,29999,5,20000,61,10000,49,9999,0.100000,0,0,0.000000,5,1.000000,0.000000,7.671301,0,0,0,0,0,0,0
2,29999,6,20000,15,10000,49,9999,0.100000,0,0,0.000000,5,2.000000,0.000000,10.059011,0,0,0,0,0,0,0
2,29999,7,20000,32,0,49,9999,0.100000,0,0,0.000000,5,2.000000,0.000000,10.620537,0,0,0,0,0,0,0
2,29999,8,20000,72,0,49,9999,0.100000,0,0,0.000000,5,3.000000,0.000000,17.246845,0,0,0,0,0,0,0
2,29999,9,20000,32,0,49,9999,0.100000,0,0,0.000000,3,5.000000,0.000000,9.296154,0,0,0,0,0,0,0
2,29999,10,20000,90,10000,49,9999,0.100000,0,0,0.000000,5,2.000000,0.000000,19.816121,0,0,0,0,0,0,0
2,29999,11,20000,0,0,49,9999,0.100000,0,0,0.000000,5,1.000000,0.000000,3.893353,0,0,0,0,0,0,0
2,29999,12,20000,72,0,40,9999,0.100000,0,0,0.000000,5,0.000000,0.000000,0.090936,0,0,0,0,0,0,0
2,29999,13,20000,72,0,40,9999,0.100000,0,0,0.000000,3,0.000000,0.000000,23.010362,0,0,0,0,0,0,0
2,29999,14,20000,90,10000,49,9999,0.100000,0,0,0.000000,5,3.000000,0.000000,5.980571,0,0,0,0,0,0,0
2,29999,15,20000,72,0,40,9999,0.100000,0,0,0.000000,4,0.000000,0.000000,0.241937,0,0,0,0,0,0,0
2,29999,16,20000,32,0,49,9999,0.100000,0,0,0.000000,5,2.000000,0.000000,8.487255,0,0,0,0,0,0,0
2,29999,17,20000,32,0,9,9999,0.100000,0,0,34.210526,5,7.000000,0.000000,16.551924,0,0,0,1,0,0,0
2,29999,18,20000,90,10000,40,9999,0.100000,0,0,0.000000,5,0.000000,0.000000,4.349497,0,0,0,0,0,0,0
2,29999,19,20000,32,0,49,9999,0.100000,0,0,0.000000,5,2.000000,0.000000,2.737208,0,0,0,0,0,0,0
2,29999,20,20000,72,0,9,9999,0.100000,0,0,41.248435,5,7.000000,0.000000,15.049085,0,0,0,1,0,0,0
2,29999,21,20000,15,10000,40,9999,0.100000,0,0,0.000000,5,0.000000,0.000000,0.157540,0,0,0,0,0,0,0
2,29999,22,20000,32,0,49,9999,0.100000,0,0,0.000000,5,1.000000,0.000000,9.907653,0,0,0,0,0,0,0
2,29999,23,20000,32,0,99,9999,0.100000,0,0,34.210526,4,16.000000,0.000000,19.338140,0,0,1,0,0,0,0
2,29999,24,20000,72,0,49,9999,0.100000,0,0,0.000000,3,1.000000,0.000000,5.799821,0,0,0,0,0,0,0
2,29999,25,20000,25,10000,40,9999,0.100000,0,0,0.000000,5,0.000000,0.000000,0.305130,0,0,0,0,0,0,0
2,29999,26,20000,90,10000,40,9999,0.100000,0,0,0.000000,5,0.000000,0.000000,0.550194,0,0,0,0,0,0,0
2,29999,27,20000,15,10000,49,9999,0.100000,0,0,0.000000,5,4.000000,0.000000,7.504902,0,0,0,0,0,0,0
2,29999,28,20000,72,0,49,9999,0.100000,0,0,0.000000,5,3.000000,0.000000,9.091079,0,0,0,0,0,0,0
2,29999,29,20000,72,0,49,9999,0.100000,0,0,0.000000,5,2.000000,0.000000,6.495184,0,0,0,0,0,0,0
2,29999,30,20000,0,0,49,9999,0.100000,0,0,0.000000,5,4.000000,0.000000,12.633461,0,0,0,0,0,0,0
2,29999,31,20000,15,10000,49,9999,0.100000,0,0,0.000000,5,1.000000,0.000000,6.138200,0,0,0,0,0,0,0
2,29999,32,20000,15,10000,49,9999,0.100000,0,0,0.000000,5,4.000000,0.000000,10.702678,0,0,0,0,0,0,0
2,29999,33,20000,32,0,49,9999,0.100000,0,0,0.000000,5,1.000000,0.000000,4.481391,0,0,0,0,0,0,0
2,29999,34,20000,25,10000,40,9999,0.100000,0,0,0.000000,5,0.000000,0.000000,1.012142,0,0,0,0,0,0,0
2,29999,35,20000,90,10000,49,9999,0.100000,0,0,0.000000,5,2.000000,0.000000,10.947305,0,0,0,0,0,0,0
2,29999,36,20000,90,10000,49,9999,0.100000,0,0,0.000000,5,7.000000,0.000000,15.711674,0,0,0,0,0,0,0
2,29999,37,20000,90,10000,40,9999,0.100000,0,0,0.000000,5,0.000000,0.000000,1.734624,0,0,0,0,0,0,0
2,29999,38,20000,32,0,49,9999,0.100000,0,0,0.000000,5,1.000000,0.000000,1.614132,0,0,0,0,0,0,0
2,29999,39,20000,15,10000,9,9999,0.100000,0,0,34.210526,5,12.000000,0.000000,13.857991,0,0,0,1,0,0,0
2,29999,40,20000,0,0,40,9999,0.100000,0,0,0.000000,5,0.000000,0.000000,0.415270,0,0,0,0,0,0,0
2,29999,41,20000,41,10000,40,9999,0.100000,0,0,0.000000,5,0.000000,0.000000,1.262734,0,0,0,0,0,0,0
2,29999,42,20000,72,0,40,9999,0.100000,0,0,0.000000,5,0.000000,0.000000,0.234089,0,0,0,0,0,0,0
2,29999,43,20000,32,0,40,9999,0.100000,0,0,0.000000,5,0.000000,0.000000,8.692961,0,0,0,0,0,0,0
2,29999,44,20000,15,10000,49,9999,0.100000,0,0,0.000000,5,5.000000,0.000000,13.259568,0,0,0,0,0,0,0
2,29999,45,20000,61,10000,40,9999,0.100000,0,0,0.000000,5,0.000000,0.000000,0.221411,0,0,0,0,0,0,0
2,29999,46,20000,0,0,49,9999,0.100000,0,0,0.000000,5,2.000000,0.000000,11.069809,0,0,0,0,0,0,0
2,29999,47,20000,15,10000,49,9999,0.100000,0,0,0.000000,5,1.000000,0.000000,6.853621,0,0,0,0,0,0,0
2,29999,48,20000,90,10000,49,9999,0.100000,0,0,0.000000,5,3.000000,0.000000,8.489706,0,0,0,0,0,0,0
2,29999,49,20000,15,10000,49,9999,0.100000,0,0,0.000000,5,1.000000,0.000000,14.587551,0,0,0,0,0,0,0
2,29999,50,20000,72,0,40,9999,0.100000,0,0,0.000000,5,0.000000,0.000000,3.374270,0,0,0,0,0,0,0
2,29999,51,20000,32,0,40,9999,0.100000,0,0,0.000000,5,0.000000,0.000000,0.219413,0,0,0,0,0,0,0
2,29999,52,20000,61,10000,49,9999,0.100000,0,0,0.000000,5,1.000000,0.000000,18.200704,0,0,0,0,0,0,0
2,29999,53,20000,90,10000,49,9999,0.100000,0,0,0.000000,5,4.000000,0.000000,11.355331,0,0,0,0,0,0,0
2,29999,54,20000,61,10000,40,9999,0.100000,0,0,0.000000,5,0.000000,0.000000,1.784769,0,0,0,0,0,0,0
2,29999,55,20000,72,0,9,9999,0.100000,0,0,34.210526,3,12.000000,0.000000,13.904693,0,0,0,1,0,0,0
2,29999,56,20000,32,0,49,9999,0.100000,0,0,0.000000,5,4.000000,0.000000,6.292360,0,0,0,0,0,0,0
2,29999,57,20000,0,0,40,9999,0.100000,0,0,0.000000,5,0.000000,0.000000,2.138771,0,0,0,0,0,0,0
2,29999,58,20000,61,10000,49,9999,0.100000,0,0,0.000000,5,3.000000,0.000000,15.321375,0,0,0,0,0,0,0
2,29999,59,20000,0,0,49,9999,0.100000,0,0,0.000000,5,1.000000,0.000000,14.687645,0,0,0,0,0,0,0
2,29999,60,20000,32,0,49,9999,0.100000,0,0,0.000000,5,1.000000,0.000000,8.656751,0,0,0,0,0,0,0
2,29999,61,20000,15,10000,40,9999,0.100000,0,0,0.000000,5,0.000000,0.000000,0.156329,0,0,0,0,0,0,0
2,29999,62,20000,15,10000,49,9999,0.100000,0,0,0.000000,5,1.000000,0.000000,6.618602,0,0,0,0,0,0,0
2,29999,63,20000,61,10000,40,9999,0.100000,0,0,0.000000,5,0.000000,0.000000,12.950478,0,0,0,0,0,0,0
2,29999,64,20000,15,10000,40,9999,0.100000,0,0,0.000000,5,0.000000,0.000000,0.818680,0,0,0,0,0,0,0
2,29999,65,20000,32,0,49,9999,0.100000,0,0,0.000000,5,1.000000,0.000000,8.607441,0,0,0,0,0,0,0
2,29999,66,20000,0,0,49,9999,0.100000,0,0,0.000000,5,3.000000,0.000000,6.113749,0,0,0,0,0,0,0
2,29999,67,20000,15,10000,40,9999,0.100000,0,0,0.000000,5,0.000000,0.000000,0.876598,0,0,0,0,0,0,0
2,29999,68,20000,32,0,40,9999,0.100000,0,0,0.000000,5,0.000000,0.000000,4.043285,0,0,0,0,0,0,0
2,29999,69,20000,15,10000,40,9999,0.100000,0,0,0.000000,5,0.000000,0.000000,0.482666,0,0,0,0,0,0,0
2,29999,70,20000,32,0,49,9999,0.100000,0,0,0.000000,5,2.000000,0.000000,2.867522,0,0,0,0,0,0,0
2,29999,71,20000,32,0,40,9999,0.100000,0,0,0.000000,5,0.000000,0.000000,2.464372,0,0,0,0,0,0,0
2,29999,72,20000,32,0,40,9999,0.100000,0,0,0.000000,5,0.000000,0.000000,2.726437,0,0,0,0,0,0,0
2,29999,73,20000,32,0,49,9999,0.100000,0,0,0.000000,5,2.000000,0.000000,5.759834,0,0,0,0,0,0,0
2,29999,74,20000,0,0,40,9999,0.100000,0,0,0.000000,5,0.000000,0.000000,0.063040,0,0,0,0,0,0,0
2,29999,75,20000,15,10000,49,9999,0.100000,0,0,0.000000,5,1.000000,0.000000,2.406165,0,0,0,0,0,0,0
2,29999,76,20000,0,0,49,9999,0.100000,0,0,0.000000,5,1.000000,0.000000,15.888003,0,0,0,0,0,0,0
2,29999,77,20000,0,0,49,9999,0.100000,0,0,0.000000,5,4.000000,0.000000,14.340198,0,0,0,0,0,0,0
2,29999,78,20000,32,0,49,9999,0.100000,0,0,0.000000,5,3.000000,0.000000,13.199700,0,0,0,0,0,0,0
2,29999,79,20000,61,10000,49,9999,0.100000,0,0,0.000000,5,1.000000,0.000000,12.474611,0,0,0,0,0,0,0
2,29999,80,20000,72,0,40,9999,0.100000,0,0,0.000000,5,0.000000,0.000000,1.031445,0,0,0,0,0,0,0
2,29999,81,20000,72,0,40,9999,0.100000,0,0,0.000000,5,0.000000,0.000000,0.996495,0,0,0,0,0,0,0
2,29999,82,20000,90,10000,40,9999,0.100000,0,0,0.000000,5,0.000000,0.000000,1.948315,0,0,0,0,0,0,0
2,29999,83,20000,15,10000,49,9999,0.100000,0,0,0.000000,5,2.000000,0.000000,6.864523,0,0,0,0,0,0,0
2,29999,84,20000,15,10000,99,9999,0.100000,0,0,34.210526,5,4.000000,0.000000,14.533727,0,0,1,0,0,0,0
2,29999,85,20000,72,0,40,9999,0.100000,0,0,0.000000,5,0.000000,0.000000,0.236270,0,0,0,0,0,0,0
2,29999,86,20000,61,10000,49,9999,0.100000,0,0,0.000000,5,1.000000,0.000000,8.575042,0,0,0,0,0,0,0
2,29999,87,20000,15,10000,49,9999,0.100000,0,0,0.000000,5,3.000000,0.000000,9.406659,0,0,0,0,0,0,0
2,29999,88,20000,90,10000,40,9999,0.100000,0,0,0.000000,5,0.000000,0.000000,0.516740,0,0,0,0,0,0,0
2,29999,89,20000,0,0,49,9999,0.100000,0,0,0.000000,5,2.000000,0.000000,9.522997,0,0,0,0,0,0,0
2,29999,90,20000,0,0,40,9999,0.100000,0,0,0.000000,5,0.000000,0.000000,0.104504,0,0,0,0,0,0,0
2,29999,91,20000,90,10000,40,9999,0.100000,0,0,0.000000,5,0.000000,0.000000,0.377681,0,0,0,0,0,0,0
2,29999,92,20000,90,10000,49,9999,0.100000,0,0,0.000000,5,1.000000,0.000000,1.398976,0,0,0,0,0,0,0
2,29999,93,20000,32,0,40,9999,0.100000,0,0,0.000000,5,0.000000,0.000000,7.357553,0,0,0,0,0,0,0
2,29999,94,20000,0,0,40,9999,0.100000,0,0,0.000000,5,0.000000,0.000000,2.130139,0,0,0,0,0,0,0
2,29999,95,20000,0,0,49,9999,0.100000,0,0,0.000000,5,5.000000,0.000000,11.015216,0,0,0,0,0,0,0
2,29999,96,20000,90,10000,40,9999,0.100000,0,0,0.000000,5,0.000000,0.000000,1.467591,0,0,0,0,0,0,0
2,29999,97,20000,90,10000,49,9999,0.100000,0,0,0.000000,5,1.000000,0.000000,5.004917,0,0,0,0,0,0,0
2,29999,98,20000,90,10000,40,9999,0.100000,0,0,0.000000,5,0.000000,0.000000,1.231784,0,0,0,0,0,0,0
2,29999,99,20000,90,10000,40,9999,0.100000,0,0,0.000000,5,0.000000,0.000000,0.161968,0,0,0,0,0,0,0
3,39999,0,30000,0,20000,49,9999,0.100000,0,0,0.000000,5,1.000000,0.000000,5.818796,0,0,0,0,0,0,0
3,39999,1,30000,0,20000,40,9999,0.100000,0,0,0.000000,5,0.000000,0.000000,0.765004,0,0,0,0,0,0,0
3,39999,2,30000,61,20000,40,9999,0.100000,0,0,0.000000,5,0.000000,0.000000,0.331617,0,0,0,0,0,0,0
3,39999,3,30000,0,0,49,9999,0.100000,0,0,0.000000,5,1.000000,0.000000,7.140182,0,0,0,0,0,0,0
3,39999,4,30000,32,0,49,9999,0.100000,0,0,0.000000,5,3.000000,0.000000,5.637366,0,0,0,0,0,0,0
3,39999,5,30000,0,20000,40,9999,0.100000,0,0,0.000000,5,0.000000,0.000000,0.756576,0,0,0,0,0,0,0
3,39999,6,30000,0,20000,40,9999,0.100000,0,0,0.000000,5,0.000000,0.000000,8.454264,0,0,0,0,0,0,0
3,39999,7,30000,90,10000,49,9999,0.100000,0,0,0.000000,5,1.000000,0.000000,6.741320,0,0,0,0,0,0,0
3,39999,8,30000,61,10000,49,9999,0.100000,0,0,0.000000,5,2.000000,0.000000,10.477790,0,0,0,0,0,0,0
3,39999,9,30000,0,0,49,9999,0.100000,0,0,0.000000,5,1.000000,0.000000,9.504919,0,0,0,0,0,0,0
3,39999,10,30000,0,0,40,9999,0.100000,0,0,0.000000,5,0.000000,0.000000,1.449891,0,0,0,0,0,0,0
3,39999,11,30000,32,0,40,9999,0.100000,0,0,0.000000,5,0.000000,0.000000,0.326618,0,0,0,0,0,0,0
3,39999,12,30000,61,10000,40,9999,0.100000,0,0,0.000000,5,0.000000,0.000000,0.088343,0,0,0,0,0,0,0
3,39999,13,30000,0,20000,40,9999,0.100000,0,0,0.000000,5,0.000000,0.000000,23.690097,0,0,0,0,0,0,0
3,39999,14,30000,61,20000,49,9999,0.100000,0,0,0.000000,5,5.000000,0.000000,18.046480,0,0,0,0,0,0,0
3,39999,15,30000,32,0,40,9999,0.100000,0,0,0.000000,5,0.000000,0.000000,0.249502,0,0,0,0,0,0,0
3,39999,16,30000,0,20000,49,9999,0.100000,0,0,0.000000,5,3.000000,0.000000,10.063152,0,0,0,0,0,0,0
3,39999,17,30000,61,20000,49,9999,0.100000,0,0,0.000000,5,4.000000,0.000000,11.408347,0,0,0,0,0,0,0
3,39999,18,30000,61,10000,49,9999,0.100000,0,0,0.000000,5,1.000000,0.000000,9.782384,0,0,0,0,0,0,0
3,39999,19,30000,32,0,49,9999,0.100000,0,0,0.000000,5,1.000000,0.000000,1.917984,0,0,0,0,0,0,0
3,39999,20,30000,90,10000,40,9999,0.100000,0,0,0.000000,5,0.000000,0.000000,10.565944,0,0,0,0,0,0,0
3,39999,21,30000,61,10000,40,9999,0.100000,0,0,0.000000,5,0.000000,0.000000,0.221644,0,0,0,0,0,0,0
3,39999,22,30000,61,10000,49,9999,0.100000,0,0,0.000000,5,1.000000,0.000000,13.217978,0,0,0,0,0,0,0
3,39999,23,30000,61,10000,49,9999,0.065000,0,0,0.000000,5,2.000000,0.000000,6.044239,0,0,0,0,0,0,0
3,39999,24,30000,61,10000,49,9999,0.100000,0,0,0.000000,5,1.000000,0.000000,13.137608,0,0,0,0,0,0,0
3,39999,25,30000,32,0,40,9999,0.100000,0,0,0.000000,5,0.000000,0.000000,0.361472,0,0,0,0,0,0,0
3,39999,26,30000,61,10000,40,9999,0.100000,0,0,0.000000,5,0.000000,0.000000,0.802350,0,0,0,0,0,0,0
3,39999,27,30000,0,20000,40,9999,0.100000,0,0,0.000000,5,0.000000,0.000000,2.761929,0,0,0,0,0,0,0
3,39999,28,30000,32,0,49,9999,0.100000,0,0,0.000000,5,1.000000,0.000000,6.102090,0,0,0,0,0,0,0
3,39999,29,30000,61,10000,49,9999,0.100000,0,0,0.000000,5,1.000000,0.000000,2.306455,0,0,0,0,0,0,0
3,39999,30,30000,0,0,40,9999,0.100000,0,0,0.000000,5,0.000000,0.000000,6.812217,0,0,0,0,0,0,0
3,39999,31,30000,0,20000,49,9999,0.100000,0,0,0.000000,5,3.000000,0.000000,8.420551,0,0,0,0,0,0,0
3,39999,32,30000,32,0,49,9999,0.100000,0,0,0.000000,5,1.000000,0.000000,5.406927,0,0,0,0,0,0,0
3,39999,33,30000,90,10000,40,9999,0.100000,0,0,0.000000,5,0.000000,0.000000,0.417537,0,0,0,0,0,0,0
3,39999,34,30000,32,0,40,9999,0.100000,0,0,0.000000,5,0.000000,0.000000,0.969682,0,0,0,0,0,0,0
3,39999,35,30000,61,10000,49,9999,0.100000,0,0,0.000000,5,3.000000,0.000000,5.338743,0,0,0,0,0,0,0
3,39999,36,30000,32,0,40,9999,0.100000,0,0,0.000000,5,0.000000,0.000000,3.623454,0,0,0,0,0,0,0
3,39999,37,30000,61,20000,40,9999,0.100000,0,0,0.000000,5,0.000000,0.000000,0.687785,0,0,0,0,0,0,0
3,39999,38,30000,90,10000,49,9999,0.100000,0,0,0.000000,5,1.000000,0.000000,1.990054,0,0,0,0,0,0,0
3,39999,39,30000,0,20000,49,9999,0.100000,0,0,0.000000,5,2.000000,0.000000,12.498421,0,0,0,0,0,0,0
3,39999,40,30000,61,10000,40,9999,0.100000,0,0,0.000000,5,0.000000,0.000000,0.426287,0,0,0,0,0,0,0
3,39999,41,30000,0,0,40,9999,0.100000,0,0,0.000000,5,0.000000,0.000000,0.586264,0,0,0,0,0,0,0
3,39999,42,30000,32,0,40,9999,0.100000,0,0,0.000000,5,0.000000,0.000000,0.237986,0,0,0,0,0,0,0
3,39999,43,30000,0,20000,49,9999,0.100000,0,0,0.000000,5,1.000000,0.000000,7.008178,0,0,0,0,0,0,0
3,39999,44,30000,0,0,49,9999,0.100000,0,0,0.000000,5,2.000000,0.000000,14.335113,0,0,0,0,0,0,0
3,39999,45,30000,0,0,40,9999,0.100000,0,0,0.000000,5,0.000000,0.000000,0.220951,0,0,0,0,0,0,0
3,39999,46,30000,61,10000,49,9999,0.100000,0,0,0.000000,5,1.000000,0.000000,1.729402,0,0,0,0,0,0,0
3,39999,47,30000,32,0,49,9999,0.100000,0,0,0.000000,5,2.000000,0.000000,7.414215,0,0,0,0,0,0,0
3,39999,48,30000,32,0,40,9999,0.100000,0,0,0.000000,5,0.000000,0.000000,6.736583,0,0,0,0,0,0,0
3,39999,49,30000,0,20000,40,9999,0.135000,0,0,0.000000,5,0.000000,0.000000,1.311500,0,0,0,0,0,0,0
3,39999,50,30000,61,10000,40,9999,0.100000,0,0,0.000000,5,0.000000,0.000000,0.369701,0,0,0,0,0,0,0
3,39999,51,30000,61,10000,40,9999,0.100000,0,0,0.000000,5,0.000000,0.000000,0.342801,0,0,0,0,0,0,0
3,39999,52,30000,0,0,49,9999,0.100000,0,0,0.000000,5,1.000000,0.000000,2.210371,0,0,0,0,0,0,0
3,39999,53,30000,32,0,49,9999,0.100000,0,0,0.000000,5,1.000000,0.000000,7.187288,0,0,0,0,0,0,0
3,39999,54,30000,0,20000,40,9999,0.100000,0,0,0.000000,5,0.000000,0.000000,2.349782,0,0,0,0,0,0,0
3,39999,55,30000,0,0,49,9999,0.100000,0,0,0.000000,5,1.000000,0.000000,9.103063,0,0,0,0,0,0,0
3,39999,56,30000,0,20000,49,9999,0.100000,0,0,0.000000,5,1.000000,0.000000,6.674970,0,0,0,0,0,0,0
3,39999,57,30000,61,20000,40,9999,0.100000,0,0,0.000000,5,0.000000,0.000000,0.570542,0,0,0,0,0,0,0
3,39999,58,30000,90,10000,49,9999,0.100000,0,0,0.000000,5,1.000000,0.000000,5.825910,0,0,0,0,0,0,0
3,39999,59,30000,0,0,99,9999,0.100000,0,0,34.210526,5,2.000000,0.000000,14.575294,0,0,1,0,0,0,0
3,39999,60,30000,61,10000,49,9999,0.100000,0,0,0.000000,5,2.000000,0.000000,8.750141,0,0,0,0,0,0,0
3,39999,61,30000,0,20000,40,9999,0.100000,0,0,0.000000,5,0.000000,0.000000,0.156707,0,0,0,0,0,0,0
3,39999,62,30000,61,10000,49,9999,0.100000,0,0,0.000000,5,2.000000,0.000000,14.931905,0,0,0,0,0,0,0
3,39999,63,30000,90,10000,49,9999,0.100000,0,0,0.000000,5,3.000000,0.000000,13.043947,0,0,0,0,0,0,0
3,39999,64,30000,0,0,40,9999,0.100000,0,0,0.000000,5,0.000000,0.000000,0.734020,0,0,0,0,0,0,0
3,39999,65,30000,32,0,49,9999,0.100000,0,0,0.000000,5,3.000000,0.000000,13.549912,0,0,0,0,0,0,0
3,39999,66,30000,32,0,40,9999,0.100000,0,0,0.000000,5,0.000000,0.000000,1.519117,0,0,0,0,0,0,0
3,39999,67,30000,0,20000,40,9999,0.100000,0,0,0.000000,5,0.000000,0.000000,0.009207,0,0,0,0,0,0,0
3,39999,68,30000,61,10000,40,9999,0.100000,0,0,0.000000,5,0.000000,0.000000,0.158554,0,0,0,0,0,0,0
3,39999,69,30000,0,0,40,9999,0.100000,0,0,0.000000,5,0.000000,0.000000,0.401848,0,0,0,0,0,0,0
3,39999,70,30000,0,0,40,9999,0.100000,0,0,0.000000,5,0.000000,0.000000,1.078156,0,0,0,0,0,0,0
3,39999,71,30000,0,0,40,9999,0.100000,0,0,0.000000,5,0.000000,0.000000,0.907509,0,0,0,0,0,0,0
3,39999,72,30000,32,0,40,9999,0.100000,0,0,0.000000,5,0.000000,0.000000,2.461091,0,0,0,0,0,0,0
3,39999,73,30000,32,0,40,9999,0.100000,0,0,0.000000,5,0.000000,0.000000,1.024750,0,0,0,0,0,0,0
3,39999,74,30000,0,0,40,9999,0.100000,0,0,0.000000,5,0.000000,0.000000,0.061562,0,0,0,0,0,0,0
3,39999,75,30000,32,0,40,9999,0.100000,0,0,0.000000,5,0.000000,0.000000,0.084730,0,0,0,0,0,0,0
3,39999,76,30000,32,0,49,9999,0.100000,0,0,0.000000,5,4.000000,0.000000,20.327586,0,0,0,0,0,0,0
3,39999,77,30000,61,10000,40,9999,0.100000,0,0,0.000000,5,0.000000,0.000000,1.161537,0,0,0,0,0,0,0
3,39999,78,30000,32,0,40,9999,0.100000,0,0,0.000000,5,0.000000,0.000000,4.721724,0,0,0,0,0,0,0
3,39999,79,30000,32,0,49,9999,0.100000,0,0,0.000000,5,7.000000,0.000000,9.657454,0,0,0,0,0,0,0
3,39999,80,30000,32,0,40,9999,0.100000,0,0,0.000000,5,0.000000,0.000000,0.884178,0,0,0,0,0,0,0
3,39999,81,30000,32,0,40,9999,0.100000,0,0,0.000000,5,0.000000,0.000000,1.024864,0,0,0,0,0,0,0
3,39999,82,30000,0,20000,99,9999,0.100000,0,0,34.210526,5,16.000000,0.000000,22.620133,0,0,1,0,0,0,0
3,39999,83,30000,32,0,40,9999,0.100000,0,0,0.000000,5,0.000000,0.000000,0.455421,0,0,0,0,0,0,0
3,39999,84,30000,32,0,49,9999,0.100000,0,0,0.000000,5,2.000000,0.000000,8.850915,0,0,0,0,0,0,0
3,39999,85,30000,0,0,40,9999,0.100000,0,0,0.000000,5,0.000000,0.000000,0.236971,0,0,0,0,0,0,0
3,39999,86,30000,0,20000,49,9999,0.100000,0,0,0.000000,5,2.000000,0.000000,3.231954,0,0,0,0,0,0,0
3,39999,87,30000,0,20000,49,9999,0.100000,0,0,0.000000,5,5.000000,0.000000,9.964671,0,0,0,0,0,0,0
3,39999,88,30000,32,0,40,9999,0.100000,0,0,0.000000,5,0.000000,0.000000,1.552344,0,0,0,0,0,0,0
3,39999,89,30000,0,0,40,9999,0.100000,0,0,0.000000,5,0.000000,0.000000,0.347158,0,0,0,0,0,0,0
3,39999,90,30000,90,10000,40,9999,0.100000,0,0,0.000000,5,0.000000,0.000000,0.603583,0,0,0,0,0,0,0
3,39999,91,30000,61,20000,40,9999,0.100000,0,0,0.000000,5,0.000000,0.000000,1.722657,0,0,0,0,0,0,0
3,39999,92,30000,0,0,40,9999,0.100000,0,0,0.000000,5,0.000000,0.000000,1.192436,0,0,0,0,0,0,0
3,39999,93,30000,61,20000,49,9999,0.100000,0,0,0.000000,5,5.000000,0.000000,13.675316,0,0,0,0,0,0,0
3,39999,94,30000,61,10000,40,9999,0.100000,0,0,0.000000,5,0.000000,0.000000,0.171536,0,0,0,0,0,0,0
3,39999,95,30000,32,0,49,9999,0.100000,0,0,0.000000,5,3.000000,0.000000,7.961984,0,0,0,0,0,0,0
3,39999,96,30000,90,10000,40,9999,0.100000,0,0,0.000000,5,0.000000,0.000000,4.170949,0,0,0,0,0,0,0
3,39999,97,30000,0,20000,49,9999,0.100000,0,0,0.000000,5,4.000000,0.000000,11.812109,0,0,0,0,0,0,0
3,39999,98,30000,61,10000,40,9999,0.100000,0,0,0.000000,5,0.000000,0.000000,3.917634,0,0,0,0,0,0,0
3,39999,99,30000,61,10000,40,9999,0.100000,0,0,0.000000,5,0.000000,0.000000,0.109287,0,0,0,0,0,0,0
4,49999,0,40000,61,10000,40,9999,0.100000,0,0,0.000000,5,0.000000,0.000000,1.068540,0,0,0,0,0,0,0
4,49999,1,40000,61,20000,40,9999,0.100000,0,0,0.000000,6,0.000000,0.000000,0.831070,0,0,0,0,0,0,0
4,49999,2,40000,0,20000,40,9999,0.100000,0,0,0.000000,5,0.000000,0.000000,0.354230,0,0,0,0,0,0,0
4,49999,3,40000,32,0,49,9999,0.100000,0,0,0.000000,6,1.000000,0.000000,2.968062,0,0,0,0,0,0,0
4,49999,4,40000,0,0,49,9999,0.100000,0,0,0.000000,6,3.000000,0.000000,18.278377,0,0,0,0,0,0,0
4,49999,5,40000,61,10000,40,9999,0.100000,0,0,0.000000,6,0.000000,0.000000,0.804844,0,0,0,0,0,0,0
4,49999,6,40000,5,30000,49,9999,0.100000,0,0,0.000000,6,1.000000,0.000000,5.469849,0,0,0,0,0,0,0
4,49999,7,30000,90,10000,40,19999,0.100000,0,0,0.000000,5,0.000000,0.000000,0.987786,0,0,0,0,0,0,0
4,49999,8,40000,61,10000,49,9999,0.100000,0,0,0.000000,6,1.000000,0.000000,9.472127,0,0,0,0,0,0,0
4,49999,9,40000,0,0,49,9999,0.100000,0,0,0.000000,5,3.000000,0.000000,11.620250,0,0,0,0,0,0,0
4,49999,10,40000,0,20000,40,9999,0.100000,0,0,0.000000,6,0.000000,0.000000,1.499949,0,0,0,0,0,0,0
4,49999,11,40000,61,10000,40,9999,0.100000,0,0,0.000000,6,0.000000,0.000000,0.225027,0,0,0,0,0,0,0
4,49999,12,40000,5,30000,40,9999,0.100000,0,0,0.000000,6,0.000000,0.000000,0.088033,0,0,0,0,0,0,0
4,49999,13,40000,61,10000,40,9999,0.100000,0,0,0.000000,5,0.000000,0.000000,23.787493,0,0,0,0,0,0,0
4,49999,14,40000,61,10000,49,9999,0.100000,0,0,0.000000,6,1.000000,0.000000,5.398177,0,0,0,0,0,0,0
4,49999,15,40000,32,0,40,9999,0.100000,0,0,0.000000,6,0.000000,0.000000,0.242837,0,0,0,0,0,0,0
4,49999,16,40000,32,0,40,9999,0.100000,0,0,0.000000,6,0.000000,0.000000,0.946365,0,0,0,0,0,0,0
4,49999,17,40000,32,0,49,9999,0.100000,0,0,0.000000,5,4.000000,0.000000,10.429247,0,0,0,0,0,0,0
4,49999,18,40000,0,0,40,9999,0.100000,0,0,0.000000,6,0.000000,0.000000,1.527623,0,0,0,0,0,0,0
4,49999,19,40000,0,20000,40,9999,0.100000,0,0,0.000000,6,0.000000,0.000000,0.789985,0,0,0,0,0,0,0
4,49999,20,40000,61,10000,40,9999,0.100000,0,0,0.000000,6,0.000000,0.000000,0.690226,0,0,0,0,0,0,0
4,49999,21,40000,61,20000,40,9999,0.100000,0,0,0.000000,6,0.000000,0.000000,0.234065,0,0,0,0,0,0,0
4,49999,22,40000,61,20000,40,9999,0.100000,0,0,0.000000,5,0.000000,0.000000,2.074604,0,0,0,0,0,0,0
4,49999,23,40000,61,10000,49,9999,0.100000,0,0,0.000000,6,1.000000,0.000000,9.376006,0,0,0,0,0,0,0
4,49999,24,40000,32,0,40,9999,0.100000,0,0,0.000000,6,0.000000,0.000000,0.875173,0,0,0,0,0,0,0
4,49999,25,40000,32,0,40,9999,0.100000,0,0,0.000000,6,0.000000,0.000000,0.401283,0,0,0,0,0,0,0
4,49999,26,40000,32,0,40,9999,0.100000,0,0,0.000000,5,0.000000,0.000000,0.530976,0,0,0,0,0,0,0
4,49999,27,40000,32,0,49,9999,0.100000,0,0,0.000000,6,2.000000,0.000000,10.609786,0,0,0,0,0,0,0
4,49999,28,40000,0,0,40,9999,0.100000,0,0,0.000000,5,0.000000,0.000000,0.782175,0,0,0,0,0,0,0
4,49999,29,40000,0,20000,40,9999,0.100000,0,0,0.000000,5,0.000000,0.000000,1.246074,0,0,0,0,0,0,0
4,49999,30,40000,32,0,40,9999,0.100000,0,0,0.000000,6,0.000000,0.000000,0.944980,0,0,0,0,0,0,0
4,49999,31,40000,61,20000,40,9999,0.100000,0,0,0.000000,5,0.000000,0.000000,0.879854,0,0,0,0,0,0,0
4,49999,32,40000,0,20000,49,9999,0.100000,0,0,0.000000,6,1.000000,0.000000,10.206923,0,0,0,0,0,0,0
4,49999,33,40000,5,30000,40,9999,0.100000,0,0,0.000000,6,0.000000,0.000000,0.371421,0,0,0,0,0,0,0
4,49999,34,40000,32,0,40,9999,0.100000,0,0,0.000000,5,0.000000,0.000000,1.009932,0,0,0,0,0,0,0
4,49999,35,40000,61,10000,49,9999,0.100000,0,0,0.000000,6,3.000000,0.000000,5.751945,0,0,0,0,0,0,0
4,49999,36,40000,61,10000,40,9999,0.100000,0,0,0.000000,6,0.000000,0.000000,2.907481,0,0,0,0,0,0,0
4,49999,37,40000,0,0,40,9999,0.100000,0,0,0.000000,6,0.000000,0.000000,0.497297,0,0,0,0,0,0,0
4,49999,38,40000,5,30000,40,9999,0.100000,0,0,0.000000,6,0.000000,0.000000,0.784111,0,0,0,0,0,0,0
4,49999,39,40000,61,10000,49,9999,0.100000,0,0,0.000000,6,3.000000,0.000000,14.961631,0,0,0,0,0,0,0
4,49999,40,40000,5,30000,40,9999,0.100000,0,0,0.000000,6,0.000000,0.000000,0.492792,0,0,0,0,0,0,0
4,49999,41,40000,0,0,40,9999,0.100000,0,0,0.000000,6,0.000000,0.000000,0.288563,0,0,0,0,0,0,0
4,49999,42,40000,61,10000,40,9999,0.100000,0,0,0.000000,6,0.000000,0.000000,0.256240,0,0,0,0,0,0,0
4,49999,43,40000,5,30000,40,9999,0.100000,0,0,0.000000,6,0.000000,0.000000,6.237030,0,0,0,0,0,0,0
4,49999,44,40000,32,0,49,9999,0.100000,0,0,0.000000,6,1.000000,0.000000,7.764886,0,0,0,0,0,0,0
4,49999,45,40000,61,20000,40,9999,0.100000,0,0,0.000000,5,0.000000,0.000000,0.227634,0,0,0,0,0,0,0
4,49999,46,40000,0,20000,49,9999,0.100000,0,0,0.000000,5,2.000000,0.000000,2.481255,0,0,0,0,0,0,0
4,49999,47,40000,61,20000,49,9999,0.100000,0,0,0.000000,6,1.000000,0.000000,6.688578,0,0,0,0,0,0,0
4,49999,48,40000,5,30000,40,9999,0.100000,0,0,0.000000,6,0.000000,0.000000,8.677251,0,0,0,0,0,0,0
4,49999,49,40000,61,20000,49,9999,0.100000,0,0,0.000000,5,1.000000,0.000000,1.382624,0,0,0,0,0,0,0
4,49999,50,40000,61,20000,40,9999,0.100000,0,0,0.000000,6,0.000000,0.000000,0.462390,0,0,0,0,0,0,0
4,49999,51,40000,32,0,40,9999,0.100000,0,0,0.000000,6,0.000000,0.000000,0.504634,0,0,0,0,0,0,0
4,49999,52,40000,0,20000,40,9999,0.100000,0,0,0.000000,6,0.000000,0.000000,1.244424,0,0,0,0,0,0,0
4,49999,53,40000,61,10000,49,9999,0.100000,0,0,0.000000,6,2.000000,0.000000,9.029717,0,0,0,0,0,0,0
4,49999,54,40000,0,0,40,9999,0.100000,0,0,0.000000,6,0.000000,0.000000,3.584161,0,0,0,0,0,0,0
4,49999,55,40000,61,10000,49,9999,0.100000,0,0,0.000000,6,1.000000,0.000000,6.761435,0,0,0,0,0,0,0
4,49999,56,40000,0,0,49,9999,0.100000,0,0,0.000000,6,3.000000,0.000000,11.625440,0,0,0,0,0,0,0
4,49999,57,40000,5,30000,40,9999,0.100000,0,0,0.000000,6,0.000000,0.000000,0.617752,0,0,0,0,0,0,0
4,49999,58,40000,0,20000,40,9999,0.100000,0,0,0.000000,6,0.000000,0.000000,0.146661,0,0,0,0,0,0,0
4,49999,59,40000,61,10000,49,9999,0.100000,0,0,0.000000,6,6.000000,0.000000,18.252793,0,0,0,0,0,0,0
4,49999,60,40000,61,10000,40,9999,0.100000,0,0,0.000000,6,0.000000,0.000000,1.112059,0,0,0,0,0,0,0
4,49999,61,40000,5,30000,40,9999,0.100000,0,0,0.000000,6,0.000000,0.000000,0.156435,0,0,0,0,0,0,0
4,49999,62,40000,61,20000,40,9999,0.100000,0,0,0.000000,6,0.000000,0.000000,0.906008,0,0,0,0,0,0,0
4,49999,63,40000,61,10000,49,9999,0.100000,0,0,0.000000,6,1.000000,0.000000,6.237365,0,0,0,0,0,0,0
4,49999,64,40000,61,20000,40,9999,0.100000,0,0,0.000000,6,0.000000,0.000000,1.170354,0,0,0,0,0,0,0
4,49999,65,40000,5,30000,40,9999,0.100000,0,0,0.000000,6,0.000000,0.000000,0.495187,0,0,0,0,0,0,0
4,49999,66,40000,61,20000,40,9999,0.100000,0,0,0.000000,5,0.000000,0.000000,5.240345,0,0,0,0,0,0,0
4,49999,67,40000,32,0,40,9999,0.100000,0,0,0.000000,5,0.000000,0.000000,0.009219,0,0,0,0,0,0,0
4,49999,68,40000,0,0,40,9999,0.100000,0,0,0.000000,6,0.000000,0.000000,0.180162,0,0,0,0,0,0,0
4,49999,69,40000,32,0,40,9999,0.100000,0,0,0.000000,6,0.000000,0.000000,0.446676,0,0,0,0,0,0,0
4,49999,70,40000,0,20000,40,9999,0.100000,0,0,0.000000,6,0.000000,0.000000,0.439668,0,0,0,0,0,0,0
4,49999,71,40000,61,10000,40,9999,0.100000,0,0,0.000000,6,0.000000,0.000000,0.889712,0,0,0,0,0,0,0
4,49999,72,40000,32,0,40,9999,0.100000,0,0,0.000000,6,0.000000,0.000000,3.842222,0,0,0,0,0,0,0
4,49999,73,40000,61,10000,40,9999,0.100000,0,0,0.000000,6,0.000000,0.000000,0.461480,0,0,0,0,0,0,0
4,49999,74,40000,32,0,40,9999,0.100000,0,0,0.000000,5,0.000000,0.000000,0.060883,0,0,0,0,0,0,0
4,49999,75,40000,61,10000,40,9999,0.100000,0,0,0.000000,6,0.000000,0.000000,0.081747,0,0,0,0,0,0,0
4,49999,76,40000,61,20000,40,9999,0.100000,0,0,0.000000,6,0.000000,0.000000,0.138241,0,0,0,0,0,0,0
4,49999,77,40000,0,0,40,9999,0.100000,0,0,0.000000,6,0.000000,0.000000,0.739255,0,0,0,0,0,0,0
4,49999,78,40000,0,20000,49,9999,0.100000,0,0,0.000000,6,4.000000,0.000000,10.699169,0,0,0,0,0,0,0
4,49999,79,40000,61,20000,40,9999,0.100000,0,0,0.000000,6,0.000000,0.000000,0.936522,0,0,0,0,0,0,0
4,49999,80,40000,61,10000,40,9999,0.100000,0,0,0.000000,6,0.000000,0.000000,0.941570,0,0,0,0,0,0,0
4,49999,81,40000,61,20000,40,9999,0.100000,0,0,0.000000,6,0.000000,0.000000,1.607372,0,0,0,0,0,0,0
4,49999,82,40000,32,0,49,9999,0.100000,0,0,0.000000,6,2.000000,0.000000,8.068039,0,0,0,0,0,0,0
4,49999,83,40000,5,30000,40,9999,0.100000,0,0,0.000000,6,0.000000,0.000000,0.468060,0,0,0,0,0,0,0
4,49999,84,40000,0,20000,40,9999,0.100000,0,0,0.000000,6,0.000000,0.000000,16.884454,0,0,0,0,0,0,0
4,49999,85,40000,61,20000,40,9999,0.100000,0,0,0.000000,6,0.000000,0.000000,0.224773,0,0,0,0,0,0,0
4,49999,86,40000,0,0,40,9999,0.100000,0,0,0.000000,5,0.000000,0.000000,3.469655,0,0,0,0,0,0,0
4,49999,87,40000,0,20000,40,9999,0.100000,0,0,0.000000,6,0.000000,0.000000,2.986768,0,0,0,0,0,0,0
4,49999,88,40000,61,20000,40,9999,0.100000,0,0,0.000000,6,0.000000,0.000000,0.365842,0,0,0,0,0,0,0
4,49999,89,40000,0,0,40,9999,0.100000,0,0,0.000000,6,0.000000,0.000000,0.516136,0,0,0,0,0,0,0
4,49999,90,40000,61,20000,40,9999,0.100000,0,0,0.000000,6,0.000000,0.000000,2.292145,0,0,0,0,0,0,0
4,49999,91,40000,0,0,40,9999,0.100000,0,0,0.000000,6,0.000000,0.000000,0.654759,0,0,0,0,0,0,0
4,49999,92,40000,32,0,40,9999,0.100000,0,0,0.000000,6,0.000000,0.000000,0.656828,0,0,0,0,0,0,0
4,49999,93,40000,61,20000,49,9999,0.100000,0,0,0.000000,6,3.000000,0.000000,13.287391,0,0,0,0,0,0,0
4,49999,94,40000,61,10000,40,9999,0.100000,0,0,0.000000,6,0.000000,0.000000,0.264424,0,0,0,0,0,0,0
4,49999,95,40000,0,20000,49,9999,0.100000,0,0,0.000000,6,1.000000,0.000000,6.258692,0,0,0,0,0,0,0
4,49999,96,40000,0,0,49,9999,0.100000,0,0,0.000000,6,1.000000,0.000000,13.851857,0,0,0,0,0,0,0
4,49999,97,40000,61,20000,49,9999,0.100000,0,0,0.000000,6,5.000000,0.000000,10.864820,0,0,0,0,0,0,0
4,49999,98,40000,32,0,49,9999,0.100000,0,0,0.000000,6,1.000000,0.000000,5.274774,0,0,0,0,0,0,0
4,49999,99,40000,0,20000,40,9999,0.100000,0,0,0.000000,6,0.000000,0.000000,0.122828,0,0,0,0,0,0,0
5,59999,0,50000,0,20000,49,9999,0.100000,0,0,0.000000,6,1.000000,0.000000,9.903419,0,0,0,0,0,0,0
5,59999,1,50000,0,0,40,9999,0.100000,0,0,0.000000,6,0.000000,0.000000,0.948305,0,0,0,0,0,0,0
5,59999,2,50000,0,0,40,9999,0.100000,0,0,0.000000,6,0.000000,0.000000,0.361373,0,0,0,0,0,0,0
5,59999,3,50000,0,20000,40,9999,0.100000,0,0,0.000000,6,0.000000,0.000000,8.272588,0,0,0,0,0,0,0
5,59999,4,50000,32,0,49,9999,0.100000,0,0,0.000000,6,2.000000,0.000000,8.714901,0,0,0,0,0,0,0
5,59999,5,50000,0,20000,49,9999,0.100000,0,0,0.000000,6,3.000000,0.000000,3.781401,0,0,0,0,0,0,0
5,59999,6,50000,61,20000,49,9999,0.100000,0,0,0.000000,6,2.000000,0.000000,16.439916,0,0,0,0,0,0,0
5,59999,7,50000,61,10000,40,9999,0.100000,0,0,0.000000,6,0.000000,0.000000,0.768986,0,0,0,0,0,0,0
5,59999,8,50000,61,10000,40,9999,0.100000,0,0,0.000000,6,0.000000,0.000000,11.812687,0,0,0,0,0,0,0
5,59999,9,50000,32,0,49,9999,0.100000,0,0,0.000000,6,2.000000,0.000000,13.601003,0,0,0,0,0,0,0
5,59999,10,50000,32,0,40,9999,0.100000,0,0,0.000000,6,0.000000,0.000000,1.685400,0,0,0,0,0,0,0
5,59999,11,50000,0,20000,40,9999,0.100000,0,0,0.000000,6,0.000000,0.000000,0.148988,0,0,0,0,0,0,0
5,59999,12,50000,0,20000,40,9999,0.100000,0,0,0.000000,6,0.000000,0.000000,0.087699,0,0,0,0,0,0,0
5,59999,13,50000,32,0,40,9999,0.100000,0,0,0.000000,6,0.000000,0.000000,23.883066,0,0,0,0,0,0,0
5,59999,14,50000,0,20000,49,9999,0.100000,0,0,0.000000,6,3.000000,0.000000,14.149275,0,0,0,0,0,0,0
5,59999,15,50000,32,0,40,9999,0.100000,0,0,0.000000,6,0.000000,0.000000,0.254885,0,0,0,0,0,0,0
5,59999,16,50000,32,0,40,9999,0.100000,0,0,0.000000,6,0.000000,0.000000,8.318388,0,0,0,0,0,0,0
5,59999,17,50000,0,0,40,9999,0.100000,0,0,0.000000,6,0.000000,0.000000,0.472064,0,0,0,0,0,0,0
5,59999,18,50000,61,10000,40,9999,0.100000,0,0,0.000000,6,0.000000,0.000000,1.014377,0,0,0,0,0,0,0
5,59999,19,50000,0,20000,40,9999,0.100000,0,0,0.000000,6,0.000000,0.000000,1.785465,0,0,0,0,0,0,0
5,59999,20,50000,5,30000,40,9999,0.100000,0,0,0.000000,6,0.000000,0.000000,0.572654,0,0,0,0,0,0,0
5,59999,21,50000,61,20000,40,9999,0.100000,0,0,0.000000,6,0.000000,0.000000,0.290133,0,0,0,0,0,0,0
5,59999,22,50000,5,30000,40,9999,0.100000,0,0,0.000000,6,0.000000,0.000000,1.562551,0,0,0,0,0,0,0
5,59999,23,50000,61,20000,40,9999,0.100000,0,0,0.000000,6,0.000000,0.000000,1.095242,0,0,0,0,0,0,0
5,59999,24,50000,61,20000,40,9999,0.100000,0,0,0.000000,6,0.000000,0.000000,1.009018,0,0,0,0,0,0,0
5,59999,25,50000,61,20000,40,9999,0.100000,0,0,0.000000,6,0.000000,0.000000,0.358985,0,0,0,0,0,0,0
5,59999,26,50000,32,0,49,9999,0.100000,0,0,0.000000,6,8.000000,0.000000,15.366337,0,0,0,0,0,0,0
5,59999,27,50000,0,0,49,9999,0.100000,0,0,0.000000,6,2.000000,0.000000,7.228580,0,0,0,0,0,0,0
5,59999,28,50000,0,0,40,9999,0.100000,0,0,0.000000,6,0.000000,0.000000,0.781777,0,0,0,0,0,0,0
5,59999,29,50000,61,10000,40,9999,0.100000,0,0,0.000000,6,0.000000,0.000000,2.744490,0,0,0,0,0,0,0
5,59999,30,50000,61,10000,49,9999,0.100000,0,0,0.000000,6,1.000000,0.000000,2.549078,0,0,0,0,0,0,0
5,59999,31,50000,0,0,40,9999,0.100000,0,0,0.000000,6,0.000000,0.000000,0.883716,0,0,0,0,0,0,0
5,59999,32,50000,5,30000,49,9999,0.100000,0,0,0.000000,6,1.000000,0.000000,5.587738,0,0,0,0,0,0,0
5,59999,33,50000,32,0,40,9999,0.100000,0,0,0.000000,6,0.000000,0.000000,0.430896,0,0,0,0,0,0,0
5,59999,34,50000,0,20000,40,9999,0.100000,0,0,0.000000,6,0.000000,0.000000,1.001701,0,0,0,0,0,0,0
5,59999,35,50000,0,0,40,9999,0.100000,0,0,0.000000,6,0.000000,0.000000,3.690191,0,0,0,0,0,0,0
5,59999,36,50000,32,0,40,9999,0.100000,0,0,0.000000,6,0.000000,0.000000,3.306286,0,0,0,0,0,0,0
5,59999,37,50000,61,20000,40,9999,0.100000,0,0,0.000000,6,0.000000,0.000000,0.216497,0,0,0,0,0,0,0
5,59999,38,50000,61,10000,40,9999,0.100000,0,0,0.000000,6,0.000000,0.000000,0.820498,0,0,0,0,0,0,0
5,59999,39,50000,61,10000,49,9999,0.100000,0,0,0.000000,6,2.000000,0.000000,14.269631,0,0,0,0,0,0,0
5,59999,40,50000,0,0,40,9999,0.100000,0,0,0.000000,6,0.000000,0.000000,0.535780,0,0,0,0,0,0,0
5,59999,41,50000,61,20000,40,9999,0.100000,0,0,0.000000,6,0.000000,0.000000,0.219047,0,0,0,0,0,0,0
5,59999,42,50000,61,20000,40,9999,0.100000,0,0,0.000000,6,0.000000,0.000000,0.225372,0,0,0,0,0,0,0
5,59999,43,50000,61,10000,49,9999,0.100000,0,0,0.000000,6,3.000000,0.000000,12.058717,0,0,0,0,0,0,0
5,59999,44,50000,5,30000,49,9999,0.100000,0,0,0.000000,6,1.000000,0.000000,7.969241,0,0,0,0,0,0,0
5,59999,45,50000,32,0,40,9999,0.100000,0,0,0.000000,6,0.000000,0.000000,0.233663,0,0,0,0,0,0,0
5,59999,46,50000,61,10000,49,9999,0.100000,0,0,0.000000,6,1.000000,0.000000,1.801084,0,0,0,0,0,0,0
5,59999,47,50000,0,20000,49,9999,0.100000,0,0,0.000000,6,2.000000,0.000000,6.216677,0,0,0,0,0,0,0
5,59999,48,50000,61,20000,49,9999,0.100000,0,0,0.000000,6,2.000000,0.000000,8.002542,0,0,0,0,0,0,0
5,59999,49,50000,0,0,49,9999,0.100000,0,0,0.000000,6,1.000000,0.000000,2.892275,0,0,0,0,0,0,0
5,59999,50,50000,32,0,40,9999,0.100000,0,0,0.000000,6,0.000000,0.000000,1.081511,0,0,0,0,0,0,0
5,59999,51,50000,5,30000,40,9999,0.100000,0,0,0.000000,6,0.000000,0.000000,3.537106,0,0,0,0,0,0,0
5,59999,52,50000,0,20000,40,9999,0.100000,0,0,0.000000,6,0.000000,0.000000,1.389425,0,0,0,0,0,0,0
5,59999,53,50000,5,30000,49,9999,0.100000,0,0,0.000000,6,1.000000,0.000000,5.853296,0,0,0,0,0,0,0
5,59999,54,50000,32,0,40,9999,0.100000,0,0,0.000000,6,0.000000,0.000000,2.970956,0,0,0,0,0,0,0
5,59999,55,50000,61,10000,40,9999,0.100000,0,0,0.000000,6,0.000000,0.000000,5.047300,0,0,0,0,0,0,0
5,59999,56,50000,0,0,40,9999,0.100000,0,0,0.000000,6,0.000000,0.000000,6.485147,0,0,0,0,0,0,0
5,59999,57,50000,61,20000,40,9999,0.100000,0,0,0.000000,6,0.000000,0.000000,0.513083,0,0,0,0,0,0,0
5,59999,58,50000,61,20000,40,9999,0.100000,0,0,0.000000,6,0.000000,0.000000,0.131918,0,0,0,0,0,0,0
5,59999,59,50000,32,0,40,9999,0.100000,0,0,0.000000,6,0.000000,0.000000,2.034665,0,0,0,0,0,0,0
5,59999,60,50000,32,0,40,9999,0.100000,0,0,0.000000,6,0.000000,0.000000,0.898725,0,0,0,0,0,0,0
5,59999,61,50000,5,30000,40,9999,0.100000,0,0,0.000000,6,0.000000,0.000000,0.157202,0,0,0,0,0,0,0
5,59999,62,50000,61,20000,40,9999,0.100000,0,0,0.000000,6,0.000000,0.000000,1.475120,0,0,0,0,0,0,0
5,59999,63,50000,5,30000,40,9999,0.100000,0,0,0.000000,6,0.000000,0.000000,1.502850,0,0,0,0,0,0,0
5,59999,64,50000,32,0,40,9999,0.100000,0,0,0.000000,6,0.000000,0.000000,0.641994,0,0,0,0,0,0,0
5,59999,65,50000,5,30000,40,9999,0.100000,0,0,0.000000,6,0.000000,0.000000,5.028208,0,0,0,0,0,0,0
5,59999,66,50000,0,20000,49,9999,0.100000,0,0,0.000000,6,1.000000,0.000000,4.333186,0,0,0,0,0,0,0
5,59999,67,50000,61,20000,40,9999,0.100000,0,0,0.000000,6,0.000000,0.000000,0.009200,0,0,0,0,0,0,0
5,59999,68,50000,32,0,40,9999,0.100000,0,0,0.000000,6,0.000000,0.000000,0.214102,0,0,0,0,0,0,0
5,59999,69,50000,61,20000,40,9999,0.100000,0,0,0.000000,6,0.000000,0.000000,0.621293,0,0,0,0,0,0,0
5,59999,70,50000,0,20000,40,9999,0.100000,0,0,0.000000,6,0.000000,0.000000,0.410287,0,0,0,0,0,0,0
5,59999,71,50000,5,30000,49,9999,0.100000,0,0,0.000000,6,1.000000,0.000000,4.250909,0,0,0,0,0,0,0
5,59999,72,50000,0,0,40,9999,0.100000,0,0,0.000000,6,0.000000,0.000000,3.172088,0,0,0,0,0,0,0
5,59999,73,50000,61,20000,40,9999,0.100000,0,0,0.000000,6,0.000000,0.000000,0.383753,0,0,0,0,0,0,0
5,59999,74,50000,61,20000,40,9999,0.100000,0,0,0.000000,6,0.000000,0.000000,0.060754,0,0,0,0,0,0,0
5,59999,75,50000,5,30000,40,9999,0.100000,0,0,0.000000,6,0.000000,0.000000,0.075788,0,0,0,0,0,0,0
5,59999,76,50000,61,10000,40,9999,0.100000,0,0,0.000000,6,0.000000,0.000000,0.139576,0,0,0,0,0,0,0
5,59999,77,50000,5,30000,40,9999,0.100000,0,0,0.000000,6,0.000000,0.000000,1.142494,0,0,0,0,0,0,0
5,59999,78,50000,61,20000,49,9999,0.100000,0,0,0.000000,6,4.000000,0.000000,14.300016,0,0,0,0,0,0,0
5,59999,79,50000,61,10000,49,9999,0.100000,0,0,0.000000,6,2.000000,0.000000,4.310474,0,0,0,0,0,0,0
5,59999,80,50000,0,20000,40,9999,0.100000,0,0,0.000000,6,0.000000,0.000000,1.183736,0,0,0,0,0,0,0
5,59999,81,50000,5,30000,40,9999,0.100000,0,0,0.000000,6,0.000000,0.000000,2.422794,0,0,0,0,0,0,0
5,59999,82,50000,61,10000,49,9999,0.100000,0,0,0.000000,6,1.000000,0.000000,10.487120,0,0,0,0,0,0,0
5,59999,83,50000,61,10000,40,9999,0.100000,0,0,0.000000,6,0.000000,0.000000,0.485027,0,0,0,0,0,0,0
5,59999,84,50000,0,0,40,9999,0.100000,0,0,0.000000,6,0.000000,0.000000,4.737484,0,0,0,0,0,0,0
5,59999,85,50000,61,10000,40,9999,0.100000,0,0,0.000000,6,0.000000,0.000000,0.226713,0,0,0,0,0,0,0
5,59999,86,50000,61,10000,40,9999,0.100000,0,0,0.000000,6,0.000000,0.000000,3.286597,0,0,0,0,0,0,0
5,59999,87,50000,32,0,40,9999,0.100000,0,0,0.000000,6,0.000000,0.000000,2.339005,0,0,0,0,0,0,0
5,59999,88,50000,32,0,40,9999,0.100000,0,0,0.000000,6,0.000000,0.000000,0.458682,0,0,0,0,0,0,0
5,59999,89,50000,0,0,40,9999,0.135000,0,0,0.000000,6,0.000000,0.000000,1.175909,0,0,0,0,0,0,0
5,59999,90,50000,61,10000,40,9999,0.100000,0,0,0.000000,6,0.000000,0.000000,1.155649,0,0,0,0,0,0,0
5,59999,91,50000,0,20000,40,9999,0.100000,0,0,0.000000,6,0.000000,0.000000,0.752648,0,0,0,0,0,0,0
5,59999,92,50000,0,0,40,9999,0.100000,0,0,0.000000,6,0.000000,0.000000,0.853056,0,0,0,0,0,0,0
5,59999,93,50000,0,0,49,9999,0.100000,0,0,0.000000,6,1.000000,0.000000,6.349418,0,0,0,0,0,0,0
5,59999,94,50000,0,20000,40,9999,0.100000,0,0,0.000000,6,0.000000,0.000000,0.284123,0,0,0,0,0,0,0
5,59999,95,50000,32,0,49,9999,0.100000,0,0,0.000000,6,2.000000,0.000000,9.395997,0,0,0,0,0,0,0
5,59999,96,50000,0,0,40,9999,0.100000,0,0,0.000000,6,0.000000,0.000000,2.885926,0,0,0,0,0,0,0
5,59999,97,50000,0,0,40,9999,0.100000,0,0,0.000000,6,0.000000,0.000000,1.537875,0,0,0,0,0,0,0
5,59999,98,50000,0,0,40,9999,0.100000,0,0,0.000000,6,0.000000,0.000000,3.935446,0,0,0,0,0,0,0
5,59999,99,50000,32,0,40,9999,0.100000,0,0,0.000000,6,0.000000,0.000000,0.163964,0,0,0,0,0,0,0
6,69999,0,60000,61,20000,49,9999,0.100000,0,0,0.000000,6,2.000000,0.000000,12.261745,0,0,0,0,0,0,0
6,69999,1,60000,5,30000,40,9999,0.100000,0,0,0.000000,6,0.000000,0.000000,0.975423,0,0,0,0,0,0,0
6,69999,2,60000,61,10000,49,9999,0.100000,0,0,0.000000,6,3.000000,0.000000,3.276251,0,0,0,0,0,0,0
6,69999,3,60000,32,0,49,9999,0.100000,0,0,0.000000,6,2.000000,0.000000,10.019784,0,0,0,0,0,0,0
6,69999,4,60000,0,0,49,9999,0.100000,0,0,0.000000,6,1.000000,0.000000,4.694749,0,0,0,0,0,0,0
6,69999,5,60000,32,0,99,9999,0.100000,0,0,34.210526,6,1.000000,0.000000,8.874194,0,0,1,0,0,0,0
6,69999,6,60000,0,20000,49,9999,0.100000,0,0,0.000000,6,1.000000,0.000000,8.893149,0,0,0,0,0,0,0
6,69999,7,60000,32,0,40,9999,0.100000,0,0,0.000000,6,0.000000,0.000000,0.964231,0,0,0,0,0,0,0
6,69999,8,60000,32,0,49,9999,0.100000,0,0,0.000000,6,1.000000,0.000000,10.686859,0,0,0,0,0,0,0
6,69999,9,60000,0,20000,49,9999,0.100000,0,0,0.000000,6,4.000000,0.000000,20.451957,0,0,0,0,0,0,0
6,69999,10,60000,0,0,40,9999,0.100000,0,0,0.000000,6,0.000000,0.000000,3.212576,0,0,0,0,0,0,0
6,69999,11,60000,61,10000,40,9999,0.100000,0,0,0.000000,6,0.000000,0.000000,0.118378,0,0,0,0,0,0,0
6,69999,12,60000,61,10000,40,9999,0.100000,0,0,0.000000,6,0.000000,0.000000,0.097357,0,0,0,0,0,0,0
6,69999,13,60000,32,0,49,9999,0.100000,0,0,0.000000,6,3.000000,0.000000,25.289586,0,0,0,0,0,0,0
6,69999,14,60000,61,20000,40,9999,0.100000,0,0,0.000000,6,0.000000,0.000000,10.529827,0,0,0,0,0,0,0
6,69999,15,60000,5,30000,40,9999,0.100000,0,0,0.000000,6,0.000000,0.000000,0.784058,0,0,0,0,0,0,0
6,69999,16,60000,61,20000,49,9999,0.100000,0,0,0.000000,6,3.000000,0.000000,19.688639,0,0,0,0,0,0,0
6,69999,17,60000,0,0,40,9999,0.100000,0,0,0.000000,6,0.000000,0.000000,0.720047,0,0,0,0,0,0,0
6,69999,18,60000,32,0,40,9999,0.100000,0,0,0.000000,6,0.000000,0.000000,0.823144,0,0,0,0,0,0,0
6,69999,19,60000,5,30000,49,9999,0.100000,0,0,0.000000,6,1.000000,0.000000,1.773600,0,0,0,0,0,0,0
6,69999,20,60000,61,20000,40,9999,0.100000,0,0,0.000000,6,0.000000,0.000000,0.713094,0,0,0,0,0,0,0
6,69999,21,60000,32,0,40,9999,0.100000,0,0,0.000000,6,0.000000,0.000000,0.320039,0,0,0,0,0,0,0
6,69999,22,60000,0,0,49,9999,0.100000,0,0,0.000000,6,1.000000,0.000000,8.165306,0,0,0,0,0,0,0
6,69999,23,60000,0,0,40,9999,0.100000,0,0,0.000000,6,0.000000,0.000000,3.014348,0,0,0,0,0,0,0
6,69999,24,60000,0,0,40,9999,0.100000,0,0,0.000000,6,0.000000,0.000000,1.168615,0,0,0,0,0,0,0
6,69999,25,60000,61,10000,40,9999,0.100000,0,0,0.000000,6,0.000000,0.000000,0.283639,0,0,0,0,0,0,0
6,69999,26,60000,32,0,40,9999,0.100000,0,0,0.000000,6,0.000000,0.000000,0.126589,0,0,0,0,0,0,0
6,69999,27,60000,32,0,49,9999,0.100000,0,0,0.000000,6,1.000000,0.000000,2.806850,0,0,0,0,0,0,0
6,69999,28,60000,5,30000,49,9999,0.100000,0,0,0.000000,6,1.000000,0.000000,6.745286,0,0,0,0,0,0,0
6,69999,29,60000,5,30000,40,9999,0.100000,0,0,0.000000,6,0.000000,0.000000,0.861484,0,0,0,0,0,0,0
6,69999,30,60000,61,20000,40,9999,0.100000,0,0,0.000000,6,0.000000,0.000000,1.119086,0,0,0,0,0,0,0
6,69999,31,60000,0,20000,49,9999,0.100000,0,0,0.000000,6,2.000000,0.000000,7.908434,0,0,0,0,0,0,0
6,69999,32,60000,0,0,49,9999,0.100000,0,0,0.000000,6,1.000000,0.000000,12.722809,0,0,0,0,0,0,0
6,69999,33,60000,5,30000,40,9999,0.100000,0,0,0.000000,6,0.000000,0.000000,0.478064,0,0,0,0,0,0,0
6,69999,34,60000,32,0,40,9999,0.100000,0,0,0.000000,6,0.000000,0.000000,1.006593,0,0,0,0,0,0,0
6,69999,35,60000,5,30000,49,9999,0.100000,0,0,0.000000,6,2.000000,0.000000,5.257396,0,0,0,0,0,0,0
6,69999,36,60000,0,0,40,9999,0.100000,0,0,0.000000,6,0.000000,0.000000,3.319798,0,0,0,0,0,0,0
6,69999,37,60000,61,20000,40,9999,0.100000,0,0,0.000000,6,0.000000,0.000000,0.150734,0,0,0,0,0,0,0
6,69999,38,60000,0,20000,49,9999,0.100000,0,0,0.000000,6,6.000000,0.000000,6.548263,0,0,0,0,0,0,0
6,69999,39,60000,61,20000,49,9999,0.100000,0,0,0.000000,6,6.000000,0.000000,17.397044,0,0,0,0,0,0,0
6,69999,40,60000,61,20000,49,9999,0.100000,0,0,0.000000,6,2.000000,0.000000,5.042787,0,0,0,0,0,0,0
6,69999,41,60000,0,20000,40,9999,0.100000,0,0,0.000000,6,0.000000,0.000000,0.197521,0,0,0,0,0,0,0
6,69999,42,60000,61,10000,40,9999,0.100000,0,0,0.000000,6,0.000000,0.000000,0.944232,0,0,0,0,0,0,0
6,69999,43,60000,32,0,49,9999,0.100000,0,0,0.000000,6,2.000000,0.000000,6.226232,0,0,0,0,0,0,0
6,69999,44,60000,0,20000,49,9999,0.100000,0,0,0.000000,6,3.000000,0.000000,4.030279,0,0,0,0,0,0,0
6,69999,45,60000,32,0,40,9999,0.100000,0,0,0.000000,6,0.000000,0.000000,0.212969,0,0,0,0,0,0,0
6,69999,46,60000,5,30000,40,9999,0.100000,0,0,0.000000,6,0.000000,0.000000,0.830848,0,0,0,0,0,0,0
6,69999,47,60000,0,0,49,9999,0.100000,0,0,0.000000,6,3.000000,0.000000,11.494972,0,0,0,0,0,0,0
6,69999,48,60000,61,20000,49,9999,0.100000,0,0,0.000000,6,3.000000,0.000000,9.121014,0,0,0,0,0,0,0
6,69999,49,60000,5,30000,49,9999,0.100000,0,0,0.000000,6,1.000000,0.000000,6.688036,0,0,0,0,0,0,0
6,69999,50,60000,0,20000,49,9999,0.100000,0,0,0.000000,6,3.000000,0.000000,3.855886,0,0,0,0,0,0,0
6,69999,51,60000,0,20000,49,9999,0.100000,0,0,0.000000,6,1.000000,0.000000,5.456124,0,0,0,0,0,0,0
6,69999,52,60000,61,20000,49,9999,0.100000,0,0,0.000000,6,1.000000,0.000000,1.531430,0,0,0,0,0,0,0
6,69999,53,60000,61,20000,49,9999,0.100000,0,0,0.000000,6,3.000000,0.000000,7.632740,0,0,0,0,0,0,0
6,69999,54,60000,0,20000,40,9999,0.100000,0,0,0.000000,6,0.000000,0.000000,2.353227,0,0,0,0,0,0,0
6,69999,55,60000,61,20000,49,9999,0.100000,0,0,0.000000,6,3.000000,0.000000,7.492820,0,0,0,0,0,0,0
6,69999,56,60000,5,30000,49,9999,0.100000,0,0,0.000000,6,2.000000,0.000000,9.605676,0,0,0,0,0,0,0
6,69999,57,60000,61,20000,40,9999,0.100000,0,0,0.000000,6,0.000000,0.000000,0.456766,0,0,0,0,0,0,0
6,69999,58,60000,61,20000,40,9999,0.100000,0,0,0.000000,6,0.000000,0.000000,0.107438,0,0,0,0,0,0,0
6,69999,59,60000,32,0,49,9999,0.100000,0,0,0.000000,6,4.000000,0.000000,12.759484,0,0,0,0,0,0,0
6,69999,60,60000,0,0,40,9999,0.100000,0,0,0.000000,6,0.000000,0.000000,1.049345,0,0,0,0,0,0,0
6,69999,61,60000,0,0,40,9999,0.100000,0,0,0.000000,6,0.000000,0.000000,0.157834,0,0,0,0,0,0,0
6,69999,62,60000,5,30000,40,9999,0.100000,0,0,0.000000,6,0.000000,0.000000,1.654744,0,0,0,0,0,0,0
6,69999,63,60000,0,20000,49,9999,0.100000,0,0,0.000000,6,4.000000,0.000000,8.958546,0,0,0,0,0,0,0
6,69999,64,60000,61,20000,40,9999,0.100000,0,0,0.000000,6,0.000000,0.000000,0.743805,0,0,0,0,0,0,0
6,69999,65,60000,0,20000,40,9999,0.100000,0,0,0.000000,6,0.000000,0.000000,0.127152,0,0,0,0,0,0,0
6,69999,66,60000,61,20000,49,9999,0.100000,0,0,0.000000,6,5.000000,0.000000,17.406481,0,0,0,0,0,0,0
6,69999,67,60000,0,0,40,9999,0.100000,0,0,0.000000,6,0.000000,0.000000,0.009208,0,0,0,0,0,0,0
6,69999,68,60000,0,0,40,9999,0.100000,0,0,0.000000,6,0.000000,0.000000,0.226290,0,0,0,0,0,0,0
6,69999,69,60000,0,20000,49,9999,0.100000,0,0,0.000000,6,3.000000,0.000000,3.695157,0,0,0,0,0,0,0
6,69999,70,60000,61,20000,49,9999,0.100000,0,0,0.000000,6,1.000000,0.000000,1.801635,0,0,0,0,0,0,0
6,69999,71,60000,32,0,40,9999,0.100000,0,0,0.000000,6,0.000000,0.000000,4.378222,0,0,0,0,0,0,0
6,69999,72,60000,61,20000,40,9999,0.100000,0,0,0.000000,6,0.000000,0.000000,2.311515,0,0,0,0,0,0,0
6,69999,73,60000,61,10000,40,9999,0.100000,0,0,0.000000,6,0.000000,0.000000,0.360569,0,0,0,0,0,0,0
6,69999,74,60000,0,20000,40,9999,0.100000,0,0,0.000000,6,0.000000,0.000000,0.080035,0,0,0,0,0,0,0
6,69999,75,60000,0,20000,40,9999,0.100000,0,0,0.000000,6,0.000000,0.000000,0.081368,0,0,0,0,0,0,0
6,69999,76,60000,0,20000,40,9999,0.100000,0,0,0.000000,6,0.000000,0.000000,0.133932,0,0,0,0,0,0,0
6,69999,77,60000,0,20000,40,9999,0.100000,0,0,0.000000,6,0.000000,0.000000,0.587809,0,0,0,0,0,0,0
6,69999,78,60000,61,10000,40,9999,0.100000,0,0,0.000000,6,0.000000,0.000000,12.870139,0,0,0,0,0,0,0
6,69999,79,60000,5,30000,49,9999,0.100000,0,0,0.000000,6,2.000000,0.000000,4.444478,0,0,0,0,0,0,0
6,69999,80,60000,61,10000,40,9999,0.100000,0,0,0.000000,6,0.000000,0.000000,1.273254,0,0,0,0,0,0,0
6,69999,81,60000,32,0,40,9999,0.100000,0,0,0.000000,6,0.000000,0.000000,0.831718,0,0,0,0,0,0,0
6,69999,82,60000,61,20000,49,9999,0.100000,0,0,0.000000,6,2.000000,0.000000,6.584373,0,0,0,0,0,0,0
6,69999,83,60000,5,30000,40,9999,0.100000,0,0,0.000000,6,0.000000,0.000000,0.519313,0,0,0,0,0,0,0
6,69999,84,60000,0,20000,40,9999,0.100000,0,0,0.000000,6,0.000000,0.000000,0.656842,0,0,0,0,0,0,0
6,69999,85,60000,5,30000,40,9999,0.100000,0,0,0.000000,6,0.000000,0.000000,0.238148,0,0,0,0,0,0,0
6,69999,86,60000,61,10000,40,9999,0.100000,0,0,0.000000,6,0.000000,0.000000,4.923234,0,0,0,0,0,0,0
6,69999,87,60000,61,10000,40,9999,0.100000,0,0,0.000000,6,0.000000,0.000000,1.481723,0,0,0,0,0,0,0
6,69999,88,60000,0,0,49,9999,0.100000,0,0,0.000000,6,6.000000,0.000000,6.397029,0,0,0,0,0,0,0
6,69999,89,60000,32,0,40,9999,0.100000,0,0,0.000000,6,0.000000,0.000000,2.817905,0,0,0,0,0,0,0
6,69999,90,60000,0,20000,40,9999,0.100000,0,0,0.000000,6,0.000000,0.000000,2.640701,0,0,0,0,0,0,0
6,69999,91,60000,5,30000,49,9999,0.100000,0,0,0.000000,6,6.000000,0.000000,6.456124,0,0,0,0,0,0,0
6,69999,92,60000,5,30000,49,9999,0.100000,0,0,0.000000,6,1.000000,0.000000,5.754225,0,0,0,0,0,0,0
6,69999,93,60000,0,0,40,9999,0.100000,0,0,0.000000,6,0.000000,0.000000,3.901636,0,0,0,0,0,0,0
6,69999,94,60000,32,0,49,9999,0.100000,0,0,0.000000,6,3.000000,0.000000,3.307346,0,0,0,0,0,0,0
6,69999,95,60000,32,0,49,9999,0.100000,0,0,0.000000,6,2.000000,0.000000,12.174441,0,0,0,0,0,0,0
6,69999,96,60000,61,10000,40,9999,0.100000,0,0,0.000000,6,0.000000,0.000000,0.749997,0,0,0,0,0,0,0
6,69999,97,60000,32,0,40,9999,0.100000,0,0,0.000000,6,0.000000,0.000000,1.129751,0,0,0,0,0,0,0
6,69999,98,60000,0,20000,40,9999,0.100000,0,0,0.000000,6,0.000000,0.000000,0.925679,0,0,0,0,0,0,0
6,69999,99,60000,61,20000,40,9999,0.100000,0,0,0.000000,6,0.000000,0.000000,0.184344,0,0,0,0,0,0,0
7,79999,0,70000,5,30000,49,9999,0.100000,0,0,0.000000,6,1.000000,0.000000,13.177277,0,0,0,0,0,0,0
7,79999,1,70000,5,30000,40,9999,0.100000,0,0,0.000000,6,0.000000,0.000000,1.287071,0,0,0,0,0,0,0
7,79999,2,70000,61,20000,40,9999,0.100000,0,0,0.000000,6,0.000000,0.000000,5.890946,0,0,0,0,0,0,0
7,79999,3,70000,5,30000,40,9999,0.100000,0,0,0.000000,6,0.000000,0.000000,0.289349,0,0,0,0,0,0,0
7,79999,4,70000,61,20000,49,9999,0.100000,0,0,0.000000,6,1.000000,0.000000,4.602755,0,0,0,0,0,0,0
7,79999,5,70000,0,0,49,9999,0.100000,0,0,0.000000,6,1.000000,0.000000,10.280972,0,0,0,0,0,0,0
7,79999,6,70000,5,30000,49,9999,0.100000,0,0,0.000000,6,1.000000,0.000000,5.739371,0,0,0,0,0,0,0
7,79999,7,70000,0,20000,40,9999,0.100000,0,0,0.000000,6,0.000000,0.000000,0.873449,0,0,0,0,0,0,0
7,79999,8,70000,32,0,40,9999,0.100000,0,0,0.000000,6,0.000000,0.000000,2.915443,0,0,0,0,0,0,0
7,79999,9,70000,0,20000,40,9999,0.100000,0,0,0.000000,6,0.000000,0.000000,15.499414,0,0,0,0,0,0,0
7,79999,10,70000,5,30000,40,9999,0.100000,0,0,0.000000,6,0.000000,0.000000,7.311435,0,0,0,0,0,0,0
7,79999,11,70000,0,20000,40,9999,0.100000,0,0,0.000000,6,0.000000,0.000000,0.126489,0,0,0,0,0,0,0
7,79999,12,70000,32,0,49,9999,0.100000,0,0,0.000000,6,1.000000,0.000000,1.293618,0,0,0,0,0,0,0
7,79999,13,70000,61,10000,49,9999,0.100000,0,0,0.000000,6,1.000000,0.000000,3.610354,0,0,0,0,0,0,0
7,79999,14,70000,61,20000,49,9999,0.100000,0,0,0.000000,6,1.000000,0.000000,12.716979,0,0,0,0,0,0,0
7,79999,15,70000,61,20000,40,9999,0.100000,0,0,0.000000,6,0.000000,0.000000,0.410902,0,0,0,0,0,0,0
7,79999,16,70000,61,20000,49,9999,0.100000,0,0,0.000000,6,1.000000,0.000000,12.071826,0,0,0,0,0,0,0
7,79999,17,70000,0,0,40,9999,0.100000,0,0,0.000000,6,0.000000,0.000000,1.905532,0,0,0,0,0,0,0
7,79999,18,70000,61,10000,40,9999,0.100000,0,0,0.000000,6,0.000000,0.000000,1.253105,0,0,0,0,0,0,0
7,79999,19,70000,0,20000,40,9999,0.100000,0,0,0.000000,6,0.000000,0.000000,0.527533,0,0,0,0,0,0,0
7,79999,20,70000,0,20000,40,9999,0.100000,0,0,0.000000,6,0.000000,0.000000,0.769928,0,0,0,0,0,0,0
7,79999,21,70000,0,0,40,9999,0.100000,0,0,0.000000,6,0.000000,0.000000,0.372658,0,0,0,0,0,0,0
7,79999,22,70000,5,30000,49,9999,0.100000,0,0,0.000000,6,4.000000,0.000000,8.742574,0,0,0,0,0,0,0
7,79999,23,70000,32,0,40,9999,0.100000,0,0,0.000000,6,0.000000,0.000000,4.458713,0,0,0,0,0,0,0
7,79999,24,70000,0,0,40,9999,0.100000,0,0,0.000000,6,0.000000,0.000000,1.841025,0,0,0,0,0,0,0
7,79999,25,70000,61,20000,40,9999,0.100000,0,0,0.000000,6,0.000000,0.000000,0.697976,0,0,0,0,0,0,0
7,79999,26,70000,0,0,40,9999,0.100000,0,0,0.000000,6,0.000000,0.000000,0.124634,0,0,0,0,0,0,0
7,79999,27,70000,0,0,49,9999,0.100000,0,0,0.000000,6,3.000000,0.000000,10.394697,0,0,0,0,0,0,0
7,79999,28,70000,61,10000,40,9999,0.100000,0,0,0.000000,6,0.000000,0.000000,1.096027,0,0,0,0,0,0,0
7,79999,29,70000,61,20000,40,9999,0.100000,0,0,0.000000,6,0.000000,0.000000,0.406889,0,0,0,0,0,0,0
7,79999,30,70000,0,20000,49,9999,0.100000,0,0,0.000000,6,1.000000,0.000000,6.799343,0,0,0,0,0,0,0
7,79999,31,70000,0,0,40,9999,0.100000,0,0,0.000000,6,0.000000,0.000000,0.232002,0,0,0,0,0,0,0
7,79999,32,70000,0,0,49,9999,0.100000,0,0,0.000000,6,1.000000,0.000000,1.255232,0,0,0,0,0,0,0
7,79999,33,70000,32,0,40,9999,0.100000,0,0,0.000000,6,0.000000,0.000000,0.501142,0,0,0,0,0,0,0
7,79999,34,70000,61,10000,40,9999,0.100000,0,0,0.000000,6,0.000000,0.000000,0.951922,0,0,0,0,0,0,0
7,79999,35,70000,0,20000,49,9999,0.100000,0,0,0.000000,6,1.000000,0.000000,10.342332,0,0,0,0,0,0,0
7,79999,36,70000,32,0,40,9999,0.100000,0,0,0.000000,6,0.000000,0.000000,0.865089,0,0,0,0,0,0,0
7,79999,37,70000,0,0,40,9999,0.100000,0,0,0.000000,6,0.000000,0.000000,0.890459,0,0,0,0,0,0,0
7,79999,38,70000,61,10000,49,9999,0.100000,0,0,0.000000,6,1.000000,0.000000,1.589556,0,0,0,0,0,0,0
7,79999,39,70000,61,20000,49,9999,0.100000,0,0,0.000000,6,6.000000,0.000000,7.259856,0,0,0,0,0,0,0
7,79999,40,70000,5,30000,40,9999,0.100000,0,0,0.000000,6,0.000000,0.000000,0.207749,0,0,0,0,0,0,0
7,79999,41,70000,5,30000,40,9999,0.100000,0,0,0.000000,6,0.000000,0.000000,0.205156,0,0,0,0,0,0,0
7,79999,42,70000,61,20000,40,9999,0.100000,0,0,0.000000,6,0.000000,0.000000,0.246385,0,0,0,0,0,0,0
7,79999,43,70000,0,20000,49,9999,0.100000,0,0,0.000000,6,3.000000,0.000000,8.934073,0,0,0,0,0,0,0
7,79999,44,70000,0,20000,49,9999,0.100000,0,0,0.000000,6,2.000000,0.000000,10.357028,0,0,0,0,0,0,0
7,79999,45,70000,61,20000,40,9999,0.100000,0,0,0.000000,6,0.000000,0.000000,0.213164,0,0,0,0,0,0,0
7,79999,46,70000,32,0,40,9999,0.100000,0,0,0.000000,6,0.000000,0.000000,0.908362,0,0,0,0,0,0,0
7,79999,47,70000,61,20000,40,9999,0.100000,0,0,0.000000,6,0.000000,0.000000,1.028751,0,0,0,0,0,0,0
7,79999,48,70000,0,0,49,9999,0.135000,0,0,0.000000,6,5.000000,0.000000,11.396953,0,0,0,0,0,0,0
7,79999,49,70000,0,0,40,9999,0.100000,0,0,0.000000,6,0.000000,0.000000,1.655494,0,0,0,0,0,0,0
7,79999,50,70000,61,10000,49,9999,0.100000,0,0,0.000000,6,9.000000,0.000000,10.816997,0,0,0,0,0,0,0
7,79999,51,70000,0,20000,49,9999,0.100000,0,0,0.000000,6,2.000000,0.000000,23.821439,0,0,0,0,0,0,0
7,79999,52,70000,5,30000,49,9999,0.100000,0,0,0.000000,6,3.000000,0.000000,7.788284,0,0,0,0,0,0,0
7,79999,53,70000,61,20000,49,9999,0.100000,0,0,0.000000,6,1.000000,0.000000,7.935106,0,0,0,0,0,0,0
7,79999,54,70000,32,0,40,9999,0.100000,0,0,0.000000,6,0.000000,0.000000,3.120471,0,0,0,0,0,0,0
7,79999,55,70000,0,20000,49,9999,0.100000,0,0,0.000000,6,1.000000,0.000000,10.330030,0,0,0,0,0,0,0
7,79999,56,70000,61,10000,49,9999,0.100000,0,0,0.000000,6,3.000000,0.000000,11.005539,0,0,0,0,0,0,0
7,79999,57,70000,61,20000,40,9999,0.100000,0,0,0.000000,6,0.000000,0.000000,0.465443,0,0,0,0,0,0,0
7,79999,58,70000,61,10000,40,9999,0.100000,0,0,0.000000,6,0.000000,0.000000,0.977816,0,0,0,0,0,0,0
7,79999,59,70000,0,0,49,9999,0.100000,0,0,0.000000,6,2.000000,0.000000,17.661357,0,0,0,0,0,0,0
7,79999,60,70000,61,10000,40,9999,0.065000,0,0,0.000000,6,0.000000,0.000000,0.970751,0,0,0,0,0,0,0
7,79999,61,70000,61,10000,40,9999,0.100000,0,0,0.000000,6,0.000000,0.000000,0.157842,0,0,0,0,0,0,0
7,79999,62,70000,0,20000,40,9999,0.100000,0,0,0.000000,6,0.000000,0.000000,2.662727,0,0,0,0,0,0,0
7,79999,63,70000,32,0,40,9999,0.100000,0,0,0.000000,6,0.000000,0.000000,3.439534,0,0,0,0,0,0,0
7,79999,64,70000,0,0,40,9999,0.100000,0,0,0.000000,6,0.000000,0.000000,0.680227,0,0,0,0,0,0,0
7,79999,65,70000,5,30000,40,9999,0.100000,0,0,0.000000,6,0.000000,0.000000,1.133682,0,0,0,0,0,0,0
7,79999,66,70000,61,20000,49,9999,0.100000,0,0,0.000000,6,8.000000,0.000000,9.918764,0,0,0,0,0,0,0
7,79999,67,70000,61,20000,40,9999,0.100000,0,0,0.000000,6,0.000000,0.000000,0.009212,0,0,0,0,0,0,0
7,79999,68,70000,32,0,40,9999,0.100000,0,0,0.000000,6,0.000000,0.000000,0.240893,0,0,0,0,0,0,0
7,79999,69,70000,0,20000,49,9999,0.100000,0,0,0.000000,6,7.000000,0.000000,11.745287,0,0,0,0,0,0,0
7,79999,70,70000,61,20000,40,9999,0.100000,0,0,0.000000,6,0.000000,0.000000,0.531854,0,0,0,0,0,0,0
7,79999,71,70000,0,20000,49,9999,0.100000,0,0,0.000000,6,1.000000,0.000000,4.034454,0,0,0,0,0,0,0
7,79999,72,70000,32,0,40,9999,0.100000,0,0,0.000000,6,0.000000,0.000000,2.987266,0,0,0,0,0,0,0
7,79999,73,70000,61,10000,40,9999,0.100000,0,0,0.000000,6,0.000000,0.000000,0.401568,0,0,0,0,0,0,0
7,79999,74,70000,0,20000,49,9999,0.100000,0,0,0.000000,6,1.000000,0.000000,1.305824,0,0,0,0,0,0,0
7,79999,75,70000,5,30000,49,9999,0.100000,0,0,0.000000,6,1.000000,0.000000,1.205849,0,0,0,0,0,0,0
7,79999,76,70000,5,30000,40,9999,0.100000,0,0,0.000000,6,0.000000,0.000000,0.135090,0,0,0,0,0,0,0
7,79999,77,70000,0,20000,40,9999,0.100000,0,0,0.000000,6,0.000000,0.000000,1.092705,0,0,0,0,0,0,0
7,79999,78,70000,61,20000,49,9999,0.100000,0,0,0.000000,6,1.000000,0.000000,3.531951,0,0,0,0,0,0,0
7,79999,79,70000,5,30000,40,9999,0.100000,0,0,0.000000,6,0.000000,0.000000,0.511685,0,0,0,0,0,0,0
7,79999,80,70000,0,20000,40,9999,0.100000,0,0,0.000000,6,0.000000,0.000000,1.862865,0,0,0,0,0,0,0
7,79999,81,70000,61,20000,40,9999,0.100000,0,0,0.000000,6,0.000000,0.000000,0.800139,0,0,0,0,0,0,0
7,79999,82,70000,61,20000,49,9999,0.100000,0,0,0.000000,6,1.000000,0.000000,1.611689,0,0,0,0,0,0,0
7,79999,83,70000,32,0,40,9999,0.100000,0,0,0.000000,6,0.000000,0.000000,0.794314,0,0,0,0,0,0,0
7,79999,84,70000,0,20000,49,9999,0.100000,0,0,0.000000,6,1.000000,0.000000,1.219186,0,0,0,0,0,0,0
7,79999,85,70000,5,30000,40,9999,0.100000,0,0,0.000000,6,0.000000,0.000000,0.241007,0,0,0,0,0,0,0
7,79999,86,70000,32,0,40,9999,0.100000,0,0,0.000000,6,0.000000,0.000000,7.547492,0,0,0,0,0,0,0
7,79999,87,70000,61,20000,40,9999,0.100000,0,0,0.000000,6,0.000000,0.000000,1.388641,0,0,0,0,0,0,0
7,79999,88,70000,32,0,49,9999,0.100000,0,0,0.000000,6,1.000000,0.000000,1.191682,0,0,0,0,0,0,0
7,79999,89,70000,5,30000,49,9999,0.100000,0,0,0.000000,6,1.000000,0.000000,3.421660,0,0,0,0,0,0,0
7,79999,90,70000,5,30000,40,9999,0.100000,0,0,0.000000,6,0.000000,0.000000,0.640706,0,0,0,0,0,0,0
7,79999,91,70000,61,10000,49,9999,0.100000,0,0,0.000000,6,1.000000,0.000000,1.279420,0,0,0,0,0,0,0
7,79999,92,70000,32,0,40,9999,0.100000,0,0,0.000000,6,0.000000,0.000000,0.924566,0,0,0,0,0,0,0
7,79999,93,70000,61,20000,49,9999,0.100000,0,0,0.000000,6,7.000000,0.000000,8.261716,0,0,0,0,0,0,0
7,79999,94,70000,5,30000,40,9999,0.100000,0,0,0.000000,6,0.000000,0.000000,1.089322,0,0,0,0,0,0,0
7,79999,95,70000,61,20000,49,9999,0.100000,0,0,0.000000,6,1.000000,0.000000,6.259851,0,0,0,0,0,0,0
7,79999,96,70000,32,0,49,9999,0.100000,0,0,0.000000,6,1.000000,0.000000,15.579655,0,0,0,0,0,0,0
7,79999,97,70000,5,30000,49,9999,0.100000,0,0,0.000000,6,1.000000,0.000000,1.223403,0,0,0,0,0,0,0
7,79999,98,70000,0,20000,49,9999,0.100000,0,0,0.000000,6,1.000000,0.000000,17.613165,0,0,0,0,0,0,0
7,79999,99,70000,5,30000,40,9999,0.100000,0,0,0.000000,6,0.000000,0.000000,0.201396,0,0,0,0,0,0,0
8,89999,0,80000,0,0,49,9999,0.100000,0,0,0.000000,6,1.000000,0.000000,11.025945,0,0,0,0,0,0,0
8,89999,1,80000,0,20000,40,9999,0.100000,0,0,0.000000,6,0.000000,0.000000,1.951846,0,0,0,0,0,0,0
8,89999,2,80000,61,20000,40,9999,0.100000,0,0,0.000000,6,0.000000,0.000000,3.897561,0,0,0,0,0,0,0
8,89999,3,80000,32,0,40,9999,0.100000,0,0,0.000000,6,0.000000,0.000000,0.270391,0,0,0,0,0,0,0
8,89999,4,80000,61,10000,49,9999,0.100000,0,0,0.000000,6,5.000000,0.000000,9.148599,0,0,0,0,0,0,0
8,89999,5,80000,61,20000,49,9999,0.100000,0,0,0.000000,6,4.000000,0.000000,14.329907,0,0,0,0,0,0,0
8,89999,6,80000,0,20000,49,9999,0.100000,0,0,0.000000,6,2.000000,0.000000,9.385673,0,0,0,0,0,0,0
8,89999,7,80000,61,10000,40,9999,0.100000,0,0,0.000000,6,0.000000,0.000000,2.627802,0,0,0,0,0,0,0
8,89999,8,80000,32,0,40,9999,0.100000,0,0,0.000000,6,0.000000,0.000000,2.120622,0,0,0,0,0,0,0
8,89999,9,80000,61,10000,40,9999,0.100000,0,0,0.000000,6,0.000000,0.000000,4.022570,0,0,0,0,0,0,0
8,89999,10,80000,32,0,40,9999,0.100000,0,0,0.000000,6,0.000000,0.000000,4.477791,0,0,0,0,0,0,0
8,89999,11,80000,61,20000,40,9999,0.100000,0,0,0.000000,6,0.000000,0.000000,0.319974,0,0,0,0,0,0,0
8,89999,12,80000,0,20000,49,9999,0.100000,0,0,0.000000,6,1.000000,0.000000,4.979392,0,0,0,0,0,0,0
8,89999,13,80000,61,20000,40,9999,0.100000,0,0,0.000000,6,0.000000,0.000000,0.563792,0,0,0,0,0,0,0
8,89999,14,80000,61,10000,99,9999,0.100000,0,0,34.210526,6,6.000000,0.000000,15.349572,0,0,1,0,0,0,0
8,89999,15,80000,61,20000,40,9999,0.100000,0,0,0.000000,6,0.000000,0.000000,0.526110,0,0,0,0,0,0,0
8,89999,16,80000,0,20000,40,9999,0.100000,0,0,0.000000,6,0.000000,0.000000,0.453774,0,0,0,0,0,0,0
8,89999,17,80000,32,0,40,9999,0.100000,0,0,0.000000,6,0.000000,0.000000,1.780706,0,0,0,0,0,0,0
8,89999,18,80000,61,10000,40,9999,0.100000,0,0,0.000000,6,0.000000,0.000000,1.469841,0,0,0,0,0,0,0
8,89999,19,70000,0,20000,40,19999,0.100000,0,0,0.000000,6,0.000000,0.000000,0.367113,0,0,0,0,0,0,0
8,89999,20,80000,61,20000,49,9999,0.100000,0,0,0.000000,6,3.000000,0.000000,4.327026,0,0,0,0,0,0,0
8,89999,21,80000,5,30000,40,9999,0.100000,0,0,0.000000,6,0.000000,0.000000,0.477304,0,0,0,0,0,0,0
8,89999,22,80000,61,20000,49,9999,0.100000,0,0,0.000000,6,1.000000,0.000000,4.786317,0,0,0,0,0,0,0
8,89999,23,80000,61,10000,40,9999,0.100000,0,0,0.000000,6,0.000000,0.000000,0.807641,0,0,0,0,0,0,0
8,89999,24,80000,0,0,40,9999,0.100000,0,0,0.000000,6,0.000000,0.000000,7.795341,0,0,0,0,0,0,0
8,89999,25,80000,0,0,40,9999,0.100000,0,0,0.000000,6,0.000000,0.000000,0.333984,0,0,0,0,0,0,0
8,89999,26,80000,0,20000,40,9999,0.100000,0,0,0.000000,6,0.000000,0.000000,0.125744,0,0,0,0,0,0,0
8,89999,27,80000,0,20000,49,9999,0.100000,0,0,0.000000,6,1.000000,0.000000,14.838770,0,0,0,0,0,0,0
8,89999,28,80000,32,0,49,9999,0.100000,0,0,0.000000,6,1.000000,0.000000,1.518753,0,0,0,0,0,0,0
8,89999,29,80000,0,20000,40,9999,0.100000,0,0,0.000000,6,0.000000,0.000000,0.323567,0,0,0,0,0,0,0
8,89999,30,80000,0,20000,49,9999,0.100000,0,0,0.000000,6,1.000000,0.000000,4.188613,0,0,0,0,0,0,0
8,89999,31,80000,0,0,40,9999,0.100000,0,0,0.000000,6,0.000000,0.000000,0.170916,0,0,0,0,0,0,0
8,89999,32,80000,0,20000,49,9999,0.100000,0,0,0.000000,6,2.000000,0.000000,8.310905,0,0,0,0,0,0,0
8,89999,33,80000,0,20000,40,9999,0.100000,0,0,0.000000,6,0.000000,0.000000,0.550516,0,0,0,0,0,0,0
8,89999,34,80000,32,0,40,9999,0.100000,0,0,0.000000,6,0.000000,0.000000,0.868177,0,0,0,0,0,0,0
8,89999,35,80000,0,20000,49,9999,0.100000,0,0,0.000000,6,5.000000,0.000000,6.822369,0,0,0,0,0,0,0
8,89999,36,80000,0,0,40,9999,0.100000,0,0,0.000000,6,0.000000,0.000000,0.087133,0,0,0,0,0,0,0
8,89999,37,80000,5,30000,40,9999,0.100000,0,0,0.000000,6,0.000000,0.000000,0.412335,0,0,0,0,0,0,0
8,89999,38,80000,0,20000,9,9999,0.100000,0,0,34.210526,6,4.000000,0.000000,11.266370,0,0,0,0,1,0,0
8,89999,39,80000,0,20000,40,9999,0.100000,0,0,0.000000,6,0.000000,0.000000,1.283874,0,0,0,0,0,0,0
8,89999,40,80000,32,0,40,9999,0.100000,0,0,0.000000,6,0.000000,0.000000,0.224659,0,0,0,0,0,0,0
8,89999,41,80000,61,10000,40,9999,0.100000,0,0,0.000000,6,0.000000,0.000000,0.297453,0,0,0,0,0,0,0
8,89999,42,80000,0,0,40,9999,0.100000,0,0,0.000000,6,0.000000,0.000000,0.249846,0,0,0,0,0,0,0
8,89999,43,80000,32,0,49,9999,0.100000,0,0,0.000000,6,2.000000,0.000000,9.600178,0,0,0,0,0,0,0
8,89999,44,80000,61,10000,49,9999,0.100000,0,0,0.000000,6,11.000000,0.000000,20.501978,0,0,0,0,0,0,0
8,89999,45,80000,5,30000,40,9999,0.100000,0,0,0.000000,6,0.000000,0.000000,0.236332,0,0,0,0,0,0,0
8,89999,46,80000,61,20000,40,9999,0.100000,0,0,0.000000,6,0.000000,0.000000,0.906040,0,0,0,0,0,0,0
8,89999,47,80000,5,30000,49,9999,0.100000,0,0,0.000000,6,1.000000,0.000000,1.438185,0,0,0,0,0,0,0
8,89999,48,80000,0,0,49,9999,0.100000,0,0,0.000000,6,5.000000,0.000000,11.898434,0,0,0,0,0,0,0
8,89999,49,80000,5,30000,40,9999,0.100000,0,0,0.000000,6,0.000000,0.000000,1.886847,0,0,0,0,0,0,0
8,89999,50,80000,32,0,40,9999,0.100000,0,0,0.000000,6,0.000000,0.000000,0.836682,0,0,0,0,0,0,0
8,89999,51,80000,61,20000,9,9999,0.100000,0,0,34.210526,6,5.000000,0.000000,15.917670,0,0,0,0,0,0,1
8,89999,52,80000,61,20000,49,9999,0.100000,0,0,0.000000,6,1.000000,0.000000,2.578672,0,0,0,0,0,0,0
8,89999,53,80000,61,20000,49,9999,0.100000,0,0,0.000000,6,1.000000,0.000000,7.170043,0,0,0,0,0,0,0
8,89999,54,80000,32,0,40,9999,0.100000,0,0,0.000000,6,0.000000,0.000000,1.891242,0,0,0,0,0,0,0
8,89999,55,80000,32,0,49,9999,0.065000,0,0,0.000000,6,1.000000,0.000000,7.327891,0,0,0,0,0,0,0
8,89999,56,80000,61,10000,49,9999,0.100000,0,0,0.000000,6,1.000000,0.000000,7.759201,0,0,0,0,0,0,0
8,89999,57,80000,0,20000,40,9999,0.100000,0,0,0.000000,6,0.000000,0.000000,0.423129,0,0,0,0,0,0,0
8,89999,58,80000,0,0,40,9999,0.100000,0,0,0.000000,6,0.000000,0.000000,0.392511,0,0,0,0,0,0,0
8,89999,59,80000,32,0,49,9999,0.100000,0,0,0.000000,6,1.000000,0.000000,3.876133,0,0,0,0,0,0,0
8,89999,60,80000,61,10000,49,9999,0.100000,0,0,0.000000,6,1.000000,0.000000,5.167115,0,0,0,0,0,0,0
8,89999,61,80000,61,10000,40,9999,0.100000,0,0,0.000000,6,0.000000,0.000000,0.149830,0,0,0,0,0,0,0
8,89999,62,80000,32,0,40,9999,0.100000,0,0,0.000000,6,0.000000,0.000000,0.729602,0,0,0,0,0,0,0
8,89999,63,80000,5,30000,49,9999,0.100000,0,0,0.000000,6,5.000000,0.000000,8.923724,0,0,0,0,0,0,0
8,89999,64,80000,61,10000,40,9999,0.100000,0,0,0.000000,6,0.000000,0.000000,0.946077,0,0,0,0,0,0,0
8,89999,65,80000,61,20000,40,9999,0.100000,0,0,0.000000,6,0.000000,0.000000,0.673156,0,0,0,0,0,0,0
8,89999,66,80000,5,30000,49,9999,0.100000,0,0,0.000000,6,1.000000,0.000000,1.618446,0,0,0,0,0,0,0
8,89999,67,80000,0,0,49,9999,0.100000,0,0,0.000000,6,2.000000,0.000000,11.769734,0,0,0,0,0,0,0
8,89999,68,80000,0,20000,40,9999,0.100000,0,0,0.000000,6,0.000000,0.000000,0.195239,0,0,0,0,0,0,0
8,89999,69,80000,5,30000,49,9999,0.100000,0,0,0.000000,6,3.000000,0.000000,4.152779,0,0,0,0,0,0,0
8,89999,70,80000,61,20000,40,9999,0.100000,0,0,0.000000,6,0.000000,0.000000,0.333974,0,0,0,0,0,0,0
8,89999,71,80000,0,0,49,9999,0.100000,0,0,0.000000,6,3.000000,0.000000,10.167931,0,0,0,0,0,0,0
8,89999,72,80000,32,0,40,9999,0.100000,0,0,0.000000,6,0.000000,0.000000,2.173173,0,0,0,0,0,0,0
8,89999,73,80000,0,0,40,9999,0.100000,0,0,0.000000,6,0.000000,0.000000,0.577220,0,0,0,0,0,0,0
8,89999,74,80000,0,0,49,9999,0.100000,0,0,0.000000,6,1.000000,0.000000,2.622247,0,0,0,0,0,0,0
8,89999,75,80000,5,30000,40,9999,0.100000,0,0,0.000000,6,0.000000,0.000000,0.575616,0,0,0,0,0,0,0
8,89999,76,80000,32,0,40,9999,0.100000,0,0,0.000000,6,0.000000,0.000000,0.143155,0,0,0,0,0,0,0
8,89999,77,80000,5,30000,9,9999,0.100000,0,0,34.210526,6,3.000000,0.000000,3.912828,0,0,0,0,0,0,1
8,89999,78,80000,0,20000,9,9999,0.100000,0,0,34.210526,6,2.000000,0.000000,4.588063,0,0,0,0,0,0,1
8,89999,79,80000,61,10000,40,9999,0.065000,0,0,0.000000,6,0.000000,0.000000,0.513415,0,0,0,0,0,0,0
8,89999,80,80000,0,0,40,9999,0.100000,0,0,0.000000,6,0.000000,0.000000,9.379374,0,0,0,0,0,0,0
8,89999,81,80000,61,20000,40,9999,0.100000,0,0,0.000000,6,0.000000,0.000000,0.888142,0,0,0,0,0,0,0
8,89999,82,80000,32,0,40,9999,0.100000,0,0,0.000000,6,0.000000,0.000000,8.174380,0,0,0,0,0,0,0
8,89999,83,80000,0,0,40,9999,0.100000,0,0,0.000000,6,0.000000,0.000000,3.412574,0,0,0,0,0,0,0
8,89999,84,80000,61,10000,9,9999,0.100000,0,0,34.210526,6,3.000000,0.000000,5.458002,0,0,0,0,0,0,1
8,89999,85,80000,5,30000,40,9999,0.100000,0,0,0.000000,6,0.000000,0.000000,0.226235,0,0,0,0,0,0,0
8,89999,86,80000,5,30000,40,9999,0.100000,0,0,0.000000,6,0.000000,0.000000,2.195501,0,0,0,0,0,0,0
8,89999,87,80000,32,0,49,9999,0.100000,0,0,0.000000,6,10.000000,0.000000,14.452553,0,0,0,0,0,0,0
8,89999,88,80000,32,0,9,9999,0.100000,0,0,34.210526,6,2.000000,0.000000,7.823319,0,0,0,0,1,0,0
8,89999,89,80000,61,10000,49,9999,0.100000,0,0,0.000000,6,4.000000,0.000000,11.538685,0,0,0,0,0,0,0
8,89999,90,80000,0,0,40,9999,0.100000,0,0,0.000000,6,0.000000,0.000000,0.697894,0,0,0,0,0,0,0
8,89999,91,80000,61,10000,9,9999,0.100000,0,0,34.210526,6,3.000000,0.000000,9.756110,0,0,0,0,1,0,0
8,89999,92,80000,0,20000,49,9999,0.100000,0,0,0.000000,6,1.000000,0.000000,1.389497,0,0,0,0,0,0,0
8,89999,93,80000,0,0,49,9999,0.100000,0,0,0.000000,6,14.000000,0.000000,14.554896,0,0,0,0,0,0,0
8,89999,94,80000,61,10000,40,9999,0.100000,0,0,0.000000,6,0.000000,0.000000,0.208668,0,0,0,0,0,0,0
8,89999,95,80000,0,0,49,9999,0.100000,0,0,0.000000,6,4.000000,0.000000,14.039079,0,0,0,0,0,0,0
8,89999,96,80000,61,10000,49,9999,0.100000,0,0,0.000000,6,1.000000,0.000000,5.311093,0,0,0,0,0,0,0
8,89999,97,80000,61,20000,9,9999,0.100000,0,0,34.210526,6,2.000000,0.000000,7.042842,0,0,0,0,0,0,1
8,89999,98,80000,0,20000,40,9999,0.100000,0,0,0.000000,6,0.000000,0.000000,4.831593,0,0,0,0,0,0,0
8,89999,99,80000,0,0,40,9999,0.100000,0,0,0.000000,6,0.000000,0.000000,0.196985,0,0,0,0,0,0,0
9,99999,0,90000,5,30000,49,9999,0.100000,0,0,0.000000,6,3.000000,0.000000,9.670162,0,0,0,0,0,0,0
9,99999,1,90000,5,30000,40,9999,0.100000,0,0,0.000000,6,0.000000,0.000000,0.308527,0,0,0,0,0,0,0
9,99999,2,90000,5,30000,49,9999,0.100000,0,0,0.000000,6,1.000000,0.000000,15.122768,0,0,0,0,0,0,0
9,99999,3,90000,32,0,40,9999,0.100000,0,0,0.000000,6,0.000000,0.000000,0.120434,0,0,0,0,0,0,0
9,99999,4,90000,5,30000,49,9999,0.100000,0,0,0.000000,6,4.000000,0.000000,12.947169,0,0,0,0,0,0,0
9,99999,5,90000,32,0,49,9999,0.100000,0,0,0.000000,6,2.000000,0.000000,8.092903,0,0,0,0,0,0,0
9,99999,6,90000,61,10000,49,9999,0.100000,0,0,0.000000,6,3.000000,0.000000,10.925875,0,0,0,0,0,0,0
9,99999,7,90000,0,0,49,9999,0.100000,0,0,0.000000,6,4.000000,0.000000,15.177928,0,0,0,0,0,0,0
9,99999,8,90000,0,20000,40,9999,0.100000,0,0,0.000000,6,0.000000,0.000000,4.219510,0,0,0,0,0,0,0
9,99999,9,90000,5,30000,40,9999,0.100000,0,0,0.000000,6,0.000000,0.000000,4.013656,0,0,0,0,0,0,0
9,99999,10,90000,5,30000,40,9999,0.100000,0,0,0.000000,6,0.000000,0.000000,0.863249,0,0,0,0,0,0,0
9,99999,11,90000,0,20000,40,9999,0.100000,0,0,0.000000,6,0.000000,0.000000,0.440982,0,0,0,0,0,0,0
9,99999,12,90000,0,0,40,9999,0.100000,0,0,0.000000,6,0.000000,0.000000,0.319708,0,0,0,0,0,0,0
9,99999,13,90000,5,30000,40,9999,0.100000,0,0,0.000000,6,0.000000,0.000000,0.591047,0,0,0,0,0,0,0
9,99999,14,90000,0,20000,49,9999,0.100000,0,0,0.000000,6,1.000000,0.000000,7.147783,0,0,0,0,0,0,0
9,99999,15,90000,61,20000,40,9999,0.100000,0,0,0.000000,6,0.000000,0.000000,0.296510,0,0,0,0,0,0,0
9,99999,16,90000,0,0,40,9999,0.100000,0,0,0.000000,6,0.000000,0.000000,0.339273,0,0,0,0,0,0,0
9,99999,17,90000,0,0,40,9999,0.100000,0,0,0.000000,6,0.000000,0.000000,1.916452,0,0,0,0,0,0,0
9,99999,18,90000,32,0,40,9999,0.100000,0,0,0.000000,6,0.000000,0.000000,0.798253,0,0,0,0,0,0,0
9,99999,19,90000,32,0,40,9999,0.100000,0,0,0.000000,6,0.000000,0.000000,0.349072,0,0,0,0,0,0,0
9,99999,20,90000,61,10000,49,9999,0.100000,0,0,0.000000,6,2.000000,0.000000,14.176231,0,0,0,0,0,0,0
9,99999,21,90000,32,0,40,9999,0.100000,0,0,0.000000,6,0.000000,0.000000,0.410092,0,0,0,0,0,0,0
9,99999,22,90000,32,0,40,9999,0.100000,0,0,0.000000,6,0.000000,0.000000,0.443049,0,0,0,0,0,0,0
9,99999,23,90000,61,10000,40,9999,0.100000,0,0,0.000000,6,0.000000,0.000000,0.354612,0,0,0,0,0,0,0
9,99999,24,90000,32,0,40,9999,0.100000,0,0,0.000000,6,0.000000,0.000000,0.567754,0,0,0,0,0,0,0
9,99999,25,90000,61,10000,49,9999,0.100000,0,0,0.000000,6,1.000000,0.000000,1.981732,0,0,0,0,0,0,0
9,99999,26,90000,0,0,40,9999,0.100000,0,0,0.000000,6,0.000000,0.000000,0.129439,0,0,0,0,0,0,0
9,99999,27,90000,0,20000,40,9999,0.100000,0,0,0.000000,6,0.000000,0.000000,13.792633,0,0,0,0,0,0,0
9,99999,28,90000,61,10000,49,9999,0.100000,0,0,0.000000,6,1.000000,0.000000,1.658217,0,0,0,0,0,0,0
9,99999,29,90000,0,20000,40,9999,0.100000,0,0,0.000000,6,0.000000,0.000000,0.295037,0,0,0,0,0,0,0
9,99999,30,90000,0,20000,49,9999,0.100000,0,0,0.000000,6,1.000000,0.000000,3.579845,0,0,0,0,0,0,0
9,99999,31,90000,61,10000,40,9999,0.100000,0,0,0.000000,6,0.000000,0.000000,0.111670,0,0,0,0,0,0,0
9,99999,32,90000,61,20000,49,9999,0.135000,0,0,0.000000,6,1.000000,0.000000,5.253468,0,0,0,0,0,0,0
9,99999,33,90000,61,10000,40,9999,0.100000,0,0,0.000000,6,0.000000,0.000000,0.972704,0,0,0,0,0,0,0
9,99999,34,90000,32,0,40,9999,0.100000,0,0,0.000000,6,0.000000,0.000000,0.515645,0,0,0,0,0,0,0
9,99999,35,90000,0,20000,40,9999,0.100000,0,0,0.000000,6,0.000000,0.000000,0.139620,0,0,0,0,0,0,0
9,99999,36,90000,0,0,40,9999,0.100000,0,0,0.000000,6,0.000000,0.000000,0.086981,0,0,0,0,0,0,0
9,99999,37,90000,61,20000,49,9999,0.100000,0,0,0.000000,6,1.000000,0.000000,1.771948,0,0,0,0,0,0,0
9,99999,38,90000,61,10000,40,9999,0.100000,0,0,0.000000,6,0.000000,0.000000,3.328602,0,0,0,0,0,0,0
9,99999,39,90000,0,20000,49,9999,0.100000,0,0,0.000000,6,13.000000,0.000000,13.979884,0,0,0,0,0,0,0
9,99999,40,90000,5,30000,40,9999,0.100000,0,0,0.000000,6,0.000000,0.000000,0.102564,0,0,0,0,0,0,0
9,99999,41,90000,5,30000,40,9999,0.100000,0,0,0.000000,6,0.000000,0.000000,0.401555,0,0,0,0,0,0,0
9,99999,42,90000,32,0,40,9999,0.100000,0,0,0.000000,6,0.000000,0.000000,0.242467,0,0,0,0,0,0,0
9,99999,43,90000,0,20000,49,9999,0.100000,0,0,0.000000,6,3.000000,0.000000,11.064473,0,0,0,0,0,0,0
9,99999,44,90000,61,20000,49,9999,0.100000,0,0,0.000000,6,3.000000,0.000000,13.323993,0,0,0,0,0,0,0
9,99999,45,90000,61,20000,40,9999,0.100000,0,0,0.000000,6,0.000000,0.000000,0.231908,0,0,0,0,0,0,0
9,99999,46,90000,32,0,40,9999,0.100000,0,0,0.000000,6,0.000000,0.000000,0.890551,0,0,0,0,0,0,0
9,99999,47,90000,32,0,49,9999,0.100000,0,0,0.000000,6,1.000000,0.000000,1.912403,0,0,0,0,0,0,0
9,99999,48,90000,5,30000,49,9999,0.100000,0,0,0.000000,6,2.000000,0.000000,17.407398,0,0,0,0,0,0,0
9,99999,49,90000,0,0,40,9999,0.100000,0,0,0.000000,6,0.000000,0.000000,1.992019,0,0,0,0,0,0,0
9,99999,50,90000,5,30000,40,9999,0.100000,0,0,0.000000,6,0.000000,0.000000,0.631759,0,0,0,0,0,0,0
9,99999,51,90000,32,0,49,9999,0.100000,0,0,0.000000,6,2.000000,0.000000,11.749582,0,0,0,0,0,0,0
9,99999,52,90000,32,0,40,9999,0.100000,0,0,0.000000,6,0.000000,0.000000,1.546652,0,0,0,0,0,0,0
9,99999,53,90000,32,0,49,9999,0.100000,0,0,0.000000,6,1.000000,0.000000,8.875508,0,0,0,0,0,0,0
9,99999,54,90000,5,30000,40,9999,0.100000,0,0,0.000000,6,0.000000,0.000000,0.976135,0,0,0,0,0,0,0
9,99999,55,90000,61,20000,49,9999,0.100000,0,0,0.000000,6,3.000000,0.000000,6.218940,0,0,0,0,0,0,0
9,99999,56,90000,61,10000,49,9999,0.100000,0,0,0.000000,6,3.000000,0.000000,10.593997,0,0,0,0,0,0,0
9,99999,57,90000,0,20000,40,9999,0.100000,0,0,0.000000,6,0.000000,0.000000,1.074739,0,0,0,0,0,0,0
9,99999,58,90000,61,20000,49,9999,0.100000,0,0,0.000000,6,1.000000,0.000000,2.081167,0,0,0,0,0,0,0
9,99999,59,90000,0,0,49,9999,0.100000,0,0,0.000000,6,1.000000,0.000000,18.193257,0,0,0,0,0,0,0
9,99999,60,90000,5,30000,49,9999,0.100000,0,0,0.000000,6,1.000000,0.000000,6.825546,0,0,0,0,0,0,0
9,99999,61,90000,0,20000,40,9999,0.100000,0,0,0.000000,6,0.000000,0.000000,0.086684,0,0,0,0,0,0,0
9,99999,62,90000,0,20000,49,9999,0.100000,0,0,0.000000,6,1.000000,0.000000,1.996845,0,0,0,0,0,0,0
9,99999,63,90000,0,0,40,9999,0.100000,0,0,0.000000,6,0.000000,0.000000,1.896774,0,0,0,0,0,0,0
9,99999,64,90000,0,0,40,9999,0.100000,0,0,0.000000,6,0.000000,0.000000,0.375922,0,0,0,0,0,0,0
9,99999,65,90000,61,20000,49,9999,0.100000,0,0,0.000000,6,1.000000,0.000000,1.691605,0,0,0,0,0,0,0
9,99999,66,90000,0,0,49,9999,0.100000,0,0,0.000000,6,5.000000,0.000000,8.202128,0,0,0,0,0,0,0
9,99999,67,90000,61,10000,49,9999,0.100000,0,0,0.000000,6,4.000000,0.000000,9.093102,0,0,0,0,0,0,0
9,99999,68,90000,0,20000,40,9999,0.100000,0,0,0.000000,6,0.000000,0.000000,0.382159,0,0,0,0,0,0,0
9,99999,69,90000,61,10000,40,9999,0.100000,0,0,0.000000,6,0.000000,0.000000,1.250771,0,0,0,0,0,0,0
9,99999,70,90000,0,0,40,9999,0.100000,0,0,0.000000,6,0.000000,0.000000,0.337436,0,0,0,0,0,0,0
9,99999,71,90000,0,0,49,9999,0.100000,0,0,0.000000,6,1.000000,0.000000,10.028766,0,0,0,0,0,0,0
9,99999,72,90000,5,30000,40,9999,0.100000,0,0,0.000000,6,0.000000,0.000000,1.171710,0,0,0,0,0,0,0
9,99999,73,90000,32,0,40,9999,0.100000,0,0,0.000000,6,0.000000,0.000000,0.446043,0,0,0,0,0,0,0
9,99999,74,90000,0,0,40,9999,0.100000,0,0,0.000000,6,0.000000,0.000000,0.974897,0,0,0,0,0,0,0
9,99999,75,90000,0,0,40,9999,0.100000,0,0,0.000000,6,0.000000,0.000000,0.122484,0,0,0,0,0,0,0
9,99999,76,90000,5,30000,40,9999,0.100000,0,0,0.000000,6,0.000000,0.000000,0.137671,0,0,0,0,0,0,0
9,99999,77,90000,5,30000,40,9999,0.100000,0,0,0.000000,6,0.000000,0.000000,2.282686,0,0,0,0,0,0,0
9,99999,78,90000,61,20000,49,9999,0.100000,0,0,0.000000,6,6.000000,0.000000,14.215074,0,0,0,0,0,0,0
9,99999,79,90000,0,20000,40,9999,0.100000,0,0,0.000000,6,0.000000,0.000000,0.516575,0,0,0,0,0,0,0
9,99999,80,90000,61,10000,40,9999,0.100000,0,0,0.000000,6,0.000000,0.000000,1.060721,0,0,0,0,0,0,0
9,99999,81,90000,32,0,40,9999,0.100000,0,0,0.000000,6,0.000000,0.000000,0.907085,0,0,0,0,0,0,0
9,99999,82,90000,61,20000,49,9999,0.100000,0,0,0.000000,6,3.000000,0.000000,6.984791,0,0,0,0,0,0,0
9,99999,83,90000,0,0,40,9999,0.100000,0,0,0.000000,6,0.000000,0.000000,2.713153,0,0,0,0,0,0,0
9,99999,84,90000,0,20000,49,9999,0.100000,0,0,0.000000,6,3.000000,0.000000,8.233331,0,0,0,0,0,0,0
9,99999,85,90000,61,20000,40,9999,0.100000,0,0,0.000000,6,0.000000,0.000000,0.231843,0,0,0,0,0,0,0
9,99999,86,90000,0,0,40,9999,0.100000,0,0,0.000000,6,0.000000,0.000000,2.066546,0,0,0,0,0,0,0
9,99999,87,90000,32,0,49,9999,0.100000,0,0,0.000000,6,2.000000,0.000000,2.957881,0,0,0,0,0,0,0
9,99999,88,90000,5,30000,49,9999,0.100000,0,0,0.000000,6,1.000000,0.000000,7.856931,0,0,0,0,0,0,0
9,99999,89,90000,0,20000,49,9999,0.100000,0,0,0.000000,6,3.000000,0.000000,9.574558,0,0,0,0,0,0,0
9,99999,90,90000,61,10000,40,9999,0.100000,0,0,0.000000,6,0.000000,0.000000,0.297252,0,0,0,0,0,0,0
9,99999,91,90000,0,0,49,9999,0.100000,0,0,0.000000,6,3.000000,0.000000,9.107845,0,0,0,0,0,0,0
9,99999,92,90000,0,0,49,9999,0.100000,0,0,0.000000,6,1.000000,0.000000,1.435745,0,0,0,0,0,0,0
9,99999,93,90000,0,0,49,9999,0.100000,0,0,0.000000,6,2.000000,0.000000,2.858427,0,0,0,0,0,0,0
9,99999,94,90000,61,10000,40,9999,0.100000,0,0,0.000000,6,0.000000,0.000000,0.244628,0,0,0,0,0,0,0
9,99999,95,90000,5,30000,40,9999,0.100000,0,0,0.000000,6,0.000000,0.000000,7.365778,0,0,0,0,0,0,0
9,99999,96,90000,32,0,40,9999,0.100000,0,0,0.000000,6,0.000000,0.000000,2.113181,0,0,0,0,0,0,0
9,99999,97,90000,32,0,49,9999,0.100000,0,0,0.000000,6,1.000000,0.000000,8.310332,0,0,0,0,0,0,0
9,99999,98,90000,0,0,40,9999,0.100000,0,0,0.000000,6,0.000000,0.000000,2.952206,0,0,0,0,0,0,0
9,99999,99,90000,61,20000,40,9999,0.100000,0,0,0.000000,6,0.000000,0.000000,0.360368,0,0,0,0,0,0,0
10,109999,0,100000,0,0,49,9999,0.100000,0,0,0.000000,6,3.000000,0.000000,8.737596,0,0,0,0,0,0,0
10,109999,1,100000,0,20000,40,9999,0.100000,0,0,0.000000,6,0.000000,0.000000,1.199604,0,0,0,0,0,0,0
10,109999,2,100000,0,0,49,9999,0.100000,0,0,0.000000,6,1.000000,0.000000,1.934691,0,0,0,0,0,0,0
10,109999,3,100000,61,10000,40,9999,0.100000,0,0,0.000000,6,0.000000,0.000000,0.119521,0,0,0,0,0,0,0
10,109999,4,100000,32,0,49,9999,0.100000,0,0,0.000000,6,4.000000,0.000000,8.000506,0,0,0,0,0,0,0
10,109999,5,100000,61,20000,49,9999,0.100000,0,0,0.000000,6,1.000000,0.000000,6.474384,0,0,0,0,0,0,0
10,109999,6,100000,0,20000,49,9999,0.100000,0,0,0.000000,6,3.000000,0.000000,9.539859,0,0,0,0,0,0,0
10,109999,7,100000,32,0,49,9999,0.100000,0,0,0.000000,6,1.000000,0.000000,11.203496,0,0,0,0,0,0,0
10,109999,8,100000,5,30000,40,9999,0.100000,0,0,0.000000,6,0.000000,0.000000,0.480378,0,0,0,0,0,0,0
10,109999,9,100000,5,30000,40,9999,0.100000,0,0,0.000000,6,0.000000,0.000000,4.146044,0,0,0,0,0,0,0
10,109999,10,100000,61,20000,40,9999,0.100000,0,0,0.000000,6,0.000000,0.000000,1.873565,0,0,0,0,0,0,0
10,109999,11,100000,61,20000,40,9999,0.100000,0,0,0.000000,6,0.000000,0.000000,0.314981,0,0,0,0,0,0,0
10,109999,12,100000,61,10000,40,9999,0.100000,0,0,0.000000,6,0.000000,0.000000,0.312415,0,0,0,0,0,0,0
10,109999,13,100000,61,10000,40,9999,0.100000,0,0,0.000000,6,0.000000,0.000000,0.471233,0,0,0,0,0,0,0
10,109999,14,100000,32,0,49,9999,0.100000,0,0,0.000000,6,3.000000,0.000000,8.056984,0,0,0,0,0,0,0
10,109999,15,100000,5,30000,40,9999,0.100000,0,0,0.000000,6,0.000000,0.000000,0.243778,0,0,0,0,0,0,0
10,109999,16,100000,61,10000,40,9999,0.100000,0,0,0.000000,6,0.000000,0.000000,0.160774,0,0,0,0,0,0,0
10,109999,17,100000,61,20000,40,9999,0.100000,0,0,0.000000,6,0.000000,0.000000,1.894170,0,0,0,0,0,0,0
10,109999,18,100000,32,0,40,9999,0.100000,0,0,0.000000,6,0.000000,0.000000,0.767342,0,0,0,0,0,0,0
10,109999,19,100000,61,20000,40,9999,0.100000,0,0,0.000000,6,0.000000,0.000000,0.627904,0,0,0,0,0,0,0
10,109999,20,100000,0,20000,49,9999,0.100000,0,0,0.000000,6,3.000000,0.000000,5.196008,0,0,0,0,0,0,0
10,109999,21,100000,0,0,40,9999,0.100000,0,0,0.000000,6,0.000000,0.000000,0.337308,0,0,0,0,0,0,0
10,109999,22,100000,61,20000,40,9999,0.100000,0,0,0.000000,6,0.000000,0.000000,11.850473,0,0,0,0,0,0,0
10,109999,23,100000,32,0,40,9999,0.100000,0,0,0.000000,6,0.000000,0.000000,0.724316,0,0,0,0,0,0,0
10,109999,24,100000,61,10000,40,9999,0.100000,0,0,0.000000,6,0.000000,0.000000,0.791483,0,0,0,0,0,0,0
10,109999,25,100000,32,0,40,9999,0.100000,0,0,0.000000,6,0.000000,0.000000,0.930186,0,0,0,0,0,0,0
10,109999,26,100000,61,20000,40,9999,0.100000,0,0,0.000000,6,0.000000,0.000000,0.131328,0,0,0,0,0,0,0
10,109999,27,100000,32,0,49,9999,0.100000,0,0,0.000000,6,6.000000,0.000000,9.486668,0,0,0,0,0,0,0
10,109999,28,100000,61,10000,49,9999,0.100000,0,0,0.000000,6,1.000000,0.000000,1.550165,0,0,0,0,0,0,0
10,109999,29,100000,61,20000,40,9999,0.100000,0,0,0.000000,6,0.000000,0.000000,0.581745,0,0,0,0,0,0,0
10,109999,30,100000,0,0,40,9999,0.100000,0,0,0.000000,6,0.000000,0.000000,0.275773,0,0,0,0,0,0,0
10,109999,31,100000,5,30000,40,9999,0.100000,0,0,0.000000,6,0.000000,0.000000,0.113171,0,0,0,0,0,0,0
10,109999,32,100000,0,20000,49,9999,0.100000,0,0,0.000000,6,2.000000,0.000000,10.317801,0,0,0,0,0,0,0
10,109999,33,100000,0,20000,40,9999,0.100000,0,0,0.000000,6,0.000000,0.000000,0.604756,0,0,0,0,0,0,0
10,109999,34,100000,0,0,40,9999,0.100000,0,0,0.000000,6,0.000000,0.000000,0.507319,0,0,0,0,0,0,0
10,109999,35,100000,61,20000,40,9999,0.100000,0,0,0.000000,6,0.000000,0.000000,0.134378,0,0,0,0,0,0,0
10,109999,36,100000,0,0,40,9999,0.100000,0,0,0.000000,6,0.000000,0.000000,0.086029,0,0,0,0,0,0,0
10,109999,37,100000,0,0,40,9999,0.100000,0,0,0.000000,6,0.000000,0.000000,0.610154,0,0,0,0,0,0,0
10,109999,38,100000,61,20000,49,9999,0.100000,0,0,0.000000,6,4.000000,0.000000,9.728354,0,0,0,0,0,0,0
10,109999,39,100000,0,0,40,9999,0.100000,0,0,0.000000,6,0.000000,0.000000,0.533158,0,0,0,0,0,0,0
10,109999,40,100000,61,10000,40,9999,0.100000,0,0,0.000000,6,0.000000,0.000000,0.103116,0,0,0,0,0,0,0
10,109999,41,100000,0,0,40,9999,0.100000,0,0,0.000000,6,0.000000,0.000000,0.340208,0,0,0,0,0,0,0
10,109999,42,100000,0,0,40,9999,0.100000,0,0,0.000000,6,0.000000,0.000000,0.230989,0,0,0,0,0,0,0
10,109999,43,100000,61,20000,49,9999,0.100000,0,0,0.000000,6,3.000000,0.000000,9.666335,0,0,0,0,0,0,0
10,109999,44,100000,32,0,40,9999,0.100000,0,0,0.000000,6,0.000000,0.000000,7.811176,0,0,0,0,0,0,0
10,109999,45,100000,5,30000,40,9999,0.100000,0,0,0.000000,6,0.000000,0.000000,0.223694,0,0,0,0,0,0,0
10,109999,46,100000,32,0,40,9999,0.100000,0,0,0.000000,6,0.000000,0.000000,0.895263,0,0,0,0,0,0,0
10,109999,47,100000,0,20000,49,9999,0.100000,0,0,0.000000,6,1.000000,0.000000,1.781159,0,0,0,0,0,0,0
10,109999,48,100000,0,0,49,9999,0.100000,0,0,0.000000,6,4.000000,0.000000,11.063328,0,0,0,0,0,0,0
10,109999,49,100000,61,20000,40,9999,0.100000,0,0,0.000000,6,0.000000,0.000000,2.872431,0,0,0,0,0,0,0
10,109999,50,100000,0,20000,40,9999,0.100000,0,0,0.000000,6,0.000000,0.000000,0.630201,0,0,0,0,0,0,0
10,109999,51,100000,61,10000,49,9999,0.100000,0,0,0.000000,6,2.000000,0.000000,15.819844,0,0,0,0,0,0,0
10,109999,52,100000,32,0,40,9999,0.100000,0,0,0.000000,6,0.000000,0.000000,1.269416,0,0,0,0,0,0,0
10,109999,53,100000,5,30000,40,9999,0.100000,0,0,0.000000,6,0.000000,0.000000,5.242591,0,0,0,0,0,0,0
10,109999,54,100000,0,0,9,9999,0.100000,0,0,34.210526,6,2.000000,0.000000,10.079460,0,0,0,1,0,0,0
10,109999,55,100000,5,30000,49,9999,0.100000,0,0,0.000000,6,1.000000,0.000000,7.133153,0,0,0,0,0,0,0
10,109999,56,100000,5,30000,49,9999,0.100000,0,0,0.000000,6,2.000000,0.000000,5.929027,0,0,0,0,0,0,0
10,109999,57,100000,5,30000,40,9999,0.100000,0,0,0.000000,6,0.000000,0.000000,0.742819,0,0,0,0,0,0,0
10,109999,58,100000,5,30000,40,9999,0.100000,0,0,0.000000,6,0.000000,0.000000,0.559050,0,0,0,0,0,0,0
10,109999,59,100000,0,0,49,9999,0.100000,0,0,0.000000,6,13.000000,0.000000,14.204439,0,0,0,0,0,0,0
10,109999,60,100000,0,0,40,9999,0.100000,0,0,0.000000,6,0.000000,0.000000,12.116077,0,0,0,0,0,0,0
10,109999,61,100000,5,30000,40,9999,0.100000,0,0,0.000000,6,0.000000,0.000000,0.085869,0,0,0,0,0,0,0
10,109999,62,100000,61,20000,40,9999,0.100000,0,0,0.000000,6,0.000000,0.000000,0.295825,0,0,0,0,0,0,0
10,109999,63,100000,32,0,40,9999,0.100000,0,0,0.000000,6,0.000000,0.000000,0.513207,0,0,0,0,0,0,0
10,109999,64,100000,61,20000,40,9999,0.100000,0,0,0.000000,6,0.000000,0.000000,1.120934,0,0,0,0,0,0,0
10,109999,65,100000,0,0,40,9999,0.100000,0,0,0.000000,6,0.000000,0.000000,0.755538,0,0,0,0,0,0,0
10,109999,66,100000,61,20000,40,9999,0.100000,0,0,0.000000,6,0.000000,0.000000,0.165782,0,0,0,0,0,0,0
10,109999,67,100000,5,30000,40,9999,0.100000,0,0,0.000000,6,0.000000,0.000000,1.630373,0,0,0,0,0,0,0
10,109999,68,100000,0,20000,40,9999,0.100000,0,0,0.000000,6,0.000000,0.000000,0.294542,0,0,0,0,0,0,0
10,109999,69,100000,0,20000,40,9999,0.100000,0,0,0.000000,6,0.000000,0.000000,1.216913,0,0,0,0,0,0,0
10,109999,70,100000,61,20000,40,9999,0.100000,0,0,0.000000,6,0.000000,0.000000,0.696824,0,0,0,0,0,0,0
10,109999,71,100000,0,20000,49,9999,0.100000,0,0,0.000000,6,2.000000,0.000000,8.581742,0,0,0,0,0,0,0
10,109999,72,100000,0,0,9,9999,0.100000,0,0,34.210526,6,2.000000,0.000000,6.453343,0,0,0,1,0,0,0
10,109999,73,100000,61,10000,40,9999,0.100000,0,0,0.000000,6,0.000000,0.000000,0.397671,0,0,0,0,0,0,0
10,109999,74,100000,0,20000,40,9999,0.100000,0,0,0.000000,6,0.000000,0.000000,0.913388,0,0,0,0,0,0,0
10,109999,75,100000,32,0,40,9999,0.100000,0,0,0.000000,6,0.000000,0.000000,0.090710,0,0,0,0,0,0,0
10,109999,76,100000,5,30000,40,9999,0.100000,0,0,0.000000,6,0.000000,0.000000,0.141310,0,0,0,0,0,0,0
10,109999,77,100000,32,0,49,9999,0.100000,0,0,0.000000,6,1.000000,0.000000,9.196497,0,0,0,0,0,0,0
10,109999,78,100000,32,0,49,9999,0.100000,0,0,0.000000,6,4.000000,0.000000,7.577792,0,0,0,0,0,0,0
10,109999,79,100000,5,30000,40,9999,0.100000,0,0,0.000000,6,0.000000,0.000000,0.525060,0,0,0,0,0,0,0
10,109999,80,100000,61,10000,49,9999,0.100000,0,0,0.000000,6,12.000000,0.000000,18.182337,0,0,0,0,0,0,0
10,109999,81,100000,5,30000,49,9999,0.100000,0,0,0.000000,6,1.000000,0.000000,15.226285,0,0,0,0,0,0,0
10,109999,82,100000,61,10000,49,9999,0.100000,0,0,0.000000,6,4.000000,0.000000,11.690557,0,0,0,0,0,0,0
10,109999,83,100000,61,10000,40,9999,0.100000,0,0,0.000000,6,0.000000,0.000000,0.901559,0,0,0,0,0,0,0
10,109999,84,100000,32,0,49,9999,0.100000,0,0,0.000000,6,1.000000,0.000000,6.743205,0,0,0,0,0,0,0
10,109999,85,100000,61,10000,40,9999,0.100000,0,0,0.000000,6,0.000000,0.000000,0.242531,0,0,0,0,0,0,0
10,109999,86,100000,61,10000,40,9999,0.100000,0,0,0.000000,6,0.000000,0.000000,2.801653,0,0,0,0,0,0,0
10,109999,87,100000,0,0,49,9999,0.100000,0,0,0.000000,6,1.000000,0.000000,1.314112,0,0,0,0,0,0,0
10,109999,88,100000,0,0,49,9999,0.100000,0,0,0.000000,6,3.000000,0.000000,14.741460,0,0,0,0,0,0,0
10,109999,89,100000,5,30000,49,9999,0.100000,0,0,0.000000,6,2.000000,0.000000,5.468439,0,0,0,0,0,0,0
10,109999,90,100000,0,20000,40,9999,0.100000,0,0,0.000000,6,0.000000,0.000000,0.468727,0,0,0,0,0,0,0
10,109999,91,100000,32,0,49,9999,0.100000,0,0,0.000000,6,1.000000,0.000000,9.937789,0,0,0,0,0,0,0
10,109999,92,100000,0,20000,49,9999,0.100000,0,0,0.000000,6,1.000000,0.000000,1.372596,0,0,0,0,0,0,0
10,109999,93,100000,0,20000,40,9999,0.100000,0,0,0.000000,6,0.000000,0.000000,0.226167,0,0,0,0,0,0,0
10,109999,94,100000,5,30000,40,9999,0.100000,0,0,0.000000,6,0.000000,0.000000,0.546280,0,0,0,0,0,0,0
10,109999,95,100000,0,20000,49,9999,0.100000,0,0,0.000000,6,3.000000,0.000000,11.291209,0,0,0,0,0,0,0
10,109999,96,100000,61,10000,40,9999,0.100000,0,0,0.000000,6,0.000000,0.000000,0.394468,0,0,0,0,0,0,0
10,109999,97,100000,5,30000,49,9999,0.100000,0,0,0.000000,6,2.000000,0.000000,10.925651,0,0,0,0,0,0,0
10,109999,98,100000,0,0,40,9999,0.100000,0,0,0.000000,6,0.000000,0.000000,7.648277,0,0,0,0,0,0,0
10,109999,99,100000,5,30000,40,9999,0.100000,0,0,0.000000,6,0.000000,0.000000,0.267454,0,0,0,0,0,0,0
11,119999,0,110000,32,0,49,9999,0.100000,0,0,0.000000,6,2.000000,0.000000,6.951451,0,0,0,0,0,0,0
11,119999,1,110000,0,0,49,9999,0.100000,0,0,0.000000,6,1.000000,0.000000,3.511701,0,0,0,0,0,0,0
11,119999,2,110000,61,10000,49,9999,0.100000,0,0,0.000000,6,1.000000,0.000000,4.128303,0,0,0,0,0,0,0
11,119999,3,110000,5,30000,40,9999,0.100000,0,0,0.000000,6,0.000000,0.000000,0.347465,0,0,0,0,0,0,0
11,119999,4,110000,0,20000,49,9999,0.100000,0,0,0.000000,6,1.000000,0.000000,3.828561,0,0,0,0,0,0,0
11,119999,5,110000,61,10000,49,9999,0.100000,0,0,0.000000,6,3.000000,0.000000,13.484919,0,0,0,0,0,0,0
11,119999,6,110000,0,0,49,9999,0.100000,0,0,0.000000,6,1.000000,0.000000,9.924623,0,0,0,0,0,0,0
11,119999,7,110000,61,20000,49,9999,0.100000,0,0,0.000000,6,4.000000,0.000000,18.285359,0,0,0,0,0,0,0
11,119999,8,110000,61,20000,49,9999,0.100000,0,0,0.000000,6,1.000000,0.000000,2.468282,0,0,0,0,0,0,0
11,119999,9,110000,5,30000,49,9999,0.100000,0,0,0.000000,6,1.000000,0.000000,5.403050,0,0,0,0,0,0,0
11,119999,10,110000,61,20000,49,9999,0.100000,0,0,0.000000,6,1.000000,0.000000,4.005977,0,0,0,0,0,0,0
11,119999,11,110000,0,20000,40,9999,0.100000,0,0,0.000000,6,0.000000,0.000000,0.195571,0,0,0,0,0,0,0
11,119999,12,110000,0,0,40,9999,0.100000,0,0,0.000000,6,0.000000,0.000000,0.354608,0,0,0,0,0,0,0
11,119999,13,110000,61,20000,49,9999,0.100000,0,0,0.000000,6,1.000000,0.000000,3.193161,0,0,0,0,0,0,0
11,119999,14,110000,61,20000,49,9999,0.100000,0,0,0.000000,6,1.000000,0.000000,5.629545,0,0,0,0,0,0,0
11,119999,15,110000,5,30000,40,9999,0.100000,0,0,0.000000,6,0.000000,0.000000,0.235979,0,0,0,0,0,0,0
11,119999,16,110000,5,30000,49,9999,0.100000,0,0,0.000000,6,1.000000,0.000000,2.325112,0,0,0,0,0,0,0
11,119999,17,110000,32,0,40,9999,0.100000,0,0,0.000000,6,0.000000,0.000000,1.692490,0,0,0,0,0,0,0
11,119999,18,110000,61,20000,49,9999,0.100000,0,0,0.000000,6,1.000000,0.000000,1.732412,0,0,0,0,0,0,0
11,119999,19,110000,5,30000,49,9999,0.100000,0,0,0.000000,6,1.000000,0.000000,1.531197,0,0,0,0,0,0,0
11,119999,20,110000,61,20000,40,9999,0.100000,0,0,0.000000,6,0.000000,0.000000,3.581978,0,0,0,0,0,0,0
11,119999,21,110000,0,0,40,9999,0.100000,0,0,0.000000,6,0.000000,0.000000,0.309308,0,0,0,0,0,0,0
11,119999,22,110000,61,20000,40,9999,0.100000,0,0,0.000000,6,0.000000,0.000000,5.730288,0,0,0,0,0,0,0
11,119999,23,110000,5,30000,49,9999,0.100000,0,0,0.000000,6,1.000000,0.000000,2.107912,0,0,0,0,0,0,0
11,119999,24,110000,0,0,40,9999,0.100000,0,0,0.000000,6,0.000000,0.000000,0.745211,0,0,0,0,0,0,0
11,119999,25,110000,5,30000,40,9999,0.100000,0,0,0.000000,6,0.000000,0.000000,0.891521,0,0,0,0,0,0,0
11,119999,26,110000,61,10000,40,9999,0.100000,0,0,0.000000,6,0.000000,0.000000,0.133455,0,0,0,0,0,0,0
11,119999,27,110000,0,20000,49,9999,0.100000,0,0,0.000000,6,1.000000,0.000000,4.846019,0,0,0,0,0,0,0
11,119999,28,110000,0,20000,49,9999,0.100000,0,0,0.000000,6,1.000000,0.000000,1.532782,0,0,0,0,0,0,0
11,119999,29,110000,0,0,49,9999,0.100000,0,0,0.000000,6,1.000000,0.000000,1.477393,0,0,0,0,0,0,0
11,119999,30,110000,0,0,40,9999,0.100000,0,0,0.000000,6,0.000000,0.000000,0.305376,0,0,0,0,0,0,0
11,119999,31,110000,0,0,40,9999,0.100000,0,0,0.000000,6,0.000000,0.000000,0.339329,0,0,0,0,0,0,0
11,119999,32,110000,5,30000,40,9999,0.100000,0,0,0.000000,6,0.000000,0.000000,3.898176,0,0,0,0,0,0,0
11,119999,33,110000,0,20000,40,9999,0.100000,0,0,0.000000,6,0.000000,0.000000,0.409624,0,0,0,0,0,0,0
11,119999,34,110000,5,30000,40,9999,0.100000,0,0,0.000000,6,0.000000,0.000000,0.493233,0,0,0,0,0,0,0
11,119999,35,110000,0,20000,40,9999,0.100000,0,0,0.000000,6,0.000000,0.000000,0.134590,0,0,0,0,0,0,0
11,119999,36,110000,5,30000,40,9999,0.100000,0,0,0.000000,6,0.000000,0.000000,0.084855,0,0,0,0,0,0,0
11,119999,37,110000,61,20000,40,9999,0.100000,0,0,0.000000,6,0.000000,0.000000,4.390447,0,0,0,0,0,0,0
11,119999,38,110000,5,30000,49,9999,0.100000,0,0,0.000000,6,1.000000,0.000000,5.617069,0,0,0,0,0,0,0
11,119999,39,110000,5,30000,49,9999,0.100000,0,0,0.000000,6,1.000000,0.000000,1.523248,0,0,0,0,0,0,0
11,119999,40,110000,61,10000,40,9999,0.100000,0,0,0.000000,6,0.000000,0.000000,0.369249,0,0,0,0,0,0,0
11,119999,41,110000,5,30000,40,9999,0.100000,0,0,0.000000,6,0.000000,0.000000,0.241521,0,0,0,0,0,0,0
11,119999,42,110000,0,0,40,9999,0.100000,0,0,0.000000,6,0.000000,0.000000,0.241487,0,0,0,0,0,0,0
11,119999,43,110000,61,20000,49,9999,0.100000,0,0,0.000000,6,2.000000,0.000000,5.443676,0,0,0,0,0,0,0
11,119999,44,110000,61,10000,40,9999,0.100000,0,0,0.000000,6,0.000000,0.000000,1.236026,0,0,0,0,0,0,0
11,119999,45,110000,32,0,40,9999,0.100000,0,0,0.000000,6,0.000000,0.000000,0.216725,0,0,0,0,0,0,0
11,119999,46,110000,61,20000,40,9999,0.100000,0,0,0.000000,6,0.000000,0.000000,0.897809,0,0,0,0,0,0,0
11,119999,47,110000,32,0,49,9999,0.100000,0,0,0.000000,6,1.000000,0.000000,1.758686,0,0,0,0,0,0,0
11,119999,48,110000,61,10000,49,9999,0.065000,0,0,0.000000,6,1.000000,0.000000,5.219708,0,0,0,0,0,0,0
11,119999,49,110000,0,0,49,9999,0.100000,0,0,0.000000,6,1.000000,0.000000,4.212580,0,0,0,0,0,0,0
11,119999,50,110000,0,0,40,9999,0.100000,0,0,0.000000,6,0.000000,0.000000,0.607495,0,0,0,0,0,0,0
11,119999,51,110000,5,30000,49,9999,0.100000,0,0,0.000000,6,4.000000,0.000000,14.623386,0,0,0,0,0,0,0
11,119999,52,110000,32,0,49,9999,0.100000,0,0,0.000000,6,1.000000,0.000000,2.997648,0,0,0,0,0,0,0
11,119999,53,110000,32,0,40,9999,0.100000,0,0,0.000000,6,0.000000,0.000000,6.398589,0,0,0,0,0,0,0
11,119999,54,110000,61,10000,49,9999,0.100000,0,0,0.000000,6,3.000000,0.000000,14.873347,0,0,0,0,0,0,0
11,119999,55,110000,0,20000,40,9999,0.100000,0,0,0.000000,6,0.000000,0.000000,6.121620,0,0,0,0,0,0,0
11,119999,56,110000,0,0,40,9999,0.100000,0,0,0.000000,6,0.000000,0.000000,12.232926,0,0,0,0,0,0,0
11,119999,57,110000,61,10000,40,9999,0.100000,0,0,0.000000,6,0.000000,0.000000,1.961035,0,0,0,0,0,0,0
11,119999,58,110000,5,30000,40,9999,0.100000,0,0,0.000000,6,0.000000,0.000000,0.818259,0,0,0,0,0,0,0
11,119999,59,110000,0,20000,40,9999,0.100000,0,0,0.000000,6,0.000000,0.000000,0.381118,0,0,0,0,0,0,0
11,119999,60,110000,32,0,49,9999,0.100000,0,0,0.000000,6,2.000000,0.000000,9.156813,0,0,0,0,0,0,0
11,119999,61,110000,0,20000,40,9999,0.100000,0,0,0.000000,6,0.000000,0.000000,0.087271,0,0,0,0,0,0,0
11,119999,62,110000,5,30000,40,9999,0.100000,0,0,0.000000,6,0.000000,0.000000,0.903172,0,0,0,0,0,0,0
11,119999,63,110000,32,0,40,9999,0.100000,0,0,0.000000,6,0.000000,0.000000,0.519400,0,0,0,0,0,0,0
11,119999,64,110000,32,0,40,9999,0.100000,0,0,0.000000,6,0.000000,0.000000,1.016183,0,0,0,0,0,0,0
11,119999,65,110000,0,20000,49,9999,0.100000,0,0,0.000000,6,11.000000,0.000000,17.458629,0,0,0,0,0,0,0
11,119999,66,110000,0,0,40,9999,0.100000,0,0,0.000000,6,0.000000,0.000000,0.142534,0,0,0,0,0,0,0
11,119999,67,110000,32,0,40,9999,0.100000,0,0,0.000000,6,0.000000,0.000000,1.557391,0,0,0,0,0,0,0
11,119999,68,110000,0,0,40,9999,0.100000,0,0,0.000000,6,0.000000,0.000000,0.300924,0,0,0,0,0,0,0
11,119999,69,110000,61,20000,40,9999,0.100000,0,0,0.000000,6,0.000000,0.000000,1.244962,0,0,0,0,0,0,0
11,119999,70,110000,5,30000,49,9999,0.100000,0,0,0.000000,6,1.000000,0.000000,1.650419,0,0,0,0,0,0,0
11,119999,71,110000,61,10000,40,9999,0.100000,0,0,0.000000,6,0.000000,0.000000,1.423259,0,0,0,0,0,0,0
11,119999,72,110000,0,0,49,9999,0.100000,0,0,0.000000,6,3.000000,0.000000,10.488030,0,0,0,0,0,0,0
11,119999,73,110000,0,20000,40,9999,0.135000,0,0,0.000000,6,0.000000,0.000000,0.355604,0,0,0,0,0,0,0
11,119999,74,110000,0,0,49,9999,0.100000,0,0,0.000000,6,2.000000,0.000000,4.294586,0,0,0,0,0,0,0
11,119999,75,110000,61,10000,40,9999,0.100000,0,0,0.000000,6,0.000000,0.000000,0.087569,0,0,0,0,0,0,0
11,119999,76,110000,0,20000,40,9999,0.100000,0,0,0.000000,6,0.000000,0.000000,0.139679,0,0,0,0,0,0,0
11,119999,77,110000,61,10000,49,9999,0.100000,0,0,0.000000,6,2.000000,0.000000,13.476860,0,0,0,0,0,0,0
11,119999,78,110000,32,0,49,9999,0.100000,0,0,0.000000,6,2.000000,0.000000,7.058539,0,0,0,0,0,0,0
11,119999,79,110000,0,20000,40,9999,0.100000,0,0,0.000000,6,0.000000,0.000000,0.508944,0,0,0,0,0,0,0
11,119999,80,110000,32,0,49,9999,0.100000,0,0,0.000000,6,10.000000,0.000000,19.292646,0,0,0,0,0,0,0
11,119999,81,110000,61,20000,40,9999,0.100000,0,0,0.000000,6,0.000000,0.000000,18.718719,0,0,0,0,0,0,0
11,119999,82,110000,0,0,49,9999,0.100000,0,0,0.000000,6,1.000000,0.000000,3.659379,0,0,0,0,0,0,0
11,119999,83,110000,5,30000,40,9999,0.100000,0,0,0.000000,6,0.000000,0.000000,0.850299,0,0,0,0,0,0,0
11,119999,84,110000,61,20000,49,9999,0.100000,0,0,0.000000,6,4.000000,0.000000,13.349128,0,0,0,0,0,0,0
11,119999,85,110000,0,0,40,9999,0.100000,0,0,0.000000,6,0.000000,0.000000,0.235830,0,0,0,0,0,0,0
11,119999,86,110000,0,20000,49,9999,0.100000,0,0,0.000000,6,1.000000,0.000000,4.973960,0,0,0,0,0,0,0
11,119999,87,110000,61,20000,49,9999,0.100000,0,0,0.000000,6,1.000000,0.000000,1.307192,0,0,0,0,0,0,0
11,119999,88,110000,0,0,49,9999,0.100000,0,0,0.000000,6,4.000000,0.000000,16.579757,0,0,0,0,0,0,0
11,119999,89,110000,61,20000,49,9999,0.100000,0,0,0.000000,6,2.000000,0.000000,11.853827,0,0,0,0,0,0,0
11,119999,90,110000,0,20000,49,9999,0.065000,0,0,0.000000,6,1.000000,0.000000,1.363540,0,0,0,0,0,0,0
11,119999,91,110000,0,20000,49,9999,0.100000,0,0,0.000000,6,2.000000,0.000000,14.633266,0,0,0,0,0,0,0
11,119999,92,110000,61,10000,49,9999,0.100000,0,0,0.000000,6,1.000000,0.000000,1.364942,0,0,0,0,0,0,0
11,119999,93,110000,61,20000,40,9999,0.100000,0,0,0.000000,6,0.000000,0.000000,0.217079,0,0,0,0,0,0,0
11,119999,94,110000,61,20000,49,9999,0.100000,0,0,0.000000,6,1.000000,0.000000,4.166921,0,0,0,0,0,0,0
11,119999,95,110000,61,20000,49,9999,0.100000,0,0,0.000000,6,6.000000,0.000000,14.094664,0,0,0,0,0,0,0
11,119999,96,110000,32,0,49,9999,0.100000,0,0,0.000000,6,1.000000,0.000000,2.529863,0,0,0,0,0,0,0
11,119999,97,110000,0,0,49,9999,0.100000,0,0,0.000000,6,3.000000,0.000000,24.780648,0,0,0,0,0,0,0
11,119999,98,110000,32,0,49,9999,0.100000,0,0,0.000000,6,3.000000,0.000000,13.604601,0,0,0,0,0,0,0
11,119999,99,110000,61,20000,40,9999,0.100000,0,0,0.000000,6,0.000000,0.000000,0.252832,0,0,0,0,0,0,0
12,129999,0,120000,0,0,49,9999,0.100000,0,0,0.000000,6,1.000000,0.000000,6.103596,0,0,0,0,0,0,0
12,129999,1,120000,5,30000,40,9999,0.100000,0,0,0.000000,6,0.000000,0.000000,1.151872,0,0,0,0,0,0,0
12,129999,2,120000,32,0,40,9999,0.100000,0,0,0.000000,6,0.000000,0.000000,0.902044,0,0,0,0,0,0,0
12,129999,3,120000,0,20000,40,9999,0.100000,0,0,0.000000,6,0.000000,0.000000,0.671246,0,0,0,0,0,0,0
12,129999,4,120000,61,20000,40,9999,0.100000,0,0,0.000000,6,0.000000,0.000000,1.719528,0,0,0,0,0,0,0
12,129999,5,120000,61,20000,49,9999,0.100000,0,0,0.000000,6,3.000000,0.000000,7.691829,0,0,0,0,0,0,0
12,129999,6,120000,0,0,40,9999,0.100000,0,0,0.000000,6,0.000000,0.000000,10.989424,0,0,0,0,0,0,0
12,129999,7,120000,61,20000,49,9999,0.100000,0,0,0.000000,6,2.000000,0.000000,23.923537,0,0,0,0,0,0,0
12,129999,8,120000,32,0,40,9999,0.100000,0,0,0.000000,6,0.000000,0.000000,1.802313,0,0,0,0,0,0,0
12,129999,9,120000,61,20000,40,9999,0.100000,0,0,0.000000,6,0.000000,0.000000,0.894773,0,0,0,0,0,0,0
12,129999,10,120000,61,10000,40,9999,0.100000,0,0,0.000000,6,0.000000,0.000000,1.108930,0,0,0,0,0,0,0
12,129999,11,120000,0,0,40,9999,0.100000,0,0,0.000000,6,0.000000,0.000000,0.275541,0,0,0,0,0,0,0
12,129999,12,120000,0,0,40,9999,0.100000,0,0,0.000000,6,0.000000,0.000000,0.381388,0,0,0,0,0,0,0
12,129999,13,120000,61,10000,40,9999,0.100000,0,0,0.000000,6,0.000000,0.000000,1.553360,0,0,0,0,0,0,0
12,129999,14,120000,0,20000,49,9999,0.100000,0,0,0.000000,6,1.000000,0.000000,8.969853,0,0,0,0,0,0,0
12,129999,15,120000,5,30000,40,9999,0.100000,0,0,0.000000,6,0.000000,0.000000,0.239509,0,0,0,0,0,0,0
12,129999,16,120000,5,30000,40,9999,0.100000,0,0,0.000000,6,0.000000,0.000000,1.253535,0,0,0,0,0,0,0
12,129999,17,120000,32,0,49,9999,0.100000,0,0,0.000000,6,7.000000,0.000000,7.966575,0,0,0,0,0,0,0
12,129999,18,120000,32,0,40,9999,0.135000,0,0,0.000000,6,0.000000,0.000000,0.740663,0,0,0,0,0,0,0
12,129999,19,120000,0,20000,49,9999,0.100000,0,0,0.000000,6,10.000000,0.000000,11.013077,0,0,0,0,0,0,0
12,129999,20,120000,32,0,40,9999,0.100000,0,0,0.000000,6,0.000000,0.000000,0.737816,0,0,0,0,0,0,0
12,129999,21,120000,61,10000,40,9999,0.100000,0,0,0.000000,6,0.000000,0.000000,0.357717,0,0,0,0,0,0,0
12,129999,22,120000,61,10000,40,9999,0.100000,0,0,0.000000,6,0.000000,0.000000,1.532546,0,0,0,0,0,0,0
12,129999,23,120000,0,0,40,9999,0.100000,0,0,0.000000,6,0.000000,0.000000,0.382021,0,0,0,0,0,0,0
12,129999,24,120000,0,20000,40,9999,0.100000,0,0,0.000000,6,0.000000,0.000000,0.801770,0,0,0,0,0,0,0
12,129999,25,120000,32,0,40,9999,0.100000,0,0,0.000000,6,0.000000,0.000000,0.607570,0,0,0,0,0,0,0
12,129999,26,120000,61,20000,40,9999,0.100000,0,0,0.000000,6,0.000000,0.000000,0.132342,0,0,0,0,0,0,0
12,129999,27,120000,61,20000,49,9999,0.100000,0,0,0.000000,6,1.000000,0.000000,4.925532,0,0,0,0,0,0,0
12,129999,28,120000,32,0,40,9999,0.100000,0,0,0.000000,6,0.000000,0.000000,1.506208,0,0,0,0,0,0,0
12,129999,29,120000,61,10000,49,9999,0.100000,0,0,0.000000,6,10.000000,0.000000,10.750114,0,0,0,0,0,0,0
12,129999,30,120000,61,20000,40,9999,0.100000,0,0,0.000000,6,0.000000,0.000000,0.232219,0,0,0,0,0,0,0
12,129999,31,120000,5,30000,40,9999,0.100000,0,0,0.000000,6,0.000000,0.000000,0.610721,0,0,0,0,0,0,0
12,129999,32,120000,61,20000,49,9999,0.100000,0,0,0.000000,6,1.000000,0.000000,6.327075,0,0,0,0,0,0,0
12,129999,33,120000,0,20000,49,9999,0.100000,0,0,0.000000,6,1.000000,0.000000,1.539375,0,0,0,0,0,0,0
