generation,iteration,robot,birthday,ancestor_id,ancestor_birthday,cell_id,age,sigma,maps,genomes,fitness,cells_in_map,dist_max,dist_pot_max,dist_total,com_rx,com_tx,obj_group1,obj_group2,obj_group3,obj_group4,obj_group5
0,9999,0,0,0,0,40,9999,0.100000,99,99,0.000000,0,0.000000,25.337862,8.373340,99,99,0,0,0,0,0
0,9999,1,0,1,0,40,9999,0.100000,99,99,0.000000,0,1.000000,18.041144,2.055736,99,99,0,0,0,0,0
0,9999,2,0,2,0,90,9999,0.100000,99,99,6.542489,0,2.000000,30.565019,11.287913,99,99,1,0,0,0,0
0,9999,3,0,3,0,40,9999,0.100000,99,99,0.000000,0,2.000000,31.249235,19.001918,99,99,0,0,0,0,0
0,9999,4,0,4,0,40,9999,0.100000,99,99,0.000000,0,2.000000,29.937903,9.411045,99,99,0,0,0,0,0
0,9999,5,0,5,0,0,9999,0.100000,99,99,0.714811,0,2.000000,33.622447,3.459006,99,99,0,0,0,1,0
0,9999,6,0,6,0,41,9999,0.100000,99,99,0.000000,0,3.000000,27.516278,13.883861,99,99,0,0,0,0,0
0,9999,7,0,7,0,0,9999,0.100000,99,99,0.467458,0,0.000000,25.867262,0.695533,99,99,0,0,1,0,0
0,9999,8,0,8,0,40,9999,0.100000,99,99,0.000000,0,0.000000,35.050350,5.198355,99,99,0,0,0,0,0
0,9999,9,0,9,0,40,9999,0.100000,99,99,0.000000,0,2.000000,25.443445,12.968463,99,99,0,0,0,0,0
0,9999,10,0,10,0,92,9999,0.100000,99,99,37.249991,0,8.000000,31.128654,23.059917,99,99,1,0,0,0,0
0,9999,11,0,11,0,96,9999,0.100000,99,99,64.746514,0,14.000000,19.861542,23.385509,99,99,1,0,0,0,0
0,9999,12,0,12,0,40,9999,0.100000,99,99,0.000000,0,2.000000,26.224673,8.472546,99,99,0,0,0,0,0
0,9999,13,0,13,0,45,9999,0.100000,99,99,64.564118,0,12.000000,20.678015,18.739591,99,99,0,0,0,0,0
0,9999,14,0,14,0,94,9999,0.100000,99,99,46.166156,0,9.000000,21.269871,19.891577,99,99,1,0,0,0,0
0,9999,15,0,15,0,40,9999,0.100000,99,99,0.000000,0,1.000000,27.098830,6.678723,99,99,0,0,0,0,0
0,9999,16,0,16,0,0,9999,0.100000,99,99,0.323831,0,2.000000,34.117421,5.576420,99,99,0,1,0,0,0
0,9999,17,0,17,0,0,9999,0.100000,99,99,0.039890,0,0.000000,23.051054,0.382125,99,99,0,0,0,1,0
0,9999,18,0,18,0,40,9999,0.100000,99,99,0.000000,0,0.000000,26.315024,8.936090,99,99,0,0,0,0,0
0,9999,19,0,19,0,41,9999,0.100000,99,99,0.000000,0,3.000000,27.418381,5.127611,99,99,0,0,0,0,0
0,9999,20,0,20,0,40,9999,0.100000,99,99,0.000000,0,0.000000,24.073024,8.906242,99,99,0,0,0,0,0
0,9999,21,0,21,0,40,9999,0.100000,99,99,0.000000,0,2.000000,27.759786,3.880061,99,99,0,0,0,0,0
0,9999,22,0,22,0,42,9999,0.100000,99,99,0.000000,0,3.000000,12.505993,11.181991,99,99,0,0,0,0,0
0,9999,23,0,23,0,40,9999,0.100000,99,99,0.000000,0,1.000000,29.331322,2.926501,99,99,0,0,0,0,0
0,9999,24,0,24,0,45,9999,0.100000,99,99,0.000000,0,7.000000,12.024846,20.492922,99,99,0,0,0,0,0
0,9999,25,0,25,0,96,9999,0.100000,99,99,75.492685,0,15.000000,20.660675,22.782142,99,99,1,0,0,0,0
0,9999,26,0,26,0,1,9999,0.100000,99,99,18.931880,0,4.000000,24.674127,9.375077,99,99,0,1,0,0,0
0,9999,27,0,27,0,92,9999,0.100000,99,99,36.399983,0,7.000000,24.807093,13.880980,99,99,2,0,0,0,0
0,9999,28,0,28,0,1,9999,0.100000,99,99,0.000797,0,4.000000,25.160475,11.879300,99,99,0,0,1,0,0
0,9999,29,0,29,0,40,9999,0.100000,99,99,0.000000,0,2.000000,25.920113,8.616945,99,99,0,0,0,0,0
0,9999,30,0,30,0,0,9999,0.100000,99,99,0.223852,0,0.000000,18.926926,0.272470,99,99,0,0,1,0,0
0,9999,31,0,31,0,42,9999,0.100000,99,99,16.019489,0,5.000000,23.483694,7.746394,99,99,1,1,0,0,0
0,9999,32,0,32,0,41,9999,0.100000,99,99,0.000000,0,3.000000,23.000000,6.329912,99,99,0,0,0,0,0
0,9999,33,0,33,0,40,9999,0.100000,99,99,0.000000,0,3.000000,30.309603,9.594633,99,99,0,0,0,0,0
0,9999,34,0,34,0,41,9999,0.100000,99,99,0.000000,0,3.000000,27.355691,13.891100,99,99,0,0,0,0,0
0,9999,35,0,35,0,40,9999,0.100000,99,99,0.000000,0,1.000000,27.240940,4.139717,99,99,0,0,0,0,0
0,9999,36,0,36,0,0,9999,0.100000,99,99,0.025428,0,0.000000,27.507141,1.301306,99,99,0,0,0,0,1
0,9999,37,0,37,0,90,9999,0.100000,99,99,1.068604,0,1.000000,22.206556,9.263369,99,99,1,0,0,0,0
0,9999,38,0,38,0,41,9999,0.100000,99,99,0.000000,0,5.000000,35.316003,17.606136,99,99,0,0,0,0,0
0,9999,39,0,39,0,40,9999,0.100000,99,99,0.000000,0,0.000000,15.727128,2.943887,99,99,0,0,0,0,0
0,9999,40,0,40,0,40,9999,0.100000,99,99,0.000000,0,0.000000,26.344418,0.482344,99,99,0,0,0,0,0
0,9999,41,0,41,0,0,9999,0.100000,99,99,0.106321,0,0.000000,30.303694,2.209790,99,99,0,0,0,0,1
0,9999,42,0,42,0,91,9999,0.100000,99,99,12.638465,0,5.000000,27.269627,14.772398,99,99,1,0,0,0,0
0,9999,43,0,43,0,40,9999,0.100000,99,99,0.000000,0,1.000000,27.118995,9.383607,99,99,0,0,0,0,0
0,9999,44,0,44,0,41,9999,0.100000,99,99,0.000000,0,3.000000,17.874643,8.474684,99,99,0,0,0,0,0
0,9999,45,0,45,0,40,9999,0.100000,99,99,0.000000,0,1.000000,14.614109,7.406403,99,99,0,0,0,0,0
0,9999,46,0,46,0,41,9999,0.100000,99,99,0.000000,0,5.000000,34.695142,18.772482,99,99,0,0,0,0,0
0,9999,47,0,47,0,40,9999,0.100000,99,99,0.000000,0,2.000000,30.615528,7.872423,99,99,0,0,0,0,0
0,9999,48,0,48,0,90,9999,0.100000,99,99,0.651386,0,1.000000,19.060905,7.121155,99,99,1,0,0,0,0
0,9999,49,0,49,0,40,9999,0.100000,99,99,0.000000,0,1.000000,33.549310,5.713542,99,99,0,0,0,0,0
0,9999,50,0,50,0,40,9999,0.100000,99,99,0.000000,0,2.000000,28.969449,11.481564,99,99,0,0,0,0,0
0,9999,51,0,51,0,40,9999,0.100000,99,99,0.000000,0,2.000000,25.625940,6.634351,99,99,0,0,0,0,0
0,9999,52,0,52,0,41,9999,0.100000,99,99,0.000000,0,3.000000,22.971122,6.456641,99,99,0,0,0,0,0
0,9999,53,0,53,0,1,9999,0.100000,99,99,18.376451,0,4.000000,24.520675,10.706068,99,99,0,1,0,0,0
0,9999,54,0,54,0,40,9999,0.100000,99,99,0.000000,0,1.000000,18.417244,3.099683,99,99,0,0,0,0,0
0,9999,55,0,55,0,40,9999,0.100000,99,99,0.000000,0,2.000000,29.143667,18.100010,99,99,0,0,0,0,0
0,9999,56,0,56,0,40,9999,0.100000,99,99,0.000000,0,2.000000,33.274450,8.490118,99,99,0,0,0,0,0
0,9999,57,0,57,0,92,9999,0.100000,99,99,46.663823,0,8.000000,28.693582,14.939297,99,99,1,0,0,0,0
0,9999,58,0,58,0,1,9999,0.100000,99,99,0.000580,0,3.000000,26.735890,10.580224,99,99,0,0,0,1,0
0,9999,59,0,59,0,41,9999,0.100000,99,99,0.000000,0,5.000000,28.146350,9.705452,99,99,0,0,0,0,0
0,9999,60,0,60,0,90,9999,0.100000,99,99,11.381601,0,2.000000,25.211838,9.996500,99,99,1,0,0,0,0
0,9999,61,0,61,0,0,9999,0.100000,99,99,0.740597,0,0.000000,23.661991,1.570239,99,99,0,0,1,0,0
0,9999,62,0,62,0,40,9999,0.100000,99,99,0.000000,0,2.000000,28.506485,11.208702,99,99,0,0,0,0,0
0,9999,63,0,63,0,40,9999,0.100000,99,99,0.000000,0,2.000000,27.685305,4.038558,99,99,0,0,0,0,0
0,9999,64,0,64,0,40,9999,0.100000,99,99,0.000000,0,0.000000,21.988328,6.551514,99,99,0,0,0,0,0
0,9999,65,0,65,0,40,9999,0.100000,99,99,0.000000,0,1.000000,22.972664,8.963891,99,99,0,0,0,0,0
0,9999,66,0,66,0,40,9999,0.100000,99,99,0.000000,0,0.000000,25.284633,5.948480,99,99,0,0,0,0,0
0,9999,67,0,67,0,40,9999,0.100000,99,99,0.000000,0,1.000000,16.262587,6.535225,99,99,0,0,0,0,0
0,9999,68,0,68,0,44,9999,0.100000,99,99,0.000000,0,6.000000,13.757659,11.288582,99,99,0,0,0,0,0
0,9999,69,0,69,0,40,9999,0.100000,99,99,0.000000,0,2.000000,27.969418,9.994623,99,99,0,0,0,0,0
0,9999,70,0,70,0,91,9999,0.100000,99,99,30.874373,0,3.000000,19.100000,14.191962,99,99,1,0,0,0,0
0,9999,71,0,71,0,40,9999,0.100000,99,99,0.000000,0,1.000000,23.120976,8.184586,99,99,0,0,0,0,0
0,9999,72,0,72,0,40,9999,0.100000,99,99,0.000000,0,2.000000,27.387639,13.319931,99,99,0,0,0,0,0
0,9999,73,0,73,0,40,9999,0.100000,99,99,0.000000,0,1.000000,30.177711,6.420643,99,99,0,0,0,0,0
0,9999,74,0,74,0,41,9999,0.100000,99,99,0.000000,0,4.000000,25.206906,13.327503,99,99,0,0,0,0,0
0,9999,75,0,75,0,95,9999,0.100000,99,99,50.874658,0,11.000000,18.036168,15.485872,99,99,1,0,0,0,0
0,9999,76,0,76,0,42,9999,0.100000,99,99,0.000000,0,5.000000,17.134423,11.091849,99,99,0,0,0,0,0
0,9999,77,0,77,0,40,9999,0.100000,99,99,0.000000,0,0.000000,23.086252,0.978018,99,99,0,0,0,0,0
0,9999,78,0,78,0,40,9999,0.100000,99,99,0.000000,0,0.000000,16.040695,4.627988,99,99,0,0,0,0,0
0,9999,79,0,79,0,40,9999,0.100000,99,99,0.000000,0,0.000000,34.610973,7.338925,99,99,0,0,0,0,0
0,9999,80,0,80,0,40,9999,0.100000,99,99,0.000000,0,1.000000,34.058470,5.116419,99,99,0,0,0,0,0
0,9999,81,0,81,0,40,9999,0.100000,99,99,0.000000,0,2.000000,23.572398,16.614531,99,99,0,0,0,0,0
0,9999,82,0,82,0,40,9999,0.100000,99,99,0.000000,0,1.000000,26.686821,14.889742,99,99,0,0,0,0,0
0,9999,83,0,83,0,40,9999,0.100000,99,99,0.000000,0,1.000000,29.138704,3.582195,99,99,0,0,0,0,0
0,9999,84,0,84,0,40,9999,0.100000,99,99,0.000000,0,0.000000,19.476286,7.381922,99,99,0,0,0,0,0
0,9999,85,0,85,0,42,9999,0.100000,99,99,0.000000,0,4.000000,14.159327,15.255245,99,99,0,0,0,0,0
0,9999,86,0,86,0,96,9999,0.100000,99,99,85.556901,0,15.000000,23.748091,28.963793,99,99,1,0,0,0,0
0,9999,87,0,87,0,40,9999,0.100000,99,99,0.000000,0,1.000000,23.880922,8.287721,99,99,0,0,0,0,0
0,9999,88,0,88,0,40,9999,0.100000,99,99,0.000000,0,3.000000,28.822327,7.687972,99,99,0,0,0,0,0
0,9999,89,0,89,0,40,9999,0.100000,99,99,0.000000,0,1.000000,20.242070,23.520189,99,99,0,0,0,0,0
0,9999,90,0,90,0,98,9999,0.100000,99,99,81.540898,0,16.000000,18.732125,21.016732,99,99,1,0,0,0,0
0,9999,91,0,91,0,40,9999,0.100000,99,99,0.000000,0,1.000000,27.098538,8.446967,99,99,0,0,0,0,0
0,9999,92,0,92,0,41,9999,0.100000,99,99,0.000000,0,2.000000,13.310589,7.092884,99,99,0,0,0,0,0
0,9999,93,0,93,0,0,9999,0.100000,99,99,3.653384,0,0.000000,15.558660,2.172751,99,99,0,0,0,1,0
0,9999,94,0,94,0,44,9999,0.100000,99,99,0.000000,0,5.000000,11.431782,15.823644,99,99,0,0,0,0,0
0,9999,95,0,95,0,40,9999,0.100000,99,99,0.000000,0,1.000000,29.863534,6.226619,99,99,0,0,0,0,0
0,9999,96,0,96,0,40,9999,0.100000,99,99,0.000000,0,1.000000,14.338202,7.887163,99,99,0,0,0,0,0
0,9999,97,0,97,0,41,9999,0.100000,99,99,0.000000,0,5.000000,28.642425,13.690202,99,99,0,0,0,0,0
0,9999,98,0,98,0,40,9999,0.100000,99,99,0.000000,0,0.000000,18.796590,0.399387,99,99,0,0,0,0,0
0,9999,99,0,99,0,40,9999,0.100000,99,99,0.000000,0,2.000000,20.270346,9.788641,99,99,0,0,0,0,0
1,19999,0,10000,86,0,1,9999,0.100000,99,198,0.168561,1,5.000000,25.100988,16.625559,99,99,0,0,1,0,0
1,19999,1,10000,86,0,0,9999,0.100000,99,198,2.675042,1,0.000000,16.901356,2.263354,99,99,0,0,0,1,0
1,19999,2,10000,86,0,40,9999,0.100000,99,198,0.000000,1,2.000000,32.710863,20.510233,99,99,0,0,0,0,0
1,19999,3,10000,86,0,40,9999,0.100000,99,198,0.000000,1,1.000000,32.259671,19.139686,99,99,0,0,0,0,0
1,19999,4,10000,86,0,41,9999,0.100000,99,198,0.000000,1,5.000000,27.976809,27.260824,99,99,0,0,0,0,0
1,19999,5,10000,86,0,0,9999,0.065000,99,198,0.636469,1,0.000000,32.285517,0.271090,99,99,0,0,0,1,0
1,19999,6,10000,86,0,91,9999,0.100000,99,198,30.178071,1,6.000000,31.056611,12.255147,99,99,1,0,0,0,0
1,19999,7,10000,86,0,0,9999,0.100000,99,198,0.000905,1,0.000000,25.564601,0.124105,99,99,0,0,1,0,0
1,19999,8,10000,86,0,0,9999,0.100000,99,198,20.990753,1,3.000000,35.257557,13.851176,99,99,0,1,0,0,0
1,19999,9,10000,86,0,0,9999,0.100000,99,198,0.013685,1,0.000000,26.678841,0.206043,99,99,0,0,0,0,1
1,19999,10,10000,86,0,41,9999,0.100000,99,198,0.000000,1,7.000000,33.788619,23.524501,99,99,0,0,0,0,0
1,19999,11,10000,86,0,40,9999,0.100000,99,198,0.000000,1,3.000000,28.506155,22.749014,99,99,0,0,0,0,0
1,19999,12,10000,86,0,41,9999,0.100000,99,198,0.000000,1,4.000000,24.231404,18.700404,99,99,0,0,0,0,0
1,19999,13,10000,86,0,40,9999,0.100000,99,198,0.000000,1,3.000000,29.851488,22.060648,99,99,0,0,0,0,0
1,19999,14,10000,86,0,90,9999,0.100000,99,198,6.690084,1,3.000000,29.001787,22.329644,99,99,1,0,0,0,0
1,19999,15,10000,86,0,41,9999,0.100000,99,198,0.000000,1,4.000000,26.791871,17.669385,99,99,0,0,0,0,0
1,19999,16,10000,86,0,40,9999,0.100000,99,198,0.000000,1,0.000000,35.000594,6.339509,99,99,0,0,0,0,0
1,19999,17,10000,86,0,0,9999,0.100000,99,198,0.819172,1,0.000000,23.304396,0.381607,99,99,0,0,0,1,0
1,19999,18,10000,86,0,40,9999,0.100000,99,198,0.000000,1,2.000000,25.610153,21.212236,99,99,0,0,0,0,0
1,19999,19,10000,86,0,40,9999,0.100000,99,198,0.000000,1,1.000000,29.696698,1.751723,99,99,0,0,0,0,0
1,19999,20,10000,86,0,41,9999,0.100000,99,198,0.000000,1,3.000000,24.295342,15.661280,99,99,0,0,0,0,0
1,19999,21,10000,86,0,40,9999,0.100000,99,198,0.000000,1,1.000000,28.280636,1.921050,99,99,0,0,0,0,0
1,19999,22,10000,86,0,0,9999,0.100000,99,198,1.724835,1,0.000000,15.115171,1.386050,99,99,0,0,0,1,0
1,19999,23,10000,86,0,40,9999,0.100000,99,198,0.000000,1,0.000000,30.033194,2.725632,99,99,0,0,0,0,0
1,19999,24,10000,86,0,40,9999,0.100000,99,198,0.000000,1,1.000000,18.540945,20.003176,99,99,0,0,0,0,0
1,19999,25,10000,86,0,42,9999,0.100000,99,198,0.000000,1,7.000000,29.068545,23.769927,99,99,0,0,0,0,0
1,19999,26,10000,86,0,40,9999,0.100000,99,198,15.286896,1,2.000000,27.468723,24.718744,99,99,1,1,0,0,0
1,19999,27,10000,86,0,40,9999,0.100000,99,198,0.000000,1,3.000000,29.608313,25.776498,99,99,0,0,0,0,0
1,19999,28,10000,86,0,0,9999,0.100000,99,198,0.000611,1,0.000000,20.654946,0.106473,99,99,0,0,1,0,0
1,19999,29,10000,86,0,41,9999,0.100000,99,198,0.000000,1,3.000000,25.786872,6.410389,99,99,0,0,0,0,0
1,19999,30,10000,86,0,0,9999,0.100000,99,198,0.008216,1,0.000000,19.077567,0.131699,99,99,0,0,1,0,0
1,19999,31,10000,86,0,0,9999,0.100000,99,198,6.457642,1,2.000000,27.584519,25.834922,99,99,0,1,0,0,0
1,19999,32,10000,86,0,92,9999,0.100000,99,198,42.817516,1,8.000000,26.190301,25.157228,99,99,1,0,0,0,0
1,19999,33,10000,86,0,41,9999,0.100000,99,198,0.000000,1,3.000000,26.384266,16.093515,99,99,0,0,0,0,0
1,19999,34,10000,86,0,42,9999,0.100000,99,198,0.000000,1,7.000000,30.650194,23.046374,99,99,0,0,0,0,0
1,19999,35,10000,86,0,40,9999,0.100000,99,198,0.000000,1,2.000000,25.363678,31.977084,99,99,0,0,0,0,0
1,19999,36,10000,86,0,40,9999,0.100000,99,198,0.000000,1,0.000000,27.084990,0.141148,99,99,0,0,0,0,0
1,19999,37,10000,86,0,90,9999,0.100000,99,198,2.321771,1,1.000000,23.039138,3.020031,99,99,1,0,0,0,0
1,19999,38,10000,86,0,91,9999,0.100000,99,198,16.537886,1,5.000000,31.163453,15.180883,99,99,1,0,0,0,0
1,19999,39,10000,86,0,41,9999,0.100000,99,198,0.000000,1,2.000000,15.312438,25.952768,99,99,0,0,0,0,0
1,19999,40,10000,86,0,40,9999,0.100000,99,198,0.000000,1,0.000000,26.563643,0.139662,99,99,0,0,0,0,0
1,19999,41,10000,86,0,40,9999,0.100000,99,198,0.000000,1,2.000000,29.543653,4.804670,99,99,0,0,0,0,0
1,19999,42,10000,86,0,91,9999,0.100000,99,198,23.440953,1,5.000000,24.553735,26.589695,99,99,1,0,0,0,0
1,19999,43,10000,86,0,40,9999,0.100000,99,198,0.000000,1,1.000000,27.329734,15.243191,99,99,0,0,0,0,0
1,19999,44,10000,86,0,2,9999,0.100000,99,198,0.010197,1,5.000000,16.849071,14.210666,99,99,0,0,0,0,1
1,19999,45,10000,86,0,40,9999,0.100000,99,198,0.000000,1,0.000000,15.100861,1.181721,99,99,0,0,0,0,0
1,19999,46,10000,86,0,40,9999,0.100000,99,198,0.000000,1,0.000000,32.366987,17.961070,99,99,0,0,0,0,0
1,19999,47,10000,86,0,41,9999,0.100000,99,198,0.000000,1,5.000000,32.428066,22.911413,99,99,0,0,0,0,0
1,19999,48,10000,86,0,90,9999,0.100000,99,198,0.406727,1,0.000000,17.526299,0.604760,99,99,1,0,0,0,0
1,19999,49,10000,86,0,40,9999,0.100000,99,198,0.000000,1,0.000000,32.196397,1.425026,99,99,0,0,0,0,0
1,19999,50,10000,86,0,40,9999,0.100000,99,198,0.000000,1,2.000000,28.566258,26.598248,99,99,0,0,0,0,0
1,19999,51,10000,86,0,42,9999,0.100000,99,198,0.000000,1,7.000000,28.069354,18.556497,99,99,0,0,0,0,0
1,19999,52,10000,86,0,42,9999,0.100000,99,198,0.000000,1,6.000000,22.013293,25.220784,99,99,0,0,0,0,0
1,19999,53,10000,86,0,41,9999,0.100000,99,198,0.000000,1,6.000000,28.594804,28.932658,99,99,0,0,0,0,0
1,19999,54,10000,86,0,40,9999,0.100000,99,198,0.000000,1,1.000000,16.719346,3.862840,99,99,0,0,0,0,0
1,19999,55,10000,86,0,41,9999,0.100000,99,198,0.000000,1,3.000000,28.208579,17.641200,99,99,0,0,0,0,0
1,19999,56,10000,86,0,40,9999,0.100000,99,198,0.000000,1,0.000000,32.076321,2.629021,99,99,0,0,0,0,0
1,19999,57,10000,86,0,90,9999,0.100000,99,198,22.154096,1,3.000000,33.462814,15.044476,99,99,1,0,0,0,0
1,19999,58,10000,86,0,0,9999,0.100000,99,198,0.006690,1,0.000000,25.853258,0.098527,99,99,0,0,0,1,0
1,19999,59,10000,86,0,40,9999,0.100000,99,198,0.000000,1,0.000000,27.722498,4.567301,99,99,0,0,0,0,0
1,19999,60,10000,86,0,40,9999,0.100000,99,198,0.000000,1,0.000000,26.548958,5.954922,99,99,0,0,0,0,0
1,19999,61,10000,86,0,0,9999,0.100000,99,198,0.362809,1,0.000000,23.293872,0.355091,99,99,0,0,1,0,0
1,19999,62,10000,86,0,91,9999,0.100000,99,198,3.044324,1,4.000000,30.216173,20.728126,99,99,1,0,0,0,0
1,19999,63,10000,86,0,40,9999,0.100000,99,198,0.000000,1,0.000000,29.836272,0.904805,99,99,0,0,0,0,0
1,19999,64,10000,86,0,41,9999,0.100000,99,198,0.000000,1,4.000000,21.236102,18.877950,99,99,0,0,0,0,0
1,19999,65,10000,86,0,41,9999,0.100000,99,198,0.000000,1,3.000000,24.259245,21.249402,99,99,0,0,0,0,0
1,19999,66,10000,86,0,40,9999,0.100000,99,198,0.000000,1,2.000000,25.270856,18.342137,99,99,0,0,0,0,0
1,19999,67,10000,86,0,40,9999,0.100000,99,198,0.000000,1,0.000000,16.020755,0.871113,99,99,0,0,0,0,0
1,19999,68,10000,86,0,40,9999,0.100000,99,198,0.000000,1,1.000000,20.218486,4.139550,99,99,0,0,0,0,0
1,19999,69,10000,86,0,40,9999,0.100000,99,198,0.000000,1,1.000000,29.857767,3.106049,99,99,0,0,0,0,0
1,19999,70,10000,86,0,94,9999,0.100000,99,198,60.472362,1,11.000000,22.146464,14.144750,99,99,1,0,0,0,0
1,19999,71,10000,86,0,40,9999,0.100000,99,198,0.000000,1,0.000000,22.678702,8.120494,99,99,0,0,0,0,0
1,19999,72,10000,86,0,40,9999,0.100000,99,198,0.000000,1,1.000000,28.104376,17.360932,99,99,0,0,0,0,0
1,19999,73,10000,86,0,40,9999,0.100000,99,198,0.000000,1,0.000000,31.331367,0.988524,99,99,0,0,0,0,0
1,19999,74,10000,86,0,42,9999,0.100000,99,198,0.000000,1,6.000000,22.494008,22.199894,99,99,0,0,0,0,0
1,19999,75,10000,86,0,40,9999,0.100000,99,198,0.000000,1,2.000000,28.087860,24.729869,99,99,0,0,0,0,0
1,19999,76,10000,86,0,41,9999,0.100000,99,198,0.000000,1,3.000000,18.939173,18.498499,99,99,0,0,0,0,0
1,19999,77,10000,86,0,40,9999,0.100000,99,198,0.000000,1,0.000000,22.786664,0.789804,99,99,0,0,0,0,0
1,19999,78,10000,86,0,40,9999,0.100000,99,198,0.000000,1,1.000000,16.528319,2.223254,99,99,0,0,0,0,0
1,19999,79,10000,86,0,41,9999,0.100000,99,198,0.000000,1,5.000000,35.407974,23.063633,99,99,0,0,0,0,0
1,19999,80,10000,86,0,0,9999,0.100000,99,198,19.608216,1,3.000000,34.705461,7.917455,99,99,0,1,0,0,0
1,19999,81,10000,86,0,41,9999,0.100000,99,198,0.000000,1,3.000000,25.119920,10.833777,99,99,0,0,0,0,0
1,19999,82,10000,86,0,0,9999,0.100000,99,198,0.100821,1,2.000000,26.533320,6.201314,99,99,0,0,0,0,1
1,19999,83,10000,86,0,40,9999,0.100000,99,198,0.000000,1,1.000000,30.205908,2.192924,99,99,0,0,0,0,0
1,19999,84,10000,86,0,95,9999,0.100000,99,198,57.506390,1,12.000000,19.152074,23.575376,99,99,1,0,0,0,0
1,19999,85,10000,86,0,41,9999,0.100000,99,198,0.000000,1,2.000000,18.468127,23.395708,99,99,0,0,0,0,0
1,19999,86,10000,90,0,41,9999,0.135000,99,198,0.000000,1,4.000000,32.903413,17.459252,99,99,0,0,0,0,0
1,19999,87,10000,86,0,40,9999,0.100000,99,198,0.000000,1,0.000000,25.170690,0.113785,99,99,0,0,0,0,0
1,19999,88,10000,86,0,40,9999,0.100000,99,198,0.000000,1,0.000000,31.572017,0.174223,99,99,0,0,0,0,0
1,19999,89,10000,86,0,40,9999,0.100000,99,198,0.000000,1,0.000000,18.534421,23.242240,99,99,0,0,0,0,0
1,19999,90,10000,86,0,42,9999,0.100000,99,198,0.000000,1,7.000000,29.667428,40.714515,99,99,0,0,0,0,0
1,19999,91,10000,86,0,92,9999,0.100000,99,198,13.347029,1,6.000000,27.748666,22.416218,99,99,1,0,0,0,0
1,19999,92,10000,86,0,42,9999,0.100000,99,198,0.000000,1,4.000000,15.272317,14.488050,99,99,0,0,0,0,0
1,19999,93,10000,86,0,40,9999,0.100000,99,198,0.000000,1,0.000000,15.068465,1.642234,99,99,0,0,0,0,0
1,19999,94,10000,86,0,41,9999,0.100000,99,198,0.000000,1,3.000000,16.920850,22.431242,99,99,0,0,0,0,0
1,19999,95,10000,86,0,40,9999,0.100000,99,198,0.000000,1,0.000000,29.673500,2.275308,99,99,0,0,0,0,0
1,19999,96,10000,86,0,43,9999,0.100000,99,198,0.000000,1,5.000000,15.520437,24.119862,99,99,0,0,0,0,0
1,19999,97,10000,86,0,40,9999,0.100000,99,198,0.000000,1,2.000000,25.896599,18.014628,99,99,0,0,0,0,0
1,19999,98,10000,86,0,40,9999,0.100000,99,198,0.000000,1,0.000000,19.013075,0.151106,99,99,0,0,0,0,0
1,19999,99,10000,86,0,40,9999,0.100000,99,198,0.000000,1,1.000000,21.339716,22.869507,99,99,0,0,0,0,0
2,29999,0,20000,70,10000,0,9999,0.100000,99,297,0.042211,2,0.000000,29.753981,0.752653,99,99,0,0,1,0,0
2,29999,1,20000,70,10000,41,9999,0.100000,99,297,0.000000,2,2.000000,17.124476,9.744043,99,99,0,0,0,0,0
2,29999,2,20000,70,10000,40,9999,0.100000,99,297,0.000000,2,1.000000,32.294081,3.256709,99,99,0,0,0,0,0
2,29999,3,20000,70,10000,40,9999,0.100000,99,297,0.000000,1,1.000000,32.274267,25.891293,99,99,0,0,0,0,0
2,29999,4,20000,70,10000,40,9999,0.100000,99,297,0.000000,2,0.000000,25.286727,1.112893,99,99,0,0,0,0,0
2,29999,5,20000,70,10000,0,9999,0.100000,99,297,0.229478,1,0.000000,32.228272,0.539190,99,99,0,0,0,1,0
2,29999,6,20000,70,10000,40,9999,0.100000,99,297,0.000000,2,0.000000,34.544458,4.157863,99,99,0,0,0,0,0
2,29999,7,20000,70,10000,0,9999,0.100000,99,297,0.001843,1,0.000000,25.568534,0.121271,99,99,0,0,1,0,0
2,29999,8,20000,70,10000,1,9999,0.100000,99,297,1.166111,2,4.000000,34.954844,15.892249,99,99,0,1,0,0,0
2,29999,9,20000,70,10000,0,9999,0.100000,99,297,0.024961,2,0.000000,26.721632,0.474676,99,99,0,0,0,0,1
2,29999,10,20000,70,10000,40,9999,0.100000,99,297,0.000000,2,0.000000,26.983435,0.595861,99,99,0,0,0,0,0
2,29999,11,20000,70,10000,41,9999,0.100000,99,297,0.000000,2,5.000000,31.125612,14.597940,99,99,0,0,0,0,0
2,29999,12,20000,70,10000,0,9999,0.100000,99,297,0.409839,2,1.000000,28.054308,3.013031,99,99,0,0,0,0,1
2,29999,13,20000,70,10000,40,9999,0.100000,99,297,0.000000,2,2.000000,28.344562,16.118022,99,99,0,0,0,0,0
2,29999,14,20000,70,10000,42,9999,0.100000,99,297,0.000000,2,6.000000,28.086762,27.708047,99,99,0,0,0,0,0
2,29999,15,20000,70,10000,1,9999,0.100000,99,297,0.177917,2,3.000000,24.057601,10.514762,99,99,0,0,1,0,0
2,29999,16,20000,70,10000,40,9999,0.100000,99,297,0.000000,2,0.000000,34.747271,18.679067,99,99,0,0,0,0,0
2,29999,17,20000,70,10000,0,9999,0.100000,99,297,0.475839,1,0.000000,23.395797,0.520224,99,99,0,0,0,1,0
2,29999,18,20000,70,10000,41,9999,0.100000,99,297,0.000000,1,3.000000,23.955824,19.029709,99,99,0,0,0,0,0
2,29999,19,20000,70,10000,40,9999,0.100000,99,297,0.000000,1,0.000000,30.022795,1.048262,99,99,0,0,0,0,0
2,29999,20,20000,70,10000,40,9999,0.100000,99,297,0.000000,2,2.000000,27.452955,14.945145,99,99,0,0,0,0,0
2,29999,21,20000,70,10000,40,9999,0.100000,99,297,0.000000,1,1.000000,29.985468,3.273796,99,99,0,0,0,0,0
2,29999,22,20000,70,10000,41,9999,0.100000,99,297,0.000000,2,2.000000,15.101485,8.776450,99,99,0,0,0,0,0
2,29999,23,20000,70,10000,40,9999,0.100000,99,297,0.000000,1,2.000000,29.967258,5.924799,99,99,0,0,0,0,0
2,29999,24,20000,70,10000,40,9999,0.100000,99,297,0.000000,2,1.000000,19.300932,23.366481,99,99,0,0,0,0,0
2,29999,25,20000,70,10000,40,9999,0.100000,99,297,0.000000,2,2.000000,31.834747,6.203906,99,99,0,0,0,0,0
2,29999,26,20000,70,10000,41,9999,0.100000,99,297,0.000000,2,3.000000,28.306172,15.379427,99,99,0,0,0,0,0
2,29999,27,20000,70,10000,0,9999,0.100000,99,297,0.842070,2,1.000000,27.425879,2.399448,99,99,0,0,0,1,0
2,29999,28,20000,70,10000,40,9999,0.100000,99,297,0.000000,2,0.000000,20.657286,0.435145,99,99,0,0,0,0,0
2,29999,29,20000,70,10000,0,9999,0.100000,99,297,1.768246,1,1.000000,29.133965,5.864518,99,99,0,1,0,0,0
2,29999,30,20000,70,10000,4,9999,0.100000,99,297,46.970409,1,9.000000,19.079631,11.106139,99,99,0,0,1,0,0
2,29999,31,20000,70,10000,41,9999,0.100000,99,297,0.000000,2,3.000000,26.832774,29.848762,99,99,0,0,0,0,0
2,29999,32,20000,70,10000,41,9999,0.100000,99,297,0.000000,2,4.000000,31.148216,14.562389,99,99,0,0,0,0,0
2,29999,33,20000,70,10000,41,9999,0.100000,99,297,0.000000,2,4.000000,30.303801,21.098574,99,99,0,0,0,0,0
2,29999,34,20000,70,10000,41,9999,0.100000,99,297,0.000000,2,5.000000,28.158470,27.720234,99,99,0,0,0,0,0
2,29999,35,20000,70,10000,40,9999,0.100000,99,297,0.000000,1,2.000000,27.504743,29.430106,99,99,0,0,0,0,0
2,29999,36,20000,70,10000,40,9999,0.100000,99,297,0.000000,2,0.000000,27.111861,0.662801,99,99,0,0,0,0,0
2,29999,37,20000,70,10000,90,9999,0.100000,99,297,2.398912,1,0.000000,24.122031,2.763372,99,99,1,0,0,0,0
2,29999,38,20000,70,10000,90,9999,0.100000,99,297,0.281992,2,0.000000,34.818843,3.824663,99,99,1,0,0,0,0
2,29999,39,20000,70,10000,42,9999,0.100000,99,297,0.000000,2,5.000000,16.163426,23.186799,99,99,0,0,0,0,0
2,29999,40,20000,70,10000,40,9999,0.100000,99,297,0.000000,1,0.000000,26.599035,0.585652,99,99,0,0,0,0,0
2,29999,41,20000,70,10000,40,9999,0.100000,99,297,0.000000,2,1.000000,28.233579,21.954406,99,99,0,0,0,0,0
2,29999,42,20000,70,10000,41,9999,0.100000,99,297,0.000000,1,3.000000,24.121837,8.501104,99,99,0,0,0,0,0
2,29999,43,20000,70,10000,40,9999,0.100000,99,297,0.000000,1,1.000000,27.803576,16.804452,99,99,0,0,0,0,0
2,29999,44,20000,70,10000,0,9999,0.100000,99,297,0.003824,2,0.000000,21.609087,0.103881,99,99,0,0,0,0,1
2,29999,45,20000,70,10000,43,9999,0.100000,99,297,0.000000,1,5.000000,14.948807,12.214684,99,99,0,0,0,0,0
2,29999,46,20000,70,10000,41,9999,0.100000,99,297,0.000000,2,4.000000,32.322322,21.161001,99,99,0,0,0,0,0
2,29999,47,20000,70,10000,40,9999,0.100000,99,297,0.000000,2,3.000000,29.360594,24.080480,99,99,0,0,0,0,0
2,29999,48,20000,70,10000,90,9999,0.100000,99,297,0.435313,1,0.000000,17.666281,0.609625,99,99,1,0,0,0,0
2,29999,49,20000,70,10000,40,9999,0.100000,99,297,0.000000,1,0.000000,32.000413,0.201987,99,99,0,0,0,0,0
2,29999,50,20000,70,10000,40,9999,0.100000,99,297,0.000000,1,2.000000,27.928050,20.379868,99,99,0,0,0,0,0
2,29999,51,20000,70,10000,40,9999,0.100000,99,297,0.000000,2,1.000000,21.260011,18.715201,99,99,0,0,0,0,0
2,29999,52,20000,70,10000,41,9999,0.100000,99,297,0.000000,2,3.000000,24.931222,23.632554,99,99,0,0,0,0,0
2,29999,53,20000,70,10000,41,9999,0.100000,99,297,0.000000,2,4.000000,22.610236,24.517756,99,99,0,0,0,0,0
2,29999,54,20000,70,10000,41,9999,0.100000,99,297,0.000000,1,2.000000,17.248264,9.468075,99,99,0,0,0,0,0
2,29999,55,20000,70,10000,43,9999,0.100000,99,297,0.000000,2,10.000000,27.035101,29.238487,99,99,0,0,0,0,0
2,29999,56,20000,70,10000,40,9999,0.100000,99,297,0.000000,1,0.000000,32.234765,0.501395,99,99,0,0,0,0,0
2,29999,57,20000,70,10000,41,9999,0.100000,99,297,0.000000,2,6.000000,33.190860,23.860017,99,99,0,0,0,0,0
2,29999,58,20000,70,10000,40,9999,0.100000,99,297,0.000000,2,0.000000,25.855877,0.501393,99,99,0,0,0,0,0
2,29999,59,20000,70,10000,40,9999,0.100000,99,297,0.000000,2,0.000000,28.379783,2.762732,99,99,0,0,0,0,0
2,29999,60,20000,70,10000,40,9999,0.100000,99,297,0.000000,2,0.000000,26.839231,0.330789,99,99,0,0,0,0,0
2,29999,61,20000,70,10000,0,9999,0.100000,99,297,0.037375,1,0.000000,23.297730,0.177396,99,99,0,0,1,0,0
2,29999,62,20000,70,10000,40,9999,0.100000,99,297,0.000000,2,2.000000,28.190404,15.601152,99,99,0,0,0,0,0
2,29999,63,20000,70,10000,40,9999,0.100000,99,297,0.000000,1,0.000000,29.807670,1.239553,99,99,0,0,0,0,0
2,29999,64,20000,70,10000,41,9999,0.100000,99,297,0.000000,2,2.000000,16.980032,17.179323,99,99,0,0,0,0,0
2,29999,65,20000,70,10000,40,9999,0.100000,99,297,0.000000,2,0.000000,26.333686,1.430908,99,99,0,0,0,0,0
2,29999,66,20000,70,10000,40,9999,0.100000,99,297,0.000000,1,1.000000,24.659642,25.007760,99,99,0,0,0,0,0
2,29999,67,20000,70,10000,40,9999,0.100000,99,297,0.000000,1,1.000000,16.421681,5.024361,99,99,0,0,0,0,0
2,29999,68,20000,70,10000,40,9999,0.100000,99,297,0.000000,2,0.000000,21.755612,0.100965,99,99,0,0,0,0,0
2,29999,69,20000,70,10000,40,9999,0.100000,99,297,0.000000,1,1.000000,30.001444,5.269332,99,99,0,0,0,0,0
2,29999,70,20000,84,10000,40,9999,0.100000,99,297,0.000000,2,2.000000,30.709986,12.342470,99,99,0,0,0,0,0
2,29999,71,20000,70,10000,40,9999,0.100000,99,297,0.000000,1,0.000000,22.418505,16.771511,99,99,0,0,0,0,0
2,29999,72,20000,70,10000,40,9999,0.100000,99,297,0.000000,1,2.000000,27.244979,20.533923,99,99,0,0,0,0,0
2,29999,73,20000,70,10000,40,9999,0.100000,99,297,0.000000,1,0.000000,31.616464,0.946186,99,99,0,0,0,0,0
2,29999,74,20000,70,10000,41,9999,0.100000,99,297,0.000000,2,3.000000,26.302860,17.701209,99,99,0,0,0,0,0
2,29999,75,20000,70,10000,41,9999,0.100000,99,297,0.000000,2,3.000000,27.976571,21.558806,99,99,0,0,0,0,0
2,29999,76,20000,70,10000,41,9999,0.100000,99,297,0.000000,2,2.000000,18.446983,11.158052,99,99,0,0,0,0,0
2,29999,77,20000,70,10000,40,9999,0.100000,99,297,0.000000,1,0.000000,22.738629,0.192350,99,99,0,0,0,0,0
2,29999,78,20000,70,10000,0,9999,0.100000,99,297,1.057282,1,0.000000,16.031316,1.275084,99,99,0,0,0,1,0
2,29999,79,20000,70,10000,41,9999,0.100000,99,297,0.000000,2,5.000000,32.527290,23.045029,99,99,0,0,0,0,0
2,29999,80,20000,70,10000,41,9999,0.100000,99,297,0.000000,2,4.000000,36.086104,12.008639,99,99,0,0,0,0,0
2,29999,81,20000,70,10000,40,9999,0.100000,99,297,0.000000,2,0.000000,23.434951,1.691632,99,99,0,0,0,0,0
2,29999,82,20000,70,10000,43,9999,0.100000,99,297,0.000000,2,9.000000,28.489100,12.236773,99,99,0,0,0,0,0
2,29999,83,20000,70,10000,42,9999,0.100000,99,297,0.000000,1,7.000000,29.983804,27.422334,99,99,0,0,0,0,0
2,29999,84,20000,70,10000,41,9999,0.100000,99,297,0.000000,2,5.000000,29.346513,28.335529,99,99,0,0,0,0,0
2,29999,85,20000,70,10000,42,9999,0.100000,99,297,0.000000,2,4.000000,18.818801,19.600737,99,99,0,0,0,0,0
2,29999,86,20000,70,10000,0,9999,0.100000,99,297,0.006662,2,2.000000,28.748931,16.571217,99,99,0,0,0,0,1
2,29999,87,20000,70,10000,40,9999,0.100000,99,297,0.000000,1,0.000000,25.175394,0.112666,99,99,0,0,0,0,0
2,29999,88,20000,70,10000,40,9999,0.100000,99,297,0.000000,1,0.000000,31.527610,0.181521,99,99,0,0,0,0,0
2,29999,89,20000,70,10000,40,9999,0.100000,99,297,0.000000,1,1.000000,17.888807,20.710146,99,99,0,0,0,0,0
2,29999,90,20000,70,10000,40,9999,0.100000,99,297,0.000000,2,3.000000,28.980978,22.222705,99,99,0,0,0,0,0
2,29999,91,20000,70,10000,40,9999,0.100000,99,297,0.000000,2,2.000000,27.698138,10.662781,99,99,0,0,0,0,0
2,29999,92,20000,70,10000,0,9999,0.100000,99,297,0.066293,2,0.000000,14.942676,2.874674,99,99,0,0,0,1,0
2,29999,93,20000,70,10000,40,9999,0.100000,99,297,0.000000,2,0.000000,15.390202,1.135197,99,99,0,0,0,0,0
2,29999,94,20000,70,10000,4,9999,0.100000,99,297,46.974832,2,9.000000,18.328244,19.036519,99,99,0,0,1,0,0
2,29999,95,20000,70,10000,40,9999,0.100000,99,297,0.000000,1,0.000000,29.715460,0.564738,99,99,0,0,0,0,0
2,29999,96,20000,70,10000,40,9999,0.100000,99,297,0.000000,2,1.000000,16.687559,20.937746,99,99,0,0,0,0,0
2,29999,97,20000,70,10000,40,9999,0.100000,99,297,0.000000,2,1.000000,23.935003,16.200846,99,99,0,0,0,0,0
2,29999,98,20000,70,10000,4,9999,0.100000,99,297,46.970409,1,9.000000,19.016841,11.610746,99,99,0,0,1,0,0
2,29999,99,20000,70,10000,40,9999,0.100000,99,297,0.000000,1,1.000000,20.722736,6.935042,99,99,0,0,0,0,0
3,39999,0,30000,94,20000,0,9999,0.100000,99,396,3.227143,3,0.000000,29.786348,0.646529,99,99,0,0,1,0,0
3,39999,1,30000,94,20000,1,9999,0.100000,99,396,0.047610,3,2.000000,15.962060,3.653701,99,99,0,0,0,1,0
3,39999,2,30000,94,20000,40,9999,0.100000,99,396,0.000000,2,0.000000,32.811893,0.829783,99,99,0,0,0,0,0
3,39999,3,30000,94,20000,40,9999,0.100000,99,396,0.000000,1,2.000000,31.219994,23.686058,99,99,0,0,0,0,0
3,39999,4,30000,94,20000,40,9999,0.135000,99,396,0.000000,2,0.000000,24.860259,2.815347,99,99,0,0,0,0,0
3,39999,5,30000,94,20000,0,9999,0.100000,99,396,0.229743,1,0.000000,32.170693,0.742677,99,99,0,0,0,1,0
3,39999,6,30000,94,20000,41,9999,0.100000,99,396,0.000000,2,4.000000,35.085883,14.428354,99,99,0,0,0,0,0
3,39999,7,30000,94,20000,0,9999,0.100000,99,396,0.000459,1,0.000000,25.572136,0.120374,99,99,0,0,1,0,0
3,39999,8,30000,94,20000,0,9999,0.100000,99,396,0.004326,3,0.000000,31.265151,0.481106,99,99,0,1,0,0,0
3,39999,9,30000,94,20000,0,9999,0.100000,99,396,0.034788,2,0.000000,26.857180,0.295255,99,99,0,0,0,0,1
3,39999,10,30000,94,20000,40,9999,0.100000,99,396,0.000000,3,0.000000,27.061345,0.162154,99,99,0,0,0,0,0
3,39999,11,30000,94,20000,40,9999,0.100000,99,396,0.000000,3,1.000000,29.443922,22.451250,99,99,0,0,0,0,0
3,39999,12,30000,94,20000,0,9999,0.100000,99,396,0.204026,3,0.000000,29.505595,0.899318,99,99,0,0,0,0,1
3,39999,13,30000,94,20000,91,9999,0.100000,99,396,29.917761,3,4.000000,26.713790,33.014353,99,99,1,0,0,0,0
3,39999,14,30000,94,20000,40,9999,0.100000,99,396,0.000000,3,2.000000,21.903743,16.827425,99,99,0,0,0,0,0
3,39999,15,30000,94,20000,40,9999,0.100000,99,396,0.000000,3,1.000000,20.338734,1.503283,99,99,0,0,0,0,0
3,39999,16,30000,94,20000,92,9999,0.100000,99,396,18.782946,2,9.000000,34.450704,34.204797,99,99,1,0,0,0,0
3,39999,17,30000,94,20000,0,9999,0.100000,99,396,0.358860,1,0.000000,23.468231,0.664673,99,99,0,0,0,1,0
3,39999,18,30000,94,20000,95,9999,0.100000,99,396,44.627091,2,14.000000,25.735363,30.870823,99,99,1,0,0,0,0
3,39999,19,30000,94,20000,40,9999,0.100000,99,396,0.000000,1,0.000000,30.052496,0.747978,99,99,0,0,0,0,0
3,39999,20,30000,94,20000,40,9999,0.100000,99,396,0.000000,2,0.000000,29.636645,1.618895,99,99,0,0,0,0,0
3,39999,21,30000,94,20000,40,9999,0.100000,99,396,0.000000,1,0.000000,31.143041,0.351240,99,99,0,0,0,0,0
3,39999,22,30000,94,20000,40,9999,0.100000,99,396,0.000000,2,1.000000,15.633689,1.745636,99,99,0,0,0,0,0
3,39999,23,30000,94,20000,40,9999,0.100000,99,396,0.000000,1,0.000000,29.800725,3.314262,99,99,0,0,0,0,0
3,39999,24,30000,94,20000,40,9999,0.100000,99,396,0.000000,2,1.000000,19.568171,17.389517,99,99,0,0,0,0,0
3,39999,25,30000,94,20000,40,9999,0.100000,99,396,0.000000,3,0.000000,34.137836,1.071871,99,99,0,0,0,0,0
3,39999,26,30000,94,20000,40,9999,0.100000,99,396,0.000000,3,0.000000,25.851788,6.811138,99,99,0,0,0,0,0
3,39999,27,30000,94,20000,40,9999,0.100000,99,396,0.000000,3,0.000000,26.503144,0.747479,99,99,0,0,0,0,0
3,39999,28,30000,94,20000,0,9999,0.100000,99,396,0.243197,3,1.000000,20.382325,1.540042,99,99,0,0,1,0,0
3,39999,29,30000,94,20000,2,9999,0.100000,99,396,33.114159,2,7.000000,30.656664,23.097176,99,99,0,1,0,0,0
3,39999,30,30000,94,20000,41,9999,0.100000,99,396,0.000000,2,4.000000,27.873840,14.419937,99,99,0,0,0,0,0
3,39999,31,30000,94,20000,42,9999,0.100000,99,396,0.000000,2,8.000000,27.695420,23.796954,99,99,0,0,0,0,0
3,39999,32,30000,94,20000,41,9999,0.100000,99,396,0.000000,2,4.000000,29.506952,24.872274,99,99,0,0,0,0,0
3,39999,33,30000,94,20000,41,9999,0.100000,99,396,0.000000,2,4.000000,28.386779,25.607721,99,99,0,0,0,0,0
3,39999,34,30000,94,20000,41,9999,0.100000,99,396,0.000000,3,4.000000,27.406780,5.794825,99,99,0,0,0,0,0
3,39999,35,30000,94,20000,43,9999,0.100000,99,396,0.000000,1,8.000000,25.300630,27.949659,99,99,0,0,0,0,0
3,39999,36,30000,94,20000,40,9999,0.100000,99,396,0.000000,2,0.000000,27.163416,0.116246,99,99,0,0,0,0,0
3,39999,37,30000,94,20000,90,9999,0.100000,99,396,0.561093,1,0.000000,24.523715,2.689081,99,99,1,0,0,0,0
3,39999,38,30000,94,20000,40,9999,0.100000,99,396,0.000000,3,2.000000,34.153946,20.101551,99,99,0,0,0,0,0
3,39999,39,30000,94,20000,40,9999,0.100000,99,396,0.000000,3,0.000000,14.256451,0.562514,99,99,0,0,0,0,0
3,39999,40,30000,94,20000,40,9999,0.100000,99,396,0.000000,1,0.000000,26.760310,0.088702,99,99,0,0,0,0,0
3,39999,41,30000,94,20000,40,9999,0.100000,99,396,0.000000,2,0.000000,28.942400,5.440934,99,99,0,0,0,0,0
3,39999,42,30000,94,20000,40,9999,0.100000,99,396,0.000000,2,0.000000,26.550335,4.679157,99,99,0,0,0,0,0
3,39999,43,30000,94,20000,41,9999,0.100000,99,396,0.000000,1,5.000000,27.141243,19.052029,99,99,0,0,0,0,0
3,39999,44,30000,94,20000,0,9999,0.100000,99,396,0.478145,3,0.000000,21.614362,0.525082,99,99,0,0,0,0,1
3,39999,45,30000,94,20000,95,9999,0.100000,99,396,61.459612,2,11.000000,17.865594,28.839746,99,99,1,0,0,0,0
3,39999,46,30000,94,20000,2,9999,0.100000,99,396,33.004896,2,7.000000,30.470555,24.522810,99,99,0,1,0,0,0
3,39999,47,30000,94,20000,40,9999,0.100000,99,396,0.000000,2,0.000000,27.032199,20.072575,99,99,0,0,0,0,0
3,39999,48,30000,94,20000,90,9999,0.100000,99,396,0.479864,1,0.000000,17.736229,0.563393,99,99,1,0,0,0,0
3,39999,49,30000,94,20000,40,9999,0.100000,99,396,0.000000,1,0.000000,31.943910,0.192284,99,99,0,0,0,0,0
3,39999,50,30000,94,20000,41,9999,0.100000,99,396,0.000000,1,4.000000,28.080695,26.797790,99,99,0,0,0,0,0
3,39999,51,30000,94,20000,40,9999,0.100000,99,396,0.000000,2,1.000000,20.514676,8.599152,99,99,0,0,0,0,0
3,39999,52,30000,94,20000,41,9999,0.100000,99,396,0.000000,2,3.000000,22.022643,22.920852,99,99,0,0,0,0,0
3,39999,53,30000,94,20000,42,9999,0.100000,99,396,0.000000,2,4.000000,18.454630,22.498512,99,99,0,0,0,0,0
3,39999,54,30000,94,20000,40,9999,0.100000,99,396,0.000000,2,0.000000,15.164686,3.298608,99,99,0,0,0,0,0
3,39999,55,30000,94,20000,41,9999,0.100000,99,396,0.000000,3,4.000000,34.728653,18.303083,99,99,0,0,0,0,0
3,39999,56,30000,94,20000,40,9999,0.100000,99,396,0.000000,1,0.000000,32.074990,0.880200,99,99,0,0,0,0,0
3,39999,57,30000,94,20000,40,9999,0.100000,99,396,0.000000,3,3.000000,30.400989,19.223331,99,99,0,0,0,0,0
3,39999,58,30000,94,20000,0,9999,0.100000,99,396,1.184530,3,0.000000,25.819326,0.338920,99,99,0,0,0,1,0
3,39999,59,30000,94,20000,42,9999,0.100000,99,396,0.000000,2,8.000000,28.281078,9.276910,99,99,0,0,0,0,0
3,39999,60,30000,94,20000,40,9999,0.065000,99,396,0.000000,2,0.000000,26.948171,1.203137,99,99,0,0,0,0,0
3,39999,61,30000,94,20000,0,9999,0.100000,99,396,0.032006,1,0.000000,23.301467,0.173120,99,99,0,0,1,0,0
3,39999,62,30000,94,20000,40,9999,0.100000,99,396,0.000000,2,0.000000,26.287069,0.642599,99,99,0,0,0,0,0
3,39999,63,30000,94,20000,40,9999,0.100000,99,396,0.000000,1,0.000000,29.668525,0.819499,99,99,0,0,0,0,0
3,39999,64,30000,94,20000,40,9999,0.100000,99,396,0.000000,3,0.000000,15.228820,0.569047,99,99,0,0,0,0,0
3,39999,65,30000,94,20000,40,9999,0.100000,99,396,0.000000,2,0.000000,25.857315,0.484786,99,99,0,0,0,0,0
3,39999,66,30000,94,20000,40,9999,0.100000,99,396,0.000000,1,1.000000,25.223958,23.882959,99,99,0,0,0,0,0
3,39999,67,30000,94,20000,41,9999,0.100000,99,396,0.000000,1,2.000000,16.086077,2.974688,99,99,0,0,0,0,0
3,39999,68,30000,94,20000,40,9999,0.135000,99,396,0.000000,2,0.000000,21.749247,0.363706,99,99,0,0,0,0,0
3,39999,69,30000,94,20000,40,9999,0.100000,99,396,0.000000,1,0.000000,30.302582,2.389457,99,99,0,0,0,0,0
3,39999,70,30000,94,20000,40,9999,0.100000,99,396,0.000000,3,1.000000,29.328482,19.360939,99,99,0,0,0,0,0
3,39999,71,30000,94,20000,40,9999,0.100000,99,396,0.000000,1,0.000000,22.596859,17.607540,99,99,0,0,0,0,0
3,39999,72,30000,94,20000,40,9999,0.100000,99,396,0.000000,1,3.000000,29.037912,19.480726,99,99,0,0,0,0,0
3,39999,73,30000,94,20000,40,9999,0.100000,99,396,0.000000,1,0.000000,31.912279,0.897701,99,99,0,0,0,0,0
3,39999,74,30000,94,20000,40,9999,0.100000,99,396,0.000000,2,1.000000,25.116818,13.461948,99,99,0,0,0,0,0
3,39999,75,30000,94,20000,41,9999,0.100000,99,396,0.000000,2,5.000000,28.877592,28.100918,99,99,0,0,0,0,0
3,39999,76,30000,94,20000,40,9999,0.100000,99,396,0.000000,3,1.000000,20.437803,1.754799,99,99,0,0,0,0,0
3,39999,77,30000,94,20000,40,9999,0.100000,99,396,0.000000,1,0.000000,22.743673,0.188764,99,99,0,0,0,0,0
3,39999,78,30000,94,20000,41,9999,0.100000,99,396,0.000000,2,2.000000,16.274583,2.862440,99,99,0,0,0,0,0
3,39999,79,30000,94,20000,41,9999,0.100000,99,396,0.000000,2,5.000000,27.938451,19.239590,99,99,0,0,0,0,0
3,39999,80,30000,94,20000,40,9999,0.100000,99,396,0.000000,3,0.000000,32.282791,2.257542,99,99,0,0,0,0,0
3,39999,81,30000,94,20000,40,9999,0.100000,99,396,0.000000,2,0.000000,23.201887,0.237199,99,99,0,0,0,0,0
3,39999,82,30000,94,20000,40,9999,0.100000,99,396,0.000000,3,0.000000,21.448044,0.244277,99,99,0,0,0,0,0
3,39999,83,30000,94,20000,40,9999,0.100000,99,396,0.000000,2,2.000000,23.996316,18.175454,99,99,0,0,0,0,0
3,39999,84,30000,94,20000,41,9999,0.100000,99,396,0.000000,3,3.000000,28.135978,24.300131,99,99,0,0,0,0,0
3,39999,85,30000,94,20000,40,9999,0.100000,99,396,0.000000,2,0.000000,20.839123,8.449593,99,99,0,0,0,0,0
3,39999,86,30000,94,20000,0,9999,0.100000,99,396,0.002739,3,0.000000,28.810571,0.149195,99,99,0,0,0,0,1
3,39999,87,30000,94,20000,40,9999,0.100000,99,396,0.000000,1,0.000000,25.179703,0.111588,99,99,0,0,0,0,0
3,39999,88,30000,94,20000,40,9999,0.100000,99,396,0.000000,1,0.000000,31.470571,0.301685,99,99,0,0,0,0,0
3,39999,89,30000,94,20000,43,9999,0.100000,99,396,0.000000,1,8.000000,19.178784,27.714891,99,99,0,0,0,0,0
3,39999,90,30000,94,20000,40,9999,0.100000,99,396,0.000000,3,0.000000,26.061698,0.402523,99,99,0,0,0,0,0
3,39999,91,30000,94,20000,40,9999,0.100000,99,396,0.000000,2,0.000000,26.147047,1.378668,99,99,0,0,0,0,0
3,39999,92,30000,94,20000,40,9999,0.100000,99,396,0.000000,3,0.000000,14.595147,0.618174,99,99,0,0,0,0,0
3,39999,93,30000,94,20000,40,9999,0.100000,99,396,0.000000,2,0.000000,15.116175,0.461889,99,99,0,0,0,0,0
3,39999,94,30000,30,20000,40,9999,0.100000,99,396,0.000000,3,2.000000,27.895086,8.095904,99,99,0,0,0,0,0
3,39999,95,30000,94,20000,40,9999,0.100000,99,396,0.000000,1,0.000000,29.653167,0.112878,99,99,0,0,0,0,0
3,39999,96,30000,94,20000,40,9999,0.100000,99,396,0.000000,2,0.000000,17.795509,17.587609,99,99,0,0,0,0,0
3,39999,97,30000,94,20000,42,9999,0.100000,99,396,0.000000,2,6.000000,24.958505,23.405611,99,99,0,0,0,0,0
3,39999,98,30000,94,20000,41,9999,0.100000,99,396,0.000000,2,3.000000,26.800980,30.810160,99,99,0,0,0,0,0
3,39999,99,30000,94,20000,40,9999,0.100000,99,396,0.000000,1,0.000000,20.429337,3.066983,99,99,0,0,0,0,0
4,49999,0,40000,45,30000,0,9999,0.100000,99,495,4.127323,3,0.000000,29.924578,0.909774,99,99,0,0,1,0,0
4,49999,1,40000,45,30000,0,9999,0.100000,99,495,0.027564,4,0.000000,17.329700,0.159259,99,99,0,0,0,1,0
4,49999,2,40000,45,30000,40,9999,0.100000,99,495,0.000000,2,0.000000,33.058502,0.788682,99,99,0,0,0,0,0
4,49999,3,40000,45,30000,40,9999,0.100000,99,495,0.000000,1,1.000000,33.624515,18.582954,99,99,0,0,0,0,0
4,49999,4,40000,45,30000,40,9999,0.100000,99,495,0.000000,2,1.000000,24.382420,3.059449,99,99,0,0,0,0,0
4,49999,5,40000,45,30000,0,9999,0.100000,99,495,0.204423,1,0.000000,32.159171,0.792359,99,99,0,0,0,1,0
4,49999,6,40000,45,30000,41,9999,0.100000,99,495,0.000000,3,5.000000,31.487727,21.249619,99,99,0,0,0,0,0
4,49999,7,40000,45,30000,0,9999,0.100000,99,495,0.001097,1,0.000000,25.575905,0.120815,99,99,0,0,1,0,0
4,49999,8,40000,45,30000,0,9999,0.100000,99,495,0.245088,3,0.000000,31.272397,0.520773,99,99,0,1,0,0,0
4,49999,9,40000,45,30000,40,9999,0.100000,99,495,0.000000,2,0.000000,26.868493,0.289103,99,99,0,0,0,0,0
4,49999,10,40000,45,30000,0,9999,0.100000,99,495,0.013298,3,0.000000,27.074290,0.161854,99,99,0,0,0,0,1
4,49999,11,40000,45,30000,40,9999,0.100000,99,495,0.000000,3,2.000000,29.587760,19.429253,99,99,0,0,0,0,0
4,49999,12,40000,45,30000,0,9999,0.100000,99,495,0.071788,3,0.000000,29.464533,0.869684,99,99,0,0,0,0,1
4,49999,13,40000,45,30000,41,9999,0.100000,99,495,0.000000,4,4.000000,26.253868,18.393583,99,99,0,0,0,0,0
4,49999,14,40000,45,30000,40,9999,0.100000,99,495,0.000000,4,2.000000,19.874118,13.098628,99,99,0,0,0,0,0
4,49999,15,40000,45,30000,40,9999,0.100000,99,495,0.000000,3,1.000000,18.986983,1.375952,99,99,0,0,0,0,0
4,49999,16,40000,45,30000,41,9999,0.100000,99,495,0.000000,3,5.000000,30.728208,20.142099,99,99,0,0,0,0,0
4,49999,17,40000,45,30000,0,9999,0.100000,99,495,0.001789,1,0.000000,23.446894,0.418294,99,99,0,0,0,1,0
4,49999,18,40000,45,30000,40,9999,0.100000,99,495,0.000000,3,2.000000,33.164339,20.849935,99,99,0,0,0,0,0
4,49999,19,40000,45,30000,40,9999,0.100000,99,495,0.000000,1,0.000000,30.174468,0.995081,99,99,0,0,0,0,0
4,49999,20,40000,45,30000,40,9999,0.100000,99,495,0.000000,2,0.000000,29.520228,0.106088,99,99,0,0,0,0,0
4,49999,21,40000,45,30000,40,9999,0.100000,99,495,0.000000,1,0.000000,31.137953,0.404598,99,99,0,0,0,0,0
4,49999,22,40000,45,30000,40,9999,0.100000,99,495,0.000000,3,0.000000,14.739555,0.728675,99,99,0,0,0,0,0
4,49999,23,40000,45,30000,40,9999,0.100000,99,495,0.000000,1,0.000000,29.802118,3.062773,99,99,0,0,0,0,0
4,49999,24,40000,45,30000,41,9999,0.100000,99,495,0.000000,2,4.000000,20.287475,17.675499,99,99,0,0,0,0,0
4,49999,25,40000,45,30000,40,9999,0.100000,99,495,0.000000,3,3.000000,34.611904,6.548562,99,99,0,0,0,0,0
4,49999,26,40000,45,30000,41,9999,0.100000,99,495,0.000000,3,3.000000,26.815464,6.464000,99,99,0,0,0,0,0
4,49999,27,40000,45,30000,40,9999,0.100000,99,495,0.000000,4,1.000000,26.527631,1.409326,99,99,0,0,0,0,0
4,49999,28,40000,45,30000,0,9999,0.100000,99,495,0.000391,3,1.000000,19.009591,1.408540,99,99,0,0,1,0,0
4,49999,29,40000,45,30000,40,9999,0.100000,99,495,0.000000,3,3.000000,31.789158,19.409391,99,99,0,0,0,0,0
4,49999,30,40000,45,30000,41,9999,0.100000,99,495,0.000000,3,4.000000,25.359815,15.310846,99,99,0,0,0,0,0
4,49999,31,40000,45,30000,40,9999,0.100000,99,495,0.000000,3,0.000000,20.375991,2.381640,99,99,0,0,0,0,0
4,49999,32,40000,45,30000,43,9999,0.100000,99,495,0.000000,2,9.000000,27.765098,22.248587,99,99,0,0,0,0,0
4,49999,33,40000,45,30000,41,9999,0.100000,99,495,0.000000,2,3.000000,27.075390,21.759701,99,99,0,0,0,0,0
4,49999,34,40000,45,30000,40,9999,0.100000,99,495,0.000000,3,0.000000,22.998134,1.031787,99,99,0,0,0,0,0
4,49999,35,40000,45,30000,43,9999,0.100000,99,495,0.000000,2,6.000000,17.242008,20.379305,99,99,0,0,0,0,0
4,49999,36,40000,45,30000,40,9999,0.100000,99,495,0.000000,2,0.000000,27.178816,0.278696,99,99,0,0,0,0,0
4,49999,37,40000,45,30000,93,9999,0.100000,99,495,52.156474,1,10.000000,24.499657,14.229277,99,99,1,0,0,0,0
4,49999,38,40000,45,30000,42,9999,0.100000,99,495,0.000000,4,8.000000,34.010304,24.957903,99,99,0,0,0,0,0
4,49999,39,40000,45,30000,40,9999,0.100000,99,495,0.000000,3,0.000000,14.200924,0.671504,99,99,0,0,0,0,0
4,49999,40,40000,45,30000,40,9999,0.100000,99,495,0.000000,1,0.000000,26.769390,0.118578,99,99,0,0,0,0,0
4,49999,41,40000,45,30000,40,9999,0.100000,99,495,0.000000,2,0.000000,29.620263,1.476888,99,99,0,0,0,0,0
4,49999,42,40000,45,30000,40,9999,0.100000,99,495,0.000000,3,1.000000,26.222614,9.924842,99,99,0,0,0,0,0
4,49999,43,40000,45,30000,90,9999,0.100000,99,495,1.342401,2,0.000000,29.473121,1.390126,99,99,1,0,0,0,0
4,49999,44,40000,45,30000,46,9999,0.100000,99,495,0.000000,3,15.000000,21.664348,17.687890,99,99,0,0,0,0,0
4,49999,45,40000,18,30000,43,9999,0.100000,99,495,0.000000,3,8.000000,23.527434,19.486415,99,99,0,0,0,0,0
4,49999,46,40000,45,30000,42,9999,0.100000,99,495,0.000000,3,7.000000,32.164579,21.072073,99,99,0,0,0,0,0
4,49999,47,40000,45,30000,40,9999,0.100000,99,495,0.000000,2,1.000000,26.602656,1.831905,99,99,0,0,0,0,0
4,49999,48,40000,45,30000,90,9999,0.100000,99,495,0.478745,1,0.000000,17.814697,0.591171,99,99,1,0,0,0,0
4,49999,49,40000,45,30000,40,9999,0.100000,99,495,0.000000,1,0.000000,31.939351,0.193352,99,99,0,0,0,0,0
4,49999,50,40000,45,30000,41,9999,0.100000,99,495,0.000000,2,3.000000,23.791292,17.152481,99,99,0,0,0,0,0
4,49999,51,40000,45,30000,40,9999,0.100000,99,495,0.000000,2,0.000000,20.555766,1.901183,99,99,0,0,0,0,0
4,49999,52,40000,45,30000,41,9999,0.100000,99,495,0.000000,2,5.000000,24.080136,23.029440,99,99,0,0,0,0,0
4,49999,53,40000,45,30000,41,9999,0.100000,99,495,0.000000,3,4.000000,21.082540,14.629097,99,99,0,0,0,0,0
4,49999,54,40000,45,30000,40,9999,0.100000,99,495,0.000000,2,0.000000,15.135450,3.377448,99,99,0,0,0,0,0
4,49999,55,40000,45,30000,40,9999,0.100000,99,495,0.000000,3,0.000000,30.943033,1.353455,99,99,0,0,0,0,0
4,49999,56,40000,45,30000,40,9999,0.100000,99,495,0.000000,1,2.000000,31.908133,3.492853,99,99,0,0,0,0,0
4,49999,57,40000,45,30000,40,9999,0.100000,99,495,0.000000,4,1.000000,28.766857,21.915959,99,99,0,0,0,0,0
4,49999,58,40000,45,30000,0,9999,0.100000,99,495,3.811782,3,0.000000,25.838019,0.981300,99,99,0,0,0,1,0
4,49999,59,40000,45,30000,40,9999,0.100000,99,495,0.000000,3,0.000000,21.807727,0.231783,99,99,0,0,0,0,0
4,49999,60,40000,45,30000,40,9999,0.100000,99,495,0.000000,2,0.000000,26.911398,0.583744,99,99,0,0,0,0,0
4,49999,61,40000,45,30000,0,9999,0.100000,99,495,0.206426,1,0.000000,23.304296,0.227139,99,99,0,0,1,0,0
4,49999,62,40000,45,30000,40,9999,0.100000,99,495,0.000000,2,1.000000,26.338641,1.333619,99,99,0,0,0,0,0
4,49999,63,40000,45,30000,40,9999,0.100000,99,495,0.000000,1,0.000000,29.774629,1.089598,99,99,0,0,0,0,0
4,49999,64,40000,45,30000,40,9999,0.100000,99,495,0.000000,3,0.000000,14.969595,2.852635,99,99,0,0,0,0,0
4,49999,65,40000,45,30000,42,9999,0.100000,99,495,0.000000,2,7.000000,25.747621,8.420553,99,99,0,0,0,0,0
4,49999,66,40000,45,30000,42,9999,0.100000,99,495,0.000000,1,6.000000,25.073488,34.769205,99,99,0,0,0,0,0
4,49999,67,40000,45,30000,40,9999,0.100000,99,495,0.000000,2,0.000000,16.973021,0.128151,99,99,0,0,0,0,0
4,49999,68,40000,45,30000,0,9999,0.100000,99,495,0.130016,2,0.000000,21.808836,0.142667,99,99,0,0,0,0,1
4,49999,69,40000,45,30000,40,9999,0.100000,99,495,0.000000,1,0.000000,30.348517,4.999850,99,99,0,0,0,0,0
4,49999,70,40000,45,30000,42,9999,0.100000,99,495,0.000000,3,7.000000,29.331653,20.211168,99,99,0,0,0,0,0
4,49999,71,40000,45,30000,40,9999,0.100000,99,495,0.000000,1,0.000000,22.420471,10.868296,99,99,0,0,0,0,0
4,49999,72,40000,45,30000,42,9999,0.100000,99,495,0.000000,1,8.000000,30.285065,20.444433,99,99,0,0,0,0,0
4,49999,73,40000,45,30000,41,9999,0.100000,99,495,0.000000,1,5.000000,32.201801,13.225960,99,99,0,0,0,0,0
4,49999,74,40000,45,30000,41,9999,0.100000,99,495,0.000000,3,5.000000,24.508645,20.912187,99,99,0,0,0,0,0
4,49999,75,40000,45,30000,41,9999,0.100000,99,495,0.000000,3,5.000000,26.986858,19.924016,99,99,0,0,0,0,0
4,49999,76,40000,45,30000,40,9999,0.100000,99,495,0.000000,3,1.000000,19.059885,1.644435,99,99,0,0,0,0,0
4,49999,77,40000,45,30000,40,9999,0.100000,99,495,0.000000,1,0.000000,22.747594,0.325393,99,99,0,0,0,0,0
4,49999,78,40000,45,30000,40,9999,0.100000,99,495,0.000000,3,0.000000,17.090815,0.107440,99,99,0,0,0,0,0
4,49999,79,40000,45,30000,40,9999,0.100000,99,495,0.000000,2,1.000000,24.848980,13.627055,99,99,0,0,0,0,0
4,49999,80,40000,45,30000,40,9999,0.100000,99,495,0.000000,3,0.000000,32.274316,2.255028,99,99,0,0,0,0,0
4,49999,81,40000,45,30000,40,9999,0.100000,99,495,0.000000,2,0.000000,23.157470,0.223775,99,99,0,0,0,0,0
4,49999,82,40000,45,30000,40,9999,0.100000,99,495,0.000000,3,0.000000,21.450629,0.231210,99,99,0,0,0,0,0
4,49999,83,40000,45,30000,41,9999,0.100000,99,495,0.000000,2,5.000000,24.709723,19.683118,99,99,0,0,0,0,0
4,49999,84,40000,45,30000,42,9999,0.100000,99,495,0.000000,3,6.000000,28.132830,17.686903,99,99,0,0,0,0,0
4,49999,85,40000,45,30000,46,9999,0.100000,99,495,0.000000,3,14.000000,21.597216,15.947086,99,99,0,0,0,0,0
4,49999,86,40000,45,30000,0,9999,0.100000,99,495,0.161534,3,0.000000,28.811539,0.170160,99,99,0,0,0,0,1
4,49999,87,40000,45,30000,40,9999,0.100000,99,495,0.000000,1,0.000000,25.184079,0.111075,99,99,0,0,0,0,0
4,49999,88,40000,45,30000,40,9999,0.100000,99,495,0.000000,1,0.000000,31.475505,0.334890,99,99,0,0,0,0,0
4,49999,89,40000,45,30000,41,9999,0.100000,99,495,0.000000,2,2.000000,13.359067,2.790152,99,99,0,0,0,0,0
4,49999,90,40000,45,30000,40,9999,0.100000,99,495,0.000000,4,1.000000,26.101697,1.080883,99,99,0,0,0,0,0
4,49999,91,40000,45,30000,41,9999,0.100000,99,495,0.000000,2,4.000000,25.525756,7.611479,99,99,0,0,0,0,0
4,49999,92,40000,45,30000,40,9999,0.100000,99,495,0.000000,4,0.000000,14.543404,0.687905,99,99,0,0,0,0,0
4,49999,93,40000,45,30000,40,9999,0.100000,99,495,0.000000,2,0.000000,14.930141,1.295639,99,99,0,0,0,0,0
4,49999,94,40000,45,30000,41,9999,0.100000,99,495,0.000000,4,4.000000,25.616907,8.022472,99,99,0,0,0,0,0
4,49999,95,40000,45,30000,40,9999,0.100000,99,495,0.000000,1,0.000000,29.624956,0.095612,99,99,0,0,0,0,0
4,49999,96,40000,45,30000,40,9999,0.100000,99,495,0.000000,2,0.000000,17.378531,14.247416,99,99,0,0,0,0,0
4,49999,97,40000,45,30000,42,9999,0.100000,99,495,0.000000,3,6.000000,25.449832,20.931328,99,99,0,0,0,0,0
4,49999,98,40000,45,30000,42,9999,0.100000,99,495,0.000000,3,7.000000,27.741096,15.307347,99,99,0,0,0,0,0
4,49999,99,40000,45,30000,40,9999,0.100000,99,495,0.000000,1,1.000000,21.030151,4.674230,99,99,0,0,0,0,0
5,59999,0,50000,37,40000,0,9999,0.100000,99,594,1.716278,3,0.000000,30.190393,0.510775,99,99,0,0,1,0,0
5,59999,1,50000,37,40000,0,9999,0.100000,99,594,0.008380,4,0.000000,17.330268,0.150435,99,99,0,0,0,1,0
5,59999,2,50000,37,40000,40,9999,0.100000,99,594,0.000000,2,0.000000,33.316351,1.251545,99,99,0,0,0,0,0
5,59999,3,50000,37,40000,40,9999,0.100000,99,594,0.000000,1,3.000000,33.956039,17.273837,99,99,0,0,0,0,0
5,59999,4,50000,37,40000,40,9999,0.100000,99,594,0.000000,2,0.000000,23.280103,0.247834,99,99,0,0,0,0,0
5,59999,5,50000,37,40000,0,9999,0.100000,99,594,0.063498,1,0.000000,32.176051,0.753557,99,99,0,0,0,1,0
5,59999,6,50000,37,40000,40,9999,0.100000,99,594,0.000000,3,1.000000,36.663877,3.024719,99,99,0,0,0,0,0
5,59999,7,50000,37,40000,0,9999,0.100000,99,594,0.438153,1,0.000000,25.579408,0.198687,99,99,0,0,1,0,0
5,59999,8,50000,37,40000,0,9999,0.100000,99,594,0.256130,3,0.000000,31.289375,0.519026,99,99,0,1,0,0,0
5,59999,9,50000,37,40000,0,9999,0.100000,99,594,0.201840,2,0.000000,26.945739,0.274107,99,99,0,0,0,0,1
5,59999,10,50000,37,40000,40,9999,0.100000,99,594,0.000000,4,0.000000,27.166692,0.208090,99,99,0,0,0,0,0
5,59999,11,50000,37,40000,41,9999,0.100000,99,594,0.000000,3,4.000000,27.674352,18.606155,99,99,0,0,0,0,0
5,59999,12,50000,37,40000,0,9999,0.100000,99,594,0.070928,3,0.000000,29.456090,0.866694,99,99,0,0,0,0,1
5,59999,13,50000,37,40000,41,9999,0.100000,99,594,0.000000,4,3.000000,22.157603,17.239613,99,99,0,0,0,0,0
5,59999,14,50000,37,40000,40,9999,0.100000,99,594,0.000000,5,1.000000,17.733955,17.861886,99,99,0,0,0,0,0
5,59999,15,50000,37,40000,40,9999,0.100000,99,594,0.000000,3,1.000000,17.768225,1.396888,99,99,0,0,0,0,0
5,59999,16,50000,37,40000,42,9999,0.100000,99,594,0.000000,4,7.000000,28.905038,24.722975,99,99,0,0,0,0,0
5,59999,17,50000,37,40000,0,9999,0.100000,99,594,0.081883,1,0.000000,23.444405,0.497612,99,99,0,0,0,1,0
5,59999,18,50000,37,40000,40,9999,0.100000,99,594,0.000000,3,3.000000,34.267672,22.733406,99,99,0,0,0,0,0
5,59999,19,50000,37,40000,40,9999,0.100000,99,594,0.000000,1,0.000000,30.433695,0.647324,99,99,0,0,0,0,0
5,59999,20,50000,37,40000,40,9999,0.100000,99,594,0.000000,2,0.000000,29.507458,0.108182,99,99,0,0,0,0,0
5,59999,21,50000,37,40000,40,9999,0.100000,99,594,0.000000,1,0.000000,31.156248,0.376157,99,99,0,0,0,0,0
5,59999,22,50000,37,40000,40,9999,0.100000,99,594,0.000000,3,0.000000,14.743538,1.512139,99,99,0,0,0,0,0
5,59999,23,50000,37,40000,41,9999,0.100000,99,594,0.000000,1,5.000000,29.802556,10.775067,99,99,0,0,0,0,0
5,59999,24,50000,37,40000,43,9999,0.100000,99,594,0.000000,3,5.000000,15.632692,18.843195,99,99,0,0,0,0,0
5,59999,25,50000,37,40000,40,9999,0.100000,99,594,0.000000,3,1.000000,36.730169,5.496579,99,99,0,0,0,0,0
5,59999,26,50000,37,40000,40,9999,0.100000,99,594,0.000000,3,0.000000,29.857656,0.831375,99,99,0,0,0,0,0
5,59999,27,50000,37,40000,40,9999,0.100000,99,594,0.000000,4,1.000000,26.453120,1.498243,99,99,0,0,0,0,0
5,59999,28,50000,37,40000,0,9999,0.100000,99,594,0.000753,3,1.000000,17.793348,1.420865,99,99,0,0,1,0,0
5,59999,29,50000,37,40000,40,9999,0.100000,99,594,0.000000,3,2.000000,29.016845,16.123971,99,99,0,0,0,0,0
5,59999,30,50000,37,40000,41,9999,0.100000,99,594,0.000000,3,5.000000,27.864213,11.133961,99,99,0,0,0,0,0
5,59999,31,50000,37,40000,40,9999,0.135000,99,594,0.000000,4,0.000000,21.338326,1.306147,99,99,0,0,0,0,0
5,59999,32,50000,37,40000,40,9999,0.100000,99,594,0.000000,3,1.000000,18.307611,18.060212,99,99,0,0,0,0,0
5,59999,33,50000,37,40000,41,9999,0.100000,99,594,0.000000,2,5.000000,25.065460,8.808323,99,99,0,0,0,0,0
5,59999,34,50000,37,40000,40,9999,0.100000,99,594,0.000000,3,0.000000,22.208407,0.711931,99,99,0,0,0,0,0
5,59999,35,50000,37,40000,2,9999,0.100000,99,594,0.000264,3,3.000000,10.989785,5.796833,99,99,0,0,0,1,0
5,59999,36,50000,37,40000,40,9999,0.100000,99,594,0.000000,2,0.000000,27.277307,1.093012,99,99,0,0,0,0,0
5,59999,37,50000,0,40000,40,9999,0.100000,99,594,0.000000,2,0.000000,27.137893,2.876740,99,99,0,0,0,0,0
5,59999,38,50000,37,40000,42,9999,0.100000,99,594,0.000000,5,8.000000,31.258127,18.271495,99,99,0,0,0,0,0
5,59999,39,50000,37,40000,40,9999,0.100000,99,594,0.000000,3,0.000000,14.293509,2.165872,99,99,0,0,0,0,0
5,59999,40,50000,37,40000,40,9999,0.100000,99,594,0.000000,1,0.000000,26.838263,0.173015,99,99,0,0,0,0,0
5,59999,41,50000,37,40000,40,9999,0.100000,99,594,0.000000,2,0.000000,29.612529,1.496350,99,99,0,0,0,0,0
5,59999,42,50000,37,40000,40,9999,0.100000,99,594,0.000000,3,1.000000,26.339456,1.450660,99,99,0,0,0,0,0
5,59999,43,50000,37,40000,90,9999,0.100000,99,594,0.785757,3,0.000000,29.609623,0.891520,99,99,1,0,0,0,0
5,59999,44,50000,37,40000,40,9999,0.100000,99,594,0.000000,4,0.000000,26.901916,4.174499,99,99,0,0,0,0,0
5,59999,45,50000,37,40000,40,9999,0.100000,99,594,0.000000,3,0.000000,31.583054,0.140917,99,99,0,0,0,0,0
5,59999,46,50000,37,40000,42,9999,0.100000,99,594,0.000000,4,8.000000,29.169127,17.839767,99,99,0,0,0,0,0
5,59999,47,50000,37,40000,40,9999,0.100000,99,594,0.000000,2,1.000000,26.566579,1.617330,99,99,0,0,0,0,0
5,59999,48,50000,37,40000,90,9999,0.100000,99,594,5.889963,1,1.000000,17.887009,2.253107,99,99,1,0,0,0,0
5,59999,49,50000,37,40000,40,9999,0.100000,99,594,0.000000,1,0.000000,31.957789,0.204357,99,99,0,0,0,0,0
5,59999,50,50000,37,40000,44,9999,0.100000,99,594,0.000000,2,9.000000,20.097943,21.285212,99,99,0,0,0,0,0
5,59999,51,50000,37,40000,40,9999,0.100000,99,594,0.000000,2,0.000000,21.497755,1.259649,99,99,0,0,0,0,0
5,59999,52,50000,37,40000,41,9999,0.100000,99,594,0.000000,2,5.000000,29.764875,11.361763,99,99,0,0,0,0,0
5,59999,53,50000,37,40000,41,9999,0.100000,99,594,0.000000,3,4.000000,24.762556,11.706901,99,99,0,0,0,0,0
5,59999,54,50000,37,40000,40,9999,0.100000,99,594,0.000000,2,0.000000,15.232931,3.233112,99,99,0,0,0,0,0
5,59999,55,50000,37,40000,40,9999,0.100000,99,594,0.000000,3,0.000000,31.000941,2.041671,99,99,0,0,0,0,0
5,59999,56,50000,37,40000,40,9999,0.100000,99,594,0.000000,1,0.000000,33.238528,0.237619,99,99,0,0,0,0,0
5,59999,57,50000,37,40000,42,9999,0.100000,99,594,0.000000,4,8.000000,29.241305,21.676122,99,99,0,0,0,0,0
5,59999,58,50000,37,40000,0,9999,0.100000,99,594,3.700168,3,0.000000,25.746058,1.022570,99,99,0,0,0,1,0
5,59999,59,50000,37,40000,40,9999,0.100000,99,594,0.000000,3,0.000000,21.810523,0.229835,99,99,0,0,0,0,0
5,59999,60,50000,37,40000,40,9999,0.100000,99,594,0.000000,2,0.000000,26.994871,0.436357,99,99,0,0,0,0,0
5,59999,61,50000,37,40000,0,9999,0.100000,99,594,1.701707,1,0.000000,23.407109,1.135890,99,99,0,0,1,0,0
5,59999,62,50000,37,40000,40,9999,0.100000,99,594,0.000000,2,1.000000,26.262337,1.176115,99,99,0,0,0,0,0
5,59999,63,50000,37,40000,40,9999,0.100000,99,594,0.000000,1,2.000000,30.078956,16.018680,99,99,0,0,0,0,0
5,59999,64,50000,37,40000,40,9999,0.100000,99,594,0.000000,3,0.000000,14.875882,2.439766,99,99,0,0,0,0,0
5,59999,65,50000,37,40000,40,9999,0.100000,99,594,0.000000,3,1.000000,33.075805,1.794256,99,99,0,0,0,0,0
5,59999,66,50000,37,40000,40,9999,0.100000,99,594,0.000000,2,1.000000,25.288935,21.265417,99,99,0,0,0,0,0
5,59999,67,50000,37,40000,40,9999,0.100000,99,594,0.000000,2,0.000000,16.971200,0.121402,99,99,0,0,0,0,0
5,59999,68,50000,37,40000,0,9999,0.100000,99,594,1.051254,3,0.000000,21.827337,1.104580,99,99,0,0,0,0,1
5,59999,69,50000,37,40000,41,9999,0.100000,99,594,0.000000,1,5.000000,30.278157,13.347043,99,99,0,0,0,0,0
5,59999,70,50000,37,40000,41,9999,0.100000,99,594,0.000000,4,5.000000,28.040430,9.058207,99,99,0,0,0,0,0
5,59999,71,50000,37,40000,40,9999,0.100000,99,594,0.000000,1,0.000000,22.759515,4.593157,99,99,0,0,0,0,0
5,59999,72,50000,37,40000,41,9999,0.100000,99,594,0.000000,2,4.000000,26.714661,9.303626,99,99,0,0,0,0,0
5,59999,73,50000,37,40000,40,9999,0.135000,99,594,0.000000,2,2.000000,34.466605,18.755942,99,99,0,0,0,0,0
5,59999,74,50000,37,40000,40,9999,0.100000,99,594,0.000000,3,1.000000,29.806506,3.751521,99,99,0,0,0,0,0
5,59999,75,50000,37,40000,41,9999,0.100000,99,594,0.000000,4,3.000000,21.509401,18.527489,99,99,0,0,0,0,0
5,59999,76,50000,37,40000,40,9999,0.100000,99,594,0.000000,3,1.000000,17.848284,1.636209,99,99,0,0,0,0,0
5,59999,77,50000,37,40000,40,9999,0.100000,99,594,0.000000,1,0.000000,22.847005,0.936088,99,99,0,0,0,0,0
5,59999,78,50000,37,40000,40,9999,0.100000,99,594,0.000000,3,0.000000,17.090034,0.112577,99,99,0,0,0,0,0
5,59999,79,50000,37,40000,40,9999,0.100000,99,594,0.000000,2,1.000000,23.433187,14.235238,99,99,0,0,0,0,0
5,59999,80,50000,37,40000,40,9999,0.100000,99,594,0.000000,3,0.000000,32.289460,2.484125,99,99,0,0,0,0,0
5,59999,81,50000,37,40000,40,9999,0.100000,99,594,0.000000,2,0.000000,23.138326,0.530143,99,99,0,0,0,0,0
5,59999,82,50000,37,40000,40,9999,0.065000,99,594,0.000000,3,0.000000,21.451149,0.227975,99,99,0,0,0,0,0
5,59999,83,50000,37,40000,40,9999,0.100000,99,594,0.000000,3,2.000000,29.821319,18.754534,99,99,0,0,0,0,0
5,59999,84,50000,37,40000,40,9999,0.100000,99,594,0.000000,4,0.000000,27.431879,1.907962,99,99,0,0,0,0,0
5,59999,85,50000,37,40000,40,9999,0.100000,99,594,0.000000,4,0.000000,27.026228,0.429956,99,99,0,0,0,0,0
5,59999,86,50000,37,40000,0,9999,0.100000,99,594,0.193716,3,0.000000,28.817537,0.157821,99,99,0,0,0,0,1
5,59999,87,50000,37,40000,40,9999,0.100000,99,594,0.000000,1,0.000000,25.188276,0.424797,99,99,0,0,0,0,0
5,59999,88,50000,37,40000,40,9999,0.100000,99,594,0.000000,1,0.000000,31.492941,0.329688,99,99,0,0,0,0,0
5,59999,89,50000,37,40000,40,9999,0.100000,99,594,0.000000,3,0.000000,14.126620,0.697104,99,99,0,0,0,0,0
5,59999,90,50000,37,40000,40,9999,0.100000,99,594,0.000000,4,1.000000,26.021552,1.078795,99,99,0,0,0,0,0
5,59999,91,50000,37,40000,40,9999,0.100000,99,594,0.000000,3,0.000000,29.641221,0.781655,99,99,0,0,0,0,0
5,59999,92,50000,37,40000,40,9999,0.100000,99,594,0.000000,4,0.000000,14.553284,3.054575,99,99,0,0,0,0,0
5,59999,93,50000,37,40000,40,9999,0.100000,99,594,0.000000,2,0.000000,14.612941,5.628809,99,99,0,0,0,0,0
5,59999,94,50000,37,40000,40,9999,0.100000,99,594,0.000000,4,0.000000,29.781588,0.696678,99,99,0,0,0,0,0
5,59999,95,50000,37,40000,40,9999,0.100000,99,594,0.000000,1,0.000000,29.606202,0.101039,99,99,0,0,0,0,0
5,59999,96,50000,37,40000,40,9999,0.100000,99,594,0.000000,2,1.000000,16.646248,18.288352,99,99,0,0,0,0,0
5,59999,97,50000,37,40000,40,9999,0.100000,99,594,0.000000,3,1.000000,30.274389,9.395498,99,99,0,0,0,0,0
5,59999,98,50000,37,40000,40,9999,0.100000,99,594,0.000000,4,0.000000,21.160676,0.891724,99,99,0,0,0,0,0
5,59999,99,50000,37,40000,40,9999,0.100000,99,594,0.000000,1,0.000000,22.035389,0.662876,99,99,0,0,0,0,0
6,69999,0,60000,48,50000,0,9999,0.100000,99,693,1.606966,3,0.000000,30.226075,0.711201,99,99,0,0,1,0,0
6,69999,1,60000,48,50000,0,9999,0.100000,99,693,0.008955,4,0.000000,17.331254,0.152676,99,99,0,0,0,1,0
6,69999,2,60000,48,50000,40,9999,0.100000,99,693,0.000000,2,0.000000,33.815728,2.331096,99,99,0,0,0,0,0
6,69999,3,60000,48,50000,42,9999,0.100000,99,693,0.000000,1,11.000000,36.046686,22.471027,99,99,0,0,0,0,0
6,69999,4,60000,48,50000,40,9999,0.100000,99,693,0.000000,2,0.000000,23.283824,0.227872,99,99,0,0,0,0,0
6,69999,5,60000,48,50000,0,9999,0.100000,99,693,0.054057,1,0.000000,32.226945,0.871054,99,99,0,0,0,1,0
6,69999,6,60000,48,50000,40,9999,0.100000,99,693,0.000000,3,0.000000,38.011594,2.092254,99,99,0,0,0,0,0
6,69999,7,60000,48,50000,0,9999,0.100000,99,693,5.140160,1,0.000000,25.548652,1.042869,99,99,0,0,1,0,0
6,69999,8,60000,48,50000,0,9999,0.100000,99,693,0.039040,3,0.000000,31.325526,0.474108,99,99,0,1,0,0,0
6,69999,9,60000,48,50000,0,9999,0.100000,99,693,0.593825,2,0.000000,27.038488,0.394134,99,99,0,0,0,0,1
6,69999,10,60000,48,50000,40,9999,0.100000,99,693,0.000000,4,0.000000,27.263137,0.637786,99,99,0,0,0,0,0
6,69999,11,60000,48,50000,42,9999,0.100000,99,693,0.000000,3,7.000000,23.725429,9.953656,99,99,0,0,0,0,0
6,69999,12,60000,48,50000,0,9999,0.100000,99,693,0.069587,3,0.000000,29.439953,0.840550,99,99,0,0,0,0,1
6,69999,13,60000,48,50000,41,9999,0.100000,99,693,0.000000,4,2.000000,18.609360,18.570107,99,99,0,0,0,0,0
6,69999,14,60000,48,50000,40,9999,0.100000,99,693,0.000000,5,1.000000,17.200584,19.799187,99,99,0,0,0,0,0
6,69999,15,60000,48,50000,0,9999,0.100000,99,693,0.015102,3,0.000000,16.538271,0.722318,99,99,0,0,1,0,0
6,69999,16,60000,48,50000,40,9999,0.100000,99,693,0.000000,5,1.000000,22.798605,14.109851,99,99,0,0,0,0,0
6,69999,17,60000,48,50000,0,9999,0.100000,99,693,0.078421,1,0.000000,23.340086,0.272796,99,99,0,0,0,1,0
6,69999,18,60000,48,50000,42,9999,0.100000,99,693,0.000000,3,9.000000,35.987627,22.245296,99,99,0,0,0,0,0
6,69999,19,60000,48,50000,40,9999,0.100000,99,693,0.000000,1,0.000000,30.477541,0.633910,99,99,0,0,0,0,0
6,69999,20,60000,48,50000,40,9999,0.100000,99,693,0.000000,2,0.000000,29.489347,0.114595,99,99,0,0,0,0,0
6,69999,21,60000,48,50000,40,9999,0.100000,99,693,0.000000,1,0.000000,31.208904,0.321255,99,99,0,0,0,0,0
6,69999,22,60000,48,50000,40,9999,0.100000,99,693,0.000000,3,0.000000,15.217946,0.737817,99,99,0,0,0,0,0
6,69999,23,60000,48,50000,41,9999,0.100000,99,693,0.000000,2,6.000000,30.181332,10.171113,99,99,0,0,0,0,0
6,69999,24,60000,48,50000,40,9999,0.100000,99,693,0.000000,3,1.000000,12.305781,3.544844,99,99,0,0,0,0,0
6,69999,25,60000,48,50000,40,9999,0.100000,99,693,0.000000,3,0.000000,37.891278,2.098499,99,99,0,0,0,0,0
6,69999,26,60000,48,50000,40,9999,0.100000,99,693,0.000000,3,0.000000,29.857197,0.807056,99,99,0,0,0,0,0
6,69999,27,60000,48,50000,40,9999,0.100000,99,693,0.000000,4,0.000000,26.178482,1.052836,99,99,0,0,0,0,0
6,69999,28,60000,48,50000,40,9999,0.100000,99,693,0.000000,3,0.000000,16.566924,0.725568,99,99,0,0,0,0,0
6,69999,29,60000,48,50000,40,9999,0.100000,99,693,0.000000,3,1.000000,27.090490,13.181648,99,99,0,0,0,0,0
6,69999,30,60000,48,50000,40,9999,0.100000,99,693,0.000000,3,0.000000,24.823284,0.463547,99,99,0,0,0,0,0
6,69999,31,60000,48,50000,40,9999,0.100000,99,693,0.000000,4,0.000000,21.897537,1.292175,99,99,0,0,0,0,0
6,69999,32,60000,48,50000,40,9999,0.100000,99,693,0.000000,4,0.000000,16.720284,18.678510,99,99,0,0,0,0,0
6,69999,33,60000,48,50000,40,9999,0.100000,99,693,0.000000,2,0.000000,29.697962,1.038175,99,99,0,0,0,0,0
6,69999,34,60000,48,50000,40,9999,0.100000,99,693,0.000000,3,0.000000,22.350281,2.051958,99,99,0,0,0,0,0
6,69999,35,60000,48,50000,0,9999,0.100000,99,693,0.000357,4,0.000000,14.259762,0.290954,99,99,0,0,0,1,0
6,69999,36,60000,48,50000,40,9999,0.100000,99,693,0.000000,2,0.000000,27.371556,1.440578,99,99,0,0,0,0,0
6,69999,37,60000,48,50000,40,9999,0.100000,99,693,0.000000,3,0.000000,27.266642,21.800092,99,99,0,0,0,0,0
6,69999,38,60000,48,50000,43,9999,0.100000,99,693,0.000000,5,9.000000,27.876879,19.681128,99,99,0,0,0,0,0
6,69999,39,60000,48,50000,40,9999,0.100000,99,693,0.000000,3,0.000000,14.342442,0.740433,99,99,0,0,0,0,0
6,69999,40,60000,48,50000,40,9999,0.100000,99,693,0.000000,1,0.000000,26.928422,0.313519,99,99,0,0,0,0,0
6,69999,41,60000,48,50000,40,9999,0.100000,99,693,0.000000,2,0.000000,29.604359,1.637310,99,99,0,0,0,0,0
6,69999,42,60000,48,50000,40,9999,0.135000,99,693,0.000000,3,0.000000,26.059933,0.977829,99,99,0,0,0,0,0
6,69999,43,60000,48,50000,92,9999,0.100000,99,693,24.504576,3,7.000000,29.986455,19.071784,99,99,1,0,0,0,0
6,69999,44,60000,48,50000,40,9999,0.100000,99,693,0.000000,5,0.000000,26.973594,4.355202,99,99,0,0,0,0,0
6,69999,45,60000,48,50000,40,9999,0.100000,99,693,0.000000,3,0.000000,31.582668,0.137961,99,99,0,0,0,0,0
6,69999,46,60000,48,50000,41,9999,0.100000,99,693,0.000000,5,3.000000,22.210447,15.949846,99,99,0,0,0,0,0
6,69999,47,60000,48,50000,0,9999,0.100000,99,693,2.530890,2,0.000000,26.364372,0.723869,99,99,0,0,0,1,0
6,69999,48,60000,58,50000,92,9999,0.100000,99,693,20.397805,1,4.000000,18.783639,7.475461,99,99,1,0,0,0,0
6,69999,49,60000,48,50000,40,9999,0.100000,99,693,0.000000,1,0.000000,32.005762,0.187630,99,99,0,0,0,0,0
6,69999,50,60000,48,50000,41,9999,0.100000,99,693,0.000000,3,2.000000,11.353304,5.988367,99,99,0,0,0,0,0
6,69999,51,60000,48,50000,40,9999,0.100000,99,693,0.000000,2,0.000000,22.042462,1.402689,99,99,0,0,0,0,0
6,69999,52,60000,48,50000,40,9999,0.100000,99,693,0.000000,2,2.000000,30.002759,4.610892,99,99,0,0,0,0,0
6,69999,53,60000,48,50000,40,9999,0.100000,99,693,0.000000,3,1.000000,25.256277,2.690385,99,99,0,0,0,0,0
6,69999,54,60000,48,50000,40,9999,0.100000,99,693,0.000000,2,0.000000,15.405915,1.411420,99,99,0,0,0,0,0
6,69999,55,60000,48,50000,40,9999,0.100000,99,693,0.000000,3,0.000000,31.010662,0.315825,99,99,0,0,0,0,0
6,69999,56,60000,48,50000,40,9999,0.100000,99,693,0.000000,1,0.000000,33.238793,0.233225,99,99,0,0,0,0,0
6,69999,57,60000,48,50000,40,9999,0.100000,99,693,0.000000,5,1.000000,22.347404,11.579817,99,99,0,0,0,0,0
6,69999,58,60000,48,50000,40,9999,0.100000,99,693,0.000000,3,0.000000,25.590396,0.687273,99,99,0,0,0,0,0
6,69999,59,60000,48,50000,40,9999,0.100000,99,693,0.000000,3,0.000000,21.811157,0.248738,99,99,0,0,0,0,0
6,69999,60,60000,48,50000,40,9999,0.100000,99,693,0.000000,2,0.000000,27.090584,0.553536,99,99,0,0,0,0,0
6,69999,61,60000,48,50000,0,9999,0.100000,99,693,1.964873,1,0.000000,23.573792,0.968065,99,99,0,0,1,0,0
6,69999,62,60000,48,50000,40,9999,0.100000,99,693,0.000000,2,0.000000,26.045152,0.754267,99,99,0,0,0,0,0
6,69999,63,60000,48,50000,40,9999,0.100000,99,693,0.000000,1,2.000000,27.524247,19.288287,99,99,0,0,0,0,0
6,69999,64,60000,48,50000,40,9999,0.100000,99,693,0.000000,3,0.000000,14.217140,1.081271,99,99,0,0,0,0,0
6,69999,65,60000,48,50000,40,9999,0.100000,99,693,0.000000,3,1.000000,33.727180,2.048481,99,99,0,0,0,0,0
6,69999,66,60000,48,50000,40,9999,0.100000,99,693,0.000000,2,0.000000,25.260472,18.488922,99,99,0,0,0,0,0
6,69999,67,60000,48,50000,40,9999,0.100000,99,693,0.000000,2,0.000000,16.969472,0.119943,99,99,0,0,0,0,0
6,69999,68,60000,48,50000,40,9999,0.065000,99,693,0.000000,3,0.000000,21.767455,1.332837,99,99,0,0,0,0,0
6,69999,69,60000,48,50000,40,9999,0.100000,99,693,0.000000,2,0.000000,28.107865,0.179230,99,99,0,0,0,0,0
6,69999,70,60000,48,50000,40,9999,0.100000,99,693,0.000000,4,1.000000,22.916339,8.788170,99,99,0,0,0,0,0
6,69999,71,60000,48,50000,40,9999,0.100000,99,693,0.000000,1,0.000000,23.303328,0.721784,99,99,0,0,0,0,0
6,69999,72,60000,48,50000,40,9999,0.100000,99,693,0.000000,3,0.000000,22.819788,1.904218,99,99,0,0,0,0,0
6,69999,73,60000,48,50000,40,9999,0.100000,99,693,0.000000,2,1.000000,35.849073,18.782428,99,99,0,0,0,0,0
6,69999,74,60000,48,50000,40,9999,0.100000,99,693,0.000000,3,0.000000,29.135984,1.789253,99,99,0,0,0,0,0
6,69999,75,60000,48,50000,40,9999,0.100000,99,693,0.000000,4,1.000000,18.401599,15.575063,99,99,0,0,0,0,0
6,69999,76,60000,48,50000,40,9999,0.100000,99,693,0.000000,3,0.000000,16.624547,0.990093,99,99,0,0,0,0,0
6,69999,77,60000,48,50000,40,9999,0.100000,99,693,0.000000,1,0.000000,23.017037,0.902623,99,99,0,0,0,0,0
6,69999,78,60000,48,50000,40,9999,0.100000,99,693,0.000000,3,0.000000,17.089282,0.115685,99,99,0,0,0,0,0
6,69999,79,60000,48,50000,40,9999,0.100000,99,693,0.000000,2,2.000000,24.219332,15.864182,99,99,0,0,0,0,0
6,69999,80,60000,48,50000,40,9999,0.100000,99,693,0.000000,3,0.000000,32.332395,1.990387,99,99,0,0,0,0,0
6,69999,81,60000,48,50000,40,9999,0.100000,99,693,0.000000,2,0.000000,23.160994,0.146648,99,99,0,0,0,0,0
6,69999,82,60000,48,50000,40,9999,0.100000,99,693,0.000000,3,0.000000,21.453086,0.234088,99,99,0,0,0,0,0
6,69999,83,60000,48,50000,40,9999,0.100000,99,693,0.000000,3,3.000000,29.545142,10.006939,99,99,0,0,0,0,0
6,69999,84,60000,48,50000,40,9999,0.100000,99,693,0.000000,4,0.000000,26.529722,1.017564,99,99,0,0,0,0,0
6,69999,85,60000,48,50000,40,9999,0.100000,99,693,0.000000,4,0.000000,27.103616,0.458291,99,99,0,0,0,0,0
6,69999,86,60000,48,50000,0,9999,0.100000,99,693,0.107671,3,0.000000,28.878408,0.187155,99,99,0,0,0,0,1
6,69999,87,60000,48,50000,40,9999,0.100000,99,693,0.000000,1,1.000000,25.133030,1.484699,99,99,0,0,0,0,0
6,69999,88,60000,48,50000,40,9999,0.100000,99,693,0.000000,1,0.000000,31.532105,0.319592,99,99,0,0,0,0,0
6,69999,89,60000,48,50000,40,9999,0.100000,99,693,0.000000,3,0.000000,14.298462,0.574741,99,99,0,0,0,0,0
6,69999,90,60000,48,50000,40,9999,0.100000,99,693,0.000000,4,0.000000,25.859789,0.702348,99,99,0,0,0,0,0
6,69999,91,60000,48,50000,40,9999,0.100000,99,693,0.000000,3,0.000000,29.639043,0.676476,99,99,0,0,0,0,0
6,69999,92,60000,48,50000,40,9999,0.100000,99,693,0.000000,4,0.000000,15.072739,0.599597,99,99,0,0,0,0,0
6,69999,93,60000,48,50000,40,9999,0.100000,99,693,0.000000,2,0.000000,15.264940,1.194095,99,99,0,0,0,0,0
6,69999,94,60000,48,50000,40,9999,0.100000,99,693,0.000000,4,0.000000,29.781444,0.612380,99,99,0,0,0,0,0
6,69999,95,60000,48,50000,40,9999,0.100000,99,693,0.000000,1,0.000000,29.583795,0.104360,99,99,0,0,0,0,0
6,69999,96,60000,48,50000,42,9999,0.100000,99,693,0.000000,2,4.000000,15.856290,19.713378,99,99,0,0,0,0,0
6,69999,97,60000,48,50000,40,9999,0.100000,99,693,0.000000,3,0.000000,30.680644,4.352417,99,99,0,0,0,0,0
6,69999,98,60000,48,50000,40,9999,0.100000,99,693,0.000000,4,0.000000,21.730073,0.811509,99,99,0,0,0,0,0
6,69999,99,60000,48,50000,40,9999,0.100000,99,693,0.000000,1,0.000000,22.186981,1.765103,99,99,0,0,0,0,0
7,79999,0,70000,43,60000,0,9999,0.100000,99,792,0.583322,3,0.000000,30.358944,1.451938,99,99,0,0,1,0,0
7,79999,1,70000,43,60000,0,9999,0.100000,99,792,0.006086,4,0.000000,17.332240,0.151780,99,99,0,0,0,1,0
7,79999,2,70000,43,60000,40,9999,0.100000,99,792,0.000000,2,0.000000,34.205822,1.432891,99,99,0,0,0,0,0
7,79999,3,70000,43,60000,42,9999,0.100000,99,792,0.000000,2,7.000000,29.658668,22.019442,99,99,0,0,0,0,0
7,79999,4,70000,43,60000,40,9999,0.100000,99,792,0.000000,2,0.000000,23.287227,0.233425,99,99,0,0,0,0,0
7,79999,5,70000,43,60000,40,9999,0.100000,99,792,0.000000,1,0.000000,32.297036,0.478981,99,99,0,0,0,0,0
7,79999,6,70000,43,60000,40,9999,0.100000,99,792,0.000000,3,0.000000,37.988836,0.764383,99,99,0,0,0,0,0
7,79999,7,70000,43,60000,2,9999,0.100000,99,792,37.293235,1,6.000000,25.527284,7.307001,99,99,0,0,1,0,0
7,79999,8,70000,43,60000,0,9999,0.100000,99,792,0.229680,3,0.000000,31.399526,0.520537,99,99,0,1,0,0,0
7,79999,9,70000,43,60000,40,9999,0.100000,99,792,0.000000,2,0.000000,27.197567,0.541252,99,99,0,0,0,0,0
7,79999,10,70000,43,60000,0,9999,0.100000,99,792,0.863713,4,0.000000,27.426882,1.148382,99,99,0,0,0,0,1
7,79999,11,70000,43,60000,40,9999,0.100000,99,792,0.000000,4,0.000000,29.903722,0.115229,99,99,0,0,0,0,0
7,79999,12,70000,43,60000,0,9999,0.100000,99,792,0.142358,3,0.000000,29.416947,0.997871,99,99,0,0,0,0,1
7,79999,13,70000,43,60000,40,9999,0.100000,99,792,0.000000,4,0.000000,17.313769,4.753156,99,99,0,0,0,0,0
7,79999,14,70000,43,60000,43,9999,0.100000,99,792,0.000000,5,5.000000,15.617881,21.834918,99,99,0,0,0,0,0
7,79999,15,70000,43,60000,0,9999,0.100000,99,792,0.043546,4,0.000000,16.283718,0.222033,99,99,0,0,1,0,0
7,79999,16,70000,43,60000,40,9999,0.100000,99,792,0.000000,5,2.000000,22.296833,12.888286,99,99,0,0,0,0,0
7,79999,17,70000,43,60000,0,9999,0.100000,99,792,0.001279,1,0.000000,23.309434,0.085786,99,99,0,0,0,1,0
7,79999,18,70000,43,60000,42,9999,0.100000,99,792,0.000000,4,8.000000,30.160353,24.294211,99,99,0,0,0,0,0
7,79999,19,70000,43,60000,40,9999,0.100000,99,792,0.000000,1,0.000000,30.589988,1.025462,99,99,0,0,0,0,0
7,79999,20,70000,43,60000,40,9999,0.100000,99,792,0.000000,2,0.000000,29.468520,0.142742,99,99,0,0,0,0,0
7,79999,21,70000,43,60000,40,9999,0.100000,99,792,0.000000,1,0.000000,31.283151,0.367547,99,99,0,0,0,0,0
7,79999,22,70000,43,60000,40,9999,0.100000,99,792,0.000000,3,0.000000,15.058951,0.581666,99,99,0,0,0,0,0
7,79999,23,70000,43,60000,40,9999,0.100000,99,792,0.000000,3,0.000000,26.303606,0.219185,99,99,0,0,0,0,0
7,79999,24,70000,43,60000,40,9999,0.100000,99,792,0.000000,3,0.000000,14.162393,1.707854,99,99,0,0,0,0,0
7,79999,25,70000,43,60000,40,9999,0.100000,99,792,0.000000,3,0.000000,37.930147,0.661241,99,99,0,0,0,0,0
7,79999,26,70000,43,60000,40,9999,0.100000,99,792,0.000000,3,0.000000,29.857519,0.758879,99,99,0,0,0,0,0
7,79999,27,70000,43,60000,40,9999,0.100000,99,792,0.000000,4,0.000000,26.011982,1.031735,99,99,0,0,0,0,0
7,79999,28,70000,43,60000,40,9999,0.100000,99,792,0.000000,3,0.000000,16.310937,0.427980,99,99,0,0,0,0,0
7,79999,29,70000,43,60000,42,9999,0.100000,99,792,0.000000,3,6.000000,25.780271,11.005016,99,99,0,0,0,0,0
7,79999,30,70000,43,60000,40,9999,0.100000,99,792,0.000000,4,0.000000,24.703485,4.244662,99,99,0,0,0,0,0
7,79999,31,70000,43,60000,40,9999,0.100000,99,792,0.000000,4,1.000000,22.353238,3.053563,99,99,0,0,0,0,0
7,79999,32,70000,43,60000,42,9999,0.100000,99,792,0.000000,4,5.000000,16.271426,23.689617,99,99,0,0,0,0,0
7,79999,33,70000,43,60000,40,9999,0.100000,99,792,0.000000,2,0.000000,29.717104,1.091534,99,99,0,0,0,0,0
7,79999,34,70000,43,60000,40,9999,0.100000,99,792,0.000000,3,1.000000,23.244970,2.913771,99,99,0,0,0,0,0
7,79999,35,70000,43,60000,40,9999,0.100000,99,792,0.000000,5,0.000000,14.288188,0.301279,99,99,0,0,0,0,0
7,79999,36,70000,43,60000,40,9999,0.100000,99,792,0.000000,2,0.000000,27.339065,2.753897,99,99,0,0,0,0,0
7,79999,37,70000,43,60000,40,9999,0.100000,99,792,0.000000,3,0.000000,27.597088,3.779235,99,99,0,0,0,0,0
7,79999,38,70000,43,60000,40,9999,0.100000,99,792,0.000000,6,0.000000,18.360580,15.988552,99,99,0,0,0,0,0
7,79999,39,70000,43,60000,0,9999,0.100000,99,792,0.002719,3,0.000000,14.365199,0.778692,99,99,0,0,0,1,0
7,79999,40,70000,43,60000,40,9999,0.100000,99,792,0.000000,1,0.000000,27.084397,0.500887,99,99,0,0,0,0,0
7,79999,41,70000,43,60000,40,9999,0.100000,99,792,0.000000,2,0.000000,29.590709,1.564370,99,99,0,0,0,0,0
7,79999,42,70000,43,60000,40,9999,0.100000,99,792,0.000000,3,0.000000,25.893159,1.048467,99,99,0,0,0,0,0
7,79999,43,70000,48,60000,42,9999,0.100000,99,792,0.000000,4,9.000000,29.779064,22.792651,99,99,0,0,0,0,0
7,79999,44,70000,43,60000,40,9999,0.100000,99,792,0.000000,5,0.000000,27.052723,4.259418,99,99,0,0,0,0,0
7,79999,45,70000,43,60000,40,9999,0.100000,99,792,0.000000,3,0.000000,31.581968,0.139985,99,99,0,0,0,0,0
7,79999,46,70000,43,60000,41,9999,0.100000,99,792,0.000000,5,2.000000,18.583772,17.892617,99,99,0,0,0,0,0
7,79999,47,70000,43,60000,0,9999,0.100000,99,792,2.892434,3,0.000000,26.198561,0.774907,99,99,0,0,0,1,0
7,79999,48,70000,43,60000,41,9999,0.100000,99,792,0.000000,2,3.000000,22.068213,16.495801,99,99,0,0,0,0,0
7,79999,49,70000,43,60000,0,9999,0.100000,99,792,0.507737,1,0.000000,32.077308,0.316826,99,99,0,0,0,1,0
7,79999,50,70000,43,60000,40,9999,0.100000,99,792,0.000000,3,0.000000,13.986840,2.912014,99,99,0,0,0,0,0
7,79999,51,70000,43,60000,40,9999,0.100000,99,792,0.000000,2,1.000000,22.497964,2.942895,99,99,0,0,0,0,0
7,79999,52,70000,43,60000,40,9999,0.100000,99,792,0.000000,3,0.000000,29.802170,0.160598,99,99,0,0,0,0,0
7,79999,53,70000,43,60000,42,9999,0.100000,99,792,0.000000,4,7.000000,24.972589,8.726984,99,99,0,0,0,0,0
7,79999,54,70000,43,60000,40,9999,0.100000,99,792,0.000000,2,0.000000,15.374602,0.918522,99,99,0,0,0,0,0
7,79999,55,70000,43,60000,40,9999,0.100000,99,792,0.000000,3,0.000000,31.089736,0.390803,99,99,0,0,0,0,0
7,79999,56,70000,43,60000,40,9999,0.100000,99,792,0.000000,1,0.000000,33.239665,0.231070,99,99,0,0,0,0,0
7,79999,57,70000,43,60000,40,9999,0.100000,99,792,0.000000,5,0.000000,20.418819,0.915217,99,99,0,0,0,0,0
7,79999,58,70000,43,60000,40,9999,0.100000,99,792,0.000000,3,0.000000,25.425678,0.795340,99,99,0,0,0,0,0
7,79999,59,70000,43,60000,40,9999,0.100000,99,792,0.000000,3,0.000000,21.814027,0.246430,99,99,0,0,0,0,0
7,79999,60,70000,43,60000,40,9999,0.100000,99,792,0.000000,2,0.000000,27.248273,0.660121,99,99,0,0,0,0,0
7,79999,61,70000,43,60000,0,9999,0.100000,99,792,0.087222,1,0.000000,23.448858,0.790773,99,99,0,0,1,0,0
7,79999,62,70000,43,60000,40,9999,0.100000,99,792,0.000000,2,0.000000,25.878240,0.819153,99,99,0,0,0,0,0
7,79999,63,70000,43,60000,40,9999,0.100000,99,792,0.000000,1,1.000000,25.373959,18.272643,99,99,0,0,0,0,0
7,79999,64,70000,43,60000,40,9999,0.100000,99,792,0.000000,3,0.000000,14.236963,2.023765,99,99,0,0,0,0,0
7,79999,65,70000,43,60000,41,9999,0.100000,99,792,0.000000,3,5.000000,34.656092,13.239570,99,99,0,0,0,0,0
7,79999,66,70000,43,60000,40,9999,0.100000,99,792,0.000000,2,1.000000,24.837907,21.959581,99,99,0,0,0,0,0
7,79999,67,70000,43,60000,40,9999,0.100000,99,792,0.000000,2,0.000000,16.967737,0.119839,99,99,0,0,0,0,0
7,79999,68,70000,43,60000,40,9999,0.100000,99,792,0.000000,3,0.000000,21.745005,0.286738,99,99,0,0,0,0,0
7,79999,69,70000,43,60000,40,9999,0.100000,99,792,0.000000,2,0.000000,28.108742,0.183230,99,99,0,0,0,0,0
7,79999,70,70000,43,60000,40,9999,0.100000,99,792,0.000000,4,0.000000,21.145204,0.929195,99,99,0,0,0,0,0
7,79999,71,70000,43,60000,40,9999,0.100000,99,792,0.000000,1,0.000000,23.199211,0.577807,99,99,0,0,0,0,0
7,79999,72,70000,43,60000,40,9999,0.100000,99,792,0.000000,3,1.000000,23.677098,3.508470,99,99,0,0,0,0,0
7,79999,73,70000,43,60000,40,9999,0.100000,99,792,0.000000,2,2.000000,34.100075,21.015682,99,99,0,0,0,0,0
7,79999,74,70000,43,60000,40,9999,0.100000,99,792,0.000000,3,0.000000,29.803844,0.584765,99,99,0,0,0,0,0
7,79999,75,70000,43,60000,40,9999,0.100000,99,792,0.000000,4,0.000000,17.526641,4.445139,99,99,0,0,0,0,0
7,79999,76,70000,43,60000,40,9999,0.100000,99,792,0.000000,3,0.000000,16.357626,0.714387,99,99,0,0,0,0,0
7,79999,77,70000,43,60000,40,9999,0.100000,99,792,0.000000,1,0.000000,22.938798,0.857809,99,99,0,0,0,0,0
7,79999,78,70000,43,60000,40,9999,0.100000,99,792,0.000000,3,0.000000,17.088718,0.098447,99,99,0,0,0,0,0
7,79999,79,70000,43,60000,40,9999,0.100000,99,792,0.000000,2,2.000000,22.784907,16.856125,99,99,0,0,0,0,0
7,79999,80,70000,43,60000,40,9999,0.100000,99,792,0.000000,3,0.000000,32.400794,0.621765,99,99,0,0,0,0,0
7,79999,81,70000,43,60000,40,9999,0.100000,99,792,0.000000,2,0.000000,23.141039,0.160956,99,99,0,0,0,0,0
7,79999,82,70000,43,60000,40,9999,0.100000,99,792,0.000000,3,0.000000,21.453741,0.242818,99,99,0,0,0,0,0
7,79999,83,70000,43,60000,40,9999,0.100000,99,792,0.000000,3,0.000000,30.332882,2.780198,99,99,0,0,0,0,0
7,79999,84,70000,43,60000,40,9999,0.100000,99,792,0.000000,4,0.000000,25.756899,1.322035,99,99,0,0,0,0,0
7,79999,85,70000,43,60000,40,9999,0.100000,99,792,0.000000,4,0.000000,27.182398,0.474337,99,99,0,0,0,0,0
7,79999,86,70000,43,60000,0,9999,0.100000,99,792,0.001817,3,0.000000,28.907754,0.177836,99,99,0,0,0,0,1
7,79999,87,70000,43,60000,42,9999,0.100000,99,792,0.000000,1,7.000000,24.992446,7.716297,99,99,0,0,0,0,0
7,79999,88,70000,43,60000,40,9999,0.100000,99,792,0.000000,1,0.000000,31.606267,0.350722,99,99,0,0,0,0,0
7,79999,89,70000,43,60000,40,9999,0.100000,99,792,0.000000,3,0.000000,14.321939,0.454613,99,99,0,0,0,0,0
7,79999,90,70000,43,60000,40,9999,0.100000,99,792,0.000000,4,0.000000,25.692516,0.791075,99,99,0,0,0,0,0
7,79999,91,70000,43,60000,40,9999,0.100000,99,792,0.000000,3,0.000000,29.639446,0.555415,99,99,0,0,0,0,0
7,79999,92,70000,43,60000,40,9999,0.100000,99,792,0.000000,4,0.000000,14.906915,0.505290,99,99,0,0,0,0,0
7,79999,93,70000,43,60000,40,9999,0.100000,99,792,0.000000,2,0.000000,15.050050,0.986967,99,99,0,0,0,0,0
7,79999,94,70000,43,60000,40,9999,0.100000,99,792,0.000000,4,0.000000,29.781492,0.546219,99,99,0,0,0,0,0
7,79999,95,70000,43,60000,40,9999,0.100000,99,792,0.000000,1,0.000000,29.559961,0.130774,99,99,0,0,0,0,0
7,79999,96,70000,43,60000,42,9999,0.100000,99,792,0.000000,3,3.000000,11.281737,16.983569,99,99,0,0,0,0,0
7,79999,97,70000,43,60000,40,9999,0.100000,99,792,0.000000,3,0.000000,30.780772,2.679629,99,99,0,0,0,0,0
7,79999,98,70000,43,60000,40,9999,0.100000,99,792,0.000000,4,1.000000,22.185043,2.440082,99,99,0,0,0,0,0
7,79999,99,70000,43,60000,41,9999,0.100000,99,792,0.000000,1,4.000000,22.580811,11.514845,99,99,0,0,0,0,0
8,89999,0,80000,7,70000,0,9999,0.100000,99,891,0.883024,3,0.000000,30.557245,2.051875,99,99,0,0,1,0,0
8,89999,1,80000,7,70000,0,9999,0.100000,99,891,0.007478,4,0.000000,17.333255,0.150352,99,99,0,0,0,1,0
8,89999,2,80000,7,70000,41,9999,0.100000,99,891,0.000000,2,4.000000,34.744933,9.027847,99,99,0,0,0,0,0
8,89999,3,80000,7,70000,42,9999,0.100000,99,891,0.000000,3,8.000000,27.454979,26.664345,99,99,0,0,0,0,0
8,89999,4,80000,7,70000,40,9999,0.100000,99,891,0.000000,2,0.000000,23.287836,0.240785,99,99,0,0,0,0,0
8,89999,5,80000,7,70000,40,9999,0.100000,99,891,0.000000,2,0.000000,32.392716,0.452631,99,99,0,0,0,0,0
8,89999,6,80000,7,70000,41,9999,0.100000,99,891,0.000000,3,7.000000,37.817917,8.209492,99,99,0,0,0,0,0
8,89999,7,80000,47,70000,42,9999,0.100000,99,891,0.000000,2,7.000000,30.836399,14.579876,99,99,0,0,0,0,0
8,89999,8,80000,7,70000,0,9999,0.100000,99,891,0.542943,3,0.000000,31.536650,0.564479,99,99,0,1,0,0,0
8,89999,9,80000,7,70000,0,9999,0.100000,99,891,0.331634,2,0.000000,27.445490,0.788934,99,99,0,0,0,0,1
8,89999,10,80000,7,70000,40,9999,0.100000,99,891,0.000000,4,0.000000,27.645359,2.182995,99,99,0,0,0,0,0
8,89999,11,80000,7,70000,40,9999,0.100000,99,891,0.000000,4,0.000000,29.903553,0.112281,99,99,0,0,0,0,0
8,89999,12,80000,7,70000,40,9999,0.100000,99,891,0.000000,3,0.000000,29.375076,0.878443,99,99,0,0,0,0,0
8,89999,13,80000,7,70000,40,9999,0.100000,99,891,0.000000,4,1.000000,17.980623,10.531501,99,99,0,0,0,0,0
8,89999,14,80000,7,70000,41,9999,0.100000,99,891,0.000000,6,2.000000,12.537495,26.867110,99,99,0,0,0,0,0
8,89999,15,80000,7,70000,0,9999,0.100000,99,891,0.000093,4,0.000000,16.326314,0.233139,99,99,0,0,1,0,0
8,89999,16,80000,7,70000,42,9999,0.100000,99,891,0.000000,5,6.000000,20.126737,19.885094,99,99,0,0,0,0,0
8,89999,17,80000,7,70000,0,9999,0.100000,99,891,0.001069,1,0.000000,23.308743,0.087435,99,99,0,0,0,1,0
8,89999,18,80000,7,70000,40,9999,0.100000,99,891,0.000000,5,2.000000,25.311280,6.040883,99,99,0,0,0,0,0
8,89999,19,80000,7,70000,40,9999,0.100000,99,891,0.000000,1,0.000000,30.692946,1.814171,99,99,0,0,0,0,0
8,89999,20,80000,7,70000,0,9999,0.100000,99,891,0.034247,2,0.000000,29.427940,0.144316,99,99,0,0,0,0,1
8,89999,21,80000,7,70000,40,9999,0.100000,99,891,0.000000,1,0.000000,31.407688,0.441693,99,99,0,0,0,0,0
8,89999,22,80000,7,70000,40,9999,0.100000,99,891,0.000000,3,0.000000,14.927415,0.687054,99,99,0,0,0,0,0
8,89999,23,80000,7,70000,40,9999,0.100000,99,891,0.000000,3,0.000000,26.304943,0.227399,99,99,0,0,0,0,0
8,89999,24,80000,7,70000,40,9999,0.100000,99,891,0.000000,3,0.000000,14.200319,1.316750,99,99,0,0,0,0,0
8,89999,25,80000,7,70000,40,9999,0.100000,99,891,0.000000,3,1.000000,37.818189,4.393571,99,99,0,0,0,0,0
8,89999,26,80000,7,70000,40,9999,0.100000,99,891,0.000000,3,0.000000,29.857532,0.784322,99,99,0,0,0,0,0
8,89999,27,80000,7,70000,40,9999,0.100000,99,891,0.000000,4,0.000000,25.806216,1.278393,99,99,0,0,0,0,0
8,89999,28,80000,7,70000,40,9999,0.100000,99,891,0.000000,3,0.000000,16.357399,0.428128,99,99,0,0,0,0,0
8,89999,29,80000,7,70000,40,9999,0.100000,99,891,0.000000,4,0.000000,31.536978,10.039063,99,99,0,0,0,0,0
8,89999,30,80000,7,70000,40,9999,0.100000,99,891,0.000000,4,0.000000,24.575161,4.928320,99,99,0,0,0,0,0
8,89999,31,80000,7,70000,40,9999,0.100000,99,891,0.000000,4,0.000000,23.422756,0.803020,99,99,0,0,0,0,0
8,89999,32,80000,7,70000,41,9999,0.100000,99,891,0.000000,4,2.000000,11.481137,4.131469,99,99,0,0,0,0,0
8,89999,33,80000,7,70000,40,9999,0.100000,99,891,0.000000,2,0.000000,29.755744,0.933671,99,99,0,0,0,0,0
8,89999,34,80000,7,70000,41,9999,0.100000,99,891,0.000000,3,4.000000,24.647603,20.281935,99,99,0,0,0,0,0
8,89999,35,80000,7,70000,0,9999,0.100000,99,891,0.000108,5,0.000000,14.326437,0.309103,99,99,0,0,0,1,0
8,89999,36,80000,7,70000,40,9999,0.100000,99,891,0.000000,2,0.000000,27.502444,2.267123,99,99,0,0,0,0,0
8,89999,37,80000,7,70000,40,9999,0.100000,99,891,0.000000,3,0.000000,27.770604,0.765638,99,99,0,0,0,0,0
8,89999,38,80000,7,70000,40,9999,0.100000,99,891,0.000000,6,0.000000,17.786529,4.080306,99,99,0,0,0,0,0
8,89999,39,80000,7,70000,40,9999,0.100000,99,891,0.000000,4,0.000000,14.403379,0.885353,99,99,0,0,0,0,0
8,89999,40,80000,7,70000,40,9999,0.100000,99,891,0.000000,1,0.000000,27.342019,0.735797,99,99,0,0,0,0,0
8,89999,41,80000,7,70000,40,9999,0.100000,99,891,0.000000,2,0.000000,29.495334,2.785787,99,99,0,0,0,0,0
8,89999,42,80000,7,70000,40,9999,0.100000,99,891,0.000000,3,0.000000,25.678164,3.737721,99,99,0,0,0,0,0
8,89999,43,80000,7,70000,40,9999,0.100000,99,891,0.000000,5,2.000000,22.026170,3.423198,99,99,0,0,0,0,0
8,89999,44,80000,7,70000,40,9999,0.100000,99,891,0.000000,5,0.000000,27.139500,4.222568,99,99,0,0,0,0,0
8,89999,45,80000,7,70000,40,9999,0.100000,99,891,0.000000,3,0.000000,31.581445,0.139600,99,99,0,0,0,0,0
8,89999,46,80000,7,70000,40,9999,0.100000,99,891,0.000000,5,1.000000,16.652673,21.407698,99,99,0,0,0,0,0
8,89999,47,80000,7,70000,0,9999,0.100000,99,891,2.591515,3,0.000000,25.996627,0.832089,99,99,0,0,0,1,0
8,89999,48,80000,7,70000,40,9999,0.100000,99,891,0.000000,3,1.000000,24.893876,21.782834,99,99,0,0,0,0,0
8,89999,49,80000,7,70000,0,9999,0.100000,99,891,0.633078,2,0.000000,32.202965,0.305733,99,99,0,0,0,1,0
8,89999,50,80000,7,70000,42,9999,0.100000,99,891,0.000000,3,3.000000,14.157402,5.266310,99,99,0,0,0,0,0
8,89999,51,80000,7,70000,41,9999,0.100000,99,891,0.000000,2,3.000000,23.693017,5.668828,99,99,0,0,0,0,0
8,89999,52,80000,7,70000,40,9999,0.100000,99,891,0.000000,3,0.000000,29.802324,0.170648,99,99,0,0,0,0,0
8,89999,53,80000,7,70000,42,9999,0.100000,99,891,0.000000,5,8.000000,30.665740,24.525237,99,99,0,0,0,0,0
8,89999,54,80000,7,70000,40,9999,0.100000,99,891,0.000000,2,0.000000,15.411312,0.898648,99,99,0,0,0,0,0
8,89999,55,80000,7,70000,40,9999,0.100000,99,891,0.000000,3,0.000000,31.183880,0.487496,99,99,0,0,0,0,0
8,89999,56,80000,7,70000,40,9999,0.100000,99,891,0.000000,1,0.000000,33.239707,0.246228,99,99,0,0,0,0,0
8,89999,57,80000,7,70000,40,9999,0.100000,99,891,0.000000,5,0.000000,19.738031,0.697329,99,99,0,0,0,0,0
8,89999,58,80000,7,70000,40,9999,0.100000,99,891,0.000000,3,0.000000,25.219362,0.807722,99,99,0,0,0,0,0
8,89999,59,80000,7,70000,40,9999,0.100000,99,891,0.000000,3,0.000000,21.816216,0.238992,99,99,0,0,0,0,0
8,89999,60,80000,7,70000,40,9999,0.100000,99,891,0.000000,2,0.000000,27.492584,1.900429,99,99,0,0,0,0,0
8,89999,61,80000,7,70000,0,9999,0.100000,99,891,4.150565,1,0.000000,23.271862,1.142910,99,99,0,0,1,0,0
8,89999,62,80000,7,70000,40,9999,0.100000,99,891,0.000000,2,0.000000,25.673309,0.877712,99,99,0,0,0,0,0
8,89999,63,80000,7,70000,40,9999,0.100000,99,891,0.000000,1,2.000000,24.698847,21.891913,99,99,0,0,0,0,0
8,89999,64,80000,7,70000,40,9999,0.100000,99,891,0.000000,3,0.000000,14.315378,1.516684,99,99,0,0,0,0,0
8,89999,65,80000,7,70000,1,9999,0.100000,99,891,0.073225,3,4.000000,29.132240,4.200260,99,99,0,0,0,0,1
8,89999,66,80000,7,70000,40,9999,0.100000,99,891,0.000000,2,0.000000,25.072950,17.948576,99,99,0,0,0,0,0
8,89999,67,80000,7,70000,40,9999,0.135000,99,891,0.000000,2,0.000000,16.966424,0.117467,99,99,0,0,0,0,0
8,89999,68,80000,7,70000,40,9999,0.100000,99,891,0.000000,3,0.000000,21.590972,1.060120,99,99,0,0,0,0,0
8,89999,69,80000,7,70000,40,9999,0.100000,99,891,0.000000,2,0.000000,28.110232,0.176477,99,99,0,0,0,0,0
8,89999,70,80000,7,70000,40,9999,0.100000,99,891,0.000000,4,0.000000,20.455030,0.948247,99,99,0,0,0,0,0
8,89999,71,80000,7,70000,40,9999,0.100000,99,891,0.000000,1,0.000000,23.138366,1.100853,99,99,0,0,0,0,0
8,89999,72,80000,7,70000,41,9999,0.100000,99,891,0.000000,3,3.000000,24.816388,5.516779,99,99,0,0,0,0,0
8,89999,73,80000,7,70000,41,9999,0.100000,99,891,0.000000,2,5.000000,31.719442,23.267032,99,99,0,0,0,0,0
8,89999,74,80000,7,70000,40,9999,0.100000,99,891,0.000000,3,0.000000,29.803770,0.581967,99,99,0,0,0,0,0
8,89999,75,80000,7,70000,40,9999,0.100000,99,891,0.000000,4,0.000000,18.181174,8.592119,99,99,0,0,0,0,0
8,89999,76,80000,7,70000,40,9999,0.100000,99,891,0.000000,3,0.000000,16.405796,0.686068,99,99,0,0,0,0,0
8,89999,77,80000,7,70000,40,9999,0.100000,99,891,0.000000,1,1.000000,22.997787,1.490172,99,99,0,0,0,0,0
8,89999,78,80000,7,70000,40,9999,0.100000,99,891,0.000000,3,0.000000,17.088399,0.108687,99,99,0,0,0,0,0
8,89999,79,80000,7,70000,40,9999,0.100000,99,891,0.000000,2,2.000000,25.065181,13.463418,99,99,0,0,0,0,0
8,89999,80,80000,7,70000,40,9999,0.100000,99,891,0.000000,3,0.000000,32.447035,0.573088,99,99,0,0,0,0,0
8,89999,81,80000,7,70000,40,9999,0.100000,99,891,0.000000,2,0.000000,23.140958,0.166922,99,99,0,0,0,0,0
8,89999,82,80000,7,70000,40,9999,0.100000,99,891,0.000000,3,0.000000,21.456833,0.240137,99,99,0,0,0,0,0
8,89999,83,80000,7,70000,40,9999,0.100000,99,891,0.000000,3,0.000000,30.900052,1.019454,99,99,0,0,0,0,0
8,89999,84,80000,7,70000,40,9999,0.100000,99,891,0.000000,4,2.000000,24.981033,6.170681,99,99,0,0,0,0,0
8,89999,85,80000,7,70000,40,9999,0.100000,99,891,0.000000,4,0.000000,27.264058,0.461074,99,99,0,0,0,0,0
8,89999,86,80000,7,70000,0,9999,0.100000,99,891,0.002149,3,0.000000,28.906390,0.178307,99,99,0,0,0,0,1
8,89999,87,80000,7,70000,40,9999,0.100000,99,891,0.000000,2,0.000000,30.549621,5.256199,99,99,0,0,0,0,0
8,89999,88,80000,7,70000,40,9999,0.100000,99,891,0.000000,1,0.000000,31.741642,0.354330,99,99,0,0,0,0,0
8,89999,89,80000,7,70000,40,9999,0.100000,99,891,0.000000,3,0.000000,14.359184,0.437030,99,99,0,0,0,0,0
8,89999,90,80000,7,70000,40,9999,0.100000,99,891,0.000000,4,0.000000,25.484515,0.797022,99,99,0,0,0,0,0
8,89999,91,80000,7,70000,40,9999,0.100000,99,891,0.000000,3,0.000000,29.639300,0.730162,99,99,0,0,0,0,0
8,89999,92,80000,7,70000,40,9999,0.100000,99,891,0.000000,4,0.000000,14.775478,0.650586,99,99,0,0,0,0,0
8,89999,93,80000,7,70000,40,9999,0.100000,99,891,0.000000,2,0.000000,14.918716,1.110457,99,99,0,0,0,0,0
8,89999,94,80000,7,70000,40,9999,0.100000,99,891,0.000000,4,0.000000,29.781620,0.587364,99,99,0,0,0,0,0
8,89999,95,80000,7,70000,40,9999,0.100000,99,891,0.000000,1,0.000000,29.515132,0.119880,99,99,0,0,0,0,0
8,89999,96,80000,7,70000,40,9999,0.100000,99,891,0.000000,3,0.000000,13.984238,1.519380,99,99,0,0,0,0,0
8,89999,97,80000,7,70000,40,9999,0.100000,99,891,0.000000,3,0.000000,30.856418,2.472971,99,99,0,0,0,0,0
8,89999,98,80000,7,70000,40,9999,0.100000,99,891,0.000000,4,0.000000,23.218663,0.787258,99,99,0,0,0,0,0
8,89999,99,80000,7,70000,43,9999,0.100000,99,891,0.000000,2,7.000000,18.254738,23.648591,99,99,0,0,0,0,0
9,99999,0,90000,61,80000,0,9999,0.100000,99,990,0.568802,3,0.000000,30.613148,0.882947,99,99,0,0,1,0,0
9,99999,1,90000,61,80000,0,9999,0.100000,99,990,0.005463,4,0.000000,17.334628,0.150059,99,99,0,0,0,1,0
9,99999,2,90000,61,80000,40,9999,0.100000,99,990,0.000000,3,0.000000,37.281815,1.346783,99,99,0,0,0,0,0
9,99999,3,90000,61,80000,43,9999,0.100000,99,990,0.000000,3,8.000000,19.436074,26.066967,99,99,0,0,0,0,0
9,99999,4,90000,61,80000,40,9999,0.100000,99,990,0.000000,2,0.000000,23.288167,0.236220,99,99,0,0,0,0,0
9,99999,5,90000,61,80000,40,9999,0.100000,99,990,0.000000,2,0.000000,32.537653,0.522539,99,99,0,0,0,0,0
9,99999,6,90000,61,80000,40,9999,0.100000,99,990,0.000000,4,1.000000,30.177476,19.461366,99,99,0,0,0,0,0
9,99999,7,90000,61,80000,43,9999,0.100000,99,990,0.000000,3,12.000000,37.052428,19.662738,99,99,0,0,0,0,0
9,99999,8,90000,61,80000,0,9999,0.100000,99,990,0.631401,3,0.000000,31.648688,0.636664,99,99,0,1,0,0,0
9,99999,9,90000,61,80000,0,9999,0.100000,99,990,0.210714,2,0.000000,27.996287,0.164031,99,99,0,0,0,0,1
9,99999,10,90000,61,80000,40,9999,0.100000,99,990,0.000000,4,0.000000,28.152433,0.465345,99,99,0,0,0,0,0
9,99999,11,90000,61,80000,40,9999,0.100000,99,990,0.000000,4,0.000000,29.903331,0.126795,99,99,0,0,0,0,0
9,99999,12,90000,61,80000,0,9999,0.100000,99,990,0.078158,3,0.000000,29.327076,0.362435,99,99,0,0,0,0,1
9,99999,13,90000,61,80000,41,9999,0.100000,99,990,0.000000,4,3.000000,17.864208,20.906346,99,99,0,0,0,0,0
9,99999,14,90000,61,80000,40,9999,0.100000,99,990,0.000000,6,0.000000,13.949165,2.822218,99,99,0,0,0,0,0
9,99999,15,90000,61,80000,0,9999,0.100000,99,990,0.034953,4,0.000000,16.389147,0.313476,99,99,0,0,1,0,0
9,99999,16,90000,61,80000,99,9999,0.100000,99,990,88.746814,6,14.000000,14.084646,29.173408,99,99,1,0,0,0,0
9,99999,17,90000,61,80000,0,9999,0.100000,99,990,0.000609,1,0.000000,23.307644,0.077556,99,99,0,0,0,1,0
9,99999,18,90000,61,80000,40,9999,0.100000,99,990,0.000000,5,0.000000,23.458694,0.436412,99,99,0,0,0,0,0
9,99999,19,90000,61,80000,40,9999,0.100000,99,990,0.000000,1,0.000000,30.754992,0.886156,99,99,0,0,0,0,0
9,99999,20,90000,61,80000,40,9999,0.100000,99,990,0.000000,3,0.000000,29.381979,0.526691,99,99,0,0,0,0,0
9,99999,21,90000,61,80000,40,9999,0.100000,99,990,0.000000,1,0.000000,31.516455,0.497282,99,99,0,0,0,0,0
9,99999,22,90000,61,80000,40,9999,0.100000,99,990,0.000000,3,0.000000,14.843171,0.804670,99,99,0,0,0,0,0
9,99999,23,90000,61,80000,40,9999,0.100000,99,990,0.000000,3,0.000000,26.305017,0.229026,99,99,0,0,0,0,0
9,99999,24,90000,61,80000,40,9999,0.100000,99,990,0.000000,3,0.000000,14.234572,0.976535,99,99,0,0,0,0,0
9,99999,25,90000,61,80000,41,9999,0.100000,99,990,0.000000,3,5.000000,36.672776,30.368303,99,99,0,0,0,0,0
9,99999,26,90000,61,80000,40,9999,0.100000,99,990,0.000000,3,0.000000,29.857296,1.872819,99,99,0,0,0,0,0
9,99999,27,90000,61,80000,40,9999,0.100000,99,990,0.000000,4,0.000000,25.752644,1.218310,99,99,0,0,0,0,0
9,99999,28,90000,61,80000,40,9999,0.100000,99,990,0.000000,3,0.000000,16.419724,0.470316,99,99,0,0,0,0,0
9,99999,29,90000,61,80000,40,9999,0.100000,99,990,0.000000,4,1.000000,32.071522,8.804039,99,99,0,0,0,0,0
9,99999,30,90000,61,80000,40,9999,0.135000,99,990,0.000000,4,0.000000,24.696167,5.373721,99,99,0,0,0,0,0
9,99999,31,90000,61,80000,40,9999,0.100000,99,990,0.000000,4,0.000000,23.391058,0.559336,99,99,0,0,0,0,0
9,99999,32,90000,61,80000,40,9999,0.100000,99,990,0.000000,4,0.000000,14.091265,1.174115,99,99,0,0,0,0,0
9,99999,33,90000,61,80000,40,9999,0.100000,99,990,0.000000,2,0.000000,29.795652,1.050202,99,99,0,0,0,0,0
9,99999,34,90000,61,80000,40,9999,0.100000,99,990,0.000000,3,1.000000,28.311196,4.855701,99,99,0,0,0,0,0
9,99999,35,90000,61,80000,0,9999,0.100000,99,990,0.000240,5,0.000000,14.389513,0.447683,99,99,0,0,0,1,0
9,99999,36,90000,61,80000,40,9999,0.100000,99,990,0.000000,2,0.000000,28.192291,0.724507,99,99,0,0,0,0,0
9,99999,37,90000,61,80000,40,9999,0.100000,99,990,0.000000,3,0.000000,28.309449,0.148827,99,99,0,0,0,0,0
9,99999,38,90000,61,80000,44,9999,0.100000,99,990,0.000000,6,8.000000,17.970342,19.045038,99,99,0,0,0,0,0
9,99999,39,90000,61,80000,40,9999,0.100000,99,990,0.000000,4,0.000000,14.467473,0.877206,99,99,0,0,0,0,0
9,99999,40,90000,61,80000,40,9999,0.100000,99,990,0.000000,1,0.000000,27.895961,0.480052,99,99,0,0,0,0,0
9,99999,41,90000,61,80000,40,9999,0.100000,99,990,0.000000,2,0.000000,29.442649,4.125890,99,99,0,0,0,0,0
9,99999,42,90000,61,80000,40,9999,0.100000,99,990,0.000000,3,0.000000,25.793952,2.063642,99,99,0,0,0,0,0
9,99999,43,90000,61,80000,40,9999,0.100000,99,990,0.000000,5,2.000000,19.476003,12.366206,99,99,0,0,0,0,0
9,99999,44,90000,61,80000,40,9999,0.100000,99,990,0.000000,5,0.000000,27.210780,4.457888,99,99,0,0,0,0,0
9,99999,45,90000,61,80000,40,9999,0.100000,99,990,0.000000,3,0.000000,31.580692,0.141462,99,99,0,0,0,0,0
9,99999,46,90000,61,80000,43,9999,0.100000,99,990,0.000000,5,6.000000,16.861623,23.072821,99,99,0,0,0,0,0
9,99999,47,90000,61,80000,0,9999,0.100000,99,990,3.115109,3,0.000000,25.933709,0.934424,99,99,0,0,0,1,0
9,99999,48,90000,61,80000,40,9999,0.100000,99,990,0.000000,4,0.000000,24.912478,21.658085,99,99,0,0,0,0,0
9,99999,49,90000,61,80000,0,9999,0.100000,99,990,0.712217,2,0.000000,32.311749,0.333505,99,99,0,0,0,1,0
9,99999,50,90000,61,80000,40,9999,0.100000,99,990,0.000000,4,0.000000,11.000946,0.265981,99,99,0,0,0,0,0
9,99999,51,90000,61,80000,40,9999,0.100000,99,990,0.000000,3,2.000000,26.892910,4.134958,99,99,0,0,0,0,0
9,99999,52,90000,61,80000,40,9999,0.100000,99,990,0.000000,3,0.000000,29.802345,0.160458,99,99,0,0,0,0,0
9,99999,53,90000,61,80000,42,9999,0.100000,99,990,0.000000,5,8.000000,32.888572,23.181491,99,99,0,0,0,0,0
9,99999,54,90000,61,80000,40,9999,0.100000,99,990,0.000000,2,0.000000,15.476199,0.941625,99,99,0,0,0,0,0
9,99999,55,90000,61,80000,40,9999,0.100000,99,990,0.000000,3,0.000000,31.289062,0.522962,99,99,0,0,0,0,0
9,99999,56,90000,61,80000,40,9999,0.100000,99,990,0.000000,1,0.000000,33.241182,0.245190,99,99,0,0,0,0,0
9,99999,57,90000,61,80000,40,9999,0.100000,99,990,0.000000,5,2.000000,19.334983,14.250282,99,99,0,0,0,0,0
9,99999,58,90000,61,80000,40,9999,0.100000,99,990,0.000000,3,0.000000,25.156434,0.925132,99,99,0,0,0,0,0
9,99999,59,90000,61,80000,40,9999,0.100000,99,990,0.000000,3,0.000000,21.818231,0.229519,99,99,0,0,0,0,0
9,99999,60,90000,61,80000,40,9999,0.100000,99,990,0.000000,2,0.000000,28.077928,0.336289,99,99,0,0,0,0,0
9,99999,61,90000,47,80000,0,9999,0.100000,99,990,2.395851,1,0.000000,23.795419,0.736868,99,99,0,0,1,0,0
9,99999,62,90000,61,80000,40,9999,0.100000,99,990,0.000000,2,0.000000,25.617090,0.981745,99,99,0,0,0,0,0
9,99999,63,90000,61,80000,40,9999,0.100000,99,990,0.000000,1,1.000000,25.206130,12.477205,99,99,0,0,0,0,0
9,99999,64,90000,61,80000,40,9999,0.100000,99,990,0.000000,3,0.000000,14.369651,1.539792,99,99,0,0,0,0,0
9,99999,65,90000,61,80000,0,9999,0.100000,99,990,0.050198,4,0.000000,25.410051,0.144569,99,99,0,0,0,0,1
9,99999,66,90000,61,80000,40,9999,0.100000,99,990,0.000000,2,0.000000,24.847878,20.485666,99,99,0,0,0,0,0
9,99999,67,90000,61,80000,40,9999,0.100000,99,990,0.000000,2,0.000000,16.965273,0.114449,99,99,0,0,0,0,0
9,99999,68,90000,61,80000,0,9999,0.100000,99,990,0.226177,3,0.000000,21.472936,1.052485,99,99,0,0,0,0,1
9,99999,69,90000,61,80000,40,9999,0.100000,99,990,0.000000,2,0.000000,28.110816,0.180620,99,99,0,0,0,0,0
9,99999,70,90000,61,80000,41,9999,0.100000,99,990,0.000000,4,4.000000,19.745249,17.629198,99,99,0,0,0,0,0
9,99999,71,90000,61,80000,40,9999,0.100000,99,990,0.000000,1,0.000000,23.943443,0.826343,99,99,0,0,0,0,0
9,99999,72,90000,61,80000,40,9999,0.100000,99,990,0.000000,3,1.000000,27.989363,5.163418,99,99,0,0,0,0,0
9,99999,73,90000,61,80000,40,9999,0.100000,99,990,0.000000,2,0.000000,37.538509,1.008038,99,99,0,0,0,0,0
9,99999,74,90000,61,80000,40,9999,0.100000,99,990,0.000000,3,0.000000,29.803760,0.587105,99,99,0,0,0,0,0
9,99999,75,90000,61,80000,42,9999,0.100000,99,990,0.000000,4,5.000000,17.718437,22.866014,99,99,0,0,0,0,0
9,99999,76,90000,61,80000,40,9999,0.100000,99,990,0.000000,3,0.000000,16.468105,0.738285,99,99,0,0,0,0,0
9,99999,77,90000,61,80000,40,9999,0.100000,99,990,0.000000,1,1.000000,24.090090,1.517525,99,99,0,0,0,0,0
9,99999,78,90000,61,80000,40,9999,0.100000,99,990,0.000000,3,0.000000,17.089081,0.099005,99,99,0,0,0,0,0
9,99999,79,90000,61,80000,40,9999,0.100000,99,990,0.000000,2,0.000000,27.470332,1.794856,99,99,0,0,0,0,0
9,99999,80,90000,61,80000,40,9999,0.065000,99,990,0.000000,3,0.000000,32.603656,0.720099,99,99,0,0,0,0,0
9,99999,81,90000,61,80000,40,9999,0.100000,99,990,0.000000,2,0.000000,23.140683,0.128380,99,99,0,0,0,0,0
9,99999,82,90000,61,80000,40,9999,0.100000,99,990,0.000000,3,0.000000,21.457095,0.231873,99,99,0,0,0,0,0
9,99999,83,90000,61,80000,40,9999,0.100000,99,990,0.000000,3,0.000000,31.159895,0.994085,99,99,0,0,0,0,0
9,99999,84,90000,61,80000,40,9999,0.100000,99,990,0.000000,4,2.000000,27.356647,3.881989,99,99,0,0,0,0,0
9,99999,85,90000,61,80000,40,9999,0.100000,99,990,0.000000,4,0.000000,27.337114,0.485022,99,99,0,0,0,0,0
9,99999,86,90000,61,80000,0,9999,0.100000,99,990,0.139337,3,0.000000,28.904974,0.189605,99,99,0,0,0,0,1
9,99999,87,90000,61,80000,40,9999,0.100000,99,990,0.000000,2,2.000000,31.184476,17.016750,99,99,0,0,0,0,0
9,99999,88,90000,61,80000,40,9999,0.100000,99,990,0.000000,1,0.000000,31.853121,0.416908,99,99,0,0,0,0,0
9,99999,89,90000,61,80000,40,9999,0.100000,99,990,0.000000,3,0.000000,14.420926,0.576818,99,99,0,0,0,0,0
9,99999,90,90000,61,80000,40,9999,0.100000,99,990,0.000000,4,0.000000,25.419547,0.898763,99,99,0,0,0,0,0
9,99999,91,90000,61,80000,41,9999,0.100000,99,990,0.000000,3,4.000000,29.639730,9.999294,99,99,0,0,0,0,0
9,99999,92,90000,61,80000,40,9999,0.100000,99,990,0.000000,4,0.000000,14.647024,0.735931,99,99,0,0,0,0,0
9,99999,93,90000,61,80000,40,9999,0.100000,99,990,0.000000,2,0.000000,14.788653,1.230045,99,99,0,0,0,0,0
9,99999,94,90000,61,80000,40,9999,0.100000,99,990,0.000000,4,0.000000,29.781927,1.633356,99,99,0,0,0,0,0
9,99999,95,90000,61,80000,40,9999,0.100000,99,990,0.000000,1,0.000000,29.472401,0.137564,99,99,0,0,0,0,0
9,99999,96,90000,61,80000,40,9999,0.100000,99,990,0.000000,3,0.000000,14.362559,0.704617,99,99,0,0,0,0,0
9,99999,97,90000,61,80000,40,9999,0.100000,99,990,0.000000,3,0.000000,30.916617,1.334977,99,99,0,0,0,0,0
9,99999,98,90000,61,80000,40,9999,0.100000,99,990,0.000000,4,0.000000,23.221900,0.618521,99,99,0,0,0,0,0
9,99999,99,90000,61,80000,40,9999,0.100000,99,990,0.000000,3,1.000000,11.193913,13.721557,99,99,0,0,0,0,0
10,109999,0,100000,16,90000,0,9999,0.100000,99,1089,0.265719,3,0.000000,30.586990,0.793849,99,99,0,0,1,0,0
10,109999,1,100000,16,90000,0,9999,0.100000,99,1089,0.005798,4,0.000000,17.335350,0.149345,99,99,0,0,0,1,0
10,109999,2,100000,16,90000,40,9999,0.100000,99,1089,0.000000,3,0.000000,37.009101,0.474763,99,99,0,0,0,0,0
10,109999,3,100000,16,90000,42,9999,0.100000,99,1089,0.000000,4,3.000000,11.810223,15.975416,99,99,0,0,0,0,0
10,109999,4,100000,16,90000,40,9999,0.100000,99,1089,0.000000,2,0.000000,23.289637,0.225816,99,99,0,0,0,0,0
10,109999,5,100000,16,90000,40,9999,0.100000,99,1089,0.000000,2,0.000000,32.657789,0.504775,99,99,0,0,0,0,0
10,109999,6,100000,16,90000,40,9999,0.100000,99,1089,0.000000,4,0.000000,29.269976,21.644214,99,99,0,0,0,0,0
10,109999,7,100000,16,90000,42,9999,0.100000,99,1089,0.000000,4,8.000000,28.909587,21.669799,99,99,0,0,0,0,0
10,109999,8,100000,16,90000,0,9999,0.100000,99,1089,0.783840,3,0.000000,31.768989,0.662493,99,99,0,1,0,0,0
10,109999,9,100000,16,90000,40,9999,0.100000,99,1089,0.000000,2,0.000000,28.116609,0.903837,99,99,0,0,0,0,0
10,109999,10,100000,16,90000,40,9999,0.100000,99,1089,0.000000,4,0.000000,28.255379,0.895039,99,99,0,0,0,0,0
10,109999,11,100000,16,90000,40,9999,0.100000,99,1089,0.000000,4,0.000000,29.902370,0.110612,99,99,0,0,0,0,0
10,109999,12,100000,16,90000,0,9999,0.100000,99,1089,0.088013,3,0.000000,29.273244,0.149308,99,99,0,0,0,0,1
10,109999,13,100000,16,90000,43,9999,0.100000,99,1089,0.000000,4,5.000000,14.590917,12.421366,99,99,0,0,0,0,0
10,109999,14,100000,16,90000,40,9999,0.100000,99,1089,0.000000,6,0.000000,14.234669,3.950015,99,99,0,0,0,0,0
10,109999,15,100000,16,90000,0,9999,0.100000,99,1089,0.093744,4,0.000000,16.593321,0.367844,99,99,0,0,1,0,0
10,109999,16,100000,47,90000,41,9999,0.100000,99,1089,0.000000,7,5.000000,28.335659,31.988357,99,99,0,0,0,0,0
10,109999,17,100000,16,90000,0,9999,0.100000,99,1089,0.001937,1,0.000000,23.307004,0.087195,99,99,0,0,0,1,0
10,109999,18,100000,16,90000,42,9999,0.100000,99,1089,0.000000,5,5.000000,23.529654,16.262348,99,99,0,0,0,0,0
10,109999,19,100000,16,90000,40,9999,0.100000,99,1089,0.000000,1,0.000000,30.679997,0.769158,99,99,0,0,0,0,0
10,109999,20,100000,16,90000,40,9999,0.100000,99,1089,0.000000,3,0.000000,29.331665,0.584308,99,99,0,0,0,0,0
10,109999,21,100000,16,90000,40,9999,0.100000,99,1089,0.000000,1,0.000000,31.633725,0.515210,99,99,0,0,0,0,0
10,109999,22,100000,16,90000,0,9999,0.100000,99,1089,0.059656,3,0.000000,14.976122,2.819799,99,99,0,0,0,1,0
10,109999,23,100000,16,90000,40,9999,0.100000,99,1089,0.000000,3,0.000000,26.305275,0.222281,99,99,0,0,0,0,0
10,109999,24,100000,16,90000,40,9999,0.100000,99,1089,0.000000,3,0.000000,14.489833,1.539691,99,99,0,0,0,0,0
10,109999,25,100000,16,90000,40,9999,0.100000,99,1089,0.000000,4,3.000000,32.473199,25.313987,99,99,0,0,0,0,0
10,109999,26,100000,16,90000,40,9999,0.100000,99,1089,0.000000,3,0.000000,29.732195,2.648726,99,99,0,0,0,0,0
10,109999,27,100000,16,90000,40,9999,0.100000,99,1089,0.000000,4,1.000000,25.695578,1.620836,99,99,0,0,0,0,0
10,109999,28,100000,16,90000,40,9999,0.100000,99,1089,0.000000,3,0.000000,16.619441,0.495086,99,99,0,0,0,0,0
10,109999,29,100000,16,90000,42,9999,0.100000,99,1089,0.000000,4,7.000000,30.611944,24.012348,99,99,0,0,0,0,0
10,109999,30,100000,16,90000,40,9999,0.100000,99,1089,0.000000,4,0.000000,24.822434,5.382933,99,99,0,0,0,0,0
10,109999,31,100000,16,90000,40,9999,0.100000,99,1089,0.000000,4,0.000000,23.460174,0.566010,99,99,0,0,0,0,0
10,109999,32,100000,16,90000,40,9999,0.100000,99,1089,0.000000,4,0.000000,14.373904,3.700527,99,99,0,0,0,0,0
10,109999,33,100000,16,90000,40,9999,0.100000,99,1089,0.000000,2,0.000000,29.834190,1.123260,99,99,0,0,0,0,0
10,109999,34,100000,16,90000,40,9999,0.100000,99,1089,0.000000,3,0.000000,29.875715,0.102354,99,99,0,0,0,0,0
10,109999,35,100000,16,90000,40,9999,0.100000,99,1089,0.000000,5,0.000000,14.596597,0.706607,99,99,0,0,0,0,0
10,109999,36,100000,16,90000,40,9999,0.100000,99,1089,0.000000,2,0.000000,28.272776,0.907339,99,99,0,0,0,0,0
10,109999,37,100000,16,90000,0,9999,0.100000,99,1089,2.003150,3,0.000000,28.401885,0.721057,99,99,0,0,0,0,1
10,109999,38,100000,16,90000,41,9999,0.100000,99,1089,0.000000,7,2.000000,14.076728,12.724376,99,99,0,0,0,0,0
10,109999,39,100000,16,90000,40,9999,0.100000,99,1089,0.000000,4,0.000000,14.673336,4.899523,99,99,0,0,0,0,0
10,109999,40,100000,16,90000,40,9999,0.100000,99,1089,0.000000,1,0.000000,28.028025,0.954802,99,99,0,0,0,0,0
10,109999,41,100000,16,90000,40,9999,0.100000,99,1089,0.000000,2,0.000000,29.487579,1.214556,99,99,0,0,0,0,0
10,109999,42,100000,16,90000,40,9999,0.100000,99,1089,0.000000,3,1.000000,25.733920,2.270799,99,99,0,0,0,0,0
10,109999,43,100000,16,90000,41,9999,0.100000,99,1089,0.000000,5,2.000000,17.629560,23.166003,99,99,0,0,0,0,0
10,109999,44,100000,16,90000,40,9999,0.100000,99,1089,0.000000,5,0.000000,27.286454,4.946974,99,99,0,0,0,0,0
10,109999,45,100000,16,90000,40,9999,0.100000,99,1089,0.000000,3,0.000000,31.580456,0.144294,99,99,0,0,0,0,0
10,109999,46,100000,16,90000,42,9999,0.100000,99,1089,0.000000,6,3.000000,11.060866,11.231401,99,99,0,0,0,0,0
10,109999,47,100000,16,90000,0,9999,0.100000,99,1089,4.948766,3,1.000000,25.883491,1.507711,99,99,0,0,0,1,0
10,109999,48,100000,16,90000,40,9999,0.100000,99,1089,0.000000,4,1.000000,24.969558,1.681451,99,99,0,0,0,0,0
10,109999,49,100000,16,90000,0,9999,0.100000,99,1089,0.790123,2,0.000000,32.430130,0.336840,99,99,0,0,0,1,0
10,109999,50,100000,16,90000,40,9999,0.100000,99,1089,0.000000,4,0.000000,11.031624,0.168080,99,99,0,0,0,0,0
10,109999,51,100000,16,90000,42,9999,0.100000,99,1089,0.000000,3,8.000000,29.371224,16.915136,99,99,0,0,0,0,0
10,109999,52,100000,16,90000,40,9999,0.100000,99,1089,0.000000,3,0.000000,29.802333,0.161171,99,99,0,0,0,0,0
10,109999,53,100000,16,90000,41,9999,0.100000,99,1089,0.000000,5,4.000000,28.505719,15.180162,99,99,0,0,0,0,0
10,109999,54,100000,16,90000,40,9999,0.100000,99,1089,0.000000,2,0.000000,15.684879,1.042875,99,99,0,0,0,0,0
10,109999,55,100000,16,90000,40,9999,0.100000,99,1089,0.000000,3,0.000000,31.402861,0.672379,99,99,0,0,0,0,0
10,109999,56,100000,16,90000,40,9999,0.100000,99,1089,0.000000,1,0.000000,33.241630,0.242959,99,99,0,0,0,0,0
10,109999,57,100000,16,90000,40,9999,0.100000,99,1089,0.000000,5,1.000000,17.361437,19.239259,99,99,0,0,0,0,0
10,109999,58,100000,16,90000,40,9999,0.100000,99,1089,0.000000,3,1.000000,25.107035,1.557137,99,99,0,0,0,0,0
10,109999,59,100000,16,90000,40,9999,0.100000,99,1089,0.000000,3,0.000000,21.818495,0.244500,99,99,0,0,0,0,0
10,109999,60,100000,16,90000,40,9999,0.100000,99,1089,0.000000,2,0.000000,28.193049,0.810094,99,99,0,0,0,0,0
10,109999,61,100000,16,90000,0,9999,0.100000,99,1089,0.841890,1,0.000000,23.922490,0.245514,99,99,0,0,1,0,0
10,109999,62,100000,16,90000,40,9999,0.100000,99,1089,0.000000,2,1.000000,25.562792,1.560614,99,99,0,0,0,0,0
10,109999,63,100000,16,90000,40,9999,0.100000,99,1089,0.000000,1,1.000000,26.243303,17.931213,99,99,0,0,0,0,0
10,109999,64,100000,16,90000,40,9999,0.100000,99,1089,0.000000,3,0.000000,14.567289,1.688006,99,99,0,0,0,0,0
10,109999,65,100000,16,90000,0,9999,0.100000,99,1089,0.087992,5,0.000000,25.420252,0.156677,99,99,0,0,0,0,1
10,109999,66,100000,16,90000,40,9999,0.100000,99,1089,0.000000,2,0.000000,24.536717,15.585932,99,99,0,0,0,0,0
10,109999,67,100000,16,90000,40,9999,0.100000,99,1089,0.000000,2,0.000000,16.964052,0.114656,99,99,0,0,0,0,0
10,109999,68,100000,16,90000,0,9999,0.100000,99,1089,0.000202,3,0.000000,21.559713,0.108621,99,99,0,0,0,0,1
10,109999,69,100000,16,90000,40,9999,0.100000,99,1089,0.000000,2,0.000000,28.111535,0.189367,99,99,0,0,0,0,0
10,109999,70,100000,16,90000,40,9999,0.100000,99,1089,0.000000,4,1.000000,16.118689,17.988900,99,99,0,0,0,0,0
10,109999,71,100000,16,90000,40,9999,0.100000,99,1089,0.000000,1,0.000000,24.160891,0.310608,99,99,0,0,0,0,0
10,109999,72,100000,16,90000,40,9999,0.100000,99,1089,0.000000,3,3.000000,29.750891,19.643632,99,99,0,0,0,0,0
10,109999,73,100000,16,90000,40,9999,0.100000,99,1089,0.000000,2,0.000000,36.941474,0.362775,99,99,0,0,0,0,0
10,109999,74,100000,16,90000,40,9999,0.100000,99,1089,0.000000,3,0.000000,29.803763,0.581331,99,99,0,0,0,0,0
10,109999,75,100000,16,90000,42,9999,0.100000,99,1089,0.000000,5,3.000000,12.700593,20.182481,99,99,0,0,0,0,0
10,109999,76,100000,16,90000,40,9999,0.100000,99,1089,0.000000,3,0.000000,16.665692,0.729134,99,99,0,0,0,0,0
10,109999,77,100000,16,90000,40,9999,0.100000,99,1089,0.000000,1,0.000000,24.540772,0.483480,99,99,0,0,0,0,0
10,109999,78,100000,16,90000,40,9999,0.100000,99,1089,0.000000,3,0.000000,17.088530,0.098095,99,99,0,0,0,0,0
10,109999,79,100000,16,90000,40,9999,0.100000,99,1089,0.000000,2,0.000000,27.882932,1.130974,99,99,0,0,0,0,0
10,109999,80,100000,16,90000,40,9999,0.100000,99,1089,0.000000,3,0.000000,32.725734,0.664601,99,99,0,0,0,0,0
10,109999,81,100000,16,90000,40,9999,0.100000,99,1089,0.000000,2,0.000000,23.140516,0.160296,99,99,0,0,0,0,0
10,109999,82,100000,16,90000,40,9999,0.100000,99,1089,0.000000,3,0.000000,21.460204,0.243483,99,99,0,0,0,0,0
10,109999,83,100000,16,90000,40,9999,0.100000,99,1089,0.000000,3,0.000000,31.441981,0.986602,99,99,0,0,0,0,0
10,109999,84,100000,16,90000,41,9999,0.100000,99,1089,0.000000,4,5.000000,29.470580,8.961457,99,99,0,0,0,0,0
10,109999,85,100000,16,90000,40,9999,0.100000,99,1089,0.000000,4,0.000000,27.412146,0.463447,99,99,0,0,0,0,0
10,109999,86,100000,16,90000,0,9999,0.100000,99,1089,0.152817,3,0.000000,28.888224,0.185468,99,99,0,0,0,0,1
10,109999,87,100000,16,90000,40,9999,0.100000,99,1089,0.000000,2,2.000000,28.862940,16.861153,99,99,0,0,0,0,0
10,109999,88,100000,16,90000,40,9999,0.100000,99,1089,0.000000,1,0.000000,31.973305,0.447217,99,99,0,0,0,0,0
10,109999,89,100000,16,90000,40,9999,0.100000,99,1089,0.000000,3,0.000000,14.628972,0.909878,99,99,0,0,0,0,0
10,109999,90,100000,16,90000,40,9999,0.100000,99,1089,0.000000,4,1.000000,25.368628,1.528224,99,99,0,0,0,0,0
10,109999,91,100000,16,90000,41,9999,0.100000,99,1089,0.000000,3,4.000000,25.472262,29.673120,99,99,0,0,0,0,0
10,109999,92,100000,16,90000,40,9999,0.100000,99,1089,0.000000,4,0.000000,14.781025,4.467923,99,99,0,0,0,0,0
10,109999,93,100000,16,90000,40,9999,0.100000,99,1089,0.000000,2,1.000000,14.922298,4.405462,99,99,0,0,0,0,0
10,109999,94,100000,16,90000,40,9999,0.100000,99,1089,0.000000,4,0.000000,29.861372,2.321682,99,99,0,0,0,0,0
10,109999,95,100000,16,90000,40,9999,0.100000,99,1089,0.000000,1,0.000000,29.418429,0.115458,99,99,0,0,0,0,0
10,109999,96,100000,16,90000,40,9999,0.100000,99,1089,0.000000,3,0.000000,14.539633,0.661248,99,99,0,0,0,0,0
10,109999,97,100000,16,90000,40,9999,0.100000,99,1089,0.000000,3,0.000000,30.786942,1.051372,99,99,0,0,0,0,0
10,109999,98,100000,16,90000,40,9999,0.100000,99,1089,0.000000,4,0.000000,23.290454,0.589448,99,99,0,0,0,0,0
10,109999,99,100000,16,90000,40,9999,0.100000,99,1089,0.000000,3,0.000000,10.724967,0.194138,99,99,0,0,0,0,0
11,119999,0,110000,47,100000,0,9999,0.100000,99,1188,0.672413,3,0.000000,30.577326,1.228734,99,99,0,0,1,0,0
11,119999,1,110000,47,100000,0,9999,0.100000,99,1188,0.006656,4,0.000000,17.336090,0.150003,99,99,0,0,0,1,0
11,119999,2,110000,47,100000,40,9999,0.100000,99,1188,0.000000,3,0.000000,36.826689,0.465659,99,99,0,0,0,0,0
11,119999,3,110000,47,100000,40,9999,0.100000,99,1188,0.000000,5,0.000000,14.427146,5.610866,99,99,0,0,0,0,0
11,119999,4,110000,47,100000,40,9999,0.100000,99,1188,0.000000,2,0.000000,23.292513,0.234198,99,99,0,0,0,0,0
11,119999,5,110000,47,100000,40,9999,0.100000,99,1188,0.000000,2,0.000000,32.766068,0.494181,99,99,0,0,0,0,0
11,119999,6,110000,47,100000,40,9999,0.100000,99,1188,0.000000,4,0.000000,29.306597,13.750383,99,99,0,0,0,0,0
11,119999,7,110000,47,100000,42,9999,0.100000,99,1188,0.000000,4,6.000000,21.379385,19.808278,99,99,0,0,0,0,0
11,119999,8,110000,47,100000,0,9999,0.100000,99,1188,0.856540,3,0.000000,31.873634,0.649275,99,99,0,1,0,0,0
11,119999,9,110000,47,100000,0,9999,0.100000,99,1188,1.615734,2,0.000000,28.904196,0.849038,99,99,0,0,0,0,1
11,119999,10,110000,47,100000,45,9999,0.100000,99,1188,0.000000,4,17.000000,28.966431,18.719284,99,99,0,0,0,0,0
11,119999,11,110000,47,100000,40,9999,0.100000,99,1188,0.000000,4,0.000000,29.902089,0.111485,99,99,0,0,0,0,0
11,119999,12,110000,47,100000,0,9999,0.100000,99,1188,0.075771,3,0.000000,29.263232,0.143511,99,99,0,0,0,0,1
11,119999,13,110000,47,100000,42,9999,0.100000,99,1188,0.000000,4,4.000000,14.212525,7.956526,99,99,0,0,0,0,0
11,119999,14,110000,47,100000,40,9999,0.100000,99,1188,0.000000,6,0.000000,14.511970,3.126495,99,99,0,0,0,0,0
11,119999,15,110000,47,100000,0,9999,0.100000,99,1188,0.073384,4,0.000000,16.832147,0.273236,99,99,0,0,1,0,0
11,119999,16,110000,47,100000,43,9999,0.100000,99,1188,0.000000,7,10.000000,28.068587,20.787065,99,99,0,0,0,0,0
11,119999,17,110000,47,100000,0,9999,0.100000,99,1188,0.468769,1,0.000000,23.306436,0.284367,99,99,0,0,0,1,0
11,119999,18,110000,47,100000,44,9999,0.100000,99,1188,0.000000,5,8.000000,18.322035,20.249766,99,99,0,0,0,0,0
11,119999,19,110000,47,100000,40,9999,0.100000,99,1188,0.000000,1,0.000000,30.675840,1.100750,99,99,0,0,0,0,0
11,119999,20,110000,47,100000,40,9999,0.100000,99,1188,0.000000,3,0.000000,29.314239,0.506750,99,99,0,0,0,0,0
11,119999,21,110000,47,100000,40,9999,0.100000,99,1188,0.000000,1,0.000000,31.739885,0.518612,99,99,0,0,0,0,0
11,119999,22,110000,47,100000,0,9999,0.100000,99,1188,0.001731,3,0.000000,14.913816,0.297285,99,99,0,0,0,1,0
11,119999,23,110000,47,100000,40,9999,0.100000,99,1188,0.000000,3,0.000000,26.306708,0.217180,99,99,0,0,0,0,0
11,119999,24,110000,47,100000,40,9999,0.100000,99,1188,0.000000,3,0.000000,14.723902,3.655692,99,99,0,0,0,0,0
11,119999,25,110000,47,100000,42,9999,0.100000,99,1188,0.000000,4,9.000000,30.665119,25.500808,99,99,0,0,0,0,0
11,119999,26,110000,47,100000,40,9999,0.100000,99,1188,0.000000,3,0.000000,29.848291,1.056286,99,99,0,0,0,0,0
11,119999,27,110000,47,100000,40,9999,0.100000,99,1188,0.000000,4,1.000000,25.749380,1.524744,99,99,0,0,0,0,0
11,119999,28,110000,47,100000,40,9999,0.100000,99,1188,0.000000,3,0.000000,16.848116,0.427829,99,99,0,0,0,0,0
11,119999,29,110000,47,100000,40,9999,0.100000,99,1188,0.000000,5,3.000000,34.933277,9.322089,99,99,0,0,0,0,0
11,119999,30,110000,47,100000,41,9999,0.100000,99,1188,0.000000,4,4.000000,25.012761,6.742515,99,99,0,0,0,0,0
11,119999,31,110000,47,100000,40,9999,0.100000,99,1188,0.000000,4,0.000000,23.571808,0.556466,99,99,0,0,0,0,0
11,119999,32,110000,47,100000,40,9999,0.100000,99,1188,0.000000,4,0.000000,14.729241,2.067543,99,99,0,0,0,0,0
11,119999,33,110000,47,100000,40,9999,0.100000,99,1188,0.000000,2,0.000000,29.879365,1.090475,99,99,0,0,0,0,0
11,119999,34,110000,47,100000,40,9999,0.100000,99,1188,0.000000,3,0.000000,29.875658,0.100199,99,99,0,0,0,0,0
11,119999,35,110000,47,100000,40,9999,0.100000,99,1188,0.000000,5,0.000000,14.844654,0.601218,99,99,0,0,0,0,0
11,119999,36,110000,47,100000,40,9999,0.100000,99,1188,0.000000,2,0.000000,28.968053,0.980059,99,99,0,0,0,0,0
11,119999,37,110000,47,100000,40,9999,0.100000,99,1188,0.000000,4,0.000000,29.047228,0.604499,99,99,0,0,0,0,0
11,119999,38,110000,47,100000,42,9999,0.100000,99,1188,0.000000,7,4.000000,14.938084,21.745517,99,99,0,0,0,0,0
11,119999,39,110000,47,100000,40,9999,0.100000,99,1188,0.000000,4,0.000000,14.262375,3.570662,99,99,0,0,0,0,0
11,119999,40,110000,47,100000,40,9999,0.100000,99,1188,0.000000,1,0.000000,28.855207,3.685805,99,99,0,0,0,0,0
11,119999,41,110000,47,100000,40,9999,0.100000,99,1188,0.000000,2,0.000000,29.472870,1.176817,99,99,0,0,0,0,0
11,119999,42,110000,47,100000,40,9999,0.100000,99,1188,0.000000,3,1.000000,25.763522,2.122434,99,99,0,0,0,0,0
11,119999,43,110000,47,100000,40,9999,0.100000,99,1188,0.000000,5,1.000000,16.152477,8.664235,99,99,0,0,0,0,0
11,119999,44,110000,47,100000,40,9999,0.100000,99,1188,0.000000,5,0.000000,27.368632,4.774475,99,99,0,0,0,0,0
11,119999,45,110000,47,100000,40,9999,0.100000,99,1188,0.000000,3,0.000000,31.580117,0.141185,99,99,0,0,0,0,0
11,119999,46,110000,47,100000,40,9999,0.100000,99,1188,0.000000,6,0.000000,14.583363,6.121204,99,99,0,0,0,0,0
