generation,iteration,robot,birthday,ancestor_id,ancestor_birthday,cell_id,age,sigma,maps,genomes,fitness,cells_in_map,dist_max,dist_pot_max,dist_total,com_rx,com_tx,obj_group1,obj_group2,obj_group3,obj_group4,obj_group5
0,9999,0,0,0,0,49,9999,0.100000,0,0,0.000000,0,10.000000,0.000000,19.518357,0,0,0,0,0,0,0
0,9999,1,0,1,0,49,9999,0.100000,0,0,0.000000,0,2.000000,0.000000,7.168785,0,0,0,0,0,0,0
0,9999,2,0,2,0,49,9999,0.100000,0,0,0.000000,0,9.000000,0.000000,14.094404,0,0,0,0,0,0,0
0,9999,3,0,3,0,49,9999,0.100000,0,0,0.000000,0,11.000000,0.000000,14.723798,0,0,0,0,0,0,0
0,9999,4,0,4,0,49,9999,0.100000,0,0,0.000000,0,9.000000,0.000000,22.137984,0,0,0,0,0,0,0
0,9999,5,0,5,0,49,9999,0.100000,0,0,0.000000,0,8.000000,0.000000,10.521690,0,0,0,0,0,0,0
0,9999,6,0,6,0,49,9999,0.100000,0,0,0.000000,0,8.000000,0.000000,22.977824,0,0,0,0,0,0,0
0,9999,7,0,7,0,49,9999,0.100000,0,0,0.000000,0,9.000000,0.000000,10.302258,0,0,0,0,0,0,0
0,9999,8,0,8,0,49,9999,0.100000,0,0,0.000000,0,10.000000,0.000000,11.726275,0,0,0,0,0,0,0
0,9999,9,0,9,0,49,9999,0.100000,0,0,0.000000,0,4.000000,0.000000,16.656406,0,0,0,0,0,0,0
0,9999,10,0,10,0,49,9999,0.100000,0,0,0.000000,0,2.000000,0.000000,7.115826,0,0,0,0,0,0,0
0,9999,11,0,11,0,49,9999,0.100000,0,0,0.000000,0,4.000000,0.000000,15.399474,0,0,0,0,0,0,0
0,9999,12,0,12,0,99,9999,0.100000,0,0,94.736842,0,9.000000,0.000000,31.538361,0,0,2,0,0,0,0
0,9999,13,0,13,0,49,9999,0.100000,0,0,0.000000,0,10.000000,0.000000,15.401053,0,0,0,0,0,0,0
0,9999,14,0,14,0,49,9999,0.100000,0,0,0.000000,0,9.000000,0.000000,11.519139,0,0,0,0,0,0,0
0,9999,15,0,15,0,49,9999,0.100000,0,0,0.000000,0,11.000000,0.000000,16.529857,0,0,0,0,0,0,0
0,9999,16,0,16,0,49,9999,0.100000,0,0,0.000000,0,10.000000,0.000000,21.024853,0,0,0,0,0,0,0
0,9999,17,0,17,0,49,9999,0.100000,0,0,0.000000,0,9.000000,0.000000,19.654110,0,0,0,0,0,0,0
0,9999,18,0,18,0,49,9999,0.100000,0,0,0.000000,0,9.000000,0.000000,17.474790,0,0,0,0,0,0,0
0,9999,19,0,19,0,49,9999,0.100000,0,0,0.000000,0,11.000000,0.000000,22.355993,0,0,0,0,0,0,0
0,9999,20,0,20,0,49,9999,0.100000,0,0,0.000000,0,10.000000,0.000000,11.668542,0,0,0,0,0,0,0
0,9999,21,0,21,0,49,9999,0.100000,0,0,0.000000,0,6.000000,0.000000,20.516960,0,0,0,0,0,0,0
0,9999,22,0,22,0,49,9999,0.100000,0,0,0.000000,0,5.000000,0.000000,22.147805,0,0,0,0,0,0,0
0,9999,23,0,23,0,49,9999,0.100000,0,0,0.000000,0,5.000000,0.000000,16.964734,0,0,0,0,0,0,0
0,9999,24,0,24,0,49,9999,0.100000,0,0,0.000000,0,7.000000,0.000000,12.187284,0,0,0,0,0,0,0
0,9999,25,0,25,0,49,9999,0.100000,0,0,0.000000,0,5.000000,0.000000,8.827444,0,0,0,0,0,0,0
0,9999,26,0,26,0,49,9999,0.100000,0,0,0.000000,0,7.000000,0.000000,11.083719,0,0,0,0,0,0,0
0,9999,27,0,27,0,49,9999,0.100000,0,0,0.000000,0,8.000000,0.000000,15.583420,0,0,0,0,0,0,0
0,9999,28,0,28,0,49,9999,0.100000,0,0,0.000000,0,10.000000,0.000000,27.673847,0,0,0,0,0,0,0
0,9999,29,0,29,0,49,9999,0.100000,0,0,0.000000,0,2.000000,0.000000,13.597095,0,0,0,0,0,0,0
0,9999,30,0,30,0,49,9999,0.100000,0,0,0.000000,0,9.000000,0.000000,11.181239,0,0,0,0,0,0,0
0,9999,31,0,31,0,99,9999,0.100000,0,0,47.368421,0,9.000000,0.000000,19.926397,0,0,1,0,0,0,0
0,9999,32,0,32,0,99,9999,0.100000,0,0,47.368421,0,10.000000,0.000000,27.539354,0,0,1,0,0,0,0
0,9999,33,0,33,0,49,9999,0.100000,0,0,0.000000,0,11.000000,0.000000,13.064895,0,0,0,0,0,0,0
0,9999,34,0,34,0,49,9999,0.100000,0,0,0.000000,0,10.000000,0.000000,28.172309,0,0,0,0,0,0,0
0,9999,35,0,35,0,49,9999,0.100000,0,0,0.000000,0,11.000000,0.000000,14.904548,0,0,0,0,0,0,0
0,9999,36,0,36,0,49,9999,0.100000,0,0,0.000000,0,7.000000,0.000000,16.669741,0,0,0,0,0,0,0
0,9999,37,0,37,0,49,9999,0.100000,0,0,0.000000,0,9.000000,0.000000,14.260993,0,0,0,0,0,0,0
0,9999,38,0,38,0,49,9999,0.100000,0,0,0.000000,0,5.000000,0.000000,7.007531,0,0,0,0,0,0,0
0,9999,39,0,39,0,49,9999,0.100000,0,0,0.000000,0,5.000000,0.000000,17.104781,0,0,0,0,0,0,0
0,9999,40,0,40,0,99,9999,0.100000,0,0,47.368421,0,8.000000,0.000000,20.832981,0,0,1,0,0,0,0
0,9999,41,0,41,0,49,9999,0.100000,0,0,0.000000,0,10.000000,0.000000,25.309134,0,0,0,0,0,0,0
0,9999,42,0,42,0,49,9999,0.100000,0,0,0.000000,0,9.000000,0.000000,13.408203,0,0,0,0,0,0,0
0,9999,43,0,43,0,49,9999,0.100000,0,0,0.000000,0,4.000000,0.000000,5.980099,0,0,0,0,0,0,0
0,9999,44,0,44,0,49,9999,0.100000,0,0,0.000000,0,5.000000,0.000000,23.179723,0,0,0,0,0,0,0
0,9999,45,0,45,0,49,9999,0.100000,0,0,0.000000,0,4.000000,0.000000,5.634355,0,0,0,0,0,0,0
0,9999,46,0,46,0,99,9999,0.100000,0,0,47.368421,0,11.000000,0.000000,19.019717,0,0,1,0,0,0,0
0,9999,47,0,47,0,49,9999,0.100000,0,0,0.000000,0,6.000000,0.000000,15.838302,0,0,0,0,0,0,0
0,9999,48,0,48,0,49,9999,0.100000,0,0,0.000000,0,7.000000,0.000000,13.915253,0,0,0,0,0,0,0
0,9999,49,0,49,0,49,9999,0.100000,0,0,0.000000,0,6.000000,0.000000,10.394105,0,0,0,0,0,0,0
0,9999,50,0,50,0,49,9999,0.100000,0,0,0.000000,0,9.000000,0.000000,11.048825,0,0,0,0,0,0,0
0,9999,51,0,51,0,49,9999,0.100000,0,0,0.000000,0,5.000000,0.000000,22.761753,0,0,0,0,0,0,0
0,9999,52,0,52,0,49,9999,0.100000,0,0,0.000000,0,9.000000,0.000000,21.695875,0,0,0,0,0,0,0
0,9999,53,0,53,0,49,9999,0.100000,0,0,0.000000,0,6.000000,0.000000,7.313809,0,0,0,0,0,0,0
0,9999,54,0,54,0,49,9999,0.100000,0,0,0.000000,0,12.000000,0.000000,13.871114,0,0,0,0,0,0,0
0,9999,55,0,55,0,99,9999,0.100000,0,0,47.368421,0,11.000000,0.000000,22.801839,0,0,1,0,0,0,0
0,9999,56,0,56,0,49,9999,0.100000,0,0,0.000000,0,6.000000,0.000000,13.927586,0,0,0,0,0,0,0
0,9999,57,0,57,0,99,9999,0.100000,0,0,47.368421,0,10.000000,0.000000,24.620865,0,0,1,0,0,0,0
0,9999,58,0,58,0,99,9999,0.100000,0,0,47.368421,0,8.000000,0.000000,22.427866,0,0,1,0,0,0,0
0,9999,59,0,59,0,49,9999,0.100000,0,0,0.000000,0,5.000000,0.000000,14.530146,0,0,0,0,0,0,0
0,9999,60,0,60,0,49,9999,0.100000,0,0,0.000000,0,8.000000,0.000000,24.410607,0,0,0,0,0,0,0
0,9999,61,0,61,0,49,9999,0.100000,0,0,0.000000,0,8.000000,0.000000,19.087016,0,0,0,0,0,0,0
0,9999,62,0,62,0,49,9999,0.100000,0,0,0.000000,0,12.000000,0.000000,21.739198,0,0,0,0,0,0,0
0,9999,63,0,63,0,49,9999,0.100000,0,0,0.000000,0,9.000000,0.000000,25.049576,0,0,0,0,0,0,0
0,9999,64,0,64,0,49,9999,0.100000,0,0,0.000000,0,11.000000,0.000000,16.275022,0,0,0,0,0,0,0
0,9999,65,0,65,0,49,9999,0.100000,0,0,0.000000,0,9.000000,0.000000,20.706208,0,0,0,0,0,0,0
0,9999,66,0,66,0,49,9999,0.100000,0,0,0.000000,0,6.000000,0.000000,24.287217,0,0,0,0,0,0,0
0,9999,67,0,67,0,49,9999,0.100000,0,0,0.000000,0,7.000000,0.000000,12.158575,0,0,0,0,0,0,0
0,9999,68,0,68,0,49,9999,0.100000,0,0,0.000000,0,5.000000,0.000000,10.312682,0,0,0,0,0,0,0
0,9999,69,0,69,0,49,9999,0.100000,0,0,0.000000,0,8.000000,0.000000,17.583233,0,0,0,0,0,0,0
0,9999,70,0,70,0,99,9999,0.100000,0,0,47.368421,0,12.000000,0.000000,31.117548,0,0,1,0,0,0,0
0,9999,71,0,71,0,49,9999,0.100000,0,0,0.000000,0,7.000000,0.000000,16.218760,0,0,0,0,0,0,0
0,9999,72,0,72,0,49,9999,0.100000,0,0,0.000000,0,5.000000,0.000000,13.754244,0,0,0,0,0,0,0
0,9999,73,0,73,0,49,9999,0.100000,0,0,0.000000,0,3.000000,0.000000,8.081514,0,0,0,0,0,0,0
0,9999,74,0,74,0,49,9999,0.100000,0,0,0.000000,0,9.000000,0.000000,25.513871,0,0,0,0,0,0,0
0,9999,75,0,75,0,49,9999,0.100000,0,0,0.000000,0,7.000000,0.000000,14.207816,0,0,0,0,0,0,0
0,9999,76,0,76,0,49,9999,0.100000,0,0,0.000000,0,3.000000,0.000000,12.314460,0,0,0,0,0,0,0
0,9999,77,0,77,0,49,9999,0.100000,0,0,0.000000,0,12.000000,0.000000,15.486261,0,0,0,0,0,0,0
0,9999,78,0,78,0,49,9999,0.100000,0,0,0.000000,0,7.000000,0.000000,13.117656,0,0,0,0,0,0,0
0,9999,79,0,79,0,49,9999,0.100000,0,0,0.000000,0,9.000000,0.000000,12.992235,0,0,0,0,0,0,0
0,9999,80,0,80,0,99,9999,0.100000,0,0,47.368421,0,9.000000,0.000000,25.264936,0,0,1,0,0,0,0
0,9999,81,0,81,0,99,9999,0.100000,0,0,47.368421,0,10.000000,0.000000,28.208885,0,0,1,0,0,0,0
0,9999,82,0,82,0,49,9999,0.100000,0,0,0.000000,0,6.000000,0.000000,20.612794,0,0,0,0,0,0,0
0,9999,83,0,83,0,49,9999,0.100000,0,0,0.000000,0,6.000000,0.000000,21.246130,0,0,0,0,0,0,0
0,9999,84,0,84,0,49,9999,0.100000,0,0,0.000000,0,7.000000,0.000000,22.255130,0,0,0,0,0,0,0
0,9999,85,0,85,0,99,9999,0.100000,0,0,47.368421,0,12.000000,0.000000,23.715602,0,0,1,0,0,0,0
0,9999,86,0,86,0,99,9999,0.100000,0,0,47.368421,0,9.000000,0.000000,25.780829,0,0,1,0,0,0,0
0,9999,87,0,87,0,99,9999,0.100000,0,0,47.368421,0,11.000000,0.000000,23.329146,0,0,1,0,0,0,0
0,9999,88,0,88,0,49,9999,0.100000,0,0,0.000000,0,3.000000,0.000000,12.566200,0,0,0,0,0,0,0
0,9999,89,0,89,0,49,9999,0.100000,0,0,0.000000,0,5.000000,0.000000,12.493722,0,0,0,0,0,0,0
0,9999,90,0,90,0,49,9999,0.100000,0,0,0.000000,0,11.000000,0.000000,20.713400,0,0,0,0,0,0,0
0,9999,91,0,91,0,99,9999,0.100000,0,0,47.368421,0,10.000000,0.000000,28.071297,0,0,1,0,0,0,0
0,9999,92,0,92,0,49,9999,0.100000,0,0,0.000000,0,5.000000,0.000000,16.430526,0,0,0,0,0,0,0
0,9999,93,0,93,0,49,9999,0.100000,0,0,0.000000,0,11.000000,0.000000,23.460671,0,0,0,0,0,0,0
0,9999,94,0,94,0,49,9999,0.100000,0,0,0.000000,0,9.000000,0.000000,21.102157,0,0,0,0,0,0,0
0,9999,95,0,95,0,99,9999,0.100000,0,0,47.368421,0,11.000000,0.000000,20.989613,0,0,1,0,0,0,0
0,9999,96,0,96,0,49,9999,0.100000,0,0,0.000000,0,5.000000,0.000000,15.078595,0,0,0,0,0,0,0
0,9999,97,0,97,0,99,9999,0.100000,0,0,47.368421,0,8.000000,0.000000,17.129358,0,0,1,0,0,0,0
0,9999,98,0,98,0,49,9999,0.100000,0,0,0.000000,0,7.000000,0.000000,17.770452,0,0,0,0,0,0,0
0,9999,99,0,99,0,49,9999,0.100000,0,0,0.000000,0,9.000000,0.000000,17.555793,0,0,0,0,0,0,0
1,19999,0,10000,0,0,49,9999,0.100000,0,0,0.000000,1,1.000000,0.000000,22.111765,0,0,0,0,0,0,0
1,19999,1,10000,54,0,40,9999,0.100000,0,0,0.000000,3,0.000000,0.000000,0.143083,0,0,0,0,0,0,0
1,19999,2,10000,0,0,49,9999,0.100000,0,0,0.000000,1,5.000000,0.000000,11.464327,0,0,0,0,0,0,0
1,19999,3,0,3,0,40,19999,0.100000,0,0,0.000000,1,0.000000,0.000000,1.041162,0,0,0,0,0,0,0
1,19999,4,10000,57,0,49,9999,0.100000,0,0,0.000000,3,6.000000,0.000000,14.420743,0,0,0,0,0,0,0
1,19999,5,10000,12,0,49,9999,0.100000,0,0,0.000000,3,2.000000,0.000000,15.354337,0,0,0,0,0,0,0
1,19999,6,10000,57,0,49,9999,0.100000,0,0,0.000000,3,1.000000,0.000000,2.177805,0,0,0,0,0,0,0
1,19999,7,10000,57,0,40,9999,0.100000,0,0,0.000000,3,0.000000,0.000000,0.484384,0,0,0,0,0,0,0
1,19999,8,10000,79,0,40,9999,0.100000,0,0,0.000000,3,0.000000,0.000000,0.247750,0,0,0,0,0,0,0
1,19999,9,10000,57,0,40,9999,0.100000,0,0,0.000000,3,0.000000,0.000000,5.740973,0,0,0,0,0,0,0
1,19999,10,10000,32,0,49,9999,0.100000,0,0,0.000000,2,1.000000,0.000000,7.050264,0,0,0,0,0,0,0
1,19999,11,10000,79,0,49,9999,0.100000,0,0,0.000000,3,2.000000,0.000000,7.661789,0,0,0,0,0,0,0
1,19999,12,10000,54,0,49,9999,0.100000,0,0,0.000000,3,2.000000,0.000000,13.118172,0,0,0,0,0,0,0
1,19999,13,10000,57,0,40,9999,0.100000,0,0,0.000000,3,0.000000,0.000000,0.170270,0,0,0,0,0,0,0
1,19999,14,10000,57,0,40,9999,0.100000,0,0,0.000000,3,0.000000,0.000000,0.547570,0,0,0,0,0,0,0
1,19999,15,10000,14,0,49,9999,0.100000,0,0,0.000000,3,4.000000,0.000000,22.236220,0,0,0,0,0,0,0
1,19999,16,10000,32,0,49,9999,0.100000,0,0,0.000000,2,4.000000,0.000000,10.703862,0,0,0,0,0,0,0
1,19999,17,10000,30,0,49,9999,0.100000,0,0,0.000000,3,1.000000,0.000000,3.574932,0,0,0,0,0,0,0
1,19999,18,0,18,0,49,19999,0.100000,0,0,0.000000,1,2.000000,0.000000,6.591642,0,0,0,0,0,0,0
1,19999,19,10000,57,0,49,9999,0.100000,0,0,0.000000,3,4.000000,0.000000,15.299117,0,0,0,0,0,0,0
1,19999,20,10000,12,0,49,9999,0.100000,0,0,0.000000,3,2.000000,0.000000,2.578538,0,0,0,0,0,0,0
1,19999,21,10000,30,0,40,9999,0.100000,0,0,0.000000,3,0.000000,0.000000,8.311442,0,0,0,0,0,0,0
1,19999,22,0,22,0,49,19999,0.100000,0,0,0.000000,3,3.000000,0.000000,12.875014,0,0,0,0,0,0,0
1,19999,23,10000,32,0,49,9999,0.100000,0,0,0.000000,3,1.000000,0.000000,8.016782,0,0,0,0,0,0,0
1,19999,24,10000,32,0,49,9999,0.100000,0,0,0.000000,3,1.000000,0.000000,5.369648,0,0,0,0,0,0,0
1,19999,25,10000,54,0,49,9999,0.100000,0,0,0.000000,3,2.000000,0.000000,11.923946,0,0,0,0,0,0,0
1,19999,26,10000,32,0,49,9999,0.100000,0,0,0.000000,3,1.000000,0.000000,5.775408,0,0,0,0,0,0,0
1,19999,27,10000,32,0,49,9999,0.100000,0,0,0.000000,3,2.000000,0.000000,9.878675,0,0,0,0,0,0,0
1,19999,28,10000,57,0,49,9999,0.100000,0,0,0.000000,3,7.000000,0.000000,16.327050,0,0,0,0,0,0,0
1,19999,29,10000,12,0,49,9999,0.100000,0,0,0.000000,3,1.000000,0.000000,5.507513,0,0,0,0,0,0,0
1,19999,30,10000,57,0,40,9999,0.100000,0,0,0.000000,3,0.000000,0.000000,1.143186,0,0,0,0,0,0,0
1,19999,31,10000,32,0,49,9999,0.100000,0,0,0.000000,3,1.000000,0.000000,4.855881,0,0,0,0,0,0,0
1,19999,32,10000,32,0,49,9999,0.100000,0,0,0.000000,2,2.000000,0.000000,11.572371,0,0,0,0,0,0,0
1,19999,33,10000,30,0,40,9999,0.100000,0,0,0.000000,3,0.000000,0.000000,1.017648,0,0,0,0,0,0,0
1,19999,34,10000,57,0,49,9999,0.100000,0,0,0.000000,3,3.000000,0.000000,11.217813,0,0,0,0,0,0,0
1,19999,35,10000,57,0,40,9999,0.100000,0,0,0.000000,3,0.000000,0.000000,0.653674,0,0,0,0,0,0,0
1,19999,36,10000,30,0,49,9999,0.100000,0,0,0.000000,3,2.000000,0.000000,21.546404,0,0,0,0,0,0,0
1,19999,37,10000,79,0,40,9999,0.100000,0,0,0.000000,3,0.000000,0.000000,0.107061,0,0,0,0,0,0,0
1,19999,38,10000,57,0,40,9999,0.100000,0,0,0.000000,3,0.000000,0.000000,0.581027,0,0,0,0,0,0,0
1,19999,39,10000,30,0,40,9999,0.100000,0,0,0.000000,3,0.000000,0.000000,5.019811,0,0,0,0,0,0,0
1,19999,40,10000,54,0,49,9999,0.100000,0,0,0.000000,3,3.000000,0.000000,9.341883,0,0,0,0,0,0,0
1,19999,41,10000,32,0,40,9999,0.100000,0,0,0.000000,3,0.000000,0.000000,1.024737,0,0,0,0,0,0,0
1,19999,42,10000,57,0,40,9999,0.100000,0,0,0.000000,3,0.000000,0.000000,0.163626,0,0,0,0,0,0,0
1,19999,43,10000,79,0,40,9999,0.100000,0,0,0.000000,3,0.000000,0.000000,0.171581,0,0,0,0,0,0,0
1,19999,44,10000,54,0,49,9999,0.100000,0,0,0.000000,3,2.000000,0.000000,3.684055,0,0,0,0,0,0,0
1,19999,45,10000,57,0,49,9999,0.100000,0,0,0.000000,3,1.000000,0.000000,1.762231,0,0,0,0,0,0,0
1,19999,46,10000,57,0,49,9999,0.100000,0,0,0.000000,3,6.000000,0.000000,15.860682,0,0,0,0,0,0,0
1,19999,47,10000,57,0,49,9999,0.100000,0,0,0.000000,3,2.000000,0.000000,18.138190,0,0,0,0,0,0,0
1,19999,48,10000,57,0,49,9999,0.100000,0,0,0.000000,3,2.000000,0.000000,9.526154,0,0,0,0,0,0,0
1,19999,49,10000,57,0,49,9999,0.100000,0,0,0.000000,3,1.000000,0.000000,1.394799,0,0,0,0,0,0,0
1,19999,50,10000,54,0,40,9999,0.100000,0,0,0.000000,3,0.000000,0.000000,0.717237,0,0,0,0,0,0,0
1,19999,51,10000,57,0,49,9999,0.100000,0,0,0.000000,3,7.000000,0.000000,8.149687,0,0,0,0,0,0,0
1,19999,52,10000,79,0,49,9999,0.100000,0,0,0.000000,3,3.000000,0.000000,11.981744,0,0,0,0,0,0,0
1,19999,53,0,53,0,49,19999,0.100000,0,0,0.000000,3,1.000000,0.000000,1.233961,0,0,0,0,0,0,0
1,19999,54,0,54,0,40,19999,0.100000,0,0,0.000000,3,0.000000,0.000000,0.116165,0,0,0,0,0,0,0
1,19999,55,10000,57,0,49,9999,0.100000,0,0,0.000000,3,5.000000,0.000000,27.542693,0,0,0,0,0,0,0
1,19999,56,10000,30,0,49,9999,0.100000,0,0,0.000000,3,1.000000,0.000000,16.126038,0,0,0,0,0,0,0
1,19999,57,10000,32,0,40,9999,0.100000,0,0,0.000000,2,0.000000,0.000000,0.755062,0,0,0,0,0,0,0
1,19999,58,10000,12,0,49,9999,0.100000,0,0,0.000000,3,2.000000,0.000000,13.187939,0,0,0,0,0,0,0
1,19999,59,0,59,0,40,19999,0.100000,0,0,0.000000,3,0.000000,0.000000,5.738953,0,0,0,0,0,0,0
1,19999,60,10000,57,0,40,9999,0.100000,0,0,0.000000,3,0.000000,0.000000,0.989159,0,0,0,0,0,0,0
1,19999,61,10000,30,0,40,9999,0.100000,0,0,0.000000,3,0.000000,0.000000,8.684993,0,0,0,0,0,0,0
1,19999,62,10000,12,0,49,9999,0.100000,0,0,0.000000,3,3.000000,0.000000,7.283060,0,0,0,0,0,0,0
1,19999,63,10000,12,0,40,9999,0.100000,0,0,0.000000,3,0.000000,0.000000,1.985037,0,0,0,0,0,0,0
1,19999,64,10000,57,0,40,9999,0.100000,0,0,0.000000,3,0.000000,0.000000,1.021185,0,0,0,0,0,0,0
1,19999,65,10000,12,0,49,9999,0.100000,0,0,0.000000,3,1.000000,0.000000,10.457268,0,0,0,0,0,0,0
1,19999,66,10000,32,0,40,9999,0.100000,0,0,0.000000,3,0.000000,0.000000,0.229441,0,0,0,0,0,0,0
1,19999,67,10000,32,0,40,9999,0.100000,0,0,0.000000,2,0.000000,0.000000,7.332894,0,0,0,0,0,0,0
1,19999,68,10000,79,0,49,9999,0.100000,0,0,0.000000,3,1.000000,0.000000,4.508794,0,0,0,0,0,0,0
1,19999,69,10000,57,0,49,9999,0.100000,0,0,0.000000,3,3.000000,0.000000,15.456926,0,0,0,0,0,0,0
1,19999,70,10000,12,0,40,9999,0.100000,0,0,0.000000,3,0.000000,0.000000,0.441170,0,0,0,0,0,0,0
1,19999,71,10000,30,0,49,9999,0.100000,0,0,0.000000,3,4.000000,0.000000,14.377411,0,0,0,0,0,0,0
1,19999,72,10000,12,0,40,9999,0.100000,0,0,0.000000,3,0.000000,0.000000,0.133830,0,0,0,0,0,0,0
1,19999,73,10000,32,0,49,9999,0.100000,0,0,0.000000,3,5.000000,0.000000,7.050536,0,0,0,0,0,0,0
1,19999,74,10000,30,0,49,9999,0.100000,0,0,0.000000,3,4.000000,0.000000,9.913887,0,0,0,0,0,0,0
1,19999,75,10000,12,0,40,9999,0.100000,0,0,0.000000,3,0.000000,0.000000,0.477387,0,0,0,0,0,0,0
1,19999,76,10000,54,0,40,9999,0.100000,0,0,0.000000,3,0.000000,0.000000,14.734378,0,0,0,0,0,0,0
1,19999,77,10000,12,0,40,9999,0.100000,0,0,0.000000,3,0.000000,0.000000,0.683950,0,0,0,0,0,0,0
1,19999,78,10000,57,0,49,9999,0.100000,0,0,0.000000,3,1.000000,0.000000,5.176945,0,0,0,0,0,0,0
1,19999,79,10000,57,0,40,9999,0.100000,0,0,0.000000,3,0.000000,0.000000,0.634006,0,0,0,0,0,0,0
1,19999,80,10000,32,0,49,9999,0.100000,0,0,0.000000,3,2.000000,0.000000,7.756476,0,0,0,0,0,0,0
1,19999,81,10000,79,0,49,9999,0.100000,0,0,0.000000,3,1.000000,0.000000,9.131324,0,0,0,0,0,0,0
1,19999,82,10000,57,0,49,9999,0.100000,0,0,0.000000,3,3.000000,0.000000,9.230836,0,0,0,0,0,0,0
1,19999,83,10000,54,0,49,9999,0.100000,0,0,0.000000,3,8.000000,0.000000,18.176937,0,0,0,0,0,0,0
1,19999,84,10000,57,0,49,9999,0.100000,0,0,0.000000,3,2.000000,0.000000,10.900843,0,0,0,0,0,0,0
1,19999,85,10000,54,0,40,9999,0.100000,0,0,0.000000,3,0.000000,0.000000,1.991842,0,0,0,0,0,0,0
1,19999,86,10000,30,0,49,9999,0.100000,0,0,0.000000,3,4.000000,0.000000,15.696944,0,0,0,0,0,0,0
1,19999,87,10000,54,0,49,9999,0.100000,0,0,0.000000,3,1.000000,0.000000,2.343425,0,0,0,0,0,0,0
1,19999,88,10000,54,0,49,9999,0.100000,0,0,0.000000,3,2.000000,0.000000,15.963252,0,0,0,0,0,0,0
1,19999,89,10000,54,0,40,9999,0.100000,0,0,0.000000,3,0.000000,0.000000,6.409643,0,0,0,0,0,0,0
1,19999,90,10000,12,0,99,9999,0.100000,0,0,34.210526,3,6.000000,0.000000,28.241141,0,0,1,0,0,0,0
1,19999,91,10000,54,0,40,9999,0.100000,0,0,0.000000,3,0.000000,0.000000,0.736645,0,0,0,0,0,0,0
1,19999,92,10000,79,0,49,9999,0.100000,0,0,0.000000,3,2.000000,0.000000,12.741211,0,0,0,0,0,0,0
1,19999,93,10000,57,0,40,9999,0.100000,0,0,0.000000,3,0.000000,0.000000,0.265197,0,0,0,0,0,0,0
1,19999,94,10000,30,0,40,9999,0.100000,0,0,0.000000,3,0.000000,0.000000,20.823751,0,0,0,0,0,0,0
1,19999,95,10000,30,0,49,9999,0.100000,0,0,0.000000,3,2.000000,0.000000,13.335023,0,0,0,0,0,0,0
1,19999,96,10000,57,0,49,9999,0.100000,0,0,0.000000,3,3.000000,0.000000,14.158366,0,0,0,0,0,0,0
1,19999,97,10000,12,0,49,9999,0.100000,0,0,0.000000,3,3.000000,0.000000,16.428791,0,0,0,0,0,0,0
1,19999,98,10000,57,0,49,9999,0.100000,0,0,0.000000,3,2.000000,0.000000,20.193849,0,0,0,0,0,0,0
1,19999,99,10000,12,0,99,9999,0.100000,0,0,34.210526,3,4.000000,0.000000,18.510963,0,0,1,0,0,0,0
2,29999,0,20000,57,0,40,9999,0.100000,0,0,0.000000,3,0.000000,0.000000,23.872596,0,0,0,0,0,0,0
2,29999,1,20000,3,0,40,9999,0.100000,0,0,0.000000,5,0.000000,0.000000,0.140060,0,0,0,0,0,0,0
2,29999,2,20000,79,10000,49,9999,0.100000,0,0,0.000000,6,2.000000,0.000000,11.430440,0,0,0,0,0,0,0
2,29999,3,20000,3,0,40,9999,0.100000,0,0,0.000000,4,0.000000,0.000000,0.998475,0,0,0,0,0,0,0
2,29999,4,20000,54,0,49,9999,0.100000,0,0,0.000000,5,1.000000,0.000000,12.156673,0,0,0,0,0,0,0
2,29999,5,20000,3,0,49,9999,0.100000,0,0,0.000000,6,1.000000,0.000000,9.148147,0,0,0,0,0,0,0
2,29999,6,20000,57,0,49,9999,0.100000,0,0,0.000000,5,1.000000,0.000000,11.040894,0,0,0,0,0,0,0
2,29999,7,20000,57,0,40,9999,0.100000,0,0,0.000000,6,0.000000,0.000000,1.088219,0,0,0,0,0,0,0
2,29999,8,20000,79,10000,40,9999,0.100000,0,0,0.000000,6,0.000000,0.000000,0.116379,0,0,0,0,0,0,0
2,29999,9,20000,79,10000,40,9999,0.100000,0,0,0.000000,6,0.000000,0.000000,5.156269,0,0,0,0,0,0,0
2,29999,10,20000,3,0,49,9999,0.100000,0,0,0.000000,6,1.000000,0.000000,1.726106,0,0,0,0,0,0,0
2,29999,11,20000,79,10000,40,9999,0.100000,0,0,0.000000,6,0.000000,0.000000,2.047735,0,0,0,0,0,0,0
2,29999,12,20000,79,10000,49,9999,0.100000,0,0,0.000000,6,11.000000,0.000000,16.976293,0,0,0,0,0,0,0
2,29999,13,20000,54,0,49,9999,0.100000,0,0,0.000000,6,1.000000,0.000000,1.187790,0,0,0,0,0,0,0
2,29999,14,20000,79,10000,40,9999,0.100000,0,0,0.000000,6,0.000000,0.000000,0.746650,0,0,0,0,0,0,0
2,29999,15,20000,57,0,40,9999,0.100000,0,0,0.000000,5,0.000000,0.000000,21.733503,0,0,0,0,0,0,0
2,29999,16,20000,12,0,49,9999,0.100000,0,0,0.000000,6,6.000000,0.000000,13.349702,0,0,0,0,0,0,0
2,29999,17,20000,3,0,40,9999,0.100000,0,0,0.000000,6,0.000000,0.000000,1.194129,0,0,0,0,0,0,0
2,29999,18,20000,57,0,49,9999,0.100000,0,0,0.000000,5,7.000000,0.000000,17.159893,0,0,0,0,0,0,0
2,29999,19,20000,3,0,49,9999,0.100000,0,0,0.000000,6,4.000000,0.000000,12.389285,0,0,0,0,0,0,0
2,29999,20,20000,12,0,40,9999,0.100000,0,0,0.000000,6,0.000000,0.000000,0.537412,0,0,0,0,0,0,0
2,29999,21,20000,79,10000,49,9999,0.100000,0,0,0.000000,6,5.000000,0.000000,15.189667,0,0,0,0,0,0,0
2,29999,22,20000,79,10000,40,9999,0.100000,0,0,0.000000,6,0.000000,0.000000,0.089937,0,0,0,0,0,0,0
2,29999,23,20000,12,0,40,9999,0.100000,0,0,0.000000,5,0.000000,0.000000,5.497754,0,0,0,0,0,0,0
2,29999,24,20000,3,0,40,9999,0.100000,0,0,0.000000,5,0.000000,0.000000,2.765046,0,0,0,0,0,0,0
2,29999,25,20000,12,0,40,9999,0.100000,0,0,0.000000,5,0.000000,0.000000,23.837945,0,0,0,0,0,0,0
2,29999,26,20000,8,10000,49,9999,0.100000,0,0,0.000000,6,5.000000,0.000000,12.687313,0,0,0,0,0,0,0
2,29999,27,20000,3,0,40,9999,0.100000,0,0,0.000000,5,0.000000,0.000000,11.249731,0,0,0,0,0,0,0
2,29999,28,20000,57,0,49,9999,0.100000,0,0,0.000000,5,3.000000,0.000000,21.318875,0,0,0,0,0,0,0
2,29999,29,20000,57,0,49,9999,0.100000,0,0,0.000000,5,1.000000,0.000000,6.029093,0,0,0,0,0,0,0
2,29999,30,20000,12,0,40,9999,0.100000,0,0,0.000000,5,0.000000,0.000000,1.223581,0,0,0,0,0,0,0
2,29999,31,20000,50,10000,49,9999,0.100000,0,0,0.000000,6,3.000000,0.000000,11.711322,0,0,0,0,0,0,0
2,29999,32,20000,30,10000,49,9999,0.100000,0,0,0.000000,5,1.000000,0.000000,13.027752,0,0,0,0,0,0,0
2,29999,33,20000,3,0,40,9999,0.100000,0,0,0.000000,6,0.000000,0.000000,1.006681,0,0,0,0,0,0,0
2,29999,34,20000,54,0,40,9999,0.100000,0,0,0.000000,6,0.000000,0.000000,1.013660,0,0,0,0,0,0,0
2,29999,35,20000,54,0,40,9999,0.100000,0,0,0.000000,6,0.000000,0.000000,0.507984,0,0,0,0,0,0,0
2,29999,36,20000,79,10000,49,9999,0.100000,0,0,0.000000,6,2.000000,0.000000,20.596691,0,0,0,0,0,0,0
2,29999,37,20000,8,10000,40,9999,0.100000,0,0,0.000000,6,0.000000,0.000000,0.105611,0,0,0,0,0,0,0
2,29999,38,20000,54,0,40,9999,0.100000,0,0,0.000000,5,0.000000,0.000000,0.607248,0,0,0,0,0,0,0
2,29999,39,20000,3,0,40,9999,0.100000,0,0,0.000000,6,0.000000,0.000000,7.269751,0,0,0,0,0,0,0
2,29999,40,20000,30,10000,49,9999,0.100000,0,0,0.000000,5,1.000000,0.000000,1.439842,0,0,0,0,0,0,0
2,29999,41,20000,3,0,40,9999,0.100000,0,0,0.000000,5,0.000000,0.000000,0.943139,0,0,0,0,0,0,0
2,29999,42,20000,12,0,40,9999,0.100000,0,0,0.000000,5,0.000000,0.000000,0.124655,0,0,0,0,0,0,0
2,29999,43,20000,3,0,40,9999,0.100000,0,0,0.000000,5,0.000000,0.000000,0.167168,0,0,0,0,0,0,0
2,29999,44,20000,54,0,49,9999,0.100000,0,0,0.000000,6,1.000000,0.000000,1.839797,0,0,0,0,0,0,0
2,29999,45,20000,54,0,49,9999,0.100000,0,0,0.000000,4,1.000000,0.000000,1.937898,0,0,0,0,0,0,0
2,29999,46,20000,8,10000,49,9999,0.100000,0,0,0.000000,6,1.000000,0.000000,4.896040,0,0,0,0,0,0,0
2,29999,47,20000,57,0,40,9999,0.100000,0,0,0.000000,5,0.000000,0.000000,2.018367,0,0,0,0,0,0,0
2,29999,48,20000,57,0,49,9999,0.100000,0,0,0.000000,6,1.000000,0.000000,10.417772,0,0,0,0,0,0,0
2,29999,49,20000,54,0,40,9999,0.100000,0,0,0.000000,6,0.000000,0.000000,0.944555,0,0,0,0,0,0,0
2,29999,50,20000,3,0,40,9999,0.100000,0,0,0.000000,5,0.000000,0.000000,1.536838,0,0,0,0,0,0,0
2,29999,51,20000,12,0,40,9999,0.100000,0,0,0.000000,6,0.000000,0.000000,0.155894,0,0,0,0,0,0,0
2,29999,52,20000,54,0,49,9999,0.100000,0,0,0.000000,6,1.000000,0.000000,3.978372,0,0,0,0,0,0,0
2,29999,53,20000,54,0,40,9999,0.100000,0,0,0.000000,6,0.000000,0.000000,0.791470,0,0,0,0,0,0,0
2,29999,54,20000,54,0,40,9999,0.100000,0,0,0.000000,6,0.000000,0.000000,0.109606,0,0,0,0,0,0,0
2,29999,55,20000,50,10000,49,9999,0.100000,0,0,0.000000,5,4.000000,0.000000,13.674047,0,0,0,0,0,0,0
2,29999,56,20000,79,10000,49,9999,0.100000,0,0,0.000000,6,1.000000,0.000000,19.621255,0,0,0,0,0,0,0
2,29999,57,20000,54,0,49,9999,0.100000,0,0,0.000000,6,4.000000,0.000000,5.467550,0,0,0,0,0,0,0
2,29999,58,20000,54,0,40,9999,0.100000,0,0,0.000000,5,0.000000,0.000000,17.536780,0,0,0,0,0,0,0
2,29999,59,20000,3,0,49,9999,0.100000,0,0,0.000000,5,1.000000,0.000000,8.830804,0,0,0,0,0,0,0
2,29999,60,20000,30,10000,40,9999,0.100000,0,0,0.000000,5,0.000000,0.000000,0.926603,0,0,0,0,0,0,0
2,29999,61,20000,50,10000,49,9999,0.100000,0,0,0.000000,6,1.000000,0.000000,10.553504,0,0,0,0,0,0,0
2,29999,62,20000,50,10000,49,9999,0.100000,0,0,0.000000,6,1.000000,0.000000,3.914829,0,0,0,0,0,0,0
2,29999,63,20000,79,10000,99,9999,0.100000,0,0,34.210526,6,13.000000,0.000000,18.322357,0,0,1,0,0,0,0
2,29999,64,20000,50,10000,40,9999,0.100000,0,0,0.000000,5,0.000000,0.000000,1.008408,0,0,0,0,0,0,0
2,29999,65,20000,54,0,40,9999,0.100000,0,0,0.000000,4,0.000000,0.000000,4.690713,0,0,0,0,0,0,0
2,29999,66,20000,79,10000,40,9999,0.100000,0,0,0.000000,6,0.000000,0.000000,0.113073,0,0,0,0,0,0,0
2,29999,67,20000,79,10000,49,9999,0.100000,0,0,0.000000,6,3.000000,0.000000,18.259870,0,0,0,0,0,0,0
2,29999,68,20000,3,0,49,9999,0.100000,0,0,0.000000,6,2.000000,0.000000,6.261658,0,0,0,0,0,0,0
2,29999,69,20000,3,0,49,9999,0.100000,0,0,0.000000,5,1.000000,0.000000,10.009340,0,0,0,0,0,0,0
2,29999,70,20000,57,0,49,9999,0.100000,0,0,0.000000,6,4.000000,0.000000,5.056610,0,0,0,0,0,0,0
2,29999,71,20000,57,0,40,9999,0.100000,0,0,0.000000,6,0.000000,0.000000,1.365157,0,0,0,0,0,0,0
2,29999,72,20000,12,0,40,9999,0.100000,0,0,0.000000,5,0.000000,0.000000,0.133432,0,0,0,0,0,0,0
2,29999,73,20000,54,0,40,9999,0.100000,0,0,0.000000,6,0.000000,0.000000,2.372694,0,0,0,0,0,0,0
2,29999,74,20000,3,0,49,9999,0.100000,0,0,0.000000,6,1.000000,0.000000,8.448919,0,0,0,0,0,0,0
2,29999,75,20000,54,0,40,9999,0.100000,0,0,0.000000,6,0.000000,0.000000,0.208922,0,0,0,0,0,0,0
2,29999,76,20000,57,0,40,9999,0.100000,0,0,0.000000,6,0.000000,0.000000,6.115231,0,0,0,0,0,0,0
2,29999,77,20000,57,0,40,9999,0.100000,0,0,0.000000,6,0.000000,0.000000,0.717180,0,0,0,0,0,0,0
2,29999,78,20000,54,0,49,9999,0.100000,0,0,0.000000,6,7.000000,0.000000,8.587641,0,0,0,0,0,0,0
2,29999,79,20000,3,0,40,9999,0.100000,0,0,0.000000,6,0.000000,0.000000,0.666947,0,0,0,0,0,0,0
2,29999,80,20000,57,0,49,9999,0.100000,0,0,0.000000,5,6.000000,0.000000,15.871706,0,0,0,0,0,0,0
2,29999,81,20000,57,0,49,9999,0.100000,0,0,0.000000,6,2.000000,0.000000,12.801008,0,0,0,0,0,0,0
2,29999,82,20000,57,0,49,9999,0.100000,0,0,0.000000,5,1.000000,0.000000,17.691441,0,0,0,0,0,0,0
2,29999,83,20000,50,10000,40,9999,0.100000,0,0,0.000000,6,0.000000,0.000000,0.237164,0,0,0,0,0,0,0
2,29999,84,20000,54,0,49,9999,0.100000,0,0,0.000000,6,5.000000,0.000000,16.828456,0,0,0,0,0,0,0
2,29999,85,20000,54,0,99,9999,0.100000,0,0,34.210526,6,5.000000,0.000000,15.190093,0,0,1,0,0,0,0
2,29999,86,20000,57,0,49,9999,0.100000,0,0,0.000000,5,4.000000,0.000000,24.704179,0,0,0,0,0,0,0
2,29999,87,20000,79,10000,49,9999,0.100000,0,0,0.000000,6,4.000000,0.000000,5.072160,0,0,0,0,0,0,0
2,29999,88,20000,57,0,49,9999,0.100000,0,0,0.000000,6,1.000000,0.000000,16.502567,0,0,0,0,0,0,0
2,29999,89,20000,12,0,49,9999,0.100000,0,0,0.000000,5,1.000000,0.000000,4.924925,0,0,0,0,0,0,0
2,29999,90,20000,79,10000,49,9999,0.100000,0,0,0.000000,6,1.000000,0.000000,21.668637,0,0,0,0,0,0,0
2,29999,91,20000,79,10000,49,9999,0.100000,0,0,0.000000,6,4.000000,0.000000,5.263444,0,0,0,0,0,0,0
2,29999,92,20000,12,0,49,9999,0.100000,0,0,0.000000,6,2.000000,0.000000,25.653083,0,0,0,0,0,0,0
2,29999,93,20000,12,0,40,9999,0.100000,0,0,0.000000,6,0.000000,0.000000,0.113433,0,0,0,0,0,0,0
2,29999,94,20000,12,0,40,9999,0.100000,0,0,0.000000,5,0.000000,0.000000,1.807709,0,0,0,0,0,0,0
2,29999,95,20000,8,10000,49,9999,0.100000,0,0,0.000000,6,2.000000,0.000000,13.133086,0,0,0,0,0,0,0
2,29999,96,20000,54,0,49,9999,0.100000,0,0,0.000000,5,4.000000,0.000000,12.487564,0,0,0,0,0,0,0
2,29999,97,20000,54,0,49,9999,0.100000,0,0,0.000000,6,2.000000,0.000000,10.672795,0,0,0,0,0,0,0
2,29999,98,20000,79,10000,40,9999,0.100000,0,0,0.000000,6,0.000000,0.000000,4.622390,0,0,0,0,0,0,0
2,29999,99,20000,12,0,49,9999,0.100000,0,0,0.000000,6,5.000000,0.000000,11.226485,0,0,0,0,0,0,0
3,39999,0,30000,0,20000,40,9999,0.100000,0,0,0.000000,6,0.000000,0.000000,23.900645,0,0,0,0,0,0,0
3,39999,1,30000,54,0,40,9999,0.100000,0,0,0.000000,6,0.000000,0.000000,0.524247,0,0,0,0,0,0,0
3,39999,2,30000,57,0,40,9999,0.100000,0,0,0.000000,6,0.000000,0.000000,5.872817,0,0,0,0,0,0,0
3,39999,3,30000,54,0,40,9999,0.100000,0,0,0.000000,6,0.000000,0.000000,1.014651,0,0,0,0,0,0,0
3,39999,4,30000,12,0,40,9999,0.100000,0,0,0.000000,6,0.000000,0.000000,16.684469,0,0,0,0,0,0,0
3,39999,5,30000,57,0,49,9999,0.100000,0,0,0.000000,6,1.000000,0.000000,6.516509,0,0,0,0,0,0,0
3,39999,6,30000,54,0,49,9999,0.100000,0,0,0.000000,6,1.000000,0.000000,3.276949,0,0,0,0,0,0,0
3,39999,7,30000,79,10000,40,9999,0.100000,0,0,0.000000,6,0.000000,0.000000,1.057374,0,0,0,0,0,0,0
3,39999,8,30000,0,20000,40,9999,0.100000,0,0,0.000000,6,0.000000,0.000000,0.106937,0,0,0,0,0,0,0
3,39999,9,30000,57,0,40,9999,0.100000,0,0,0.000000,6,0.000000,0.000000,4.581668,0,0,0,0,0,0,0
3,39999,10,30000,0,20000,40,9999,0.100000,0,0,0.000000,6,0.000000,0.000000,1.117587,0,0,0,0,0,0,0
3,39999,11,30000,0,20000,40,9999,0.100000,0,0,0.000000,6,0.000000,0.000000,10.454265,0,0,0,0,0,0,0
3,39999,12,30000,0,20000,49,9999,0.100000,0,0,0.000000,6,1.000000,0.000000,4.648754,0,0,0,0,0,0,0
3,39999,13,30000,54,0,40,9999,0.100000,0,0,0.000000,6,0.000000,0.000000,0.156058,0,0,0,0,0,0,0
3,39999,14,30000,54,0,40,9999,0.100000,0,0,0.000000,6,0.000000,0.000000,0.412409,0,0,0,0,0,0,0
3,39999,15,30000,57,0,49,9999,0.100000,0,0,0.000000,6,1.000000,0.000000,5.087410,0,0,0,0,0,0,0
3,39999,16,30000,79,10000,40,9999,0.100000,0,0,0.000000,6,0.000000,0.000000,0.123538,0,0,0,0,0,0,0
3,39999,17,30000,12,0,40,9999,0.100000,0,0,0.000000,6,0.000000,0.000000,1.304674,0,0,0,0,0,0,0
3,39999,18,30000,54,0,49,9999,0.100000,0,0,0.000000,6,4.000000,0.000000,16.284700,0,0,0,0,0,0,0
3,39999,19,30000,54,0,40,9999,0.100000,0,0,0.000000,6,0.000000,0.000000,1.880358,0,0,0,0,0,0,0
3,39999,20,30000,79,10000,40,9999,0.100000,0,0,0.000000,6,0.000000,0.000000,0.364210,0,0,0,0,0,0,0
3,39999,21,30000,12,0,49,9999,0.100000,0,0,0.000000,6,4.000000,0.000000,23.040498,0,0,0,0,0,0,0
3,39999,22,30000,54,0,40,9999,0.100000,0,0,0.000000,6,0.000000,0.000000,0.078391,0,0,0,0,0,0,0
3,39999,23,30000,0,20000,49,9999,0.100000,0,0,0.000000,6,1.000000,0.000000,8.154532,0,0,0,0,0,0,0
3,39999,24,30000,12,0,49,9999,0.100000,0,0,0.000000,6,1.000000,0.000000,1.814744,0,0,0,0,0,0,0
3,39999,25,30000,54,0,49,9999,0.100000,0,0,0.000000,6,1.000000,0.000000,10.675262,0,0,0,0,0,0,0
3,39999,26,30000,79,10000,49,9999,0.100000,0,0,0.000000,6,1.000000,0.000000,8.851640,0,0,0,0,0,0,0
3,39999,27,30000,57,0,49,9999,0.100000,0,0,0.000000,6,3.000000,0.000000,12.082911,0,0,0,0,0,0,0
3,39999,28,30000,54,0,49,9999,0.100000,0,0,0.000000,6,1.000000,0.000000,20.304396,0,0,0,0,0,0,0
3,39999,29,30000,0,20000,49,9999,0.100000,0,0,0.000000,6,1.000000,0.000000,7.827910,0,0,0,0,0,0,0
3,39999,30,30000,79,10000,40,9999,0.100000,0,0,0.000000,6,0.000000,0.000000,0.474617,0,0,0,0,0,0,0
3,39999,31,30000,57,0,49,9999,0.100000,0,0,0.000000,6,3.000000,0.000000,13.307821,0,0,0,0,0,0,0
3,39999,32,30000,54,0,49,9999,0.100000,0,0,0.000000,6,2.000000,0.000000,12.346007,0,0,0,0,0,0,0
3,39999,33,30000,54,0,40,9999,0.100000,0,0,0.000000,6,0.000000,0.000000,0.993551,0,0,0,0,0,0,0
3,39999,34,30000,57,0,40,9999,0.100000,0,0,0.000000,6,0.000000,0.000000,0.448452,0,0,0,0,0,0,0
3,39999,35,30000,54,0,40,9999,0.100000,0,0,0.000000,6,0.000000,0.000000,0.375667,0,0,0,0,0,0,0
3,39999,36,30000,54,0,40,9999,0.100000,0,0,0.000000,6,0.000000,0.000000,10.406163,0,0,0,0,0,0,0
3,39999,37,30000,12,0,40,9999,0.100000,0,0,0.000000,6,0.000000,0.000000,0.113395,0,0,0,0,0,0,0
3,39999,38,30000,54,0,40,9999,0.100000,0,0,0.000000,6,0.000000,0.000000,1.234061,0,0,0,0,0,0,0
3,39999,39,30000,12,0,40,9999,0.100000,0,0,0.000000,6,0.000000,0.000000,9.769081,0,0,0,0,0,0,0
3,39999,40,30000,54,0,40,9999,0.100000,0,0,0.000000,6,0.000000,0.000000,0.902342,0,0,0,0,0,0,0
3,39999,41,30000,57,0,40,9999,0.065000,0,0,0.000000,6,0.000000,0.000000,0.915841,0,0,0,0,0,0,0
3,39999,42,30000,54,0,40,9999,0.100000,0,0,0.000000,6,0.000000,0.000000,0.119318,0,0,0,0,0,0,0
3,39999,43,30000,54,0,40,9999,0.100000,0,0,0.000000,6,0.000000,0.000000,0.160684,0,0,0,0,0,0,0
3,39999,44,30000,12,0,40,9999,0.100000,0,0,0.000000,6,0.000000,0.000000,1.118347,0,0,0,0,0,0,0
3,39999,45,30000,79,10000,40,9999,0.100000,0,0,0.000000,6,0.000000,0.000000,1.133641,0,0,0,0,0,0,0
3,39999,46,30000,79,10000,40,9999,0.100000,0,0,0.000000,6,0.000000,0.000000,7.493973,0,0,0,0,0,0,0
3,39999,47,30000,54,0,49,9999,0.100000,0,0,0.000000,6,1.000000,0.000000,6.967802,0,0,0,0,0,0,0
3,39999,48,30000,12,0,49,9999,0.100000,0,0,0.000000,6,1.000000,0.000000,18.037408,0,0,0,0,0,0,0
3,39999,49,30000,57,0,40,9999,0.100000,0,0,0.000000,6,0.000000,0.000000,1.064461,0,0,0,0,0,0,0
3,39999,50,30000,57,0,40,9999,0.100000,0,0,0.000000,6,0.000000,0.000000,0.229321,0,0,0,0,0,0,0
3,39999,51,30000,79,10000,40,9999,0.100000,0,0,0.000000,6,0.000000,0.000000,0.159148,0,0,0,0,0,0,0
3,39999,52,30000,54,0,40,9999,0.100000,0,0,0.000000,6,0.000000,0.000000,0.138226,0,0,0,0,0,0,0
3,39999,53,30000,54,0,40,9999,0.100000,0,0,0.000000,6,0.000000,0.000000,0.823159,0,0,0,0,0,0,0
3,39999,54,30000,54,0,40,9999,0.100000,0,0,0.000000,6,0.000000,0.000000,0.113930,0,0,0,0,0,0,0
3,39999,55,30000,57,0,49,9999,0.100000,0,0,0.000000,6,3.000000,0.000000,12.262472,0,0,0,0,0,0,0
3,39999,56,30000,54,0,49,9999,0.100000,0,0,0.000000,6,1.000000,0.000000,19.145585,0,0,0,0,0,0,0
3,39999,57,30000,0,20000,40,9999,0.100000,0,0,0.000000,6,0.000000,0.000000,0.522130,0,0,0,0,0,0,0
3,39999,58,30000,79,10000,49,9999,0.100000,0,0,0.000000,6,1.000000,0.000000,19.442955,0,0,0,0,0,0,0
3,39999,59,30000,0,20000,49,9999,0.100000,0,0,0.000000,6,1.000000,0.000000,7.649995,0,0,0,0,0,0,0
3,39999,60,30000,79,10000,40,9999,0.100000,0,0,0.000000,6,0.000000,0.000000,1.037275,0,0,0,0,0,0,0
3,39999,61,30000,12,0,49,9999,0.100000,0,0,0.000000,6,1.000000,0.000000,15.915638,0,0,0,0,0,0,0
3,39999,62,30000,54,0,49,9999,0.100000,0,0,0.000000,6,4.000000,0.000000,12.533366,0,0,0,0,0,0,0
3,39999,63,30000,57,0,40,9999,0.100000,0,0,0.000000,6,0.000000,0.000000,1.168846,0,0,0,0,0,0,0
3,39999,64,30000,54,0,40,9999,0.100000,0,0,0.000000,6,0.000000,0.000000,0.994497,0,0,0,0,0,0,0
3,39999,65,30000,54,0,40,9999,0.100000,0,0,0.000000,6,0.000000,0.000000,5.542509,0,0,0,0,0,0,0
3,39999,66,30000,79,10000,40,9999,0.100000,0,0,0.000000,6,0.000000,0.000000,0.567007,0,0,0,0,0,0,0
3,39999,67,30000,12,0,49,9999,0.100000,0,0,0.000000,6,1.000000,0.000000,15.626433,0,0,0,0,0,0,0
3,39999,68,30000,57,0,49,9999,0.100000,0,0,0.000000,6,1.000000,0.000000,8.118839,0,0,0,0,0,0,0
3,39999,69,30000,57,0,49,9999,0.100000,0,0,0.000000,6,1.000000,0.000000,11.053678,0,0,0,0,0,0,0
3,39999,70,30000,0,20000,40,9999,0.100000,0,0,0.000000,6,0.000000,0.000000,0.326621,0,0,0,0,0,0,0
3,39999,71,30000,54,0,40,9999,0.100000,0,0,0.000000,6,0.000000,0.000000,1.133912,0,0,0,0,0,0,0
3,39999,72,30000,12,0,40,9999,0.100000,0,0,0.000000,6,0.000000,0.000000,0.131066,0,0,0,0,0,0,0
3,39999,73,30000,0,20000,40,9999,0.100000,0,0,0.000000,6,0.000000,0.000000,1.694625,0,0,0,0,0,0,0
3,39999,74,30000,0,20000,49,9999,0.100000,0,0,0.000000,6,1.000000,0.000000,8.267776,0,0,0,0,0,0,0
3,39999,75,30000,0,20000,40,9999,0.100000,0,0,0.000000,6,0.000000,0.000000,0.248620,0,0,0,0,0,0,0
3,39999,76,30000,54,0,40,9999,0.100000,0,0,0.000000,6,0.000000,0.000000,2.828694,0,0,0,0,0,0,0
3,39999,77,30000,0,20000,40,9999,0.100000,0,0,0.000000,6,0.000000,0.000000,0.658068,0,0,0,0,0,0,0
3,39999,78,30000,12,0,49,9999,0.100000,0,0,0.000000,6,1.000000,0.000000,2.095556,0,0,0,0,0,0,0
3,39999,79,30000,79,10000,40,9999,0.100000,0,0,0.000000,6,0.000000,0.000000,0.641093,0,0,0,0,0,0,0
3,39999,80,30000,12,0,49,9999,0.100000,0,0,0.000000,6,3.000000,0.000000,19.175374,0,0,0,0,0,0,0
3,39999,81,30000,57,0,49,9999,0.100000,0,0,0.000000,6,1.000000,0.000000,9.462959,0,0,0,0,0,0,0
3,39999,82,30000,79,10000,49,9999,0.100000,0,0,0.000000,6,2.000000,0.000000,13.889235,0,0,0,0,0,0,0
3,39999,83,30000,54,0,40,9999,0.100000,0,0,0.000000,6,0.000000,0.000000,0.134023,0,0,0,0,0,0,0
3,39999,84,30000,0,20000,40,9999,0.100000,0,0,0.000000,6,0.000000,0.000000,2.341984,0,0,0,0,0,0,0
3,39999,85,30000,54,0,49,9999,0.100000,0,0,0.000000,6,1.000000,0.000000,8.210009,0,0,0,0,0,0,0
3,39999,86,30000,12,0,49,9999,0.100000,0,0,0.000000,6,1.000000,0.000000,4.928363,0,0,0,0,0,0,0
3,39999,87,30000,12,0,40,9999,0.100000,0,0,0.000000,6,0.000000,0.000000,0.405044,0,0,0,0,0,0,0
3,39999,88,20000,57,0,40,19999,0.100000,0,0,0.000000,6,0.000000,0.000000,10.767269,0,0,0,0,0,0,0
3,39999,89,30000,54,0,40,9999,0.100000,0,0,0.000000,6,0.000000,0.000000,4.851369,0,0,0,0,0,0,0
3,39999,90,30000,79,10000,49,9999,0.100000,0,0,0.000000,6,1.000000,0.000000,10.403814,0,0,0,0,0,0,0
3,39999,91,30000,79,10000,40,9999,0.100000,0,0,0.000000,6,0.000000,0.000000,0.230437,0,0,0,0,0,0,0
3,39999,92,30000,79,10000,49,9999,0.100000,0,0,0.000000,6,1.000000,0.000000,7.179123,0,0,0,0,0,0,0
3,39999,93,30000,79,10000,40,9999,0.100000,0,0,0.000000,6,0.000000,0.000000,0.102358,0,0,0,0,0,0,0
3,39999,94,30000,12,0,40,9999,0.100000,0,0,0.000000,6,0.000000,0.000000,0.202084,0,0,0,0,0,0,0
3,39999,95,30000,54,0,49,9999,0.100000,0,0,0.000000,6,3.000000,0.000000,10.837455,0,0,0,0,0,0,0
3,39999,96,30000,12,0,40,9999,0.100000,0,0,0.000000,6,0.000000,0.000000,0.634448,0,0,0,0,0,0,0
3,39999,97,30000,54,0,49,9999,0.100000,0,0,0.000000,6,1.000000,0.000000,19.492220,0,0,0,0,0,0,0
3,39999,98,30000,57,0,49,9999,0.100000,0,0,0.000000,6,1.000000,0.000000,14.568081,0,0,0,0,0,0,0
3,39999,99,30000,79,10000,40,9999,0.100000,0,0,0.000000,6,0.000000,0.000000,0.138216,0,0,0,0,0,0,0
4,49999,0,40000,54,0,40,9999,0.100000,0,0,0.000000,6,0.000000,0.000000,23.869002,0,0,0,0,0,0,0
4,49999,1,40000,54,0,40,9999,0.100000,0,0,0.000000,6,0.000000,0.000000,0.143068,0,0,0,0,0,0,0
4,49999,2,40000,12,0,49,9999,0.100000,0,0,0.000000,6,1.000000,0.000000,1.265038,0,0,0,0,0,0,0
4,49999,3,40000,57,0,40,9999,0.100000,0,0,0.000000,6,0.000000,0.000000,1.015183,0,0,0,0,0,0,0
4,49999,4,40000,54,0,49,9999,0.100000,0,0,0.000000,6,1.000000,0.000000,14.400419,0,0,0,0,0,0,0
4,49999,5,40000,79,10000,40,9999,0.100000,0,0,0.000000,6,0.000000,0.000000,6.772915,0,0,0,0,0,0,0
4,49999,6,40000,54,0,49,9999,0.100000,0,0,0.000000,6,1.000000,0.000000,2.792105,0,0,0,0,0,0,0
4,49999,7,40000,12,0,40,9999,0.100000,0,0,0.000000,6,0.000000,0.000000,0.898978,0,0,0,0,0,0,0
4,49999,8,40000,79,10000,40,9999,0.100000,0,0,0.000000,6,0.000000,0.000000,0.106063,0,0,0,0,0,0,0
4,49999,9,40000,12,0,40,9999,0.100000,0,0,0.000000,6,0.000000,0.000000,4.378635,0,0,0,0,0,0,0
4,49999,10,40000,79,10000,49,9999,0.100000,0,0,0.000000,6,1.000000,0.000000,2.042812,0,0,0,0,0,0,0
4,49999,11,40000,79,10000,49,9999,0.100000,0,0,0.000000,6,2.000000,0.000000,10.297394,0,0,0,0,0,0,0
4,49999,12,40000,54,0,40,9999,0.100000,0,0,0.000000,6,0.000000,0.000000,1.472032,0,0,0,0,0,0,0
4,49999,13,40000,79,10000,40,9999,0.100000,0,0,0.000000,6,0.000000,0.000000,0.149348,0,0,0,0,0,0,0
4,49999,14,40000,79,10000,40,9999,0.100000,0,0,0.000000,6,0.000000,0.000000,0.472133,0,0,0,0,0,0,0
4,49999,15,40000,54,0,40,9999,0.100000,0,0,0.000000,6,0.000000,0.000000,0.912868,0,0,0,0,0,0,0
4,49999,16,40000,57,0,40,9999,0.100000,0,0,0.000000,6,0.000000,0.000000,0.119737,0,0,0,0,0,0,0
4,49999,17,40000,57,0,40,9999,0.100000,0,0,0.000000,6,0.000000,0.000000,1.112304,0,0,0,0,0,0,0
4,49999,18,40000,54,0,49,9999,0.100000,0,0,0.000000,6,1.000000,0.000000,6.747124,0,0,0,0,0,0,0
4,49999,19,40000,54,0,40,9999,0.100000,0,0,0.000000,6,0.000000,0.000000,0.215449,0,0,0,0,0,0,0
4,49999,20,40000,12,0,40,9999,0.100000,0,0,0.000000,6,0.000000,0.000000,0.412206,0,0,0,0,0,0,0
4,49999,21,40000,0,20000,49,9999,0.100000,0,0,0.000000,6,2.000000,0.000000,4.140086,0,0,0,0,0,0,0
4,49999,22,40000,54,0,40,9999,0.100000,0,0,0.000000,6,0.000000,0.000000,0.009418,0,0,0,0,0,0,0
4,49999,23,40000,0,20000,49,9999,0.100000,0,0,0.000000,6,1.000000,0.000000,9.040730,0,0,0,0,0,0,0
4,49999,24,40000,54,0,40,9999,0.100000,0,0,0.000000,6,0.000000,0.000000,0.240321,0,0,0,0,0,0,0
4,49999,25,40000,54,0,49,9999,0.100000,0,0,0.000000,6,1.000000,0.000000,1.595045,0,0,0,0,0,0,0
4,49999,26,40000,0,20000,49,9999,0.100000,0,0,0.000000,6,5.000000,0.000000,17.060902,0,0,0,0,0,0,0
4,49999,27,40000,57,0,49,9999,0.100000,0,0,0.000000,6,1.000000,0.000000,12.501217,0,0,0,0,0,0,0
4,49999,28,40000,0,20000,49,9999,0.100000,0,0,0.000000,6,3.000000,0.000000,21.079129,0,0,0,0,0,0,0
4,49999,29,40000,12,0,49,9999,0.100000,0,0,0.000000,6,2.000000,0.000000,5.722951,0,0,0,0,0,0,0
4,49999,30,40000,54,0,40,9999,0.100000,0,0,0.000000,6,0.000000,0.000000,0.359739,0,0,0,0,0,0,0
4,49999,31,40000,54,0,49,9999,0.100000,0,0,0.000000,6,1.000000,0.000000,3.836190,0,0,0,0,0,0,0
4,49999,32,40000,54,0,49,9999,0.100000,0,0,0.000000,6,2.000000,0.000000,6.826721,0,0,0,0,0,0,0
4,49999,33,40000,54,0,40,9999,0.100000,0,0,0.000000,6,0.000000,0.000000,1.037173,0,0,0,0,0,0,0
4,49999,34,40000,0,20000,49,9999,0.100000,0,0,0.000000,6,1.000000,0.000000,1.401142,0,0,0,0,0,0,0
4,49999,35,40000,57,0,40,9999,0.100000,0,0,0.000000,6,0.000000,0.000000,0.430214,0,0,0,0,0,0,0
4,49999,36,40000,12,0,49,9999,0.100000,0,0,0.000000,6,1.000000,0.000000,19.965106,0,0,0,0,0,0,0
4,49999,37,40000,0,20000,40,9999,0.100000,0,0,0.000000,6,0.000000,0.000000,0.104562,0,0,0,0,0,0,0
4,49999,38,40000,12,0,49,9999,0.100000,0,0,0.000000,6,1.000000,0.000000,4.435636,0,0,0,0,0,0,0
4,49999,39,40000,0,20000,49,9999,0.100000,0,0,0.000000,6,1.000000,0.000000,5.671555,0,0,0,0,0,0,0
4,49999,40,40000,54,0,49,9999,0.100000,0,0,0.000000,6,1.000000,0.000000,1.968958,0,0,0,0,0,0,0
4,49999,41,40000,54,0,40,9999,0.100000,0,0,0.000000,6,0.000000,0.000000,0.912872,0,0,0,0,0,0,0
4,49999,42,40000,12,0,40,9999,0.100000,0,0,0.000000,6,0.000000,0.000000,0.114422,0,0,0,0,0,0,0
4,49999,43,40000,79,10000,40,9999,0.100000,0,0,0.000000,6,0.000000,0.000000,0.157884,0,0,0,0,0,0,0
4,49999,44,40000,12,0,49,9999,0.100000,0,0,0.000000,6,1.000000,0.000000,2.164329,0,0,0,0,0,0,0
4,49999,45,40000,54,0,49,9999,0.100000,0,0,0.000000,6,1.000000,0.000000,1.771628,0,0,0,0,0,0,0
4,49999,46,40000,54,0,40,9999,0.100000,0,0,0.000000,6,0.000000,0.000000,3.090890,0,0,0,0,0,0,0
4,49999,47,40000,0,20000,49,9999,0.100000,0,0,0.000000,6,2.000000,0.000000,7.298466,0,0,0,0,0,0,0
4,49999,48,40000,54,0,49,9999,0.100000,0,0,0.000000,6,1.000000,0.000000,6.431969,0,0,0,0,0,0,0
4,49999,49,40000,0,20000,49,9999,0.100000,0,0,0.000000,6,1.000000,0.000000,2.755660,0,0,0,0,0,0,0
4,49999,50,40000,79,10000,40,9999,0.100000,0,0,0.000000,6,0.000000,0.000000,0.192428,0,0,0,0,0,0,0
4,49999,51,40000,57,0,40,9999,0.100000,0,0,0.000000,6,0.000000,0.000000,0.175349,0,0,0,0,0,0,0
4,49999,52,40000,0,20000,40,9999,0.100000,0,0,0.000000,6,0.000000,0.000000,0.131670,0,0,0,0,0,0,0
4,49999,53,40000,54,0,49,9999,0.100000,0,0,0.000000,6,1.000000,0.000000,2.070802,0,0,0,0,0,0,0
4,49999,54,40000,57,0,40,9999,0.100000,0,0,0.000000,6,0.000000,0.000000,0.097648,0,0,0,0,0,0,0
4,49999,55,40000,54,0,49,9999,0.100000,0,0,0.000000,6,2.000000,0.000000,5.704793,0,0,0,0,0,0,0
4,49999,56,40000,54,0,49,9999,0.100000,0,0,0.000000,6,8.000000,0.000000,14.529127,0,0,0,0,0,0,0
4,49999,57,40000,12,0,40,9999,0.100000,0,0,0.000000,6,0.000000,0.000000,0.752909,0,0,0,0,0,0,0
4,49999,58,40000,54,0,49,9999,0.100000,0,0,0.000000,6,2.000000,0.000000,11.233411,0,0,0,0,0,0,0
4,49999,59,40000,79,10000,40,9999,0.100000,0,0,0.000000,6,0.000000,0.000000,7.615527,0,0,0,0,0,0,0
4,49999,60,40000,12,0,40,9999,0.100000,0,0,0.000000,6,0.000000,0.000000,0.842517,0,0,0,0,0,0,0
4,49999,61,40000,0,20000,49,9999,0.100000,0,0,0.000000,6,4.000000,0.000000,15.895720,0,0,0,0,0,0,0
4,49999,62,40000,79,10000,49,9999,0.100000,0,0,0.000000,6,1.000000,0.000000,10.764974,0,0,0,0,0,0,0
4,49999,63,40000,54,0,40,9999,0.100000,0,0,0.000000,6,0.000000,0.000000,1.557241,0,0,0,0,0,0,0
4,49999,64,40000,54,0,40,9999,0.100000,0,0,0.000000,6,0.000000,0.000000,0.999531,0,0,0,0,0,0,0
4,49999,65,40000,0,20000,49,9999,0.100000,0,0,0.000000,6,1.000000,0.000000,5.344350,0,0,0,0,0,0,0
4,49999,66,40000,57,0,40,9999,0.100000,0,0,0.000000,6,0.000000,0.000000,0.711783,0,0,0,0,0,0,0
4,49999,67,40000,54,0,49,9999,0.100000,0,0,0.000000,6,7.000000,0.000000,20.479935,0,0,0,0,0,0,0
4,49999,68,40000,57,0,40,9999,0.100000,0,0,0.000000,6,0.000000,0.000000,0.146360,0,0,0,0,0,0,0
4,49999,69,40000,57,0,49,9999,0.100000,0,0,0.000000,6,1.000000,0.000000,10.353423,0,0,0,0,0,0,0
4,49999,70,40000,54,0,40,9999,0.100000,0,0,0.000000,6,0.000000,0.000000,0.276671,0,0,0,0,0,0,0
4,49999,71,40000,54,0,49,9999,0.100000,0,0,0.000000,6,4.000000,0.000000,6.661835,0,0,0,0,0,0,0
4,49999,72,40000,54,0,40,9999,0.100000,0,0,0.000000,6,0.000000,0.000000,0.128701,0,0,0,0,0,0,0
4,49999,73,40000,54,0,49,9999,0.100000,0,0,0.000000,6,4.000000,0.000000,6.323651,0,0,0,0,0,0,0
4,49999,74,40000,57,0,49,9999,0.100000,0,0,0.000000,6,4.000000,0.000000,11.500143,0,0,0,0,0,0,0
4,49999,75,40000,54,0,49,9999,0.100000,0,0,0.000000,6,1.000000,0.000000,1.147380,0,0,0,0,0,0,0
4,49999,76,40000,79,10000,49,9999,0.100000,0,0,0.000000,6,3.000000,0.000000,14.153611,0,0,0,0,0,0,0
4,49999,77,40000,54,0,40,9999,0.100000,0,0,0.000000,6,0.000000,0.000000,0.691388,0,0,0,0,0,0,0
4,49999,78,40000,54,0,40,9999,0.100000,0,0,0.000000,6,0.000000,0.000000,0.993247,0,0,0,0,0,0,0
4,49999,79,40000,0,20000,40,9999,0.100000,0,0,0.000000,6,0.000000,0.000000,1.380360,0,0,0,0,0,0,0
4,49999,80,40000,12,0,40,9999,0.100000,0,0,0.000000,6,0.000000,0.000000,10.698938,0,0,0,0,0,0,0
4,49999,81,40000,12,0,40,9999,0.100000,0,0,0.000000,6,0.000000,0.000000,5.122916,0,0,0,0,0,0,0
4,49999,82,40000,57,0,49,9999,0.100000,0,0,0.000000,6,4.000000,0.000000,15.031728,0,0,0,0,0,0,0
4,49999,83,40000,12,0,40,9999,0.100000,0,0,0.000000,6,0.000000,0.000000,0.137725,0,0,0,0,0,0,0
4,49999,84,40000,79,10000,40,9999,0.100000,0,0,0.000000,6,0.000000,0.000000,0.522822,0,0,0,0,0,0,0
4,49999,85,40000,54,0,49,9999,0.100000,0,0,0.000000,6,2.000000,0.000000,6.095391,0,0,0,0,0,0,0
4,49999,86,40000,79,10000,40,9999,0.100000,0,0,0.000000,6,0.000000,0.000000,11.826546,0,0,0,0,0,0,0
4,49999,87,40000,54,0,40,9999,0.100000,0,0,0.000000,6,0.000000,0.000000,0.307647,0,0,0,0,0,0,0
4,49999,88,40000,79,10000,49,9999,0.100000,0,0,0.000000,6,2.000000,0.000000,21.087940,0,0,0,0,0,0,0
4,49999,89,40000,54,0,40,9999,0.100000,0,0,0.000000,6,0.000000,0.000000,4.688770,0,0,0,0,0,0,0
4,49999,90,40000,57,0,49,9999,0.100000,0,0,0.000000,6,1.000000,0.000000,22.580794,0,0,0,0,0,0,0
4,49999,91,40000,12,0,40,9999,0.100000,0,0,0.000000,6,0.000000,0.000000,0.159220,0,0,0,0,0,0,0
4,49999,92,40000,12,0,49,9999,0.100000,0,0,0.000000,6,2.000000,0.000000,21.428210,0,0,0,0,0,0,0
4,49999,93,40000,54,0,40,9999,0.100000,0,0,0.000000,6,0.000000,0.000000,0.102628,0,0,0,0,0,0,0
4,49999,94,40000,57,0,40,9999,0.100000,0,0,0.000000,6,0.000000,0.000000,0.176176,0,0,0,0,0,0,0
4,49999,95,40000,12,0,49,9999,0.100000,0,0,0.000000,6,2.000000,0.000000,5.653551,0,0,0,0,0,0,0
4,49999,96,40000,54,0,49,9999,0.100000,0,0,0.000000,6,1.000000,0.000000,1.711058,0,0,0,0,0,0,0
4,49999,97,40000,0,20000,49,9999,0.100000,0,0,0.000000,6,7.000000,0.000000,8.656898,0,0,0,0,0,0,0
4,49999,98,40000,0,20000,49,9999,0.100000,0,0,0.000000,6,2.000000,0.000000,19.477403,0,0,0,0,0,0,0
4,49999,99,40000,0,20000,40,9999,0.100000,0,0,0.000000,6,0.000000,0.000000,0.136362,0,0,0,0,0,0,0
5,59999,0,50000,79,10000,40,9999,0.100000,0,0,0.000000,6,0.000000,0.000000,23.932133,0,0,0,0,0,0,0
5,59999,1,50000,0,20000,40,9999,0.100000,0,0,0.000000,6,0.000000,0.000000,0.140863,0,0,0,0,0,0,0
5,59999,2,50000,54,0,40,9999,0.100000,0,0,0.000000,6,0.000000,0.000000,1.060827,0,0,0,0,0,0,0
5,59999,3,50000,12,0,40,9999,0.100000,0,0,0.000000,6,0.000000,0.000000,0.963335,0,0,0,0,0,0,0
5,59999,4,50000,79,10000,40,9999,0.100000,0,0,0.000000,6,0.000000,0.000000,1.801591,0,0,0,0,0,0,0
5,59999,5,50000,57,0,40,9999,0.100000,0,0,0.000000,6,0.000000,0.000000,8.896698,0,0,0,0,0,0,0
5,59999,6,50000,54,0,49,9999,0.100000,0,0,0.000000,6,6.000000,0.000000,8.689590,0,0,0,0,0,0,0
5,59999,7,50000,0,20000,40,9999,0.100000,0,0,0.000000,6,0.000000,0.000000,0.955872,0,0,0,0,0,0,0
5,59999,8,50000,79,10000,40,9999,0.100000,0,0,0.000000,6,0.000000,0.000000,0.110154,0,0,0,0,0,0,0
5,59999,9,50000,57,0,49,9999,0.100000,0,0,0.000000,6,2.000000,0.000000,10.461832,0,0,0,0,0,0,0
5,59999,10,50000,54,0,49,9999,0.100000,0,0,0.000000,6,1.000000,0.000000,2.775862,0,0,0,0,0,0,0
5,59999,11,50000,12,0,49,9999,0.100000,0,0,0.000000,6,10.000000,0.000000,14.220285,0,0,0,0,0,0,0
5,59999,12,50000,54,0,40,9999,0.100000,0,0,0.000000,6,0.000000,0.000000,0.083022,0,0,0,0,0,0,0
5,59999,13,50000,0,20000,40,9999,0.100000,0,0,0.000000,6,0.000000,0.000000,0.153119,0,0,0,0,0,0,0
5,59999,14,50000,57,0,40,9999,0.100000,0,0,0.000000,6,0.000000,0.000000,0.606736,0,0,0,0,0,0,0
5,59999,15,50000,0,20000,40,9999,0.100000,0,0,0.000000,6,0.000000,0.000000,1.113940,0,0,0,0,0,0,0
5,59999,16,50000,54,0,40,9999,0.100000,0,0,0.000000,6,0.000000,0.000000,0.116820,0,0,0,0,0,0,0
5,59999,17,50000,12,0,40,9999,0.100000,0,0,0.000000,6,0.000000,0.000000,0.948161,0,0,0,0,0,0,0
5,59999,18,50000,54,0,49,9999,0.100000,0,0,0.000000,6,11.000000,0.000000,14.073346,0,0,0,0,0,0,0
5,59999,19,50000,54,0,40,9999,0.100000,0,0,0.000000,6,0.000000,0.000000,0.226234,0,0,0,0,0,0,0
5,59999,20,50000,12,0,40,9999,0.100000,0,0,0.000000,6,0.000000,0.000000,1.338312,0,0,0,0,0,0,0
5,59999,21,50000,54,0,49,9999,0.100000,0,0,0.000000,6,1.000000,0.000000,4.759659,0,0,0,0,0,0,0
5,59999,22,50000,57,0,40,9999,0.100000,0,0,0.000000,6,0.000000,0.000000,0.009520,0,0,0,0,0,0,0
5,59999,23,50000,79,10000,49,9999,0.100000,0,0,0.000000,6,2.000000,0.000000,9.038860,0,0,0,0,0,0,0
5,59999,24,50000,54,0,40,9999,0.100000,0,0,0.000000,6,0.000000,0.000000,0.231321,0,0,0,0,0,0,0
5,59999,25,50000,54,0,40,9999,0.100000,0,0,0.000000,6,0.000000,0.000000,1.091854,0,0,0,0,0,0,0
5,59999,26,50000,57,0,49,9999,0.100000,0,0,0.000000,6,12.000000,0.000000,22.854823,0,0,0,0,0,0,0
5,59999,27,50000,12,0,40,9999,0.100000,0,0,0.000000,6,0.000000,0.000000,3.288894,0,0,0,0,0,0,0
5,59999,28,50000,12,0,49,9999,0.100000,0,0,0.000000,6,1.000000,0.000000,7.986442,0,0,0,0,0,0,0
5,59999,29,50000,0,20000,49,9999,0.100000,0,0,0.000000,6,1.000000,0.000000,4.651124,0,0,0,0,0,0,0
5,59999,30,50000,54,0,40,9999,0.100000,0,0,0.000000,6,0.000000,0.000000,0.560450,0,0,0,0,0,0,0
5,59999,31,50000,0,20000,49,9999,0.100000,0,0,0.000000,6,1.000000,0.000000,7.375006,0,0,0,0,0,0,0
5,59999,32,50000,0,20000,49,9999,0.100000,0,0,0.000000,6,1.000000,0.000000,8.930603,0,0,0,0,0,0,0
5,59999,33,50000,54,0,40,9999,0.100000,0,0,0.000000,6,0.000000,0.000000,0.974689,0,0,0,0,0,0,0
5,59999,34,50000,57,0,40,9999,0.100000,0,0,0.000000,6,0.000000,0.000000,1.142278,0,0,0,0,0,0,0
5,59999,35,50000,54,0,40,9999,0.100000,0,0,0.000000,6,0.000000,0.000000,0.521893,0,0,0,0,0,0,0
5,59999,36,50000,12,0,49,9999,0.100000,0,0,0.000000,6,5.000000,0.000000,7.952826,0,0,0,0,0,0,0
5,59999,37,50000,79,10000,40,9999,0.100000,0,0,0.000000,6,0.000000,0.000000,0.121463,0,0,0,0,0,0,0
5,59999,38,50000,12,0,40,9999,0.100000,0,0,0.000000,6,0.000000,0.000000,1.323247,0,0,0,0,0,0,0
5,59999,39,50000,57,0,49,9999,0.100000,0,0,0.000000,6,1.000000,0.000000,4.322817,0,0,0,0,0,0,0
5,59999,40,50000,54,0,49,9999,0.100000,0,0,0.000000,6,1.000000,0.000000,4.194829,0,0,0,0,0,0,0
5,59999,41,50000,79,10000,49,9999,0.100000,0,0,0.000000,6,6.000000,0.000000,12.891947,0,0,0,0,0,0,0
5,59999,42,50000,12,0,40,9999,0.100000,0,0,0.000000,6,0.000000,0.000000,0.119511,0,0,0,0,0,0,0
5,59999,43,50000,57,0,40,9999,0.100000,0,0,0.000000,6,0.000000,0.000000,0.145169,0,0,0,0,0,0,0
5,59999,44,50000,0,20000,49,9999,0.100000,0,0,0.000000,6,1.000000,0.000000,5.594972,0,0,0,0,0,0,0
5,59999,45,50000,54,0,49,9999,0.100000,0,0,0.000000,6,1.000000,0.000000,2.052670,0,0,0,0,0,0,0
5,59999,46,50000,0,20000,49,9999,0.100000,0,0,0.000000,6,1.000000,0.000000,8.567849,0,0,0,0,0,0,0
5,59999,47,50000,0,20000,40,9999,0.100000,0,0,0.000000,6,0.000000,0.000000,0.619893,0,0,0,0,0,0,0
5,59999,48,50000,54,0,40,9999,0.100000,0,0,0.000000,6,0.000000,0.000000,8.602185,0,0,0,0,0,0,0
5,59999,49,50000,0,20000,49,9999,0.100000,0,0,0.000000,6,1.000000,0.000000,2.568424,0,0,0,0,0,0,0
5,59999,50,50000,54,0,40,9999,0.100000,0,0,0.000000,6,0.000000,0.000000,0.160669,0,0,0,0,0,0,0
5,59999,51,50000,79,10000,40,9999,0.100000,0,0,0.000000,6,0.000000,0.000000,0.173948,0,0,0,0,0,0,0
5,59999,52,50000,12,0,40,9999,0.100000,0,0,0.000000,6,0.000000,0.000000,0.139074,0,0,0,0,0,0,0
5,59999,53,50000,54,0,49,9999,0.100000,0,0,0.000000,6,1.000000,0.000000,2.053249,0,0,0,0,0,0,0
5,59999,54,50000,57,0,40,9999,0.100000,0,0,0.000000,6,0.000000,0.000000,0.095637,0,0,0,0,0,0,0
5,59999,55,50000,0,20000,49,9999,0.100000,0,0,0.000000,6,7.000000,0.000000,16.108928,0,0,0,0,0,0,0
5,59999,56,50000,79,10000,49,9999,0.100000,0,0,0.000000,6,1.000000,0.000000,9.849662,0,0,0,0,0,0,0
5,59999,57,50000,54,0,40,9999,0.100000,0,0,0.000000,6,0.000000,0.000000,0.874363,0,0,0,0,0,0,0
5,59999,58,50000,54,0,49,9999,0.100000,0,0,0.000000,6,1.000000,0.000000,13.004875,0,0,0,0,0,0,0
5,59999,59,50000,57,0,49,9999,0.100000,0,0,0.000000,6,2.000000,0.000000,8.911918,0,0,0,0,0,0,0
5,59999,60,50000,0,20000,40,9999,0.100000,0,0,0.000000,6,0.000000,0.000000,0.726196,0,0,0,0,0,0,0
5,59999,61,50000,54,0,49,9999,0.100000,0,0,0.000000,6,2.000000,0.000000,6.115638,0,0,0,0,0,0,0
5,59999,62,50000,57,0,40,9999,0.100000,0,0,0.000000,6,0.000000,0.000000,6.417817,0,0,0,0,0,0,0
5,59999,63,50000,79,10000,40,9999,0.100000,0,0,0.000000,6,0.000000,0.000000,1.829630,0,0,0,0,0,0,0
5,59999,64,50000,12,0,40,9999,0.100000,0,0,0.000000,6,0.000000,0.000000,0.957782,0,0,0,0,0,0,0
5,59999,65,50000,0,20000,49,9999,0.100000,0,0,0.000000,6,1.000000,0.000000,6.983010,0,0,0,0,0,0,0
5,59999,66,50000,54,0,40,9999,0.100000,0,0,0.000000,6,0.000000,0.000000,0.564543,0,0,0,0,0,0,0
5,59999,67,50000,57,0,49,9999,0.100000,0,0,0.000000,6,4.000000,0.000000,10.719407,0,0,0,0,0,0,0
5,59999,68,50000,57,0,40,9999,0.100000,0,0,0.000000,6,0.000000,0.000000,0.158573,0,0,0,0,0,0,0
5,59999,69,50000,54,0,49,9999,0.100000,0,0,0.000000,6,1.000000,0.000000,4.723633,0,0,0,0,0,0,0
5,59999,70,50000,57,0,40,9999,0.100000,0,0,0.000000,6,0.000000,0.000000,0.321540,0,0,0,0,0,0,0
5,59999,71,50000,54,0,49,9999,0.100000,0,0,0.000000,6,2.000000,0.000000,23.184446,0,0,0,0,0,0,0
5,59999,72,50000,57,0,40,9999,0.100000,0,0,0.000000,6,0.000000,0.000000,0.140233,0,0,0,0,0,0,0
5,59999,73,50000,79,10000,49,9999,0.100000,0,0,34.210526,6,4.000000,0.000000,13.269072,0,0,1,1,0,0,0
5,59999,74,50000,54,0,40,9999,0.100000,0,0,0.000000,6,0.000000,0.000000,5.630589,0,0,0,0,0,0,0
5,59999,75,50000,57,0,40,9999,0.100000,0,0,0.000000,6,0.000000,0.000000,0.977867,0,0,0,0,0,0,0
5,59999,76,50000,0,20000,49,9999,0.100000,0,0,0.000000,6,1.000000,0.000000,10.414328,0,0,0,0,0,0,0
5,59999,77,50000,54,0,40,9999,0.100000,0,0,0.000000,6,0.000000,0.000000,0.691886,0,0,0,0,0,0,0
5,59999,78,50000,54,0,40,9999,0.100000,0,0,0.000000,6,0.000000,0.000000,1.100250,0,0,0,0,0,0,0
5,59999,79,50000,54,0,40,9999,0.100000,0,0,0.000000,6,0.000000,0.000000,1.778225,0,0,0,0,0,0,0
5,59999,80,50000,57,0,40,9999,0.100000,0,0,0.000000,6,0.000000,0.000000,5.306198,0,0,0,0,0,0,0
5,59999,81,50000,57,0,40,9999,0.100000,0,0,0.000000,6,0.000000,0.000000,7.043256,0,0,0,0,0,0,0
5,59999,82,50000,0,20000,49,9999,0.100000,0,0,0.000000,6,1.000000,0.000000,9.400790,0,0,0,0,0,0,0
5,59999,83,50000,12,0,40,9999,0.100000,0,0,0.000000,6,0.000000,0.000000,0.135019,0,0,0,0,0,0,0
5,59999,84,50000,57,0,49,9999,0.100000,0,0,0.000000,6,2.000000,0.000000,4.980379,0,0,0,0,0,0,0
5,59999,85,50000,57,0,40,9999,0.100000,0,0,0.000000,6,0.000000,0.000000,0.512056,0,0,0,0,0,0,0
5,59999,86,50000,57,0,49,9999,0.100000,0,0,0.000000,6,7.000000,0.000000,16.433771,0,0,0,0,0,0,0
5,59999,87,50000,0,20000,40,9999,0.100000,0,0,0.000000,6,0.000000,0.000000,0.330588,0,0,0,0,0,0,0
5,59999,88,50000,54,0,49,9999,0.100000,0,0,0.000000,6,1.000000,0.000000,18.279714,0,0,0,0,0,0,0
5,59999,89,50000,0,20000,49,9999,0.100000,0,0,0.000000,6,2.000000,0.000000,8.694813,0,0,0,0,0,0,0
5,59999,90,50000,12,0,49,9999,0.100000,0,0,0.000000,6,1.000000,0.000000,17.351719,0,0,0,0,0,0,0
5,59999,91,50000,0,20000,40,9999,0.100000,0,0,0.000000,6,0.000000,0.000000,0.191880,0,0,0,0,0,0,0
5,59999,92,50000,54,0,49,9999,0.100000,0,0,0.000000,6,2.000000,0.000000,14.460133,0,0,0,0,0,0,0
5,59999,93,50000,54,0,40,9999,0.100000,0,0,0.000000,6,0.000000,0.000000,0.101491,0,0,0,0,0,0,0
5,59999,94,50000,54,0,40,9999,0.100000,0,0,0.000000,6,0.000000,0.000000,0.181780,0,0,0,0,0,0,0
5,59999,95,50000,79,10000,49,9999,0.100000,0,0,0.000000,6,7.000000,0.000000,15.541331,0,0,0,0,0,0,0
5,59999,96,50000,54,0,49,9999,0.100000,0,0,0.000000,6,1.000000,0.000000,1.925343,0,0,0,0,0,0,0
5,59999,97,50000,57,0,40,9999,0.100000,0,0,0.000000,6,0.000000,0.000000,1.058195,0,0,0,0,0,0,0
5,59999,98,50000,79,10000,49,9999,0.100000,0,0,0.000000,6,1.000000,0.000000,22.165000,0,0,0,0,0,0,0
5,59999,99,50000,54,0,40,9999,0.100000,0,0,0.000000,6,0.000000,0.000000,0.141412,0,0,0,0,0,0,0
6,69999,0,60000,12,0,40,9999,0.100000,0,0,0.000000,6,0.000000,0.000000,23.871679,0,0,0,0,0,0,0
6,69999,1,60000,57,0,40,9999,0.100000,0,0,0.000000,6,0.000000,0.000000,0.141504,0,0,0,0,0,0,0
6,69999,2,60000,0,20000,40,9999,0.100000,0,0,0.000000,6,0.000000,0.000000,0.868788,0,0,0,0,0,0,0
6,69999,3,60000,54,0,40,9999,0.100000,0,0,0.000000,6,0.000000,0.000000,0.948203,0,0,0,0,0,0,0
6,69999,4,60000,79,10000,49,9999,0.100000,0,0,0.000000,6,1.000000,0.000000,11.553135,0,0,0,0,0,0,0
6,69999,5,60000,54,0,49,9999,0.100000,0,0,0.000000,6,2.000000,0.000000,7.059213,0,0,0,0,0,0,0
6,69999,6,60000,0,20000,40,9999,0.100000,0,0,0.000000,6,0.000000,0.000000,0.872877,0,0,0,0,0,0,0
6,69999,7,60000,53,50000,40,9999,0.100000,0,0,0.000000,6,0.000000,0.000000,0.725509,0,0,0,0,0,0,0
6,69999,8,60000,79,10000,40,9999,0.100000,0,0,0.000000,6,0.000000,0.000000,0.105845,0,0,0,0,0,0,0
6,69999,9,60000,79,10000,49,9999,0.100000,0,0,0.000000,6,5.000000,0.000000,14.846209,0,0,0,0,0,0,0
6,69999,10,60000,12,0,49,9999,0.100000,0,0,0.000000,6,4.000000,0.000000,8.739756,0,0,0,0,0,0,0
6,69999,11,60000,53,50000,49,9999,0.100000,0,0,0.000000,6,5.000000,0.000000,8.434231,0,0,0,0,0,0,0
6,69999,12,60000,79,10000,40,9999,0.100000,0,0,0.000000,6,0.000000,0.000000,0.109153,0,0,0,0,0,0,0
6,69999,13,60000,57,0,40,9999,0.100000,0,0,0.000000,6,0.000000,0.000000,0.158219,0,0,0,0,0,0,0
6,69999,14,60000,79,10000,49,9999,0.100000,0,0,0.000000,6,1.000000,0.000000,15.269674,0,0,0,0,0,0,0
6,69999,15,60000,57,0,40,9999,0.100000,0,0,0.000000,6,0.000000,0.000000,1.095713,0,0,0,0,0,0,0
6,69999,16,60000,54,0,40,9999,0.100000,0,0,0.000000,6,0.000000,0.000000,0.116832,0,0,0,0,0,0,0
6,69999,17,60000,54,0,40,9999,0.100000,0,0,0.000000,6,0.000000,0.000000,1.014666,0,0,0,0,0,0,0
6,69999,18,60000,0,20000,49,9999,0.100000,0,0,0.000000,6,2.000000,0.000000,10.179759,0,0,0,0,0,0,0
6,69999,19,60000,57,0,40,9999,0.100000,0,0,0.000000,6,0.000000,0.000000,0.224749,0,0,0,0,0,0,0
6,69999,20,60000,54,0,49,9999,0.100000,0,0,0.000000,6,5.000000,0.000000,7.452126,0,0,0,0,0,0,0
6,69999,21,60000,53,50000,49,9999,0.100000,0,0,0.000000,6,2.000000,0.000000,13.414889,0,0,0,0,0,0,0
6,69999,22,60000,79,10000,40,9999,0.100000,0,0,0.000000,6,0.000000,0.000000,0.058344,0,0,0,0,0,0,0
6,69999,23,60000,54,0,49,9999,0.100000,0,0,0.000000,6,4.000000,0.000000,16.549997,0,0,0,0,0,0,0
6,69999,24,60000,57,0,40,9999,0.100000,0,0,0.000000,6,0.000000,0.000000,0.236685,0,0,0,0,0,0,0
6,69999,25,60000,0,20000,40,9999,0.100000,0,0,0.000000,6,0.000000,0.000000,0.921867,0,0,0,0,0,0,0
6,69999,26,60000,0,20000,99,9999,0.100000,0,0,34.210526,6,3.000000,0.000000,16.046387,0,0,1,0,0,0,0
6,69999,27,60000,57,0,49,9999,0.100000,0,0,0.000000,6,1.000000,0.000000,7.024634,0,0,0,0,0,0,0
6,69999,28,60000,54,0,49,9999,0.100000,0,0,0.000000,6,1.000000,0.000000,5.698558,0,0,0,0,0,0,0
6,69999,29,60000,12,0,49,9999,0.100000,0,0,0.000000,6,1.000000,0.000000,5.502872,0,0,0,0,0,0,0
6,69999,30,60000,79,10000,40,9999,0.100000,0,0,0.000000,6,0.000000,0.000000,0.591918,0,0,0,0,0,0,0
6,69999,31,60000,57,0,40,9999,0.100000,0,0,0.000000,6,0.000000,0.000000,5.575629,0,0,0,0,0,0,0
6,69999,32,60000,57,0,49,9999,0.100000,0,0,0.000000,6,4.000000,0.000000,10.816599,0,0,0,0,0,0,0
6,69999,33,60000,57,0,40,9999,0.100000,0,0,0.000000,6,0.000000,0.000000,0.941793,0,0,0,0,0,0,0
6,69999,34,60000,54,0,40,9999,0.100000,0,0,0.000000,6,0.000000,0.000000,1.025446,0,0,0,0,0,0,0
6,69999,35,60000,54,0,49,9999,0.100000,0,0,0.000000,6,1.000000,0.000000,5.175497,0,0,0,0,0,0,0
6,69999,36,60000,54,0,40,9999,0.100000,0,0,0.000000,6,0.000000,0.000000,0.249070,0,0,0,0,0,0,0
6,69999,37,60000,54,0,40,9999,0.100000,0,0,0.000000,6,0.000000,0.000000,0.325625,0,0,0,0,0,0,0
6,69999,38,60000,53,50000,40,9999,0.100000,0,0,0.000000,6,0.000000,0.000000,1.513233,0,0,0,0,0,0,0
6,69999,39,60000,57,0,49,9999,0.100000,0,0,0.000000,6,3.000000,0.000000,8.352426,0,0,0,0,0,0,0
6,69999,40,60000,54,0,40,9999,0.100000,0,0,0.000000,6,0.000000,0.000000,0.944329,0,0,0,0,0,0,0
6,69999,41,60000,57,0,40,9999,0.100000,0,0,0.000000,6,0.000000,0.000000,6.161821,0,0,0,0,0,0,0
6,69999,42,60000,57,0,40,9999,0.100000,0,0,0.000000,6,0.000000,0.000000,0.112962,0,0,0,0,0,0,0
6,69999,43,60000,79,10000,49,9999,0.100000,0,0,0.000000,6,1.000000,0.000000,2.909824,0,0,0,0,0,0,0
6,69999,44,60000,57,0,49,9999,0.100000,0,0,0.000000,6,15.000000,0.000000,23.066225,0,0,0,0,0,0,0
6,69999,45,60000,79,10000,40,9999,0.100000,0,0,0.000000,6,0.000000,0.000000,0.703210,0,0,0,0,0,0,0
6,69999,46,60000,57,0,49,9999,0.100000,0,0,0.000000,6,2.000000,0.000000,7.213497,0,0,0,0,0,0,0
6,69999,47,60000,12,0,40,9999,0.100000,0,0,0.000000,6,0.000000,0.000000,0.644400,0,0,0,0,0,0,0
6,69999,48,60000,0,20000,40,9999,0.100000,0,0,0.000000,6,0.000000,0.000000,7.740040,0,0,0,0,0,0,0
6,69999,49,60000,12,0,40,9999,0.100000,0,0,0.000000,6,0.000000,0.000000,2.182906,0,0,0,0,0,0,0
6,69999,50,60000,54,0,40,9999,0.100000,0,0,0.000000,6,0.000000,0.000000,0.139486,0,0,0,0,0,0,0
6,69999,51,60000,54,0,40,9999,0.100000,0,0,0.000000,6,0.000000,0.000000,0.169259,0,0,0,0,0,0,0
6,69999,52,60000,12,0,40,9999,0.100000,0,0,0.000000,6,0.000000,0.000000,0.139786,0,0,0,0,0,0,0
6,69999,53,60000,0,20000,40,9999,0.100000,0,0,0.000000,6,0.000000,0.000000,0.491056,0,0,0,0,0,0,0
6,69999,54,60000,12,0,40,9999,0.100000,0,0,0.000000,6,0.000000,0.000000,0.287151,0,0,0,0,0,0,0
6,69999,55,60000,79,10000,49,9999,0.100000,0,0,0.000000,6,3.000000,0.000000,10.087237,0,0,0,0,0,0,0
6,69999,56,60000,0,20000,40,9999,0.100000,0,0,0.000000,6,0.000000,0.000000,4.107427,0,0,0,0,0,0,0
6,69999,57,60000,12,0,40,9999,0.100000,0,0,0.000000,6,0.000000,0.000000,0.620483,0,0,0,0,0,0,0
6,69999,58,60000,54,0,40,9999,0.100000,0,0,0.000000,6,0.000000,0.000000,0.698833,0,0,0,0,0,0,0
6,69999,59,60000,54,0,40,9999,0.100000,0,0,0.000000,6,0.000000,0.000000,4.314459,0,0,0,0,0,0,0
6,69999,60,60000,12,0,40,9999,0.100000,0,0,0.000000,6,0.000000,0.000000,0.735398,0,0,0,0,0,0,0
6,69999,61,60000,79,10000,40,9999,0.100000,0,0,0.000000,6,0.000000,0.000000,6.748408,0,0,0,0,0,0,0
6,69999,62,60000,12,0,49,9999,0.100000,0,0,0.000000,6,3.000000,0.000000,8.524117,0,0,0,0,0,0,0
6,69999,63,60000,79,10000,40,9999,0.100000,0,0,0.000000,6,0.000000,0.000000,2.423107,0,0,0,0,0,0,0
6,69999,64,60000,54,0,40,9999,0.100000,0,0,0.000000,6,0.000000,0.000000,0.889404,0,0,0,0,0,0,0
6,69999,65,60000,57,0,49,9999,0.100000,0,0,0.000000,6,1.000000,0.000000,5.323094,0,0,0,0,0,0,0
6,69999,66,60000,53,50000,40,9999,0.100000,0,0,0.000000,6,0.000000,0.000000,0.505671,0,0,0,0,0,0,0
6,69999,67,60000,54,0,49,9999,0.100000,0,0,0.000000,6,6.000000,0.000000,7.408164,0,0,0,0,0,0,0
6,69999,68,60000,57,0,40,9999,0.100000,0,0,0.000000,6,0.000000,0.000000,0.154382,0,0,0,0,0,0,0
6,69999,69,60000,12,0,49,9999,0.100000,0,0,0.000000,6,1.000000,0.000000,6.535052,0,0,0,0,0,0,0
6,69999,70,60000,79,10000,40,9999,0.100000,0,0,0.000000,6,0.000000,0.000000,0.412744,0,0,0,0,0,0,0
6,69999,71,60000,79,10000,49,9999,0.100000,0,0,0.000000,6,1.000000,0.000000,19.600273,0,0,0,0,0,0,0
6,69999,72,60000,0,20000,49,9999,0.100000,0,0,0.000000,6,1.000000,0.000000,3.745872,0,0,0,0,0,0,0
6,69999,73,60000,57,0,49,9999,0.100000,0,0,0.000000,6,1.000000,0.000000,9.291572,0,0,0,0,0,0,0
6,69999,74,60000,79,10000,49,9999,0.100000,0,0,0.000000,6,2.000000,0.000000,11.038208,0,0,0,0,0,0,0
6,69999,75,60000,57,0,40,9999,0.100000,0,0,0.000000,6,0.000000,0.000000,0.811666,0,0,0,0,0,0,0
6,69999,76,60000,79,10000,49,9999,0.100000,0,0,0.000000,6,1.000000,0.000000,11.391629,0,0,0,0,0,0,0
6,69999,77,60000,79,10000,40,9999,0.100000,0,0,0.000000,6,0.000000,0.000000,0.723160,0,0,0,0,0,0,0
6,69999,78,60000,12,0,40,9999,0.100000,0,0,0.000000,6,0.000000,0.000000,1.041112,0,0,0,0,0,0,0
6,69999,79,60000,79,10000,40,9999,0.100000,0,0,0.000000,6,0.000000,0.000000,0.722696,0,0,0,0,0,0,0
6,69999,80,60000,54,0,40,9999,0.100000,0,0,0.000000,6,0.000000,0.000000,4.918751,0,0,0,0,0,0,0
6,69999,81,60000,57,0,49,9999,0.100000,0,0,0.000000,6,1.000000,0.000000,8.070975,0,0,0,0,0,0,0
6,69999,82,60000,79,10000,40,9999,0.100000,0,0,0.000000,6,0.000000,0.000000,6.015276,0,0,0,0,0,0,0
6,69999,83,60000,57,0,40,9999,0.100000,0,0,0.000000,6,0.000000,0.000000,0.135960,0,0,0,0,0,0,0
6,69999,84,60000,54,0,40,9999,0.100000,0,0,0.000000,6,0.000000,0.000000,2.015025,0,0,0,0,0,0,0
6,69999,85,60000,12,0,40,9999,0.100000,0,0,0.000000,6,0.000000,0.000000,0.529822,0,0,0,0,0,0,0
6,69999,86,60000,57,0,40,9999,0.100000,0,0,0.000000,6,0.000000,0.000000,1.729866,0,0,0,0,0,0,0
6,69999,87,60000,12,0,40,9999,0.100000,0,0,0.000000,6,0.000000,0.000000,0.367520,0,0,0,0,0,0,0
6,69999,88,60000,12,0,49,9999,0.100000,0,0,0.000000,6,14.000000,0.000000,24.477417,0,0,0,0,0,0,0
6,69999,89,60000,79,10000,49,9999,0.100000,0,0,0.000000,6,1.000000,0.000000,4.899413,0,0,0,0,0,0,0
6,69999,90,60000,54,0,49,9999,0.100000,0,0,0.000000,6,1.000000,0.000000,16.563405,0,0,0,0,0,0,0
6,69999,91,60000,0,20000,40,9999,0.100000,0,0,0.000000,6,0.000000,0.000000,0.291878,0,0,0,0,0,0,0
6,69999,92,60000,57,0,49,9999,0.100000,0,0,0.000000,6,1.000000,0.000000,11.986890,0,0,0,0,0,0,0
6,69999,93,60000,54,0,40,9999,0.100000,0,0,0.000000,6,0.000000,0.000000,0.102103,0,0,0,0,0,0,0
6,69999,94,60000,54,0,40,9999,0.100000,0,0,0.000000,6,0.000000,0.000000,0.183655,0,0,0,0,0,0,0
6,69999,95,60000,54,0,49,9999,0.100000,0,0,0.000000,6,10.000000,0.000000,13.389306,0,0,0,0,0,0,0
6,69999,96,60000,0,20000,40,9999,0.100000,0,0,0.000000,6,0.000000,0.000000,0.665964,0,0,0,0,0,0,0
6,69999,97,60000,54,0,40,9999,0.100000,0,0,0.000000,6,0.000000,0.000000,1.191468,0,0,0,0,0,0,0
6,69999,98,60000,54,0,49,9999,0.100000,0,0,0.000000,6,1.000000,0.000000,19.186907,0,0,0,0,0,0,0
6,69999,99,60000,53,50000,40,9999,0.100000,0,0,0.000000,6,0.000000,0.000000,0.140044,0,0,0,0,0,0,0
7,79999,0,70000,79,10000,40,9999,0.100000,0,0,0.000000,6,0.000000,0.000000,23.643450,0,0,0,0,0,0,0
7,79999,1,70000,57,0,49,9999,0.100000,0,0,0.000000,6,1.000000,0.000000,4.651849,0,0,0,0,0,0,0
7,79999,2,70000,0,20000,40,9999,0.100000,0,0,0.000000,6,0.000000,0.000000,0.342214,0,0,0,0,0,0,0
7,79999,3,70000,79,10000,40,9999,0.100000,0,0,0.000000,6,0.000000,0.000000,0.909709,0,0,0,0,0,0,0
7,79999,4,70000,12,0,49,9999,0.100000,0,0,0.000000,6,8.000000,0.000000,12.288207,0,0,0,0,0,0,0
7,79999,5,70000,53,50000,49,9999,0.100000,0,0,0.000000,6,1.000000,0.000000,5.541187,0,0,0,0,0,0,0
7,79999,6,70000,12,0,40,9999,0.100000,0,0,0.000000,6,0.000000,0.000000,0.981066,0,0,0,0,0,0,0
7,79999,7,70000,12,0,40,9999,0.100000,0,0,0.000000,6,0.000000,0.000000,0.307517,0,0,0,0,0,0,0
7,79999,8,70000,57,0,40,9999,0.100000,0,0,0.000000,6,0.000000,0.000000,0.217135,0,0,0,0,0,0,0
7,79999,9,70000,54,0,49,9999,0.100000,0,0,0.000000,6,5.000000,0.000000,6.946709,0,0,0,0,0,0,0
7,79999,10,70000,57,0,40,9999,0.100000,0,0,0.000000,6,0.000000,0.000000,0.241584,0,0,0,0,0,0,0
7,79999,11,70000,53,50000,40,9999,0.100000,0,0,0.000000,6,0.000000,0.000000,0.989514,0,0,0,0,0,0,0
7,79999,12,70000,12,0,40,9999,0.100000,0,0,0.000000,6,0.000000,0.000000,0.147745,0,0,0,0,0,0,0
7,79999,13,70000,12,0,40,9999,0.100000,0,0,0.000000,6,0.000000,0.000000,0.160716,0,0,0,0,0,0,0
7,79999,14,70000,54,0,49,9999,0.100000,0,0,0.000000,6,1.000000,0.000000,9.714181,0,0,0,0,0,0,0
7,79999,15,70000,57,0,40,9999,0.100000,0,0,0.000000,6,0.000000,0.000000,1.235823,0,0,0,0,0,0,0
7,79999,16,70000,54,0,40,9999,0.100000,0,0,0.000000,6,0.000000,0.000000,0.115767,0,0,0,0,0,0,0
7,79999,17,70000,12,0,40,9999,0.100000,0,0,0.000000,6,0.000000,0.000000,1.060409,0,0,0,0,0,0,0
7,79999,18,70000,53,50000,49,9999,0.100000,0,0,0.000000,6,2.000000,0.000000,5.635207,0,0,0,0,0,0,0
7,79999,19,70000,54,0,40,9999,0.100000,0,0,0.000000,6,0.000000,0.000000,0.201960,0,0,0,0,0,0,0
7,79999,20,70000,57,0,40,9999,0.100000,0,0,0.000000,6,0.000000,0.000000,0.195018,0,0,0,0,0,0,0
7,79999,21,70000,12,0,49,9999,0.100000,0,0,0.000000,6,4.000000,0.000000,9.825147,0,0,0,0,0,0,0
7,79999,22,70000,54,0,40,9999,0.100000,0,0,0.000000,6,0.000000,0.000000,0.016888,0,0,0,0,0,0,0
7,79999,23,70000,57,0,49,9999,0.100000,0,0,0.000000,6,4.000000,0.000000,6.736237,0,0,0,0,0,0,0
7,79999,24,70000,57,0,40,9999,0.100000,0,0,0.000000,6,0.000000,0.000000,0.243245,0,0,0,0,0,0,0
7,79999,25,70000,57,0,40,9999,0.100000,0,0,0.000000,6,0.000000,0.000000,0.210359,0,0,0,0,0,0,0
7,79999,26,70000,57,0,49,9999,0.100000,0,0,0.000000,6,4.000000,0.000000,14.514538,0,0,0,0,0,0,0
7,79999,27,70000,79,10000,49,9999,0.100000,0,0,0.000000,6,1.000000,0.000000,8.604713,0,0,0,0,0,0,0
7,79999,28,70000,53,50000,40,9999,0.100000,0,0,0.000000,6,0.000000,0.000000,0.372947,0,0,0,0,0,0,0
7,79999,29,70000,57,0,9,9999,0.100000,0,0,34.210526,6,12.000000,0.000000,13.806489,0,0,0,0,1,0,0
7,79999,30,70000,12,0,40,9999,0.100000,0,0,0.000000,6,0.000000,0.000000,0.369671,0,0,0,0,0,0,0
7,79999,31,70000,12,0,49,9999,0.100000,0,0,0.000000,6,1.000000,0.000000,7.500046,0,0,0,0,0,0,0
7,79999,32,70000,0,20000,49,9999,0.100000,0,0,0.000000,6,1.000000,0.000000,5.063545,0,0,0,0,0,0,0
7,79999,33,70000,54,0,40,9999,0.100000,0,0,0.000000,6,0.000000,0.000000,0.695267,0,0,0,0,0,0,0
7,79999,34,70000,57,0,40,9999,0.100000,0,0,0.000000,6,0.000000,0.000000,0.544352,0,0,0,0,0,0,0
7,79999,35,70000,53,50000,49,9999,0.100000,0,0,0.000000,6,14.000000,0.000000,16.862106,0,0,0,0,0,0,0
7,79999,36,70000,54,0,40,9999,0.100000,0,0,0.000000,6,0.000000,0.000000,0.241206,0,0,0,0,0,0,0
7,79999,37,70000,79,10000,40,9999,0.100000,0,0,0.000000,6,0.000000,0.000000,0.250804,0,0,0,0,0,0,0
7,79999,38,70000,12,0,40,9999,0.100000,0,0,0.000000,6,0.000000,0.000000,0.772186,0,0,0,0,0,0,0
7,79999,39,70000,12,0,40,9999,0.100000,0,0,0.000000,6,0.000000,0.000000,6.863257,0,0,0,0,0,0,0
7,79999,40,70000,79,10000,40,9999,0.100000,0,0,0.000000,6,0.000000,0.000000,1.038463,0,0,0,0,0,0,0
7,79999,41,70000,57,0,49,9999,0.100000,0,0,0.000000,6,2.000000,0.000000,14.751532,0,0,0,0,0,0,0
7,79999,42,70000,12,0,40,9999,0.100000,0,0,0.000000,6,0.000000,0.000000,0.349958,0,0,0,0,0,0,0
7,79999,43,70000,79,10000,49,9999,0.100000,0,0,0.000000,6,1.000000,0.000000,2.287141,0,0,0,0,0,0,0
7,79999,44,70000,54,0,49,9999,0.100000,0,0,0.000000,6,4.000000,0.000000,8.925941,0,0,0,0,0,0,0
7,79999,45,70000,79,10000,40,9999,0.100000,0,0,0.000000,6,0.000000,0.000000,0.283526,0,0,0,0,0,0,0
7,79999,46,70000,0,20000,49,9999,0.100000,0,0,0.000000,6,4.000000,0.000000,11.011080,0,0,0,0,0,0,0
7,79999,47,70000,79,10000,40,9999,0.100000,0,0,0.000000,6,0.000000,0.000000,0.622373,0,0,0,0,0,0,0
7,79999,48,70000,79,10000,49,9999,0.100000,0,0,0.000000,6,1.000000,0.000000,9.682250,0,0,0,0,0,0,0
7,79999,49,70000,79,10000,40,9999,0.100000,0,0,0.000000,6,0.000000,0.000000,2.003961,0,0,0,0,0,0,0
7,79999,50,70000,57,0,40,9999,0.100000,0,0,0.000000,6,0.000000,0.000000,0.139344,0,0,0,0,0,0,0
7,79999,51,70000,12,0,40,9999,0.100000,0,0,0.000000,6,0.000000,0.000000,0.167830,0,0,0,0,0,0,0
7,79999,52,70000,12,0,40,9999,0.100000,0,0,0.000000,6,0.000000,0.000000,0.140336,0,0,0,0,0,0,0
7,79999,53,70000,12,0,40,9999,0.100000,0,0,0.000000,6,0.000000,0.000000,0.432141,0,0,0,0,0,0,0
7,79999,54,70000,79,10000,40,9999,0.100000,0,0,0.000000,6,0.000000,0.000000,0.877383,0,0,0,0,0,0,0
7,79999,55,70000,53,50000,40,9999,0.100000,0,0,0.000000,6,0.000000,0.000000,0.745207,0,0,0,0,0,0,0
7,79999,56,70000,0,20000,49,9999,0.100000,0,0,0.000000,6,1.000000,0.000000,5.855434,0,0,0,0,0,0,0
7,79999,57,70000,53,50000,40,9999,0.100000,0,0,0.000000,6,0.000000,0.000000,0.593195,0,0,0,0,0,0,0
7,79999,58,70000,54,0,40,9999,0.100000,0,0,0.000000,6,0.000000,0.000000,0.537462,0,0,0,0,0,0,0
7,79999,59,70000,53,50000,40,9999,0.100000,0,0,0.000000,6,0.000000,0.000000,4.083504,0,0,0,0,0,0,0
7,79999,60,70000,57,0,40,9999,0.100000,0,0,0.000000,6,0.000000,0.000000,0.724452,0,0,0,0,0,0,0
7,79999,61,70000,54,0,40,9999,0.100000,0,0,0.000000,6,0.000000,0.000000,3.985503,0,0,0,0,0,0,0
7,79999,62,70000,53,50000,40,9999,0.100000,0,0,0.000000,6,0.000000,0.000000,3.165171,0,0,0,0,0,0,0
7,79999,63,70000,54,0,40,9999,0.100000,0,0,0.000000,6,0.000000,0.000000,1.549097,0,0,0,0,0,0,0
7,79999,64,70000,79,10000,49,9999,0.100000,0,0,0.000000,6,1.000000,0.000000,2.233093,0,0,0,0,0,0,0
7,79999,65,70000,57,0,49,9999,0.100000,0,0,0.000000,6,1.000000,0.000000,2.437036,0,0,0,0,0,0,0
7,79999,66,70000,54,60000,40,9999,0.100000,0,0,0.000000,6,0.000000,0.000000,0.813521,0,0,0,0,0,0,0
7,79999,67,70000,0,20000,40,9999,0.100000,0,0,0.000000,6,0.000000,0.000000,0.139567,0,0,0,0,0,0,0
7,79999,68,70000,53,50000,49,9999,0.100000,0,0,0.000000,6,2.000000,0.000000,3.036069,0,0,0,0,0,0,0
7,79999,69,70000,57,0,40,9999,0.100000,0,0,0.000000,6,0.000000,0.000000,4.101282,0,0,0,0,0,0,0
7,79999,70,70000,0,20000,40,9999,0.100000,0,0,0.000000,6,0.000000,0.000000,0.282000,0,0,0,0,0,0,0
7,79999,71,70000,0,20000,40,9999,0.100000,0,0,0.000000,6,0.000000,0.000000,5.813474,0,0,0,0,0,0,0
7,79999,72,70000,12,0,49,9999,0.100000,0,0,0.000000,6,1.000000,0.000000,2.237295,0,0,0,0,0,0,0
7,79999,73,70000,57,0,40,9999,0.100000,0,0,0.000000,6,0.000000,0.000000,5.314674,0,0,0,0,0,0,0
7,79999,74,70000,12,0,9,9999,0.100000,0,0,34.210526,6,13.000000,0.000000,18.209863,0,0,0,0,1,0,0
7,79999,75,70000,57,0,40,9999,0.100000,0,0,0.000000,6,0.000000,0.000000,0.217344,0,0,0,0,0,0,0
7,79999,76,70000,53,50000,49,9999,0.100000,0,0,0.000000,6,2.000000,0.000000,14.004305,0,0,0,0,0,0,0
7,79999,77,70000,0,20000,40,9999,0.100000,0,0,0.000000,6,0.000000,0.000000,0.548546,0,0,0,0,0,0,0
7,79999,78,70000,53,50000,40,9999,0.100000,0,0,0.000000,6,0.000000,0.000000,0.950413,0,0,0,0,0,0,0
7,79999,79,70000,12,0,40,9999,0.100000,0,0,0.000000,6,0.000000,0.000000,0.746434,0,0,0,0,0,0,0
7,79999,80,70000,79,10000,40,9999,0.100000,0,0,0.000000,6,0.000000,0.000000,10.400423,0,0,0,0,0,0,0
7,79999,81,70000,53,50000,40,9999,0.100000,0,0,0.000000,6,0.000000,0.000000,3.134185,0,0,0,0,0,0,0
7,79999,82,70000,54,60000,49,9999,0.100000,0,0,0.000000,6,1.000000,0.000000,7.165618,0,0,0,0,0,0,0
7,79999,83,70000,79,10000,40,9999,0.100000,0,0,0.000000,6,0.000000,0.000000,0.141087,0,0,0,0,0,0,0
7,79999,84,70000,0,20000,40,9999,0.100000,0,0,0.000000,6,0.000000,0.000000,0.521191,0,0,0,0,0,0,0
7,79999,85,70000,0,20000,40,9999,0.100000,0,0,0.000000,6,0.000000,0.000000,0.507065,0,0,0,0,0,0,0
7,79999,86,70000,57,0,40,9999,0.100000,0,0,0.000000,6,0.000000,0.000000,0.670914,0,0,0,0,0,0,0
7,79999,87,70000,12,0,40,9999,0.100000,0,0,0.000000,6,0.000000,0.000000,0.219039,0,0,0,0,0,0,0
7,79999,88,70000,0,20000,40,9999,0.100000,0,0,0.000000,6,0.000000,0.000000,0.121350,0,0,0,0,0,0,0
7,79999,89,70000,79,10000,9,9999,0.100000,0,0,34.210526,6,12.000000,0.000000,14.418516,0,0,0,0,1,0,0
7,79999,90,70000,12,0,40,9999,0.100000,0,0,0.000000,6,0.000000,0.000000,2.859244,0,0,0,0,0,0,0
7,79999,91,70000,54,60000,40,9999,0.100000,0,0,0.000000,6,0.000000,0.000000,0.148279,0,0,0,0,0,0,0
7,79999,92,70000,54,0,40,9999,0.100000,0,0,0.000000,6,0.000000,0.000000,6.398649,0,0,0,0,0,0,0
7,79999,93,70000,12,0,40,9999,0.100000,0,0,0.000000,6,0.000000,0.000000,0.152283,0,0,0,0,0,0,0
7,79999,94,70000,53,50000,40,9999,0.100000,0,0,0.000000,6,0.000000,0.000000,0.188367,0,0,0,0,0,0,0
7,79999,95,70000,53,50000,40,9999,0.100000,0,0,0.000000,6,0.000000,0.000000,1.323941,0,0,0,0,0,0,0
7,79999,96,70000,0,20000,40,9999,0.100000,0,0,0.000000,6,0.000000,0.000000,0.258955,0,0,0,0,0,0,0
7,79999,97,70000,79,10000,40,9999,0.100000,0,0,0.000000,6,0.000000,0.000000,1.357410,0,0,0,0,0,0,0
7,79999,98,70000,79,10000,40,9999,0.100000,0,0,0.000000,6,0.000000,0.000000,18.530199,0,0,0,0,0,0,0
7,79999,99,70000,54,0,40,9999,0.100000,0,0,0.000000,6,0.000000,0.000000,0.147087,0,0,0,0,0,0,0
8,89999,0,80000,0,20000,40,9999,0.100000,0,0,0.000000,6,0.000000,0.000000,23.839729,0,0,0,0,0,0,0
8,89999,1,80000,12,0,40,9999,0.100000,0,0,0.000000,6,0.000000,0.000000,3.871319,0,0,0,0,0,0,0
8,89999,2,80000,54,70000,40,9999,0.100000,0,0,0.000000,6,0.000000,0.000000,0.398762,0,0,0,0,0,0,0
8,89999,3,80000,12,0,49,9999,0.100000,0,0,0.000000,6,5.000000,0.000000,8.250072,0,0,0,0,0,0,0
8,89999,4,80000,57,0,40,9999,0.100000,0,0,0.000000,6,0.000000,0.000000,0.899540,0,0,0,0,0,0,0
8,89999,5,80000,0,20000,40,9999,0.100000,0,0,0.000000,6,0.000000,0.000000,4.885702,0,0,0,0,0,0,0
8,89999,6,80000,54,70000,40,9999,0.100000,0,0,0.000000,6,0.000000,0.000000,1.164921,0,0,0,0,0,0,0
8,89999,7,80000,79,10000,40,9999,0.100000,0,0,0.000000,6,0.000000,0.000000,0.161901,0,0,0,0,0,0,0
8,89999,8,80000,12,0,40,9999,0.100000,0,0,0.000000,6,0.000000,0.000000,0.106350,0,0,0,0,0,0,0
8,89999,9,80000,79,10000,49,9999,0.100000,0,0,0.000000,6,2.000000,0.000000,3.521946,0,0,0,0,0,0,0
8,89999,10,80000,12,0,40,9999,0.100000,0,0,0.000000,6,0.000000,0.000000,0.234120,0,0,0,0,0,0,0
8,89999,11,80000,79,10000,40,9999,0.100000,0,0,0.000000,6,0.000000,0.000000,0.967583,0,0,0,0,0,0,0
8,89999,12,80000,54,70000,40,9999,0.100000,0,0,0.000000,6,0.000000,0.000000,0.145958,0,0,0,0,0,0,0
8,89999,13,80000,53,50000,40,9999,0.100000,0,0,0.000000,6,0.000000,0.000000,0.160082,0,0,0,0,0,0,0
8,89999,14,80000,0,20000,40,9999,0.100000,0,0,0.000000,6,0.000000,0.000000,0.126592,0,0,0,0,0,0,0
8,89999,15,80000,12,0,40,9999,0.100000,0,0,0.000000,6,0.000000,0.000000,1.298594,0,0,0,0,0,0,0
8,89999,16,80000,79,10000,40,9999,0.100000,0,0,0.000000,6,0.000000,0.000000,0.119735,0,0,0,0,0,0,0
8,89999,17,80000,79,10000,40,9999,0.100000,0,0,0.000000,6,0.000000,0.000000,1.180025,0,0,0,0,0,0,0
8,89999,18,80000,54,70000,40,9999,0.100000,0,0,0.000000,6,0.000000,0.000000,5.128935,0,0,0,0,0,0,0
8,89999,19,80000,0,20000,40,9999,0.100000,0,0,0.000000,6,0.000000,0.000000,0.212327,0,0,0,0,0,0,0
8,89999,20,80000,57,0,40,9999,0.100000,0,0,0.000000,6,0.000000,0.000000,0.191302,0,0,0,0,0,0,0
8,89999,21,80000,54,70000,49,9999,0.100000,0,0,0.000000,6,1.000000,0.000000,12.317450,0,0,0,0,0,0,0
8,89999,22,80000,57,0,40,9999,0.100000,0,0,0.000000,6,0.000000,0.000000,0.009362,0,0,0,0,0,0,0
8,89999,23,80000,79,10000,49,9999,0.100000,0,0,0.000000,6,2.000000,0.000000,3.331864,0,0,0,0,0,0,0
8,89999,24,80000,12,0,40,9999,0.100000,0,0,0.000000,6,0.000000,0.000000,0.238428,0,0,0,0,0,0,0
8,89999,25,80000,79,10000,40,9999,0.100000,0,0,0.000000,6,0.000000,0.000000,0.147314,0,0,0,0,0,0,0
8,89999,26,80000,12,0,49,9999,0.100000,0,0,0.000000,6,1.000000,0.000000,12.572447,0,0,0,0,0,0,0
8,89999,27,80000,53,50000,49,9999,0.100000,0,0,0.000000,6,1.000000,0.000000,6.031915,0,0,0,0,0,0,0
8,89999,28,80000,57,0,40,9999,0.100000,0,0,0.000000,6,0.000000,0.000000,0.149717,0,0,0,0,0,0,0
8,89999,29,80000,0,20000,49,9999,0.100000,0,0,0.000000,6,4.000000,0.000000,26.833092,0,0,0,0,0,0,0
8,89999,30,80000,54,70000,40,9999,0.100000,0,0,0.000000,6,0.000000,0.000000,0.244330,0,0,0,0,0,0,0
8,89999,31,80000,53,50000,40,9999,0.100000,0,0,0.000000,6,0.000000,0.000000,4.378882,0,0,0,0,0,0,0
8,89999,32,80000,12,0,40,9999,0.100000,0,0,0.000000,6,0.000000,0.000000,6.514347,0,0,0,0,0,0,0
8,89999,33,80000,54,60000,40,9999,0.100000,0,0,0.000000,6,0.000000,0.000000,0.642668,0,0,0,0,0,0,0
8,89999,34,80000,53,50000,40,9999,0.100000,0,0,0.000000,6,0.000000,0.000000,0.417216,0,0,0,0,0,0,0
8,89999,35,80000,0,20000,40,9999,0.100000,0,0,0.000000,6,0.000000,0.000000,0.231259,0,0,0,0,0,0,0
8,89999,36,80000,57,0,40,9999,0.100000,0,0,0.000000,6,0.000000,0.000000,0.236453,0,0,0,0,0,0,0
8,89999,37,80000,57,0,40,9999,0.100000,0,0,0.000000,6,0.000000,0.000000,0.259127,0,0,0,0,0,0,0
8,89999,38,80000,12,0,40,9999,0.100000,0,0,0.000000,6,0.000000,0.000000,0.722200,0,0,0,0,0,0,0
8,89999,39,80000,54,70000,40,9999,0.100000,0,0,0.000000,6,0.000000,0.000000,4.838162,0,0,0,0,0,0,0
8,89999,40,80000,0,20000,40,9999,0.100000,0,0,0.000000,6,0.000000,0.000000,0.542250,0,0,0,0,0,0,0
8,89999,41,80000,54,70000,49,9999,0.100000,0,0,0.000000,6,4.000000,0.000000,6.916033,0,0,0,0,0,0,0
8,89999,42,80000,54,70000,40,9999,0.100000,0,0,0.000000,6,0.000000,0.000000,0.146855,0,0,0,0,0,0,0
8,89999,43,80000,12,0,9,9999,0.100000,0,0,34.210526,6,11.000000,0.000000,26.755876,0,0,0,0,1,0,0
8,89999,44,80000,53,50000,49,9999,0.100000,0,0,0.000000,6,1.000000,0.000000,10.242215,0,0,0,0,0,0,0
8,89999,45,80000,54,70000,40,9999,0.100000,0,0,0.000000,6,0.000000,0.000000,0.221974,0,0,0,0,0,0,0
8,89999,46,80000,53,50000,9,9999,0.100000,0,0,34.210526,6,5.000000,0.000000,13.828174,0,0,0,1,0,0,0
8,89999,47,80000,79,10000,40,9999,0.100000,0,0,0.000000,6,0.000000,0.000000,0.617716,0,0,0,0,0,0,0
8,89999,48,80000,0,20000,40,9999,0.100000,0,0,0.000000,6,0.000000,0.000000,1.799697,0,0,0,0,0,0,0
8,89999,49,80000,79,10000,40,9999,0.100000,0,0,0.000000,6,0.000000,0.000000,2.109211,0,0,0,0,0,0,0
8,89999,50,80000,53,50000,40,9999,0.100000,0,0,0.000000,6,0.000000,0.000000,0.135356,0,0,0,0,0,0,0
8,89999,51,80000,57,0,40,9999,0.100000,0,0,0.000000,6,0.000000,0.000000,0.170915,0,0,0,0,0,0,0
8,89999,52,80000,79,10000,40,9999,0.100000,0,0,0.000000,6,0.000000,0.000000,0.130155,0,0,0,0,0,0,0
8,89999,53,80000,79,10000,40,9999,0.100000,0,0,0.000000,6,0.000000,0.000000,0.437622,0,0,0,0,0,0,0
8,89999,54,80000,12,0,40,9999,0.100000,0,0,0.000000,6,0.000000,0.000000,0.869641,0,0,0,0,0,0,0
8,89999,55,80000,54,70000,40,9999,0.100000,0,0,0.000000,6,0.000000,0.000000,0.703092,0,0,0,0,0,0,0
8,89999,56,80000,57,0,49,9999,0.100000,0,0,0.000000,6,1.000000,0.000000,5.962078,0,0,0,0,0,0,0
8,89999,57,80000,54,70000,40,9999,0.100000,0,0,0.000000,6,0.000000,0.000000,0.596671,0,0,0,0,0,0,0
8,89999,58,80000,12,0,40,9999,0.100000,0,0,0.000000,6,0.000000,0.000000,0.466204,0,0,0,0,0,0,0
8,89999,59,80000,54,70000,40,9999,0.100000,0,0,0.000000,6,0.000000,0.000000,3.164129,0,0,0,0,0,0,0
8,89999,60,80000,12,0,40,9999,0.100000,0,0,0.000000,6,0.000000,0.000000,0.729335,0,0,0,0,0,0,0
8,89999,61,80000,79,10000,40,9999,0.100000,0,0,0.000000,6,0.000000,0.000000,4.183011,0,0,0,0,0,0,0
8,89999,62,80000,79,10000,49,9999,0.100000,0,0,0.000000,6,1.000000,0.000000,7.128001,0,0,0,0,0,0,0
8,89999,63,80000,0,20000,40,9999,0.100000,0,0,0.000000,6,0.000000,0.000000,1.667583,0,0,0,0,0,0,0
8,89999,64,80000,53,50000,49,9999,0.100000,0,0,0.000000,6,4.000000,0.000000,6.795861,0,0,0,0,0,0,0
8,89999,65,80000,54,70000,9,9999,0.100000,0,0,34.210526,6,9.000000,0.000000,12.821073,0,0,0,0,1,0,0
8,89999,66,80000,79,10000,40,9999,0.100000,0,0,0.000000,6,0.000000,0.000000,1.013382,0,0,0,0,0,0,0
8,89999,67,80000,57,0,40,9999,0.100000,0,0,0.000000,6,0.000000,0.000000,0.141573,0,0,0,0,0,0,0
8,89999,68,80000,12,0,9,9999,0.100000,0,0,34.210526,6,5.000000,0.000000,14.759147,0,0,0,1,0,0,0
8,89999,69,80000,53,50000,40,9999,0.100000,0,0,0.000000,6,0.000000,0.000000,4.942339,0,0,0,0,0,0,0
8,89999,70,80000,53,50000,40,9999,0.100000,0,0,0.000000,6,0.000000,0.000000,0.264107,0,0,0,0,0,0,0
8,89999,71,80000,12,0,49,9999,0.100000,0,0,0.000000,6,1.000000,0.000000,13.059337,0,0,0,0,0,0,0
8,89999,72,80000,54,70000,9,9999,0.100000,0,0,34.210526,6,10.000000,0.000000,10.464091,0,0,0,0,1,0,0
8,89999,73,80000,0,20000,40,9999,0.100000,0,0,0.000000,6,0.000000,0.000000,10.020050,0,0,0,0,0,0,0
8,89999,74,80000,12,0,49,9999,0.100000,0,0,0.000000,6,3.000000,0.000000,15.386894,0,0,0,0,0,0,0
8,89999,75,80000,57,0,40,9999,0.100000,0,0,0.000000,6,0.000000,0.000000,0.177479,0,0,0,0,0,0,0
8,89999,76,80000,53,50000,40,9999,0.100000,0,0,0.000000,6,0.000000,0.000000,9.837440,0,0,0,0,0,0,0
8,89999,77,80000,12,0,40,9999,0.100000,0,0,0.000000,6,0.000000,0.000000,0.788303,0,0,0,0,0,0,0
8,89999,78,80000,79,10000,40,9999,0.100000,0,0,0.000000,6,0.000000,0.000000,0.999750,0,0,0,0,0,0,0
8,89999,79,80000,0,20000,40,9999,0.100000,0,0,0.000000,6,0.000000,0.000000,0.895675,0,0,0,0,0,0,0
8,89999,80,80000,57,0,49,9999,0.100000,0,0,0.000000,6,1.000000,0.000000,4.165117,0,0,0,0,0,0,0
8,89999,81,80000,54,70000,49,9999,0.100000,0,0,0.000000,6,1.000000,0.000000,7.611223,0,0,0,0,0,0,0
8,89999,82,80000,0,20000,49,9999,0.100000,0,0,0.000000,6,1.000000,0.000000,7.406319,0,0,0,0,0,0,0
8,89999,83,80000,12,0,40,9999,0.100000,0,0,0.000000,6,0.000000,0.000000,0.140813,0,0,0,0,0,0,0
8,89999,84,80000,12,0,40,9999,0.100000,0,0,0.000000,6,0.000000,0.000000,0.395911,0,0,0,0,0,0,0
8,89999,85,80000,0,20000,40,9999,0.100000,0,0,0.000000,6,0.000000,0.000000,0.500539,0,0,0,0,0,0,0
8,89999,86,80000,57,0,40,9999,0.100000,0,0,0.000000,6,0.000000,0.000000,0.772329,0,0,0,0,0,0,0
8,89999,87,80000,0,20000,40,9999,0.100000,0,0,0.000000,6,0.000000,0.000000,0.215839,0,0,0,0,0,0,0
8,89999,88,80000,79,10000,40,9999,0.100000,0,0,0.000000,6,0.000000,0.000000,0.124464,0,0,0,0,0,0,0
8,89999,89,80000,53,50000,49,9999,0.100000,0,0,0.000000,6,4.000000,0.000000,14.684609,0,0,0,0,0,0,0
8,89999,90,80000,54,70000,40,9999,0.100000,0,0,0.000000,6,0.000000,0.000000,2.026686,0,0,0,0,0,0,0
8,89999,91,80000,0,20000,40,9999,0.100000,0,0,0.000000,6,0.000000,0.000000,0.148850,0,0,0,0,0,0,0
8,89999,92,80000,57,0,49,9999,0.100000,0,0,0.000000,6,1.000000,0.000000,11.898598,0,0,0,0,0,0,0
8,89999,93,80000,0,20000,40,9999,0.100000,0,0,0.000000,6,0.000000,0.000000,0.107563,0,0,0,0,0,0,0
8,89999,94,80000,57,0,40,9999,0.100000,0,0,0.000000,6,0.000000,0.000000,0.190571,0,0,0,0,0,0,0
8,89999,95,80000,79,10000,40,9999,0.100000,0,0,0.000000,6,0.000000,0.000000,0.622617,0,0,0,0,0,0,0
8,89999,96,80000,54,70000,40,9999,0.100000,0,0,0.000000,6,0.000000,0.000000,0.177002,0,0,0,0,0,0,0
8,89999,97,80000,79,10000,49,9999,0.100000,0,0,0.000000,6,1.000000,0.000000,1.661993,0,0,0,0,0,0,0
8,89999,98,80000,57,0,40,9999,0.100000,0,0,0.000000,6,0.000000,0.000000,18.678602,0,0,0,0,0,0,0
8,89999,99,80000,12,0,40,9999,0.100000,0,0,0.000000,6,0.000000,0.000000,0.141667,0,0,0,0,0,0,0
9,99999,0,90000,53,50000,40,9999,0.100000,0,0,0.000000,6,0.000000,0.000000,23.932073,0,0,0,0,0,0,0
9,99999,1,90000,12,0,40,9999,0.100000,0,0,0.000000,6,0.000000,0.000000,3.748720,0,0,0,0,0,0,0
9,99999,2,90000,54,70000,40,9999,0.100000,0,0,0.000000,6,0.000000,0.000000,0.346993,0,0,0,0,0,0,0
9,99999,3,90000,0,20000,49,9999,0.100000,0,0,0.000000,6,7.000000,0.000000,13.270323,0,0,0,0,0,0,0
9,99999,4,80000,57,0,40,19999,0.100000,0,0,0.000000,6,0.000000,0.000000,0.916391,0,0,0,0,0,0,0
9,99999,5,90000,79,10000,40,9999,0.100000,0,0,0.000000,6,0.000000,0.000000,6.388527,0,0,0,0,0,0,0
9,99999,6,90000,57,0,40,9999,0.100000,0,0,0.000000,6,0.000000,0.000000,1.259451,0,0,0,0,0,0,0
9,99999,7,90000,79,10000,40,9999,0.100000,0,0,0.000000,6,0.000000,0.000000,0.136662,0,0,0,0,0,0,0
9,99999,8,90000,79,10000,40,9999,0.100000,0,0,0.000000,6,0.000000,0.000000,0.107327,0,0,0,0,0,0,0
9,99999,9,90000,79,10000,49,9999,0.100000,0,0,0.000000,6,1.000000,0.000000,3.829371,0,0,0,0,0,0,0
9,99999,10,90000,79,10000,40,9999,0.100000,0,0,0.000000,6,0.000000,0.000000,0.243509,0,0,0,0,0,0,0
9,99999,11,90000,57,0,40,9999,0.100000,0,0,0.000000,6,0.000000,0.000000,0.987915,0,0,0,0,0,0,0
9,99999,12,90000,57,0,40,9999,0.100000,0,0,0.000000,6,0.000000,0.000000,0.145920,0,0,0,0,0,0,0
9,99999,13,90000,57,0,40,9999,0.100000,0,0,0.000000,6,0.000000,0.000000,0.158629,0,0,0,0,0,0,0
9,99999,14,90000,54,70000,40,9999,0.100000,0,0,0.000000,6,0.000000,0.000000,0.228603,0,0,0,0,0,0,0
9,99999,15,90000,53,50000,40,9999,0.100000,0,0,0.000000,6,0.000000,0.000000,1.107371,0,0,0,0,0,0,0
9,99999,16,90000,12,0,40,9999,0.100000,0,0,0.000000,6,0.000000,0.000000,0.116755,0,0,0,0,0,0,0
9,99999,17,90000,0,20000,40,9999,0.100000,0,0,0.000000,6,0.000000,0.000000,1.120369,0,0,0,0,0,0,0
9,99999,18,90000,53,50000,40,9999,0.100000,0,0,0.000000,6,0.000000,0.000000,4.679341,0,0,0,0,0,0,0
9,99999,19,90000,12,0,40,9999,0.100000,0,0,0.000000,6,0.000000,0.000000,0.221839,0,0,0,0,0,0,0
9,99999,20,90000,0,20000,40,9999,0.100000,0,0,0.000000,6,0.000000,0.000000,0.185259,0,0,0,0,0,0,0
9,99999,21,90000,0,20000,49,9999,0.100000,0,0,0.000000,6,1.000000,0.000000,11.815389,0,0,0,0,0,0,0
9,99999,22,90000,53,50000,40,9999,0.100000,0,0,0.000000,6,0.000000,0.000000,0.009465,0,0,0,0,0,0,0
9,99999,23,90000,57,0,49,9999,0.100000,0,0,0.000000,6,3.000000,0.000000,9.356672,0,0,0,0,0,0,0
9,99999,24,90000,57,0,40,9999,0.100000,0,0,0.000000,6,0.000000,0.000000,0.232767,0,0,0,0,0,0,0
9,99999,25,90000,0,20000,40,9999,0.100000,0,0,0.000000,6,0.000000,0.000000,0.167000,0,0,0,0,0,0,0
9,99999,26,90000,57,0,40,9999,0.100000,0,0,0.000000,6,0.000000,0.000000,7.211762,0,0,0,0,0,0,0
9,99999,27,90000,79,10000,40,9999,0.100000,0,0,0.000000,6,0.000000,0.000000,8.865042,0,0,0,0,0,0,0
9,99999,28,90000,53,50000,40,9999,0.100000,0,0,0.000000,6,0.000000,0.000000,0.928500,0,0,0,0,0,0,0
9,99999,29,90000,12,0,49,9999,0.100000,0,0,0.000000,6,2.000000,0.000000,7.294780,0,0,0,0,0,0,0
9,99999,30,90000,0,20000,40,9999,0.100000,0,0,0.000000,6,0.000000,0.000000,0.265998,0,0,0,0,0,0,0
9,99999,31,90000,53,50000,40,9999,0.100000,0,0,0.000000,6,0.000000,0.000000,4.037817,0,0,0,0,0,0,0
9,99999,32,90000,54,70000,49,9999,0.100000,0,0,0.000000,6,1.000000,0.000000,6.247211,0,0,0,0,0,0,0
9,99999,33,90000,57,0,40,9999,0.100000,0,0,0.000000,6,0.000000,0.000000,0.663786,0,0,0,0,0,0,0
9,99999,34,90000,57,0,40,9999,0.100000,0,0,0.000000,6,0.000000,0.000000,0.429961,0,0,0,0,0,0,0
9,99999,35,90000,54,70000,40,9999,0.100000,0,0,0.000000,6,0.000000,0.000000,0.229605,0,0,0,0,0,0,0
9,99999,36,90000,12,0,40,9999,0.100000,0,0,0.000000,6,0.000000,0.000000,0.239248,0,0,0,0,0,0,0
9,99999,37,90000,53,50000,40,9999,0.100000,0,0,0.000000,6,0.000000,0.000000,0.394247,0,0,0,0,0,0,0
9,99999,38,90000,79,10000,40,9999,0.100000,0,0,0.000000,6,0.000000,0.000000,0.778662,0,0,0,0,0,0,0
9,99999,39,90000,79,10000,40,9999,0.100000,0,0,0.000000,6,0.000000,0.000000,4.379509,0,0,0,0,0,0,0
9,99999,40,90000,54,70000,40,9999,0.100000,0,0,0.000000,6,0.000000,0.000000,1.884679,0,0,0,0,0,0,0
9,99999,41,90000,0,20000,49,9999,0.100000,0,0,0.000000,6,4.000000,0.000000,9.467873,0,0,0,0,0,0,0
9,99999,42,90000,57,0,40,9999,0.100000,0,0,0.000000,6,0.000000,0.000000,0.143934,0,0,0,0,0,0,0
9,99999,43,90000,12,0,40,9999,0.100000,0,0,0.000000,6,0.000000,0.000000,5.216779,0,0,0,0,0,0,0
9,99999,44,90000,12,0,49,9999,0.100000,0,0,0.000000,6,4.000000,0.000000,16.256601,0,0,0,0,0,0,0
9,99999,45,90000,57,0,40,9999,0.100000,0,0,0.000000,6,0.000000,0.000000,0.650808,0,0,0,0,0,0,0
9,99999,46,90000,54,70000,49,9999,0.100000,0,0,0.000000,6,1.000000,0.000000,10.636871,0,0,0,0,0,0,0
9,99999,47,90000,53,50000,40,9999,0.100000,0,0,0.000000,6,0.000000,0.000000,0.616803,0,0,0,0,0,0,0
9,99999,48,90000,54,70000,40,9999,0.100000,0,0,0.000000,6,0.000000,0.000000,1.430301,0,0,0,0,0,0,0
9,99999,49,90000,57,0,40,9999,0.100000,0,0,0.000000,6,0.000000,0.000000,2.122708,0,0,0,0,0,0,0
9,99999,50,90000,79,10000,40,9999,0.100000,0,0,0.000000,6,0.000000,0.000000,0.138179,0,0,0,0,0,0,0
9,99999,51,90000,54,70000,40,9999,0.100000,0,0,0.000000,6,0.000000,0.000000,0.162942,0,0,0,0,0,0,0
9,99999,52,90000,79,10000,40,9999,0.100000,0,0,0.000000,6,0.000000,0.000000,0.136958,0,0,0,0,0,0,0
9,99999,53,90000,54,70000,40,9999,0.100000,0,0,0.000000,6,0.000000,0.000000,0.423804,0,0,0,0,0,0,0
9,99999,54,90000,0,20000,40,9999,0.100000,0,0,0.000000,6,0.000000,0.000000,0.218172,0,0,0,0,0,0,0
9,99999,55,90000,57,0,40,9999,0.100000,0,0,0.000000,6,0.000000,0.000000,0.706002,0,0,0,0,0,0,0
9,99999,56,90000,57,0,40,9999,0.100000,0,0,0.000000,6,0.000000,0.000000,5.011194,0,0,0,0,0,0,0
9,99999,57,90000,12,0,40,9999,0.100000,0,0,0.000000,6,0.000000,0.000000,0.950593,0,0,0,0,0,0,0
9,99999,58,90000,12,0,49,9999,0.100000,0,0,0.000000,6,2.000000,0.000000,11.525625,0,0,0,0,0,0,0
9,99999,59,90000,79,10000,40,9999,0.100000,0,0,0.000000,6,0.000000,0.000000,7.751433,0,0,0,0,0,0,0
9,99999,60,90000,54,70000,40,9999,0.100000,0,0,0.000000,6,0.000000,0.000000,0.707119,0,0,0,0,0,0,0
9,99999,61,90000,79,10000,40,9999,0.100000,0,0,0.000000,6,0.000000,0.000000,6.846740,0,0,0,0,0,0,0
9,99999,62,90000,53,50000,49,9999,0.100000,0,0,0.000000,6,1.000000,0.000000,4.030201,0,0,0,0,0,0,0
9,99999,63,90000,54,70000,40,9999,0.100000,0,0,0.000000,6,0.000000,0.000000,3.207585,0,0,0,0,0,0,0
9,99999,64,90000,57,0,40,9999,0.100000,0,0,0.000000,6,0.000000,0.000000,4.875481,0,0,0,0,0,0,0
9,99999,65,90000,57,0,49,9999,0.100000,0,0,0.000000,6,3.000000,0.000000,14.786818,0,0,0,0,0,0,0
9,99999,66,90000,53,50000,40,9999,0.100000,0,0,0.000000,6,0.000000,0.000000,0.958000,0,0,0,0,0,0,0
9,99999,67,90000,12,0,40,9999,0.100000,0,0,0.000000,6,0.000000,0.000000,0.134728,0,0,0,0,0,0,0
9,99999,68,90000,0,20000,49,9999,0.100000,0,0,0.000000,6,2.000000,0.000000,10.784141,0,0,0,0,0,0,0
9,99999,69,90000,54,70000,40,9999,0.100000,0,0,0.000000,6,0.000000,0.000000,9.746937,0,0,0,0,0,0,0
9,99999,70,90000,12,0,49,9999,0.100000,0,0,0.000000,6,1.000000,0.000000,1.164122,0,0,0,0,0,0,0
9,99999,71,90000,54,70000,40,9999,0.100000,0,0,0.000000,6,0.000000,0.000000,1.686096,0,0,0,0,0,0,0
9,99999,72,90000,0,20000,40,9999,0.135000,0,0,0.000000,6,0.000000,0.000000,0.373221,0,0,0,0,0,0,0
9,99999,73,90000,0,20000,49,9999,0.100000,0,0,0.000000,6,2.000000,0.000000,14.271192,0,0,0,0,0,0,0
9,99999,74,90000,0,20000,40,9999,0.100000,0,0,0.000000,6,0.000000,0.000000,2.063627,0,0,0,0,0,0,0
9,99999,75,90000,54,70000,40,9999,0.100000,0,0,0.000000,6,0.000000,0.000000,0.295044,0,0,0,0,0,0,0
9,99999,76,90000,57,0,40,9999,0.100000,0,0,0.000000,6,0.000000,0.000000,11.292880,0,0,0,0,0,0,0
9,99999,77,90000,12,0,40,9999,0.100000,0,0,0.000000,6,0.000000,0.000000,1.707309,0,0,0,0,0,0,0
9,99999,78,90000,0,20000,40,9999,0.100000,0,0,0.000000,6,0.000000,0.000000,1.007715,0,0,0,0,0,0,0
9,99999,79,90000,53,50000,49,9999,0.100000,0,0,0.000000,6,2.000000,0.000000,3.949630,0,0,0,0,0,0,0
9,99999,80,90000,79,10000,40,9999,0.100000,0,0,0.000000,6,0.000000,0.000000,4.554787,0,0,0,0,0,0,0
9,99999,81,90000,57,0,40,9999,0.100000,0,0,0.000000,6,0.000000,0.000000,6.361393,0,0,0,0,0,0,0
9,99999,82,90000,79,10000,49,9999,0.100000,0,0,0.000000,6,1.000000,0.000000,7.098290,0,0,0,0,0,0,0
9,99999,83,90000,0,20000,40,9999,0.100000,0,0,0.000000,6,0.000000,0.000000,0.142965,0,0,0,0,0,0,0
9,99999,84,90000,0,20000,40,9999,0.100000,0,0,0.000000,6,0.000000,0.000000,1.263526,0,0,0,0,0,0,0
9,99999,85,90000,57,0,40,9999,0.100000,0,0,0.000000,6,0.000000,0.000000,0.507685,0,0,0,0,0,0,0
9,99999,86,90000,57,0,40,9999,0.100000,0,0,0.000000,6,0.000000,0.000000,0.574906,0,0,0,0,0,0,0
9,99999,87,90000,12,0,49,9999,0.100000,0,0,0.000000,6,1.000000,0.000000,1.442439,0,0,0,0,0,0,0
9,99999,88,90000,0,20000,40,9999,0.100000,0,0,0.000000,6,0.000000,0.000000,0.125648,0,0,0,0,0,0,0
9,99999,89,90000,53,50000,40,9999,0.100000,0,0,0.000000,6,0.000000,0.000000,9.687071,0,0,0,0,0,0,0
9,99999,90,90000,79,10000,49,9999,0.100000,0,0,0.000000,6,12.000000,0.000000,15.085759,0,0,0,0,0,0,0
9,99999,91,90000,79,10000,40,9999,0.100000,0,0,0.000000,6,0.000000,0.000000,0.960204,0,0,0,0,0,0,0
9,99999,92,90000,53,50000,49,9999,0.100000,0,0,0.000000,6,2.000000,0.000000,9.009412,0,0,0,0,0,0,0
9,99999,93,90000,57,0,40,9999,0.100000,0,0,0.000000,6,0.000000,0.000000,0.108881,0,0,0,0,0,0,0
9,99999,94,90000,79,10000,40,9999,0.100000,0,0,0.000000,6,0.000000,0.000000,0.195968,0,0,0,0,0,0,0
9,99999,95,90000,79,10000,40,9999,0.100000,0,0,0.000000,6,0.000000,0.000000,0.559098,0,0,0,0,0,0,0
9,99999,96,90000,79,10000,40,9999,0.100000,0,0,0.000000,6,0.000000,0.000000,0.620545,0,0,0,0,0,0,0
9,99999,97,90000,53,50000,49,9999,0.100000,0,0,0.000000,6,4.000000,0.000000,6.538390,0,0,0,0,0,0,0
9,99999,98,90000,12,0,40,9999,0.100000,0,0,0.000000,6,0.000000,0.000000,6.793554,0,0,0,0,0,0,0
9,99999,99,90000,53,50000,40,9999,0.100000,0,0,0.000000,6,0.000000,0.000000,0.142887,0,0,0,0,0,0,0
10,109999,0,100000,79,10000,40,9999,0.100000,0,0,0.000000,6,0.000000,0.000000,23.918307,0,0,0,0,0,0,0
10,109999,1,100000,54,70000,49,9999,0.100000,0,0,0.000000,6,4.000000,0.000000,8.166851,0,0,0,0,0,0,0
10,109999,2,100000,79,10000,40,9999,0.100000,0,0,0.000000,6,0.000000,0.000000,0.370979,0,0,0,0,0,0,0
10,109999,3,100000,79,10000,49,9999,0.100000,0,0,0.000000,6,4.000000,0.000000,13.617757,0,0,0,0,0,0,0
10,109999,4,100000,57,0,40,9999,0.100000,0,0,0.000000,6,0.000000,0.000000,0.985282,0,0,0,0,0,0,0
10,109999,5,100000,79,10000,40,9999,0.100000,0,0,0.000000,6,0.000000,0.000000,6.153138,0,0,0,0,0,0,0
10,109999,6,100000,12,0,40,9999,0.100000,0,0,0.000000,6,0.000000,0.000000,1.354060,0,0,0,0,0,0,0
10,109999,7,100000,53,50000,40,9999,0.100000,0,0,0.000000,6,0.000000,0.000000,0.138129,0,0,0,0,0,0,0
10,109999,8,100000,12,0,40,9999,0.100000,0,0,0.000000,6,0.000000,0.000000,0.106209,0,0,0,0,0,0,0
10,109999,9,100000,54,70000,49,9999,0.100000,0,0,0.000000,6,5.000000,0.000000,6.556430,0,0,0,0,0,0,0
10,109999,10,100000,53,50000,40,9999,0.100000,0,0,0.000000,6,0.000000,0.000000,0.297082,0,0,0,0,0,0,0
10,109999,11,100000,79,10000,40,9999,0.100000,0,0,0.000000,6,0.000000,0.000000,1.044702,0,0,0,0,0,0,0
10,109999,12,100000,57,0,40,9999,0.100000,0,0,0.000000,6,0.000000,0.000000,0.158285,0,0,0,0,0,0,0
10,109999,13,100000,57,0,49,9999,0.100000,0,0,0.000000,6,1.000000,0.000000,2.958726,0,0,0,0,0,0,0
10,109999,14,100000,12,0,40,9999,0.100000,0,0,0.000000,6,0.000000,0.000000,0.872393,0,0,0,0,0,0,0
10,109999,15,100000,12,0,40,9999,0.100000,0,0,0.000000,6,0.000000,0.000000,1.040093,0,0,0,0,0,0,0
10,109999,16,100000,54,70000,40,9999,0.100000,0,0,0.000000,6,0.000000,0.000000,0.117858,0,0,0,0,0,0,0
10,109999,17,100000,79,10000,40,9999,0.100000,0,0,0.000000,6,0.000000,0.000000,3.109503,0,0,0,0,0,0,0
10,109999,18,100000,54,70000,40,9999,0.100000,0,0,0.000000,6,0.000000,0.000000,5.777294,0,0,0,0,0,0,0
10,109999,19,100000,53,50000,40,9999,0.100000,0,0,0.000000,6,0.000000,0.000000,0.220708,0,0,0,0,0,0,0
10,109999,20,100000,53,50000,40,9999,0.100000,0,0,0.000000,6,0.000000,0.000000,0.191217,0,0,0,0,0,0,0
10,109999,21,100000,0,20000,49,9999,0.100000,0,0,0.000000,6,1.000000,0.000000,11.679953,0,0,0,0,0,0,0
10,109999,22,100000,79,10000,40,9999,0.100000,0,0,0.000000,6,0.000000,0.000000,0.009335,0,0,0,0,0,0,0
10,109999,23,100000,54,70000,49,9999,0.100000,0,0,0.000000,6,6.000000,0.000000,9.011143,0,0,0,0,0,0,0
10,109999,24,100000,54,70000,40,9999,0.100000,0,0,0.000000,6,0.000000,0.000000,0.243702,0,0,0,0,0,0,0
10,109999,25,100000,0,20000,40,9999,0.100000,0,0,0.000000,6,0.000000,0.000000,0.225013,0,0,0,0,0,0,0
10,109999,26,100000,0,20000,49,9999,0.100000,0,0,0.000000,6,1.000000,0.000000,10.966373,0,0,0,0,0,0,0
10,109999,27,100000,54,70000,49,9999,0.100000,0,0,0.000000,6,1.000000,0.000000,10.263396,0,0,0,0,0,0,0
10,109999,28,100000,53,50000,40,9999,0.100000,0,0,0.000000,6,0.000000,0.000000,0.271521,0,0,0,0,0,0,0
10,109999,29,100000,0,20000,40,9999,0.100000,0,0,0.000000,6,0.000000,0.000000,7.251829,0,0,0,0,0,0,0
10,109999,30,100000,0,20000,40,9999,0.100000,0,0,0.000000,6,0.000000,0.000000,0.689475,0,0,0,0,0,0,0
10,109999,31,100000,0,20000,40,9999,0.100000,0,0,0.000000,6,0.000000,0.000000,3.255459,0,0,0,0,0,0,0
10,109999,32,100000,0,20000,40,9999,0.100000,0,0,0.000000,6,0.000000,0.000000,5.737905,0,0,0,0,0,0,0
10,109999,33,100000,53,50000,40,9999,0.100000,0,0,0.000000,6,0.000000,0.000000,0.646487,0,0,0,0,0,0,0
10,109999,34,100000,57,0,40,9999,0.100000,0,0,0.000000,6,0.000000,0.000000,0.373400,0,0,0,0,0,0,0
10,109999,35,100000,0,20000,40,9999,0.100000,0,0,0.000000,6,0.000000,0.000000,0.238818,0,0,0,0,0,0,0
10,109999,36,100000,54,70000,40,9999,0.100000,0,0,0.000000,6,0.000000,0.000000,0.241166,0,0,0,0,0,0,0
10,109999,37,100000,54,70000,40,9999,0.100000,0,0,0.000000,6,0.000000,0.000000,0.271386,0,0,0,0,0,0,0
10,109999,38,100000,12,0,40,9999,0.100000,0,0,0.000000,6,0.000000,0.000000,0.568555,0,0,0,0,0,0,0
10,109999,39,100000,54,70000,40,9999,0.100000,0,0,0.000000,6,0.000000,0.000000,3.717116,0,0,0,0,0,0,0
10,109999,40,100000,57,0,40,9999,0.100000,0,0,0.000000,6,0.000000,0.000000,0.339367,0,0,0,0,0,0,0
10,109999,41,100000,0,20000,40,9999,0.100000,0,0,0.000000,6,0.000000,0.000000,1.250810,0,0,0,0,0,0,0
10,109999,42,100000,57,0,40,9999,0.100000,0,0,0.000000,6,0.000000,0.000000,0.139915,0,0,0,0,0,0,0
10,109999,43,100000,57,0,49,9999,0.100000,0,0,0.000000,6,1.000000,0.000000,6.279229,0,0,0,0,0,0,0
10,109999,44,100000,79,10000,49,9999,0.100000,0,0,0.000000,6,2.000000,0.000000,9.469513,0,0,0,0,0,0,0
10,109999,45,100000,57,0,40,9999,0.100000,0,0,0.000000,6,0.000000,0.000000,0.379567,0,0,0,0,0,0,0
10,109999,46,100000,57,0,49,9999,0.100000,0,0,0.000000,6,1.000000,0.000000,6.527107,0,0,0,0,0,0,0
10,109999,47,100000,53,50000,40,9999,0.100000,0,0,0.000000,6,0.000000,0.000000,2.666151,0,0,0,0,0,0,0
10,109999,48,100000,57,0,40,9999,0.100000,0,0,0.000000,6,0.000000,0.000000,0.474459,0,0,0,0,0,0,0
10,109999,49,100000,12,0,40,9999,0.100000,0,0,0.000000,6,0.000000,0.000000,2.122780,0,0,0,0,0,0,0
10,109999,50,100000,0,20000,40,9999,0.100000,0,0,0.000000,6,0.000000,0.000000,0.131457,0,0,0,0,0,0,0
10,109999,51,100000,0,20000,40,9999,0.100000,0,0,0.000000,6,0.000000,0.000000,0.162021,0,0,0,0,0,0,0
10,109999,52,100000,79,10000,40,9999,0.100000,0,0,0.000000,6,0.000000,0.000000,0.142234,0,0,0,0,0,0,0
10,109999,53,100000,0,20000,40,9999,0.100000,0,0,0.000000,6,0.000000,0.000000,0.434918,0,0,0,0,0,0,0
10,109999,54,100000,54,70000,40,9999,0.100000,0,0,0.000000,6,0.000000,0.000000,0.425826,0,0,0,0,0,0,0
10,109999,55,100000,79,10000,40,9999,0.100000,0,0,0.000000,6,0.000000,0.000000,0.679244,0,0,0,0,0,0,0
10,109999,56,100000,57,0,49,9999,0.100000,0,0,0.000000,6,3.000000,0.000000,4.556775,0,0,0,0,0,0,0
10,109999,57,100000,12,0,49,9999,0.100000,0,0,34.210526,6,1.000000,0.000000,9.756638,0,0,1,0,0,1,0
10,109999,58,100000,57,0,49,9999,0.100000,0,0,0.000000,6,1.000000,0.000000,10.564005,0,0,0,0,0,0,0
10,109999,59,100000,12,0,40,9999,0.100000,0,0,0.000000,6,0.000000,0.000000,3.437804,0,0,0,0,0,0,0
10,109999,60,100000,0,20000,40,9999,0.100000,0,0,0.000000,6,0.000000,0.000000,0.837443,0,0,0,0,0,0,0
10,109999,61,100000,54,70000,40,9999,0.100000,0,0,0.000000,6,0.000000,0.000000,5.768380,0,0,0,0,0,0,0
10,109999,62,100000,57,0,49,9999,0.100000,0,0,0.000000,6,1.000000,0.000000,6.017537,0,0,0,0,0,0,0
10,109999,63,100000,57,0,9,9999,0.100000,0,0,0.000000,6,4.000000,0.000000,15.501117,0,0,0,0,0,1,0
10,109999,64,100000,54,70000,49,9999,0.100000,0,0,0.000000,6,1.000000,0.000000,5.605098,0,0,0,0,0,0,0
10,109999,65,100000,53,50000,40,9999,0.100000,0,0,0.000000,6,0.000000,0.000000,6.085682,0,0,0,0,0,0,0
10,109999,66,100000,53,50000,40,9999,0.100000,0,0,0.000000,6,0.000000,0.000000,0.736905,0,0,0,0,0,0,0
10,109999,67,100000,53,50000,40,9999,0.100000,0,0,0.000000,6,0.000000,0.000000,0.134317,0,0,0,0,0,0,0
10,109999,68,100000,53,50000,49,9999,0.100000,0,0,0.000000,6,2.000000,0.000000,11.641135,0,0,0,0,0,0,0
10,109999,69,100000,0,20000,40,9999,0.100000,0,0,0.000000,6,0.000000,0.000000,6.876143,0,0,0,0,0,0,0
10,109999,70,100000,12,0,9,9999,0.100000,0,0,0.000000,6,4.000000,0.000000,11.440630,0,0,0,0,0,1,0
10,109999,71,100000,53,50000,40,9999,0.100000,0,0,0.000000,6,0.000000,0.000000,0.482070,0,0,0,0,0,0,0
10,109999,72,100000,53,50000,40,9999,0.100000,0,0,0.000000,6,0.000000,0.000000,0.370404,0,0,0,0,0,0,0
10,109999,73,100000,54,70000,49,9999,0.100000,0,0,0.000000,6,2.000000,0.000000,10.760864,0,0,0,0,0,0,0
10,109999,74,100000,57,0,40,9999,0.100000,0,0,0.000000,6,0.000000,0.000000,1.239511,0,0,0,0,0,0,0
10,109999,75,100000,79,10000,40,9999,0.100000,0,0,0.000000,6,0.000000,0.000000,0.471474,0,0,0,0,0,0,0
10,109999,76,100000,0,20000,49,9999,0.100000,0,0,0.000000,6,1.000000,0.000000,13.584530,0,0,0,0,0,0,0
10,109999,77,100000,79,10000,40,9999,0.100000,0,0,0.000000,6,0.000000,0.000000,2.378852,0,0,0,0,0,0,0
10,109999,78,100000,12,0,40,9999,0.100000,0,0,0.000000,6,0.000000,0.000000,1.029372,0,0,0,0,0,0,0
10,109999,79,100000,79,10000,49,9999,0.100000,0,0,0.000000,6,5.000000,0.000000,13.225736,0,0,1,0,0,1,0
10,109999,80,100000,12,0,49,9999,0.100000,0,0,0.000000,6,1.000000,0.000000,4.497755,0,0,0,0,0,0,0
10,109999,81,100000,57,0,40,9999,0.100000,0,0,0.000000,6,0.000000,0.000000,10.029457,0,0,0,0,0,0,0
10,109999,82,100000,57,0,49,9999,0.100000,0,0,0.000000,6,3.000000,0.000000,10.794199,0,0,0,0,0,0,0
10,109999,83,100000,57,0,40,9999,0.100000,0,0,0.000000,6,0.000000,0.000000,0.138904,0,0,0,0,0,0,0
10,109999,84,100000,57,0,49,9999,0.100000,0,0,0.000000,6,3.000000,0.000000,4.999501,0,0,0,0,0,0,0
10,109999,85,100000,53,50000,40,9999,0.100000,0,0,0.000000,6,0.000000,0.000000,2.557498,0,0,0,0,0,0,0
10,109999,86,100000,79,10000,40,9999,0.100000,0,0,0.000000,6,0.000000,0.000000,0.420583,0,0,0,0,0,0,0
10,109999,87,100000,53,50000,9,9999,0.100000,0,0,0.000000,6,2.000000,0.000000,20.499172,0,0,0,0,0,1,0
10,109999,88,100000,57,0,40,9999,0.100000,0,0,0.000000,6,0.000000,0.000000,0.127716,0,0,0,0,0,0,0
10,109999,89,100000,12,0,40,9999,0.100000,0,0,0.000000,6,0.000000,0.000000,10.342332,0,0,0,0,0,0,0
10,109999,90,100000,79,10000,49,9999,0.100000,0,0,0.000000,6,7.000000,0.000000,22.026890,0,0,0,0,0,0,0
10,109999,91,100000,57,0,9,9999,0.100000,0,0,0.000000,6,5.000000,0.000000,18.407516,0,0,0,0,0,1,0
10,109999,92,100000,0,20000,40,9999,0.100000,0,0,0.000000,6,0.000000,0.000000,2.079348,0,0,0,0,0,0,0
10,109999,93,100000,79,10000,40,9999,0.100000,0,0,0.000000,6,0.000000,0.000000,0.107880,0,0,0,0,0,0,0
10,109999,94,100000,54,70000,40,9999,0.100000,0,0,0.000000,6,0.000000,0.000000,0.190435,0,0,0,0,0,0,0
10,109999,95,100000,12,0,40,9999,0.100000,0,0,0.000000,6,0.000000,0.000000,3.279417,0,0,0,0,0,0,0
10,109999,96,100000,12,0,40,9999,0.100000,0,0,0.000000,6,0.000000,0.000000,0.435149,0,0,0,0,0,0,0
10,109999,97,100000,57,0,49,9999,0.100000,0,0,0.000000,6,1.000000,0.000000,5.238362,0,0,0,0,0,0,0
10,109999,98,100000,54,70000,40,9999,0.100000,0,0,0.000000,6,0.000000,0.000000,0.434058,0,0,0,0,0,0,0
10,109999,99,100000,53,50000,40,9999,0.100000,0,0,0.000000,6,0.000000,0.000000,0.142290,0,0,0,0,0,0,0
11,119999,0,110000,79,10000,40,9999,0.065000,0,0,0.000000,6,0.000000,0.000000,23.883618,0,0,0,0,0,0,0
11,119999,1,110000,57,0,49,9999,0.100000,0,0,0.000000,6,3.000000,0.000000,15.451628,0,0,0,0,0,0,0
11,119999,2,110000,0,20000,40,9999,0.100000,0,0,0.000000,6,0.000000,0.000000,0.246109,0,0,0,0,0,0,0
11,119999,3,110000,54,70000,40,9999,0.100000,0,0,0.000000,6,0.000000,0.000000,6.696784,0,0,0,0,0,0,0
11,119999,4,110000,0,20000,40,9999,0.100000,0,0,0.000000,6,0.000000,0.000000,1.055218,0,0,0,0,0,0,0
11,119999,5,110000,12,0,49,9999,0.100000,0,0,0.000000,6,1.000000,0.000000,4.444023,0,0,0,0,0,0,0
11,119999,6,110000,54,70000,49,9999,0.100000,0,0,0.000000,6,1.000000,0.000000,2.993540,0,0,0,0,0,0,0
11,119999,7,110000,79,10000,40,9999,0.100000,0,0,0.000000,6,0.000000,0.000000,0.163027,0,0,0,0,0,0,0
11,119999,8,110000,53,50000,40,9999,0.100000,0,0,0.000000,6,0.000000,0.000000,0.103208,0,0,0,0,0,0,0
11,119999,9,110000,0,20000,40,9999,0.100000,0,0,0.000000,6,0.000000,0.000000,0.741204,0,0,0,0,0,0,0
11,119999,10,110000,53,50000,40,9999,0.100000,0,0,0.000000,6,0.000000,0.000000,0.385446,0,0,0,0,0,0,0
11,119999,11,110000,57,0,40,9999,0.100000,0,0,0.000000,6,0.000000,0.000000,1.005059,0,0,0,0,0,0,0
11,119999,12,110000,12,0,40,9999,0.100000,0,0,0.000000,6,0.000000,0.000000,0.151758,0,0,0,0,0,0,0
11,119999,13,110000,54,70000,9,9999,0.100000,0,0,34.210526,6,3.000000,0.000000,9.005022,0,0,0,1,0,0,0
11,119999,14,110000,12,0,40,9999,0.100000,0,0,0.000000,6,0.000000,0.000000,0.921605,0,0,0,0,0,0,0
11,119999,15,110000,0,20000,40,9999,0.100000,0,0,0.000000,6,0.000000,0.000000,0.980652,0,0,0,0,0,0,0
11,119999,16,110000,54,70000,40,9999,0.100000,0,0,0.000000,6,0.000000,0.000000,0.121777,0,0,0,0,0,0,0
11,119999,17,110000,79,10000,40,9999,0.100000,0,0,0.000000,6,0.000000,0.000000,1.529722,0,0,0,0,0,0,0
11,119999,18,110000,53,50000,40,9999,0.100000,0,0,0.000000,6,0.000000,0.000000,4.640472,0,0,0,0,0,0,0
11,119999,19,110000,53,50000,40,9999,0.100000,0,0,0.000000,6,0.000000,0.000000,2.464720,0,0,0,0,0,0,0
11,119999,20,110000,0,20000,40,9999,0.100000,0,0,0.000000,6,0.000000,0.000000,0.179148,0,0,0,0,0,0,0
11,119999,21,110000,12,0,49,9999,0.100000,0,0,0.000000,6,1.000000,0.000000,10.116020,0,0,0,0,0,0,0
11,119999,22,110000,57,0,40,9999,0.100000,0,0,0.000000,6,0.000000,0.000000,0.009362,0,0,0,0,0,0,0
11,119999,23,110000,79,10000,40,9999,0.100000,0,0,0.000000,6,0.000000,0.000000,0.821713,0,0,0,0,0,0,0
11,119999,24,110000,79,10000,40,9999,0.100000,0,0,0.000000,6,0.000000,0.000000,0.240349,0,0,0,0,0,0,0
11,119999,25,110000,54,70000,40,9999,0.100000,0,0,0.000000,6,0.000000,0.000000,0.175533,0,0,0,0,0,0,0
11,119999,26,110000,53,50000,49,9999,0.100000,0,0,0.000000,6,1.000000,0.000000,7.725262,0,0,0,0,0,0,0
11,119999,27,110000,0,20000,49,9999,0.100000,0,0,0.000000,6,3.000000,0.000000,12.794144,0,0,0,0,0,0,0
11,119999,28,110000,79,10000,49,9999,0.100000,0,0,0.000000,6,1.000000,0.000000,1.984463,0,0,0,0,0,0,0
11,119999,29,110000,54,70000,49,9999,0.100000,0,0,0.000000,6,1.000000,0.000000,7.737964,0,0,0,0,0,0,0
11,119999,30,110000,79,10000,40,9999,0.100000,0,0,0.000000,6,0.000000,0.000000,0.790054,0,0,0,0,0,0,0
11,119999,31,110000,53,50000,40,9999,0.100000,0,0,0.000000,6,0.000000,0.000000,3.859636,0,0,0,0,0,0,0
11,119999,32,110000,57,0,49,9999,0.100000,0,0,0.000000,6,1.000000,0.000000,5.035671,0,0,0,0,0,0,0
11,119999,33,110000,79,10000,40,9999,0.100000,0,0,0.000000,6,0.000000,0.000000,0.639215,0,0,0,0,0,0,0
11,119999,34,110000,57,0,40,9999,0.100000,0,0,0.000000,6,0.000000,0.000000,0.269287,0,0,0,0,0,0,0
11,119999,35,110000,54,70000,40,9999,0.100000,0,0,0.000000,6,0.000000,0.000000,0.230453,0,0,0,0,0,0,0
11,119999,36,110000,57,0,40,9999,0.100000,0,0,0.000000,6,0.000000,0.000000,0.236849,0,0,0,0,0,0,0
11,119999,37,110000,57,0,49,9999,0.100000,0,0,0.000000,6,5.000000,0.000000,12.596185,0,0,0,0,0,0,0
11,119999,38,110000,57,0,40,9999,0.100000,0,0,0.000000,6,0.000000,0.000000,0.211982,0,0,0,0,0,0,0
11,119999,39,110000,53,50000,40,9999,0.100000,0,0,0.000000,6,0.000000,0.000000,3.359906,0,0,0,0,0,0,0
11,119999,40,110000,54,70000,49,9999,0.100000,0,0,0.000000,6,1.000000,0.000000,2.003422,0,0,0,0,0,0,0
11,119999,41,110000,79,10000,40,9999,0.100000,0,0,0.000000,6,0.000000,0.000000,1.507862,0,0,0,0,0,0,0
11,119999,42,110000,0,20000,40,9999,0.100000,0,0,0.000000,6,0.000000,0.000000,0.137240,0,0,0,0,0,0,0
11,119999,43,110000,79,10000,40,9999,0.100000,0,0,0.000000,6,0.000000,0.000000,8.545608,0,0,0,0,0,0,0
11,119999,44,110000,53,50000,49,9999,0.100000,0,0,0.000000,6,1.000000,0.000000,5.829592,0,0,0,0,0,0,0
11,119999,45,110000,54,70000,49,9999,0.100000,0,0,0.000000,6,1.000000,0.000000,1.932158,0,0,0,0,0,0,0
11,119999,46,110000,79,10000,40,9999,0.100000,0,0,0.000000,6,0.000000,0.000000,7.555887,0,0,0,0,0,0,0
11,119999,47,110000,0,20000,49,9999,0.100000,0,0,0.000000,6,1.000000,0.000000,10.210248,0,0,0,0,0,0,0
11,119999,48,110000,54,70000,40,9999,0.100000,0,0,0.000000,6,0.000000,0.000000,0.676639,0,0,0,0,0,0,0
11,119999,49,110000,79,10000,40,9999,0.100000,0,0,0.000000,6,0.000000,0.000000,2.061911,0,0,0,0,0,0,0
11,119999,50,110000,57,0,40,9999,0.100000,0,0,0.000000,6,0.000000,0.000000,0.128696,0,0,0,0,0,0,0
11,119999,51,110000,12,0,40,9999,0.100000,0,0,0.000000,6,0.000000,0.000000,0.156979,0,0,0,0,0,0,0
11,119999,52,110000,79,10000,40,9999,0.100000,0,0,0.000000,6,0.000000,0.000000,0.138341,0,0,0,0,0,0,0
11,119999,53,110000,57,0,40,9999,0.100000,0,0,0.000000,6,0.000000,0.000000,0.404753,0,0,0,0,0,0,0
11,119999,54,110000,79,10000,40,9999,0.100000,0,0,0.000000,6,0.000000,0.000000,0.779542,0,0,0,0,0,0,0
11,119999,55,110000,54,70000,40,9999,0.100000,0,0,0.000000,6,0.000000,0.000000,0.676035,0,0,0,0,0,0,0
11,119999,56,110000,0,20000,40,9999,0.100000,0,0,0.000000,6,0.000000,0.000000,0.116483,0,0,0,0,0,0,0
11,119999,57,110000,57,0,49,9999,0.100000,0,0,0.000000,6,6.000000,0.000000,16.931430,0,0,0,0,0,0,0
11,119999,58,110000,0,20000,49,9999,0.100000,0,0,0.000000,6,1.000000,0.000000,9.445752,0,0,0,0,0,0,0
11,119999,59,110000,57,0,40,9999,0.100000,0,0,0.000000,6,0.000000,0.000000,5.128321,0,0,0,0,0,0,0
11,119999,60,110000,12,0,40,9999,0.100000,0,0,0.000000,6,0.000000,0.000000,0.906681,0,0,0,0,0,0,0
11,119999,61,110000,57,0,40,9999,0.100000,0,0,0.000000,6,0.000000,0.000000,4.918562,0,0,0,0,0,0,0
11,119999,62,110000,57,0,40,9999,0.100000,0,0,0.000000,6,0.000000,0.000000,4.988056,0,0,0,0,0,0,0
11,119999,63,110000,0,20000,49,9999,0.100000,0,0,0.000000,6,1.000000,0.000000,14.615467,0,0,0,0,0,0,0
11,119999,64,110000,57,0,40,9999,0.100000,0,0,0.000000,6,0.000000,0.000000,3.363675,0,0,0,0,0,0,0
11,119999,65,110000,57,0,40,9999,0.100000,0,0,0.000000,6,0.000000,0.000000,5.857003,0,0,0,0,0,0,0
11,119999,66,110000,79,10000,40,9999,0.100000,0,0,0.000000,6,0.000000,0.000000,0.786013,0,0,0,0,0,0,0
11,119999,67,110000,79,10000,40,9999,0.100000,0,0,0.000000,6,0.000000,0.000000,0.138375,0,0,0,0,0,0,0
11,119999,68,110000,53,50000,49,9999,0.100000,0,0,0.000000,6,1.000000,0.000000,7.392980,0,0,0,0,0,0,0
11,119999,69,110000,54,70000,49,9999,0.100000,0,0,0.000000,6,1.000000,0.000000,7.649488,0,0,0,0,0,0,0
11,119999,70,110000,79,10000,9,9999,0.100000,0,0,51.469164,6,3.000000,0.000000,6.242153,0,0,0,1,0,0,0
11,119999,71,110000,54,70000,49,9999,0.100000,0,0,0.000000,6,1.000000,0.000000,1.884870,0,0,0,0,0,0,0
11,119999,72,110000,79,10000,40,9999,0.100000,0,0,0.000000,6,0.000000,0.000000,0.364331,0,0,0,0,0,0,0
11,119999,73,110000,54,70000,40,9999,0.100000,0,0,0.000000,6,0.000000,0.000000,4.999678,0,0,0,0,0,0,0
11,119999,74,110000,54,70000,49,9999,0.100000,0,0,0.000000,6,1.000000,0.000000,3.634308,0,0,0,0,0,0,0
11,119999,75,110000,0,20000,40,9999,0.100000,0,0,0.000000,6,0.000000,0.000000,0.584509,0,0,0,0,0,0,0
11,119999,76,110000,57,0,49,9999,0.100000,0,0,0.000000,6,1.000000,0.000000,13.370206,0,0,0,0,0,0,0
11,119999,77,110000,57,0,40,9999,0.100000,0,0,0.000000,6,0.000000,0.000000,2.350285,0,0,0,0,0,0,0
11,119999,78,110000,12,0,40,9999,0.100000,0,0,0.000000,6,0.000000,0.000000,1.045303,0,0,0,0,0,0,0
11,119999,79,110000,79,10000,49,9999,0.100000,0,0,0.000000,6,1.000000,0.000000,17.066894,0,0,0,0,0,0,0
11,119999,80,110000,53,50000,40,9999,0.100000,0,0,0.000000,6,0.000000,0.000000,5.440437,0,0,0,0,0,0,0
11,119999,81,110000,79,10000,49,9999,0.100000,0,0,0.000000,6,1.000000,0.000000,7.966431,0,0,0,0,0,0,0
11,119999,82,110000,79,10000,49,9999,0.100000,0,0,0.000000,6,3.000000,0.000000,9.909407,0,0,0,0,0,0,0
11,119999,83,110000,53,50000,40,9999,0.100000,0,0,0.000000,6,0.000000,0.000000,0.140703,0,0,0,0,0,0,0
11,119999,84,110000,12,0,40,9999,0.100000,0,0,0.000000,6,0.000000,0.000000,1.443947,0,0,0,0,0,0,0
11,119999,85,110000,53,50000,49,9999,0.100000,0,0,0.000000,6,1.000000,0.000000,9.850728,0,0,0,0,0,0,0
11,119999,86,110000,53,50000,40,9999,0.100000,0,0,0.000000,6,0.000000,0.000000,0.281044,0,0,0,0,0,0,0
11,119999,87,110000,53,50000,49,9999,0.100000,0,0,0.000000,6,1.000000,0.000000,23.774329,0,0,0,0,0,0,0
11,119999,88,110000,57,0,40,9999,0.100000,0,0,0.000000,6,0.000000,0.000000,0.125086,0,0,0,0,0,0,0
11,119999,89,110000,12,0,49,9999,0.100000,0,0,0.000000,6,2.000000,0.000000,7.653227,0,0,0,0,0,0,0
11,119999,90,110000,54,70000,49,9999,0.100000,0,0,0.000000,6,7.000000,0.000000,21.438028,0,0,0,0,0,0,0
11,119999,91,110000,57,0,49,9999,0.100000,0,0,0.000000,6,2.000000,0.000000,15.611820,0,0,0,0,0,0,0
11,119999,92,110000,53,50000,49,9999,0.100000,0,0,0.000000,6,1.000000,0.000000,4.877805,0,0,0,0,0,0,0
11,119999,93,110000,53,50000,40,9999,0.100000,0,0,0.000000,6,0.000000,0.000000,0.107154,0,0,0,0,0,0,0
11,119999,94,110000,53,50000,40,9999,0.100000,0,0,0.000000,6,0.000000,0.000000,0.187272,0,0,0,0,0,0,0
11,119999,95,110000,0,20000,40,9999,0.100000,0,0,0.000000,6,0.000000,0.000000,3.743897,0,0,0,0,0,0,0
11,119999,96,110000,12,0,49,9999,0.100000,0,0,0.000000,6,1.000000,0.000000,1.669816,0,0,0,0,0,0,0
11,119999,97,110000,0,20000,40,9999,0.100000,0,0,0.000000,6,0.000000,0.000000,0.556585,0,0,0,0,0,0,0
11,119999,98,110000,53,50000,40,9999,0.100000,0,0,0.000000,6,0.000000,0.000000,2.677275,0,0,0,0,0,0,0
11,119999,99,110000,12,0,40,9999,0.100000,0,0,0.000000,6,0.000000,0.000000,0.137952,0,0,0,0,0,0,0
12,129999,0,120000,12,0,40,9999,0.100000,0,0,0.000000,6,0.000000,0.000000,23.925201,0,0,0,0,0,0,0
12,129999,1,120000,79,10000,40,9999,0.100000,0,0,0.000000,6,0.000000,0.000000,11.007490,0,0,0,0,0,0,0
12,129999,2,120000,57,0,40,9999,0.100000,0,0,0.000000,6,0.000000,0.000000,0.505642,0,0,0,0,0,0,0
12,129999,3,120000,54,70000,49,9999,0.100000,0,0,0.000000,6,1.000000,0.000000,5.949397,0,0,0,0,0,0,0
12,129999,4,120000,0,20000,40,9999,0.100000,0,0,0.000000,6,0.000000,0.000000,0.988711,0,0,0,0,0,0,0
12,129999,5,120000,54,70000,40,9999,0.100000,0,0,0.000000,6,0.000000,0.000000,4.094333,0,0,0,0,0,0,0
12,129999,6,120000,0,20000,49,9999,0.100000,0,0,0.000000,6,4.000000,0.000000,9.512083,0,0,0,0,0,0,0
12,129999,7,120000,53,50000,40,9999,0.100000,0,0,0.000000,6,0.000000,0.000000,0.154135,0,0,0,0,0,0,0
12,129999,8,120000,53,50000,40,9999,0.100000,0,0,0.000000,6,0.000000,0.000000,0.101961,0,0,0,0,0,0,0
12,129999,9,120000,53,50000,40,9999,0.100000,0,0,0.000000,6,0.000000,0.000000,0.160665,0,0,0,0,0,0,0
12,129999,10,120000,79,10000,40,9999,0.100000,0,0,0.000000,6,0.000000,0.000000,0.406924,0,0,0,0,0,0,0
12,129999,11,120000,57,0,40,9999,0.100000,0,0,0.000000,6,0.000000,0.000000,1.004777,0,0,0,0,0,0,0
12,129999,12,120000,54,70000,40,9999,0.100000,0,0,0.000000,6,0.000000,0.000000,0.153226,0,0,0,0,0,0,0
12,129999,13,120000,57,0,49,9999,0.100000,0,0,0.000000,6,4.000000,0.000000,12.340870,0,0,0,0,0,0,0
12,129999,14,120000,79,10000,40,9999,0.100000,0,0,0.000000,6,0.000000,0.000000,0.310336,0,0,0,0,0,0,0
12,129999,15,120000,79,10000,40,9999,0.100000,0,0,0.000000,6,0.000000,0.000000,0.993675,0,0,0,0,0,0,0
12,129999,16,120000,54,70000,40,9999,0.100000,0,0,0.000000,6,0.000000,0.000000,0.120770,0,0,0,0,0,0,0
12,129999,17,120000,53,50000,40,9999,0.100000,0,0,0.000000,6,0.000000,0.000000,2.589861,0,0,0,0,0,0,0
12,129999,18,120000,12,0,49,9999,0.100000,0,0,0.000000,6,1.000000,0.000000,4.474229,0,0,0,0,0,0,0
12,129999,19,120000,12,0,40,9999,0.100000,0,0,0.000000,6,0.000000,0.000000,0.914447,0,0,0,0,0,0,0
12,129999,20,120000,57,0,40,9999,0.100000,0,0,0.000000,6,0.000000,0.000000,0.189350,0,0,0,0,0,0,0
12,129999,21,120000,54,70000,49,9999,0.100000,0,0,0.000000,6,1.000000,0.000000,12.163646,0,0,0,0,0,0,0
12,129999,22,120000,79,10000,40,9999,0.100000,0,0,0.000000,6,0.000000,0.000000,0.122404,0,0,0,0,0,0,0
12,129999,23,120000,0,20000,40,9999,0.100000,0,0,0.000000,6,0.000000,0.000000,7.810761,0,0,0,0,0,0,0
12,129999,24,120000,12,0,40,9999,0.100000,0,0,0.000000,6,0.000000,0.000000,0.237404,0,0,0,0,0,0,0
12,129999,25,120000,54,70000,40,9999,0.100000,0,0,0.000000,6,0.000000,0.000000,0.348667,0,0,0,0,0,0,0
12,129999,26,120000,57,0,40,9999,0.100000,0,0,0.000000,6,0.000000,0.000000,5.521449,0,0,0,0,0,0,0
12,129999,27,120000,53,50000,49,9999,0.100000,0,0,0.000000,6,1.000000,0.000000,3.901014,0,0,0,0,0,0,0
12,129999,28,120000,79,10000,49,9999,0.100000,0,0,0.000000,6,1.000000,0.000000,22.875033,0,0,0,0,0,0,0
12,129999,29,120000,57,0,49,9999,0.100000,0,0,0.000000,6,1.000000,0.000000,5.895234,0,0,0,0,0,0,0
12,129999,30,120000,0,20000,40,9999,0.100000,0,0,0.000000,6,0.000000,0.000000,0.438352,0,0,0,0,0,0,0
12,129999,31,120000,79,10000,49,9999,0.100000,0,0,0.000000,6,1.000000,0.000000,7.176600,0,0,0,0,0,0,0
12,129999,32,120000,57,0,49,9999,0.100000,0,0,0.000000,6,1.000000,0.000000,3.997096,0,0,0,0,0,0,0
12,129999,33,120000,57,0,40,9999,0.100000,0,0,0.000000,6,0.000000,0.000000,0.628935,0,0,0,0,0,0,0
12,129999,34,120000,54,70000,40,9999,0.100000,0,0,0.000000,6,0.000000,0.000000,0.492758,0,0,0,0,0,0,0
12,129999,35,120000,12,0,40,9999,0.100000,0,0,0.000000,6,0.000000,0.000000,0.263512,0,0,0,0,0,0,0
12,129999,36,120000,0,20000,40,9999,0.100000,0,0,0.000000,6,0.000000,0.000000,0.248371,0,0,0,0,0,0,0
