generation,iteration,robot,birthday,ancestor_id,ancestor_birthday,cell_id,age,sigma,maps,genomes,fitness,cells_in_map,dist_max,dist_pot_max,dist_total,com_rx,com_tx,obj_group1,obj_group2,obj_group3,obj_group4,obj_group5
0,9999,0,0,0,0,49,9999,0.100000,0,0,0.000000,0,12.000000,0.000000,13.284925,0,0,0,0,0,0,0
0,9999,1,0,1,0,49,9999,0.100000,0,0,0.000000,0,6.000000,0.000000,9.381351,0,0,0,0,0,0,0
0,9999,2,0,2,0,49,9999,0.100000,0,0,0.000000,0,5.000000,0.000000,10.999320,0,0,0,0,0,0,0
0,9999,3,0,3,0,49,9999,0.100000,0,0,0.000000,0,7.000000,0.000000,24.514949,0,0,0,0,0,0,0
0,9999,4,0,4,0,49,9999,0.100000,0,0,0.000000,0,8.000000,0.000000,9.399696,0,0,0,0,0,0,0
0,9999,5,0,5,0,49,9999,0.100000,0,0,0.000000,0,9.000000,0.000000,21.547320,0,0,0,0,0,0,0
0,9999,6,0,6,0,49,9999,0.100000,0,0,0.000000,0,6.000000,0.000000,21.563791,0,0,0,0,0,0,0
0,9999,7,0,7,0,49,9999,0.100000,0,0,0.000000,0,5.000000,0.000000,10.778993,0,0,0,0,0,0,0
0,9999,8,0,8,0,49,9999,0.100000,0,0,0.000000,0,4.000000,0.000000,12.913604,0,0,0,0,0,0,0
0,9999,9,0,9,0,49,9999,0.100000,0,0,0.000000,0,9.000000,0.000000,15.919858,0,0,0,0,0,0,0
0,9999,10,0,10,0,49,9999,0.100000,0,0,0.000000,0,10.000000,0.000000,14.653326,0,0,0,0,0,0,0
0,9999,11,0,11,0,49,9999,0.100000,0,0,0.000000,0,1.000000,0.000000,3.395403,0,0,0,0,0,0,0
0,9999,12,0,12,0,49,9999,0.100000,0,0,0.000000,0,9.000000,0.000000,19.664184,0,0,0,0,0,0,0
0,9999,13,0,13,0,49,9999,0.100000,0,0,0.000000,0,12.000000,0.000000,21.784285,0,0,0,0,0,0,0
0,9999,14,0,14,0,49,9999,0.100000,0,0,0.000000,0,11.000000,0.000000,12.178770,0,0,0,0,0,0,0
0,9999,15,0,15,0,49,9999,0.100000,0,0,0.000000,0,9.000000,0.000000,10.733991,0,0,0,0,0,0,0
0,9999,16,0,16,0,49,9999,0.100000,0,0,0.000000,0,4.000000,0.000000,5.297323,0,0,0,0,0,0,0
0,9999,17,0,17,0,49,9999,0.100000,0,0,0.000000,0,9.000000,0.000000,12.964589,0,0,0,0,0,0,0
0,9999,18,0,18,0,49,9999,0.100000,0,0,0.000000,0,10.000000,0.000000,13.363685,0,0,0,0,0,0,0
0,9999,19,0,19,0,49,9999,0.100000,0,0,0.000000,0,11.000000,0.000000,14.062270,0,0,0,0,0,0,0
0,9999,20,0,20,0,49,9999,0.100000,0,0,0.000000,0,2.000000,0.000000,11.499091,0,0,0,0,0,0,0
0,9999,21,0,21,0,49,9999,0.100000,0,0,0.000000,0,4.000000,0.000000,4.928582,0,0,0,0,0,0,0
0,9999,22,0,22,0,49,9999,0.100000,0,0,0.000000,0,7.000000,0.000000,13.431691,0,0,0,0,0,0,0
0,9999,23,0,23,0,49,9999,0.100000,0,0,0.000000,0,2.000000,0.000000,4.623039,0,0,0,0,0,0,0
0,9999,24,0,24,0,49,9999,0.100000,0,0,0.000000,0,10.000000,0.000000,14.626034,0,0,0,0,0,0,0
0,9999,25,0,25,0,49,9999,0.100000,0,0,0.000000,0,6.000000,0.000000,7.193284,0,0,0,0,0,0,0
0,9999,26,0,26,0,49,9999,0.100000,0,0,0.000000,0,9.000000,0.000000,12.874472,0,0,0,0,0,0,0
0,9999,27,0,27,0,49,9999,0.100000,0,0,0.000000,0,9.000000,0.000000,18.796769,0,0,0,0,0,0,0
0,9999,28,0,28,0,49,9999,0.100000,0,0,0.000000,0,7.000000,0.000000,16.299841,0,0,0,0,0,0,0
0,9999,29,0,29,0,49,9999,0.100000,0,0,0.000000,0,9.000000,0.000000,17.581442,0,0,0,0,0,0,0
0,9999,30,0,30,0,49,9999,0.100000,0,0,0.000000,0,9.000000,0.000000,13.412999,0,0,0,0,0,0,0
0,9999,31,0,31,0,49,9999,0.100000,0,0,0.000000,0,8.000000,0.000000,12.645813,0,0,0,0,0,0,0
0,9999,32,0,32,0,49,9999,0.100000,0,0,0.000000,0,5.000000,0.000000,14.327608,0,0,0,0,0,0,0
0,9999,33,0,33,0,49,9999,0.100000,0,0,0.000000,0,9.000000,0.000000,25.418678,0,0,0,0,0,0,0
0,9999,34,0,34,0,49,9999,0.100000,0,0,0.000000,0,2.000000,0.000000,8.158994,0,0,0,0,0,0,0
0,9999,35,0,35,0,49,9999,0.100000,0,0,0.000000,0,13.000000,0.000000,20.487124,0,0,0,0,0,0,0
0,9999,36,0,36,0,49,9999,0.100000,0,0,0.000000,0,6.000000,0.000000,11.186749,0,0,0,0,0,0,0
0,9999,37,0,37,0,49,9999,0.100000,0,0,0.000000,0,3.000000,0.000000,5.501513,0,0,0,0,0,0,0
0,9999,38,0,38,0,49,9999,0.100000,0,0,0.000000,0,8.000000,0.000000,15.094983,0,0,0,0,0,0,0
0,9999,39,0,39,0,49,9999,0.100000,0,0,0.000000,0,2.000000,0.000000,3.431210,0,0,0,0,0,0,0
0,9999,40,0,40,0,49,9999,0.100000,0,0,0.000000,0,7.000000,0.000000,20.951465,0,0,0,0,0,0,0
0,9999,41,0,41,0,49,9999,0.100000,0,0,0.000000,0,4.000000,0.000000,8.960787,0,0,0,0,0,0,0
0,9999,42,0,42,0,49,9999,0.100000,0,0,0.000000,0,1.000000,0.000000,3.678932,0,0,0,0,0,0,0
0,9999,43,0,43,0,49,9999,0.100000,0,0,0.000000,0,4.000000,0.000000,11.608479,0,0,0,0,0,0,0
0,9999,44,0,44,0,49,9999,0.100000,0,0,0.000000,0,7.000000,0.000000,15.243238,0,0,0,0,0,0,0
0,9999,45,0,45,0,49,9999,0.100000,0,0,0.000000,0,9.000000,0.000000,14.251858,0,0,0,0,0,0,0
0,9999,46,0,46,0,49,9999,0.100000,0,0,0.000000,0,6.000000,0.000000,14.616203,0,0,0,0,0,0,0
0,9999,47,0,47,0,49,9999,0.100000,0,0,0.000000,0,3.000000,0.000000,6.736534,0,0,0,0,0,0,0
0,9999,48,0,48,0,49,9999,0.100000,0,0,0.000000,0,15.000000,0.000000,24.590904,0,0,0,0,0,0,0
0,9999,49,0,49,0,49,9999,0.100000,0,0,0.000000,0,5.000000,0.000000,8.853107,0,0,0,0,0,0,0
0,9999,50,0,50,0,49,9999,0.100000,0,0,0.000000,0,9.000000,0.000000,14.027313,0,0,0,0,0,0,0
0,9999,51,0,51,0,49,9999,0.100000,0,0,0.000000,0,12.000000,0.000000,16.612049,0,0,0,0,0,0,0
0,9999,52,0,52,0,49,9999,0.100000,0,0,0.000000,0,5.000000,0.000000,9.862263,0,0,0,0,0,0,0
0,9999,53,0,53,0,49,9999,0.100000,0,0,0.000000,0,8.000000,0.000000,9.401057,0,0,0,0,0,0,0
0,9999,54,0,54,0,9,9999,0.100000,0,0,47.368421,0,8.000000,0.000000,19.426452,0,0,0,1,0,0,0
0,9999,55,0,55,0,49,9999,0.100000,0,0,0.000000,0,3.000000,0.000000,8.835174,0,0,0,0,0,0,0
0,9999,56,0,56,0,99,9999,0.100000,0,0,47.368421,0,8.000000,0.000000,22.336827,0,0,1,0,0,0,0
0,9999,57,0,57,0,49,9999,0.100000,0,0,0.000000,0,9.000000,0.000000,10.884930,0,0,0,0,0,0,0
0,9999,58,0,58,0,49,9999,0.100000,0,0,0.000000,0,9.000000,0.000000,11.167005,0,0,0,0,0,0,0
0,9999,59,0,59,0,49,9999,0.100000,0,0,0.000000,0,9.000000,0.000000,29.405450,0,0,0,0,0,0,0
0,9999,60,0,60,0,49,9999,0.100000,0,0,0.000000,0,3.000000,0.000000,8.116916,0,0,0,0,0,0,0
0,9999,61,0,61,0,99,9999,0.100000,0,0,47.368421,0,9.000000,0.000000,16.934986,0,0,1,0,0,0,0
0,9999,62,0,62,0,49,9999,0.100000,0,0,0.000000,0,7.000000,0.000000,9.692617,0,0,0,0,0,0,0
0,9999,63,0,63,0,49,9999,0.100000,0,0,0.000000,0,3.000000,0.000000,7.551835,0,0,0,0,0,0,0
0,9999,64,0,64,0,49,9999,0.100000,0,0,0.000000,0,5.000000,0.000000,7.875291,0,0,0,0,0,0,0
0,9999,65,0,65,0,49,9999,0.100000,0,0,0.000000,0,22.000000,0.000000,53.568777,0,0,0,0,0,0,0
0,9999,66,0,66,0,49,9999,0.100000,0,0,0.000000,0,5.000000,0.000000,5.671943,0,0,0,0,0,0,0
0,9999,67,0,67,0,49,9999,0.100000,0,0,0.000000,0,9.000000,0.000000,10.047492,0,0,0,0,0,0,0
0,9999,68,0,68,0,49,9999,0.100000,0,0,0.000000,0,9.000000,0.000000,12.146703,0,0,0,0,0,0,0
0,9999,69,0,69,0,49,9999,0.100000,0,0,0.000000,0,9.000000,0.000000,22.847008,0,0,0,0,0,0,0
0,9999,70,0,70,0,49,9999,0.100000,0,0,0.000000,0,5.000000,0.000000,14.860486,0,0,0,0,0,0,0
0,9999,71,0,71,0,49,9999,0.100000,0,0,0.000000,0,1.000000,0.000000,8.855135,0,0,0,0,0,0,0
0,9999,72,0,72,0,49,9999,0.100000,0,0,0.000000,0,9.000000,0.000000,24.800051,0,0,0,0,0,0,0
0,9999,73,0,73,0,49,9999,0.100000,0,0,0.000000,0,2.000000,0.000000,9.355970,0,0,0,0,0,0,0
0,9999,74,0,74,0,49,9999,0.100000,0,0,0.000000,0,10.000000,0.000000,13.486031,0,0,0,0,0,0,0
0,9999,75,0,75,0,49,9999,0.100000,0,0,0.000000,0,9.000000,0.000000,21.352057,0,0,0,0,0,0,0
0,9999,76,0,76,0,49,9999,0.100000,0,0,0.000000,0,9.000000,0.000000,12.600047,0,0,0,0,0,0,0
0,9999,77,0,77,0,49,9999,0.100000,0,0,0.000000,0,7.000000,0.000000,24.308867,0,0,0,0,0,0,0
0,9999,78,0,78,0,49,9999,0.100000,0,0,0.000000,0,8.000000,0.000000,12.501437,0,0,0,0,0,0,0
0,9999,79,0,79,0,9,9999,0.100000,0,0,47.368421,0,8.000000,0.000000,23.128901,0,0,0,1,0,0,0
0,9999,80,0,80,0,49,9999,0.100000,0,0,0.000000,0,10.000000,0.000000,16.311608,0,0,0,0,0,0,0
0,9999,81,0,81,0,49,9999,0.100000,0,0,0.000000,0,7.000000,0.000000,8.669652,0,0,0,0,0,0,0
0,9999,82,0,82,0,49,9999,0.100000,0,0,0.000000,0,5.000000,0.000000,18.426567,0,0,0,0,0,0,0
0,9999,83,0,83,0,49,9999,0.100000,0,0,0.000000,0,8.000000,0.000000,11.766871,0,0,0,0,0,0,0
0,9999,84,0,84,0,49,9999,0.100000,0,0,0.000000,0,7.000000,0.000000,12.100823,0,0,0,0,0,0,0
0,9999,85,0,85,0,49,9999,0.100000,0,0,0.000000,0,5.000000,0.000000,23.508423,0,0,0,0,0,0,0
0,9999,86,0,86,0,49,9999,0.100000,0,0,0.000000,0,9.000000,0.000000,15.628434,0,0,0,0,0,0,0
0,9999,87,0,87,0,49,9999,0.100000,0,0,0.000000,0,3.000000,0.000000,14.086534,0,0,0,0,0,0,0
0,9999,88,0,88,0,49,9999,0.100000,0,0,0.000000,0,5.000000,0.000000,7.716002,0,0,0,0,0,0,0
0,9999,89,0,89,0,49,9999,0.100000,0,0,0.000000,0,8.000000,0.000000,15.054263,0,0,0,0,0,0,0
0,9999,90,0,90,0,49,9999,0.100000,0,0,0.000000,0,8.000000,0.000000,18.384733,0,0,0,0,0,0,0
0,9999,91,0,91,0,49,9999,0.100000,0,0,0.000000,0,6.000000,0.000000,9.327829,0,0,0,0,0,0,0
0,9999,92,0,92,0,49,9999,0.100000,0,0,0.000000,0,10.000000,0.000000,17.608306,0,0,0,0,0,0,0
0,9999,93,0,93,0,49,9999,0.100000,0,0,0.000000,0,8.000000,0.000000,14.985936,0,0,0,0,0,0,0
0,9999,94,0,94,0,49,9999,0.100000,0,0,0.000000,0,9.000000,0.000000,24.134528,0,0,0,0,0,0,0
0,9999,95,0,95,0,49,9999,0.100000,0,0,0.000000,0,7.000000,0.000000,7.575108,0,0,0,0,0,0,0
0,9999,96,0,96,0,99,9999,0.100000,0,0,47.368421,0,12.000000,0.000000,25.763291,0,0,1,0,0,0,0
0,9999,97,0,97,0,49,9999,0.100000,0,0,0.000000,0,4.000000,0.000000,12.860892,0,0,0,0,0,0,0
0,9999,98,0,98,0,49,9999,0.100000,0,0,0.000000,0,8.000000,0.000000,13.307057,0,0,0,0,0,0,0
0,9999,99,0,99,0,49,9999,0.100000,0,0,0.000000,0,6.000000,0.000000,8.735303,0,0,0,0,0,0,0
1,19999,0,10000,92,0,49,9999,0.100000,0,0,0.000000,3,3.000000,0.000000,19.164113,0,0,0,0,0,0,0
1,19999,1,10000,92,0,40,9999,0.100000,0,0,0.000000,3,0.000000,0.000000,0.196549,0,0,0,0,0,0,0
1,19999,2,10000,0,0,49,9999,0.100000,0,0,0.000000,3,1.000000,0.000000,2.134174,0,0,0,0,0,0,0
1,19999,3,10000,3,0,49,9999,0.100000,0,0,0.000000,3,1.000000,0.000000,18.275823,0,0,0,0,0,0,0
1,19999,4,10000,59,0,40,9999,0.100000,0,0,0.000000,3,0.000000,0.000000,0.089775,0,0,0,0,0,0,0
1,19999,5,10000,92,0,99,9999,0.100000,0,0,57.895065,3,7.000000,0.000000,14.527752,0,0,1,0,0,0,0
1,19999,6,0,6,0,49,19999,0.100000,0,0,0.000000,1,3.000000,0.000000,13.415655,0,0,0,0,0,0,0
1,19999,7,10000,92,0,40,9999,0.100000,0,0,0.000000,3,0.000000,0.000000,0.131432,0,0,0,0,0,0,0
1,19999,8,10000,74,0,49,9999,0.100000,0,0,0.000000,3,1.000000,0.000000,9.052814,0,0,0,0,0,0,0
1,19999,9,10000,6,0,49,9999,0.100000,0,0,0.000000,1,1.000000,0.000000,2.523470,0,0,0,0,0,0,0
1,19999,10,10000,0,0,49,9999,0.100000,0,0,0.000000,3,3.000000,0.000000,12.290147,0,0,0,0,0,0,0
1,19999,11,10000,59,0,49,9999,0.100000,0,0,0.000000,3,1.000000,0.000000,1.900872,0,0,0,0,0,0,0
1,19999,12,10000,59,0,49,9999,0.100000,0,0,0.000000,3,3.000000,0.000000,11.812127,0,0,0,0,0,0,0
1,19999,13,10000,59,0,49,9999,0.100000,0,0,0.000000,3,2.000000,0.000000,7.396221,0,0,0,0,0,0,0
1,19999,14,10000,59,0,40,9999,0.100000,0,0,0.000000,3,0.000000,0.000000,0.998118,0,0,0,0,0,0,0
1,19999,15,10000,59,0,49,9999,0.100000,0,0,0.000000,3,1.000000,0.000000,2.945237,0,0,0,0,0,0,0
1,19999,16,10000,59,0,40,9999,0.100000,0,0,0.000000,3,0.000000,0.000000,0.830695,0,0,0,0,0,0,0
1,19999,17,10000,59,0,40,9999,0.100000,0,0,0.000000,3,0.000000,0.000000,0.244188,0,0,0,0,0,0,0
1,19999,18,10000,59,0,9,9999,0.100000,0,0,0.000000,3,2.000000,0.000000,6.763166,0,0,0,0,0,1,0
1,19999,19,10000,74,0,49,9999,0.100000,0,0,0.000000,3,3.000000,0.000000,7.815091,0,0,0,0,0,0,0
1,19999,20,10000,59,0,49,9999,0.100000,0,0,0.000000,3,1.000000,0.000000,4.306221,0,0,0,0,0,0,0
1,19999,21,0,21,0,49,19999,0.100000,0,0,0.000000,3,1.000000,0.000000,1.448414,0,0,0,0,0,0,0
1,19999,22,10000,0,0,49,9999,0.100000,0,0,0.000000,3,3.000000,0.000000,13.568870,0,0,0,0,0,0,0
1,19999,23,10000,59,0,49,9999,0.100000,0,0,0.000000,3,1.000000,0.000000,1.431562,0,0,0,0,0,0,0
1,19999,24,10000,74,0,40,9999,0.100000,0,0,0.000000,3,0.000000,0.000000,0.652925,0,0,0,0,0,0,0
1,19999,25,10000,0,0,40,9999,0.100000,0,0,0.000000,3,0.000000,0.000000,0.223137,0,0,0,0,0,0,0
1,19999,26,10000,3,0,40,9999,0.100000,0,0,0.000000,3,0.000000,0.000000,0.183706,0,0,0,0,0,0,0
1,19999,27,10000,0,0,49,9999,0.100000,0,0,0.000000,3,7.000000,0.000000,15.401630,0,0,0,0,0,0,0
1,19999,28,10000,59,0,49,9999,0.100000,0,0,0.000000,3,2.000000,0.000000,8.214142,0,0,0,0,0,0,0
1,19999,29,10000,3,0,49,9999,0.100000,0,0,0.000000,3,2.000000,0.000000,13.730638,0,0,0,0,0,0,0
1,19999,30,10000,59,0,40,9999,0.100000,0,0,0.000000,3,0.000000,0.000000,0.242807,0,0,0,0,0,0,0
1,19999,31,10000,92,0,40,9999,0.100000,0,0,0.000000,3,0.000000,0.000000,1.591355,0,0,0,0,0,0,0
1,19999,32,10000,59,0,40,9999,0.100000,0,0,0.000000,3,0.000000,0.000000,0.244784,0,0,0,0,0,0,0
1,19999,33,10000,0,0,40,9999,0.100000,0,0,0.000000,3,0.000000,0.000000,1.293786,0,0,0,0,0,0,0
1,19999,34,0,34,0,40,19999,0.100000,0,0,0.000000,3,0.000000,0.000000,4.705218,0,0,0,0,0,0,0
1,19999,35,10000,59,0,49,9999,0.100000,0,0,0.000000,3,1.000000,0.000000,4.192295,0,0,0,0,0,0,0
1,19999,36,10000,0,0,49,9999,0.100000,0,0,0.000000,3,1.000000,0.000000,3.669801,0,0,0,0,0,0,0
1,19999,37,10000,92,0,49,9999,0.100000,0,0,0.000000,3,7.000000,0.000000,23.056967,0,0,0,0,0,0,0
1,19999,38,10000,74,0,49,9999,0.100000,0,0,0.000000,3,1.000000,0.000000,6.252042,0,0,0,0,0,0,0
1,19999,39,10000,59,0,49,9999,0.100000,0,0,0.000000,3,2.000000,0.000000,4.993495,0,0,0,0,0,0,0
1,19999,40,10000,59,0,49,9999,0.100000,0,0,0.000000,3,1.000000,0.000000,7.828116,0,0,0,0,0,0,0
1,19999,41,10000,59,0,49,9999,0.100000,0,0,0.000000,3,1.000000,0.000000,1.317908,0,0,0,0,0,0,0
1,19999,42,10000,59,0,49,9999,0.100000,0,0,0.000000,3,1.000000,0.000000,5.736377,0,0,0,0,0,0,0
1,19999,43,10000,59,0,49,9999,0.100000,0,0,0.000000,3,1.000000,0.000000,5.028126,0,0,0,0,0,0,0
1,19999,44,10000,59,0,40,9999,0.100000,0,0,0.000000,3,0.000000,0.000000,0.129671,0,0,0,0,0,0,0
1,19999,45,10000,6,0,49,9999,0.100000,0,0,0.000000,3,2.000000,0.000000,5.340125,0,0,0,0,0,0,0
1,19999,46,10000,59,0,49,9999,0.100000,0,0,0.000000,3,2.000000,0.000000,5.948352,0,0,0,0,0,0,0
1,19999,47,10000,92,0,40,9999,0.100000,0,0,0.000000,3,0.000000,0.000000,0.294460,0,0,0,0,0,0,0
1,19999,48,10000,59,0,40,9999,0.100000,0,0,0.000000,3,0.000000,0.000000,0.127457,0,0,0,0,0,0,0
1,19999,49,10000,59,0,40,9999,0.100000,0,0,0.000000,3,0.000000,0.000000,1.778718,0,0,0,0,0,0,0
1,19999,50,10000,6,0,9,9999,0.100000,0,0,0.000000,2,3.000000,0.000000,19.964223,0,0,0,2,0,0,0
1,19999,51,10000,0,0,49,9999,0.100000,0,0,0.000000,3,4.000000,0.000000,14.011554,0,0,0,0,0,0,0
1,19999,52,10000,6,0,49,9999,0.100000,0,0,0.000000,3,2.000000,0.000000,5.550987,0,0,0,0,0,0,0
1,19999,53,10000,0,0,40,9999,0.100000,0,0,0.000000,3,0.000000,0.000000,0.846806,0,0,0,0,0,0,0
1,19999,54,10000,59,0,49,9999,0.100000,0,0,0.000000,3,1.000000,0.000000,9.681072,0,0,0,0,0,0,0
1,19999,55,10000,74,0,49,9999,0.100000,0,0,0.000000,3,1.000000,0.000000,3.528605,0,0,0,0,0,0,0
1,19999,56,10000,3,0,49,9999,0.100000,0,0,0.000000,3,3.000000,0.000000,12.211497,0,0,0,0,0,0,0
1,19999,57,10000,0,0,9,9999,0.100000,0,0,0.000000,3,2.000000,0.000000,3.866517,0,0,0,1,0,0,0
1,19999,58,10000,0,0,49,9999,0.100000,0,0,0.000000,3,1.000000,0.000000,5.573506,0,0,0,0,0,0,0
1,19999,59,10000,50,0,40,9999,0.100000,0,0,0.000000,3,0.000000,0.000000,1.096698,0,0,0,0,0,0,0
1,19999,60,10000,74,0,40,9999,0.100000,0,0,0.000000,3,0.000000,0.000000,1.190977,0,0,0,0,0,0,0
1,19999,61,10000,92,0,49,9999,0.100000,0,0,0.000000,3,2.000000,0.000000,5.215702,0,0,0,0,0,0,0
1,19999,62,10000,0,0,40,9999,0.100000,0,0,0.000000,3,0.000000,0.000000,0.563391,0,0,0,0,0,0,0
1,19999,63,10000,0,0,40,9999,0.100000,0,0,0.000000,3,0.000000,0.000000,0.451936,0,0,0,0,0,0,0
1,19999,64,10000,74,0,40,9999,0.100000,0,0,0.000000,3,0.000000,0.000000,2.121950,0,0,0,0,0,0,0
1,19999,65,10000,3,0,40,9999,0.100000,0,0,0.000000,3,0.000000,0.000000,1.533969,0,0,0,0,0,0,0
1,19999,66,10000,59,0,40,9999,0.100000,0,0,0.000000,3,0.000000,0.000000,0.840940,0,0,0,0,0,0,0
1,19999,67,10000,92,0,40,9999,0.100000,0,0,0.000000,3,0.000000,0.000000,0.103159,0,0,0,0,0,0,0
1,19999,68,10000,92,0,40,9999,0.100000,0,0,0.000000,3,0.000000,0.000000,0.128817,0,0,0,0,0,0,0
1,19999,69,10000,92,0,49,9999,0.100000,0,0,0.000000,3,1.000000,0.000000,4.814844,0,0,0,0,0,0,0
1,19999,70,10000,59,0,40,9999,0.100000,0,0,0.000000,3,0.000000,0.000000,0.107806,0,0,0,0,0,0,0
1,19999,71,10000,92,0,49,9999,0.100000,0,0,0.000000,3,2.000000,0.000000,3.770229,0,0,0,0,0,0,0
1,19999,72,10000,0,0,40,9999,0.100000,0,0,0.000000,3,0.000000,0.000000,23.776428,0,0,0,0,0,0,0
1,19999,73,10000,59,0,49,9999,0.100000,0,0,0.000000,3,1.000000,0.000000,10.456956,0,0,0,0,0,0,0
1,19999,74,10000,74,0,0,9999,0.100000,0,0,0.000000,3,0.000000,0.000000,1.903531,0,0,0,0,0,1,0
1,19999,75,10000,92,0,40,9999,0.100000,0,0,0.000000,3,0.000000,0.000000,15.129806,0,0,0,0,0,0,0
1,19999,76,10000,0,0,40,9999,0.100000,0,0,0.000000,3,0.000000,0.000000,0.820961,0,0,0,0,0,0,0
1,19999,77,10000,92,0,49,9999,0.100000,0,0,0.000000,3,3.000000,0.000000,8.122371,0,0,0,0,0,0,0
1,19999,78,10000,74,0,40,9999,0.100000,0,0,0.000000,3,0.000000,0.000000,2.153903,0,0,0,0,0,0,0
1,19999,79,10000,6,0,49,9999,0.100000,0,0,0.000000,3,2.000000,0.000000,7.570463,0,0,0,0,0,0,0
1,19999,80,10000,0,0,40,9999,0.100000,0,0,0.000000,3,0.000000,0.000000,0.633586,0,0,0,0,0,0,0
1,19999,81,10000,0,0,49,9999,0.100000,0,0,0.000000,3,1.000000,0.000000,1.820902,0,0,0,0,0,0,0
1,19999,82,10000,6,0,49,9999,0.100000,0,0,0.000000,3,9.000000,0.000000,18.793549,0,0,0,0,0,0,0
1,19999,83,10000,59,0,49,9999,0.100000,0,0,0.000000,3,1.000000,0.000000,3.388739,0,0,0,0,0,0,0
1,19999,84,10000,59,0,40,9999,0.100000,0,0,0.000000,3,0.000000,0.000000,1.103070,0,0,0,0,0,0,0
1,19999,85,10000,59,0,49,9999,0.135000,0,0,0.000000,3,2.000000,0.000000,10.272396,0,0,0,0,0,0,0
1,19999,86,10000,0,0,49,9999,0.100000,0,0,0.000000,3,1.000000,0.000000,3.510284,0,0,0,0,0,0,0
1,19999,87,10000,74,0,49,9999,0.100000,0,0,0.000000,3,4.000000,0.000000,15.518988,0,0,0,0,0,0,0
1,19999,88,10000,92,0,40,9999,0.100000,0,0,0.000000,3,0.000000,0.000000,0.138167,0,0,0,0,0,0,0
1,19999,89,10000,0,0,49,9999,0.100000,0,0,0.000000,3,2.000000,0.000000,9.360370,0,0,0,0,0,0,0
1,19999,90,0,90,0,49,19999,0.100000,0,0,0.000000,3,1.000000,0.000000,7.961360,0,0,0,0,0,0,0
1,19999,91,10000,92,0,40,9999,0.100000,0,0,0.000000,3,0.000000,0.000000,0.909921,0,0,0,0,0,0,0
1,19999,92,10000,92,0,40,9999,0.100000,0,0,0.000000,3,0.000000,0.000000,0.251201,0,0,0,0,0,0,0
1,19999,93,10000,59,0,49,9999,0.100000,0,0,0.000000,3,2.000000,0.000000,11.283179,0,0,0,0,0,0,0
1,19999,94,10000,59,0,49,9999,0.100000,0,0,0.000000,3,3.000000,0.000000,10.570871,0,0,0,0,0,0,0
1,19999,95,0,95,0,40,19999,0.100000,0,0,0.000000,3,0.000000,0.000000,0.107539,0,0,0,0,0,0,0
1,19999,96,10000,59,0,49,9999,0.100000,0,0,0.000000,3,4.000000,0.000000,10.477918,0,0,0,0,0,0,0
1,19999,97,10000,74,0,49,9999,0.100000,0,0,0.000000,3,2.000000,0.000000,6.412441,0,0,0,0,0,0,0
1,19999,98,10000,92,0,9,9999,0.100000,0,0,0.000000,3,1.000000,0.000000,13.027270,0,0,0,1,0,0,0
1,19999,99,10000,74,0,40,9999,0.100000,0,0,0.000000,3,0.000000,0.000000,0.248013,0,0,0,0,0,0,0
2,29999,0,20000,92,0,40,9999,0.100000,0,0,0.000000,4,0.000000,0.000000,17.819211,0,0,0,0,0,0,0
2,29999,1,20000,92,0,40,9999,0.100000,0,0,0.000000,5,0.000000,0.000000,0.159957,0,0,0,0,0,0,0
2,29999,2,20000,0,0,40,9999,0.100000,0,0,0.000000,5,0.000000,0.000000,0.124054,0,0,0,0,0,0,0
2,29999,3,20000,0,0,49,9999,0.100000,0,0,0.000000,5,1.000000,0.000000,9.508578,0,0,0,0,0,0,0
2,29999,4,20000,59,0,40,9999,0.100000,0,0,0.000000,4,0.000000,0.000000,0.071533,0,0,0,0,0,0,0
2,29999,5,20000,92,0,49,9999,0.100000,0,0,0.000000,4,1.000000,0.000000,6.716927,0,0,0,0,0,0,0
2,29999,6,20000,92,0,49,9999,0.100000,0,0,0.000000,5,2.000000,0.000000,6.540993,0,0,0,0,0,0,0
2,29999,7,20000,14,10000,40,9999,0.100000,0,0,0.000000,5,0.000000,0.000000,0.147187,0,0,0,0,0,0,0
2,29999,8,20000,14,10000,49,9999,0.100000,0,0,0.000000,5,5.000000,0.000000,13.034460,0,0,0,0,0,0,0
2,29999,9,20000,92,0,40,9999,0.100000,0,0,0.000000,4,0.000000,0.000000,0.099083,0,0,0,0,0,0,0
2,29999,10,20000,4,10000,49,9999,0.100000,0,0,0.000000,4,1.000000,0.000000,7.609360,0,0,0,0,0,0,0
2,29999,11,20000,92,0,40,9999,0.100000,0,0,0.000000,5,0.000000,0.000000,0.464183,0,0,0,0,0,0,0
2,29999,12,20000,5,10000,49,9999,0.100000,0,0,0.000000,5,2.000000,0.000000,14.234718,0,0,0,0,0,0,0
2,29999,13,20000,34,0,40,9999,0.100000,0,0,0.000000,5,0.000000,0.000000,19.561492,0,0,0,0,0,0,0
2,29999,14,20000,92,0,40,9999,0.100000,0,0,0.000000,5,0.000000,0.000000,1.054782,0,0,0,0,0,0,0
2,29999,15,20000,0,0,40,9999,0.100000,0,0,0.000000,4,0.000000,0.000000,0.524739,0,0,0,0,0,0,0
2,29999,16,20000,92,0,40,9999,0.100000,0,0,0.000000,5,0.000000,0.000000,0.982769,0,0,0,0,0,0,0
2,29999,17,20000,14,10000,40,9999,0.100000,0,0,0.000000,5,0.000000,0.000000,1.857732,0,0,0,0,0,0,0
2,29999,18,20000,5,10000,49,9999,0.100000,0,0,0.000000,5,2.000000,0.000000,4.727580,0,0,0,0,0,0,0
2,29999,19,20000,4,10000,49,9999,0.100000,0,0,0.000000,5,3.000000,0.000000,8.527440,0,0,0,0,0,0,0
2,29999,20,20000,34,0,40,9999,0.100000,0,0,0.000000,5,0.000000,0.000000,0.191641,0,0,0,0,0,0,0
2,29999,21,20000,92,0,40,9999,0.100000,0,0,0.000000,5,0.000000,0.000000,1.100975,0,0,0,0,0,0,0
2,29999,22,20000,5,10000,40,9999,0.100000,0,0,0.000000,5,0.000000,0.000000,1.426204,0,0,0,0,0,0,0
2,29999,23,20000,92,0,40,9999,0.100000,0,0,0.000000,5,0.000000,0.000000,0.164396,0,0,0,0,0,0,0
2,29999,24,20000,0,0,40,9999,0.100000,0,0,0.000000,5,0.000000,0.000000,0.692476,0,0,0,0,0,0,0
2,29999,25,20000,92,0,40,9999,0.100000,0,0,0.000000,5,0.000000,0.000000,0.124668,0,0,0,0,0,0,0
2,29999,26,20000,0,0,40,9999,0.100000,0,0,0.000000,5,0.000000,0.000000,0.175936,0,0,0,0,0,0,0
2,29999,27,20000,0,0,40,9999,0.100000,0,0,0.000000,3,0.000000,0.000000,0.177728,0,0,0,0,0,0,0
2,29999,28,20000,59,0,49,9999,0.100000,0,0,0.000000,4,4.000000,0.000000,8.034251,0,0,0,0,0,0,0
2,29999,29,20000,5,10000,49,9999,0.100000,0,0,0.000000,5,5.000000,0.000000,13.712000,0,0,0,0,0,0,0
2,29999,30,20000,34,0,40,9999,0.100000,0,0,0.000000,5,0.000000,0.000000,0.233054,0,0,0,0,0,0,0
2,29999,31,20000,5,10000,40,9999,0.100000,0,0,0.000000,5,0.000000,0.000000,0.284009,0,0,0,0,0,0,0
2,29999,32,20000,14,10000,40,9999,0.100000,0,0,0.000000,5,0.000000,0.000000,0.699006,0,0,0,0,0,0,0
2,29999,33,20000,14,10000,40,9999,0.100000,0,0,0.000000,5,0.000000,0.000000,1.097299,0,0,0,0,0,0,0
2,29999,34,20000,4,10000,40,9999,0.100000,0,0,0.000000,5,0.000000,0.000000,6.169230,0,0,0,0,0,0,0
2,29999,35,20000,59,0,49,9999,0.100000,0,0,0.000000,4,1.000000,0.000000,6.748383,0,0,0,0,0,0,0
2,29999,36,20000,92,0,40,9999,0.100000,0,0,0.000000,5,0.000000,0.000000,1.779927,0,0,0,0,0,0,0
2,29999,37,20000,0,0,40,9999,0.100000,0,0,0.000000,5,0.000000,0.000000,0.691211,0,0,0,0,0,0,0
2,29999,38,20000,0,0,49,9999,0.100000,0,0,0.000000,5,3.000000,0.000000,11.993518,0,0,0,0,0,0,0
2,29999,39,20000,14,10000,40,9999,0.100000,0,0,0.000000,5,0.000000,0.000000,0.504440,0,0,0,0,0,0,0
2,29999,40,20000,4,10000,49,9999,0.100000,0,0,0.000000,4,1.000000,0.000000,7.810536,0,0,0,0,0,0,0
2,29999,41,20000,5,10000,40,9999,0.100000,0,0,0.000000,5,0.000000,0.000000,0.115029,0,0,0,0,0,0,0
2,29999,42,20000,14,10000,40,9999,0.100000,0,0,0.000000,5,0.000000,0.000000,18.752040,0,0,0,0,0,0,0
2,29999,43,20000,14,10000,40,9999,0.100000,0,0,0.000000,5,0.000000,0.000000,0.524911,0,0,0,0,0,0,0
2,29999,44,20000,5,10000,40,9999,0.100000,0,0,0.000000,5,0.000000,0.000000,0.120400,0,0,0,0,0,0,0
2,29999,45,20000,5,10000,40,9999,0.100000,0,0,0.000000,5,0.000000,0.000000,0.500213,0,0,0,0,0,0,0
2,29999,46,20000,5,10000,49,9999,0.100000,0,0,0.000000,5,2.000000,0.000000,4.415542,0,0,0,0,0,0,0
2,29999,47,20000,5,10000,40,9999,0.100000,0,0,0.000000,5,0.000000,0.000000,0.483431,0,0,0,0,0,0,0
2,29999,48,20000,92,0,40,9999,0.100000,0,0,0.000000,5,0.000000,0.000000,0.131829,0,0,0,0,0,0,0
2,29999,49,20000,0,0,40,9999,0.100000,0,0,0.000000,5,0.000000,0.000000,0.592636,0,0,0,0,0,0,0
2,29999,50,20000,34,0,49,9999,0.100000,0,0,0.000000,5,7.000000,0.000000,28.190175,0,0,0,0,0,0,0
2,29999,51,20000,5,10000,49,9999,0.100000,0,0,0.000000,5,1.000000,0.000000,3.600471,0,0,0,0,0,0,0
2,29999,52,20000,92,0,40,9999,0.100000,0,0,0.000000,5,0.000000,0.000000,2.117622,0,0,0,0,0,0,0
2,29999,53,20000,5,10000,40,9999,0.100000,0,0,0.000000,5,0.000000,0.000000,2.229580,0,0,0,0,0,0,0
2,29999,54,20000,5,10000,49,9999,0.100000,0,0,0.000000,5,5.000000,0.000000,16.627686,0,0,0,0,0,0,0
2,29999,55,20000,0,0,40,9999,0.100000,0,0,0.000000,5,0.000000,0.000000,0.565313,0,0,0,0,0,0,0
2,29999,56,20000,34,0,49,9999,0.100000,0,0,0.000000,5,3.000000,0.000000,12.993423,0,0,0,0,0,0,0
2,29999,57,20000,14,10000,40,9999,0.100000,0,0,0.000000,5,0.000000,0.000000,0.130192,0,0,0,0,0,0,0
2,29999,58,20000,14,10000,40,9999,0.100000,0,0,0.000000,5,0.000000,0.000000,2.163167,0,0,0,0,0,0,0
2,29999,59,20000,5,10000,40,9999,0.100000,0,0,0.000000,5,0.000000,0.000000,0.152835,0,0,0,0,0,0,0
2,29999,60,20000,14,10000,40,9999,0.100000,0,0,0.000000,5,0.000000,0.000000,0.605432,0,0,0,0,0,0,0
2,29999,61,20000,14,10000,40,9999,0.135000,0,0,0.000000,5,0.000000,0.000000,0.114195,0,0,0,0,0,0,0
2,29999,62,20000,92,0,40,9999,0.100000,0,0,0.000000,5,0.000000,0.000000,1.076936,0,0,0,0,0,0,0
2,29999,63,20000,34,0,40,9999,0.100000,0,0,0.000000,5,0.000000,0.000000,0.580526,0,0,0,0,0,0,0
2,29999,64,20000,92,0,40,9999,0.100000,0,0,0.000000,4,0.000000,0.000000,0.946779,0,0,0,0,0,0,0
2,29999,65,20000,0,0,40,9999,0.100000,0,0,0.000000,5,0.000000,0.000000,1.475539,0,0,0,0,0,0,0
2,29999,66,20000,5,10000,40,9999,0.100000,0,0,0.000000,5,0.000000,0.000000,1.110313,0,0,0,0,0,0,0
2,29999,67,20000,0,0,40,9999,0.100000,0,0,0.000000,5,0.000000,0.000000,0.168826,0,0,0,0,0,0,0
2,29999,68,20000,92,0,40,9999,0.100000,0,0,0.000000,5,0.000000,0.000000,0.318035,0,0,0,0,0,0,0
2,29999,69,20000,14,10000,40,9999,0.100000,0,0,0.000000,5,0.000000,0.000000,0.084983,0,0,0,0,0,0,0
2,29999,70,20000,0,0,40,9999,0.100000,0,0,0.000000,4,0.000000,0.000000,0.136638,0,0,0,0,0,0,0
2,29999,71,20000,0,0,40,9999,0.100000,0,0,0.000000,5,0.000000,0.000000,0.100866,0,0,0,0,0,0,0
2,29999,72,20000,5,10000,49,9999,0.100000,0,0,0.000000,5,2.000000,0.000000,15.498607,0,0,0,0,0,0,0
2,29999,73,20000,0,0,49,9999,0.100000,0,0,0.000000,5,2.000000,0.000000,6.197347,0,0,0,0,0,0,0
2,29999,74,20000,0,0,49,9999,0.100000,0,0,0.000000,5,1.000000,0.000000,6.446662,0,0,0,0,0,0,0
2,29999,75,20000,34,0,49,9999,0.100000,0,0,0.000000,5,2.000000,0.000000,16.239805,0,0,0,0,0,0,0
2,29999,76,20000,5,10000,40,9999,0.100000,0,0,0.000000,5,0.000000,0.000000,1.038341,0,0,0,0,0,0,0
2,29999,77,20000,0,0,40,9999,0.100000,0,0,0.000000,5,0.000000,0.000000,0.085516,0,0,0,0,0,0,0
2,29999,78,20000,14,10000,49,9999,0.100000,0,0,0.000000,5,1.000000,0.000000,5.209826,0,0,0,0,0,0,0
2,29999,79,20000,34,0,40,9999,0.100000,0,0,0.000000,5,0.000000,0.000000,0.451342,0,0,0,0,0,0,0
2,29999,80,20000,92,0,40,9999,0.100000,0,0,0.000000,5,0.000000,0.000000,0.552571,0,0,0,0,0,0,0
2,29999,81,20000,0,0,40,9999,0.100000,0,0,0.000000,5,0.000000,0.000000,0.181699,0,0,0,0,0,0,0
2,29999,82,20000,0,0,49,9999,0.100000,0,0,0.000000,5,9.000000,0.000000,25.349806,0,0,0,0,0,0,0
2,29999,83,20000,5,10000,49,9999,0.100000,0,0,0.000000,5,2.000000,0.000000,8.242683,0,0,0,0,0,0,0
2,29999,84,20000,4,10000,40,9999,0.100000,0,0,0.000000,5,0.000000,0.000000,0.611001,0,0,0,0,0,0,0
2,29999,85,20000,34,0,40,9999,0.100000,0,0,0.000000,5,0.000000,0.000000,2.800143,0,0,0,0,0,0,0
2,29999,86,20000,92,0,40,9999,0.100000,0,0,0.000000,5,0.000000,0.000000,0.425058,0,0,0,0,0,0,0
2,29999,87,20000,5,10000,49,9999,0.100000,0,0,0.000000,5,1.000000,0.000000,17.216176,0,0,0,0,0,0,0
2,29999,88,20000,14,10000,40,9999,0.100000,0,0,0.000000,5,0.000000,0.000000,0.170594,0,0,0,0,0,0,0
2,29999,89,20000,0,0,40,9999,0.100000,0,0,0.000000,4,0.000000,0.000000,0.682352,0,0,0,0,0,0,0
2,29999,90,20000,34,0,40,9999,0.100000,0,0,0.000000,5,0.000000,0.000000,7.434836,0,0,0,0,0,0,0
2,29999,91,20000,5,10000,40,9999,0.100000,0,0,0.000000,5,0.000000,0.000000,1.434279,0,0,0,0,0,0,0
2,29999,92,20000,92,0,49,9999,0.100000,0,0,0.000000,5,6.000000,0.000000,13.273133,0,0,0,0,0,0,0
2,29999,93,20000,34,0,49,9999,0.100000,0,0,0.000000,5,1.000000,0.000000,6.908108,0,0,0,0,0,0,0
2,29999,94,20000,5,10000,49,9999,0.100000,0,0,0.000000,5,1.000000,0.000000,13.186233,0,0,0,0,0,0,0
2,29999,95,20000,0,0,40,9999,0.100000,0,0,0.000000,5,0.000000,0.000000,0.100827,0,0,0,0,0,0,0
2,29999,96,20000,34,0,49,9999,0.100000,0,0,0.000000,5,1.000000,0.000000,6.833681,0,0,0,0,0,0,0
2,29999,97,20000,5,10000,40,9999,0.100000,0,0,0.000000,4,0.000000,0.000000,9.590484,0,0,0,0,0,0,0
2,29999,98,20000,14,10000,49,9999,0.100000,0,0,0.000000,5,1.000000,0.000000,6.535362,0,0,0,0,0,0,0
2,29999,99,20000,4,10000,40,9999,0.100000,0,0,0.000000,5,0.000000,0.000000,0.545718,0,0,0,0,0,0,0
3,39999,0,30000,5,10000,49,9999,0.100000,0,0,0.000000,5,2.000000,0.000000,23.352417,0,0,0,0,0,0,0
3,39999,1,30000,14,10000,40,9999,0.100000,0,0,0.000000,5,0.000000,0.000000,0.163663,0,0,0,0,0,0,0
3,39999,2,30000,14,10000,40,9999,0.100000,0,0,0.000000,5,0.000000,0.000000,0.297315,0,0,0,0,0,0,0
3,39999,3,30000,5,10000,49,9999,0.100000,0,0,0.000000,5,1.000000,0.000000,3.221198,0,0,0,0,0,0,0
3,39999,4,30000,92,0,40,9999,0.100000,0,0,0.000000,5,0.000000,0.000000,0.070308,0,0,0,0,0,0,0
3,39999,5,30000,0,0,40,9999,0.100000,0,0,0.000000,5,0.000000,0.000000,3.060794,0,0,0,0,0,0,0
3,39999,6,30000,92,20000,40,9999,0.100000,0,0,0.000000,5,0.000000,0.000000,1.020343,0,0,0,0,0,0,0
3,39999,7,30000,5,10000,40,9999,0.100000,0,0,0.000000,5,0.000000,0.000000,0.144570,0,0,0,0,0,0,0
3,39999,8,20000,14,10000,49,19999,0.100000,0,0,0.000000,5,2.000000,0.000000,4.089302,0,0,0,0,0,0,0
3,39999,9,30000,0,20000,40,9999,0.100000,0,0,0.000000,5,0.000000,0.000000,0.307493,0,0,0,0,0,0,0
3,39999,10,30000,0,0,49,9999,0.100000,0,0,0.000000,5,3.000000,0.000000,8.695643,0,0,0,0,0,0,0
3,39999,11,30000,92,0,40,9999,0.100000,0,0,0.000000,5,0.000000,0.000000,1.074844,0,0,0,0,0,0,0
3,39999,12,30000,0,0,49,9999,0.100000,0,0,0.000000,5,3.000000,0.000000,12.032492,0,0,0,0,0,0,0
3,39999,13,30000,14,10000,40,9999,0.100000,0,0,0.000000,5,0.000000,0.000000,2.935623,0,0,0,0,0,0,0
3,39999,14,30000,14,10000,40,9999,0.100000,0,0,0.000000,5,0.000000,0.000000,0.680612,0,0,0,0,0,0,0
3,39999,15,30000,92,20000,40,9999,0.100000,0,0,0.000000,5,0.000000,0.000000,0.659946,0,0,0,0,0,0,0
3,39999,16,30000,92,0,49,9999,0.100000,0,0,0.000000,5,1.000000,0.000000,3.613645,0,0,0,0,0,0,0
3,39999,17,30000,5,10000,40,9999,0.100000,0,0,0.000000,5,0.000000,0.000000,2.473443,0,0,0,0,0,0,0
3,39999,18,30000,5,10000,40,9999,0.100000,0,0,0.000000,5,0.000000,0.000000,1.363016,0,0,0,0,0,0,0
3,39999,19,30000,0,0,49,9999,0.100000,0,0,0.000000,5,2.000000,0.000000,4.418339,0,0,0,0,0,0,0
3,39999,20,30000,0,20000,40,9999,0.100000,0,0,0.000000,5,0.000000,0.000000,0.167495,0,0,0,0,0,0,0
3,39999,21,30000,5,10000,40,9999,0.100000,0,0,0.000000,5,0.000000,0.000000,0.933845,0,0,0,0,0,0,0
3,39999,22,30000,14,10000,49,9999,0.100000,0,0,0.000000,5,1.000000,0.000000,3.697283,0,0,0,0,0,0,0
3,39999,23,30000,0,20000,40,9999,0.100000,0,0,0.000000,5,0.000000,0.000000,0.206002,0,0,0,0,0,0,0
3,39999,24,30000,0,0,40,9999,0.100000,0,0,0.000000,5,0.000000,0.000000,1.670060,0,0,0,0,0,0,0
3,39999,25,30000,92,20000,40,9999,0.100000,0,0,0.000000,5,0.000000,0.000000,0.200898,0,0,0,0,0,0,0
3,39999,26,30000,5,10000,40,9999,0.100000,0,0,0.000000,5,0.000000,0.000000,0.326805,0,0,0,0,0,0,0
3,39999,27,20000,0,0,40,19999,0.100000,0,0,0.000000,5,0.000000,0.000000,0.175559,0,0,0,0,0,0,0
3,39999,28,30000,5,10000,49,9999,0.100000,0,0,0.000000,5,4.000000,0.000000,16.651247,0,0,0,0,0,0,0
3,39999,29,30000,14,10000,49,9999,0.100000,0,0,0.000000,5,3.000000,0.000000,12.095459,0,0,0,0,0,0,0
3,39999,30,30000,0,0,40,9999,0.100000,0,0,0.000000,5,0.000000,0.000000,0.237448,0,0,0,0,0,0,0
3,39999,31,30000,92,20000,40,9999,0.100000,0,0,0.000000,5,0.000000,0.000000,0.283574,0,0,0,0,0,0,0
3,39999,32,30000,5,10000,40,9999,0.100000,0,0,0.000000,5,0.000000,0.000000,0.623336,0,0,0,0,0,0,0
3,39999,33,30000,0,0,40,9999,0.100000,0,0,0.000000,5,0.000000,0.000000,5.527314,0,0,0,0,0,0,0
3,39999,34,30000,0,20000,49,9999,0.100000,0,0,0.000000,5,2.000000,0.000000,2.894244,0,0,0,0,0,0,0
3,39999,35,30000,5,10000,40,9999,0.100000,0,0,0.000000,5,0.000000,0.000000,2.491907,0,0,0,0,0,0,0
3,39999,36,30000,0,20000,40,9999,0.100000,0,0,0.000000,5,0.000000,0.000000,1.296844,0,0,0,0,0,0,0
3,39999,37,30000,0,20000,40,9999,0.100000,0,0,0.000000,5,0.000000,0.000000,0.743054,0,0,0,0,0,0,0
3,39999,38,30000,0,20000,40,9999,0.100000,0,0,0.000000,5,0.000000,0.000000,1.015469,0,0,0,0,0,0,0
3,39999,39,30000,14,10000,49,9999,0.100000,0,0,0.000000,5,2.000000,0.000000,3.117773,0,0,0,0,0,0,0
3,39999,40,30000,14,10000,49,9999,0.100000,0,0,0.000000,5,2.000000,0.000000,8.307458,0,0,0,0,0,0,0
3,39999,41,30000,5,10000,40,9999,0.100000,0,0,0.000000,5,0.000000,0.000000,0.128225,0,0,0,0,0,0,0
3,39999,42,30000,92,20000,40,9999,0.100000,0,0,0.000000,5,0.000000,0.000000,20.173284,0,0,0,0,0,0,0
3,39999,43,30000,92,0,49,9999,0.100000,0,0,0.000000,5,1.000000,0.000000,15.958561,0,0,0,0,0,0,0
3,39999,44,30000,0,20000,40,9999,0.100000,0,0,0.000000,5,0.000000,0.000000,0.543678,0,0,0,0,0,0,0
3,39999,45,30000,0,20000,49,9999,0.100000,0,0,0.000000,5,1.000000,0.000000,2.117629,0,0,0,0,0,0,0
3,39999,46,30000,14,10000,49,9999,0.100000,0,0,0.000000,5,1.000000,0.000000,2.584483,0,0,0,0,0,0,0
3,39999,47,30000,14,10000,40,9999,0.100000,0,0,0.000000,5,0.000000,0.000000,0.121298,0,0,0,0,0,0,0
3,39999,48,30000,92,0,40,9999,0.100000,0,0,0.000000,5,0.000000,0.000000,0.130489,0,0,0,0,0,0,0
3,39999,49,30000,14,10000,40,9999,0.100000,0,0,0.000000,5,0.000000,0.000000,1.359769,0,0,0,0,0,0,0
3,39999,50,30000,92,20000,49,9999,0.100000,0,0,0.000000,5,1.000000,0.000000,12.811363,0,0,0,0,0,0,0
3,39999,51,30000,0,20000,40,9999,0.100000,0,0,0.000000,5,0.000000,0.000000,0.350934,0,0,0,0,0,0,0
3,39999,52,30000,0,20000,40,9999,0.100000,0,0,0.000000,5,0.000000,0.000000,0.145307,0,0,0,0,0,0,0
3,39999,53,30000,92,0,40,9999,0.100000,0,0,0.000000,5,0.000000,0.000000,0.637117,0,0,0,0,0,0,0
3,39999,54,30000,0,20000,49,9999,0.100000,0,0,0.000000,5,1.000000,0.000000,17.202896,0,0,0,0,0,0,0
3,39999,55,30000,0,20000,40,9999,0.100000,0,0,0.000000,5,0.000000,0.000000,0.739320,0,0,0,0,0,0,0
3,39999,56,30000,92,20000,49,9999,0.100000,0,0,0.000000,5,1.000000,0.000000,8.612904,0,0,0,0,0,0,0
3,39999,57,30000,0,20000,40,9999,0.100000,0,0,0.000000,5,0.000000,0.000000,0.134378,0,0,0,0,0,0,0
3,39999,58,30000,92,20000,40,9999,0.100000,0,0,0.000000,5,0.000000,0.000000,7.625126,0,0,0,0,0,0,0
3,39999,59,30000,0,0,40,9999,0.100000,0,0,0.000000,5,0.000000,0.000000,0.164153,0,0,0,0,0,0,0
3,39999,60,30000,0,20000,40,9999,0.100000,0,0,0.000000,5,0.000000,0.000000,0.149253,0,0,0,0,0,0,0
3,39999,61,30000,0,20000,40,9999,0.100000,0,0,0.000000,5,0.000000,0.000000,0.226325,0,0,0,0,0,0,0
3,39999,62,30000,5,10000,40,9999,0.100000,0,0,0.000000,5,0.000000,0.000000,0.690454,0,0,0,0,0,0,0
3,39999,63,30000,92,0,40,9999,0.100000,0,0,0.000000,5,0.000000,0.000000,0.754630,0,0,0,0,0,0,0
3,39999,64,30000,92,0,40,9999,0.100000,0,0,0.000000,5,0.000000,0.000000,0.743929,0,0,0,0,0,0,0
3,39999,65,30000,92,20000,40,9999,0.100000,0,0,0.000000,5,0.000000,0.000000,1.831796,0,0,0,0,0,0,0
3,39999,66,30000,92,20000,40,9999,0.100000,0,0,0.000000,5,0.000000,0.000000,0.300135,0,0,0,0,0,0,0
3,39999,67,30000,0,0,40,9999,0.100000,0,0,0.000000,5,0.000000,0.000000,0.183706,0,0,0,0,0,0,0
3,39999,68,30000,92,20000,40,9999,0.100000,0,0,0.000000,5,0.000000,0.000000,0.985491,0,0,0,0,0,0,0
3,39999,69,30000,5,10000,40,9999,0.100000,0,0,0.000000,5,0.000000,0.000000,0.084206,0,0,0,0,0,0,0
3,39999,70,30000,0,20000,40,9999,0.100000,0,0,0.000000,5,0.000000,0.000000,0.123404,0,0,0,0,0,0,0
3,39999,71,30000,0,20000,40,9999,0.100000,0,0,0.000000,5,0.000000,0.000000,0.165200,0,0,0,0,0,0,0
3,39999,72,30000,5,10000,49,9999,0.100000,0,0,0.000000,5,3.000000,0.000000,12.732124,0,0,0,0,0,0,0
3,39999,73,30000,92,20000,40,9999,0.100000,0,0,0.000000,5,0.000000,0.000000,0.153293,0,0,0,0,0,0,0
3,39999,74,30000,0,20000,49,9999,0.100000,0,0,0.000000,5,2.000000,0.000000,9.772252,0,0,0,0,0,0,0
3,39999,75,20000,34,0,49,19999,0.100000,0,0,0.000000,5,1.000000,0.000000,21.689838,0,0,0,0,0,0,0
3,39999,76,30000,0,20000,49,9999,0.100000,0,0,0.000000,5,1.000000,0.000000,6.539768,0,0,0,0,0,0,0
3,39999,77,30000,5,10000,40,9999,0.100000,0,0,0.000000,5,0.000000,0.000000,0.083229,0,0,0,0,0,0,0
3,39999,78,30000,0,0,9,9999,0.100000,0,0,0.000000,5,4.000000,0.000000,13.027710,0,0,0,1,0,0,0
3,39999,79,30000,5,10000,49,9999,0.100000,0,0,0.000000,5,2.000000,0.000000,2.723313,0,0,0,0,0,0,0
3,39999,80,30000,5,10000,40,9999,0.100000,0,0,0.000000,5,0.000000,0.000000,2.148134,0,0,0,0,0,0,0
3,39999,81,30000,5,10000,40,9999,0.100000,0,0,0.000000,5,0.000000,0.000000,0.228303,0,0,0,0,0,0,0
3,39999,82,30000,0,0,49,9999,0.100000,0,0,0.000000,5,6.000000,0.000000,14.024775,0,0,0,0,0,0,0
3,39999,83,30000,92,0,49,9999,0.100000,0,0,0.000000,5,3.000000,0.000000,15.571689,0,0,0,0,0,0,0
3,39999,84,30000,0,20000,49,9999,0.100000,0,0,0.000000,5,1.000000,0.000000,2.177632,0,0,0,0,0,0,0
3,39999,85,30000,0,0,40,9999,0.100000,0,0,0.000000,5,0.000000,0.000000,9.768517,0,0,0,0,0,0,0
3,39999,86,30000,92,0,40,9999,0.065000,0,0,0.000000,5,0.000000,0.000000,0.687932,0,0,0,0,0,0,0
3,39999,87,30000,92,0,40,9999,0.100000,0,0,0.000000,5,0.000000,0.000000,7.531001,0,0,0,0,0,0,0
3,39999,88,30000,92,20000,40,9999,0.100000,0,0,0.000000,5,0.000000,0.000000,0.676632,0,0,0,0,0,0,0
3,39999,89,30000,5,10000,40,9999,0.100000,0,0,0.000000,5,0.000000,0.000000,0.267850,0,0,0,0,0,0,0
3,39999,90,30000,0,20000,49,9999,0.100000,0,0,0.000000,5,3.000000,0.000000,15.694932,0,0,0,0,0,0,0
3,39999,91,30000,92,20000,40,9999,0.100000,0,0,0.000000,5,0.000000,0.000000,1.558998,0,0,0,0,0,0,0
3,39999,92,30000,0,0,40,9999,0.100000,0,0,0.000000,5,0.000000,0.000000,0.126863,0,0,0,0,0,0,0
3,39999,93,30000,0,20000,49,9999,0.100000,0,0,0.000000,5,3.000000,0.000000,13.027093,0,0,0,0,0,0,0
3,39999,94,30000,14,10000,9,9999,0.100000,0,0,27.891503,5,1.000000,0.000000,6.564616,0,0,0,3,0,0,0
3,39999,95,30000,5,10000,40,9999,0.100000,0,0,0.000000,5,0.000000,0.000000,0.361395,0,0,0,0,0,0,0
3,39999,96,30000,92,20000,99,9999,0.100000,0,0,34.210526,5,3.000000,0.000000,21.777274,0,0,1,0,0,0,0
3,39999,97,30000,92,20000,40,9999,0.100000,0,0,0.000000,5,0.000000,0.000000,0.487694,0,0,0,0,0,0,0
3,39999,98,30000,0,0,9,9999,0.100000,0,0,0.000000,5,1.000000,0.000000,8.406177,0,0,0,2,0,0,0
3,39999,99,30000,0,20000,40,9999,0.100000,0,0,0.000000,5,0.000000,0.000000,0.452320,0,0,0,0,0,0,0
4,49999,0,40000,14,10000,49,9999,0.100000,0,0,0.000000,5,2.000000,0.000000,15.635333,0,0,0,0,0,0,0
4,49999,1,40000,92,20000,40,9999,0.100000,0,0,0.000000,5,0.000000,0.000000,0.161918,0,0,0,0,0,0,0
4,49999,2,40000,5,10000,40,9999,0.100000,0,0,0.000000,5,0.000000,0.000000,0.911052,0,0,0,0,0,0,0
4,49999,3,40000,0,0,40,9999,0.100000,0,0,0.000000,5,0.000000,0.000000,0.495198,0,0,0,0,0,0,0
4,49999,4,40000,14,10000,40,9999,0.100000,0,0,0.000000,5,0.000000,0.000000,0.104102,0,0,0,0,0,0,0
4,49999,5,40000,92,20000,40,9999,0.100000,0,0,0.000000,5,0.000000,0.000000,2.636374,0,0,0,0,0,0,0
4,49999,6,40000,14,10000,49,9999,0.100000,0,0,0.000000,5,1.000000,0.000000,7.868030,0,0,0,0,0,0,0
4,49999,7,40000,0,20000,40,9999,0.100000,0,0,0.000000,5,0.000000,0.000000,0.142189,0,0,0,0,0,0,0
4,49999,8,40000,0,0,40,9999,0.100000,0,0,0.000000,5,0.000000,0.000000,1.477004,0,0,0,0,0,0,0
4,49999,9,40000,5,10000,40,9999,0.100000,0,0,0.000000,5,0.000000,0.000000,0.624949,0,0,0,0,0,0,0
4,49999,10,40000,0,20000,40,9999,0.100000,0,0,0.000000,5,0.000000,0.000000,0.787580,0,0,0,0,0,0,0
4,49999,11,40000,92,20000,40,9999,0.100000,0,0,0.000000,5,0.000000,0.000000,0.086873,0,0,0,0,0,0,0
4,49999,12,40000,92,20000,49,9999,0.100000,0,0,0.000000,5,1.000000,0.000000,12.229475,0,0,0,0,0,0,0
4,49999,13,40000,14,10000,49,9999,0.100000,0,0,0.000000,5,1.000000,0.000000,1.536273,0,0,0,0,0,0,0
4,49999,14,40000,0,0,49,9999,0.100000,0,0,0.000000,5,1.000000,0.000000,1.510641,0,0,0,0,0,0,0
4,49999,15,40000,14,10000,40,9999,0.100000,0,0,0.000000,5,0.000000,0.000000,0.827042,0,0,0,0,0,0,0
4,49999,16,40000,92,20000,40,9999,0.100000,0,0,0.000000,5,0.000000,0.000000,0.508066,0,0,0,0,0,0,0
4,49999,17,40000,0,20000,40,9999,0.100000,0,0,0.000000,5,0.000000,0.000000,1.891938,0,0,0,0,0,0,0
4,49999,18,40000,0,0,40,9999,0.100000,0,0,0.000000,5,0.000000,0.000000,2.264333,0,0,0,0,0,0,0
4,49999,19,40000,0,20000,49,9999,0.100000,0,0,0.000000,5,1.000000,0.000000,13.129972,0,0,0,0,0,0,0
4,49999,20,40000,0,0,40,9999,0.100000,0,0,0.000000,5,0.000000,0.000000,0.145915,0,0,0,0,0,0,0
4,49999,21,40000,92,20000,40,9999,0.100000,0,0,0.000000,5,0.000000,0.000000,0.846272,0,0,0,0,0,0,0
4,49999,22,40000,5,10000,49,9999,0.100000,0,0,0.000000,5,1.000000,0.000000,3.905299,0,0,0,0,0,0,0
4,49999,23,40000,0,0,40,9999,0.100000,0,0,0.000000,5,0.000000,0.000000,0.110302,0,0,0,0,0,0,0
4,49999,24,40000,14,10000,40,9999,0.100000,0,0,0.000000,5,0.000000,0.000000,2.950586,0,0,0,0,0,0,0
4,49999,25,40000,14,10000,40,9999,0.100000,0,0,0.000000,5,0.000000,0.000000,0.667384,0,0,0,0,0,0,0
4,49999,26,40000,5,10000,40,9999,0.100000,0,0,0.000000,5,0.000000,0.000000,0.212108,0,0,0,0,0,0,0
4,49999,27,40000,14,10000,40,9999,0.100000,0,0,0.000000,5,0.000000,0.000000,0.145794,0,0,0,0,0,0,0
4,49999,28,40000,5,10000,40,9999,0.100000,0,0,0.000000,5,0.000000,0.000000,6.963336,0,0,0,0,0,0,0
4,49999,29,40000,14,10000,49,9999,0.100000,0,0,0.000000,5,1.000000,0.000000,5.418067,0,0,0,0,0,0,0
4,49999,30,40000,14,10000,40,9999,0.100000,0,0,0.000000,5,0.000000,0.000000,0.242938,0,0,0,0,0,0,0
4,49999,31,40000,0,20000,40,9999,0.100000,0,0,0.000000,5,0.000000,0.000000,0.285202,0,0,0,0,0,0,0
4,49999,32,40000,14,10000,40,9999,0.100000,0,0,0.000000,5,0.000000,0.000000,0.470385,0,0,0,0,0,0,0
4,49999,33,40000,0,20000,40,9999,0.100000,0,0,0.000000,5,0.000000,0.000000,0.730375,0,0,0,0,0,0,0
4,49999,34,40000,92,20000,40,9999,0.100000,0,0,0.000000,5,0.000000,0.000000,0.898975,0,0,0,0,0,0,0
4,49999,35,40000,0,0,40,9999,0.100000,0,0,0.000000,5,0.000000,0.000000,1.614484,0,0,0,0,0,0,0
4,49999,36,40000,14,10000,40,9999,0.100000,0,0,0.000000,5,0.000000,0.000000,1.274865,0,0,0,0,0,0,0
4,49999,37,40000,14,10000,40,9999,0.100000,0,0,0.000000,5,0.000000,0.000000,0.969004,0,0,0,0,0,0,0
4,49999,38,40000,0,0,40,9999,0.100000,0,0,0.000000,5,0.000000,0.000000,0.949969,0,0,0,0,0,0,0
4,49999,39,40000,14,10000,40,9999,0.100000,0,0,0.000000,5,0.000000,0.000000,0.864529,0,0,0,0,0,0,0
4,49999,40,40000,14,10000,49,9999,0.100000,0,0,0.000000,5,1.000000,0.000000,7.664487,0,0,0,0,0,0,0
4,49999,41,40000,0,20000,40,9999,0.100000,0,0,0.000000,5,0.000000,0.000000,0.097390,0,0,0,0,0,0,0
4,49999,42,40000,0,20000,40,9999,0.100000,0,0,0.000000,5,0.000000,0.000000,20.543612,0,0,0,0,0,0,0
4,49999,43,40000,5,10000,40,9999,0.100000,0,0,0.000000,5,0.000000,0.000000,19.255573,0,0,0,0,0,0,0
4,49999,44,40000,0,20000,40,9999,0.100000,0,0,0.000000,5,0.000000,0.000000,0.987052,0,0,0,0,0,0,0
4,49999,45,30000,0,20000,49,19999,0.100000,0,0,0.000000,5,3.000000,0.000000,4.104559,0,0,0,0,0,0,0
4,49999,46,40000,0,20000,40,9999,0.100000,0,0,0.000000,5,0.000000,0.000000,0.199646,0,0,0,0,0,0,0
4,49999,47,40000,92,20000,40,9999,0.100000,0,0,0.000000,5,0.000000,0.000000,0.119279,0,0,0,0,0,0,0
4,49999,48,40000,14,10000,40,9999,0.100000,0,0,0.000000,5,0.000000,0.000000,0.135040,0,0,0,0,0,0,0
4,49999,49,40000,5,10000,40,9999,0.100000,0,0,0.000000,5,0.000000,0.000000,1.192265,0,0,0,0,0,0,0
4,49999,50,40000,0,0,49,9999,0.100000,0,0,0.000000,5,3.000000,0.000000,13.167854,0,0,0,0,0,0,0
4,49999,51,40000,0,0,49,9999,0.135000,0,0,0.000000,5,1.000000,0.000000,1.402637,0,0,0,0,0,0,0
4,49999,52,40000,92,20000,40,9999,0.100000,0,0,0.000000,5,0.000000,0.000000,0.145958,0,0,0,0,0,0,0
4,49999,53,40000,14,10000,49,9999,0.100000,0,0,0.000000,5,1.000000,0.000000,6.172561,0,0,0,0,0,0,0
4,49999,54,40000,0,0,49,9999,0.100000,0,0,0.000000,5,2.000000,0.000000,5.769424,0,0,0,0,0,0,0
4,49999,55,40000,14,10000,40,9999,0.100000,0,0,0.000000,5,0.000000,0.000000,0.702800,0,0,0,0,0,0,0
4,49999,56,40000,0,0,40,9999,0.100000,0,0,0.000000,5,0.000000,0.000000,0.613499,0,0,0,0,0,0,0
4,49999,57,40000,0,20000,40,9999,0.100000,0,0,0.000000,5,0.000000,0.000000,0.134974,0,0,0,0,0,0,0
4,49999,58,40000,14,10000,40,9999,0.100000,0,0,0.000000,5,0.000000,0.000000,0.137317,0,0,0,0,0,0,0
4,49999,59,40000,5,10000,40,9999,0.100000,0,0,0.000000,5,0.000000,0.000000,0.173598,0,0,0,0,0,0,0
4,49999,60,40000,14,10000,40,9999,0.100000,0,0,0.000000,5,0.000000,0.000000,0.144863,0,0,0,0,0,0,0
4,49999,61,40000,5,10000,40,9999,0.100000,0,0,0.000000,5,0.000000,0.000000,0.384340,0,0,0,0,0,0,0
4,49999,62,40000,5,10000,40,9999,0.100000,0,0,0.000000,5,0.000000,0.000000,0.805620,0,0,0,0,0,0,0
4,49999,63,40000,0,20000,40,9999,0.100000,0,0,0.000000,5,0.000000,0.000000,0.724228,0,0,0,0,0,0,0
4,49999,64,40000,5,10000,40,9999,0.100000,0,0,0.000000,5,0.000000,0.000000,0.933727,0,0,0,0,0,0,0
4,49999,65,40000,92,20000,49,9999,0.100000,0,0,0.000000,5,1.000000,0.000000,1.582400,0,0,0,0,0,0,0
4,49999,66,40000,0,20000,40,9999,0.100000,0,0,0.000000,5,0.000000,0.000000,0.445195,0,0,0,0,0,0,0
4,49999,67,40000,92,20000,40,9999,0.100000,0,0,0.000000,5,0.000000,0.000000,0.220193,0,0,0,0,0,0,0
4,49999,68,40000,0,20000,40,9999,0.100000,0,0,0.000000,5,0.000000,0.000000,1.010116,0,0,0,0,0,0,0
4,49999,69,40000,5,10000,40,9999,0.100000,0,0,0.000000,5,0.000000,0.000000,0.074366,0,0,0,0,0,0,0
4,49999,70,40000,0,20000,40,9999,0.100000,0,0,0.000000,5,0.000000,0.000000,0.125191,0,0,0,0,0,0,0
4,49999,71,40000,14,10000,40,9999,0.100000,0,0,0.000000,5,0.000000,0.000000,0.085300,0,0,0,0,0,0,0
4,49999,72,40000,0,20000,49,9999,0.100000,0,0,0.000000,5,1.000000,0.000000,10.666081,0,0,0,0,0,0,0
4,49999,73,40000,0,20000,40,9999,0.100000,0,0,0.000000,5,0.000000,0.000000,0.154772,0,0,0,0,0,0,0
4,49999,74,40000,0,20000,49,9999,0.100000,0,0,0.000000,5,4.000000,0.000000,7.517439,0,0,0,0,0,0,0
4,49999,75,40000,0,20000,49,9999,0.100000,0,0,0.000000,5,6.000000,0.000000,23.686900,0,0,0,0,0,0,0
4,49999,76,40000,0,20000,40,9999,0.100000,0,0,0.000000,5,0.000000,0.000000,0.640051,0,0,0,0,0,0,0
4,49999,77,40000,14,10000,40,9999,0.100000,0,0,0.000000,5,0.000000,0.000000,0.084419,0,0,0,0,0,0,0
4,49999,78,40000,92,20000,49,9999,0.100000,0,0,0.000000,5,2.000000,0.000000,4.569266,0,0,0,0,0,0,0
4,49999,79,40000,92,20000,40,9999,0.100000,0,0,0.000000,5,0.000000,0.000000,1.019848,0,0,0,0,0,0,0
4,49999,80,40000,14,10000,40,9999,0.135000,0,0,0.000000,5,0.000000,0.000000,1.020716,0,0,0,0,0,0,0
4,49999,81,40000,5,10000,40,9999,0.100000,0,0,0.000000,5,0.000000,0.000000,0.341828,0,0,0,0,0,0,0
4,49999,82,40000,0,20000,40,9999,0.100000,0,0,0.000000,5,0.000000,0.000000,1.119444,0,0,0,0,0,0,0
4,49999,83,40000,0,0,49,9999,0.100000,0,0,0.000000,5,3.000000,0.000000,10.951578,0,0,0,0,0,0,0
4,49999,84,40000,5,10000,49,9999,0.100000,0,0,0.000000,5,3.000000,0.000000,4.128184,0,0,0,0,0,0,0
4,49999,85,40000,0,20000,40,9999,0.100000,0,0,0.000000,5,0.000000,0.000000,0.925139,0,0,0,0,0,0,0
4,49999,86,40000,5,10000,40,9999,0.100000,0,0,0.000000,5,0.000000,0.000000,0.111505,0,0,0,0,0,0,0
4,49999,87,40000,92,20000,49,9999,0.100000,0,0,0.000000,5,1.000000,0.000000,7.212552,0,0,0,0,0,0,0
4,49999,88,40000,0,0,40,9999,0.100000,0,0,0.000000,5,0.000000,0.000000,0.735321,0,0,0,0,0,0,0
4,49999,89,40000,14,10000,40,9999,0.100000,0,0,0.000000,5,0.000000,0.000000,0.297231,0,0,0,0,0,0,0
4,49999,90,40000,5,10000,49,9999,0.100000,0,0,0.000000,5,3.000000,0.000000,4.691031,0,0,0,0,0,0,0
4,49999,91,40000,5,10000,40,9999,0.100000,0,0,0.000000,5,0.000000,0.000000,1.633547,0,0,0,0,0,0,0
4,49999,92,40000,0,0,40,9999,0.100000,0,0,0.000000,5,0.000000,0.000000,0.128274,0,0,0,0,0,0,0
4,49999,93,40000,14,10000,49,9999,0.100000,0,0,0.000000,5,3.000000,0.000000,13.392463,0,0,0,0,0,0,0
4,49999,94,40000,92,20000,40,9999,0.100000,0,0,0.000000,5,0.000000,0.000000,13.321740,0,0,0,0,0,0,0
4,49999,95,40000,5,10000,40,9999,0.100000,0,0,0.000000,5,0.000000,0.000000,0.549560,0,0,0,0,0,0,0
4,49999,96,40000,92,20000,49,9999,0.100000,0,0,0.000000,5,1.000000,0.000000,22.992546,0,0,0,0,0,0,0
4,49999,97,40000,0,0,40,9999,0.100000,0,0,0.000000,5,0.000000,0.000000,0.367867,0,0,0,0,0,0,0
4,49999,98,40000,14,10000,49,9999,0.100000,0,0,0.000000,5,1.000000,0.000000,5.794721,0,0,0,0,0,0,0
4,49999,99,40000,92,20000,40,9999,0.100000,0,0,0.000000,5,0.000000,0.000000,0.815239,0,0,0,0,0,0,0
5,59999,0,50000,0,20000,49,9999,0.100000,0,0,0.000000,5,3.000000,0.000000,21.410490,0,0,0,0,0,0,0
5,59999,1,50000,0,20000,40,9999,0.100000,0,0,0.000000,5,0.000000,0.000000,0.195978,0,0,0,0,0,0,0
5,59999,2,50000,14,10000,40,9999,0.100000,0,0,0.000000,5,0.000000,0.000000,0.746376,0,0,0,0,0,0,0
5,59999,3,50000,0,0,49,9999,0.100000,0,0,0.000000,5,2.000000,0.000000,21.362393,0,0,0,0,0,0,0
5,59999,4,50000,0,0,40,9999,0.100000,0,0,0.000000,5,0.000000,0.000000,0.091521,0,0,0,0,0,0,0
5,59999,5,50000,0,0,9,9999,0.100000,0,0,0.000000,5,3.000000,0.000000,4.843519,0,0,0,0,1,0,0
5,59999,6,50000,0,0,49,9999,0.100000,0,0,0.000000,5,1.000000,0.000000,1.447839,0,0,0,0,0,0,0
5,59999,7,50000,0,20000,40,9999,0.100000,0,0,0.000000,5,0.000000,0.000000,0.142317,0,0,0,0,0,0,0
5,59999,8,50000,5,10000,40,9999,0.100000,0,0,0.000000,5,0.000000,0.000000,1.295927,0,0,0,0,0,0,0
5,59999,9,50000,0,0,40,9999,0.135000,0,0,0.000000,5,0.000000,0.000000,0.643494,0,0,0,0,0,0,0
5,59999,10,50000,0,20000,40,9999,0.100000,0,0,0.000000,5,0.000000,0.000000,0.184158,0,0,0,0,0,0,0
5,59999,11,50000,92,20000,40,9999,0.100000,0,0,0.000000,5,0.000000,0.000000,0.084709,0,0,0,0,0,0,0
5,59999,12,50000,0,20000,40,9999,0.100000,0,0,0.000000,5,0.000000,0.000000,0.837170,0,0,0,0,0,0,0
5,59999,13,50000,0,20000,49,9999,0.100000,0,0,0.000000,5,1.000000,0.000000,2.612838,0,0,0,0,0,0,0
5,59999,14,50000,0,20000,49,9999,0.100000,0,0,0.000000,5,1.000000,0.000000,2.021344,0,0,0,0,0,0,0
5,59999,15,50000,14,10000,40,9999,0.100000,0,0,0.000000,5,0.000000,0.000000,0.834340,0,0,0,0,0,0,0
5,59999,16,50000,92,20000,40,9999,0.100000,0,0,0.000000,5,0.000000,0.000000,1.815340,0,0,0,0,0,0,0
5,59999,17,50000,0,0,40,9999,0.100000,0,0,0.000000,5,0.000000,0.000000,0.331622,0,0,0,0,0,0,0
5,59999,18,50000,92,20000,40,9999,0.100000,0,0,0.000000,5,0.000000,0.000000,2.290378,0,0,0,0,0,0,0
5,59999,19,50000,0,20000,49,9999,0.100000,0,0,0.000000,5,4.000000,0.000000,14.946759,0,0,0,0,0,0,0
5,59999,20,50000,92,20000,40,9999,0.100000,0,0,0.000000,5,0.000000,0.000000,0.143508,0,0,0,0,0,0,0
5,59999,21,50000,0,20000,40,9999,0.100000,0,0,0.000000,5,0.000000,0.000000,0.949260,0,0,0,0,0,0,0
5,59999,22,50000,14,10000,40,9999,0.100000,0,0,0.000000,5,0.000000,0.000000,3.931559,0,0,0,0,0,0,0
5,59999,23,50000,0,20000,40,9999,0.100000,0,0,0.000000,5,0.000000,0.000000,0.152148,0,0,0,0,0,0,0
5,59999,24,50000,0,20000,40,9999,0.100000,0,0,0.000000,5,0.000000,0.000000,1.031809,0,0,0,0,0,0,0
5,59999,25,50000,0,0,40,9999,0.100000,0,0,0.000000,5,0.000000,0.000000,0.236621,0,0,0,0,0,0,0
5,59999,26,50000,14,10000,40,9999,0.100000,0,0,0.000000,5,0.000000,0.000000,0.176655,0,0,0,0,0,0,0
5,59999,27,50000,0,20000,40,9999,0.100000,0,0,0.000000,5,0.000000,0.000000,0.178224,0,0,0,0,0,0,0
5,59999,28,50000,0,20000,40,9999,0.100000,0,0,0.000000,5,0.000000,0.000000,7.779703,0,0,0,0,0,0,0
5,59999,29,50000,0,0,49,9999,0.100000,0,0,0.000000,5,3.000000,0.000000,6.396774,0,0,0,0,0,0,0
5,59999,30,50000,5,10000,40,9999,0.100000,0,0,0.000000,5,0.000000,0.000000,0.242374,0,0,0,0,0,0,0
5,59999,31,50000,92,20000,40,9999,0.100000,0,0,0.000000,5,0.000000,0.000000,0.307154,0,0,0,0,0,0,0
5,59999,32,50000,92,20000,49,9999,0.100000,0,0,0.000000,5,4.000000,0.000000,4.998288,0,0,0,0,0,0,0
5,59999,33,50000,5,10000,40,9999,0.100000,0,0,0.000000,5,0.000000,0.000000,1.065212,0,0,0,0,0,0,0
5,59999,34,50000,0,0,40,9999,0.100000,0,0,0.000000,5,0.000000,0.000000,0.446929,0,0,0,0,0,0,0
5,59999,35,50000,14,10000,40,9999,0.100000,0,0,0.000000,5,0.000000,0.000000,1.213667,0,0,0,0,0,0,0
5,59999,36,50000,0,20000,40,9999,0.100000,0,0,0.000000,5,0.000000,0.000000,3.822074,0,0,0,0,0,0,0
5,59999,37,50000,5,10000,49,9999,0.100000,0,0,0.000000,5,1.000000,0.000000,1.338259,0,0,0,0,0,0,0
5,59999,38,50000,0,0,40,9999,0.100000,0,0,0.000000,5,0.000000,0.000000,0.924267,0,0,0,0,0,0,0
5,59999,39,50000,0,0,40,9999,0.100000,0,0,0.000000,5,0.000000,0.000000,0.617331,0,0,0,0,0,0,0
5,59999,40,50000,5,10000,49,9999,0.100000,0,0,0.000000,5,1.000000,0.000000,10.536206,0,0,0,0,0,0,0
5,59999,41,50000,0,0,40,9999,0.100000,0,0,0.000000,5,0.000000,0.000000,0.096994,0,0,0,0,0,0,0
5,59999,42,50000,0,20000,40,9999,0.100000,0,0,0.000000,5,0.000000,0.000000,20.587371,0,0,0,0,0,0,0
5,59999,43,50000,14,10000,40,9999,0.100000,0,0,0.000000,5,0.000000,0.000000,20.917630,0,0,0,0,0,0,0
5,59999,44,50000,14,10000,40,9999,0.100000,0,0,0.000000,5,0.000000,0.000000,0.769018,0,0,0,0,0,0,0
5,59999,45,50000,92,20000,9,9999,0.100000,0,0,0.000000,5,3.000000,0.000000,19.216946,0,0,0,1,0,0,0
5,59999,46,50000,0,20000,40,9999,0.100000,0,0,0.000000,5,0.000000,0.000000,0.208167,0,0,0,0,0,0,0
5,59999,47,50000,0,0,40,9999,0.100000,0,0,0.000000,5,0.000000,0.000000,0.160836,0,0,0,0,0,0,0
5,59999,48,50000,14,10000,40,9999,0.100000,0,0,0.000000,5,0.000000,0.000000,0.123840,0,0,0,0,0,0,0
5,59999,49,50000,5,10000,40,9999,0.100000,0,0,0.000000,5,0.000000,0.000000,1.967095,0,0,0,0,0,0,0
5,59999,50,50000,0,20000,40,9999,0.100000,0,0,0.000000,5,0.000000,0.000000,5.305343,0,0,0,0,0,0,0
5,59999,51,50000,5,10000,40,9999,0.100000,0,0,0.000000,5,0.000000,0.000000,0.964007,0,0,0,0,0,0,0
5,59999,52,50000,0,20000,40,9999,0.100000,0,0,0.000000,5,0.000000,0.000000,0.190432,0,0,0,0,0,0,0
5,59999,53,50000,14,10000,49,9999,0.100000,0,0,0.000000,5,1.000000,0.000000,18.422986,0,0,0,0,0,0,0
5,59999,54,50000,92,20000,40,9999,0.100000,0,0,0.000000,5,0.000000,0.000000,1.033302,0,0,0,0,0,0,0
5,59999,55,50000,5,10000,49,9999,0.100000,0,0,0.000000,5,4.000000,0.000000,5.222119,0,0,0,0,0,0,0
5,59999,56,50000,92,20000,49,9999,0.100000,0,0,0.000000,5,7.000000,0.000000,14.995594,0,0,0,0,0,0,0
5,59999,57,50000,0,20000,40,9999,0.100000,0,0,0.000000,5,0.000000,0.000000,0.138236,0,0,0,0,0,0,0
5,59999,58,50000,14,10000,40,9999,0.100000,0,0,0.000000,5,0.000000,0.000000,0.128798,0,0,0,0,0,0,0
5,59999,59,50000,5,10000,40,9999,0.100000,0,0,0.000000,5,0.000000,0.000000,0.287596,0,0,0,0,0,0,0
5,59999,60,50000,92,20000,40,9999,0.100000,0,0,0.000000,5,0.000000,0.000000,0.144978,0,0,0,0,0,0,0
5,59999,61,50000,0,0,40,9999,0.100000,0,0,0.000000,5,0.000000,0.000000,0.273357,0,0,0,0,0,0,0
5,59999,62,50000,0,0,40,9999,0.100000,0,0,0.000000,5,0.000000,0.000000,0.774361,0,0,0,0,0,0,0
5,59999,63,50000,14,10000,49,9999,0.100000,0,0,0.000000,5,5.000000,0.000000,5.744914,0,0,0,0,0,0,0
5,59999,64,50000,0,20000,40,9999,0.100000,0,0,0.000000,5,0.000000,0.000000,2.385231,0,0,0,0,0,0,0
5,59999,65,50000,92,20000,49,9999,0.100000,0,0,0.000000,5,1.000000,0.000000,2.000582,0,0,0,0,0,0,0
5,59999,66,50000,14,10000,40,9999,0.100000,0,0,0.000000,5,0.000000,0.000000,0.368338,0,0,0,0,0,0,0
5,59999,67,50000,0,0,40,9999,0.100000,0,0,0.000000,5,0.000000,0.000000,0.162261,0,0,0,0,0,0,0
5,59999,68,50000,92,20000,40,9999,0.100000,0,0,0.000000,5,0.000000,0.000000,0.665592,0,0,0,0,0,0,0
5,59999,69,50000,5,10000,40,9999,0.100000,0,0,0.000000,5,0.000000,0.000000,0.323692,0,0,0,0,0,0,0
5,59999,70,50000,5,10000,40,9999,0.100000,0,0,0.000000,5,0.000000,0.000000,0.124463,0,0,0,0,0,0,0
5,59999,71,50000,0,0,40,9999,0.100000,0,0,0.000000,5,0.000000,0.000000,0.083342,0,0,0,0,0,0,0
5,59999,72,50000,92,20000,49,9999,0.100000,0,0,0.000000,5,1.000000,0.000000,10.508289,0,0,0,0,0,0,0
5,59999,73,50000,5,10000,40,9999,0.100000,0,0,0.000000,5,0.000000,0.000000,0.152882,0,0,0,0,0,0,0
5,59999,74,50000,14,10000,40,9999,0.100000,0,0,0.000000,5,0.000000,0.000000,0.727113,0,0,0,0,0,0,0
5,59999,75,50000,92,20000,49,9999,0.100000,0,0,0.000000,5,2.000000,0.000000,4.509604,0,0,0,0,0,0,0
5,59999,76,50000,5,10000,40,9999,0.100000,0,0,0.000000,5,0.000000,0.000000,3.625901,0,0,0,0,0,0,0
5,59999,77,50000,92,20000,40,9999,0.100000,0,0,0.000000,5,0.000000,0.000000,0.077148,0,0,0,0,0,0,0
5,59999,78,50000,0,20000,40,9999,0.100000,0,0,0.000000,5,0.000000,0.000000,3.218369,0,0,0,0,0,0,0
5,59999,79,50000,14,10000,40,9999,0.100000,0,0,0.000000,5,0.000000,0.000000,0.426122,0,0,0,0,0,0,0
5,59999,80,50000,5,10000,40,9999,0.100000,0,0,0.000000,5,0.000000,0.000000,0.546791,0,0,0,0,0,0,0
5,59999,81,50000,14,10000,49,9999,0.100000,0,0,0.000000,5,6.000000,0.000000,13.434268,0,0,0,0,0,0,0
5,59999,82,50000,14,10000,40,9999,0.100000,0,0,0.000000,5,0.000000,0.000000,1.043315,0,0,0,0,0,0,0
5,59999,83,50000,5,10000,49,9999,0.100000,0,0,0.000000,5,1.000000,0.000000,8.807089,0,0,0,0,0,0,0
5,59999,84,50000,92,20000,49,9999,0.100000,0,0,0.000000,5,2.000000,0.000000,14.460846,0,0,0,0,0,0,0
5,59999,85,50000,14,10000,40,9999,0.100000,0,0,0.000000,5,0.000000,0.000000,1.234879,0,0,0,0,0,0,0
5,59999,86,50000,14,10000,40,9999,0.100000,0,0,0.000000,5,0.000000,0.000000,0.102246,0,0,0,0,0,0,0
5,59999,87,50000,0,20000,49,9999,0.100000,0,0,0.000000,5,1.000000,0.000000,7.958215,0,0,0,0,0,0,0
5,59999,88,50000,5,10000,40,9999,0.100000,0,0,0.000000,5,0.000000,0.000000,0.670756,0,0,0,0,0,0,0
5,59999,89,50000,92,20000,40,9999,0.100000,0,0,0.000000,5,0.000000,0.000000,0.240666,0,0,0,0,0,0,0
5,59999,90,50000,5,10000,40,9999,0.100000,0,0,0.000000,5,0.000000,0.000000,0.279088,0,0,0,0,0,0,0
5,59999,91,50000,5,10000,40,9999,0.100000,0,0,0.000000,5,0.000000,0.000000,1.575662,0,0,0,0,0,0,0
5,59999,92,50000,0,0,40,9999,0.100000,0,0,0.000000,5,0.000000,0.000000,0.128466,0,0,0,0,0,0,0
5,59999,93,50000,14,10000,40,9999,0.100000,0,0,0.000000,5,0.000000,0.000000,3.482138,0,0,0,0,0,0,0
5,59999,94,50000,14,10000,49,9999,0.100000,0,0,0.000000,5,1.000000,0.000000,4.094986,0,0,0,0,0,0,0
5,59999,95,50000,0,20000,40,9999,0.100000,0,0,0.000000,5,0.000000,0.000000,0.621290,0,0,0,0,0,0,0
5,59999,96,50000,92,20000,49,9999,0.100000,0,0,0.000000,5,1.000000,0.000000,15.360947,0,0,0,0,0,0,0
5,59999,97,50000,92,20000,49,9999,0.100000,0,0,0.000000,5,5.000000,0.000000,5.432775,0,0,0,0,0,0,0
5,59999,98,50000,0,0,49,9999,0.100000,0,0,0.000000,5,2.000000,0.000000,6.701504,0,0,0,0,0,0,0
5,59999,99,50000,5,10000,40,9999,0.100000,0,0,0.000000,5,0.000000,0.000000,1.324020,0,0,0,0,0,0,0
6,69999,0,60000,0,20000,49,9999,0.100000,0,0,0.000000,5,1.000000,0.000000,15.268657,0,0,0,0,0,0,0
6,69999,1,60000,14,10000,40,9999,0.100000,0,0,0.000000,5,0.000000,0.000000,0.283761,0,0,0,0,0,0,0
6,69999,2,60000,0,0,0,9999,0.100000,0,0,0.000000,5,0.000000,0.000000,1.537465,0,0,0,0,1,0,0
6,69999,3,60000,5,10000,49,9999,0.100000,0,0,0.000000,5,1.000000,0.000000,12.617673,0,0,0,0,0,0,0
6,69999,4,60000,0,20000,40,9999,0.100000,0,0,0.000000,5,0.000000,0.000000,0.098457,0,0,0,0,0,0,0
6,69999,5,60000,5,10000,49,9999,0.100000,0,0,0.000000,5,2.000000,0.000000,2.446941,0,0,0,0,0,0,0
6,69999,6,60000,0,20000,49,9999,0.100000,0,0,0.000000,5,1.000000,0.000000,1.818720,0,0,0,0,0,0,0
6,69999,7,60000,0,0,40,9999,0.100000,0,0,0.000000,5,0.000000,0.000000,0.157196,0,0,0,0,0,0,0
6,69999,8,60000,14,10000,49,9999,0.100000,0,0,0.000000,5,1.000000,0.000000,1.752721,0,0,0,0,0,0,0
6,69999,9,60000,0,20000,40,9999,0.100000,0,0,0.000000,5,0.000000,0.000000,0.335831,0,0,0,0,0,0,0
6,69999,10,60000,92,20000,40,9999,0.100000,0,0,0.000000,5,0.000000,0.000000,0.181518,0,0,0,0,0,0,0
6,69999,11,60000,5,10000,40,9999,0.100000,0,0,0.000000,5,0.000000,0.000000,0.082685,0,0,0,0,0,0,0
6,69999,12,50000,0,20000,49,19999,0.100000,0,0,0.000000,5,1.000000,0.000000,1.738228,0,0,0,0,0,0,0
6,69999,13,60000,0,20000,40,9999,0.100000,0,0,0.000000,5,0.000000,0.000000,0.112445,0,0,0,0,0,0,0
6,69999,14,60000,92,20000,40,9999,0.100000,0,0,0.000000,5,0.000000,0.000000,0.127785,0,0,0,0,0,0,0
6,69999,15,60000,0,0,40,9999,0.100000,0,0,0.000000,5,0.000000,0.000000,0.788980,0,0,0,0,0,0,0
6,69999,16,60000,5,10000,40,9999,0.100000,0,0,0.000000,5,0.000000,0.000000,2.157047,0,0,0,0,0,0,0
6,69999,17,60000,0,0,40,9999,0.100000,0,0,0.000000,5,0.000000,0.000000,0.732882,0,0,0,0,0,0,0
6,69999,18,60000,14,10000,40,9999,0.100000,0,0,0.000000,5,0.000000,0.000000,0.489813,0,0,0,0,0,0,0
6,69999,19,60000,92,20000,49,9999,0.100000,0,0,0.000000,5,2.000000,0.000000,9.254299,0,0,0,0,0,0,0
6,69999,20,60000,0,20000,40,9999,0.100000,0,0,0.000000,5,0.000000,0.000000,0.157912,0,0,0,0,0,0,0
6,69999,21,60000,0,0,49,9999,0.100000,0,0,0.000000,5,1.000000,0.000000,1.334415,0,0,0,0,0,0,0
6,69999,22,60000,0,0,49,9999,0.100000,0,0,0.000000,5,1.000000,0.000000,2.875866,0,0,0,0,0,0,0
6,69999,23,60000,5,10000,40,9999,0.100000,0,0,0.000000,5,0.000000,0.000000,0.134081,0,0,0,0,0,0,0
6,69999,24,60000,92,20000,40,9999,0.100000,0,0,0.000000,5,0.000000,0.000000,0.803433,0,0,0,0,0,0,0
6,69999,25,60000,5,10000,40,9999,0.100000,0,0,0.000000,5,0.000000,0.000000,0.114446,0,0,0,0,0,0,0
6,69999,26,60000,14,10000,40,9999,0.100000,0,0,0.000000,5,0.000000,0.000000,0.151745,0,0,0,0,0,0,0
6,69999,27,60000,0,20000,40,9999,0.100000,0,0,0.000000,5,0.000000,0.000000,0.157230,0,0,0,0,0,0,0
6,69999,28,60000,0,0,40,9999,0.100000,0,0,0.000000,5,0.000000,0.000000,2.128421,0,0,0,0,0,0,0
6,69999,29,60000,14,10000,49,9999,0.100000,0,0,0.000000,5,1.000000,0.000000,2.678620,0,0,0,0,0,0,0
6,69999,30,60000,92,20000,40,9999,0.100000,0,0,0.000000,5,0.000000,0.000000,0.240229,0,0,0,0,0,0,0
6,69999,31,60000,14,10000,40,9999,0.100000,0,0,0.000000,5,0.000000,0.000000,0.596058,0,0,0,0,0,0,0
6,69999,32,60000,14,10000,9,9999,0.100000,0,0,0.000000,5,2.000000,0.000000,12.424108,0,0,0,0,0,1,0
6,69999,33,60000,14,10000,40,9999,0.100000,0,0,0.000000,5,0.000000,0.000000,0.846367,0,0,0,0,0,0,0
6,69999,34,60000,0,0,49,9999,0.100000,0,0,0.000000,5,1.000000,0.000000,4.261735,0,0,0,0,0,0,0
6,69999,35,60000,92,20000,40,9999,0.100000,0,0,0.000000,5,0.000000,0.000000,1.173110,0,0,0,0,0,0,0
6,69999,36,60000,5,10000,40,9999,0.100000,0,0,0.000000,5,0.000000,0.000000,20.016844,0,0,0,0,0,0,0
6,69999,37,60000,92,20000,49,9999,0.100000,0,0,0.000000,5,1.000000,0.000000,2.085570,0,0,0,0,0,0,0
6,69999,38,60000,0,0,40,9999,0.100000,0,0,0.000000,5,0.000000,0.000000,0.898761,0,0,0,0,0,0,0
6,69999,39,60000,0,20000,49,9999,0.100000,0,0,0.000000,5,1.000000,0.000000,3.644562,0,0,0,0,0,0,0
6,69999,40,60000,14,10000,49,9999,0.100000,0,0,0.000000,5,2.000000,0.000000,7.406917,0,0,0,0,0,0,0
6,69999,41,60000,0,0,40,9999,0.100000,0,0,0.000000,5,0.000000,0.000000,0.089016,0,0,0,0,0,0,0
6,69999,42,60000,0,20000,40,9999,0.100000,0,0,0.000000,5,0.000000,0.000000,20.702660,0,0,0,0,0,0,0
6,69999,43,60000,14,10000,40,9999,0.100000,0,0,0.000000,5,0.000000,0.000000,20.845061,0,0,0,0,0,0,0
6,69999,44,60000,92,20000,40,9999,0.100000,0,0,0.000000,5,0.000000,0.000000,0.521441,0,0,0,0,0,0,0
6,69999,45,60000,0,20000,49,9999,0.100000,0,0,0.000000,5,1.000000,0.000000,13.531136,0,0,0,0,0,0,0
6,69999,46,60000,0,0,40,9999,0.100000,0,0,0.000000,5,0.000000,0.000000,0.267468,0,0,0,0,0,0,0
6,69999,47,60000,5,10000,40,9999,0.100000,0,0,0.000000,5,0.000000,0.000000,0.121714,0,0,0,0,0,0,0
6,69999,48,60000,14,10000,40,9999,0.100000,0,0,0.000000,5,0.000000,0.000000,0.153509,0,0,0,0,0,0,0
6,69999,49,60000,92,20000,40,9999,0.100000,0,0,0.000000,5,0.000000,0.000000,0.477349,0,0,0,0,0,0,0
6,69999,50,60000,14,10000,49,9999,0.100000,0,0,0.000000,5,1.000000,0.000000,3.013597,0,0,0,0,0,0,0
6,69999,51,60000,14,10000,40,9999,0.100000,0,0,0.000000,5,0.000000,0.000000,0.085849,0,0,0,0,0,0,0
6,69999,52,60000,5,10000,40,9999,0.100000,0,0,0.000000,5,0.000000,0.000000,0.136685,0,0,0,0,0,0,0
6,69999,53,60000,0,0,49,9999,0.100000,0,0,0.000000,5,1.000000,0.000000,2.855025,0,0,0,0,0,0,0
6,69999,54,60000,0,0,40,9999,0.100000,0,0,0.000000,5,0.000000,0.000000,1.018756,0,0,0,0,0,0,0
6,69999,55,60000,0,20000,49,9999,0.100000,0,0,0.000000,5,2.000000,0.000000,12.689585,0,0,0,0,0,0,0
6,69999,56,60000,92,20000,49,9999,0.100000,0,0,0.000000,5,1.000000,0.000000,2.151641,0,0,0,0,0,0,0
6,69999,57,60000,0,20000,40,9999,0.100000,0,0,0.000000,5,0.000000,0.000000,0.136169,0,0,0,0,0,0,0
6,69999,58,60000,0,20000,40,9999,0.100000,0,0,0.000000,5,0.000000,0.000000,0.117892,0,0,0,0,0,0,0
6,69999,59,60000,0,20000,40,9999,0.100000,0,0,0.000000,5,0.000000,0.000000,0.247822,0,0,0,0,0,0,0
6,69999,60,60000,0,20000,40,9999,0.100000,0,0,0.000000,5,0.000000,0.000000,0.743937,0,0,0,0,0,0,0
6,69999,61,60000,92,20000,40,9999,0.100000,0,0,0.000000,5,0.000000,0.000000,1.084293,0,0,0,0,0,0,0
6,69999,62,60000,0,0,40,9999,0.100000,0,0,0.000000,5,0.000000,0.000000,0.402651,0,0,0,0,0,0,0
6,69999,63,60000,5,10000,49,9999,0.100000,0,0,0.000000,5,1.000000,0.000000,9.977502,0,0,0,0,0,0,0
6,69999,64,60000,0,0,40,9999,0.100000,0,0,0.000000,5,0.000000,0.000000,0.380203,0,0,0,0,0,0,0
6,69999,65,60000,14,10000,40,9999,0.100000,0,0,0.000000,5,0.000000,0.000000,0.097389,0,0,0,0,0,0,0
6,69999,66,60000,5,10000,40,9999,0.100000,0,0,0.000000,5,0.000000,0.000000,0.359079,0,0,0,0,0,0,0
6,69999,67,60000,14,10000,40,9999,0.100000,0,0,0.000000,5,0.000000,0.000000,0.588912,0,0,0,0,0,0,0
6,69999,68,60000,0,20000,40,9999,0.100000,0,0,0.000000,5,0.000000,0.000000,0.616913,0,0,0,0,0,0,0
6,69999,69,60000,0,0,40,9999,0.100000,0,0,0.000000,5,0.000000,0.000000,0.063633,0,0,0,0,0,0,0
6,69999,70,60000,0,20000,40,9999,0.100000,0,0,0.000000,5,0.000000,0.000000,0.125732,0,0,0,0,0,0,0
6,69999,71,60000,14,10000,40,9999,0.100000,0,0,0.000000,5,0.000000,0.000000,0.087091,0,0,0,0,0,0,0
6,69999,72,60000,0,20000,49,9999,0.100000,0,0,0.000000,5,2.000000,0.000000,12.051450,0,0,0,0,0,0,0
6,69999,73,60000,5,10000,40,9999,0.100000,0,0,0.000000,5,0.000000,0.000000,0.151804,0,0,0,0,0,0,0
6,69999,74,60000,0,20000,49,9999,0.100000,0,0,0.000000,5,9.000000,0.000000,10.956648,0,0,0,0,0,0,0
6,69999,75,60000,14,10000,40,9999,0.100000,0,0,0.000000,5,0.000000,0.000000,0.548429,0,0,0,0,0,0,0
6,69999,76,60000,14,10000,40,9999,0.100000,0,0,0.000000,5,0.000000,0.000000,3.179952,0,0,0,0,0,0,0
6,69999,77,60000,0,0,40,9999,0.100000,0,0,0.000000,5,0.000000,0.000000,0.066886,0,0,0,0,0,0,0
6,69999,78,60000,0,0,40,9999,0.100000,0,0,0.000000,5,0.000000,0.000000,3.007580,0,0,0,0,0,0,0
6,69999,79,60000,14,10000,49,9999,0.100000,0,0,0.000000,5,8.000000,0.000000,12.297107,0,0,0,0,0,0,0
6,69999,80,60000,0,0,40,9999,0.100000,0,0,0.000000,5,0.000000,0.000000,0.312894,0,0,0,0,0,0,0
6,69999,81,60000,14,10000,40,9999,0.100000,0,0,0.000000,5,0.000000,0.000000,0.918844,0,0,0,0,0,0,0
6,69999,82,60000,5,10000,40,9999,0.100000,0,0,0.000000,5,0.000000,0.000000,1.791856,0,0,0,0,0,0,0
6,69999,83,60000,92,20000,49,9999,0.100000,0,0,0.000000,5,1.000000,0.000000,8.146633,0,0,0,0,0,0,0
6,69999,84,60000,0,20000,49,9999,0.100000,0,0,0.000000,5,4.000000,0.000000,6.485968,0,0,0,0,0,0,0
6,69999,85,60000,14,10000,40,9999,0.100000,0,0,0.000000,5,0.000000,0.000000,0.694255,0,0,0,0,0,0,0
6,69999,86,60000,0,0,40,9999,0.100000,0,0,0.000000,5,0.000000,0.000000,0.097503,0,0,0,0,0,0,0
6,69999,87,60000,5,10000,49,9999,0.100000,0,0,0.000000,5,1.000000,0.000000,7.635513,0,0,0,0,0,0,0
6,69999,88,60000,0,0,40,9999,0.100000,0,0,0.000000,5,0.000000,0.000000,0.794467,0,0,0,0,0,0,0
6,69999,89,60000,5,10000,40,9999,0.100000,0,0,0.000000,5,0.000000,0.000000,0.515634,0,0,0,0,0,0,0
6,69999,90,60000,5,10000,40,9999,0.100000,0,0,0.000000,5,0.000000,0.000000,0.342795,0,0,0,0,0,0,0
6,69999,91,60000,5,10000,40,9999,0.100000,0,0,0.000000,5,0.000000,0.000000,2.005616,0,0,0,0,0,0,0
6,69999,92,60000,5,10000,40,9999,0.100000,0,0,0.000000,5,0.000000,0.000000,0.129148,0,0,0,0,0,0,0
6,69999,93,60000,0,0,40,9999,0.100000,0,0,0.000000,5,0.000000,0.000000,1.842828,0,0,0,0,0,0,0
6,69999,94,60000,92,20000,49,9999,0.100000,0,0,0.000000,5,3.000000,0.000000,5.758472,0,0,0,0,0,0,0
6,69999,95,60000,92,20000,40,9999,0.100000,0,0,0.000000,5,0.000000,0.000000,0.262114,0,0,0,0,0,0,0
6,69999,96,60000,92,20000,49,9999,0.100000,0,0,0.000000,5,3.000000,0.000000,7.794826,0,0,0,0,0,0,0
6,69999,97,60000,92,20000,49,9999,0.100000,0,0,0.000000,5,3.000000,0.000000,9.476899,0,0,0,0,0,0,0
6,69999,98,60000,92,20000,49,9999,0.100000,0,0,0.000000,5,6.000000,0.000000,7.799922,0,0,0,0,0,0,0
6,69999,99,60000,5,10000,40,9999,0.100000,0,0,0.000000,5,0.000000,0.000000,0.278614,0,0,0,0,0,0,0
7,79999,0,70000,14,10000,49,9999,0.100000,0,0,0.000000,5,3.000000,0.000000,9.536309,0,0,0,0,0,0,0
7,79999,1,70000,92,20000,40,9999,0.100000,0,0,0.000000,5,0.000000,0.000000,0.554025,0,0,0,0,0,0,0
7,79999,2,70000,0,20000,40,9999,0.100000,0,0,0.000000,5,0.000000,0.000000,1.176007,0,0,0,0,0,0,0
7,79999,3,70000,14,10000,49,9999,0.100000,0,0,0.000000,5,1.000000,0.000000,3.766410,0,0,0,0,0,0,0
7,79999,4,70000,14,10000,40,9999,0.100000,0,0,0.000000,5,0.000000,0.000000,0.091214,0,0,0,0,0,0,0
7,79999,5,70000,0,20000,40,9999,0.100000,0,0,0.000000,5,0.000000,0.000000,0.131649,0,0,0,0,0,0,0
7,79999,6,70000,5,10000,40,9999,0.100000,0,0,0.000000,5,0.000000,0.000000,1.330381,0,0,0,0,0,0,0
7,79999,7,70000,92,20000,40,9999,0.100000,0,0,0.000000,5,0.000000,0.000000,0.159026,0,0,0,0,0,0,0
7,79999,8,70000,0,20000,49,9999,0.100000,0,0,0.000000,5,2.000000,0.000000,2.817904,0,0,0,0,0,0,0
7,79999,9,60000,0,20000,40,19999,0.100000,0,0,0.000000,5,0.000000,0.000000,0.200849,0,0,0,0,0,0,0
7,79999,10,70000,0,20000,40,9999,0.100000,0,0,0.000000,5,0.000000,0.000000,0.504454,0,0,0,0,0,0,0
7,79999,11,70000,5,10000,40,9999,0.100000,0,0,0.000000,5,0.000000,0.000000,0.079941,0,0,0,0,0,0,0
7,79999,12,70000,0,0,40,9999,0.100000,0,0,0.000000,5,0.000000,0.000000,1.619406,0,0,0,0,0,0,0
7,79999,13,70000,0,0,40,9999,0.100000,0,0,0.000000,5,0.000000,0.000000,0.103507,0,0,0,0,0,0,0
7,79999,14,70000,5,10000,40,9999,0.100000,0,0,0.000000,5,0.000000,0.000000,0.129702,0,0,0,0,0,0,0
7,79999,15,70000,0,0,49,9999,0.100000,0,0,0.000000,5,1.000000,0.000000,3.225626,0,0,0,0,0,0,0
7,79999,16,70000,92,20000,40,9999,0.100000,0,0,0.000000,5,0.000000,0.000000,0.605646,0,0,0,0,0,0,0
7,79999,17,70000,0,0,40,9999,0.100000,0,0,0.000000,5,0.000000,0.000000,0.454329,0,0,0,0,0,0,0
7,79999,18,70000,0,20000,40,9999,0.100000,0,0,0.000000,5,0.000000,0.000000,0.509855,0,0,0,0,0,0,0
7,79999,19,70000,14,10000,40,9999,0.100000,0,0,0.000000,5,0.000000,0.000000,0.832066,0,0,0,0,0,0,0
7,79999,20,70000,0,20000,40,9999,0.100000,0,0,0.000000,5,0.000000,0.000000,0.204988,0,0,0,0,0,0,0
7,79999,21,70000,0,0,49,9999,0.100000,0,0,0.000000,5,1.000000,0.000000,1.431096,0,0,0,0,0,0,0
7,79999,22,70000,92,20000,40,9999,0.100000,0,0,0.000000,5,0.000000,0.000000,1.104510,0,0,0,0,0,0,0
7,79999,23,70000,92,20000,40,9999,0.100000,0,0,0.000000,5,0.000000,0.000000,0.147998,0,0,0,0,0,0,0
7,79999,24,70000,0,20000,40,9999,0.100000,0,0,0.000000,5,0.000000,0.000000,0.809152,0,0,0,0,0,0,0
7,79999,25,70000,14,10000,40,9999,0.100000,0,0,0.000000,5,0.000000,0.000000,0.109259,0,0,0,0,0,0,0
7,79999,26,70000,0,0,40,9999,0.100000,0,0,0.000000,5,0.000000,0.000000,0.159169,0,0,0,0,0,0,0
7,79999,27,70000,14,10000,40,9999,0.100000,0,0,0.000000,5,0.000000,0.000000,0.171416,0,0,0,0,0,0,0
7,79999,28,70000,5,10000,40,9999,0.100000,0,0,0.000000,5,0.000000,0.000000,2.090134,0,0,0,0,0,0,0
7,79999,29,70000,14,10000,49,9999,0.100000,0,0,0.000000,5,3.000000,0.000000,4.759184,0,0,0,0,0,0,0
7,79999,30,70000,0,20000,40,9999,0.100000,0,0,0.000000,5,0.000000,0.000000,0.239558,0,0,0,0,0,0,0
7,79999,31,70000,5,10000,40,9999,0.100000,0,0,0.000000,5,0.000000,0.000000,0.483634,0,0,0,0,0,0,0
7,79999,32,70000,5,10000,49,9999,0.100000,0,0,0.000000,5,8.000000,0.000000,11.653066,0,0,0,0,0,0,0
7,79999,33,70000,0,0,40,9999,0.100000,0,0,0.000000,5,0.000000,0.000000,1.098115,0,0,0,0,0,0,0
7,79999,34,70000,5,10000,40,9999,0.065000,0,0,0.000000,5,0.000000,0.000000,2.158379,0,0,0,0,0,0,0
7,79999,35,70000,5,10000,40,9999,0.100000,0,0,0.000000,5,0.000000,0.000000,1.166439,0,0,0,0,0,0,0
7,79999,36,70000,92,20000,49,9999,0.100000,0,0,0.000000,5,1.000000,0.000000,16.248475,0,0,0,0,0,0,0
7,79999,37,70000,92,20000,49,9999,0.100000,0,0,0.000000,5,4.000000,0.000000,7.220793,0,0,0,0,0,0,0
7,79999,38,70000,0,20000,49,9999,0.100000,0,0,0.000000,5,1.000000,0.000000,2.756942,0,0,0,0,0,0,0
7,79999,39,70000,14,10000,40,9999,0.100000,0,0,0.000000,5,0.000000,0.000000,1.638484,0,0,0,0,0,0,0
7,79999,40,70000,5,10000,49,9999,0.100000,0,0,0.000000,5,4.000000,0.000000,6.624848,0,0,0,0,0,0,0
7,79999,41,70000,0,0,40,9999,0.100000,0,0,0.000000,5,0.000000,0.000000,0.087247,0,0,0,0,0,0,0
7,79999,42,70000,14,10000,40,9999,0.100000,0,0,0.000000,5,0.000000,0.000000,15.804093,0,0,0,0,0,0,0
7,79999,43,70000,5,10000,40,9999,0.100000,0,0,0.000000,5,0.000000,0.000000,20.931073,0,0,0,0,0,0,0
7,79999,44,70000,0,20000,40,9999,0.100000,0,0,0.000000,5,0.000000,0.000000,0.319238,0,0,0,0,0,0,0
7,79999,45,70000,0,20000,49,9999,0.100000,0,0,0.000000,5,4.000000,0.000000,15.797091,0,0,0,0,0,0,0
7,79999,46,70000,5,10000,40,9999,0.100000,0,0,0.000000,5,0.000000,0.000000,0.153846,0,0,0,0,0,0,0
7,79999,47,70000,92,20000,40,9999,0.100000,0,0,0.000000,5,0.000000,0.000000,0.119811,0,0,0,0,0,0,0
7,79999,48,70000,0,20000,40,9999,0.100000,0,0,0.000000,5,0.000000,0.000000,0.141176,0,0,0,0,0,0,0
7,79999,49,70000,0,20000,40,9999,0.100000,0,0,0.000000,5,0.000000,0.000000,0.498425,0,0,0,0,0,0,0
7,79999,50,70000,5,10000,49,9999,0.100000,0,0,0.000000,5,2.000000,0.000000,9.350653,0,0,0,0,0,0,0
7,79999,51,70000,0,0,40,9999,0.100000,0,0,0.000000,5,0.000000,0.000000,0.087593,0,0,0,0,0,0,0
7,79999,52,70000,14,10000,40,9999,0.100000,0,0,0.000000,5,0.000000,0.000000,0.128591,0,0,0,0,0,0,0
7,79999,53,70000,0,0,40,9999,0.100000,0,0,0.000000,5,0.000000,0.000000,1.486139,0,0,0,0,0,0,0
7,79999,54,70000,92,20000,49,9999,0.100000,0,0,0.000000,5,4.000000,0.000000,8.166510,0,0,0,0,0,0,0
7,79999,55,70000,92,20000,49,9999,0.100000,0,0,0.000000,5,7.000000,0.000000,18.454665,0,0,0,0,0,0,0
7,79999,56,70000,92,20000,49,9999,0.100000,0,0,0.000000,5,1.000000,0.000000,3.232868,0,0,0,0,0,0,0
7,79999,57,70000,5,10000,40,9999,0.100000,0,0,0.000000,5,0.000000,0.000000,0.135934,0,0,0,0,0,0,0
7,79999,58,70000,14,10000,40,9999,0.100000,0,0,0.000000,5,0.000000,0.000000,0.130996,0,0,0,0,0,0,0
7,79999,59,70000,0,0,40,9999,0.100000,0,0,0.000000,5,0.000000,0.000000,0.359803,0,0,0,0,0,0,0
7,79999,60,70000,0,20000,40,9999,0.100000,0,0,0.000000,5,0.000000,0.000000,0.607470,0,0,0,0,0,0,0
7,79999,61,70000,0,0,40,9999,0.100000,0,0,0.000000,5,0.000000,0.000000,0.847922,0,0,0,0,0,0,0
7,79999,62,70000,5,10000,40,9999,0.100000,0,0,0.000000,5,0.000000,0.000000,0.385068,0,0,0,0,0,0,0
7,79999,63,70000,0,20000,49,9999,0.100000,0,0,0.000000,5,2.000000,0.000000,7.475019,0,0,0,0,0,0,0
7,79999,64,70000,92,20000,40,9999,0.100000,0,0,0.000000,5,0.000000,0.000000,0.278640,0,0,0,0,0,0,0
7,79999,65,70000,14,10000,40,9999,0.100000,0,0,0.000000,5,0.000000,0.000000,0.098540,0,0,0,0,0,0,0
7,79999,66,70000,5,10000,40,9999,0.100000,0,0,0.000000,5,0.000000,0.000000,0.366958,0,0,0,0,0,0,0
7,79999,67,70000,92,20000,40,9999,0.100000,0,0,0.000000,5,0.000000,0.000000,0.572666,0,0,0,0,0,0,0
7,79999,68,70000,0,0,40,9999,0.100000,0,0,0.000000,5,0.000000,0.000000,0.612856,0,0,0,0,0,0,0
7,79999,69,70000,0,20000,40,9999,0.100000,0,0,0.000000,5,0.000000,0.000000,0.340856,0,0,0,0,0,0,0
7,79999,70,70000,5,10000,40,9999,0.100000,0,0,0.000000,5,0.000000,0.000000,0.127693,0,0,0,0,0,0,0
7,79999,71,70000,92,20000,40,9999,0.100000,0,0,0.000000,5,0.000000,0.000000,0.086063,0,0,0,0,0,0,0
7,79999,72,70000,5,10000,49,9999,0.100000,0,0,0.000000,5,4.000000,0.000000,15.815294,0,0,0,0,0,0,0
7,79999,73,70000,92,20000,40,9999,0.100000,0,0,0.000000,5,0.000000,0.000000,0.153377,0,0,0,0,0,0,0
7,79999,74,70000,0,20000,40,9999,0.100000,0,0,0.000000,5,0.000000,0.000000,0.237232,0,0,0,0,0,0,0
7,79999,75,70000,5,10000,40,9999,0.100000,0,0,0.000000,5,0.000000,0.000000,0.085912,0,0,0,0,0,0,0
7,79999,76,70000,5,10000,40,9999,0.100000,0,0,0.000000,5,0.000000,0.000000,3.408541,0,0,0,0,0,0,0
7,79999,77,70000,92,20000,40,9999,0.100000,0,0,0.000000,5,0.000000,0.000000,0.084603,0,0,0,0,0,0,0
7,79999,78,70000,0,20000,40,9999,0.100000,0,0,0.000000,5,0.000000,0.000000,2.966403,0,0,0,0,0,0,0
7,79999,79,70000,92,20000,49,9999,0.100000,0,0,0.000000,5,5.000000,0.000000,6.382821,0,0,0,0,0,0,0
7,79999,80,70000,0,0,40,9999,0.100000,0,0,0.000000,5,0.000000,0.000000,0.347562,0,0,0,0,0,0,0
7,79999,81,70000,5,10000,40,9999,0.100000,0,0,0.000000,5,0.000000,0.000000,1.348095,0,0,0,0,0,0,0
7,79999,82,70000,5,10000,40,9999,0.100000,0,0,0.000000,5,0.000000,0.000000,1.283075,0,0,0,0,0,0,0
7,79999,83,70000,5,10000,49,9999,0.100000,0,0,0.000000,5,1.000000,0.000000,5.473878,0,0,0,0,0,0,0
7,79999,84,70000,92,20000,49,9999,0.100000,0,0,0.000000,5,2.000000,0.000000,18.195237,0,0,0,0,0,0,0
7,79999,85,70000,0,0,40,9999,0.100000,0,0,0.000000,5,0.000000,0.000000,0.497209,0,0,0,0,0,0,0
7,79999,86,70000,14,10000,40,9999,0.100000,0,0,0.000000,5,0.000000,0.000000,0.106768,0,0,0,0,0,0,0
7,79999,87,70000,5,10000,40,9999,0.100000,0,0,0.000000,5,0.000000,0.000000,8.350756,0,0,0,0,0,0,0
7,79999,88,70000,14,10000,40,9999,0.100000,0,0,0.000000,5,0.000000,0.000000,0.815845,0,0,0,0,0,0,0
7,79999,89,70000,92,20000,40,9999,0.100000,0,0,0.000000,5,0.000000,0.000000,0.448942,0,0,0,0,0,0,0
7,79999,90,70000,92,20000,40,9999,0.100000,0,0,0.000000,5,0.000000,0.000000,0.180751,0,0,0,0,0,0,0
7,79999,91,70000,0,20000,49,9999,0.100000,0,0,0.000000,5,1.000000,0.000000,4.223353,0,0,0,0,0,0,0
7,79999,92,70000,0,0,40,9999,0.100000,0,0,0.000000,5,0.000000,0.000000,0.215224,0,0,0,0,0,0,0
7,79999,93,70000,14,10000,40,9999,0.100000,0,0,0.000000,5,0.000000,0.000000,6.702365,0,0,0,0,0,0,0
7,79999,94,70000,0,20000,40,9999,0.100000,0,0,0.000000,5,0.000000,0.000000,0.136367,0,0,0,0,0,0,0
7,79999,95,70000,14,10000,40,9999,0.100000,0,0,0.000000,5,0.000000,0.000000,0.135897,0,0,0,0,0,0,0
7,79999,96,70000,0,0,40,9999,0.100000,0,0,0.000000,5,0.000000,0.000000,0.849495,0,0,0,0,0,0,0
7,79999,97,70000,14,10000,40,9999,0.100000,0,0,0.000000,5,0.000000,0.000000,1.934395,0,0,0,0,0,0,0
7,79999,98,70000,14,10000,49,9999,0.100000,0,0,0.000000,5,3.000000,0.000000,6.871203,0,0,0,0,0,0,0
7,79999,99,70000,92,20000,40,9999,0.100000,0,0,0.000000,5,0.000000,0.000000,0.209874,0,0,0,0,0,0,0
8,89999,0,80000,0,20000,49,9999,0.100000,0,0,0.000000,5,1.000000,0.000000,6.655551,0,0,0,0,0,0,0
8,89999,1,80000,5,10000,40,9999,0.100000,0,0,0.000000,5,0.000000,0.000000,1.483823,0,0,0,0,0,0,0
8,89999,2,80000,14,10000,0,9999,0.100000,0,0,0.000000,5,0.000000,0.000000,3.940558,0,0,0,0,0,1,0
8,89999,3,80000,92,20000,40,9999,0.100000,0,0,0.000000,5,0.000000,0.000000,22.090224,0,0,0,0,0,0,0
8,89999,4,80000,14,10000,40,9999,0.100000,0,0,0.000000,5,0.000000,0.000000,0.126597,0,0,0,0,0,0,0
8,89999,5,80000,5,10000,40,9999,0.100000,0,0,0.000000,5,0.000000,0.000000,0.133053,0,0,0,0,0,0,0
8,89999,6,80000,92,20000,40,9999,0.100000,0,0,0.000000,5,0.000000,0.000000,2.043976,0,0,0,0,0,0,0
8,89999,7,80000,92,20000,40,9999,0.100000,0,0,0.000000,5,0.000000,0.000000,0.145757,0,0,0,0,0,0,0
8,89999,8,80000,0,20000,40,9999,0.100000,0,0,0.000000,5,0.000000,0.000000,1.109189,0,0,0,0,0,0,0
8,89999,9,80000,5,10000,40,9999,0.100000,0,0,0.000000,5,0.000000,0.000000,0.228494,0,0,0,0,0,0,0
8,89999,10,80000,92,20000,40,9999,0.100000,0,0,0.000000,5,0.000000,0.000000,0.354649,0,0,0,0,0,0,0
8,89999,11,80000,0,0,40,9999,0.100000,0,0,0.000000,5,0.000000,0.000000,0.090220,0,0,0,0,0,0,0
8,89999,12,80000,5,10000,9,9999,0.100000,0,0,0.000000,5,1.000000,0.000000,4.152965,0,0,0,0,0,1,0
8,89999,13,80000,92,20000,40,9999,0.100000,0,0,0.000000,5,0.000000,0.000000,0.104248,0,0,0,0,0,0,0
8,89999,14,80000,14,10000,40,9999,0.100000,0,0,0.000000,5,0.000000,0.000000,0.138623,0,0,0,0,0,0,0
8,89999,15,80000,5,10000,49,9999,0.100000,0,0,0.000000,5,1.000000,0.000000,1.357095,0,0,0,0,0,0,0
8,89999,16,80000,0,0,40,9999,0.100000,0,0,0.000000,5,0.000000,0.000000,0.741885,0,0,0,0,0,0,0
8,89999,17,80000,5,10000,40,9999,0.100000,0,0,0.000000,5,0.000000,0.000000,0.178372,0,0,0,0,0,0,0
8,89999,18,80000,5,10000,40,9999,0.100000,0,0,0.000000,5,0.000000,0.000000,0.521745,0,0,0,0,0,0,0
8,89999,19,80000,5,10000,40,9999,0.100000,0,0,0.000000,5,0.000000,0.000000,0.929041,0,0,0,0,0,0,0
8,89999,20,80000,92,20000,40,9999,0.100000,0,0,0.000000,5,0.000000,0.000000,0.208065,0,0,0,0,0,0,0
8,89999,21,80000,14,10000,40,9999,0.100000,0,0,0.000000,5,0.000000,0.000000,0.162761,0,0,0,0,0,0,0
8,89999,22,80000,5,10000,40,9999,0.100000,0,0,0.000000,5,0.000000,0.000000,0.409906,0,0,0,0,0,0,0
8,89999,23,80000,0,20000,49,9999,0.100000,0,0,0.000000,5,2.000000,0.000000,4.366025,0,0,0,0,0,0,0
8,89999,24,80000,92,20000,40,9999,0.100000,0,0,0.000000,5,0.000000,0.000000,0.696411,0,0,0,0,0,0,0
8,89999,25,80000,0,0,40,9999,0.100000,0,0,0.000000,5,0.000000,0.000000,0.108710,0,0,0,0,0,0,0
8,89999,26,80000,0,20000,40,9999,0.100000,0,0,0.000000,5,0.000000,0.000000,1.347919,0,0,0,0,0,0,0
8,89999,27,80000,14,10000,40,9999,0.100000,0,0,0.000000,5,0.000000,0.000000,0.157498,0,0,0,0,0,0,0
8,89999,28,80000,5,10000,40,9999,0.100000,0,0,0.000000,5,0.000000,0.000000,0.249918,0,0,0,0,0,0,0
8,89999,29,80000,14,10000,40,9999,0.100000,0,0,0.000000,5,0.000000,0.000000,1.415483,0,0,0,0,0,0,0
8,89999,30,80000,0,0,40,9999,0.100000,0,0,0.000000,5,0.000000,0.000000,0.238984,0,0,0,0,0,0,0
8,89999,31,80000,5,10000,40,9999,0.100000,0,0,0.000000,5,0.000000,0.000000,0.456663,0,0,0,0,0,0,0
8,89999,32,80000,5,10000,40,9999,0.100000,0,0,0.000000,5,0.000000,0.000000,0.626876,0,0,0,0,0,0,0
8,89999,33,80000,14,10000,40,9999,0.100000,0,0,0.000000,5,0.000000,0.000000,1.453302,0,0,0,0,0,0,0
8,89999,34,80000,14,10000,49,9999,0.100000,0,0,0.000000,5,1.000000,0.000000,3.281170,0,0,0,0,0,0,0
8,89999,35,80000,5,10000,49,9999,0.100000,0,0,0.000000,5,1.000000,0.000000,1.533839,0,0,0,0,0,0,0
8,89999,36,80000,5,10000,40,9999,0.100000,0,0,0.000000,5,0.000000,0.000000,1.605643,0,0,0,0,0,0,0
8,89999,37,80000,0,20000,49,9999,0.100000,0,0,0.000000,5,6.000000,0.000000,7.494075,0,0,0,0,0,0,0
8,89999,38,80000,92,20000,40,9999,0.100000,0,0,0.000000,5,0.000000,0.000000,0.346815,0,0,0,0,0,0,0
8,89999,39,80000,92,20000,40,9999,0.100000,0,0,0.000000,5,0.000000,0.000000,1.285936,0,0,0,0,0,0,0
8,89999,40,80000,5,10000,40,9999,0.100000,0,0,0.000000,5,0.000000,0.000000,0.172693,0,0,0,0,0,0,0
8,89999,41,80000,0,0,40,9999,0.100000,0,0,0.000000,5,0.000000,0.000000,0.169640,0,0,0,0,0,0,0
8,89999,42,80000,5,10000,40,9999,0.100000,0,0,0.000000,5,0.000000,0.000000,14.224253,0,0,0,0,0,0,0
8,89999,43,80000,5,10000,40,9999,0.100000,0,0,0.000000,5,0.000000,0.000000,20.835032,0,0,0,0,0,0,0
8,89999,44,80000,0,20000,40,9999,0.100000,0,0,0.000000,5,0.000000,0.000000,0.309838,0,0,0,0,0,0,0
8,89999,45,80000,0,0,49,9999,0.100000,0,0,0.000000,5,2.000000,0.000000,14.395522,0,0,0,0,0,0,0
8,89999,46,80000,92,20000,40,9999,0.100000,0,0,0.000000,5,0.000000,0.000000,0.482389,0,0,0,0,0,0,0
8,89999,47,80000,5,10000,40,9999,0.100000,0,0,0.000000,5,0.000000,0.000000,0.154178,0,0,0,0,0,0,0
8,89999,48,80000,92,20000,40,9999,0.100000,0,0,0.000000,5,0.000000,0.000000,0.142654,0,0,0,0,0,0,0
8,89999,49,80000,92,20000,40,9999,0.100000,0,0,0.000000,5,0.000000,0.000000,0.501239,0,0,0,0,0,0,0
8,89999,50,80000,0,0,40,9999,0.100000,0,0,0.000000,5,0.000000,0.000000,3.981186,0,0,0,0,0,0,0
8,89999,51,80000,5,10000,40,9999,0.100000,0,0,0.000000,5,0.000000,0.000000,0.090212,0,0,0,0,0,0,0
8,89999,52,80000,92,20000,40,9999,0.100000,0,0,0.000000,5,0.000000,0.000000,0.190189,0,0,0,0,0,0,0
8,89999,53,80000,92,20000,49,9999,0.100000,0,0,0.000000,5,4.000000,0.000000,5.541664,0,0,0,0,0,0,0
8,89999,54,80000,5,10000,40,9999,0.100000,0,0,0.000000,5,0.000000,0.000000,1.039047,0,0,0,0,0,0,0
8,89999,55,80000,14,10000,49,9999,0.100000,0,0,0.000000,5,3.000000,0.000000,11.894642,0,0,0,0,0,0,0
8,89999,56,80000,0,0,0,9999,0.100000,0,0,0.000000,5,0.000000,0.000000,7.592826,0,0,0,0,0,1,0
8,89999,57,80000,0,0,40,9999,0.100000,0,0,0.000000,5,0.000000,0.000000,0.132064,0,0,0,0,0,0,0
8,89999,58,80000,0,20000,40,9999,0.100000,0,0,0.000000,5,0.000000,0.000000,0.794737,0,0,0,0,0,0,0
8,89999,59,80000,92,20000,49,9999,0.100000,0,0,0.000000,5,4.000000,0.000000,8.172789,0,0,0,0,0,0,0
8,89999,60,80000,92,20000,40,9999,0.100000,0,0,0.000000,5,0.000000,0.000000,0.280516,0,0,0,0,0,0,0
8,89999,61,80000,5,10000,0,9999,0.100000,0,0,0.000000,5,0.000000,0.000000,0.886682,0,0,0,0,0,1,0
8,89999,62,80000,5,10000,40,9999,0.100000,0,0,0.000000,5,0.000000,0.000000,0.374575,0,0,0,0,0,0,0
8,89999,63,80000,14,10000,49,9999,0.100000,0,0,0.000000,5,2.000000,0.000000,6.243387,0,0,0,0,0,0,0
8,89999,64,80000,14,10000,40,9999,0.100000,0,0,0.000000,5,0.000000,0.000000,0.279136,0,0,0,0,0,0,0
8,89999,65,80000,0,20000,40,9999,0.100000,0,0,0.000000,5,0.000000,0.000000,0.099838,0,0,0,0,0,0,0
8,89999,66,80000,92,20000,40,9999,0.100000,0,0,0.000000,5,0.000000,0.000000,0.384717,0,0,0,0,0,0,0
8,89999,67,80000,0,0,40,9999,0.100000,0,0,0.000000,5,0.000000,0.000000,0.093097,0,0,0,0,0,0,0
8,89999,68,80000,0,0,49,9999,0.100000,0,0,0.000000,5,1.000000,0.000000,1.257821,0,0,0,0,0,0,0
8,89999,69,80000,0,0,49,9999,0.100000,0,0,0.000000,5,8.000000,0.000000,17.702239,0,0,0,0,0,0,0
8,89999,70,80000,0,20000,40,9999,0.100000,0,0,0.000000,5,0.000000,0.000000,0.127625,0,0,0,0,0,0,0
8,89999,71,80000,5,10000,40,9999,0.100000,0,0,0.000000,5,0.000000,0.000000,0.111956,0,0,0,0,0,0,0
8,89999,72,80000,5,10000,40,9999,0.100000,0,0,0.000000,5,0.000000,0.000000,4.326965,0,0,0,0,0,0,0
8,89999,73,80000,5,10000,40,9999,0.100000,0,0,0.000000,5,0.000000,0.000000,0.151915,0,0,0,0,0,0,0
8,89999,74,80000,0,20000,40,9999,0.100000,0,0,0.000000,5,0.000000,0.000000,0.238523,0,0,0,0,0,0,0
8,89999,75,80000,14,10000,40,9999,0.100000,0,0,0.000000,5,0.000000,0.000000,0.083253,0,0,0,0,0,0,0
8,89999,76,80000,0,0,40,9999,0.100000,0,0,0.000000,5,0.000000,0.000000,4.718284,0,0,0,0,0,0,0
8,89999,77,80000,92,20000,40,9999,0.100000,0,0,0.000000,5,0.000000,0.000000,1.910874,0,0,0,0,0,0,0
8,89999,78,80000,0,20000,40,9999,0.100000,0,0,0.000000,5,0.000000,0.000000,0.254946,0,0,0,0,0,0,0
8,89999,79,80000,5,10000,9,9999,0.100000,0,0,0.000000,5,1.000000,0.000000,1.681089,0,0,0,0,0,1,0
8,89999,80,80000,14,10000,40,9999,0.100000,0,0,0.000000,5,0.000000,0.000000,0.339520,0,0,0,0,0,0,0
8,89999,81,80000,92,20000,0,9999,0.100000,0,0,0.000000,5,0.000000,0.000000,1.160056,0,0,0,0,0,1,0
8,89999,82,80000,5,10000,40,9999,0.100000,0,0,0.000000,5,0.000000,0.000000,1.088175,0,0,0,0,0,0,0
8,89999,83,80000,0,20000,40,9999,0.100000,0,0,0.000000,5,0.000000,0.000000,3.849037,0,0,0,0,0,0,0
8,89999,84,80000,92,20000,49,9999,0.100000,0,0,0.000000,5,3.000000,0.000000,15.087912,0,0,0,0,0,0,0
8,89999,85,80000,0,20000,40,9999,0.100000,0,0,0.000000,5,0.000000,0.000000,0.533596,0,0,0,0,0,0,0
8,89999,86,80000,0,0,40,9999,0.100000,0,0,0.000000,5,0.000000,0.000000,0.689691,0,0,0,0,0,0,0
8,89999,87,80000,0,20000,49,9999,0.100000,0,0,0.000000,5,3.000000,0.000000,8.608542,0,0,0,0,0,0,0
8,89999,88,80000,5,10000,40,9999,0.100000,0,0,0.000000,5,0.000000,0.000000,0.269458,0,0,0,0,0,0,0
8,89999,89,80000,0,20000,40,9999,0.100000,0,0,0.000000,5,0.000000,0.000000,0.090944,0,0,0,0,0,0,0
8,89999,90,80000,0,20000,40,9999,0.100000,0,0,0.000000,5,0.000000,0.000000,0.452288,0,0,0,0,0,0,0
8,89999,91,80000,0,0,40,9999,0.100000,0,0,0.000000,5,0.000000,0.000000,17.964927,0,0,0,0,0,0,0
8,89999,92,80000,0,0,40,9999,0.100000,0,0,0.000000,5,0.000000,0.000000,1.138288,0,0,0,0,0,0,0
8,89999,93,80000,14,10000,40,9999,0.100000,0,0,0.000000,5,0.000000,0.000000,0.333995,0,0,0,0,0,0,0
8,89999,94,80000,14,10000,40,9999,0.100000,0,0,0.000000,5,0.000000,0.000000,0.139581,0,0,0,0,0,0,0
8,89999,95,80000,14,10000,40,9999,0.100000,0,0,0.000000,5,0.000000,0.000000,0.141775,0,0,0,0,0,0,0
8,89999,96,80000,0,0,0,9999,0.100000,0,0,0.000000,5,0.000000,0.000000,1.699910,0,0,0,0,0,1,0
8,89999,97,80000,14,10000,0,9999,0.100000,0,0,0.000000,5,0.000000,0.000000,6.971790,0,0,0,0,0,1,0
8,89999,98,80000,14,10000,40,9999,0.100000,0,0,0.000000,5,0.000000,0.000000,0.703959,0,0,0,0,0,0,0
8,89999,99,80000,5,10000,40,9999,0.100000,0,0,0.000000,5,0.000000,0.000000,0.221900,0,0,0,0,0,0,0
9,99999,0,90000,14,10000,40,9999,0.100000,0,0,0.000000,5,0.000000,0.000000,2.915206,0,0,0,0,0,0,0
9,99999,1,90000,14,10000,49,9999,0.100000,0,0,0.000000,5,1.000000,0.000000,1.166915,0,0,0,0,0,0,0
9,99999,2,90000,92,20000,40,9999,0.100000,0,0,0.000000,5,0.000000,0.000000,2.422834,0,0,0,0,0,0,0
9,99999,3,90000,14,10000,40,9999,0.100000,0,0,0.000000,5,0.000000,0.000000,2.943052,0,0,0,0,0,0,0
9,99999,4,90000,0,0,40,9999,0.100000,0,0,0.000000,5,0.000000,0.000000,0.108146,0,0,0,0,0,0,0
9,99999,5,90000,14,10000,40,9999,0.100000,0,0,0.000000,5,0.000000,0.000000,0.164352,0,0,0,0,0,0,0
9,99999,6,90000,92,20000,40,9999,0.100000,0,0,0.000000,5,0.000000,0.000000,0.302451,0,0,0,0,0,0,0
9,99999,7,90000,0,20000,40,9999,0.100000,0,0,0.000000,5,0.000000,0.000000,0.997051,0,0,0,0,0,0,0
9,99999,8,90000,0,0,40,9999,0.100000,0,0,0.000000,5,0.000000,0.000000,3.547693,0,0,0,0,0,0,0
9,99999,9,90000,92,20000,40,9999,0.100000,0,0,0.000000,5,0.000000,0.000000,1.168278,0,0,0,0,0,0,0
9,99999,10,90000,92,20000,40,9999,0.100000,0,0,0.000000,5,0.000000,0.000000,0.299952,0,0,0,0,0,0,0
9,99999,11,90000,0,20000,40,9999,0.100000,0,0,0.000000,5,0.000000,0.000000,0.086909,0,0,0,0,0,0,0
9,99999,12,90000,5,10000,49,9999,0.100000,0,0,0.000000,5,1.000000,0.000000,12.054831,0,0,0,0,0,0,0
9,99999,13,90000,5,10000,40,9999,0.100000,0,0,0.000000,5,0.000000,0.000000,0.104585,0,0,0,0,0,0,0
9,99999,14,90000,14,10000,40,9999,0.100000,0,0,0.000000,5,0.000000,0.000000,0.121207,0,0,0,0,0,0,0
9,99999,15,90000,0,20000,49,9999,0.100000,0,0,0.000000,5,5.000000,0.000000,6.848806,0,0,0,0,0,0,0
9,99999,16,90000,92,20000,40,9999,0.100000,0,0,0.000000,5,0.000000,0.000000,0.636759,0,0,0,0,0,0,0
9,99999,17,90000,0,20000,40,9999,0.100000,0,0,0.000000,5,0.000000,0.000000,0.348773,0,0,0,0,0,0,0
9,99999,18,90000,0,0,40,9999,0.100000,0,0,0.000000,5,0.000000,0.000000,1.062735,0,0,0,0,0,0,0
9,99999,19,90000,5,10000,40,9999,0.100000,0,0,0.000000,5,0.000000,0.000000,1.066819,0,0,0,0,0,0,0
9,99999,20,90000,0,20000,40,9999,0.100000,0,0,0.000000,5,0.000000,0.000000,0.324902,0,0,0,0,0,0,0
9,99999,21,90000,0,20000,40,9999,0.100000,0,0,0.000000,5,0.000000,0.000000,0.353489,0,0,0,0,0,0,0
9,99999,22,90000,14,10000,40,9999,0.100000,0,0,0.000000,5,0.000000,0.000000,0.214415,0,0,0,0,0,0,0
9,99999,23,90000,92,20000,40,9999,0.100000,0,0,0.000000,5,0.000000,0.000000,0.426907,0,0,0,0,0,0,0
9,99999,24,90000,92,20000,40,9999,0.100000,0,0,0.000000,5,0.000000,0.000000,0.718074,0,0,0,0,0,0,0
9,99999,25,90000,92,20000,40,9999,0.100000,0,0,0.000000,5,0.000000,0.000000,0.109486,0,0,0,0,0,0,0
9,99999,26,90000,92,20000,49,9999,0.100000,0,0,0.000000,5,1.000000,0.000000,1.313639,0,0,0,0,0,0,0
9,99999,27,90000,5,10000,40,9999,0.100000,0,0,0.000000,5,0.000000,0.000000,0.157573,0,0,0,0,0,0,0
9,99999,28,90000,5,10000,40,9999,0.100000,0,0,0.000000,5,0.000000,0.000000,0.755779,0,0,0,0,0,0,0
9,99999,29,90000,5,10000,40,9999,0.100000,0,0,0.000000,5,0.000000,0.000000,0.804822,0,0,0,0,0,0,0
9,99999,30,90000,0,20000,40,9999,0.100000,0,0,0.000000,5,0.000000,0.000000,0.242407,0,0,0,0,0,0,0
9,99999,31,90000,14,10000,40,9999,0.100000,0,0,0.000000,5,0.000000,0.000000,0.887543,0,0,0,0,0,0,0
9,99999,32,90000,0,0,40,9999,0.100000,0,0,0.000000,5,0.000000,0.000000,0.508524,0,0,0,0,0,0,0
9,99999,33,90000,92,20000,40,9999,0.100000,0,0,0.000000,5,0.000000,0.000000,1.103430,0,0,0,0,0,0,0
9,99999,34,90000,0,20000,40,9999,0.100000,0,0,0.000000,5,0.000000,0.000000,1.260392,0,0,0,0,0,0,0
9,99999,35,80000,5,10000,49,19999,0.100000,0,0,0.000000,5,1.000000,0.000000,2.349149,0,0,0,0,0,0,0
9,99999,36,90000,14,10000,40,9999,0.100000,0,0,0.000000,5,0.000000,0.000000,0.338911,0,0,0,0,0,0,0
9,99999,37,90000,0,20000,49,9999,0.100000,0,0,0.000000,5,6.000000,0.000000,10.537657,0,0,0,0,0,0,0
9,99999,38,90000,0,0,40,9999,0.100000,0,0,0.000000,5,0.000000,0.000000,0.282722,0,0,0,0,0,0,0
9,99999,39,90000,0,0,40,9999,0.100000,0,0,0.000000,5,0.000000,0.000000,1.903383,0,0,0,0,0,0,0
9,99999,40,90000,14,10000,40,9999,0.100000,0,0,0.000000,5,0.000000,0.000000,0.152061,0,0,0,0,0,0,0
9,99999,41,90000,5,10000,40,9999,0.100000,0,0,0.000000,5,0.000000,0.000000,0.094653,0,0,0,0,0,0,0
9,99999,42,80000,5,10000,40,19999,0.100000,0,0,0.000000,5,0.000000,0.000000,15.700452,0,0,0,0,0,0,0
9,99999,43,90000,0,0,40,9999,0.100000,0,0,0.000000,5,0.000000,0.000000,20.799182,0,0,0,0,0,0,0
9,99999,44,90000,5,10000,40,9999,0.100000,0,0,0.000000,5,0.000000,0.000000,1.346122,0,0,0,0,0,0,0
9,99999,45,90000,92,20000,49,9999,0.100000,0,0,0.000000,5,1.000000,0.000000,11.514432,0,0,0,0,0,0,0
9,99999,46,90000,0,20000,49,9999,0.100000,0,0,0.000000,5,1.000000,0.000000,1.275137,0,0,0,0,0,0,0
9,99999,47,90000,14,10000,40,9999,0.100000,0,0,0.000000,5,0.000000,0.000000,0.130844,0,0,0,0,0,0,0
9,99999,48,90000,92,20000,40,9999,0.100000,0,0,0.000000,5,0.000000,0.000000,0.174963,0,0,0,0,0,0,0
9,99999,49,90000,14,10000,40,9999,0.100000,0,0,0.000000,5,0.000000,0.000000,0.504456,0,0,0,0,0,0,0
9,99999,50,90000,92,20000,40,9999,0.100000,0,0,0.000000,5,0.000000,0.000000,1.726169,0,0,0,0,0,0,0
9,99999,51,90000,0,0,40,9999,0.100000,0,0,0.000000,5,0.000000,0.000000,0.091185,0,0,0,0,0,0,0
9,99999,52,90000,5,10000,40,9999,0.100000,0,0,0.000000,5,0.000000,0.000000,0.137241,0,0,0,0,0,0,0
9,99999,53,90000,0,0,40,9999,0.100000,0,0,0.000000,5,0.000000,0.000000,0.241117,0,0,0,0,0,0,0
9,99999,54,90000,14,10000,40,9999,0.100000,0,0,0.000000,5,0.000000,0.000000,1.195401,0,0,0,0,0,0,0
9,99999,55,90000,92,20000,49,9999,0.100000,0,0,0.000000,5,5.000000,0.000000,11.433865,0,0,0,0,0,0,0
9,99999,56,90000,0,0,40,9999,0.100000,0,0,0.000000,5,0.000000,0.000000,1.931621,0,0,0,0,0,0,0
9,99999,57,90000,0,0,40,9999,0.100000,0,0,0.000000,5,0.000000,0.000000,0.132257,0,0,0,0,0,0,0
9,99999,58,90000,92,20000,49,9999,0.100000,0,0,0.000000,5,1.000000,0.000000,1.023431,0,0,0,0,0,0,0
9,99999,59,90000,0,0,40,9999,0.100000,0,0,0.000000,5,0.000000,0.000000,0.499583,0,0,0,0,0,0,0
9,99999,60,90000,5,10000,40,9999,0.100000,0,0,0.000000,5,0.000000,0.000000,0.144775,0,0,0,0,0,0,0
9,99999,61,90000,0,0,40,9999,0.100000,0,0,0.000000,5,0.000000,0.000000,0.915776,0,0,0,0,0,0,0
9,99999,62,90000,14,10000,40,9999,0.100000,0,0,0.000000,5,0.000000,0.000000,0.303608,0,0,0,0,0,0,0
9,99999,63,90000,5,10000,49,9999,0.100000,0,0,0.000000,5,1.000000,0.000000,5.021095,0,0,0,0,0,0,0
9,99999,64,90000,0,0,49,9999,0.100000,0,0,0.000000,5,1.000000,0.000000,1.560310,0,0,0,0,0,0,0
9,99999,65,90000,0,0,40,9999,0.100000,0,0,0.000000,5,0.000000,0.000000,0.103167,0,0,0,0,0,0,0
9,99999,66,90000,0,20000,40,9999,0.100000,0,0,0.000000,5,0.000000,0.000000,0.344085,0,0,0,0,0,0,0
9,99999,67,90000,0,20000,40,9999,0.100000,0,0,0.000000,5,0.000000,0.000000,0.415194,0,0,0,0,0,0,0
9,99999,68,90000,0,0,49,9999,0.100000,0,0,0.000000,5,1.000000,0.000000,1.445544,0,0,0,0,0,0,0
9,99999,69,90000,14,10000,40,9999,0.100000,0,0,0.000000,5,0.000000,0.000000,0.253568,0,0,0,0,0,0,0
9,99999,70,90000,92,20000,40,9999,0.100000,0,0,0.000000,5,0.000000,0.000000,0.129712,0,0,0,0,0,0,0
9,99999,71,90000,14,10000,40,9999,0.100000,0,0,0.000000,5,0.000000,0.000000,0.097927,0,0,0,0,0,0,0
9,99999,72,90000,0,20000,40,9999,0.100000,0,0,0.000000,5,0.000000,0.000000,5.115366,0,0,0,0,0,0,0
9,99999,73,90000,92,20000,40,9999,0.100000,0,0,0.000000,5,0.000000,0.000000,0.150105,0,0,0,0,0,0,0
9,99999,74,90000,92,20000,40,9999,0.100000,0,0,0.000000,5,0.000000,0.000000,0.226108,0,0,0,0,0,0,0
9,99999,75,90000,0,20000,40,9999,0.100000,0,0,0.000000,5,0.000000,0.000000,0.083966,0,0,0,0,0,0,0
9,99999,76,90000,0,0,40,9999,0.100000,0,0,0.000000,5,0.000000,0.000000,6.584971,0,0,0,0,0,0,0
9,99999,77,90000,92,20000,40,9999,0.100000,0,0,0.000000,5,0.000000,0.000000,0.088959,0,0,0,0,0,0,0
9,99999,78,90000,92,20000,40,9999,0.100000,0,0,0.000000,5,0.000000,0.000000,0.239264,0,0,0,0,0,0,0
9,99999,79,90000,5,10000,40,9999,0.100000,0,0,0.000000,5,0.000000,0.000000,0.403911,0,0,0,0,0,0,0
9,99999,80,90000,92,20000,40,9999,0.100000,0,0,0.000000,5,0.000000,0.000000,0.333815,0,0,0,0,0,0,0
9,99999,81,90000,14,10000,40,9999,0.100000,0,0,0.000000,5,0.000000,0.000000,0.894510,0,0,0,0,0,0,0
9,99999,82,90000,0,0,40,9999,0.100000,0,0,0.000000,5,0.000000,0.000000,0.212634,0,0,0,0,0,0,0
9,99999,83,90000,0,0,49,9999,0.100000,0,0,0.000000,5,1.000000,0.000000,6.618503,0,0,0,0,0,0,0
9,99999,84,90000,5,10000,49,9999,0.100000,0,0,0.000000,5,3.000000,0.000000,12.837229,0,0,0,0,0,0,0
9,99999,85,90000,92,20000,49,9999,0.100000,0,0,0.000000,5,1.000000,0.000000,1.797632,0,0,0,0,0,0,0
9,99999,86,90000,0,0,40,9999,0.100000,0,0,0.000000,5,0.000000,0.000000,0.915265,0,0,0,0,0,0,0
9,99999,87,90000,0,0,49,9999,0.100000,0,0,0.000000,5,11.000000,0.000000,15.379176,0,0,0,0,0,0,0
9,99999,88,90000,14,10000,40,9999,0.100000,0,0,0.000000,5,0.000000,0.000000,0.227633,0,0,0,0,0,0,0
9,99999,89,90000,92,20000,40,9999,0.100000,0,0,0.000000,5,0.000000,0.000000,0.359681,0,0,0,0,0,0,0
9,99999,90,90000,0,0,49,9999,0.100000,0,0,0.000000,5,1.000000,0.000000,1.356120,0,0,0,0,0,0,0
9,99999,91,90000,14,10000,49,9999,0.100000,0,0,0.000000,5,1.000000,0.000000,1.131554,0,0,0,0,0,0,0
9,99999,92,90000,14,10000,40,9999,0.100000,0,0,0.000000,5,0.000000,0.000000,0.687576,0,0,0,0,0,0,0
9,99999,93,90000,92,20000,40,9999,0.100000,0,0,0.000000,5,0.000000,0.000000,0.424979,0,0,0,0,0,0,0
9,99999,94,90000,92,20000,40,9999,0.100000,0,0,0.000000,5,0.000000,0.000000,0.138695,0,0,0,0,0,0,0
9,99999,95,90000,0,0,40,9999,0.100000,0,0,0.000000,5,0.000000,0.000000,0.783214,0,0,0,0,0,0,0
9,99999,96,90000,92,20000,40,9999,0.100000,0,0,0.000000,5,0.000000,0.000000,0.951060,0,0,0,0,0,0,0
9,99999,97,90000,0,0,49,9999,0.100000,0,0,0.000000,5,3.000000,0.000000,10.388663,0,0,0,0,0,0,0
9,99999,98,90000,14,10000,40,9999,0.100000,0,0,0.000000,5,0.000000,0.000000,0.872266,0,0,0,0,0,0,0
9,99999,99,90000,0,0,49,9999,0.100000,0,0,0.000000,5,1.000000,0.000000,1.462192,0,0,0,0,0,0,0
10,109999,0,100000,92,20000,40,9999,0.100000,0,0,0.000000,5,0.000000,0.000000,2.820183,0,0,0,0,0,0,0
10,109999,1,100000,0,20000,40,9999,0.100000,0,0,0.000000,5,0.000000,0.000000,0.977961,0,0,0,0,0,0,0
10,109999,2,100000,14,10000,40,9999,0.100000,0,0,0.000000,5,0.000000,0.000000,2.649310,0,0,0,0,0,0,0
10,109999,3,100000,5,10000,40,9999,0.100000,0,0,0.000000,5,0.000000,0.000000,0.106826,0,0,0,0,0,0,0
10,109999,4,100000,14,10000,40,9999,0.100000,0,0,0.000000,5,0.000000,0.000000,0.109284,0,0,0,0,0,0,0
10,109999,5,100000,0,0,40,9999,0.100000,0,0,0.000000,5,0.000000,0.000000,0.144943,0,0,0,0,0,0,0
10,109999,6,100000,0,0,40,9999,0.100000,0,0,0.000000,5,0.000000,0.000000,0.130897,0,0,0,0,0,0,0
10,109999,7,100000,5,10000,40,9999,0.100000,0,0,0.000000,5,0.000000,0.000000,0.199272,0,0,0,0,0,0,0
10,109999,8,100000,5,10000,40,9999,0.100000,0,0,0.000000,5,0.000000,0.000000,3.757627,0,0,0,0,0,0,0
10,109999,9,100000,14,10000,40,9999,0.100000,0,0,0.000000,5,0.000000,0.000000,0.446198,0,0,0,0,0,0,0
10,109999,10,100000,0,20000,40,9999,0.100000,0,0,0.000000,5,0.000000,0.000000,0.254167,0,0,0,0,0,0,0
10,109999,11,100000,0,0,40,9999,0.100000,0,0,0.000000,5,0.000000,0.000000,0.276276,0,0,0,0,0,0,0
10,109999,12,100000,0,20000,49,9999,0.100000,0,0,0.000000,5,3.000000,0.000000,15.400536,0,0,0,0,0,0,0
10,109999,13,100000,92,20000,40,9999,0.100000,0,0,0.000000,5,0.000000,0.000000,0.108116,0,0,0,0,0,0,0
10,109999,14,100000,14,10000,40,9999,0.100000,0,0,0.000000,5,0.000000,0.000000,0.145636,0,0,0,0,0,0,0
10,109999,15,100000,0,0,40,9999,0.100000,0,0,0.000000,5,0.000000,0.000000,1.402357,0,0,0,0,0,0,0
10,109999,16,100000,14,10000,40,9999,0.100000,0,0,0.000000,5,0.000000,0.000000,0.474680,0,0,0,0,0,0,0
10,109999,17,100000,0,0,40,9999,0.065000,0,0,0.000000,5,0.000000,0.000000,1.086942,0,0,0,0,0,0,0
10,109999,18,100000,5,10000,40,9999,0.100000,0,0,0.000000,5,0.000000,0.000000,0.432535,0,0,0,0,0,0,0
10,109999,19,100000,5,10000,49,9999,0.100000,0,0,0.000000,5,1.000000,0.000000,1.911849,0,0,0,0,0,0,0
10,109999,20,100000,92,20000,40,9999,0.100000,0,0,0.000000,5,0.000000,0.000000,0.194310,0,0,0,0,0,0,0
10,109999,21,100000,0,0,40,9999,0.100000,0,0,0.000000,5,0.000000,0.000000,0.163886,0,0,0,0,0,0,0
10,109999,22,100000,0,0,40,9999,0.100000,0,0,0.000000,5,0.000000,0.000000,0.120329,0,0,0,0,0,0,0
10,109999,23,100000,14,10000,40,9999,0.100000,0,0,0.000000,5,0.000000,0.000000,0.675381,0,0,0,0,0,0,0
10,109999,24,100000,14,10000,40,9999,0.100000,0,0,0.000000,5,0.000000,0.000000,0.808012,0,0,0,0,0,0,0
10,109999,25,100000,14,10000,40,9999,0.100000,0,0,0.000000,5,0.000000,0.000000,0.108830,0,0,0,0,0,0,0
10,109999,26,100000,14,10000,40,9999,0.100000,0,0,0.000000,5,0.000000,0.000000,0.433087,0,0,0,0,0,0,0
10,109999,27,100000,0,20000,40,9999,0.100000,0,0,0.000000,5,0.000000,0.000000,0.156257,0,0,0,0,0,0,0
10,109999,28,100000,14,10000,40,9999,0.100000,0,0,0.000000,5,0.000000,0.000000,0.289550,0,0,0,0,0,0,0
10,109999,29,100000,14,10000,40,9999,0.100000,0,0,0.000000,5,0.000000,0.000000,0.311368,0,0,0,0,0,0,0
10,109999,30,100000,92,20000,40,9999,0.100000,0,0,0.000000,5,0.000000,0.000000,0.242143,0,0,0,0,0,0,0
10,109999,31,100000,92,20000,40,9999,0.100000,0,0,0.000000,5,0.000000,0.000000,0.451814,0,0,0,0,0,0,0
10,109999,32,100000,0,20000,40,9999,0.100000,0,0,0.000000,5,0.000000,0.000000,0.176977,0,0,0,0,0,0,0
10,109999,33,100000,0,20000,40,9999,0.100000,0,0,0.000000,5,0.000000,0.000000,0.872037,0,0,0,0,0,0,0
10,109999,34,100000,0,0,40,9999,0.100000,0,0,0.000000,5,0.000000,0.000000,2.174161,0,0,0,0,0,0,0
10,109999,35,100000,5,10000,40,9999,0.100000,0,0,0.000000,5,0.000000,0.000000,1.308910,0,0,0,0,0,0,0
10,109999,36,100000,0,0,40,9999,0.100000,0,0,0.000000,5,0.000000,0.000000,0.083980,0,0,0,0,0,0,0
10,109999,37,100000,14,10000,40,9999,0.100000,0,0,0.000000,5,0.000000,0.000000,1.193303,0,0,0,0,0,0,0
10,109999,38,100000,0,20000,40,9999,0.100000,0,0,0.000000,5,0.000000,0.000000,0.248631,0,0,0,0,0,0,0
10,109999,39,100000,92,20000,40,9999,0.100000,0,0,0.000000,5,0.000000,0.000000,2.923355,0,0,0,0,0,0,0
10,109999,40,100000,92,20000,40,9999,0.100000,0,0,0.000000,5,0.000000,0.000000,0.146349,0,0,0,0,0,0,0
10,109999,41,100000,0,20000,40,9999,0.100000,0,0,0.000000,5,0.000000,0.000000,0.160998,0,0,0,0,0,0,0
10,109999,42,100000,0,20000,40,9999,0.100000,0,0,0.000000,5,0.000000,0.000000,19.702203,0,0,0,0,0,0,0
10,109999,43,100000,5,10000,40,9999,0.100000,0,0,0.000000,5,0.000000,0.000000,20.650663,0,0,0,0,0,0,0
10,109999,44,100000,0,20000,40,9999,0.100000,0,0,0.000000,5,0.000000,0.000000,0.703281,0,0,0,0,0,0,0
10,109999,45,100000,0,0,49,9999,0.100000,0,0,0.000000,5,3.000000,0.000000,13.503774,0,0,0,0,0,0,0
10,109999,46,100000,92,20000,40,9999,0.100000,0,0,0.000000,5,0.000000,0.000000,1.140234,0,0,0,0,0,0,0
10,109999,47,100000,14,10000,40,9999,0.100000,0,0,0.000000,5,0.000000,0.000000,0.135142,0,0,0,0,0,0,0
10,109999,48,100000,0,20000,40,9999,0.100000,0,0,0.000000,5,0.000000,0.000000,0.121234,0,0,0,0,0,0,0
10,109999,49,100000,5,10000,40,9999,0.100000,0,0,0.000000,5,0.000000,0.000000,0.416012,0,0,0,0,0,0,0
10,109999,50,100000,14,10000,40,9999,0.100000,0,0,0.000000,5,0.000000,0.000000,0.494218,0,0,0,0,0,0,0
10,109999,51,100000,92,20000,40,9999,0.100000,0,0,0.000000,5,0.000000,0.000000,0.083509,0,0,0,0,0,0,0
10,109999,52,100000,0,20000,40,9999,0.100000,0,0,0.000000,5,0.000000,0.000000,0.132235,0,0,0,0,0,0,0
10,109999,53,100000,14,10000,40,9999,0.100000,0,0,0.000000,5,0.000000,0.000000,0.238008,0,0,0,0,0,0,0
10,109999,54,100000,0,20000,40,9999,0.100000,0,0,0.000000,5,0.000000,0.000000,2.735596,0,0,0,0,0,0,0
10,109999,55,100000,14,10000,49,9999,0.100000,0,0,0.000000,5,4.000000,0.000000,14.031898,0,0,0,0,0,0,0
10,109999,56,100000,0,0,49,9999,0.100000,0,0,0.000000,5,2.000000,0.000000,13.458120,0,0,0,0,0,0,0
10,109999,57,90000,0,0,40,19999,0.100000,0,0,0.000000,5,0.000000,0.000000,0.134792,0,0,0,0,0,0,0
10,109999,58,100000,0,0,40,9999,0.100000,0,0,0.000000,5,0.000000,0.000000,0.208841,0,0,0,0,0,0,0
10,109999,59,100000,5,10000,49,9999,0.100000,0,0,0.000000,5,4.000000,0.000000,9.325546,0,0,0,0,0,0,0
10,109999,60,100000,0,0,40,9999,0.100000,0,0,0.000000,5,0.000000,0.000000,0.254213,0,0,0,0,0,0,0
10,109999,61,100000,0,0,40,9999,0.100000,0,0,0.000000,5,0.000000,0.000000,0.916845,0,0,0,0,0,0,0
10,109999,62,100000,14,10000,40,9999,0.100000,0,0,0.000000,5,0.000000,0.000000,0.308837,0,0,0,0,0,0,0
10,109999,63,100000,14,10000,49,9999,0.100000,0,0,0.000000,5,1.000000,0.000000,7.570820,0,0,0,0,0,0,0
10,109999,64,100000,5,10000,40,9999,0.100000,0,0,0.000000,5,0.000000,0.000000,0.629664,0,0,0,0,0,0,0
10,109999,65,100000,92,20000,40,9999,0.100000,0,0,0.000000,5,0.000000,0.000000,0.109248,0,0,0,0,0,0,0
10,109999,66,100000,14,10000,40,9999,0.100000,0,0,0.000000,5,0.000000,0.000000,0.263779,0,0,0,0,0,0,0
10,109999,67,100000,14,10000,40,9999,0.100000,0,0,0.000000,5,0.000000,0.000000,0.114302,0,0,0,0,0,0,0
10,109999,68,100000,92,20000,40,9999,0.100000,0,0,0.000000,5,0.000000,0.000000,0.319243,0,0,0,0,0,0,0
10,109999,69,100000,0,0,40,9999,0.100000,0,0,0.000000,5,0.000000,0.000000,0.080183,0,0,0,0,0,0,0
10,109999,70,100000,5,10000,40,9999,0.100000,0,0,0.000000,5,0.000000,0.000000,0.131067,0,0,0,0,0,0,0
10,109999,71,100000,0,20000,40,9999,0.100000,0,0,0.000000,5,0.000000,0.000000,0.136313,0,0,0,0,0,0,0
10,109999,72,100000,0,20000,40,9999,0.100000,0,0,0.000000,5,0.000000,0.000000,0.573749,0,0,0,0,0,0,0
10,109999,73,100000,0,20000,40,9999,0.100000,0,0,0.000000,5,0.000000,0.000000,0.150111,0,0,0,0,0,0,0
10,109999,74,100000,5,10000,40,9999,0.100000,0,0,0.000000,5,0.000000,0.000000,0.230999,0,0,0,0,0,0,0
10,109999,75,100000,14,10000,40,9999,0.100000,0,0,0.000000,5,0.000000,0.000000,0.084434,0,0,0,0,0,0,0
10,109999,76,100000,14,10000,49,9999,0.100000,0,0,0.000000,5,1.000000,0.000000,2.277655,0,0,0,0,0,0,0
10,109999,77,100000,5,10000,40,9999,0.100000,0,0,0.000000,5,0.000000,0.000000,0.083400,0,0,0,0,0,0,0
10,109999,78,100000,5,10000,40,9999,0.100000,0,0,0.000000,5,0.000000,0.000000,0.678688,0,0,0,0,0,0,0
10,109999,79,100000,14,10000,40,9999,0.100000,0,0,0.000000,5,0.000000,0.000000,0.501025,0,0,0,0,0,0,0
10,109999,80,100000,0,20000,40,9999,0.100000,0,0,0.000000,5,0.000000,0.000000,0.363137,0,0,0,0,0,0,0
10,109999,81,100000,0,0,40,9999,0.100000,0,0,0.000000,5,0.000000,0.000000,0.731989,0,0,0,0,0,0,0
10,109999,82,100000,14,10000,40,9999,0.100000,0,0,0.000000,5,0.000000,0.000000,1.589798,0,0,0,0,0,0,0
10,109999,83,100000,0,0,49,9999,0.100000,0,0,0.000000,5,3.000000,0.000000,10.499776,0,0,0,0,0,0,0
10,109999,84,100000,92,20000,49,9999,0.100000,0,0,0.000000,5,2.000000,0.000000,13.135416,0,0,0,0,0,0,0
10,109999,85,100000,0,0,40,9999,0.100000,0,0,0.000000,5,0.000000,0.000000,0.610703,0,0,0,0,0,0,0
10,109999,86,100000,0,0,40,9999,0.100000,0,0,0.000000,5,0.000000,0.000000,0.187959,0,0,0,0,0,0,0
10,109999,87,100000,0,20000,40,9999,0.100000,0,0,0.000000,5,0.000000,0.000000,0.224020,0,0,0,0,0,0,0
10,109999,88,100000,14,10000,40,9999,0.100000,0,0,0.000000,5,0.000000,0.000000,0.272136,0,0,0,0,0,0,0
10,109999,89,100000,0,20000,40,9999,0.100000,0,0,0.000000,5,0.000000,0.000000,0.104408,0,0,0,0,0,0,0
10,109999,90,100000,0,20000,40,9999,0.100000,0,0,0.000000,5,0.000000,0.000000,1.322743,0,0,0,0,0,0,0
10,109999,91,100000,0,0,40,9999,0.100000,0,0,0.000000,5,0.000000,0.000000,0.930570,0,0,0,0,0,0,0
10,109999,92,100000,0,20000,40,9999,0.100000,0,0,0.000000,5,0.000000,0.000000,0.604088,0,0,0,0,0,0,0
10,109999,93,100000,0,20000,40,9999,0.100000,0,0,0.000000,5,0.000000,0.000000,0.199002,0,0,0,0,0,0,0
10,109999,94,100000,14,10000,40,9999,0.065000,0,0,0.000000,5,0.000000,0.000000,0.142347,0,0,0,0,0,0,0
10,109999,95,100000,0,0,40,9999,0.100000,0,0,0.000000,5,0.000000,0.000000,0.195401,0,0,0,0,0,0,0
10,109999,96,100000,92,20000,40,9999,0.100000,0,0,0.000000,5,0.000000,0.000000,0.771137,0,0,0,0,0,0,0
10,109999,97,100000,0,0,40,9999,0.100000,0,0,0.000000,5,0.000000,0.000000,0.475857,0,0,0,0,0,0,0
10,109999,98,100000,0,20000,40,9999,0.100000,0,0,0.000000,5,0.000000,0.000000,2.928818,0,0,0,0,0,0,0
10,109999,99,100000,92,20000,40,9999,0.100000,0,0,0.000000,5,0.000000,0.000000,0.829077,0,0,0,0,0,0,0
11,119999,0,110000,92,20000,49,9999,0.100000,0,0,0.000000,5,1.000000,0.000000,8.555670,0,0,0,0,0,0,0
11,119999,1,110000,0,0,40,9999,0.100000,0,0,0.000000,5,0.000000,0.000000,0.802527,0,0,0,0,0,0,0
11,119999,2,110000,0,20000,49,9999,0.100000,0,0,0.000000,5,1.000000,0.000000,2.977742,0,0,0,0,0,0,0
11,119999,3,110000,92,20000,40,9999,0.100000,0,0,0.000000,5,0.000000,0.000000,0.115452,0,0,0,0,0,0,0
11,119999,4,110000,92,20000,40,9999,0.135000,0,0,0.000000,5,0.000000,0.000000,0.126910,0,0,0,0,0,0,0
11,119999,5,110000,0,20000,40,9999,0.100000,0,0,0.000000,5,0.000000,0.000000,0.115751,0,0,0,0,0,0,0
11,119999,6,110000,14,10000,40,9999,0.100000,0,0,0.000000,5,0.000000,0.000000,0.112582,0,0,0,0,0,0,0
11,119999,7,110000,14,10000,40,9999,0.100000,0,0,0.000000,5,0.000000,0.000000,0.197307,0,0,0,0,0,0,0
11,119999,8,110000,92,20000,40,9999,0.100000,0,0,0.000000,5,0.000000,0.000000,3.547771,0,0,0,0,0,0,0
11,119999,9,110000,5,10000,40,9999,0.100000,0,0,0.000000,5,0.000000,0.000000,0.322433,0,0,0,0,0,0,0
11,119999,10,110000,92,20000,40,9999,0.100000,0,0,0.000000,5,0.000000,0.000000,0.232810,0,0,0,0,0,0,0
11,119999,11,110000,0,20000,40,9999,0.100000,0,0,0.000000,5,0.000000,0.000000,0.091340,0,0,0,0,0,0,0
11,119999,12,110000,0,0,40,9999,0.100000,0,0,0.000000,5,0.000000,0.000000,15.643845,0,0,0,0,0,0,0
11,119999,13,110000,14,10000,40,9999,0.100000,0,0,0.000000,5,0.000000,0.000000,0.107440,0,0,0,0,0,0,0
11,119999,14,110000,0,20000,40,9999,0.100000,0,0,0.000000,5,0.000000,0.000000,0.138459,0,0,0,0,0,0,0
11,119999,15,110000,92,20000,40,9999,0.100000,0,0,0.000000,5,0.000000,0.000000,0.947160,0,0,0,0,0,0,0
11,119999,16,110000,5,10000,40,9999,0.100000,0,0,0.000000,5,0.000000,0.000000,0.311780,0,0,0,0,0,0,0
11,119999,17,110000,5,10000,40,9999,0.100000,0,0,0.000000,5,0.000000,0.000000,1.473243,0,0,0,0,0,0,0
11,119999,18,110000,92,20000,40,9999,0.100000,0,0,0.000000,5,0.000000,0.000000,0.633530,0,0,0,0,0,0,0
11,119999,19,110000,92,20000,49,9999,0.100000,0,0,0.000000,5,5.000000,0.000000,11.233701,0,0,0,0,0,0,0
11,119999,20,110000,0,20000,40,9999,0.100000,0,0,0.000000,5,0.000000,0.000000,0.137078,0,0,0,0,0,0,0
11,119999,21,110000,14,10000,40,9999,0.100000,0,0,0.000000,5,0.000000,0.000000,0.182011,0,0,0,0,0,0,0
11,119999,22,110000,5,10000,40,9999,0.100000,0,0,0.000000,5,0.000000,0.000000,0.123184,0,0,0,0,0,0,0
11,119999,23,110000,14,10000,40,9999,0.100000,0,0,0.000000,5,0.000000,0.000000,0.270116,0,0,0,0,0,0,0
11,119999,24,110000,5,10000,40,9999,0.100000,0,0,0.000000,5,0.000000,0.000000,0.793638,0,0,0,0,0,0,0
11,119999,25,110000,92,20000,40,9999,0.100000,0,0,0.000000,5,0.000000,0.000000,0.108612,0,0,0,0,0,0,0
11,119999,26,110000,5,10000,40,9999,0.100000,0,0,0.000000,5,0.000000,0.000000,0.357666,0,0,0,0,0,0,0
11,119999,27,110000,92,20000,40,9999,0.100000,0,0,0.000000,5,0.000000,0.000000,0.153870,0,0,0,0,0,0,0
11,119999,28,110000,0,20000,40,9999,0.100000,0,0,0.000000,5,0.000000,0.000000,0.398424,0,0,0,0,0,0,0
11,119999,29,110000,92,20000,40,9999,0.100000,0,0,0.000000,5,0.000000,0.000000,0.366341,0,0,0,0,0,0,0
11,119999,30,110000,92,20000,40,9999,0.100000,0,0,0.000000,5,0.000000,0.000000,0.239904,0,0,0,0,0,0,0
11,119999,31,110000,5,10000,40,9999,0.100000,0,0,0.000000,5,0.000000,0.000000,0.504891,0,0,0,0,0,0,0
11,119999,32,110000,0,0,40,9999,0.100000,0,0,0.000000,5,0.000000,0.000000,0.160847,0,0,0,0,0,0,0
11,119999,33,110000,14,10000,49,9999,0.100000,0,0,0.000000,5,1.000000,0.000000,1.678333,0,0,0,0,0,0,0
11,119999,34,110000,14,10000,49,9999,0.100000,0,0,0.000000,5,3.000000,0.000000,15.969240,0,0,0,0,0,0,0
11,119999,35,110000,14,10000,40,9999,0.100000,0,0,0.000000,5,0.000000,0.000000,1.202006,0,0,0,0,0,0,0
11,119999,36,110000,14,10000,40,9999,0.100000,0,0,0.000000,5,0.000000,0.000000,0.067751,0,0,0,0,0,0,0
11,119999,37,110000,92,20000,40,9999,0.100000,0,0,0.000000,5,0.000000,0.000000,0.970932,0,0,0,0,0,0,0
11,119999,38,110000,5,10000,40,9999,0.100000,0,0,0.000000,5,0.000000,0.000000,0.238606,0,0,0,0,0,0,0
11,119999,39,110000,5,10000,49,9999,0.100000,0,0,0.000000,5,10.000000,0.000000,21.664906,0,0,0,0,0,0,0
11,119999,40,110000,5,10000,40,9999,0.100000,0,0,0.000000,5,0.000000,0.000000,0.148879,0,0,0,0,0,0,0
11,119999,41,110000,92,20000,40,9999,0.100000,0,0,0.000000,5,0.000000,0.000000,0.113215,0,0,0,0,0,0,0
11,119999,42,110000,5,10000,40,9999,0.100000,0,0,0.000000,5,0.000000,0.000000,20.607784,0,0,0,0,0,0,0
11,119999,43,110000,92,20000,40,9999,0.100000,0,0,0.000000,5,0.000000,0.000000,20.891949,0,0,0,0,0,0,0
11,119999,44,110000,92,20000,40,9999,0.100000,0,0,0.000000,5,0.000000,0.000000,0.695899,0,0,0,0,0,0,0
11,119999,45,110000,92,20000,49,9999,0.100000,0,0,0.000000,5,1.000000,0.000000,12.141471,0,0,0,0,0,0,0
11,119999,46,110000,5,10000,40,9999,0.100000,0,0,0.000000,5,0.000000,0.000000,1.008218,0,0,0,0,0,0,0
11,119999,47,110000,14,10000,40,9999,0.100000,0,0,0.000000,5,0.000000,0.000000,0.136392,0,0,0,0,0,0,0
11,119999,48,110000,0,20000,40,9999,0.100000,0,0,0.000000,5,0.000000,0.000000,0.136544,0,0,0,0,0,0,0
11,119999,49,110000,0,0,40,9999,0.100000,0,0,0.000000,5,0.000000,0.000000,0.575885,0,0,0,0,0,0,0
11,119999,50,110000,0,20000,40,9999,0.100000,0,0,0.000000,5,0.000000,0.000000,0.784543,0,0,0,0,0,0,0
11,119999,51,110000,0,0,40,9999,0.100000,0,0,0.000000,5,0.000000,0.000000,0.089255,0,0,0,0,0,0,0
11,119999,52,110000,5,10000,40,9999,0.100000,0,0,0.000000,5,0.000000,0.000000,0.125393,0,0,0,0,0,0,0
11,119999,53,110000,0,0,40,9999,0.100000,0,0,0.000000,5,0.000000,0.000000,0.242514,0,0,0,0,0,0,0
11,119999,54,110000,92,20000,40,9999,0.100000,0,0,0.000000,5,0.000000,0.000000,2.461931,0,0,0,0,0,0,0
11,119999,55,110000,92,20000,49,9999,0.100000,0,0,0.000000,5,12.000000,0.000000,39.404737,0,0,0,0,0,0,0
11,119999,56,110000,92,20000,40,9999,0.100000,0,0,0.000000,5,0.000000,0.000000,16.217006,0,0,0,0,0,0,0
11,119999,57,110000,0,20000,40,9999,0.100000,0,0,0.000000,5,0.000000,0.000000,0.136068,0,0,0,0,0,0,0
11,119999,58,110000,92,20000,40,9999,0.100000,0,0,0.000000,5,0.000000,0.000000,0.198038,0,0,0,0,0,0,0
11,119999,59,110000,14,10000,40,9999,0.100000,0,0,0.000000,5,0.000000,0.000000,0.541072,0,0,0,0,0,0,0
11,119999,60,110000,92,20000,40,9999,0.100000,0,0,0.000000,5,0.000000,0.000000,0.145509,0,0,0,0,0,0,0
11,119999,61,110000,5,10000,40,9999,0.100000,0,0,0.000000,5,0.000000,0.000000,0.574897,0,0,0,0,0,0,0
11,119999,62,110000,0,20000,40,9999,0.100000,0,0,0.000000,5,0.000000,0.000000,0.340599,0,0,0,0,0,0,0
11,119999,63,110000,5,10000,49,9999,0.100000,0,0,0.000000,5,8.000000,0.000000,11.978420,0,0,0,0,0,0,0
11,119999,64,110000,0,20000,40,9999,0.100000,0,0,0.000000,5,0.000000,0.000000,0.584825,0,0,0,0,0,0,0
11,119999,65,110000,14,10000,40,9999,0.100000,0,0,0.000000,5,0.000000,0.000000,0.106812,0,0,0,0,0,0,0
11,119999,66,110000,5,10000,40,9999,0.100000,0,0,0.000000,5,0.000000,0.000000,0.230629,0,0,0,0,0,0,0
11,119999,67,110000,0,20000,40,9999,0.100000,0,0,0.000000,5,0.000000,0.000000,0.172625,0,0,0,0,0,0,0
11,119999,68,110000,5,10000,40,9999,0.100000,0,0,0.000000,5,0.000000,0.000000,0.308078,0,0,0,0,0,0,0
11,119999,69,110000,92,20000,40,9999,0.100000,0,0,0.000000,5,0.000000,0.000000,0.540821,0,0,0,0,0,0,0
11,119999,70,110000,5,10000,40,9999,0.100000,0,0,0.000000,5,0.000000,0.000000,0.128264,0,0,0,0,0,0,0
11,119999,71,110000,0,20000,40,9999,0.100000,0,0,0.000000,5,0.000000,0.000000,0.091701,0,0,0,0,0,0,0
11,119999,72,110000,0,0,40,9999,0.100000,0,0,0.000000,5,0.000000,0.000000,0.575198,0,0,0,0,0,0,0
11,119999,73,110000,5,10000,40,9999,0.100000,0,0,0.000000,5,0.000000,0.000000,0.148118,0,0,0,0,0,0,0
11,119999,74,110000,0,0,40,9999,0.100000,0,0,0.000000,5,0.000000,0.000000,0.235676,0,0,0,0,0,0,0
11,119999,75,110000,0,20000,40,9999,0.100000,0,0,0.000000,5,0.000000,0.000000,0.085124,0,0,0,0,0,0,0
11,119999,76,110000,0,20000,49,9999,0.100000,0,0,0.000000,5,1.000000,0.000000,2.292358,0,0,0,0,0,0,0
11,119999,77,110000,0,0,49,9999,0.100000,0,0,0.000000,5,1.000000,0.000000,2.229173,0,0,0,0,0,0,0
11,119999,78,110000,5,10000,40,9999,0.100000,0,0,0.000000,5,0.000000,0.000000,0.587176,0,0,0,0,0,0,0
11,119999,79,110000,14,10000,40,9999,0.100000,0,0,0.000000,5,0.000000,0.000000,0.962654,0,0,0,0,0,0,0
11,119999,80,110000,0,20000,40,9999,0.100000,0,0,0.000000,5,0.000000,0.000000,0.444863,0,0,0,0,0,0,0
11,119999,81,110000,0,0,40,9999,0.100000,0,0,0.000000,5,0.000000,0.000000,0.644641,0,0,0,0,0,0,0
11,119999,82,110000,14,10000,40,9999,0.100000,0,0,0.000000,5,0.000000,0.000000,0.156954,0,0,0,0,0,0,0
11,119999,83,110000,92,20000,40,9999,0.065000,0,0,0.000000,5,0.000000,0.000000,0.939759,0,0,0,0,0,0,0
11,119999,84,110000,5,10000,49,9999,0.100000,0,0,0.000000,5,11.000000,0.000000,20.658821,0,0,0,0,0,0,0
11,119999,85,110000,92,20000,40,9999,0.100000,0,0,0.000000,5,0.000000,0.000000,0.669615,0,0,0,0,0,0,0
11,119999,86,110000,0,20000,40,9999,0.100000,0,0,0.000000,5,0.000000,0.000000,0.191561,0,0,0,0,0,0,0
11,119999,87,110000,14,10000,40,9999,0.100000,0,0,0.000000,5,0.000000,0.000000,0.224142,0,0,0,0,0,0,0
11,119999,88,110000,14,10000,40,9999,0.100000,0,0,0.000000,5,0.000000,0.000000,0.123698,0,0,0,0,0,0,0
11,119999,89,110000,0,20000,40,9999,0.100000,0,0,0.000000,5,0.000000,0.000000,0.386919,0,0,0,0,0,0,0
11,119999,90,110000,5,10000,40,9999,0.100000,0,0,0.000000,5,0.000000,0.000000,1.365069,0,0,0,0,0,0,0
11,119999,91,110000,5,10000,49,9999,0.100000,0,0,0.000000,5,2.000000,0.000000,5.254184,0,0,0,0,0,0,0
11,119999,92,110000,0,20000,49,9999,0.100000,0,0,0.000000,5,2.000000,0.000000,10.279004,0,0,0,0,0,0,0
11,119999,93,110000,0,0,40,9999,0.100000,0,0,0.000000,5,0.000000,0.000000,0.274982,0,0,0,0,0,0,0
11,119999,94,110000,0,20000,40,9999,0.100000,0,0,0.000000,5,0.000000,0.000000,1.087358,0,0,0,0,0,0,0
11,119999,95,110000,92,20000,40,9999,0.100000,0,0,0.000000,5,0.000000,0.000000,0.176090,0,0,0,0,0,0,0
11,119999,96,110000,0,20000,40,9999,0.100000,0,0,0.000000,5,0.000000,0.000000,0.534841,0,0,0,0,0,0,0
11,119999,97,110000,14,10000,40,9999,0.100000,0,0,0.000000,5,0.000000,0.000000,1.112375,0,0,0,0,0,0,0
11,119999,98,110000,14,10000,40,9999,0.100000,0,0,0.000000,5,0.000000,0.000000,2.665712,0,0,0,0,0,0,0
11,119999,99,110000,92,20000,40,9999,0.100000,0,0,0.000000,5,0.000000,0.000000,0.642426,0,0,0,0,0,0,0
12,129999,0,120000,0,0,40,9999,0.100000,0,0,0.000000,5,0.000000,0.000000,1.071782,0,0,0,0,0,0,0
12,129999,1,120000,0,0,40,9999,0.100000,0,0,0.000000,5,0.000000,0.000000,0.613257,0,0,0,0,0,0,0
12,129999,2,120000,0,20000,49,9999,0.100000,0,0,0.000000,5,4.000000,0.000000,12.793251,0,0,0,0,0,0,0
12,129999,3,120000,0,0,40,9999,0.100000,0,0,0.000000,5,0.000000,0.000000,0.138232,0,0,0,0,0,0,0
12,129999,4,120000,14,10000,40,9999,0.100000,0,0,0.000000,5,0.000000,0.000000,0.136994,0,0,0,0,0,0,0
12,129999,5,120000,0,20000,40,9999,0.100000,0,0,0.000000,5,0.000000,0.000000,0.422932,0,0,0,0,0,0,0
12,129999,6,120000,92,20000,40,9999,0.100000,0,0,0.000000,5,0.000000,0.000000,0.109508,0,0,0,0,0,0,0
12,129999,7,120000,92,110000,40,9999,0.100000,0,0,0.000000,5,0.000000,0.000000,0.211659,0,0,0,0,0,0,0
12,129999,8,120000,92,20000,40,9999,0.100000,0,0,0.000000,5,0.000000,0.000000,3.582309,0,0,0,0,0,0,0
12,129999,9,120000,92,20000,40,9999,0.100000,0,0,0.000000,5,0.000000,0.000000,0.324878,0,0,0,0,0,0,0
12,129999,10,120000,0,0,40,9999,0.100000,0,0,0.000000,5,0.000000,0.000000,0.229148,0,0,0,0,0,0,0
12,129999,11,120000,14,10000,40,9999,0.100000,0,0,0.000000,5,0.000000,0.000000,0.278797,0,0,0,0,0,0,0
12,129999,12,120000,92,20000,49,9999,0.100000,0,0,0.000000,5,4.000000,0.000000,10.252740,0,0,0,0,0,0,0
12,129999,13,120000,0,20000,40,9999,0.100000,0,0,0.000000,5,0.000000,0.000000,0.106049,0,0,0,0,0,0,0
12,129999,14,120000,92,110000,40,9999,0.100000,0,0,0.000000,5,0.000000,0.000000,0.149072,0,0,0,0,0,0,0
12,129999,15,120000,14,10000,40,9999,0.100000,0,0,0.000000,5,0.000000,0.000000,1.041550,0,0,0,0,0,0,0
12,129999,16,120000,0,20000,49,9999,0.100000,0,0,0.000000,5,2.000000,0.000000,3.455296,0,0,0,0,0,0,0
12,129999,17,120000,14,10000,40,9999,0.100000,0,0,0.000000,5,0.000000,0.000000,0.642658,0,0,0,0,0,0,0
12,129999,18,120000,5,10000,40,9999,0.100000,0,0,0.000000,5,0.000000,0.000000,0.824103,0,0,0,0,0,0,0
12,129999,19,120000,0,20000,49,9999,0.100000,0,0,0.000000,5,3.000000,0.000000,16.993231,0,0,0,0,0,0,0
12,129999,20,120000,92,20000,40,9999,0.100000,0,0,0.000000,5,0.000000,0.000000,0.732297,0,0,0,0,0,0,0
12,129999,21,120000,0,0,40,9999,0.100000,0,0,0.000000,5,0.000000,0.000000,0.163484,0,0,0,0,0,0,0
12,129999,22,120000,0,0,40,9999,0.100000,0,0,0.000000,5,0.000000,0.000000,0.140393,0,0,0,0,0,0,0
12,129999,23,120000,0,20000,40,9999,0.100000,0,0,0.000000,5,0.000000,0.000000,0.273027,0,0,0,0,0,0,0
12,129999,24,120000,14,10000,40,9999,0.100000,0,0,0.000000,5,0.000000,0.000000,0.813633,0,0,0,0,0,0,0
12,129999,25,120000,0,0,40,9999,0.100000,0,0,0.000000,5,0.000000,0.000000,0.126191,0,0,0,0,0,0,0
12,129999,26,120000,0,20000,40,9999,0.100000,0,0,0.000000,5,0.000000,0.000000,0.556348,0,0,0,0,0,0,0
12,129999,27,120000,0,0,40,9999,0.100000,0,0,0.000000,5,0.000000,0.000000,0.138645,0,0,0,0,0,0,0
12,129999,28,120000,5,10000,40,9999,0.100000,0,0,0.000000,5,0.000000,0.000000,0.878791,0,0,0,0,0,0,0
12,129999,29,120000,0,0,40,9999,0.100000,0,0,0.000000,5,0.000000,0.000000,0.290904,0,0,0,0,0,0,0
12,129999,30,120000,0,0,49,9999,0.100000,0,0,0.000000,5,1.000000,0.000000,3.503347,0,0,0,0,0,0,0
