generation,iteration,robot,birthday,ancestor_id,ancestor_birthday,cell_id,age,sigma,maps,genomes,fitness,cells_in_map,dist_max,dist_pot_max,dist_total,com_rx,com_tx,obj_group1,obj_group2,obj_group3,obj_group4,obj_group5
0,9999,0,0,0,0,1,9999,0.100000,0,0,0.000000,0,7.000000,0.000000,9.164608,0,0,0,0,0,0,0
0,9999,1,0,1,0,1,9999,0.100000,0,0,0.000000,0,10.000000,0.000000,16.468171,0,0,0,0,0,0,0
0,9999,2,0,2,0,1,9999,0.100000,0,0,0.000000,0,6.000000,0.000000,16.584539,0,0,0,0,0,0,0
0,9999,3,0,3,0,1,9999,0.100000,0,0,0.000000,0,9.000000,0.000000,12.097646,0,0,0,0,0,0,0
0,9999,4,0,4,0,1,9999,0.100000,0,0,0.000000,0,8.000000,0.000000,16.279456,0,0,0,0,0,0,0
0,9999,5,0,5,0,1,9999,0.100000,0,0,0.000000,0,4.000000,0.000000,5.437813,0,0,0,0,0,0,0
0,9999,6,0,6,0,1,9999,0.100000,0,0,0.000000,0,11.000000,0.000000,16.545668,0,0,0,0,0,0,0
0,9999,7,0,7,0,1,9999,0.100000,0,0,0.000000,0,6.000000,0.000000,6.577063,0,0,0,0,0,0,0
0,9999,8,0,8,0,1,9999,0.100000,0,0,0.000000,0,8.000000,0.000000,11.051606,0,0,0,0,0,0,0
0,9999,9,0,9,0,1,9999,0.100000,0,0,0.000000,0,9.000000,0.000000,11.564330,0,0,0,0,0,0,0
0,9999,10,0,10,0,1,9999,0.100000,0,0,0.000000,0,10.000000,0.000000,12.175515,0,0,0,0,0,0,0
0,9999,11,0,11,0,1,9999,0.100000,0,0,0.000000,0,8.000000,0.000000,18.698886,0,0,0,0,0,0,0
0,9999,12,0,12,0,1,9999,0.100000,0,0,0.000000,0,8.000000,0.000000,9.744474,0,0,0,0,0,0,0
0,9999,13,0,13,0,1,9999,0.100000,0,0,0.000000,0,6.000000,0.000000,7.305030,0,0,0,0,0,0,0
0,9999,14,0,14,0,1,9999,0.100000,0,0,0.000000,0,8.000000,0.000000,16.690917,0,0,0,0,0,0,0
0,9999,15,0,15,0,1,9999,0.100000,0,0,0.000000,0,3.000000,0.000000,5.803979,0,0,0,0,0,0,0
0,9999,16,0,16,0,3,9999,0.100000,0,0,47.368421,0,8.000000,0.000000,15.071194,0,0,1,0,0,0,0
0,9999,17,0,17,0,1,9999,0.100000,0,0,0.000000,0,10.000000,0.000000,12.184985,0,0,0,0,0,0,0
0,9999,18,0,18,0,1,9999,0.100000,0,0,0.000000,0,6.000000,0.000000,10.363131,0,0,0,0,0,0,0
0,9999,19,0,19,0,1,9999,0.100000,0,0,0.000000,0,8.000000,0.000000,9.305595,0,0,0,0,0,0,0
0,9999,20,0,20,0,1,9999,0.100000,0,0,0.000000,0,10.000000,0.000000,20.582202,0,0,0,0,0,0,0
0,9999,21,0,21,0,1,9999,0.100000,0,0,0.000000,0,7.000000,0.000000,9.371115,0,0,0,0,0,0,0
0,9999,22,0,22,0,1,9999,0.100000,0,0,0.000000,0,8.000000,0.000000,14.051293,0,0,0,0,0,0,0
0,9999,23,0,23,0,1,9999,0.100000,0,0,0.000000,0,9.000000,0.000000,13.859649,0,0,0,0,0,0,0
0,9999,24,0,24,0,1,9999,0.100000,0,0,0.000000,0,9.000000,0.000000,10.388915,0,0,0,0,0,0,0
0,9999,25,0,25,0,1,9999,0.100000,0,0,0.000000,0,6.000000,0.000000,9.146873,0,0,0,0,0,0,0
0,9999,26,0,26,0,1,9999,0.100000,0,0,0.000000,0,7.000000,0.000000,8.343878,0,0,0,0,0,0,0
0,9999,27,0,27,0,1,9999,0.100000,0,0,0.000000,0,9.000000,0.000000,17.747451,0,0,0,0,0,0,0
0,9999,28,0,28,0,1,9999,0.100000,0,0,0.000000,0,4.000000,0.000000,9.877768,0,0,0,0,0,0,0
0,9999,29,0,29,0,1,9999,0.100000,0,0,0.000000,0,11.000000,0.000000,37.168442,0,0,0,0,0,0,0
0,9999,30,0,30,0,1,9999,0.100000,0,0,0.000000,0,4.000000,0.000000,6.650592,0,0,0,0,0,0,0
0,9999,31,0,31,0,1,9999,0.100000,0,0,0.000000,0,8.000000,0.000000,13.572783,0,0,0,0,0,0,0
0,9999,32,0,32,0,1,9999,0.100000,0,0,0.000000,0,3.000000,0.000000,8.551926,0,0,0,0,0,0,0
0,9999,33,0,33,0,1,9999,0.100000,0,0,0.000000,0,5.000000,0.000000,6.705777,0,0,0,0,0,0,0
0,9999,34,0,34,0,1,9999,0.100000,0,0,0.000000,0,9.000000,0.000000,12.869397,0,0,0,0,0,0,0
0,9999,35,0,35,0,1,9999,0.100000,0,0,0.000000,0,8.000000,0.000000,11.560504,0,0,0,0,0,0,0
0,9999,36,0,36,0,1,9999,0.100000,0,0,0.000000,0,11.000000,0.000000,15.103807,0,0,0,0,0,0,0
0,9999,37,0,37,0,1,9999,0.100000,0,0,0.000000,0,6.000000,0.000000,6.856703,0,0,0,0,0,0,0
0,9999,38,0,38,0,1,9999,0.100000,0,0,0.000000,0,4.000000,0.000000,5.006734,0,0,0,0,0,0,0
0,9999,39,0,39,0,1,9999,0.100000,0,0,0.000000,0,9.000000,0.000000,11.538662,0,0,0,0,0,0,0
0,9999,40,0,40,0,1,9999,0.100000,0,0,0.000000,0,11.000000,0.000000,15.520453,0,0,0,0,0,0,0
0,9999,41,0,41,0,1,9999,0.100000,0,0,0.000000,0,3.000000,0.000000,5.511858,0,0,0,0,0,0,0
0,9999,42,0,42,0,1,9999,0.100000,0,0,0.000000,0,10.000000,0.000000,10.914826,0,0,0,0,0,0,0
0,9999,43,0,43,0,1,9999,0.100000,0,0,0.000000,0,10.000000,0.000000,20.315077,0,0,0,0,0,0,0
0,9999,44,0,44,0,1,9999,0.100000,0,0,0.000000,0,13.000000,0.000000,22.691775,0,0,0,0,0,0,0
0,9999,45,0,45,0,1,9999,0.100000,0,0,0.000000,0,11.000000,0.000000,13.385539,0,0,0,0,0,0,0
0,9999,46,0,46,0,1,9999,0.100000,0,0,0.000000,0,6.000000,0.000000,12.228770,0,0,0,0,0,0,0
0,9999,47,0,47,0,1,9999,0.100000,0,0,0.000000,0,10.000000,0.000000,10.981405,0,0,0,0,0,0,0
0,9999,48,0,48,0,1,9999,0.100000,0,0,0.000000,0,8.000000,0.000000,22.209236,0,0,0,0,0,0,0
0,9999,49,0,49,0,1,9999,0.100000,0,0,0.000000,0,9.000000,0.000000,15.648254,0,0,0,0,0,0,0
0,9999,50,0,50,0,1,9999,0.100000,0,0,0.000000,0,10.000000,0.000000,12.415548,0,0,0,0,0,0,0
0,9999,51,0,51,0,1,9999,0.100000,0,0,0.000000,0,9.000000,0.000000,15.524798,0,0,0,0,0,0,0
0,9999,52,0,52,0,1,9999,0.100000,0,0,0.000000,0,9.000000,0.000000,11.819265,0,0,0,0,0,0,0
0,9999,53,0,53,0,1,9999,0.100000,0,0,0.000000,0,5.000000,0.000000,12.644484,0,0,0,0,0,0,0
0,9999,54,0,54,0,1,9999,0.100000,0,0,0.000000,0,2.000000,0.000000,3.869573,0,0,0,0,0,0,0
0,9999,55,0,55,0,1,9999,0.100000,0,0,0.000000,0,9.000000,0.000000,24.545075,0,0,0,0,0,0,0
0,9999,56,0,56,0,1,9999,0.100000,0,0,0.000000,0,5.000000,0.000000,7.758749,0,0,0,0,0,0,0
0,9999,57,0,57,0,1,9999,0.100000,0,0,0.000000,0,8.000000,0.000000,23.654934,0,0,0,0,0,0,0
0,9999,58,0,58,0,1,9999,0.100000,0,0,0.000000,0,9.000000,0.000000,15.462960,0,0,0,0,0,0,0
0,9999,59,0,59,0,1,9999,0.100000,0,0,0.000000,0,8.000000,0.000000,14.524738,0,0,0,0,0,0,0
0,9999,60,0,60,0,1,9999,0.100000,0,0,0.000000,0,9.000000,0.000000,22.688476,0,0,0,0,0,0,0
0,9999,61,0,61,0,1,9999,0.100000,0,0,0.000000,0,4.000000,0.000000,9.479383,0,0,0,0,0,0,0
0,9999,62,0,62,0,1,9999,0.100000,0,0,0.000000,0,7.000000,0.000000,10.039815,0,0,0,0,0,0,0
0,9999,63,0,63,0,1,9999,0.100000,0,0,0.000000,0,5.000000,0.000000,5.330596,0,0,0,0,0,0,0
0,9999,64,0,64,0,1,9999,0.100000,0,0,0.000000,0,9.000000,0.000000,21.936060,0,0,0,0,0,0,0
0,9999,65,0,65,0,1,9999,0.100000,0,0,0.000000,0,8.000000,0.000000,15.383298,0,0,0,0,0,0,0
0,9999,66,0,66,0,1,9999,0.100000,0,0,0.000000,0,10.000000,0.000000,19.621439,0,0,0,0,0,0,0
0,9999,67,0,67,0,1,9999,0.100000,0,0,0.000000,0,6.000000,0.000000,12.510291,0,0,0,0,0,0,0
0,9999,68,0,68,0,1,9999,0.100000,0,0,0.000000,0,6.000000,0.000000,9.893094,0,0,0,0,0,0,0
0,9999,69,0,69,0,1,9999,0.100000,0,0,0.000000,0,6.000000,0.000000,6.650252,0,0,0,0,0,0,0
0,9999,70,0,70,0,1,9999,0.100000,0,0,0.000000,0,8.000000,0.000000,15.145736,0,0,0,0,0,0,0
0,9999,71,0,71,0,1,9999,0.100000,0,0,0.000000,0,5.000000,0.000000,6.775417,0,0,0,0,0,0,0
0,9999,72,0,72,0,1,9999,0.100000,0,0,0.000000,0,7.000000,0.000000,8.179481,0,0,0,0,0,0,0
0,9999,73,0,73,0,1,9999,0.100000,0,0,0.000000,0,11.000000,0.000000,16.764142,0,0,0,0,0,0,0
0,9999,74,0,74,0,1,9999,0.100000,0,0,0.000000,0,5.000000,0.000000,9.419362,0,0,0,0,0,0,0
0,9999,75,0,75,0,1,9999,0.100000,0,0,0.000000,0,5.000000,0.000000,5.797980,0,0,0,0,0,0,0
0,9999,76,0,76,0,1,9999,0.100000,0,0,0.000000,0,9.000000,0.000000,24.674858,0,0,0,0,0,0,0
0,9999,77,0,77,0,1,9999,0.100000,0,0,0.000000,0,7.000000,0.000000,8.850704,0,0,0,0,0,0,0
0,9999,78,0,78,0,1,9999,0.100000,0,0,0.000000,0,8.000000,0.000000,18.546689,0,0,0,0,0,0,0
0,9999,79,0,79,0,1,9999,0.100000,0,0,0.000000,0,4.000000,0.000000,10.928816,0,0,0,0,0,0,0
0,9999,80,0,80,0,1,9999,0.100000,0,0,0.000000,0,9.000000,0.000000,16.115996,0,0,0,0,0,0,0
0,9999,81,0,81,0,1,9999,0.100000,0,0,0.000000,0,9.000000,0.000000,13.466929,0,0,0,0,0,0,0
0,9999,82,0,82,0,1,9999,0.100000,0,0,0.000000,0,5.000000,0.000000,19.101272,0,0,0,0,0,0,0
0,9999,83,0,83,0,1,9999,0.100000,0,0,0.000000,0,4.000000,0.000000,11.897239,0,0,0,0,0,0,0
0,9999,84,0,84,0,1,9999,0.100000,0,0,0.000000,0,1.000000,0.000000,9.887657,0,0,0,0,0,0,0
0,9999,85,0,85,0,1,9999,0.100000,0,0,0.000000,0,8.000000,0.000000,14.892216,0,0,0,0,0,0,0
0,9999,86,0,86,0,1,9999,0.100000,0,0,0.000000,0,9.000000,0.000000,14.658454,0,0,0,0,0,0,0
0,9999,87,0,87,0,1,9999,0.100000,0,0,0.000000,0,3.000000,0.000000,11.270360,0,0,0,0,0,0,0
0,9999,88,0,88,0,1,9999,0.100000,0,0,0.000000,0,7.000000,0.000000,8.779099,0,0,0,0,0,0,0
0,9999,89,0,89,0,1,9999,0.100000,0,0,0.000000,0,7.000000,0.000000,13.886829,0,0,0,0,0,0,0
0,9999,90,0,90,0,1,9999,0.100000,0,0,0.000000,0,5.000000,0.000000,23.786687,0,0,0,0,0,0,0
0,9999,91,0,91,0,1,9999,0.100000,0,0,0.000000,0,7.000000,0.000000,22.089936,0,0,0,0,0,0,0
0,9999,92,0,92,0,1,9999,0.100000,0,0,0.000000,0,10.000000,0.000000,16.328246,0,0,0,0,0,0,0
0,9999,93,0,93,0,1,9999,0.100000,0,0,0.000000,0,8.000000,0.000000,20.525532,0,0,0,0,0,0,0
0,9999,94,0,94,0,1,9999,0.100000,0,0,0.000000,0,5.000000,0.000000,13.987035,0,0,0,0,0,0,0
0,9999,95,0,95,0,1,9999,0.100000,0,0,0.000000,0,7.000000,0.000000,9.338859,0,0,0,0,0,0,0
0,9999,96,0,96,0,1,9999,0.100000,0,0,0.000000,0,3.000000,0.000000,6.216105,0,0,0,0,0,0,0
0,9999,97,0,97,0,1,9999,0.100000,0,0,0.000000,0,6.000000,0.000000,7.069728,0,0,0,0,0,0,0
0,9999,98,0,98,0,1,9999,0.100000,0,0,0.000000,0,8.000000,0.000000,19.941259,0,0,0,0,0,0,0
0,9999,99,0,99,0,1,9999,0.100000,0,0,0.000000,0,3.000000,0.000000,13.704547,0,0,0,0,0,0,0
1,19999,0,10000,0,0,0,9999,0.100000,0,0,0.000000,1,0.000000,0.000000,1.769775,0,0,0,0,0,0,0
1,19999,1,10000,78,0,1,9999,0.100000,0,0,0.000000,1,3.000000,0.000000,7.803147,0,0,0,0,0,0,0
1,19999,2,10000,50,0,0,9999,0.100000,0,0,0.000000,2,0.000000,0.000000,4.665995,0,0,0,0,0,0,0
1,19999,3,10000,16,0,0,9999,0.100000,0,0,0.000000,2,0.000000,0.000000,1.140483,0,0,0,0,0,0,0
1,19999,4,10000,16,0,1,9999,0.100000,0,0,0.000000,2,1.000000,0.000000,2.533454,0,0,0,0,0,0,0
1,19999,5,10000,78,0,0,9999,0.100000,0,0,0.000000,1,0.000000,0.000000,0.163344,0,0,0,0,0,0,0
1,19999,6,10000,19,0,1,9999,0.100000,0,0,0.000000,1,2.000000,0.000000,3.006800,0,0,0,0,0,0,0
1,19999,7,10000,50,0,0,9999,0.100000,0,0,0.000000,2,0.000000,0.000000,0.460178,0,0,0,0,0,0,0
1,19999,8,10000,78,0,0,9999,0.100000,0,0,0.000000,1,0.000000,0.000000,0.824258,0,0,0,0,0,0,0
1,19999,9,10000,44,0,1,9999,0.100000,0,0,0.000000,2,2.000000,0.000000,6.033461,0,0,0,0,0,0,0
1,19999,10,10000,44,0,0,9999,0.100000,0,0,0.000000,2,0.000000,0.000000,0.178667,0,0,0,0,0,0,0
1,19999,11,10000,50,0,0,9999,0.100000,0,0,0.000000,1,0.000000,0.000000,2.414857,0,0,0,0,0,0,0
1,19999,12,10000,50,0,1,9999,0.100000,0,0,0.000000,1,4.000000,0.000000,6.867873,0,0,0,0,0,0,0
1,19999,13,10000,50,0,0,9999,0.100000,0,0,0.000000,1,0.000000,0.000000,0.950639,0,0,0,0,0,0,0
1,19999,14,10000,14,0,0,9999,0.100000,0,0,0.000000,1,0.000000,0.000000,7.764043,0,0,0,0,0,0,0
1,19999,15,10000,19,0,0,9999,0.100000,0,0,0.000000,1,0.000000,0.000000,0.256634,0,0,0,0,0,0,0
1,19999,16,10000,50,0,0,9999,0.100000,0,0,0.000000,2,0.000000,0.000000,6.991544,0,0,0,0,0,0,0
1,19999,17,10000,78,0,0,9999,0.100000,0,0,0.000000,1,0.000000,0.000000,0.939135,0,0,0,0,0,0,0
1,19999,18,10000,0,0,0,9999,0.100000,0,0,0.000000,1,0.000000,0.000000,2.953512,0,0,0,0,0,0,0
1,19999,19,10000,19,0,0,9999,0.100000,0,0,0.000000,1,0.000000,0.000000,0.833173,0,0,0,0,0,0,0
1,19999,20,10000,50,0,1,9999,0.100000,0,0,0.000000,1,2.000000,0.000000,11.795697,0,0,0,0,0,0,0
1,19999,21,10000,78,0,0,9999,0.100000,0,0,0.000000,1,0.000000,0.000000,0.132549,0,0,0,0,0,0,0
1,19999,22,10000,78,0,1,9999,0.100000,0,0,0.000000,1,1.000000,0.000000,9.648730,0,0,0,0,0,0,0
1,19999,23,10000,50,0,1,9999,0.100000,0,0,0.000000,1,2.000000,0.000000,6.442728,0,0,0,0,0,0,0
1,19999,24,10000,50,0,0,9999,0.100000,0,0,0.000000,1,0.000000,0.000000,0.081683,0,0,0,0,0,0,0
1,19999,25,10000,44,0,0,9999,0.100000,0,0,0.000000,2,0.000000,0.000000,0.110645,0,0,0,0,0,0,0
1,19999,26,10000,16,0,0,9999,0.100000,0,0,0.000000,2,0.000000,0.000000,0.192598,0,0,0,0,0,0,0
1,19999,27,10000,78,0,1,9999,0.100000,0,0,0.000000,1,2.000000,0.000000,7.952654,0,0,0,0,0,0,0
1,19999,28,10000,16,0,0,9999,0.100000,0,0,0.000000,2,0.000000,0.000000,1.053060,0,0,0,0,0,0,0
1,19999,29,10000,78,0,1,9999,0.100000,0,0,0.000000,1,1.000000,0.000000,6.455975,0,0,0,0,0,0,0
1,19999,30,10000,78,0,0,9999,0.100000,0,0,0.000000,1,0.000000,0.000000,0.162651,0,0,0,0,0,0,0
1,19999,31,10000,50,0,0,9999,0.100000,0,0,0.000000,1,0.000000,0.000000,0.147919,0,0,0,0,0,0,0
1,19999,32,10000,78,0,0,9999,0.100000,0,0,0.000000,1,0.000000,0.000000,0.075343,0,0,0,0,0,0,0
1,19999,33,10000,16,0,0,9999,0.100000,0,0,0.000000,2,0.000000,0.000000,1.374588,0,0,0,0,0,0,0
1,19999,34,10000,16,0,0,9999,0.100000,0,0,0.000000,2,0.000000,0.000000,0.096746,0,0,0,0,0,0,0
1,19999,35,10000,16,0,1,9999,0.100000,0,0,0.000000,2,1.000000,0.000000,5.950368,0,0,0,0,0,0,0
1,19999,36,10000,16,0,1,9999,0.100000,0,0,0.000000,2,4.000000,0.000000,7.438797,0,0,0,0,0,0,0
1,19999,37,10000,50,0,0,9999,0.100000,0,0,0.000000,2,0.000000,0.000000,0.116236,0,0,0,0,0,0,0
1,19999,38,10000,78,0,0,9999,0.100000,0,0,0.000000,1,0.000000,0.000000,0.502166,0,0,0,0,0,0,0
1,19999,39,10000,16,0,0,9999,0.100000,0,0,0.000000,2,0.000000,0.000000,0.599558,0,0,0,0,0,0,0
1,19999,40,10000,50,0,0,9999,0.100000,0,0,0.000000,2,0.000000,0.000000,1.925966,0,0,0,0,0,0,0
1,19999,41,10000,44,0,0,9999,0.100000,0,0,0.000000,2,0.000000,0.000000,0.895365,0,0,0,0,0,0,0
1,19999,42,10000,16,0,0,9999,0.100000,0,0,0.000000,2,0.000000,0.000000,0.076736,0,0,0,0,0,0,0
1,19999,43,10000,44,0,0,9999,0.100000,0,0,0.000000,2,0.000000,0.000000,0.768291,0,0,0,0,0,0,0
1,19999,44,10000,44,0,0,9999,0.100000,0,0,0.000000,2,0.000000,0.000000,0.211048,0,0,0,0,0,0,0
1,19999,45,10000,16,0,0,9999,0.100000,0,0,0.000000,2,0.000000,0.000000,0.092696,0,0,0,0,0,0,0
1,19999,46,10000,16,0,1,9999,0.100000,0,0,0.000000,2,1.000000,0.000000,11.022767,0,0,0,0,0,0,0
1,19999,47,10000,78,0,0,9999,0.100000,0,0,0.000000,1,0.000000,0.000000,1.973738,0,0,0,0,0,0,0
1,19999,48,10000,78,0,0,9999,0.100000,0,0,0.000000,1,0.000000,0.000000,1.359019,0,0,0,0,0,0,0
1,19999,49,10000,78,0,0,9999,0.100000,0,0,0.000000,1,0.000000,0.000000,1.533608,0,0,0,0,0,0,0
1,19999,50,10000,50,0,0,9999,0.100000,0,0,0.000000,1,0.000000,0.000000,0.339506,0,0,0,0,0,0,0
1,19999,51,10000,78,0,0,9999,0.100000,0,0,0.000000,1,0.000000,0.000000,4.222348,0,0,0,0,0,0,0
1,19999,52,10000,78,0,1,9999,0.100000,0,0,0.000000,1,5.000000,0.000000,11.351358,0,0,0,0,0,0,0
1,19999,53,10000,50,0,0,9999,0.100000,0,0,0.000000,1,0.000000,0.000000,2.892676,0,0,0,0,0,0,0
1,19999,54,10000,78,0,0,9999,0.100000,0,0,0.000000,1,0.000000,0.000000,0.073009,0,0,0,0,0,0,0
1,19999,55,10000,44,0,1,9999,0.100000,0,0,0.000000,2,8.000000,0.000000,20.415004,0,0,0,0,0,0,0
1,19999,56,10000,16,0,1,9999,0.100000,0,0,0.000000,2,4.000000,0.000000,4.628074,0,0,0,0,0,0,0
1,19999,57,10000,50,0,1,9999,0.100000,0,0,0.000000,1,1.000000,0.000000,2.532186,0,0,0,0,0,0,0
1,19999,58,10000,50,0,1,9999,0.100000,0,0,0.000000,1,1.000000,0.000000,10.487346,0,0,0,0,0,0,0
1,19999,59,10000,16,0,0,9999,0.100000,0,0,0.000000,2,0.000000,0.000000,1.458427,0,0,0,0,0,0,0
1,19999,60,10000,50,0,0,9999,0.100000,0,0,0.000000,1,0.000000,0.000000,8.451176,0,0,0,0,0,0,0
1,19999,61,10000,16,0,1,9999,0.100000,0,0,0.000000,2,2.000000,0.000000,6.611215,0,0,0,0,0,0,0
1,19999,62,10000,78,0,0,9999,0.100000,0,0,0.000000,1,0.000000,0.000000,1.066909,0,0,0,0,0,0,0
1,19999,63,10000,44,0,0,9999,0.100000,0,0,0.000000,2,0.000000,0.000000,0.091786,0,0,0,0,0,0,0
1,19999,64,10000,19,0,1,9999,0.100000,0,0,0.000000,1,5.000000,0.000000,12.437924,0,0,0,0,0,0,0
1,19999,65,10000,0,0,1,9999,0.100000,0,0,0.000000,1,1.000000,0.000000,9.567969,0,0,0,0,0,0,0
1,19999,66,10000,50,0,1,9999,0.100000,0,0,0.000000,1,4.000000,0.000000,11.853471,0,0,0,0,0,0,0
1,19999,67,10000,78,0,0,9999,0.100000,0,0,0.000000,1,0.000000,0.000000,3.219374,0,0,0,0,0,0,0
1,19999,68,10000,50,0,0,9999,0.100000,0,0,0.000000,1,0.000000,0.000000,0.780974,0,0,0,0,0,0,0
1,19999,69,10000,50,0,0,9999,0.100000,0,0,0.000000,2,0.000000,0.000000,0.629531,0,0,0,0,0,0,0
1,19999,70,10000,44,0,1,9999,0.100000,0,0,0.000000,2,1.000000,0.000000,3.973386,0,0,0,0,0,0,0
1,19999,71,10000,50,0,0,9999,0.100000,0,0,0.000000,1,0.000000,0.000000,0.720471,0,0,0,0,0,0,0
1,19999,72,10000,78,0,1,9999,0.100000,0,0,0.000000,1,6.000000,0.000000,12.291638,0,0,0,0,0,0,0
1,19999,73,10000,19,0,0,9999,0.100000,0,0,0.000000,1,0.000000,0.000000,0.840719,0,0,0,0,0,0,0
1,19999,74,10000,50,0,0,9999,0.100000,0,0,0.000000,1,0.000000,0.000000,1.679065,0,0,0,0,0,0,0
1,19999,75,10000,16,0,0,9999,0.100000,0,0,0.000000,2,0.000000,0.000000,0.069235,0,0,0,0,0,0,0
1,19999,76,10000,78,0,0,9999,0.100000,0,0,0.000000,1,0.000000,0.000000,1.761688,0,0,0,0,0,0,0
1,19999,77,10000,19,0,0,9999,0.100000,0,0,0.000000,1,0.000000,0.000000,0.174345,0,0,0,0,0,0,0
1,19999,78,10000,78,0,1,9999,0.100000,0,0,0.000000,1,2.000000,0.000000,3.090671,0,0,0,0,0,0,0
1,19999,79,10000,50,0,1,9999,0.100000,0,0,0.000000,2,1.000000,0.000000,6.283698,0,0,0,0,0,0,0
1,19999,80,10000,78,0,0,9999,0.100000,0,0,0.000000,1,0.000000,0.000000,2.065604,0,0,0,0,0,0,0
1,19999,81,10000,50,0,0,9999,0.100000,0,0,0.000000,1,0.000000,0.000000,1.341882,0,0,0,0,0,0,0
1,19999,82,10000,50,0,0,9999,0.100000,0,0,0.000000,2,0.000000,0.000000,5.055426,0,0,0,0,0,0,0
1,19999,83,10000,78,0,1,9999,0.100000,0,0,0.000000,1,4.000000,0.000000,21.865117,0,0,0,0,0,0,0
1,19999,84,10000,16,0,1,9999,0.100000,0,0,0.000000,2,1.000000,0.000000,4.428289,0,0,0,0,0,0,0
1,19999,85,10000,44,0,1,9999,0.100000,0,0,0.000000,2,4.000000,0.000000,4.428251,0,0,0,0,0,0,0
1,19999,86,10000,16,0,1,9999,0.100000,0,0,0.000000,2,1.000000,0.000000,5.065203,0,0,0,0,0,0,0
1,19999,87,10000,78,0,0,9999,0.100000,0,0,0.000000,1,0.000000,0.000000,0.369396,0,0,0,0,0,0,0
1,19999,88,10000,50,0,0,9999,0.100000,0,0,0.000000,1,0.000000,0.000000,1.872096,0,0,0,0,0,0,0
1,19999,89,10000,78,0,0,9999,0.100000,0,0,0.000000,1,0.000000,0.000000,1.466634,0,0,0,0,0,0,0
1,19999,90,10000,78,0,1,9999,0.100000,0,0,0.000000,1,3.000000,0.000000,4.893938,0,0,0,0,0,0,0
1,19999,91,10000,78,0,0,9999,0.100000,0,0,0.000000,1,0.000000,0.000000,0.447230,0,0,0,0,0,0,0
1,19999,92,10000,78,0,1,9999,0.100000,0,0,0.000000,1,4.000000,0.000000,5.829749,0,0,0,0,0,0,0
1,19999,93,10000,50,0,0,9999,0.100000,0,0,0.000000,1,0.000000,0.000000,3.445561,0,0,0,0,0,0,0
1,19999,94,10000,50,0,0,9999,0.100000,0,0,0.000000,2,0.000000,0.000000,5.132623,0,0,0,0,0,0,0
1,19999,95,10000,78,0,0,9999,0.100000,0,0,0.000000,1,0.000000,0.000000,0.082726,0,0,0,0,0,0,0
1,19999,96,10000,50,0,0,9999,0.100000,0,0,0.000000,1,0.000000,0.000000,5.402338,0,0,0,0,0,0,0
1,19999,97,10000,78,0,0,9999,0.100000,0,0,0.000000,1,0.000000,0.000000,0.129610,0,0,0,0,0,0,0
1,19999,98,10000,50,0,0,9999,0.100000,0,0,0.000000,2,0.000000,0.000000,0.168319,0,0,0,0,0,0,0
1,19999,99,10000,50,0,1,9999,0.100000,0,0,0.000000,1,1.000000,0.000000,6.595201,0,0,0,0,0,0,0
2,29999,0,20000,16,0,0,9999,0.100000,0,0,0.000000,3,0.000000,0.000000,0.673524,0,0,0,0,0,0,0
2,29999,1,20000,44,0,0,9999,0.100000,0,0,0.000000,3,0.000000,0.000000,0.877718,0,0,0,0,0,0,0
2,29999,2,20000,44,0,1,9999,0.100000,0,0,0.000000,3,1.000000,0.000000,11.281785,0,0,0,0,0,0,0
2,29999,3,20000,40,10000,0,9999,0.100000,0,0,0.000000,3,0.000000,0.000000,1.097589,0,0,0,0,0,0,0
2,29999,4,20000,40,10000,0,9999,0.100000,0,0,0.000000,3,0.000000,0.000000,0.147016,0,0,0,0,0,0,0
2,29999,5,20000,44,0,0,9999,0.100000,0,0,0.000000,3,0.000000,0.000000,0.083537,0,0,0,0,0,0,0
2,29999,6,20000,16,0,0,9999,0.100000,0,0,0.000000,3,0.000000,0.000000,0.751218,0,0,0,0,0,0,0
2,29999,7,20000,44,0,0,9999,0.100000,0,0,0.000000,3,0.000000,0.000000,0.620056,0,0,0,0,0,0,0
2,29999,8,20000,44,0,0,9999,0.100000,0,0,0.000000,3,0.000000,0.000000,0.955124,0,0,0,0,0,0,0
2,29999,9,20000,44,0,0,9999,0.100000,0,0,0.000000,2,0.000000,0.000000,0.996448,0,0,0,0,0,0,0
2,29999,10,20000,10,10000,0,9999,0.100000,0,0,0.000000,3,0.000000,0.000000,0.261801,0,0,0,0,0,0,0
2,29999,11,20000,16,0,0,9999,0.100000,0,0,0.000000,3,0.000000,0.000000,0.612103,0,0,0,0,0,0,0
2,29999,12,20000,44,0,0,9999,0.100000,0,0,0.000000,3,0.000000,0.000000,1.146679,0,0,0,0,0,0,0
2,29999,13,20000,10,10000,0,9999,0.100000,0,0,0.000000,3,0.000000,0.000000,1.118919,0,0,0,0,0,0,0
2,29999,14,20000,16,0,1,9999,0.100000,0,0,0.000000,3,3.000000,0.000000,11.860813,0,0,0,0,0,0,0
2,29999,15,20000,16,0,0,9999,0.100000,0,0,0.000000,3,0.000000,0.000000,0.281944,0,0,0,0,0,0,0
2,29999,16,20000,16,0,0,9999,0.100000,0,0,0.000000,3,0.000000,0.000000,1.366007,0,0,0,0,0,0,0
2,29999,17,20000,44,0,0,9999,0.100000,0,0,0.000000,3,0.000000,0.000000,0.878145,0,0,0,0,0,0,0
2,29999,18,20000,44,0,0,9999,0.100000,0,0,0.000000,3,0.000000,0.000000,2.063930,0,0,0,0,0,0,0
2,29999,19,20000,44,0,0,9999,0.100000,0,0,0.000000,3,0.000000,0.000000,0.093596,0,0,0,0,0,0,0
2,29999,20,20000,81,10000,1,9999,0.100000,0,0,0.000000,3,3.000000,0.000000,9.364921,0,0,0,0,0,0,0
2,29999,21,20000,16,0,0,9999,0.100000,0,0,0.000000,3,0.000000,0.000000,0.077501,0,0,0,0,0,0,0
2,29999,22,20000,16,0,1,9999,0.100000,0,0,0.000000,3,4.000000,0.000000,8.952061,0,0,0,0,0,0,0
2,29999,23,20000,16,0,0,9999,0.100000,0,0,0.000000,3,0.000000,0.000000,0.525636,0,0,0,0,0,0,0
2,29999,24,20000,40,10000,0,9999,0.100000,0,0,0.000000,3,0.000000,0.000000,0.072763,0,0,0,0,0,0,0
2,29999,25,20000,81,10000,0,9999,0.100000,0,0,0.000000,3,0.000000,0.000000,0.098033,0,0,0,0,0,0,0
2,29999,26,20000,44,0,0,9999,0.100000,0,0,0.000000,3,0.000000,0.000000,0.228997,0,0,0,0,0,0,0
2,29999,27,20000,16,0,1,9999,0.100000,0,0,0.000000,3,2.000000,0.000000,3.285506,0,0,0,0,0,0,0
2,29999,28,20000,44,0,0,9999,0.100000,0,0,0.000000,3,0.000000,0.000000,0.082179,0,0,0,0,0,0,0
2,29999,29,20000,16,0,1,9999,0.100000,0,0,0.000000,3,1.000000,0.000000,4.572122,0,0,0,0,0,0,0
2,29999,30,20000,44,0,0,9999,0.100000,0,0,0.000000,3,0.000000,0.000000,0.166054,0,0,0,0,0,0,0
2,29999,31,20000,16,0,0,9999,0.100000,0,0,0.000000,3,0.000000,0.000000,0.182195,0,0,0,0,0,0,0
2,29999,32,20000,81,10000,0,9999,0.100000,0,0,0.000000,3,0.000000,0.000000,0.105431,0,0,0,0,0,0,0
2,29999,33,20000,81,10000,0,9999,0.100000,0,0,0.000000,3,0.000000,0.000000,0.236602,0,0,0,0,0,0,0
2,29999,34,20000,44,0,0,9999,0.100000,0,0,0.000000,3,0.000000,0.000000,0.095786,0,0,0,0,0,0,0
2,29999,35,20000,44,0,0,9999,0.100000,0,0,0.000000,3,0.000000,0.000000,6.860464,0,0,0,0,0,0,0
2,29999,36,20000,16,0,1,9999,0.100000,0,0,0.000000,3,6.000000,0.000000,12.997548,0,0,0,0,0,0,0
2,29999,37,20000,16,0,0,9999,0.100000,0,0,0.000000,3,0.000000,0.000000,0.084604,0,0,0,0,0,0,0
2,29999,38,20000,10,10000,0,9999,0.100000,0,0,0.000000,3,0.000000,0.000000,0.100556,0,0,0,0,0,0,0
2,29999,39,20000,10,10000,0,9999,0.100000,0,0,0.000000,3,0.000000,0.000000,0.561480,0,0,0,0,0,0,0
2,29999,40,20000,44,0,0,9999,0.100000,0,0,0.000000,3,0.000000,0.000000,0.142962,0,0,0,0,0,0,0
2,29999,41,20000,81,10000,0,9999,0.100000,0,0,0.000000,3,0.000000,0.000000,0.126739,0,0,0,0,0,0,0
2,29999,42,20000,40,10000,0,9999,0.100000,0,0,0.000000,3,0.000000,0.000000,0.078677,0,0,0,0,0,0,0
2,29999,43,20000,44,0,0,9999,0.100000,0,0,0.000000,3,0.000000,0.000000,0.187835,0,0,0,0,0,0,0
2,29999,44,20000,44,0,0,9999,0.100000,0,0,0.000000,3,0.000000,0.000000,0.180846,0,0,0,0,0,0,0
2,29999,45,20000,16,0,0,9999,0.100000,0,0,0.000000,3,0.000000,0.000000,0.085212,0,0,0,0,0,0,0
2,29999,46,20000,44,0,1,9999,0.100000,0,0,0.000000,3,2.000000,0.000000,3.334368,0,0,0,0,0,0,0
2,29999,47,20000,44,0,0,9999,0.100000,0,0,0.000000,3,0.000000,0.000000,0.457391,0,0,0,0,0,0,0
2,29999,48,20000,44,0,0,9999,0.100000,0,0,0.000000,3,0.000000,0.000000,0.461503,0,0,0,0,0,0,0
2,29999,49,20000,16,0,0,9999,0.100000,0,0,0.000000,3,0.000000,0.000000,0.650029,0,0,0,0,0,0,0
2,29999,50,20000,44,0,0,9999,0.100000,0,0,0.000000,3,0.000000,0.000000,0.608781,0,0,0,0,0,0,0
2,29999,51,20000,16,0,1,9999,0.100000,0,0,0.000000,3,3.000000,0.000000,15.147875,0,0,0,0,0,0,0
2,29999,52,20000,44,0,0,9999,0.100000,0,0,0.000000,3,0.000000,0.000000,2.450581,0,0,0,0,0,0,0
2,29999,53,20000,40,10000,0,9999,0.100000,0,0,0.000000,3,0.000000,0.000000,2.560530,0,0,0,0,0,0,0
2,29999,54,20000,44,0,0,9999,0.100000,0,0,0.000000,3,0.000000,0.000000,0.561165,0,0,0,0,0,0,0
2,29999,55,20000,44,0,1,9999,0.100000,0,0,0.000000,3,2.000000,0.000000,13.022703,0,0,0,0,0,0,0
2,29999,56,20000,16,0,0,9999,0.100000,0,0,0.000000,3,0.000000,0.000000,1.115581,0,0,0,0,0,0,0
2,29999,57,20000,40,10000,0,9999,0.100000,0,0,0.000000,3,0.000000,0.000000,0.767996,0,0,0,0,0,0,0
2,29999,58,20000,44,0,1,9999,0.100000,0,0,0.000000,3,9.000000,0.000000,24.008204,0,0,0,0,0,0,0
2,29999,59,20000,44,0,0,9999,0.100000,0,0,0.000000,3,0.000000,0.000000,0.454363,0,0,0,0,0,0,0
2,29999,60,20000,16,0,1,9999,0.100000,0,0,0.000000,3,5.000000,0.000000,7.620104,0,0,0,0,0,0,0
2,29999,61,20000,16,0,0,9999,0.100000,0,0,0.000000,3,0.000000,0.000000,8.018260,0,0,0,0,0,0,0
2,29999,62,20000,16,0,0,9999,0.100000,0,0,0.000000,3,0.000000,0.000000,0.785711,0,0,0,0,0,0,0
2,29999,63,20000,16,0,0,9999,0.100000,0,0,0.000000,3,0.000000,0.000000,0.091163,0,0,0,0,0,0,0
2,29999,64,20000,10,10000,1,9999,0.100000,0,0,0.000000,3,1.000000,0.000000,3.699091,0,0,0,0,0,0,0
2,29999,65,20000,16,0,1,9999,0.100000,0,0,0.000000,3,1.000000,0.000000,2.237859,0,0,0,0,0,0,0
2,29999,66,20000,81,10000,1,9999,0.100000,0,0,0.000000,3,1.000000,0.000000,3.289454,0,0,0,0,0,0,0
2,29999,67,20000,10,10000,1,9999,0.100000,0,0,0.000000,3,3.000000,0.000000,18.728665,0,0,0,0,0,0,0
2,29999,68,20000,44,0,0,9999,0.100000,0,0,0.000000,3,0.000000,0.000000,1.616350,0,0,0,0,0,0,0
2,29999,69,20000,40,10000,0,9999,0.100000,0,0,0.000000,3,0.000000,0.000000,1.010350,0,0,0,0,0,0,0
2,29999,70,20000,10,10000,0,9999,0.100000,0,0,0.000000,3,0.000000,0.000000,0.368369,0,0,0,0,0,0,0
2,29999,71,20000,81,10000,0,9999,0.100000,0,0,0.000000,3,0.000000,0.000000,0.355892,0,0,0,0,0,0,0
2,29999,72,20000,44,0,0,9999,0.100000,0,0,0.000000,3,0.000000,0.000000,0.102986,0,0,0,0,0,0,0
2,29999,73,20000,16,0,1,9999,0.100000,0,0,0.000000,3,1.000000,0.000000,8.336796,0,0,0,0,0,0,0
2,29999,74,20000,40,10000,0,9999,0.100000,0,0,0.000000,3,0.000000,0.000000,11.315491,0,0,0,0,0,0,0
2,29999,75,20000,44,0,0,9999,0.100000,0,0,0.000000,3,0.000000,0.000000,0.069509,0,0,0,0,0,0,0
2,29999,76,20000,81,10000,0,9999,0.100000,0,0,0.000000,3,0.000000,0.000000,0.231242,0,0,0,0,0,0,0
2,29999,77,20000,16,0,0,9999,0.100000,0,0,0.000000,3,0.000000,0.000000,0.233051,0,0,0,0,0,0,0
2,29999,78,20000,44,0,0,9999,0.100000,0,0,0.000000,3,0.000000,0.000000,0.986763,0,0,0,0,0,0,0
2,29999,79,20000,16,0,1,9999,0.100000,0,0,0.000000,3,2.000000,0.000000,5.111543,0,0,0,0,0,0,0
2,29999,80,20000,44,0,0,9999,0.100000,0,0,0.000000,3,0.000000,0.000000,2.310351,0,0,0,0,0,0,0
2,29999,81,20000,16,0,0,9999,0.100000,0,0,0.000000,3,0.000000,0.000000,0.610899,0,0,0,0,0,0,0
2,29999,82,20000,44,0,1,9999,0.100000,0,0,0.000000,3,2.000000,0.000000,13.238017,0,0,0,0,0,0,0
2,29999,83,20000,16,0,1,9999,0.100000,0,0,0.000000,3,1.000000,0.000000,6.506886,0,0,0,0,0,0,0
2,29999,84,20000,40,10000,0,9999,0.100000,0,0,0.000000,3,0.000000,0.000000,0.129150,0,0,0,0,0,0,0
2,29999,85,20000,16,0,0,9999,0.100000,0,0,0.000000,3,0.000000,0.000000,0.900804,0,0,0,0,0,0,0
2,29999,86,20000,28,10000,0,9999,0.100000,0,0,0.000000,3,0.000000,0.000000,0.521536,0,0,0,0,0,0,0
2,29999,87,20000,81,10000,0,9999,0.100000,0,0,0.000000,3,0.000000,0.000000,0.327349,0,0,0,0,0,0,0
2,29999,88,20000,81,10000,1,9999,0.100000,0,0,0.000000,3,7.000000,0.000000,14.035796,0,0,0,0,0,0,0
2,29999,89,20000,16,0,0,9999,0.100000,0,0,0.000000,3,0.000000,0.000000,1.531043,0,0,0,0,0,0,0
2,29999,90,20000,40,10000,0,9999,0.100000,0,0,0.000000,3,0.000000,0.000000,0.855548,0,0,0,0,0,0,0
2,29999,91,20000,44,0,0,9999,0.100000,0,0,0.000000,3,0.000000,0.000000,0.095804,0,0,0,0,0,0,0
2,29999,92,20000,44,0,0,9999,0.100000,0,0,0.000000,3,0.000000,0.000000,0.446886,0,0,0,0,0,0,0
2,29999,93,20000,10,10000,1,9999,0.100000,0,0,0.000000,3,2.000000,0.000000,15.684559,0,0,0,0,0,0,0
2,29999,94,20000,16,0,1,9999,0.100000,0,0,0.000000,3,2.000000,0.000000,8.251217,0,0,0,0,0,0,0
2,29999,95,20000,16,0,0,9999,0.100000,0,0,0.000000,3,0.000000,0.000000,0.091964,0,0,0,0,0,0,0
2,29999,96,20000,44,0,0,9999,0.100000,0,0,0.000000,3,0.000000,0.000000,7.231764,0,0,0,0,0,0,0
2,29999,97,20000,44,0,0,9999,0.100000,0,0,0.000000,3,0.000000,0.000000,0.060620,0,0,0,0,0,0,0
2,29999,98,20000,44,0,1,9999,0.100000,0,0,0.000000,3,1.000000,0.000000,2.335034,0,0,0,0,0,0,0
2,29999,99,20000,44,0,1,9999,0.100000,0,0,0.000000,3,3.000000,0.000000,10.609298,0,0,0,0,0,0,0
3,39999,0,30000,55,20000,0,9999,0.100000,0,0,0.000000,3,0.000000,0.000000,1.377839,0,0,0,0,0,0,0
3,39999,1,30000,40,10000,0,9999,0.100000,0,0,0.000000,3,0.000000,0.000000,0.886459,0,0,0,0,0,0,0
3,39999,2,30000,40,10000,0,9999,0.100000,0,0,0.000000,3,0.000000,0.000000,5.282001,0,0,0,0,0,0,0
3,39999,3,30000,40,10000,0,9999,0.100000,0,0,0.000000,3,0.000000,0.000000,0.193002,0,0,0,0,0,0,0
3,39999,4,30000,44,0,0,9999,0.100000,0,0,0.000000,3,0.000000,0.000000,0.148031,0,0,0,0,0,0,0
3,39999,5,30000,40,10000,0,9999,0.100000,0,0,0.000000,3,0.000000,0.000000,0.223985,0,0,0,0,0,0,0
3,39999,6,30000,16,0,0,9999,0.100000,0,0,0.000000,3,0.000000,0.000000,0.706368,0,0,0,0,0,0,0
3,39999,7,30000,16,0,0,9999,0.100000,0,0,0.000000,3,0.000000,0.000000,0.626741,0,0,0,0,0,0,0
3,39999,8,30000,44,0,0,9999,0.100000,0,0,0.000000,3,0.000000,0.000000,1.099123,0,0,0,0,0,0,0
3,39999,9,30000,16,0,0,9999,0.100000,0,0,0.000000,3,0.000000,0.000000,0.953401,0,0,0,0,0,0,0
3,39999,10,30000,16,0,0,9999,0.100000,0,0,0.000000,3,0.000000,0.000000,0.360133,0,0,0,0,0,0,0
3,39999,11,30000,40,10000,0,9999,0.100000,0,0,0.000000,3,0.000000,0.000000,0.591836,0,0,0,0,0,0,0
3,39999,12,30000,55,20000,0,9999,0.100000,0,0,0.000000,3,0.000000,0.000000,0.880109,0,0,0,0,0,0,0
3,39999,13,30000,16,0,1,9999,0.100000,0,0,0.000000,3,2.000000,0.000000,3.101077,0,0,0,0,0,0,0
3,39999,14,30000,16,0,1,9999,0.100000,0,0,0.000000,3,2.000000,0.000000,2.622294,0,0,0,0,0,0,0
3,39999,15,30000,44,0,0,9999,0.100000,0,0,0.000000,3,0.000000,0.000000,0.216059,0,0,0,0,0,0,0
3,39999,16,30000,44,0,0,9999,0.100000,0,0,0.000000,3,0.000000,0.000000,0.873334,0,0,0,0,0,0,0
3,39999,17,30000,44,0,1,9999,0.100000,0,0,0.000000,3,1.000000,0.000000,7.060675,0,0,0,0,0,0,0
3,39999,18,30000,40,10000,0,9999,0.100000,0,0,0.000000,3,0.000000,0.000000,1.889577,0,0,0,0,0,0,0
3,39999,19,30000,55,20000,0,9999,0.100000,0,0,0.000000,3,0.000000,0.000000,0.100041,0,0,0,0,0,0,0
3,39999,20,30000,40,10000,0,9999,0.100000,0,0,0.000000,3,0.000000,0.000000,0.752381,0,0,0,0,0,0,0
3,39999,21,30000,40,10000,0,9999,0.100000,0,0,0.000000,3,0.000000,0.000000,0.076967,0,0,0,0,0,0,0
3,39999,22,30000,44,0,0,9999,0.100000,0,0,0.000000,3,0.000000,0.000000,7.019940,0,0,0,0,0,0,0
3,39999,23,30000,40,10000,0,9999,0.100000,0,0,0.000000,3,0.000000,0.000000,0.512569,0,0,0,0,0,0,0
3,39999,24,30000,55,20000,0,9999,0.100000,0,0,0.000000,3,0.000000,0.000000,0.079839,0,0,0,0,0,0,0
3,39999,25,30000,16,0,0,9999,0.100000,0,0,0.000000,3,0.000000,0.000000,0.173255,0,0,0,0,0,0,0
3,39999,26,30000,55,20000,0,9999,0.100000,0,0,0.000000,3,0.000000,0.000000,0.244473,0,0,0,0,0,0,0
3,39999,27,30000,40,10000,0,9999,0.100000,0,0,0.000000,3,0.000000,0.000000,0.100126,0,0,0,0,0,0,0
3,39999,28,30000,16,0,0,9999,0.100000,0,0,0.000000,3,0.000000,0.000000,0.093640,0,0,0,0,0,0,0
3,39999,29,30000,40,10000,0,9999,0.100000,0,0,0.000000,3,0.000000,0.000000,1.196860,0,0,0,0,0,0,0
3,39999,30,30000,44,0,0,9999,0.100000,0,0,0.000000,3,0.000000,0.000000,0.159941,0,0,0,0,0,0,0
3,39999,31,30000,40,10000,0,9999,0.100000,0,0,0.000000,3,0.000000,0.000000,0.282753,0,0,0,0,0,0,0
3,39999,32,30000,55,20000,0,9999,0.100000,0,0,0.000000,3,0.000000,0.000000,0.299882,0,0,0,0,0,0,0
3,39999,33,30000,55,20000,0,9999,0.100000,0,0,0.000000,3,0.000000,0.000000,0.290328,0,0,0,0,0,0,0
3,39999,34,30000,40,10000,0,9999,0.100000,0,0,0.000000,3,0.000000,0.000000,0.095634,0,0,0,0,0,0,0
3,39999,35,30000,40,10000,1,9999,0.100000,0,0,0.000000,3,2.000000,0.000000,2.781143,0,0,0,0,0,0,0
3,39999,36,30000,16,0,0,9999,0.100000,0,0,0.000000,3,0.000000,0.000000,0.940869,0,0,0,0,0,0,0
3,39999,37,30000,16,0,0,9999,0.100000,0,0,0.000000,3,0.000000,0.000000,0.083621,0,0,0,0,0,0,0
3,39999,38,30000,44,0,0,9999,0.100000,0,0,0.000000,3,0.000000,0.000000,0.158433,0,0,0,0,0,0,0
3,39999,39,30000,16,0,0,9999,0.100000,0,0,0.000000,3,0.000000,0.000000,0.523132,0,0,0,0,0,0,0
3,39999,40,30000,40,10000,0,9999,0.100000,0,0,0.000000,3,0.000000,0.000000,0.124149,0,0,0,0,0,0,0
3,39999,41,30000,44,0,0,9999,0.100000,0,0,0.000000,3,0.000000,0.000000,0.753276,0,0,0,0,0,0,0
3,39999,42,30000,55,20000,0,9999,0.100000,0,0,0.000000,3,0.000000,0.000000,0.077100,0,0,0,0,0,0,0
3,39999,43,30000,40,10000,0,9999,0.100000,0,0,0.000000,3,0.000000,0.000000,0.511033,0,0,0,0,0,0,0
3,39999,44,30000,40,10000,0,9999,0.100000,0,0,0.000000,3,0.000000,0.000000,0.142479,0,0,0,0,0,0,0
3,39999,45,30000,44,0,0,9999,0.100000,0,0,0.000000,3,0.000000,0.000000,0.087551,0,0,0,0,0,0,0
3,39999,46,30000,55,20000,0,9999,0.100000,0,0,0.000000,3,0.000000,0.000000,0.842000,0,0,0,0,0,0,0
3,39999,47,30000,44,0,0,9999,0.100000,0,0,0.000000,3,0.000000,0.000000,0.680435,0,0,0,0,0,0,0
3,39999,48,30000,55,20000,0,9999,0.100000,0,0,0.000000,3,0.000000,0.000000,0.539650,0,0,0,0,0,0,0
3,39999,49,30000,55,20000,0,9999,0.100000,0,0,0.000000,3,0.000000,0.000000,0.613782,0,0,0,0,0,0,0
3,39999,50,30000,44,0,0,9999,0.100000,0,0,0.000000,3,0.000000,0.000000,0.491966,0,0,0,0,0,0,0
3,39999,51,30000,40,10000,1,9999,0.100000,0,0,0.000000,3,2.000000,0.000000,2.894195,0,0,0,0,0,0,0
3,39999,52,30000,40,10000,0,9999,0.100000,0,0,0.000000,3,0.000000,0.000000,2.774229,0,0,0,0,0,0,0
3,39999,53,30000,44,0,0,9999,0.100000,0,0,0.000000,3,0.000000,0.000000,3.309843,0,0,0,0,0,0,0
3,39999,54,30000,44,0,1,9999,0.100000,0,0,0.000000,3,3.000000,0.000000,16.056341,0,0,0,0,0,0,0
3,39999,55,30000,16,0,0,9999,0.100000,0,0,0.000000,3,0.000000,0.000000,0.262820,0,0,0,0,0,0,0
3,39999,56,30000,44,0,0,9999,0.100000,0,0,0.000000,3,0.000000,0.000000,1.020427,0,0,0,0,0,0,0
3,39999,57,30000,44,0,0,9999,0.100000,0,0,0.000000,3,0.000000,0.000000,0.584675,0,0,0,0,0,0,0
3,39999,58,30000,16,0,1,9999,0.100000,0,0,0.000000,3,2.000000,0.000000,3.769502,0,0,0,0,0,0,0
3,39999,59,30000,16,0,0,9999,0.100000,0,0,0.000000,3,0.000000,0.000000,6.778127,0,0,0,0,0,0,0
3,39999,60,30000,40,10000,0,9999,0.100000,0,0,0.000000,3,0.000000,0.000000,2.051743,0,0,0,0,0,0,0
3,39999,61,30000,40,10000,1,9999,0.100000,0,0,0.000000,3,3.000000,0.000000,6.332117,0,0,0,0,0,0,0
3,39999,62,30000,16,0,1,9999,0.100000,0,0,0.000000,3,2.000000,0.000000,2.722190,0,0,0,0,0,0,0
3,39999,63,30000,16,0,0,9999,0.100000,0,0,0.000000,3,0.000000,0.000000,0.089040,0,0,0,0,0,0,0
3,39999,64,30000,44,0,0,9999,0.100000,0,0,0.000000,3,0.000000,0.000000,1.023083,0,0,0,0,0,0,0
3,39999,65,30000,40,10000,0,9999,0.100000,0,0,0.000000,3,0.000000,0.000000,0.573392,0,0,0,0,0,0,0
3,39999,66,30000,55,20000,0,9999,0.100000,0,0,0.000000,3,0.000000,0.000000,15.549279,0,0,0,0,0,0,0
3,39999,67,30000,16,0,1,9999,0.100000,0,0,0.000000,3,2.000000,0.000000,3.393098,0,0,0,0,0,0,0
3,39999,68,30000,44,0,0,9999,0.100000,0,0,0.000000,3,0.000000,0.000000,0.763385,0,0,0,0,0,0,0
3,39999,69,30000,40,10000,0,9999,0.100000,0,0,0.000000,3,0.000000,0.000000,1.714653,0,0,0,0,0,0,0
3,39999,70,30000,40,10000,0,9999,0.100000,0,0,0.000000,3,0.000000,0.000000,0.714770,0,0,0,0,0,0,0
3,39999,71,30000,40,10000,0,9999,0.100000,0,0,0.000000,3,0.000000,0.000000,0.346905,0,0,0,0,0,0,0
3,39999,72,30000,44,0,1,9999,0.065000,0,0,0.000000,3,6.000000,0.000000,12.211799,0,0,0,0,0,0,0
3,39999,73,30000,55,20000,0,9999,0.100000,0,0,0.000000,3,0.000000,0.000000,0.746049,0,0,0,0,0,0,0
3,39999,74,30000,55,20000,0,9999,0.100000,0,0,0.000000,3,0.000000,0.000000,5.369125,0,0,0,0,0,0,0
3,39999,75,30000,40,10000,1,9999,0.100000,0,0,0.000000,3,4.000000,0.000000,8.321443,0,0,0,0,0,0,0
3,39999,76,30000,55,20000,0,9999,0.100000,0,0,0.000000,3,0.000000,0.000000,0.232241,0,0,0,0,0,0,0
3,39999,77,30000,16,0,0,9999,0.100000,0,0,0.000000,3,0.000000,0.000000,0.272732,0,0,0,0,0,0,0
3,39999,78,30000,44,0,0,9999,0.100000,0,0,0.000000,3,0.000000,0.000000,1.223714,0,0,0,0,0,0,0
3,39999,79,30000,16,0,0,9999,0.100000,0,0,0.000000,3,0.000000,0.000000,0.712153,0,0,0,0,0,0,0
3,39999,80,30000,16,0,1,9999,0.100000,0,0,0.000000,3,1.000000,0.000000,3.185018,0,0,0,0,0,0,0
3,39999,81,30000,40,10000,1,9999,0.100000,0,0,0.000000,3,1.000000,0.000000,3.538293,0,0,0,0,0,0,0
3,39999,82,30000,16,0,1,9999,0.100000,0,0,0.000000,3,1.000000,0.000000,13.126902,0,0,0,0,0,0,0
3,39999,83,30000,44,0,1,9999,0.100000,0,0,0.000000,3,3.000000,0.000000,14.317001,0,0,0,0,0,0,0
3,39999,84,30000,16,0,0,9999,0.100000,0,0,0.000000,3,0.000000,0.000000,0.255336,0,0,0,0,0,0,0
3,39999,85,30000,16,0,0,9999,0.100000,0,0,0.000000,3,0.000000,0.000000,0.971803,0,0,0,0,0,0,0
3,39999,86,30000,40,10000,0,9999,0.100000,0,0,0.000000,3,0.000000,0.000000,0.519052,0,0,0,0,0,0,0
3,39999,87,30000,55,20000,0,9999,0.100000,0,0,0.000000,3,0.000000,0.000000,0.762117,0,0,0,0,0,0,0
3,39999,88,30000,40,10000,1,9999,0.100000,0,0,0.000000,3,1.000000,0.000000,1.876014,0,0,0,0,0,0,0
3,39999,89,30000,40,10000,0,9999,0.100000,0,0,0.000000,3,0.000000,0.000000,2.849992,0,0,0,0,0,0,0
3,39999,90,30000,40,10000,0,9999,0.100000,0,0,0.000000,3,0.000000,0.000000,0.981892,0,0,0,0,0,0,0
3,39999,91,30000,40,10000,0,9999,0.100000,0,0,0.000000,3,0.000000,0.000000,0.095563,0,0,0,0,0,0,0
3,39999,92,30000,55,20000,0,9999,0.100000,0,0,0.000000,3,0.000000,0.000000,0.348366,0,0,0,0,0,0,0
3,39999,93,30000,40,10000,1,9999,0.100000,0,0,0.000000,3,2.000000,0.000000,6.291887,0,0,0,0,0,0,0
3,39999,94,30000,16,0,0,9999,0.100000,0,0,0.000000,3,0.000000,0.000000,0.745518,0,0,0,0,0,0,0
3,39999,95,30000,16,0,0,9999,0.100000,0,0,0.000000,3,0.000000,0.000000,0.093847,0,0,0,0,0,0,0
3,39999,96,30000,44,0,1,9999,0.100000,0,0,0.000000,3,2.000000,0.000000,7.179407,0,0,0,0,0,0,0
3,39999,97,30000,55,20000,0,9999,0.100000,0,0,0.000000,3,0.000000,0.000000,0.061392,0,0,0,0,0,0,0
3,39999,98,30000,55,20000,1,9999,0.100000,0,0,0.000000,3,2.000000,0.000000,3.192764,0,0,0,0,0,0,0
3,39999,99,30000,40,10000,0,9999,0.100000,0,0,0.000000,3,0.000000,0.000000,0.166608,0,0,0,0,0,0,0
4,49999,0,40000,40,10000,0,9999,0.100000,0,0,0.000000,3,0.000000,0.000000,7.025430,0,0,0,0,0,0,0
4,49999,1,40000,16,0,0,9999,0.100000,0,0,0.000000,3,0.000000,0.000000,7.719727,0,0,0,0,0,0,0
4,49999,2,40000,16,0,1,9999,0.100000,0,0,0.000000,3,3.000000,0.000000,14.751474,0,0,0,0,0,0,0
4,49999,3,40000,55,20000,0,9999,0.100000,0,0,0.000000,3,0.000000,0.000000,0.133499,0,0,0,0,0,0,0
4,49999,4,40000,40,10000,0,9999,0.100000,0,0,0.000000,3,0.000000,0.000000,0.131702,0,0,0,0,0,0,0
4,49999,5,40000,40,10000,0,9999,0.100000,0,0,0.000000,3,0.000000,0.000000,0.187802,0,0,0,0,0,0,0
4,49999,6,40000,55,20000,0,9999,0.100000,0,0,0.000000,3,0.000000,0.000000,0.923848,0,0,0,0,0,0,0
4,49999,7,40000,16,0,0,9999,0.100000,0,0,0.000000,3,0.000000,0.000000,0.977398,0,0,0,0,0,0,0
4,49999,8,40000,16,0,0,9999,0.100000,0,0,0.000000,3,0.000000,0.000000,1.350049,0,0,0,0,0,0,0
4,49999,9,40000,16,0,0,9999,0.065000,0,0,0.000000,3,0.000000,0.000000,0.943249,0,0,0,0,0,0,0
4,49999,10,40000,40,10000,0,9999,0.100000,0,0,0.000000,3,0.000000,0.000000,0.085019,0,0,0,0,0,0,0
4,49999,11,40000,55,20000,0,9999,0.100000,0,0,0.000000,3,0.000000,0.000000,1.339998,0,0,0,0,0,0,0
4,49999,12,40000,16,0,0,9999,0.100000,0,0,0.000000,3,0.000000,0.000000,7.041387,0,0,0,0,0,0,0
4,49999,13,40000,40,10000,1,9999,0.100000,0,0,0.000000,3,1.000000,0.000000,12.360544,0,0,0,0,0,0,0
4,49999,14,40000,55,20000,0,9999,0.100000,0,0,0.000000,3,0.000000,0.000000,2.270269,0,0,0,0,0,0,0
4,49999,15,40000,55,20000,0,9999,0.100000,0,0,0.000000,3,0.000000,0.000000,0.207632,0,0,0,0,0,0,0
4,49999,16,40000,55,20000,0,9999,0.100000,0,0,0.000000,3,0.000000,0.000000,0.912777,0,0,0,0,0,0,0
4,49999,17,40000,16,0,1,9999,0.100000,0,0,0.000000,3,5.000000,0.000000,16.588670,0,0,0,0,0,0,0
4,49999,18,40000,16,0,0,9999,0.100000,0,0,0.000000,3,0.000000,0.000000,1.619371,0,0,0,0,0,0,0
4,49999,19,40000,40,10000,0,9999,0.100000,0,0,0.000000,3,0.000000,0.000000,0.095861,0,0,0,0,0,0,0
4,49999,20,40000,55,20000,0,9999,0.100000,0,0,0.000000,3,0.000000,0.000000,1.015742,0,0,0,0,0,0,0
4,49999,21,40000,55,20000,0,9999,0.100000,0,0,0.000000,3,0.000000,0.000000,0.078868,0,0,0,0,0,0,0
4,49999,22,40000,55,20000,1,9999,0.100000,0,0,0.000000,3,1.000000,0.000000,5.559126,0,0,0,0,0,0,0
4,49999,23,40000,55,20000,0,9999,0.100000,0,0,0.000000,3,0.000000,0.000000,0.415170,0,0,0,0,0,0,0
4,49999,24,40000,16,0,0,9999,0.100000,0,0,0.000000,3,0.000000,0.000000,0.077671,0,0,0,0,0,0,0
4,49999,25,40000,40,10000,0,9999,0.100000,0,0,0.000000,3,0.000000,0.000000,0.192758,0,0,0,0,0,0,0
4,49999,26,40000,40,10000,0,9999,0.100000,0,0,0.000000,3,0.000000,0.000000,0.122891,0,0,0,0,0,0,0
4,49999,27,40000,16,0,0,9999,0.100000,0,0,0.000000,3,0.000000,0.000000,0.146161,0,0,0,0,0,0,0
4,49999,28,40000,40,10000,0,9999,0.100000,0,0,0.000000,3,0.000000,0.000000,0.749831,0,0,0,0,0,0,0
4,49999,29,40000,55,20000,0,9999,0.100000,0,0,0.000000,3,0.000000,0.000000,1.249521,0,0,0,0,0,0,0
4,49999,30,40000,16,0,0,9999,0.100000,0,0,0.000000,3,0.000000,0.000000,0.173182,0,0,0,0,0,0,0
4,49999,31,40000,40,10000,0,9999,0.100000,0,0,0.000000,3,0.000000,0.000000,0.151287,0,0,0,0,0,0,0
4,49999,32,40000,55,20000,0,9999,0.100000,0,0,0.000000,3,0.000000,0.000000,0.650860,0,0,0,0,0,0,0
4,49999,33,40000,16,0,0,9999,0.100000,0,0,0.000000,3,0.000000,0.000000,1.908850,0,0,0,0,0,0,0
4,49999,34,40000,16,0,0,9999,0.100000,0,0,0.000000,3,0.000000,0.000000,0.095042,0,0,0,0,0,0,0
4,49999,35,40000,40,10000,0,9999,0.100000,0,0,0.000000,3,0.000000,0.000000,0.594344,0,0,0,0,0,0,0
4,49999,36,40000,55,20000,0,9999,0.100000,0,0,0.000000,3,0.000000,0.000000,0.955838,0,0,0,0,0,0,0
4,49999,37,40000,55,20000,0,9999,0.100000,0,0,0.000000,3,0.000000,0.000000,0.083962,0,0,0,0,0,0,0
4,49999,38,40000,55,20000,0,9999,0.100000,0,0,0.000000,3,0.000000,0.000000,0.151429,0,0,0,0,0,0,0
4,49999,39,40000,40,10000,0,9999,0.100000,0,0,0.000000,3,0.000000,0.000000,0.449236,0,0,0,0,0,0,0
4,49999,40,40000,40,10000,0,9999,0.100000,0,0,0.000000,3,0.000000,0.000000,0.095965,0,0,0,0,0,0,0
4,49999,41,40000,40,10000,0,9999,0.100000,0,0,0.000000,3,0.000000,0.000000,0.429288,0,0,0,0,0,0,0
4,49999,42,40000,40,10000,0,9999,0.100000,0,0,0.000000,3,0.000000,0.000000,0.083824,0,0,0,0,0,0,0
4,49999,43,40000,55,20000,0,9999,0.100000,0,0,0.000000,3,0.000000,0.000000,0.673840,0,0,0,0,0,0,0
4,49999,44,40000,40,10000,0,9999,0.100000,0,0,0.000000,3,0.000000,0.000000,0.115782,0,0,0,0,0,0,0
4,49999,45,40000,55,20000,0,9999,0.100000,0,0,0.000000,3,0.000000,0.000000,0.098032,0,0,0,0,0,0,0
4,49999,46,40000,55,20000,0,9999,0.100000,0,0,0.000000,3,0.000000,0.000000,0.645424,0,0,0,0,0,0,0
4,49999,47,40000,40,10000,0,9999,0.100000,0,0,0.000000,3,0.000000,0.000000,1.021105,0,0,0,0,0,0,0
4,49999,48,40000,55,20000,0,9999,0.100000,0,0,0.000000,3,0.000000,0.000000,0.364110,0,0,0,0,0,0,0
4,49999,49,40000,55,20000,0,9999,0.100000,0,0,0.000000,3,0.000000,0.000000,0.549526,0,0,0,0,0,0,0
4,49999,50,40000,40,10000,0,9999,0.100000,0,0,0.000000,3,0.000000,0.000000,0.417231,0,0,0,0,0,0,0
4,49999,51,40000,40,10000,0,9999,0.100000,0,0,0.000000,3,0.000000,0.000000,0.607051,0,0,0,0,0,0,0
4,49999,52,40000,16,0,0,9999,0.100000,0,0,0.000000,3,0.000000,0.000000,0.451624,0,0,0,0,0,0,0
4,49999,53,40000,16,0,0,9999,0.100000,0,0,0.000000,3,0.000000,0.000000,2.472588,0,0,0,0,0,0,0
4,49999,54,40000,55,20000,0,9999,0.100000,0,0,0.000000,3,0.000000,0.000000,2.277076,0,0,0,0,0,0,0
4,49999,55,40000,55,20000,0,9999,0.100000,0,0,0.000000,3,0.000000,0.000000,0.334884,0,0,0,0,0,0,0
4,49999,56,40000,40,10000,0,9999,0.100000,0,0,0.000000,3,0.000000,0.000000,0.877932,0,0,0,0,0,0,0
4,49999,57,40000,55,20000,0,9999,0.100000,0,0,0.000000,3,0.000000,0.000000,0.244290,0,0,0,0,0,0,0
4,49999,58,40000,16,0,1,9999,0.100000,0,0,0.000000,3,2.000000,0.000000,5.135309,0,0,0,0,0,0,0
4,49999,59,40000,40,10000,1,9999,0.100000,0,0,0.000000,3,3.000000,0.000000,8.554036,0,0,0,0,0,0,0
4,49999,60,40000,55,20000,0,9999,0.100000,0,0,0.000000,3,0.000000,0.000000,2.186072,0,0,0,0,0,0,0
4,49999,61,40000,16,0,0,9999,0.100000,0,0,0.000000,3,0.000000,0.000000,0.093061,0,0,0,0,0,0,0
4,49999,62,40000,40,10000,0,9999,0.100000,0,0,0.000000,3,0.000000,0.000000,0.516471,0,0,0,0,0,0,0
4,49999,63,40000,55,20000,0,9999,0.100000,0,0,0.000000,3,0.000000,0.000000,0.087623,0,0,0,0,0,0,0
4,49999,64,40000,40,10000,0,9999,0.100000,0,0,0.000000,3,0.000000,0.000000,0.984592,0,0,0,0,0,0,0
4,49999,65,40000,40,10000,1,9999,0.100000,0,0,0.000000,3,14.000000,0.000000,16.669541,0,0,0,0,0,0,0
4,49999,66,40000,55,20000,1,9999,0.100000,0,0,0.000000,3,1.000000,0.000000,16.697100,0,0,0,0,0,0,0
4,49999,67,40000,16,0,0,9999,0.100000,0,0,0.000000,3,0.000000,0.000000,0.586412,0,0,0,0,0,0,0
4,49999,68,40000,40,10000,0,9999,0.100000,0,0,0.000000,3,0.000000,0.000000,1.211825,0,0,0,0,0,0,0
4,49999,69,40000,40,10000,0,9999,0.100000,0,0,0.000000,3,0.000000,0.000000,1.199079,0,0,0,0,0,0,0
4,49999,70,40000,40,10000,1,9999,0.100000,0,0,0.000000,3,1.000000,0.000000,1.849223,0,0,0,0,0,0,0
4,49999,71,40000,55,20000,0,9999,0.100000,0,0,0.000000,3,0.000000,0.000000,0.967879,0,0,0,0,0,0,0
4,49999,72,40000,16,0,0,9999,0.100000,0,0,0.000000,3,0.000000,0.000000,0.166509,0,0,0,0,0,0,0
4,49999,73,40000,40,10000,1,9999,0.100000,0,0,0.000000,3,1.000000,0.000000,3.042224,0,0,0,0,0,0,0
4,49999,74,40000,40,10000,1,9999,0.100000,0,0,0.000000,3,21.000000,0.000000,37.218616,0,0,0,0,0,0,0
4,49999,75,40000,16,0,0,9999,0.100000,0,0,0.000000,3,0.000000,0.000000,0.068892,0,0,0,0,0,0,0
4,49999,76,40000,40,10000,0,9999,0.100000,0,0,0.000000,3,0.000000,0.000000,0.225109,0,0,0,0,0,0,0
4,49999,77,40000,16,0,0,9999,0.100000,0,0,0.000000,3,0.000000,0.000000,0.122537,0,0,0,0,0,0,0
4,49999,78,40000,55,20000,0,9999,0.100000,0,0,0.000000,3,0.000000,0.000000,0.469739,0,0,0,0,0,0,0
4,49999,79,40000,55,20000,0,9999,0.100000,0,0,0.000000,3,0.000000,0.000000,4.446322,0,0,0,0,0,0,0
4,49999,80,40000,55,20000,0,9999,0.100000,0,0,0.000000,3,0.000000,0.000000,0.874512,0,0,0,0,0,0,0
4,49999,81,40000,16,0,0,9999,0.100000,0,0,0.000000,3,0.000000,0.000000,0.656393,0,0,0,0,0,0,0
4,49999,82,40000,55,20000,0,9999,0.100000,0,0,0.000000,3,0.000000,0.000000,0.538808,0,0,0,0,0,0,0
4,49999,83,40000,16,0,0,9999,0.100000,0,0,0.000000,3,0.000000,0.000000,9.674398,0,0,0,0,0,0,0
4,49999,84,40000,55,20000,0,9999,0.100000,0,0,0.000000,3,0.000000,0.000000,0.333936,0,0,0,0,0,0,0
4,49999,85,40000,40,10000,0,9999,0.100000,0,0,0.000000,3,0.000000,0.000000,0.611882,0,0,0,0,0,0,0
4,49999,86,40000,16,0,0,9999,0.100000,0,0,0.000000,3,0.000000,0.000000,1.019670,0,0,0,0,0,0,0
4,49999,87,40000,40,10000,0,9999,0.100000,0,0,0.000000,3,0.000000,0.000000,0.626372,0,0,0,0,0,0,0
4,49999,88,40000,55,20000,0,9999,0.100000,0,0,0.000000,3,0.000000,0.000000,0.471631,0,0,0,0,0,0,0
4,49999,89,40000,40,10000,0,9999,0.100000,0,0,0.000000,3,0.000000,0.000000,1.653958,0,0,0,0,0,0,0
4,49999,90,40000,16,0,0,9999,0.100000,0,0,0.000000,3,0.000000,0.000000,0.815336,0,0,0,0,0,0,0
4,49999,91,40000,16,0,0,9999,0.100000,0,0,0.000000,3,0.000000,0.000000,0.095343,0,0,0,0,0,0,0
4,49999,92,40000,16,0,1,9999,0.100000,0,0,0.000000,3,1.000000,0.000000,9.454863,0,0,0,0,0,0,0
4,49999,93,40000,40,10000,1,9999,0.100000,0,0,0.000000,3,4.000000,0.000000,6.691678,0,0,0,0,0,0,0
4,49999,94,40000,40,10000,0,9999,0.100000,0,0,0.000000,3,0.000000,0.000000,0.206514,0,0,0,0,0,0,0
4,49999,95,40000,16,0,0,9999,0.100000,0,0,0.000000,3,0.000000,0.000000,0.144660,0,0,0,0,0,0,0
4,49999,96,40000,16,0,0,9999,0.100000,0,0,0.000000,3,0.000000,0.000000,0.530689,0,0,0,0,0,0,0
4,49999,97,40000,16,0,0,9999,0.100000,0,0,0.000000,3,0.000000,0.000000,0.062123,0,0,0,0,0,0,0
4,49999,98,40000,40,10000,0,9999,0.100000,0,0,0.000000,3,0.000000,0.000000,0.643273,0,0,0,0,0,0,0
4,49999,99,40000,40,10000,0,9999,0.100000,0,0,0.000000,3,0.000000,0.000000,0.514854,0,0,0,0,0,0,0
5,59999,0,50000,55,20000,0,9999,0.100000,0,0,0.000000,3,0.000000,0.000000,23.771637,0,0,0,0,0,0,0
5,59999,1,50000,16,0,0,9999,0.100000,0,0,0.000000,3,0.000000,0.000000,0.186736,0,0,0,0,0,0,0
5,59999,2,50000,55,20000,1,9999,0.100000,0,0,0.000000,3,1.000000,0.000000,3.461693,0,0,0,0,0,0,0
5,59999,3,50000,16,0,0,9999,0.100000,0,0,0.000000,3,0.000000,0.000000,0.139951,0,0,0,0,0,0,0
5,59999,4,50000,16,0,0,9999,0.100000,0,0,0.000000,3,0.000000,0.000000,0.129615,0,0,0,0,0,0,0
5,59999,5,50000,40,10000,0,9999,0.100000,0,0,0.000000,3,0.000000,0.000000,0.116905,0,0,0,0,0,0,0
5,59999,6,50000,16,0,0,9999,0.100000,0,0,0.000000,3,0.000000,0.000000,0.625393,0,0,0,0,0,0,0
5,59999,7,50000,40,10000,1,9999,0.100000,0,0,0.000000,3,1.000000,0.000000,2.536158,0,0,0,0,0,0,0
5,59999,8,50000,40,10000,0,9999,0.100000,0,0,0.000000,3,0.000000,0.000000,0.683150,0,0,0,0,0,0,0
5,59999,9,50000,16,0,0,9999,0.100000,0,0,0.000000,3,0.000000,0.000000,0.871120,0,0,0,0,0,0,0
5,59999,10,50000,40,10000,0,9999,0.100000,0,0,0.000000,3,0.000000,0.000000,0.084282,0,0,0,0,0,0,0
5,59999,11,50000,40,10000,1,9999,0.100000,0,0,0.000000,3,1.000000,0.000000,3.246685,0,0,0,0,0,0,0
5,59999,12,50000,16,0,0,9999,0.100000,0,0,0.000000,3,0.000000,0.000000,6.595869,0,0,0,0,0,0,0
5,59999,13,50000,16,0,0,9999,0.100000,0,0,0.000000,3,0.000000,0.000000,1.010358,0,0,0,0,0,0,0
5,59999,14,50000,40,10000,0,9999,0.100000,0,0,0.000000,3,0.000000,0.000000,0.984361,0,0,0,0,0,0,0
5,59999,15,50000,55,20000,0,9999,0.100000,0,0,0.000000,3,0.000000,0.000000,0.268465,0,0,0,0,0,0,0
5,59999,16,50000,40,10000,0,9999,0.100000,0,0,0.000000,3,0.000000,0.000000,0.098301,0,0,0,0,0,0,0
5,59999,17,50000,55,20000,0,9999,0.100000,0,0,0.000000,3,0.000000,0.000000,1.733779,0,0,0,0,0,0,0
5,59999,18,50000,55,20000,1,9999,0.100000,0,0,0.000000,3,1.000000,0.000000,2.299611,0,0,0,0,0,0,0
5,59999,19,50000,16,0,0,9999,0.100000,0,0,0.000000,3,0.000000,0.000000,0.097119,0,0,0,0,0,0,0
5,59999,20,50000,40,10000,0,9999,0.100000,0,0,0.000000,3,0.000000,0.000000,0.573915,0,0,0,0,0,0,0
5,59999,21,50000,16,0,0,9999,0.100000,0,0,0.000000,3,0.000000,0.000000,0.076551,0,0,0,0,0,0,0
5,59999,22,50000,55,20000,0,9999,0.100000,0,0,0.000000,3,0.000000,0.000000,6.556208,0,0,0,0,0,0,0
5,59999,23,50000,16,0,0,9999,0.100000,0,0,0.000000,3,0.000000,0.000000,0.361623,0,0,0,0,0,0,0
5,59999,24,50000,16,0,0,9999,0.100000,0,0,0.000000,3,0.000000,0.000000,0.078532,0,0,0,0,0,0,0
5,59999,25,50000,55,20000,0,9999,0.100000,0,0,0.000000,3,0.000000,0.000000,0.097394,0,0,0,0,0,0,0
5,59999,26,50000,40,10000,0,9999,0.100000,0,0,0.000000,3,0.000000,0.000000,0.122684,0,0,0,0,0,0,0
5,59999,27,50000,40,10000,1,9999,0.100000,0,0,0.000000,3,6.000000,0.000000,13.216278,0,0,0,0,0,0,0
5,59999,28,50000,16,0,0,9999,0.100000,0,0,0.000000,3,0.000000,0.000000,0.576560,0,0,0,0,0,0,0
5,59999,29,50000,16,0,1,9999,0.100000,0,0,0.000000,3,1.000000,0.000000,2.287803,0,0,0,0,0,0,0
5,59999,30,50000,55,20000,0,9999,0.100000,0,0,0.000000,3,0.000000,0.000000,0.175785,0,0,0,0,0,0,0
5,59999,31,50000,55,20000,0,9999,0.100000,0,0,0.000000,3,0.000000,0.000000,0.146434,0,0,0,0,0,0,0
5,59999,32,50000,16,0,0,9999,0.100000,0,0,0.000000,3,0.000000,0.000000,0.402059,0,0,0,0,0,0,0
5,59999,33,50000,40,10000,0,9999,0.100000,0,0,0.000000,3,0.000000,0.000000,0.144533,0,0,0,0,0,0,0
5,59999,34,50000,55,20000,0,9999,0.100000,0,0,0.000000,3,0.000000,0.000000,0.223287,0,0,0,0,0,0,0
5,59999,35,50000,16,0,0,9999,0.100000,0,0,0.000000,3,0.000000,0.000000,1.075167,0,0,0,0,0,0,0
5,59999,36,50000,16,0,1,9999,0.100000,0,0,0.000000,3,1.000000,0.000000,1.727298,0,0,0,0,0,0,0
5,59999,37,50000,40,10000,0,9999,0.100000,0,0,0.000000,3,0.000000,0.000000,0.085544,0,0,0,0,0,0,0
5,59999,38,50000,40,10000,1,9999,0.100000,0,0,0.000000,3,2.000000,0.000000,5.901512,0,0,0,0,0,0,0
5,59999,39,50000,16,0,0,9999,0.100000,0,0,0.000000,3,0.000000,0.000000,0.440229,0,0,0,0,0,0,0
5,59999,40,50000,40,10000,0,9999,0.100000,0,0,0.000000,3,0.000000,0.000000,0.098014,0,0,0,0,0,0,0
5,59999,41,50000,40,10000,0,9999,0.100000,0,0,0.000000,3,0.000000,0.000000,0.510575,0,0,0,0,0,0,0
5,59999,42,50000,55,20000,0,9999,0.100000,0,0,0.000000,3,0.000000,0.000000,0.096503,0,0,0,0,0,0,0
5,59999,43,50000,40,10000,0,9999,0.100000,0,0,0.000000,3,0.000000,0.000000,0.414340,0,0,0,0,0,0,0
5,59999,44,50000,16,0,0,9999,0.100000,0,0,0.000000,3,0.000000,0.000000,0.132437,0,0,0,0,0,0,0
5,59999,45,50000,40,10000,0,9999,0.100000,0,0,0.000000,3,0.000000,0.000000,0.100467,0,0,0,0,0,0,0
5,59999,46,50000,16,0,0,9999,0.100000,0,0,0.000000,3,0.000000,0.000000,0.400418,0,0,0,0,0,0,0
5,59999,47,50000,40,10000,0,9999,0.100000,0,0,0.000000,3,0.000000,0.000000,0.130915,0,0,0,0,0,0,0
5,59999,48,50000,40,10000,0,9999,0.100000,0,0,0.000000,3,0.000000,0.000000,0.327080,0,0,0,0,0,0,0
5,59999,49,50000,55,20000,0,9999,0.100000,0,0,0.000000,3,0.000000,0.000000,0.543156,0,0,0,0,0,0,0
5,59999,50,50000,55,20000,0,9999,0.100000,0,0,0.000000,3,0.000000,0.000000,0.388121,0,0,0,0,0,0,7
5,59999,51,50000,55,20000,0,9999,0.100000,0,0,0.000000,3,0.000000,0.000000,0.648398,0,0,0,0,0,0,0
5,59999,52,50000,40,10000,0,9999,0.100000,0,0,0.000000,3,0.000000,0.000000,1.250337,0,0,0,0,0,0,0
5,59999,53,50000,16,0,1,9999,0.100000,0,0,0.000000,3,1.000000,0.000000,10.625436,0,0,0,0,0,0,0
5,59999,54,50000,55,20000,0,9999,0.100000,0,0,0.000000,3,0.000000,0.000000,0.267314,0,0,0,0,0,0,0
5,59999,55,50000,40,10000,0,9999,0.100000,0,0,0.000000,3,0.000000,0.000000,0.208545,0,0,0,0,0,0,0
5,59999,56,50000,55,20000,0,9999,0.100000,0,0,0.000000,3,0.000000,0.000000,1.960893,0,0,0,0,0,0,0
5,59999,57,50000,55,20000,0,9999,0.100000,0,0,0.000000,3,0.000000,0.000000,0.251088,0,0,0,0,0,0,0
5,59999,58,50000,40,10000,0,9999,0.100000,0,0,0.000000,3,0.000000,0.000000,1.039559,0,0,0,0,0,0,0
5,59999,59,50000,16,0,0,9999,0.100000,0,0,0.000000,3,0.000000,0.000000,0.563829,0,0,0,0,0,0,0
5,59999,60,50000,40,10000,0,9999,0.100000,0,0,0.000000,3,0.000000,0.000000,4.050890,0,0,0,0,0,0,0
5,59999,61,50000,40,10000,0,9999,0.100000,0,0,0.000000,3,0.000000,0.000000,0.094374,0,0,0,0,0,0,0
5,59999,62,50000,16,0,0,9999,0.100000,0,0,0.000000,3,0.000000,0.000000,0.775081,0,0,0,0,0,0,0
5,59999,63,50000,55,20000,0,9999,0.100000,0,0,0.000000,3,0.000000,0.000000,0.088185,0,0,0,0,0,0,0
5,59999,64,50000,55,20000,0,9999,0.100000,0,0,0.000000,3,0.000000,0.000000,0.991953,0,0,0,0,0,0,0
5,59999,65,50000,16,0,1,9999,0.100000,0,0,0.000000,3,3.000000,0.000000,4.945843,0,0,0,0,0,0,0
5,59999,66,50000,55,20000,0,9999,0.100000,0,0,0.000000,3,0.000000,0.000000,17.017431,0,0,0,0,0,0,0
5,59999,67,50000,40,10000,0,9999,0.100000,0,0,0.000000,3,0.000000,0.000000,0.507411,0,0,0,0,0,0,0
5,59999,68,50000,16,0,0,9999,0.100000,0,0,0.000000,3,0.000000,0.000000,0.352142,0,0,0,0,0,0,0
5,59999,69,50000,16,0,0,9999,0.100000,0,0,0.000000,3,0.000000,0.000000,2.976408,0,0,0,0,0,0,0
5,59999,70,50000,40,10000,0,9999,0.100000,0,0,0.000000,3,0.000000,0.000000,0.985968,0,0,0,0,0,0,0
5,59999,71,50000,16,0,1,9999,0.100000,0,0,0.000000,3,1.000000,0.000000,2.563887,0,0,0,0,0,0,0
5,59999,72,50000,55,20000,0,9999,0.100000,0,0,0.000000,3,0.000000,0.000000,1.066467,0,0,0,0,0,0,0
5,59999,73,50000,16,0,0,9999,0.100000,0,0,0.000000,3,0.000000,0.000000,2.349678,0,0,0,0,0,0,0
5,59999,74,50000,55,20000,0,9999,0.100000,0,0,0.000000,3,0.000000,0.000000,1.116154,0,0,0,0,0,0,0
5,59999,75,50000,16,0,0,9999,0.100000,0,0,0.000000,3,0.000000,0.000000,0.069129,0,0,0,0,0,0,0
5,59999,76,50000,16,0,0,9999,0.100000,0,0,0.000000,3,0.000000,0.000000,0.222950,0,0,0,0,0,0,0
5,59999,77,50000,16,0,0,9999,0.100000,0,0,0.000000,3,0.000000,0.000000,0.127143,0,0,0,0,0,0,0
5,59999,78,50000,16,0,0,9999,0.100000,0,0,0.000000,3,0.000000,0.000000,0.614894,0,0,0,0,0,0,0
5,59999,79,50000,55,20000,1,9999,0.100000,0,0,0.000000,3,1.000000,0.000000,4.171423,0,0,0,0,0,0,0
5,59999,80,50000,55,20000,0,9999,0.100000,0,0,0.000000,3,0.000000,0.000000,0.808046,0,0,0,0,0,0,0
5,59999,81,50000,16,0,0,9999,0.100000,0,0,0.000000,3,0.000000,0.000000,0.467408,0,0,0,0,0,0,0
5,59999,82,50000,16,0,0,9999,0.100000,0,0,0.000000,3,0.000000,0.000000,1.023598,0,0,0,0,0,0,0
5,59999,83,50000,16,0,0,9999,0.100000,0,0,0.000000,3,0.000000,0.000000,0.305479,0,0,0,0,0,0,0
5,59999,84,50000,40,10000,0,9999,0.100000,0,0,0.000000,3,0.000000,0.000000,0.436102,0,0,0,0,0,0,0
5,59999,85,50000,16,0,0,9999,0.100000,0,0,0.000000,3,0.000000,0.000000,0.756780,0,0,0,0,0,0,0
5,59999,86,50000,40,10000,0,9999,0.100000,0,0,0.000000,3,0.000000,0.000000,0.180962,0,0,0,0,0,0,0
5,59999,87,50000,40,10000,0,9999,0.100000,0,0,0.000000,3,0.000000,0.000000,0.408030,0,0,0,0,0,0,0
5,59999,88,50000,40,10000,0,9999,0.100000,0,0,0.000000,3,0.000000,0.000000,0.389162,0,0,0,0,0,0,0
5,59999,89,50000,55,20000,0,9999,0.100000,0,0,0.000000,3,0.000000,0.000000,0.446233,0,0,0,0,0,0,0
5,59999,90,50000,16,0,1,9999,0.100000,0,0,0.000000,3,1.000000,0.000000,3.380694,0,0,0,0,0,0,0
5,59999,91,50000,16,0,0,9999,0.100000,0,0,0.000000,3,0.000000,0.000000,0.096827,0,0,0,0,0,0,0
5,59999,92,50000,55,20000,0,9999,0.100000,0,0,0.000000,3,0.000000,0.000000,7.400792,0,0,0,0,0,0,0
5,59999,93,50000,40,10000,1,9999,0.100000,0,0,0.000000,3,1.000000,0.000000,3.981510,0,0,0,0,0,0,0
5,59999,94,50000,16,0,0,9999,0.100000,0,0,0.000000,3,0.000000,0.000000,0.197676,0,0,0,0,0,0,0
5,59999,95,50000,55,20000,0,9999,0.100000,0,0,0.000000,3,0.000000,0.000000,0.993624,0,0,0,0,0,0,0
5,59999,96,50000,16,0,0,9999,0.100000,0,0,0.000000,3,0.000000,0.000000,0.536718,0,0,0,0,0,0,0
5,59999,97,50000,55,20000,0,9999,0.100000,0,0,0.000000,3,0.000000,0.000000,0.064976,0,0,0,0,0,0,0
5,59999,98,50000,40,10000,0,9999,0.100000,0,0,0.000000,3,0.000000,0.000000,0.605814,0,0,0,0,0,0,0
5,59999,99,50000,40,10000,0,9999,0.100000,0,0,0.000000,3,0.000000,0.000000,0.680650,0,0,0,0,0,0,0
6,69999,0,60000,16,0,0,9999,0.100000,0,0,0.000000,3,0.000000,0.000000,6.702561,0,0,0,0,0,0,0
6,69999,1,60000,40,10000,0,9999,0.100000,0,0,0.000000,3,0.000000,0.000000,0.203311,0,0,0,0,0,0,0
6,69999,2,60000,40,10000,0,9999,0.100000,0,0,0.000000,3,0.000000,0.000000,1.132089,0,0,0,0,0,0,0
6,69999,3,60000,55,20000,0,9999,0.100000,0,0,0.000000,3,0.000000,0.000000,0.136135,0,0,0,0,0,0,0
6,69999,4,60000,16,0,0,9999,0.100000,0,0,0.000000,3,0.000000,0.000000,0.129744,0,0,0,0,0,0,0
6,69999,5,60000,16,0,0,9999,0.100000,0,0,0.000000,3,0.000000,0.000000,0.880754,0,0,0,0,0,0,0
6,69999,6,60000,16,0,0,9999,0.100000,0,0,0.000000,3,0.000000,0.000000,0.677313,0,0,0,0,0,0,0
6,69999,7,60000,16,0,0,9999,0.100000,0,0,0.000000,3,0.000000,0.000000,1.703932,0,0,0,0,0,0,0
6,69999,8,60000,55,20000,0,9999,0.100000,0,0,0.000000,3,0.000000,0.000000,0.512143,0,0,0,0,0,0,0
6,69999,9,60000,55,20000,1,9999,0.100000,0,0,0.000000,3,1.000000,0.000000,6.109449,0,0,0,0,0,0,0
6,69999,10,60000,55,20000,0,9999,0.100000,0,0,0.000000,3,0.000000,0.000000,0.081371,0,0,0,0,0,0,0
6,69999,11,60000,55,20000,0,9999,0.100000,0,0,0.000000,3,0.000000,0.000000,0.542870,0,0,0,0,0,0,0
6,69999,12,60000,40,10000,1,9999,0.100000,0,0,0.000000,3,1.000000,0.000000,9.133517,0,0,0,0,0,0,0
6,69999,13,60000,55,20000,0,9999,0.100000,0,0,0.000000,3,0.000000,0.000000,0.803604,0,0,0,0,0,0,0
6,69999,14,60000,55,20000,0,9999,0.100000,0,0,0.000000,3,0.000000,0.000000,1.040666,0,0,0,0,0,0,0
6,69999,15,60000,55,20000,0,9999,0.100000,0,0,0.000000,3,0.000000,0.000000,0.253632,0,0,0,0,0,0,0
6,69999,16,60000,16,0,0,9999,0.100000,0,0,0.000000,3,0.000000,0.000000,0.085751,0,0,0,0,0,0,0
6,69999,17,60000,16,0,0,9999,0.100000,0,0,0.000000,3,0.000000,0.000000,2.001193,0,0,0,0,0,0,0
6,69999,18,60000,55,20000,0,9999,0.135000,0,0,0.000000,3,0.000000,0.000000,0.322197,0,0,0,0,0,0,0
6,69999,19,60000,55,20000,0,9999,0.100000,0,0,0.000000,3,0.000000,0.000000,0.098237,0,0,0,0,0,0,0
6,69999,20,60000,40,10000,0,9999,0.100000,0,0,0.000000,3,0.000000,0.000000,0.747666,0,0,0,0,0,0,0
6,69999,21,60000,16,0,0,9999,0.100000,0,0,0.000000,3,0.000000,0.000000,0.073453,0,0,0,0,0,0,0
6,69999,22,60000,16,0,1,9999,0.100000,0,0,0.000000,3,1.000000,0.000000,7.423363,0,0,0,0,0,0,0
6,69999,23,60000,16,0,0,9999,0.100000,0,0,0.000000,3,0.000000,0.000000,0.370877,0,0,0,0,0,0,0
6,69999,24,60000,40,10000,0,9999,0.100000,0,0,0.000000,3,0.000000,0.000000,0.191036,0,0,0,0,0,0,0
6,69999,25,60000,55,20000,0,9999,0.100000,0,0,0.000000,3,0.000000,0.000000,0.096805,0,0,0,0,0,0,0
6,69999,26,60000,16,0,0,9999,0.100000,0,0,0.000000,3,0.000000,0.000000,0.111689,0,0,0,0,0,0,0
6,69999,27,60000,55,20000,0,9999,0.100000,0,0,0.000000,3,0.000000,0.000000,0.210097,0,0,0,0,0,0,0
6,69999,28,60000,16,0,0,9999,0.100000,0,0,0.000000,3,0.000000,0.000000,0.373438,0,0,0,0,0,0,0
6,69999,29,60000,40,10000,0,9999,0.100000,0,0,0.000000,3,0.000000,0.000000,1.112664,0,0,0,0,0,0,0
6,69999,30,60000,16,0,0,9999,0.100000,0,0,0.000000,3,0.000000,0.000000,0.119369,0,0,0,0,0,0,0
6,69999,31,60000,16,0,0,9999,0.100000,0,0,0.000000,3,0.000000,0.000000,0.132781,0,0,0,0,0,0,0
6,69999,32,60000,16,0,0,9999,0.100000,0,0,0.000000,3,0.000000,0.000000,0.462118,0,0,0,0,0,0,0
6,69999,33,60000,16,0,0,9999,0.100000,0,0,0.000000,3,0.000000,0.000000,0.146406,0,0,0,0,0,0,0
6,69999,34,60000,55,20000,0,9999,0.100000,0,0,0.000000,3,0.000000,0.000000,0.930135,0,0,0,0,0,0,0
6,69999,35,60000,55,20000,0,9999,0.100000,0,0,0.000000,3,0.000000,0.000000,1.036563,0,0,0,0,0,0,0
6,69999,36,60000,40,10000,0,9999,0.100000,0,0,0.000000,3,0.000000,0.000000,0.733583,0,0,0,0,0,0,0
6,69999,37,60000,16,0,0,9999,0.100000,0,0,0.000000,3,0.000000,0.000000,0.084114,0,0,0,0,0,0,0
6,69999,38,60000,16,0,0,9999,0.100000,0,0,0.000000,3,0.000000,0.000000,0.127990,0,0,0,0,0,0,0
6,69999,39,60000,55,20000,0,9999,0.100000,0,0,0.000000,3,0.000000,0.000000,0.438401,0,0,0,0,0,0,0
6,69999,40,60000,55,20000,0,9999,0.100000,0,0,0.000000,3,0.000000,0.000000,0.094947,0,0,0,0,0,0,0
6,69999,41,60000,40,10000,0,9999,0.100000,0,0,0.000000,3,0.000000,0.000000,0.401649,0,0,0,0,0,0,0
6,69999,42,60000,16,0,0,9999,0.100000,0,0,0.000000,3,0.000000,0.000000,0.097073,0,0,0,0,0,0,0
6,69999,43,60000,40,10000,0,9999,0.100000,0,0,0.000000,3,0.000000,0.000000,0.450044,0,0,0,0,0,0,0
6,69999,44,60000,40,10000,0,9999,0.100000,0,0,0.000000,3,0.000000,0.000000,0.113823,0,0,0,0,0,0,0
6,69999,45,60000,40,10000,0,9999,0.100000,0,0,0.000000,3,0.000000,0.000000,0.104113,0,0,0,0,0,0,0
6,69999,46,60000,40,10000,0,9999,0.100000,0,0,0.000000,3,0.000000,0.000000,0.577037,0,0,0,0,0,0,0
6,69999,47,60000,16,0,0,9999,0.100000,0,0,0.000000,3,0.000000,0.000000,0.133245,0,0,0,0,0,0,0
6,69999,48,60000,55,20000,0,9999,0.100000,0,0,0.000000,3,0.000000,0.000000,0.285811,0,0,0,0,0,0,0
6,69999,49,60000,16,0,0,9999,0.100000,0,0,0.000000,3,0.000000,0.000000,0.561196,0,0,0,0,0,0,0
6,69999,50,60000,40,10000,0,9999,0.100000,0,0,0.000000,3,0.000000,0.000000,3.976064,0,0,0,0,0,0,0
6,69999,51,60000,16,0,0,9999,0.100000,0,0,0.000000,3,0.000000,0.000000,0.688017,0,0,0,0,0,0,0
6,69999,52,60000,55,20000,1,9999,0.100000,0,0,0.000000,3,1.000000,0.000000,16.934182,0,0,0,0,0,0,0
6,69999,53,60000,40,10000,0,9999,0.100000,0,0,0.000000,3,0.000000,0.000000,1.907153,0,0,0,0,0,0,0
6,69999,54,60000,55,20000,0,9999,0.100000,0,0,0.000000,3,0.000000,0.000000,0.567604,0,0,0,0,0,0,0
6,69999,55,60000,55,20000,0,9999,0.100000,0,0,0.000000,3,0.000000,0.000000,0.656485,0,0,0,0,0,0,0
6,69999,56,60000,40,10000,0,9999,0.100000,0,0,0.000000,3,0.000000,0.000000,1.482311,0,0,0,0,0,0,0
6,69999,57,60000,55,20000,0,9999,0.100000,0,0,0.000000,3,0.000000,0.000000,0.237112,0,0,0,0,0,0,0
6,69999,58,60000,40,10000,0,9999,0.100000,0,0,0.000000,3,0.000000,0.000000,1.193171,0,0,0,0,0,0,0
6,69999,59,60000,55,20000,0,9999,0.100000,0,0,0.000000,3,0.000000,0.000000,0.595741,0,0,0,0,0,0,0
6,69999,60,60000,55,20000,0,9999,0.100000,0,0,0.000000,3,0.000000,0.000000,2.680105,0,0,0,0,0,0,0
6,69999,61,60000,16,0,0,9999,0.100000,0,0,0.000000,3,0.000000,0.000000,0.093001,0,0,0,0,0,0,0
6,69999,62,60000,40,10000,0,9999,0.100000,0,0,0.000000,3,0.000000,0.000000,0.611538,0,0,0,0,0,0,0
6,69999,63,60000,16,0,0,9999,0.100000,0,0,0.000000,3,0.000000,0.000000,0.088748,0,0,0,0,0,0,0
6,69999,64,60000,40,10000,0,9999,0.100000,0,0,0.000000,3,0.000000,0.000000,1.021309,0,0,0,0,0,0,0
6,69999,65,60000,16,0,0,9999,0.100000,0,0,0.000000,3,0.000000,0.000000,1.276044,0,0,0,0,0,0,0
6,69999,66,60000,55,20000,0,9999,0.100000,0,0,0.000000,3,0.000000,0.000000,17.083272,0,0,0,0,0,0,0
6,69999,67,60000,40,10000,0,9999,0.100000,0,0,0.000000,3,0.000000,0.000000,0.546969,0,0,0,0,0,0,0
6,69999,68,60000,40,10000,0,9999,0.100000,0,0,0.000000,3,0.000000,0.000000,0.550419,0,0,0,0,0,0,0
6,69999,69,60000,55,20000,0,9999,0.100000,0,0,0.000000,3,0.000000,0.000000,0.304887,0,0,0,0,0,0,0
6,69999,70,60000,16,0,0,9999,0.100000,0,0,0.000000,3,0.000000,0.000000,0.708826,0,0,0,0,0,0,0
6,69999,71,60000,16,0,0,9999,0.100000,0,0,0.000000,3,0.000000,0.000000,0.230590,0,0,0,0,0,0,0
6,69999,72,60000,40,10000,0,9999,0.100000,0,0,0.000000,3,0.000000,0.000000,0.222035,0,0,0,0,0,0,0
6,69999,73,60000,16,0,0,9999,0.100000,0,0,0.000000,3,0.000000,0.000000,0.772562,0,0,0,0,0,0,0
6,69999,74,60000,40,10000,0,9999,0.100000,0,0,0.000000,3,0.000000,0.000000,1.037258,0,0,0,0,0,0,0
6,69999,75,60000,40,10000,0,9999,0.100000,0,0,0.000000,3,0.000000,0.000000,0.067691,0,0,0,0,0,0,0
6,69999,76,60000,55,20000,0,9999,0.100000,0,0,0.000000,3,0.000000,0.000000,0.232650,0,0,0,0,0,0,0
6,69999,77,60000,55,20000,0,9999,0.100000,0,0,0.000000,3,0.000000,0.000000,0.114203,0,0,0,0,0,0,0
6,69999,78,60000,55,20000,0,9999,0.100000,0,0,0.000000,3,0.000000,0.000000,0.644860,0,0,0,0,0,0,0
6,69999,79,60000,40,10000,0,9999,0.100000,0,0,0.000000,3,0.000000,0.000000,1.772516,0,0,0,0,0,0,0
6,69999,80,60000,40,10000,0,9999,0.100000,0,0,0.000000,3,0.000000,0.000000,0.717802,0,0,0,0,0,0,0
6,69999,81,60000,55,20000,0,9999,0.100000,0,0,0.000000,3,0.000000,0.000000,0.508447,0,0,0,0,0,0,0
6,69999,82,60000,55,20000,0,9999,0.100000,0,0,0.000000,3,0.000000,0.000000,1.121713,0,0,0,0,0,0,0
6,69999,83,60000,40,10000,0,9999,0.100000,0,0,0.000000,3,0.000000,0.000000,0.304464,0,0,0,0,0,0,0
6,69999,84,60000,40,10000,0,9999,0.100000,0,0,0.000000,3,0.000000,0.000000,0.446316,0,0,0,0,0,0,0
6,69999,85,60000,55,20000,0,9999,0.100000,0,0,0.000000,3,0.000000,0.000000,3.688716,0,0,0,0,0,0,0
6,69999,86,60000,55,20000,0,9999,0.100000,0,0,0.000000,3,0.000000,0.000000,0.215509,0,0,0,0,0,0,0
6,69999,87,60000,16,0,0,9999,0.100000,0,0,0.000000,3,0.000000,0.000000,0.779887,0,0,0,0,0,0,0
6,69999,88,60000,16,0,0,9999,0.100000,0,0,0.000000,3,0.000000,0.000000,0.386745,0,0,0,0,0,0,0
6,69999,89,60000,16,0,0,9999,0.100000,0,0,0.000000,3,0.000000,0.000000,0.543440,0,0,0,0,0,0,0
6,69999,90,60000,16,0,0,9999,0.100000,0,0,0.000000,3,0.000000,0.000000,2.310579,0,0,0,0,0,0,0
6,69999,91,60000,40,10000,0,9999,0.100000,0,0,0.000000,3,0.000000,0.000000,0.095476,0,0,0,0,0,0,0
6,69999,92,60000,55,20000,0,9999,0.100000,0,0,0.000000,3,0.000000,0.000000,7.082728,0,0,0,0,0,0,0
6,69999,93,60000,16,0,1,9999,0.100000,0,0,0.000000,3,8.000000,0.000000,11.159606,0,0,0,0,0,0,0
6,69999,94,60000,40,10000,0,9999,0.100000,0,0,0.000000,3,0.000000,0.000000,0.174600,0,0,0,0,0,0,0
6,69999,95,60000,55,20000,0,9999,0.100000,0,0,0.000000,3,0.000000,0.000000,0.218717,0,0,0,0,0,0,0
6,69999,96,60000,16,0,0,9999,0.100000,0,0,0.000000,3,0.000000,0.000000,0.500467,0,0,0,0,0,0,0
6,69999,97,60000,55,20000,0,9999,0.100000,0,0,0.000000,3,0.000000,0.000000,0.065654,0,0,0,0,0,0,0
6,69999,98,60000,55,20000,0,9999,0.100000,0,0,0.000000,3,0.000000,0.000000,0.618624,0,0,0,0,0,0,0
6,69999,99,60000,55,20000,0,9999,0.100000,0,0,0.000000,3,0.000000,0.000000,0.690273,0,0,0,0,0,0,0
7,79999,0,70000,40,10000,0,9999,0.100000,0,0,0.000000,3,0.000000,0.000000,2.808295,0,0,0,0,0,0,0
7,79999,1,70000,55,20000,0,9999,0.100000,0,0,0.000000,3,0.000000,0.000000,0.292570,0,0,0,0,0,0,0
7,79999,2,70000,40,10000,0,9999,0.100000,0,0,0.000000,3,0.000000,0.000000,1.176981,0,0,0,0,0,0,0
7,79999,3,70000,16,0,0,9999,0.100000,0,0,0.000000,3,0.000000,0.000000,0.136388,0,0,0,0,0,0,0
7,79999,4,70000,40,10000,0,9999,0.100000,0,0,0.000000,3,0.000000,0.000000,0.135289,0,0,0,0,0,0,0
7,79999,5,70000,16,0,0,9999,0.100000,0,0,0.000000,3,0.000000,0.000000,8.041700,0,0,0,0,0,0,0
7,79999,6,70000,55,20000,0,9999,0.100000,0,0,0.000000,3,0.000000,0.000000,0.722143,0,0,0,0,0,0,0
7,79999,7,70000,40,10000,0,9999,0.100000,0,0,0.000000,3,0.000000,0.000000,1.454634,0,0,0,0,0,0,0
7,79999,8,70000,40,10000,0,9999,0.100000,0,0,0.000000,3,0.000000,0.000000,0.598293,0,0,0,0,0,0,0
7,79999,9,70000,55,20000,0,9999,0.100000,0,0,0.000000,3,0.000000,0.000000,0.202408,0,0,0,0,0,0,0
7,79999,10,70000,16,0,0,9999,0.100000,0,0,0.000000,3,0.000000,0.000000,0.082536,0,0,0,0,0,0,0
7,79999,11,70000,55,20000,0,9999,0.100000,0,0,0.000000,3,0.000000,0.000000,0.606491,0,0,0,0,0,0,0
7,79999,12,70000,40,10000,0,9999,0.100000,0,0,0.000000,3,0.000000,0.000000,8.232496,0,0,0,0,0,0,0
7,79999,13,70000,55,20000,0,9999,0.100000,0,0,0.000000,3,0.000000,0.000000,0.753351,0,0,0,0,0,0,0
7,79999,14,70000,55,20000,0,9999,0.100000,0,0,0.000000,3,0.000000,0.000000,1.024046,0,0,0,0,0,0,0
7,79999,15,70000,55,20000,0,9999,0.100000,0,0,0.000000,3,0.000000,0.000000,0.254929,0,0,0,0,0,0,0
7,79999,16,70000,55,20000,0,9999,0.100000,0,0,0.000000,3,0.000000,0.000000,0.083646,0,0,0,0,0,0,0
7,79999,17,70000,55,20000,0,9999,0.100000,0,0,0.000000,3,0.000000,0.000000,2.399182,0,0,0,0,0,0,0
7,79999,18,70000,55,20000,0,9999,0.100000,0,0,0.000000,3,0.000000,0.000000,0.321014,0,0,0,0,0,0,0
7,79999,19,70000,55,20000,0,9999,0.100000,0,0,0.000000,3,0.000000,0.000000,0.090727,0,0,0,0,0,0,0
7,79999,20,70000,16,0,0,9999,0.100000,0,0,0.000000,3,0.000000,0.000000,0.486680,0,0,0,0,0,0,0
7,79999,21,70000,55,20000,0,9999,0.100000,0,0,0.000000,3,0.000000,0.000000,0.070742,0,0,0,0,0,0,0
7,79999,22,70000,55,20000,1,9999,0.100000,0,0,0.000000,3,1.000000,0.000000,6.697109,0,0,0,0,0,0,0
7,79999,23,70000,16,0,0,9999,0.100000,0,0,0.000000,3,0.000000,0.000000,0.341675,0,0,0,0,0,0,0
7,79999,24,70000,55,20000,0,9999,0.100000,0,0,0.000000,3,0.000000,0.000000,0.526581,0,0,0,0,0,0,0
7,79999,25,70000,40,10000,0,9999,0.100000,0,0,0.000000,3,0.000000,0.000000,0.095682,0,0,0,0,0,0,0
7,79999,26,70000,55,20000,0,9999,0.100000,0,0,0.000000,3,0.000000,0.000000,0.108760,0,0,0,0,0,0,0
7,79999,27,70000,40,10000,0,9999,0.100000,0,0,0.000000,3,0.000000,0.000000,0.182122,0,0,0,0,0,0,0
7,79999,28,70000,16,0,0,9999,0.100000,0,0,0.000000,3,0.000000,0.000000,0.921736,0,0,0,0,0,0,0
7,79999,29,70000,16,0,0,9999,0.100000,0,0,0.000000,3,0.000000,0.000000,2.132472,0,0,0,0,0,0,0
7,79999,30,70000,55,20000,0,9999,0.100000,0,0,0.000000,3,0.000000,0.000000,0.112748,0,0,0,0,0,0,0
7,79999,31,70000,55,20000,0,9999,0.100000,0,0,0.000000,3,0.000000,0.000000,0.127347,0,0,0,0,0,0,0
7,79999,32,70000,55,20000,0,9999,0.100000,0,0,0.000000,3,0.000000,0.000000,0.437805,0,0,0,0,0,0,0
7,79999,33,70000,16,0,0,9999,0.100000,0,0,0.000000,3,0.000000,0.000000,0.146165,0,0,0,0,0,0,0
7,79999,34,70000,40,10000,0,9999,0.100000,0,0,0.000000,3,0.000000,0.000000,0.735686,0,0,0,0,0,0,0
7,79999,35,70000,40,10000,0,9999,0.100000,0,0,0.000000,3,0.000000,0.000000,1.026999,0,0,0,0,0,0,0
7,79999,36,70000,40,10000,0,9999,0.100000,0,0,0.000000,3,0.000000,0.000000,1.109854,0,0,0,0,0,0,0
7,79999,37,70000,55,20000,0,9999,0.100000,0,0,0.000000,3,0.000000,0.000000,0.083049,0,0,0,0,0,0,0
7,79999,38,70000,40,10000,0,9999,0.100000,0,0,0.000000,3,0.000000,0.000000,0.117924,0,0,0,0,0,0,0
7,79999,39,70000,40,10000,0,9999,0.100000,0,0,0.000000,3,0.000000,0.000000,0.438600,0,0,0,0,0,0,0
7,79999,40,70000,16,0,0,9999,0.100000,0,0,0.000000,3,0.000000,0.000000,0.105035,0,0,0,0,0,0,0
7,79999,41,70000,55,20000,0,9999,0.100000,0,0,0.000000,3,0.000000,0.000000,0.331361,0,0,0,0,0,0,0
7,79999,42,70000,16,0,0,9999,0.100000,0,0,0.000000,3,0.000000,0.000000,0.090567,0,0,0,0,0,0,0
7,79999,43,70000,40,10000,0,9999,0.100000,0,0,0.000000,3,0.000000,0.000000,0.279927,0,0,0,0,0,0,0
7,79999,44,70000,55,20000,0,9999,0.100000,0,0,0.000000,3,0.000000,0.000000,0.191491,0,0,0,0,0,0,0
7,79999,45,70000,40,10000,0,9999,0.100000,0,0,0.000000,3,0.000000,0.000000,0.095834,0,0,0,0,0,0,0
7,79999,46,70000,40,10000,1,9999,0.100000,0,0,0.000000,3,1.000000,0.000000,4.375738,0,0,0,0,0,0,0
7,79999,47,70000,40,10000,0,9999,0.135000,0,0,0.000000,3,0.000000,0.000000,0.152488,0,0,0,0,0,0,0
7,79999,48,70000,16,0,0,9999,0.100000,0,0,0.000000,3,0.000000,0.000000,0.274729,0,0,0,0,0,0,0
7,79999,49,70000,40,10000,0,9999,0.100000,0,0,0.000000,3,0.000000,0.000000,0.559130,0,0,0,0,0,0,0
7,79999,50,70000,40,10000,0,9999,0.100000,0,0,0.000000,3,0.000000,0.000000,2.981090,0,0,0,0,0,0,0
7,79999,51,70000,40,10000,0,9999,0.100000,0,0,0.000000,3,0.000000,0.000000,0.748596,0,0,0,0,0,0,0
7,79999,52,70000,40,10000,1,9999,0.100000,0,0,0.000000,3,1.000000,0.000000,5.143106,0,0,0,0,0,0,0
7,79999,53,70000,55,20000,0,9999,0.100000,0,0,0.000000,3,0.000000,0.000000,3.227090,0,0,0,0,0,0,0
7,79999,54,70000,55,20000,1,9999,0.100000,0,0,0.000000,3,1.000000,0.000000,8.735717,0,0,0,0,0,0,0
7,79999,55,70000,16,0,0,9999,0.100000,0,0,0.000000,3,0.000000,0.000000,0.896650,0,0,0,0,0,0,0
7,79999,56,70000,40,10000,0,9999,0.100000,0,0,0.000000,3,0.000000,0.000000,2.047016,0,0,0,0,0,0,0
7,79999,57,70000,16,0,0,9999,0.100000,0,0,0.000000,3,0.000000,0.000000,0.250789,0,0,0,0,0,0,0
7,79999,58,70000,16,0,0,9999,0.100000,0,0,0.000000,3,0.000000,0.000000,1.865098,0,0,0,0,0,0,0
7,79999,59,70000,40,10000,0,9999,0.100000,0,0,0.000000,3,0.000000,0.000000,0.543982,0,0,0,0,0,0,0
7,79999,60,70000,16,0,0,9999,0.100000,0,0,0.000000,3,0.000000,0.000000,1.671003,0,0,0,0,0,0,0
7,79999,61,70000,55,20000,0,9999,0.100000,0,0,0.000000,3,0.000000,0.000000,0.092610,0,0,0,0,0,0,0
7,79999,62,70000,40,10000,0,9999,0.100000,0,0,0.000000,3,0.000000,0.000000,0.472003,0,0,0,0,0,0,0
7,79999,63,70000,16,0,0,9999,0.100000,0,0,0.000000,3,0.000000,0.000000,0.087061,0,0,0,0,0,0,0
7,79999,64,70000,55,20000,0,9999,0.100000,0,0,0.000000,3,0.000000,0.000000,1.007624,0,0,0,0,0,0,0
7,79999,65,70000,40,10000,0,9999,0.100000,0,0,0.000000,3,0.000000,0.000000,1.378758,0,0,0,0,0,0,0
7,79999,66,70000,40,10000,0,9999,0.100000,0,0,0.000000,3,0.000000,0.000000,4.728009,0,0,0,0,0,0,0
7,79999,67,70000,16,0,0,9999,0.100000,0,0,0.000000,3,0.000000,0.000000,0.569353,0,0,0,0,0,0,0
7,79999,68,70000,40,10000,0,9999,0.100000,0,0,0.000000,3,0.000000,0.000000,0.704333,0,0,0,0,0,0,0
7,79999,69,70000,55,20000,0,9999,0.100000,0,0,0.000000,3,0.000000,0.000000,0.260066,0,0,0,0,0,0,0
7,79999,70,70000,55,20000,0,9999,0.100000,0,0,0.000000,3,0.000000,0.000000,0.397749,0,0,0,0,0,0,0
7,79999,71,70000,40,10000,0,9999,0.100000,0,0,0.000000,3,0.000000,0.000000,0.166141,0,0,0,0,0,0,0
7,79999,72,70000,40,10000,0,9999,0.100000,0,0,0.000000,3,0.000000,0.000000,0.453008,0,0,0,0,0,0,0
7,79999,73,70000,16,0,0,9999,0.100000,0,0,0.000000,3,0.000000,0.000000,0.484225,0,0,0,0,0,0,0
7,79999,74,70000,40,10000,1,9999,0.100000,0,0,0.000000,3,1.000000,0.000000,4.364943,0,0,0,0,0,0,0
7,79999,75,70000,55,20000,0,9999,0.100000,0,0,0.000000,3,0.000000,0.000000,0.066746,0,0,0,0,0,0,0
7,79999,76,70000,55,20000,0,9999,0.100000,0,0,0.000000,3,0.000000,0.000000,0.230419,0,0,0,0,0,0,0
7,79999,77,70000,16,0,0,9999,0.100000,0,0,0.000000,3,0.000000,0.000000,0.112775,0,0,0,0,0,0,0
7,79999,78,70000,40,10000,0,9999,0.100000,0,0,0.000000,3,0.000000,0.000000,0.457905,0,0,0,0,0,0,0
7,79999,79,70000,40,10000,0,9999,0.100000,0,0,0.000000,3,0.000000,0.000000,1.807851,0,0,0,0,0,0,0
7,79999,80,70000,55,20000,0,9999,0.100000,0,0,0.000000,3,0.000000,0.000000,0.684363,0,0,0,0,0,0,0
7,79999,81,70000,55,20000,0,9999,0.100000,0,0,0.000000,3,0.000000,0.000000,0.497543,0,0,0,0,0,0,0
7,79999,82,70000,40,10000,0,9999,0.100000,0,0,0.000000,3,0.000000,0.000000,1.176413,0,0,0,0,0,0,0
7,79999,83,70000,55,20000,0,9999,0.100000,0,0,0.000000,3,0.000000,0.000000,0.324685,0,0,0,0,0,0,0
7,79999,84,70000,55,20000,0,9999,0.100000,0,0,0.000000,3,0.000000,0.000000,0.371788,0,0,0,0,0,0,0
7,79999,85,70000,55,20000,1,9999,0.100000,0,0,0.000000,3,1.000000,0.000000,4.246948,0,0,0,0,0,0,0
7,79999,86,70000,55,20000,0,9999,0.100000,0,0,0.000000,3,0.000000,0.000000,0.179778,0,0,0,0,0,0,0
7,79999,87,70000,16,0,0,9999,0.100000,0,0,0.000000,3,0.000000,0.000000,0.679560,0,0,0,0,0,0,0
7,79999,88,70000,55,20000,0,9999,0.100000,0,0,0.000000,3,0.000000,0.000000,0.393394,0,0,0,0,0,0,0
7,79999,89,70000,40,10000,0,9999,0.100000,0,0,0.000000,3,0.000000,0.000000,0.649179,0,0,0,0,0,0,0
7,79999,90,70000,40,10000,0,9999,0.100000,0,0,0.000000,3,0.000000,0.000000,4.039291,0,0,0,0,0,0,0
7,79999,91,70000,55,20000,0,9999,0.100000,0,0,0.000000,3,0.000000,0.000000,0.093384,0,0,0,0,0,0,0
7,79999,92,70000,40,10000,1,9999,0.100000,0,0,0.000000,3,1.000000,0.000000,8.603308,0,0,0,0,0,0,0
7,79999,93,70000,16,0,0,9999,0.100000,0,0,0.000000,3,0.000000,0.000000,0.927047,0,0,0,0,0,0,0
7,79999,94,70000,40,10000,0,9999,0.100000,0,0,0.000000,3,0.000000,0.000000,0.154965,0,0,0,0,0,0,0
7,79999,95,70000,16,0,0,9999,0.100000,0,0,0.000000,3,0.000000,0.000000,0.192319,0,0,0,0,0,0,0
7,79999,96,70000,40,10000,0,9999,0.100000,0,0,0.000000,3,0.000000,0.000000,0.480081,0,0,0,0,0,0,0
7,79999,97,70000,55,20000,0,9999,0.100000,0,0,0.000000,3,0.000000,0.000000,0.069851,0,0,0,0,0,0,0
7,79999,98,70000,40,10000,0,9999,0.100000,0,0,0.000000,3,0.000000,0.000000,0.616724,0,0,0,0,0,0,0
7,79999,99,70000,40,10000,0,9999,0.100000,0,0,0.000000,3,0.000000,0.000000,0.681534,0,0,0,0,0,0,0
8,89999,0,80000,40,10000,0,9999,0.100000,0,0,0.000000,3,0.000000,0.000000,3.247773,0,0,0,0,0,0,0
8,89999,1,80000,40,10000,0,9999,0.100000,0,0,0.000000,3,0.000000,0.000000,0.591249,0,0,0,0,0,0,0
8,89999,2,80000,55,20000,0,9999,0.100000,0,0,0.000000,3,0.000000,0.000000,1.067809,0,0,0,0,0,0,0
8,89999,3,80000,55,20000,0,9999,0.100000,0,0,0.000000,4,0.000000,0.000000,0.151760,0,0,0,0,0,0,0
8,89999,4,80000,16,0,0,9999,0.100000,0,0,0.000000,3,0.000000,0.000000,0.135009,0,0,0,0,0,0,0
8,89999,5,80000,40,10000,1,9999,0.100000,0,0,0.000000,3,2.000000,0.000000,9.779590,0,0,0,0,0,0,0
8,89999,6,80000,16,0,0,9999,0.100000,0,0,0.000000,3,0.000000,0.000000,0.450823,0,0,0,0,0,0,0
8,89999,7,80000,16,0,0,9999,0.100000,0,0,0.000000,4,0.000000,0.000000,1.100055,0,0,0,0,0,0,0
8,89999,8,80000,40,10000,0,9999,0.100000,0,0,0.000000,3,0.000000,0.000000,0.592291,0,0,0,0,0,0,0
8,89999,9,80000,16,0,0,9999,0.100000,0,0,0.000000,3,0.000000,0.000000,0.109852,0,0,0,0,0,0,0
8,89999,10,80000,55,20000,0,9999,0.100000,0,0,0.000000,3,0.000000,0.000000,0.080843,0,0,0,0,0,0,0
8,89999,11,80000,55,20000,0,9999,0.100000,0,0,0.000000,3,0.000000,0.000000,0.632670,0,0,0,0,0,0,0
8,89999,12,80000,55,20000,0,9999,0.100000,0,0,0.000000,4,0.000000,0.000000,0.812365,0,0,0,0,0,0,0
8,89999,13,80000,93,70000,0,9999,0.100000,0,0,0.000000,4,0.000000,0.000000,1.084842,0,0,0,0,0,0,0
8,89999,14,80000,40,10000,0,9999,0.100000,0,0,0.000000,3,0.000000,0.000000,1.054213,0,0,0,0,0,0,0
8,89999,15,80000,40,10000,0,9999,0.100000,0,0,0.000000,3,0.000000,0.000000,0.259149,0,0,0,0,0,0,0
8,89999,16,80000,40,10000,0,9999,0.100000,0,0,0.000000,3,0.000000,0.000000,0.084282,0,0,0,0,0,0,0
8,89999,17,80000,55,20000,0,9999,0.100000,0,0,0.000000,3,0.000000,0.000000,0.442433,0,0,0,0,0,0,0
8,89999,18,80000,40,10000,0,9999,0.100000,0,0,0.000000,3,0.000000,0.000000,0.323302,0,0,0,0,0,0,0
8,89999,19,80000,16,0,0,9999,0.100000,0,0,0.000000,3,0.000000,0.000000,0.095613,0,0,0,0,0,0,0
8,89999,20,80000,16,0,0,9999,0.100000,0,0,0.000000,3,0.000000,0.000000,0.499287,0,0,0,0,0,0,0
8,89999,21,80000,16,0,0,9999,0.100000,0,0,0.000000,3,0.000000,0.000000,0.071817,0,0,0,0,0,0,0
8,89999,22,80000,55,20000,0,9999,0.100000,0,0,0.000000,3,0.000000,0.000000,5.110997,0,0,0,0,0,0,0
8,89999,23,80000,16,0,0,9999,0.100000,0,0,0.000000,3,0.000000,0.000000,0.308837,0,0,0,0,0,0,0
8,89999,24,80000,55,20000,0,9999,0.100000,0,0,0.000000,3,0.000000,0.000000,0.176371,0,0,0,0,0,0,0
8,89999,25,80000,16,0,0,9999,0.100000,0,0,0.000000,3,0.000000,0.000000,0.096188,0,0,0,0,0,0,0
8,89999,26,80000,16,0,0,9999,0.100000,0,0,0.000000,3,0.000000,0.000000,0.126684,0,0,0,0,0,0,0
8,89999,27,80000,16,0,0,9999,0.100000,0,0,0.000000,3,0.000000,0.000000,0.112984,0,0,0,0,0,0,0
8,89999,28,80000,40,10000,0,9999,0.100000,0,0,0.000000,3,0.000000,0.000000,0.867685,0,0,0,0,0,0,0
8,89999,29,80000,16,0,0,9999,0.100000,0,0,0.000000,3,0.000000,0.000000,0.412210,0,0,0,0,0,0,0
8,89999,30,80000,55,20000,0,9999,0.100000,0,0,0.000000,4,0.000000,0.000000,0.113978,0,0,0,0,0,0,0
8,89999,31,80000,55,20000,0,9999,0.100000,0,0,0.000000,3,0.000000,0.000000,0.141484,0,0,0,0,0,0,0
8,89999,32,80000,40,10000,0,9999,0.100000,0,0,0.000000,3,0.000000,0.000000,0.427564,0,0,0,0,0,0,0
8,89999,33,80000,55,20000,0,9999,0.100000,0,0,0.000000,3,0.000000,0.000000,0.149329,0,0,0,0,0,0,0
8,89999,34,80000,93,70000,0,9999,0.100000,0,0,0.000000,4,0.000000,0.000000,0.487853,0,0,0,0,0,0,0
8,89999,35,80000,55,20000,0,9999,0.100000,0,0,0.000000,3,0.000000,0.000000,1.006225,0,0,0,0,0,0,0
8,89999,36,80000,93,70000,0,9999,0.100000,0,0,0.000000,4,0.000000,0.000000,0.253212,0,0,0,0,0,0,0
8,89999,37,80000,16,0,0,9999,0.100000,0,0,0.000000,3,0.000000,0.000000,0.087316,0,0,0,0,0,0,0
8,89999,38,80000,16,0,0,9999,0.100000,0,0,0.000000,3,0.000000,0.000000,0.121852,0,0,0,0,0,0,0
8,89999,39,80000,16,0,0,9999,0.100000,0,0,0.000000,3,0.000000,0.000000,0.403152,0,0,0,0,0,0,0
8,89999,40,80000,16,0,0,9999,0.100000,0,0,0.000000,3,0.000000,0.000000,0.134904,0,0,0,0,0,0,0
8,89999,41,80000,40,10000,0,9999,0.100000,0,0,0.000000,3,0.000000,0.000000,0.339412,0,0,0,0,0,0,0
8,89999,42,80000,93,70000,0,9999,0.100000,0,0,0.000000,4,0.000000,0.000000,0.169103,0,0,0,0,0,0,0
8,89999,43,80000,40,10000,0,9999,0.100000,0,0,0.000000,3,0.000000,0.000000,0.323205,0,0,0,0,0,0,0
8,89999,44,80000,40,10000,0,9999,0.100000,0,0,0.000000,3,0.000000,0.000000,0.146028,0,0,0,0,0,0,0
8,89999,45,80000,40,10000,0,9999,0.100000,0,0,0.000000,3,0.000000,0.000000,0.119617,0,0,0,0,0,0,0
8,89999,46,80000,40,10000,0,9999,0.100000,0,0,0.000000,3,0.000000,0.000000,0.620176,0,0,0,0,0,0,0
8,89999,47,80000,16,0,0,9999,0.100000,0,0,0.000000,4,0.000000,0.000000,0.142530,0,0,0,0,0,0,0
8,89999,48,80000,93,70000,0,9999,0.100000,0,0,0.000000,4,0.000000,0.000000,0.331335,0,0,0,0,0,0,0
8,89999,49,80000,55,20000,0,9999,0.100000,0,0,0.000000,3,0.000000,0.000000,0.558902,0,0,0,0,0,0,0
8,89999,50,80000,16,0,1,9999,0.100000,0,0,0.000000,3,2.000000,0.000000,6.063289,0,0,0,0,0,0,0
8,89999,51,80000,55,20000,0,9999,0.100000,0,0,0.000000,3,0.000000,0.000000,0.799290,0,0,0,0,0,0,0
8,89999,52,80000,55,20000,0,9999,0.100000,0,0,0.000000,3,0.000000,0.000000,16.956653,0,0,0,0,0,0,0
8,89999,53,80000,40,10000,0,9999,0.100000,0,0,0.000000,3,0.000000,0.000000,0.574955,0,0,0,0,0,0,0
8,89999,54,80000,55,20000,0,9999,0.100000,0,0,0.000000,4,0.000000,0.000000,1.664389,0,0,0,0,0,0,0
8,89999,55,80000,40,10000,0,9999,0.100000,0,0,0.000000,4,0.000000,0.000000,0.357127,0,0,0,0,0,0,0
8,89999,56,80000,40,10000,0,9999,0.100000,0,0,0.000000,3,0.000000,0.000000,0.238925,0,0,0,0,0,0,0
8,89999,57,80000,55,20000,0,9999,0.100000,0,0,0.000000,3,0.000000,0.000000,0.220658,0,0,0,0,0,0,0
8,89999,58,80000,16,0,0,9999,0.100000,0,0,0.000000,4,0.000000,0.000000,1.260015,0,0,0,0,0,0,0
8,89999,59,80000,40,10000,1,9999,0.100000,0,0,0.000000,3,8.000000,0.000000,17.498428,0,0,0,0,0,0,0
8,89999,60,80000,40,10000,0,9999,0.100000,0,0,0.000000,3,0.000000,0.000000,0.246797,0,0,0,0,0,0,0
8,89999,61,80000,16,0,0,9999,0.100000,0,0,0.000000,3,0.000000,0.000000,0.097043,0,0,0,0,0,0,0
8,89999,62,80000,16,0,0,9999,0.100000,0,0,0.000000,3,0.000000,0.000000,0.453158,0,0,0,0,0,0,0
8,89999,63,80000,55,20000,0,9999,0.100000,0,0,0.000000,3,0.000000,0.000000,0.086287,0,0,0,0,0,0,0
8,89999,64,80000,40,10000,0,9999,0.100000,0,0,0.000000,3,0.000000,0.000000,1.007651,0,0,0,0,0,0,0
8,89999,65,80000,40,10000,1,9999,0.100000,0,0,0.000000,3,1.000000,0.000000,2.915151,0,0,0,0,0,0,0
8,89999,66,80000,55,20000,0,9999,0.100000,0,0,0.000000,3,0.000000,0.000000,17.349133,0,0,0,0,0,0,0
8,89999,67,80000,55,20000,0,9999,0.100000,0,0,0.000000,3,0.000000,0.000000,0.584493,0,0,0,0,0,0,0
8,89999,68,80000,55,20000,0,9999,0.100000,0,0,0.000000,3,0.000000,0.000000,0.745820,0,0,0,0,0,0,0
8,89999,69,80000,40,10000,0,9999,0.100000,0,0,0.000000,4,0.000000,0.000000,0.312762,0,0,0,0,0,0,0
8,89999,70,80000,93,70000,0,9999,0.100000,0,0,0.000000,4,0.000000,0.000000,0.245842,0,0,0,0,0,0,0
8,89999,71,80000,16,0,0,9999,0.100000,0,0,0.000000,3,0.000000,0.000000,0.186491,0,0,0,0,0,0,0
8,89999,72,80000,16,0,0,9999,0.100000,0,0,0.000000,3,0.000000,0.000000,0.373287,0,0,0,0,0,0,0
8,89999,73,80000,55,20000,0,9999,0.100000,0,0,0.000000,3,0.000000,0.000000,0.331997,0,0,0,0,0,0,0
8,89999,74,80000,40,10000,0,9999,0.100000,0,0,0.000000,4,0.000000,0.000000,0.168759,0,0,0,0,0,0,0
8,89999,75,80000,16,0,0,9999,0.100000,0,0,0.000000,3,0.000000,0.000000,0.069562,0,0,0,0,0,0,0
8,89999,76,80000,40,10000,0,9999,0.100000,0,0,0.000000,3,0.000000,0.000000,0.234214,0,0,0,0,0,0,0
8,89999,77,80000,16,0,0,9999,0.100000,0,0,0.000000,3,0.000000,0.000000,0.136172,0,0,0,0,0,0,0
8,89999,78,80000,40,10000,0,9999,0.100000,0,0,0.000000,3,0.000000,0.000000,0.462904,0,0,0,0,0,0,0
8,89999,79,80000,55,20000,0,9999,0.100000,0,0,0.000000,3,0.000000,0.000000,1.925823,0,0,0,0,0,0,0
8,89999,80,80000,16,0,0,9999,0.100000,0,0,0.000000,4,0.000000,0.000000,1.018478,0,0,0,0,0,0,0
8,89999,81,80000,16,0,0,9999,0.100000,0,0,0.000000,3,0.000000,0.000000,0.352502,0,0,0,0,0,0,0
8,89999,82,80000,40,10000,0,9999,0.100000,0,0,0.000000,3,0.000000,0.000000,1.044827,0,0,0,0,0,0,0
8,89999,83,80000,40,10000,0,9999,0.100000,0,0,0.000000,3,0.000000,0.000000,0.354993,0,0,0,0,0,0,0
8,89999,84,80000,40,10000,0,9999,0.100000,0,0,0.000000,3,0.000000,0.000000,0.340922,0,0,0,0,0,0,0
8,89999,85,80000,93,70000,0,9999,0.100000,0,0,0.000000,4,0.000000,0.000000,1.165313,0,0,0,0,0,0,0
8,89999,86,80000,55,20000,0,9999,0.100000,0,0,0.000000,4,0.000000,0.000000,0.151138,0,0,0,0,0,0,0
8,89999,87,80000,16,0,0,9999,0.100000,0,0,0.000000,3,0.000000,0.000000,0.665607,0,0,0,0,0,0,0
8,89999,88,80000,40,10000,0,9999,0.100000,0,0,0.000000,3,0.000000,0.000000,0.390163,0,0,0,0,0,0,0
8,89999,89,80000,40,10000,0,9999,0.100000,0,0,0.000000,3,0.000000,0.000000,0.635546,0,0,0,0,0,0,0
8,89999,90,80000,40,10000,1,9999,0.100000,0,0,0.000000,3,5.000000,0.000000,6.838591,0,0,0,0,0,0,0
8,89999,91,80000,40,10000,0,9999,0.100000,0,0,0.000000,3,0.000000,0.000000,0.093861,0,0,0,0,0,0,0
8,89999,92,80000,55,20000,0,9999,0.100000,0,0,0.000000,3,0.000000,0.000000,7.510357,0,0,0,0,0,0,0
8,89999,93,80000,93,70000,0,9999,0.100000,0,0,0.000000,4,0.000000,0.000000,0.842285,0,0,0,0,0,0,0
8,89999,94,80000,40,10000,0,9999,0.100000,0,0,0.000000,3,0.000000,0.000000,0.201305,0,0,0,0,0,0,0
8,89999,95,80000,16,0,0,9999,0.100000,0,0,0.000000,3,0.000000,0.000000,0.116583,0,0,0,0,0,0,0
8,89999,96,80000,40,10000,0,9999,0.100000,0,0,0.000000,4,0.000000,0.000000,0.420016,0,0,0,0,0,0,0
8,89999,97,80000,40,10000,0,9999,0.100000,0,0,0.000000,3,0.000000,0.000000,0.087684,0,0,0,0,0,0,0
8,89999,98,80000,40,10000,0,9999,0.100000,0,0,0.000000,3,0.000000,0.000000,0.620452,0,0,0,0,0,0,0
8,89999,99,80000,40,10000,0,9999,0.100000,0,0,0.000000,4,0.000000,0.000000,0.673138,0,0,0,0,0,0,0
9,99999,0,90000,16,0,0,9999,0.100000,0,0,0.000000,4,0.000000,0.000000,1.451052,0,0,0,0,0,0,0
9,99999,1,90000,44,80000,0,9999,0.100000,0,0,0.000000,4,0.000000,0.000000,0.619265,0,0,0,0,0,0,0
9,99999,2,90000,16,0,0,9999,0.100000,0,0,0.000000,4,0.000000,0.000000,1.090983,0,0,0,0,0,0,0
9,99999,3,90000,44,80000,0,9999,0.100000,0,0,0.000000,4,0.000000,0.000000,0.185724,0,0,0,0,0,0,0
9,99999,4,90000,44,80000,0,9999,0.100000,0,0,0.000000,4,0.000000,0.000000,0.107846,0,0,0,0,0,0,0
9,99999,5,90000,93,70000,0,9999,0.100000,0,0,0.000000,4,0.000000,0.000000,3.504423,0,0,0,0,0,0,0
9,99999,6,90000,55,20000,0,9999,0.100000,0,0,0.000000,4,0.000000,0.000000,0.526028,0,0,0,0,0,0,0
9,99999,7,90000,16,0,0,9999,0.100000,0,0,0.000000,4,0.000000,0.000000,1.283403,0,0,0,0,0,0,0
9,99999,8,90000,55,20000,0,9999,0.100000,0,0,0.000000,4,0.000000,0.000000,0.578934,0,0,0,0,0,0,0
9,99999,9,90000,44,80000,0,9999,0.100000,0,0,0.000000,4,0.000000,0.000000,0.103280,0,0,0,0,0,0,0
9,99999,10,90000,93,70000,0,9999,0.100000,0,0,0.000000,4,0.000000,0.000000,0.084226,0,0,0,0,0,0,0
9,99999,11,90000,93,70000,0,9999,0.100000,0,0,0.000000,4,0.000000,0.000000,0.592486,0,0,0,0,0,0,0
9,99999,12,90000,55,20000,1,9999,0.100000,0,0,0.000000,4,14.000000,0.000000,17.162027,0,0,0,0,0,0,0
9,99999,13,90000,93,70000,0,9999,0.100000,0,0,0.000000,4,0.000000,0.000000,1.160456,0,0,0,0,0,0,0
9,99999,14,90000,44,80000,0,9999,0.100000,0,0,0.000000,4,0.000000,0.000000,0.994844,0,0,0,0,0,0,0
9,99999,15,90000,16,0,0,9999,0.100000,0,0,0.000000,4,0.000000,0.000000,0.259636,0,0,0,0,0,0,0
9,99999,16,90000,93,70000,0,9999,0.100000,0,0,0.000000,4,0.000000,0.000000,0.082964,0,0,0,0,0,0,0
9,99999,17,90000,93,70000,0,9999,0.100000,0,0,0.000000,4,0.000000,0.000000,0.468097,0,0,0,0,0,0,0
9,99999,18,90000,55,20000,0,9999,0.100000,0,0,0.000000,4,0.000000,0.000000,0.318643,0,0,0,0,0,0,0
9,99999,19,90000,93,70000,0,9999,0.100000,0,0,0.000000,4,0.000000,0.000000,0.089515,0,0,0,0,0,0,0
9,99999,20,90000,55,20000,0,9999,0.100000,0,0,0.000000,4,0.000000,0.000000,0.400711,0,0,0,0,0,0,0
9,99999,21,90000,44,80000,0,9999,0.100000,0,0,0.000000,4,0.000000,0.000000,0.062533,0,0,0,0,0,0,0
9,99999,22,90000,44,80000,0,9999,0.100000,0,0,0.000000,4,0.000000,0.000000,4.722369,0,0,0,0,0,0,0
9,99999,23,90000,16,0,0,9999,0.100000,0,0,0.000000,4,0.000000,0.000000,0.478509,0,0,0,0,0,0,0
9,99999,24,90000,93,70000,0,9999,0.100000,0,0,0.000000,4,0.000000,0.000000,0.218940,0,0,0,0,0,0,0
9,99999,25,90000,44,80000,0,9999,0.100000,0,0,0.000000,4,0.000000,0.000000,0.095379,0,0,0,0,0,0,0
9,99999,26,90000,55,20000,0,9999,0.100000,0,0,0.000000,4,0.000000,0.000000,0.164558,0,0,0,0,0,0,0
9,99999,27,90000,44,80000,0,9999,0.100000,0,0,0.000000,4,0.000000,0.000000,0.112746,0,0,0,0,0,0,0
9,99999,28,90000,16,0,0,9999,0.100000,0,0,0.000000,4,0.000000,0.000000,0.267782,0,0,0,0,0,0,0
9,99999,29,90000,44,80000,0,9999,0.100000,0,0,0.000000,4,0.000000,0.000000,0.433665,0,0,0,0,0,0,0
9,99999,30,90000,93,70000,0,9999,0.100000,0,0,0.000000,4,0.000000,0.000000,0.114194,0,0,0,0,0,0,0
9,99999,31,90000,44,80000,0,9999,0.100000,0,0,0.000000,4,0.000000,0.000000,0.174039,0,0,0,0,0,0,0
9,99999,32,90000,44,80000,0,9999,0.100000,0,0,0.000000,4,0.000000,0.000000,0.473349,0,0,0,0,0,0,0
9,99999,33,90000,55,20000,0,9999,0.100000,0,0,0.000000,4,0.000000,0.000000,0.148780,0,0,0,0,0,0,0
9,99999,34,90000,44,80000,0,9999,0.100000,0,0,0.000000,4,0.000000,0.000000,0.530650,0,0,0,0,0,0,0
9,99999,35,90000,93,70000,0,9999,0.100000,0,0,0.000000,4,0.000000,0.000000,0.930111,0,0,0,0,0,0,0
9,99999,36,90000,55,20000,0,9999,0.100000,0,0,0.000000,4,0.000000,0.000000,0.257208,0,0,0,0,0,0,0
9,99999,37,90000,55,20000,0,9999,0.100000,0,0,0.000000,4,0.000000,0.000000,0.114241,0,0,0,0,0,0,0
9,99999,38,90000,44,80000,0,9999,0.100000,0,0,0.000000,4,0.000000,0.000000,0.674412,0,0,0,0,0,0,0
9,99999,39,90000,55,20000,0,9999,0.100000,0,0,0.000000,4,0.000000,0.000000,0.345632,0,0,0,0,0,0,0
9,99999,40,90000,44,80000,0,9999,0.100000,0,0,0.000000,4,0.000000,0.000000,0.097152,0,0,0,0,0,0,0
9,99999,41,90000,93,70000,0,9999,0.100000,0,0,0.000000,4,0.000000,0.000000,1.118279,0,0,0,0,0,0,0
9,99999,42,90000,93,70000,0,9999,0.100000,0,0,0.000000,4,0.000000,0.000000,0.098729,0,0,0,0,0,0,0
9,99999,43,90000,93,70000,0,9999,0.100000,0,0,0.000000,4,0.000000,0.000000,0.220529,0,0,0,0,0,0,0
9,99999,44,90000,93,70000,0,9999,0.100000,0,0,0.000000,4,0.000000,0.000000,0.151369,0,0,0,0,0,0,0
9,99999,45,90000,55,20000,0,9999,0.100000,0,0,0.000000,4,0.000000,0.000000,0.107898,0,0,0,0,0,0,0
9,99999,46,90000,55,20000,0,9999,0.100000,0,0,0.000000,4,0.000000,0.000000,0.737779,0,0,0,0,0,0,0
9,99999,47,90000,55,20000,0,9999,0.100000,0,0,0.000000,4,0.000000,0.000000,0.161365,0,0,0,0,0,0,0
9,99999,48,90000,44,80000,0,9999,0.100000,0,0,0.000000,4,0.000000,0.000000,0.431741,0,0,0,0,0,0,0
9,99999,49,90000,44,80000,0,9999,0.100000,0,0,0.000000,4,0.000000,0.000000,0.527398,0,0,0,0,0,0,0
9,99999,50,90000,55,20000,0,9999,0.100000,0,0,0.000000,4,0.000000,0.000000,0.318489,0,0,0,0,0,0,0
9,99999,51,90000,44,80000,0,9999,0.100000,0,0,0.000000,4,0.000000,0.000000,0.838240,0,0,0,0,0,0,0
9,99999,52,90000,93,70000,1,9999,0.100000,0,0,0.000000,4,2.000000,0.000000,3.271279,0,0,0,0,0,0,0
9,99999,53,90000,55,20000,0,9999,0.100000,0,0,0.000000,4,0.000000,0.000000,0.587531,0,0,0,0,0,0,0
9,99999,54,90000,93,70000,0,9999,0.100000,0,0,0.000000,4,0.000000,0.000000,1.390020,0,0,0,0,0,0,0
9,99999,55,90000,44,80000,0,9999,0.100000,0,0,0.000000,4,0.000000,0.000000,0.298328,0,0,0,0,0,0,0
9,99999,56,90000,93,70000,0,9999,0.100000,0,0,0.000000,4,0.000000,0.000000,0.908799,0,0,0,0,0,0,0
9,99999,57,90000,93,70000,0,9999,0.100000,0,0,0.000000,4,0.000000,0.000000,0.225514,0,0,0,0,0,0,0
9,99999,58,90000,44,80000,0,9999,0.100000,0,0,0.000000,4,0.000000,0.000000,1.487388,0,0,0,0,0,0,0
9,99999,59,90000,93,70000,0,9999,0.100000,0,0,0.000000,4,0.000000,0.000000,0.380923,0,0,0,0,0,0,0
9,99999,60,90000,44,80000,0,9999,0.100000,0,0,0.000000,4,0.000000,0.000000,0.200258,0,0,0,0,0,0,0
9,99999,61,90000,55,20000,0,9999,0.100000,0,0,0.000000,4,0.000000,0.000000,0.105791,0,0,0,0,0,0,0
9,99999,62,90000,44,80000,0,9999,0.100000,0,0,0.000000,4,0.000000,0.000000,0.392144,0,0,0,0,0,0,0
9,99999,63,90000,44,80000,0,9999,0.100000,0,0,0.000000,4,0.000000,0.000000,0.085426,0,0,0,0,0,0,0
9,99999,64,90000,55,20000,0,9999,0.100000,0,0,0.000000,4,0.000000,0.000000,0.955209,0,0,0,0,0,0,0
9,99999,65,90000,16,0,1,9999,0.100000,0,0,0.000000,4,1.000000,0.000000,4.053821,0,0,0,0,0,0,0
9,99999,66,90000,55,20000,0,9999,0.100000,0,0,0.000000,4,0.000000,0.000000,17.130145,0,0,0,0,0,0,0
9,99999,67,90000,55,20000,0,9999,0.100000,0,0,0.000000,4,0.000000,0.000000,0.634343,0,0,0,0,0,0,0
9,99999,68,90000,16,0,0,9999,0.100000,0,0,0.000000,4,0.000000,0.000000,0.727028,0,0,0,0,0,0,0
9,99999,69,90000,93,70000,0,9999,0.100000,0,0,0.000000,4,0.000000,0.000000,0.205176,0,0,0,0,0,0,0
9,99999,70,90000,44,80000,0,9999,0.100000,0,0,0.000000,4,0.000000,0.000000,0.302406,0,0,0,0,0,0,0
9,99999,71,90000,93,70000,0,9999,0.100000,0,0,0.000000,4,0.000000,0.000000,0.211229,0,0,0,0,0,0,0
9,99999,72,90000,55,20000,0,9999,0.100000,0,0,0.000000,4,0.000000,0.000000,0.402581,0,0,0,0,0,0,0
9,99999,73,90000,44,80000,0,9999,0.100000,0,0,0.000000,4,0.000000,0.000000,0.385307,0,0,0,0,0,0,0
9,99999,74,90000,93,70000,0,9999,0.100000,0,0,0.000000,4,0.000000,0.000000,0.169958,0,0,0,0,0,0,0
9,99999,75,90000,93,70000,0,9999,0.100000,0,0,0.000000,4,0.000000,0.000000,0.068266,0,0,0,0,0,0,0
9,99999,76,90000,93,70000,0,9999,0.100000,0,0,0.000000,4,0.000000,0.000000,0.233833,0,0,0,0,0,0,0
9,99999,77,90000,55,20000,0,9999,0.100000,0,0,0.000000,4,0.000000,0.000000,0.182735,0,0,0,0,0,0,0
9,99999,78,90000,93,70000,0,9999,0.100000,0,0,0.000000,4,0.000000,0.000000,0.462104,0,0,0,0,0,0,0
9,99999,79,90000,55,20000,0,9999,0.100000,0,0,0.000000,4,0.000000,0.000000,1.746068,0,0,0,0,0,0,0
9,99999,80,90000,93,70000,0,9999,0.100000,0,0,0.000000,4,0.000000,0.000000,1.647008,0,0,0,0,0,0,0
9,99999,81,90000,93,70000,0,9999,0.100000,0,0,0.000000,4,0.000000,0.000000,0.330278,0,0,0,0,0,0,0
9,99999,82,90000,93,70000,0,9999,0.100000,0,0,0.000000,4,0.000000,0.000000,1.009391,0,0,0,0,0,0,0
9,99999,83,90000,55,20000,0,9999,0.100000,0,0,0.000000,4,0.000000,0.000000,0.347421,0,0,0,0,0,0,0
9,99999,84,90000,93,70000,0,9999,0.100000,0,0,0.000000,4,0.000000,0.000000,0.854201,0,0,0,0,0,0,0
9,99999,85,90000,40,10000,1,9999,0.100000,0,0,0.000000,4,1.000000,0.000000,3.768381,0,0,0,0,0,0,0
9,99999,86,90000,16,0,0,9999,0.100000,0,0,0.000000,4,0.000000,0.000000,0.166043,0,0,0,0,0,0,0
9,99999,87,90000,55,20000,0,9999,0.100000,0,0,0.000000,4,0.000000,0.000000,0.574026,0,0,0,0,0,0,0
9,99999,88,90000,16,0,0,9999,0.100000,0,0,0.000000,4,0.000000,0.000000,0.427946,0,0,0,0,0,0,0
9,99999,89,90000,55,20000,0,9999,0.100000,0,0,0.000000,4,0.000000,0.000000,0.596093,0,0,0,0,0,0,0
9,99999,90,90000,55,20000,1,9999,0.100000,0,0,0.000000,4,2.000000,0.000000,5.337465,0,0,0,0,0,0,0
9,99999,91,90000,44,80000,0,9999,0.100000,0,0,0.000000,4,0.000000,0.000000,0.085469,0,0,0,0,0,0,0
9,99999,92,90000,16,0,0,9999,0.100000,0,0,0.000000,4,0.000000,0.000000,7.440427,0,0,0,0,0,0,0
9,99999,93,90000,16,0,0,9999,0.100000,0,0,0.000000,4,0.000000,0.000000,0.819889,0,0,0,0,0,0,0
9,99999,94,90000,44,80000,0,9999,0.100000,0,0,0.000000,4,0.000000,0.000000,0.177755,0,0,0,0,0,0,0
9,99999,95,90000,44,80000,0,9999,0.100000,0,0,0.000000,4,0.000000,0.000000,0.114091,0,0,0,0,0,0,0
9,99999,96,90000,16,0,0,9999,0.100000,0,0,0.000000,4,0.000000,0.000000,1.277904,0,0,0,0,0,0,0
9,99999,97,90000,16,0,0,9999,0.100000,0,0,0.000000,4,0.000000,0.000000,0.174695,0,0,0,0,0,0,0
9,99999,98,90000,93,70000,0,9999,0.100000,0,0,0.000000,4,0.000000,0.000000,0.661675,0,0,0,0,0,0,0
9,99999,99,90000,16,0,0,9999,0.100000,0,0,0.000000,4,0.000000,0.000000,0.677135,0,0,0,0,0,0,0
10,109999,0,100000,55,20000,0,9999,0.100000,0,0,0.000000,4,0.000000,0.000000,0.528407,0,0,0,0,0,0,0
10,109999,1,100000,44,80000,0,9999,0.100000,0,0,0.000000,4,0.000000,0.000000,0.637409,0,0,0,0,0,0,0
10,109999,2,100000,16,0,0,9999,0.100000,0,0,0.000000,4,0.000000,0.000000,0.938877,0,0,0,0,0,0,0
10,109999,3,100000,16,0,0,9999,0.100000,0,0,0.000000,4,0.000000,0.000000,0.186768,0,0,0,0,0,0,0
10,109999,4,100000,44,80000,0,9999,0.100000,0,0,0.000000,4,0.000000,0.000000,0.108409,0,0,0,0,0,0,0
10,109999,5,100000,44,80000,0,9999,0.100000,0,0,0.000000,4,0.000000,0.000000,2.476808,0,0,0,0,0,0,0
10,109999,6,100000,55,20000,0,9999,0.100000,0,0,0.000000,4,0.000000,0.000000,0.575294,0,0,0,0,0,0,0
10,109999,7,100000,55,20000,0,9999,0.100000,0,0,0.000000,4,0.000000,0.000000,1.130646,0,0,0,0,0,0,0
10,109999,8,100000,16,0,0,9999,0.100000,0,0,0.000000,4,0.000000,0.000000,0.546085,0,0,0,0,0,0,0
10,109999,9,100000,44,80000,0,9999,0.100000,0,0,0.000000,4,0.000000,0.000000,0.102135,0,0,0,0,0,0,0
10,109999,10,100000,44,80000,0,9999,0.100000,0,0,0.000000,4,0.000000,0.000000,0.085971,0,0,0,0,0,0,0
10,109999,11,100000,44,80000,0,9999,0.100000,0,0,0.000000,4,0.000000,0.000000,0.582210,0,0,0,0,0,0,0
10,109999,12,100000,44,80000,0,9999,0.100000,0,0,0.000000,4,0.000000,0.000000,2.561559,0,0,0,0,0,0,0
10,109999,13,100000,93,70000,0,9999,0.100000,0,0,0.000000,4,0.000000,0.000000,0.851679,0,0,0,0,0,0,0
10,109999,14,100000,16,0,0,9999,0.100000,0,0,0.000000,4,0.000000,0.000000,0.948803,0,0,0,0,0,0,0
10,109999,15,100000,55,20000,0,9999,0.100000,0,0,0.000000,4,0.000000,0.000000,0.238551,0,0,0,0,0,0,0
10,109999,16,100000,93,70000,0,9999,0.100000,0,0,0.000000,4,0.000000,0.000000,0.081870,0,0,0,0,0,0,0
10,109999,17,100000,93,70000,0,9999,0.100000,0,0,0.000000,4,0.000000,0.000000,0.798210,0,0,0,0,0,0,0
10,109999,18,100000,93,70000,0,9999,0.100000,0,0,0.000000,4,0.000000,0.000000,0.293521,0,0,0,0,0,0,0
10,109999,19,100000,44,80000,0,9999,0.100000,0,0,0.000000,4,0.000000,0.000000,0.090126,0,0,0,0,0,0,0
10,109999,20,100000,44,80000,0,9999,0.100000,0,0,0.000000,4,0.000000,0.000000,0.265352,0,0,0,0,0,0,0
10,109999,21,100000,93,70000,0,9999,0.100000,0,0,0.000000,4,0.000000,0.000000,0.061011,0,0,0,0,0,0,0
10,109999,22,100000,16,0,1,9999,0.100000,0,0,0.000000,4,1.000000,0.000000,7.791450,0,0,0,0,0,0,0
10,109999,23,100000,44,80000,0,9999,0.100000,0,0,0.000000,4,0.000000,0.000000,0.632561,0,0,0,0,0,0,0
10,109999,24,100000,93,70000,0,9999,0.100000,0,0,0.000000,4,0.000000,0.000000,0.290451,0,0,0,0,0,0,0
10,109999,25,100000,16,0,0,9999,0.100000,0,0,0.000000,4,0.000000,0.000000,0.095029,0,0,0,0,0,0,0
10,109999,26,100000,44,80000,0,9999,0.100000,0,0,0.000000,4,0.000000,0.000000,0.172697,0,0,0,0,0,0,0
10,109999,27,100000,93,70000,0,9999,0.100000,0,0,0.000000,4,0.000000,0.000000,0.107363,0,0,0,0,0,0,0
10,109999,28,100000,44,80000,0,9999,0.100000,0,0,0.000000,4,0.000000,0.000000,0.184469,0,0,0,0,0,0,0
10,109999,29,100000,93,70000,0,9999,0.100000,0,0,0.000000,4,0.000000,0.000000,0.828554,0,0,0,0,0,0,0
10,109999,30,100000,16,0,0,9999,0.100000,0,0,0.000000,4,0.000000,0.000000,0.231280,0,0,0,0,0,0,0
10,109999,31,100000,16,0,0,9999,0.100000,0,0,0.000000,4,0.000000,0.000000,0.183140,0,0,0,0,0,0,0
10,109999,32,100000,93,70000,0,9999,0.100000,0,0,0.000000,4,0.000000,0.000000,0.525539,0,0,0,0,0,0,0
10,109999,33,100000,93,70000,0,9999,0.100000,0,0,0.000000,4,0.000000,0.000000,0.150559,0,0,0,0,0,0,0
10,109999,34,100000,55,20000,0,9999,0.100000,0,0,0.000000,4,0.000000,0.000000,0.525541,0,0,0,0,0,0,0
10,109999,35,100000,93,70000,0,9999,0.100000,0,0,0.000000,4,0.000000,0.000000,0.905942,0,0,0,0,0,0,0
10,109999,36,100000,44,80000,0,9999,0.100000,0,0,0.000000,4,0.000000,0.000000,0.379057,0,0,0,0,0,0,0
10,109999,37,100000,93,70000,0,9999,0.100000,0,0,0.000000,4,0.000000,0.000000,0.114054,0,0,0,0,0,0,0
10,109999,38,100000,93,70000,0,9999,0.100000,0,0,0.000000,4,0.000000,0.000000,0.202668,0,0,0,0,0,0,0
10,109999,39,100000,93,70000,0,9999,0.100000,0,0,0.000000,4,0.000000,0.000000,0.308510,0,0,0,0,0,0,0
10,109999,40,100000,16,0,0,9999,0.100000,0,0,0.000000,4,0.000000,0.000000,0.064074,0,0,0,0,0,0,0
10,109999,41,100000,44,80000,0,9999,0.100000,0,0,0.000000,4,0.000000,0.000000,0.934817,0,0,0,0,0,0,0
10,109999,42,100000,44,80000,0,9999,0.100000,0,0,0.000000,4,0.000000,0.000000,0.104355,0,0,0,0,0,0,0
10,109999,43,100000,93,70000,0,9999,0.100000,0,0,0.000000,4,0.000000,0.000000,0.154051,0,0,0,0,0,0,0
10,109999,44,100000,55,20000,0,9999,0.100000,0,0,0.000000,4,0.000000,0.000000,0.150083,0,0,0,0,0,0,0
10,109999,45,100000,55,20000,0,9999,0.100000,0,0,0.000000,4,0.000000,0.000000,0.113159,0,0,0,0,0,0,0
10,109999,46,100000,44,80000,0,9999,0.100000,0,0,0.000000,4,0.000000,0.000000,0.817292,0,0,0,0,0,0,0
10,109999,47,100000,55,20000,0,9999,0.100000,0,0,0.000000,4,0.000000,0.000000,0.169394,0,0,0,0,0,0,0
10,109999,48,100000,44,80000,0,9999,0.100000,0,0,0.000000,4,0.000000,0.000000,0.395526,0,0,0,0,0,0,0
10,109999,49,100000,55,20000,0,9999,0.100000,0,0,0.000000,4,0.000000,0.000000,0.478634,0,0,0,0,0,0,0
10,109999,50,100000,55,20000,0,9999,0.100000,0,0,0.000000,4,0.000000,0.000000,0.394676,0,0,0,0,0,0,0
10,109999,51,100000,44,80000,0,9999,0.100000,0,0,0.000000,4,0.000000,0.000000,0.901870,0,0,0,0,0,0,0
10,109999,52,100000,93,70000,0,9999,0.100000,0,0,0.000000,4,0.000000,0.000000,0.367424,0,0,0,0,0,0,0
10,109999,53,100000,93,70000,0,9999,0.100000,0,0,0.000000,4,0.000000,0.000000,2.804886,0,0,0,0,0,0,0
10,109999,54,100000,16,0,0,9999,0.100000,0,0,0.000000,4,0.000000,0.000000,1.361935,0,0,0,0,0,0,0
10,109999,55,100000,16,0,0,9999,0.100000,0,0,0.000000,4,0.000000,0.000000,0.123512,0,0,0,0,0,0,0
10,109999,56,100000,16,0,0,9999,0.100000,0,0,0.000000,4,0.000000,0.000000,0.536801,0,0,0,0,0,0,0
10,109999,57,100000,44,80000,0,9999,0.100000,0,0,0.000000,4,0.000000,0.000000,0.228958,0,0,0,0,0,0,0
10,109999,58,100000,55,20000,0,9999,0.100000,0,0,0.000000,4,0.000000,0.000000,1.568460,0,0,0,0,0,0,0
10,109999,59,100000,16,0,0,9999,0.100000,0,0,0.000000,4,0.000000,0.000000,0.486960,0,0,0,0,0,0,0
10,109999,60,100000,16,0,0,9999,0.135000,0,0,0.000000,4,0.000000,0.000000,0.211013,0,0,0,0,0,0,0
10,109999,61,100000,16,0,0,9999,0.100000,0,0,0.000000,4,0.000000,0.000000,0.094164,0,0,0,0,0,0,0
10,109999,62,100000,16,0,0,9999,0.100000,0,0,0.000000,4,0.000000,0.000000,0.421317,0,0,0,0,0,0,0
10,109999,63,100000,44,80000,0,9999,0.100000,0,0,0.000000,4,0.000000,0.000000,0.082686,0,0,0,0,0,0,0
10,109999,64,100000,16,0,0,9999,0.100000,0,0,0.000000,4,0.000000,0.000000,0.876171,0,0,0,0,0,0,0
10,109999,65,100000,16,0,0,9999,0.100000,0,0,0.000000,4,0.000000,0.000000,0.691091,0,0,0,0,0,0,0
10,109999,66,100000,55,20000,0,9999,0.100000,0,0,0.000000,4,0.000000,0.000000,17.044580,0,0,0,0,0,0,0
10,109999,67,100000,55,20000,0,9999,0.100000,0,0,0.000000,4,0.000000,0.000000,0.611235,0,0,0,0,0,0,0
10,109999,68,100000,16,0,0,9999,0.100000,0,0,0.000000,4,0.000000,0.000000,0.631622,0,0,0,0,0,0,0
10,109999,69,100000,44,80000,0,9999,0.100000,0,0,0.000000,4,0.000000,0.000000,0.113205,0,0,0,0,0,0,0
10,109999,70,100000,44,80000,0,9999,0.100000,0,0,0.000000,4,0.000000,0.000000,0.250027,0,0,0,0,0,0,0
10,109999,71,100000,55,20000,0,9999,0.100000,0,0,0.000000,4,0.000000,0.000000,0.215640,0,0,0,0,0,0,0
10,109999,72,100000,44,80000,0,9999,0.100000,0,0,0.000000,4,0.000000,0.000000,0.281021,0,0,0,0,0,0,0
10,109999,73,100000,16,0,0,9999,0.100000,0,0,0.000000,4,0.000000,0.000000,0.320518,0,0,0,0,0,0,0
10,109999,74,100000,44,80000,0,9999,0.100000,0,0,0.000000,4,0.000000,0.000000,0.168638,0,0,0,0,0,0,0
10,109999,75,100000,16,0,0,9999,0.100000,0,0,0.000000,4,0.000000,0.000000,0.067958,0,0,0,0,0,0,0
10,109999,76,100000,16,0,0,9999,0.100000,0,0,0.000000,4,0.000000,0.000000,0.237236,0,0,0,0,0,0,0
10,109999,77,100000,44,80000,0,9999,0.100000,0,0,0.000000,4,0.000000,0.000000,0.207216,0,0,0,0,0,0,0
10,109999,78,100000,16,0,1,9999,0.100000,0,0,0.000000,4,2.000000,0.000000,5.339673,0,0,0,6,0,0,0
10,109999,79,100000,93,70000,0,9999,0.100000,0,0,0.000000,4,0.000000,0.000000,1.821092,0,0,0,0,0,0,0
10,109999,80,100000,93,70000,0,9999,0.100000,0,0,0.000000,4,0.000000,0.000000,1.196428,0,0,0,0,0,0,0
10,109999,81,100000,44,80000,0,9999,0.100000,0,0,0.000000,4,0.000000,0.000000,0.337215,0,0,0,0,0,0,0
10,109999,82,100000,16,0,0,9999,0.100000,0,0,0.000000,4,0.000000,0.000000,1.051748,0,0,0,0,0,0,0
10,109999,83,100000,93,70000,0,9999,0.100000,0,0,0.000000,4,0.000000,0.000000,0.343933,0,0,0,0,0,0,0
10,109999,84,100000,93,70000,0,9999,0.100000,0,0,0.000000,4,0.000000,0.000000,0.602849,0,0,0,0,0,0,0
10,109999,85,100000,44,80000,0,9999,0.100000,0,0,0.000000,4,0.000000,0.000000,2.216711,0,0,0,0,0,0,0
10,109999,86,100000,16,0,0,9999,0.100000,0,0,0.000000,4,0.000000,0.000000,0.168245,0,0,0,0,0,0,0
10,109999,87,100000,93,70000,0,9999,0.100000,0,0,0.000000,4,0.000000,0.000000,0.584695,0,0,0,0,0,0,0
10,109999,88,100000,44,80000,0,9999,0.100000,0,0,0.000000,4,0.000000,0.000000,0.470046,0,0,0,0,0,0,0
10,109999,89,100000,55,20000,0,9999,0.100000,0,0,0.000000,4,0.000000,0.000000,0.557245,0,0,0,0,0,0,0
10,109999,90,100000,93,70000,1,9999,0.100000,0,0,0.000000,4,5.000000,0.000000,7.009982,0,0,0,0,0,0,0
10,109999,91,100000,55,20000,0,9999,0.100000,0,0,0.000000,4,0.000000,0.000000,0.087236,0,0,0,0,0,0,0
10,109999,92,100000,44,80000,0,9999,0.100000,0,0,0.000000,4,0.000000,0.000000,7.112617,0,0,0,0,0,0,0
10,109999,93,100000,16,0,0,9999,0.100000,0,0,0.000000,4,0.000000,0.000000,0.833645,0,0,0,0,0,0,0
10,109999,94,100000,44,80000,0,9999,0.100000,0,0,0.000000,4,0.000000,0.000000,0.190914,0,0,0,0,0,0,0
10,109999,95,100000,44,80000,0,9999,0.100000,0,0,0.000000,4,0.000000,0.000000,0.108952,0,0,0,0,0,0,0
10,109999,96,100000,44,80000,0,9999,0.100000,0,0,0.000000,4,0.000000,0.000000,1.446904,0,0,0,0,0,0,0
10,109999,97,100000,55,20000,0,9999,0.100000,0,0,0.000000,4,0.000000,0.000000,0.176078,0,0,0,0,0,0,0
10,109999,98,100000,16,0,0,9999,0.100000,0,0,0.000000,4,0.000000,0.000000,0.642576,0,0,0,0,0,0,0
10,109999,99,100000,55,20000,0,9999,0.100000,0,0,0.000000,4,0.000000,0.000000,0.668728,0,0,0,0,0,0,0
11,119999,0,110000,16,0,0,9999,0.100000,0,0,0.000000,4,0.000000,0.000000,0.688465,0,0,0,0,0,0,0
11,119999,1,110000,55,20000,0,9999,0.100000,0,0,0.000000,4,0.000000,0.000000,0.631390,0,0,0,0,0,0,0
11,119999,2,110000,55,20000,0,9999,0.100000,0,0,0.000000,4,0.000000,0.000000,1.130857,0,0,0,0,0,0,0
11,119999,3,110000,44,80000,0,9999,0.100000,0,0,0.000000,4,0.000000,0.000000,0.125501,0,0,0,0,0,0,0
11,119999,4,110000,55,20000,0,9999,0.065000,0,0,0.000000,4,0.000000,0.000000,0.108405,0,0,0,0,0,0,0
11,119999,5,110000,44,80000,0,9999,0.100000,0,0,0.000000,4,0.000000,0.000000,2.270703,0,0,0,0,0,0,0
11,119999,6,110000,93,70000,0,9999,0.100000,0,0,0.000000,4,0.000000,0.000000,0.619046,0,0,0,0,0,0,0
11,119999,7,110000,44,80000,0,9999,0.065000,0,0,0.000000,4,0.000000,0.000000,0.771483,0,0,0,0,0,0,0
11,119999,8,110000,55,20000,0,9999,0.100000,0,0,0.000000,4,0.000000,0.000000,0.567609,0,0,0,0,0,0,0
11,119999,9,110000,16,0,0,9999,0.100000,0,0,0.000000,4,0.000000,0.000000,0.100180,0,0,0,0,0,0,0
11,119999,10,110000,55,20000,0,9999,0.100000,0,0,0.000000,4,0.000000,0.000000,0.087513,0,0,0,0,0,0,0
11,119999,11,110000,93,70000,0,9999,0.100000,0,0,0.000000,4,0.000000,0.000000,0.941197,0,0,0,0,0,0,0
11,119999,12,110000,44,80000,0,9999,0.100000,0,0,0.000000,4,0.000000,0.000000,3.444576,0,0,0,0,0,0,0
11,119999,13,110000,55,20000,0,9999,0.100000,0,0,0.000000,4,0.000000,0.000000,1.235912,0,0,0,0,0,0,0
11,119999,14,110000,44,80000,0,9999,0.100000,0,0,0.000000,4,0.000000,0.000000,0.880245,0,0,0,0,0,0,0
11,119999,15,110000,93,70000,0,9999,0.100000,0,0,0.000000,4,0.000000,0.000000,0.242159,0,0,0,0,0,0,0
11,119999,16,110000,55,20000,0,9999,0.100000,0,0,0.000000,4,0.000000,0.000000,0.644347,0,0,0,0,0,0,0
11,119999,17,110000,44,80000,0,9999,0.100000,0,0,0.000000,4,0.000000,0.000000,0.793781,0,0,0,0,0,0,0
11,119999,18,110000,93,70000,0,9999,0.100000,0,0,0.000000,4,0.000000,0.000000,0.360519,0,0,0,0,0,0,0
11,119999,19,110000,44,80000,0,9999,0.100000,0,0,0.000000,4,0.000000,0.000000,0.097438,0,0,0,0,0,0,0
11,119999,20,110000,44,80000,0,9999,0.100000,0,0,0.000000,4,0.000000,0.000000,0.269543,0,0,0,0,0,0,0
11,119999,21,110000,93,70000,0,9999,0.100000,0,0,0.000000,4,0.000000,0.000000,0.061780,0,0,0,0,0,0,0
11,119999,22,110000,93,70000,0,9999,0.100000,0,0,0.000000,4,0.000000,0.000000,8.359516,0,0,0,0,0,0,0
11,119999,23,110000,16,0,0,9999,0.100000,0,0,0.000000,4,0.000000,0.000000,0.563714,0,0,0,0,0,0,0
11,119999,24,110000,93,70000,0,9999,0.100000,0,0,0.000000,4,0.000000,0.000000,0.137778,0,0,0,0,0,0,0
11,119999,25,110000,93,70000,0,9999,0.100000,0,0,0.000000,4,0.000000,0.000000,0.094456,0,0,0,0,0,0,0
11,119999,26,110000,55,20000,0,9999,0.100000,0,0,0.000000,4,0.000000,0.000000,0.108008,0,0,0,0,0,0,0
11,119999,27,110000,44,80000,0,9999,0.100000,0,0,0.000000,4,0.000000,0.000000,0.421932,0,0,0,0,0,0,0
11,119999,28,110000,16,0,0,9999,0.100000,0,0,0.000000,4,0.000000,0.000000,0.216667,0,0,0,0,0,0,0
11,119999,29,110000,93,70000,0,9999,0.100000,0,0,0.000000,4,0.000000,0.000000,1.304789,0,0,0,0,0,0,0
11,119999,30,110000,16,0,0,9999,0.100000,0,0,0.000000,4,0.000000,0.000000,0.322101,0,0,0,0,0,0,0
11,119999,31,110000,55,20000,0,9999,0.100000,0,0,0.000000,4,0.000000,0.000000,0.116845,0,0,0,0,0,0,0
11,119999,32,110000,16,0,0,9999,0.100000,0,0,0.000000,4,0.000000,0.000000,0.570093,0,0,0,0,0,0,0
11,119999,33,110000,44,80000,0,9999,0.100000,0,0,0.000000,4,0.000000,0.000000,0.151432,0,0,0,0,0,0,0
11,119999,34,110000,55,20000,0,9999,0.100000,0,0,0.000000,4,0.000000,0.000000,0.517474,0,0,0,0,0,0,0
11,119999,35,110000,44,80000,0,9999,0.100000,0,0,0.000000,4,0.000000,0.000000,0.869483,0,0,0,0,0,0,0
11,119999,36,110000,16,0,0,9999,0.100000,0,0,0.000000,4,0.000000,0.000000,1.306957,0,0,0,0,0,0,0
11,119999,37,110000,44,80000,0,9999,0.100000,0,0,0.000000,4,0.000000,0.000000,0.114429,0,0,0,0,0,0,0
11,119999,38,110000,16,0,0,9999,0.100000,0,0,0.000000,4,0.000000,0.000000,0.216437,0,0,0,0,0,0,0
11,119999,39,110000,55,20000,0,9999,0.100000,0,0,0.000000,4,0.000000,0.000000,0.276828,0,0,0,0,0,0,0
11,119999,40,110000,16,0,0,9999,0.100000,0,0,0.000000,4,0.000000,0.000000,0.065531,0,0,0,0,0,0,0
11,119999,41,110000,55,20000,0,9999,0.100000,0,0,0.000000,4,0.000000,0.000000,1.124610,0,0,0,0,0,0,0
11,119999,42,110000,16,0,0,9999,0.100000,0,0,0.000000,4,0.000000,0.000000,0.096762,0,0,0,0,0,0,0
11,119999,43,110000,93,70000,0,9999,0.100000,0,0,0.000000,4,0.000000,0.000000,0.173154,0,0,0,0,0,0,0
11,119999,44,110000,93,70000,0,9999,0.100000,0,0,0.000000,4,0.000000,0.000000,0.151416,0,0,0,0,0,0,0
11,119999,45,110000,44,80000,0,9999,0.100000,0,0,0.000000,4,0.000000,0.000000,0.116325,0,0,0,0,0,0,0
11,119999,46,110000,55,20000,0,9999,0.100000,0,0,0.000000,4,0.000000,0.000000,0.845507,0,0,0,0,0,0,0
11,119999,47,110000,44,80000,0,9999,0.100000,0,0,0.000000,4,0.000000,0.000000,0.179097,0,0,0,0,0,0,0
11,119999,48,110000,93,70000,0,9999,0.100000,0,0,0.000000,4,0.000000,0.000000,0.860106,0,0,0,0,0,0,0
11,119999,49,110000,44,80000,0,9999,0.100000,0,0,0.000000,4,0.000000,0.000000,0.434633,0,0,0,0,0,0,0
11,119999,50,110000,44,80000,0,9999,0.100000,0,0,0.000000,4,0.000000,0.000000,0.317494,0,0,0,0,0,0,0
11,119999,51,110000,55,20000,0,9999,0.100000,0,0,0.000000,4,0.000000,0.000000,0.935807,0,0,0,0,0,0,0
11,119999,52,110000,44,80000,0,9999,0.100000,0,0,0.000000,4,0.000000,0.000000,0.622127,0,0,0,0,0,0,0
11,119999,53,110000,55,20000,0,9999,0.100000,0,0,0.000000,4,0.000000,0.000000,3.256037,0,0,0,0,0,0,0
11,119999,54,110000,16,0,0,9999,0.100000,0,0,0.000000,4,0.000000,0.000000,0.909021,0,0,0,0,0,0,0
11,119999,55,110000,55,20000,0,9999,0.100000,0,0,0.000000,4,0.000000,0.000000,0.112194,0,0,0,0,0,0,0
11,119999,56,110000,44,80000,0,9999,0.100000,0,0,0.000000,4,0.000000,0.000000,0.409709,0,0,0,0,0,0,0
11,119999,57,110000,44,80000,0,9999,0.100000,0,0,0.000000,4,0.000000,0.000000,0.231820,0,0,0,0,0,0,0
11,119999,58,110000,55,20000,1,9999,0.100000,0,0,0.000000,4,6.000000,0.000000,15.255609,0,0,0,0,0,0,0
11,119999,59,110000,55,20000,0,9999,0.100000,0,0,0.000000,4,0.000000,0.000000,0.505542,0,0,0,0,0,0,0
11,119999,60,110000,16,0,0,9999,0.100000,0,0,0.000000,4,0.000000,0.000000,0.226550,0,0,0,0,0,0,0
11,119999,61,110000,44,80000,0,9999,0.100000,0,0,0.000000,4,0.000000,0.000000,0.109177,0,0,0,0,0,0,0
11,119999,62,110000,55,20000,0,9999,0.100000,0,0,0.000000,4,0.000000,0.000000,0.481512,0,0,0,0,0,0,0
11,119999,63,110000,44,80000,0,9999,0.100000,0,0,0.000000,4,0.000000,0.000000,0.082992,0,0,0,0,0,0,0
11,119999,64,110000,93,70000,1,9999,0.100000,0,0,0.000000,4,2.000000,0.000000,3.908072,0,0,0,0,0,0,0
11,119999,65,110000,55,20000,1,9999,0.100000,0,0,0.000000,4,4.000000,0.000000,11.185943,0,0,0,0,0,0,0
11,119999,66,110000,16,0,1,9999,0.100000,0,0,0.000000,4,1.000000,0.000000,1.623914,0,0,0,0,0,0,0
11,119999,67,110000,16,0,0,9999,0.100000,0,0,0.000000,4,0.000000,0.000000,0.606530,0,0,0,0,0,0,0
11,119999,68,110000,93,70000,0,9999,0.100000,0,0,0.000000,4,0.000000,0.000000,0.676176,0,0,0,0,0,0,0
11,119999,69,110000,55,20000,0,9999,0.100000,0,0,0.000000,4,0.000000,0.000000,0.128696,0,0,0,0,0,0,0
11,119999,70,110000,93,70000,0,9999,0.100000,0,0,0.000000,4,0.000000,0.000000,0.286665,0,0,0,0,0,0,0
11,119999,71,110000,16,0,0,9999,0.100000,0,0,0.000000,4,0.000000,0.000000,0.468773,0,0,0,0,0,0,0
11,119999,72,110000,16,0,0,9999,0.100000,0,0,0.000000,4,0.000000,0.000000,0.519656,0,0,0,0,0,0,0
11,119999,73,110000,55,20000,0,9999,0.100000,0,0,0.000000,4,0.000000,0.000000,0.382750,0,0,0,0,0,0,0
11,119999,74,110000,44,80000,0,9999,0.100000,0,0,0.000000,4,0.000000,0.000000,0.167670,0,0,0,0,0,0,0
11,119999,75,110000,93,70000,0,9999,0.100000,0,0,0.000000,4,0.000000,0.000000,0.069085,0,0,0,0,0,0,0
11,119999,76,110000,44,80000,0,9999,0.100000,0,0,0.000000,4,0.000000,0.000000,0.227252,0,0,0,0,0,0,0
11,119999,77,110000,44,80000,0,9999,0.100000,0,0,0.000000,4,0.000000,0.000000,0.174879,0,0,0,0,0,0,0
11,119999,78,110000,93,70000,0,9999,0.100000,0,0,0.000000,4,0.000000,0.000000,2.310079,0,0,0,0,0,0,0
11,119999,79,110000,44,80000,0,9999,0.100000,0,0,0.000000,4,0.000000,0.000000,4.048314,0,0,0,0,0,0,0
11,119999,80,110000,44,80000,0,9999,0.100000,0,0,0.000000,4,0.000000,0.000000,1.280195,0,0,0,0,0,0,0
11,119999,81,110000,16,0,0,9999,0.100000,0,0,0.000000,4,0.000000,0.000000,0.337237,0,0,0,0,0,0,0
11,119999,82,110000,55,20000,0,9999,0.100000,0,0,0.000000,4,0.000000,0.000000,0.938852,0,0,0,0,0,0,0
11,119999,83,110000,44,80000,0,9999,0.100000,0,0,0.000000,4,0.000000,0.000000,0.313968,0,0,0,0,0,0,0
11,119999,84,110000,16,0,0,9999,0.100000,0,0,0.000000,4,0.000000,0.000000,0.440049,0,0,0,0,0,0,0
11,119999,85,110000,16,0,0,9999,0.100000,0,0,0.000000,4,0.000000,0.000000,2.137439,0,0,0,0,0,0,0
11,119999,86,110000,93,70000,0,9999,0.100000,0,0,0.000000,4,0.000000,0.000000,0.176564,0,0,0,0,0,0,0
11,119999,87,110000,55,20000,0,9999,0.100000,0,0,0.000000,4,0.000000,0.000000,0.325968,0,0,0,0,0,0,0
11,119999,88,110000,44,80000,0,9999,0.100000,0,0,0.000000,4,0.000000,0.000000,0.590618,0,0,0,0,0,0,0
11,119999,89,110000,44,80000,0,9999,0.100000,0,0,0.000000,4,0.000000,0.000000,0.579899,0,0,0,0,0,0,0
11,119999,90,110000,44,80000,0,9999,0.100000,0,0,0.000000,4,0.000000,0.000000,0.423277,0,0,0,0,0,0,0
11,119999,91,110000,16,0,0,9999,0.100000,0,0,0.000000,4,0.000000,0.000000,0.087390,0,0,0,0,0,0,0
11,119999,92,110000,16,0,0,9999,0.100000,0,0,0.000000,4,0.000000,0.000000,6.999068,0,0,0,0,0,0,0
11,119999,93,110000,55,20000,0,9999,0.100000,0,0,0.000000,4,0.000000,0.000000,0.750914,0,0,0,0,0,0,0
11,119999,94,110000,93,70000,0,9999,0.100000,0,0,0.000000,4,0.000000,0.000000,0.251549,0,0,0,0,0,0,0
11,119999,95,110000,44,80000,0,9999,0.135000,0,0,0.000000,4,0.000000,0.000000,0.370418,0,0,0,0,0,0,0
11,119999,96,110000,93,70000,0,9999,0.100000,0,0,0.000000,4,0.000000,0.000000,1.789440,0,0,0,0,0,0,0
11,119999,97,110000,93,70000,0,9999,0.100000,0,0,0.000000,4,0.000000,0.000000,0.177057,0,0,0,0,0,0,0
11,119999,98,110000,44,80000,0,9999,0.100000,0,0,0.000000,4,0.000000,0.000000,0.668932,0,0,0,0,0,0,0
11,119999,99,110000,44,80000,0,9999,0.100000,0,0,0.000000,4,0.000000,0.000000,0.648384,0,0,0,0,0,0,0
12,129999,0,120000,93,70000,0,9999,0.100000,0,0,0.000000,4,0.000000,0.000000,0.613577,0,0,0,0,0,0,0
12,129999,1,120000,55,20000,0,9999,0.100000,0,0,0.000000,4,0.000000,0.000000,0.614994,0,0,0,0,0,0,0
12,129999,2,120000,16,0,0,9999,0.100000,0,0,0.000000,4,0.000000,0.000000,1.142397,0,0,0,0,0,0,0
12,129999,3,120000,16,0,0,9999,0.100000,0,0,0.000000,4,0.000000,0.000000,0.128619,0,0,0,0,0,0,0
12,129999,4,120000,16,0,0,9999,0.100000,0,0,0.000000,4,0.000000,0.000000,0.108205,0,0,0,0,0,0,0
12,129999,5,120000,44,80000,0,9999,0.100000,0,0,0.000000,4,0.000000,0.000000,2.331596,0,0,0,0,0,0,0
12,129999,6,120000,55,20000,0,9999,0.100000,0,0,0.000000,4,0.000000,0.000000,0.690002,0,0,0,0,0,0,0
12,129999,7,120000,16,0,0,9999,0.100000,0,0,0.000000,4,0.000000,0.000000,0.812524,0,0,0,0,0,0,0
12,129999,8,120000,55,20000,0,9999,0.100000,0,0,0.000000,4,0.000000,0.000000,0.528531,0,0,0,0,0,0,0
12,129999,9,120000,16,0,0,9999,0.100000,0,0,0.000000,4,0.000000,0.000000,0.098898,0,0,0,0,0,0,0
12,129999,10,120000,55,20000,0,9999,0.100000,0,0,0.000000,4,0.000000,0.000000,0.086884,0,0,0,0,0,0,0
12,129999,11,120000,16,0,0,9999,0.100000,0,0,0.000000,4,0.000000,0.000000,0.843432,0,0,0,0,0,0,0
12,129999,12,120000,93,70000,0,9999,0.100000,0,0,0.000000,4,0.000000,0.000000,2.749529,0,0,0,0,0,0,0
12,129999,13,120000,55,20000,0,9999,0.100000,0,0,0.000000,4,0.000000,0.000000,1.507128,0,0,0,0,0,0,0
12,129999,14,120000,93,70000,0,9999,0.100000,0,0,0.000000,4,0.000000,0.000000,0.816663,0,0,0,0,0,0,0
12,129999,15,120000,55,20000,0,9999,0.100000,0,0,0.000000,4,0.000000,0.000000,0.239174,0,0,0,0,0,0,0
12,129999,16,120000,16,0,0,9999,0.100000,0,0,0.000000,4,0.000000,0.000000,0.096938,0,0,0,0,0,0,0
12,129999,17,120000,44,80000,0,9999,0.100000,0,0,0.000000,4,0.000000,0.000000,0.513726,0,0,0,0,0,0,0
12,129999,18,120000,44,80000,0,9999,0.100000,0,0,0.000000,4,0.000000,0.000000,0.296991,0,0,0,0,0,0,0
12,129999,19,120000,55,20000,0,9999,0.100000,0,0,0.000000,4,0.000000,0.000000,0.097320,0,0,0,0,0,0,0
12,129999,20,120000,16,0,0,9999,0.100000,0,0,0.000000,4,0.000000,0.000000,0.357764,0,0,0,0,0,0,0
12,129999,21,120000,55,20000,0,9999,0.100000,0,0,0.000000,4,0.000000,0.000000,0.074636,0,0,0,0,0,0,0
12,129999,22,120000,16,0,0,9999,0.100000,0,0,0.000000,4,0.000000,0.000000,10.343899,0,0,0,0,0,0,0
12,129999,23,120000,93,70000,0,9999,0.100000,0,0,0.000000,4,0.000000,0.000000,0.484232,0,0,0,0,0,0,0
12,129999,24,120000,93,70000,0,9999,0.100000,0,0,0.000000,4,0.000000,0.000000,0.100798,0,0,0,0,0,0,0
12,129999,25,120000,44,80000,0,9999,0.100000,0,0,0.000000,4,0.000000,0.000000,0.107213,0,0,0,0,0,0,0
12,129999,26,120000,93,70000,0,9999,0.100000,0,0,0.000000,4,0.000000,0.000000,0.279699,0,0,0,0,0,0,0
12,129999,27,120000,44,80000,0,9999,0.100000,0,0,0.000000,4,0.000000,0.000000,0.352338,0,0,0,0,0,0,0
12,129999,28,120000,55,20000,0,9999,0.100000,0,0,0.000000,4,0.000000,0.000000,0.314093,0,0,0,0,0,0,0
12,129999,29,120000,44,80000,0,9999,0.100000,0,0,0.000000,4,0.000000,0.000000,0.474065,0,0,0,0,0,0,0
12,129999,30,120000,55,20000,0,9999,0.100000,0,0,0.000000,4,0.000000,0.000000,0.415533,0,0,0,0,0,0,0
12,129999,31,120000,44,80000,0,9999,0.100000,0,0,0.000000,4,0.000000,0.000000,0.121993,0,0,0,0,0,0,0
12,129999,32,120000,44,80000,0,9999,0.100000,0,0,0.000000,4,0.000000,0.000000,0.613860,0,0,0,0,0,0,0
12,129999,33,120000,16,0,0,9999,0.100000,0,0,0.000000,4,0.000000,0.000000,0.155565,0,0,0,0,0,0,0
12,129999,34,120000,55,20000,0,9999,0.100000,0,0,0.000000,4,0.000000,0.000000,0.499875,0,0,0,0,0,0,0
12,129999,35,120000,93,70000,0,9999,0.100000,0,0,0.000000,4,0.000000,0.000000,0.896824,0,0,0,0,0,0,0
12,129999,36,120000,16,0,0,9999,0.100000,0,0,0.000000,4,0.000000,0.000000,1.437918,0,0,0,0,0,0,0
12,129999,37,120000,93,70000,0,9999,0.100000,0,0,0.000000,4,0.000000,0.000000,0.138417,0,0,0,0,0,0,0
12,129999,38,120000,93,70000,0,9999,0.100000,0,0,0.000000,4,0.000000,0.000000,0.192014,0,0,0,0,0,0,0
12,129999,39,120000,55,20000,0,9999,0.100000,0,0,0.000000,4,0.000000,0.000000,0.265835,0,0,0,0,0,0,0
12,129999,40,120000,55,20000,0,9999,0.100000,0,0,0.000000,4,0.000000,0.000000,0.099756,0,0,0,0,0,0,0
12,129999,41,120000,55,20000,0,9999,0.100000,0,0,0.000000,4,0.000000,0.000000,0.486166,0,0,0,0,0,0,0
