generation,iteration,robot,birthday,ancestor_id,ancestor_birthday,cell_id,age,sigma,maps,genomes,fitness,cells_in_map,dist_max,dist_pot_max,dist_total,com_rx,com_tx,obj_group1,obj_group2,obj_group3,obj_group4,obj_group5
0,9999,0,0,0,0,1,9999,0.100000,0,0,0.000000,0,5.000000,0.000000,20.117925,0,0,0,0,0,0,0
0,9999,1,0,1,0,1,9999,0.100000,0,0,0.000000,0,10.000000,0.000000,17.372129,0,0,0,0,0,0,0
0,9999,2,0,2,0,1,9999,0.100000,0,0,0.000000,0,9.000000,0.000000,13.024027,0,0,0,0,0,0,0
0,9999,3,0,3,0,1,9999,0.100000,0,0,0.000000,0,8.000000,0.000000,20.705272,0,0,0,0,0,0,0
0,9999,4,0,4,0,1,9999,0.100000,0,0,0.000000,0,9.000000,0.000000,18.135443,0,0,0,0,0,0,0
0,9999,5,0,5,0,1,9999,0.100000,0,0,0.000000,0,10.000000,0.000000,16.217078,0,0,0,0,0,0,0
0,9999,6,0,6,0,1,9999,0.100000,0,0,0.000000,0,8.000000,0.000000,8.668167,0,0,0,0,0,0,0
0,9999,7,0,7,0,1,9999,0.100000,0,0,0.000000,0,9.000000,0.000000,24.356849,0,0,0,0,0,0,0
0,9999,8,0,8,0,1,9999,0.100000,0,0,0.000000,0,4.000000,0.000000,16.890305,0,0,0,0,0,0,0
0,9999,9,0,9,0,1,9999,0.100000,0,0,0.000000,0,4.000000,0.000000,12.849401,0,0,0,0,0,0,0
0,9999,10,0,10,0,1,9999,0.100000,0,0,0.000000,0,8.000000,0.000000,22.380513,0,0,0,0,0,0,0
0,9999,11,0,11,0,1,9999,0.100000,0,0,0.000000,0,8.000000,0.000000,19.783159,0,0,0,0,0,0,0
0,9999,12,0,12,0,1,9999,0.100000,0,0,0.000000,0,7.000000,0.000000,15.230899,0,0,0,0,0,0,0
0,9999,13,0,13,0,1,9999,0.100000,0,0,0.000000,0,4.000000,0.000000,8.335189,0,0,0,0,0,0,0
0,9999,14,0,14,0,1,9999,0.100000,0,0,0.000000,0,4.000000,0.000000,14.992320,0,0,0,0,0,0,0
0,9999,15,0,15,0,1,9999,0.100000,0,0,0.000000,0,7.000000,0.000000,21.051336,0,0,0,0,0,0,0
0,9999,16,0,16,0,1,9999,0.100000,0,0,0.000000,0,5.000000,0.000000,15.261159,0,0,0,0,0,0,0
0,9999,17,0,17,0,1,9999,0.100000,0,0,0.000000,0,8.000000,0.000000,15.326985,0,0,0,0,0,0,0
0,9999,18,0,18,0,1,9999,0.100000,0,0,0.000000,0,6.000000,0.000000,10.648773,0,0,0,0,0,0,0
0,9999,19,0,19,0,1,9999,0.100000,0,0,0.000000,0,7.000000,0.000000,15.913398,0,0,0,0,0,0,0
0,9999,20,0,20,0,1,9999,0.100000,0,0,0.000000,0,2.000000,0.000000,4.162325,0,0,0,0,0,0,0
0,9999,21,0,21,0,1,9999,0.100000,0,0,0.000000,0,8.000000,0.000000,12.169552,0,0,0,0,0,0,0
0,9999,22,0,22,0,1,9999,0.100000,0,0,0.000000,0,9.000000,0.000000,18.146670,0,0,0,0,0,0,0
0,9999,23,0,23,0,1,9999,0.100000,0,0,0.000000,0,8.000000,0.000000,16.362620,0,0,0,0,0,0,0
0,9999,24,0,24,0,1,9999,0.100000,0,0,0.000000,0,6.000000,0.000000,13.976465,0,0,0,0,0,0,0
0,9999,25,0,25,0,1,9999,0.100000,0,0,0.000000,0,9.000000,0.000000,19.352565,0,0,0,0,0,0,0
0,9999,26,0,26,0,1,9999,0.100000,0,0,0.000000,0,11.000000,0.000000,16.566223,0,0,0,0,0,0,0
0,9999,27,0,27,0,1,9999,0.100000,0,0,0.000000,0,2.000000,0.000000,4.512362,0,0,0,0,0,0,0
0,9999,28,0,28,0,1,9999,0.100000,0,0,0.000000,0,10.000000,0.000000,23.047328,0,0,0,0,0,0,0
0,9999,29,0,29,0,1,9999,0.100000,0,0,0.000000,0,9.000000,0.000000,17.097064,0,0,0,0,0,0,0
0,9999,30,0,30,0,1,9999,0.100000,0,0,0.000000,0,4.000000,0.000000,8.162934,0,0,0,0,0,0,0
0,9999,31,0,31,0,1,9999,0.100000,0,0,0.000000,0,8.000000,0.000000,9.294747,0,0,0,0,0,0,0
0,9999,32,0,32,0,1,9999,0.100000,0,0,0.000000,0,8.000000,0.000000,19.499288,0,0,0,0,0,0,0
0,9999,33,0,33,0,1,9999,0.100000,0,0,0.000000,0,8.000000,0.000000,15.703000,0,0,0,0,0,0,0
0,9999,34,0,34,0,1,9999,0.100000,0,0,0.000000,0,9.000000,0.000000,14.683134,0,0,0,0,0,0,0
0,9999,35,0,35,0,1,9999,0.100000,0,0,0.000000,0,7.000000,0.000000,11.994249,0,0,0,0,0,0,0
0,9999,36,0,36,0,1,9999,0.100000,0,0,0.000000,0,7.000000,0.000000,13.579191,0,0,0,0,0,0,0
0,9999,37,0,37,0,1,9999,0.100000,0,0,0.000000,0,4.000000,0.000000,16.717599,0,0,0,0,0,0,0
0,9999,38,0,38,0,3,9999,0.100000,0,0,95.508847,0,9.000000,0.000000,35.442971,0,0,1,0,0,0,0
0,9999,39,0,39,0,1,9999,0.100000,0,0,0.000000,0,9.000000,0.000000,13.027218,0,0,0,0,0,0,0
0,9999,40,0,40,0,1,9999,0.100000,0,0,0.000000,0,5.000000,0.000000,13.062089,0,0,0,0,0,0,0
0,9999,41,0,41,0,1,9999,0.100000,0,0,0.000000,0,2.000000,0.000000,3.310567,0,0,0,0,0,0,0
0,9999,42,0,42,0,1,9999,0.100000,0,0,0.000000,0,10.000000,0.000000,21.346500,0,0,0,0,0,0,0
0,9999,43,0,43,0,1,9999,0.100000,0,0,0.000000,0,3.000000,0.000000,19.331677,0,0,0,0,0,0,0
0,9999,44,0,44,0,1,9999,0.100000,0,0,0.000000,0,7.000000,0.000000,14.197299,0,0,0,0,0,0,0
0,9999,45,0,45,0,1,9999,0.100000,0,0,0.000000,0,8.000000,0.000000,16.289451,0,0,0,0,0,0,0
0,9999,46,0,46,0,1,9999,0.100000,0,0,0.000000,0,10.000000,0.000000,27.209602,0,0,0,0,0,0,0
0,9999,47,0,47,0,1,9999,0.100000,0,0,0.000000,0,11.000000,0.000000,15.697908,0,0,0,0,0,0,0
0,9999,48,0,48,0,1,9999,0.100000,0,0,0.000000,0,9.000000,0.000000,10.990858,0,0,0,0,0,0,0
0,9999,49,0,49,0,1,9999,0.100000,0,0,0.000000,0,9.000000,0.000000,18.824699,0,0,0,0,0,0,0
0,9999,50,0,50,0,1,9999,0.100000,0,0,0.000000,0,5.000000,0.000000,7.822956,0,0,0,0,0,0,0
0,9999,51,0,51,0,1,9999,0.100000,0,0,0.000000,0,5.000000,0.000000,13.858828,0,0,0,0,0,0,0
0,9999,52,0,52,0,1,9999,0.100000,0,0,0.000000,0,9.000000,0.000000,18.792268,0,0,0,0,0,0,0
0,9999,53,0,53,0,1,9999,0.100000,0,0,0.000000,0,4.000000,0.000000,15.829637,0,0,0,0,0,0,0
0,9999,54,0,54,0,1,9999,0.100000,0,0,0.000000,0,7.000000,0.000000,16.107625,0,0,0,0,0,0,0
0,9999,55,0,55,0,1,9999,0.100000,0,0,0.000000,0,6.000000,0.000000,12.815654,0,0,0,0,0,0,0
0,9999,56,0,56,0,1,9999,0.100000,0,0,0.000000,0,2.000000,0.000000,9.835349,0,0,0,0,0,0,0
0,9999,57,0,57,0,1,9999,0.100000,0,0,0.000000,0,10.000000,0.000000,17.768189,0,0,0,0,0,0,0
0,9999,58,0,58,0,1,9999,0.100000,0,0,0.000000,0,2.000000,0.000000,4.234658,0,0,0,0,0,0,0
0,9999,59,0,59,0,1,9999,0.100000,0,0,0.000000,0,9.000000,0.000000,14.509097,0,0,0,0,0,0,0
0,9999,60,0,60,0,1,9999,0.100000,0,0,0.000000,0,10.000000,0.000000,22.868580,0,0,0,0,0,0,0
0,9999,61,0,61,0,1,9999,0.100000,0,0,0.000000,0,11.000000,0.000000,20.608502,0,0,0,0,0,0,0
0,9999,62,0,62,0,1,9999,0.100000,0,0,0.000000,0,9.000000,0.000000,9.788467,0,0,0,0,0,0,0
0,9999,63,0,63,0,1,9999,0.100000,0,0,0.000000,0,8.000000,0.000000,8.625663,0,0,0,0,0,0,0
0,9999,64,0,64,0,1,9999,0.100000,0,0,0.000000,0,9.000000,0.000000,11.081059,0,0,0,0,0,0,0
0,9999,65,0,65,0,1,9999,0.100000,0,0,0.000000,0,11.000000,0.000000,11.984350,0,0,0,0,0,0,0
0,9999,66,0,66,0,1,9999,0.100000,0,0,0.000000,0,9.000000,0.000000,15.783045,0,0,0,0,0,0,0
0,9999,67,0,67,0,1,9999,0.100000,0,0,0.000000,0,4.000000,0.000000,5.898906,0,0,0,0,0,0,0
0,9999,68,0,68,0,1,9999,0.100000,0,0,0.000000,0,9.000000,0.000000,15.276241,0,0,0,0,0,0,0
0,9999,69,0,69,0,1,9999,0.100000,0,0,0.000000,0,3.000000,0.000000,14.621383,0,0,0,0,0,0,0
0,9999,70,0,70,0,1,9999,0.100000,0,0,0.000000,0,12.000000,0.000000,25.863225,0,0,0,0,0,0,0
0,9999,71,0,71,0,1,9999,0.100000,0,0,0.000000,0,10.000000,0.000000,19.633102,0,0,0,0,0,0,0
0,9999,72,0,72,0,1,9999,0.100000,0,0,0.000000,0,2.000000,0.000000,3.948374,0,0,0,0,0,0,0
0,9999,73,0,73,0,1,9999,0.100000,0,0,0.000000,0,8.000000,0.000000,13.065529,0,0,0,0,0,0,0
0,9999,74,0,74,0,1,9999,0.100000,0,0,0.000000,0,8.000000,0.000000,20.619974,0,0,0,0,0,0,0
0,9999,75,0,75,0,1,9999,0.100000,0,0,0.000000,0,9.000000,0.000000,15.503477,0,0,0,0,0,0,0
0,9999,76,0,76,0,3,9999,0.100000,0,0,55.065273,0,10.000000,0.000000,22.856521,0,0,1,0,0,0,0
0,9999,77,0,77,0,1,9999,0.100000,0,0,0.000000,0,10.000000,0.000000,20.678584,0,0,0,0,0,0,0
0,9999,78,0,78,0,1,9999,0.100000,0,0,0.000000,0,11.000000,0.000000,29.593871,0,0,0,0,0,0,0
0,9999,79,0,79,0,1,9999,0.100000,0,0,0.000000,0,7.000000,0.000000,11.532338,0,0,0,0,0,0,0
0,9999,80,0,80,0,1,9999,0.100000,0,0,0.000000,0,8.000000,0.000000,10.539724,0,0,0,0,0,0,0
0,9999,81,0,81,0,1,9999,0.100000,0,0,0.000000,0,6.000000,0.000000,8.374651,0,0,0,0,0,0,0
0,9999,82,0,82,0,1,9999,0.100000,0,0,0.000000,0,11.000000,0.000000,14.527976,0,0,0,0,0,0,0
0,9999,83,0,83,0,1,9999,0.100000,0,0,0.000000,0,8.000000,0.000000,14.240142,0,0,0,0,0,0,0
0,9999,84,0,84,0,1,9999,0.100000,0,0,0.000000,0,7.000000,0.000000,18.863245,0,0,0,0,0,0,0
0,9999,85,0,85,0,3,9999,0.100000,0,0,98.703746,0,10.000000,0.000000,36.351710,0,0,1,0,0,0,0
0,9999,86,0,86,0,1,9999,0.100000,0,0,0.000000,0,12.000000,0.000000,25.201134,0,0,0,0,0,0,0
0,9999,87,0,87,0,1,9999,0.100000,0,0,0.000000,0,11.000000,0.000000,13.671541,0,0,0,0,0,0,0
0,9999,88,0,88,0,1,9999,0.100000,0,0,0.000000,0,7.000000,0.000000,11.842571,0,0,0,0,0,0,0
0,9999,89,0,89,0,1,9999,0.100000,0,0,0.000000,0,8.000000,0.000000,19.036097,0,0,0,0,0,0,0
0,9999,90,0,90,0,1,9999,0.100000,0,0,0.000000,0,11.000000,0.000000,16.150819,0,0,0,0,0,0,0
0,9999,91,0,91,0,1,9999,0.100000,0,0,0.000000,0,4.000000,0.000000,12.370236,0,0,0,0,0,0,0
0,9999,92,0,92,0,1,9999,0.100000,0,0,0.000000,0,3.000000,0.000000,25.526653,0,0,0,0,0,0,0
0,9999,93,0,93,0,1,9999,0.100000,0,0,0.000000,0,9.000000,0.000000,22.412690,0,0,0,0,0,0,0
0,9999,94,0,94,0,1,9999,0.100000,0,0,0.000000,0,8.000000,0.000000,13.310764,0,0,0,0,0,0,0
0,9999,95,0,95,0,1,9999,0.100000,0,0,0.000000,0,9.000000,0.000000,20.501431,0,0,0,0,0,0,0
0,9999,96,0,96,0,1,9999,0.100000,0,0,0.000000,0,1.000000,0.000000,10.182254,0,0,0,0,0,0,0
0,9999,97,0,97,0,1,9999,0.100000,0,0,0.000000,0,9.000000,0.000000,10.683730,0,0,0,0,0,0,0
0,9999,98,0,98,0,1,9999,0.100000,0,0,0.000000,0,11.000000,0.000000,23.808463,0,0,0,0,0,0,0
0,9999,99,0,99,0,1,9999,0.100000,0,0,0.000000,0,11.000000,0.000000,22.606824,0,0,0,0,0,0,0
1,19999,0,10000,2,0,0,9999,0.100000,0,0,0.000000,1,0.000000,0.000000,4.252840,0,0,0,0,0,0,0
1,19999,1,10000,2,0,1,9999,0.100000,0,0,0.000000,1,9.000000,0.000000,10.177591,0,0,0,0,0,0,0
1,19999,2,10000,2,0,0,9999,0.100000,0,0,0.000000,1,0.000000,0.000000,0.084133,0,0,0,0,0,0,0
1,19999,3,10000,2,0,1,9999,0.100000,0,0,0.000000,1,2.000000,0.000000,4.551142,0,0,0,0,0,0,0
1,19999,4,10000,2,0,1,9999,0.100000,0,0,0.000000,1,5.000000,0.000000,19.359204,0,0,0,0,0,0,0
1,19999,5,10000,2,0,1,9999,0.100000,0,0,0.000000,1,6.000000,0.000000,21.004977,0,0,0,0,0,0,0
1,19999,6,10000,2,0,0,9999,0.100000,0,0,0.000000,1,0.000000,0.000000,0.062656,0,0,0,0,0,0,0
1,19999,7,10000,2,0,1,9999,0.100000,0,0,0.000000,1,5.000000,0.000000,13.265993,0,0,0,0,0,0,0
1,19999,8,10000,2,0,1,9999,0.100000,0,0,0.000000,1,2.000000,0.000000,8.716805,0,0,0,0,0,0,0
1,19999,9,10000,2,0,0,9999,0.100000,0,0,0.000000,1,0.000000,0.000000,0.699001,0,0,0,0,0,0,0
1,19999,10,10000,2,0,3,9999,0.100000,0,0,90.834950,1,13.000000,0.000000,30.101449,0,0,1,0,0,0,0
1,19999,11,10000,2,0,1,9999,0.100000,0,0,0.000000,1,5.000000,0.000000,20.046261,0,0,0,0,0,0,0
1,19999,12,10000,2,0,0,9999,0.100000,0,0,0.000000,1,0.000000,0.000000,1.037624,0,0,0,0,0,0,0
1,19999,13,10000,2,0,0,9999,0.100000,0,0,0.000000,1,0.000000,0.000000,1.044442,0,0,0,0,0,0,0
1,19999,14,10000,2,0,1,9999,0.100000,0,0,0.000000,1,1.000000,0.000000,14.269521,0,0,0,0,0,0,0
1,19999,15,10000,2,0,1,9999,0.100000,0,0,0.000000,1,3.000000,0.000000,17.826340,0,0,0,0,0,0,0
1,19999,16,10000,2,0,0,9999,0.100000,0,0,0.000000,1,0.000000,0.000000,2.407711,0,0,0,0,0,0,0
1,19999,17,10000,2,0,1,9999,0.100000,0,0,0.000000,1,2.000000,0.000000,21.990367,0,0,0,0,0,0,0
1,19999,18,10000,2,0,1,9999,0.100000,0,0,0.000000,1,2.000000,0.000000,18.967830,0,0,0,0,0,0,0
1,19999,19,10000,2,0,0,9999,0.100000,0,0,0.000000,1,0.000000,0.000000,0.398850,0,0,0,0,0,0,0
1,19999,20,10000,2,0,0,9999,0.100000,0,0,0.000000,1,0.000000,0.000000,1.059476,0,0,0,0,0,0,0
1,19999,21,10000,2,0,0,9999,0.100000,0,0,0.000000,1,0.000000,0.000000,0.411726,0,0,0,0,0,0,0
1,19999,22,10000,2,0,1,9999,0.100000,0,0,0.000000,1,2.000000,0.000000,6.710021,0,0,0,0,0,0,0
1,19999,23,10000,2,0,1,9999,0.100000,0,0,0.000000,1,2.000000,0.000000,7.818525,0,0,0,0,0,0,0
1,19999,24,10000,2,0,3,9999,0.100000,0,0,69.139446,1,10.000000,0.000000,27.908453,0,0,1,0,0,0,0
1,19999,25,10000,2,0,1,9999,0.100000,0,0,0.000000,2,5.000000,0.000000,12.824144,0,0,0,0,0,0,0
1,19999,26,10000,2,0,1,9999,0.100000,0,0,0.000000,1,3.000000,0.000000,29.782959,0,0,0,0,0,0,0
1,19999,27,10000,85,0,0,9999,0.100000,0,0,0.000000,2,0.000000,0.000000,1.078683,0,0,0,0,0,0,0
1,19999,28,10000,2,0,1,9999,0.100000,0,0,0.000000,2,5.000000,0.000000,20.091341,0,0,0,0,0,0,0
1,19999,29,10000,2,0,1,9999,0.100000,0,0,0.000000,1,3.000000,0.000000,3.773381,0,0,0,0,0,0,0
1,19999,30,10000,2,0,0,9999,0.100000,0,0,0.000000,1,0.000000,0.000000,1.798313,0,0,0,0,0,0,0
1,19999,31,10000,2,0,1,9999,0.100000,0,0,0.000000,1,1.000000,0.000000,1.579556,0,0,0,0,0,0,0
1,19999,32,10000,2,0,1,9999,0.100000,0,0,0.000000,1,5.000000,0.000000,13.316976,0,0,0,0,0,0,0
1,19999,33,10000,2,0,1,9999,0.100000,0,0,0.000000,1,4.000000,0.000000,14.445675,0,0,0,0,0,0,0
1,19999,34,10000,2,0,1,9999,0.100000,0,0,0.000000,1,6.000000,0.000000,14.797136,0,0,0,0,0,0,0
1,19999,35,10000,2,0,1,9999,0.100000,0,0,0.000000,1,3.000000,0.000000,17.368380,0,0,0,0,0,0,0
1,19999,36,10000,2,0,1,9999,0.100000,0,0,0.000000,1,4.000000,0.000000,14.056623,0,0,0,0,0,0,0
1,19999,37,10000,2,0,0,9999,0.100000,0,0,0.000000,2,0.000000,0.000000,6.753752,0,0,0,0,0,0,0
1,19999,38,10000,2,0,1,9999,0.100000,0,0,0.000000,2,2.000000,0.000000,13.080372,0,0,0,0,0,0,0
1,19999,39,10000,2,0,0,9999,0.100000,0,0,0.000000,2,0.000000,0.000000,0.121880,0,0,0,0,0,0,0
1,19999,40,10000,38,0,0,9999,0.100000,0,0,0.000000,2,0.000000,0.000000,12.243044,0,0,0,0,0,0,0
1,19999,41,10000,2,0,1,9999,0.100000,0,0,0.000000,2,1.000000,0.000000,7.335614,0,0,0,0,0,0,0
1,19999,42,10000,2,0,1,9999,0.100000,0,0,0.000000,2,4.000000,0.000000,24.060686,0,0,0,0,0,0,0
1,19999,43,10000,38,0,0,9999,0.100000,0,0,0.000000,2,0.000000,0.000000,9.888822,0,0,0,0,0,0,0
1,19999,44,10000,2,0,0,9999,0.100000,0,0,0.000000,2,0.000000,0.000000,0.647953,0,0,0,0,0,0,0
1,19999,45,10000,2,0,1,9999,0.100000,0,0,0.000000,2,4.000000,0.000000,10.947328,0,0,0,0,0,0,0
1,19999,46,10000,2,0,1,9999,0.100000,0,0,0.000000,2,5.000000,0.000000,10.834779,0,0,0,0,0,0,0
1,19999,47,10000,38,0,0,9999,0.100000,0,0,0.000000,2,0.000000,0.000000,0.819406,0,0,0,0,0,0,0
1,19999,48,10000,38,0,0,9999,0.100000,0,0,0.000000,2,0.000000,0.000000,0.489096,0,0,0,0,0,0,0
1,19999,49,10000,2,0,1,9999,0.100000,0,0,0.000000,2,4.000000,0.000000,15.216707,0,0,0,0,0,0,0
1,19999,50,10000,2,0,1,9999,0.100000,0,0,0.000000,2,8.000000,0.000000,11.537748,0,0,0,0,0,0,0
1,19999,51,10000,38,0,0,9999,0.100000,0,0,0.000000,2,0.000000,0.000000,1.300208,0,0,0,0,0,0,0
1,19999,52,10000,2,0,3,9999,0.100000,0,0,58.947980,2,8.000000,0.000000,23.698278,0,0,1,0,0,0,0
1,19999,53,10000,2,0,0,9999,0.100000,0,0,0.000000,2,0.000000,0.000000,6.589533,0,0,0,0,0,0,0
1,19999,54,10000,2,0,1,9999,0.100000,0,0,0.000000,2,4.000000,0.000000,20.936502,0,0,0,0,0,0,0
1,19999,55,10000,2,0,1,9999,0.100000,0,0,0.000000,2,5.000000,0.000000,12.909593,0,0,0,0,0,0,0
1,19999,56,10000,2,0,1,9999,0.100000,0,0,0.000000,2,1.000000,0.000000,2.826714,0,0,0,0,0,0,0
1,19999,57,10000,2,0,1,9999,0.100000,0,0,0.000000,2,3.000000,0.000000,16.628435,0,0,0,0,0,0,0
1,19999,58,10000,2,0,1,9999,0.100000,0,0,0.000000,2,8.000000,0.000000,12.776456,0,0,0,0,0,0,0
1,19999,59,10000,2,0,1,9999,0.100000,0,0,0.000000,2,8.000000,0.000000,23.396499,0,0,0,0,0,0,0
1,19999,60,10000,2,0,1,9999,0.100000,0,0,0.000000,2,5.000000,0.000000,17.461952,0,0,0,0,0,0,0
1,19999,61,10000,2,0,1,9999,0.100000,0,0,0.000000,2,9.000000,0.000000,21.789755,0,0,0,0,0,0,0
1,19999,62,10000,2,0,0,9999,0.100000,0,0,0.000000,2,0.000000,0.000000,0.080437,0,0,0,0,0,0,0
1,19999,63,10000,2,0,0,9999,0.100000,0,0,0.000000,2,0.000000,0.000000,0.887627,0,0,0,0,0,0,0
1,19999,64,10000,2,0,0,9999,0.100000,0,0,0.000000,2,0.000000,0.000000,0.226029,0,0,0,0,0,0,0
1,19999,65,10000,2,0,1,9999,0.100000,0,0,0.000000,2,3.000000,0.000000,10.970768,0,0,0,0,0,0,0
1,19999,66,10000,2,0,1,9999,0.100000,0,0,0.000000,2,4.000000,0.000000,8.042431,0,0,0,0,0,0,0
1,19999,67,10000,2,0,0,9999,0.100000,0,0,0.000000,2,0.000000,0.000000,0.919878,0,0,0,0,0,0,0
1,19999,68,10000,2,0,1,9999,0.100000,0,0,0.000000,2,6.000000,0.000000,16.331614,0,0,0,0,0,0,0
1,19999,69,10000,2,0,3,9999,0.100000,0,0,64.696584,2,11.000000,0.000000,28.090609,0,0,1,0,0,0,0
1,19999,70,10000,2,0,1,9999,0.100000,0,0,0.000000,2,6.000000,0.000000,25.772341,0,0,0,0,0,0,0
1,19999,71,10000,2,0,1,9999,0.100000,0,0,0.000000,2,5.000000,0.000000,14.910910,0,0,0,0,0,0,0
1,19999,72,10000,2,0,0,9999,0.100000,0,0,0.000000,2,0.000000,0.000000,0.713417,0,0,0,0,0,0,0
1,19999,73,10000,2,0,0,9999,0.100000,0,0,0.000000,2,0.000000,0.000000,18.710814,0,0,0,0,0,0,0
1,19999,74,10000,2,0,1,9999,0.100000,0,0,0.000000,2,5.000000,0.000000,22.056400,0,0,0,0,0,0,0
1,19999,75,10000,2,0,1,9999,0.100000,0,0,0.000000,2,1.000000,0.000000,1.688534,0,0,0,0,0,0,0
1,19999,76,10000,2,0,1,9999,0.100000,0,0,0.000000,2,3.000000,0.000000,22.379617,0,0,0,0,0,0,0
1,19999,77,10000,2,0,1,9999,0.100000,0,0,0.000000,2,3.000000,0.000000,9.244060,0,0,0,0,0,0,0
1,19999,78,10000,2,0,1,9999,0.100000,0,0,0.000000,2,9.000000,0.000000,10.215486,0,0,0,0,0,0,0
1,19999,79,10000,2,0,1,9999,0.100000,0,0,0.000000,2,5.000000,0.000000,17.768943,0,0,0,0,0,0,0
1,19999,80,10000,2,0,0,9999,0.100000,0,0,0.000000,2,0.000000,0.000000,1.194023,0,0,0,0,0,0,0
1,19999,81,10000,2,0,0,9999,0.100000,0,0,0.000000,2,0.000000,0.000000,0.906663,0,0,0,0,0,0,0
1,19999,82,10000,2,0,1,9999,0.100000,0,0,0.000000,2,6.000000,0.000000,22.539716,0,0,0,0,0,0,0
1,19999,83,10000,85,0,1,9999,0.100000,0,0,0.000000,2,2.000000,0.000000,12.497060,0,0,0,0,0,0,0
1,19999,84,10000,2,0,1,9999,0.100000,0,0,0.000000,2,2.000000,0.000000,15.997542,0,0,0,0,0,0,0
1,19999,85,10000,2,0,1,9999,0.100000,0,0,0.000000,2,5.000000,0.000000,18.562844,0,0,0,0,0,0,0
1,19999,86,10000,2,0,1,9999,0.100000,0,0,0.000000,2,8.000000,0.000000,23.003211,0,0,0,0,0,0,0
1,19999,87,10000,2,0,1,9999,0.100000,0,0,0.000000,2,1.000000,0.000000,1.826217,0,0,0,0,0,0,0
1,19999,88,10000,85,0,0,9999,0.100000,0,0,0.000000,2,0.000000,0.000000,1.436098,0,0,0,0,0,0,0
1,19999,89,10000,85,0,1,9999,0.100000,0,0,0.000000,2,3.000000,0.000000,18.113352,0,0,0,0,0,0,0
1,19999,90,10000,2,0,1,9999,0.100000,0,0,0.000000,2,5.000000,0.000000,21.701688,0,0,0,0,0,0,0
1,19999,91,10000,2,0,1,9999,0.100000,0,0,0.000000,2,3.000000,0.000000,13.297110,0,0,0,0,0,0,0
1,19999,92,10000,85,0,1,9999,0.100000,0,0,0.000000,2,2.000000,0.000000,9.180073,0,0,0,0,0,0,0
1,19999,93,10000,85,0,1,9999,0.100000,0,0,0.000000,2,2.000000,0.000000,18.505035,0,0,0,0,0,0,0
1,19999,94,10000,85,0,1,9999,0.100000,0,0,0.000000,2,1.000000,0.000000,3.618972,0,0,0,0,0,0,0
1,19999,95,10000,85,0,1,9999,0.100000,0,0,0.000000,2,2.000000,0.000000,15.925162,0,0,0,0,0,0,0
1,19999,96,10000,2,0,1,9999,0.100000,0,0,0.000000,2,3.000000,0.000000,15.260559,0,0,0,0,0,0,0
1,19999,97,10000,85,0,1,9999,0.100000,0,0,0.000000,2,9.000000,0.000000,10.126396,0,0,0,0,0,0,0
1,19999,98,10000,2,0,1,9999,0.100000,0,0,0.000000,2,6.000000,0.000000,16.174763,0,0,0,0,0,0,0
1,19999,99,10000,85,0,1,9999,0.100000,0,0,0.000000,2,1.000000,0.000000,11.062499,0,0,0,0,0,0,0
