generation,iteration,robot,birthday,ancestor_id,ancestor_birthday,cell_id,age,sigma,maps,genomes,fitness,cells_in_map,dist_max,dist_pot_max,dist_total,com_rx,com_tx,obj_group1,obj_group2,obj_group3,obj_group4,obj_group5
0,9999,0,0,0,0,49,9999,0.100000,0,0,0.000000,0,8.000000,0.000000,8.222342,0,0,0,0,0,0,0
0,9999,1,0,1,0,49,9999,0.100000,0,0,0.000000,0,5.000000,0.000000,17.491800,0,0,0,0,0,0,0
0,9999,2,0,2,0,49,9999,0.100000,0,0,0.000000,0,6.000000,0.000000,9.713776,0,0,0,0,0,0,0
0,9999,3,0,3,0,49,9999,0.100000,0,0,0.000000,0,6.000000,0.000000,9.096103,0,0,0,0,0,0,0
0,9999,4,0,4,0,49,9999,0.100000,0,0,0.000000,0,9.000000,0.000000,20.839649,0,0,0,0,0,0,0
0,9999,5,0,5,0,49,9999,0.100000,0,0,0.000000,0,5.000000,0.000000,10.419858,0,0,0,0,0,0,0
0,9999,6,0,6,0,49,9999,0.100000,0,0,0.000000,0,5.000000,0.000000,7.544267,0,0,0,0,0,0,0
0,9999,7,0,7,0,49,9999,0.100000,0,0,0.000000,0,10.000000,0.000000,19.456294,0,0,0,0,0,0,0
0,9999,8,0,8,0,49,9999,0.100000,0,0,0.000000,0,12.000000,0.000000,28.514318,0,0,0,0,0,0,0
0,9999,9,0,9,0,49,9999,0.100000,0,0,0.000000,0,7.000000,0.000000,8.434871,0,0,0,0,0,0,0
0,9999,10,0,10,0,49,9999,0.100000,0,0,0.000000,0,10.000000,0.000000,21.137258,0,0,0,0,0,0,0
0,9999,11,0,11,0,99,9999,0.100000,0,0,47.368421,0,9.000000,0.000000,25.507979,0,0,1,0,0,0,0
0,9999,12,0,12,0,49,9999,0.100000,0,0,0.000000,0,12.000000,0.000000,20.961757,0,0,0,0,0,0,0
0,9999,13,0,13,0,49,9999,0.100000,0,0,0.000000,0,10.000000,0.000000,15.629721,0,0,0,0,0,0,0
0,9999,14,0,14,0,49,9999,0.100000,0,0,0.000000,0,1.000000,0.000000,11.331890,0,0,0,0,0,0,0
0,9999,15,0,15,0,49,9999,0.100000,0,0,0.000000,0,6.000000,0.000000,14.757897,0,0,0,0,0,0,0
0,9999,16,0,16,0,49,9999,0.100000,0,0,0.000000,0,10.000000,0.000000,19.661003,0,0,0,0,0,0,0
0,9999,17,0,17,0,49,9999,0.100000,0,0,0.000000,0,3.000000,0.000000,6.545116,0,0,0,0,0,0,0
0,9999,18,0,18,0,49,9999,0.100000,0,0,0.000000,0,6.000000,0.000000,14.819680,0,0,0,0,0,0,0
0,9999,19,0,19,0,49,9999,0.100000,0,0,0.000000,0,7.000000,0.000000,21.960419,0,0,0,0,0,0,0
0,9999,20,0,20,0,49,9999,0.100000,0,0,0.000000,0,10.000000,0.000000,13.826504,0,0,0,0,0,0,0
0,9999,21,0,21,0,49,9999,0.100000,0,0,0.000000,0,5.000000,0.000000,9.886014,0,0,0,0,0,0,0
0,9999,22,0,22,0,49,9999,0.100000,0,0,0.000000,0,2.000000,0.000000,3.013656,0,0,0,0,0,0,0
0,9999,23,0,23,0,49,9999,0.100000,0,0,0.000000,0,7.000000,0.000000,7.738450,0,0,0,0,0,0,0
0,9999,24,0,24,0,49,9999,0.100000,0,0,0.000000,0,9.000000,0.000000,15.571663,0,0,0,0,0,0,0
0,9999,25,0,25,0,49,9999,0.100000,0,0,0.000000,0,6.000000,0.000000,16.499809,0,0,0,0,0,0,0
0,9999,26,0,26,0,49,9999,0.100000,0,0,0.000000,0,9.000000,0.000000,17.075526,0,0,0,0,0,0,0
0,9999,27,0,27,0,49,9999,0.100000,0,0,0.000000,0,8.000000,0.000000,17.341125,0,0,0,0,0,0,0
0,9999,28,0,28,0,49,9999,0.100000,0,0,0.000000,0,6.000000,0.000000,7.923206,0,0,0,0,0,0,0
0,9999,29,0,29,0,49,9999,0.100000,0,0,0.000000,0,11.000000,0.000000,33.330739,0,0,0,0,0,0,0
0,9999,30,0,30,0,49,9999,0.100000,0,0,0.000000,0,9.000000,0.000000,13.098463,0,0,0,0,0,0,0
0,9999,31,0,31,0,99,9999,0.100000,0,0,47.368421,0,10.000000,0.000000,34.256721,0,0,1,0,0,0,0
0,9999,32,0,32,0,49,9999,0.100000,0,0,0.000000,0,3.000000,0.000000,8.036825,0,0,0,0,0,0,0
0,9999,33,0,33,0,49,9999,0.100000,0,0,0.000000,0,8.000000,0.000000,14.027098,0,0,0,0,0,0,0
0,9999,34,0,34,0,49,9999,0.100000,0,0,0.000000,0,10.000000,0.000000,22.022742,0,0,0,0,0,0,0
0,9999,35,0,35,0,49,9999,0.100000,0,0,0.000000,0,4.000000,0.000000,4.609954,0,0,0,0,0,0,0
0,9999,36,0,36,0,49,9999,0.100000,0,0,0.000000,0,8.000000,0.000000,13.421926,0,0,0,0,0,0,0
0,9999,37,0,37,0,49,9999,0.100000,0,0,0.000000,0,10.000000,0.000000,23.123734,0,0,0,0,0,0,0
0,9999,38,0,38,0,49,9999,0.100000,0,0,0.000000,0,8.000000,0.000000,16.649526,0,0,0,0,0,0,0
0,9999,39,0,39,0,49,9999,0.100000,0,0,0.000000,0,8.000000,0.000000,22.487447,0,0,0,0,0,0,0
0,9999,40,0,40,0,49,9999,0.100000,0,0,0.000000,0,2.000000,0.000000,3.465576,0,0,0,0,0,0,0
0,9999,41,0,41,0,49,9999,0.100000,0,0,0.000000,0,8.000000,0.000000,15.895699,0,0,0,0,0,0,0
0,9999,42,0,42,0,49,9999,0.100000,0,0,0.000000,0,11.000000,0.000000,12.218749,0,0,0,0,0,0,0
0,9999,43,0,43,0,49,9999,0.100000,0,0,0.000000,0,6.000000,0.000000,8.403801,0,0,0,0,0,0,0
0,9999,44,0,44,0,49,9999,0.100000,0,0,0.000000,0,5.000000,0.000000,17.414304,0,0,0,0,0,0,0
0,9999,45,0,45,0,49,9999,0.100000,0,0,0.000000,0,9.000000,0.000000,10.047229,0,0,0,0,0,0,0
0,9999,46,0,46,0,49,9999,0.100000,0,0,0.000000,0,6.000000,0.000000,18.404706,0,0,0,0,0,0,0
0,9999,47,0,47,0,49,9999,0.100000,0,0,0.000000,0,5.000000,0.000000,8.421334,0,0,0,0,0,0,0
0,9999,48,0,48,0,49,9999,0.100000,0,0,0.000000,0,4.000000,0.000000,6.899750,0,0,0,0,0,0,0
0,9999,49,0,49,0,49,9999,0.100000,0,0,0.000000,0,9.000000,0.000000,26.132161,0,0,0,0,0,0,0
0,9999,50,0,50,0,49,9999,0.100000,0,0,0.000000,0,8.000000,0.000000,13.071231,0,0,0,0,0,0,0
0,9999,51,0,51,0,49,9999,0.100000,0,0,0.000000,0,9.000000,0.000000,19.024691,0,0,0,0,0,0,0
0,9999,52,0,52,0,49,9999,0.100000,0,0,0.000000,0,10.000000,0.000000,24.029411,0,0,0,0,0,0,0
0,9999,53,0,53,0,49,9999,0.100000,0,0,0.000000,0,8.000000,0.000000,21.079151,0,0,0,0,0,0,0
0,9999,54,0,54,0,49,9999,0.100000,0,0,0.000000,0,5.000000,0.000000,6.170490,0,0,0,0,0,0,0
0,9999,55,0,55,0,49,9999,0.100000,0,0,0.000000,0,6.000000,0.000000,17.346577,0,0,0,0,0,0,0
0,9999,56,0,56,0,49,9999,0.100000,0,0,0.000000,0,3.000000,0.000000,6.808111,0,0,0,0,0,0,0
0,9999,57,0,57,0,49,9999,0.100000,0,0,0.000000,0,9.000000,0.000000,20.827023,0,0,0,0,0,0,0
0,9999,58,0,58,0,49,9999,0.100000,0,0,0.000000,0,9.000000,0.000000,17.419191,0,0,0,0,0,0,0
0,9999,59,0,59,0,49,9999,0.100000,0,0,0.000000,0,9.000000,0.000000,16.830086,0,0,0,0,0,0,0
0,9999,60,0,60,0,49,9999,0.100000,0,0,0.000000,0,7.000000,0.000000,22.798681,0,0,0,0,0,0,0
0,9999,61,0,61,0,49,9999,0.100000,0,0,0.000000,0,3.000000,0.000000,13.520046,0,0,0,0,0,0,0
0,9999,62,0,62,0,49,9999,0.100000,0,0,0.000000,0,9.000000,0.000000,19.509229,0,0,0,0,0,0,0
0,9999,63,0,63,0,49,9999,0.100000,0,0,0.000000,0,8.000000,0.000000,16.239061,0,0,0,0,0,0,0
0,9999,64,0,64,0,49,9999,0.100000,0,0,0.000000,0,11.000000,0.000000,12.779944,0,0,0,0,0,0,0
0,9999,65,0,65,0,40,9999,0.100000,0,0,0.000000,0,0.000000,0.000000,1.298942,0,0,0,0,0,0,0
0,9999,66,0,66,0,49,9999,0.100000,0,0,0.000000,0,11.000000,0.000000,14.755307,0,0,0,0,0,0,0
0,9999,67,0,67,0,49,9999,0.100000,0,0,0.000000,0,11.000000,0.000000,13.181880,0,0,0,0,0,0,0
0,9999,68,0,68,0,49,9999,0.100000,0,0,0.000000,0,13.000000,0.000000,24.546813,0,0,0,0,0,0,0
0,9999,69,0,69,0,49,9999,0.100000,0,0,0.000000,0,9.000000,0.000000,13.468543,0,0,0,0,0,0,0
0,9999,70,0,70,0,49,9999,0.100000,0,0,0.000000,0,4.000000,0.000000,7.247355,0,0,0,0,0,0,0
0,9999,71,0,71,0,49,9999,0.100000,0,0,0.000000,0,7.000000,0.000000,15.412978,0,0,0,0,0,0,0
0,9999,72,0,72,0,49,9999,0.100000,0,0,0.000000,0,7.000000,0.000000,9.757841,0,0,0,0,0,0,0
0,9999,73,0,73,0,49,9999,0.100000,0,0,0.000000,0,9.000000,0.000000,10.177852,0,0,0,0,0,0,0
0,9999,74,0,74,0,49,9999,0.100000,0,0,0.000000,0,8.000000,0.000000,10.035310,0,0,0,0,0,0,0
0,9999,75,0,75,0,49,9999,0.100000,0,0,0.000000,0,10.000000,0.000000,30.364460,0,0,0,0,0,0,0
0,9999,76,0,76,0,49,9999,0.100000,0,0,0.000000,0,6.000000,0.000000,10.354560,0,0,0,0,0,0,0
0,9999,77,0,77,0,49,9999,0.100000,0,0,0.000000,0,8.000000,0.000000,18.487159,0,0,0,0,0,0,0
0,9999,78,0,78,0,49,9999,0.100000,0,0,0.000000,0,8.000000,0.000000,26.068386,0,0,0,0,0,0,0
0,9999,79,0,79,0,49,9999,0.100000,0,0,0.000000,0,7.000000,0.000000,12.350445,0,0,0,0,0,0,0
0,9999,80,0,80,0,49,9999,0.100000,0,0,0.000000,0,5.000000,0.000000,11.846585,0,0,0,0,0,0,0
0,9999,81,0,81,0,49,9999,0.100000,0,0,0.000000,0,8.000000,0.000000,21.550936,0,0,0,0,0,0,0
0,9999,82,0,82,0,49,9999,0.100000,0,0,0.000000,0,8.000000,0.000000,12.659934,0,0,0,0,0,0,0
0,9999,83,0,83,0,49,9999,0.100000,0,0,0.000000,0,7.000000,0.000000,15.306295,0,0,0,0,0,0,0
0,9999,84,0,84,0,49,9999,0.100000,0,0,0.000000,0,8.000000,0.000000,12.452418,0,0,0,0,0,0,0
0,9999,85,0,85,0,49,9999,0.100000,0,0,0.000000,0,11.000000,0.000000,12.420154,0,0,0,0,0,0,0
0,9999,86,0,86,0,49,9999,0.100000,0,0,0.000000,0,11.000000,0.000000,26.249286,0,0,0,0,0,0,0
0,9999,87,0,87,0,49,9999,0.100000,0,0,0.000000,0,10.000000,0.000000,20.109902,0,0,0,0,0,0,0
0,9999,88,0,88,0,49,9999,0.100000,0,0,0.000000,0,6.000000,0.000000,14.874390,0,0,0,0,0,0,0
0,9999,89,0,89,0,49,9999,0.100000,0,0,0.000000,0,8.000000,0.000000,18.445122,0,0,0,0,0,0,0
0,9999,90,0,90,0,49,9999,0.100000,0,0,0.000000,0,8.000000,0.000000,9.123206,0,0,0,0,0,0,0
0,9999,91,0,91,0,49,9999,0.100000,0,0,0.000000,0,11.000000,0.000000,11.300715,0,0,0,0,0,0,0
0,9999,92,0,92,0,49,9999,0.100000,0,0,0.000000,0,3.000000,0.000000,9.311984,0,0,0,0,0,0,0
0,9999,93,0,93,0,99,9999,0.100000,0,0,47.368421,0,11.000000,0.000000,27.605350,0,0,1,0,0,0,0
0,9999,94,0,94,0,49,9999,0.100000,0,0,0.000000,0,3.000000,0.000000,8.130152,0,0,0,0,0,0,0
0,9999,95,0,95,0,49,9999,0.100000,0,0,0.000000,0,9.000000,0.000000,13.681962,0,0,0,0,0,0,0
0,9999,96,0,96,0,49,9999,0.100000,0,0,0.000000,0,4.000000,0.000000,8.337335,0,0,0,0,0,0,0
0,9999,97,0,97,0,49,9999,0.100000,0,0,0.000000,0,11.000000,0.000000,24.301504,0,0,0,0,0,0,0
0,9999,98,0,98,0,49,9999,0.100000,0,0,0.000000,0,10.000000,0.000000,21.213935,0,0,0,0,0,0,0
0,9999,99,0,99,0,99,9999,0.100000,0,0,47.368421,0,13.000000,0.000000,37.713000,0,0,1,0,0,0,0
1,19999,0,10000,67,0,9,9999,0.100000,0,0,0.000000,4,3.000000,0.000000,11.424698,0,0,0,0,0,7,0
1,19999,1,10000,1,0,40,9999,0.100000,0,0,0.000000,3,0.000000,0.000000,21.440156,0,0,0,0,0,0,0
1,19999,2,0,2,0,49,19999,0.100000,0,0,0.000000,1,3.000000,0.000000,5.149175,0,0,0,0,0,0,0
1,19999,3,10000,65,0,49,9999,0.100000,0,0,0.000000,4,8.000000,0.000000,22.126688,0,0,0,0,0,0,0
1,19999,4,10000,65,0,49,9999,0.100000,0,0,0.000000,3,3.000000,0.000000,18.671609,0,0,0,0,0,0,0
1,19999,5,0,5,0,49,19999,0.100000,0,0,0.000000,3,1.000000,0.000000,2.194245,0,0,0,0,0,0,0
1,19999,6,10000,36,0,49,9999,0.100000,0,0,0.000000,1,7.000000,0.000000,12.599515,0,0,0,0,0,0,0
1,19999,7,10000,67,0,40,9999,0.100000,0,0,0.000000,3,0.000000,0.000000,4.990626,0,0,0,0,0,0,0
1,19999,8,10000,0,0,49,9999,0.100000,0,0,0.000000,4,1.000000,0.000000,9.788419,0,0,0,0,0,0,0
1,19999,9,10000,65,0,40,9999,0.100000,0,0,0.000000,4,0.000000,0.000000,1.379407,0,0,0,0,0,0,0
1,19999,10,10000,10,0,49,9999,0.100000,0,0,0.000000,2,3.000000,0.000000,13.491187,0,0,0,0,0,0,0
1,19999,11,10000,65,0,49,9999,0.100000,0,0,0.000000,4,1.000000,0.000000,10.467789,0,0,0,0,0,0,0
1,19999,12,10000,1,0,40,9999,0.100000,0,0,0.000000,3,0.000000,0.000000,1.094820,0,0,0,0,0,0,0
1,19999,13,10000,11,0,49,9999,0.100000,0,0,0.000000,4,1.000000,0.000000,5.053469,0,0,0,0,0,0,0
1,19999,14,10000,67,0,40,9999,0.100000,0,0,0.000000,4,0.000000,0.000000,0.753165,0,0,0,0,0,0,0
1,19999,15,10000,15,0,49,9999,0.100000,0,0,0.000000,2,3.000000,0.000000,8.744632,0,0,0,0,0,0,0
1,19999,16,10000,11,0,40,9999,0.100000,0,0,0.000000,4,0.000000,0.000000,0.228460,0,0,0,0,0,0,0
1,19999,17,10000,1,0,40,9999,0.100000,0,0,0.000000,3,0.000000,0.000000,1.103423,0,0,0,0,0,0,0
1,19999,18,10000,67,0,49,9999,0.100000,0,0,0.000000,4,1.000000,0.000000,14.031598,0,0,0,0,0,0,0
1,19999,19,10000,67,0,49,9999,0.100000,0,0,0.000000,4,1.000000,0.000000,11.881980,0,0,0,0,0,0,0
1,19999,20,10000,67,0,40,9999,0.100000,0,0,0.000000,4,0.000000,0.000000,0.095284,0,0,0,0,0,0,0
1,19999,21,10000,11,0,40,9999,0.100000,0,0,0.000000,4,0.000000,0.000000,0.101612,0,0,0,0,0,0,0
1,19999,22,0,22,0,40,19999,0.100000,0,0,0.000000,3,0.000000,0.000000,0.322815,0,0,0,0,0,0,0
1,19999,23,10000,11,0,40,9999,0.100000,0,0,0.000000,4,0.000000,0.000000,0.081477,0,0,0,0,0,0,0
1,19999,24,10000,65,0,49,9999,0.100000,0,0,0.000000,4,1.000000,0.000000,3.060385,0,0,0,0,0,0,0
1,19999,25,10000,1,0,49,9999,0.100000,0,0,0.000000,3,2.000000,0.000000,7.127702,0,0,0,0,0,0,0
1,19999,26,10000,67,0,40,9999,0.100000,0,0,0.000000,4,0.000000,0.000000,0.113387,0,0,0,0,0,0,0
1,19999,27,10000,15,0,49,9999,0.100000,0,0,0.000000,2,2.000000,0.000000,10.709921,0,0,0,0,0,0,0
1,19999,28,10000,67,0,40,9999,0.100000,0,0,0.000000,4,0.000000,0.000000,0.139523,0,0,0,0,0,0,0
1,19999,29,10000,0,0,40,9999,0.100000,0,0,0.000000,4,0.000000,0.000000,2.777274,0,0,0,0,0,0,0
1,19999,30,10000,65,0,40,9999,0.100000,0,0,0.000000,4,0.000000,0.000000,1.046420,0,0,0,0,0,0,0
1,19999,31,10000,34,0,49,9999,0.100000,0,0,0.000000,4,2.000000,0.000000,10.972830,0,0,0,0,0,0,0
1,19999,32,10000,1,0,49,9999,0.100000,0,0,0.000000,4,2.000000,0.000000,6.674939,0,0,0,0,0,0,0
1,19999,33,10000,65,0,49,9999,0.100000,0,0,0.000000,4,1.000000,0.000000,21.618927,0,0,0,0,0,0,0
1,19999,34,10000,65,0,99,9999,0.100000,0,0,0.000000,4,4.000000,0.000000,16.448781,0,0,1,0,0,0,0
1,19999,35,10000,67,0,40,9999,0.100000,0,0,0.000000,4,0.000000,0.000000,0.139250,0,0,0,0,0,0,0
1,19999,36,10000,36,0,40,9999,0.100000,0,0,0.000000,1,0.000000,0.000000,2.332875,0,0,0,0,0,0,0
1,19999,37,10000,10,0,40,9999,0.100000,0,0,0.000000,2,0.000000,0.000000,2.136088,0,0,0,0,0,0,0
1,19999,38,10000,0,0,40,9999,0.100000,0,0,0.000000,4,0.000000,0.000000,4.418471,0,0,0,0,0,0,0
1,19999,39,10000,67,0,49,9999,0.100000,0,0,0.000000,4,1.000000,0.000000,10.991456,0,0,0,0,0,0,0
1,19999,40,10000,65,0,40,9999,0.100000,0,0,0.000000,4,0.000000,0.000000,0.145972,0,0,0,0,0,0,0
1,19999,41,10000,11,0,49,9999,0.100000,0,0,0.000000,4,2.000000,0.000000,13.565223,0,0,0,0,0,0,0
1,19999,42,10000,11,0,40,9999,0.100000,0,0,0.000000,4,0.000000,0.000000,0.108353,0,0,0,0,0,0,0
1,19999,43,10000,10,0,49,9999,0.100000,0,0,0.000000,2,1.000000,0.000000,1.497827,0,0,0,0,0,0,0
1,19999,44,10000,65,0,40,9999,0.100000,0,0,0.000000,4,0.000000,0.000000,1.602372,0,0,0,0,0,0,0
1,19999,45,10000,34,0,40,9999,0.100000,0,0,0.000000,4,0.000000,0.000000,0.193594,0,0,0,0,0,0,0
1,19999,46,10000,36,0,49,9999,0.100000,0,0,0.000000,2,1.000000,0.000000,5.256616,0,0,0,0,0,0,0
1,19999,47,10000,11,0,40,9999,0.100000,0,0,0.000000,4,0.000000,0.000000,1.091359,0,0,0,0,0,0,0
1,19999,48,10000,65,0,40,9999,0.100000,0,0,0.000000,4,0.000000,0.000000,1.081388,0,0,0,0,0,0,0
1,19999,49,10000,34,0,49,9999,0.100000,0,0,0.000000,4,4.000000,0.000000,13.180881,0,0,0,0,0,0,0
1,19999,50,10000,65,0,49,9999,0.100000,0,0,0.000000,4,4.000000,0.000000,14.924412,0,0,0,0,0,0,0
1,19999,51,10000,34,0,49,9999,0.100000,0,0,0.000000,4,1.000000,0.000000,2.740354,0,0,0,0,0,0,0
1,19999,52,0,52,0,49,19999,0.100000,0,0,0.000000,2,1.000000,0.000000,15.999745,0,0,0,0,0,0,0
1,19999,53,10000,65,0,49,9999,0.100000,0,0,0.000000,4,6.000000,0.000000,16.028768,0,0,0,0,0,0,0
1,19999,54,10000,0,0,40,9999,0.100000,0,0,0.000000,4,0.000000,0.000000,0.090491,0,0,0,0,0,0,0
1,19999,55,10000,65,0,49,9999,0.100000,0,0,0.000000,4,3.000000,0.000000,19.194445,0,0,0,0,0,0,0
1,19999,56,10000,10,0,40,9999,0.100000,0,0,0.000000,2,0.000000,0.000000,1.031291,0,0,0,0,0,0,0
1,19999,57,10000,36,0,40,9999,0.100000,0,0,0.000000,3,0.000000,0.000000,14.267859,0,0,0,0,0,0,0
1,19999,58,10000,0,0,49,9999,0.100000,0,0,0.000000,4,3.000000,0.000000,10.180658,0,0,0,0,0,0,0
1,19999,59,10000,10,0,49,9999,0.100000,0,0,0.000000,2,3.000000,0.000000,10.002824,0,0,0,0,0,0,0
1,19999,60,10000,36,0,49,9999,0.100000,0,0,0.000000,3,2.000000,0.000000,10.560409,0,0,0,0,0,0,0
1,19999,61,10000,65,0,40,9999,0.100000,0,0,0.000000,4,0.000000,0.000000,0.585300,0,0,0,0,0,0,0
1,19999,62,10000,0,0,49,9999,0.100000,0,0,0.000000,4,1.000000,0.000000,7.275596,0,0,0,0,0,0,0
1,19999,63,10000,65,0,49,9999,0.100000,0,0,0.000000,4,1.000000,0.000000,4.618786,0,0,0,0,0,0,0
1,19999,64,10000,65,0,49,9999,0.100000,0,0,0.000000,3,4.000000,0.000000,13.409427,0,0,0,0,0,0,0
1,19999,65,10000,65,0,40,9999,0.100000,0,0,0.000000,3,0.000000,0.000000,0.177407,0,0,0,0,0,0,0
1,19999,66,10000,10,0,49,9999,0.100000,0,0,0.000000,3,1.000000,0.000000,8.595174,0,0,0,0,0,0,0
1,19999,67,10000,1,0,49,9999,0.100000,0,0,0.000000,3,1.000000,0.000000,1.110364,0,0,0,0,0,0,0
1,19999,68,10000,65,0,49,9999,0.100000,0,0,0.000000,4,5.000000,0.000000,11.473503,0,0,0,0,0,0,0
1,19999,69,10000,67,0,40,9999,0.100000,0,0,0.000000,4,0.000000,0.000000,0.161558,0,0,0,0,0,0,0
1,19999,70,10000,11,0,40,9999,0.100000,0,0,0.000000,4,0.000000,0.000000,0.189460,0,0,0,0,0,0,0
1,19999,71,10000,1,0,40,9999,0.100000,0,0,0.000000,4,0.000000,0.000000,0.181264,0,0,0,0,0,0,0
1,19999,72,10000,11,0,40,9999,0.100000,0,0,0.000000,4,0.000000,0.000000,0.188923,0,0,0,0,0,0,0
1,19999,73,10000,4,0,40,9999,0.100000,0,0,0.000000,3,0.000000,0.000000,0.756427,0,0,0,0,0,0,0
1,19999,74,10000,34,0,40,9999,0.100000,0,0,0.000000,4,0.000000,0.000000,0.152313,0,0,0,0,0,0,0
1,19999,75,10000,0,0,49,9999,0.100000,0,0,0.000000,4,2.000000,0.000000,7.033820,0,0,0,0,0,0,0
1,19999,76,10000,67,0,40,9999,0.100000,0,0,0.000000,4,0.000000,0.000000,0.084375,0,0,0,0,0,0,0
1,19999,77,10000,0,0,40,9999,0.100000,0,0,0.000000,4,0.000000,0.000000,6.157417,0,0,0,0,0,0,0
1,19999,78,10000,34,0,49,9999,0.100000,0,0,0.000000,4,3.000000,0.000000,10.302018,0,0,0,0,0,0,0
1,19999,79,10000,67,0,49,9999,0.100000,0,0,0.000000,4,3.000000,0.000000,5.430093,0,0,0,0,0,0,0
1,19999,80,10000,67,0,49,9999,0.100000,0,0,0.000000,4,4.000000,0.000000,17.234808,0,0,0,0,0,0,0
1,19999,81,10000,34,0,49,9999,0.100000,0,0,0.000000,4,1.000000,0.000000,11.737147,0,0,0,0,0,0,0
1,19999,82,10000,65,0,40,9999,0.100000,0,0,0.000000,4,0.000000,0.000000,0.882076,0,0,0,0,0,0,0
1,19999,83,10000,67,0,49,9999,0.100000,0,0,0.000000,4,1.000000,0.000000,3.526508,0,0,0,0,0,0,0
1,19999,84,10000,65,0,40,9999,0.100000,0,0,0.000000,4,0.000000,0.000000,0.759479,0,0,0,0,0,0,0
1,19999,85,10000,67,0,40,9999,0.100000,0,0,0.000000,3,0.000000,0.000000,0.413484,0,0,0,0,0,0,0
1,19999,86,10000,36,0,40,9999,0.100000,0,0,0.000000,3,0.000000,0.000000,0.119233,0,0,0,0,0,0,0
1,19999,87,10000,65,0,49,9999,0.100000,0,0,0.000000,4,5.000000,0.000000,17.017529,0,0,0,0,0,0,0
1,19999,88,10000,34,0,49,9999,0.100000,0,0,0.000000,4,1.000000,0.000000,9.636247,0,0,0,0,0,0,0
1,19999,89,10000,67,0,49,9999,0.100000,0,0,0.000000,4,8.000000,0.000000,21.726825,0,0,0,0,0,0,0
1,19999,90,10000,67,0,40,9999,0.100000,0,0,0.000000,4,0.000000,0.000000,1.943720,0,0,0,0,0,0,0
1,19999,91,10000,34,0,49,9999,0.100000,0,0,0.000000,4,1.000000,0.000000,1.369243,0,0,0,0,0,0,0
1,19999,92,10000,67,0,40,9999,0.100000,0,0,0.000000,4,0.000000,0.000000,1.455516,0,0,0,0,0,0,0
1,19999,93,10000,34,0,49,9999,0.100000,0,0,0.000000,4,5.000000,0.000000,12.875230,0,0,0,0,0,0,0
1,19999,94,10000,67,0,49,9999,0.100000,0,0,0.000000,4,1.000000,0.000000,1.861826,0,0,0,0,0,0,0
1,19999,95,10000,65,0,40,9999,0.100000,0,0,0.000000,4,0.000000,0.000000,0.107761,0,0,0,0,0,0,0
1,19999,96,10000,4,0,49,9999,0.100000,0,0,0.000000,3,4.000000,0.000000,12.447872,0,0,0,0,0,0,0
1,19999,97,10000,34,0,49,9999,0.100000,0,0,0.000000,4,3.000000,0.000000,10.093723,0,0,0,0,0,0,0
1,19999,98,10000,0,0,40,9999,0.100000,0,0,0.000000,4,0.000000,0.000000,2.432795,0,0,0,0,0,0,0
1,19999,99,10000,67,0,49,9999,0.100000,0,0,0.000000,4,5.000000,0.000000,14.636063,0,0,0,0,0,0,0
2,29999,0,20000,67,0,49,9999,0.100000,0,0,0.000000,4,1.000000,0.000000,8.141968,0,0,0,0,0,0,0
2,29999,1,20000,34,0,40,9999,0.100000,0,0,0.000000,6,0.000000,0.000000,23.778442,0,0,0,0,0,0,0
2,29999,2,20000,29,10000,40,9999,0.100000,0,0,0.000000,5,0.000000,0.000000,0.399738,0,0,0,0,0,0,0
2,29999,3,20000,0,0,49,9999,0.100000,0,0,0.000000,4,1.000000,0.000000,3.397441,0,0,0,0,0,0,0
2,29999,4,20000,67,0,49,9999,0.100000,0,0,0.000000,5,1.000000,0.000000,6.811203,0,0,0,0,0,0,0
2,29999,5,20000,7,10000,9,9999,0.100000,0,0,34.210526,5,4.000000,0.000000,11.277780,0,0,0,1,0,0,0
2,29999,6,20000,0,0,40,9999,0.100000,0,0,0.000000,4,0.000000,0.000000,1.011110,0,0,0,0,0,0,0
2,29999,7,20000,7,10000,49,9999,0.100000,0,0,0.000000,4,5.000000,0.000000,11.675930,0,0,0,0,0,0,0
2,29999,8,20000,67,0,40,9999,0.100000,0,0,0.000000,5,0.000000,0.000000,9.217541,0,0,0,0,0,0,0
2,29999,9,20000,0,0,40,9999,0.100000,0,0,0.000000,6,0.000000,0.000000,2.123342,0,0,0,0,0,0,0
2,29999,10,20000,29,10000,40,9999,0.100000,0,0,0.000000,5,0.000000,0.000000,6.247505,0,0,0,0,0,0,0
2,29999,11,20000,7,10000,49,9999,0.100000,0,0,0.000000,4,2.000000,0.000000,7.917010,0,0,0,0,0,0,0
2,29999,12,20000,0,0,40,9999,0.100000,0,0,0.000000,6,0.000000,0.000000,0.911438,0,0,0,0,0,0,0
2,29999,13,20000,0,0,49,9999,0.100000,0,0,0.000000,6,1.000000,0.000000,1.588990,0,0,0,0,0,0,0
2,29999,14,20000,7,10000,40,9999,0.100000,0,0,0.000000,6,0.000000,0.000000,12.708305,0,0,0,0,0,0,0
2,29999,15,20000,34,0,40,9999,0.100000,0,0,0.000000,5,0.000000,0.000000,0.356593,0,0,0,0,0,0,0
2,29999,16,10000,11,0,40,19999,0.100000,0,0,0.000000,5,0.000000,0.000000,0.244917,0,0,0,0,0,0,0
2,29999,17,20000,0,0,40,9999,0.100000,0,0,0.000000,6,0.000000,0.000000,0.833755,0,0,0,0,0,0,0
2,29999,18,20000,7,10000,49,9999,0.100000,0,0,0.000000,5,1.000000,0.000000,10.013120,0,0,0,0,0,0,0
2,29999,19,20000,29,10000,49,9999,0.100000,0,0,0.000000,6,1.000000,0.000000,19.705895,0,0,0,0,0,0,0
2,29999,20,20000,91,10000,40,9999,0.100000,0,0,0.000000,6,0.000000,0.000000,0.535377,0,0,0,0,0,0,0
2,29999,21,20000,1,10000,40,9999,0.100000,0,0,0.000000,6,0.000000,0.000000,0.120186,0,0,0,0,0,0,0
2,29999,22,20000,0,0,40,9999,0.100000,0,0,0.000000,5,0.000000,0.000000,0.329877,0,0,0,0,0,0,0
2,29999,23,20000,91,10000,40,9999,0.100000,0,0,0.000000,6,0.000000,0.000000,0.112232,0,0,0,0,0,0,0
2,29999,24,20000,7,10000,49,9999,0.100000,0,0,0.000000,4,1.000000,0.000000,4.940532,0,0,0,0,0,0,0
2,29999,25,20000,91,10000,40,9999,0.100000,0,0,0.000000,6,0.000000,0.000000,19.165715,0,0,0,0,0,0,0
2,29999,26,20000,1,10000,40,9999,0.100000,0,0,0.000000,6,0.000000,0.000000,0.125815,0,0,0,0,0,0,0
2,29999,27,20000,34,0,49,9999,0.100000,0,0,0.000000,5,2.000000,0.000000,9.349467,0,0,0,0,0,0,0
2,29999,28,20000,0,0,40,9999,0.100000,0,0,0.000000,5,0.000000,0.000000,0.144751,0,0,0,0,0,0,0
2,29999,29,20000,34,0,40,9999,0.100000,0,0,0.000000,5,0.000000,0.000000,2.853915,0,0,0,0,0,0,0
2,29999,30,20000,34,0,40,9999,0.100000,0,0,0.000000,6,0.000000,0.000000,0.500336,0,0,0,0,0,0,0
2,29999,31,20000,1,10000,49,9999,0.100000,0,0,0.000000,6,4.000000,0.000000,9.512461,0,0,0,0,0,0,0
2,29999,32,20000,34,0,49,9999,0.100000,0,0,0.000000,5,1.000000,0.000000,3.399488,0,0,0,0,0,0,0
2,29999,33,20000,7,10000,40,9999,0.100000,0,0,0.000000,5,0.000000,0.000000,22.000947,0,0,0,0,0,0,0
2,29999,34,20000,29,10000,49,9999,0.100000,0,0,0.000000,5,4.000000,0.000000,17.373096,0,0,0,0,0,0,0
2,29999,35,20000,34,0,40,9999,0.100000,0,0,0.000000,6,0.000000,0.000000,0.141326,0,0,0,0,0,0,0
2,29999,36,20000,91,10000,49,9999,0.100000,0,0,0.000000,6,1.000000,0.000000,1.638408,0,0,0,0,0,0,0
2,29999,37,20000,29,10000,40,9999,0.100000,0,0,0.000000,5,0.000000,0.000000,2.251763,0,0,0,0,0,0,0
2,29999,38,20000,91,10000,9,9999,0.100000,0,0,0.000000,5,1.000000,0.000000,1.689012,0,0,0,0,0,1,0
2,29999,39,20000,1,10000,49,9999,0.100000,0,0,0.000000,6,2.000000,0.000000,10.633136,0,0,0,0,0,0,0
2,29999,40,20000,0,0,40,9999,0.100000,0,0,0.000000,5,0.000000,0.000000,0.105438,0,0,0,0,0,0,0
2,29999,41,20000,95,10000,49,9999,0.100000,0,0,0.000000,6,2.000000,0.000000,9.178750,0,0,0,0,0,0,0
2,29999,42,20000,0,0,40,9999,0.100000,0,0,0.000000,5,0.000000,0.000000,0.149173,0,0,0,0,0,0,0
2,29999,43,20000,95,10000,49,9999,0.100000,0,0,0.000000,6,1.000000,0.000000,1.426642,0,0,0,0,0,0,0
2,29999,44,20000,91,10000,49,9999,0.100000,0,0,0.000000,5,2.000000,0.000000,6.278762,0,0,0,0,0,0,0
2,29999,45,20000,1,10000,40,9999,0.100000,0,0,0.000000,6,0.000000,0.000000,0.161869,0,0,0,0,0,0,0
2,29999,46,20000,29,10000,40,9999,0.100000,0,0,0.000000,5,0.000000,0.000000,0.248918,0,0,0,0,0,0,0
2,29999,47,20000,91,10000,49,9999,0.100000,0,0,0.000000,6,4.000000,0.000000,9.399805,0,0,0,0,0,0,0
2,29999,48,20000,7,10000,40,9999,0.100000,0,0,0.000000,5,0.000000,0.000000,0.336304,0,0,0,0,0,0,0
2,29999,49,20000,34,0,40,9999,0.100000,0,0,0.000000,6,0.000000,0.000000,3.308331,0,0,0,0,0,0,0
2,29999,50,20000,91,10000,40,9999,0.100000,0,0,0.000000,5,0.000000,0.000000,23.907678,0,0,0,0,0,0,0
2,29999,51,20000,91,10000,49,9999,0.100000,0,0,0.000000,6,1.000000,0.000000,8.802431,0,0,0,0,0,0,0
2,29999,52,20000,29,10000,49,9999,0.100000,0,0,0.000000,5,1.000000,0.000000,10.809795,0,0,0,0,0,0,0
2,29999,53,20000,29,10000,49,9999,0.100000,0,0,0.000000,6,2.000000,0.000000,5.421598,0,0,0,0,0,0,0
2,29999,54,20000,91,10000,40,9999,0.100000,0,0,0.000000,5,0.000000,0.000000,0.139253,0,0,0,0,0,0,0
2,29999,55,20000,95,10000,49,9999,0.100000,0,0,0.000000,6,5.000000,0.000000,13.598472,0,0,0,0,0,0,0
2,29999,56,20000,91,10000,40,9999,0.100000,0,0,0.000000,6,0.000000,0.000000,0.224279,0,0,0,0,0,0,0
2,29999,57,20000,67,0,40,9999,0.100000,0,0,0.000000,5,0.000000,0.000000,3.701483,0,0,0,0,0,0,0
2,29999,58,20000,7,10000,49,9999,0.100000,0,0,0.000000,5,2.000000,0.000000,4.476516,0,0,0,0,0,0,0
2,29999,59,20000,14,10000,40,9999,0.100000,0,0,0.000000,6,0.000000,0.000000,0.144693,0,0,0,0,0,0,0
2,29999,60,20000,95,10000,49,9999,0.100000,0,0,0.000000,6,7.000000,0.000000,20.246183,0,0,0,0,0,0,0
2,29999,61,20000,34,0,40,9999,0.100000,0,0,0.000000,5,0.000000,0.000000,0.154255,0,0,0,0,0,0,0
2,29999,62,20000,91,10000,49,9999,0.100000,0,0,0.000000,5,1.000000,0.000000,3.079899,0,0,0,0,0,0,0
2,29999,63,20000,91,10000,49,9999,0.100000,0,0,0.000000,5,1.000000,0.000000,1.397196,0,0,0,0,0,0,0
2,29999,64,20000,0,0,40,9999,0.100000,0,0,0.000000,5,0.000000,0.000000,3.115789,0,0,0,0,0,0,0
2,29999,65,20000,29,10000,40,9999,0.100000,0,0,0.000000,5,0.000000,0.000000,0.183547,0,0,0,0,0,0,0
2,29999,66,20000,29,10000,40,9999,0.100000,0,0,0.000000,5,0.000000,0.000000,0.880897,0,0,0,0,0,0,0
2,29999,67,20000,34,0,40,9999,0.100000,0,0,0.000000,6,0.000000,0.000000,0.939716,0,0,0,0,0,0,0
2,29999,68,20000,0,0,49,9999,0.100000,0,0,0.000000,6,7.000000,0.000000,29.920925,0,0,0,0,0,0,0
2,29999,69,20000,0,0,40,9999,0.100000,0,0,0.000000,6,0.000000,0.000000,0.159141,0,0,0,0,0,0,0
2,29999,70,10000,11,0,40,19999,0.100000,0,0,0.000000,6,0.000000,0.000000,0.172175,0,0,0,0,0,0,0
2,29999,71,20000,0,0,40,9999,0.100000,0,0,0.000000,5,0.000000,0.000000,0.134160,0,0,0,0,0,0,0
2,29999,72,20000,14,10000,40,9999,0.100000,0,0,0.000000,6,0.000000,0.000000,0.186262,0,0,0,0,0,0,0
2,29999,73,20000,0,0,40,9999,0.100000,0,0,0.000000,6,0.000000,0.000000,0.582815,0,0,0,0,0,0,0
2,29999,74,20000,29,10000,40,9999,0.100000,0,0,0.000000,5,0.000000,0.000000,0.157690,0,0,0,0,0,0,0
2,29999,75,20000,91,10000,49,9999,0.100000,0,0,0.000000,5,7.000000,0.000000,32.210532,0,0,0,0,0,0,0
2,29999,76,20000,67,0,40,9999,0.100000,0,0,0.000000,5,0.000000,0.000000,0.104696,0,0,0,0,0,0,0
2,29999,77,20000,7,10000,49,9999,0.100000,0,0,0.000000,5,5.000000,0.000000,8.943117,0,0,0,0,0,0,0
2,29999,78,20000,7,10000,49,9999,0.100000,0,0,0.000000,5,3.000000,0.000000,13.865578,0,0,0,0,0,0,0
2,29999,79,20000,95,10000,40,9999,0.100000,0,0,0.000000,6,0.000000,0.000000,0.380740,0,0,0,0,0,0,0
2,29999,80,20000,91,10000,49,9999,0.100000,0,0,0.000000,5,2.000000,0.000000,7.556966,0,0,0,0,0,0,0
2,29999,81,20000,0,0,49,9999,0.100000,0,0,0.000000,5,3.000000,0.000000,7.727247,0,0,0,0,0,0,0
2,29999,82,20000,29,10000,40,9999,0.100000,0,0,0.000000,5,0.000000,0.000000,0.723445,0,0,0,0,0,0,0
2,29999,83,20000,91,10000,49,9999,0.100000,0,0,0.000000,5,1.000000,0.000000,1.603365,0,0,0,0,0,0,0
2,29999,84,20000,34,0,40,9999,0.100000,0,0,0.000000,6,0.000000,0.000000,0.268930,0,0,0,0,0,0,0
2,29999,85,20000,91,10000,40,9999,0.100000,0,0,0.000000,6,0.000000,0.000000,0.723015,0,0,0,0,0,0,0
2,29999,86,20000,26,10000,40,9999,0.100000,0,0,0.000000,6,0.000000,0.000000,0.269694,0,0,0,0,0,0,0
2,29999,87,20000,1,10000,40,9999,0.100000,0,0,0.000000,6,0.000000,0.000000,1.823735,0,0,0,0,0,0,0
2,29999,88,20000,0,0,49,9999,0.100000,0,0,0.000000,5,3.000000,0.000000,8.260058,0,0,0,0,0,0,0
2,29999,89,20000,34,0,49,9999,0.100000,0,0,0.000000,6,1.000000,0.000000,6.400617,0,0,0,0,0,0,0
2,29999,90,20000,0,0,40,9999,0.100000,0,0,0.000000,6,0.000000,0.000000,0.226314,0,0,0,0,0,0,0
2,29999,91,20000,29,10000,40,9999,0.100000,0,0,0.000000,5,0.000000,0.000000,1.058846,0,0,0,0,0,0,0
2,29999,92,20000,1,10000,40,9999,0.100000,0,0,0.000000,6,0.000000,0.000000,1.305979,0,0,0,0,0,0,0
2,29999,93,20000,1,10000,40,9999,0.100000,0,0,0.000000,6,0.000000,0.000000,0.872769,0,0,0,0,0,0,0
2,29999,94,20000,34,0,40,9999,0.100000,0,0,0.000000,5,0.000000,0.000000,0.714934,0,0,0,0,0,0,0
2,29999,95,20000,29,10000,40,9999,0.100000,0,0,0.000000,6,0.000000,0.000000,0.129253,0,0,0,0,0,0,0
2,29999,96,20000,29,10000,9,9999,0.100000,0,0,34.210526,5,1.000000,0.000000,6.857450,0,0,0,1,0,0,0
2,29999,97,20000,1,10000,49,9999,0.100000,0,0,0.000000,6,2.000000,0.000000,9.631149,0,0,0,0,0,0,0
2,29999,98,20000,29,10000,49,9999,0.100000,0,0,0.000000,5,1.000000,0.000000,7.913681,0,0,0,0,0,0,0
2,29999,99,20000,91,10000,49,9999,0.100000,0,0,0.000000,6,2.000000,0.000000,7.069296,0,0,0,0,0,0,0
3,39999,0,30000,1,10000,49,9999,0.100000,0,0,0.000000,6,1.000000,0.000000,4.984917,0,0,0,0,0,0,0
3,39999,1,30000,91,10000,49,9999,0.100000,0,0,0.000000,6,1.000000,0.000000,3.877775,0,0,0,0,0,0,0
3,39999,2,30000,26,10000,40,9999,0.100000,0,0,0.000000,6,0.000000,0.000000,0.868001,0,0,0,0,0,0,0
3,39999,3,30000,67,20000,49,9999,0.100000,0,0,0.000000,6,2.000000,0.000000,9.591129,0,0,0,0,0,0,0
3,39999,4,30000,91,10000,49,9999,0.100000,0,0,0.000000,6,4.000000,0.000000,11.245499,0,0,0,0,0,0,0
3,39999,5,30000,91,10000,49,9999,0.100000,0,0,0.000000,6,2.000000,0.000000,11.626591,0,0,0,0,0,0,0
3,39999,6,30000,0,0,40,9999,0.100000,0,0,0.000000,6,0.000000,0.000000,1.023646,0,0,0,0,0,0,0
3,39999,7,30000,91,10000,49,9999,0.100000,0,0,0.000000,6,5.000000,0.000000,9.321677,0,0,0,0,0,0,0
3,39999,8,30000,91,10000,49,9999,0.100000,0,0,0.000000,6,4.000000,0.000000,4.742340,0,0,0,0,0,0,0
3,39999,9,30000,1,10000,40,9999,0.100000,0,0,0.000000,6,0.000000,0.000000,0.700152,0,0,0,0,0,0,0
3,39999,10,30000,14,10000,49,9999,0.100000,0,0,0.000000,6,1.000000,0.000000,3.327110,0,0,0,0,0,0,0
3,39999,11,30000,67,20000,49,9999,0.100000,0,0,0.000000,6,9.000000,0.000000,27.287281,0,0,0,0,0,0,0
3,39999,12,30000,0,0,40,9999,0.100000,0,0,0.000000,6,0.000000,0.000000,0.685617,0,0,0,0,0,0,0
3,39999,13,30000,67,20000,40,9999,0.100000,0,0,0.000000,6,0.000000,0.000000,0.201136,0,0,0,0,0,0,0
3,39999,14,30000,1,10000,40,9999,0.100000,0,0,0.000000,6,0.000000,0.000000,1.147017,0,0,0,0,0,0,0
3,39999,15,30000,1,10000,49,9999,0.100000,0,0,0.000000,6,3.000000,0.000000,10.371922,0,0,0,0,0,0,0
3,39999,16,30000,0,0,40,9999,0.100000,0,0,0.000000,6,0.000000,0.000000,0.251671,0,0,0,0,0,0,0
3,39999,17,30000,34,0,40,9999,0.100000,0,0,0.000000,6,0.000000,0.000000,0.885777,0,0,0,0,0,0,0
3,39999,18,30000,91,10000,40,9999,0.100000,0,0,0.000000,6,0.000000,0.000000,0.883834,0,0,0,0,0,0,0
3,39999,19,30000,91,10000,49,9999,0.100000,0,0,0.000000,6,2.000000,0.000000,11.102549,0,0,0,0,0,0,0
3,39999,20,30000,14,10000,40,9999,0.100000,0,0,0.000000,6,0.000000,0.000000,0.630748,0,0,0,0,0,0,0
3,39999,21,30000,0,0,40,9999,0.100000,0,0,0.000000,6,0.000000,0.000000,0.375817,0,0,0,0,0,0,0
3,39999,22,30000,67,20000,40,9999,0.100000,0,0,0.000000,6,0.000000,0.000000,0.353892,0,0,0,0,0,0,0
3,39999,23,30000,67,20000,40,9999,0.100000,0,0,0.000000,6,0.000000,0.000000,0.064672,0,0,0,0,0,0,0
3,39999,24,30000,34,0,40,9999,0.100000,0,0,0.000000,6,0.000000,0.000000,1.618514,0,0,0,0,0,0,0
3,39999,25,30000,34,0,40,9999,0.100000,0,0,0.000000,6,0.000000,0.000000,22.317059,0,0,0,0,0,0,0
3,39999,26,30000,14,10000,40,9999,0.100000,0,0,0.000000,6,0.000000,0.000000,0.258196,0,0,0,0,0,0,0
3,39999,27,30000,26,10000,49,9999,0.100000,0,0,0.000000,6,5.000000,0.000000,15.299066,0,0,0,0,0,0,0
3,39999,28,30000,1,10000,40,9999,0.100000,0,0,0.000000,6,0.000000,0.000000,0.146844,0,0,0,0,0,0,0
3,39999,29,30000,14,10000,40,9999,0.100000,0,0,0.000000,6,0.000000,0.000000,17.563772,0,0,0,0,0,0,0
3,39999,30,30000,0,0,40,9999,0.100000,0,0,0.000000,6,0.000000,0.000000,0.354660,0,0,0,0,0,0,0
3,39999,31,30000,0,0,49,9999,0.100000,0,0,0.000000,6,3.000000,0.000000,6.215796,0,0,0,0,0,0,0
3,39999,32,30000,91,10000,40,9999,0.100000,0,0,0.000000,6,0.000000,0.000000,0.806836,0,0,0,0,0,0,0
3,39999,33,30000,91,10000,40,9999,0.100000,0,0,0.000000,6,0.000000,0.000000,22.210344,0,0,0,0,0,0,0
3,39999,34,30000,34,0,49,9999,0.100000,0,0,0.000000,6,4.000000,0.000000,8.974294,0,0,0,0,0,0,0
3,39999,35,30000,91,10000,40,9999,0.100000,0,0,0.000000,6,0.000000,0.000000,0.131418,0,0,0,0,0,0,0
3,39999,36,30000,0,0,40,9999,0.100000,0,0,0.000000,6,0.000000,0.000000,0.126552,0,0,0,0,0,0,0
3,39999,37,30000,91,10000,40,9999,0.100000,0,0,0.000000,6,0.000000,0.000000,1.949242,0,0,0,0,0,0,0
3,39999,38,30000,34,0,40,9999,0.100000,0,0,0.000000,6,0.000000,0.000000,0.214886,0,0,0,0,0,0,0
3,39999,39,30000,26,10000,49,9999,0.100000,0,0,0.000000,6,4.000000,0.000000,9.675759,0,0,0,0,0,0,0
3,39999,40,30000,34,0,40,9999,0.100000,0,0,0.000000,6,0.000000,0.000000,0.095660,0,0,0,0,0,0,0
3,39999,41,30000,0,0,40,9999,0.100000,0,0,0.000000,6,0.000000,0.000000,0.314053,0,0,0,0,0,0,0
3,39999,42,30000,0,0,40,9999,0.100000,0,0,0.000000,6,0.000000,0.000000,0.152248,0,0,0,0,0,0,0
3,39999,43,30000,34,0,40,9999,0.100000,0,0,0.000000,6,0.000000,0.000000,0.560024,0,0,0,0,0,0,0
3,39999,44,30000,1,10000,40,9999,0.100000,0,0,0.000000,6,0.000000,0.000000,0.097025,0,0,0,0,0,0,0
3,39999,45,30000,14,10000,40,9999,0.135000,0,0,0.000000,6,0.000000,0.000000,0.089008,0,0,0,0,0,0,0
3,39999,46,30000,0,0,40,9999,0.100000,0,0,0.000000,6,0.000000,0.000000,0.232628,0,0,0,0,0,0,0
3,39999,47,30000,67,20000,40,9999,0.100000,0,0,0.000000,6,0.000000,0.000000,0.167250,0,0,0,0,0,0,0
3,39999,48,30000,34,0,40,9999,0.100000,0,0,0.000000,6,0.000000,0.000000,0.146640,0,0,0,0,0,0,0
3,39999,49,30000,0,0,40,9999,0.100000,0,0,0.000000,6,0.000000,0.000000,1.759735,0,0,0,0,0,0,0
3,39999,50,30000,91,10000,40,9999,0.100000,0,0,0.000000,6,0.000000,0.000000,23.902685,0,0,0,0,0,0,0
3,39999,51,30000,0,0,40,9999,0.100000,0,0,0.000000,6,0.000000,0.000000,1.191983,0,0,0,0,0,0,0
3,39999,52,30000,34,0,40,9999,0.100000,0,0,0.000000,6,0.000000,0.000000,2.394479,0,0,0,0,0,0,0
3,39999,53,30000,91,10000,40,9999,0.100000,0,0,0.000000,6,0.000000,0.000000,0.758405,0,0,0,0,0,0,0
3,39999,54,30000,67,20000,40,9999,0.100000,0,0,0.000000,6,0.000000,0.000000,0.594053,0,0,0,0,0,0,0
3,39999,55,30000,14,10000,40,9999,0.100000,0,0,0.000000,6,0.000000,0.000000,0.138830,0,0,0,0,0,0,0
3,39999,56,30000,14,10000,40,9999,0.100000,0,0,0.000000,6,0.000000,0.000000,0.472180,0,0,0,0,0,0,0
3,39999,57,30000,91,10000,40,9999,0.100000,0,0,0.000000,6,0.000000,0.000000,0.641487,0,0,0,0,0,0,0
3,39999,58,30000,34,0,40,9999,0.100000,0,0,0.000000,6,0.000000,0.000000,0.072962,0,0,0,0,0,0,0
3,39999,59,30000,91,10000,40,9999,0.100000,0,0,0.000000,6,0.000000,0.000000,0.148052,0,0,0,0,0,0,0
3,39999,60,30000,0,0,49,9999,0.100000,0,0,0.000000,6,3.000000,0.000000,12.117080,0,0,0,0,0,0,0
3,39999,61,30000,91,10000,40,9999,0.100000,0,0,0.000000,6,0.000000,0.000000,0.831499,0,0,0,0,0,0,0
3,39999,62,30000,0,0,40,9999,0.100000,0,0,0.000000,6,0.000000,0.000000,0.136573,0,0,0,0,0,0,0
3,39999,63,30000,14,10000,40,9999,0.100000,0,0,0.000000,6,0.000000,0.000000,0.463893,0,0,0,0,0,0,0
3,39999,64,30000,34,0,40,9999,0.100000,0,0,0.000000,6,0.000000,0.000000,3.507763,0,0,0,0,0,0,0
3,39999,65,30000,0,0,40,9999,0.100000,0,0,0.000000,6,0.000000,0.000000,0.756734,0,0,0,0,0,0,0
3,39999,66,30000,1,10000,49,9999,0.100000,0,0,0.000000,6,3.000000,0.000000,7.923186,0,0,0,0,0,0,0
3,39999,67,30000,0,0,40,9999,0.100000,0,0,0.000000,6,0.000000,0.000000,1.352324,0,0,0,0,0,0,0
3,39999,68,30000,0,0,49,9999,0.100000,0,0,0.000000,6,2.000000,0.000000,6.147476,0,0,0,0,0,0,0
3,39999,69,30000,1,10000,40,9999,0.100000,0,0,0.000000,6,0.000000,0.000000,0.161627,0,0,0,0,0,0,0
3,39999,70,30000,34,0,40,9999,0.100000,0,0,0.000000,6,0.000000,0.000000,3.405674,0,0,0,0,0,0,0
3,39999,71,30000,34,0,40,9999,0.100000,0,0,0.000000,6,0.000000,0.000000,0.125535,0,0,0,0,0,0,0
3,39999,72,30000,1,10000,40,9999,0.100000,0,0,0.000000,6,0.000000,0.000000,0.197100,0,0,0,0,0,0,0
3,39999,73,30000,1,10000,49,9999,0.100000,0,0,0.000000,6,3.000000,0.000000,7.832327,0,0,0,0,0,0,0
3,39999,74,30000,1,10000,40,9999,0.100000,0,0,0.000000,6,0.000000,0.000000,0.218954,0,0,0,0,0,0,0
3,39999,75,30000,0,0,49,9999,0.100000,0,0,0.000000,6,1.000000,0.000000,4.314890,0,0,0,0,0,0,0
3,39999,76,30000,1,10000,40,9999,0.100000,0,0,0.000000,6,0.000000,0.000000,0.110735,0,0,0,0,0,0,0
3,39999,77,30000,14,10000,9,9999,0.100000,0,0,0.000000,6,8.000000,0.000000,25.637434,0,0,0,0,1,0,0
3,39999,78,30000,91,10000,99,9999,0.100000,0,0,34.210526,6,8.000000,0.000000,17.880400,0,0,1,0,0,0,0
3,39999,79,30000,67,20000,40,9999,0.100000,0,0,0.000000,6,0.000000,0.000000,0.920814,0,0,0,0,0,0,0
3,39999,80,30000,14,10000,40,9999,0.100000,0,0,0.000000,6,0.000000,0.000000,0.110507,0,0,0,0,0,0,0
3,39999,81,30000,67,20000,40,9999,0.100000,0,0,0.000000,6,0.000000,0.000000,2.348200,0,0,0,0,0,0,0
3,39999,82,30000,0,0,40,9999,0.100000,0,0,0.000000,6,0.000000,0.000000,0.147366,0,0,0,0,0,0,0
3,39999,83,30000,14,10000,40,9999,0.100000,0,0,0.000000,6,0.000000,0.000000,0.715021,0,0,0,0,0,0,0
3,39999,84,30000,1,10000,40,9999,0.100000,0,0,0.000000,6,0.000000,0.000000,0.250670,0,0,0,0,0,0,0
3,39999,85,30000,67,20000,40,9999,0.100000,0,0,0.000000,6,0.000000,0.000000,0.904630,0,0,0,0,0,0,0
3,39999,86,30000,14,10000,40,9999,0.100000,0,0,0.000000,6,0.000000,0.000000,0.326227,0,0,0,0,0,0,0
3,39999,87,30000,0,0,49,9999,0.100000,0,0,0.000000,6,1.000000,0.000000,9.091760,0,0,0,0,0,0,0
3,39999,88,30000,0,0,49,9999,0.100000,0,0,0.000000,6,1.000000,0.000000,5.220780,0,0,0,0,0,0,0
3,39999,89,30000,14,10000,40,9999,0.100000,0,0,0.000000,6,0.000000,0.000000,3.810059,0,0,0,0,0,0,0
3,39999,90,30000,1,10000,40,9999,0.100000,0,0,0.000000,6,0.000000,0.000000,0.085449,0,0,0,0,0,0,0
3,39999,91,30000,1,10000,40,9999,0.100000,0,0,0.000000,6,0.000000,0.000000,0.801586,0,0,0,0,0,0,0
3,39999,92,30000,91,10000,40,9999,0.100000,0,0,0.000000,6,0.000000,0.000000,1.382953,0,0,0,0,0,0,0
3,39999,93,30000,67,20000,40,9999,0.100000,0,0,0.000000,6,0.000000,0.000000,1.367716,0,0,0,0,0,0,0
3,39999,94,30000,0,0,40,9999,0.100000,0,0,0.000000,6,0.000000,0.000000,0.606145,0,0,0,0,0,0,0
3,39999,95,30000,34,0,40,9999,0.100000,0,0,0.000000,6,0.000000,0.000000,0.089814,0,0,0,0,0,0,0
3,39999,96,30000,14,10000,49,9999,0.100000,0,0,0.000000,6,6.000000,0.000000,8.705009,0,0,0,0,0,0,0
3,39999,97,30000,1,10000,49,9999,0.100000,0,0,0.000000,6,1.000000,0.000000,12.996075,0,0,0,0,0,0,0
3,39999,98,30000,34,0,49,9999,0.100000,0,0,0.000000,6,4.000000,0.000000,16.958332,0,0,0,0,0,0,0
3,39999,99,30000,26,10000,49,9999,0.100000,0,0,0.000000,6,5.000000,0.000000,13.401416,0,0,0,0,0,0,0
4,49999,0,40000,1,10000,49,9999,0.100000,0,0,0.000000,6,2.000000,0.000000,5.100922,0,0,0,0,0,0,0
4,49999,1,40000,1,10000,49,9999,0.100000,0,0,0.000000,6,2.000000,0.000000,2.385265,0,0,0,0,0,0,0
4,49999,2,40000,34,0,49,9999,0.100000,0,0,0.000000,6,5.000000,0.000000,5.842126,0,0,0,0,0,0,0
4,49999,3,40000,1,10000,9,9999,0.100000,0,0,34.210526,6,7.000000,0.000000,9.848908,0,0,0,1,0,0,0
4,49999,4,40000,91,10000,49,9999,0.100000,0,0,0.000000,6,1.000000,0.000000,5.146416,0,0,0,0,0,0,0
4,49999,5,40000,0,0,49,9999,0.100000,0,0,0.000000,6,3.000000,0.000000,17.190431,0,0,0,0,0,0,0
4,49999,6,40000,0,0,40,9999,0.100000,0,0,0.000000,6,0.000000,0.000000,1.026975,0,0,0,0,0,0,0
4,49999,7,40000,67,20000,40,9999,0.100000,0,0,0.000000,6,0.000000,0.000000,5.170814,0,0,0,0,0,0,0
4,49999,8,40000,67,20000,40,9999,0.100000,0,0,0.000000,6,0.000000,0.000000,1.382400,0,0,0,0,0,0,0
4,49999,9,40000,34,0,40,9999,0.100000,0,0,0.000000,6,0.000000,0.000000,2.214019,0,0,0,0,0,0,0
4,49999,10,40000,91,10000,40,9999,0.100000,0,0,0.000000,6,0.000000,0.000000,0.807875,0,0,0,0,0,0,0
4,49999,11,40000,14,10000,49,9999,0.100000,0,0,0.000000,6,1.000000,0.000000,1.726856,0,0,0,0,0,0,0
4,49999,12,40000,67,20000,40,9999,0.100000,0,0,0.000000,6,0.000000,0.000000,0.843843,0,0,0,0,0,0,0
4,49999,13,40000,14,10000,40,9999,0.100000,0,0,0.000000,6,0.000000,0.000000,0.163556,0,0,0,0,0,0,0
4,49999,14,40000,1,10000,40,9999,0.100000,0,0,0.000000,6,0.000000,0.000000,2.432978,0,0,0,0,0,0,0
4,49999,15,40000,67,20000,49,9999,0.100000,0,0,0.000000,6,2.000000,0.000000,13.946275,0,0,0,0,0,0,0
4,49999,16,40000,14,10000,40,9999,0.100000,0,0,0.000000,6,0.000000,0.000000,0.233929,0,0,0,0,0,0,0
4,49999,17,40000,1,10000,49,9999,0.100000,0,0,0.000000,6,1.000000,0.000000,1.673256,0,0,0,0,0,0,0
4,49999,18,40000,0,0,40,9999,0.100000,0,0,0.000000,6,0.000000,0.000000,0.860458,0,0,0,0,0,0,0
4,49999,19,40000,14,10000,49,9999,0.100000,0,0,0.000000,6,2.000000,0.000000,10.050831,0,0,0,0,0,0,0
4,49999,20,40000,14,10000,40,9999,0.100000,0,0,0.000000,6,0.000000,0.000000,0.624762,0,0,0,0,0,0,0
4,49999,21,40000,1,10000,49,9999,0.100000,0,0,0.000000,6,2.000000,0.000000,2.034615,0,0,0,0,0,0,0
4,49999,22,40000,14,10000,40,9999,0.100000,0,0,0.000000,6,0.000000,0.000000,0.211368,0,0,0,0,0,0,0
4,49999,23,40000,14,10000,40,9999,0.100000,0,0,0.000000,6,0.000000,0.000000,0.068299,0,0,0,0,0,0,0
4,49999,24,40000,1,10000,49,9999,0.100000,0,0,0.000000,6,1.000000,0.000000,2.060748,0,0,0,0,0,0,0
4,49999,25,40000,91,10000,40,9999,0.100000,0,0,0.000000,6,0.000000,0.000000,19.986897,0,0,0,0,0,0,0
4,49999,26,40000,1,10000,40,9999,0.100000,0,0,0.000000,6,0.000000,0.000000,0.151432,0,0,0,0,0,0,0
4,49999,27,40000,67,20000,40,9999,0.100000,0,0,0.000000,6,0.000000,0.000000,0.720636,0,0,0,0,0,0,0
4,49999,28,40000,14,10000,40,9999,0.100000,0,0,0.000000,6,0.000000,0.000000,0.147106,0,0,0,0,0,0,0
4,49999,29,40000,14,10000,49,9999,0.100000,0,0,0.000000,6,1.000000,0.000000,10.628904,0,0,0,0,0,0,0
4,49999,30,40000,91,10000,40,9999,0.100000,0,0,0.000000,6,0.000000,0.000000,0.718741,0,0,0,0,0,0,0
4,49999,31,40000,91,10000,40,9999,0.100000,0,0,0.000000,6,0.000000,0.000000,0.124855,0,0,0,0,0,0,0
4,49999,32,40000,67,20000,40,9999,0.100000,0,0,0.000000,6,0.000000,0.000000,0.462110,0,0,0,0,0,0,0
4,49999,33,40000,67,20000,40,9999,0.100000,0,0,0.000000,6,0.000000,0.000000,22.291078,0,0,0,0,0,0,0
4,49999,34,40000,1,10000,49,9999,0.100000,0,0,0.000000,6,5.000000,0.000000,28.794585,0,0,0,0,0,0,0
4,49999,35,40000,14,10000,40,9999,0.100000,0,0,0.000000,6,0.000000,0.000000,0.128661,0,0,0,0,0,0,0
4,49999,36,40000,67,20000,40,9999,0.100000,0,0,0.000000,6,0.000000,0.000000,0.122425,0,0,0,0,0,0,0
4,49999,37,40000,0,0,40,9999,0.100000,0,0,0.000000,6,0.000000,0.000000,0.838462,0,0,0,0,0,0,0
4,49999,38,40000,34,0,40,9999,0.100000,0,0,0.000000,6,0.000000,0.000000,0.200248,0,0,0,0,0,0,0
4,49999,39,40000,91,10000,40,9999,0.100000,0,0,0.000000,6,0.000000,0.000000,0.186163,0,0,0,0,0,0,0
4,49999,40,40000,1,10000,40,9999,0.100000,0,0,0.000000,6,0.000000,0.000000,0.161051,0,0,0,0,0,0,0
4,49999,41,40000,0,0,40,9999,0.100000,0,0,0.000000,6,0.000000,0.000000,0.236860,0,0,0,0,0,0,0
4,49999,42,40000,14,10000,40,9999,0.100000,0,0,0.000000,6,0.000000,0.000000,0.155012,0,0,0,0,0,0,0
4,49999,43,40000,14,10000,40,9999,0.100000,0,0,0.000000,6,0.000000,0.000000,0.560763,0,0,0,0,0,0,0
4,49999,44,40000,34,0,40,9999,0.100000,0,0,0.000000,6,0.000000,0.000000,0.085163,0,0,0,0,0,0,0
4,49999,45,40000,67,20000,40,9999,0.100000,0,0,0.000000,6,0.000000,0.000000,0.142621,0,0,0,0,0,0,0
4,49999,46,40000,34,0,40,9999,0.100000,0,0,0.000000,6,0.000000,0.000000,0.246221,0,0,0,0,0,0,0
4,49999,47,40000,1,10000,49,9999,0.100000,0,0,0.000000,6,1.000000,0.000000,1.642332,0,0,0,0,0,0,0
4,49999,48,40000,34,0,40,9999,0.100000,0,0,0.000000,6,0.000000,0.000000,0.143405,0,0,0,0,0,0,0
4,49999,49,40000,0,0,40,9999,0.100000,0,0,0.000000,6,0.000000,0.000000,2.441478,0,0,0,0,0,0,0
4,49999,50,40000,91,10000,40,9999,0.100000,0,0,0.000000,6,0.000000,0.000000,23.963621,0,0,0,0,0,0,0
4,49999,51,40000,0,0,49,9999,0.100000,0,0,0.000000,6,1.000000,0.000000,1.787073,0,0,0,0,0,0,0
4,49999,52,40000,1,10000,49,9999,0.100000,0,0,0.000000,6,2.000000,0.000000,10.440245,0,0,0,0,0,0,0
4,49999,53,40000,34,0,40,9999,0.100000,0,0,0.000000,6,0.000000,0.000000,0.743172,0,0,0,0,0,0,0
4,49999,54,40000,0,0,49,9999,0.100000,0,0,0.000000,6,2.000000,0.000000,2.201773,0,0,0,0,0,0,0
4,49999,55,40000,34,0,40,9999,0.100000,0,0,0.000000,6,0.000000,0.000000,0.137573,0,0,0,0,0,0,0
4,49999,56,40000,67,20000,40,9999,0.100000,0,0,0.000000,6,0.000000,0.000000,0.438459,0,0,0,0,0,0,0
4,49999,57,40000,0,0,40,9999,0.100000,0,0,0.000000,6,0.000000,0.000000,0.748358,0,0,0,0,0,0,0
4,49999,58,40000,1,10000,40,9999,0.100000,0,0,0.000000,6,0.000000,0.000000,0.158215,0,0,0,0,0,0,0
4,49999,59,40000,0,0,40,9999,0.100000,0,0,0.000000,6,0.000000,0.000000,0.148352,0,0,0,0,0,0,0
4,49999,60,40000,14,10000,49,9999,0.100000,0,0,0.000000,6,3.000000,0.000000,11.403008,0,0,0,0,0,0,0
4,49999,61,40000,14,10000,40,9999,0.100000,0,0,0.000000,6,0.000000,0.000000,0.354365,0,0,0,0,0,0,0
4,49999,62,40000,1,10000,40,9999,0.100000,0,0,0.000000,6,0.000000,0.000000,0.130133,0,0,0,0,0,0,0
4,49999,63,40000,34,0,40,9999,0.100000,0,0,0.000000,6,0.000000,0.000000,0.439233,0,0,0,0,0,0,0
4,49999,64,40000,91,10000,49,9999,0.100000,0,0,0.000000,6,2.000000,0.000000,8.415973,0,0,0,0,0,0,0
4,49999,65,40000,67,20000,40,9999,0.100000,0,0,0.000000,6,0.000000,0.000000,1.326401,0,0,0,0,0,0,0
4,49999,66,40000,91,10000,40,9999,0.100000,0,0,0.000000,6,0.000000,0.000000,1.228595,0,0,0,0,0,0,0
4,49999,67,40000,1,10000,40,9999,0.100000,0,0,0.000000,6,0.000000,0.000000,0.831339,0,0,0,0,0,0,0
4,49999,68,40000,14,10000,49,9999,0.100000,0,0,0.000000,6,1.000000,0.000000,2.945954,0,0,0,0,0,0,0
4,49999,69,40000,91,10000,40,9999,0.100000,0,0,0.000000,6,0.000000,0.000000,0.165942,0,0,0,0,0,0,0
4,49999,70,40000,67,20000,9,9999,0.100000,0,0,34.210526,6,7.000000,0.000000,8.627116,0,0,0,1,0,0,0
4,49999,71,40000,0,0,40,9999,0.100000,0,0,0.000000,6,0.000000,0.000000,0.160984,0,0,0,0,0,0,0
4,49999,72,40000,14,10000,40,9999,0.100000,0,0,0.000000,6,0.000000,0.000000,0.551134,0,0,0,0,0,0,0
4,49999,73,40000,34,0,40,9999,0.100000,0,0,0.000000,6,0.000000,0.000000,1.351064,0,0,0,0,0,0,0
4,49999,74,40000,1,10000,40,9999,0.100000,0,0,0.000000,6,0.000000,0.000000,0.549206,0,0,0,0,0,0,0
4,49999,75,40000,14,10000,49,9999,0.100000,0,0,0.000000,6,1.000000,0.000000,5.255225,0,0,0,0,0,0,0
4,49999,76,40000,1,10000,40,9999,0.100000,0,0,0.000000,6,0.000000,0.000000,0.109287,0,0,0,0,0,0,0
4,49999,77,40000,91,10000,49,9999,0.100000,0,0,0.000000,6,8.000000,0.000000,20.592462,0,0,0,0,0,0,0
4,49999,78,40000,14,10000,49,9999,0.100000,0,0,0.000000,6,2.000000,0.000000,9.838083,0,0,0,0,0,0,0
4,49999,79,40000,67,20000,49,9999,0.100000,0,0,0.000000,6,5.000000,0.000000,5.862457,0,0,0,0,0,0,0
4,49999,80,40000,0,0,40,9999,0.100000,0,0,0.000000,6,0.000000,0.000000,0.097861,0,0,0,0,0,0,0
4,49999,81,40000,34,0,40,9999,0.100000,0,0,0.000000,6,0.000000,0.000000,2.313932,0,0,0,0,0,0,0
4,49999,82,40000,14,10000,40,9999,0.100000,0,0,0.000000,6,0.000000,0.000000,0.660731,0,0,0,0,0,0,0
4,49999,83,40000,34,0,40,9999,0.100000,0,0,0.000000,6,0.000000,0.000000,0.701978,0,0,0,0,0,0,0
4,49999,84,40000,91,10000,40,9999,0.100000,0,0,0.000000,6,0.000000,0.000000,0.442548,0,0,0,0,0,0,0
4,49999,85,40000,34,0,40,9999,0.100000,0,0,0.000000,6,0.000000,0.000000,0.937706,0,0,0,0,0,0,0
4,49999,86,40000,91,10000,40,9999,0.100000,0,0,0.000000,6,0.000000,0.000000,0.269356,0,0,0,0,0,0,0
4,49999,87,40000,67,20000,40,9999,0.100000,0,0,0.000000,6,0.000000,0.000000,0.682128,0,0,0,0,0,0,0
4,49999,88,40000,0,0,49,9999,0.100000,0,0,0.000000,6,1.000000,0.000000,6.094523,0,0,0,0,0,0,0
4,49999,89,40000,67,20000,49,9999,0.100000,0,0,0.000000,6,2.000000,0.000000,15.338996,0,0,0,0,0,0,0
4,49999,90,40000,1,10000,40,9999,0.100000,0,0,0.000000,6,0.000000,0.000000,0.521999,0,0,0,0,0,0,0
4,49999,91,40000,1,10000,40,9999,0.100000,0,0,0.000000,6,0.000000,0.000000,2.090824,0,0,0,0,0,0,0
4,49999,92,40000,14,10000,49,9999,0.100000,0,0,0.000000,6,1.000000,0.000000,2.766005,0,0,0,0,0,0,0
4,49999,93,40000,14,10000,49,9999,0.100000,0,0,0.000000,6,5.000000,0.000000,6.171885,0,0,0,0,0,0,0
4,49999,94,40000,34,0,49,9999,0.100000,0,0,0.000000,6,1.000000,0.000000,1.597762,0,0,0,0,0,0,0
4,49999,95,40000,0,0,40,9999,0.100000,0,0,0.000000,6,0.000000,0.000000,0.106790,0,0,0,0,0,0,0
4,49999,96,40000,91,10000,49,9999,0.100000,0,0,0.000000,6,5.000000,0.000000,15.584794,0,0,0,0,0,0,0
4,49999,97,40000,1,10000,49,9999,0.100000,0,0,0.000000,6,1.000000,0.000000,10.662345,0,0,0,0,0,0,0
4,49999,98,40000,91,10000,49,9999,0.100000,0,0,0.000000,6,1.000000,0.000000,11.746112,0,0,0,0,0,0,0
4,49999,99,40000,1,10000,49,9999,0.100000,0,0,0.000000,6,3.000000,0.000000,7.848442,0,0,0,0,0,0,0
5,59999,0,50000,67,20000,49,9999,0.100000,0,0,0.000000,6,3.000000,0.000000,10.543843,0,0,0,0,0,0,0
5,59999,1,50000,0,0,49,9999,0.100000,0,0,0.000000,6,1.000000,0.000000,2.037145,0,0,0,0,0,0,0
5,59999,2,50000,34,0,40,9999,0.100000,0,0,0.000000,6,0.000000,0.000000,0.621092,0,0,0,0,0,0,0
5,59999,3,50000,91,10000,49,9999,0.100000,0,0,0.000000,6,3.000000,0.000000,13.656196,0,0,0,0,0,0,0
5,59999,4,50000,34,0,40,9999,0.100000,0,0,0.000000,6,0.000000,0.000000,0.194456,0,0,0,0,0,0,0
5,59999,5,50000,1,10000,49,9999,0.100000,0,0,0.000000,6,3.000000,0.000000,5.852813,0,0,0,0,0,0,0
5,59999,6,50000,0,0,40,9999,0.100000,0,0,0.000000,6,0.000000,0.000000,1.035598,0,0,0,0,0,0,0
5,59999,7,50000,1,10000,40,9999,0.100000,0,0,0.000000,6,0.000000,0.000000,12.904546,0,0,0,0,0,0,0
5,59999,8,50000,91,10000,49,9999,0.100000,0,0,0.000000,6,6.000000,0.000000,11.863023,0,0,0,0,0,0,0
5,59999,9,50000,67,20000,40,9999,0.135000,0,0,0.000000,6,0.000000,0.000000,0.227585,0,0,0,0,0,0,0
5,59999,10,50000,67,20000,40,9999,0.100000,0,0,0.000000,6,0.000000,0.000000,0.576634,0,0,0,0,0,0,0
5,59999,11,50000,91,10000,40,9999,0.100000,0,0,0.000000,6,0.000000,0.000000,0.949287,0,0,0,0,0,0,0
5,59999,12,50000,67,20000,40,9999,0.100000,0,0,0.000000,6,0.000000,0.000000,0.874633,0,0,0,0,0,0,0
5,59999,13,50000,34,0,40,9999,0.100000,0,0,0.000000,6,0.000000,0.000000,0.336951,0,0,0,0,0,0,0
5,59999,14,50000,0,0,40,9999,0.100000,0,0,0.000000,6,0.000000,0.000000,0.531535,0,0,0,0,0,0,0
5,59999,15,50000,34,0,49,9999,0.100000,0,0,0.000000,6,2.000000,0.000000,11.716230,0,0,0,0,0,0,0
5,59999,16,50000,34,0,40,9999,0.100000,0,0,0.000000,6,0.000000,0.000000,0.231588,0,0,0,0,0,0,0
5,59999,17,50000,1,10000,40,9999,0.100000,0,0,0.000000,6,0.000000,0.000000,1.200456,0,0,0,0,0,0,0
5,59999,18,50000,34,0,40,9999,0.100000,0,0,0.000000,6,0.000000,0.000000,0.842549,0,0,0,0,0,0,0
5,59999,19,50000,34,0,49,9999,0.100000,0,0,0.000000,6,1.000000,0.000000,10.783156,0,0,0,0,0,0,0
5,59999,20,50000,91,10000,40,9999,0.100000,0,0,0.000000,6,0.000000,0.000000,0.586735,0,0,0,0,0,0,0
5,59999,21,50000,34,0,49,9999,0.100000,0,0,0.000000,6,1.000000,0.000000,1.116823,0,0,0,0,0,0,0
5,59999,22,50000,14,10000,40,9999,0.100000,0,0,0.000000,6,0.000000,0.000000,0.220460,0,0,0,0,0,0,0
5,59999,23,50000,67,20000,40,9999,0.100000,0,0,0.000000,6,0.000000,0.000000,0.067731,0,0,0,0,0,0,0
5,59999,24,50000,1,10000,40,9999,0.100000,0,0,0.000000,6,0.000000,0.000000,2.538632,0,0,0,0,0,0,0
5,59999,25,50000,67,20000,49,9999,0.100000,0,0,0.000000,6,2.000000,0.000000,13.976016,0,0,0,0,0,0,0
5,59999,26,50000,34,0,40,9999,0.100000,0,0,0.000000,6,0.000000,0.000000,0.216242,0,0,0,0,0,0,0
5,59999,27,50000,1,10000,40,9999,0.100000,0,0,0.000000,6,0.000000,0.000000,0.780277,0,0,0,0,0,0,0
5,59999,28,50000,67,20000,40,9999,0.100000,0,0,0.000000,6,0.000000,0.000000,0.177428,0,0,0,0,0,0,0
5,59999,29,50000,91,10000,49,9999,0.100000,0,0,0.000000,6,1.000000,0.000000,9.048484,0,0,0,0,0,0,0
5,59999,30,50000,14,10000,40,9999,0.100000,0,0,0.000000,6,0.000000,0.000000,0.682810,0,0,0,0,0,0,0
5,59999,31,50000,67,20000,40,9999,0.100000,0,0,0.000000,6,0.000000,0.000000,0.122285,0,0,0,0,0,0,0
5,59999,32,50000,91,10000,40,9999,0.100000,0,0,0.000000,6,0.000000,0.000000,0.491199,0,0,0,0,0,0,0
5,59999,33,50000,34,0,40,9999,0.100000,0,0,0.000000,6,0.000000,0.000000,22.281393,0,0,0,0,0,0,0
5,59999,34,50000,67,20000,40,9999,0.100000,0,0,0.000000,6,0.000000,0.000000,11.992437,0,0,0,0,0,0,0
5,59999,35,50000,34,0,40,9999,0.100000,0,0,0.000000,6,0.000000,0.000000,0.143085,0,0,0,0,0,0,0
5,59999,36,50000,1,10000,40,9999,0.100000,0,0,0.000000,6,0.000000,0.000000,0.650071,0,0,0,0,0,0,0
5,59999,37,50000,91,10000,40,9999,0.100000,0,0,0.000000,6,0.000000,0.000000,0.684020,0,0,0,0,0,0,0
5,59999,38,50000,67,20000,40,9999,0.100000,0,0,0.000000,6,0.000000,0.000000,0.205464,0,0,0,0,0,0,0
5,59999,39,50000,14,10000,40,9999,0.100000,0,0,0.000000,6,0.000000,0.000000,0.185325,0,0,0,0,0,0,0
5,59999,40,50000,0,0,40,9999,0.100000,0,0,0.000000,6,0.000000,0.000000,0.342545,0,0,0,0,0,0,0
5,59999,41,50000,34,0,40,9999,0.100000,0,0,0.000000,6,0.000000,0.000000,0.232832,0,0,0,0,0,0,0
5,59999,42,50000,34,0,40,9999,0.100000,0,0,0.000000,6,0.000000,0.000000,0.150281,0,0,0,0,0,0,0
5,59999,43,50000,34,0,40,9999,0.100000,0,0,0.000000,6,0.000000,0.000000,0.609871,0,0,0,0,0,0,0
5,59999,44,50000,34,0,49,9999,0.100000,0,0,0.000000,6,3.000000,0.000000,6.131826,0,0,0,0,0,0,0
5,59999,45,50000,67,20000,40,9999,0.100000,0,0,0.000000,6,0.000000,0.000000,0.247796,0,0,0,0,0,0,0
5,59999,46,50000,91,10000,40,9999,0.100000,0,0,0.000000,6,0.000000,0.000000,0.348885,0,0,0,0,0,0,0
5,59999,47,50000,91,10000,40,9999,0.100000,0,0,0.000000,6,0.000000,0.000000,0.928308,0,0,0,0,0,0,0
5,59999,48,50000,0,0,40,9999,0.100000,0,0,0.000000,6,0.000000,0.000000,0.479492,0,0,0,0,0,0,0
5,59999,49,50000,34,0,40,9999,0.100000,0,0,0.000000,6,0.000000,0.000000,0.237184,0,0,0,0,0,0,0
5,59999,50,50000,14,10000,40,9999,0.100000,0,0,0.000000,6,0.000000,0.000000,23.926303,0,0,0,0,0,0,0
5,59999,51,50000,1,10000,40,9999,0.100000,0,0,0.000000,6,0.000000,0.000000,2.105297,0,0,0,0,0,0,0
5,59999,52,50000,34,0,49,9999,0.100000,0,0,0.000000,6,1.000000,0.000000,5.956554,0,0,0,0,0,0,0
5,59999,53,50000,67,20000,40,9999,0.100000,0,0,0.000000,6,0.000000,0.000000,1.384873,0,0,0,0,0,0,0
5,59999,54,50000,14,10000,49,9999,0.100000,0,0,0.000000,6,1.000000,0.000000,1.408842,0,0,0,0,0,0,0
5,59999,55,50000,34,0,40,9999,0.100000,0,0,0.000000,6,0.000000,0.000000,0.140127,0,0,0,0,0,0,0
5,59999,56,50000,67,20000,49,9999,0.100000,0,0,0.000000,6,3.000000,0.000000,6.647675,0,0,0,0,0,0,0
5,59999,57,50000,34,0,40,9999,0.100000,0,0,0.000000,6,0.000000,0.000000,0.598700,0,0,0,0,0,0,0
5,59999,58,50000,91,10000,40,9999,0.100000,0,0,0.000000,6,0.000000,0.000000,0.282501,0,0,0,0,0,0,0
5,59999,59,50000,0,0,40,9999,0.100000,0,0,0.000000,6,0.000000,0.000000,0.185652,0,0,0,0,0,0,0
5,59999,60,50000,67,20000,49,9999,0.100000,0,0,0.000000,6,1.000000,0.000000,5.193668,0,0,0,0,0,0,0
5,59999,61,50000,14,10000,40,9999,0.100000,0,0,0.000000,6,0.000000,0.000000,0.362813,0,0,0,0,0,0,0
5,59999,62,50000,14,10000,40,9999,0.100000,0,0,0.000000,6,0.000000,0.000000,0.126051,0,0,0,0,0,0,0
5,59999,63,50000,1,10000,40,9999,0.100000,0,0,0.000000,6,0.000000,0.000000,0.488843,0,0,0,0,0,0,0
5,59999,64,50000,1,10000,49,9999,0.100000,0,0,0.000000,6,1.000000,0.000000,5.241375,0,0,0,0,0,0,0
5,59999,65,50000,0,0,40,9999,0.100000,0,0,0.000000,6,0.000000,0.000000,0.470456,0,0,0,0,0,0,0
5,59999,66,50000,67,20000,40,9999,0.100000,0,0,0.000000,6,0.000000,0.000000,0.556737,0,0,0,0,0,0,0
5,59999,67,50000,91,10000,40,9999,0.100000,0,0,0.000000,6,0.000000,0.000000,0.202313,0,0,0,0,0,0,0
5,59999,68,50000,34,0,40,9999,0.100000,0,0,0.000000,6,0.000000,0.000000,0.816490,0,0,0,0,0,0,0
5,59999,69,50000,14,10000,40,9999,0.100000,0,0,0.000000,6,0.000000,0.000000,0.171487,0,0,0,0,0,0,0
5,59999,70,50000,34,0,49,9999,0.100000,0,0,0.000000,6,5.000000,0.000000,15.451362,0,0,0,0,0,0,0
5,59999,71,50000,0,0,40,9999,0.100000,0,0,0.000000,6,0.000000,0.000000,0.233842,0,0,0,0,0,0,0
5,59999,72,50000,0,0,40,9999,0.100000,0,0,0.000000,6,0.000000,0.000000,3.237868,0,0,0,0,0,0,0
5,59999,73,50000,14,10000,40,9999,0.100000,0,0,0.000000,6,0.000000,0.000000,1.050651,0,0,0,0,0,0,0
5,59999,74,50000,0,0,40,9999,0.100000,0,0,0.000000,6,0.000000,0.000000,0.532810,0,0,0,0,0,0,0
5,59999,75,50000,67,20000,49,9999,0.100000,0,0,0.000000,6,1.000000,0.000000,4.553816,0,0,0,0,0,0,0
5,59999,76,50000,1,10000,40,9999,0.100000,0,0,0.000000,6,0.000000,0.000000,0.116498,0,0,0,0,0,0,0
5,59999,77,50000,67,20000,49,9999,0.100000,0,0,0.000000,6,1.000000,0.000000,19.978276,0,0,0,0,0,0,0
5,59999,78,50000,1,10000,49,9999,0.100000,0,0,0.000000,6,1.000000,0.000000,8.496101,0,0,0,0,0,0,0
5,59999,79,50000,91,10000,40,9999,0.100000,0,0,0.000000,6,0.000000,0.000000,0.604239,0,0,0,0,0,0,0
5,59999,80,50000,14,10000,40,9999,0.100000,0,0,0.000000,6,0.000000,0.000000,0.393785,0,0,0,0,0,0,0
5,59999,81,50000,34,0,40,9999,0.100000,0,0,0.000000,6,0.000000,0.000000,2.314877,0,0,0,0,0,0,0
5,59999,82,50000,14,10000,49,9999,0.100000,0,0,0.000000,6,3.000000,0.000000,6.530519,0,0,0,0,0,0,0
5,59999,83,50000,34,0,40,9999,0.100000,0,0,0.000000,6,0.000000,0.000000,0.668036,0,0,0,0,0,0,0
5,59999,84,50000,1,10000,40,9999,0.100000,0,0,0.000000,6,0.000000,0.000000,1.116138,0,0,0,0,0,0,0
5,59999,85,50000,1,10000,40,9999,0.100000,0,0,0.000000,6,0.000000,0.000000,0.916465,0,0,0,0,0,0,0
5,59999,86,50000,14,10000,40,9999,0.100000,0,0,0.000000,6,0.000000,0.000000,0.253027,0,0,0,0,0,0,0
5,59999,87,50000,0,0,40,9999,0.100000,0,0,0.000000,6,0.000000,0.000000,0.651654,0,0,0,0,0,0,0
5,59999,88,50000,1,10000,49,9999,0.100000,0,0,0.000000,6,4.000000,0.000000,12.177359,0,0,0,0,0,0,0
5,59999,89,50000,34,0,49,9999,0.100000,0,0,0.000000,6,1.000000,0.000000,10.162060,0,0,0,0,0,0,0
5,59999,90,50000,91,10000,40,9999,0.100000,0,0,0.000000,6,0.000000,0.000000,0.555168,0,0,0,0,0,0,0
5,59999,91,50000,67,20000,40,9999,0.100000,0,0,0.000000,6,0.000000,0.000000,0.521440,0,0,0,0,0,0,0
5,59999,92,50000,34,0,40,9999,0.100000,0,0,0.000000,6,0.000000,0.000000,1.383465,0,0,0,0,0,0,0
5,59999,93,50000,91,10000,40,9999,0.100000,0,0,0.000000,6,0.000000,0.000000,0.864945,0,0,0,0,0,0,0
5,59999,94,50000,67,20000,40,9999,0.100000,0,0,0.000000,6,0.000000,0.000000,1.244291,0,0,0,0,0,0,0
5,59999,95,50000,14,10000,40,9999,0.100000,0,0,0.000000,6,0.000000,0.000000,0.191114,0,0,0,0,0,0,0
5,59999,96,50000,34,0,40,9999,0.100000,0,0,0.000000,6,0.000000,0.000000,0.725557,0,0,0,0,0,0,0
5,59999,97,50000,91,10000,49,9999,0.100000,0,0,0.000000,6,1.000000,0.000000,12.880181,0,0,0,0,0,0,0
5,59999,98,50000,91,10000,49,9999,0.100000,0,0,0.000000,6,2.000000,0.000000,12.984756,0,0,0,0,0,0,0
5,59999,99,50000,67,20000,40,9999,0.100000,0,0,0.000000,6,0.000000,0.000000,8.898021,0,0,0,0,0,0,0
6,69999,0,60000,67,20000,49,9999,0.100000,0,0,0.000000,6,1.000000,0.000000,2.809234,0,0,0,0,0,0,0
6,69999,1,60000,34,0,40,9999,0.100000,0,0,0.000000,6,0.000000,0.000000,0.901542,0,0,0,0,0,0,0
6,69999,2,60000,0,0,40,9999,0.100000,0,0,0.000000,6,0.000000,0.000000,0.564523,0,0,0,0,0,0,0
6,69999,3,60000,1,10000,49,9999,0.100000,0,0,0.000000,6,5.000000,0.000000,12.064808,0,0,0,0,0,0,0
6,69999,4,60000,34,0,40,9999,0.100000,0,0,0.000000,6,0.000000,0.000000,0.242809,0,0,0,0,0,0,0
6,69999,5,60000,1,10000,9,9999,0.100000,0,0,34.210526,6,4.000000,0.000000,11.575124,0,0,0,1,0,0,0
6,69999,6,60000,0,0,40,9999,0.100000,0,0,0.000000,6,0.000000,0.000000,0.595960,0,0,0,0,0,0,0
6,69999,7,60000,1,10000,40,9999,0.100000,0,0,0.000000,6,0.000000,0.000000,9.755007,0,0,0,0,0,0,0
6,69999,8,60000,67,20000,49,9999,0.100000,0,0,0.000000,6,2.000000,0.000000,9.516509,0,0,0,0,0,0,0
6,69999,9,60000,0,0,40,9999,0.100000,0,0,0.000000,6,0.000000,0.000000,0.261447,0,0,0,0,0,0,0
6,69999,10,60000,67,20000,40,9999,0.100000,0,0,0.000000,6,0.000000,0.000000,0.602669,0,0,0,0,0,0,0
6,69999,11,60000,91,10000,40,9999,0.100000,0,0,0.000000,6,0.000000,0.000000,1.080685,0,0,0,0,0,0,0
6,69999,12,60000,91,10000,40,9999,0.100000,0,0,0.000000,6,0.000000,0.000000,0.951526,0,0,0,0,0,0,0
6,69999,13,60000,0,0,40,9999,0.100000,0,0,0.000000,6,0.000000,0.000000,0.307820,0,0,0,0,0,0,0
6,69999,14,60000,34,0,40,9999,0.100000,0,0,0.000000,6,0.000000,0.000000,0.589044,0,0,0,0,0,0,0
6,69999,15,60000,14,10000,49,9999,0.100000,0,0,0.000000,6,6.000000,0.000000,11.642545,0,0,0,0,0,0,0
6,69999,16,60000,34,0,40,9999,0.100000,0,0,0.000000,6,0.000000,0.000000,0.249257,0,0,0,0,0,0,0
6,69999,17,60000,14,10000,40,9999,0.100000,0,0,0.000000,6,0.000000,0.000000,0.776999,0,0,0,0,0,0,0
6,69999,18,60000,91,10000,40,9999,0.100000,0,0,0.000000,6,0.000000,0.000000,1.078142,0,0,0,0,0,0,0
6,69999,19,60000,14,10000,49,9999,0.100000,0,0,0.000000,6,2.000000,0.000000,13.295830,0,0,0,0,0,0,0
6,69999,20,60000,34,0,40,9999,0.100000,0,0,0.000000,6,0.000000,0.000000,0.576549,0,0,0,0,0,0,0
6,69999,21,60000,67,20000,40,9999,0.100000,0,0,0.000000,6,0.000000,0.000000,0.357406,0,0,0,0,0,0,0
6,69999,22,60000,67,20000,40,9999,0.100000,0,0,0.000000,6,0.000000,0.000000,0.197122,0,0,0,0,0,0,0
6,69999,23,60000,34,0,40,9999,0.100000,0,0,0.000000,6,0.000000,0.000000,0.068201,0,0,0,0,0,0,0
6,69999,24,60000,91,10000,40,9999,0.100000,0,0,0.000000,6,0.000000,0.000000,1.728738,0,0,0,0,0,0,0
6,69999,25,60000,0,0,49,9999,0.100000,0,0,0.000000,6,4.000000,0.000000,11.439814,0,0,0,0,0,0,0
6,69999,26,60000,1,10000,40,9999,0.100000,0,0,0.000000,6,0.000000,0.000000,0.180332,0,0,0,0,0,0,0
6,69999,27,60000,67,20000,40,9999,0.100000,0,0,0.000000,6,0.000000,0.000000,0.751527,0,0,0,0,0,0,0
6,69999,28,60000,1,10000,49,9999,0.100000,0,0,0.000000,6,1.000000,0.000000,2.290285,0,0,0,0,0,0,0
6,69999,29,60000,1,10000,40,9999,0.100000,0,0,0.000000,6,0.000000,0.000000,5.989211,0,0,0,0,0,0,0
6,69999,30,60000,91,10000,40,9999,0.100000,0,0,0.000000,6,0.000000,0.000000,4.610752,0,0,0,0,0,0,0
6,69999,31,60000,14,10000,40,9999,0.100000,0,0,0.000000,6,0.000000,0.000000,0.122586,0,0,0,0,0,0,0
6,69999,32,60000,14,10000,40,9999,0.100000,0,0,0.000000,6,0.000000,0.000000,0.518084,0,0,0,0,0,0,0
6,69999,33,60000,14,10000,49,9999,0.100000,0,0,0.000000,6,1.000000,0.000000,7.771550,0,0,0,0,0,0,0
6,69999,34,60000,14,10000,49,9999,0.100000,0,0,0.000000,6,2.000000,0.000000,9.529246,0,0,0,0,0,0,0
6,69999,35,60000,1,10000,40,9999,0.100000,0,0,0.000000,6,0.000000,0.000000,0.157958,0,0,0,0,0,0,0
6,69999,36,60000,91,10000,49,9999,0.100000,0,0,0.000000,6,7.000000,0.000000,16.358026,0,0,0,0,0,0,0
6,69999,37,60000,14,10000,40,9999,0.100000,0,0,0.000000,6,0.000000,0.000000,0.714849,0,0,0,0,0,0,0
6,69999,38,60000,0,0,40,9999,0.100000,0,0,0.000000,6,0.000000,0.000000,0.198251,0,0,0,0,0,0,0
6,69999,39,60000,14,10000,40,9999,0.100000,0,0,0.000000,6,0.000000,0.000000,0.187126,0,0,0,0,0,0,0
6,69999,40,60000,91,10000,40,9999,0.100000,0,0,0.000000,6,0.000000,0.000000,0.133363,0,0,0,0,0,0,0
6,69999,41,60000,1,10000,40,9999,0.100000,0,0,0.000000,6,0.000000,0.000000,0.244109,0,0,0,0,0,0,0
6,69999,42,60000,67,20000,40,9999,0.100000,0,0,0.000000,6,0.000000,0.000000,0.142367,0,0,0,0,0,0,0
6,69999,43,60000,91,10000,40,9999,0.100000,0,0,0.000000,6,0.000000,0.000000,0.649798,0,0,0,0,0,0,0
6,69999,44,60000,14,10000,40,9999,0.100000,0,0,0.000000,6,0.000000,0.000000,0.186138,0,0,0,0,0,0,0
6,69999,45,60000,34,0,40,9999,0.100000,0,0,0.000000,6,0.000000,0.000000,0.284734,0,0,0,0,0,0,0
6,69999,46,60000,67,20000,40,9999,0.100000,0,0,0.000000,6,0.000000,0.000000,0.158260,0,0,0,0,0,0,0
6,69999,47,60000,0,0,40,9999,0.100000,0,0,0.000000,6,0.000000,0.000000,0.152970,0,0,0,0,0,0,0
6,69999,48,60000,91,10000,49,9999,0.100000,0,0,0.000000,6,1.000000,0.000000,8.895703,0,0,0,0,0,0,0
6,69999,49,60000,67,20000,40,9999,0.100000,0,0,0.000000,6,0.000000,0.000000,0.228797,0,0,0,0,0,0,0
6,69999,50,60000,34,0,40,9999,0.100000,0,0,0.000000,6,0.000000,0.000000,23.898402,0,0,0,0,0,0,0
6,69999,51,60000,91,10000,40,9999,0.100000,0,0,0.000000,6,0.000000,0.000000,0.969319,0,0,0,0,0,0,0
6,69999,52,60000,1,10000,40,9999,0.100000,0,0,0.000000,6,0.000000,0.000000,1.024852,0,0,0,0,0,0,0
6,69999,53,60000,34,0,40,9999,0.100000,0,0,0.000000,6,0.000000,0.000000,0.725541,0,0,0,0,0,0,0
6,69999,54,60000,14,10000,40,9999,0.100000,0,0,0.000000,6,0.000000,0.000000,0.469541,0,0,0,0,0,0,0
6,69999,55,60000,0,0,40,9999,0.100000,0,0,0.000000,6,0.000000,0.000000,0.140524,0,0,0,0,0,0,0
6,69999,56,60000,0,0,40,9999,0.100000,0,0,0.000000,6,0.000000,0.000000,0.654872,0,0,0,0,0,0,0
6,69999,57,60000,34,0,40,9999,0.100000,0,0,0.000000,6,0.000000,0.000000,0.580506,0,0,0,0,0,0,0
6,69999,58,60000,91,10000,40,9999,0.100000,0,0,0.000000,6,0.000000,0.000000,0.295170,0,0,0,0,0,0,0
6,69999,59,60000,14,10000,40,9999,0.100000,0,0,0.000000,6,0.000000,0.000000,0.141848,0,0,0,0,0,0,0
6,69999,60,60000,1,10000,40,9999,0.100000,0,0,0.000000,6,0.000000,0.000000,3.240249,0,0,0,0,0,0,0
6,69999,61,60000,34,0,40,9999,0.100000,0,0,0.000000,6,0.000000,0.000000,0.442149,0,0,0,0,0,0,0
6,69999,62,60000,14,10000,40,9999,0.100000,0,0,0.000000,6,0.000000,0.000000,0.127449,0,0,0,0,0,0,0
6,69999,63,60000,0,0,40,9999,0.100000,0,0,0.000000,6,0.000000,0.000000,0.529352,0,0,0,0,0,0,0
6,69999,64,60000,67,20000,40,9999,0.100000,0,0,0.000000,6,0.000000,0.000000,4.278534,0,0,0,0,0,0,0
6,69999,65,60000,67,20000,40,9999,0.100000,0,0,0.000000,6,0.000000,0.000000,0.609382,0,0,0,0,0,0,0
6,69999,66,60000,67,20000,40,9999,0.100000,0,0,0.000000,6,0.000000,0.000000,0.726539,0,0,0,0,0,0,0
6,69999,67,60000,67,20000,40,9999,0.100000,0,0,0.000000,6,0.000000,0.000000,0.208894,0,0,0,0,0,0,0
6,69999,68,60000,14,10000,40,9999,0.100000,0,0,0.000000,6,0.000000,0.000000,0.684342,0,0,0,0,0,0,0
6,69999,69,60000,91,10000,40,9999,0.100000,0,0,0.000000,6,0.000000,0.000000,0.172707,0,0,0,0,0,0,0
6,69999,70,60000,0,0,49,9999,0.100000,0,0,0.000000,6,4.000000,0.000000,15.970103,0,0,0,0,0,0,0
6,69999,71,60000,14,10000,40,9999,0.100000,0,0,0.000000,6,0.000000,0.000000,0.287841,0,0,0,0,0,0,0
6,69999,72,60000,1,10000,40,9999,0.100000,0,0,0.000000,6,0.000000,0.000000,0.285276,0,0,0,0,0,0,0
6,69999,73,60000,67,20000,40,9999,0.100000,0,0,0.000000,6,0.000000,0.000000,2.205410,0,0,0,0,0,0,0
6,69999,74,60000,0,0,40,9999,0.100000,0,0,0.000000,6,0.000000,0.000000,0.496340,0,0,0,0,0,0,0
6,69999,75,60000,34,0,40,9999,0.100000,0,0,0.000000,6,0.000000,0.000000,0.171978,0,0,0,0,0,0,0
6,69999,76,60000,34,0,49,9999,0.100000,0,0,0.000000,6,1.000000,0.000000,1.755300,0,0,0,0,0,0,0
6,69999,77,60000,0,0,49,9999,0.100000,0,0,0.000000,6,3.000000,0.000000,8.327802,0,0,0,0,0,0,0
6,69999,78,60000,14,10000,49,9999,0.100000,0,0,0.000000,6,2.000000,0.000000,9.624987,0,0,0,0,0,0,0
6,69999,79,60000,91,10000,40,9999,0.100000,0,0,0.000000,6,0.000000,0.000000,0.647565,0,0,0,0,0,0,0
6,69999,80,60000,91,10000,40,9999,0.100000,0,0,0.000000,6,0.000000,0.000000,1.097904,0,0,0,0,0,0,0
6,69999,81,60000,14,10000,40,9999,0.100000,0,0,0.000000,6,0.000000,0.000000,2.008162,0,0,0,0,0,0,0
6,69999,82,60000,91,10000,9,9999,0.100000,0,0,34.210526,6,4.000000,0.000000,8.491100,0,0,0,1,0,0,0
6,69999,83,60000,67,20000,40,9999,0.100000,0,0,0.000000,6,0.000000,0.000000,0.664290,0,0,0,0,0,0,0
6,69999,84,60000,34,0,40,9999,0.100000,0,0,0.000000,6,0.000000,0.000000,0.918481,0,0,0,0,0,0,0
6,69999,85,60000,0,0,40,9999,0.100000,0,0,0.000000,6,0.000000,0.000000,0.592665,0,0,0,0,0,0,0
6,69999,86,60000,0,0,40,9999,0.100000,0,0,0.000000,6,0.000000,0.000000,0.267264,0,0,0,0,0,0,0
6,69999,87,60000,67,20000,40,9999,0.100000,0,0,0.000000,6,0.000000,0.000000,0.608500,0,0,0,0,0,0,0
6,69999,88,60000,14,10000,49,9999,0.100000,0,0,0.000000,6,2.000000,0.000000,13.471302,0,0,0,0,0,0,0
6,69999,89,50000,34,0,40,19999,0.100000,0,0,0.000000,6,0.000000,0.000000,0.907877,0,0,0,0,0,0,0
6,69999,90,60000,91,10000,40,9999,0.100000,0,0,0.000000,6,0.000000,0.000000,0.646360,0,0,0,0,0,0,0
6,69999,91,60000,1,10000,40,9999,0.100000,0,0,0.000000,6,0.000000,0.000000,0.531623,0,0,0,0,0,0,0
6,69999,92,60000,1,10000,40,9999,0.100000,0,0,0.000000,6,0.000000,0.000000,0.895513,0,0,0,0,0,0,0
6,69999,93,60000,0,0,40,9999,0.100000,0,0,0.000000,6,0.000000,0.000000,0.964605,0,0,0,0,0,0,0
6,69999,94,60000,0,0,40,9999,0.100000,0,0,0.000000,6,0.000000,0.000000,0.775332,0,0,0,0,0,0,0
6,69999,95,60000,91,10000,40,9999,0.100000,0,0,0.000000,6,0.000000,0.000000,0.206956,0,0,0,0,0,0,0
6,69999,96,60000,1,10000,40,9999,0.100000,0,0,0.000000,6,0.000000,0.000000,1.009860,0,0,0,0,0,0,0
6,69999,97,60000,0,0,40,9999,0.100000,0,0,0.000000,6,0.000000,0.000000,3.302233,0,0,0,0,0,0,0
6,69999,98,60000,1,10000,49,9999,0.100000,0,0,0.000000,6,1.000000,0.000000,13.361933,0,0,0,0,0,0,0
6,69999,99,60000,1,10000,49,9999,0.100000,0,0,0.000000,6,1.000000,0.000000,7.318398,0,0,0,0,0,0,0
7,79999,0,70000,67,20000,40,9999,0.100000,0,0,0.000000,6,0.000000,0.000000,0.962539,0,0,0,0,0,0,0
7,79999,1,70000,67,20000,40,9999,0.100000,0,0,0.000000,6,0.000000,0.000000,0.741228,0,0,0,0,0,0,0
7,79999,2,70000,0,0,40,9999,0.100000,0,0,0.000000,6,0.000000,0.000000,0.928738,0,0,0,0,0,0,0
7,79999,3,70000,34,0,49,9999,0.100000,0,0,0.000000,6,1.000000,0.000000,2.592372,0,0,0,0,0,0,0
7,79999,4,70000,1,10000,40,9999,0.100000,0,0,0.000000,6,0.000000,0.000000,0.167327,0,0,0,0,0,0,0
7,79999,5,70000,1,10000,40,9999,0.100000,0,0,0.000000,6,0.000000,0.000000,3.809290,0,0,0,0,0,0,0
7,79999,6,70000,14,10000,40,9999,0.100000,0,0,0.000000,6,0.000000,0.000000,0.537283,0,0,0,0,0,0,0
7,79999,7,70000,91,10000,49,9999,0.100000,0,0,0.000000,6,2.000000,0.000000,11.364900,0,0,0,0,0,0,0
7,79999,8,70000,1,10000,40,9999,0.100000,0,0,0.000000,6,0.000000,0.000000,0.462444,0,0,0,0,0,0,0
7,79999,9,70000,34,0,40,9999,0.100000,0,0,0.000000,6,0.000000,0.000000,0.258019,0,0,0,0,0,0,0
7,79999,10,70000,91,10000,40,9999,0.100000,0,0,0.000000,6,0.000000,0.000000,0.487906,0,0,0,0,0,0,0
7,79999,11,70000,0,0,40,9999,0.100000,0,0,0.000000,6,0.000000,0.000000,0.949753,0,0,0,0,0,0,0
7,79999,12,70000,0,0,40,9999,0.100000,0,0,0.000000,6,0.000000,0.000000,0.894413,0,0,0,0,0,0,0
7,79999,13,70000,34,0,49,9999,0.100000,0,0,0.000000,6,1.000000,0.000000,2.818922,0,0,0,0,0,0,0
7,79999,14,70000,14,10000,40,9999,0.100000,0,0,0.000000,6,0.000000,0.000000,0.717171,0,0,0,0,0,0,0
7,79999,15,70000,14,10000,49,9999,0.100000,0,0,0.000000,6,4.000000,0.000000,7.778619,0,0,0,0,0,0,0
7,79999,16,70000,14,10000,40,9999,0.100000,0,0,0.000000,6,0.000000,0.000000,0.245589,0,0,0,0,0,0,0
7,79999,17,70000,0,0,40,9999,0.100000,0,0,0.000000,6,0.000000,0.000000,1.545951,0,0,0,0,0,0,0
7,79999,18,70000,0,0,40,9999,0.100000,0,0,0.000000,6,0.000000,0.000000,0.428185,0,0,0,0,0,0,0
7,79999,19,70000,34,0,49,9999,0.100000,0,0,0.000000,6,1.000000,0.000000,10.853897,0,0,0,0,0,0,0
7,79999,20,70000,91,10000,40,9999,0.100000,0,0,0.000000,6,0.000000,0.000000,0.503416,0,0,0,0,0,0,0
7,79999,21,70000,34,0,40,9999,0.100000,0,0,0.000000,6,0.000000,0.000000,0.529984,0,0,0,0,0,0,0
7,79999,22,70000,91,10000,40,9999,0.100000,0,0,0.000000,6,0.000000,0.000000,0.206515,0,0,0,0,0,0,0
7,79999,23,70000,34,0,40,9999,0.100000,0,0,0.000000,6,0.000000,0.000000,0.068276,0,0,0,0,0,0,0
7,79999,24,70000,91,10000,40,9999,0.100000,0,0,0.000000,6,0.000000,0.000000,1.965101,0,0,0,0,0,0,0
7,79999,25,70000,0,0,40,9999,0.100000,0,0,0.000000,6,0.000000,0.000000,2.103794,0,0,0,0,0,0,0
7,79999,26,70000,91,10000,40,9999,0.100000,0,0,0.000000,6,0.000000,0.000000,0.225633,0,0,0,0,0,0,0
7,79999,27,70000,34,0,40,9999,0.100000,0,0,0.000000,6,0.000000,0.000000,0.835852,0,0,0,0,0,0,0
7,79999,28,70000,14,10000,40,9999,0.100000,0,0,0.000000,6,0.000000,0.000000,0.834470,0,0,0,0,0,0,0
7,79999,29,70000,0,0,40,9999,0.100000,0,0,0.000000,6,0.000000,0.000000,0.697926,0,0,0,0,0,0,0
7,79999,30,70000,14,10000,49,9999,0.100000,0,0,0.000000,6,1.000000,0.000000,9.156283,0,0,0,0,0,0,0
7,79999,31,70000,91,10000,40,9999,0.100000,0,0,0.000000,6,0.000000,0.000000,0.965377,0,0,0,0,0,0,0
7,79999,32,70000,14,10000,40,9999,0.100000,0,0,0.000000,6,0.000000,0.000000,0.551416,0,0,0,0,0,0,0
7,79999,33,70000,91,10000,40,9999,0.100000,0,0,0.000000,6,0.000000,0.000000,0.484572,0,0,0,0,0,0,0
7,79999,34,70000,0,0,49,9999,0.100000,0,0,0.000000,6,4.000000,0.000000,12.425272,0,0,0,0,0,0,0
7,79999,35,70000,1,10000,40,9999,0.100000,0,0,0.000000,6,0.000000,0.000000,0.122622,0,0,0,0,0,0,0
7,79999,36,70000,0,0,40,9999,0.100000,0,0,0.000000,6,0.000000,0.000000,0.168045,0,0,0,0,0,0,0
7,79999,37,70000,0,0,40,9999,0.100000,0,0,0.000000,6,0.000000,0.000000,0.658923,0,0,0,0,0,0,0
7,79999,38,70000,1,10000,40,9999,0.100000,0,0,0.000000,6,0.000000,0.000000,0.158469,0,0,0,0,0,0,0
7,79999,39,70000,1,10000,40,9999,0.100000,0,0,0.000000,6,0.000000,0.000000,0.181880,0,0,0,0,0,0,0
7,79999,40,70000,67,20000,40,9999,0.100000,0,0,0.000000,6,0.000000,0.000000,0.219586,0,0,0,0,0,0,0
7,79999,41,70000,0,0,40,9999,0.100000,0,0,0.000000,6,0.000000,0.000000,0.239457,0,0,0,0,0,0,0
7,79999,42,70000,1,10000,40,9999,0.100000,0,0,0.000000,6,0.000000,0.000000,0.156254,0,0,0,0,0,0,0
7,79999,43,70000,91,10000,49,9999,0.100000,0,0,0.000000,6,2.000000,0.000000,2.427486,0,0,0,0,0,0,0
7,79999,44,70000,14,10000,40,9999,0.100000,0,0,0.000000,6,0.000000,0.000000,0.245932,0,0,0,0,0,0,0
7,79999,45,70000,0,0,40,9999,0.100000,0,0,0.000000,6,0.000000,0.000000,0.294125,0,0,0,0,0,0,0
7,79999,46,70000,34,0,40,9999,0.100000,0,0,0.000000,6,0.000000,0.000000,0.209480,0,0,0,0,0,0,0
7,79999,47,70000,34,0,40,9999,0.100000,0,0,0.000000,6,0.000000,0.000000,0.882357,0,0,0,0,0,0,0
7,79999,48,70000,34,0,49,9999,0.100000,0,0,0.000000,6,2.000000,0.000000,6.320256,0,0,0,0,0,0,0
7,79999,49,70000,1,10000,40,9999,0.100000,0,0,0.000000,6,0.000000,0.000000,0.243561,0,0,0,0,0,0,0
7,79999,50,70000,14,10000,40,9999,0.100000,0,0,0.000000,6,0.000000,0.000000,23.849938,0,0,0,0,0,0,0
7,79999,51,70000,1,10000,40,9999,0.100000,0,0,0.000000,6,0.000000,0.000000,1.568375,0,0,0,0,0,0,0
7,79999,52,70000,1,10000,49,9999,0.100000,0,0,0.000000,6,1.000000,0.000000,1.860819,0,0,0,0,0,0,0
7,79999,53,70000,91,10000,40,9999,0.100000,0,0,0.000000,6,0.000000,0.000000,0.952338,0,0,0,0,0,0,0
7,79999,54,70000,0,0,40,9999,0.100000,0,0,0.000000,6,0.000000,0.000000,0.566150,0,0,0,0,0,0,0
7,79999,55,70000,67,20000,40,9999,0.100000,0,0,0.000000,6,0.000000,0.000000,0.143659,0,0,0,0,0,0,0
7,79999,56,70000,1,10000,40,9999,0.100000,0,0,0.000000,6,0.000000,0.000000,0.270401,0,0,0,0,0,0,0
7,79999,57,70000,1,10000,40,9999,0.100000,0,0,0.000000,6,0.000000,0.000000,0.521763,0,0,0,0,0,0,0
7,79999,58,70000,1,10000,40,9999,0.100000,0,0,0.000000,6,0.000000,0.000000,0.358028,0,0,0,0,0,0,0
7,79999,59,70000,1,10000,40,9999,0.100000,0,0,0.000000,6,0.000000,0.000000,0.148862,0,0,0,0,0,0,0
7,79999,60,70000,34,0,40,9999,0.100000,0,0,0.000000,6,0.000000,0.000000,1.085580,0,0,0,0,0,0,0
7,79999,61,70000,34,0,40,9999,0.100000,0,0,0.000000,6,0.000000,0.000000,0.417324,0,0,0,0,0,0,0
7,79999,62,70000,0,0,40,9999,0.100000,0,0,0.000000,6,0.000000,0.000000,0.127641,0,0,0,0,0,0,0
7,79999,63,70000,1,10000,49,9999,0.100000,0,0,0.000000,6,2.000000,0.000000,2.404504,0,0,0,0,0,0,0
7,79999,64,70000,91,10000,40,9999,0.100000,0,0,0.000000,6,0.000000,0.000000,1.660214,0,0,0,0,0,0,0
7,79999,65,70000,67,20000,40,9999,0.100000,0,0,0.000000,6,0.000000,0.000000,0.631274,0,0,0,0,0,0,0
7,79999,66,70000,14,10000,40,9999,0.100000,0,0,0.000000,6,0.000000,0.000000,1.203668,0,0,0,0,0,0,0
7,79999,67,70000,0,0,40,9999,0.100000,0,0,0.000000,6,0.000000,0.000000,0.172939,0,0,0,0,0,0,0
7,79999,68,70000,1,10000,40,9999,0.100000,0,0,0.000000,6,0.000000,0.000000,5.383038,0,0,0,0,0,0,0
7,79999,69,70000,91,10000,40,9999,0.100000,0,0,0.000000,6,0.000000,0.000000,0.173314,0,0,0,0,0,0,0
7,79999,70,70000,1,10000,49,9999,0.100000,0,0,0.000000,6,5.000000,0.000000,9.849527,0,0,0,0,0,0,0
7,79999,71,70000,14,10000,40,9999,0.100000,0,0,0.000000,6,0.000000,0.000000,0.198881,0,0,0,0,0,0,0
7,79999,72,70000,67,20000,40,9999,0.100000,0,0,0.000000,6,0.000000,0.000000,0.433421,0,0,0,0,0,0,0
7,79999,73,70000,67,20000,49,9999,0.100000,0,0,0.000000,6,1.000000,0.000000,8.847223,0,0,0,0,0,0,0
7,79999,74,70000,67,20000,40,9999,0.100000,0,0,0.000000,6,0.000000,0.000000,0.460624,0,0,0,0,0,0,0
7,79999,75,70000,1,10000,40,9999,0.100000,0,0,0.000000,6,0.000000,0.000000,0.166531,0,0,0,0,0,0,0
7,79999,76,70000,34,0,40,9999,0.100000,0,0,0.000000,6,0.000000,0.000000,0.286604,0,0,0,0,0,0,0
7,79999,77,70000,67,20000,49,9999,0.100000,0,0,0.000000,6,1.000000,0.000000,4.824726,0,0,0,0,0,0,0
7,79999,78,70000,1,10000,49,9999,0.100000,0,0,0.000000,6,1.000000,0.000000,7.252943,0,0,0,0,0,0,0
7,79999,79,70000,34,0,40,9999,0.100000,0,0,0.000000,6,0.000000,0.000000,0.839097,0,0,0,0,0,0,0
7,79999,80,70000,91,10000,40,9999,0.100000,0,0,0.000000,6,0.000000,0.000000,0.128587,0,0,0,0,0,0,0
7,79999,81,70000,91,10000,40,9999,0.100000,0,0,0.000000,6,0.000000,0.000000,4.024202,0,0,0,0,0,0,0
7,79999,82,70000,14,10000,49,9999,0.100000,0,0,0.000000,6,10.000000,0.000000,16.197033,0,0,0,0,0,0,0
7,79999,83,70000,14,10000,49,9999,0.100000,0,0,0.000000,6,2.000000,0.000000,2.470807,0,0,0,0,0,0,0
7,79999,84,70000,0,0,40,9999,0.100000,0,0,0.000000,6,0.000000,0.000000,1.004130,0,0,0,0,0,0,0
7,79999,85,70000,34,0,40,9999,0.100000,0,0,0.000000,6,0.000000,0.000000,0.877869,0,0,0,0,0,0,0
7,79999,86,70000,67,20000,40,9999,0.100000,0,0,0.000000,6,0.000000,0.000000,0.255664,0,0,0,0,0,0,0
7,79999,87,70000,0,0,40,9999,0.100000,0,0,0.000000,6,0.000000,0.000000,0.558720,0,0,0,0,0,0,0
7,79999,88,70000,14,10000,49,9999,0.100000,0,0,0.000000,6,4.000000,0.000000,11.925087,0,0,0,0,0,0,0
7,79999,89,70000,91,10000,40,9999,0.100000,0,0,0.000000,6,0.000000,0.000000,0.709089,0,0,0,0,0,0,0
7,79999,90,70000,14,10000,40,9999,0.100000,0,0,0.000000,6,0.000000,0.000000,0.723059,0,0,0,0,0,0,0
7,79999,91,70000,91,10000,40,9999,0.100000,0,0,0.000000,6,0.000000,0.000000,0.350271,0,0,0,0,0,0,0
7,79999,92,70000,34,0,40,9999,0.100000,0,0,0.000000,6,0.000000,0.000000,2.306446,0,0,0,0,0,0,0
7,79999,93,70000,1,10000,40,9999,0.100000,0,0,0.000000,6,0.000000,0.000000,1.249349,0,0,0,0,0,0,0
7,79999,94,70000,67,20000,40,9999,0.100000,0,0,0.000000,6,0.000000,0.000000,0.931101,0,0,0,0,0,0,0
7,79999,95,70000,67,20000,40,9999,0.100000,0,0,0.000000,6,0.000000,0.000000,0.255880,0,0,0,0,0,0,0
7,79999,96,70000,34,0,49,9999,0.100000,0,0,0.000000,6,1.000000,0.000000,4.598787,0,0,0,0,0,0,0
7,79999,97,70000,14,10000,49,9999,0.100000,0,0,0.000000,6,4.000000,0.000000,11.318821,0,0,0,0,0,0,0
7,79999,98,70000,34,0,49,9999,0.100000,0,0,0.000000,6,2.000000,0.000000,4.301870,0,0,0,0,0,0,0
7,79999,99,70000,0,0,49,9999,0.100000,0,0,0.000000,6,4.000000,0.000000,13.434931,0,0,0,0,0,0,0
8,89999,0,80000,91,10000,40,9999,0.100000,0,0,0.000000,6,0.000000,0.000000,1.826759,0,0,0,0,0,0,0
8,89999,1,80000,0,0,40,9999,0.100000,0,0,0.000000,6,0.000000,0.000000,0.624141,0,0,0,0,0,0,0
8,89999,2,80000,91,10000,40,9999,0.100000,0,0,0.000000,6,0.000000,0.000000,1.136576,0,0,0,0,0,0,0
8,89999,3,80000,14,10000,40,9999,0.100000,0,0,0.000000,6,0.000000,0.000000,0.291210,0,0,0,0,0,0,0
8,89999,4,80000,1,10000,40,9999,0.100000,0,0,0.000000,6,0.000000,0.000000,0.213210,0,0,0,0,0,0,0
8,89999,5,80000,1,10000,49,9999,0.100000,0,0,0.000000,6,1.000000,0.000000,13.297656,0,0,0,0,0,0,0
8,89999,6,80000,1,10000,40,9999,0.100000,0,0,0.000000,6,0.000000,0.000000,0.988290,0,0,0,0,0,0,0
8,89999,7,80000,67,20000,49,9999,0.135000,0,0,0.000000,6,2.000000,0.000000,4.983497,0,0,0,0,0,0,0
8,89999,8,80000,1,10000,40,9999,0.100000,0,0,0.000000,6,0.000000,0.000000,0.450867,0,0,0,0,0,0,0
8,89999,9,80000,91,10000,40,9999,0.100000,0,0,0.000000,6,0.000000,0.000000,1.166790,0,0,0,0,0,0,0
8,89999,10,80000,14,10000,40,9999,0.100000,0,0,0.000000,6,0.000000,0.000000,0.459697,0,0,0,0,0,0,0
8,89999,11,80000,14,10000,40,9999,0.100000,0,0,0.000000,6,0.000000,0.000000,0.979118,0,0,0,0,0,0,0
8,89999,12,80000,0,0,40,9999,0.100000,0,0,0.000000,6,0.000000,0.000000,0.862753,0,0,0,0,0,0,0
8,89999,13,80000,14,10000,40,9999,0.100000,0,0,0.000000,6,0.000000,0.000000,0.832556,0,0,0,0,0,0,0
8,89999,14,80000,0,0,40,9999,0.100000,0,0,0.000000,6,0.000000,0.000000,0.996775,0,0,0,0,0,0,0
8,89999,15,80000,34,0,49,9999,0.100000,0,0,0.000000,6,1.000000,0.000000,9.972625,0,0,0,0,0,0,0
8,89999,16,80000,0,0,40,9999,0.100000,0,0,0.000000,6,0.000000,0.000000,0.245605,0,0,0,0,0,0,0
8,89999,17,80000,0,0,40,9999,0.100000,0,0,0.000000,6,0.000000,0.000000,1.864076,0,0,0,0,0,0,0
8,89999,18,80000,14,10000,40,9999,0.100000,0,0,0.000000,6,0.000000,0.000000,0.475316,0,0,0,0,0,0,0
8,89999,19,80000,1,10000,49,9999,0.100000,0,0,0.000000,6,2.000000,0.000000,7.941295,0,0,0,0,0,0,0
8,89999,20,80000,1,10000,40,9999,0.100000,0,0,0.000000,6,0.000000,0.000000,1.832747,0,0,0,0,0,0,0
8,89999,21,80000,0,0,40,9999,0.100000,0,0,0.000000,6,0.000000,0.000000,0.179404,0,0,0,0,0,0,0
8,89999,22,80000,34,0,40,9999,0.100000,0,0,0.000000,6,0.000000,0.000000,0.195801,0,0,0,0,0,0,0
8,89999,23,80000,1,10000,40,9999,0.100000,0,0,0.000000,6,0.000000,0.000000,0.069499,0,0,0,0,0,0,0
8,89999,24,80000,67,20000,40,9999,0.100000,0,0,0.000000,6,0.000000,0.000000,1.666804,0,0,0,0,0,0,0
8,89999,25,80000,0,0,40,9999,0.100000,0,0,0.000000,6,0.000000,0.000000,12.228652,0,0,0,0,0,0,0
8,89999,26,80000,14,10000,40,9999,0.100000,0,0,0.000000,6,0.000000,0.000000,0.253627,0,0,0,0,0,0,0
8,89999,27,80000,14,10000,40,9999,0.100000,0,0,0.000000,6,0.000000,0.000000,1.159671,0,0,0,0,0,0,0
8,89999,28,80000,1,10000,40,9999,0.100000,0,0,0.000000,6,0.000000,0.000000,1.249332,0,0,0,0,0,0,0
8,89999,29,80000,0,0,40,9999,0.100000,0,0,0.000000,6,0.000000,0.000000,0.731993,0,0,0,0,0,0,0
8,89999,30,80000,0,0,49,9999,0.100000,0,0,0.000000,6,5.000000,0.000000,14.750412,0,0,0,0,0,0,0
8,89999,31,80000,1,10000,40,9999,0.100000,0,0,0.000000,6,0.000000,0.000000,0.843334,0,0,0,0,0,0,0
8,89999,32,80000,67,20000,40,9999,0.100000,0,0,0.000000,6,0.000000,0.000000,0.405271,0,0,0,0,0,0,0
8,89999,33,80000,0,0,40,9999,0.100000,0,0,0.000000,6,0.000000,0.000000,1.016189,0,0,0,0,0,0,0
8,89999,34,80000,91,10000,49,9999,0.100000,0,0,0.000000,6,1.000000,0.000000,12.269932,0,0,0,0,0,0,0
8,89999,35,80000,34,0,40,9999,0.100000,0,0,0.000000,6,0.000000,0.000000,0.090935,0,0,0,0,0,0,0
8,89999,36,80000,34,0,40,9999,0.100000,0,0,0.000000,6,0.000000,0.000000,0.165815,0,0,0,0,0,0,0
8,89999,37,80000,67,20000,40,9999,0.100000,0,0,0.000000,6,0.000000,0.000000,1.358711,0,0,0,0,0,0,0
8,89999,38,80000,91,10000,40,9999,0.100000,0,0,0.000000,6,0.000000,0.000000,0.150770,0,0,0,0,0,0,0
8,89999,39,80000,34,0,40,9999,0.100000,0,0,0.000000,6,0.000000,0.000000,0.160167,0,0,0,0,0,0,0
8,89999,40,80000,67,20000,40,9999,0.100000,0,0,0.000000,6,0.000000,0.000000,0.190078,0,0,0,0,0,0,0
8,89999,41,80000,1,10000,40,9999,0.100000,0,0,0.000000,6,0.000000,0.000000,0.232841,0,0,0,0,0,0,0
8,89999,42,80000,34,0,40,9999,0.100000,0,0,0.000000,6,0.000000,0.000000,0.610762,0,0,0,0,0,0,0
8,89999,43,80000,34,0,49,9999,0.100000,0,0,0.000000,6,7.000000,0.000000,7.288201,0,0,0,0,0,0,0
8,89999,44,80000,67,20000,40,9999,0.100000,0,0,0.000000,6,0.000000,0.000000,0.151931,0,0,0,0,0,0,0
8,89999,45,80000,67,20000,40,9999,0.100000,0,0,0.000000,6,0.000000,0.000000,0.098880,0,0,0,0,0,0,0
8,89999,46,80000,14,10000,40,9999,0.100000,0,0,0.000000,6,0.000000,0.000000,0.219284,0,0,0,0,0,0,0
8,89999,47,80000,67,20000,40,9999,0.100000,0,0,0.000000,6,0.000000,0.000000,0.385783,0,0,0,0,0,0,0
8,89999,48,80000,14,10000,40,9999,0.100000,0,0,0.000000,6,0.000000,0.000000,1.427935,0,0,0,0,0,0,0
8,89999,49,80000,91,10000,40,9999,0.100000,0,0,0.000000,6,0.000000,0.000000,0.230827,0,0,0,0,0,0,0
8,89999,50,80000,91,10000,40,9999,0.100000,0,0,0.000000,6,0.000000,0.000000,23.998605,0,0,0,0,0,0,0
8,89999,51,80000,14,10000,40,9999,0.100000,0,0,0.000000,6,0.000000,0.000000,1.903106,0,0,0,0,0,0,0
8,89999,52,80000,14,10000,49,9999,0.100000,0,0,0.000000,6,2.000000,0.000000,12.330903,0,0,0,0,0,0,0
8,89999,53,80000,0,0,40,9999,0.100000,0,0,0.000000,6,0.000000,0.000000,23.596668,0,0,0,0,0,0,0
8,89999,54,80000,91,10000,40,9999,0.100000,0,0,0.000000,6,0.000000,0.000000,0.260472,0,0,0,0,0,0,0
8,89999,55,80000,67,20000,40,9999,0.100000,0,0,0.000000,6,0.000000,0.000000,0.140052,0,0,0,0,0,0,0
8,89999,56,80000,91,10000,40,9999,0.100000,0,0,0.000000,6,0.000000,0.000000,0.282364,0,0,0,0,0,0,0
8,89999,57,80000,0,0,40,9999,0.100000,0,0,0.000000,6,0.000000,0.000000,1.527460,0,0,0,0,0,0,0
8,89999,58,80000,91,10000,40,9999,0.100000,0,0,0.000000,6,0.000000,0.000000,0.187148,0,0,0,0,0,0,0
8,89999,59,80000,14,10000,40,9999,0.100000,0,0,0.000000,6,0.000000,0.000000,0.859264,0,0,0,0,0,0,0
8,89999,60,80000,34,0,40,9999,0.100000,0,0,0.000000,6,0.000000,0.000000,14.245015,0,0,0,0,0,0,0
8,89999,61,80000,14,10000,40,9999,0.100000,0,0,0.000000,6,0.000000,0.000000,0.401752,0,0,0,0,0,0,0
8,89999,62,80000,0,0,40,9999,0.100000,0,0,0.000000,6,0.000000,0.000000,0.125925,0,0,0,0,0,0,0
8,89999,63,80000,14,10000,49,9999,0.100000,0,0,0.000000,6,7.000000,0.000000,7.269330,0,0,0,0,0,0,0
8,89999,64,80000,91,10000,40,9999,0.100000,0,0,0.000000,6,0.000000,0.000000,0.923850,0,0,0,0,0,0,0
8,89999,65,80000,1,10000,40,9999,0.100000,0,0,0.000000,6,0.000000,0.000000,0.584148,0,0,0,0,0,0,0
8,89999,66,80000,34,0,40,9999,0.100000,0,0,0.000000,6,0.000000,0.000000,0.427953,0,0,0,0,0,0,0
8,89999,67,80000,91,10000,40,9999,0.100000,0,0,0.000000,6,0.000000,0.000000,0.183853,0,0,0,0,0,0,0
8,89999,68,80000,34,0,49,9999,0.100000,0,0,0.000000,6,2.000000,0.000000,5.023079,0,0,0,0,0,0,0
8,89999,69,80000,67,20000,40,9999,0.100000,0,0,0.000000,6,0.000000,0.000000,0.172783,0,0,0,0,0,0,0
8,89999,70,80000,34,0,49,9999,0.100000,0,0,0.000000,6,2.000000,0.000000,8.397637,0,0,0,0,0,0,0
8,89999,71,80000,0,0,40,9999,0.100000,0,0,0.000000,6,0.000000,0.000000,0.603703,0,0,0,0,0,0,0
8,89999,72,80000,0,0,40,9999,0.100000,0,0,0.000000,6,0.000000,0.000000,0.176261,0,0,0,0,0,0,0
8,89999,73,80000,34,0,49,9999,0.100000,0,0,0.000000,6,2.000000,0.000000,5.423684,0,0,0,0,0,0,0
8,89999,74,80000,1,10000,40,9999,0.100000,0,0,0.000000,6,0.000000,0.000000,0.396691,0,0,0,0,0,0,0
8,89999,75,80000,91,10000,40,9999,0.100000,0,0,0.000000,6,0.000000,0.000000,0.161035,0,0,0,0,0,0,0
8,89999,76,80000,14,10000,40,9999,0.100000,0,0,0.000000,6,0.000000,0.000000,0.909167,0,0,0,0,0,0,0
8,89999,77,80000,91,10000,49,9999,0.100000,0,0,0.000000,6,2.000000,0.000000,4.807308,0,0,0,0,0,0,0
8,89999,78,80000,14,10000,49,9999,0.100000,0,0,0.000000,6,2.000000,0.000000,10.679625,0,0,0,0,0,0,0
8,89999,79,80000,1,10000,40,9999,0.100000,0,0,0.000000,6,0.000000,0.000000,0.812691,0,0,0,0,0,0,0
8,89999,80,80000,0,0,40,9999,0.100000,0,0,0.000000,6,0.000000,0.000000,0.104838,0,0,0,0,0,0,0
8,89999,81,80000,14,10000,40,9999,0.100000,0,0,0.000000,6,0.000000,0.000000,3.288075,0,0,0,0,0,0,0
8,89999,82,80000,34,0,49,9999,0.100000,0,0,0.000000,6,4.000000,0.000000,9.655758,0,0,0,0,0,0,0
8,89999,83,80000,1,10000,49,9999,0.100000,0,0,0.000000,6,7.000000,0.000000,7.306052,0,0,0,0,0,0,0
8,89999,84,80000,1,10000,40,9999,0.100000,0,0,0.000000,6,0.000000,0.000000,0.097786,0,0,0,0,0,0,0
8,89999,85,80000,67,20000,40,9999,0.100000,0,0,0.000000,6,0.000000,0.000000,0.498017,0,0,0,0,0,0,0
8,89999,86,80000,67,20000,40,9999,0.100000,0,0,0.000000,6,0.000000,0.000000,0.240269,0,0,0,0,0,0,0
8,89999,87,80000,91,10000,40,9999,0.100000,0,0,0.000000,6,0.000000,0.000000,0.481512,0,0,0,0,0,0,0
8,89999,88,80000,0,0,49,9999,0.100000,0,0,0.000000,6,1.000000,0.000000,11.300362,0,0,0,0,0,0,0
8,89999,89,80000,1,10000,40,9999,0.100000,0,0,0.000000,6,0.000000,0.000000,1.143134,0,0,0,0,0,0,0
8,89999,90,80000,91,10000,40,9999,0.100000,0,0,0.000000,6,0.000000,0.000000,0.913349,0,0,0,0,0,0,0
8,89999,91,80000,34,0,40,9999,0.100000,0,0,0.000000,6,0.000000,0.000000,0.368004,0,0,0,0,0,0,0
8,89999,92,80000,67,20000,40,9999,0.100000,0,0,0.000000,6,0.000000,0.000000,1.448841,0,0,0,0,0,0,0
8,89999,93,80000,91,10000,40,9999,0.100000,0,0,0.000000,6,0.000000,0.000000,1.118829,0,0,0,0,0,0,0
8,89999,94,80000,91,10000,40,9999,0.100000,0,0,0.000000,6,0.000000,0.000000,3.452517,0,0,0,0,0,0,0
8,89999,95,80000,0,0,40,9999,0.100000,0,0,0.000000,6,0.000000,0.000000,0.758385,0,0,0,0,0,0,0
8,89999,96,80000,34,0,40,9999,0.100000,0,0,0.000000,6,0.000000,0.000000,1.162101,0,0,0,0,0,0,0
8,89999,97,80000,14,10000,49,9999,0.100000,0,0,0.000000,6,2.000000,0.000000,11.402476,0,0,0,0,0,0,0
8,89999,98,80000,67,20000,40,9999,0.100000,0,0,0.000000,6,0.000000,0.000000,0.083816,0,0,0,0,0,0,0
8,89999,99,80000,91,10000,49,9999,0.100000,0,0,0.000000,6,2.000000,0.000000,6.303093,0,0,0,0,0,0,0
9,99999,0,90000,67,20000,40,9999,0.100000,0,0,0.000000,6,0.000000,0.000000,1.375351,0,0,0,0,0,0,0
9,99999,1,90000,14,10000,40,9999,0.100000,0,0,0.000000,6,0.000000,0.000000,0.675098,0,0,0,0,0,0,0
9,99999,2,90000,14,10000,40,9999,0.100000,0,0,0.000000,6,0.000000,0.000000,1.022447,0,0,0,0,0,0,0
9,99999,3,90000,91,10000,40,9999,0.100000,0,0,0.000000,6,0.000000,0.000000,2.328872,0,0,0,0,0,0,0
9,99999,4,90000,91,10000,40,9999,0.100000,0,0,0.000000,6,0.000000,0.000000,0.215105,0,0,0,0,0,0,0
9,99999,5,90000,1,10000,49,9999,0.100000,0,0,0.000000,6,1.000000,0.000000,8.543472,0,0,0,0,0,0,0
9,99999,6,90000,67,20000,40,9999,0.100000,0,0,0.000000,6,0.000000,0.000000,1.004712,0,0,0,0,0,0,0
9,99999,7,90000,34,0,40,9999,0.100000,0,0,0.000000,6,0.000000,0.000000,0.334986,0,0,0,0,0,0,0
9,99999,8,90000,67,20000,40,9999,0.100000,0,0,0.000000,6,0.000000,0.000000,0.489246,0,0,0,0,0,0,0
9,99999,9,90000,67,20000,40,9999,0.100000,0,0,0.000000,6,0.000000,0.000000,0.304814,0,0,0,0,0,0,0
9,99999,10,90000,67,20000,49,9999,0.100000,0,0,0.000000,6,1.000000,0.000000,1.508717,0,0,0,0,0,0,0
9,99999,11,90000,91,10000,40,9999,0.100000,0,0,0.000000,6,0.000000,0.000000,0.957313,0,0,0,0,0,0,0
9,99999,12,90000,0,0,40,9999,0.100000,0,0,0.000000,6,0.000000,0.000000,0.765322,0,0,0,0,0,0,0
9,99999,13,90000,34,0,49,9999,0.100000,0,0,0.000000,6,1.000000,0.000000,3.499197,0,0,0,0,0,0,0
9,99999,14,90000,67,20000,40,9999,0.100000,0,0,0.000000,6,0.000000,0.000000,1.389379,0,0,0,0,0,0,0
9,99999,15,90000,67,20000,40,9999,0.100000,0,0,0.000000,6,0.000000,0.000000,8.503518,0,0,0,0,0,0,0
9,99999,16,90000,91,10000,40,9999,0.100000,0,0,0.000000,6,0.000000,0.000000,0.232794,0,0,0,0,0,0,0
9,99999,17,90000,34,0,40,9999,0.100000,0,0,0.000000,6,0.000000,0.000000,0.942504,0,0,0,0,0,0,0
9,99999,18,90000,67,20000,40,9999,0.100000,0,0,0.000000,6,0.000000,0.000000,0.414162,0,0,0,0,0,0,0
9,99999,19,90000,1,10000,40,9999,0.100000,0,0,0.000000,6,0.000000,0.000000,6.061220,0,0,0,0,0,0,0
9,99999,20,90000,14,10000,49,9999,0.100000,0,0,0.000000,6,1.000000,0.000000,2.452104,0,0,0,0,0,0,0
9,99999,21,90000,91,10000,40,9999,0.100000,0,0,0.000000,6,0.000000,0.000000,0.441272,0,0,0,0,0,0,0
9,99999,22,90000,1,10000,40,9999,0.100000,0,0,0.000000,6,0.000000,0.000000,0.201419,0,0,0,0,0,0,0
9,99999,23,90000,0,0,40,9999,0.100000,0,0,0.000000,6,0.000000,0.000000,0.070261,0,0,0,0,0,0,0
9,99999,24,90000,91,10000,49,9999,0.100000,0,0,0.000000,6,3.000000,0.000000,7.128849,0,0,0,0,0,0,0
9,99999,25,90000,14,10000,49,9999,0.100000,0,0,0.000000,6,8.000000,0.000000,13.852705,0,0,0,0,0,0,0
9,99999,26,90000,14,10000,40,9999,0.100000,0,0,0.000000,6,0.000000,0.000000,0.330418,0,0,0,0,0,0,0
9,99999,27,90000,67,20000,40,9999,0.100000,0,0,0.000000,6,0.000000,0.000000,0.797330,0,0,0,0,0,0,0
9,99999,28,80000,1,10000,40,19999,0.100000,0,0,0.000000,6,0.000000,0.000000,0.666408,0,0,0,0,0,0,0
9,99999,29,90000,0,0,40,9999,0.100000,0,0,0.000000,6,0.000000,0.000000,0.718874,0,0,0,0,0,0,0
9,99999,30,90000,1,10000,49,9999,0.100000,0,0,0.000000,6,1.000000,0.000000,13.162352,0,0,0,0,0,0,0
9,99999,31,90000,0,0,40,9999,0.100000,0,0,0.000000,6,0.000000,0.000000,1.809832,0,0,0,0,0,0,0
9,99999,32,90000,1,10000,40,9999,0.100000,0,0,0.000000,6,0.000000,0.000000,0.339885,0,0,0,0,0,0,0
9,99999,33,90000,14,10000,40,9999,0.100000,0,0,0.000000,6,0.000000,0.000000,0.480427,0,0,0,0,0,0,0
9,99999,34,90000,1,10000,49,9999,0.100000,0,0,0.000000,6,3.000000,0.000000,6.773640,0,0,0,0,0,0,0
9,99999,35,90000,67,20000,40,9999,0.100000,0,0,0.000000,6,0.000000,0.000000,0.103404,0,0,0,0,0,0,0
9,99999,36,90000,14,10000,40,9999,0.100000,0,0,0.000000,6,0.000000,0.000000,0.168585,0,0,0,0,0,0,0
9,99999,37,90000,14,10000,40,9999,0.100000,0,0,0.000000,6,0.000000,0.000000,1.108175,0,0,0,0,0,0,0
9,99999,38,90000,1,10000,40,9999,0.100000,0,0,0.000000,6,0.000000,0.000000,0.229476,0,0,0,0,0,0,0
9,99999,39,90000,0,0,40,9999,0.100000,0,0,0.000000,6,0.000000,0.000000,0.159671,0,0,0,0,0,0,0
9,99999,40,90000,0,0,40,9999,0.100000,0,0,0.000000,6,0.000000,0.000000,0.366791,0,0,0,0,0,0,0
9,99999,41,90000,34,0,40,9999,0.100000,0,0,0.000000,6,0.000000,0.000000,0.232156,0,0,0,0,0,0,0
9,99999,42,90000,14,10000,49,9999,0.100000,0,0,0.000000,6,1.000000,0.000000,1.702755,0,0,0,0,0,0,0
9,99999,43,90000,34,0,9,9999,0.100000,0,0,0.000000,6,1.000000,0.000000,8.816395,0,0,0,0,1,0,0
9,99999,44,90000,67,20000,40,9999,0.100000,0,0,0.000000,6,0.000000,0.000000,0.123078,0,0,0,0,0,0,0
9,99999,45,90000,14,10000,40,9999,0.100000,0,0,0.000000,6,0.000000,0.000000,0.455629,0,0,0,0,0,0,0
9,99999,46,90000,34,0,40,9999,0.100000,0,0,0.000000,6,0.000000,0.000000,0.394804,0,0,0,0,0,0,0
9,99999,47,90000,14,10000,40,9999,0.100000,0,0,0.000000,6,0.000000,0.000000,0.289253,0,0,0,0,0,0,0
9,99999,48,90000,91,10000,40,9999,0.100000,0,0,0.000000,6,0.000000,0.000000,1.103873,0,0,0,0,0,0,0
9,99999,49,90000,91,10000,40,9999,0.100000,0,0,0.000000,6,0.000000,0.000000,0.210885,0,0,0,0,0,0,0
9,99999,50,90000,67,20000,40,9999,0.100000,0,0,0.000000,6,0.000000,0.000000,23.807025,0,0,0,0,0,0,0
9,99999,51,90000,91,10000,49,9999,0.100000,0,0,0.000000,6,3.000000,0.000000,4.377314,0,0,0,0,0,0,0
9,99999,52,90000,91,10000,49,9999,0.100000,0,0,0.000000,6,3.000000,0.000000,5.753182,0,0,0,0,0,0,0
9,99999,53,90000,1,10000,49,9999,0.100000,0,0,0.000000,6,2.000000,0.000000,3.552124,0,0,0,0,0,0,0
9,99999,54,90000,34,0,40,9999,0.100000,0,0,0.000000,6,0.000000,0.000000,0.519835,0,0,0,0,0,0,0
9,99999,55,90000,91,10000,40,9999,0.100000,0,0,0.000000,6,0.000000,0.000000,0.134803,0,0,0,0,0,0,0
9,99999,56,90000,91,10000,40,9999,0.100000,0,0,0.000000,6,0.000000,0.000000,0.271980,0,0,0,0,0,0,0
9,99999,57,90000,91,10000,40,9999,0.100000,0,0,0.000000,6,0.000000,0.000000,1.393013,0,0,0,0,0,0,0
9,99999,58,90000,1,10000,40,9999,0.100000,0,0,0.000000,6,0.000000,0.000000,0.475305,0,0,0,0,0,0,0
9,99999,59,90000,0,0,49,9999,0.100000,0,0,0.000000,6,1.000000,0.000000,1.808511,0,0,0,0,0,0,0
9,99999,60,90000,1,10000,49,9999,0.100000,0,0,0.000000,6,2.000000,0.000000,8.123518,0,0,0,0,0,0,0
9,99999,61,90000,1,10000,40,9999,0.100000,0,0,0.000000,6,0.000000,0.000000,0.441235,0,0,0,0,0,0,0
9,99999,62,90000,0,0,40,9999,0.100000,0,0,0.000000,6,0.000000,0.000000,0.126463,0,0,0,0,0,0,0
9,99999,63,90000,67,20000,9,9999,0.100000,0,0,0.000000,6,4.000000,0.000000,11.499742,0,0,0,0,1,0,0
9,99999,64,90000,67,20000,40,9999,0.100000,0,0,0.000000,6,0.000000,0.000000,0.957759,0,0,0,0,0,0,0
9,99999,65,90000,14,10000,40,9999,0.100000,0,0,0.000000,6,0.000000,0.000000,0.831723,0,0,0,0,0,0,0
9,99999,66,90000,91,10000,40,9999,0.100000,0,0,0.000000,6,0.000000,0.000000,0.857014,0,0,0,0,0,0,0
9,99999,67,90000,91,10000,40,9999,0.100000,0,0,0.000000,6,0.000000,0.000000,0.191702,0,0,0,0,0,0,0
9,99999,68,90000,34,0,40,9999,0.100000,0,0,0.000000,6,0.000000,0.000000,0.009568,0,0,0,0,0,0,0
9,99999,69,90000,14,10000,40,9999,0.100000,0,0,0.000000,6,0.000000,0.000000,0.174014,0,0,0,0,0,0,0
9,99999,70,90000,1,10000,49,9999,0.100000,0,0,0.000000,6,1.000000,0.000000,11.697075,0,0,0,0,0,0,0
9,99999,71,90000,0,0,40,9999,0.100000,0,0,0.000000,6,0.000000,0.000000,0.376836,0,0,0,0,0,0,0
9,99999,72,90000,34,0,40,9999,0.100000,0,0,0.000000,6,0.000000,0.000000,0.337885,0,0,0,0,0,0,0
9,99999,73,90000,91,10000,49,9999,0.100000,0,0,0.000000,6,4.000000,0.000000,7.681258,0,0,0,0,0,0,0
9,99999,74,90000,1,10000,40,9999,0.100000,0,0,0.000000,6,0.000000,0.000000,0.345260,0,0,0,0,0,0,0
9,99999,75,90000,14,10000,40,9999,0.100000,0,0,0.000000,6,0.000000,0.000000,0.170008,0,0,0,0,0,0,0
9,99999,76,90000,0,0,40,9999,0.100000,0,0,0.000000,6,0.000000,0.000000,0.464677,0,0,0,0,0,0,0
9,99999,77,90000,1,10000,40,9999,0.100000,0,0,0.000000,6,0.000000,0.000000,0.236748,0,0,0,0,0,0,0
9,99999,78,90000,34,0,49,9999,0.100000,0,0,0.000000,6,1.000000,0.000000,7.472504,0,0,0,0,0,0,0
9,99999,79,90000,14,10000,40,9999,0.100000,0,0,0.000000,6,0.000000,0.000000,0.768038,0,0,0,0,0,0,0
9,99999,80,90000,0,0,40,9999,0.100000,0,0,0.000000,6,0.000000,0.000000,0.130073,0,0,0,0,0,0,0
9,99999,81,90000,1,10000,49,9999,0.100000,0,0,0.000000,6,1.000000,0.000000,9.369791,0,0,0,0,0,0,0
9,99999,82,90000,34,0,49,9999,0.100000,0,0,0.000000,6,2.000000,0.000000,7.200721,0,0,0,0,0,0,0
9,99999,83,90000,91,10000,9,9999,0.100000,0,0,0.000000,6,2.000000,0.000000,9.134833,0,0,0,0,1,0,0
9,99999,84,80000,1,10000,40,19999,0.100000,0,0,0.000000,6,0.000000,0.000000,0.099914,0,0,0,0,0,0,0
9,99999,85,90000,34,0,49,9999,0.100000,0,0,0.000000,6,1.000000,0.000000,1.478640,0,0,0,0,0,0,0
9,99999,86,90000,0,0,40,9999,0.100000,0,0,0.000000,6,0.000000,0.000000,0.219113,0,0,0,0,0,0,0
9,99999,87,90000,14,10000,40,9999,0.100000,0,0,0.000000,6,0.000000,0.000000,0.410634,0,0,0,0,0,0,0
9,99999,88,90000,0,0,49,9999,0.135000,0,0,0.000000,6,1.000000,0.000000,6.469286,0,0,0,0,0,0,0
9,99999,89,90000,91,10000,40,9999,0.100000,0,0,0.000000,6,0.000000,0.000000,1.339246,0,0,0,0,0,0,0
9,99999,90,90000,67,20000,40,9999,0.100000,0,0,0.000000,6,0.000000,0.000000,0.695328,0,0,0,0,0,0,0
9,99999,91,90000,91,10000,40,9999,0.100000,0,0,0.000000,6,0.000000,0.000000,0.375010,0,0,0,0,0,0,0
9,99999,92,90000,91,10000,40,9999,0.100000,0,0,0.000000,6,0.000000,0.000000,0.932106,0,0,0,0,0,0,0
9,99999,93,90000,91,10000,40,9999,0.100000,0,0,0.000000,6,0.000000,0.000000,1.123344,0,0,0,0,0,0,0
9,99999,94,90000,14,10000,40,9999,0.100000,0,0,0.000000,6,0.000000,0.000000,0.808935,0,0,0,0,0,0,0
9,99999,95,90000,1,10000,40,9999,0.100000,0,0,0.000000,6,0.000000,0.000000,0.462198,0,0,0,0,0,0,0
9,99999,96,90000,0,0,40,9999,0.100000,0,0,0.000000,6,0.000000,0.000000,1.109685,0,0,0,0,0,0,0
9,99999,97,90000,14,10000,40,9999,0.100000,0,0,0.000000,6,0.000000,0.000000,1.404964,0,0,0,0,0,0,0
9,99999,98,90000,14,10000,40,9999,0.100000,0,0,0.000000,6,0.000000,0.000000,0.094129,0,0,0,0,0,0,0
9,99999,99,90000,0,0,49,9999,0.100000,0,0,0.000000,6,1.000000,0.000000,2.679193,0,0,0,0,0,0,0
10,109999,0,100000,1,10000,9,9999,0.100000,0,0,0.000000,6,4.000000,0.000000,8.565293,0,0,0,0,1,0,0
10,109999,1,100000,14,10000,40,9999,0.100000,0,0,0.000000,6,0.000000,0.000000,1.099497,0,0,0,0,0,0,0
10,109999,2,100000,91,10000,40,9999,0.100000,0,0,0.000000,6,0.000000,0.000000,0.693773,0,0,0,0,0,0,0
10,109999,3,100000,0,0,40,9999,0.100000,0,0,0.000000,6,0.000000,0.000000,3.362103,0,0,0,0,0,0,0
10,109999,4,100000,91,10000,40,9999,0.100000,0,0,0.000000,6,0.000000,0.000000,0.074616,0,0,0,0,0,0,0
10,109999,5,100000,67,20000,40,9999,0.100000,0,0,0.000000,6,0.000000,0.000000,7.643976,0,0,0,0,0,0,0
10,109999,6,100000,34,0,40,9999,0.100000,0,0,0.000000,6,0.000000,0.000000,0.763181,0,0,0,0,0,0,0
10,109999,7,100000,34,0,40,9999,0.100000,0,0,0.000000,6,0.000000,0.000000,0.349884,0,0,0,0,0,0,0
10,109999,8,100000,14,10000,40,9999,0.100000,0,0,0.000000,6,0.000000,0.000000,1.816243,0,0,0,0,0,0,0
10,109999,9,100000,14,10000,40,9999,0.100000,0,0,0.000000,6,0.000000,0.000000,0.278774,0,0,0,0,0,0,0
10,109999,10,100000,34,0,40,9999,0.100000,0,0,0.000000,6,0.000000,0.000000,0.639163,0,0,0,0,0,0,0
10,109999,11,100000,1,10000,40,9999,0.100000,0,0,0.000000,6,0.000000,0.000000,0.949822,0,0,0,0,0,0,0
10,109999,12,100000,14,10000,40,9999,0.100000,0,0,0.000000,6,0.000000,0.000000,0.820738,0,0,0,0,0,0,0
10,109999,13,100000,67,20000,40,9999,0.100000,0,0,0.000000,6,0.000000,0.000000,0.957664,0,0,0,0,0,0,0
10,109999,14,100000,14,10000,49,9999,0.100000,0,0,0.000000,6,1.000000,0.000000,3.242936,0,0,0,0,0,0,0
10,109999,15,100000,1,10000,49,9999,0.100000,0,0,0.000000,6,2.000000,0.000000,7.884860,0,0,0,0,0,0,0
10,109999,16,100000,34,0,40,9999,0.100000,0,0,0.000000,6,0.000000,0.000000,0.242768,0,0,0,0,0,0,0
10,109999,17,100000,34,0,40,9999,0.100000,0,0,0.000000,6,0.000000,0.000000,1.994036,0,0,0,0,0,0,0
10,109999,18,100000,34,0,40,9999,0.100000,0,0,0.000000,6,0.000000,0.000000,0.397230,0,0,0,0,0,0,0
10,109999,19,100000,34,0,49,9999,0.100000,0,0,0.000000,6,3.000000,0.000000,6.599310,0,0,0,0,0,0,0
10,109999,20,100000,14,10000,49,9999,0.100000,0,0,0.000000,6,2.000000,0.000000,5.744502,0,0,0,0,0,0,0
10,109999,21,100000,0,0,40,9999,0.100000,0,0,0.000000,6,0.000000,0.000000,0.796259,0,0,0,0,0,0,0
10,109999,22,100000,1,10000,49,9999,0.100000,0,0,0.000000,6,1.000000,0.000000,3.580263,0,0,0,0,0,0,0
10,109999,23,100000,0,0,40,9999,0.100000,0,0,0.000000,6,0.000000,0.000000,0.070846,0,0,0,0,0,0,0
10,109999,24,100000,67,20000,40,9999,0.100000,0,0,0.000000,6,0.000000,0.000000,19.977044,0,0,0,0,0,0,0
10,109999,25,100000,1,10000,40,9999,0.100000,0,0,0.000000,6,0.000000,0.000000,1.970289,0,0,0,0,0,0,0
10,109999,26,100000,14,10000,40,9999,0.100000,0,0,0.000000,6,0.000000,0.000000,0.117006,0,0,0,0,0,0,0
10,109999,27,100000,0,0,40,9999,0.100000,0,0,0.000000,6,0.000000,0.000000,5.112928,0,0,0,0,0,0,0
10,109999,28,100000,0,0,49,9999,0.100000,0,0,0.000000,6,1.000000,0.000000,8.696635,0,0,0,0,0,0,0
10,109999,29,100000,14,10000,40,9999,0.100000,0,0,0.000000,6,0.000000,0.000000,0.740487,0,0,0,0,0,0,0
10,109999,30,100000,34,0,40,9999,0.100000,0,0,0.000000,6,0.000000,0.000000,1.587530,0,0,0,0,0,0,0
10,109999,31,100000,1,10000,40,9999,0.100000,0,0,0.000000,6,0.000000,0.000000,0.117891,0,0,0,0,0,0,0
10,109999,32,100000,67,20000,40,9999,0.100000,0,0,0.000000,6,0.000000,0.000000,0.364525,0,0,0,0,0,0,0
10,109999,33,100000,34,0,49,9999,0.100000,0,0,0.000000,6,2.000000,0.000000,5.322722,0,0,0,0,0,0,0
10,109999,34,100000,0,0,49,9999,0.100000,0,0,0.000000,6,3.000000,0.000000,18.890849,0,0,0,0,0,0,0
10,109999,35,100000,91,10000,40,9999,0.100000,0,0,0.000000,6,0.000000,0.000000,0.758972,0,0,0,0,0,0,0
10,109999,36,100000,14,10000,40,9999,0.100000,0,0,0.000000,6,0.000000,0.000000,0.148803,0,0,0,0,0,0,0
10,109999,37,100000,1,10000,40,9999,0.100000,0,0,0.000000,6,0.000000,0.000000,1.950511,0,0,0,0,0,0,0
10,109999,38,100000,1,10000,40,9999,0.100000,0,0,0.000000,6,0.000000,0.000000,0.462628,0,0,0,0,0,0,0
10,109999,39,100000,34,0,40,9999,0.100000,0,0,0.000000,6,0.000000,0.000000,0.158621,0,0,0,0,0,0,0
10,109999,40,100000,14,10000,40,9999,0.100000,0,0,0.000000,6,0.000000,0.000000,0.521558,0,0,0,0,0,0,0
10,109999,41,100000,0,0,40,9999,0.100000,0,0,0.000000,6,0.000000,0.000000,0.254016,0,0,0,0,0,0,0
10,109999,42,100000,67,20000,49,9999,0.100000,0,0,0.000000,6,5.000000,0.000000,10.571507,0,0,0,0,0,0,0
10,109999,43,100000,67,20000,49,9999,0.100000,0,0,0.000000,6,2.000000,0.000000,8.744815,0,0,0,0,0,0,0
10,109999,44,100000,91,10000,40,9999,0.100000,0,0,0.000000,6,0.000000,0.000000,0.550360,0,0,0,0,0,0,0
10,109999,45,100000,1,10000,40,9999,0.100000,0,0,0.000000,6,0.000000,0.000000,0.554811,0,0,0,0,0,0,0
10,109999,46,100000,67,20000,40,9999,0.100000,0,0,0.000000,6,0.000000,0.000000,0.473827,0,0,0,0,0,0,0
10,109999,47,100000,14,10000,40,9999,0.100000,0,0,0.000000,6,0.000000,0.000000,0.298806,0,0,0,0,0,0,0
10,109999,48,100000,0,0,9,9999,0.100000,0,0,0.000000,6,1.000000,0.000000,3.673282,0,0,0,0,1,0,0
10,109999,49,100000,14,10000,40,9999,0.135000,0,0,0.000000,6,0.000000,0.000000,0.141013,0,0,0,0,0,0,0
10,109999,50,100000,67,20000,40,9999,0.100000,0,0,0.000000,6,0.000000,0.000000,23.992791,0,0,0,0,0,0,0
10,109999,51,100000,67,20000,40,9999,0.100000,0,0,0.000000,6,0.000000,0.000000,0.709327,0,0,0,0,0,0,0
10,109999,52,100000,14,10000,40,9999,0.100000,0,0,0.000000,6,0.000000,0.000000,0.234184,0,0,0,0,0,0,0
10,109999,53,100000,34,0,9,9999,0.100000,0,0,0.000000,6,3.000000,0.000000,10.574840,0,0,0,0,0,0,1
10,109999,54,100000,34,0,40,9999,0.100000,0,0,0.000000,6,0.000000,0.000000,0.872507,0,0,0,0,0,0,0
10,109999,55,100000,14,10000,40,9999,0.100000,0,0,0.000000,6,0.000000,0.000000,0.137485,0,0,0,0,0,0,0
10,109999,56,100000,34,0,40,9999,0.100000,0,0,0.000000,6,0.000000,0.000000,0.331439,0,0,0,0,0,0,0
10,109999,57,100000,14,10000,40,9999,0.100000,0,0,0.000000,6,0.000000,0.000000,1.414875,0,0,0,0,0,0,0
10,109999,58,100000,67,20000,40,9999,0.100000,0,0,0.000000,6,0.000000,0.000000,0.367554,0,0,0,0,0,0,0
10,109999,59,100000,1,10000,49,9999,0.100000,0,0,0.000000,6,1.000000,0.000000,5.302395,0,0,0,0,0,0,0
10,109999,60,100000,0,0,49,9999,0.100000,0,0,0.000000,6,1.000000,0.000000,6.699887,0,0,0,0,0,0,0
10,109999,61,100000,34,0,40,9999,0.100000,0,0,0.000000,6,0.000000,0.000000,0.397893,0,0,0,0,0,0,0
10,109999,62,100000,1,10000,40,9999,0.100000,0,0,0.000000,6,0.000000,0.000000,0.127067,0,0,0,0,0,0,0
10,109999,63,100000,67,20000,40,9999,0.100000,0,0,0.000000,6,0.000000,0.000000,4.994630,0,0,0,0,0,0,0
10,109999,64,100000,1,10000,49,9999,0.100000,0,0,0.000000,6,4.000000,0.000000,6.417834,0,0,0,0,0,0,0
10,109999,65,100000,91,10000,49,9999,0.100000,0,0,0.000000,6,1.000000,0.000000,6.022253,0,0,0,0,0,0,0
10,109999,66,100000,67,20000,49,9999,0.100000,0,0,0.000000,6,1.000000,0.000000,4.327502,0,0,0,0,0,0,0
10,109999,67,100000,0,0,40,9999,0.100000,0,0,0.000000,6,0.000000,0.000000,0.224743,0,0,0,0,0,0,0
10,109999,68,100000,67,20000,40,9999,0.100000,0,0,0.000000,6,0.000000,0.000000,0.009478,0,0,0,0,0,0,0
10,109999,69,100000,34,0,40,9999,0.100000,0,0,0.000000,6,0.000000,0.000000,0.171613,0,0,0,0,0,0,0
10,109999,70,100000,91,10000,49,9999,0.100000,0,0,0.000000,6,1.000000,0.000000,11.058051,0,0,0,0,0,0,0
10,109999,71,100000,0,0,40,9999,0.100000,0,0,0.000000,6,0.000000,0.000000,0.178797,0,0,0,0,0,0,0
10,109999,72,100000,91,10000,40,9999,0.100000,0,0,0.000000,6,0.000000,0.000000,0.728285,0,0,0,0,0,0,0
10,109999,73,100000,67,20000,40,9999,0.100000,0,0,0.000000,6,0.000000,0.000000,3.211174,0,0,0,0,0,0,0
10,109999,74,100000,14,10000,40,9999,0.100000,0,0,0.000000,6,0.000000,0.000000,0.258443,0,0,0,0,0,0,0
10,109999,75,100000,34,0,40,9999,0.100000,0,0,0.000000,6,0.000000,0.000000,0.164317,0,0,0,0,0,0,0
10,109999,76,100000,34,0,9,9999,0.100000,0,0,0.000000,6,2.000000,0.000000,7.684841,0,0,0,0,1,0,0
10,109999,77,100000,14,10000,40,9999,0.100000,0,0,0.000000,6,0.000000,0.000000,0.226166,0,0,0,0,0,0,0
10,109999,78,100000,0,0,49,9999,0.100000,0,0,0.000000,6,4.000000,0.000000,13.259005,0,0,0,0,0,0,0
10,109999,79,100000,14,10000,40,9999,0.100000,0,0,0.000000,6,0.000000,0.000000,0.688859,0,0,0,0,0,0,0
10,109999,80,100000,91,10000,40,9999,0.100000,0,0,0.000000,6,0.000000,0.000000,0.695800,0,0,0,0,0,0,0
10,109999,81,100000,91,10000,49,9999,0.100000,0,0,0.000000,6,4.000000,0.000000,8.802710,0,0,0,0,0,0,0
10,109999,82,100000,0,0,49,9999,0.100000,0,0,0.000000,6,4.000000,0.000000,16.060316,0,0,0,0,0,0,0
10,109999,83,100000,14,10000,49,9999,0.100000,0,0,0.000000,6,1.000000,0.000000,8.243529,0,0,0,0,0,0,0
10,109999,84,100000,91,10000,40,9999,0.100000,0,0,0.000000,6,0.000000,0.000000,0.107229,0,0,0,0,0,0,0
10,109999,85,100000,1,10000,49,9999,0.100000,0,0,0.000000,6,1.000000,0.000000,12.488819,0,0,0,0,0,0,0
10,109999,86,100000,67,20000,40,9999,0.100000,0,0,0.000000,6,0.000000,0.000000,0.155977,0,0,0,0,0,0,0
10,109999,87,100000,34,0,40,9999,0.100000,0,0,0.000000,6,0.000000,0.000000,0.316642,0,0,0,0,0,0,0
10,109999,88,100000,91,10000,49,9999,0.100000,0,0,0.000000,6,1.000000,0.000000,5.460292,0,0,0,0,0,0,0
10,109999,89,100000,14,10000,40,9999,0.100000,0,0,0.000000,6,0.000000,0.000000,0.906391,0,0,0,0,0,0,0
10,109999,90,100000,1,10000,40,9999,0.100000,0,0,0.000000,6,0.000000,0.000000,0.607879,0,0,0,0,0,0,0
10,109999,91,100000,34,0,40,9999,0.100000,0,0,0.000000,6,0.000000,0.000000,0.410094,0,0,0,0,0,0,0
10,109999,92,100000,14,10000,40,9999,0.100000,0,0,0.000000,6,0.000000,0.000000,1.553795,0,0,0,0,0,0,0
10,109999,93,100000,0,0,40,9999,0.100000,0,0,0.000000,6,0.000000,0.000000,0.991524,0,0,0,0,0,0,0
10,109999,94,100000,1,10000,49,9999,0.100000,0,0,0.000000,6,1.000000,0.000000,2.900788,0,0,0,0,0,0,0
10,109999,95,100000,34,0,40,9999,0.100000,0,0,0.000000,6,0.000000,0.000000,0.562766,0,0,0,0,0,0,0
10,109999,96,100000,34,0,40,9999,0.100000,0,0,0.000000,6,0.000000,0.000000,1.420488,0,0,0,0,0,0,0
10,109999,97,100000,1,10000,40,9999,0.100000,0,0,0.000000,6,0.000000,0.000000,1.521512,0,0,0,0,0,0,0
10,109999,98,100000,91,10000,40,9999,0.100000,0,0,0.000000,6,0.000000,0.000000,0.234785,0,0,0,0,0,0,0
10,109999,99,100000,67,20000,40,9999,0.100000,0,0,0.000000,6,0.000000,0.000000,0.707416,0,0,0,0,0,0,0
11,119999,0,110000,91,10000,49,9999,0.100000,0,0,0.000000,6,1.000000,0.000000,11.145276,0,0,0,0,0,0,0
11,119999,1,110000,1,10000,40,9999,0.100000,0,0,0.000000,6,0.000000,0.000000,1.496799,0,0,0,0,0,0,0
11,119999,2,110000,34,0,40,9999,0.100000,0,0,0.000000,6,0.000000,0.000000,1.367128,0,0,0,0,0,0,0
11,119999,3,110000,34,0,40,9999,0.100000,0,0,0.000000,6,0.000000,0.000000,3.526148,0,0,0,0,0,0,0
11,119999,4,110000,34,0,40,9999,0.100000,0,0,0.000000,6,0.000000,0.000000,0.288989,0,0,0,0,0,0,0
11,119999,5,110000,91,10000,49,9999,0.100000,0,0,0.000000,6,1.000000,0.000000,8.831484,0,0,0,0,0,0,0
11,119999,6,110000,91,10000,40,9999,0.100000,0,0,0.000000,6,0.000000,0.000000,1.079729,0,0,0,0,0,0,0
11,119999,7,110000,1,10000,40,9999,0.100000,0,0,0.000000,6,0.000000,0.000000,0.354487,0,0,0,0,0,0,0
11,119999,8,110000,67,20000,49,9999,0.100000,0,0,0.000000,6,1.000000,0.000000,9.082935,0,0,0,0,0,0,0
11,119999,9,110000,91,10000,40,9999,0.100000,0,0,0.000000,6,0.000000,0.000000,0.276817,0,0,0,0,0,0,0
11,119999,10,110000,67,20000,40,9999,0.135000,0,0,0.000000,6,0.000000,0.000000,0.589583,0,0,0,0,0,0,0
11,119999,11,110000,1,10000,40,9999,0.100000,0,0,0.000000,6,0.000000,0.000000,0.920807,0,0,0,0,0,0,0
11,119999,12,110000,91,10000,40,9999,0.100000,0,0,0.000000,6,0.000000,0.000000,0.930129,0,0,0,0,0,0,0
11,119999,13,110000,0,0,40,9999,0.100000,0,0,0.000000,6,0.000000,0.000000,1.197353,0,0,0,0,0,0,0
11,119999,14,110000,0,0,40,9999,0.100000,0,0,0.000000,6,0.000000,0.000000,12.340924,0,0,0,0,0,0,0
11,119999,15,110000,91,10000,49,9999,0.100000,0,0,0.000000,6,1.000000,0.000000,8.593332,0,0,0,0,0,0,0
11,119999,16,110000,91,10000,40,9999,0.100000,0,0,0.000000,6,0.000000,0.000000,0.238881,0,0,0,0,0,0,0
11,119999,17,110000,14,10000,40,9999,0.100000,0,0,0.000000,6,0.000000,0.000000,0.767333,0,0,0,0,0,0,0
11,119999,18,110000,91,10000,40,9999,0.100000,0,0,0.000000,6,0.000000,0.000000,0.338142,0,0,0,0,0,0,0
11,119999,19,110000,91,10000,49,9999,0.100000,0,0,0.000000,6,1.000000,0.000000,17.306687,0,0,0,0,0,0,0
11,119999,20,110000,67,20000,40,9999,0.100000,0,0,0.000000,6,0.000000,0.000000,0.203921,0,0,0,0,0,0,0
11,119999,21,110000,0,0,40,9999,0.100000,0,0,0.000000,6,0.000000,0.000000,0.780098,0,0,0,0,0,0,0
11,119999,22,110000,34,0,49,9999,0.100000,0,0,0.000000,6,1.000000,0.000000,14.514630,0,0,0,0,0,0,0
11,119999,23,110000,67,20000,40,9999,0.100000,0,0,0.000000,6,0.000000,0.000000,0.069653,0,0,0,0,0,0,0
11,119999,24,110000,14,10000,40,9999,0.100000,0,0,0.000000,6,0.000000,0.000000,0.652210,0,0,0,0,0,0,0
11,119999,25,110000,0,0,40,9999,0.100000,0,0,0.000000,6,0.000000,0.000000,0.598375,0,0,0,0,0,0,0
11,119999,26,110000,91,10000,40,9999,0.100000,0,0,0.000000,6,0.000000,0.000000,0.119098,0,0,0,0,0,0,0
11,119999,27,110000,34,0,40,9999,0.100000,0,0,0.000000,6,0.000000,0.000000,17.016440,0,0,0,0,0,0,0
11,119999,28,110000,34,0,40,9999,0.100000,0,0,0.000000,6,0.000000,0.000000,1.375833,0,0,0,0,0,0,0
11,119999,29,110000,34,0,40,9999,0.100000,0,0,0.000000,6,0.000000,0.000000,0.822728,0,0,0,0,0,0,0
11,119999,30,110000,67,20000,40,9999,0.100000,0,0,0.000000,6,0.000000,0.000000,0.117748,0,0,0,0,0,0,0
11,119999,31,110000,1,10000,40,9999,0.100000,0,0,0.000000,6,0.000000,0.000000,0.122434,0,0,0,0,0,0,0
11,119999,32,110000,0,0,40,9999,0.100000,0,0,0.000000,6,0.000000,0.000000,0.343248,0,0,0,0,0,0,0
11,119999,33,110000,1,10000,40,9999,0.100000,0,0,0.000000,6,0.000000,0.000000,1.326693,0,0,0,0,0,0,0
11,119999,34,110000,91,10000,49,9999,0.100000,0,0,0.000000,6,3.000000,0.000000,9.476119,0,0,0,0,0,0,0
11,119999,35,110000,0,0,40,9999,0.100000,0,0,0.000000,6,0.000000,0.000000,0.895219,0,0,0,0,0,0,0
11,119999,36,110000,1,10000,40,9999,0.100000,0,0,0.000000,6,0.000000,0.000000,0.147654,0,0,0,0,0,0,0
11,119999,37,110000,67,20000,40,9999,0.100000,0,0,0.000000,6,0.000000,0.000000,1.383449,0,0,0,0,0,0,0
11,119999,38,110000,67,20000,40,9999,0.100000,0,0,0.000000,6,0.000000,0.000000,2.309859,0,0,0,0,0,0,0
11,119999,39,110000,34,0,40,9999,0.100000,0,0,0.000000,6,0.000000,0.000000,0.158362,0,0,0,0,0,0,0
11,119999,40,110000,34,0,49,9999,0.100000,0,0,0.000000,6,1.000000,0.000000,11.093378,0,0,0,0,0,0,0
11,119999,41,110000,1,10000,40,9999,0.100000,0,0,0.000000,6,0.000000,0.000000,0.244134,0,0,0,0,0,0,0
11,119999,42,110000,67,20000,49,9999,0.100000,0,0,0.000000,6,1.000000,0.000000,4.556384,0,0,0,0,0,0,0
11,119999,43,110000,14,10000,49,9999,0.100000,0,0,0.000000,6,5.000000,0.000000,13.194733,0,0,0,0,0,0,0
11,119999,44,110000,67,20000,40,9999,0.100000,0,0,0.000000,6,0.000000,0.000000,0.372122,0,0,0,0,0,0,0
11,119999,45,110000,14,10000,40,9999,0.100000,0,0,0.000000,6,0.000000,0.000000,0.702265,0,0,0,0,0,0,0
11,119999,46,110000,14,10000,49,9999,0.100000,0,0,0.000000,6,1.000000,0.000000,2.364364,0,0,0,0,0,0,0
11,119999,47,110000,0,0,40,9999,0.100000,0,0,0.000000,6,0.000000,0.000000,0.298690,0,0,0,0,0,0,0
11,119999,48,110000,1,10000,40,9999,0.100000,0,0,0.000000,6,0.000000,0.000000,0.897761,0,0,0,0,0,0,0
11,119999,49,110000,34,0,40,9999,0.100000,0,0,0.000000,6,0.000000,0.000000,0.129961,0,0,0,0,0,0,0
11,119999,50,110000,0,0,40,9999,0.100000,0,0,0.000000,6,0.000000,0.000000,23.732343,0,0,0,0,0,0,0
11,119999,51,110000,1,10000,49,9999,0.100000,0,0,0.000000,6,4.000000,0.000000,12.081036,0,0,0,0,0,0,0
11,119999,52,110000,34,0,40,9999,0.100000,0,0,0.000000,6,0.000000,0.000000,0.232631,0,0,0,0,0,0,0
11,119999,53,110000,0,0,49,9999,0.100000,0,0,0.000000,6,1.000000,0.000000,4.120823,0,0,0,0,0,0,0
11,119999,54,110000,0,0,40,9999,0.100000,0,0,0.000000,6,0.000000,0.000000,1.057885,0,0,0,0,0,0,0
11,119999,55,110000,34,0,40,9999,0.100000,0,0,0.000000,6,0.000000,0.000000,0.137175,0,0,0,0,0,0,0
11,119999,56,110000,34,0,40,9999,0.100000,0,0,0.000000,6,0.000000,0.000000,0.278559,0,0,0,0,0,0,0
11,119999,57,110000,0,0,40,9999,0.100000,0,0,0.000000,6,0.000000,0.000000,1.000156,0,0,0,0,0,0,0
11,119999,58,110000,67,20000,40,9999,0.100000,0,0,0.000000,6,0.000000,0.000000,0.568803,0,0,0,0,0,0,0
11,119999,59,110000,67,20000,49,9999,0.100000,0,0,0.000000,6,1.000000,0.000000,2.183092,0,0,0,0,0,0,0
11,119999,60,110000,1,10000,40,9999,0.100000,0,0,0.000000,6,0.000000,0.000000,12.544218,0,0,0,0,0,0,0
11,119999,61,110000,1,10000,40,9999,0.100000,0,0,0.000000,6,0.000000,0.000000,0.498560,0,0,0,0,0,0,0
11,119999,62,110000,0,0,40,9999,0.100000,0,0,0.000000,6,0.000000,0.000000,0.126392,0,0,0,0,0,0,0
11,119999,63,110000,91,10000,49,9999,0.100000,0,0,0.000000,6,1.000000,0.000000,9.141438,0,0,0,0,0,0,0
11,119999,64,110000,34,0,49,9999,0.100000,0,0,0.000000,6,1.000000,0.000000,6.397780,0,0,0,0,0,0,0
11,119999,65,110000,1,10000,49,9999,0.100000,0,0,0.000000,6,1.000000,0.000000,6.704085,0,0,0,0,0,0,0
11,119999,66,110000,34,0,40,9999,0.100000,0,0,0.000000,6,0.000000,0.000000,2.280915,0,0,0,0,0,0,0
11,119999,67,110000,34,0,40,9999,0.100000,0,0,0.000000,6,0.000000,0.000000,0.319314,0,0,0,0,0,0,0
11,119999,68,100000,67,20000,40,19999,0.100000,0,0,0.000000,6,0.000000,0.000000,0.009565,0,0,0,0,0,0,0
11,119999,69,110000,0,0,40,9999,0.100000,0,0,0.000000,6,0.000000,0.000000,0.171028,0,0,0,0,0,0,0
11,119999,70,110000,0,0,49,9999,0.100000,0,0,0.000000,6,3.000000,0.000000,8.779947,0,0,0,0,0,0,0
11,119999,71,110000,0,0,40,9999,0.100000,0,0,0.000000,6,0.000000,0.000000,0.136005,0,0,0,0,0,0,0
11,119999,72,110000,14,10000,49,9999,0.100000,0,0,0.000000,6,1.000000,0.000000,1.150542,0,0,0,0,0,0,0
11,119999,73,110000,34,0,40,9999,0.100000,0,0,0.000000,6,0.000000,0.000000,3.091165,0,0,0,0,0,0,0
11,119999,74,110000,34,0,40,9999,0.100000,0,0,0.000000,6,0.000000,0.000000,0.232713,0,0,0,0,0,0,0
11,119999,75,110000,67,20000,40,9999,0.100000,0,0,0.000000,6,0.000000,0.000000,0.164272,0,0,0,0,0,0,0
11,119999,76,110000,67,20000,40,9999,0.100000,0,0,0.000000,6,0.000000,0.000000,1.694314,0,0,0,0,0,0,0
11,119999,77,110000,91,10000,40,9999,0.100000,0,0,0.000000,6,0.000000,0.000000,0.232706,0,0,0,0,0,0,0
11,119999,78,110000,91,10000,49,9999,0.100000,0,0,0.000000,6,4.000000,0.000000,6.607663,0,0,0,0,0,0,0
11,119999,79,110000,67,20000,40,9999,0.100000,0,0,0.000000,6,0.000000,0.000000,0.783232,0,0,0,0,0,0,0
11,119999,80,110000,1,10000,40,9999,0.100000,0,0,0.000000,6,0.000000,0.000000,0.311335,0,0,0,0,0,0,0
11,119999,81,110000,67,20000,49,9999,0.100000,0,0,0.000000,6,1.000000,0.000000,5.623219,0,0,0,0,0,0,0
11,119999,82,110000,1,10000,49,9999,0.100000,0,0,0.000000,6,5.000000,0.000000,9.598011,0,0,0,0,0,0,0
11,119999,83,110000,34,0,49,9999,0.100000,0,0,0.000000,6,1.000000,0.000000,14.216485,0,0,0,0,0,0,0
11,119999,84,110000,91,10000,40,9999,0.100000,0,0,0.000000,6,0.000000,0.000000,0.099218,0,0,0,0,0,0,0
11,119999,85,110000,34,0,40,9999,0.100000,0,0,0.000000,6,0.000000,0.000000,3.919149,0,0,0,0,0,0,0
11,119999,86,110000,91,10000,40,9999,0.100000,0,0,0.000000,6,0.000000,0.000000,0.126555,0,0,0,0,0,0,0
11,119999,87,110000,91,10000,40,9999,0.100000,0,0,0.000000,6,0.000000,0.000000,0.282703,0,0,0,0,0,0,0
11,119999,88,110000,34,0,40,9999,0.100000,0,0,0.000000,6,0.000000,0.000000,5.250190,0,0,0,0,0,0,0
11,119999,89,110000,34,0,40,9999,0.100000,0,0,0.000000,6,0.000000,0.000000,1.221183,0,0,0,0,0,0,0
11,119999,90,110000,91,10000,40,9999,0.100000,0,0,0.000000,6,0.000000,0.000000,0.400912,0,0,0,0,0,0,0
11,119999,91,110000,1,10000,40,9999,0.100000,0,0,0.000000,6,0.000000,0.000000,0.530090,0,0,0,0,0,0,0
11,119999,92,110000,34,0,40,9999,0.100000,0,0,0.000000,6,0.000000,0.000000,0.353097,0,0,0,0,0,0,0
11,119999,93,110000,91,10000,40,9999,0.100000,0,0,0.000000,6,0.000000,0.000000,1.006426,0,0,0,0,0,0,0
11,119999,94,110000,91,10000,40,9999,0.100000,0,0,0.000000,6,0.000000,0.000000,0.538746,0,0,0,0,0,0,0
11,119999,95,110000,91,10000,40,9999,0.100000,0,0,0.000000,6,0.000000,0.000000,0.777760,0,0,0,0,0,0,0
11,119999,96,110000,0,0,40,9999,0.100000,0,0,0.000000,6,0.000000,0.000000,1.187360,0,0,0,0,0,0,0
11,119999,97,110000,1,10000,40,9999,0.100000,0,0,0.000000,6,0.000000,0.000000,0.642957,0,0,0,0,0,0,0
11,119999,98,110000,67,20000,40,9999,0.100000,0,0,0.000000,6,0.000000,0.000000,0.259986,0,0,0,0,0,0,0
11,119999,99,110000,91,10000,40,9999,0.100000,0,0,0.000000,6,0.000000,0.000000,1.046787,0,0,0,0,0,0,0
12,129999,0,120000,1,10000,40,9999,0.100000,0,0,0.000000,6,0.000000,0.000000,3.529965,0,0,0,0,0,0,0
12,129999,1,120000,67,20000,40,9999,0.100000,0,0,0.000000,6,0.000000,0.000000,0.583553,0,0,0,0,0,0,0
12,129999,2,120000,0,0,40,9999,0.100000,0,0,0.000000,6,0.000000,0.000000,1.633126,0,0,0,0,0,0,0
12,129999,3,120000,14,10000,40,9999,0.100000,0,0,0.000000,6,0.000000,0.000000,3.516468,0,0,0,0,0,0,0
12,129999,4,120000,0,0,40,9999,0.100000,0,0,0.000000,6,0.000000,0.000000,0.155748,0,0,0,0,0,0,0
12,129999,5,120000,0,0,49,9999,0.100000,0,0,0.000000,6,4.000000,0.000000,7.926541,0,0,0,0,0,0,0
12,129999,6,120000,67,20000,40,9999,0.100000,0,0,0.000000,6,0.000000,0.000000,1.066568,0,0,0,0,0,0,0
12,129999,7,120000,91,10000,40,9999,0.100000,0,0,0.000000,6,0.000000,0.000000,0.360171,0,0,0,0,0,0,0
12,129999,8,120000,91,10000,49,9999,0.100000,0,0,0.000000,6,1.000000,0.000000,14.456889,0,0,0,0,0,0,0
12,129999,9,120000,34,0,40,9999,0.100000,0,0,0.000000,6,0.000000,0.000000,0.808730,0,0,0,0,0,0,0
12,129999,10,120000,1,10000,40,9999,0.100000,0,0,0.000000,6,0.000000,0.000000,0.807257,0,0,0,0,0,0,0
12,129999,11,120000,0,0,40,9999,0.100000,0,0,0.000000,6,0.000000,0.000000,0.933850,0,0,0,0,0,0,0
12,129999,12,120000,0,0,40,9999,0.100000,0,0,0.000000,6,0.000000,0.000000,1.468804,0,0,0,0,0,0,0
12,129999,13,120000,34,0,40,9999,0.100000,0,0,0.000000,6,0.000000,0.000000,1.020887,0,0,0,0,0,0,0
12,129999,14,120000,67,20000,49,9999,0.100000,0,0,0.000000,6,3.000000,0.000000,6.194076,0,0,0,0,0,0,0
12,129999,15,120000,0,0,49,9999,0.100000,0,0,0.000000,6,2.000000,0.000000,4.621216,0,0,0,0,0,0,0
12,129999,16,120000,1,10000,40,9999,0.100000,0,0,0.000000,6,0.000000,0.000000,0.227905,0,0,0,0,0,0,0
12,129999,17,120000,67,20000,40,9999,0.100000,0,0,0.000000,6,0.000000,0.000000,1.369292,0,0,0,0,0,0,0
12,129999,18,120000,67,20000,40,9999,0.100000,0,0,0.000000,6,0.000000,0.000000,0.762599,0,0,0,0,0,0,0
12,129999,19,120000,14,10000,40,9999,0.100000,0,0,0.000000,6,0.000000,0.000000,20.972540,0,0,0,0,0,0,0
12,129999,20,120000,67,20000,40,9999,0.100000,0,0,0.000000,6,0.000000,0.000000,0.389377,0,0,0,0,0,0,0
12,129999,21,120000,0,0,40,9999,0.100000,0,0,0.000000,6,0.000000,0.000000,1.157316,0,0,0,0,0,0,0
12,129999,22,120000,91,10000,49,9999,0.100000,0,0,0.000000,6,3.000000,0.000000,10.011834,0,0,0,0,0,0,0
12,129999,23,120000,1,10000,40,9999,0.100000,0,0,0.000000,6,0.000000,0.000000,0.064577,0,0,0,0,0,0,0
12,129999,24,120000,91,10000,40,9999,0.100000,0,0,0.000000,6,0.000000,0.000000,0.139671,0,0,0,0,0,0,0
12,129999,25,120000,0,0,40,9999,0.100000,0,0,0.000000,6,0.000000,0.000000,0.950594,0,0,0,0,0,0,0
12,129999,26,120000,1,10000,40,9999,0.100000,0,0,0.000000,6,0.000000,0.000000,0.117670,0,0,0,0,0,0,0
12,129999,27,120000,14,10000,40,9999,0.100000,0,0,0.000000,6,0.000000,0.000000,21.197126,0,0,0,0,0,0,0
12,129999,28,110000,34,0,9,19999,0.100000,0,0,0.000000,6,1.000000,0.000000,9.716433,0,0,0,0,0,1,0
12,129999,29,120000,91,10000,40,9999,0.100000,0,0,0.000000,6,0.000000,0.000000,1.337164,0,0,0,0,0,0,0
12,129999,30,120000,14,10000,40,9999,0.100000,0,0,0.000000,6,0.000000,0.000000,0.114915,0,0,0,0,0,0,0
12,129999,31,120000,1,10000,40,9999,0.100000,0,0,0.000000,6,0.000000,0.000000,0.117398,0,0,0,0,0,0,0
