generation,iteration,robot,birthday,ancestor_id,ancestor_birthday,cell_id,age,sigma,maps,genomes,fitness,cells_in_map,dist_max,dist_pot_max,dist_total,com_rx,com_tx,obj_group1,obj_group2,obj_group3,obj_group4,obj_group5
0,9999,0,0,0,0,49,9999,0.100000,0,0,0.000000,0,5.000000,0.000000,13.297406,0,0,0,0,0,0,0
0,9999,1,0,1,0,49,9999,0.100000,0,0,0.000000,0,6.000000,0.000000,10.002931,0,0,0,0,0,0,0
0,9999,2,0,2,0,49,9999,0.100000,0,0,0.000000,0,7.000000,0.000000,12.178396,0,0,0,0,0,0,0
0,9999,3,0,3,0,49,9999,0.100000,0,0,0.000000,0,11.000000,0.000000,16.059032,0,0,0,0,0,0,0
0,9999,4,0,4,0,49,9999,0.100000,0,0,0.000000,0,7.000000,0.000000,9.055089,0,0,0,0,0,0,0
0,9999,5,0,5,0,49,9999,0.100000,0,0,0.000000,0,7.000000,0.000000,17.052303,0,0,0,0,0,0,0
0,9999,6,0,6,0,49,9999,0.100000,0,0,0.000000,0,12.000000,0.000000,30.092971,0,0,0,0,0,0,0
0,9999,7,0,7,0,99,9999,0.100000,0,0,47.368421,0,10.000000,0.000000,22.584509,0,0,1,0,0,0,0
0,9999,8,0,8,0,49,9999,0.100000,0,0,0.000000,0,1.000000,0.000000,13.353365,0,0,0,0,0,0,0
0,9999,9,0,9,0,49,9999,0.100000,0,0,0.000000,0,4.000000,0.000000,22.130515,0,0,0,0,0,0,0
0,9999,10,0,10,0,49,9999,0.100000,0,0,0.000000,0,11.000000,0.000000,18.617776,0,0,0,0,0,0,0
0,9999,11,0,11,0,49,9999,0.100000,0,0,0.000000,0,11.000000,0.000000,14.268918,0,0,0,0,0,0,0
0,9999,12,0,12,0,49,9999,0.100000,0,0,0.000000,0,10.000000,0.000000,22.930222,0,0,0,0,0,0,0
0,9999,13,0,13,0,49,9999,0.100000,0,0,0.000000,0,3.000000,0.000000,6.353623,0,0,0,0,0,0,0
0,9999,14,0,14,0,49,9999,0.100000,0,0,0.000000,0,10.000000,0.000000,14.386614,0,0,0,0,0,0,0
0,9999,15,0,15,0,49,9999,0.100000,0,0,0.000000,0,6.000000,0.000000,8.055360,0,0,0,0,0,0,0
0,9999,16,0,16,0,49,9999,0.100000,0,0,0.000000,0,10.000000,0.000000,19.091669,0,0,0,0,0,0,0
0,9999,17,0,17,0,49,9999,0.100000,0,0,0.000000,0,10.000000,0.000000,14.241542,0,0,0,0,0,0,0
0,9999,18,0,18,0,49,9999,0.100000,0,0,0.000000,0,4.000000,0.000000,4.632810,0,0,0,0,0,0,0
0,9999,19,0,19,0,49,9999,0.100000,0,0,0.000000,0,9.000000,0.000000,13.813990,0,0,0,0,0,0,0
0,9999,20,0,20,0,49,9999,0.100000,0,0,0.000000,0,13.000000,0.000000,26.053753,0,0,0,0,0,0,0
0,9999,21,0,21,0,49,9999,0.100000,0,0,0.000000,0,4.000000,0.000000,10.134761,0,0,0,0,0,0,0
0,9999,22,0,22,0,49,9999,0.100000,0,0,0.000000,0,2.000000,0.000000,14.344590,0,0,0,0,0,0,0
0,9999,23,0,23,0,49,9999,0.100000,0,0,0.000000,0,8.000000,0.000000,10.528800,0,0,0,0,0,0,0
0,9999,24,0,24,0,49,9999,0.100000,0,0,0.000000,0,13.000000,0.000000,29.123405,0,0,0,0,0,0,0
0,9999,25,0,25,0,49,9999,0.100000,0,0,0.000000,0,1.000000,0.000000,4.494468,0,0,0,0,0,0,0
0,9999,26,0,26,0,49,9999,0.100000,0,0,0.000000,0,2.000000,0.000000,6.622753,0,0,0,0,0,0,0
0,9999,27,0,27,0,49,9999,0.100000,0,0,0.000000,0,9.000000,0.000000,13.894173,0,0,0,0,0,0,0
0,9999,28,0,28,0,49,9999,0.100000,0,0,0.000000,0,3.000000,0.000000,6.039707,0,0,0,0,0,0,0
0,9999,29,0,29,0,49,9999,0.100000,0,0,0.000000,0,9.000000,0.000000,17.705469,0,0,0,0,0,0,0
0,9999,30,0,30,0,49,9999,0.100000,0,0,0.000000,0,4.000000,0.000000,10.087794,0,0,0,0,0,0,0
0,9999,31,0,31,0,49,9999,0.100000,0,0,0.000000,0,3.000000,0.000000,4.142389,0,0,0,0,0,0,0
0,9999,32,0,32,0,49,9999,0.100000,0,0,0.000000,0,8.000000,0.000000,16.100308,0,0,0,0,0,0,0
0,9999,33,0,33,0,49,9999,0.100000,0,0,0.000000,0,9.000000,0.000000,10.817176,0,0,0,0,0,0,0
0,9999,34,0,34,0,49,9999,0.100000,0,0,0.000000,0,6.000000,0.000000,10.312866,0,0,0,0,0,0,0
0,9999,35,0,35,0,49,9999,0.100000,0,0,0.000000,0,6.000000,0.000000,7.999812,0,0,0,0,0,0,0
0,9999,36,0,36,0,49,9999,0.100000,0,0,0.000000,0,9.000000,0.000000,17.687105,0,0,0,0,0,0,0
0,9999,37,0,37,0,49,9999,0.100000,0,0,0.000000,0,8.000000,0.000000,15.579761,0,0,0,0,0,0,0
0,9999,38,0,38,0,49,9999,0.100000,0,0,0.000000,0,7.000000,0.000000,19.590495,0,0,0,0,0,0,0
0,9999,39,0,39,0,49,9999,0.100000,0,0,0.000000,0,7.000000,0.000000,21.334979,0,0,0,0,0,0,0
0,9999,40,0,40,0,49,9999,0.100000,0,0,0.000000,0,7.000000,0.000000,15.852526,0,0,0,0,0,0,0
0,9999,41,0,41,0,49,9999,0.100000,0,0,0.000000,0,13.000000,0.000000,25.332245,0,0,0,0,0,0,0
0,9999,42,0,42,0,49,9999,0.100000,0,0,0.000000,0,3.000000,0.000000,4.791798,0,0,0,0,0,0,0
0,9999,43,0,43,0,49,9999,0.100000,0,0,0.000000,0,8.000000,0.000000,24.637529,0,0,0,0,0,0,0
0,9999,44,0,44,0,49,9999,0.100000,0,0,0.000000,0,7.000000,0.000000,17.105238,0,0,0,0,0,0,0
0,9999,45,0,45,0,49,9999,0.100000,0,0,0.000000,0,10.000000,0.000000,10.957242,0,0,0,0,0,0,0
0,9999,46,0,46,0,49,9999,0.100000,0,0,0.000000,0,8.000000,0.000000,14.193537,0,0,0,0,0,0,0
0,9999,47,0,47,0,49,9999,0.100000,0,0,0.000000,0,8.000000,0.000000,8.469481,0,0,0,0,0,0,0
0,9999,48,0,48,0,49,9999,0.100000,0,0,0.000000,0,4.000000,0.000000,9.393503,0,0,0,0,0,0,0
0,9999,49,0,49,0,49,9999,0.100000,0,0,0.000000,0,10.000000,0.000000,12.405262,0,0,0,0,0,0,0
0,9999,50,0,50,0,49,9999,0.100000,0,0,0.000000,0,3.000000,0.000000,7.254807,0,0,0,0,0,0,0
0,9999,51,0,51,0,49,9999,0.100000,0,0,0.000000,0,8.000000,0.000000,29.704805,0,0,0,0,0,0,0
0,9999,52,0,52,0,49,9999,0.100000,0,0,0.000000,0,5.000000,0.000000,6.802189,0,0,0,0,0,0,0
0,9999,53,0,53,0,49,9999,0.100000,0,0,0.000000,0,12.000000,0.000000,21.603746,0,0,0,0,0,0,0
0,9999,54,0,54,0,49,9999,0.100000,0,0,0.000000,0,12.000000,0.000000,22.521070,0,0,0,0,0,0,0
0,9999,55,0,55,0,49,9999,0.100000,0,0,0.000000,0,10.000000,0.000000,17.860557,0,0,0,0,0,0,0
0,9999,56,0,56,0,49,9999,0.100000,0,0,0.000000,0,7.000000,0.000000,13.070299,0,0,0,0,0,0,0
0,9999,57,0,57,0,49,9999,0.100000,0,0,0.000000,0,3.000000,0.000000,3.665644,0,0,0,0,0,0,0
0,9999,58,0,58,0,49,9999,0.100000,0,0,0.000000,0,8.000000,0.000000,8.860177,0,0,0,0,0,0,0
0,9999,59,0,59,0,49,9999,0.100000,0,0,0.000000,0,7.000000,0.000000,8.869439,0,0,0,0,0,0,0
0,9999,60,0,60,0,49,9999,0.100000,0,0,0.000000,0,9.000000,0.000000,10.569492,0,0,0,0,0,0,0
0,9999,61,0,61,0,49,9999,0.100000,0,0,0.000000,0,10.000000,0.000000,24.512049,0,0,0,0,0,0,0
0,9999,62,0,62,0,49,9999,0.100000,0,0,0.000000,0,11.000000,0.000000,22.736939,0,0,0,0,0,0,0
0,9999,63,0,63,0,49,9999,0.100000,0,0,0.000000,0,11.000000,0.000000,19.781075,0,0,0,0,0,0,0
0,9999,64,0,64,0,49,9999,0.100000,0,0,0.000000,0,9.000000,0.000000,13.637593,0,0,0,0,0,0,0
0,9999,65,0,65,0,49,9999,0.100000,0,0,0.000000,0,4.000000,0.000000,5.538694,0,0,0,0,0,0,0
0,9999,66,0,66,0,49,9999,0.100000,0,0,0.000000,0,7.000000,0.000000,16.719019,0,0,0,0,0,0,0
0,9999,67,0,67,0,49,9999,0.100000,0,0,0.000000,0,9.000000,0.000000,10.282574,0,0,0,0,0,0,0
0,9999,68,0,68,0,49,9999,0.100000,0,0,0.000000,0,2.000000,0.000000,11.375987,0,0,0,0,0,0,0
0,9999,69,0,69,0,49,9999,0.100000,0,0,0.000000,0,5.000000,0.000000,13.942584,0,0,0,0,0,0,0
0,9999,70,0,70,0,49,9999,0.100000,0,0,0.000000,0,5.000000,0.000000,5.424257,0,0,0,0,0,0,0
0,9999,71,0,71,0,49,9999,0.100000,0,0,0.000000,0,9.000000,0.000000,13.084166,0,0,0,0,0,0,0
0,9999,72,0,72,0,49,9999,0.100000,0,0,0.000000,0,9.000000,0.000000,14.103265,0,0,0,0,0,0,0
0,9999,73,0,73,0,49,9999,0.100000,0,0,0.000000,0,4.000000,0.000000,9.128684,0,0,0,0,0,0,0
0,9999,74,0,74,0,49,9999,0.100000,0,0,0.000000,0,8.000000,0.000000,28.064395,0,0,0,0,0,0,0
0,9999,75,0,75,0,49,9999,0.100000,0,0,0.000000,0,11.000000,0.000000,24.705218,0,0,0,0,0,0,0
0,9999,76,0,76,0,49,9999,0.100000,0,0,0.000000,0,7.000000,0.000000,14.468653,0,0,0,0,0,0,0
0,9999,77,0,77,0,49,9999,0.100000,0,0,0.000000,0,8.000000,0.000000,17.181769,0,0,0,0,0,0,0
0,9999,78,0,78,0,49,9999,0.100000,0,0,0.000000,0,9.000000,0.000000,21.003214,0,0,0,0,0,0,0
0,9999,79,0,79,0,49,9999,0.100000,0,0,0.000000,0,8.000000,0.000000,17.857146,0,0,0,0,0,0,0
0,9999,80,0,80,0,49,9999,0.100000,0,0,0.000000,0,4.000000,0.000000,4.865870,0,0,0,0,0,0,0
0,9999,81,0,81,0,49,9999,0.100000,0,0,0.000000,0,7.000000,0.000000,25.131663,0,0,0,0,0,0,0
0,9999,82,0,82,0,49,9999,0.100000,0,0,0.000000,0,4.000000,0.000000,7.675452,0,0,0,0,0,0,0
0,9999,83,0,83,0,49,9999,0.100000,0,0,0.000000,0,9.000000,0.000000,12.789795,0,0,0,0,0,0,0
0,9999,84,0,84,0,49,9999,0.100000,0,0,0.000000,0,6.000000,0.000000,8.964329,0,0,0,0,0,0,0
0,9999,85,0,85,0,49,9999,0.100000,0,0,0.000000,0,4.000000,0.000000,13.650667,0,0,0,0,0,0,0
0,9999,86,0,86,0,49,9999,0.100000,0,0,0.000000,0,12.000000,0.000000,25.294776,0,0,0,0,0,0,0
0,9999,87,0,87,0,49,9999,0.100000,0,0,0.000000,0,7.000000,0.000000,8.821337,0,0,0,0,0,0,0
0,9999,88,0,88,0,49,9999,0.100000,0,0,0.000000,0,10.000000,0.000000,17.856388,0,0,0,0,0,0,0
0,9999,89,0,89,0,49,9999,0.100000,0,0,0.000000,0,13.000000,0.000000,20.191963,0,0,0,0,0,0,0
0,9999,90,0,90,0,49,9999,0.100000,0,0,0.000000,0,4.000000,0.000000,5.371027,0,0,0,0,0,0,0
0,9999,91,0,91,0,49,9999,0.100000,0,0,0.000000,0,13.000000,0.000000,39.684130,0,0,0,0,0,0,0
0,9999,92,0,92,0,49,9999,0.100000,0,0,0.000000,0,7.000000,0.000000,10.708984,0,0,0,0,0,0,0
0,9999,93,0,93,0,49,9999,0.100000,0,0,0.000000,0,11.000000,0.000000,13.897125,0,0,0,0,0,0,0
0,9999,94,0,94,0,49,9999,0.100000,0,0,0.000000,0,10.000000,0.000000,11.691801,0,0,0,0,0,0,0
0,9999,95,0,95,0,49,9999,0.100000,0,0,0.000000,0,11.000000,0.000000,13.330910,0,0,0,0,0,0,0
0,9999,96,0,96,0,49,9999,0.100000,0,0,0.000000,0,6.000000,0.000000,11.376166,0,0,0,0,0,0,0
0,9999,97,0,97,0,49,9999,0.100000,0,0,0.000000,0,10.000000,0.000000,22.479244,0,0,0,0,0,0,0
0,9999,98,0,98,0,49,9999,0.100000,0,0,0.000000,0,5.000000,0.000000,6.001712,0,0,0,0,0,0,0
0,9999,99,0,99,0,49,9999,0.100000,0,0,0.000000,0,9.000000,0.000000,13.288982,0,0,0,0,0,0,0
1,19999,0,10000,3,0,40,9999,0.100000,0,0,0.000000,2,0.000000,0.000000,0.294338,0,0,0,0,0,0,0
1,19999,1,10000,11,0,40,9999,0.100000,0,0,0.000000,2,0.000000,0.000000,0.542998,0,0,0,0,0,0,0
1,19999,2,10000,11,0,49,9999,0.100000,0,0,0.000000,2,1.000000,0.000000,1.732111,0,0,0,0,0,0,0
1,19999,3,10000,3,0,49,9999,0.100000,0,0,0.000000,1,1.000000,0.000000,6.674733,0,0,0,0,0,0,0
1,19999,4,10000,3,0,49,9999,0.100000,0,0,0.000000,2,1.000000,0.000000,1.740059,0,0,0,0,0,0,0
1,19999,5,10000,3,0,40,9999,0.100000,0,0,0.000000,3,0.000000,0.000000,0.212736,0,0,0,0,0,0,0
1,19999,6,10000,11,0,40,9999,0.100000,0,0,0.000000,2,0.000000,0.000000,1.633823,0,0,0,0,0,0,0
1,19999,7,10000,3,0,40,9999,0.100000,0,0,0.000000,3,0.000000,0.000000,11.564053,0,0,0,0,0,0,0
1,19999,8,10000,41,0,49,9999,0.100000,0,0,0.000000,2,1.000000,0.000000,6.131472,0,0,0,0,0,0,0
1,19999,9,0,9,0,40,19999,0.100000,0,0,0.000000,2,0.000000,0.000000,2.284423,0,0,0,0,0,0,0
1,19999,10,10000,11,0,49,9999,0.100000,0,0,0.000000,2,2.000000,0.000000,6.102786,0,0,0,0,0,0,0
1,19999,11,10000,3,0,40,9999,0.065000,0,0,0.000000,2,0.000000,0.000000,0.963145,0,0,0,0,0,0,0
1,19999,12,0,12,0,49,19999,0.100000,0,0,0.000000,2,1.000000,0.000000,8.215946,0,0,0,0,0,0,0
1,19999,13,10000,3,0,40,9999,0.100000,0,0,0.000000,2,0.000000,0.000000,1.208108,0,0,0,0,0,0,0
1,19999,14,10000,41,0,49,9999,0.100000,0,0,0.000000,2,1.000000,0.000000,2.052561,0,0,0,0,0,0,0
1,19999,15,10000,11,0,40,9999,0.100000,0,0,0.000000,2,0.000000,0.000000,0.427913,0,0,0,0,0,0,0
1,19999,16,10000,41,0,40,9999,0.100000,0,0,0.000000,2,0.000000,0.000000,3.045625,0,0,0,0,0,0,0
1,19999,17,10000,3,0,9,9999,0.100000,0,0,0.000000,2,1.000000,0.000000,5.991851,0,0,0,0,0,0,1
1,19999,18,10000,3,0,40,9999,0.100000,0,0,0.000000,3,0.000000,0.000000,0.331609,0,0,0,0,0,0,0
1,19999,19,0,19,0,40,19999,0.100000,0,0,0.000000,3,0.000000,0.000000,0.097237,0,0,0,0,0,0,0
1,19999,20,10000,3,0,49,9999,0.100000,0,0,0.000000,2,3.000000,0.000000,7.570852,0,0,0,0,0,0,0
1,19999,21,10000,41,0,49,9999,0.100000,0,0,0.000000,2,1.000000,0.000000,6.856482,0,0,0,0,0,0,0
1,19999,22,10000,3,0,40,9999,0.100000,0,0,0.000000,2,0.000000,0.000000,0.522902,0,0,0,0,0,0,0
1,19999,23,0,23,0,40,19999,0.100000,0,0,0.000000,2,0.000000,0.000000,1.884988,0,0,0,0,0,0,0
1,19999,24,10000,3,0,49,9999,0.100000,0,0,0.000000,2,6.000000,0.000000,10.198158,0,0,0,0,0,0,0
1,19999,25,10000,3,0,40,9999,0.100000,0,0,0.000000,2,0.000000,0.000000,0.582519,0,0,0,0,0,0,0
1,19999,26,10000,11,0,40,9999,0.100000,0,0,0.000000,2,0.000000,0.000000,22.128495,0,0,0,0,0,0,0
1,19999,27,10000,41,0,40,9999,0.100000,0,0,0.000000,3,0.000000,0.000000,0.437527,0,0,0,0,0,0,0
1,19999,28,10000,7,0,40,9999,0.100000,0,0,0.000000,3,0.000000,0.000000,0.180371,0,0,0,0,0,0,0
1,19999,29,10000,11,0,49,9999,0.100000,0,0,0.000000,2,14.000000,0.000000,21.122999,0,0,0,0,0,0,0
1,19999,30,10000,41,0,49,9999,0.100000,0,0,0.000000,2,1.000000,0.000000,3.658505,0,0,0,0,0,0,0
1,19999,31,10000,41,0,40,9999,0.100000,0,0,0.000000,2,0.000000,0.000000,0.139415,0,0,0,0,0,0,0
1,19999,32,10000,11,0,40,9999,0.100000,0,0,0.000000,2,0.000000,0.000000,1.561079,0,0,0,0,0,0,0
1,19999,33,10000,3,0,49,9999,0.100000,0,0,0.000000,2,1.000000,0.000000,4.248228,0,0,0,0,0,0,0
1,19999,34,10000,11,0,40,9999,0.100000,0,0,0.000000,2,0.000000,0.000000,0.644101,0,0,0,0,0,0,0
1,19999,35,10000,11,0,49,9999,0.100000,0,0,0.000000,2,1.000000,0.000000,1.689235,0,0,0,0,0,0,0
1,19999,36,10000,7,0,49,9999,0.100000,0,0,0.000000,3,7.000000,0.000000,39.807725,0,0,0,0,0,0,0
1,19999,37,10000,11,0,49,9999,0.100000,0,0,0.000000,2,1.000000,0.000000,9.292719,0,0,0,0,0,0,0
1,19999,38,10000,41,0,40,9999,0.100000,0,0,0.000000,3,0.000000,0.000000,0.663498,0,0,0,0,0,0,0
1,19999,39,0,39,0,40,19999,0.100000,0,0,0.000000,2,0.000000,0.000000,5.702570,0,0,0,0,0,0,0
1,19999,40,10000,7,0,40,9999,0.100000,0,0,0.000000,3,0.000000,0.000000,0.735992,0,0,0,0,0,0,0
1,19999,41,10000,3,0,40,9999,0.100000,0,0,0.000000,2,0.000000,0.000000,0.137735,0,0,0,0,0,0,0
1,19999,42,0,42,0,40,19999,0.100000,0,0,0.000000,2,0.000000,0.000000,0.979797,0,0,0,0,0,0,0
1,19999,43,10000,41,0,49,9999,0.100000,0,0,0.000000,2,1.000000,0.000000,15.526642,0,0,0,0,0,0,0
1,19999,44,10000,41,0,49,9999,0.100000,0,0,0.000000,3,4.000000,0.000000,16.250522,0,0,0,0,0,0,0
1,19999,45,10000,11,0,9,9999,0.100000,0,0,0.000000,2,1.000000,0.000000,8.839924,0,0,0,0,0,0,1
1,19999,46,10000,11,0,40,9999,0.100000,0,0,0.000000,2,0.000000,0.000000,2.036016,0,0,0,0,0,0,0
1,19999,47,10000,11,0,40,9999,0.100000,0,0,0.000000,2,0.000000,0.000000,1.177183,0,0,0,0,0,0,0
1,19999,48,10000,11,0,40,9999,0.100000,0,0,0.000000,2,0.000000,0.000000,0.127096,0,0,0,0,0,0,0
1,19999,49,10000,3,0,0,9999,0.100000,0,0,0.000000,2,0.000000,0.000000,4.438402,0,0,0,0,0,0,1
1,19999,50,10000,41,0,49,9999,0.100000,0,0,0.000000,2,1.000000,0.000000,3.112209,0,0,0,0,0,0,0
1,19999,51,10000,41,0,40,9999,0.100000,0,0,0.000000,2,0.000000,0.000000,0.443331,0,0,0,0,0,0,0
1,19999,52,10000,3,0,49,9999,0.100000,0,0,0.000000,2,1.000000,0.000000,1.588734,0,0,0,0,0,0,0
1,19999,53,10000,41,0,49,9999,0.100000,0,0,0.000000,2,1.000000,0.000000,12.705340,0,0,0,0,0,0,0
1,19999,54,10000,41,0,49,9999,0.100000,0,0,0.000000,3,1.000000,0.000000,12.945713,0,0,0,0,0,0,0
1,19999,55,10000,41,0,40,9999,0.100000,0,0,0.000000,2,0.000000,0.000000,1.479585,0,0,0,0,0,0,0
1,19999,56,0,56,0,49,19999,0.100000,0,0,0.000000,2,6.000000,0.000000,15.059922,0,0,0,0,0,0,0
1,19999,57,10000,3,0,40,9999,0.100000,0,0,0.000000,2,0.000000,0.000000,0.149579,0,0,0,0,0,0,0
1,19999,58,10000,41,0,40,9999,0.100000,0,0,0.000000,2,0.000000,0.000000,0.121407,0,0,0,0,0,0,0
1,19999,59,10000,11,0,40,9999,0.100000,0,0,0.000000,2,0.000000,0.000000,0.188217,0,0,0,0,0,0,0
1,19999,60,10000,11,0,40,9999,0.100000,0,0,0.000000,2,0.000000,0.000000,0.155650,0,0,0,0,0,0,0
1,19999,61,0,61,0,49,19999,0.100000,0,0,0.000000,3,1.000000,0.000000,12.767509,0,0,0,0,0,0,0
1,19999,62,10000,41,0,40,9999,0.100000,0,0,0.000000,3,0.000000,0.000000,14.997964,0,0,0,0,0,0,0
1,19999,63,10000,3,0,40,9999,0.100000,0,0,0.000000,2,0.000000,0.000000,0.368696,0,0,0,0,0,0,0
1,19999,64,10000,3,0,40,9999,0.100000,0,0,0.000000,2,0.000000,0.000000,1.302153,0,0,0,0,0,0,0
1,19999,65,10000,11,0,40,9999,0.100000,0,0,0.000000,2,0.000000,0.000000,0.538712,0,0,0,0,0,0,0
1,19999,66,10000,41,0,49,9999,0.100000,0,0,0.000000,3,2.000000,0.000000,11.811516,0,0,0,0,0,0,0
1,19999,67,10000,41,0,49,9999,0.100000,0,0,0.000000,3,2.000000,0.000000,2.615182,0,0,0,0,0,0,0
1,19999,68,0,68,0,40,19999,0.100000,0,0,0.000000,3,0.000000,0.000000,0.748168,0,0,0,0,0,0,0
1,19999,69,10000,11,0,40,9999,0.100000,0,0,0.000000,2,0.000000,0.000000,0.134907,0,0,0,0,0,0,0
1,19999,70,0,70,0,40,19999,0.100000,0,0,0.000000,2,0.000000,0.000000,0.254718,0,0,0,0,0,0,0
1,19999,71,10000,7,0,40,9999,0.100000,0,0,0.000000,3,0.000000,0.000000,1.329983,0,0,0,0,0,0,0
1,19999,72,10000,11,0,49,9999,0.100000,0,0,0.000000,2,4.000000,0.000000,11.453903,0,0,0,0,0,0,0
1,19999,73,0,73,0,49,19999,0.100000,0,0,0.000000,2,1.000000,0.000000,1.736855,0,0,0,0,0,0,0
1,19999,74,10000,74,0,49,9999,0.100000,0,0,0.000000,3,4.000000,0.000000,9.394832,0,0,0,0,0,0,0
1,19999,75,10000,41,0,40,9999,0.100000,0,0,0.000000,2,0.000000,0.000000,13.166047,0,0,0,0,0,0,0
1,19999,76,10000,11,0,40,9999,0.100000,0,0,0.000000,2,0.000000,0.000000,0.289594,0,0,0,0,0,0,0
1,19999,77,10000,41,0,40,9999,0.100000,0,0,0.000000,2,0.000000,0.000000,0.500368,0,0,0,0,0,0,0
1,19999,78,0,78,0,40,19999,0.100000,0,0,0.000000,2,0.000000,0.000000,9.185256,0,0,0,0,0,0,0
1,19999,79,10000,41,0,49,9999,0.100000,0,0,0.000000,3,3.000000,0.000000,10.861998,0,0,0,0,0,0,0
1,19999,80,10000,3,0,40,9999,0.100000,0,0,0.000000,2,0.000000,0.000000,0.165812,0,0,0,0,0,0,0
1,19999,81,0,81,0,49,19999,0.100000,0,0,0.000000,2,5.000000,0.000000,28.095450,0,0,0,0,0,0,0
1,19999,82,10000,3,0,49,9999,0.100000,0,0,0.000000,3,4.000000,0.000000,12.336179,0,0,0,0,0,0,0
1,19999,83,10000,7,0,49,9999,0.100000,0,0,0.000000,3,2.000000,0.000000,6.303421,0,0,0,0,0,0,0
1,19999,84,10000,41,0,40,9999,0.100000,0,0,0.000000,3,0.000000,0.000000,0.107330,0,0,0,0,0,0,0
1,19999,85,10000,3,0,99,9999,0.100000,0,0,34.210526,2,11.000000,0.000000,20.190103,0,0,1,0,0,0,0
1,19999,86,10000,11,0,49,9999,0.100000,0,0,0.000000,2,1.000000,0.000000,1.685717,0,0,0,0,0,0,0
1,19999,87,10000,3,0,40,9999,0.100000,0,0,0.000000,3,0.000000,0.000000,2.005066,0,0,0,0,0,0,0
1,19999,88,10000,3,0,49,9999,0.100000,0,0,0.000000,2,2.000000,0.000000,7.557767,0,0,0,0,0,0,0
1,19999,89,10000,3,0,40,9999,0.100000,0,0,0.000000,2,0.000000,0.000000,1.714990,0,0,0,0,0,0,0
1,19999,90,0,90,0,40,19999,0.100000,0,0,0.000000,2,0.000000,0.000000,0.163584,0,0,0,0,0,0,0
1,19999,91,10000,41,0,49,9999,0.100000,0,0,0.000000,3,3.000000,0.000000,17.499744,0,0,0,0,0,0,0
1,19999,92,10000,41,0,49,9999,0.100000,0,0,0.000000,2,3.000000,0.000000,10.369085,0,0,0,0,0,0,0
1,19999,93,10000,3,0,40,9999,0.100000,0,0,0.000000,2,0.000000,0.000000,1.018396,0,0,0,0,0,0,0
1,19999,94,10000,3,0,0,9999,0.100000,0,0,0.000000,3,0.000000,0.000000,1.060042,0,0,0,0,0,0,1
1,19999,95,10000,41,0,40,9999,0.100000,0,0,0.000000,2,0.000000,0.000000,0.276894,0,0,0,0,0,0,0
1,19999,96,10000,41,0,40,9999,0.100000,0,0,0.000000,2,0.000000,0.000000,4.403467,0,0,0,0,0,0,0
1,19999,97,10000,3,0,9,9999,0.100000,0,0,0.000000,2,1.000000,0.000000,10.306339,0,0,0,0,0,0,1
1,19999,98,10000,3,0,40,9999,0.100000,0,0,0.000000,3,0.000000,0.000000,1.464487,0,0,0,0,0,0,0
1,19999,99,10000,41,0,40,9999,0.100000,0,0,0.000000,2,0.000000,0.000000,2.043513,0,0,0,0,0,0,0
2,29999,0,20000,3,0,40,9999,0.100000,0,0,0.000000,5,0.000000,0.000000,0.208297,0,0,0,0,0,0,0
2,29999,1,20000,6,10000,40,9999,0.100000,0,0,0.000000,5,0.000000,0.000000,0.153913,0,0,0,0,0,0,0
2,29999,2,20000,3,0,9,9999,0.100000,0,0,19.927119,5,2.000000,0.000000,11.642348,0,0,0,0,1,0,0
2,29999,3,20000,6,10000,49,9999,0.100000,0,0,0.000000,5,2.000000,0.000000,7.954602,0,0,0,0,0,0,0
2,29999,4,20000,3,0,40,9999,0.100000,0,0,0.000000,5,0.000000,0.000000,0.205338,0,0,0,0,0,0,0
2,29999,5,20000,11,10000,40,9999,0.065000,0,0,0.000000,5,0.000000,0.000000,0.191244,0,0,0,0,0,0,0
2,29999,6,20000,6,10000,40,9999,0.100000,0,0,0.000000,4,0.000000,0.000000,0.768286,0,0,0,0,0,0,0
2,29999,7,20000,41,0,40,9999,0.100000,0,0,0.000000,5,0.000000,0.000000,10.311464,0,0,0,0,0,0,0
2,29999,8,20000,41,0,49,9999,0.100000,0,0,0.000000,5,6.000000,0.000000,10.866682,0,0,0,0,0,0,0
2,29999,9,20000,6,10000,40,9999,0.100000,0,0,0.000000,5,0.000000,0.000000,0.558001,0,0,0,0,0,0,0
2,29999,10,20000,3,0,49,9999,0.100000,0,0,0.000000,5,1.000000,0.000000,4.126805,0,0,0,0,0,0,0
2,29999,11,20000,3,0,40,9999,0.100000,0,0,0.000000,5,0.000000,0.000000,0.706844,0,0,0,0,0,0,0
2,29999,12,20000,41,0,49,9999,0.100000,0,0,0.000000,5,6.000000,0.000000,18.154251,0,0,0,0,0,0,0
2,29999,13,20000,11,10000,49,9999,0.065000,0,0,0.000000,5,1.000000,0.000000,4.863674,0,0,0,0,0,0,0
2,29999,14,20000,6,10000,49,9999,0.100000,0,0,0.000000,5,2.000000,0.000000,16.312289,0,0,0,0,0,0,0
2,29999,15,20000,11,10000,40,9999,0.065000,0,0,0.000000,5,0.000000,0.000000,0.425431,0,0,0,0,0,0,0
2,29999,16,20000,41,0,40,9999,0.100000,0,0,0.000000,5,0.000000,0.000000,1.077344,0,0,0,0,0,0,0
2,29999,17,20000,41,0,40,9999,0.100000,0,0,0.000000,3,0.000000,0.000000,5.419903,0,0,0,0,0,0,0
2,29999,18,20000,11,10000,40,9999,0.042250,0,0,0.000000,5,0.000000,0.000000,0.298313,0,0,0,0,0,0,0
2,29999,19,20000,6,10000,40,9999,0.100000,0,0,0.000000,5,0.000000,0.000000,0.141663,0,0,0,0,0,0,0
2,29999,20,20000,41,0,49,9999,0.100000,0,0,0.000000,5,3.000000,0.000000,7.255320,0,0,0,0,0,0,0
2,29999,21,20000,7,0,49,9999,0.100000,0,0,0.000000,5,2.000000,0.000000,9.101147,0,0,0,0,0,0,0
2,29999,22,20000,11,10000,40,9999,0.065000,0,0,0.000000,5,0.000000,0.000000,0.969654,0,0,0,0,0,0,0
2,29999,23,20000,6,10000,40,9999,0.100000,0,0,0.000000,5,0.000000,0.000000,0.828649,0,0,0,0,0,0,0
2,29999,24,20000,3,0,49,9999,0.100000,0,0,0.000000,5,1.000000,0.000000,2.543854,0,0,0,0,0,0,0
2,29999,25,20000,7,0,40,9999,0.100000,0,0,0.000000,5,0.000000,0.000000,0.088591,0,0,0,0,0,0,0
2,29999,26,20000,6,10000,49,9999,0.100000,0,0,0.000000,5,1.000000,0.000000,10.012892,0,0,0,0,0,0,0
2,29999,27,20000,11,10000,40,9999,0.065000,0,0,0.000000,5,0.000000,0.000000,0.808015,0,0,0,0,0,0,0
2,29999,28,20000,7,0,40,9999,0.100000,0,0,0.000000,5,0.000000,0.000000,0.220192,0,0,0,0,0,0,0
2,29999,29,20000,41,0,49,9999,0.100000,0,0,0.000000,5,3.000000,0.000000,12.900021,0,0,0,0,0,0,0
2,29999,30,20000,11,10000,40,9999,0.065000,0,0,0.000000,5,0.000000,0.000000,0.073326,0,0,0,0,0,0,0
2,29999,31,20000,41,0,40,9999,0.100000,0,0,0.000000,5,0.000000,0.000000,0.140118,0,0,0,0,0,0,0
2,29999,32,20000,11,10000,40,9999,0.065000,0,0,0.000000,5,0.000000,0.000000,0.157989,0,0,0,0,0,0,0
2,29999,33,20000,6,10000,40,9999,0.100000,0,0,0.000000,5,0.000000,0.000000,1.576863,0,0,0,0,0,0,0
2,29999,34,20000,41,0,40,9999,0.100000,0,0,0.000000,5,0.000000,0.000000,0.447789,0,0,0,0,0,0,0
2,29999,35,20000,7,0,49,9999,0.100000,0,0,0.000000,5,1.000000,0.000000,1.323693,0,0,0,0,0,0,0
2,29999,36,20000,7,0,40,9999,0.100000,0,0,0.000000,5,0.000000,0.000000,0.103934,0,0,0,0,0,0,0
2,29999,37,20000,41,10000,40,9999,0.100000,0,0,0.000000,5,0.000000,0.000000,10.060529,0,0,0,0,0,0,0
2,29999,38,20000,7,0,40,9999,0.100000,0,0,0.000000,4,0.000000,0.000000,0.622836,0,0,0,0,0,0,0
2,29999,39,20000,7,0,40,9999,0.100000,0,0,0.000000,5,0.000000,0.000000,0.333275,0,0,0,0,0,0,0
2,29999,40,20000,41,0,40,9999,0.100000,0,0,0.000000,5,0.000000,0.000000,0.867485,0,0,0,0,0,0,0
2,29999,41,20000,41,0,40,9999,0.100000,0,0,0.000000,5,0.000000,0.000000,0.144903,0,0,0,0,0,0,0
2,29999,42,20000,3,0,49,9999,0.100000,0,0,0.000000,5,1.000000,0.000000,2.959738,0,0,0,0,0,0,0
2,29999,43,20000,6,10000,49,9999,0.100000,0,0,0.000000,5,1.000000,0.000000,5.754853,0,0,0,0,0,0,0
2,29999,44,20000,3,0,49,9999,0.100000,0,0,0.000000,5,10.000000,0.000000,36.548898,0,0,0,0,0,0,0
2,29999,45,20000,6,10000,49,9999,0.100000,0,0,0.000000,5,1.000000,0.000000,6.900838,0,0,0,0,0,0,0
2,29999,46,20000,41,0,40,9999,0.100000,0,0,0.000000,5,0.000000,0.000000,0.455660,0,0,0,0,0,0,0
2,29999,47,20000,11,10000,40,9999,0.065000,0,0,0.000000,5,0.000000,0.000000,0.437217,0,0,0,0,0,0,0
2,29999,48,20000,7,0,40,9999,0.100000,0,0,0.000000,5,0.000000,0.000000,0.097981,0,0,0,0,0,0,0
2,29999,49,20000,7,0,49,9999,0.100000,0,0,0.000000,5,2.000000,0.000000,5.653138,0,0,0,0,0,0,0
2,29999,50,20000,6,10000,40,9999,0.100000,0,0,0.000000,5,0.000000,0.000000,0.233911,0,0,0,0,0,0,0
2,29999,51,20000,41,0,40,9999,0.100000,0,0,0.000000,5,0.000000,0.000000,0.109324,0,0,0,0,0,0,0
2,29999,52,20000,41,0,9,9999,0.100000,0,0,34.210526,5,2.000000,0.000000,11.356732,0,0,0,0,1,0,0
2,29999,53,20000,7,0,49,9999,0.100000,0,0,0.000000,5,3.000000,0.000000,9.451692,0,0,0,0,0,0,0
2,29999,54,20000,6,10000,49,9999,0.100000,0,0,0.000000,5,2.000000,0.000000,15.537133,0,0,0,0,0,0,0
2,29999,55,20000,3,0,40,9999,0.100000,0,0,0.000000,5,0.000000,0.000000,0.384143,0,0,0,0,0,0,0
2,29999,56,20000,6,10000,40,9999,0.100000,0,0,0.000000,5,0.000000,0.000000,0.229261,0,0,0,0,0,0,0
2,29999,57,20000,6,10000,40,9999,0.100000,0,0,0.000000,5,0.000000,0.000000,0.134419,0,0,0,0,0,0,0
2,29999,58,20000,6,10000,40,9999,0.100000,0,0,0.000000,5,0.000000,0.000000,0.177168,0,0,0,0,0,0,0
2,29999,59,20000,3,0,40,9999,0.100000,0,0,0.000000,5,0.000000,0.000000,0.189238,0,0,0,0,0,0,0
2,29999,60,20000,6,10000,40,9999,0.100000,0,0,0.000000,5,0.000000,0.000000,0.287040,0,0,0,0,0,0,0
2,29999,61,20000,3,0,49,9999,0.100000,0,0,0.000000,5,2.000000,0.000000,18.486652,0,0,0,0,0,0,0
2,29999,62,20000,6,10000,49,9999,0.100000,0,0,0.000000,5,10.000000,0.000000,29.156773,0,0,0,0,0,0,0
2,29999,63,20000,6,10000,49,9999,0.100000,0,0,0.000000,5,1.000000,0.000000,4.039970,0,0,0,0,0,0,0
2,29999,64,20000,6,10000,40,9999,0.100000,0,0,0.000000,5,0.000000,0.000000,0.467600,0,0,0,0,0,0,0
2,29999,65,20000,7,0,40,9999,0.100000,0,0,0.000000,5,0.000000,0.000000,0.478589,0,0,0,0,0,0,0
2,29999,66,20000,6,10000,49,9999,0.100000,0,0,0.000000,5,2.000000,0.000000,12.356023,0,0,0,0,0,0,0
2,29999,67,20000,6,10000,49,9999,0.100000,0,0,0.000000,5,1.000000,0.000000,11.737073,0,0,0,0,0,0,0
2,29999,68,20000,6,10000,49,9999,0.100000,0,0,0.000000,5,1.000000,0.000000,1.166552,0,0,0,0,0,0,0
2,29999,69,20000,6,10000,40,9999,0.100000,0,0,0.000000,5,0.000000,0.000000,0.101945,0,0,0,0,0,0,0
2,29999,70,20000,11,10000,40,9999,0.065000,0,0,0.000000,5,0.000000,0.000000,0.824250,0,0,0,0,0,0,0
2,29999,71,20000,7,0,40,9999,0.100000,0,0,0.000000,5,0.000000,0.000000,1.147600,0,0,0,0,0,0,0
2,29999,72,20000,7,0,40,9999,0.100000,0,0,0.000000,5,0.000000,0.000000,0.411567,0,0,0,0,0,0,0
2,29999,73,20000,3,0,9,9999,0.100000,0,0,34.210526,5,3.000000,0.000000,10.481925,0,0,0,0,1,0,0
2,29999,74,20000,7,0,40,9999,0.100000,0,0,0.000000,5,0.000000,0.000000,1.845523,0,0,0,0,0,0,0
2,29999,75,20000,41,0,49,9999,0.100000,0,0,0.000000,5,3.000000,0.000000,17.083945,0,0,0,0,0,0,0
2,29999,76,20000,7,0,40,9999,0.100000,0,0,0.000000,5,0.000000,0.000000,1.131990,0,0,0,0,0,0,0
2,29999,77,20000,3,0,40,9999,0.100000,0,0,0.000000,5,0.000000,0.000000,0.461421,0,0,0,0,0,0,0
2,29999,78,20000,6,10000,40,9999,0.100000,0,0,0.000000,5,0.000000,0.000000,3.069644,0,0,0,0,0,0,0
2,29999,79,20000,41,0,40,9999,0.100000,0,0,0.000000,5,0.000000,0.000000,10.365676,0,0,0,0,0,0,0
2,29999,80,20000,7,0,49,9999,0.100000,0,0,0.000000,5,4.000000,0.000000,8.868151,0,0,0,0,0,0,0
2,29999,81,20000,41,0,49,9999,0.100000,0,0,0.000000,5,5.000000,0.000000,12.175148,0,0,0,0,0,0,0
2,29999,82,20000,41,0,40,9999,0.100000,0,0,0.000000,5,0.000000,0.000000,11.189578,0,0,0,0,0,0,0
2,29999,83,20000,11,10000,49,9999,0.065000,0,0,0.000000,5,1.000000,0.000000,4.000355,0,0,0,0,0,0,0
2,29999,84,20000,41,0,40,9999,0.100000,0,0,0.000000,5,0.000000,0.000000,0.117823,0,0,0,0,0,0,0
2,29999,85,20000,41,0,40,9999,0.100000,0,0,0.000000,5,0.000000,0.000000,7.362273,0,0,0,0,0,0,0
2,29999,86,20000,3,0,49,9999,0.100000,0,0,0.000000,5,1.000000,0.000000,1.323641,0,0,0,0,0,0,0
2,29999,87,20000,11,10000,40,9999,0.065000,0,0,0.000000,5,0.000000,0.000000,0.422639,0,0,0,0,0,0,0
2,29999,88,20000,7,0,40,9999,0.100000,0,0,0.000000,5,0.000000,0.000000,0.451445,0,0,0,0,0,0,0
2,29999,89,20000,11,10000,49,9999,0.065000,0,0,0.000000,5,1.000000,0.000000,10.066156,0,0,0,0,0,0,0
2,29999,90,20000,7,0,40,9999,0.100000,0,0,0.000000,5,0.000000,0.000000,0.195760,0,0,0,0,0,0,0
2,29999,91,20000,41,0,49,9999,0.100000,0,0,0.000000,5,1.000000,0.000000,18.358289,0,0,0,0,0,0,0
2,29999,92,20000,3,0,49,9999,0.100000,0,0,0.000000,5,1.000000,0.000000,2.007779,0,0,0,0,0,0,0
2,29999,93,20000,7,0,40,9999,0.100000,0,0,0.000000,5,0.000000,0.000000,1.030290,0,0,0,0,0,0,0
2,29999,94,20000,41,0,49,9999,0.100000,0,0,0.000000,5,4.000000,0.000000,10.686395,0,0,0,0,0,0,0
2,29999,95,20000,7,0,49,9999,0.100000,0,0,0.000000,5,5.000000,0.000000,10.475631,0,0,0,0,0,0,0
2,29999,96,20000,3,0,49,9999,0.100000,0,0,0.000000,5,2.000000,0.000000,10.589811,0,0,0,0,0,0,0
2,29999,97,20000,7,0,99,9999,0.100000,0,0,34.210526,5,1.000000,0.000000,7.790201,0,0,1,0,0,0,0
2,29999,98,20000,6,10000,40,9999,0.100000,0,0,0.000000,5,0.000000,0.000000,0.541691,0,0,0,0,0,0,0
2,29999,99,20000,3,0,49,9999,0.100000,0,0,0.000000,5,1.000000,0.000000,2.495005,0,0,0,0,0,0,0
3,39999,0,30000,3,0,40,9999,0.100000,0,0,0.000000,5,0.000000,0.000000,0.207226,0,0,0,0,0,0,0
3,39999,1,30000,41,0,40,9999,0.100000,0,0,0.000000,5,0.000000,0.000000,0.862199,0,0,0,0,0,0,0
3,39999,2,30000,6,10000,49,9999,0.100000,0,0,0.000000,5,6.000000,0.000000,16.074499,0,0,0,0,0,0,0
3,39999,3,30000,41,0,40,9999,0.100000,0,0,0.000000,5,0.000000,0.000000,3.023431,0,0,0,0,0,0,0
3,39999,4,30000,41,10000,40,9999,0.100000,0,0,0.000000,5,0.000000,0.000000,0.202033,0,0,0,0,0,0,0
3,39999,5,30000,7,0,40,9999,0.100000,0,0,0.000000,5,0.000000,0.000000,0.771522,0,0,0,0,0,0,0
3,39999,6,30000,3,0,40,9999,0.100000,0,0,0.000000,5,0.000000,0.000000,0.439965,0,0,0,0,0,0,0
3,39999,7,30000,41,10000,49,9999,0.100000,0,0,0.000000,5,2.000000,0.000000,8.418330,0,0,0,0,0,0,0
3,39999,8,30000,41,0,49,9999,0.100000,0,0,0.000000,5,4.000000,0.000000,6.483157,0,0,0,0,0,0,0
3,39999,9,30000,6,10000,40,9999,0.100000,0,0,0.000000,5,0.000000,0.000000,0.205718,0,0,0,0,0,0,0
3,39999,10,30000,3,0,49,9999,0.100000,0,0,0.000000,5,1.000000,0.000000,3.856486,0,0,0,0,0,0,0
3,39999,11,30000,7,0,49,9999,0.100000,0,0,0.000000,5,1.000000,0.000000,1.378598,0,0,0,0,0,0,0
3,39999,12,20000,41,0,49,19999,0.100000,0,0,0.000000,5,2.000000,0.000000,13.707152,0,0,0,0,0,0,0
3,39999,13,30000,6,10000,40,9999,0.100000,0,0,0.000000,5,0.000000,0.000000,0.242986,0,0,0,0,0,0,0
3,39999,14,30000,7,0,49,9999,0.135000,0,0,0.000000,5,2.000000,0.000000,3.972307,0,0,0,0,0,0,0
3,39999,15,30000,7,0,40,9999,0.100000,0,0,0.000000,5,0.000000,0.000000,0.397497,0,0,0,0,0,0,0
3,39999,16,30000,3,0,40,9999,0.100000,0,0,0.000000,5,0.000000,0.000000,1.865627,0,0,0,0,0,0,0
3,39999,17,30000,3,0,49,9999,0.100000,0,0,0.000000,5,1.000000,0.000000,5.618675,0,0,0,0,0,0,0
3,39999,18,30000,3,0,40,9999,0.100000,0,0,0.000000,5,0.000000,0.000000,0.322750,0,0,0,0,0,0,0
3,39999,19,30000,41,10000,40,9999,0.100000,0,0,0.000000,5,0.000000,0.000000,0.208195,0,0,0,0,0,0,0
3,39999,20,30000,3,0,40,9999,0.100000,0,0,0.000000,5,0.000000,0.000000,1.047552,0,0,0,0,0,0,0
3,39999,21,30000,41,0,40,9999,0.100000,0,0,0.000000,5,0.000000,0.000000,0.156340,0,0,0,0,0,0,0
3,39999,22,30000,41,0,40,9999,0.100000,0,0,0.000000,5,0.000000,0.000000,0.111077,0,0,0,0,0,0,0
3,39999,23,30000,7,0,40,9999,0.100000,0,0,0.000000,5,0.000000,0.000000,2.281448,0,0,0,0,0,0,0
3,39999,24,30000,41,10000,40,9999,0.100000,0,0,0.000000,5,0.000000,0.000000,9.652915,0,0,0,0,0,0,0
3,39999,25,30000,3,0,40,9999,0.100000,0,0,0.000000,5,0.000000,0.000000,0.088580,0,0,0,0,0,0,0
3,39999,26,30000,3,0,49,9999,0.100000,0,0,0.000000,5,5.000000,0.000000,5.863976,0,0,0,0,0,0,0
3,39999,27,30000,7,0,40,9999,0.100000,0,0,0.000000,5,0.000000,0.000000,1.120241,0,0,0,0,0,0,0
3,39999,28,30000,41,10000,40,9999,0.100000,0,0,0.000000,5,0.000000,0.000000,0.150829,0,0,0,0,0,0,0
3,39999,29,30000,3,0,40,9999,0.100000,0,0,0.000000,5,0.000000,0.000000,1.003101,0,0,0,0,0,0,0
3,39999,30,30000,6,10000,40,9999,0.100000,0,0,0.000000,5,0.000000,0.000000,0.110795,0,0,0,0,0,0,0
3,39999,31,30000,6,10000,40,9999,0.100000,0,0,0.000000,5,0.000000,0.000000,0.140456,0,0,0,0,0,0,0
3,39999,32,30000,7,0,40,9999,0.100000,0,0,0.000000,5,0.000000,0.000000,0.908116,0,0,0,0,0,0,0
3,39999,33,30000,3,0,40,9999,0.100000,0,0,0.000000,5,0.000000,0.000000,0.659083,0,0,0,0,0,0,0
3,39999,34,30000,41,10000,40,9999,0.100000,0,0,0.000000,5,0.000000,0.000000,0.299871,0,0,0,0,0,0,0
3,39999,35,30000,41,10000,40,9999,0.100000,0,0,0.000000,5,0.000000,0.000000,1.049140,0,0,0,0,0,0,0
3,39999,36,30000,41,10000,40,9999,0.100000,0,0,0.000000,5,0.000000,0.000000,0.104147,0,0,0,0,0,0,0
3,39999,37,30000,6,10000,49,9999,0.100000,0,0,0.000000,5,2.000000,0.000000,13.949212,0,0,0,0,0,0,0
3,39999,38,30000,6,10000,40,9999,0.100000,0,0,0.000000,5,0.000000,0.000000,0.611740,0,0,0,0,0,0,0
3,39999,39,30000,6,10000,40,9999,0.100000,0,0,0.000000,5,0.000000,0.000000,0.337791,0,0,0,0,0,0,0
3,39999,40,30000,41,10000,40,9999,0.100000,0,0,0.000000,5,0.000000,0.000000,0.173645,0,0,0,0,0,0,0
3,39999,41,30000,7,0,40,9999,0.100000,0,0,0.000000,5,0.000000,0.000000,0.198080,0,0,0,0,0,0,0
3,39999,42,30000,41,10000,49,9999,0.100000,0,0,0.000000,5,9.000000,0.000000,9.415905,0,0,0,0,0,0,0
3,39999,43,30000,6,10000,40,9999,0.100000,0,0,0.000000,5,0.000000,0.000000,0.009491,0,0,0,0,0,0,0
3,39999,44,30000,41,10000,49,9999,0.100000,0,0,0.000000,5,1.000000,0.000000,4.224584,0,0,0,0,0,0,0
3,39999,45,30000,6,10000,40,9999,0.100000,0,0,0.000000,5,0.000000,0.000000,5.584651,0,0,0,0,0,0,0
3,39999,46,30000,6,10000,40,9999,0.100000,0,0,0.000000,5,0.000000,0.000000,0.421002,0,0,0,0,0,0,0
3,39999,47,30000,41,10000,40,9999,0.100000,0,0,0.000000,5,0.000000,0.000000,0.432018,0,0,0,0,0,0,0
3,39999,48,30000,6,10000,40,9999,0.100000,0,0,0.000000,5,0.000000,0.000000,0.100623,0,0,0,0,0,0,0
3,39999,49,30000,3,0,49,9999,0.100000,0,0,0.000000,5,2.000000,0.000000,8.339466,0,0,0,0,0,0,0
3,39999,50,30000,41,0,49,9999,0.100000,0,0,0.000000,5,2.000000,0.000000,2.814466,0,0,0,0,0,0,0
3,39999,51,30000,6,10000,40,9999,0.100000,0,0,0.000000,5,0.000000,0.000000,0.110023,0,0,0,0,0,0,0
3,39999,52,30000,41,0,49,9999,0.100000,0,0,0.000000,5,6.000000,0.000000,16.137544,0,0,0,0,0,0,0
3,39999,53,30000,6,10000,49,9999,0.100000,0,0,0.000000,5,6.000000,0.000000,15.450212,0,0,0,0,0,0,0
3,39999,54,30000,41,10000,40,9999,0.100000,0,0,0.000000,5,0.000000,0.000000,1.341602,0,0,0,0,0,0,0
3,39999,55,30000,6,10000,40,9999,0.100000,0,0,0.000000,5,0.000000,0.000000,0.628974,0,0,0,0,0,0,0
3,39999,56,30000,6,10000,40,9999,0.100000,0,0,0.000000,5,0.000000,0.000000,0.252588,0,0,0,0,0,0,0
3,39999,57,30000,7,0,40,9999,0.100000,0,0,0.000000,5,0.000000,0.000000,0.187835,0,0,0,0,0,0,0
3,39999,58,30000,6,10000,40,9999,0.100000,0,0,0.000000,5,0.000000,0.000000,0.281859,0,0,0,0,0,0,0
3,39999,59,30000,7,0,40,9999,0.100000,0,0,0.000000,5,0.000000,0.000000,0.191020,0,0,0,0,0,0,0
3,39999,60,30000,41,0,49,9999,0.100000,0,0,0.000000,5,1.000000,0.000000,3.367369,0,0,0,0,0,0,0
3,39999,61,30000,6,10000,40,9999,0.100000,0,0,0.000000,5,0.000000,0.000000,24.142718,0,0,0,0,0,0,0
3,39999,62,30000,41,0,40,9999,0.100000,0,0,0.000000,5,0.000000,0.000000,0.410542,0,0,0,0,0,0,0
3,39999,63,30000,41,10000,40,9999,0.100000,0,0,0.000000,5,0.000000,0.000000,0.583687,0,0,0,0,0,0,0
3,39999,64,30000,6,10000,40,9999,0.100000,0,0,0.000000,5,0.000000,0.000000,0.509241,0,0,0,0,0,0,0
3,39999,65,30000,6,10000,40,9999,0.100000,0,0,0.000000,5,0.000000,0.000000,0.481000,0,0,0,0,0,0,0
3,39999,66,30000,41,10000,49,9999,0.100000,0,0,0.000000,5,3.000000,0.000000,15.003303,0,0,0,0,0,0,0
3,39999,67,30000,41,10000,49,9999,0.100000,0,0,0.000000,5,2.000000,0.000000,8.801438,0,0,0,0,0,0,0
3,39999,68,30000,6,10000,40,9999,0.100000,0,0,0.000000,5,0.000000,0.000000,0.079032,0,0,0,0,0,0,0
3,39999,69,30000,41,0,40,9999,0.100000,0,0,0.000000,5,0.000000,0.000000,0.099610,0,0,0,0,0,0,0
3,39999,70,30000,41,0,40,9999,0.100000,0,0,0.000000,5,0.000000,0.000000,1.018435,0,0,0,0,0,0,0
3,39999,71,30000,3,0,40,9999,0.100000,0,0,0.000000,5,0.000000,0.000000,1.016290,0,0,0,0,0,0,0
3,39999,72,30000,3,0,40,9999,0.100000,0,0,0.000000,5,0.000000,0.000000,0.491745,0,0,0,0,0,0,0
3,39999,73,30000,7,0,49,9999,0.100000,0,0,0.000000,5,1.000000,0.000000,8.595641,0,0,0,0,0,0,0
3,39999,74,30000,7,0,49,9999,0.100000,0,0,0.000000,5,1.000000,0.000000,3.540133,0,0,0,0,0,0,0
3,39999,75,30000,7,0,49,9999,0.100000,0,0,0.000000,5,3.000000,0.000000,5.052168,0,0,0,0,0,0,0
3,39999,76,30000,7,0,40,9999,0.100000,0,0,0.000000,5,0.000000,0.000000,0.166070,0,0,0,0,0,0,0
3,39999,77,30000,6,10000,40,9999,0.100000,0,0,0.000000,5,0.000000,0.000000,0.381468,0,0,0,0,0,0,0
3,39999,78,30000,41,10000,40,9999,0.100000,0,0,0.000000,5,0.000000,0.000000,0.318656,0,0,0,0,0,0,0
3,39999,79,30000,41,10000,49,9999,0.100000,0,0,0.000000,5,3.000000,0.000000,9.908377,0,0,0,0,0,0,0
3,39999,80,30000,3,0,40,9999,0.100000,0,0,0.000000,5,0.000000,0.000000,0.124637,0,0,0,0,0,0,0
3,39999,81,30000,41,0,49,9999,0.100000,0,0,0.000000,5,5.000000,0.000000,7.479200,0,0,0,0,0,0,0
3,39999,82,30000,41,10000,49,9999,0.100000,0,0,0.000000,5,3.000000,0.000000,15.450962,0,0,0,0,0,0,0
3,39999,83,30000,3,0,49,9999,0.100000,0,0,0.000000,5,1.000000,0.000000,6.198311,0,0,0,0,0,0,0
3,39999,84,30000,7,0,40,9999,0.100000,0,0,0.000000,5,0.000000,0.000000,0.123662,0,0,0,0,0,0,0
3,39999,85,30000,6,10000,40,9999,0.100000,0,0,0.000000,5,0.000000,0.000000,8.640822,0,0,0,0,0,0,0
3,39999,86,30000,41,10000,40,9999,0.100000,0,0,0.000000,5,0.000000,0.000000,1.116936,0,0,0,0,0,0,0
3,39999,87,30000,6,10000,40,9999,0.100000,0,0,0.000000,5,0.000000,0.000000,0.477466,0,0,0,0,0,0,0
3,39999,88,30000,6,10000,40,9999,0.100000,0,0,0.000000,5,0.000000,0.000000,0.458590,0,0,0,0,0,0,0
3,39999,89,30000,3,0,49,9999,0.100000,0,0,0.000000,5,2.000000,0.000000,4.841872,0,0,0,0,0,0,0
3,39999,90,30000,7,0,40,9999,0.100000,0,0,0.000000,5,0.000000,0.000000,0.155954,0,0,0,0,0,0,0
3,39999,91,30000,6,10000,49,9999,0.100000,0,0,0.000000,5,3.000000,0.000000,13.934950,0,0,0,0,0,0,0
3,39999,92,20000,3,0,49,19999,0.100000,0,0,0.000000,5,1.000000,0.000000,3.949945,0,0,0,0,0,0,0
3,39999,93,30000,6,10000,40,9999,0.100000,0,0,0.000000,5,0.000000,0.000000,0.988971,0,0,0,0,0,0,0
3,39999,94,30000,41,0,49,9999,0.100000,0,0,0.000000,5,8.000000,0.000000,14.977674,0,0,0,0,0,0,0
3,39999,95,30000,41,10000,49,9999,0.100000,0,0,0.000000,5,5.000000,0.000000,6.154202,0,0,0,0,0,0,0
3,39999,96,30000,41,0,49,9999,0.100000,0,0,0.000000,5,2.000000,0.000000,11.363826,0,0,0,0,0,0,0
3,39999,97,20000,7,0,49,19999,0.100000,0,0,0.000000,5,3.000000,0.000000,6.675855,0,0,0,0,0,0,0
3,39999,98,30000,3,0,40,9999,0.100000,0,0,0.000000,5,0.000000,0.000000,0.819638,0,0,0,0,0,0,0
3,39999,99,30000,6,10000,40,9999,0.100000,0,0,0.000000,5,0.000000,0.000000,1.008289,0,0,0,0,0,0,0
4,49999,0,40000,41,0,40,9999,0.100000,0,0,0.000000,5,0.000000,0.000000,0.224546,0,0,0,0,0,0,0
4,49999,1,40000,3,0,40,9999,0.100000,0,0,0.000000,5,0.000000,0.000000,0.464776,0,0,0,0,0,0,0
4,49999,2,40000,7,0,49,9999,0.100000,0,0,0.000000,5,2.000000,0.000000,13.998694,0,0,0,0,0,0,0
4,49999,3,40000,6,10000,40,9999,0.100000,0,0,0.000000,5,0.000000,0.000000,1.032651,0,0,0,0,0,0,0
4,49999,4,40000,6,10000,40,9999,0.100000,0,0,0.000000,5,0.000000,0.000000,0.205226,0,0,0,0,0,0,0
4,49999,5,40000,6,10000,40,9999,0.100000,0,0,0.000000,5,0.000000,0.000000,0.841676,0,0,0,0,0,0,0
4,49999,6,40000,41,0,40,9999,0.100000,0,0,0.000000,5,0.000000,0.000000,0.728659,0,0,0,0,0,0,0
4,49999,7,40000,41,0,49,9999,0.100000,0,0,0.000000,5,1.000000,0.000000,5.237254,0,0,0,0,0,0,0
4,49999,8,40000,7,0,40,9999,0.100000,0,0,0.000000,5,0.000000,0.000000,1.000039,0,0,0,0,0,0,0
4,49999,9,40000,41,0,40,9999,0.100000,0,0,0.000000,5,0.000000,0.000000,0.177298,0,0,0,0,0,0,0
4,49999,10,40000,41,0,40,9999,0.100000,0,0,0.000000,5,0.000000,0.000000,4.402559,0,0,0,0,0,0,0
4,49999,11,40000,7,0,49,9999,0.100000,0,0,0.000000,5,2.000000,0.000000,3.914665,0,0,0,0,0,0,0
4,49999,12,40000,6,10000,49,9999,0.100000,0,0,0.000000,5,3.000000,0.000000,13.074701,0,0,0,0,0,0,0
4,49999,13,40000,41,0,40,9999,0.100000,0,0,0.000000,5,0.000000,0.000000,0.162313,0,0,0,0,0,0,0
4,49999,14,40000,41,0,49,9999,0.100000,0,0,0.000000,5,2.000000,0.000000,18.738659,0,0,0,0,0,0,0
4,49999,15,40000,3,0,40,9999,0.100000,0,0,0.000000,5,0.000000,0.000000,0.397869,0,0,0,0,0,0,0
4,49999,16,40000,41,0,40,9999,0.100000,0,0,0.000000,5,0.000000,0.000000,0.595676,0,0,0,0,0,0,0
4,49999,17,40000,6,10000,49,9999,0.100000,0,0,0.000000,5,1.000000,0.000000,2.843399,0,0,0,0,0,0,0
4,49999,18,40000,41,0,49,9999,0.100000,0,0,0.000000,5,1.000000,0.000000,1.654521,0,0,0,0,0,0,0
4,49999,19,40000,41,0,40,9999,0.100000,0,0,0.000000,5,0.000000,0.000000,0.113627,0,0,0,0,0,0,0
4,49999,20,40000,7,0,40,9999,0.100000,0,0,0.000000,5,0.000000,0.000000,1.109420,0,0,0,0,0,0,0
4,49999,21,40000,41,10000,40,9999,0.100000,0,0,0.000000,5,0.000000,0.000000,0.533562,0,0,0,0,0,0,0
4,49999,22,40000,3,0,40,9999,0.100000,0,0,0.000000,5,0.000000,0.000000,0.141126,0,0,0,0,0,0,0
4,49999,23,40000,6,10000,40,9999,0.100000,0,0,0.000000,5,0.000000,0.000000,1.535679,0,0,0,0,0,0,0
4,49999,24,40000,7,0,40,9999,0.100000,0,0,0.000000,5,0.000000,0.000000,0.949089,0,0,0,0,0,0,0
4,49999,25,40000,41,10000,40,9999,0.100000,0,0,0.000000,5,0.000000,0.000000,0.087055,0,0,0,0,0,0,0
4,49999,26,40000,41,10000,49,9999,0.100000,0,0,0.000000,5,3.000000,0.000000,4.481910,0,0,0,0,0,0,0
4,49999,27,40000,41,10000,49,9999,0.100000,0,0,0.000000,5,7.000000,0.000000,8.612724,0,0,0,0,0,0,0
4,49999,28,40000,7,0,40,9999,0.100000,0,0,0.000000,5,0.000000,0.000000,0.150470,0,0,0,0,0,0,0
4,49999,29,40000,41,10000,49,9999,0.100000,0,0,0.000000,5,1.000000,0.000000,3.393839,0,0,0,0,0,0,0
4,49999,30,40000,41,0,40,9999,0.100000,0,0,0.000000,5,0.000000,0.000000,0.110047,0,0,0,0,0,0,0
4,49999,31,40000,41,10000,40,9999,0.100000,0,0,0.000000,5,0.000000,0.000000,0.506407,0,0,0,0,0,0,0
4,49999,32,40000,41,10000,40,9999,0.100000,0,0,0.000000,5,0.000000,0.000000,0.494187,0,0,0,0,0,0,0
4,49999,33,40000,6,10000,40,9999,0.100000,0,0,0.000000,5,0.000000,0.000000,1.556691,0,0,0,0,0,0,0
4,49999,34,40000,41,0,40,9999,0.100000,0,0,0.000000,5,0.000000,0.000000,0.260869,0,0,0,0,0,0,0
4,49999,35,40000,6,10000,40,9999,0.100000,0,0,0.000000,5,0.000000,0.000000,0.848238,0,0,0,0,0,0,0
4,49999,36,40000,6,10000,40,9999,0.100000,0,0,0.000000,5,0.000000,0.000000,0.467295,0,0,0,0,0,0,0
4,49999,37,40000,6,10000,49,9999,0.100000,0,0,0.000000,5,1.000000,0.000000,7.562978,0,0,0,0,0,0,0
4,49999,38,40000,41,0,40,9999,0.100000,0,0,0.000000,5,0.000000,0.000000,0.576217,0,0,0,0,0,0,0
4,49999,39,40000,41,10000,40,9999,0.100000,0,0,0.000000,5,0.000000,0.000000,0.382265,0,0,0,0,0,0,0
4,49999,40,40000,41,0,40,9999,0.100000,0,0,0.000000,5,0.000000,0.000000,0.155929,0,0,0,0,0,0,0
4,49999,41,40000,3,0,40,9999,0.100000,0,0,0.000000,5,0.000000,0.000000,0.210023,0,0,0,0,0,0,0
4,49999,42,40000,3,0,40,9999,0.100000,0,0,0.000000,5,0.000000,0.000000,0.233967,0,0,0,0,0,0,0
4,49999,43,40000,41,10000,49,9999,0.100000,0,0,0.000000,5,10.000000,0.000000,13.616147,0,0,0,0,0,0,0
4,49999,44,40000,6,10000,49,9999,0.100000,0,0,0.000000,5,1.000000,0.000000,3.074901,0,0,0,0,0,0,0
4,49999,45,40000,3,0,49,9999,0.100000,0,0,0.000000,5,1.000000,0.000000,10.918567,0,0,0,0,0,0,0
4,49999,46,40000,41,10000,40,9999,0.100000,0,0,0.000000,5,0.000000,0.000000,0.394474,0,0,0,0,0,0,0
4,49999,47,40000,7,0,40,9999,0.100000,0,0,0.000000,5,0.000000,0.000000,0.497699,0,0,0,0,0,0,0
4,49999,48,40000,41,0,40,9999,0.100000,0,0,0.000000,5,0.000000,0.000000,0.101155,0,0,0,0,0,0,0
4,49999,49,40000,7,0,49,9999,0.100000,0,0,0.000000,5,1.000000,0.000000,6.050649,0,0,0,0,0,0,0
4,49999,50,40000,6,10000,49,9999,0.100000,0,0,0.000000,5,5.000000,0.000000,7.288927,0,0,0,0,0,0,0
4,49999,51,40000,6,10000,40,9999,0.100000,0,0,0.000000,5,0.000000,0.000000,0.276135,0,0,0,0,0,0,0
4,49999,52,40000,7,0,49,9999,0.100000,0,0,0.000000,5,2.000000,0.000000,14.004652,0,0,0,0,0,0,0
4,49999,53,40000,7,0,49,9999,0.100000,0,0,0.000000,5,1.000000,0.000000,4.198391,0,0,0,0,0,0,0
4,49999,54,40000,41,0,40,9999,0.100000,0,0,0.000000,5,0.000000,0.000000,1.790027,0,0,0,0,0,0,0
4,49999,55,40000,3,0,40,9999,0.100000,0,0,0.000000,5,0.000000,0.000000,0.481457,0,0,0,0,0,0,0
4,49999,56,40000,3,0,40,9999,0.100000,0,0,0.000000,5,0.000000,0.000000,1.034887,0,0,0,0,0,0,0
4,49999,57,40000,6,10000,40,9999,0.100000,0,0,0.000000,5,0.000000,0.000000,0.170913,0,0,0,0,0,0,0
4,49999,58,40000,41,10000,40,9999,0.100000,0,0,0.000000,5,0.000000,0.000000,0.193907,0,0,0,0,0,0,0
4,49999,59,40000,41,10000,40,9999,0.100000,0,0,0.000000,5,0.000000,0.000000,0.191393,0,0,0,0,0,0,0
4,49999,60,40000,41,0,40,9999,0.100000,0,0,0.000000,5,0.000000,0.000000,1.644416,0,0,0,0,0,0,0
4,49999,61,40000,7,0,49,9999,0.100000,0,0,0.000000,5,2.000000,0.000000,7.060380,0,0,0,0,0,0,0
4,49999,62,40000,6,10000,40,9999,0.100000,0,0,0.000000,5,0.000000,0.000000,0.532161,0,0,0,0,0,0,0
4,49999,63,40000,41,10000,40,9999,0.100000,0,0,0.000000,5,0.000000,0.000000,2.379921,0,0,0,0,0,0,0
4,49999,64,40000,7,0,40,9999,0.100000,0,0,0.000000,5,0.000000,0.000000,0.610038,0,0,0,0,0,0,0
4,49999,65,40000,3,0,49,9999,0.100000,0,0,0.000000,5,1.000000,0.000000,1.701644,0,0,0,0,0,0,0
4,49999,66,40000,7,0,49,9999,0.100000,0,0,0.000000,5,1.000000,0.000000,7.562608,0,0,0,0,0,0,0
4,49999,67,40000,41,10000,9,9999,0.100000,0,0,0.000000,5,1.000000,0.000000,6.993784,0,0,0,0,1,0,0
4,49999,68,40000,41,0,40,9999,0.100000,0,0,0.000000,5,0.000000,0.000000,0.098569,0,0,0,0,0,0,0
4,49999,69,40000,41,10000,40,9999,0.100000,0,0,0.000000,5,0.000000,0.000000,0.097875,0,0,0,0,0,0,0
4,49999,70,30000,41,0,40,19999,0.100000,0,0,0.000000,5,0.000000,0.000000,1.030228,0,0,0,0,0,0,0
4,49999,71,40000,41,0,40,9999,0.100000,0,0,0.000000,5,0.000000,0.000000,0.888026,0,0,0,0,0,0,0
4,49999,72,40000,7,0,40,9999,0.100000,0,0,0.000000,5,0.000000,0.000000,0.501021,0,0,0,0,0,0,0
4,49999,73,40000,3,0,49,9999,0.100000,0,0,0.000000,5,2.000000,0.000000,10.928319,0,0,0,0,0,0,0
4,49999,74,40000,6,10000,40,9999,0.100000,0,0,0.000000,5,0.000000,0.000000,0.424600,0,0,0,0,0,0,0
4,49999,75,40000,7,0,40,9999,0.100000,0,0,0.000000,5,0.000000,0.000000,1.015254,0,0,0,0,0,0,0
4,49999,76,40000,7,0,40,9999,0.100000,0,0,0.000000,5,0.000000,0.000000,0.166175,0,0,0,0,0,0,0
4,49999,77,40000,3,0,40,9999,0.100000,0,0,0.000000,5,0.000000,0.000000,0.428929,0,0,0,0,0,0,0
4,49999,78,40000,6,10000,49,9999,0.100000,0,0,0.000000,5,2.000000,0.000000,2.421348,0,0,0,0,0,0,0
4,49999,79,40000,41,10000,49,9999,0.100000,0,0,0.000000,5,2.000000,0.000000,7.101507,0,0,0,0,0,0,0
4,49999,80,40000,41,10000,40,9999,0.100000,0,0,0.000000,5,0.000000,0.000000,0.137343,0,0,0,0,0,0,0
4,49999,81,40000,3,0,49,9999,0.100000,0,0,0.000000,5,4.000000,0.000000,8.005190,0,0,0,0,0,0,0
4,49999,82,40000,6,10000,49,9999,0.100000,0,0,0.000000,5,3.000000,0.000000,11.797003,0,0,0,0,0,0,0
4,49999,83,40000,6,10000,49,9999,0.100000,0,0,0.000000,5,1.000000,0.000000,3.593886,0,0,0,0,0,0,0
4,49999,84,40000,7,0,40,9999,0.100000,0,0,0.000000,5,0.000000,0.000000,0.260465,0,0,0,0,0,0,0
4,49999,85,40000,6,10000,49,9999,0.100000,0,0,0.000000,5,2.000000,0.000000,14.474731,0,0,0,0,0,0,0
4,49999,86,40000,6,10000,40,9999,0.100000,0,0,0.000000,5,0.000000,0.000000,0.976452,0,0,0,0,0,0,0
4,49999,87,40000,3,0,40,9999,0.100000,0,0,0.000000,5,0.000000,0.000000,0.566945,0,0,0,0,0,0,0
4,49999,88,40000,41,0,40,9999,0.100000,0,0,0.000000,5,0.000000,0.000000,0.496836,0,0,0,0,0,0,0
4,49999,89,40000,41,0,40,9999,0.100000,0,0,0.000000,5,0.000000,0.000000,1.017445,0,0,0,0,0,0,0
4,49999,90,40000,41,0,40,9999,0.100000,0,0,0.000000,5,0.000000,0.000000,0.163419,0,0,0,0,0,0,0
4,49999,91,40000,41,10000,49,9999,0.100000,0,0,0.000000,5,6.000000,0.000000,16.078344,0,0,0,0,0,0,0
4,49999,92,40000,3,0,40,9999,0.100000,0,0,0.000000,5,0.000000,0.000000,0.498876,0,0,0,0,0,0,0
4,49999,93,40000,6,10000,40,9999,0.100000,0,0,0.000000,5,0.000000,0.000000,1.013068,0,0,0,0,0,0,0
4,49999,94,40000,3,0,49,9999,0.100000,0,0,0.000000,5,8.000000,0.000000,12.730960,0,0,0,0,0,0,0
4,49999,95,40000,41,10000,49,9999,0.100000,0,0,0.000000,5,4.000000,0.000000,6.624484,0,0,0,0,0,0,0
4,49999,96,40000,3,0,49,9999,0.100000,0,0,0.000000,5,3.000000,0.000000,8.255722,0,0,0,0,0,0,0
4,49999,97,40000,6,10000,49,9999,0.100000,0,0,0.000000,5,2.000000,0.000000,5.978980,0,0,0,0,0,0,0
4,49999,98,40000,6,10000,40,9999,0.100000,0,0,0.000000,5,0.000000,0.000000,0.440806,0,0,0,0,0,0,0
4,49999,99,40000,3,0,49,9999,0.100000,0,0,0.000000,5,2.000000,0.000000,2.833126,0,0,0,0,0,0,0
5,59999,0,50000,11,40000,49,9999,0.100000,0,0,0.000000,5,2.000000,0.000000,2.653832,0,0,0,0,0,0,0
5,59999,1,50000,3,0,49,9999,0.100000,0,0,0.000000,5,1.000000,0.000000,2.276999,0,0,0,0,0,0,0
5,59999,2,50000,7,0,49,9999,0.100000,0,0,0.000000,5,6.000000,0.000000,14.355050,0,0,0,0,0,0,0
5,59999,3,50000,6,10000,40,9999,0.100000,0,0,0.000000,5,0.000000,0.000000,1.025413,0,0,0,0,0,0,0
5,59999,4,50000,41,10000,40,9999,0.100000,0,0,0.000000,5,0.000000,0.000000,0.211857,0,0,0,0,0,0,0
5,59999,5,50000,7,0,40,9999,0.100000,0,0,0.000000,5,0.000000,0.000000,0.977804,0,0,0,0,0,0,0
5,59999,6,50000,11,40000,40,9999,0.100000,0,0,0.000000,5,0.000000,0.000000,0.175350,0,0,0,0,0,0,0
5,59999,7,50000,6,10000,40,9999,0.100000,0,0,0.000000,5,0.000000,0.000000,1.908967,0,0,0,0,0,0,0
5,59999,8,50000,41,10000,40,9999,0.100000,0,0,0.000000,5,0.000000,0.000000,0.985648,0,0,0,0,0,0,0
5,59999,9,50000,3,0,40,9999,0.100000,0,0,0.000000,5,0.000000,0.000000,0.179630,0,0,0,0,0,0,0
5,59999,10,50000,41,10000,49,9999,0.100000,0,0,0.000000,5,5.000000,0.000000,7.710068,0,0,0,0,0,0,0
5,59999,11,50000,11,40000,40,9999,0.100000,0,0,0.000000,5,0.000000,0.000000,1.326057,0,0,0,0,0,0,0
5,59999,12,50000,41,0,49,9999,0.100000,0,0,0.000000,5,1.000000,0.000000,4.390596,0,0,0,0,0,0,0
5,59999,13,50000,11,40000,40,9999,0.100000,0,0,0.000000,5,0.000000,0.000000,0.164896,0,0,0,0,0,0,0
5,59999,14,50000,41,10000,40,9999,0.100000,0,0,0.000000,5,0.000000,0.000000,3.143818,0,0,0,0,0,0,0
5,59999,15,50000,7,0,40,9999,0.100000,0,0,0.000000,5,0.000000,0.000000,0.341567,0,0,0,0,0,0,0
5,59999,16,50000,11,40000,40,9999,0.100000,0,0,0.000000,5,0.000000,0.000000,0.657633,0,0,0,0,0,0,0
5,59999,17,50000,7,0,40,9999,0.100000,0,0,0.000000,5,0.000000,0.000000,2.180153,0,0,0,0,0,0,0
5,59999,18,50000,11,40000,40,9999,0.100000,0,0,0.000000,5,0.000000,0.000000,2.307917,0,0,0,0,0,0,0
5,59999,19,50000,6,10000,40,9999,0.100000,0,0,0.000000,5,0.000000,0.000000,1.248465,0,0,0,0,0,0,0
5,59999,20,50000,11,40000,49,9999,0.100000,0,0,0.000000,5,1.000000,0.000000,4.162118,0,0,0,0,0,0,0
5,59999,21,50000,41,10000,40,9999,0.100000,0,0,0.000000,5,0.000000,0.000000,0.674482,0,0,0,0,0,0,0
5,59999,22,50000,7,0,40,9999,0.100000,0,0,0.000000,5,0.000000,0.000000,0.138850,0,0,0,0,0,0,0
5,59999,23,50000,3,0,40,9999,0.065000,0,0,0.000000,5,0.000000,0.000000,0.626594,0,0,0,0,0,0,0
5,59999,24,50000,11,40000,40,9999,0.100000,0,0,0.000000,5,0.000000,0.000000,0.686255,0,0,0,0,0,0,0
5,59999,25,50000,7,0,40,9999,0.100000,0,0,0.000000,5,0.000000,0.000000,0.086861,0,0,0,0,0,0,0
5,59999,26,50000,6,10000,49,9999,0.100000,0,0,0.000000,5,1.000000,0.000000,3.687320,0,0,0,0,0,0,0
5,59999,27,50000,7,0,40,9999,0.100000,0,0,0.000000,5,0.000000,0.000000,1.320828,0,0,0,0,0,0,0
5,59999,28,50000,41,10000,40,9999,0.100000,0,0,0.000000,5,0.000000,0.000000,0.151292,0,0,0,0,0,0,0
5,59999,29,50000,6,10000,40,9999,0.100000,0,0,0.000000,5,0.000000,0.000000,1.025544,0,0,0,0,0,0,0
5,59999,30,50000,41,10000,40,9999,0.100000,0,0,0.000000,5,0.000000,0.000000,0.115033,0,0,0,0,0,0,0
5,59999,31,50000,7,0,40,9999,0.100000,0,0,0.000000,5,0.000000,0.000000,0.802810,0,0,0,0,0,0,0
5,59999,32,50000,41,10000,40,9999,0.100000,0,0,0.000000,5,0.000000,0.000000,0.464287,0,0,0,0,0,0,0
5,59999,33,50000,3,0,49,9999,0.100000,0,0,0.000000,5,2.000000,0.000000,5.065371,0,0,0,0,0,0,0
5,59999,34,50000,6,10000,40,9999,0.100000,0,0,0.000000,5,0.000000,0.000000,0.251852,0,0,0,0,0,0,0
5,59999,35,50000,41,10000,40,9999,0.100000,0,0,0.000000,5,0.000000,0.000000,0.813914,0,0,0,0,0,0,0
5,59999,36,50000,11,40000,40,9999,0.100000,0,0,0.000000,5,0.000000,0.000000,0.121373,0,0,0,0,0,0,0
5,59999,37,50000,6,10000,49,9999,0.100000,0,0,0.000000,5,2.000000,0.000000,8.405663,0,0,0,0,0,0,0
5,59999,38,50000,7,0,40,9999,0.100000,0,0,0.000000,5,0.000000,0.000000,0.377557,0,0,0,0,0,0,0
5,59999,39,50000,11,40000,49,9999,0.100000,0,0,0.000000,5,2.000000,0.000000,2.875899,0,0,0,0,0,0,0
5,59999,40,50000,6,10000,40,9999,0.100000,0,0,0.000000,5,0.000000,0.000000,0.146194,0,0,0,0,0,0,0
5,59999,41,50000,3,0,40,9999,0.100000,0,0,0.000000,5,0.000000,0.000000,0.502563,0,0,0,0,0,0,0
5,59999,42,50000,7,0,40,9999,0.100000,0,0,0.000000,5,0.000000,0.000000,0.225375,0,0,0,0,0,0,0
5,59999,43,50000,41,10000,49,9999,0.100000,0,0,0.000000,5,1.000000,0.000000,3.966450,0,0,0,0,0,0,0
5,59999,44,50000,41,10000,40,9999,0.100000,0,0,0.000000,5,0.000000,0.000000,17.007550,0,0,0,0,0,0,0
5,59999,45,50000,7,0,49,9999,0.100000,0,0,0.000000,5,2.000000,0.000000,9.523923,0,0,0,0,0,0,0
5,59999,46,50000,6,10000,40,9999,0.100000,0,0,0.000000,5,0.000000,0.000000,1.713337,0,0,0,0,0,0,0
5,59999,47,50000,3,0,40,9999,0.100000,0,0,0.000000,5,0.000000,0.000000,0.561946,0,0,0,0,0,0,0
5,59999,48,50000,41,10000,49,9999,0.100000,0,0,0.000000,5,1.000000,0.000000,2.179041,0,0,0,0,0,0,0
5,59999,49,50000,6,10000,49,9999,0.100000,0,0,0.000000,5,1.000000,0.000000,5.563960,0,0,0,0,0,0,0
5,59999,50,50000,11,40000,40,9999,0.100000,0,0,0.000000,5,0.000000,0.000000,1.390284,0,0,0,0,0,0,0
5,59999,51,50000,7,0,40,9999,0.100000,0,0,0.000000,5,0.000000,0.000000,0.175559,0,0,0,0,0,0,0
5,59999,52,50000,3,0,49,9999,0.100000,0,0,0.000000,5,6.000000,0.000000,13.949125,0,0,0,0,0,0,0
5,59999,53,50000,6,10000,40,9999,0.135000,0,0,0.000000,5,0.000000,0.000000,13.049990,0,0,0,0,0,0,0
5,59999,54,50000,41,10000,49,9999,0.100000,0,0,0.000000,5,1.000000,0.000000,2.821898,0,0,0,0,0,0,0
5,59999,55,50000,41,10000,40,9999,0.100000,0,0,0.000000,5,0.000000,0.000000,5.469847,0,0,0,0,0,0,0
5,59999,56,50000,6,10000,40,9999,0.100000,0,0,0.000000,5,0.000000,0.000000,0.677427,0,0,0,0,0,0,0
5,59999,57,50000,11,40000,40,9999,0.100000,0,0,0.000000,5,0.000000,0.000000,0.165909,0,0,0,0,0,0,0
5,59999,58,50000,6,10000,40,9999,0.100000,0,0,0.000000,5,0.000000,0.000000,0.334027,0,0,0,0,0,0,0
5,59999,59,50000,3,0,40,9999,0.100000,0,0,0.000000,5,0.000000,0.000000,0.190535,0,0,0,0,0,0,0
5,59999,60,50000,6,10000,40,9999,0.100000,0,0,0.000000,5,0.000000,0.000000,0.715438,0,0,0,0,0,0,0
5,59999,61,50000,3,0,40,9999,0.100000,0,0,0.000000,5,0.000000,0.000000,1.630087,0,0,0,0,0,0,0
5,59999,62,50000,3,0,40,9999,0.100000,0,0,0.000000,5,0.000000,0.000000,0.544797,0,0,0,0,0,0,0
5,59999,63,50000,11,40000,49,9999,0.100000,0,0,0.000000,5,2.000000,0.000000,4.763481,0,0,0,0,0,0,0
5,59999,64,50000,3,0,40,9999,0.100000,0,0,0.000000,5,0.000000,0.000000,0.702038,0,0,0,0,0,0,0
5,59999,65,50000,41,10000,40,9999,0.100000,0,0,0.000000,5,0.000000,0.000000,0.703099,0,0,0,0,0,0,0
5,59999,66,50000,3,0,49,9999,0.100000,0,0,0.000000,5,1.000000,0.000000,10.137270,0,0,0,0,0,0,0
5,59999,67,50000,6,10000,49,9999,0.100000,0,0,0.000000,5,1.000000,0.000000,13.295942,0,0,0,0,0,0,0
5,59999,68,50000,7,0,40,9999,0.100000,0,0,0.000000,5,0.000000,0.000000,0.097837,0,0,0,0,0,0,0
5,59999,69,50000,11,40000,40,9999,0.100000,0,0,0.000000,5,0.000000,0.000000,0.153561,0,0,0,0,0,0,0
5,59999,70,50000,6,10000,40,9999,0.100000,0,0,0.000000,5,0.000000,0.000000,1.030423,0,0,0,0,0,0,0
5,59999,71,50000,3,0,49,9999,0.100000,0,0,0.000000,5,1.000000,0.000000,8.226213,0,0,0,0,0,0,0
5,59999,72,50000,41,10000,49,9999,0.100000,0,0,0.000000,5,4.000000,0.000000,11.008946,0,0,0,0,0,0,0
5,59999,73,50000,3,0,40,9999,0.100000,0,0,0.000000,5,0.000000,0.000000,1.813796,0,0,0,0,0,0,0
5,59999,74,50000,11,40000,40,9999,0.100000,0,0,0.000000,5,0.000000,0.000000,0.358591,0,0,0,0,0,0,0
5,59999,75,50000,41,10000,40,9999,0.100000,0,0,0.000000,5,0.000000,0.000000,0.942374,0,0,0,0,0,0,0
5,59999,76,50000,11,40000,40,9999,0.100000,0,0,0.000000,5,0.000000,0.000000,0.167726,0,0,0,0,0,0,0
5,59999,77,50000,6,10000,40,9999,0.100000,0,0,0.000000,5,0.000000,0.000000,0.454867,0,0,0,0,0,0,0
5,59999,78,50000,6,10000,49,9999,0.100000,0,0,0.000000,5,1.000000,0.000000,3.908305,0,0,0,0,0,0,0
5,59999,79,50000,11,40000,49,9999,0.100000,0,0,0.000000,5,4.000000,0.000000,9.278436,0,0,0,0,0,0,0
5,59999,80,50000,41,10000,49,9999,0.100000,0,0,0.000000,5,2.000000,0.000000,2.246016,0,0,0,0,0,0,0
5,59999,81,50000,6,10000,9,9999,0.100000,0,0,0.000000,5,1.000000,0.000000,13.624197,0,0,0,1,0,0,0
5,59999,82,50000,41,10000,40,9999,0.100000,0,0,0.000000,5,0.000000,0.000000,2.268783,0,0,0,0,0,0,0
5,59999,83,50000,41,10000,49,9999,0.100000,0,0,0.000000,5,1.000000,0.000000,4.652417,0,0,0,0,0,0,0
5,59999,84,50000,3,0,40,9999,0.100000,0,0,0.000000,5,0.000000,0.000000,0.270268,0,0,0,0,0,0,0
5,59999,85,50000,3,0,49,9999,0.100000,0,0,0.000000,5,2.000000,0.000000,14.744717,0,0,0,0,0,0,0
5,59999,86,50000,7,0,40,9999,0.100000,0,0,0.000000,5,0.000000,0.000000,0.858281,0,0,0,0,0,0,0
5,59999,87,50000,41,10000,40,9999,0.100000,0,0,0.000000,5,0.000000,0.000000,0.576823,0,0,0,0,0,0,0
5,59999,88,50000,6,10000,40,9999,0.100000,0,0,0.000000,5,0.000000,0.000000,0.591712,0,0,0,0,0,0,0
5,59999,89,50000,6,10000,40,9999,0.100000,0,0,0.000000,5,0.000000,0.000000,0.979068,0,0,0,0,0,0,0
5,59999,90,50000,6,10000,40,9999,0.100000,0,0,0.000000,5,0.000000,0.000000,0.178289,0,0,0,0,0,0,0
5,59999,91,50000,3,0,40,9999,0.135000,0,0,0.000000,5,0.000000,0.000000,1.339365,0,0,0,0,0,0,0
5,59999,92,50000,41,10000,40,9999,0.100000,0,0,0.000000,5,0.000000,0.000000,0.394709,0,0,0,0,0,0,0
5,59999,93,50000,11,40000,40,9999,0.100000,0,0,0.000000,5,0.000000,0.000000,1.006382,0,0,0,0,0,0,0
5,59999,94,50000,7,0,49,9999,0.100000,0,0,0.000000,5,1.000000,0.000000,2.670988,0,0,0,0,0,0,0
5,59999,95,50000,3,0,0,9999,0.100000,0,0,0.000000,5,0.000000,0.000000,3.083399,0,0,0,1,0,0,0
5,59999,96,50000,11,40000,40,9999,0.100000,0,0,0.000000,5,0.000000,0.000000,3.434816,0,0,0,0,0,0,0
5,59999,97,40000,6,10000,40,19999,0.100000,0,0,0.000000,5,0.000000,0.000000,5.814997,0,0,0,0,0,0,0
5,59999,98,50000,6,10000,40,9999,0.100000,0,0,0.000000,5,0.000000,0.000000,0.623856,0,0,0,0,0,0,0
5,59999,99,50000,6,10000,49,9999,0.100000,0,0,0.000000,5,1.000000,0.000000,1.337101,0,0,0,0,0,0,0
6,69999,0,60000,7,0,49,9999,0.100000,0,0,0.000000,5,1.000000,0.000000,2.043848,0,0,0,0,0,0,0
6,69999,1,60000,3,0,49,9999,0.100000,0,0,0.000000,5,1.000000,0.000000,24.297224,0,0,0,0,0,0,0
6,69999,2,60000,7,0,49,9999,0.100000,0,0,0.000000,5,3.000000,0.000000,11.062119,0,0,0,0,0,0,0
6,69999,3,60000,11,40000,40,9999,0.100000,0,0,0.000000,5,0.000000,0.000000,1.042604,0,0,0,0,0,0,0
6,69999,4,60000,6,10000,40,9999,0.100000,0,0,0.000000,5,0.000000,0.000000,0.205218,0,0,0,0,0,0,0
6,69999,5,60000,7,0,40,9999,0.100000,0,0,0.000000,5,0.000000,0.000000,0.531081,0,0,0,0,0,0,0
6,69999,6,60000,41,10000,40,9999,0.100000,0,0,0.000000,5,0.000000,0.000000,0.175810,0,0,0,0,0,0,0
6,69999,7,60000,41,50000,40,9999,0.100000,0,0,0.000000,5,0.000000,0.000000,5.450812,0,0,0,0,0,0,0
6,69999,8,60000,7,0,40,9999,0.100000,0,0,0.000000,5,0.000000,0.000000,1.013729,0,0,0,0,0,0,0
6,69999,9,60000,6,10000,40,9999,0.100000,0,0,0.000000,5,0.000000,0.000000,0.174329,0,0,0,0,0,0,0
6,69999,10,60000,6,10000,40,9999,0.100000,0,0,0.000000,5,0.000000,0.000000,2.107226,0,0,0,0,0,0,0
6,69999,11,60000,41,10000,40,9999,0.100000,0,0,0.000000,5,0.000000,0.000000,0.516574,0,0,0,0,0,0,0
6,69999,12,60000,3,0,40,9999,0.100000,0,0,0.000000,5,0.000000,0.000000,3.621460,0,0,0,0,0,0,0
6,69999,13,60000,7,0,40,9999,0.100000,0,0,0.000000,5,0.000000,0.000000,0.154053,0,0,0,0,0,0,0
6,69999,14,60000,6,10000,49,9999,0.100000,0,0,0.000000,5,1.000000,0.000000,12.406127,0,0,0,0,0,0,0
6,69999,15,60000,41,10000,40,9999,0.100000,0,0,0.000000,5,0.000000,0.000000,0.413410,0,0,0,0,0,0,0
6,69999,16,60000,6,10000,40,9999,0.100000,0,0,0.000000,5,0.000000,0.000000,0.673919,0,0,0,0,0,0,0
6,69999,17,60000,3,0,40,9999,0.100000,0,0,0.000000,5,0.000000,0.000000,4.763801,0,0,0,0,0,0,0
6,69999,18,60000,6,10000,40,9999,0.100000,0,0,0.000000,5,0.000000,0.000000,0.685640,0,0,0,0,0,0,0
6,69999,19,60000,3,0,40,9999,0.100000,0,0,0.000000,5,0.000000,0.000000,1.409643,0,0,0,0,0,0,0
6,69999,20,60000,7,0,49,9999,0.100000,0,0,0.000000,5,1.000000,0.000000,3.967799,0,0,0,0,0,0,0
6,69999,21,60000,3,0,40,9999,0.100000,0,0,0.000000,5,0.000000,0.000000,0.875705,0,0,0,0,0,0,0
6,69999,22,60000,11,40000,40,9999,0.100000,0,0,0.000000,5,0.000000,0.000000,0.112109,0,0,0,0,0,0,0
6,69999,23,60000,3,0,40,9999,0.100000,0,0,0.000000,5,0.000000,0.000000,0.615608,0,0,0,0,0,0,0
6,69999,24,60000,6,10000,40,9999,0.100000,0,0,0.000000,5,0.000000,0.000000,0.491351,0,0,0,0,0,0,0
6,69999,25,60000,7,0,40,9999,0.100000,0,0,0.000000,5,0.000000,0.000000,0.084465,0,0,0,0,0,0,0
6,69999,26,60000,41,10000,49,9999,0.100000,0,0,0.000000,5,2.000000,0.000000,7.602884,0,0,0,0,0,0,0
6,69999,27,60000,7,0,40,9999,0.100000,0,0,0.000000,5,0.000000,0.000000,1.571241,0,0,0,0,0,0,0
6,69999,28,60000,7,0,40,9999,0.100000,0,0,0.000000,5,0.000000,0.000000,0.149221,0,0,0,0,0,0,0
6,69999,29,60000,11,40000,40,9999,0.100000,0,0,0.000000,5,0.000000,0.000000,1.015323,0,0,0,0,0,0,0
6,69999,30,60000,6,10000,40,9999,0.100000,0,0,0.000000,5,0.000000,0.000000,0.113944,0,0,0,0,0,0,0
6,69999,31,60000,41,10000,40,9999,0.100000,0,0,0.000000,5,0.000000,0.000000,0.180137,0,0,0,0,0,0,0
6,69999,32,60000,6,10000,40,9999,0.100000,0,0,0.000000,5,0.000000,0.000000,0.378540,0,0,0,0,0,0,0
6,69999,33,60000,41,50000,40,9999,0.100000,0,0,0.000000,5,0.000000,0.000000,3.070906,0,0,0,0,0,0,0
6,69999,34,60000,6,10000,40,9999,0.100000,0,0,0.000000,5,0.000000,0.000000,0.240069,0,0,0,0,0,0,0
6,69999,35,60000,7,0,40,9999,0.100000,0,0,0.000000,5,0.000000,0.000000,0.837158,0,0,0,0,0,0,0
6,69999,36,60000,41,10000,40,9999,0.100000,0,0,0.000000,5,0.000000,0.000000,0.122155,0,0,0,0,0,0,0
6,69999,37,60000,11,40000,49,9999,0.100000,0,0,0.000000,5,4.000000,0.000000,7.254813,0,0,0,0,0,0,0
6,69999,38,60000,41,10000,40,9999,0.100000,0,0,0.000000,5,0.000000,0.000000,0.434557,0,0,0,0,0,0,0
6,69999,39,60000,11,40000,49,9999,0.100000,0,0,0.000000,5,1.000000,0.000000,1.665917,0,0,0,0,0,0,0
6,69999,40,50000,6,10000,40,19999,0.100000,0,0,0.000000,5,0.000000,0.000000,0.152983,0,0,0,0,0,0,0
6,69999,41,60000,11,40000,40,9999,0.100000,0,0,0.000000,5,0.000000,0.000000,0.291228,0,0,0,0,0,0,0
6,69999,42,60000,6,10000,40,9999,0.100000,0,0,0.000000,5,0.000000,0.000000,0.231082,0,0,0,0,0,0,0
6,69999,43,60000,3,0,40,9999,0.100000,0,0,0.000000,5,0.000000,0.000000,3.048447,0,0,0,0,0,0,0
6,69999,44,60000,7,0,40,9999,0.100000,0,0,0.000000,5,0.000000,0.000000,14.210075,0,0,0,0,0,0,0
6,69999,45,60000,11,40000,49,9999,0.100000,0,0,0.000000,5,2.000000,0.000000,9.252002,0,0,0,0,0,0,0
6,69999,46,60000,11,40000,49,9999,0.100000,0,0,0.000000,5,1.000000,0.000000,2.741941,0,0,0,0,0,0,0
6,69999,47,60000,41,50000,40,9999,0.100000,0,0,0.000000,5,0.000000,0.000000,0.441743,0,0,0,0,0,0,0
6,69999,48,60000,3,0,40,9999,0.065000,0,0,0.000000,5,0.000000,0.000000,1.280724,0,0,0,0,0,0,0
6,69999,49,60000,6,10000,49,9999,0.100000,0,0,0.000000,5,2.000000,0.000000,4.124446,0,0,0,0,0,0,0
6,69999,50,60000,3,0,40,9999,0.100000,0,0,0.000000,5,0.000000,0.000000,1.460230,0,0,0,0,0,0,0
6,69999,51,60000,6,10000,40,9999,0.100000,0,0,0.000000,5,0.000000,0.000000,0.176471,0,0,0,0,0,0,0
6,69999,52,60000,6,10000,49,9999,0.100000,0,0,0.000000,5,1.000000,0.000000,6.940710,0,0,0,0,0,0,0
6,69999,53,60000,7,0,49,9999,0.100000,0,0,0.000000,5,6.000000,0.000000,14.185711,0,0,0,0,0,0,0
6,69999,54,60000,11,40000,40,9999,0.100000,0,0,0.000000,5,0.000000,0.000000,1.698310,0,0,0,0,0,0,0
6,69999,55,60000,6,10000,40,9999,0.100000,0,0,0.000000,5,0.000000,0.000000,0.818101,0,0,0,0,0,0,0
6,69999,56,60000,6,10000,40,9999,0.100000,0,0,0.000000,5,0.000000,0.000000,1.281125,0,0,0,0,0,0,0
6,69999,57,60000,41,10000,40,9999,0.100000,0,0,0.000000,5,0.000000,0.000000,0.202357,0,0,0,0,0,0,0
6,69999,58,60000,6,10000,40,9999,0.100000,0,0,0.000000,5,0.000000,0.000000,0.257076,0,0,0,0,0,0,0
6,69999,59,60000,6,10000,40,9999,0.100000,0,0,0.000000,5,0.000000,0.000000,0.190563,0,0,0,0,0,0,0
6,69999,60,60000,6,10000,40,9999,0.100000,0,0,0.000000,5,0.000000,0.000000,0.599766,0,0,0,0,0,0,0
6,69999,61,60000,41,10000,49,9999,0.100000,0,0,0.000000,5,1.000000,0.000000,2.996924,0,0,0,0,0,0,0
6,69999,62,60000,3,0,40,9999,0.100000,0,0,0.000000,5,0.000000,0.000000,3.072421,0,0,0,0,0,0,0
6,69999,63,60000,11,40000,49,9999,0.100000,0,0,0.000000,5,1.000000,0.000000,4.502295,0,0,0,0,0,0,0
6,69999,64,60000,3,0,40,9999,0.100000,0,0,0.000000,5,0.000000,0.000000,0.561290,0,0,0,0,0,0,0
6,69999,65,60000,41,50000,40,9999,0.100000,0,0,0.000000,5,0.000000,0.000000,0.791281,0,0,0,0,0,0,0
6,69999,66,60000,11,40000,49,9999,0.100000,0,0,0.000000,5,1.000000,0.000000,6.970279,0,0,0,0,0,0,0
6,69999,67,60000,11,40000,49,9999,0.100000,0,0,0.000000,5,3.000000,0.000000,6.014443,0,0,0,0,0,0,0
6,69999,68,60000,3,0,40,9999,0.100000,0,0,0.000000,5,0.000000,0.000000,0.086506,0,0,0,0,0,0,0
6,69999,69,60000,6,10000,40,9999,0.100000,0,0,0.000000,5,0.000000,0.000000,0.386201,0,0,0,0,0,0,0
6,69999,70,60000,6,10000,40,9999,0.100000,0,0,0.000000,5,0.000000,0.000000,0.835069,0,0,0,0,0,0,0
6,69999,71,60000,41,50000,40,9999,0.100000,0,0,0.000000,5,0.000000,0.000000,10.102109,0,0,0,0,0,0,0
6,69999,72,60000,41,50000,40,9999,0.100000,0,0,0.000000,5,0.000000,0.000000,0.489892,0,0,0,0,0,0,0
6,69999,73,60000,6,10000,49,9999,0.100000,0,0,0.000000,5,1.000000,0.000000,9.579743,0,0,0,0,0,0,0
6,69999,74,60000,41,10000,40,9999,0.100000,0,0,0.000000,5,0.000000,0.000000,0.384242,0,0,0,0,0,0,0
6,69999,75,60000,7,0,40,9999,0.100000,0,0,0.000000,5,0.000000,0.000000,0.837122,0,0,0,0,0,0,0
6,69999,76,60000,3,0,40,9999,0.100000,0,0,0.000000,5,0.000000,0.000000,0.167707,0,0,0,0,0,0,0
6,69999,77,60000,7,0,40,9999,0.100000,0,0,0.000000,5,0.000000,0.000000,0.447436,0,0,0,0,0,0,0
6,69999,78,60000,41,50000,40,9999,0.100000,0,0,0.000000,5,0.000000,0.000000,4.370837,0,0,0,0,0,0,0
6,69999,79,60000,6,10000,40,9999,0.100000,0,0,0.000000,5,0.000000,0.000000,0.132226,0,0,0,0,0,0,0
6,69999,80,60000,7,0,40,9999,0.100000,0,0,0.000000,5,0.000000,0.000000,1.406418,0,0,0,0,0,0,0
6,69999,81,60000,11,40000,49,9999,0.100000,0,0,0.000000,5,4.000000,0.000000,8.803638,0,0,0,0,0,0,0
6,69999,82,60000,11,40000,49,9999,0.100000,0,0,0.000000,5,1.000000,0.000000,8.064414,0,0,0,0,0,0,0
6,69999,83,60000,41,10000,49,9999,0.100000,0,0,0.000000,5,1.000000,0.000000,5.170077,0,0,0,0,0,0,0
6,69999,84,60000,7,0,40,9999,0.100000,0,0,0.000000,5,0.000000,0.000000,0.337764,0,0,0,0,0,0,0
6,69999,85,60000,3,0,49,9999,0.100000,0,0,0.000000,5,1.000000,0.000000,11.814480,0,0,0,0,0,0,0
6,69999,86,60000,3,0,40,9999,0.100000,0,0,0.000000,5,0.000000,0.000000,0.845069,0,0,0,0,0,0,0
6,69999,87,60000,3,0,40,9999,0.100000,0,0,0.000000,5,0.000000,0.000000,0.417388,0,0,0,0,0,0,0
6,69999,88,60000,6,10000,40,9999,0.065000,0,0,0.000000,5,0.000000,0.000000,0.460694,0,0,0,0,0,0,0
6,69999,89,60000,3,0,40,9999,0.100000,0,0,0.000000,5,0.000000,0.000000,1.024167,0,0,0,0,0,0,0
6,69999,90,60000,6,10000,40,9999,0.100000,0,0,0.000000,5,0.000000,0.000000,0.177046,0,0,0,0,0,0,0
6,69999,91,60000,6,10000,40,9999,0.100000,0,0,0.000000,5,0.000000,0.000000,1.325636,0,0,0,0,0,0,0
6,69999,92,60000,3,0,40,9999,0.100000,0,0,0.000000,5,0.000000,0.000000,0.404663,0,0,0,0,0,0,0
6,69999,93,60000,7,0,40,9999,0.100000,0,0,0.000000,5,0.000000,0.000000,0.925082,0,0,0,0,0,0,0
6,69999,94,60000,7,0,40,9999,0.100000,0,0,0.000000,5,0.000000,0.000000,0.916392,0,0,0,0,0,0,0
6,69999,95,50000,3,0,49,19999,0.100000,0,0,0.000000,5,2.000000,0.000000,10.916086,0,0,0,0,0,0,0
6,69999,96,60000,41,10000,40,9999,0.100000,0,0,0.000000,5,0.000000,0.000000,5.091330,0,0,0,0,0,0,0
6,69999,97,60000,6,10000,40,9999,0.100000,0,0,0.000000,5,0.000000,0.000000,5.361944,0,0,0,0,0,0,0
6,69999,98,60000,11,40000,40,9999,0.100000,0,0,0.000000,5,0.000000,0.000000,0.620305,0,0,0,0,0,0,0
6,69999,99,60000,3,0,40,9999,0.100000,0,0,0.000000,5,0.000000,0.000000,1.101929,0,0,0,0,0,0,0
7,79999,0,70000,3,0,49,9999,0.100000,0,0,0.000000,5,1.000000,0.000000,2.285829,0,0,0,0,0,0,0
7,79999,1,70000,11,40000,49,9999,0.100000,0,0,0.000000,5,3.000000,0.000000,25.421643,0,0,0,0,0,0,0
7,79999,2,70000,11,40000,40,9999,0.100000,0,0,0.000000,5,0.000000,0.000000,2.356870,0,0,0,0,0,0,0
7,79999,3,70000,11,40000,40,9999,0.100000,0,0,0.000000,5,0.000000,0.000000,0.991279,0,0,0,0,0,0,0
7,79999,4,70000,6,10000,40,9999,0.100000,0,0,0.000000,5,0.000000,0.000000,0.202241,0,0,0,0,0,0,0
7,79999,5,70000,3,0,40,9999,0.100000,0,0,0.000000,5,0.000000,0.000000,0.644138,0,0,0,0,0,0,0
7,79999,6,70000,11,40000,40,9999,0.100000,0,0,0.000000,5,0.000000,0.000000,0.161369,0,0,0,0,0,0,0
7,79999,7,70000,11,40000,40,9999,0.100000,0,0,0.000000,5,0.000000,0.000000,2.001062,0,0,0,0,0,0,0
7,79999,8,70000,7,0,40,9999,0.100000,0,0,0.000000,5,0.000000,0.000000,1.032607,0,0,0,0,0,0,0
7,79999,9,70000,7,0,40,9999,0.100000,0,0,0.000000,5,0.000000,0.000000,0.167708,0,0,0,0,0,0,0
7,79999,10,70000,7,0,40,9999,0.100000,0,0,0.000000,5,0.000000,0.000000,1.043698,0,0,0,0,0,0,0
7,79999,11,70000,41,50000,40,9999,0.100000,0,0,0.000000,5,0.000000,0.000000,0.633958,0,0,0,0,0,0,0
7,79999,12,70000,7,0,40,9999,0.100000,0,0,0.000000,5,0.000000,0.000000,2.734564,0,0,0,0,0,0,0
7,79999,13,70000,3,0,40,9999,0.100000,0,0,0.000000,5,0.000000,0.000000,0.976345,0,0,0,0,0,0,0
7,79999,14,70000,11,40000,49,9999,0.100000,0,0,0.000000,5,5.000000,0.000000,9.604411,0,0,0,0,0,0,0
7,79999,15,70000,7,0,40,9999,0.100000,0,0,0.000000,5,0.000000,0.000000,0.732297,0,0,0,0,0,0,0
7,79999,16,70000,41,50000,40,9999,0.100000,0,0,0.000000,5,0.000000,0.000000,0.841950,0,0,0,0,0,0,0
7,79999,17,70000,11,40000,40,9999,0.100000,0,0,0.000000,5,0.000000,0.000000,0.930616,0,0,0,0,0,0,0
7,79999,18,70000,41,50000,40,9999,0.100000,0,0,0.000000,5,0.000000,0.000000,0.955204,0,0,0,0,0,0,0
7,79999,19,70000,7,0,40,9999,0.100000,0,0,0.000000,5,0.000000,0.000000,0.615969,0,0,0,0,0,0,0
7,79999,20,70000,41,50000,49,9999,0.100000,0,0,0.000000,5,1.000000,0.000000,22.625868,0,0,0,0,0,0,0
7,79999,21,70000,6,10000,40,9999,0.100000,0,0,0.000000,5,0.000000,0.000000,1.077915,0,0,0,0,0,0,0
7,79999,22,70000,41,50000,40,9999,0.100000,0,0,0.000000,5,0.000000,0.000000,0.808462,0,0,0,0,0,0,0
7,79999,23,70000,6,10000,40,9999,0.100000,0,0,0.000000,5,0.000000,0.000000,0.758460,0,0,0,0,0,0,0
7,79999,24,70000,3,0,40,9999,0.100000,0,0,0.000000,5,0.000000,0.000000,0.386708,0,0,0,0,0,0,0
7,79999,25,70000,41,50000,40,9999,0.100000,0,0,0.000000,5,0.000000,0.000000,0.085722,0,0,0,0,0,0,0
7,79999,26,70000,11,40000,49,9999,0.100000,0,0,0.000000,5,6.000000,0.000000,18.711854,0,0,0,0,0,0,0
7,79999,27,70000,6,10000,40,9999,0.100000,0,0,0.000000,5,0.000000,0.000000,1.563544,0,0,0,0,0,0,0
7,79999,28,70000,3,0,40,9999,0.100000,0,0,0.000000,5,0.000000,0.000000,0.157576,0,0,0,0,0,0,0
7,79999,29,70000,7,0,40,9999,0.100000,0,0,0.000000,5,0.000000,0.000000,0.998284,0,0,0,0,0,0,0
7,79999,30,70000,41,50000,40,9999,0.100000,0,0,0.000000,5,0.000000,0.000000,0.113157,0,0,0,0,0,0,0
7,79999,31,70000,41,50000,40,9999,0.100000,0,0,0.000000,5,0.000000,0.000000,0.120571,0,0,0,0,0,0,0
7,79999,32,70000,7,0,40,9999,0.100000,0,0,0.000000,5,0.000000,0.000000,0.414239,0,0,0,0,0,0,0
7,79999,33,70000,11,40000,40,9999,0.100000,0,0,0.000000,5,0.000000,0.000000,1.783927,0,0,0,0,0,0,0
7,79999,34,70000,6,10000,40,9999,0.100000,0,0,0.000000,5,0.000000,0.000000,0.929003,0,0,0,0,0,0,0
7,79999,35,70000,6,10000,40,9999,0.100000,0,0,0.000000,5,0.000000,0.000000,0.866388,0,0,0,0,0,0,0
7,79999,36,70000,6,10000,49,9999,0.100000,0,0,0.000000,5,6.000000,0.000000,12.172174,0,0,0,0,0,0,0
7,79999,37,70000,41,50000,40,9999,0.100000,0,0,0.000000,5,0.000000,0.000000,0.138998,0,0,0,0,0,0,0
7,79999,38,70000,11,40000,40,9999,0.100000,0,0,0.000000,5,0.000000,0.000000,0.752004,0,0,0,0,0,0,0
7,79999,39,70000,41,50000,49,9999,0.100000,0,0,0.000000,5,1.000000,0.000000,2.084645,0,0,0,0,0,0,0
7,79999,40,70000,7,0,40,9999,0.100000,0,0,0.000000,5,0.000000,0.000000,0.889615,0,0,0,0,0,0,0
7,79999,41,70000,6,10000,40,9999,0.100000,0,0,0.000000,5,0.000000,0.000000,0.265089,0,0,0,0,0,0,0
7,79999,42,70000,7,0,40,9999,0.100000,0,0,0.000000,5,0.000000,0.000000,0.244072,0,0,0,0,0,0,0
7,79999,43,70000,7,0,40,9999,0.100000,0,0,0.000000,5,0.000000,0.000000,2.137300,0,0,0,0,0,0,0
7,79999,44,70000,6,10000,40,9999,0.100000,0,0,0.000000,5,0.000000,0.000000,10.103354,0,0,0,0,0,0,0
7,79999,45,70000,41,50000,49,9999,0.100000,0,0,0.000000,5,3.000000,0.000000,9.970866,0,0,0,0,0,0,0
7,79999,46,70000,7,0,40,9999,0.100000,0,0,0.000000,5,0.000000,0.000000,0.566710,0,0,0,0,0,0,0
7,79999,47,70000,41,50000,40,9999,0.100000,0,0,0.000000,5,0.000000,0.000000,0.434874,0,0,0,0,0,0,0
7,79999,48,70000,41,50000,49,9999,0.100000,0,0,0.000000,5,1.000000,0.000000,2.664277,0,0,0,0,0,0,0
7,79999,49,70000,11,40000,49,9999,0.100000,0,0,0.000000,5,1.000000,0.000000,5.195326,0,0,0,0,0,0,0
7,79999,50,70000,3,0,40,9999,0.100000,0,0,0.000000,5,0.000000,0.000000,1.978630,0,0,0,0,0,0,0
7,79999,51,70000,11,40000,40,9999,0.100000,0,0,0.000000,5,0.000000,0.000000,0.174469,0,0,0,0,0,0,0
7,79999,52,70000,7,0,49,9999,0.100000,0,0,0.000000,5,1.000000,0.000000,10.333423,0,0,0,0,0,0,0
7,79999,53,70000,3,0,40,9999,0.100000,0,0,0.000000,5,0.000000,0.000000,0.660567,0,0,0,0,0,0,0
7,79999,54,70000,3,0,40,9999,0.100000,0,0,0.000000,5,0.000000,0.000000,1.435114,0,0,0,0,0,0,0
7,79999,55,70000,3,0,40,9999,0.100000,0,0,0.000000,5,0.000000,0.000000,0.765261,0,0,0,0,0,0,0
7,79999,56,70000,3,0,40,9999,0.100000,0,0,0.000000,5,0.000000,0.000000,1.443492,0,0,0,0,0,0,0
7,79999,57,70000,7,0,40,9999,0.100000,0,0,0.000000,5,0.000000,0.000000,0.200643,0,0,0,0,0,0,0
7,79999,58,70000,3,0,40,9999,0.100000,0,0,0.000000,5,0.000000,0.000000,0.747697,0,0,0,0,0,0,0
7,79999,59,70000,7,0,40,9999,0.100000,0,0,0.000000,5,0.000000,0.000000,0.213167,0,0,0,0,0,0,0
7,79999,60,70000,3,0,40,9999,0.100000,0,0,0.000000,5,0.000000,0.000000,2.269218,0,0,0,0,0,0,0
7,79999,61,70000,7,0,49,9999,0.100000,0,0,0.000000,5,3.000000,0.000000,6.454880,0,0,0,0,0,0,0
7,79999,62,70000,3,0,40,9999,0.100000,0,0,0.000000,5,0.000000,0.000000,3.792053,0,0,0,0,0,0,0
7,79999,63,70000,6,10000,49,9999,0.100000,0,0,0.000000,5,1.000000,0.000000,4.900305,0,0,0,0,0,0,0
7,79999,64,70000,3,0,40,9999,0.100000,0,0,0.000000,5,0.000000,0.000000,0.554524,0,0,0,0,0,0,0
7,79999,65,70000,11,40000,49,9999,0.100000,0,0,0.000000,5,1.000000,0.000000,9.505442,0,0,0,0,0,0,0
7,79999,66,70000,7,0,49,9999,0.100000,0,0,0.000000,5,3.000000,0.000000,13.101324,0,0,0,0,0,0,0
7,79999,67,70000,7,0,49,9999,0.100000,0,0,0.000000,5,1.000000,0.000000,4.762361,0,0,0,0,0,0,0
7,79999,68,70000,11,40000,40,9999,0.100000,0,0,0.000000,5,0.000000,0.000000,0.850815,0,0,0,0,0,0,0
7,79999,69,70000,6,10000,40,9999,0.100000,0,0,0.000000,5,0.000000,0.000000,0.293174,0,0,0,0,0,0,0
7,79999,70,70000,41,50000,40,9999,0.100000,0,0,0.000000,5,0.000000,0.000000,0.675700,0,0,0,0,0,0,0
7,79999,71,70000,11,40000,49,9999,0.100000,0,0,0.000000,5,9.000000,0.000000,22.044245,0,0,0,0,0,0,0
7,79999,72,70000,6,10000,40,9999,0.100000,0,0,0.000000,5,0.000000,0.000000,0.439686,0,0,0,0,0,0,0
7,79999,73,70000,6,10000,40,9999,0.100000,0,0,0.000000,5,0.000000,0.000000,0.646514,0,0,0,0,0,0,0
7,79999,74,70000,11,40000,49,9999,0.100000,0,0,0.000000,5,1.000000,0.000000,2.530118,0,0,0,0,0,0,0
7,79999,75,70000,6,10000,40,9999,0.100000,0,0,0.000000,5,0.000000,0.000000,0.810210,0,0,0,0,0,0,0
7,79999,76,70000,11,40000,49,9999,0.100000,0,0,0.000000,5,2.000000,0.000000,4.343777,0,0,0,0,0,0,0
7,79999,77,70000,7,0,40,9999,0.100000,0,0,0.000000,5,0.000000,0.000000,0.546744,0,0,0,0,0,0,0
7,79999,78,70000,3,0,40,9999,0.100000,0,0,0.000000,5,0.000000,0.000000,0.256168,0,0,0,0,0,0,0
7,79999,79,70000,11,40000,40,9999,0.100000,0,0,0.000000,5,0.000000,0.000000,0.131601,0,0,0,0,0,0,0
7,79999,80,70000,11,40000,49,9999,0.100000,0,0,0.000000,5,1.000000,0.000000,2.160987,0,0,0,0,0,0,0
7,79999,81,70000,6,10000,49,9999,0.100000,0,0,0.000000,5,5.000000,0.000000,10.851222,0,0,0,0,0,0,0
7,79999,82,70000,11,40000,49,9999,0.100000,0,0,0.000000,5,3.000000,0.000000,6.804049,0,0,0,0,0,0,0
7,79999,83,70000,7,0,40,9999,0.100000,0,0,0.000000,5,0.000000,0.000000,0.963442,0,0,0,0,0,0,0
7,79999,84,70000,11,40000,40,9999,0.100000,0,0,0.000000,5,0.000000,0.000000,0.673190,0,0,0,0,0,0,0
7,79999,85,70000,3,0,49,9999,0.100000,0,0,0.000000,5,3.000000,0.000000,12.985580,0,0,0,0,0,0,0
7,79999,86,70000,3,0,40,9999,0.100000,0,0,0.000000,5,0.000000,0.000000,0.865003,0,0,0,0,0,0,0
7,79999,87,70000,3,0,40,9999,0.100000,0,0,0.000000,5,0.000000,0.000000,0.499264,0,0,0,0,0,0,0
7,79999,88,70000,11,40000,40,9999,0.100000,0,0,0.000000,5,0.000000,0.000000,0.655128,0,0,0,0,0,0,0
7,79999,89,70000,11,40000,40,9999,0.100000,0,0,0.000000,5,0.000000,0.000000,1.008099,0,0,0,0,0,0,0
7,79999,90,70000,3,0,40,9999,0.100000,0,0,0.000000,5,0.000000,0.000000,0.184386,0,0,0,0,0,0,0
7,79999,91,70000,6,10000,40,9999,0.100000,0,0,0.000000,5,0.000000,0.000000,3.317758,0,0,0,0,0,0,0
7,79999,92,70000,41,50000,49,9999,0.100000,0,0,0.000000,5,1.000000,0.000000,2.768125,0,0,0,0,0,0,0
7,79999,93,70000,11,40000,40,9999,0.100000,0,0,0.000000,5,0.000000,0.000000,0.844897,0,0,0,0,0,0,0
7,79999,94,70000,11,40000,40,9999,0.100000,0,0,0.000000,5,0.000000,0.000000,0.222960,0,0,0,0,0,0,0
7,79999,95,70000,6,10000,49,9999,0.100000,0,0,0.000000,5,2.000000,0.000000,14.596956,0,0,0,0,0,0,0
7,79999,96,70000,3,0,40,9999,0.100000,0,0,0.000000,5,0.000000,0.000000,4.494844,0,0,0,0,0,0,0
7,79999,97,70000,3,0,40,9999,0.100000,0,0,0.000000,5,0.000000,0.000000,5.376010,0,0,0,0,0,0,0
7,79999,98,70000,7,0,40,9999,0.100000,0,0,0.000000,5,0.000000,0.000000,0.547153,0,0,0,0,0,0,0
7,79999,99,70000,6,10000,49,9999,0.100000,0,0,0.000000,5,1.000000,0.000000,1.846747,0,0,0,0,0,0,0
8,89999,0,80000,41,50000,49,9999,0.100000,0,0,0.000000,5,2.000000,0.000000,2.549223,0,0,0,0,0,0,0
8,89999,1,80000,6,10000,49,9999,0.100000,0,0,0.000000,5,3.000000,0.000000,6.421688,0,0,0,0,0,0,0
8,89999,2,80000,41,50000,40,9999,0.100000,0,0,0.000000,5,0.000000,0.000000,3.463255,0,0,0,0,0,0,0
8,89999,3,80000,41,50000,40,9999,0.100000,0,0,0.000000,5,0.000000,0.000000,0.794051,0,0,0,0,0,0,0
8,89999,4,80000,11,40000,40,9999,0.100000,0,0,0.000000,5,0.000000,0.000000,0.191612,0,0,0,0,0,0,0
8,89999,5,80000,6,10000,40,9999,0.100000,0,0,0.000000,5,0.000000,0.000000,0.280767,0,0,0,0,0,0,0
8,89999,6,80000,6,10000,40,9999,0.100000,0,0,0.000000,5,0.000000,0.000000,1.221609,0,0,0,0,0,0,0
8,89999,7,80000,41,50000,40,9999,0.100000,0,0,0.000000,5,0.000000,0.000000,2.191889,0,0,0,0,0,0,0
8,89999,8,80000,6,10000,40,9999,0.100000,0,0,0.000000,5,0.000000,0.000000,1.007188,0,0,0,0,0,0,0
8,89999,9,80000,7,0,40,9999,0.100000,0,0,0.000000,5,0.000000,0.000000,0.167617,0,0,0,0,0,0,0
8,89999,10,80000,3,0,40,9999,0.100000,0,0,0.000000,5,0.000000,0.000000,0.859124,0,0,0,0,0,0,0
8,89999,11,80000,11,40000,49,9999,0.100000,0,0,0.000000,5,1.000000,0.000000,2.312877,0,0,0,0,0,0,0
8,89999,12,80000,7,0,40,9999,0.100000,0,0,0.000000,5,0.000000,0.000000,2.749087,0,0,0,0,0,0,0
8,89999,13,70000,3,0,40,19999,0.100000,0,0,0.000000,5,0.000000,0.000000,0.527708,0,0,0,0,0,0,0
8,89999,14,80000,41,50000,40,9999,0.100000,0,0,0.000000,5,0.000000,0.000000,0.335425,0,0,0,0,0,0,0
8,89999,15,80000,6,10000,40,9999,0.100000,0,0,0.000000,5,0.000000,0.000000,0.376825,0,0,0,0,0,0,0
8,89999,16,80000,7,0,40,9999,0.100000,0,0,0.000000,5,0.000000,0.000000,0.662527,0,0,0,0,0,0,0
8,89999,17,80000,3,0,40,9999,0.100000,0,0,0.000000,5,0.000000,0.000000,0.921311,0,0,0,0,0,0,0
8,89999,18,80000,7,0,40,9999,0.100000,0,0,0.000000,5,0.000000,0.000000,0.328737,0,0,0,0,0,0,0
8,89999,19,80000,7,0,40,9999,0.100000,0,0,0.000000,5,0.000000,0.000000,0.817043,0,0,0,0,0,0,0
8,89999,20,80000,7,0,49,9999,0.100000,0,0,0.000000,5,1.000000,0.000000,3.566177,0,0,0,0,0,0,0
8,89999,21,80000,11,40000,40,9999,0.100000,0,0,0.000000,5,0.000000,0.000000,0.579808,0,0,0,0,0,0,0
8,89999,22,80000,7,0,40,9999,0.100000,0,0,0.000000,5,0.000000,0.000000,0.743009,0,0,0,0,0,0,0
8,89999,23,80000,3,0,40,9999,0.100000,0,0,0.000000,5,0.000000,0.000000,0.618398,0,0,0,0,0,0,0
8,89999,24,80000,11,40000,40,9999,0.100000,0,0,0.000000,5,0.000000,0.000000,2.985817,0,0,0,0,0,0,0
8,89999,25,80000,41,50000,40,9999,0.100000,0,0,0.000000,5,0.000000,0.000000,0.372321,0,0,0,0,0,0,0
8,89999,26,80000,7,0,40,9999,0.100000,0,0,0.000000,5,0.000000,0.000000,2.752140,0,0,0,0,0,0,0
8,89999,27,80000,3,0,40,9999,0.100000,0,0,0.000000,5,0.000000,0.000000,0.882418,0,0,0,0,0,0,0
8,89999,28,80000,7,0,40,9999,0.100000,0,0,0.000000,5,0.000000,0.000000,0.146838,0,0,0,0,0,0,0
8,89999,29,80000,11,40000,40,9999,0.100000,0,0,0.000000,5,0.000000,0.000000,1.008068,0,0,0,0,0,0,0
8,89999,30,80000,41,50000,40,9999,0.100000,0,0,0.000000,5,0.000000,0.000000,0.155511,0,0,0,0,0,0,0
8,89999,31,80000,11,40000,40,9999,0.100000,0,0,0.000000,5,0.000000,0.000000,0.177245,0,0,0,0,0,0,0
8,89999,32,80000,41,50000,49,9999,0.100000,0,0,0.000000,5,2.000000,0.000000,3.032571,0,0,0,0,0,0,0
8,89999,33,70000,11,40000,40,19999,0.100000,0,0,0.000000,5,0.000000,0.000000,2.337846,0,0,0,0,0,0,0
8,89999,34,80000,6,10000,40,9999,0.100000,0,0,0.000000,5,0.000000,0.000000,1.209340,0,0,0,0,0,0,0
8,89999,35,80000,11,40000,40,9999,0.100000,0,0,0.000000,5,0.000000,0.000000,1.111202,0,0,0,0,0,0,0
8,89999,36,80000,3,0,40,9999,0.100000,0,0,0.000000,5,0.000000,0.000000,0.120999,0,0,0,0,0,0,0
8,89999,37,80000,7,0,40,9999,0.100000,0,0,0.000000,5,0.000000,0.000000,0.145157,0,0,0,0,0,0,0
8,89999,38,80000,11,40000,40,9999,0.100000,0,0,0.000000,5,0.000000,0.000000,2.107159,0,0,0,0,0,0,0
8,89999,39,80000,7,0,49,9999,0.100000,0,0,0.000000,5,2.000000,0.000000,2.287927,0,0,0,0,0,0,0
8,89999,40,80000,11,40000,40,9999,0.100000,0,0,0.000000,5,0.000000,0.000000,0.150994,0,0,0,0,0,0,0
8,89999,41,80000,3,0,40,9999,0.100000,0,0,0.000000,5,0.000000,0.000000,0.201982,0,0,0,0,0,0,0
8,89999,42,80000,7,0,40,9999,0.100000,0,0,0.000000,5,0.000000,0.000000,0.229007,0,0,0,0,0,0,0
8,89999,43,80000,3,0,40,9999,0.100000,0,0,0.000000,5,0.000000,0.000000,2.114697,0,0,0,0,0,0,0
8,89999,44,80000,11,40000,49,9999,0.100000,0,0,0.000000,5,7.000000,0.000000,24.200655,0,0,0,0,0,0,0
8,89999,45,80000,41,50000,40,9999,0.100000,0,0,0.000000,5,0.000000,0.000000,9.013833,0,0,0,0,0,0,0
8,89999,46,80000,3,0,49,9999,0.100000,0,0,0.000000,5,2.000000,0.000000,3.028470,0,0,0,0,0,0,0
8,89999,47,80000,41,50000,40,9999,0.100000,0,0,0.000000,5,0.000000,0.000000,0.383209,0,0,0,0,0,0,0
8,89999,48,80000,41,50000,49,9999,0.100000,0,0,0.000000,5,2.000000,0.000000,3.020049,0,0,0,0,0,0,0
8,89999,49,80000,7,0,40,9999,0.100000,0,0,0.000000,5,0.000000,0.000000,0.123426,0,0,0,0,0,0,0
8,89999,50,80000,6,10000,40,9999,0.100000,0,0,0.000000,5,0.000000,0.000000,7.249056,0,0,0,0,0,0,0
8,89999,51,80000,3,0,40,9999,0.100000,0,0,0.000000,5,0.000000,0.000000,0.170806,0,0,0,0,0,0,0
8,89999,52,80000,11,40000,49,9999,0.100000,0,0,0.000000,5,3.000000,0.000000,4.452763,0,0,0,0,0,0,0
8,89999,53,80000,41,50000,40,9999,0.100000,0,0,0.000000,5,0.000000,0.000000,0.182964,0,0,0,0,0,0,0
8,89999,54,80000,6,10000,40,9999,0.100000,0,0,0.000000,5,0.000000,0.000000,1.374566,0,0,0,0,0,0,0
8,89999,55,80000,41,50000,40,9999,0.100000,0,0,0.000000,5,0.000000,0.000000,1.489345,0,0,0,0,0,0,0
8,89999,56,80000,3,0,40,9999,0.100000,0,0,0.000000,5,0.000000,0.000000,0.643993,0,0,0,0,0,0,0
8,89999,57,80000,7,0,40,9999,0.100000,0,0,0.000000,5,0.000000,0.000000,0.264078,0,0,0,0,0,0,0
8,89999,58,80000,41,50000,40,9999,0.100000,0,0,0.000000,5,0.000000,0.000000,0.834338,0,0,0,0,0,0,0
8,89999,59,80000,6,10000,49,9999,0.100000,0,0,0.000000,5,1.000000,0.000000,1.570290,0,0,0,0,0,0,0
8,89999,60,80000,3,0,40,9999,0.100000,0,0,0.000000,5,0.000000,0.000000,0.720579,0,0,0,0,0,0,0
8,89999,61,80000,3,0,49,9999,0.100000,0,0,0.000000,5,2.000000,0.000000,3.901995,0,0,0,0,0,0,0
8,89999,62,80000,11,40000,40,9999,0.100000,0,0,0.000000,5,0.000000,0.000000,0.626991,0,0,0,0,0,0,0
8,89999,63,80000,6,10000,40,9999,0.100000,0,0,0.000000,5,0.000000,0.000000,0.752895,0,0,0,0,0,0,0
8,89999,64,80000,41,50000,40,9999,0.100000,0,0,0.000000,5,0.000000,0.000000,0.375651,0,0,0,0,0,0,0
8,89999,65,80000,3,0,40,9999,0.100000,0,0,0.000000,5,0.000000,0.000000,1.598383,0,0,0,0,0,0,0
8,89999,66,80000,3,0,40,9999,0.100000,0,0,0.000000,5,0.000000,0.000000,6.073612,0,0,0,0,0,0,0
8,89999,67,70000,7,0,40,19999,0.100000,0,0,0.000000,5,0.000000,0.000000,3.901305,0,0,0,0,0,0,0
8,89999,68,80000,7,0,49,9999,0.100000,0,0,0.000000,5,4.000000,0.000000,6.661448,0,0,0,0,0,0,0
8,89999,69,80000,11,40000,40,9999,0.100000,0,0,0.000000,5,0.000000,0.000000,0.979551,0,0,0,0,0,0,0
8,89999,70,80000,3,0,40,9999,0.100000,0,0,0.000000,5,0.000000,0.000000,0.498533,0,0,0,0,0,0,0
8,89999,71,80000,7,0,49,9999,0.100000,0,0,0.000000,5,1.000000,0.000000,1.786936,0,0,0,0,0,0,0
8,89999,72,80000,7,0,40,9999,0.100000,0,0,0.000000,5,0.000000,0.000000,1.147568,0,0,0,0,0,0,0
8,89999,73,80000,3,0,40,9999,0.100000,0,0,0.000000,5,0.000000,0.000000,0.589415,0,0,0,0,0,0,0
8,89999,74,80000,3,0,40,9999,0.100000,0,0,0.000000,5,0.000000,0.000000,2.035695,0,0,0,0,0,0,0
8,89999,75,80000,11,40000,40,9999,0.100000,0,0,0.000000,5,0.000000,0.000000,0.858847,0,0,0,0,0,0,0
8,89999,76,80000,7,0,40,9999,0.100000,0,0,0.000000,5,0.000000,0.000000,0.167605,0,0,0,0,0,0,0
8,89999,77,80000,6,10000,40,9999,0.100000,0,0,0.000000,5,0.000000,0.000000,2.140560,0,0,0,0,0,0,0
8,89999,78,80000,41,50000,40,9999,0.100000,0,0,0.000000,5,0.000000,0.000000,0.273537,0,0,0,0,0,0,0
8,89999,79,80000,6,10000,40,9999,0.100000,0,0,0.000000,5,0.000000,0.000000,0.135196,0,0,0,0,0,0,0
8,89999,80,80000,6,10000,49,9999,0.100000,0,0,0.000000,5,2.000000,0.000000,2.308463,0,0,0,0,0,0,0
8,89999,81,80000,7,0,40,9999,0.100000,0,0,0.000000,5,0.000000,0.000000,3.565625,0,0,0,0,0,0,0
8,89999,82,80000,41,50000,49,9999,0.100000,0,0,0.000000,5,2.000000,0.000000,12.625145,0,0,0,0,0,0,0
8,89999,83,80000,3,0,40,9999,0.100000,0,0,0.000000,5,0.000000,0.000000,0.843462,0,0,0,0,0,0,0
8,89999,84,80000,41,50000,40,9999,0.100000,0,0,0.000000,5,0.000000,0.000000,0.359997,0,0,0,0,0,0,0
8,89999,85,80000,11,40000,49,9999,0.100000,0,0,0.000000,5,2.000000,0.000000,7.210487,0,0,0,0,0,0,0
8,89999,86,80000,11,40000,40,9999,0.100000,0,0,0.000000,5,0.000000,0.000000,1.067925,0,0,0,0,0,0,0
8,89999,87,80000,7,0,40,9999,0.100000,0,0,0.000000,5,0.000000,0.000000,0.451554,0,0,0,0,0,0,0
8,89999,88,80000,3,0,40,9999,0.100000,0,0,0.000000,5,0.000000,0.000000,0.559351,0,0,0,0,0,0,0
8,89999,89,80000,41,50000,40,9999,0.100000,0,0,0.000000,5,0.000000,0.000000,1.000019,0,0,0,0,0,0,0
8,89999,90,80000,6,10000,40,9999,0.100000,0,0,0.000000,5,0.000000,0.000000,0.190436,0,0,0,0,0,0,0
8,89999,91,80000,6,10000,40,9999,0.100000,0,0,0.000000,5,0.000000,0.000000,3.628941,0,0,0,0,0,0,0
8,89999,92,80000,11,40000,40,9999,0.100000,0,0,0.000000,5,0.000000,0.000000,0.973884,0,0,0,0,0,0,0
8,89999,93,80000,3,0,40,9999,0.100000,0,0,0.000000,5,0.000000,0.000000,0.775926,0,0,0,0,0,0,0
8,89999,94,80000,3,0,40,9999,0.100000,0,0,0.000000,5,0.000000,0.000000,0.309635,0,0,0,0,0,0,0
8,89999,95,80000,41,50000,49,9999,0.100000,0,0,0.000000,5,2.000000,0.000000,10.108467,0,0,0,0,0,0,0
8,89999,96,80000,7,0,40,9999,0.100000,0,0,0.000000,5,0.000000,0.000000,4.606979,0,0,0,0,0,0,0
8,89999,97,80000,3,0,40,9999,0.100000,0,0,0.000000,5,0.000000,0.000000,0.658511,0,0,0,0,0,0,0
8,89999,98,80000,7,0,40,9999,0.100000,0,0,0.000000,5,0.000000,0.000000,1.325244,0,0,0,0,0,0,0
8,89999,99,80000,3,0,49,9999,0.100000,0,0,0.000000,5,1.000000,0.000000,2.995647,0,0,0,0,0,0,0
9,99999,0,90000,7,0,49,9999,0.100000,0,0,0.000000,5,1.000000,0.000000,1.586395,0,0,0,0,0,0,0
9,99999,1,90000,11,40000,49,9999,0.100000,0,0,0.000000,5,1.000000,0.000000,11.916483,0,0,0,0,0,0,0
9,99999,2,90000,7,0,40,9999,0.100000,0,0,0.000000,5,0.000000,0.000000,3.912555,0,0,0,0,0,0,0
9,99999,3,90000,3,0,40,9999,0.100000,0,0,0.000000,5,0.000000,0.000000,0.544647,0,0,0,0,0,0,0
9,99999,4,90000,41,50000,40,9999,0.100000,0,0,0.000000,5,0.000000,0.000000,0.184501,0,0,0,0,0,0,0
9,99999,5,90000,6,10000,40,9999,0.100000,0,0,0.000000,5,0.000000,0.000000,1.378820,0,0,0,0,0,0,0
9,99999,6,90000,41,50000,40,9999,0.100000,0,0,0.000000,5,0.000000,0.000000,0.826714,0,0,0,0,0,0,0
9,99999,7,90000,3,0,40,9999,0.100000,0,0,0.000000,5,0.000000,0.000000,3.817626,0,0,0,0,0,0,0
9,99999,8,90000,11,40000,40,9999,0.100000,0,0,0.000000,5,0.000000,0.000000,1.005122,0,0,0,0,0,0,0
9,99999,9,90000,7,0,40,9999,0.100000,0,0,0.000000,5,0.000000,0.000000,0.162725,0,0,0,0,0,0,0
9,99999,10,90000,7,0,40,9999,0.100000,0,0,0.000000,5,0.000000,0.000000,0.468968,0,0,0,0,0,0,0
9,99999,11,90000,41,50000,40,9999,0.100000,0,0,0.000000,5,0.000000,0.000000,1.032879,0,0,0,0,0,0,0
9,99999,12,90000,11,40000,40,9999,0.100000,0,0,0.000000,5,0.000000,0.000000,2.819549,0,0,0,0,0,0,0
9,99999,13,90000,6,10000,40,9999,0.100000,0,0,0.000000,5,0.000000,0.000000,0.215255,0,0,0,0,0,0,0
9,99999,14,90000,11,40000,40,9999,0.100000,0,0,0.000000,5,0.000000,0.000000,0.253830,0,0,0,0,0,0,0
9,99999,15,90000,41,50000,40,9999,0.100000,0,0,0.000000,5,0.000000,0.000000,0.250135,0,0,0,0,0,0,0
9,99999,16,90000,41,50000,40,9999,0.100000,0,0,0.000000,5,0.000000,0.000000,0.683319,0,0,0,0,0,0,0
9,99999,17,90000,6,10000,40,9999,0.100000,0,0,0.000000,5,0.000000,0.000000,1.761492,0,0,0,0,0,0,0
9,99999,18,90000,6,10000,49,9999,0.100000,0,0,0.000000,5,8.000000,0.000000,10.600731,0,0,0,0,0,0,0
9,99999,19,90000,41,50000,40,9999,0.100000,0,0,0.000000,5,0.000000,0.000000,0.711763,0,0,0,0,0,0,0
9,99999,20,90000,7,0,40,9999,0.100000,0,0,0.000000,5,0.000000,0.000000,2.960391,0,0,0,0,0,0,0
9,99999,21,90000,3,0,40,9999,0.100000,0,0,0.000000,5,0.000000,0.000000,0.479449,0,0,0,0,0,0,0
9,99999,22,90000,7,0,40,9999,0.100000,0,0,0.000000,5,0.000000,0.000000,0.187150,0,0,0,0,0,0,0
9,99999,23,90000,3,0,40,9999,0.100000,0,0,0.000000,5,0.000000,0.000000,0.729251,0,0,0,0,0,0,0
9,99999,24,90000,6,10000,40,9999,0.100000,0,0,0.000000,5,0.000000,0.000000,1.350319,0,0,0,0,0,0,0
9,99999,25,90000,11,40000,49,9999,0.100000,0,0,0.000000,5,1.000000,0.000000,1.331421,0,0,0,0,0,0,0
9,99999,26,90000,7,0,40,9999,0.100000,0,0,0.000000,5,0.000000,0.000000,0.181140,0,0,0,0,0,0,0
9,99999,27,90000,41,50000,40,9999,0.100000,0,0,0.000000,5,0.000000,0.000000,0.710770,0,0,0,0,0,0,0
9,99999,28,90000,11,40000,40,9999,0.100000,0,0,0.000000,5,0.000000,0.000000,0.144703,0,0,0,0,0,0,0
9,99999,29,90000,41,50000,40,9999,0.100000,0,0,0.000000,5,0.000000,0.000000,1.012187,0,0,0,0,0,0,0
9,99999,30,90000,41,50000,40,9999,0.100000,0,0,0.000000,5,0.000000,0.000000,0.196603,0,0,0,0,0,0,0
9,99999,31,90000,6,10000,40,9999,0.100000,0,0,0.000000,5,0.000000,0.000000,0.173067,0,0,0,0,0,0,0
9,99999,32,90000,3,0,49,9999,0.100000,0,0,0.000000,5,1.000000,0.000000,5.148861,0,0,0,0,0,0,0
9,99999,33,90000,11,40000,40,9999,0.100000,0,0,0.000000,5,0.000000,0.000000,2.403385,0,0,0,0,0,0,0
9,99999,34,90000,7,0,40,9999,0.100000,0,0,0.000000,5,0.000000,0.000000,0.961499,0,0,0,0,0,0,0
9,99999,35,90000,41,50000,49,9999,0.100000,0,0,0.000000,5,2.000000,0.000000,4.416431,0,0,0,0,0,0,0
9,99999,36,90000,3,0,40,9999,0.100000,0,0,0.000000,5,0.000000,0.000000,0.857123,0,0,0,0,0,0,0
9,99999,37,90000,11,40000,40,9999,0.100000,0,0,0.000000,5,0.000000,0.000000,0.142996,0,0,0,0,0,0,0
9,99999,38,90000,11,40000,40,9999,0.100000,0,0,0.000000,5,0.000000,0.000000,0.208337,0,0,0,0,0,0,0
9,99999,39,90000,3,0,49,9999,0.100000,0,0,0.000000,5,1.000000,0.000000,1.229691,0,0,0,0,0,0,0
9,99999,40,90000,7,0,40,9999,0.100000,0,0,0.000000,5,0.000000,0.000000,0.144996,0,0,0,0,0,0,0
9,99999,41,90000,41,50000,40,9999,0.100000,0,0,0.000000,5,0.000000,0.000000,0.163663,0,0,0,0,0,0,0
9,99999,42,90000,11,40000,40,9999,0.100000,0,0,0.000000,5,0.000000,0.000000,0.232032,0,0,0,0,0,0,0
9,99999,43,90000,7,0,40,9999,0.100000,0,0,0.000000,5,0.000000,0.000000,2.153222,0,0,0,0,0,0,0
9,99999,44,90000,41,50000,49,9999,0.100000,0,0,0.000000,5,1.000000,0.000000,5.543088,0,0,0,0,0,0,0
9,99999,45,90000,6,10000,49,9999,0.100000,0,0,0.000000,5,1.000000,0.000000,6.432059,0,0,0,0,0,0,0
9,99999,46,90000,11,40000,49,9999,0.100000,0,0,0.000000,5,1.000000,0.000000,1.727920,0,0,0,0,0,0,0
9,99999,47,90000,41,50000,40,9999,0.100000,0,0,0.000000,5,0.000000,0.000000,0.478258,0,0,0,0,0,0,0
9,99999,48,90000,6,10000,49,9999,0.100000,0,0,0.000000,5,1.000000,0.000000,1.904635,0,0,0,0,0,0,0
9,99999,49,90000,3,0,40,9999,0.100000,0,0,0.000000,5,0.000000,0.000000,0.234261,0,0,0,0,0,0,0
9,99999,50,90000,11,40000,40,9999,0.100000,0,0,0.000000,5,0.000000,0.000000,6.200637,0,0,0,0,0,0,0
9,99999,51,90000,41,50000,40,9999,0.100000,0,0,0.000000,5,0.000000,0.000000,1.083763,0,0,0,0,0,0,0
9,99999,52,90000,11,40000,40,9999,0.100000,0,0,0.000000,5,0.000000,0.000000,0.131649,0,0,0,0,0,0,0
9,99999,53,90000,6,10000,49,9999,0.100000,0,0,0.000000,5,3.000000,0.000000,7.012093,0,0,0,0,0,0,0
9,99999,54,90000,7,0,40,9999,0.100000,0,0,0.000000,5,0.000000,0.000000,1.449517,0,0,0,0,0,0,0
9,99999,55,90000,6,10000,40,9999,0.100000,0,0,0.000000,5,0.000000,0.000000,1.272849,0,0,0,0,0,0,0
9,99999,56,90000,6,10000,40,9999,0.100000,0,0,0.000000,5,0.000000,0.000000,11.062251,0,0,0,0,0,0,0
9,99999,57,90000,11,40000,40,9999,0.100000,0,0,0.000000,5,0.000000,0.000000,0.246039,0,0,0,0,0,0,0
9,99999,58,90000,7,0,40,9999,0.100000,0,0,0.000000,5,0.000000,0.000000,0.744760,0,0,0,0,0,0,0
9,99999,59,90000,6,10000,40,9999,0.100000,0,0,0.000000,5,0.000000,0.000000,1.582430,0,0,0,0,0,0,0
9,99999,60,90000,3,0,40,9999,0.100000,0,0,0.000000,5,0.000000,0.000000,0.780040,0,0,0,0,0,0,0
9,99999,61,90000,6,10000,40,9999,0.100000,0,0,0.000000,5,0.000000,0.000000,0.229794,0,0,0,0,0,0,0
9,99999,62,90000,7,0,40,9999,0.100000,0,0,0.000000,5,0.000000,0.000000,0.608360,0,0,0,0,0,0,0
9,99999,63,90000,3,0,40,9999,0.100000,0,0,0.000000,5,0.000000,0.000000,0.642795,0,0,0,0,0,0,0
9,99999,64,90000,3,0,40,9999,0.100000,0,0,0.000000,5,0.000000,0.000000,0.383109,0,0,0,0,0,0,0
9,99999,65,90000,3,0,40,9999,0.100000,0,0,0.000000,5,0.000000,0.000000,3.389958,0,0,0,0,0,0,0
9,99999,66,90000,41,50000,49,9999,0.100000,0,0,0.000000,5,1.000000,0.000000,8.830172,0,0,0,0,0,0,0
9,99999,67,90000,41,50000,49,9999,0.100000,0,0,0.000000,5,4.000000,0.000000,7.781025,0,0,0,0,0,0,0
9,99999,68,90000,6,10000,49,9999,0.100000,0,0,0.000000,5,1.000000,0.000000,8.730460,0,0,0,0,0,0,0
9,99999,69,90000,41,50000,40,9999,0.100000,0,0,0.000000,5,0.000000,0.000000,0.878627,0,0,0,0,0,0,0
9,99999,70,90000,7,0,40,9999,0.100000,0,0,0.000000,5,0.000000,0.000000,0.544714,0,0,0,0,0,0,0
9,99999,71,90000,11,40000,49,9999,0.100000,0,0,0.000000,5,1.000000,0.000000,2.604283,0,0,0,0,0,0,0
9,99999,72,90000,41,50000,40,9999,0.100000,0,0,0.000000,5,0.000000,0.000000,1.028065,0,0,0,0,0,0,0
9,99999,73,90000,7,0,40,9999,0.100000,0,0,0.000000,5,0.000000,0.000000,1.425612,0,0,0,0,0,0,0
9,99999,74,90000,11,40000,40,9999,0.100000,0,0,0.000000,5,0.000000,0.000000,1.195729,0,0,0,0,0,0,0
9,99999,75,90000,7,0,40,9999,0.100000,0,0,0.000000,5,0.000000,0.000000,0.921066,0,0,0,0,0,0,0
9,99999,76,90000,41,50000,40,9999,0.100000,0,0,0.000000,5,0.000000,0.000000,0.269754,0,0,0,0,0,0,0
9,99999,77,90000,3,0,40,9999,0.100000,0,0,0.000000,5,0.000000,0.000000,0.479690,0,0,0,0,0,0,0
9,99999,78,90000,11,40000,40,9999,0.100000,0,0,0.000000,5,0.000000,0.000000,0.273103,0,0,0,0,0,0,0
9,99999,79,90000,11,40000,40,9999,0.100000,0,0,0.000000,5,0.000000,0.000000,0.142635,0,0,0,0,0,0,0
9,99999,80,90000,3,0,49,9999,0.100000,0,0,0.000000,5,1.000000,0.000000,1.212860,0,0,0,0,0,0,0
9,99999,81,90000,11,40000,40,9999,0.100000,0,0,0.000000,5,0.000000,0.000000,2.761878,0,0,0,0,0,0,0
9,99999,82,90000,3,0,49,9999,0.100000,0,0,0.000000,5,2.000000,0.000000,5.712557,0,0,0,0,0,0,0
9,99999,83,90000,11,40000,49,9999,0.100000,0,0,0.000000,5,1.000000,0.000000,2.192153,0,0,0,0,0,0,0
9,99999,84,90000,11,40000,40,9999,0.100000,0,0,0.000000,5,0.000000,0.000000,0.296193,0,0,0,0,0,0,0
9,99999,85,90000,3,0,49,9999,0.100000,0,0,0.000000,5,2.000000,0.000000,7.677007,0,0,0,0,0,0,0
9,99999,86,90000,41,50000,49,9999,0.100000,0,0,0.000000,5,2.000000,0.000000,3.846967,0,0,0,0,0,0,0
9,99999,87,90000,6,10000,40,9999,0.100000,0,0,0.000000,5,0.000000,0.000000,0.429540,0,0,0,0,0,0,0
9,99999,88,90000,11,40000,40,9999,0.100000,0,0,0.000000,5,0.000000,0.000000,0.359145,0,0,0,0,0,0,0
9,99999,89,90000,7,0,40,9999,0.100000,0,0,0.000000,5,0.000000,0.000000,0.978928,0,0,0,0,0,0,0
9,99999,90,90000,41,50000,40,9999,0.100000,0,0,0.000000,5,0.000000,0.000000,0.203975,0,0,0,0,0,0,0
9,99999,91,90000,3,0,40,9999,0.100000,0,0,0.000000,5,0.000000,0.000000,3.184326,0,0,0,0,0,0,0
9,99999,92,90000,3,0,40,9999,0.100000,0,0,0.000000,5,0.000000,0.000000,1.391119,0,0,0,0,0,0,0
9,99999,93,90000,6,10000,40,9999,0.100000,0,0,0.000000,5,0.000000,0.000000,0.788893,0,0,0,0,0,0,0
9,99999,94,90000,3,0,40,9999,0.100000,0,0,0.000000,5,0.000000,0.000000,0.323259,0,0,0,0,0,0,0
9,99999,95,90000,3,0,40,9999,0.100000,0,0,0.000000,5,0.000000,0.000000,4.627414,0,0,0,0,0,0,0
9,99999,96,90000,3,0,40,9999,0.100000,0,0,0.000000,5,0.000000,0.000000,4.817710,0,0,0,0,0,0,0
9,99999,97,90000,41,50000,40,9999,0.100000,0,0,0.000000,5,0.000000,0.000000,4.777763,0,0,0,0,0,0,0
9,99999,98,90000,6,10000,40,9999,0.100000,0,0,0.000000,5,0.000000,0.000000,0.358785,0,0,0,0,0,0,0
9,99999,99,90000,3,0,40,9999,0.100000,0,0,0.000000,5,0.000000,0.000000,0.557808,0,0,0,0,0,0,0
10,109999,0,100000,3,0,40,9999,0.100000,0,0,0.000000,5,0.000000,0.000000,0.809121,0,0,0,0,0,0,0
10,109999,1,100000,41,50000,40,9999,0.100000,0,0,0.000000,5,0.000000,0.000000,0.221973,0,0,0,0,0,0,0
10,109999,2,100000,7,0,40,9999,0.100000,0,0,0.000000,5,0.000000,0.000000,3.657522,0,0,0,0,0,0,0
10,109999,3,100000,6,10000,40,9999,0.100000,0,0,0.000000,5,0.000000,0.000000,0.421513,0,0,0,0,0,0,0
10,109999,4,100000,6,10000,40,9999,0.135000,0,0,0.000000,5,0.000000,0.000000,0.188918,0,0,0,0,0,0,0
10,109999,5,100000,6,10000,49,9999,0.100000,0,0,0.000000,5,1.000000,0.000000,6.319909,0,0,0,0,0,0,0
10,109999,6,100000,7,0,49,9999,0.100000,0,0,0.000000,5,2.000000,0.000000,5.148093,0,0,0,0,0,0,0
10,109999,7,100000,41,50000,40,9999,0.100000,0,0,0.000000,5,0.000000,0.000000,6.407661,0,0,0,0,0,0,0
10,109999,8,100000,41,50000,40,9999,0.100000,0,0,0.000000,5,0.000000,0.000000,1.167753,0,0,0,0,0,0,0
10,109999,9,100000,6,10000,40,9999,0.100000,0,0,0.000000,5,0.000000,0.000000,0.162717,0,0,0,0,0,0,0
10,109999,10,100000,41,50000,40,9999,0.100000,0,0,0.000000,5,0.000000,0.000000,0.732952,0,0,0,0,0,0,0
10,109999,11,100000,7,0,49,9999,0.100000,0,0,0.000000,5,2.000000,0.000000,10.345101,0,0,0,0,0,0,0
10,109999,12,100000,6,10000,40,9999,0.100000,0,0,0.000000,5,0.000000,0.000000,2.665390,0,0,0,0,0,0,0
10,109999,13,100000,7,0,40,9999,0.100000,0,0,0.000000,5,0.000000,0.000000,0.459472,0,0,0,0,0,0,0
10,109999,14,100000,6,10000,40,9999,0.100000,0,0,0.000000,5,0.000000,0.000000,0.279598,0,0,0,0,0,0,0
10,109999,15,100000,3,0,40,9999,0.100000,0,0,0.000000,5,0.000000,0.000000,0.256768,0,0,0,0,0,0,0
10,109999,16,100000,41,50000,40,9999,0.100000,0,0,0.000000,5,0.000000,0.000000,0.129249,0,0,0,0,0,0,0
10,109999,17,100000,41,50000,40,9999,0.100000,0,0,0.000000,5,0.000000,0.000000,11.136842,0,0,0,0,0,0,0
10,109999,18,100000,7,0,40,9999,0.100000,0,0,0.000000,5,0.000000,0.000000,0.648880,0,0,0,0,0,0,0
10,109999,19,100000,41,50000,40,9999,0.100000,0,0,0.000000,5,0.000000,0.000000,0.777289,0,0,0,0,0,0,0
10,109999,20,100000,3,0,49,9999,0.100000,0,0,0.000000,5,3.000000,0.000000,6.235415,0,0,0,0,0,0,0
10,109999,21,100000,11,40000,40,9999,0.100000,0,0,0.000000,5,0.000000,0.000000,0.497307,0,0,0,0,0,0,0
10,109999,22,100000,6,10000,40,9999,0.100000,0,0,0.000000,5,0.000000,0.000000,0.433471,0,0,0,0,0,0,0
10,109999,23,100000,6,10000,40,9999,0.100000,0,0,0.000000,5,0.000000,0.000000,0.153589,0,0,0,0,0,0,0
10,109999,24,100000,41,50000,40,9999,0.100000,0,0,0.000000,5,0.000000,0.000000,4.487807,0,0,0,0,0,0,0
10,109999,25,100000,3,0,40,9999,0.100000,0,0,0.000000,5,0.000000,0.000000,0.404298,0,0,0,0,0,0,0
10,109999,26,100000,41,50000,40,9999,0.100000,0,0,0.000000,5,0.000000,0.000000,1.776389,0,0,0,0,0,0,0
10,109999,27,100000,11,40000,40,9999,0.100000,0,0,0.000000,5,0.000000,0.000000,0.776056,0,0,0,0,0,0,0
10,109999,28,100000,3,0,40,9999,0.100000,0,0,0.000000,5,0.000000,0.000000,0.145752,0,0,0,0,0,0,0
10,109999,29,100000,7,0,40,9999,0.100000,0,0,0.000000,5,0.000000,0.000000,1.012225,0,0,0,0,0,0,0
10,109999,30,100000,41,50000,40,9999,0.100000,0,0,0.000000,5,0.000000,0.000000,0.204013,0,0,0,0,0,0,0
10,109999,31,100000,41,50000,40,9999,0.100000,0,0,0.000000,5,0.000000,0.000000,0.168658,0,0,0,0,0,0,0
10,109999,32,100000,3,0,40,9999,0.100000,0,0,0.000000,5,0.000000,0.000000,0.334447,0,0,0,0,0,0,0
10,109999,33,100000,3,0,49,9999,0.100000,0,0,0.000000,5,1.000000,0.000000,2.711821,0,0,0,0,0,0,0
10,109999,34,100000,7,0,40,9999,0.100000,0,0,0.000000,5,0.000000,0.000000,0.990244,0,0,0,0,0,0,0
10,109999,35,100000,41,50000,40,9999,0.100000,0,0,0.000000,5,0.000000,0.000000,0.690381,0,0,0,0,0,0,0
10,109999,36,100000,6,10000,49,9999,0.100000,0,0,0.000000,5,1.000000,0.000000,21.433362,0,0,0,0,0,0,0
10,109999,37,100000,7,0,40,9999,0.100000,0,0,0.000000,5,0.000000,0.000000,0.135184,0,0,0,0,0,0,0
10,109999,38,100000,41,50000,40,9999,0.100000,0,0,0.000000,5,0.000000,0.000000,0.216849,0,0,0,0,0,0,0
10,109999,39,100000,3,0,40,9999,0.100000,0,0,0.000000,5,0.000000,0.000000,0.451032,0,0,0,0,0,0,0
10,109999,40,100000,41,50000,40,9999,0.100000,0,0,0.000000,5,0.000000,0.000000,0.152584,0,0,0,0,0,0,0
10,109999,41,100000,11,40000,40,9999,0.100000,0,0,0.000000,5,0.000000,0.000000,0.208944,0,0,0,0,0,0,0
10,109999,42,100000,11,40000,40,9999,0.100000,0,0,0.000000,5,0.000000,0.000000,0.242213,0,0,0,0,0,0,0
10,109999,43,100000,7,0,40,9999,0.100000,0,0,0.000000,5,0.000000,0.000000,2.072507,0,0,0,0,0,0,0
10,109999,44,100000,11,40000,49,9999,0.100000,0,0,0.000000,5,1.000000,0.000000,15.698265,0,0,0,0,0,0,0
10,109999,45,100000,6,10000,49,9999,0.100000,0,0,0.000000,5,6.000000,0.000000,13.825047,0,0,0,0,0,0,0
10,109999,46,100000,6,10000,40,9999,0.100000,0,0,0.000000,5,0.000000,0.000000,0.398196,0,0,0,0,0,0,0
10,109999,47,100000,41,50000,40,9999,0.100000,0,0,0.000000,5,0.000000,0.000000,0.319851,0,0,0,0,0,0,0
10,109999,48,100000,41,50000,40,9999,0.100000,0,0,0.000000,5,0.000000,0.000000,0.521822,0,0,0,0,0,0,0
10,109999,49,100000,41,50000,40,9999,0.100000,0,0,0.000000,5,0.000000,0.000000,0.309603,0,0,0,0,0,0,0
10,109999,50,100000,41,50000,40,9999,0.100000,0,0,0.000000,5,0.000000,0.000000,6.581005,0,0,0,0,0,0,0
10,109999,51,100000,6,10000,49,9999,0.100000,0,0,0.000000,5,1.000000,0.000000,1.312265,0,0,0,0,0,0,0
10,109999,52,100000,41,50000,40,9999,0.100000,0,0,0.000000,5,0.000000,0.000000,0.141785,0,0,0,0,0,0,0
10,109999,53,100000,41,50000,40,9999,0.100000,0,0,0.000000,5,0.000000,0.000000,0.180490,0,0,0,0,0,0,0
10,109999,54,100000,7,0,40,9999,0.065000,0,0,0.000000,5,0.000000,0.000000,1.384197,0,0,0,0,0,0,0
10,109999,55,100000,6,10000,40,9999,0.100000,0,0,0.000000,5,0.000000,0.000000,13.807335,0,0,0,0,0,0,0
10,109999,56,100000,7,0,40,9999,0.100000,0,0,0.000000,5,0.000000,0.000000,7.496188,0,0,0,0,0,0,0
10,109999,57,100000,3,0,40,9999,0.100000,0,0,0.000000,5,0.000000,0.000000,0.246739,0,0,0,0,0,0,0
10,109999,58,100000,6,10000,40,9999,0.100000,0,0,0.000000,5,0.000000,0.000000,0.733014,0,0,0,0,0,0,0
10,109999,59,100000,3,0,40,9999,0.100000,0,0,0.000000,5,0.000000,0.000000,0.193317,0,0,0,0,0,0,0
10,109999,60,100000,11,40000,40,9999,0.100000,0,0,0.000000,5,0.000000,0.000000,1.447165,0,0,0,0,0,0,0
10,109999,61,100000,11,40000,40,9999,0.100000,0,0,0.000000,5,0.000000,0.000000,0.236948,0,0,0,0,0,0,0
10,109999,62,100000,6,10000,40,9999,0.100000,0,0,0.000000,5,0.000000,0.000000,0.625128,0,0,0,0,0,0,0
10,109999,63,100000,11,40000,40,9999,0.100000,0,0,0.000000,5,0.000000,0.000000,0.585623,0,0,0,0,0,0,0
10,109999,64,100000,3,0,40,9999,0.100000,0,0,0.000000,5,0.000000,0.000000,0.368353,0,0,0,0,0,0,0
10,109999,65,100000,41,50000,49,9999,0.100000,0,0,0.000000,5,3.000000,0.000000,11.653253,0,0,0,0,0,0,0
10,109999,66,100000,11,40000,49,9999,0.100000,0,0,0.000000,5,2.000000,0.000000,14.827541,0,0,0,0,0,0,0
10,109999,67,100000,41,50000,40,9999,0.100000,0,0,0.000000,5,0.000000,0.000000,0.789464,0,0,0,0,0,0,0
10,109999,68,100000,7,0,49,9999,0.100000,0,0,0.000000,5,5.000000,0.000000,7.566153,0,0,0,0,0,0,0
10,109999,69,100000,11,40000,40,9999,0.100000,0,0,0.000000,5,0.000000,0.000000,0.617939,0,0,0,0,0,0,0
10,109999,70,100000,3,0,40,9999,0.065000,0,0,0.000000,5,0.000000,0.000000,0.318488,0,0,0,0,0,0,0
10,109999,71,100000,41,50000,49,9999,0.100000,0,0,0.000000,5,2.000000,0.000000,8.133560,0,0,0,0,0,0,0
10,109999,72,100000,11,40000,40,9999,0.100000,0,0,0.000000,5,0.000000,0.000000,0.697448,0,0,0,0,0,0,0
10,109999,73,100000,11,40000,49,9999,0.100000,0,0,0.000000,5,3.000000,0.000000,8.080776,0,0,0,0,0,0,0
10,109999,74,100000,11,40000,40,9999,0.100000,0,0,0.000000,5,0.000000,0.000000,0.899995,0,0,0,0,0,0,0
10,109999,75,100000,6,10000,40,9999,0.100000,0,0,0.000000,5,0.000000,0.000000,2.075566,0,0,0,0,0,0,0
10,109999,76,100000,11,40000,40,9999,0.100000,0,0,0.000000,5,0.000000,0.000000,0.148666,0,0,0,0,0,0,0
10,109999,77,100000,7,0,40,9999,0.100000,0,0,0.000000,5,0.000000,0.000000,0.564725,0,0,0,0,0,0,0
10,109999,78,100000,7,0,40,9999,0.100000,0,0,0.000000,5,0.000000,0.000000,0.315825,0,0,0,0,0,0,0
10,109999,79,100000,7,0,40,9999,0.100000,0,0,0.000000,5,0.000000,0.000000,0.143435,0,0,0,0,0,0,0
10,109999,80,100000,11,40000,40,9999,0.100000,0,0,0.000000,5,0.000000,0.000000,0.302003,0,0,0,0,0,0,0
10,109999,81,100000,6,10000,40,9999,0.100000,0,0,0.000000,5,0.000000,0.000000,2.263057,0,0,0,0,0,0,0
10,109999,82,100000,11,40000,49,9999,0.100000,0,0,0.000000,5,1.000000,0.000000,8.575257,0,0,0,0,0,0,0
10,109999,83,100000,11,40000,49,9999,0.100000,0,0,0.000000,5,2.000000,0.000000,5.311576,0,0,0,0,0,0,0
10,109999,84,100000,11,40000,40,9999,0.100000,0,0,0.000000,5,0.000000,0.000000,0.285488,0,0,0,0,0,0,0
10,109999,85,100000,11,40000,49,9999,0.100000,0,0,0.000000,5,2.000000,0.000000,11.299642,0,0,0,0,0,0,0
10,109999,86,100000,6,10000,40,9999,0.100000,0,0,0.000000,5,0.000000,0.000000,0.757199,0,0,0,0,0,0,0
10,109999,87,100000,3,0,40,9999,0.100000,0,0,0.000000,5,0.000000,0.000000,0.426878,0,0,0,0,0,0,0
10,109999,88,100000,7,0,40,9999,0.100000,0,0,0.000000,5,0.000000,0.000000,0.388014,0,0,0,0,0,0,0
10,109999,89,100000,11,40000,40,9999,0.100000,0,0,0.000000,5,0.000000,0.000000,0.913155,0,0,0,0,0,0,0
10,109999,90,100000,3,0,40,9999,0.100000,0,0,0.000000,5,0.000000,0.000000,0.159449,0,0,0,0,0,0,0
10,109999,91,100000,41,50000,40,9999,0.100000,0,0,0.000000,5,0.000000,0.000000,2.098315,0,0,0,0,0,0,0
10,109999,92,100000,3,0,40,9999,0.100000,0,0,0.000000,5,0.000000,0.000000,3.332018,0,0,0,0,0,0,0
10,109999,93,100000,7,0,40,9999,0.100000,0,0,0.000000,5,0.000000,0.000000,0.539305,0,0,0,0,0,0,0
10,109999,94,100000,41,50000,40,9999,0.100000,0,0,0.000000,5,0.000000,0.000000,0.321609,0,0,0,0,0,0,0
10,109999,95,100000,41,50000,49,9999,0.100000,0,0,0.000000,5,1.000000,0.000000,6.119371,0,0,0,0,0,0,0
10,109999,96,100000,6,10000,40,9999,0.100000,0,0,0.000000,5,0.000000,0.000000,6.327451,0,0,0,0,0,0,0
10,109999,97,100000,6,10000,40,9999,0.100000,0,0,0.000000,5,0.000000,0.000000,9.994423,0,0,0,0,0,0,0
10,109999,98,100000,41,50000,40,9999,0.100000,0,0,0.000000,5,0.000000,0.000000,0.386728,0,0,0,0,0,0,0
10,109999,99,100000,3,0,40,9999,0.100000,0,0,0.000000,5,0.000000,0.000000,0.560403,0,0,0,0,0,0,0
11,119999,0,110000,11,40000,40,9999,0.100000,0,0,0.000000,5,0.000000,0.000000,0.859076,0,0,0,0,0,0,0
11,119999,1,110000,41,50000,40,9999,0.100000,0,0,0.000000,5,0.000000,0.000000,0.533876,0,0,0,0,0,0,0
11,119999,2,110000,3,0,40,9999,0.100000,0,0,0.000000,5,0.000000,0.000000,3.441333,0,0,0,0,0,0,0
11,119999,3,110000,7,0,40,9999,0.100000,0,0,0.000000,5,0.000000,0.000000,0.009700,0,0,0,0,0,0,0
11,119999,4,110000,7,0,40,9999,0.100000,0,0,0.000000,5,0.000000,0.000000,0.195218,0,0,0,0,0,0,0
11,119999,5,110000,11,40000,49,9999,0.100000,0,0,0.000000,5,3.000000,0.000000,11.518688,0,0,0,0,0,0,0
11,119999,6,110000,41,50000,49,9999,0.100000,0,0,0.000000,5,2.000000,0.000000,7.822407,0,0,0,0,0,0,0
11,119999,7,110000,6,10000,40,9999,0.100000,0,0,0.000000,5,0.000000,0.000000,1.105528,0,0,0,0,0,0,0
11,119999,8,110000,7,0,49,9999,0.100000,0,0,0.000000,5,9.000000,0.000000,13.391112,0,0,0,0,0,0,0
11,119999,9,110000,11,40000,40,9999,0.100000,0,0,0.000000,5,0.000000,0.000000,0.210575,0,0,0,0,0,0,0
11,119999,10,110000,3,0,40,9999,0.100000,0,0,0.000000,5,0.000000,0.000000,0.870155,0,0,0,0,0,0,0
11,119999,11,110000,6,10000,49,9999,0.100000,0,0,0.000000,5,2.000000,0.000000,6.395908,0,0,0,0,0,0,0
11,119999,12,110000,6,10000,40,9999,0.100000,0,0,0.000000,5,0.000000,0.000000,2.760304,0,0,0,0,0,0,0
11,119999,13,110000,7,0,40,9999,0.100000,0,0,0.000000,5,0.000000,0.000000,0.484056,0,0,0,0,0,0,0
11,119999,14,110000,41,50000,40,9999,0.100000,0,0,0.000000,5,0.000000,0.000000,0.263782,0,0,0,0,0,0,0
11,119999,15,110000,7,0,40,9999,0.065000,0,0,0.000000,5,0.000000,0.000000,0.245763,0,0,0,0,0,0,0
11,119999,16,110000,6,10000,40,9999,0.100000,0,0,0.000000,5,0.000000,0.000000,0.137031,0,0,0,0,0,0,0
11,119999,17,110000,41,50000,40,9999,0.100000,0,0,0.000000,5,0.000000,0.000000,4.917077,0,0,0,0,0,0,0
11,119999,18,110000,6,10000,40,9999,0.100000,0,0,0.000000,5,0.000000,0.000000,0.380700,0,0,0,0,0,0,0
11,119999,19,110000,3,0,40,9999,0.100000,0,0,0.000000,5,0.000000,0.000000,0.601957,0,0,0,0,0,0,0
11,119999,20,110000,7,0,40,9999,0.100000,0,0,0.000000,5,0.000000,0.000000,3.179603,0,0,0,0,0,0,0
11,119999,21,110000,6,10000,40,9999,0.100000,0,0,0.000000,5,0.000000,0.000000,0.460952,0,0,0,0,0,0,0
11,119999,22,110000,7,0,40,9999,0.100000,0,0,0.000000,5,0.000000,0.000000,0.320528,0,0,0,0,0,0,0
11,119999,23,110000,11,40000,40,9999,0.100000,0,0,0.000000,5,0.000000,0.000000,0.140330,0,0,0,0,0,0,0
11,119999,24,110000,7,0,49,9999,0.100000,0,0,0.000000,6,1.000000,0.000000,3.654755,0,0,0,0,0,0,0
11,119999,25,110000,7,0,40,9999,0.135000,0,0,0.000000,5,0.000000,0.000000,0.267504,0,0,0,0,0,0,0
11,119999,26,110000,3,0,40,9999,0.100000,0,0,0.000000,5,0.000000,0.000000,0.979676,0,0,0,0,0,0,0
11,119999,27,110000,7,0,40,9999,0.100000,0,0,0.000000,5,0.000000,0.000000,0.739345,0,0,0,0,0,0,0
11,119999,28,110000,11,40000,40,9999,0.100000,0,0,0.000000,5,0.000000,0.000000,0.314561,0,0,0,0,0,0,0
11,119999,29,110000,7,0,40,9999,0.100000,0,0,0.000000,5,0.000000,0.000000,0.952474,0,0,0,0,0,0,0
11,119999,30,110000,41,50000,40,9999,0.100000,0,0,0.000000,5,0.000000,0.000000,0.208754,0,0,0,0,0,0,0
11,119999,31,110000,41,50000,40,9999,0.100000,0,0,0.000000,5,0.000000,0.000000,0.160909,0,0,0,0,0,0,0
11,119999,32,110000,11,40000,40,9999,0.100000,0,0,0.000000,5,0.000000,0.000000,0.379166,0,0,0,0,0,0,0
11,119999,33,110000,11,40000,40,9999,0.100000,0,0,0.000000,5,0.000000,0.000000,1.511016,0,0,0,0,0,0,0
11,119999,34,110000,7,0,40,9999,0.100000,0,0,0.000000,5,0.000000,0.000000,0.954645,0,0,0,0,0,0,0
11,119999,35,110000,3,0,40,9999,0.100000,0,0,0.000000,5,0.000000,0.000000,1.317406,0,0,0,0,0,0,0
11,119999,36,110000,6,10000,40,9999,0.100000,0,0,0.000000,5,0.000000,0.000000,21.504693,0,0,0,0,0,0,0
11,119999,37,110000,11,40000,40,9999,0.100000,0,0,0.000000,5,0.000000,0.000000,0.140821,0,0,0,0,0,0,0
11,119999,38,110000,3,0,40,9999,0.100000,0,0,0.000000,5,0.000000,0.000000,0.218798,0,0,0,0,0,0,0
11,119999,39,110000,24,100000,40,9999,0.100000,0,0,0.000000,6,0.000000,0.000000,0.453225,0,0,0,0,0,0,0
11,119999,40,110000,7,0,40,9999,0.100000,0,0,0.000000,5,0.000000,0.000000,0.154878,0,0,0,0,0,0,0
11,119999,41,110000,41,50000,40,9999,0.100000,0,0,0.000000,5,0.000000,0.000000,0.155044,0,0,0,0,0,0,0
11,119999,42,110000,7,0,40,9999,0.100000,0,0,0.000000,5,0.000000,0.000000,0.235953,0,0,0,0,0,0,0
11,119999,43,110000,6,10000,40,9999,0.100000,0,0,0.000000,5,0.000000,0.000000,2.120953,0,0,0,0,0,0,0
11,119999,44,110000,11,40000,40,9999,0.100000,0,0,0.000000,5,0.000000,0.000000,9.845542,0,0,0,0,0,0,0
11,119999,45,110000,6,10000,40,9999,0.100000,0,0,0.000000,5,0.000000,0.000000,0.754932,0,0,0,0,0,0,0
11,119999,46,110000,11,40000,40,9999,0.100000,0,0,0.000000,5,0.000000,0.000000,0.509627,0,0,0,0,0,0,0
11,119999,47,110000,3,0,40,9999,0.100000,0,0,0.000000,5,0.000000,0.000000,1.603729,0,0,0,0,0,0,0
11,119999,48,110000,7,0,40,9999,0.100000,0,0,0.000000,5,0.000000,0.000000,0.409484,0,0,0,0,0,0,0
11,119999,49,110000,3,0,40,9999,0.100000,0,0,0.000000,5,0.000000,0.000000,0.062250,0,0,0,0,0,0,0
11,119999,50,110000,6,10000,40,9999,0.100000,0,0,0.000000,5,0.000000,0.000000,2.685150,0,0,0,0,0,0,0
11,119999,51,110000,11,40000,40,9999,0.100000,0,0,0.000000,5,0.000000,0.000000,0.421297,0,0,0,0,0,0,0
11,119999,52,110000,7,0,40,9999,0.100000,0,0,0.000000,5,0.000000,0.000000,0.141523,0,0,0,0,0,0,0
11,119999,53,110000,7,0,40,9999,0.100000,0,0,0.000000,5,0.000000,0.000000,0.179043,0,0,0,0,0,0,0
11,119999,54,110000,3,0,40,9999,0.100000,0,0,0.000000,5,0.000000,0.000000,1.347716,0,0,0,0,0,0,0
11,119999,55,110000,41,50000,40,9999,0.100000,0,0,0.000000,5,0.000000,0.000000,22.233757,0,0,0,0,0,0,0
11,119999,56,110000,11,40000,40,9999,0.100000,0,0,0.000000,5,0.000000,0.000000,0.854175,0,0,0,0,0,0,0
11,119999,57,110000,11,40000,40,9999,0.100000,0,0,0.000000,5,0.000000,0.000000,0.247797,0,0,0,0,0,0,0
11,119999,58,110000,41,50000,40,9999,0.100000,0,0,0.000000,5,0.000000,0.000000,0.710899,0,0,0,0,0,0,0
11,119999,59,110000,3,0,40,9999,0.100000,0,0,0.000000,5,0.000000,0.000000,0.189804,0,0,0,0,0,0,0
11,119999,60,110000,6,10000,40,9999,0.100000,0,0,0.000000,5,0.000000,0.000000,2.433860,0,0,0,0,0,0,0
11,119999,61,110000,11,40000,40,9999,0.100000,0,0,0.000000,5,0.000000,0.000000,0.239261,0,0,0,0,0,0,0
11,119999,62,110000,7,0,40,9999,0.100000,0,0,0.000000,5,0.000000,0.000000,1.400588,0,0,0,0,0,0,0
11,119999,63,110000,7,0,40,9999,0.100000,0,0,0.000000,5,0.000000,0.000000,0.484454,0,0,0,0,0,0,0
11,119999,64,110000,7,0,40,9999,0.100000,0,0,0.000000,5,0.000000,0.000000,2.183596,0,0,0,0,0,0,0
11,119999,65,110000,6,10000,49,9999,0.100000,0,0,0.000000,5,4.000000,0.000000,85.023463,0,0,0,0,0,0,0
11,119999,66,110000,41,50000,40,9999,0.100000,0,0,0.000000,5,0.000000,0.000000,1.391098,0,0,0,0,0,0,0
11,119999,67,110000,6,10000,40,9999,0.100000,0,0,0.000000,5,0.000000,0.000000,0.775052,0,0,0,0,0,0,0
11,119999,68,110000,6,10000,49,9999,0.100000,0,0,0.000000,5,3.000000,0.000000,11.732547,0,0,0,0,0,0,0
11,119999,69,110000,7,0,40,9999,0.100000,0,0,0.000000,5,0.000000,0.000000,0.600550,0,0,0,0,0,0,0
11,119999,70,110000,11,40000,40,9999,0.100000,0,0,0.000000,5,0.000000,0.000000,0.367765,0,0,0,0,0,0,0
11,119999,71,110000,41,50000,49,9999,0.100000,0,0,0.000000,5,1.000000,0.000000,4.509177,0,0,0,0,0,0,0
11,119999,72,110000,41,50000,40,9999,0.100000,0,0,0.000000,6,0.000000,0.000000,0.247625,0,0,0,0,0,0,0
11,119999,73,110000,3,0,49,9999,0.100000,0,0,0.000000,5,1.000000,0.000000,12.582142,0,0,0,0,0,0,0
11,119999,74,110000,41,50000,40,9999,0.100000,0,0,0.000000,5,0.000000,0.000000,3.704975,0,0,0,0,0,0,0
11,119999,75,110000,7,0,40,9999,0.100000,0,0,0.000000,5,0.000000,0.000000,1.994866,0,0,0,0,0,0,0
11,119999,76,110000,3,0,40,9999,0.100000,0,0,0.000000,5,0.000000,0.000000,0.150981,0,0,0,0,0,0,0
11,119999,77,110000,7,0,40,9999,0.100000,0,0,0.000000,5,0.000000,0.000000,0.286521,0,0,0,0,0,0,0
11,119999,78,110000,41,50000,40,9999,0.100000,0,0,0.000000,5,0.000000,0.000000,0.320773,0,0,0,0,0,0,0
11,119999,79,110000,6,10000,40,9999,0.100000,0,0,0.000000,5,0.000000,0.000000,0.142952,0,0,0,0,0,0,0
11,119999,80,110000,11,40000,40,9999,0.100000,0,0,0.000000,5,0.000000,0.000000,0.287275,0,0,0,0,0,0,0
11,119999,81,110000,11,40000,40,9999,0.100000,0,0,0.000000,5,0.000000,0.000000,2.450697,0,0,0,0,0,0,0
11,119999,82,110000,7,0,49,9999,0.100000,0,0,0.000000,5,4.000000,0.000000,12.235668,0,0,0,0,0,0,0
11,119999,83,110000,7,0,49,9999,0.100000,0,0,0.000000,5,1.000000,0.000000,5.867538,0,0,0,0,0,0,0
11,119999,84,110000,3,0,40,9999,0.100000,0,0,0.000000,5,0.000000,0.000000,0.236621,0,0,0,0,0,0,0
11,119999,85,110000,7,0,40,9999,0.100000,0,0,0.000000,5,0.000000,0.000000,7.033101,0,0,0,0,0,0,0
11,119999,86,110000,3,0,40,9999,0.100000,0,0,0.000000,5,0.000000,0.000000,0.938650,0,0,0,0,0,0,0
11,119999,87,110000,3,0,40,9999,0.100000,0,0,0.000000,5,0.000000,0.000000,0.851625,0,0,0,0,0,0,0
11,119999,88,110000,3,0,40,9999,0.100000,0,0,0.000000,5,0.000000,0.000000,0.361361,0,0,0,0,0,0,0
11,119999,89,110000,11,40000,40,9999,0.065000,0,0,0.000000,5,0.000000,0.000000,1.327227,0,0,0,0,0,0,0
11,119999,90,110000,3,0,40,9999,0.100000,0,0,0.000000,5,0.000000,0.000000,0.180155,0,0,0,0,0,0,0
11,119999,91,110000,41,50000,40,9999,0.100000,0,0,0.000000,5,0.000000,0.000000,0.108199,0,0,0,0,0,0,0
11,119999,92,110000,11,40000,40,9999,0.100000,0,0,0.000000,5,0.000000,0.000000,2.908823,0,0,0,0,0,0,0
11,119999,93,110000,3,0,40,9999,0.100000,0,0,0.000000,5,0.000000,0.000000,0.369722,0,0,0,0,0,0,0
11,119999,94,110000,3,0,40,9999,0.100000,0,0,0.000000,5,0.000000,0.000000,0.344008,0,0,0,0,0,0,0
11,119999,95,110000,3,0,40,9999,0.100000,0,0,0.000000,6,0.000000,0.000000,4.218801,0,0,0,0,0,0,0
11,119999,96,110000,3,0,40,9999,0.100000,0,0,0.000000,5,0.000000,0.000000,4.937469,0,0,0,0,0,0,0
11,119999,97,110000,3,0,40,9999,0.100000,0,0,0.000000,5,0.000000,0.000000,0.779273,0,0,0,0,0,0,0
11,119999,98,100000,41,50000,40,19999,0.135000,0,0,0.000000,5,0.000000,0.000000,0.369557,0,0,0,0,0,0,0
11,119999,99,110000,41,50000,40,9999,0.100000,0,0,0.000000,5,0.000000,0.000000,0.524615,0,0,0,0,0,0,0
12,129999,0,120000,3,0,40,9999,0.100000,0,0,0.000000,6,0.000000,0.000000,1.604891,0,0,0,0,0,0,0
12,129999,1,120000,11,40000,40,9999,0.100000,0,0,0.000000,6,0.000000,0.000000,0.125468,0,0,0,0,0,0,0
12,129999,2,120000,6,10000,40,9999,0.100000,0,0,0.000000,6,0.000000,0.000000,3.532449,0,0,0,0,0,0,0
12,129999,3,120000,6,10000,40,9999,0.100000,0,0,0.000000,6,0.000000,0.000000,0.089145,0,0,0,0,0,0,0
12,129999,4,120000,11,40000,40,9999,0.100000,0,0,0.000000,6,0.000000,0.000000,0.985303,0,0,0,0,0,0,0
12,129999,5,120000,6,10000,49,9999,0.100000,0,0,0.000000,6,6.000000,0.000000,18.756697,0,0,0,0,0,0,0
12,129999,6,120000,6,10000,40,9999,0.100000,0,0,0.000000,6,0.000000,0.000000,1.004324,0,0,0,0,0,0,0
12,129999,7,120000,6,10000,40,9999,0.100000,0,0,0.000000,6,0.000000,0.000000,0.668968,0,0,0,0,0,0,0
12,129999,8,120000,24,100000,40,9999,0.100000,0,0,0.000000,6,0.000000,0.000000,2.064778,0,0,0,0,0,0,0
12,129999,9,120000,6,10000,40,9999,0.100000,0,0,0.000000,6,0.000000,0.000000,0.158096,0,0,0,0,0,0,0
12,129999,10,120000,11,40000,49,9999,0.100000,0,0,0.000000,6,1.000000,0.000000,2.280906,0,0,0,0,0,0,0
12,129999,11,120000,24,100000,40,9999,0.100000,0,0,0.000000,6,0.000000,0.000000,0.215657,0,0,0,0,0,0,0
12,129999,12,120000,6,10000,40,9999,0.100000,0,0,0.000000,6,0.000000,0.000000,2.635185,0,0,0,0,0,0,0
12,129999,13,120000,3,0,40,9999,0.100000,0,0,0.000000,6,0.000000,0.000000,2.760471,0,0,0,0,0,0,0
12,129999,14,120000,7,0,40,9999,0.100000,0,0,0.000000,6,0.000000,0.000000,0.258209,0,0,0,0,0,0,0
12,129999,15,120000,41,50000,49,9999,0.100000,0,0,0.000000,6,1.000000,0.000000,1.227854,0,0,0,0,0,0,0
12,129999,16,120000,24,100000,40,9999,0.100000,0,0,0.000000,6,0.000000,0.000000,0.566199,0,0,0,0,0,0,0
12,129999,17,120000,24,100000,40,9999,0.100000,0,0,0.000000,6,0.000000,0.000000,4.592375,0,0,0,0,0,0,0
12,129999,18,120000,24,100000,40,9999,0.100000,0,0,0.000000,6,0.000000,0.000000,0.393151,0,0,0,0,0,0,0
12,129999,19,120000,3,0,40,9999,0.100000,0,0,0.000000,6,0.000000,0.000000,0.160009,0,0,0,0,0,0,0
12,129999,20,120000,24,100000,40,9999,0.100000,0,0,0.000000,6,0.000000,0.000000,3.307344,0,0,0,0,0,0,0
12,129999,21,120000,24,100000,40,9999,0.100000,0,0,0.000000,6,0.000000,0.000000,1.132691,0,0,0,0,0,0,0
12,129999,22,120000,6,10000,40,9999,0.100000,0,0,0.000000,6,0.000000,0.000000,1.291119,0,0,0,0,0,0,0
12,129999,23,120000,7,0,40,9999,0.100000,0,0,0.000000,6,0.000000,0.000000,0.152544,0,0,0,0,0,0,0
12,129999,24,120000,7,0,40,9999,0.100000,0,0,0.000000,6,0.000000,0.000000,0.681559,0,0,0,0,0,0,0
12,129999,25,120000,41,50000,40,9999,0.100000,0,0,0.000000,6,0.000000,0.000000,0.291849,0,0,0,0,0,0,0
12,129999,26,120000,6,10000,40,9999,0.100000,0,0,0.000000,6,0.000000,0.000000,1.819131,0,0,0,0,0,0,0
12,129999,27,120000,24,100000,40,9999,0.100000,0,0,0.000000,6,0.000000,0.000000,1.192304,0,0,0,0,0,0,0
12,129999,28,120000,11,40000,40,9999,0.100000,0,0,0.000000,6,0.000000,0.000000,0.141803,0,0,0,0,0,0,0
12,129999,29,120000,7,0,40,9999,0.100000,0,0,0.000000,6,0.000000,0.000000,0.687637,0,0,0,0,0,0,0
12,129999,30,120000,7,0,40,9999,0.100000,0,0,0.000000,6,0.000000,0.000000,0.484949,0,0,0,0,0,0,0
12,129999,31,120000,24,100000,40,9999,0.100000,0,0,0.000000,6,0.000000,0.000000,0.967966,0,0,0,0,0,0,0
12,129999,32,120000,7,0,40,9999,0.100000,0,0,0.000000,6,0.000000,0.000000,0.187596,0,0,0,0,0,0,0
12,129999,33,120000,7,0,40,9999,0.100000,0,0,0.000000,6,0.000000,0.000000,0.875864,0,0,0,0,0,0,0
12,129999,34,120000,11,40000,40,9999,0.100000,0,0,0.000000,6,0.000000,0.000000,0.978006,0,0,0,0,0,0,0
12,129999,35,120000,3,0,40,9999,0.100000,0,0,0.000000,6,0.000000,0.000000,6.098133,0,0,0,0,0,0,0
12,129999,36,120000,24,100000,40,9999,0.100000,0,0,0.000000,6,0.000000,0.000000,3.286506,0,0,0,0,0,0,0
12,129999,37,120000,24,100000,40,9999,0.100000,0,0,0.000000,6,0.000000,0.000000,0.136494,0,0,0,0,0,0,0
12,129999,38,120000,6,10000,49,9999,0.100000,0,0,0.000000,6,1.000000,0.000000,1.111134,0,0,0,0,0,0,0
12,129999,39,120000,6,10000,40,9999,0.100000,0,0,0.000000,6,0.000000,0.000000,1.198087,0,0,0,0,0,0,0
