generation,iteration,robot,birthday,ancestor_id,ancestor_birthday,cell_id,age,sigma,maps,genomes,fitness,cells_in_map,dist_max,dist_pot_max,dist_total,com_rx,com_tx,obj_group1,obj_group2,obj_group3,obj_group4,obj_group5
0,9999,0,0,0,0,49,9999,0.100000,0,0,0.000000,0,11.000000,0.000000,12.496148,0,0,0,0,0,0,0
0,9999,1,0,1,0,49,9999,0.100000,0,0,0.000000,0,10.000000,0.000000,21.933557,0,0,0,0,0,0,0
0,9999,2,0,2,0,49,9999,0.100000,0,0,0.000000,0,7.000000,0.000000,13.825577,0,0,0,0,0,0,0
0,9999,3,0,3,0,49,9999,0.100000,0,0,0.000000,0,12.000000,0.000000,26.892152,0,0,0,0,0,0,0
0,9999,4,0,4,0,49,9999,0.100000,0,0,0.000000,0,9.000000,0.000000,23.880001,0,0,0,0,0,0,0
0,9999,5,0,5,0,49,9999,0.100000,0,0,0.000000,0,2.000000,0.000000,8.216033,0,0,0,0,0,0,0
0,9999,6,0,6,0,49,9999,0.100000,0,0,0.000000,0,10.000000,0.000000,17.290303,0,0,0,0,0,0,0
0,9999,7,0,7,0,49,9999,0.100000,0,0,0.000000,0,5.000000,0.000000,10.028864,0,0,0,0,0,0,0
0,9999,8,0,8,0,49,9999,0.100000,0,0,0.000000,0,6.000000,0.000000,16.562129,0,0,0,0,0,0,0
0,9999,9,0,9,0,9,9999,0.100000,0,0,0.000000,0,9.000000,0.000000,12.008946,0,0,0,0,0,0,1
0,9999,10,0,10,0,49,9999,0.100000,0,0,0.000000,0,10.000000,0.000000,13.066208,0,0,0,0,0,0,0
0,9999,11,0,11,0,49,9999,0.100000,0,0,0.000000,0,11.000000,0.000000,23.477241,0,0,0,0,0,0,0
0,9999,12,0,12,0,49,9999,0.100000,0,0,0.000000,0,8.000000,0.000000,13.065015,0,0,0,0,0,0,0
0,9999,13,0,13,0,49,9999,0.100000,0,0,0.000000,0,12.000000,0.000000,27.371833,0,0,0,0,0,0,0
0,9999,14,0,14,0,49,9999,0.100000,0,0,0.000000,0,9.000000,0.000000,26.264191,0,0,0,0,0,0,0
0,9999,15,0,15,0,49,9999,0.100000,0,0,0.000000,0,2.000000,0.000000,3.027956,0,0,0,0,0,0,0
0,9999,16,0,16,0,49,9999,0.100000,0,0,0.000000,0,6.000000,0.000000,7.850456,0,0,0,0,0,0,0
0,9999,17,0,17,0,9,9999,0.100000,0,0,0.000000,0,8.000000,0.000000,12.641717,0,0,0,0,0,0,1
0,9999,18,0,18,0,49,9999,0.100000,0,0,0.000000,0,4.000000,0.000000,6.987263,0,0,0,0,0,0,0
0,9999,19,0,19,0,49,9999,0.100000,0,0,0.000000,0,2.000000,0.000000,2.810762,0,0,0,0,0,0,0
0,9999,20,0,20,0,49,9999,0.100000,0,0,0.000000,0,10.000000,0.000000,25.648166,0,0,0,0,0,0,0
0,9999,21,0,21,0,49,9999,0.100000,0,0,0.000000,0,8.000000,0.000000,10.100767,0,0,0,0,0,0,0
0,9999,22,0,22,0,49,9999,0.100000,0,0,0.000000,0,9.000000,0.000000,10.704423,0,0,0,0,0,0,0
0,9999,23,0,23,0,49,9999,0.100000,0,0,0.000000,0,9.000000,0.000000,14.829335,0,0,0,0,0,0,0
0,9999,24,0,24,0,49,9999,0.100000,0,0,0.000000,0,4.000000,0.000000,11.775256,0,0,0,0,0,0,0
0,9999,25,0,25,0,49,9999,0.100000,0,0,0.000000,0,11.000000,0.000000,20.729378,0,0,0,0,0,0,0
0,9999,26,0,26,0,49,9999,0.100000,0,0,0.000000,0,6.000000,0.000000,24.663504,0,0,0,0,0,0,0
0,9999,27,0,27,0,49,9999,0.100000,0,0,0.000000,0,8.000000,0.000000,8.373238,0,0,0,0,0,0,0
0,9999,28,0,28,0,49,9999,0.100000,0,0,0.000000,0,11.000000,0.000000,17.958152,0,0,0,0,0,0,0
0,9999,29,0,29,0,49,9999,0.100000,0,0,0.000000,0,11.000000,0.000000,14.153855,0,0,0,0,0,0,0
0,9999,30,0,30,0,49,9999,0.100000,0,0,0.000000,0,7.000000,0.000000,11.737525,0,0,0,0,0,0,0
0,9999,31,0,31,0,49,9999,0.100000,0,0,0.000000,0,9.000000,0.000000,19.397573,0,0,0,0,0,0,0
0,9999,32,0,32,0,49,9999,0.100000,0,0,0.000000,0,6.000000,0.000000,17.167005,0,0,0,0,0,0,0
0,9999,33,0,33,0,49,9999,0.100000,0,0,0.000000,0,4.000000,0.000000,8.829501,0,0,0,0,0,0,0
0,9999,34,0,34,0,49,9999,0.100000,0,0,0.000000,0,6.000000,0.000000,14.213460,0,0,0,0,0,0,0
0,9999,35,0,35,0,49,9999,0.100000,0,0,0.000000,0,10.000000,0.000000,15.376647,0,0,0,0,0,0,0
0,9999,36,0,36,0,49,9999,0.100000,0,0,0.000000,0,4.000000,0.000000,4.475249,0,0,0,0,0,0,0
0,9999,37,0,37,0,49,9999,0.100000,0,0,0.000000,0,6.000000,0.000000,8.219803,0,0,0,0,0,0,0
0,9999,38,0,38,0,49,9999,0.100000,0,0,0.000000,0,4.000000,0.000000,4.990186,0,0,0,0,0,0,0
0,9999,39,0,39,0,49,9999,0.100000,0,0,0.000000,0,6.000000,0.000000,13.541159,0,0,0,0,0,0,0
0,9999,40,0,40,0,49,9999,0.100000,0,0,0.000000,0,6.000000,0.000000,6.694217,0,0,0,0,0,0,0
0,9999,41,0,41,0,49,9999,0.100000,0,0,0.000000,0,10.000000,0.000000,24.070675,0,0,0,0,0,0,0
0,9999,42,0,42,0,49,9999,0.100000,0,0,0.000000,0,7.000000,0.000000,14.003287,0,0,0,0,0,0,0
0,9999,43,0,43,0,49,9999,0.100000,0,0,0.000000,0,5.000000,0.000000,6.859004,0,0,0,0,0,0,0
0,9999,44,0,44,0,49,9999,0.100000,0,0,0.000000,0,4.000000,0.000000,8.598252,0,0,0,0,0,0,0
0,9999,45,0,45,0,49,9999,0.100000,0,0,0.000000,0,1.000000,0.000000,8.411613,0,0,0,0,0,0,0
0,9999,46,0,46,0,49,9999,0.100000,0,0,0.000000,0,7.000000,0.000000,21.452986,0,0,0,0,0,0,0
0,9999,47,0,47,0,49,9999,0.100000,0,0,0.000000,0,4.000000,0.000000,5.440493,0,0,0,0,0,0,0
0,9999,48,0,48,0,49,9999,0.100000,0,0,0.000000,0,6.000000,0.000000,24.941931,0,0,0,0,0,0,0
0,9999,49,0,49,0,49,9999,0.100000,0,0,0.000000,0,8.000000,0.000000,10.866250,0,0,0,0,0,0,0
0,9999,50,0,50,0,49,9999,0.100000,0,0,0.000000,0,2.000000,0.000000,2.373906,0,0,0,0,0,0,0
0,9999,51,0,51,0,49,9999,0.100000,0,0,0.000000,0,9.000000,0.000000,15.154852,0,0,0,0,0,0,0
0,9999,52,0,52,0,49,9999,0.100000,0,0,0.000000,0,9.000000,0.000000,15.015156,0,0,0,0,0,0,0
0,9999,53,0,53,0,49,9999,0.100000,0,0,0.000000,0,9.000000,0.000000,21.489379,0,0,0,0,0,0,0
0,9999,54,0,54,0,49,9999,0.100000,0,0,0.000000,0,8.000000,0.000000,21.544154,0,0,0,0,0,0,0
0,9999,55,0,55,0,49,9999,0.100000,0,0,0.000000,0,9.000000,0.000000,22.549861,0,0,0,0,0,0,0
0,9999,56,0,56,0,49,9999,0.100000,0,0,0.000000,0,4.000000,0.000000,6.206897,0,0,0,0,0,0,0
0,9999,57,0,57,0,49,9999,0.100000,0,0,0.000000,0,8.000000,0.000000,9.342241,0,0,0,0,0,0,0
0,9999,58,0,58,0,49,9999,0.100000,0,0,0.000000,0,9.000000,0.000000,13.790946,0,0,0,0,0,0,0
0,9999,59,0,59,0,49,9999,0.100000,0,0,0.000000,0,9.000000,0.000000,10.506013,0,0,0,0,0,0,0
0,9999,60,0,60,0,49,9999,0.100000,0,0,0.000000,0,9.000000,0.000000,11.359232,0,0,0,0,0,0,0
0,9999,61,0,61,0,49,9999,0.100000,0,0,0.000000,0,6.000000,0.000000,11.287255,0,0,0,0,0,0,0
0,9999,62,0,62,0,49,9999,0.100000,0,0,0.000000,0,5.000000,0.000000,9.012935,0,0,0,0,0,0,0
0,9999,63,0,63,0,49,9999,0.100000,0,0,0.000000,0,11.000000,0.000000,25.266440,0,0,0,0,0,0,0
0,9999,64,0,64,0,49,9999,0.100000,0,0,0.000000,0,7.000000,0.000000,32.388339,0,0,0,0,0,0,0
0,9999,65,0,65,0,99,9999,0.100000,0,0,47.368421,0,10.000000,0.000000,24.734133,0,0,1,0,0,0,0
0,9999,66,0,66,0,49,9999,0.100000,0,0,0.000000,0,11.000000,0.000000,25.009712,0,0,0,0,0,0,0
0,9999,67,0,67,0,49,9999,0.100000,0,0,0.000000,0,9.000000,0.000000,10.349661,0,0,0,0,0,0,0
0,9999,68,0,68,0,49,9999,0.100000,0,0,0.000000,0,9.000000,0.000000,20.907290,0,0,0,0,0,0,0
0,9999,69,0,69,0,49,9999,0.100000,0,0,0.000000,0,9.000000,0.000000,19.543870,0,0,0,0,0,0,0
0,9999,70,0,70,0,49,9999,0.100000,0,0,0.000000,0,10.000000,0.000000,13.352442,0,0,0,0,0,0,0
0,9999,71,0,71,0,49,9999,0.100000,0,0,0.000000,0,8.000000,0.000000,20.196802,0,0,0,0,0,0,0
0,9999,72,0,72,0,49,9999,0.100000,0,0,0.000000,0,9.000000,0.000000,10.675520,0,0,0,0,0,0,0
0,9999,73,0,73,0,49,9999,0.100000,0,0,0.000000,0,6.000000,0.000000,18.884165,0,0,0,0,0,0,0
0,9999,74,0,74,0,49,9999,0.100000,0,0,0.000000,0,5.000000,0.000000,10.233865,0,0,0,0,0,0,0
0,9999,75,0,75,0,49,9999,0.100000,0,0,0.000000,0,9.000000,0.000000,19.057674,0,0,0,0,0,0,0
0,9999,76,0,76,0,49,9999,0.100000,0,0,0.000000,0,10.000000,0.000000,17.572424,0,0,0,0,0,0,0
0,9999,77,0,77,0,49,9999,0.100000,0,0,0.000000,0,3.000000,0.000000,8.188381,0,0,0,0,0,0,0
0,9999,78,0,78,0,49,9999,0.100000,0,0,0.000000,0,8.000000,0.000000,13.096697,0,0,0,0,0,0,0
0,9999,79,0,79,0,49,9999,0.100000,0,0,0.000000,0,1.000000,0.000000,7.010226,0,0,0,0,0,0,0
0,9999,80,0,80,0,49,9999,0.100000,0,0,0.000000,0,10.000000,0.000000,12.167189,0,0,0,0,0,0,0
0,9999,81,0,81,0,49,9999,0.100000,0,0,0.000000,0,8.000000,0.000000,9.482900,0,0,0,0,0,0,0
0,9999,82,0,82,0,49,9999,0.100000,0,0,0.000000,0,8.000000,0.000000,11.640119,0,0,0,0,0,0,0
0,9999,83,0,83,0,49,9999,0.100000,0,0,0.000000,0,8.000000,0.000000,11.374835,0,0,0,0,0,0,0
0,9999,84,0,84,0,49,9999,0.100000,0,0,0.000000,0,7.000000,0.000000,8.138212,0,0,0,0,0,0,0
0,9999,85,0,85,0,49,9999,0.100000,0,0,0.000000,0,11.000000,0.000000,14.576967,0,0,0,0,0,0,0
0,9999,86,0,86,0,49,9999,0.100000,0,0,0.000000,0,4.000000,0.000000,7.206760,0,0,0,0,0,0,0
0,9999,87,0,87,0,49,9999,0.100000,0,0,0.000000,0,8.000000,0.000000,15.025700,0,0,0,0,0,0,0
0,9999,88,0,88,0,49,9999,0.100000,0,0,0.000000,0,13.000000,0.000000,19.869325,0,0,0,0,0,0,0
0,9999,89,0,89,0,49,9999,0.100000,0,0,0.000000,0,7.000000,0.000000,23.282359,0,0,0,0,0,0,0
0,9999,90,0,90,0,49,9999,0.100000,0,0,0.000000,0,8.000000,0.000000,8.150403,0,0,0,0,0,0,0
0,9999,91,0,91,0,49,9999,0.100000,0,0,0.000000,0,9.000000,0.000000,12.291781,0,0,0,0,0,0,0
0,9999,92,0,92,0,49,9999,0.100000,0,0,0.000000,0,6.000000,0.000000,8.418700,0,0,0,0,0,0,0
0,9999,93,0,93,0,49,9999,0.100000,0,0,0.000000,0,6.000000,0.000000,9.882032,0,0,0,0,0,0,0
0,9999,94,0,94,0,49,9999,0.100000,0,0,0.000000,0,11.000000,0.000000,12.502180,0,0,0,0,0,0,0
0,9999,95,0,95,0,49,9999,0.100000,0,0,0.000000,0,9.000000,0.000000,18.656530,0,0,0,0,0,0,0
0,9999,96,0,96,0,49,9999,0.100000,0,0,0.000000,0,11.000000,0.000000,24.919025,0,0,0,0,0,0,0
0,9999,97,0,97,0,9,9999,0.100000,0,0,0.000000,0,8.000000,0.000000,20.352569,0,0,0,0,0,0,1
0,9999,98,0,98,0,49,9999,0.100000,0,0,0.000000,0,8.000000,0.000000,19.195904,0,0,0,0,0,0,0
0,9999,99,0,99,0,49,9999,0.100000,0,0,0.000000,0,12.000000,0.000000,21.993665,0,0,0,0,0,0,0
1,19999,0,10000,25,0,40,9999,0.100000,0,0,0.000000,3,0.000000,0.000000,0.175547,0,0,0,0,0,0,0
1,19999,1,10000,5,0,40,9999,0.100000,0,0,0.000000,3,0.000000,0.000000,3.911984,0,0,0,0,0,0,0
1,19999,2,10000,63,0,40,9999,0.100000,0,0,0.000000,3,0.000000,0.000000,0.607603,0,0,0,0,0,0,0
1,19999,3,10000,63,0,49,9999,0.100000,0,0,0.000000,3,2.000000,0.000000,11.910196,0,0,0,0,0,0,0
1,19999,4,10000,25,0,49,9999,0.100000,0,0,0.000000,3,2.000000,0.000000,9.085452,0,0,0,0,0,0,0
1,19999,5,0,5,0,40,19999,0.100000,0,0,0.000000,1,0.000000,0.000000,2.976306,0,0,0,0,0,0,0
1,19999,6,10000,25,0,49,9999,0.100000,0,0,0.000000,3,5.000000,0.000000,6.564614,0,0,0,0,0,0,0
1,19999,7,10000,63,0,49,9999,0.100000,0,0,0.000000,3,1.000000,0.000000,6.819353,0,0,0,0,0,0,0
1,19999,8,10000,11,0,40,9999,0.100000,0,0,0.000000,3,0.000000,0.000000,0.925268,0,0,0,0,0,0,0
1,19999,9,10000,5,0,40,9999,0.100000,0,0,0.000000,3,0.000000,0.000000,6.800205,0,0,0,0,0,0,0
1,19999,10,10000,5,0,40,9999,0.100000,0,0,0.000000,3,0.000000,0.000000,0.462984,0,0,0,0,0,0,0
1,19999,11,10000,11,0,40,9999,0.100000,0,0,0.000000,3,0.000000,0.000000,0.131597,0,0,0,0,0,0,0
1,19999,12,10000,25,0,40,9999,0.100000,0,0,0.000000,3,0.000000,0.000000,3.411649,0,0,0,0,0,0,0
1,19999,13,10000,5,0,40,9999,0.100000,0,0,0.000000,3,0.000000,0.000000,0.632086,0,0,0,0,0,0,0
1,19999,14,10000,65,0,49,9999,0.100000,0,0,0.000000,3,4.000000,0.000000,10.879492,0,0,0,0,0,0,0
1,19999,15,10000,5,0,40,9999,0.100000,0,0,0.000000,3,0.000000,0.000000,0.728577,0,0,0,0,0,0,0
1,19999,16,10000,5,0,40,9999,0.100000,0,0,0.000000,3,0.000000,0.000000,0.785412,0,0,0,0,0,0,0
1,19999,17,10000,63,0,40,9999,0.100000,0,0,0.000000,3,0.000000,0.000000,0.074445,0,0,0,0,0,0,0
1,19999,18,10000,5,0,40,9999,0.100000,0,0,0.000000,3,0.000000,0.000000,1.075095,0,0,0,0,0,0,0
1,19999,19,10000,5,0,40,9999,0.100000,0,0,0.000000,3,0.000000,0.000000,0.284193,0,0,0,0,0,0,0
1,19999,20,10000,5,0,49,9999,0.100000,0,0,0.000000,3,1.000000,0.000000,12.101173,0,0,0,0,0,0,0
1,19999,21,10000,11,0,40,9999,0.100000,0,0,0.000000,3,0.000000,0.000000,0.083135,0,0,0,0,0,0,0
1,19999,22,10000,11,0,40,9999,0.100000,0,0,0.000000,3,0.000000,0.000000,0.130888,0,0,0,0,0,0,0
1,19999,23,10000,63,0,40,9999,0.100000,0,0,0.000000,3,0.000000,0.000000,0.086089,0,0,0,0,0,0,0
1,19999,24,0,24,0,40,19999,0.100000,0,0,0.000000,3,0.000000,0.000000,0.631676,0,0,0,0,0,0,0
1,19999,25,10000,25,0,40,9999,0.100000,0,0,0.000000,3,0.000000,0.000000,1.158619,0,0,0,0,0,0,0
1,19999,26,0,26,0,49,19999,0.100000,0,0,0.000000,3,1.000000,0.000000,5.518985,0,0,0,0,0,0,0
1,19999,27,10000,5,0,40,9999,0.100000,0,0,0.000000,3,0.000000,0.000000,0.808424,0,0,0,0,0,0,0
1,19999,28,10000,63,0,40,9999,0.100000,0,0,0.000000,3,0.000000,0.000000,2.101098,0,0,0,0,0,0,0
1,19999,29,10000,65,0,40,9999,0.100000,0,0,0.000000,3,0.000000,0.000000,1.001181,0,0,0,0,0,0,0
1,19999,30,10000,11,0,40,9999,0.100000,0,0,0.000000,3,0.000000,0.000000,0.100873,0,0,0,0,0,0,0
1,19999,31,10000,25,0,49,9999,0.100000,0,0,0.000000,3,1.000000,0.000000,13.322940,0,0,0,0,0,0,0
1,19999,32,10000,5,0,49,9999,0.100000,0,0,0.000000,1,3.000000,0.000000,7.653885,0,0,0,0,0,0,0
1,19999,33,10000,5,0,40,9999,0.100000,0,0,0.000000,3,0.000000,0.000000,0.695332,0,0,0,0,0,0,0
1,19999,34,10000,11,0,40,9999,0.100000,0,0,0.000000,3,0.000000,0.000000,0.363929,0,0,0,0,0,0,0
1,19999,35,10000,11,0,40,9999,0.100000,0,0,0.000000,3,0.000000,0.000000,1.452282,0,0,0,0,0,0,0
1,19999,36,10000,11,0,40,9999,0.100000,0,0,0.000000,3,0.000000,0.000000,0.176778,0,0,0,0,0,0,0
1,19999,37,10000,5,0,49,9999,0.100000,0,0,0.000000,3,2.000000,0.000000,3.261722,0,0,0,0,0,0,0
1,19999,38,10000,5,0,40,9999,0.100000,0,0,0.000000,3,0.000000,0.000000,0.457910,0,0,0,0,0,0,0
1,19999,39,10000,63,0,49,9999,0.100000,0,0,0.000000,3,1.000000,0.000000,3.154244,0,0,0,0,0,0,0
1,19999,40,10000,65,0,49,9999,0.100000,0,0,0.000000,3,5.000000,0.000000,13.624012,0,0,0,0,0,0,0
1,19999,41,10000,11,0,40,9999,0.100000,0,0,0.000000,3,0.000000,0.000000,17.793152,0,0,0,0,0,0,0
1,19999,42,10000,65,0,49,9999,0.100000,0,0,0.000000,3,1.000000,0.000000,1.577253,0,0,0,0,0,0,0
1,19999,43,10000,63,0,40,9999,0.100000,0,0,0.000000,3,0.000000,0.000000,1.484585,0,0,0,0,0,0,0
1,19999,44,10000,5,0,49,9999,0.100000,0,0,0.000000,3,1.000000,0.000000,1.422859,0,0,0,0,0,0,0
1,19999,45,10000,63,0,49,9999,0.100000,0,0,0.000000,3,3.000000,0.000000,9.085228,0,0,0,0,0,0,0
1,19999,46,10000,5,0,40,9999,0.100000,0,0,0.000000,1,0.000000,0.000000,2.943137,0,0,0,0,0,0,0
1,19999,47,10000,63,0,40,9999,0.100000,0,0,0.000000,3,0.000000,0.000000,1.393030,0,0,0,0,0,0,0
1,19999,48,10000,5,0,49,9999,0.100000,0,0,0.000000,3,1.000000,0.000000,6.201187,0,0,0,0,0,0,0
1,19999,49,10000,11,0,40,9999,0.100000,0,0,0.000000,3,0.000000,0.000000,0.610446,0,0,0,0,0,0,0
1,19999,50,10000,5,0,40,9999,0.100000,0,0,0.000000,3,0.000000,0.000000,0.129185,0,0,0,0,0,0,0
1,19999,51,10000,65,0,40,9999,0.100000,0,0,0.000000,3,0.000000,0.000000,0.493434,0,0,0,0,0,0,0
1,19999,52,10000,25,0,40,9999,0.100000,0,0,0.000000,3,0.000000,0.000000,0.628447,0,0,0,0,0,0,0
1,19999,53,10000,11,0,49,9999,0.100000,0,0,0.000000,3,2.000000,0.000000,7.393970,0,0,0,0,0,0,0
1,19999,54,10000,63,0,40,9999,0.100000,0,0,0.000000,3,0.000000,0.000000,17.858622,0,0,0,0,0,0,0
1,19999,55,10000,25,0,49,9999,0.100000,0,0,0.000000,3,1.000000,0.000000,7.399854,0,0,0,0,0,0,0
1,19999,56,10000,5,0,40,9999,0.100000,0,0,0.000000,3,0.000000,0.000000,0.085980,0,0,0,0,0,0,0
1,19999,57,0,57,0,40,19999,0.100000,0,0,0.000000,3,0.000000,0.000000,0.603102,0,0,0,0,0,0,0
1,19999,58,10000,65,0,40,9999,0.100000,0,0,0.000000,3,0.000000,0.000000,1.099062,0,0,0,0,0,0,0
1,19999,59,10000,5,0,40,9999,0.100000,0,0,0.000000,3,0.000000,0.000000,0.888088,0,0,0,0,0,0,0
1,19999,60,10000,63,0,49,9999,0.100000,0,0,0.000000,3,9.000000,0.000000,19.907815,0,0,0,0,0,0,0
1,19999,61,10000,63,0,40,9999,0.100000,0,0,0.000000,3,0.000000,0.000000,1.782232,0,0,0,0,0,0,0
1,19999,62,10000,11,0,49,9999,0.100000,0,0,0.000000,3,1.000000,0.000000,3.428591,0,0,0,0,0,0,0
1,19999,63,10000,5,0,49,9999,0.100000,0,0,0.000000,2,3.000000,0.000000,4.904610,0,0,0,0,0,0,0
1,19999,64,10000,63,0,49,9999,0.100000,0,0,0.000000,3,2.000000,0.000000,11.735863,0,0,0,0,0,0,0
1,19999,65,10000,11,0,49,9999,0.100000,0,0,0.000000,3,1.000000,0.000000,7.730744,0,0,0,0,0,0,0
1,19999,66,10000,11,0,49,9999,0.100000,0,0,0.000000,3,5.000000,0.000000,6.796720,0,0,0,0,0,0,0
1,19999,67,10000,63,0,40,9999,0.100000,0,0,0.000000,3,0.000000,0.000000,1.538677,0,0,0,0,0,0,0
1,19999,68,10000,5,0,49,9999,0.100000,0,0,0.000000,3,3.000000,0.000000,10.545483,0,0,0,0,0,0,0
1,19999,69,10000,5,0,49,9999,0.100000,0,0,0.000000,3,3.000000,0.000000,7.082805,0,0,0,0,0,0,0
1,19999,70,10000,11,0,40,9999,0.100000,0,0,0.000000,3,0.000000,0.000000,0.555820,0,0,0,0,0,0,0
1,19999,71,10000,5,0,40,9999,0.100000,0,0,0.000000,3,0.000000,0.000000,0.667756,0,0,0,0,0,0,0
1,19999,72,10000,5,0,40,9999,0.100000,0,0,0.000000,3,0.000000,0.000000,0.075557,0,0,0,0,0,0,0
1,19999,73,0,73,0,40,19999,0.100000,0,0,0.000000,3,0.000000,0.000000,10.341670,0,0,0,0,0,0,0
1,19999,74,10000,65,0,40,9999,0.100000,0,0,0.000000,3,0.000000,0.000000,1.390799,0,0,0,0,0,0,0
1,19999,75,10000,11,0,49,9999,0.100000,0,0,0.000000,3,4.000000,0.000000,17.899952,0,0,0,0,0,0,0
1,19999,76,10000,63,0,49,9999,0.100000,0,0,0.000000,3,2.000000,0.000000,7.549737,0,0,0,0,0,0,0
1,19999,77,10000,25,0,40,9999,0.100000,0,0,0.000000,3,0.000000,0.000000,0.634098,0,0,0,0,0,0,0
1,19999,78,10000,5,0,49,9999,0.100000,0,0,0.000000,3,1.000000,0.000000,3.125659,0,0,0,0,0,0,0
1,19999,79,10000,63,0,40,9999,0.100000,0,0,0.000000,3,0.000000,0.000000,3.135891,0,0,0,0,0,0,0
1,19999,80,10000,5,0,40,9999,0.100000,0,0,0.000000,3,0.000000,0.000000,0.511380,0,0,0,0,0,0,0
1,19999,81,10000,65,0,40,9999,0.100000,0,0,0.000000,3,0.000000,0.000000,0.085035,0,0,0,0,0,0,0
1,19999,82,10000,11,0,49,9999,0.100000,0,0,0.000000,3,2.000000,0.000000,9.354264,0,0,0,0,0,0,0
1,19999,83,10000,5,0,40,9999,0.100000,0,0,0.000000,3,0.000000,0.000000,7.463637,0,0,0,0,0,0,0
1,19999,84,10000,5,0,40,9999,0.100000,0,0,0.000000,3,0.000000,0.000000,0.211096,0,0,0,0,0,0,0
1,19999,85,10000,63,0,40,9999,0.100000,0,0,0.000000,3,0.000000,0.000000,3.131259,0,0,0,0,0,0,0
1,19999,86,10000,25,0,49,9999,0.100000,0,0,0.000000,3,2.000000,0.000000,4.464084,0,0,0,0,0,0,0
1,19999,87,10000,63,0,49,9999,0.100000,0,0,0.000000,3,1.000000,0.000000,1.851046,0,0,0,0,0,0,0
1,19999,88,10000,63,0,40,9999,0.100000,0,0,0.000000,3,0.000000,0.000000,0.135226,0,0,0,0,0,0,0
1,19999,89,10000,11,0,49,9999,0.100000,0,0,0.000000,3,2.000000,0.000000,9.941435,0,0,0,0,0,0,0
1,19999,90,10000,11,0,40,9999,0.100000,0,0,0.000000,3,0.000000,0.000000,4.120070,0,0,0,0,0,0,0
1,19999,91,10000,11,0,40,9999,0.100000,0,0,0.000000,3,0.000000,0.000000,1.381692,0,0,0,0,0,0,0
1,19999,92,10000,5,0,40,9999,0.100000,0,0,0.000000,3,0.000000,0.000000,0.078902,0,0,0,0,0,0,0
1,19999,93,10000,65,0,49,9999,0.100000,0,0,0.000000,3,3.000000,0.000000,8.055094,0,0,0,0,0,0,0
1,19999,94,10000,25,0,40,9999,0.100000,0,0,0.000000,3,0.000000,0.000000,0.252658,0,0,0,0,0,0,0
1,19999,95,10000,65,0,49,9999,0.100000,0,0,0.000000,3,1.000000,0.000000,13.488360,0,0,0,0,0,0,0
1,19999,96,10000,65,0,49,9999,0.100000,0,0,0.000000,3,1.000000,0.000000,5.091331,0,0,0,0,0,0,0
1,19999,97,10000,11,0,40,9999,0.100000,0,0,0.000000,3,0.000000,0.000000,17.920780,0,0,0,0,0,0,0
1,19999,98,10000,65,0,49,9999,0.100000,0,0,0.000000,3,3.000000,0.000000,6.260762,0,0,0,0,0,0,0
1,19999,99,10000,25,0,40,9999,0.100000,0,0,0.000000,3,0.000000,0.000000,15.768930,0,0,0,0,0,0,0
2,29999,0,20000,11,0,40,9999,0.100000,0,0,0.000000,4,0.000000,0.000000,0.172941,0,0,0,0,0,0,0
2,29999,1,20000,11,0,40,9999,0.100000,0,0,0.000000,5,0.000000,0.000000,4.473320,0,0,0,0,0,0,0
2,29999,2,20000,70,10000,40,9999,0.100000,0,0,0.000000,5,0.000000,0.000000,0.411935,0,0,0,0,0,0,0
2,29999,3,20000,0,10000,49,9999,0.135000,0,0,0.000000,4,4.000000,0.000000,11.917429,0,0,0,0,0,0,0
2,29999,4,20000,5,0,40,9999,0.100000,0,0,0.000000,5,0.000000,0.000000,0.972172,0,0,0,0,0,0,0
2,29999,5,20000,65,0,40,9999,0.100000,0,0,0.000000,5,0.000000,0.000000,5.407278,0,0,0,0,0,0,0
2,29999,6,20000,5,0,40,9999,0.100000,0,0,0.000000,5,0.000000,0.000000,0.223131,0,0,0,0,0,0,0
2,29999,7,20000,11,0,40,9999,0.100000,0,0,0.000000,4,0.000000,0.000000,3.947328,0,0,0,0,0,0,0
2,29999,8,20000,1,10000,40,9999,0.100000,0,0,0.000000,5,0.000000,0.000000,0.493078,0,0,0,0,0,0,0
2,29999,9,20000,5,0,40,9999,0.100000,0,0,0.000000,5,0.000000,0.000000,6.580020,0,0,0,0,0,0,0
2,29999,10,20000,65,0,40,9999,0.100000,0,0,0.000000,5,0.000000,0.000000,0.826394,0,0,0,0,0,0,0
2,29999,11,20000,70,10000,40,9999,0.100000,0,0,0.000000,5,0.000000,0.000000,0.162172,0,0,0,0,0,0,0
2,29999,12,20000,65,0,40,9999,0.100000,0,0,0.000000,5,0.000000,0.000000,5.460633,0,0,0,0,0,0,0
2,29999,13,20000,11,0,49,9999,0.100000,0,0,0.000000,5,1.000000,0.000000,5.000056,0,0,0,0,0,0,0
2,29999,14,20000,65,0,49,9999,0.100000,0,0,0.000000,5,1.000000,0.000000,2.362018,0,0,0,0,0,0,0
2,29999,15,20000,11,0,40,9999,0.100000,0,0,0.000000,5,0.000000,0.000000,0.303519,0,0,0,0,0,0,0
2,29999,16,20000,65,0,40,9999,0.100000,0,0,0.000000,5,0.000000,0.000000,0.165735,0,0,0,0,0,0,0
2,29999,17,20000,70,10000,40,9999,0.100000,0,0,0.000000,5,0.000000,0.000000,0.074166,0,0,0,0,0,0,0
2,29999,18,20000,5,0,40,9999,0.100000,0,0,0.000000,5,0.000000,0.000000,0.956632,0,0,0,0,0,0,0
2,29999,19,20000,65,0,40,9999,0.100000,0,0,0.000000,5,0.000000,0.000000,0.235315,0,0,0,0,0,0,0
2,29999,20,20000,1,10000,49,9999,0.100000,0,0,0.000000,5,2.000000,0.000000,7.532208,0,0,0,0,0,0,0
2,29999,21,20000,5,0,49,9999,0.100000,0,0,0.000000,5,2.000000,0.000000,5.342759,0,0,0,0,0,0,0
2,29999,22,20000,5,0,40,9999,0.100000,0,0,0.000000,5,0.000000,0.000000,0.130732,0,0,0,0,0,0,0
2,29999,23,20000,11,0,40,9999,0.100000,0,0,0.000000,5,0.000000,0.000000,0.090361,0,0,0,0,0,0,0
2,29999,24,20000,11,0,40,9999,0.100000,0,0,0.000000,5,0.000000,0.000000,1.214583,0,0,0,0,0,0,0
2,29999,25,20000,5,0,49,9999,0.100000,0,0,0.000000,5,1.000000,0.000000,2.310761,0,0,0,0,0,0,0
2,29999,26,20000,5,0,40,9999,0.100000,0,0,0.000000,5,0.000000,0.000000,0.223211,0,0,0,0,0,0,0
2,29999,27,20000,1,10000,40,9999,0.100000,0,0,0.000000,5,0.000000,0.000000,0.676950,0,0,0,0,0,0,0
2,29999,28,20000,1,10000,40,9999,0.100000,0,0,0.000000,5,0.000000,0.000000,2.026227,0,0,0,0,0,0,0
2,29999,29,20000,65,0,40,9999,0.100000,0,0,0.000000,5,0.000000,0.000000,0.999019,0,0,0,0,0,0,0
2,29999,30,20000,1,10000,40,9999,0.100000,0,0,0.000000,5,0.000000,0.000000,0.100207,0,0,0,0,0,0,0
2,29999,31,20000,65,0,49,9999,0.100000,0,0,0.000000,4,3.000000,0.000000,13.572212,0,0,0,0,0,0,0
2,29999,32,20000,5,0,49,9999,0.100000,0,0,0.000000,5,1.000000,0.000000,1.389765,0,0,0,0,0,0,0
2,29999,33,20000,11,0,40,9999,0.100000,0,0,0.000000,5,0.000000,0.000000,0.879005,0,0,0,0,0,0,0
2,29999,34,20000,11,0,40,9999,0.100000,0,0,0.000000,5,0.000000,0.000000,0.326489,0,0,0,0,0,0,0
2,29999,35,20000,11,0,40,9999,0.100000,0,0,0.000000,5,0.000000,0.000000,1.168188,0,0,0,0,0,0,0
2,29999,36,20000,11,0,40,9999,0.100000,0,0,0.000000,5,0.000000,0.000000,0.193405,0,0,0,0,0,0,0
2,29999,37,20000,11,0,49,9999,0.100000,0,0,0.000000,4,1.000000,0.000000,1.198822,0,0,0,0,0,0,0
2,29999,38,20000,5,0,40,9999,0.100000,0,0,0.000000,5,0.000000,0.000000,0.568258,0,0,0,0,0,0,0
2,29999,39,20000,11,0,40,9999,0.100000,0,0,0.000000,5,0.000000,0.000000,2.765118,0,0,0,0,0,0,0
2,29999,40,20000,1,10000,49,9999,0.100000,0,0,0.000000,5,1.000000,0.000000,3.855912,0,0,0,0,0,0,0
2,29999,41,20000,5,0,49,9999,0.100000,0,0,0.000000,5,2.000000,0.000000,12.295377,0,0,0,0,0,0,0
2,29999,42,20000,70,10000,40,9999,0.100000,0,0,0.000000,5,0.000000,0.000000,0.585406,0,0,0,0,0,0,0
2,29999,43,20000,70,10000,40,9999,0.100000,0,0,0.000000,5,0.000000,0.000000,0.257763,0,0,0,0,0,0,0
2,29999,44,20000,5,0,40,9999,0.100000,0,0,0.000000,5,0.000000,0.000000,0.630226,0,0,0,0,0,0,0
2,29999,45,20000,5,0,40,9999,0.100000,0,0,0.000000,5,0.000000,0.000000,0.343391,0,0,0,0,0,0,0
2,29999,46,20000,65,0,49,9999,0.100000,0,0,0.000000,5,6.000000,0.000000,22.170287,0,0,0,0,0,0,0
2,29999,47,20000,5,0,40,9999,0.100000,0,0,0.000000,5,0.000000,0.000000,0.087684,0,0,0,0,0,0,0
2,29999,48,20000,70,10000,40,9999,0.100000,0,0,0.000000,5,0.000000,0.000000,2.771264,0,0,0,0,0,0,0
2,29999,49,20000,70,10000,40,9999,0.100000,0,0,0.000000,5,0.000000,0.000000,0.234689,0,0,0,0,0,0,0
2,29999,50,20000,70,10000,40,9999,0.100000,0,0,0.000000,5,0.000000,0.000000,0.937676,0,0,0,0,0,0,0
2,29999,51,20000,70,10000,40,9999,0.100000,0,0,0.000000,5,0.000000,0.000000,0.093555,0,0,0,0,0,0,0
2,29999,52,20000,65,0,40,9999,0.100000,0,0,0.000000,5,0.000000,0.000000,0.758445,0,0,0,0,0,0,0
2,29999,53,20000,5,0,40,9999,0.100000,0,0,0.000000,5,0.000000,0.000000,1.131069,0,0,0,0,0,0,0
2,29999,54,10000,63,0,40,19999,0.100000,0,0,0.000000,5,0.000000,0.000000,0.907079,0,0,0,0,0,0,0
2,29999,55,20000,65,0,49,9999,0.100000,0,0,0.000000,5,1.000000,0.000000,5.809032,0,0,0,0,0,0,0
2,29999,56,20000,65,0,40,9999,0.100000,0,0,0.000000,5,0.000000,0.000000,0.114136,0,0,0,0,0,0,0
2,29999,57,20000,5,0,40,9999,0.100000,0,0,0.000000,5,0.000000,0.000000,0.149895,0,0,0,0,0,0,0
2,29999,58,20000,5,0,40,9999,0.100000,0,0,0.000000,5,0.000000,0.000000,3.119954,0,0,0,0,0,0,0
2,29999,59,20000,5,0,40,9999,0.100000,0,0,0.000000,5,0.000000,0.000000,1.208663,0,0,0,0,0,0,0
2,29999,60,20000,5,0,40,9999,0.100000,0,0,0.000000,5,0.000000,0.000000,2.384517,0,0,0,0,0,0,0
2,29999,61,20000,65,0,40,9999,0.100000,0,0,0.000000,5,0.000000,0.000000,0.107278,0,0,0,0,0,0,0
2,29999,62,20000,5,0,40,9999,0.100000,0,0,0.000000,5,0.000000,0.000000,0.492187,0,0,0,0,0,0,0
2,29999,63,20000,1,10000,49,9999,0.100000,0,0,0.000000,5,1.000000,0.000000,1.103794,0,0,0,0,0,0,0
2,29999,64,20000,5,0,49,9999,0.100000,0,0,0.000000,5,9.000000,0.000000,28.631364,0,0,0,0,0,0,0
2,29999,65,20000,5,0,49,9999,0.100000,0,0,0.000000,5,7.000000,0.000000,14.899842,0,0,0,0,0,0,0
2,29999,66,20000,11,0,9,9999,0.100000,0,0,0.000000,5,2.000000,0.000000,9.058891,0,0,0,0,0,1,0
2,29999,67,20000,5,0,40,9999,0.100000,0,0,0.000000,5,0.000000,0.000000,1.124117,0,0,0,0,0,0,0
2,29999,68,20000,11,0,49,9999,0.100000,0,0,0.000000,5,3.000000,0.000000,4.328310,0,0,0,0,0,0,0
2,29999,69,20000,11,0,49,9999,0.100000,0,0,0.000000,5,5.000000,0.000000,24.334196,0,0,0,0,0,0,0
2,29999,70,20000,65,0,49,9999,0.100000,0,0,0.000000,5,1.000000,0.000000,11.727312,0,0,0,0,0,0,0
2,29999,71,20000,11,0,40,9999,0.100000,0,0,0.000000,5,0.000000,0.000000,0.425781,0,0,0,0,0,0,0
2,29999,72,20000,5,0,40,9999,0.100000,0,0,0.000000,5,0.000000,0.000000,0.103650,0,0,0,0,0,0,0
2,29999,73,20000,5,0,49,9999,0.100000,0,0,0.000000,5,2.000000,0.000000,4.762536,0,0,0,0,0,0,0
2,29999,74,20000,11,0,40,9999,0.100000,0,0,0.000000,5,0.000000,0.000000,1.530715,0,0,0,0,0,0,0
2,29999,75,20000,70,10000,40,9999,0.100000,0,0,0.000000,5,0.000000,0.000000,0.974594,0,0,0,0,0,0,0
2,29999,76,20000,5,0,49,9999,0.100000,0,0,0.000000,5,1.000000,0.000000,10.829586,0,0,0,0,0,0,0
2,29999,77,20000,65,0,40,9999,0.100000,0,0,0.000000,5,0.000000,0.000000,0.634766,0,0,0,0,0,0,0
2,29999,78,20000,5,0,40,9999,0.100000,0,0,0.000000,5,0.000000,0.000000,3.562659,0,0,0,0,0,0,0
2,29999,79,20000,5,0,49,9999,0.100000,0,0,0.000000,5,1.000000,0.000000,4.819806,0,0,0,0,0,0,0
2,29999,80,20000,5,0,40,9999,0.100000,0,0,0.000000,5,0.000000,0.000000,0.534715,0,0,0,0,0,0,0
2,29999,81,20000,5,0,40,9999,0.100000,0,0,0.000000,5,0.000000,0.000000,0.087528,0,0,0,0,0,0,0
2,29999,82,20000,70,10000,40,9999,0.100000,0,0,0.000000,5,0.000000,0.000000,0.202126,0,0,0,0,0,0,0
2,29999,83,20000,5,0,49,9999,0.100000,0,0,0.000000,5,8.000000,0.000000,18.288151,0,0,0,0,0,0,0
2,29999,84,20000,5,0,40,9999,0.100000,0,0,0.000000,5,0.000000,0.000000,0.192180,0,0,0,0,0,0,0
2,29999,85,20000,65,0,49,9999,0.100000,0,0,0.000000,5,3.000000,0.000000,13.420242,0,0,0,0,0,0,0
2,29999,86,20000,5,0,49,9999,0.100000,0,0,0.000000,5,1.000000,0.000000,1.437244,0,0,0,0,0,0,0
2,29999,87,20000,70,10000,40,9999,0.100000,0,0,0.000000,5,0.000000,0.000000,0.450036,0,0,0,0,0,0,0
2,29999,88,20000,5,0,49,9999,0.100000,0,0,0.000000,5,8.000000,0.000000,35.929201,0,0,0,0,0,0,0
2,29999,89,20000,11,0,49,9999,0.100000,0,0,0.000000,5,7.000000,0.000000,23.893112,0,0,0,0,0,0,0
2,29999,90,20000,11,0,40,9999,0.100000,0,0,0.000000,5,0.000000,0.000000,8.586828,0,0,0,0,0,0,0
2,29999,91,20000,5,0,40,9999,0.100000,0,0,0.000000,5,0.000000,0.000000,0.543967,0,0,0,0,0,0,0
2,29999,92,20000,11,0,40,9999,0.100000,0,0,0.000000,5,0.000000,0.000000,0.078104,0,0,0,0,0,0,0
2,29999,93,20000,11,0,40,9999,0.100000,0,0,0.000000,5,0.000000,0.000000,0.651206,0,0,0,0,0,0,0
2,29999,94,20000,5,0,49,9999,0.100000,0,0,0.000000,5,7.000000,0.000000,15.250751,0,0,0,0,0,0,0
2,29999,95,20000,11,0,49,9999,0.100000,0,0,0.000000,5,3.000000,0.000000,13.663305,0,0,0,0,0,0,0
2,29999,96,20000,5,0,40,9999,0.100000,0,0,0.000000,5,0.000000,0.000000,1.479476,0,0,0,0,0,0,0
2,29999,97,20000,1,10000,40,9999,0.100000,0,0,0.000000,5,0.000000,0.000000,18.127133,0,0,0,0,0,0,0
2,29999,98,20000,65,0,49,9999,0.100000,0,0,0.000000,5,2.000000,0.000000,5.699875,0,0,0,0,0,0,0
2,29999,99,20000,72,10000,49,9999,0.100000,0,0,0.000000,5,2.000000,0.000000,7.792684,0,0,0,0,0,0,0
3,39999,0,30000,1,10000,40,9999,0.100000,0,0,0.000000,5,0.000000,0.000000,0.181579,0,0,0,0,0,0,0
3,39999,1,30000,1,10000,49,9999,0.100000,0,0,0.000000,5,1.000000,0.000000,3.642338,0,0,0,0,0,0,0
3,39999,2,30000,11,0,40,9999,0.100000,0,0,0.000000,5,0.000000,0.000000,0.151734,0,0,0,0,0,0,0
3,39999,3,30000,25,20000,40,9999,0.100000,0,0,0.000000,5,0.000000,0.000000,14.960427,0,0,0,0,0,0,0
3,39999,4,30000,70,10000,40,9999,0.100000,0,0,0.000000,5,0.000000,0.000000,0.925666,0,0,0,0,0,0,0
3,39999,5,30000,70,10000,49,9999,0.100000,0,0,0.000000,5,4.000000,0.000000,5.501978,0,0,0,0,0,0,0
3,39999,6,30000,5,0,40,9999,0.100000,0,0,0.000000,5,0.000000,0.000000,1.002516,0,0,0,0,0,0,0
3,39999,7,30000,65,0,40,9999,0.100000,0,0,0.000000,5,0.000000,0.000000,3.996208,0,0,0,0,0,0,0
3,39999,8,30000,1,10000,40,9999,0.100000,0,0,0.000000,5,0.000000,0.000000,0.577603,0,0,0,0,0,0,0
3,39999,9,30000,14,20000,49,9999,0.100000,0,0,0.000000,5,1.000000,0.000000,11.008614,0,0,0,0,0,0,0
3,39999,10,30000,1,10000,40,9999,0.100000,0,0,0.000000,5,0.000000,0.000000,0.921066,0,0,0,0,0,0,0
3,39999,11,30000,11,0,40,9999,0.100000,0,0,0.000000,5,0.000000,0.000000,0.128409,0,0,0,0,0,0,0
3,39999,12,30000,5,0,40,9999,0.100000,0,0,0.000000,5,0.000000,0.000000,4.047242,0,0,0,0,0,0,0
3,39999,13,30000,70,10000,9,9999,0.100000,0,0,0.000000,5,14.000000,0.000000,15.727858,0,0,0,0,0,0,1
3,39999,14,30000,5,0,40,9999,0.100000,0,0,0.000000,5,0.000000,0.000000,1.404307,0,0,0,0,0,0,0
3,39999,15,30000,1,10000,49,9999,0.100000,0,0,0.000000,5,1.000000,0.000000,1.204637,0,0,0,0,0,0,0
3,39999,16,30000,5,0,40,9999,0.100000,0,0,0.000000,5,0.000000,0.000000,0.126119,0,0,0,0,0,0,0
3,39999,17,30000,11,0,40,9999,0.100000,0,0,0.000000,5,0.000000,0.000000,0.072772,0,0,0,0,0,0,0
3,39999,18,30000,65,0,40,9999,0.100000,0,0,0.000000,5,0.000000,0.000000,0.853268,0,0,0,0,0,0,0
3,39999,19,30000,1,10000,40,9999,0.100000,0,0,0.000000,5,0.000000,0.000000,0.210844,0,0,0,0,0,0,0
3,39999,20,30000,1,10000,49,9999,0.100000,0,0,0.000000,5,2.000000,0.000000,6.276619,0,0,0,0,0,0,0
3,39999,21,30000,5,0,49,9999,0.100000,0,0,0.000000,5,2.000000,0.000000,5.504539,0,0,0,0,0,0,0
3,39999,22,30000,1,10000,40,9999,0.100000,0,0,0.000000,5,0.000000,0.000000,0.132199,0,0,0,0,0,0,0
3,39999,23,30000,70,10000,40,9999,0.100000,0,0,0.000000,5,0.000000,0.000000,0.080063,0,0,0,0,0,0,0
3,39999,24,30000,1,10000,40,9999,0.100000,0,0,0.000000,5,0.000000,0.000000,0.597770,0,0,0,0,0,0,0
3,39999,25,30000,25,20000,40,9999,0.100000,0,0,0.000000,5,0.000000,0.000000,10.194571,0,0,0,0,0,0,0
3,39999,26,30000,5,0,40,9999,0.100000,0,0,0.000000,5,0.000000,0.000000,0.156580,0,0,0,0,0,0,0
3,39999,27,30000,1,10000,40,9999,0.100000,0,0,0.000000,5,0.000000,0.000000,0.764290,0,0,0,0,0,0,0
3,39999,28,30000,70,10000,40,9999,0.100000,0,0,0.000000,5,0.000000,0.000000,4.454847,0,0,0,0,0,0,0
3,39999,29,30000,65,0,40,9999,0.100000,0,0,0.000000,5,0.000000,0.000000,0.995008,0,0,0,0,0,0,0
3,39999,30,30000,1,10000,40,9999,0.100000,0,0,0.000000,5,0.000000,0.000000,0.100312,0,0,0,0,0,0,0
3,39999,31,30000,1,10000,49,9999,0.100000,0,0,0.000000,5,1.000000,0.000000,7.996961,0,0,0,0,0,0,0
3,39999,32,30000,25,20000,40,9999,0.100000,0,0,0.000000,5,0.000000,0.000000,1.161833,0,0,0,0,0,0,0
3,39999,33,30000,5,0,40,9999,0.100000,0,0,0.000000,5,0.000000,0.000000,0.458641,0,0,0,0,0,0,0
3,39999,34,30000,1,10000,40,9999,0.100000,0,0,0.000000,5,0.000000,0.000000,0.284099,0,0,0,0,0,0,0
3,39999,35,30000,70,10000,40,9999,0.100000,0,0,0.000000,5,0.000000,0.000000,1.294736,0,0,0,0,0,0,0
3,39999,36,30000,5,0,40,9999,0.100000,0,0,0.000000,5,0.000000,0.000000,0.159496,0,0,0,0,0,0,0
3,39999,37,30000,1,10000,40,9999,0.100000,0,0,0.000000,5,0.000000,0.000000,0.997729,0,0,0,0,0,0,0
3,39999,38,30000,70,10000,40,9999,0.100000,0,0,0.000000,5,0.000000,0.000000,0.287220,0,0,0,0,0,0,0
3,39999,39,30000,14,20000,40,9999,0.100000,0,0,0.000000,5,0.000000,0.000000,2.083560,0,0,0,0,0,0,0
3,39999,40,30000,25,20000,40,9999,0.100000,0,0,0.000000,5,0.000000,0.000000,2.018461,0,0,0,0,0,0,0
3,39999,41,30000,5,0,49,9999,0.100000,0,0,0.000000,5,2.000000,0.000000,11.759922,0,0,0,0,0,0,0
3,39999,42,30000,1,10000,40,9999,0.100000,0,0,0.000000,5,0.000000,0.000000,0.330938,0,0,0,0,0,0,0
3,39999,43,30000,70,10000,40,9999,0.100000,0,0,0.000000,5,0.000000,0.000000,0.156991,0,0,0,0,0,0,0
3,39999,44,30000,11,0,40,9999,0.100000,0,0,0.000000,5,0.000000,0.000000,0.409312,0,0,0,0,0,0,0
3,39999,45,30000,65,0,40,9999,0.100000,0,0,0.000000,5,0.000000,0.000000,0.361233,0,0,0,0,0,0,0
3,39999,46,30000,1,10000,49,9999,0.100000,0,0,0.000000,5,1.000000,0.000000,4.210752,0,0,0,0,0,0,0
3,39999,47,30000,5,0,40,9999,0.100000,0,0,0.000000,5,0.000000,0.000000,0.089993,0,0,0,0,0,0,0
3,39999,48,30000,25,20000,49,9999,0.100000,0,0,0.000000,5,1.000000,0.000000,3.216975,0,0,0,0,0,0,0
3,39999,49,30000,70,10000,40,9999,0.100000,0,0,0.000000,5,0.000000,0.000000,0.115183,0,0,0,0,0,0,0
3,39999,50,30000,11,0,40,9999,0.100000,0,0,0.000000,5,0.000000,0.000000,0.117296,0,0,0,0,0,0,0
3,39999,51,30000,5,0,40,9999,0.100000,0,0,0.000000,5,0.000000,0.000000,0.103130,0,0,0,0,0,0,0
3,39999,52,30000,65,0,40,9999,0.100000,0,0,0.000000,5,0.000000,0.000000,0.802367,0,0,0,0,0,0,0
3,39999,53,30000,25,20000,40,9999,0.100000,0,0,0.000000,5,0.000000,0.000000,1.368788,0,0,0,0,0,0,0
3,39999,54,30000,25,20000,40,9999,0.100000,0,0,0.000000,5,0.000000,0.000000,2.099153,0,0,0,0,0,0,0
3,39999,55,30000,1,10000,40,9999,0.100000,0,0,0.000000,5,0.000000,0.000000,1.513525,0,0,0,0,0,0,0
3,39999,56,30000,1,10000,40,9999,0.100000,0,0,0.000000,5,0.000000,0.000000,0.098853,0,0,0,0,0,0,0
3,39999,57,30000,25,20000,40,9999,0.100000,0,0,0.000000,5,0.000000,0.000000,0.124568,0,0,0,0,0,0,0
3,39999,58,30000,1,10000,40,9999,0.100000,0,0,0.000000,5,0.000000,0.000000,3.350624,0,0,0,0,0,0,0
3,39999,59,30000,65,0,40,9999,0.100000,0,0,0.000000,5,0.000000,0.000000,0.616989,0,0,0,0,0,0,0
3,39999,60,30000,5,0,40,9999,0.100000,0,0,0.000000,5,0.000000,0.000000,2.058291,0,0,0,0,0,0,0
3,39999,61,30000,1,10000,40,9999,0.100000,0,0,0.000000,5,0.000000,0.000000,0.094543,0,0,0,0,0,0,0
3,39999,62,30000,5,0,40,9999,0.100000,0,0,0.000000,5,0.000000,0.000000,3.258671,0,0,0,0,0,0,0
3,39999,63,30000,65,0,40,9999,0.100000,0,0,0.000000,5,0.000000,0.000000,0.934202,0,0,0,0,0,0,0
3,39999,64,30000,5,0,40,9999,0.100000,0,0,0.000000,5,0.000000,0.000000,4.618041,0,0,0,0,0,0,0
3,39999,65,30000,70,10000,40,9999,0.100000,0,0,0.000000,5,0.000000,0.000000,0.232001,0,0,0,0,0,0,0
3,39999,66,30000,25,20000,40,9999,0.100000,0,0,0.000000,5,0.000000,0.000000,6.225427,0,0,0,0,0,0,0
3,39999,67,30000,11,0,40,9999,0.100000,0,0,0.000000,5,0.000000,0.000000,1.093898,0,0,0,0,0,0,0
3,39999,68,30000,1,10000,40,9999,0.100000,0,0,0.000000,5,0.000000,0.000000,0.243201,0,0,0,0,0,0,0
3,39999,69,30000,5,0,40,9999,0.100000,0,0,0.000000,5,0.000000,0.000000,0.879970,0,0,0,0,0,0,0
3,39999,70,30000,70,10000,40,9999,0.100000,0,0,0.000000,5,0.000000,0.000000,14.619024,0,0,0,0,0,0,0
3,39999,71,30000,65,0,49,9999,0.100000,0,0,0.000000,5,5.000000,0.000000,11.935907,0,0,0,0,0,0,0
3,39999,72,30000,5,0,40,9999,0.100000,0,0,0.000000,5,0.000000,0.000000,0.093794,0,0,0,0,0,0,0
3,39999,73,30000,65,0,40,9999,0.100000,0,0,0.000000,5,0.000000,0.000000,0.301098,0,0,0,0,0,0,0
3,39999,74,30000,5,0,40,9999,0.100000,0,0,0.000000,5,0.000000,0.000000,1.443588,0,0,0,0,0,0,0
3,39999,75,30000,1,10000,40,9999,0.100000,0,0,0.000000,5,0.000000,0.000000,1.024634,0,0,0,0,0,0,0
3,39999,76,30000,5,0,49,9999,0.100000,0,0,0.000000,5,3.000000,0.000000,9.271522,0,0,0,0,0,0,0
3,39999,77,30000,65,0,49,9999,0.100000,0,0,0.000000,5,1.000000,0.000000,3.427786,0,0,0,0,0,0,0
3,39999,78,30000,65,0,40,9999,0.100000,0,0,0.000000,5,0.000000,0.000000,1.587388,0,0,0,0,0,0,0
3,39999,79,30000,1,10000,49,9999,0.100000,0,0,0.000000,5,1.000000,0.000000,1.304178,0,0,0,0,0,0,0
3,39999,80,30000,1,10000,40,9999,0.100000,0,0,0.000000,5,0.000000,0.000000,0.476674,0,0,0,0,0,0,0
3,39999,81,30000,5,0,40,9999,0.100000,0,0,0.000000,5,0.000000,0.000000,0.176146,0,0,0,0,0,0,0
3,39999,82,30000,25,20000,40,9999,0.100000,0,0,0.000000,5,0.000000,0.000000,0.421040,0,0,0,0,0,0,0
3,39999,83,30000,65,0,40,9999,0.100000,0,0,0.000000,5,0.000000,0.000000,2.617088,0,0,0,0,0,0,0
3,39999,84,30000,70,10000,40,9999,0.100000,0,0,0.000000,5,0.000000,0.000000,0.293264,0,0,0,0,0,0,0
3,39999,85,30000,70,10000,40,9999,0.100000,0,0,0.000000,5,0.000000,0.000000,7.540007,0,0,0,0,0,0,0
3,39999,86,30000,1,10000,49,9999,0.100000,0,0,0.000000,5,1.000000,0.000000,2.501249,0,0,0,0,0,0,0
3,39999,87,30000,11,0,40,9999,0.100000,0,0,0.000000,5,0.000000,0.000000,0.459063,0,0,0,0,0,0,0
3,39999,88,30000,5,0,40,9999,0.100000,0,0,0.000000,5,0.000000,0.000000,0.139340,0,0,0,0,0,0,0
3,39999,89,30000,65,0,0,9999,0.135000,0,0,0.000000,5,0.000000,0.000000,2.350026,0,0,0,0,0,21,0
3,39999,90,30000,1,10000,40,9999,0.100000,0,0,0.000000,5,0.000000,0.000000,6.091184,0,0,0,0,0,0,0
3,39999,91,30000,5,0,40,9999,0.100000,0,0,0.000000,5,0.000000,0.000000,12.849108,0,0,0,0,0,0,0
3,39999,92,30000,70,10000,40,9999,0.100000,0,0,0.000000,5,0.000000,0.000000,0.076909,0,0,0,0,0,0,0
3,39999,93,30000,5,0,49,9999,0.100000,0,0,0.000000,5,3.000000,0.000000,7.474299,0,0,0,0,0,0,0
3,39999,94,30000,65,0,40,9999,0.100000,0,0,0.000000,5,0.000000,0.000000,0.121768,0,0,0,0,0,0,0
3,39999,95,30000,65,0,40,9999,0.100000,0,0,0.000000,5,0.000000,0.000000,0.427052,0,0,0,0,0,0,0
3,39999,96,30000,25,20000,40,9999,0.100000,0,0,0.000000,5,0.000000,0.000000,0.566637,0,0,0,0,0,0,0
3,39999,97,30000,1,10000,40,9999,0.100000,0,0,0.000000,5,0.000000,0.000000,18.082550,0,0,0,0,0,0,0
3,39999,98,30000,5,0,49,9999,0.100000,0,0,0.000000,5,9.000000,0.000000,19.806378,0,0,0,0,0,0,0
3,39999,99,30000,5,0,49,9999,0.100000,0,0,0.000000,5,2.000000,0.000000,13.035861,0,0,0,0,0,0,0
4,49999,0,40000,65,0,40,9999,0.100000,0,0,0.000000,5,0.000000,0.000000,0.177762,0,0,0,0,0,0,0
4,49999,1,40000,5,0,40,9999,0.100000,0,0,0.000000,5,0.000000,0.000000,0.831573,0,0,0,0,0,0,0
4,49999,2,40000,1,10000,40,9999,0.100000,0,0,0.000000,5,0.000000,0.000000,0.143270,0,0,0,0,0,0,0
4,49999,3,40000,70,10000,49,9999,0.100000,0,0,0.000000,5,1.000000,0.000000,8.790652,0,0,0,0,0,0,0
4,49999,4,40000,25,20000,40,9999,0.100000,0,0,0.000000,5,0.000000,0.000000,0.911971,0,0,0,0,0,0,0
4,49999,5,40000,1,10000,40,9999,0.100000,0,0,0.000000,5,0.000000,0.000000,0.588592,0,0,0,0,0,0,0
4,49999,6,40000,25,20000,40,9999,0.100000,0,0,0.000000,5,0.000000,0.000000,3.397895,0,0,0,0,0,0,0
4,49999,7,40000,70,10000,40,9999,0.100000,0,0,0.000000,5,0.000000,0.000000,1.311960,0,0,0,0,0,0,0
4,49999,8,40000,70,10000,40,9999,0.100000,0,0,0.000000,5,0.000000,0.000000,0.236756,0,0,0,0,0,0,0
4,49999,9,40000,5,0,40,9999,0.100000,0,0,0.000000,5,0.000000,0.000000,9.545496,0,0,0,0,0,0,0
4,49999,10,40000,1,10000,40,9999,0.100000,0,0,0.000000,5,0.000000,0.000000,0.943378,0,0,0,0,0,0,0
4,49999,11,40000,5,0,40,9999,0.100000,0,0,0.000000,5,0.000000,0.000000,0.119496,0,0,0,0,0,0,0
4,49999,12,40000,65,0,40,9999,0.100000,0,0,0.000000,5,0.000000,0.000000,1.113493,0,0,0,0,0,0,0
4,49999,13,40000,5,0,49,9999,0.100000,0,0,0.000000,5,2.000000,0.000000,6.492273,0,0,0,0,0,0,0
4,49999,14,40000,25,20000,40,9999,0.100000,0,0,0.000000,5,0.000000,0.000000,0.164283,0,0,0,0,0,0,0
4,49999,15,40000,1,10000,40,9999,0.100000,0,0,0.000000,5,0.000000,0.000000,0.151353,0,0,0,0,0,0,0
4,49999,16,40000,1,10000,40,9999,0.100000,0,0,0.000000,5,0.000000,0.000000,0.100710,0,0,0,0,0,0,0
4,49999,17,40000,5,0,49,9999,0.100000,0,0,0.000000,5,8.000000,0.000000,16.092680,0,0,0,0,0,0,0
4,49999,18,40000,25,20000,40,9999,0.100000,0,0,0.000000,5,0.000000,0.000000,0.991621,0,0,0,0,0,0,0
4,49999,19,40000,65,0,40,9999,0.100000,0,0,0.000000,5,0.000000,0.000000,0.227846,0,0,0,0,0,0,0
4,49999,20,40000,5,0,40,9999,0.100000,0,0,0.000000,5,0.000000,0.000000,4.502660,0,0,0,0,0,0,0
4,49999,21,40000,70,10000,40,9999,0.100000,0,0,0.000000,5,0.000000,0.000000,0.106187,0,0,0,0,0,0,0
4,49999,22,40000,1,10000,40,9999,0.100000,0,0,0.000000,5,0.000000,0.000000,0.131687,0,0,0,0,0,0,0
4,49999,23,40000,25,20000,40,9999,0.100000,0,0,0.000000,5,0.000000,0.000000,0.101073,0,0,0,0,0,0,0
4,49999,24,40000,70,10000,40,9999,0.100000,0,0,0.000000,5,0.000000,0.000000,0.509626,0,0,0,0,0,0,0
4,49999,25,40000,65,0,49,9999,0.100000,0,0,0.000000,5,1.000000,0.000000,11.966018,0,0,0,0,0,0,0
4,49999,26,40000,65,0,40,9999,0.100000,0,0,0.000000,5,0.000000,0.000000,0.123738,0,0,0,0,0,0,0
4,49999,27,40000,25,20000,40,9999,0.100000,0,0,0.000000,5,0.000000,0.000000,0.686625,0,0,0,0,0,0,0
4,49999,28,40000,70,10000,40,9999,0.100000,0,0,0.000000,5,0.000000,0.000000,3.991309,0,0,0,0,0,0,0
4,49999,29,40000,65,0,40,9999,0.100000,0,0,0.000000,5,0.000000,0.000000,0.996788,0,0,0,0,0,0,0
4,49999,30,40000,5,0,40,9999,0.100000,0,0,0.000000,5,0.000000,0.000000,0.099984,0,0,0,0,0,0,0
4,49999,31,40000,65,0,49,9999,0.100000,0,0,0.000000,5,2.000000,0.000000,13.258257,0,0,0,0,0,0,0
4,49999,32,40000,1,10000,40,9999,0.100000,0,0,0.000000,5,0.000000,0.000000,1.285077,0,0,0,0,0,0,0
4,49999,33,40000,65,0,40,9999,0.100000,0,0,0.000000,5,0.000000,0.000000,0.324703,0,0,0,0,0,0,0
4,49999,34,40000,65,0,40,9999,0.100000,0,0,0.000000,5,0.000000,0.000000,1.616819,0,0,0,0,0,0,0
4,49999,35,40000,1,10000,40,9999,0.065000,0,0,0.000000,5,0.000000,0.000000,1.252183,0,0,0,0,0,0,0
4,49999,36,40000,70,10000,40,9999,0.100000,0,0,0.000000,5,0.000000,0.000000,0.155004,0,0,0,0,0,0,0
4,49999,37,40000,65,0,40,9999,0.100000,0,0,0.000000,5,0.000000,0.000000,0.652716,0,0,0,0,0,0,0
4,49999,38,40000,5,0,40,9999,0.100000,0,0,0.000000,5,0.000000,0.000000,0.188065,0,0,0,0,0,0,0
4,49999,39,40000,25,20000,40,9999,0.100000,0,0,0.000000,5,0.000000,0.000000,2.152077,0,0,0,0,0,0,0
4,49999,40,40000,5,0,40,9999,0.100000,0,0,0.000000,5,0.000000,0.000000,2.663056,0,0,0,0,0,0,0
4,49999,41,40000,5,0,40,9999,0.100000,0,0,0.000000,5,0.000000,0.000000,3.944879,0,0,0,0,0,0,0
4,49999,42,40000,1,10000,40,9999,0.100000,0,0,0.000000,5,0.000000,0.000000,0.352932,0,0,0,0,0,0,0
4,49999,43,40000,25,20000,40,9999,0.100000,0,0,0.000000,5,0.000000,0.000000,0.136435,0,0,0,0,0,0,0
4,49999,44,40000,1,10000,40,9999,0.100000,0,0,0.000000,5,0.000000,0.000000,0.430032,0,0,0,0,0,0,0
4,49999,45,40000,1,10000,40,9999,0.100000,0,0,0.000000,5,0.000000,0.000000,0.349691,0,0,0,0,0,0,0
4,49999,46,40000,65,0,40,9999,0.100000,0,0,0.000000,5,0.000000,0.000000,0.965875,0,0,0,0,0,0,0
4,49999,47,40000,1,10000,40,9999,0.100000,0,0,0.000000,5,0.000000,0.000000,0.086708,0,0,0,0,0,0,0
4,49999,48,40000,5,0,40,9999,0.100000,0,0,0.000000,5,0.000000,0.000000,0.165162,0,0,0,0,0,0,0
4,49999,49,40000,25,20000,40,9999,0.100000,0,0,0.000000,5,0.000000,0.000000,0.088421,0,0,0,0,0,0,0
4,49999,50,40000,5,0,40,9999,0.100000,0,0,0.000000,5,0.000000,0.000000,0.123234,0,0,0,0,0,0,0
4,49999,51,40000,1,10000,40,9999,0.100000,0,0,0.000000,5,0.000000,0.000000,0.094323,0,0,0,0,0,0,0
4,49999,52,40000,5,0,40,9999,0.100000,0,0,0.000000,5,0.000000,0.000000,0.660544,0,0,0,0,0,0,0
4,49999,53,40000,70,10000,40,9999,0.100000,0,0,0.000000,5,0.000000,0.000000,0.772604,0,0,0,0,0,0,0
4,49999,54,40000,5,0,40,9999,0.100000,0,0,0.000000,5,0.000000,0.000000,1.843808,0,0,0,0,0,0,0
4,49999,55,40000,1,10000,40,9999,0.100000,0,0,0.000000,5,0.000000,0.000000,0.926267,0,0,0,0,0,0,0
4,49999,56,40000,70,10000,40,9999,0.100000,0,0,0.000000,5,0.000000,0.000000,0.100300,0,0,0,0,0,0,0
4,49999,57,40000,65,0,40,9999,0.100000,0,0,0.000000,5,0.000000,0.000000,0.123141,0,0,0,0,0,0,0
4,49999,58,40000,5,0,40,9999,0.100000,0,0,0.000000,5,0.000000,0.000000,3.492018,0,0,0,0,0,0,0
4,49999,59,40000,65,0,40,9999,0.100000,0,0,0.000000,5,0.000000,0.000000,0.453958,0,0,0,0,0,0,0
4,49999,60,40000,70,10000,40,9999,0.100000,0,0,0.000000,5,0.000000,0.000000,0.920790,0,0,0,0,0,0,0
4,49999,61,40000,25,20000,40,9999,0.100000,0,0,0.000000,5,0.000000,0.000000,0.117517,0,0,0,0,0,0,0
4,49999,62,40000,1,10000,40,9999,0.100000,0,0,0.000000,5,0.000000,0.000000,0.085442,0,0,0,0,0,0,0
4,49999,63,40000,5,0,40,9999,0.100000,0,0,0.000000,5,0.000000,0.000000,0.456537,0,0,0,0,0,0,0
4,49999,64,40000,65,0,49,9999,0.135000,0,0,0.000000,5,6.000000,0.000000,9.842123,0,0,0,0,0,0,0
4,49999,65,40000,1,10000,49,9999,0.100000,0,0,0.000000,5,7.000000,0.000000,14.968866,0,0,0,0,0,0,0
4,49999,66,40000,65,0,49,9999,0.100000,0,0,0.000000,5,1.000000,0.000000,3.314094,0,0,0,0,0,0,0
4,49999,67,40000,65,0,40,9999,0.100000,0,0,0.000000,5,0.000000,0.000000,2.640231,0,0,0,0,0,0,0
4,49999,68,40000,65,0,40,9999,0.100000,0,0,0.000000,5,0.000000,0.000000,0.252496,0,0,0,0,0,0,0
4,49999,69,40000,5,0,40,9999,0.100000,0,0,0.000000,5,0.000000,0.000000,0.511517,0,0,0,0,0,0,0
4,49999,70,40000,1,10000,49,9999,0.100000,0,0,0.000000,5,1.000000,0.000000,12.152719,0,0,0,0,0,0,0
4,49999,71,40000,5,0,40,9999,0.100000,0,0,0.000000,5,0.000000,0.000000,0.479914,0,0,0,0,0,0,0
4,49999,72,40000,70,10000,40,9999,0.100000,0,0,0.000000,5,0.000000,0.000000,0.081340,0,0,0,0,0,0,0
4,49999,73,40000,65,0,49,9999,0.100000,0,0,0.000000,5,6.000000,0.000000,13.682434,0,0,0,0,0,0,0
4,49999,74,40000,1,10000,40,9999,0.100000,0,0,0.000000,5,0.000000,0.000000,1.436032,0,0,0,0,0,0,0
4,49999,75,40000,65,0,40,9999,0.100000,0,0,0.000000,5,0.000000,0.000000,0.953586,0,0,0,0,0,0,0
4,49999,76,40000,5,0,49,9999,0.100000,0,0,0.000000,5,3.000000,0.000000,11.314407,0,0,0,0,0,0,0
4,49999,77,40000,1,10000,40,9999,0.100000,0,0,0.000000,5,0.000000,0.000000,4.004915,0,0,0,0,0,0,0
4,49999,78,40000,5,0,40,9999,0.100000,0,0,0.000000,5,0.000000,0.000000,1.863383,0,0,0,0,0,0,0
4,49999,79,40000,65,0,40,9999,0.100000,0,0,0.000000,5,0.000000,0.000000,0.141345,0,0,0,0,0,0,0
4,49999,80,40000,25,20000,40,9999,0.100000,0,0,0.000000,5,0.000000,0.000000,0.572406,0,0,0,0,0,0,0
4,49999,81,40000,65,0,40,9999,0.100000,0,0,0.000000,5,0.000000,0.000000,0.104688,0,0,0,0,0,0,0
4,49999,82,40000,65,0,40,9999,0.100000,0,0,0.000000,5,0.000000,0.000000,1.010764,0,0,0,0,0,0,0
4,49999,83,40000,25,20000,40,9999,0.100000,0,0,0.000000,5,0.000000,0.000000,2.067553,0,0,0,0,0,0,0
4,49999,84,40000,5,0,49,9999,0.100000,0,0,0.000000,5,2.000000,0.000000,6.041375,0,0,0,0,0,0,0
4,49999,85,40000,5,0,40,9999,0.100000,0,0,0.000000,5,0.000000,0.000000,6.041882,0,0,0,0,0,0,0
4,49999,86,40000,5,0,40,9999,0.100000,0,0,0.000000,5,0.000000,0.000000,0.822170,0,0,0,0,0,0,0
4,49999,87,40000,65,0,40,9999,0.100000,0,0,0.000000,5,0.000000,0.000000,0.156907,0,0,0,0,0,0,0
4,49999,88,40000,1,10000,40,9999,0.100000,0,0,0.000000,5,0.000000,0.000000,0.128448,0,0,0,0,0,0,0
4,49999,89,40000,25,20000,40,9999,0.100000,0,0,0.000000,5,0.000000,0.000000,0.224973,0,0,0,0,0,0,0
4,49999,90,40000,65,0,40,9999,0.100000,0,0,0.000000,5,0.000000,0.000000,13.610778,0,0,0,0,0,0,0
4,49999,91,40000,5,0,40,9999,0.100000,0,0,0.000000,5,0.000000,0.000000,12.170664,0,0,0,0,0,0,0
4,49999,92,40000,5,0,40,9999,0.100000,0,0,0.000000,5,0.000000,0.000000,0.076988,0,0,0,0,0,0,0
4,49999,93,40000,25,20000,40,9999,0.100000,0,0,0.000000,5,0.000000,0.000000,0.381780,0,0,0,0,0,0,0
4,49999,94,40000,25,20000,49,9999,0.100000,0,0,0.000000,5,7.000000,0.000000,15.451353,0,0,0,0,0,0,0
4,49999,95,40000,1,10000,49,9999,0.100000,0,0,0.000000,5,19.000000,0.000000,20.642546,0,0,0,0,0,0,0
4,49999,96,40000,65,0,40,9999,0.100000,0,0,0.000000,5,0.000000,0.000000,0.571365,0,0,0,0,0,0,0
4,49999,97,40000,25,20000,40,9999,0.100000,0,0,0.000000,5,0.000000,0.000000,18.044159,0,0,0,0,0,0,0
4,49999,98,40000,65,0,40,9999,0.100000,0,0,0.000000,5,0.000000,0.000000,0.766687,0,0,0,0,0,0,0
4,49999,99,40000,25,20000,40,9999,0.100000,0,0,0.000000,5,0.000000,0.000000,13.613605,0,0,0,0,0,0,0
5,59999,0,50000,25,20000,40,9999,0.100000,0,0,0.000000,5,0.000000,0.000000,0.165546,0,0,0,0,0,0,0
5,59999,1,50000,70,10000,40,9999,0.100000,0,0,0.000000,5,0.000000,0.000000,0.796588,0,0,0,0,0,0,0
5,59999,2,50000,25,20000,40,9999,0.100000,0,0,0.000000,5,0.000000,0.000000,0.144565,0,0,0,0,0,0,0
5,59999,3,50000,70,10000,49,9999,0.100000,0,0,0.000000,5,9.000000,0.000000,19.348892,0,0,0,0,0,0,0
5,59999,4,50000,5,0,49,9999,0.100000,0,0,0.000000,5,1.000000,0.000000,7.021136,0,0,0,0,0,0,0
5,59999,5,50000,25,20000,40,9999,0.100000,0,0,0.000000,5,0.000000,0.000000,0.663895,0,0,0,0,0,0,0
5,59999,6,50000,70,10000,40,9999,0.100000,0,0,0.000000,5,0.000000,0.000000,0.560618,0,0,0,0,0,0,0
5,59999,7,50000,25,20000,40,9999,0.100000,0,0,0.000000,5,0.000000,0.000000,0.124145,0,0,0,0,0,0,0
5,59999,8,50000,70,10000,40,9999,0.100000,0,0,0.000000,5,0.000000,0.000000,0.221573,0,0,0,0,0,0,0
5,59999,9,50000,70,10000,40,9999,0.100000,0,0,0.000000,5,0.000000,0.000000,9.354697,0,0,0,0,0,0,0
5,59999,10,50000,25,20000,40,9999,0.100000,0,0,0.000000,5,0.000000,0.000000,1.162563,0,0,0,0,0,0,0
5,59999,11,50000,1,10000,40,9999,0.100000,0,0,0.000000,5,0.000000,0.000000,0.191700,0,0,0,0,0,0,0
5,59999,12,50000,70,10000,40,9999,0.100000,0,0,0.000000,5,0.000000,0.000000,1.441616,0,0,0,0,0,0,0
5,59999,13,50000,65,0,0,9999,0.100000,0,0,0.000000,5,0.000000,0.000000,1.519738,0,0,0,0,0,0,1
5,59999,14,50000,70,10000,40,9999,0.100000,0,0,0.000000,5,0.000000,0.000000,0.160831,0,0,0,0,0,0,0
5,59999,15,50000,25,20000,40,9999,0.100000,0,0,0.000000,5,0.000000,0.000000,0.156508,0,0,0,0,0,0,0
5,59999,16,50000,65,0,40,9999,0.100000,0,0,0.000000,5,0.000000,0.000000,0.087581,0,0,0,0,0,0,0
5,59999,17,50000,25,20000,40,9999,0.100000,0,0,0.000000,5,0.000000,0.000000,0.083101,0,0,0,0,0,0,0
5,59999,18,50000,65,0,40,9999,0.100000,0,0,0.000000,5,0.000000,0.000000,0.978436,0,0,0,0,0,0,0
5,59999,19,50000,25,20000,40,9999,0.100000,0,0,0.000000,5,0.000000,0.000000,0.261778,0,0,0,0,0,0,0
5,59999,20,50000,70,10000,49,9999,0.100000,0,0,0.000000,5,1.000000,0.000000,27.317991,0,0,0,0,0,0,0
5,59999,21,50000,65,0,49,9999,0.100000,0,0,0.000000,5,2.000000,0.000000,5.485594,0,0,0,0,0,0,0
5,59999,22,50000,25,20000,40,9999,0.100000,0,0,0.000000,5,0.000000,0.000000,0.131463,0,0,0,0,0,0,0
5,59999,23,50000,5,0,40,9999,0.100000,0,0,0.000000,5,0.000000,0.000000,0.586398,0,0,0,0,0,0,0
5,59999,24,50000,1,10000,40,9999,0.100000,0,0,0.000000,5,0.000000,0.000000,0.538499,0,0,0,0,0,0,0
5,59999,25,50000,5,0,49,9999,0.100000,0,0,0.000000,5,4.000000,0.000000,14.574940,0,0,0,0,0,0,0
5,59999,26,50000,1,10000,40,9999,0.100000,0,0,0.000000,5,0.000000,0.000000,0.109955,0,0,0,0,0,0,0
5,59999,27,50000,1,10000,40,9999,0.100000,0,0,0.000000,5,0.000000,0.000000,0.709419,0,0,0,0,0,0,0
5,59999,28,50000,25,20000,40,9999,0.100000,0,0,0.000000,5,0.000000,0.000000,1.389156,0,0,0,0,0,0,0
5,59999,29,50000,5,0,49,9999,0.100000,0,0,0.000000,5,1.000000,0.000000,4.231103,0,0,0,0,0,0,0
5,59999,30,50000,65,0,40,9999,0.100000,0,0,0.000000,5,0.000000,0.000000,0.100686,0,0,0,0,0,0,0
5,59999,31,50000,65,0,49,9999,0.100000,0,0,0.000000,5,1.000000,0.000000,10.017243,0,0,0,0,0,0,0
5,59999,32,50000,65,0,40,9999,0.100000,0,0,0.000000,5,0.000000,0.000000,1.710198,0,0,0,0,0,0,0
5,59999,33,50000,1,10000,40,9999,0.100000,0,0,0.000000,5,0.000000,0.000000,0.423645,0,0,0,0,0,0,0
5,59999,34,50000,65,0,40,9999,0.100000,0,0,0.000000,5,0.000000,0.000000,0.779700,0,0,0,0,0,0,0
5,59999,35,50000,25,20000,40,9999,0.100000,0,0,0.000000,5,0.000000,0.000000,1.354065,0,0,0,0,0,0,0
5,59999,36,50000,5,0,40,9999,0.100000,0,0,0.000000,5,0.000000,0.000000,0.154208,0,0,0,0,0,0,0
5,59999,37,50000,70,10000,40,9999,0.100000,0,0,0.000000,5,0.000000,0.000000,0.642749,0,0,0,0,0,0,0
5,59999,38,50000,5,0,40,9999,0.100000,0,0,0.000000,5,0.000000,0.000000,0.857441,0,0,0,0,0,0,0
5,59999,39,50000,1,10000,40,9999,0.100000,0,0,0.000000,5,0.000000,0.000000,2.123718,0,0,0,0,0,0,0
5,59999,40,50000,70,10000,40,9999,0.100000,0,0,0.000000,5,0.000000,0.000000,1.872736,0,0,0,0,0,0,0
5,59999,41,50000,5,0,40,9999,0.100000,0,0,0.000000,5,0.000000,0.000000,0.933087,0,0,0,0,0,0,0
5,59999,42,50000,5,0,40,9999,0.100000,0,0,0.000000,5,0.000000,0.000000,0.385541,0,0,0,0,0,0,0
5,59999,43,50000,1,10000,40,9999,0.100000,0,0,0.000000,5,0.000000,0.000000,0.118380,0,0,0,0,0,0,0
5,59999,44,50000,65,0,40,9999,0.100000,0,0,0.000000,5,0.000000,0.000000,0.491184,0,0,0,0,0,0,0
5,59999,45,50000,5,0,40,9999,0.100000,0,0,0.000000,5,0.000000,0.000000,0.355089,0,0,0,0,0,0,0
5,59999,46,50000,65,0,40,9999,0.100000,0,0,0.000000,5,0.000000,0.000000,0.413225,0,0,0,0,0,0,0
5,59999,47,50000,65,0,40,9999,0.100000,0,0,0.000000,5,0.000000,0.000000,0.109698,0,0,0,0,0,0,0
5,59999,48,50000,70,10000,40,9999,0.100000,0,0,0.000000,5,0.000000,0.000000,0.216588,0,0,0,0,0,0,0
5,59999,49,50000,1,10000,40,9999,0.100000,0,0,0.000000,5,0.000000,0.000000,0.089911,0,0,0,0,0,0,0
5,59999,50,50000,65,0,40,9999,0.100000,0,0,0.000000,5,0.000000,0.000000,0.122828,0,0,0,0,0,0,0
5,59999,51,50000,1,10000,40,9999,0.100000,0,0,0.000000,5,0.000000,0.000000,0.094363,0,0,0,0,0,0,0
5,59999,52,50000,25,20000,40,9999,0.100000,0,0,0.000000,5,0.000000,0.000000,0.804382,0,0,0,0,0,0,0
5,59999,53,50000,1,10000,40,9999,0.100000,0,0,0.000000,5,0.000000,0.000000,0.662704,0,0,0,0,0,0,0
5,59999,54,50000,1,10000,40,9999,0.100000,0,0,0.000000,5,0.000000,0.000000,3.100005,0,0,0,0,0,0,0
5,59999,55,50000,65,0,40,9999,0.100000,0,0,0.000000,5,0.000000,0.000000,0.943528,0,0,0,0,0,0,0
5,59999,56,50000,65,0,40,9999,0.100000,0,0,0.000000,5,0.000000,0.000000,0.094486,0,0,0,0,0,0,0
5,59999,57,40000,65,0,40,19999,0.100000,0,0,0.000000,5,0.000000,0.000000,0.102290,0,0,0,0,0,0,0
5,59999,58,50000,65,0,40,9999,0.100000,0,0,0.000000,5,0.000000,0.000000,5.861665,0,0,0,0,0,0,0
5,59999,59,50000,65,0,40,9999,0.100000,0,0,0.000000,5,0.000000,0.000000,0.465523,0,0,0,0,0,0,0
5,59999,60,50000,65,0,40,9999,0.100000,0,0,0.000000,5,0.000000,0.000000,1.086663,0,0,0,0,0,0,0
5,59999,61,50000,70,10000,40,9999,0.100000,0,0,0.000000,5,0.000000,0.000000,0.093011,0,0,0,0,0,0,0
5,59999,62,50000,70,10000,40,9999,0.100000,0,0,0.000000,5,0.000000,0.000000,0.087395,0,0,0,0,0,0,0
5,59999,63,50000,65,0,49,9999,0.100000,0,0,0.000000,5,1.000000,0.000000,3.740645,0,0,0,0,0,0,0
5,59999,64,50000,5,0,40,9999,0.100000,0,0,0.000000,5,0.000000,0.000000,4.256543,0,0,0,0,0,0,0
5,59999,65,50000,25,20000,40,9999,0.100000,0,0,0.000000,5,0.000000,0.000000,0.234365,0,0,0,0,0,0,0
5,59999,66,50000,5,0,40,9999,0.100000,0,0,0.000000,5,0.000000,0.000000,0.356057,0,0,0,0,0,0,0
5,59999,67,50000,65,0,49,9999,0.100000,0,0,0.000000,5,1.000000,0.000000,2.520329,0,0,0,0,0,0,0
5,59999,68,50000,1,10000,40,9999,0.100000,0,0,0.000000,5,0.000000,0.000000,0.438568,0,0,0,0,0,0,0
5,59999,69,50000,5,0,40,9999,0.100000,0,0,0.000000,5,0.000000,0.000000,0.658892,0,0,0,0,0,0,0
5,59999,70,50000,1,10000,49,9999,0.100000,0,0,0.000000,5,4.000000,0.000000,11.110559,0,0,0,0,0,0,0
5,59999,71,50000,65,0,49,9999,0.100000,0,0,0.000000,5,11.000000,0.000000,11.512983,0,0,0,0,0,0,0
5,59999,72,50000,5,0,40,9999,0.100000,0,0,0.000000,5,0.000000,0.000000,0.181886,0,0,0,0,0,0,0
5,59999,73,50000,70,10000,40,9999,0.100000,0,0,0.000000,5,0.000000,0.000000,0.083024,0,0,0,0,0,0,0
5,59999,74,50000,5,0,40,9999,0.100000,0,0,0.000000,5,0.000000,0.000000,4.514894,0,0,0,0,0,0,0
5,59999,75,50000,25,20000,40,9999,0.100000,0,0,0.000000,5,0.000000,0.000000,0.944703,0,0,0,0,0,0,0
5,59999,76,50000,25,20000,40,9999,0.100000,0,0,0.000000,5,0.000000,0.000000,2.757327,0,0,0,0,0,0,0
5,59999,77,50000,5,0,40,9999,0.100000,0,0,0.000000,5,0.000000,0.000000,2.896683,0,0,0,0,0,0,0
5,59999,78,50000,25,20000,40,9999,0.100000,0,0,0.000000,5,0.000000,0.000000,3.096361,0,0,0,0,0,0,0
5,59999,79,50000,1,10000,40,9999,0.100000,0,0,0.000000,5,0.000000,0.000000,0.127188,0,0,0,0,0,0,0
5,59999,80,50000,25,20000,40,9999,0.100000,0,0,0.000000,5,0.000000,0.000000,2.618402,0,0,0,0,0,0,0
5,59999,81,50000,25,20000,40,9999,0.100000,0,0,0.000000,5,0.000000,0.000000,0.120355,0,0,0,0,0,0,0
5,59999,82,50000,25,20000,40,9999,0.100000,0,0,0.000000,5,0.000000,0.000000,0.994567,0,0,0,0,0,0,0
5,59999,83,50000,70,10000,49,9999,0.100000,0,0,0.000000,5,7.000000,0.000000,8.501122,0,0,0,0,0,0,0
5,59999,84,50000,5,0,49,9999,0.100000,0,0,0.000000,5,6.000000,0.000000,13.695521,0,0,0,0,0,0,0
5,59999,85,50000,25,20000,40,9999,0.100000,0,0,0.000000,5,0.000000,0.000000,6.302122,0,0,0,0,0,0,0
5,59999,86,50000,1,10000,40,9999,0.100000,0,0,0.000000,5,0.000000,0.000000,0.734581,0,0,0,0,0,0,0
5,59999,87,50000,65,0,40,9999,0.100000,0,0,0.000000,5,0.000000,0.000000,0.174749,0,0,0,0,0,0,0
5,59999,88,50000,25,20000,40,9999,0.100000,0,0,0.000000,5,0.000000,0.000000,0.248551,0,0,0,0,0,0,0
5,59999,89,50000,5,0,9,9999,0.100000,0,0,0.000000,5,7.000000,0.000000,21.120047,0,0,0,0,0,1,0
5,59999,90,50000,1,10000,40,9999,0.100000,0,0,0.000000,5,0.000000,0.000000,9.097954,0,0,0,0,0,0,0
5,59999,91,50000,65,0,40,9999,0.100000,0,0,0.000000,5,0.000000,0.000000,1.074680,0,0,0,0,0,0,0
5,59999,92,50000,65,0,40,9999,0.100000,0,0,0.000000,5,0.000000,0.000000,0.078114,0,0,0,0,0,0,0
5,59999,93,50000,70,10000,40,9999,0.100000,0,0,0.000000,5,0.000000,0.000000,0.420036,0,0,0,0,0,0,0
5,59999,94,50000,1,10000,40,9999,0.100000,0,0,0.000000,5,0.000000,0.000000,0.107120,0,0,0,0,0,0,0
5,59999,95,50000,5,0,40,9999,0.100000,0,0,0.000000,5,0.000000,0.000000,0.240797,0,0,0,0,0,0,0
5,59999,96,50000,65,0,40,9999,0.100000,0,0,0.000000,5,0.000000,0.000000,0.660424,0,0,0,0,0,0,0
5,59999,97,50000,1,10000,40,9999,0.100000,0,0,0.000000,5,0.000000,0.000000,17.960557,0,0,0,0,0,0,0
5,59999,98,50000,70,10000,40,9999,0.100000,0,0,0.000000,5,0.000000,0.000000,0.840579,0,0,0,0,0,0,0
5,59999,99,50000,70,10000,49,9999,0.100000,0,0,0.000000,5,2.000000,0.000000,10.964612,0,0,0,0,0,0,0
6,69999,0,60000,25,20000,40,9999,0.100000,0,0,0.000000,5,0.000000,0.000000,0.172633,0,0,0,0,0,0,0
6,69999,1,60000,25,20000,40,9999,0.100000,0,0,0.000000,5,0.000000,0.000000,0.660005,0,0,0,0,0,0,0
6,69999,2,60000,70,10000,40,9999,0.100000,0,0,0.000000,5,0.000000,0.000000,0.150786,0,0,0,0,0,0,0
6,69999,3,60000,25,20000,40,9999,0.100000,0,0,0.000000,5,0.000000,0.000000,0.222008,0,0,0,0,0,0,0
6,69999,4,60000,70,10000,49,9999,0.100000,0,0,0.000000,5,2.000000,0.000000,14.699606,0,0,0,0,0,0,0
6,69999,5,60000,70,10000,40,9999,0.100000,0,0,0.000000,5,0.000000,0.000000,0.292523,0,0,0,0,0,0,0
6,69999,6,60000,1,10000,40,9999,0.100000,0,0,0.000000,5,0.000000,0.000000,0.927255,0,0,0,0,0,0,0
6,69999,7,60000,5,0,40,9999,0.100000,0,0,0.000000,5,0.000000,0.000000,0.106180,0,0,0,0,0,0,0
6,69999,8,60000,65,0,40,9999,0.100000,0,0,0.000000,5,0.000000,0.000000,0.203367,0,0,0,0,0,0,0
6,69999,9,60000,25,20000,40,9999,0.100000,0,0,0.000000,5,0.000000,0.000000,7.810163,0,0,0,0,0,0,0
6,69999,10,60000,25,20000,49,9999,0.100000,0,0,0.000000,5,1.000000,0.000000,3.054393,0,0,0,0,0,0,0
6,69999,11,60000,65,0,40,9999,0.100000,0,0,0.000000,5,0.000000,0.000000,0.125904,0,0,0,0,0,0,0
6,69999,12,60000,5,0,49,9999,0.100000,0,0,0.000000,5,1.000000,0.000000,7.988900,0,0,0,0,0,0,0
6,69999,13,60000,25,20000,40,9999,0.100000,0,0,0.000000,5,0.000000,0.000000,0.983191,0,0,0,0,0,0,0
6,69999,14,60000,25,20000,49,9999,0.100000,0,0,0.000000,5,1.000000,0.000000,3.075805,0,0,0,0,0,0,0
6,69999,15,60000,5,0,40,9999,0.100000,0,0,0.000000,5,0.000000,0.000000,0.189614,0,0,0,0,0,0,0
6,69999,16,60000,1,10000,40,9999,0.100000,0,0,0.000000,5,0.000000,0.000000,0.073549,0,0,0,0,0,0,0
6,69999,17,60000,5,0,49,9999,0.100000,0,0,0.000000,5,7.000000,0.000000,16.080150,0,0,0,0,0,0,0
6,69999,18,60000,1,10000,40,9999,0.100000,0,0,0.000000,5,0.000000,0.000000,0.637767,0,0,0,0,0,0,0
6,69999,19,60000,65,0,40,9999,0.100000,0,0,0.000000,5,0.000000,0.000000,0.729748,0,0,0,0,0,0,0
6,69999,20,60000,70,10000,49,9999,0.100000,0,0,0.000000,5,5.000000,0.000000,21.747685,0,0,0,0,0,0,0
6,69999,21,60000,65,0,40,9999,0.100000,0,0,0.000000,5,0.000000,0.000000,0.118194,0,0,0,0,0,0,0
6,69999,22,60000,70,10000,40,9999,0.100000,0,0,0.000000,5,0.000000,0.000000,0.131137,0,0,0,0,0,0,0
6,69999,23,60000,25,20000,40,9999,0.100000,0,0,0.000000,5,0.000000,0.000000,0.598492,0,0,0,0,0,0,0
6,69999,24,60000,1,10000,40,9999,0.100000,0,0,0.000000,5,0.000000,0.000000,0.995850,0,0,0,0,0,0,0
6,69999,25,60000,5,0,49,9999,0.100000,0,0,0.000000,5,3.000000,0.000000,11.891654,0,0,0,0,0,0,0
6,69999,26,60000,65,0,40,9999,0.100000,0,0,0.000000,5,0.000000,0.000000,0.092522,0,0,0,0,0,0,0
6,69999,27,60000,1,10000,40,9999,0.100000,0,0,0.000000,5,0.000000,0.000000,0.683050,0,0,0,0,0,0,0
6,69999,28,60000,25,20000,40,9999,0.100000,0,0,0.000000,5,0.000000,0.000000,0.329119,0,0,0,0,0,0,0
6,69999,29,60000,65,0,40,9999,0.100000,0,0,0.000000,5,0.000000,0.000000,0.954860,0,0,0,0,0,0,0
6,69999,30,60000,70,10000,40,9999,0.100000,0,0,0.000000,5,0.000000,0.000000,0.100300,0,0,0,0,0,0,0
6,69999,31,60000,65,0,49,9999,0.100000,0,0,0.000000,5,1.000000,0.000000,3.856311,0,0,0,0,0,0,0
6,69999,32,60000,5,0,49,9999,0.100000,0,0,0.000000,5,1.000000,0.000000,2.495359,0,0,0,0,0,0,0
6,69999,33,60000,25,20000,40,9999,0.100000,0,0,0.000000,5,0.000000,0.000000,0.404449,0,0,0,0,0,0,0
6,69999,34,60000,5,0,40,9999,0.100000,0,0,0.000000,5,0.000000,0.000000,0.184488,0,0,0,0,0,0,0
6,69999,35,60000,65,0,40,9999,0.100000,0,0,0.000000,5,0.000000,0.000000,0.420171,0,0,0,0,0,0,0
6,69999,36,60000,5,0,40,9999,0.100000,0,0,0.000000,5,0.000000,0.000000,0.156116,0,0,0,0,0,0,0
6,69999,37,60000,5,0,49,9999,0.100000,0,0,0.000000,5,2.000000,0.000000,3.133378,0,0,0,0,0,0,0
6,69999,38,60000,65,0,40,9999,0.100000,0,0,0.000000,5,0.000000,0.000000,0.582751,0,0,0,0,0,0,0
6,69999,39,60000,1,10000,40,9999,0.100000,0,0,0.000000,5,0.000000,0.000000,1.986615,0,0,0,0,0,0,0
6,69999,40,60000,70,10000,40,9999,0.100000,0,0,0.000000,5,0.000000,0.000000,1.779757,0,0,0,0,0,0,0
6,69999,41,60000,5,0,40,9999,0.100000,0,0,0.000000,5,0.000000,0.000000,0.952004,0,0,0,0,0,0,0
6,69999,42,60000,1,10000,40,9999,0.100000,0,0,0.000000,5,0.000000,0.000000,0.488586,0,0,0,0,0,0,0
6,69999,43,60000,65,0,40,9999,0.100000,0,0,0.000000,5,0.000000,0.000000,0.117186,0,0,0,0,0,0,0
6,69999,44,60000,25,20000,40,9999,0.100000,0,0,0.000000,5,0.000000,0.000000,0.624203,0,0,0,0,0,0,0
6,69999,45,60000,5,0,40,9999,0.100000,0,0,0.000000,5,0.000000,0.000000,0.403340,0,0,0,0,0,0,0
6,69999,46,60000,25,20000,49,9999,0.100000,0,0,0.000000,5,8.000000,0.000000,10.756867,0,0,0,0,0,0,0
6,69999,47,60000,1,10000,40,9999,0.100000,0,0,0.000000,5,0.000000,0.000000,0.088431,0,0,0,0,0,0,0
6,69999,48,60000,70,10000,40,9999,0.100000,0,0,0.000000,5,0.000000,0.000000,0.837393,0,0,0,0,0,0,0
6,69999,49,60000,5,0,40,9999,0.100000,0,0,0.000000,5,0.000000,0.000000,0.093738,0,0,0,0,0,0,0
6,69999,50,60000,25,20000,40,9999,0.100000,0,0,0.000000,5,0.000000,0.000000,0.123748,0,0,0,0,0,0,0
6,69999,51,60000,1,10000,40,9999,0.100000,0,0,0.000000,5,0.000000,0.000000,0.096692,0,0,0,0,0,0,0
6,69999,52,60000,5,0,40,9999,0.100000,0,0,0.000000,5,0.000000,0.000000,0.089668,0,0,0,0,0,0,0
6,69999,53,60000,5,0,40,9999,0.100000,0,0,0.000000,5,0.000000,0.000000,0.688110,0,0,0,0,0,0,0
6,69999,54,60000,5,0,40,9999,0.100000,0,0,0.000000,5,0.000000,0.000000,0.269251,0,0,0,0,0,0,0
6,69999,55,60000,5,0,40,9999,0.100000,0,0,0.000000,5,0.000000,0.000000,6.290171,0,0,0,0,0,0,0
6,69999,56,60000,70,10000,40,9999,0.100000,0,0,0.000000,5,0.000000,0.000000,0.092947,0,0,0,0,0,0,0
6,69999,57,60000,5,0,40,9999,0.100000,0,0,0.000000,5,0.000000,0.000000,0.177552,0,0,0,0,0,0,0
6,69999,58,60000,1,10000,40,9999,0.100000,0,0,0.000000,5,0.000000,0.000000,16.867265,0,0,0,0,0,0,0
6,69999,59,60000,70,10000,49,9999,0.100000,0,0,0.000000,5,1.000000,0.000000,1.361054,0,0,0,0,0,0,0
6,69999,60,60000,65,0,40,9999,0.100000,0,0,0.000000,5,0.000000,0.000000,1.685858,0,0,0,0,0,0,0
6,69999,61,60000,65,0,40,9999,0.100000,0,0,0.000000,5,0.000000,0.000000,0.090023,0,0,0,0,0,0,0
6,69999,62,60000,5,0,40,9999,0.100000,0,0,0.000000,5,0.000000,0.000000,0.087640,0,0,0,0,0,0,0
6,69999,63,60000,1,10000,49,9999,0.100000,0,0,0.000000,5,1.000000,0.000000,2.095857,0,0,0,0,0,0,0
6,69999,64,60000,65,0,40,9999,0.100000,0,0,0.000000,5,0.000000,0.000000,2.010636,0,0,0,0,0,0,0
6,69999,65,60000,70,10000,40,9999,0.100000,0,0,0.000000,5,0.000000,0.000000,0.251395,0,0,0,0,0,0,0
6,69999,66,60000,5,0,40,9999,0.100000,0,0,0.000000,5,0.000000,0.000000,0.451863,0,0,0,0,0,0,0
6,69999,67,60000,70,10000,40,9999,0.100000,0,0,0.000000,5,0.000000,0.000000,0.974239,0,0,0,0,0,0,0
6,69999,68,60000,5,0,40,9999,0.100000,0,0,0.000000,5,0.000000,0.000000,1.011864,0,0,0,0,0,0,0
6,69999,69,60000,1,10000,40,9999,0.100000,0,0,0.000000,5,0.000000,0.000000,0.583839,0,0,0,0,0,0,0
6,69999,70,60000,65,0,49,9999,0.100000,0,0,0.000000,5,3.000000,0.000000,10.110432,0,0,0,0,0,0,0
6,69999,71,60000,5,0,40,9999,0.100000,0,0,0.000000,5,0.000000,0.000000,0.356123,0,0,0,0,0,0,0
6,69999,72,60000,25,20000,40,9999,0.100000,0,0,0.000000,5,0.000000,0.000000,0.221849,0,0,0,0,0,0,0
6,69999,73,60000,5,0,40,9999,0.100000,0,0,0.000000,5,0.000000,0.000000,0.084300,0,0,0,0,0,0,0
6,69999,74,60000,1,10000,40,9999,0.100000,0,0,0.000000,5,0.000000,0.000000,2.053224,0,0,0,0,0,0,0
6,69999,75,60000,5,0,40,9999,0.100000,0,0,0.000000,5,0.000000,0.000000,0.643285,0,0,0,0,0,0,0
6,69999,76,60000,5,0,40,9999,0.100000,0,0,0.000000,5,0.000000,0.000000,0.943139,0,0,0,0,0,0,0
6,69999,77,60000,5,0,40,9999,0.100000,0,0,0.000000,5,0.000000,0.000000,8.551162,0,0,0,0,0,0,0
6,69999,78,60000,1,10000,49,9999,0.100000,0,0,0.000000,5,1.000000,0.000000,2.147696,0,0,0,0,0,0,0
6,69999,79,60000,65,0,40,9999,0.100000,0,0,0.000000,5,0.000000,0.000000,0.181629,0,0,0,0,0,0,0
6,69999,80,60000,25,20000,40,9999,0.100000,0,0,0.000000,5,0.000000,0.000000,1.004428,0,0,0,0,0,0,0
6,69999,81,60000,1,10000,40,9999,0.100000,0,0,0.000000,5,0.000000,0.000000,0.119688,0,0,0,0,0,0,0
6,69999,82,60000,65,0,40,9999,0.100000,0,0,0.000000,5,0.000000,0.000000,0.673983,0,0,0,0,0,0,0
6,69999,83,60000,65,0,40,9999,0.100000,0,0,0.000000,5,0.000000,0.000000,0.224844,0,0,0,0,0,0,0
6,69999,84,60000,5,0,40,9999,0.100000,0,0,0.000000,5,0.000000,0.000000,0.149781,0,0,0,0,0,0,0
6,69999,85,60000,1,10000,49,9999,0.100000,0,0,0.000000,5,1.000000,0.000000,5.096543,0,0,0,0,0,0,0
6,69999,86,60000,65,0,49,9999,0.100000,0,0,0.000000,5,1.000000,0.000000,1.830708,0,0,0,0,0,0,0
6,69999,87,60000,1,10000,40,9999,0.100000,0,0,0.000000,5,0.000000,0.000000,0.169600,0,0,0,0,0,0,0
6,69999,88,60000,1,10000,49,9999,0.100000,0,0,0.000000,5,8.000000,0.000000,18.117792,0,0,0,0,0,0,0
6,69999,89,60000,25,20000,40,9999,0.100000,0,0,0.000000,5,0.000000,0.000000,10.249393,0,0,0,0,0,0,0
6,69999,90,60000,70,10000,40,9999,0.100000,0,0,0.000000,5,0.000000,0.000000,8.437245,0,0,0,0,0,0,0
6,69999,91,60000,70,10000,40,9999,0.100000,0,0,0.000000,5,0.000000,0.000000,0.595220,0,0,0,0,0,0,0
6,69999,92,60000,70,10000,40,9999,0.100000,0,0,0.000000,5,0.000000,0.000000,0.079721,0,0,0,0,0,0,0
6,69999,93,60000,70,10000,40,9999,0.100000,0,0,0.000000,5,0.000000,0.000000,0.618754,0,0,0,0,0,0,0
6,69999,94,60000,25,20000,40,9999,0.100000,0,0,0.000000,5,0.000000,0.000000,0.148206,0,0,0,0,0,0,0
6,69999,95,60000,25,20000,40,9999,0.100000,0,0,0.000000,5,0.000000,0.000000,0.230019,0,0,0,0,0,0,0
6,69999,96,60000,5,0,40,9999,0.100000,0,0,0.000000,5,0.000000,0.000000,0.220750,0,0,0,0,0,0,0
6,69999,97,60000,65,0,40,9999,0.100000,0,0,0.000000,5,0.000000,0.000000,12.155501,0,0,0,0,0,0,0
6,69999,98,60000,25,20000,40,9999,0.100000,0,0,0.000000,5,0.000000,0.000000,4.237597,0,0,0,0,0,0,0
6,69999,99,60000,65,0,40,9999,0.100000,0,0,0.000000,5,0.000000,0.000000,10.975343,0,0,0,0,0,0,0
7,79999,0,70000,65,0,40,9999,0.100000,0,0,0.000000,5,0.000000,0.000000,0.168187,0,0,0,0,0,0,0
7,79999,1,70000,65,0,40,9999,0.100000,0,0,0.000000,5,0.000000,0.000000,1.351736,0,0,0,0,0,0,0
7,79999,2,70000,70,10000,40,9999,0.100000,0,0,0.000000,5,0.000000,0.000000,0.147915,0,0,0,0,0,0,0
7,79999,3,70000,5,0,40,9999,0.100000,0,0,0.000000,5,0.000000,0.000000,0.211751,0,0,0,0,0,0,0
7,79999,4,70000,25,20000,40,9999,0.100000,0,0,0.000000,5,0.000000,0.000000,0.168154,0,0,0,0,0,0,0
7,79999,5,70000,25,20000,40,9999,0.100000,0,0,0.000000,5,0.000000,0.000000,0.623440,0,0,0,0,0,0,0
7,79999,6,70000,5,0,40,9999,0.100000,0,0,0.000000,5,0.000000,0.000000,3.270332,0,0,0,0,0,0,0
7,79999,7,70000,65,0,40,9999,0.100000,0,0,0.000000,5,0.000000,0.000000,0.163021,0,0,0,0,0,0,0
7,79999,8,70000,70,10000,40,9999,0.100000,0,0,0.000000,5,0.000000,0.000000,0.758690,0,0,0,0,0,0,0
7,79999,9,70000,70,10000,40,9999,0.100000,0,0,0.000000,5,0.000000,0.000000,7.924239,0,0,0,0,0,0,0
7,79999,10,70000,70,10000,40,9999,0.100000,0,0,0.000000,5,0.000000,0.000000,1.959487,0,0,0,0,0,0,0
7,79999,11,70000,65,0,40,9999,0.100000,0,0,0.000000,5,0.000000,0.000000,0.128125,0,0,0,0,0,0,0
7,79999,12,70000,25,20000,40,9999,0.100000,0,0,0.000000,5,0.000000,0.000000,0.868504,0,0,0,0,0,0,0
7,79999,13,70000,25,20000,40,9999,0.100000,0,0,0.000000,5,0.000000,0.000000,1.058209,0,0,0,0,0,0,0
7,79999,14,70000,5,0,49,9999,0.100000,0,0,0.000000,5,1.000000,0.000000,14.781929,0,0,0,0,0,0,0
7,79999,15,70000,5,0,40,9999,0.100000,0,0,0.000000,5,0.000000,0.000000,0.276943,0,0,0,0,0,0,0
7,79999,16,70000,65,0,40,9999,0.100000,0,0,0.000000,5,0.000000,0.000000,0.099433,0,0,0,0,0,0,0
7,79999,17,70000,65,0,40,9999,0.100000,0,0,0.000000,5,0.000000,0.000000,0.639223,0,0,0,0,0,0,0
7,79999,18,70000,25,20000,40,9999,0.100000,0,0,0.000000,5,0.000000,0.000000,0.593351,0,0,0,0,0,0,0
7,79999,19,70000,1,10000,40,9999,0.100000,0,0,0.000000,5,0.000000,0.000000,0.621282,0,0,0,0,0,0,0
7,79999,20,70000,5,0,49,9999,0.100000,0,0,0.000000,5,1.000000,0.000000,15.544793,0,0,0,0,0,0,0
7,79999,21,70000,70,10000,40,9999,0.100000,0,0,0.000000,5,0.000000,0.000000,0.146833,0,0,0,0,0,0,0
7,79999,22,70000,25,20000,40,9999,0.100000,0,0,0.000000,5,0.000000,0.000000,0.131739,0,0,0,0,0,0,0
7,79999,23,70000,1,10000,40,9999,0.100000,0,0,0.000000,5,0.000000,0.000000,1.005793,0,0,0,0,0,0,0
7,79999,24,70000,70,10000,40,9999,0.100000,0,0,0.000000,5,0.000000,0.000000,0.584654,0,0,0,0,0,0,0
7,79999,25,70000,5,0,49,9999,0.100000,0,0,0.000000,5,1.000000,0.000000,8.960383,0,0,0,0,0,0,0
7,79999,26,70000,25,20000,40,9999,0.100000,0,0,0.000000,5,0.000000,0.000000,0.122791,0,0,0,0,0,0,0
7,79999,27,70000,70,10000,40,9999,0.100000,0,0,0.000000,5,0.000000,0.000000,0.655087,0,0,0,0,0,0,0
7,79999,28,70000,70,10000,49,9999,0.100000,0,0,0.000000,5,1.000000,0.000000,1.270307,0,0,0,0,0,0,0
7,79999,29,70000,5,0,40,9999,0.100000,0,0,0.000000,5,0.000000,0.000000,1.672255,0,0,0,0,0,0,0
7,79999,30,70000,5,0,40,9999,0.100000,0,0,0.000000,5,0.000000,0.000000,0.100257,0,0,0,0,0,0,0
7,79999,31,70000,65,0,49,9999,0.100000,0,0,0.000000,5,2.000000,0.000000,12.905513,0,0,0,0,0,0,0
7,79999,32,70000,5,0,40,9999,0.100000,0,0,0.000000,5,0.000000,0.000000,1.155368,0,0,0,0,0,0,0
7,79999,33,70000,65,0,40,9999,0.100000,0,0,0.000000,5,0.000000,0.000000,0.527555,0,0,0,0,0,0,0
7,79999,34,70000,25,20000,40,9999,0.100000,0,0,0.000000,5,0.000000,0.000000,0.171799,0,0,0,0,0,0,0
7,79999,35,70000,70,10000,40,9999,0.100000,0,0,0.000000,5,0.000000,0.000000,1.476597,0,0,0,0,0,0,0
7,79999,36,70000,65,0,40,9999,0.100000,0,0,0.000000,5,0.000000,0.000000,0.284753,0,0,0,0,0,0,0
7,79999,37,70000,65,0,40,9999,0.100000,0,0,0.000000,5,0.000000,0.000000,1.171465,0,0,0,0,0,0,0
7,79999,38,70000,70,10000,40,9999,0.100000,0,0,0.000000,5,0.000000,0.000000,0.505385,0,0,0,0,0,0,0
7,79999,39,70000,25,20000,40,9999,0.065000,0,0,0.000000,5,0.000000,0.000000,3.010029,0,0,0,0,0,0,0
7,79999,40,70000,65,0,40,9999,0.100000,0,0,0.000000,5,0.000000,0.000000,1.646300,0,0,0,0,0,0,0
7,79999,41,70000,25,20000,40,9999,0.100000,0,0,0.000000,5,0.000000,0.000000,0.907348,0,0,0,0,0,0,0
7,79999,42,70000,25,20000,40,9999,0.100000,0,0,0.000000,5,0.000000,0.000000,0.517776,0,0,0,0,0,0,0
7,79999,43,70000,25,20000,49,9999,0.100000,0,0,0.000000,5,5.000000,0.000000,10.426584,0,0,0,0,0,0,0
7,79999,44,70000,1,10000,40,9999,0.100000,0,0,0.000000,5,0.000000,0.000000,0.553242,0,0,0,0,0,0,0
7,79999,45,70000,5,0,40,9999,0.100000,0,0,0.000000,5,0.000000,0.000000,0.810376,0,0,0,0,0,0,0
7,79999,46,70000,1,10000,40,9999,0.100000,0,0,0.000000,5,0.000000,0.000000,0.235853,0,0,0,0,0,0,0
7,79999,47,70000,1,10000,40,9999,0.100000,0,0,0.000000,5,0.000000,0.000000,0.554169,0,0,0,0,0,0,0
7,79999,48,70000,5,0,40,9999,0.100000,0,0,0.000000,5,0.000000,0.000000,0.867512,0,0,0,0,0,0,0
7,79999,49,70000,65,0,40,9999,0.100000,0,0,0.000000,5,0.000000,0.000000,0.095580,0,0,0,0,0,0,0
7,79999,50,70000,1,10000,40,9999,0.100000,0,0,0.000000,5,0.000000,0.000000,0.122554,0,0,0,0,0,0,0
7,79999,51,70000,25,20000,40,9999,0.100000,0,0,0.000000,5,0.000000,0.000000,0.095256,0,0,0,0,0,0,0
7,79999,52,70000,1,10000,40,9999,0.100000,0,0,0.000000,5,0.000000,0.000000,0.096546,0,0,0,0,0,0,0
7,79999,53,70000,5,0,40,9999,0.100000,0,0,0.000000,5,0.000000,0.000000,1.111732,0,0,0,0,0,0,0
7,79999,54,70000,70,10000,40,9999,0.100000,0,0,0.000000,5,0.000000,0.000000,0.247548,0,0,0,0,0,0,0
7,79999,55,70000,5,0,49,9999,0.100000,0,0,0.000000,5,1.000000,0.000000,7.147177,0,0,0,0,0,0,0
7,79999,56,70000,5,0,40,9999,0.100000,0,0,0.000000,5,0.000000,0.000000,0.836433,0,0,0,0,0,0,0
7,79999,57,70000,1,10000,40,9999,0.100000,0,0,0.000000,5,0.000000,0.000000,0.164794,0,0,0,0,0,0,0
7,79999,58,70000,70,10000,40,9999,0.100000,0,0,0.000000,5,0.000000,0.000000,0.079617,0,0,0,0,0,0,0
7,79999,59,70000,65,0,40,9999,0.100000,0,0,0.000000,5,0.000000,0.000000,0.677563,0,0,0,0,0,0,0
7,79999,60,70000,70,10000,40,9999,0.100000,0,0,0.000000,5,0.000000,0.000000,1.662568,0,0,0,0,0,0,0
7,79999,61,70000,70,10000,40,9999,0.100000,0,0,0.000000,5,0.000000,0.000000,0.475222,0,0,0,0,0,0,0
7,79999,62,70000,70,10000,40,9999,0.100000,0,0,0.000000,5,0.000000,0.000000,0.088131,0,0,0,0,0,0,0
7,79999,63,70000,70,10000,40,9999,0.100000,0,0,0.000000,5,0.000000,0.000000,1.170703,0,0,0,0,0,0,0
7,79999,64,70000,65,0,49,9999,0.100000,0,0,0.000000,5,1.000000,0.000000,15.801563,0,0,0,0,0,0,0
7,79999,65,70000,25,20000,40,9999,0.100000,0,0,0.000000,5,0.000000,0.000000,0.291558,0,0,0,0,0,0,0
7,79999,66,70000,1,10000,40,9999,0.100000,0,0,0.000000,5,0.000000,0.000000,0.791950,0,0,0,0,0,0,0
7,79999,67,70000,1,10000,40,9999,0.100000,0,0,0.000000,5,0.000000,0.000000,0.953868,0,0,0,0,0,0,0
7,79999,68,70000,25,20000,40,9999,0.100000,0,0,0.000000,5,0.000000,0.000000,0.857487,0,0,0,0,0,0,0
7,79999,69,70000,65,0,40,9999,0.100000,0,0,0.000000,5,0.000000,0.000000,0.504972,0,0,0,0,0,0,0
7,79999,70,70000,25,20000,40,9999,0.065000,0,0,0.000000,5,0.000000,0.000000,11.964979,0,0,0,0,0,0,0
7,79999,71,70000,1,10000,40,9999,0.100000,0,0,0.000000,5,0.000000,0.000000,0.337088,0,0,0,0,0,0,0
7,79999,72,70000,70,10000,40,9999,0.100000,0,0,0.000000,5,0.000000,0.000000,0.179925,0,0,0,0,0,0,0
7,79999,73,70000,25,20000,40,9999,0.100000,0,0,0.000000,5,0.000000,0.000000,0.083997,0,0,0,0,0,0,0
7,79999,74,70000,5,0,40,9999,0.100000,0,0,0.000000,5,0.000000,0.000000,0.788641,0,0,0,0,0,0,0
7,79999,75,70000,25,20000,40,9999,0.100000,0,0,0.000000,5,0.000000,0.000000,0.983818,0,0,0,0,0,0,0
7,79999,76,70000,70,10000,40,9999,0.100000,0,0,0.000000,5,0.000000,0.000000,0.903227,0,0,0,0,0,0,0
7,79999,77,70000,65,0,40,9999,0.100000,0,0,0.000000,5,0.000000,0.000000,6.790276,0,0,0,0,0,0,0
7,79999,78,70000,65,0,40,9999,0.100000,0,0,0.000000,5,0.000000,0.000000,0.644402,0,0,0,0,0,0,0
7,79999,79,70000,65,0,40,9999,0.100000,0,0,0.000000,5,0.000000,0.000000,0.302357,0,0,0,0,0,0,0
7,79999,80,70000,70,10000,49,9999,0.100000,0,0,0.000000,5,1.000000,0.000000,1.536485,0,0,0,0,0,0,0
7,79999,81,70000,70,10000,40,9999,0.100000,0,0,0.000000,5,0.000000,0.000000,0.143757,0,0,0,0,0,0,0
7,79999,82,70000,1,10000,40,9999,0.100000,0,0,0.000000,5,0.000000,0.000000,0.166554,0,0,0,0,0,0,0
7,79999,83,70000,70,10000,40,9999,0.135000,0,0,0.000000,5,0.000000,0.000000,0.241073,0,0,0,0,0,0,0
7,79999,84,70000,65,0,40,9999,0.100000,0,0,0.000000,5,0.000000,0.000000,0.234895,0,0,0,0,0,0,0
7,79999,85,70000,5,0,40,9999,0.100000,0,0,0.000000,5,0.000000,0.000000,7.488235,0,0,0,0,0,0,0
7,79999,86,70000,70,10000,40,9999,0.100000,0,0,0.000000,5,0.000000,0.000000,1.091614,0,0,0,0,0,0,0
7,79999,87,60000,1,10000,40,19999,0.100000,0,0,0.000000,5,0.000000,0.000000,0.227755,0,0,0,0,0,0,0
7,79999,88,70000,25,20000,40,9999,0.100000,0,0,0.000000,5,0.000000,0.000000,0.139424,0,0,0,0,0,0,0
7,79999,89,70000,70,10000,49,9999,0.100000,0,0,0.000000,5,1.000000,0.000000,4.546739,0,0,0,0,0,0,0
7,79999,90,70000,70,10000,40,9999,0.100000,0,0,0.000000,5,0.000000,0.000000,8.274493,0,0,0,0,0,0,0
7,79999,91,70000,5,0,40,9999,0.100000,0,0,0.000000,5,0.000000,0.000000,0.666582,0,0,0,0,0,0,0
7,79999,92,70000,65,0,40,9999,0.100000,0,0,0.000000,5,0.000000,0.000000,0.087999,0,0,0,0,0,0,0
7,79999,93,70000,5,0,40,9999,0.100000,0,0,0.000000,5,0.000000,0.000000,2.545773,0,0,0,0,0,0,0
7,79999,94,70000,5,0,40,9999,0.100000,0,0,0.000000,5,0.000000,0.000000,0.118360,0,0,0,0,0,0,0
7,79999,95,70000,70,10000,40,9999,0.100000,0,0,0.000000,5,0.000000,0.000000,0.244006,0,0,0,0,0,0,0
7,79999,96,70000,1,10000,40,9999,0.100000,0,0,0.000000,5,0.000000,0.000000,0.569063,0,0,0,0,0,0,0
7,79999,97,70000,65,0,40,9999,0.100000,0,0,0.000000,5,0.000000,0.000000,17.563588,0,0,0,0,0,0,0
7,79999,98,70000,25,20000,40,9999,0.100000,0,0,0.000000,5,0.000000,0.000000,2.578655,0,0,0,0,0,0,0
7,79999,99,70000,25,20000,40,9999,0.100000,0,0,0.000000,5,0.000000,0.000000,11.901766,0,0,0,0,0,0,0
8,89999,0,80000,65,0,40,9999,0.100000,0,0,0.000000,5,0.000000,0.000000,0.166807,0,0,0,0,0,0,0
8,89999,1,80000,70,10000,40,9999,0.100000,0,0,0.000000,5,0.000000,0.000000,0.614718,0,0,0,0,0,0,0
8,89999,2,80000,65,0,40,9999,0.100000,0,0,0.000000,5,0.000000,0.000000,0.199168,0,0,0,0,0,0,0
8,89999,3,80000,25,20000,49,9999,0.100000,0,0,0.000000,5,3.000000,0.000000,5.881691,0,0,0,0,0,0,0
8,89999,4,80000,70,10000,40,9999,0.100000,0,0,0.000000,5,0.000000,0.000000,0.120526,0,0,0,0,0,0,0
8,89999,5,80000,70,10000,40,9999,0.100000,0,0,0.000000,5,0.000000,0.000000,0.424266,0,0,0,0,0,0,0
8,89999,6,80000,5,0,49,9999,0.100000,0,0,0.000000,5,7.000000,0.000000,19.962262,0,0,0,0,0,0,0
8,89999,7,80000,5,0,40,9999,0.100000,0,0,0.000000,5,0.000000,0.000000,0.061658,0,0,0,0,0,0,0
8,89999,8,80000,70,10000,40,9999,0.100000,0,0,0.000000,5,0.000000,0.000000,0.441183,0,0,0,0,0,0,0
8,89999,9,80000,1,10000,40,9999,0.100000,0,0,0.000000,5,0.000000,0.000000,8.112987,0,0,0,0,0,0,0
8,89999,10,80000,25,20000,49,9999,0.100000,0,0,0.000000,5,1.000000,0.000000,2.451250,0,0,0,0,0,0,0
8,89999,11,80000,70,10000,40,9999,0.100000,0,0,0.000000,5,0.000000,0.000000,0.129456,0,0,0,0,0,0,0
8,89999,12,80000,5,0,49,9999,0.100000,0,0,0.000000,5,1.000000,0.000000,1.572363,0,0,0,0,0,0,0
8,89999,13,80000,70,10000,40,9999,0.100000,0,0,0.000000,5,0.000000,0.000000,1.165113,0,0,0,0,0,0,0
8,89999,14,80000,5,0,40,9999,0.100000,0,0,0.000000,5,0.000000,0.000000,0.947659,0,0,0,0,0,0,0
8,89999,15,80000,70,10000,40,9999,0.100000,0,0,0.000000,5,0.000000,0.000000,0.283627,0,0,0,0,0,0,0
8,89999,16,80000,70,10000,40,9999,0.100000,0,0,0.000000,5,0.000000,0.000000,0.062588,0,0,0,0,0,0,0
8,89999,17,80000,65,0,40,9999,0.100000,0,0,0.000000,5,0.000000,0.000000,0.598299,0,0,0,0,0,0,0
8,89999,18,80000,65,0,40,9999,0.100000,0,0,0.000000,5,0.000000,0.000000,1.608244,0,0,0,0,0,0,0
8,89999,19,80000,65,0,40,9999,0.100000,0,0,0.000000,5,0.000000,0.000000,0.773927,0,0,0,0,0,0,0
8,89999,20,80000,70,10000,40,9999,0.100000,0,0,0.000000,5,0.000000,0.000000,14.802898,0,0,0,0,0,0,0
8,89999,21,80000,65,0,40,9999,0.100000,0,0,0.000000,5,0.000000,0.000000,0.091344,0,0,0,0,0,0,0
8,89999,22,80000,70,10000,40,9999,0.100000,0,0,0.000000,5,0.000000,0.000000,0.131578,0,0,0,0,0,0,0
8,89999,23,80000,5,0,40,9999,0.100000,0,0,0.000000,5,0.000000,0.000000,0.832705,0,0,0,0,0,0,0
8,89999,24,80000,5,0,40,9999,0.100000,0,0,0.000000,5,0.000000,0.000000,0.806122,0,0,0,0,0,0,0
8,89999,25,80000,65,0,49,9999,0.100000,0,0,0.000000,5,1.000000,0.000000,2.102960,0,0,0,0,0,0,0
8,89999,26,80000,5,0,40,9999,0.100000,0,0,0.000000,5,0.000000,0.000000,0.104395,0,0,0,0,0,0,0
8,89999,27,80000,70,10000,40,9999,0.100000,0,0,0.000000,5,0.000000,0.000000,0.549805,0,0,0,0,0,0,0
8,89999,28,80000,70,10000,49,9999,0.100000,0,0,0.000000,5,1.000000,0.000000,1.242117,0,0,0,0,0,0,0
8,89999,29,80000,5,0,49,9999,0.100000,0,0,0.000000,5,2.000000,0.000000,10.492794,0,0,0,0,0,0,0
8,89999,30,80000,65,0,40,9999,0.100000,0,0,0.000000,5,0.000000,0.000000,0.100767,0,0,0,0,0,0,0
8,89999,31,80000,25,20000,49,9999,0.100000,0,0,0.000000,5,1.000000,0.000000,18.534991,0,0,0,0,0,0,0
8,89999,32,70000,5,0,40,19999,0.100000,0,0,0.000000,5,0.000000,0.000000,0.475805,0,0,0,0,0,0,0
8,89999,33,80000,70,10000,40,9999,0.100000,0,0,0.000000,5,0.000000,0.000000,0.412631,0,0,0,0,0,0,0
8,89999,34,80000,70,10000,40,9999,0.100000,0,0,0.000000,5,0.000000,0.000000,0.160655,0,0,0,0,0,0,0
8,89999,35,80000,5,0,40,9999,0.100000,0,0,0.000000,5,0.000000,0.000000,1.010838,0,0,0,0,0,0,0
8,89999,36,80000,25,20000,40,9999,0.100000,0,0,0.000000,5,0.000000,0.000000,0.229887,0,0,0,0,0,0,0
8,89999,37,80000,70,10000,40,9999,0.100000,0,0,0.000000,5,0.000000,0.000000,0.369454,0,0,0,0,0,0,0
8,89999,38,80000,1,10000,40,9999,0.100000,0,0,0.000000,5,0.000000,0.000000,0.269641,0,0,0,0,0,0,0
8,89999,39,80000,70,10000,40,9999,0.100000,0,0,0.000000,5,0.000000,0.000000,0.981774,0,0,0,0,0,0,0
8,89999,40,80000,65,0,40,9999,0.100000,0,0,0.000000,5,0.000000,0.000000,1.673672,0,0,0,0,0,0,0
8,89999,41,80000,1,10000,49,9999,0.100000,0,0,0.000000,5,2.000000,0.000000,11.976823,0,0,0,0,0,0,0
8,89999,42,80000,1,10000,40,9999,0.100000,0,0,0.000000,5,0.000000,0.000000,0.541672,0,0,0,0,0,0,0
8,89999,43,80000,65,0,40,9999,0.100000,0,0,0.000000,5,0.000000,0.000000,0.107605,0,0,0,0,0,0,0
8,89999,44,80000,70,10000,40,9999,0.100000,0,0,0.000000,5,0.000000,0.000000,0.551682,0,0,0,0,0,0,0
8,89999,45,80000,65,0,40,9999,0.100000,0,0,0.000000,5,0.000000,0.000000,0.658450,0,0,0,0,0,0,0
8,89999,46,80000,65,0,40,9999,0.100000,0,0,0.000000,5,0.000000,0.000000,0.235012,0,0,0,0,0,0,0
8,89999,47,80000,70,10000,40,9999,0.100000,0,0,0.000000,5,0.000000,0.000000,0.481710,0,0,0,0,0,0,0
8,89999,48,80000,1,10000,40,9999,0.100000,0,0,0.000000,5,0.000000,0.000000,0.634973,0,0,0,0,0,0,0
8,89999,49,80000,70,10000,40,9999,0.100000,0,0,0.000000,5,0.000000,0.000000,0.109048,0,0,0,0,0,0,0
8,89999,50,80000,70,10000,40,9999,0.100000,0,0,0.000000,5,0.000000,0.000000,0.127734,0,0,0,0,0,0,0
8,89999,51,80000,25,20000,40,9999,0.100000,0,0,0.000000,5,0.000000,0.000000,0.113312,0,0,0,0,0,0,0
8,89999,52,80000,70,10000,49,9999,0.100000,0,0,0.000000,5,2.000000,0.000000,4.232210,0,0,0,0,0,0,0
8,89999,53,80000,1,10000,40,9999,0.100000,0,0,0.000000,5,0.000000,0.000000,2.131085,0,0,0,0,0,0,0
8,89999,54,80000,70,10000,40,9999,0.100000,0,0,0.000000,5,0.000000,0.000000,0.235679,0,0,0,0,0,0,0
8,89999,55,80000,1,10000,49,9999,0.100000,0,0,0.000000,5,1.000000,0.000000,4.690407,0,0,0,0,0,0,0
8,89999,56,80000,65,0,49,9999,0.100000,0,0,0.000000,5,3.000000,0.000000,7.122911,0,0,0,0,0,0,0
8,89999,57,80000,5,0,40,9999,0.100000,0,0,0.000000,5,0.000000,0.000000,0.193089,0,0,0,0,0,0,0
8,89999,58,80000,70,10000,40,9999,0.100000,0,0,0.000000,5,0.000000,0.000000,0.077732,0,0,0,0,0,0,0
8,89999,59,80000,5,0,49,9999,0.100000,0,0,0.000000,5,1.000000,0.000000,1.512209,0,0,0,0,0,0,0
8,89999,60,80000,25,20000,40,9999,0.100000,0,0,0.000000,5,0.000000,0.000000,1.071269,0,0,0,0,0,0,0
8,89999,61,80000,1,10000,40,9999,0.100000,0,0,0.000000,5,0.000000,0.000000,0.091968,0,0,0,0,0,0,0
8,89999,62,80000,5,0,40,9999,0.100000,0,0,0.000000,5,0.000000,0.000000,0.089275,0,0,0,0,0,0,0
8,89999,63,80000,5,0,40,9999,0.100000,0,0,0.000000,5,0.000000,0.000000,0.647736,0,0,0,0,0,0,0
8,89999,64,80000,1,10000,40,9999,0.100000,0,0,0.000000,5,0.000000,0.000000,0.955349,0,0,0,0,0,0,0
8,89999,65,80000,65,0,40,9999,0.100000,0,0,0.000000,5,0.000000,0.000000,0.276213,0,0,0,0,0,0,0
8,89999,66,80000,65,0,9,9999,0.100000,0,0,0.000000,5,2.000000,0.000000,10.486743,0,0,0,1,0,0,0
8,89999,67,80000,1,10000,40,9999,0.100000,0,0,0.000000,5,0.000000,0.000000,0.896108,0,0,0,0,0,0,0
8,89999,68,80000,1,10000,40,9999,0.100000,0,0,0.000000,5,0.000000,0.000000,1.053787,0,0,0,0,0,0,0
8,89999,69,80000,65,0,40,9999,0.100000,0,0,0.000000,5,0.000000,0.000000,0.537575,0,0,0,0,0,0,0
8,89999,70,80000,1,10000,49,9999,0.100000,0,0,0.000000,5,4.000000,0.000000,7.546699,0,0,0,0,0,0,0
8,89999,71,80000,25,20000,40,9999,0.100000,0,0,0.000000,5,0.000000,0.000000,0.341345,0,0,0,0,0,0,0
8,89999,72,80000,65,0,40,9999,0.100000,0,0,0.000000,5,0.000000,0.000000,0.154144,0,0,0,0,0,0,0
8,89999,73,80000,25,20000,40,9999,0.100000,0,0,0.000000,5,0.000000,0.000000,0.110070,0,0,0,0,0,0,0
8,89999,74,80000,1,10000,40,9999,0.100000,0,0,0.000000,5,0.000000,0.000000,3.141923,0,0,0,0,0,0,0
8,89999,75,80000,1,10000,40,9999,0.100000,0,0,0.000000,5,0.000000,0.000000,0.392527,0,0,0,0,0,0,0
8,89999,76,80000,5,0,40,9999,0.100000,0,0,0.000000,5,0.000000,0.000000,7.519089,0,0,0,0,0,0,0
8,89999,77,80000,70,10000,40,9999,0.135000,0,0,0.000000,5,0.000000,0.000000,2.449237,0,0,0,0,0,0,0
8,89999,78,80000,70,10000,49,9999,0.100000,0,0,0.000000,5,1.000000,0.000000,1.355197,0,0,0,0,0,0,0
8,89999,79,80000,70,10000,40,9999,0.100000,0,0,0.000000,5,0.000000,0.000000,0.312348,0,0,0,0,0,0,0
8,89999,80,80000,70,10000,49,9999,0.100000,0,0,0.000000,5,1.000000,0.000000,1.133590,0,0,0,0,0,0,0
8,89999,81,80000,5,0,40,9999,0.100000,0,0,0.000000,5,0.000000,0.000000,0.099825,0,0,0,0,0,0,0
8,89999,82,80000,1,10000,40,9999,0.100000,0,0,0.000000,5,0.000000,0.000000,0.154719,0,0,0,0,0,0,0
8,89999,83,80000,25,20000,40,9999,0.100000,0,0,0.000000,5,0.000000,0.000000,0.244193,0,0,0,0,0,0,0
8,89999,84,80000,25,20000,40,9999,0.100000,0,0,0.000000,5,0.000000,0.000000,0.248801,0,0,0,0,0,0,0
8,89999,85,80000,5,0,40,9999,0.100000,0,0,0.000000,5,0.000000,0.000000,6.060165,0,0,0,0,0,0,0
8,89999,86,80000,25,20000,40,9999,0.100000,0,0,0.000000,5,0.000000,0.000000,1.159272,0,0,0,0,0,0,0
8,89999,87,80000,65,0,40,9999,0.100000,0,0,0.000000,5,0.000000,0.000000,0.164512,0,0,0,0,0,0,0
8,89999,88,80000,65,0,40,9999,0.100000,0,0,0.000000,5,0.000000,0.000000,0.141515,0,0,0,0,0,0,0
8,89999,89,80000,1,10000,40,9999,0.100000,0,0,0.000000,5,0.000000,0.000000,4.486801,0,0,0,0,0,0,0
8,89999,90,80000,5,0,40,9999,0.100000,0,0,0.000000,5,0.000000,0.000000,8.748238,0,0,0,0,0,0,0
8,89999,91,80000,1,10000,40,9999,0.100000,0,0,0.000000,5,0.000000,0.000000,0.631793,0,0,0,0,0,0,0
8,89999,92,80000,5,0,40,9999,0.100000,0,0,0.000000,5,0.000000,0.000000,0.087740,0,0,0,0,0,0,0
8,89999,93,80000,70,10000,40,9999,0.100000,0,0,0.000000,5,0.000000,0.000000,4.924885,0,0,0,0,0,0,0
8,89999,94,80000,70,10000,40,9999,0.100000,0,0,0.000000,5,0.000000,0.000000,0.195763,0,0,0,0,0,0,0
8,89999,95,80000,65,0,40,9999,0.100000,0,0,0.000000,5,0.000000,0.000000,0.243037,0,0,0,0,0,0,0
8,89999,96,80000,65,0,40,9999,0.100000,0,0,0.000000,5,0.000000,0.000000,0.370027,0,0,0,0,0,0,0
8,89999,97,80000,25,20000,40,9999,0.100000,0,0,0.000000,5,0.000000,0.000000,19.233179,0,0,0,0,0,0,0
8,89999,98,80000,1,10000,40,9999,0.100000,0,0,0.000000,5,0.000000,0.000000,2.683811,0,0,0,0,0,0,0
8,89999,99,80000,1,10000,40,9999,0.100000,0,0,0.000000,5,0.000000,0.000000,9.945479,0,0,0,0,0,0,0
9,99999,0,90000,65,0,40,9999,0.100000,0,0,0.000000,5,0.000000,0.000000,0.239644,0,0,0,0,0,0,0
9,99999,1,90000,25,20000,40,9999,0.100000,0,0,0.000000,5,0.000000,0.000000,0.367297,0,0,0,0,0,0,0
9,99999,2,90000,65,0,40,9999,0.100000,0,0,0.000000,5,0.000000,0.000000,0.146491,0,0,0,0,0,0,0
9,99999,3,90000,70,10000,40,9999,0.100000,0,0,0.000000,5,0.000000,0.000000,3.482070,0,0,0,0,0,0,0
9,99999,4,90000,25,20000,40,9999,0.100000,0,0,0.000000,5,0.000000,0.000000,0.112399,0,0,0,0,0,0,0
9,99999,5,90000,65,0,40,9999,0.100000,0,0,0.000000,5,0.000000,0.000000,0.484349,0,0,0,0,0,0,0
9,99999,6,90000,25,20000,49,9999,0.100000,0,0,0.000000,5,1.000000,0.000000,8.007526,0,0,0,0,0,0,0
9,99999,7,90000,25,20000,40,9999,0.100000,0,0,0.000000,5,0.000000,0.000000,0.071310,0,0,0,0,0,0,0
9,99999,8,90000,70,10000,40,9999,0.100000,0,0,0.000000,5,0.000000,0.000000,0.997810,0,0,0,0,0,0,0
9,99999,9,90000,65,0,40,9999,0.100000,0,0,0.000000,5,0.000000,0.000000,7.845862,0,0,0,0,0,0,0
9,99999,10,90000,1,10000,40,9999,0.100000,0,0,0.000000,5,0.000000,0.000000,2.144348,0,0,0,0,0,0,0
9,99999,11,90000,65,0,40,9999,0.100000,0,0,0.000000,5,0.000000,0.000000,0.130209,0,0,0,0,0,0,0
9,99999,12,90000,1,10000,40,9999,0.100000,0,0,0.000000,5,0.000000,0.000000,0.829405,0,0,0,0,0,0,0
9,99999,13,90000,1,10000,40,9999,0.100000,0,0,0.000000,5,0.000000,0.000000,0.988948,0,0,0,0,0,0,0
9,99999,14,90000,5,0,40,9999,0.100000,0,0,0.000000,5,0.000000,0.000000,0.551944,0,0,0,0,0,0,0
9,99999,15,90000,1,10000,40,9999,0.100000,0,0,0.000000,5,0.000000,0.000000,0.181720,0,0,0,0,0,0,0
9,99999,16,90000,1,10000,40,9999,0.100000,0,0,0.000000,5,0.000000,0.000000,0.069640,0,0,0,0,0,0,0
9,99999,17,90000,5,0,49,9999,0.100000,0,0,0.000000,5,1.000000,0.000000,6.207605,0,0,0,0,0,0,0
9,99999,18,90000,65,0,40,9999,0.100000,0,0,0.000000,5,0.000000,0.000000,1.098974,0,0,0,0,0,0,0
9,99999,19,90000,1,10000,40,9999,0.100000,0,0,0.000000,5,0.000000,0.000000,1.050687,0,0,0,0,0,0,0
9,99999,20,90000,70,10000,49,9999,0.100000,0,0,0.000000,5,1.000000,0.000000,14.349005,0,0,0,0,0,0,0
9,99999,21,90000,65,0,40,9999,0.100000,0,0,0.000000,5,0.000000,0.000000,0.129454,0,0,0,0,0,0,0
9,99999,22,90000,70,10000,40,9999,0.100000,0,0,0.000000,5,0.000000,0.000000,0.130896,0,0,0,0,0,0,0
9,99999,23,90000,70,10000,40,9999,0.100000,0,0,0.000000,5,0.000000,0.000000,0.957364,0,0,0,0,0,0,0
9,99999,24,90000,5,0,40,9999,0.100000,0,0,0.000000,5,0.000000,0.000000,0.938789,0,0,0,0,0,0,0
9,99999,25,90000,70,10000,40,9999,0.100000,0,0,0.000000,5,0.000000,0.000000,1.491138,0,0,0,0,0,0,0
9,99999,26,90000,65,0,40,9999,0.100000,0,0,0.000000,5,0.000000,0.000000,0.112788,0,0,0,0,0,0,0
9,99999,27,90000,5,0,40,9999,0.100000,0,0,0.000000,5,0.000000,0.000000,0.628803,0,0,0,0,0,0,0
9,99999,28,90000,5,0,40,9999,0.100000,0,0,0.000000,5,0.000000,0.000000,1.022847,0,0,0,0,0,0,0
9,99999,29,90000,1,10000,49,9999,0.100000,0,0,0.000000,5,1.000000,0.000000,7.318569,0,0,0,0,0,0,0
9,99999,30,90000,25,20000,40,9999,0.100000,0,0,0.000000,5,0.000000,0.000000,0.099495,0,0,0,0,0,0,0
9,99999,31,90000,65,0,49,9999,0.100000,0,0,0.000000,5,1.000000,0.000000,16.083770,0,0,0,0,0,0,0
9,99999,32,90000,25,20000,49,9999,0.100000,0,0,0.000000,5,2.000000,0.000000,2.881675,0,0,0,0,0,0,0
9,99999,33,90000,65,0,40,9999,0.100000,0,0,0.000000,5,0.000000,0.000000,0.730403,0,0,0,0,0,0,0
9,99999,34,90000,5,0,40,9999,0.100000,0,0,0.000000,5,0.000000,0.000000,0.164454,0,0,0,0,0,0,0
9,99999,35,90000,25,20000,40,9999,0.100000,0,0,0.000000,5,0.000000,0.000000,0.815752,0,0,0,0,0,0,0
9,99999,36,90000,65,0,40,9999,0.100000,0,0,0.000000,5,0.000000,0.000000,0.180220,0,0,0,0,0,0,0
9,99999,37,90000,70,10000,49,9999,0.100000,0,0,0.000000,5,2.000000,0.000000,2.743369,0,0,0,0,0,0,0
9,99999,38,80000,1,10000,40,19999,0.100000,0,0,0.000000,5,0.000000,0.000000,0.991515,0,0,0,0,0,0,0
9,99999,39,90000,5,0,40,9999,0.100000,0,0,0.000000,5,0.000000,0.000000,0.827631,0,0,0,0,0,0,0
9,99999,40,90000,25,20000,40,9999,0.100000,0,0,0.000000,5,0.000000,0.000000,1.707547,0,0,0,0,0,0,0
9,99999,41,90000,70,10000,49,9999,0.100000,0,0,0.000000,5,3.000000,0.000000,24.588577,0,0,0,0,0,0,0
9,99999,42,90000,25,20000,40,9999,0.100000,0,0,0.000000,5,0.000000,0.000000,0.422854,0,0,0,0,0,0,0
9,99999,43,90000,5,0,40,9999,0.100000,0,0,0.000000,5,0.000000,0.000000,0.116259,0,0,0,0,0,0,0
9,99999,44,90000,1,10000,40,9999,0.100000,0,0,0.000000,5,0.000000,0.000000,0.553441,0,0,0,0,0,0,0
9,99999,45,90000,1,10000,40,9999,0.100000,0,0,0.000000,5,0.000000,0.000000,0.450013,0,0,0,0,0,0,0
9,99999,46,90000,5,0,40,9999,0.100000,0,0,0.000000,5,0.000000,0.000000,0.222358,0,0,0,0,0,0,0
9,99999,47,90000,25,20000,40,9999,0.100000,0,0,0.000000,5,0.000000,0.000000,0.248061,0,0,0,0,0,0,0
9,99999,48,90000,25,20000,40,9999,0.100000,0,0,0.000000,5,0.000000,0.000000,0.399377,0,0,0,0,0,0,0
9,99999,49,90000,25,20000,40,9999,0.100000,0,0,0.000000,5,0.000000,0.000000,0.395342,0,0,0,0,0,0,0
9,99999,50,90000,1,10000,40,9999,0.100000,0,0,0.000000,5,0.000000,0.000000,0.115510,0,0,0,0,0,0,0
9,99999,51,90000,65,0,40,9999,0.100000,0,0,0.000000,5,0.000000,0.000000,0.428573,0,0,0,0,0,0,0
9,99999,52,90000,1,10000,40,9999,0.100000,0,0,0.000000,5,0.000000,0.000000,0.097520,0,0,0,0,0,0,0
9,99999,53,90000,5,0,40,9999,0.100000,0,0,0.000000,5,0.000000,0.000000,0.473501,0,0,0,0,0,0,0
9,99999,54,90000,1,10000,40,9999,0.100000,0,0,0.000000,5,0.000000,0.000000,0.240443,0,0,0,0,0,0,0
9,99999,55,90000,70,10000,40,9999,0.100000,0,0,0.000000,5,0.000000,0.000000,0.890803,0,0,0,0,0,0,0
9,99999,56,90000,1,10000,40,9999,0.100000,0,0,0.000000,5,0.000000,0.000000,0.380603,0,0,0,0,0,0,0
9,99999,57,90000,1,10000,40,9999,0.100000,0,0,0.000000,5,0.000000,0.000000,0.810836,0,0,0,0,0,0,0
9,99999,58,90000,25,20000,40,9999,0.100000,0,0,0.000000,5,0.000000,0.000000,0.078587,0,0,0,0,0,0,0
9,99999,59,90000,25,20000,40,9999,0.100000,0,0,0.000000,5,0.000000,0.000000,0.648839,0,0,0,0,0,0,0
9,99999,60,90000,1,10000,40,9999,0.100000,0,0,0.000000,5,0.000000,0.000000,0.951458,0,0,0,0,0,0,0
9,99999,61,90000,70,10000,40,9999,0.100000,0,0,0.000000,5,0.000000,0.000000,0.297119,0,0,0,0,0,0,0
9,99999,62,90000,25,20000,40,9999,0.100000,0,0,0.000000,5,0.000000,0.000000,0.089160,0,0,0,0,0,0,0
9,99999,63,90000,5,0,49,9999,0.100000,0,0,0.000000,5,2.000000,0.000000,3.063820,0,0,0,0,0,0,0
9,99999,64,90000,5,0,40,9999,0.100000,0,0,0.000000,5,0.000000,0.000000,0.684253,0,0,0,0,0,0,0
9,99999,65,90000,1,10000,9,9999,0.100000,0,0,0.000000,5,1.000000,0.000000,4.357600,0,0,0,0,0,1,0
9,99999,66,90000,70,10000,0,9999,0.100000,0,0,0.000000,5,0.000000,0.000000,7.577040,0,0,0,0,0,55,0
9,99999,67,90000,25,20000,40,9999,0.100000,0,0,0.000000,5,0.000000,0.000000,3.614776,0,0,0,0,0,0,0
9,99999,68,90000,5,0,40,9999,0.100000,0,0,0.000000,5,0.000000,0.000000,0.820618,0,0,0,0,0,0,0
9,99999,69,90000,65,0,49,9999,0.100000,0,0,0.000000,5,8.000000,0.000000,18.483971,0,0,0,0,0,0,0
9,99999,70,90000,70,10000,40,9999,0.100000,0,0,0.000000,5,0.000000,0.000000,0.231974,0,0,0,0,0,0,0
9,99999,71,90000,65,0,40,9999,0.100000,0,0,0.000000,5,0.000000,0.000000,0.388031,0,0,0,0,0,0,0
9,99999,72,90000,70,10000,40,9999,0.100000,0,0,0.000000,5,0.000000,0.000000,0.146693,0,0,0,0,0,0,0
9,99999,73,90000,1,10000,49,9999,0.100000,0,0,0.000000,5,6.000000,0.000000,27.477331,0,0,0,0,0,0,0
9,99999,74,90000,5,0,40,9999,0.100000,0,0,0.000000,5,0.000000,0.000000,2.333891,0,0,0,0,0,0,0
9,99999,75,90000,5,0,40,9999,0.100000,0,0,0.000000,5,0.000000,0.000000,0.410632,0,0,0,0,0,0,0
9,99999,76,90000,1,10000,49,9999,0.100000,0,0,0.000000,5,1.000000,0.000000,10.023536,0,0,0,0,0,0,0
9,99999,77,90000,70,10000,40,9999,0.100000,0,0,0.000000,5,0.000000,0.000000,0.740792,0,0,0,0,0,0,0
9,99999,78,90000,1,10000,40,9999,0.100000,0,0,0.000000,5,0.000000,0.000000,0.386463,0,0,0,0,0,0,0
9,99999,79,90000,70,10000,40,9999,0.100000,0,0,0.000000,5,0.000000,0.000000,0.191696,0,0,0,0,0,0,0
9,99999,80,90000,25,20000,49,9999,0.100000,0,0,0.000000,5,1.000000,0.000000,1.139287,0,0,0,0,0,0,0
9,99999,81,90000,5,0,40,9999,0.100000,0,0,0.000000,5,0.000000,0.000000,0.127656,0,0,0,0,0,0,0
9,99999,82,90000,1,10000,40,9999,0.100000,0,0,0.000000,5,0.000000,0.000000,0.131110,0,0,0,0,0,0,0
9,99999,83,90000,5,0,40,9999,0.100000,0,0,0.000000,5,0.000000,0.000000,0.237288,0,0,0,0,0,0,0
9,99999,84,90000,70,10000,40,9999,0.100000,0,0,0.000000,5,0.000000,0.000000,0.316017,0,0,0,0,0,0,0
9,99999,85,90000,1,10000,0,9999,0.100000,0,0,0.000000,5,0.000000,0.000000,6.494249,0,0,0,0,0,55,0
9,99999,86,90000,1,10000,40,9999,0.100000,0,0,0.000000,5,0.000000,0.000000,0.191400,0,0,0,0,0,0,0
9,99999,87,90000,70,10000,40,9999,0.100000,0,0,0.000000,5,0.000000,0.000000,0.227818,0,0,0,0,0,0,0
9,99999,88,90000,65,0,49,9999,0.100000,0,0,0.000000,5,8.000000,0.000000,18.120482,0,0,0,0,0,0,0
9,99999,89,90000,5,0,40,9999,0.100000,0,0,0.000000,5,0.000000,0.000000,2.617759,0,0,0,0,0,0,0
9,99999,90,90000,5,0,40,9999,0.100000,0,0,0.000000,5,0.000000,0.000000,6.947243,0,0,0,0,0,0,0
9,99999,91,90000,1,10000,40,9999,0.100000,0,0,0.000000,5,0.000000,0.000000,0.572464,0,0,0,0,0,0,0
9,99999,92,90000,1,10000,40,9999,0.100000,0,0,0.000000,5,0.000000,0.000000,0.083672,0,0,0,0,0,0,0
9,99999,93,90000,25,20000,40,9999,0.100000,0,0,0.000000,5,0.000000,0.000000,20.602868,0,0,0,0,0,0,0
9,99999,94,90000,70,10000,0,9999,0.100000,0,0,0.000000,5,0.000000,0.000000,10.661463,0,0,0,0,0,43,0
9,99999,95,90000,70,10000,40,9999,0.100000,0,0,0.000000,5,0.000000,0.000000,0.244892,0,0,0,0,0,0,0
9,99999,96,90000,25,20000,40,9999,0.100000,0,0,0.000000,5,0.000000,0.000000,0.391465,0,0,0,0,0,0,0
9,99999,97,90000,70,10000,40,9999,0.100000,0,0,0.000000,5,0.000000,0.000000,0.665791,0,0,0,0,0,0,0
9,99999,98,90000,1,10000,40,9999,0.100000,0,0,0.000000,5,0.000000,0.000000,2.582344,0,0,0,0,0,0,0
9,99999,99,90000,1,10000,49,9999,0.100000,0,0,0.000000,5,2.000000,0.000000,15.872554,0,0,0,0,0,0,0
10,109999,0,100000,65,0,40,9999,0.100000,0,0,0.000000,5,0.000000,0.000000,0.266611,0,0,0,0,0,0,0
10,109999,1,100000,65,0,49,9999,0.100000,0,0,0.000000,5,1.000000,0.000000,1.813649,0,0,0,0,0,0,0
10,109999,2,100000,1,10000,9,9999,0.100000,0,0,34.210526,5,3.000000,0.000000,6.036735,0,0,0,1,0,0,0
10,109999,3,100000,1,10000,40,9999,0.100000,0,0,0.000000,5,0.000000,0.000000,3.418886,0,0,0,0,0,0,0
10,109999,4,100000,1,10000,40,9999,0.100000,0,0,0.000000,5,0.000000,0.000000,0.112795,0,0,0,0,0,0,0
10,109999,5,100000,25,20000,40,9999,0.100000,0,0,0.000000,5,0.000000,0.000000,0.449652,0,0,0,0,0,0,0
10,109999,6,100000,5,0,40,9999,0.100000,0,0,0.000000,5,0.000000,0.000000,7.606962,0,0,0,0,0,0,0
10,109999,7,100000,25,20000,40,9999,0.100000,0,0,0.000000,5,0.000000,0.000000,0.173414,0,0,0,0,0,0,0
10,109999,8,100000,5,0,40,9999,0.100000,0,0,0.000000,5,0.000000,0.000000,0.603275,0,0,0,0,0,0,0
10,109999,9,100000,5,0,49,9999,0.100000,0,0,0.000000,5,1.000000,0.000000,4.503961,0,0,0,0,0,0,0
10,109999,10,100000,70,10000,40,9999,0.100000,0,0,0.000000,5,0.000000,0.000000,2.038002,0,0,0,0,0,0,0
10,109999,11,100000,65,0,40,9999,0.100000,0,0,0.000000,5,0.000000,0.000000,0.129430,0,0,0,0,0,0,0
10,109999,12,100000,70,10000,40,9999,0.100000,0,0,0.000000,5,0.000000,0.000000,1.020495,0,0,0,0,0,0,0
10,109999,13,100000,25,20000,40,9999,0.100000,0,0,0.000000,5,0.000000,0.000000,0.461651,0,0,0,0,0,0,0
10,109999,14,100000,25,20000,40,9999,0.100000,0,0,0.000000,5,0.000000,0.000000,1.014065,0,0,0,0,0,0,0
10,109999,15,100000,5,0,40,9999,0.100000,0,0,0.000000,5,0.000000,0.000000,0.141877,0,0,0,0,0,0,0
10,109999,16,100000,70,10000,40,9999,0.100000,0,0,0.000000,5,0.000000,0.000000,0.162861,0,0,0,0,0,0,0
10,109999,17,100000,25,20000,40,9999,0.100000,0,0,0.000000,5,0.000000,0.000000,5.224022,0,0,0,0,0,0,0
10,109999,18,100000,5,0,40,9999,0.100000,0,0,0.000000,5,0.000000,0.000000,0.869057,0,0,0,0,0,0,0
10,109999,19,100000,5,0,40,9999,0.100000,0,0,0.000000,5,0.000000,0.000000,0.644370,0,0,0,0,0,0,0
10,109999,20,100000,5,0,49,9999,0.100000,0,0,0.000000,5,2.000000,0.000000,11.988512,0,0,0,0,0,0,0
10,109999,21,100000,5,0,40,9999,0.100000,0,0,0.000000,5,0.000000,0.000000,0.132683,0,0,0,0,0,0,0
10,109999,22,100000,1,10000,40,9999,0.100000,0,0,0.000000,5,0.000000,0.000000,0.131730,0,0,0,0,0,0,0
10,109999,23,100000,70,10000,9,9999,0.100000,0,0,34.210526,5,4.000000,0.000000,8.384236,0,0,0,1,0,0,0
10,109999,24,100000,65,0,40,9999,0.100000,0,0,0.000000,5,0.000000,0.000000,0.746428,0,0,0,0,0,0,0
10,109999,25,100000,25,20000,40,9999,0.100000,0,0,0.000000,5,0.000000,0.000000,2.198282,0,0,0,0,0,0,0
10,109999,26,100000,5,0,40,9999,0.100000,0,0,0.000000,5,0.000000,0.000000,0.181241,0,0,0,0,0,0,0
10,109999,27,100000,65,0,40,9999,0.100000,0,0,0.000000,5,0.000000,0.000000,0.172018,0,0,0,0,0,0,0
10,109999,28,100000,5,0,40,9999,0.100000,0,0,0.000000,5,0.000000,0.000000,3.116483,0,0,0,0,0,0,0
10,109999,29,100000,5,0,49,9999,0.100000,0,0,0.000000,5,1.000000,0.000000,5.279397,0,0,0,0,0,0,0
10,109999,30,100000,25,20000,40,9999,0.100000,0,0,0.000000,5,0.000000,0.000000,0.100915,0,0,0,0,0,0,0
10,109999,31,100000,65,0,49,9999,0.100000,0,0,0.000000,5,3.000000,0.000000,8.301045,0,0,0,0,0,0,0
10,109999,32,100000,25,20000,40,9999,0.100000,0,0,0.000000,5,0.000000,0.000000,0.652728,0,0,0,0,0,0,0
10,109999,33,100000,1,10000,40,9999,0.100000,0,0,0.000000,5,0.000000,0.000000,1.580037,0,0,0,0,0,0,0
10,109999,34,100000,65,0,40,9999,0.100000,0,0,0.000000,5,0.000000,0.000000,0.154282,0,0,0,0,0,0,0
10,109999,35,100000,1,10000,40,9999,0.100000,0,0,0.000000,5,0.000000,0.000000,0.763018,0,0,0,0,0,0,0
10,109999,36,100000,25,20000,40,9999,0.100000,0,0,0.000000,5,0.000000,0.000000,0.150902,0,0,0,0,0,0,0
10,109999,37,100000,5,0,40,9999,0.100000,0,0,0.000000,5,0.000000,0.000000,0.755303,0,0,0,0,0,0,0
10,109999,38,100000,70,10000,40,9999,0.100000,0,0,0.000000,5,0.000000,0.000000,1.819064,0,0,0,0,0,0,0
10,109999,39,100000,1,10000,40,9999,0.100000,0,0,0.000000,5,0.000000,0.000000,0.692785,0,0,0,0,0,0,0
10,109999,40,100000,1,10000,40,9999,0.100000,0,0,0.000000,5,0.000000,0.000000,0.524027,0,0,0,0,0,0,0
10,109999,41,100000,25,20000,40,9999,0.100000,0,0,0.000000,5,0.000000,0.000000,7.227227,0,0,0,0,0,0,0
10,109999,42,100000,1,10000,40,9999,0.100000,0,0,0.000000,5,0.000000,0.000000,0.627018,0,0,0,0,0,0,0
10,109999,43,100000,1,10000,40,9999,0.100000,0,0,0.000000,5,0.000000,0.000000,0.190302,0,0,0,0,0,0,0
10,109999,44,100000,70,10000,40,9999,0.100000,0,0,0.000000,5,0.000000,0.000000,0.647474,0,0,0,0,0,0,0
10,109999,45,100000,70,10000,40,9999,0.100000,0,0,0.000000,5,0.000000,0.000000,0.420378,0,0,0,0,0,0,0
10,109999,46,100000,70,10000,40,9999,0.100000,0,0,0.000000,5,0.000000,0.000000,0.215959,0,0,0,0,0,0,0
10,109999,47,100000,1,10000,40,9999,0.100000,0,0,0.000000,5,0.000000,0.000000,0.611776,0,0,0,0,0,0,0
10,109999,48,100000,5,0,40,9999,0.100000,0,0,0.000000,5,0.000000,0.000000,0.375702,0,0,0,0,0,0,0
10,109999,49,100000,1,10000,40,9999,0.100000,0,0,0.000000,5,0.000000,0.000000,0.622652,0,0,0,0,0,0,0
10,109999,50,100000,65,0,40,9999,0.100000,0,0,0.000000,5,0.000000,0.000000,0.123163,0,0,0,0,0,0,0
10,109999,51,100000,65,0,40,9999,0.100000,0,0,0.000000,5,0.000000,0.000000,1.746643,0,0,0,0,0,0,0
10,109999,52,100000,65,0,40,9999,0.100000,0,0,0.000000,5,0.000000,0.000000,0.085554,0,0,0,0,0,0,0
10,109999,53,100000,1,10000,40,9999,0.100000,0,0,0.000000,5,0.000000,0.000000,1.114326,0,0,0,0,0,0,0
10,109999,54,100000,1,10000,40,9999,0.100000,0,0,0.000000,5,0.000000,0.000000,0.223344,0,0,0,0,0,0,0
10,109999,55,100000,1,10000,40,9999,0.100000,0,0,0.000000,5,0.000000,0.000000,5.280131,0,0,0,0,0,0,0
10,109999,56,100000,70,10000,40,9999,0.100000,0,0,0.000000,5,0.000000,0.000000,0.368008,0,0,0,0,0,0,0
10,109999,57,100000,1,10000,40,9999,0.100000,0,0,0.000000,5,0.000000,0.000000,0.660609,0,0,0,0,0,0,0
10,109999,58,100000,25,20000,40,9999,0.100000,0,0,0.000000,5,0.000000,0.000000,0.079038,0,0,0,0,0,0,0
10,109999,59,100000,65,0,40,9999,0.100000,0,0,0.000000,5,0.000000,0.000000,0.905185,0,0,0,0,0,0,0
10,109999,60,100000,70,10000,40,9999,0.100000,0,0,0.000000,5,0.000000,0.000000,2.290874,0,0,0,0,0,0,0
10,109999,61,100000,65,0,40,9999,0.100000,0,0,0.000000,5,0.000000,0.000000,0.467581,0,0,0,0,0,0,0
10,109999,62,100000,65,0,40,9999,0.100000,0,0,0.000000,5,0.000000,0.000000,0.090232,0,0,0,0,0,0,0
10,109999,63,100000,5,0,40,9999,0.100000,0,0,0.000000,5,0.000000,0.000000,0.700789,0,0,0,0,0,0,0
10,109999,64,100000,70,10000,40,9999,0.100000,0,0,0.000000,5,0.000000,0.000000,1.266580,0,0,0,0,0,0,0
10,109999,65,100000,70,10000,40,9999,0.100000,0,0,0.000000,5,0.000000,0.000000,0.886215,0,0,0,0,0,0,0
10,109999,66,100000,70,10000,49,9999,0.100000,0,0,0.000000,5,1.000000,0.000000,6.168586,0,0,0,0,0,0,0
10,109999,67,100000,5,0,49,9999,0.100000,0,0,0.000000,5,1.000000,0.000000,8.720040,0,0,0,0,0,0,0
10,109999,68,100000,5,0,40,9999,0.100000,0,0,0.000000,5,0.000000,0.000000,0.086961,0,0,0,0,0,0,0
10,109999,69,100000,1,10000,40,9999,0.100000,0,0,0.000000,5,0.000000,0.000000,0.466074,0,0,0,0,0,0,0
10,109999,70,100000,65,0,40,9999,0.100000,0,0,0.000000,5,0.000000,0.000000,0.245965,0,0,0,0,0,0,0
10,109999,71,100000,25,20000,40,9999,0.100000,0,0,0.000000,5,0.000000,0.000000,0.543242,0,0,0,0,0,0,0
10,109999,72,100000,5,0,40,9999,0.100000,0,0,0.000000,5,0.000000,0.000000,0.223362,0,0,0,0,0,0,0
10,109999,73,100000,65,0,40,9999,0.100000,0,0,0.000000,5,0.000000,0.000000,0.606173,0,0,0,0,0,0,0
10,109999,74,100000,1,10000,40,9999,0.100000,0,0,0.000000,5,0.000000,0.000000,2.075497,0,0,0,0,0,0,0
10,109999,75,100000,1,10000,40,9999,0.100000,0,0,0.000000,5,0.000000,0.000000,5.068409,0,0,0,0,0,0,0
10,109999,76,100000,25,20000,49,9999,0.100000,0,0,0.000000,5,1.000000,0.000000,7.530128,0,0,0,0,0,0,0
10,109999,77,100000,5,0,40,9999,0.100000,0,0,0.000000,5,0.000000,0.000000,0.585005,0,0,0,0,0,0,0
10,109999,78,100000,65,0,40,9999,0.100000,0,0,0.000000,5,0.000000,0.000000,0.783839,0,0,0,0,0,0,0
10,109999,79,100000,5,0,40,9999,0.100000,0,0,0.000000,5,0.000000,0.000000,0.157592,0,0,0,0,0,0,0
10,109999,80,100000,25,20000,40,9999,0.100000,0,0,0.000000,5,0.000000,0.000000,2.400370,0,0,0,0,0,0,0
10,109999,81,100000,1,10000,40,9999,0.100000,0,0,0.000000,5,0.000000,0.000000,0.138219,0,0,0,0,0,0,0
10,109999,82,100000,70,10000,40,9999,0.100000,0,0,0.000000,5,0.000000,0.000000,0.129610,0,0,0,0,0,0,0
10,109999,83,100000,5,0,40,9999,0.100000,0,0,0.000000,5,0.000000,0.000000,0.219643,0,0,0,0,0,0,0
10,109999,84,100000,1,10000,40,9999,0.100000,0,0,0.000000,5,0.000000,0.000000,0.622463,0,0,0,0,0,0,0
10,109999,85,100000,5,0,49,9999,0.100000,0,0,0.000000,5,1.000000,0.000000,5.182059,0,0,0,0,0,0,0
10,109999,86,100000,65,0,40,9999,0.100000,0,0,0.000000,5,0.000000,0.000000,0.199621,0,0,0,0,0,0,0
10,109999,87,100000,1,10000,40,9999,0.100000,0,0,0.000000,5,0.000000,0.000000,0.331844,0,0,0,0,0,0,0
10,109999,88,100000,1,10000,40,9999,0.100000,0,0,0.000000,5,0.000000,0.000000,0.137426,0,0,0,0,0,0,0
10,109999,89,100000,65,0,40,9999,0.100000,0,0,0.000000,5,0.000000,0.000000,0.313045,0,0,0,0,0,0,0
10,109999,90,100000,70,10000,40,9999,0.100000,0,0,0.000000,5,0.000000,0.000000,5.787825,0,0,0,0,0,0,0
10,109999,91,100000,25,20000,40,9999,0.100000,0,0,0.000000,5,0.000000,0.000000,0.555469,0,0,0,0,0,0,0
10,109999,92,100000,5,0,40,9999,0.100000,0,0,0.000000,5,0.000000,0.000000,0.104479,0,0,0,0,0,0,0
10,109999,93,100000,25,20000,40,9999,0.100000,0,0,0.000000,5,0.000000,0.000000,0.800965,0,0,0,0,0,0,0
10,109999,94,100000,65,0,40,9999,0.100000,0,0,0.000000,5,0.000000,0.000000,2.281143,0,0,0,0,0,0,0
10,109999,95,100000,65,0,40,9999,0.100000,0,0,0.000000,5,0.000000,0.000000,0.232176,0,0,0,0,0,0,0
10,109999,96,100000,65,0,40,9999,0.100000,0,0,0.000000,5,0.000000,0.000000,0.299886,0,0,0,0,0,0,0
10,109999,97,100000,70,10000,40,9999,0.100000,0,0,0.000000,5,0.000000,0.000000,0.093140,0,0,0,0,0,0,0
10,109999,98,100000,5,0,40,9999,0.100000,0,0,0.000000,5,0.000000,0.000000,2.520651,0,0,0,0,0,0,0
10,109999,99,100000,70,10000,40,9999,0.100000,0,0,0.000000,5,0.000000,0.000000,3.143276,0,0,0,0,0,0,0
11,119999,0,110000,65,0,40,9999,0.100000,0,0,0.000000,5,0.000000,0.000000,0.198679,0,0,0,0,0,0,0
11,119999,1,110000,25,20000,49,9999,0.100000,0,0,0.000000,5,2.000000,0.000000,2.891555,0,0,0,0,0,0,0
11,119999,2,110000,70,10000,40,9999,0.100000,0,0,0.000000,5,0.000000,0.000000,7.223014,0,0,0,0,0,0,0
11,119999,3,110000,1,10000,40,9999,0.100000,0,0,0.000000,5,0.000000,0.000000,3.420673,0,0,0,0,0,0,0
11,119999,4,110000,5,0,40,9999,0.100000,0,0,0.000000,5,0.000000,0.000000,0.172030,0,0,0,0,0,0,0
11,119999,5,110000,70,10000,40,9999,0.100000,0,0,0.000000,5,0.000000,0.000000,0.703022,0,0,0,0,0,0,0
11,119999,6,110000,1,10000,49,9999,0.100000,0,0,0.000000,5,1.000000,0.000000,3.848133,0,0,0,0,0,0,0
11,119999,7,110000,25,20000,40,9999,0.100000,0,0,0.000000,5,0.000000,0.000000,0.083859,0,0,0,0,0,0,0
11,119999,8,110000,1,10000,40,9999,0.100000,0,0,0.000000,5,0.000000,0.000000,0.451609,0,0,0,0,0,0,0
11,119999,9,110000,5,0,49,9999,0.100000,0,0,0.000000,5,3.000000,0.000000,5.921233,0,0,0,0,0,0,0
11,119999,10,110000,65,0,49,9999,0.100000,0,0,0.000000,5,2.000000,0.000000,3.752971,0,0,0,0,0,0,0
11,119999,11,110000,65,0,40,9999,0.100000,0,0,0.000000,5,0.000000,0.000000,0.241598,0,0,0,0,0,0,0
11,119999,12,110000,25,20000,49,9999,0.100000,0,0,0.000000,5,2.000000,0.000000,3.736804,0,0,0,0,0,0,0
11,119999,13,110000,1,10000,40,9999,0.100000,0,0,0.000000,5,0.000000,0.000000,0.380863,0,0,0,0,0,0,0
11,119999,14,110000,70,10000,40,9999,0.100000,0,0,0.000000,5,0.000000,0.000000,1.453607,0,0,0,0,0,0,0
11,119999,15,110000,5,0,40,9999,0.100000,0,0,0.000000,5,0.000000,0.000000,0.115302,0,0,0,0,0,0,0
11,119999,16,110000,5,0,40,9999,0.100000,0,0,0.000000,5,0.000000,0.000000,0.071946,0,0,0,0,0,0,0
11,119999,17,110000,65,0,49,9999,0.100000,0,0,0.000000,5,1.000000,0.000000,7.723985,0,0,0,0,0,0,0
11,119999,18,110000,70,10000,40,9999,0.100000,0,0,0.000000,5,0.000000,0.000000,0.486636,0,0,0,0,0,0,0
11,119999,19,110000,1,10000,40,9999,0.100000,0,0,0.000000,5,0.000000,0.000000,0.204456,0,0,0,0,0,0,0
11,119999,20,110000,70,10000,49,9999,0.100000,0,0,0.000000,5,5.000000,0.000000,12.902944,0,0,0,0,0,0,0
11,119999,21,110000,5,0,40,9999,0.100000,0,0,0.000000,5,0.000000,0.000000,0.094077,0,0,0,0,0,0,0
11,119999,22,110000,65,0,40,9999,0.100000,0,0,0.000000,5,0.000000,0.000000,0.131683,0,0,0,0,0,0,0
11,119999,23,110000,25,20000,40,9999,0.100000,0,0,0.000000,5,0.000000,0.000000,6.359763,0,0,0,0,0,0,0
11,119999,24,110000,25,20000,49,9999,0.100000,0,0,0.000000,5,1.000000,0.000000,3.009448,0,0,0,0,0,0,0
11,119999,25,110000,25,20000,49,9999,0.100000,0,0,0.000000,5,2.000000,0.000000,7.241026,0,0,0,0,0,0,0
11,119999,26,110000,70,10000,40,9999,0.100000,0,0,0.000000,5,0.000000,0.000000,0.099790,0,0,0,0,0,0,0
11,119999,27,110000,25,20000,40,9999,0.100000,0,0,0.000000,5,0.000000,0.000000,0.176824,0,0,0,0,0,0,0
11,119999,28,110000,70,10000,40,9999,0.100000,0,0,0.000000,5,0.000000,0.000000,1.241283,0,0,0,0,0,0,0
11,119999,29,110000,1,10000,40,9999,0.100000,0,0,0.000000,5,0.000000,0.000000,3.882999,0,0,0,0,0,0,0
11,119999,30,110000,65,0,40,9999,0.100000,0,0,0.000000,5,0.000000,0.000000,0.101146,0,0,0,0,0,0,0
11,119999,31,110000,1,10000,49,9999,0.100000,0,0,0.000000,5,1.000000,0.000000,13.269584,0,0,0,0,0,0,0
11,119999,32,110000,5,0,40,9999,0.100000,0,0,0.000000,5,0.000000,0.000000,0.643801,0,0,0,0,0,0,0
11,119999,33,110000,25,20000,40,9999,0.100000,0,0,0.000000,5,0.000000,0.000000,0.452863,0,0,0,0,0,0,0
11,119999,34,110000,70,10000,40,9999,0.100000,0,0,0.000000,5,0.000000,0.000000,0.150170,0,0,0,0,0,0,0
11,119999,35,110000,25,20000,40,9999,0.100000,0,0,0.000000,5,0.000000,0.000000,0.959463,0,0,0,0,0,0,0
11,119999,36,110000,65,0,40,9999,0.100000,0,0,0.000000,5,0.000000,0.000000,0.148479,0,0,0,0,0,0,0
11,119999,37,110000,25,20000,40,9999,0.100000,0,0,0.000000,5,0.000000,0.000000,0.791392,0,0,0,0,0,0,0
11,119999,38,110000,1,10000,40,9999,0.100000,0,0,0.000000,5,0.000000,0.000000,0.803531,0,0,0,0,0,0,0
11,119999,39,110000,1,10000,49,9999,0.100000,0,0,0.000000,5,1.000000,0.000000,1.628575,0,0,0,0,0,0,0
11,119999,40,110000,1,10000,40,9999,0.100000,0,0,0.000000,5,0.000000,0.000000,0.492316,0,0,0,0,0,0,0
11,119999,41,110000,25,20000,40,9999,0.100000,0,0,0.000000,5,0.000000,0.000000,0.744350,0,0,0,0,0,0,0
11,119999,42,110000,70,10000,49,9999,0.100000,0,0,0.000000,5,1.000000,0.000000,1.488018,0,0,0,0,0,0,0
11,119999,43,110000,25,20000,40,9999,0.100000,0,0,0.000000,5,0.000000,0.000000,0.114543,0,0,0,0,0,0,0
11,119999,44,110000,5,0,49,9999,0.100000,0,0,0.000000,5,1.000000,0.000000,1.187562,0,0,0,0,0,0,0
11,119999,45,110000,70,10000,40,9999,0.100000,0,0,0.000000,5,0.000000,0.000000,0.391898,0,0,0,0,0,0,0
11,119999,46,110000,65,0,40,9999,0.100000,0,0,0.000000,5,0.000000,0.000000,0.143936,0,0,0,0,0,0,0
11,119999,47,110000,25,20000,40,9999,0.100000,0,0,0.000000,5,0.000000,0.000000,0.692909,0,0,0,0,0,0,0
11,119999,48,110000,25,20000,40,9999,0.100000,0,0,0.000000,5,0.000000,0.000000,0.396759,0,0,0,0,0,0,0
11,119999,49,110000,65,0,40,9999,0.100000,0,0,0.000000,5,0.000000,0.000000,0.812450,0,0,0,0,0,0,0
11,119999,50,110000,25,20000,40,9999,0.100000,0,0,0.000000,5,0.000000,0.000000,0.288514,0,0,0,0,0,0,0
11,119999,51,110000,70,10000,49,9999,0.100000,0,0,0.000000,5,5.000000,0.000000,12.552935,0,0,0,0,0,0,0
11,119999,52,110000,5,0,40,9999,0.100000,0,0,0.000000,5,0.000000,0.000000,0.101041,0,0,0,0,0,0,0
11,119999,53,110000,1,10000,40,9999,0.100000,0,0,0.000000,5,0.000000,0.000000,0.896610,0,0,0,0,0,0,0
11,119999,54,110000,5,0,40,9999,0.100000,0,0,0.000000,5,0.000000,0.000000,0.224141,0,0,0,0,0,0,0
11,119999,55,110000,70,10000,49,9999,0.100000,0,0,0.000000,5,4.000000,0.000000,14.452761,0,0,0,0,0,0,0
11,119999,56,110000,65,0,40,9999,0.100000,0,0,0.000000,5,0.000000,0.000000,1.149613,0,0,0,0,0,0,0
11,119999,57,110000,5,0,40,9999,0.100000,0,0,0.000000,5,0.000000,0.000000,0.664592,0,0,0,0,0,0,0
11,119999,58,110000,65,0,40,9999,0.100000,0,0,0.000000,5,0.000000,0.000000,0.078087,0,0,0,0,0,0,0
11,119999,59,110000,5,0,49,9999,0.100000,0,0,0.000000,5,11.000000,0.000000,26.656781,0,0,0,0,0,0,0
11,119999,60,110000,1,10000,49,9999,0.100000,0,0,0.000000,5,1.000000,0.000000,1.369452,0,0,0,0,0,0,0
11,119999,61,110000,25,20000,40,9999,0.100000,0,0,0.000000,5,0.000000,0.000000,0.570318,0,0,0,0,0,0,0
11,119999,62,100000,65,0,40,19999,0.100000,0,0,0.000000,5,0.000000,0.000000,0.090936,0,0,0,0,0,0,0
11,119999,63,110000,5,0,40,9999,0.100000,0,0,0.000000,5,0.000000,0.000000,0.589896,0,0,0,0,0,0,0
11,119999,64,110000,5,0,40,9999,0.100000,0,0,0.000000,5,0.000000,0.000000,2.435237,0,0,0,0,0,0,0
11,119999,65,110000,25,20000,40,9999,0.100000,0,0,0.000000,5,0.000000,0.000000,0.259994,0,0,0,0,0,0,0
11,119999,66,110000,65,0,40,9999,0.100000,0,0,0.000000,5,0.000000,0.000000,2.871372,0,0,0,0,0,0,0
11,119999,67,110000,5,0,40,9999,0.100000,0,0,0.000000,5,0.000000,0.000000,0.590024,0,0,0,0,0,0,0
11,119999,68,110000,25,20000,40,9999,0.100000,0,0,0.000000,5,0.000000,0.000000,0.079627,0,0,0,0,0,0,0
11,119999,69,110000,65,0,40,9999,0.100000,0,0,0.000000,5,0.000000,0.000000,0.430339,0,0,0,0,0,0,0
11,119999,70,110000,70,10000,40,9999,0.100000,0,0,0.000000,5,0.000000,0.000000,0.245995,0,0,0,0,0,0,0
11,119999,71,110000,25,20000,40,9999,0.100000,0,0,0.000000,5,0.000000,0.000000,0.459642,0,0,0,0,0,0,0
11,119999,72,110000,5,0,40,9999,0.100000,0,0,0.000000,5,0.000000,0.000000,0.228893,0,0,0,0,0,0,0
11,119999,73,110000,25,20000,40,9999,0.100000,0,0,0.000000,5,0.000000,0.000000,0.730865,0,0,0,0,0,0,0
11,119999,74,110000,5,0,40,9999,0.100000,0,0,0.000000,5,0.000000,0.000000,1.759025,0,0,0,0,0,0,0
11,119999,75,110000,65,0,49,9999,0.100000,0,0,0.000000,5,4.000000,0.000000,13.296361,0,0,0,0,0,0,0
11,119999,76,110000,1,10000,40,9999,0.100000,0,0,0.000000,5,0.000000,0.000000,1.261917,0,0,0,0,0,0,0
11,119999,77,110000,5,0,40,9999,0.100000,0,0,0.000000,5,0.000000,0.000000,3.365068,0,0,0,0,0,0,0
11,119999,78,110000,65,0,49,9999,0.100000,0,0,0.000000,5,1.000000,0.000000,2.207209,0,0,0,0,0,0,0
11,119999,79,110000,25,20000,40,9999,0.100000,0,0,0.000000,5,0.000000,0.000000,0.132440,0,0,0,0,0,0,0
11,119999,80,110000,5,0,40,9999,0.100000,0,0,0.000000,5,0.000000,0.000000,0.140280,0,0,0,0,0,0,0
11,119999,81,110000,25,20000,40,9999,0.100000,0,0,0.000000,5,0.000000,0.000000,0.105812,0,0,0,0,0,0,0
11,119999,82,110000,25,20000,40,9999,0.100000,0,0,0.000000,5,0.000000,0.000000,0.197855,0,0,0,0,0,0,0
11,119999,83,110000,65,0,40,9999,0.100000,0,0,0.000000,5,0.000000,0.000000,0.248335,0,0,0,0,0,0,0
11,119999,84,110000,25,20000,40,9999,0.100000,0,0,0.000000,5,0.000000,0.000000,0.460984,0,0,0,0,0,0,0
11,119999,85,100000,5,0,40,19999,0.100000,0,0,0.000000,5,0.000000,0.000000,0.665925,0,0,0,0,0,0,0
11,119999,86,110000,5,0,40,9999,0.100000,0,0,0.000000,5,0.000000,0.000000,0.200304,0,0,0,0,0,0,0
11,119999,87,110000,65,0,40,9999,0.100000,0,0,0.000000,5,0.000000,0.000000,0.296383,0,0,0,0,0,0,0
11,119999,88,100000,1,10000,40,19999,0.100000,0,0,0.000000,5,0.000000,0.000000,0.428544,0,0,0,0,0,0,0
11,119999,89,110000,5,0,49,9999,0.100000,0,0,0.000000,5,2.000000,0.000000,8.035239,0,0,0,0,0,0,0
11,119999,90,110000,70,10000,49,9999,0.100000,0,0,0.000000,5,4.000000,0.000000,11.526477,0,0,0,0,0,0,0
11,119999,91,110000,5,0,40,9999,0.100000,0,0,0.000000,5,0.000000,0.000000,0.573682,0,0,0,0,0,0,0
11,119999,92,110000,70,10000,40,9999,0.100000,0,0,0.000000,5,0.000000,0.000000,0.094218,0,0,0,0,0,0,0
11,119999,93,110000,65,0,49,9999,0.100000,0,0,0.000000,5,1.000000,0.000000,3.306901,0,0,0,0,0,0,0
11,119999,94,110000,5,0,40,9999,0.100000,0,0,0.000000,5,0.000000,0.000000,0.085460,0,0,0,0,0,0,0
11,119999,95,110000,1,10000,40,9999,0.100000,0,0,0.000000,5,0.000000,0.000000,0.240575,0,0,0,0,0,0,0
11,119999,96,110000,65,0,40,9999,0.100000,0,0,0.000000,5,0.000000,0.000000,0.549207,0,0,0,0,0,0,0
11,119999,97,110000,25,20000,40,9999,0.100000,0,0,0.000000,5,0.000000,0.000000,0.230592,0,0,0,0,0,0,0
11,119999,98,110000,65,0,40,9999,0.100000,0,0,0.000000,5,0.000000,0.000000,2.458567,0,0,0,0,0,0,0
11,119999,99,110000,65,0,40,9999,0.100000,0,0,0.000000,5,0.000000,0.000000,0.197529,0,0,0,0,0,0,0
12,129999,0,120000,25,20000,40,9999,0.100000,0,0,0.000000,5,0.000000,0.000000,0.169164,0,0,0,0,0,0,0
12,129999,1,120000,5,0,49,9999,0.100000,0,0,0.000000,5,1.000000,0.000000,4.420873,0,0,0,0,0,0,0
12,129999,2,120000,5,0,40,9999,0.100000,0,0,0.000000,5,0.000000,0.000000,6.102740,0,0,0,0,0,0,0
12,129999,3,120000,65,0,40,9999,0.100000,0,0,0.000000,5,0.000000,0.000000,3.556255,0,0,0,0,0,0,0
12,129999,4,120000,65,0,40,9999,0.100000,0,0,0.000000,5,0.000000,0.000000,0.144132,0,0,0,0,0,0,0
12,129999,5,120000,25,20000,40,9999,0.100000,0,0,0.000000,5,0.000000,0.000000,0.500419,0,0,0,0,0,0,0
12,129999,6,120000,5,0,40,9999,0.100000,0,0,0.000000,5,0.000000,0.000000,0.075699,0,0,0,0,0,0,0
12,129999,7,120000,1,10000,40,9999,0.100000,0,0,0.000000,5,0.000000,0.000000,0.063288,0,0,0,0,0,0,0
12,129999,8,120000,5,0,40,9999,0.100000,0,0,0.000000,5,0.000000,0.000000,0.354580,0,0,0,0,0,0,0
12,129999,9,120000,25,20000,49,9999,0.100000,0,0,0.000000,5,1.000000,0.000000,1.372319,0,0,0,0,0,0,0
12,129999,10,120000,1,10000,49,9999,0.100000,0,0,0.000000,5,2.000000,0.000000,4.692405,0,0,0,0,0,0,0
12,129999,11,120000,25,20000,40,9999,0.100000,0,0,0.000000,5,0.000000,0.000000,0.570694,0,0,0,0,0,0,0
12,129999,12,120000,70,10000,49,9999,0.100000,0,0,0.000000,5,1.000000,0.000000,4.865688,0,0,0,0,0,0,0
12,129999,13,120000,1,10000,40,9999,0.100000,0,0,0.000000,5,0.000000,0.000000,0.305418,0,0,0,0,0,0,0
12,129999,14,120000,65,0,40,9999,0.100000,0,0,0.000000,5,0.000000,0.000000,1.858603,0,0,0,0,0,0,0
12,129999,15,120000,5,0,40,9999,0.100000,0,0,0.000000,5,0.000000,0.000000,0.079930,0,0,0,0,0,0,0
12,129999,16,120000,70,10000,40,9999,0.100000,0,0,0.000000,5,0.000000,0.000000,0.060501,0,0,0,0,0,0,0
12,129999,17,120000,65,0,40,9999,0.100000,0,0,0.000000,5,0.000000,0.000000,0.179052,0,0,0,0,0,0,0
12,129999,18,120000,25,20000,40,9999,0.100000,0,0,0.000000,5,0.000000,0.000000,0.412792,0,0,0,0,0,0,0
12,129999,19,120000,70,10000,40,9999,0.100000,0,0,0.000000,5,0.000000,0.000000,0.062761,0,0,0,0,0,0,0
12,129999,20,120000,5,0,40,9999,0.100000,0,0,0.000000,5,0.000000,0.000000,0.928504,0,0,0,0,0,0,0
12,129999,21,120000,25,20000,40,9999,0.100000,0,0,0.000000,5,0.000000,0.000000,0.096166,0,0,0,0,0,0,0
12,129999,22,120000,70,10000,40,9999,0.100000,0,0,0.000000,5,0.000000,0.000000,0.131649,0,0,0,0,0,0,0
12,129999,23,120000,65,0,49,9999,0.100000,0,0,0.000000,5,1.000000,0.000000,9.506829,0,0,0,0,0,0,0
12,129999,24,120000,70,10000,40,9999,0.100000,0,0,0.000000,5,0.000000,0.000000,0.192883,0,0,0,0,0,0,0
12,129999,25,120000,65,0,49,9999,0.100000,0,0,0.000000,5,1.000000,0.000000,3.957673,0,0,0,0,0,0,0
12,129999,26,120000,70,10000,49,9999,0.100000,0,0,0.000000,5,5.000000,0.000000,10.619922,0,0,0,0,0,0,0
12,129999,27,120000,70,10000,40,9999,0.100000,0,0,0.000000,5,0.000000,0.000000,0.193279,0,0,0,0,0,0,0
12,129999,28,120000,70,10000,40,9999,0.100000,0,0,0.000000,5,0.000000,0.000000,0.168233,0,0,0,0,0,0,0
12,129999,29,120000,1,10000,40,9999,0.100000,0,0,0.000000,5,0.000000,0.000000,4.001661,0,0,0,0,0,0,0
12,129999,30,120000,25,20000,40,9999,0.100000,0,0,0.000000,5,0.000000,0.000000,0.100471,0,0,0,0,0,0,0
12,129999,31,120000,25,20000,49,9999,0.100000,0,0,0.000000,5,1.000000,0.000000,13.913271,0,0,0,0,0,0,0
12,129999,32,120000,65,0,40,9999,0.100000,0,0,0.000000,5,0.000000,0.000000,0.891793,0,0,0,0,0,0,0
12,129999,33,120000,65,0,40,9999,0.100000,0,0,0.000000,5,0.000000,0.000000,0.435986,0,0,0,0,0,0,0
12,129999,34,120000,25,20000,40,9999,0.100000,0,0,0.000000,5,0.000000,0.000000,0.153208,0,0,0,0,0,0,0
12,129999,35,120000,70,10000,40,9999,0.100000,0,0,0.000000,5,0.000000,0.000000,0.635971,0,0,0,0,0,0,0
12,129999,36,120000,65,0,40,9999,0.100000,0,0,0.000000,5,0.000000,0.000000,0.106116,0,0,0,0,0,0,0
12,129999,37,120000,25,20000,40,9999,0.100000,0,0,0.000000,5,0.000000,0.000000,1.035357,0,0,0,0,0,0,0
12,129999,38,120000,25,20000,40,9999,0.100000,0,0,0.000000,5,0.000000,0.000000,0.596503,0,0,0,0,0,0,0
