generation,iteration,robot,birthday,ancestor_id,ancestor_birthday,cell_id,age,sigma,maps,genomes,fitness,cells_in_map,dist_max,dist_pot_max,dist_total,com_rx,com_tx,obj_group1,obj_group2,obj_group3,obj_group4,obj_group5
0,9999,0,0,0,0,49,9999,0.100000,0,0,0.000000,0,6.000000,0.000000,15.428617,0,0,0,0,0,0,0
0,9999,1,0,1,0,49,9999,0.100000,0,0,0.000000,0,6.000000,0.000000,24.298705,0,0,0,0,0,0,0
0,9999,2,0,2,0,49,9999,0.100000,0,0,0.000000,0,12.000000,0.000000,16.752611,0,0,0,0,0,0,0
0,9999,3,0,3,0,49,9999,0.100000,0,0,0.000000,0,7.000000,0.000000,18.974972,0,0,0,0,0,0,0
0,9999,4,0,4,0,49,9999,0.100000,0,0,0.000000,0,8.000000,0.000000,10.039451,0,0,0,0,0,0,0
0,9999,5,0,5,0,49,9999,0.100000,0,0,0.000000,0,9.000000,0.000000,9.756625,0,0,0,0,0,0,0
0,9999,6,0,6,0,49,9999,0.100000,0,0,0.000000,0,6.000000,0.000000,11.214483,0,0,0,0,0,0,0
0,9999,7,0,7,0,49,9999,0.100000,0,0,0.000000,0,10.000000,0.000000,17.223314,0,0,0,0,0,0,0
0,9999,8,0,8,0,49,9999,0.100000,0,0,0.000000,0,9.000000,0.000000,18.742339,0,0,0,0,0,0,0
0,9999,9,0,9,0,49,9999,0.100000,0,0,0.000000,0,10.000000,0.000000,13.038899,0,0,0,0,0,0,0
0,9999,10,0,10,0,49,9999,0.100000,0,0,0.000000,0,3.000000,0.000000,18.561727,0,0,0,0,0,0,0
0,9999,11,0,11,0,49,9999,0.100000,0,0,0.000000,0,13.000000,0.000000,21.915908,0,0,0,0,0,0,0
0,9999,12,0,12,0,49,9999,0.100000,0,0,0.000000,0,9.000000,0.000000,14.743009,0,0,0,0,0,0,0
0,9999,13,0,13,0,49,9999,0.100000,0,0,0.000000,0,2.000000,0.000000,14.472860,0,0,0,0,0,0,0
0,9999,14,0,14,0,49,9999,0.100000,0,0,0.000000,0,8.000000,0.000000,13.042432,0,0,0,0,0,0,0
0,9999,15,0,15,0,49,9999,0.100000,0,0,0.000000,0,1.000000,0.000000,3.553960,0,0,0,0,0,0,0
0,9999,16,0,16,0,49,9999,0.100000,0,0,0.000000,0,7.000000,0.000000,20.005360,0,0,0,0,0,0,0
0,9999,17,0,17,0,49,9999,0.100000,0,0,0.000000,0,8.000000,0.000000,10.514446,0,0,0,0,0,0,0
0,9999,18,0,18,0,49,9999,0.100000,0,0,0.000000,0,7.000000,0.000000,15.628156,0,0,0,0,0,0,0
0,9999,19,0,19,0,49,9999,0.100000,0,0,0.000000,0,1.000000,0.000000,2.253103,0,0,0,0,0,0,0
0,9999,20,0,20,0,49,9999,0.100000,0,0,0.000000,0,9.000000,0.000000,15.869255,0,0,0,0,0,0,0
0,9999,21,0,21,0,49,9999,0.100000,0,0,0.000000,0,10.000000,0.000000,11.802374,0,0,0,0,0,0,0
0,9999,22,0,22,0,49,9999,0.100000,0,0,0.000000,0,8.000000,0.000000,17.145477,0,0,0,0,0,0,0
0,9999,23,0,23,0,49,9999,0.100000,0,0,0.000000,0,7.000000,0.000000,8.078695,0,0,0,0,0,0,0
0,9999,24,0,24,0,49,9999,0.100000,0,0,0.000000,0,11.000000,0.000000,14.188418,0,0,0,0,0,0,0
0,9999,25,0,25,0,49,9999,0.100000,0,0,0.000000,0,6.000000,0.000000,9.735001,0,0,0,0,0,0,0
0,9999,26,0,26,0,49,9999,0.100000,0,0,0.000000,0,11.000000,0.000000,14.545531,0,0,0,0,0,0,0
0,9999,27,0,27,0,49,9999,0.100000,0,0,0.000000,0,8.000000,0.000000,20.279141,0,0,0,0,0,0,0
0,9999,28,0,28,0,49,9999,0.100000,0,0,0.000000,0,12.000000,0.000000,18.724512,0,0,0,0,0,0,0
0,9999,29,0,29,0,49,9999,0.100000,0,0,0.000000,0,11.000000,0.000000,20.882448,0,0,0,0,0,0,0
0,9999,30,0,30,0,49,9999,0.100000,0,0,0.000000,0,4.000000,0.000000,9.329427,0,0,0,0,0,0,0
0,9999,31,0,31,0,49,9999,0.100000,0,0,0.000000,0,6.000000,0.000000,9.286827,0,0,0,0,0,0,0
0,9999,32,0,32,0,49,9999,0.100000,0,0,0.000000,0,8.000000,0.000000,15.486336,0,0,0,0,0,0,0
0,9999,33,0,33,0,49,9999,0.100000,0,0,0.000000,0,2.000000,0.000000,3.695509,0,0,0,0,0,0,0
0,9999,34,0,34,0,49,9999,0.100000,0,0,0.000000,0,11.000000,0.000000,15.048494,0,0,0,0,0,0,0
0,9999,35,0,35,0,49,9999,0.100000,0,0,0.000000,0,9.000000,0.000000,13.189635,0,0,0,0,0,0,0
0,9999,36,0,36,0,49,9999,0.100000,0,0,0.000000,0,5.000000,0.000000,10.025122,0,0,0,0,0,0,0
0,9999,37,0,37,0,49,9999,0.100000,0,0,0.000000,0,9.000000,0.000000,10.357667,0,0,0,0,0,0,0
0,9999,38,0,38,0,49,9999,0.100000,0,0,0.000000,0,6.000000,0.000000,7.515458,0,0,0,0,0,0,0
0,9999,39,0,39,0,49,9999,0.100000,0,0,0.000000,0,10.000000,0.000000,18.447151,0,0,0,0,0,0,0
0,9999,40,0,40,0,49,9999,0.100000,0,0,0.000000,0,10.000000,0.000000,15.892790,0,0,0,0,0,0,0
0,9999,41,0,41,0,49,9999,0.100000,0,0,0.000000,0,9.000000,0.000000,23.710189,0,0,0,0,0,0,0
0,9999,42,0,42,0,49,9999,0.100000,0,0,0.000000,0,10.000000,0.000000,24.144787,0,0,0,0,0,0,0
0,9999,43,0,43,0,49,9999,0.100000,0,0,0.000000,0,8.000000,0.000000,9.417129,0,0,0,0,0,0,0
0,9999,44,0,44,0,9,9999,0.100000,0,0,0.000000,0,9.000000,0.000000,12.673147,0,0,0,0,0,0,2
0,9999,45,0,45,0,49,9999,0.100000,0,0,0.000000,0,2.000000,0.000000,18.925250,0,0,0,0,0,0,0
0,9999,46,0,46,0,49,9999,0.100000,0,0,0.000000,0,6.000000,0.000000,17.179098,0,0,0,0,0,0,0
0,9999,47,0,47,0,49,9999,0.100000,0,0,0.000000,0,6.000000,0.000000,29.291748,0,0,0,0,0,0,0
0,9999,48,0,48,0,49,9999,0.100000,0,0,0.000000,0,8.000000,0.000000,9.530639,0,0,0,0,0,0,0
0,9999,49,0,49,0,49,9999,0.100000,0,0,0.000000,0,6.000000,0.000000,7.251560,0,0,0,0,0,0,0
0,9999,50,0,50,0,49,9999,0.100000,0,0,0.000000,0,12.000000,0.000000,21.092658,0,0,0,0,0,0,0
0,9999,51,0,51,0,49,9999,0.100000,0,0,0.000000,0,5.000000,0.000000,14.522318,0,0,0,0,0,0,0
0,9999,52,0,52,0,49,9999,0.100000,0,0,0.000000,0,7.000000,0.000000,9.956934,0,0,0,0,0,0,0
0,9999,53,0,53,0,49,9999,0.100000,0,0,0.000000,0,9.000000,0.000000,10.463364,0,0,0,0,0,0,0
0,9999,54,0,54,0,49,9999,0.100000,0,0,0.000000,0,5.000000,0.000000,9.675729,0,0,0,0,0,0,0
0,9999,55,0,55,0,49,9999,0.100000,0,0,0.000000,0,8.000000,0.000000,24.123668,0,0,0,0,0,0,0
0,9999,56,0,56,0,49,9999,0.100000,0,0,0.000000,0,11.000000,0.000000,15.303004,0,0,0,0,0,0,0
0,9999,57,0,57,0,49,9999,0.100000,0,0,0.000000,0,9.000000,0.000000,14.573017,0,0,0,0,0,0,0
0,9999,58,0,58,0,49,9999,0.100000,0,0,0.000000,0,4.000000,0.000000,11.253491,0,0,0,0,0,0,0
0,9999,59,0,59,0,49,9999,0.100000,0,0,0.000000,0,11.000000,0.000000,17.542618,0,0,0,0,0,0,0
0,9999,60,0,60,0,49,9999,0.100000,0,0,0.000000,0,9.000000,0.000000,10.969268,0,0,0,0,0,0,0
0,9999,61,0,61,0,49,9999,0.100000,0,0,0.000000,0,3.000000,0.000000,17.667332,0,0,0,0,0,0,0
0,9999,62,0,62,0,49,9999,0.100000,0,0,0.000000,0,11.000000,0.000000,12.724979,0,0,0,0,0,0,0
0,9999,63,0,63,0,49,9999,0.100000,0,0,0.000000,0,7.000000,0.000000,11.100404,0,0,0,0,0,0,0
0,9999,64,0,64,0,49,9999,0.100000,0,0,0.000000,0,10.000000,0.000000,16.162432,0,0,0,0,0,0,0
0,9999,65,0,65,0,49,9999,0.100000,0,0,0.000000,0,7.000000,0.000000,8.641861,0,0,0,0,0,0,0
0,9999,66,0,66,0,49,9999,0.100000,0,0,0.000000,0,4.000000,0.000000,16.088941,0,0,0,0,0,0,0
0,9999,67,0,67,0,49,9999,0.100000,0,0,0.000000,0,5.000000,0.000000,8.597807,0,0,0,0,0,0,0
0,9999,68,0,68,0,49,9999,0.100000,0,0,0.000000,0,10.000000,0.000000,13.784829,0,0,0,0,0,0,0
0,9999,69,0,69,0,49,9999,0.100000,0,0,0.000000,0,9.000000,0.000000,17.768992,0,0,0,0,0,0,0
0,9999,70,0,70,0,49,9999,0.100000,0,0,0.000000,0,5.000000,0.000000,22.053773,0,0,0,0,0,0,0
0,9999,71,0,71,0,49,9999,0.100000,0,0,0.000000,0,8.000000,0.000000,15.847749,0,0,0,0,0,0,0
0,9999,72,0,72,0,49,9999,0.100000,0,0,0.000000,0,4.000000,0.000000,15.589168,0,0,0,0,0,0,0
0,9999,73,0,73,0,49,9999,0.100000,0,0,0.000000,0,7.000000,0.000000,8.736062,0,0,0,0,0,0,0
0,9999,74,0,74,0,49,9999,0.100000,0,0,0.000000,0,8.000000,0.000000,12.264734,0,0,0,0,0,0,0
0,9999,75,0,75,0,49,9999,0.100000,0,0,0.000000,0,9.000000,0.000000,18.947559,0,0,0,0,0,0,0
0,9999,76,0,76,0,49,9999,0.100000,0,0,0.000000,0,8.000000,0.000000,13.347070,0,0,0,0,0,0,0
0,9999,77,0,77,0,49,9999,0.100000,0,0,0.000000,0,9.000000,0.000000,17.887570,0,0,0,0,0,0,0
0,9999,78,0,78,0,49,9999,0.100000,0,0,0.000000,0,11.000000,0.000000,15.285185,0,0,0,0,0,0,0
0,9999,79,0,79,0,49,9999,0.100000,0,0,0.000000,0,9.000000,0.000000,23.829278,0,0,0,0,0,0,0
0,9999,80,0,80,0,99,9999,0.100000,0,0,47.368421,0,11.000000,0.000000,23.223032,0,0,1,0,0,0,0
0,9999,81,0,81,0,49,9999,0.100000,0,0,0.000000,0,8.000000,0.000000,19.390908,0,0,0,0,0,0,0
0,9999,82,0,82,0,49,9999,0.100000,0,0,0.000000,0,7.000000,0.000000,9.988824,0,0,0,0,0,0,0
0,9999,83,0,83,0,49,9999,0.100000,0,0,0.000000,0,4.000000,0.000000,10.019711,0,0,0,0,0,0,0
0,9999,84,0,84,0,49,9999,0.100000,0,0,0.000000,0,4.000000,0.000000,20.746926,0,0,0,0,0,0,0
0,9999,85,0,85,0,49,9999,0.100000,0,0,0.000000,0,10.000000,0.000000,16.758082,0,0,0,0,0,0,0
0,9999,86,0,86,0,49,9999,0.100000,0,0,0.000000,0,12.000000,0.000000,14.228778,0,0,0,0,0,0,0
0,9999,87,0,87,0,49,9999,0.100000,0,0,0.000000,0,5.000000,0.000000,7.148936,0,0,0,0,0,0,0
0,9999,88,0,88,0,49,9999,0.100000,0,0,0.000000,0,8.000000,0.000000,14.394488,0,0,0,0,0,0,0
0,9999,89,0,89,0,49,9999,0.100000,0,0,0.000000,0,9.000000,0.000000,26.146072,0,0,0,0,0,0,0
0,9999,90,0,90,0,49,9999,0.100000,0,0,0.000000,0,8.000000,0.000000,10.468314,0,0,0,0,0,0,0
0,9999,91,0,91,0,49,9999,0.100000,0,0,0.000000,0,7.000000,0.000000,9.127698,0,0,0,0,0,0,0
0,9999,92,0,92,0,49,9999,0.100000,0,0,0.000000,0,11.000000,0.000000,20.113652,0,0,0,0,0,0,0
0,9999,93,0,93,0,49,9999,0.100000,0,0,0.000000,0,8.000000,0.000000,17.646940,0,0,0,0,0,0,0
0,9999,94,0,94,0,49,9999,0.100000,0,0,0.000000,0,7.000000,0.000000,7.294414,0,0,0,0,0,0,0
0,9999,95,0,95,0,49,9999,0.100000,0,0,0.000000,0,11.000000,0.000000,24.832683,0,0,0,0,0,0,0
0,9999,96,0,96,0,49,9999,0.100000,0,0,0.000000,0,8.000000,0.000000,12.189788,0,0,0,0,0,0,0
0,9999,97,0,97,0,9,9999,0.100000,0,0,0.000000,0,8.000000,0.000000,15.569937,0,0,0,0,0,0,2
0,9999,98,0,98,0,49,9999,0.100000,0,0,0.000000,0,6.000000,0.000000,13.237839,0,0,0,0,0,0,0
0,9999,99,0,99,0,49,9999,0.100000,0,0,0.000000,0,7.000000,0.000000,8.278982,0,0,0,0,0,0,0
1,19999,0,10000,0,0,49,9999,0.100000,0,0,0.000000,1,3.000000,0.000000,10.680454,0,0,0,0,0,0,0
1,19999,1,10000,1,0,49,9999,0.100000,0,0,0.000000,1,2.000000,0.000000,14.319611,0,0,0,0,0,0,0
1,19999,2,10000,0,0,40,9999,0.100000,0,0,0.000000,2,0.000000,0.000000,0.333688,0,0,0,0,0,0,0
1,19999,3,10000,0,0,49,9999,0.100000,0,0,0.000000,2,3.000000,0.000000,6.983294,0,0,0,0,0,0,0
1,19999,4,0,4,0,40,19999,0.100000,0,0,0.000000,2,0.000000,0.000000,0.155153,0,0,0,0,0,0,0
1,19999,5,10000,9,0,40,9999,0.100000,0,0,0.000000,2,0.000000,0.000000,0.415023,0,0,0,0,0,0,0
1,19999,6,10000,0,0,40,9999,0.100000,0,0,0.000000,2,0.000000,0.000000,1.583299,0,0,0,0,0,0,0
1,19999,7,10000,0,0,49,9999,0.100000,0,0,0.000000,2,1.000000,0.000000,6.134753,0,0,0,0,0,0,0
1,19999,8,10000,9,0,49,9999,0.100000,0,0,0.000000,2,1.000000,0.000000,5.862418,0,0,0,0,0,0,0
1,19999,9,10000,0,0,40,9999,0.100000,0,0,0.000000,2,0.000000,0.000000,1.653324,0,0,0,0,0,0,0
1,19999,10,10000,9,0,49,9999,0.100000,0,0,0.000000,2,1.000000,0.000000,5.667218,0,0,0,0,0,0,0
1,19999,11,10000,9,0,49,9999,0.100000,0,0,0.000000,2,1.000000,0.000000,4.240251,0,0,0,0,0,0,0
1,19999,12,10000,0,0,40,9999,0.100000,0,0,0.000000,2,0.000000,0.000000,0.948256,0,0,0,0,0,0,0
1,19999,13,10000,9,0,40,9999,0.100000,0,0,0.000000,2,0.000000,0.000000,5.232133,0,0,0,0,0,0,0
1,19999,14,10000,9,0,40,9999,0.100000,0,0,0.000000,2,0.000000,0.000000,0.074129,0,0,0,0,0,0,0
1,19999,15,10000,9,0,40,9999,0.100000,0,0,0.000000,2,0.000000,0.000000,0.503277,0,0,0,0,0,0,0
1,19999,16,10000,0,0,49,9999,0.100000,0,0,0.000000,2,3.000000,0.000000,21.181448,0,0,0,0,0,0,0
1,19999,17,0,17,0,40,19999,0.100000,0,0,0.000000,2,0.000000,0.000000,0.089305,0,0,0,0,0,0,0
1,19999,18,10000,0,0,49,9999,0.100000,0,0,0.000000,2,2.000000,0.000000,3.188826,0,0,0,0,0,0,0
1,19999,19,10000,0,0,40,9999,0.065000,0,0,0.000000,2,0.000000,0.000000,0.195298,0,0,0,0,0,0,0
1,19999,20,10000,0,0,40,9999,0.100000,0,0,0.000000,3,0.000000,0.000000,1.206349,0,0,0,0,0,0,0
1,19999,21,10000,0,0,40,9999,0.100000,0,0,0.000000,2,0.000000,0.000000,0.427692,0,0,0,0,0,0,0
1,19999,22,10000,59,0,49,9999,0.100000,0,0,0.000000,3,3.000000,0.000000,9.087385,0,0,0,0,0,0,0
1,19999,23,10000,9,0,9,9999,0.100000,0,0,0.000000,2,1.000000,0.000000,8.442863,0,0,0,0,1,0,0
1,19999,24,10000,0,0,40,9999,0.100000,0,0,0.000000,2,0.000000,0.000000,0.214813,0,0,0,0,0,0,0
1,19999,25,10000,9,0,40,9999,0.100000,0,0,0.000000,2,0.000000,0.000000,2.462857,0,0,0,0,0,0,0
1,19999,26,10000,0,0,40,9999,0.100000,0,0,0.000000,2,0.000000,0.000000,2.170478,0,0,0,0,0,0,0
1,19999,27,0,27,0,40,19999,0.100000,0,0,0.000000,2,0.000000,0.000000,10.167544,0,0,0,0,0,0,0
1,19999,28,10000,9,0,49,9999,0.100000,0,0,0.000000,2,1.000000,0.000000,7.815956,0,0,0,0,0,0,0
1,19999,29,10000,0,0,49,9999,0.100000,0,0,0.000000,2,3.000000,0.000000,11.496624,0,0,0,0,0,0,0
1,19999,30,10000,9,0,40,9999,0.100000,0,0,0.000000,2,0.000000,0.000000,4.887275,0,0,0,0,0,0,0
1,19999,31,10000,0,0,49,9999,0.100000,0,0,0.000000,2,3.000000,0.000000,18.823342,0,0,0,0,0,0,0
1,19999,32,10000,0,0,49,9999,0.100000,0,0,0.000000,2,6.000000,0.000000,16.493811,0,0,0,0,0,0,0
1,19999,33,0,33,0,40,19999,0.100000,0,0,0.000000,2,0.000000,0.000000,0.091421,0,0,0,0,0,0,0
1,19999,34,10000,9,0,40,9999,0.100000,0,0,0.000000,2,0.000000,0.000000,0.458616,0,0,0,0,0,0,0
1,19999,35,10000,59,0,9,9999,0.100000,0,0,0.000000,3,1.000000,0.000000,10.141078,0,0,0,0,0,0,4
1,19999,36,10000,9,0,40,9999,0.100000,0,0,0.000000,2,0.000000,0.000000,0.156405,0,0,0,0,0,0,0
1,19999,37,10000,0,0,0,9999,0.100000,0,0,0.000000,2,0.000000,0.000000,0.738548,0,0,0,0,0,0,4
1,19999,38,10000,0,0,40,9999,0.100000,0,0,0.000000,2,0.000000,0.000000,0.076690,0,0,0,0,0,0,0
1,19999,39,0,39,0,49,19999,0.100000,0,0,0.000000,2,1.000000,0.000000,6.168605,0,0,0,0,0,0,0
1,19999,40,10000,59,0,40,9999,0.100000,0,0,0.000000,3,0.000000,0.000000,2.517768,0,0,0,0,0,0,0
1,19999,41,10000,9,0,40,9999,0.100000,0,0,0.000000,2,0.000000,0.000000,6.244178,0,0,0,0,0,0,0
1,19999,42,0,42,0,49,19999,0.100000,0,0,0.000000,3,2.000000,0.000000,16.782087,0,0,0,0,0,0,0
1,19999,43,10000,9,0,40,9999,0.100000,0,0,0.000000,2,0.000000,0.000000,1.150404,0,0,0,0,0,0,0
1,19999,44,10000,0,0,40,9999,0.100000,0,0,0.000000,2,0.000000,0.000000,0.366388,0,0,0,0,0,0,0
1,19999,45,10000,0,0,40,9999,0.100000,0,0,0.000000,2,0.000000,0.000000,3.898299,0,0,0,0,0,0,0
1,19999,46,10000,0,0,49,9999,0.100000,0,0,0.000000,3,1.000000,0.000000,18.363596,0,0,0,0,0,0,0
1,19999,47,0,47,0,40,19999,0.100000,0,0,0.000000,2,0.000000,0.000000,23.907835,0,0,0,0,0,0,0
1,19999,48,10000,0,0,40,9999,0.100000,0,0,0.000000,2,0.000000,0.000000,15.224611,0,0,0,0,0,0,0
1,19999,49,0,49,0,40,19999,0.100000,0,0,0.000000,3,0.000000,0.000000,0.182904,0,0,0,0,0,0,0
1,19999,50,10000,9,0,40,9999,0.065000,0,0,0.000000,2,0.000000,0.000000,0.136585,0,0,0,0,0,0,0
1,19999,51,0,51,0,49,19999,0.100000,0,0,0.000000,2,5.000000,0.000000,13.474388,0,0,0,0,0,0,0
1,19999,52,10000,9,0,40,9999,0.100000,0,0,0.000000,2,0.000000,0.000000,1.563757,0,0,0,0,0,0,0
1,19999,53,10000,9,0,40,9999,0.100000,0,0,0.000000,2,0.000000,0.000000,0.161032,0,0,0,0,0,0,0
1,19999,54,0,54,0,40,19999,0.100000,0,0,0.000000,2,0.000000,0.000000,0.886856,0,0,0,0,0,0,0
1,19999,55,10000,59,0,49,9999,0.100000,0,0,0.000000,3,1.000000,0.000000,2.411358,0,0,0,0,0,0,0
1,19999,56,10000,0,0,40,9999,0.100000,0,0,0.000000,2,0.000000,0.000000,0.083456,0,0,0,0,0,0,0
1,19999,57,10000,0,0,40,9999,0.100000,0,0,0.000000,2,0.000000,0.000000,0.244022,0,0,0,0,0,0,0
1,19999,58,10000,0,0,40,9999,0.100000,0,0,0.000000,2,0.000000,0.000000,0.088116,0,0,0,0,0,0,0
1,19999,59,0,59,0,49,19999,0.100000,0,0,0.000000,2,1.000000,0.000000,11.599221,0,0,0,0,0,0,0
1,19999,60,10000,9,0,40,9999,0.100000,0,0,0.000000,2,0.000000,0.000000,0.395049,0,0,0,0,0,0,0
1,19999,61,10000,59,0,40,9999,0.100000,0,0,0.000000,3,0.000000,0.000000,23.801068,0,0,0,0,0,0,0
1,19999,62,10000,59,0,40,9999,0.100000,0,0,0.000000,2,0.000000,0.000000,0.667431,0,0,0,0,0,0,0
1,19999,63,10000,9,0,40,9999,0.100000,0,0,0.000000,2,0.000000,0.000000,0.081570,0,0,0,0,0,0,0
1,19999,64,10000,0,0,49,9999,0.100000,0,0,0.000000,2,1.000000,0.000000,1.413448,0,0,0,0,0,0,0
1,19999,65,10000,0,0,40,9999,0.100000,0,0,0.000000,2,0.000000,0.000000,1.336293,0,0,0,0,0,0,0
1,19999,66,10000,9,0,49,9999,0.100000,0,0,0.000000,2,1.000000,0.000000,6.196798,0,0,0,0,0,0,0
1,19999,67,10000,0,0,40,9999,0.100000,0,0,0.000000,2,0.000000,0.000000,0.771171,0,0,0,0,0,0,0
1,19999,68,10000,9,0,40,9999,0.100000,0,0,0.000000,2,0.000000,0.000000,0.104434,0,0,0,0,0,0,0
1,19999,69,10000,59,0,49,9999,0.100000,0,0,0.000000,2,3.000000,0.000000,8.817348,0,0,0,0,0,0,0
1,19999,70,10000,0,0,49,9999,0.100000,0,0,0.000000,2,2.000000,0.000000,18.789636,0,0,0,0,0,0,0
1,19999,71,10000,9,0,40,9999,0.100000,0,0,0.000000,2,0.000000,0.000000,1.776905,0,0,0,0,0,0,0
1,19999,72,10000,9,0,49,9999,0.100000,0,0,0.000000,2,1.000000,0.000000,6.700817,0,0,0,0,0,0,0
1,19999,73,10000,0,0,49,9999,0.100000,0,0,0.000000,2,4.000000,0.000000,19.611677,0,0,0,0,0,0,0
1,19999,74,10000,9,0,49,9999,0.100000,0,0,0.000000,2,1.000000,0.000000,5.150343,0,0,0,0,0,0,0
1,19999,75,10000,9,0,40,9999,0.100000,0,0,0.000000,2,0.000000,0.000000,1.820363,0,0,0,0,0,0,0
1,19999,76,10000,0,0,40,9999,0.100000,0,0,0.000000,2,0.000000,0.000000,0.067109,0,0,0,0,0,0,0
1,19999,77,10000,0,0,40,9999,0.100000,0,0,0.000000,2,0.000000,0.000000,0.992665,0,0,0,0,0,0,0
1,19999,78,10000,9,0,49,9999,0.100000,0,0,0.000000,2,2.000000,0.000000,10.860917,0,0,0,0,0,0,0
1,19999,79,10000,9,0,40,9999,0.100000,0,0,0.000000,2,0.000000,0.000000,0.358670,0,0,0,0,0,0,0
1,19999,80,10000,80,0,40,9999,0.100000,0,0,0.000000,3,0.000000,0.000000,0.477895,0,0,0,0,0,0,0
1,19999,81,10000,0,0,40,9999,0.100000,0,0,0.000000,2,0.000000,0.000000,1.085271,0,0,0,0,0,0,0
1,19999,82,10000,9,0,40,9999,0.100000,0,0,0.000000,2,0.000000,0.000000,0.310059,0,0,0,0,0,0,0
1,19999,83,10000,0,0,49,9999,0.100000,0,0,0.000000,2,3.000000,0.000000,9.550353,0,0,0,0,0,0,0
1,19999,84,10000,0,0,49,9999,0.100000,0,0,0.000000,2,1.000000,0.000000,10.860691,0,0,0,0,0,0,0
1,19999,85,10000,9,0,49,9999,0.100000,0,0,0.000000,2,2.000000,0.000000,7.652529,0,0,0,0,0,0,0
1,19999,86,10000,59,0,40,9999,0.100000,0,0,0.000000,2,0.000000,0.000000,1.057521,0,0,0,0,0,0,0
1,19999,87,10000,0,0,49,9999,0.100000,0,0,0.000000,2,3.000000,0.000000,3.916992,0,0,0,0,0,0,0
1,19999,88,10000,0,0,40,9999,0.100000,0,0,0.000000,2,0.000000,0.000000,0.117745,0,0,0,0,0,0,0
1,19999,89,10000,9,0,49,9999,0.100000,0,0,0.000000,2,1.000000,0.000000,4.304800,0,0,0,0,0,0,0
1,19999,90,10000,0,0,40,9999,0.100000,0,0,0.000000,2,0.000000,0.000000,0.070856,0,0,0,0,0,0,0
1,19999,91,10000,0,0,40,9999,0.100000,0,0,0.000000,2,0.000000,0.000000,2.117780,0,0,0,0,0,0,0
1,19999,92,10000,0,0,40,9999,0.100000,0,0,0.000000,2,0.000000,0.000000,1.031688,0,0,0,0,0,0,0
1,19999,93,10000,80,0,49,9999,0.100000,0,0,0.000000,3,1.000000,0.000000,6.887062,0,0,0,0,0,0,0
1,19999,94,10000,0,0,40,9999,0.100000,0,0,0.000000,2,0.000000,0.000000,1.802955,0,0,0,0,0,0,0
1,19999,95,10000,0,0,49,9999,0.100000,0,0,0.000000,2,7.000000,0.000000,13.754904,0,0,0,0,0,0,0
1,19999,96,10000,9,0,40,9999,0.100000,0,0,0.000000,2,0.000000,0.000000,1.872915,0,0,0,0,0,0,0
1,19999,97,10000,0,0,49,9999,0.100000,0,0,0.000000,2,1.000000,0.000000,6.296612,0,0,0,0,0,0,0
1,19999,98,10000,0,0,40,9999,0.100000,0,0,0.000000,2,0.000000,0.000000,0.079007,0,0,0,0,0,0,0
1,19999,99,10000,9,0,40,9999,0.100000,0,0,0.000000,2,0.000000,0.000000,0.547192,0,0,0,0,0,0,0
2,29999,0,20000,0,0,49,9999,0.100000,0,0,0.000000,3,1.000000,0.000000,9.294151,0,0,0,0,0,0,0
2,29999,1,20000,0,0,40,9999,0.100000,0,0,0.000000,5,0.000000,0.000000,1.434220,0,0,0,0,0,0,0
2,29999,2,20000,80,0,40,9999,0.100000,0,0,0.000000,5,0.000000,0.000000,0.469161,0,0,0,0,0,0,0
2,29999,3,20000,80,0,0,9999,0.100000,0,0,0.000000,5,0.000000,0.000000,1.786479,0,0,0,0,1,0,0
2,29999,4,20000,80,0,49,9999,0.100000,0,0,0.000000,5,7.000000,0.000000,8.225033,0,0,0,0,0,0,0
2,29999,5,10000,9,0,40,19999,0.100000,0,0,0.000000,5,0.000000,0.000000,0.470663,0,0,0,0,0,0,0
2,29999,6,20000,80,0,40,9999,0.100000,0,0,0.000000,5,0.000000,0.000000,1.018545,0,0,0,0,0,0,0
2,29999,7,20000,0,0,49,9999,0.100000,0,0,0.000000,5,3.000000,0.000000,6.537053,0,0,0,0,0,0,0
2,29999,8,20000,59,0,40,9999,0.100000,0,0,0.000000,3,0.000000,0.000000,4.283495,0,0,0,0,0,0,0
2,29999,9,20000,9,10000,40,9999,0.100000,0,0,0.000000,4,0.000000,0.000000,1.042897,0,0,0,0,0,0,0
2,29999,10,20000,59,0,49,9999,0.100000,0,0,0.000000,5,1.000000,0.000000,5.342554,0,0,0,0,0,0,0
2,29999,11,20000,0,0,49,9999,0.100000,0,0,0.000000,5,1.000000,0.000000,1.629722,0,0,0,0,0,0,0
2,29999,12,20000,5,10000,40,9999,0.100000,0,0,0.000000,5,0.000000,0.000000,0.833783,0,0,0,0,0,0,0
2,29999,13,20000,5,10000,40,9999,0.100000,0,0,0.000000,5,0.000000,0.000000,5.382633,0,0,0,0,0,0,0
2,29999,14,20000,0,0,40,9999,0.100000,0,0,0.000000,5,0.000000,0.000000,0.071253,0,0,0,0,0,0,0
2,29999,15,20000,5,10000,40,9999,0.100000,0,0,0.000000,5,0.000000,0.000000,0.423058,0,0,0,0,0,0,0
2,29999,16,20000,80,0,49,9999,0.100000,0,0,0.000000,5,1.000000,0.000000,15.285063,0,0,0,0,0,0,0
2,29999,17,20000,5,10000,40,9999,0.100000,0,0,0.000000,5,0.000000,0.000000,0.088589,0,0,0,0,0,0,0
2,29999,18,20000,2,10000,49,9999,0.100000,0,0,0.000000,5,1.000000,0.000000,1.382221,0,0,0,0,0,0,0
2,29999,19,20000,2,10000,40,9999,0.100000,0,0,0.000000,5,0.000000,0.000000,0.216637,0,0,0,0,0,0,0
2,29999,20,20000,80,0,40,9999,0.100000,0,0,0.000000,5,0.000000,0.000000,1.211018,0,0,0,0,0,0,0
2,29999,21,20000,80,0,40,9999,0.100000,0,0,0.000000,5,0.000000,0.000000,0.619589,0,0,0,0,0,0,0
2,29999,22,20000,80,0,40,9999,0.100000,0,0,0.000000,5,0.000000,0.000000,15.815337,0,0,0,0,0,0,0
2,29999,23,20000,0,0,49,9999,0.100000,0,0,0.000000,5,1.000000,0.000000,4.264520,0,0,0,0,0,0,0
2,29999,24,20000,28,10000,40,9999,0.100000,0,0,0.000000,5,0.000000,0.000000,0.172140,0,0,0,0,0,0,0
2,29999,25,20000,2,10000,40,9999,0.100000,0,0,0.000000,5,0.000000,0.000000,0.630986,0,0,0,0,0,0,0
2,29999,26,20000,2,10000,40,9999,0.100000,0,0,0.000000,5,0.000000,0.000000,1.155551,0,0,0,0,0,0,0
2,29999,27,20000,28,10000,49,9999,0.100000,0,0,0.000000,5,1.000000,0.000000,6.589280,0,0,0,0,0,0,0
2,29999,28,20000,0,0,49,9999,0.100000,0,0,0.000000,5,1.000000,0.000000,1.511248,0,0,0,0,0,0,0
2,29999,29,20000,28,10000,40,9999,0.100000,0,0,0.000000,5,0.000000,0.000000,0.477891,0,0,0,0,0,0,0
2,29999,30,20000,5,10000,40,9999,0.100000,0,0,0.000000,5,0.000000,0.000000,4.242100,0,0,0,0,0,0,0
2,29999,31,20000,59,0,49,9999,0.100000,0,0,0.000000,5,2.000000,0.000000,11.779675,0,0,0,0,0,0,0
2,29999,32,20000,5,10000,49,9999,0.100000,0,0,0.000000,5,1.000000,0.000000,7.071516,0,0,0,0,0,0,0
2,29999,33,20000,59,0,40,9999,0.100000,0,0,0.000000,5,0.000000,0.000000,0.100735,0,0,0,0,0,0,0
2,29999,34,20000,80,0,40,9999,0.100000,0,0,0.000000,5,0.000000,0.000000,0.438344,0,0,0,0,0,0,0
2,29999,35,20000,28,10000,0,9999,0.100000,0,0,0.000000,5,0.000000,0.000000,0.819914,0,0,0,0,0,0,3
2,29999,36,20000,5,10000,49,9999,0.100000,0,0,0.000000,5,3.000000,0.000000,6.284675,0,0,0,0,0,0,0
2,29999,37,20000,5,10000,0,9999,0.100000,0,0,0.000000,5,0.000000,0.000000,6.619877,0,0,0,0,0,0,2
2,29999,38,20000,2,10000,40,9999,0.100000,0,0,0.000000,5,0.000000,0.000000,0.076087,0,0,0,0,0,0,0
2,29999,39,20000,80,0,40,9999,0.100000,0,0,0.000000,5,0.000000,0.000000,1.792197,0,0,0,0,0,0,0
2,29999,40,20000,28,10000,49,9999,0.100000,0,0,0.000000,5,1.000000,0.000000,3.624465,0,0,0,0,0,0,0
2,29999,41,20000,80,0,49,9999,0.100000,0,0,0.000000,5,1.000000,0.000000,11.645606,0,0,0,0,0,0,0
2,29999,42,20000,28,10000,49,9999,0.100000,0,0,0.000000,5,1.000000,0.000000,6.382730,0,0,0,0,0,0,0
2,29999,43,20000,9,10000,40,9999,0.100000,0,0,0.000000,5,0.000000,0.000000,0.818226,0,0,0,0,0,0,0
2,29999,44,20000,59,0,40,9999,0.100000,0,0,0.000000,5,0.000000,0.000000,0.323200,0,0,0,0,0,0,0
2,29999,45,20000,0,0,40,9999,0.100000,0,0,0.000000,5,0.000000,0.000000,0.272178,0,0,0,0,0,0,0
2,29999,46,20000,5,10000,49,9999,0.100000,0,0,0.000000,5,6.000000,0.000000,8.560121,0,0,0,0,0,0,0
2,29999,47,0,47,0,40,29999,0.100000,0,0,0.000000,5,0.000000,0.000000,23.766886,0,0,0,0,0,0,0
2,29999,48,20000,5,10000,40,9999,0.100000,0,0,0.000000,5,0.000000,0.000000,1.660790,0,0,0,0,0,0,0
2,29999,49,20000,59,0,40,9999,0.100000,0,0,0.000000,5,0.000000,0.000000,0.161858,0,0,0,0,0,0,0
2,29999,50,20000,5,10000,40,9999,0.100000,0,0,0.000000,5,0.000000,0.000000,0.116374,0,0,0,0,0,0,0
2,29999,51,20000,2,10000,49,9999,0.100000,0,0,0.000000,5,2.000000,0.000000,23.943282,0,0,0,0,0,0,0
2,29999,52,20000,5,10000,40,9999,0.100000,0,0,0.000000,5,0.000000,0.000000,0.288631,0,0,0,0,0,0,0
2,29999,53,20000,5,10000,40,9999,0.100000,0,0,0.000000,5,0.000000,0.000000,0.155913,0,0,0,0,0,0,0
2,29999,54,20000,0,0,40,9999,0.100000,0,0,0.000000,5,0.000000,0.000000,1.632499,0,0,0,0,0,0,0
2,29999,55,20000,0,0,40,9999,0.100000,0,0,0.000000,5,0.000000,0.000000,0.557333,0,0,0,0,0,0,0
2,29999,56,20000,59,0,40,9999,0.100000,0,0,0.000000,5,0.000000,0.000000,0.084255,0,0,0,0,0,0,0
2,29999,57,20000,2,10000,40,9999,0.100000,0,0,0.000000,5,0.000000,0.000000,0.665520,0,0,0,0,0,0,0
2,29999,58,20000,80,0,40,9999,0.100000,0,0,0.000000,5,0.000000,0.000000,0.089233,0,0,0,0,0,0,0
2,29999,59,20000,80,0,49,9999,0.100000,0,0,0.000000,5,3.000000,0.000000,12.351659,0,0,0,0,0,0,0
2,29999,60,20000,80,0,40,9999,0.100000,0,0,0.000000,5,0.000000,0.000000,0.255876,0,0,0,0,0,0,0
2,29999,61,20000,80,0,49,9999,0.100000,0,0,0.000000,5,1.000000,0.000000,9.263653,0,0,0,0,0,0,0
2,29999,62,20000,0,0,40,9999,0.100000,0,0,0.000000,5,0.000000,0.000000,0.423121,0,0,0,0,0,0,0
2,29999,63,20000,80,0,40,9999,0.100000,0,0,0.000000,5,0.000000,0.000000,0.081155,0,0,0,0,0,0,0
2,29999,64,20000,80,0,49,9999,0.100000,0,0,0.000000,5,4.000000,0.000000,11.629870,0,0,0,0,0,0,0
2,29999,65,20000,59,0,49,9999,0.100000,0,0,0.000000,5,5.000000,0.000000,11.435877,0,0,0,0,0,0,0
2,29999,66,20000,80,0,49,9999,0.100000,0,0,0.000000,5,1.000000,0.000000,3.835101,0,0,0,0,0,0,0
2,29999,67,20000,5,10000,40,9999,0.100000,0,0,0.000000,5,0.000000,0.000000,0.395028,0,0,0,0,0,0,0
2,29999,68,20000,2,10000,40,9999,0.100000,0,0,0.000000,5,0.000000,0.000000,0.304375,0,0,0,0,0,0,0
2,29999,69,20000,2,10000,49,9999,0.100000,0,0,0.000000,5,1.000000,0.000000,8.260942,0,0,0,0,0,0,0
2,29999,70,20000,0,0,49,9999,0.100000,0,0,0.000000,5,6.000000,0.000000,12.257928,0,0,0,0,0,0,0
2,29999,71,20000,28,10000,40,9999,0.100000,0,0,0.000000,5,0.000000,0.000000,0.290439,0,0,0,0,0,0,0
2,29999,72,20000,59,0,40,9999,0.100000,0,0,0.000000,5,0.000000,0.000000,0.179538,0,0,0,0,0,0,0
2,29999,73,20000,9,10000,40,9999,0.100000,0,0,0.000000,4,0.000000,0.000000,19.513180,0,0,0,0,0,0,0
2,29999,74,20000,9,10000,49,9999,0.100000,0,0,0.000000,5,2.000000,0.000000,15.126085,0,0,0,0,0,0,0
2,29999,75,20000,59,0,40,9999,0.100000,0,0,0.000000,5,0.000000,0.000000,1.266341,0,0,0,0,0,0,0
2,29999,76,20000,0,0,40,9999,0.100000,0,0,0.000000,5,0.000000,0.000000,0.760788,0,0,0,0,0,0,0
2,29999,77,20000,28,10000,49,9999,0.100000,0,0,0.000000,5,3.000000,0.000000,8.876463,0,0,0,0,0,0,0
2,29999,78,20000,80,0,49,9999,0.100000,0,0,0.000000,5,1.000000,0.000000,1.384684,0,0,0,0,0,0,0
2,29999,79,20000,80,0,40,9999,0.100000,0,0,0.000000,5,0.000000,0.000000,0.283539,0,0,0,0,0,0,0
2,29999,80,20000,0,0,40,9999,0.100000,0,0,0.000000,5,0.000000,0.000000,0.377124,0,0,0,0,0,0,0
2,29999,81,20000,2,10000,40,9999,0.100000,0,0,0.000000,5,0.000000,0.000000,1.098313,0,0,0,0,0,0,0
2,29999,82,20000,59,0,40,9999,0.100000,0,0,0.000000,5,0.000000,0.000000,1.017537,0,0,0,0,0,0,0
2,29999,83,20000,0,0,49,9999,0.100000,0,0,0.000000,5,1.000000,0.000000,5.879906,0,0,0,0,0,0,0
2,29999,84,20000,5,10000,40,9999,0.100000,0,0,0.000000,5,0.000000,0.000000,5.022246,0,0,0,0,0,0,0
2,29999,85,20000,0,0,49,9999,0.100000,0,0,0.000000,5,2.000000,0.000000,4.229884,0,0,0,0,0,0,0
2,29999,86,20000,59,0,40,9999,0.100000,0,0,0.000000,5,0.000000,0.000000,1.249662,0,0,0,0,0,0,0
2,29999,87,20000,28,10000,40,9999,0.100000,0,0,0.000000,5,0.000000,0.000000,1.460673,0,0,0,0,0,0,0
2,29999,88,20000,0,0,40,9999,0.100000,0,0,0.000000,5,0.000000,0.000000,0.115170,0,0,0,0,0,0,0
2,29999,89,20000,0,0,40,9999,0.100000,0,0,0.000000,5,0.000000,0.000000,0.120767,0,0,0,0,0,0,0
2,29999,90,20000,2,10000,40,9999,0.100000,0,0,0.000000,5,0.000000,0.000000,0.071475,0,0,0,0,0,0,0
2,29999,91,20000,28,10000,40,9999,0.100000,0,0,0.000000,5,0.000000,0.000000,0.091833,0,0,0,0,0,0,0
2,29999,92,20000,80,0,40,9999,0.100000,0,0,0.000000,4,0.000000,0.000000,0.574149,0,0,0,0,0,0,0
2,29999,93,20000,80,0,40,9999,0.100000,0,0,0.000000,5,0.000000,0.000000,1.767641,0,0,0,0,0,0,0
2,29999,94,20000,5,10000,40,9999,0.100000,0,0,0.000000,5,0.000000,0.000000,2.206170,0,0,0,0,0,0,0
2,29999,95,20000,0,0,40,9999,0.100000,0,0,0.000000,5,0.000000,0.000000,3.582904,0,0,0,0,0,0,0
2,29999,96,20000,5,10000,40,9999,0.100000,0,0,0.000000,5,0.000000,0.000000,1.424581,0,0,0,0,0,0,0
2,29999,97,20000,80,0,40,9999,0.100000,0,0,0.000000,5,0.000000,0.000000,1.885384,0,0,0,0,0,0,0
2,29999,98,20000,59,0,40,9999,0.100000,0,0,0.000000,5,0.000000,0.000000,0.078528,0,0,0,0,0,0,0
2,29999,99,20000,59,0,49,9999,0.100000,0,0,0.000000,5,2.000000,0.000000,3.489765,0,0,0,0,0,0,0
3,39999,0,30000,5,10000,40,9999,0.100000,0,0,0.000000,5,0.000000,0.000000,3.501673,0,0,0,0,0,0,0
3,39999,1,30000,0,0,49,9999,0.100000,0,0,0.000000,5,4.000000,0.000000,4.695274,0,0,0,0,0,0,0
3,39999,2,30000,28,10000,40,9999,0.100000,0,0,0.000000,5,0.000000,0.000000,0.110612,0,0,0,0,0,0,0
3,39999,3,30000,5,10000,40,9999,0.100000,0,0,0.000000,5,0.000000,0.000000,2.405589,0,0,0,0,0,0,0
3,39999,4,30000,28,10000,40,9999,0.100000,0,0,0.000000,5,0.000000,0.000000,0.522426,0,0,0,0,0,0,0
3,39999,5,30000,5,10000,40,9999,0.100000,0,0,0.000000,5,0.000000,0.000000,0.631328,0,0,0,0,0,0,0
3,39999,6,30000,80,0,40,9999,0.100000,0,0,0.000000,5,0.000000,0.000000,0.571391,0,0,0,0,0,0,0
3,39999,7,30000,28,10000,40,9999,0.100000,0,0,0.000000,5,0.000000,0.000000,3.379160,0,0,0,0,0,0,0
3,39999,8,30000,5,10000,40,9999,0.100000,0,0,0.000000,5,0.000000,0.000000,3.077422,0,0,0,0,0,0,0
3,39999,9,30000,86,20000,40,9999,0.100000,0,0,0.000000,5,0.000000,0.000000,0.752925,0,0,0,0,0,0,0
3,39999,10,30000,5,10000,40,9999,0.100000,0,0,0.000000,5,0.000000,0.000000,0.821502,0,0,0,0,0,0,0
3,39999,11,30000,80,0,40,9999,0.100000,0,0,0.000000,5,0.000000,0.000000,0.551001,0,0,0,0,0,0,0
3,39999,12,30000,80,0,40,9999,0.100000,0,0,0.000000,5,0.000000,0.000000,0.931140,0,0,0,0,0,0,0
3,39999,13,30000,5,10000,40,9999,0.100000,0,0,0.000000,5,0.000000,0.000000,0.209430,0,0,0,0,0,0,0
3,39999,14,30000,28,10000,40,9999,0.100000,0,0,0.000000,5,0.000000,0.000000,0.070495,0,0,0,0,0,0,0
3,39999,15,30000,28,10000,40,9999,0.100000,0,0,0.000000,5,0.000000,0.000000,1.884032,0,0,0,0,0,0,0
3,39999,16,30000,86,20000,49,9999,0.100000,0,0,0.000000,5,1.000000,0.000000,7.673350,0,0,0,0,0,0,0
3,39999,17,30000,5,10000,40,9999,0.100000,0,0,0.000000,5,0.000000,0.000000,0.087681,0,0,0,0,0,0,0
3,39999,18,30000,0,0,49,9999,0.100000,0,0,0.000000,5,4.000000,0.000000,4.720773,0,0,0,0,0,0,0
3,39999,19,30000,28,10000,40,9999,0.135000,0,0,0.000000,5,0.000000,0.000000,0.416573,0,0,0,0,0,0,0
3,39999,20,30000,28,10000,40,9999,0.100000,0,0,0.000000,5,0.000000,0.000000,1.993902,0,0,0,0,0,0,0
3,39999,21,30000,5,10000,40,9999,0.100000,0,0,0.000000,5,0.000000,0.000000,0.367667,0,0,0,0,0,0,0
3,39999,22,30000,28,10000,49,9999,0.100000,0,0,0.000000,5,1.000000,0.000000,9.003441,0,0,0,0,0,0,0
3,39999,23,30000,80,0,40,9999,0.100000,0,0,0.000000,5,0.000000,0.000000,0.522430,0,0,0,0,0,0,0
3,39999,24,30000,80,0,40,9999,0.100000,0,0,0.000000,5,0.000000,0.000000,0.176396,0,0,0,0,0,0,0
3,39999,25,30000,28,10000,40,9999,0.100000,0,0,0.000000,5,0.000000,0.000000,0.726466,0,0,0,0,0,0,0
3,39999,26,30000,86,20000,49,9999,0.100000,0,0,0.000000,5,2.000000,0.000000,6.525517,0,0,0,0,0,0,0
3,39999,27,30000,2,10000,40,9999,0.100000,0,0,0.000000,5,0.000000,0.000000,0.483126,0,0,0,0,0,0,0
3,39999,28,30000,0,0,40,9999,0.100000,0,0,0.000000,5,0.000000,0.000000,0.561196,0,0,0,0,0,0,0
3,39999,29,30000,5,10000,40,9999,0.100000,0,0,0.000000,5,0.000000,0.000000,0.650479,0,0,0,0,0,0,0
3,39999,30,30000,5,10000,40,9999,0.100000,0,0,0.000000,5,0.000000,0.000000,6.350680,0,0,0,0,0,0,0
3,39999,31,30000,5,10000,49,9999,0.100000,0,0,0.000000,5,1.000000,0.000000,2.226525,0,0,0,0,0,0,0
3,39999,32,30000,80,0,49,9999,0.100000,0,0,0.000000,5,2.000000,0.000000,3.909830,0,0,0,0,0,0,0
3,39999,33,30000,80,0,40,9999,0.100000,0,0,0.000000,5,0.000000,0.000000,0.092109,0,0,0,0,0,0,0
3,39999,34,30000,0,0,40,9999,0.100000,0,0,0.000000,5,0.000000,0.000000,0.421334,0,0,0,0,0,0,0
3,39999,35,30000,5,10000,49,9999,0.100000,0,0,0.000000,5,1.000000,0.000000,13.404930,0,0,0,0,0,0,0
3,39999,36,30000,86,20000,40,9999,0.100000,0,0,0.000000,5,0.000000,0.000000,0.164655,0,0,0,0,0,0,0
3,39999,37,30000,80,0,40,9999,0.100000,0,0,0.000000,5,0.000000,0.000000,3.881801,0,0,0,0,0,0,0
3,39999,38,30000,5,10000,40,9999,0.100000,0,0,0.000000,5,0.000000,0.000000,0.076131,0,0,0,0,0,0,0
3,39999,39,30000,28,10000,40,9999,0.100000,0,0,0.000000,5,0.000000,0.000000,0.392708,0,0,0,0,0,0,0
3,39999,40,30000,28,10000,40,9999,0.100000,0,0,0.000000,5,0.000000,0.000000,1.219596,0,0,0,0,0,0,0
3,39999,41,30000,5,10000,49,9999,0.100000,0,0,0.000000,5,4.000000,0.000000,11.214492,0,0,0,0,0,0,0
3,39999,42,20000,28,10000,49,19999,0.100000,0,0,0.000000,5,2.000000,0.000000,7.363120,0,0,0,0,0,0,0
3,39999,43,30000,2,10000,40,9999,0.100000,0,0,0.000000,5,0.000000,0.000000,0.423992,0,0,0,0,0,0,0
3,39999,44,30000,86,20000,40,9999,0.100000,0,0,0.000000,5,0.000000,0.000000,0.505427,0,0,0,0,0,0,0
3,39999,45,30000,80,0,40,9999,0.100000,0,0,0.000000,5,0.000000,0.000000,0.763799,0,0,0,0,0,0,0
3,39999,46,30000,28,10000,40,9999,0.100000,0,0,0.000000,5,0.000000,0.000000,3.547216,0,0,0,0,0,0,0
3,39999,47,30000,5,10000,40,9999,0.100000,0,0,0.000000,5,0.000000,0.000000,23.821742,0,0,0,0,0,0,0
3,39999,48,30000,0,0,40,9999,0.100000,0,0,0.000000,5,0.000000,0.000000,0.432473,0,0,0,0,0,0,0
3,39999,49,30000,5,10000,40,9999,0.100000,0,0,0.000000,5,0.000000,0.000000,0.178383,0,0,0,0,0,0,0
3,39999,50,30000,86,20000,40,9999,0.100000,0,0,0.000000,5,0.000000,0.000000,0.956544,0,0,0,0,0,0,0
3,39999,51,30000,0,0,40,9999,0.100000,0,0,0.000000,5,0.000000,0.000000,9.045950,0,0,0,0,0,0,0
3,39999,52,30000,0,0,40,9999,0.100000,0,0,0.000000,5,0.000000,0.000000,0.181951,0,0,0,0,0,0,0
3,39999,53,30000,86,20000,40,9999,0.100000,0,0,0.000000,5,0.000000,0.000000,0.468154,0,0,0,0,0,0,0
3,39999,54,30000,86,20000,40,9999,0.100000,0,0,0.000000,5,0.000000,0.000000,0.106833,0,0,0,0,0,0,0
3,39999,55,30000,0,0,40,9999,0.100000,0,0,0.000000,5,0.000000,0.000000,0.484104,0,0,0,0,0,0,0
3,39999,56,30000,86,20000,40,9999,0.100000,0,0,0.000000,5,0.000000,0.000000,0.086515,0,0,0,0,0,0,0
3,39999,57,30000,80,0,40,9999,0.100000,0,0,0.000000,5,0.000000,0.000000,2.057471,0,0,0,0,0,0,0
3,39999,58,30000,80,0,40,9999,0.100000,0,0,0.000000,5,0.000000,0.000000,0.088825,0,0,0,0,0,0,0
3,39999,59,30000,0,0,49,9999,0.100000,0,0,0.000000,5,5.000000,0.000000,16.436647,0,0,0,0,0,0,0
3,39999,60,30000,80,0,40,9999,0.100000,0,0,0.000000,5,0.000000,0.000000,0.655172,0,0,0,0,0,0,0
3,39999,61,30000,28,10000,40,9999,0.100000,0,0,0.000000,5,0.000000,0.000000,0.856357,0,0,0,0,0,0,0
3,39999,62,30000,5,10000,40,9999,0.100000,0,0,0.000000,5,0.000000,0.000000,0.319550,0,0,0,0,0,0,0
3,39999,63,30000,86,20000,40,9999,0.100000,0,0,0.000000,5,0.000000,0.000000,0.082011,0,0,0,0,0,0,0
3,39999,64,30000,86,20000,49,9999,0.100000,0,0,0.000000,5,1.000000,0.000000,9.930672,0,0,0,0,0,0,0
3,39999,65,30000,0,0,40,9999,0.135000,0,0,0.000000,5,0.000000,0.000000,0.803668,0,0,0,0,0,0,0
3,39999,66,30000,86,20000,40,9999,0.100000,0,0,0.000000,5,0.000000,0.000000,0.766954,0,0,0,0,0,0,0
3,39999,67,30000,0,0,40,9999,0.100000,0,0,0.000000,5,0.000000,0.000000,0.131951,0,0,0,0,0,0,0
3,39999,68,30000,5,10000,40,9999,0.100000,0,0,0.000000,5,0.000000,0.000000,0.510125,0,0,0,0,0,0,0
3,39999,69,30000,80,0,40,9999,0.100000,0,0,0.000000,5,0.000000,0.000000,1.066094,0,0,0,0,0,0,0
3,39999,70,30000,86,20000,40,9999,0.100000,0,0,0.000000,5,0.000000,0.000000,0.557955,0,0,0,0,0,0,0
3,39999,71,30000,86,20000,40,9999,0.100000,0,0,0.000000,5,0.000000,0.000000,0.495499,0,0,0,0,0,0,0
3,39999,72,30000,5,10000,40,9999,0.100000,0,0,0.000000,5,0.000000,0.000000,0.129916,0,0,0,0,0,0,0
3,39999,73,30000,5,10000,40,9999,0.100000,0,0,0.000000,5,0.000000,0.000000,5.720227,0,0,0,0,0,0,0
3,39999,74,30000,5,10000,49,9999,0.100000,0,0,0.000000,5,4.000000,0.000000,10.670364,0,0,0,0,0,0,0
3,39999,75,30000,80,0,40,9999,0.100000,0,0,0.000000,5,0.000000,0.000000,0.931714,0,0,0,0,0,0,0
3,39999,76,30000,0,0,40,9999,0.100000,0,0,0.000000,5,0.000000,0.000000,0.943214,0,0,0,0,0,0,0
3,39999,77,20000,28,10000,40,19999,0.100000,0,0,0.000000,5,0.000000,0.000000,1.410789,0,0,0,0,0,0,0
3,39999,78,30000,0,0,40,9999,0.100000,0,0,0.000000,5,0.000000,0.000000,1.102626,0,0,0,0,0,0,0
3,39999,79,30000,86,20000,40,9999,0.100000,0,0,0.000000,5,0.000000,0.000000,0.163343,0,0,0,0,0,0,0
3,39999,80,30000,86,20000,40,9999,0.100000,0,0,0.000000,5,0.000000,0.000000,0.400600,0,0,0,0,0,0,0
3,39999,81,30000,0,0,40,9999,0.100000,0,0,0.000000,5,0.000000,0.000000,2.455237,0,0,0,0,0,0,0
3,39999,82,30000,86,20000,40,9999,0.100000,0,0,0.000000,5,0.000000,0.000000,2.967763,0,0,0,0,0,0,0
3,39999,83,30000,0,0,49,9999,0.100000,0,0,0.000000,5,4.000000,0.000000,12.043493,0,0,0,0,0,0,0
3,39999,84,30000,86,20000,40,9999,0.100000,0,0,0.000000,5,0.000000,0.000000,6.584554,0,0,0,0,0,0,0
3,39999,85,30000,28,10000,49,9999,0.100000,0,0,0.000000,5,1.000000,0.000000,2.087262,0,0,0,0,0,0,0
3,39999,86,30000,0,0,49,9999,0.100000,0,0,0.000000,5,1.000000,0.000000,13.956587,0,0,0,0,0,0,0
3,39999,87,30000,28,10000,49,9999,0.100000,0,0,0.000000,5,4.000000,0.000000,4.670247,0,0,0,0,0,0,0
3,39999,88,30000,28,10000,40,9999,0.100000,0,0,0.000000,5,0.000000,0.000000,0.119280,0,0,0,0,0,0,0
3,39999,89,30000,80,0,49,9999,0.100000,0,0,0.000000,5,9.000000,0.000000,18.852662,0,0,0,0,0,0,0
3,39999,90,30000,5,10000,40,9999,0.100000,0,0,0.000000,5,0.000000,0.000000,0.089487,0,0,0,0,0,0,0
3,39999,91,30000,80,0,40,9999,0.100000,0,0,0.000000,5,0.000000,0.000000,0.092468,0,0,0,0,0,0,0
3,39999,92,30000,28,10000,40,9999,0.100000,0,0,0.000000,5,0.000000,0.000000,0.500458,0,0,0,0,0,0,0
3,39999,93,30000,80,0,40,9999,0.100000,0,0,0.000000,5,0.000000,0.000000,0.996790,0,0,0,0,0,0,0
3,39999,94,30000,0,0,40,9999,0.100000,0,0,0.000000,5,0.000000,0.000000,1.055396,0,0,0,0,0,0,0
3,39999,95,30000,5,10000,40,9999,0.100000,0,0,0.000000,5,0.000000,0.000000,4.513907,0,0,0,0,0,0,0
3,39999,96,30000,28,10000,40,9999,0.100000,0,0,0.000000,5,0.000000,0.000000,1.052461,0,0,0,0,0,0,0
3,39999,97,30000,28,10000,40,9999,0.100000,0,0,0.000000,5,0.000000,0.000000,1.915853,0,0,0,0,0,0,0
3,39999,98,30000,5,10000,40,9999,0.100000,0,0,0.000000,5,0.000000,0.000000,0.078084,0,0,0,0,0,0,0
3,39999,99,30000,0,0,40,9999,0.100000,0,0,0.000000,5,0.000000,0.000000,0.098529,0,0,0,0,0,0,0
4,49999,0,40000,0,0,49,9999,0.100000,0,0,0.000000,5,1.000000,0.000000,4.003428,0,0,0,0,0,0,0
4,49999,1,40000,86,20000,40,9999,0.100000,0,0,0.000000,5,0.000000,0.000000,0.406654,0,0,0,0,0,0,0
4,49999,2,40000,80,0,40,9999,0.100000,0,0,0.000000,5,0.000000,0.000000,0.302977,0,0,0,0,0,0,0
4,49999,3,40000,0,0,40,9999,0.100000,0,0,0.000000,5,0.000000,0.000000,1.786261,0,0,0,0,0,0,0
4,49999,4,40000,80,0,40,9999,0.100000,0,0,0.000000,5,0.000000,0.000000,4.557505,0,0,0,0,0,0,0
4,49999,5,40000,86,20000,40,9999,0.100000,0,0,0.000000,5,0.000000,0.000000,0.430528,0,0,0,0,0,0,0
4,49999,6,40000,86,20000,40,9999,0.100000,0,0,0.000000,5,0.000000,0.000000,0.162821,0,0,0,0,0,0,0
4,49999,7,40000,80,0,40,9999,0.100000,0,0,0.000000,5,0.000000,0.000000,2.572102,0,0,0,0,0,0,0
4,49999,8,40000,0,0,40,9999,0.100000,0,0,0.000000,5,0.000000,0.000000,1.207105,0,0,0,0,0,0,0
4,49999,9,40000,0,0,40,9999,0.100000,0,0,0.000000,5,0.000000,0.000000,0.383170,0,0,0,0,0,0,0
4,49999,10,40000,5,10000,49,9999,0.100000,0,0,0.000000,5,2.000000,0.000000,6.915601,0,0,0,0,0,0,0
4,49999,11,40000,0,0,49,9999,0.100000,0,0,0.000000,5,7.000000,0.000000,8.893405,0,0,0,0,0,0,0
4,49999,12,40000,28,10000,40,9999,0.100000,0,0,0.000000,5,0.000000,0.000000,0.779571,0,0,0,0,0,0,0
4,49999,13,40000,28,10000,40,9999,0.100000,0,0,0.000000,5,0.000000,0.000000,0.664022,0,0,0,0,0,0,0
4,49999,14,40000,0,0,40,9999,0.100000,0,0,0.000000,5,0.000000,0.000000,0.070877,0,0,0,0,0,0,0
4,49999,15,40000,28,10000,40,9999,0.100000,0,0,0.000000,5,0.000000,0.000000,0.751514,0,0,0,0,0,0,0
4,49999,16,40000,86,20000,49,9999,0.100000,0,0,0.000000,5,2.000000,0.000000,8.387917,0,0,0,0,0,0,0
4,49999,17,40000,80,0,40,9999,0.100000,0,0,0.000000,5,0.000000,0.000000,0.086942,0,0,0,0,0,0,0
4,49999,18,40000,5,10000,40,9999,0.100000,0,0,0.000000,5,0.000000,0.000000,0.461874,0,0,0,0,0,0,0
4,49999,19,40000,80,0,40,9999,0.100000,0,0,0.000000,5,0.000000,0.000000,0.669199,0,0,0,0,0,0,0
4,49999,20,40000,0,0,40,9999,0.100000,0,0,0.000000,5,0.000000,0.000000,1.617501,0,0,0,0,0,0,0
4,49999,21,40000,0,0,40,9999,0.100000,0,0,0.000000,5,0.000000,0.000000,0.784292,0,0,0,0,0,0,0
4,49999,22,40000,80,0,40,9999,0.135000,0,0,0.000000,5,0.000000,0.000000,0.395932,0,0,0,0,0,0,0
4,49999,23,40000,0,0,40,9999,0.100000,0,0,0.000000,5,0.000000,0.000000,0.495140,0,0,0,0,0,0,0
4,49999,24,40000,28,10000,40,9999,0.100000,0,0,0.000000,5,0.000000,0.000000,0.165630,0,0,0,0,0,0,0
4,49999,25,40000,86,20000,49,9999,0.100000,0,0,0.000000,5,2.000000,0.000000,3.120401,0,0,0,0,0,0,0
4,49999,26,40000,0,0,49,9999,0.100000,0,0,0.000000,5,2.000000,0.000000,13.334999,0,0,0,0,0,0,0
4,49999,27,40000,0,0,40,9999,0.100000,0,0,0.000000,5,0.000000,0.000000,0.740047,0,0,0,0,0,0,0
4,49999,28,40000,80,0,49,9999,0.100000,0,0,0.000000,5,1.000000,0.000000,4.084277,0,0,0,0,0,0,0
4,49999,29,40000,86,20000,49,9999,0.100000,0,0,0.000000,5,8.000000,0.000000,17.695578,0,0,0,0,0,0,0
4,49999,30,40000,28,10000,49,9999,0.100000,0,0,0.000000,5,3.000000,0.000000,10.492698,0,0,0,0,0,0,0
4,49999,31,40000,28,10000,40,9999,0.100000,0,0,0.000000,5,0.000000,0.000000,0.321889,0,0,0,0,0,0,0
4,49999,32,40000,80,0,40,9999,0.100000,0,0,0.000000,5,0.000000,0.000000,0.155140,0,0,0,0,0,0,0
4,49999,33,40000,80,0,40,9999,0.100000,0,0,0.000000,5,0.000000,0.000000,0.091329,0,0,0,0,0,0,0
4,49999,34,40000,0,0,40,9999,0.100000,0,0,0.000000,5,0.000000,0.000000,0.421040,0,0,0,0,0,0,0
4,49999,35,40000,86,20000,40,9999,0.100000,0,0,0.000000,5,0.000000,0.000000,2.705681,0,0,0,0,0,0,0
4,49999,36,40000,80,0,40,9999,0.100000,0,0,0.000000,5,0.000000,0.000000,0.684636,0,0,0,0,0,0,0
4,49999,37,40000,28,10000,40,9999,0.100000,0,0,0.000000,5,0.000000,0.000000,6.351376,0,0,0,0,0,0,0
4,49999,38,40000,5,10000,40,9999,0.100000,0,0,0.000000,5,0.000000,0.000000,0.076633,0,0,0,0,0,0,0
4,49999,39,40000,0,0,40,9999,0.100000,0,0,0.000000,5,0.000000,0.000000,0.820671,0,0,0,0,0,0,0
4,49999,40,40000,80,0,49,9999,0.100000,0,0,0.000000,5,8.000000,0.000000,22.173917,0,0,0,0,0,0,0
4,49999,41,40000,0,0,40,9999,0.100000,0,0,0.000000,5,0.000000,0.000000,1.394511,0,0,0,0,0,0,0
4,49999,42,40000,0,0,49,9999,0.100000,0,0,0.000000,5,4.000000,0.000000,10.777712,0,0,0,0,0,0,0
4,49999,43,40000,28,10000,49,9999,0.100000,0,0,0.000000,5,1.000000,0.000000,4.762793,0,0,0,0,0,0,0
4,49999,44,40000,86,20000,40,9999,0.100000,0,0,0.000000,5,0.000000,0.000000,1.081106,0,0,0,0,0,0,0
4,49999,45,40000,80,0,40,9999,0.100000,0,0,0.000000,5,0.000000,0.000000,0.881605,0,0,0,0,0,0,0
4,49999,46,40000,0,0,40,9999,0.100000,0,0,0.000000,5,0.000000,0.000000,0.456656,0,0,0,0,0,0,0
4,49999,47,40000,80,0,40,9999,0.065000,0,0,0.000000,5,0.000000,0.000000,23.716646,0,0,0,0,0,0,0
4,49999,48,40000,0,0,40,9999,0.100000,0,0,0.000000,5,0.000000,0.000000,0.168054,0,0,0,0,0,0,0
4,49999,49,40000,80,0,40,9999,0.100000,0,0,0.000000,5,0.000000,0.000000,0.166446,0,0,0,0,0,0,0
4,49999,50,40000,0,0,40,9999,0.100000,0,0,0.000000,5,0.000000,0.000000,0.284223,0,0,0,0,0,0,0
4,49999,51,40000,86,20000,40,9999,0.100000,0,0,0.000000,5,0.000000,0.000000,2.107520,0,0,0,0,0,0,0
4,49999,52,40000,80,0,40,9999,0.100000,0,0,0.000000,5,0.000000,0.000000,0.196331,0,0,0,0,0,0,0
4,49999,53,40000,80,0,40,9999,0.100000,0,0,0.000000,5,0.000000,0.000000,0.391675,0,0,0,0,0,0,0
4,49999,54,40000,86,20000,40,9999,0.100000,0,0,0.000000,5,0.000000,0.000000,0.109519,0,0,0,0,0,0,0
4,49999,55,40000,5,10000,40,9999,0.100000,0,0,0.000000,5,0.000000,0.000000,0.493621,0,0,0,0,0,0,0
4,49999,56,40000,86,20000,40,9999,0.100000,0,0,0.000000,5,0.000000,0.000000,0.086355,0,0,0,0,0,0,0
4,49999,57,40000,5,10000,40,9999,0.100000,0,0,0.000000,5,0.000000,0.000000,0.640041,0,0,0,0,0,0,0
4,49999,58,40000,28,10000,40,9999,0.100000,0,0,0.000000,5,0.000000,0.000000,0.089280,0,0,0,0,0,0,0
4,49999,59,40000,80,0,40,9999,0.100000,0,0,0.000000,5,0.000000,0.000000,4.788746,0,0,0,0,0,0,0
4,49999,60,40000,86,20000,40,9999,0.100000,0,0,0.000000,5,0.000000,0.000000,0.174402,0,0,0,0,0,0,0
4,49999,61,40000,28,10000,40,9999,0.100000,0,0,0.000000,5,0.000000,0.000000,0.436646,0,0,0,0,0,0,0
4,49999,62,40000,0,0,40,9999,0.100000,0,0,0.000000,5,0.000000,0.000000,0.751105,0,0,0,0,0,0,0
4,49999,63,40000,86,20000,40,9999,0.100000,0,0,0.000000,5,0.000000,0.000000,0.081841,0,0,0,0,0,0,0
4,49999,64,40000,28,10000,40,9999,0.100000,0,0,0.000000,5,0.000000,0.000000,0.988738,0,0,0,0,0,0,0
4,49999,65,40000,80,0,49,9999,0.100000,0,0,0.000000,5,2.000000,0.000000,3.134582,0,0,0,0,0,0,0
4,49999,66,40000,80,0,40,9999,0.100000,0,0,0.000000,5,0.000000,0.000000,0.089027,0,0,0,0,0,0,0
4,49999,67,40000,28,10000,40,9999,0.100000,0,0,0.000000,5,0.000000,0.000000,0.130666,0,0,0,0,0,0,0
4,49999,68,40000,0,0,40,9999,0.100000,0,0,0.000000,5,0.000000,0.000000,0.340076,0,0,0,0,0,0,0
4,49999,69,40000,0,0,40,9999,0.100000,0,0,0.000000,5,0.000000,0.000000,0.730829,0,0,0,0,0,0,0
4,49999,70,40000,80,0,49,9999,0.100000,0,0,0.000000,5,1.000000,0.000000,2.737392,0,0,0,0,0,0,0
4,49999,71,40000,86,20000,40,9999,0.100000,0,0,0.000000,5,0.000000,0.000000,0.536410,0,0,0,0,0,0,0
4,49999,72,40000,28,10000,40,9999,0.100000,0,0,0.000000,5,0.000000,0.000000,0.093296,0,0,0,0,0,0,0
4,49999,73,40000,0,0,40,9999,0.100000,0,0,0.000000,5,0.000000,0.000000,0.380130,0,0,0,0,0,0,0
4,49999,74,40000,86,20000,49,9999,0.100000,0,0,0.000000,5,2.000000,0.000000,10.030049,0,0,0,0,0,0,0
4,49999,75,40000,28,10000,49,9999,0.100000,0,0,0.000000,5,1.000000,0.000000,6.859981,0,0,0,0,0,0,0
4,49999,76,40000,80,0,40,9999,0.100000,0,0,0.000000,5,0.000000,0.000000,0.757792,0,0,0,0,0,0,0
4,49999,77,40000,0,0,40,9999,0.100000,0,0,0.000000,5,0.000000,0.000000,1.433104,0,0,0,0,0,0,0
4,49999,78,40000,0,0,49,9999,0.100000,0,0,0.000000,5,1.000000,0.000000,2.904749,0,0,0,0,0,0,0
4,49999,79,40000,28,10000,40,9999,0.100000,0,0,0.000000,5,0.000000,0.000000,0.163605,0,0,0,0,0,0,0
4,49999,80,40000,0,0,40,9999,0.100000,0,0,0.000000,5,0.000000,0.000000,0.407021,0,0,0,0,0,0,0
4,49999,81,40000,28,10000,49,9999,0.100000,0,0,0.000000,5,1.000000,0.000000,2.604445,0,0,0,0,0,0,0
4,49999,82,40000,0,0,40,9999,0.100000,0,0,0.000000,5,0.000000,0.000000,0.082284,0,0,0,0,0,0,0
4,49999,83,40000,28,10000,49,9999,0.100000,0,0,0.000000,5,1.000000,0.000000,6.763567,0,0,0,0,0,0,0
4,49999,84,40000,5,10000,49,9999,0.100000,0,0,0.000000,5,1.000000,0.000000,5.380668,0,0,0,0,0,0,0
4,49999,85,40000,86,20000,40,9999,0.100000,0,0,0.000000,5,0.000000,0.000000,0.228771,0,0,0,0,0,0,0
4,49999,86,40000,86,20000,49,9999,0.100000,0,0,0.000000,5,2.000000,0.000000,5.878359,0,0,0,0,0,0,0
4,49999,87,40000,80,0,40,9999,0.100000,0,0,0.000000,5,0.000000,0.000000,0.340942,0,0,0,0,0,0,0
4,49999,88,40000,5,10000,40,9999,0.100000,0,0,0.000000,5,0.000000,0.000000,1.902426,0,0,0,0,0,0,0
4,49999,89,40000,0,0,40,9999,0.100000,0,0,0.000000,5,0.000000,0.000000,0.367709,0,0,0,0,0,0,0
4,49999,90,40000,80,0,40,9999,0.100000,0,0,0.000000,5,0.000000,0.000000,0.583493,0,0,0,0,0,0,0
4,49999,91,40000,5,10000,40,9999,0.100000,0,0,0.000000,5,0.000000,0.000000,0.054163,0,0,0,0,0,0,0
4,49999,92,40000,86,20000,40,9999,0.100000,0,0,0.000000,5,0.000000,0.000000,0.533165,0,0,0,0,0,0,0
4,49999,93,40000,28,10000,49,9999,0.100000,0,0,0.000000,5,1.000000,0.000000,6.449545,0,0,0,0,0,0,0
4,49999,94,40000,5,10000,40,9999,0.100000,0,0,0.000000,5,0.000000,0.000000,1.053839,0,0,0,0,0,0,0
4,49999,95,40000,28,10000,40,9999,0.100000,0,0,0.000000,5,0.000000,0.000000,3.004940,0,0,0,0,0,0,0
4,49999,96,40000,86,20000,49,9999,0.100000,0,0,0.000000,5,1.000000,0.000000,5.909781,0,0,0,0,0,0,0
4,49999,97,40000,0,0,40,9999,0.100000,0,0,0.000000,5,0.000000,0.000000,1.935911,0,0,0,0,0,0,0
4,49999,98,40000,86,20000,40,9999,0.100000,0,0,0.000000,5,0.000000,0.000000,0.077476,0,0,0,0,0,0,0
4,49999,99,40000,0,0,40,9999,0.100000,0,0,0.000000,5,0.000000,0.000000,0.083896,0,0,0,0,0,0,0
5,59999,0,50000,80,0,40,9999,0.100000,0,0,0.000000,5,0.000000,0.000000,1.060169,0,0,0,0,0,0,0
5,59999,1,50000,80,0,49,9999,0.100000,0,0,0.000000,6,5.000000,0.000000,6.749044,0,0,0,0,0,0,0
5,59999,2,50000,80,0,40,9999,0.100000,0,0,0.000000,5,0.000000,0.000000,0.345473,0,0,0,0,0,0,0
5,59999,3,50000,80,0,40,9999,0.100000,0,0,0.000000,5,0.000000,0.000000,1.741254,0,0,0,0,0,0,0
5,59999,4,50000,51,40000,49,9999,0.100000,0,0,0.000000,6,1.000000,0.000000,3.721929,0,0,0,0,0,0,0
5,59999,5,50000,80,0,40,9999,0.100000,0,0,0.000000,5,0.000000,0.000000,0.421892,0,0,0,0,0,0,0
5,59999,6,50000,51,40000,40,9999,0.100000,0,0,0.000000,6,0.000000,0.000000,0.128953,0,0,0,0,0,0,0
5,59999,7,50000,86,20000,40,9999,0.100000,0,0,0.000000,6,0.000000,0.000000,0.074445,0,0,0,0,0,0,0
5,59999,8,50000,28,10000,40,9999,0.100000,0,0,0.000000,6,0.000000,0.000000,0.463538,0,0,0,0,0,0,0
5,59999,9,50000,86,20000,40,9999,0.100000,0,0,0.000000,5,0.000000,0.000000,2.809498,0,0,0,0,0,0,0
5,59999,10,50000,80,0,49,9999,0.100000,0,0,0.000000,5,3.000000,0.000000,10.387718,0,0,0,0,0,0,0
5,59999,11,50000,0,0,40,9999,0.100000,0,0,0.000000,5,0.000000,0.000000,1.078532,0,0,0,0,0,0,0
5,59999,12,50000,86,20000,40,9999,0.100000,0,0,0.000000,6,0.000000,0.000000,0.245327,0,0,0,0,0,0,0
5,59999,13,50000,80,0,40,9999,0.100000,0,0,0.000000,5,0.000000,0.000000,2.322737,0,0,0,0,0,0,0
5,59999,14,50000,0,0,40,9999,0.100000,0,0,0.000000,5,0.000000,0.000000,0.069707,0,0,0,0,0,0,0
5,59999,15,50000,80,0,49,9999,0.100000,0,0,0.000000,5,1.000000,0.000000,3.828429,0,0,0,0,0,0,0
5,59999,16,50000,0,0,49,9999,0.100000,0,0,0.000000,5,2.000000,0.000000,10.038956,0,0,0,0,0,0,0
5,59999,17,50000,80,0,40,9999,0.100000,0,0,0.000000,5,0.000000,0.000000,0.086742,0,0,0,0,0,0,0
5,59999,18,50000,28,10000,49,9999,0.100000,0,0,0.000000,5,5.000000,0.000000,6.781157,0,0,0,0,0,0,0
5,59999,19,50000,5,10000,40,9999,0.100000,0,0,0.000000,6,0.000000,0.000000,0.387172,0,0,0,0,0,0,0
5,59999,20,50000,86,20000,40,9999,0.100000,0,0,0.000000,6,0.000000,0.000000,2.144103,0,0,0,0,0,0,0
5,59999,21,50000,86,20000,40,9999,0.100000,0,0,0.000000,6,0.000000,0.000000,0.171381,0,0,0,0,0,0,0
5,59999,22,50000,5,10000,40,9999,0.100000,0,0,0.000000,6,0.000000,0.000000,0.088124,0,0,0,0,0,0,0
5,59999,23,50000,0,0,40,9999,0.100000,0,0,0.000000,6,0.000000,0.000000,0.523469,0,0,0,0,0,0,0
5,59999,24,50000,86,20000,40,9999,0.100000,0,0,0.000000,6,0.000000,0.000000,0.182519,0,0,0,0,0,0,0
5,59999,25,50000,86,20000,40,9999,0.100000,0,0,0.000000,6,0.000000,0.000000,0.550280,0,0,0,0,0,0,0
5,59999,26,50000,86,20000,49,9999,0.100000,0,0,0.000000,5,1.000000,0.000000,8.312079,0,0,0,0,0,0,0
5,59999,27,50000,86,20000,40,9999,0.100000,0,0,0.000000,5,0.000000,0.000000,0.883477,0,0,0,0,0,0,0
5,59999,28,50000,80,0,40,9999,0.100000,0,0,0.000000,5,0.000000,0.000000,1.885801,0,0,0,0,0,0,0
5,59999,29,50000,0,0,40,9999,0.100000,0,0,0.000000,5,0.000000,0.000000,0.615212,0,0,0,0,0,0,0
5,59999,30,50000,86,20000,49,9999,0.100000,0,0,0.000000,6,2.000000,0.000000,9.943996,0,0,0,0,0,0,0
5,59999,31,50000,28,10000,40,9999,0.100000,0,0,0.000000,5,0.000000,0.000000,0.118090,0,0,0,0,0,0,0
5,59999,32,50000,5,10000,49,9999,0.100000,0,0,0.000000,5,7.000000,0.000000,15.745043,0,0,0,0,0,0,0
5,59999,33,50000,51,40000,40,9999,0.100000,0,0,0.000000,6,0.000000,0.000000,0.386713,0,0,0,0,0,0,0
5,59999,34,50000,51,40000,40,9999,0.100000,0,0,0.000000,6,0.000000,0.000000,0.415887,0,0,0,0,0,0,0
5,59999,35,50000,86,20000,40,9999,0.100000,0,0,0.000000,5,0.000000,0.000000,0.430047,0,0,0,0,0,0,0
5,59999,36,50000,86,20000,40,9999,0.100000,0,0,0.000000,5,0.000000,0.000000,0.689947,0,0,0,0,0,0,0
5,59999,37,50000,5,10000,49,9999,0.100000,0,0,0.000000,5,2.000000,0.000000,7.198309,0,0,0,0,0,0,0
5,59999,38,50000,28,10000,40,9999,0.100000,0,0,0.000000,5,0.000000,0.000000,0.077299,0,0,0,0,0,0,0
5,59999,39,50000,28,10000,40,9999,0.100000,0,0,0.000000,5,0.000000,0.000000,0.210233,0,0,0,0,0,0,0
5,59999,40,50000,0,0,40,9999,0.100000,0,0,0.000000,5,0.000000,0.000000,0.795087,0,0,0,0,0,0,0
5,59999,41,50000,0,0,40,9999,0.100000,0,0,0.000000,5,0.000000,0.000000,9.157258,0,0,0,0,0,0,0
5,59999,42,50000,5,10000,49,9999,0.100000,0,0,0.000000,6,2.000000,0.000000,8.533783,0,0,0,0,0,0,0
5,59999,43,50000,0,0,49,9999,0.100000,0,0,0.000000,5,1.000000,0.000000,5.278073,0,0,0,0,0,0,0
5,59999,44,50000,5,10000,40,9999,0.100000,0,0,0.000000,5,0.000000,0.000000,0.074011,0,0,0,0,0,0,0
5,59999,45,50000,0,0,40,9999,0.100000,0,0,0.000000,5,0.000000,0.000000,0.535203,0,0,0,0,0,0,0
5,59999,46,50000,5,10000,40,9999,0.100000,0,0,0.000000,5,0.000000,0.000000,0.566879,0,0,0,0,0,0,0
5,59999,47,50000,51,40000,40,9999,0.100000,0,0,0.000000,6,0.000000,0.000000,23.730547,0,0,0,0,0,0,0
5,59999,48,50000,80,0,40,9999,0.100000,0,0,0.000000,6,0.000000,0.000000,0.176940,0,0,0,0,0,0,0
5,59999,49,50000,5,10000,40,9999,0.100000,0,0,0.000000,5,0.000000,0.000000,0.169267,0,0,0,0,0,0,0
5,59999,50,50000,80,0,40,9999,0.100000,0,0,0.000000,6,0.000000,0.000000,0.284327,0,0,0,0,0,0,0
5,59999,51,50000,0,0,49,9999,0.100000,0,0,0.000000,6,6.000000,0.000000,12.450260,0,0,0,0,0,0,0
5,59999,52,50000,80,0,40,9999,0.100000,0,0,0.000000,6,0.000000,0.000000,0.183305,0,0,0,0,0,0,0
5,59999,53,50000,86,20000,40,9999,0.100000,0,0,0.000000,6,0.000000,0.000000,0.121187,0,0,0,0,0,0,0
5,59999,54,50000,80,0,40,9999,0.100000,0,0,0.000000,6,0.000000,0.000000,0.118246,0,0,0,0,0,0,0
5,59999,55,50000,86,20000,40,9999,0.100000,0,0,0.000000,6,0.000000,0.000000,0.382107,0,0,0,0,0,0,0
5,59999,56,50000,86,20000,40,9999,0.100000,0,0,0.000000,5,0.000000,0.000000,0.085867,0,0,0,0,0,0,0
5,59999,57,50000,0,0,40,9999,0.100000,0,0,0.000000,6,0.000000,0.000000,1.273496,0,0,0,0,0,0,0
5,59999,58,50000,80,0,40,9999,0.100000,0,0,0.000000,6,0.000000,0.000000,0.090100,0,0,0,0,0,0,0
5,59999,59,50000,0,0,40,9999,0.100000,0,0,0.000000,6,0.000000,0.000000,0.731391,0,0,0,0,0,0,0
5,59999,60,50000,80,0,40,9999,0.100000,0,0,0.000000,5,0.000000,0.000000,0.143578,0,0,0,0,0,0,0
5,59999,61,50000,5,10000,40,9999,0.100000,0,0,0.000000,6,0.000000,0.000000,0.466768,0,0,0,0,0,0,0
5,59999,62,50000,86,20000,40,9999,0.100000,0,0,0.000000,6,0.000000,0.000000,0.110232,0,0,0,0,0,0,0
5,59999,63,50000,0,0,40,9999,0.100000,0,0,0.000000,5,0.000000,0.000000,0.080522,0,0,0,0,0,0,0
5,59999,64,50000,51,40000,40,9999,0.100000,0,0,0.000000,6,0.000000,0.000000,0.178178,0,0,0,0,0,0,0
5,59999,65,50000,86,20000,40,9999,0.100000,0,0,0.000000,5,0.000000,0.000000,0.568721,0,0,0,0,0,0,0
5,59999,66,50000,86,20000,40,9999,0.100000,0,0,0.000000,6,0.000000,0.000000,0.081810,0,0,0,0,0,0,0
5,59999,67,50000,86,20000,40,9999,0.100000,0,0,0.000000,6,0.000000,0.000000,0.146280,0,0,0,0,0,0,0
5,59999,68,50000,80,0,40,9999,0.100000,0,0,0.000000,6,0.000000,0.000000,2.118414,0,0,0,0,0,0,0
5,59999,69,50000,86,20000,40,9999,0.100000,0,0,0.000000,6,0.000000,0.000000,0.308461,0,0,0,0,0,0,0
5,59999,70,50000,28,10000,49,9999,0.100000,0,0,0.000000,5,1.000000,0.000000,3.415760,0,0,0,0,0,0,0
5,59999,71,50000,28,10000,40,9999,0.100000,0,0,0.000000,6,0.000000,0.000000,0.495945,0,0,0,0,0,0,0
5,59999,72,50000,0,0,40,9999,0.100000,0,0,0.000000,6,0.000000,0.000000,0.122766,0,0,0,0,0,0,0
5,59999,73,50000,80,0,40,9999,0.100000,0,0,0.000000,5,0.000000,0.000000,0.227812,0,0,0,0,0,0,0
5,59999,74,50000,80,0,49,9999,0.100000,0,0,0.000000,5,1.000000,0.000000,13.778911,0,0,0,0,0,0,0
5,59999,75,50000,80,0,49,9999,0.100000,0,0,0.000000,6,2.000000,0.000000,5.939121,0,0,0,0,0,0,0
5,59999,76,50000,86,20000,40,9999,0.100000,0,0,0.000000,6,0.000000,0.000000,0.267594,0,0,0,0,0,0,0
5,59999,77,50000,51,40000,49,9999,0.100000,0,0,0.000000,6,1.000000,0.000000,6.117961,0,0,0,0,0,0,0
5,59999,78,50000,80,0,40,9999,0.100000,0,0,0.000000,6,0.000000,0.000000,1.661356,0,0,0,0,0,0,0
5,59999,79,50000,0,0,40,9999,0.100000,0,0,0.000000,6,0.000000,0.000000,0.166847,0,0,0,0,0,0,0
5,59999,80,50000,5,10000,40,9999,0.100000,0,0,0.000000,6,0.000000,0.000000,0.408813,0,0,0,0,0,0,0
5,59999,81,50000,28,10000,49,9999,0.100000,0,0,0.000000,5,1.000000,0.000000,3.226237,0,0,0,0,0,0,0
5,59999,82,50000,28,10000,40,9999,0.100000,0,0,0.000000,6,0.000000,0.000000,0.097437,0,0,0,0,0,0,0
5,59999,83,50000,80,0,49,9999,0.100000,0,0,0.000000,5,3.000000,0.000000,19.670633,0,0,0,0,0,0,0
5,59999,84,50000,86,20000,49,9999,0.100000,0,0,0.000000,6,2.000000,0.000000,8.644040,0,0,0,0,0,0,0
5,59999,85,50000,86,20000,40,9999,0.100000,0,0,0.000000,5,0.000000,0.000000,0.229920,0,0,0,0,0,0,0
5,59999,86,50000,80,0,49,9999,0.100000,0,0,0.000000,6,2.000000,0.000000,6.812685,0,0,0,0,0,0,0
5,59999,87,50000,0,0,49,9999,0.100000,0,0,0.000000,5,5.000000,0.000000,6.827004,0,0,0,0,0,0,0
5,59999,88,50000,80,0,40,9999,0.100000,0,0,0.000000,5,0.000000,0.000000,0.210474,0,0,0,0,0,0,0
5,59999,89,50000,86,20000,40,9999,0.100000,0,0,0.000000,6,0.000000,0.000000,0.195297,0,0,0,0,0,0,0
5,59999,90,50000,5,10000,40,9999,0.100000,0,0,0.000000,5,0.000000,0.000000,0.116888,0,0,0,0,0,0,0
5,59999,91,50000,51,40000,40,9999,0.100000,0,0,0.000000,6,0.000000,0.000000,0.054091,0,0,0,0,0,0,0
5,59999,92,50000,86,20000,40,9999,0.100000,0,0,0.000000,5,0.000000,0.000000,0.796672,0,0,0,0,0,0,0
5,59999,93,50000,28,10000,49,9999,0.100000,0,0,0.000000,5,1.000000,0.000000,6.361269,0,0,0,0,0,0,0
5,59999,94,50000,28,10000,40,9999,0.100000,0,0,0.000000,5,0.000000,0.000000,1.188156,0,0,0,0,0,0,0
5,59999,95,50000,5,10000,40,9999,0.100000,0,0,0.000000,5,0.000000,0.000000,2.297630,0,0,0,0,0,0,0
5,59999,96,50000,86,20000,49,9999,0.135000,0,0,0.000000,6,2.000000,0.000000,5.588883,0,0,0,0,0,0,0
5,59999,97,50000,51,40000,40,9999,0.100000,0,0,0.000000,6,0.000000,0.000000,1.855452,0,0,0,0,0,0,0
5,59999,98,50000,86,20000,49,9999,0.100000,0,0,0.000000,6,6.000000,0.000000,13.034642,0,0,0,0,0,0,0
5,59999,99,50000,5,10000,40,9999,0.100000,0,0,0.000000,5,0.000000,0.000000,0.084334,0,0,0,0,0,0,0
6,69999,0,60000,51,40000,40,9999,0.100000,0,0,0.000000,6,0.000000,0.000000,0.266597,0,0,0,0,0,0,0
6,69999,1,60000,5,10000,49,9999,0.100000,0,0,0.000000,6,3.000000,0.000000,3.609040,0,0,0,0,0,0,0
6,69999,2,60000,28,10000,40,9999,0.100000,0,0,0.000000,6,0.000000,0.000000,0.432954,0,0,0,0,0,0,0
6,69999,3,60000,5,10000,40,9999,0.100000,0,0,0.000000,6,0.000000,0.000000,1.689661,0,0,0,0,0,0,0
6,69999,4,60000,0,0,49,9999,0.100000,0,0,0.000000,6,1.000000,0.000000,5.950258,0,0,0,0,0,0,0
6,69999,5,60000,0,0,49,9999,0.100000,0,0,0.000000,6,1.000000,0.000000,2.671542,0,0,0,0,0,0,0
6,69999,6,60000,51,40000,40,9999,0.100000,0,0,0.000000,6,0.000000,0.000000,0.112005,0,0,0,0,0,0,0
6,69999,7,60000,86,20000,40,9999,0.100000,0,0,0.000000,6,0.000000,0.000000,0.082133,0,0,0,0,0,0,0
6,69999,8,60000,51,40000,40,9999,0.100000,0,0,0.000000,6,0.000000,0.000000,0.707096,0,0,0,0,0,0,0
6,69999,9,60000,28,10000,40,9999,0.100000,0,0,0.000000,6,0.000000,0.000000,0.424921,0,0,0,0,0,0,0
6,69999,10,60000,5,10000,49,9999,0.100000,0,0,0.000000,6,2.000000,0.000000,4.917823,0,0,0,0,0,0,0
6,69999,11,60000,0,0,40,9999,0.100000,0,0,0.000000,6,0.000000,0.000000,0.871666,0,0,0,0,0,0,0
6,69999,12,60000,86,20000,49,9999,0.100000,0,0,0.000000,6,1.000000,0.000000,2.517859,0,0,0,0,0,0,0
6,69999,13,60000,0,0,40,9999,0.100000,0,0,0.000000,6,0.000000,0.000000,2.243527,0,0,0,0,0,0,0
6,69999,14,60000,86,20000,40,9999,0.100000,0,0,0.000000,6,0.000000,0.000000,0.066812,0,0,0,0,0,0,0
6,69999,15,60000,80,0,49,9999,0.100000,0,0,0.000000,6,1.000000,0.000000,13.515127,0,0,0,0,0,0,0
6,69999,16,60000,51,40000,40,9999,0.100000,0,0,0.000000,6,0.000000,0.000000,4.329181,0,0,0,0,0,0,0
6,69999,17,60000,86,20000,40,9999,0.100000,0,0,0.000000,6,0.000000,0.000000,0.087674,0,0,0,0,0,0,0
6,69999,18,60000,80,0,49,9999,0.100000,0,0,0.000000,6,3.000000,0.000000,3.537836,0,0,0,0,0,0,0
6,69999,19,60000,28,10000,49,9999,0.100000,0,0,0.000000,6,2.000000,0.000000,2.874909,0,0,0,0,0,0,0
6,69999,20,60000,28,10000,49,9999,0.100000,0,0,0.000000,6,1.000000,0.000000,1.242004,0,0,0,0,0,0,0
6,69999,21,60000,28,10000,40,9999,0.100000,0,0,0.000000,6,0.000000,0.000000,0.391550,0,0,0,0,0,0,0
6,69999,22,60000,80,0,40,9999,0.100000,0,0,0.000000,6,0.000000,0.000000,0.087717,0,0,0,0,0,0,0
6,69999,23,60000,86,20000,40,9999,0.100000,0,0,0.000000,6,0.000000,0.000000,0.468617,0,0,0,0,0,0,0
6,69999,24,60000,51,40000,40,9999,0.100000,0,0,0.000000,6,0.000000,0.000000,0.189544,0,0,0,0,0,0,0
6,69999,25,60000,5,10000,40,9999,0.100000,0,0,0.000000,6,0.000000,0.000000,0.376708,0,0,0,0,0,0,0
6,69999,26,60000,80,0,49,9999,0.100000,0,0,0.000000,6,3.000000,0.000000,15.254647,0,0,0,0,0,0,0
6,69999,27,60000,28,10000,40,9999,0.100000,0,0,0.000000,6,0.000000,0.000000,0.827630,0,0,0,0,0,0,0
6,69999,28,60000,51,40000,40,9999,0.100000,0,0,0.000000,6,0.000000,0.000000,2.072962,0,0,0,0,0,0,0
6,69999,29,60000,80,0,40,9999,0.100000,0,0,0.000000,6,0.000000,0.000000,0.809101,0,0,0,0,0,0,0
6,69999,30,60000,86,20000,49,9999,0.100000,0,0,0.000000,6,3.000000,0.000000,5.741810,0,0,0,0,0,0,0
6,69999,31,60000,0,0,40,9999,0.100000,0,0,0.000000,6,0.000000,0.000000,0.131548,0,0,0,0,0,0,0
6,69999,32,60000,51,40000,40,9999,0.100000,0,0,0.000000,6,0.000000,0.000000,0.156005,0,0,0,0,0,0,0
6,69999,33,60000,80,0,40,9999,0.100000,0,0,0.000000,6,0.000000,0.000000,0.102347,0,0,0,0,0,0,0
6,69999,34,60000,0,0,40,9999,0.100000,0,0,0.000000,6,0.000000,0.000000,0.408930,0,0,0,0,0,0,0
6,69999,35,60000,28,10000,40,9999,0.100000,0,0,0.000000,6,0.000000,0.000000,0.418106,0,0,0,0,0,0,0
6,69999,36,60000,86,20000,40,9999,0.100000,0,0,0.000000,6,0.000000,0.000000,0.329017,0,0,0,0,0,0,0
6,69999,37,60000,28,10000,40,9999,0.100000,0,0,0.000000,6,0.000000,0.000000,0.406187,0,0,0,0,0,0,0
6,69999,38,60000,80,0,40,9999,0.100000,0,0,0.000000,6,0.000000,0.000000,0.076262,0,0,0,0,0,0,0
6,69999,39,60000,51,40000,40,9999,0.100000,0,0,0.000000,6,0.000000,0.000000,0.310621,0,0,0,0,0,0,0
6,69999,40,60000,0,0,40,9999,0.100000,0,0,0.000000,6,0.000000,0.000000,2.609859,0,0,0,0,0,0,0
6,69999,41,60000,28,10000,40,9999,0.100000,0,0,0.000000,6,0.000000,0.000000,2.312610,0,0,0,0,0,0,0
6,69999,42,60000,28,10000,40,9999,0.100000,0,0,0.000000,6,0.000000,0.000000,1.154574,0,0,0,0,0,0,0
6,69999,43,60000,80,0,40,9999,0.100000,0,0,0.000000,6,0.000000,0.000000,1.910844,0,0,0,0,0,0,0
6,69999,44,60000,86,20000,40,9999,0.100000,0,0,0.000000,6,0.000000,0.000000,0.068047,0,0,0,0,0,0,0
6,69999,45,60000,28,10000,49,9999,0.100000,0,0,0.000000,6,2.000000,0.000000,2.812276,0,0,0,0,0,0,0
6,69999,46,60000,51,40000,49,9999,0.100000,0,0,0.000000,6,3.000000,0.000000,3.315066,0,0,0,0,0,0,0
6,69999,47,60000,28,10000,40,9999,0.100000,0,0,0.000000,6,0.000000,0.000000,23.880625,0,0,0,0,0,0,0
6,69999,48,60000,28,10000,49,9999,0.100000,0,0,0.000000,6,1.000000,0.000000,3.116486,0,0,0,0,0,0,0
6,69999,49,60000,28,10000,40,9999,0.100000,0,0,0.000000,6,0.000000,0.000000,0.162881,0,0,0,0,0,0,0
6,69999,50,60000,0,0,40,9999,0.100000,0,0,0.000000,6,0.000000,0.000000,0.256166,0,0,0,0,0,0,0
6,69999,51,60000,28,10000,40,9999,0.100000,0,0,0.000000,6,0.000000,0.000000,1.015722,0,0,0,0,0,0,0
6,69999,52,60000,51,40000,40,9999,0.100000,0,0,0.000000,6,0.000000,0.000000,0.173774,0,0,0,0,0,0,0
6,69999,53,60000,28,10000,40,9999,0.100000,0,0,0.000000,6,0.000000,0.000000,0.108725,0,0,0,0,0,0,0
6,69999,54,60000,28,10000,40,9999,0.100000,0,0,0.000000,6,0.000000,0.000000,0.554302,0,0,0,0,0,0,0
6,69999,55,60000,28,10000,40,9999,0.100000,0,0,0.000000,6,0.000000,0.000000,0.374735,0,0,0,0,0,0,0
6,69999,56,60000,28,10000,40,9999,0.100000,0,0,0.000000,6,0.000000,0.000000,0.084082,0,0,0,0,0,0,0
6,69999,57,60000,0,0,40,9999,0.100000,0,0,0.000000,6,0.000000,0.000000,1.371801,0,0,0,0,0,0,0
6,69999,58,60000,0,0,40,9999,0.100000,0,0,0.000000,6,0.000000,0.000000,0.087003,0,0,0,0,0,0,0
6,69999,59,50000,0,0,49,19999,0.100000,0,0,0.000000,6,13.000000,0.000000,15.659657,0,0,0,0,0,0,0
6,69999,60,60000,28,10000,40,9999,0.100000,0,0,0.000000,6,0.000000,0.000000,0.132995,0,0,0,0,0,0,0
6,69999,61,60000,0,0,49,9999,0.100000,0,0,0.000000,6,2.000000,0.000000,3.091853,0,0,0,0,0,0,0
6,69999,62,60000,28,10000,40,9999,0.100000,0,0,0.000000,6,0.000000,0.000000,0.184962,0,0,0,0,0,0,0
6,69999,63,60000,86,20000,40,9999,0.100000,0,0,0.000000,6,0.000000,0.000000,0.083228,0,0,0,0,0,0,0
6,69999,64,60000,51,40000,40,9999,0.100000,0,0,0.000000,6,0.000000,0.000000,0.237831,0,0,0,0,0,0,0
6,69999,65,60000,28,10000,40,9999,0.100000,0,0,0.000000,6,0.000000,0.000000,0.408856,0,0,0,0,0,0,0
6,69999,66,60000,86,20000,40,9999,0.100000,0,0,0.000000,6,0.000000,0.000000,0.070368,0,0,0,0,0,0,0
6,69999,67,60000,28,10000,40,9999,0.100000,0,0,0.000000,6,0.000000,0.000000,0.364159,0,0,0,0,0,0,0
6,69999,68,60000,28,10000,40,9999,0.100000,0,0,0.000000,6,0.000000,0.000000,6.574925,0,0,0,0,0,0,0
6,69999,69,60000,28,10000,40,9999,0.100000,0,0,0.000000,6,0.000000,0.000000,0.338370,0,0,0,0,0,0,0
6,69999,70,60000,28,10000,49,9999,0.100000,0,0,0.000000,6,1.000000,0.000000,2.456122,0,0,0,0,0,0,0
6,69999,71,60000,51,40000,40,9999,0.100000,0,0,0.000000,6,0.000000,0.000000,0.863210,0,0,0,0,0,0,0
6,69999,72,60000,80,0,40,9999,0.100000,0,0,0.000000,6,0.000000,0.000000,0.091864,0,0,0,0,0,0,0
6,69999,73,60000,5,10000,40,9999,0.100000,0,0,0.000000,6,0.000000,0.000000,0.204396,0,0,0,0,0,0,0
6,69999,74,60000,80,0,40,9999,0.100000,0,0,0.000000,6,0.000000,0.000000,6.085187,0,0,0,0,0,0,0
6,69999,75,60000,80,0,40,9999,0.100000,0,0,0.000000,6,0.000000,0.000000,1.653481,0,0,0,0,0,0,0
6,69999,76,60000,80,0,40,9999,0.100000,0,0,0.000000,6,0.000000,0.000000,0.492846,0,0,0,0,0,0,0
6,69999,77,60000,86,20000,40,9999,0.100000,0,0,0.000000,6,0.000000,0.000000,8.913838,0,0,0,0,0,0,0
6,69999,78,60000,0,0,40,9999,0.100000,0,0,0.000000,6,0.000000,0.000000,1.695516,0,0,0,0,0,0,0
6,69999,79,60000,28,10000,40,9999,0.100000,0,0,0.000000,6,0.000000,0.000000,0.170539,0,0,0,0,0,0,0
6,69999,80,60000,51,40000,40,9999,0.100000,0,0,0.000000,6,0.000000,0.000000,0.380292,0,0,0,0,0,0,0
6,69999,81,60000,0,0,49,9999,0.100000,0,0,0.000000,6,1.000000,0.000000,4.109737,0,0,0,0,0,0,0
6,69999,82,60000,86,20000,40,9999,0.100000,0,0,0.000000,6,0.000000,0.000000,0.083300,0,0,0,0,0,0,0
6,69999,83,60000,28,10000,49,9999,0.100000,0,0,0.000000,6,4.000000,0.000000,7.221380,0,0,0,0,0,0,0
6,69999,84,60000,0,0,40,9999,0.100000,0,0,0.000000,6,0.000000,0.000000,14.630209,0,0,0,0,0,0,0
6,69999,85,60000,28,10000,40,9999,0.100000,0,0,0.000000,6,0.000000,0.000000,0.242268,0,0,0,0,0,0,0
6,69999,86,60000,28,10000,49,9999,0.100000,0,0,0.000000,6,5.000000,0.000000,13.540008,0,0,0,0,0,0,0
6,69999,87,60000,28,10000,49,9999,0.100000,0,0,0.000000,6,3.000000,0.000000,3.708499,0,0,0,0,0,0,0
6,69999,88,60000,28,10000,40,9999,0.100000,0,0,0.000000,6,0.000000,0.000000,0.132509,0,0,0,0,0,0,0
6,69999,89,60000,0,0,40,9999,0.100000,0,0,0.000000,6,0.000000,0.000000,0.861188,0,0,0,0,0,0,0
6,69999,90,60000,51,40000,40,9999,0.065000,0,0,0.000000,6,0.000000,0.000000,0.217620,0,0,0,0,0,0,0
6,69999,91,60000,86,20000,40,9999,0.100000,0,0,0.000000,6,0.000000,0.000000,0.070807,0,0,0,0,0,0,0
6,69999,92,60000,80,0,40,9999,0.100000,0,0,0.000000,6,0.000000,0.000000,0.254814,0,0,0,0,0,0,0
6,69999,93,60000,0,0,49,9999,0.100000,0,0,0.000000,6,1.000000,0.000000,1.978408,0,0,0,0,0,0,0
6,69999,94,60000,5,10000,40,9999,0.100000,0,0,0.000000,6,0.000000,0.000000,0.639566,0,0,0,0,0,0,0
6,69999,95,60000,51,40000,40,9999,0.100000,0,0,0.000000,6,0.000000,0.000000,2.252281,0,0,0,0,0,0,0
6,69999,96,60000,28,10000,40,9999,0.100000,0,0,0.000000,6,0.000000,0.000000,2.572519,0,0,0,0,0,0,0
6,69999,97,60000,28,10000,40,9999,0.100000,0,0,0.000000,6,0.000000,0.000000,1.876084,0,0,0,0,0,0,0
6,69999,98,60000,28,10000,40,9999,0.100000,0,0,0.000000,6,0.000000,0.000000,0.074258,0,0,0,0,0,0,0
6,69999,99,60000,28,10000,49,9999,0.100000,0,0,0.000000,6,5.000000,0.000000,11.472054,0,0,0,0,0,0,0
7,79999,0,70000,5,10000,40,9999,0.100000,0,0,0.000000,6,0.000000,0.000000,0.250164,0,0,0,0,0,0,0
7,79999,1,70000,0,0,49,9999,0.100000,0,0,0.000000,6,3.000000,0.000000,15.727988,0,0,0,0,0,0,0
7,79999,2,70000,51,40000,40,9999,0.100000,0,0,0.000000,6,0.000000,0.000000,0.352773,0,0,0,0,0,0,0
7,79999,3,70000,5,10000,40,9999,0.100000,0,0,0.000000,6,0.000000,0.000000,3.106372,0,0,0,0,0,0,0
7,79999,4,70000,5,10000,40,9999,0.100000,0,0,0.000000,6,0.000000,0.000000,1.368439,0,0,0,0,0,0,0
7,79999,5,70000,51,40000,40,9999,0.100000,0,0,0.000000,6,0.000000,0.000000,0.770672,0,0,0,0,0,0,0
7,79999,6,70000,5,10000,40,9999,0.100000,0,0,0.000000,6,0.000000,0.000000,0.108304,0,0,0,0,0,0,0
7,79999,7,70000,80,0,40,9999,0.100000,0,0,0.000000,6,0.000000,0.000000,0.090910,0,0,0,0,0,0,0
7,79999,8,70000,51,40000,40,9999,0.100000,0,0,0.000000,6,0.000000,0.000000,0.319377,0,0,0,0,0,0,0
7,79999,9,70000,86,20000,40,9999,0.100000,0,0,0.000000,6,0.000000,0.000000,0.373954,0,0,0,0,0,0,0
7,79999,10,70000,80,0,49,9999,0.100000,0,0,0.000000,6,8.000000,0.000000,12.209286,0,0,0,0,0,0,0
7,79999,11,70000,80,0,40,9999,0.100000,0,0,0.000000,6,0.000000,0.000000,0.452569,0,0,0,0,0,0,0
7,79999,12,70000,5,10000,40,9999,0.100000,0,0,0.000000,6,0.000000,0.000000,0.149472,0,0,0,0,0,0,0
7,79999,13,70000,5,10000,40,9999,0.100000,0,0,0.000000,6,0.000000,0.000000,2.300330,0,0,0,0,0,0,0
7,79999,14,70000,28,10000,40,9999,0.100000,0,0,0.000000,6,0.000000,0.000000,0.065882,0,0,0,0,0,0,0
7,79999,15,70000,86,20000,49,9999,0.100000,0,0,0.000000,6,4.000000,0.000000,9.543699,0,0,0,0,0,0,0
7,79999,16,70000,51,40000,40,9999,0.065000,0,0,0.000000,6,0.000000,0.000000,0.840620,0,0,0,0,0,0,0
7,79999,17,70000,51,40000,40,9999,0.100000,0,0,0.000000,6,0.000000,0.000000,0.085103,0,0,0,0,0,0,0
7,79999,18,70000,28,10000,0,9999,0.100000,0,0,0.000000,6,0.000000,0.000000,8.421652,0,0,0,0,1,0,0
7,79999,19,70000,5,10000,40,9999,0.100000,0,0,0.000000,6,0.000000,0.000000,2.841190,0,0,0,0,0,0,0
7,79999,20,70000,86,20000,40,9999,0.100000,0,0,0.000000,6,0.000000,0.000000,1.177202,0,0,0,0,0,0,0
7,79999,21,70000,51,40000,40,9999,0.100000,0,0,0.000000,6,0.000000,0.000000,0.188590,0,0,0,0,0,0,0
7,79999,22,70000,80,0,40,9999,0.100000,0,0,0.000000,6,0.000000,0.000000,0.070910,0,0,0,0,0,0,0
7,79999,23,70000,5,10000,40,9999,0.100000,0,0,0.000000,6,0.000000,0.000000,0.479077,0,0,0,0,0,0,0
7,79999,24,70000,28,10000,40,9999,0.100000,0,0,0.000000,6,0.000000,0.000000,0.204547,0,0,0,0,0,0,0
7,79999,25,70000,51,40000,40,9999,0.100000,0,0,0.000000,6,0.000000,0.000000,0.326062,0,0,0,0,0,0,0
7,79999,26,70000,86,20000,49,9999,0.100000,0,0,0.000000,6,3.000000,0.000000,7.816775,0,0,0,0,0,0,0
7,79999,27,70000,5,10000,40,9999,0.100000,0,0,0.000000,6,0.000000,0.000000,1.004995,0,0,0,0,0,0,0
7,79999,28,70000,80,0,40,9999,0.100000,0,0,0.000000,6,0.000000,0.000000,2.000174,0,0,0,0,0,0,0
7,79999,29,70000,51,40000,40,9999,0.100000,0,0,0.000000,6,0.000000,0.000000,0.319791,0,0,0,0,0,0,0
7,79999,30,70000,0,0,40,9999,0.100000,0,0,0.000000,6,0.000000,0.000000,0.165081,0,0,0,0,0,0,0
7,79999,31,70000,80,0,40,9999,0.100000,0,0,0.000000,6,0.000000,0.000000,0.113682,0,0,0,0,0,0,0
7,79999,32,70000,0,0,40,9999,0.100000,0,0,0.000000,6,0.000000,0.000000,0.154451,0,0,0,0,0,0,0
7,79999,33,70000,28,10000,40,9999,0.100000,0,0,0.000000,6,0.000000,0.000000,0.099544,0,0,0,0,0,0,0
7,79999,34,70000,0,0,40,9999,0.100000,0,0,0.000000,6,0.000000,0.000000,0.418181,0,0,0,0,0,0,0
7,79999,35,70000,28,10000,40,9999,0.100000,0,0,0.000000,6,0.000000,0.000000,0.382064,0,0,0,0,0,0,0
7,79999,36,70000,0,0,40,9999,0.100000,0,0,0.000000,6,0.000000,0.000000,0.321491,0,0,0,0,0,0,0
7,79999,37,70000,28,10000,40,9999,0.100000,0,0,0.000000,6,0.000000,0.000000,0.261187,0,0,0,0,0,0,0
7,79999,38,70000,86,20000,40,9999,0.100000,0,0,0.000000,6,0.000000,0.000000,0.075099,0,0,0,0,0,0,0
7,79999,39,70000,0,0,40,9999,0.100000,0,0,0.000000,6,0.000000,0.000000,0.170284,0,0,0,0,0,0,0
7,79999,40,70000,51,40000,49,9999,0.100000,0,0,0.000000,6,9.000000,0.000000,19.251275,0,0,0,0,0,0,0
7,79999,41,70000,5,10000,49,9999,0.100000,0,0,0.000000,6,3.000000,0.000000,5.868188,0,0,0,0,0,0,0
7,79999,42,70000,51,40000,49,9999,0.100000,0,0,0.000000,6,9.000000,0.000000,26.404529,0,0,0,0,0,0,0
7,79999,43,70000,5,10000,40,9999,0.100000,0,0,0.000000,6,0.000000,0.000000,0.926103,0,0,0,0,0,0,0
7,79999,44,70000,5,10000,40,9999,0.100000,0,0,0.000000,6,0.000000,0.000000,0.073111,0,0,0,0,0,0,0
7,79999,45,70000,51,40000,40,9999,0.100000,0,0,0.000000,6,0.000000,0.000000,1.232987,0,0,0,0,0,0,0
7,79999,46,70000,0,0,40,9999,0.100000,0,0,0.000000,6,0.000000,0.000000,0.347451,0,0,0,0,0,0,0
7,79999,47,70000,51,40000,40,9999,0.100000,0,0,0.000000,6,0.000000,0.000000,23.822336,0,0,0,0,0,0,0
7,79999,48,70000,0,0,40,9999,0.100000,0,0,0.000000,6,0.000000,0.000000,0.299854,0,0,0,0,0,0,0
7,79999,49,70000,5,10000,40,9999,0.100000,0,0,0.000000,6,0.000000,0.000000,0.125336,0,0,0,0,0,0,0
7,79999,50,70000,5,10000,49,9999,0.100000,0,0,0.000000,6,2.000000,0.000000,6.622493,0,0,0,0,0,0,0
7,79999,51,70000,80,0,40,9999,0.100000,0,0,0.000000,6,0.000000,0.000000,0.817204,0,0,0,0,0,0,0
7,79999,52,70000,28,10000,40,9999,0.100000,0,0,0.000000,6,0.000000,0.000000,0.192411,0,0,0,0,0,0,0
7,79999,53,70000,51,40000,40,9999,0.100000,0,0,0.000000,6,0.000000,0.000000,0.102792,0,0,0,0,0,0,0
7,79999,54,70000,28,10000,40,9999,0.100000,0,0,0.000000,6,0.000000,0.000000,0.506314,0,0,0,0,0,0,0
7,79999,55,70000,28,10000,40,9999,0.100000,0,0,0.000000,6,0.000000,0.000000,0.338267,0,0,0,0,0,0,0
7,79999,56,70000,51,40000,40,9999,0.100000,0,0,0.000000,6,0.000000,0.000000,0.087147,0,0,0,0,0,0,0
7,79999,57,70000,86,20000,40,9999,0.100000,0,0,0.000000,6,0.000000,0.000000,0.300774,0,0,0,0,0,0,0
7,79999,58,70000,5,10000,40,9999,0.100000,0,0,0.000000,6,0.000000,0.000000,0.116280,0,0,0,0,0,0,0
7,79999,59,70000,28,10000,40,9999,0.100000,0,0,0.000000,6,0.000000,0.000000,0.915764,0,0,0,0,0,0,0
7,79999,60,70000,28,10000,40,9999,0.100000,0,0,0.000000,6,0.000000,0.000000,0.148128,0,0,0,0,0,0,0
7,79999,61,70000,0,0,40,9999,0.100000,0,0,0.000000,6,0.000000,0.000000,2.030768,0,0,0,0,0,0,0
7,79999,62,70000,28,10000,40,9999,0.100000,0,0,0.000000,6,0.000000,0.000000,0.082328,0,0,0,0,0,0,0
7,79999,63,70000,0,0,49,9999,0.100000,0,0,0.000000,6,7.000000,0.000000,15.959589,0,0,0,0,0,0,0
7,79999,64,70000,0,0,40,9999,0.100000,0,0,0.000000,6,0.000000,0.000000,0.103626,0,0,0,0,0,0,0
7,79999,65,70000,80,0,40,9999,0.100000,0,0,0.000000,6,0.000000,0.000000,0.366450,0,0,0,0,0,0,0
7,79999,66,70000,28,10000,40,9999,0.100000,0,0,0.000000,6,0.000000,0.000000,0.102402,0,0,0,0,0,0,0
7,79999,67,70000,28,10000,40,9999,0.100000,0,0,0.000000,6,0.000000,0.000000,0.213016,0,0,0,0,0,0,0
7,79999,68,70000,28,10000,40,9999,0.100000,0,0,0.000000,6,0.000000,0.000000,2.738147,0,0,0,0,0,0,0
7,79999,69,70000,28,10000,40,9999,0.100000,0,0,0.000000,6,0.000000,0.000000,0.339809,0,0,0,0,0,0,0
7,79999,70,70000,51,40000,40,9999,0.100000,0,0,0.000000,6,0.000000,0.000000,0.870589,0,0,0,0,0,0,0
7,79999,71,70000,28,10000,40,9999,0.100000,0,0,0.000000,6,0.000000,0.000000,0.555765,0,0,0,0,0,0,0
7,79999,72,70000,28,10000,40,9999,0.100000,0,0,0.000000,6,0.000000,0.000000,0.122978,0,0,0,0,0,0,0
7,79999,73,70000,51,40000,40,9999,0.100000,0,0,0.000000,6,0.000000,0.000000,0.213348,0,0,0,0,0,0,0
7,79999,74,70000,51,40000,40,9999,0.100000,0,0,0.000000,6,0.000000,0.000000,3.111411,0,0,0,0,0,0,0
7,79999,75,70000,80,0,40,9999,0.100000,0,0,0.000000,6,0.000000,0.000000,1.018427,0,0,0,0,0,0,0
7,79999,76,70000,86,20000,40,9999,0.100000,0,0,0.000000,6,0.000000,0.000000,0.484689,0,0,0,0,0,0,0
7,79999,77,70000,0,0,49,9999,0.100000,0,0,0.000000,6,1.000000,0.000000,6.042703,0,0,0,0,0,0,0
7,79999,78,70000,0,0,40,9999,0.100000,0,0,0.000000,6,0.000000,0.000000,1.682279,0,0,0,0,0,0,0
7,79999,79,70000,28,10000,40,9999,0.100000,0,0,0.000000,6,0.000000,0.000000,0.138391,0,0,0,0,0,0,0
7,79999,80,70000,28,10000,40,9999,0.100000,0,0,0.000000,6,0.000000,0.000000,0.395285,0,0,0,0,0,0,0
7,79999,81,70000,5,10000,40,9999,0.100000,0,0,0.000000,6,0.000000,0.000000,0.683534,0,0,0,0,0,0,0
7,79999,82,70000,86,20000,40,9999,0.100000,0,0,0.000000,6,0.000000,0.000000,0.085022,0,0,0,0,0,0,0
7,79999,83,70000,0,0,40,9999,0.100000,0,0,0.000000,6,0.000000,0.000000,0.355165,0,0,0,0,0,0,0
7,79999,84,70000,5,10000,40,9999,0.100000,0,0,0.000000,6,0.000000,0.000000,18.971288,0,0,0,0,0,0,0
7,79999,85,70000,5,10000,40,9999,0.100000,0,0,0.000000,6,0.000000,0.000000,0.245907,0,0,0,0,0,0,0
7,79999,86,70000,51,40000,40,9999,0.100000,0,0,0.000000,6,0.000000,0.000000,6.147761,0,0,0,0,0,0,0
7,79999,87,70000,51,40000,9,9999,0.100000,0,0,0.000000,6,3.000000,0.000000,11.613713,0,0,0,0,1,0,0
7,79999,88,70000,86,20000,40,9999,0.100000,0,0,0.000000,6,0.000000,0.000000,1.796119,0,0,0,0,0,0,0
7,79999,89,70000,28,10000,40,9999,0.100000,0,0,0.000000,6,0.000000,0.000000,0.404913,0,0,0,0,0,0,0
7,79999,90,70000,80,0,40,9999,0.100000,0,0,0.000000,6,0.000000,0.000000,0.120970,0,0,0,0,0,0,0
7,79999,91,70000,51,40000,40,9999,0.100000,0,0,0.000000,6,0.000000,0.000000,0.063889,0,0,0,0,0,0,0
7,79999,92,70000,0,0,40,9999,0.100000,0,0,0.000000,6,0.000000,0.000000,0.517030,0,0,0,0,0,0,0
7,79999,93,70000,28,10000,40,9999,0.100000,0,0,0.000000,6,0.000000,0.000000,0.246809,0,0,0,0,0,0,0
7,79999,94,70000,80,0,40,9999,0.100000,0,0,0.000000,6,0.000000,0.000000,2.431232,0,0,0,0,0,0,0
7,79999,95,70000,28,10000,40,9999,0.100000,0,0,0.000000,6,0.000000,0.000000,0.427989,0,0,0,0,0,0,0
7,79999,96,70000,5,10000,40,9999,0.100000,0,0,0.000000,6,0.000000,0.000000,0.110474,0,0,0,0,0,0,0
7,79999,97,70000,5,10000,40,9999,0.100000,0,0,0.000000,6,0.000000,0.000000,1.807703,0,0,0,0,0,0,0
7,79999,98,70000,5,10000,40,9999,0.100000,0,0,0.000000,6,0.000000,0.000000,0.074223,0,0,0,0,0,0,0
7,79999,99,70000,51,40000,40,9999,0.100000,0,0,0.000000,6,0.000000,0.000000,0.078484,0,0,0,0,0,0,0
8,89999,0,80000,86,20000,40,9999,0.100000,0,0,0.000000,6,0.000000,0.000000,0.280948,0,0,0,0,0,0,0
8,89999,1,80000,51,40000,49,9999,0.100000,0,0,0.000000,6,1.000000,0.000000,6.354852,0,0,0,0,0,0,0
8,89999,2,80000,86,20000,40,9999,0.100000,0,0,0.000000,6,0.000000,0.000000,0.375942,0,0,0,0,0,0,0
8,89999,3,80000,0,0,40,9999,0.100000,0,0,0.000000,6,0.000000,0.000000,4.025868,0,0,0,0,0,0,0
8,89999,4,80000,51,40000,40,9999,0.100000,0,0,0.000000,6,0.000000,0.000000,1.340262,0,0,0,0,0,0,0
8,89999,5,80000,5,10000,40,9999,0.100000,0,0,0.000000,6,0.000000,0.000000,0.914241,0,0,0,0,0,0,0
8,89999,6,80000,86,20000,40,9999,0.100000,0,0,0.000000,6,0.000000,0.000000,0.106850,0,0,0,0,0,0,0
8,89999,7,80000,5,10000,40,9999,0.100000,0,0,0.000000,6,0.000000,0.000000,0.090384,0,0,0,0,0,0,0
8,89999,8,80000,5,10000,40,9999,0.100000,0,0,0.000000,6,0.000000,0.000000,0.350897,0,0,0,0,0,0,0
8,89999,9,80000,28,10000,40,9999,0.100000,0,0,0.000000,6,0.000000,0.000000,0.671122,0,0,0,0,0,0,0
8,89999,10,80000,28,10000,40,9999,0.100000,0,0,0.000000,6,0.000000,0.000000,0.133775,0,0,0,0,0,0,0
8,89999,11,80000,5,10000,40,9999,0.100000,0,0,0.000000,6,0.000000,0.000000,0.531926,0,0,0,0,0,0,0
8,89999,12,80000,80,0,40,9999,0.100000,0,0,0.000000,6,0.000000,0.000000,0.100612,0,0,0,0,0,0,0
8,89999,13,80000,86,20000,40,9999,0.100000,0,0,0.000000,6,0.000000,0.000000,2.496273,0,0,0,0,0,0,0
8,89999,14,80000,0,0,40,9999,0.100000,0,0,0.000000,6,0.000000,0.000000,0.070050,0,0,0,0,0,0,0
8,89999,15,80000,28,10000,40,9999,0.100000,0,0,0.000000,6,0.000000,0.000000,0.386358,0,0,0,0,0,0,0
8,89999,16,80000,5,10000,40,9999,0.100000,0,0,0.000000,6,0.000000,0.000000,0.841747,0,0,0,0,0,0,0
8,89999,17,80000,80,0,40,9999,0.100000,0,0,0.000000,6,0.000000,0.000000,0.085778,0,0,0,0,0,0,0
8,89999,18,80000,80,0,49,9999,0.100000,0,0,0.000000,6,4.000000,0.000000,11.780814,0,0,0,0,0,0,0
8,89999,19,80000,51,40000,40,9999,0.100000,0,0,0.000000,6,0.000000,0.000000,0.408471,0,0,0,0,0,0,0
8,89999,20,80000,51,40000,49,9999,0.100000,0,0,0.000000,6,1.000000,0.000000,1.715178,0,0,0,0,0,0,0
8,89999,21,80000,0,0,40,9999,0.100000,0,0,0.000000,6,0.000000,0.000000,0.165364,0,0,0,0,0,0,0
8,89999,22,80000,86,20000,40,9999,0.100000,0,0,0.000000,6,0.000000,0.000000,0.077327,0,0,0,0,0,0,0
8,89999,23,80000,28,10000,40,9999,0.100000,0,0,0.000000,6,0.000000,0.000000,0.526149,0,0,0,0,0,0,0
8,89999,24,80000,5,10000,40,9999,0.100000,0,0,0.000000,6,0.000000,0.000000,0.212600,0,0,0,0,0,0,0
8,89999,25,80000,0,0,40,9999,0.100000,0,0,0.000000,6,0.000000,0.000000,0.325562,0,0,0,0,0,0,0
8,89999,26,80000,80,0,49,9999,0.100000,0,0,0.000000,6,1.000000,0.000000,2.221131,0,0,0,0,0,0,0
8,89999,27,80000,51,40000,40,9999,0.100000,0,0,0.000000,6,0.000000,0.000000,0.951537,0,0,0,0,0,0,0
8,89999,28,80000,86,20000,40,9999,0.100000,0,0,0.000000,6,0.000000,0.000000,1.418458,0,0,0,0,0,0,0
8,89999,29,80000,28,10000,40,9999,0.100000,0,0,0.000000,6,0.000000,0.000000,0.342524,0,0,0,0,0,0,0
8,89999,30,80000,5,10000,40,9999,0.100000,0,0,0.000000,6,0.000000,0.000000,0.124750,0,0,0,0,0,0,0
8,89999,31,80000,28,10000,40,9999,0.100000,0,0,0.000000,6,0.000000,0.000000,0.112753,0,0,0,0,0,0,0
8,89999,32,80000,86,20000,40,9999,0.100000,0,0,0.000000,6,0.000000,0.000000,0.301257,0,0,0,0,0,0,0
8,89999,33,80000,80,0,40,9999,0.100000,0,0,0.000000,6,0.000000,0.000000,0.092927,0,0,0,0,0,0,0
8,89999,34,80000,28,10000,40,9999,0.100000,0,0,0.000000,6,0.000000,0.000000,0.433626,0,0,0,0,0,0,0
8,89999,35,80000,0,0,40,9999,0.100000,0,0,0.000000,6,0.000000,0.000000,0.303263,0,0,0,0,0,0,0
8,89999,36,80000,86,20000,40,9999,0.100000,0,0,0.000000,6,0.000000,0.000000,0.332217,0,0,0,0,0,0,0
8,89999,37,80000,80,0,40,9999,0.100000,0,0,0.000000,6,0.000000,0.000000,0.237684,0,0,0,0,0,0,0
8,89999,38,80000,5,10000,40,9999,0.100000,0,0,0.000000,6,0.000000,0.000000,0.075616,0,0,0,0,0,0,0
8,89999,39,80000,51,40000,40,9999,0.100000,0,0,0.000000,6,0.000000,0.000000,0.159050,0,0,0,0,0,0,0
8,89999,40,80000,5,10000,40,9999,0.100000,0,0,0.000000,6,0.000000,0.000000,0.813612,0,0,0,0,0,0,0
8,89999,41,80000,28,10000,40,9999,0.100000,0,0,0.000000,6,0.000000,0.000000,2.231630,0,0,0,0,0,0,0
8,89999,42,80000,0,0,40,9999,0.100000,0,0,0.000000,6,0.000000,0.000000,4.467573,0,0,0,0,0,0,0
8,89999,43,80000,0,0,49,9999,0.100000,0,0,0.000000,6,1.000000,0.000000,2.570965,0,0,0,0,0,0,0
8,89999,44,80000,51,40000,40,9999,0.100000,0,0,0.000000,6,0.000000,0.000000,0.075185,0,0,0,0,0,0,0
8,89999,45,80000,0,0,40,9999,0.100000,0,0,0.000000,6,0.000000,0.000000,0.168788,0,0,0,0,0,0,0
8,89999,46,80000,86,20000,40,9999,0.100000,0,0,0.000000,6,0.000000,0.000000,0.187649,0,0,0,0,0,0,0
8,89999,47,80000,0,0,40,9999,0.100000,0,0,0.000000,6,0.000000,0.000000,23.858325,0,0,0,0,0,0,0
8,89999,48,80000,0,0,49,9999,0.100000,0,0,0.000000,6,1.000000,0.000000,1.836541,0,0,0,0,0,0,0
8,89999,49,80000,80,0,40,9999,0.100000,0,0,0.000000,6,0.000000,0.000000,0.127605,0,0,0,0,0,0,0
8,89999,50,80000,0,0,40,9999,0.100000,0,0,0.000000,6,0.000000,0.000000,0.095181,0,0,0,0,0,0,0
8,89999,51,80000,51,40000,40,9999,0.100000,0,0,0.000000,6,0.000000,0.000000,1.992362,0,0,0,0,0,0,0
8,89999,52,80000,5,10000,40,9999,0.100000,0,0,0.000000,6,0.000000,0.000000,0.187181,0,0,0,0,0,0,0
8,89999,53,80000,51,40000,40,9999,0.100000,0,0,0.000000,6,0.000000,0.000000,0.098430,0,0,0,0,0,0,0
8,89999,54,80000,28,10000,40,9999,0.100000,0,0,0.000000,6,0.000000,0.000000,0.713883,0,0,0,0,0,0,0
8,89999,55,80000,5,10000,40,9999,0.100000,0,0,0.000000,6,0.000000,0.000000,0.349722,0,0,0,0,0,0,0
8,89999,56,80000,86,20000,40,9999,0.100000,0,0,0.000000,6,0.000000,0.000000,0.089196,0,0,0,0,0,0,0
8,89999,57,80000,0,0,40,9999,0.100000,0,0,0.000000,6,0.000000,0.000000,0.777727,0,0,0,0,0,0,0
8,89999,58,80000,80,0,40,9999,0.100000,0,0,0.000000,6,0.000000,0.000000,0.089357,0,0,0,0,0,0,0
8,89999,59,80000,86,20000,40,9999,0.100000,0,0,0.000000,6,0.000000,0.000000,0.894460,0,0,0,0,0,0,0
8,89999,60,80000,28,10000,40,9999,0.100000,0,0,0.000000,6,0.000000,0.000000,0.129599,0,0,0,0,0,0,0
8,89999,61,80000,51,40000,40,9999,0.100000,0,0,0.000000,6,0.000000,0.000000,0.286348,0,0,0,0,0,0,0
8,89999,62,80000,28,10000,40,9999,0.100000,0,0,0.000000,6,0.000000,0.000000,0.081960,0,0,0,0,0,0,0
8,89999,63,80000,5,10000,40,9999,0.100000,0,0,0.000000,6,0.000000,0.000000,0.083105,0,0,0,0,0,0,0
8,89999,64,80000,0,0,40,9999,0.100000,0,0,0.000000,6,0.000000,0.000000,0.097715,0,0,0,0,0,0,0
8,89999,65,80000,51,40000,40,9999,0.100000,0,0,0.000000,6,0.000000,0.000000,0.363224,0,0,0,0,0,0,0
8,89999,66,80000,0,0,40,9999,0.100000,0,0,0.000000,6,0.000000,0.000000,0.101497,0,0,0,0,0,0,0
8,89999,67,80000,28,10000,40,9999,0.100000,0,0,0.000000,6,0.000000,0.000000,0.168977,0,0,0,0,0,0,0
8,89999,68,80000,51,40000,40,9999,0.100000,0,0,0.000000,6,0.000000,0.000000,1.327720,0,0,0,0,0,0,0
8,89999,69,80000,5,10000,40,9999,0.100000,0,0,0.000000,6,0.000000,0.000000,0.529891,0,0,0,0,0,0,0
8,89999,70,80000,80,0,40,9999,0.100000,0,0,0.000000,6,0.000000,0.000000,0.822118,0,0,0,0,0,0,0
8,89999,71,80000,0,0,40,9999,0.100000,0,0,0.000000,6,0.000000,0.000000,0.583595,0,0,0,0,0,0,0
8,89999,72,80000,28,10000,40,9999,0.100000,0,0,0.000000,6,0.000000,0.000000,0.134367,0,0,0,0,0,0,0
8,89999,73,80000,0,0,40,9999,0.100000,0,0,0.000000,6,0.000000,0.000000,0.192117,0,0,0,0,0,0,0
8,89999,74,80000,0,0,49,9999,0.100000,0,0,0.000000,6,3.000000,0.000000,5.081959,0,0,0,0,0,0,0
8,89999,75,80000,5,10000,40,9999,0.100000,0,0,0.000000,6,0.000000,0.000000,0.827762,0,0,0,0,0,0,0
8,89999,76,80000,0,0,40,9999,0.100000,0,0,0.000000,6,0.000000,0.000000,1.042555,0,0,0,0,0,0,0
8,89999,77,80000,28,10000,40,9999,0.100000,0,0,0.000000,6,0.000000,0.000000,5.312143,0,0,0,0,0,0,0
8,89999,78,80000,5,10000,40,9999,0.100000,0,0,0.000000,6,0.000000,0.000000,1.683766,0,0,0,0,0,0,0
8,89999,79,80000,86,20000,40,9999,0.100000,0,0,0.000000,6,0.000000,0.000000,0.159832,0,0,0,0,0,0,0
8,89999,80,80000,51,40000,40,9999,0.100000,0,0,0.000000,6,0.000000,0.000000,0.374293,0,0,0,0,0,0,0
8,89999,81,80000,28,10000,40,9999,0.100000,0,0,0.000000,6,0.000000,0.000000,0.270491,0,0,0,0,0,0,0
8,89999,82,80000,0,0,40,9999,0.100000,0,0,0.000000,6,0.000000,0.000000,0.057211,0,0,0,0,0,0,0
8,89999,83,80000,5,10000,40,9999,0.100000,0,0,0.000000,6,0.000000,0.000000,0.263936,0,0,0,0,0,0,0
8,89999,84,80000,51,40000,40,9999,0.100000,0,0,0.000000,6,0.000000,0.000000,18.583011,0,0,0,0,0,0,0
8,89999,85,80000,0,0,40,9999,0.100000,0,0,0.000000,6,0.000000,0.000000,0.283664,0,0,0,0,0,0,0
8,89999,86,80000,5,10000,40,9999,0.100000,0,0,0.000000,6,0.000000,0.000000,6.455874,0,0,0,0,0,0,0
8,89999,87,80000,0,0,40,9999,0.100000,0,0,0.000000,6,0.000000,0.000000,22.257876,0,0,0,0,0,0,0
8,89999,88,80000,5,10000,40,9999,0.100000,0,0,0.000000,6,0.000000,0.000000,0.133169,0,0,0,0,0,0,0
8,89999,89,80000,86,20000,49,9999,0.100000,0,0,0.000000,6,9.000000,0.000000,57.272111,0,0,0,0,0,0,0
8,89999,90,80000,0,0,40,9999,0.100000,0,0,0.000000,6,0.000000,0.000000,0.127184,0,0,0,0,0,0,0
8,89999,91,80000,51,40000,40,9999,0.100000,0,0,0.000000,6,0.000000,0.000000,0.063754,0,0,0,0,0,0,0
8,89999,92,80000,86,20000,40,9999,0.100000,0,0,0.000000,6,0.000000,0.000000,0.668692,0,0,0,0,0,0,0
8,89999,93,80000,86,20000,40,9999,0.100000,0,0,0.000000,6,0.000000,0.000000,0.535531,0,0,0,0,0,0,0
8,89999,94,80000,80,0,40,9999,0.100000,0,0,0.000000,6,0.000000,0.000000,2.429506,0,0,0,0,0,0,0
8,89999,95,80000,28,10000,49,9999,0.100000,0,0,0.000000,6,1.000000,0.000000,1.917206,0,0,0,0,0,0,0
8,89999,96,80000,80,0,40,9999,0.100000,0,0,0.000000,6,0.000000,0.000000,0.849759,0,0,0,0,0,0,0
8,89999,97,80000,86,20000,40,9999,0.100000,0,0,0.000000,6,0.000000,0.000000,1.784902,0,0,0,0,0,0,0
8,89999,98,80000,5,10000,40,9999,0.100000,0,0,0.000000,6,0.000000,0.000000,0.074411,0,0,0,0,0,0,0
8,89999,99,80000,51,40000,40,9999,0.100000,0,0,0.000000,6,0.000000,0.000000,0.060079,0,0,0,0,0,0,0
9,99999,0,90000,86,20000,40,9999,0.100000,0,0,0.000000,6,0.000000,0.000000,0.346985,0,0,0,0,0,0,0
9,99999,1,90000,28,10000,49,9999,0.100000,0,0,0.000000,6,1.000000,0.000000,8.522308,0,0,0,0,0,0,0
9,99999,2,90000,86,20000,40,9999,0.100000,0,0,0.000000,6,0.000000,0.000000,0.523007,0,0,0,0,0,0,0
9,99999,3,90000,80,0,40,9999,0.100000,0,0,0.000000,6,0.000000,0.000000,1.738304,0,0,0,0,0,0,0
9,99999,4,90000,28,10000,40,9999,0.100000,0,0,0.000000,6,0.000000,0.000000,3.102432,0,0,0,0,0,0,0
9,99999,5,90000,5,10000,40,9999,0.100000,0,0,0.000000,6,0.000000,0.000000,1.099462,0,0,0,0,0,0,0
9,99999,6,90000,28,10000,40,9999,0.100000,0,0,0.000000,6,0.000000,0.000000,0.101973,0,0,0,0,0,0,0
9,99999,7,90000,86,20000,40,9999,0.100000,0,0,0.000000,6,0.000000,0.000000,0.082510,0,0,0,0,0,0,0
9,99999,8,90000,86,20000,40,9999,0.100000,0,0,0.000000,6,0.000000,0.000000,0.261935,0,0,0,0,0,0,0
9,99999,9,90000,86,20000,40,9999,0.100000,0,0,0.000000,6,0.000000,0.000000,0.721295,0,0,0,0,0,0,0
9,99999,10,90000,86,20000,40,9999,0.100000,0,0,0.000000,6,0.000000,0.000000,0.133687,0,0,0,0,0,0,0
9,99999,11,90000,5,10000,40,9999,0.100000,0,0,0.000000,6,0.000000,0.000000,0.448893,0,0,0,0,0,0,0
9,99999,12,90000,51,40000,40,9999,0.100000,0,0,0.000000,6,0.000000,0.000000,0.087018,0,0,0,0,0,0,0
9,99999,13,90000,0,0,40,9999,0.100000,0,0,0.000000,6,0.000000,0.000000,1.610631,0,0,0,0,0,0,0
9,99999,14,90000,28,10000,40,9999,0.100000,0,0,0.000000,6,0.000000,0.000000,0.069339,0,0,0,0,0,0,0
9,99999,15,90000,51,40000,40,9999,0.100000,0,0,0.000000,6,0.000000,0.000000,0.356635,0,0,0,0,0,0,0
9,99999,16,90000,86,20000,40,9999,0.100000,0,0,0.000000,6,0.000000,0.000000,0.810125,0,0,0,0,0,0,0
9,99999,17,90000,5,10000,40,9999,0.100000,0,0,0.000000,6,0.000000,0.000000,0.084359,0,0,0,0,0,0,0
9,99999,18,90000,0,0,40,9999,0.100000,0,0,0.000000,6,0.000000,0.000000,1.982725,0,0,0,0,0,0,0
9,99999,19,90000,80,0,40,9999,0.100000,0,0,0.000000,6,0.000000,0.000000,0.408476,0,0,0,0,0,0,0
9,99999,20,90000,0,0,40,9999,0.100000,0,0,0.000000,6,0.000000,0.000000,0.081213,0,0,0,0,0,0,0
9,99999,21,90000,51,40000,40,9999,0.100000,0,0,0.000000,6,0.000000,0.000000,0.164893,0,0,0,0,0,0,0
9,99999,22,90000,51,40000,40,9999,0.100000,0,0,0.000000,6,0.000000,0.000000,0.077249,0,0,0,0,0,0,0
9,99999,23,90000,0,0,40,9999,0.100000,0,0,0.000000,6,0.000000,0.000000,0.465117,0,0,0,0,0,0,0
9,99999,24,90000,28,10000,40,9999,0.100000,0,0,0.000000,6,0.000000,0.000000,0.127959,0,0,0,0,0,0,0
9,99999,25,90000,51,40000,40,9999,0.100000,0,0,0.000000,6,0.000000,0.000000,0.516977,0,0,0,0,0,0,0
9,99999,26,90000,5,10000,40,9999,0.100000,0,0,0.000000,6,0.000000,0.000000,0.486133,0,0,0,0,0,0,0
9,99999,27,90000,86,20000,40,9999,0.100000,0,0,0.000000,6,0.000000,0.000000,0.696574,0,0,0,0,0,0,0
9,99999,28,90000,80,0,40,9999,0.100000,0,0,0.000000,6,0.000000,0.000000,1.372927,0,0,0,0,0,0,0
9,99999,29,90000,86,20000,40,9999,0.100000,0,0,0.000000,6,0.000000,0.000000,0.222367,0,0,0,0,0,0,0
9,99999,30,90000,5,10000,40,9999,0.100000,0,0,0.000000,6,0.000000,0.000000,0.096318,0,0,0,0,0,0,0
9,99999,31,90000,0,0,40,9999,0.100000,0,0,0.000000,6,0.000000,0.000000,0.108796,0,0,0,0,0,0,0
9,99999,32,90000,86,20000,40,9999,0.100000,0,0,0.000000,6,0.000000,0.000000,0.638883,0,0,0,0,0,0,0
9,99999,33,90000,0,0,40,9999,0.100000,0,0,0.000000,6,0.000000,0.000000,0.093318,0,0,0,0,0,0,0
9,99999,34,90000,80,0,40,9999,0.100000,0,0,0.000000,6,0.000000,0.000000,0.332312,0,0,0,0,0,0,0
9,99999,35,90000,51,40000,40,9999,0.100000,0,0,0.000000,6,0.000000,0.000000,0.302783,0,0,0,0,0,0,0
9,99999,36,90000,80,0,40,9999,0.100000,0,0,0.000000,6,0.000000,0.000000,0.317405,0,0,0,0,0,0,0
9,99999,37,90000,5,10000,40,9999,0.100000,0,0,0.000000,6,0.000000,0.000000,0.246570,0,0,0,0,0,0,0
9,99999,38,90000,80,0,40,9999,0.100000,0,0,0.000000,6,0.000000,0.000000,0.075403,0,0,0,0,0,0,0
9,99999,39,90000,5,10000,40,9999,0.100000,0,0,0.000000,6,0.000000,0.000000,0.163164,0,0,0,0,0,0,0
9,99999,40,90000,28,10000,40,9999,0.100000,0,0,0.000000,6,0.000000,0.000000,0.799740,0,0,0,0,0,0,0
9,99999,41,90000,5,10000,40,9999,0.100000,0,0,0.000000,6,0.000000,0.000000,3.326198,0,0,0,0,0,0,0
9,99999,42,90000,86,20000,40,9999,0.100000,0,0,0.000000,6,0.000000,0.000000,0.890800,0,0,0,0,0,0,0
9,99999,43,90000,0,0,40,9999,0.100000,0,0,0.000000,6,0.000000,0.000000,1.153290,0,0,0,0,0,0,0
9,99999,44,90000,51,40000,40,9999,0.100000,0,0,0.000000,6,0.000000,0.000000,0.071563,0,0,0,0,0,0,0
9,99999,45,90000,28,10000,40,9999,0.100000,0,0,0.000000,6,0.000000,0.000000,0.135944,0,0,0,0,0,0,0
9,99999,46,90000,28,10000,40,9999,0.100000,0,0,0.000000,6,0.000000,0.000000,0.168606,0,0,0,0,0,0,0
9,99999,47,90000,5,10000,40,9999,0.100000,0,0,0.000000,6,0.000000,0.000000,23.819902,0,0,0,0,0,0,0
9,99999,48,90000,51,40000,40,9999,0.100000,0,0,0.000000,6,0.000000,0.000000,1.191756,0,0,0,0,0,0,0
9,99999,49,90000,0,0,40,9999,0.100000,0,0,0.000000,6,0.000000,0.000000,0.128356,0,0,0,0,0,0,0
9,99999,50,90000,0,0,40,9999,0.100000,0,0,0.000000,6,0.000000,0.000000,0.107174,0,0,0,0,0,0,0
9,99999,51,90000,86,20000,40,9999,0.100000,0,0,0.000000,6,0.000000,0.000000,2.205037,0,0,0,0,0,0,0
9,99999,52,90000,80,0,40,9999,0.100000,0,0,0.000000,6,0.000000,0.000000,0.111232,0,0,0,0,0,0,0
9,99999,53,90000,0,0,40,9999,0.100000,0,0,0.000000,6,0.000000,0.000000,0.098774,0,0,0,0,0,0,0
9,99999,54,90000,28,10000,40,9999,0.100000,0,0,0.000000,6,0.000000,0.000000,0.666971,0,0,0,0,0,0,0
9,99999,55,90000,80,0,40,9999,0.100000,0,0,0.000000,6,0.000000,0.000000,0.335214,0,0,0,0,0,0,0
9,99999,56,90000,80,0,40,9999,0.100000,0,0,0.000000,6,0.000000,0.000000,0.085831,0,0,0,0,0,0,0
9,99999,57,90000,28,10000,40,9999,0.100000,0,0,0.000000,6,0.000000,0.000000,0.835595,0,0,0,0,0,0,0
9,99999,58,90000,80,0,40,9999,0.100000,0,0,0.000000,6,0.000000,0.000000,0.072535,0,0,0,0,0,0,0
9,99999,59,90000,80,0,40,9999,0.100000,0,0,0.000000,6,0.000000,0.000000,0.715219,0,0,0,0,0,0,0
9,99999,60,90000,0,0,40,9999,0.100000,0,0,0.000000,6,0.000000,0.000000,0.122520,0,0,0,0,0,0,0
9,99999,61,90000,0,0,40,9999,0.100000,0,0,0.000000,6,0.000000,0.000000,0.143136,0,0,0,0,0,0,0
9,99999,62,90000,51,40000,40,9999,0.100000,0,0,0.000000,6,0.000000,0.000000,0.083690,0,0,0,0,0,0,0
9,99999,63,90000,51,40000,40,9999,0.100000,0,0,0.000000,6,0.000000,0.000000,0.085132,0,0,0,0,0,0,0
9,99999,64,90000,0,0,40,9999,0.100000,0,0,0.000000,6,0.000000,0.000000,0.094453,0,0,0,0,0,0,0
9,99999,65,90000,51,40000,40,9999,0.100000,0,0,0.000000,6,0.000000,0.000000,0.557696,0,0,0,0,0,0,0
9,99999,66,90000,51,40000,40,9999,0.100000,0,0,0.000000,6,0.000000,0.000000,0.103925,0,0,0,0,0,0,0
9,99999,67,90000,86,20000,40,9999,0.100000,0,0,0.000000,6,0.000000,0.000000,0.199201,0,0,0,0,0,0,0
9,99999,68,90000,86,20000,40,9999,0.100000,0,0,0.000000,6,0.000000,0.000000,2.606550,0,0,0,0,0,0,0
9,99999,69,90000,86,20000,40,9999,0.100000,0,0,0.000000,6,0.000000,0.000000,0.658806,0,0,0,0,0,0,0
9,99999,70,90000,86,20000,40,9999,0.100000,0,0,0.000000,6,0.000000,0.000000,0.767797,0,0,0,0,0,0,0
9,99999,71,90000,5,10000,40,9999,0.100000,0,0,0.000000,6,0.000000,0.000000,0.508184,0,0,0,0,0,0,0
9,99999,72,90000,80,0,40,9999,0.100000,0,0,0.000000,6,0.000000,0.000000,0.134268,0,0,0,0,0,0,0
9,99999,73,90000,28,10000,40,9999,0.100000,0,0,0.000000,6,0.000000,0.000000,0.182659,0,0,0,0,0,0,0
9,99999,74,90000,80,0,40,9999,0.100000,0,0,0.000000,6,0.000000,0.000000,1.955477,0,0,0,0,0,0,0
9,99999,75,90000,80,0,49,9999,0.100000,0,0,0.000000,6,7.000000,0.000000,16.085972,0,0,0,0,0,0,0
9,99999,76,90000,0,0,40,9999,0.100000,0,0,0.000000,6,0.000000,0.000000,3.069585,0,0,0,0,0,0,0
9,99999,77,90000,51,40000,40,9999,0.100000,0,0,0.000000,6,0.000000,0.000000,4.000059,0,0,0,0,0,0,0
9,99999,78,90000,51,40000,40,9999,0.100000,0,0,0.000000,6,0.000000,0.000000,1.770037,0,0,0,0,0,0,0
9,99999,79,90000,86,20000,40,9999,0.100000,0,0,0.000000,6,0.000000,0.000000,0.155191,0,0,0,0,0,0,0
9,99999,80,90000,28,10000,40,9999,0.100000,0,0,0.000000,6,0.000000,0.000000,0.415507,0,0,0,0,0,0,0
9,99999,81,90000,28,10000,40,9999,0.100000,0,0,0.000000,6,0.000000,0.000000,0.342206,0,0,0,0,0,0,0
9,99999,82,90000,28,10000,40,9999,0.100000,0,0,0.000000,6,0.000000,0.000000,0.057963,0,0,0,0,0,0,0
9,99999,83,90000,51,40000,40,9999,0.100000,0,0,0.000000,6,0.000000,0.000000,0.267984,0,0,0,0,0,0,0
9,99999,84,90000,0,0,49,9999,0.100000,0,0,0.000000,6,1.000000,0.000000,18.373730,0,0,0,0,0,0,0
9,99999,85,90000,28,10000,40,9999,0.100000,0,0,0.000000,6,0.000000,0.000000,0.551699,0,0,0,0,0,0,0
9,99999,86,90000,28,10000,40,9999,0.100000,0,0,0.000000,6,0.000000,0.000000,6.346083,0,0,0,0,0,0,0
9,99999,87,90000,5,10000,40,9999,0.100000,0,0,0.000000,6,0.000000,0.000000,22.392680,0,0,0,0,0,0,0
9,99999,88,90000,28,10000,40,9999,0.100000,0,0,0.000000,6,0.000000,0.000000,1.780640,0,0,0,0,0,0,0
9,99999,89,90000,0,0,49,9999,0.100000,0,0,0.000000,6,9.000000,0.000000,38.433402,0,0,0,0,0,0,0
9,99999,90,90000,5,10000,40,9999,0.100000,0,0,0.000000,6,0.000000,0.000000,0.100481,0,0,0,0,0,0,0
9,99999,91,90000,86,20000,40,9999,0.100000,0,0,0.000000,6,0.000000,0.000000,0.059389,0,0,0,0,0,0,0
9,99999,92,90000,28,10000,40,9999,0.100000,0,0,0.000000,6,0.000000,0.000000,0.992056,0,0,0,0,0,0,0
9,99999,93,90000,80,0,40,9999,0.100000,0,0,0.000000,6,0.000000,0.000000,0.445217,0,0,0,0,0,0,0
9,99999,94,90000,5,10000,40,9999,0.100000,0,0,0.000000,6,0.000000,0.000000,0.227418,0,0,0,0,0,0,0
9,99999,95,90000,28,10000,40,9999,0.100000,0,0,0.000000,6,0.000000,0.000000,0.705233,0,0,0,0,0,0,0
9,99999,96,90000,51,40000,40,9999,0.100000,0,0,0.000000,6,0.000000,0.000000,0.906911,0,0,0,0,0,0,0
9,99999,97,90000,28,10000,40,9999,0.100000,0,0,0.000000,6,0.000000,0.000000,1.796451,0,0,0,0,0,0,0
9,99999,98,90000,28,10000,49,9999,0.100000,0,0,0.000000,6,6.000000,0.000000,13.037505,0,0,0,0,0,0,0
9,99999,99,90000,5,10000,40,9999,0.100000,0,0,0.000000,6,0.000000,0.000000,0.059747,0,0,0,0,0,0,0
10,109999,0,100000,80,0,40,9999,0.100000,0,0,0.000000,6,0.000000,0.000000,0.386275,0,0,0,0,0,0,0
10,109999,1,100000,28,10000,49,9999,0.100000,0,0,0.000000,6,2.000000,0.000000,6.413378,0,0,0,0,0,0,0
10,109999,2,100000,0,0,40,9999,0.100000,0,0,0.000000,6,0.000000,0.000000,0.546444,0,0,0,0,0,0,0
10,109999,3,100000,80,0,40,9999,0.100000,0,0,0.000000,6,0.000000,0.000000,3.091632,0,0,0,0,0,0,0
10,109999,4,100000,51,40000,40,9999,0.100000,0,0,0.000000,6,0.000000,0.000000,1.465115,0,0,0,0,0,0,0
10,109999,5,100000,5,10000,40,9999,0.100000,0,0,0.000000,6,0.000000,0.000000,1.848551,0,0,0,0,0,0,0
10,109999,6,100000,86,20000,40,9999,0.100000,0,0,0.000000,6,0.000000,0.000000,0.099930,0,0,0,0,0,0,0
10,109999,7,100000,0,0,40,9999,0.100000,0,0,0.000000,6,0.000000,0.000000,0.081025,0,0,0,0,0,0,0
10,109999,8,100000,28,10000,40,9999,0.100000,0,0,0.000000,6,0.000000,0.000000,0.241430,0,0,0,0,0,0,0
10,109999,9,100000,5,10000,49,9999,0.100000,0,0,0.000000,6,1.000000,0.000000,6.228730,0,0,0,0,0,0,0
10,109999,10,100000,86,20000,40,9999,0.100000,0,0,0.000000,6,0.000000,0.000000,0.135205,0,0,0,0,0,0,0
10,109999,11,100000,51,40000,40,9999,0.100000,0,0,0.000000,6,0.000000,0.000000,0.405296,0,0,0,0,0,0,0
10,109999,12,100000,5,10000,40,9999,0.100000,0,0,0.000000,6,0.000000,0.000000,0.075560,0,0,0,0,0,0,0
10,109999,13,100000,51,40000,40,9999,0.100000,0,0,0.000000,6,0.000000,0.000000,0.661976,0,0,0,0,0,0,0
10,109999,14,100000,51,40000,40,9999,0.100000,0,0,0.000000,6,0.000000,0.000000,0.075369,0,0,0,0,0,0,0
10,109999,15,100000,0,0,40,9999,0.100000,0,0,0.000000,6,0.000000,0.000000,0.286138,0,0,0,0,0,0,0
10,109999,16,100000,28,10000,40,9999,0.100000,0,0,0.000000,6,0.000000,0.000000,0.792827,0,0,0,0,0,0,0
10,109999,17,100000,28,10000,40,9999,0.100000,0,0,0.000000,6,0.000000,0.000000,0.085113,0,0,0,0,0,0,0
10,109999,18,100000,5,10000,40,9999,0.100000,0,0,0.000000,6,0.000000,0.000000,1.387903,0,0,0,0,0,0,0
10,109999,19,100000,86,20000,40,9999,0.100000,0,0,0.000000,6,0.000000,0.000000,1.586444,0,0,0,0,0,0,0
10,109999,20,100000,28,10000,40,9999,0.100000,0,0,0.000000,6,0.000000,0.000000,0.082504,0,0,0,0,0,0,0
10,109999,21,100000,5,10000,40,9999,0.100000,0,0,0.000000,6,0.000000,0.000000,0.396644,0,0,0,0,0,0,0
10,109999,22,100000,28,10000,40,9999,0.100000,0,0,0.000000,6,0.000000,0.000000,0.074179,0,0,0,0,0,0,0
10,109999,23,100000,51,40000,40,9999,0.100000,0,0,0.000000,6,0.000000,0.000000,0.899033,0,0,0,0,0,0,0
10,109999,24,100000,0,0,40,9999,0.100000,0,0,0.000000,6,0.000000,0.000000,0.102138,0,0,0,0,0,0,0
10,109999,25,100000,5,10000,40,9999,0.100000,0,0,0.000000,6,0.000000,0.000000,0.549800,0,0,0,0,0,0,0
10,109999,26,100000,5,10000,40,9999,0.100000,0,0,0.000000,6,0.000000,0.000000,0.315376,0,0,0,0,0,0,0
10,109999,27,100000,86,20000,40,9999,0.100000,0,0,0.000000,6,0.000000,0.000000,0.505269,0,0,0,0,0,0,0
10,109999,28,100000,86,20000,40,9999,0.135000,0,0,0.000000,6,0.000000,0.000000,1.358213,0,0,0,0,0,0,0
10,109999,29,100000,5,10000,40,9999,0.100000,0,0,0.000000,6,0.000000,0.000000,0.199769,0,0,0,0,0,0,0
10,109999,30,100000,86,20000,40,9999,0.100000,0,0,0.000000,6,0.000000,0.000000,0.104333,0,0,0,0,0,0,0
10,109999,31,100000,80,0,40,9999,0.100000,0,0,0.000000,6,0.000000,0.000000,0.133306,0,0,0,0,0,0,0
10,109999,32,100000,80,0,40,9999,0.100000,0,0,0.000000,6,0.000000,0.000000,0.995477,0,0,0,0,0,0,0
10,109999,33,100000,80,0,40,9999,0.100000,0,0,0.000000,6,0.000000,0.000000,0.092181,0,0,0,0,0,0,0
10,109999,34,100000,5,10000,40,9999,0.100000,0,0,0.000000,6,0.000000,0.000000,0.324184,0,0,0,0,0,0,0
10,109999,35,100000,28,10000,40,9999,0.100000,0,0,0.000000,6,0.000000,0.000000,0.277670,0,0,0,0,0,0,0
10,109999,36,100000,86,20000,40,9999,0.100000,0,0,0.000000,6,0.000000,0.000000,0.303035,0,0,0,0,0,0,0
10,109999,37,100000,0,0,40,9999,0.100000,0,0,0.000000,6,0.000000,0.000000,0.397013,0,0,0,0,0,0,0
10,109999,38,100000,86,20000,40,9999,0.100000,0,0,0.000000,6,0.000000,0.000000,0.076901,0,0,0,0,0,0,0
10,109999,39,100000,5,10000,40,9999,0.100000,0,0,0.000000,6,0.000000,0.000000,0.368245,0,0,0,0,0,0,0
10,109999,40,100000,80,0,40,9999,0.100000,0,0,0.000000,6,0.000000,0.000000,0.759833,0,0,0,0,0,0,0
10,109999,41,100000,86,20000,49,9999,0.100000,0,0,0.000000,6,1.000000,0.000000,6.664044,0,0,0,0,0,0,0
10,109999,42,100000,28,10000,40,9999,0.100000,0,0,0.000000,6,0.000000,0.000000,0.756156,0,0,0,0,0,0,0
10,109999,43,100000,0,0,40,9999,0.100000,0,0,0.000000,6,0.000000,0.000000,1.912222,0,0,0,0,0,0,0
10,109999,44,100000,0,0,40,9999,0.100000,0,0,0.000000,6,0.000000,0.000000,0.068586,0,0,0,0,0,0,0
10,109999,45,100000,28,10000,40,9999,0.100000,0,0,0.000000,6,0.000000,0.000000,0.152212,0,0,0,0,0,0,0
10,109999,46,100000,86,20000,40,9999,0.100000,0,0,0.000000,6,0.000000,0.000000,0.223272,0,0,0,0,0,0,0
10,109999,47,100000,80,0,40,9999,0.100000,0,0,0.000000,6,0.000000,0.000000,23.793647,0,0,0,0,0,0,0
10,109999,48,100000,51,40000,40,9999,0.100000,0,0,0.000000,6,0.000000,0.000000,1.486880,0,0,0,0,0,0,0
10,109999,49,100000,80,0,40,9999,0.100000,0,0,0.000000,6,0.000000,0.000000,0.123895,0,0,0,0,0,0,0
10,109999,50,100000,28,10000,49,9999,0.100000,0,0,0.000000,6,2.000000,0.000000,5.477791,0,0,0,0,0,0,0
10,109999,51,100000,51,40000,40,9999,0.100000,0,0,0.000000,6,0.000000,0.000000,2.205557,0,0,0,0,0,0,0
10,109999,52,100000,51,40000,40,9999,0.100000,0,0,0.000000,6,0.000000,0.000000,0.100025,0,0,0,0,0,0,0
10,109999,53,100000,0,0,40,9999,0.100000,0,0,0.000000,6,0.000000,0.000000,0.103708,0,0,0,0,0,0,0
10,109999,54,100000,5,10000,40,9999,0.100000,0,0,0.000000,6,0.000000,0.000000,0.591397,0,0,0,0,0,0,0
10,109999,55,100000,0,0,40,9999,0.100000,0,0,0.000000,6,0.000000,0.000000,0.335446,0,0,0,0,0,0,0
10,109999,56,100000,86,20000,40,9999,0.100000,0,0,0.000000,6,0.000000,0.000000,0.088672,0,0,0,0,0,0,0
10,109999,57,100000,0,0,49,9999,0.100000,0,0,0.000000,6,1.000000,0.000000,8.598829,0,0,0,0,0,0,0
10,109999,58,100000,80,0,40,9999,0.100000,0,0,0.000000,6,0.000000,0.000000,0.094797,0,0,0,0,0,0,0
10,109999,59,100000,86,20000,40,9999,0.100000,0,0,0.000000,6,0.000000,0.000000,0.646325,0,0,0,0,0,0,0
10,109999,60,100000,51,40000,40,9999,0.100000,0,0,0.000000,6,0.000000,0.000000,0.113080,0,0,0,0,0,0,0
10,109999,61,100000,28,10000,40,9999,0.100000,0,0,0.000000,6,0.000000,0.000000,0.162636,0,0,0,0,0,0,0
10,109999,62,100000,86,20000,40,9999,0.100000,0,0,0.000000,6,0.000000,0.000000,0.286781,0,0,0,0,0,0,0
10,109999,63,100000,80,0,40,9999,0.100000,0,0,0.000000,6,0.000000,0.000000,0.083816,0,0,0,0,0,0,0
10,109999,64,100000,86,20000,40,9999,0.100000,0,0,0.000000,6,0.000000,0.000000,0.294046,0,0,0,0,0,0,0
10,109999,65,100000,51,40000,40,9999,0.100000,0,0,0.000000,6,0.000000,0.000000,0.589598,0,0,0,0,0,0,0
10,109999,66,100000,5,10000,40,9999,0.100000,0,0,0.000000,6,0.000000,0.000000,0.103128,0,0,0,0,0,0,0
10,109999,67,100000,5,10000,40,9999,0.100000,0,0,0.000000,6,0.000000,0.000000,0.214177,0,0,0,0,0,0,0
10,109999,68,100000,80,0,40,9999,0.100000,0,0,0.000000,6,0.000000,0.000000,7.523381,0,0,0,0,0,0,0
10,109999,69,100000,86,20000,40,9999,0.100000,0,0,0.000000,6,0.000000,0.000000,0.468839,0,0,0,0,0,0,0
10,109999,70,100000,5,10000,40,9999,0.100000,0,0,0.000000,6,0.000000,0.000000,0.658050,0,0,0,0,0,0,0
10,109999,71,100000,5,10000,40,9999,0.100000,0,0,0.000000,6,0.000000,0.000000,0.427086,0,0,0,0,0,0,0
10,109999,72,100000,51,40000,40,9999,0.100000,0,0,0.000000,6,0.000000,0.000000,0.133178,0,0,0,0,0,0,0
10,109999,73,100000,5,10000,40,9999,0.100000,0,0,0.000000,6,0.000000,0.000000,0.176638,0,0,0,0,0,0,0
10,109999,74,100000,80,0,49,9999,0.100000,0,0,0.000000,6,1.000000,0.000000,5.691915,0,0,0,0,0,0,0
10,109999,75,100000,86,20000,40,9999,0.100000,0,0,0.000000,6,0.000000,0.000000,1.643662,0,0,0,0,0,0,0
10,109999,76,100000,80,0,40,9999,0.100000,0,0,0.000000,6,0.000000,0.000000,0.899760,0,0,0,0,0,0,0
10,109999,77,100000,5,10000,40,9999,0.100000,0,0,0.000000,6,0.000000,0.000000,4.094810,0,0,0,0,0,0,0
10,109999,78,100000,5,10000,40,9999,0.100000,0,0,0.000000,6,0.000000,0.000000,1.652527,0,0,0,0,0,0,0
10,109999,79,100000,51,40000,40,9999,0.100000,0,0,0.000000,6,0.000000,0.000000,0.150328,0,0,0,0,0,0,0
10,109999,80,100000,86,20000,40,9999,0.100000,0,0,0.000000,6,0.000000,0.000000,0.369970,0,0,0,0,0,0,0
10,109999,81,100000,80,0,49,9999,0.100000,0,0,0.000000,6,2.000000,0.000000,3.088713,0,0,0,0,0,0,0
10,109999,82,100000,28,10000,40,9999,0.100000,0,0,0.000000,6,0.000000,0.000000,0.057789,0,0,0,0,0,0,0
10,109999,83,100000,80,0,40,9999,0.100000,0,0,0.000000,6,0.000000,0.000000,0.276063,0,0,0,0,0,0,0
10,109999,84,100000,80,0,49,9999,0.100000,0,0,0.000000,6,1.000000,0.000000,10.266873,0,0,0,0,0,0,0
10,109999,85,100000,5,10000,40,9999,0.100000,0,0,0.000000,6,0.000000,0.000000,0.788999,0,0,0,0,0,0,0
10,109999,86,100000,28,10000,40,9999,0.100000,0,0,0.000000,6,0.000000,0.000000,0.753359,0,0,0,0,0,0,0
10,109999,87,100000,86,20000,40,9999,0.100000,0,0,0.000000,6,0.000000,0.000000,22.180917,0,0,0,0,0,0,0
10,109999,88,100000,86,20000,40,9999,0.100000,0,0,0.000000,6,0.000000,0.000000,0.131795,0,0,0,0,0,0,0
10,109999,89,100000,0,0,40,9999,0.100000,0,0,0.000000,6,0.000000,0.000000,0.320750,0,0,0,0,0,0,0
10,109999,90,100000,51,40000,40,9999,0.100000,0,0,0.000000,6,0.000000,0.000000,0.260538,0,0,0,0,0,0,0
10,109999,91,100000,0,0,40,9999,0.100000,0,0,0.000000,6,0.000000,0.000000,0.060729,0,0,0,0,0,0,0
10,109999,92,100000,28,10000,40,9999,0.100000,0,0,0.000000,6,0.000000,0.000000,0.910585,0,0,0,0,0,0,0
10,109999,93,100000,28,10000,40,9999,0.100000,0,0,0.000000,6,0.000000,0.000000,0.511122,0,0,0,0,0,0,0
10,109999,94,100000,28,10000,40,9999,0.100000,0,0,0.000000,6,0.000000,0.000000,0.216195,0,0,0,0,0,0,0
10,109999,95,100000,86,20000,40,9999,0.100000,0,0,0.000000,6,0.000000,0.000000,0.934058,0,0,0,0,0,0,0
10,109999,96,100000,0,0,40,9999,0.100000,0,0,0.000000,6,0.000000,0.000000,0.999219,0,0,0,0,0,0,0
10,109999,97,100000,86,20000,40,9999,0.100000,0,0,0.000000,6,0.000000,0.000000,1.816852,0,0,0,0,0,0,0
10,109999,98,100000,51,40000,40,9999,0.100000,0,0,0.000000,6,0.000000,0.000000,0.073677,0,0,0,0,0,0,0
10,109999,99,100000,51,40000,40,9999,0.100000,0,0,0.000000,6,0.000000,0.000000,0.059810,0,0,0,0,0,0,0
11,119999,0,110000,5,10000,40,9999,0.100000,0,0,0.000000,6,0.000000,0.000000,0.345684,0,0,0,0,0,0,0
11,119999,1,110000,28,10000,40,9999,0.100000,0,0,0.000000,6,0.000000,0.000000,0.584386,0,0,0,0,0,0,0
11,119999,2,110000,5,10000,40,9999,0.100000,0,0,0.000000,6,0.000000,0.000000,0.164928,0,0,0,0,0,0,0
11,119999,3,110000,51,40000,40,9999,0.100000,0,0,0.000000,6,0.000000,0.000000,1.377720,0,0,0,0,0,0,0
11,119999,4,110000,5,10000,40,9999,0.100000,0,0,0.000000,6,0.000000,0.000000,1.101913,0,0,0,0,0,0,0
11,119999,5,110000,86,20000,49,9999,0.100000,0,0,0.000000,6,1.000000,0.000000,2.578477,0,0,0,0,0,0,0
11,119999,6,110000,0,0,40,9999,0.100000,0,0,0.000000,6,0.000000,0.000000,0.103163,0,0,0,0,0,0,0
11,119999,7,110000,5,10000,40,9999,0.100000,0,0,0.000000,6,0.000000,0.000000,0.079788,0,0,0,0,0,0,0
11,119999,8,110000,0,0,40,9999,0.100000,0,0,0.000000,6,0.000000,0.000000,0.277083,0,0,0,0,0,0,0
11,119999,9,110000,5,10000,40,9999,0.100000,0,0,0.000000,6,0.000000,0.000000,0.446196,0,0,0,0,0,0,0
11,119999,10,110000,0,0,40,9999,0.100000,0,0,0.000000,6,0.000000,0.000000,0.142254,0,0,0,0,0,0,0
11,119999,11,110000,80,0,40,9999,0.100000,0,0,0.000000,6,0.000000,0.000000,0.428784,0,0,0,0,0,0,0
11,119999,12,110000,28,10000,40,9999,0.100000,0,0,0.000000,6,0.000000,0.000000,0.064144,0,0,0,0,0,0,0
11,119999,13,110000,80,0,40,9999,0.100000,0,0,0.000000,6,0.000000,0.000000,0.603459,0,0,0,0,0,0,0
11,119999,14,110000,0,0,40,9999,0.100000,0,0,0.000000,6,0.000000,0.000000,0.079495,0,0,0,0,0,0,0
11,119999,15,110000,28,10000,49,9999,0.100000,0,0,0.000000,6,1.000000,0.000000,1.315852,0,0,0,0,0,0,0
11,119999,16,110000,80,0,40,9999,0.100000,0,0,0.000000,6,0.000000,0.000000,0.791362,0,0,0,0,0,0,0
11,119999,17,110000,28,10000,40,9999,0.100000,0,0,0.000000,6,0.000000,0.000000,0.086758,0,0,0,0,0,0,0
11,119999,18,110000,86,20000,40,9999,0.100000,0,0,0.000000,6,0.000000,0.000000,1.275664,0,0,0,0,0,0,0
11,119999,19,110000,5,10000,40,9999,0.100000,0,0,0.000000,6,0.000000,0.000000,0.969166,0,0,0,0,0,0,0
11,119999,20,110000,28,10000,40,9999,0.100000,0,0,0.000000,6,0.000000,0.000000,0.514722,0,0,0,0,0,0,0
11,119999,21,110000,0,0,40,9999,0.100000,0,0,0.000000,6,0.000000,0.000000,0.375288,0,0,0,0,0,0,0
11,119999,22,110000,80,0,40,9999,0.100000,0,0,0.000000,6,0.000000,0.000000,0.063898,0,0,0,0,0,0,0
11,119999,23,110000,28,10000,40,9999,0.100000,0,0,0.000000,6,0.000000,0.000000,0.153534,0,0,0,0,0,0,0
11,119999,24,110000,86,20000,40,9999,0.100000,0,0,0.000000,6,0.000000,0.000000,0.398013,0,0,0,0,0,0,0
11,119999,25,110000,86,20000,40,9999,0.100000,0,0,0.000000,6,0.000000,0.000000,0.549374,0,0,0,0,0,0,0
11,119999,26,110000,5,10000,40,9999,0.100000,0,0,0.000000,6,0.000000,0.000000,0.345965,0,0,0,0,0,0,0
11,119999,27,110000,5,10000,40,9999,0.100000,0,0,0.000000,6,0.000000,0.000000,0.504370,0,0,0,0,0,0,0
11,119999,28,110000,5,10000,40,9999,0.100000,0,0,0.000000,6,0.000000,0.000000,1.308131,0,0,0,0,0,0,0
11,119999,29,110000,51,40000,40,9999,0.100000,0,0,0.000000,6,0.000000,0.000000,0.235806,0,0,0,0,0,0,0
11,119999,30,110000,80,0,40,9999,0.100000,0,0,0.000000,6,0.000000,0.000000,1.251411,0,0,0,0,0,0,0
11,119999,31,110000,80,0,40,9999,0.100000,0,0,0.000000,6,0.000000,0.000000,0.105419,0,0,0,0,0,0,0
11,119999,32,110000,51,40000,40,9999,0.100000,0,0,0.000000,6,0.000000,0.000000,0.767857,0,0,0,0,0,0,0
11,119999,33,110000,51,40000,40,9999,0.100000,0,0,0.000000,6,0.000000,0.000000,0.336840,0,0,0,0,0,0,0
11,119999,34,110000,86,20000,40,9999,0.100000,0,0,0.000000,6,0.000000,0.000000,0.499051,0,0,0,0,0,0,0
11,119999,35,110000,86,20000,40,9999,0.100000,0,0,0.000000,6,0.000000,0.000000,0.277812,0,0,0,0,0,0,0
11,119999,36,110000,80,0,40,9999,0.100000,0,0,0.000000,6,0.000000,0.000000,0.278714,0,0,0,0,0,0,0
11,119999,37,110000,28,10000,40,9999,0.100000,0,0,0.000000,6,0.000000,0.000000,0.381149,0,0,0,0,0,0,0
11,119999,38,110000,80,0,40,9999,0.100000,0,0,0.000000,6,0.000000,0.000000,0.078869,0,0,0,0,0,0,0
11,119999,39,110000,86,20000,40,9999,0.100000,0,0,0.000000,6,0.000000,0.000000,0.348232,0,0,0,0,0,0,0
11,119999,40,110000,5,10000,40,9999,0.100000,0,0,0.000000,6,0.000000,0.000000,0.751943,0,0,0,0,0,0,0
11,119999,41,110000,0,0,40,9999,0.100000,0,0,0.000000,6,0.000000,0.000000,7.793892,0,0,0,0,0,0,0
11,119999,42,110000,80,0,40,9999,0.100000,0,0,0.000000,6,0.000000,0.000000,0.715724,0,0,0,0,0,0,0
11,119999,43,110000,86,20000,40,9999,0.100000,0,0,0.000000,6,0.000000,0.000000,0.154720,0,0,0,0,0,0,0
11,119999,44,110000,80,0,40,9999,0.100000,0,0,0.000000,6,0.000000,0.000000,0.071795,0,0,0,0,0,0,0
11,119999,45,110000,0,0,40,9999,0.100000,0,0,0.000000,6,0.000000,0.000000,0.507123,0,0,0,0,0,0,0
11,119999,46,110000,86,20000,40,9999,0.100000,0,0,0.000000,6,0.000000,0.000000,0.531812,0,0,0,0,0,0,0
11,119999,47,110000,5,10000,40,9999,0.100000,0,0,0.000000,6,0.000000,0.000000,23.911962,0,0,0,0,0,0,0
11,119999,48,110000,5,10000,40,9999,0.100000,0,0,0.000000,6,0.000000,0.000000,0.922150,0,0,0,0,0,0,0
11,119999,49,110000,28,10000,40,9999,0.100000,0,0,0.000000,6,0.000000,0.000000,0.143199,0,0,0,0,0,0,0
11,119999,50,110000,86,20000,40,9999,0.100000,0,0,0.000000,6,0.000000,0.000000,0.263329,0,0,0,0,0,0,0
11,119999,51,110000,80,0,40,9999,0.100000,0,0,0.000000,6,0.000000,0.000000,2.277304,0,0,0,0,0,0,0
11,119999,52,110000,80,0,49,9999,0.100000,0,0,0.000000,6,3.000000,0.000000,6.559390,0,0,0,0,0,0,0
11,119999,53,110000,51,40000,40,9999,0.100000,0,0,0.000000,6,0.000000,0.000000,0.098908,0,0,0,0,0,0,0
11,119999,54,110000,28,10000,40,9999,0.100000,0,0,0.000000,6,0.000000,0.000000,0.518491,0,0,0,0,0,0,0
11,119999,55,110000,51,40000,40,9999,0.100000,0,0,0.000000,6,0.000000,0.000000,0.349948,0,0,0,0,0,0,0
11,119999,56,110000,28,10000,40,9999,0.100000,0,0,0.000000,6,0.000000,0.000000,0.088290,0,0,0,0,0,0,0
11,119999,57,110000,51,40000,40,9999,0.100000,0,0,0.000000,6,0.000000,0.000000,7.363736,0,0,0,0,0,0,0
11,119999,58,110000,5,10000,40,9999,0.100000,0,0,0.000000,6,0.000000,0.000000,0.099799,0,0,0,0,0,0,0
11,119999,59,110000,28,10000,40,9999,0.100000,0,0,0.000000,6,0.000000,0.000000,0.632953,0,0,0,0,0,0,0
11,119999,60,110000,5,10000,40,9999,0.100000,0,0,0.000000,6,0.000000,0.000000,0.112545,0,0,0,0,0,0,0
11,119999,61,110000,86,20000,40,9999,0.100000,0,0,0.000000,6,0.000000,0.000000,0.503827,0,0,0,0,0,0,0
11,119999,62,110000,86,20000,40,9999,0.100000,0,0,0.000000,6,0.000000,0.000000,0.243597,0,0,0,0,0,0,0
11,119999,63,110000,5,10000,40,9999,0.100000,0,0,0.000000,6,0.000000,0.000000,0.082267,0,0,0,0,0,0,0
11,119999,64,110000,51,40000,40,9999,0.100000,0,0,0.000000,6,0.000000,0.000000,0.248825,0,0,0,0,0,0,0
11,119999,65,110000,86,20000,40,9999,0.100000,0,0,0.000000,6,0.000000,0.000000,0.589301,0,0,0,0,0,0,0
11,119999,66,110000,5,10000,40,9999,0.100000,0,0,0.000000,6,0.000000,0.000000,0.141186,0,0,0,0,0,0,0
11,119999,67,110000,80,0,40,9999,0.100000,0,0,0.000000,6,0.000000,0.000000,1.419816,0,0,0,0,0,0,0
11,119999,68,110000,28,10000,40,9999,0.100000,0,0,0.000000,6,0.000000,0.000000,5.314147,0,0,0,0,0,0,0
11,119999,69,110000,86,20000,40,9999,0.100000,0,0,0.000000,6,0.000000,0.000000,0.211501,0,0,0,0,0,0,0
11,119999,70,110000,51,40000,40,9999,0.100000,0,0,0.000000,6,0.000000,0.000000,0.543469,0,0,0,0,0,0,0
11,119999,71,110000,86,20000,40,9999,0.100000,0,0,0.000000,6,0.000000,0.000000,0.421619,0,0,0,0,0,0,0
11,119999,72,110000,0,0,40,9999,0.100000,0,0,0.000000,6,0.000000,0.000000,0.208036,0,0,0,0,0,0,0
11,119999,73,110000,86,20000,40,9999,0.100000,0,0,0.000000,6,0.000000,0.000000,0.146359,0,0,0,0,0,0,0
11,119999,74,110000,80,0,40,9999,0.100000,0,0,0.000000,6,0.000000,0.000000,2.350003,0,0,0,0,0,0,0
11,119999,75,110000,5,10000,49,9999,0.100000,0,0,0.000000,6,1.000000,0.000000,3.016370,0,0,0,0,0,0,0
11,119999,76,110000,86,20000,40,9999,0.100000,0,0,0.000000,6,0.000000,0.000000,0.737096,0,0,0,0,0,0,0
11,119999,77,110000,0,0,40,9999,0.100000,0,0,0.000000,6,0.000000,0.000000,4.061362,0,0,0,0,0,0,0
11,119999,78,110000,5,10000,40,9999,0.100000,0,0,0.000000,6,0.000000,0.000000,1.671219,0,0,0,0,0,0,0
11,119999,79,110000,86,20000,40,9999,0.100000,0,0,0.000000,6,0.000000,0.000000,0.168680,0,0,0,0,0,0,0
11,119999,80,110000,86,20000,40,9999,0.100000,0,0,0.000000,6,0.000000,0.000000,0.377707,0,0,0,0,0,0,0
11,119999,81,110000,5,10000,49,9999,0.100000,0,0,0.000000,6,3.000000,0.000000,4.335005,0,0,0,0,0,0,0
11,119999,82,110000,80,0,40,9999,0.135000,0,0,0.000000,6,0.000000,0.000000,0.084770,0,0,0,0,0,0,0
11,119999,83,110000,86,20000,40,9999,0.100000,0,0,0.000000,6,0.000000,0.000000,0.397187,0,0,0,0,0,0,0
11,119999,84,110000,86,20000,40,9999,0.100000,0,0,0.000000,6,0.000000,0.000000,1.076315,0,0,0,0,0,0,0
11,119999,85,110000,0,0,40,9999,0.100000,0,0,0.000000,6,0.000000,0.000000,0.842818,0,0,0,0,0,0,0
11,119999,86,110000,86,20000,40,9999,0.100000,0,0,0.000000,6,0.000000,0.000000,0.467824,0,0,0,0,0,0,0
11,119999,87,110000,80,0,40,9999,0.100000,0,0,0.000000,6,0.000000,0.000000,15.236427,0,0,0,0,0,0,0
11,119999,88,110000,28,10000,40,9999,0.100000,0,0,0.000000,6,0.000000,0.000000,0.130517,0,0,0,0,0,0,0
11,119999,89,110000,5,10000,49,9999,0.100000,0,0,0.000000,6,9.000000,0.000000,19.299509,0,0,0,0,0,0,0
11,119999,90,110000,28,10000,40,9999,0.100000,0,0,0.000000,6,0.000000,0.000000,0.243232,0,0,0,0,0,0,0
11,119999,91,110000,5,10000,40,9999,0.100000,0,0,0.000000,6,0.000000,0.000000,0.215388,0,0,0,0,0,0,0
11,119999,92,110000,0,0,40,9999,0.100000,0,0,0.000000,6,0.000000,0.000000,0.950812,0,0,0,0,0,0,0
11,119999,93,110000,80,0,49,9999,0.100000,0,0,0.000000,6,8.000000,0.000000,34.385128,0,0,0,0,0,0,0
11,119999,94,110000,86,20000,40,9999,0.100000,0,0,0.000000,6,0.000000,0.000000,4.031774,0,0,0,0,0,0,0
11,119999,95,110000,51,40000,40,9999,0.100000,0,0,0.000000,6,0.000000,0.000000,0.703968,0,0,0,0,0,0,0
11,119999,96,110000,0,0,49,9999,0.100000,0,0,0.000000,6,8.000000,0.000000,16.675033,0,0,0,0,0,0,0
11,119999,97,110000,80,0,40,9999,0.100000,0,0,0.000000,6,0.000000,0.000000,1.773755,0,0,0,0,0,0,0
11,119999,98,110000,51,40000,40,9999,0.100000,0,0,0.000000,6,0.000000,0.000000,0.074955,0,0,0,0,0,0,0
11,119999,99,110000,51,40000,40,9999,0.100000,0,0,0.000000,6,0.000000,0.000000,0.333596,0,0,0,0,0,0,0
12,129999,0,120000,0,0,40,9999,0.100000,0,0,0.000000,6,0.000000,0.000000,0.345535,0,0,0,0,0,0,0
12,129999,1,120000,28,10000,40,9999,0.100000,0,0,0.000000,6,0.000000,0.000000,0.503137,0,0,0,0,0,0,0
12,129999,2,120000,86,20000,40,9999,0.100000,0,0,0.000000,6,0.000000,0.000000,1.452998,0,0,0,0,0,0,0
12,129999,3,120000,28,10000,40,9999,0.100000,0,0,0.000000,6,0.000000,0.000000,0.408824,0,0,0,0,0,0,0
12,129999,4,120000,5,10000,40,9999,0.100000,0,0,0.000000,6,0.000000,0.000000,1.561129,0,0,0,0,0,0,0
12,129999,5,120000,0,0,40,9999,0.100000,0,0,0.000000,6,0.000000,0.000000,1.155038,0,0,0,0,0,0,0
12,129999,6,120000,80,0,40,9999,0.100000,0,0,0.000000,6,0.000000,0.000000,0.104116,0,0,0,0,0,0,0
12,129999,7,120000,51,40000,40,9999,0.100000,0,0,0.000000,6,0.000000,0.000000,0.085922,0,0,0,0,0,0,0
12,129999,8,120000,86,20000,49,9999,0.100000,0,0,0.000000,6,1.000000,0.000000,1.774471,0,0,0,0,0,0,0
12,129999,9,120000,86,20000,40,9999,0.100000,0,0,0.000000,6,0.000000,0.000000,0.409312,0,0,0,0,0,0,0
12,129999,10,120000,51,40000,40,9999,0.100000,0,0,0.000000,6,0.000000,0.000000,0.144462,0,0,0,0,0,0,0
12,129999,11,120000,80,0,49,9999,0.100000,0,0,0.000000,6,1.000000,0.000000,1.798301,0,0,0,0,0,0,0
12,129999,12,120000,86,20000,40,9999,0.100000,0,0,0.000000,6,0.000000,0.000000,0.064739,0,0,0,0,0,0,0
12,129999,13,120000,28,10000,40,9999,0.100000,0,0,0.000000,6,0.000000,0.000000,0.558388,0,0,0,0,0,0,0
12,129999,14,120000,80,0,40,9999,0.100000,0,0,0.000000,6,0.000000,0.000000,0.080503,0,0,0,0,0,0,0
12,129999,15,120000,0,0,40,9999,0.100000,0,0,0.000000,6,0.000000,0.000000,0.320397,0,0,0,0,0,0,0
12,129999,16,120000,51,40000,49,9999,0.100000,0,0,0.000000,6,1.000000,0.000000,1.839000,0,0,0,0,0,0,0
12,129999,17,120000,80,0,40,9999,0.100000,0,0,0.000000,6,0.000000,0.000000,0.085792,0,0,0,0,0,0,0
12,129999,18,120000,5,10000,40,9999,0.100000,0,0,0.000000,6,0.000000,0.000000,1.211781,0,0,0,0,0,0,0
12,129999,19,120000,0,0,40,9999,0.100000,0,0,0.000000,6,0.000000,0.000000,1.276845,0,0,0,0,0,0,0
12,129999,20,120000,80,0,40,9999,0.100000,0,0,0.000000,6,0.000000,0.000000,0.716003,0,0,0,0,0,0,0
12,129999,21,120000,51,40000,40,9999,0.100000,0,0,0.000000,6,0.000000,0.000000,0.383955,0,0,0,0,0,0,0
12,129999,22,120000,80,0,40,9999,0.100000,0,0,0.000000,6,0.000000,0.000000,0.064302,0,0,0,0,0,0,0
12,129999,23,120000,28,10000,40,9999,0.100000,0,0,0.000000,6,0.000000,0.000000,0.864467,0,0,0,0,0,0,0
12,129999,24,120000,5,10000,49,9999,0.100000,0,0,0.000000,6,1.000000,0.000000,2.941075,0,0,0,0,0,0,0
12,129999,25,120000,51,40000,40,9999,0.100000,0,0,0.000000,6,0.000000,0.000000,0.472498,0,0,0,0,0,0,0
12,129999,26,120000,51,40000,49,9999,0.100000,0,0,0.000000,6,1.000000,0.000000,2.540450,0,0,0,0,0,0,0
12,129999,27,120000,86,20000,40,9999,0.100000,0,0,0.000000,6,0.000000,0.000000,0.514100,0,0,0,0,0,0,0
12,129999,28,120000,80,0,40,9999,0.100000,0,0,0.000000,6,0.000000,0.000000,1.394710,0,0,0,0,0,0,0
12,129999,29,120000,80,0,49,9999,0.100000,0,0,0.000000,6,1.000000,0.000000,1.752535,0,0,0,0,0,0,0
12,129999,30,120000,0,0,40,9999,0.100000,0,0,0.000000,6,0.000000,0.000000,0.097150,0,0,0,0,0,0,0
12,129999,31,120000,86,20000,40,9999,0.100000,0,0,0.000000,6,0.000000,0.000000,0.127132,0,0,0,0,0,0,0
12,129999,32,120000,0,0,40,9999,0.100000,0,0,0.000000,6,0.000000,0.000000,0.683707,0,0,0,0,0,0,0
12,129999,33,120000,0,0,40,9999,0.100000,0,0,0.000000,6,0.000000,0.000000,0.172009,0,0,0,0,0,0,0
12,129999,34,120000,28,10000,49,9999,0.100000,0,0,0.000000,6,1.000000,0.000000,9.041369,0,0,0,0,0,0,0
