generation,iteration,robot,birthday,ancestor_id,ancestor_birthday,cell_id,age,sigma,maps,genomes,fitness,cells_in_map,dist_max,dist_pot_max,dist_total,com_rx,com_tx,obj_group1,obj_group2,obj_group3,obj_group4,obj_group5
0,9999,0,0,0,0,99,9999,0.100000,99,0,89.758164,0,17.000000,13.492850,25.905609,99,99,1,0,0,0,0
0,9999,1,0,1,0,40,9999,0.100000,99,0,0.000000,0,1.000000,21.920571,7.234042,99,99,0,0,0,0,0
0,9999,2,0,2,0,40,9999,0.100000,99,0,0.000000,0,0.000000,17.376313,5.510821,99,99,0,0,0,0,0
0,9999,3,0,3,0,40,9999,0.100000,99,0,0.000000,0,0.000000,25.707960,3.820944,99,99,0,0,0,0,0
0,9999,4,0,4,0,42,9999,0.100000,99,0,0.000000,0,5.000000,17.317103,16.208782,99,99,0,0,0,0,0
0,9999,5,0,5,0,40,9999,0.100000,99,0,0.000000,0,0.000000,28.461853,2.320504,99,99,0,0,0,0,0
0,9999,6,0,6,0,40,9999,0.100000,99,0,0.000000,0,2.000000,28.885973,17.051789,99,99,0,0,0,0,0
0,9999,7,0,7,0,40,9999,0.100000,99,0,0.000000,0,0.000000,24.516887,0.841838,99,99,0,0,0,0,0
0,9999,8,0,8,0,0,9999,0.100000,99,0,0.018805,0,0.000000,14.204759,0.480037,99,99,0,0,0,1,0
0,9999,9,0,9,0,0,9999,0.100000,99,0,0.811605,0,1.000000,20.581588,6.554958,99,99,0,0,1,0,0
0,9999,10,0,10,0,40,9999,0.100000,99,0,0.000000,0,1.000000,25.879547,6.945557,99,99,0,0,0,0,0
0,9999,11,0,11,0,40,9999,0.100000,99,0,0.000000,0,1.000000,26.858529,13.106984,99,99,0,0,0,0,0
0,9999,12,0,12,0,93,9999,0.100000,99,0,54.367901,0,10.000000,27.486566,25.587571,99,99,1,0,0,0,0
0,9999,13,0,13,0,41,9999,0.100000,99,0,0.000000,0,6.000000,34.242525,13.092411,99,99,0,0,0,0,0
0,9999,14,0,14,0,0,9999,0.100000,99,0,0.523423,0,0.000000,26.475740,1.123493,99,99,0,0,1,0,0
0,9999,15,0,15,0,41,9999,0.100000,99,0,0.000000,0,5.000000,28.985521,10.061045,99,99,0,0,0,0,0
0,9999,16,0,16,0,40,9999,0.100000,99,0,0.000000,0,2.000000,26.468455,11.100736,99,99,0,0,0,0,0
0,9999,17,0,17,0,41,9999,0.100000,99,0,0.000000,0,5.000000,31.942880,10.627615,99,99,0,0,0,0,0
0,9999,18,0,18,0,40,9999,0.100000,99,0,0.000000,0,3.000000,32.090722,10.160043,99,99,0,0,0,0,0
0,9999,19,0,19,0,40,9999,0.100000,99,0,0.000000,0,0.000000,34.560131,11.141206,99,99,0,0,0,0,0
0,9999,20,0,20,0,40,9999,0.100000,99,0,0.000000,0,0.000000,25.953056,1.192432,99,99,0,0,0,0,0
0,9999,21,0,21,0,40,9999,0.100000,99,0,0.000000,0,1.000000,26.926015,10.857146,99,99,0,0,0,0,0
0,9999,22,0,22,0,41,9999,0.100000,99,0,0.000000,0,3.000000,27.669465,18.243773,99,99,0,0,0,0,0
0,9999,23,0,23,0,40,9999,0.100000,99,0,0.000000,0,0.000000,22.763228,12.436206,99,99,0,0,0,0,0
0,9999,24,0,24,0,40,9999,0.100000,99,0,0.000000,0,0.000000,29.020515,4.758357,99,99,0,0,0,0,0
0,9999,25,0,25,0,40,9999,0.100000,99,0,0.000000,0,1.000000,19.340771,4.211682,99,99,0,0,0,0,0
0,9999,26,0,26,0,40,9999,0.100000,99,0,0.000000,0,1.000000,19.396276,3.390260,99,99,0,0,0,0,0
0,9999,27,0,27,0,91,9999,0.100000,99,0,9.535645,0,3.000000,26.352676,15.687120,99,99,1,0,0,0,0
0,9999,28,0,28,0,40,9999,0.100000,99,0,0.000000,0,0.000000,30.746084,11.088851,99,99,0,0,0,0,0
0,9999,29,0,29,0,93,9999,0.100000,99,0,44.422097,0,9.000000,24.404513,18.854914,99,99,1,0,0,0,0
0,9999,30,0,30,0,0,9999,0.100000,99,0,0.078473,0,0.000000,28.117671,1.546120,99,99,0,0,0,0,1
0,9999,31,0,31,0,90,9999,0.100000,99,0,1.154099,0,0.000000,22.258874,3.029435,99,99,1,0,0,0,0
0,9999,32,0,32,0,95,9999,0.100000,99,0,58.467645,0,11.000000,17.749194,17.428077,99,99,1,0,0,0,0
0,9999,33,0,33,0,40,9999,0.100000,99,0,0.000000,0,0.000000,26.902663,1.156099,99,99,0,0,0,0,0
0,9999,34,0,34,0,40,9999,0.100000,99,0,0.000000,0,2.000000,23.885244,3.620958,99,99,0,0,0,0,0
0,9999,35,0,35,0,40,9999,0.100000,99,0,0.000000,0,2.000000,26.923948,2.827851,99,99,0,0,0,0,0
0,9999,36,0,36,0,0,9999,0.100000,99,0,0.241744,0,2.000000,30.041956,5.729058,99,99,0,0,0,1,0
0,9999,37,0,37,0,40,9999,0.100000,99,0,0.000000,0,1.000000,21.535164,6.831892,99,99,0,0,0,0,0
0,9999,38,0,38,0,40,9999,0.100000,99,0,0.000000,0,0.000000,19.734989,0.752808,99,99,0,0,0,0,0
0,9999,39,0,39,0,42,9999,0.100000,99,0,0.000000,0,4.000000,18.766413,12.316225,99,99,0,0,0,0,0
0,9999,40,0,40,0,2,9999,0.100000,99,0,16.571211,0,6.000000,24.786818,15.761640,99,99,0,1,0,0,0
0,9999,41,0,41,0,40,9999,0.100000,99,0,0.000000,0,2.000000,19.055385,16.769620,99,99,0,0,0,0,0
0,9999,42,0,42,0,40,9999,0.100000,99,0,0.000000,0,1.000000,15.643581,2.300510,99,99,0,0,0,0,0
0,9999,43,0,43,0,40,9999,0.100000,99,0,0.000000,0,0.000000,19.269844,1.047717,99,99,0,0,0,0,0
0,9999,44,0,44,0,41,9999,0.100000,99,0,0.000000,0,3.000000,27.489711,14.890590,99,99,0,0,0,0,0
0,9999,45,0,45,0,0,9999,0.100000,99,0,0.586507,0,0.000000,27.151093,1.104865,99,99,0,0,0,0,1
0,9999,46,0,46,0,91,9999,0.100000,99,0,18.987008,0,3.000000,24.623953,10.854110,99,99,1,0,0,0,0
0,9999,47,0,47,0,41,9999,0.100000,99,0,0.000000,0,3.000000,25.692355,9.632890,99,99,0,0,0,0,0
0,9999,48,0,48,0,40,9999,0.100000,99,0,0.000000,0,1.000000,17.406078,7.214403,99,99,0,0,0,0,0
0,9999,49,0,49,0,40,9999,0.100000,99,0,0.000000,0,1.000000,21.225863,4.517826,99,99,0,0,0,0,0
0,9999,50,0,50,0,99,9999,0.100000,99,0,86.378450,0,17.000000,15.922837,23.032817,99,99,1,0,0,0,0
0,9999,51,0,51,0,40,9999,0.100000,99,0,0.000000,0,2.000000,20.040418,13.049269,99,99,0,0,0,0,0
0,9999,52,0,52,0,41,9999,0.100000,99,0,1.412771,0,4.000000,28.698663,12.987800,99,99,0,0,0,0,0
0,9999,53,0,53,0,0,9999,0.100000,99,0,3.909969,0,1.000000,22.902713,1.681974,99,99,0,1,0,0,0
0,9999,54,0,54,0,0,9999,0.100000,99,0,0.137539,0,0.000000,11.565247,1.028431,99,99,0,0,0,1,0
0,9999,55,0,55,0,91,9999,0.100000,99,0,17.449663,0,3.000000,25.508063,13.962638,99,99,1,0,0,0,0
0,9999,56,0,56,0,40,9999,0.100000,99,0,0.000000,0,2.000000,30.506097,15.521528,99,99,0,0,0,0,0
0,9999,57,0,57,0,94,9999,0.100000,99,0,67.182702,0,12.000000,25.546704,17.093466,99,99,2,0,0,0,0
0,9999,58,0,58,0,41,9999,0.100000,99,0,0.000000,0,4.000000,31.440149,16.961968,99,99,0,0,0,0,0
0,9999,59,0,59,0,40,9999,0.100000,99,0,0.000000,0,2.000000,19.621330,8.818576,99,99,0,0,0,0,0
0,9999,60,0,60,0,41,9999,0.100000,99,0,0.000000,0,4.000000,30.725106,18.324807,99,99,0,0,0,0,0
0,9999,61,0,61,0,41,9999,0.100000,99,0,0.000000,0,3.000000,26.686521,13.493430,99,99,0,0,0,0,0
0,9999,62,0,62,0,40,9999,0.100000,99,0,0.000000,0,2.000000,25.516765,4.525001,99,99,0,0,0,0,0
0,9999,63,0,63,0,41,9999,0.100000,99,0,0.000000,0,4.000000,24.500000,11.931566,99,99,0,0,0,0,0
0,9999,64,0,64,0,1,9999,0.100000,99,0,0.001775,0,3.000000,26.043067,8.035305,99,99,0,0,0,1,0
0,9999,65,0,65,0,41,9999,0.100000,99,0,0.000000,0,3.000000,15.100000,12.391511,99,99,0,0,0,0,0
0,9999,66,0,66,0,41,9999,0.100000,99,0,0.000000,0,3.000000,24.800338,7.762362,99,99,0,0,0,0,0
0,9999,67,0,67,0,40,9999,0.100000,99,0,0.000000,0,1.000000,31.208489,9.204838,99,99,0,0,0,0,0
0,9999,68,0,68,0,40,9999,0.100000,99,0,0.000000,0,0.000000,23.879842,5.084922,99,99,0,0,0,0,0
0,9999,69,0,69,0,40,9999,0.100000,99,0,0.000000,0,2.000000,26.995588,9.809500,99,99,0,0,0,0,0
0,9999,70,0,70,0,94,9999,0.100000,99,0,65.588614,0,14.000000,29.556329,22.285707,99,99,1,0,0,0,0
0,9999,71,0,71,0,40,9999,0.100000,99,0,0.000000,0,3.000000,29.633135,8.164957,99,99,0,0,0,0,0
0,9999,72,0,72,0,40,9999,0.100000,99,0,0.000000,0,1.000000,18.796590,11.803032,99,99,0,0,0,0,0
0,9999,73,0,73,0,41,9999,0.100000,99,0,0.000000,0,4.000000,26.620770,15.081823,99,99,0,0,0,0,0
0,9999,74,0,74,0,40,9999,0.100000,99,0,0.000000,0,0.000000,18.637129,14.866673,99,99,0,0,0,0,0
0,9999,75,0,75,0,41,9999,0.100000,99,0,0.000000,0,3.000000,17.468601,11.283487,99,99,0,0,0,0,0
0,9999,76,0,76,0,40,9999,0.100000,99,0,0.000000,0,2.000000,25.205262,9.870683,99,99,0,0,0,0,0
0,9999,77,0,77,0,40,9999,0.100000,99,0,0.000000,0,1.000000,12.801786,5.478454,99,99,0,0,0,0,0
0,9999,78,0,78,0,40,9999,0.100000,99,0,0.000000,0,1.000000,17.932213,4.302260,99,99,0,0,0,0,0
0,9999,79,0,79,0,91,9999,0.100000,99,0,19.892810,0,5.000000,31.645323,15.578271,99,99,1,0,0,0,0
0,9999,80,0,80,0,40,9999,0.100000,99,0,0.000000,0,2.000000,22.529964,14.963537,99,99,0,0,0,0,0
0,9999,81,0,81,0,95,9999,0.100000,99,0,50.268695,0,12.000000,19.302150,30.713219,99,99,1,0,0,0,0
0,9999,82,0,82,0,40,9999,0.100000,99,0,0.000000,0,2.000000,29.871588,14.436395,99,99,0,0,0,0,0
0,9999,83,0,83,0,41,9999,0.100000,99,0,0.000000,0,3.000000,25.977797,13.337240,99,99,0,0,0,0,0
0,9999,84,0,84,0,40,9999,0.100000,99,0,0.000000,0,2.000000,30.693236,14.204277,99,99,0,0,0,0,0
0,9999,85,0,85,0,90,9999,0.100000,99,0,2.335124,0,0.000000,20.407689,3.105210,99,99,1,0,0,0,0
0,9999,86,0,86,0,93,9999,0.100000,99,0,42.053828,0,8.000000,21.747766,20.035629,99,99,1,0,0,0,0
0,9999,87,0,87,0,91,9999,0.100000,99,0,23.397805,0,4.000000,33.443763,13.453955,99,99,1,0,0,0,0
0,9999,88,0,88,0,40,9999,0.100000,99,0,0.000000,0,1.000000,26.063935,9.754157,99,99,0,0,0,0,0
0,9999,89,0,89,0,0,9999,0.100000,99,0,0.104265,0,1.000000,24.806080,1.718273,99,99,0,1,0,0,0
0,9999,90,0,90,0,40,9999,0.100000,99,0,0.000000,0,0.000000,35.636303,8.450359,99,99,0,0,0,0,0
0,9999,91,0,91,0,94,9999,0.100000,99,0,62.129030,0,12.000000,26.033091,17.833025,99,99,1,0,0,0,0
0,9999,92,0,92,0,40,9999,0.100000,99,0,0.000000,0,3.000000,28.970767,7.743030,99,99,0,0,0,0,0
0,9999,93,0,93,0,42,9999,0.100000,99,0,0.000000,0,5.000000,16.449806,14.204451,99,99,0,0,0,0,0
0,9999,94,0,94,0,0,9999,0.100000,99,0,0.007918,0,1.000000,15.852350,4.318883,99,99,0,0,1,0,0
0,9999,95,0,95,0,93,9999,0.100000,99,0,36.190141,0,7.000000,20.846659,14.924456,99,99,1,0,0,0,0
0,9999,96,0,96,0,40,9999,0.100000,99,0,0.000000,0,1.000000,27.681912,10.012562,99,99,0,0,0,0,0
0,9999,97,0,97,0,93,9999,0.100000,99,0,33.778864,0,8.000000,24.699660,19.461173,99,99,1,0,0,0,0
0,9999,98,0,98,0,41,9999,0.100000,99,0,0.000000,0,3.000000,18.420214,11.651696,99,99,0,0,0,0,0
0,9999,99,0,99,0,40,9999,0.100000,99,0,0.000000,0,1.000000,27.692089,6.346207,99,99,0,0,0,0,0
1,19999,0,10000,27,0,40,9999,0.100000,99,0,0.000000,10,0.000000,27.992311,6.014215,99,99,0,0,0,0,0
1,19999,1,10000,17,0,40,9999,0.100000,99,0,0.000000,10,0.000000,20.528233,3.699207,99,99,0,0,0,0,0
1,19999,2,10000,29,0,42,9999,0.100000,99,0,0.000000,10,5.000000,18.076990,15.872119,99,99,0,0,0,0,0
1,19999,3,10000,4,0,40,9999,0.100000,99,0,0.000000,13,0.000000,25.012879,1.030923,99,99,0,0,0,0,0
1,19999,4,10000,4,0,40,9999,0.100000,99,0,0.000000,1,1.000000,13.370853,4.434140,99,99,0,0,0,0,0
1,19999,5,10000,8,0,41,9999,0.100000,99,0,0.000000,3,4.000000,28.379303,17.241858,99,99,0,0,0,0,0
1,19999,6,10000,6,0,40,9999,0.100000,99,0,0.000000,2,1.000000,26.737362,11.405922,99,99,0,0,0,0,0
1,19999,7,10000,32,0,40,9999,0.100000,99,0,0.000000,13,1.000000,24.053052,2.411747,99,99,0,0,0,0,0
1,19999,8,10000,4,0,0,9999,0.100000,99,0,0.000499,3,0.000000,14.361091,0.159911,99,99,0,0,0,1,0
1,19999,9,10000,79,0,1,9999,0.100000,99,0,18.756498,10,3.000000,20.227085,3.933140,99,99,0,0,1,0,0
1,19999,10,10000,81,0,40,9999,0.100000,99,0,0.000000,12,0.000000,26.974591,3.833794,99,99,0,0,0,0,0
1,19999,11,10000,27,0,40,9999,0.100000,99,0,0.000000,10,0.000000,26.956086,1.545209,99,99,0,0,0,0,0
1,19999,12,10000,13,0,40,9999,0.100000,99,0,0.000000,13,0.000000,33.938387,2.398641,99,99,0,0,0,0,0
1,19999,13,10000,13,0,40,9999,0.100000,99,0,0.000000,12,2.000000,28.308564,9.415022,99,99,0,0,0,0,0
1,19999,14,10000,4,0,40,9999,0.100000,99,0,0.000000,3,0.000000,26.431171,0.624529,99,99,0,0,0,0,0
1,19999,15,10000,29,0,40,9999,0.100000,99,0,0.000000,13,1.000000,29.980477,6.653963,99,99,0,0,0,0,0
1,19999,16,10000,14,0,42,9999,0.100000,99,0,0.000000,3,6.000000,24.746257,22.442357,99,99,0,0,0,0,0
1,19999,17,10000,14,0,40,9999,0.100000,99,0,0.000000,4,2.000000,30.468437,3.098362,99,99,0,0,0,0,0
1,19999,18,10000,9,0,40,9999,0.100000,99,0,0.000000,11,1.000000,30.803484,3.957673,99,99,0,0,0,0,0
1,19999,19,10000,14,0,41,9999,0.100000,99,0,0.000000,4,4.000000,34.872799,12.545881,99,99,0,0,0,0,0
1,19999,20,10000,29,0,0,9999,0.100000,99,0,0.370906,10,1.000000,25.650385,6.460695,99,99,0,0,1,0,0
1,19999,21,10000,17,0,41,9999,0.100000,99,0,0.000000,4,3.000000,25.798870,12.715241,99,99,0,0,0,0,0
1,19999,22,10000,17,0,40,9999,0.100000,99,0,0.000000,13,2.000000,25.491861,7.615619,99,99,0,0,0,0,0
1,19999,23,10000,17,0,90,9999,0.100000,99,0,1.195453,4,2.000000,23.267373,7.329356,99,99,1,0,0,0,0
1,19999,24,10000,17,0,40,9999,0.100000,99,0,0.000000,12,2.000000,29.080688,8.749291,99,99,0,0,0,0,0
1,19999,25,10000,17,0,40,9999,0.100000,99,0,0.000000,4,0.000000,18.640168,5.417377,99,99,0,0,0,0,0
1,19999,26,10000,79,0,41,9999,0.100000,99,0,0.000000,10,3.000000,20.273126,6.943041,99,99,0,0,0,0,0
1,19999,27,10000,27,0,40,9999,0.100000,99,0,0.000000,5,0.000000,29.223122,5.470390,99,99,0,0,0,0,0
1,19999,28,10000,4,0,40,9999,0.100000,99,0,0.000000,13,0.000000,30.988426,0.986927,99,99,0,0,0,0,0
1,19999,29,10000,29,0,40,9999,0.100000,99,0,0.000000,6,2.000000,30.142584,11.222573,99,99,0,0,0,0,0
1,19999,30,10000,40,0,0,9999,0.100000,99,0,0.111027,10,0.000000,27.963513,0.072008,99,99,0,0,0,0,1
1,19999,31,10000,14,0,90,9999,0.100000,99,0,1.269825,6,0.000000,22.358458,1.044652,99,99,1,0,0,0,0
1,19999,32,10000,9,0,40,9999,0.100000,99,0,0.000000,13,1.000000,27.084022,5.398107,99,99,0,0,0,0,0
1,19999,33,10000,14,0,40,9999,0.100000,99,0,0.000000,6,0.000000,26.036967,1.030285,99,99,0,0,0,0,0
1,19999,34,10000,13,0,40,9999,0.100000,99,0,0.000000,13,1.000000,24.136045,2.016704,99,99,0,0,0,0,0
1,19999,35,10000,5,0,40,9999,0.100000,99,0,0.000000,6,0.000000,26.162673,0.475035,99,99,0,0,0,0,0
1,19999,36,10000,0,0,40,9999,0.100000,99,0,0.000000,13,0.000000,32.300315,0.216451,99,99,0,0,0,0,0
1,19999,37,10000,64,0,40,9999,0.100000,99,0,0.000000,13,0.000000,21.349803,1.001231,99,99,0,0,0,0,0
1,19999,38,10000,5,0,0,9999,0.100000,99,0,0.123638,6,0.000000,19.398583,1.933338,99,99,0,0,0,0,1
1,19999,39,10000,4,0,41,9999,0.100000,99,0,0.000000,10,3.000000,22.574852,6.187104,99,99,0,0,0,0,0
1,19999,40,10000,14,0,40,9999,0.100000,99,0,0.000000,7,0.000000,26.806390,1.364626,99,99,0,0,0,0,0
1,19999,41,10000,5,0,40,9999,0.100000,99,0,0.000000,13,0.000000,21.292072,2.532414,99,99,0,0,0,0,0
1,19999,42,10000,27,0,40,9999,0.100000,99,0,0.000000,7,0.000000,14.621363,0.069935,99,99,0,0,0,0,0
1,19999,43,10000,4,0,41,9999,0.100000,99,0,0.000000,7,3.000000,19.834339,4.148389,99,99,0,0,0,0,0
1,19999,44,10000,64,0,40,9999,0.100000,99,0,0.000000,13,0.000000,27.435110,0.742531,99,99,0,0,0,0,0
1,19999,45,10000,79,0,40,9999,0.100000,99,0,0.000000,13,0.000000,27.598243,0.224509,99,99,0,0,0,0,0
1,19999,46,10000,9,0,41,9999,0.100000,99,0,0.000000,10,3.000000,28.011356,7.673106,99,99,0,0,0,0,0
1,19999,47,10000,9,0,40,9999,0.100000,99,0,0.000000,10,1.000000,28.389539,11.218602,99,99,0,0,0,0,0
1,19999,48,10000,4,0,40,9999,0.100000,99,0,0.000000,10,0.000000,17.792344,5.576447,99,99,0,0,0,0,0
1,19999,49,10000,17,0,40,9999,0.100000,99,0,0.000000,7,0.000000,21.641734,1.086916,99,99,0,0,0,0,0
1,19999,50,10000,87,0,40,9999,0.100000,99,0,0.000000,13,1.000000,28.540950,8.304399,99,99,0,0,0,0,0
1,19999,51,10000,0,0,41,9999,0.100000,99,0,0.000000,13,3.000000,19.705121,6.167112,99,99,0,0,0,0,0
1,19999,52,10000,27,0,40,9999,0.100000,99,0,0.000000,8,1.000000,29.405297,8.079596,99,99,0,0,0,0,0
1,19999,53,10000,5,0,0,9999,0.100000,99,0,4.340375,13,0.000000,21.634228,0.972208,99,99,0,1,0,0,0
1,19999,54,10000,29,0,0,9999,0.100000,99,0,0.551312,10,0.000000,12.164649,0.818411,99,99,0,0,0,1,0
1,19999,55,10000,40,0,40,9999,0.100000,99,0,0.000000,8,1.000000,28.445444,7.023710,99,99,0,0,0,0,0
1,19999,56,10000,79,0,40,9999,0.100000,99,0,0.000000,10,2.000000,31.279663,6.774575,99,99,0,0,0,0,0
1,19999,57,10000,64,0,0,9999,0.100000,99,0,0.146135,13,0.000000,32.720246,0.326757,99,99,0,0,0,1,0
1,19999,58,10000,13,0,0,9999,0.100000,99,0,0.921166,13,0.000000,27.800899,0.249368,99,99,0,0,0,0,1
1,19999,59,10000,5,0,40,9999,0.100000,99,0,0.000000,10,1.000000,21.406332,5.739503,99,99,0,0,0,0,0
1,19999,60,10000,17,0,40,9999,0.100000,99,0,0.000000,8,3.000000,30.753090,7.293084,99,99,0,0,0,0,0
1,19999,61,10000,27,0,40,9999,0.100000,99,0,0.000000,13,1.000000,26.875341,10.900192,99,99,0,0,0,0,0
1,19999,62,10000,40,0,40,9999,0.100000,99,0,0.000000,10,0.000000,24.347739,0.999580,99,99,0,0,0,0,0
1,19999,63,10000,79,0,40,9999,0.100000,99,0,0.000000,13,0.000000,27.902409,0.091291,99,99,0,0,0,0,0
1,19999,64,10000,17,0,40,9999,0.100000,99,0,0.000000,11,0.000000,23.719892,0.920611,99,99,0,0,0,0,0
1,19999,65,10000,4,0,41,9999,0.100000,99,0,0.000000,8,2.000000,17.270767,6.825448,99,99,0,0,0,0,0
1,19999,66,10000,13,0,0,9999,0.100000,99,0,0.817717,13,0.000000,28.298049,1.656677,99,99,0,0,0,1,0
1,19999,67,10000,5,0,40,9999,0.100000,99,0,0.000000,13,0.000000,31.936702,1.065530,99,99,0,0,0,0,0
1,19999,68,10000,27,0,41,9999,0.100000,99,0,0.000000,11,3.000000,23.823497,18.032683,99,99,0,0,0,0,0
1,19999,69,10000,64,0,40,9999,0.100000,99,0,0.000000,13,1.000000,29.758320,7.574495,99,99,0,0,0,0,0
1,19999,70,10000,4,0,91,9999,0.100000,99,0,7.183777,13,4.000000,33.174022,12.204298,99,99,1,0,0,0,0
1,19999,71,10000,27,0,41,9999,0.100000,99,0,0.000000,8,4.000000,26.972887,18.585212,99,99,0,0,0,0,0
1,19999,72,10000,17,0,40,9999,0.100000,99,0,0.000000,11,1.000000,20.048517,7.622593,99,99,0,0,0,0,0
1,19999,73,10000,5,0,0,9999,0.100000,99,0,1.403399,8,0.000000,26.988718,1.736804,99,99,0,1,0,0,0
1,19999,74,10000,40,0,41,9999,0.100000,99,0,0.000000,11,2.000000,18.488158,6.032671,99,99,0,0,0,0,0
1,19999,75,10000,40,0,40,9999,0.100000,99,0,0.000000,13,1.000000,19.181037,6.081232,99,99,0,0,0,0,0
1,19999,76,10000,81,0,40,9999,0.100000,99,0,0.000000,11,0.000000,25.162168,1.082238,99,99,0,0,0,0,0
1,19999,77,10000,9,0,40,9999,0.100000,99,0,0.000000,11,0.000000,11.797401,0.679062,99,99,0,0,0,0,0
1,19999,78,10000,70,0,41,9999,0.100000,99,0,0.000000,13,2.000000,16.791419,7.176789,99,99,0,0,0,0,0
1,19999,79,10000,40,0,40,9999,0.100000,99,0,0.000000,8,0.000000,34.196972,8.653821,99,99,0,0,0,0,0
1,19999,80,10000,9,0,40,9999,0.100000,99,0,0.000000,11,2.000000,21.113598,11.749909,99,99,0,0,0,0,0
1,19999,81,10000,17,0,40,9999,0.100000,99,0,0.000000,9,1.000000,25.709410,10.362680,99,99,0,0,0,0,0
1,19999,82,10000,5,0,40,9999,0.100000,99,0,0.000000,13,2.000000,29.449453,16.132463,99,99,0,0,0,0,0
1,19999,83,10000,32,0,40,9999,0.100000,99,0,0.000000,13,1.000000,29.438517,8.042469,99,99,0,0,0,0,0
1,19999,84,10000,9,0,40,9999,0.100000,99,0,0.000000,11,1.000000,30.250110,8.020487,99,99,0,0,0,0,0
1,19999,85,10000,17,0,90,9999,0.100000,99,0,9.612547,13,1.000000,21.170538,3.135130,99,99,1,0,0,0,0
1,19999,86,10000,81,0,40,9999,0.100000,99,0,0.000000,11,3.000000,29.197176,11.327686,99,99,0,0,0,0,0
1,19999,87,10000,0,0,40,9999,0.100000,99,0,0.000000,13,0.000000,34.070297,10.966506,99,99,0,0,0,0,0
1,19999,88,10000,29,0,40,9999,0.100000,99,0,0.000000,13,0.000000,25.284577,1.166081,99,99,0,0,0,0,0
1,19999,89,10000,79,0,0,9999,0.100000,99,0,0.261043,9,0.000000,25.141372,0.900606,99,99,0,1,0,0,0
1,19999,90,10000,5,0,40,9999,0.100000,99,0,0.000000,11,0.000000,36.055428,3.745198,99,99,0,0,0,0,0
1,19999,91,10000,5,0,90,9999,0.100000,99,0,6.873933,13,1.000000,32.774063,7.038707,99,99,1,0,0,0,0
1,19999,92,10000,40,0,40,9999,0.100000,99,0,0.000000,9,2.000000,30.610005,6.033667,99,99,0,0,0,0,0
1,19999,93,10000,70,0,40,9999,0.100000,99,0,0.000000,13,0.000000,12.507724,0.158847,99,99,0,0,0,0,0
1,19999,94,10000,5,0,0,9999,0.100000,99,0,0.011361,9,0.000000,16.773417,0.134073,99,99,0,0,1,0,0
1,19999,95,10000,29,0,42,9999,0.100000,99,0,0.000000,11,6.000000,25.390431,12.620458,99,99,0,0,0,0,0
1,19999,96,10000,29,0,40,9999,0.100000,99,0,0.000000,13,0.000000,27.133579,10.609234,99,99,0,0,0,0,0
1,19999,97,10000,79,0,91,9999,0.100000,99,0,30.026438,13,5.000000,28.174530,17.106837,99,99,1,0,0,0,0
1,19999,98,10000,9,0,40,9999,0.100000,99,0,0.000000,11,1.000000,18.263398,11.026654,99,99,0,0,0,0,0
1,19999,99,10000,64,0,40,9999,0.100000,99,0,0.000000,11,0.000000,28.648353,7.746722,99,99,0,0,0,0,0
2,29999,0,20000,0,0,40,9999,0.100000,99,0,0.000000,13,2.000000,28.007488,4.215215,99,99,0,0,0,0,0
2,29999,1,20000,87,0,0,9999,0.100000,99,0,0.098894,13,2.000000,21.072204,8.811966,99,99,0,0,0,0,1
2,29999,2,20000,17,0,41,9999,0.100000,99,0,0.000000,13,3.000000,16.207242,8.544949,99,99,0,0,0,0,0
2,29999,3,20000,57,0,40,9999,0.100000,99,0,0.000000,13,0.000000,24.224938,1.011978,99,99,0,0,0,0,0
2,29999,4,20000,4,0,40,9999,0.100000,99,0,0.000000,13,0.000000,12.270852,1.854612,99,99,0,0,0,0,0
2,29999,5,20000,5,0,40,9999,0.100000,99,0,0.000000,13,0.000000,24.286590,3.333318,99,99,0,0,0,0,0
2,29999,6,20000,13,0,40,9999,0.100000,99,0,0.000000,13,0.000000,27.717386,11.446824,99,99,0,0,0,0,0
2,29999,7,20000,70,0,40,9999,0.100000,99,0,0.000000,13,0.000000,22.715332,0.908383,99,99,0,0,0,0,0
2,29999,8,20000,40,0,0,9999,0.100000,99,0,0.000494,13,0.000000,14.361597,0.171216,99,99,0,0,0,1,0
2,29999,9,20000,16,10000,2,9999,0.100000,99,0,39.371942,13,7.000000,23.178013,14.042345,99,99,0,0,1,0,0
2,29999,10,20000,53,0,1,9999,0.100000,99,0,13.974415,13,3.000000,27.122582,4.898795,99,99,0,0,0,0,1
2,29999,11,20000,0,0,41,9999,0.100000,99,0,0.000000,13,3.000000,27.230800,3.627061,99,99,0,0,0,0,0
2,29999,12,20000,70,0,40,9999,0.100000,99,0,0.000000,13,0.000000,33.701403,3.619514,99,99,0,0,0,0,0
2,29999,13,20000,4,0,40,9999,0.100000,99,0,0.000000,13,1.000000,29.176242,4.123725,99,99,0,0,0,0,0
2,29999,14,20000,12,0,40,9999,0.100000,99,0,0.000000,13,0.000000,26.526865,0.600849,99,99,0,0,0,0,0
2,29999,15,20000,17,0,40,9999,0.100000,99,0,0.000000,13,1.000000,30.069654,3.313027,99,99,0,0,0,0,0
2,29999,16,20000,27,0,41,9999,0.100000,99,0,0.000000,13,3.000000,25.634086,19.166631,99,99,0,0,0,0,0
2,29999,17,20000,12,0,0,9999,0.100000,99,0,2.696702,13,0.000000,28.466907,0.713104,99,99,0,0,0,1,0
2,29999,18,20000,9,10000,40,9999,0.100000,99,0,0.000000,13,0.000000,29.061372,1.101317,99,99,0,0,0,0,0
2,29999,19,20000,64,0,40,9999,0.100000,99,0,0.000000,13,3.000000,30.292618,14.272663,99,99,0,0,0,0,0
2,29999,20,20000,27,0,0,9999,0.100000,99,0,0.288653,13,0.000000,25.968734,0.661756,99,99,0,0,1,0,0
2,29999,21,20000,5,0,40,9999,0.100000,99,0,0.000000,13,1.000000,25.977582,2.501975,99,99,0,0,0,0,0
2,29999,22,20000,27,0,41,9999,0.100000,99,0,0.000000,13,3.000000,25.108789,14.478223,99,99,0,0,0,0,0
2,29999,23,20000,9,10000,90,9999,0.100000,99,0,1.056275,13,0.000000,23.355092,0.617712,99,99,1,0,0,0,0
2,29999,24,20000,0,0,40,9999,0.100000,99,0,0.000000,13,2.000000,27.372268,11.286557,99,99,0,0,0,0,0
2,29999,25,20000,12,0,41,9999,0.100000,99,0,0.000000,13,2.000000,18.435226,9.181648,99,99,0,0,0,0,0
2,29999,26,20000,40,0,40,9999,0.100000,99,0,0.000000,13,1.000000,17.011713,10.176112,99,99,0,0,0,0,0
2,29999,27,20000,17,0,40,9999,0.100000,99,0,0.000000,13,1.000000,29.127068,2.313178,99,99,0,0,0,0,0
2,29999,28,20000,17,0,40,9999,0.100000,99,0,0.000000,13,0.000000,31.250065,0.964698,99,99,0,0,0,0,0
2,29999,29,20000,53,10000,40,9999,0.100000,99,0,0.000000,13,0.000000,29.250828,2.079418,99,99,0,0,0,0,0
2,29999,30,20000,40,0,0,9999,0.100000,99,0,0.546426,13,0.000000,27.979640,0.114498,99,99,0,0,0,0,1
2,29999,31,20000,5,0,90,9999,0.100000,99,0,0.214036,13,0.000000,22.200644,0.759215,99,99,1,0,0,0,0
2,29999,32,20000,5,0,40,9999,0.100000,99,0,0.000000,13,0.000000,25.974179,1.581285,99,99,0,0,0,0,0
2,29999,33,20000,12,0,40,9999,0.100000,99,0,0.000000,13,0.000000,25.255208,1.002643,99,99,0,0,0,0,0
2,29999,34,20000,87,0,0,9999,0.100000,99,0,0.549783,13,0.000000,22.890995,0.971777,99,99,0,0,0,0,1
2,29999,35,20000,0,0,40,9999,0.100000,99,0,0.000000,13,0.000000,26.260193,0.432955,99,99,0,0,0,0,0
2,29999,36,20000,12,0,0,9999,0.100000,99,0,0.522491,13,0.000000,32.196629,0.293740,99,99,0,0,0,1,0
2,29999,37,20000,40,0,40,9999,0.100000,99,0,0.000000,13,0.000000,20.679507,1.019447,99,99,0,0,0,0,0
2,29999,38,20000,87,0,40,9999,0.100000,99,0,0.000000,13,0.000000,19.567474,0.213648,99,99,0,0,0,0,0
2,29999,39,20000,87,0,41,9999,0.100000,99,0,0.000000,13,3.000000,24.433809,13.107020,99,99,0,0,0,0,0
2,29999,40,20000,70,0,1,9999,0.100000,99,0,23.543770,13,4.000000,27.421281,12.946606,99,99,0,1,0,0,0
2,29999,41,20000,53,0,40,9999,0.100000,99,0,0.000000,13,0.000000,20.807324,1.280011,99,99,0,0,0,0,0
2,29999,42,20000,53,10000,40,9999,0.100000,99,0,0.000000,13,0.000000,14.622238,0.071898,99,99,0,0,0,0,0
2,29999,43,20000,57,0,2,9999,0.100000,99,0,39.354856,13,7.000000,22.748138,17.561479,99,99,0,0,1,0,0
2,29999,44,20000,70,0,40,9999,0.100000,99,0,0.000000,13,2.000000,27.556249,2.836113,99,99,0,0,0,0,0
2,29999,45,20000,4,0,40,9999,0.100000,99,0,0.000000,13,2.000000,27.711913,2.752348,99,99,0,0,0,0,0
2,29999,46,20000,17,0,40,9999,0.100000,99,0,0.000000,13,0.000000,24.837900,6.419754,99,99,0,0,0,0,0
2,29999,47,20000,17,0,40,9999,0.100000,99,0,0.000000,13,1.000000,28.054750,15.687824,99,99,0,0,0,0,0
2,29999,48,20000,64,0,40,9999,0.100000,99,0,0.000000,13,1.000000,18.092059,10.966359,99,99,0,0,0,0,0
2,29999,49,20000,16,10000,40,9999,0.100000,99,0,0.000000,13,0.000000,21.146318,0.855571,99,99,0,0,0,0,0
2,29999,50,20000,53,10000,40,9999,0.100000,99,0,0.000000,13,2.000000,28.352982,5.348700,99,99,0,0,0,0,0
2,29999,51,20000,17,0,2,9999,0.100000,99,0,39.361076,13,7.000000,22.953916,12.176732,99,99,0,0,1,0,0
2,29999,52,20000,53,10000,40,9999,0.100000,99,0,0.000000,13,2.000000,29.191550,3.427433,99,99,0,0,0,0,0
2,29999,53,20000,13,0,0,9999,0.100000,99,0,2.839375,13,0.000000,21.152077,0.753576,99,99,0,1,0,0,0
2,29999,54,20000,0,0,40,9999,0.100000,99,0,0.000000,13,0.000000,12.327964,0.879956,99,99,0,0,0,0,0
2,29999,55,20000,53,10000,40,9999,0.100000,99,0,0.000000,13,1.000000,28.146406,6.925298,99,99,0,0,0,0,0
2,29999,56,20000,40,0,40,9999,0.100000,99,0,0.000000,13,1.000000,31.229496,4.248035,99,99,0,0,0,0,0
2,29999,57,20000,87,0,40,9999,0.100000,99,0,0.000000,13,0.000000,32.451627,0.336091,99,99,0,0,0,0,0
2,29999,58,20000,40,0,40,9999,0.100000,99,0,0.000000,13,1.000000,27.900066,2.714132,99,99,0,0,0,0,0
2,29999,59,20000,64,0,40,9999,0.100000,99,0,0.000000,13,1.000000,22.259479,8.986373,99,99,0,0,0,0,0
2,29999,60,20000,17,0,40,9999,0.100000,99,0,0.000000,13,0.000000,30.931591,1.021942,99,99,0,0,0,0,0
2,29999,61,20000,70,0,40,9999,0.100000,99,0,0.000000,13,3.000000,28.842768,6.354666,99,99,0,0,0,0,0
2,29999,62,20000,4,0,40,9999,0.100000,99,0,0.000000,13,0.000000,23.595138,0.999586,99,99,0,0,0,0,0
2,29999,63,20000,64,0,40,9999,0.100000,99,0,0.000000,13,0.000000,27.913678,0.151613,99,99,0,0,0,0,0
2,29999,64,20000,40,0,40,9999,0.100000,99,0,0.000000,13,0.000000,23.840770,1.240809,99,99,0,0,0,0,0
2,29999,65,20000,17,0,0,9999,0.100000,99,0,0.009366,13,1.000000,17.521640,5.322270,99,99,0,0,1,0,0
2,29999,66,20000,4,0,40,9999,0.100000,99,0,0.000000,13,0.000000,28.184177,0.920203,99,99,0,0,0,0,0
2,29999,67,20000,87,0,41,9999,0.100000,99,0,0.000000,13,4.000000,32.020765,10.317885,99,99,0,0,0,0,0
2,29999,68,20000,53,10000,0,9999,0.100000,99,0,0.044764,13,0.000000,23.034490,0.566250,99,99,0,0,1,0,0
2,29999,69,20000,53,10000,40,9999,0.100000,99,0,0.000000,13,1.000000,29.048614,2.603606,99,99,0,0,0,0,0
2,29999,70,20000,57,0,40,9999,0.100000,99,0,0.000000,13,3.000000,35.719032,11.389500,99,99,0,0,0,0,0
2,29999,71,20000,13,0,40,9999,0.100000,99,0,0.000000,13,1.000000,25.363328,4.684104,99,99,0,0,0,0,0
2,29999,72,20000,12,0,40,9999,0.100000,99,0,0.000000,13,1.000000,18.798368,7.632657,99,99,0,0,0,0,0
2,29999,73,20000,12,0,1,9999,0.100000,99,0,23.543770,13,4.000000,27.608662,14.047268,99,99,0,1,0,0,0
2,29999,74,20000,40,0,40,9999,0.100000,99,0,0.000000,13,1.000000,20.938589,6.425515,99,99,0,0,0,0,0
2,29999,75,20000,0,0,41,9999,0.100000,99,0,0.000000,13,3.000000,18.539280,10.189565,99,99,0,0,0,0,0
2,29999,76,20000,0,0,40,9999,0.100000,99,0,0.000000,13,0.000000,25.576705,0.521395,99,99,0,0,0,0,0
2,29999,77,20000,5,0,40,9999,0.100000,99,0,0.000000,13,0.000000,11.650112,0.720453,99,99,0,0,0,0,0
2,29999,78,20000,27,0,40,9999,0.100000,99,0,0.000000,13,1.000000,18.261502,20.101308,99,99,0,0,0,0,0
2,29999,79,20000,70,0,41,9999,0.100000,99,0,0.000000,13,4.000000,34.345912,8.605351,99,99,0,0,0,0,0
2,29999,80,20000,4,0,42,9999,0.100000,99,0,0.000000,13,5.000000,18.770212,19.795793,99,99,0,0,0,0,0
2,29999,81,20000,57,0,40,9999,0.100000,99,0,0.000000,13,1.000000,25.442364,16.297420,99,99,0,0,0,0,0
2,29999,82,20000,0,0,41,9999,0.100000,99,0,0.000000,13,3.000000,27.604908,12.809195,99,99,0,0,0,0,0
2,29999,83,20000,5,0,40,9999,0.100000,99,0,0.000000,13,1.000000,28.627785,16.207691,99,99,0,0,0,0,0
2,29999,84,20000,70,0,40,9999,0.100000,99,0,0.000000,13,2.000000,30.755730,5.328090,99,99,0,0,0,0,0
2,29999,85,20000,40,0,90,9999,0.100000,99,0,4.259905,13,0.000000,23.039764,1.476630,99,99,1,0,0,0,0
2,29999,86,20000,70,0,40,9999,0.100000,99,0,0.000000,13,1.000000,26.003967,4.329880,99,99,0,0,0,0,0
2,29999,87,20000,4,0,40,9999,0.100000,99,0,0.000000,13,1.000000,34.005846,7.575703,99,99,0,0,0,0,0
2,29999,88,20000,87,0,40,9999,0.100000,99,0,0.000000,13,0.000000,25.507232,0.640133,99,99,0,0,0,0,0
2,29999,89,20000,64,0,0,9999,0.100000,99,0,7.267808,13,1.000000,25.812640,1.897417,99,99,0,1,0,0,0
2,29999,90,20000,70,0,91,9999,0.100000,99,0,13.565848,13,5.000000,35.387949,14.231203,99,99,1,0,0,0,0
2,29999,91,20000,0,0,40,9999,0.100000,99,0,0.000000,13,0.000000,33.839814,5.737720,99,99,0,0,0,0,0
2,29999,92,20000,57,0,41,9999,0.100000,99,0,0.000000,13,6.000000,31.259731,11.578292,99,99,0,0,0,0,0
2,29999,93,20000,16,10000,0,9999,0.100000,99,0,0.568427,13,0.000000,12.615011,0.196675,99,99,0,0,0,1,0
2,29999,94,20000,27,0,40,9999,0.100000,99,0,0.000000,13,0.000000,16.765517,0.540396,99,99,0,0,0,0,0
2,29999,95,20000,87,0,42,9999,0.100000,99,0,0.000000,13,6.000000,19.363831,8.679271,99,99,0,0,0,0,0
2,29999,96,20000,17,0,40,9999,0.100000,99,0,0.000000,13,2.000000,26.610114,7.529054,99,99,0,0,0,0,0
2,29999,97,20000,12,0,41,9999,0.100000,99,0,0.000000,13,4.000000,27.593284,14.066794,99,99,0,0,0,0,0
2,29999,98,20000,40,0,40,9999,0.100000,99,0,0.000000,13,0.000000,18.755093,1.049639,99,99,0,0,0,0,0
2,29999,99,20000,0,0,40,9999,0.100000,99,0,0.000000,13,3.000000,28.708672,16.138494,99,99,0,0,0,0,0
3,39999,0,30000,17,0,40,9999,0.100000,99,0,0.000000,13,0.000000,25.063552,2.041992,99,99,0,0,0,0,0
3,39999,1,30000,4,0,0,9999,0.100000,99,0,0.358865,13,0.000000,19.367563,0.166009,99,99,0,0,0,0,1
3,39999,2,30000,40,0,42,9999,0.100000,99,0,0.000000,13,5.000000,16.294123,17.491491,99,99,0,0,0,0,0
3,39999,3,30000,17,0,40,9999,0.100000,99,0,0.000000,13,0.000000,23.437698,0.988451,99,99,0,0,0,0,0
3,39999,4,30000,53,10000,40,9999,0.100000,99,0,0.000000,13,0.000000,12.443268,6.362842,99,99,0,0,0,0,0
3,39999,5,30000,70,0,40,9999,0.100000,99,0,0.000000,13,2.000000,24.085159,4.791302,99,99,0,0,0,0,0
3,39999,6,30000,97,10000,40,9999,0.100000,99,0,0.000000,13,1.000000,28.274441,10.237560,99,99,0,0,0,0,0
3,39999,7,30000,4,0,40,9999,0.100000,99,0,0.000000,13,0.000000,22.004968,0.419155,99,99,0,0,0,0,0
3,39999,8,30000,70,0,0,9999,0.100000,99,0,0.433105,13,0.000000,14.361912,0.206414,99,99,0,0,0,1,0
3,39999,9,30000,12,0,40,9999,0.100000,99,0,0.000000,13,2.000000,28.837512,8.498008,99,99,0,0,0,0,0
3,39999,10,30000,0,0,41,9999,0.100000,99,0,0.000000,13,5.000000,30.147654,12.640222,99,99,0,0,0,0,0
3,39999,11,30000,57,0,40,9999,0.100000,99,0,0.000000,13,3.000000,30.280258,12.039518,99,99,0,0,0,0,0
3,39999,12,30000,16,10000,41,9999,0.100000,99,0,0.000000,13,5.000000,33.174207,5.633074,99,99,0,0,0,0,0
3,39999,13,30000,57,0,40,9999,0.100000,99,0,0.000000,13,0.000000,28.507022,1.159846,99,99,0,0,0,0,0
3,39999,14,30000,70,0,0,9999,0.100000,99,0,1.875066,13,0.000000,26.648666,0.631524,99,99,0,0,1,0,0
3,39999,15,30000,4,0,40,9999,0.100000,99,0,0.000000,13,1.000000,29.998963,18.676357,99,99,0,0,0,0,0
3,39999,16,30000,10,20000,40,9999,0.100000,99,0,0.000000,13,3.000000,29.416967,13.098908,99,99,0,0,0,0,0
3,39999,17,30000,12,0,0,9999,0.100000,99,0,0.496927,13,0.000000,28.763935,0.302772,99,99,0,0,0,1,0
3,39999,18,30000,97,10000,40,9999,0.100000,99,0,0.000000,13,0.000000,29.278831,0.484964,99,99,0,0,0,0,0
3,39999,19,30000,12,0,40,9999,0.100000,99,0,0.000000,13,3.000000,33.201594,11.734480,99,99,0,0,0,0,0
3,39999,20,30000,12,0,40,9999,0.100000,99,0,0.000000,13,0.000000,26.088396,0.600800,99,99,0,0,0,0,0
3,39999,21,30000,27,0,4,9999,0.100000,99,0,55.198770,13,11.000000,24.874605,14.380565,99,99,0,1,0,0,-1
3,39999,22,30000,57,0,40,9999,0.100000,99,0,0.000000,13,0.000000,25.015560,10.505270,99,99,0,0,0,0,0
3,39999,23,30000,97,10000,90,9999,0.100000,99,0,0.286699,13,0.000000,23.423055,0.566731,99,99,1,0,0,0,0
3,39999,24,30000,89,20000,40,9999,0.100000,99,0,0.000000,13,1.000000,29.458487,12.108858,99,99,0,0,0,0,0
3,39999,25,30000,5,0,40,9999,0.100000,99,0,0.000000,13,0.000000,19.984628,2.938002,99,99,0,0,0,0,0
3,39999,26,30000,97,10000,40,9999,0.100000,99,0,0.000000,13,1.000000,16.970133,11.337464,99,99,0,0,0,0,0
3,39999,27,30000,40,0,40,9999,0.100000,99,0,0.000000,13,0.000000,28.677854,5.973689,99,99,0,0,0,0,0
3,39999,28,30000,16,10000,40,9999,0.100000,99,0,0.000000,13,0.000000,31.520290,0.961408,99,99,0,0,0,0,0
3,39999,29,30000,12,0,40,9999,0.100000,99,0,0.000000,13,1.000000,29.178138,2.486545,99,99,0,0,0,0,0
3,39999,30,30000,57,0,0,9999,0.100000,99,0,1.120895,13,0.000000,28.039428,1.219542,99,99,0,0,0,0,1
3,39999,31,30000,4,0,90,9999,0.100000,99,0,0.143356,13,0.000000,22.303339,0.677846,99,99,1,0,0,0,0
3,39999,32,30000,12,0,40,9999,0.100000,99,0,0.000000,13,2.000000,25.657886,11.430588,99,99,0,0,0,0,0
3,39999,33,30000,0,0,40,9999,0.100000,99,0,0.000000,13,0.000000,24.491135,1.032405,99,99,0,0,0,0,0
3,39999,34,30000,4,0,0,9999,0.100000,99,0,0.637497,13,0.000000,22.405769,0.381158,99,99,0,0,0,0,1
3,39999,35,30000,9,20000,40,9999,0.100000,99,0,0.000000,13,0.000000,26.379681,0.607207,99,99,0,0,0,0,0
3,39999,36,30000,9,10000,0,9999,0.100000,99,0,1.266269,13,0.000000,31.980067,0.373062,99,99,0,0,0,1,0
3,39999,37,30000,97,10000,40,9999,0.100000,99,0,0.000000,13,0.000000,20.000048,1.219628,99,99,0,0,0,0,0
3,39999,38,30000,97,10000,40,9999,0.100000,99,0,0.000000,13,0.000000,19.582598,0.194945,99,99,0,0,0,0,0
3,39999,39,30000,89,20000,41,9999,0.100000,99,0,0.000000,13,3.000000,27.252478,13.348072,99,99,0,0,0,0,0
3,39999,40,30000,12,0,40,9999,0.100000,99,0,0.000000,13,0.000000,31.414938,1.903461,99,99,0,0,0,0,-1
3,39999,41,30000,16,10000,40,9999,0.100000,99,0,0.000000,13,0.000000,20.144745,1.555576,99,99,0,0,0,0,0
3,39999,42,30000,40,0,40,9999,0.100000,99,0,0.000000,13,0.000000,14.623137,0.705699,99,99,0,0,0,0,0
3,39999,43,30000,9,20000,41,9999,0.100000,99,0,0.000000,13,3.000000,27.688705,9.662813,99,99,0,0,0,0,0
3,39999,44,30000,9,20000,40,9999,0.100000,99,0,0.000000,13,2.000000,30.010215,11.011115,99,99,0,0,0,0,0
3,39999,45,30000,53,10000,0,9999,0.100000,99,0,0.000000,13,1.000000,29.876704,4.651042,99,99,0,0,0,0,1
3,39999,46,30000,89,20000,40,9999,0.100000,99,0,0.000000,13,1.000000,25.061420,8.340722,99,99,0,0,0,0,0
3,39999,47,30000,9,10000,40,9999,0.100000,99,0,0.000000,13,2.000000,28.949782,11.387214,99,99,0,0,0,0,0
3,39999,48,30000,27,0,40,9999,0.100000,99,0,0.000000,13,1.000000,16.763575,16.046750,99,99,0,0,0,0,0
3,39999,49,30000,12,0,40,9999,0.100000,99,0,0.000000,13,0.000000,20.612160,1.043769,99,99,0,0,0,0,0
3,39999,50,30000,5,0,41,9999,0.100000,99,0,0.000000,13,3.000000,28.083529,10.529648,99,99,0,0,0,0,0
3,39999,51,30000,97,10000,40,9999,0.065000,99,0,0.000000,13,3.000000,29.256518,9.541525,99,99,0,0,0,0,0
3,39999,52,30000,57,0,41,9999,0.100000,99,0,0.000000,13,4.000000,28.568492,13.626919,99,99,0,0,0,0,0
3,39999,53,30000,27,0,0,9999,0.100000,99,0,4.281274,13,0.000000,20.627489,0.945341,99,99,0,1,0,0,0
3,39999,54,30000,57,0,0,9999,0.100000,99,0,0.666330,13,0.000000,12.495882,0.960397,99,99,0,0,0,1,0
3,39999,55,30000,70,0,40,9999,0.100000,99,0,0.000000,13,1.000000,28.372327,7.475950,99,99,0,0,0,0,0
3,39999,56,30000,5,0,40,9999,0.100000,99,0,0.000000,13,1.000000,29.759111,7.321875,99,99,0,0,0,0,0
3,39999,57,30000,12,0,40,9999,0.100000,99,0,0.000000,13,0.000000,32.208553,0.763415,99,99,0,0,0,0,0
3,39999,58,30000,97,10000,40,9999,0.100000,99,0,0.000000,13,2.000000,29.725382,10.774771,99,99,0,0,0,0,0
3,39999,59,30000,27,0,42,9999,0.100000,99,0,0.000000,13,6.000000,22.293984,23.021342,99,99,0,0,0,0,0
3,39999,60,30000,40,20000,40,9999,0.100000,99,0,0.000000,13,0.000000,31.196299,0.989888,99,99,0,0,0,0,0
3,39999,61,30000,57,0,40,9999,0.100000,99,0,0.000000,13,1.000000,25.159352,6.627399,99,99,0,0,0,0,0
3,39999,62,30000,9,10000,40,9999,0.100000,99,0,0.000000,13,0.000000,22.838745,0.957667,99,99,0,0,0,0,0
3,39999,63,30000,70,0,40,9999,0.100000,99,0,0.000000,13,0.000000,27.961567,0.185194,99,99,0,0,0,0,0
3,39999,64,30000,27,0,40,9999,0.100000,99,0,0.000000,13,0.000000,23.828737,0.992251,99,99,0,0,0,0,0
3,39999,65,30000,53,10000,0,9999,0.100000,99,0,0.042069,13,0.000000,17.004832,0.167534,99,99,0,0,1,0,0
3,39999,66,30000,53,10000,40,9999,0.100000,99,0,0.000000,13,0.000000,28.520884,0.732189,99,99,0,0,0,0,0
3,39999,67,30000,53,10000,40,9999,0.100000,99,0,0.000000,13,0.000000,33.392893,7.981751,99,99,0,0,0,0,0
3,39999,68,30000,53,10000,0,9999,0.100000,99,0,0.095665,13,0.000000,22.845473,0.213150,99,99,0,0,1,0,0
3,39999,69,30000,57,0,40,9999,0.100000,99,0,0.000000,13,1.000000,28.833333,4.613243,99,99,0,0,0,0,0
3,39999,70,30000,89,20000,40,9999,0.100000,99,0,0.000000,13,1.000000,33.392291,3.237581,99,99,0,0,0,0,0
3,39999,71,30000,57,0,40,9999,0.100000,99,0,0.000000,13,2.000000,24.001594,11.555371,99,99,0,0,0,0,0
3,39999,72,30000,12,0,40,9999,0.100000,99,0,0.000000,13,0.000000,19.216657,6.154725,99,99,0,0,0,0,0
3,39999,73,30000,12,0,90,9999,0.100000,99,0,15.897690,13,2.000000,31.427012,17.438675,99,99,1,0,0,0,0
3,39999,74,30000,70,0,42,9999,0.100000,99,0,0.000000,13,5.000000,21.490420,10.600614,99,99,0,0,0,0,0
3,39999,75,30000,9,10000,41,9999,0.100000,99,0,0.000000,13,2.000000,16.647980,5.094221,99,99,0,0,0,0,0
3,39999,76,30000,9,20000,40,9999,0.100000,99,0,0.000000,13,0.000000,25.884424,0.522648,99,99,0,0,0,0,0
3,39999,77,30000,4,0,40,9999,0.100000,99,0,0.000000,13,0.000000,11.476810,0.727575,99,99,0,0,0,0,0
3,39999,78,30000,0,0,40,9999,0.100000,99,0,0.000000,13,0.000000,18.854420,15.252329,99,99,0,0,0,0,0
3,39999,79,30000,0,0,40,9999,0.100000,99,0,0.000000,13,1.000000,30.504206,10.520676,99,99,0,0,0,0,0
3,39999,80,30000,70,0,40,9999,0.100000,99,0,0.000000,13,0.000000,19.397775,0.589065,99,99,0,0,0,0,0
3,39999,81,30000,40,20000,41,9999,0.100000,99,0,0.000000,13,4.000000,26.589970,13.135300,99,99,0,0,0,0,0
3,39999,82,30000,9,10000,40,9999,0.100000,99,0,0.000000,13,1.000000,26.628387,7.198670,99,99,0,0,0,0,0
3,39999,83,30000,57,0,41,9999,0.100000,99,0,0.000000,13,3.000000,27.208420,10.434079,99,99,0,0,0,0,0
3,39999,84,30000,70,0,40,9999,0.100000,99,0,0.000000,13,0.000000,28.624335,6.420209,99,99,0,0,0,0,0
3,39999,85,30000,5,0,91,9999,0.100000,99,0,23.261029,13,4.000000,23.869122,8.094067,99,99,1,0,0,0,0
3,39999,86,30000,40,20000,40,9999,0.100000,99,0,0.000000,13,2.000000,25.510376,7.760282,99,99,0,0,0,0,0
3,39999,87,30000,16,10000,40,9999,0.100000,99,0,0.000000,13,0.000000,33.291048,3.569275,99,99,0,0,0,0,0
3,39999,88,30000,4,0,40,9999,0.100000,99,0,0.000000,13,0.000000,25.813335,0.634285,99,99,0,0,0,0,0
3,39999,89,30000,0,0,4,9999,0.100000,99,0,60.027297,13,11.000000,24.988967,16.051040,99,99,0,1,0,0,0
3,39999,90,30000,16,10000,40,9999,0.100000,99,0,0.000000,13,1.000000,30.550702,10.230774,99,99,0,0,0,0,0
3,39999,91,30000,4,0,40,9999,0.100000,99,0,0.000000,13,0.000000,33.210611,1.170574,99,99,0,0,0,0,0
3,39999,92,30000,89,20000,40,9999,0.100000,99,0,0.000000,13,1.000000,29.539042,10.270234,99,99,0,0,0,0,0
3,39999,93,30000,97,10000,40,9999,0.100000,99,0,0.000000,13,0.000000,12.752811,0.358374,99,99,0,0,0,0,0
3,39999,94,30000,27,0,40,9999,0.100000,99,0,0.000000,13,0.000000,17.081653,0.189246,99,99,0,0,0,0,0
3,39999,95,30000,57,0,40,9999,0.100000,99,0,0.000000,13,1.000000,14.262844,11.445523,99,99,0,0,0,0,0
3,39999,96,30000,40,20000,40,9999,0.100000,99,0,0.000000,13,1.000000,28.708560,5.652341,99,99,0,0,0,0,0
3,39999,97,30000,57,0,40,9999,0.100000,99,0,0.000000,13,0.000000,25.052006,9.371853,99,99,0,0,0,0,0
3,39999,98,30000,5,0,40,9999,0.100000,99,0,0.000000,13,1.000000,18.817436,6.384577,99,99,0,0,0,0,0
3,39999,99,30000,27,0,40,9999,0.100000,99,0,0.000000,13,0.000000,27.802799,8.383839,99,99,0,0,0,0,0
4,49999,0,40000,73,20000,40,9999,0.100000,99,0,0.000000,13,0.000000,24.978780,1.096007,99,99,0,0,0,0,0
4,49999,1,40000,70,0,3,9999,0.100000,99,0,36.526479,13,7.000000,19.347768,7.834868,99,99,0,0,0,0,1
4,49999,2,40000,73,20000,43,9999,0.100000,99,0,0.000000,14,6.000000,14.889187,20.998672,99,99,0,0,0,0,0
4,49999,3,40000,70,0,40,9999,0.100000,99,0,0.000000,14,0.000000,22.709229,0.954933,99,99,0,0,0,0,0
4,49999,4,40000,70,0,40,9999,0.100000,99,0,0.000000,13,0.000000,13.001115,0.319421,99,99,0,0,0,0,0
4,49999,5,40000,0,0,41,9999,0.100000,99,0,0.000000,14,5.000000,25.512378,15.126001,99,99,0,0,0,0,0
4,49999,6,40000,12,0,40,9999,0.100000,99,0,0.000000,13,1.000000,28.418890,5.780729,99,99,0,0,0,0,0
4,49999,7,40000,70,0,40,9999,0.100000,99,0,0.000000,14,0.000000,21.740774,0.087379,99,99,0,0,0,0,0
4,49999,8,40000,70,0,0,9999,0.100000,99,0,0.000137,13,0.000000,14.409564,0.119913,99,99,0,0,0,1,0
4,49999,9,40000,97,10000,41,9999,0.100000,99,0,0.000000,14,4.000000,26.202009,12.527220,99,99,0,0,0,0,0
4,49999,10,40000,57,0,41,9999,0.100000,99,0,0.000000,14,3.000000,25.912462,6.840662,99,99,0,0,0,0,0
4,49999,11,40000,4,0,40,9999,0.100000,99,0,0.000000,13,1.000000,27.305842,3.947330,99,99,0,0,0,0,0
4,49999,12,40000,40,20000,40,9999,0.100000,99,0,0.000000,14,0.000000,36.138875,0.207078,99,99,0,0,0,0,0
4,49999,13,40000,73,30000,40,9999,0.100000,99,0,0.000000,14,0.000000,28.713791,4.553731,99,99,0,0,0,0,0
4,49999,14,40000,70,0,40,9999,0.100000,99,0,0.000000,14,1.000000,26.442829,2.476853,99,99,0,0,0,0,0
4,49999,15,40000,9,20000,40,9999,0.100000,99,0,0.000000,14,0.000000,29.202693,3.546230,99,99,0,0,0,0,0
4,49999,16,40000,27,0,1,9999,0.100000,99,0,0.097522,13,3.000000,27.479528,8.118142,99,99,0,0,0,0,1
4,49999,17,40000,5,0,0,9999,0.100000,99,0,0.004054,13,0.000000,28.856031,0.686141,99,99,0,0,0,1,0
4,49999,18,40000,5,0,40,9999,0.100000,99,0,0.000000,14,0.000000,29.246169,0.581801,99,99,0,0,0,0,0
4,49999,19,40000,5,0,40,9999,0.100000,99,0,0.000000,14,1.000000,30.074601,9.257763,99,99,0,0,0,0,0
4,49999,20,40000,97,10000,0,9999,0.100000,99,0,0.415487,14,1.000000,25.886135,2.249125,99,99,0,0,1,0,0
4,49999,21,40000,70,0,40,9999,0.100000,99,0,0.000000,14,0.000000,30.942835,1.276202,99,99,0,0,0,0,0
4,49999,22,40000,70,0,40,9999,0.100000,99,0,0.000000,14,0.000000,24.154081,6.591677,99,99,0,0,0,0,0
4,49999,23,40000,40,20000,90,9999,0.100000,99,0,0.052892,14,0.000000,23.533199,0.544459,99,99,1,0,0,0,0
4,49999,24,40000,10,20000,41,9999,0.100000,99,0,0.000000,14,4.000000,29.186406,19.328343,99,99,0,0,0,0,0
4,49999,25,40000,73,20000,41,9999,0.100000,99,0,0.000000,14,3.000000,19.679478,12.148407,99,99,0,0,0,0,0
4,49999,26,40000,73,20000,44,9999,0.100000,99,0,0.000000,14,7.000000,15.299742,25.397929,99,99,0,0,0,0,0
4,49999,27,40000,89,30000,41,9999,0.100000,99,0,0.000000,14,4.000000,28.920063,12.139159,99,99,0,0,0,0,0
4,49999,28,40000,40,20000,40,9999,0.100000,99,0,0.000000,14,0.000000,31.811851,0.905550,99,99,0,0,0,0,0
4,49999,29,40000,89,30000,40,9999,0.100000,99,0,0.000000,14,0.000000,31.084713,0.138911,99,99,0,0,0,0,0
4,49999,30,40000,70,0,0,9999,0.100000,99,0,1.307505,14,0.000000,28.143555,0.296889,99,99,0,0,0,0,1
4,49999,31,40000,73,30000,90,9999,0.100000,99,0,5.343770,14,1.000000,22.381601,2.061714,99,99,1,0,0,0,0
4,49999,32,40000,59,30000,1,9999,0.100000,99,0,0.054411,14,3.000000,24.987631,10.505774,99,99,0,0,0,1,0
4,49999,33,40000,9,20000,40,9999,0.100000,99,0,0.000000,14,0.000000,23.695351,1.008009,99,99,0,0,0,0,0
4,49999,34,40000,27,0,0,9999,0.100000,99,0,0.000606,14,0.000000,22.192781,0.190695,99,99,0,0,0,0,1
4,49999,35,40000,89,30000,40,9999,0.100000,99,0,0.000000,14,1.000000,26.170488,2.287242,99,99,0,0,0,0,0
4,49999,36,40000,70,0,40,9999,0.100000,99,0,0.000000,14,0.000000,31.673077,0.832692,99,99,0,0,0,0,0
4,49999,37,40000,73,30000,40,9999,0.100000,99,0,0.000000,14,1.000000,19.180030,5.502719,99,99,0,0,0,0,0
4,49999,38,40000,5,0,43,9999,0.100000,99,0,0.000000,14,7.000000,19.568802,7.997638,99,99,0,0,0,0,0
4,49999,39,40000,70,0,43,9999,0.100000,99,0,0.000000,14,9.000000,23.449089,12.858956,99,99,0,0,0,0,0
4,49999,40,40000,70,0,40,9999,0.100000,99,0,0.000000,14,1.000000,31.044680,6.241313,99,99,0,0,0,0,0
4,49999,41,40000,0,0,40,9999,0.100000,99,0,0.000000,14,1.000000,19.332192,4.740472,99,99,0,0,0,0,0
4,49999,42,40000,89,30000,40,9999,0.100000,99,0,0.000000,14,0.000000,14.665694,0.098931,99,99,0,0,0,0,0
4,49999,43,40000,9,20000,41,9999,0.100000,99,0,0.000000,14,4.000000,26.936644,11.706260,99,99,0,0,0,0,0
4,49999,44,40000,4,0,40,9999,0.100000,99,0,0.000000,14,2.000000,27.952930,6.472230,99,99,0,0,0,0,0
4,49999,45,40000,12,0,40,9999,0.100000,99,0,0.000000,14,2.000000,30.342389,11.789749,99,99,0,0,0,0,0
4,49999,46,40000,73,20000,41,9999,0.100000,99,0,0.000000,14,5.000000,24.865418,24.371844,99,99,0,0,0,0,0
4,49999,47,40000,9,20000,41,9999,0.100000,99,0,0.000000,14,5.000000,26.572176,15.261322,99,99,0,0,0,0,0
4,49999,48,40000,16,10000,43,9999,0.100000,99,0,0.000000,14,6.000000,16.662066,17.296182,99,99,0,0,0,0,0
4,49999,49,40000,4,0,40,9999,0.100000,99,0,0.000000,14,0.000000,20.228360,2.265216,99,99,0,0,0,0,0
4,49999,50,40000,5,0,40,9999,0.100000,99,0,0.000000,13,0.000000,25.124640,1.238976,99,99,0,0,0,0,0
4,49999,51,40000,73,20000,41,9999,0.100000,99,0,0.000000,14,5.000000,27.941837,16.848952,99,99,0,0,0,0,0
4,49999,52,40000,73,20000,40,9999,0.100000,99,0,0.000000,14,2.000000,24.464877,14.669283,99,99,0,0,0,0,0
4,49999,53,40000,4,0,4,9999,0.100000,99,0,2.829258,14,9.000000,20.255156,19.513836,99,99,0,1,0,0,0
4,49999,54,40000,12,0,0,9999,0.100000,99,0,0.860818,14,0.000000,12.986611,0.303681,99,99,0,0,0,1,0
4,49999,55,40000,0,0,40,9999,0.100000,99,0,0.000000,14,1.000000,26.661932,9.216901,99,99,0,0,0,0,0
4,49999,56,40000,57,0,41,9999,0.100000,99,0,0.000000,14,4.000000,29.386732,13.535928,99,99,0,0,0,0,0
4,49999,57,40000,97,10000,41,9999,0.100000,99,0,0.000000,14,6.000000,31.568220,14.972396,99,99,0,0,0,0,0
4,49999,58,40000,10,20000,1,9999,0.100000,99,0,2.133648,14,5.000000,28.306205,8.718758,99,99,0,0,0,1,0
4,49999,59,40000,59,30000,40,9999,0.100000,99,0,0.000000,14,1.000000,27.010210,9.691930,99,99,0,0,0,0,0
4,49999,60,40000,12,0,40,9999,0.100000,99,0,0.000000,14,0.000000,31.476704,0.931742,99,99,0,0,0,0,0
4,49999,61,40000,9,20000,40,9999,0.100000,99,0,0.000000,14,2.000000,23.778213,12.789206,99,99,0,0,0,0,0
4,49999,62,40000,10,20000,40,9999,0.100000,99,0,0.000000,14,0.000000,22.104659,0.992258,99,99,0,0,0,0,0
4,49999,63,40000,27,0,40,9999,0.100000,99,0,0.000000,14,0.000000,28.015986,0.285128,99,99,0,0,0,0,0
4,49999,64,40000,10,20000,40,9999,0.100000,99,0,0.000000,14,0.000000,23.658839,1.007505,99,99,0,0,0,0,0
4,49999,65,40000,5,0,0,9999,0.100000,99,0,0.015102,14,0.000000,16.978008,0.165194,99,99,0,0,1,0,0
4,49999,66,40000,10,20000,40,9999,0.100000,99,0,0.000000,14,0.000000,28.670152,0.637121,99,99,0,0,0,0,0
4,49999,67,40000,59,30000,40,9999,0.100000,99,0,0.000000,14,2.000000,33.257687,11.148120,99,99,0,0,0,0,0
4,49999,68,40000,0,0,0,9999,0.100000,99,0,0.074520,14,0.000000,22.857992,0.194734,99,99,0,0,1,0,0
4,49999,69,40000,0,0,40,9999,0.100000,99,0,0.000000,14,0.000000,30.392024,0.135198,99,99,0,0,0,0,0
4,49999,70,40000,5,0,40,9999,0.100000,99,0,0.000000,14,1.000000,32.667693,20.872809,99,99,0,0,0,0,0
4,49999,71,40000,97,10000,40,9999,0.100000,99,0,0.000000,14,2.000000,25.531786,5.464752,99,99,0,0,0,0,0
4,49999,72,40000,70,0,40,9999,0.100000,99,0,0.000000,14,2.000000,19.845605,13.820818,99,99,0,0,0,0,0
4,49999,73,40000,97,10000,40,9999,0.100000,99,0,0.000000,14,0.000000,31.435482,2.593265,99,99,0,0,0,0,0
4,49999,74,40000,4,0,40,9999,0.100000,99,0,0.000000,14,2.000000,21.083796,13.800319,99,99,0,0,0,0,0
4,49999,75,40000,4,0,42,9999,0.100000,99,0,0.000000,14,5.000000,18.472582,16.319725,99,99,0,0,0,0,0
4,49999,76,40000,4,0,40,9999,0.100000,99,0,0.000000,14,0.000000,26.197969,0.529139,99,99,0,0,0,0,0
4,49999,77,40000,40,20000,40,9999,0.100000,99,0,0.000000,14,0.000000,11.306211,0.661786,99,99,0,0,0,0,0
4,49999,78,40000,97,10000,43,9999,0.100000,99,0,0.000000,14,7.000000,18.931477,7.851415,99,99,0,0,0,0,0
4,49999,79,40000,12,0,40,9999,0.100000,99,0,0.000000,14,2.000000,32.027163,10.459056,99,99,0,0,0,0,0
4,49999,80,40000,73,20000,43,9999,0.100000,99,0,0.000000,14,7.000000,19.131675,7.863122,99,99,0,0,0,0,0
4,49999,81,40000,12,0,41,9999,0.100000,99,0,0.000000,14,5.000000,25.663974,21.932276,99,99,0,0,0,0,0
4,49999,82,40000,97,10000,40,9999,0.100000,99,0,0.000000,13,0.000000,28.265016,0.802900,99,99,0,0,0,0,0
4,49999,83,40000,59,30000,41,9999,0.100000,99,0,0.000000,14,5.000000,25.893957,18.708659,99,99,0,0,0,0,0
4,49999,84,40000,70,0,40,9999,0.100000,99,0,0.000000,14,0.000000,27.957999,5.355372,99,99,0,0,0,0,0
4,49999,85,40000,9,20000,41,9999,0.100000,99,0,0.000000,14,5.000000,28.042147,11.164459,99,99,0,0,0,0,0
4,49999,86,40000,70,0,40,9999,0.100000,99,0,0.000000,14,0.000000,25.365451,3.447035,99,99,0,0,0,0,0
4,49999,87,40000,5,0,40,9999,0.100000,99,0,0.000000,14,2.000000,32.801012,18.551084,99,99,0,0,0,0,0
4,49999,88,40000,70,0,40,9999,0.100000,99,0,0.000000,14,0.000000,26.126528,0.644260,99,99,0,0,0,0,0
4,49999,89,40000,73,20000,41,9999,0.100000,99,0,0.000000,14,4.000000,31.650933,16.906809,99,99,0,0,0,0,0
4,49999,90,40000,5,0,40,9999,0.100000,99,0,0.000000,14,1.000000,29.046790,8.515233,99,99,0,0,0,0,0
4,49999,91,40000,5,0,41,9999,0.100000,99,0,0.000000,14,5.000000,32.747902,6.581984,99,99,0,0,0,0,0
4,49999,92,40000,89,30000,40,9999,0.100000,99,0,0.000000,14,3.000000,28.680328,9.258427,99,99,0,0,0,0,0
4,49999,93,40000,40,20000,40,9999,0.100000,99,0,0.000000,14,0.000000,13.042498,0.228120,99,99,0,0,0,0,0
4,49999,94,40000,40,20000,40,9999,0.100000,99,0,0.000000,14,0.000000,17.051141,0.158112,99,99,0,0,0,0,0
4,49999,95,40000,73,30000,40,9999,0.100000,99,0,0.000000,14,0.000000,14.534509,0.137801,99,99,0,0,0,0,0
4,49999,96,40000,70,0,40,9999,0.100000,99,0,0.000000,14,0.000000,28.295108,0.630381,99,99,0,0,0,0,0
4,49999,97,40000,5,0,40,9999,0.100000,99,0,0.000000,14,2.000000,25.114958,10.915253,99,99,0,0,0,0,0
4,49999,98,40000,5,0,43,9999,0.100000,99,0,0.000000,14,7.000000,19.741092,8.864600,99,99,0,0,0,0,0
4,49999,99,40000,10,20000,42,9999,0.100000,99,0,0.000000,14,6.000000,28.109808,18.846162,99,99,0,0,0,0,0
5,59999,0,50000,70,0,40,9999,0.100000,99,0,0.000000,14,0.000000,24.168300,1.045913,99,99,0,0,0,0,0
5,59999,1,50000,97,10000,0,9999,0.100000,99,0,6.380933,15,2.000000,22.829928,2.871641,99,99,0,0,0,0,1
5,59999,2,50000,89,30000,41,9999,0.100000,99,0,0.000000,14,3.000000,21.348257,15.650966,99,99,0,0,0,0,0
5,59999,3,50000,9,20000,40,9999,0.100000,99,0,0.000000,14,0.000000,21.980902,0.986563,99,99,0,0,0,0,0
5,59999,4,50000,0,0,40,9999,0.100000,99,0,0.000000,15,0.000000,13.240121,0.318761,99,99,0,0,0,0,0
5,59999,5,50000,89,30000,40,9999,0.100000,99,0,0.000000,15,2.000000,21.545362,12.563978,99,99,0,0,0,0,0
5,59999,6,50000,12,0,40,9999,0.100000,99,0,0.000000,15,1.000000,27.477207,5.956637,99,99,0,0,0,0,0
5,59999,7,50000,10,20000,40,9999,0.100000,99,0,0.000000,14,0.000000,21.738629,0.087172,99,99,0,0,0,0,0
5,59999,8,50000,97,10000,40,9999,0.100000,99,0,0.000000,15,0.000000,14.404372,0.121273,99,99,0,0,0,0,0
5,59999,9,50000,12,0,40,9999,0.100000,99,0,0.000000,14,0.000000,26.650308,3.546713,99,99,0,0,0,0,0
5,59999,10,50000,89,30000,40,9999,0.100000,99,0,0.000000,14,1.000000,23.223035,4.976269,99,99,0,0,0,0,0
5,59999,11,50000,73,20000,40,9999,0.100000,99,0,0.000000,15,1.000000,28.668918,4.737801,99,99,0,0,0,0,0
5,59999,12,50000,9,20000,40,9999,0.100000,99,0,0.000000,15,0.000000,36.140328,0.218511,99,99,0,0,0,0,0
5,59999,13,50000,57,0,41,9999,0.100000,99,0,0.000000,14,5.000000,28.729185,13.386159,99,99,0,0,0,0,0
5,59999,14,50000,57,0,40,9999,0.100000,99,0,0.000000,14,0.000000,26.510883,0.862318,99,99,0,0,0,0,0
5,59999,15,50000,0,0,40,9999,0.100000,99,0,0.000000,14,0.000000,28.284798,0.792620,99,99,0,0,0,0,0
5,59999,16,50000,40,20000,40,9999,0.100000,99,0,0.000000,15,0.000000,30.420433,1.684467,99,99,0,0,0,0,0
5,59999,17,50000,73,30000,0,9999,0.100000,99,0,1.208609,15,0.000000,28.493241,0.529474,99,99,0,0,0,1,0
5,59999,18,50000,9,20000,40,9999,0.100000,99,0,0.000000,15,0.000000,28.850889,0.460501,99,99,0,0,0,0,0
5,59999,19,50000,73,30000,40,9999,0.100000,99,0,0.000000,14,1.000000,30.677207,14.062438,99,99,0,0,0,0,0
5,59999,20,50000,97,10000,0,9999,0.100000,99,0,2.597872,15,0.000000,26.046288,1.112029,99,99,0,0,1,0,0
5,59999,21,50000,89,30000,0,9999,0.100000,99,0,1.750648,15,0.000000,30.635205,0.881956,99,99,0,0,0,0,1
5,59999,22,50000,0,0,40,9999,0.100000,99,0,0.000000,14,2.000000,23.617664,13.440284,99,99,0,0,0,0,0
5,59999,23,50000,73,30000,90,9999,0.100000,99,0,0.938880,14,0.000000,23.625642,0.707639,99,99,1,0,0,0,0
5,59999,24,50000,73,30000,40,9999,0.100000,99,0,0.000000,15,0.000000,28.594726,1.144219,99,99,0,0,0,0,0
5,59999,25,50000,9,20000,42,9999,0.100000,99,0,0.000000,14,6.000000,21.991757,7.822917,99,99,0,0,0,0,0
5,59999,26,50000,12,0,40,9999,0.100000,99,0,0.000000,14,0.000000,22.928301,2.419016,99,99,0,0,0,0,0
5,59999,27,50000,9,20000,41,9999,0.100000,99,0,0.000000,15,4.000000,27.031897,8.908205,99,99,0,0,0,0,0
5,59999,28,50000,40,20000,40,9999,0.100000,99,0,0.000000,14,0.000000,32.095754,0.893688,99,99,0,0,0,0,0
5,59999,29,50000,70,0,40,9999,0.100000,99,0,0.000000,15,0.000000,31.083853,0.137812,99,99,0,0,0,0,0
5,59999,30,50000,4,0,0,9999,0.100000,99,0,0.029371,14,0.000000,28.179434,0.213676,99,99,0,0,0,0,1
5,59999,31,50000,5,0,91,9999,0.100000,99,0,4.429327,15,3.000000,23.070356,3.852473,99,99,1,0,0,0,0
5,59999,32,50000,59,30000,0,9999,0.100000,99,0,3.355217,14,0.000000,23.240619,1.640446,99,99,0,0,0,1,0
5,59999,33,50000,57,0,40,9999,0.100000,99,0,0.000000,15,0.000000,22.920227,1.004908,99,99,0,0,0,0,0
5,59999,34,50000,53,40000,0,9999,0.100000,99,0,0.000606,15,0.000000,22.190415,0.190409,99,99,0,0,0,0,1
5,59999,35,50000,0,0,40,9999,0.100000,99,0,0.000000,14,0.000000,26.273600,0.929582,99,99,0,0,0,0,0
5,59999,36,50000,9,20000,0,9999,0.100000,99,0,10.074153,14,2.000000,31.119940,5.874818,99,99,0,0,0,1,0
5,59999,37,50000,89,30000,40,9999,0.100000,99,0,0.000000,14,1.000000,18.460661,11.121557,99,99,0,0,0,0,0
5,59999,38,50000,53,40000,40,9999,0.100000,99,0,0.000000,15,2.000000,23.052145,2.741583,99,99,0,0,0,0,0
5,59999,39,50000,89,30000,42,9999,0.100000,99,0,0.000000,14,7.000000,30.376820,11.655182,99,99,0,0,0,0,0
5,59999,40,50000,4,0,40,9999,0.100000,99,0,0.000000,14,0.000000,30.269150,2.209499,99,99,0,0,0,0,0
5,59999,41,50000,9,20000,43,9999,0.100000,99,0,0.000000,14,6.000000,17.725070,11.429701,99,99,0,0,0,0,0
5,59999,42,50000,10,20000,0,9999,0.100000,99,0,0.000401,15,0.000000,14.659108,0.102215,99,99,0,0,0,1,0
5,59999,43,50000,9,20000,41,9999,0.100000,99,0,0.000000,14,4.000000,22.978238,5.355383,99,99,0,0,0,0,0
5,59999,44,50000,59,30000,40,9999,0.100000,99,0,0.000000,14,0.000000,30.160484,2.325839,99,99,0,0,0,0,0
5,59999,45,50000,0,0,40,9999,0.100000,99,0,0.000000,14,3.000000,30.052905,14.793391,99,99,0,0,0,0,0
5,59999,46,50000,9,20000,40,9999,0.100000,99,0,0.000000,14,2.000000,21.668160,9.770136,99,99,0,0,0,0,0
5,59999,47,50000,9,20000,42,9999,0.100000,99,0,0.000000,15,5.000000,21.416614,23.528775,99,99,0,0,0,0,0
5,59999,48,50000,10,20000,41,9999,0.100000,99,0,0.000000,14,3.000000,20.782186,18.061532,99,99,0,0,0,0,0
5,59999,49,50000,59,30000,40,9999,0.100000,99,0,0.000000,15,0.000000,19.949806,1.365212,99,99,0,0,0,0,0
5,59999,50,50000,57,0,40,9999,0.100000,99,0,0.000000,14,0.000000,24.377912,1.024209,99,99,0,0,0,0,0
5,59999,51,50000,97,10000,45,9999,0.100000,99,0,0.000000,15,12.000000,22.445813,14.787401,99,99,0,0,0,0,0
5,59999,52,50000,73,20000,40,9999,0.100000,99,0,0.000000,14,1.000000,23.521229,5.543342,99,99,0,0,0,0,0
5,59999,53,50000,9,20000,0,9999,0.100000,99,0,0.002871,15,0.000000,19.958026,0.934044,99,99,0,1,0,0,0
5,59999,54,50000,73,20000,0,9999,0.100000,99,0,0.888678,15,0.000000,13.210122,0.309096,99,99,0,0,0,1,0
5,59999,55,50000,53,40000,40,9999,0.100000,99,0,0.000000,15,2.000000,26.905045,16.149047,99,99,0,0,0,0,0
5,59999,56,50000,57,0,40,9999,0.100000,99,0,0.000000,14,0.000000,26.893690,6.341447,99,99,0,0,0,0,0
5,59999,57,50000,89,30000,0,9999,0.100000,99,0,10.128884,14,2.000000,30.915318,9.692925,99,99,0,0,0,1,0
5,59999,58,50000,4,0,0,9999,0.100000,99,0,10.074153,15,2.000000,30.976445,11.649844,99,99,0,0,0,1,0
5,59999,59,50000,0,0,40,9999,0.100000,99,0,0.000000,14,1.000000,28.046180,4.194940,99,99,0,0,0,0,0
5,59999,60,50000,73,30000,40,9999,0.100000,99,0,0.000000,14,0.000000,31.751461,0.904696,99,99,0,0,0,0,0
5,59999,61,50000,57,0,40,9999,0.100000,99,0,0.000000,15,1.000000,22.249731,13.732535,99,99,0,0,0,0,0
5,59999,62,50000,73,30000,40,9999,0.100000,99,0,0.000000,14,0.000000,21.347936,0.895776,99,99,0,0,0,0,0
5,59999,63,50000,9,20000,40,9999,0.100000,99,0,0.000000,15,0.000000,28.004236,0.104326,99,99,0,0,0,0,0
5,59999,64,50000,5,0,40,9999,0.100000,99,0,0.000000,15,1.000000,23.354899,4.254473,99,99,0,0,0,0,0
5,59999,65,50000,89,30000,0,9999,0.100000,99,0,0.009635,14,0.000000,16.965745,0.155932,99,99,0,0,1,0,0
5,59999,66,50000,73,20000,42,9999,0.100000,99,0,0.000000,15,7.000000,28.326589,14.481516,99,99,0,0,0,0,0
5,59999,67,50000,73,20000,40,9999,0.100000,99,0,0.000000,15,2.000000,31.632975,18.762174,99,99,0,0,0,0,0
5,59999,68,50000,53,40000,0,9999,0.100000,99,0,0.506984,15,0.000000,22.867254,0.457761,99,99,0,0,1,0,0
5,59999,69,50000,57,0,40,9999,0.100000,99,0,0.000000,15,0.000000,30.391644,0.139036,99,99,0,0,0,0,0
5,59999,70,50000,40,20000,40,9999,0.100000,99,0,0.000000,14,1.000000,31.035893,10.585992,99,99,0,0,0,0,0
5,59999,71,50000,59,30000,40,9999,0.100000,99,0,0.000000,15,0.000000,27.439126,0.119206,99,99,0,0,0,0,0
5,59999,72,50000,73,30000,42,9999,0.100000,99,0,0.000000,14,5.000000,21.253542,19.401720,99,99,0,0,0,0,0
5,59999,73,50000,70,0,40,9999,0.100000,99,0,0.000000,15,2.000000,30.749514,7.466172,99,99,0,0,0,0,0
5,59999,74,50000,70,0,40,9999,0.100000,99,0,0.000000,14,1.000000,21.242722,6.880663,99,99,0,0,0,0,0
5,59999,75,50000,5,0,40,9999,0.100000,99,0,0.000000,14,2.000000,21.219916,15.746629,99,99,0,0,0,0,0
5,59999,76,50000,10,20000,40,9999,0.100000,99,0,0.000000,15,0.000000,26.522715,0.524697,99,99,0,0,0,0,0
5,59999,77,50000,5,0,40,9999,0.100000,99,0,0.000000,15,0.000000,11.162434,0.690637,99,99,0,0,0,0,0
5,59999,78,50000,57,0,42,9999,0.100000,99,0,0.000000,15,6.000000,22.404267,12.816316,99,99,0,0,0,0,0
5,59999,79,50000,97,10000,40,9999,0.100000,99,0,0.000000,14,1.000000,30.345243,11.746573,99,99,0,0,0,0,0
5,59999,80,50000,70,0,40,9999,0.100000,99,0,0.000000,14,2.000000,22.613199,3.139485,99,99,0,0,0,0,0
5,59999,81,50000,97,10000,40,9999,0.100000,99,0,0.000000,15,1.000000,22.562992,3.163271,99,99,0,0,0,0,0
5,59999,82,50000,70,0,40,9999,0.100000,99,0,0.000000,14,0.000000,28.563626,0.811409,99,99,0,0,0,0,0
5,59999,83,50000,12,0,42,9999,0.100000,99,0,0.000000,15,6.000000,28.072176,15.075277,99,99,0,0,0,0,0
5,59999,84,50000,53,40000,40,9999,0.100000,99,0,0.000000,15,0.000000,27.495591,3.079560,99,99,0,0,0,0,0
5,59999,85,50000,59,30000,43,9999,0.100000,99,0,0.000000,14,9.000000,23.552243,15.847122,99,99,0,0,0,0,0
5,59999,86,50000,53,40000,40,9999,0.100000,99,0,0.000000,15,1.000000,25.677322,4.476522,99,99,0,0,0,0,0
5,59999,87,50000,5,0,40,9999,0.100000,99,0,0.000000,15,0.000000,30.956951,9.204585,99,99,0,0,0,0,0
5,59999,88,50000,89,30000,40,9999,0.100000,99,0,0.000000,14,0.000000,26.450394,0.649600,99,99,0,0,0,0,0
5,59999,89,50000,4,0,0,9999,0.100000,99,0,10.610727,15,3.000000,29.827775,7.083049,99,99,0,0,0,1,0
5,59999,90,50000,40,20000,41,9999,0.100000,99,0,0.000000,15,4.000000,30.187621,15.513622,99,99,0,0,0,0,0
5,59999,91,50000,4,0,43,9999,0.100000,99,0,0.000000,14,13.000000,37.287784,26.402758,99,99,0,0,0,0,0
5,59999,92,50000,59,30000,41,9999,0.100000,99,0,0.000000,15,4.000000,26.675439,16.610183,99,99,0,0,0,0,0
5,59999,93,50000,70,0,40,9999,0.100000,99,0,0.000000,15,0.000000,13.218232,0.254919,99,99,0,0,0,0,0
5,59999,94,50000,5,0,40,9999,0.100000,99,0,0.000000,15,0.000000,17.039421,0.147801,99,99,0,0,0,0,0
5,59999,95,50000,97,10000,40,9999,0.100000,99,0,0.000000,15,0.000000,14.528423,0.112949,99,99,0,0,0,0,0
5,59999,96,50000,70,0,40,9999,0.100000,99,0,0.000000,15,0.000000,28.619616,0.629017,99,99,0,0,0,0,0
5,59999,97,50000,53,40000,42,9999,0.100000,99,0,0.000000,15,6.000000,22.669564,8.019846,99,99,0,0,0,0,0
5,59999,98,50000,73,20000,40,9999,0.100000,99,0,0.000000,15,2.000000,23.266577,2.700559,99,99,0,0,0,0,0
5,59999,99,50000,10,20000,40,9999,0.100000,99,0,0.000000,15,1.000000,24.729869,4.988360,99,99,0,0,0,0,0
6,69999,0,60000,89,30000,40,9999,0.100000,99,0,0.000000,15,0.000000,23.382265,0.994076,99,99,0,0,0,0,0
6,69999,1,60000,0,0,0,9999,0.100000,99,0,1.722958,15,1.000000,22.630042,1.268688,99,99,0,0,0,0,1
6,69999,2,60000,85,50000,40,9999,0.100000,99,0,0.000000,15,0.000000,21.987921,0.650690,99,99,0,0,0,0,0
6,69999,3,60000,73,30000,40,9999,0.100000,99,0,0.000000,15,0.000000,21.237240,0.925799,99,99,0,0,0,0,0
6,69999,4,60000,85,50000,40,9999,0.100000,99,0,0.000000,16,0.000000,13.494599,0.325404,99,99,0,0,0,0,0
6,69999,5,60000,57,50000,40,9999,0.100000,99,0,0.000000,15,2.000000,19.417220,8.772134,99,99,0,0,0,0,0
6,69999,6,60000,73,30000,40,9999,0.100000,99,0,0.000000,15,1.000000,28.587406,12.149847,99,99,0,0,0,0,0
6,69999,7,60000,97,10000,40,9999,0.100000,99,0,0.000000,15,0.000000,21.736240,0.315041,99,99,0,0,0,0,0
6,69999,8,60000,57,50000,0,9999,0.100000,99,0,0.000518,16,0.000000,14.401030,0.121484,99,99,0,0,0,1,0
6,69999,9,60000,40,20000,40,9999,0.100000,99,0,0.000000,16,2.000000,26.209392,7.570286,99,99,0,0,0,0,0
6,69999,10,60000,5,0,0,9999,0.100000,99,0,1.968407,15,0.000000,23.089695,0.688852,99,99,0,0,1,0,0
6,69999,11,60000,70,0,40,9999,0.100000,99,0,0.000000,15,2.000000,30.131490,6.332736,99,99,0,0,0,0,0
6,69999,12,60000,40,20000,40,9999,0.100000,99,0,0.000000,15,0.000000,36.140978,0.221483,99,99,0,0,0,0,0
6,69999,13,60000,40,20000,40,9999,0.100000,99,0,0.000000,15,0.000000,28.416777,1.473604,99,99,0,0,0,0,0
6,69999,14,60000,53,40000,40,9999,0.100000,99,0,0.000000,15,0.000000,26.784707,1.386044,99,99,0,0,0,0,0
6,69999,15,60000,4,0,40,9999,0.100000,99,0,0.000000,15,0.000000,28.260468,0.758101,99,99,0,0,0,0,0
6,69999,16,60000,53,40000,40,9999,0.100000,99,0,0.000000,15,0.000000,30.494305,7.216119,99,99,0,0,0,0,0
6,69999,17,60000,97,10000,40,9999,0.100000,99,0,0.000000,15,0.000000,28.288504,0.890060,99,99,0,0,0,0,0
6,69999,18,60000,10,20000,40,9999,0.100000,99,0,0.000000,15,0.000000,28.547836,0.971698,99,99,0,0,0,0,0
6,69999,19,60000,89,30000,41,9999,0.100000,99,0,0.000000,16,4.000000,30.134156,11.068680,99,99,0,0,0,0,0
6,69999,20,60000,73,30000,0,9999,0.100000,99,0,3.152319,16,0.000000,26.552897,1.225648,99,99,0,0,1,0,0
6,69999,21,60000,9,20000,40,9999,0.100000,99,0,0.000000,16,2.000000,30.579308,8.492964,99,99,0,0,0,0,0
6,69999,22,60000,5,0,40,9999,0.100000,99,0,0.000000,15,2.000000,25.516279,18.257097,99,99,0,0,0,0,0
6,69999,23,60000,73,30000,90,9999,0.100000,99,0,0.017227,16,0.000000,23.675149,0.467226,99,99,1,0,0,0,0
6,69999,24,60000,70,0,40,9999,0.100000,99,0,0.000000,15,0.000000,28.355301,1.652763,99,99,0,0,0,0,0
6,69999,25,60000,53,40000,40,9999,0.100000,99,0,0.000000,15,0.000000,15.212355,0.220005,99,99,0,0,0,0,0
6,69999,26,60000,73,30000,40,9999,0.100000,99,0,0.000000,15,1.000000,23.537032,1.915213,99,99,0,0,0,0,0
6,69999,27,60000,40,20000,40,9999,0.100000,99,0,0.000000,16,2.000000,26.181498,7.499058,99,99,0,0,0,0,0
6,69999,28,60000,57,0,0,9999,0.100000,99,0,0.046246,15,2.000000,32.377644,2.935072,99,99,0,1,0,0,0
6,69999,29,60000,12,0,40,9999,0.100000,99,0,0.000000,15,0.000000,31.083392,0.135245,99,99,0,0,0,0,0
6,69999,30,60000,59,30000,40,9999,0.100000,99,0,0.000000,15,0.000000,28.155367,0.215606,99,99,0,0,0,0,0
6,69999,31,60000,73,30000,90,9999,0.100000,99,0,0.192007,16,0.000000,23.993017,0.707536,99,99,1,0,0,0,0
6,69999,32,60000,70,0,0,9999,0.100000,99,0,6.300211,16,1.000000,23.814271,1.750400,99,99,0,0,0,1,0
6,69999,33,60000,57,50000,40,9999,0.100000,99,0,0.000000,15,0.000000,22.163126,0.499530,99,99,0,0,0,0,0
6,69999,34,60000,59,30000,0,9999,0.100000,99,0,0.495155,15,0.000000,22.187822,0.324081,99,99,0,0,0,0,1
6,69999,35,60000,89,30000,40,9999,0.100000,99,0,0.000000,16,0.000000,26.661005,1.259440,99,99,0,0,0,0,0
6,69999,36,60000,9,20000,40,9999,0.100000,99,0,0.000000,15,1.000000,31.785748,6.759799,99,99,0,0,0,0,0
6,69999,37,60000,10,20000,42,9999,0.100000,99,0,0.000000,15,5.000000,17.624356,14.871782,99,99,0,0,0,0,0
6,69999,38,60000,12,0,40,9999,0.100000,99,0,0.000000,15,1.000000,22.837942,1.336461,99,99,0,0,0,0,0
6,69999,39,60000,89,30000,40,9999,0.100000,99,0,0.000000,15,1.000000,24.328287,3.525865,99,99,0,0,0,0,0
6,69999,40,60000,97,10000,40,9999,0.100000,99,0,0.000000,16,3.000000,30.315717,10.235705,99,99,0,0,0,0,0
6,69999,41,60000,53,40000,40,9999,0.100000,99,0,0.000000,15,2.000000,20.169716,5.538255,99,99,0,0,0,0,0
6,69999,42,60000,9,20000,40,9999,0.100000,99,0,0.000000,16,0.000000,14.654201,0.101914,99,99,0,0,0,0,0
6,69999,43,60000,85,50000,41,9999,0.100000,99,0,0.000000,16,4.000000,24.744625,18.259256,99,99,0,0,0,0,0
6,69999,44,60000,57,0,41,9999,0.100000,99,0,0.000000,16,5.000000,30.023007,15.181233,99,99,0,0,0,0,0
6,69999,45,60000,57,0,41,9999,0.100000,99,0,0.000000,16,6.000000,32.404819,27.366337,99,99,0,0,0,0,0
6,69999,46,60000,40,20000,40,9999,0.100000,99,0,0.000000,16,1.000000,23.695520,1.930179,99,99,0,0,0,0,0
6,69999,47,60000,5,0,40,9999,0.100000,99,0,0.000000,15,1.000000,23.395040,4.831962,99,99,0,0,0,0,0
6,69999,48,60000,59,30000,41,9999,0.100000,99,0,0.000000,15,3.000000,23.947476,9.248653,99,99,0,0,0,0,0
6,69999,49,60000,9,20000,40,9999,0.100000,99,0,0.000000,16,0.000000,19.585497,1.736944,99,99,0,0,0,0,0
6,69999,50,60000,40,20000,40,9999,0.100000,99,0,0.000000,15,0.000000,23.594047,1.020485,99,99,0,0,0,0,0
6,69999,51,60000,89,30000,41,9999,0.100000,99,0,0.000000,16,3.000000,24.920645,8.841619,99,99,0,0,0,0,0
6,69999,52,60000,73,20000,42,9999,0.100000,99,0,0.000000,16,5.000000,23.396828,15.259151,99,99,0,0,0,0,0
6,69999,53,60000,70,0,0,9999,0.100000,99,0,0.020751,15,0.000000,19.480910,0.666197,99,99,0,1,0,0,0
6,69999,54,60000,73,30000,40,9999,0.100000,99,0,0.000000,16,0.000000,13.450117,0.305872,99,99,0,0,0,0,0
6,69999,55,60000,51,50000,40,9999,0.100000,99,0,0.000000,16,2.000000,24.409216,12.518332,99,99,0,0,0,0,0
6,69999,56,60000,89,30000,40,9999,0.100000,99,0,0.000000,16,0.000000,26.724884,14.049295,99,99,0,0,0,0,0
6,69999,57,60000,53,40000,40,9999,0.100000,99,0,0.000000,15,1.000000,31.036589,10.759479,99,99,0,0,0,0,0
6,69999,58,60000,9,20000,40,9999,0.100000,99,0,0.000000,16,2.000000,31.014211,8.621050,99,99,0,0,0,0,0
6,69999,59,60000,12,0,40,9999,0.100000,99,0,0.000000,16,0.000000,26.480568,0.959301,99,99,0,0,0,0,0
6,69999,60,60000,57,0,40,9999,0.100000,99,0,0.000000,15,0.000000,32.043135,0.929779,99,99,0,0,0,0,0
6,69999,61,60000,57,0,40,9999,0.100000,99,0,0.000000,16,1.000000,22.200440,4.942461,99,99,0,0,0,0,0
6,69999,62,60000,97,10000,40,9999,0.100000,99,0,0.000000,15,0.000000,20.675623,0.912514,99,99,0,0,0,0,0
6,69999,63,60000,70,0,0,9999,0.100000,99,0,0.026502,16,0.000000,27.980838,0.107066,99,99,0,0,0,0,1
6,69999,64,60000,53,40000,40,9999,0.100000,99,0,0.000000,15,2.000000,24.413271,10.528864,99,99,0,0,0,0,0
6,69999,65,60000,85,50000,0,9999,0.100000,99,0,0.005128,16,0.000000,16.954866,0.147863,99,99,0,0,1,0,0
6,69999,66,60000,12,0,0,9999,0.100000,99,0,1.460667,15,0.000000,28.162877,0.459318,99,99,0,0,0,1,0
6,69999,67,60000,9,20000,40,9999,0.100000,99,0,0.000000,16,1.000000,30.477708,8.915879,99,99,0,0,0,0,0
6,69999,68,60000,57,0,40,9999,0.100000,99,0,0.000000,16,0.000000,22.824445,0.713252,99,99,0,0,0,0,0
6,69999,69,60000,12,0,40,9999,0.100000,99,0,0.000000,16,0.000000,30.391432,0.139441,99,99,0,0,0,0,0
6,69999,70,60000,70,0,40,9999,0.100000,99,0,0.000000,16,2.000000,29.746287,8.984539,99,99,0,0,0,0,0
6,69999,71,60000,10,20000,40,9999,0.100000,99,0,0.000000,16,0.000000,27.417948,0.118113,99,99,0,0,0,0,0
6,69999,72,60000,57,50000,40,9999,0.100000,99,0,0.000000,15,1.000000,24.074441,15.395000,99,99,0,0,0,0,0
6,69999,73,60000,70,0,40,9999,0.100000,99,0,0.000000,16,1.000000,29.545457,5.587846,99,99,0,0,0,0,0
6,69999,74,60000,73,30000,40,9999,0.100000,99,0,0.000000,15,0.000000,20.636539,4.035855,99,99,0,0,0,0,0
6,69999,75,60000,4,0,40,9999,0.100000,99,0,0.000000,15,1.000000,22.139366,1.134416,99,99,0,0,0,0,0
6,69999,76,60000,4,0,40,9999,0.100000,99,0,0.000000,15,0.000000,26.846052,0.526851,99,99,0,0,0,0,0
6,69999,77,60000,59,30000,40,9999,0.100000,99,0,0.000000,16,0.000000,11.028243,0.701978,99,99,0,0,0,0,0
6,69999,78,60000,53,40000,40,9999,0.100000,99,0,0.000000,15,0.000000,22.345278,2.232006,99,99,0,0,0,0,0
6,69999,79,60000,57,50000,40,9999,0.100000,99,0,0.000000,15,0.000000,31.422811,10.346544,99,99,0,0,0,0,0
6,69999,80,60000,89,30000,40,9999,0.100000,99,0,0.000000,15,1.000000,22.448885,1.162757,99,99,0,0,0,0,0
6,69999,81,60000,57,0,41,9999,0.100000,99,0,0.000000,15,4.000000,22.413335,22.112937,99,99,0,0,0,0,0
6,69999,82,60000,59,30000,40,9999,0.100000,99,0,0.000000,15,0.000000,28.920407,0.843176,99,99,0,0,0,0,0
6,69999,83,60000,0,0,41,9999,0.100000,99,0,0.000000,15,3.000000,24.712274,12.536132,99,99,0,0,0,0,0
6,69999,84,60000,9,20000,40,9999,0.100000,99,0,0.000000,16,1.000000,27.120189,7.354422,99,99,0,0,0,0,0
6,69999,85,60000,97,10000,40,9999,0.100000,99,0,0.000000,15,1.000000,27.479836,4.892535,99,99,0,0,0,0,0
6,69999,86,60000,89,30000,41,9999,0.100000,99,0,0.000000,15,3.000000,25.081666,13.894429,99,99,0,0,0,0,0
6,69999,87,60000,51,50000,40,9999,0.100000,99,0,0.000000,16,2.000000,30.211833,7.035965,99,99,0,0,0,0,0
6,69999,88,60000,0,0,40,9999,0.100000,99,0,0.000000,15,0.000000,26.772785,0.644724,99,99,0,0,0,0,0
6,69999,89,60000,40,20000,41,9999,0.100000,99,0,0.000000,15,4.000000,32.596469,7.209121,99,99,0,0,0,0,0
6,69999,90,60000,89,30000,40,9999,0.100000,99,0,0.000000,15,1.000000,28.240312,14.133530,99,99,0,0,0,0,0
6,69999,91,60000,70,0,40,9999,0.100000,99,0,0.000000,15,0.000000,37.289368,0.100098,99,99,0,0,0,0,0
6,69999,92,60000,12,0,41,9999,0.100000,99,0,0.000000,16,3.000000,25.554420,9.599203,99,99,0,0,0,0,0
6,69999,93,60000,12,0,0,9999,0.100000,99,0,0.909915,15,0.000000,13.409278,0.266186,99,99,0,0,0,1,0
6,69999,94,60000,53,40000,40,9999,0.100000,99,0,0.000000,15,0.000000,17.028085,0.146842,99,99,0,0,0,0,0
6,69999,95,60000,10,20000,40,9999,0.100000,99,0,0.000000,16,0.000000,14.524236,0.110997,99,99,0,0,0,0,0
6,69999,96,60000,70,0,40,9999,0.100000,99,0,0.000000,15,0.000000,28.976267,0.658669,99,99,0,0,0,0,0
6,69999,97,60000,9,20000,40,9999,0.100000,99,0,0.000000,15,0.000000,22.409173,2.262421,99,99,0,0,0,0,0
6,69999,98,60000,51,50000,40,9999,0.100000,99,0,0.000000,16,1.000000,23.015819,1.346817,99,99,0,0,0,0,0
6,69999,99,60000,59,30000,41,9999,0.100000,99,0,0.000000,15,4.000000,24.946773,23.461518,99,99,0,0,0,0,0
7,79999,0,70000,70,0,40,9999,0.100000,99,0,0.000000,16,2.000000,22.617774,7.911998,99,99,0,0,0,0,0
7,79999,1,70000,10,20000,0,9999,0.100000,99,0,2.228945,16,0.000000,23.264336,0.853054,99,99,0,0,0,0,1
7,79999,2,70000,85,50000,40,9999,0.100000,99,0,0.000000,16,1.000000,22.160594,5.197889,99,99,0,0,0,0,0
7,79999,3,70000,53,40000,40,9999,0.100000,99,0,0.000000,16,0.000000,20.538498,0.940735,99,99,0,0,0,0,0
7,79999,4,70000,12,0,40,9999,0.100000,99,0,0.000000,16,0.000000,13.759626,0.371161,99,99,0,0,0,0,0
7,79999,5,70000,85,50000,43,9999,0.100000,99,0,0.000000,16,7.000000,17.350265,15.113168,99,99,0,0,0,0,0
7,79999,6,70000,12,0,40,9999,0.100000,99,0,0.000000,16,1.000000,29.160979,9.776570,99,99,0,0,0,0,0
7,79999,7,70000,10,20000,40,9999,0.100000,99,0,0.000000,16,0.000000,21.548571,0.613746,99,99,0,0,0,0,0
7,79999,8,70000,89,30000,0,9999,0.100000,99,0,0.001712,16,0.000000,14.397769,0.120009,99,99,0,0,0,1,0
7,79999,9,70000,73,20000,40,9999,0.100000,99,0,0.000000,16,0.000000,25.008276,12.073925,99,99,0,0,0,0,0
7,79999,10,70000,40,20000,40,9999,0.100000,99,0,0.000000,16,0.000000,23.185456,1.198835,99,99,0,0,0,0,0
7,79999,11,70000,53,40000,40,9999,0.100000,99,0,0.000000,16,1.000000,27.712845,5.449795,99,99,0,0,0,0,0
7,79999,12,70000,0,0,40,9999,0.100000,99,0,0.000000,16,0.000000,36.142570,0.211112,99,99,0,0,0,0,0
7,79999,13,70000,57,50000,40,9999,0.100000,99,0,0.000000,16,0.000000,27.966339,1.405592,99,99,0,0,0,0,0
7,79999,14,70000,10,20000,40,9999,0.100000,99,0,0.000000,16,2.000000,26.330205,4.429395,99,99,0,0,0,0,0
7,79999,15,70000,97,10000,40,9999,0.100000,99,0,0.000000,16,0.000000,28.236723,0.774950,99,99,0,0,0,0,0
7,79999,16,70000,10,20000,41,9999,0.100000,99,0,0.000000,16,4.000000,31.245135,9.576386,99,99,0,0,0,0,0
7,79999,17,70000,89,30000,0,9999,0.100000,99,0,0.230387,16,0.000000,27.800758,1.135930,99,99,0,0,0,1,0
7,79999,18,70000,89,30000,40,9999,0.100000,99,0,0.000000,16,0.000000,27.747815,0.879132,99,99,0,0,0,0,0
7,79999,19,70000,10,20000,41,9999,0.100000,99,0,0.000000,16,5.000000,34.504493,11.661518,99,99,0,0,0,0,0
7,79999,20,70000,89,30000,0,9999,0.100000,99,0,0.636746,16,2.000000,26.862465,6.434649,99,99,0,0,1,0,0
7,79999,21,70000,73,20000,41,9999,0.100000,99,0,0.000000,16,5.000000,29.943058,14.018076,99,99,0,0,0,0,0
7,79999,22,70000,89,30000,40,9999,0.100000,99,0,0.000000,16,1.000000,27.605325,5.381198,99,99,0,0,0,0,0
7,79999,23,70000,9,20000,90,9999,0.100000,99,0,0.221673,16,0.000000,23.722855,0.454208,99,99,1,0,0,0,0
7,79999,24,70000,89,30000,40,9999,0.100000,99,0,0.000000,16,0.000000,27.842978,1.776913,99,99,0,0,0,0,0
7,79999,25,70000,73,30000,40,9999,0.100000,99,0,0.000000,16,0.000000,15.211180,0.242703,99,99,0,0,0,0,0
7,79999,26,70000,73,20000,0,9999,0.100000,99,0,3.873123,16,1.000000,24.467258,1.327714,99,99,0,0,0,1,0
7,79999,27,70000,59,30000,41,9999,0.100000,99,0,0.000000,16,4.000000,25.869575,13.901978,99,99,0,0,0,0,0
7,79999,28,70000,59,30000,0,9999,0.100000,99,0,0.231913,16,0.000000,32.227695,0.161601,99,99,0,1,0,0,0
7,79999,29,70000,10,20000,40,9999,0.100000,99,0,0.000000,16,0.000000,31.083140,0.135734,99,99,0,0,0,0,0
7,79999,30,70000,59,30000,0,9999,0.100000,99,0,0.038411,16,0.000000,28.131593,0.212983,99,99,0,0,0,0,1
7,79999,31,70000,9,20000,90,9999,0.100000,99,0,0.195127,16,0.000000,24.077210,0.498964,99,99,1,0,0,0,0
7,79999,32,70000,70,0,40,9999,0.100000,99,0,0.000000,16,1.000000,24.831826,1.278453,99,99,0,0,0,0,0
7,79999,33,70000,51,50000,40,9999,0.100000,99,0,0.000000,16,0.000000,22.329172,3.412499,99,99,0,0,0,0,0
7,79999,34,70000,40,20000,0,9999,0.100000,99,0,2.123363,16,0.000000,21.991980,0.635217,99,99,0,0,0,0,1
7,79999,35,70000,97,10000,40,9999,0.100000,99,0,0.000000,16,1.000000,26.650583,2.694567,99,99,0,0,0,0,0
7,79999,36,70000,57,50000,40,9999,0.100000,99,0,0.000000,16,3.000000,30.411534,12.136217,99,99,0,0,0,0,0
7,79999,37,70000,40,20000,40,9999,0.100000,99,0,0.000000,16,0.000000,22.999668,4.699211,99,99,0,0,0,0,0
7,79999,38,70000,9,20000,40,9999,0.100000,99,0,0.000000,16,0.000000,23.457498,0.976534,99,99,0,0,0,0,0
7,79999,39,70000,89,30000,40,9999,0.100000,99,0,0.000000,16,0.000000,24.449509,2.657345,99,99,0,0,0,0,0
7,79999,40,70000,89,30000,40,9999,0.100000,99,0,0.000000,16,1.000000,27.438151,12.670070,99,99,0,0,0,0,0
7,79999,41,70000,89,30000,41,9999,0.100000,99,0,0.000000,16,3.000000,22.409439,11.468380,99,99,0,0,0,0,0
7,79999,42,70000,73,30000,40,9999,0.100000,99,0,0.000000,16,0.000000,14.649397,0.101887,99,99,0,0,0,0,0
7,79999,43,70000,53,40000,40,9999,0.100000,99,0,0.000000,16,0.000000,24.020618,3.038001,99,99,0,0,0,0,0
7,79999,44,70000,70,0,40,9999,0.100000,99,0,0.000000,16,0.000000,25.192271,2.834591,99,99,0,0,0,0,0
7,79999,45,70000,70,0,40,9999,0.100000,99,0,0.000000,16,2.000000,29.495643,6.008171,99,99,0,0,0,0,0
7,79999,46,70000,0,0,40,9999,0.100000,99,0,0.000000,16,1.000000,24.665823,1.407183,99,99,0,0,0,0,0
7,79999,47,70000,70,0,40,9999,0.100000,99,0,0.000000,16,1.000000,23.211530,2.515286,99,99,0,0,0,0,0
7,79999,48,70000,9,20000,40,9999,0.100000,99,0,0.000000,16,1.000000,24.995243,1.301168,99,99,0,0,0,0,0
7,79999,49,70000,0,0,40,9999,0.100000,99,0,0.000000,16,0.000000,19.225703,1.895325,99,99,0,0,0,0,0
7,79999,50,70000,89,30000,40,9999,0.100000,99,0,0.000000,16,0.000000,22.814783,3.926373,99,99,0,0,0,0,0
7,79999,51,70000,97,10000,40,9999,0.100000,99,0,0.000000,16,0.000000,22.671343,0.935234,99,99,0,0,0,0,0
7,79999,52,70000,97,10000,40,9999,0.100000,99,0,0.000000,16,0.000000,25.981403,5.453914,99,99,0,0,0,0,0
7,79999,53,70000,73,20000,0,9999,0.100000,99,0,0.035134,16,0.000000,19.116532,0.596471,99,99,0,1,0,0,0
7,79999,54,70000,10,20000,0,9999,0.100000,99,0,0.994076,16,0.000000,13.700287,0.339521,99,99,0,0,0,1,0
7,79999,55,70000,85,50000,45,9999,0.100000,99,0,0.000000,16,12.000000,22.666808,25.308409,99,99,0,0,0,0,0
7,79999,56,70000,51,50000,41,9999,0.100000,99,0,0.000000,16,4.000000,26.296251,17.928934,99,99,0,0,0,0,0
7,79999,57,70000,73,30000,41,9999,0.100000,99,0,0.000000,16,4.000000,30.820661,12.925839,99,99,0,0,0,0,0
7,79999,58,70000,57,0,40,9999,0.100000,99,0,0.000000,16,2.000000,28.278263,10.201386,99,99,0,0,0,0,0
7,79999,59,70000,10,20000,40,9999,0.100000,99,0,0.000000,16,0.000000,25.751415,0.997913,99,99,0,0,0,0,0
7,79999,60,70000,12,0,41,9999,0.100000,99,0,0.000000,16,5.000000,32.350599,10.161159,99,99,0,0,0,0,0
7,79999,61,70000,73,20000,40,9999,0.100000,99,0,0.000000,16,1.000000,22.140758,5.580153,99,99,0,0,0,0,0
7,79999,62,70000,59,30000,40,9999,0.100000,99,0,0.000000,16,2.000000,20.003730,11.322893,99,99,0,0,0,0,0
7,79999,63,70000,40,20000,40,9999,0.100000,99,0,0.000000,16,0.000000,27.957754,0.110520,99,99,0,0,0,0,0
7,79999,64,70000,85,50000,40,9999,0.100000,99,0,0.000000,16,2.000000,22.718193,6.670661,99,99,0,0,0,0,0
7,79999,65,70000,40,20000,0,9999,0.100000,99,0,0.005204,16,0.000000,16.947085,0.150167,99,99,0,0,1,0,0
7,79999,66,70000,40,20000,40,9999,0.100000,99,0,0.000000,16,1.000000,27.812737,5.021732,99,99,0,0,0,0,0
7,79999,67,70000,73,30000,41,9999,0.100000,99,0,0.000000,16,4.000000,30.316106,9.155528,99,99,0,0,0,0,0
7,79999,68,70000,0,0,0,9999,0.100000,99,0,2.521336,16,0.000000,22.919232,0.574415,99,99,0,0,1,0,0
7,79999,69,70000,73,20000,40,9999,0.100000,99,0,0.000000,16,0.000000,30.391257,0.135969,99,99,0,0,0,0,0
7,79999,70,70000,12,0,40,9999,0.100000,99,0,0.000000,16,2.000000,30.617898,9.835935,99,99,0,0,0,0,0
7,79999,71,70000,57,0,40,9999,0.100000,99,0,0.000000,16,0.000000,27.397120,0.121610,99,99,0,0,0,0,0
7,79999,72,70000,12,0,40,9999,0.100000,99,0,0.000000,16,1.000000,24.292371,13.850487,99,99,0,0,0,0,0
7,79999,73,70000,0,0,40,9999,0.100000,99,0,0.000000,16,1.000000,29.379397,13.521951,99,99,0,0,0,0,0
7,79999,74,70000,73,30000,40,9999,0.100000,99,0,0.000000,16,1.000000,21.357876,11.503441,99,99,0,0,0,0,0
7,79999,75,70000,97,10000,40,9999,0.100000,99,0,0.000000,16,0.000000,22.721967,0.849930,99,99,0,0,0,0,0
7,79999,76,70000,40,20000,40,9999,0.100000,99,0,0.000000,16,0.000000,27.178948,0.508555,99,99,0,0,0,0,0
7,79999,77,70000,10,20000,40,9999,0.100000,99,0,0.000000,16,0.000000,10.934702,1.169725,99,99,0,0,0,0,0
7,79999,78,70000,12,0,40,9999,0.100000,99,0,0.000000,16,0.000000,22.318690,2.100027,99,99,0,0,0,0,0
7,79999,79,70000,53,40000,40,9999,0.100000,99,0,0.000000,16,2.000000,31.640513,12.437724,99,99,0,0,0,0,0
7,79999,80,70000,89,30000,40,9999,0.100000,99,0,0.000000,16,0.000000,23.071872,0.823785,99,99,0,0,0,0,0
7,79999,81,70000,40,20000,40,9999,0.100000,99,0,0.000000,16,0.000000,17.705428,1.663887,99,99,0,0,0,0,0
7,79999,82,70000,89,30000,40,9999,0.100000,99,0,0.000000,16,0.000000,29.290204,0.871653,99,99,0,0,0,0,0
7,79999,83,70000,97,10000,43,9999,0.100000,99,0,0.000000,16,9.000000,21.474797,16.051245,99,99,0,0,0,0,0
7,79999,84,70000,59,30000,40,9999,0.100000,99,0,0.000000,16,2.000000,26.011080,12.497201,99,99,0,0,0,0,0
7,79999,85,70000,73,20000,40,9999,0.100000,99,0,0.000000,16,2.000000,28.697913,6.132865,99,99,0,0,0,0,0
7,79999,86,70000,51,50000,40,9999,0.100000,99,0,0.000000,16,0.000000,22.782797,3.592936,99,99,0,0,0,0,0
7,79999,87,70000,85,50000,41,9999,0.100000,99,0,0.000000,16,6.000000,29.119996,26.073607,99,99,0,0,0,0,0
7,79999,88,70000,59,30000,40,9999,0.100000,99,0,0.000000,16,0.000000,27.104528,0.623686,99,99,0,0,0,0,0
7,79999,89,70000,97,10000,40,9999,0.100000,99,0,0.000000,16,1.000000,28.473991,8.549413,99,99,0,0,0,0,0
7,79999,90,70000,85,50000,41,9999,0.100000,99,0,0.000000,16,4.000000,28.810453,20.808753,99,99,0,0,0,0,0
7,79999,91,70000,70,0,40,9999,0.100000,99,0,0.000000,16,0.000000,37.290977,0.102487,99,99,0,0,0,0,0
7,79999,92,70000,89,30000,40,9999,0.100000,99,0,0.000000,16,1.000000,27.469167,17.486146,99,99,0,0,0,0,0
7,79999,93,70000,51,50000,40,9999,0.100000,99,0,0.000000,16,0.000000,13.609902,0.290155,99,99,0,0,0,0,0
7,79999,94,70000,70,0,40,9999,0.100000,99,0,0.000000,16,0.000000,17.019951,0.145969,99,99,0,0,0,0,0
7,79999,95,70000,9,20000,40,9999,0.100000,99,0,0.000000,16,0.000000,14.520045,0.110019,99,99,0,0,0,0,0
7,79999,96,70000,57,50000,40,9999,0.100000,99,0,0.000000,16,0.000000,29.348268,0.670537,99,99,0,0,0,0,0
7,79999,97,70000,12,0,40,9999,0.100000,99,0,0.000000,16,0.000000,22.383797,2.121571,99,99,0,0,0,0,0
7,79999,98,70000,73,20000,40,9999,0.100000,99,0,0.000000,16,1.000000,23.644354,12.693170,99,99,0,0,0,0,0
7,79999,99,70000,12,0,40,9999,0.100000,99,0,0.000000,16,2.000000,26.064371,14.443310,99,99,0,0,0,0,0
8,89999,0,80000,59,30000,40,9999,0.100000,99,0,0.000000,16,0.000000,21.103143,0.914887,99,99,0,0,0,0,0
8,89999,1,80000,59,30000,0,9999,0.100000,99,0,0.867662,16,0.000000,23.391414,0.849892,99,99,0,0,0,0,1
8,89999,2,80000,0,0,40,9999,0.100000,99,0,0.000000,16,0.000000,22.974676,0.563862,99,99,0,0,0,0,0
8,89999,3,80000,73,30000,40,9999,0.100000,99,0,0.000000,16,2.000000,19.862503,9.218138,99,99,0,0,0,0,0
8,89999,4,80000,73,20000,40,9999,0.100000,99,0,0.000000,16,0.000000,14.074982,0.410244,99,99,0,0,0,0,0
8,89999,5,80000,97,10000,41,9999,0.100000,99,0,0.000000,16,3.000000,24.774159,9.856322,99,99,0,0,0,0,0
8,89999,6,80000,12,0,40,9999,0.100000,99,0,0.000000,16,1.000000,29.587644,10.102512,99,99,0,0,0,0,0
8,89999,7,80000,89,30000,40,9999,0.100000,99,0,0.000000,16,0.000000,21.298073,0.642507,99,99,0,0,0,0,0
8,89999,8,80000,57,0,0,9999,0.100000,99,0,0.001560,16,0.000000,14.394562,0.117150,99,99,0,0,0,1,0
8,89999,9,80000,59,30000,41,9999,0.100000,99,0,0.000000,16,3.000000,25.443022,12.919249,99,99,0,0,0,0,0
8,89999,10,80000,73,20000,44,9999,0.100000,99,0,0.000000,16,10.000000,23.239824,10.878893,99,99,0,0,0,0,0
8,89999,11,80000,73,30000,41,9999,0.100000,99,0,0.000000,16,3.000000,28.318222,8.716293,99,99,0,0,0,0,0
8,89999,12,80000,73,20000,40,9999,0.100000,99,0,0.000000,16,0.000000,36.143406,0.202264,99,99,0,0,0,0,0
8,89999,13,80000,53,40000,0,9999,0.100000,99,0,4.000449,16,1.000000,27.838310,4.005225,99,99,0,0,0,1,0
8,89999,14,80000,89,30000,40,9999,0.100000,99,0,0.000000,16,0.000000,26.534307,0.515648,99,99,0,0,0,0,0
8,89999,15,80000,73,30000,40,9999,0.100000,99,0,0.000000,16,0.000000,28.211982,0.719396,99,99,0,0,0,0,0
8,89999,16,80000,89,30000,40,9999,0.100000,99,0,0.000000,16,3.000000,31.034387,14.304708,99,99,0,0,0,0,0
8,89999,17,80000,9,20000,40,9999,0.100000,99,0,0.000000,16,0.000000,27.693582,5.946469,99,99,0,0,0,0,0
8,89999,18,80000,89,30000,42,9999,0.100000,99,0,0.000000,16,6.000000,27.273067,16.281546,99,99,0,0,0,0,0
8,89999,19,80000,40,20000,40,9999,0.100000,99,0,0.000000,16,1.000000,29.525598,8.093142,99,99,0,0,0,0,0
8,89999,20,80000,51,50000,0,9999,0.100000,99,0,0.025691,16,0.000000,26.584325,0.375782,99,99,0,0,1,0,0
8,89999,21,80000,9,20000,40,9999,0.100000,99,0,0.000000,16,1.000000,30.046055,6.343391,99,99,0,0,0,0,0
8,89999,22,80000,40,20000,40,9999,0.100000,99,0,0.000000,16,0.000000,28.048255,7.431450,99,99,0,0,0,0,0
8,89999,23,80000,57,0,90,9999,0.100000,99,0,0.247828,16,0.000000,23.755306,0.447879,99,99,1,0,0,0,0
8,89999,24,80000,57,50000,40,9999,0.100000,99,0,0.000000,16,0.000000,27.690822,5.962788,99,99,0,0,0,0,0
8,89999,25,80000,73,30000,40,9999,0.100000,99,0,0.000000,16,0.000000,15.209477,0.243328,99,99,0,0,0,0,0
8,89999,26,80000,10,20000,0,9999,0.100000,99,0,0.015909,16,0.000000,25.200696,0.407271,99,99,0,0,0,1,0
8,89999,27,80000,57,0,41,9999,0.100000,99,0,0.000000,16,4.000000,30.122764,13.513756,99,99,0,0,0,0,0
8,89999,28,80000,59,30000,0,9999,0.100000,99,0,0.188303,16,0.000000,32.202026,0.141423,99,99,0,1,0,0,0
8,89999,29,80000,10,20000,40,9999,0.100000,99,0,0.000000,16,0.000000,31.082697,0.135319,99,99,0,0,0,0,0
8,89999,30,80000,73,30000,40,9999,0.100000,99,0,0.000000,16,0.000000,28.105898,0.205545,99,99,0,0,0,0,0
8,89999,31,80000,73,20000,90,9999,0.100000,99,0,0.251810,16,0.000000,24.057532,0.508791,99,99,1,0,0,0,0
8,89999,32,80000,85,50000,40,9999,0.100000,99,0,0.000000,16,0.000000,25.540385,0.718957,99,99,0,0,0,0,0
8,89999,33,80000,53,40000,40,9999,0.100000,99,0,0.000000,16,0.000000,22.636644,0.697648,99,99,0,0,0,0,0
8,89999,34,80000,55,70000,0,9999,0.100000,99,0,2.530487,16,0.000000,21.664977,0.665218,99,99,0,0,0,0,1
8,89999,35,80000,59,30000,0,9999,0.100000,99,0,0.018237,16,0.000000,27.549305,0.089379,99,99,0,0,0,0,1
8,89999,36,80000,70,0,41,9999,0.100000,99,0,0.000000,16,4.000000,30.500544,7.398544,99,99,0,0,0,0,0
8,89999,37,80000,12,0,40,9999,0.100000,99,0,0.000000,16,0.000000,23.933767,1.986528,99,99,0,0,0,0,0
8,89999,38,80000,57,50000,40,9999,0.100000,99,0,0.000000,16,0.000000,23.592530,1.488583,99,99,0,0,0,0,0
8,89999,39,80000,97,10000,41,9999,0.100000,99,0,0.000000,16,3.000000,24.547679,8.937365,99,99,0,0,0,0,0
8,89999,40,80000,53,40000,40,9999,0.100000,99,0,0.000000,16,1.000000,26.193712,5.477578,99,99,0,0,0,0,0
8,89999,41,80000,0,0,40,9999,0.100000,99,0,0.000000,16,2.000000,19.623709,8.390906,99,99,0,0,0,0,0
8,89999,42,80000,9,20000,40,9999,0.100000,99,0,0.000000,16,0.000000,14.644599,0.097911,99,99,0,0,0,0,0
8,89999,43,80000,73,20000,40,9999,0.100000,99,0,0.000000,16,0.000000,23.628990,4.721418,99,99,0,0,0,0,0
8,89999,44,80000,12,0,40,9999,0.100000,99,0,0.000000,16,1.000000,25.662036,4.669988,99,99,0,0,0,0,0
8,89999,45,80000,10,20000,40,9999,0.100000,99,0,0.000000,16,1.000000,27.626185,6.733930,99,99,0,0,0,0,0
8,89999,46,80000,73,20000,40,9999,0.100000,99,0,0.000000,16,0.000000,25.391006,0.741395,99,99,0,0,0,0,0
8,89999,47,80000,73,30000,40,9999,0.100000,99,0,0.000000,16,1.000000,24.310983,3.746079,99,99,0,0,0,0,0
8,89999,48,80000,85,50000,40,9999,0.100000,99,0,0.000000,16,0.000000,25.688887,0.737758,99,99,0,0,0,0,0
8,89999,49,80000,57,50000,40,9999,0.100000,99,0,0.000000,16,0.000000,18.964917,2.100375,99,99,0,0,0,0,0
8,89999,50,80000,53,40000,40,9999,0.100000,99,0,0.000000,16,1.000000,23.191458,2.532194,99,99,0,0,0,0,0
8,89999,51,80000,0,0,40,9999,0.100000,99,0,0.000000,16,2.000000,22.432795,4.417215,99,99,0,0,0,0,0
8,89999,52,80000,0,0,40,9999,0.100000,99,0,0.000000,16,0.000000,26.365903,12.272337,99,99,0,0,0,0,0
8,89999,53,80000,85,50000,0,9999,0.100000,99,0,0.029319,16,0.000000,18.861070,0.627738,99,99,0,1,0,0,0
8,89999,54,80000,59,30000,0,9999,0.100000,99,0,0.735195,16,0.000000,13.995352,0.309893,99,99,0,0,0,1,0
8,89999,55,80000,53,40000,40,9999,0.100000,99,0,0.000000,16,0.000000,23.906946,3.502762,99,99,0,0,0,0,0
8,89999,56,80000,57,0,40,9999,0.100000,99,0,0.000000,16,1.000000,25.592421,10.140878,99,99,0,0,0,0,0
8,89999,57,80000,85,50000,41,9999,0.100000,99,0,0.000000,16,4.000000,28.557595,20.961228,99,99,0,0,0,0,0
8,89999,58,80000,73,20000,40,9999,0.100000,99,0,0.000000,16,1.000000,26.146102,6.276124,99,99,0,0,0,0,0
8,89999,59,80000,85,50000,40,9999,0.100000,99,0,0.000000,16,0.000000,25.008898,3.182457,99,99,0,0,0,0,0
8,89999,60,80000,70,0,40,9999,0.100000,99,0,0.000000,16,1.000000,28.208183,3.729954,99,99,0,0,0,0,0
8,89999,61,80000,9,20000,40,9999,0.100000,99,0,0.000000,16,0.000000,22.521211,8.761761,99,99,0,0,0,0,0
8,89999,62,80000,40,20000,40,9999,0.100000,99,0,0.000000,16,1.000000,19.427464,5.056036,99,99,0,0,0,0,0
8,89999,63,80000,70,0,40,9999,0.100000,99,0,0.000000,16,0.000000,27.932499,0.108895,99,99,0,0,0,0,0
8,89999,64,80000,57,0,40,9999,0.100000,99,0,0.000000,16,2.000000,24.704386,13.712500,99,99,0,0,0,0,0
8,89999,65,80000,97,10000,0,9999,0.100000,99,0,0.005358,16,0.000000,16.939773,0.151740,99,99,0,0,1,0,0
8,89999,66,80000,53,40000,40,9999,0.100000,99,0,0.000000,16,0.000000,27.870429,5.295153,99,99,0,0,0,0,0
8,89999,67,80000,73,30000,40,9999,0.100000,99,0,0.000000,16,0.000000,33.966668,0.231740,99,99,0,0,0,0,0
8,89999,68,80000,57,0,40,9999,0.100000,99,0,0.000000,16,1.000000,22.887389,11.828898,99,99,0,0,0,0,0
8,89999,69,80000,70,0,40,9999,0.100000,99,0,0.000000,16,0.000000,30.390999,0.141450,99,99,0,0,0,0,0
8,89999,70,80000,57,0,40,9999,0.100000,99,0,0.000000,16,2.000000,29.048684,8.737099,99,99,0,0,0,0,0
8,89999,71,80000,53,40000,40,9999,0.100000,99,0,0.000000,16,0.000000,27.373011,0.112662,99,99,0,0,0,0,0
8,89999,72,80000,9,20000,40,9999,0.100000,99,0,0.000000,16,0.000000,23.906949,0.843514,99,99,0,0,0,0,0
8,89999,73,80000,9,20000,40,9999,0.100000,99,0,0.000000,16,0.000000,29.395613,13.207504,99,99,0,0,0,0,0
8,89999,74,80000,0,0,41,9999,0.100000,99,0,0.000000,16,4.000000,22.009701,9.501176,99,99,0,0,0,0,0
8,89999,75,80000,40,20000,40,9999,0.100000,99,0,0.000000,16,0.000000,22.826955,8.048392,99,99,0,0,0,0,0
8,89999,76,80000,70,0,40,9999,0.100000,99,0,0.000000,16,0.000000,27.507307,0.511975,99,99,0,0,0,0,0
8,89999,77,80000,97,10000,40,9999,0.100000,99,0,0.000000,16,0.000000,10.860090,1.518974,99,99,0,0,0,0,0
8,89999,78,80000,10,20000,40,9999,0.100000,99,0,0.000000,16,0.000000,22.204682,2.211632,99,99,0,0,0,0,0
8,89999,79,80000,9,20000,40,9999,0.100000,99,0,0.000000,16,2.000000,33.834289,4.153038,99,99,0,0,0,0,0
8,89999,80,80000,59,30000,40,9999,0.100000,99,0,0.000000,16,0.000000,23.195864,0.796696,99,99,0,0,0,0,0
8,89999,81,80000,0,0,42,9999,0.100000,99,0,0.000000,16,4.000000,18.501122,6.388087,99,99,0,0,0,0,0
8,89999,82,80000,53,40000,40,9999,0.100000,99,0,0.000000,16,0.000000,29.669171,1.051561,99,99,0,0,0,0,0
8,89999,83,80000,89,30000,40,9999,0.100000,99,0,0.000000,16,2.000000,23.916726,14.670596,99,99,0,0,0,0,0
8,89999,84,80000,57,50000,40,9999,0.100000,99,0,0.000000,16,0.000000,23.962663,3.629383,99,99,0,0,0,0,0
8,89999,85,80000,85,50000,41,9999,0.100000,99,0,0.000000,16,4.000000,27.308733,8.482579,99,99,0,0,0,0,0
8,89999,86,80000,9,20000,40,9999,0.100000,99,0,0.000000,16,1.000000,22.714698,5.005868,99,99,0,0,0,0,0
8,89999,87,80000,12,0,41,9999,0.100000,99,0,0.000000,16,4.000000,32.281631,13.775677,99,99,0,0,0,0,0
8,89999,88,80000,53,40000,40,9999,0.100000,99,0,0.000000,16,0.000000,27.432216,0.631956,99,99,0,0,0,0,0
8,89999,89,80000,89,30000,41,9999,0.100000,99,0,0.000000,16,3.000000,28.135733,16.161802,99,99,0,0,0,0,0
8,89999,90,80000,10,20000,41,9999,0.100000,99,0,0.000000,16,6.000000,33.395586,20.973602,99,99,0,0,0,0,0
8,89999,91,80000,10,20000,40,9999,0.100000,99,0,0.000000,16,0.000000,37.292990,0.107525,99,99,0,0,0,0,0
8,89999,92,80000,9,20000,40,9999,0.100000,99,0,0.000000,16,1.000000,28.015986,9.564587,99,99,0,0,0,0,0
8,89999,93,80000,55,70000,40,9999,0.100000,99,0,0.000000,16,0.000000,13.843201,0.251010,99,99,0,0,0,0,0
8,89999,94,80000,57,50000,40,9999,0.100000,99,0,0.000000,16,0.000000,17.012311,0.147491,99,99,0,0,0,0,0
8,89999,95,80000,57,0,40,9999,0.100000,99,0,0.000000,16,0.000000,14.515932,0.107759,99,99,0,0,0,0,0
8,89999,96,80000,70,0,40,9999,0.100000,99,0,0.000000,16,0.000000,29.727984,0.841708,99,99,0,0,0,0,0
8,89999,97,80000,57,50000,40,9999,0.100000,99,0,0.000000,16,0.000000,22.273609,2.200994,99,99,0,0,0,0,0
8,89999,98,80000,97,10000,40,9999,0.100000,99,0,0.000000,16,1.000000,22.794725,18.777491,99,99,0,0,0,0,0
8,89999,99,80000,73,30000,40,9999,0.100000,99,0,0.000000,16,0.000000,25.875264,8.323549,99,99,0,0,0,0,0
9,99999,0,90000,85,50000,40,9999,0.100000,99,0,0.000000,16,0.000000,20.424195,0.905631,99,99,0,0,0,0,0
9,99999,1,90000,12,0,0,9999,0.100000,99,0,2.583944,16,1.000000,23.546126,1.174241,99,99,0,0,0,0,1
9,99999,2,90000,0,0,40,9999,0.100000,99,0,0.000000,16,0.000000,23.072376,0.524253,99,99,0,0,0,0,0
9,99999,3,90000,10,20000,40,9999,0.100000,99,0,0.000000,16,0.000000,22.016680,0.954743,99,99,0,0,0,0,0
9,99999,4,90000,59,30000,0,9999,0.100000,99,0,0.065923,16,0.000000,14.377258,0.370546,99,99,0,0,0,1,0
9,99999,5,90000,10,20000,40,9999,0.100000,99,0,0.000000,16,2.000000,26.944017,4.304540,99,99,0,0,0,0,0
9,99999,6,90000,10,20000,41,9999,0.100000,99,0,0.000000,16,6.000000,29.745589,15.007355,99,99,0,0,0,0,0
9,99999,7,90000,59,30000,40,9999,0.100000,99,0,0.000000,16,0.000000,21.029194,0.398122,99,99,0,0,0,0,0
9,99999,8,90000,12,0,0,9999,0.100000,99,0,0.001834,16,0.000000,14.391344,0.118483,99,99,0,0,0,1,0
9,99999,9,90000,53,40000,41,9999,0.100000,99,0,0.000000,16,4.000000,29.081974,16.435770,99,99,0,0,0,0,0
9,99999,10,90000,97,10000,40,9999,0.100000,99,0,0.000000,16,0.000000,32.946190,0.241774,99,99,0,0,0,0,0
9,99999,11,90000,97,10000,40,9999,0.100000,99,0,0.000000,16,1.000000,25.428901,6.738611,99,99,0,0,0,0,0
9,99999,12,90000,9,20000,40,9999,0.100000,99,0,0.000000,16,0.000000,36.143880,0.220422,99,99,0,0,0,0,0
9,99999,13,90000,73,30000,0,9999,0.100000,99,0,1.274664,16,0.000000,27.940486,1.191704,99,99,0,0,0,1,0
9,99999,14,90000,89,30000,40,9999,0.100000,99,0,0.000000,16,2.000000,26.402386,5.635578,99,99,0,0,0,0,0
9,99999,15,90000,89,30000,40,9999,0.100000,99,0,0.000000,16,0.000000,28.190040,0.711445,99,99,0,0,0,0,0
9,99999,16,90000,10,20000,40,9999,0.100000,99,0,0.000000,16,3.000000,32.334424,10.021290,99,99,0,0,0,0,0
9,99999,17,90000,73,30000,40,9999,0.100000,99,0,0.000000,16,0.000000,27.740273,2.948818,99,99,0,0,0,0,0
9,99999,18,90000,57,0,40,9999,0.100000,99,0,0.000000,16,3.000000,29.023148,16.213498,99,99,0,0,0,0,0
9,99999,19,90000,12,0,40,9999,0.100000,99,0,0.000000,16,0.000000,29.735483,6.864715,99,99,0,0,0,0,0
9,99999,20,90000,55,70000,0,9999,0.100000,99,0,0.031266,16,0.000000,26.459612,0.372726,99,99,0,0,1,0,0
9,99999,21,90000,57,50000,40,9999,0.100000,99,0,0.000000,16,3.000000,30.622481,12.136682,99,99,0,0,0,0,0
9,99999,22,90000,10,20000,40,9999,0.100000,99,0,0.000000,16,0.000000,27.719274,6.123225,99,99,0,0,0,0,0
9,99999,23,90000,97,10000,90,9999,0.100000,99,0,0.210505,16,0.000000,23.786734,0.455964,99,99,1,0,0,0,0
9,99999,24,90000,73,30000,40,9999,0.100000,99,0,0.000000,16,0.000000,27.477803,6.388925,99,99,0,0,0,0,0
9,99999,25,90000,12,0,40,9999,0.100000,99,0,0.000000,16,0.000000,15.208742,0.227543,99,99,0,0,0,0,0
9,99999,26,90000,57,0,40,9999,0.100000,99,0,0.000000,16,0.000000,25.005680,0.602396,99,99,0,0,0,0,0
9,99999,27,90000,55,70000,41,9999,0.100000,99,0,0.000000,16,3.000000,26.218082,11.041469,99,99,0,0,0,0,0
9,99999,28,90000,57,0,0,9999,0.100000,99,0,0.171818,16,0.000000,32.178597,0.137199,99,99,0,1,0,0,0
9,99999,29,90000,0,0,40,9999,0.100000,99,0,0.000000,16,0.000000,31.082152,0.144035,99,99,0,0,0,0,0
9,99999,30,90000,97,10000,0,9999,0.100000,99,0,0.016895,16,0.000000,28.084010,0.207835,99,99,0,0,0,0,1
9,99999,31,90000,73,20000,90,9999,0.100000,99,0,0.673365,16,0.000000,24.035799,0.712083,99,99,1,0,0,0,0
9,99999,32,90000,12,0,0,9999,0.100000,99,0,0.261605,16,0.000000,25.441670,0.718053,99,99,0,0,0,1,0
9,99999,33,90000,9,20000,40,9999,0.100000,99,0,0.000000,16,0.000000,22.902834,0.666520,99,99,0,0,0,0,0
9,99999,34,90000,57,50000,0,9999,0.100000,99,0,0.830685,16,0.000000,21.471178,0.274097,99,99,0,0,0,0,1
9,99999,35,90000,97,10000,40,9999,0.100000,99,0,0.000000,16,0.000000,27.529420,0.088042,99,99,0,0,0,0,0
9,99999,36,90000,57,0,41,9999,0.100000,99,0,0.000000,16,3.000000,27.530941,10.211008,99,99,0,0,0,0,0
9,99999,37,90000,89,30000,40,9999,0.100000,99,0,0.000000,16,1.000000,24.533213,5.048067,99,99,0,0,0,0,0
9,99999,38,90000,59,30000,40,9999,0.100000,99,0,0.000000,16,0.000000,23.743312,2.731267,99,99,0,0,0,0,0
9,99999,39,90000,73,30000,40,9999,0.100000,99,0,0.000000,16,2.000000,22.200537,9.751027,99,99,0,0,0,0,0
9,99999,40,90000,53,40000,41,9999,0.100000,99,0,0.000000,16,3.000000,27.574140,8.163284,99,99,0,0,0,0,0
9,99999,41,90000,73,30000,40,9999,0.100000,99,0,0.000000,16,1.000000,18.369171,7.996241,99,99,0,0,0,0,0
9,99999,42,90000,85,50000,40,9999,0.100000,99,0,0.000000,16,0.000000,14.640094,0.110243,99,99,0,0,0,0,0
9,99999,43,90000,0,0,43,9999,0.100000,99,0,0.000000,16,9.000000,22.982216,19.380641,99,99,0,0,0,0,0
9,99999,44,90000,9,20000,40,9999,0.100000,99,0,0.000000,16,1.000000,25.241955,7.416952,99,99,0,0,0,0,0
9,99999,45,90000,12,0,40,9999,0.100000,99,0,0.000000,16,1.000000,26.740969,5.578724,99,99,0,0,0,0,0
9,99999,46,90000,53,40000,40,9999,0.100000,99,0,0.000000,16,0.000000,25.250987,0.552416,99,99,0,0,0,0,0
9,99999,47,90000,9,20000,41,9999,0.100000,99,0,0.000000,16,4.000000,25.278311,7.603494,99,99,0,0,0,0,0
9,99999,48,90000,9,20000,40,9999,0.100000,99,0,0.000000,16,0.000000,25.634253,1.001918,99,99,0,0,0,0,0
9,99999,49,90000,97,10000,40,9999,0.100000,99,0,0.000000,16,0.000000,18.732831,2.066070,99,99,0,0,0,0,0
9,99999,50,90000,70,0,40,9999,0.100000,99,0,0.000000,16,2.000000,24.332878,5.278682,99,99,0,0,0,0,0
9,99999,51,90000,70,0,44,9999,0.100000,99,0,0.000000,16,11.000000,21.188045,11.359257,99,99,0,0,0,0,0
9,99999,52,90000,89,30000,40,9999,0.100000,99,0,0.000000,16,2.000000,25.958370,12.963413,99,99,0,0,0,0,0
9,99999,53,90000,12,0,0,9999,0.100000,99,0,0.001296,16,0.000000,18.626840,0.667512,99,99,0,1,0,0,0
9,99999,54,90000,57,50000,40,9999,0.135000,99,0,0.000000,16,0.000000,14.258727,0.254376,99,99,0,0,0,0,0
9,99999,55,90000,9,20000,40,9999,0.100000,99,0,0.000000,16,1.000000,23.436683,7.134362,99,99,0,0,0,0,0
9,99999,56,90000,9,20000,41,9999,0.100000,99,0,0.000000,16,3.000000,24.585067,18.589199,99,99,0,0,0,0,0
9,99999,57,90000,53,40000,40,9999,0.100000,99,0,0.000000,16,1.000000,31.608609,9.618586,99,99,0,0,0,0,0
9,99999,58,90000,9,20000,40,9999,0.100000,99,0,0.000000,16,2.000000,25.634627,11.264615,99,99,0,0,0,0,0
9,99999,59,90000,85,50000,40,9999,0.100000,99,0,0.000000,16,0.000000,25.379483,5.387651,99,99,0,0,0,0,0
9,99999,60,90000,57,0,40,9999,0.100000,99,0,0.000000,16,3.000000,28.905384,9.501375,99,99,0,0,0,0,0
9,99999,61,90000,12,0,44,9999,0.100000,99,0,0.000000,16,11.000000,22.149434,20.952284,99,99,0,0,0,0,0
9,99999,62,90000,9,20000,40,9999,0.100000,99,0,0.000000,16,0.000000,18.226111,0.240443,99,99,0,0,0,0,0
9,99999,63,90000,59,30000,40,9999,0.100000,99,0,0.000000,16,0.000000,27.911273,0.110097,99,99,0,0,0,0,0
9,99999,64,90000,57,0,42,9999,0.100000,99,0,0.000000,16,6.000000,23.504835,19.373287,99,99,0,0,0,0,0
9,99999,65,90000,10,20000,0,9999,0.100000,99,0,0.004189,16,0.000000,16.931943,0.155926,99,99,0,0,1,0,0
9,99999,66,90000,57,0,40,9999,0.100000,99,0,0.000000,16,2.000000,27.618541,7.727501,99,99,0,0,0,0,0
9,99999,67,90000,57,0,40,9999,0.100000,99,0,0.000000,16,0.000000,33.967038,0.235426,99,99,0,0,0,0,0
9,99999,68,90000,70,0,40,9999,0.100000,99,0,0.000000,16,2.000000,22.001140,3.748893,99,99,0,0,0,0,0
9,99999,69,90000,9,20000,40,9999,0.100000,99,0,0.000000,16,0.000000,30.390692,0.142955,99,99,0,0,0,0,0
9,99999,70,90000,73,30000,40,9999,0.100000,99,0,0.000000,16,1.000000,26.901442,3.949497,99,99,0,0,0,0,0
9,99999,71,90000,0,0,40,9999,0.100000,99,0,0.000000,16,0.000000,27.353789,0.109845,99,99,0,0,0,0,0
9,99999,72,90000,59,30000,40,9999,0.100000,99,0,0.000000,16,1.000000,24.019918,1.202677,99,99,0,0,0,0,0
9,99999,73,90000,59,30000,40,9999,0.100000,99,0,0.000000,16,3.000000,29.580432,22.442153,99,99,0,0,0,0,0
9,99999,74,90000,73,20000,40,9999,0.100000,99,0,0.000000,16,1.000000,17.679685,8.221139,99,99,0,0,0,0,0
9,99999,75,90000,9,20000,40,9999,0.100000,99,0,0.000000,16,1.000000,23.094766,1.182600,99,99,0,0,0,0,0
9,99999,76,90000,89,30000,40,9999,0.100000,99,0,0.000000,16,0.000000,27.839322,0.518674,99,99,0,0,0,0,0
9,99999,77,90000,40,20000,40,9999,0.100000,99,0,0.000000,16,0.000000,10.859868,1.504934,99,99,0,0,0,0,0
9,99999,78,90000,10,20000,40,9999,0.100000,99,0,0.000000,16,0.000000,22.131733,2.129798,99,99,0,0,0,0,0
9,99999,79,90000,70,0,40,9999,0.100000,99,0,0.000000,16,2.000000,32.559105,10.579458,99,99,0,0,0,0,0
9,99999,80,90000,73,30000,40,9999,0.100000,99,0,0.000000,16,1.000000,23.362132,1.139407,99,99,0,0,0,0,0
9,99999,81,90000,85,50000,40,9999,0.100000,99,0,0.000000,16,0.000000,15.263416,0.572629,99,99,0,0,0,0,0
9,99999,82,90000,12,0,40,9999,0.100000,99,0,0.000000,16,0.000000,30.101662,1.237029,99,99,0,0,0,0,0
9,99999,83,90000,12,0,43,9999,0.100000,99,0,0.000000,16,9.000000,22.537791,14.711634,99,99,0,0,0,0,0
9,99999,84,90000,53,40000,40,9999,0.100000,99,0,0.000000,16,1.000000,23.760904,1.415612,99,99,0,0,0,0,0
9,99999,85,90000,89,30000,40,9999,0.100000,99,0,0.000000,16,0.000000,30.137102,1.377709,99,99,0,0,0,0,0
9,99999,86,90000,97,10000,40,9999,0.100000,99,0,0.000000,16,1.000000,22.649459,6.962880,99,99,0,0,0,0,0
9,99999,87,90000,53,40000,40,9999,0.100000,99,0,0.000000,16,3.000000,28.941682,16.203662,99,99,0,0,0,0,0
9,99999,88,90000,85,50000,40,9999,0.100000,99,0,0.000000,16,0.000000,27.763996,0.630402,99,99,0,0,0,0,0
9,99999,89,90000,12,0,40,9999,0.100000,99,0,0.000000,16,1.000000,25.882189,5.219381,99,99,0,0,0,0,0
9,99999,90,90000,73,30000,40,9999,0.100000,99,0,0.000000,16,2.000000,29.548827,7.115860,99,99,0,0,0,0,0
9,99999,91,90000,0,0,40,9999,0.100000,99,0,0.000000,16,0.000000,37.294964,0.105696,99,99,0,0,0,0,0
9,99999,92,90000,70,0,41,9999,0.100000,99,0,0.000000,16,5.000000,27.773160,20.316474,99,99,0,0,0,0,0
9,99999,93,90000,9,20000,40,9999,0.100000,99,0,0.000000,16,0.000000,14.025231,0.181684,99,99,0,0,0,0,0
9,99999,94,90000,73,30000,40,9999,0.100000,99,0,0.000000,16,0.000000,17.004257,0.144897,99,99,0,0,0,0,0
9,99999,95,90000,53,40000,40,9999,0.100000,99,0,0.000000,16,0.000000,14.511968,0.110527,99,99,0,0,0,0,0
9,99999,96,90000,85,50000,40,9999,0.100000,99,0,0.000000,16,0.000000,30.161563,0.943975,99,99,0,0,0,0,0
9,99999,97,90000,73,20000,40,9999,0.100000,99,0,0.000000,16,0.000000,22.205817,2.131795,99,99,0,0,0,0,0
9,99999,98,90000,89,30000,40,9999,0.100000,99,0,0.000000,16,1.000000,23.059002,24.598521,99,99,0,0,0,0,0
9,99999,99,90000,89,30000,41,9999,0.100000,99,0,0.000000,16,3.000000,25.664621,12.778877,99,99,0,0,0,0,0
10,109999,0,100000,12,0,42,9999,0.100000,99,0,0.000000,16,5.000000,19.759247,9.305169,99,99,0,0,0,0,0
10,109999,1,100000,89,30000,0,9999,0.100000,99,0,2.854883,16,1.000000,23.878888,1.099742,99,99,0,0,0,0,1
10,109999,2,100000,89,30000,40,9999,0.100000,99,0,0.000000,16,0.000000,23.286254,0.518513,99,99,0,0,0,0,0
10,109999,3,100000,10,20000,40,9999,0.100000,99,0,0.000000,17,0.000000,21.296317,0.944483,99,99,0,0,0,0,0
10,109999,4,100000,85,50000,0,9999,0.100000,99,0,0.089592,16,0.000000,14.523562,0.219441,99,99,0,0,0,1,0
10,109999,5,100000,40,20000,40,9999,0.100000,99,0,0.000000,16,0.000000,29.835995,0.281229,99,99,0,0,0,0,0
10,109999,6,100000,73,20000,40,9999,0.100000,99,0,0.000000,16,2.000000,29.337097,24.619927,99,99,0,0,0,0,0
10,109999,7,100000,10,20000,40,9999,0.100000,99,0,0.000000,17,0.000000,21.013590,0.246759,99,99,0,0,0,0,0
10,109999,8,100000,12,0,0,9999,0.100000,99,0,0.004695,16,0.000000,14.387272,0.116745,99,99,0,0,0,1,0
10,109999,9,100000,0,0,40,9999,0.100000,99,0,0.000000,16,2.000000,27.403799,7.353361,99,99,0,0,0,0,0
10,109999,10,100000,0,0,40,9999,0.100000,99,0,0.000000,16,0.000000,32.946974,0.233960,99,99,0,0,0,0,0
10,109999,11,100000,9,20000,40,9999,0.100000,99,0,0.000000,16,0.000000,24.445127,7.506309,99,99,0,0,0,0,0
10,109999,12,100000,12,0,40,9999,0.100000,99,0,0.000000,17,0.000000,36.143497,0.219662,99,99,0,0,0,0,0
10,109999,13,100000,0,0,40,9999,0.100000,99,0,0.000000,17,0.000000,28.199857,1.156202,99,99,0,0,0,0,0
10,109999,14,100000,9,20000,0,9999,0.100000,99,0,0.020321,17,0.000000,26.717062,1.359381,99,99,0,0,1,0,0
10,109999,15,100000,9,20000,40,9999,0.100000,99,0,0.000000,16,0.000000,28.168158,0.691278,99,99,0,0,0,0,0
10,109999,16,100000,85,50000,1,9999,0.100000,99,0,31.450328,16,4.000000,31.372304,23.646892,99,99,0,1,0,0,0
10,109999,17,100000,9,20000,40,9999,0.100000,99,0,0.000000,17,0.000000,27.890160,0.903372,99,99,0,0,0,0,0
10,109999,18,100000,0,0,41,9999,0.100000,99,0,0.000000,17,3.000000,27.094706,17.328630,99,99,0,0,0,0,0
10,109999,19,100000,10,20000,40,9999,0.100000,99,0,0.000000,16,0.000000,29.347253,5.801309,99,99,0,0,0,0,0
10,109999,20,100000,59,30000,40,9999,0.100000,99,0,0.000000,16,0.000000,26.472021,0.166602,99,99,0,0,0,0,0
10,109999,21,100000,89,30000,41,9999,0.100000,99,0,0.000000,16,4.000000,30.755993,12.971175,99,99,0,0,0,0,0
10,109999,22,100000,10,20000,0,9999,0.100000,99,0,0.651087,17,0.000000,28.029017,0.917133,99,99,0,0,0,1,0
10,109999,23,100000,57,0,90,9999,0.100000,99,0,0.314532,17,0.000000,23.823726,0.451566,99,99,1,0,0,0,0
10,109999,24,100000,12,0,40,9999,0.100000,99,0,0.000000,17,0.000000,27.723679,0.747979,99,99,0,0,0,0,0
10,109999,25,100000,0,0,40,9999,0.100000,99,0,0.000000,16,0.000000,15.206841,0.234097,99,99,0,0,0,0,0
10,109999,26,100000,73,30000,40,9999,0.100000,99,0,0.000000,17,0.000000,24.913260,3.901380,99,99,0,0,0,0,0
10,109999,27,100000,89,30000,41,9999,0.100000,99,0,0.000000,16,5.000000,29.537098,13.332701,99,99,0,0,0,0,0
10,109999,28,100000,9,20000,1,9999,0.100000,99,0,31.407009,17,6.000000,32.157231,8.580793,99,99,0,1,0,0,0
10,109999,29,100000,53,40000,40,9999,0.100000,99,0,0.000000,16,0.000000,31.082050,0.147038,99,99,0,0,0,0,0
10,109999,30,100000,57,0,41,9999,0.100000,99,0,0.000000,17,4.000000,28.062112,9.720118,99,99,0,0,0,0,0
10,109999,31,100000,40,20000,90,9999,0.100000,99,0,0.247312,17,0.000000,23.952176,0.540230,99,99,1,0,0,0,0
10,109999,32,100000,89,30000,0,9999,0.100000,99,0,0.106970,16,0.000000,25.396595,0.226444,99,99,0,0,0,1,0
10,109999,33,100000,89,30000,40,9999,0.100000,99,0,0.000000,17,0.000000,23.117048,0.657787,99,99,0,0,0,0,0
10,109999,34,100000,73,20000,0,9999,0.100000,99,0,0.303804,16,0.000000,21.406276,0.184980,99,99,0,0,0,0,1
10,109999,35,100000,51,90000,0,9999,0.100000,99,0,0.016151,17,0.000000,27.509006,0.086294,99,99,0,0,0,0,1
10,109999,36,100000,55,70000,40,9999,0.100000,99,0,0.000000,16,1.000000,28.330160,2.576388,99,99,0,0,0,0,0
10,109999,37,100000,73,20000,45,9999,0.100000,99,0,0.000000,16,15.000000,24.458109,19.762200,99,99,0,0,0,0,0
10,109999,38,100000,51,90000,40,9999,0.100000,99,0,0.000000,17,1.000000,24.142790,2.374048,99,99,0,0,0,0,0
10,109999,39,100000,9,20000,40,9999,0.100000,99,0,0.000000,16,0.000000,23.684104,9.664299,99,99,0,0,0,0,0
10,109999,40,100000,73,20000,40,9999,0.100000,99,0,0.000000,16,2.000000,29.686524,9.555725,99,99,0,0,0,0,0
10,109999,41,100000,57,50000,41,9999,0.100000,99,0,0.000000,16,2.000000,18.617045,12.162020,99,99,0,0,0,0,0
10,109999,42,100000,57,50000,40,9999,0.100000,99,0,0.000000,17,0.000000,14.634665,0.138895,99,99,0,0,0,0,0
10,109999,43,100000,53,40000,40,9999,0.100000,99,0,0.000000,17,0.000000,28.435748,3.165988,99,99,0,0,0,0,0
10,109999,44,100000,12,0,40,9999,0.100000,99,0,0.000000,17,0.000000,24.372409,4.538132,99,99,0,0,0,0,0
10,109999,45,100000,55,70000,41,9999,0.100000,99,0,0.000000,17,5.000000,26.051765,26.719106,99,99,0,0,0,0,0
10,109999,46,100000,10,20000,40,9999,0.100000,99,0,0.000000,17,0.000000,25.183141,0.294616,99,99,0,0,0,0,0
10,109999,47,100000,70,0,40,9999,0.100000,99,0,0.000000,17,0.000000,29.658374,1.077523,99,99,0,0,0,0,0
10,109999,48,100000,55,70000,40,9999,0.100000,99,0,0.000000,17,0.000000,25.610970,0.207097,99,99,0,0,0,0,0
10,109999,49,100000,10,20000,40,9999,0.100000,99,0,0.000000,16,0.000000,18.511778,2.078759,99,99,0,0,0,0,0
10,109999,50,100000,57,50000,41,9999,0.100000,99,0,0.000000,16,3.000000,26.569116,5.759660,99,99,0,0,0,0,0
10,109999,51,100000,57,0,40,9999,0.100000,99,0,0.000000,17,0.000000,17.532297,0.240288,99,99,0,0,0,0,0
10,109999,52,100000,70,0,40,9999,0.100000,99,0,0.000000,17,1.000000,27.183337,3.890324,99,99,0,0,0,0,0
10,109999,53,100000,9,20000,0,9999,0.100000,99,0,0.001286,17,0.000000,18.408674,0.669955,99,99,0,1,0,0,0
10,109999,54,100000,53,40000,40,9999,0.100000,99,0,0.000000,17,0.000000,14.369680,0.162794,99,99,0,0,0,0,0
10,109999,55,100000,40,20000,46,9999,0.100000,99,0,0.000000,16,15.000000,21.838397,18.852655,99,99,0,0,0,0,0
10,109999,56,100000,73,20000,40,9999,0.100000,99,0,0.000000,17,0.000000,24.758193,3.564834,99,99,0,0,0,0,0
10,109999,57,100000,0,0,40,9999,0.100000,99,0,0.000000,17,0.000000,30.938137,0.437357,99,99,0,0,0,0,0
10,109999,58,100000,40,20000,40,9999,0.100000,99,0,0.000000,16,1.000000,26.878786,2.934093,99,99,0,0,0,0,0
10,109999,59,100000,12,0,40,9999,0.100000,99,0,0.000000,17,0.000000,25.150598,1.459873,99,99,0,0,0,0,0
10,109999,60,100000,9,20000,40,9999,0.100000,99,0,0.000000,17,1.000000,25.097866,8.366708,99,99,0,0,0,0,0
10,109999,61,100000,97,10000,40,9999,0.100000,99,0,0.000000,16,2.000000,28.180434,9.184886,99,99,0,0,0,0,0
10,109999,62,100000,70,0,40,9999,0.100000,99,0,0.000000,16,0.000000,18.223334,0.236072,99,99,0,0,0,0,0
10,109999,63,100000,89,30000,40,9999,0.100000,99,0,0.000000,17,0.000000,27.890091,0.111346,99,99,0,0,0,0,0
10,109999,64,100000,97,10000,40,9999,0.100000,99,0,0.000000,17,0.000000,16.775596,0.241064,99,99,0,0,0,0,0
10,109999,65,100000,9,20000,0,9999,0.100000,99,0,0.004984,17,0.000000,16.924403,0.158437,99,99,0,0,1,0,0
10,109999,66,100000,0,0,40,9999,0.100000,99,0,0.000000,17,2.000000,27.849145,13.344870,99,99,0,0,0,0,0
10,109999,67,100000,73,20000,40,9999,0.100000,99,0,0.000000,16,0.000000,33.967708,0.235120,99,99,0,0,0,0,0
10,109999,68,100000,59,30000,40,9999,0.100000,99,0,0.000000,17,1.000000,21.018691,15.518561,99,99,0,0,0,0,0
10,109999,69,100000,59,30000,40,9999,0.100000,99,0,0.000000,17,0.000000,30.390433,0.136999,99,99,0,0,0,0,0
10,109999,70,100000,53,40000,40,9999,0.100000,99,0,0.000000,16,0.000000,27.765580,4.390627,99,99,0,0,0,0,0
10,109999,71,100000,0,0,40,9999,0.100000,99,0,0.000000,17,0.000000,27.334151,0.109833,99,99,0,0,0,0,0
10,109999,72,100000,12,0,40,9999,0.100000,99,0,0.000000,16,1.000000,24.334509,1.181866,99,99,0,0,0,0,0
10,109999,73,100000,10,20000,40,9999,0.100000,99,0,0.000000,17,2.000000,31.436761,7.297200,99,99,0,0,0,0,0
10,109999,74,100000,57,0,40,9999,0.100000,99,0,0.000000,17,1.000000,18.839065,8.691294,99,99,0,0,0,0,0
10,109999,75,100000,57,0,40,9999,0.100000,99,0,0.000000,16,1.000000,23.452509,1.156967,99,99,0,0,0,0,0
10,109999,76,100000,55,70000,40,9999,0.100000,99,0,0.000000,17,0.000000,28.179305,0.518799,99,99,0,0,0,0,0
10,109999,77,100000,10,20000,40,9999,0.100000,99,0,0.000000,17,0.000000,10.860005,1.501245,99,99,0,0,0,0,0
10,109999,78,100000,70,0,40,9999,0.100000,99,0,0.000000,16,0.000000,22.146078,1.982961,99,99,0,0,0,0,0
10,109999,79,100000,53,40000,41,9999,0.100000,99,0,0.000000,17,6.000000,30.379302,14.927400,99,99,0,0,0,0,0
10,109999,80,100000,9,20000,40,9999,0.100000,99,0,0.000000,17,1.000000,23.704719,1.106570,99,99,0,0,0,0,0
10,109999,81,100000,0,0,40,9999,0.100000,99,0,0.000000,16,0.000000,15.188977,0.569166,99,99,0,0,0,0,0
10,109999,82,100000,10,20000,40,9999,0.100000,99,0,0.000000,17,0.000000,30.516334,1.281757,99,99,0,0,0,0,0
10,109999,83,100000,40,20000,40,9999,0.100000,99,0,0.000000,16,0.000000,23.325685,0.236716,99,99,0,0,0,0,0
10,109999,84,100000,51,90000,40,9999,0.100000,99,0,0.000000,17,1.000000,24.054950,1.243239,99,99,0,0,0,0,0
10,109999,85,100000,97,10000,40,9999,0.100000,99,0,0.000000,16,0.000000,30.536992,1.314888,99,99,0,0,0,0,0
10,109999,86,100000,59,30000,1,9999,0.100000,99,0,0.019446,17,3.000000,23.473546,17.371571,99,99,0,0,1,0,0
10,109999,87,100000,85,50000,41,9999,0.100000,99,0,0.000000,16,3.000000,26.981799,17.329702,99,99,0,0,0,0,0
10,109999,88,100000,57,50000,40,9999,0.100000,99,0,0.000000,17,0.000000,28.103487,0.631191,99,99,0,0,0,0,0
10,109999,89,100000,85,50000,41,9999,0.100000,99,0,0.000000,16,3.000000,26.868325,19.457530,99,99,0,0,0,0,0
10,109999,90,100000,51,90000,40,9999,0.100000,99,0,0.000000,17,0.000000,29.017513,3.194558,99,99,0,0,0,0,0
10,109999,91,100000,70,0,40,9999,0.100000,99,0,0.000000,16,0.000000,37.296513,0.106359,99,99,0,0,0,0,0
10,109999,92,100000,89,30000,41,9999,0.100000,99,0,0.000000,17,4.000000,27.778619,13.954255,99,99,0,0,0,0,0
10,109999,93,100000,9,20000,40,9999,0.100000,99,0,0.000000,17,0.000000,14.084938,0.149612,99,99,0,0,0,0,0
10,109999,94,100000,85,50000,40,9999,0.100000,99,0,0.000000,17,0.000000,16.996567,0.139867,99,99,0,0,0,0,0
10,109999,95,100000,73,30000,40,9999,0.100000,99,0,0.000000,17,0.000000,14.507101,0.109401,99,99,0,0,0,0,0
10,109999,96,100000,51,90000,40,9999,0.100000,99,0,0.000000,17,0.000000,30.578141,0.919185,99,99,0,0,0,0,0
10,109999,97,100000,59,30000,40,9999,0.100000,99,0,0.000000,17,1.000000,22.217150,5.883041,99,99,0,0,0,0,0
10,109999,98,100000,55,70000,40,9999,0.100000,99,0,0.000000,16,1.000000,23.552265,24.965686,99,99,0,0,0,0,0
10,109999,99,100000,53,40000,40,9999,0.100000,99,0,0.000000,16,2.000000,22.608046,6.585567,99,99,0,0,0,0,0
11,119999,0,110000,97,10000,40,9999,0.100000,99,0,0.000000,17,0.000000,20.586382,3.164443,99,99,0,0,0,0,0
11,119999,1,110000,85,50000,0,9999,0.100000,99,0,3.507691,18,1.000000,24.244296,1.276105,99,99,0,0,0,0,1
11,119999,2,110000,37,100000,40,9999,0.100000,99,0,0.000000,18,0.000000,23.488362,0.620469,99,99,0,0,0,0,0
11,119999,3,110000,57,50000,40,9999,0.100000,99,0,0.000000,17,0.000000,20.607197,0.912141,99,99,0,0,0,0,0
11,119999,4,110000,51,90000,0,9999,0.100000,99,0,0.050630,17,0.000000,14.526032,0.162569,99,99,0,0,0,1,0
11,119999,5,110000,53,40000,40,9999,0.100000,99,0,0.000000,17,0.000000,29.826500,0.766419,99,99,0,0,0,0,0
11,119999,6,110000,57,50000,40,9999,0.100000,99,0,0.000000,18,1.000000,27.995777,18.458055,99,99,0,0,0,0,0
11,119999,7,110000,10,20000,40,9999,0.100000,99,0,0.000000,18,0.000000,20.992250,0.535126,99,99,0,0,0,0,0
11,119999,8,110000,53,40000,0,9999,0.100000,99,0,0.003311,18,0.000000,14.381962,0.116479,99,99,0,0,0,1,0
11,119999,9,110000,12,0,40,9999,0.100000,99,0,0.000000,18,0.000000,25.598070,6.667059,99,99,0,0,0,0,0
11,119999,10,110000,73,30000,40,9999,0.100000,99,0,0.000000,18,0.000000,32.947750,0.236591,99,99,0,0,0,0,0
11,119999,11,110000,55,70000,1,9999,0.100000,99,0,6.540134,17,3.000000,25.068204,13.896598,99,99,0,0,1,0,0
11,119999,12,110000,10,20000,40,9999,0.100000,99,0,0.000000,18,0.000000,36.143767,0.214411,99,99,0,0,0,0,0
11,119999,13,110000,53,40000,40,9999,0.100000,99,0,0.000000,17,0.000000,27.926781,1.021185,99,99,0,0,0,0,0
11,119999,14,110000,97,10000,40,9999,0.100000,99,0,0.000000,18,0.000000,26.630852,0.113614,99,99,0,0,0,0,0
11,119999,15,110000,0,0,40,9999,0.100000,99,0,0.000000,18,0.000000,28.147221,0.793510,99,99,0,0,0,0,0
11,119999,16,110000,10,20000,41,9999,0.100000,99,0,0.000000,18,5.000000,35.666973,14.394142,99,99,0,0,0,0,0
11,119999,17,110000,55,70000,0,9999,0.100000,99,0,1.101642,18,0.000000,27.685269,0.935825,99,99,0,0,0,1,0
11,119999,18,110000,10,20000,40,9999,0.100000,99,0,0.000000,18,3.000000,29.424753,14.748402,99,99,0,0,0,0,0
11,119999,19,110000,57,0,40,9999,0.100000,99,0,0.000000,18,1.000000,30.042683,12.704792,99,99,0,0,0,0,0
11,119999,20,110000,10,20000,0,9999,0.100000,99,0,0.035247,17,0.000000,26.505184,0.170153,99,99,0,0,1,0,0
11,119999,21,110000,97,10000,41,9999,0.100000,99,0,0.000000,17,3.000000,26.843416,10.457181,99,99,0,0,0,0,0
11,119999,22,110000,0,0,40,9999,0.100000,99,0,0.000000,18,0.000000,27.792478,0.872395,99,99,0,0,0,0,0
11,119999,23,110000,57,0,90,9999,0.100000,99,0,0.354302,18,0.000000,23.855512,0.454024,99,99,1,0,0,0,0
11,119999,24,110000,89,30000,40,9999,0.100000,99,0,0.000000,18,0.000000,27.555370,0.730181,99,99,0,0,0,0,0
11,119999,25,110000,51,90000,40,9999,0.100000,99,0,0.000000,17,0.000000,15.203636,0.242883,99,99,0,0,0,0,0
11,119999,26,110000,16,100000,40,9999,0.100000,99,0,0.000000,18,0.000000,24.652236,4.366416,99,99,0,0,0,0,0
11,119999,27,110000,55,70000,41,9999,0.100000,99,0,0.000000,18,5.000000,24.093023,29.835046,99,99,0,0,0,0,0
11,119999,28,110000,97,10000,41,9999,0.100000,99,0,0.000000,17,6.000000,36.462601,10.698676,99,99,0,0,0,0,0
11,119999,29,110000,12,0,40,9999,0.100000,99,0,0.000000,18,0.000000,31.081748,0.140215,99,99,0,0,0,0,0
11,119999,30,110000,85,50000,0,9999,0.100000,99,0,0.012097,17,0.000000,28.040395,0.432033,99,99,0,0,0,0,1
11,119999,31,110000,12,0,90,9999,0.100000,99,0,0.156783,18,0.000000,23.930354,0.641432,99,99,1,0,0,0,0
11,119999,32,110000,70,0,0,9999,0.065000,99,0,0.610508,17,0.000000,25.292012,0.503693,99,99,0,0,0,1,0
11,119999,33,110000,85,50000,40,9999,0.100000,99,0,0.000000,17,0.000000,23.319541,0.822578,99,99,0,0,0,0,0
11,119999,34,110000,89,30000,0,9999,0.100000,99,0,0.341856,18,0.000000,21.371409,0.193450,99,99,0,0,0,0,1
11,119999,35,110000,53,40000,40,9999,0.100000,99,0,0.000000,17,0.000000,27.488830,0.087850,99,99,0,0,0,0,0
11,119999,36,110000,37,100000,41,9999,0.100000,99,0,0.000000,18,5.000000,29.989080,17.761888,99,99,0,0,0,0,0
11,119999,37,110000,85,50000,40,9999,0.100000,99,0,0.000000,18,0.000000,18.603518,0.912052,99,99,0,0,0,0,0
11,119999,38,110000,12,0,40,9999,0.100000,99,0,0.000000,18,1.000000,24.499331,2.361303,99,99,0,0,0,0,0
11,119999,39,110000,97,10000,40,9999,0.100000,99,0,0.000000,18,2.000000,23.629940,8.207280,99,99,0,0,0,0,0
11,119999,40,110000,53,40000,40,9999,0.100000,99,0,0.000000,18,1.000000,27.696811,8.075268,99,99,0,0,0,0,0
11,119999,41,110000,51,90000,40,9999,0.100000,99,0,0.000000,18,2.000000,19.030434,11.480207,99,99,0,0,0,0,0
11,119999,42,110000,53,40000,40,9999,0.100000,99,0,0.000000,18,0.000000,14.626570,0.111413,99,99,0,0,0,0,0
11,119999,43,110000,53,40000,40,9999,0.100000,99,0,0.000000,18,0.000000,28.723763,3.555863,99,99,0,0,0,0,0
11,119999,44,110000,0,0,40,9999,0.100000,99,0,0.000000,18,2.000000,24.882023,13.609138,99,99,0,0,0,0,0
11,119999,45,110000,70,0,41,9999,0.100000,99,0,0.000000,18,4.000000,31.780019,6.990223,99,99,0,0,0,0,0
11,119999,46,110000,51,90000,40,9999,0.100000,99,0,0.000000,18,0.000000,25.066251,0.548763,99,99,0,0,0,0,0
11,119999,47,110000,55,70000,40,9999,0.100000,99,0,0.000000,18,0.000000,29.653556,2.166478,99,99,0,0,0,0,0
11,119999,48,110000,89,30000,40,9999,0.100000,99,0,0.000000,18,0.000000,25.517330,0.523768,99,99,0,0,0,0,0
11,119999,49,110000,57,50000,40,9999,0.100000,99,0,0.000000,18,0.000000,18.293847,1.999567,99,99,0,0,0,0,0
11,119999,50,110000,59,30000,40,9999,0.100000,99,0,0.000000,18,0.000000,29.556070,2.055964,99,99,0,0,0,0,0
11,119999,51,110000,57,50000,40,9999,0.100000,99,0,0.000000,18,0.000000,17.531051,0.227842,99,99,0,0,0,0,0
11,119999,52,110000,73,30000,40,9999,0.100000,99,0,0.000000,18,0.000000,26.362809,4.808398,99,99,0,0,0,0,0
11,119999,53,110000,85,50000,0,9999,0.100000,99,0,0.002695,18,0.000000,18.189805,0.619200,99,99,0,1,0,0,0
11,119999,54,110000,0,0,40,9999,0.100000,99,0,0.000000,18,0.000000,14.363308,0.168719,99,99,0,0,0,0,0
11,119999,55,110000,97,10000,41,9999,0.100000,99,0,0.000000,18,3.000000,26.659481,6.224392,99,99,0,0,0,0,0
11,119999,56,110000,55,100000,40,9999,0.100000,99,0,0.000000,18,0.000000,24.660531,3.107207,99,99,0,0,0,0,0
11,119999,57,110000,85,50000,40,9999,0.100000,99,0,0.000000,18,0.000000,31.132041,0.514633,99,99,0,0,0,0,0
11,119999,58,110000,16,100000,41,9999,0.100000,99,0,0.000000,18,4.000000,26.126279,20.626004,99,99,0,0,0,0,0
11,119999,59,110000,55,70000,40,9999,0.100000,99,0,0.000000,18,0.000000,24.564211,1.644101,99,99,0,0,0,0,0
11,119999,60,110000,16,100000,40,9999,0.100000,99,0,0.000000,18,1.000000,24.083657,5.748078,99,99,0,0,0,0,0
11,119999,61,110000,0,0,40,9999,0.100000,99,0,0.000000,18,3.000000,30.110481,10.785583,99,99,0,0,0,0,0
11,119999,62,110000,28,100000,40,9999,0.100000,99,0,0.000000,18,0.000000,18.221860,0.229814,99,99,0,0,0,0,0
11,119999,63,110000,55,70000,40,9999,0.100000,99,0,0.000000,18,0.000000,27.869037,0.114069,99,99,0,0,0,0,0
11,119999,64,110000,57,0,40,9999,0.100000,99,0,0.000000,18,0.000000,16.773247,0.227847,99,99,0,0,0,0,0
11,119999,65,110000,70,0,40,9999,0.100000,99,0,0.000000,18,0.000000,16.916009,0.163097,99,99,0,0,0,0,0
11,119999,66,110000,53,40000,40,9999,0.100000,99,0,0.000000,18,3.000000,28.865191,11.428314,99,99,0,0,0,0,0
11,119999,67,110000,9,20000,40,9999,0.100000,99,0,0.000000,18,0.000000,33.968019,0.236810,99,99,0,0,0,0,0
11,119999,68,110000,57,50000,40,9999,0.100000,99,0,0.000000,18,0.000000,20.089212,10.645609,99,99,0,0,0,0,0
11,119999,69,110000,16,100000,40,9999,0.100000,99,0,0.000000,18,0.000000,30.390228,0.134998,99,99,0,0,0,0,0
11,119999,70,110000,0,0,41,9999,0.100000,99,0,0.000000,18,4.000000,27.504096,15.593588,99,99,0,0,0,0,0
11,119999,71,110000,70,0,40,9999,0.100000,99,0,0.000000,18,0.000000,27.314586,0.109436,99,99,0,0,0,0,0
11,119999,72,110000,57,50000,40,9999,0.100000,99,0,0.000000,18,1.000000,24.688960,1.382132,99,99,0,0,0,0,0
11,119999,73,110000,89,30000,41,9999,0.100000,99,0,0.000000,18,5.000000,29.354080,14.469409,99,99,0,0,0,0,0
11,119999,74,110000,70,0,40,9999,0.100000,99,0,0.000000,18,0.000000,18.913987,3.249623,99,99,0,0,0,0,0
11,119999,75,110000,85,50000,40,9999,0.100000,99,0,0.000000,18,1.000000,23.830652,1.314674,99,99,0,0,0,0,0
