generation,iteration,robot,birthday,ancestor_id,ancestor_birthday,cell_id,age,sigma,maps,genomes,fitness,cells_in_map,dist_max,dist_pot_max,dist_total,com_rx,com_tx,obj_group1,obj_group2,obj_group3,obj_group4,obj_group5
0,9999,0,0,0,0,41,9999,0.100000,99,0,0.000000,0,2.000000,13.492850,9.609268,99,99,0,0,0,0,0
0,9999,1,0,1,0,40,9999,0.100000,99,0,0.000000,0,0.000000,21.920571,3.987474,99,99,0,0,0,0,0
0,9999,2,0,2,0,40,9999,0.100000,99,0,0.000000,0,1.000000,17.376313,5.777073,99,99,0,0,0,0,0
0,9999,3,0,3,0,40,9999,0.100000,99,0,0.000000,0,1.000000,25.707960,6.000571,99,99,0,0,0,0,0
0,9999,4,0,4,0,40,9999,0.100000,99,0,0.000000,0,1.000000,17.317103,13.550205,99,99,0,0,0,0,0
0,9999,5,0,5,0,40,9999,0.100000,99,0,0.000000,0,0.000000,28.461853,2.174285,99,99,0,0,0,0,0
0,9999,6,0,6,0,40,9999,0.100000,99,0,0.000000,0,2.000000,28.885973,22.222344,99,99,0,0,0,0,0
0,9999,7,0,7,0,40,9999,0.100000,99,0,0.000000,0,0.000000,24.516887,0.587052,99,99,0,0,0,0,0
0,9999,8,0,8,0,0,9999,0.100000,99,0,0.256294,0,0.000000,14.204759,0.990276,99,99,0,0,0,1,0
0,9999,9,0,9,0,0,9999,0.100000,99,0,0.008368,0,1.000000,20.581588,5.685719,99,99,0,0,0,0,1
0,9999,10,0,10,0,40,9999,0.100000,99,0,0.000000,0,1.000000,25.879547,4.362251,99,99,0,0,0,0,0
0,9999,11,0,11,0,40,9999,0.100000,99,0,0.000000,0,2.000000,26.858529,12.249714,99,99,0,0,0,0,0
0,9999,12,0,12,0,43,9999,0.100000,99,0,54.400225,0,10.000000,27.486566,18.509746,99,99,1,0,0,1,0
0,9999,13,0,13,0,0,9999,0.100000,99,0,0.104815,0,3.000000,34.242525,4.805820,99,99,0,1,0,0,0
0,9999,14,0,14,0,0,9999,0.100000,99,0,0.359660,0,0.000000,26.475740,1.625856,99,99,0,0,1,0,0
0,9999,15,0,15,0,41,9999,0.100000,99,0,0.000000,0,5.000000,28.985521,10.223965,99,99,0,0,0,0,0
0,9999,16,0,16,0,40,9999,0.100000,99,0,0.000000,0,2.000000,26.468455,11.688532,99,99,0,0,0,0,0
0,9999,17,0,17,0,42,9999,0.100000,99,0,0.000000,0,7.000000,31.942880,12.545836,99,99,0,0,0,0,0
0,9999,18,0,18,0,41,9999,0.100000,99,0,0.000000,0,4.000000,32.090722,8.375343,99,99,0,0,0,0,0
0,9999,19,0,19,0,90,9999,0.100000,99,0,0.039802,0,1.000000,34.560131,11.565197,99,99,1,0,0,0,0
0,9999,20,0,20,0,40,9999,0.100000,99,0,0.000000,0,0.000000,25.953056,1.168742,99,99,0,0,0,0,0
0,9999,21,0,21,0,40,9999,0.100000,99,0,0.000000,0,0.000000,26.926015,13.291979,99,99,0,0,0,0,0
0,9999,22,0,22,0,41,9999,0.100000,99,0,0.000000,0,3.000000,27.669465,17.057416,99,99,0,0,0,0,0
0,9999,23,0,23,0,40,9999,0.100000,99,0,0.000000,0,0.000000,22.763228,9.632551,99,99,0,0,0,0,0
0,9999,24,0,24,0,40,9999,0.100000,99,0,0.000000,0,2.000000,29.020515,7.815173,99,99,0,0,0,0,0
0,9999,25,0,25,0,40,9999,0.100000,99,0,0.000000,0,1.000000,19.340771,5.452011,99,99,0,0,0,0,0
0,9999,26,0,26,0,40,9999,0.100000,99,0,0.000000,0,1.000000,19.396276,2.996470,99,99,0,0,0,0,0
0,9999,27,0,27,0,91,9999,0.100000,99,0,9.165214,0,3.000000,26.352676,14.010695,99,99,1,0,0,0,0
0,9999,28,0,28,0,40,9999,0.100000,99,0,0.000000,0,1.000000,30.746084,17.823254,99,99,0,0,0,0,0
0,9999,29,0,29,0,0,9999,0.100000,99,0,0.360725,0,1.000000,24.404513,6.679834,99,99,0,0,1,0,0
0,9999,30,0,30,0,0,9999,0.100000,99,0,0.116143,0,0.000000,28.117671,1.683310,99,99,0,0,0,0,1
0,9999,31,0,31,0,92,9999,0.100000,99,0,38.253637,0,7.000000,22.258874,15.909651,99,99,1,0,0,0,0
0,9999,32,0,32,0,95,9999,0.100000,99,0,58.528192,0,11.000000,17.749194,18.289852,99,99,1,0,0,0,0
0,9999,33,0,33,0,40,9999,0.100000,99,0,0.000000,0,0.000000,26.902663,1.162951,99,99,0,0,0,0,0
0,9999,34,0,34,0,95,9999,0.100000,99,0,87.156271,0,15.000000,23.885244,25.753866,99,99,1,0,0,0,0
0,9999,35,0,35,0,40,9999,0.100000,99,0,0.000000,0,2.000000,26.923948,3.438780,99,99,0,0,0,0,0
0,9999,36,0,36,0,40,9999,0.100000,99,0,0.000000,0,3.000000,30.041956,9.335520,99,99,0,0,0,0,0
0,9999,37,0,37,0,40,9999,0.100000,99,0,0.000000,0,1.000000,21.535164,8.786009,99,99,0,0,0,0,0
0,9999,38,0,38,0,40,9999,0.100000,99,0,0.000000,0,0.000000,19.734989,1.769866,99,99,0,0,0,0,0
0,9999,39,0,39,0,41,9999,0.100000,99,0,0.000000,0,2.000000,18.766413,11.780465,99,99,0,0,0,0,0
0,9999,40,0,40,0,93,9999,0.100000,99,0,44.774188,0,8.000000,24.786818,20.743890,99,99,1,0,0,0,0
0,9999,41,0,41,0,41,9999,0.100000,99,0,0.000000,0,3.000000,19.055385,14.555468,99,99,0,0,0,0,0
0,9999,42,0,42,0,40,9999,0.100000,99,0,0.000000,0,0.000000,15.643581,5.439260,99,99,0,0,0,0,0
0,9999,43,0,43,0,0,9999,0.100000,99,0,0.259985,0,0.000000,19.269844,0.732360,99,99,0,0,1,0,0
0,9999,44,0,44,0,40,9999,0.100000,99,0,0.000000,0,1.000000,27.489711,8.535559,99,99,0,0,0,0,0
0,9999,45,0,45,0,0,9999,0.100000,99,0,0.655025,0,0.000000,27.151093,0.943139,99,99,0,0,0,0,1
0,9999,46,0,46,0,91,9999,0.100000,99,0,18.984264,0,3.000000,24.623953,11.471880,99,99,1,0,0,0,0
0,9999,47,0,47,0,40,9999,0.100000,99,0,0.000000,0,2.000000,25.692355,9.689720,99,99,0,0,0,0,0
0,9999,48,0,48,0,40,9999,0.100000,99,0,0.000000,0,1.000000,17.406078,6.767332,99,99,0,0,0,0,0
0,9999,49,0,49,0,40,9999,0.100000,99,0,0.000000,0,1.000000,21.225863,5.434167,99,99,0,0,0,0,0
0,9999,50,0,50,0,0,9999,0.100000,99,0,0.012527,0,0.000000,15.922837,1.220736,99,99,0,0,1,0,0
0,9999,51,0,51,0,41,9999,0.100000,99,0,0.000000,0,3.000000,20.040418,10.369412,99,99,0,0,0,0,0
0,9999,52,0,52,0,41,9999,0.100000,99,0,0.000000,0,5.000000,28.698663,13.696095,99,99,0,0,0,0,0
0,9999,53,0,53,0,0,9999,0.100000,99,0,2.505664,0,1.000000,22.902713,1.291416,99,99,0,1,0,0,0
0,9999,54,0,54,0,0,9999,0.100000,99,0,0.144469,0,0.000000,11.565247,1.226428,99,99,0,0,0,1,0
0,9999,55,0,55,0,91,9999,0.100000,99,0,17.448621,0,3.000000,25.508063,15.237571,99,99,1,0,0,0,0
0,9999,56,0,56,0,40,9999,0.100000,99,0,0.000000,0,0.000000,30.506097,8.375273,99,99,0,0,0,0,0
0,9999,57,0,57,0,94,9999,0.100000,99,0,61.541766,0,12.000000,25.546704,25.400578,99,99,1,0,0,0,0
0,9999,58,0,58,0,90,9999,0.100000,99,0,20.301274,0,2.000000,31.440149,14.345253,99,99,1,0,0,0,0
0,9999,59,0,59,0,40,9999,0.100000,99,0,0.000000,0,2.000000,19.621330,11.681142,99,99,0,0,0,0,0
0,9999,60,0,60,0,41,9999,0.100000,99,0,0.000000,0,5.000000,30.725106,17.108325,99,99,0,0,0,0,0
0,9999,61,0,61,0,40,9999,0.100000,99,0,0.000000,0,2.000000,26.686521,10.290874,99,99,0,0,0,0,0
0,9999,62,0,62,0,40,9999,0.100000,99,0,0.000000,0,2.000000,25.516765,6.054809,99,99,0,0,0,0,0
0,9999,63,0,63,0,41,9999,0.100000,99,0,0.000000,0,4.000000,24.500000,13.979285,99,99,0,0,0,0,0
0,9999,64,0,64,0,41,9999,0.100000,99,0,0.000000,0,3.000000,26.043067,7.161791,99,99,0,0,0,0,0
0,9999,65,0,65,0,42,9999,0.100000,99,0,0.000000,0,4.000000,15.100000,11.085105,99,99,0,0,0,0,0
0,9999,66,0,66,0,41,9999,0.100000,99,0,0.000000,0,5.000000,24.800338,24.382228,99,99,0,0,0,0,0
0,9999,67,0,67,0,40,9999,0.100000,99,0,0.000000,0,0.000000,31.208489,5.085651,99,99,0,0,0,0,0
0,9999,68,0,68,0,40,9999,0.100000,99,0,0.000000,0,1.000000,23.879842,4.493915,99,99,0,0,0,0,0
0,9999,69,0,69,0,41,9999,0.100000,99,0,0.000000,0,3.000000,26.995588,10.165698,99,99,0,0,0,0,0
0,9999,70,0,70,0,94,9999,0.100000,99,0,66.096355,0,14.000000,29.556329,18.093842,99,99,1,0,0,0,0
0,9999,71,0,71,0,40,9999,0.100000,99,0,0.000000,0,1.000000,29.633135,8.684185,99,99,0,0,0,0,0
0,9999,72,0,72,0,40,9999,0.100000,99,0,0.000000,0,0.000000,18.796590,14.249991,99,99,0,0,0,0,0
0,9999,73,0,73,0,0,9999,0.100000,99,0,0.069148,0,2.000000,26.620770,6.347370,99,99,0,1,0,0,0
0,9999,74,0,74,0,40,9999,0.100000,99,0,0.000000,0,1.000000,18.637129,15.507892,99,99,0,0,0,0,0
0,9999,75,0,75,0,41,9999,0.100000,99,0,0.000000,0,3.000000,17.468601,13.914369,99,99,0,0,0,0,0
0,9999,76,0,76,0,41,9999,0.100000,99,0,0.000000,0,3.000000,25.205262,8.063464,99,99,0,0,0,0,0
0,9999,77,0,77,0,40,9999,0.100000,99,0,0.000000,0,1.000000,12.801786,4.400097,99,99,0,0,0,0,0
0,9999,78,0,78,0,40,9999,0.100000,99,0,0.000000,0,1.000000,17.932213,4.330707,99,99,0,0,0,0,0
0,9999,79,0,79,0,91,9999,0.100000,99,0,14.872167,0,6.000000,31.645323,13.231159,99,99,1,0,0,0,0
0,9999,80,0,80,0,93,9999,0.100000,99,0,34.768285,0,8.000000,22.529964,20.022618,99,99,1,0,0,0,0
0,9999,81,0,81,0,94,9999,0.100000,99,0,50.268129,0,10.000000,19.302150,23.005749,99,99,1,0,0,0,0
0,9999,82,0,82,0,40,9999,0.100000,99,0,0.000000,0,1.000000,29.871588,14.350675,99,99,0,0,0,0,0
0,9999,83,0,83,0,41,9999,0.100000,99,0,0.000000,0,3.000000,25.977797,15.274206,99,99,0,0,0,0,0
0,9999,84,0,84,0,40,9999,0.100000,99,0,0.000000,0,1.000000,30.693236,15.826261,99,99,0,0,0,0,0
0,9999,85,0,85,0,93,9999,0.100000,99,0,39.199885,0,8.000000,20.407689,14.978334,99,99,1,0,0,0,0
0,9999,86,0,86,0,93,9999,0.100000,99,0,42.069168,0,8.000000,21.747766,19.101619,99,99,1,0,0,0,0
0,9999,87,0,87,0,91,9999,0.100000,99,0,23.371917,0,4.000000,33.443763,12.757236,99,99,1,0,0,0,0
0,9999,88,0,88,0,40,9999,0.100000,99,0,0.000000,0,2.000000,26.063935,10.777674,99,99,0,0,0,0,0
0,9999,89,0,89,0,40,9999,0.100000,99,0,0.000000,0,2.000000,24.806080,8.952638,99,99,0,0,0,0,0
0,9999,90,0,90,0,40,9999,0.100000,99,0,0.000000,0,1.000000,35.636303,9.342909,99,99,0,0,0,0,0
0,9999,91,0,91,0,95,9999,0.100000,99,0,70.271284,0,14.000000,26.033091,16.894460,99,99,1,0,0,0,0
0,9999,92,0,92,0,40,9999,0.100000,99,0,0.000000,0,3.000000,28.970767,8.868895,99,99,0,0,0,0,0
0,9999,93,0,93,0,44,9999,0.100000,99,0,0.000000,0,7.000000,16.449806,20.369080,99,99,0,0,0,0,0
0,9999,94,0,94,0,41,9999,0.100000,99,0,0.000000,0,3.000000,15.852350,11.825030,99,99,0,0,0,0,0
0,9999,95,0,95,0,93,9999,0.100000,99,0,39.167264,0,7.000000,20.846659,18.665533,99,99,1,0,0,0,0
0,9999,96,0,96,0,40,9999,0.100000,99,0,0.000000,0,1.000000,27.681912,10.653404,99,99,0,0,0,0,0
0,9999,97,0,97,0,92,9999,0.100000,99,0,34.605627,0,6.000000,24.699660,15.016054,99,99,1,0,0,0,0
0,9999,98,0,98,0,41,9999,0.100000,99,0,0.000000,0,3.000000,18.420214,7.268765,99,99,0,0,0,0,0
0,9999,99,0,99,0,40,9999,0.100000,99,0,0.000000,0,2.000000,27.692089,9.221778,99,99,0,0,0,0,0
1,19999,0,0,0,0,40,19999,0.100000,99,0,0.000000,1,0.000000,15.667967,5.698050,99,99,0,0,0,0,0
1,19999,1,10000,14,0,0,9999,0.100000,99,0,0.106359,7,1.000000,21.990826,11.643179,99,99,0,0,1,0,0
1,19999,2,10000,91,0,41,9999,0.100000,99,0,0.000000,8,2.000000,18.380412,10.783190,99,99,0,0,0,0,0
1,19999,3,10000,38,0,40,9999,0.100000,99,0,0.000000,6,0.000000,24.662964,2.489632,99,99,0,0,0,0,0
1,19999,4,10000,86,0,42,9999,0.100000,99,0,0.000000,9,5.000000,16.414311,12.687038,99,99,0,0,0,0,0
1,19999,5,10000,1,0,40,9999,0.100000,99,0,0.000000,7,2.000000,28.419726,9.299677,99,99,0,0,0,0,0
1,19999,6,10000,0,0,0,9999,0.100000,99,0,0.297515,6,0.000000,27.947774,8.546559,99,99,0,0,0,0,1
1,19999,7,10000,91,0,40,9999,0.100000,99,0,0.000000,9,0.000000,24.229141,0.483239,99,99,0,0,0,0,0
1,19999,8,10000,53,0,0,9999,0.100000,99,0,0.002519,10,0.000000,14.513246,0.134516,99,99,0,0,0,1,0
1,19999,9,10000,34,0,0,9999,0.100000,99,0,1.114630,10,0.000000,19.410416,0.434998,99,99,0,0,0,0,1
1,19999,10,10000,45,0,40,9999,0.100000,99,0,0.000000,8,0.000000,27.018172,0.974116,99,99,0,0,0,0,0
1,19999,11,0,11,0,41,19999,0.100000,99,0,0.000000,3,3.000000,26.169314,10.204102,99,99,0,0,0,0,0
1,19999,12,10000,12,0,0,9999,0.100000,99,0,0.289465,8,0.000000,33.114912,0.727964,99,99,0,0,0,1,0
1,19999,13,10000,0,0,1,9999,0.100000,99,0,24.529548,8,4.000000,32.224833,6.720608,99,99,0,1,0,0,0
1,19999,14,10000,37,0,0,9999,0.100000,99,0,1.240816,3,0.000000,26.383621,0.842739,99,99,0,0,1,0,0
1,19999,15,10000,86,0,40,9999,0.100000,99,0,0.000000,6,3.000000,29.967310,8.198975,99,99,0,0,0,0,0
1,19999,16,10000,86,0,40,9999,0.100000,99,0,0.000000,9,2.000000,25.936598,7.887091,99,99,0,0,0,0,0
1,19999,17,10000,17,0,42,9999,0.100000,99,0,0.000000,4,6.000000,25.906850,19.228066,99,99,0,0,0,0,0
1,19999,18,10000,14,0,40,9999,0.100000,99,0,0.000000,4,2.000000,30.643793,22.764508,99,99,0,0,0,0,0
1,19999,19,10000,38,0,90,9999,0.100000,99,0,1.542165,7,0.000000,35.062260,2.449433,99,99,1,0,0,0,0
1,19999,20,10000,1,0,40,9999,0.100000,99,0,0.000000,8,2.000000,25.673346,4.343033,99,99,0,0,0,0,0
1,19999,21,10000,91,0,41,9999,0.100000,99,0,0.000000,9,3.000000,26.171962,14.537069,99,99,0,0,0,0,0
1,19999,22,10000,14,0,40,9999,0.100000,99,0,0.000000,4,0.000000,27.509717,12.107747,99,99,0,0,0,0,0
1,19999,23,10000,12,0,40,9999,0.100000,99,0,0.000000,8,0.000000,22.733990,5.336191,99,99,0,0,0,0,0
1,19999,24,10000,37,0,40,9999,0.100000,99,0,0.000000,3,1.000000,27.571947,4.448000,99,99,0,0,0,0,0
1,19999,25,10000,45,0,40,9999,0.100000,99,0,0.000000,8,0.000000,19.623041,4.000034,99,99,0,0,0,0,0
1,19999,26,10000,97,0,1,9999,0.100000,99,0,0.035186,10,3.000000,20.374875,4.704435,99,99,0,0,0,1,0
1,19999,27,10000,38,0,40,9999,0.100000,99,0,0.000000,7,2.000000,28.978733,12.560384,99,99,0,0,0,0,0
1,19999,28,10000,81,0,0,9999,0.100000,99,0,0.233264,6,1.000000,30.493256,2.718736,99,99,0,0,0,1,0
1,19999,29,10000,91,0,40,9999,0.100000,99,0,0.000000,8,1.000000,23.042314,3.189744,99,99,0,0,0,0,0
1,19999,30,10000,1,0,0,9999,0.100000,99,0,0.396161,8,0.000000,27.948843,0.382883,99,99,0,0,0,0,1
1,19999,31,10000,34,0,40,9999,0.100000,99,0,0.000000,10,0.000000,28.364696,13.608252,99,99,0,0,0,0,0
1,19999,32,10000,75,0,42,9999,0.100000,99,0,0.000000,9,7.000000,26.053380,13.296209,99,99,0,0,0,0,0
1,19999,33,10000,17,0,40,9999,0.100000,99,0,0.000000,6,0.000000,26.033927,1.012326,99,99,0,0,0,0,0
1,19999,34,10000,34,0,90,9999,0.100000,99,0,5.890778,9,1.000000,32.549157,9.582868,99,99,1,0,0,0,0
1,19999,35,10000,75,0,40,9999,0.100000,99,0,0.000000,9,0.000000,26.111967,0.605526,99,99,0,0,0,0,0
1,19999,36,10000,14,0,40,9999,0.100000,99,0,0.000000,3,0.000000,31.064108,7.404043,99,99,0,0,0,0,0
1,19999,37,10000,0,0,40,9999,0.100000,99,0,0.000000,2,0.000000,22.178039,0.974530,99,99,0,0,0,0,0
1,19999,38,10000,38,0,40,9999,0.100000,99,0,0.000000,3,0.000000,19.203751,0.887284,99,99,0,0,0,0,0
1,19999,39,10000,81,0,41,9999,0.100000,99,0,0.000000,6,4.000000,21.509368,10.676439,99,99,0,0,0,0,0
1,19999,40,10000,97,0,40,9999,0.100000,99,0,0.000000,10,1.000000,31.352602,12.675101,99,99,0,0,0,0,0
1,19999,41,10000,27,0,40,9999,0.100000,99,0,0.000000,7,0.000000,22.983822,1.397524,99,99,0,0,0,0,0
1,19999,42,10000,0,0,40,9999,0.100000,99,0,0.000000,6,0.000000,14.788988,0.092961,99,99,0,0,0,0,0
1,19999,43,10000,0,0,0,9999,0.100000,99,0,1.095531,3,0.000000,19.751153,0.692357,99,99,0,0,1,0,0
1,19999,44,10000,86,0,40,9999,0.100000,99,0,0.000000,6,1.000000,28.298062,9.535363,99,99,0,0,0,0,0
1,19999,45,10000,27,0,40,9999,0.100000,99,0,0.000000,7,0.000000,27.631371,0.850357,99,99,0,0,0,0,0
1,19999,46,10000,1,0,40,9999,0.100000,99,0,0.000000,10,0.000000,28.097096,8.519573,99,99,0,0,0,0,0
1,19999,47,10000,12,0,40,9999,0.100000,99,0,0.000000,9,2.000000,25.922954,9.645990,99,99,0,0,0,0,0
1,19999,48,10000,0,0,40,9999,0.100000,99,0,0.000000,7,0.000000,18.125293,3.904155,99,99,0,0,0,0,0
1,19999,49,10000,17,0,40,9999,0.100000,99,0,0.000000,7,1.000000,21.942405,1.492811,99,99,0,0,0,0,0
1,19999,50,10000,34,0,0,9999,0.100000,99,0,0.008564,10,0.000000,16.742886,0.133870,99,99,0,0,1,0,0
1,19999,51,10000,27,0,40,9999,0.100000,99,0,0.000000,9,1.000000,22.626306,3.077064,99,99,0,0,0,0,0
1,19999,52,10000,1,0,40,9999,0.100000,99,0,0.000000,10,2.000000,28.807537,10.988106,99,99,0,0,0,0,0
1,19999,53,10000,55,0,0,9999,0.100000,99,0,7.206288,9,1.000000,21.870915,1.473334,99,99,0,1,0,0,0
1,19999,54,10000,54,0,0,9999,0.100000,99,0,0.005182,3,0.000000,12.132458,0.121580,99,99,0,0,0,1,0
1,19999,55,10000,1,0,40,9999,0.100000,99,0,0.000000,8,2.000000,28.126497,12.649956,99,99,0,0,0,0,0
1,19999,56,10000,17,0,40,9999,0.100000,99,0,0.000000,6,2.000000,29.965980,6.110708,99,99,0,0,0,0,0
1,19999,57,10000,0,0,40,9999,0.100000,99,0,0.000000,8,0.000000,33.237709,1.283736,99,99,0,0,0,0,0
1,19999,58,10000,75,0,40,9999,0.100000,99,0,0.000000,9,1.000000,29.226689,14.627922,99,99,0,0,0,0,0
1,19999,59,10000,1,0,40,9999,0.100000,99,0,0.000000,9,1.000000,21.793605,8.422516,99,99,0,0,0,0,0
1,19999,60,10000,0,0,42,9999,0.100000,99,0,0.000000,3,6.000000,25.792732,19.230688,99,99,0,0,0,0,0
1,19999,61,10000,53,0,40,9999,0.100000,99,0,0.000000,10,1.000000,25.286221,10.992867,99,99,0,0,0,0,0
1,19999,62,10000,17,0,40,9999,0.100000,99,0,0.000000,6,0.000000,26.727011,1.011731,99,99,0,0,0,0,0
1,19999,63,10000,40,0,40,9999,0.100000,99,0,0.000000,10,0.000000,27.898201,1.059605,99,99,0,0,0,0,0
1,19999,64,10000,17,0,40,9999,0.100000,99,0,0.000000,8,0.000000,24.430713,1.034237,99,99,0,0,0,0,0
1,19999,65,10000,0,0,41,9999,0.100000,99,0,0.000000,8,2.000000,18.552508,13.380683,99,99,0,0,0,0,0
1,19999,66,10000,17,0,40,9999,0.100000,99,0,0.000000,6,0.000000,27.285283,4.428242,99,99,0,0,0,0,0
1,19999,67,10000,93,0,40,9999,0.100000,99,0,0.000000,10,3.000000,30.887979,15.102802,99,99,0,0,0,0,0
1,19999,68,10000,75,0,40,9999,0.100000,99,0,0.000000,9,2.000000,24.900566,12.379290,99,99,0,0,0,0,0
1,19999,69,10000,14,0,40,9999,0.100000,99,0,0.000000,3,3.000000,28.969997,11.263246,99,99,0,0,0,0,0
1,19999,70,10000,75,0,40,9999,0.100000,99,0,0.000000,10,0.000000,36.251062,7.947986,99,99,0,0,0,0,0
1,19999,71,10000,86,0,40,9999,0.100000,99,0,0.000000,9,1.000000,28.601513,2.783213,99,99,0,0,0,0,0
1,19999,72,10000,97,0,40,9999,0.100000,99,0,0.000000,10,1.000000,18.712566,10.884399,99,99,0,0,0,0,0
1,19999,73,10000,86,0,0,9999,0.100000,99,0,0.166718,7,0.000000,25.162369,0.156518,99,99,0,1,0,0,0
1,19999,74,10000,75,0,42,9999,0.100000,99,0,0.000000,10,5.000000,16.852045,15.581056,99,99,0,0,0,0,0
1,19999,75,10000,75,0,41,9999,0.100000,99,0,0.000000,8,3.000000,18.270038,7.282457,99,99,0,0,0,0,0
1,19999,76,10000,93,0,40,9999,0.100000,99,0,0.000000,10,1.000000,23.173890,7.263013,99,99,0,0,0,0,0
1,19999,77,10000,75,0,40,9999,0.100000,99,0,0.000000,10,0.000000,11.815318,0.694072,99,99,0,0,0,0,0
1,19999,78,10000,91,0,40,9999,0.100000,99,0,0.000000,9,1.000000,16.998476,9.942813,99,99,0,0,0,0,0
1,19999,79,10000,75,0,40,9999,0.100000,99,0,0.000000,10,0.000000,33.363750,1.211517,99,99,0,0,0,0,0
1,19999,80,10000,53,0,40,9999,0.100000,99,0,0.000000,9,0.000000,27.646439,1.216748,99,99,0,0,0,0,0
1,19999,81,10000,38,0,40,9999,0.100000,99,0,0.000000,5,0.000000,25.928675,9.484312,99,99,0,0,0,0,0
1,19999,82,10000,0,0,41,9999,0.100000,99,0,0.000000,7,4.000000,30.239259,14.132483,99,99,0,0,0,0,0
1,19999,83,10000,1,0,40,9999,0.100000,99,0,0.000000,8,0.000000,28.620673,6.721837,99,99,0,0,0,0,0
1,19999,84,10000,55,0,91,9999,0.100000,99,0,23.659863,8,4.000000,31.084295,17.110726,99,99,1,0,0,0,0
1,19999,85,10000,75,0,41,9999,0.100000,99,0,0.000000,9,4.000000,27.778419,13.752727,99,99,0,0,0,0,0
1,19999,86,10000,14,0,40,9999,0.100000,99,0,0.000000,6,1.000000,29.663536,9.184274,99,99,0,0,0,0,0
1,19999,87,10000,1,0,40,9999,0.100000,99,0,0.000000,9,2.000000,34.117899,8.502999,99,99,0,0,0,0,0
1,19999,88,10000,75,0,43,9999,0.100000,99,0,0.000000,9,9.000000,23.784665,14.157419,99,99,0,0,0,0,0
1,19999,89,10000,93,0,41,9999,0.100000,99,0,0.000000,10,4.000000,23.770004,8.078910,99,99,0,0,0,0,0
1,19999,90,10000,38,0,40,9999,0.100000,99,0,0.000000,7,1.000000,36.117996,13.983083,99,99,0,0,0,0,0
1,19999,91,10000,12,0,40,9999,0.100000,99,0,0.000000,8,0.000000,33.303849,0.268285,99,99,0,0,0,0,0
1,19999,92,10000,17,0,40,9999,0.100000,99,0,0.000000,6,2.000000,32.000452,9.226309,99,99,0,0,0,0,0
1,19999,93,10000,12,0,42,9999,0.100000,99,0,0.000000,10,4.000000,16.065461,15.254103,99,99,0,0,0,0,0
1,19999,94,10000,12,0,43,9999,0.100000,99,0,0.000000,8,5.000000,14.645095,23.332803,99,99,0,0,0,0,0
1,19999,95,10000,40,0,90,9999,0.100000,99,0,21.704657,10,2.000000,28.520596,11.892402,99,99,1,0,0,0,0
1,19999,96,10000,14,0,40,9999,0.100000,99,0,0.000000,7,1.000000,27.407938,6.284081,99,99,0,0,0,0,0
1,19999,97,10000,93,0,40,9999,0.100000,99,0,0.000000,10,3.000000,30.529474,12.213560,99,99,0,0,0,0,0
1,19999,98,10000,91,0,40,9999,0.100000,99,0,0.000000,8,0.000000,19.874915,0.213709,99,99,0,0,0,0,0
1,19999,99,10000,17,0,40,9999,0.100000,99,0,0.000000,6,2.000000,28.240431,13.019651,99,99,0,0,0,0,0
2,29999,0,20000,91,0,0,9999,0.100000,99,0,0.053804,10,1.000000,15.956875,7.393347,99,99,0,0,1,0,0
2,29999,1,20000,58,0,2,9999,0.100000,99,0,25.769015,10,5.000000,22.711710,6.279186,99,99,0,0,1,0,0
2,29999,2,20000,93,0,43,9999,0.100000,99,0,0.000000,10,8.000000,21.206610,17.826001,99,99,0,0,0,0,0
2,29999,3,20000,40,0,40,9999,0.100000,99,0,0.000000,10,0.000000,24.301819,1.003065,99,99,0,0,0,0,0
2,29999,4,20000,93,0,40,9999,0.100000,99,0,0.000000,10,0.000000,19.789370,14.326675,99,99,0,0,0,0,0
2,29999,5,20000,34,0,40,9999,0.100000,99,0,0.000000,12,0.000000,29.920294,7.557870,99,99,0,0,0,0,0
2,29999,6,20000,12,0,0,9999,0.100000,99,0,0.481356,12,0.000000,28.070245,0.318792,99,99,0,0,0,0,1
2,29999,7,20000,34,0,40,9999,0.100000,99,0,0.000000,12,0.000000,24.045638,1.183832,99,99,0,0,0,0,0
2,29999,8,20000,12,0,0,9999,0.100000,99,0,0.321021,10,0.000000,14.508734,0.217868,99,99,0,0,0,1,0
2,29999,9,20000,40,0,0,9999,0.100000,99,0,0.373109,12,0.000000,19.301167,0.148075,99,99,0,0,0,0,1
2,29999,10,20000,75,0,40,9999,0.100000,99,0,0.000000,10,0.000000,27.553067,2.039676,99,99,0,0,0,0,0
2,29999,11,20000,58,0,40,9999,0.100000,99,0,0.000000,10,3.000000,29.042150,13.515244,99,99,0,0,0,0,0
2,29999,12,20000,12,0,0,9999,0.100000,99,0,0.338173,12,0.000000,32.893894,0.771709,99,99,0,0,0,1,0
2,29999,13,20000,95,10000,0,9999,0.100000,99,0,0.000000,12,1.000000,34.232502,6.849473,99,99,0,1,0,0,0
2,29999,14,20000,58,0,0,9999,0.100000,99,0,0.421013,10,0.000000,26.111696,0.328562,99,99,0,0,1,0,0
2,29999,15,20000,53,0,0,9999,0.100000,99,0,1.960007,10,0.000000,28.725318,5.444496,99,99,0,0,0,1,0
2,29999,16,20000,91,0,40,9999,0.100000,99,0,0.000000,12,0.000000,25.779494,10.806895,99,99,0,0,0,0,0
2,29999,17,20000,53,0,41,9999,0.100000,99,0,0.000000,10,4.000000,27.155109,7.752622,99,99,0,0,0,0,0
2,29999,18,20000,13,10000,40,9999,0.100000,99,0,0.000000,12,0.000000,29.020592,9.312862,99,99,0,0,0,0,0
2,29999,19,20000,0,0,90,9999,0.100000,99,0,7.390262,10,1.000000,34.865575,3.574112,99,99,1,0,0,0,0
2,29999,20,20000,53,0,1,9999,0.100000,99,0,0.136933,10,3.000000,27.809210,4.739922,99,99,0,0,0,0,1
2,29999,21,20000,0,0,40,9999,0.100000,99,0,0.000000,12,0.000000,27.976819,1.221224,99,99,0,0,0,0,0
2,29999,22,20000,53,0,40,9999,0.100000,99,0,0.000000,10,2.000000,27.665742,20.989601,99,99,0,0,0,0,0
2,29999,23,20000,0,0,40,9999,0.100000,99,0,0.000000,11,0.000000,22.765237,14.694572,99,99,0,0,0,0,0
2,29999,24,20000,93,0,40,9999,0.100000,99,0,0.000000,12,0.000000,28.752253,7.201391,99,99,0,0,0,0,0
2,29999,25,20000,91,0,0,9999,0.100000,99,0,1.293318,10,0.000000,19.903506,3.287376,99,99,0,0,1,0,0
2,29999,26,20000,12,0,0,9999,0.100000,99,0,0.952084,12,0.000000,23.439599,0.387779,99,99,0,0,0,1,0
2,29999,27,20000,34,0,40,9999,0.100000,99,0,0.000000,12,2.000000,27.060774,10.867410,99,99,0,0,0,0,0
2,29999,28,20000,34,0,40,9999,0.100000,99,0,0.000000,10,0.000000,28.903988,0.614920,99,99,0,0,0,0,0
2,29999,29,20000,0,0,41,9999,0.100000,99,0,0.000000,12,4.000000,22.842237,5.568856,99,99,0,0,0,0,0
2,29999,30,20000,91,0,0,9999,0.100000,99,0,0.204575,10,0.000000,27.906033,0.448142,99,99,0,0,0,0,1
2,29999,31,20000,12,0,41,9999,0.100000,99,0,0.000000,10,4.000000,28.192246,17.265236,99,99,0,0,0,0,0
2,29999,32,20000,0,0,40,9999,0.100000,99,0,0.000000,11,1.000000,19.443158,13.027330,99,99,0,0,0,0,0
2,29999,33,20000,53,0,40,9999,0.100000,99,0,0.000000,10,0.000000,25.279437,1.019841,99,99,0,0,0,0,0
2,29999,34,20000,12,0,40,9999,0.100000,99,0,0.000000,10,2.000000,32.433570,4.334780,99,99,0,0,0,0,0
2,29999,35,20000,75,0,40,9999,0.100000,99,0,0.000000,12,0.000000,25.858367,0.263179,99,99,0,0,0,0,0
2,29999,36,20000,97,0,40,9999,0.100000,99,0,0.000000,12,2.000000,30.655605,5.058502,99,99,0,0,0,0,0
2,29999,37,20000,34,0,40,9999,0.100000,99,0,0.000000,10,0.000000,21.445097,0.928212,99,99,0,0,0,0,0
2,29999,38,20000,53,0,40,9999,0.100000,99,0,0.000000,10,0.000000,19.072044,0.133870,99,99,0,0,0,0,0
2,29999,39,20000,97,0,40,9999,0.100000,99,0,0.000000,10,2.000000,25.674160,10.574107,99,99,0,0,0,0,0
2,29999,40,20000,12,0,40,9999,0.100000,99,0,0.000000,10,1.000000,32.172665,10.563068,99,99,0,0,0,0,0
2,29999,41,20000,91,0,40,9999,0.100000,99,0,0.000000,11,0.000000,23.193982,4.946623,99,99,0,0,0,0,0
2,29999,42,20000,40,0,40,9999,0.100000,99,0,0.000000,12,0.000000,14.782668,0.538690,99,99,0,0,0,0,0
2,29999,43,20000,0,0,40,9999,0.100000,99,0,0.000000,10,0.000000,20.028718,1.168191,99,99,0,0,0,0,0
2,29999,44,20000,53,10000,41,9999,0.100000,99,0,0.000000,12,3.000000,27.734906,8.342753,99,99,0,0,0,0,0
2,29999,45,20000,26,10000,42,9999,0.100000,99,0,0.000000,12,8.000000,27.931258,10.138978,99,99,0,0,0,0,0
2,29999,46,20000,12,0,41,9999,0.100000,99,0,0.000000,12,5.000000,27.928447,15.319087,99,99,0,0,0,0,0
2,29999,47,20000,97,0,40,9999,0.100000,99,0,0.000000,10,1.000000,26.082818,11.260303,99,99,0,0,0,0,0
2,29999,48,20000,34,0,40,9999,0.100000,99,0,0.000000,12,0.000000,18.753473,0.365977,99,99,0,0,0,0,0
2,29999,49,20000,93,0,40,9999,0.100000,99,0,0.000000,10,1.000000,21.059368,1.288270,99,99,0,0,0,0,0
2,29999,50,20000,75,0,40,9999,0.100000,99,0,0.000000,11,0.000000,16.743084,0.376587,99,99,0,0,0,0,0
2,29999,51,20000,93,0,41,9999,0.100000,99,0,0.000000,12,4.000000,22.970181,5.228775,99,99,0,0,0,0,0
2,29999,52,20000,12,0,42,9999,0.100000,99,0,0.000000,10,6.000000,28.152582,12.933908,99,99,0,0,0,0,0
2,29999,53,20000,91,0,0,9999,0.100000,99,0,6.301291,12,1.000000,21.033752,1.286209,99,99,0,1,0,0,0
2,29999,54,20000,53,0,0,9999,0.100000,99,0,0.004605,10,0.000000,12.138777,0.101918,99,99,0,0,0,1,0
2,29999,55,20000,97,0,40,9999,0.100000,99,0,0.000000,11,1.000000,27.926375,2.657871,99,99,0,0,0,0,0
2,29999,56,20000,97,0,40,9999,0.100000,99,0,0.000000,10,2.000000,31.836506,4.154719,99,99,0,0,0,0,0
2,29999,57,20000,53,10000,40,9999,0.100000,99,0,0.000000,12,1.000000,33.002479,12.974165,99,99,0,0,0,0,0
2,29999,58,20000,40,0,40,9999,0.100000,99,0,0.000000,12,0.000000,27.839260,0.901286,99,99,0,0,0,0,0
2,29999,59,20000,40,0,40,9999,0.100000,99,0,0.000000,12,0.000000,22.321150,2.925886,99,99,0,0,0,0,0
2,29999,60,20000,97,0,41,9999,0.100000,99,0,0.000000,10,4.000000,27.041166,7.630492,99,99,0,0,0,0,0
2,29999,61,20000,53,10000,40,9999,0.100000,99,0,0.000000,12,2.000000,25.321765,7.634425,99,99,0,0,0,0,0
2,29999,62,20000,53,0,40,9999,0.100000,99,0,0.000000,11,0.000000,25.955246,0.990990,99,99,0,0,0,0,0
2,29999,63,20000,53,0,40,9999,0.100000,99,0,0.000000,11,0.000000,27.847551,0.717089,99,99,0,0,0,0,0
2,29999,64,20000,0,0,40,9999,0.100000,99,0,0.000000,10,0.000000,23.646672,1.002041,99,99,0,0,0,0,0
2,29999,65,20000,40,0,40,9999,0.100000,99,0,0.000000,11,1.000000,20.085371,7.951869,99,99,0,0,0,0,0
2,29999,66,20000,26,10000,40,9999,0.100000,99,0,0.000000,12,1.000000,27.186991,11.867290,99,99,0,0,0,0,0
2,29999,67,20000,95,10000,40,9999,0.100000,99,0,0.000000,12,2.000000,34.046793,13.212465,99,99,0,0,0,0,0
2,29999,68,20000,91,0,40,9999,0.100000,99,0,0.000000,10,1.000000,25.782241,15.679219,99,99,0,0,0,0,0
2,29999,69,20000,12,0,40,9999,0.100000,99,0,0.000000,10,1.000000,25.804553,8.993281,99,99,0,0,0,0,0
2,29999,70,20000,75,0,41,9999,0.100000,99,0,0.000000,12,5.000000,36.456167,9.569229,99,99,0,0,0,0,0
2,29999,71,20000,91,0,40,9999,0.100000,99,0,0.000000,12,0.000000,28.563231,2.302950,99,99,0,0,0,0,0
2,29999,72,20000,97,0,40,9999,0.100000,99,0,0.000000,12,1.000000,19.075281,11.203108,99,99,0,0,0,0,0
2,29999,73,20000,32,10000,0,9999,0.100000,99,0,0.180095,11,0.000000,25.174565,0.161449,99,99,0,1,0,0,0
2,29999,74,20000,53,0,40,9999,0.100000,99,0,0.000000,10,0.000000,18.612693,6.819233,99,99,0,0,0,0,0
2,29999,75,20000,0,0,40,9999,0.100000,99,0,0.000000,10,1.000000,21.296768,10.888310,99,99,0,0,0,0,0
2,29999,76,20000,53,0,40,9999,0.100000,99,0,0.000000,10,1.000000,22.198979,5.555306,99,99,0,0,0,0,0
2,29999,77,20000,91,0,40,9999,0.100000,99,0,0.000000,10,0.000000,11.653719,0.715502,99,99,0,0,0,0,0
2,29999,78,20000,34,0,41,9999,0.100000,99,0,0.000000,12,3.000000,17.687269,5.045113,99,99,0,0,0,0,0
2,29999,79,20000,97,0,40,9999,0.100000,99,0,0.000000,12,0.000000,33.119226,15.357342,99,99,0,0,0,0,0
2,29999,80,20000,12,0,40,9999,0.100000,99,0,0.000000,10,0.000000,26.711531,1.018248,99,99,0,0,0,0,0
2,29999,81,20000,0,0,41,9999,0.100000,99,0,0.000000,12,5.000000,25.174588,12.813131,99,99,0,0,0,0,0
2,29999,82,20000,75,0,90,9999,0.100000,99,0,15.899678,12,1.000000,30.881227,16.307161,99,99,1,0,0,0,0
2,29999,83,20000,53,0,40,9999,0.100000,99,0,0.000000,11,3.000000,29.178842,11.189599,99,99,0,0,0,0,0
2,29999,84,20000,0,0,40,9999,0.100000,99,0,0.000000,10,2.000000,35.528114,14.540764,99,99,0,0,0,0,0
2,29999,85,20000,34,0,40,9999,0.100000,99,0,0.000000,10,0.000000,23.061853,1.335502,99,99,0,0,0,0,0
2,29999,86,20000,53,0,40,9999,0.100000,99,0,0.000000,10,0.000000,28.747106,0.518138,99,99,0,0,0,0,0
2,29999,87,20000,53,10000,40,9999,0.100000,99,0,0.000000,12,1.000000,34.834914,9.605746,99,99,0,0,0,0,0
2,29999,88,20000,32,10000,40,9999,0.100000,99,0,0.000000,12,1.000000,33.266185,4.654138,99,99,0,0,0,0,0
2,29999,89,20000,95,10000,0,9999,0.100000,99,0,0.003766,12,0.000000,19.431300,0.791038,99,99,0,0,1,0,0
2,29999,90,20000,91,0,41,9999,0.100000,99,0,0.000000,10,5.000000,35.515010,12.258432,99,99,0,0,0,0,0
2,29999,91,20000,91,0,40,9999,0.100000,99,0,0.000000,12,0.000000,33.108083,0.844353,99,99,0,0,0,0,0
2,29999,92,20000,53,10000,40,9999,0.100000,99,0,0.000000,12,3.000000,32.235007,9.915672,99,99,0,0,0,0,0
2,29999,93,20000,0,0,40,9999,0.100000,99,0,0.000000,10,1.000000,19.332703,10.701076,99,99,0,0,0,0,0
2,29999,94,20000,34,0,40,9999,0.100000,99,0,0.000000,10,0.000000,19.539020,9.650008,99,99,0,0,0,0,0
2,29999,95,20000,0,0,41,9999,0.100000,99,0,0.000000,11,4.000000,28.069920,9.350281,99,99,0,0,0,0,0
2,29999,96,20000,97,0,40,9999,0.100000,99,0,0.000000,12,1.000000,25.962821,12.955411,99,99,0,0,0,0,0
2,29999,97,20000,93,0,40,9999,0.100000,99,0,0.000000,10,1.000000,32.593238,6.984533,99,99,0,0,0,0,0
2,29999,98,20000,0,0,40,9999,0.100000,99,0,0.000000,11,0.000000,19.815866,0.089716,99,99,0,0,0,0,0
2,29999,99,20000,91,0,41,9999,0.100000,99,0,0.000000,11,3.000000,27.646514,9.189391,99,99,0,0,0,0,0
3,39999,0,30000,75,0,0,9999,0.100000,99,0,0.116057,12,0.000000,17.084424,0.182167,99,99,0,0,1,0,0
3,39999,1,30000,95,10000,0,9999,0.100000,99,0,1.388632,12,0.000000,27.287248,0.843222,99,99,0,0,1,0,0
3,39999,2,30000,53,10000,40,9999,0.100000,99,0,0.000000,12,1.000000,28.200637,6.042569,99,99,0,0,0,0,0
3,39999,3,30000,12,0,40,9999,0.100000,99,0,0.000000,12,0.000000,23.538922,1.010863,99,99,0,0,0,0,0
3,39999,4,30000,13,10000,40,9999,0.100000,99,0,0.000000,12,2.000000,19.699392,12.077088,99,99,0,0,0,0,0
3,39999,5,30000,12,0,41,9999,0.100000,99,0,0.000000,12,4.000000,30.056600,13.032083,99,99,0,0,0,0,0
3,39999,6,30000,53,10000,0,9999,0.100000,99,0,0.420431,12,0.000000,28.178272,0.224505,99,99,0,0,0,0,1
3,39999,7,30000,97,0,40,9999,0.100000,99,0,0.000000,12,0.000000,23.907707,0.894329,99,99,0,0,0,0,0
3,39999,8,30000,40,0,0,9999,0.100000,99,0,0.021890,12,0.000000,14.424410,0.126416,99,99,0,0,0,1,0
3,39999,9,30000,0,0,0,9999,0.100000,99,0,0.698640,12,0.000000,19.292334,0.222291,99,99,0,0,0,0,1
3,39999,10,30000,93,0,40,9999,0.100000,99,0,0.000000,12,0.000000,27.934286,2.798621,99,99,0,0,0,0,0
3,39999,11,30000,91,0,41,9999,0.100000,99,0,0.000000,12,3.000000,26.561718,11.233900,99,99,0,0,0,0,0
3,39999,12,30000,53,10000,0,9999,0.100000,99,0,1.676092,12,1.000000,32.518849,1.167143,99,99,0,0,0,1,0
3,39999,13,30000,97,0,40,9999,0.100000,99,0,0.000000,12,0.000000,35.501148,3.534493,99,99,0,0,0,0,0
3,39999,14,30000,53,10000,0,9999,0.100000,99,0,0.130370,12,0.000000,26.032509,0.253487,99,99,0,0,1,0,0
3,39999,15,30000,97,0,0,9999,0.100000,99,0,2.817419,12,0.000000,28.501358,0.620465,99,99,0,0,0,1,0
3,39999,16,30000,40,0,40,9999,0.100000,99,0,0.000000,12,0.000000,25.738370,5.541227,99,99,0,0,0,0,0
3,39999,17,30000,32,10000,40,9999,0.100000,99,0,0.000000,12,0.000000,29.787619,1.005956,99,99,0,0,0,0,0
3,39999,18,30000,0,0,40,9999,0.100000,99,0,0.000000,12,0.000000,28.633505,2.641276,99,99,0,0,0,0,0
3,39999,19,30000,40,0,40,9999,0.100000,99,0,0.000000,12,0.000000,35.650202,7.414575,99,99,0,0,0,0,0
3,39999,20,30000,12,0,0,9999,0.100000,99,0,0.248616,12,0.000000,24.156330,0.170787,99,99,0,0,0,0,1
3,39999,21,30000,0,0,40,9999,0.100000,99,0,0.000000,12,0.000000,27.848871,1.377743,99,99,0,0,0,0,0
3,39999,22,30000,75,0,40,9999,0.100000,99,0,0.000000,12,1.000000,29.006975,5.487715,99,99,0,0,0,0,0
3,39999,23,30000,12,0,40,9999,0.100000,99,0,0.000000,12,0.000000,22.461606,5.718758,99,99,0,0,0,0,0
3,39999,24,30000,97,0,40,9999,0.100000,99,0,0.000000,12,2.000000,29.172852,9.247360,99,99,0,0,0,0,0
3,39999,25,30000,34,0,0,9999,0.100000,99,0,3.969888,12,0.000000,20.712031,1.077044,99,99,0,0,1,0,0
3,39999,26,30000,32,10000,0,9999,0.100000,99,0,0.847385,12,0.000000,23.574086,0.433298,99,99,0,0,0,1,0
3,39999,27,30000,12,0,40,9999,0.100000,99,0,0.000000,12,3.000000,29.765891,10.627233,99,99,0,0,0,0,0
3,39999,28,30000,32,10000,40,9999,0.100000,99,0,0.000000,12,0.000000,28.498792,0.630276,99,99,0,0,0,0,0
3,39999,29,30000,97,0,40,9999,0.100000,99,0,0.000000,12,0.000000,27.140676,0.967058,99,99,0,0,0,0,0
3,39999,30,30000,0,0,0,9999,0.100000,99,0,0.006128,12,0.000000,27.756720,1.061461,99,99,0,0,0,0,1
3,39999,31,30000,12,0,40,9999,0.100000,99,0,0.000000,12,1.000000,25.487221,12.374755,99,99,0,0,0,0,0
3,39999,32,30000,32,10000,41,9999,0.100000,99,0,0.000000,12,2.000000,17.841129,6.286744,99,99,0,0,0,0,0
3,39999,33,30000,97,0,40,9999,0.100000,99,0,0.000000,12,0.000000,24.489257,0.996629,99,99,0,0,0,0,0
3,39999,34,30000,40,0,40,9999,0.100000,99,0,0.000000,12,0.000000,33.356092,0.889309,99,99,0,0,0,0,0
3,39999,35,30000,32,10000,40,9999,0.100000,99,0,0.000000,12,0.000000,25.790518,0.196934,99,99,0,0,0,0,0
3,39999,36,30000,1,20000,40,9999,0.100000,99,0,0.000000,12,2.000000,33.561354,9.537338,99,99,0,0,0,0,0
3,39999,37,30000,91,0,40,9999,0.100000,99,0,0.000000,12,0.000000,20.747415,0.930596,99,99,0,0,0,0,0
3,39999,38,30000,53,10000,40,9999,0.100000,99,0,0.000000,12,0.000000,19.057290,0.205585,99,99,0,0,0,0,0
3,39999,39,30000,40,0,40,9999,0.100000,99,0,0.000000,12,1.000000,26.666816,5.493121,99,99,0,0,0,0,0
3,39999,40,30000,97,0,40,9999,0.100000,99,0,0.000000,12,2.000000,33.085633,10.541091,99,99,0,0,0,0,0
3,39999,41,30000,12,0,40,9999,0.100000,99,0,0.000000,12,0.000000,23.260140,4.244636,99,99,0,0,0,0,0
3,39999,42,30000,32,10000,40,9999,0.100000,99,0,0.000000,12,0.000000,14.616580,0.138293,99,99,0,0,0,0,0
3,39999,43,30000,91,0,40,9999,0.100000,99,0,0.000000,12,0.000000,20.452545,1.031762,99,99,0,0,0,0,0
3,39999,44,30000,0,0,41,9999,0.100000,99,0,0.000000,12,5.000000,30.704870,9.964081,99,99,0,0,0,0,0
3,39999,45,30000,91,0,40,9999,0.100000,99,0,0.000000,12,0.000000,23.448316,0.958727,99,99,0,0,0,0,0
3,39999,46,30000,93,0,40,9999,0.100000,99,0,0.000000,12,1.000000,25.995920,8.327478,99,99,0,0,0,0,0
3,39999,47,30000,75,0,40,9999,0.100000,99,0,0.000000,12,1.000000,25.815030,9.852053,99,99,0,0,0,0,0
3,39999,48,30000,40,0,40,9999,0.100000,99,0,0.000000,12,0.000000,18.730178,0.390854,99,99,0,0,0,0,0
3,39999,49,30000,12,0,40,9999,0.100000,99,0,0.000000,12,0.000000,20.543883,0.772860,99,99,0,0,0,0,0
3,39999,50,30000,12,0,40,9999,0.100000,99,0,0.000000,12,0.000000,16.845255,0.158241,99,99,0,0,0,0,0
3,39999,51,30000,93,0,40,9999,0.100000,99,0,0.000000,12,0.000000,26.962675,0.390587,99,99,0,0,0,0,0
3,39999,52,30000,95,10000,40,9999,0.100000,99,0,0.000000,12,0.000000,31.772008,0.139838,99,99,0,0,0,0,0
3,39999,53,30000,1,20000,0,9999,0.100000,99,0,2.423873,12,0.000000,20.532053,0.760973,99,99,0,1,0,0,0
3,39999,54,30000,53,10000,0,9999,0.100000,99,0,0.003851,12,0.000000,12.137923,0.100460,99,99,0,0,0,1,0
3,39999,55,30000,12,0,40,9999,0.100000,99,0,0.000000,12,0.000000,27.232995,1.019044,99,99,0,0,0,0,0
3,39999,56,30000,75,0,41,9999,0.100000,99,0,0.000000,12,4.000000,33.802090,18.942823,99,99,0,0,0,0,0
3,39999,57,30000,53,10000,40,9999,0.100000,99,0,0.000000,12,0.000000,32.802842,19.134333,99,99,0,0,0,0,0
3,39999,58,30000,13,10000,40,9999,0.100000,99,0,0.000000,12,0.000000,28.070828,0.213047,99,99,0,0,0,0,0
3,39999,59,30000,34,0,40,9999,0.100000,99,0,0.000000,12,0.000000,21.472823,3.963163,99,99,0,0,0,0,0
3,39999,60,30000,91,0,40,9999,0.100000,99,0,0.000000,12,0.000000,29.713948,0.775857,99,99,0,0,0,0,0
3,39999,61,30000,53,10000,40,9999,0.100000,99,0,0.000000,12,0.000000,23.522725,0.331821,99,99,0,0,0,0,0
3,39999,62,30000,75,0,40,9999,0.100000,99,0,0.000000,12,0.000000,25.206365,0.994131,99,99,0,0,0,0,0
3,39999,63,30000,32,10000,40,9999,0.100000,99,0,0.000000,12,0.000000,27.711478,0.948615,99,99,0,0,0,0,0
3,39999,64,30000,0,0,40,9999,0.100000,99,0,0.000000,12,0.000000,22.891045,1.018949,99,99,0,0,0,0,0
3,39999,65,30000,12,0,40,9999,0.100000,99,0,0.000000,12,1.000000,21.896125,5.842719,99,99,0,0,0,0,0
3,39999,66,30000,0,0,40,9999,0.100000,99,0,0.000000,12,1.000000,26.540194,10.277197,99,99,0,0,0,0,0
3,39999,67,30000,13,10000,40,9999,0.100000,99,0,0.000000,12,1.000000,32.431213,1.506612,99,99,0,0,0,0,0
3,39999,68,30000,97,0,40,9999,0.100000,99,0,0.000000,12,2.000000,25.400329,6.615510,99,99,0,0,0,0,0
3,39999,69,30000,97,0,40,9999,0.100000,99,0,0.000000,12,0.000000,25.583808,10.737290,99,99,0,0,0,0,0
3,39999,70,30000,0,0,40,9999,0.100000,99,0,0.000000,12,1.000000,32.335626,1.211578,99,99,0,0,0,0,0
3,39999,71,30000,12,0,40,9999,0.100000,99,0,0.000000,12,0.000000,28.466894,0.853497,99,99,0,0,0,0,0
3,39999,72,30000,34,0,40,9999,0.100000,99,0,0.000000,12,1.000000,19.691601,6.932499,99,99,0,0,0,0,0
3,39999,73,30000,0,0,0,9999,0.100000,99,0,0.221047,12,0.000000,25.189806,0.160329,99,99,0,1,0,0,0
3,39999,74,30000,93,0,42,9999,0.100000,99,0,0.000000,12,4.000000,18.509734,14.287639,99,99,0,0,0,0,0
3,39999,75,30000,32,10000,40,9999,0.100000,99,0,0.000000,12,0.000000,21.926860,6.728648,99,99,0,0,0,0,0
3,39999,76,30000,1,20000,40,9999,0.100000,99,0,0.000000,12,1.000000,21.022449,1.186006,99,99,0,0,0,0,0
3,39999,77,30000,53,10000,40,9999,0.100000,99,0,0.000000,12,0.000000,11.484253,0.737969,99,99,0,0,0,0,0
3,39999,78,30000,32,10000,40,9999,0.100000,99,0,0.000000,12,0.000000,14.610457,0.988814,99,99,0,0,0,0,0
3,39999,79,30000,13,10000,40,9999,0.100000,99,0,0.000000,12,1.000000,32.728766,15.880749,99,99,0,0,0,0,0
3,39999,80,30000,12,0,40,9999,0.065000,99,0,0.000000,12,0.000000,25.928644,1.051932,99,99,0,0,0,0,0
3,39999,81,30000,12,0,40,9999,0.100000,99,0,0.000000,12,2.000000,20.207542,12.729920,99,99,0,0,0,0,0
3,39999,82,30000,0,0,40,9999,0.100000,99,0,0.000000,12,2.000000,29.629796,5.542206,99,99,0,0,0,0,0
3,39999,83,30000,12,0,40,9999,0.100000,99,0,0.000000,12,0.000000,27.002657,8.755258,99,99,0,0,0,0,0
3,39999,84,30000,34,0,90,9999,0.100000,99,0,4.559470,12,2.000000,33.923164,13.874031,99,99,1,0,0,0,0
3,39999,85,30000,12,0,40,9999,0.100000,99,0,0.000000,12,0.000000,23.406437,0.784005,99,99,0,0,0,0,0
3,39999,86,30000,93,0,40,9999,0.100000,99,0,0.000000,12,0.000000,28.998732,0.678428,99,99,0,0,0,0,0
3,39999,87,30000,93,0,41,9999,0.100000,99,0,0.000000,12,4.000000,35.018356,13.599110,99,99,0,0,0,0,0
3,39999,88,30000,32,10000,40,9999,0.100000,99,0,0.000000,12,2.000000,33.161631,13.968005,99,99,-1,0,0,0,0
3,39999,89,30000,53,10000,0,9999,0.100000,99,0,0.006475,12,0.000000,19.149793,0.192511,99,99,0,0,1,0,0
3,39999,90,30000,32,10000,40,9999,0.100000,99,0,0.000000,12,0.000000,29.685197,5.199364,99,99,0,0,0,0,0
3,39999,91,30000,40,0,40,9999,0.100000,99,0,0.000000,12,1.000000,32.722734,1.297901,99,99,0,0,0,0,0
3,39999,92,30000,93,0,90,9999,0.100000,99,0,6.581059,12,1.000000,35.750394,13.588147,99,99,1,0,0,0,0
3,39999,93,30000,1,20000,40,9999,0.100000,99,0,0.000000,12,1.000000,21.267645,14.441804,99,99,0,0,0,0,0
3,39999,94,30000,95,10000,40,9999,0.100000,99,0,0.000000,12,0.000000,19.541832,6.003332,99,99,0,0,0,0,0
3,39999,95,30000,40,0,40,9999,0.100000,99,0,0.000000,12,0.000000,23.670506,5.119561,99,99,0,0,0,0,0
3,39999,96,30000,12,0,40,9999,0.100000,99,0,0.000000,12,1.000000,26.208796,5.253559,99,99,0,0,0,0,0
3,39999,97,30000,1,20000,40,9999,0.100000,99,0,0.000000,12,2.000000,33.130527,4.255021,99,99,0,0,0,0,0
3,39999,98,30000,34,0,40,9999,0.100000,99,0,0.000000,12,0.000000,19.814275,0.198640,99,99,0,0,0,0,0
3,39999,99,30000,75,0,40,9999,0.100000,99,0,0.000000,12,1.000000,26.738153,12.246331,99,99,0,0,0,0,0
4,49999,0,40000,12,0,0,9999,0.100000,99,0,0.093631,12,0.000000,17.090802,0.185048,99,99,0,0,1,0,0
4,49999,1,40000,45,20000,0,9999,0.100000,99,0,1.695297,12,0.000000,27.024139,0.680145,99,99,0,0,1,0,0
4,49999,2,40000,40,0,40,9999,0.100000,99,0,0.000000,12,2.000000,28.080766,6.024517,99,99,0,0,0,0,0
4,49999,3,40000,1,20000,40,9999,0.100000,99,0,0.000000,12,0.000000,22.771538,0.990231,99,99,0,0,0,0,0
4,49999,4,40000,1,20000,40,9999,0.100000,99,0,0.000000,12,1.000000,18.094481,12.189874,99,99,0,0,0,0,0
4,49999,5,40000,40,0,40,9999,0.100000,99,0,0.000000,12,1.000000,25.949684,4.784289,99,99,0,0,0,0,0
4,49999,6,40000,40,0,0,9999,0.100000,99,0,0.350945,12,0.000000,28.246467,0.234945,99,99,0,0,0,0,1
4,49999,7,40000,40,0,40,9999,0.100000,99,0,0.000000,12,0.000000,23.754608,1.035763,99,99,0,0,0,0,0
4,49999,8,40000,75,0,0,9999,0.100000,99,0,0.003580,12,0.000000,14.422068,0.117069,99,99,0,0,0,1,0
4,49999,9,40000,40,0,0,9999,0.100000,99,0,0.613633,12,0.000000,19.289611,0.216959,99,99,0,0,0,0,1
4,49999,10,40000,93,0,40,9999,0.100000,99,0,0.000000,12,0.000000,27.932708,1.708599,99,99,0,0,0,0,0
4,49999,11,40000,75,0,40,9999,0.100000,99,0,0.000000,12,0.000000,27.111810,7.793548,99,99,0,0,0,0,0
4,49999,12,40000,12,0,0,9999,0.100000,99,0,4.685999,12,3.000000,32.064692,6.883390,99,99,0,0,0,1,0
4,49999,13,40000,12,0,40,9999,0.100000,99,0,0.000000,12,3.000000,35.237364,10.226557,99,99,0,0,0,0,0
4,49999,14,40000,40,0,0,9999,0.100000,99,0,0.133351,12,0.000000,25.972082,0.307941,99,99,0,0,1,0,0
4,49999,15,40000,12,0,0,9999,0.100000,99,0,1.631408,12,0.000000,28.088526,0.495301,99,99,0,0,0,1,0
4,49999,16,40000,12,0,40,9999,0.100000,99,0,0.000000,12,2.000000,25.052791,11.359104,99,99,0,0,0,0,0
4,49999,17,40000,53,10000,40,9999,0.100000,99,0,0.000000,12,0.000000,29.321100,1.016162,99,99,0,0,0,0,0
4,49999,18,40000,95,10000,40,9999,0.100000,99,0,0.000000,12,0.000000,28.166713,3.333305,99,99,0,0,0,0,0
4,49999,19,40000,40,0,40,9999,0.100000,99,0,0.000000,12,1.000000,35.524730,7.984776,99,99,0,0,0,0,0
4,49999,20,40000,97,0,0,9999,0.100000,99,0,0.305557,12,0.000000,24.047086,0.182770,99,99,0,0,0,0,1
4,49999,21,40000,34,0,40,9999,0.100000,99,0,0.000000,12,0.000000,27.705598,1.149607,99,99,0,0,0,0,0
4,49999,22,40000,0,0,40,9999,0.100000,99,0,0.000000,12,0.000000,27.909108,0.730027,99,99,0,0,0,0,0
4,49999,23,40000,97,0,40,9999,0.100000,99,0,0.000000,12,1.000000,23.077792,9.050961,99,99,0,0,0,0,0
4,49999,24,40000,93,0,40,9999,0.100000,99,0,0.000000,12,2.000000,30.844684,9.553965,99,99,0,0,0,0,0
4,49999,25,40000,45,20000,0,9999,0.100000,99,0,4.665227,12,1.000000,20.657973,1.156860,99,99,0,0,1,0,0
4,49999,26,40000,1,20000,0,9999,0.100000,99,0,2.169132,12,0.000000,23.658841,0.655886,99,99,0,0,0,1,0
4,49999,27,40000,34,0,41,9999,0.100000,99,0,0.000000,12,3.000000,26.368167,10.811296,99,99,0,0,0,0,0
4,49999,28,40000,40,0,40,9999,0.100000,99,0,0.000000,12,0.000000,27.994287,1.018757,99,99,0,0,0,0,0
4,49999,29,40000,40,0,40,9999,0.100000,99,0,0.000000,12,0.000000,26.957101,0.844790,99,99,0,0,0,0,0
4,49999,30,40000,75,0,0,9999,0.100000,99,0,0.551131,12,0.000000,27.589330,0.720559,99,99,0,0,0,0,1
4,49999,31,40000,97,0,40,9999,0.100000,99,0,0.000000,12,0.000000,25.943908,8.774273,99,99,0,0,0,0,0
4,49999,32,40000,95,10000,40,9999,0.100000,99,0,0.000000,12,1.000000,15.613492,8.590309,99,99,0,0,0,0,0
4,49999,33,40000,34,0,40,9999,0.100000,99,0,0.000000,12,0.000000,23.719876,1.018719,99,99,0,0,0,0,0
4,49999,34,40000,97,0,40,9999,0.100000,99,0,0.000000,12,0.000000,33.682096,0.912361,99,99,0,0,0,0,0
4,49999,35,40000,95,10000,40,9999,0.100000,99,0,0.000000,12,0.000000,25.740688,0.203996,99,99,0,0,0,0,0
4,49999,36,40000,53,10000,40,9999,0.100000,99,0,0.000000,12,3.000000,31.613698,8.521474,99,99,0,0,0,0,0
4,49999,37,40000,34,0,40,9999,0.100000,99,0,0.000000,12,2.000000,20.069104,12.850270,99,99,0,0,0,0,0
4,49999,38,40000,0,0,40,9999,0.100000,99,0,0.000000,12,0.000000,19.051947,0.230987,99,99,0,0,0,0,0
4,49999,39,40000,45,20000,40,9999,0.100000,99,0,0.000000,12,2.000000,24.895756,4.817048,99,99,0,0,0,0,0
4,49999,40,40000,91,0,42,9999,0.100000,99,0,0.000000,12,10.000000,31.737997,12.964860,99,99,0,0,0,0,0
4,49999,41,40000,45,20000,40,9999,0.100000,99,0,0.000000,12,0.000000,23.496660,3.585462,99,99,0,0,0,0,0
4,49999,42,40000,97,0,40,9999,0.100000,99,0,0.000000,12,0.000000,14.611852,0.094698,99,99,0,0,0,0,0
4,49999,43,40000,93,0,40,9999,0.100000,99,0,0.000000,12,1.000000,20.401978,1.141720,99,99,0,0,0,0,0
4,49999,44,40000,0,0,41,9999,0.100000,99,0,0.000000,12,4.000000,31.610744,7.096197,99,99,0,0,0,0,0
4,49999,45,40000,91,0,40,9999,0.100000,99,0,0.000000,12,0.000000,23.601653,1.872390,99,99,0,0,0,0,0
4,49999,46,40000,0,0,41,9999,0.100000,99,0,0.000000,12,5.000000,24.921721,9.870540,99,99,0,0,0,0,0
4,49999,47,40000,45,20000,40,9999,0.100000,99,0,0.000000,12,2.000000,25.799217,7.023506,99,99,0,0,0,0,0
4,49999,48,40000,91,0,40,9999,0.100000,99,0,0.000000,12,0.000000,18.723722,0.400605,99,99,0,0,0,0,0
4,49999,49,40000,12,0,40,9999,0.100000,99,0,0.000000,12,0.000000,20.232625,0.576663,99,99,0,0,0,0,0
4,49999,50,40000,45,20000,40,9999,0.100000,99,0,0.000000,12,0.000000,16.851143,0.151078,99,99,0,0,0,0,0
4,49999,51,40000,45,20000,40,9999,0.100000,99,0,0.000000,12,0.000000,26.894124,0.841286,99,99,0,0,0,0,0
4,49999,52,40000,91,0,40,9999,0.100000,99,0,0.000000,12,0.000000,31.771435,0.139315,99,99,0,0,0,0,0
4,49999,53,40000,91,0,0,9999,0.100000,99,0,0.046177,12,0.000000,20.218687,0.549126,99,99,0,1,0,0,0
4,49999,54,40000,40,0,0,9999,0.100000,99,0,0.003181,12,0.000000,12.137246,0.100820,99,99,0,0,0,1,0
4,49999,55,40000,93,0,40,9999,0.100000,99,0,0.000000,12,0.000000,26.460564,1.046236,99,99,0,0,0,0,0
4,49999,56,40000,12,0,40,9999,0.100000,99,0,0.000000,12,1.000000,29.976582,6.015257,99,99,0,0,0,0,0
4,49999,57,40000,1,20000,42,9999,0.100000,99,0,0.000000,12,10.000000,32.741523,24.204254,99,99,0,0,0,0,0
4,49999,58,40000,97,0,40,9999,0.100000,99,0,0.000000,12,0.000000,28.159702,0.360977,99,99,0,0,0,0,0
4,49999,59,40000,75,0,40,9999,0.100000,99,0,0.000000,12,1.000000,21.208135,7.950255,99,99,0,0,0,0,0
4,49999,60,40000,34,0,40,9999,0.100000,99,0,0.000000,12,0.000000,29.247916,0.782477,99,99,0,0,0,0,0
4,49999,61,40000,95,10000,40,9999,0.100000,99,0,0.000000,12,0.000000,23.639276,0.866555,99,99,0,0,0,0,0
4,49999,62,40000,91,0,40,9999,0.100000,99,0,0.000000,12,0.000000,24.439123,1.027393,99,99,0,0,0,0,0
4,49999,63,40000,95,10000,40,9999,0.100000,99,0,0.000000,12,0.000000,27.573668,0.695296,99,99,0,0,0,0,0
4,49999,64,40000,0,0,40,9999,0.100000,99,0,0.000000,12,0.000000,22.105174,0.978663,99,99,0,0,0,0,0
4,49999,65,40000,0,0,40,9999,0.100000,99,0,0.000000,12,0.000000,22.724827,8.784721,99,99,0,0,0,0,0
4,49999,66,40000,34,0,40,9999,0.100000,99,0,0.000000,12,0.000000,25.869092,3.398751,99,99,0,0,0,0,0
4,49999,67,40000,93,0,41,9999,0.100000,99,0,0.000000,12,4.000000,31.957483,6.208583,99,99,0,0,0,0,0
4,49999,68,40000,45,20000,40,9999,0.100000,99,0,0.000000,12,0.000000,27.343677,2.034837,99,99,0,0,0,0,0
4,49999,69,40000,95,10000,40,9999,0.100000,99,0,0.000000,12,0.000000,25.263760,2.742092,99,99,0,0,0,0,0
4,49999,70,40000,12,0,40,9999,0.100000,99,0,0.000000,12,2.000000,31.891663,5.859853,99,99,0,0,0,0,0
4,49999,71,40000,40,0,40,9999,0.100000,99,0,0.000000,12,0.000000,27.755502,0.774693,99,99,0,0,0,0,0
4,49999,72,40000,53,10000,41,9999,0.100000,99,0,0.000000,12,3.000000,18.406412,11.309081,99,99,0,0,0,0,0
4,49999,73,40000,0,0,0,9999,0.100000,99,0,0.195973,12,0.000000,25.205146,0.164774,99,99,0,1,0,0,0
4,49999,74,40000,0,0,40,9999,0.100000,99,0,0.000000,12,0.000000,17.913448,9.242890,99,99,0,0,0,0,0
4,49999,75,40000,53,10000,40,9999,0.100000,99,0,0.000000,12,2.000000,22.494220,7.329657,99,99,0,0,0,0,0
4,49999,76,40000,1,20000,40,9999,0.100000,99,0,0.000000,12,1.000000,20.967161,1.309293,99,99,0,0,0,0,0
4,49999,77,40000,12,0,40,9999,0.100000,99,0,0.000000,12,0.000000,11.313358,0.736893,99,99,0,0,0,0,0
4,49999,78,40000,53,10000,40,9999,0.100000,99,0,0.000000,12,0.000000,14.513309,0.101508,99,99,0,0,0,0,0
4,49999,79,40000,97,0,40,9999,0.100000,99,0,0.000000,12,1.000000,32.012680,6.715766,99,99,0,0,0,0,0
4,49999,80,40000,0,0,40,9999,0.100000,99,0,0.000000,12,0.000000,25.125968,0.990400,99,99,0,0,0,0,0
4,49999,81,40000,97,0,40,9999,0.100000,99,0,0.000000,12,1.000000,21.864210,9.990291,99,99,0,0,0,0,0
4,49999,82,40000,91,0,0,9999,0.100000,99,0,4.685999,12,3.000000,31.600195,5.536723,99,99,0,0,0,1,0
4,49999,83,40000,75,0,40,9999,0.100000,99,0,0.000000,12,1.000000,26.302956,8.589704,99,99,0,0,0,0,0
4,49999,84,40000,34,0,40,9999,0.100000,99,0,0.000000,12,1.000000,33.843039,7.595882,99,99,0,0,0,0,0
4,49999,85,40000,45,20000,40,9999,0.100000,99,0,0.000000,12,0.000000,23.631875,1.580019,99,99,0,0,0,0,0
4,49999,86,40000,0,0,40,9999,0.100000,99,0,0.000000,12,0.000000,29.223623,0.786253,99,99,0,0,0,0,0
4,49999,87,40000,93,0,40,9999,0.100000,99,0,0.000000,12,2.000000,32.729254,15.424337,99,99,0,0,0,0,0
4,49999,88,40000,97,0,40,9999,0.100000,99,0,0.000000,12,1.000000,32.459432,9.959011,99,99,0,0,0,0,0
4,49999,89,40000,1,20000,0,9999,0.100000,99,0,0.008099,12,0.000000,19.164218,0.188755,99,99,0,0,1,0,0
4,49999,90,40000,12,0,40,9999,0.100000,99,0,0.000000,12,1.000000,29.151505,11.337471,99,99,0,0,0,0,0
4,49999,91,40000,34,0,0,9999,0.100000,99,0,4.685999,12,1.000000,32.284310,5.524418,99,99,0,0,0,1,0
4,49999,92,40000,95,10000,40,9999,0.100000,99,0,0.000000,12,3.000000,35.971697,5.325665,99,99,0,0,0,0,0
4,49999,93,40000,40,0,40,9999,0.100000,99,0,0.000000,12,1.000000,20.893884,3.453939,99,99,0,0,0,0,0
4,49999,94,40000,95,10000,40,9999,0.100000,99,0,0.000000,12,0.000000,19.950649,3.300329,99,99,0,0,0,0,0
4,49999,95,40000,12,0,40,9999,0.100000,99,0,0.000000,12,1.000000,23.176791,9.410027,99,99,0,0,0,0,0
4,49999,96,40000,1,20000,40,9999,0.100000,99,0,0.000000,12,2.000000,26.044475,11.331726,99,99,0,0,0,0,0
4,49999,97,40000,1,20000,40,9999,0.100000,99,0,0.000000,12,0.000000,34.244229,1.014316,99,99,0,0,0,0,0
4,49999,98,40000,95,10000,40,9999,0.100000,99,0,0.000000,12,1.000000,19.818326,5.942138,99,99,0,0,0,0,0
4,49999,99,40000,93,0,41,9999,0.100000,99,0,0.000000,12,3.000000,25.623138,9.312463,99,99,0,0,0,0,0
5,59999,0,50000,0,0,0,9999,0.100000,99,0,0.083689,12,0.000000,17.094457,0.186204,99,99,0,0,1,0,0
5,59999,1,50000,1,20000,0,9999,0.100000,99,0,0.978191,12,1.000000,27.530415,6.247729,99,99,0,0,1,0,0
5,59999,2,50000,1,20000,41,9999,0.100000,99,0,0.000000,12,3.000000,28.434428,12.087297,99,99,0,0,0,0,0
5,59999,3,50000,12,0,40,9999,0.100000,99,0,0.000000,12,0.000000,22.010200,0.985393,99,99,0,0,0,0,0
5,59999,4,50000,53,10000,40,9999,0.100000,99,0,0.000000,12,2.000000,19.900952,11.340135,99,99,0,0,0,0,0
5,59999,5,50000,0,0,41,9999,0.100000,99,0,0.000000,12,3.000000,25.547708,12.616607,99,99,0,0,0,0,0
5,59999,6,50000,93,0,0,9999,0.100000,99,0,1.269619,12,0.000000,28.318172,1.210895,99,99,0,0,0,0,1
5,59999,7,50000,97,0,40,9999,0.100000,99,0,0.000000,12,0.000000,23.583387,0.851404,99,99,0,0,0,0,0
5,59999,8,50000,12,0,0,9999,0.100000,99,0,0.004592,12,0.000000,14.419020,0.117323,99,99,0,0,0,1,0
5,59999,9,50000,0,0,0,9999,0.100000,99,0,0.436636,12,0.000000,19.290306,0.148495,99,99,0,0,0,0,1
5,59999,10,50000,93,0,40,9999,0.100000,99,0,0.000000,12,0.000000,28.072466,1.832525,99,99,0,0,0,0,0
5,59999,11,50000,93,0,42,9999,0.100000,99,0,0.000000,12,6.000000,26.946414,13.643431,99,99,0,0,0,0,0
5,59999,12,50000,34,0,40,9999,0.100000,99,0,0.000000,12,2.000000,28.979628,8.962304,99,99,0,0,0,0,0
5,59999,13,50000,91,0,40,9999,0.100000,99,0,0.000000,12,3.000000,33.786719,12.873760,99,99,0,0,0,0,0
5,59999,14,50000,0,0,0,9999,0.100000,99,0,0.015601,12,0.000000,25.875603,0.196282,99,99,0,0,1,0,0
5,59999,15,50000,95,10000,0,9999,0.100000,99,0,0.577484,12,0.000000,27.906486,0.156868,99,99,0,0,0,1,0
5,59999,16,50000,0,0,41,9999,0.100000,99,0,0.000000,12,3.000000,25.966129,10.279571,99,99,0,0,0,0,0
5,59999,17,50000,1,20000,40,9999,0.100000,99,0,0.000000,12,0.000000,28.856634,1.021159,99,99,0,0,0,0,0
5,59999,18,50000,0,0,40,9999,0.100000,99,0,0.000000,12,0.000000,27.585871,3.665884,99,99,0,0,0,0,0
5,59999,19,50000,53,10000,40,9999,0.100000,99,0,0.000000,12,2.000000,36.321552,7.747707,99,99,0,0,0,0,0
5,59999,20,50000,34,0,0,9999,0.100000,99,0,0.324973,12,0.000000,23.929964,0.179585,99,99,0,0,0,0,1
5,59999,21,50000,53,10000,40,9999,0.100000,99,0,0.000000,12,0.000000,27.377192,1.053273,99,99,0,0,0,0,0
5,59999,22,50000,93,0,40,9999,0.100000,99,0,0.000000,12,0.000000,27.485399,1.051279,99,99,0,0,0,0,0
5,59999,23,50000,40,0,40,9999,0.100000,99,0,0.000000,12,2.000000,21.397532,5.619694,99,99,0,0,0,0,0
5,59999,24,50000,12,0,40,9999,0.100000,99,0,0.000000,12,3.000000,33.031995,12.001186,99,99,0,0,0,0,0
5,59999,25,50000,34,0,0,9999,0.100000,99,0,2.782671,12,0.000000,20.599111,0.720093,99,99,0,0,1,0,0
5,59999,26,50000,97,0,0,9999,0.100000,99,0,2.083788,12,0.000000,24.037407,0.576164,99,99,0,0,0,1,0
5,59999,27,50000,53,10000,40,9999,0.100000,99,0,0.000000,12,3.000000,30.085871,11.806318,99,99,0,0,0,0,0
5,59999,28,50000,97,0,40,9999,0.100000,99,0,0.000000,12,0.000000,27.692907,0.229398,99,99,0,0,0,0,0
5,59999,29,50000,97,0,40,9999,0.100000,99,0,0.000000,12,1.000000,27.478467,2.645745,99,99,0,0,0,0,0
5,59999,30,50000,53,10000,0,9999,0.100000,99,0,0.144516,12,0.000000,27.227356,0.577892,99,99,0,0,0,0,1
5,59999,31,50000,40,0,40,9999,0.100000,99,0,0.000000,12,1.000000,25.879895,3.965676,99,99,0,0,0,0,0
5,59999,32,50000,40,0,40,9999,0.100000,99,0,0.000000,12,1.000000,17.313210,5.972573,99,99,0,0,0,0,0
5,59999,33,50000,12,0,40,9999,0.100000,99,0,0.000000,12,0.000000,22.942538,1.033704,99,99,0,0,0,0,0
5,59999,34,50000,0,0,40,9999,0.100000,99,0,0.000000,12,0.000000,34.052656,0.990418,99,99,0,0,0,0,0
5,59999,35,50000,0,0,40,9999,0.100000,99,0,0.000000,12,0.000000,25.652938,0.120017,99,99,0,0,0,0,0
5,59999,36,50000,40,0,40,9999,0.100000,99,0,0.000000,12,1.000000,34.160294,6.313535,99,99,0,0,0,0,0
5,59999,37,50000,91,0,40,9999,0.100000,99,0,0.000000,12,2.000000,22.500550,6.112581,99,99,0,0,0,0,0
5,59999,38,50000,75,0,40,9999,0.100000,99,0,0.000000,12,0.000000,19.051849,0.167854,99,99,0,0,0,0,0
5,59999,39,50000,34,0,40,9999,0.100000,99,0,0.000000,12,1.000000,27.268397,6.480472,99,99,0,0,0,0,0
5,59999,40,50000,1,20000,41,9999,0.100000,99,0,0.000000,12,4.000000,25.321353,5.210575,99,99,0,0,0,0,0
5,59999,41,50000,93,0,40,9999,0.100000,99,0,0.000000,12,0.000000,24.175439,2.036041,99,99,0,0,0,0,0
5,59999,42,50000,93,0,40,9999,0.100000,99,0,0.000000,12,0.000000,14.608336,0.095442,99,99,0,0,0,0,0
5,59999,43,50000,75,0,40,9999,0.100000,99,0,0.000000,12,0.000000,20.347518,0.845828,99,99,0,0,0,0,0
5,59999,44,50000,91,0,40,9999,0.100000,99,0,0.000000,12,3.000000,30.401522,12.271681,99,99,0,0,0,0,0
5,59999,45,50000,93,0,40,9999,0.100000,99,0,0.000000,12,1.000000,24.208528,4.296140,99,99,0,0,0,0,0
5,59999,46,50000,75,0,41,9999,0.100000,99,0,0.000000,12,3.000000,19.496876,8.605825,99,99,0,0,0,0,0
5,59999,47,50000,1,20000,40,9999,0.100000,99,0,0.000000,12,1.000000,25.591195,11.185043,99,99,0,0,0,0,0
5,59999,48,50000,12,0,40,9999,0.100000,99,0,0.000000,12,0.000000,18.723945,0.356939,99,99,0,0,0,0,0
5,59999,49,50000,91,0,40,9999,0.100000,99,0,0.000000,12,0.000000,19.898088,0.482897,99,99,0,0,0,0,0
5,59999,50,50000,1,20000,40,9999,0.100000,99,0,0.000000,12,0.000000,16.855083,0.137710,99,99,0,0,0,0,0
5,59999,51,50000,40,0,40,9999,0.100000,99,0,0.000000,12,1.000000,27.458287,1.732232,99,99,0,0,0,0,0
5,59999,52,50000,95,10000,40,9999,0.100000,99,0,0.000000,12,0.000000,31.771035,0.134052,99,99,0,0,0,0,0
5,59999,53,50000,75,0,0,9999,0.100000,99,0,0.061050,12,0.000000,19.879464,0.455083,99,99,0,1,0,0,0
5,59999,54,50000,95,10000,0,9999,0.100000,99,0,0.003030,12,0.000000,12.136647,0.103100,99,99,0,0,0,1,0
5,59999,55,50000,53,10000,40,9999,0.100000,99,0,0.000000,12,0.000000,25.663435,1.068102,99,99,0,0,0,0,0
5,59999,56,50000,40,0,40,9999,0.100000,99,0,0.000000,12,0.000000,30.211626,6.977319,99,99,0,0,0,0,0
5,59999,57,50000,53,10000,41,9999,0.100000,99,0,0.000000,12,4.000000,31.961743,13.155783,99,99,0,0,0,0,0
5,59999,58,50000,40,0,40,9999,0.100000,99,0,0.000000,12,0.000000,28.246808,0.508676,99,99,0,0,0,0,0
5,59999,59,50000,12,0,40,9999,0.100000,99,0,0.000000,12,1.000000,21.077872,4.775525,99,99,0,0,0,0,0
5,59999,60,50000,97,0,40,9999,0.100000,99,0,0.000000,12,0.000000,28.784301,0.796951,99,99,0,0,0,0,0
5,59999,61,50000,91,0,40,9999,0.100000,99,0,0.000000,12,0.000000,24.135673,0.628730,99,99,0,0,0,0,0
5,59999,62,50000,12,0,40,9999,0.100000,99,0,0.000000,12,0.000000,23.653556,0.984251,99,99,0,0,0,0,0
5,59999,63,50000,0,0,40,9999,0.100000,99,0,0.000000,12,0.000000,27.221270,0.701470,99,99,0,0,0,0,0
5,59999,64,50000,34,0,40,9999,0.100000,99,0,0.000000,12,0.000000,21.376694,0.965843,99,99,0,0,0,0,0
5,59999,65,50000,91,0,40,9999,0.100000,99,0,0.000000,12,1.000000,22.555497,11.437942,99,99,0,0,0,0,0
5,59999,66,50000,91,0,40,9999,0.100000,99,0,0.000000,12,0.000000,25.619627,10.480445,99,99,0,0,0,0,0
5,59999,67,50000,45,20000,40,9999,0.100000,99,0,0.000000,12,3.000000,30.396625,11.493369,99,99,0,0,0,0,0
5,59999,68,50000,1,20000,41,9999,0.100000,99,0,0.000000,12,4.000000,27.887248,15.467750,99,99,0,0,0,0,0
5,59999,69,50000,1,20000,40,9999,0.100000,99,0,0.000000,12,1.000000,24.872218,14.152257,99,99,0,0,0,0,0
5,59999,70,50000,91,0,40,9999,0.100000,99,0,0.000000,12,1.000000,29.791557,5.948784,99,99,0,0,0,0,0
5,59999,71,50000,40,0,40,9999,0.100000,99,0,0.000000,12,0.000000,27.207613,0.404890,99,99,0,0,0,0,0
5,59999,72,50000,75,0,41,9999,0.100000,99,0,0.000000,12,3.000000,16.711585,8.575297,99,99,0,0,0,0,0
5,59999,73,50000,34,0,0,9999,0.100000,99,0,0.190921,12,0.000000,25.217660,0.159412,99,99,0,1,0,0,0
5,59999,74,50000,40,0,40,9999,0.100000,99,0,0.000000,12,1.000000,18.350481,4.614206,99,99,0,0,0,0,0
5,59999,75,50000,93,0,41,9999,0.100000,99,0,0.000000,12,4.000000,22.221123,10.484575,99,99,0,0,0,0,0
5,59999,76,50000,93,0,40,9999,0.100000,99,0,0.000000,12,0.000000,20.906744,1.001998,99,99,0,0,0,0,0
5,59999,77,50000,12,0,40,9999,0.100000,99,0,0.000000,12,0.000000,11.162161,0.698921,99,99,0,0,0,0,0
5,59999,78,50000,45,20000,40,9999,0.100000,99,0,0.000000,12,0.000000,14.509940,0.102750,99,99,0,0,0,0,0
5,59999,79,50000,1,20000,40,9999,0.100000,99,0,0.000000,12,3.000000,32.033777,16.098249,99,99,0,0,0,0,0
5,59999,80,50000,95,10000,40,9999,0.100000,99,0,0.000000,12,0.000000,24.381854,1.015202,99,99,0,0,0,0,0
5,59999,81,50000,34,0,40,9999,0.100000,99,0,0.000000,12,0.000000,22.054509,2.890338,99,99,0,0,0,0,0
5,59999,82,50000,53,10000,40,9999,0.100000,99,0,0.000000,12,3.000000,30.412591,14.531866,99,99,0,0,0,0,0
5,59999,83,50000,1,20000,40,9999,0.100000,99,0,0.000000,12,1.000000,27.321936,10.501739,99,99,0,0,0,0,0
5,59999,84,50000,95,10000,40,9999,0.100000,99,0,0.000000,12,1.000000,33.702165,9.206851,99,99,0,0,0,0,0
5,59999,85,50000,45,20000,40,9999,0.100000,99,0,0.000000,12,1.000000,24.287610,3.335337,99,99,0,0,0,0,0
5,59999,86,50000,75,0,40,9999,0.100000,99,0,0.000000,12,0.000000,29.482320,0.850266,99,99,0,0,0,0,0
5,59999,87,50000,95,10000,41,9999,0.100000,99,0,0.000000,12,4.000000,31.718671,6.838440,99,99,0,0,0,0,0
5,59999,88,50000,1,20000,41,9999,0.100000,99,0,0.000000,12,4.000000,32.471187,18.258055,99,99,0,0,0,0,0
5,59999,89,50000,34,0,0,9999,0.100000,99,0,0.008617,12,0.000000,19.179088,0.185636,99,99,0,0,1,0,0
5,59999,90,50000,0,0,40,9999,0.100000,99,0,0.000000,12,2.000000,28.654068,12.678682,99,99,0,0,0,0,0
5,59999,91,50000,40,0,40,9999,0.100000,99,0,0.000000,12,1.000000,31.688587,6.898403,99,99,0,0,0,0,0
5,59999,92,50000,1,20000,41,9999,0.100000,99,0,0.000000,12,6.000000,34.175844,18.304755,99,99,0,0,0,0,0
5,59999,93,50000,1,20000,40,9999,0.100000,99,0,0.000000,12,1.000000,19.667350,12.797351,99,99,0,0,0,0,0
5,59999,94,50000,45,20000,40,9999,0.100000,99,0,0.000000,12,1.000000,19.731327,9.740507,99,99,0,0,0,0,0
5,59999,95,50000,53,10000,40,9999,0.100000,99,0,0.000000,12,0.000000,24.099205,4.167015,99,99,0,0,0,0,0
5,59999,96,50000,91,0,40,9999,0.100000,99,0,0.000000,12,2.000000,27.951267,10.035369,99,99,0,0,0,0,0
5,59999,97,50000,0,0,41,9999,0.100000,99,0,0.000000,12,4.000000,34.715116,7.632554,99,99,0,0,0,0,0
5,59999,98,50000,1,20000,40,9999,0.100000,99,0,0.000000,12,0.000000,19.777798,0.137260,99,99,0,0,0,0,0
5,59999,99,50000,45,20000,40,9999,0.100000,99,0,0.000000,12,3.000000,29.344686,14.449329,99,99,0,0,0,0,0
6,69999,0,60000,97,0,0,9999,0.100000,99,0,0.070645,12,0.000000,17.093148,0.174279,99,99,0,0,1,0,0
6,69999,1,60000,0,0,0,9999,0.100000,99,0,6.481041,12,1.000000,28.892338,1.755697,99,99,0,0,1,0,0
6,69999,2,60000,40,0,40,9999,0.100000,99,0,0.000000,12,1.000000,25.892621,6.879325,99,99,0,0,0,0,0
6,69999,3,60000,34,0,40,9999,0.100000,99,0,0.000000,12,0.000000,21.275172,0.901067,99,99,0,0,0,0,0
6,69999,4,60000,97,0,42,9999,0.100000,99,0,0.000000,12,5.000000,19.032341,9.244316,99,99,0,0,0,0,0
6,69999,5,60000,40,0,40,9999,0.100000,99,0,0.000000,12,1.000000,25.289848,5.264958,99,99,0,0,0,0,0
6,69999,6,60000,34,0,40,9999,0.100000,99,0,0.000000,12,1.000000,28.496799,11.509811,99,99,0,0,0,0,0
6,69999,7,60000,97,50000,40,9999,0.100000,99,0,0.000000,12,0.000000,23.425873,0.820425,99,99,0,0,0,0,0
6,69999,8,60000,97,0,0,9999,0.100000,99,0,0.003736,12,0.000000,14.415908,0.117905,99,99,0,0,0,1,0
6,69999,9,60000,91,0,0,9999,0.100000,99,0,0.435284,12,0.000000,19.268286,0.160621,99,99,0,0,0,0,1
6,69999,10,60000,45,20000,40,9999,0.100000,99,0,0.000000,12,0.000000,28.257423,2.269076,99,99,0,0,0,0,0
6,69999,11,60000,93,0,40,9999,0.100000,99,0,0.000000,12,0.000000,29.583559,0.288008,99,99,0,0,0,0,0
6,69999,12,60000,91,0,40,9999,0.100000,99,0,0.000000,12,3.000000,30.921384,16.075977,99,99,0,0,0,0,0
6,69999,13,60000,34,0,40,9999,0.100000,99,0,0.000000,12,3.000000,30.940005,12.886629,99,99,0,0,0,0,0
6,69999,14,60000,40,0,0,9999,0.100000,99,0,0.019382,12,0.000000,25.857827,0.253275,99,99,0,0,1,0,0
6,69999,15,60000,40,0,0,9999,0.100000,99,0,0.426696,12,0.000000,27.971724,0.214778,99,99,0,0,0,1,0
6,69999,16,60000,91,0,40,9999,0.100000,99,0,0.000000,12,0.000000,24.354601,1.214655,99,99,0,0,0,0,0
6,69999,17,60000,45,20000,40,9999,0.100000,99,0,0.000000,12,0.000000,28.390727,1.030979,99,99,0,0,0,0,0
6,69999,18,60000,93,0,40,9999,0.100000,99,0,0.000000,12,0.000000,27.443989,3.413519,99,99,0,0,0,0,0
6,69999,19,60000,75,0,41,9999,0.100000,99,0,0.000000,12,6.000000,34.805654,15.340950,99,99,0,0,0,0,0
6,69999,20,60000,45,20000,0,9999,0.100000,99,0,0.358709,12,0.000000,23.807746,0.178776,99,99,0,0,0,0,1
6,69999,21,60000,93,0,40,9999,0.100000,99,0,0.000000,12,0.000000,27.389391,1.054888,99,99,0,0,0,0,0
6,69999,22,60000,40,0,40,9999,0.100000,99,0,0.000000,12,0.000000,27.362180,1.489510,99,99,0,0,0,0,0
6,69999,23,60000,93,0,40,9999,0.100000,99,0,0.000000,12,0.000000,22.884166,5.731951,99,99,0,0,0,0,0
6,69999,24,60000,12,0,40,9999,0.100000,99,0,0.000000,12,0.000000,30.747359,9.123429,99,99,0,0,0,0,0
6,69999,25,60000,75,0,3,9999,0.100000,99,0,43.963218,12,8.000000,20.875556,8.725117,99,99,0,0,1,0,0
6,69999,26,60000,95,10000,40,9999,0.100000,99,0,0.000000,12,0.000000,24.478542,0.691162,99,99,0,0,0,0,0
6,69999,27,60000,53,10000,40,9999,0.100000,99,0,0.000000,12,1.000000,28.209205,7.815347,99,99,0,0,0,0,0
6,69999,28,60000,95,10000,40,9999,0.100000,99,0,0.000000,12,0.000000,27.730223,0.248628,99,99,0,0,0,0,0
6,69999,29,60000,34,0,40,9999,0.100000,99,0,0.000000,12,1.000000,29.138805,1.947773,99,99,0,0,0,0,0
6,69999,30,60000,34,0,0,9999,0.100000,99,0,0.531050,12,0.000000,27.245693,0.382663,99,99,0,0,0,0,1
6,69999,31,60000,1,20000,40,9999,0.100000,99,0,0.000000,12,1.000000,25.411849,12.746826,99,99,0,0,0,0,0
6,69999,32,60000,97,0,40,9999,0.100000,99,0,0.000000,12,1.000000,18.539681,8.434688,99,99,0,0,0,0,0
6,69999,33,60000,97,0,40,9999,0.100000,99,0,0.000000,12,0.000000,22.146640,0.976546,99,99,0,0,0,0,0
6,69999,34,60000,97,0,41,9999,0.100000,99,0,0.000000,12,4.000000,34.498850,6.545477,99,99,0,0,0,0,0
6,69999,35,60000,75,0,40,9999,0.100000,99,0,0.000000,12,0.000000,25.634285,0.142638,99,99,0,0,0,0,0
6,69999,36,60000,91,0,41,9999,0.100000,99,0,0.000000,12,5.000000,33.579340,13.441492,99,99,0,0,0,0,0
6,69999,37,60000,75,0,40,9999,0.100000,99,0,0.000000,12,1.000000,24.893981,18.597721,99,99,0,0,0,0,0
6,69999,38,60000,87,50000,40,9999,0.100000,99,0,0.000000,12,0.000000,19.031065,0.175591,99,99,0,0,0,0,0
6,69999,39,60000,53,10000,40,9999,0.100000,99,0,0.000000,12,1.000000,27.793486,5.715322,99,99,0,0,0,0,0
6,69999,40,60000,93,0,40,9999,0.100000,99,0,0.000000,12,0.000000,29.892293,0.107198,99,99,0,0,0,0,0
6,69999,41,60000,91,0,0,9999,0.100000,99,0,1.567312,12,0.000000,24.800035,0.780428,99,99,0,0,0,1,0
6,69999,42,60000,95,10000,40,9999,0.100000,99,0,0.000000,12,0.000000,14.604525,0.096051,99,99,0,0,0,0,0
6,69999,43,60000,45,20000,43,9999,0.100000,99,0,0.000000,12,8.000000,20.627029,8.788163,99,99,0,0,0,0,0
6,69999,44,60000,97,0,40,9999,0.100000,99,0,0.000000,12,0.000000,27.640878,11.003457,99,99,0,0,0,0,0
6,69999,45,60000,34,0,40,9999,0.100000,99,0,0.000000,12,0.000000,25.172721,3.361201,99,99,0,0,0,0,0
6,69999,46,60000,95,10000,40,9999,0.100000,99,0,0.000000,12,1.000000,21.810401,5.258244,99,99,0,0,0,0,0
6,69999,47,60000,93,0,42,9999,0.100000,99,0,0.000000,12,7.000000,23.927481,16.695716,99,99,0,0,0,0,0
6,69999,48,60000,12,0,40,9999,0.100000,99,0,0.000000,12,0.000000,18.706890,0.347169,99,99,0,0,0,0,0
6,69999,49,60000,75,0,40,9999,0.100000,99,0,0.000000,12,0.000000,19.631784,1.294074,99,99,0,0,0,0,0
6,69999,50,60000,93,0,40,9999,0.100000,99,0,0.000000,12,0.000000,16.854248,0.127297,99,99,0,0,0,0,0
6,69999,51,60000,53,10000,40,9999,0.100000,99,0,0.000000,12,1.000000,28.604286,1.706166,99,99,0,0,0,0,0
6,69999,52,60000,93,0,40,9999,0.100000,99,0,0.000000,12,0.000000,31.770469,0.142626,99,99,0,0,0,0,0
6,69999,53,60000,53,10000,0,9999,0.100000,99,0,0.471355,12,0.000000,19.622551,0.886337,99,99,0,1,0,0,0
6,69999,54,60000,97,0,0,9999,0.100000,99,0,0.003042,12,0.000000,12.136152,0.104760,99,99,0,0,0,1,0
6,69999,55,60000,93,0,40,9999,0.100000,99,0,0.000000,12,0.000000,25.337668,1.328498,99,99,0,0,0,0,0
6,69999,56,60000,0,0,40,9999,0.100000,99,0,0.000000,12,2.000000,29.998177,12.938807,99,99,0,0,0,0,0
6,69999,57,60000,34,0,40,9999,0.100000,99,0,0.000000,12,2.000000,27.603422,8.932676,99,99,0,0,0,0,0
6,69999,58,60000,97,0,0,9999,0.100000,99,0,1.583488,12,0.000000,28.466243,0.933466,99,99,0,0,0,0,1
6,69999,59,60000,53,10000,40,9999,0.100000,99,0,0.000000,12,2.000000,21.550106,7.544655,99,99,0,0,0,0,0
6,69999,60,60000,95,10000,40,9999,0.100000,99,0,0.000000,12,0.000000,28.319275,0.806596,99,99,0,0,0,0,0
6,69999,61,60000,34,0,40,9999,0.100000,99,0,0.000000,12,0.000000,24.604636,0.498172,99,99,0,0,0,0,0
6,69999,62,60000,40,0,40,9999,0.100000,99,0,0.000000,12,0.000000,22.891435,1.017919,99,99,0,0,0,0,0
6,69999,63,60000,12,0,40,9999,0.100000,99,0,0.000000,12,0.000000,27.234884,0.570504,99,99,0,0,0,0,0
6,69999,64,60000,34,0,40,9999,0.100000,99,0,0.000000,12,0.000000,20.656019,0.906177,99,99,0,0,0,0,0
6,69999,65,60000,1,20000,40,9999,0.100000,99,0,0.000000,12,1.000000,21.500203,11.807472,99,99,0,0,0,0,0
6,69999,66,60000,75,0,40,9999,0.100000,99,0,0.000000,12,1.000000,25.418848,6.704699,99,99,0,0,0,0,0
6,69999,67,60000,0,0,40,9999,0.100000,99,0,0.000000,12,1.000000,28.795480,10.003808,99,99,0,0,0,0,0
6,69999,68,60000,45,20000,40,9999,0.100000,99,0,0.000000,12,1.000000,25.490162,4.934280,99,99,0,0,0,0,0
6,69999,69,60000,0,0,40,9999,0.100000,99,0,0.000000,12,2.000000,25.965448,12.827732,99,99,0,0,0,0,0
6,69999,70,60000,12,0,40,9999,0.100000,99,0,0.000000,12,1.000000,28.326895,9.187054,99,99,0,0,0,0,0
6,69999,71,60000,45,20000,40,9999,0.100000,99,0,0.000000,12,0.000000,27.173151,0.529588,99,99,0,0,0,0,0
6,69999,72,60000,95,10000,40,9999,0.100000,99,0,0.000000,12,0.000000,19.037665,3.633654,99,99,0,0,0,0,0
6,69999,73,60000,40,0,0,9999,0.100000,99,0,0.186979,12,0.000000,25.227836,0.160635,99,99,0,1,0,0,0
6,69999,74,60000,97,0,40,9999,0.100000,99,0,0.000000,12,1.000000,19.808989,3.645181,99,99,0,0,0,0,0
6,69999,75,60000,95,10000,40,9999,0.100000,99,0,0.000000,12,0.000000,23.214933,12.031539,99,99,0,0,0,0,0
6,69999,76,60000,34,0,43,9999,0.100000,99,0,0.000000,12,8.000000,21.175841,8.795871,99,99,0,0,0,0,0
6,69999,77,60000,91,0,40,9999,0.100000,99,0,0.000000,12,0.000000,11.024995,0.733602,99,99,0,0,0,0,0
6,69999,78,60000,95,10000,40,9999,0.100000,99,0,0.000000,12,0.000000,14.506390,0.103121,99,99,0,0,0,0,0
6,69999,79,60000,95,10000,40,9999,0.100000,99,0,0.000000,12,1.000000,28.675685,9.567945,99,99,0,0,0,0,0
6,69999,80,60000,91,0,40,9999,0.100000,99,0,0.000000,12,0.000000,23.599538,1.019103,99,99,0,0,0,0,0
6,69999,81,60000,34,0,40,9999,0.100000,99,0,0.000000,12,0.000000,21.404400,2.916448,99,99,0,0,0,0,0
6,69999,82,60000,12,0,40,9999,0.100000,99,0,0.000000,12,3.000000,30.605205,15.892507,99,99,0,0,0,0,0
6,69999,83,60000,93,0,40,9999,0.100000,99,0,0.000000,12,2.000000,26.592774,7.370730,99,99,0,0,0,0,0
6,69999,84,60000,34,0,40,9999,0.100000,99,0,0.000000,12,0.000000,34.618036,9.137613,99,99,0,0,0,0,0
6,69999,85,60000,87,50000,40,9999,0.100000,99,0,0.000000,12,0.000000,24.691672,1.008913,99,99,0,0,0,0,0
6,69999,86,60000,97,0,40,9999,0.100000,99,0,0.000000,12,1.000000,29.764717,11.417715,99,99,0,0,0,0,0
6,69999,87,60000,1,20000,40,9999,0.100000,99,0,0.000000,12,0.000000,28.526115,8.598542,99,99,0,0,0,0,0
6,69999,88,60000,12,0,40,9999,0.100000,99,0,0.000000,12,1.000000,28.189123,2.992356,99,99,0,0,0,0,0
6,69999,89,60000,91,0,0,9999,0.100000,99,0,0.009757,12,0.000000,19.192753,0.189152,99,99,0,0,1,0,0
6,69999,90,60000,95,10000,40,9999,0.100000,99,0,0.000000,12,1.000000,30.839486,4.339929,99,99,0,0,0,0,0
6,69999,91,60000,0,0,40,9999,0.100000,99,0,0.000000,12,1.000000,31.321691,15.696257,99,99,0,0,0,0,0
6,69999,92,60000,97,0,40,9999,0.100000,99,0,0.000000,12,1.000000,29.032746,13.417446,99,99,0,0,0,0,0
6,69999,93,60000,93,0,42,9999,0.100000,99,0,0.000000,12,5.000000,20.819484,11.898196,99,99,0,0,0,0,0
6,69999,94,60000,93,0,40,9999,0.100000,99,0,0.000000,12,2.000000,19.042882,7.345863,99,99,0,0,0,0,0
6,69999,95,60000,95,10000,40,9999,0.100000,99,0,0.000000,12,0.000000,24.467602,0.746345,99,99,0,0,0,0,0
6,69999,96,60000,45,20000,40,9999,0.100000,99,0,0.000000,12,2.000000,26.258201,6.222995,99,99,0,0,0,0,0
6,69999,97,60000,93,0,40,9999,0.100000,99,0,0.000000,12,1.000000,37.858896,1.777613,99,99,0,0,0,0,0
6,69999,98,60000,91,0,40,9999,0.100000,99,0,0.000000,12,0.000000,19.754400,0.142550,99,99,0,0,0,0,0
6,69999,99,60000,1,20000,40,9999,0.100000,99,0,0.000000,12,3.000000,30.716245,15.892552,99,99,0,0,0,0,0
7,79999,0,70000,91,0,0,9999,0.100000,99,0,0.064468,12,0.000000,17.092295,0.170583,99,99,0,0,1,0,0
7,79999,1,70000,53,10000,0,9999,0.100000,99,0,4.534275,12,1.000000,28.689371,1.194732,99,99,0,0,1,0,0
7,79999,2,70000,45,20000,40,9999,0.100000,99,0,0.000000,12,2.000000,25.054177,4.814337,99,99,0,0,0,0,0
7,79999,3,70000,0,0,40,9999,0.100000,99,0,0.000000,13,0.000000,20.608945,0.918997,99,99,0,0,0,0,0
7,79999,4,70000,1,20000,40,9999,0.100000,99,0,0.000000,12,0.000000,24.547525,0.934639,99,99,0,0,0,0,0
7,79999,5,70000,87,50000,40,9999,0.100000,99,0,0.000000,13,0.000000,24.882698,3.237194,99,99,0,0,0,0,0
7,79999,6,70000,53,10000,0,9999,0.100000,99,0,0.738958,12,2.000000,28.477444,6.580877,99,99,0,0,0,0,1
7,79999,7,70000,93,0,40,9999,0.100000,99,0,0.000000,13,0.000000,23.253544,0.532445,99,99,0,0,0,0,0
7,79999,8,70000,87,50000,0,9999,0.100000,99,0,0.166453,12,0.000000,14.412829,0.142756,99,99,0,0,0,1,0
7,79999,9,70000,93,0,0,9999,0.100000,99,0,0.439839,13,0.000000,19.244902,0.165971,99,99,0,0,0,0,1
7,79999,10,70000,1,20000,40,9999,0.100000,99,0,0.000000,12,1.000000,29.139275,10.120002,99,99,0,0,0,0,0
7,79999,11,70000,93,0,40,9999,0.100000,99,0,0.000000,12,0.000000,29.566008,0.232483,99,99,0,0,0,0,0
7,79999,12,70000,53,10000,40,9999,0.100000,99,0,0.000000,12,2.000000,28.411388,3.286903,99,99,0,0,0,0,0
7,79999,13,70000,0,0,40,9999,0.100000,99,0,0.000000,12,2.000000,32.567306,14.278847,99,99,0,0,0,0,0
7,79999,14,70000,1,20000,0,9999,0.100000,99,0,0.111912,13,0.000000,25.792360,0.261211,99,99,0,0,1,0,0
7,79999,15,70000,97,0,0,9999,0.100000,99,0,0.894226,12,0.000000,28.095808,0.378487,99,99,0,0,0,1,0
7,79999,16,70000,40,0,40,9999,0.100000,99,0,0.000000,12,0.000000,24.637702,1.563591,99,99,0,0,0,0,0
7,79999,17,70000,53,10000,40,9999,0.100000,99,0,0.000000,12,0.000000,27.925280,1.034296,99,99,0,0,0,0,0
7,79999,18,70000,1,20000,40,9999,0.100000,99,0,0.000000,12,0.000000,27.514822,1.049964,99,99,0,0,0,0,0
7,79999,19,70000,45,20000,40,9999,0.100000,99,0,0.000000,12,2.000000,28.625486,13.516657,99,99,0,0,0,0,0
7,79999,20,70000,53,10000,0,9999,0.100000,99,0,0.457627,13,0.000000,23.677757,0.202703,99,99,0,0,0,0,1
7,79999,21,70000,34,0,40,9999,0.100000,99,0,0.000000,12,0.000000,27.300018,0.924890,99,99,0,0,0,0,0
7,79999,22,70000,53,10000,40,9999,0.100000,99,0,0.000000,12,0.000000,27.439839,2.989036,99,99,0,0,0,0,0
7,79999,23,70000,97,0,40,9999,0.100000,99,0,0.000000,12,1.000000,23.224062,12.918538,99,99,0,0,0,0,0
7,79999,24,70000,1,20000,40,9999,0.100000,99,0,0.000000,12,1.000000,31.014948,12.566506,99,99,0,0,0,0,0
7,79999,25,70000,40,0,0,9999,0.100000,99,0,13.777926,13,2.000000,27.557513,3.094696,99,99,0,0,1,0,0
7,79999,26,70000,45,20000,0,9999,0.100000,99,0,2.494472,12,0.000000,24.807428,0.762929,99,99,0,0,0,1,0
7,79999,27,70000,34,0,40,9999,0.100000,99,0,0.000000,12,1.000000,28.377686,9.588781,99,99,0,0,0,0,0
7,79999,28,70000,40,0,40,9999,0.100000,99,0,0.000000,12,0.000000,27.837168,0.433296,99,99,0,0,0,0,0
7,79999,29,70000,12,0,40,9999,0.100000,99,0,0.000000,13,1.000000,28.929900,1.429446,99,99,0,0,0,0,0
7,79999,30,70000,45,20000,0,9999,0.100000,99,0,0.782619,13,0.000000,27.245564,0.335790,99,99,0,0,0,0,1
7,79999,31,70000,40,0,40,9999,0.100000,99,0,0.000000,12,1.000000,24.795984,3.366625,99,99,0,0,0,0,0
7,79999,32,70000,45,20000,40,9999,0.100000,99,0,0.000000,12,0.000000,20.213540,3.081142,99,99,0,0,0,0,0
7,79999,33,70000,40,0,40,9999,0.100000,99,0,0.000000,12,0.000000,21.405573,0.950729,99,99,0,0,0,0,0
7,79999,34,70000,91,0,40,9999,0.100000,99,0,0.000000,12,0.000000,37.061853,0.169930,99,99,0,0,0,0,0
7,79999,35,70000,40,0,40,9999,0.100000,99,0,0.000000,13,0.000000,25.566299,0.149078,99,99,0,0,0,0,0
7,79999,36,70000,1,20000,40,9999,0.100000,99,0,0.000000,12,2.000000,30.087358,9.183231,99,99,0,0,0,0,0
7,79999,37,70000,34,0,40,9999,0.100000,99,0,0.000000,12,0.000000,25.324619,21.127774,99,99,0,0,0,0,0
7,79999,38,70000,45,20000,40,9999,0.100000,99,0,0.000000,12,0.000000,19.012399,0.196706,99,99,0,0,0,0,0
7,79999,39,70000,34,0,41,9999,0.100000,99,0,0.000000,12,5.000000,28.720431,8.948266,99,99,0,0,0,0,0
7,79999,40,70000,12,0,40,9999,0.100000,99,0,0.000000,12,0.000000,29.892083,0.105947,99,99,0,0,0,0,0
7,79999,41,70000,12,0,40,9999,0.100000,99,0,0.000000,12,0.000000,25.167949,0.882606,99,99,0,0,0,0,0
7,79999,42,70000,1,20000,40,9999,0.100000,99,0,0.000000,13,0.000000,14.600877,0.774592,99,99,0,0,0,0,0
7,79999,43,70000,91,0,40,9999,0.100000,99,0,0.000000,12,2.000000,27.407733,3.025363,99,99,0,0,0,0,0
7,79999,44,70000,45,20000,40,9999,0.100000,99,0,0.000000,12,2.000000,28.132089,11.859603,99,99,0,0,0,0,0
7,79999,45,70000,0,0,40,9999,0.100000,99,0,0.000000,12,0.000000,25.175564,3.123957,99,99,0,0,0,0,0
7,79999,46,70000,53,10000,41,9999,0.100000,99,0,0.000000,13,3.000000,20.895477,11.316293,99,99,0,0,0,0,0
7,79999,47,70000,40,0,40,9999,0.100000,99,0,0.000000,12,1.000000,28.045685,5.914964,99,99,0,0,0,0,0
7,79999,48,70000,97,0,40,9999,0.100000,99,0,0.000000,13,0.000000,18.698047,0.369184,99,99,0,0,0,0,0
7,79999,49,70000,12,0,40,9999,0.100000,99,0,0.000000,12,1.000000,19.677461,4.856708,99,99,0,0,0,0,0
7,79999,50,70000,45,20000,40,9999,0.100000,99,0,0.000000,13,0.000000,16.853561,0.128824,99,99,0,0,0,0,0
7,79999,51,70000,87,50000,40,9999,0.100000,99,0,0.000000,12,1.000000,28.411499,1.165481,99,99,0,0,0,0,0
7,79999,52,70000,1,20000,40,9999,0.100000,99,0,0.000000,12,0.000000,31.769980,0.142294,99,99,0,0,0,0,0
7,79999,53,70000,0,0,0,9999,0.100000,99,0,1.171616,12,1.000000,19.589718,2.572378,99,99,0,1,0,0,0
7,79999,54,70000,12,0,0,9999,0.100000,99,0,0.003421,12,0.000000,12.135558,0.103578,99,99,0,0,0,1,0
7,79999,55,70000,12,0,40,9999,0.100000,99,0,0.000000,12,0.000000,25.338192,1.304206,99,99,0,0,0,0,0
7,79999,56,70000,45,20000,40,9999,0.100000,99,0,0.000000,12,1.000000,31.024412,8.345211,99,99,0,0,0,0,0
7,79999,57,70000,1,20000,40,9999,0.100000,99,0,0.000000,12,2.000000,25.495548,2.168418,99,99,0,0,0,0,0
7,79999,58,70000,40,0,40,9999,0.100000,99,0,0.000000,12,1.000000,28.876013,18.619207,99,99,0,0,0,0,0
7,79999,59,70000,97,0,40,9999,0.100000,99,0,0.000000,12,1.000000,21.591592,9.378471,99,99,0,0,0,0,0
7,79999,60,70000,12,0,40,9999,0.100000,99,0,0.000000,12,0.000000,27.854692,0.790193,99,99,0,0,0,0,0
7,79999,61,70000,0,0,40,9999,0.100000,99,0,0.000000,13,0.000000,24.950159,0.757077,99,99,0,0,0,0,0
7,79999,62,70000,34,0,40,9999,0.100000,99,0,0.000000,12,0.000000,22.124452,1.001358,99,99,0,0,0,0,0
7,79999,63,70000,95,10000,40,9999,0.100000,99,0,0.000000,12,0.000000,27.220295,0.505274,99,99,0,0,0,0,0
7,79999,64,70000,1,20000,41,9999,0.100000,99,0,0.000000,12,4.000000,19.989193,10.862706,99,99,0,0,0,0,0
7,79999,65,70000,34,0,40,9999,0.100000,99,0,0.000000,12,1.000000,21.335039,16.767062,99,99,0,0,0,0,0
7,79999,66,70000,93,0,40,9999,0.100000,99,0,0.000000,12,2.000000,25.885145,5.374296,99,99,0,0,0,0,0
7,79999,67,70000,91,0,40,9999,0.100000,99,0,0.000000,12,3.000000,28.817016,13.396454,99,99,0,0,0,0,0
7,79999,68,70000,53,10000,40,9999,0.100000,99,0,0.000000,13,1.000000,27.068341,9.299845,99,99,0,0,0,0,0
7,79999,69,70000,95,10000,40,9999,0.100000,99,0,0.000000,12,1.000000,26.795650,3.574273,99,99,0,0,0,0,0
7,79999,70,70000,87,50000,40,9999,0.100000,99,0,0.000000,12,1.000000,28.829009,14.575647,99,99,0,0,0,0,0
7,79999,71,70000,97,0,40,9999,0.100000,99,0,0.000000,13,0.000000,27.243472,1.391674,99,99,0,0,0,0,0
7,79999,72,70000,95,10000,40,9999,0.100000,99,0,0.000000,12,0.000000,18.971213,2.822079,99,99,0,0,0,0,0
7,79999,73,70000,93,0,0,9999,0.100000,99,0,0.187522,12,0.000000,25.234087,0.157298,99,99,0,1,0,0,0
7,79999,74,70000,91,0,40,9999,0.100000,99,0,0.000000,12,2.000000,21.312274,8.823433,99,99,0,0,0,0,0
7,79999,75,70000,91,0,41,9999,0.100000,99,0,0.000000,13,4.000000,24.120674,8.977635,99,99,0,0,0,0,0
7,79999,76,70000,40,0,40,9999,0.100000,99,0,0.000000,12,2.000000,27.742017,3.278329,99,99,0,0,0,0,0
7,79999,77,70000,34,0,40,9999,0.100000,99,0,0.000000,12,0.000000,10.933812,1.235469,99,99,0,0,0,0,0
7,79999,78,70000,87,50000,40,9999,0.100000,99,0,0.000000,13,0.000000,14.502942,0.141342,99,99,0,0,0,0,0
7,79999,79,70000,93,0,42,9999,0.100000,99,0,0.000000,12,8.000000,28.622402,15.736456,99,99,0,0,0,0,0
7,79999,80,70000,34,0,40,9999,0.100000,99,0,0.000000,12,0.000000,22.820983,0.967451,99,99,0,0,0,0,0
7,79999,81,70000,34,0,41,9999,0.100000,99,0,0.000000,12,3.000000,21.402716,4.725947,99,99,0,0,0,0,0
7,79999,82,70000,87,50000,41,9999,0.100000,99,0,0.000000,12,6.000000,29.818402,17.288483,99,99,0,0,0,0,0
7,79999,83,70000,93,0,41,9999,0.100000,99,0,0.000000,12,3.000000,24.514870,6.825095,99,99,0,0,0,0,0
7,79999,84,70000,34,0,40,9999,0.100000,99,0,0.000000,13,0.000000,34.111722,8.788299,99,99,0,0,0,0,0
7,79999,85,70000,25,60000,40,9999,0.100000,99,0,0.000000,13,0.000000,25.064923,1.074006,99,99,0,0,0,0,0
7,79999,86,70000,12,0,40,9999,0.100000,99,0,0.000000,12,2.000000,28.709456,12.271431,99,99,0,0,0,0,0
7,79999,87,70000,12,0,40,9999,0.100000,99,0,0.000000,13,0.000000,28.454484,6.654891,99,99,0,0,0,0,0
7,79999,88,70000,97,0,40,9999,0.100000,99,0,0.000000,12,2.000000,28.781093,14.270930,99,99,0,0,0,0,0
7,79999,89,70000,87,50000,0,9999,0.100000,99,0,0.007194,13,0.000000,19.206522,0.193052,99,99,0,0,1,0,0
7,79999,90,70000,34,0,41,9999,0.100000,99,0,0.000000,12,4.000000,31.697569,19.198408,99,99,0,0,0,0,0
7,79999,91,70000,12,0,40,9999,0.100000,99,0,0.000000,13,3.000000,30.137444,5.438218,99,99,0,0,0,0,0
7,79999,92,70000,87,50000,40,9999,0.100000,99,0,0.000000,12,1.000000,29.759972,7.084016,99,99,0,0,0,0,0
7,79999,93,70000,93,0,40,9999,0.100000,99,0,0.000000,12,1.000000,22.784460,12.095000,99,99,0,0,0,0,0
7,79999,94,70000,40,0,41,9999,0.100000,99,0,0.000000,13,2.000000,16.719582,4.892413,99,99,0,0,0,0,0
7,79999,95,70000,91,0,40,9999,0.100000,99,0,0.000000,12,0.000000,24.816773,1.032455,99,99,0,0,0,0,0
7,79999,96,70000,12,0,40,9999,0.100000,99,0,0.000000,12,0.000000,27.048528,10.040939,99,99,0,0,0,0,0
7,79999,97,70000,87,50000,40,9999,0.100000,99,0,0.000000,13,0.000000,37.137819,0.155698,99,99,0,0,0,0,0
7,79999,98,70000,0,0,40,9999,0.100000,99,0,0.000000,13,0.000000,19.723506,0.149837,99,99,0,0,0,0,0
7,79999,99,70000,97,0,41,9999,0.100000,99,0,0.000000,12,6.000000,29.927144,17.286237,99,99,0,0,0,0,0
8,89999,0,80000,87,50000,0,9999,0.100000,99,0,0.043255,13,0.000000,17.089453,0.152876,99,99,0,0,1,0,0
8,89999,1,80000,93,0,0,9999,0.100000,99,0,14.782138,13,3.000000,28.549311,4.318008,99,99,0,0,1,0,0
8,89999,2,80000,25,60000,40,9999,0.100000,99,0,0.000000,13,2.000000,27.371910,10.668326,99,99,0,0,0,0,0
8,89999,3,80000,91,0,41,9999,0.100000,99,0,0.000000,13,4.000000,19.936690,8.567327,99,99,0,0,0,0,0
8,89999,4,80000,25,60000,41,9999,0.100000,99,0,0.000000,13,3.000000,25.215805,8.934007,99,99,0,0,0,0,0
8,89999,5,80000,53,10000,41,9999,0.100000,99,0,0.000000,13,3.000000,25.062549,5.732258,99,99,0,0,0,0,0
8,89999,6,80000,0,0,0,9999,0.100000,99,0,0.939533,13,0.000000,30.296391,0.357192,99,99,0,0,0,0,1
8,89999,7,80000,53,10000,40,9999,0.100000,99,0,0.000000,13,0.000000,23.057522,0.537458,99,99,0,0,0,0,0
8,89999,8,80000,12,0,0,9999,0.100000,99,0,0.781049,13,0.000000,14.445053,0.536126,99,99,0,0,0,1,0
8,89999,9,80000,95,10000,0,9999,0.100000,99,0,0.393327,13,0.000000,19.224309,0.164482,99,99,0,0,0,0,1
8,89999,10,80000,91,0,44,9999,0.100000,99,0,0.000000,13,14.000000,30.397753,14.955885,99,99,0,0,0,0,0
8,89999,11,80000,45,20000,40,9999,0.100000,99,0,0.000000,13,0.000000,29.590102,0.237222,99,99,0,0,0,0,0
8,89999,12,80000,45,20000,40,9999,0.100000,99,0,0.000000,13,0.000000,31.091279,0.313230,99,99,0,0,0,0,0
8,89999,13,80000,40,0,40,9999,0.100000,99,0,0.000000,13,2.000000,32.274889,9.256481,99,99,0,0,0,0,0
8,89999,14,80000,53,10000,40,9999,0.100000,99,0,0.000000,13,1.000000,25.755775,3.670053,99,99,0,0,0,0,0
8,89999,15,80000,91,0,0,9999,0.100000,99,0,1.804814,13,0.000000,28.218721,0.917358,99,99,0,0,0,1,0
8,89999,16,80000,12,0,40,9999,0.100000,99,0,0.000000,13,0.000000,25.227588,20.318558,99,99,0,0,0,0,0
8,89999,17,80000,34,0,40,9999,0.100000,99,0,0.000000,13,0.000000,27.478608,1.001854,99,99,0,0,0,0,0
8,89999,18,80000,93,0,40,9999,0.100000,99,0,0.000000,13,1.000000,27.761334,1.220960,99,99,0,0,0,0,0
8,89999,19,80000,93,0,42,9999,0.100000,99,0,0.000000,13,8.000000,30.430710,19.491205,99,99,0,0,0,0,0
8,89999,20,80000,25,60000,0,9999,0.100000,99,0,0.579677,13,0.000000,23.515178,0.235247,99,99,0,0,0,0,1
8,89999,21,80000,87,50000,40,9999,0.100000,99,0,0.000000,13,0.000000,27.257009,0.669265,99,99,0,0,0,0,0
8,89999,22,80000,97,0,40,9999,0.100000,99,0,0.000000,13,1.000000,27.548597,2.526118,99,99,0,0,0,0,0
8,89999,23,80000,25,60000,40,9999,0.100000,99,0,0.000000,13,1.000000,23.804378,6.369151,99,99,0,0,0,0,0
8,89999,24,80000,93,0,40,9999,0.100000,99,0,0.000000,13,2.000000,30.137214,6.298734,99,99,0,0,0,0,0
8,89999,25,80000,34,0,0,9999,0.100000,99,0,0.074301,13,0.000000,30.214637,0.238457,99,99,0,0,1,0,0
8,89999,26,80000,0,0,40,9999,0.100000,99,0,0.000000,13,0.000000,25.364219,0.944038,99,99,0,0,0,0,0
8,89999,27,80000,25,70000,40,9999,0.100000,99,0,0.000000,13,0.000000,28.129528,3.460710,99,99,0,0,0,0,0
8,89999,28,80000,45,20000,40,9999,0.100000,99,0,0.000000,13,1.000000,27.974806,1.074613,99,99,0,0,0,0,0
8,89999,29,80000,40,0,40,9999,0.100000,99,0,0.000000,13,3.000000,28.785575,5.495114,99,99,0,0,0,0,0
8,89999,30,80000,97,0,0,9999,0.100000,99,0,1.601075,13,0.000000,27.202003,0.301733,99,99,0,0,0,0,1
8,89999,31,80000,45,20000,40,9999,0.100000,99,0,0.000000,13,0.000000,24.150182,10.262808,99,99,0,0,0,0,0
8,89999,32,80000,0,0,40,9999,0.100000,99,0,0.000000,13,1.000000,20.755556,6.740594,99,99,0,0,0,0,0
8,89999,33,80000,12,0,40,9999,0.100000,99,0,0.000000,13,0.000000,20.705008,1.203302,99,99,0,0,0,0,0
8,89999,34,80000,1,20000,40,9999,0.100000,99,0,0.000000,13,0.000000,37.002714,0.111341,99,99,0,0,0,0,0
8,89999,35,80000,1,20000,0,9999,0.100000,99,0,0.392056,13,0.000000,25.524124,0.336935,99,99,0,0,1,0,0
8,89999,36,80000,25,60000,40,9999,0.100000,99,0,0.000000,13,2.000000,28.839460,10.561086,99,99,0,0,0,0,0
8,89999,37,80000,0,0,40,9999,0.100000,99,0,0.000000,13,1.000000,25.669907,21.877916,99,99,0,0,0,0,0
8,89999,38,80000,34,0,40,9999,0.100000,99,0,0.000000,13,0.000000,19.000821,0.200452,99,99,0,0,0,0,0
8,89999,39,80000,45,20000,40,9999,0.100000,99,0,0.000000,13,0.000000,31.904528,0.139943,99,99,0,0,0,0,0
8,89999,40,80000,87,50000,40,9999,0.100000,99,0,0.000000,13,0.000000,29.891852,0.112989,99,99,0,0,0,0,0
8,89999,41,80000,91,0,0,9999,0.100000,99,0,1.370486,13,0.000000,25.685915,0.753420,99,99,0,0,0,1,0
8,89999,42,80000,87,50000,40,9999,0.100000,99,0,0.000000,13,0.000000,14.634015,0.938266,99,99,0,0,0,0,0
8,89999,43,80000,91,0,40,9999,0.100000,99,0,0.000000,13,0.000000,30.058897,0.420510,99,99,0,0,0,0,0
8,89999,44,80000,53,10000,40,9999,0.100000,99,0,0.000000,13,1.000000,29.307489,4.569108,99,99,0,0,0,0,0
8,89999,45,80000,0,0,40,9999,0.100000,99,0,0.000000,13,0.000000,25.174419,3.462039,99,99,0,0,0,0,0
8,89999,46,80000,91,0,41,9999,0.100000,99,0,0.000000,13,4.000000,19.435223,10.528875,99,99,0,0,0,0,0
8,89999,47,80000,40,0,40,9999,0.100000,99,0,0.000000,13,0.000000,28.225607,4.972199,99,99,0,0,0,0,0
8,89999,48,80000,97,0,40,9999,0.100000,99,0,0.000000,13,0.000000,18.702761,0.376462,99,99,0,0,0,0,0
8,89999,49,80000,40,0,40,9999,0.100000,99,0,0.000000,13,1.000000,17.824154,1.948390,99,99,0,0,0,0,0
8,89999,50,80000,97,0,40,9999,0.100000,99,0,0.000000,13,0.000000,16.851173,0.125812,99,99,0,0,0,0,0
8,89999,51,80000,45,20000,41,9999,0.100000,99,0,0.000000,13,4.000000,28.278047,4.296621,99,99,0,0,0,0,0
8,89999,52,80000,25,60000,40,9999,0.100000,99,0,0.000000,13,0.000000,31.769566,0.142556,99,99,0,0,0,0,0
8,89999,53,80000,25,60000,0,9999,0.100000,99,0,3.010916,13,1.000000,17.701131,1.792367,99,99,0,1,0,0,0
8,89999,54,80000,0,0,0,9999,0.100000,99,0,0.003018,13,0.000000,12.134950,0.105188,99,99,0,0,0,1,0
8,89999,55,80000,93,0,40,9999,0.100000,99,0,0.000000,13,0.000000,25.342023,1.394622,99,99,0,0,0,0,0
8,89999,56,80000,45,20000,40,9999,0.100000,99,0,0.000000,13,1.000000,32.169028,5.530303,99,99,0,0,0,0,0
8,89999,57,80000,0,0,40,9999,0.100000,99,0,0.000000,13,0.000000,26.359952,0.501025,99,99,0,0,0,0,0
8,89999,58,80000,45,20000,40,9999,0.100000,99,0,0.000000,13,0.000000,30.542150,0.546190,99,99,0,0,0,0,0
8,89999,59,80000,45,20000,2,9999,0.100000,99,0,34.389976,13,7.000000,22.710456,11.859512,99,99,0,1,0,0,0
8,89999,60,80000,1,20000,40,9999,0.100000,99,0,0.000000,13,0.000000,27.409236,0.770051,99,99,0,0,0,0,0
8,89999,61,80000,93,0,40,9999,0.100000,99,0,0.000000,13,0.000000,25.492717,0.655076,99,99,0,0,0,0,0
8,89999,62,80000,1,20000,40,9999,0.100000,99,0,0.000000,13,0.000000,21.352880,0.924632,99,99,0,0,0,0,0
8,89999,63,80000,93,0,40,9999,0.100000,99,0,0.000000,13,0.000000,27.179654,0.460142,99,99,0,0,0,0,0
8,89999,64,80000,34,0,42,9999,0.100000,99,0,0.000000,13,4.000000,18.156475,7.995612,99,99,0,0,0,0,0
8,89999,65,80000,1,20000,40,9999,0.100000,99,0,0.000000,13,0.000000,20.213947,23.449081,99,99,0,0,0,0,0
8,89999,66,80000,91,0,40,9999,0.100000,99,0,0.000000,13,1.000000,27.538281,10.801546,99,99,0,0,0,0,0
8,89999,67,80000,97,0,41,9999,0.100000,99,0,0.000000,13,3.000000,25.278363,9.408436,99,99,0,0,0,0,0
8,89999,68,80000,25,60000,41,9999,0.100000,99,0,0.000000,13,3.000000,28.031268,10.615454,99,99,0,0,0,0,0
8,89999,69,80000,93,0,40,9999,0.100000,99,0,0.000000,13,2.000000,25.740255,7.812848,99,99,0,0,0,0,0
8,89999,70,80000,0,0,44,9999,0.100000,99,0,0.000000,13,15.000000,30.130586,16.260141,99,99,0,0,0,0,0
8,89999,71,80000,25,60000,40,9999,0.100000,99,0,0.000000,13,1.000000,27.586448,1.499886,99,99,0,0,0,0,0
8,89999,72,80000,0,0,40,9999,0.100000,99,0,0.000000,13,0.000000,18.819745,10.521615,99,99,0,0,0,0,0
8,89999,73,80000,93,0,0,9999,0.100000,99,0,0.182146,13,0.000000,25.243647,0.151582,99,99,0,1,0,0,0
8,89999,74,80000,1,20000,40,9999,0.100000,99,0,0.000000,13,2.000000,23.554846,12.779220,99,99,0,0,0,0,0
8,89999,75,80000,87,50000,40,9999,0.100000,99,0,0.000000,13,1.000000,23.859935,2.741264,99,99,0,0,0,0,0
8,89999,76,80000,34,0,40,9999,0.100000,99,0,0.000000,13,0.000000,30.399549,0.191550,99,99,0,0,0,0,0
8,89999,77,80000,93,0,40,9999,0.100000,99,0,0.000000,13,0.000000,10.860009,1.503540,99,99,0,0,0,0,0
8,89999,78,80000,12,0,40,9999,0.100000,99,0,0.000000,13,0.000000,14.536108,0.674170,99,99,0,0,0,0,0
8,89999,79,80000,87,50000,40,9999,0.100000,99,0,0.000000,13,0.000000,23.214436,0.521565,99,99,0,0,0,0,0
8,89999,80,80000,40,0,40,9999,0.100000,99,0,0.000000,13,0.000000,22.086837,0.954951,99,99,0,0,0,0,0
8,89999,81,80000,91,0,42,9999,0.100000,99,0,0.000000,13,6.000000,24.574872,6.767792,99,99,0,0,0,0,0
8,89999,82,80000,45,20000,41,9999,0.100000,99,0,0.000000,13,4.000000,28.633933,12.150675,99,99,0,0,0,0,0
8,89999,83,80000,25,60000,40,9999,0.100000,99,0,0.000000,13,0.000000,23.193609,0.486844,99,99,0,0,0,0,0
8,89999,84,80000,87,50000,40,9999,0.100000,99,0,0.000000,13,1.000000,33.968673,6.001289,99,99,-1,0,0,0,0
8,89999,85,80000,25,60000,41,9999,0.100000,99,0,0.000000,13,3.000000,25.573403,9.498001,99,99,0,0,0,0,0
8,89999,86,80000,0,0,40,9999,0.100000,99,0,0.000000,13,0.000000,30.190168,1.178083,99,99,0,0,0,0,0
8,89999,87,80000,97,0,41,9999,0.100000,99,0,0.000000,13,5.000000,28.342509,15.097555,99,99,0,0,0,0,0
8,89999,88,80000,95,10000,40,9999,0.100000,99,0,0.000000,13,0.000000,30.465095,0.319686,99,99,0,0,0,0,0
8,89999,89,80000,12,0,0,9999,0.100000,99,0,0.008867,13,0.000000,19.219467,0.194154,99,99,0,0,1,0,0
8,89999,90,80000,0,0,40,9999,0.100000,99,0,0.000000,13,1.000000,33.702605,10.104693,99,99,0,0,0,0,0
8,89999,91,80000,0,0,40,9999,0.100000,99,0,0.000000,13,0.000000,30.211098,7.011802,99,99,0,0,0,0,0
8,89999,92,80000,53,10000,41,9999,0.100000,99,0,0.000000,13,6.000000,30.258731,14.906892,99,99,-1,0,0,0,0
8,89999,93,80000,53,10000,40,9999,0.100000,99,0,0.000000,13,0.000000,24.401175,4.412329,99,99,0,0,0,0,0
8,89999,94,80000,0,0,40,9999,0.100000,99,0,0.000000,13,0.000000,14.498923,1.546894,99,99,0,0,0,0,0
8,89999,95,80000,1,20000,40,9999,0.100000,99,0,0.000000,13,1.000000,25.364941,3.280586,99,99,0,0,0,0,0
8,89999,96,80000,40,0,40,9999,0.100000,99,0,0.000000,13,1.000000,27.289374,23.408786,99,99,0,0,0,0,0
8,89999,97,80000,97,0,40,9999,0.100000,99,0,0.000000,13,0.000000,37.089297,0.106947,99,99,0,0,0,0,0
8,89999,98,80000,45,20000,40,9999,0.100000,99,0,0.000000,13,0.000000,19.686943,0.139921,99,99,0,0,0,0,0
8,89999,99,80000,97,0,41,9999,0.100000,99,0,0.000000,13,4.000000,28.735692,12.102410,99,99,0,0,0,0,0
9,99999,0,90000,45,20000,0,9999,0.100000,99,0,0.044850,13,0.000000,17.087805,0.147661,99,99,0,0,1,0,0
9,99999,1,90000,1,20000,0,9999,0.100000,99,0,11.286556,14,3.000000,29.399437,3.282322,99,99,0,0,1,0,0
9,99999,2,90000,34,0,41,9999,0.100000,99,0,0.000000,15,3.000000,25.693382,10.941365,99,99,0,0,0,0,0
9,99999,3,90000,40,0,40,9999,0.100000,99,0,0.000000,15,0.000000,20.146662,3.619953,99,99,0,0,0,0,0
9,99999,4,90000,1,80000,40,9999,0.100000,99,0,0.000000,15,0.000000,24.952049,3.675410,99,99,0,0,0,0,0
9,99999,5,90000,40,0,40,9999,0.100000,99,0,0.000000,14,0.000000,22.027054,2.015839,99,99,0,0,0,0,0
9,99999,6,90000,25,60000,0,9999,0.100000,99,0,0.748832,15,0.000000,30.565404,0.309030,99,99,0,0,0,0,1
9,99999,7,90000,97,0,40,9999,0.100000,99,0,0.000000,15,0.000000,22.806032,0.392739,99,99,0,0,0,0,0
9,99999,8,90000,25,60000,0,9999,0.100000,99,0,0.262715,15,0.000000,14.829815,0.195724,99,99,0,0,0,1,0
9,99999,9,90000,25,60000,0,9999,0.100000,99,0,0.948581,15,0.000000,19.211870,0.324163,99,99,0,0,0,0,1
9,99999,10,90000,25,70000,40,9999,0.100000,99,0,0.000000,14,0.000000,19.106489,0.238732,99,99,0,0,0,0,0
9,99999,11,90000,34,0,40,9999,0.100000,99,0,0.000000,15,0.000000,29.607801,0.229275,99,99,0,0,0,0,0
9,99999,12,90000,10,80000,40,9999,0.100000,99,0,0.000000,15,0.000000,31.040925,0.696189,99,99,0,0,0,0,0
9,99999,13,90000,0,0,40,9999,0.100000,99,0,0.000000,15,3.000000,30.369297,16.350092,99,99,0,0,0,0,0
9,99999,14,90000,1,20000,40,9999,0.100000,99,0,0.000000,15,0.000000,26.441488,0.419163,99,99,0,0,0,0,0
9,99999,15,90000,91,0,0,9999,0.100000,99,0,4.932438,15,1.000000,28.609991,2.099638,99,99,0,0,0,1,0
9,99999,16,90000,97,0,0,9999,0.100000,99,0,0.216110,14,0.000000,25.439823,5.159710,99,99,0,0,0,1,0
9,99999,17,90000,1,80000,40,9999,0.100000,99,0,0.000000,15,0.000000,27.053158,1.008395,99,99,0,0,0,0,0
9,99999,18,90000,40,0,40,9999,0.100000,99,0,0.000000,15,1.000000,28.390444,1.944904,99,99,0,0,0,0,0
9,99999,19,90000,1,20000,40,9999,0.100000,99,0,0.000000,15,1.000000,30.658291,9.926364,99,99,0,0,0,0,0
9,99999,20,90000,1,20000,0,9999,0.100000,99,0,0.623649,15,0.000000,23.318990,0.260882,99,99,0,0,0,0,1
9,99999,21,90000,45,20000,40,9999,0.100000,99,0,0.000000,14,0.000000,27.213893,0.577526,99,99,0,0,0,0,0
9,99999,22,90000,97,0,41,9999,0.100000,99,0,0.000000,15,3.000000,28.254148,7.479740,99,99,0,0,0,0,0
9,99999,23,90000,95,10000,40,9999,0.100000,99,0,0.000000,15,1.000000,24.763556,4.773433,99,99,0,0,0,0,0
9,99999,24,90000,1,80000,41,9999,0.100000,99,0,0.000000,15,3.000000,27.613455,7.079335,99,99,0,0,0,0,0
9,99999,25,90000,93,0,0,9999,0.100000,99,0,2.378371,15,0.000000,30.224162,0.719307,99,99,0,0,1,0,0
9,99999,26,90000,70,80000,41,9999,0.100000,99,0,0.000000,15,4.000000,25.704379,12.611383,99,99,0,0,0,0,0
9,99999,27,90000,1,20000,40,9999,0.100000,99,0,0.000000,15,2.000000,28.186774,14.610638,99,99,0,0,0,0,0
9,99999,28,90000,10,80000,40,9999,0.100000,99,0,0.000000,15,1.000000,28.494409,2.155323,99,99,0,0,0,0,0
9,99999,29,90000,0,0,40,9999,0.100000,99,0,0.000000,15,2.000000,29.656177,3.256030,99,99,0,0,0,0,0
9,99999,30,90000,0,0,0,9999,0.100000,99,0,1.247007,15,0.000000,27.125498,0.349216,99,99,0,0,0,0,1
9,99999,31,90000,97,0,40,9999,0.100000,99,0,0.000000,14,1.000000,24.681690,9.855207,99,99,0,0,0,0,0
9,99999,32,90000,97,0,40,9999,0.100000,99,0,0.000000,15,0.000000,20.178515,2.107959,99,99,0,0,0,0,0
9,99999,33,90000,10,80000,41,9999,0.100000,99,0,0.000000,15,3.000000,19.938703,10.046412,99,99,0,0,0,0,0
9,99999,34,90000,40,0,40,9999,0.100000,99,0,0.000000,15,0.000000,36.987767,0.106888,99,99,0,0,0,0,0
9,99999,35,90000,68,80000,0,9999,0.100000,99,0,0.001795,15,0.000000,25.436493,0.129500,99,99,0,0,1,0,0
9,99999,36,90000,45,20000,40,9999,0.100000,99,0,0.000000,15,0.000000,26.944687,6.447399,99,99,0,0,0,0,0
9,99999,37,90000,0,0,40,9999,0.100000,99,0,0.000000,15,0.000000,25.883821,5.721418,99,99,0,0,0,0,0
9,99999,38,90000,97,0,40,9999,0.100000,99,0,0.000000,15,0.000000,19.001260,0.336988,99,99,0,0,0,0,0
9,99999,39,90000,93,0,40,9999,0.100000,99,0,0.000000,14,0.000000,31.904167,0.136023,99,99,0,0,0,0,0
9,99999,40,90000,12,0,40,9999,0.100000,99,0,0.000000,15,0.000000,29.891599,0.112329,99,99,0,0,0,0,0
9,99999,41,90000,45,20000,40,9999,0.100000,99,0,0.000000,15,0.000000,25.843163,1.407346,99,99,0,0,0,0,0
9,99999,42,90000,25,60000,40,9999,0.100000,99,0,0.000000,14,0.000000,14.957413,0.915106,99,99,0,0,0,0,0
9,99999,43,90000,40,0,40,9999,0.100000,99,0,0.000000,15,0.000000,30.146967,0.893414,99,99,0,0,0,0,0
9,99999,44,90000,70,80000,40,9999,0.100000,99,0,0.000000,15,0.000000,30.558716,13.377079,99,99,0,0,0,0,0
9,99999,45,90000,70,80000,40,9999,0.100000,99,0,0.000000,15,0.000000,25.180486,2.898180,99,99,0,0,0,0,0
9,99999,46,90000,34,0,40,9999,0.100000,99,0,0.000000,15,0.000000,19.927437,2.044518,99,99,0,0,0,0,0
9,99999,47,90000,10,80000,41,9999,0.100000,99,0,0.000000,15,4.000000,28.355556,10.183596,99,99,0,0,0,0,0
9,99999,48,90000,25,60000,40,9999,0.100000,99,0,0.000000,15,0.000000,18.724688,0.447476,99,99,0,0,0,0,0
9,99999,49,90000,1,80000,40,9999,0.100000,99,0,0.000000,15,0.000000,16.540738,0.951995,99,99,0,0,0,0,0
9,99999,50,90000,93,0,40,9999,0.100000,99,0,0.000000,14,0.000000,16.850116,0.135836,99,99,0,0,0,0,0
9,99999,51,90000,40,0,40,9999,0.100000,99,0,0.000000,15,3.000000,29.123595,3.313778,99,99,0,0,0,0,0
9,99999,52,90000,91,0,40,9999,0.100000,99,0,0.000000,15,0.000000,31.769044,0.142785,99,99,0,0,0,0,0
9,99999,53,90000,1,20000,0,9999,0.100000,99,0,2.655861,15,0.000000,16.416411,0.766936,99,99,0,1,0,0,0
9,99999,54,90000,91,0,0,9999,0.100000,99,0,0.003631,15,0.000000,12.134436,0.103069,99,99,0,0,0,1,0
9,99999,55,90000,1,80000,40,9999,0.100000,99,0,0.000000,15,0.000000,25.344996,1.846217,99,99,0,0,0,0,0
9,99999,56,90000,1,80000,41,9999,0.100000,99,0,0.000000,15,6.000000,33.094849,19.427343,99,99,0,0,0,0,0
9,99999,57,90000,1,20000,40,9999,0.100000,99,0,0.000000,15,0.000000,26.474852,0.406992,99,99,0,0,0,0,0
9,99999,58,90000,0,0,40,9999,0.100000,99,0,0.000000,14,0.000000,30.740253,1.900715,99,99,0,0,0,0,0
9,99999,59,90000,45,20000,40,9999,0.100000,99,0,0.000000,15,0.000000,30.099587,7.116971,99,99,0,0,0,0,0
9,99999,60,90000,1,20000,40,9999,0.100000,99,0,0.000000,15,0.000000,26.984790,0.773607,99,99,0,0,0,0,0
9,99999,61,90000,34,0,40,9999,0.100000,99,0,0.000000,15,0.000000,25.751420,0.749583,99,99,0,0,0,0,0
9,99999,62,90000,0,0,40,9999,0.100000,99,0,0.000000,14,0.000000,20.668913,0.918890,99,99,0,0,0,0,0
9,99999,63,90000,25,60000,40,9999,0.100000,99,0,0.000000,15,0.000000,27.125431,0.453659,99,99,0,0,0,0,0
9,99999,64,90000,45,20000,40,9999,0.100000,99,0,0.000000,15,1.000000,19.696603,3.187769,99,99,0,0,0,0,0
9,99999,65,90000,40,0,40,9999,0.100000,99,0,0.000000,14,0.000000,19.869244,5.014903,99,99,0,0,0,0,0
9,99999,66,90000,40,0,40,9999,0.100000,99,0,0.000000,15,0.000000,27.469898,3.280508,99,99,0,0,0,0,0
9,99999,67,90000,95,10000,40,9999,0.100000,99,0,0.000000,15,2.000000,28.446417,6.818205,99,99,0,0,0,0,0
9,99999,68,90000,70,80000,41,9999,0.100000,99,0,0.000000,15,3.000000,25.662384,13.359013,99,99,0,0,0,0,0
9,99999,69,90000,97,0,41,9999,0.100000,99,0,0.000000,15,4.000000,23.882822,13.190035,99,99,0,0,0,0,0
9,99999,70,90000,34,0,40,9999,0.100000,99,0,0.000000,15,0.000000,16.602828,0.237036,99,99,0,0,0,0,0
9,99999,71,90000,70,80000,40,9999,0.100000,99,0,0.000000,15,1.000000,28.297217,1.832657,99,99,0,0,0,0,0
9,99999,72,90000,40,0,40,9999,0.100000,99,0,0.000000,15,0.000000,18.128910,3.214134,99,99,0,0,0,0,0
9,99999,73,90000,0,0,0,9999,0.100000,99,0,2.033402,15,0.000000,25.249461,0.866682,99,99,0,1,0,0,0
9,99999,74,90000,0,0,42,9999,0.100000,99,0,0.000000,15,5.000000,23.601549,11.348987,99,99,0,0,0,0,0
9,99999,75,90000,1,20000,40,9999,0.100000,99,0,0.000000,15,0.000000,22.971961,9.314114,99,99,0,0,0,0,0
9,99999,76,90000,34,0,40,9999,0.135000,99,0,0.000000,15,0.000000,30.371390,1.418500,99,99,0,0,0,0,0
9,99999,77,90000,95,10000,40,9999,0.100000,99,0,0.000000,15,0.000000,10.859855,1.578709,99,99,0,0,0,0,0
9,99999,78,90000,91,0,40,9999,0.100000,99,0,0.000000,15,0.000000,14.883591,0.284442,99,99,0,0,0,0,0
9,99999,79,90000,1,20000,40,9999,0.100000,99,0,0.000000,15,0.000000,23.120979,0.530351,99,99,0,0,0,0,0
9,99999,80,90000,12,0,40,9999,0.100000,99,0,0.000000,15,0.000000,21.376299,0.921438,99,99,0,0,0,0,0
9,99999,81,90000,95,10000,40,9999,0.100000,99,0,0.000000,15,0.000000,29.995489,9.230604,99,99,0,0,0,0,0
9,99999,82,90000,34,0,40,9999,0.100000,99,0,0.000000,15,0.000000,30.679869,7.344964,99,99,0,0,0,0,0
9,99999,83,90000,25,60000,40,9999,0.100000,99,0,0.000000,15,0.000000,23.102979,0.495610,99,99,0,0,0,0,0
9,99999,84,90000,0,0,40,9999,0.100000,99,0,0.000000,15,3.000000,33.102504,11.146431,99,99,0,0,0,0,0
9,99999,85,90000,91,0,40,9999,0.100000,99,0,0.000000,15,0.000000,22.874682,1.332000,99,99,0,0,0,0,0
9,99999,86,90000,25,60000,40,9999,0.100000,99,0,0.000000,15,0.000000,30.516488,0.366660,99,99,0,0,0,0,0
9,99999,87,90000,1,80000,40,9999,0.100000,99,0,0.000000,15,2.000000,28.261898,14.133468,99,99,0,0,0,0,0
9,99999,88,90000,34,0,40,9999,0.100000,99,0,0.000000,15,0.000000,30.677250,0.533347,99,99,0,0,0,0,0
9,99999,89,90000,10,80000,0,9999,0.100000,99,0,0.007497,15,0.000000,19.232524,0.193275,99,99,0,0,1,0,0
9,99999,90,90000,70,80000,40,9999,0.100000,99,0,0.000000,15,1.000000,33.037015,14.118791,99,99,0,0,0,0,0
9,99999,91,90000,97,0,40,9999,0.100000,99,0,0.000000,15,0.000000,30.413355,0.413243,99,99,0,0,0,0,0
9,99999,92,90000,10,80000,40,9999,0.100000,99,0,0.000000,15,1.000000,32.405515,23.894685,99,99,0,0,0,0,0
9,99999,93,90000,1,80000,40,9999,0.100000,99,0,0.000000,15,2.000000,25.221426,9.445943,99,99,0,0,0,0,0
9,99999,94,90000,97,0,40,9999,0.100000,99,0,0.000000,15,0.000000,14.785794,1.795071,99,99,0,0,0,0,0
9,99999,95,90000,25,60000,40,9999,0.100000,99,0,0.000000,15,0.000000,25.792152,1.291488,99,99,0,0,0,0,0
9,99999,96,90000,1,20000,40,9999,0.100000,99,0,0.000000,15,0.000000,26.882451,17.963470,99,99,0,0,0,0,0
9,99999,97,90000,45,20000,40,9999,0.100000,99,0,0.000000,15,0.000000,37.074119,0.105585,99,99,0,0,0,0,0
9,99999,98,90000,95,10000,40,9999,0.100000,99,0,0.000000,15,0.000000,19.651232,0.404517,99,99,0,0,0,0,0
9,99999,99,90000,1,80000,40,9999,0.100000,99,0,0.000000,15,0.000000,30.751569,7.252018,99,99,0,0,0,0,0
10,109999,0,100000,68,80000,0,9999,0.100000,99,0,0.050220,15,0.000000,17.086815,0.154468,99,99,0,0,1,0,0
10,109999,1,100000,70,80000,0,9999,0.100000,99,0,0.615806,15,0.000000,30.538748,1.091358,99,99,0,0,1,0,0
10,109999,2,100000,97,0,40,9999,0.100000,99,0,0.000000,15,1.000000,29.500733,9.322993,99,99,0,0,0,0,0
10,109999,3,100000,40,0,40,9999,0.100000,99,0,0.000000,15,0.000000,19.624068,1.816165,99,99,0,0,0,0,0
10,109999,4,100000,1,20000,40,9999,0.100000,99,0,0.000000,15,1.000000,25.701058,3.198242,99,99,0,0,0,0,0
10,109999,5,100000,91,0,40,9999,0.100000,99,0,0.000000,15,0.000000,21.841146,12.537259,99,99,0,0,0,0,0
10,109999,6,100000,0,0,0,9999,0.100000,99,0,0.398098,15,0.000000,30.844324,0.166601,99,99,0,0,0,0,1
10,109999,7,100000,91,0,40,9999,0.100000,99,0,0.000000,15,0.000000,22.534999,0.455428,99,99,0,0,0,0,0
10,109999,8,100000,12,0,0,9999,0.100000,99,0,0.055934,15,0.000000,14.825801,0.159515,99,99,0,0,0,1,0
10,109999,9,100000,25,60000,0,9999,0.100000,99,0,1.082626,15,0.000000,19.351177,0.351720,99,99,0,0,0,0,1
10,109999,10,100000,45,20000,40,9999,0.100000,99,0,0.000000,15,0.000000,19.104491,0.246732,99,99,0,0,0,0,0
10,109999,11,100000,1,80000,40,9999,0.100000,99,0,0.000000,15,0.000000,29.619809,0.246694,99,99,0,0,0,0,0
10,109999,12,100000,12,0,41,9999,0.100000,99,0,0.000000,15,6.000000,31.470120,8.679287,99,99,0,0,0,0,0
10,109999,13,100000,0,0,40,9999,0.100000,99,0,0.000000,15,1.000000,31.534692,11.960045,99,99,0,0,0,0,0
10,109999,14,100000,25,60000,40,9999,0.100000,99,0,0.000000,15,0.000000,26.675904,2.797753,99,99,0,0,0,0,0
10,109999,15,100000,40,0,41,9999,0.100000,99,0,0.000000,15,4.000000,29.402659,8.282005,99,99,0,0,0,0,0
10,109999,16,100000,34,0,0,9999,0.100000,99,0,0.512766,15,0.000000,26.046612,1.100904,99,99,0,0,0,1,0
10,109999,17,100000,34,0,40,9999,0.100000,99,0,0.000000,15,0.000000,26.636253,0.997693,99,99,0,0,0,0,0
10,109999,18,100000,40,0,40,9999,0.100000,99,0,0.000000,15,0.000000,29.180781,1.478997,99,99,0,0,0,0,0
10,109999,19,100000,40,0,40,9999,0.100000,99,0,0.000000,15,0.000000,30.834102,0.989229,99,99,0,0,0,0,0
10,109999,20,100000,93,0,0,9999,0.100000,99,0,0.779206,15,0.000000,23.103102,0.319463,99,99,0,0,0,0,1
10,109999,21,100000,68,80000,40,9999,0.100000,99,0,0.000000,15,0.000000,27.231928,0.826228,99,99,0,0,0,0,0
10,109999,22,100000,45,20000,40,9999,0.100000,99,0,0.000000,15,0.000000,31.077493,0.980736,99,99,0,0,0,0,0
10,109999,23,100000,34,0,40,9999,0.100000,99,0,0.000000,15,0.000000,25.205914,21.104832,99,99,0,0,0,0,0
10,109999,24,100000,12,0,40,9999,0.100000,99,0,0.000000,15,0.000000,26.909482,2.935502,99,99,0,0,0,0,0
10,109999,25,100000,91,0,40,9999,0.100000,99,0,0.000000,15,3.000000,30.759541,11.041789,99,99,0,0,0,0,0
10,109999,26,100000,45,20000,40,9999,0.100000,99,0,0.000000,15,1.000000,25.370629,8.411564,99,99,0,0,0,0,0
10,109999,27,100000,97,0,40,9999,0.100000,99,0,0.000000,15,1.000000,26.345620,5.376748,99,99,0,0,0,0,0
10,109999,28,100000,95,10000,40,9999,0.100000,99,0,0.000000,15,0.000000,29.263769,1.578652,99,99,0,0,0,0,0
10,109999,29,100000,93,0,40,9999,0.100000,99,0,0.000000,15,0.000000,30.690599,1.502635,99,99,0,0,0,0,0
10,109999,30,100000,95,10000,0,9999,0.100000,99,0,1.298682,15,0.000000,27.162911,0.534832,99,99,0,0,0,0,1
10,109999,31,100000,0,0,40,9999,0.100000,99,0,0.000000,15,1.000000,25.662668,11.358795,99,99,0,0,0,0,0
10,109999,32,100000,93,0,41,9999,0.100000,99,0,0.000000,15,3.000000,19.917954,13.788073,99,99,0,0,0,0,0
10,109999,33,100000,25,60000,41,9999,0.100000,99,0,0.000000,15,4.000000,22.638007,13.085443,99,99,0,0,0,0,0
10,109999,34,100000,95,10000,40,9999,0.100000,99,0,0.000000,15,0.000000,36.971182,0.109111,99,99,0,0,0,0,0
10,109999,35,100000,40,0,0,9999,0.100000,99,0,0.001846,15,0.000000,25.437468,0.130798,99,99,0,0,1,0,0
10,109999,36,100000,95,10000,40,9999,0.100000,99,0,0.000000,15,0.000000,26.069043,2.596405,99,99,0,0,0,0,0
10,109999,37,100000,40,0,40,9999,0.100000,99,0,0.000000,15,2.000000,26.002158,5.191351,99,99,0,0,0,0,0
10,109999,38,100000,68,80000,40,9999,0.100000,99,0,0.000000,15,0.000000,19.146941,0.354972,99,99,0,0,0,0,0
10,109999,39,100000,1,80000,40,9999,0.100000,99,0,0.000000,15,0.000000,31.903415,0.143420,99,99,0,0,0,0,0
10,109999,40,100000,34,0,40,9999,0.100000,99,0,0.000000,15,0.000000,29.891395,0.114877,99,99,0,0,0,0,0
10,109999,41,100000,68,80000,40,9999,0.100000,99,0,0.000000,15,0.000000,26.409579,0.938601,99,99,0,0,0,0,0
10,109999,42,100000,91,0,40,9999,0.100000,99,0,0.000000,15,0.000000,14.835613,0.868615,99,99,0,0,0,0,0
10,109999,43,100000,10,80000,40,9999,0.100000,99,0,0.000000,15,3.000000,30.649862,12.830865,99,99,0,0,0,0,0
10,109999,44,100000,12,0,40,9999,0.100000,99,0,0.000000,15,0.000000,30.998495,23.085958,99,99,0,0,0,0,0
10,109999,45,100000,97,0,40,9999,0.100000,99,0,0.000000,15,1.000000,25.847889,3.235091,99,99,0,0,0,0,0
10,109999,46,100000,93,0,40,9999,0.100000,99,0,0.000000,15,0.000000,20.020842,4.100844,99,99,0,0,0,0,0
10,109999,47,100000,70,80000,40,9999,0.100000,99,0,0.000000,15,1.000000,25.747271,8.307732,99,99,0,0,0,0,0
10,109999,48,100000,68,80000,40,9999,0.100000,99,0,0.000000,15,0.000000,18.880554,0.452064,99,99,0,0,0,0,0
10,109999,49,100000,68,80000,40,9999,0.100000,99,0,0.000000,15,1.000000,16.400089,1.741291,99,99,0,0,0,0,0
10,109999,50,100000,12,0,40,9999,0.100000,99,0,0.000000,15,0.000000,16.849646,0.130940,99,99,0,0,0,0,0
10,109999,51,100000,10,80000,40,9999,0.100000,99,0,0.000000,15,0.000000,30.377510,0.963242,99,99,0,0,0,0,0
10,109999,52,100000,68,80000,40,9999,0.100000,99,0,0.000000,15,0.000000,31.768617,0.146486,99,99,0,0,0,0,0
10,109999,53,100000,68,80000,0,9999,0.100000,99,0,4.332731,15,1.000000,16.280191,1.412834,99,99,0,1,0,0,0
10,109999,54,100000,1,20000,0,9999,0.100000,99,0,0.002859,15,0.000000,12.133841,0.104374,99,99,0,0,0,1,0
10,109999,55,100000,12,0,40,9999,0.100000,99,0,0.000000,15,1.000000,25.984012,4.231196,99,99,0,0,0,0,0
10,109999,56,100000,1,20000,40,9999,0.100000,99,0,0.000000,15,0.000000,31.760406,0.898865,99,99,0,0,0,0,0
10,109999,57,100000,1,20000,41,9999,0.100000,99,0,0.000000,15,5.000000,26.695962,9.668897,99,99,0,0,0,0,0
10,109999,58,100000,10,80000,40,9999,0.100000,99,0,0.000000,15,0.000000,30.981802,0.997296,99,99,0,0,0,0,0
10,109999,59,100000,93,0,40,9999,0.100000,99,0,0.000000,15,0.000000,30.480308,4.682861,99,99,0,0,0,0,0
10,109999,60,100000,93,0,40,9999,0.100000,99,0,0.000000,15,0.000000,26.569051,0.772290,99,99,0,0,0,0,0
10,109999,61,100000,12,0,40,9999,0.100000,99,0,0.000000,15,0.000000,26.182393,0.735592,99,99,0,0,0,0,0
10,109999,62,100000,70,80000,40,9999,0.100000,99,0,0.000000,15,1.000000,19.995516,7.309534,99,99,0,0,0,0,0
10,109999,63,100000,12,0,40,9999,0.100000,99,0,0.000000,15,0.000000,27.145241,0.594949,99,99,0,0,0,0,0
10,109999,64,100000,45,20000,40,9999,0.100000,99,0,0.000000,15,0.000000,19.642811,1.725354,99,99,0,0,0,0,0
10,109999,65,100000,45,20000,40,9999,0.100000,99,0,0.000000,15,0.000000,19.916403,0.634303,99,99,0,0,0,0,0
10,109999,66,100000,10,80000,40,9999,0.100000,99,0,0.000000,15,1.000000,26.700577,11.542205,99,99,0,0,0,0,0
10,109999,67,100000,0,0,40,9999,0.100000,99,0,0.000000,15,1.000000,29.371184,15.094239,99,99,0,0,0,0,0
10,109999,68,100000,12,0,42,9999,0.100000,99,0,0.000000,15,5.000000,22.773381,10.979531,99,99,0,0,0,0,0
10,109999,69,100000,95,10000,40,9999,0.100000,99,0,0.000000,15,0.000000,28.571831,5.447709,99,99,0,0,0,0,0
10,109999,70,100000,34,0,40,9999,0.100000,99,0,0.000000,15,0.000000,16.601418,0.226198,99,99,0,0,0,0,0
10,109999,71,100000,10,80000,45,9999,0.100000,99,0,0.000000,15,16.000000,29.087281,20.940916,99,99,0,0,0,0,0
10,109999,72,100000,40,0,40,9999,0.100000,99,0,0.000000,15,0.000000,18.613743,2.968043,99,99,0,0,0,0,0
10,109999,73,100000,25,60000,0,9999,0.100000,99,0,0.240312,15,0.000000,25.262230,0.741296,99,99,0,1,0,0,0
10,109999,74,100000,1,20000,40,9999,0.100000,99,0,0.000000,15,0.000000,24.396762,10.928140,99,99,0,0,0,0,0
10,109999,75,100000,40,0,40,9999,0.100000,99,0,0.000000,15,0.000000,22.475102,3.888192,99,99,0,0,0,0,0
10,109999,76,100000,45,20000,40,9999,0.100000,99,0,0.000000,15,0.000000,30.775493,4.820531,99,99,0,0,0,0,0
10,109999,77,100000,93,0,40,9999,0.100000,99,0,0.000000,15,0.000000,10.860010,1.506076,99,99,0,0,0,0,0
10,109999,78,100000,95,10000,40,9999,0.100000,99,0,0.000000,15,0.000000,14.829931,0.247145,99,99,0,0,0,0,0
10,109999,79,100000,34,0,40,9999,0.100000,99,0,0.000000,15,0.000000,23.041375,0.523352,99,99,0,0,0,0,0
10,109999,80,100000,1,20000,40,9999,0.100000,99,0,0.000000,15,0.000000,20.687908,0.910753,99,99,0,0,0,0,0
10,109999,81,100000,12,0,41,9999,0.100000,99,0,0.000000,15,4.000000,30.281622,8.083348,99,99,0,0,0,0,0
10,109999,82,100000,1,80000,40,9999,0.100000,99,0,0.000000,15,1.000000,30.541831,6.707297,99,99,0,0,0,0,0
10,109999,83,100000,97,0,40,9999,0.100000,99,0,0.000000,15,0.000000,23.025956,0.490079,99,99,0,0,0,0,0
10,109999,84,100000,91,0,40,9999,0.100000,99,0,0.000000,15,2.000000,30.720136,12.465221,99,99,0,0,0,0,0
10,109999,85,100000,40,0,40,9999,0.100000,99,0,0.000000,15,2.000000,23.872170,3.201167,99,99,0,0,0,0,0
10,109999,86,100000,12,0,40,9999,0.100000,99,0,0.000000,15,0.000000,30.793914,0.235673,99,99,0,0,0,0,0
10,109999,87,100000,68,80000,40,9999,0.100000,99,0,0.000000,15,0.000000,29.278976,1.238978,99,99,0,0,0,0,0
10,109999,88,100000,91,0,40,9999,0.100000,99,0,0.000000,15,0.000000,30.960345,0.424512,99,99,0,0,0,0,0
10,109999,89,100000,10,80000,0,9999,0.100000,99,0,0.008402,15,0.000000,19.244791,0.191263,99,99,0,0,1,0,0
10,109999,90,100000,1,20000,40,9999,0.100000,99,0,0.000000,15,1.000000,33.999464,3.900686,99,99,0,0,0,0,0
10,109999,91,100000,70,80000,41,9999,0.100000,99,0,0.000000,15,5.000000,30.690176,10.581278,99,99,0,0,0,0,0
10,109999,92,100000,97,0,40,9999,0.100000,99,0,0.000000,15,0.000000,30.798990,23.593426,99,99,0,0,0,0,0
10,109999,93,100000,95,10000,40,9999,0.100000,99,0,0.000000,15,1.000000,28.025283,6.825637,99,99,0,0,0,0,0
10,109999,94,100000,1,80000,40,9999,0.100000,99,0,0.000000,15,0.000000,14.661204,2.084162,99,99,0,0,0,0,0
10,109999,95,100000,68,80000,40,9999,0.100000,99,0,0.000000,15,0.000000,26.289269,0.959551,99,99,0,0,0,0,0
10,109999,96,100000,12,0,40,9999,0.100000,99,0,0.000000,15,0.000000,27.312091,11.206336,99,99,0,0,0,0,0
10,109999,97,100000,91,0,40,9999,0.100000,99,0,0.000000,15,0.000000,37.057840,0.106658,99,99,0,0,0,0,0
10,109999,98,100000,25,60000,40,9999,0.100000,99,0,0.000000,15,0.000000,19.779666,0.452483,99,99,0,0,0,0,0
10,109999,99,100000,45,20000,40,9999,0.100000,99,0,0.000000,15,1.000000,30.652195,6.698099,99,99,0,0,0,0,0
11,119999,0,110000,95,10000,0,9999,0.100000,99,0,0.045273,15,0.000000,17.085599,0.141289,99,99,0,0,1,0,0
11,119999,1,110000,95,10000,0,9999,0.065000,99,0,0.230667,15,0.000000,30.576310,0.984203,99,99,0,0,1,0,0
11,119999,2,110000,93,0,40,9999,0.100000,99,0,0.000000,15,1.000000,28.917028,9.538976,99,99,0,0,0,0,0
11,119999,3,110000,10,80000,40,9999,0.100000,99,0,0.000000,15,1.000000,19.449655,8.309550,99,99,0,0,0,0,0
11,119999,4,110000,97,0,40,9999,0.100000,99,0,0.000000,16,2.000000,27.133850,7.118648,99,99,0,0,0,0,0
11,119999,5,110000,97,0,40,9999,0.100000,99,0,0.000000,15,0.000000,21.592057,9.709203,99,99,0,0,0,0,0
11,119999,6,110000,93,0,0,9999,0.100000,99,0,0.335515,16,0.000000,30.982639,0.738817,99,99,0,0,0,0,1
11,119999,7,110000,71,100000,0,9999,0.100000,99,0,0.003829,16,0.000000,22.206174,0.478321,99,99,0,0,0,0,1
11,119999,8,110000,68,80000,0,9999,0.100000,99,0,0.113727,16,0.000000,14.821783,0.144079,99,99,0,0,0,1,0
11,119999,9,110000,34,0,0,9999,0.100000,99,0,1.047288,15,0.000000,19.526826,0.344367,99,99,0,0,0,0,1
11,119999,10,110000,97,0,40,9999,0.100000,99,0,0.000000,15,0.000000,19.101150,0.234847,99,99,0,0,0,0,0
11,119999,11,110000,25,60000,40,9999,0.100000,99,0,0.000000,16,0.000000,29.648064,3.411820,99,99,0,0,0,0,0
11,119999,12,110000,1,20000,40,9999,0.100000,99,0,0.000000,15,2.000000,29.476561,2.704558,99,99,0,0,0,0,0
11,119999,13,110000,34,0,41,9999,0.100000,99,0,0.000000,15,4.000000,33.293101,19.407074,99,99,0,0,0,0,0
11,119999,14,110000,1,80000,40,9999,0.100000,99,0,0.000000,15,0.000000,27.076815,0.669268,99,99,0,0,0,0,0
11,119999,15,110000,40,0,40,9999,0.100000,99,0,0.000000,16,0.000000,27.255525,3.974284,99,99,0,0,0,0,0
11,119999,16,110000,71,100000,0,9999,0.100000,99,0,0.793572,16,0.000000,25.960781,1.111119,99,99,0,0,0,1,0
11,119999,17,110000,25,60000,40,9999,0.100000,99,0,0.000000,15,0.000000,26.226796,1.002540,99,99,0,0,0,0,0
11,119999,18,110000,0,0,40,9999,0.100000,99,0,0.000000,16,0.000000,29.200695,0.655695,99,99,0,0,0,0,0
11,119999,19,110000,1,80000,40,9999,0.100000,99,0,0.000000,15,0.000000,31.082514,1.011491,99,99,0,0,0,0,0
11,119999,20,110000,93,0,40,9999,0.100000,99,0,0.000000,16,0.000000,22.852785,0.344140,99,99,0,0,0,0,0
11,119999,21,110000,40,0,40,9999,0.100000,99,0,0.000000,16,0.000000,27.098724,1.214548,99,99,0,0,0,0,0
11,119999,22,110000,40,0,40,9999,0.100000,99,0,0.000000,15,0.000000,31.346204,1.111019,99,99,0,0,0,0,0
11,119999,23,110000,12,0,40,9999,0.100000,99,0,0.000000,16,0.000000,25.009270,20.947608,99,99,0,0,0,0,0
11,119999,24,110000,1,20000,40,9999,0.100000,99,0,0.000000,16,1.000000,26.774395,9.773889,99,99,0,0,0,0,0
11,119999,25,110000,1,20000,40,9999,0.100000,99,0,0.000000,15,0.000000,28.846787,9.765946,99,99,0,0,0,0,0
11,119999,26,110000,70,80000,41,9999,0.100000,99,0,0.000000,15,3.000000,26.860806,13.505878,99,99,0,0,0,0,0
11,119999,27,110000,25,60000,40,9999,0.100000,99,0,0.000000,15,2.000000,26.456638,12.611450,99,99,0,0,0,0,0
11,119999,28,110000,34,0,40,9999,0.100000,99,0,0.000000,16,0.000000,29.249892,0.598108,99,99,0,0,0,0,0
11,119999,29,110000,40,0,40,9999,0.100000,99,0,0.000000,16,0.000000,30.668038,1.310111,99,99,0,0,0,0,0
11,119999,30,110000,45,20000,0,9999,0.100000,99,0,0.644699,16,0.000000,27.041244,0.518956,99,99,0,0,0,0,1
11,119999,31,110000,1,20000,40,9999,0.100000,99,0,0.000000,16,1.000000,25.872580,10.948611,99,99,0,0,0,0,0
11,119999,32,110000,97,0,40,9999,0.100000,99,0,0.000000,16,1.000000,23.858095,4.527212,99,99,0,0,0,0,0
11,119999,33,110000,1,80000,40,9999,0.100000,99,0,0.000000,16,2.000000,26.239737,12.588056,99,99,0,0,0,0,0
11,119999,34,110000,1,20000,40,9999,0.100000,99,0,0.000000,15,0.000000,36.953746,0.105233,99,99,0,0,0,0,0
11,119999,35,110000,97,0,0,9999,0.100000,99,0,0.025568,16,0.000000,25.437980,0.190218,99,99,0,0,1,0,0
11,119999,36,110000,34,0,40,9999,0.100000,99,0,0.000000,15,1.000000,25.761101,4.681872,99,99,0,0,0,0,0
11,119999,37,110000,34,0,40,9999,0.100000,99,0,0.000000,15,0.000000,24.033011,1.001886,99,99,0,0,0,0,0
11,119999,38,110000,40,0,40,9999,0.100000,99,0,0.000000,16,0.000000,19.325930,0.351601,99,99,0,0,0,0,0
11,119999,39,110000,71,100000,40,9999,0.100000,99,0,0.000000,16,0.000000,31.903108,0.134594,99,99,0,0,0,0,0
11,119999,40,110000,12,0,40,9999,0.100000,99,0,0.000000,16,0.000000,29.891313,0.109587,99,99,0,0,0,0,0
11,119999,41,110000,70,80000,40,9999,0.100000,99,0,0.000000,16,0.000000,26.425487,0.450438,99,99,0,0,0,0,0
11,119999,42,110000,91,0,40,9999,0.100000,99,0,0.000000,15,0.000000,14.742571,0.814676,99,99,0,0,0,0,0
11,119999,43,110000,1,20000,40,9999,0.100000,99,0,0.000000,15,1.000000,27.611073,9.894196,99,99,0,0,0,0,0
11,119999,44,110000,12,0,40,9999,0.100000,99,0,0.000000,15,0.000000,31.108491,10.788355,99,99,0,0,0,0,0
11,119999,45,110000,10,80000,40,9999,0.100000,99,0,0.000000,16,2.000000,27.320816,6.231070,99,99,0,0,0,0,0
11,119999,46,110000,10,80000,40,9999,0.100000,99,0,0.000000,15,1.000000,20.658146,9.060592,99,99,0,0,0,0,0
11,119999,47,110000,71,100000,40,9999,0.100000,99,0,0.000000,16,1.000000,25.636174,7.503787,99,99,0,0,0,0,0
11,119999,48,110000,93,0,40,9999,0.100000,99,0,0.000000,15,0.000000,19.064906,0.455651,99,99,0,0,0,0,0
11,119999,49,110000,70,80000,41,9999,0.100000,99,0,0.000000,16,2.000000,15.989807,2.989758,99,99,0,0,0,0,0
11,119999,50,110000,40,0,40,9999,0.100000,99,0,0.000000,16,0.000000,16.848700,0.131816,99,99,0,0,0,0,0
11,119999,51,110000,1,20000,40,9999,0.100000,99,0,0.000000,15,0.000000,30.494196,1.495642,99,99,0,0,0,0,0
11,119999,52,110000,40,0,40,9999,0.100000,99,0,0.000000,16,0.000000,31.767990,0.138129,99,99,0,0,0,0,0
11,119999,53,110000,25,60000,1,9999,0.100000,99,0,8.718632,16,2.000000,15.866051,2.818387,99,99,0,1,0,0,0
11,119999,54,110000,40,0,0,9999,0.100000,99,0,0.002736,16,0.000000,12.133307,0.103488,99,99,0,0,0,1,0
11,119999,55,110000,97,0,40,9999,0.100000,99,0,0.000000,15,2.000000,27.843340,5.921516,99,99,0,0,0,0,0
11,119999,56,110000,45,20000,40,9999,0.100000,99,0,0.000000,15,0.000000,32.048154,2.897986,99,99,0,0,0,0,0
11,119999,57,110000,1,80000,40,9999,0.100000,99,0,0.000000,16,0.000000,28.567751,0.589383,99,99,0,0,0,0,0
11,119999,58,110000,95,10000,40,9999,0.100000,99,0,0.000000,16,0.000000,31.100175,2.707756,99,99,0,0,0,0,0
11,119999,59,110000,40,0,40,9999,0.100000,99,0,0.000000,15,1.000000,30.852860,5.630002,99,99,0,0,0,0,0
11,119999,60,110000,1,80000,40,9999,0.100000,99,0,0.000000,15,0.000000,26.160859,0.771889,99,99,0,0,0,0,0
11,119999,61,110000,71,100000,40,9999,0.100000,99,0,0.000000,16,0.000000,26.136246,0.394923,99,99,0,0,0,0,0
11,119999,62,110000,0,0,40,9999,0.100000,99,0,0.000000,15,0.000000,18.559565,8.628783,99,99,0,0,0,0,0
11,119999,63,110000,0,0,40,9999,0.100000,99,0,0.000000,16,0.000000,27.019191,0.793640,99,99,0,0,0,0,0
11,119999,64,110000,40,0,40,9999,0.100000,99,0,0.000000,16,1.000000,20.487624,2.195167,99,99,0,0,0,0,0
11,119999,65,110000,45,20000,40,9999,0.100000,99,0,0.000000,15,0.000000,20.082860,0.906437,99,99,0,0,0,0,0
11,119999,66,110000,0,0,40,9999,0.100000,99,0,0.000000,16,1.000000,25.358751,10.612521,99,99,0,0,0,0,0
11,119999,67,110000,71,100000,40,9999,0.100000,99,0,0.000000,16,3.000000,29.223494,11.537120,99,99,0,0,0,0,0
11,119999,68,110000,12,0,40,9999,0.100000,99,0,0.000000,15,0.000000,23.004677,4.239346,99,99,0,0,0,0,0
11,119999,69,110000,34,0,40,9999,0.100000,99,0,0.000000,16,1.000000,28.840929,7.091291,99,99,0,0,0,0,0
11,119999,70,110000,1,20000,40,9999,0.100000,99,0,0.000000,15,0.000000,16.599048,0.239418,99,99,0,0,0,0,0
11,119999,71,110000,91,0,41,9999,0.100000,99,0,0.000000,16,3.000000,21.131529,5.541317,99,99,0,0,0,0,0
11,119999,72,110000,1,80000,42,9999,0.100000,99,0,0.000000,16,5.000000,18.579442,13.095248,99,99,0,0,0,0,0
11,119999,73,110000,70,80000,0,9999,0.100000,99,0,0.018005,16,0.000000,24.782764,0.194318,99,99,0,1,0,0,0
11,119999,74,110000,0,0,40,9999,0.100000,99,0,0.000000,16,2.000000,23.543345,12.461392,99,99,0,0,0,0,0
11,119999,75,110000,40,0,40,9999,0.100000,99,0,0.000000,15,0.000000,22.010296,1.867596,99,99,0,0,0,0,0
11,119999,76,110000,40,0,40,9999,0.100000,99,0,0.000000,16,0.000000,30.537411,3.695087,99,99,0,0,0,0,0
11,119999,77,110000,91,0,40,9999,0.100000,99,0,0.000000,16,0.000000,10.860004,1.511863,99,99,0,0,0,0,0
11,119999,78,110000,95,10000,40,9999,0.100000,99,0,0.000000,16,0.000000,14.783713,0.222953,99,99,0,0,0,0,0
11,119999,79,110000,70,80000,40,9999,0.100000,99,0,0.000000,16,0.000000,22.975711,0.525032,99,99,0,0,0,0,0
11,119999,80,110000,70,80000,40,9999,0.100000,99,0,0.000000,15,1.000000,20.011698,5.238185,99,99,0,0,0,0,0
11,119999,81,110000,40,0,40,9999,0.100000,99,0,0.000000,16,0.000000,26.459553,2.734010,99,99,0,0,0,0,0
11,119999,82,110000,12,0,40,9999,0.100000,99,0,0.000000,16,2.000000,30.730583,4.903764,99,99,0,0,0,0,0
11,119999,83,110000,0,0,40,9999,0.100000,99,0,0.000000,15,0.000000,22.963757,0.490416,99,99,0,0,0,0,0
11,119999,84,110000,70,80000,40,9999,0.100000,99,0,0.000000,16,1.000000,28.038054,12.536212,99,99,0,0,0,0,0
