generation,iteration,robot,birthday,ancestor_id,ancestor_birthday,cell_id,age,sigma,maps,genomes,fitness,cells_in_map,dist_max,dist_pot_max,dist_total,com_rx,com_tx,obj_group1,obj_group2,obj_group3,obj_group4,obj_group5
0,9999,0,0,0,0,1,9999,0.100000,0,0,0.000000,0,4.000000,0.000000,12.681974,0,0,0,0,0,0,0
0,9999,1,0,1,0,1,9999,0.100000,0,0,0.000000,0,8.000000,0.000000,11.268998,0,0,0,0,0,0,0
0,9999,2,0,2,0,1,9999,0.100000,0,0,0.000000,0,10.000000,0.000000,24.682473,0,0,0,0,0,0,0
0,9999,3,0,3,0,1,9999,0.100000,0,0,0.000000,0,6.000000,0.000000,16.404275,0,0,0,0,0,0,0
0,9999,4,0,4,0,1,9999,0.100000,0,0,0.000000,0,6.000000,0.000000,10.897741,0,0,0,0,0,0,0
0,9999,5,0,5,0,1,9999,0.100000,0,0,0.000000,0,11.000000,0.000000,13.975062,0,0,0,0,0,0,0
0,9999,6,0,6,0,1,9999,0.100000,0,0,0.000000,0,8.000000,0.000000,9.079758,0,0,0,0,0,0,0
0,9999,7,0,7,0,1,9999,0.100000,0,0,0.000000,0,6.000000,0.000000,9.227308,0,0,0,0,0,0,0
0,9999,8,0,8,0,1,9999,0.100000,0,0,0.000000,0,7.000000,0.000000,15.313209,0,0,0,0,0,0,0
0,9999,9,0,9,0,1,9999,0.100000,0,0,0.000000,0,4.000000,0.000000,12.274618,0,0,0,0,0,0,0
0,9999,10,0,10,0,1,9999,0.100000,0,0,0.000000,0,11.000000,0.000000,21.071102,0,0,0,0,0,0,0
0,9999,11,0,11,0,1,9999,0.100000,0,0,0.000000,0,2.000000,0.000000,6.538370,0,0,0,0,0,0,0
0,9999,12,0,12,0,1,9999,0.100000,0,0,0.000000,0,7.000000,0.000000,10.946460,0,0,0,0,0,0,0
0,9999,13,0,13,0,1,9999,0.100000,0,0,0.000000,0,10.000000,0.000000,21.176897,0,0,0,0,0,0,0
0,9999,14,0,14,0,1,9999,0.100000,0,0,0.000000,0,3.000000,0.000000,9.813904,0,0,0,0,0,0,0
0,9999,15,0,15,0,1,9999,0.100000,0,0,0.000000,0,11.000000,0.000000,22.856929,0,0,0,0,0,0,0
0,9999,16,0,16,0,1,9999,0.100000,0,0,0.000000,0,4.000000,0.000000,23.195717,0,0,0,0,0,0,0
0,9999,17,0,17,0,1,9999,0.100000,0,0,0.000000,0,7.000000,0.000000,10.128621,0,0,0,0,0,0,0
0,9999,18,0,18,0,1,9999,0.100000,0,0,0.000000,0,9.000000,0.000000,13.184303,0,0,0,0,0,0,0
0,9999,19,0,19,0,1,9999,0.100000,0,0,0.000000,0,12.000000,0.000000,24.508532,0,0,0,0,0,0,0
0,9999,20,0,20,0,1,9999,0.100000,0,0,0.000000,0,5.000000,0.000000,7.926269,0,0,0,0,0,0,0
0,9999,21,0,21,0,1,9999,0.100000,0,0,0.000000,0,7.000000,0.000000,11.574421,0,0,0,0,0,0,0
0,9999,22,0,22,0,1,9999,0.100000,0,0,0.000000,0,11.000000,0.000000,17.539269,0,0,0,0,0,0,0
0,9999,23,0,23,0,1,9999,0.100000,0,0,0.000000,0,10.000000,0.000000,15.956433,0,0,0,0,0,0,0
0,9999,24,0,24,0,1,9999,0.100000,0,0,0.000000,0,8.000000,0.000000,11.890717,0,0,0,0,0,0,0
0,9999,25,0,25,0,1,9999,0.100000,0,0,0.000000,0,10.000000,0.000000,11.750352,0,0,0,0,0,0,0
0,9999,26,0,26,0,1,9999,0.100000,0,0,0.000000,0,12.000000,0.000000,13.528872,0,0,0,0,0,0,0
0,9999,27,0,27,0,1,9999,0.100000,0,0,0.000000,0,9.000000,0.000000,19.510247,0,0,0,0,0,0,0
0,9999,28,0,28,0,1,9999,0.100000,0,0,0.000000,0,9.000000,0.000000,27.703749,0,0,0,0,0,0,0
0,9999,29,0,29,0,1,9999,0.100000,0,0,0.000000,0,5.000000,0.000000,13.986164,0,0,0,0,0,0,0
0,9999,30,0,30,0,1,9999,0.100000,0,0,0.000000,0,8.000000,0.000000,23.466507,0,0,0,0,0,0,0
0,9999,31,0,31,0,1,9999,0.100000,0,0,0.000000,0,10.000000,0.000000,20.901753,0,0,0,0,0,0,0
0,9999,32,0,32,0,1,9999,0.100000,0,0,0.000000,0,11.000000,0.000000,26.209516,0,0,0,0,0,0,0
0,9999,33,0,33,0,1,9999,0.100000,0,0,0.000000,0,9.000000,0.000000,21.126555,0,0,0,0,0,0,0
0,9999,34,0,34,0,1,9999,0.100000,0,0,0.000000,0,7.000000,0.000000,16.397580,0,0,0,0,0,0,0
0,9999,35,0,35,0,1,9999,0.100000,0,0,0.000000,0,9.000000,0.000000,21.174455,0,0,0,0,0,0,0
0,9999,36,0,36,0,1,9999,0.100000,0,0,0.000000,0,7.000000,0.000000,13.818795,0,0,0,0,0,0,0
0,9999,37,0,37,0,1,9999,0.100000,0,0,0.000000,0,6.000000,0.000000,11.002233,0,0,0,0,0,0,0
0,9999,38,0,38,0,1,9999,0.100000,0,0,0.000000,0,10.000000,0.000000,27.812065,0,0,0,0,0,0,0
0,9999,39,0,39,0,1,9999,0.100000,0,0,0.000000,0,9.000000,0.000000,13.852153,0,0,0,0,0,0,0
0,9999,40,0,40,0,1,9999,0.100000,0,0,0.000000,0,9.000000,0.000000,13.942797,0,0,0,0,0,0,0
0,9999,41,0,41,0,1,9999,0.100000,0,0,0.000000,0,3.000000,0.000000,20.126297,0,0,0,0,0,0,0
0,9999,42,0,42,0,1,9999,0.100000,0,0,0.000000,0,10.000000,0.000000,19.425813,0,0,0,0,0,0,0
0,9999,43,0,43,0,1,9999,0.100000,0,0,0.000000,0,9.000000,0.000000,22.278353,0,0,0,0,0,0,0
0,9999,44,0,44,0,1,9999,0.100000,0,0,0.000000,0,9.000000,0.000000,23.424142,0,0,0,0,0,0,0
0,9999,45,0,45,0,1,9999,0.100000,0,0,0.000000,0,3.000000,0.000000,4.326603,0,0,0,0,0,0,0
0,9999,46,0,46,0,1,9999,0.100000,0,0,0.000000,0,3.000000,0.000000,3.979178,0,0,0,0,0,0,0
0,9999,47,0,47,0,1,9999,0.100000,0,0,0.000000,0,10.000000,0.000000,19.027348,0,0,0,0,0,0,0
0,9999,48,0,48,0,1,9999,0.100000,0,0,0.000000,0,4.000000,0.000000,8.869433,0,0,0,0,0,0,0
0,9999,49,0,49,0,1,9999,0.100000,0,0,0.000000,0,11.000000,0.000000,18.961575,0,0,0,0,0,0,0
0,9999,50,0,50,0,1,9999,0.100000,0,0,0.000000,0,9.000000,0.000000,23.708039,0,0,0,0,0,0,0
0,9999,51,0,51,0,1,9999,0.100000,0,0,0.000000,0,9.000000,0.000000,13.901947,0,0,0,0,0,0,0
0,9999,52,0,52,0,1,9999,0.100000,0,0,0.000000,0,9.000000,0.000000,19.836747,0,0,0,0,0,0,0
0,9999,53,0,53,0,1,9999,0.100000,0,0,0.000000,0,9.000000,0.000000,16.073219,0,0,0,0,0,0,0
0,9999,54,0,54,0,1,9999,0.100000,0,0,0.000000,0,3.000000,0.000000,10.683293,0,0,0,0,0,0,0
0,9999,55,0,55,0,1,9999,0.100000,0,0,0.000000,0,5.000000,0.000000,10.004492,0,0,0,0,0,0,0
0,9999,56,0,56,0,1,9999,0.100000,0,0,0.000000,0,12.000000,0.000000,27.384071,0,0,0,0,0,0,0
0,9999,57,0,57,0,1,9999,0.100000,0,0,0.000000,0,10.000000,0.000000,14.159252,0,0,0,0,0,0,0
0,9999,58,0,58,0,1,9999,0.100000,0,0,0.000000,0,8.000000,0.000000,18.678568,0,0,0,0,0,0,0
0,9999,59,0,59,0,1,9999,0.100000,0,0,0.000000,0,8.000000,0.000000,17.436810,0,0,0,0,0,0,0
0,9999,60,0,60,0,1,9999,0.100000,0,0,0.000000,0,11.000000,0.000000,27.555210,0,0,0,0,0,0,0
0,9999,61,0,61,0,1,9999,0.100000,0,0,0.000000,0,9.000000,0.000000,23.868448,0,0,0,0,0,0,0
0,9999,62,0,62,0,1,9999,0.100000,0,0,0.000000,0,9.000000,0.000000,11.774651,0,0,0,0,0,0,0
0,9999,63,0,63,0,1,9999,0.100000,0,0,0.000000,0,5.000000,0.000000,15.849798,0,0,0,0,0,0,0
0,9999,64,0,64,0,1,9999,0.100000,0,0,0.000000,0,9.000000,0.000000,21.542876,0,0,0,0,0,0,0
0,9999,65,0,65,0,1,9999,0.100000,0,0,0.000000,0,7.000000,0.000000,22.181887,0,0,0,0,0,0,0
0,9999,66,0,66,0,1,9999,0.100000,0,0,0.000000,0,8.000000,0.000000,24.179426,0,0,0,0,0,0,0
0,9999,67,0,67,0,1,9999,0.100000,0,0,0.000000,0,10.000000,0.000000,19.520237,0,0,0,0,0,0,0
0,9999,68,0,68,0,1,9999,0.100000,0,0,0.000000,0,10.000000,0.000000,28.585352,0,0,0,0,0,0,0
0,9999,69,0,69,0,1,9999,0.100000,0,0,0.000000,0,7.000000,0.000000,14.144458,0,0,0,0,0,0,0
0,9999,70,0,70,0,3,9999,0.100000,0,0,88.151405,0,8.000000,0.000000,32.567655,0,0,1,0,0,0,0
0,9999,71,0,71,0,1,9999,0.100000,0,0,0.000000,0,11.000000,0.000000,37.958281,0,0,0,0,0,0,0
0,9999,72,0,72,0,1,9999,0.100000,0,0,0.000000,0,8.000000,0.000000,15.872359,0,0,0,0,0,0,0
0,9999,73,0,73,0,1,9999,0.100000,0,0,0.000000,0,3.000000,0.000000,7.649824,0,0,0,0,0,0,0
0,9999,74,0,74,0,1,9999,0.100000,0,0,0.000000,0,8.000000,0.000000,20.388129,0,0,0,0,0,0,0
0,9999,75,0,75,0,1,9999,0.100000,0,0,0.000000,0,8.000000,0.000000,10.373826,0,0,0,0,0,0,0
0,9999,76,0,76,0,1,9999,0.100000,0,0,0.000000,0,6.000000,0.000000,25.696577,0,0,0,0,0,0,0
0,9999,77,0,77,0,1,9999,0.100000,0,0,0.000000,0,12.000000,0.000000,19.394584,0,0,0,0,0,0,0
0,9999,78,0,78,0,1,9999,0.100000,0,0,0.000000,0,4.000000,0.000000,7.013614,0,0,0,0,0,0,0
0,9999,79,0,79,0,1,9999,0.100000,0,0,0.000000,0,8.000000,0.000000,13.295396,0,0,0,0,0,0,0
0,9999,80,0,80,0,1,9999,0.100000,0,0,0.000000,0,13.000000,0.000000,22.151578,0,0,0,0,0,0,0
0,9999,81,0,81,0,1,9999,0.100000,0,0,0.000000,0,8.000000,0.000000,15.826056,0,0,0,0,0,0,0
0,9999,82,0,82,0,3,9999,0.100000,0,0,71.232116,0,8.000000,0.000000,23.444815,0,0,1,0,0,0,0
0,9999,83,0,83,0,1,9999,0.100000,0,0,0.000000,0,10.000000,0.000000,18.365438,0,0,0,0,0,0,0
0,9999,84,0,84,0,1,9999,0.100000,0,0,0.000000,0,7.000000,0.000000,22.591302,0,0,0,0,0,0,0
0,9999,85,0,85,0,1,9999,0.100000,0,0,0.000000,0,8.000000,0.000000,22.076084,0,0,0,0,0,0,0
0,9999,86,0,86,0,1,9999,0.100000,0,0,0.000000,0,9.000000,0.000000,25.375581,0,0,0,0,0,0,0
0,9999,87,0,87,0,1,9999,0.100000,0,0,0.000000,0,9.000000,0.000000,23.692006,0,0,0,0,0,0,0
0,9999,88,0,88,0,1,9999,0.100000,0,0,0.000000,0,9.000000,0.000000,18.035374,0,0,0,0,0,0,0
0,9999,89,0,89,0,1,9999,0.100000,0,0,0.000000,0,10.000000,0.000000,17.995685,0,0,0,0,0,0,0
0,9999,90,0,90,0,1,9999,0.100000,0,0,0.000000,0,8.000000,0.000000,16.552431,0,0,0,0,0,0,0
0,9999,91,0,91,0,1,9999,0.100000,0,0,0.000000,0,5.000000,0.000000,9.927345,0,0,0,0,0,0,0
0,9999,92,0,92,0,1,9999,0.100000,0,0,0.000000,0,7.000000,0.000000,14.954800,0,0,0,0,0,0,0
0,9999,93,0,93,0,1,9999,0.100000,0,0,0.000000,0,6.000000,0.000000,7.607966,0,0,0,0,0,0,0
0,9999,94,0,94,0,1,9999,0.100000,0,0,0.000000,0,6.000000,0.000000,11.816741,0,0,0,0,0,0,0
0,9999,95,0,95,0,1,9999,0.100000,0,0,0.000000,0,10.000000,0.000000,16.826968,0,0,0,0,0,0,0
0,9999,96,0,96,0,1,9999,0.100000,0,0,0.000000,0,7.000000,0.000000,12.456289,0,0,0,0,0,0,0
0,9999,97,0,97,0,1,9999,0.100000,0,0,0.000000,0,8.000000,0.000000,12.231750,0,0,0,0,0,0,0
0,9999,98,0,98,0,1,9999,0.100000,0,0,0.000000,0,9.000000,0.000000,25.483135,0,0,0,0,0,0,0
0,9999,99,0,99,0,1,9999,0.100000,0,0,0.000000,0,9.000000,0.000000,16.796108,0,0,0,0,0,0,0
1,19999,0,10000,5,0,1,9999,0.100000,0,0,0.000000,1,1.000000,0.000000,7.250709,0,0,0,0,0,0,0
1,19999,1,10000,5,0,1,9999,0.100000,0,0,0.000000,1,4.000000,0.000000,16.666801,0,0,0,0,0,0,0
1,19999,2,10000,5,0,0,9999,0.100000,0,0,0.000000,1,0.000000,0.000000,0.572961,0,0,0,0,0,0,0
1,19999,3,10000,5,0,1,9999,0.100000,0,0,0.000000,1,1.000000,0.000000,15.827530,0,0,0,0,0,0,0
1,19999,4,10000,5,0,1,9999,0.100000,0,0,0.000000,1,3.000000,0.000000,16.435957,0,0,0,0,0,0,0
1,19999,5,10000,5,0,0,9999,0.100000,0,0,0.000000,1,0.000000,0.000000,0.746330,0,0,0,0,0,0,0
1,19999,6,10000,5,0,0,9999,0.100000,0,0,0.000000,1,0.000000,0.000000,0.475479,0,0,0,0,0,0,0
1,19999,7,10000,5,0,1,9999,0.100000,0,0,0.000000,1,1.000000,0.000000,1.507334,0,0,0,0,0,0,0
1,19999,8,10000,5,0,1,9999,0.100000,0,0,0.000000,1,3.000000,0.000000,23.666524,0,0,0,0,0,0,0
1,19999,9,10000,5,0,1,9999,0.100000,0,0,0.000000,1,2.000000,0.000000,19.765380,0,0,0,0,0,0,0
1,19999,10,10000,5,0,0,9999,0.100000,0,0,0.000000,1,0.000000,0.000000,0.796257,0,0,0,0,0,0,0
1,19999,11,10000,5,0,0,9999,0.100000,0,0,0.000000,1,0.000000,0.000000,0.046954,0,0,0,0,0,0,0
1,19999,12,10000,5,0,0,9999,0.100000,0,0,0.000000,1,0.000000,0.000000,0.363794,0,0,0,0,0,0,0
1,19999,13,10000,5,0,1,9999,0.100000,0,0,0.000000,1,4.000000,0.000000,18.084912,0,0,0,0,0,0,0
1,19999,14,10000,5,0,0,9999,0.100000,0,0,0.000000,1,0.000000,0.000000,0.532135,0,0,0,0,0,0,0
1,19999,15,10000,5,0,1,9999,0.100000,0,0,0.000000,1,5.000000,0.000000,9.114496,0,0,0,0,0,0,0
1,19999,16,10000,5,0,1,9999,0.100000,0,0,0.000000,1,1.000000,0.000000,5.939377,0,0,0,0,0,0,0
1,19999,17,10000,5,0,0,9999,0.100000,0,0,0.000000,1,0.000000,0.000000,0.752149,0,0,0,0,0,0,0
1,19999,18,10000,5,0,1,9999,0.100000,0,0,0.000000,1,1.000000,0.000000,3.072754,0,0,0,0,0,0,0
1,19999,19,10000,5,0,1,9999,0.100000,0,0,0.000000,1,1.000000,0.000000,4.629520,0,0,0,0,0,0,0
1,19999,20,10000,5,0,0,9999,0.100000,0,0,0.000000,1,0.000000,0.000000,1.035452,0,0,0,0,0,0,0
1,19999,21,10000,5,0,1,9999,0.100000,0,0,0.000000,2,3.000000,0.000000,15.694188,0,0,0,0,0,0,0
1,19999,22,10000,5,0,1,9999,0.100000,0,0,0.000000,2,6.000000,0.000000,22.100372,0,0,0,0,0,0,0
1,19999,23,10000,5,0,1,9999,0.100000,0,0,0.000000,2,6.000000,0.000000,20.484220,0,0,0,0,0,0,0
1,19999,24,10000,5,0,1,9999,0.100000,0,0,0.000000,2,1.000000,0.000000,3.408720,0,0,0,0,0,0,0
1,19999,25,10000,5,0,0,9999,0.100000,0,0,0.000000,1,0.000000,0.000000,0.921128,0,0,0,0,0,0,0
1,19999,26,10000,5,0,1,9999,0.100000,0,0,0.000000,1,2.000000,0.000000,3.974464,0,0,0,0,0,0,0
1,19999,27,10000,5,0,1,9999,0.100000,0,0,0.000000,1,4.000000,0.000000,6.471753,0,0,0,0,0,0,0
1,19999,28,10000,5,0,1,9999,0.100000,0,0,0.000000,1,7.000000,0.000000,20.193627,0,0,0,0,0,0,0
1,19999,29,10000,5,0,0,9999,0.100000,0,0,0.000000,1,0.000000,0.000000,0.465093,0,0,0,0,0,0,0
1,19999,30,10000,5,0,1,9999,0.100000,0,0,0.000000,1,1.000000,0.000000,2.475887,0,0,0,0,0,0,0
1,19999,31,10000,5,0,1,9999,0.100000,0,0,0.000000,1,4.000000,0.000000,17.466675,0,0,0,0,0,0,0
1,19999,32,10000,5,0,1,9999,0.100000,0,0,0.000000,1,5.000000,0.000000,21.229562,0,0,0,0,0,0,0
1,19999,33,10000,5,0,0,9999,0.100000,0,0,0.000000,1,0.000000,0.000000,0.564645,0,0,0,0,0,0,0
1,19999,34,10000,5,0,1,9999,0.100000,0,0,0.000000,1,4.000000,0.000000,25.291340,0,0,0,0,0,0,0
1,19999,35,10000,5,0,1,9999,0.100000,0,0,34.210526,1,15.000000,0.000000,21.538153,0,0,0,1,0,0,0
1,19999,36,10000,5,0,1,9999,0.100000,0,0,0.000000,1,3.000000,0.000000,22.325430,0,0,0,0,0,0,0
1,19999,37,10000,5,0,1,9999,0.100000,0,0,0.000000,1,3.000000,0.000000,5.649419,0,0,0,0,0,0,0
1,19999,38,10000,5,0,0,9999,0.100000,0,0,0.000000,1,0.000000,0.000000,0.767541,0,0,0,0,0,0,0
1,19999,39,10000,5,0,0,9999,0.100000,0,0,0.000000,1,0.000000,0.000000,0.849831,0,0,0,0,0,0,0
1,19999,40,10000,5,0,1,9999,0.100000,0,0,0.000000,1,5.000000,0.000000,14.448839,0,0,0,0,0,0,0
1,19999,41,10000,5,0,1,9999,0.100000,0,0,0.000000,1,1.000000,0.000000,15.193773,0,0,0,0,0,0,0
1,19999,42,10000,5,0,1,9999,0.100000,0,0,0.000000,1,3.000000,0.000000,22.588917,0,0,0,0,0,0,0
1,19999,43,10000,5,0,0,9999,0.100000,0,0,0.000000,1,0.000000,0.000000,2.864749,0,0,0,0,0,0,0
1,19999,44,10000,5,0,1,9999,0.100000,0,0,0.000000,1,6.000000,0.000000,6.720699,0,0,0,0,0,0,0
1,19999,45,10000,5,0,0,9999,0.100000,0,0,0.000000,1,0.000000,0.000000,0.850865,0,0,0,0,0,0,0
1,19999,46,10000,5,0,0,9999,0.100000,0,0,0.000000,1,0.000000,0.000000,0.500205,0,0,0,0,0,0,0
1,19999,47,10000,5,0,0,9999,0.100000,0,0,0.000000,1,0.000000,0.000000,0.544413,0,0,0,0,0,0,0
1,19999,48,10000,5,0,1,9999,0.100000,0,0,0.000000,1,1.000000,0.000000,13.826536,0,0,0,0,0,0,0
1,19999,49,10000,5,0,0,9999,0.100000,0,0,0.000000,1,0.000000,0.000000,0.575531,0,0,0,0,0,0,0
1,19999,50,10000,5,0,1,9999,0.100000,0,0,0.000000,1,1.000000,0.000000,6.137830,0,0,0,0,0,0,0
1,19999,51,10000,5,0,0,9999,0.100000,0,0,0.000000,1,0.000000,0.000000,0.805195,0,0,0,0,0,0,0
1,19999,52,10000,5,0,0,9999,0.100000,0,0,0.000000,1,0.000000,0.000000,2.366544,0,0,0,0,0,0,0
1,19999,53,10000,5,0,1,9999,0.100000,0,0,0.000000,1,3.000000,0.000000,9.057992,0,0,0,0,0,0,0
1,19999,54,10000,5,0,1,9999,0.100000,0,0,0.000000,1,3.000000,0.000000,18.781335,0,0,0,0,0,0,0
1,19999,55,10000,5,0,0,9999,0.100000,0,0,0.000000,1,0.000000,0.000000,1.048877,0,0,0,0,0,0,0
1,19999,56,10000,5,0,1,9999,0.100000,0,0,0.000000,1,7.000000,0.000000,19.053172,0,0,0,0,0,0,0
1,19999,57,10000,5,0,0,9999,0.100000,0,0,0.000000,1,0.000000,0.000000,0.474311,0,0,0,0,0,0,0
1,19999,58,10000,5,0,0,9999,0.100000,0,0,0.000000,1,0.000000,0.000000,1.263227,0,0,0,0,0,0,0
1,19999,59,10000,5,0,1,9999,0.100000,0,0,0.000000,1,3.000000,0.000000,20.962846,0,0,0,0,0,0,0
1,19999,60,10000,5,0,1,9999,0.100000,0,0,0.000000,1,4.000000,0.000000,15.372496,0,0,0,0,0,0,0
1,19999,61,10000,5,0,1,9999,0.100000,0,0,0.000000,1,3.000000,0.000000,16.768414,0,0,0,0,0,0,0
1,19999,62,10000,5,0,0,9999,0.100000,0,0,0.000000,1,0.000000,0.000000,1.166446,0,0,0,0,0,0,0
1,19999,63,10000,5,0,0,9999,0.100000,0,0,0.000000,1,0.000000,0.000000,11.910919,0,0,0,0,0,0,0
1,19999,64,10000,5,0,0,9999,0.100000,0,0,0.000000,1,0.000000,0.000000,1.286834,0,0,0,0,0,0,0
1,19999,65,10000,5,0,0,9999,0.100000,0,0,0.000000,1,0.000000,0.000000,14.403924,0,0,0,0,0,0,0
1,19999,66,10000,5,0,1,9999,0.100000,0,0,0.000000,1,2.000000,0.000000,16.979095,0,0,0,0,0,0,0
1,19999,67,10000,5,0,1,9999,0.100000,0,0,0.000000,2,7.000000,0.000000,23.552825,0,0,0,0,0,0,0
1,19999,68,10000,5,0,1,9999,0.100000,0,0,0.000000,1,1.000000,0.000000,2.831667,0,0,0,0,0,0,0
1,19999,69,10000,5,0,1,9999,0.100000,0,0,0.000000,2,1.000000,0.000000,7.131496,0,0,0,0,0,0,0
1,19999,70,10000,5,0,1,9999,0.100000,0,0,0.000000,2,3.000000,0.000000,17.445503,0,0,0,0,0,0,0
1,19999,71,10000,5,0,3,9999,0.100000,0,0,95.642588,2,17.000000,0.000000,27.916066,0,0,1,0,0,0,0
1,19999,72,10000,5,0,1,9999,0.100000,0,0,0.000000,2,2.000000,0.000000,28.234998,0,0,0,0,0,0,0
1,19999,73,10000,5,0,1,9999,0.100000,0,0,0.000000,2,5.000000,0.000000,16.897104,0,0,0,0,0,0,0
1,19999,74,10000,70,0,0,9999,0.100000,0,0,0.000000,2,0.000000,0.000000,14.616066,0,0,0,0,0,0,0
1,19999,75,10000,5,0,0,9999,0.100000,0,0,0.000000,2,0.000000,0.000000,0.198896,0,0,0,0,0,0,0
1,19999,76,10000,70,0,1,9999,0.100000,0,0,0.000000,2,1.000000,0.000000,3.422847,0,0,0,0,0,0,0
1,19999,77,10000,5,0,0,9999,0.100000,0,0,0.000000,2,0.000000,0.000000,0.522765,0,0,0,0,0,0,0
1,19999,78,10000,70,0,0,9999,0.100000,0,0,0.000000,2,0.000000,0.000000,11.509468,0,0,0,0,0,0,0
1,19999,79,10000,5,0,1,9999,0.100000,0,0,0.000000,2,2.000000,0.000000,21.794371,0,0,0,0,0,0,0
1,19999,80,10000,5,0,1,9999,0.100000,0,0,0.000000,2,4.000000,0.000000,12.755712,0,0,0,0,0,0,0
1,19999,81,10000,5,0,1,9999,0.100000,0,0,0.000000,2,3.000000,0.000000,16.487243,0,0,0,0,0,0,0
1,19999,82,10000,5,0,1,9999,0.100000,0,0,0.000000,2,6.000000,0.000000,23.287987,0,0,0,0,0,0,0
1,19999,83,10000,5,0,1,9999,0.100000,0,0,0.000000,2,1.000000,0.000000,4.303358,0,0,0,0,0,0,0
1,19999,84,10000,5,0,0,9999,0.100000,0,0,0.000000,2,0.000000,0.000000,13.108380,0,0,0,0,0,0,0
1,19999,85,10000,5,0,1,9999,0.100000,0,0,0.000000,2,1.000000,0.000000,25.388193,0,0,0,0,0,0,0
1,19999,86,10000,5,0,1,9999,0.100000,0,0,0.000000,2,1.000000,0.000000,22.722734,0,0,0,0,0,0,0
1,19999,87,10000,5,0,1,9999,0.100000,0,0,0.000000,2,1.000000,0.000000,18.321026,0,0,0,0,0,0,0
1,19999,88,10000,5,0,0,9999,0.100000,0,0,0.000000,2,0.000000,0.000000,0.840716,0,0,0,0,0,0,0
1,19999,89,10000,5,0,1,9999,0.100000,0,0,0.000000,2,3.000000,0.000000,18.536228,0,0,0,0,0,0,0
1,19999,90,10000,5,0,1,9999,0.100000,0,0,0.000000,2,6.000000,0.000000,19.691441,0,0,0,0,0,0,0
1,19999,91,10000,5,0,1,9999,0.100000,0,0,0.000000,2,4.000000,0.000000,16.169999,0,0,0,0,0,0,0
1,19999,92,10000,5,0,1,9999,0.100000,0,0,0.000000,2,2.000000,0.000000,20.744281,0,0,0,0,0,0,0
1,19999,93,10000,5,0,0,9999,0.100000,0,0,0.000000,2,0.000000,0.000000,5.004463,0,0,0,0,0,0,0
1,19999,94,10000,5,0,0,9999,0.100000,0,0,0.000000,2,0.000000,0.000000,2.093217,0,0,0,0,0,0,0
1,19999,95,10000,5,0,1,9999,0.100000,0,0,0.000000,2,6.000000,0.000000,22.234699,0,0,0,0,0,0,0
1,19999,96,10000,5,0,3,9999,0.100000,0,0,25.537416,2,3.000000,0.000000,21.227227,0,0,1,0,0,0,0
1,19999,97,10000,5,0,0,9999,0.100000,0,0,0.000000,2,0.000000,0.000000,0.654720,0,0,0,0,0,0,0
1,19999,98,10000,5,0,1,9999,0.100000,0,0,0.000000,2,11.000000,0.000000,11.431820,0,0,0,0,0,0,0
1,19999,99,10000,5,0,1,9999,0.100000,0,0,34.210526,2,17.000000,0.000000,25.240517,0,0,0,1,0,0,0
2,29999,0,20000,5,10000,1,9999,0.100000,0,0,0.000000,3,12.000000,0.000000,20.978840,0,0,0,0,0,0,0
2,29999,1,20000,5,0,0,9999,0.100000,0,0,0.000000,3,0.000000,0.000000,0.279937,0,0,0,0,0,0,0
2,29999,2,20000,5,10000,0,9999,0.100000,0,0,0.000000,3,0.000000,0.000000,0.302750,0,0,0,0,0,0,0
2,29999,3,20000,5,0,1,9999,0.100000,0,0,0.000000,3,2.000000,0.000000,15.833629,0,0,0,0,0,0,0
2,29999,4,20000,5,0,1,9999,0.100000,0,0,0.000000,3,8.000000,0.000000,9.444652,0,0,0,0,0,0,0
2,29999,5,20000,5,10000,0,9999,0.100000,0,0,0.000000,3,0.000000,0.000000,1.093558,0,0,0,0,0,0,0
2,29999,6,20000,5,0,0,9999,0.100000,0,0,0.000000,3,0.000000,0.000000,0.534856,0,0,0,0,0,0,0
2,29999,7,20000,5,0,1,9999,0.100000,0,0,0.000000,3,1.000000,0.000000,3.041652,0,0,0,0,0,0,0
2,29999,8,20000,5,0,1,9999,0.100000,0,0,0.000000,3,2.000000,0.000000,22.984924,0,0,0,0,0,0,0
2,29999,9,20000,5,10000,1,9999,0.100000,0,0,0.000000,3,1.000000,0.000000,17.984674,0,0,0,0,0,0,0
2,29999,10,20000,5,0,0,9999,0.100000,0,0,0.000000,3,0.000000,0.000000,2.121591,0,0,0,0,0,0,0
2,29999,11,20000,5,0,0,9999,0.100000,0,0,0.000000,3,0.000000,0.000000,0.046765,0,0,0,0,0,0,0
2,29999,12,20000,5,10000,0,9999,0.100000,0,0,0.000000,3,0.000000,0.000000,0.454649,0,0,0,0,0,0,0
2,29999,13,20000,5,0,1,9999,0.100000,0,0,0.000000,3,1.000000,0.000000,2.515957,0,0,0,0,0,0,0
2,29999,14,20000,5,0,0,9999,0.100000,0,0,0.000000,3,0.000000,0.000000,0.556465,0,0,0,0,0,0,0
2,29999,15,20000,5,10000,1,9999,0.100000,0,0,0.000000,3,1.000000,0.000000,2.341668,0,0,0,0,0,0,0
2,29999,16,20000,5,10000,1,9999,0.100000,0,0,0.000000,3,12.000000,0.000000,20.981158,0,0,0,0,0,0,0
2,29999,17,20000,5,0,0,9999,0.100000,0,0,0.000000,3,0.000000,0.000000,0.842828,0,0,0,0,0,0,0
2,29999,18,20000,5,10000,0,9999,0.100000,0,0,0.000000,3,0.000000,0.000000,0.291678,0,0,0,0,0,0,0
2,29999,19,20000,5,0,1,9999,0.100000,0,0,0.000000,3,1.000000,0.000000,5.783535,0,0,0,0,0,0,0
2,29999,20,20000,5,0,0,9999,0.100000,0,0,0.000000,3,0.000000,0.000000,1.426876,0,0,0,0,0,0,0
2,29999,21,20000,5,10000,0,9999,0.100000,0,0,0.000000,3,0.000000,0.000000,1.796845,0,0,0,0,0,0,0
2,29999,22,20000,5,10000,1,9999,0.100000,0,0,0.000000,3,2.000000,0.000000,23.093859,0,0,0,0,0,0,0
2,29999,23,20000,5,10000,1,9999,0.100000,0,0,0.000000,3,1.000000,0.000000,19.835566,0,0,0,0,0,0,0
2,29999,24,20000,5,0,0,9999,0.100000,0,0,0.000000,3,0.000000,0.000000,0.418371,0,0,0,0,0,0,0
2,29999,25,20000,5,0,0,9999,0.100000,0,0,0.000000,3,0.000000,0.000000,1.127535,0,0,0,0,0,0,0
2,29999,26,20000,5,10000,0,9999,0.100000,0,0,0.000000,3,0.000000,0.000000,1.439912,0,0,0,0,0,0,0
2,29999,27,20000,5,0,0,9999,0.100000,0,0,0.000000,3,0.000000,0.000000,1.330313,0,0,0,0,0,0,0
2,29999,28,20000,5,10000,1,9999,0.100000,0,0,0.000000,3,1.000000,0.000000,20.578906,0,0,0,0,0,0,0
2,29999,29,20000,5,0,0,9999,0.100000,0,0,0.000000,3,0.000000,0.000000,0.870387,0,0,0,0,0,0,0
2,29999,30,20000,5,10000,0,9999,0.100000,0,0,0.000000,3,0.000000,0.000000,0.992361,0,0,0,0,0,0,0
2,29999,31,20000,5,10000,0,9999,0.100000,0,0,0.000000,3,0.000000,0.000000,0.283274,0,0,0,0,0,0,0
2,29999,32,20000,5,0,1,9999,0.100000,0,0,0.000000,3,2.000000,0.000000,21.570929,0,0,0,0,0,0,0
2,29999,33,20000,5,10000,0,9999,0.100000,0,0,0.000000,3,0.000000,0.000000,1.479921,0,0,0,0,0,0,0
2,29999,34,20000,5,10000,1,9999,0.100000,0,0,0.000000,3,1.000000,0.000000,20.727124,0,0,0,0,0,0,0
2,29999,35,20000,5,0,1,9999,0.100000,0,0,0.000000,3,3.000000,0.000000,19.595142,0,0,0,0,0,0,0
2,29999,36,20000,5,10000,0,9999,0.100000,0,0,0.000000,3,0.000000,0.000000,21.739110,0,0,0,0,0,0,0
2,29999,37,20000,5,10000,0,9999,0.100000,0,0,0.000000,3,0.000000,0.000000,0.955602,0,0,0,0,0,0,0
2,29999,38,20000,5,0,0,9999,0.100000,0,0,0.000000,3,0.000000,0.000000,0.387939,0,0,0,0,0,0,0
2,29999,39,20000,39,10000,0,9999,0.100000,0,0,0.000000,3,0.000000,0.000000,0.329719,0,0,0,0,0,0,0
2,29999,40,20000,39,10000,0,9999,0.100000,0,0,0.000000,3,0.000000,0.000000,13.184284,0,0,0,0,0,0,0
2,29999,41,20000,39,10000,0,9999,0.100000,0,0,0.000000,3,0.000000,0.000000,12.762230,0,0,0,0,0,0,0
2,29999,42,20000,39,10000,1,9999,0.100000,0,0,0.000000,3,2.000000,0.000000,22.605503,0,0,0,0,0,0,0
2,29999,43,20000,39,10000,0,9999,0.100000,0,0,0.000000,3,0.000000,0.000000,1.978339,0,0,0,0,0,0,0
2,29999,44,20000,5,0,0,9999,0.100000,0,0,0.000000,3,0.000000,0.000000,0.290164,0,0,0,0,0,0,0
2,29999,45,20000,39,10000,0,9999,0.100000,0,0,0.000000,3,0.000000,0.000000,1.070136,0,0,0,0,0,0,0
2,29999,46,20000,39,10000,0,9999,0.100000,0,0,0.000000,3,0.000000,0.000000,0.810362,0,0,0,0,0,0,0
2,29999,47,20000,39,10000,0,9999,0.100000,0,0,0.000000,3,0.000000,0.000000,0.479981,0,0,0,0,0,0,0
2,29999,48,20000,5,0,1,9999,0.100000,0,0,0.000000,3,1.000000,0.000000,14.306273,0,0,0,0,0,0,0
2,29999,49,20000,39,10000,0,9999,0.100000,0,0,0.000000,3,0.000000,0.000000,0.301934,0,0,0,0,0,0,0
2,29999,50,20000,5,0,0,9999,0.100000,0,0,0.000000,3,0.000000,0.000000,0.641730,0,0,0,0,0,0,0
2,29999,51,20000,39,10000,0,9999,0.100000,0,0,0.000000,3,0.000000,0.000000,0.423380,0,0,0,0,0,0,0
2,29999,52,20000,5,0,0,9999,0.100000,0,0,0.000000,3,0.000000,0.000000,0.943414,0,0,0,0,0,0,0
2,29999,53,20000,5,0,0,9999,0.100000,0,0,0.000000,3,0.000000,0.000000,0.627338,0,0,0,0,0,0,0
2,29999,54,20000,39,10000,0,9999,0.100000,0,0,0.000000,3,0.000000,0.000000,4.114676,0,0,0,0,0,0,0
2,29999,55,20000,39,10000,0,9999,0.100000,0,0,0.000000,3,0.000000,0.000000,0.906381,0,0,0,0,0,0,0
2,29999,56,20000,5,0,1,9999,0.100000,0,0,0.000000,3,1.000000,0.000000,15.472424,0,0,0,0,0,0,0
2,29999,57,20000,39,10000,1,9999,0.100000,0,0,0.000000,3,1.000000,0.000000,3.718723,0,0,0,0,0,0,0
2,29999,58,20000,5,0,1,9999,0.100000,0,0,0.000000,3,1.000000,0.000000,3.358448,0,0,0,0,0,0,0
2,29999,59,20000,39,10000,1,9999,0.100000,0,0,0.000000,3,2.000000,0.000000,23.558126,0,0,0,0,0,0,0
2,29999,60,20000,39,10000,0,9999,0.100000,0,0,0.000000,3,0.000000,0.000000,0.272195,0,0,0,0,0,0,0
2,29999,61,20000,5,0,1,9999,0.100000,0,0,0.000000,3,1.000000,0.000000,3.175928,0,0,0,0,0,0,0
2,29999,62,20000,39,10000,1,9999,0.100000,0,0,0.000000,3,1.000000,0.000000,2.167784,0,0,0,0,0,0,0
2,29999,63,20000,5,0,1,9999,0.100000,0,0,0.000000,3,1.000000,0.000000,15.079839,0,0,0,0,0,0,0
2,29999,64,20000,5,0,0,9999,0.100000,0,0,0.000000,3,0.000000,0.000000,0.648565,0,0,0,0,0,0,0
2,29999,65,20000,39,10000,0,9999,0.100000,0,0,0.000000,3,0.000000,0.000000,13.829183,0,0,0,0,0,0,0
2,29999,66,20000,39,10000,1,9999,0.100000,0,0,0.000000,3,1.000000,0.000000,14.565105,0,0,0,0,0,0,0
2,29999,67,20000,5,0,1,9999,0.100000,0,0,0.000000,3,1.000000,0.000000,22.068415,0,0,0,0,0,0,0
2,29999,68,20000,39,10000,1,9999,0.100000,0,0,0.000000,3,1.000000,0.000000,7.861017,0,0,0,0,0,0,0
2,29999,69,20000,5,0,1,9999,0.100000,0,0,0.000000,3,4.000000,0.000000,16.439558,0,0,0,0,0,0,0
2,29999,70,20000,5,0,1,9999,0.100000,0,0,0.000000,3,4.000000,0.000000,18.118249,0,0,0,0,0,0,0
2,29999,71,20000,71,10000,1,9999,0.100000,0,0,0.000000,3,2.000000,0.000000,22.111740,0,0,0,0,0,0,0
2,29999,72,20000,5,0,1,9999,0.100000,0,0,0.000000,3,2.000000,0.000000,23.011016,0,0,0,0,0,0,0
2,29999,73,20000,39,10000,1,9999,0.100000,0,0,0.000000,3,1.000000,0.000000,16.411113,0,0,0,0,0,0,0
2,29999,74,20000,71,10000,1,9999,0.100000,0,0,0.000000,3,1.000000,0.000000,17.657121,0,0,0,0,0,0,0
2,29999,75,20000,5,0,0,9999,0.100000,0,0,0.000000,3,0.000000,0.000000,0.309314,0,0,0,0,0,0,0
2,29999,76,20000,39,10000,1,9999,0.100000,0,0,0.000000,3,1.000000,0.000000,3.153071,0,0,0,0,0,0,0
2,29999,77,20000,5,0,0,9999,0.100000,0,0,0.000000,3,0.000000,0.000000,0.504004,0,0,0,0,0,0,0
2,29999,78,20000,5,0,0,9999,0.100000,0,0,0.000000,3,0.000000,0.000000,0.589149,0,0,0,0,0,0,0
2,29999,79,20000,5,0,1,9999,0.100000,0,0,0.000000,3,1.000000,0.000000,15.419635,0,0,0,0,0,0,0
2,29999,80,20000,71,10000,1,9999,0.100000,0,0,0.000000,3,3.000000,0.000000,4.876403,0,0,0,0,0,0,0
2,29999,81,20000,5,0,1,9999,0.100000,0,0,0.000000,3,4.000000,0.000000,20.072344,0,0,0,0,0,0,0
2,29999,82,20000,39,10000,1,9999,0.100000,0,0,0.000000,3,2.000000,0.000000,8.905825,0,0,0,0,0,0,0
2,29999,83,20000,83,10000,1,9999,0.100000,0,0,0.000000,3,3.000000,0.000000,9.339572,0,0,0,0,0,0,0
2,29999,84,20000,39,10000,1,9999,0.100000,0,0,0.000000,3,1.000000,0.000000,15.319076,0,0,0,0,0,0,0
2,29999,85,20000,83,10000,1,9999,0.100000,0,0,0.000000,3,2.000000,0.000000,25.607649,0,0,0,0,0,0,0
2,29999,86,20000,83,10000,1,9999,0.100000,0,0,0.000000,3,1.000000,0.000000,17.807292,0,0,0,0,0,0,0
2,29999,87,20000,39,10000,1,9999,0.100000,0,0,0.000000,3,3.000000,0.000000,17.700376,0,0,0,0,0,0,0
2,29999,88,20000,39,10000,0,9999,0.100000,0,0,0.000000,3,0.000000,0.000000,0.776927,0,0,0,0,0,0,0
2,29999,89,20000,83,10000,1,9999,0.100000,0,0,0.000000,3,2.000000,0.000000,19.560537,0,0,0,0,0,0,0
2,29999,90,20000,83,10000,1,9999,0.100000,0,0,0.000000,3,5.000000,0.000000,17.767688,0,0,0,0,0,0,0
2,29999,91,20000,83,10000,1,9999,0.100000,0,0,0.000000,3,3.000000,0.000000,23.867220,0,0,0,0,0,0,0
2,29999,92,20000,83,10000,1,9999,0.100000,0,0,0.000000,3,4.000000,0.000000,20.008890,0,0,0,0,0,0,0
2,29999,93,20000,39,10000,1,9999,0.100000,0,0,0.000000,3,1.000000,0.000000,2.166778,0,0,0,0,0,0,0
2,29999,94,20000,39,10000,0,9999,0.100000,0,0,0.000000,3,0.000000,0.000000,0.269720,0,0,0,0,0,0,0
2,29999,95,20000,83,10000,0,9999,0.100000,0,0,0.000000,3,0.000000,0.000000,5.255636,0,0,0,0,0,0,0
2,29999,96,20000,39,10000,3,9999,0.100000,0,0,30.701774,3,3.000000,0.000000,21.382908,0,0,1,0,0,0,0
2,29999,97,20000,83,10000,0,9999,0.100000,0,0,0.000000,3,0.000000,0.000000,0.846532,0,0,0,0,0,0,0
2,29999,98,20000,39,10000,0,9999,0.100000,0,0,0.000000,3,0.000000,0.000000,0.326457,0,0,0,0,0,0,0
2,29999,99,20000,39,10000,1,9999,0.100000,0,0,0.000000,3,4.000000,0.000000,18.116450,0,0,0,0,0,0,0
