generation,iteration,robot,birthday,ancestor_id,ancestor_birthday,cell_id,age,sigma,maps,genomes,fitness,cells_in_map,dist_max,dist_pot_max,dist_total,com_rx,com_tx,obj_group1,obj_group2,obj_group3,obj_group4,obj_group5
0,9999,0,0,0,0,49,9999,0.100000,0,0,0.000000,0,4.000000,0.000000,10.622341,0,0,0,0,0,0,0
0,9999,1,0,1,0,49,9999,0.100000,0,0,0.000000,0,5.000000,0.000000,10.146191,0,0,0,0,0,0,0
0,9999,2,0,2,0,49,9999,0.100000,0,0,0.000000,0,11.000000,0.000000,30.436705,0,0,0,0,0,0,0
0,9999,3,0,3,0,49,9999,0.100000,0,0,0.000000,0,8.000000,0.000000,12.394708,0,0,0,0,0,0,0
0,9999,4,0,4,0,49,9999,0.100000,0,0,0.000000,0,3.000000,0.000000,7.315165,0,0,0,0,0,0,0
0,9999,5,0,5,0,49,9999,0.100000,0,0,0.000000,0,5.000000,0.000000,12.905548,0,0,0,0,0,0,0
0,9999,6,0,6,0,49,9999,0.100000,0,0,0.000000,0,6.000000,0.000000,13.274361,0,0,0,0,0,0,0
0,9999,7,0,7,0,49,9999,0.100000,0,0,0.000000,0,6.000000,0.000000,11.978607,0,0,0,0,0,0,0
0,9999,8,0,8,0,49,9999,0.100000,0,0,0.000000,0,8.000000,0.000000,28.384042,0,0,0,0,0,0,0
0,9999,9,0,9,0,49,9999,0.100000,0,0,0.000000,0,8.000000,0.000000,15.374671,0,0,0,0,0,0,0
0,9999,10,0,10,0,49,9999,0.100000,0,0,0.000000,0,6.000000,0.000000,13.212836,0,0,0,0,0,0,0
0,9999,11,0,11,0,49,9999,0.100000,0,0,0.000000,0,9.000000,0.000000,17.589363,0,0,0,0,0,0,0
0,9999,12,0,12,0,49,9999,0.100000,0,0,0.000000,0,5.000000,0.000000,14.195934,0,0,0,0,0,0,0
0,9999,13,0,13,0,49,9999,0.100000,0,0,0.000000,0,11.000000,0.000000,17.288141,0,0,0,0,0,0,0
0,9999,14,0,14,0,49,9999,0.100000,0,0,0.000000,0,9.000000,0.000000,11.858771,0,0,0,0,0,0,0
0,9999,15,0,15,0,99,9999,0.100000,0,0,47.368421,0,10.000000,0.000000,21.912802,0,0,1,0,0,0,0
0,9999,16,0,16,0,49,9999,0.100000,0,0,0.000000,0,5.000000,0.000000,10.933697,0,0,0,0,0,0,0
0,9999,17,0,17,0,49,9999,0.100000,0,0,0.000000,0,2.000000,0.000000,3.639867,0,0,0,0,0,0,0
0,9999,18,0,18,0,49,9999,0.100000,0,0,0.000000,0,4.000000,0.000000,12.827031,0,0,0,0,0,0,0
0,9999,19,0,19,0,49,9999,0.100000,0,0,0.000000,0,2.000000,0.000000,6.254043,0,0,0,0,0,0,0
0,9999,20,0,20,0,49,9999,0.100000,0,0,0.000000,0,8.000000,0.000000,8.876635,0,0,0,0,0,0,0
0,9999,21,0,21,0,49,9999,0.100000,0,0,0.000000,0,12.000000,0.000000,17.833208,0,0,0,0,0,0,0
0,9999,22,0,22,0,49,9999,0.100000,0,0,0.000000,0,11.000000,0.000000,19.791250,0,0,0,0,0,0,0
0,9999,23,0,23,0,49,9999,0.100000,0,0,0.000000,0,10.000000,0.000000,12.322417,0,0,0,0,0,0,0
0,9999,24,0,24,0,49,9999,0.100000,0,0,0.000000,0,11.000000,0.000000,18.777289,0,0,0,0,0,0,0
0,9999,25,0,25,0,49,9999,0.100000,0,0,0.000000,0,10.000000,0.000000,12.387903,0,0,0,0,0,0,0
0,9999,26,0,26,0,49,9999,0.100000,0,0,0.000000,0,7.000000,0.000000,25.902712,0,0,0,0,0,0,0
0,9999,27,0,27,0,49,9999,0.100000,0,0,0.000000,0,10.000000,0.000000,12.787320,0,0,0,0,0,0,0
0,9999,28,0,28,0,49,9999,0.100000,0,0,0.000000,0,5.000000,0.000000,11.780318,0,0,0,0,0,0,0
0,9999,29,0,29,0,49,9999,0.100000,0,0,0.000000,0,11.000000,0.000000,23.454527,0,0,0,0,0,0,0
0,9999,30,0,30,0,49,9999,0.100000,0,0,0.000000,0,4.000000,0.000000,10.758671,0,0,0,0,0,0,0
0,9999,31,0,31,0,49,9999,0.100000,0,0,0.000000,0,9.000000,0.000000,28.924220,0,0,0,0,0,0,0
0,9999,32,0,32,0,49,9999,0.100000,0,0,0.000000,0,7.000000,0.000000,15.813548,0,0,0,0,0,0,0
0,9999,33,0,33,0,49,9999,0.100000,0,0,0.000000,0,1.000000,0.000000,12.507597,0,0,0,0,0,0,0
0,9999,34,0,34,0,49,9999,0.100000,0,0,0.000000,0,4.000000,0.000000,8.341716,0,0,0,0,0,0,0
0,9999,35,0,35,0,49,9999,0.100000,0,0,0.000000,0,8.000000,0.000000,22.754166,0,0,0,0,0,0,0
0,9999,36,0,36,0,49,9999,0.100000,0,0,0.000000,0,2.000000,0.000000,8.733912,0,0,0,0,0,0,0
0,9999,37,0,37,0,49,9999,0.100000,0,0,0.000000,0,9.000000,0.000000,18.171580,0,0,0,0,0,0,0
0,9999,38,0,38,0,49,9999,0.100000,0,0,0.000000,0,9.000000,0.000000,30.373213,0,0,0,0,0,0,0
0,9999,39,0,39,0,49,9999,0.100000,0,0,0.000000,0,5.000000,0.000000,19.580393,0,0,0,0,0,0,0
0,9999,40,0,40,0,49,9999,0.100000,0,0,0.000000,0,8.000000,0.000000,15.530030,0,0,0,0,0,0,0
0,9999,41,0,41,0,49,9999,0.100000,0,0,0.000000,0,8.000000,0.000000,13.211191,0,0,0,0,0,0,0
0,9999,42,0,42,0,49,9999,0.100000,0,0,0.000000,0,7.000000,0.000000,13.714916,0,0,0,0,0,0,0
0,9999,43,0,43,0,49,9999,0.100000,0,0,0.000000,0,5.000000,0.000000,6.927674,0,0,0,0,0,0,0
0,9999,44,0,44,0,49,9999,0.100000,0,0,0.000000,0,5.000000,0.000000,10.042237,0,0,0,0,0,0,0
0,9999,45,0,45,0,49,9999,0.100000,0,0,0.000000,0,10.000000,0.000000,12.881470,0,0,0,0,0,0,0
0,9999,46,0,46,0,49,9999,0.100000,0,0,0.000000,0,6.000000,0.000000,20.321278,0,0,0,0,0,0,0
0,9999,47,0,47,0,49,9999,0.100000,0,0,0.000000,0,5.000000,0.000000,6.670485,0,0,0,0,0,0,0
0,9999,48,0,48,0,49,9999,0.100000,0,0,0.000000,0,8.000000,0.000000,11.223955,0,0,0,0,0,0,0
0,9999,49,0,49,0,49,9999,0.100000,0,0,0.000000,0,8.000000,0.000000,9.815294,0,0,0,0,0,0,0
0,9999,50,0,50,0,49,9999,0.100000,0,0,0.000000,0,2.000000,0.000000,7.433888,0,0,0,0,0,0,0
0,9999,51,0,51,0,49,9999,0.100000,0,0,0.000000,0,5.000000,0.000000,19.700311,0,0,0,0,0,0,0
0,9999,52,0,52,0,49,9999,0.100000,0,0,0.000000,0,5.000000,0.000000,6.607222,0,0,0,0,0,0,0
0,9999,53,0,53,0,49,9999,0.100000,0,0,0.000000,0,7.000000,0.000000,8.724092,0,0,0,0,0,0,0
0,9999,54,0,54,0,49,9999,0.100000,0,0,0.000000,0,8.000000,0.000000,17.097147,0,0,0,0,0,0,0
0,9999,55,0,55,0,49,9999,0.100000,0,0,0.000000,0,10.000000,0.000000,17.328182,0,0,0,0,0,0,0
0,9999,56,0,56,0,49,9999,0.100000,0,0,0.000000,0,6.000000,0.000000,8.729863,0,0,0,0,0,0,0
0,9999,57,0,57,0,49,9999,0.100000,0,0,0.000000,0,3.000000,0.000000,4.975021,0,0,0,0,0,0,0
0,9999,58,0,58,0,49,9999,0.100000,0,0,0.000000,0,5.000000,0.000000,14.275503,0,0,0,0,0,0,0
0,9999,59,0,59,0,49,9999,0.100000,0,0,0.000000,0,10.000000,0.000000,16.216949,0,0,0,0,0,0,0
0,9999,60,0,60,0,49,9999,0.100000,0,0,0.000000,0,8.000000,0.000000,11.701598,0,0,0,0,0,0,0
0,9999,61,0,61,0,49,9999,0.100000,0,0,0.000000,0,7.000000,0.000000,21.315384,0,0,0,0,0,0,0
0,9999,62,0,62,0,49,9999,0.100000,0,0,0.000000,0,9.000000,0.000000,20.721712,0,0,0,0,0,0,0
0,9999,63,0,63,0,49,9999,0.100000,0,0,0.000000,0,7.000000,0.000000,8.307974,0,0,0,0,0,0,0
0,9999,64,0,64,0,99,9999,0.100000,0,0,47.368421,0,8.000000,0.000000,19.130015,0,0,1,0,0,0,0
0,9999,65,0,65,0,49,9999,0.100000,0,0,0.000000,0,2.000000,0.000000,6.927157,0,0,0,0,0,0,0
0,9999,66,0,66,0,49,9999,0.100000,0,0,0.000000,0,9.000000,0.000000,15.365093,0,0,0,0,0,0,0
0,9999,67,0,67,0,49,9999,0.100000,0,0,0.000000,0,9.000000,0.000000,15.261538,0,0,0,0,0,0,0
0,9999,68,0,68,0,49,9999,0.100000,0,0,0.000000,0,10.000000,0.000000,14.897040,0,0,0,0,0,0,0
0,9999,69,0,69,0,49,9999,0.100000,0,0,0.000000,0,9.000000,0.000000,11.428755,0,0,0,0,0,0,0
0,9999,70,0,70,0,49,9999,0.100000,0,0,0.000000,0,8.000000,0.000000,14.604986,0,0,0,0,0,0,0
0,9999,71,0,71,0,49,9999,0.100000,0,0,0.000000,0,7.000000,0.000000,16.767179,0,0,0,0,0,0,0
0,9999,72,0,72,0,49,9999,0.100000,0,0,0.000000,0,9.000000,0.000000,11.621508,0,0,0,0,0,0,0
0,9999,73,0,73,0,49,9999,0.100000,0,0,0.000000,0,8.000000,0.000000,8.858859,0,0,0,0,0,0,0
0,9999,74,0,74,0,49,9999,0.100000,0,0,0.000000,0,9.000000,0.000000,16.907609,0,0,0,0,0,0,0
0,9999,75,0,75,0,49,9999,0.100000,0,0,0.000000,0,8.000000,0.000000,8.758528,0,0,0,0,0,0,0
0,9999,76,0,76,0,49,9999,0.100000,0,0,0.000000,0,3.000000,0.000000,6.447940,0,0,0,0,0,0,0
0,9999,77,0,77,0,49,9999,0.100000,0,0,0.000000,0,8.000000,0.000000,11.894519,0,0,0,0,0,0,0
0,9999,78,0,78,0,49,9999,0.100000,0,0,0.000000,0,1.000000,0.000000,8.070263,0,0,0,0,0,0,0
0,9999,79,0,79,0,49,9999,0.100000,0,0,0.000000,0,3.000000,0.000000,10.607310,0,0,0,0,0,0,0
0,9999,80,0,80,0,49,9999,0.100000,0,0,0.000000,0,6.000000,0.000000,29.336585,0,0,0,0,0,0,0
0,9999,81,0,81,0,49,9999,0.100000,0,0,0.000000,0,15.000000,0.000000,34.643324,0,0,0,0,0,0,0
0,9999,82,0,82,0,49,9999,0.100000,0,0,0.000000,0,4.000000,0.000000,6.976656,0,0,0,0,0,0,0
0,9999,83,0,83,0,49,9999,0.100000,0,0,0.000000,0,11.000000,0.000000,13.670032,0,0,0,0,0,0,0
0,9999,84,0,84,0,49,9999,0.100000,0,0,0.000000,0,8.000000,0.000000,18.490433,0,0,0,0,0,0,0
0,9999,85,0,85,0,49,9999,0.100000,0,0,0.000000,0,10.000000,0.000000,16.126925,0,0,0,0,0,0,0
0,9999,86,0,86,0,99,9999,0.100000,0,0,47.368421,0,9.000000,0.000000,16.410233,0,0,1,0,0,0,0
0,9999,87,0,87,0,49,9999,0.100000,0,0,0.000000,0,9.000000,0.000000,22.113973,0,0,0,0,0,0,0
0,9999,88,0,88,0,49,9999,0.100000,0,0,0.000000,0,9.000000,0.000000,15.900285,0,0,0,0,0,0,0
0,9999,89,0,89,0,49,9999,0.100000,0,0,0.000000,0,8.000000,0.000000,12.803479,0,0,0,0,0,0,0
0,9999,90,0,90,0,49,9999,0.100000,0,0,0.000000,0,11.000000,0.000000,22.032943,0,0,0,0,0,0,0
0,9999,91,0,91,0,49,9999,0.100000,0,0,0.000000,0,6.000000,0.000000,7.308241,0,0,0,0,0,0,0
0,9999,92,0,92,0,49,9999,0.100000,0,0,0.000000,0,8.000000,0.000000,14.976854,0,0,0,0,0,0,0
0,9999,93,0,93,0,49,9999,0.100000,0,0,0.000000,0,11.000000,0.000000,12.400468,0,0,0,0,0,0,0
0,9999,94,0,94,0,49,9999,0.100000,0,0,0.000000,0,10.000000,0.000000,31.579221,0,0,0,0,0,0,0
0,9999,95,0,95,0,49,9999,0.100000,0,0,0.000000,0,6.000000,0.000000,25.504762,0,0,0,0,0,0,0
0,9999,96,0,96,0,49,9999,0.100000,0,0,0.000000,0,3.000000,0.000000,3.503402,0,0,0,0,0,0,0
0,9999,97,0,97,0,49,9999,0.100000,0,0,0.000000,0,3.000000,0.000000,6.056198,0,0,0,0,0,0,0
0,9999,98,0,98,0,49,9999,0.100000,0,0,0.000000,0,4.000000,0.000000,8.404911,0,0,0,0,0,0,0
0,9999,99,0,99,0,49,9999,0.100000,0,0,0.000000,0,11.000000,0.000000,19.197760,0,0,0,0,0,0,0
1,19999,0,10000,13,0,49,9999,0.100000,0,0,0.000000,3,1.000000,0.000000,8.514360,0,0,0,0,0,0,0
1,19999,1,10000,1,0,40,9999,0.100000,0,0,0.000000,2,0.000000,0.000000,2.036200,0,0,0,0,0,0,0
1,19999,2,10000,25,0,49,9999,0.100000,0,0,0.000000,3,1.000000,0.000000,3.745361,0,0,0,0,0,0,0
1,19999,3,10000,3,0,49,9999,0.100000,0,0,0.000000,3,4.000000,0.000000,9.178762,0,0,0,0,0,0,0
1,19999,4,10000,13,0,49,9999,0.100000,0,0,0.000000,2,1.000000,0.000000,19.437575,0,0,0,0,0,0,0
1,19999,5,10000,25,0,9,9999,0.100000,0,0,34.210526,3,5.000000,0.000000,12.093107,0,0,0,1,0,0,0
1,19999,6,10000,25,0,40,9999,0.100000,0,0,0.000000,3,0.000000,0.000000,0.148279,0,0,0,0,0,0,0
1,19999,7,10000,15,0,49,9999,0.100000,0,0,0.000000,3,1.000000,0.000000,1.373843,0,0,0,0,0,0,0
1,19999,8,10000,15,0,49,9999,0.100000,0,0,0.000000,3,2.000000,0.000000,17.841062,0,0,0,0,0,0,0
1,19999,9,10000,13,0,40,9999,0.100000,0,0,0.000000,3,0.000000,0.000000,0.934500,0,0,0,0,0,0,0
1,19999,10,10000,13,0,40,9999,0.100000,0,0,0.000000,3,0.000000,0.000000,1.239926,0,0,0,0,0,0,0
1,19999,11,10000,13,0,49,9999,0.100000,0,0,0.000000,2,5.000000,0.000000,8.484776,0,0,0,0,0,0,0
1,19999,12,10000,13,0,49,9999,0.100000,0,0,0.000000,3,2.000000,0.000000,10.853993,0,0,0,0,0,0,0
1,19999,13,10000,13,0,49,9999,0.100000,0,0,0.000000,1,1.000000,0.000000,12.193256,0,0,0,0,0,0,0
1,19999,14,10000,15,0,40,9999,0.100000,0,0,0.000000,3,0.000000,0.000000,0.199763,0,0,0,0,0,0,0
1,19999,15,10000,15,0,49,9999,0.100000,0,0,0.000000,3,1.000000,0.000000,9.061548,0,0,0,0,0,0,0
1,19999,16,0,16,0,40,19999,0.100000,0,0,0.000000,3,0.000000,0.000000,0.134492,0,0,0,0,0,0,0
1,19999,17,10000,90,0,40,9999,0.100000,0,0,0.000000,3,0.000000,0.000000,0.278036,0,0,0,0,0,0,0
1,19999,18,10000,13,0,40,9999,0.100000,0,0,0.000000,3,0.000000,0.000000,1.080951,0,0,0,0,0,0,0
1,19999,19,10000,13,0,40,9999,0.100000,0,0,0.000000,3,0.000000,0.000000,0.189732,0,0,0,0,0,0,0
1,19999,20,10000,13,0,40,9999,0.100000,0,0,0.000000,3,0.000000,0.000000,0.313901,0,0,0,0,0,0,0
1,19999,21,10000,25,0,49,9999,0.100000,0,0,0.000000,3,1.000000,0.000000,4.590355,0,0,0,0,0,0,0
1,19999,22,10000,13,0,49,9999,0.100000,0,0,0.000000,3,1.000000,0.000000,2.940388,0,0,0,0,0,0,0
1,19999,23,10000,13,0,40,9999,0.100000,0,0,0.000000,3,0.000000,0.000000,0.226846,0,0,0,0,0,0,0
1,19999,24,10000,13,0,49,9999,0.100000,0,0,0.000000,3,1.000000,0.000000,7.870317,0,0,0,0,0,0,0
1,19999,25,10000,13,0,49,9999,0.100000,0,0,0.000000,3,1.000000,0.000000,2.953519,0,0,0,0,0,0,0
1,19999,26,10000,15,0,40,9999,0.100000,0,0,0.000000,3,0.000000,0.000000,1.428216,0,0,0,0,0,0,0
1,19999,27,10000,25,0,49,9999,0.100000,0,0,0.000000,3,6.000000,0.000000,13.566619,0,0,0,0,0,0,0
1,19999,28,10000,25,0,49,9999,0.100000,0,0,0.000000,3,3.000000,0.000000,16.731479,0,0,0,0,0,0,0
1,19999,29,10000,13,0,49,9999,0.100000,0,0,0.000000,3,1.000000,0.000000,1.917900,0,0,0,0,0,0,0
1,19999,30,10000,25,0,40,9999,0.100000,0,0,0.000000,3,0.000000,0.000000,0.799708,0,0,0,0,0,0,0
1,19999,31,10000,15,0,49,9999,0.100000,0,0,0.000000,3,1.000000,0.000000,1.365796,0,0,0,0,0,0,0
1,19999,32,10000,3,0,49,9999,0.100000,0,0,0.000000,3,1.000000,0.000000,7.050222,0,0,0,0,0,0,0
1,19999,33,10000,13,0,49,9999,0.100000,0,0,0.000000,3,2.000000,0.000000,5.349845,0,0,0,0,0,0,0
1,19999,34,10000,25,0,40,9999,0.100000,0,0,0.000000,3,0.000000,0.000000,3.295540,0,0,0,0,0,0,0
1,19999,35,10000,15,0,49,9999,0.100000,0,0,0.000000,3,2.000000,0.000000,7.984319,0,0,0,0,0,0,0
1,19999,36,10000,25,0,49,9999,0.100000,0,0,0.000000,3,3.000000,0.000000,8.440714,0,0,0,0,0,0,0
1,19999,37,10000,13,0,40,9999,0.100000,0,0,0.000000,3,0.000000,0.000000,0.212417,0,0,0,0,0,0,0
1,19999,38,10000,13,0,49,9999,0.100000,0,0,0.000000,3,1.000000,0.000000,5.582077,0,0,0,0,0,0,0
1,19999,39,10000,3,0,49,9999,0.100000,0,0,0.000000,3,1.000000,0.000000,2.494688,0,0,0,0,0,0,0
1,19999,40,10000,15,0,49,9999,0.100000,0,0,0.000000,3,2.000000,0.000000,6.565901,0,0,0,0,0,0,0
1,19999,41,10000,15,0,40,9999,0.100000,0,0,0.000000,3,0.000000,0.000000,0.081406,0,0,0,0,0,0,0
1,19999,42,10000,25,0,40,9999,0.100000,0,0,0.000000,3,0.000000,0.000000,0.062939,0,0,0,0,0,0,0
1,19999,43,10000,15,0,40,9999,0.100000,0,0,0.000000,3,0.000000,0.000000,0.854522,0,0,0,0,0,0,0
1,19999,44,10000,25,0,49,9999,0.100000,0,0,0.000000,3,1.000000,0.000000,4.821532,0,0,0,0,0,0,0
1,19999,45,10000,13,0,49,9999,0.100000,0,0,0.000000,3,1.000000,0.000000,1.761590,0,0,0,0,0,0,0
1,19999,46,10000,25,0,9,9999,0.100000,0,0,34.210526,3,5.000000,0.000000,11.531222,0,0,0,1,0,0,0
1,19999,47,10000,3,0,40,9999,0.100000,0,0,0.000000,3,0.000000,0.000000,0.280329,0,0,0,0,0,0,0
1,19999,48,10000,15,0,40,9999,0.100000,0,0,0.000000,3,0.000000,0.000000,1.104398,0,0,0,0,0,0,0
1,19999,49,10000,25,0,40,9999,0.100000,0,0,0.000000,3,0.000000,0.000000,0.139509,0,0,0,0,0,0,0
1,19999,50,10000,90,0,40,9999,0.100000,0,0,0.000000,3,0.000000,0.000000,6.635607,0,0,0,0,0,0,0
1,19999,51,10000,13,0,40,9999,0.100000,0,0,0.000000,3,0.000000,0.000000,4.570095,0,0,0,0,0,0,0
1,19999,52,10000,13,0,40,9999,0.100000,0,0,0.000000,3,0.000000,0.000000,0.062114,0,0,0,0,0,0,0
1,19999,53,10000,25,0,40,9999,0.100000,0,0,0.000000,3,0.000000,0.000000,0.765941,0,0,0,0,0,0,0
1,19999,54,10000,15,0,99,9999,0.100000,0,0,60.571475,3,9.000000,0.000000,12.764230,0,0,1,0,0,0,0
1,19999,55,10000,13,0,49,9999,0.100000,0,0,0.000000,3,4.000000,0.000000,11.130244,0,0,0,0,0,0,0
1,19999,56,0,56,0,40,19999,0.100000,0,0,0.000000,3,0.000000,0.000000,0.401610,0,0,0,0,0,0,0
1,19999,57,10000,25,0,40,9999,0.100000,0,0,0.000000,3,0.000000,0.000000,3.301621,0,0,0,0,0,0,0
1,19999,58,10000,1,0,40,9999,0.100000,0,0,0.000000,3,0.000000,0.000000,2.634146,0,0,0,0,0,0,0
1,19999,59,10000,25,0,49,9999,0.100000,0,0,0.000000,3,1.000000,0.000000,2.079335,0,0,0,0,0,0,0
1,19999,60,0,60,0,40,19999,0.100000,0,0,0.000000,3,0.000000,0.000000,3.237896,0,0,0,0,0,0,0
1,19999,61,10000,3,0,40,9999,0.100000,0,0,0.000000,3,0.000000,0.000000,0.704558,0,0,0,0,0,0,0
1,19999,62,10000,25,0,40,9999,0.100000,0,0,0.000000,3,0.000000,0.000000,0.310672,0,0,0,0,0,0,0
1,19999,63,10000,13,0,40,9999,0.100000,0,0,0.000000,3,0.000000,0.000000,0.141639,0,0,0,0,0,0,0
1,19999,64,10000,15,0,40,9999,0.100000,0,0,0.000000,3,0.000000,0.000000,9.981161,0,0,0,0,0,0,0
1,19999,65,10000,25,0,40,9999,0.100000,0,0,0.000000,3,0.000000,0.000000,0.401444,0,0,0,0,0,0,0
1,19999,66,10000,13,0,40,9999,0.100000,0,0,0.000000,3,0.000000,0.000000,3.391201,0,0,0,0,0,0,0
1,19999,67,10000,3,0,49,9999,0.100000,0,0,0.000000,3,3.000000,0.000000,10.055999,0,0,0,0,0,0,0
1,19999,68,10000,13,0,49,9999,0.100000,0,0,0.000000,3,1.000000,0.000000,7.133181,0,0,0,0,0,0,0
1,19999,69,10000,15,0,49,9999,0.100000,0,0,0.000000,3,12.000000,0.000000,17.639853,0,0,0,0,0,0,0
1,19999,70,10000,13,0,40,9999,0.100000,0,0,0.000000,3,0.000000,0.000000,1.235627,0,0,0,0,0,0,0
1,19999,71,0,71,0,49,19999,0.100000,0,0,0.000000,3,1.000000,0.000000,1.493075,0,0,0,0,0,0,0
1,19999,72,10000,25,0,40,9999,0.100000,0,0,0.000000,3,0.000000,0.000000,0.227259,0,0,0,0,0,0,0
1,19999,73,10000,15,0,40,9999,0.100000,0,0,0.000000,3,0.000000,0.000000,0.116070,0,0,0,0,0,0,0
1,19999,74,10000,25,0,40,9999,0.100000,0,0,0.000000,3,0.000000,0.000000,0.415056,0,0,0,0,0,0,0
1,19999,75,10000,25,0,40,9999,0.100000,0,0,0.000000,3,0.000000,0.000000,0.142147,0,0,0,0,0,0,0
1,19999,76,10000,13,0,40,9999,0.100000,0,0,0.000000,3,0.000000,0.000000,0.650726,0,0,0,0,0,0,0
1,19999,77,10000,15,0,40,9999,0.100000,0,0,0.000000,3,0.000000,0.000000,0.087911,0,0,0,0,0,0,0
1,19999,78,10000,25,0,40,9999,0.100000,0,0,0.000000,3,0.000000,0.000000,1.888319,0,0,0,0,0,0,0
1,19999,79,10000,13,0,40,9999,0.100000,0,0,0.000000,3,0.000000,0.000000,0.851097,0,0,0,0,0,0,0
1,19999,80,10000,13,0,49,9999,0.100000,0,0,0.000000,3,3.000000,0.000000,15.039527,0,0,0,0,0,0,0
1,19999,81,10000,3,0,40,9999,0.100000,0,0,0.000000,3,0.000000,0.000000,0.137985,0,0,0,0,0,0,0
1,19999,82,10000,25,0,40,9999,0.100000,0,0,0.000000,3,0.000000,0.000000,2.258865,0,0,0,0,0,0,0
1,19999,83,10000,15,0,49,9999,0.100000,0,0,0.000000,3,4.000000,0.000000,15.811127,0,0,0,0,0,0,0
1,19999,84,10000,25,0,40,9999,0.100000,0,0,0.000000,3,0.000000,0.000000,1.200986,0,0,0,0,0,0,0
1,19999,85,10000,25,0,40,9999,0.100000,0,0,0.000000,3,0.000000,0.000000,1.590615,0,0,0,0,0,0,0
1,19999,86,10000,13,0,49,9999,0.100000,0,0,0.000000,3,1.000000,0.000000,2.777961,0,0,0,0,0,0,0
1,19999,87,10000,25,0,49,9999,0.100000,0,0,0.000000,3,1.000000,0.000000,16.147148,0,0,0,0,0,0,0
1,19999,88,10000,15,0,49,9999,0.100000,0,0,0.000000,3,2.000000,0.000000,11.585670,0,0,0,0,0,0,0
1,19999,89,10000,15,0,40,9999,0.100000,0,0,0.000000,3,0.000000,0.000000,0.563323,0,0,0,0,0,0,0
1,19999,90,10000,90,0,40,9999,0.100000,0,0,0.000000,3,0.000000,0.000000,0.202610,0,0,0,0,0,0,0
1,19999,91,10000,25,0,40,9999,0.100000,0,0,0.000000,3,0.000000,0.000000,0.169327,0,0,0,0,0,0,0
1,19999,92,10000,25,0,49,9999,0.100000,0,0,0.000000,3,10.000000,0.000000,14.751173,0,0,0,0,0,0,0
1,19999,93,10000,15,0,49,9999,0.100000,0,0,0.000000,3,1.000000,0.000000,13.592443,0,0,0,0,0,0,0
1,19999,94,10000,25,0,40,9999,0.100000,0,0,0.000000,3,0.000000,0.000000,17.748092,0,0,0,0,0,0,0
1,19999,95,10000,13,0,49,9999,0.100000,0,0,0.000000,3,3.000000,0.000000,10.266620,0,0,0,0,0,0,0
1,19999,96,10000,15,0,40,9999,0.100000,0,0,0.000000,3,0.000000,0.000000,0.856677,0,0,0,0,0,0,0
1,19999,97,10000,13,0,40,9999,0.100000,0,0,0.000000,3,0.000000,0.000000,1.334476,0,0,0,0,0,0,0
1,19999,98,10000,25,0,40,9999,0.100000,0,0,0.000000,3,0.000000,0.000000,0.098807,0,0,0,0,0,0,0
1,19999,99,10000,15,0,49,9999,0.100000,0,0,0.000000,3,8.000000,0.000000,17.031343,0,0,0,0,0,0,0
2,29999,0,20000,25,0,40,9999,0.100000,0,0,0.000000,3,0.000000,0.000000,8.425135,0,0,0,0,0,0,0
2,29999,1,20000,25,0,40,9999,0.100000,0,0,0.000000,4,0.000000,0.000000,0.071651,0,0,0,0,0,0,0
2,29999,2,20000,14,10000,40,9999,0.100000,0,0,0.000000,5,0.000000,0.000000,1.835832,0,0,0,0,0,0,0
2,29999,3,20000,3,10000,49,9999,0.100000,0,0,0.000000,4,2.000000,0.000000,7.034832,0,0,0,0,0,0,0
2,29999,4,20000,52,10000,40,9999,0.100000,0,0,0.000000,5,0.000000,0.000000,23.272679,0,0,0,0,0,0,0
2,29999,5,20000,25,0,49,9999,0.100000,0,0,0.000000,5,4.000000,0.000000,14.891565,0,0,0,0,0,0,0
2,29999,6,20000,52,10000,40,9999,0.100000,0,0,0.000000,5,0.000000,0.000000,0.145211,0,0,0,0,0,0,0
2,29999,7,20000,54,10000,49,9999,0.100000,0,0,0.000000,5,1.000000,0.000000,18.057949,0,0,0,0,0,0,0
2,29999,8,20000,62,10000,49,9999,0.100000,0,0,0.000000,5,1.000000,0.000000,14.595331,0,0,0,0,0,0,0
2,29999,9,20000,14,10000,40,9999,0.100000,0,0,0.000000,5,0.000000,0.000000,2.686212,0,0,0,0,0,0,0
2,29999,10,20000,13,0,40,9999,0.100000,0,0,0.000000,5,0.000000,0.000000,1.188441,0,0,0,0,0,0,0
2,29999,11,20000,25,0,40,9999,0.100000,0,0,0.000000,5,0.000000,0.000000,1.840079,0,0,0,0,0,0,0
2,29999,12,20000,14,10000,49,9999,0.100000,0,0,0.000000,5,1.000000,0.000000,3.460031,0,0,0,0,0,0,0
2,29999,13,20000,25,0,49,9999,0.100000,0,0,0.000000,4,2.000000,0.000000,14.657230,0,0,0,0,0,0,0
2,29999,14,20000,14,10000,49,9999,0.100000,0,0,0.000000,5,1.000000,0.000000,2.768204,0,0,0,0,0,0,0
2,29999,15,20000,52,10000,49,9999,0.100000,0,0,0.000000,5,4.000000,0.000000,10.049432,0,0,0,0,0,0,0
2,29999,16,20000,52,10000,40,9999,0.100000,0,0,0.000000,5,0.000000,0.000000,0.135569,0,0,0,0,0,0,0
2,29999,17,20000,25,0,40,9999,0.100000,0,0,0.000000,4,0.000000,0.000000,0.169240,0,0,0,0,0,0,0
2,29999,18,20000,54,10000,40,9999,0.100000,0,0,0.000000,5,0.000000,0.000000,0.213511,0,0,0,0,0,0,0
2,29999,19,20000,62,10000,40,9999,0.100000,0,0,0.000000,5,0.000000,0.000000,0.180353,0,0,0,0,0,0,0
2,29999,20,20000,62,10000,49,9999,0.100000,0,0,0.000000,5,1.000000,0.000000,2.335339,0,0,0,0,0,0,0
2,29999,21,20000,13,0,49,9999,0.100000,0,0,0.000000,5,2.000000,0.000000,8.824617,0,0,0,0,0,0,0
2,29999,22,20000,62,10000,40,9999,0.100000,0,0,0.000000,5,0.000000,0.000000,0.477331,0,0,0,0,0,0,0
2,29999,23,20000,23,10000,40,9999,0.100000,0,0,0.000000,5,0.000000,0.000000,0.709826,0,0,0,0,0,0,0
2,29999,24,20000,25,0,40,9999,0.100000,0,0,0.000000,5,0.000000,0.000000,2.729543,0,0,0,0,0,0,0
2,29999,25,20000,54,10000,40,9999,0.100000,0,0,0.000000,5,0.000000,0.000000,1.198177,0,0,0,0,0,0,0
2,29999,26,20000,23,10000,40,9999,0.100000,0,0,0.000000,5,0.000000,0.000000,1.338881,0,0,0,0,0,0,0
2,29999,27,20000,54,10000,40,9999,0.100000,0,0,0.000000,5,0.000000,0.000000,0.460149,0,0,0,0,0,0,0
2,29999,28,20000,25,0,40,9999,0.100000,0,0,0.000000,5,0.000000,0.000000,0.551515,0,0,0,0,0,0,0
2,29999,29,20000,63,10000,49,9999,0.100000,0,0,0.000000,5,1.000000,0.000000,1.840994,0,0,0,0,0,0,0
2,29999,30,20000,13,0,40,9999,0.100000,0,0,0.000000,5,0.000000,0.000000,0.100174,0,0,0,0,0,0,0
2,29999,31,20000,52,10000,49,9999,0.100000,0,0,0.000000,5,1.000000,0.000000,3.446695,0,0,0,0,0,0,0
2,29999,32,20000,3,10000,40,9999,0.100000,0,0,0.000000,5,0.000000,0.000000,0.347972,0,0,0,0,0,0,0
2,29999,33,20000,52,10000,40,9999,0.100000,0,0,0.000000,5,0.000000,0.000000,0.226296,0,0,0,0,0,0,0
2,29999,34,20000,54,10000,40,9999,0.100000,0,0,0.000000,5,0.000000,0.000000,0.098442,0,0,0,0,0,0,0
2,29999,35,20000,52,10000,49,9999,0.100000,0,0,0.000000,5,1.000000,0.000000,7.948353,0,0,0,0,0,0,0
2,29999,36,20000,52,10000,49,9999,0.100000,0,0,0.000000,5,4.000000,0.000000,4.368881,0,0,0,0,0,0,0
2,29999,37,20000,63,10000,40,9999,0.100000,0,0,0.000000,5,0.000000,0.000000,0.966327,0,0,0,0,0,0,0
2,29999,38,20000,25,0,40,9999,0.100000,0,0,0.000000,5,0.000000,0.000000,0.593787,0,0,0,0,0,0,0
2,29999,39,20000,52,10000,40,9999,0.100000,0,0,0.000000,5,0.000000,0.000000,0.345842,0,0,0,0,0,0,0
2,29999,40,20000,3,10000,40,9999,0.100000,0,0,0.000000,5,0.000000,0.000000,0.124115,0,0,0,0,0,0,0
2,29999,41,20000,54,10000,40,9999,0.100000,0,0,0.000000,5,0.000000,0.000000,0.098640,0,0,0,0,0,0,0
2,29999,42,20000,52,10000,49,9999,0.100000,0,0,0.000000,5,1.000000,0.000000,2.932074,0,0,0,0,0,0,0
2,29999,43,20000,23,10000,40,9999,0.100000,0,0,0.000000,5,0.000000,0.000000,0.090992,0,0,0,0,0,0,0
2,29999,44,20000,13,0,49,9999,0.100000,0,0,0.000000,5,1.000000,0.000000,7.149790,0,0,0,0,0,0,0
2,29999,45,20000,25,0,40,9999,0.100000,0,0,0.000000,5,0.000000,0.000000,0.903784,0,0,0,0,0,0,0
2,29999,46,20000,52,10000,49,9999,0.100000,0,0,0.000000,5,2.000000,0.000000,4.738922,0,0,0,0,0,0,0
2,29999,47,20000,25,0,40,9999,0.100000,0,0,0.000000,5,0.000000,0.000000,0.204548,0,0,0,0,0,0,0
2,29999,48,20000,14,10000,49,9999,0.100000,0,0,0.000000,5,2.000000,0.000000,10.314012,0,0,0,0,0,0,0
2,29999,49,20000,52,10000,40,9999,0.100000,0,0,0.000000,5,0.000000,0.000000,0.142895,0,0,0,0,0,0,0
2,29999,50,20000,54,10000,40,9999,0.100000,0,0,0.000000,5,0.000000,0.000000,0.956459,0,0,0,0,0,0,0
2,29999,51,20000,52,10000,40,9999,0.100000,0,0,0.000000,5,0.000000,0.000000,0.324039,0,0,0,0,0,0,0
2,29999,52,20000,1,10000,49,9999,0.100000,0,0,0.000000,5,3.000000,0.000000,7.428638,0,0,0,0,0,0,0
2,29999,53,20000,54,10000,40,9999,0.100000,0,0,0.000000,5,0.000000,0.000000,0.899966,0,0,0,0,0,0,0
2,29999,54,20000,54,10000,40,9999,0.100000,0,0,0.000000,5,0.000000,0.000000,6.936397,0,0,0,0,0,0,0
2,29999,55,20000,25,0,40,9999,0.100000,0,0,0.000000,5,0.000000,0.000000,0.258855,0,0,0,0,0,0,0
2,29999,56,20000,25,0,40,9999,0.100000,0,0,0.000000,5,0.000000,0.000000,0.152263,0,0,0,0,0,0,0
2,29999,57,20000,62,10000,40,9999,0.100000,0,0,0.000000,5,0.000000,0.000000,0.383772,0,0,0,0,0,0,0
2,29999,58,20000,3,10000,40,9999,0.100000,0,0,0.000000,5,0.000000,0.000000,5.058155,0,0,0,0,0,0,0
2,29999,59,20000,25,0,40,9999,0.100000,0,0,0.000000,5,0.000000,0.000000,0.408248,0,0,0,0,0,0,0
2,29999,60,20000,13,0,40,9999,0.100000,0,0,0.000000,5,0.000000,0.000000,0.434364,0,0,0,0,0,0,0
2,29999,61,20000,54,10000,40,9999,0.100000,0,0,0.000000,5,0.000000,0.000000,0.044187,0,0,0,0,0,0,0
2,29999,62,20000,62,10000,40,9999,0.100000,0,0,0.000000,5,0.000000,0.000000,0.270074,0,0,0,0,0,0,0
2,29999,63,20000,13,0,40,9999,0.100000,0,0,0.000000,5,0.000000,0.000000,0.142467,0,0,0,0,0,0,0
2,29999,64,20000,13,0,49,9999,0.100000,0,0,0.000000,5,3.000000,0.000000,4.417027,0,0,0,0,0,0,0
2,29999,65,20000,62,10000,40,9999,0.100000,0,0,0.000000,5,0.000000,0.000000,0.137496,0,0,0,0,0,0,0
2,29999,66,20000,25,0,49,9999,0.100000,0,0,0.000000,5,2.000000,0.000000,5.267275,0,0,0,0,0,0,0
2,29999,67,20000,25,0,49,9999,0.100000,0,0,0.000000,5,1.000000,0.000000,15.439126,0,0,0,0,0,0,0
2,29999,68,20000,25,0,40,9999,0.100000,0,0,0.000000,5,0.000000,0.000000,1.971579,0,0,0,0,0,0,0
2,29999,69,20000,54,10000,49,9999,0.100000,0,0,0.000000,5,2.000000,0.000000,6.905080,0,0,0,0,0,0,0
2,29999,70,20000,13,0,49,9999,0.100000,0,0,0.000000,5,2.000000,0.000000,8.999633,0,0,0,0,0,0,0
2,29999,71,20000,3,10000,49,9999,0.100000,0,0,0.000000,5,1.000000,0.000000,4.908768,0,0,0,0,0,0,0
2,29999,72,20000,25,0,40,9999,0.100000,0,0,0.000000,5,0.000000,0.000000,0.218058,0,0,0,0,0,0,0
2,29999,73,20000,25,0,40,9999,0.100000,0,0,0.000000,5,0.000000,0.000000,0.113902,0,0,0,0,0,0,0
2,29999,74,20000,52,10000,40,9999,0.100000,0,0,0.000000,5,0.000000,0.000000,1.430663,0,0,0,0,0,0,0
2,29999,75,20000,25,0,40,9999,0.100000,0,0,0.000000,5,0.000000,0.000000,0.727790,0,0,0,0,0,0,0
2,29999,76,20000,13,0,40,9999,0.100000,0,0,0.000000,5,0.000000,0.000000,0.600620,0,0,0,0,0,0,0
2,29999,77,20000,54,10000,40,9999,0.100000,0,0,0.000000,5,0.000000,0.000000,0.088096,0,0,0,0,0,0,0
2,29999,78,20000,14,10000,40,9999,0.100000,0,0,0.000000,5,0.000000,0.000000,0.140379,0,0,0,0,0,0,0
2,29999,79,20000,13,0,40,9999,0.100000,0,0,0.000000,5,0.000000,0.000000,1.756307,0,0,0,0,0,0,0
2,29999,80,20000,13,0,40,9999,0.100000,0,0,0.000000,5,0.000000,0.000000,4.389419,0,0,0,0,0,0,0
2,29999,81,20000,62,10000,40,9999,0.100000,0,0,0.000000,5,0.000000,0.000000,0.130399,0,0,0,0,0,0,0
2,29999,82,20000,25,0,40,9999,0.100000,0,0,0.000000,5,0.000000,0.000000,0.815502,0,0,0,0,0,0,0
2,29999,83,20000,52,10000,49,9999,0.100000,0,0,0.000000,5,2.000000,0.000000,3.766541,0,0,0,0,0,0,0
2,29999,84,20000,52,10000,40,9999,0.100000,0,0,0.000000,5,0.000000,0.000000,1.292101,0,0,0,0,0,0,0
2,29999,85,20000,13,0,40,9999,0.100000,0,0,0.000000,5,0.000000,0.000000,0.227500,0,0,0,0,0,0,0
2,29999,86,20000,25,0,40,9999,0.100000,0,0,0.000000,5,0.000000,0.000000,0.170202,0,0,0,0,0,0,0
2,29999,87,20000,14,10000,40,9999,0.100000,0,0,0.000000,5,0.000000,0.000000,17.963886,0,0,0,0,0,0,0
2,29999,88,20000,13,0,40,9999,0.100000,0,0,0.000000,5,0.000000,0.000000,0.625650,0,0,0,0,0,0,0
2,29999,89,20000,54,10000,40,9999,0.100000,0,0,0.000000,5,0.000000,0.000000,0.396079,0,0,0,0,0,0,0
2,29999,90,20000,13,0,40,9999,0.100000,0,0,0.000000,5,0.000000,0.000000,0.243805,0,0,0,0,0,0,0
2,29999,91,20000,3,10000,40,9999,0.100000,0,0,0.000000,5,0.000000,0.000000,0.092445,0,0,0,0,0,0,0
2,29999,92,20000,54,10000,40,9999,0.100000,0,0,0.000000,5,0.000000,0.000000,1.133253,0,0,0,0,0,0,0
2,29999,93,20000,54,10000,40,9999,0.100000,0,0,0.000000,5,0.000000,0.000000,2.411773,0,0,0,0,0,0,0
2,29999,94,20000,25,0,49,9999,0.100000,0,0,0.000000,5,1.000000,0.000000,2.587586,0,0,0,0,0,0,0
2,29999,95,20000,13,0,40,9999,0.100000,0,0,0.000000,5,0.000000,0.000000,1.481590,0,0,0,0,0,0,0
2,29999,96,20000,52,10000,40,9999,0.100000,0,0,0.000000,5,0.000000,0.000000,0.319333,0,0,0,0,0,0,0
2,29999,97,20000,23,10000,40,9999,0.100000,0,0,0.000000,5,0.000000,0.000000,1.239024,0,0,0,0,0,0,0
2,29999,98,20000,52,10000,40,9999,0.100000,0,0,0.000000,5,0.000000,0.000000,0.247663,0,0,0,0,0,0,0
2,29999,99,20000,52,10000,40,9999,0.100000,0,0,0.000000,5,0.000000,0.000000,3.641328,0,0,0,0,0,0,0
3,39999,0,30000,13,0,40,9999,0.100000,0,0,0.000000,5,0.000000,0.000000,2.099150,0,0,0,0,0,0,0
3,39999,1,30000,54,10000,40,9999,0.100000,0,0,0.000000,5,0.000000,0.000000,0.096692,0,0,0,0,0,0,0
3,39999,2,30000,25,0,49,9999,0.100000,0,0,0.000000,5,2.000000,0.000000,8.914333,0,0,0,0,0,0,0
3,39999,3,30000,90,10000,40,9999,0.100000,0,0,0.000000,5,0.000000,0.000000,0.807342,0,0,0,0,0,0,0
3,39999,4,30000,13,0,40,9999,0.100000,0,0,0.000000,5,0.000000,0.000000,23.038818,0,0,0,0,0,0,0
3,39999,5,30000,52,10000,49,9999,0.100000,0,0,0.000000,5,5.000000,0.000000,7.293398,0,0,0,0,0,0,0
3,39999,6,30000,52,10000,40,9999,0.100000,0,0,0.000000,5,0.000000,0.000000,0.143273,0,0,0,0,0,0,0
3,39999,7,30000,20,20000,40,9999,0.100000,0,0,0.000000,5,0.000000,0.000000,5.058671,0,0,0,0,0,0,0
3,39999,8,30000,54,10000,40,9999,0.100000,0,0,0.000000,5,0.000000,0.000000,8.633325,0,0,0,0,0,0,0
3,39999,9,30000,20,20000,49,9999,0.100000,0,0,0.000000,5,3.000000,0.000000,3.717334,0,0,0,0,0,0,0
3,39999,10,30000,13,0,40,9999,0.100000,0,0,0.000000,5,0.000000,0.000000,3.044310,0,0,0,0,0,0,0
3,39999,11,30000,13,0,49,9999,0.100000,0,0,0.000000,5,2.000000,0.000000,5.140875,0,0,0,0,0,0,0
3,39999,12,30000,54,10000,49,9999,0.100000,0,0,0.000000,5,3.000000,0.000000,10.413540,0,0,0,0,0,0,0
3,39999,13,30000,54,10000,49,9999,0.100000,0,0,0.000000,5,3.000000,0.000000,18.198210,0,0,0,0,0,0,0
3,39999,14,30000,20,20000,49,9999,0.100000,0,0,0.000000,5,1.000000,0.000000,4.688383,0,0,0,0,0,0,0
3,39999,15,30000,25,0,0,9999,0.100000,0,0,0.000000,5,0.000000,0.000000,13.567331,0,0,0,1,0,0,0
3,39999,16,30000,54,10000,40,9999,0.100000,0,0,0.000000,5,0.000000,0.000000,0.135865,0,0,0,0,0,0,0
3,39999,17,30000,13,0,40,9999,0.100000,0,0,0.000000,5,0.000000,0.000000,0.159456,0,0,0,0,0,0,0
3,39999,18,30000,0,20000,40,9999,0.100000,0,0,0.000000,5,0.000000,0.000000,0.250459,0,0,0,0,0,0,0
3,39999,19,30000,90,10000,40,9999,0.100000,0,0,0.000000,5,0.000000,0.000000,1.745445,0,0,0,0,0,0,0
3,39999,20,30000,13,0,49,9999,0.100000,0,0,0.000000,5,6.000000,0.000000,15.735154,0,0,0,0,0,0,0
3,39999,21,30000,25,0,49,9999,0.100000,0,0,0.000000,5,2.000000,0.000000,4.788239,0,0,0,0,0,0,0
3,39999,22,30000,13,0,40,9999,0.100000,0,0,0.000000,5,0.000000,0.000000,0.459060,0,0,0,0,0,0,0
3,39999,23,30000,3,20000,40,9999,0.100000,0,0,0.000000,5,0.000000,0.000000,0.668915,0,0,0,0,0,0,0
3,39999,24,30000,13,0,40,9999,0.100000,0,0,0.000000,5,0.000000,0.000000,4.302957,0,0,0,0,0,0,0
3,39999,25,30000,54,10000,40,9999,0.100000,0,0,0.000000,5,0.000000,0.000000,0.794489,0,0,0,0,0,0,0
3,39999,26,30000,20,20000,40,9999,0.100000,0,0,0.000000,5,0.000000,0.000000,1.560783,0,0,0,0,0,0,0
3,39999,27,30000,93,20000,40,9999,0.100000,0,0,0.000000,5,0.000000,0.000000,0.472545,0,0,0,0,0,0,0
3,39999,28,30000,25,0,40,9999,0.100000,0,0,0.000000,5,0.000000,0.000000,7.667997,0,0,0,0,0,0,0
3,39999,29,30000,20,20000,49,9999,0.100000,0,0,0.000000,5,1.000000,0.000000,1.852091,0,0,0,0,0,0,0
3,39999,30,30000,13,0,40,9999,0.100000,0,0,0.000000,5,0.000000,0.000000,0.100320,0,0,0,0,0,0,0
3,39999,31,30000,90,10000,40,9999,0.100000,0,0,0.000000,5,0.000000,0.000000,1.111661,0,0,0,0,0,0,0
3,39999,32,30000,20,20000,40,9999,0.100000,0,0,0.000000,5,0.000000,0.000000,0.281620,0,0,0,0,0,0,0
3,39999,33,30000,54,10000,40,9999,0.100000,0,0,0.000000,5,0.000000,0.000000,0.190289,0,0,0,0,0,0,0
3,39999,34,30000,20,20000,40,9999,0.100000,0,0,0.000000,5,0.000000,0.000000,0.098579,0,0,0,0,0,0,0
3,39999,35,30000,52,10000,40,9999,0.100000,0,0,0.000000,5,0.000000,0.000000,4.094121,0,0,0,0,0,0,0
3,39999,36,30000,54,10000,49,9999,0.100000,0,0,0.000000,5,1.000000,0.000000,14.959918,0,0,0,0,0,0,0
3,39999,37,30000,0,20000,49,9999,0.100000,0,0,0.000000,5,3.000000,0.000000,3.750448,0,0,0,0,0,0,0
3,39999,38,30000,54,10000,49,9999,0.100000,0,0,0.000000,5,1.000000,0.000000,5.926631,0,0,0,0,0,0,0
3,39999,39,30000,54,10000,40,9999,0.100000,0,0,0.000000,5,0.000000,0.000000,0.824936,0,0,0,0,0,0,0
3,39999,40,30000,54,10000,40,9999,0.100000,0,0,0.000000,5,0.000000,0.000000,0.124842,0,0,0,0,0,0,0
3,39999,41,30000,0,20000,40,9999,0.100000,0,0,0.000000,5,0.000000,0.000000,0.086849,0,0,0,0,0,0,0
3,39999,42,30000,54,10000,40,9999,0.100000,0,0,0.000000,5,0.000000,0.000000,0.081637,0,0,0,0,0,0,0
3,39999,43,30000,54,10000,40,9999,0.100000,0,0,0.000000,5,0.000000,0.000000,0.094467,0,0,0,0,0,0,0
3,39999,44,30000,0,20000,40,9999,0.100000,0,0,0.000000,5,0.000000,0.000000,0.240662,0,0,0,0,0,0,0
3,39999,45,30000,0,20000,40,9999,0.100000,0,0,0.000000,5,0.000000,0.000000,1.585290,0,0,0,0,0,0,0
3,39999,46,30000,54,10000,40,9999,0.100000,0,0,0.000000,5,0.000000,0.000000,0.070153,0,0,0,0,0,0,0
3,39999,47,30000,0,20000,40,9999,0.100000,0,0,0.000000,5,0.000000,0.000000,0.140244,0,0,0,0,0,0,0
3,39999,48,30000,54,10000,49,9999,0.100000,0,0,0.000000,5,3.000000,0.000000,3.711393,0,0,0,0,0,0,0
3,39999,49,30000,90,10000,40,9999,0.100000,0,0,0.000000,5,0.000000,0.000000,0.143214,0,0,0,0,0,0,0
3,39999,50,30000,90,10000,40,9999,0.100000,0,0,0.000000,5,0.000000,0.000000,19.834404,0,0,0,0,0,0,0
3,39999,51,30000,25,0,40,9999,0.100000,0,0,0.000000,5,0.000000,0.000000,0.274242,0,0,0,0,0,0,0
3,39999,52,30000,0,20000,40,9999,0.100000,0,0,0.000000,5,0.000000,0.000000,0.071618,0,0,0,0,0,0,0
3,39999,53,30000,54,10000,40,9999,0.100000,0,0,0.000000,5,0.000000,0.000000,0.157701,0,0,0,0,0,0,0
3,39999,54,30000,13,0,49,9999,0.100000,0,0,0.000000,5,1.000000,0.000000,6.929142,0,0,0,0,0,0,0
3,39999,55,30000,13,0,40,9999,0.100000,0,0,0.000000,5,0.000000,0.000000,0.235253,0,0,0,0,0,0,0
3,39999,56,30000,90,10000,40,9999,0.100000,0,0,0.000000,5,0.000000,0.000000,0.171059,0,0,0,0,0,0,0
3,39999,57,30000,20,20000,49,9999,0.100000,0,0,0.000000,5,1.000000,0.000000,2.982271,0,0,0,0,0,0,0
3,39999,58,30000,54,10000,40,9999,0.100000,0,0,0.000000,5,0.000000,0.000000,1.692835,0,0,0,0,0,0,0
3,39999,59,30000,13,0,40,9999,0.100000,0,0,0.000000,5,0.000000,0.000000,0.724163,0,0,0,0,0,0,0
3,39999,60,30000,0,20000,40,9999,0.100000,0,0,0.000000,5,0.000000,0.000000,0.464834,0,0,0,0,0,0,0
3,39999,61,30000,0,20000,40,9999,0.100000,0,0,0.000000,5,0.000000,0.000000,0.009387,0,0,0,0,0,0,0
3,39999,62,30000,3,20000,40,9999,0.100000,0,0,0.000000,5,0.000000,0.000000,2.123111,0,0,0,0,0,0,0
3,39999,63,30000,13,0,40,9999,0.100000,0,0,0.000000,5,0.000000,0.000000,0.143455,0,0,0,0,0,0,0
3,39999,64,30000,0,20000,40,9999,0.100000,0,0,0.000000,5,0.000000,0.000000,0.871279,0,0,0,0,0,0,0
3,39999,65,30000,3,20000,40,9999,0.135000,0,0,0.000000,5,0.000000,0.000000,0.164705,0,0,0,0,0,0,0
3,39999,66,30000,3,20000,49,9999,0.100000,0,0,0.000000,5,1.000000,0.000000,1.592919,0,0,0,0,0,0,0
3,39999,67,30000,13,0,49,9999,0.100000,0,0,0.000000,5,3.000000,0.000000,8.095164,0,0,0,0,0,0,0
3,39999,68,30000,0,20000,40,9999,0.100000,0,0,0.000000,5,0.000000,0.000000,1.352727,0,0,0,0,0,0,0
3,39999,69,30000,54,10000,40,9999,0.100000,0,0,0.000000,5,0.000000,0.000000,0.519420,0,0,0,0,0,0,0
3,39999,70,30000,54,10000,40,9999,0.100000,0,0,0.000000,5,0.000000,0.000000,13.594292,0,0,0,0,0,0,0
3,39999,71,30000,54,10000,40,9999,0.100000,0,0,0.000000,5,0.000000,0.000000,2.031540,0,0,0,0,0,0,0
3,39999,72,30000,90,10000,40,9999,0.100000,0,0,0.000000,5,0.000000,0.000000,0.212739,0,0,0,0,0,0,0
3,39999,73,30000,90,10000,40,9999,0.100000,0,0,0.000000,5,0.000000,0.000000,0.111796,0,0,0,0,0,0,0
3,39999,74,30000,93,20000,40,9999,0.100000,0,0,0.000000,5,0.000000,0.000000,0.407212,0,0,0,0,0,0,0
3,39999,75,30000,0,20000,49,9999,0.100000,0,0,0.000000,5,3.000000,0.000000,3.713814,0,0,0,0,0,0,0
3,39999,76,30000,54,10000,40,9999,0.100000,0,0,0.000000,5,0.000000,0.000000,0.440263,0,0,0,0,0,0,0
3,39999,77,30000,93,20000,40,9999,0.100000,0,0,0.000000,5,0.000000,0.000000,0.087310,0,0,0,0,0,0,0
3,39999,78,30000,0,20000,40,9999,0.100000,0,0,0.000000,5,0.000000,0.000000,0.511263,0,0,0,0,0,0,0
3,39999,79,30000,90,10000,40,9999,0.100000,0,0,0.000000,5,0.000000,0.000000,2.996751,0,0,0,0,0,0,0
3,39999,80,30000,13,0,40,9999,0.100000,0,0,0.000000,5,0.000000,0.000000,4.274665,0,0,0,0,0,0,0
3,39999,81,30000,20,20000,49,9999,0.100000,0,0,0.000000,5,6.000000,0.000000,13.867947,0,0,0,0,0,0,0
3,39999,82,30000,13,0,40,9999,0.100000,0,0,0.000000,5,0.000000,0.000000,0.798777,0,0,0,0,0,0,0
3,39999,83,30000,54,10000,40,9999,0.100000,0,0,0.000000,5,0.000000,0.000000,1.800419,0,0,0,0,0,0,0
3,39999,84,30000,93,20000,40,9999,0.100000,0,0,0.000000,5,0.000000,0.000000,1.694639,0,0,0,0,0,0,0
3,39999,85,30000,13,0,40,9999,0.100000,0,0,0.000000,5,0.000000,0.000000,0.231201,0,0,0,0,0,0,0
3,39999,86,30000,3,20000,40,9999,0.100000,0,0,0.000000,5,0.000000,0.000000,0.132562,0,0,0,0,0,0,0
3,39999,87,30000,13,0,49,9999,0.065000,0,0,0.000000,5,12.000000,0.000000,14.065905,0,0,0,0,0,0,0
3,39999,88,30000,3,20000,40,9999,0.100000,0,0,0.000000,5,0.000000,0.000000,0.514445,0,0,0,0,0,0,0
3,39999,89,30000,54,10000,49,9999,0.100000,0,0,0.000000,5,1.000000,0.000000,3.895809,0,0,0,0,0,0,0
3,39999,90,30000,0,20000,40,9999,0.100000,0,0,0.000000,5,0.000000,0.000000,0.231353,0,0,0,0,0,0,0
3,39999,91,30000,54,10000,40,9999,0.100000,0,0,0.000000,5,0.000000,0.000000,0.161717,0,0,0,0,0,0,0
3,39999,92,30000,20,20000,40,9999,0.100000,0,0,0.000000,5,0.000000,0.000000,0.590069,0,0,0,0,0,0,0
3,39999,93,30000,93,20000,40,9999,0.100000,0,0,0.000000,5,0.000000,0.000000,0.270525,0,0,0,0,0,0,0
3,39999,94,30000,0,20000,49,9999,0.100000,0,0,0.000000,5,10.000000,0.000000,23.621535,0,0,0,0,0,0,0
3,39999,95,30000,54,10000,49,9999,0.100000,0,0,0.000000,5,3.000000,0.000000,10.116089,0,0,0,0,0,0,0
3,39999,96,30000,54,10000,40,9999,0.100000,0,0,0.000000,5,0.000000,0.000000,0.590472,0,0,0,0,0,0,0
3,39999,97,30000,0,20000,49,9999,0.100000,0,0,0.000000,5,3.000000,0.000000,10.771990,0,0,0,0,0,0,0
3,39999,98,30000,90,10000,40,9999,0.100000,0,0,0.000000,5,0.000000,0.000000,0.725605,0,0,0,0,0,0,0
3,39999,99,30000,54,10000,49,9999,0.100000,0,0,0.000000,5,3.000000,0.000000,3.827222,0,0,0,0,0,0,0
4,49999,0,40000,20,20000,49,9999,0.100000,0,0,0.000000,5,9.000000,0.000000,10.641993,0,0,0,0,0,0,0
4,49999,1,40000,14,30000,40,9999,0.100000,0,0,0.000000,5,0.000000,0.000000,0.102031,0,0,0,0,0,0,0
4,49999,2,40000,0,20000,40,9999,0.100000,0,0,0.000000,5,0.000000,0.000000,2.558159,0,0,0,0,0,0,0
4,49999,3,40000,93,20000,40,9999,0.100000,0,0,0.000000,5,0.000000,0.000000,1.072044,0,0,0,0,0,0,0
4,49999,4,40000,93,20000,40,9999,0.100000,0,0,0.000000,5,0.000000,0.000000,22.609266,0,0,0,0,0,0,0
4,49999,5,40000,93,20000,40,9999,0.100000,0,0,0.000000,5,0.000000,0.000000,1.438033,0,0,0,0,0,0,0
4,49999,6,40000,14,30000,40,9999,0.100000,0,0,0.000000,5,0.000000,0.000000,0.142468,0,0,0,0,0,0,0
4,49999,7,40000,0,20000,40,9999,0.100000,0,0,0.000000,5,0.000000,0.000000,15.018725,0,0,0,0,0,0,0
4,49999,8,40000,93,20000,40,9999,0.100000,0,0,0.000000,5,0.000000,0.000000,11.002114,0,0,0,0,0,0,0
4,49999,9,40000,13,0,9,9999,0.100000,0,0,34.210526,5,6.000000,0.000000,8.733217,0,0,0,0,0,0,1
4,49999,10,40000,0,20000,49,9999,0.100000,0,0,0.000000,5,5.000000,0.000000,6.337137,0,0,0,0,0,0,0
4,49999,11,40000,13,0,40,9999,0.100000,0,0,0.000000,5,0.000000,0.000000,1.049304,0,0,0,0,0,0,0
4,49999,12,40000,13,0,49,9999,0.100000,0,0,0.000000,5,8.000000,0.000000,13.032743,0,0,0,0,0,0,0
4,49999,13,40000,13,0,49,9999,0.100000,0,0,0.000000,5,4.000000,0.000000,6.612812,0,0,0,0,0,0,0
4,49999,14,30000,20,20000,40,19999,0.100000,0,0,0.000000,5,0.000000,0.000000,3.076612,0,0,0,0,0,0,0
4,49999,15,40000,14,30000,40,9999,0.100000,0,0,0.000000,5,0.000000,0.000000,13.810458,0,0,0,0,0,0,0
4,49999,16,40000,14,30000,40,9999,0.100000,0,0,0.000000,5,0.000000,0.000000,0.135515,0,0,0,0,0,0,0
4,49999,17,40000,93,20000,40,9999,0.100000,0,0,0.000000,5,0.000000,0.000000,0.158893,0,0,0,0,0,0,0
4,49999,18,40000,54,10000,40,9999,0.100000,0,0,0.000000,5,0.000000,0.000000,0.170974,0,0,0,0,0,0,0
4,49999,19,40000,14,30000,40,9999,0.100000,0,0,0.000000,5,0.000000,0.000000,0.147593,0,0,0,0,0,0,0
4,49999,20,40000,54,10000,40,9999,0.100000,0,0,0.000000,5,0.000000,0.000000,5.011730,0,0,0,0,0,0,0
4,49999,21,40000,93,20000,49,9999,0.100000,0,0,0.000000,5,1.000000,0.000000,15.515815,0,0,0,0,0,0,0
4,49999,22,40000,0,20000,40,9999,0.100000,0,0,0.000000,5,0.000000,0.000000,0.531893,0,0,0,0,0,0,0
4,49999,23,40000,14,30000,40,9999,0.100000,0,0,0.000000,5,0.000000,0.000000,0.584576,0,0,0,0,0,0,0
4,49999,24,40000,13,0,49,9999,0.100000,0,0,0.000000,5,1.000000,0.000000,4.002385,0,0,0,0,0,0,0
4,49999,25,40000,14,30000,40,9999,0.100000,0,0,0.000000,5,0.000000,0.000000,0.347852,0,0,0,0,0,0,0
4,49999,26,40000,0,20000,40,9999,0.100000,0,0,0.000000,5,0.000000,0.000000,1.637495,0,0,0,0,0,0,0
4,49999,27,40000,14,30000,40,9999,0.100000,0,0,0.000000,5,0.000000,0.000000,0.429151,0,0,0,0,0,0,0
4,49999,28,40000,14,30000,40,9999,0.100000,0,0,0.000000,5,0.000000,0.000000,0.810851,0,0,0,0,0,0,0
4,49999,29,40000,54,10000,40,9999,0.100000,0,0,0.000000,5,0.000000,0.000000,1.014017,0,0,0,0,0,0,0
4,49999,30,40000,13,0,40,9999,0.100000,0,0,0.000000,5,0.000000,0.000000,0.101401,0,0,0,0,0,0,0
4,49999,31,40000,0,20000,40,9999,0.100000,0,0,0.000000,5,0.000000,0.000000,0.903949,0,0,0,0,0,0,0
4,49999,32,40000,13,0,40,9999,0.100000,0,0,0.000000,5,0.000000,0.000000,0.297793,0,0,0,0,0,0,0
4,49999,33,40000,54,10000,40,9999,0.100000,0,0,0.000000,5,0.000000,0.000000,0.187690,0,0,0,0,0,0,0
4,49999,34,40000,0,20000,40,9999,0.100000,0,0,0.000000,5,0.000000,0.000000,0.095389,0,0,0,0,0,0,0
4,49999,35,40000,0,20000,40,9999,0.100000,0,0,0.000000,5,0.000000,0.000000,1.272189,0,0,0,0,0,0,0
4,49999,36,40000,0,20000,49,9999,0.100000,0,0,0.000000,5,1.000000,0.000000,12.781805,0,0,0,0,0,0,0
4,49999,37,40000,14,30000,9,9999,0.100000,0,0,34.210526,5,5.000000,0.000000,6.873062,0,0,0,0,0,0,1
4,49999,38,40000,93,20000,49,9999,0.100000,0,0,0.000000,5,1.000000,0.000000,1.452541,0,0,0,0,0,0,0
4,49999,39,40000,93,20000,40,9999,0.100000,0,0,0.000000,5,0.000000,0.000000,0.355963,0,0,0,0,0,0,0
4,49999,40,40000,93,20000,40,9999,0.100000,0,0,0.000000,5,0.000000,0.000000,0.285037,0,0,0,0,0,0,0
4,49999,41,40000,54,10000,40,9999,0.100000,0,0,0.000000,5,0.000000,0.000000,0.081070,0,0,0,0,0,0,0
4,49999,42,40000,54,10000,40,9999,0.100000,0,0,0.000000,5,0.000000,0.000000,0.820372,0,0,0,0,0,0,0
4,49999,43,40000,0,20000,40,9999,0.100000,0,0,0.000000,5,0.000000,0.000000,0.093543,0,0,0,0,0,0,0
4,49999,44,40000,93,20000,40,9999,0.100000,0,0,0.000000,5,0.000000,0.000000,0.352074,0,0,0,0,0,0,0
4,49999,45,40000,0,20000,40,9999,0.100000,0,0,0.000000,5,0.000000,0.000000,1.347889,0,0,0,0,0,0,0
4,49999,46,40000,93,20000,40,9999,0.100000,0,0,0.000000,5,0.000000,0.000000,0.129772,0,0,0,0,0,0,0
4,49999,47,40000,93,20000,40,9999,0.100000,0,0,0.000000,5,0.000000,0.000000,0.202127,0,0,0,0,0,0,0
4,49999,48,40000,13,0,9,9999,0.100000,0,0,34.210526,5,5.000000,0.000000,6.859598,0,0,0,0,0,0,1
4,49999,49,40000,54,10000,40,9999,0.100000,0,0,0.000000,5,0.000000,0.000000,0.145643,0,0,0,0,0,0,0
4,49999,50,40000,93,20000,49,9999,0.100000,0,0,0.000000,5,2.000000,0.000000,16.977474,0,0,0,0,0,0,0
4,49999,51,40000,93,20000,40,9999,0.100000,0,0,0.000000,5,0.000000,0.000000,0.611012,0,0,0,0,0,0,0
4,49999,52,40000,93,20000,40,9999,0.100000,0,0,0.000000,5,0.000000,0.000000,0.063946,0,0,0,0,0,0,0
4,49999,53,40000,54,10000,40,9999,0.100000,0,0,0.000000,5,0.000000,0.000000,0.157537,0,0,0,0,0,0,0
4,49999,54,40000,93,20000,40,9999,0.100000,0,0,0.000000,5,0.000000,0.000000,14.898427,0,0,0,0,0,0,0
4,49999,55,40000,93,20000,40,9999,0.100000,0,0,0.000000,5,0.000000,0.000000,0.266761,0,0,0,0,0,0,0
4,49999,56,40000,0,20000,40,9999,0.100000,0,0,0.000000,5,0.000000,0.000000,0.171613,0,0,0,0,0,0,0
4,49999,57,40000,13,0,49,9999,0.100000,0,0,0.000000,5,2.000000,0.000000,5.327477,0,0,0,0,0,0,0
4,49999,58,40000,54,10000,49,9999,0.100000,0,0,0.000000,5,2.000000,0.000000,17.047692,0,0,0,0,0,0,0
4,49999,59,40000,13,0,40,9999,0.100000,0,0,0.000000,5,0.000000,0.000000,0.866386,0,0,0,0,0,0,0
4,49999,60,40000,0,20000,40,9999,0.100000,0,0,0.000000,5,0.000000,0.000000,0.338909,0,0,0,0,0,0,0
4,49999,61,40000,13,0,40,9999,0.100000,0,0,0.000000,5,0.000000,0.000000,10.815808,0,0,0,0,0,0,0
4,49999,62,40000,14,30000,40,9999,0.100000,0,0,0.000000,5,0.000000,0.000000,0.519237,0,0,0,0,0,0,0
4,49999,63,40000,0,20000,40,9999,0.100000,0,0,0.000000,5,0.000000,0.000000,0.132288,0,0,0,0,0,0,0
4,49999,64,40000,13,0,49,9999,0.100000,0,0,0.000000,5,1.000000,0.000000,20.321861,0,0,0,0,0,0,0
4,49999,65,40000,54,10000,40,9999,0.100000,0,0,0.000000,5,0.000000,0.000000,0.172856,0,0,0,0,0,0,0
4,49999,66,40000,13,0,40,9999,0.100000,0,0,0.000000,5,0.000000,0.000000,1.195259,0,0,0,0,0,0,0
4,49999,67,40000,93,20000,40,9999,0.100000,0,0,0.000000,5,0.000000,0.000000,8.737278,0,0,0,0,0,0,0
4,49999,68,40000,54,10000,40,9999,0.100000,0,0,0.000000,5,0.000000,0.000000,1.346387,0,0,0,0,0,0,0
4,49999,69,40000,14,30000,9,9999,0.100000,0,0,34.210526,5,4.000000,0.000000,8.627170,0,0,0,1,0,0,0
4,49999,70,40000,14,30000,49,9999,0.100000,0,0,0.000000,5,1.000000,0.000000,7.647036,0,0,0,0,0,0,0
4,49999,71,40000,54,10000,49,9999,0.100000,0,0,0.000000,5,6.000000,0.000000,15.116529,0,0,0,0,0,0,0
4,49999,72,40000,0,20000,40,9999,0.100000,0,0,0.000000,5,0.000000,0.000000,0.218247,0,0,0,0,0,0,0
4,49999,73,40000,14,30000,40,9999,0.100000,0,0,0.000000,5,0.000000,0.000000,0.112443,0,0,0,0,0,0,0
4,49999,74,40000,20,20000,40,9999,0.100000,0,0,0.000000,5,0.000000,0.000000,1.360679,0,0,0,0,0,0,0
4,49999,75,40000,54,10000,9,9999,0.100000,0,0,34.210526,5,5.000000,0.000000,9.502924,0,0,0,0,0,0,1
4,49999,76,40000,54,10000,40,9999,0.100000,0,0,0.000000,5,0.000000,0.000000,0.435315,0,0,0,0,0,0,0
4,49999,77,40000,93,20000,40,9999,0.100000,0,0,0.000000,5,0.000000,0.000000,0.087406,0,0,0,0,0,0,0
4,49999,78,40000,13,0,40,9999,0.100000,0,0,0.000000,5,0.000000,0.000000,0.419213,0,0,0,0,0,0,0
4,49999,79,40000,93,20000,40,9999,0.100000,0,0,0.000000,5,0.000000,0.000000,0.588276,0,0,0,0,0,0,0
4,49999,80,40000,93,20000,40,9999,0.100000,0,0,0.000000,5,0.000000,0.000000,4.247542,0,0,0,0,0,0,0
4,49999,81,40000,93,20000,40,9999,0.100000,0,0,0.000000,5,0.000000,0.000000,0.129458,0,0,0,0,0,0,0
4,49999,82,40000,0,20000,40,9999,0.100000,0,0,0.000000,5,0.000000,0.000000,0.752368,0,0,0,0,0,0,0
4,49999,83,40000,13,0,40,9999,0.100000,0,0,0.000000,5,0.000000,0.000000,0.566680,0,0,0,0,0,0,0
4,49999,84,40000,93,20000,49,9999,0.100000,0,0,0.000000,5,5.000000,0.000000,9.691446,0,0,0,0,0,0,0
4,49999,85,40000,54,10000,40,9999,0.100000,0,0,0.000000,5,0.000000,0.000000,0.231956,0,0,0,0,0,0,0
4,49999,86,40000,0,20000,40,9999,0.100000,0,0,0.000000,5,0.000000,0.000000,0.140807,0,0,0,0,0,0,0
4,49999,87,40000,0,20000,40,9999,0.100000,0,0,0.000000,5,0.000000,0.000000,0.201658,0,0,0,0,0,0,0
4,49999,88,40000,14,30000,40,9999,0.100000,0,0,0.000000,5,0.000000,0.000000,0.241105,0,0,0,0,0,0,0
4,49999,89,40000,0,20000,40,9999,0.100000,0,0,0.000000,5,0.000000,0.000000,0.907514,0,0,0,0,0,0,0
4,49999,90,40000,13,0,40,9999,0.100000,0,0,0.000000,5,0.000000,0.000000,0.317857,0,0,0,0,0,0,0
4,49999,91,40000,13,0,40,9999,0.100000,0,0,0.000000,5,0.000000,0.000000,0.171990,0,0,0,0,0,0,0
4,49999,92,40000,14,30000,9,9999,0.100000,0,0,34.210526,5,4.000000,0.000000,7.929297,0,0,0,1,0,0,0
4,49999,93,40000,93,20000,40,9999,0.100000,0,0,0.000000,5,0.000000,0.000000,0.171348,0,0,0,0,0,0,0
4,49999,94,40000,14,30000,49,9999,0.100000,0,0,0.000000,5,1.000000,0.000000,6.862224,0,0,0,0,0,0,0
4,49999,95,40000,93,20000,49,9999,0.100000,0,0,0.000000,5,2.000000,0.000000,16.093456,0,0,0,0,0,0,0
4,49999,96,40000,14,30000,40,9999,0.100000,0,0,0.000000,5,0.000000,0.000000,0.790469,0,0,0,0,0,0,0
4,49999,97,40000,0,20000,40,9999,0.100000,0,0,0.000000,5,0.000000,0.000000,3.158411,0,0,0,0,0,0,0
4,49999,98,40000,0,20000,49,9999,0.100000,0,0,0.000000,5,1.000000,0.000000,19.554725,0,0,0,0,0,0,0
4,49999,99,40000,14,30000,9,9999,0.100000,0,0,34.210526,5,5.000000,0.000000,7.241770,0,0,0,0,0,0,1
5,59999,0,50000,93,20000,49,9999,0.100000,0,0,0.000000,5,2.000000,0.000000,3.368947,0,0,0,0,0,0,0
5,59999,1,50000,54,10000,40,9999,0.100000,0,0,0.000000,5,0.000000,0.000000,0.116274,0,0,0,0,0,0,0
5,59999,2,50000,54,10000,40,9999,0.100000,0,0,0.000000,5,0.000000,0.000000,0.745925,0,0,0,0,0,0,0
5,59999,3,50000,0,20000,40,9999,0.100000,0,0,0.000000,5,0.000000,0.000000,1.017634,0,0,0,0,0,0,0
5,59999,4,50000,13,0,40,9999,0.100000,0,0,0.000000,5,0.000000,0.000000,22.913918,0,0,0,0,0,0,0
5,59999,5,50000,93,20000,40,9999,0.100000,0,0,0.000000,5,0.000000,0.000000,0.642638,0,0,0,0,0,0,0
5,59999,6,40000,14,30000,40,19999,0.100000,0,0,0.000000,5,0.000000,0.000000,0.142722,0,0,0,0,0,0,0
5,59999,7,50000,93,20000,40,9999,0.100000,0,0,0.000000,5,0.000000,0.000000,20.337131,0,0,0,0,0,0,0
5,59999,8,50000,54,10000,49,9999,0.100000,0,0,0.000000,5,2.000000,0.000000,16.423227,0,0,0,0,0,0,0
5,59999,9,50000,0,20000,40,9999,0.100000,0,0,0.000000,5,0.000000,0.000000,3.589724,0,0,0,0,0,0,0
5,59999,10,50000,54,10000,49,9999,0.100000,0,0,0.000000,5,1.000000,0.000000,5.553159,0,0,0,0,0,0,0
5,59999,11,50000,0,20000,40,9999,0.100000,0,0,0.000000,5,0.000000,0.000000,0.968527,0,0,0,0,0,0,0
5,59999,12,50000,14,30000,40,9999,0.100000,0,0,0.000000,5,0.000000,0.000000,3.334158,0,0,0,0,0,0,0
5,59999,13,50000,14,30000,49,9999,0.100000,0,0,0.000000,5,5.000000,0.000000,12.262563,0,0,0,0,0,0,0
5,59999,14,50000,54,10000,49,9999,0.100000,0,0,0.000000,5,2.000000,0.000000,6.052687,0,0,0,0,0,0,0
5,59999,15,50000,0,20000,49,9999,0.100000,0,0,0.000000,5,1.000000,0.000000,13.726176,0,0,0,0,0,0,0
5,59999,16,50000,0,20000,40,9999,0.100000,0,0,0.000000,5,0.000000,0.000000,0.138220,0,0,0,0,0,0,0
5,59999,17,50000,0,20000,40,9999,0.100000,0,0,0.000000,5,0.000000,0.000000,0.127479,0,0,0,0,0,0,0
5,59999,18,50000,54,10000,40,9999,0.100000,0,0,0.000000,5,0.000000,0.000000,0.174493,0,0,0,0,0,0,0
5,59999,19,50000,54,10000,40,9999,0.100000,0,0,0.000000,5,0.000000,0.000000,0.145337,0,0,0,0,0,0,0
5,59999,20,50000,13,0,40,9999,0.100000,0,0,0.000000,5,0.000000,0.000000,1.853365,0,0,0,0,0,0,0
5,59999,21,50000,0,20000,40,9999,0.100000,0,0,0.000000,5,0.000000,0.000000,6.367419,0,0,0,0,0,0,0
5,59999,22,50000,13,0,40,9999,0.100000,0,0,0.000000,5,0.000000,0.000000,0.378103,0,0,0,0,0,0,0
5,59999,23,50000,54,10000,40,9999,0.100000,0,0,0.000000,5,0.000000,0.000000,0.603568,0,0,0,0,0,0,0
5,59999,24,50000,93,20000,40,9999,0.100000,0,0,0.000000,5,0.000000,0.000000,1.047687,0,0,0,0,0,0,0
5,59999,25,50000,54,10000,40,9999,0.100000,0,0,0.000000,5,0.000000,0.000000,1.209289,0,0,0,0,0,0,0
5,59999,26,50000,54,10000,40,9999,0.135000,0,0,0.000000,5,0.000000,0.000000,1.518356,0,0,0,0,0,0,0
5,59999,27,50000,13,0,40,9999,0.100000,0,0,0.000000,5,0.000000,0.000000,0.402742,0,0,0,0,0,0,0
5,59999,28,50000,54,10000,40,9999,0.100000,0,0,0.000000,5,0.000000,0.000000,0.996438,0,0,0,0,0,0,0
5,59999,29,50000,0,20000,40,9999,0.100000,0,0,0.000000,5,0.000000,0.000000,0.977835,0,0,0,0,0,0,0
5,59999,30,50000,13,0,40,9999,0.100000,0,0,0.000000,5,0.000000,0.000000,0.109698,0,0,0,0,0,0,0
5,59999,31,50000,0,20000,40,9999,0.100000,0,0,0.000000,5,0.000000,0.000000,0.682582,0,0,0,0,0,0,0
5,59999,32,50000,54,10000,40,9999,0.100000,0,0,0.000000,5,0.000000,0.000000,0.300875,0,0,0,0,0,0,0
5,59999,33,50000,54,10000,40,9999,0.100000,0,0,0.000000,5,0.000000,0.000000,0.167180,0,0,0,0,0,0,0
5,59999,34,50000,13,0,40,9999,0.100000,0,0,0.000000,5,0.000000,0.000000,0.145988,0,0,0,0,0,0,0
5,59999,35,50000,0,20000,40,9999,0.100000,0,0,0.000000,5,0.000000,0.000000,0.136282,0,0,0,0,0,0,0
5,59999,36,50000,93,20000,49,9999,0.100000,0,0,0.000000,5,2.000000,0.000000,7.445421,0,0,0,0,0,0,0
5,59999,37,50000,13,0,49,9999,0.100000,0,0,0.000000,5,1.000000,0.000000,10.910663,0,0,0,0,0,0,0
5,59999,38,50000,14,30000,40,9999,0.100000,0,0,0.000000,5,0.000000,0.000000,1.263152,0,0,0,0,0,0,0
5,59999,39,50000,93,20000,40,9999,0.100000,0,0,0.000000,5,0.000000,0.000000,0.254625,0,0,0,0,0,0,0
5,59999,40,50000,13,0,40,9999,0.100000,0,0,0.000000,5,0.000000,0.000000,0.563925,0,0,0,0,0,0,0
5,59999,41,50000,93,20000,40,9999,0.100000,0,0,0.000000,5,0.000000,0.000000,0.082070,0,0,0,0,0,0,0
5,59999,42,50000,93,20000,40,9999,0.100000,0,0,0.000000,5,0.000000,0.000000,1.035091,0,0,0,0,0,0,0
5,59999,43,50000,13,0,40,9999,0.100000,0,0,0.000000,5,0.000000,0.000000,0.654128,0,0,0,0,0,0,0
5,59999,44,50000,54,10000,40,9999,0.100000,0,0,0.000000,5,0.000000,0.000000,0.679359,0,0,0,0,0,0,0
5,59999,45,50000,54,10000,40,9999,0.100000,0,0,0.000000,5,0.000000,0.000000,0.692572,0,0,0,0,0,0,0
5,59999,46,50000,54,10000,40,9999,0.100000,0,0,0.000000,5,0.000000,0.000000,0.144759,0,0,0,0,0,0,0
5,59999,47,50000,54,10000,40,9999,0.100000,0,0,0.000000,5,0.000000,0.000000,0.423242,0,0,0,0,0,0,0
5,59999,48,50000,54,10000,49,9999,0.100000,0,0,0.000000,5,7.000000,0.000000,8.601801,0,0,0,0,0,0,0
5,59999,49,50000,93,20000,40,9999,0.100000,0,0,0.000000,5,0.000000,0.000000,0.146439,0,0,0,0,0,0,0
5,59999,50,50000,93,20000,49,9999,0.100000,0,0,0.000000,5,2.000000,0.000000,8.842796,0,0,0,0,0,0,0
5,59999,51,50000,93,20000,40,9999,0.100000,0,0,0.000000,5,0.000000,0.000000,0.797069,0,0,0,0,0,0,0
5,59999,52,50000,93,20000,40,9999,0.100000,0,0,0.000000,5,0.000000,0.000000,0.062759,0,0,0,0,0,0,0
5,59999,53,50000,14,30000,40,9999,0.100000,0,0,0.000000,5,0.000000,0.000000,0.175748,0,0,0,0,0,0,0
5,59999,54,50000,0,20000,40,9999,0.100000,0,0,0.000000,5,0.000000,0.000000,5.343197,0,0,0,0,0,0,0
5,59999,55,50000,0,20000,40,9999,0.100000,0,0,0.000000,5,0.000000,0.000000,0.240237,0,0,0,0,0,0,0
5,59999,56,50000,14,30000,40,9999,0.100000,0,0,0.000000,5,0.000000,0.000000,0.211208,0,0,0,0,0,0,0
5,59999,57,50000,13,0,40,9999,0.100000,0,0,0.000000,5,0.000000,0.000000,0.501238,0,0,0,0,0,0,0
5,59999,58,50000,0,20000,49,9999,0.100000,0,0,0.000000,5,2.000000,0.000000,2.483090,0,0,0,0,0,0,0
5,59999,59,50000,0,20000,40,9999,0.100000,0,0,0.000000,5,0.000000,0.000000,0.851679,0,0,0,0,0,0,0
5,59999,60,50000,54,10000,40,9999,0.100000,0,0,0.000000,5,0.000000,0.000000,0.316894,0,0,0,0,0,0,0
5,59999,61,50000,93,20000,40,9999,0.100000,0,0,0.000000,5,0.000000,0.000000,4.301368,0,0,0,0,0,0,0
5,59999,62,50000,14,30000,40,9999,0.100000,0,0,0.000000,5,0.000000,0.000000,0.578568,0,0,0,0,0,0,0
5,59999,63,50000,14,30000,40,9999,0.100000,0,0,0.000000,5,0.000000,0.000000,0.136552,0,0,0,0,0,0,0
5,59999,64,50000,0,20000,49,9999,0.100000,0,0,0.000000,5,1.000000,0.000000,16.202267,0,0,0,0,0,0,0
5,59999,65,50000,13,0,40,9999,0.100000,0,0,0.000000,5,0.000000,0.000000,0.144025,0,0,0,0,0,0,0
5,59999,66,50000,13,0,40,9999,0.100000,0,0,0.000000,5,0.000000,0.000000,0.447844,0,0,0,0,0,0,0
5,59999,67,50000,93,20000,40,9999,0.100000,0,0,0.000000,5,0.000000,0.000000,1.478336,0,0,0,0,0,0,0
5,59999,68,50000,14,30000,40,9999,0.100000,0,0,0.000000,5,0.000000,0.000000,1.363854,0,0,0,0,0,0,0
5,59999,69,50000,13,0,49,9999,0.100000,0,0,0.000000,5,5.000000,0.000000,18.878241,0,0,0,0,0,0,0
5,59999,70,50000,0,20000,40,9999,0.100000,0,0,0.000000,5,0.000000,0.000000,1.649164,0,0,0,0,0,0,0
5,59999,71,50000,14,30000,40,9999,0.100000,0,0,0.000000,5,0.000000,0.000000,0.942111,0,0,0,0,0,0,0
5,59999,72,50000,14,30000,40,9999,0.100000,0,0,0.000000,5,0.000000,0.000000,0.238951,0,0,0,0,0,0,0
5,59999,73,50000,13,0,40,9999,0.100000,0,0,0.000000,5,0.000000,0.000000,0.111168,0,0,0,0,0,0,0
5,59999,74,50000,13,0,40,9999,0.100000,0,0,0.000000,5,0.000000,0.000000,0.462184,0,0,0,0,0,0,0
5,59999,75,50000,54,10000,40,9999,0.100000,0,0,0.000000,5,0.000000,0.000000,5.209530,0,0,0,0,0,0,0
5,59999,76,50000,0,20000,40,9999,0.100000,0,0,0.000000,5,0.000000,0.000000,0.444656,0,0,0,0,0,0,0
5,59999,77,50000,13,0,40,9999,0.100000,0,0,0.000000,5,0.000000,0.000000,0.087466,0,0,0,0,0,0,0
5,59999,78,50000,93,20000,40,9999,0.100000,0,0,0.000000,5,0.000000,0.000000,0.614997,0,0,0,0,0,0,0
5,59999,79,50000,93,20000,40,9999,0.100000,0,0,0.000000,5,0.000000,0.000000,0.593703,0,0,0,0,0,0,0
5,59999,80,50000,14,30000,40,9999,0.100000,0,0,0.000000,5,0.000000,0.000000,3.070994,0,0,0,0,0,0,0
5,59999,81,50000,13,0,40,9999,0.100000,0,0,0.000000,5,0.000000,0.000000,0.138752,0,0,0,0,0,0,0
5,59999,82,50000,0,20000,40,9999,0.100000,0,0,0.000000,5,0.000000,0.000000,0.463063,0,0,0,0,0,0,0
5,59999,83,50000,14,30000,40,9999,0.100000,0,0,0.000000,5,0.000000,0.000000,0.447017,0,0,0,0,0,0,0
5,59999,84,50000,93,20000,40,9999,0.100000,0,0,0.000000,5,0.000000,0.000000,3.343377,0,0,0,0,0,0,0
5,59999,85,50000,93,20000,40,9999,0.100000,0,0,0.000000,5,0.000000,0.000000,0.235751,0,0,0,0,0,0,0
5,59999,86,50000,13,0,40,9999,0.100000,0,0,0.000000,5,0.000000,0.000000,0.156708,0,0,0,0,0,0,0
5,59999,87,50000,14,30000,40,9999,0.100000,0,0,0.000000,5,0.000000,0.000000,0.154884,0,0,0,0,0,0,0
5,59999,88,50000,0,20000,40,9999,0.100000,0,0,0.000000,5,0.000000,0.000000,0.231858,0,0,0,0,0,0,0
5,59999,89,50000,13,0,40,9999,0.100000,0,0,0.000000,5,0.000000,0.000000,0.339543,0,0,0,0,0,0,0
5,59999,90,50000,54,10000,40,9999,0.100000,0,0,0.000000,5,0.000000,0.000000,0.193040,0,0,0,0,0,0,0
5,59999,91,50000,93,20000,40,9999,0.100000,0,0,0.000000,5,0.000000,0.000000,0.168980,0,0,0,0,0,0,0
5,59999,92,50000,54,10000,49,9999,0.100000,0,0,0.000000,5,1.000000,0.000000,7.032250,0,0,0,0,0,0,0
5,59999,93,50000,13,0,40,9999,0.100000,0,0,0.000000,5,0.000000,0.000000,0.166700,0,0,0,0,0,0,0
5,59999,94,50000,14,30000,49,9999,0.100000,0,0,0.000000,5,3.000000,0.000000,9.563773,0,0,0,0,0,0,0
5,59999,95,50000,0,20000,40,9999,0.100000,0,0,0.000000,5,0.000000,0.000000,0.797945,0,0,0,0,0,0,0
5,59999,96,50000,0,20000,40,9999,0.100000,0,0,0.000000,5,0.000000,0.000000,0.785076,0,0,0,0,0,0,0
5,59999,97,50000,93,20000,40,9999,0.100000,0,0,0.000000,5,0.000000,0.000000,0.554845,0,0,0,0,0,0,0
5,59999,98,50000,14,30000,40,9999,0.100000,0,0,0.000000,5,0.000000,0.000000,22.614824,0,0,0,0,0,0,0
5,59999,99,50000,14,30000,40,9999,0.100000,0,0,0.000000,5,0.000000,0.000000,5.838610,0,0,0,0,0,0,0
6,69999,0,60000,14,30000,40,9999,0.100000,0,0,0.000000,5,0.000000,0.000000,0.136012,0,0,0,0,0,0,0
6,69999,1,60000,93,20000,40,9999,0.100000,0,0,0.000000,5,0.000000,0.000000,0.100860,0,0,0,0,0,0,0
6,69999,2,60000,93,20000,40,9999,0.100000,0,0,0.000000,5,0.000000,0.000000,0.734059,0,0,0,0,0,0,0
6,69999,3,60000,54,10000,40,9999,0.100000,0,0,0.000000,5,0.000000,0.000000,1.079980,0,0,0,0,0,0,0
6,69999,4,60000,14,30000,40,9999,0.100000,0,0,0.000000,5,0.000000,0.000000,22.584189,0,0,0,0,0,0,0
6,69999,5,60000,14,30000,40,9999,0.100000,0,0,0.000000,5,0.000000,0.000000,0.693961,0,0,0,0,0,0,0
6,69999,6,60000,54,10000,40,9999,0.100000,0,0,0.000000,5,0.000000,0.000000,0.142344,0,0,0,0,0,0,0
6,69999,7,60000,93,20000,40,9999,0.100000,0,0,0.000000,5,0.000000,0.000000,20.595968,0,0,0,0,0,0,0
6,69999,8,60000,54,10000,40,9999,0.100000,0,0,0.000000,5,0.000000,0.000000,15.136014,0,0,0,0,0,0,0
6,69999,9,60000,14,30000,40,9999,0.100000,0,0,0.000000,5,0.000000,0.000000,3.036299,0,0,0,0,0,0,0
6,69999,10,60000,13,0,40,9999,0.100000,0,0,0.000000,5,0.000000,0.000000,12.306994,0,0,0,0,0,0,0
6,69999,11,60000,13,0,40,9999,0.100000,0,0,0.000000,5,0.000000,0.000000,0.975934,0,0,0,0,0,0,0
6,69999,12,60000,13,0,40,9999,0.100000,0,0,0.000000,5,0.000000,0.000000,3.370846,0,0,0,0,0,0,0
6,69999,13,60000,0,20000,49,9999,0.100000,0,0,0.000000,5,1.000000,0.000000,16.186434,0,0,0,0,0,0,0
6,69999,14,60000,93,20000,40,9999,0.100000,0,0,0.000000,5,0.000000,0.000000,0.247239,0,0,0,0,0,0,0
6,69999,15,50000,0,20000,9,19999,0.100000,0,0,0.000000,5,1.000000,0.000000,8.975634,0,0,0,0,1,0,0
6,69999,16,60000,0,20000,40,9999,0.100000,0,0,0.000000,5,0.000000,0.000000,0.141253,0,0,0,0,0,0,0
6,69999,17,60000,14,30000,40,9999,0.100000,0,0,0.000000,5,0.000000,0.000000,0.138569,0,0,0,0,0,0,0
6,69999,18,60000,0,20000,40,9999,0.100000,0,0,0.000000,5,0.000000,0.000000,0.164344,0,0,0,0,0,0,0
6,69999,19,60000,54,10000,40,9999,0.100000,0,0,0.000000,5,0.000000,0.000000,0.143406,0,0,0,0,0,0,0
6,69999,20,60000,14,30000,49,9999,0.100000,0,0,0.000000,5,4.000000,0.000000,5.991258,0,0,0,0,0,0,0
6,69999,21,60000,93,20000,49,9999,0.100000,0,0,0.000000,5,2.000000,0.000000,8.597821,0,0,0,0,0,0,0
6,69999,22,60000,54,10000,40,9999,0.100000,0,0,0.000000,5,0.000000,0.000000,0.324850,0,0,0,0,0,0,0
6,69999,23,60000,93,20000,40,9999,0.100000,0,0,0.000000,5,0.000000,0.000000,0.452025,0,0,0,0,0,0,0
6,69999,24,60000,0,20000,49,9999,0.100000,0,0,0.000000,5,1.000000,0.000000,1.501358,0,0,0,0,0,0,0
6,69999,25,60000,14,30000,9,9999,0.100000,0,0,0.000000,5,2.000000,0.000000,5.476761,0,0,0,1,0,0,0
6,69999,26,60000,13,0,40,9999,0.100000,0,0,0.000000,5,0.000000,0.000000,1.384151,0,0,0,0,0,0,0
6,69999,27,60000,14,30000,40,9999,0.100000,0,0,0.000000,5,0.000000,0.000000,0.765019,0,0,0,0,0,0,0
6,69999,28,60000,0,20000,40,9999,0.100000,0,0,0.000000,5,0.000000,0.000000,14.621443,0,0,0,0,0,0,0
6,69999,29,60000,14,30000,40,9999,0.100000,0,0,0.000000,5,0.000000,0.000000,0.962133,0,0,0,0,0,0,0
6,69999,30,60000,0,20000,40,9999,0.100000,0,0,0.000000,5,0.000000,0.000000,0.147154,0,0,0,0,0,0,0
6,69999,31,60000,93,20000,40,9999,0.100000,0,0,0.000000,5,0.000000,0.000000,0.538649,0,0,0,0,0,0,0
6,69999,32,60000,54,10000,40,9999,0.100000,0,0,0.000000,5,0.000000,0.000000,0.244612,0,0,0,0,0,0,0
6,69999,33,60000,0,20000,40,9999,0.100000,0,0,0.000000,5,0.000000,0.000000,0.171612,0,0,0,0,0,0,0
6,69999,34,60000,93,20000,40,9999,0.100000,0,0,0.000000,5,0.000000,0.000000,0.131546,0,0,0,0,0,0,0
6,69999,35,60000,14,30000,40,9999,0.100000,0,0,0.000000,5,0.000000,0.000000,0.159844,0,0,0,0,0,0,0
6,69999,36,60000,54,10000,40,9999,0.100000,0,0,0.000000,5,0.000000,0.000000,11.543929,0,0,0,0,0,0,0
6,69999,37,60000,54,10000,49,9999,0.100000,0,0,0.000000,5,6.000000,0.000000,8.643521,0,0,0,0,0,0,0
6,69999,38,60000,14,30000,40,9999,0.100000,0,0,0.000000,5,0.000000,0.000000,1.409827,0,0,0,0,0,0,0
6,69999,39,60000,13,0,40,9999,0.100000,0,0,0.000000,5,0.000000,0.000000,0.360923,0,0,0,0,0,0,0
6,69999,40,60000,13,0,40,9999,0.100000,0,0,0.000000,5,0.000000,0.000000,0.676131,0,0,0,0,0,0,0
6,69999,41,60000,14,30000,40,9999,0.100000,0,0,0.000000,5,0.000000,0.000000,0.081050,0,0,0,0,0,0,0
6,69999,42,60000,93,20000,40,9999,0.100000,0,0,0.000000,5,0.000000,0.000000,1.339350,0,0,0,0,0,0,0
6,69999,43,60000,13,0,40,9999,0.100000,0,0,0.000000,5,0.000000,0.000000,1.155246,0,0,0,0,0,0,0
6,69999,44,60000,0,20000,40,9999,0.100000,0,0,0.000000,5,0.000000,0.000000,0.381908,0,0,0,0,0,0,0
6,69999,45,60000,14,30000,40,9999,0.100000,0,0,0.000000,5,0.000000,0.000000,0.631433,0,0,0,0,0,0,0
6,69999,46,60000,14,30000,40,9999,0.100000,0,0,0.000000,5,0.000000,0.000000,0.121727,0,0,0,0,0,0,0
6,69999,47,60000,54,10000,40,9999,0.100000,0,0,0.000000,5,0.000000,0.000000,0.830680,0,0,0,0,0,0,0
6,69999,48,60000,93,20000,40,9999,0.100000,0,0,0.000000,5,0.000000,0.000000,0.932454,0,0,0,0,0,0,0
6,69999,49,60000,93,20000,40,9999,0.100000,0,0,0.000000,5,0.000000,0.000000,0.157130,0,0,0,0,0,0,0
6,69999,50,60000,14,30000,40,9999,0.100000,0,0,0.000000,5,0.000000,0.000000,0.084243,0,0,0,0,0,0,0
6,69999,51,60000,54,10000,40,9999,0.100000,0,0,0.000000,5,0.000000,0.000000,0.168145,0,0,0,0,0,0,0
6,69999,52,60000,0,20000,40,9999,0.100000,0,0,0.000000,5,0.000000,0.000000,0.063142,0,0,0,0,0,0,0
6,69999,53,60000,93,20000,0,9999,0.100000,0,0,0.000000,5,0.000000,0.000000,0.958080,0,0,0,0,1,0,0
6,69999,54,60000,54,10000,0,9999,0.100000,0,0,0.000000,5,0.000000,0.000000,11.375324,0,0,0,1,0,0,0
6,69999,55,60000,13,0,40,9999,0.100000,0,0,0.000000,5,0.000000,0.000000,0.236868,0,0,0,0,0,0,0
6,69999,56,60000,13,0,40,9999,0.100000,0,0,0.000000,5,0.000000,0.000000,0.625866,0,0,0,0,0,0,0
6,69999,57,60000,0,20000,40,9999,0.100000,0,0,0.000000,5,0.000000,0.000000,0.456901,0,0,0,0,0,0,0
6,69999,58,60000,0,20000,40,9999,0.100000,0,0,0.000000,5,0.000000,0.000000,0.147796,0,0,0,0,0,0,0
6,69999,59,60000,13,0,40,9999,0.100000,0,0,0.000000,5,0.000000,0.000000,0.821559,0,0,0,0,0,0,0
6,69999,60,60000,93,20000,40,9999,0.100000,0,0,0.000000,5,0.000000,0.000000,0.245830,0,0,0,0,0,0,0
6,69999,61,60000,0,20000,49,9999,0.100000,0,0,0.000000,5,1.000000,0.000000,1.327612,0,0,0,0,0,0,0
6,69999,62,60000,0,20000,49,9999,0.100000,0,0,0.000000,5,8.000000,0.000000,19.434942,0,0,0,0,0,0,0
6,69999,63,60000,54,10000,40,9999,0.100000,0,0,0.000000,5,0.000000,0.000000,0.131863,0,0,0,0,0,0,0
6,69999,64,60000,54,10000,49,9999,0.100000,0,0,0.000000,5,1.000000,0.000000,11.453678,0,0,0,0,0,0,0
6,69999,65,60000,13,0,40,9999,0.100000,0,0,0.000000,5,0.000000,0.000000,0.158818,0,0,0,0,0,0,0
6,69999,66,60000,54,10000,40,9999,0.100000,0,0,0.000000,5,0.000000,0.000000,0.433490,0,0,0,0,0,0,0
6,69999,67,60000,14,30000,40,9999,0.100000,0,0,0.000000,5,0.000000,0.000000,3.459954,0,0,0,0,0,0,0
6,69999,68,60000,0,20000,40,9999,0.100000,0,0,0.000000,5,0.000000,0.000000,0.587318,0,0,0,0,0,0,0
6,69999,69,60000,93,20000,49,9999,0.100000,0,0,0.000000,5,4.000000,0.000000,10.541704,0,0,0,0,0,0,0
6,69999,70,60000,14,30000,49,9999,0.100000,0,0,0.000000,5,1.000000,0.000000,1.427616,0,0,0,0,0,0,0
6,69999,71,60000,0,20000,40,9999,0.100000,0,0,0.000000,5,0.000000,0.000000,0.779878,0,0,0,0,0,0,0
6,69999,72,60000,13,0,40,9999,0.100000,0,0,0.000000,5,0.000000,0.000000,0.206010,0,0,0,0,0,0,0
6,69999,73,60000,93,20000,40,9999,0.100000,0,0,0.000000,5,0.000000,0.000000,0.113821,0,0,0,0,0,0,0
6,69999,74,60000,13,0,40,9999,0.100000,0,0,0.000000,5,0.000000,0.000000,0.442692,0,0,0,0,0,0,0
6,69999,75,60000,54,10000,40,9999,0.100000,0,0,0.000000,5,0.000000,0.000000,1.016938,0,0,0,0,0,0,0
6,69999,76,60000,0,20000,40,9999,0.100000,0,0,0.000000,5,0.000000,0.000000,0.390676,0,0,0,0,0,0,0
6,69999,77,60000,93,20000,40,9999,0.100000,0,0,0.000000,5,0.000000,0.000000,0.086702,0,0,0,0,0,0,0
6,69999,78,60000,14,30000,40,9999,0.100000,0,0,0.000000,5,0.000000,0.000000,0.082002,0,0,0,0,0,0,0
6,69999,79,60000,54,10000,40,9999,0.100000,0,0,0.000000,5,0.000000,0.000000,0.541985,0,0,0,0,0,0,0
6,69999,80,60000,93,20000,40,9999,0.100000,0,0,0.000000,5,0.000000,0.000000,3.086373,0,0,0,0,0,0,0
6,69999,81,60000,14,30000,40,9999,0.100000,0,0,0.000000,5,0.000000,0.000000,0.124462,0,0,0,0,0,0,0
6,69999,82,60000,54,10000,40,9999,0.100000,0,0,0.000000,5,0.000000,0.000000,0.396395,0,0,0,0,0,0,0
6,69999,83,60000,54,10000,40,9999,0.100000,0,0,0.000000,5,0.000000,0.000000,0.350046,0,0,0,0,0,0,0
6,69999,84,60000,93,20000,40,9999,0.100000,0,0,0.000000,5,0.000000,0.000000,12.343321,0,0,0,0,0,0,0
6,69999,85,60000,14,30000,40,9999,0.100000,0,0,0.000000,5,0.000000,0.000000,0.239861,0,0,0,0,0,0,0
6,69999,86,60000,0,20000,40,9999,0.100000,0,0,0.000000,5,0.000000,0.000000,0.129426,0,0,0,0,0,0,0
6,69999,87,60000,14,30000,40,9999,0.100000,0,0,0.000000,5,0.000000,0.000000,0.127394,0,0,0,0,0,0,0
6,69999,88,60000,54,10000,40,9999,0.100000,0,0,0.000000,5,0.000000,0.000000,0.239386,0,0,0,0,0,0,0
6,69999,89,60000,14,30000,40,9999,0.100000,0,0,0.000000,5,0.000000,0.000000,1.056234,0,0,0,0,0,0,0
6,69999,90,60000,0,20000,40,9999,0.100000,0,0,0.000000,5,0.000000,0.000000,0.130339,0,0,0,0,0,0,0
6,69999,91,60000,93,20000,40,9999,0.100000,0,0,0.000000,5,0.000000,0.000000,0.170082,0,0,0,0,0,0,0
6,69999,92,60000,54,10000,40,9999,0.100000,0,0,0.000000,5,0.000000,0.000000,7.323331,0,0,0,0,0,0,0
6,69999,93,60000,93,20000,40,9999,0.100000,0,0,0.000000,5,0.000000,0.000000,0.162836,0,0,0,0,0,0,0
6,69999,94,60000,13,0,49,9999,0.100000,0,0,0.000000,5,3.000000,0.000000,24.731614,0,0,0,0,0,0,0
6,69999,95,60000,54,10000,40,9999,0.100000,0,0,0.000000,5,0.000000,0.000000,0.985295,0,0,0,0,0,0,0
6,69999,96,50000,0,20000,40,19999,0.100000,0,0,0.000000,5,0.000000,0.000000,0.155215,0,0,0,0,0,0,0
6,69999,97,60000,93,20000,40,9999,0.100000,0,0,0.000000,5,0.000000,0.000000,0.461001,0,0,0,0,0,0,0
6,69999,98,60000,13,0,40,9999,0.100000,0,0,0.000000,5,0.000000,0.000000,21.898099,0,0,0,0,0,0,0
6,69999,99,60000,54,10000,40,9999,0.100000,0,0,0.000000,5,0.000000,0.000000,3.032882,0,0,0,0,0,0,0
7,79999,0,70000,93,20000,40,9999,0.100000,0,0,0.000000,5,0.000000,0.000000,0.134895,0,0,0,0,0,0,0
7,79999,1,70000,93,20000,40,9999,0.100000,0,0,0.000000,5,0.000000,0.000000,0.090609,0,0,0,0,0,0,0
7,79999,2,70000,93,20000,40,9999,0.100000,0,0,0.000000,5,0.000000,0.000000,0.738933,0,0,0,0,0,0,0
7,79999,3,70000,93,20000,40,9999,0.100000,0,0,0.000000,5,0.000000,0.000000,1.136921,0,0,0,0,0,0,0
7,79999,4,70000,93,20000,40,9999,0.100000,0,0,0.000000,5,0.000000,0.000000,22.336500,0,0,0,0,0,0,0
7,79999,5,70000,54,10000,40,9999,0.100000,0,0,0.000000,5,0.000000,0.000000,0.795015,0,0,0,0,0,0,0
7,79999,6,70000,13,0,40,9999,0.100000,0,0,0.000000,5,0.000000,0.000000,0.162636,0,0,0,0,0,0,0
7,79999,7,70000,93,20000,40,9999,0.100000,0,0,0.000000,5,0.000000,0.000000,20.558863,0,0,0,0,0,0,0
7,79999,8,70000,14,30000,49,9999,0.100000,0,0,0.000000,5,1.000000,0.000000,12.848288,0,0,0,0,0,0,0
7,79999,9,70000,13,0,40,9999,0.100000,0,0,0.000000,5,0.000000,0.000000,1.462237,0,0,0,0,0,0,0
7,79999,10,70000,0,20000,9,9999,0.100000,0,0,34.210526,5,4.000000,0.000000,18.097950,0,0,0,1,0,0,0
7,79999,11,70000,93,20000,40,9999,0.100000,0,0,0.000000,5,0.000000,0.000000,0.968487,0,0,0,0,0,0,0
7,79999,12,70000,54,10000,40,9999,0.100000,0,0,0.000000,5,0.000000,0.000000,3.364894,0,0,0,0,0,0,0
7,79999,13,70000,14,30000,49,9999,0.100000,0,0,0.000000,5,1.000000,0.000000,4.568375,0,0,0,0,0,0,0
7,79999,14,70000,53,60000,40,9999,0.100000,0,0,0.000000,5,0.000000,0.000000,0.079085,0,0,0,0,0,0,0
7,79999,15,70000,54,10000,40,9999,0.100000,0,0,0.000000,5,0.000000,0.000000,0.380281,0,0,0,0,0,0,0
7,79999,16,70000,53,60000,40,9999,0.100000,0,0,0.000000,5,0.000000,0.000000,0.153233,0,0,0,0,0,0,0
7,79999,17,70000,54,10000,49,9999,0.100000,0,0,0.000000,5,1.000000,0.000000,2.159687,0,0,0,0,0,0,0
7,79999,18,70000,13,0,40,9999,0.100000,0,0,0.000000,5,0.000000,0.000000,0.173839,0,0,0,0,0,0,0
7,79999,19,70000,54,10000,40,9999,0.100000,0,0,0.000000,5,0.000000,0.000000,0.144937,0,0,0,0,0,0,0
7,79999,20,70000,13,0,49,9999,0.100000,0,0,0.000000,5,3.000000,0.000000,7.677811,0,0,0,0,0,0,0
7,79999,21,70000,13,0,40,9999,0.100000,0,0,0.000000,5,0.000000,0.000000,0.264568,0,0,0,0,0,0,0
7,79999,22,70000,53,60000,40,9999,0.100000,0,0,0.000000,5,0.000000,0.000000,0.328358,0,0,0,0,0,0,0
7,79999,23,70000,93,20000,40,9999,0.100000,0,0,0.000000,5,0.000000,0.000000,0.403094,0,0,0,0,0,0,0
7,79999,24,70000,54,10000,40,9999,0.100000,0,0,0.000000,5,0.000000,0.000000,0.873660,0,0,0,0,0,0,0
7,79999,25,70000,53,60000,49,9999,0.100000,0,0,0.000000,5,5.000000,0.000000,17.865104,0,0,0,0,0,0,0
7,79999,26,70000,53,60000,40,9999,0.100000,0,0,0.000000,5,0.000000,0.000000,1.340314,0,0,0,0,0,0,0
7,79999,27,70000,93,20000,40,9999,0.100000,0,0,0.000000,5,0.000000,0.000000,0.786263,0,0,0,0,0,0,0
7,79999,28,70000,93,20000,40,9999,0.100000,0,0,0.000000,5,0.000000,0.000000,1.019067,0,0,0,0,0,0,0
7,79999,29,70000,0,20000,40,9999,0.100000,0,0,0.000000,5,0.000000,0.000000,0.979561,0,0,0,0,0,0,0
7,79999,30,70000,54,10000,40,9999,0.100000,0,0,0.000000,5,0.000000,0.000000,0.412907,0,0,0,0,0,0,0
7,79999,31,70000,13,0,40,9999,0.135000,0,0,0.000000,5,0.000000,0.000000,0.520357,0,0,0,0,0,0,0
7,79999,32,70000,93,20000,40,9999,0.100000,0,0,0.000000,5,0.000000,0.000000,0.257626,0,0,0,0,0,0,0
7,79999,33,70000,14,30000,40,9999,0.100000,0,0,0.000000,5,0.000000,0.000000,0.153519,0,0,0,0,0,0,0
7,79999,34,70000,53,60000,40,9999,0.100000,0,0,0.000000,5,0.000000,0.000000,0.526625,0,0,0,0,0,0,0
7,79999,35,70000,54,10000,40,9999,0.100000,0,0,0.000000,5,0.000000,0.000000,0.140312,0,0,0,0,0,0,0
7,79999,36,70000,53,60000,49,9999,0.100000,0,0,0.000000,5,2.000000,0.000000,14.072292,0,0,0,0,0,0,0
7,79999,37,70000,54,10000,40,9999,0.100000,0,0,0.000000,5,0.000000,0.000000,2.411536,0,0,0,0,0,0,0
7,79999,38,70000,54,10000,40,9999,0.100000,0,0,0.000000,5,0.000000,0.000000,0.621815,0,0,0,0,0,0,0
7,79999,39,70000,54,10000,40,9999,0.100000,0,0,0.000000,5,0.000000,0.000000,0.704387,0,0,0,0,0,0,0
7,79999,40,70000,14,30000,49,9999,0.100000,0,0,0.000000,5,1.000000,0.000000,2.857076,0,0,0,0,0,0,0
7,79999,41,70000,53,60000,40,9999,0.100000,0,0,0.000000,5,0.000000,0.000000,0.119779,0,0,0,0,0,0,0
7,79999,42,70000,54,10000,40,9999,0.100000,0,0,0.000000,5,0.000000,0.000000,0.282907,0,0,0,0,0,0,0
7,79999,43,70000,14,30000,40,9999,0.100000,0,0,0.000000,5,0.000000,0.000000,1.242759,0,0,0,0,0,0,0
7,79999,44,70000,93,20000,40,9999,0.100000,0,0,0.000000,5,0.000000,0.000000,0.225395,0,0,0,0,0,0,0
7,79999,45,70000,54,10000,40,9999,0.100000,0,0,0.000000,5,0.000000,0.000000,0.629223,0,0,0,0,0,0,0
7,79999,46,70000,14,30000,40,9999,0.100000,0,0,0.000000,5,0.000000,0.000000,0.133857,0,0,0,0,0,0,0
7,79999,47,70000,93,20000,40,9999,0.100000,0,0,0.000000,5,0.000000,0.000000,0.626060,0,0,0,0,0,0,0
7,79999,48,70000,14,30000,40,9999,0.100000,0,0,0.000000,5,0.000000,0.000000,3.943313,0,0,0,0,0,0,0
7,79999,49,70000,14,30000,40,9999,0.100000,0,0,0.000000,5,0.000000,0.000000,0.158465,0,0,0,0,0,0,0
7,79999,50,70000,13,0,40,9999,0.100000,0,0,0.000000,5,0.000000,0.000000,0.086408,0,0,0,0,0,0,0
7,79999,51,70000,0,20000,40,9999,0.100000,0,0,0.000000,5,0.000000,0.000000,0.145604,0,0,0,0,0,0,0
7,79999,52,70000,93,20000,40,9999,0.100000,0,0,0.000000,5,0.000000,0.000000,0.182236,0,0,0,0,0,0,0
7,79999,53,70000,13,0,40,9999,0.100000,0,0,0.000000,5,0.000000,0.000000,0.169066,0,0,0,0,0,0,0
7,79999,54,70000,93,20000,49,9999,0.100000,0,0,0.000000,5,2.000000,0.000000,11.973237,0,0,0,0,0,0,0
7,79999,55,70000,93,20000,40,9999,0.100000,0,0,0.000000,5,0.000000,0.000000,0.238068,0,0,0,0,0,0,0
7,79999,56,70000,13,0,40,9999,0.100000,0,0,0.000000,5,0.000000,0.000000,0.216034,0,0,0,0,0,0,0
7,79999,57,70000,54,10000,40,9999,0.100000,0,0,0.000000,5,0.000000,0.000000,0.454583,0,0,0,0,0,0,0
7,79999,58,70000,93,20000,40,9999,0.100000,0,0,0.000000,5,0.000000,0.000000,0.144347,0,0,0,0,0,0,0
7,79999,59,70000,14,30000,40,9999,0.100000,0,0,0.000000,5,0.000000,0.000000,0.759563,0,0,0,0,0,0,0
7,79999,60,70000,14,60000,40,9999,0.100000,0,0,0.000000,5,0.000000,0.000000,0.215588,0,0,0,0,0,0,0
7,79999,61,70000,54,10000,49,9999,0.100000,0,0,0.000000,5,1.000000,0.000000,1.714014,0,0,0,0,0,0,0
7,79999,62,70000,93,20000,40,9999,0.100000,0,0,0.000000,5,0.000000,0.000000,0.736487,0,0,0,0,0,0,0
7,79999,63,70000,13,0,49,9999,0.100000,0,0,0.000000,5,7.000000,0.000000,15.706846,0,0,0,0,0,0,0
7,79999,64,70000,54,10000,40,9999,0.100000,0,0,0.000000,5,0.000000,0.000000,2.016003,0,0,0,0,0,0,0
7,79999,65,70000,54,10000,49,9999,0.100000,0,0,0.000000,5,1.000000,0.000000,5.199818,0,0,0,0,0,0,0
7,79999,66,70000,54,10000,40,9999,0.100000,0,0,0.000000,5,0.000000,0.000000,0.431248,0,0,0,0,0,0,0
7,79999,67,70000,54,10000,40,9999,0.100000,0,0,0.000000,5,0.000000,0.000000,1.107297,0,0,0,0,0,0,0
7,79999,68,70000,13,0,40,9999,0.100000,0,0,0.000000,5,0.000000,0.000000,0.531192,0,0,0,0,0,0,0
7,79999,69,70000,53,60000,40,9999,0.100000,0,0,0.000000,5,0.000000,0.000000,7.598751,0,0,0,0,0,0,0
7,79999,70,60000,14,30000,49,19999,0.100000,0,0,0.000000,5,1.000000,0.000000,1.686237,0,0,0,0,0,0,0
7,79999,71,70000,13,0,40,9999,0.100000,0,0,0.000000,5,0.000000,0.000000,0.772031,0,0,0,0,0,0,0
7,79999,72,70000,14,30000,40,9999,0.100000,0,0,0.000000,5,0.000000,0.000000,0.201981,0,0,0,0,0,0,0
7,79999,73,70000,93,20000,40,9999,0.100000,0,0,0.000000,5,0.000000,0.000000,0.114252,0,0,0,0,0,0,0
7,79999,74,70000,13,0,40,9999,0.100000,0,0,0.000000,5,0.000000,0.000000,0.568479,0,0,0,0,0,0,0
7,79999,75,70000,14,30000,40,9999,0.100000,0,0,0.000000,5,0.000000,0.000000,0.988262,0,0,0,0,0,0,0
7,79999,76,70000,13,0,40,9999,0.100000,0,0,0.000000,5,0.000000,0.000000,0.386489,0,0,0,0,0,0,0
7,79999,77,70000,14,30000,40,9999,0.100000,0,0,0.000000,5,0.000000,0.000000,0.118191,0,0,0,0,0,0,0
7,79999,78,70000,53,60000,40,9999,0.100000,0,0,0.000000,5,0.000000,0.000000,0.082248,0,0,0,0,0,0,0
7,79999,79,70000,53,60000,40,9999,0.100000,0,0,0.000000,5,0.000000,0.000000,0.579822,0,0,0,0,0,0,0
7,79999,80,70000,54,10000,40,9999,0.100000,0,0,0.000000,5,0.000000,0.000000,1.608042,0,0,0,0,0,0,0
7,79999,81,70000,13,0,40,9999,0.100000,0,0,0.000000,5,0.000000,0.000000,0.124015,0,0,0,0,0,0,0
7,79999,82,70000,14,30000,40,9999,0.100000,0,0,0.000000,5,0.000000,0.000000,0.436942,0,0,0,0,0,0,0
7,79999,83,70000,54,10000,40,9999,0.100000,0,0,0.000000,5,0.000000,0.000000,0.357382,0,0,0,0,0,0,0
7,79999,84,70000,54,10000,9,9999,0.100000,0,0,34.210526,5,5.000000,0.000000,15.686789,0,0,0,1,0,0,0
7,79999,85,70000,53,60000,40,9999,0.100000,0,0,0.000000,5,0.000000,0.000000,0.242331,0,0,0,0,0,0,0
7,79999,86,70000,53,60000,40,9999,0.100000,0,0,0.000000,5,0.000000,0.000000,0.126479,0,0,0,0,0,0,0
7,79999,87,70000,53,60000,40,9999,0.100000,0,0,0.000000,5,0.000000,0.000000,0.127956,0,0,0,0,0,0,0
7,79999,88,70000,93,20000,40,9999,0.100000,0,0,0.000000,5,0.000000,0.000000,0.234435,0,0,0,0,0,0,0
7,79999,89,70000,13,0,40,9999,0.100000,0,0,0.000000,5,0.000000,0.000000,0.607671,0,0,0,0,0,0,0
7,79999,90,70000,14,30000,40,9999,0.100000,0,0,0.000000,5,0.000000,0.000000,0.134116,0,0,0,0,0,0,0
7,79999,91,70000,0,20000,40,9999,0.100000,0,0,0.000000,5,0.000000,0.000000,0.120345,0,0,0,0,0,0,0
7,79999,92,70000,54,10000,40,9999,0.100000,0,0,0.000000,5,0.000000,0.000000,9.708858,0,0,0,0,0,0,0
7,79999,93,70000,14,60000,40,9999,0.100000,0,0,0.000000,5,0.000000,0.000000,0.166833,0,0,0,0,0,0,0
7,79999,94,70000,14,30000,40,9999,0.100000,0,0,0.000000,5,0.000000,0.000000,23.945111,0,0,0,0,0,0,0
7,79999,95,70000,53,60000,40,9999,0.100000,0,0,0.000000,5,0.000000,0.000000,1.072070,0,0,0,0,0,0,0
7,79999,96,70000,13,0,40,9999,0.100000,0,0,0.000000,5,0.000000,0.000000,0.149639,0,0,0,0,0,0,0
7,79999,97,70000,93,20000,40,9999,0.065000,0,0,0.000000,5,0.000000,0.000000,0.251497,0,0,0,0,0,0,0
7,79999,98,70000,93,20000,40,9999,0.100000,0,0,0.000000,5,0.000000,0.000000,22.435387,0,0,0,0,0,0,0
7,79999,99,70000,53,60000,40,9999,0.100000,0,0,0.000000,5,0.000000,0.000000,0.266590,0,0,0,0,0,0,0
8,89999,0,80000,53,60000,40,9999,0.100000,0,0,0.000000,5,0.000000,0.000000,0.138403,0,0,0,0,0,0,0
8,89999,1,80000,14,60000,40,9999,0.100000,0,0,0.000000,5,0.000000,0.000000,0.353828,0,0,0,0,0,0,0
8,89999,2,80000,53,60000,40,9999,0.100000,0,0,0.000000,5,0.000000,0.000000,0.726829,0,0,0,0,0,0,0
8,89999,3,80000,14,60000,40,9999,0.100000,0,0,0.000000,5,0.000000,0.000000,1.325434,0,0,0,0,0,0,0
8,89999,4,80000,14,60000,40,9999,0.100000,0,0,0.000000,5,0.000000,0.000000,17.597003,0,0,0,0,0,0,0
8,89999,5,80000,13,0,40,9999,0.100000,0,0,0.000000,5,0.000000,0.000000,0.633581,0,0,0,0,0,0,0
8,89999,6,80000,14,60000,40,9999,0.100000,0,0,0.000000,5,0.000000,0.000000,0.146792,0,0,0,0,0,0,0
8,89999,7,80000,14,30000,40,9999,0.100000,0,0,0.000000,5,0.000000,0.000000,8.840505,0,0,0,0,0,0,0
8,89999,8,80000,14,30000,40,9999,0.100000,0,0,0.000000,5,0.000000,0.000000,12.148226,0,0,0,0,0,0,0
8,89999,9,80000,13,0,40,9999,0.100000,0,0,0.000000,5,0.000000,0.000000,0.083307,0,0,0,0,0,0,0
8,89999,10,70000,0,20000,40,19999,0.100000,0,0,0.000000,5,0.000000,0.000000,0.922520,0,0,0,0,0,0,0
8,89999,11,80000,53,60000,40,9999,0.100000,0,0,0.000000,5,0.000000,0.000000,0.995121,0,0,0,0,0,0,0
8,89999,12,80000,53,60000,40,9999,0.100000,0,0,0.000000,5,0.000000,0.000000,3.639459,0,0,0,0,0,0,0
8,89999,13,80000,53,60000,49,9999,0.100000,0,0,0.000000,5,3.000000,0.000000,3.672796,0,0,0,0,0,0,0
8,89999,14,80000,13,0,40,9999,0.100000,0,0,0.000000,5,0.000000,0.000000,0.078839,0,0,0,0,0,0,0
8,89999,15,80000,53,60000,40,9999,0.100000,0,0,0.000000,5,0.000000,0.000000,0.201722,0,0,0,0,0,0,0
8,89999,16,80000,53,60000,40,9999,0.100000,0,0,0.000000,5,0.000000,0.000000,0.173195,0,0,0,0,0,0,0
8,89999,17,80000,14,60000,49,9999,0.100000,0,0,0.000000,5,1.000000,0.000000,3.096122,0,0,0,0,0,0,0
8,89999,18,80000,13,0,40,9999,0.100000,0,0,0.000000,5,0.000000,0.000000,0.793434,0,0,0,0,0,0,0
8,89999,19,80000,54,10000,40,9999,0.100000,0,0,0.000000,5,0.000000,0.000000,0.145665,0,0,0,0,0,0,0
8,89999,20,80000,14,30000,49,9999,0.100000,0,0,0.000000,5,1.000000,0.000000,3.065821,0,0,0,0,0,0,0
8,89999,21,80000,14,30000,40,9999,0.100000,0,0,0.000000,5,0.000000,0.000000,0.230832,0,0,0,0,0,0,0
8,89999,22,80000,13,0,40,9999,0.100000,0,0,0.000000,5,0.000000,0.000000,0.334114,0,0,0,0,0,0,0
8,89999,23,80000,14,60000,40,9999,0.100000,0,0,0.000000,5,0.000000,0.000000,0.551545,0,0,0,0,0,0,0
8,89999,24,80000,13,0,40,9999,0.100000,0,0,0.000000,5,0.000000,0.000000,0.705142,0,0,0,0,0,0,0
8,89999,25,80000,14,30000,40,9999,0.100000,0,0,0.000000,5,0.000000,0.000000,0.235151,0,0,0,0,0,0,0
8,89999,26,80000,14,30000,40,9999,0.100000,0,0,0.000000,5,0.000000,0.000000,7.412767,0,0,0,0,0,0,0
8,89999,27,80000,14,30000,40,9999,0.100000,0,0,0.000000,5,0.000000,0.000000,0.634298,0,0,0,0,0,0,0
8,89999,28,80000,53,60000,40,9999,0.100000,0,0,0.000000,5,0.000000,0.000000,0.584344,0,0,0,0,0,0,0
8,89999,29,80000,13,0,40,9999,0.100000,0,0,0.000000,5,0.000000,0.000000,1.018550,0,0,0,0,0,0,0
8,89999,30,80000,53,60000,40,9999,0.100000,0,0,0.000000,5,0.000000,0.000000,0.275667,0,0,0,0,0,0,0
8,89999,31,80000,53,60000,40,9999,0.100000,0,0,0.000000,5,0.000000,0.000000,0.664464,0,0,0,0,0,0,0
8,89999,32,80000,13,0,40,9999,0.100000,0,0,0.000000,5,0.000000,0.000000,0.276546,0,0,0,0,0,0,0
8,89999,33,80000,54,10000,40,9999,0.100000,0,0,0.000000,5,0.000000,0.000000,0.634502,0,0,0,0,0,0,0
8,89999,34,80000,54,10000,40,9999,0.100000,0,0,0.000000,5,0.000000,0.000000,0.298762,0,0,0,0,0,0,0
8,89999,35,80000,13,0,40,9999,0.100000,0,0,0.000000,5,0.000000,0.000000,0.162986,0,0,0,0,0,0,0
8,89999,36,80000,14,60000,49,9999,0.100000,0,0,0.000000,5,3.000000,0.000000,4.147319,0,0,0,0,0,0,0
8,89999,37,80000,13,0,49,9999,0.100000,0,0,0.000000,5,3.000000,0.000000,6.980238,0,0,0,0,0,0,0
8,89999,38,80000,13,0,40,9999,0.100000,0,0,0.000000,5,0.000000,0.000000,0.423775,0,0,0,0,0,0,0
8,89999,39,80000,54,10000,40,9999,0.100000,0,0,0.000000,5,0.000000,0.000000,0.272312,0,0,0,0,0,0,0
8,89999,40,80000,14,30000,40,9999,0.100000,0,0,0.000000,5,0.000000,0.000000,0.922186,0,0,0,0,0,0,0
8,89999,41,80000,14,60000,40,9999,0.100000,0,0,0.000000,5,0.000000,0.000000,0.557867,0,0,0,0,0,0,0
8,89999,42,80000,13,0,40,9999,0.100000,0,0,0.000000,5,0.000000,0.000000,0.066547,0,0,0,0,0,0,0
8,89999,43,80000,14,30000,40,9999,0.100000,0,0,0.000000,5,0.000000,0.000000,1.905460,0,0,0,0,0,0,0
8,89999,44,80000,13,0,40,9999,0.100000,0,0,0.000000,5,0.000000,0.000000,0.296198,0,0,0,0,0,0,0
8,89999,45,80000,54,10000,40,9999,0.100000,0,0,0.000000,5,0.000000,0.000000,0.597286,0,0,0,0,0,0,0
8,89999,46,80000,53,60000,40,9999,0.100000,0,0,0.000000,5,0.000000,0.000000,0.150281,0,0,0,0,0,0,0
8,89999,47,80000,13,0,40,9999,0.100000,0,0,0.000000,5,0.000000,0.000000,0.351692,0,0,0,0,0,0,0
8,89999,48,80000,53,60000,49,9999,0.100000,0,0,0.000000,5,1.000000,0.000000,17.873240,0,0,0,0,0,0,0
8,89999,49,80000,13,0,40,9999,0.100000,0,0,0.000000,5,0.000000,0.000000,0.161801,0,0,0,0,0,0,0
8,89999,50,80000,13,0,40,9999,0.100000,0,0,0.000000,5,0.000000,0.000000,0.119401,0,0,0,0,0,0,0
8,89999,51,80000,13,0,40,9999,0.100000,0,0,0.000000,5,0.000000,0.000000,0.142736,0,0,0,0,0,0,0
8,89999,52,80000,53,60000,40,9999,0.100000,0,0,0.000000,5,0.000000,0.000000,0.583664,0,0,0,0,0,0,0
8,89999,53,80000,14,30000,40,9999,0.100000,0,0,0.000000,5,0.000000,0.000000,0.134645,0,0,0,0,0,0,0
8,89999,54,80000,53,60000,40,9999,0.100000,0,0,0.000000,5,0.000000,0.000000,14.067725,0,0,0,0,0,0,0
8,89999,55,80000,13,0,40,9999,0.100000,0,0,0.000000,5,0.000000,0.000000,0.231393,0,0,0,0,0,0,0
8,89999,56,80000,14,30000,40,9999,0.100000,0,0,0.000000,5,0.000000,0.000000,0.140070,0,0,0,0,0,0,0
8,89999,57,80000,53,60000,40,9999,0.100000,0,0,0.000000,5,0.000000,0.000000,0.433275,0,0,0,0,0,0,0
8,89999,58,80000,14,30000,40,9999,0.100000,0,0,0.000000,5,0.000000,0.000000,0.146163,0,0,0,0,0,0,0
8,89999,59,80000,13,0,40,9999,0.100000,0,0,0.000000,5,0.000000,0.000000,0.784111,0,0,0,0,0,0,0
8,89999,60,80000,54,10000,40,9999,0.100000,0,0,0.000000,5,0.000000,0.000000,0.237853,0,0,0,0,0,0,0
8,89999,61,80000,14,60000,40,9999,0.100000,0,0,0.000000,5,0.000000,0.000000,1.255235,0,0,0,0,0,0,0
8,89999,62,80000,13,0,40,9999,0.100000,0,0,0.000000,5,0.000000,0.000000,0.447767,0,0,0,0,0,0,0
8,89999,63,80000,14,30000,40,9999,0.100000,0,0,0.000000,5,0.000000,0.000000,0.125211,0,0,0,0,0,0,0
8,89999,64,80000,53,60000,40,9999,0.100000,0,0,0.000000,5,0.000000,0.000000,0.407588,0,0,0,0,0,0,0
8,89999,65,80000,14,60000,40,9999,0.100000,0,0,0.000000,5,0.000000,0.000000,5.674704,0,0,0,0,0,0,0
8,89999,66,80000,13,0,40,9999,0.100000,0,0,0.000000,5,0.000000,0.000000,0.425253,0,0,0,0,0,0,0
8,89999,67,80000,53,60000,40,9999,0.100000,0,0,0.000000,5,0.000000,0.000000,0.665917,0,0,0,0,0,0,0
8,89999,68,80000,53,60000,40,9999,0.065000,0,0,0.000000,5,0.000000,0.000000,0.503785,0,0,0,0,0,0,0
8,89999,69,80000,14,30000,40,9999,0.100000,0,0,0.000000,5,0.000000,0.000000,4.180812,0,0,0,0,0,0,0
8,89999,70,80000,53,60000,49,9999,0.100000,0,0,0.000000,5,1.000000,0.000000,1.333372,0,0,0,0,0,0,0
8,89999,71,80000,14,60000,40,9999,0.065000,0,0,0.000000,5,0.000000,0.000000,0.992509,0,0,0,0,0,0,0
8,89999,72,80000,54,10000,40,9999,0.100000,0,0,0.000000,5,0.000000,0.000000,0.209589,0,0,0,0,0,0,0
8,89999,73,80000,54,10000,40,9999,0.100000,0,0,0.000000,5,0.000000,0.000000,0.112832,0,0,0,0,0,0,0
8,89999,74,80000,13,0,40,9999,0.100000,0,0,0.000000,5,0.000000,0.000000,0.404900,0,0,0,0,0,0,0
8,89999,75,80000,53,60000,40,9999,0.100000,0,0,0.000000,5,0.000000,0.000000,0.993012,0,0,0,0,0,0,0
8,89999,76,80000,14,60000,40,9999,0.100000,0,0,0.000000,5,0.000000,0.000000,0.395116,0,0,0,0,0,0,0
8,89999,77,80000,13,0,40,9999,0.100000,0,0,0.000000,5,0.000000,0.000000,0.256819,0,0,0,0,0,0,0
8,89999,78,80000,53,60000,40,9999,0.100000,0,0,0.000000,5,0.000000,0.000000,0.120193,0,0,0,0,0,0,0
8,89999,79,80000,54,10000,40,9999,0.100000,0,0,0.000000,5,0.000000,0.000000,0.546940,0,0,0,0,0,0,0
8,89999,80,80000,54,10000,40,9999,0.100000,0,0,0.000000,5,0.000000,0.000000,2.243784,0,0,0,0,0,0,0
8,89999,81,80000,14,60000,40,9999,0.100000,0,0,0.000000,5,0.000000,0.000000,0.135396,0,0,0,0,0,0,0
8,89999,82,80000,13,0,40,9999,0.100000,0,0,0.000000,5,0.000000,0.000000,1.445158,0,0,0,0,0,0,0
8,89999,83,80000,54,10000,40,9999,0.100000,0,0,0.000000,5,0.000000,0.000000,0.352498,0,0,0,0,0,0,0
8,89999,84,80000,53,60000,40,9999,0.100000,0,0,0.000000,5,0.000000,0.000000,7.496172,0,0,0,0,0,0,0
8,89999,85,80000,54,10000,40,9999,0.100000,0,0,0.000000,5,0.000000,0.000000,0.232640,0,0,0,0,0,0,0
8,89999,86,80000,54,10000,40,9999,0.100000,0,0,0.000000,5,0.000000,0.000000,0.135716,0,0,0,0,0,0,0
8,89999,87,80000,53,60000,40,9999,0.100000,0,0,0.000000,5,0.000000,0.000000,0.125996,0,0,0,0,0,0,0
8,89999,88,80000,53,60000,40,9999,0.100000,0,0,0.000000,5,0.000000,0.000000,0.234807,0,0,0,0,0,0,0
8,89999,89,80000,13,0,40,9999,0.100000,0,0,0.000000,5,0.000000,0.000000,0.435077,0,0,0,0,0,0,0
8,89999,90,80000,53,60000,40,9999,0.100000,0,0,0.000000,5,0.000000,0.000000,0.147572,0,0,0,0,0,0,0
8,89999,91,80000,14,60000,40,9999,0.100000,0,0,0.000000,5,0.000000,0.000000,0.315026,0,0,0,0,0,0,0
8,89999,92,80000,54,10000,40,9999,0.100000,0,0,0.000000,5,0.000000,0.000000,9.252223,0,0,0,0,0,0,0
8,89999,93,80000,13,0,40,9999,0.100000,0,0,0.000000,5,0.000000,0.000000,0.169228,0,0,0,0,0,0,0
8,89999,94,80000,53,60000,40,9999,0.100000,0,0,0.000000,5,0.000000,0.000000,23.964592,0,0,0,0,0,0,0
8,89999,95,80000,54,10000,40,9999,0.100000,0,0,0.000000,5,0.000000,0.000000,0.843621,0,0,0,0,0,0,0
8,89999,96,80000,14,30000,40,9999,0.100000,0,0,0.000000,5,0.000000,0.000000,0.170761,0,0,0,0,0,0,0
8,89999,97,80000,14,60000,40,9999,0.100000,0,0,0.000000,5,0.000000,0.000000,0.135102,0,0,0,0,0,0,0
8,89999,98,80000,13,0,40,9999,0.100000,0,0,0.000000,5,0.000000,0.000000,21.076075,0,0,0,0,0,0,0
8,89999,99,80000,14,60000,40,9999,0.100000,0,0,0.000000,5,0.000000,0.000000,12.538078,0,0,0,0,0,0,0
9,99999,0,90000,53,60000,40,9999,0.100000,0,0,0.000000,5,0.000000,0.000000,0.137670,0,0,0,0,0,0,0
9,99999,1,90000,53,60000,49,9999,0.100000,0,0,0.000000,5,6.000000,0.000000,15.184462,0,0,0,0,0,0,0
9,99999,2,90000,53,60000,40,9999,0.100000,0,0,0.000000,5,0.000000,0.000000,0.725697,0,0,0,0,0,0,0
9,99999,3,90000,14,60000,40,9999,0.100000,0,0,0.000000,5,0.000000,0.000000,1.241839,0,0,0,0,0,0,0
9,99999,4,90000,14,30000,40,9999,0.100000,0,0,0.000000,5,0.000000,0.000000,0.887384,0,0,0,0,0,0,0
9,99999,5,90000,53,60000,40,9999,0.100000,0,0,0.000000,5,0.000000,0.000000,0.779680,0,0,0,0,0,0,0
9,99999,6,90000,53,60000,40,9999,0.100000,0,0,0.000000,5,0.000000,0.000000,0.153088,0,0,0,0,0,0,0
9,99999,7,90000,14,60000,40,9999,0.100000,0,0,0.000000,5,0.000000,0.000000,3.494026,0,0,0,0,0,0,0
9,99999,8,90000,53,60000,40,9999,0.100000,0,0,0.000000,5,0.000000,0.000000,8.445517,0,0,0,0,0,0,0
9,99999,9,90000,14,30000,40,9999,0.100000,0,0,0.000000,5,0.000000,0.000000,0.086037,0,0,0,0,0,0,0
9,99999,10,90000,53,60000,40,9999,0.100000,0,0,0.000000,5,0.000000,0.000000,0.787138,0,0,0,0,0,0,0
9,99999,11,90000,54,10000,40,9999,0.100000,0,0,0.000000,5,0.000000,0.000000,0.959512,0,0,0,0,0,0,0
9,99999,12,90000,53,60000,40,9999,0.100000,0,0,0.000000,5,0.000000,0.000000,3.174733,0,0,0,0,0,0,0
9,99999,13,90000,53,60000,40,9999,0.100000,0,0,0.000000,5,0.000000,0.000000,0.985456,0,0,0,0,0,0,0
9,99999,14,90000,14,60000,40,9999,0.100000,0,0,0.000000,5,0.000000,0.000000,0.079415,0,0,0,0,0,0,0
9,99999,15,90000,54,10000,40,9999,0.100000,0,0,0.000000,5,0.000000,0.000000,0.288607,0,0,0,0,0,0,0
9,99999,16,90000,54,10000,40,9999,0.100000,0,0,0.000000,5,0.000000,0.000000,0.168264,0,0,0,0,0,0,0
9,99999,17,90000,13,0,40,9999,0.100000,0,0,0.000000,5,0.000000,0.000000,0.715840,0,0,0,0,0,0,0
9,99999,18,90000,14,60000,40,9999,0.100000,0,0,0.000000,5,0.000000,0.000000,0.672941,0,0,0,0,0,0,0
9,99999,19,90000,13,0,40,9999,0.100000,0,0,0.000000,5,0.000000,0.000000,0.171537,0,0,0,0,0,0,0
9,99999,20,90000,54,10000,40,9999,0.100000,0,0,0.000000,5,0.000000,0.000000,1.252113,0,0,0,0,0,0,0
9,99999,21,90000,14,30000,40,9999,0.100000,0,0,0.000000,5,0.000000,0.000000,0.232246,0,0,0,0,0,0,0
9,99999,22,90000,54,10000,40,9999,0.100000,0,0,0.000000,5,0.000000,0.000000,0.348559,0,0,0,0,0,0,0
9,99999,23,90000,53,60000,40,9999,0.100000,0,0,0.000000,5,0.000000,0.000000,0.539538,0,0,0,0,0,0,0
9,99999,24,90000,54,10000,40,9999,0.100000,0,0,0.000000,5,0.000000,0.000000,0.733570,0,0,0,0,0,0,0
9,99999,25,90000,13,0,40,9999,0.100000,0,0,0.000000,5,0.000000,0.000000,0.252269,0,0,0,0,0,0,0
9,99999,26,90000,14,30000,40,9999,0.100000,0,0,0.000000,5,0.000000,0.000000,1.108267,0,0,0,0,0,0,0
9,99999,27,90000,53,60000,40,9999,0.100000,0,0,0.000000,5,0.000000,0.000000,0.583049,0,0,0,0,0,0,0
9,99999,28,90000,13,0,40,9999,0.100000,0,0,0.000000,5,0.000000,0.000000,0.711098,0,0,0,0,0,0,0
9,99999,29,90000,14,30000,40,9999,0.100000,0,0,0.000000,5,0.000000,0.000000,1.012499,0,0,0,0,0,0,0
9,99999,30,90000,14,30000,40,9999,0.100000,0,0,0.000000,5,0.000000,0.000000,0.353628,0,0,0,0,0,0,0
9,99999,31,90000,14,60000,40,9999,0.100000,0,0,0.000000,5,0.000000,0.000000,0.582804,0,0,0,0,0,0,0
9,99999,32,90000,53,60000,40,9999,0.100000,0,0,0.000000,5,0.000000,0.000000,0.201213,0,0,0,0,0,0,0
9,99999,33,90000,54,10000,40,9999,0.100000,0,0,0.000000,5,0.000000,0.000000,0.522488,0,0,0,0,0,0,0
9,99999,34,90000,53,60000,40,9999,0.100000,0,0,0.000000,5,0.000000,0.000000,0.384946,0,0,0,0,0,0,0
9,99999,35,90000,53,60000,40,9999,0.100000,0,0,0.000000,5,0.000000,0.000000,0.190739,0,0,0,0,0,0,0
9,99999,36,90000,13,0,49,9999,0.100000,0,0,0.000000,5,4.000000,0.000000,8.890489,0,0,0,0,0,0,0
9,99999,37,90000,14,60000,40,9999,0.100000,0,0,0.000000,5,0.000000,0.000000,1.296299,0,0,0,0,0,0,0
9,99999,38,90000,13,0,49,9999,0.100000,0,0,0.000000,5,1.000000,0.000000,3.014452,0,0,0,0,0,0,0
9,99999,39,90000,13,0,40,9999,0.100000,0,0,0.000000,5,0.000000,0.000000,0.393853,0,0,0,0,0,0,0
9,99999,40,90000,53,60000,49,9999,0.100000,0,0,0.000000,5,2.000000,0.000000,7.695915,0,0,0,0,0,0,0
9,99999,41,90000,54,10000,40,9999,0.100000,0,0,0.000000,5,0.000000,0.000000,0.755330,0,0,0,0,0,0,0
9,99999,42,90000,13,0,40,9999,0.100000,0,0,0.000000,5,0.000000,0.000000,0.962479,0,0,0,0,0,0,0
9,99999,43,90000,54,10000,40,9999,0.100000,0,0,0.000000,5,0.000000,0.000000,2.543850,0,0,0,0,0,0,0
9,99999,44,90000,54,10000,40,9999,0.100000,0,0,0.000000,5,0.000000,0.000000,0.156137,0,0,0,0,0,0,0
9,99999,45,90000,14,30000,40,9999,0.100000,0,0,0.000000,5,0.000000,0.000000,0.618152,0,0,0,0,0,0,0
9,99999,46,90000,13,0,40,9999,0.100000,0,0,0.000000,5,0.000000,0.000000,0.169234,0,0,0,0,0,0,0
9,99999,47,90000,54,10000,40,9999,0.100000,0,0,0.000000,5,0.000000,0.000000,0.344011,0,0,0,0,0,0,0
9,99999,48,90000,53,60000,49,9999,0.100000,0,0,0.000000,5,2.000000,0.000000,12.780545,0,0,0,0,0,0,0
9,99999,49,90000,14,30000,40,9999,0.100000,0,0,0.000000,5,0.000000,0.000000,0.165428,0,0,0,0,0,0,0
9,99999,50,90000,14,30000,40,9999,0.100000,0,0,0.000000,5,0.000000,0.000000,0.398685,0,0,0,0,0,0,0
9,99999,51,90000,53,60000,40,9999,0.100000,0,0,0.000000,5,0.000000,0.000000,0.182631,0,0,0,0,0,0,0
9,99999,52,90000,14,60000,40,9999,0.100000,0,0,0.000000,5,0.000000,0.000000,0.534278,0,0,0,0,0,0,0
9,99999,53,90000,13,0,40,9999,0.100000,0,0,0.000000,5,0.000000,0.000000,0.142972,0,0,0,0,0,0,0
9,99999,54,90000,54,10000,49,9999,0.100000,0,0,0.000000,5,2.000000,0.000000,7.595841,0,0,0,0,0,0,0
9,99999,55,90000,13,0,40,9999,0.100000,0,0,0.000000,5,0.000000,0.000000,1.081870,0,0,0,0,0,0,0
9,99999,56,90000,13,0,40,9999,0.100000,0,0,0.000000,5,0.000000,0.000000,0.116773,0,0,0,0,0,0,0
9,99999,57,90000,14,30000,40,9999,0.100000,0,0,0.000000,5,0.000000,0.000000,0.449142,0,0,0,0,0,0,0
9,99999,58,90000,53,60000,40,9999,0.100000,0,0,0.000000,5,0.000000,0.000000,0.151668,0,0,0,0,0,0,0
9,99999,59,90000,53,60000,40,9999,0.100000,0,0,0.000000,5,0.000000,0.000000,0.764318,0,0,0,0,0,0,0
9,99999,60,90000,13,0,40,9999,0.100000,0,0,0.000000,5,0.000000,0.000000,0.491002,0,0,0,0,0,0,0
9,99999,61,90000,53,60000,49,9999,0.100000,0,0,0.000000,5,1.000000,0.000000,1.646235,0,0,0,0,0,0,0
9,99999,62,90000,14,30000,49,9999,0.100000,0,0,0.000000,5,2.000000,0.000000,2.365721,0,0,0,0,0,0,0
9,99999,63,90000,13,0,40,9999,0.100000,0,0,0.000000,5,0.000000,0.000000,0.126487,0,0,0,0,0,0,0
9,99999,64,90000,14,60000,40,9999,0.100000,0,0,0.000000,5,0.000000,0.000000,0.413740,0,0,0,0,0,0,0
9,99999,65,90000,14,30000,40,9999,0.100000,0,0,0.000000,5,0.000000,0.000000,0.935815,0,0,0,0,0,0,0
9,99999,66,90000,14,60000,40,9999,0.100000,0,0,0.000000,5,0.000000,0.000000,0.431241,0,0,0,0,0,0,0
9,99999,67,90000,14,60000,49,9999,0.100000,0,0,0.000000,5,2.000000,0.000000,2.946972,0,0,0,0,0,0,0
9,99999,68,90000,13,0,40,9999,0.100000,0,0,0.000000,5,0.000000,0.000000,0.562957,0,0,0,0,0,0,0
9,99999,69,90000,14,30000,40,9999,0.100000,0,0,0.000000,5,0.000000,0.000000,0.205156,0,0,0,0,0,0,0
9,99999,70,90000,54,10000,49,9999,0.100000,0,0,0.000000,5,1.000000,0.000000,1.646825,0,0,0,0,0,0,0
9,99999,71,90000,13,0,40,9999,0.100000,0,0,0.000000,5,0.000000,0.000000,0.912354,0,0,0,0,0,0,0
9,99999,72,90000,13,0,40,9999,0.100000,0,0,0.000000,5,0.000000,0.000000,0.921362,0,0,0,0,0,0,0
9,99999,73,90000,13,0,40,9999,0.100000,0,0,0.000000,5,0.000000,0.000000,0.110328,0,0,0,0,0,0,0
9,99999,74,90000,13,0,40,9999,0.100000,0,0,0.000000,5,0.000000,0.000000,0.534568,0,0,0,0,0,0,0
9,99999,75,90000,53,60000,40,9999,0.135000,0,0,0.000000,5,0.000000,0.000000,0.999530,0,0,0,0,0,0,0
9,99999,76,90000,54,10000,40,9999,0.100000,0,0,0.000000,5,0.000000,0.000000,0.320307,0,0,0,0,0,0,0
9,99999,77,90000,14,30000,40,9999,0.100000,0,0,0.000000,5,0.000000,0.000000,0.350811,0,0,0,0,0,0,0
9,99999,78,90000,53,60000,40,9999,0.100000,0,0,0.000000,5,0.000000,0.000000,0.541501,0,0,0,0,0,0,0
9,99999,79,90000,13,0,40,9999,0.100000,0,0,0.000000,5,0.000000,0.000000,0.517018,0,0,0,0,0,0,0
9,99999,80,90000,14,60000,40,9999,0.100000,0,0,0.000000,5,0.000000,0.000000,3.039160,0,0,0,0,0,0,0
9,99999,81,90000,14,60000,40,9999,0.100000,0,0,0.000000,5,0.000000,0.000000,0.170938,0,0,0,0,0,0,0
9,99999,82,90000,53,60000,40,9999,0.100000,0,0,0.000000,5,0.000000,0.000000,0.349353,0,0,0,0,0,0,0
9,99999,83,90000,14,30000,40,9999,0.100000,0,0,0.000000,5,0.000000,0.000000,0.333620,0,0,0,0,0,0,0
9,99999,84,90000,13,0,49,9999,0.100000,0,0,0.000000,5,1.000000,0.000000,4.752802,0,0,0,0,0,0,0
9,99999,85,90000,13,0,40,9999,0.100000,0,0,0.000000,5,0.000000,0.000000,0.234418,0,0,0,0,0,0,0
9,99999,86,90000,14,30000,40,9999,0.100000,0,0,0.000000,5,0.000000,0.000000,0.161971,0,0,0,0,0,0,0
9,99999,87,90000,13,0,40,9999,0.100000,0,0,0.000000,5,0.000000,0.000000,0.141277,0,0,0,0,0,0,0
9,99999,88,90000,54,10000,40,9999,0.100000,0,0,0.000000,5,0.000000,0.000000,0.529965,0,0,0,0,0,0,0
9,99999,89,90000,14,60000,49,9999,0.100000,0,0,0.000000,5,2.000000,0.000000,2.505106,0,0,0,0,0,0,0
9,99999,90,90000,53,60000,40,9999,0.100000,0,0,0.000000,5,0.000000,0.000000,0.118353,0,0,0,0,0,0,0
9,99999,91,90000,14,60000,40,9999,0.100000,0,0,0.000000,5,0.000000,0.000000,0.232372,0,0,0,0,0,0,0
9,99999,92,90000,54,10000,40,9999,0.100000,0,0,0.000000,5,0.000000,0.000000,7.364428,0,0,0,0,0,0,0
9,99999,93,90000,14,30000,40,9999,0.100000,0,0,0.000000,5,0.000000,0.000000,0.162063,0,0,0,0,0,0,0
9,99999,94,90000,13,0,49,9999,0.100000,0,0,0.000000,5,1.000000,0.000000,19.709986,0,0,0,0,0,0,0
9,99999,95,90000,54,10000,40,9999,0.100000,0,0,0.000000,5,0.000000,0.000000,1.036557,0,0,0,0,0,0,0
9,99999,96,90000,54,10000,40,9999,0.100000,0,0,0.000000,5,0.000000,0.000000,0.179760,0,0,0,0,0,0,0
9,99999,97,90000,14,30000,40,9999,0.100000,0,0,0.000000,5,0.000000,0.000000,0.157024,0,0,0,0,0,0,0
9,99999,98,90000,53,60000,40,9999,0.100000,0,0,0.000000,5,0.000000,0.000000,1.064458,0,0,0,0,0,0,0
9,99999,99,90000,53,60000,40,9999,0.100000,0,0,0.000000,5,0.000000,0.000000,7.425845,0,0,0,0,0,0,0
10,109999,0,100000,13,0,40,9999,0.100000,0,0,0.000000,5,0.000000,0.000000,0.142398,0,0,0,0,0,0,0
10,109999,1,100000,14,60000,49,9999,0.100000,0,0,0.000000,5,1.000000,0.000000,13.657883,0,0,0,0,0,0,0
10,109999,2,100000,53,60000,40,9999,0.100000,0,0,0.000000,5,0.000000,0.000000,0.732730,0,0,0,0,0,0,0
10,109999,3,100000,14,30000,40,9999,0.100000,0,0,0.000000,5,0.000000,0.000000,1.510269,0,0,0,0,0,0,0
10,109999,4,100000,14,60000,40,9999,0.100000,0,0,0.000000,5,0.000000,0.000000,0.446548,0,0,0,0,0,0,0
10,109999,5,100000,13,0,40,9999,0.100000,0,0,0.000000,5,0.000000,0.000000,0.837816,0,0,0,0,0,0,0
10,109999,6,100000,14,60000,40,9999,0.100000,0,0,0.000000,5,0.000000,0.000000,0.150554,0,0,0,0,0,0,0
10,109999,7,100000,14,60000,49,9999,0.100000,0,0,0.000000,5,1.000000,0.000000,1.565719,0,0,0,0,0,0,0
10,109999,8,100000,14,60000,40,9999,0.100000,0,0,0.000000,5,0.000000,0.000000,4.339230,0,0,0,0,0,0,0
10,109999,9,100000,53,60000,40,9999,0.100000,0,0,0.000000,5,0.000000,0.000000,0.084183,0,0,0,0,0,0,0
10,109999,10,100000,14,30000,40,9999,0.100000,0,0,0.000000,5,0.000000,0.000000,0.878511,0,0,0,0,0,0,0
10,109999,11,100000,14,30000,40,9999,0.100000,0,0,0.000000,5,0.000000,0.000000,0.952325,0,0,0,0,0,0,0
10,109999,12,100000,53,60000,40,9999,0.100000,0,0,0.000000,5,0.000000,0.000000,3.654631,0,0,0,0,0,0,0
10,109999,13,100000,53,60000,40,9999,0.100000,0,0,0.000000,5,0.000000,0.000000,1.043969,0,0,0,0,0,0,0
10,109999,14,100000,54,10000,49,9999,0.100000,0,0,0.000000,5,8.000000,0.000000,17.398141,0,0,0,0,0,0,0
10,109999,15,100000,14,30000,40,9999,0.100000,0,0,0.000000,5,0.000000,0.000000,0.263512,0,0,0,0,0,0,0
10,109999,16,100000,54,10000,40,9999,0.100000,0,0,0.000000,5,0.000000,0.000000,0.153340,0,0,0,0,0,0,0
10,109999,17,100000,14,30000,40,9999,0.100000,0,0,0.000000,5,0.000000,0.000000,0.374705,0,0,0,0,0,0,0
10,109999,18,100000,13,0,40,9999,0.100000,0,0,0.000000,5,0.000000,0.000000,0.393741,0,0,0,0,0,0,0
10,109999,19,100000,14,30000,40,9999,0.100000,0,0,0.000000,5,0.000000,0.000000,0.172423,0,0,0,0,0,0,0
10,109999,20,100000,54,10000,49,9999,0.100000,0,0,0.000000,5,3.000000,0.000000,6.059741,0,0,0,0,0,0,0
10,109999,21,100000,14,30000,40,9999,0.100000,0,0,0.000000,5,0.000000,0.000000,0.219291,0,0,0,0,0,0,0
10,109999,22,100000,13,0,40,9999,0.100000,0,0,0.000000,5,0.000000,0.000000,0.349629,0,0,0,0,0,0,0
10,109999,23,100000,13,0,40,9999,0.100000,0,0,0.000000,5,0.000000,0.000000,0.704746,0,0,0,0,0,0,0
10,109999,24,100000,14,30000,40,9999,0.100000,0,0,0.000000,5,0.000000,0.000000,0.919645,0,0,0,0,0,0,0
10,109999,25,100000,14,60000,40,9999,0.100000,0,0,0.000000,5,0.000000,0.000000,0.238798,0,0,0,0,0,0,0
10,109999,26,100000,13,0,40,9999,0.100000,0,0,0.000000,5,0.000000,0.000000,0.798787,0,0,0,0,0,0,0
10,109999,27,100000,53,60000,40,9999,0.100000,0,0,0.000000,5,0.000000,0.000000,0.690381,0,0,0,0,0,0,0
10,109999,28,100000,13,0,40,9999,0.100000,0,0,0.000000,5,0.000000,0.000000,4.327495,0,0,0,0,0,0,0
10,109999,29,100000,13,0,40,9999,0.100000,0,0,0.000000,5,0.000000,0.000000,0.990679,0,0,0,0,0,0,0
10,109999,30,100000,53,60000,40,9999,0.100000,0,0,0.000000,5,0.000000,0.000000,0.336231,0,0,0,0,0,0,0
10,109999,31,100000,14,30000,49,9999,0.100000,0,0,0.000000,5,1.000000,0.000000,1.308288,0,0,0,0,0,0,0
10,109999,32,100000,53,60000,40,9999,0.100000,0,0,0.000000,5,0.000000,0.000000,0.193647,0,0,0,0,0,0,0
10,109999,33,100000,54,10000,40,9999,0.100000,0,0,0.000000,5,0.000000,0.000000,0.289735,0,0,0,0,0,0,0
10,109999,34,100000,53,60000,40,9999,0.100000,0,0,0.000000,5,0.000000,0.000000,0.371011,0,0,0,0,0,0,0
10,109999,35,100000,53,60000,40,9999,0.100000,0,0,0.000000,5,0.000000,0.000000,0.149158,0,0,0,0,0,0,0
10,109999,36,100000,53,60000,49,9999,0.100000,0,0,0.000000,5,2.000000,0.000000,4.512425,0,0,0,0,0,0,0
10,109999,37,100000,14,30000,40,9999,0.100000,0,0,0.000000,5,0.000000,0.000000,1.294582,0,0,0,0,0,0,0
10,109999,38,100000,14,60000,49,9999,0.100000,0,0,0.000000,5,2.000000,0.000000,3.975687,0,0,0,0,0,0,0
10,109999,39,100000,54,10000,40,9999,0.100000,0,0,0.000000,5,0.000000,0.000000,0.701994,0,0,0,0,0,0,0
10,109999,40,100000,14,30000,40,9999,0.100000,0,0,0.000000,5,0.000000,0.000000,1.016806,0,0,0,0,0,0,0
10,109999,41,100000,13,0,40,9999,0.100000,0,0,0.000000,5,0.000000,0.000000,0.751755,0,0,0,0,0,0,0
10,109999,42,100000,14,60000,40,9999,0.100000,0,0,0.000000,5,0.000000,0.000000,0.807084,0,0,0,0,0,0,0
10,109999,43,100000,14,60000,40,9999,0.100000,0,0,0.000000,5,0.000000,0.000000,2.653672,0,0,0,0,0,0,0
10,109999,44,100000,14,30000,40,9999,0.100000,0,0,0.000000,5,0.000000,0.000000,0.120338,0,0,0,0,0,0,0
10,109999,45,100000,53,60000,40,9999,0.100000,0,0,0.000000,5,0.000000,0.000000,0.628375,0,0,0,0,0,0,0
10,109999,46,100000,14,60000,40,9999,0.100000,0,0,0.000000,5,0.000000,0.000000,0.170862,0,0,0,0,0,0,0
10,109999,47,100000,13,0,40,9999,0.100000,0,0,0.000000,5,0.000000,0.000000,0.421697,0,0,0,0,0,0,0
10,109999,48,100000,53,60000,40,9999,0.100000,0,0,0.000000,5,0.000000,0.000000,1.004395,0,0,0,0,0,0,0
10,109999,49,100000,14,60000,40,9999,0.100000,0,0,0.000000,5,0.000000,0.000000,0.166777,0,0,0,0,0,0,0
10,109999,50,100000,54,10000,40,9999,0.100000,0,0,0.000000,5,0.000000,0.000000,0.284904,0,0,0,0,0,0,0
10,109999,51,100000,54,10000,40,9999,0.100000,0,0,0.000000,5,0.000000,0.000000,0.394321,0,0,0,0,0,0,0
10,109999,52,100000,54,10000,40,9999,0.100000,0,0,0.000000,5,0.000000,0.000000,0.590561,0,0,0,0,0,0,0
10,109999,53,100000,53,60000,40,9999,0.100000,0,0,0.000000,5,0.000000,0.000000,0.189230,0,0,0,0,0,0,0
10,109999,54,100000,54,10000,40,9999,0.100000,0,0,0.000000,5,0.000000,0.000000,0.249102,0,0,0,0,0,0,0
10,109999,55,100000,13,0,40,9999,0.100000,0,0,0.000000,5,0.000000,0.000000,1.160445,0,0,0,0,0,0,0
10,109999,56,100000,13,0,40,9999,0.100000,0,0,0.000000,5,0.000000,0.000000,0.141994,0,0,0,0,0,0,0
10,109999,57,100000,14,60000,40,9999,0.100000,0,0,0.000000,5,0.000000,0.000000,0.446130,0,0,0,0,0,0,0
10,109999,58,100000,53,60000,40,9999,0.100000,0,0,0.000000,5,0.000000,0.000000,0.151414,0,0,0,0,0,0,0
10,109999,59,100000,13,0,40,9999,0.100000,0,0,0.000000,5,0.000000,0.000000,0.795027,0,0,0,0,0,0,0
10,109999,60,100000,53,60000,40,9999,0.100000,0,0,0.000000,5,0.000000,0.000000,0.967593,0,0,0,0,0,0,0
10,109999,61,100000,53,60000,49,9999,0.100000,0,0,0.000000,5,1.000000,0.000000,1.521723,0,0,0,0,0,0,0
10,109999,62,100000,14,60000,40,9999,0.100000,0,0,0.000000,5,0.000000,0.000000,0.870703,0,0,0,0,0,0,0
10,109999,63,100000,14,60000,40,9999,0.100000,0,0,0.000000,5,0.000000,0.000000,0.122964,0,0,0,0,0,0,0
10,109999,64,100000,54,10000,40,9999,0.100000,0,0,0.000000,5,0.000000,0.000000,0.477384,0,0,0,0,0,0,0
10,109999,65,100000,54,10000,40,9999,0.100000,0,0,0.000000,5,0.000000,0.000000,0.656865,0,0,0,0,0,0,0
10,109999,66,100000,14,60000,40,9999,0.100000,0,0,0.000000,5,0.000000,0.000000,0.469624,0,0,0,0,0,0,0
10,109999,67,100000,53,60000,40,9999,0.100000,0,0,0.000000,5,0.000000,0.000000,4.085225,0,0,0,0,0,0,0
10,109999,68,100000,53,60000,40,9999,0.100000,0,0,0.000000,5,0.000000,0.000000,0.534063,0,0,0,0,0,0,0
10,109999,69,100000,14,60000,40,9999,0.100000,0,0,0.000000,5,0.000000,0.000000,0.536431,0,0,0,0,0,0,0
10,109999,70,100000,53,60000,49,9999,0.100000,0,0,0.000000,5,1.000000,0.000000,1.597390,0,0,0,0,0,0,0
10,109999,71,100000,13,0,49,9999,0.100000,0,0,0.000000,5,1.000000,0.000000,2.680590,0,0,0,0,0,0,0
10,109999,72,100000,53,60000,40,9999,0.100000,0,0,0.000000,5,0.000000,0.000000,0.959475,0,0,0,0,0,0,0
10,109999,73,100000,54,10000,40,9999,0.100000,0,0,0.000000,5,0.000000,0.000000,0.109653,0,0,0,0,0,0,0
10,109999,74,100000,14,30000,40,9999,0.100000,0,0,0.000000,5,0.000000,0.000000,0.596295,0,0,0,0,0,0,0
10,109999,75,100000,14,30000,40,9999,0.100000,0,0,0.000000,5,0.000000,0.000000,0.902627,0,0,0,0,0,0,0
10,109999,76,100000,14,60000,40,9999,0.100000,0,0,0.000000,5,0.000000,0.000000,0.364018,0,0,0,0,0,0,0
10,109999,77,100000,14,60000,40,9999,0.100000,0,0,0.000000,5,0.000000,0.000000,0.356648,0,0,0,0,0,0,0
10,109999,78,100000,53,60000,40,9999,0.100000,0,0,0.000000,5,0.000000,0.000000,0.347439,0,0,0,0,0,0,0
10,109999,79,100000,13,0,40,9999,0.100000,0,0,0.000000,5,0.000000,0.000000,0.540823,0,0,0,0,0,0,0
10,109999,80,100000,14,60000,40,9999,0.100000,0,0,0.000000,5,0.000000,0.000000,3.133626,0,0,0,0,0,0,0
10,109999,81,100000,14,30000,40,9999,0.100000,0,0,0.000000,5,0.000000,0.000000,0.172688,0,0,0,0,0,0,0
10,109999,82,100000,53,60000,40,9999,0.100000,0,0,0.000000,5,0.000000,0.000000,0.335502,0,0,0,0,0,0,0
10,109999,83,100000,14,60000,40,9999,0.100000,0,0,0.000000,5,0.000000,0.000000,0.203394,0,0,0,0,0,0,0
10,109999,84,100000,53,60000,40,9999,0.100000,0,0,0.000000,5,0.000000,0.000000,0.435057,0,0,0,0,0,0,0
10,109999,85,100000,53,60000,40,9999,0.100000,0,0,0.000000,5,0.000000,0.000000,0.237801,0,0,0,0,0,0,0
10,109999,86,100000,14,60000,40,9999,0.100000,0,0,0.000000,5,0.000000,0.000000,0.185336,0,0,0,0,0,0,0
10,109999,87,100000,14,60000,40,9999,0.100000,0,0,0.000000,5,0.000000,0.000000,0.135679,0,0,0,0,0,0,0
10,109999,88,100000,53,60000,40,9999,0.100000,0,0,0.000000,5,0.000000,0.000000,0.234803,0,0,0,0,0,0,0
10,109999,89,100000,13,0,40,9999,0.100000,0,0,0.000000,5,0.000000,0.000000,1.593925,0,0,0,0,0,0,0
10,109999,90,100000,14,30000,40,9999,0.100000,0,0,0.000000,5,0.000000,0.000000,0.111847,0,0,0,0,0,0,0
10,109999,91,100000,14,60000,40,9999,0.100000,0,0,0.000000,5,0.000000,0.000000,0.208170,0,0,0,0,0,0,0
10,109999,92,100000,14,30000,40,9999,0.100000,0,0,0.000000,5,0.000000,0.000000,7.488607,0,0,0,0,0,0,0
10,109999,93,100000,53,60000,40,9999,0.100000,0,0,0.000000,5,0.000000,0.000000,0.160642,0,0,0,0,0,0,0
10,109999,94,100000,14,30000,49,9999,0.100000,0,0,0.000000,5,1.000000,0.000000,1.141834,0,0,0,0,0,0,0
10,109999,95,100000,14,60000,49,9999,0.100000,0,0,0.000000,5,1.000000,0.000000,1.087920,0,0,0,0,0,0,0
10,109999,96,100000,53,60000,40,9999,0.100000,0,0,0.000000,5,0.000000,0.000000,0.331499,0,0,0,0,0,0,0
10,109999,97,100000,54,10000,40,9999,0.100000,0,0,0.000000,5,0.000000,0.000000,1.126988,0,0,0,0,0,0,0
10,109999,98,100000,13,0,40,9999,0.100000,0,0,0.000000,5,0.000000,0.000000,0.177071,0,0,0,0,0,0,0
10,109999,99,100000,14,30000,40,9999,0.100000,0,0,0.000000,5,0.000000,0.000000,7.771736,0,0,0,0,0,0,0
11,119999,0,110000,14,60000,40,9999,0.100000,0,0,0.000000,5,0.000000,0.000000,0.141150,0,0,0,0,0,0,0
11,119999,1,110000,14,100000,49,9999,0.100000,0,0,0.000000,5,1.000000,0.000000,3.612162,0,0,0,0,0,0,0
11,119999,2,110000,14,60000,49,9999,0.100000,0,0,0.000000,5,1.000000,0.000000,2.885685,0,0,0,0,0,0,0
11,119999,3,110000,14,60000,40,9999,0.100000,0,0,0.000000,5,0.000000,0.000000,1.340635,0,0,0,0,0,0,0
11,119999,4,110000,14,30000,40,9999,0.100000,0,0,0.000000,5,0.000000,0.000000,0.486354,0,0,0,0,0,0,0
11,119999,5,110000,14,100000,40,9999,0.065000,0,0,0.000000,5,0.000000,0.000000,0.756209,0,0,0,0,0,0,0
11,119999,6,110000,13,0,40,9999,0.100000,0,0,0.000000,5,0.000000,0.000000,0.146461,0,0,0,0,0,0,0
11,119999,7,110000,14,100000,40,9999,0.100000,0,0,0.000000,5,0.000000,0.000000,0.457308,0,0,0,0,0,0,0
11,119999,8,110000,54,10000,49,9999,0.100000,0,0,0.000000,5,2.000000,0.000000,5.308524,0,0,0,0,0,0,0
11,119999,9,110000,53,60000,40,9999,0.100000,0,0,0.000000,5,0.000000,0.000000,0.083531,0,0,0,0,0,0,0
11,119999,10,110000,53,60000,49,9999,0.100000,0,0,0.000000,5,5.000000,0.000000,8.676414,0,0,0,0,0,0,0
11,119999,11,110000,14,100000,40,9999,0.100000,0,0,0.000000,5,0.000000,0.000000,0.923278,0,0,0,0,0,0,0
11,119999,12,110000,14,60000,40,9999,0.100000,0,0,0.000000,5,0.000000,0.000000,3.516163,0,0,0,0,0,0,0
11,119999,13,110000,53,60000,40,9999,0.100000,0,0,0.000000,5,0.000000,0.000000,0.979597,0,0,0,0,0,0,0
11,119999,14,110000,14,100000,40,9999,0.100000,0,0,0.000000,5,0.000000,0.000000,0.079946,0,0,0,0,0,0,0
11,119999,15,110000,13,0,40,9999,0.100000,0,0,0.000000,5,0.000000,0.000000,0.586239,0,0,0,0,0,0,0
11,119999,16,110000,54,10000,40,9999,0.100000,0,0,0.000000,5,0.000000,0.000000,0.150803,0,0,0,0,0,0,0
11,119999,17,110000,53,60000,40,9999,0.100000,0,0,0.000000,5,0.000000,0.000000,0.156532,0,0,0,0,0,0,0
11,119999,18,110000,14,60000,40,9999,0.100000,0,0,0.000000,5,0.000000,0.000000,0.165140,0,0,0,0,0,0,0
11,119999,19,110000,13,0,40,9999,0.100000,0,0,0.000000,5,0.000000,0.000000,0.171582,0,0,0,0,0,0,0
11,119999,20,110000,13,0,49,9999,0.100000,0,0,0.000000,5,2.000000,0.000000,3.679352,0,0,0,0,0,0,0
11,119999,21,110000,14,60000,40,9999,0.100000,0,0,0.000000,5,0.000000,0.000000,0.233436,0,0,0,0,0,0,0
11,119999,22,110000,53,60000,40,9999,0.100000,0,0,0.000000,5,0.000000,0.000000,0.341361,0,0,0,0,0,0,0
11,119999,23,110000,14,100000,40,9999,0.100000,0,0,0.000000,5,0.000000,0.000000,0.596683,0,0,0,0,0,0,0
11,119999,24,110000,54,10000,40,9999,0.100000,0,0,0.000000,5,0.000000,0.000000,0.775660,0,0,0,0,0,0,0
11,119999,25,110000,14,60000,40,9999,0.100000,0,0,0.000000,5,0.000000,0.000000,0.237179,0,0,0,0,0,0,0
11,119999,26,110000,13,0,40,9999,0.100000,0,0,0.000000,5,0.000000,0.000000,1.608401,0,0,0,0,0,0,0
11,119999,27,110000,13,0,40,9999,0.100000,0,0,0.000000,5,0.000000,0.000000,0.587012,0,0,0,0,0,0,0
11,119999,28,110000,53,60000,40,9999,0.100000,0,0,0.000000,5,0.000000,0.000000,1.837789,0,0,0,0,0,0,0
11,119999,29,110000,13,0,40,9999,0.100000,0,0,0.000000,5,0.000000,0.000000,0.995576,0,0,0,0,0,0,0
11,119999,30,110000,54,10000,40,9999,0.100000,0,0,0.000000,5,0.000000,0.000000,0.286633,0,0,0,0,0,0,0
11,119999,31,110000,54,10000,40,9999,0.100000,0,0,0.000000,5,0.000000,0.000000,0.367390,0,0,0,0,0,0,0
11,119999,32,110000,14,100000,40,9999,0.100000,0,0,0.000000,5,0.000000,0.000000,0.213325,0,0,0,0,0,0,0
11,119999,33,110000,13,0,40,9999,0.100000,0,0,0.000000,5,0.000000,0.000000,0.115536,0,0,0,0,0,0,0
11,119999,34,110000,14,100000,40,9999,0.100000,0,0,0.000000,5,0.000000,0.000000,0.424768,0,0,0,0,0,0,0
11,119999,35,110000,14,100000,40,9999,0.100000,0,0,0.000000,5,0.000000,0.000000,0.140929,0,0,0,0,0,0,0
11,119999,36,110000,53,60000,40,9999,0.100000,0,0,0.000000,5,0.000000,0.000000,0.249982,0,0,0,0,0,0,0
11,119999,37,110000,14,60000,40,9999,0.100000,0,0,0.000000,5,0.000000,0.000000,5.147726,0,0,0,0,0,0,0
11,119999,38,110000,14,60000,49,9999,0.100000,0,0,0.000000,5,3.000000,0.000000,3.718220,0,0,0,0,0,0,0
11,119999,39,110000,13,0,40,9999,0.100000,0,0,0.000000,5,0.000000,0.000000,0.633304,0,0,0,0,0,0,0
11,119999,40,110000,53,60000,40,9999,0.100000,0,0,0.000000,5,0.000000,0.000000,0.986325,0,0,0,0,0,0,0
11,119999,41,110000,53,60000,49,9999,0.100000,0,0,0.000000,5,1.000000,0.000000,4.763034,0,0,0,0,0,0,0
11,119999,42,110000,54,10000,49,9999,0.100000,0,0,0.000000,5,3.000000,0.000000,10.230078,0,0,0,0,0,0,0
11,119999,43,110000,13,0,49,9999,0.100000,0,0,0.000000,5,1.000000,0.000000,3.717931,0,0,0,0,0,0,0
11,119999,44,110000,13,0,40,9999,0.100000,0,0,0.000000,5,0.000000,0.000000,0.113351,0,0,0,0,0,0,0
11,119999,45,110000,14,100000,40,9999,0.135000,0,0,0.000000,5,0.000000,0.000000,0.870932,0,0,0,0,0,0,0
11,119999,46,110000,53,60000,40,9999,0.100000,0,0,0.000000,5,0.000000,0.000000,0.116311,0,0,0,0,0,0,0
11,119999,47,110000,14,100000,40,9999,0.100000,0,0,0.000000,5,0.000000,0.000000,0.528457,0,0,0,0,0,0,0
11,119999,48,110000,14,60000,40,9999,0.100000,0,0,0.000000,5,0.000000,0.000000,1.031755,0,0,0,0,0,0,0
11,119999,49,110000,14,60000,40,9999,0.100000,0,0,0.000000,5,0.000000,0.000000,0.180062,0,0,0,0,0,0,0
11,119999,50,110000,53,60000,40,9999,0.100000,0,0,0.000000,5,0.000000,0.000000,0.141430,0,0,0,0,0,0,0
11,119999,51,110000,53,60000,40,9999,0.100000,0,0,0.000000,5,0.000000,0.000000,0.175502,0,0,0,0,0,0,0
11,119999,52,110000,14,100000,40,9999,0.100000,0,0,0.000000,5,0.000000,0.000000,3.427885,0,0,0,0,0,0,0
11,119999,53,110000,14,100000,40,9999,0.100000,0,0,0.000000,5,0.000000,0.000000,0.238159,0,0,0,0,0,0,0
11,119999,54,110000,13,0,40,9999,0.100000,0,0,0.000000,5,0.000000,0.000000,0.225922,0,0,0,0,0,0,0
11,119999,55,110000,53,60000,40,9999,0.100000,0,0,0.000000,5,0.000000,0.000000,1.234302,0,0,0,0,0,0,0
11,119999,56,110000,53,60000,49,9999,0.100000,0,0,0.000000,5,5.000000,0.000000,20.636685,0,0,0,0,0,0,0
11,119999,57,110000,13,0,40,9999,0.100000,0,0,0.000000,5,0.000000,0.000000,0.374039,0,0,0,0,0,0,0
11,119999,58,110000,53,60000,40,9999,0.100000,0,0,0.000000,5,0.000000,0.000000,0.150920,0,0,0,0,0,0,0
11,119999,59,110000,54,10000,40,9999,0.100000,0,0,0.000000,5,0.000000,0.000000,0.771560,0,0,0,0,0,0,0
11,119999,60,110000,14,60000,40,9999,0.100000,0,0,0.000000,5,0.000000,0.000000,0.198479,0,0,0,0,0,0,0
11,119999,61,110000,13,0,49,9999,0.100000,0,0,0.000000,5,1.000000,0.000000,1.514945,0,0,0,0,0,0,0
11,119999,62,110000,14,60000,49,9999,0.100000,0,0,0.000000,5,3.000000,0.000000,3.733271,0,0,0,0,0,0,0
11,119999,63,110000,14,60000,40,9999,0.100000,0,0,0.000000,5,0.000000,0.000000,0.122025,0,0,0,0,0,0,0
11,119999,64,110000,14,60000,40,9999,0.100000,0,0,0.000000,5,0.000000,0.000000,0.509618,0,0,0,0,0,0,0
11,119999,65,110000,13,0,40,9999,0.100000,0,0,0.000000,5,0.000000,0.000000,4.025943,0,0,0,0,0,0,0
11,119999,66,110000,14,60000,49,9999,0.100000,0,0,0.000000,5,8.000000,0.000000,18.671182,0,0,0,0,0,0,0
11,119999,67,110000,13,0,49,9999,0.100000,0,0,0.000000,5,12.000000,0.000000,15.436394,0,0,0,0,0,0,0
11,119999,68,110000,14,60000,40,9999,0.100000,0,0,0.000000,5,0.000000,0.000000,1.002713,0,0,0,0,0,0,0
11,119999,69,110000,14,60000,40,9999,0.100000,0,0,0.000000,5,0.000000,0.000000,0.330348,0,0,0,0,0,0,0
11,119999,70,110000,14,60000,49,9999,0.100000,0,0,0.000000,5,1.000000,0.000000,1.612292,0,0,0,0,0,0,0
11,119999,71,110000,14,60000,40,9999,0.100000,0,0,0.000000,5,0.000000,0.000000,0.212519,0,0,0,0,0,0,0
11,119999,72,110000,13,0,40,9999,0.100000,0,0,0.000000,5,0.000000,0.000000,0.952296,0,0,0,0,0,0,0
11,119999,73,110000,14,60000,40,9999,0.100000,0,0,0.000000,5,0.000000,0.000000,0.097508,0,0,0,0,0,0,0
11,119999,74,110000,14,60000,40,9999,0.100000,0,0,0.000000,5,0.000000,0.000000,0.496653,0,0,0,0,0,0,0
11,119999,75,110000,14,30000,40,9999,0.100000,0,0,0.000000,5,0.000000,0.000000,0.893048,0,0,0,0,0,0,0
11,119999,76,110000,14,30000,40,9999,0.100000,0,0,0.000000,5,0.000000,0.000000,0.389548,0,0,0,0,0,0,0
11,119999,77,110000,14,100000,40,9999,0.100000,0,0,0.000000,5,0.000000,0.000000,0.288274,0,0,0,0,0,0,0
11,119999,78,110000,54,10000,40,9999,0.100000,0,0,0.000000,5,0.000000,0.000000,0.090748,0,0,0,0,0,0,0
11,119999,79,110000,14,60000,40,9999,0.100000,0,0,0.000000,5,0.000000,0.000000,0.621603,0,0,0,0,0,0,0
11,119999,80,110000,13,0,40,9999,0.100000,0,0,0.000000,5,0.000000,0.000000,4.356322,0,0,0,0,0,0,0
11,119999,81,110000,53,60000,40,9999,0.100000,0,0,0.000000,5,0.000000,0.000000,0.196726,0,0,0,0,0,0,0
11,119999,82,110000,14,60000,40,9999,0.100000,0,0,0.000000,5,0.000000,0.000000,0.285591,0,0,0,0,0,0,0
11,119999,83,110000,14,100000,40,9999,0.100000,0,0,0.000000,5,0.000000,0.000000,0.202786,0,0,0,0,0,0,0
11,119999,84,110000,13,0,40,9999,0.100000,0,0,0.000000,5,0.000000,0.000000,0.530216,0,0,0,0,0,0,0
11,119999,85,110000,14,60000,40,9999,0.100000,0,0,0.000000,5,0.000000,0.000000,0.234046,0,0,0,0,0,0,0
11,119999,86,110000,14,60000,40,9999,0.100000,0,0,0.000000,5,0.000000,0.000000,0.177972,0,0,0,0,0,0,0
11,119999,87,110000,13,0,40,9999,0.100000,0,0,0.000000,5,0.000000,0.000000,0.132599,0,0,0,0,0,0,0
11,119999,88,110000,14,60000,40,9999,0.100000,0,0,0.000000,5,0.000000,0.000000,0.257163,0,0,0,0,0,0,0
11,119999,89,110000,54,10000,49,9999,0.100000,0,0,0.000000,5,3.000000,0.000000,3.928401,0,0,0,0,0,0,0
11,119999,90,110000,54,10000,40,9999,0.100000,0,0,0.000000,5,0.000000,0.000000,0.119775,0,0,0,0,0,0,0
11,119999,91,110000,54,10000,49,9999,0.065000,0,0,0.000000,5,1.000000,0.000000,2.558874,0,0,0,0,0,0,0
11,119999,92,100000,14,30000,40,19999,0.100000,0,0,0.000000,5,0.000000,0.000000,1.970043,0,0,0,0,0,0,0
11,119999,93,110000,53,60000,40,9999,0.100000,0,0,0.000000,5,0.000000,0.000000,0.168303,0,0,0,0,0,0,0
11,119999,94,110000,14,60000,40,9999,0.100000,0,0,0.000000,5,0.000000,0.000000,0.243135,0,0,0,0,0,0,0
11,119999,95,110000,13,0,40,9999,0.100000,0,0,0.000000,5,0.000000,0.000000,1.017345,0,0,0,0,0,0,0
11,119999,96,110000,13,0,40,9999,0.100000,0,0,0.000000,5,0.000000,0.000000,0.173745,0,0,0,0,0,0,0
11,119999,97,110000,14,100000,40,9999,0.100000,0,0,0.000000,5,0.000000,0.000000,1.028704,0,0,0,0,0,0,0
11,119999,98,110000,14,100000,40,9999,0.100000,0,0,0.000000,5,0.000000,0.000000,0.136302,0,0,0,0,0,0,0
11,119999,99,110000,14,60000,49,9999,0.100000,0,0,0.000000,5,2.000000,0.000000,12.082384,0,0,0,0,0,0,0
12,129999,0,120000,13,0,40,9999,0.100000,0,0,0.000000,5,0.000000,0.000000,0.138165,0,0,0,0,0,0,0
12,129999,1,120000,13,0,40,9999,0.100000,0,0,0.000000,5,0.000000,0.000000,1.444751,0,0,0,0,0,0,0
12,129999,2,120000,13,0,40,9999,0.100000,0,0,0.000000,5,0.000000,0.000000,2.258804,0,0,0,0,0,0,0
12,129999,3,120000,53,60000,40,9999,0.100000,0,0,0.000000,5,0.000000,0.000000,0.831482,0,0,0,0,0,0,0
12,129999,4,120000,13,0,40,9999,0.100000,0,0,0.000000,5,0.000000,0.000000,0.984978,0,0,0,0,0,0,0
12,129999,5,120000,54,10000,40,9999,0.100000,0,0,0.000000,5,0.000000,0.000000,0.820123,0,0,0,0,0,0,0
12,129999,6,120000,54,10000,40,9999,0.100000,0,0,0.000000,5,0.000000,0.000000,0.145762,0,0,0,0,0,0,0
12,129999,7,120000,14,60000,40,9999,0.100000,0,0,0.000000,5,0.000000,0.000000,0.495636,0,0,0,0,0,0,0
12,129999,8,120000,14,100000,49,9999,0.100000,0,0,0.000000,5,1.000000,0.000000,3.836329,0,0,0,0,0,0,0
12,129999,9,120000,53,60000,40,9999,0.100000,0,0,0.000000,5,0.000000,0.000000,0.086458,0,0,0,0,0,0,0
12,129999,10,120000,54,10000,40,9999,0.100000,0,0,0.000000,5,0.000000,0.000000,3.588261,0,0,0,0,0,0,0
12,129999,11,120000,14,60000,40,9999,0.100000,0,0,0.000000,5,0.000000,0.000000,0.972087,0,0,0,0,0,0,0
12,129999,12,120000,54,10000,40,9999,0.100000,0,0,0.000000,5,0.000000,0.000000,3.518422,0,0,0,0,0,0,0
12,129999,13,120000,14,60000,40,9999,0.100000,0,0,0.000000,5,0.000000,0.000000,1.011409,0,0,0,0,0,0,0
12,129999,14,120000,54,10000,40,9999,0.100000,0,0,0.000000,5,0.000000,0.000000,0.079577,0,0,0,0,0,0,0
12,129999,15,120000,14,100000,49,9999,0.100000,0,0,0.000000,5,1.000000,0.000000,1.382332,0,0,0,0,0,0,0
12,129999,16,120000,14,60000,40,9999,0.100000,0,0,0.000000,5,0.000000,0.000000,0.157428,0,0,0,0,0,0,0
12,129999,17,120000,14,100000,40,9999,0.100000,0,0,0.000000,5,0.000000,0.000000,0.177961,0,0,0,0,0,0,0
12,129999,18,120000,14,100000,40,9999,0.100000,0,0,0.000000,5,0.000000,0.000000,0.196804,0,0,0,0,0,0,0
12,129999,19,120000,54,10000,40,9999,0.100000,0,0,0.000000,5,0.000000,0.000000,0.157959,0,0,0,0,0,0,0
12,129999,20,120000,14,60000,49,9999,0.100000,0,0,0.000000,5,1.000000,0.000000,3.425635,0,0,0,0,0,0,0
12,129999,21,120000,54,10000,40,9999,0.100000,0,0,0.000000,5,0.000000,0.000000,0.222561,0,0,0,0,0,0,0
12,129999,22,120000,14,100000,40,9999,0.100000,0,0,0.000000,5,0.000000,0.000000,0.365005,0,0,0,0,0,0,0
12,129999,23,120000,53,60000,40,9999,0.100000,0,0,0.000000,5,0.000000,0.000000,0.339828,0,0,0,0,0,0,0
12,129999,24,120000,14,60000,40,9999,0.100000,0,0,0.000000,5,0.000000,0.000000,1.337186,0,0,0,0,0,0,0
