generation,iteration,robot,birthday,ancestor_id,ancestor_birthday,cell_id,age,sigma,maps,genomes,fitness,cells_in_map,dist_max,dist_pot_max,dist_total,com_rx,com_tx,obj_group1,obj_group2,obj_group3,obj_group4,obj_group5
0,9999,0,0,0,0,49,9999,0.100000,0,0,0.000000,0,12.000000,0.000000,26.599261,0,0,0,0,0,0,0
0,9999,1,0,1,0,49,9999,0.100000,0,0,0.000000,0,4.000000,0.000000,11.781548,0,0,0,0,0,0,0
0,9999,2,0,2,0,49,9999,0.100000,0,0,0.000000,0,11.000000,0.000000,24.051296,0,0,0,0,0,0,0
0,9999,3,0,3,0,49,9999,0.100000,0,0,0.000000,0,9.000000,0.000000,12.766725,0,0,0,0,0,0,0
0,9999,4,0,4,0,49,9999,0.100000,0,0,0.000000,0,7.000000,0.000000,15.580166,0,0,0,0,0,0,0
0,9999,5,0,5,0,49,9999,0.100000,0,0,0.000000,0,3.000000,0.000000,7.238504,0,0,0,0,0,0,0
0,9999,6,0,6,0,49,9999,0.100000,0,0,0.000000,0,3.000000,0.000000,3.403919,0,0,0,0,0,0,0
0,9999,7,0,7,0,49,9999,0.100000,0,0,0.000000,0,2.000000,0.000000,3.307262,0,0,0,0,0,0,0
0,9999,8,0,8,0,49,9999,0.100000,0,0,0.000000,0,11.000000,0.000000,17.201543,0,0,0,0,0,0,0
0,9999,9,0,9,0,49,9999,0.100000,0,0,0.000000,0,11.000000,0.000000,31.116619,0,0,0,0,0,0,0
0,9999,10,0,10,0,49,9999,0.100000,0,0,0.000000,0,11.000000,0.000000,17.786739,0,0,0,0,0,0,0
0,9999,11,0,11,0,49,9999,0.100000,0,0,0.000000,0,8.000000,0.000000,11.067389,0,0,0,0,0,0,0
0,9999,12,0,12,0,49,9999,0.100000,0,0,0.000000,0,5.000000,0.000000,6.460766,0,0,0,0,0,0,0
0,9999,13,0,13,0,49,9999,0.100000,0,0,0.000000,0,11.000000,0.000000,21.766944,0,0,0,0,0,0,0
0,9999,14,0,14,0,49,9999,0.100000,0,0,0.000000,0,9.000000,0.000000,15.363499,0,0,0,0,0,0,0
0,9999,15,0,15,0,49,9999,0.100000,0,0,0.000000,0,2.000000,0.000000,6.376731,0,0,0,0,0,0,0
0,9999,16,0,16,0,49,9999,0.100000,0,0,0.000000,0,10.000000,0.000000,17.265004,0,0,0,0,0,0,0
0,9999,17,0,17,0,49,9999,0.100000,0,0,0.000000,0,9.000000,0.000000,14.175667,0,0,0,0,0,0,0
0,9999,18,0,18,0,49,9999,0.100000,0,0,0.000000,0,5.000000,0.000000,14.791403,0,0,0,0,0,0,0
0,9999,19,0,19,0,49,9999,0.100000,0,0,0.000000,0,10.000000,0.000000,25.900444,0,0,0,0,0,0,0
0,9999,20,0,20,0,49,9999,0.100000,0,0,0.000000,0,12.000000,0.000000,20.687337,0,0,0,0,0,0,0
0,9999,21,0,21,0,49,9999,0.100000,0,0,0.000000,0,7.000000,0.000000,8.731380,0,0,0,0,0,0,0
0,9999,22,0,22,0,49,9999,0.100000,0,0,0.000000,0,8.000000,0.000000,9.764268,0,0,0,0,0,0,0
0,9999,23,0,23,0,49,9999,0.100000,0,0,0.000000,0,8.000000,0.000000,13.221589,0,0,0,0,0,0,0
0,9999,24,0,24,0,49,9999,0.100000,0,0,0.000000,0,5.000000,0.000000,17.619631,0,0,0,0,0,0,0
0,9999,25,0,25,0,49,9999,0.100000,0,0,0.000000,0,6.000000,0.000000,18.858113,0,0,0,0,0,0,0
0,9999,26,0,26,0,49,9999,0.100000,0,0,0.000000,0,8.000000,0.000000,10.224034,0,0,0,0,0,0,0
0,9999,27,0,27,0,49,9999,0.100000,0,0,0.000000,0,6.000000,0.000000,10.729003,0,0,0,0,0,0,0
0,9999,28,0,28,0,49,9999,0.100000,0,0,0.000000,0,8.000000,0.000000,9.469840,0,0,0,0,0,0,0
0,9999,29,0,29,0,49,9999,0.100000,0,0,0.000000,0,10.000000,0.000000,12.905066,0,0,0,0,0,0,0
0,9999,30,0,30,0,49,9999,0.100000,0,0,0.000000,0,8.000000,0.000000,13.260849,0,0,0,0,0,0,0
0,9999,31,0,31,0,49,9999,0.100000,0,0,0.000000,0,6.000000,0.000000,7.152244,0,0,0,0,0,0,0
0,9999,32,0,32,0,49,9999,0.100000,0,0,0.000000,0,12.000000,0.000000,24.230843,0,0,0,0,0,0,0
0,9999,33,0,33,0,49,9999,0.100000,0,0,0.000000,0,4.000000,0.000000,17.441710,0,0,0,0,0,0,0
0,9999,34,0,34,0,49,9999,0.100000,0,0,0.000000,0,7.000000,0.000000,10.973424,0,0,0,0,0,0,0
0,9999,35,0,35,0,49,9999,0.100000,0,0,0.000000,0,2.000000,0.000000,3.715603,0,0,0,0,0,0,0
0,9999,36,0,36,0,49,9999,0.100000,0,0,0.000000,0,8.000000,0.000000,11.450483,0,0,0,0,0,0,0
0,9999,37,0,37,0,49,9999,0.100000,0,0,0.000000,0,9.000000,0.000000,16.621219,0,0,0,0,0,0,0
0,9999,38,0,38,0,49,9999,0.100000,0,0,0.000000,0,10.000000,0.000000,11.138695,0,0,0,0,0,0,0
0,9999,39,0,39,0,49,9999,0.100000,0,0,0.000000,0,9.000000,0.000000,23.833507,0,0,0,0,0,0,0
0,9999,40,0,40,0,49,9999,0.100000,0,0,0.000000,0,3.000000,0.000000,12.833813,0,0,0,0,0,0,0
0,9999,41,0,41,0,49,9999,0.100000,0,0,0.000000,0,2.000000,0.000000,5.560298,0,0,0,0,0,0,0
0,9999,42,0,42,0,49,9999,0.100000,0,0,0.000000,0,9.000000,0.000000,11.432700,0,0,0,0,0,0,0
0,9999,43,0,43,0,49,9999,0.100000,0,0,0.000000,0,12.000000,0.000000,18.684968,0,0,0,0,0,0,0
0,9999,44,0,44,0,49,9999,0.100000,0,0,0.000000,0,8.000000,0.000000,15.268818,0,0,0,0,0,0,0
0,9999,45,0,45,0,49,9999,0.100000,0,0,0.000000,0,3.000000,0.000000,5.227757,0,0,0,0,0,0,0
0,9999,46,0,46,0,49,9999,0.100000,0,0,0.000000,0,5.000000,0.000000,13.984400,0,0,0,0,0,0,0
0,9999,47,0,47,0,49,9999,0.100000,0,0,0.000000,0,3.000000,0.000000,4.375303,0,0,0,0,0,0,0
0,9999,48,0,48,0,49,9999,0.100000,0,0,0.000000,0,10.000000,0.000000,15.001953,0,0,0,0,0,0,0
0,9999,49,0,49,0,49,9999,0.100000,0,0,0.000000,0,10.000000,0.000000,10.955658,0,0,0,0,0,0,0
0,9999,50,0,50,0,49,9999,0.100000,0,0,0.000000,0,9.000000,0.000000,18.599716,0,0,0,0,0,0,0
0,9999,51,0,51,0,49,9999,0.100000,0,0,0.000000,0,5.000000,0.000000,17.016200,0,0,0,0,0,0,0
0,9999,52,0,52,0,49,9999,0.100000,0,0,0.000000,0,10.000000,0.000000,25.473588,0,0,0,0,0,0,0
0,9999,53,0,53,0,49,9999,0.100000,0,0,0.000000,0,9.000000,0.000000,25.864951,0,0,0,0,0,0,0
0,9999,54,0,54,0,49,9999,0.100000,0,0,0.000000,0,7.000000,0.000000,11.912699,0,0,0,0,0,0,0
0,9999,55,0,55,0,49,9999,0.100000,0,0,0.000000,0,12.000000,0.000000,17.338726,0,0,0,0,0,0,0
0,9999,56,0,56,0,49,9999,0.100000,0,0,0.000000,0,12.000000,0.000000,27.499970,0,0,0,0,0,0,0
0,9999,57,0,57,0,49,9999,0.100000,0,0,0.000000,0,6.000000,0.000000,21.969378,0,0,0,0,0,0,0
0,9999,58,0,58,0,49,9999,0.100000,0,0,0.000000,0,9.000000,0.000000,17.317322,0,0,0,0,0,0,0
0,9999,59,0,59,0,49,9999,0.100000,0,0,0.000000,0,3.000000,0.000000,3.929955,0,0,0,0,0,0,0
0,9999,60,0,60,0,49,9999,0.100000,0,0,0.000000,0,10.000000,0.000000,19.339833,0,0,0,0,0,0,0
0,9999,61,0,61,0,49,9999,0.100000,0,0,0.000000,0,8.000000,0.000000,12.776834,0,0,0,0,0,0,0
0,9999,62,0,62,0,49,9999,0.100000,0,0,0.000000,0,3.000000,0.000000,12.281704,0,0,0,0,0,0,0
0,9999,63,0,63,0,49,9999,0.100000,0,0,0.000000,0,8.000000,0.000000,9.934716,0,0,0,0,0,0,0
0,9999,64,0,64,0,49,9999,0.100000,0,0,0.000000,0,6.000000,0.000000,13.464192,0,0,0,0,0,0,0
0,9999,65,0,65,0,49,9999,0.100000,0,0,0.000000,0,5.000000,0.000000,14.891349,0,0,0,0,0,0,0
0,9999,66,0,66,0,49,9999,0.100000,0,0,0.000000,0,4.000000,0.000000,12.608217,0,0,0,0,0,0,0
0,9999,67,0,67,0,9,9999,0.100000,0,0,0.000000,0,12.000000,0.000000,14.834963,0,0,0,0,0,0,1
0,9999,68,0,68,0,49,9999,0.100000,0,0,0.000000,0,7.000000,0.000000,9.052342,0,0,0,0,0,0,0
0,9999,69,0,69,0,49,9999,0.100000,0,0,0.000000,0,8.000000,0.000000,9.642392,0,0,0,0,0,0,0
0,9999,70,0,70,0,49,9999,0.100000,0,0,0.000000,0,7.000000,0.000000,9.148397,0,0,0,0,0,0,0
0,9999,71,0,71,0,49,9999,0.100000,0,0,0.000000,0,9.000000,0.000000,22.635733,0,0,0,0,0,0,0
0,9999,72,0,72,0,49,9999,0.100000,0,0,0.000000,0,8.000000,0.000000,10.424083,0,0,0,0,0,0,0
0,9999,73,0,73,0,49,9999,0.100000,0,0,0.000000,0,9.000000,0.000000,21.372952,0,0,0,0,0,0,0
0,9999,74,0,74,0,49,9999,0.100000,0,0,0.000000,0,10.000000,0.000000,11.560439,0,0,0,0,0,0,0
0,9999,75,0,75,0,49,9999,0.100000,0,0,0.000000,0,11.000000,0.000000,12.266283,0,0,0,0,0,0,0
0,9999,76,0,76,0,49,9999,0.100000,0,0,0.000000,0,8.000000,0.000000,9.759541,0,0,0,0,0,0,0
0,9999,77,0,77,0,49,9999,0.100000,0,0,0.000000,0,6.000000,0.000000,19.904145,0,0,0,0,0,0,0
0,9999,78,0,78,0,49,9999,0.100000,0,0,0.000000,0,8.000000,0.000000,24.526846,0,0,0,0,0,0,0
0,9999,79,0,79,0,49,9999,0.100000,0,0,0.000000,0,7.000000,0.000000,9.080921,0,0,0,0,0,0,0
0,9999,80,0,80,0,49,9999,0.100000,0,0,0.000000,0,11.000000,0.000000,18.865759,0,0,0,0,0,0,0
0,9999,81,0,81,0,49,9999,0.100000,0,0,0.000000,0,5.000000,0.000000,6.840766,0,0,0,0,0,0,0
0,9999,82,0,82,0,49,9999,0.100000,0,0,0.000000,0,11.000000,0.000000,14.448012,0,0,0,0,0,0,0
0,9999,83,0,83,0,49,9999,0.100000,0,0,0.000000,0,12.000000,0.000000,19.675604,0,0,0,0,0,0,0
0,9999,84,0,84,0,49,9999,0.100000,0,0,0.000000,0,2.000000,0.000000,23.256123,0,0,0,0,0,0,0
0,9999,85,0,85,0,49,9999,0.100000,0,0,0.000000,0,8.000000,0.000000,15.699474,0,0,0,0,0,0,0
0,9999,86,0,86,0,49,9999,0.100000,0,0,0.000000,0,3.000000,0.000000,9.256636,0,0,0,0,0,0,0
0,9999,87,0,87,0,49,9999,0.100000,0,0,0.000000,0,10.000000,0.000000,13.069362,0,0,0,0,0,0,0
0,9999,88,0,88,0,49,9999,0.100000,0,0,0.000000,0,5.000000,0.000000,6.433795,0,0,0,0,0,0,0
0,9999,89,0,89,0,49,9999,0.100000,0,0,0.000000,0,6.000000,0.000000,16.795095,0,0,0,0,0,0,0
0,9999,90,0,90,0,49,9999,0.100000,0,0,0.000000,0,1.000000,0.000000,3.252108,0,0,0,0,0,0,0
0,9999,91,0,91,0,49,9999,0.100000,0,0,0.000000,0,8.000000,0.000000,19.544620,0,0,0,0,0,0,0
0,9999,92,0,92,0,49,9999,0.100000,0,0,0.000000,0,4.000000,0.000000,11.704847,0,0,0,0,0,0,0
0,9999,93,0,93,0,49,9999,0.100000,0,0,0.000000,0,8.000000,0.000000,13.338509,0,0,0,0,0,0,0
0,9999,94,0,94,0,99,9999,0.100000,0,0,47.368421,0,9.000000,0.000000,36.170460,0,0,1,0,0,0,0
0,9999,95,0,95,0,49,9999,0.100000,0,0,0.000000,0,6.000000,0.000000,12.822331,0,0,0,0,0,0,0
0,9999,96,0,96,0,99,9999,0.100000,0,0,47.368421,0,8.000000,0.000000,15.836904,0,0,1,0,0,0,0
0,9999,97,0,97,0,49,9999,0.100000,0,0,0.000000,0,10.000000,0.000000,12.435893,0,0,0,0,0,0,0
0,9999,98,0,98,0,49,9999,0.100000,0,0,0.000000,0,8.000000,0.000000,16.762646,0,0,0,0,0,0,0
0,9999,99,0,99,0,49,9999,0.100000,0,0,0.000000,0,8.000000,0.000000,19.527868,0,0,0,0,0,0,0
1,19999,0,10000,0,0,49,9999,0.100000,0,0,0.000000,1,1.000000,0.000000,15.017730,0,0,0,0,0,0,0
1,19999,1,10000,0,0,40,9999,0.100000,0,0,0.000000,2,0.000000,0.000000,0.548431,0,0,0,0,0,0,0
1,19999,2,10000,0,0,49,9999,0.100000,0,0,0.000000,2,3.000000,0.000000,13.265078,0,0,0,0,0,0,0
1,19999,3,10000,0,0,40,9999,0.100000,0,0,0.000000,2,0.000000,0.000000,0.070053,0,0,0,0,0,0,0
1,19999,4,10000,0,0,40,9999,0.100000,0,0,0.000000,3,0.000000,0.000000,0.089376,0,0,0,0,0,0,0
1,19999,5,10000,75,0,40,9999,0.100000,0,0,0.000000,3,0.000000,0.000000,1.108517,0,0,0,0,0,0,0
1,19999,6,10000,0,0,40,9999,0.100000,0,0,0.000000,2,0.000000,0.000000,0.079856,0,0,0,0,0,0,0
1,19999,7,10000,74,0,40,9999,0.100000,0,0,0.000000,2,0.000000,0.000000,0.294457,0,0,0,0,0,0,0
1,19999,8,10000,87,0,49,9999,0.100000,0,0,0.000000,2,1.000000,0.000000,19.482092,0,0,0,0,0,0,0
1,19999,9,10000,0,0,40,9999,0.100000,0,0,0.000000,2,0.000000,0.000000,0.702747,0,0,0,0,0,0,0
1,19999,10,10000,0,0,40,9999,0.100000,0,0,0.000000,3,0.000000,0.000000,6.484080,0,0,0,0,0,0,0
1,19999,11,10000,11,0,40,9999,0.100000,0,0,0.000000,2,0.000000,0.000000,0.599256,0,0,0,0,0,0,0
1,19999,12,10000,0,0,40,9999,0.100000,0,0,0.000000,3,0.000000,0.000000,0.148647,0,0,0,0,0,0,0
1,19999,13,10000,0,0,40,9999,0.100000,0,0,0.000000,2,0.000000,0.000000,7.476231,0,0,0,0,0,0,0
1,19999,14,10000,96,0,40,9999,0.100000,0,0,0.000000,3,0.000000,0.000000,1.430603,0,0,0,0,0,0,0
1,19999,15,10000,15,0,40,9999,0.100000,0,0,0.000000,2,0.000000,0.000000,0.533819,0,0,0,0,0,0,0
1,19999,16,10000,0,0,40,9999,0.100000,0,0,0.000000,2,0.000000,0.000000,0.783989,0,0,0,0,0,0,0
1,19999,17,0,17,0,40,19999,0.100000,0,0,0.000000,2,0.000000,0.000000,1.272075,0,0,0,0,0,0,0
1,19999,18,0,18,0,49,19999,0.100000,0,0,0.000000,2,1.000000,0.000000,3.797786,0,0,0,0,0,0,0
1,19999,19,10000,11,0,49,9999,0.100000,0,0,0.000000,2,3.000000,0.000000,5.066322,0,0,0,0,0,0,0
1,19999,20,10000,96,0,49,9999,0.100000,0,0,0.000000,3,2.000000,0.000000,22.489555,0,0,0,0,0,0,0
1,19999,21,10000,96,0,49,9999,0.100000,0,0,0.000000,3,2.000000,0.000000,12.239569,0,0,0,0,0,0,0
1,19999,22,10000,75,0,40,9999,0.100000,0,0,0.000000,3,0.000000,0.000000,0.231678,0,0,0,0,0,0,0
1,19999,23,10000,0,0,49,9999,0.100000,0,0,0.000000,2,3.000000,0.000000,7.546933,0,0,0,0,0,0,0
1,19999,24,10000,75,0,49,9999,0.100000,0,0,0.000000,2,1.000000,0.000000,7.734737,0,0,0,0,0,0,0
1,19999,25,10000,0,0,40,9999,0.100000,0,0,0.000000,2,0.000000,0.000000,0.131231,0,0,0,0,0,0,0
1,19999,26,10000,79,0,49,9999,0.100000,0,0,0.000000,2,5.000000,0.000000,11.023715,0,0,0,0,0,0,0
1,19999,27,10000,75,0,99,9999,0.100000,0,0,34.210526,3,3.000000,0.000000,10.756627,0,0,1,0,0,0,0
1,19999,28,10000,0,0,49,9999,0.100000,0,0,0.000000,2,3.000000,0.000000,10.516754,0,0,0,0,0,0,0
1,19999,29,10000,0,0,49,9999,0.100000,0,0,0.000000,2,1.000000,0.000000,5.300919,0,0,0,0,0,0,0
1,19999,30,10000,11,0,49,9999,0.100000,0,0,0.000000,2,2.000000,0.000000,4.718656,0,0,0,0,0,0,0
1,19999,31,10000,0,0,40,9999,0.100000,0,0,0.000000,2,0.000000,0.000000,0.464812,0,0,0,0,0,0,0
1,19999,32,10000,87,0,49,9999,0.100000,0,0,0.000000,2,3.000000,0.000000,10.123266,0,0,0,0,0,0,0
1,19999,33,10000,74,0,40,9999,0.100000,0,0,0.000000,2,0.000000,0.000000,0.484113,0,0,0,0,0,0,0
1,19999,34,10000,0,0,40,9999,0.100000,0,0,0.000000,2,0.000000,0.000000,9.836940,0,0,0,0,0,0,0
1,19999,35,10000,74,0,40,9999,0.100000,0,0,0.000000,2,0.000000,0.000000,0.356224,0,0,0,0,0,0,0
1,19999,36,10000,87,0,40,9999,0.100000,0,0,0.000000,2,0.000000,0.000000,0.223068,0,0,0,0,0,0,0
1,19999,37,10000,0,0,40,9999,0.100000,0,0,0.000000,2,0.000000,0.000000,1.195354,0,0,0,0,0,0,0
1,19999,38,10000,75,0,40,9999,0.100000,0,0,0.000000,2,0.000000,0.000000,0.124794,0,0,0,0,0,0,0
1,19999,39,10000,0,0,40,9999,0.100000,0,0,0.000000,2,0.000000,0.000000,0.896725,0,0,0,0,0,0,0
1,19999,40,10000,11,0,49,9999,0.100000,0,0,0.000000,2,2.000000,0.000000,3.604266,0,0,0,0,0,0,0
1,19999,41,10000,0,0,40,9999,0.100000,0,0,0.000000,2,0.000000,0.000000,0.629817,0,0,0,0,0,0,0
1,19999,42,10000,75,0,40,9999,0.100000,0,0,0.000000,3,0.000000,0.000000,0.184970,0,0,0,0,0,0,0
1,19999,43,10000,0,0,49,9999,0.100000,0,0,0.000000,2,2.000000,0.000000,18.843472,0,0,0,0,0,0,0
1,19999,44,0,44,0,40,19999,0.100000,0,0,0.000000,2,0.000000,0.000000,1.253544,0,0,0,0,0,0,0
1,19999,45,10000,0,0,40,9999,0.100000,0,0,0.000000,2,0.000000,0.000000,0.887642,0,0,0,0,0,0,0
1,19999,46,10000,0,0,40,9999,0.100000,0,0,0.000000,2,0.000000,0.000000,0.295680,0,0,0,0,0,0,0
1,19999,47,10000,87,0,40,9999,0.100000,0,0,0.000000,2,0.000000,0.000000,1.877500,0,0,0,0,0,0,0
1,19999,48,0,48,0,40,19999,0.100000,0,0,0.000000,2,0.000000,0.000000,0.090078,0,0,0,0,0,0,0
1,19999,49,10000,0,0,40,9999,0.100000,0,0,0.000000,2,0.000000,0.000000,0.451401,0,0,0,0,0,0,0
1,19999,50,0,50,0,40,19999,0.100000,0,0,0.000000,2,0.000000,0.000000,1.041080,0,0,0,0,0,0,0
1,19999,51,0,51,0,40,19999,0.100000,0,0,0.000000,2,0.000000,0.000000,4.352509,0,0,0,0,0,0,0
1,19999,52,10000,87,0,49,9999,0.100000,0,0,0.000000,2,1.000000,0.000000,15.382696,0,0,0,0,0,0,0
1,19999,53,10000,96,0,49,9999,0.100000,0,0,0.000000,3,4.000000,0.000000,9.326675,0,0,0,0,0,0,0
1,19999,54,10000,0,0,40,9999,0.100000,0,0,0.000000,2,0.000000,0.000000,0.498008,0,0,0,0,0,0,0
1,19999,55,10000,0,0,49,9999,0.100000,0,0,0.000000,2,2.000000,0.000000,12.246221,0,0,0,0,0,0,0
1,19999,56,0,56,0,40,19999,0.100000,0,0,0.000000,2,0.000000,0.000000,8.923614,0,0,0,0,0,0,0
1,19999,57,10000,0,0,49,9999,0.100000,0,0,0.000000,2,4.000000,0.000000,9.985793,0,0,0,0,0,0,0
1,19999,58,10000,87,0,49,9999,0.100000,0,0,0.000000,2,1.000000,0.000000,10.295636,0,0,0,0,0,0,0
1,19999,59,10000,0,0,40,9999,0.100000,0,0,0.000000,2,0.000000,0.000000,0.060680,0,0,0,0,0,0,0
1,19999,60,10000,0,0,40,9999,0.100000,0,0,0.000000,2,0.000000,0.000000,3.687253,0,0,0,0,0,0,0
1,19999,61,10000,75,0,40,9999,0.100000,0,0,0.000000,3,0.000000,0.000000,0.164877,0,0,0,0,0,0,0
1,19999,62,10000,96,0,40,9999,0.100000,0,0,0.000000,3,0.000000,0.000000,0.087530,0,0,0,0,0,0,0
1,19999,63,0,63,0,49,19999,0.100000,0,0,0.000000,2,2.000000,0.000000,17.982061,0,0,0,0,0,0,0
1,19999,64,10000,79,0,49,9999,0.100000,0,0,0.000000,2,1.000000,0.000000,21.466553,0,0,0,0,0,0,0
1,19999,65,10000,75,0,40,9999,0.100000,0,0,0.000000,3,0.000000,0.000000,4.979041,0,0,0,0,0,0,0
1,19999,66,10000,79,0,40,9999,0.100000,0,0,0.000000,2,0.000000,0.000000,0.464535,0,0,0,0,0,0,0
1,19999,67,10000,79,0,40,9999,0.100000,0,0,0.000000,2,0.000000,0.000000,1.056553,0,0,0,0,0,0,0
1,19999,68,10000,0,0,40,9999,0.100000,0,0,0.000000,2,0.000000,0.000000,0.777157,0,0,0,0,0,0,0
1,19999,69,10000,75,0,40,9999,0.100000,0,0,0.000000,3,0.000000,0.000000,0.298174,0,0,0,0,0,0,0
1,19999,70,0,70,0,0,19999,0.100000,0,0,0.000000,2,0.000000,0.000000,1.413854,0,0,0,0,0,0,3
1,19999,71,10000,0,0,40,9999,0.100000,0,0,0.000000,2,0.000000,0.000000,0.148187,0,0,0,0,0,0,0
1,19999,72,10000,87,0,40,9999,0.100000,0,0,0.000000,2,0.000000,0.000000,1.506363,0,0,0,0,0,0,0
1,19999,73,10000,96,0,40,9999,0.100000,0,0,0.000000,3,0.000000,0.000000,0.773757,0,0,0,0,0,0,0
1,19999,74,10000,74,0,40,9999,0.100000,0,0,0.000000,2,0.000000,0.000000,0.361103,0,0,0,0,0,0,0
1,19999,75,10000,75,0,40,9999,0.100000,0,0,0.000000,2,0.000000,0.000000,0.838936,0,0,0,0,0,0,0
1,19999,76,10000,0,0,40,9999,0.135000,0,0,0.000000,2,0.000000,0.000000,1.002524,0,0,0,0,0,0,0
1,19999,77,10000,0,0,40,9999,0.100000,0,0,0.000000,2,0.000000,0.000000,0.531090,0,0,0,0,0,0,0
1,19999,78,10000,96,0,40,9999,0.100000,0,0,0.000000,3,0.000000,0.000000,1.937458,0,0,0,0,0,0,0
1,19999,79,10000,0,0,40,9999,0.100000,0,0,0.000000,2,0.000000,0.000000,0.115728,0,0,0,0,0,0,0
1,19999,80,10000,75,0,49,9999,0.100000,0,0,0.000000,3,1.000000,0.000000,4.063923,0,0,0,0,0,0,0
1,19999,81,10000,0,0,40,9999,0.100000,0,0,0.000000,2,0.000000,0.000000,0.620850,0,0,0,0,0,0,0
1,19999,82,10000,0,0,40,9999,0.100000,0,0,0.000000,3,0.000000,0.000000,0.130758,0,0,0,0,0,0,0
1,19999,83,0,83,0,40,19999,0.100000,0,0,0.000000,3,0.000000,0.000000,6.343762,0,0,0,0,0,0,0
1,19999,84,10000,0,0,40,9999,0.100000,0,0,0.000000,2,0.000000,0.000000,22.585654,0,0,0,0,0,0,0
1,19999,85,0,85,0,40,19999,0.100000,0,0,0.000000,2,0.000000,0.000000,3.547150,0,0,0,0,0,0,0
1,19999,86,10000,96,0,40,9999,0.100000,0,0,0.000000,3,0.000000,0.000000,1.422189,0,0,0,0,0,0,0
1,19999,87,10000,0,0,40,9999,0.100000,0,0,0.000000,2,0.000000,0.000000,0.163823,0,0,0,0,0,0,0
1,19999,88,0,88,0,40,19999,0.100000,0,0,0.000000,3,0.000000,0.000000,1.075124,0,0,0,0,0,0,0
1,19999,89,10000,0,0,49,9999,0.100000,0,0,0.000000,3,1.000000,0.000000,6.957046,0,0,0,0,0,0,0
1,19999,90,10000,74,0,40,9999,0.100000,0,0,0.000000,2,0.000000,0.000000,0.085666,0,0,0,0,0,0,0
1,19999,91,0,91,0,40,19999,0.100000,0,0,0.000000,2,0.000000,0.000000,2.984225,0,0,0,0,0,0,0
1,19999,92,10000,87,0,49,9999,0.100000,0,0,0.000000,2,1.000000,0.000000,1.174144,0,0,0,0,0,0,0
1,19999,93,10000,0,0,40,9999,0.100000,0,0,0.000000,2,0.000000,0.000000,0.195746,0,0,0,0,0,0,0
1,19999,94,10000,96,0,40,9999,0.100000,0,0,0.000000,3,0.000000,0.000000,12.030710,0,0,0,0,0,0,0
1,19999,95,10000,87,0,40,9999,0.100000,0,0,0.000000,2,0.000000,0.000000,0.180798,0,0,0,0,0,0,0
1,19999,96,10000,96,0,40,9999,0.100000,0,0,0.000000,3,0.000000,0.000000,9.073408,0,0,0,0,0,0,0
1,19999,97,10000,87,0,40,9999,0.100000,0,0,0.000000,2,0.000000,0.000000,1.229347,0,0,0,0,0,0,0
1,19999,98,10000,96,0,40,9999,0.100000,0,0,0.000000,3,0.000000,0.000000,0.111286,0,0,0,0,0,0,0
1,19999,99,10000,75,0,49,9999,0.100000,0,0,0.000000,3,3.000000,0.000000,10.630008,0,0,0,0,0,0,0
2,29999,0,10000,0,0,49,19999,0.100000,0,0,0.000000,3,1.000000,0.000000,14.930029,0,0,0,0,0,0,0
2,29999,1,20000,0,0,40,9999,0.100000,0,0,0.000000,5,0.000000,0.000000,1.168534,0,0,0,0,0,0,0
2,29999,2,20000,0,0,49,9999,0.100000,0,0,0.000000,5,3.000000,0.000000,9.776600,0,0,0,0,0,0,0
2,29999,3,10000,0,0,40,19999,0.100000,0,0,0.000000,5,0.000000,0.000000,0.069380,0,0,0,0,0,0,0
2,29999,4,20000,0,0,40,9999,0.100000,0,0,0.000000,5,0.000000,0.000000,0.075780,0,0,0,0,0,0,0
2,29999,5,20000,0,0,40,9999,0.100000,0,0,0.000000,5,0.000000,0.000000,2.047862,0,0,0,0,0,0,0
2,29999,6,20000,75,0,40,9999,0.100000,0,0,0.000000,5,0.000000,0.000000,0.080029,0,0,0,0,0,0,0
2,29999,7,20000,75,0,40,9999,0.100000,0,0,0.000000,5,0.000000,0.000000,0.507804,0,0,0,0,0,0,0
2,29999,8,20000,13,10000,49,9999,0.100000,0,0,0.000000,5,2.000000,0.000000,15.704927,0,0,0,0,0,0,0
2,29999,9,20000,16,10000,40,9999,0.100000,0,0,0.000000,5,0.000000,0.000000,0.643880,0,0,0,0,0,0,0
2,29999,10,20000,13,10000,40,9999,0.100000,0,0,0.000000,5,0.000000,0.000000,4.866247,0,0,0,0,0,0,0
2,29999,11,20000,13,10000,40,9999,0.100000,0,0,0.000000,5,0.000000,0.000000,0.611706,0,0,0,0,0,0,0
2,29999,12,20000,13,10000,9,9999,0.100000,0,0,34.210526,5,5.000000,0.000000,6.515954,0,0,0,1,0,0,0
2,29999,13,20000,0,0,40,9999,0.100000,0,0,0.000000,5,0.000000,0.000000,7.453189,0,0,0,0,0,0,0
2,29999,14,20000,82,10000,40,9999,0.100000,0,0,0.000000,5,0.000000,0.000000,0.540009,0,0,0,0,0,0,0
2,29999,15,20000,75,0,40,9999,0.100000,0,0,0.000000,5,0.000000,0.000000,0.481034,0,0,0,0,0,0,0
2,29999,16,20000,75,0,40,9999,0.100000,0,0,0.000000,5,0.000000,0.000000,0.693462,0,0,0,0,0,0,0
2,29999,17,20000,13,10000,9,9999,0.100000,0,0,0.000000,5,1.000000,0.000000,6.707145,0,0,0,0,1,0,0
2,29999,18,20000,96,0,49,9999,0.100000,0,0,0.000000,5,1.000000,0.000000,5.519512,0,0,0,0,0,0,0
2,29999,19,20000,36,10000,49,9999,0.100000,0,0,0.000000,5,1.000000,0.000000,6.435880,0,0,0,0,0,0,0
2,29999,20,20000,96,0,49,9999,0.100000,0,0,0.000000,5,3.000000,0.000000,21.078364,0,0,0,0,0,0,0
2,29999,21,20000,0,0,40,9999,0.100000,0,0,0.000000,5,0.000000,0.000000,0.964172,0,0,0,0,0,0,0
2,29999,22,20000,75,0,40,9999,0.100000,0,0,0.000000,5,0.000000,0.000000,0.276242,0,0,0,0,0,0,0
2,29999,23,20000,75,0,40,9999,0.100000,0,0,0.000000,5,0.000000,0.000000,1.980236,0,0,0,0,0,0,0
2,29999,24,20000,96,0,9,9999,0.100000,0,0,34.210526,5,6.000000,0.000000,14.361873,0,0,0,1,0,0,0
2,29999,25,20000,16,10000,40,9999,0.100000,0,0,0.000000,5,0.000000,0.000000,0.132702,0,0,0,0,0,0,0
2,29999,26,20000,16,10000,40,9999,0.100000,0,0,0.000000,5,0.000000,0.000000,1.289986,0,0,0,0,0,0,0
2,29999,27,20000,16,10000,49,9999,0.100000,0,0,0.000000,5,3.000000,0.000000,13.064317,0,0,0,0,0,0,0
2,29999,28,20000,75,0,40,9999,0.100000,0,0,0.000000,5,0.000000,0.000000,0.794141,0,0,0,0,0,0,0
2,29999,29,20000,75,0,40,9999,0.100000,0,0,0.000000,5,0.000000,0.000000,1.909617,0,0,0,0,0,0,0
2,29999,30,20000,13,10000,49,9999,0.100000,0,0,0.000000,5,5.000000,0.000000,14.425188,0,0,0,0,0,0,0
2,29999,31,20000,82,10000,40,9999,0.100000,0,0,0.000000,5,0.000000,0.000000,0.670543,0,0,0,0,0,0,0
2,29999,32,20000,0,0,40,9999,0.100000,0,0,0.000000,5,0.000000,0.000000,0.506505,0,0,0,0,0,0,0
2,29999,33,20000,96,0,40,9999,0.100000,0,0,0.000000,5,0.000000,0.000000,1.847820,0,0,0,0,0,0,0
2,29999,34,20000,75,0,40,9999,0.100000,0,0,0.000000,5,0.000000,0.000000,18.796145,0,0,0,0,0,0,0
2,29999,35,20000,75,0,40,9999,0.100000,0,0,0.000000,5,0.000000,0.000000,0.517609,0,0,0,0,0,0,0
2,29999,36,20000,0,0,40,9999,0.100000,0,0,0.000000,5,0.000000,0.000000,0.180922,0,0,0,0,0,0,0
2,29999,37,20000,13,10000,49,9999,0.100000,0,0,0.000000,5,1.000000,0.000000,15.601008,0,0,0,0,0,0,0
2,29999,38,20000,82,10000,40,9999,0.100000,0,0,0.000000,5,0.000000,0.000000,0.189145,0,0,0,0,0,0,0
2,29999,39,20000,75,0,40,9999,0.100000,0,0,0.000000,5,0.000000,0.000000,0.938036,0,0,0,0,0,0,0
2,29999,40,20000,96,0,40,9999,0.100000,0,0,0.000000,5,0.000000,0.000000,0.965873,0,0,0,0,0,0,0
2,29999,41,20000,0,0,40,9999,0.100000,0,0,0.000000,5,0.000000,0.000000,0.684124,0,0,0,0,0,0,0
2,29999,42,20000,96,0,49,9999,0.100000,0,0,0.000000,5,2.000000,0.000000,4.999326,0,0,0,0,0,0,0
2,29999,43,20000,13,10000,40,9999,0.100000,0,0,0.000000,5,0.000000,0.000000,15.516815,0,0,0,0,0,0,0
2,29999,44,20000,75,0,40,9999,0.100000,0,0,0.000000,4,0.000000,0.000000,1.898465,0,0,0,0,0,0,0
2,29999,45,20000,75,0,49,9999,0.100000,0,0,0.000000,5,1.000000,0.000000,1.398160,0,0,0,0,0,0,0
2,29999,46,20000,0,0,40,9999,0.100000,0,0,0.000000,5,0.000000,0.000000,0.625413,0,0,0,0,0,0,0
2,29999,47,20000,96,0,49,9999,0.100000,0,0,0.000000,5,2.000000,0.000000,5.145283,0,0,0,0,0,0,0
2,29999,48,20000,13,10000,49,9999,0.100000,0,0,0.000000,5,2.000000,0.000000,5.756723,0,0,0,0,0,0,0
2,29999,49,20000,96,0,40,9999,0.100000,0,0,0.000000,5,0.000000,0.000000,0.678270,0,0,0,0,0,0,0
2,29999,50,20000,0,0,40,9999,0.100000,0,0,0.000000,5,0.000000,0.000000,0.985649,0,0,0,0,0,0,0
2,29999,51,20000,96,0,49,9999,0.100000,0,0,0.000000,5,1.000000,0.000000,4.712378,0,0,0,0,0,0,0
2,29999,52,20000,0,0,49,9999,0.100000,0,0,0.000000,5,3.000000,0.000000,12.394785,0,0,0,0,0,0,0
2,29999,53,20000,75,0,40,9999,0.100000,0,0,0.000000,5,0.000000,0.000000,0.946635,0,0,0,0,0,0,0
2,29999,54,20000,0,0,40,9999,0.100000,0,0,0.000000,5,0.000000,0.000000,0.432360,0,0,0,0,0,0,0
2,29999,55,20000,82,10000,49,9999,0.100000,0,0,0.000000,5,1.000000,0.000000,15.486788,0,0,0,0,0,0,0
2,29999,56,20000,13,10000,40,9999,0.100000,0,0,0.000000,5,0.000000,0.000000,7.235412,0,0,0,0,0,0,0
2,29999,57,20000,75,0,49,9999,0.100000,0,0,0.000000,5,1.000000,0.000000,7.643541,0,0,0,0,0,0,0
2,29999,58,20000,44,0,49,9999,0.100000,0,0,0.000000,4,1.000000,0.000000,6.262683,0,0,0,0,0,0,0
2,29999,59,20000,0,0,40,9999,0.100000,0,0,0.000000,5,0.000000,0.000000,0.061774,0,0,0,0,0,0,0
2,29999,60,20000,0,0,40,9999,0.100000,0,0,0.000000,5,0.000000,0.000000,1.046384,0,0,0,0,0,0,0
2,29999,61,20000,75,0,40,9999,0.100000,0,0,0.000000,5,0.000000,0.000000,0.145514,0,0,0,0,0,0,0
2,29999,62,20000,75,0,40,9999,0.100000,0,0,0.000000,5,0.000000,0.000000,0.086329,0,0,0,0,0,0,0
2,29999,63,20000,96,0,49,9999,0.100000,0,0,0.000000,5,4.000000,0.000000,16.683662,0,0,0,0,0,0,0
2,29999,64,20000,75,0,40,9999,0.100000,0,0,0.000000,5,0.000000,0.000000,11.334352,0,0,0,0,0,0,0
2,29999,65,20000,13,10000,40,9999,0.100000,0,0,0.000000,5,0.000000,0.000000,0.743759,0,0,0,0,0,0,0
2,29999,66,20000,96,0,40,9999,0.100000,0,0,0.000000,5,0.000000,0.000000,0.591945,0,0,0,0,0,0,0
2,29999,67,20000,13,10000,40,9999,0.100000,0,0,0.000000,5,0.000000,0.000000,1.033334,0,0,0,0,0,0,0
2,29999,68,20000,0,0,40,9999,0.100000,0,0,0.000000,5,0.000000,0.000000,0.383413,0,0,0,0,0,0,0
2,29999,69,20000,96,0,40,9999,0.100000,0,0,0.000000,5,0.000000,0.000000,0.196670,0,0,0,0,0,0,0
2,29999,70,20000,0,0,40,9999,0.100000,0,0,0.000000,5,0.000000,0.000000,0.922789,0,0,0,0,0,0,0
2,29999,71,20000,13,10000,40,9999,0.100000,0,0,0.000000,5,0.000000,0.000000,0.148395,0,0,0,0,0,0,0
2,29999,72,20000,82,10000,40,9999,0.100000,0,0,0.000000,5,0.000000,0.000000,1.482675,0,0,0,0,0,0,0
2,29999,73,20000,16,10000,40,9999,0.100000,0,0,0.000000,5,0.000000,0.000000,0.748756,0,0,0,0,0,0,0
2,29999,74,20000,75,0,40,9999,0.100000,0,0,0.000000,5,0.000000,0.000000,0.220862,0,0,0,0,0,0,0
2,29999,75,20000,75,0,40,9999,0.100000,0,0,0.000000,5,0.000000,0.000000,0.831075,0,0,0,0,0,0,0
2,29999,76,20000,13,10000,40,9999,0.100000,0,0,0.000000,5,0.000000,0.000000,0.921884,0,0,0,0,0,0,0
2,29999,77,20000,0,0,49,9999,0.100000,0,0,0.000000,5,2.000000,0.000000,2.821712,0,0,0,0,0,0,0
2,29999,78,20000,75,0,40,9999,0.100000,0,0,0.000000,5,0.000000,0.000000,0.750756,0,0,0,0,0,0,0
2,29999,79,20000,82,10000,40,9999,0.100000,0,0,0.000000,5,0.000000,0.000000,0.086883,0,0,0,0,0,0,0
2,29999,80,20000,13,10000,40,9999,0.100000,0,0,0.000000,5,0.000000,0.000000,1.376508,0,0,0,0,0,0,0
2,29999,81,20000,13,10000,49,9999,0.100000,0,0,0.000000,5,2.000000,0.000000,3.069639,0,0,0,0,0,0,0
2,29999,82,20000,82,10000,40,9999,0.100000,0,0,0.000000,5,0.000000,0.000000,0.159205,0,0,0,0,0,0,0
2,29999,83,20000,36,10000,49,9999,0.100000,0,0,0.000000,5,1.000000,0.000000,12.614593,0,0,0,0,0,0,0
2,29999,84,20000,96,0,40,9999,0.100000,0,0,0.000000,5,0.000000,0.000000,22.052121,0,0,0,0,0,0,0
2,29999,85,20000,96,0,40,9999,0.100000,0,0,0.000000,5,0.000000,0.000000,2.652501,0,0,0,0,0,0,0
2,29999,86,20000,13,10000,40,9999,0.100000,0,0,0.000000,5,0.000000,0.000000,3.253394,0,0,0,0,0,0,0
2,29999,87,20000,75,0,40,9999,0.100000,0,0,0.000000,5,0.000000,0.000000,0.187336,0,0,0,0,0,0,0
2,29999,88,20000,75,0,40,9999,0.100000,0,0,0.000000,5,0.000000,0.000000,1.008899,0,0,0,0,0,0,0
2,29999,89,20000,0,0,40,9999,0.100000,0,0,0.000000,5,0.000000,0.000000,0.252624,0,0,0,0,0,0,0
2,29999,90,20000,13,10000,40,9999,0.100000,0,0,0.000000,5,0.000000,0.000000,0.085381,0,0,0,0,0,0,0
2,29999,91,20000,13,10000,40,9999,0.100000,0,0,0.000000,5,0.000000,0.000000,2.073958,0,0,0,0,0,0,0
2,29999,92,20000,82,10000,49,9999,0.100000,0,0,0.000000,5,1.000000,0.000000,1.684768,0,0,0,0,0,0,0
2,29999,93,20000,82,10000,40,9999,0.100000,0,0,0.000000,5,0.000000,0.000000,0.191799,0,0,0,0,0,0,0
2,29999,94,20000,82,10000,40,9999,0.100000,0,0,0.000000,5,0.000000,0.000000,9.143608,0,0,0,0,0,0,0
2,29999,95,20000,0,0,40,9999,0.100000,0,0,0.000000,5,0.000000,0.000000,0.623969,0,0,0,0,0,0,0
2,29999,96,20000,96,0,40,9999,0.100000,0,0,0.000000,5,0.000000,0.000000,7.669356,0,0,0,0,0,0,0
2,29999,97,20000,96,0,40,9999,0.100000,0,0,0.000000,5,0.000000,0.000000,1.373444,0,0,0,0,0,0,0
2,29999,98,20000,0,0,40,9999,0.100000,0,0,0.000000,5,0.000000,0.000000,0.137468,0,0,0,0,0,0,0
2,29999,99,10000,75,0,40,19999,0.100000,0,0,0.000000,5,0.000000,0.000000,2.681117,0,0,0,0,0,0,0
3,39999,0,30000,75,10000,49,9999,0.100000,0,0,0.000000,5,3.000000,0.000000,10.751837,0,0,0,0,0,0,0
3,39999,1,30000,13,10000,40,9999,0.100000,0,0,0.000000,5,0.000000,0.000000,0.622448,0,0,0,0,0,0,0
3,39999,2,30000,75,10000,49,9999,0.100000,0,0,0.000000,5,1.000000,0.000000,20.957975,0,0,0,0,0,0,0
3,39999,3,30000,75,10000,40,9999,0.100000,0,0,0.000000,5,0.000000,0.000000,0.086268,0,0,0,0,0,0,0
3,39999,4,30000,0,0,40,9999,0.100000,0,0,0.000000,5,0.000000,0.000000,0.075068,0,0,0,0,0,0,0
3,39999,5,30000,75,0,49,9999,0.100000,0,0,0.000000,5,1.000000,0.000000,4.712262,0,0,0,0,0,0,0
3,39999,6,30000,13,10000,40,9999,0.100000,0,0,0.000000,5,0.000000,0.000000,0.078150,0,0,0,0,0,0,0
3,39999,7,30000,96,0,40,9999,0.100000,0,0,0.000000,5,0.000000,0.000000,0.476280,0,0,0,0,0,0,0
3,39999,8,30000,75,10000,49,9999,0.100000,0,0,0.000000,5,2.000000,0.000000,4.101648,0,0,0,0,0,0,0
3,39999,9,30000,96,0,40,9999,0.100000,0,0,0.000000,5,0.000000,0.000000,0.393603,0,0,0,0,0,0,0
3,39999,10,30000,96,0,40,9999,0.100000,0,0,0.000000,5,0.000000,0.000000,3.998069,0,0,0,0,0,0,0
3,39999,11,30000,13,10000,40,9999,0.100000,0,0,0.000000,5,0.000000,0.000000,0.805308,0,0,0,0,0,0,0
3,39999,12,30000,0,0,49,9999,0.100000,0,0,0.000000,5,1.000000,0.000000,14.491630,0,0,0,0,0,0,0
3,39999,13,30000,75,10000,9,9999,0.100000,0,0,34.210526,5,1.000000,0.000000,8.578839,0,0,0,2,0,0,0
3,39999,14,30000,96,0,40,9999,0.100000,0,0,0.000000,5,0.000000,0.000000,0.497001,0,0,0,0,0,0,0
3,39999,15,30000,75,10000,40,9999,0.100000,0,0,0.000000,5,0.000000,0.000000,0.723315,0,0,0,0,0,0,0
3,39999,16,30000,13,10000,40,9999,0.100000,0,0,0.000000,5,0.000000,0.000000,0.425462,0,0,0,0,0,0,0
3,39999,17,30000,13,10000,9,9999,0.100000,0,0,0.000000,5,1.000000,0.000000,5.548730,0,0,0,0,1,0,0
3,39999,18,30000,13,10000,40,9999,0.100000,0,0,0.000000,5,0.000000,0.000000,1.197539,0,0,0,0,0,0,0
3,39999,19,30000,13,10000,49,9999,0.100000,0,0,0.000000,5,1.000000,0.000000,6.308644,0,0,0,0,0,0,0
3,39999,20,30000,96,0,49,9999,0.100000,0,0,0.000000,5,1.000000,0.000000,14.978447,0,0,0,0,0,0,0
3,39999,21,30000,75,10000,40,9999,0.100000,0,0,0.000000,5,0.000000,0.000000,0.919860,0,0,0,0,0,0,0
3,39999,22,30000,75,0,40,9999,0.100000,0,0,0.000000,5,0.000000,0.000000,0.404879,0,0,0,0,0,0,0
3,39999,23,30000,75,0,49,9999,0.100000,0,0,0.000000,5,2.000000,0.000000,5.369041,0,0,0,0,0,0,0
3,39999,24,30000,75,10000,49,9999,0.100000,0,0,0.000000,5,1.000000,0.000000,8.712564,0,0,0,0,0,0,0
3,39999,25,30000,75,10000,40,9999,0.100000,0,0,0.000000,5,0.000000,0.000000,0.128220,0,0,0,0,0,0,0
3,39999,26,30000,96,0,49,9999,0.100000,0,0,0.000000,5,4.000000,0.000000,5.219970,0,0,0,0,0,0,0
3,39999,27,30000,96,0,9,9999,0.100000,0,0,34.210526,5,1.000000,0.000000,5.684109,0,0,0,3,0,0,0
3,39999,28,30000,75,0,40,9999,0.100000,0,0,0.000000,5,0.000000,0.000000,0.604130,0,0,0,0,0,0,0
3,39999,29,30000,75,0,40,9999,0.100000,0,0,0.000000,5,0.000000,0.000000,1.457338,0,0,0,0,0,0,0
3,39999,30,30000,0,0,49,9999,0.100000,0,0,0.000000,5,1.000000,0.000000,13.876098,0,0,0,0,0,0,0
3,39999,31,30000,75,0,40,9999,0.100000,0,0,0.000000,5,0.000000,0.000000,1.112998,0,0,0,0,0,0,0
3,39999,32,30000,0,0,40,9999,0.100000,0,0,0.000000,5,0.000000,0.000000,0.457202,0,0,0,0,0,0,0
3,39999,33,30000,96,0,40,9999,0.100000,0,0,0.000000,5,0.000000,0.000000,0.232299,0,0,0,0,0,0,0
3,39999,34,30000,75,10000,40,9999,0.100000,0,0,0.000000,5,0.000000,0.000000,3.110519,0,0,0,0,0,0,0
3,39999,35,30000,13,10000,40,9999,0.100000,0,0,0.000000,5,0.000000,0.000000,0.227427,0,0,0,0,0,0,0
3,39999,36,30000,13,10000,40,9999,0.100000,0,0,0.000000,5,0.000000,0.000000,0.163657,0,0,0,0,0,0,0
3,39999,37,30000,13,10000,49,9999,0.100000,0,0,0.000000,5,1.000000,0.000000,16.743642,0,0,0,0,0,0,0
3,39999,38,30000,13,10000,40,9999,0.100000,0,0,0.000000,5,0.000000,0.000000,0.665353,0,0,0,0,0,0,0
3,39999,39,30000,75,0,40,9999,0.100000,0,0,0.000000,5,0.000000,0.000000,6.745112,0,0,0,0,0,0,0
3,39999,40,30000,96,0,40,9999,0.100000,0,0,0.000000,5,0.000000,0.000000,1.350042,0,0,0,0,0,0,0
3,39999,41,30000,13,10000,40,9999,0.100000,0,0,0.000000,5,0.000000,0.000000,0.461155,0,0,0,0,0,0,0
3,39999,42,30000,96,0,40,9999,0.100000,0,0,0.000000,5,0.000000,0.000000,0.186281,0,0,0,0,0,0,0
3,39999,43,30000,96,0,49,9999,0.100000,0,0,0.000000,5,3.000000,0.000000,10.945070,0,0,0,0,0,0,0
3,39999,44,30000,75,0,40,9999,0.100000,0,0,0.000000,5,0.000000,0.000000,0.527732,0,0,0,0,0,0,0
3,39999,45,30000,96,0,49,9999,0.100000,0,0,0.000000,5,4.000000,0.000000,5.915417,0,0,0,0,0,0,0
3,39999,46,30000,96,0,40,9999,0.100000,0,0,0.000000,5,0.000000,0.000000,0.499071,0,0,0,0,0,0,0
3,39999,47,30000,75,0,40,9999,0.100000,0,0,0.000000,5,0.000000,0.000000,0.111080,0,0,0,0,0,0,0
3,39999,48,30000,75,0,40,9999,0.100000,0,0,0.000000,5,0.000000,0.000000,0.106613,0,0,0,0,0,0,0
3,39999,49,30000,0,0,40,9999,0.100000,0,0,0.000000,5,0.000000,0.000000,0.474212,0,0,0,0,0,0,0
3,39999,50,30000,0,0,40,9999,0.100000,0,0,0.000000,5,0.000000,0.000000,3.334926,0,0,0,0,0,0,0
3,39999,51,30000,75,0,40,9999,0.100000,0,0,0.000000,5,0.000000,0.000000,0.880597,0,0,0,0,0,0,0
3,39999,52,30000,0,0,40,9999,0.100000,0,0,0.000000,5,0.000000,0.000000,4.208674,0,0,0,0,0,0,0
3,39999,53,30000,75,0,40,9999,0.100000,0,0,0.000000,5,0.000000,0.000000,3.171031,0,0,0,0,0,0,0
3,39999,54,30000,0,0,40,9999,0.100000,0,0,0.000000,5,0.000000,0.000000,0.411681,0,0,0,0,0,0,0
3,39999,55,30000,96,0,49,9999,0.100000,0,0,0.000000,5,10.000000,0.000000,37.297266,0,0,0,0,0,0,0
3,39999,56,30000,96,0,40,9999,0.100000,0,0,0.000000,5,0.000000,0.000000,6.662647,0,0,0,0,0,0,0
3,39999,57,30000,75,10000,49,9999,0.100000,0,0,0.000000,5,1.000000,0.000000,3.730571,0,0,0,0,0,0,0
3,39999,58,30000,75,0,40,9999,0.100000,0,0,0.000000,5,0.000000,0.000000,7.882904,0,0,0,0,0,0,0
3,39999,59,30000,75,10000,40,9999,0.100000,0,0,0.000000,5,0.000000,0.000000,0.062217,0,0,0,0,0,0,0
3,39999,60,30000,75,10000,40,9999,0.100000,0,0,0.000000,5,0.000000,0.000000,0.996159,0,0,0,0,0,0,0
3,39999,61,30000,13,10000,40,9999,0.100000,0,0,0.000000,5,0.000000,0.000000,0.134141,0,0,0,0,0,0,0
3,39999,62,30000,0,0,40,9999,0.100000,0,0,0.000000,5,0.000000,0.000000,0.084795,0,0,0,0,0,0,0
3,39999,63,30000,0,0,40,9999,0.100000,0,0,0.000000,5,0.000000,0.000000,1.006505,0,0,0,0,0,0,0
3,39999,64,30000,0,0,40,9999,0.100000,0,0,0.000000,5,0.000000,0.000000,0.700938,0,0,0,0,0,0,0
3,39999,65,30000,75,10000,40,9999,0.100000,0,0,0.000000,5,0.000000,0.000000,0.319363,0,0,0,0,0,0,0
3,39999,66,30000,13,10000,40,9999,0.100000,0,0,0.000000,5,0.000000,0.000000,0.606573,0,0,0,0,0,0,0
3,39999,67,30000,96,0,40,9999,0.100000,0,0,0.000000,5,0.000000,0.000000,1.013017,0,0,0,0,0,0,0
3,39999,68,30000,75,10000,40,9999,0.100000,0,0,0.000000,5,0.000000,0.000000,0.809049,0,0,0,0,0,0,0
3,39999,69,30000,0,0,40,9999,0.100000,0,0,0.000000,5,0.000000,0.000000,0.543254,0,0,0,0,0,0,0
3,39999,70,30000,75,0,40,9999,0.100000,0,0,0.000000,5,0.000000,0.000000,7.766642,0,0,0,0,0,0,0
3,39999,71,30000,96,0,40,9999,0.100000,0,0,0.000000,5,0.000000,0.000000,0.147378,0,0,0,0,0,0,0
3,39999,72,30000,75,0,40,9999,0.100000,0,0,0.000000,5,0.000000,0.000000,2.062185,0,0,0,0,0,0,0
3,39999,73,30000,0,0,40,9999,0.100000,0,0,0.000000,5,0.000000,0.000000,4.935030,0,0,0,0,0,0,0
3,39999,74,30000,96,0,40,9999,0.100000,0,0,0.000000,5,0.000000,0.000000,0.227014,0,0,0,0,0,0,0
3,39999,75,30000,0,0,40,9999,0.100000,0,0,0.000000,5,0.000000,0.000000,0.853833,0,0,0,0,0,0,0
3,39999,76,30000,0,0,40,9999,0.100000,0,0,0.000000,5,0.000000,0.000000,0.830993,0,0,0,0,0,0,0
3,39999,77,30000,0,0,40,9999,0.100000,0,0,0.000000,5,0.000000,0.000000,0.140371,0,0,0,0,0,0,0
3,39999,78,30000,0,0,40,9999,0.100000,0,0,0.000000,5,0.000000,0.000000,1.831137,0,0,0,0,0,0,0
3,39999,79,30000,96,0,40,9999,0.100000,0,0,0.000000,5,0.000000,0.000000,0.095685,0,0,0,0,0,0,0
3,39999,80,30000,75,0,40,9999,0.100000,0,0,0.000000,5,0.000000,0.000000,1.328444,0,0,0,0,0,0,0
3,39999,81,30000,0,0,40,9999,0.100000,0,0,0.000000,5,0.000000,0.000000,0.160469,0,0,0,0,0,0,0
3,39999,82,30000,75,10000,40,9999,0.100000,0,0,0.000000,5,0.000000,0.000000,1.384058,0,0,0,0,0,0,0
3,39999,83,30000,0,0,49,9999,0.100000,0,0,0.000000,5,1.000000,0.000000,14.662788,0,0,0,0,0,0,0
3,39999,84,30000,75,0,40,9999,0.100000,0,0,0.000000,5,0.000000,0.000000,22.623007,0,0,0,0,0,0,0
3,39999,85,30000,0,0,40,9999,0.100000,0,0,0.000000,5,0.000000,0.000000,2.067907,0,0,0,0,0,0,0
3,39999,86,30000,75,10000,40,9999,0.100000,0,0,0.000000,5,0.000000,0.000000,1.821658,0,0,0,0,0,0,0
3,39999,87,30000,75,0,40,9999,0.100000,0,0,0.000000,5,0.000000,0.000000,0.207704,0,0,0,0,0,0,0
3,39999,88,30000,75,10000,40,9999,0.100000,0,0,0.000000,5,0.000000,0.000000,0.585225,0,0,0,0,0,0,0
3,39999,89,30000,0,0,49,9999,0.100000,0,0,0.000000,5,4.000000,0.000000,10.067683,0,0,0,0,0,0,0
3,39999,90,30000,96,0,40,9999,0.100000,0,0,0.000000,5,0.000000,0.000000,0.085092,0,0,0,0,0,0,0
3,39999,91,30000,75,0,40,9999,0.135000,0,0,0.000000,5,0.000000,0.000000,0.994424,0,0,0,0,0,0,0
3,39999,92,30000,0,0,40,9999,0.100000,0,0,0.000000,5,0.000000,0.000000,0.916908,0,0,0,0,0,0,0
3,39999,93,30000,75,10000,40,9999,0.100000,0,0,0.000000,5,0.000000,0.000000,0.187401,0,0,0,0,0,0,0
3,39999,94,30000,75,10000,40,9999,0.100000,0,0,0.000000,5,0.000000,0.000000,6.476971,0,0,0,0,0,0,0
3,39999,95,30000,96,0,40,9999,0.100000,0,0,0.000000,5,0.000000,0.000000,0.571196,0,0,0,0,0,0,0
3,39999,96,30000,96,0,40,9999,0.100000,0,0,0.000000,5,0.000000,0.000000,8.424746,0,0,0,0,0,0,0
3,39999,97,30000,75,0,49,9999,0.100000,0,0,0.000000,5,5.000000,0.000000,13.696413,0,0,0,0,0,0,0
3,39999,98,30000,75,10000,40,9999,0.100000,0,0,0.000000,5,0.000000,0.000000,0.286261,0,0,0,0,0,0,0
3,39999,99,30000,75,0,40,9999,0.100000,0,0,0.000000,5,0.000000,0.000000,1.085123,0,0,0,0,0,0,0
4,49999,0,40000,75,10000,49,9999,0.100000,0,0,0.000000,5,1.000000,0.000000,3.260187,0,0,0,0,0,0,0
4,49999,1,40000,13,10000,40,9999,0.100000,0,0,0.000000,5,0.000000,0.000000,1.153493,0,0,0,0,0,0,0
4,49999,2,40000,75,10000,40,9999,0.100000,0,0,0.000000,5,0.000000,0.000000,24.654588,0,0,0,0,0,0,0
4,49999,3,40000,96,0,40,9999,0.100000,0,0,0.000000,5,0.000000,0.000000,0.075829,0,0,0,0,0,0,0
4,49999,4,40000,13,10000,40,9999,0.100000,0,0,0.000000,5,0.000000,0.000000,0.077482,0,0,0,0,0,0,0
4,49999,5,40000,96,0,40,9999,0.100000,0,0,0.000000,5,0.000000,0.000000,8.721761,0,0,0,0,0,0,0
4,49999,6,40000,13,10000,40,9999,0.100000,0,0,0.000000,5,0.000000,0.000000,0.079023,0,0,0,0,0,0,0
4,49999,7,40000,0,0,40,9999,0.100000,0,0,0.000000,5,0.000000,0.000000,0.373238,0,0,0,0,0,0,0
4,49999,8,40000,0,0,40,9999,0.100000,0,0,0.000000,5,0.000000,0.000000,0.071921,0,0,0,0,0,0,0
4,49999,9,40000,27,30000,40,9999,0.100000,0,0,0.000000,5,0.000000,0.000000,0.354937,0,0,0,0,0,0,0
4,49999,10,40000,97,30000,40,9999,0.100000,0,0,0.000000,5,0.000000,0.000000,4.116888,0,0,0,0,0,0,0
4,49999,11,40000,97,30000,40,9999,0.100000,0,0,0.000000,5,0.000000,0.000000,0.775776,0,0,0,0,0,0,0
4,49999,12,40000,97,30000,9,9999,0.100000,0,0,34.210526,5,2.000000,0.000000,17.324704,0,0,0,1,0,0,0
4,49999,13,40000,96,0,40,9999,0.100000,0,0,0.000000,5,0.000000,0.000000,16.137217,0,0,0,0,0,0,0
4,49999,14,40000,75,10000,40,9999,0.100000,0,0,0.000000,5,0.000000,0.000000,0.909074,0,0,0,0,0,0,0
4,49999,15,40000,75,0,40,9999,0.100000,0,0,0.000000,5,0.000000,0.000000,0.809032,0,0,0,0,0,0,0
4,49999,16,40000,96,0,40,9999,0.100000,0,0,0.000000,5,0.000000,0.000000,0.211602,0,0,0,0,0,0,0
4,49999,17,40000,96,0,49,9999,0.100000,0,0,0.000000,5,2.000000,0.000000,9.302784,0,0,0,0,0,0,0
4,49999,18,40000,96,0,40,9999,0.100000,0,0,0.000000,5,0.000000,0.000000,9.717751,0,0,0,0,0,0,0
4,49999,19,40000,75,0,40,9999,0.100000,0,0,0.000000,5,0.000000,0.000000,0.765085,0,0,0,0,0,0,0
4,49999,20,40000,0,0,49,9999,0.100000,0,0,0.000000,5,9.000000,0.000000,26.946076,0,0,0,0,0,0,0
4,49999,21,40000,0,0,40,9999,0.100000,0,0,0.000000,5,0.000000,0.000000,1.612861,0,0,0,0,0,0,0
4,49999,22,40000,13,10000,40,9999,0.100000,0,0,0.000000,5,0.000000,0.000000,0.546021,0,0,0,0,0,0,0
4,49999,23,40000,75,0,40,9999,0.100000,0,0,0.000000,5,0.000000,0.000000,0.668809,0,0,0,0,0,0,0
4,49999,24,40000,0,0,9,9999,0.100000,0,0,34.210526,5,2.000000,0.000000,6.931695,0,0,0,1,0,0,0
4,49999,25,40000,75,10000,40,9999,0.100000,0,0,0.000000,5,0.000000,0.000000,0.177927,0,0,0,0,0,0,0
4,49999,26,40000,75,10000,49,9999,0.100000,0,0,0.000000,5,5.000000,0.000000,6.686503,0,0,0,0,0,0,0
4,49999,27,40000,0,0,49,9999,0.100000,0,0,0.000000,5,1.000000,0.000000,18.868869,0,0,0,0,0,0,0
4,49999,28,40000,27,30000,40,9999,0.100000,0,0,0.000000,5,0.000000,0.000000,0.439343,0,0,0,0,0,0,0
4,49999,29,40000,75,0,40,9999,0.100000,0,0,0.000000,5,0.000000,0.000000,1.615630,0,0,0,0,0,0,0
4,49999,30,40000,13,10000,49,9999,0.100000,0,0,0.000000,5,1.000000,0.000000,6.933930,0,0,0,0,0,0,0
4,49999,31,40000,96,0,40,9999,0.100000,0,0,0.000000,5,0.000000,0.000000,0.089994,0,0,0,0,0,0,0
4,49999,32,40000,96,0,40,9999,0.100000,0,0,0.000000,5,0.000000,0.000000,0.606529,0,0,0,0,0,0,0
4,49999,33,40000,75,10000,40,9999,0.100000,0,0,0.000000,5,0.000000,0.000000,0.308074,0,0,0,0,0,0,0
4,49999,34,40000,0,0,40,9999,0.065000,0,0,0.000000,5,0.000000,0.000000,2.063525,0,0,0,0,0,0,0
4,49999,35,40000,97,30000,40,9999,0.100000,0,0,0.000000,5,0.000000,0.000000,0.272088,0,0,0,0,0,0,0
4,49999,36,40000,13,10000,40,9999,0.100000,0,0,0.000000,5,0.000000,0.000000,0.137098,0,0,0,0,0,0,0
4,49999,37,40000,75,0,49,9999,0.100000,0,0,0.000000,5,4.000000,0.000000,12.073834,0,0,0,0,0,0,0
4,49999,38,40000,0,0,40,9999,0.100000,0,0,0.000000,5,0.000000,0.000000,0.834825,0,0,0,0,0,0,0
4,49999,39,40000,96,0,40,9999,0.100000,0,0,0.000000,5,0.000000,0.000000,23.874727,0,0,0,0,0,0,0
4,49999,40,40000,75,10000,40,9999,0.100000,0,0,0.000000,5,0.000000,0.000000,1.339255,0,0,0,0,0,0,0
4,49999,41,40000,75,10000,40,9999,0.100000,0,0,0.000000,5,0.000000,0.000000,0.557302,0,0,0,0,0,0,0
4,49999,42,40000,13,10000,49,9999,0.100000,0,0,0.000000,5,2.000000,0.000000,5.536290,0,0,0,0,0,0,0
4,49999,43,40000,13,10000,40,9999,0.100000,0,0,0.000000,5,0.000000,0.000000,1.749182,0,0,0,0,0,0,0
4,49999,44,40000,96,0,40,9999,0.100000,0,0,0.000000,5,0.000000,0.000000,2.177236,0,0,0,0,0,0,0
4,49999,45,40000,96,0,40,9999,0.100000,0,0,0.000000,5,0.000000,0.000000,0.929075,0,0,0,0,0,0,0
4,49999,46,40000,0,0,40,9999,0.100000,0,0,0.000000,5,0.000000,0.000000,0.519579,0,0,0,0,0,0,0
4,49999,47,40000,96,0,40,9999,0.100000,0,0,0.000000,5,0.000000,0.000000,0.084254,0,0,0,0,0,0,0
4,49999,48,40000,75,10000,40,9999,0.100000,0,0,0.000000,5,0.000000,0.000000,0.077659,0,0,0,0,0,0,0
4,49999,49,40000,27,30000,40,9999,0.100000,0,0,0.000000,5,0.000000,0.000000,0.190812,0,0,0,0,0,0,0
4,49999,50,40000,13,10000,40,9999,0.100000,0,0,0.000000,5,0.000000,0.000000,0.009542,0,0,0,0,0,0,0
4,49999,51,40000,0,0,40,9999,0.100000,0,0,0.000000,5,0.000000,0.000000,0.448879,0,0,0,0,0,0,0
4,49999,52,40000,13,10000,40,9999,0.100000,0,0,0.000000,5,0.000000,0.000000,0.988703,0,0,0,0,0,0,0
4,49999,53,40000,0,0,40,9999,0.100000,0,0,0.000000,5,0.000000,0.000000,1.558582,0,0,0,0,0,0,0
4,49999,54,40000,13,10000,40,9999,0.100000,0,0,0.000000,5,0.000000,0.000000,0.397744,0,0,0,0,0,0,0
4,49999,55,40000,13,10000,40,9999,0.100000,0,0,0.000000,5,0.000000,0.000000,17.351333,0,0,0,0,0,0,0
4,49999,56,40000,0,0,40,9999,0.100000,0,0,0.000000,5,0.000000,0.000000,6.226576,0,0,0,0,0,0,0
4,49999,57,40000,75,0,40,9999,0.100000,0,0,0.000000,5,0.000000,0.000000,1.390946,0,0,0,0,0,0,0
4,49999,58,40000,96,0,40,9999,0.100000,0,0,0.000000,5,0.000000,0.000000,1.915121,0,0,0,0,0,0,0
4,49999,59,40000,0,0,40,9999,0.100000,0,0,0.000000,5,0.000000,0.000000,0.061554,0,0,0,0,0,0,0
4,49999,60,40000,75,10000,40,9999,0.100000,0,0,0.000000,5,0.000000,0.000000,0.991324,0,0,0,0,0,0,0
4,49999,61,40000,13,10000,40,9999,0.100000,0,0,0.000000,5,0.000000,0.000000,0.124392,0,0,0,0,0,0,0
4,49999,62,40000,13,10000,40,9999,0.100000,0,0,0.000000,5,0.000000,0.000000,0.084124,0,0,0,0,0,0,0
4,49999,63,40000,75,10000,40,9999,0.100000,0,0,0.000000,5,0.000000,0.000000,0.992724,0,0,0,0,0,0,0
4,49999,64,40000,13,10000,40,9999,0.100000,0,0,0.000000,5,0.000000,0.000000,1.261154,0,0,0,0,0,0,0
4,49999,65,40000,75,0,40,9999,0.100000,0,0,0.000000,5,0.000000,0.000000,0.319226,0,0,0,0,0,0,0
4,49999,66,40000,0,0,40,9999,0.100000,0,0,0.000000,5,0.000000,0.000000,0.428675,0,0,0,0,0,0,0
4,49999,67,40000,75,0,40,9999,0.100000,0,0,0.000000,5,0.000000,0.000000,1.010804,0,0,0,0,0,0,0
4,49999,68,40000,96,0,40,9999,0.100000,0,0,0.000000,5,0.000000,0.000000,1.204703,0,0,0,0,0,0,0
4,49999,69,40000,13,10000,40,9999,0.100000,0,0,0.000000,5,0.000000,0.000000,0.468650,0,0,0,0,0,0,0
4,49999,70,40000,96,0,40,9999,0.100000,0,0,0.000000,5,0.000000,0.000000,4.411192,0,0,0,0,0,0,0
4,49999,71,40000,13,10000,40,9999,0.100000,0,0,0.000000,5,0.000000,0.000000,0.151030,0,0,0,0,0,0,0
4,49999,72,40000,75,0,49,9999,0.100000,0,0,0.000000,5,2.000000,0.000000,5.334638,0,0,0,0,0,0,0
4,49999,73,40000,13,10000,49,9999,0.100000,0,0,0.000000,5,5.000000,0.000000,22.592875,0,0,0,0,0,0,0
4,49999,74,40000,96,0,40,9999,0.100000,0,0,0.000000,5,0.000000,0.000000,0.468097,0,0,0,0,0,0,0
4,49999,75,40000,96,0,40,9999,0.100000,0,0,0.000000,5,0.000000,0.000000,1.708965,0,0,0,0,0,0,0
4,49999,76,40000,75,0,40,9999,0.100000,0,0,0.000000,5,0.000000,0.000000,0.163096,0,0,0,0,0,0,0
4,49999,77,40000,75,10000,40,9999,0.100000,0,0,0.000000,5,0.000000,0.000000,0.101780,0,0,0,0,0,0,0
4,49999,78,40000,0,0,40,9999,0.100000,0,0,0.000000,5,0.000000,0.000000,1.307716,0,0,0,0,0,0,0
4,49999,79,40000,75,0,40,9999,0.100000,0,0,0.000000,5,0.000000,0.000000,0.077575,0,0,0,0,0,0,0
4,49999,80,40000,0,0,40,9999,0.100000,0,0,0.000000,5,0.000000,0.000000,0.974661,0,0,0,0,0,0,0
4,49999,81,40000,75,10000,40,9999,0.100000,0,0,0.000000,5,0.000000,0.000000,0.152701,0,0,0,0,0,0,0
4,49999,82,40000,13,10000,40,9999,0.100000,0,0,0.000000,5,0.000000,0.000000,0.980938,0,0,0,0,0,0,0
4,49999,83,40000,75,0,49,9999,0.100000,0,0,0.000000,5,3.000000,0.000000,5.533495,0,0,0,0,0,0,0
4,49999,84,40000,96,0,40,9999,0.100000,0,0,0.000000,5,0.000000,0.000000,22.589058,0,0,0,0,0,0,0
4,49999,85,40000,13,10000,40,9999,0.100000,0,0,0.000000,5,0.000000,0.000000,0.409246,0,0,0,0,0,0,0
4,49999,86,40000,0,0,40,9999,0.100000,0,0,0.000000,5,0.000000,0.000000,0.247118,0,0,0,0,0,0,0
4,49999,87,40000,96,0,40,9999,0.100000,0,0,0.000000,5,0.000000,0.000000,0.236363,0,0,0,0,0,0,0
4,49999,88,40000,0,0,40,9999,0.100000,0,0,0.000000,5,0.000000,0.000000,0.314200,0,0,0,0,0,0,0
4,49999,89,40000,27,30000,40,9999,0.100000,0,0,0.000000,5,0.000000,0.000000,0.265402,0,0,0,0,0,0,0
4,49999,90,40000,75,10000,40,9999,0.100000,0,0,0.000000,5,0.000000,0.000000,0.084959,0,0,0,0,0,0,0
4,49999,91,40000,75,0,40,9999,0.100000,0,0,0.000000,5,0.000000,0.000000,0.662039,0,0,0,0,0,0,0
4,49999,92,40000,27,30000,40,9999,0.100000,0,0,0.000000,5,0.000000,0.000000,0.946570,0,0,0,0,0,0,0
4,49999,93,40000,75,10000,40,9999,0.100000,0,0,0.000000,5,0.000000,0.000000,0.189323,0,0,0,0,0,0,0
4,49999,94,40000,13,10000,40,9999,0.100000,0,0,0.000000,5,0.000000,0.000000,5.972242,0,0,0,0,0,0,0
4,49999,95,40000,75,10000,40,9999,0.100000,0,0,0.000000,5,0.000000,0.000000,0.564573,0,0,0,0,0,0,0
4,49999,96,40000,75,10000,49,9999,0.100000,0,0,0.000000,5,2.000000,0.000000,8.064513,0,0,0,0,0,0,0
4,49999,97,40000,0,0,40,9999,0.100000,0,0,0.000000,5,0.000000,0.000000,1.047448,0,0,0,0,0,0,0
4,49999,98,40000,0,0,40,9999,0.100000,0,0,0.000000,5,0.000000,0.000000,0.207278,0,0,0,0,0,0,0
4,49999,99,40000,96,0,40,9999,0.100000,0,0,0.000000,5,0.000000,0.000000,0.512385,0,0,0,0,0,0,0
5,59999,0,50000,96,0,40,9999,0.100000,0,0,0.000000,5,0.000000,0.000000,0.157013,0,0,0,0,0,0,0
5,59999,1,50000,13,10000,40,9999,0.100000,0,0,0.000000,5,0.000000,0.000000,0.825965,0,0,0,0,0,0,0
5,59999,2,50000,96,0,40,9999,0.100000,0,0,0.000000,5,0.000000,0.000000,24.503354,0,0,0,0,0,0,0
5,59999,3,50000,0,0,40,9999,0.100000,0,0,0.000000,5,0.000000,0.000000,0.102692,0,0,0,0,0,0,0
5,59999,4,50000,13,10000,40,9999,0.100000,0,0,0.000000,5,0.000000,0.000000,0.075662,0,0,0,0,0,0,0
5,59999,5,50000,13,10000,40,9999,0.100000,0,0,0.000000,5,0.000000,0.000000,1.126712,0,0,0,0,0,0,0
5,59999,6,50000,75,10000,40,9999,0.100000,0,0,0.000000,5,0.000000,0.000000,0.079846,0,0,0,0,0,0,0
5,59999,7,50000,27,30000,40,9999,0.100000,0,0,0.000000,5,0.000000,0.000000,0.376120,0,0,0,0,0,0,0
5,59999,8,50000,74,40000,40,9999,0.100000,0,0,0.000000,5,0.000000,0.000000,0.071194,0,0,0,0,0,0,0
5,59999,9,50000,74,40000,40,9999,0.100000,0,0,0.000000,5,0.000000,0.000000,0.143513,0,0,0,0,0,0,0
5,59999,10,50000,13,10000,40,9999,0.100000,0,0,0.000000,5,0.000000,0.000000,5.809197,0,0,0,0,0,0,0
5,59999,11,50000,75,10000,40,9999,0.100000,0,0,0.000000,5,0.000000,0.000000,0.774356,0,0,0,0,0,0,0
5,59999,12,50000,13,10000,49,9999,0.100000,0,0,0.000000,5,1.000000,0.000000,10.176479,0,0,0,0,0,0,0
5,59999,13,50000,13,10000,40,9999,0.100000,0,0,0.000000,5,0.000000,0.000000,8.856108,0,0,0,0,0,0,0
5,59999,14,50000,96,0,40,9999,0.100000,0,0,0.000000,5,0.000000,0.000000,0.274467,0,0,0,0,0,0,0
5,59999,15,50000,0,0,40,9999,0.100000,0,0,0.000000,5,0.000000,0.000000,0.242796,0,0,0,0,0,0,0
5,59999,16,40000,96,0,40,19999,0.100000,0,0,0.000000,5,0.000000,0.000000,0.146539,0,0,0,0,0,0,0
5,59999,17,50000,74,40000,40,9999,0.100000,0,0,0.000000,5,0.000000,0.000000,0.413993,0,0,0,0,0,0,0
5,59999,18,50000,0,0,40,9999,0.100000,0,0,0.000000,5,0.000000,0.000000,24.211079,0,0,0,0,0,0,0
5,59999,19,50000,0,0,40,9999,0.100000,0,0,0.000000,5,0.000000,0.000000,0.775491,0,0,0,0,0,0,0
5,59999,20,50000,27,30000,40,9999,0.100000,0,0,0.000000,5,0.000000,0.000000,0.230282,0,0,0,0,0,0,0
5,59999,21,50000,13,10000,49,9999,0.100000,0,0,0.000000,5,1.000000,0.000000,8.095115,0,0,0,0,0,0,0
5,59999,22,50000,13,10000,40,9999,0.100000,0,0,0.000000,5,0.000000,0.000000,0.472413,0,0,0,0,0,0,0
5,59999,23,50000,13,10000,40,9999,0.100000,0,0,0.000000,5,0.000000,0.000000,0.321382,0,0,0,0,0,0,0
5,59999,24,50000,13,10000,49,9999,0.100000,0,0,0.000000,5,3.000000,0.000000,11.135244,0,0,0,0,0,0,0
5,59999,25,50000,96,0,40,9999,0.100000,0,0,0.000000,5,0.000000,0.000000,0.878724,0,0,0,0,0,0,0
5,59999,26,50000,27,30000,40,9999,0.100000,0,0,0.000000,5,0.000000,0.000000,2.551906,0,0,0,0,0,0,0
5,59999,27,50000,27,30000,49,9999,0.100000,0,0,0.000000,5,1.000000,0.000000,6.837086,0,0,0,0,0,0,0
5,59999,28,50000,0,0,40,9999,0.100000,0,0,0.000000,5,0.000000,0.000000,0.392390,0,0,0,0,0,0,0
5,59999,29,50000,74,40000,40,9999,0.100000,0,0,0.000000,5,0.000000,0.000000,1.334450,0,0,0,0,0,0,0
5,59999,30,50000,96,0,49,9999,0.100000,0,0,0.000000,5,2.000000,0.000000,14.010865,0,0,0,0,0,0,0
5,59999,31,50000,13,10000,40,9999,0.100000,0,0,0.000000,5,0.000000,0.000000,0.794537,0,0,0,0,0,0,0
5,59999,32,50000,27,30000,40,9999,0.100000,0,0,0.000000,5,0.000000,0.000000,0.555911,0,0,0,0,0,0,0
5,59999,33,50000,75,10000,40,9999,0.100000,0,0,0.000000,5,0.000000,0.000000,0.199384,0,0,0,0,0,0,0
5,59999,34,50000,0,0,40,9999,0.100000,0,0,0.000000,5,0.000000,0.000000,0.716955,0,0,0,0,0,0,0
5,59999,35,50000,13,10000,40,9999,0.100000,0,0,0.000000,5,0.000000,0.000000,0.166795,0,0,0,0,0,0,0
5,59999,36,50000,27,30000,40,9999,0.100000,0,0,0.000000,5,0.000000,0.000000,0.162460,0,0,0,0,0,0,0
5,59999,37,50000,27,30000,40,9999,0.100000,0,0,0.000000,5,0.000000,0.000000,0.548699,0,0,0,0,0,0,0
5,59999,38,50000,96,0,40,9999,0.100000,0,0,0.000000,5,0.000000,0.000000,0.546198,0,0,0,0,0,0,0
5,59999,39,50000,13,10000,40,9999,0.100000,0,0,0.000000,5,0.000000,0.000000,23.828809,0,0,0,0,0,0,0
5,59999,40,50000,27,30000,40,9999,0.100000,0,0,0.000000,5,0.000000,0.000000,1.250497,0,0,0,0,0,0,0
5,59999,41,50000,74,40000,40,9999,0.100000,0,0,0.000000,5,0.000000,0.000000,0.405856,0,0,0,0,0,0,0
5,59999,42,50000,74,40000,40,9999,0.100000,0,0,0.000000,5,0.000000,0.000000,0.150897,0,0,0,0,0,0,0
5,59999,43,50000,13,10000,40,9999,0.100000,0,0,0.000000,5,0.000000,0.000000,0.427977,0,0,0,0,0,0,0
5,59999,44,50000,13,10000,40,9999,0.100000,0,0,0.000000,5,0.000000,0.000000,0.323173,0,0,0,0,0,0,0
5,59999,45,50000,0,0,49,9999,0.100000,0,0,0.000000,5,1.000000,0.000000,9.062054,0,0,0,0,0,0,0
5,59999,46,50000,96,0,40,9999,0.100000,0,0,0.000000,5,0.000000,0.000000,0.576190,0,0,0,0,0,0,0
5,59999,47,50000,27,30000,40,9999,0.100000,0,0,0.000000,5,0.000000,0.000000,0.099569,0,0,0,0,0,0,0
5,59999,48,50000,0,0,49,9999,0.100000,0,0,0.000000,5,2.000000,0.000000,5.786144,0,0,0,0,0,0,0
5,59999,49,50000,13,10000,40,9999,0.100000,0,0,0.000000,5,0.000000,0.000000,0.146659,0,0,0,0,0,0,0
5,59999,50,50000,13,10000,40,9999,0.100000,0,0,0.000000,5,0.000000,0.000000,0.009575,0,0,0,0,0,0,0
5,59999,51,50000,96,0,40,9999,0.100000,0,0,0.000000,5,0.000000,0.000000,0.729167,0,0,0,0,0,0,0
5,59999,52,50000,74,40000,40,9999,0.100000,0,0,0.000000,5,0.000000,0.000000,1.011094,0,0,0,0,0,0,0
5,59999,53,50000,13,10000,40,9999,0.100000,0,0,0.000000,5,0.000000,0.000000,1.001440,0,0,0,0,0,0,0
5,59999,54,50000,27,30000,40,9999,0.100000,0,0,0.000000,5,0.000000,0.000000,0.430513,0,0,0,0,0,0,0
5,59999,55,50000,96,0,49,9999,0.100000,0,0,0.000000,5,2.000000,0.000000,17.995747,0,0,0,0,0,0,0
5,59999,56,50000,0,0,40,9999,0.100000,0,0,0.000000,5,0.000000,0.000000,8.411341,0,0,0,0,0,0,0
5,59999,57,50000,74,40000,40,9999,0.100000,0,0,0.000000,5,0.000000,0.000000,1.400103,0,0,0,0,0,0,0
5,59999,58,50000,0,0,40,9999,0.100000,0,0,0.000000,5,0.000000,0.000000,12.219334,0,0,0,0,0,0,0
5,59999,59,50000,27,30000,40,9999,0.100000,0,0,0.000000,5,0.000000,0.000000,0.062281,0,0,0,0,0,0,0
5,59999,60,50000,96,0,40,9999,0.100000,0,0,0.000000,5,0.000000,0.000000,0.920731,0,0,0,0,0,0,0
5,59999,61,50000,27,30000,40,9999,0.135000,0,0,0.000000,5,0.000000,0.000000,0.119623,0,0,0,0,0,0,0
5,59999,62,50000,75,10000,40,9999,0.100000,0,0,0.000000,5,0.000000,0.000000,0.086784,0,0,0,0,0,0,0
5,59999,63,50000,13,10000,40,9999,0.100000,0,0,0.000000,5,0.000000,0.000000,1.030026,0,0,0,0,0,0,0
5,59999,64,50000,96,0,40,9999,0.100000,0,0,0.000000,5,0.000000,0.000000,0.613373,0,0,0,0,0,0,0
5,59999,65,50000,13,10000,40,9999,0.100000,0,0,0.000000,5,0.000000,0.000000,0.304896,0,0,0,0,0,0,0
5,59999,66,50000,74,40000,40,9999,0.100000,0,0,0.000000,5,0.000000,0.000000,0.433932,0,0,0,0,0,0,0
5,59999,67,50000,75,10000,40,9999,0.100000,0,0,0.000000,5,0.000000,0.000000,1.007123,0,0,0,0,0,0,0
5,59999,68,50000,74,40000,40,9999,0.100000,0,0,0.000000,5,0.000000,0.000000,1.268551,0,0,0,0,0,0,0
5,59999,69,50000,0,0,40,9999,0.100000,0,0,0.000000,5,0.000000,0.000000,0.490850,0,0,0,0,0,0,0
5,59999,70,50000,13,10000,40,9999,0.100000,0,0,0.000000,5,0.000000,0.000000,0.099600,0,0,0,0,0,0,0
5,59999,71,50000,96,0,40,9999,0.100000,0,0,0.000000,5,0.000000,0.000000,0.151541,0,0,0,0,0,0,0
5,59999,72,50000,13,10000,40,9999,0.100000,0,0,0.000000,5,0.000000,0.000000,0.570176,0,0,0,0,0,0,0
5,59999,73,50000,75,10000,49,9999,0.100000,0,0,0.000000,5,4.000000,0.000000,12.117421,0,0,0,0,0,0,0
5,59999,74,50000,96,0,40,9999,0.100000,0,0,0.000000,5,0.000000,0.000000,0.148867,0,0,0,0,0,0,0
5,59999,75,50000,96,0,40,9999,0.100000,0,0,0.000000,5,0.000000,0.000000,0.815985,0,0,0,0,0,0,0
5,59999,76,50000,96,0,40,9999,0.100000,0,0,0.000000,5,0.000000,0.000000,0.110658,0,0,0,0,0,0,0
5,59999,77,50000,0,0,40,9999,0.100000,0,0,0.000000,5,0.000000,0.000000,0.156517,0,0,0,0,0,0,0
5,59999,78,50000,13,10000,40,9999,0.100000,0,0,0.000000,5,0.000000,0.000000,2.657076,0,0,0,0,0,0,0
5,59999,79,50000,75,10000,40,9999,0.100000,0,0,0.000000,5,0.000000,0.000000,0.077976,0,0,0,0,0,0,0
5,59999,80,50000,13,10000,40,9999,0.135000,0,0,0.000000,5,0.000000,0.000000,0.139194,0,0,0,0,0,0,0
5,59999,81,50000,27,30000,40,9999,0.100000,0,0,0.000000,5,0.000000,0.000000,0.168567,0,0,0,0,0,0,0
5,59999,82,50000,27,30000,40,9999,0.100000,0,0,0.000000,5,0.000000,0.000000,2.118851,0,0,0,0,0,0,0
5,59999,83,50000,13,10000,40,9999,0.100000,0,0,0.000000,5,0.000000,0.000000,1.581109,0,0,0,0,0,0,0
5,59999,84,50000,75,10000,40,9999,0.100000,0,0,0.000000,5,0.000000,0.000000,23.110930,0,0,0,0,0,0,0
5,59999,85,50000,27,30000,40,9999,0.100000,0,0,0.000000,5,0.000000,0.000000,0.390123,0,0,0,0,0,0,0
5,59999,86,50000,13,10000,40,9999,0.135000,0,0,0.000000,5,0.000000,0.000000,0.143418,0,0,0,0,0,0,0
5,59999,87,50000,74,40000,40,9999,0.100000,0,0,0.000000,5,0.000000,0.000000,0.200628,0,0,0,0,0,0,0
5,59999,88,50000,75,10000,40,9999,0.100000,0,0,0.000000,5,0.000000,0.000000,0.780373,0,0,0,0,0,0,0
5,59999,89,50000,96,0,40,9999,0.100000,0,0,0.000000,5,0.000000,0.000000,0.250664,0,0,0,0,0,0,0
5,59999,90,50000,13,10000,40,9999,0.100000,0,0,0.000000,5,0.000000,0.000000,0.086160,0,0,0,0,0,0,0
5,59999,91,50000,27,30000,40,9999,0.100000,0,0,0.000000,5,0.000000,0.000000,1.186112,0,0,0,0,0,0,0
5,59999,92,50000,27,30000,40,9999,0.100000,0,0,0.000000,5,0.000000,0.000000,0.924819,0,0,0,0,0,0,0
5,59999,93,50000,74,40000,40,9999,0.100000,0,0,0.000000,5,0.000000,0.000000,0.186878,0,0,0,0,0,0,0
5,59999,94,50000,96,0,40,9999,0.100000,0,0,0.000000,5,0.000000,0.000000,5.751416,0,0,0,0,0,0,0
5,59999,95,50000,74,40000,40,9999,0.100000,0,0,0.000000,5,0.000000,0.000000,0.607266,0,0,0,0,0,0,0
5,59999,96,50000,27,30000,40,9999,0.100000,0,0,0.000000,5,0.000000,0.000000,2.932594,0,0,0,0,0,0,0
5,59999,97,50000,0,0,40,9999,0.100000,0,0,0.000000,5,0.000000,0.000000,0.707526,0,0,0,0,0,0,0
5,59999,98,50000,96,0,40,9999,0.100000,0,0,0.000000,5,0.000000,0.000000,0.115337,0,0,0,0,0,0,0
5,59999,99,50000,0,0,40,9999,0.100000,0,0,0.000000,5,0.000000,0.000000,0.061513,0,0,0,0,0,0,0
6,69999,0,60000,27,30000,40,9999,0.100000,0,0,0.000000,5,0.000000,0.000000,0.139071,0,0,0,0,0,0,0
6,69999,1,60000,13,10000,49,9999,0.100000,0,0,0.000000,5,1.000000,0.000000,5.023767,0,0,0,0,0,0,0
6,69999,2,60000,0,0,40,9999,0.100000,0,0,0.000000,5,0.000000,0.000000,13.520435,0,0,0,0,0,0,0
6,69999,3,60000,27,30000,40,9999,0.100000,0,0,0.000000,5,0.000000,0.000000,0.078195,0,0,0,0,0,0,0
6,69999,4,60000,96,0,40,9999,0.100000,0,0,0.000000,5,0.000000,0.000000,0.076519,0,0,0,0,0,0,0
6,69999,5,60000,0,0,40,9999,0.100000,0,0,0.000000,5,0.000000,0.000000,0.630222,0,0,0,0,0,0,0
6,69999,6,60000,96,0,40,9999,0.100000,0,0,0.000000,5,0.000000,0.000000,0.113436,0,0,0,0,0,0,0
6,69999,7,60000,74,40000,40,9999,0.100000,0,0,0.000000,5,0.000000,0.000000,0.404851,0,0,0,0,0,0,0
6,69999,8,60000,27,30000,40,9999,0.100000,0,0,0.000000,5,0.000000,0.000000,0.071374,0,0,0,0,0,0,0
6,69999,9,60000,74,40000,40,9999,0.100000,0,0,0.000000,5,0.000000,0.000000,0.136473,0,0,0,0,0,0,0
6,69999,10,60000,0,0,49,9999,0.100000,0,0,0.000000,5,8.000000,0.000000,22.777782,0,0,0,0,0,0,0
6,69999,11,60000,0,0,40,9999,0.100000,0,0,0.000000,5,0.000000,0.000000,0.084302,0,0,0,0,0,0,0
6,69999,12,60000,74,40000,40,9999,0.100000,0,0,0.000000,5,0.000000,0.000000,17.351824,0,0,0,0,0,0,0
6,69999,13,60000,0,0,40,9999,0.100000,0,0,0.000000,5,0.000000,0.000000,6.211250,0,0,0,0,0,0,0
6,69999,14,60000,13,10000,40,9999,0.100000,0,0,0.000000,5,0.000000,0.000000,0.274428,0,0,0,0,0,0,0
6,69999,15,60000,96,0,40,9999,0.100000,0,0,0.000000,5,0.000000,0.000000,0.190595,0,0,0,0,0,0,0
6,69999,16,60000,0,0,40,9999,0.100000,0,0,0.000000,5,0.000000,0.000000,0.187603,0,0,0,0,0,0,0
6,69999,17,60000,13,10000,40,9999,0.100000,0,0,0.000000,5,0.000000,0.000000,0.390256,0,0,0,0,0,0,0
6,69999,18,60000,74,40000,49,9999,0.100000,0,0,0.000000,5,1.000000,0.000000,24.230938,0,0,0,0,0,0,0
6,69999,19,60000,74,40000,49,9999,0.100000,0,0,0.000000,5,7.000000,0.000000,16.187942,0,0,0,0,0,0,0
6,69999,20,60000,74,40000,40,9999,0.100000,0,0,0.000000,5,0.000000,0.000000,0.201964,0,0,0,0,0,0,0
6,69999,21,60000,27,30000,49,9999,0.100000,0,0,0.000000,5,2.000000,0.000000,8.097537,0,0,0,0,0,0,0
6,69999,22,60000,27,30000,40,9999,0.100000,0,0,0.000000,5,0.000000,0.000000,0.450532,0,0,0,0,0,0,0
6,69999,23,60000,74,40000,40,9999,0.100000,0,0,0.000000,5,0.000000,0.000000,0.095808,0,0,0,0,0,0,0
6,69999,24,60000,27,30000,40,9999,0.100000,0,0,0.000000,5,0.000000,0.000000,6.655497,0,0,0,0,0,0,0
6,69999,25,60000,0,0,40,9999,0.100000,0,0,0.000000,5,0.000000,0.000000,0.734726,0,0,0,0,0,0,0
6,69999,26,60000,13,10000,40,9999,0.100000,0,0,0.000000,5,0.000000,0.000000,0.474155,0,0,0,0,0,0,0
6,69999,27,60000,74,40000,49,9999,0.100000,0,0,0.000000,5,1.000000,0.000000,10.800000,0,0,0,0,0,0,0
6,69999,28,60000,0,0,40,9999,0.100000,0,0,0.000000,5,0.000000,0.000000,0.416825,0,0,0,0,0,0,0
6,69999,29,60000,0,0,40,9999,0.100000,0,0,0.000000,5,0.000000,0.000000,1.300140,0,0,0,0,0,0,0
6,69999,30,60000,96,0,49,9999,0.100000,0,0,0.000000,5,1.000000,0.000000,2.135655,0,0,0,0,0,0,0
6,69999,31,60000,96,0,40,9999,0.100000,0,0,0.000000,5,0.000000,0.000000,1.054038,0,0,0,0,0,0,0
6,69999,32,60000,27,30000,40,9999,0.100000,0,0,0.000000,5,0.000000,0.000000,0.500935,0,0,0,0,0,0,0
6,69999,33,60000,96,0,40,9999,0.100000,0,0,0.000000,5,0.000000,0.000000,0.166518,0,0,0,0,0,0,0
6,69999,34,60000,27,30000,40,9999,0.100000,0,0,0.000000,5,0.000000,0.000000,0.724300,0,0,0,0,0,0,0
6,69999,35,60000,96,0,40,9999,0.100000,0,0,0.000000,5,0.000000,0.000000,0.139480,0,0,0,0,0,0,0
6,69999,36,60000,96,0,40,9999,0.100000,0,0,0.000000,5,0.000000,0.000000,0.136028,0,0,0,0,0,0,0
6,69999,37,60000,0,0,40,9999,0.100000,0,0,0.000000,5,0.000000,0.000000,0.108800,0,0,0,0,0,0,0
6,69999,38,60000,0,0,40,9999,0.100000,0,0,0.000000,5,0.000000,0.000000,0.936112,0,0,0,0,0,0,0
6,69999,39,60000,27,30000,40,9999,0.100000,0,0,0.000000,5,0.000000,0.000000,23.932442,0,0,0,0,0,0,0
6,69999,40,60000,0,0,40,9999,0.100000,0,0,0.000000,5,0.000000,0.000000,1.582717,0,0,0,0,0,0,0
6,69999,41,60000,74,40000,40,9999,0.100000,0,0,0.000000,5,0.000000,0.000000,0.328284,0,0,0,0,0,0,0
6,69999,42,60000,74,40000,40,9999,0.100000,0,0,0.000000,5,0.000000,0.000000,1.788293,0,0,0,0,0,0,0
6,69999,43,60000,74,40000,40,9999,0.100000,0,0,0.000000,5,0.000000,0.000000,0.161665,0,0,0,0,0,0,0
6,69999,44,60000,74,40000,40,9999,0.100000,0,0,0.000000,5,0.000000,0.000000,0.092124,0,0,0,0,0,0,0
6,69999,45,60000,74,40000,40,9999,0.100000,0,0,0.000000,5,0.000000,0.000000,4.345691,0,0,0,0,0,0,0
6,69999,46,60000,13,10000,40,9999,0.100000,0,0,0.000000,5,0.000000,0.000000,0.494017,0,0,0,0,0,0,0
6,69999,47,60000,0,0,40,9999,0.100000,0,0,0.000000,5,0.000000,0.000000,0.414726,0,0,0,0,0,0,0
6,69999,48,60000,13,10000,40,9999,0.100000,0,0,0.000000,5,0.000000,0.000000,0.103866,0,0,0,0,0,0,0
6,69999,49,60000,13,10000,40,9999,0.100000,0,0,0.000000,5,0.000000,0.000000,0.179800,0,0,0,0,0,0,0
6,69999,50,60000,0,0,40,9999,0.100000,0,0,0.000000,5,0.000000,0.000000,0.009487,0,0,0,0,0,0,0
6,69999,51,60000,74,40000,49,9999,0.100000,0,0,0.000000,5,1.000000,0.000000,7.298803,0,0,0,0,0,0,0
6,69999,52,60000,74,40000,40,9999,0.100000,0,0,0.000000,5,0.000000,0.000000,1.089674,0,0,0,0,0,0,0
6,69999,53,60000,0,0,40,9999,0.100000,0,0,0.000000,5,0.000000,0.000000,0.640971,0,0,0,0,0,0,0
6,69999,54,60000,74,40000,40,9999,0.100000,0,0,0.000000,5,0.000000,0.000000,0.406230,0,0,0,0,0,0,0
6,69999,55,60000,13,10000,40,9999,0.100000,0,0,0.000000,5,0.000000,0.000000,22.786800,0,0,0,0,0,0,0
6,69999,56,60000,0,0,40,9999,0.100000,0,0,0.000000,5,0.000000,0.000000,6.530520,0,0,0,0,0,0,0
6,69999,57,60000,0,0,40,9999,0.100000,0,0,0.000000,5,0.000000,0.000000,1.594837,0,0,0,0,0,0,0
6,69999,58,60000,74,40000,40,9999,0.100000,0,0,0.000000,5,0.000000,0.000000,0.083873,0,0,0,0,0,0,0
6,69999,59,60000,74,40000,40,9999,0.100000,0,0,0.000000,5,0.000000,0.000000,0.061523,0,0,0,0,0,0,0
6,69999,60,60000,74,40000,40,9999,0.100000,0,0,0.000000,5,0.000000,0.000000,0.920419,0,0,0,0,0,0,0
6,69999,61,60000,96,0,40,9999,0.100000,0,0,0.000000,5,0.000000,0.000000,0.120987,0,0,0,0,0,0,0
6,69999,62,60000,74,40000,40,9999,0.100000,0,0,0.000000,5,0.000000,0.000000,0.362298,0,0,0,0,0,0,0
6,69999,63,60000,27,30000,40,9999,0.100000,0,0,0.000000,5,0.000000,0.000000,0.989991,0,0,0,0,0,0,0
6,69999,64,60000,27,30000,40,9999,0.100000,0,0,0.000000,5,0.000000,0.000000,0.436002,0,0,0,0,0,0,0
6,69999,65,60000,13,10000,40,9999,0.100000,0,0,0.000000,5,0.000000,0.000000,0.293551,0,0,0,0,0,0,0
6,69999,66,60000,96,0,40,9999,0.100000,0,0,0.000000,5,0.000000,0.000000,0.395722,0,0,0,0,0,0,0
6,69999,67,60000,74,40000,40,9999,0.065000,0,0,0.000000,5,0.000000,0.000000,1.025450,0,0,0,0,0,0,0
6,69999,68,60000,27,30000,40,9999,0.100000,0,0,0.000000,5,0.000000,0.000000,1.176215,0,0,0,0,0,0,0
6,69999,69,60000,74,40000,40,9999,0.100000,0,0,0.000000,5,0.000000,0.000000,0.547277,0,0,0,0,0,0,0
6,69999,70,60000,96,0,40,9999,0.100000,0,0,0.000000,5,0.000000,0.000000,0.098626,0,0,0,0,0,0,0
6,69999,71,60000,96,0,40,9999,0.100000,0,0,0.000000,5,0.000000,0.000000,0.144678,0,0,0,0,0,0,0
6,69999,72,60000,96,0,40,9999,0.100000,0,0,0.000000,5,0.000000,0.000000,0.237533,0,0,0,0,0,0,0
6,69999,73,60000,13,10000,40,9999,0.100000,0,0,0.000000,5,0.000000,0.000000,1.616571,0,0,0,0,0,0,0
6,69999,74,60000,27,30000,40,9999,0.100000,0,0,0.000000,5,0.000000,0.000000,0.118536,0,0,0,0,0,0,0
6,69999,75,60000,27,30000,40,9999,0.100000,0,0,0.000000,5,0.000000,0.000000,0.310538,0,0,0,0,0,0,0
6,69999,76,60000,13,10000,40,9999,0.100000,0,0,0.000000,5,0.000000,0.000000,0.112660,0,0,0,0,0,0,0
6,69999,77,60000,96,0,40,9999,0.100000,0,0,0.000000,5,0.000000,0.000000,0.108280,0,0,0,0,0,0,0
6,69999,78,60000,74,40000,40,9999,0.100000,0,0,0.000000,5,0.000000,0.000000,1.326876,0,0,0,0,0,0,0
6,69999,79,60000,13,10000,40,9999,0.100000,0,0,0.000000,5,0.000000,0.000000,0.079020,0,0,0,0,0,0,0
6,69999,80,60000,0,0,40,9999,0.100000,0,0,0.000000,5,0.000000,0.000000,0.358177,0,0,0,0,0,0,0
6,69999,81,60000,0,0,40,9999,0.100000,0,0,0.000000,5,0.000000,0.000000,0.177371,0,0,0,0,0,0,0
6,69999,82,60000,74,40000,40,9999,0.100000,0,0,0.000000,5,0.000000,0.000000,1.424328,0,0,0,0,0,0,0
6,69999,83,60000,13,10000,40,9999,0.100000,0,0,0.000000,5,0.000000,0.000000,0.813942,0,0,0,0,0,0,0
6,69999,84,60000,13,10000,40,9999,0.100000,0,0,0.000000,5,0.000000,0.000000,7.751157,0,0,0,0,0,0,0
6,69999,85,60000,0,0,40,9999,0.100000,0,0,0.000000,5,0.000000,0.000000,0.433391,0,0,0,0,0,0,0
6,69999,86,60000,13,10000,40,9999,0.100000,0,0,0.000000,5,0.000000,0.000000,0.119331,0,0,0,0,0,0,0
6,69999,87,60000,96,0,40,9999,0.100000,0,0,0.000000,5,0.000000,0.000000,0.195595,0,0,0,0,0,0,0
6,69999,88,60000,74,40000,40,9999,0.100000,0,0,0.000000,5,0.000000,0.000000,0.804412,0,0,0,0,0,0,0
6,69999,89,60000,96,0,40,9999,0.100000,0,0,0.000000,5,0.000000,0.000000,0.277732,0,0,0,0,0,0,0
6,69999,90,60000,74,40000,40,9999,0.100000,0,0,0.000000,5,0.000000,0.000000,0.086395,0,0,0,0,0,0,0
6,69999,91,60000,13,10000,40,9999,0.100000,0,0,0.000000,5,0.000000,0.000000,1.108109,0,0,0,0,0,0,0
6,69999,92,60000,74,40000,40,9999,0.100000,0,0,0.000000,5,0.000000,0.000000,1.128270,0,0,0,0,0,0,0
6,69999,93,60000,13,10000,40,9999,0.100000,0,0,0.000000,5,0.000000,0.000000,0.185999,0,0,0,0,0,0,0
6,69999,94,60000,27,30000,40,9999,0.100000,0,0,0.000000,5,0.000000,0.000000,5.549327,0,0,0,0,0,0,0
6,69999,95,60000,0,0,40,9999,0.100000,0,0,0.000000,5,0.000000,0.000000,0.623781,0,0,0,0,0,0,0
6,69999,96,60000,74,40000,40,9999,0.100000,0,0,0.000000,5,0.000000,0.000000,1.929266,0,0,0,0,0,0,0
6,69999,97,60000,27,30000,40,9999,0.100000,0,0,0.000000,5,0.000000,0.000000,0.565813,0,0,0,0,0,0,0
6,69999,98,60000,74,40000,40,9999,0.100000,0,0,0.000000,5,0.000000,0.000000,0.122878,0,0,0,0,0,0,0
6,69999,99,60000,96,0,40,9999,0.100000,0,0,0.000000,5,0.000000,0.000000,0.059208,0,0,0,0,0,0,0
7,79999,0,70000,0,0,40,9999,0.100000,0,0,0.000000,5,0.000000,0.000000,0.139380,0,0,0,0,0,0,0
7,79999,1,70000,13,10000,40,9999,0.100000,0,0,0.000000,5,0.000000,0.000000,0.841044,0,0,0,0,0,0,0
7,79999,2,70000,96,0,40,9999,0.100000,0,0,0.000000,5,0.000000,0.000000,0.418880,0,0,0,0,0,0,0
7,79999,3,70000,0,0,40,9999,0.100000,0,0,0.000000,5,0.000000,0.000000,0.083340,0,0,0,0,0,0,0
7,79999,4,70000,74,40000,40,9999,0.100000,0,0,0.000000,5,0.000000,0.000000,0.130965,0,0,0,0,0,0,0
7,79999,5,70000,96,0,40,9999,0.100000,0,0,0.000000,5,0.000000,0.000000,0.524675,0,0,0,0,0,0,0
7,79999,6,70000,74,40000,40,9999,0.100000,0,0,0.000000,5,0.000000,0.000000,0.102075,0,0,0,0,0,0,0
7,79999,7,70000,13,10000,40,9999,0.100000,0,0,0.000000,5,0.000000,0.000000,0.424028,0,0,0,0,0,0,0
7,79999,8,70000,27,30000,40,9999,0.100000,0,0,0.000000,5,0.000000,0.000000,0.071368,0,0,0,0,0,0,0
7,79999,9,70000,74,40000,40,9999,0.100000,0,0,0.000000,5,0.000000,0.000000,0.237195,0,0,0,0,0,0,0
7,79999,10,70000,0,0,40,9999,0.135000,0,0,0.000000,5,0.000000,0.000000,6.654216,0,0,0,0,0,0,0
7,79999,11,70000,13,10000,40,9999,0.100000,0,0,0.000000,5,0.000000,0.000000,0.085623,0,0,0,0,0,0,0
7,79999,12,70000,0,0,49,9999,0.100000,0,0,0.000000,5,1.000000,0.000000,6.635667,0,0,0,0,0,0,0
7,79999,13,70000,27,30000,49,9999,0.100000,0,0,0.000000,5,1.000000,0.000000,15.862321,0,0,0,0,0,0,0
7,79999,14,70000,27,30000,40,9999,0.100000,0,0,0.000000,5,0.000000,0.000000,0.269104,0,0,0,0,0,0,0
7,79999,15,70000,13,10000,40,9999,0.100000,0,0,0.000000,5,0.000000,0.000000,0.162252,0,0,0,0,0,0,0
7,79999,16,70000,74,40000,40,9999,0.100000,0,0,0.000000,5,0.000000,0.000000,0.186193,0,0,0,0,0,0,0
7,79999,17,70000,13,10000,40,9999,0.100000,0,0,0.000000,5,0.000000,0.000000,0.372688,0,0,0,0,0,0,0
7,79999,18,70000,13,10000,49,9999,0.100000,0,0,0.000000,5,4.000000,0.000000,12.218087,0,0,0,0,0,0,0
7,79999,19,70000,0,0,40,9999,0.100000,0,0,0.000000,5,0.000000,0.000000,0.744637,0,0,0,0,0,0,0
7,79999,20,70000,96,0,40,9999,0.100000,0,0,0.000000,5,0.000000,0.000000,0.834330,0,0,0,0,0,0,0
7,79999,21,70000,27,30000,40,9999,0.100000,0,0,0.000000,5,0.000000,0.000000,0.987244,0,0,0,0,0,0,0
7,79999,22,70000,74,40000,40,9999,0.100000,0,0,0.000000,5,0.000000,0.000000,1.210454,0,0,0,0,0,0,0
7,79999,23,70000,74,40000,40,9999,0.100000,0,0,0.000000,5,0.000000,0.000000,0.248456,0,0,0,0,0,0,0
7,79999,24,70000,13,10000,49,9999,0.100000,0,0,0.000000,5,4.000000,0.000000,10.022133,0,0,0,0,0,0,0
7,79999,25,70000,96,0,40,9999,0.100000,0,0,0.000000,5,0.000000,0.000000,0.186446,0,0,0,0,0,0,0
7,79999,26,70000,13,10000,40,9999,0.100000,0,0,0.000000,5,0.000000,0.000000,0.607996,0,0,0,0,0,0,0
7,79999,27,70000,0,0,40,9999,0.135000,0,0,0.000000,5,0.000000,0.000000,9.425915,0,0,0,0,0,0,0
7,79999,28,70000,96,0,40,9999,0.100000,0,0,0.000000,5,0.000000,0.000000,0.387829,0,0,0,0,0,0,0
7,79999,29,70000,0,0,40,9999,0.100000,0,0,0.000000,5,0.000000,0.000000,1.234011,0,0,0,0,0,0,0
7,79999,30,70000,13,10000,40,9999,0.100000,0,0,0.000000,5,0.000000,0.000000,0.975137,0,0,0,0,0,0,0
7,79999,31,70000,74,40000,40,9999,0.100000,0,0,0.000000,5,0.000000,0.000000,0.898111,0,0,0,0,0,0,0
7,79999,32,70000,74,40000,40,9999,0.100000,0,0,0.000000,5,0.000000,0.000000,0.676710,0,0,0,0,0,0,0
7,79999,33,70000,27,30000,40,9999,0.100000,0,0,0.000000,5,0.000000,0.000000,0.143246,0,0,0,0,0,0,0
7,79999,34,70000,27,30000,40,9999,0.100000,0,0,0.000000,5,0.000000,0.000000,0.905149,0,0,0,0,0,0,0
7,79999,35,70000,27,30000,40,9999,0.100000,0,0,0.000000,5,0.000000,0.000000,0.116726,0,0,0,0,0,0,0
7,79999,36,70000,96,0,40,9999,0.100000,0,0,0.000000,5,0.000000,0.000000,0.137156,0,0,0,0,0,0,0
7,79999,37,70000,27,30000,40,9999,0.100000,0,0,0.000000,5,0.000000,0.000000,0.135454,0,0,0,0,0,0,0
7,79999,38,70000,96,0,40,9999,0.100000,0,0,0.000000,5,0.000000,0.000000,0.382898,0,0,0,0,0,0,0
7,79999,39,70000,0,0,40,9999,0.100000,0,0,0.000000,5,0.000000,0.000000,23.877106,0,0,0,0,0,0,0
7,79999,40,70000,13,10000,40,9999,0.100000,0,0,0.000000,5,0.000000,0.000000,1.428359,0,0,0,0,0,0,0
7,79999,41,70000,0,0,40,9999,0.100000,0,0,0.000000,5,0.000000,0.000000,0.305743,0,0,0,0,0,0,0
7,79999,42,70000,0,0,40,9999,0.135000,0,0,0.000000,5,0.000000,0.000000,0.525453,0,0,0,0,0,0,0
7,79999,43,70000,74,40000,40,9999,0.100000,0,0,0.000000,5,0.000000,0.000000,0.680018,0,0,0,0,0,0,0
7,79999,44,70000,0,0,40,9999,0.100000,0,0,0.000000,5,0.000000,0.000000,0.253948,0,0,0,0,0,0,0
7,79999,45,70000,27,30000,40,9999,0.100000,0,0,0.000000,5,0.000000,0.000000,2.297273,0,0,0,0,0,0,0
7,79999,46,70000,13,10000,40,9999,0.100000,0,0,0.000000,5,0.000000,0.000000,0.424761,0,0,0,0,0,0,0
7,79999,47,70000,0,0,40,9999,0.100000,0,0,0.000000,5,0.000000,0.000000,0.665700,0,0,0,0,0,0,0
7,79999,48,70000,74,40000,40,9999,0.100000,0,0,0.000000,5,0.000000,0.000000,0.548753,0,0,0,0,0,0,0
7,79999,49,70000,13,10000,40,9999,0.100000,0,0,0.000000,5,0.000000,0.000000,0.170379,0,0,0,0,0,0,0
7,79999,50,70000,0,0,40,9999,0.100000,0,0,0.000000,5,0.000000,0.000000,0.009548,0,0,0,0,0,0,0
7,79999,51,70000,74,40000,49,9999,0.100000,0,0,0.000000,5,3.000000,0.000000,13.317087,0,0,0,0,0,0,0
7,79999,52,70000,96,0,40,9999,0.100000,0,0,0.000000,5,0.000000,0.000000,0.972302,0,0,0,0,0,0,0
7,79999,53,70000,27,30000,40,9999,0.100000,0,0,0.000000,5,0.000000,0.000000,0.279903,0,0,0,0,0,0,0
7,79999,54,70000,96,0,40,9999,0.100000,0,0,0.000000,5,0.000000,0.000000,0.418162,0,0,0,0,0,0,0
7,79999,55,70000,27,30000,40,9999,0.100000,0,0,0.000000,5,0.000000,0.000000,4.095132,0,0,0,0,0,0,0
7,79999,56,70000,13,10000,40,9999,0.100000,0,0,0.000000,5,0.000000,0.000000,5.884619,0,0,0,0,0,0,0
7,79999,57,70000,27,30000,49,9999,0.100000,0,0,0.000000,5,1.000000,0.000000,2.873500,0,0,0,0,0,0,0
7,79999,58,70000,96,0,40,9999,0.100000,0,0,0.000000,5,0.000000,0.000000,0.084888,0,0,0,0,0,0,0
7,79999,59,70000,96,0,40,9999,0.100000,0,0,0.000000,5,0.000000,0.000000,0.086163,0,0,0,0,0,0,0
7,79999,60,70000,13,10000,49,9999,0.100000,0,0,0.000000,5,2.000000,0.000000,8.274178,0,0,0,0,0,0,0
7,79999,61,70000,74,40000,40,9999,0.100000,0,0,0.000000,5,0.000000,0.000000,0.122828,0,0,0,0,0,0,0
7,79999,62,70000,96,0,40,9999,0.100000,0,0,0.000000,5,0.000000,0.000000,0.402322,0,0,0,0,0,0,0
7,79999,63,70000,74,40000,40,9999,0.100000,0,0,0.000000,5,0.000000,0.000000,1.015019,0,0,0,0,0,0,0
7,79999,64,70000,13,10000,40,9999,0.100000,0,0,0.000000,5,0.000000,0.000000,3.310571,0,0,0,0,0,0,0
7,79999,65,70000,27,30000,40,9999,0.100000,0,0,0.000000,5,0.000000,0.000000,0.326659,0,0,0,0,0,0,0
7,79999,66,70000,74,40000,40,9999,0.100000,0,0,0.000000,5,0.000000,0.000000,0.375121,0,0,0,0,0,0,0
7,79999,67,70000,96,0,40,9999,0.100000,0,0,0.000000,5,0.000000,0.000000,0.972887,0,0,0,0,0,0,0
7,79999,68,70000,27,30000,40,9999,0.100000,0,0,0.000000,5,0.000000,0.000000,3.511914,0,0,0,0,0,0,0
7,79999,69,70000,96,0,40,9999,0.100000,0,0,0.000000,5,0.000000,0.000000,0.706898,0,0,0,0,0,0,0
7,79999,70,70000,27,30000,49,9999,0.100000,0,0,0.000000,5,1.000000,0.000000,1.486337,0,0,0,0,0,0,0
7,79999,71,70000,13,10000,40,9999,0.100000,0,0,0.000000,5,0.000000,0.000000,0.196745,0,0,0,0,0,0,0
7,79999,72,70000,96,0,40,9999,0.100000,0,0,0.000000,5,0.000000,0.000000,0.243420,0,0,0,0,0,0,0
7,79999,73,70000,0,0,49,9999,0.100000,0,0,0.000000,5,6.000000,0.000000,19.005538,0,0,0,0,0,0,0
7,79999,74,70000,27,30000,40,9999,0.100000,0,0,0.000000,5,0.000000,0.000000,0.180553,0,0,0,0,0,0,0
7,79999,75,70000,74,40000,40,9999,0.100000,0,0,0.000000,5,0.000000,0.000000,0.298849,0,0,0,0,0,0,0
7,79999,76,70000,27,30000,49,9999,0.100000,0,0,0.000000,5,1.000000,0.000000,1.831721,0,0,0,0,0,0,0
7,79999,77,70000,13,10000,49,9999,0.100000,0,0,0.000000,5,2.000000,0.000000,17.079290,0,0,0,0,0,0,0
7,79999,78,70000,13,10000,40,9999,0.100000,0,0,0.000000,5,0.000000,0.000000,8.717843,0,0,0,0,0,0,0
7,79999,79,70000,96,0,40,9999,0.100000,0,0,0.000000,5,0.000000,0.000000,0.111710,0,0,0,0,0,0,0
7,79999,80,70000,27,30000,40,9999,0.100000,0,0,0.000000,5,0.000000,0.000000,0.389837,0,0,0,0,0,0,0
7,79999,81,70000,0,0,49,9999,0.100000,0,0,0.000000,5,3.000000,0.000000,7.230888,0,0,0,0,0,0,0
7,79999,82,70000,96,0,40,9999,0.100000,0,0,0.000000,5,0.000000,0.000000,0.569183,0,0,0,0,0,0,0
7,79999,83,70000,27,30000,40,9999,0.100000,0,0,0.000000,5,0.000000,0.000000,0.603131,0,0,0,0,0,0,0
7,79999,84,70000,13,10000,40,9999,0.100000,0,0,0.000000,5,0.000000,0.000000,4.167350,0,0,0,0,0,0,0
7,79999,85,70000,27,30000,49,9999,0.135000,0,0,0.000000,5,1.000000,0.000000,1.883232,0,0,0,0,0,0,0
7,79999,86,70000,13,10000,40,9999,0.100000,0,0,0.000000,5,0.000000,0.000000,0.098372,0,0,0,0,0,0,0
7,79999,87,70000,13,10000,40,9999,0.100000,0,0,0.000000,5,0.000000,0.000000,0.197606,0,0,0,0,0,0,0
7,79999,88,70000,74,40000,40,9999,0.100000,0,0,0.000000,5,0.000000,0.000000,0.730523,0,0,0,0,0,0,0
7,79999,89,70000,0,0,40,9999,0.100000,0,0,0.000000,5,0.000000,0.000000,0.242234,0,0,0,0,0,0,0
7,79999,90,70000,0,0,40,9999,0.100000,0,0,0.000000,5,0.000000,0.000000,0.086351,0,0,0,0,0,0,0
7,79999,91,60000,13,10000,40,19999,0.100000,0,0,0.000000,5,0.000000,0.000000,1.651342,0,0,0,0,0,0,0
7,79999,92,70000,13,10000,49,9999,0.100000,0,0,0.000000,5,1.000000,0.000000,1.446260,0,0,0,0,0,0,0
7,79999,93,60000,13,10000,40,19999,0.100000,0,0,0.000000,5,0.000000,0.000000,0.185166,0,0,0,0,0,0,0
7,79999,94,70000,74,40000,49,9999,0.100000,0,0,0.000000,5,1.000000,0.000000,6.048018,0,0,0,0,0,0,0
7,79999,95,70000,74,40000,40,9999,0.100000,0,0,0.000000,5,0.000000,0.000000,0.539587,0,0,0,0,0,0,0
7,79999,96,70000,96,0,40,9999,0.100000,0,0,0.000000,5,0.000000,0.000000,0.119615,0,0,0,0,0,0,0
7,79999,97,70000,0,0,49,9999,0.100000,0,0,0.000000,5,5.000000,0.000000,12.035566,0,0,0,0,0,0,0
7,79999,98,70000,13,10000,49,9999,0.100000,0,0,0.000000,5,1.000000,0.000000,1.745956,0,0,0,0,0,0,0
7,79999,99,70000,13,10000,49,9999,0.100000,0,0,0.000000,5,9.000000,0.000000,18.893167,0,0,0,0,0,0,0
8,89999,0,80000,13,10000,40,9999,0.100000,0,0,0.000000,5,0.000000,0.000000,0.156696,0,0,0,0,0,0,0
8,89999,1,80000,27,30000,40,9999,0.100000,0,0,0.000000,5,0.000000,0.000000,1.695298,0,0,0,0,0,0,0
8,89999,2,80000,13,10000,40,9999,0.100000,0,0,0.000000,5,0.000000,0.000000,0.709112,0,0,0,0,0,0,0
8,89999,3,80000,96,0,40,9999,0.100000,0,0,0.000000,5,0.000000,0.000000,0.122472,0,0,0,0,0,0,0
8,89999,4,80000,0,0,40,9999,0.100000,0,0,0.000000,5,0.000000,0.000000,0.080834,0,0,0,0,0,0,0
8,89999,5,80000,27,30000,40,9999,0.100000,0,0,0.000000,5,0.000000,0.000000,0.864808,0,0,0,0,0,0,0
8,89999,6,80000,74,40000,40,9999,0.100000,0,0,0.000000,5,0.000000,0.000000,0.289440,0,0,0,0,0,0,0
8,89999,7,80000,27,30000,40,9999,0.100000,0,0,0.000000,5,0.000000,0.000000,0.254190,0,0,0,0,0,0,0
8,89999,8,80000,27,30000,40,9999,0.100000,0,0,0.000000,5,0.000000,0.000000,0.071518,0,0,0,0,0,0,0
8,89999,9,80000,0,0,40,9999,0.100000,0,0,0.000000,5,0.000000,0.000000,0.146341,0,0,0,0,0,0,0
8,89999,10,80000,13,10000,40,9999,0.100000,0,0,0.000000,5,0.000000,0.000000,5.717768,0,0,0,0,0,0,0
8,89999,11,80000,96,0,40,9999,0.100000,0,0,0.000000,5,0.000000,0.000000,0.091883,0,0,0,0,0,0,0
8,89999,12,80000,27,30000,49,9999,0.100000,0,0,0.000000,5,3.000000,0.000000,18.173415,0,0,0,0,0,0,0
8,89999,13,80000,0,0,49,9999,0.100000,0,0,0.000000,5,1.000000,0.000000,7.290999,0,0,0,0,0,0,0
8,89999,14,80000,0,0,40,9999,0.100000,0,0,0.000000,5,0.000000,0.000000,0.286872,0,0,0,0,0,0,0
8,89999,15,80000,96,0,40,9999,0.100000,0,0,0.000000,5,0.000000,0.000000,0.190543,0,0,0,0,0,0,0
8,89999,16,80000,27,30000,40,9999,0.100000,0,0,0.000000,5,0.000000,0.000000,0.105589,0,0,0,0,0,0,0
8,89999,17,80000,74,40000,40,9999,0.100000,0,0,0.000000,5,0.000000,0.000000,0.213765,0,0,0,0,0,0,0
8,89999,18,80000,13,10000,40,9999,0.100000,0,0,0.000000,5,0.000000,0.000000,1.291119,0,0,0,0,0,0,0
8,89999,19,80000,27,30000,40,9999,0.100000,0,0,0.000000,5,0.000000,0.000000,1.037396,0,0,0,0,0,0,0
8,89999,20,80000,0,0,40,9999,0.100000,0,0,0.000000,5,0.000000,0.000000,0.388298,0,0,0,0,0,0,0
8,89999,21,80000,13,10000,40,9999,0.100000,0,0,0.000000,5,0.000000,0.000000,0.943282,0,0,0,0,0,0,0
8,89999,22,80000,96,0,40,9999,0.100000,0,0,0.000000,5,0.000000,0.000000,0.371616,0,0,0,0,0,0,0
8,89999,23,80000,96,0,40,9999,0.100000,0,0,0.000000,5,0.000000,0.000000,0.170736,0,0,0,0,0,0,0
8,89999,24,80000,13,10000,49,9999,0.100000,0,0,0.000000,5,3.000000,0.000000,4.156167,0,0,0,0,0,0,0
8,89999,25,80000,13,10000,40,9999,0.100000,0,0,0.000000,5,0.000000,0.000000,0.171223,0,0,0,0,0,0,0
8,89999,26,80000,13,10000,40,9999,0.100000,0,0,0.000000,5,0.000000,0.000000,0.549510,0,0,0,0,0,0,0
8,89999,27,80000,0,0,40,9999,0.100000,0,0,0.000000,5,0.000000,0.000000,7.969476,0,0,0,0,0,0,0
8,89999,28,80000,96,0,40,9999,0.100000,0,0,0.000000,5,0.000000,0.000000,0.292093,0,0,0,0,0,0,0
8,89999,29,80000,96,0,40,9999,0.100000,0,0,0.000000,5,0.000000,0.000000,1.150638,0,0,0,0,0,0,0
8,89999,30,80000,27,30000,40,9999,0.100000,0,0,0.000000,5,0.000000,0.000000,1.056370,0,0,0,0,0,0,0
8,89999,31,80000,96,0,49,9999,0.100000,0,0,0.000000,5,1.000000,0.000000,1.282272,0,0,0,0,0,0,0
8,89999,32,80000,96,0,40,9999,0.100000,0,0,0.000000,5,0.000000,0.000000,0.399373,0,0,0,0,0,0,0
8,89999,33,80000,0,0,40,9999,0.100000,0,0,0.000000,5,0.000000,0.000000,0.160803,0,0,0,0,0,0,0
8,89999,34,80000,96,0,40,9999,0.100000,0,0,0.000000,5,0.000000,0.000000,2.096276,0,0,0,0,0,0,0
8,89999,35,80000,27,30000,40,9999,0.100000,0,0,0.000000,5,0.000000,0.000000,0.137411,0,0,0,0,0,0,0
8,89999,36,80000,27,30000,40,9999,0.100000,0,0,0.000000,5,0.000000,0.000000,0.999097,0,0,0,0,0,0,0
8,89999,37,80000,0,0,40,9999,0.100000,0,0,0.000000,5,0.000000,0.000000,0.472097,0,0,0,0,0,0,0
8,89999,38,80000,96,0,40,9999,0.100000,0,0,0.000000,5,0.000000,0.000000,0.229964,0,0,0,0,0,0,0
8,89999,39,80000,27,30000,40,9999,0.065000,0,0,0.000000,5,0.000000,0.000000,23.901672,0,0,0,0,0,0,0
8,89999,40,80000,13,10000,40,9999,0.100000,0,0,0.000000,5,0.000000,0.000000,1.819337,0,0,0,0,0,0,0
8,89999,41,80000,74,40000,40,9999,0.100000,0,0,0.000000,5,0.000000,0.000000,4.270166,0,0,0,0,0,0,0
8,89999,42,80000,0,0,40,9999,0.100000,0,0,0.000000,5,0.000000,0.000000,0.757004,0,0,0,0,0,0,0
8,89999,43,80000,0,0,40,9999,0.100000,0,0,0.000000,5,0.000000,0.000000,0.459235,0,0,0,0,0,0,0
8,89999,44,80000,96,0,40,9999,0.100000,0,0,0.000000,5,0.000000,0.000000,0.148227,0,0,0,0,0,0,0
8,89999,45,80000,0,0,40,9999,0.100000,0,0,0.000000,5,0.000000,0.000000,4.012614,0,0,0,0,0,0,0
8,89999,46,80000,27,30000,40,9999,0.100000,0,0,0.000000,5,0.000000,0.000000,0.629108,0,0,0,0,0,0,0
8,89999,47,80000,0,0,40,9999,0.100000,0,0,0.000000,5,0.000000,0.000000,0.816671,0,0,0,0,0,0,0
8,89999,48,80000,27,30000,40,9999,0.100000,0,0,0.000000,5,0.000000,0.000000,1.117264,0,0,0,0,0,0,0
8,89999,49,80000,74,40000,40,9999,0.100000,0,0,0.000000,5,0.000000,0.000000,0.112092,0,0,0,0,0,0,0
8,89999,50,80000,0,0,40,9999,0.100000,0,0,0.000000,5,0.000000,0.000000,0.009570,0,0,0,0,0,0,0
8,89999,51,80000,27,30000,40,9999,0.100000,0,0,0.000000,5,0.000000,0.000000,0.135026,0,0,0,0,0,0,0
8,89999,52,80000,74,40000,49,9999,0.100000,0,0,0.000000,5,3.000000,0.000000,4.754264,0,0,0,0,0,0,0
8,89999,53,80000,13,10000,40,9999,0.100000,0,0,0.000000,5,0.000000,0.000000,0.244879,0,0,0,0,0,0,0
8,89999,54,80000,13,10000,40,9999,0.100000,0,0,0.000000,5,0.000000,0.000000,0.587579,0,0,0,0,0,0,0
8,89999,55,80000,13,10000,40,9999,0.100000,0,0,0.000000,5,0.000000,0.000000,0.116670,0,0,0,0,0,0,0
8,89999,56,80000,27,30000,40,9999,0.100000,0,0,0.000000,5,0.000000,0.000000,6.730446,0,0,0,0,0,0,0
8,89999,57,80000,13,10000,49,9999,0.100000,0,0,0.000000,5,1.000000,0.000000,3.333652,0,0,0,0,0,0,0
8,89999,58,80000,0,0,40,9999,0.100000,0,0,0.000000,5,0.000000,0.000000,0.572804,0,0,0,0,0,0,0
8,89999,59,80000,74,40000,40,9999,0.100000,0,0,0.000000,5,0.000000,0.000000,0.084669,0,0,0,0,0,0,0
8,89999,60,80000,74,40000,49,9999,0.100000,0,0,0.000000,5,1.000000,0.000000,11.750503,0,0,0,0,0,0,0
8,89999,61,80000,27,30000,40,9999,0.100000,0,0,0.000000,5,0.000000,0.000000,0.107819,0,0,0,0,0,0,0
8,89999,62,80000,0,0,40,9999,0.100000,0,0,0.000000,5,0.000000,0.000000,0.426999,0,0,0,0,0,0,0
8,89999,63,80000,74,40000,40,9999,0.100000,0,0,0.000000,5,0.000000,0.000000,1.006345,0,0,0,0,0,0,0
8,89999,64,80000,96,0,40,9999,0.100000,0,0,0.000000,5,0.000000,0.000000,0.244095,0,0,0,0,0,0,0
8,89999,65,80000,96,0,40,9999,0.100000,0,0,0.000000,5,0.000000,0.000000,0.369357,0,0,0,0,0,0,0
8,89999,66,80000,13,10000,40,9999,0.100000,0,0,0.000000,5,0.000000,0.000000,0.387715,0,0,0,0,0,0,0
8,89999,67,80000,13,10000,40,9999,0.100000,0,0,0.000000,5,0.000000,0.000000,0.977683,0,0,0,0,0,0,0
8,89999,68,80000,96,0,40,9999,0.100000,0,0,0.000000,5,0.000000,0.000000,1.207357,0,0,0,0,0,0,0
8,89999,69,80000,96,0,40,9999,0.100000,0,0,0.000000,5,0.000000,0.000000,0.636260,0,0,0,0,0,0,0
8,89999,70,80000,13,10000,49,9999,0.100000,0,0,0.000000,5,2.000000,0.000000,6.183662,0,0,0,0,0,0,0
8,89999,71,80000,74,40000,40,9999,0.100000,0,0,0.000000,5,0.000000,0.000000,0.824769,0,0,0,0,0,0,0
8,89999,72,80000,96,0,40,9999,0.100000,0,0,0.000000,5,0.000000,0.000000,0.237010,0,0,0,0,0,0,0
8,89999,73,80000,0,0,49,9999,0.100000,0,0,0.000000,5,1.000000,0.000000,1.476618,0,0,0,0,0,0,0
8,89999,74,80000,27,30000,40,9999,0.100000,0,0,0.000000,5,0.000000,0.000000,0.295412,0,0,0,0,0,0,0
8,89999,75,80000,27,30000,40,9999,0.100000,0,0,0.000000,5,0.000000,0.000000,0.313575,0,0,0,0,0,0,0
8,89999,76,80000,96,0,49,9999,0.100000,0,0,0.000000,5,1.000000,0.000000,6.231755,0,0,0,0,0,0,0
8,89999,77,80000,13,10000,40,9999,0.100000,0,0,0.000000,5,0.000000,0.000000,0.131732,0,0,0,0,0,0,0
8,89999,78,80000,74,40000,40,9999,0.100000,0,0,0.000000,5,0.000000,0.000000,0.125306,0,0,0,0,0,0,0
8,89999,79,80000,96,0,40,9999,0.100000,0,0,0.000000,5,0.000000,0.000000,0.264867,0,0,0,0,0,0,0
8,89999,80,80000,27,30000,40,9999,0.100000,0,0,0.000000,5,0.000000,0.000000,0.454002,0,0,0,0,0,0,0
8,89999,81,80000,74,40000,40,9999,0.100000,0,0,0.000000,5,0.000000,0.000000,0.393286,0,0,0,0,0,0,0
8,89999,82,80000,13,10000,40,9999,0.100000,0,0,0.000000,5,0.000000,0.000000,0.508286,0,0,0,0,0,0,0
8,89999,83,80000,74,40000,40,9999,0.100000,0,0,0.000000,5,0.000000,0.000000,0.362973,0,0,0,0,0,0,0
8,89999,84,80000,96,0,40,9999,0.100000,0,0,0.000000,5,0.000000,0.000000,1.499772,0,0,0,0,0,0,0
8,89999,85,80000,27,30000,49,9999,0.100000,0,0,0.000000,5,1.000000,0.000000,4.339195,0,0,0,0,0,0,0
8,89999,86,80000,0,0,40,9999,0.100000,0,0,0.000000,5,0.000000,0.000000,0.116305,0,0,0,0,0,0,0
8,89999,87,80000,27,30000,40,9999,0.100000,0,0,0.000000,5,0.000000,0.000000,0.089224,0,0,0,0,0,0,0
8,89999,88,80000,13,10000,40,9999,0.100000,0,0,0.000000,5,0.000000,0.000000,0.236001,0,0,0,0,0,0,0
8,89999,89,80000,96,0,40,9999,0.100000,0,0,0.000000,5,0.000000,0.000000,0.145274,0,0,0,0,0,0,0
8,89999,90,80000,0,0,40,9999,0.100000,0,0,0.000000,5,0.000000,0.000000,0.085945,0,0,0,0,0,0,0
8,89999,91,80000,74,40000,40,9999,0.100000,0,0,0.000000,5,0.000000,0.000000,1.561754,0,0,0,0,0,0,0
8,89999,92,80000,13,10000,40,9999,0.100000,0,0,0.000000,5,0.000000,0.000000,0.149164,0,0,0,0,0,0,0
8,89999,93,80000,74,40000,40,9999,0.100000,0,0,0.000000,5,0.000000,0.000000,0.132124,0,0,0,0,0,0,0
8,89999,94,80000,96,0,40,9999,0.100000,0,0,0.000000,5,0.000000,0.000000,6.394167,0,0,0,0,0,0,0
8,89999,95,80000,0,0,40,9999,0.100000,0,0,0.000000,5,0.000000,0.000000,0.555131,0,0,0,0,0,0,0
8,89999,96,80000,96,0,40,9999,0.100000,0,0,0.000000,5,0.000000,0.000000,0.116876,0,0,0,0,0,0,0
8,89999,97,80000,27,30000,40,9999,0.100000,0,0,0.000000,5,0.000000,0.000000,0.162486,0,0,0,0,0,0,0
8,89999,98,80000,27,30000,49,9999,0.100000,0,0,0.000000,5,1.000000,0.000000,5.779773,0,0,0,0,0,0,0
8,89999,99,80000,13,10000,40,9999,0.100000,0,0,0.000000,5,0.000000,0.000000,0.155700,0,0,0,0,0,0,0
9,99999,0,90000,27,30000,40,9999,0.100000,0,0,0.000000,5,0.000000,0.000000,0.157383,0,0,0,0,0,0,0
9,99999,1,90000,0,0,40,9999,0.100000,0,0,0.000000,5,0.000000,0.000000,0.718311,0,0,0,0,0,0,0
9,99999,2,90000,0,0,40,9999,0.100000,0,0,0.000000,5,0.000000,0.000000,0.727845,0,0,0,0,0,0,0
9,99999,3,90000,0,0,40,9999,0.100000,0,0,0.000000,5,0.000000,0.000000,0.084054,0,0,0,0,0,0,0
9,99999,4,90000,96,0,40,9999,0.100000,0,0,0.000000,5,0.000000,0.000000,0.089688,0,0,0,0,0,0,0
9,99999,5,90000,27,30000,40,9999,0.100000,0,0,0.000000,5,0.000000,0.000000,0.525569,0,0,0,0,0,0,0
9,99999,6,90000,74,40000,40,9999,0.100000,0,0,0.000000,5,0.000000,0.000000,0.264290,0,0,0,0,0,0,0
9,99999,7,90000,74,40000,40,9999,0.100000,0,0,0.000000,5,0.000000,0.000000,0.143942,0,0,0,0,0,0,0
9,99999,8,90000,13,10000,40,9999,0.100000,0,0,0.000000,5,0.000000,0.000000,0.070925,0,0,0,0,0,0,0
9,99999,9,90000,13,10000,40,9999,0.100000,0,0,0.000000,5,0.000000,0.000000,0.121138,0,0,0,0,0,0,0
9,99999,10,90000,0,0,40,9999,0.100000,0,0,0.000000,5,0.000000,0.000000,7.224729,0,0,0,0,0,0,0
9,99999,11,90000,13,10000,40,9999,0.100000,0,0,0.000000,5,0.000000,0.000000,0.429326,0,0,0,0,0,0,0
9,99999,12,90000,0,0,49,9999,0.100000,0,0,0.000000,5,1.000000,0.000000,8.841702,0,0,0,0,0,0,0
9,99999,13,90000,96,0,49,9999,0.100000,0,0,0.000000,5,4.000000,0.000000,15.385236,0,0,0,0,0,0,0
9,99999,14,90000,96,0,40,9999,0.100000,0,0,0.000000,5,0.000000,0.000000,0.309079,0,0,0,0,0,0,0
9,99999,15,90000,74,40000,40,9999,0.100000,0,0,0.000000,5,0.000000,0.000000,0.164604,0,0,0,0,0,0,0
9,99999,16,90000,96,0,40,9999,0.100000,0,0,0.000000,5,0.000000,0.000000,0.073140,0,0,0,0,0,0,0
9,99999,17,90000,27,30000,40,9999,0.100000,0,0,0.000000,5,0.000000,0.000000,0.532241,0,0,0,0,0,0,0
9,99999,18,90000,96,0,40,9999,0.100000,0,0,0.000000,5,0.000000,0.000000,0.867411,0,0,0,0,0,0,0
9,99999,19,90000,13,10000,40,9999,0.100000,0,0,0.000000,5,0.000000,0.000000,0.270136,0,0,0,0,0,0,0
9,99999,20,90000,27,30000,40,9999,0.100000,0,0,0.000000,5,0.000000,0.000000,0.406036,0,0,0,0,0,0,0
9,99999,21,90000,13,10000,40,9999,0.100000,0,0,0.000000,5,0.000000,0.000000,0.930857,0,0,0,0,0,0,0
9,99999,22,90000,27,30000,40,9999,0.100000,0,0,0.000000,5,0.000000,0.000000,0.428830,0,0,0,0,0,0,0
9,99999,23,90000,74,40000,40,9999,0.100000,0,0,0.000000,5,0.000000,0.000000,0.202035,0,0,0,0,0,0,0
9,99999,24,90000,0,0,40,9999,0.100000,0,0,0.000000,5,0.000000,0.000000,0.224972,0,0,0,0,0,0,0
9,99999,25,90000,13,10000,40,9999,0.100000,0,0,0.000000,5,0.000000,0.000000,0.177460,0,0,0,0,0,0,0
9,99999,26,90000,96,0,40,9999,0.100000,0,0,0.000000,5,0.000000,0.000000,0.579076,0,0,0,0,0,0,0
9,99999,27,90000,13,10000,40,9999,0.100000,0,0,0.000000,5,0.000000,0.000000,8.603401,0,0,0,0,0,0,0
9,99999,28,90000,96,0,40,9999,0.100000,0,0,0.000000,5,0.000000,0.000000,0.275917,0,0,0,0,0,0,0
9,99999,29,90000,13,10000,40,9999,0.100000,0,0,0.000000,5,0.000000,0.000000,0.085007,0,0,0,0,0,0,0
9,99999,30,90000,74,40000,40,9999,0.100000,0,0,0.000000,5,0.000000,0.000000,1.087738,0,0,0,0,0,0,0
9,99999,31,90000,96,0,40,9999,0.100000,0,0,0.000000,5,0.000000,0.000000,0.744777,0,0,0,0,0,0,0
9,99999,32,80000,96,0,40,19999,0.100000,0,0,0.000000,5,0.000000,0.000000,0.497365,0,0,0,0,0,0,0
9,99999,33,90000,27,30000,40,9999,0.100000,0,0,0.000000,5,0.000000,0.000000,0.150848,0,0,0,0,0,0,0
9,99999,34,90000,74,40000,49,9999,0.100000,0,0,0.000000,5,1.000000,0.000000,4.302237,0,0,0,0,0,0,0
9,99999,35,90000,0,0,40,9999,0.100000,0,0,0.000000,5,0.000000,0.000000,0.131496,0,0,0,0,0,0,0
9,99999,36,90000,0,0,40,9999,0.100000,0,0,0.000000,5,0.000000,0.000000,4.123415,0,0,0,0,0,0,0
9,99999,37,90000,13,10000,40,9999,0.100000,0,0,0.000000,5,0.000000,0.000000,0.475137,0,0,0,0,0,0,0
9,99999,38,90000,13,10000,40,9999,0.100000,0,0,0.000000,5,0.000000,0.000000,0.189848,0,0,0,0,0,0,0
9,99999,39,90000,27,30000,40,9999,0.100000,0,0,0.000000,5,0.000000,0.000000,23.872232,0,0,0,0,0,0,0
9,99999,40,90000,74,40000,40,9999,0.100000,0,0,0.000000,5,0.000000,0.000000,0.130369,0,0,0,0,0,0,0
9,99999,41,90000,13,10000,40,9999,0.100000,0,0,0.000000,5,0.000000,0.000000,1.079417,0,0,0,0,0,0,0
9,99999,42,90000,13,10000,40,9999,0.100000,0,0,0.000000,5,0.000000,0.000000,0.786348,0,0,0,0,0,0,0
9,99999,43,90000,74,40000,40,9999,0.100000,0,0,0.000000,5,0.000000,0.000000,0.278026,0,0,0,0,0,0,0
9,99999,44,90000,0,0,40,9999,0.100000,0,0,0.000000,5,0.000000,0.000000,0.129117,0,0,0,0,0,0,0
9,99999,45,90000,13,10000,40,9999,0.100000,0,0,0.000000,5,0.000000,0.000000,0.377545,0,0,0,0,0,0,0
9,99999,46,90000,13,10000,40,9999,0.100000,0,0,0.000000,5,0.000000,0.000000,0.727330,0,0,0,0,0,0,0
9,99999,47,90000,96,0,40,9999,0.100000,0,0,0.000000,5,0.000000,0.000000,0.529699,0,0,0,0,0,0,0
9,99999,48,90000,13,10000,40,9999,0.100000,0,0,0.000000,5,0.000000,0.000000,0.439372,0,0,0,0,0,0,0
9,99999,49,90000,96,0,40,9999,0.100000,0,0,0.000000,5,0.000000,0.000000,0.089603,0,0,0,0,0,0,0
9,99999,50,90000,96,0,40,9999,0.100000,0,0,0.000000,5,0.000000,0.000000,0.009495,0,0,0,0,0,0,0
9,99999,51,90000,74,40000,40,9999,0.100000,0,0,0.000000,5,0.000000,0.000000,0.129958,0,0,0,0,0,0,0
9,99999,52,90000,13,10000,40,9999,0.100000,0,0,0.000000,5,0.000000,0.000000,0.241498,0,0,0,0,0,0,0
9,99999,53,90000,74,40000,40,9999,0.100000,0,0,0.000000,5,0.000000,0.000000,0.265052,0,0,0,0,0,0,0
9,99999,54,80000,13,10000,40,19999,0.100000,0,0,0.000000,5,0.000000,0.000000,0.488447,0,0,0,0,0,0,0
9,99999,55,90000,96,0,40,9999,0.100000,0,0,0.000000,5,0.000000,0.000000,0.311672,0,0,0,0,0,0,0
9,99999,56,90000,27,30000,40,9999,0.100000,0,0,0.000000,5,0.000000,0.000000,7.907710,0,0,0,0,0,0,0
9,99999,57,90000,27,30000,49,9999,0.100000,0,0,0.000000,5,3.000000,0.000000,10.161369,0,0,0,0,0,0,0
9,99999,58,90000,0,0,40,9999,0.100000,0,0,0.000000,5,0.000000,0.000000,0.833553,0,0,0,0,0,0,0
9,99999,59,90000,96,0,40,9999,0.100000,0,0,0.000000,5,0.000000,0.000000,0.083019,0,0,0,0,0,0,0
9,99999,60,90000,27,30000,49,9999,0.100000,0,0,0.000000,5,10.000000,0.000000,20.103108,0,0,0,0,0,0,0
9,99999,61,90000,74,40000,40,9999,0.100000,0,0,0.000000,5,0.000000,0.000000,0.114080,0,0,0,0,0,0,0
9,99999,62,90000,74,40000,40,9999,0.100000,0,0,0.000000,5,0.000000,0.000000,0.371852,0,0,0,0,0,0,0
9,99999,63,90000,74,40000,40,9999,0.100000,0,0,0.000000,5,0.000000,0.000000,1.020720,0,0,0,0,0,0,0
9,99999,64,90000,0,0,40,9999,0.100000,0,0,0.000000,5,0.000000,0.000000,0.248798,0,0,0,0,0,0,0
9,99999,65,90000,0,0,40,9999,0.100000,0,0,0.000000,5,0.000000,0.000000,0.338187,0,0,0,0,0,0,0
9,99999,66,90000,0,0,40,9999,0.100000,0,0,0.000000,5,0.000000,0.000000,0.322751,0,0,0,0,0,0,0
9,99999,67,90000,96,0,40,9999,0.100000,0,0,0.000000,5,0.000000,0.000000,0.919569,0,0,0,0,0,0,0
9,99999,68,90000,27,30000,40,9999,0.100000,0,0,0.000000,5,0.000000,0.000000,1.072194,0,0,0,0,0,0,0
9,99999,69,90000,27,30000,49,9999,0.100000,0,0,0.000000,5,1.000000,0.000000,1.637334,0,0,0,0,0,0,0
9,99999,70,90000,96,0,40,9999,0.100000,0,0,0.000000,5,0.000000,0.000000,0.679244,0,0,0,0,0,0,0
9,99999,71,90000,96,0,40,9999,0.100000,0,0,0.000000,5,0.000000,0.000000,0.702599,0,0,0,0,0,0,0
9,99999,72,90000,0,0,40,9999,0.100000,0,0,0.000000,5,0.000000,0.000000,0.226362,0,0,0,0,0,0,0
9,99999,73,90000,27,30000,49,9999,0.100000,0,0,0.000000,5,7.000000,0.000000,15.615316,0,0,0,0,0,0,0
9,99999,74,90000,0,0,40,9999,0.100000,0,0,0.000000,5,0.000000,0.000000,0.244640,0,0,0,0,0,0,0
9,99999,75,90000,27,30000,40,9999,0.100000,0,0,0.000000,5,0.000000,0.000000,0.293435,0,0,0,0,0,0,0
9,99999,76,90000,0,0,40,9999,0.100000,0,0,0.000000,5,0.000000,0.000000,5.303055,0,0,0,0,0,0,0
9,99999,77,90000,0,0,40,9999,0.100000,0,0,0.000000,5,0.000000,0.000000,0.115555,0,0,0,0,0,0,0
9,99999,78,90000,0,0,40,9999,0.100000,0,0,0.000000,5,0.000000,0.000000,0.267885,0,0,0,0,0,0,0
9,99999,79,90000,0,0,40,9999,0.100000,0,0,0.000000,5,0.000000,0.000000,0.334810,0,0,0,0,0,0,0
9,99999,80,90000,74,40000,40,9999,0.100000,0,0,0.000000,5,0.000000,0.000000,0.385885,0,0,0,0,0,0,0
9,99999,81,90000,13,10000,40,9999,0.100000,0,0,0.000000,5,0.000000,0.000000,0.351727,0,0,0,0,0,0,0
9,99999,82,90000,96,0,40,9999,0.100000,0,0,0.000000,5,0.000000,0.000000,0.536543,0,0,0,0,0,0,0
9,99999,83,90000,96,0,40,9999,0.100000,0,0,0.000000,5,0.000000,0.000000,1.444578,0,0,0,0,0,0,0
9,99999,84,90000,27,30000,49,9999,0.100000,0,0,0.000000,5,1.000000,0.000000,4.642777,0,0,0,0,0,0,0
9,99999,85,90000,27,30000,49,9999,0.100000,0,0,0.000000,5,1.000000,0.000000,5.177082,0,0,0,0,0,0,0
9,99999,86,90000,74,40000,40,9999,0.100000,0,0,0.000000,5,0.000000,0.000000,0.111146,0,0,0,0,0,0,0
9,99999,87,90000,74,40000,40,9999,0.100000,0,0,0.000000,5,0.000000,0.000000,0.087263,0,0,0,0,0,0,0
9,99999,88,90000,74,40000,40,9999,0.100000,0,0,0.000000,5,0.000000,0.000000,0.203546,0,0,0,0,0,0,0
9,99999,89,90000,27,30000,40,9999,0.100000,0,0,0.000000,5,0.000000,0.000000,0.091669,0,0,0,0,0,0,0
9,99999,90,90000,74,40000,40,9999,0.100000,0,0,0.000000,5,0.000000,0.000000,0.086824,0,0,0,0,0,0,0
9,99999,91,90000,0,0,40,9999,0.100000,0,0,0.000000,5,0.000000,0.000000,1.462982,0,0,0,0,0,0,0
9,99999,92,90000,27,30000,40,9999,0.100000,0,0,0.000000,5,0.000000,0.000000,0.152919,0,0,0,0,0,0,0
9,99999,93,90000,27,30000,40,9999,0.100000,0,0,0.000000,5,0.000000,0.000000,0.133950,0,0,0,0,0,0,0
9,99999,94,90000,13,10000,40,9999,0.100000,0,0,0.000000,5,0.000000,0.000000,6.494900,0,0,0,0,0,0,0
9,99999,95,90000,13,10000,40,9999,0.100000,0,0,0.000000,5,0.000000,0.000000,0.626734,0,0,0,0,0,0,0
9,99999,96,90000,74,40000,40,9999,0.100000,0,0,0.000000,5,0.000000,0.000000,0.110356,0,0,0,0,0,0,0
9,99999,97,90000,74,40000,40,9999,0.100000,0,0,0.000000,5,0.000000,0.000000,0.123576,0,0,0,0,0,0,0
9,99999,98,90000,27,30000,49,9999,0.100000,0,0,0.000000,5,1.000000,0.000000,6.916272,0,0,0,0,0,0,0
9,99999,99,90000,0,0,40,9999,0.100000,0,0,0.000000,5,0.000000,0.000000,0.100432,0,0,0,0,0,0,0
10,109999,0,100000,74,40000,40,9999,0.100000,0,0,0.000000,5,0.000000,0.000000,0.163898,0,0,0,0,0,0,0
10,109999,1,100000,27,30000,40,9999,0.100000,0,0,0.000000,5,0.000000,0.000000,2.628958,0,0,0,0,0,0,0
10,109999,2,100000,96,0,40,9999,0.100000,0,0,0.000000,5,0.000000,0.000000,0.519769,0,0,0,0,0,0,0
10,109999,3,100000,96,0,40,9999,0.100000,0,0,0.000000,5,0.000000,0.000000,0.087963,0,0,0,0,0,0,0
10,109999,4,100000,0,0,40,9999,0.100000,0,0,0.000000,5,0.000000,0.000000,0.093740,0,0,0,0,0,0,0
10,109999,5,100000,27,30000,40,9999,0.100000,0,0,0.000000,5,0.000000,0.000000,0.564977,0,0,0,0,0,0,0
10,109999,6,100000,0,0,40,9999,0.100000,0,0,0.000000,5,0.000000,0.000000,0.085333,0,0,0,0,0,0,0
10,109999,7,100000,96,0,40,9999,0.100000,0,0,0.000000,5,0.000000,0.000000,0.154493,0,0,0,0,0,0,0
10,109999,8,100000,0,0,40,9999,0.100000,0,0,0.000000,5,0.000000,0.000000,0.099005,0,0,0,0,0,0,0
10,109999,9,100000,0,0,40,9999,0.100000,0,0,0.000000,5,0.000000,0.000000,0.119961,0,0,0,0,0,0,0
10,109999,10,100000,96,0,40,9999,0.100000,0,0,0.000000,5,0.000000,0.000000,1.015771,0,0,0,0,0,0,0
10,109999,11,100000,0,0,40,9999,0.100000,0,0,0.000000,5,0.000000,0.000000,0.364542,0,0,0,0,0,0,0
10,109999,12,100000,74,40000,49,9999,0.100000,0,0,0.000000,5,6.000000,0.000000,23.198432,0,0,0,0,0,0,0
10,109999,13,100000,27,30000,40,9999,0.100000,0,0,0.000000,5,0.000000,0.000000,0.491073,0,0,0,0,0,0,0
10,109999,14,100000,74,40000,40,9999,0.100000,0,0,0.000000,5,0.000000,0.000000,0.917592,0,0,0,0,0,0,0
10,109999,15,100000,0,0,40,9999,0.100000,0,0,0.000000,5,0.000000,0.000000,0.163692,0,0,0,0,0,0,0
10,109999,16,100000,96,0,40,9999,0.100000,0,0,0.000000,5,0.000000,0.000000,0.075743,0,0,0,0,0,0,0
10,109999,17,100000,0,0,40,9999,0.100000,0,0,0.000000,5,0.000000,0.000000,0.236379,0,0,0,0,0,0,0
10,109999,18,100000,96,0,40,9999,0.100000,0,0,0.000000,5,0.000000,0.000000,0.256789,0,0,0,0,0,0,0
10,109999,19,100000,0,0,40,9999,0.100000,0,0,0.000000,5,0.000000,0.000000,0.254386,0,0,0,0,0,0,0
10,109999,20,100000,74,40000,40,9999,0.100000,0,0,0.000000,5,0.000000,0.000000,0.228192,0,0,0,0,0,0,0
10,109999,21,100000,0,0,40,9999,0.100000,0,0,0.000000,5,0.000000,0.000000,1.791493,0,0,0,0,0,0,0
10,109999,22,100000,96,0,40,9999,0.100000,0,0,0.000000,5,0.000000,0.000000,0.325938,0,0,0,0,0,0,0
10,109999,23,100000,96,0,40,9999,0.100000,0,0,0.000000,5,0.000000,0.000000,0.154225,0,0,0,0,0,0,0
10,109999,24,100000,96,0,40,9999,0.100000,0,0,0.000000,5,0.000000,0.000000,0.249250,0,0,0,0,0,0,0
10,109999,25,100000,96,0,40,9999,0.100000,0,0,0.000000,5,0.000000,0.000000,0.413855,0,0,0,0,0,0,0
10,109999,26,100000,27,30000,40,9999,0.100000,0,0,0.000000,5,0.000000,0.000000,0.567002,0,0,0,0,0,0,0
10,109999,27,100000,27,30000,49,9999,0.100000,0,0,0.000000,5,2.000000,0.000000,17.289463,0,0,0,0,0,0,0
10,109999,28,100000,0,0,40,9999,0.100000,0,0,0.000000,5,0.000000,0.000000,0.280394,0,0,0,0,0,0,0
10,109999,29,100000,13,10000,40,9999,0.100000,0,0,0.000000,5,0.000000,0.000000,0.085352,0,0,0,0,0,0,0
10,109999,30,100000,27,30000,40,9999,0.100000,0,0,0.000000,5,0.000000,0.000000,0.148188,0,0,0,0,0,0,0
10,109999,31,100000,13,10000,40,9999,0.100000,0,0,0.000000,5,0.000000,0.000000,0.694256,0,0,0,0,0,0,0
10,109999,32,100000,13,10000,40,9999,0.100000,0,0,0.000000,5,0.000000,0.000000,0.857513,0,0,0,0,0,0,0
10,109999,33,100000,0,0,40,9999,0.065000,0,0,0.000000,5,0.000000,0.000000,0.148259,0,0,0,0,0,0,0
10,109999,34,100000,13,10000,40,9999,0.100000,0,0,0.000000,5,0.000000,0.000000,8.943302,0,0,0,0,0,0,0
10,109999,35,100000,27,30000,40,9999,0.100000,0,0,0.000000,5,0.000000,0.000000,0.125940,0,0,0,0,0,0,0
10,109999,36,100000,27,30000,40,9999,0.100000,0,0,0.000000,5,0.000000,0.000000,0.308772,0,0,0,0,0,0,0
10,109999,37,100000,13,10000,40,9999,0.100000,0,0,0.000000,5,0.000000,0.000000,0.493684,0,0,0,0,0,0,0
10,109999,38,100000,96,0,40,9999,0.100000,0,0,0.000000,5,0.000000,0.000000,0.212579,0,0,0,0,0,0,0
10,109999,39,100000,27,30000,40,9999,0.100000,0,0,0.000000,5,0.000000,0.000000,23.856436,0,0,0,0,0,0,0
10,109999,40,100000,96,0,40,9999,0.100000,0,0,0.000000,5,0.000000,0.000000,0.113483,0,0,0,0,0,0,0
10,109999,41,100000,27,30000,40,9999,0.100000,0,0,0.000000,5,0.000000,0.000000,1.046527,0,0,0,0,0,0,0
10,109999,42,100000,74,40000,40,9999,0.100000,0,0,0.000000,5,0.000000,0.000000,0.626310,0,0,0,0,0,0,0
10,109999,43,100000,96,0,40,9999,0.100000,0,0,0.000000,5,0.000000,0.000000,0.307411,0,0,0,0,0,0,0
10,109999,44,100000,0,0,40,9999,0.100000,0,0,0.000000,5,0.000000,0.000000,0.166193,0,0,0,0,0,0,0
10,109999,45,100000,96,0,40,9999,0.100000,0,0,0.000000,5,0.000000,0.000000,0.396909,0,0,0,0,0,0,0
10,109999,46,100000,27,30000,49,9999,0.100000,0,0,0.000000,5,1.000000,0.000000,1.611732,0,0,0,0,0,0,0
10,109999,47,100000,74,40000,40,9999,0.100000,0,0,0.000000,5,0.000000,0.000000,0.850562,0,0,0,0,0,0,0
10,109999,48,100000,96,0,49,9999,0.100000,0,0,0.000000,5,3.000000,0.000000,11.661294,0,0,0,0,0,0,0
10,109999,49,100000,96,0,40,9999,0.065000,0,0,0.000000,5,0.000000,0.000000,0.087651,0,0,0,0,0,0,0
10,109999,50,100000,74,40000,40,9999,0.100000,0,0,0.000000,5,0.000000,0.000000,0.009620,0,0,0,0,0,0,0
10,109999,51,100000,96,0,40,9999,0.100000,0,0,0.000000,5,0.000000,0.000000,0.130763,0,0,0,0,0,0,0
10,109999,52,100000,13,10000,40,9999,0.100000,0,0,0.000000,5,0.000000,0.000000,0.242956,0,0,0,0,0,0,0
10,109999,53,100000,74,40000,40,9999,0.100000,0,0,0.000000,5,0.000000,0.000000,0.276009,0,0,0,0,0,0,0
10,109999,54,100000,96,0,40,9999,0.100000,0,0,0.000000,5,0.000000,0.000000,0.393037,0,0,0,0,0,0,0
10,109999,55,100000,27,30000,40,9999,0.100000,0,0,0.000000,5,0.000000,0.000000,0.104001,0,0,0,0,0,0,0
10,109999,56,100000,74,40000,49,9999,0.100000,0,0,0.000000,5,8.000000,0.000000,22.477809,0,0,0,0,0,0,0
10,109999,57,100000,13,10000,49,9999,0.100000,0,0,0.000000,5,9.000000,0.000000,18.862826,0,0,0,0,0,0,0
10,109999,58,100000,96,0,40,9999,0.100000,0,0,0.000000,5,0.000000,0.000000,0.338280,0,0,0,0,0,0,0
10,109999,59,100000,96,0,40,9999,0.100000,0,0,0.000000,5,0.000000,0.000000,0.081117,0,0,0,0,0,0,0
10,109999,60,100000,96,0,40,9999,0.100000,0,0,0.000000,5,0.000000,0.000000,7.793154,0,0,0,0,0,0,0
10,109999,61,100000,0,0,40,9999,0.100000,0,0,0.000000,5,0.000000,0.000000,0.116677,0,0,0,0,0,0,0
10,109999,62,100000,13,10000,40,9999,0.100000,0,0,0.000000,5,0.000000,0.000000,0.209373,0,0,0,0,0,0,0
10,109999,63,100000,13,10000,40,9999,0.100000,0,0,0.000000,5,0.000000,0.000000,0.960952,0,0,0,0,0,0,0
10,109999,64,100000,74,40000,40,9999,0.100000,0,0,0.000000,5,0.000000,0.000000,0.234687,0,0,0,0,0,0,0
10,109999,65,100000,13,10000,49,9999,0.100000,0,0,0.000000,5,1.000000,0.000000,1.395024,0,0,0,0,0,0,0
10,109999,66,100000,74,40000,40,9999,0.100000,0,0,0.000000,5,0.000000,0.000000,0.336413,0,0,0,0,0,0,0
10,109999,67,100000,13,10000,49,9999,0.100000,0,0,0.000000,5,1.000000,0.000000,7.661682,0,0,0,0,0,0,0
10,109999,68,100000,0,0,40,9999,0.100000,0,0,0.000000,5,0.000000,0.000000,1.085354,0,0,0,0,0,0,0
10,109999,69,100000,96,0,40,9999,0.100000,0,0,0.000000,5,0.000000,0.000000,0.665603,0,0,0,0,0,0,0
10,109999,70,100000,74,40000,40,9999,0.100000,0,0,0.000000,5,0.000000,0.000000,0.225700,0,0,0,0,0,0,0
10,109999,71,100000,27,30000,40,9999,0.100000,0,0,0.000000,5,0.000000,0.000000,0.492824,0,0,0,0,0,0,0
10,109999,72,100000,74,40000,40,9999,0.100000,0,0,0.000000,5,0.000000,0.000000,0.234406,0,0,0,0,0,0,0
10,109999,73,100000,74,40000,40,9999,0.100000,0,0,0.000000,5,0.000000,0.000000,0.624466,0,0,0,0,0,0,0
10,109999,74,100000,74,40000,40,9999,0.100000,0,0,0.000000,5,0.000000,0.000000,0.248820,0,0,0,0,0,0,0
10,109999,75,100000,13,10000,40,9999,0.100000,0,0,0.000000,5,0.000000,0.000000,0.296066,0,0,0,0,0,0,0
10,109999,76,100000,0,0,40,9999,0.100000,0,0,0.000000,5,0.000000,0.000000,7.043429,0,0,0,0,0,0,0
10,109999,77,100000,13,10000,40,9999,0.100000,0,0,0.000000,5,0.000000,0.000000,0.112808,0,0,0,0,0,0,0
10,109999,78,100000,96,0,40,9999,0.100000,0,0,0.000000,5,0.000000,0.000000,0.114042,0,0,0,0,0,0,0
10,109999,79,100000,96,0,40,9999,0.100000,0,0,0.000000,5,0.000000,0.000000,0.313439,0,0,0,0,0,0,0
10,109999,80,100000,74,40000,40,9999,0.100000,0,0,0.000000,5,0.000000,0.000000,0.466575,0,0,0,0,0,0,0
10,109999,81,100000,96,0,40,9999,0.100000,0,0,0.000000,5,0.000000,0.000000,0.334513,0,0,0,0,0,0,0
10,109999,82,100000,96,0,40,9999,0.100000,0,0,0.000000,5,0.000000,0.000000,0.556787,0,0,0,0,0,0,0
10,109999,83,100000,13,10000,40,9999,0.100000,0,0,0.000000,5,0.000000,0.000000,0.510053,0,0,0,0,0,0,0
10,109999,84,100000,96,0,40,9999,0.100000,0,0,0.000000,5,0.000000,0.000000,0.210094,0,0,0,0,0,0,0
10,109999,85,100000,96,0,40,9999,0.100000,0,0,0.000000,5,0.000000,0.000000,0.418733,0,0,0,0,0,0,0
10,109999,86,100000,96,0,40,9999,0.100000,0,0,0.000000,5,0.000000,0.000000,0.111884,0,0,0,0,0,0,0
10,109999,87,100000,27,30000,40,9999,0.100000,0,0,0.000000,5,0.000000,0.000000,0.086823,0,0,0,0,0,0,0
10,109999,88,100000,96,0,40,9999,0.100000,0,0,0.000000,5,0.000000,0.000000,0.194796,0,0,0,0,0,0,0
10,109999,89,100000,96,0,40,9999,0.100000,0,0,0.000000,5,0.000000,0.000000,0.097057,0,0,0,0,0,0,0
10,109999,90,100000,0,0,40,9999,0.100000,0,0,0.000000,5,0.000000,0.000000,0.086713,0,0,0,0,0,0,0
10,109999,91,100000,27,30000,40,9999,0.100000,0,0,0.000000,5,0.000000,0.000000,1.557025,0,0,0,0,0,0,0
10,109999,92,100000,27,30000,40,9999,0.100000,0,0,0.000000,5,0.000000,0.000000,0.152365,0,0,0,0,0,0,0
10,109999,93,100000,74,40000,40,9999,0.100000,0,0,0.000000,5,0.000000,0.000000,0.135976,0,0,0,0,0,0,0
10,109999,94,100000,74,40000,49,9999,0.100000,0,0,0.000000,5,3.000000,0.000000,12.808957,0,0,0,0,0,0,0
10,109999,95,100000,0,0,49,9999,0.100000,0,0,0.000000,5,1.000000,0.000000,1.577717,0,0,0,0,0,0,0
10,109999,96,100000,96,0,40,9999,0.100000,0,0,0.000000,5,0.000000,0.000000,0.476686,0,0,0,0,0,0,0
10,109999,97,100000,96,0,40,9999,0.100000,0,0,0.000000,5,0.000000,0.000000,0.146717,0,0,0,0,0,0,0
10,109999,98,100000,13,10000,40,9999,0.100000,0,0,0.000000,5,0.000000,0.000000,6.748674,0,0,0,0,0,0,0
10,109999,99,100000,13,10000,40,9999,0.100000,0,0,0.000000,5,0.000000,0.000000,0.122513,0,0,0,0,0,0,0
11,119999,0,110000,0,0,40,9999,0.100000,0,0,0.000000,5,0.000000,0.000000,0.237813,0,0,0,0,0,0,0
11,119999,1,110000,13,10000,40,9999,0.100000,0,0,0.000000,5,0.000000,0.000000,0.636359,0,0,0,0,0,0,0
11,119999,2,110000,13,10000,40,9999,0.100000,0,0,0.000000,5,0.000000,0.000000,0.657400,0,0,0,0,0,0,0
11,119999,3,110000,0,0,40,9999,0.100000,0,0,0.000000,5,0.000000,0.000000,0.095707,0,0,0,0,0,0,0
11,119999,4,110000,0,0,40,9999,0.100000,0,0,0.000000,5,0.000000,0.000000,0.111541,0,0,0,0,0,0,0
11,119999,5,110000,96,0,40,9999,0.100000,0,0,0.000000,5,0.000000,0.000000,0.607931,0,0,0,0,0,0,0
11,119999,6,110000,0,0,40,9999,0.100000,0,0,0.000000,5,0.000000,0.000000,0.089655,0,0,0,0,0,0,0
11,119999,7,110000,13,10000,40,9999,0.100000,0,0,0.000000,5,0.000000,0.000000,0.210397,0,0,0,0,0,0,0
11,119999,8,110000,13,10000,40,9999,0.100000,0,0,0.000000,5,0.000000,0.000000,0.387571,0,0,0,0,0,0,0
11,119999,9,110000,96,0,40,9999,0.100000,0,0,0.000000,5,0.000000,0.000000,0.120525,0,0,0,0,0,0,0
11,119999,10,110000,74,40000,40,9999,0.100000,0,0,0.000000,5,0.000000,0.000000,0.987788,0,0,0,0,0,0,0
11,119999,11,110000,13,10000,40,9999,0.100000,0,0,0.000000,5,0.000000,0.000000,0.385604,0,0,0,0,0,0,0
11,119999,12,110000,0,0,49,9999,0.100000,0,0,0.000000,5,7.000000,0.000000,13.872133,0,0,0,0,0,0,0
11,119999,13,110000,27,30000,40,9999,0.100000,0,0,0.000000,5,0.000000,0.000000,0.471886,0,0,0,0,0,0,0
11,119999,14,110000,74,40000,40,9999,0.100000,0,0,0.000000,5,0.000000,0.000000,1.008048,0,0,0,0,0,0,0
11,119999,15,110000,0,0,40,9999,0.100000,0,0,0.000000,5,0.000000,0.000000,0.203052,0,0,0,0,0,0,0
11,119999,16,110000,0,0,40,9999,0.100000,0,0,0.000000,5,0.000000,0.000000,0.075304,0,0,0,0,0,0,0
11,119999,17,110000,27,30000,40,9999,0.100000,0,0,0.000000,5,0.000000,0.000000,0.249529,0,0,0,0,0,0,0
11,119999,18,110000,0,0,40,9999,0.100000,0,0,0.000000,5,0.000000,0.000000,0.266063,0,0,0,0,0,0,0
11,119999,19,110000,96,0,40,9999,0.100000,0,0,0.000000,5,0.000000,0.000000,0.271833,0,0,0,0,0,0,0
11,119999,20,110000,13,10000,40,9999,0.100000,0,0,0.000000,5,0.000000,0.000000,0.340055,0,0,0,0,0,0,0
11,119999,21,110000,96,0,49,9999,0.100000,0,0,0.000000,5,3.000000,0.000000,11.328595,0,0,0,0,0,0,0
11,119999,22,110000,96,0,40,9999,0.100000,0,0,0.000000,5,0.000000,0.000000,0.514752,0,0,0,0,0,0,0
11,119999,23,110000,96,0,40,9999,0.100000,0,0,0.000000,5,0.000000,0.000000,0.137278,0,0,0,0,0,0,0
11,119999,24,110000,0,0,40,9999,0.100000,0,0,0.000000,5,0.000000,0.000000,0.243513,0,0,0,0,0,0,0
11,119999,25,110000,27,30000,49,9999,0.100000,0,0,0.000000,5,1.000000,0.000000,2.395027,0,0,0,0,0,0,0
11,119999,26,110000,0,0,40,9999,0.100000,0,0,0.000000,5,0.000000,0.000000,0.584174,0,0,0,0,0,0,0
11,119999,27,110000,96,0,49,9999,0.100000,0,0,0.000000,5,1.000000,0.000000,4.442458,0,0,0,0,0,0,0
11,119999,28,110000,27,30000,40,9999,0.100000,0,0,0.000000,5,0.000000,0.000000,0.269870,0,0,0,0,0,0,0
11,119999,29,110000,74,40000,40,9999,0.100000,0,0,0.000000,5,0.000000,0.000000,0.100991,0,0,0,0,0,0,0
11,119999,30,110000,96,0,40,9999,0.100000,0,0,0.000000,5,0.000000,0.000000,0.146432,0,0,0,0,0,0,0
11,119999,31,110000,74,40000,40,9999,0.100000,0,0,0.000000,5,0.000000,0.000000,0.697392,0,0,0,0,0,0,0
11,119999,32,110000,74,40000,40,9999,0.100000,0,0,0.000000,5,0.000000,0.000000,1.098412,0,0,0,0,0,0,0
11,119999,33,110000,74,40000,40,9999,0.100000,0,0,0.000000,5,0.000000,0.000000,0.179558,0,0,0,0,0,0,0
11,119999,34,110000,0,0,49,9999,0.100000,0,0,0.000000,5,1.000000,0.000000,3.440687,0,0,0,0,0,0,0
11,119999,35,110000,74,40000,40,9999,0.100000,0,0,0.000000,5,0.000000,0.000000,0.155964,0,0,0,0,0,0,0
11,119999,36,110000,27,30000,40,9999,0.100000,0,0,0.000000,5,0.000000,0.000000,0.303837,0,0,0,0,0,0,0
11,119999,37,110000,74,40000,40,9999,0.100000,0,0,0.000000,5,0.000000,0.000000,0.512058,0,0,0,0,0,0,0
11,119999,38,110000,96,0,40,9999,0.135000,0,0,0.000000,5,0.000000,0.000000,0.219587,0,0,0,0,0,0,0
11,119999,39,110000,0,0,40,9999,0.100000,0,0,0.000000,5,0.000000,0.000000,23.791893,0,0,0,0,0,0,0
11,119999,40,110000,13,10000,40,9999,0.100000,0,0,0.000000,5,0.000000,0.000000,0.183554,0,0,0,0,0,0,0
11,119999,41,110000,96,0,40,9999,0.100000,0,0,0.000000,5,0.000000,0.000000,1.093944,0,0,0,0,0,0,0
11,119999,42,110000,13,10000,40,9999,0.100000,0,0,0.000000,5,0.000000,0.000000,0.827000,0,0,0,0,0,0,0
11,119999,43,110000,74,40000,40,9999,0.100000,0,0,0.000000,5,0.000000,0.000000,0.406153,0,0,0,0,0,0,0
11,119999,44,110000,27,30000,40,9999,0.100000,0,0,0.000000,5,0.000000,0.000000,0.169954,0,0,0,0,0,0,0
11,119999,45,110000,13,10000,40,9999,0.100000,0,0,0.000000,5,0.000000,0.000000,0.365883,0,0,0,0,0,0,0
11,119999,46,110000,0,0,40,9999,0.100000,0,0,0.000000,5,0.000000,0.000000,0.160572,0,0,0,0,0,0,0
11,119999,47,110000,0,0,40,9999,0.100000,0,0,0.000000,5,0.000000,0.000000,0.309733,0,0,0,0,0,0,0
11,119999,48,110000,74,40000,40,9999,0.100000,0,0,0.000000,5,0.000000,0.000000,0.397617,0,0,0,0,0,0,0
11,119999,49,110000,27,30000,40,9999,0.100000,0,0,0.000000,5,0.000000,0.000000,0.087192,0,0,0,0,0,0,0
11,119999,50,110000,74,40000,49,9999,0.100000,0,0,0.000000,5,9.000000,0.000000,19.609865,0,0,0,0,0,0,0
11,119999,51,110000,74,40000,40,9999,0.100000,0,0,0.000000,5,0.000000,0.000000,0.129810,0,0,0,0,0,0,0
11,119999,52,110000,27,30000,40,9999,0.100000,0,0,0.000000,5,0.000000,0.000000,1.229955,0,0,0,0,0,0,0
11,119999,53,110000,13,10000,40,9999,0.100000,0,0,0.000000,5,0.000000,0.000000,0.283474,0,0,0,0,0,0,0
11,119999,54,110000,74,40000,40,9999,0.100000,0,0,0.000000,5,0.000000,0.000000,0.402843,0,0,0,0,0,0,0
11,119999,55,110000,13,10000,40,9999,0.100000,0,0,0.000000,5,0.000000,0.000000,0.194198,0,0,0,0,0,0,0
11,119999,56,110000,0,0,40,9999,0.100000,0,0,0.000000,5,0.000000,0.000000,6.338532,0,0,0,0,0,0,0
11,119999,57,110000,27,30000,49,9999,0.100000,0,0,0.000000,5,3.000000,0.000000,3.424737,0,0,0,0,0,0,0
11,119999,58,110000,13,10000,40,9999,0.100000,0,0,0.000000,5,0.000000,0.000000,0.389002,0,0,0,0,0,0,0
11,119999,59,110000,74,40000,40,9999,0.100000,0,0,0.000000,5,0.000000,0.000000,0.079595,0,0,0,0,0,0,0
11,119999,60,110000,96,0,49,9999,0.100000,0,0,0.000000,5,8.000000,0.000000,22.405601,0,0,0,0,0,0,0
11,119999,61,110000,0,0,40,9999,0.100000,0,0,0.000000,5,0.000000,0.000000,0.111428,0,0,0,0,0,0,0
11,119999,62,110000,74,40000,40,9999,0.100000,0,0,0.000000,5,0.000000,0.000000,0.206946,0,0,0,0,0,0,0
11,119999,63,110000,27,30000,40,9999,0.100000,0,0,0.000000,5,0.000000,0.000000,0.952322,0,0,0,0,0,0,0
11,119999,64,110000,0,0,40,9999,0.100000,0,0,0.000000,5,0.000000,0.000000,0.234593,0,0,0,0,0,0,0
11,119999,65,110000,96,0,40,9999,0.100000,0,0,0.000000,5,0.000000,0.000000,0.328413,0,0,0,0,0,0,0
11,119999,66,110000,0,0,40,9999,0.100000,0,0,0.000000,5,0.000000,0.000000,0.375928,0,0,0,0,0,0,0
11,119999,67,110000,74,40000,40,9999,0.100000,0,0,0.000000,5,0.000000,0.000000,14.501550,0,0,0,0,0,0,0
11,119999,68,110000,96,0,40,9999,0.100000,0,0,0.000000,5,0.000000,0.000000,1.015564,0,0,0,0,0,0,0
11,119999,69,110000,27,30000,49,9999,0.100000,0,0,0.000000,5,1.000000,0.000000,3.983665,0,0,0,0,0,0,0
11,119999,70,110000,27,30000,40,9999,0.100000,0,0,0.000000,5,0.000000,0.000000,0.239171,0,0,0,0,0,0,0
11,119999,71,110000,0,0,40,9999,0.100000,0,0,0.000000,5,0.000000,0.000000,0.484036,0,0,0,0,0,0,0
11,119999,72,110000,0,0,40,9999,0.100000,0,0,0.000000,5,0.000000,0.000000,0.249048,0,0,0,0,0,0,0
11,119999,73,110000,27,30000,49,9999,0.100000,0,0,0.000000,5,7.000000,0.000000,15.359713,0,0,0,0,0,0,0
11,119999,74,110000,96,0,40,9999,0.100000,0,0,0.000000,5,0.000000,0.000000,0.515921,0,0,0,0,0,0,0
11,119999,75,110000,74,40000,40,9999,0.100000,0,0,0.000000,5,0.000000,0.000000,1.634968,0,0,0,0,0,0,0
11,119999,76,110000,13,10000,40,9999,0.100000,0,0,0.000000,5,0.000000,0.000000,6.840682,0,0,0,0,0,0,0
11,119999,77,110000,96,0,40,9999,0.100000,0,0,0.000000,5,0.000000,0.000000,0.111395,0,0,0,0,0,0,0
11,119999,78,110000,96,0,40,9999,0.100000,0,0,0.000000,5,0.000000,0.000000,0.195962,0,0,0,0,0,0,0
11,119999,79,110000,27,30000,40,9999,0.100000,0,0,0.000000,5,0.000000,0.000000,0.339189,0,0,0,0,0,0,0
11,119999,80,110000,74,40000,40,9999,0.100000,0,0,0.000000,5,0.000000,0.000000,1.983230,0,0,0,0,0,0,0
11,119999,81,110000,27,30000,40,9999,0.100000,0,0,0.000000,5,0.000000,0.000000,0.100109,0,0,0,0,0,0,0
11,119999,82,110000,74,40000,40,9999,0.100000,0,0,0.000000,5,0.000000,0.000000,0.551168,0,0,0,0,0,0,0
11,119999,83,110000,13,10000,40,9999,0.100000,0,0,0.000000,5,0.000000,0.000000,0.508209,0,0,0,0,0,0,0
11,119999,84,110000,96,0,40,9999,0.100000,0,0,0.000000,5,0.000000,0.000000,0.209557,0,0,0,0,0,0,0
11,119999,85,110000,27,30000,40,9999,0.100000,0,0,0.000000,5,0.000000,0.000000,0.254989,0,0,0,0,0,0,0
11,119999,86,110000,0,0,40,9999,0.100000,0,0,0.000000,5,0.000000,0.000000,0.128473,0,0,0,0,0,0,0
11,119999,87,110000,96,0,49,9999,0.100000,0,0,0.000000,5,8.000000,0.000000,16.565926,0,0,0,0,0,0,0
11,119999,88,110000,74,40000,40,9999,0.100000,0,0,0.000000,5,0.000000,0.000000,0.216730,0,0,0,0,0,0,0
11,119999,89,110000,27,30000,40,9999,0.100000,0,0,0.000000,5,0.000000,0.000000,0.091303,0,0,0,0,0,0,0
11,119999,90,110000,27,30000,40,9999,0.100000,0,0,0.000000,5,0.000000,0.000000,0.086187,0,0,0,0,0,0,0
11,119999,91,110000,0,0,40,9999,0.100000,0,0,0.000000,5,0.000000,0.000000,1.545701,0,0,0,0,0,0,0
11,119999,92,110000,96,0,40,9999,0.100000,0,0,0.000000,5,0.000000,0.000000,0.151007,0,0,0,0,0,0,0
11,119999,93,110000,96,0,40,9999,0.100000,0,0,0.000000,5,0.000000,0.000000,0.137049,0,0,0,0,0,0,0
11,119999,94,110000,0,0,49,9999,0.100000,0,0,0.000000,5,5.000000,0.000000,12.803840,0,0,0,0,0,0,0
11,119999,95,110000,0,0,40,9999,0.100000,0,0,0.000000,5,0.000000,0.000000,0.142245,0,0,0,0,0,0,0
11,119999,96,110000,74,40000,49,9999,0.100000,0,0,0.000000,5,1.000000,0.000000,2.587649,0,0,0,0,0,0,0
11,119999,97,110000,0,0,40,9999,0.100000,0,0,0.000000,5,0.000000,0.000000,0.147890,0,0,0,0,0,0,0
11,119999,98,110000,13,10000,40,9999,0.100000,0,0,0.000000,5,0.000000,0.000000,3.222103,0,0,0,0,0,0,0
11,119999,99,110000,27,30000,40,9999,0.100000,0,0,0.000000,5,0.000000,0.000000,0.256749,0,0,0,0,0,0,0
12,129999,0,120000,0,0,40,9999,0.100000,0,0,0.000000,5,0.000000,0.000000,0.235149,0,0,0,0,0,0,0
12,129999,1,120000,74,40000,40,9999,0.100000,0,0,0.000000,5,0.000000,0.000000,0.111659,0,0,0,0,0,0,0
12,129999,2,120000,27,30000,40,9999,0.100000,0,0,0.000000,5,0.000000,0.000000,0.655210,0,0,0,0,0,0,0
12,129999,3,120000,27,30000,40,9999,0.100000,0,0,0.000000,5,0.000000,0.000000,0.121648,0,0,0,0,0,0,0
12,129999,4,120000,74,40000,40,9999,0.100000,0,0,0.000000,5,0.000000,0.000000,0.087667,0,0,0,0,0,0,0
12,129999,5,120000,13,10000,40,9999,0.100000,0,0,0.000000,5,0.000000,0.000000,0.722900,0,0,0,0,0,0,0
12,129999,6,120000,96,0,49,9999,0.100000,0,0,0.000000,5,1.000000,0.000000,1.711105,0,0,0,0,0,0,0
12,129999,7,120000,74,40000,40,9999,0.100000,0,0,0.000000,5,0.000000,0.000000,0.269350,0,0,0,0,0,0,0
12,129999,8,120000,96,0,40,9999,0.100000,0,0,0.000000,5,0.000000,0.000000,0.911319,0,0,0,0,0,0,0
12,129999,9,120000,0,0,40,9999,0.100000,0,0,0.000000,5,0.000000,0.000000,0.128224,0,0,0,0,0,0,0
12,129999,10,120000,27,30000,40,9999,0.100000,0,0,0.000000,5,0.000000,0.000000,1.006418,0,0,0,0,0,0,0
12,129999,11,120000,96,0,40,9999,0.100000,0,0,0.000000,5,0.000000,0.000000,1.152292,0,0,0,0,0,0,0
12,129999,12,120000,74,40000,40,9999,0.100000,0,0,0.000000,5,0.000000,0.000000,0.364127,0,0,0,0,0,0,0
12,129999,13,120000,74,40000,40,9999,0.100000,0,0,0.000000,5,0.000000,0.000000,0.908490,0,0,0,0,0,0,0
12,129999,14,120000,96,0,40,9999,0.100000,0,0,0.000000,5,0.000000,0.000000,0.726982,0,0,0,0,0,0,0
12,129999,15,120000,13,10000,40,9999,0.100000,0,0,0.000000,5,0.000000,0.000000,0.191414,0,0,0,0,0,0,0
12,129999,16,120000,96,0,40,9999,0.100000,0,0,0.000000,5,0.000000,0.000000,0.079427,0,0,0,0,0,0,0
12,129999,17,120000,74,40000,40,9999,0.100000,0,0,0.000000,5,0.000000,0.000000,0.860217,0,0,0,0,0,0,0
12,129999,18,120000,96,0,49,9999,0.100000,0,0,0.000000,5,1.000000,0.000000,2.284870,0,0,0,0,0,0,0
12,129999,19,120000,96,0,40,9999,0.100000,0,0,0.000000,5,0.000000,0.000000,0.251503,0,0,0,0,0,0,0
12,129999,20,120000,27,30000,40,9999,0.100000,0,0,0.000000,5,0.000000,0.000000,0.963338,0,0,0,0,0,0,0
12,129999,21,120000,74,40000,49,9999,0.100000,0,0,0.000000,5,1.000000,0.000000,12.831573,0,0,0,0,0,0,0
12,129999,22,120000,74,40000,40,9999,0.100000,0,0,0.000000,5,0.000000,0.000000,2.385695,0,0,0,0,0,0,0
12,129999,23,120000,27,30000,40,9999,0.100000,0,0,0.000000,5,0.000000,0.000000,0.903033,0,0,0,0,0,0,0
12,129999,24,120000,74,40000,40,9999,0.100000,0,0,0.000000,5,0.000000,0.000000,0.234250,0,0,0,0,0,0,0
12,129999,25,120000,74,40000,49,9999,0.100000,0,0,0.000000,5,3.000000,0.000000,11.569147,0,0,0,0,0,0,0
12,129999,26,120000,96,0,40,9999,0.100000,0,0,0.000000,5,0.000000,0.000000,0.873208,0,0,0,0,0,0,0
12,129999,27,120000,27,30000,9,9999,0.100000,0,0,0.000000,5,2.000000,0.000000,7.774130,0,0,0,0,5,0,0
12,129999,28,120000,13,10000,40,9999,0.100000,0,0,0.000000,5,0.000000,0.000000,0.287861,0,0,0,0,0,0,0
12,129999,29,120000,74,40000,40,9999,0.100000,0,0,0.000000,5,0.000000,0.000000,0.082683,0,0,0,0,0,0,0
12,129999,30,120000,13,10000,40,9999,0.100000,0,0,0.000000,5,0.000000,0.000000,0.149694,0,0,0,0,0,0,0
12,129999,31,120000,0,0,40,9999,0.100000,0,0,0.000000,5,0.000000,0.000000,0.229018,0,0,0,0,0,0,0
12,129999,32,120000,0,0,40,9999,0.100000,0,0,0.000000,5,0.000000,0.000000,1.128783,0,0,0,0,0,0,0
12,129999,33,120000,96,0,40,9999,0.100000,0,0,0.000000,5,0.000000,0.000000,0.187649,0,0,0,0,0,0,0
12,129999,34,120000,13,10000,40,9999,0.100000,0,0,0.000000,5,0.000000,0.000000,2.123635,0,0,0,0,0,0,0
12,129999,35,120000,13,10000,40,9999,0.100000,0,0,0.000000,5,0.000000,0.000000,0.160605,0,0,0,0,0,0,0
12,129999,36,120000,13,10000,49,9999,0.100000,0,0,0.000000,5,9.000000,0.000000,18.744024,0,0,0,0,0,0,0
