generation,iteration,robot,birthday,ancestor_id,ancestor_birthday,cell_id,age,sigma,maps,genomes,fitness,cells_in_map,dist_max,dist_pot_max,dist_total,com_rx,com_tx,obj_group1,obj_group2,obj_group3,obj_group4,obj_group5
0,9999,0,0,0,0,1,9999,0.100000,99,0,15.740311,0,4.000000,32.803509,5.148000,99,99,0,0,2,0,0
0,9999,1,0,1,0,0,9999,0.100000,99,0,0.538953,0,0.000000,19.183137,1.103904,99,99,0,0,0,0,1
0,9999,2,0,2,0,40,9999,0.100000,99,0,0.000000,0,2.000000,31.523011,10.812645,99,99,0,0,0,0,0
0,9999,3,0,3,0,40,9999,0.100000,99,0,0.000000,0,1.000000,25.796518,5.881663,99,99,0,0,0,0,0
0,9999,4,0,4,0,40,9999,0.100000,99,0,0.000000,0,2.000000,19.552487,8.308161,99,99,0,0,0,0,0
0,9999,5,0,5,0,0,9999,0.100000,99,0,0.018900,0,1.000000,18.005623,2.252645,99,99,0,0,0,0,1
0,9999,6,0,6,0,92,9999,0.100000,99,0,38.480609,0,7.000000,26.196605,15.041641,99,99,1,0,0,0,0
0,9999,7,0,7,0,40,9999,0.100000,99,0,0.000000,0,1.000000,24.312582,6.973548,99,99,0,0,0,0,0
0,9999,8,0,8,0,92,9999,0.100000,99,0,32.310450,0,8.000000,25.707960,20.372965,99,99,1,0,0,0,0
0,9999,9,0,9,0,41,9999,0.100000,99,0,0.000000,0,3.000000,24.339107,10.224621,99,99,0,0,0,0,0
0,9999,10,0,10,0,0,9999,0.100000,99,0,0.182704,0,2.000000,26.298466,6.480049,99,99,0,0,0,1,0
0,9999,11,0,11,0,41,9999,0.100000,99,0,0.000000,0,4.000000,22.742449,9.349808,99,99,0,0,0,0,0
0,9999,12,0,12,0,40,9999,0.100000,99,0,0.000000,0,1.000000,15.656854,9.918396,99,99,0,0,0,0,0
0,9999,13,0,13,0,40,9999,0.100000,99,0,0.000000,0,1.000000,21.537764,10.000198,99,99,0,0,0,0,0
0,9999,14,0,14,0,42,9999,0.100000,99,0,0.000000,0,7.000000,22.870120,19.011488,99,99,0,0,0,0,0
0,9999,15,0,15,0,1,9999,0.100000,99,0,44.114465,0,5.000000,31.341275,14.992483,99,99,0,1,0,0,0
0,9999,16,0,16,0,41,9999,0.100000,99,0,0.000000,0,6.000000,31.114214,12.505370,99,99,0,0,0,0,0
0,9999,17,0,17,0,40,9999,0.100000,99,0,0.000000,0,2.000000,22.467959,5.925098,99,99,0,0,0,0,0
0,9999,18,0,18,0,41,9999,0.100000,99,0,0.000000,0,4.000000,24.212670,19.953115,99,99,0,0,0,0,0
0,9999,19,0,19,0,41,9999,0.100000,99,0,0.000000,0,3.000000,27.356555,13.957339,99,99,0,0,0,0,0
0,9999,20,0,20,0,40,9999,0.100000,99,0,0.000000,0,1.000000,20.912378,7.827348,99,99,0,0,0,0,0
0,9999,21,0,21,0,42,9999,0.100000,99,0,0.000000,0,4.000000,13.909453,8.418194,99,99,0,0,0,0,0
0,9999,22,0,22,0,92,9999,0.100000,99,0,27.179074,0,8.000000,28.999474,14.255495,99,99,1,0,0,0,0
0,9999,23,0,23,0,92,9999,0.100000,99,0,37.052613,0,6.000000,24.475497,14.685583,99,99,1,0,0,0,0
0,9999,24,0,24,0,0,9999,0.100000,99,0,0.000000,0,3.000000,33.181242,5.411469,99,99,0,0,1,0,0
0,9999,25,0,25,0,40,9999,0.100000,99,0,4.557482,0,2.000000,27.976930,15.351834,99,99,0,0,0,0,0
0,9999,26,0,26,0,40,9999,0.100000,99,0,0.000000,0,1.000000,21.672618,9.971283,99,99,0,0,0,0,0
0,9999,27,0,27,0,91,9999,0.100000,99,0,17.746228,0,4.000000,25.923881,13.195182,99,99,1,0,0,0,0
0,9999,28,0,28,0,40,9999,0.100000,99,0,0.000000,0,0.000000,14.427188,4.834627,99,99,0,0,0,0,0
0,9999,29,0,29,0,40,9999,0.100000,99,0,0.000000,0,1.000000,20.104455,3.649427,99,99,0,0,0,0,0
0,9999,30,0,30,0,40,9999,0.100000,99,0,0.000000,0,2.000000,19.204890,16.438195,99,99,0,0,0,0,0
0,9999,31,0,31,0,40,9999,0.100000,99,0,0.000000,0,1.000000,29.360010,7.744835,99,99,0,0,0,0,0
0,9999,32,0,32,0,41,9999,0.100000,99,0,0.000000,0,5.000000,29.821453,16.734009,99,99,0,0,0,0,0
0,9999,33,0,33,0,40,9999,0.100000,99,0,0.000000,0,1.000000,16.129437,3.392915,99,99,0,0,0,0,0
0,9999,34,0,34,0,40,9999,0.100000,99,0,0.000000,0,1.000000,15.842089,7.491219,99,99,0,0,0,0,0
0,9999,35,0,35,0,0,9999,0.100000,99,0,0.000477,0,2.000000,27.344163,5.582883,99,99,0,0,0,1,0
0,9999,36,0,36,0,92,9999,0.100000,99,0,22.146396,0,6.000000,23.732079,17.153152,99,99,1,0,0,0,0
0,9999,37,0,37,0,40,9999,0.100000,99,0,0.000000,0,0.000000,18.832327,0.785417,99,99,0,0,0,0,0
0,9999,38,0,38,0,90,9999,0.100000,99,0,1.294625,0,1.000000,28.500000,5.232791,99,99,1,0,0,0,0
0,9999,39,0,39,0,40,9999,0.100000,99,0,0.000000,0,0.000000,26.292637,10.174068,99,99,0,0,0,0,0
0,9999,40,0,40,0,40,9999,0.100000,99,0,0.000000,0,1.000000,17.942921,8.001266,99,99,0,0,0,0,0
0,9999,41,0,41,0,40,9999,0.100000,99,0,0.000000,0,1.000000,23.730623,9.246251,99,99,0,0,0,0,0
0,9999,42,0,42,0,40,9999,0.100000,99,0,0.000000,0,1.000000,27.226143,13.426730,99,99,0,0,0,0,0
0,9999,43,0,43,0,0,9999,0.100000,99,0,0.000242,0,1.000000,11.131371,2.044452,99,99,0,0,0,1,0
0,9999,44,0,44,0,40,9999,0.100000,99,0,0.000000,0,0.000000,20.872442,11.679442,99,99,0,0,0,0,0
0,9999,45,0,45,0,0,9999,0.100000,99,0,0.926897,0,1.000000,23.388054,3.800378,99,99,0,0,1,0,0
0,9999,46,0,46,0,42,9999,0.100000,99,0,0.000000,0,4.000000,18.256513,14.555262,99,99,0,0,0,0,0
0,9999,47,0,47,0,0,9999,0.100000,99,0,0.057820,0,2.000000,31.317833,9.308741,99,99,0,0,1,0,0
0,9999,48,0,48,0,40,9999,0.100000,99,0,0.000000,0,1.000000,27.551353,13.709753,99,99,0,0,0,0,0
0,9999,49,0,49,0,49,9999,0.100000,99,0,66.900764,0,15.000000,15.215362,20.957598,99,99,1,1,0,0,0
0,9999,50,0,50,0,40,9999,0.100000,99,0,0.000000,0,1.000000,32.411604,16.246946,99,99,0,0,0,0,0
0,9999,51,0,51,0,1,9999,0.100000,99,0,5.649144,0,3.000000,25.565667,7.286493,99,99,0,1,0,0,0
0,9999,52,0,52,0,40,9999,0.100000,99,0,0.000000,0,1.000000,29.887936,5.803091,99,99,0,0,0,0,0
0,9999,53,0,53,0,92,9999,0.100000,99,0,7.183537,0,8.000000,28.061285,15.494969,99,99,1,0,0,0,0
0,9999,54,0,54,0,40,9999,0.100000,99,0,0.000000,0,1.000000,28.341211,7.467541,99,99,0,0,0,0,0
0,9999,55,0,55,0,40,9999,0.100000,99,0,0.000000,0,0.000000,26.643317,3.461538,99,99,0,0,0,0,0
0,9999,56,0,56,0,42,9999,0.100000,99,0,0.000000,0,4.000000,15.608030,14.719622,99,99,0,0,0,0,0
0,9999,57,0,57,0,97,9999,0.100000,99,0,73.462327,0,16.000000,19.701546,23.417047,99,99,1,0,0,0,0
0,9999,58,0,58,0,40,9999,0.100000,99,0,0.000000,0,1.000000,25.179592,6.410850,99,99,0,0,0,0,0
0,9999,59,0,59,0,93,9999,0.100000,99,0,50.772629,0,7.000000,21.162885,20.194681,99,99,1,0,0,0,0
0,9999,60,0,60,0,93,9999,0.100000,99,0,61.541049,0,10.000000,30.969740,27.594014,99,99,1,0,0,0,0
0,9999,61,0,61,0,41,9999,0.100000,99,0,0.000000,0,4.000000,30.961155,11.387498,99,99,0,0,0,0,0
0,9999,62,0,62,0,1,9999,0.100000,99,0,29.097053,0,4.000000,26.532695,13.584561,99,99,0,1,0,0,0
0,9999,63,0,63,0,40,9999,0.100000,99,0,0.000000,0,3.000000,31.786234,10.320618,99,99,0,0,0,0,0
0,9999,64,0,64,0,40,9999,0.100000,99,0,0.000000,0,2.000000,31.474170,10.170786,99,99,0,0,0,0,0
0,9999,65,0,65,0,41,9999,0.100000,99,0,0.000000,0,2.000000,15.315073,13.053514,99,99,0,0,0,0,0
0,9999,66,0,66,0,0,9999,0.100000,99,0,0.007453,0,2.000000,29.906029,10.006456,99,99,0,0,0,0,1
0,9999,67,0,67,0,41,9999,0.100000,99,0,0.000000,0,3.000000,23.613229,10.173937,99,99,0,0,0,0,0
0,9999,68,0,68,0,40,9999,0.100000,99,0,0.000000,0,1.000000,25.512898,5.443670,99,99,0,0,0,0,0
0,9999,69,0,69,0,41,9999,0.100000,99,0,0.000000,0,2.000000,16.074537,8.390184,99,99,0,0,0,0,0
0,9999,70,0,70,0,0,9999,0.100000,99,0,0.007438,0,0.000000,25.368799,0.893236,99,99,0,0,0,0,1
0,9999,71,0,71,0,90,9999,0.100000,99,0,8.380313,0,1.000000,22.143311,3.888932,99,99,1,0,0,0,0
0,9999,72,0,72,0,0,9999,0.100000,99,0,0.002893,0,1.000000,29.200521,2.783092,99,99,0,0,0,1,0
0,9999,73,0,73,0,41,9999,0.100000,99,0,0.000000,0,4.000000,24.322360,12.464277,99,99,0,0,0,0,0
0,9999,74,0,74,0,90,9999,0.100000,99,0,3.572814,0,1.000000,14.617359,3.660603,99,99,1,0,0,0,0
0,9999,75,0,75,0,41,9999,0.100000,99,0,0.000000,0,3.000000,25.839823,5.479948,99,99,0,0,0,0,0
0,9999,76,0,76,0,40,9999,0.100000,99,0,0.000000,0,1.000000,22.665702,5.320030,99,99,0,0,0,0,0
0,9999,77,0,77,0,0,9999,0.100000,99,0,0.468715,0,1.000000,26.164467,4.738712,99,99,0,1,0,0,0
0,9999,78,0,78,0,40,9999,0.100000,99,0,0.000000,0,0.000000,23.787313,1.477711,99,99,0,0,0,0,0
0,9999,79,0,79,0,94,9999,0.100000,99,0,36.936827,0,9.000000,18.920202,17.579250,99,99,1,0,0,0,0
0,9999,80,0,80,0,40,9999,0.100000,99,0,0.000000,0,0.000000,22.903488,1.502529,99,99,0,0,0,0,0
0,9999,81,0,81,0,90,9999,0.100000,99,0,0.032369,0,0.000000,18.962700,1.888232,99,99,1,0,0,0,0
0,9999,82,0,82,0,40,9999,0.100000,99,0,0.000000,0,1.000000,14.382921,16.341091,99,99,0,0,0,0,0
0,9999,83,0,83,0,41,9999,0.100000,99,0,0.000000,0,5.000000,32.826519,14.011650,99,99,0,0,0,0,0
0,9999,84,0,84,0,40,9999,0.100000,99,0,0.000000,0,0.000000,27.712425,0.822582,99,99,0,0,0,0,0
0,9999,85,0,85,0,0,9999,0.100000,99,0,0.375804,0,1.000000,17.017835,1.961441,99,99,0,0,0,0,1
0,9999,86,0,86,0,0,9999,0.100000,99,0,0.000000,0,3.000000,32.287440,5.895526,99,99,0,0,1,0,0
0,9999,87,0,87,0,40,9999,0.100000,99,0,0.000000,0,3.000000,32.775426,13.165088,99,99,0,0,0,0,0
0,9999,88,0,88,0,40,9999,0.100000,99,0,0.000000,0,2.000000,26.181780,7.129525,99,99,0,0,0,0,0
0,9999,89,0,89,0,92,9999,0.100000,99,0,21.134609,0,7.000000,26.154875,22.524137,99,99,1,0,0,0,0
0,9999,90,0,90,0,40,9999,0.100000,99,0,0.000000,0,1.000000,20.111874,12.502737,99,99,0,0,0,0,0
0,9999,91,0,91,0,94,9999,0.100000,99,0,63.193223,0,12.000000,25.415576,20.080530,99,99,1,0,0,0,0
0,9999,92,0,92,0,40,9999,0.100000,99,0,0.000000,0,1.000000,27.107308,10.761193,99,99,0,0,0,0,0
0,9999,93,0,93,0,40,9999,0.100000,99,0,0.000000,0,1.000000,30.171763,14.372620,99,99,0,0,0,0,0
0,9999,94,0,94,0,92,9999,0.100000,99,0,40.668817,0,7.000000,24.586638,16.457465,99,99,1,0,0,0,0
0,9999,95,0,95,0,41,9999,0.100000,99,0,0.000000,0,3.000000,18.981091,6.034244,99,99,0,0,0,0,0
0,9999,96,0,96,0,90,9999,0.100000,99,0,4.958960,0,2.000000,30.988092,8.949814,99,99,1,0,0,0,0
0,9999,97,0,97,0,40,9999,0.100000,99,0,0.000000,0,2.000000,19.394147,6.945795,99,99,0,0,0,0,0
0,9999,98,0,98,0,40,9999,0.100000,99,0,0.000000,0,1.000000,24.029255,2.862021,99,99,0,0,0,0,0
0,9999,99,0,99,0,96,9999,0.100000,99,0,84.876892,0,15.000000,21.036757,23.459489,99,99,1,0,0,0,0
1,19999,0,10000,0,0,40,9999,0.100000,99,0,0.000000,1,1.000000,35.963406,13.646176,99,99,0,0,0,0,0
1,19999,1,10000,0,0,0,9999,0.100000,99,0,0.589224,2,0.000000,18.917282,0.225167,99,99,0,0,0,0,1
1,19999,2,10000,21,0,40,9999,0.100000,99,0,0.000000,12,1.000000,33.519447,11.504636,99,99,0,0,0,0,0
1,19999,3,10000,15,0,41,9999,0.100000,99,0,0.000000,9,3.000000,25.960507,5.248219,99,99,0,0,0,0,0
1,19999,4,10000,1,0,40,9999,0.100000,99,0,0.000000,9,1.000000,20.129241,11.101262,99,99,0,0,0,0,0
1,19999,5,10000,57,0,0,9999,0.100000,99,0,1.210760,6,0.000000,18.940094,0.350901,99,99,0,0,0,0,1
1,19999,6,10000,0,0,40,9999,0.100000,99,0,0.000000,3,2.000000,29.744518,10.826383,99,99,0,0,0,0,0
1,19999,7,10000,14,0,42,9999,0.100000,99,0,0.000000,12,7.000000,25.237867,16.108158,99,99,0,0,0,0,0
1,19999,8,10000,0,0,40,9999,0.100000,99,0,0.000000,4,1.000000,32.330779,4.277966,99,99,0,0,0,0,0
1,19999,9,10000,91,0,1,9999,0.100000,99,0,2.310895,12,3.000000,26.986936,3.886811,99,99,0,1,0,0,0
1,19999,10,10000,45,0,0,9999,0.100000,99,0,0.199406,10,0.000000,24.901483,0.180107,99,99,0,0,0,1,0
1,19999,11,10000,15,0,0,9999,0.100000,99,0,2.339771,10,1.000000,24.374892,13.971157,99,99,0,1,0,0,0
1,19999,12,10000,46,0,96,9999,0.100000,99,0,60.494573,8,11.000000,16.758615,24.140818,99,99,1,0,0,0,0
1,19999,13,10000,94,0,40,9999,0.100000,99,0,0.000000,5,0.000000,20.571799,4.498948,99,99,0,0,0,0,0
1,19999,14,10000,67,0,40,9999,0.100000,99,0,0.000000,10,2.000000,22.111502,15.797340,99,99,0,0,0,0,0
1,19999,15,10000,1,0,0,9999,0.100000,99,0,14.286750,6,2.000000,33.615034,4.590334,99,99,0,1,0,0,0
1,19999,16,10000,94,0,0,9999,0.100000,99,0,14.211975,6,2.000000,33.405246,4.210836,99,99,0,1,0,0,0
1,19999,17,10000,57,0,93,9999,0.100000,99,0,39.610371,6,7.000000,21.764697,20.081181,99,99,1,0,0,0,0
1,19999,18,10000,16,0,0,9999,0.100000,99,0,0.008420,6,1.000000,25.378898,17.599214,99,99,0,1,0,0,0
1,19999,19,10000,57,0,40,9999,0.100000,99,0,0.000000,6,0.000000,29.762763,1.200281,99,99,0,0,0,0,0
1,19999,20,10000,94,0,40,9999,0.100000,99,0,0.000000,6,1.000000,19.506057,19.665745,99,99,0,0,0,0,0
1,19999,21,10000,45,0,40,9999,0.100000,99,0,0.000000,10,1.000000,17.120287,4.318782,99,99,0,0,0,0,0
1,19999,22,10000,15,0,40,9999,0.100000,99,0,0.000000,8,0.000000,31.995631,7.753387,99,99,0,0,0,0,0
1,19999,23,10000,15,0,40,9999,0.100000,99,0,0.000000,9,1.000000,30.206371,13.574401,99,99,0,0,0,0,0
1,19999,24,10000,11,0,40,9999,0.100000,99,0,0.000000,12,1.000000,35.758074,12.596906,99,99,0,0,0,0,0
1,19999,25,10000,49,0,0,9999,0.100000,99,0,0.182171,10,2.000000,29.344112,2.695159,99,99,0,0,0,1,0
1,19999,26,10000,1,0,40,9999,0.100000,99,0,0.000000,4,2.000000,21.191567,6.313856,99,99,0,0,0,0,0
1,19999,27,10000,23,0,40,9999,0.100000,99,0,0.000000,9,1.000000,26.811339,7.323730,99,99,0,0,0,0,0
1,19999,28,10000,23,0,41,9999,0.100000,99,0,0.000000,12,2.000000,14.669027,7.805686,99,99,0,0,0,0,0
1,19999,29,10000,1,0,40,9999,0.100000,99,0,0.000000,8,0.000000,19.395513,2.526249,99,99,0,0,0,0,0
1,19999,30,10000,59,0,98,9999,0.100000,99,0,87.181580,10,16.000000,17.459209,24.855248,99,99,1,0,0,0,0
1,19999,31,10000,14,0,41,9999,0.100000,99,0,0.000000,12,3.000000,28.184585,12.809551,99,99,0,0,0,0,0
1,19999,32,10000,57,0,40,9999,0.100000,99,0,0.000000,6,1.000000,27.365000,5.319413,99,99,0,0,0,0,0
1,19999,33,10000,67,0,98,9999,0.100000,99,0,76.735660,9,15.000000,16.006054,21.483610,99,99,1,0,0,0,0
1,19999,34,10000,57,0,43,9999,0.100000,99,0,0.000000,6,5.000000,15.168960,18.119899,99,99,0,0,0,0,0
1,19999,35,10000,26,0,0,9999,0.100000,99,0,0.928397,4,0.000000,29.916151,0.507542,99,99,0,0,0,1,0
1,19999,36,10000,55,0,41,9999,0.100000,99,0,0.000000,9,3.000000,27.137513,17.692192,99,99,0,0,0,0,0
1,19999,37,10000,67,0,40,9999,0.100000,99,0,0.000000,10,0.000000,18.552548,0.623720,99,99,0,0,0,0,0
1,19999,38,10000,45,0,90,9999,0.100000,99,0,0.328827,12,0.000000,29.206858,0.681540,99,99,1,0,0,0,0
1,19999,39,10000,11,0,40,9999,0.100000,99,0,0.000000,12,1.000000,25.978182,6.736577,99,99,0,0,0,0,0
1,19999,40,10000,15,0,41,9999,0.100000,99,0,0.000000,9,2.000000,18.898288,6.243651,99,99,0,0,0,0,0
1,19999,41,10000,73,0,41,9999,0.100000,99,0,0.000000,6,3.000000,25.423619,10.902890,99,99,0,0,0,0,0
1,19999,42,10000,49,0,40,9999,0.100000,99,0,0.000000,9,3.000000,28.631400,21.222863,99,99,0,0,0,0,0
1,19999,43,10000,73,0,0,9999,0.100000,99,0,0.000763,6,0.000000,12.359928,0.086909,99,99,0,0,0,1,0
1,19999,44,10000,59,0,40,9999,0.100000,99,0,0.000000,12,2.000000,21.467695,9.981733,99,99,0,0,0,0,0
1,19999,45,10000,49,0,0,9999,0.100000,99,0,1.915026,9,0.000000,22.123979,0.823070,99,99,0,0,1,0,0
1,19999,46,10000,57,0,0,9999,0.100000,99,0,0.918684,8,0.000000,17.368862,0.265094,99,99,0,0,0,0,1
1,19999,47,10000,71,0,0,9999,0.100000,99,0,0.084099,12,0.000000,30.954855,0.422979,99,99,0,0,1,0,0
1,19999,48,10000,57,0,40,9999,0.100000,99,0,0.000000,6,1.000000,26.239939,5.759238,99,99,0,0,0,0,0
1,19999,49,10000,26,0,41,9999,0.100000,99,0,0.000000,7,5.000000,27.307199,10.288383,99,99,0,0,0,0,0
1,19999,50,10000,23,0,40,9999,0.100000,99,0,0.000000,10,1.000000,32.214018,8.830632,99,99,0,0,0,0,0
1,19999,51,10000,59,0,0,9999,0.100000,99,0,7.977434,12,1.000000,28.787672,1.921298,99,99,0,1,0,0,0
1,19999,52,10000,23,0,40,9999,0.100000,99,0,0.000000,9,1.000000,30.418701,8.540724,99,99,0,0,0,0,0
1,19999,53,10000,25,0,40,9999,0.100000,99,0,0.000000,12,1.000000,20.757254,11.916053,99,99,0,0,0,0,0
1,19999,54,10000,14,0,40,9999,0.100000,99,0,0.000000,12,2.000000,27.038952,4.276937,99,99,0,0,0,0,0
1,19999,55,10000,15,0,40,9999,0.100000,99,0,0.000000,8,1.000000,25.891759,6.094515,99,99,0,0,0,0,0
1,19999,56,10000,59,0,44,9999,0.100000,99,0,0.000000,10,5.000000,11.087075,10.983510,99,99,0,0,0,0,0
1,19999,57,10000,26,0,40,9999,0.100000,99,0,0.000000,5,3.000000,31.370021,13.040852,99,99,0,0,0,0,0
1,19999,58,10000,46,0,40,9999,0.100000,99,0,0.000000,9,2.000000,23.609825,5.941765,99,99,0,0,0,0,0
1,19999,59,10000,15,0,40,9999,0.100000,99,0,0.000000,8,1.000000,27.921349,7.110614,99,99,0,0,0,0,0
1,19999,60,10000,11,0,40,9999,0.100000,99,0,0.000000,12,0.000000,31.058505,2.560486,99,99,0,0,0,0,0
1,19999,61,10000,49,0,40,9999,0.100000,99,0,0.000000,12,3.000000,33.724533,21.282241,99,99,0,0,0,0,0
1,19999,62,10000,11,0,40,9999,0.100000,99,0,0.000000,12,1.000000,24.097630,10.340938,99,99,0,0,0,0,0
1,19999,63,10000,91,0,40,9999,0.100000,99,0,0.000000,12,1.000000,35.346670,10.971868,99,99,0,0,0,0,0
1,19999,64,10000,15,0,40,9999,0.100000,99,0,0.000000,8,3.000000,29.146507,12.603357,99,99,0,0,0,0,0
1,19999,65,10000,67,0,41,9999,0.100000,99,0,0.000000,9,2.000000,17.486083,17.503496,99,99,0,0,0,0,0
1,19999,66,10000,11,0,0,9999,0.100000,99,0,0.001803,12,0.000000,28.163917,0.071340,99,99,0,0,0,0,1
1,19999,67,10000,49,0,41,9999,0.100000,99,0,0.000000,8,3.000000,19.675223,4.919822,99,99,0,0,0,0,0
1,19999,68,10000,67,0,40,9999,0.100000,99,0,0.000000,10,2.000000,25.225464,6.330202,99,99,0,0,0,0,0
1,19999,69,10000,49,0,40,9999,0.100000,99,0,0.000000,12,1.000000,16.326824,3.545390,99,99,0,0,0,0,0
1,19999,70,10000,16,0,0,9999,0.100000,99,0,0.025438,6,0.000000,25.083784,0.186269,99,99,0,0,0,0,1
1,19999,71,10000,71,0,90,9999,0.100000,99,0,1.367422,11,0.000000,21.942316,2.205454,99,99,1,0,0,0,0
1,19999,72,10000,15,0,40,9999,0.100000,99,0,0.000000,12,0.000000,27.903771,0.141800,99,99,0,0,0,0,0
1,19999,73,10000,57,0,42,9999,0.100000,99,0,0.000000,6,6.000000,28.118168,16.868156,99,99,0,0,0,0,0
1,19999,74,10000,11,0,90,9999,0.100000,99,0,0.910385,11,0.000000,15.569407,1.193647,99,99,1,0,0,0,0
1,19999,75,10000,71,0,40,9999,0.100000,99,0,0.000000,11,1.000000,28.881139,1.962132,99,99,0,0,0,0,0
1,19999,76,10000,67,0,41,9999,0.100000,99,0,0.000000,10,3.000000,22.051824,10.995684,99,99,0,0,0,0,0
1,19999,77,10000,23,0,40,9999,0.100000,99,0,0.000000,12,0.000000,25.409720,1.203903,99,99,0,0,0,0,0
1,19999,78,10000,67,0,40,9999,0.100000,99,0,0.000000,9,0.000000,23.986763,1.023002,99,99,0,0,0,0,0
1,19999,79,10000,91,0,40,9999,0.100000,99,0,0.000000,12,0.000000,28.083343,0.514358,99,99,0,0,0,0,0
1,19999,80,10000,45,0,40,9999,0.100000,99,0,0.000000,11,0.000000,22.398850,0.632041,99,99,0,0,0,0,0
1,19999,81,10000,23,0,90,9999,0.100000,99,0,0.065782,11,0.000000,18.641846,0.642642,99,99,1,0,0,0,0
1,19999,82,10000,57,0,42,9999,0.100000,99,0,0.000000,10,4.000000,14.275042,13.356036,99,99,0,0,0,0,0
1,19999,83,10000,71,0,40,9999,0.100000,99,0,0.000000,11,1.000000,30.890932,5.054257,99,99,0,0,0,0,0
1,19999,84,10000,67,0,40,9999,0.100000,99,0,0.000000,9,0.000000,28.049721,0.111734,99,99,0,0,0,0,0
1,19999,85,10000,57,0,40,9999,0.100000,99,0,0.000000,10,0.000000,17.056790,0.316260,99,99,0,0,0,0,0
1,19999,86,10000,25,0,40,9999,0.100000,99,0,0.000000,12,0.000000,35.501663,6.167815,99,99,0,0,0,0,0
1,19999,87,10000,99,0,40,9999,0.100000,99,0,0.000000,12,3.000000,30.654698,12.387755,99,99,0,0,0,0,0
1,19999,88,10000,57,0,40,9999,0.100000,99,0,0.000000,10,0.000000,28.881241,4.381040,99,99,0,0,0,0,0
1,19999,89,10000,25,0,40,9999,0.100000,99,0,0.000000,11,0.000000,27.222492,10.026521,99,99,0,0,0,0,0
1,19999,90,10000,71,0,40,9999,0.100000,99,0,0.000000,11,1.000000,21.349107,7.779643,99,99,0,0,0,0,0
1,19999,91,10000,14,0,40,9999,0.100000,99,0,0.000000,12,2.000000,31.771487,9.735027,99,99,0,0,0,0,0
1,19999,92,10000,14,0,40,9999,0.100000,99,0,0.000000,12,0.000000,29.026507,18.400591,99,99,0,0,0,0,0
1,19999,93,10000,73,0,43,9999,0.100000,99,0,0.000000,6,10.000000,31.610829,25.024552,99,99,0,0,0,0,0
1,19999,94,10000,1,0,40,9999,0.100000,99,0,0.000000,4,2.000000,29.714365,4.226492,99,99,0,0,0,0,0
1,19999,95,10000,59,0,40,9999,0.100000,99,0,0.000000,12,0.000000,16.762277,0.524350,99,99,0,0,0,0,0
1,19999,96,10000,11,0,40,9999,0.100000,99,0,0.000000,12,1.000000,32.103852,3.605236,99,99,0,0,0,0,0
1,19999,97,10000,15,0,40,9999,0.100000,99,0,0.000000,10,0.000000,20.741547,0.880642,99,99,0,0,0,0,0
1,19999,98,10000,45,0,40,9999,0.100000,99,0,0.000000,10,0.000000,24.668561,0.289623,99,99,0,0,0,0,0
1,19999,99,10000,11,0,40,9999,0.100000,99,0,0.000000,12,1.000000,30.683259,12.186408,99,99,0,0,0,0,0
2,29999,0,20000,91,0,40,9999,0.100000,99,0,0.000000,12,1.000000,36.100970,13.403344,99,99,0,0,0,0,0
2,29999,1,20000,59,0,0,9999,0.100000,99,0,0.017907,12,0.000000,18.812314,0.149894,99,99,0,0,0,0,1
2,29999,2,20000,30,10000,40,9999,0.100000,99,0,0.000000,13,3.000000,32.014118,13.382736,99,99,0,0,0,0,0
2,29999,3,20000,15,0,40,9999,0.100000,99,0,0.000000,13,2.000000,28.753179,2.906301,99,99,0,0,0,0,0
2,29999,4,20000,91,0,40,9999,0.100000,99,0,0.000000,12,1.000000,19.429741,5.612494,99,99,0,0,0,0,0
2,29999,5,20000,99,0,0,9999,0.100000,99,0,0.794088,12,0.000000,19.086379,1.172152,99,99,0,0,0,0,1
2,29999,6,20000,51,0,40,9999,0.100000,99,0,0.000000,12,0.000000,31.505505,1.569833,99,99,0,0,0,0,0
2,29999,7,20000,91,0,41,9999,0.100000,99,0,0.000000,13,3.000000,27.967966,5.375289,99,99,0,0,0,0,0
2,29999,8,20000,91,0,40,9999,0.100000,99,0,0.000000,12,0.000000,31.445416,1.829172,99,99,0,0,0,0,0
2,29999,9,20000,16,10000,0,9999,0.100000,99,0,9.929168,12,2.000000,28.836334,2.940521,99,99,0,1,0,0,0
2,29999,10,20000,99,0,0,9999,0.100000,99,0,1.487150,12,0.000000,24.930559,0.347320,99,99,0,0,0,1,0
2,29999,11,20000,15,0,0,9999,0.100000,99,0,0.410804,13,0.000000,23.794804,0.989881,99,99,0,1,0,0,0
2,29999,12,20000,25,0,41,9999,0.100000,99,0,0.000000,12,3.000000,25.203444,13.159478,99,99,0,0,0,0,0
2,29999,13,20000,49,0,41,9999,0.100000,99,0,0.000000,13,4.000000,20.763657,11.543128,99,99,0,0,0,0,0
2,29999,14,20000,99,0,40,9999,0.100000,99,0,0.000000,13,0.000000,23.951011,6.044167,99,99,0,0,0,0,0
2,29999,15,20000,49,0,1,9999,0.100000,99,0,0.242486,12,5.000000,35.050701,11.873134,99,99,0,0,1,0,0
2,29999,16,20000,14,0,40,9999,0.100000,99,0,0.000000,12,1.000000,34.910189,7.297086,99,99,0,0,0,0,0
2,29999,17,20000,99,0,91,9999,0.100000,99,0,25.944129,12,5.000000,23.947465,11.166508,99,99,1,0,0,0,0
2,29999,18,20000,25,0,0,9999,0.100000,99,0,0.551740,13,0.000000,24.802373,1.087913,99,99,0,1,0,0,0
2,29999,19,20000,15,0,0,9999,0.100000,99,0,0.120799,12,0.000000,29.890502,0.991368,99,99,0,0,0,1,0
2,29999,20,20000,21,0,40,9999,0.100000,99,0,0.000000,12,0.000000,19.145568,0.463745,99,99,0,0,0,0,0
2,29999,21,20000,14,0,43,9999,0.100000,99,0,0.000000,13,5.000000,15.728197,18.506605,99,99,0,0,0,0,0
2,29999,22,20000,15,0,40,9999,0.100000,99,0,0.000000,13,1.000000,32.299664,8.088954,99,99,0,0,0,0,0
2,29999,23,20000,16,10000,40,9999,0.100000,99,0,0.000000,12,1.000000,29.709459,8.643754,99,99,0,0,0,0,0
2,29999,24,20000,30,10000,40,9999,0.100000,99,0,0.000000,13,1.000000,36.011956,11.161850,99,99,0,0,0,0,0
2,29999,25,20000,26,10000,0,9999,0.100000,99,0,0.966370,12,0.000000,27.768620,0.213345,99,99,0,0,0,1,0
2,29999,26,20000,59,0,40,9999,0.100000,99,0,0.000000,12,0.000000,18.942988,0.130698,99,99,0,0,0,0,0
2,29999,27,20000,23,0,40,9999,0.100000,99,0,0.000000,12,1.000000,26.583849,6.656802,99,99,0,0,0,0,0
2,29999,28,20000,51,0,42,9999,0.100000,99,0,0.000000,12,4.000000,17.302543,18.421371,99,99,0,0,0,0,0
2,29999,29,20000,59,0,40,9999,0.100000,99,0,0.000000,12,0.000000,19.198119,0.469309,99,99,0,0,0,0,0
2,29999,30,20000,21,0,40,9999,0.100000,99,0,0.000000,13,1.000000,28.788337,5.307936,99,99,0,0,0,0,0
2,29999,31,20000,71,0,90,9999,0.100000,99,0,6.886866,12,1.000000,29.858522,17.399212,99,99,1,0,0,0,0
2,29999,32,20000,30,10000,40,9999,0.100000,99,0,0.000000,13,3.000000,28.804186,13.019066,99,99,0,0,0,0,0
2,29999,33,20000,71,0,40,9999,0.100000,99,0,0.000000,13,2.000000,28.612454,3.192203,99,99,0,0,0,0,0
2,29999,34,20000,30,10000,40,9999,0.100000,99,0,0.000000,13,0.000000,18.044870,0.785055,99,99,0,0,0,0,0
2,29999,35,20000,25,0,40,9999,0.100000,99,0,0.000000,13,0.000000,29.967299,1.133778,99,99,0,0,0,0,0
2,29999,36,20000,71,0,40,9999,0.100000,99,0,0.000000,12,3.000000,28.844264,3.659240,99,99,0,0,0,0,0
2,29999,37,20000,15,0,40,9999,0.100000,99,0,0.000000,12,0.000000,18.694162,0.439914,99,99,0,0,0,0,0
2,29999,38,20000,14,0,90,9999,0.100000,99,0,0.031273,12,0.000000,29.207079,0.667863,99,99,1,0,0,0,0
2,29999,39,20000,15,10000,40,9999,0.100000,99,0,0.000000,13,2.000000,26.684340,6.008226,99,99,0,0,0,0,0
2,29999,40,20000,25,0,40,9999,0.100000,99,0,0.000000,13,1.000000,20.884904,15.089507,99,99,0,0,0,0,0
2,29999,41,20000,26,10000,40,9999,0.100000,99,0,0.000000,12,0.000000,28.123165,0.626966,99,99,0,0,0,0,0
2,29999,42,20000,59,0,40,9999,0.100000,99,0,0.000000,13,0.000000,28.140192,7.438043,99,99,0,0,0,0,0
2,29999,43,20000,15,0,0,9999,0.100000,99,0,0.000271,13,0.000000,12.359921,0.085948,99,99,0,0,0,1,0
2,29999,44,20000,14,0,40,9999,0.100000,99,0,0.000000,13,2.000000,24.019626,10.320222,99,99,0,0,0,0,0
2,29999,45,20000,99,0,2,9999,0.100000,99,0,34.236155,13,6.000000,22.085443,6.726861,99,99,0,0,1,0,0
2,29999,46,20000,15,0,0,9999,0.100000,99,0,0.504496,13,0.000000,17.580080,0.118804,99,99,0,0,0,0,1
2,29999,47,20000,21,0,40,9999,0.100000,99,0,0.000000,13,0.000000,30.874150,0.414979,99,99,0,0,0,0,0
2,29999,48,20000,26,10000,40,9999,0.100000,99,0,0.000000,13,1.000000,25.145467,15.026491,99,99,0,0,0,0,0
2,29999,49,20000,99,0,40,9999,0.100000,99,0,0.000000,13,2.000000,25.018681,4.659598,99,99,0,0,0,0,0
2,29999,50,20000,21,0,40,9999,0.100000,99,0,0.000000,13,2.000000,32.134268,5.283263,99,99,0,0,0,0,0
2,29999,51,20000,14,0,0,9999,0.100000,99,0,8.237421,12,1.000000,30.293742,5.736649,99,99,0,1,0,0,0
2,29999,52,20000,14,0,40,9999,0.100000,99,0,0.000000,13,2.000000,31.431943,19.087772,99,99,0,0,0,0,0
2,29999,53,20000,21,0,93,9999,0.100000,99,0,53.202765,13,8.000000,19.672651,17.306040,99,99,1,0,0,0,0
2,29999,54,20000,15,0,40,9999,0.100000,99,0,0.000000,13,1.000000,29.914769,3.568407,99,99,0,0,0,0,0
2,29999,55,20000,14,0,40,9999,0.100000,99,0,0.000000,13,1.000000,26.518814,8.622997,99,99,0,0,0,0,0
2,29999,56,20000,25,0,40,9999,0.100000,99,0,0.000000,13,0.000000,16.358361,12.135250,99,99,0,0,0,0,0
2,29999,57,20000,14,0,40,9999,0.100000,99,0,0.000000,12,0.000000,30.363531,5.523938,99,99,0,0,0,0,0
2,29999,58,20000,15,0,40,9999,0.100000,99,0,0.000000,13,2.000000,26.215429,8.000072,99,99,0,0,0,0,0
2,29999,59,20000,15,0,40,9999,0.100000,99,0,0.000000,13,0.000000,28.254591,6.180537,99,99,0,0,0,0,0
2,29999,60,20000,30,10000,40,9999,0.100000,99,0,0.000000,13,0.000000,30.788359,1.383663,99,99,0,0,0,0,0
2,29999,61,20000,99,0,40,9999,0.100000,99,0,0.000000,13,0.000000,30.976550,22.003590,99,99,0,0,0,0,0
2,29999,62,20000,14,0,0,9999,0.100000,99,0,0.313491,12,1.000000,23.547455,3.602728,99,99,0,0,0,1,0
2,29999,63,20000,71,0,40,9999,0.100000,99,0,0.000000,13,0.000000,34.721036,13.857151,99,99,0,0,0,0,0
2,29999,64,20000,15,0,40,9999,0.100000,99,0,0.000000,12,0.000000,32.187221,8.001750,99,99,0,0,0,0,0
2,29999,65,20000,25,0,40,9999,0.100000,99,0,0.000000,12,0.000000,15.661521,13.883723,99,99,0,0,0,0,0
2,29999,66,20000,25,0,0,9999,0.100000,99,0,0.001654,13,0.000000,28.163187,0.071888,99,99,0,0,0,0,1
2,29999,67,20000,91,0,42,9999,0.100000,99,0,0.000000,13,6.000000,21.909544,7.036445,99,99,0,0,0,0,0
2,29999,68,20000,71,0,0,9999,0.100000,99,0,0.109750,13,0.000000,25.132759,0.352358,99,99,0,0,0,0,1
2,29999,69,20000,71,0,40,9999,0.100000,99,0,0.000000,12,0.000000,17.445110,0.195743,99,99,0,0,0,0,0
2,29999,70,20000,21,0,40,9999,0.100000,99,0,0.000000,13,0.000000,24.990382,0.511249,99,99,0,0,0,0,0
2,29999,71,20000,15,0,40,9999,0.100000,99,0,0.000000,12,0.000000,22.244453,0.533324,99,99,0,0,0,0,0
2,29999,72,20000,14,0,40,9999,0.100000,99,0,0.000000,13,0.000000,27.877589,0.293298,99,99,0,0,0,0,0
2,29999,73,20000,30,10000,42,9999,0.100000,99,0,0.000000,13,6.000000,22.056815,14.146220,99,99,0,0,0,0,0
2,29999,74,20000,21,0,90,9999,0.100000,99,0,0.857943,13,0.000000,15.748313,0.889094,99,99,1,0,0,0,0
2,29999,75,20000,25,0,0,9999,0.100000,99,0,8.238682,12,1.000000,30.378418,6.180322,99,99,0,1,0,0,0
2,29999,76,20000,11,0,40,9999,0.065000,99,0,0.000000,12,0.000000,25.276404,3.573400,99,99,0,0,0,0,0
2,29999,77,20000,49,0,40,9999,0.100000,99,0,0.000000,12,0.000000,25.051403,2.416630,99,99,0,0,0,0,0
2,29999,78,20000,15,10000,40,9999,0.100000,99,0,0.000000,13,0.000000,24.367947,2.953781,99,99,0,0,0,0,0
2,29999,79,20000,49,0,41,9999,0.100000,99,0,0.000000,12,3.000000,28.027351,6.070593,99,99,0,0,0,0,0
2,29999,80,20000,71,0,42,9999,0.100000,99,0,0.000000,13,6.000000,22.286911,6.425034,99,99,0,0,0,0,0
2,29999,81,20000,49,0,90,9999,0.100000,99,0,0.144408,13,0.000000,18.665593,0.658196,99,99,1,0,0,0,0
2,29999,82,20000,26,10000,40,9999,0.100000,99,0,0.000000,13,1.000000,18.666949,3.746636,99,99,0,0,0,0,0
2,29999,83,20000,21,0,40,9999,0.100000,99,0,0.000000,12,1.000000,31.582739,9.123254,99,99,0,0,0,0,0
2,29999,84,20000,71,0,40,9999,0.100000,99,0,0.000000,13,0.000000,28.049148,0.112594,99,99,0,0,0,0,0
2,29999,85,20000,26,10000,40,9999,0.100000,99,0,0.000000,12,0.000000,17.322631,0.171209,99,99,0,0,0,0,0
2,29999,86,20000,71,0,40,9999,0.100000,99,0,0.000000,13,1.000000,35.713163,10.099189,99,99,0,0,0,0,0
2,29999,87,20000,30,10000,40,9999,0.100000,99,0,0.000000,13,3.000000,31.511682,15.557903,99,99,0,0,0,0,0
2,29999,88,20000,59,0,40,9999,0.100000,99,0,0.000000,13,1.000000,28.884849,11.273719,99,99,0,0,0,0,0
2,29999,89,20000,15,10000,41,9999,0.100000,99,0,0.000000,13,4.000000,26.796895,12.829896,99,99,0,0,0,0,0
2,29999,90,20000,71,0,40,9999,0.100000,99,0,0.000000,12,1.000000,19.648134,4.843017,99,99,0,0,0,0,0
2,29999,91,20000,14,0,40,9999,0.100000,99,0,0.000000,13,0.000000,30.670166,5.833277,99,99,0,0,0,0,0
2,29999,92,20000,59,0,40,9999,0.100000,99,0,0.000000,12,3.000000,29.464876,9.257949,99,99,0,0,0,0,0
2,29999,93,20000,15,0,40,9999,0.100000,99,0,0.000000,13,0.000000,24.588666,23.197044,99,99,0,0,0,0,0
2,29999,94,20000,71,0,40,9999,0.100000,99,0,0.000000,13,0.000000,27.999097,0.351721,99,99,0,0,0,0,0
2,29999,95,20000,15,0,40,9999,0.100000,99,0,0.000000,12,0.000000,17.095804,0.402726,99,99,0,0,0,0,0
2,29999,96,20000,30,10000,40,9999,0.100000,99,0,0.000000,13,0.000000,31.444036,1.751833,99,99,0,0,0,0,0
2,29999,97,20000,49,0,42,9999,0.100000,99,0,0.000000,13,5.000000,20.082725,6.141606,99,99,0,0,0,0,0
2,29999,98,20000,59,0,40,9999,0.100000,99,0,0.000000,13,0.000000,24.558608,0.091089,99,99,0,0,0,0,0
2,29999,99,20000,15,0,40,9999,0.100000,99,0,0.000000,13,0.000000,30.699895,7.175407,99,99,0,0,0,0,0
3,39999,0,30000,30,10000,40,9999,0.100000,99,0,0.000000,13,1.000000,35.274187,13.877967,99,99,0,0,0,0,0
3,39999,1,30000,15,0,0,9999,0.100000,99,0,0.006622,13,0.000000,18.814944,0.145107,99,99,0,0,0,0,1
3,39999,2,30000,15,10000,40,9999,0.100000,99,0,0.000000,13,3.000000,34.896990,13.842553,99,99,0,0,0,0,0
3,39999,3,30000,15,10000,40,9999,0.100000,99,0,0.000000,13,0.000000,28.310093,8.596748,99,99,0,0,0,0,0
3,39999,4,30000,26,10000,40,9999,0.100000,99,0,0.000000,13,1.000000,20.844544,4.365565,99,99,0,0,0,0,0
3,39999,5,30000,14,0,0,9999,0.100000,99,0,0.179419,13,0.000000,18.919764,0.130772,99,99,0,0,0,0,1
3,39999,6,30000,30,10000,40,9999,0.100000,99,0,0.000000,13,0.000000,31.485157,4.754851,99,99,0,0,0,0,0
3,39999,7,30000,15,0,40,9999,0.100000,99,0,0.000000,13,0.000000,29.684950,9.356090,99,99,0,0,0,0,0
3,39999,8,30000,99,0,40,9999,0.100000,99,0,0.000000,13,0.000000,31.478341,2.052030,99,99,0,0,0,0,0
3,39999,9,30000,53,20000,0,9999,0.100000,99,0,13.323762,14,2.000000,28.275006,5.606217,99,99,0,1,0,0,0
3,39999,10,30000,23,0,0,9999,0.100000,99,0,0.378139,13,0.000000,24.882523,0.329795,99,99,0,0,0,1,0
3,39999,11,30000,25,0,0,9999,0.100000,99,0,0.015730,14,1.000000,23.699305,2.619865,99,99,0,0,0,1,0
3,39999,12,30000,59,0,41,9999,0.100000,99,0,0.000000,13,4.000000,23.156437,14.403965,99,99,0,0,0,0,0
3,39999,13,30000,14,0,41,9999,0.100000,99,0,0.000000,13,4.000000,24.362718,14.181737,99,99,0,0,0,0,0
3,39999,14,30000,99,0,40,9999,0.100000,99,0,0.000000,14,0.000000,24.658368,0.694904,99,99,0,0,0,0,0
3,39999,15,30000,15,0,0,9999,0.100000,99,0,1.956297,13,0.000000,30.481364,1.003019,99,99,0,0,1,0,0
3,39999,16,30000,59,0,40,9999,0.100000,99,0,0.000000,13,2.000000,34.429492,17.324799,99,99,0,0,0,0,0
3,39999,17,30000,15,10000,41,9999,0.100000,99,0,0.000000,13,4.000000,28.183310,12.060494,99,99,0,0,0,0,0
3,39999,18,30000,23,0,0,9999,0.100000,99,0,0.738141,14,0.000000,24.860514,0.804076,99,99,0,1,0,0,0
3,39999,19,30000,30,10000,0,9999,0.100000,99,0,0.256316,14,0.000000,30.015993,0.429677,99,99,0,0,0,1,0
3,39999,20,30000,25,0,40,9999,0.100000,99,0,0.000000,14,0.000000,19.146519,0.500042,99,99,0,0,0,0,0
3,39999,21,30000,23,0,40,9999,0.100000,99,0,0.000000,13,1.000000,20.958471,9.644221,99,99,0,0,0,0,0
3,39999,22,30000,15,0,90,9999,0.100000,99,0,8.207089,13,1.000000,33.029297,9.547477,99,99,1,0,0,0,0
3,39999,23,30000,30,10000,42,9999,0.100000,99,0,0.000000,14,8.000000,29.046073,13.910119,99,99,0,0,0,0,0
3,39999,24,30000,15,0,40,9999,0.100000,99,0,0.000000,14,0.000000,35.475114,5.003116,99,99,0,0,0,0,0
3,39999,25,30000,21,0,0,9999,0.100000,99,0,4.889919,13,0.000000,27.656997,0.926192,99,99,0,0,0,1,0
3,39999,26,30000,15,10000,40,9999,0.100000,99,0,0.000000,13,0.000000,18.944427,0.135097,99,99,0,0,0,0,0
3,39999,27,30000,25,0,41,9999,0.100000,99,0,0.000000,13,5.000000,27.639497,12.623754,99,99,0,0,0,0,0
3,39999,28,30000,99,0,0,9999,0.100000,99,0,0.006461,14,0.000000,13.300789,1.973384,99,99,0,0,0,1,0
3,39999,29,30000,26,10000,40,9999,0.100000,99,0,0.000000,13,0.000000,19.198269,0.484306,99,99,0,0,0,0,0
3,39999,30,30000,30,10000,40,9999,0.100000,99,0,0.000000,13,0.000000,29.552669,1.179887,99,99,0,0,0,0,0
3,39999,31,30000,99,0,40,9999,0.100000,99,0,0.000000,14,0.000000,29.356721,9.188158,99,99,0,0,0,0,0
3,39999,32,30000,25,0,41,9999,0.100000,99,0,0.000000,13,4.000000,30.959151,16.466918,99,99,0,0,0,0,0
3,39999,33,30000,30,10000,91,9999,0.100000,99,0,16.524816,14,5.000000,28.365997,15.921058,99,99,1,0,0,0,0
3,39999,34,30000,99,0,40,9999,0.100000,99,0,0.000000,13,0.000000,17.884857,0.801457,99,99,0,0,0,0,0
3,39999,35,30000,26,10000,40,9999,0.100000,99,0,0.000000,13,0.000000,30.133163,0.283182,99,99,0,0,0,0,0
3,39999,36,30000,71,0,40,9999,0.100000,99,0,0.000000,13,2.000000,28.366299,9.176833,99,99,0,0,0,0,0
3,39999,37,30000,14,0,40,9999,0.100000,99,0,0.000000,14,0.000000,18.459243,0.096054,99,99,0,0,0,0,0
3,39999,38,30000,14,0,90,9999,0.100000,99,0,0.433029,13,0.000000,29.232002,2.538256,99,99,1,0,0,0,0
3,39999,39,30000,49,0,0,9999,0.100000,99,0,0.023069,13,2.000000,26.068109,10.813685,99,99,0,1,0,0,0
3,39999,40,30000,15,0,40,9999,0.100000,99,0,0.000000,14,2.000000,19.726678,6.351920,99,99,0,0,0,0,0
3,39999,41,30000,71,0,40,9999,0.100000,99,0,0.000000,13,1.000000,27.941043,1.871665,99,99,0,0,0,0,0
3,39999,42,30000,53,20000,41,9999,0.100000,99,0,0.000000,13,3.000000,27.253284,6.578783,99,99,0,0,0,0,0
3,39999,43,30000,99,0,40,9999,0.100000,99,0,0.000000,14,0.000000,12.359904,0.393002,99,99,0,0,0,0,0
3,39999,44,30000,23,0,41,9999,0.100000,99,0,0.000000,13,3.000000,24.725418,9.849725,99,99,0,0,0,0,0
3,39999,45,30000,99,0,40,9999,0.100000,99,0,0.000000,13,0.000000,28.561589,4.480862,99,99,0,0,0,0,0
3,39999,46,30000,26,10000,0,9999,0.100000,99,0,0.541966,14,0.000000,17.622238,0.473949,99,99,0,0,0,0,1
3,39999,47,30000,99,0,40,9999,0.100000,99,0,0.000000,13,0.000000,30.769241,1.182070,99,99,0,0,0,0,0
3,39999,48,30000,25,0,93,9999,0.100000,99,0,49.175389,13,10.000000,26.199537,21.962220,99,99,1,0,0,0,0
3,39999,49,30000,91,0,40,9999,0.100000,99,0,0.000000,13,0.000000,26.980980,1.005027,99,99,0,0,0,0,0
3,39999,50,30000,71,0,40,9999,0.100000,99,0,0.000000,13,1.000000,31.114701,13.547942,99,99,0,0,0,0,0
3,39999,51,30000,14,0,40,9999,0.100000,99,0,0.000000,14,1.000000,31.816254,6.904871,99,99,0,0,0,0,0
3,39999,52,30000,30,10000,40,9999,0.100000,99,0,0.000000,14,3.000000,32.674910,15.243028,99,99,0,0,0,0,0
3,39999,53,30000,15,10000,41,9999,0.100000,99,0,0.000000,13,5.000000,27.173154,9.373615,99,99,0,0,0,0,0
3,39999,54,30000,23,0,40,9999,0.100000,99,0,0.000000,14,0.000000,29.536425,0.162550,99,99,0,0,0,0,0
3,39999,55,30000,25,0,40,9999,0.100000,99,0,0.000000,13,1.000000,28.072377,6.457894,99,99,0,0,0,0,0
3,39999,56,30000,71,0,41,9999,0.100000,99,0,0.000000,14,2.000000,16.573156,15.176803,99,99,0,0,0,0,0
3,39999,57,30000,15,10000,41,9999,0.100000,99,0,0.000000,13,4.000000,30.836721,8.633622,99,99,0,0,0,0,0
3,39999,58,30000,91,0,40,9999,0.100000,99,0,0.000000,13,0.000000,27.924448,1.827370,99,99,0,0,0,0,0
3,39999,59,30000,91,0,40,9999,0.100000,99,0,0.000000,13,0.000000,28.394752,8.564142,99,99,0,0,0,0,0
3,39999,60,30000,15,10000,40,9999,0.100000,99,0,0.000000,14,0.000000,30.636630,1.042558,99,99,0,0,0,0,0
3,39999,61,30000,30,10000,40,9999,0.100000,99,0,0.000000,13,2.000000,31.166810,16.471260,99,99,0,0,0,0,0
3,39999,62,30000,53,20000,95,9999,0.100000,99,0,77.951458,13,12.000000,22.393955,23.149142,99,99,1,0,0,0,0
3,39999,63,30000,25,0,40,9999,0.100000,99,0,0.000000,13,1.000000,34.919000,17.850954,99,99,0,0,0,0,0
3,39999,64,30000,21,0,40,9999,0.100000,99,0,0.000000,14,1.000000,32.141177,10.877048,99,99,0,0,0,0,0
3,39999,65,30000,25,0,40,9999,0.100000,99,0,0.000000,14,0.000000,15.948586,13.216909,99,99,0,0,0,0,0
3,39999,66,30000,91,0,0,9999,0.100000,99,0,0.001734,13,0.000000,28.162532,0.071195,99,99,0,0,0,0,1
3,39999,67,30000,59,0,41,9999,0.100000,99,0,0.000000,13,5.000000,28.637396,12.595220,99,99,0,0,0,0,0
3,39999,68,30000,99,0,40,9999,0.100000,99,0,0.000000,13,0.000000,25.091559,1.808154,99,99,0,0,0,0,0
3,39999,69,30000,21,0,40,9999,0.100000,99,0,0.000000,13,0.000000,17.513382,0.517643,99,99,0,0,0,0,0
3,39999,70,30000,14,0,0,9999,0.100000,99,0,0.005017,13,0.000000,24.941146,0.412992,99,99,0,0,0,0,1
3,39999,71,30000,23,0,40,9999,0.100000,99,0,0.000000,14,0.000000,22.463332,0.116366,99,99,0,0,0,0,0
3,39999,72,30000,30,10000,40,9999,0.100000,99,0,0.000000,13,1.000000,27.739364,1.168550,99,99,0,0,0,0,0
3,39999,73,30000,21,0,41,9999,0.100000,99,0,0.000000,13,2.000000,16.209937,7.336537,99,99,0,0,0,0,0
3,39999,74,30000,26,10000,90,9999,0.100000,99,0,0.607757,14,0.000000,15.916997,0.828060,99,99,1,0,0,0,0
3,39999,75,30000,25,0,40,9999,0.100000,99,0,0.000000,14,1.000000,31.427798,12.225422,99,99,0,0,0,0,0
3,39999,76,30000,14,0,40,9999,0.100000,99,0,0.000000,13,0.000000,25.073416,1.203062,99,99,0,0,0,0,0
3,39999,77,30000,71,0,40,9999,0.100000,99,0,0.000000,14,0.000000,25.101633,1.630455,99,99,0,0,0,0,0
3,39999,78,30000,26,10000,40,9999,0.100000,99,0,0.000000,14,0.000000,24.662993,0.385349,99,99,0,0,0,0,0
3,39999,79,30000,25,0,41,9999,0.100000,99,0,0.000000,13,3.000000,25.377073,10.239346,99,99,0,0,0,0,0
3,39999,80,30000,53,20000,41,9999,0.100000,99,0,0.000000,14,3.000000,28.489067,10.721853,99,99,0,0,0,0,0
3,39999,81,30000,21,0,90,9999,0.100000,99,0,0.320310,13,0.000000,18.713621,0.692901,99,99,1,0,0,0,0
3,39999,82,30000,91,0,40,9999,0.100000,99,0,0.000000,13,0.000000,18.229153,0.404241,99,99,0,0,0,0,0
3,39999,83,30000,49,0,41,9999,0.100000,99,0,0.000000,13,4.000000,29.859859,12.433281,99,99,0,0,0,0,0
3,39999,84,30000,15,10000,40,9999,0.100000,99,0,0.000000,14,0.000000,28.048712,0.114668,99,99,0,0,0,0,0
3,39999,85,30000,30,10000,40,9999,0.100000,99,0,0.000000,14,0.000000,17.411234,0.497790,99,99,0,0,0,0,0
3,39999,86,30000,21,0,41,9999,0.100000,99,0,0.000000,14,4.000000,34.665361,13.257514,99,99,0,0,0,0,0
3,39999,87,30000,30,10000,41,9999,0.100000,99,0,0.000000,13,4.000000,32.822926,16.905318,99,99,0,0,0,0,0
3,39999,88,30000,21,0,40,9999,0.100000,99,0,0.000000,14,2.000000,27.341595,4.328308,99,99,0,0,0,0,0
3,39999,89,30000,49,0,40,9999,0.100000,99,0,0.000000,14,2.000000,23.876979,15.052721,99,99,0,0,0,0,0
3,39999,90,30000,25,0,40,9999,0.100000,99,0,0.000000,13,0.000000,18.596710,0.134127,99,99,0,0,0,0,0
3,39999,91,30000,25,0,40,9999,0.100000,99,0,0.000000,13,2.000000,30.957751,14.219380,99,99,0,0,0,0,0
3,39999,92,30000,53,20000,40,9999,0.100000,99,0,0.000000,13,0.000000,29.901485,1.893902,99,99,0,0,0,0,0
3,39999,93,30000,25,0,40,9999,0.100000,99,0,0.000000,14,0.000000,24.380195,19.447796,99,99,0,0,0,0,0
3,39999,94,30000,49,0,40,9999,0.100000,99,0,0.000000,14,1.000000,27.836101,1.287300,99,99,0,0,0,0,0
3,39999,95,30000,23,0,40,9999,0.100000,99,0,0.000000,13,0.000000,17.242658,0.516402,99,99,0,0,0,0,0
3,39999,96,30000,25,0,40,9999,0.100000,99,0,0.000000,13,0.000000,31.468390,1.997103,99,99,0,0,0,0,0
3,39999,97,30000,49,0,41,9999,0.100000,99,0,0.000000,14,4.000000,19.777496,10.934498,99,99,0,0,0,0,0
3,39999,98,30000,71,0,40,9999,0.100000,99,0,0.000000,14,0.000000,24.497620,0.092355,99,99,0,0,0,0,0
3,39999,99,30000,59,0,41,9999,0.100000,99,0,0.000000,13,5.000000,31.037594,14.113739,99,99,0,0,0,0,0
4,49999,0,40000,23,0,40,9999,0.100000,99,0,0.000000,14,2.000000,35.538578,14.277317,99,99,0,0,0,0,0
4,49999,1,40000,49,0,0,9999,0.100000,99,0,0.027224,14,0.000000,18.797037,0.134056,99,99,0,0,0,0,1
4,49999,2,40000,53,20000,40,9999,0.100000,99,0,0.000000,14,2.000000,31.066871,6.412847,99,99,0,0,0,0,0
4,49999,3,40000,99,0,41,9999,0.100000,99,0,0.000000,14,3.000000,27.916601,11.016583,99,99,0,0,0,0,0
4,49999,4,40000,71,0,40,9999,0.100000,99,0,0.000000,14,0.000000,19.303942,0.882280,99,99,0,0,0,0,0
4,49999,5,40000,49,0,0,9999,0.100000,99,0,0.178678,14,0.000000,18.924879,0.113612,99,99,0,0,0,0,1
4,49999,6,40000,21,0,40,9999,0.100000,99,0,0.000000,14,2.000000,30.836505,8.018837,99,99,0,0,0,0,0
4,49999,7,40000,15,0,40,9999,0.100000,99,0,0.000000,14,1.000000,29.091642,10.008879,99,99,0,0,0,0,0
4,49999,8,40000,30,10000,40,9999,0.100000,99,0,0.000000,14,0.000000,31.519791,10.885255,99,99,0,0,0,0,0
4,49999,9,40000,30,10000,0,9999,0.100000,99,0,2.890756,14,3.000000,31.075565,4.909664,99,99,0,1,0,0,0
4,49999,10,40000,14,0,0,9999,0.100000,99,0,0.102102,14,0.000000,24.635570,0.300159,99,99,0,0,0,1,0
4,49999,11,40000,25,0,0,9999,0.100000,99,0,0.021844,14,0.000000,22.410577,0.193836,99,99,0,0,0,1,0
4,49999,12,40000,71,0,41,9999,0.100000,99,0,0.000000,14,2.000000,18.385638,12.679936,99,99,0,0,0,0,0
4,49999,13,40000,30,10000,42,9999,0.100000,99,0,0.000000,14,6.000000,22.203752,17.596630,99,99,0,0,0,0,0
4,49999,14,40000,91,0,40,9999,0.100000,99,0,0.000000,14,0.000000,24.449644,0.681080,99,99,0,0,0,0,0
4,49999,15,40000,21,0,0,9999,0.100000,99,0,3.226399,14,0.000000,30.690613,1.033613,99,99,0,0,1,0,0
4,49999,16,40000,25,0,40,9999,0.100000,99,0,0.000000,14,3.000000,32.774993,12.341883,99,99,0,0,0,0,0
4,49999,17,40000,15,10000,40,9999,0.100000,99,0,0.000000,14,0.000000,25.703205,5.128108,99,99,0,0,0,0,0
4,49999,18,40000,14,0,0,9999,0.100000,99,0,1.671499,14,0.000000,24.977980,0.858029,99,99,0,1,0,0,0
4,49999,19,40000,21,0,0,9999,0.100000,99,0,0.218900,14,0.000000,30.038610,0.441480,99,99,0,0,0,1,0
4,49999,20,40000,21,0,40,9999,0.100000,99,0,0.000000,14,0.000000,19.122953,0.459013,99,99,0,0,0,0,0
4,49999,21,40000,14,0,40,9999,0.100000,99,0,0.000000,14,0.000000,19.044534,15.824377,99,99,0,0,0,0,0
4,49999,22,40000,91,0,40,9999,0.100000,99,0,0.000000,14,1.000000,33.758264,11.771925,99,99,0,0,0,0,0
4,49999,23,40000,23,0,40,9999,0.100000,99,0,0.000000,14,2.000000,21.722182,11.355621,99,99,0,0,0,0,0
4,49999,24,40000,15,0,40,9999,0.100000,99,0,0.000000,14,1.000000,34.920538,7.849356,99,99,0,0,0,0,0
4,49999,25,40000,30,10000,0,9999,0.100000,99,0,1.549046,14,0.000000,26.786005,0.723996,99,99,0,0,0,1,0
4,49999,26,40000,26,10000,40,9999,0.100000,99,0,0.000000,14,0.000000,18.924365,0.129094,99,99,0,0,0,0,0
4,49999,27,40000,99,0,40,9999,0.100000,99,0,0.000000,14,1.000000,27.611197,14.260735,99,99,0,0,0,0,0
4,49999,28,40000,15,10000,0,9999,0.100000,99,0,0.005394,14,0.000000,13.337363,0.081112,99,99,0,0,0,1,0
4,49999,29,40000,53,20000,40,9999,0.100000,99,0,0.000000,14,0.000000,19.171898,0.415126,99,99,0,0,0,0,0
4,49999,30,40000,26,10000,40,9999,0.100000,99,0,0.000000,14,0.000000,29.433676,0.851552,99,99,0,0,0,0,0
4,49999,31,40000,62,30000,40,9999,0.100000,99,0,0.000000,14,1.000000,29.687268,8.131230,99,99,0,0,0,0,0
4,49999,32,40000,15,10000,41,9999,0.100000,99,0,0.000000,14,4.000000,35.013182,19.038343,99,99,0,0,0,0,0
4,49999,33,40000,91,0,40,9999,0.100000,99,0,0.000000,14,0.000000,28.411428,9.418084,99,99,0,0,0,0,0
4,49999,34,40000,25,0,40,9999,0.100000,99,0,0.000000,14,0.000000,17.887981,0.813937,99,99,0,0,0,0,0
4,49999,35,40000,53,20000,40,9999,0.100000,99,0,0.000000,14,0.000000,30.153831,0.278511,99,99,0,0,0,0,0
4,49999,36,40000,80,20000,40,9999,0.100000,99,0,0.000000,14,2.000000,29.780851,7.625822,99,99,0,0,0,0,0
4,49999,37,40000,49,0,40,9999,0.100000,99,0,0.000000,14,0.000000,18.466313,0.090341,99,99,0,0,0,0,0
4,49999,38,40000,99,30000,90,9999,0.100000,99,0,0.275064,14,0.000000,29.299288,0.720930,99,99,1,0,0,0,0
4,49999,39,40000,49,0,0,9999,0.100000,99,0,2.087747,14,0.000000,23.992664,2.159350,99,99,0,1,0,0,0
4,49999,40,40000,53,20000,41,9999,0.100000,99,0,0.000000,14,3.000000,21.961074,10.739964,99,99,0,0,0,0,0
4,49999,41,40000,91,0,40,9999,0.100000,99,0,0.000000,14,1.000000,26.672070,2.830090,99,99,0,0,0,0,0
4,49999,42,40000,71,0,40,9999,0.100000,99,0,0.000000,14,3.000000,30.927297,6.042953,99,99,0,0,0,0,0
4,49999,43,40000,21,0,40,9999,0.100000,99,0,0.000000,14,0.000000,12.602498,0.198391,99,99,0,0,0,0,0
4,49999,44,40000,71,0,40,9999,0.100000,99,0,0.000000,14,2.000000,27.549879,6.561234,99,99,0,0,0,0,0
4,49999,45,40000,15,0,40,9999,0.100000,99,0,0.000000,14,1.000000,28.687578,5.096542,99,99,0,0,0,0,0
4,49999,46,40000,99,0,0,9999,0.100000,99,0,0.277991,14,0.000000,17.316421,0.496837,99,99,0,0,0,0,1
4,49999,47,40000,80,20000,40,9999,0.100000,99,0,0.000000,14,0.000000,31.023864,1.484143,99,99,0,0,0,0,0
4,49999,48,40000,80,20000,40,9999,0.100000,99,0,0.000000,14,2.000000,32.766875,12.648349,99,99,0,0,0,0,0
4,49999,49,40000,71,0,40,9999,0.100000,99,0,0.000000,14,0.000000,26.205915,1.003169,99,99,0,0,0,0,0
4,49999,50,40000,14,0,40,9999,0.100000,99,0,0.000000,14,2.000000,32.717300,4.597418,99,99,0,0,0,0,0
4,49999,51,40000,71,0,40,9999,0.100000,99,0,0.000000,14,2.000000,32.642146,11.984419,99,99,0,0,0,0,0
4,49999,52,40000,30,10000,40,9999,0.100000,99,0,0.000000,14,2.000000,34.335924,14.071374,99,99,0,0,0,0,0
4,49999,53,40000,49,0,40,9999,0.100000,99,0,0.000000,14,1.000000,24.820973,11.311988,99,99,0,0,0,0,0
4,49999,54,40000,25,0,40,9999,0.100000,99,0,0.000000,14,0.000000,29.556926,0.173351,99,99,0,0,0,0,0
4,49999,55,40000,23,0,40,9999,0.100000,99,0,0.000000,14,1.000000,27.053723,12.339176,99,99,0,0,0,0,0
4,49999,56,40000,99,0,40,9999,0.100000,99,0,0.000000,14,1.000000,18.791727,7.216827,99,99,0,0,0,0,0
4,49999,57,40000,14,0,40,9999,0.100000,99,0,0.000000,14,2.000000,30.199610,10.976194,99,99,0,0,0,0,0
4,49999,58,40000,99,0,40,9999,0.100000,99,0,0.000000,14,1.000000,26.955345,21.027047,99,99,0,0,0,0,0
4,49999,59,40000,21,0,40,9999,0.100000,99,0,0.000000,14,0.000000,28.598644,0.534931,99,99,0,0,0,0,0
4,49999,60,40000,15,0,40,9999,0.100000,99,0,0.000000,14,0.000000,30.861755,1.063533,99,99,0,0,0,0,0
4,49999,61,40000,15,10000,41,9999,0.100000,99,0,0.000000,14,4.000000,33.254355,18.084080,99,99,0,0,0,0,0
4,49999,62,40000,71,0,40,9999,0.100000,99,0,0.000000,14,1.000000,29.862199,10.903675,99,99,0,0,0,0,0
4,49999,63,40000,15,0,40,9999,0.100000,99,0,0.000000,14,3.000000,34.333385,16.336579,99,99,0,0,0,0,0
4,49999,64,40000,15,0,40,9999,0.100000,99,0,0.000000,14,2.000000,31.522600,12.190895,99,99,0,0,0,0,0
4,49999,65,40000,15,0,40,9999,0.100000,99,0,0.000000,14,1.000000,16.435678,6.651755,99,99,0,0,0,0,0
4,49999,66,40000,49,0,0,9999,0.100000,99,0,0.002241,14,0.000000,28.161685,0.072115,99,99,0,0,0,0,1
4,49999,67,40000,14,0,41,9999,0.100000,99,0,0.000000,14,3.000000,24.378368,10.814022,99,99,0,0,0,0,0
4,49999,68,40000,80,20000,0,9999,0.100000,99,0,0.000725,14,0.000000,25.043201,5.126798,99,99,0,0,0,0,1
4,49999,69,40000,30,10000,40,9999,0.100000,99,0,0.000000,14,0.000000,17.247678,0.276293,99,99,0,0,0,0,0
4,49999,70,40000,25,0,40,9999,0.100000,99,0,0.000000,14,0.000000,24.892092,0.271634,99,99,0,0,0,0,0
4,49999,71,40000,23,0,40,9999,0.100000,99,0,0.000000,14,0.000000,22.466488,0.106649,99,99,0,0,0,0,0
4,49999,72,40000,30,10000,40,9999,0.100000,99,0,0.000000,14,0.000000,26.751543,2.610686,99,99,0,0,0,0,0
4,49999,73,40000,15,10000,41,9999,0.100000,99,0,0.000000,14,2.000000,18.455118,9.048171,99,99,0,0,0,0,0
4,49999,74,40000,80,20000,90,9999,0.100000,99,0,2.921538,14,0.000000,16.061938,1.105083,99,99,1,0,0,0,0
4,49999,75,40000,25,0,40,9999,0.100000,99,0,0.000000,14,1.000000,32.140193,13.148923,99,99,0,0,0,0,0
4,49999,76,40000,26,10000,40,9999,0.100000,99,0,0.000000,14,0.000000,25.046573,0.853052,99,99,0,0,0,0,0
4,49999,77,40000,91,0,40,9999,0.100000,99,0,0.000000,14,0.000000,25.218833,1.699655,99,99,0,0,0,0,0
4,49999,78,40000,25,0,40,9999,0.100000,99,0,0.000000,14,0.000000,24.474032,0.367582,99,99,0,0,0,0,0
4,49999,79,40000,99,0,40,9999,0.100000,99,0,0.000000,14,1.000000,26.292585,9.129080,99,99,0,0,0,0,0
4,49999,80,40000,15,10000,40,9999,0.100000,99,0,0.000000,14,1.000000,24.836232,7.557362,99,99,0,0,0,0,0
4,49999,81,40000,71,0,90,9999,0.100000,99,0,0.775151,14,0.000000,18.784991,0.764838,99,99,1,0,0,0,0
4,49999,82,40000,21,0,40,9999,0.100000,99,0,0.000000,14,0.000000,18.234151,0.416475,99,99,0,0,0,0,0
4,49999,83,40000,23,0,40,9999,0.100000,99,0,0.000000,14,1.000000,26.688498,2.608872,99,99,0,0,0,0,0
4,49999,84,40000,15,10000,40,9999,0.100000,99,0,0.000000,14,0.000000,28.048051,0.114145,99,99,0,0,0,0,0
4,49999,85,40000,23,0,40,9999,0.100000,99,0,0.000000,14,0.000000,17.176680,0.287055,99,99,0,0,0,0,0
4,49999,86,40000,62,30000,40,9999,0.100000,99,0,0.000000,14,0.000000,31.396481,10.208592,99,99,0,0,0,0,0
4,49999,87,40000,25,0,40,9999,0.135000,99,0,0.000000,14,2.000000,35.171108,17.184862,99,99,0,0,0,0,0
4,49999,88,40000,53,20000,40,9999,0.100000,99,0,0.000000,14,0.000000,25.157006,0.901403,99,99,0,0,0,0,0
4,49999,89,40000,53,20000,41,9999,0.100000,99,0,0.000000,14,4.000000,23.511563,9.156060,99,99,0,0,0,0,0
4,49999,90,40000,15,0,40,9999,0.100000,99,0,0.000000,14,0.000000,18.603164,0.129448,99,99,0,0,0,0,0
4,49999,91,40000,91,0,40,9999,0.100000,99,0,0.000000,14,1.000000,29.953941,6.764121,99,99,0,0,0,0,0
4,49999,92,40000,30,10000,40,9999,0.100000,99,0,0.000000,14,0.000000,29.925753,2.048388,99,99,0,0,0,0,0
4,49999,93,40000,53,20000,40,9999,0.100000,99,0,0.000000,14,1.000000,24.491498,7.767758,99,99,0,0,0,0,0
4,49999,94,40000,53,20000,40,9999,0.100000,99,0,0.000000,14,0.000000,26.701047,2.718484,99,99,0,0,0,0,0
4,49999,95,40000,99,30000,40,9999,0.100000,99,0,0.000000,14,0.000000,17.097718,0.359011,99,99,0,0,0,0,0
4,49999,96,40000,23,0,40,9999,0.100000,99,0,0.000000,14,1.000000,31.464385,7.203178,99,99,0,0,0,0,0
4,49999,97,40000,30,10000,40,9999,0.100000,99,0,0.000000,14,0.000000,23.552914,7.372896,99,99,0,0,0,0,0
4,49999,98,40000,23,0,40,9999,0.100000,99,0,0.000000,14,0.000000,24.446225,0.086485,99,99,0,0,0,0,0
4,49999,99,40000,23,0,40,9999,0.100000,99,0,0.000000,14,1.000000,28.466789,6.946600,99,99,0,0,0,0,0
5,59999,0,50000,23,0,40,9999,0.100000,99,0,0.000000,14,2.000000,35.651834,14.407159,99,99,0,0,0,0,0
5,59999,1,50000,80,20000,0,9999,0.100000,99,0,0.044644,14,0.000000,18.787284,0.130476,99,99,0,0,0,0,1
5,59999,2,50000,21,0,40,9999,0.100000,99,0,0.000000,14,1.000000,33.241187,4.281786,99,99,0,0,0,0,0
5,59999,3,50000,30,10000,40,9999,0.100000,99,0,0.000000,14,3.000000,29.967097,10.998281,99,99,0,0,0,0,0
5,59999,4,50000,21,0,40,9999,0.100000,99,0,0.000000,14,0.000000,19.278171,0.894036,99,99,0,0,0,0,0
5,59999,5,50000,13,40000,0,9999,0.100000,99,0,0.095321,14,0.000000,18.932212,0.142616,99,99,0,0,0,0,1
5,59999,6,50000,80,20000,40,9999,0.100000,99,0,0.000000,14,2.000000,28.761122,9.406921,99,99,0,0,0,0,0
5,59999,7,50000,14,0,40,9999,0.100000,99,0,0.000000,14,3.000000,30.253350,12.529603,99,99,0,0,0,0,0
5,59999,8,50000,99,30000,40,9999,0.100000,99,0,0.000000,14,2.000000,30.823560,12.048848,99,99,0,0,0,0,0
5,59999,9,50000,62,30000,0,9999,0.100000,99,0,0.828200,14,0.000000,32.961152,2.728564,99,99,0,1,0,0,0
5,59999,10,50000,15,0,0,9999,0.100000,99,0,0.340398,14,0.000000,24.412849,0.111168,99,99,0,0,0,1,0
5,59999,11,50000,53,20000,0,9999,0.100000,99,0,0.025563,14,0.000000,22.407206,0.194852,99,99,0,0,0,1,0
5,59999,12,50000,13,40000,41,9999,0.100000,99,0,0.000000,14,2.000000,15.695454,6.451455,99,99,0,0,0,0,0
5,59999,13,50000,80,20000,41,9999,0.100000,99,0,0.000000,14,2.000000,16.002166,12.801016,99,99,0,0,0,0,0
5,59999,14,50000,53,20000,40,9999,0.100000,99,0,0.000000,14,0.000000,24.269165,0.571525,99,99,0,0,0,0,0
5,59999,15,50000,99,30000,0,9999,0.100000,99,0,1.446803,14,0.000000,30.334499,0.898988,99,99,0,0,1,0,0
5,59999,16,50000,99,30000,41,9999,0.100000,99,0,0.000000,14,4.000000,30.115046,13.020201,99,99,0,0,0,0,0
5,59999,17,50000,80,20000,40,9999,0.100000,99,0,0.000000,14,2.000000,26.023856,12.381044,99,99,0,0,0,0,0
5,59999,18,50000,53,20000,0,9999,0.100000,99,0,2.606248,14,0.000000,25.098068,0.984408,99,99,0,1,0,0,0
5,59999,19,50000,30,10000,0,9999,0.100000,99,0,0.181325,14,0.000000,30.059809,0.418496,99,99,0,0,0,1,0
5,59999,20,50000,21,0,40,9999,0.100000,99,0,0.000000,14,0.000000,19.098751,0.459857,99,99,0,0,0,0,0
5,59999,21,50000,30,10000,41,9999,0.100000,99,0,0.000000,14,3.000000,18.959448,13.673841,99,99,0,0,0,0,0
5,59999,22,50000,13,40000,40,9999,0.100000,99,0,0.000000,14,2.000000,33.220029,17.171792,99,99,0,0,0,0,0
5,59999,23,50000,71,0,41,9999,0.100000,99,0,0.000000,14,4.000000,23.476178,11.375138,99,99,0,0,0,0,0
5,59999,24,50000,80,20000,40,9999,0.100000,99,0,0.000000,14,1.000000,35.070173,18.106131,99,99,0,0,0,0,0
5,59999,25,50000,53,20000,0,9999,0.100000,99,0,0.425270,14,0.000000,26.209669,0.526376,99,99,0,0,0,1,0
5,59999,26,50000,21,0,40,9999,0.100000,99,0,0.000000,14,0.000000,18.908569,0.121270,99,99,0,0,0,0,0
5,59999,27,50000,23,0,40,9999,0.100000,99,0,0.000000,14,0.000000,28.004399,2.047639,99,99,0,0,0,0,0
5,59999,28,50000,53,20000,0,9999,0.065000,99,0,0.442737,14,0.000000,13.340041,0.741822,99,99,0,0,0,1,0
5,59999,29,50000,15,0,40,9999,0.100000,99,0,0.000000,14,0.000000,19.144685,0.402770,99,99,0,0,0,0,0
5,59999,30,50000,23,0,40,9999,0.100000,99,0,0.000000,14,1.000000,28.936399,6.661427,99,99,0,0,0,0,0
5,59999,31,50000,80,20000,40,9999,0.100000,99,0,0.000000,14,3.000000,28.984084,12.634471,99,99,0,0,0,0,0
5,59999,32,50000,99,0,40,9999,0.100000,99,0,0.000000,14,3.000000,31.199360,12.945118,99,99,0,0,0,0,0
5,59999,33,50000,62,30000,41,9999,0.100000,99,0,0.000000,14,4.000000,28.438139,12.779995,99,99,0,0,0,0,0
5,59999,34,50000,80,20000,40,9999,0.100000,99,0,0.000000,14,0.000000,17.885205,0.803382,99,99,0,0,0,0,0
5,59999,35,50000,13,40000,40,9999,0.100000,99,0,0.000000,14,0.000000,30.172964,0.254374,99,99,0,0,0,0,0
5,59999,36,50000,23,0,40,9999,0.100000,99,0,0.000000,14,1.000000,30.733541,8.775651,99,99,0,0,0,0,0
5,59999,37,50000,49,0,40,9999,0.100000,99,0,0.000000,14,0.000000,18.483534,0.152235,99,99,0,0,0,0,0
5,59999,38,50000,30,10000,90,9999,0.100000,99,0,0.603299,14,0.000000,29.379673,3.068716,99,99,1,0,0,0,0
5,59999,39,50000,62,30000,0,9999,0.100000,99,0,0.151238,14,0.000000,23.787959,0.159832,99,99,0,1,0,0,0
5,59999,40,50000,99,0,40,9999,0.100000,99,0,0.000000,14,1.000000,24.309416,9.134515,99,99,0,0,0,0,0
5,59999,41,50000,71,0,40,9999,0.100000,99,0,0.000000,14,0.000000,25.526614,1.826834,99,99,0,0,0,0,0
5,59999,42,50000,99,30000,40,9999,0.100000,99,0,0.000000,14,0.000000,32.740390,2.754054,99,99,0,0,0,0,0
5,59999,43,50000,62,30000,40,9999,0.100000,99,0,0.000000,14,0.000000,12.603587,0.501782,99,99,0,0,0,0,0
5,59999,44,50000,30,10000,40,9999,0.100000,99,0,0.000000,14,1.000000,25.618084,8.071197,99,99,0,0,0,0,0
5,59999,45,50000,23,0,40,9999,0.100000,99,0,0.000000,14,0.000000,28.768465,5.015205,99,99,0,0,0,0,0
5,59999,46,50000,71,0,0,9999,0.100000,99,0,0.003458,14,0.000000,17.160397,0.231042,99,99,0,0,0,0,1
5,59999,47,50000,21,0,40,9999,0.100000,99,0,0.000000,14,0.000000,30.634984,0.981324,99,99,0,0,0,0,0
5,59999,48,50000,53,20000,40,9999,0.100000,99,0,0.000000,14,3.000000,31.300138,9.573979,99,99,0,0,0,0,0
5,59999,49,50000,53,20000,40,9999,0.100000,99,0,0.000000,14,0.000000,25.447452,1.004244,99,99,0,0,0,0,0
5,59999,50,50000,25,0,40,9999,0.100000,99,0,0.000000,14,1.000000,31.940606,12.165498,99,99,0,0,0,0,0
5,59999,51,50000,25,0,40,9999,0.100000,99,0,0.000000,14,0.000000,33.113128,4.239085,99,99,0,0,0,0,0
5,59999,52,50000,62,30000,40,9999,0.100000,99,0,0.000000,14,1.000000,35.824798,12.620296,99,99,0,0,0,0,0
5,59999,53,50000,15,10000,40,9999,0.100000,99,0,0.000000,14,0.000000,23.284071,3.467868,99,99,0,0,0,0,0
5,59999,54,50000,13,40000,40,9999,0.100000,99,0,0.000000,14,0.000000,29.577377,0.167185,99,99,0,0,0,0,0
5,59999,55,50000,30,10000,40,9999,0.100000,99,0,0.000000,14,0.000000,25.939841,1.752870,99,99,0,0,0,0,0
5,59999,56,50000,71,0,40,9999,0.100000,99,0,0.000000,14,1.000000,17.835085,15.427286,99,99,0,0,0,0,0
5,59999,57,50000,62,30000,40,9999,0.100000,99,0,0.000000,14,1.000000,31.526870,8.808363,99,99,0,0,0,0,0
5,59999,58,50000,71,0,40,9999,0.100000,99,0,0.000000,14,1.000000,26.696939,16.115253,99,99,0,0,0,0,0
5,59999,59,50000,30,10000,40,9999,0.100000,99,0,0.000000,14,0.000000,28.705129,0.324080,99,99,0,0,0,0,0
5,59999,60,50000,21,0,40,9999,0.100000,99,0,0.000000,14,0.000000,30.486253,0.766172,99,99,0,0,0,0,0
5,59999,61,50000,30,10000,41,9999,0.100000,99,0,0.000000,14,4.000000,30.669682,14.977364,99,99,0,0,0,0,0
5,59999,62,50000,53,20000,40,9999,0.100000,99,0,0.000000,14,1.000000,29.849129,8.470876,99,99,0,0,0,0,0
5,59999,63,50000,53,20000,40,9999,0.100000,99,0,0.000000,14,2.000000,35.650419,8.892164,99,99,0,0,0,0,0
5,59999,64,50000,21,0,40,9999,0.100000,99,0,0.000000,14,2.000000,31.087201,9.704762,99,99,0,0,0,0,0
5,59999,65,50000,15,10000,41,9999,0.100000,99,0,0.000000,14,3.000000,17.963847,14.144163,99,99,0,0,0,0,0
5,59999,66,50000,15,10000,0,9999,0.100000,99,0,0.000470,14,0.000000,28.160920,0.070896,99,99,0,0,0,0,1
5,59999,67,50000,21,0,40,9999,0.100000,99,0,0.000000,14,0.000000,21.189697,0.945566,99,99,0,0,0,0,0
5,59999,68,50000,21,0,0,9999,0.100000,99,0,0.006409,14,0.000000,24.998441,0.092001,99,99,0,0,0,0,1
5,59999,69,50000,99,0,40,9999,0.100000,99,0,0.000000,14,0.000000,17.130230,0.156821,99,99,0,0,0,0,0
5,59999,70,50000,30,10000,40,9999,0.100000,99,0,0.000000,14,0.000000,24.846220,0.232195,99,99,0,0,0,0,0
5,59999,71,50000,99,30000,40,9999,0.100000,99,0,0.000000,14,0.000000,22.463326,0.103400,99,99,0,0,0,0,0
5,59999,72,50000,15,10000,40,9999,0.100000,99,0,0.000000,14,0.000000,26.035337,0.498897,99,99,0,0,0,0,0
5,59999,73,50000,62,30000,40,9999,0.100000,99,0,0.000000,14,0.000000,18.577355,15.200263,99,99,0,0,0,0,0
5,59999,74,50000,62,30000,90,9999,0.100000,99,0,5.866375,14,1.000000,16.594508,1.566201,99,99,1,0,0,0,0
5,59999,75,50000,23,0,40,9999,0.100000,99,0,0.000000,14,1.000000,31.719436,6.649175,99,99,0,0,0,0,0
5,59999,76,50000,25,0,40,9999,0.100000,99,0,0.000000,14,0.000000,24.945752,0.412720,99,99,0,0,0,0,0
5,59999,77,50000,80,20000,40,9999,0.100000,99,0,0.000000,14,0.000000,25.337620,1.838456,99,99,0,0,0,0,0
5,59999,78,50000,30,10000,40,9999,0.100000,99,0,0.000000,14,0.000000,24.287075,0.256053,99,99,0,0,0,0,0
5,59999,79,50000,99,30000,41,9999,0.100000,99,0,0.000000,14,4.000000,28.024356,7.085955,99,99,0,0,0,0,0
5,59999,80,50000,15,0,41,9999,0.100000,99,0,0.000000,14,3.000000,25.589501,9.300909,99,99,0,0,0,0,0
5,59999,81,50000,21,0,91,9999,0.100000,99,0,10.517207,14,2.000000,18.911774,2.359676,99,99,1,0,0,0,0
5,59999,82,50000,80,20000,40,9999,0.100000,99,0,0.000000,14,0.000000,18.246241,0.440847,99,99,0,0,0,0,0
5,59999,83,50000,13,40000,40,9999,0.100000,99,0,0.000000,14,0.000000,25.677354,0.549052,99,99,0,0,0,0,0
5,59999,84,50000,13,40000,40,9999,0.100000,99,0,0.000000,14,0.000000,28.047442,0.115930,99,99,0,0,0,0,0
5,59999,85,50000,15,10000,40,9999,0.100000,99,0,0.000000,14,0.000000,17.089493,0.153141,99,99,0,0,0,0,0
5,59999,86,50000,80,20000,40,9999,0.100000,99,0,0.000000,14,2.000000,31.217910,12.608700,99,99,0,0,0,0,0
5,59999,87,50000,71,0,40,9999,0.100000,99,0,0.000000,14,2.000000,35.278186,10.966287,99,99,0,0,0,0,0
5,59999,88,50000,21,0,40,9999,0.100000,99,0,0.000000,14,0.000000,24.969863,0.375888,99,99,0,0,0,0,0
5,59999,89,50000,99,30000,41,9999,0.100000,99,0,0.000000,14,4.000000,19.587658,13.216071,99,99,0,0,0,0,0
5,59999,90,50000,53,20000,40,9999,0.100000,99,0,0.000000,14,0.000000,18.616985,0.227591,99,99,0,0,0,0,0
5,59999,91,50000,15,10000,40,9999,0.100000,99,0,0.000000,14,3.000000,29.748366,6.776890,99,99,0,0,0,0,0
5,59999,92,50000,21,0,40,9999,0.100000,99,0,0.000000,14,0.000000,29.951994,2.326118,99,99,0,0,0,0,0
5,59999,93,50000,21,0,40,9999,0.100000,99,0,0.000000,14,0.000000,23.314343,0.293256,99,99,0,0,0,0,0
5,59999,94,50000,53,20000,40,9999,0.100000,99,0,0.000000,14,0.000000,25.838238,2.114353,99,99,0,0,0,0,0
5,59999,95,50000,99,0,40,9999,0.100000,99,0,0.000000,14,0.000000,17.093402,0.305087,99,99,0,0,0,0,0
5,59999,96,50000,49,0,41,9999,0.100000,99,0,0.000000,14,6.000000,30.646057,17.920721,99,99,0,0,0,0,0
5,59999,97,50000,99,30000,40,9999,0.100000,99,0,0.000000,14,1.000000,24.060337,10.236932,99,99,0,0,0,0,0
5,59999,98,50000,25,0,40,9999,0.100000,99,0,0.000000,14,0.000000,24.402129,0.073439,99,99,0,0,0,0,0
5,59999,99,50000,15,0,40,9999,0.100000,99,0,0.000000,14,1.000000,28.870001,5.286566,99,99,0,0,0,0,0
6,69999,0,60000,15,0,40,9999,0.100000,99,0,0.000000,14,0.000000,33.747299,7.341973,99,99,0,0,0,0,0
6,69999,1,60000,30,10000,0,9999,0.100000,99,0,0.094521,14,0.000000,18.791102,0.134519,99,99,0,0,0,0,1
6,69999,2,60000,25,0,41,9999,0.100000,99,0,0.000000,14,5.000000,34.415681,14.116474,99,99,0,0,0,0,0
6,69999,3,60000,15,10000,40,9999,0.100000,99,0,0.000000,14,3.000000,28.589125,6.961169,99,99,0,0,0,0,0
6,69999,4,60000,53,20000,40,9999,0.100000,99,0,0.000000,14,0.000000,19.260571,0.938910,99,99,0,0,0,0,0
6,69999,5,60000,99,30000,0,9999,0.100000,99,0,0.420614,14,0.000000,18.896636,0.197570,99,99,0,0,0,0,1
6,69999,6,60000,25,0,40,9999,0.100000,99,0,0.000000,14,2.000000,27.527519,13.028927,99,99,0,0,0,0,0
6,69999,7,60000,81,50000,40,9999,0.100000,99,0,0.000000,14,1.000000,32.973712,8.110334,99,99,0,0,0,0,0
6,69999,8,60000,80,20000,40,9999,0.100000,99,0,0.000000,14,3.000000,29.542540,11.831870,99,99,0,0,0,0,0
6,69999,9,60000,81,50000,0,9999,0.100000,99,0,2.383129,14,3.000000,32.926808,6.572745,99,99,0,1,0,0,0
6,69999,10,60000,13,40000,0,9999,0.100000,99,0,0.369629,14,0.000000,24.419110,0.151986,99,99,0,0,0,1,0
6,69999,11,60000,99,30000,0,9999,0.100000,99,0,0.019971,14,0.000000,22.402145,0.194562,99,99,0,0,0,1,0
6,69999,12,60000,25,0,40,9999,0.100000,99,0,0.000000,14,0.000000,12.898447,15.521621,99,99,0,0,0,0,0
6,69999,13,60000,62,30000,40,9999,0.100000,99,0,0.000000,14,1.000000,18.254157,9.069365,99,99,0,0,0,0,0
6,69999,14,60000,99,0,40,9999,0.100000,99,0,0.000000,14,0.000000,24.135189,0.456608,99,99,0,0,0,0,0
6,69999,15,60000,21,0,0,9999,0.100000,99,0,2.869823,14,1.000000,30.555486,1.799832,99,99,0,0,1,0,0
6,69999,16,60000,99,30000,40,9999,0.100000,99,0,0.000000,14,2.000000,28.855744,13.524120,99,99,0,0,0,0,0
6,69999,17,60000,15,0,40,9999,0.100000,99,0,0.000000,14,1.000000,25.856318,22.922844,99,99,0,0,0,0,0
6,69999,18,60000,49,0,0,9999,0.100000,99,0,3.998078,14,0.000000,25.298833,1.158701,99,99,0,1,0,0,0
6,69999,19,60000,49,0,0,9999,0.100000,99,0,0.397457,14,0.000000,30.078520,0.613250,99,99,0,0,0,1,0
6,69999,20,60000,99,0,40,9999,0.100000,99,0,0.000000,14,0.000000,19.085962,1.255217,99,99,0,0,0,0,0
6,69999,21,60000,99,0,41,9999,0.100000,99,0,0.000000,14,4.000000,22.873199,13.823474,99,99,0,0,0,0,0
6,69999,22,60000,99,30000,40,9999,0.100000,99,0,0.000000,14,2.000000,33.409978,19.005974,99,99,0,0,0,0,0
6,69999,23,60000,99,30000,42,9999,0.100000,99,0,0.000000,14,5.000000,19.160341,14.586070,99,99,0,0,0,0,0
6,69999,24,60000,25,0,40,9999,0.100000,99,0,0.000000,14,0.000000,35.861269,10.099419,99,99,0,0,0,0,0
6,69999,25,60000,49,0,0,9999,0.100000,99,0,0.306220,14,0.000000,26.002661,0.521630,99,99,0,0,0,1,0
6,69999,26,60000,62,30000,40,9999,0.100000,99,0,0.000000,14,0.000000,18.904302,0.135862,99,99,0,0,0,0,0
6,69999,27,60000,49,0,40,9999,0.100000,99,0,0.000000,14,0.000000,27.207273,0.992560,99,99,0,0,0,0,0
6,69999,28,60000,25,0,0,9999,0.100000,99,0,0.075233,14,0.000000,13.551727,0.155889,99,99,0,0,0,1,0
6,69999,29,60000,23,0,40,9999,0.100000,99,0,0.000000,14,0.000000,19.125919,0.409080,99,99,0,0,0,0,0
6,69999,30,60000,30,10000,41,9999,0.100000,99,0,0.000000,14,6.000000,28.535933,13.772781,99,99,0,0,0,0,0
6,69999,31,60000,80,20000,40,9999,0.100000,99,0,0.000000,14,2.000000,25.856510,19.676710,99,99,0,0,0,0,0
6,69999,32,60000,80,20000,40,9999,0.100000,99,0,0.000000,14,0.000000,32.327055,2.486530,99,99,0,0,0,0,0
6,69999,33,60000,23,0,40,9999,0.100000,99,0,0.000000,14,2.000000,24.699599,9.860694,99,99,0,0,0,0,0
6,69999,34,60000,23,0,40,9999,0.100000,99,0,0.000000,14,0.000000,17.855559,0.792978,99,99,0,0,0,0,0
6,69999,35,60000,30,10000,40,9999,0.100000,99,0,0.000000,14,0.000000,30.189722,0.988665,99,99,0,0,0,0,0
6,69999,36,60000,53,20000,40,9999,0.100000,99,0,0.000000,14,1.000000,30.618375,6.826701,99,99,0,0,0,0,0
6,69999,37,60000,53,20000,40,9999,0.100000,99,0,0.000000,14,0.000000,18.442796,0.371086,99,99,0,0,0,0,0
6,69999,38,60000,53,20000,90,9999,0.100000,99,0,2.985094,14,0.000000,29.451857,1.081566,99,99,1,0,0,0,0
6,69999,39,60000,15,10000,0,9999,0.100000,99,0,0.137813,14,0.000000,23.773238,0.159143,99,99,0,1,0,0,0
6,69999,40,60000,30,10000,41,9999,0.100000,99,0,0.000000,14,3.000000,22.450865,13.581318,99,99,0,0,0,0,0
6,69999,41,60000,80,20000,40,9999,0.100000,99,0,0.000000,14,0.000000,25.263995,1.541105,99,99,0,0,0,0,0
6,69999,42,60000,49,0,41,9999,0.100000,99,0,0.000000,14,4.000000,32.707436,7.046241,99,99,0,0,0,0,0
6,69999,43,60000,25,0,40,9999,0.100000,99,0,0.000000,14,0.000000,12.767376,0.169400,99,99,0,0,0,0,0
6,69999,44,60000,99,30000,40,9999,0.100000,99,0,0.000000,14,2.000000,25.728831,10.191294,99,99,0,0,0,0,0
6,69999,45,60000,30,10000,40,9999,0.100000,99,0,0.000000,14,3.000000,28.867662,9.759225,99,99,0,0,0,0,0
6,69999,46,60000,71,0,0,9999,0.100000,99,0,0.015420,14,0.000000,17.160702,0.237412,99,99,0,0,0,0,1
6,69999,47,60000,99,30000,40,9999,0.100000,99,0,0.000000,14,1.000000,30.890727,1.747498,99,99,0,0,0,0,0
6,69999,48,60000,30,10000,42,9999,0.100000,99,0,0.000000,14,7.000000,29.180576,14.022097,99,99,0,0,0,0,0
6,69999,49,60000,23,0,40,9999,0.100000,99,0,0.000000,14,0.000000,24.682804,2.485479,99,99,0,0,0,0,0
6,69999,50,60000,21,0,40,9999,0.100000,99,0,0.000000,14,3.000000,32.121487,9.245828,99,99,0,0,0,0,0
6,69999,51,60000,30,10000,40,9999,0.065000,99,0,0.000000,14,1.000000,33.092131,6.683075,99,99,0,0,0,0,0
6,69999,52,60000,99,30000,40,9999,0.100000,99,0,0.000000,14,2.000000,34.908554,13.027463,99,99,0,0,0,0,0
6,69999,53,60000,13,40000,40,9999,0.100000,99,0,0.000000,14,2.000000,22.472960,13.834420,99,99,0,0,0,0,0
6,69999,54,60000,30,10000,40,9999,0.100000,99,0,0.000000,14,0.000000,29.595726,0.225942,99,99,0,0,0,0,0
6,69999,55,60000,15,0,40,9999,0.100000,99,0,0.000000,14,0.000000,25.653860,0.717654,99,99,0,0,0,0,0
6,69999,56,60000,21,0,41,9999,0.100000,99,0,0.000000,14,2.000000,18.541141,8.523832,99,99,0,0,0,0,0
6,69999,57,60000,13,40000,40,9999,0.100000,99,0,0.000000,14,3.000000,32.184523,9.305211,99,99,0,0,0,0,0
6,69999,58,60000,53,20000,40,9999,0.100000,99,0,0.000000,14,0.000000,25.715546,0.834849,99,99,0,0,0,0,0
6,69999,59,60000,21,0,40,9999,0.100000,99,0,0.000000,14,0.000000,28.746304,0.314198,99,99,0,0,0,0,0
6,69999,60,60000,99,30000,40,9999,0.100000,99,0,0.000000,14,1.000000,30.726735,1.702520,99,99,0,0,0,0,0
6,69999,61,60000,53,20000,40,9999,0.100000,99,0,0.000000,14,3.000000,35.355964,12.726760,99,99,0,0,0,0,0
6,69999,62,60000,13,40000,40,9999,0.100000,99,0,0.000000,14,1.000000,29.957833,12.570661,99,99,0,0,0,0,0
6,69999,63,60000,25,0,40,9999,0.100000,99,0,0.000000,14,1.000000,34.455938,19.754102,99,99,0,0,0,0,0
6,69999,64,60000,62,30000,40,9999,0.100000,99,0,0.000000,14,2.000000,29.213052,8.454752,99,99,0,0,0,0,0
6,69999,65,60000,21,0,40,9999,0.100000,99,0,0.000000,14,0.000000,18.750278,1.638692,99,99,0,0,0,0,0
6,69999,66,60000,15,0,0,9999,0.100000,99,0,0.000247,14,0.000000,28.160600,0.070205,99,99,0,0,0,0,1
6,69999,67,60000,49,0,40,9999,0.100000,99,0,0.000000,14,0.000000,20.489116,0.901287,99,99,0,0,0,0,0
6,69999,68,60000,15,10000,0,9999,0.100000,99,0,0.006577,14,0.000000,24.961613,0.084370,99,99,0,0,0,0,1
6,69999,69,60000,15,10000,40,9999,0.100000,99,0,0.000000,14,0.000000,17.152532,0.173703,99,99,0,0,0,0,0
6,69999,70,60000,13,40000,40,9999,0.100000,99,0,0.000000,14,0.000000,24.808336,0.234839,99,99,0,0,0,0,0
6,69999,71,60000,99,0,40,9999,0.100000,99,0,0.000000,14,0.000000,22.459662,0.094542,99,99,0,0,0,0,0
6,69999,72,60000,13,40000,40,9999,0.100000,99,0,0.000000,14,0.000000,25.807388,0.552952,99,99,0,0,0,0,0
6,69999,73,60000,80,20000,40,9999,0.100000,99,0,0.000000,14,0.000000,18.268048,0.935256,99,99,0,0,0,0,0
6,69999,74,60000,99,30000,91,9999,0.100000,99,0,10.894642,14,2.000000,17.645764,2.465777,99,99,1,0,0,0,0
6,69999,75,60000,15,0,40,9999,0.100000,99,0,0.000000,14,1.000000,32.229950,8.648792,99,99,0,0,0,0,0
6,69999,76,60000,62,30000,40,9999,0.100000,99,0,0.000000,14,0.000000,24.907721,0.407586,99,99,0,0,0,0,0
6,69999,77,60000,25,0,40,9999,0.100000,99,0,0.000000,14,0.000000,25.535760,1.973549,99,99,0,0,0,0,0
6,69999,78,60000,49,0,40,9999,0.100000,99,0,0.000000,14,0.000000,24.173550,0.198314,99,99,0,0,0,0,0
6,69999,79,60000,49,0,40,9999,0.100000,99,0,0.000000,14,0.000000,24.459532,2.265569,99,99,0,0,0,0,0
6,69999,80,60000,15,10000,41,9999,0.100000,99,0,0.000000,14,3.000000,28.341541,7.541789,99,99,0,0,0,0,0
6,69999,81,60000,53,20000,95,9999,0.100000,99,0,58.108099,14,11.000000,20.217837,19.585901,99,99,1,0,0,0,0
6,69999,82,60000,80,20000,40,9999,0.100000,99,0,0.000000,14,0.000000,18.208609,0.432280,99,99,0,0,0,0,0
6,69999,83,60000,25,0,40,9999,0.100000,99,0,0.000000,14,0.000000,25.401748,0.682979,99,99,0,0,0,0,0
6,69999,84,60000,62,30000,40,9999,0.100000,99,0,0.000000,14,0.000000,28.047189,0.114898,99,99,0,0,0,0,0
6,69999,85,60000,25,0,40,9999,0.100000,99,0,0.000000,14,0.000000,17.128324,0.187257,99,99,0,0,0,0,0
6,69999,86,60000,13,40000,40,9999,0.100000,99,0,0.000000,14,1.000000,33.490375,16.872335,99,99,0,0,0,0,0
6,69999,87,60000,53,20000,40,9999,0.100000,99,0,0.000000,14,2.000000,34.530403,17.792576,99,99,0,0,0,0,0
6,69999,88,60000,53,20000,40,9999,0.100000,99,0,0.000000,14,0.000000,24.931687,0.372993,99,99,0,0,0,0,0
6,69999,89,60000,30,10000,42,9999,0.100000,99,0,0.000000,14,4.000000,16.099916,14.245338,99,99,0,0,0,0,0
6,69999,90,60000,15,0,40,9999,0.100000,99,0,0.000000,14,0.000000,18.579743,1.318734,99,99,0,0,0,0,0
6,69999,91,60000,13,40000,42,9999,0.100000,99,0,0.000000,14,8.000000,26.651862,15.674872,99,99,0,0,0,0,0
6,69999,92,60000,62,30000,40,9999,0.100000,99,0,0.000000,14,0.000000,29.975824,2.260062,99,99,0,0,0,0,0
6,69999,93,60000,53,20000,40,9999,0.100000,99,0,0.000000,14,0.000000,23.388241,0.324975,99,99,0,0,0,0,0
6,69999,94,60000,15,0,40,9999,0.100000,99,0,0.000000,14,0.000000,25.565728,2.453471,99,99,0,0,0,0,0
6,69999,95,60000,13,40000,40,9999,0.100000,99,0,0.000000,14,0.000000,17.175997,0.310047,99,99,0,0,0,0,0
6,69999,96,60000,49,0,40,9999,0.100000,99,0,0.000000,14,2.000000,26.053446,13.769042,99,99,0,0,0,0,0
6,69999,97,60000,99,0,40,9999,0.100000,99,0,0.000000,14,0.000000,24.856051,15.352456,99,99,0,0,0,0,0
6,69999,98,60000,49,0,40,9999,0.100000,99,0,0.000000,14,0.000000,24.366240,0.071952,99,99,0,0,0,0,0
6,69999,99,60000,49,0,41,9999,0.100000,99,0,0.000000,14,4.000000,28.592762,17.434413,99,99,0,0,0,0,0
7,79999,0,70000,13,40000,40,9999,0.100000,99,0,0.000000,14,2.000000,33.758200,18.139249,99,99,0,0,0,0,0
7,79999,1,70000,49,0,0,9999,0.100000,99,0,0.005042,14,0.000000,18.787111,0.111407,99,99,0,0,0,0,1
7,79999,2,70000,25,0,40,9999,0.100000,99,0,0.000000,14,1.000000,31.115891,9.422437,99,99,0,0,0,0,0
7,79999,3,70000,21,0,40,9999,0.100000,99,0,0.000000,14,1.000000,25.875697,17.447209,99,99,0,0,0,0,0
7,79999,4,70000,62,30000,40,9999,0.100000,99,0,0.000000,14,0.000000,19.245781,0.289513,99,99,0,0,0,0,0
7,79999,5,70000,80,20000,0,9999,0.100000,99,0,0.149602,14,0.000000,18.792693,0.172156,99,99,0,0,0,0,1
7,79999,6,70000,80,20000,40,9999,0.100000,99,0,0.000000,14,2.000000,29.246065,10.937921,99,99,0,0,0,0,0
7,79999,7,70000,49,0,41,9999,0.100000,99,0,0.000000,14,5.000000,31.911452,18.172787,99,99,0,0,0,0,0
7,79999,8,70000,30,10000,42,9999,0.100000,99,0,0.000000,14,6.000000,28.335754,15.013734,99,99,0,0,0,0,0
7,79999,9,70000,21,0,0,9999,0.100000,99,0,10.941190,14,1.000000,35.306488,7.179230,99,99,0,1,0,0,0
7,79999,10,70000,25,0,0,9999,0.100000,99,0,0.145125,14,0.000000,24.512848,0.335283,99,99,0,0,0,1,0
7,79999,11,70000,13,40000,0,9999,0.100000,99,0,0.012699,14,0.000000,22.397434,0.189250,99,99,0,0,0,1,0
7,79999,12,70000,74,60000,40,9999,0.100000,99,0,0.000000,14,0.000000,12.714951,16.640987,99,99,0,0,0,0,0
7,79999,13,70000,15,10000,41,9999,0.100000,99,0,0.000000,14,2.000000,18.587794,9.193737,99,99,0,0,0,0,0
7,79999,14,70000,25,0,40,9999,0.100000,99,0,0.000000,14,0.000000,24.111954,0.730554,99,99,0,0,0,0,0
7,79999,15,70000,21,0,0,9999,0.100000,99,0,5.291333,14,1.000000,31.459958,2.407296,99,99,0,0,1,0,0
7,79999,16,70000,25,0,40,9999,0.100000,99,0,0.000000,14,0.000000,29.315095,9.557565,99,99,0,0,0,0,0
7,79999,17,70000,49,0,40,9999,0.100000,99,0,0.000000,14,1.000000,25.508391,5.945607,99,99,0,0,0,0,0
7,79999,18,70000,15,0,0,9999,0.100000,99,0,5.091863,14,1.000000,25.630173,1.340287,99,99,0,1,0,0,0
7,79999,19,70000,21,0,0,9999,0.100000,99,0,0.216888,14,0.000000,30.080989,0.672991,99,99,0,0,0,1,0
7,79999,20,70000,74,60000,40,9999,0.100000,99,0,0.000000,14,0.000000,18.988462,0.085155,99,99,0,0,0,0,0
7,79999,21,70000,99,30000,41,9999,0.100000,99,0,0.000000,14,3.000000,19.182965,11.091362,99,99,0,0,0,0,0
7,79999,22,70000,25,0,40,9999,0.100000,99,0,0.000000,14,3.000000,34.194400,14.327425,99,99,0,0,0,0,0
7,79999,23,70000,15,10000,42,9999,0.100000,99,0,0.000000,14,4.000000,13.931035,6.719310,99,99,0,0,0,0,0
7,79999,24,70000,13,40000,40,9999,0.100000,99,0,0.000000,14,0.000000,35.410938,7.422511,99,99,0,0,0,0,0
7,79999,25,70000,99,0,0,9999,0.100000,99,0,0.029222,14,1.000000,25.936573,1.382900,99,99,0,0,0,1,0
7,79999,26,70000,25,0,40,9999,0.100000,99,0,0.000000,14,0.000000,18.890996,0.100877,99,99,0,0,0,0,0
7,79999,27,70000,74,60000,41,9999,0.100000,99,0,0.000000,14,3.000000,26.434539,7.103987,99,99,0,0,0,0,0
7,79999,28,70000,53,20000,0,9999,0.100000,99,0,0.288347,14,0.000000,13.561066,0.196517,99,99,0,0,0,1,0
7,79999,29,70000,62,30000,40,9999,0.100000,99,0,0.000000,14,0.000000,19.095172,0.276219,99,99,0,0,0,0,0
7,79999,30,70000,81,50000,40,9999,0.100000,99,0,0.000000,14,1.000000,22.232001,10.096437,99,99,0,0,0,0,0
7,79999,31,70000,74,60000,40,9999,0.100000,99,0,0.000000,14,1.000000,25.817231,16.908624,99,99,0,0,0,0,0
7,79999,32,70000,23,0,40,9999,0.100000,99,0,0.000000,14,2.000000,32.348681,11.817873,99,99,0,0,0,0,0
7,79999,33,70000,15,10000,40,9999,0.100000,99,0,0.000000,14,2.000000,25.583436,7.493732,99,99,0,0,0,0,0
7,79999,34,70000,49,0,40,9999,0.100000,99,0,0.000000,14,0.000000,17.787522,0.869363,99,99,0,0,0,0,0
7,79999,35,70000,62,30000,40,9999,0.100000,99,0,0.000000,14,0.000000,30.194447,1.486745,99,99,0,0,0,0,0
7,79999,36,70000,30,10000,40,9999,0.100000,99,0,0.000000,14,1.000000,30.285743,8.643201,99,99,0,0,0,0,0
7,79999,37,70000,15,10000,40,9999,0.100000,99,0,0.000000,14,0.000000,18.310594,0.608319,99,99,0,0,0,0,0
7,79999,38,70000,99,0,90,9999,0.100000,99,0,8.855957,14,1.000000,29.949949,12.110041,99,99,1,0,0,0,0
7,79999,39,70000,49,0,0,9999,0.100000,99,0,1.489118,14,0.000000,23.757298,0.484500,99,99,0,1,0,0,0
7,79999,40,70000,15,0,40,9999,0.100000,99,0,0.000000,14,0.000000,18.768579,1.612981,99,99,0,0,0,0,0
7,79999,41,70000,15,10000,40,9999,0.100000,99,0,0.000000,14,1.000000,25.160829,10.344499,99,99,0,0,0,0,0
7,79999,42,70000,21,0,0,9999,0.100000,99,0,10.941256,14,2.000000,35.104213,4.726817,99,99,0,1,0,0,0
7,79999,43,70000,13,40000,40,9999,0.100000,99,0,0.000000,14,0.000000,12.783087,0.652241,99,99,0,0,0,0,0
7,79999,44,70000,15,10000,40,9999,0.100000,99,0,0.000000,14,1.000000,28.331807,4.094072,99,99,0,0,0,0,0
7,79999,45,70000,53,20000,40,9999,0.100000,99,0,0.000000,14,2.000000,26.188419,7.791287,99,99,0,0,0,0,0
7,79999,46,70000,99,30000,0,9999,0.100000,99,0,0.044859,14,0.000000,17.168645,0.200686,99,99,0,0,0,0,1
7,79999,47,70000,13,40000,40,9999,0.100000,99,0,0.000000,14,1.000000,31.737902,2.599497,99,99,0,0,0,0,0
7,79999,48,70000,15,10000,41,9999,0.100000,99,0,0.000000,14,3.000000,27.470034,6.575353,99,99,0,0,0,0,0
7,79999,49,70000,25,0,40,9999,0.100000,99,0,0.000000,14,2.000000,24.980151,7.181454,99,99,0,0,0,0,0
7,79999,50,70000,80,20000,40,9999,0.100000,99,0,0.000000,14,1.000000,29.063025,19.765614,99,99,0,0,0,0,0
7,79999,51,70000,80,20000,40,9999,0.100000,99,0,0.000000,14,1.000000,33.485894,8.544138,99,99,0,0,0,0,0
7,79999,52,70000,15,10000,41,9999,0.100000,99,0,0.000000,14,5.000000,34.068420,15.232779,99,99,0,0,0,0,0
7,79999,53,70000,15,10000,41,9999,0.100000,99,0,0.000000,14,3.000000,21.420460,8.122005,99,99,0,0,0,0,0
7,79999,54,70000,80,20000,40,9999,0.100000,99,0,0.000000,14,0.000000,29.602023,0.227606,99,99,0,0,0,0,0
7,79999,55,70000,62,30000,40,9999,0.100000,99,0,0.000000,14,1.000000,25.593833,2.341638,99,99,0,0,0,0,0
7,79999,56,70000,23,0,40,9999,0.100000,99,0,0.000000,14,1.000000,19.171857,6.438367,99,99,0,0,0,0,0
7,79999,57,70000,13,40000,40,9999,0.100000,99,0,0.000000,14,0.000000,35.506187,0.227190,99,99,0,0,0,0,0
7,79999,58,70000,99,30000,40,9999,0.100000,99,0,0.000000,14,1.000000,25.639659,4.703468,99,99,0,0,0,0,0
7,79999,59,70000,99,0,40,9999,0.100000,99,0,0.000000,14,0.000000,28.786889,0.302234,99,99,0,0,0,0,0
7,79999,60,70000,30,10000,40,9999,0.100000,99,0,0.000000,14,1.000000,31.598972,2.418578,99,99,0,0,0,0,0
7,79999,61,70000,53,20000,40,9999,0.100000,99,0,0.000000,14,1.000000,32.693417,17.944677,99,99,0,0,0,0,0
7,79999,62,70000,80,20000,40,9999,0.100000,99,0,0.000000,14,1.000000,29.869538,12.524509,99,99,0,0,0,0,0
7,79999,63,70000,49,0,41,9999,0.100000,99,0,0.000000,14,5.000000,34.035327,15.680586,99,99,0,0,0,0,0
7,79999,64,70000,99,30000,41,9999,0.100000,99,0,0.000000,14,3.000000,28.292070,8.393948,99,99,0,0,0,0,0
7,79999,65,70000,15,10000,40,9999,0.100000,99,0,0.000000,14,0.000000,18.492028,1.332322,99,99,0,0,0,0,0
7,79999,66,70000,15,0,0,9999,0.100000,99,0,0.001076,14,0.000000,28.160770,0.068866,99,99,0,0,0,0,1
7,79999,67,70000,15,0,40,9999,0.100000,99,0,0.000000,14,1.000000,19.809478,8.276311,99,99,0,0,0,0,0
7,79999,68,70000,80,20000,0,9999,0.100000,99,0,0.004779,14,0.000000,24.925025,0.091268,99,99,0,0,0,0,1
7,79999,69,70000,23,0,40,9999,0.100000,99,0,0.000000,14,0.000000,17.183632,0.156474,99,99,0,0,0,0,0
7,79999,70,70000,62,30000,40,9999,0.100000,99,0,0.000000,14,0.000000,24.770637,0.230084,99,99,0,0,0,0,0
7,79999,71,70000,23,0,40,9999,0.100000,99,0,0.000000,14,0.000000,22.457878,0.084456,99,99,0,0,0,0,0
7,79999,72,70000,62,30000,40,9999,0.100000,99,0,0.000000,14,1.000000,25.738530,5.354948,99,99,0,0,0,0,0
7,79999,73,70000,25,0,40,9999,0.100000,99,0,0.000000,14,0.000000,18.134132,0.932775,99,99,0,0,0,0,0
7,79999,74,70000,99,0,90,9999,0.100000,99,0,11.017662,14,2.000000,19.642979,2.476151,99,99,1,0,0,0,0
7,79999,75,70000,13,40000,40,9999,0.100000,99,0,0.000000,14,2.000000,31.592601,12.421876,99,99,0,0,0,0,0
7,79999,76,70000,23,0,40,9999,0.100000,99,0,0.000000,14,0.000000,24.870130,0.412486,99,99,0,0,0,0,0
7,79999,77,70000,15,0,40,9999,0.100000,99,0,0.000000,14,1.000000,25.862013,2.085975,99,99,0,0,0,0,0
7,79999,78,70000,30,10000,40,9999,0.100000,99,0,0.000000,14,0.000000,24.166162,0.564455,99,99,0,0,0,0,0
7,79999,79,70000,74,60000,40,9999,0.100000,99,0,0.000000,14,1.000000,24.835744,5.697533,99,99,0,0,0,0,0
7,79999,80,70000,23,0,40,9999,0.100000,99,0,0.000000,14,1.000000,25.779566,10.013778,99,99,0,0,0,0,0
7,79999,81,70000,53,20000,40,9999,0.100000,99,0,0.000000,14,1.000000,27.991772,7.795648,99,99,0,0,0,0,0
7,79999,82,70000,15,0,40,9999,0.100000,99,0,0.000000,14,0.000000,18.068916,0.385139,99,99,0,0,0,0,0
7,79999,83,70000,15,0,40,9999,0.100000,99,0,0.000000,14,1.000000,25.305906,1.563906,99,99,0,0,0,0,0
7,79999,84,70000,49,0,40,9999,0.100000,99,0,0.000000,14,0.000000,28.047348,0.120628,99,99,0,0,0,0,0
7,79999,85,70000,13,40000,40,9999,0.100000,99,0,0.000000,14,0.000000,17.178598,0.191485,99,99,0,0,0,0,0
7,79999,86,70000,13,40000,40,9999,0.100000,99,0,0.000000,14,0.000000,34.785577,17.815761,99,99,0,0,0,0,0
7,79999,87,70000,30,10000,40,9999,0.100000,99,0,0.000000,14,2.000000,34.523094,20.755300,99,99,0,0,0,0,0
7,79999,88,70000,99,30000,40,9999,0.100000,99,0,0.000000,14,0.000000,24.894050,0.380222,99,99,0,0,0,0,0
7,79999,89,70000,53,20000,40,9999,0.100000,99,0,0.000000,14,0.000000,12.717454,1.254101,99,99,0,0,0,0,0
7,79999,90,70000,62,30000,40,9999,0.100000,99,0,0.000000,14,0.000000,18.415310,0.729677,99,99,0,0,0,0,0
7,79999,91,70000,53,20000,40,9999,0.100000,99,0,0.000000,14,1.000000,19.209616,4.418519,99,99,0,0,0,0,0
7,79999,92,70000,21,0,40,9999,0.100000,99,0,0.000000,14,0.000000,29.985019,2.433130,99,99,0,0,0,0,0
7,79999,93,70000,53,20000,40,9999,0.100000,99,0,0.000000,14,0.000000,23.563330,0.399076,99,99,0,0,0,0,0
7,79999,94,70000,25,0,40,9999,0.100000,99,0,0.000000,14,1.000000,25.505026,2.201801,99,99,0,0,0,0,0
7,79999,95,70000,53,20000,40,9999,0.100000,99,0,0.000000,14,0.000000,17.275716,0.295080,99,99,0,0,0,0,0
7,79999,96,70000,81,50000,40,9999,0.100000,99,0,0.000000,14,1.000000,23.712741,7.143270,99,99,0,0,0,0,0
7,79999,97,70000,13,40000,40,9999,0.100000,99,0,0.000000,14,1.000000,25.261783,2.755337,99,99,0,0,0,0,0
7,79999,98,70000,74,60000,40,9999,0.100000,99,0,0.000000,14,0.000000,24.331036,0.076918,99,99,0,0,0,0,0
7,79999,99,70000,99,30000,40,9999,0.100000,99,0,0.000000,14,1.000000,26.256794,24.717431,99,99,0,0,0,0,0
8,89999,0,80000,13,40000,40,9999,0.100000,99,0,0.000000,14,0.000000,33.421194,19.480806,99,99,0,0,0,0,0
8,89999,1,80000,49,0,0,9999,0.100000,99,0,0.048432,14,0.000000,18.793784,0.104543,99,99,0,0,0,0,1
8,89999,2,80000,21,0,40,9999,0.100000,99,0,0.000000,14,2.000000,29.981687,6.351463,99,99,0,0,0,0,0
8,89999,3,80000,49,0,40,9999,0.100000,99,0,0.000000,14,2.000000,24.790226,13.386255,99,99,0,0,0,0,0
8,89999,4,80000,99,0,40,9999,0.100000,99,0,0.000000,14,0.000000,19.244306,0.269411,99,99,0,0,0,0,0
8,89999,5,80000,80,20000,0,9999,0.100000,99,0,0.404040,14,0.000000,18.745316,0.670252,99,99,0,0,0,0,1
8,89999,6,80000,25,0,40,9999,0.100000,99,0,0.000000,14,1.000000,28.084249,12.132735,99,99,0,0,0,0,0
8,89999,7,80000,23,0,40,9999,0.100000,99,0,0.000000,14,1.000000,26.946574,10.492237,99,99,0,0,0,0,0
8,89999,8,80000,80,20000,40,9999,0.100000,99,0,0.000000,14,2.000000,21.484842,10.936749,99,99,0,0,0,0,0
8,89999,9,80000,80,20000,40,9999,0.100000,99,0,0.000000,14,2.000000,35.532753,12.332786,99,99,0,0,0,0,0
8,89999,10,80000,62,30000,0,9999,0.100000,99,0,0.129035,14,0.000000,24.806867,0.293904,99,99,0,0,0,1,0
8,89999,11,80000,25,0,0,9999,0.100000,99,0,0.010124,14,0.000000,22.393446,0.194289,99,99,0,0,0,1,0
8,89999,12,80000,25,0,40,9999,0.100000,99,0,0.000000,14,1.000000,13.147126,7.537627,99,99,0,0,0,0,0
8,89999,13,80000,74,70000,40,9999,0.100000,99,0,0.000000,14,0.000000,17.911374,18.621282,99,99,0,0,0,0,0
8,89999,14,80000,15,0,40,9999,0.100000,99,0,0.000000,14,0.000000,24.465456,0.781120,99,99,0,0,0,0,0
8,89999,15,80000,21,0,0,9999,0.100000,99,0,6.325536,14,1.000000,32.015910,1.946208,99,99,0,0,1,0,0
8,89999,16,80000,15,0,40,9999,0.100000,99,0,0.000000,14,0.000000,29.229507,6.258897,99,99,0,0,0,0,0
8,89999,17,80000,21,0,42,9999,0.100000,99,0,0.000000,14,7.000000,24.830273,8.903715,99,99,0,0,0,0,0
8,89999,18,80000,21,0,0,9999,0.100000,99,0,7.072594,14,1.000000,26.107686,2.242068,99,99,0,1,0,0,0
8,89999,19,80000,13,40000,0,9999,0.100000,99,0,0.123956,14,0.000000,30.057732,0.579155,99,99,0,0,0,1,0
8,89999,20,80000,74,60000,40,9999,0.100000,99,0,0.000000,14,0.000000,18.986515,0.089356,99,99,0,0,0,0,0
8,89999,21,80000,15,10000,41,9999,0.100000,99,0,0.000000,14,4.000000,22.275375,7.565532,99,99,0,0,0,0,0
8,89999,22,80000,25,0,40,9999,0.100000,99,0,0.000000,14,3.000000,35.674849,13.882605,99,99,0,0,0,0,0
8,89999,23,80000,21,0,40,9999,0.100000,99,0,0.000000,14,0.000000,17.818155,1.400693,99,99,0,0,0,0,0
8,89999,24,80000,21,0,40,9999,0.100000,99,0,0.000000,14,3.000000,34.891234,9.258135,99,99,0,0,0,0,0
8,89999,25,80000,21,0,0,9999,0.100000,99,0,1.429967,14,1.000000,25.359366,2.925895,99,99,0,0,0,1,0
8,89999,26,80000,30,10000,40,9999,0.100000,99,0,0.000000,14,0.000000,18.892961,0.109300,99,99,0,0,0,0,0
8,89999,27,80000,15,10000,41,9999,0.100000,99,0,0.000000,14,4.000000,23.353671,15.103542,99,99,0,0,0,0,0
8,89999,28,80000,30,10000,0,9999,0.100000,99,0,1.051922,14,0.000000,13.645012,0.288902,99,99,0,0,0,1,0
8,89999,29,80000,80,20000,40,9999,0.100000,99,0,0.000000,14,0.000000,19.088571,0.268794,99,99,0,0,0,0,0
8,89999,30,80000,23,0,40,9999,0.100000,99,0,0.000000,14,1.000000,21.568059,8.447002,99,99,0,0,0,0,0
8,89999,31,80000,21,0,40,9999,0.100000,99,0,0.000000,14,2.000000,25.516750,13.182614,99,99,0,0,0,0,0
8,89999,32,80000,13,40000,40,9999,0.100000,99,0,0.000000,14,0.000000,32.016187,0.887765,99,99,0,0,0,0,0
8,89999,33,80000,21,0,41,9999,0.100000,99,0,0.000000,14,3.000000,26.316153,7.771384,99,99,0,0,0,0,0
8,89999,34,80000,21,0,40,9999,0.100000,99,0,0.000000,14,0.000000,17.775535,0.968517,99,99,0,0,0,0,0
8,89999,35,80000,62,30000,40,9999,0.100000,99,0,0.000000,14,3.000000,30.190751,10.497870,99,99,0,0,0,0,0
8,89999,36,80000,53,20000,40,9999,0.100000,99,0,0.000000,14,2.000000,29.778829,8.332555,99,99,0,0,0,0,0
8,89999,37,80000,74,60000,40,9999,0.100000,99,0,0.000000,14,0.000000,18.215168,0.496880,99,99,0,0,0,0,0
8,89999,38,80000,23,0,40,9999,0.100000,99,0,0.000000,14,0.000000,30.939429,7.311398,99,99,0,0,0,0,0
8,89999,39,80000,53,20000,0,9999,0.100000,99,0,0.117687,14,0.000000,23.906053,0.176218,99,99,0,1,0,0,0
8,89999,40,80000,21,0,40,9999,0.100000,99,0,0.000000,14,0.000000,18.957748,0.236039,99,99,0,0,0,0,0
8,89999,41,80000,49,0,42,9999,0.100000,99,0,0.000000,14,6.000000,24.851445,27.167113,99,99,0,0,0,0,0
8,89999,42,80000,80,20000,41,9999,0.100000,99,0,0.000000,14,4.000000,36.097712,10.789280,99,99,0,0,0,0,0
8,89999,43,80000,15,10000,40,9999,0.100000,99,0,0.000000,14,0.000000,12.869125,0.725132,99,99,0,0,0,0,0
8,89999,44,80000,21,0,40,9999,0.100000,99,0,0.000000,14,2.000000,27.365911,9.577837,99,99,0,0,0,0,0
8,89999,45,80000,21,0,40,9999,0.100000,99,0,0.000000,14,1.000000,24.860400,3.382695,99,99,0,0,0,0,0
8,89999,46,80000,74,60000,0,9999,0.100000,99,0,0.114267,14,0.000000,17.191313,0.121101,99,99,0,0,0,0,1
8,89999,47,80000,99,0,40,9999,0.100000,99,0,0.000000,14,2.000000,32.307135,6.402481,99,99,0,0,0,0,0
8,89999,48,80000,15,10000,40,9999,0.100000,99,0,0.000000,14,1.000000,25.924793,5.439595,99,99,0,0,0,0,0
8,89999,49,80000,74,60000,40,9999,0.100000,99,0,0.000000,14,2.000000,27.381548,4.801256,99,99,0,0,0,0,0
8,89999,50,80000,53,20000,40,9999,0.100000,99,0,0.000000,14,0.000000,28.377919,23.891331,99,99,0,0,0,0,0
8,89999,51,80000,74,60000,40,9999,0.100000,99,0,0.000000,14,1.000000,32.563952,3.480382,99,99,0,0,0,0,0
8,89999,52,80000,21,0,40,9999,0.100000,99,0,0.000000,14,1.000000,32.507341,4.804071,99,99,0,0,0,0,0
8,89999,53,80000,15,0,41,9999,0.100000,99,0,0.000000,14,3.000000,20.012840,9.095390,99,99,0,0,0,0,0
8,89999,54,80000,27,70000,40,9999,0.100000,99,0,0.000000,14,0.000000,29.583250,0.210610,99,99,0,0,0,0,0
8,89999,55,80000,13,40000,40,9999,0.100000,99,0,0.000000,14,1.000000,25.127136,3.188647,99,99,0,0,0,0,0
8,89999,56,80000,62,30000,40,9999,0.100000,99,0,0.000000,14,1.000000,19.414230,4.452229,99,99,0,0,0,0,0
8,89999,57,80000,15,0,40,9999,0.100000,99,0,0.000000,14,0.000000,35.506859,0.233059,99,99,0,0,0,0,0
8,89999,58,80000,15,10000,40,9999,0.100000,99,0,0.000000,14,0.000000,25.856521,0.643431,99,99,0,0,0,0,0
8,89999,59,80000,25,0,40,9999,0.100000,99,0,0.000000,14,0.000000,28.826167,0.312134,99,99,0,0,0,0,0
8,89999,60,80000,15,10000,40,9999,0.100000,99,0,0.000000,14,2.000000,32.160149,2.241984,99,99,0,0,0,0,0
8,89999,61,80000,62,30000,40,9999,0.100000,99,0,0.000000,14,1.000000,31.611728,5.514032,99,99,0,0,0,0,0
8,89999,62,80000,49,0,41,9999,0.100000,99,0,0.000000,14,4.000000,29.280609,17.525067,99,99,0,0,0,0,0
8,89999,63,80000,25,0,40,9999,0.135000,99,0,0.000000,14,1.000000,29.475591,7.072627,99,99,0,0,0,0,0
8,89999,64,80000,80,20000,40,9999,0.100000,99,0,0.000000,14,2.000000,26.741900,11.245504,99,99,0,0,0,0,0
8,89999,65,80000,74,60000,40,9999,0.100000,99,0,0.000000,14,0.000000,18.420203,1.298092,99,99,0,0,0,0,0
8,89999,66,80000,80,20000,0,9999,0.100000,99,0,0.000649,14,0.000000,28.161183,0.068901,99,99,0,0,0,0,1
8,89999,67,80000,53,20000,40,9999,0.100000,99,0,0.000000,14,1.000000,21.100200,9.544068,99,99,0,0,0,0,0
8,89999,68,80000,23,0,0,9999,0.100000,99,0,0.005472,14,0.000000,24.888360,0.091005,99,99,0,0,0,0,1
8,89999,69,80000,62,30000,40,9999,0.100000,99,0,0.000000,14,0.000000,17.226834,0.123184,99,99,0,0,0,0,0
8,89999,70,80000,62,30000,40,9999,0.100000,99,0,0.000000,14,0.000000,24.732928,0.223256,99,99,0,0,0,0,0
8,89999,71,80000,74,70000,40,9999,0.100000,99,0,0.000000,14,0.000000,22.458175,0.085657,99,99,0,0,0,0,0
8,89999,72,80000,13,40000,40,9999,0.100000,99,0,0.000000,14,1.000000,25.174111,4.373150,99,99,0,0,0,0,0
8,89999,73,80000,53,20000,40,9999,0.100000,99,0,0.000000,14,1.000000,18.020100,3.047922,99,99,0,0,0,0,0
8,89999,74,80000,74,70000,90,9999,0.100000,99,0,13.581978,14,2.000000,21.707365,8.303700,99,99,1,0,0,0,0
8,89999,75,80000,62,30000,40,9999,0.100000,99,0,0.000000,14,0.000000,30.250958,7.982494,99,99,0,0,0,0,0
8,89999,76,80000,74,70000,40,9999,0.100000,99,0,0.000000,14,0.000000,24.832849,0.410032,99,99,0,0,0,0,0
8,89999,77,80000,99,0,40,9999,0.100000,99,0,0.000000,14,1.000000,26.333510,2.747452,99,99,0,0,0,0,0
8,89999,78,80000,15,10000,40,9999,0.100000,99,0,0.000000,14,0.000000,24.501792,0.591076,99,99,0,0,0,0,0
8,89999,79,80000,30,10000,40,9999,0.100000,99,0,0.000000,14,0.000000,26.180228,1.098979,99,99,0,0,0,0,0
8,89999,80,80000,80,20000,41,9999,0.100000,99,0,0.000000,14,4.000000,27.330237,13.289861,99,99,0,0,0,0,0
8,89999,81,80000,74,60000,42,9999,0.100000,99,0,0.000000,14,6.000000,27.237750,15.004587,99,99,0,0,0,0,0
8,89999,82,80000,62,30000,40,9999,0.100000,99,0,0.000000,14,0.000000,17.961421,1.400263,99,99,0,0,0,0,0
8,89999,83,80000,99,0,40,9999,0.100000,99,0,0.000000,14,2.000000,24.652090,3.008995,99,99,0,0,0,0,0
8,89999,84,80000,15,0,40,9999,0.100000,99,0,0.000000,14,0.000000,28.047526,0.119298,99,99,0,0,0,0,0
8,89999,85,80000,74,70000,40,9999,0.100000,99,0,0.000000,14,0.000000,17.238296,0.112251,99,99,0,0,0,0,0
8,89999,86,80000,99,0,40,9999,0.100000,99,0,0.000000,14,2.000000,34.354653,14.728922,99,99,0,0,0,0,0
8,89999,87,80000,74,60000,40,9999,0.100000,99,0,0.000000,14,2.000000,33.073061,14.741546,99,99,0,0,0,0,0
8,89999,88,80000,23,0,40,9999,0.100000,99,0,0.000000,14,0.000000,24.856679,0.383820,99,99,0,0,0,0,0
8,89999,89,80000,99,0,40,9999,0.100000,99,0,0.000000,14,0.000000,12.819259,1.985177,99,99,0,0,0,0,0
8,89999,90,80000,74,60000,40,9999,0.100000,99,0,0.000000,14,0.000000,18.325012,0.870427,99,99,0,0,0,0,0
8,89999,91,80000,30,10000,42,9999,0.100000,99,0,0.000000,14,4.000000,18.289069,13.015792,99,99,0,0,0,0,0
8,89999,92,80000,62,30000,40,9999,0.100000,99,0,0.000000,14,0.000000,29.962723,2.223830,99,99,0,0,0,0,0
8,89999,93,80000,74,60000,40,9999,0.100000,99,0,0.000000,14,0.000000,23.825267,0.342509,99,99,0,0,0,0,0
8,89999,94,80000,15,0,40,9999,0.100000,99,0,0.000000,14,2.000000,24.931623,3.223673,99,99,0,0,0,0,0
8,89999,95,80000,74,60000,40,9999,0.100000,99,0,0.000000,14,0.000000,17.377295,0.290407,99,99,0,0,0,0,0
8,89999,96,80000,15,10000,41,9999,0.100000,99,0,0.000000,14,3.000000,21.923065,7.773280,99,99,0,0,0,0,0
8,89999,97,80000,62,30000,40,9999,0.100000,99,0,0.000000,14,0.000000,25.912310,0.532536,99,99,0,0,0,0,0
8,89999,98,80000,49,0,40,9999,0.100000,99,0,0.000000,14,0.000000,24.295380,0.080083,99,99,0,0,0,0,0
8,89999,99,80000,53,20000,40,9999,0.100000,99,0,0.000000,14,2.000000,25.999081,19.748221,99,99,0,0,0,0,0
9,99999,0,90000,99,0,40,9999,0.100000,99,0,0.000000,14,2.000000,33.409831,12.472785,99,99,0,0,0,0,0
9,99999,1,90000,23,0,0,9999,0.100000,99,0,0.135803,14,0.000000,18.779114,0.119198,99,99,0,0,0,0,1
9,99999,2,90000,17,80000,40,9999,0.100000,99,0,0.000000,14,0.000000,32.329091,3.460292,99,99,0,0,0,0,0
9,99999,3,90000,74,70000,40,9999,0.100000,99,0,0.000000,14,0.000000,24.551976,4.495710,99,99,0,0,0,0,0
9,99999,4,90000,62,30000,40,9999,0.100000,99,0,0.000000,14,0.000000,19.209957,0.317763,99,99,0,0,0,0,0
9,99999,5,90000,74,70000,0,9999,0.100000,99,0,0.316533,14,0.000000,18.617228,2.577483,99,99,0,0,0,0,1
9,99999,6,90000,15,10000,41,9999,0.100000,99,0,0.000000,14,3.000000,26.973029,5.669649,99,99,0,0,0,0,0
9,99999,7,90000,23,0,40,9999,0.100000,99,0,0.000000,14,0.000000,25.951538,6.183020,99,99,0,0,0,0,0
9,99999,8,90000,13,40000,41,9999,0.100000,99,0,0.000000,14,4.000000,19.059659,13.718853,99,99,0,0,0,0,0
9,99999,9,90000,30,10000,40,9999,0.100000,99,0,0.000000,14,1.000000,34.413445,10.875346,99,99,0,0,0,0,0
9,99999,10,90000,30,10000,0,9999,0.100000,99,0,0.240688,14,0.000000,25.033626,0.148207,99,99,0,0,0,1,0
9,99999,11,90000,17,80000,0,9999,0.100000,99,0,0.014383,14,0.000000,22.390813,0.192001,99,99,0,0,0,1,0
9,99999,12,90000,25,0,40,9999,0.100000,99,0,0.000000,14,0.000000,12.896446,3.974746,99,99,0,0,0,0,0
9,99999,13,90000,13,40000,40,9999,0.100000,99,0,0.000000,14,1.000000,18.381671,23.522795,99,99,0,0,0,0,0
9,99999,14,90000,25,0,40,9999,0.100000,99,0,0.000000,14,0.000000,24.794608,0.473245,99,99,0,0,0,0,0
9,99999,15,90000,15,10000,40,9999,0.100000,99,0,0.000000,14,0.000000,30.173982,1.669527,99,99,0,0,0,0,0
9,99999,16,90000,49,0,41,9999,0.100000,99,0,0.000000,14,5.000000,29.298754,17.044045,99,99,0,0,0,0,0
9,99999,17,90000,30,10000,40,9999,0.100000,99,0,0.000000,14,1.000000,27.206318,1.635651,99,99,0,0,0,0,0
9,99999,18,90000,74,70000,0,9999,0.100000,99,0,2.994938,14,1.000000,27.366670,1.634559,99,99,0,1,0,0,0
9,99999,19,90000,74,70000,0,9999,0.100000,99,0,0.085280,14,0.000000,30.089196,0.670094,99,99,0,0,0,1,0
9,99999,20,90000,30,10000,40,9999,0.100000,99,0,0.000000,14,0.000000,18.957632,0.102350,99,99,0,0,0,0,0
9,99999,21,90000,53,20000,40,9999,0.100000,99,0,0.000000,14,2.000000,24.912369,9.495498,99,99,0,0,0,0,0
9,99999,22,90000,27,70000,40,9999,0.100000,99,0,0.000000,14,2.000000,32.419163,10.043582,99,99,0,0,0,0,0
9,99999,23,90000,15,0,40,9999,0.100000,99,0,0.000000,14,0.000000,17.766505,1.423568,99,99,0,0,0,0,0
9,99999,24,90000,74,70000,41,9999,0.100000,99,0,0.000000,14,5.000000,32.624252,18.001000,99,99,0,0,0,0,0
9,99999,25,90000,74,70000,0,9999,0.100000,99,0,0.096612,14,0.000000,24.694929,0.708263,99,99,0,0,0,1,0
9,99999,26,90000,49,0,40,9999,0.100000,99,0,0.000000,14,0.000000,18.870644,0.117486,99,99,0,0,0,0,0
9,99999,27,90000,27,70000,40,9999,0.100000,99,0,0.000000,14,0.000000,24.067716,8.372865,99,99,0,0,0,0,0
9,99999,28,90000,23,0,0,9999,0.100000,99,0,0.907888,14,0.000000,13.691433,0.258387,99,99,0,0,0,1,0
9,99999,29,90000,53,20000,40,9999,0.100000,99,0,0.000000,14,0.000000,19.052810,0.317655,99,99,0,0,0,0,0
9,99999,30,90000,74,70000,40,9999,0.100000,99,0,0.000000,14,1.000000,20.698375,9.434229,99,99,0,0,0,0,0
9,99999,31,90000,49,0,41,9999,0.100000,99,0,0.000000,14,4.000000,24.352495,15.553897,99,99,0,0,0,0,0
9,99999,32,90000,30,10000,40,9999,0.100000,99,0,0.000000,14,1.000000,32.305690,13.403316,99,99,0,0,0,0,0
9,99999,33,90000,80,20000,40,9999,0.100000,99,0,0.000000,14,2.000000,29.745560,10.010206,99,99,0,0,0,0,0
9,99999,34,90000,15,0,40,9999,0.100000,99,0,0.000000,14,0.000000,17.715314,0.979950,99,99,0,0,0,0,0
9,99999,35,90000,27,70000,40,9999,0.100000,99,0,0.000000,14,0.000000,29.828885,1.842963,99,99,0,0,0,0,0
9,99999,36,90000,17,80000,40,9999,0.100000,99,0,0.000000,14,0.000000,27.446829,8.869957,99,99,0,0,0,0,0
9,99999,37,90000,30,10000,40,9999,0.100000,99,0,0.000000,14,0.000000,18.009029,0.321036,99,99,0,0,0,0,0
9,99999,38,90000,15,10000,40,9999,0.100000,99,0,0.000000,14,3.000000,30.600702,5.352987,99,99,0,0,0,0,0
9,99999,39,90000,49,0,0,9999,0.100000,99,0,1.543386,14,0.000000,23.877083,0.880963,99,99,0,1,0,0,0
9,99999,40,90000,27,70000,40,9999,0.100000,99,0,0.000000,14,0.000000,18.955482,0.233259,99,99,0,0,0,0,0
9,99999,41,90000,13,40000,41,9999,0.100000,99,0,0.000000,14,5.000000,26.251479,9.319825,99,99,0,0,0,0,0
9,99999,42,90000,80,20000,40,9999,0.100000,99,0,0.000000,14,0.000000,32.758943,5.576609,99,99,0,0,0,0,0
9,99999,43,90000,99,0,40,9999,0.100000,99,0,0.000000,14,0.000000,12.916188,0.681720,99,99,0,0,0,0,0
9,99999,44,90000,27,70000,40,9999,0.100000,99,0,0.000000,14,1.000000,25.427420,7.901829,99,99,0,0,0,0,0
9,99999,45,90000,23,0,40,9999,0.100000,99,0,0.000000,14,0.000000,23.772941,0.991208,99,99,0,0,0,0,0
9,99999,46,90000,30,10000,0,9999,0.100000,99,0,0.102280,14,0.000000,17.223687,0.174488,99,99,0,0,0,0,1
9,99999,47,90000,13,40000,40,9999,0.100000,99,0,0.000000,14,3.000000,31.410937,14.867016,99,99,0,0,0,0,0
9,99999,48,90000,99,0,41,9999,0.100000,99,0,0.000000,14,4.000000,26.099551,13.204261,99,99,0,0,0,0,0
9,99999,49,90000,27,70000,40,9999,0.100000,99,0,0.000000,14,0.000000,29.844344,1.582554,99,99,0,0,0,0,0
9,99999,50,90000,13,40000,40,9999,0.100000,99,0,0.000000,14,0.000000,28.469767,1.486875,99,99,0,0,0,0,0
9,99999,51,90000,13,40000,40,9999,0.100000,99,0,0.000000,14,1.000000,31.592955,7.441537,99,99,0,0,0,0,0
9,99999,52,90000,27,70000,40,9999,0.100000,99,0,0.000000,14,1.000000,31.247640,4.125292,99,99,0,0,0,0,0
9,99999,53,90000,17,80000,40,9999,0.100000,99,0,0.000000,14,0.000000,23.188968,14.043641,99,99,0,0,0,0,0
9,99999,54,90000,15,0,40,9999,0.100000,99,0,0.000000,14,0.000000,29.616991,0.190326,99,99,0,0,0,0,0
9,99999,55,90000,99,0,40,9999,0.100000,99,0,0.000000,14,0.000000,24.494816,0.287663,99,99,0,0,0,0,0
9,99999,56,90000,80,20000,40,9999,0.100000,99,0,0.000000,14,1.000000,19.847287,10.480847,99,99,0,0,0,0,0
9,99999,57,90000,13,40000,40,9999,0.100000,99,0,0.000000,14,0.000000,35.507286,0.567313,99,99,0,0,0,0,0
9,99999,58,90000,74,70000,40,9999,0.100000,99,0,0.000000,14,0.000000,26.096061,0.636774,99,99,0,0,0,0,0
9,99999,59,90000,13,40000,40,9999,0.100000,99,0,0.000000,14,0.000000,28.865269,0.317106,99,99,0,0,0,0,0
9,99999,60,90000,15,0,40,9999,0.100000,99,0,0.000000,14,3.000000,30.085662,10.544884,99,99,0,0,0,0,0
9,99999,61,90000,13,40000,40,9999,0.100000,99,0,0.000000,14,3.000000,31.183597,13.123693,99,99,0,0,0,0,0
9,99999,62,90000,74,70000,41,9999,0.100000,99,0,0.000000,14,3.000000,27.074238,8.110583,99,99,0,0,0,0,0
9,99999,63,90000,80,20000,40,9999,0.100000,99,0,0.000000,14,2.000000,28.800008,8.248311,99,99,0,0,0,0,0
9,99999,64,90000,62,30000,40,9999,0.100000,99,0,0.000000,14,1.000000,24.156550,6.746753,99,99,0,0,0,0,0
9,99999,65,90000,99,0,40,9999,0.100000,99,0,0.000000,14,0.000000,18.247111,1.258732,99,99,0,0,0,0,0
9,99999,66,90000,53,20000,0,9999,0.100000,99,0,0.000117,14,0.000000,28.161604,0.068754,99,99,0,0,0,0,1
9,99999,67,90000,74,70000,41,9999,0.100000,99,0,0.000000,14,3.000000,20.999694,17.731121,99,99,0,0,0,0,0
9,99999,68,90000,30,10000,0,9999,0.100000,99,0,0.044939,14,0.000000,24.853580,0.204740,99,99,0,0,0,0,1
9,99999,69,90000,13,40000,40,9999,0.100000,99,0,0.000000,14,0.000000,17.279139,0.184195,99,99,0,0,0,0,0
9,99999,70,90000,49,0,40,9999,0.065000,99,0,0.000000,14,0.000000,24.697530,0.316842,99,99,0,0,0,0,0
9,99999,71,90000,99,0,40,9999,0.100000,99,0,0.000000,14,0.000000,22.459387,0.085851,99,99,0,0,0,0,0
9,99999,72,90000,27,70000,40,9999,0.100000,99,0,0.000000,14,0.000000,24.141864,0.550112,99,99,0,0,0,0,0
9,99999,73,90000,17,80000,41,9999,0.100000,99,0,0.000000,14,2.000000,18.038190,2.703707,99,99,0,0,0,0,0
9,99999,74,90000,17,80000,91,9999,0.100000,99,0,22.693685,14,4.000000,24.113713,7.569135,99,99,1,0,0,0,0
9,99999,75,90000,30,10000,41,9999,0.100000,99,0,0.000000,14,4.000000,29.850954,12.826576,99,99,0,0,0,0,0
9,99999,76,90000,80,20000,40,9999,0.100000,99,0,0.000000,14,0.000000,24.797496,0.463856,99,99,0,0,0,0,0
9,99999,77,90000,15,0,40,9999,0.100000,99,0,0.000000,14,1.000000,27.585789,2.308480,99,99,0,0,0,0,0
9,99999,78,90000,74,70000,40,9999,0.100000,99,0,0.000000,14,0.000000,24.816797,0.375297,99,99,0,0,0,0,0
9,99999,79,90000,15,0,40,9999,0.100000,99,0,0.000000,14,0.000000,26.537046,0.009783,99,99,0,0,0,0,0
9,99999,80,90000,27,70000,40,9999,0.100000,99,0,0.000000,14,2.000000,26.719048,8.579872,99,99,0,0,0,0,0
9,99999,81,90000,15,0,40,9999,0.100000,99,0,0.000000,14,0.000000,21.595077,0.974656,99,99,0,0,0,0,0
9,99999,82,90000,49,0,40,9999,0.100000,99,0,0.000000,14,0.000000,17.642946,1.829988,99,99,0,0,0,0,0
9,99999,83,90000,25,0,40,9999,0.100000,99,0,0.000000,14,0.000000,24.086155,0.425596,99,99,0,0,0,0,0
9,99999,84,90000,25,0,40,9999,0.100000,99,0,0.000000,14,0.000000,28.047823,0.120692,99,99,0,0,0,0,0
9,99999,85,90000,27,70000,40,9999,0.100000,99,0,0.000000,14,0.000000,17.306501,0.211427,99,99,0,0,0,0,0
9,99999,86,90000,27,70000,40,9999,0.100000,99,0,0.000000,14,2.000000,33.333606,16.268934,99,99,0,0,0,0,0
9,99999,87,90000,80,20000,40,9999,0.100000,99,0,0.000000,14,1.000000,34.502307,11.779791,99,99,0,0,0,0,0
9,99999,88,90000,30,10000,40,9999,0.100000,99,0,0.000000,14,0.000000,24.820998,0.436044,99,99,0,0,0,0,0
9,99999,89,90000,30,10000,40,9999,0.100000,99,0,0.000000,14,0.000000,12.844138,2.493919,99,99,0,0,0,0,0
9,99999,90,90000,27,70000,40,9999,0.100000,99,0,0.000000,14,0.000000,18.132635,0.717246,99,99,0,0,0,0,0
9,99999,91,90000,13,40000,40,9999,0.100000,99,0,0.000000,14,0.000000,13.951884,3.182762,99,99,0,0,0,0,0
9,99999,92,90000,17,80000,40,9999,0.100000,99,0,0.000000,14,0.000000,30.010559,1.661425,99,99,0,0,0,0,0
9,99999,93,90000,53,20000,40,9999,0.100000,99,0,0.000000,14,0.000000,23.989025,0.296037,99,99,0,0,0,0,0
9,99999,94,90000,74,70000,40,9999,0.100000,99,0,0.000000,14,0.000000,24.285802,0.481731,99,99,0,0,0,0,0
9,99999,95,90000,49,0,40,9999,0.100000,99,0,0.000000,14,0.000000,17.485669,0.306636,99,99,0,0,0,0,0
9,99999,96,90000,25,0,40,9999,0.100000,99,0,0.000000,14,0.000000,18.731211,2.899452,99,99,0,0,0,0,0
9,99999,97,90000,15,10000,40,9999,0.100000,99,0,0.000000,14,0.000000,26.153468,0.522570,99,99,0,0,0,0,0
9,99999,98,90000,27,70000,40,9999,0.100000,99,0,0.000000,14,0.000000,24.262863,0.171240,99,99,0,0,0,0,0
9,99999,99,90000,80,20000,40,9999,0.100000,99,0,0.000000,14,1.000000,25.136856,9.557827,99,99,0,0,0,0,0
10,109999,0,100000,49,0,41,9999,0.100000,99,0,0.000000,14,5.000000,32.047183,11.626851,99,99,0,0,0,0,0
10,109999,1,100000,30,10000,0,9999,0.100000,99,0,0.012016,14,0.000000,18.753534,0.157623,99,99,0,0,0,0,1
10,109999,2,100000,74,80000,41,9999,0.100000,99,0,0.000000,14,4.000000,32.289799,8.532866,99,99,0,0,0,0,0
10,109999,3,100000,13,40000,40,9999,0.100000,99,0,0.000000,14,0.000000,24.671602,10.965086,99,99,0,0,0,0,0
10,109999,4,100000,80,20000,40,9999,0.100000,99,0,0.000000,14,0.000000,19.153841,1.902711,99,99,0,0,0,0,0
10,109999,5,100000,23,0,0,9999,0.100000,99,0,0.296469,14,0.000000,18.687832,0.175419,99,99,0,0,0,0,1
10,109999,6,100000,62,30000,40,9999,0.100000,99,0,0.000000,14,0.000000,26.292302,5.277644,99,99,0,0,0,0,0
10,109999,7,100000,80,20000,40,9999,0.100000,99,0,0.000000,14,0.000000,26.061776,5.467304,99,99,0,0,0,0,0
10,109999,8,100000,74,80000,40,9999,0.100000,99,0,0.000000,14,0.000000,14.369930,12.581430,99,99,0,0,0,0,0
10,109999,9,100000,15,10000,40,9999,0.100000,99,0,0.000000,14,1.000000,35.533456,7.051682,99,99,0,0,0,0,0
10,109999,10,100000,25,0,0,9999,0.100000,99,0,0.431403,14,0.000000,25.132209,0.151192,99,99,0,0,0,1,0
10,109999,11,100000,15,0,0,9999,0.100000,99,0,0.293326,14,0.000000,22.386448,0.205270,99,99,0,0,0,1,0
10,109999,12,100000,23,0,0,9999,0.100000,99,0,0.894833,14,0.000000,12.993711,3.592479,99,99,0,0,0,1,0
10,109999,13,100000,15,0,40,9999,0.100000,99,0,0.000000,14,0.000000,17.854320,22.993321,99,99,0,0,0,0,0
10,109999,14,100000,99,0,40,9999,0.100000,99,0,0.000000,14,0.000000,24.882220,0.517183,99,99,0,0,0,0,0
10,109999,15,100000,62,30000,40,9999,0.065000,99,0,0.000000,14,3.000000,29.336086,7.176970,99,99,0,0,0,0,0
10,109999,16,100000,49,0,41,9999,0.100000,99,0,0.000000,14,3.000000,25.469714,13.312423,99,99,0,0,0,0,0
10,109999,17,100000,17,80000,40,9999,0.100000,99,0,0.000000,14,1.000000,27.617980,1.671124,99,99,0,0,0,0,0
10,109999,18,100000,80,20000,0,9999,0.100000,99,0,3.080188,14,1.000000,27.781330,1.664819,99,99,0,1,0,0,0
10,109999,19,100000,49,0,0,9999,0.100000,99,0,0.080771,14,0.000000,30.113053,0.676006,99,99,0,0,0,1,0
10,109999,20,100000,25,0,40,9999,0.100000,99,0,0.000000,14,0.000000,18.909836,0.166092,99,99,0,0,0,0,0
10,109999,21,100000,13,40000,40,9999,0.100000,99,0,0.000000,14,1.000000,24.335372,1.904995,99,99,0,0,0,0,0
10,109999,22,100000,99,0,40,9999,0.100000,99,0,0.000000,14,3.000000,30.762257,8.598206,99,99,0,0,0,0,0
10,109999,23,100000,23,0,40,9999,0.100000,99,0,0.000000,14,0.000000,17.693398,1.451216,99,99,0,0,0,0,0
10,109999,24,100000,25,0,40,9999,0.100000,99,0,0.000000,14,2.000000,32.005265,15.220177,99,99,0,0,0,0,0
10,109999,25,100000,49,0,0,9999,0.100000,99,0,2.136876,14,0.000000,24.586041,1.094168,99,99,0,0,0,1,0
10,109999,26,100000,80,20000,40,9999,0.100000,99,0,0.000000,14,0.000000,18.833122,0.112868,99,99,0,0,0,0,0
10,109999,27,100000,15,0,40,9999,0.100000,99,0,0.000000,14,2.000000,24.090227,11.499114,99,99,0,0,0,0,0
10,109999,28,100000,30,10000,40,9999,0.100000,99,0,0.000000,14,0.000000,13.835257,0.998769,99,99,0,0,0,0,0
10,109999,29,100000,17,80000,40,9999,0.100000,99,0,0.000000,14,0.000000,18.995546,1.117721,99,99,0,0,0,0,0
10,109999,30,100000,25,0,40,9999,0.100000,99,0,0.000000,14,1.000000,20.825613,15.061560,99,99,0,0,0,0,0
10,109999,31,100000,74,80000,40,9999,0.100000,99,0,0.000000,14,1.000000,23.591973,3.177093,99,99,0,0,0,0,0
10,109999,32,100000,30,10000,40,9999,0.100000,99,0,0.000000,14,3.000000,32.944551,17.342377,99,99,0,0,0,0,0
10,109999,33,100000,99,0,40,9999,0.100000,99,0,0.000000,14,1.000000,26.805220,9.113947,99,99,0,0,0,0,0
10,109999,34,100000,15,10000,40,9999,0.100000,99,0,0.000000,14,0.000000,17.642792,1.077161,99,99,0,0,0,0,0
10,109999,35,100000,15,10000,40,9999,0.100000,99,0,0.000000,14,0.000000,29.855809,2.504771,99,99,0,0,0,0,0
10,109999,36,100000,17,80000,40,9999,0.100000,99,0,0.000000,14,0.000000,27.532598,8.626317,99,99,0,0,0,0,0
10,109999,37,100000,23,0,40,9999,0.100000,99,0,0.000000,14,0.000000,18.057209,0.183979,99,99,0,0,0,0,0
10,109999,38,100000,15,10000,40,9999,0.100000,99,0,0.000000,14,0.000000,27.792853,2.534123,99,99,0,0,0,0,0
10,109999,39,100000,15,10000,0,9999,0.100000,99,0,7.579333,14,1.000000,24.235680,1.331460,99,99,0,1,0,0,0
10,109999,40,100000,49,0,40,9999,0.100000,99,0,0.000000,14,0.000000,18.952320,0.245284,99,99,0,0,0,0,0
10,109999,41,100000,62,30000,40,9999,0.100000,99,0,0.000000,14,0.000000,29.714775,0.362201,99,99,0,0,0,0,0
10,109999,42,100000,13,40000,40,9999,0.100000,99,0,0.000000,14,3.000000,33.280268,13.550860,99,99,0,0,0,0,0
10,109999,43,100000,74,80000,40,9999,0.100000,99,0,0.000000,14,0.000000,13.062518,1.362373,99,99,0,0,0,0,0
10,109999,44,100000,25,0,41,9999,0.100000,99,0,0.000000,14,5.000000,24.138864,12.298069,99,99,0,0,0,0,0
10,109999,45,100000,74,80000,40,9999,0.100000,99,0,0.000000,14,0.000000,23.009900,0.997615,99,99,0,0,0,0,0
10,109999,46,100000,62,30000,0,9999,0.100000,99,0,0.188669,14,0.000000,17.252412,0.111604,99,99,0,0,0,0,1
10,109999,47,100000,27,70000,40,9999,0.100000,99,0,0.000000,14,2.000000,32.654545,18.260105,99,99,0,0,0,0,0
10,109999,48,100000,15,0,40,9999,0.100000,99,0,0.000000,14,1.000000,28.265888,11.612844,99,99,0,0,0,0,0
10,109999,49,100000,53,20000,40,9999,0.100000,99,0,0.000000,14,0.000000,29.844688,0.141283,99,99,0,0,0,0,0
10,109999,50,100000,17,80000,0,9999,0.100000,99,0,0.125986,14,1.000000,28.570609,2.796203,99,99,0,0,0,0,1
10,109999,51,100000,13,40000,40,9999,0.100000,99,0,0.000000,14,0.000000,33.374820,3.583436,99,99,0,0,0,0,0
10,109999,52,100000,27,70000,40,9999,0.100000,99,0,0.000000,14,1.000000,29.977340,4.195324,99,99,0,0,0,0,0
10,109999,53,100000,27,70000,40,9999,0.100000,99,0,0.000000,14,1.000000,23.517651,13.888144,99,99,0,0,0,0,0
10,109999,54,100000,23,0,40,9999,0.100000,99,0,0.000000,14,0.000000,29.643053,0.191170,99,99,0,0,0,0,0
10,109999,55,100000,17,80000,40,9999,0.100000,99,0,0.000000,14,0.000000,24.416501,0.593452,99,99,0,0,0,0,0
10,109999,56,100000,49,0,42,9999,0.100000,99,0,0.000000,14,5.000000,19.956715,12.902300,99,99,0,0,0,0,0
10,109999,57,100000,74,80000,40,9999,0.100000,99,0,0.000000,14,0.000000,35.450082,0.233608,99,99,0,0,0,0,0
10,109999,58,100000,23,0,40,9999,0.135000,99,0,0.000000,14,0.000000,26.336509,0.639352,99,99,0,0,0,0,0
10,109999,59,100000,30,10000,40,9999,0.100000,99,0,0.000000,14,0.000000,28.910981,0.320500,99,99,0,0,0,0,0
10,109999,60,100000,80,20000,40,9999,0.100000,99,0,0.000000,14,1.000000,30.698423,14.510980,99,99,0,0,0,0,0
10,109999,61,100000,30,10000,40,9999,0.100000,99,0,0.000000,14,3.000000,29.888947,9.694107,99,99,0,0,0,0,0
10,109999,62,100000,15,0,40,9999,0.100000,99,0,0.000000,14,1.000000,30.311548,5.296671,99,99,0,0,0,0,0
10,109999,63,100000,30,10000,41,9999,0.100000,99,0,0.000000,14,6.000000,28.631470,13.571943,99,99,0,0,0,0,0
10,109999,64,100000,74,80000,40,9999,0.100000,99,0,0.000000,14,0.000000,24.350840,1.689726,99,99,0,0,0,0,0
10,109999,65,100000,74,80000,40,9999,0.100000,99,0,0.000000,14,0.000000,18.243137,0.248825,99,99,0,0,0,0,0
10,109999,66,100000,99,0,40,9999,0.100000,99,0,0.000000,14,0.000000,28.161823,0.290274,99,99,0,0,0,0,0
10,109999,67,100000,62,30000,40,9999,0.100000,99,0,0.000000,14,2.000000,19.545193,5.023547,99,99,0,0,0,0,0
10,109999,68,100000,49,0,0,9999,0.100000,99,0,0.023404,14,0.000000,24.736279,0.091807,99,99,0,0,0,0,1
10,109999,69,100000,25,0,40,9999,0.100000,99,0,0.000000,14,0.000000,17.331162,0.122381,99,99,0,0,0,0,0
10,109999,70,100000,49,0,40,9999,0.100000,99,0,0.000000,14,0.000000,24.581919,0.244281,99,99,0,0,0,0,0
10,109999,71,100000,99,0,40,9999,0.100000,99,0,0.000000,14,0.000000,22.459151,0.146656,99,99,0,0,0,0,0
10,109999,72,100000,17,80000,40,9999,0.100000,99,0,0.000000,14,0.000000,24.093339,1.111532,99,99,0,0,0,0,0
10,109999,73,100000,49,0,40,9999,0.100000,99,0,0.000000,14,0.000000,18.666833,0.243052,99,99,0,0,0,0,0
10,109999,74,100000,15,0,40,9999,0.100000,99,0,0.000000,14,0.000000,27.979114,7.772985,99,99,0,0,0,0,0
10,109999,75,100000,53,20000,40,9999,0.135000,99,0,0.000000,14,1.000000,28.549793,6.348410,99,99,0,0,0,0,0
10,109999,76,100000,13,40000,40,9999,0.100000,99,0,0.000000,14,0.000000,24.683113,0.414857,99,99,0,0,0,0,0
10,109999,77,100000,17,80000,40,9999,0.100000,99,0,0.000000,14,1.000000,28.007576,2.294455,99,99,0,0,0,0,0
10,109999,78,100000,15,10000,40,9999,0.100000,99,0,0.000000,14,0.000000,24.906060,0.375006,99,99,0,0,0,0,0
10,109999,79,100000,15,0,40,9999,0.100000,99,0,0.000000,14,0.000000,26.537085,0.009887,99,99,0,0,0,0,0
10,109999,80,100000,99,0,40,9999,0.100000,99,0,0.000000,14,0.000000,24.665021,2.343070,99,99,0,0,0,0,0
10,109999,81,100000,17,80000,40,9999,0.100000,99,0,0.000000,14,0.000000,20.869494,0.896343,99,99,0,0,0,0,0
10,109999,82,100000,99,0,40,9999,0.100000,99,0,0.000000,14,0.000000,17.743774,1.583523,99,99,0,0,0,0,0
10,109999,83,100000,49,0,40,9999,0.100000,99,0,0.000000,14,0.000000,24.072619,0.879026,99,99,0,0,0,0,0
10,109999,84,100000,15,10000,40,9999,0.100000,99,0,0.000000,14,0.000000,28.047966,0.273810,99,99,0,0,0,0,0
10,109999,85,100000,25,0,40,9999,0.100000,99,0,0.000000,14,0.000000,17.377266,0.111554,99,99,0,0,0,0,0
10,109999,86,100000,49,0,41,9999,0.100000,99,0,0.000000,14,5.000000,34.579256,18.951016,99,99,0,0,0,0,0
10,109999,87,100000,25,0,40,9999,0.100000,99,0,0.000000,14,1.000000,35.074433,16.263148,99,99,0,0,0,0,0
10,109999,88,100000,15,10000,40,9999,0.100000,99,0,0.000000,14,0.000000,24.706874,0.386979,99,99,0,0,0,0,0
10,109999,89,100000,80,20000,40,9999,0.100000,99,0,0.000000,14,0.000000,12.968056,2.511722,99,99,0,0,0,0,0
10,109999,90,100000,13,40000,40,9999,0.100000,99,0,0.000000,14,0.000000,18.150043,0.224604,99,99,0,0,0,0,0
10,109999,91,100000,15,0,40,9999,0.100000,99,0,0.000000,14,1.000000,13.283249,6.264281,99,99,0,0,0,0,0
10,109999,92,100000,99,0,40,9999,0.100000,99,0,0.000000,14,0.000000,30.039234,1.743580,99,99,0,0,0,0,0
10,109999,93,100000,30,10000,40,9999,0.100000,99,0,0.000000,14,0.000000,24.094836,0.348132,99,99,0,0,0,0,0
10,109999,94,100000,80,20000,40,9999,0.100000,99,0,0.000000,14,0.000000,24.238282,0.908771,99,99,0,0,0,0,0
10,109999,95,100000,13,40000,40,9999,0.100000,99,0,0.000000,14,0.000000,17.602626,0.288213,99,99,0,0,0,0,0
10,109999,96,100000,30,10000,40,9999,0.100000,99,0,0.000000,14,0.000000,18.439182,0.181488,99,99,0,0,0,0,0
10,109999,97,100000,23,0,40,9999,0.100000,99,0,0.000000,14,0.000000,26.395891,0.523554,99,99,0,0,0,0,0
10,109999,98,100000,99,0,40,9999,0.100000,99,0,0.000000,14,0.000000,24.159665,0.082927,99,99,0,0,0,0,0
10,109999,99,100000,49,0,41,9999,0.100000,99,0,0.000000,14,4.000000,24.838778,15.978335,99,99,0,0,0,0,0
11,119999,0,110000,53,20000,40,9999,0.100000,99,0,0.000000,14,0.000000,26.781533,1.193336,99,99,0,0,0,0,0
11,119999,1,110000,62,30000,0,9999,0.100000,99,0,0.079211,14,0.000000,18.754995,0.139054,99,99,0,0,0,0,1
11,119999,2,110000,15,10000,40,9999,0.100000,99,0,0.000000,14,0.000000,28.684737,2.240372,99,99,0,0,0,0,0
11,119999,3,110000,25,0,40,9999,0.100000,99,0,0.000000,14,1.000000,24.445389,9.743566,99,99,0,0,0,0,0
11,119999,4,110000,25,0,40,9999,0.100000,99,0,0.000000,14,0.000000,18.984366,0.414980,99,99,0,0,0,0,0
11,119999,5,110000,62,30000,0,9999,0.100000,99,0,0.062252,14,0.000000,18.735155,0.137615,99,99,0,0,0,0,1
11,119999,6,110000,15,10000,40,9999,0.100000,99,0,0.000000,14,0.000000,26.436695,2.160139,99,99,0,0,0,0,0
11,119999,7,110000,27,70000,40,9999,0.100000,99,0,0.000000,14,0.000000,25.719930,8.936276,99,99,0,0,0,0,0
11,119999,8,110000,17,80000,40,9999,0.100000,99,0,0.000000,14,1.000000,14.595599,19.986631,99,99,0,0,0,0,0
11,119999,9,110000,13,40000,40,9999,0.100000,99,0,0.000000,14,1.000000,34.026473,14.141268,99,99,0,0,0,0,0
11,119999,10,110000,15,0,0,9999,0.100000,99,0,0.219443,14,0.000000,25.172217,0.229464,99,99,0,0,0,1,0
11,119999,11,110000,74,80000,0,9999,0.100000,99,0,0.423244,14,0.000000,22.330267,0.207925,99,99,0,0,0,1,0
11,119999,12,110000,27,70000,0,9999,0.100000,99,0,0.915427,14,0.000000,13.529450,0.806640,99,99,0,0,0,1,0
11,119999,13,110000,23,0,40,9999,0.100000,99,0,0.000000,14,0.000000,17.957630,13.850201,99,99,0,0,0,0,0
11,119999,14,110000,15,10000,40,9999,0.100000,99,0,0.000000,14,1.000000,24.747960,2.375360,99,99,0,0,0,0,0
11,119999,15,110000,17,80000,40,9999,0.100000,99,0,0.000000,14,0.000000,26.814937,1.197844,99,99,0,0,0,0,0
11,119999,16,110000,15,0,40,9999,0.100000,99,0,0.000000,14,1.000000,27.850028,5.137597,99,99,0,0,0,0,0
11,119999,17,110000,49,0,40,9999,0.100000,99,0,0.000000,14,1.000000,28.161595,1.950952,99,99,0,0,0,0,0
11,119999,18,110000,15,10000,0,9999,0.100000,99,0,5.352487,14,1.000000,28.327995,1.971909,99,99,0,1,0,0,0
11,119999,19,110000,62,30000,0,9999,0.100000,99,0,0.058177,14,0.000000,30.136465,0.618502,99,99,0,0,0,1,0
11,119999,20,110000,80,20000,40,9999,0.100000,99,0,0.000000,14,0.000000,18.899385,0.140056,99,99,0,0,0,0,0
11,119999,21,110000,74,80000,0,9999,0.100000,99,0,0.673498,14,2.000000,24.043894,3.486767,99,99,0,1,0,0,0
11,119999,22,110000,53,20000,40,9999,0.100000,99,0,0.000000,14,1.000000,33.688668,6.596014,99,99,0,0,0,0,0
11,119999,23,110000,13,40000,40,9999,0.100000,99,0,0.000000,14,0.000000,17.674130,0.738600,99,99,0,0,0,0,0
11,119999,24,110000,15,10000,40,9999,0.100000,99,0,0.000000,14,3.000000,31.337093,17.900731,99,99,0,0,0,0,0
11,119999,25,110000,15,10000,1,9999,0.100000,99,0,19.711125,14,3.000000,24.743865,9.221553,99,99,0,0,0,1,0
11,119999,26,110000,17,80000,40,9999,0.100000,99,0,0.000000,14,0.000000,18.828188,0.085330,99,99,0,0,0,0,0
11,119999,27,110000,15,10000,40,9999,0.100000,99,0,0.000000,14,1.000000,25.246317,2.541957,99,99,0,0,0,0,0
11,119999,28,110000,15,10000,40,9999,0.100000,99,0,0.000000,14,0.000000,14.071751,0.905425,99,99,0,0,0,0,0
11,119999,29,110000,99,0,40,9999,0.100000,99,0,0.000000,14,0.000000,18.967764,0.742753,99,99,0,0,0,0,0
11,119999,30,110000,99,0,40,9999,0.100000,99,0,0.000000,14,0.000000,19.765938,11.619660,99,99,0,0,0,0,0
11,119999,31,110000,99,0,40,9999,0.100000,99,0,0.000000,14,0.000000,22.336613,0.547127,99,99,0,0,0,0,0
11,119999,32,110000,23,0,40,9999,0.100000,99,0,0.000000,14,1.000000,33.937085,8.672123,99,99,0,0,0,0,0
11,119999,33,110000,62,30000,40,9999,0.100000,99,0,0.000000,14,0.000000,28.004247,4.450955,99,99,0,0,0,0,0
11,119999,34,110000,17,80000,40,9999,0.100000,99,0,0.000000,14,0.000000,17.755055,0.426456,99,99,0,0,0,0,0
11,119999,35,110000,74,80000,40,9999,0.100000,99,0,0.000000,14,0.000000,29.877960,0.806835,99,99,0,0,0,0,0
11,119999,36,110000,15,10000,40,9999,0.100000,99,0,0.000000,14,0.000000,26.945608,2.646693,99,99,0,0,0,0,0
11,119999,37,110000,25,0,40,9999,0.100000,99,0,0.000000,14,0.000000,18.116640,0.143650,99,99,0,0,0,0,0
11,119999,38,110000,30,10000,41,9999,0.100000,99,0,0.000000,14,4.000000,27.880166,11.335667,99,99,0,0,0,0,0
11,119999,39,110000,17,80000,41,9999,0.100000,99,0,0.000000,14,3.000000,24.031532,3.452496,99,99,0,0,0,0,0
11,119999,40,110000,15,0,40,9999,0.100000,99,0,0.000000,14,0.000000,18.952005,0.258760,99,99,0,0,0,0,0
11,119999,41,110000,62,30000,40,9999,0.100000,99,0,0.000000,14,0.000000,29.714810,0.357288,99,99,0,0,0,0,0
11,119999,42,110000,15,10000,40,9999,0.065000,99,0,0.000000,14,3.000000,31.158834,5.351866,99,99,0,0,0,0,0
11,119999,43,110000,13,40000,40,9999,0.100000,99,0,0.000000,14,0.000000,13.300297,0.811539,99,99,0,0,0,0,0
11,119999,44,110000,49,0,41,9999,0.100000,99,0,0.000000,14,3.000000,28.332569,13.210466,99,99,0,0,0,0,0
11,119999,45,110000,30,10000,40,9999,0.100000,99,0,0.000000,14,0.000000,22.272582,0.958249,99,99,0,0,0,0,0
11,119999,46,110000,17,80000,0,9999,0.100000,99,0,0.159359,14,0.000000,17.301296,0.094126,99,99,0,0,0,0,1
11,119999,47,110000,17,80000,40,9999,0.100000,99,0,0.000000,14,3.000000,33.996963,7.659443,99,99,0,0,0,0,0
11,119999,48,110000,62,30000,41,9999,0.100000,99,0,0.000000,14,3.000000,28.214240,9.259714,99,99,0,0,0,0,0
11,119999,49,110000,30,10000,40,9999,0.100000,99,0,0.000000,14,0.000000,29.844640,0.136948,99,99,0,0,0,0,0
11,119999,50,110000,13,40000,0,9999,0.100000,99,0,0.021030,14,0.000000,27.959573,0.157325,99,99,0,0,0,0,1
11,119999,51,110000,99,0,41,9999,0.100000,99,0,0.000000,14,4.000000,34.276158,12.830410,99,99,0,0,0,0,0
11,119999,52,110000,23,0,41,9999,0.100000,99,0,0.000000,14,5.000000,29.998334,7.094191,99,99,0,0,0,0,0
11,119999,53,110000,17,80000,41,9999,0.100000,99,0,0.000000,14,3.000000,22.233235,9.375238,99,99,0,0,0,0,0
11,119999,54,110000,30,10000,40,9999,0.100000,99,0,0.000000,14,0.000000,29.670363,0.185579,99,99,0,0,0,0,0
11,119999,55,110000,25,0,1,9999,0.100000,99,0,19.710802,14,3.000000,24.648128,6.688340,99,99,0,0,0,1,0
11,119999,56,110000,99,0,41,9999,0.100000,99,0,0.000000,14,3.000000,23.254811,7.551032,99,99,0,0,0,0,0
11,119999,57,110000,15,10000,40,9999,0.100000,99,0,0.000000,14,0.000000,35.424761,0.224617,99,99,0,0,0,0,0
11,119999,58,110000,13,40000,40,9999,0.100000,99,0,0.000000,14,0.000000,26.588174,0.635449,99,99,0,0,0,0,0
11,119999,59,110000,30,10000,40,9999,0.100000,99,0,0.000000,14,0.000000,28.955541,3.095559,99,99,0,0,0,0,0
11,119999,60,110000,15,10000,40,9999,0.100000,99,0,0.000000,14,3.000000,30.866328,22.907800,99,99,0,0,0,0,0
11,119999,61,110000,27,70000,41,9999,0.100000,99,0,0.000000,14,4.000000,29.812217,13.884879,99,99,0,0,0,0,0
11,119999,62,110000,13,40000,40,9999,0.100000,99,0,0.000000,14,3.000000,31.023243,10.904237,99,99,0,0,0,0,0
11,119999,63,110000,17,80000,40,9999,0.100000,99,0,0.000000,14,0.000000,34.311702,9.192581,99,99,0,0,0,0,0
11,119999,64,110000,30,10000,40,9999,0.100000,99,0,0.000000,14,0.000000,23.814616,0.983042,99,99,0,0,0,0,0
11,119999,65,110000,17,80000,40,9999,0.100000,99,0,0.000000,14,0.000000,18.299580,0.224813,99,99,0,0,0,0,0
11,119999,66,110000,15,0,40,9999,0.100000,99,0,0.000000,14,0.000000,28.180156,0.084889,99,99,0,0,0,0,0
11,119999,67,110000,99,0,40,9999,0.100000,99,0,0.000000,14,0.000000,22.283273,0.668703,99,99,0,0,0,0,0
11,119999,68,110000,15,10000,0,9999,0.100000,99,0,0.011739,14,0.000000,24.697361,0.121007,99,99,0,0,0,0,1
11,119999,69,110000,99,0,40,9999,0.100000,99,0,0.000000,14,0.000000,17.396554,0.098748,99,99,0,0,0,0,0
11,119999,70,110000,62,30000,40,9999,0.100000,99,0,0.000000,14,0.000000,24.541506,0.304010,99,99,0,0,0,0,0
11,119999,71,110000,25,0,40,9999,0.100000,99,0,0.000000,14,0.000000,22.368537,0.190683,99,99,0,0,0,0,0
11,119999,72,110000,49,0,41,9999,0.135000,99,0,0.000000,14,4.000000,24.445743,11.433654,99,99,0,0,0,0,0
11,119999,73,110000,13,40000,40,9999,0.100000,99,0,0.000000,14,0.000000,18.666076,0.231669,99,99,0,0,0,0,0
11,119999,74,110000,15,0,40,9999,0.100000,99,0,0.000000,14,1.000000,28.163802,6.976671,99,99,0,0,0,0,0
11,119999,75,110000,62,30000,40,9999,0.100000,99,0,0.000000,14,1.000000,28.740620,6.224959,99,99,0,0,0,0,0
11,119999,76,110000,80,20000,40,9999,0.100000,99,0,0.000000,14,0.000000,24.642193,0.432387,99,99,0,0,0,0,0
11,119999,77,110000,30,10000,40,9999,0.100000,99,0,0.000000,14,1.000000,28.559261,2.572118,99,99,0,0,0,0,0
