generation,iteration,robot,birthday,ancestor_id,ancestor_birthday,cell_id,age,sigma,maps,genomes,fitness,cells_in_map,dist_max,dist_pot_max,dist_total,com_rx,com_tx,obj_group1,obj_group2,obj_group3,obj_group4,obj_group5
0,9999,0,0,0,0,1,9999,0.100000,0,0,0.000000,0,6.000000,0.000000,11.632836,0,0,0,0,0,0,0
0,9999,1,0,1,0,1,9999,0.100000,0,0,0.000000,0,7.000000,0.000000,16.618160,0,0,0,0,0,0,0
0,9999,2,0,2,0,1,9999,0.100000,0,0,0.000000,0,11.000000,0.000000,17.200178,0,0,0,0,0,0,0
0,9999,3,0,3,0,1,9999,0.100000,0,0,0.000000,0,4.000000,0.000000,12.238893,0,0,0,0,0,0,0
0,9999,4,0,4,0,1,9999,0.100000,0,0,0.000000,0,7.000000,0.000000,11.767704,0,0,0,0,0,0,0
0,9999,5,0,5,0,1,9999,0.100000,0,0,0.000000,0,2.000000,0.000000,3.866174,0,0,0,0,0,0,0
0,9999,6,0,6,0,1,9999,0.100000,0,0,0.000000,0,11.000000,0.000000,19.672877,0,0,0,0,0,0,0
0,9999,7,0,7,0,1,9999,0.100000,0,0,0.000000,0,9.000000,0.000000,16.122740,0,0,0,0,0,0,0
0,9999,8,0,8,0,1,9999,0.100000,0,0,0.000000,0,9.000000,0.000000,25.885281,0,0,0,0,0,0,0
0,9999,9,0,9,0,1,9999,0.100000,0,0,0.000000,0,5.000000,0.000000,7.613682,0,0,0,0,0,0,0
0,9999,10,0,10,0,1,9999,0.100000,0,0,0.000000,0,8.000000,0.000000,15.058402,0,0,0,0,0,0,0
0,9999,11,0,11,0,1,9999,0.100000,0,0,0.000000,0,10.000000,0.000000,20.840827,0,0,0,0,0,0,0
0,9999,12,0,12,0,1,9999,0.100000,0,0,0.000000,0,9.000000,0.000000,12.762122,0,0,0,0,0,0,0
0,9999,13,0,13,0,1,9999,0.100000,0,0,0.000000,0,8.000000,0.000000,17.273245,0,0,0,0,0,0,0
0,9999,14,0,14,0,1,9999,0.100000,0,0,0.000000,0,11.000000,0.000000,15.164455,0,0,0,0,0,0,0
0,9999,15,0,15,0,1,9999,0.100000,0,0,0.000000,0,10.000000,0.000000,11.368045,0,0,0,0,0,0,0
0,9999,16,0,16,0,1,9999,0.100000,0,0,0.000000,0,10.000000,0.000000,23.800839,0,0,0,0,0,0,0
0,9999,17,0,17,0,1,9999,0.100000,0,0,0.000000,0,8.000000,0.000000,16.011542,0,0,0,0,0,0,0
0,9999,18,0,18,0,1,9999,0.100000,0,0,0.000000,0,4.000000,0.000000,20.305846,0,0,0,0,0,0,0
0,9999,19,0,19,0,1,9999,0.100000,0,0,0.000000,0,2.000000,0.000000,4.030758,0,0,0,0,0,0,0
0,9999,20,0,20,0,1,9999,0.100000,0,0,0.000000,0,10.000000,0.000000,12.545772,0,0,0,0,0,0,0
0,9999,21,0,21,0,1,9999,0.100000,0,0,0.000000,0,8.000000,0.000000,13.676047,0,0,0,0,0,0,0
0,9999,22,0,22,0,1,9999,0.100000,0,0,0.000000,0,5.000000,0.000000,6.617777,0,0,0,0,0,0,0
0,9999,23,0,23,0,1,9999,0.100000,0,0,0.000000,0,3.000000,0.000000,3.845233,0,0,0,0,0,0,0
0,9999,24,0,24,0,1,9999,0.100000,0,0,0.000000,0,9.000000,0.000000,18.685953,0,0,0,0,0,0,0
0,9999,25,0,25,0,1,9999,0.100000,0,0,0.000000,0,8.000000,0.000000,9.219944,0,0,0,0,0,0,0
0,9999,26,0,26,0,1,9999,0.100000,0,0,0.000000,0,10.000000,0.000000,19.863493,0,0,0,0,0,0,0
0,9999,27,0,27,0,1,9999,0.100000,0,0,0.000000,0,11.000000,0.000000,12.309630,0,0,0,0,0,0,0
0,9999,28,0,28,0,1,9999,0.100000,0,0,0.000000,0,6.000000,0.000000,8.129670,0,0,0,0,0,0,0
0,9999,29,0,29,0,1,9999,0.100000,0,0,0.000000,0,4.000000,0.000000,13.803960,0,0,0,0,0,0,0
0,9999,30,0,30,0,1,9999,0.100000,0,0,0.000000,0,10.000000,0.000000,12.828692,0,0,0,0,0,0,0
0,9999,31,0,31,0,1,9999,0.100000,0,0,0.000000,0,4.000000,0.000000,5.250141,0,0,0,0,0,0,0
0,9999,32,0,32,0,1,9999,0.100000,0,0,0.000000,0,6.000000,0.000000,30.232935,0,0,0,0,0,0,0
0,9999,33,0,33,0,1,9999,0.100000,0,0,0.000000,0,10.000000,0.000000,15.768608,0,0,0,0,0,0,0
0,9999,34,0,34,0,1,9999,0.100000,0,0,0.000000,0,8.000000,0.000000,12.445421,0,0,0,0,0,0,0
0,9999,35,0,35,0,1,9999,0.100000,0,0,0.000000,0,8.000000,0.000000,18.234478,0,0,0,0,0,0,0
0,9999,36,0,36,0,1,9999,0.100000,0,0,0.000000,0,7.000000,0.000000,9.637377,0,0,0,0,0,0,0
0,9999,37,0,37,0,1,9999,0.100000,0,0,0.000000,0,2.000000,0.000000,7.029795,0,0,0,0,0,0,0
0,9999,38,0,38,0,1,9999,0.100000,0,0,0.000000,0,10.000000,0.000000,23.750768,0,0,0,0,0,0,0
0,9999,39,0,39,0,1,9999,0.100000,0,0,0.000000,0,9.000000,0.000000,18.995914,0,0,0,0,0,0,0
0,9999,40,0,40,0,1,9999,0.100000,0,0,0.000000,0,7.000000,0.000000,7.402083,0,0,0,0,0,0,0
0,9999,41,0,41,0,1,9999,0.100000,0,0,0.000000,0,9.000000,0.000000,13.534949,0,0,0,0,0,0,0
0,9999,42,0,42,0,1,9999,0.100000,0,0,0.000000,0,9.000000,0.000000,10.328464,0,0,0,0,0,0,0
0,9999,43,0,43,0,1,9999,0.100000,0,0,0.000000,0,4.000000,0.000000,12.312949,0,0,0,0,0,0,0
0,9999,44,0,44,0,1,9999,0.100000,0,0,0.000000,0,11.000000,0.000000,17.731075,0,0,0,0,0,0,0
0,9999,45,0,45,0,1,9999,0.100000,0,0,0.000000,0,9.000000,0.000000,13.199193,0,0,0,0,0,0,0
0,9999,46,0,46,0,1,9999,0.100000,0,0,0.000000,0,7.000000,0.000000,19.296277,0,0,0,0,0,0,0
0,9999,47,0,47,0,1,9999,0.100000,0,0,0.000000,0,7.000000,0.000000,14.147286,0,0,0,0,0,0,0
0,9999,48,0,48,0,1,9999,0.100000,0,0,0.000000,0,7.000000,0.000000,22.550038,0,0,0,0,0,0,0
0,9999,49,0,49,0,1,9999,0.100000,0,0,0.000000,0,12.000000,0.000000,16.786889,0,0,0,0,0,0,0
0,9999,50,0,50,0,1,9999,0.100000,0,0,0.000000,0,7.000000,0.000000,10.193499,0,0,0,0,0,0,0
0,9999,51,0,51,0,1,9999,0.100000,0,0,0.000000,0,17.000000,0.000000,31.986786,0,0,0,0,0,0,0
0,9999,52,0,52,0,1,9999,0.100000,0,0,0.000000,0,9.000000,0.000000,11.147569,0,0,0,0,0,0,0
0,9999,53,0,53,0,1,9999,0.100000,0,0,0.000000,0,6.000000,0.000000,7.064514,0,0,0,0,0,0,0
0,9999,54,0,54,0,1,9999,0.100000,0,0,0.000000,0,9.000000,0.000000,10.055871,0,0,0,0,0,0,0
0,9999,55,0,55,0,1,9999,0.100000,0,0,0.000000,0,8.000000,0.000000,12.134201,0,0,0,0,0,0,0
0,9999,56,0,56,0,1,9999,0.100000,0,0,0.000000,0,7.000000,0.000000,21.725037,0,0,0,0,0,0,0
0,9999,57,0,57,0,1,9999,0.100000,0,0,0.000000,0,4.000000,0.000000,10.814846,0,0,0,0,0,0,0
0,9999,58,0,58,0,1,9999,0.100000,0,0,0.000000,0,1.000000,0.000000,2.043911,0,0,0,0,0,0,0
0,9999,59,0,59,0,1,9999,0.100000,0,0,0.000000,0,10.000000,0.000000,17.797547,0,0,0,0,0,0,0
0,9999,60,0,60,0,1,9999,0.100000,0,0,0.000000,0,11.000000,0.000000,12.708487,0,0,0,0,0,0,0
0,9999,61,0,61,0,1,9999,0.100000,0,0,0.000000,0,8.000000,0.000000,23.172953,0,0,0,0,0,0,0
0,9999,62,0,62,0,1,9999,0.100000,0,0,0.000000,0,8.000000,0.000000,9.230957,0,0,0,0,0,0,0
0,9999,63,0,63,0,1,9999,0.100000,0,0,0.000000,0,6.000000,0.000000,9.609020,0,0,0,0,0,0,0
0,9999,64,0,64,0,1,9999,0.100000,0,0,0.000000,0,10.000000,0.000000,10.979135,0,0,0,0,0,0,0
0,9999,65,0,65,0,1,9999,0.100000,0,0,0.000000,0,7.000000,0.000000,8.090625,0,0,0,0,0,0,0
0,9999,66,0,66,0,1,9999,0.100000,0,0,0.000000,0,7.000000,0.000000,16.543410,0,0,0,0,0,0,0
0,9999,67,0,67,0,1,9999,0.100000,0,0,0.000000,0,3.000000,0.000000,8.128248,0,0,0,0,0,0,0
0,9999,68,0,68,0,1,9999,0.100000,0,0,0.000000,0,16.000000,0.000000,31.098668,0,0,0,0,0,0,0
0,9999,69,0,69,0,1,9999,0.100000,0,0,0.000000,0,6.000000,0.000000,15.829277,0,0,0,0,0,0,0
0,9999,70,0,70,0,1,9999,0.100000,0,0,0.000000,0,10.000000,0.000000,14.757208,0,0,0,0,0,0,0
0,9999,71,0,71,0,1,9999,0.100000,0,0,0.000000,0,8.000000,0.000000,8.671115,0,0,0,0,0,0,0
0,9999,72,0,72,0,1,9999,0.100000,0,0,0.000000,0,10.000000,0.000000,19.254507,0,0,0,0,0,0,0
0,9999,73,0,73,0,1,9999,0.100000,0,0,0.000000,0,6.000000,0.000000,12.200253,0,0,0,0,0,0,0
0,9999,74,0,74,0,1,9999,0.100000,0,0,0.000000,0,5.000000,0.000000,9.563772,0,0,0,0,0,0,0
0,9999,75,0,75,0,1,9999,0.100000,0,0,0.000000,0,5.000000,0.000000,17.694827,0,0,0,0,0,0,0
0,9999,76,0,76,0,1,9999,0.100000,0,0,0.000000,0,5.000000,0.000000,11.220127,0,0,0,0,0,0,0
0,9999,77,0,77,0,1,9999,0.100000,0,0,0.000000,0,10.000000,0.000000,21.226641,0,0,0,0,0,0,0
0,9999,78,0,78,0,1,9999,0.100000,0,0,0.000000,0,4.000000,0.000000,6.486893,0,0,0,0,0,0,0
0,9999,79,0,79,0,1,9999,0.100000,0,0,0.000000,0,10.000000,0.000000,13.497548,0,0,0,0,0,0,0
0,9999,80,0,80,0,1,9999,0.100000,0,0,0.000000,0,8.000000,0.000000,16.437577,0,0,0,0,0,0,0
0,9999,81,0,81,0,1,9999,0.100000,0,0,0.000000,0,10.000000,0.000000,11.967333,0,0,0,0,0,0,0
0,9999,82,0,82,0,1,9999,0.100000,0,0,0.000000,0,8.000000,0.000000,9.862940,0,0,0,0,0,0,0
0,9999,83,0,83,0,1,9999,0.100000,0,0,0.000000,0,5.000000,0.000000,12.234627,0,0,0,0,0,0,0
0,9999,84,0,84,0,1,9999,0.100000,0,0,0.000000,0,8.000000,0.000000,14.550196,0,0,0,0,0,0,0
0,9999,85,0,85,0,1,9999,0.100000,0,0,0.000000,0,3.000000,0.000000,4.089484,0,0,0,0,0,0,0
0,9999,86,0,86,0,1,9999,0.100000,0,0,0.000000,0,8.000000,0.000000,10.652829,0,0,0,0,0,0,0
0,9999,87,0,87,0,1,9999,0.100000,0,0,0.000000,0,5.000000,0.000000,18.166241,0,0,0,0,0,0,0
0,9999,88,0,88,0,1,9999,0.100000,0,0,0.000000,0,8.000000,0.000000,12.542816,0,0,0,0,0,0,0
0,9999,89,0,89,0,1,9999,0.100000,0,0,0.000000,0,10.000000,0.000000,16.843213,0,0,0,0,0,0,0
0,9999,90,0,90,0,1,9999,0.100000,0,0,0.000000,0,5.000000,0.000000,5.444499,0,0,0,0,0,0,0
0,9999,91,0,91,0,1,9999,0.100000,0,0,0.000000,0,9.000000,0.000000,15.149843,0,0,0,0,0,0,0
0,9999,92,0,92,0,1,9999,0.100000,0,0,0.000000,0,4.000000,0.000000,7.602158,0,0,0,0,0,0,0
0,9999,93,0,93,0,1,9999,0.100000,0,0,0.000000,0,6.000000,0.000000,18.693630,0,0,0,0,0,0,0
0,9999,94,0,94,0,1,9999,0.100000,0,0,0.000000,0,6.000000,0.000000,12.722662,0,0,0,0,0,0,0
0,9999,95,0,95,0,1,9999,0.100000,0,0,0.000000,0,9.000000,0.000000,12.639414,0,0,0,0,0,0,0
0,9999,96,0,96,0,1,9999,0.100000,0,0,0.000000,0,7.000000,0.000000,15.283146,0,0,0,0,0,0,0
0,9999,97,0,97,0,1,9999,0.100000,0,0,0.000000,0,9.000000,0.000000,19.646639,0,0,0,0,0,0,0
0,9999,98,0,98,0,1,9999,0.100000,0,0,0.000000,0,3.000000,0.000000,13.062857,0,0,0,0,0,0,0
0,9999,99,0,99,0,1,9999,0.100000,0,0,0.000000,0,6.000000,0.000000,14.470676,0,0,0,0,0,0,0
1,19999,0,10000,0,0,0,9999,0.100000,0,0,0.000000,1,0.000000,0.000000,0.785227,0,0,0,0,0,0,0
1,19999,1,10000,0,0,1,9999,0.100000,0,0,0.000000,1,1.000000,0.000000,2.539318,0,0,0,0,0,0,0
1,19999,2,10000,0,0,0,9999,0.100000,0,0,0.000000,1,0.000000,0.000000,0.130169,0,0,0,0,0,0,0
1,19999,3,10000,71,0,1,9999,0.100000,0,0,0.000000,1,2.000000,0.000000,9.771518,0,0,0,0,0,0,0
1,19999,4,10000,15,0,0,9999,0.100000,0,0,0.000000,1,0.000000,0.000000,1.407484,0,0,0,0,0,0,0
1,19999,5,10000,15,0,0,9999,0.100000,0,0,0.000000,1,0.000000,0.000000,0.667163,0,0,0,0,0,0,0
1,19999,6,10000,15,0,0,9999,0.100000,0,0,0.000000,1,0.000000,0.000000,0.289319,0,0,0,0,0,0,0
1,19999,7,10000,15,0,1,9999,0.100000,0,0,0.000000,1,2.000000,0.000000,6.299402,0,0,0,0,0,0,0
1,19999,8,10000,15,0,3,9999,0.100000,0,0,34.210526,1,17.000000,0.000000,21.196694,0,0,1,0,0,0,0
1,19999,9,10000,15,0,0,9999,0.100000,0,0,0.000000,1,0.000000,0.000000,0.117972,0,0,0,0,0,0,0
1,19999,10,10000,15,0,0,9999,0.100000,0,0,0.000000,1,0.000000,0.000000,0.577899,0,0,0,0,0,0,0
1,19999,11,10000,71,0,1,9999,0.100000,0,0,0.000000,1,1.000000,0.000000,12.922586,0,0,0,0,0,0,0
1,19999,12,10000,12,0,0,9999,0.100000,0,0,0.000000,1,0.000000,0.000000,0.154739,0,0,0,0,0,0,0
1,19999,13,10000,15,0,0,9999,0.100000,0,0,0.000000,1,0.000000,0.000000,0.492940,0,0,0,0,0,0,0
1,19999,14,10000,15,0,0,9999,0.100000,0,0,0.000000,1,0.000000,0.000000,0.998293,0,0,0,0,0,0,0
1,19999,15,10000,15,0,0,9999,0.100000,0,0,0.000000,1,0.000000,0.000000,4.073611,0,0,0,0,0,0,0
1,19999,16,10000,15,0,1,9999,0.100000,0,0,0.000000,1,1.000000,0.000000,6.751191,0,0,0,0,0,0,0
1,19999,17,10000,15,0,0,9999,0.100000,0,0,0.000000,1,0.000000,0.000000,0.796585,0,0,0,0,0,0,0
1,19999,18,10000,15,0,0,9999,0.100000,0,0,0.000000,1,0.000000,0.000000,2.195171,0,0,0,0,0,0,0
1,19999,19,10000,15,0,0,9999,0.100000,0,0,0.000000,1,0.000000,0.000000,0.811335,0,0,0,0,0,0,0
1,19999,20,10000,15,0,0,9999,0.100000,0,0,0.000000,1,0.000000,0.000000,4.984235,0,0,0,0,0,0,0
1,19999,21,10000,15,0,0,9999,0.100000,0,0,0.000000,1,0.000000,0.000000,0.426130,0,0,0,0,0,0,0
1,19999,22,10000,15,0,0,9999,0.100000,0,0,0.000000,1,0.000000,0.000000,0.961848,0,0,0,0,0,0,0
1,19999,23,10000,15,0,0,9999,0.100000,0,0,0.000000,1,0.000000,0.000000,0.133748,0,0,0,0,0,0,0
1,19999,24,10000,15,0,1,9999,0.100000,0,0,0.000000,1,1.000000,0.000000,4.978703,0,0,0,0,0,0,0
1,19999,25,10000,15,0,0,9999,0.100000,0,0,0.000000,1,0.000000,0.000000,0.232462,0,0,0,0,0,0,0
1,19999,26,10000,15,0,0,9999,0.100000,0,0,0.000000,1,0.000000,0.000000,5.110307,0,0,0,0,0,0,0
1,19999,27,10000,15,0,0,9999,0.100000,0,0,0.000000,1,0.000000,0.000000,0.137098,0,0,0,0,0,0,0
1,19999,28,10000,15,0,0,9999,0.100000,0,0,0.000000,1,0.000000,0.000000,0.285444,0,0,0,0,0,0,0
1,19999,29,10000,15,0,1,9999,0.100000,0,0,0.000000,1,1.000000,0.000000,1.710205,0,0,0,0,0,0,0
1,19999,30,10000,15,0,0,9999,0.100000,0,0,0.000000,1,0.000000,0.000000,0.381365,0,0,0,0,0,0,0
1,19999,31,10000,15,0,0,9999,0.100000,0,0,0.000000,1,0.000000,0.000000,0.102638,0,0,0,0,0,0,0
1,19999,32,10000,15,0,1,9999,0.100000,0,0,0.000000,1,2.000000,0.000000,8.607185,0,0,0,0,0,0,0
1,19999,33,10000,15,0,0,9999,0.100000,0,0,0.000000,1,0.000000,0.000000,5.364384,0,0,0,0,0,0,0
1,19999,34,10000,15,0,0,9999,0.100000,0,0,0.000000,1,0.000000,0.000000,0.143917,0,0,0,0,0,0,0
1,19999,35,10000,15,0,0,9999,0.100000,0,0,0.000000,1,0.000000,0.000000,5.804880,0,0,0,0,0,0,0
1,19999,36,10000,15,0,0,9999,0.100000,0,0,0.000000,1,0.000000,0.000000,0.613401,0,0,0,0,0,0,0
1,19999,37,10000,15,0,0,9999,0.100000,0,0,0.000000,1,0.000000,0.000000,1.481196,0,0,0,0,0,0,0
1,19999,38,10000,15,0,1,9999,0.100000,0,0,0.000000,1,1.000000,0.000000,3.848886,0,0,0,0,0,0,0
1,19999,39,10000,15,0,1,9999,0.100000,0,0,0.000000,1,2.000000,0.000000,7.959344,0,0,0,0,0,0,0
1,19999,40,10000,40,0,0,9999,0.100000,0,0,0.000000,1,0.000000,0.000000,0.229248,0,0,0,0,0,0,0
1,19999,41,10000,15,0,0,9999,0.100000,0,0,0.000000,1,0.000000,0.000000,0.209201,0,0,0,0,0,0,0
1,19999,42,10000,15,0,0,9999,0.100000,0,0,0.000000,1,0.000000,0.000000,0.669551,0,0,0,0,0,0,0
1,19999,43,10000,15,0,0,9999,0.100000,0,0,0.000000,1,0.000000,0.000000,0.063667,0,0,0,0,0,0,0
1,19999,44,10000,15,0,1,9999,0.100000,0,0,0.000000,1,2.000000,0.000000,3.515517,0,0,0,0,0,0,0
1,19999,45,10000,15,0,1,9999,0.100000,0,0,0.000000,1,1.000000,0.000000,7.246388,0,0,0,0,0,0,0
1,19999,46,10000,15,0,1,9999,0.100000,0,0,0.000000,1,1.000000,0.000000,7.155680,0,0,0,0,0,0,0
1,19999,47,10000,15,0,1,9999,0.100000,0,0,0.000000,1,1.000000,0.000000,6.939920,0,0,0,0,0,0,0
1,19999,48,10000,15,0,0,9999,0.100000,0,0,0.000000,1,0.000000,0.000000,2.808781,0,0,0,0,0,0,0
1,19999,49,10000,15,0,0,9999,0.100000,0,0,0.000000,1,0.000000,0.000000,0.343725,0,0,0,0,0,0,0
1,19999,50,10000,15,0,0,9999,0.100000,0,0,0.000000,1,0.000000,0.000000,0.111912,0,0,0,0,0,0,0
1,19999,51,10000,15,0,1,9999,0.100000,0,0,0.000000,1,7.000000,0.000000,18.562817,0,0,0,0,0,0,0
1,19999,52,10000,15,0,0,9999,0.100000,0,0,0.000000,1,0.000000,0.000000,0.157562,0,0,0,0,0,0,0
1,19999,53,10000,15,0,0,9999,0.100000,0,0,0.000000,1,0.000000,0.000000,0.603555,0,0,0,0,0,0,0
1,19999,54,10000,15,0,1,9999,0.100000,0,0,0.000000,1,2.000000,0.000000,4.868233,0,0,0,0,0,0,0
1,19999,55,10000,15,0,1,9999,0.100000,0,0,0.000000,1,3.000000,0.000000,6.393285,0,0,0,0,0,0,0
1,19999,56,10000,15,0,1,9999,0.100000,0,0,0.000000,1,2.000000,0.000000,7.757507,0,0,0,0,0,0,0
1,19999,57,10000,15,0,1,9999,0.100000,0,0,0.000000,1,1.000000,0.000000,3.160758,0,0,0,0,0,0,0
1,19999,58,10000,15,0,0,9999,0.100000,0,0,0.000000,1,0.000000,0.000000,0.074174,0,0,0,0,0,0,0
1,19999,59,10000,15,0,0,9999,0.100000,0,0,0.000000,1,0.000000,0.000000,0.282308,0,0,0,0,0,0,0
1,19999,60,10000,15,0,0,9999,0.100000,0,0,0.000000,1,0.000000,0.000000,0.103273,0,0,0,0,0,0,0
1,19999,61,10000,15,0,0,9999,0.100000,0,0,0.000000,1,0.000000,0.000000,0.537438,0,0,0,0,0,0,0
1,19999,62,10000,15,0,0,9999,0.100000,0,0,0.000000,1,0.000000,0.000000,0.144548,0,0,0,0,0,0,0
1,19999,63,10000,15,0,0,9999,0.100000,0,0,0.000000,1,0.000000,0.000000,0.472159,0,0,0,0,0,0,0
1,19999,64,10000,15,0,0,9999,0.100000,0,0,0.000000,1,0.000000,0.000000,0.550574,0,0,0,0,0,0,0
1,19999,65,10000,15,0,0,9999,0.100000,0,0,0.000000,1,0.000000,0.000000,0.108166,0,0,0,0,0,0,0
1,19999,66,10000,15,0,0,9999,0.100000,0,0,0.000000,1,0.000000,0.000000,1.420962,0,0,0,0,0,0,0
1,19999,67,10000,15,0,0,9999,0.100000,0,0,0.000000,1,0.000000,0.000000,0.129134,0,0,0,0,0,0,0
1,19999,68,10000,15,0,0,9999,0.100000,0,0,0.000000,1,0.000000,0.000000,0.873789,0,0,0,0,0,0,0
1,19999,69,10000,15,0,1,9999,0.100000,0,0,0.000000,1,2.000000,0.000000,7.747918,0,0,0,0,0,0,0
1,19999,70,10000,15,0,0,9999,0.100000,0,0,0.000000,1,0.000000,0.000000,0.273808,0,0,0,0,0,0,0
1,19999,71,10000,71,0,0,9999,0.100000,0,0,0.000000,1,0.000000,0.000000,0.094986,0,0,0,0,0,0,0
1,19999,72,10000,15,0,0,9999,0.100000,0,0,0.000000,1,0.000000,0.000000,3.715164,0,0,0,0,0,0,0
1,19999,73,10000,15,0,1,9999,0.100000,0,0,0.000000,1,5.000000,0.000000,12.140477,0,0,0,0,0,0,0
1,19999,74,10000,15,0,1,9999,0.100000,0,0,0.000000,1,1.000000,0.000000,2.098340,0,0,0,0,0,0,0
1,19999,75,10000,15,0,0,9999,0.100000,0,0,0.000000,1,0.000000,0.000000,4.068518,0,0,0,0,0,0,0
1,19999,76,10000,15,0,0,9999,0.100000,0,0,0.000000,1,0.000000,0.000000,0.134453,0,0,0,0,0,0,0
1,19999,77,10000,15,0,0,9999,0.100000,0,0,0.000000,1,0.000000,0.000000,1.534996,0,0,0,0,0,0,0
1,19999,78,10000,15,0,0,9999,0.100000,0,0,0.000000,1,0.000000,0.000000,0.221843,0,0,0,0,0,0,0
1,19999,79,10000,15,0,0,9999,0.100000,0,0,0.000000,1,0.000000,0.000000,0.226747,0,0,0,0,0,0,0
1,19999,80,10000,15,0,1,9999,0.100000,0,0,0.000000,1,2.000000,0.000000,6.957309,0,0,0,0,0,0,0
1,19999,81,10000,15,0,0,9999,0.100000,0,0,0.000000,1,0.000000,0.000000,0.402914,0,0,0,0,0,0,0
1,19999,82,10000,15,0,0,9999,0.100000,0,0,0.000000,1,0.000000,0.000000,1.061900,0,0,0,0,0,0,0
1,19999,83,10000,15,0,1,9999,0.100000,0,0,0.000000,1,1.000000,0.000000,2.441555,0,0,0,0,0,0,0
1,19999,84,10000,15,0,1,9999,0.100000,0,0,0.000000,1,6.000000,0.000000,13.595344,0,0,0,0,0,0,0
1,19999,85,10000,15,0,0,9999,0.100000,0,0,0.000000,1,0.000000,0.000000,0.083006,0,0,0,0,0,0,0
1,19999,86,10000,15,0,0,9999,0.100000,0,0,0.000000,1,0.000000,0.000000,0.228970,0,0,0,0,0,0,0
1,19999,87,10000,15,0,1,9999,0.100000,0,0,0.000000,1,1.000000,0.000000,1.674876,0,0,0,0,0,0,0
1,19999,88,10000,15,0,1,9999,0.100000,0,0,34.210526,1,5.000000,0.000000,11.217279,0,0,0,1,0,0,0
1,19999,89,10000,71,0,0,9999,0.100000,0,0,0.000000,1,0.000000,0.000000,0.990967,0,0,0,0,0,0,0
1,19999,90,10000,15,0,0,9999,0.100000,0,0,0.000000,1,0.000000,0.000000,0.325161,0,0,0,0,0,0,0
1,19999,91,10000,15,0,1,9999,0.100000,0,0,0.000000,1,5.000000,0.000000,9.295383,0,0,0,0,0,0,0
1,19999,92,10000,15,0,1,9999,0.100000,0,0,0.000000,1,1.000000,0.000000,2.104773,0,0,0,0,0,0,0
1,19999,93,10000,15,0,1,9999,0.100000,0,0,0.000000,1,4.000000,0.000000,6.403478,0,0,0,0,0,0,0
1,19999,94,10000,15,0,0,9999,0.100000,0,0,0.000000,1,0.000000,0.000000,1.475889,0,0,0,0,0,0,0
1,19999,95,10000,15,0,0,9999,0.100000,0,0,0.000000,1,0.000000,0.000000,0.918809,0,0,0,0,0,0,0
1,19999,96,10000,15,0,1,9999,0.100000,0,0,0.000000,1,3.000000,0.000000,8.056155,0,0,0,0,0,0,0
1,19999,97,10000,15,0,1,9999,0.100000,0,0,34.210526,1,5.000000,0.000000,11.160263,0,0,0,1,0,0,0
1,19999,98,10000,15,0,1,9999,0.100000,0,0,0.000000,1,1.000000,0.000000,2.858257,0,0,0,0,0,0,0
1,19999,99,10000,15,0,0,9999,0.100000,0,0,0.000000,1,0.000000,0.000000,7.555415,0,0,0,0,0,0,0
2,29999,0,20000,10,10000,0,9999,0.100000,0,0,0.000000,2,0.000000,0.000000,0.553066,0,0,0,0,0,0,0
2,29999,1,20000,5,10000,1,9999,0.100000,0,0,0.000000,2,1.000000,0.000000,3.120058,0,0,0,0,0,0,0
2,29999,2,20000,15,0,0,9999,0.100000,0,0,0.000000,2,0.000000,0.000000,0.182192,0,0,0,0,0,0,0
2,29999,3,20000,15,0,0,9999,0.100000,0,0,0.000000,2,0.000000,0.000000,7.957127,0,0,0,0,0,0,0
2,29999,4,20000,15,0,0,9999,0.100000,0,0,0.000000,2,0.000000,0.000000,1.415495,0,0,0,0,0,0,0
2,29999,5,20000,15,0,0,9999,0.100000,0,0,0.000000,2,0.000000,0.000000,1.321737,0,0,0,0,0,0,0
2,29999,6,20000,5,10000,0,9999,0.100000,0,0,0.000000,2,0.000000,0.000000,0.289967,0,0,0,0,0,0,0
2,29999,7,20000,41,10000,1,9999,0.100000,0,0,0.000000,2,1.000000,0.000000,4.029148,0,0,0,0,0,0,0
2,29999,8,20000,15,0,0,9999,0.100000,0,0,0.000000,3,0.000000,0.000000,5.706627,0,0,0,0,0,0,0
2,29999,9,20000,41,10000,0,9999,0.100000,0,0,0.000000,2,0.000000,0.000000,0.114007,0,0,0,0,0,0,0
2,29999,10,20000,10,10000,0,9999,0.100000,0,0,0.000000,2,0.000000,0.000000,0.907946,0,0,0,0,0,0,0
2,29999,11,20000,70,10000,1,9999,0.100000,0,0,0.000000,2,1.000000,0.000000,4.201089,0,0,0,0,0,0,0
2,29999,12,20000,70,10000,0,9999,0.100000,0,0,0.000000,2,0.000000,0.000000,0.146728,0,0,0,0,0,0,0
2,29999,13,20000,41,10000,0,9999,0.100000,0,0,0.000000,2,0.000000,0.000000,0.428861,0,0,0,0,0,0,0
2,29999,14,20000,15,0,0,9999,0.100000,0,0,0.000000,2,0.000000,0.000000,0.757103,0,0,0,0,0,0,0
2,29999,15,20000,41,10000,0,9999,0.100000,0,0,0.000000,2,0.000000,0.000000,1.017080,0,0,0,0,0,0,0
2,29999,16,20000,70,10000,0,9999,0.100000,0,0,0.000000,3,0.000000,0.000000,1.228864,0,0,0,0,0,0,0
2,29999,17,20000,15,0,0,9999,0.100000,0,0,0.000000,2,0.000000,0.000000,0.828654,0,0,0,0,0,0,0
2,29999,18,20000,15,0,0,9999,0.100000,0,0,0.000000,2,0.000000,0.000000,5.259973,0,0,0,0,0,0,0
2,29999,19,20000,15,0,0,9999,0.100000,0,0,0.000000,2,0.000000,0.000000,0.920873,0,0,0,0,0,0,0
2,29999,20,20000,70,10000,0,9999,0.100000,0,0,0.000000,2,0.000000,0.000000,5.764049,0,0,0,0,0,0,0
2,29999,21,20000,15,0,0,9999,0.100000,0,0,0.000000,2,0.000000,0.000000,1.873538,0,0,0,0,0,0,0
2,29999,22,20000,70,10000,0,9999,0.100000,0,0,0.000000,2,0.000000,0.000000,0.106010,0,0,0,0,0,0,0
2,29999,23,20000,41,10000,1,9999,0.100000,0,0,0.000000,2,2.000000,0.000000,7.624529,0,0,0,0,0,0,0
2,29999,24,20000,70,10000,1,9999,0.100000,0,0,0.000000,2,1.000000,0.000000,6.151419,0,0,0,0,0,0,0
2,29999,25,20000,25,10000,0,9999,0.100000,0,0,0.000000,2,0.000000,0.000000,2.927310,0,0,0,0,0,0,0
2,29999,26,20000,15,0,1,9999,0.100000,0,0,0.000000,2,1.000000,0.000000,4.861120,0,0,0,0,0,0,0
2,29999,27,20000,15,0,0,9999,0.100000,0,0,0.000000,2,0.000000,0.000000,0.072335,0,0,0,0,0,0,0
2,29999,28,20000,27,10000,0,9999,0.100000,0,0,0.000000,2,0.000000,0.000000,0.352636,0,0,0,0,0,0,0
2,29999,29,20000,70,10000,1,9999,0.100000,0,0,0.000000,2,1.000000,0.000000,1.475916,0,0,0,0,0,0,0
2,29999,30,20000,27,10000,1,9999,0.100000,0,0,0.000000,2,7.000000,0.000000,14.821748,0,0,0,0,0,0,0
2,29999,31,20000,27,10000,0,9999,0.100000,0,0,0.000000,2,0.000000,0.000000,0.103609,0,0,0,0,0,0,0
2,29999,32,20000,70,10000,1,9999,0.100000,0,0,0.000000,2,1.000000,0.000000,6.388718,0,0,0,0,0,0,0
2,29999,33,20000,15,0,1,9999,0.100000,0,0,0.000000,2,2.000000,0.000000,5.915660,0,0,0,0,0,0,0
2,29999,34,20000,15,0,0,9999,0.100000,0,0,0.000000,2,0.000000,0.000000,0.163645,0,0,0,0,0,0,0
2,29999,35,20000,15,0,1,9999,0.100000,0,0,0.000000,2,1.000000,0.000000,5.026097,0,0,0,0,0,0,0
2,29999,36,20000,15,0,0,9999,0.100000,0,0,0.000000,2,0.000000,0.000000,0.640989,0,0,0,0,0,0,0
2,29999,37,20000,15,0,0,9999,0.100000,0,0,0.000000,2,0.000000,0.000000,3.289940,0,0,0,0,0,0,0
2,29999,38,20000,70,10000,0,9999,0.100000,0,0,0.000000,2,0.000000,0.000000,0.079849,0,0,0,0,0,0,0
2,29999,39,20000,15,0,1,9999,0.100000,0,0,0.000000,2,1.000000,0.000000,5.882853,0,0,0,0,0,0,0
2,29999,40,20000,27,10000,0,9999,0.100000,0,0,0.000000,2,0.000000,0.000000,0.172833,0,0,0,0,0,0,0
2,29999,41,20000,15,0,0,9999,0.100000,0,0,0.000000,2,0.000000,0.000000,0.151302,0,0,0,0,0,0,0
2,29999,42,20000,8,10000,0,9999,0.100000,0,0,0.000000,3,0.000000,0.000000,0.995814,0,0,0,0,0,0,0
2,29999,43,20000,15,0,0,9999,0.100000,0,0,0.000000,2,0.000000,0.000000,0.063736,0,0,0,0,0,0,0
2,29999,44,20000,70,10000,1,9999,0.100000,0,0,0.000000,3,1.000000,0.000000,1.685131,0,0,0,0,0,0,0
2,29999,45,20000,27,10000,0,9999,0.100000,0,0,0.000000,2,0.000000,0.000000,0.401988,0,0,0,0,0,0,0
2,29999,46,20000,27,10000,1,9999,0.100000,0,0,0.000000,2,1.000000,0.000000,2.060550,0,0,0,0,0,0,0
2,29999,47,20000,15,0,1,9999,0.100000,0,0,0.000000,2,1.000000,0.000000,4.183664,0,0,0,0,0,0,0
2,29999,48,20000,15,0,1,9999,0.100000,0,0,0.000000,2,1.000000,0.000000,3.071176,0,0,0,0,0,0,0
2,29999,49,20000,70,10000,0,9999,0.100000,0,0,0.000000,2,0.000000,0.000000,0.330713,0,0,0,0,0,0,0
2,29999,50,20000,70,10000,0,9999,0.100000,0,0,0.000000,3,0.000000,0.000000,0.110843,0,0,0,0,0,0,0
2,29999,51,20000,15,0,0,9999,0.100000,0,0,0.000000,2,0.000000,0.000000,2.868245,0,0,0,0,0,0,0
2,29999,52,20000,8,10000,0,9999,0.100000,0,0,0.000000,3,0.000000,0.000000,0.209942,0,0,0,0,0,0,0
2,29999,53,20000,15,0,0,9999,0.100000,0,0,0.000000,2,0.000000,0.000000,0.589105,0,0,0,0,0,0,0
2,29999,54,20000,15,0,1,9999,0.100000,0,0,0.000000,2,3.000000,0.000000,10.382354,0,0,0,0,0,0,0
2,29999,55,20000,70,10000,1,9999,0.100000,0,0,0.000000,2,1.000000,0.000000,6.361689,0,0,0,0,0,0,0
2,29999,56,20000,15,0,1,9999,0.100000,0,0,0.000000,2,2.000000,0.000000,6.179299,0,0,0,0,0,0,0
2,29999,57,20000,8,10000,1,9999,0.100000,0,0,0.000000,3,1.000000,0.000000,3.412588,0,0,0,0,0,0,0
2,29999,58,20000,15,0,0,9999,0.100000,0,0,0.000000,2,0.000000,0.000000,0.138412,0,0,0,0,0,0,0
2,29999,59,20000,15,0,0,9999,0.100000,0,0,0.000000,2,0.000000,0.000000,0.138901,0,0,0,0,0,0,0
2,29999,60,20000,70,10000,0,9999,0.100000,0,0,0.000000,2,0.000000,0.000000,0.450260,0,0,0,0,0,0,0
2,29999,61,20000,15,0,0,9999,0.100000,0,0,0.000000,2,0.000000,0.000000,0.532001,0,0,0,0,0,0,0
2,29999,62,20000,15,0,0,9999,0.065000,0,0,0.000000,2,0.000000,0.000000,0.121752,0,0,0,0,0,0,0
2,29999,63,20000,70,10000,0,9999,0.100000,0,0,0.000000,2,0.000000,0.000000,0.449111,0,0,0,0,0,0,0
2,29999,64,20000,5,10000,0,9999,0.100000,0,0,0.000000,2,0.000000,0.000000,0.491585,0,0,0,0,0,0,0
2,29999,65,20000,15,0,0,9999,0.100000,0,0,0.000000,2,0.000000,0.000000,0.105121,0,0,0,0,0,0,0
2,29999,66,20000,70,10000,1,9999,0.100000,0,0,0.000000,3,1.000000,0.000000,2.451710,0,0,0,0,0,0,0
2,29999,67,20000,15,0,0,9999,0.100000,0,0,0.000000,3,0.000000,0.000000,0.462103,0,0,0,0,0,0,0
2,29999,68,20000,70,10000,0,9999,0.100000,0,0,0.000000,2,0.000000,0.000000,0.981447,0,0,0,0,0,0,0
2,29999,69,20000,15,0,0,9999,0.100000,0,0,0.000000,3,0.000000,0.000000,7.316896,0,0,0,0,0,0,0
2,29999,70,20000,15,0,0,9999,0.100000,0,0,0.000000,2,0.000000,0.000000,0.313798,0,0,0,0,0,0,0
2,29999,71,20000,15,0,0,9999,0.100000,0,0,0.000000,2,0.000000,0.000000,0.094711,0,0,0,0,0,0,0
2,29999,72,20000,8,10000,0,9999,0.100000,0,0,0.000000,3,0.000000,0.000000,2.111225,0,0,0,0,0,0,0
2,29999,73,20000,5,10000,0,9999,0.100000,0,0,0.000000,2,0.000000,0.000000,0.938489,0,0,0,0,0,0,0
2,29999,74,20000,15,0,1,9999,0.100000,0,0,0.000000,2,1.000000,0.000000,1.854156,0,0,0,0,0,0,0
2,29999,75,20000,70,10000,1,9999,0.100000,0,0,0.000000,2,3.000000,0.000000,9.942786,0,0,0,0,0,0,0
2,29999,76,20000,70,10000,0,9999,0.100000,0,0,0.000000,2,0.000000,0.000000,0.138724,0,0,0,0,0,0,0
2,29999,77,20000,15,0,0,9999,0.100000,0,0,0.000000,2,0.000000,0.000000,2.399294,0,0,0,0,0,0,0
2,29999,78,20000,70,10000,0,9999,0.100000,0,0,0.000000,2,0.000000,0.000000,0.159964,0,0,0,0,0,0,0
2,29999,79,20000,8,10000,0,9999,0.100000,0,0,0.000000,3,0.000000,0.000000,0.505483,0,0,0,0,0,0,0
2,29999,80,20000,8,10000,0,9999,0.100000,0,0,0.000000,3,0.000000,0.000000,0.360710,0,0,0,0,0,0,0
2,29999,81,20000,70,10000,0,9999,0.100000,0,0,0.000000,2,0.000000,0.000000,0.191915,0,0,0,0,0,0,0
2,29999,82,20000,15,0,0,9999,0.100000,0,0,0.000000,2,0.000000,0.000000,0.931444,0,0,0,0,0,0,0
2,29999,83,20000,8,10000,1,9999,0.100000,0,0,0.000000,3,1.000000,0.000000,2.710504,0,0,0,0,0,0,0
2,29999,84,20000,15,0,0,9999,0.100000,0,0,0.000000,2,0.000000,0.000000,0.239863,0,0,0,0,0,0,0
2,29999,85,20000,27,10000,0,9999,0.100000,0,0,0.000000,2,0.000000,0.000000,0.074828,0,0,0,0,0,0,0
2,29999,86,20000,8,10000,0,9999,0.100000,0,0,0.000000,3,0.000000,0.000000,0.178695,0,0,0,0,0,0,0
2,29999,87,20000,27,10000,1,9999,0.100000,0,0,0.000000,2,1.000000,0.000000,1.273837,0,0,0,0,0,0,0
2,29999,88,20000,70,10000,0,9999,0.100000,0,0,0.000000,3,0.000000,0.000000,4.851019,0,0,0,0,0,0,0
2,29999,89,20000,15,0,0,9999,0.100000,0,0,0.000000,2,0.000000,0.000000,0.956811,0,0,0,0,0,0,0
2,29999,90,20000,15,0,0,9999,0.100000,0,0,0.000000,2,0.000000,0.000000,0.184520,0,0,0,0,0,0,0
2,29999,91,20000,15,0,0,9999,0.100000,0,0,0.000000,2,0.000000,0.000000,4.276346,0,0,0,0,0,0,0
2,29999,92,20000,8,10000,1,9999,0.100000,0,0,0.000000,3,1.000000,0.000000,1.542240,0,0,0,0,0,0,0
2,29999,93,20000,15,0,0,9999,0.100000,0,0,0.000000,2,0.000000,0.000000,0.238298,0,0,0,0,0,0,0
2,29999,94,20000,70,10000,0,9999,0.100000,0,0,0.000000,2,0.000000,0.000000,0.768491,0,0,0,0,0,0,0
2,29999,95,20000,15,0,1,9999,0.100000,0,0,0.000000,2,1.000000,0.000000,1.977462,0,0,0,0,0,0,0
2,29999,96,20000,5,10000,1,9999,0.100000,0,0,0.000000,2,1.000000,0.000000,7.524682,0,0,0,0,0,0,0
2,29999,97,20000,15,0,0,9999,0.100000,0,0,0.000000,2,0.000000,0.000000,6.264154,0,0,0,0,0,0,0
2,29999,98,20000,8,10000,0,9999,0.100000,0,0,0.000000,3,0.000000,0.000000,0.566400,0,0,0,0,0,0,0
2,29999,99,20000,27,10000,0,9999,0.100000,0,0,0.000000,2,0.000000,0.000000,8.913575,0,0,0,0,0,0,0
3,39999,0,30000,8,10000,0,9999,0.100000,0,0,0.000000,3,0.000000,0.000000,0.093174,0,0,0,0,0,0,0
3,39999,1,30000,15,0,1,9999,0.100000,0,0,0.000000,3,9.000000,0.000000,11.448072,0,0,0,0,0,0,0
3,39999,2,30000,8,10000,0,9999,0.100000,0,0,0.000000,3,0.000000,0.000000,0.227099,0,0,0,0,0,0,0
3,39999,3,30000,8,10000,0,9999,0.100000,0,0,0.000000,3,0.000000,0.000000,4.175651,0,0,0,0,0,0,0
3,39999,4,30000,70,10000,0,9999,0.100000,0,0,0.000000,3,0.000000,0.000000,1.332731,0,0,0,0,0,0,0
3,39999,5,30000,15,0,0,9999,0.100000,0,0,0.000000,3,0.000000,0.000000,1.057544,0,0,0,0,0,0,0
3,39999,6,30000,70,10000,0,9999,0.100000,0,0,0.000000,3,0.000000,0.000000,0.287226,0,0,0,0,0,0,0
3,39999,7,30000,15,0,1,9999,0.100000,0,0,0.000000,3,1.000000,0.000000,3.541015,0,0,0,0,0,0,0
3,39999,8,30000,15,0,0,9999,0.100000,0,0,0.000000,3,0.000000,0.000000,5.325821,0,0,0,0,0,0,0
3,39999,9,30000,15,0,0,9999,0.100000,0,0,0.000000,3,0.000000,0.000000,0.083392,0,0,0,0,0,0,0
3,39999,10,30000,15,0,0,9999,0.100000,0,0,0.000000,3,0.000000,0.000000,0.505452,0,0,0,0,0,0,0
3,39999,11,30000,70,10000,0,9999,0.100000,0,0,0.000000,3,0.000000,0.000000,0.718275,0,0,0,0,0,0,0
3,39999,12,30000,70,10000,0,9999,0.100000,0,0,0.000000,3,0.000000,0.000000,0.147090,0,0,0,0,0,0,0
3,39999,13,30000,15,0,0,9999,0.100000,0,0,0.000000,3,0.000000,0.000000,0.427486,0,0,0,0,0,0,0
3,39999,14,30000,70,10000,0,9999,0.100000,0,0,0.000000,3,0.000000,0.000000,1.714150,0,0,0,0,0,0,0
3,39999,15,30000,15,0,0,9999,0.100000,0,0,0.000000,3,0.000000,0.000000,1.009359,0,0,0,0,0,0,0
3,39999,16,30000,70,10000,0,9999,0.100000,0,0,0.000000,3,0.000000,0.000000,2.127483,0,0,0,0,0,0,0
3,39999,17,30000,15,0,0,9999,0.100000,0,0,0.000000,3,0.000000,0.000000,0.839734,0,0,0,0,0,0,0
3,39999,18,30000,8,10000,0,9999,0.100000,0,0,0.000000,3,0.000000,0.000000,0.084751,0,0,0,0,0,0,0
3,39999,19,30000,70,10000,0,9999,0.100000,0,0,0.000000,3,0.000000,0.000000,0.862568,0,0,0,0,0,0,0
3,39999,20,30000,8,10000,0,9999,0.100000,0,0,0.000000,3,0.000000,0.000000,2.766290,0,0,0,0,0,0,0
3,39999,21,30000,15,0,0,9999,0.100000,0,0,0.000000,3,0.000000,0.000000,0.931479,0,0,0,0,0,0,0
3,39999,22,30000,15,0,0,9999,0.100000,0,0,0.000000,3,0.000000,0.000000,0.095620,0,0,0,0,0,0,0
3,39999,23,30000,70,10000,1,9999,0.100000,0,0,0.000000,3,2.000000,0.000000,8.099202,0,0,0,0,0,0,0
3,39999,24,30000,15,0,0,9999,0.100000,0,0,0.000000,3,0.000000,0.000000,8.229920,0,0,0,0,0,0,0
3,39999,25,30000,8,10000,0,9999,0.100000,0,0,0.000000,3,0.000000,0.000000,1.141608,0,0,0,0,0,0,0
3,39999,26,30000,8,10000,0,9999,0.100000,0,0,0.000000,3,0.000000,0.000000,2.063233,0,0,0,0,0,0,0
3,39999,27,30000,15,0,0,9999,0.100000,0,0,0.000000,3,0.000000,0.000000,0.063672,0,0,0,0,0,0,0
3,39999,28,30000,70,10000,0,9999,0.100000,0,0,0.000000,3,0.000000,0.000000,0.255851,0,0,0,0,0,0,0
3,39999,29,30000,70,10000,0,9999,0.100000,0,0,0.000000,3,0.000000,0.000000,0.640760,0,0,0,0,0,0,0
3,39999,30,30000,70,10000,0,9999,0.100000,0,0,0.000000,3,0.000000,0.000000,0.079790,0,0,0,0,0,0,0
3,39999,31,30000,70,10000,0,9999,0.100000,0,0,0.000000,3,0.000000,0.000000,0.103282,0,0,0,0,0,0,0
3,39999,32,30000,8,10000,0,9999,0.100000,0,0,0.000000,3,0.000000,0.000000,21.426562,0,0,0,0,0,0,0
3,39999,33,30000,8,10000,1,9999,0.100000,0,0,0.000000,3,1.000000,0.000000,1.322651,0,0,0,0,0,0,0
3,39999,34,30000,15,0,0,9999,0.100000,0,0,0.000000,3,0.000000,0.000000,0.150841,0,0,0,0,0,0,0
3,39999,35,30000,15,0,1,9999,0.100000,0,0,0.000000,3,7.000000,0.000000,21.304739,0,0,0,0,0,0,0
3,39999,36,30000,70,10000,0,9999,0.100000,0,0,0.000000,3,0.000000,0.000000,0.689539,0,0,0,0,0,0,0
3,39999,37,30000,70,10000,0,9999,0.100000,0,0,0.000000,3,0.000000,0.000000,2.595198,0,0,0,0,0,0,0
3,39999,38,30000,15,0,0,9999,0.100000,0,0,0.000000,3,0.000000,0.000000,0.116648,0,0,0,0,0,0,0
3,39999,39,30000,8,10000,1,9999,0.100000,0,0,0.000000,3,1.000000,0.000000,10.321781,0,0,0,0,0,0,0
3,39999,40,30000,15,0,0,9999,0.100000,0,0,0.000000,3,0.000000,0.000000,0.187440,0,0,0,0,0,0,0
3,39999,41,30000,8,10000,1,9999,0.100000,0,0,0.000000,3,9.000000,0.000000,18.599073,0,0,0,0,0,0,0
3,39999,42,30000,8,10000,0,9999,0.100000,0,0,0.000000,3,0.000000,0.000000,0.989336,0,0,0,0,0,0,0
3,39999,43,30000,15,0,0,9999,0.100000,0,0,0.000000,3,0.000000,0.000000,0.063769,0,0,0,0,0,0,0
3,39999,44,30000,15,0,0,9999,0.100000,0,0,0.000000,3,0.000000,0.000000,6.762602,0,0,0,0,0,0,0
3,39999,45,30000,70,10000,0,9999,0.100000,0,0,0.000000,3,0.000000,0.000000,0.858323,0,0,0,0,0,0,0
3,39999,46,30000,15,0,0,9999,0.100000,0,0,0.000000,3,0.000000,0.000000,0.132732,0,0,0,0,0,0,0
3,39999,47,30000,15,0,0,9999,0.100000,0,0,0.000000,3,0.000000,0.000000,1.556392,0,0,0,0,0,0,0
3,39999,48,30000,15,0,1,9999,0.100000,0,0,0.000000,3,2.000000,0.000000,5.002591,0,0,0,0,0,0,0
3,39999,49,30000,8,10000,0,9999,0.100000,0,0,0.000000,3,0.000000,0.000000,0.289663,0,0,0,0,0,0,0
3,39999,50,30000,15,0,0,9999,0.100000,0,0,0.000000,3,0.000000,0.000000,0.109604,0,0,0,0,0,0,0
3,39999,51,30000,8,10000,1,9999,0.100000,0,0,0.000000,3,7.000000,0.000000,18.724555,0,0,0,0,0,0,0
3,39999,52,30000,15,0,0,9999,0.100000,0,0,0.000000,3,0.000000,0.000000,0.381997,0,0,0,0,0,0,0
3,39999,53,30000,8,10000,0,9999,0.100000,0,0,0.000000,3,0.000000,0.000000,0.574913,0,0,0,0,0,0,0
3,39999,54,30000,8,10000,0,9999,0.100000,0,0,0.000000,3,0.000000,0.000000,3.027726,0,0,0,0,0,0,0
3,39999,55,30000,15,0,1,9999,0.100000,0,0,0.000000,3,14.000000,0.000000,19.341233,0,0,0,0,0,0,0
3,39999,56,30000,15,0,1,9999,0.100000,0,0,0.000000,3,2.000000,0.000000,6.077176,0,0,0,0,0,0,0
3,39999,57,30000,70,10000,0,9999,0.100000,0,0,0.000000,3,0.000000,0.000000,1.778510,0,0,0,0,0,0,0
3,39999,58,30000,70,10000,0,9999,0.100000,0,0,0.000000,3,0.000000,0.000000,2.051446,0,0,0,0,0,0,0
3,39999,59,30000,70,10000,0,9999,0.100000,0,0,0.000000,3,0.000000,0.000000,0.124006,0,0,0,0,0,0,0
3,39999,60,30000,15,0,1,9999,0.100000,0,0,0.000000,3,1.000000,0.000000,1.480476,0,0,0,0,0,0,0
3,39999,61,30000,70,10000,0,9999,0.100000,0,0,0.000000,3,0.000000,0.000000,0.535092,0,0,0,0,0,0,0
3,39999,62,30000,70,10000,0,9999,0.100000,0,0,0.000000,3,0.000000,0.000000,0.103393,0,0,0,0,0,0,0
3,39999,63,30000,15,0,0,9999,0.100000,0,0,0.000000,3,0.000000,0.000000,0.392478,0,0,0,0,0,0,0
3,39999,64,30000,8,10000,0,9999,0.100000,0,0,0.000000,3,0.000000,0.000000,0.468007,0,0,0,0,0,0,0
3,39999,65,30000,8,10000,0,9999,0.100000,0,0,0.000000,3,0.000000,0.000000,0.103496,0,0,0,0,0,0,0
3,39999,66,30000,70,10000,0,9999,0.100000,0,0,0.000000,3,0.000000,0.000000,0.197834,0,0,0,0,0,0,0
3,39999,67,30000,70,10000,0,9999,0.100000,0,0,0.000000,3,0.000000,0.000000,0.258479,0,0,0,0,0,0,0
3,39999,68,30000,15,0,0,9999,0.100000,0,0,0.000000,3,0.000000,0.000000,1.405539,0,0,0,0,0,0,0
3,39999,69,30000,8,10000,1,9999,0.100000,0,0,0.000000,3,1.000000,0.000000,5.949580,0,0,0,0,0,0,0
3,39999,70,30000,70,10000,0,9999,0.100000,0,0,0.000000,3,0.000000,0.000000,0.280834,0,0,0,0,0,0,0
3,39999,71,30000,15,0,0,9999,0.100000,0,0,0.000000,3,0.000000,0.000000,0.094551,0,0,0,0,0,0,0
3,39999,72,30000,15,0,1,9999,0.100000,0,0,0.000000,3,7.000000,0.000000,16.296725,0,0,0,0,0,0,0
3,39999,73,30000,70,10000,0,9999,0.100000,0,0,0.000000,3,0.000000,0.000000,0.459091,0,0,0,0,0,0,0
3,39999,74,30000,70,10000,0,9999,0.100000,0,0,0.000000,3,0.000000,0.000000,1.366954,0,0,0,0,0,0,0
3,39999,75,30000,70,10000,1,9999,0.100000,0,0,0.000000,3,3.000000,0.000000,15.490687,0,0,0,0,0,0,0
3,39999,76,30000,15,0,0,9999,0.100000,0,0,0.000000,3,0.000000,0.000000,0.132617,0,0,0,0,0,0,0
3,39999,77,30000,8,10000,0,9999,0.100000,0,0,0.000000,3,0.000000,0.000000,1.957973,0,0,0,0,0,0,0
3,39999,78,30000,8,10000,0,9999,0.100000,0,0,0.000000,3,0.000000,0.000000,0.159157,0,0,0,0,0,0,0
3,39999,79,30000,70,10000,1,9999,0.100000,0,0,0.000000,3,1.000000,0.000000,1.301574,0,0,0,0,0,0,0
3,39999,80,30000,15,0,0,9999,0.100000,0,0,0.000000,3,0.000000,0.000000,0.730768,0,0,0,0,0,0,0
3,39999,81,30000,15,0,0,9999,0.100000,0,0,0.000000,3,0.000000,0.000000,0.172014,0,0,0,0,0,0,0
3,39999,82,30000,15,0,0,9999,0.100000,0,0,0.000000,3,0.000000,0.000000,0.913721,0,0,0,0,0,0,0
3,39999,83,30000,8,10000,0,9999,0.100000,0,0,0.000000,3,0.000000,0.000000,0.119545,0,0,0,0,0,0,0
3,39999,84,30000,8,10000,1,9999,0.100000,0,0,0.000000,3,1.000000,0.000000,1.920643,0,0,0,0,0,0,0
3,39999,85,30000,70,10000,0,9999,0.100000,0,0,0.000000,3,0.000000,0.000000,0.070957,0,0,0,0,0,0,0
3,39999,86,30000,70,10000,0,9999,0.100000,0,0,0.000000,3,0.000000,0.000000,0.163652,0,0,0,0,0,0,0
3,39999,87,30000,70,10000,0,9999,0.100000,0,0,0.000000,3,0.000000,0.000000,0.159642,0,0,0,0,0,0,0
3,39999,88,30000,15,0,0,9999,0.100000,0,0,0.000000,3,0.000000,0.000000,6.630944,0,0,0,0,0,0,0
3,39999,89,30000,70,10000,0,9999,0.100000,0,0,0.000000,3,0.000000,0.000000,0.936376,0,0,0,0,0,0,0
3,39999,90,30000,70,10000,1,9999,0.100000,0,0,0.000000,3,5.000000,0.000000,10.835105,0,0,0,0,0,0,0
3,39999,91,30000,8,10000,0,9999,0.100000,0,0,0.000000,3,0.000000,0.000000,1.013492,0,0,0,0,0,0,0
3,39999,92,30000,70,10000,0,9999,0.100000,0,0,0.000000,3,0.000000,0.000000,1.506973,0,0,0,0,0,0,0
3,39999,93,30000,15,0,0,9999,0.100000,0,0,0.000000,3,0.000000,0.000000,0.235199,0,0,0,0,0,0,0
3,39999,94,30000,70,10000,0,9999,0.100000,0,0,0.000000,3,0.000000,0.000000,0.408294,0,0,0,0,0,0,0
3,39999,95,30000,15,0,1,9999,0.100000,0,0,0.000000,3,1.000000,0.000000,5.433014,0,0,0,0,0,0,0
3,39999,96,30000,8,10000,0,9999,0.100000,0,0,0.000000,3,0.000000,0.000000,0.456576,0,0,0,0,0,0,0
3,39999,97,30000,8,10000,0,9999,0.100000,0,0,0.000000,3,0.000000,0.000000,5.531984,0,0,0,0,0,0,0
3,39999,98,30000,15,0,0,9999,0.100000,0,0,0.000000,3,0.000000,0.000000,0.277069,0,0,0,0,0,0,0
3,39999,99,30000,8,10000,0,9999,0.100000,0,0,0.000000,3,0.000000,0.000000,0.255285,0,0,0,0,0,0,0
4,49999,0,40000,15,0,0,9999,0.100000,0,0,0.000000,3,0.000000,0.000000,0.083029,0,0,0,0,0,0,0
4,49999,1,40000,70,10000,1,9999,0.100000,0,0,0.000000,3,4.000000,0.000000,6.714243,0,0,0,0,0,0,0
4,49999,2,40000,70,10000,0,9999,0.100000,0,0,0.000000,3,0.000000,0.000000,0.178259,0,0,0,0,0,0,0
4,49999,3,40000,15,0,0,9999,0.100000,0,0,0.000000,3,0.000000,0.000000,1.048774,0,0,0,0,0,0,0
4,49999,4,40000,70,10000,0,9999,0.100000,0,0,0.000000,3,0.000000,0.000000,2.385013,0,0,0,0,0,0,0
4,49999,5,40000,70,10000,0,9999,0.100000,0,0,0.000000,3,0.000000,0.000000,0.793800,0,0,0,0,0,0,0
4,49999,6,40000,15,0,0,9999,0.100000,0,0,0.000000,3,0.000000,0.000000,0.322663,0,0,0,0,0,0,0
4,49999,7,40000,70,10000,0,9999,0.100000,0,0,0.000000,3,0.000000,0.000000,3.556841,0,0,0,0,0,0,0
4,49999,8,40000,70,10000,0,9999,0.100000,0,0,0.000000,3,0.000000,0.000000,6.050716,0,0,0,0,0,0,0
4,49999,9,40000,70,10000,0,9999,0.100000,0,0,0.000000,3,0.000000,0.000000,0.081423,0,0,0,0,0,0,0
4,49999,10,40000,70,10000,0,9999,0.100000,0,0,0.000000,3,0.000000,0.000000,0.892032,0,0,0,0,0,0,0
4,49999,11,40000,15,0,1,9999,0.100000,0,0,0.000000,3,2.000000,0.000000,8.429709,0,0,0,0,0,0,0
4,49999,12,40000,15,0,0,9999,0.100000,0,0,0.000000,3,0.000000,0.000000,0.150793,0,0,0,0,0,0,0
4,49999,13,40000,15,0,0,9999,0.100000,0,0,0.000000,3,0.000000,0.000000,0.408495,0,0,0,0,0,0,0
4,49999,14,40000,8,10000,0,9999,0.100000,0,0,0.000000,3,0.000000,0.000000,1.041837,0,0,0,0,0,0,0
4,49999,15,40000,70,10000,0,9999,0.100000,0,0,0.000000,3,0.000000,0.000000,1.005784,0,0,0,0,0,0,0
4,49999,16,40000,15,0,0,9999,0.100000,0,0,0.000000,3,0.000000,0.000000,0.107630,0,0,0,0,0,0,0
4,49999,17,40000,8,10000,0,9999,0.100000,0,0,0.000000,3,0.000000,0.000000,0.795471,0,0,0,0,0,0,0
4,49999,18,40000,15,0,0,9999,0.100000,0,0,0.000000,3,0.000000,0.000000,0.089881,0,0,0,0,0,0,0
4,49999,19,40000,70,10000,0,9999,0.100000,0,0,0.000000,3,0.000000,0.000000,0.795134,0,0,0,0,0,0,0
4,49999,20,40000,15,0,0,9999,0.100000,0,0,0.000000,3,0.000000,0.000000,4.342719,0,0,0,0,0,0,0
4,49999,21,40000,8,10000,0,9999,0.100000,0,0,0.000000,3,0.000000,0.000000,1.738840,0,0,0,0,0,0,0
4,49999,22,40000,8,10000,0,9999,0.100000,0,0,0.000000,3,0.000000,0.000000,0.199952,0,0,0,0,0,0,0
4,49999,23,40000,15,0,0,9999,0.100000,0,0,0.000000,3,0.000000,0.000000,0.960884,0,0,0,0,0,0,0
4,49999,24,40000,15,0,1,9999,0.100000,0,0,0.000000,3,2.000000,0.000000,6.904878,0,0,0,0,0,0,0
4,49999,25,40000,70,10000,1,9999,0.100000,0,0,0.000000,3,5.000000,0.000000,12.588220,0,0,0,0,0,0,0
4,49999,26,40000,70,10000,0,9999,0.100000,0,0,0.000000,3,0.000000,0.000000,1.036441,0,0,0,0,0,0,0
4,49999,27,40000,70,10000,0,9999,0.100000,0,0,0.000000,3,0.000000,0.000000,0.074561,0,0,0,0,0,0,0
4,49999,28,40000,15,0,0,9999,0.100000,0,0,0.000000,3,0.000000,0.000000,0.483172,0,0,0,0,0,0,0
4,49999,29,40000,8,10000,0,9999,0.100000,0,0,0.000000,3,0.000000,0.000000,0.637899,0,0,0,0,0,0,0
4,49999,30,40000,8,10000,0,9999,0.100000,0,0,0.000000,3,0.000000,0.000000,0.084059,0,0,0,0,0,0,0
4,49999,31,40000,8,10000,0,9999,0.100000,0,0,0.000000,3,0.000000,0.000000,0.103196,0,0,0,0,0,0,0
4,49999,32,40000,8,10000,1,9999,0.100000,0,0,0.000000,3,1.000000,0.000000,6.293227,0,0,0,0,0,0,0
4,49999,33,40000,15,0,0,9999,0.100000,0,0,0.000000,3,0.000000,0.000000,0.567179,0,0,0,0,0,0,0
4,49999,34,40000,70,10000,0,9999,0.100000,0,0,0.000000,3,0.000000,0.000000,0.138154,0,0,0,0,0,0,0
4,49999,35,40000,15,0,0,9999,0.100000,0,0,0.000000,3,0.000000,0.000000,0.118147,0,0,0,0,0,0,0
4,49999,36,40000,70,10000,0,9999,0.100000,0,0,0.000000,3,0.000000,0.000000,0.784428,0,0,0,0,0,0,0
4,49999,37,40000,8,10000,0,9999,0.100000,0,0,0.000000,3,0.000000,0.000000,0.781257,0,0,0,0,0,0,0
4,49999,38,40000,8,10000,0,9999,0.100000,0,0,0.000000,3,0.000000,0.000000,0.429290,0,0,0,0,0,0,0
4,49999,39,40000,8,10000,1,9999,0.100000,0,0,0.000000,3,1.000000,0.000000,13.774181,0,0,0,0,0,0,0
4,49999,40,40000,15,0,0,9999,0.100000,0,0,0.000000,3,0.000000,0.000000,0.159411,0,0,0,0,0,0,0
4,49999,41,40000,15,0,0,9999,0.100000,0,0,0.000000,3,0.000000,0.000000,0.195947,0,0,0,0,0,0,0
4,49999,42,40000,70,10000,0,9999,0.100000,0,0,0.000000,3,0.000000,0.000000,0.951324,0,0,0,0,0,0,0
4,49999,43,40000,8,10000,0,9999,0.100000,0,0,0.000000,3,0.000000,0.000000,0.063209,0,0,0,0,0,0,0
4,49999,44,40000,8,10000,1,9999,0.100000,0,0,0.000000,3,2.000000,0.000000,6.099807,0,0,0,0,0,0,0
4,49999,45,40000,70,10000,1,9999,0.100000,0,0,0.000000,3,3.000000,0.000000,3.133266,0,0,0,0,0,0,0
4,49999,46,40000,8,10000,0,9999,0.100000,0,0,0.000000,3,0.000000,0.000000,0.225265,0,0,0,0,0,0,0
4,49999,47,40000,70,10000,0,9999,0.100000,0,0,0.000000,3,0.000000,0.000000,0.512177,0,0,0,0,0,0,0
4,49999,48,40000,70,10000,1,9999,0.100000,0,0,0.000000,3,1.000000,0.000000,5.803713,0,0,0,0,0,0,0
4,49999,49,40000,15,0,1,9999,0.100000,0,0,0.000000,3,8.000000,0.000000,16.380827,0,0,0,0,0,0,0
4,49999,50,40000,70,10000,0,9999,0.100000,0,0,0.000000,3,0.000000,0.000000,0.109738,0,0,0,0,0,0,0
4,49999,51,40000,70,10000,0,9999,0.100000,0,0,0.000000,3,0.000000,0.000000,1.735358,0,0,0,0,0,0,0
4,49999,52,40000,70,10000,0,9999,0.100000,0,0,0.000000,3,0.000000,0.000000,0.785030,0,0,0,0,0,0,0
4,49999,53,40000,8,10000,0,9999,0.100000,0,0,0.000000,3,0.000000,0.000000,0.485609,0,0,0,0,0,0,0
4,49999,54,40000,15,0,0,9999,0.100000,0,0,0.000000,3,0.000000,0.000000,0.092553,0,0,0,0,0,0,0
4,49999,55,40000,8,10000,1,9999,0.100000,0,0,0.000000,3,3.000000,0.000000,6.013920,0,0,0,0,0,0,0
4,49999,56,40000,15,0,0,9999,0.100000,0,0,0.000000,3,0.000000,0.000000,0.368610,0,0,0,0,0,0,0
4,49999,57,40000,15,0,0,9999,0.100000,0,0,0.000000,3,0.000000,0.000000,1.930216,0,0,0,0,0,0,0
4,49999,58,40000,8,10000,0,9999,0.100000,0,0,0.000000,3,0.000000,0.000000,0.087446,0,0,0,0,0,0,0
4,49999,59,40000,70,10000,0,9999,0.100000,0,0,0.000000,3,0.000000,0.000000,0.136113,0,0,0,0,0,0,0
4,49999,60,40000,8,10000,0,9999,0.100000,0,0,0.000000,3,0.000000,0.000000,1.904285,0,0,0,0,0,0,0
4,49999,61,40000,8,10000,0,9999,0.100000,0,0,0.000000,3,0.000000,0.000000,0.929827,0,0,0,0,0,0,0
4,49999,62,40000,8,10000,0,9999,0.100000,0,0,0.000000,3,0.000000,0.000000,0.108976,0,0,0,0,0,0,0
4,49999,63,40000,70,10000,0,9999,0.100000,0,0,0.000000,3,0.000000,0.000000,0.388638,0,0,0,0,0,0,0
4,49999,64,40000,70,10000,0,9999,0.100000,0,0,0.000000,3,0.000000,0.000000,0.505675,0,0,0,0,0,0,0
4,49999,65,40000,8,10000,0,9999,0.100000,0,0,0.000000,3,0.000000,0.000000,0.100990,0,0,0,0,0,0,0
4,49999,66,40000,15,0,0,9999,0.135000,0,0,0.000000,3,0.000000,0.000000,1.107303,0,0,0,0,0,0,0
4,49999,67,40000,15,0,0,9999,0.100000,0,0,0.000000,3,0.000000,0.000000,0.143456,0,0,0,0,0,0,0
4,49999,68,40000,70,10000,1,9999,0.100000,0,0,0.000000,3,1.000000,0.000000,3.724167,0,0,0,0,0,0,0
4,49999,69,40000,15,0,0,9999,0.100000,0,0,0.000000,3,0.000000,0.000000,5.666465,0,0,0,0,0,0,0
4,49999,70,40000,15,0,0,9999,0.100000,0,0,0.000000,3,0.000000,0.000000,0.285525,0,0,0,0,0,0,0
4,49999,71,40000,70,10000,0,9999,0.100000,0,0,0.000000,3,0.000000,0.000000,0.095345,0,0,0,0,0,0,0
4,49999,72,40000,70,10000,0,9999,0.100000,0,0,0.000000,3,0.000000,0.000000,2.000653,0,0,0,0,0,0,0
4,49999,73,40000,15,0,0,9999,0.100000,0,0,0.000000,3,0.000000,0.000000,0.968905,0,0,0,0,0,0,0
4,49999,74,40000,70,10000,0,9999,0.100000,0,0,0.000000,3,0.000000,0.000000,0.273536,0,0,0,0,0,0,0
4,49999,75,40000,15,0,0,9999,0.100000,0,0,0.000000,3,0.000000,0.000000,2.439307,0,0,0,0,0,0,0
4,49999,76,40000,70,10000,0,9999,0.100000,0,0,0.000000,3,0.000000,0.000000,0.125360,0,0,0,0,0,0,0
4,49999,77,40000,8,10000,1,9999,0.100000,0,0,0.000000,3,1.000000,0.000000,2.999950,0,0,0,0,0,0,0
4,49999,78,40000,8,10000,0,9999,0.100000,0,0,0.000000,3,0.000000,0.000000,0.163576,0,0,0,0,0,0,0
4,49999,79,40000,15,0,0,9999,0.100000,0,0,0.000000,3,0.000000,0.000000,0.481207,0,0,0,0,0,0,0
4,49999,80,40000,15,0,1,9999,0.100000,0,0,0.000000,3,3.000000,0.000000,3.121972,0,0,0,0,0,0,0
4,49999,81,40000,15,0,0,9999,0.100000,0,0,0.000000,3,0.000000,0.000000,0.179677,0,0,0,0,0,0,0
4,49999,82,40000,8,10000,0,9999,0.100000,0,0,0.000000,3,0.000000,0.000000,2.402533,0,0,0,0,0,0,0
4,49999,83,40000,15,0,1,9999,0.100000,0,0,0.000000,3,1.000000,0.000000,2.694476,0,0,0,0,0,0,0
4,49999,84,40000,8,10000,1,9999,0.100000,0,0,0.000000,3,5.000000,0.000000,12.050321,0,0,0,0,0,0,0
4,49999,85,40000,8,10000,0,9999,0.100000,0,0,0.000000,3,0.000000,0.000000,0.076590,0,0,0,0,0,0,0
4,49999,86,40000,70,10000,0,9999,0.100000,0,0,0.000000,3,0.000000,0.000000,0.166001,0,0,0,0,0,0,0
4,49999,87,40000,15,0,0,9999,0.100000,0,0,0.000000,3,0.000000,0.000000,0.237135,0,0,0,0,0,0,0
4,49999,88,40000,8,10000,0,9999,0.100000,0,0,0.000000,3,0.000000,0.000000,4.793890,0,0,0,0,0,0,0
4,49999,89,40000,15,0,0,9999,0.100000,0,0,0.000000,3,0.000000,0.000000,0.929327,0,0,0,0,0,0,0
4,49999,90,40000,70,10000,0,9999,0.100000,0,0,0.000000,3,0.000000,0.000000,0.197627,0,0,0,0,0,0,0
4,49999,91,40000,70,10000,0,9999,0.100000,0,0,0.000000,3,0.000000,0.000000,0.968951,0,0,0,0,0,0,0
4,49999,92,40000,70,10000,0,9999,0.100000,0,0,0.000000,3,0.000000,0.000000,3.461868,0,0,0,0,0,0,0
4,49999,93,40000,8,10000,0,9999,0.100000,0,0,0.000000,3,0.000000,0.000000,0.249192,0,0,0,0,0,0,0
4,49999,94,40000,8,10000,0,9999,0.100000,0,0,0.000000,3,0.000000,0.000000,0.403917,0,0,0,0,0,0,0
4,49999,95,40000,70,10000,0,9999,0.100000,0,0,0.000000,3,0.000000,0.000000,3.314893,0,0,0,0,0,0,0
4,49999,96,40000,70,10000,0,9999,0.100000,0,0,0.000000,3,0.000000,0.000000,0.431264,0,0,0,0,0,0,0
4,49999,97,40000,70,10000,0,9999,0.100000,0,0,0.000000,3,0.000000,0.000000,5.162569,0,0,0,0,0,0,0
4,49999,98,40000,8,10000,0,9999,0.100000,0,0,0.000000,3,0.000000,0.000000,0.112830,0,0,0,0,0,0,0
4,49999,99,40000,8,10000,0,9999,0.100000,0,0,0.000000,3,0.000000,0.000000,0.479759,0,0,0,0,0,0,0
5,59999,0,50000,8,10000,0,9999,0.100000,0,0,0.000000,3,0.000000,0.000000,0.113930,0,0,0,0,0,0,0
5,59999,1,50000,15,0,0,9999,0.100000,0,0,0.000000,3,0.000000,0.000000,4.204764,0,0,0,0,0,0,0
5,59999,2,50000,15,0,0,9999,0.100000,0,0,0.000000,3,0.000000,0.000000,0.218081,0,0,0,0,0,0,0
5,59999,3,50000,8,10000,1,9999,0.100000,0,0,0.000000,3,1.000000,0.000000,5.244951,0,0,0,0,0,0,0
5,59999,4,50000,70,10000,0,9999,0.100000,0,0,0.000000,3,0.000000,0.000000,1.614840,0,0,0,0,0,0,0
5,59999,5,50000,70,10000,0,9999,0.100000,0,0,0.000000,3,0.000000,0.000000,1.285866,0,0,0,0,0,0,0
5,59999,6,50000,70,10000,0,9999,0.100000,0,0,0.000000,3,0.000000,0.000000,0.289209,0,0,0,0,0,0,0
5,59999,7,50000,8,10000,1,9999,0.100000,0,0,0.000000,3,2.000000,0.000000,6.270477,0,0,0,0,0,0,0
5,59999,8,50000,8,10000,1,9999,0.100000,0,0,0.000000,3,1.000000,0.000000,7.993284,0,0,0,0,0,0,0
5,59999,9,50000,15,0,0,9999,0.100000,0,0,0.000000,3,0.000000,0.000000,0.079718,0,0,0,0,0,0,0
5,59999,10,50000,70,10000,0,9999,0.100000,0,0,0.000000,3,0.000000,0.000000,0.628914,0,0,0,0,0,0,0
5,59999,11,50000,70,10000,1,9999,0.100000,0,0,0.000000,3,1.000000,0.000000,8.074325,0,0,0,0,0,0,0
5,59999,12,50000,80,40000,0,9999,0.100000,0,0,0.000000,3,0.000000,0.000000,0.139939,0,0,0,0,0,0,0
5,59999,13,50000,15,0,0,9999,0.100000,0,0,0.000000,3,0.000000,0.000000,0.410750,0,0,0,0,0,0,0
5,59999,14,50000,8,10000,0,9999,0.100000,0,0,0.000000,3,0.000000,0.000000,0.992523,0,0,0,0,0,0,0
5,59999,15,50000,8,10000,0,9999,0.100000,0,0,0.000000,3,0.000000,0.000000,0.989943,0,0,0,0,0,0,0
5,59999,16,50000,70,10000,0,9999,0.100000,0,0,0.000000,3,0.000000,0.000000,0.101464,0,0,0,0,0,0,0
5,59999,17,50000,8,10000,0,9999,0.100000,0,0,0.000000,3,0.000000,0.000000,1.266234,0,0,0,0,0,0,0
5,59999,18,50000,15,0,1,9999,0.100000,0,0,0.000000,3,4.000000,0.000000,7.742782,0,0,0,0,0,0,0
5,59999,19,50000,8,10000,0,9999,0.065000,0,0,0.000000,3,0.000000,0.000000,0.821880,0,0,0,0,0,0,0
5,59999,20,50000,80,40000,0,9999,0.100000,0,0,0.000000,3,0.000000,0.000000,5.385921,0,0,0,0,0,0,0
5,59999,21,50000,70,10000,0,9999,0.100000,0,0,0.000000,3,0.000000,0.000000,1.604278,0,0,0,0,0,0,0
5,59999,22,50000,15,0,0,9999,0.100000,0,0,0.000000,3,0.000000,0.000000,0.670136,0,0,0,0,0,0,0
5,59999,23,50000,70,10000,1,9999,0.100000,0,0,0.000000,3,1.000000,0.000000,1.971545,0,0,0,0,0,0,0
5,59999,24,50000,8,10000,0,9999,0.100000,0,0,0.000000,3,0.000000,0.000000,5.306751,0,0,0,0,0,0,0
5,59999,25,50000,8,10000,1,9999,0.100000,0,0,0.000000,3,5.000000,0.000000,14.263662,0,0,0,0,0,0,0
5,59999,26,50000,70,10000,0,9999,0.100000,0,0,0.000000,3,0.000000,0.000000,1.005550,0,0,0,0,0,0,0
5,59999,27,50000,80,40000,0,9999,0.100000,0,0,0.000000,3,0.000000,0.000000,0.078801,0,0,0,0,0,0,0
5,59999,28,50000,70,10000,0,9999,0.100000,0,0,0.000000,3,0.000000,0.000000,1.092732,0,0,0,0,0,0,0
5,59999,29,50000,8,10000,0,9999,0.100000,0,0,0.000000,3,0.000000,0.000000,1.084361,0,0,0,0,0,0,0
5,59999,30,50000,8,10000,0,9999,0.100000,0,0,0.000000,3,0.000000,0.000000,0.096621,0,0,0,0,0,0,0
5,59999,31,50000,15,0,0,9999,0.100000,0,0,0.000000,3,0.000000,0.000000,0.103311,0,0,0,0,0,0,0
5,59999,32,50000,15,0,1,9999,0.100000,0,0,0.000000,3,3.000000,0.000000,8.846119,0,0,0,0,0,0,0
5,59999,33,50000,70,10000,0,9999,0.100000,0,0,0.000000,3,0.000000,0.000000,0.345463,0,0,0,0,0,0,0
5,59999,34,50000,80,40000,0,9999,0.100000,0,0,0.000000,3,0.000000,0.000000,0.161949,0,0,0,0,0,0,0
5,59999,35,50000,8,10000,0,9999,0.100000,0,0,0.000000,3,0.000000,0.000000,0.126764,0,0,0,0,0,0,0
5,59999,36,50000,80,40000,0,9999,0.100000,0,0,0.000000,3,0.000000,0.000000,0.270162,0,0,0,0,0,0,0
5,59999,37,50000,8,10000,0,9999,0.100000,0,0,0.000000,3,0.000000,0.000000,1.943843,0,0,0,0,0,0,0
5,59999,38,50000,70,10000,1,9999,0.100000,0,0,0.000000,3,4.000000,0.000000,9.867786,0,0,0,0,0,0,0
5,59999,39,50000,15,0,0,9999,0.100000,0,0,0.000000,3,0.000000,0.000000,11.563023,0,0,0,0,0,0,0
5,59999,40,50000,8,10000,0,9999,0.100000,0,0,0.000000,3,0.000000,0.000000,0.150190,0,0,0,0,0,0,0
5,59999,41,50000,70,10000,0,9999,0.100000,0,0,0.000000,3,0.000000,0.000000,0.116822,0,0,0,0,0,0,0
5,59999,42,50000,80,40000,0,9999,0.100000,0,0,0.000000,3,0.000000,0.000000,0.624880,0,0,0,0,0,0,0
5,59999,43,50000,8,10000,0,9999,0.100000,0,0,0.000000,3,0.000000,0.000000,0.063160,0,0,0,0,0,0,0
5,59999,44,50000,70,10000,0,9999,0.100000,0,0,0.000000,3,0.000000,0.000000,0.089056,0,0,0,0,0,0,0
5,59999,45,50000,80,40000,0,9999,0.100000,0,0,0.000000,3,0.000000,0.000000,1.038115,0,0,0,0,0,0,0
5,59999,46,50000,15,0,0,9999,0.100000,0,0,0.000000,3,0.000000,0.000000,0.684828,0,0,0,0,0,0,0
5,59999,47,50000,15,0,0,9999,0.100000,0,0,0.000000,3,0.000000,0.000000,0.725186,0,0,0,0,0,0,0
5,59999,48,50000,80,40000,1,9999,0.100000,0,0,0.000000,3,1.000000,0.000000,6.473248,0,0,0,0,0,0,0
5,59999,49,50000,8,10000,0,9999,0.100000,0,0,0.000000,3,0.000000,0.000000,0.265603,0,0,0,0,0,0,0
5,59999,50,50000,8,10000,0,9999,0.100000,0,0,0.000000,3,0.000000,0.000000,0.110437,0,0,0,0,0,0,0
5,59999,51,50000,70,10000,0,9999,0.100000,0,0,0.000000,3,0.000000,0.000000,0.551262,0,0,0,0,0,0,0
5,59999,52,50000,8,10000,0,9999,0.100000,0,0,0.000000,3,0.000000,0.000000,0.611740,0,0,0,0,0,0,0
5,59999,53,50000,15,0,0,9999,0.100000,0,0,0.000000,3,0.000000,0.000000,0.602742,0,0,0,0,0,0,0
5,59999,54,50000,8,10000,0,9999,0.100000,0,0,0.000000,3,0.000000,0.000000,0.088539,0,0,0,0,0,0,0
5,59999,55,50000,70,10000,0,9999,0.100000,0,0,0.000000,3,0.000000,0.000000,0.923808,0,0,0,0,0,0,0
5,59999,56,50000,70,10000,0,9999,0.100000,0,0,0.000000,3,0.000000,0.000000,0.756002,0,0,0,0,0,0,0
5,59999,57,50000,8,10000,0,9999,0.100000,0,0,0.000000,3,0.000000,0.000000,0.880646,0,0,0,0,0,0,0
5,59999,58,50000,80,40000,0,9999,0.100000,0,0,0.000000,3,0.000000,0.000000,0.090068,0,0,0,0,0,0,0
5,59999,59,50000,8,10000,0,9999,0.100000,0,0,0.000000,3,0.000000,0.000000,0.074135,0,0,0,0,0,0,0
5,59999,60,50000,70,10000,0,9999,0.100000,0,0,0.000000,3,0.000000,0.000000,0.225688,0,0,0,0,0,0,0
5,59999,61,50000,15,0,1,9999,0.100000,0,0,0.000000,3,5.000000,0.000000,21.218703,0,0,0,0,0,0,0
5,59999,62,50000,15,0,0,9999,0.100000,0,0,0.000000,3,0.000000,0.000000,0.121735,0,0,0,0,0,0,0
5,59999,63,50000,8,10000,0,9999,0.100000,0,0,0.000000,3,0.000000,0.000000,0.353066,0,0,0,0,0,0,0
5,59999,64,50000,70,10000,0,9999,0.100000,0,0,0.000000,3,0.000000,0.000000,0.500831,0,0,0,0,0,0,0
5,59999,65,50000,80,40000,0,9999,0.100000,0,0,0.000000,3,0.000000,0.000000,0.101569,0,0,0,0,0,0,0
5,59999,66,50000,8,10000,0,9999,0.100000,0,0,0.000000,3,0.000000,0.000000,1.689820,0,0,0,0,0,0,0
5,59999,67,50000,15,0,0,9999,0.100000,0,0,0.000000,3,0.000000,0.000000,0.494152,0,0,0,0,0,0,0
5,59999,68,50000,70,10000,0,9999,0.100000,0,0,0.000000,3,0.000000,0.000000,0.756496,0,0,0,0,0,0,0
5,59999,69,50000,70,10000,0,9999,0.100000,0,0,0.000000,3,0.000000,0.000000,7.200875,0,0,0,0,0,0,0
5,59999,70,50000,80,40000,0,9999,0.100000,0,0,0.000000,3,0.000000,0.000000,0.271876,0,0,0,0,0,0,0
5,59999,71,50000,8,10000,0,9999,0.100000,0,0,0.000000,3,0.000000,0.000000,0.095200,0,0,0,0,0,0,0
5,59999,72,50000,80,40000,0,9999,0.100000,0,0,0.000000,3,0.000000,0.000000,2.126777,0,0,0,0,0,0,0
5,59999,73,50000,8,10000,0,9999,0.100000,0,0,0.000000,3,0.000000,0.000000,0.834003,0,0,0,0,0,0,0
5,59999,74,50000,70,10000,0,9999,0.100000,0,0,0.000000,3,0.000000,0.000000,0.565674,0,0,0,0,0,0,0
5,59999,75,50000,80,40000,1,9999,0.100000,0,0,0.000000,3,1.000000,0.000000,10.585139,0,0,0,0,0,0,0
5,59999,76,50000,70,10000,0,9999,0.100000,0,0,0.000000,3,0.000000,0.000000,0.117044,0,0,0,0,0,0,0
5,59999,77,50000,8,10000,1,9999,0.100000,0,0,0.000000,3,3.000000,0.000000,4.401703,0,0,0,0,0,0,0
5,59999,78,50000,70,10000,0,9999,0.100000,0,0,0.000000,3,0.000000,0.000000,0.169604,0,0,0,0,0,0,0
5,59999,79,50000,8,10000,0,9999,0.100000,0,0,0.000000,3,0.000000,0.000000,0.498754,0,0,0,0,0,0,0
5,59999,80,50000,70,10000,0,9999,0.100000,0,0,0.000000,3,0.000000,0.000000,1.014774,0,0,0,0,0,0,0
5,59999,81,50000,80,40000,0,9999,0.100000,0,0,0.000000,3,0.000000,0.000000,0.144454,0,0,0,0,0,0,0
5,59999,82,50000,70,10000,0,9999,0.100000,0,0,0.000000,3,0.000000,0.000000,0.143347,0,0,0,0,0,0,0
5,59999,83,50000,8,10000,0,9999,0.100000,0,0,0.000000,3,0.000000,0.000000,0.120317,0,0,0,0,0,0,0
5,59999,84,50000,80,40000,1,9999,0.100000,0,0,0.000000,3,1.000000,0.000000,1.653251,0,0,0,0,0,0,0
5,59999,85,50000,15,0,0,9999,0.100000,0,0,0.000000,3,0.000000,0.000000,0.072416,0,0,0,0,0,0,0
5,59999,86,50000,15,0,0,9999,0.100000,0,0,0.000000,3,0.000000,0.000000,0.169224,0,0,0,0,0,0,0
5,59999,87,50000,80,40000,0,9999,0.100000,0,0,0.000000,3,0.000000,0.000000,0.226117,0,0,0,0,0,0,0
5,59999,88,50000,70,10000,0,9999,0.100000,0,0,0.000000,3,0.000000,0.000000,4.418356,0,0,0,0,0,0,0
5,59999,89,50000,8,10000,1,9999,0.100000,0,0,0.000000,3,9.000000,0.000000,25.211542,0,0,0,0,0,0,0
5,59999,90,50000,15,0,0,9999,0.100000,0,0,0.000000,3,0.000000,0.000000,0.188710,0,0,0,0,0,0,0
5,59999,91,50000,8,10000,0,9999,0.100000,0,0,0.000000,3,0.000000,0.000000,0.993738,0,0,0,0,0,0,0
5,59999,92,50000,70,10000,0,9999,0.100000,0,0,0.000000,3,0.000000,0.000000,12.542732,0,0,0,0,0,0,0
5,59999,93,50000,70,10000,0,9999,0.100000,0,0,0.000000,3,0.000000,0.000000,0.240092,0,0,0,0,0,0,0
5,59999,94,50000,8,10000,0,9999,0.100000,0,0,0.000000,3,0.000000,0.000000,0.382630,0,0,0,0,0,0,0
5,59999,95,50000,70,10000,1,9999,0.100000,0,0,0.000000,3,2.000000,0.000000,5.460397,0,0,0,0,0,0,0
5,59999,96,50000,70,10000,0,9999,0.100000,0,0,0.000000,3,0.000000,0.000000,0.459303,0,0,0,0,0,0,0
5,59999,97,50000,70,10000,0,9999,0.100000,0,0,0.000000,3,0.000000,0.000000,4.177815,0,0,0,0,0,0,0
5,59999,98,50000,8,10000,0,9999,0.100000,0,0,0.000000,3,0.000000,0.000000,1.597176,0,0,0,0,0,0,0
5,59999,99,50000,8,10000,0,9999,0.100000,0,0,0.000000,3,0.000000,0.000000,0.961565,0,0,0,0,0,0,0
6,69999,0,60000,70,10000,0,9999,0.100000,0,0,0.000000,3,0.000000,0.000000,0.164039,0,0,0,0,0,0,0
6,69999,1,60000,80,40000,0,9999,0.100000,0,0,0.000000,3,0.000000,0.000000,3.534869,0,0,0,0,0,0,0
6,69999,2,60000,80,40000,1,9999,0.100000,0,0,0.000000,3,7.000000,0.000000,14.651215,0,0,0,0,0,0,0
6,69999,3,60000,80,40000,1,9999,0.100000,0,0,0.000000,3,2.000000,0.000000,6.967666,0,0,0,0,0,0,0
6,69999,4,60000,80,40000,0,9999,0.100000,0,0,0.000000,3,0.000000,0.000000,0.366377,0,0,0,0,0,0,0
6,69999,5,60000,80,40000,0,9999,0.100000,0,0,0.000000,3,0.000000,0.000000,1.135284,0,0,0,0,0,0,0
6,69999,6,60000,80,40000,1,9999,0.100000,0,0,0.000000,3,1.000000,0.000000,2.721117,0,0,0,0,0,0,0
6,69999,7,60000,80,40000,0,9999,0.100000,0,0,0.000000,3,0.000000,0.000000,0.840675,0,0,0,0,0,0,0
6,69999,8,60000,70,10000,0,9999,0.100000,0,0,0.000000,3,0.000000,0.000000,11.451751,0,0,0,0,0,0,0
6,69999,9,60000,80,40000,0,9999,0.100000,0,0,0.000000,3,0.000000,0.000000,0.085293,0,0,0,0,0,0,0
6,69999,10,60000,70,50000,0,9999,0.100000,0,0,0.000000,3,0.000000,0.000000,0.587765,0,0,0,0,0,0,0
6,69999,11,60000,70,10000,0,9999,0.100000,0,0,0.000000,3,0.000000,0.000000,2.367485,0,0,0,0,0,0,0
6,69999,12,60000,8,10000,0,9999,0.100000,0,0,0.000000,3,0.000000,0.000000,0.191043,0,0,0,0,0,0,0
6,69999,13,60000,80,40000,0,9999,0.100000,0,0,0.000000,3,0.000000,0.000000,0.409890,0,0,0,0,0,0,0
6,69999,14,60000,70,10000,0,9999,0.100000,0,0,0.000000,3,0.000000,0.000000,0.968889,0,0,0,0,0,0,0
6,69999,15,60000,70,50000,0,9999,0.100000,0,0,0.000000,3,0.000000,0.000000,0.957332,0,0,0,0,0,0,0
6,69999,16,60000,80,40000,0,9999,0.100000,0,0,0.000000,3,0.000000,0.000000,0.097390,0,0,0,0,0,0,0
6,69999,17,60000,8,10000,0,9999,0.100000,0,0,0.000000,3,0.000000,0.000000,2.508441,0,0,0,0,0,0,0
6,69999,18,60000,8,10000,0,9999,0.100000,0,0,0.000000,3,0.000000,0.000000,3.052431,0,0,0,0,0,0,0
6,69999,19,60000,8,10000,0,9999,0.100000,0,0,0.000000,3,0.000000,0.000000,0.805417,0,0,0,0,0,0,0
6,69999,20,60000,70,50000,0,9999,0.100000,0,0,0.000000,3,0.000000,0.000000,0.736023,0,0,0,0,0,0,0
6,69999,21,60000,70,10000,0,9999,0.100000,0,0,0.000000,3,0.000000,0.000000,0.287437,0,0,0,0,0,0,0
6,69999,22,60000,8,10000,0,9999,0.100000,0,0,0.000000,3,0.000000,0.000000,0.176985,0,0,0,0,0,0,0
6,69999,23,60000,8,10000,0,9999,0.100000,0,0,0.000000,3,0.000000,0.000000,2.846775,0,0,0,0,0,0,0
6,69999,24,60000,80,50000,1,9999,0.100000,0,0,0.000000,3,8.000000,0.000000,22.531074,0,0,0,0,0,0,0
6,69999,25,60000,70,50000,0,9999,0.100000,0,0,0.000000,3,0.000000,0.000000,0.349412,0,0,0,0,0,0,0
6,69999,26,60000,70,10000,0,9999,0.100000,0,0,0.000000,3,0.000000,0.000000,1.003529,0,0,0,0,0,0,0
6,69999,27,60000,80,40000,0,9999,0.100000,0,0,0.000000,3,0.000000,0.000000,0.080330,0,0,0,0,0,0,0
6,69999,28,60000,80,40000,1,9999,0.100000,0,0,0.000000,3,1.000000,0.000000,1.278368,0,0,0,0,0,0,0
6,69999,29,60000,70,50000,0,9999,0.100000,0,0,0.000000,3,0.000000,0.000000,0.878207,0,0,0,0,0,0,0
6,69999,30,60000,8,10000,1,9999,0.100000,0,0,0.000000,3,7.000000,0.000000,14.924540,0,0,0,0,0,0,0
6,69999,31,60000,8,10000,0,9999,0.100000,0,0,0.000000,3,0.000000,0.000000,0.103249,0,0,0,0,0,0,0
6,69999,32,60000,70,50000,1,9999,0.100000,0,0,0.000000,3,1.000000,0.000000,2.013062,0,0,0,0,0,0,0
6,69999,33,60000,70,50000,0,9999,0.100000,0,0,0.000000,3,0.000000,0.000000,0.511812,0,0,0,0,0,0,0
6,69999,34,60000,70,50000,0,9999,0.100000,0,0,0.000000,3,0.000000,0.000000,0.158784,0,0,0,0,0,0,0
6,69999,35,60000,70,50000,0,9999,0.100000,0,0,0.000000,3,0.000000,0.000000,0.149932,0,0,0,0,0,0,0
6,69999,36,60000,80,50000,0,9999,0.100000,0,0,0.000000,3,0.000000,0.000000,0.346027,0,0,0,0,0,0,0
6,69999,37,60000,80,40000,0,9999,0.100000,0,0,0.000000,3,0.000000,0.000000,1.864871,0,0,0,0,0,0,0
6,69999,38,60000,70,10000,0,9999,0.100000,0,0,0.000000,3,0.000000,0.000000,0.099651,0,0,0,0,0,0,0
6,69999,39,60000,70,10000,0,9999,0.100000,0,0,0.000000,3,0.000000,0.000000,5.022894,0,0,0,0,0,0,0
6,69999,40,60000,80,40000,0,9999,0.100000,0,0,0.000000,3,0.000000,0.000000,0.179083,0,0,0,0,0,0,0
6,69999,41,60000,80,40000,0,9999,0.100000,0,0,0.000000,3,0.000000,0.000000,0.092847,0,0,0,0,0,0,0
6,69999,42,60000,70,50000,1,9999,0.100000,0,0,0.000000,3,1.000000,0.000000,3.501420,0,0,0,0,0,0,3
6,69999,43,60000,8,10000,0,9999,0.100000,0,0,0.000000,3,0.000000,0.000000,0.063672,0,0,0,0,0,0,0
6,69999,44,60000,80,50000,0,9999,0.100000,0,0,0.000000,3,0.000000,0.000000,0.236510,0,0,0,0,0,0,0
6,69999,45,60000,80,40000,1,9999,0.100000,0,0,0.000000,3,1.000000,0.000000,1.664223,0,0,0,0,0,0,0
6,69999,46,60000,70,50000,0,9999,0.100000,0,0,0.000000,3,0.000000,0.000000,0.619522,0,0,0,0,0,0,0
6,69999,47,60000,70,50000,0,9999,0.100000,0,0,0.000000,3,0.000000,0.000000,1.053981,0,0,0,0,0,0,0
6,69999,48,60000,80,40000,1,9999,0.100000,0,0,0.000000,3,1.000000,0.000000,5.899429,0,0,0,0,0,0,0
6,69999,49,60000,80,40000,0,9999,0.100000,0,0,0.000000,3,0.000000,0.000000,0.246447,0,0,0,0,0,0,0
6,69999,50,60000,8,10000,0,9999,0.100000,0,0,0.000000,3,0.000000,0.000000,0.116009,0,0,0,0,0,0,0
6,69999,51,60000,80,40000,0,9999,0.100000,0,0,0.000000,3,0.000000,0.000000,0.537934,0,0,0,0,0,0,0
6,69999,52,60000,70,50000,0,9999,0.100000,0,0,0.000000,3,0.000000,0.000000,0.206636,0,0,0,0,0,0,0
6,69999,53,60000,80,40000,0,9999,0.100000,0,0,0.000000,3,0.000000,0.000000,0.530706,0,0,0,0,0,0,0
6,69999,54,60000,70,10000,0,9999,0.100000,0,0,0.000000,3,0.000000,0.000000,0.087842,0,0,0,0,0,0,0
6,69999,55,60000,70,50000,0,9999,0.100000,0,0,0.000000,3,0.000000,0.000000,0.797939,0,0,0,0,0,0,0
6,69999,56,60000,70,50000,0,9999,0.100000,0,0,0.000000,3,0.000000,0.000000,1.004751,0,0,0,0,0,0,0
6,69999,57,60000,80,40000,0,9999,0.100000,0,0,0.000000,3,0.000000,0.000000,0.836357,0,0,0,0,0,0,0
6,69999,58,60000,8,10000,0,9999,0.100000,0,0,0.000000,3,0.000000,0.000000,0.091035,0,0,0,0,0,0,0
6,69999,59,60000,8,10000,0,9999,0.100000,0,0,0.000000,3,0.000000,0.000000,0.073874,0,0,0,0,0,0,0
6,69999,60,60000,70,50000,0,9999,0.100000,0,0,0.000000,3,0.000000,0.000000,0.409293,0,0,0,0,0,0,0
6,69999,61,60000,70,10000,1,9999,0.100000,0,0,0.000000,3,5.000000,0.000000,26.505367,0,0,0,0,0,0,0
6,69999,62,60000,70,50000,0,9999,0.100000,0,0,0.000000,3,0.000000,0.000000,0.132796,0,0,0,0,0,0,0
6,69999,63,60000,80,40000,0,9999,0.100000,0,0,0.000000,3,0.000000,0.000000,0.322206,0,0,0,0,0,0,0
6,69999,64,60000,70,50000,0,9999,0.100000,0,0,0.000000,3,0.000000,0.000000,0.426959,0,0,0,0,0,0,0
6,69999,65,60000,80,40000,0,9999,0.100000,0,0,0.000000,3,0.000000,0.000000,0.104043,0,0,0,0,0,0,0
6,69999,66,60000,70,50000,0,9999,0.100000,0,0,0.000000,3,0.000000,0.000000,0.130856,0,0,0,0,0,0,0
6,69999,67,60000,80,40000,0,9999,0.100000,0,0,0.000000,3,0.000000,0.000000,0.946149,0,0,0,0,0,0,0
6,69999,68,60000,80,40000,0,9999,0.100000,0,0,0.000000,3,0.000000,0.000000,0.162243,0,0,0,0,0,0,0
6,69999,69,60000,70,50000,1,9999,0.100000,0,0,0.000000,3,2.000000,0.000000,7.637122,0,0,0,0,0,0,0
6,69999,70,60000,80,40000,0,9999,0.100000,0,0,0.000000,3,0.000000,0.000000,0.461070,0,0,0,0,0,0,0
6,69999,71,60000,80,40000,0,9999,0.100000,0,0,0.000000,3,0.000000,0.000000,0.094531,0,0,0,0,0,0,0
6,69999,72,60000,8,10000,0,9999,0.100000,0,0,0.000000,3,0.000000,0.000000,0.783315,0,0,0,0,0,0,0
6,69999,73,60000,8,10000,0,9999,0.100000,0,0,0.000000,3,0.000000,0.000000,1.144250,0,0,0,0,0,0,0
6,69999,74,60000,8,10000,0,9999,0.100000,0,0,0.000000,3,0.000000,0.000000,0.491008,0,0,0,0,0,0,0
6,69999,75,60000,8,10000,0,9999,0.100000,0,0,0.000000,3,0.000000,0.000000,1.051767,0,0,0,0,0,0,0
6,69999,76,60000,80,40000,0,9999,0.100000,0,0,0.000000,3,0.000000,0.000000,0.120600,0,0,0,0,0,0,0
6,69999,77,60000,8,10000,0,9999,0.100000,0,0,0.000000,3,0.000000,0.000000,0.240226,0,0,0,0,0,0,0
6,69999,78,60000,8,10000,0,9999,0.100000,0,0,0.000000,3,0.000000,0.000000,0.187780,0,0,0,0,0,0,0
6,69999,79,60000,80,40000,0,9999,0.100000,0,0,0.000000,3,0.000000,0.000000,0.573030,0,0,0,0,0,0,0
6,69999,80,60000,8,10000,1,9999,0.100000,0,0,0.000000,3,1.000000,0.000000,3.385985,0,0,0,0,0,0,0
6,69999,81,60000,8,10000,0,9999,0.100000,0,0,0.000000,3,0.000000,0.000000,0.145822,0,0,0,0,0,0,0
6,69999,82,60000,8,10000,0,9999,0.065000,0,0,0.000000,3,0.000000,0.000000,0.083230,0,0,0,0,0,0,0
6,69999,83,60000,70,50000,0,9999,0.100000,0,0,0.000000,3,0.000000,0.000000,0.141019,0,0,0,0,0,0,0
6,69999,84,60000,80,40000,0,9999,0.100000,0,0,0.000000,3,0.000000,0.000000,1.328360,0,0,0,0,0,0,0
6,69999,85,60000,8,10000,0,9999,0.100000,0,0,0.000000,3,0.000000,0.000000,0.073571,0,0,0,0,0,0,0
6,69999,86,60000,80,40000,0,9999,0.100000,0,0,0.000000,3,0.000000,0.000000,0.166403,0,0,0,0,0,0,0
6,69999,87,60000,8,10000,0,9999,0.100000,0,0,0.000000,3,0.000000,0.000000,0.319922,0,0,0,0,0,0,0
6,69999,88,60000,80,40000,1,9999,0.100000,0,0,0.000000,3,1.000000,0.000000,4.682042,0,0,0,0,0,0,0
6,69999,89,60000,8,10000,0,9999,0.100000,0,0,0.000000,3,0.000000,0.000000,7.445612,0,0,0,0,0,0,0
6,69999,90,60000,80,40000,0,9999,0.100000,0,0,0.000000,3,0.000000,0.000000,0.235466,0,0,0,0,0,0,0
6,69999,91,60000,70,50000,0,9999,0.100000,0,0,0.000000,3,0.000000,0.000000,0.899868,0,0,0,0,0,0,0
6,69999,92,60000,8,10000,0,9999,0.100000,0,0,0.000000,3,0.000000,0.000000,1.432578,0,0,0,0,0,0,0
6,69999,93,60000,8,10000,0,9999,0.100000,0,0,0.000000,3,0.000000,0.000000,0.234829,0,0,0,0,0,0,0
6,69999,94,60000,70,50000,0,9999,0.100000,0,0,0.000000,3,0.000000,0.000000,0.360247,0,0,0,0,0,0,0
6,69999,95,60000,8,10000,1,9999,0.100000,0,0,0.000000,3,2.000000,0.000000,7.050324,0,0,0,0,0,0,0
6,69999,96,60000,80,40000,0,9999,0.100000,0,0,0.000000,3,0.000000,0.000000,0.566732,0,0,0,0,0,0,0
6,69999,97,60000,80,40000,0,9999,0.100000,0,0,0.000000,3,0.000000,0.000000,4.421898,0,0,0,0,0,0,0
6,69999,98,60000,80,40000,0,9999,0.100000,0,0,0.000000,3,0.000000,0.000000,0.232149,0,0,0,0,0,0,0
6,69999,99,60000,8,10000,1,9999,0.100000,0,0,0.000000,3,1.000000,0.000000,1.227438,0,0,0,0,0,0,0
7,79999,0,70000,80,50000,0,9999,0.100000,0,0,0.000000,3,0.000000,0.000000,0.141902,0,0,0,0,0,0,0
7,79999,1,70000,80,40000,0,9999,0.100000,0,0,0.000000,3,0.000000,0.000000,3.423595,0,0,0,0,0,0,0
7,79999,2,70000,80,40000,0,9999,0.100000,0,0,0.000000,3,0.000000,0.000000,0.168774,0,0,0,0,0,0,0
7,79999,3,70000,80,50000,0,9999,0.100000,0,0,0.000000,3,0.000000,0.000000,3.867464,0,0,0,0,0,0,0
7,79999,4,70000,8,10000,0,9999,0.100000,0,0,0.000000,3,0.000000,0.000000,0.153803,0,0,0,0,0,0,0
7,79999,5,70000,80,40000,0,9999,0.100000,0,0,0.000000,3,0.000000,0.000000,0.382354,0,0,0,0,0,0,0
7,79999,6,70000,80,40000,0,9999,0.100000,0,0,0.000000,3,0.000000,0.000000,2.472590,0,0,0,0,0,0,0
7,79999,7,70000,80,40000,0,9999,0.100000,0,0,0.000000,3,0.000000,0.000000,1.198261,0,0,0,0,0,0,0
7,79999,8,70000,80,50000,0,9999,0.100000,0,0,0.000000,3,0.000000,0.000000,10.326520,0,0,0,0,0,0,0
7,79999,9,70000,80,50000,0,9999,0.100000,0,0,0.000000,3,0.000000,0.000000,0.101795,0,0,0,0,0,0,0
7,79999,10,70000,8,10000,0,9999,0.100000,0,0,0.000000,3,0.000000,0.000000,0.547245,0,0,0,0,0,0,0
7,79999,11,70000,80,50000,0,9999,0.100000,0,0,0.000000,3,0.000000,0.000000,2.719818,0,0,0,0,0,0,0
7,79999,12,70000,8,10000,0,9999,0.100000,0,0,0.000000,3,0.000000,0.000000,0.138424,0,0,0,0,0,0,0
7,79999,13,70000,8,10000,0,9999,0.100000,0,0,0.000000,3,0.000000,0.000000,0.438997,0,0,0,0,0,0,0
7,79999,14,70000,8,10000,0,9999,0.100000,0,0,0.000000,3,0.000000,0.000000,0.952089,0,0,0,0,0,0,0
7,79999,15,70000,80,50000,0,9999,0.100000,0,0,0.000000,3,0.000000,0.000000,0.914910,0,0,0,0,0,0,0
7,79999,16,70000,80,50000,0,9999,0.100000,0,0,0.000000,3,0.000000,0.000000,0.093490,0,0,0,0,0,0,0
7,79999,17,70000,80,40000,0,9999,0.100000,0,0,0.000000,3,0.000000,0.000000,0.085549,0,0,0,0,0,0,0
7,79999,18,70000,80,50000,1,9999,0.100000,0,0,0.000000,3,1.000000,0.000000,7.435650,0,0,0,0,0,0,0
7,79999,19,70000,80,40000,0,9999,0.100000,0,0,0.000000,3,0.000000,0.000000,0.825657,0,0,0,0,0,0,0
7,79999,20,70000,80,40000,0,9999,0.100000,0,0,0.000000,3,0.000000,0.000000,0.674286,0,0,0,0,0,0,0
7,79999,21,70000,8,10000,0,9999,0.100000,0,0,0.000000,3,0.000000,0.000000,0.299026,0,0,0,0,0,0,0
7,79999,22,70000,80,50000,0,9999,0.100000,0,0,0.000000,3,0.000000,0.000000,0.086087,0,0,0,0,0,0,0
7,79999,23,70000,80,40000,0,9999,0.100000,0,0,0.000000,3,0.000000,0.000000,6.724030,0,0,0,0,0,0,0
7,79999,24,70000,8,10000,1,9999,0.100000,0,0,0.000000,3,1.000000,0.000000,7.407773,0,0,0,0,0,0,0
7,79999,25,70000,80,40000,1,9999,0.100000,0,0,0.000000,3,5.000000,0.000000,11.825715,0,0,0,0,0,0,0
7,79999,26,70000,8,10000,0,9999,0.100000,0,0,0.000000,3,0.000000,0.000000,0.984143,0,0,0,0,0,0,0
7,79999,27,70000,80,40000,0,9999,0.100000,0,0,0.000000,3,0.000000,0.000000,0.079717,0,0,0,0,0,0,0
7,79999,28,70000,80,50000,0,9999,0.100000,0,0,0.000000,3,0.000000,0.000000,1.073013,0,0,0,0,0,0,0
7,79999,29,70000,80,50000,0,9999,0.100000,0,0,0.000000,3,0.000000,0.000000,1.004098,0,0,0,0,0,0,0
7,79999,30,70000,80,50000,0,9999,0.100000,0,0,0.000000,3,0.000000,0.000000,0.101959,0,0,0,0,0,0,0
7,79999,31,70000,8,10000,0,9999,0.100000,0,0,0.000000,3,0.000000,0.000000,0.103280,0,0,0,0,0,0,0
7,79999,32,70000,80,40000,1,9999,0.100000,0,0,0.000000,3,3.000000,0.000000,5.663379,0,0,0,0,0,0,0
7,79999,33,70000,80,40000,0,9999,0.100000,0,0,0.000000,3,0.000000,0.000000,0.481033,0,0,0,0,0,0,0
7,79999,34,70000,80,50000,0,9999,0.100000,0,0,0.000000,3,0.000000,0.000000,0.161095,0,0,0,0,0,0,0
7,79999,35,70000,80,40000,1,9999,0.100000,0,0,0.000000,3,1.000000,0.000000,8.011993,0,0,0,0,0,0,1
7,79999,36,70000,80,40000,0,9999,0.100000,0,0,0.000000,3,0.000000,0.000000,0.217628,0,0,0,0,0,0,0
7,79999,37,70000,8,10000,0,9999,0.100000,0,0,0.000000,3,0.000000,0.000000,0.398341,0,0,0,0,0,0,0
7,79999,38,70000,8,10000,0,9999,0.100000,0,0,0.000000,3,0.000000,0.000000,0.083730,0,0,0,0,0,0,0
7,79999,39,70000,8,10000,1,9999,0.100000,0,0,0.000000,3,2.000000,0.000000,4.624370,0,0,0,0,0,0,0
7,79999,40,70000,80,50000,1,9999,0.100000,0,0,0.000000,3,2.000000,0.000000,4.353676,0,0,0,0,0,0,1
7,79999,41,70000,80,50000,0,9999,0.100000,0,0,0.000000,3,0.000000,0.000000,0.093593,0,0,0,0,0,0,0
7,79999,42,70000,80,50000,0,9999,0.100000,0,0,0.000000,3,0.000000,0.000000,2.240318,0,0,0,0,0,0,0
7,79999,43,70000,80,50000,0,9999,0.100000,0,0,0.000000,3,0.000000,0.000000,0.062938,0,0,0,0,0,0,0
7,79999,44,70000,80,40000,0,9999,0.100000,0,0,0.000000,3,0.000000,0.000000,0.334422,0,0,0,0,0,0,0
7,79999,45,70000,80,50000,0,9999,0.100000,0,0,0.000000,3,0.000000,0.000000,0.804918,0,0,0,0,0,0,0
7,79999,46,70000,80,40000,0,9999,0.100000,0,0,0.000000,3,0.000000,0.000000,0.567307,0,0,0,0,0,0,0
7,79999,47,70000,80,50000,0,9999,0.100000,0,0,0.000000,3,0.000000,0.000000,0.600042,0,0,0,0,0,0,0
7,79999,48,70000,80,50000,1,9999,0.100000,0,0,0.000000,3,8.000000,0.000000,16.719025,0,0,0,0,0,0,0
7,79999,49,70000,8,10000,0,9999,0.100000,0,0,0.000000,3,0.000000,0.000000,0.240650,0,0,0,0,0,0,0
7,79999,50,70000,8,10000,0,9999,0.100000,0,0,0.000000,3,0.000000,0.000000,0.117401,0,0,0,0,0,0,0
7,79999,51,70000,80,50000,0,9999,0.100000,0,0,0.000000,3,0.000000,0.000000,0.545664,0,0,0,0,0,0,0
7,79999,52,70000,8,10000,0,9999,0.100000,0,0,0.000000,3,0.000000,0.000000,0.186478,0,0,0,0,0,0,0
7,79999,53,70000,80,50000,0,9999,0.100000,0,0,0.000000,3,0.000000,0.000000,0.100908,0,0,0,0,0,0,0
7,79999,54,70000,80,40000,0,9999,0.100000,0,0,0.000000,3,0.000000,0.000000,0.088245,0,0,0,0,0,0,0
7,79999,55,70000,80,40000,0,9999,0.100000,0,0,0.000000,3,0.000000,0.000000,0.795710,0,0,0,0,0,0,0
7,79999,56,70000,80,40000,0,9999,0.100000,0,0,0.000000,3,0.000000,0.000000,1.172231,0,0,0,0,0,0,0
7,79999,57,70000,8,10000,0,9999,0.100000,0,0,0.000000,3,0.000000,0.000000,0.669447,0,0,0,0,0,0,0
7,79999,58,70000,80,50000,0,9999,0.100000,0,0,0.000000,3,0.000000,0.000000,0.090276,0,0,0,0,0,0,0
7,79999,59,70000,8,10000,0,9999,0.100000,0,0,0.000000,3,0.000000,0.000000,0.073869,0,0,0,0,0,0,0
7,79999,60,70000,8,10000,0,9999,0.100000,0,0,0.000000,3,0.000000,0.000000,0.278549,0,0,0,0,0,0,0
7,79999,61,70000,80,40000,1,9999,0.100000,0,0,0.000000,3,3.000000,0.000000,8.667255,0,0,0,0,0,0,0
7,79999,62,70000,80,40000,0,9999,0.100000,0,0,0.000000,3,0.000000,0.000000,0.153378,0,0,0,0,0,0,0
7,79999,63,70000,8,10000,1,9999,0.100000,0,0,0.000000,3,1.000000,0.000000,3.540183,0,0,0,0,0,0,1
7,79999,64,70000,80,40000,0,9999,0.100000,0,0,0.000000,3,0.000000,0.000000,0.610986,0,0,0,0,0,0,0
7,79999,65,70000,8,10000,0,9999,0.100000,0,0,0.000000,3,0.000000,0.000000,0.103144,0,0,0,0,0,0,0
7,79999,66,70000,8,10000,0,9999,0.100000,0,0,0.000000,3,0.000000,0.000000,0.124658,0,0,0,0,0,0,0
7,79999,67,70000,8,10000,0,9999,0.100000,0,0,0.000000,3,0.000000,0.000000,0.518442,0,0,0,0,0,0,0
7,79999,68,70000,80,50000,0,9999,0.100000,0,0,0.000000,3,0.000000,0.000000,0.158658,0,0,0,0,0,0,0
7,79999,69,70000,80,40000,1,9999,0.100000,0,0,0.000000,3,1.000000,0.000000,6.351188,0,0,0,0,0,0,0
7,79999,70,70000,80,40000,0,9999,0.100000,0,0,0.000000,3,0.000000,0.000000,0.360933,0,0,0,0,0,0,0
7,79999,71,70000,8,10000,0,9999,0.100000,0,0,0.000000,3,0.000000,0.000000,0.120029,0,0,0,0,0,0,0
7,79999,72,70000,8,10000,0,9999,0.100000,0,0,0.000000,3,0.000000,0.000000,0.643202,0,0,0,0,0,0,0
7,79999,73,70000,80,50000,0,9999,0.100000,0,0,0.000000,3,0.000000,0.000000,1.089305,0,0,0,0,0,0,0
7,79999,74,70000,8,10000,0,9999,0.100000,0,0,0.000000,3,0.000000,0.000000,0.290174,0,0,0,0,0,0,0
7,79999,75,70000,80,40000,0,9999,0.100000,0,0,0.000000,3,0.000000,0.000000,1.041187,0,0,0,0,0,0,0
7,79999,76,70000,80,40000,0,9999,0.100000,0,0,0.000000,3,0.000000,0.000000,0.157665,0,0,0,0,0,0,0
7,79999,77,70000,80,40000,0,9999,0.100000,0,0,0.000000,3,0.000000,0.000000,0.234248,0,0,0,0,0,0,0
7,79999,78,70000,8,10000,1,9999,0.100000,0,0,0.000000,3,1.000000,0.000000,4.048576,0,0,0,0,0,0,0
7,79999,79,70000,80,50000,0,9999,0.100000,0,0,0.000000,3,0.000000,0.000000,0.547612,0,0,0,0,0,0,0
7,79999,80,70000,80,40000,0,9999,0.100000,0,0,0.000000,3,0.000000,0.000000,4.519737,0,0,0,0,0,0,0
7,79999,81,70000,8,10000,0,9999,0.100000,0,0,0.000000,3,0.000000,0.000000,0.144931,0,0,0,0,0,0,0
7,79999,82,70000,80,50000,0,9999,0.100000,0,0,0.000000,3,0.000000,0.000000,0.083335,0,0,0,0,0,0,0
7,79999,83,70000,8,10000,0,9999,0.100000,0,0,0.000000,3,0.000000,0.000000,0.125230,0,0,0,0,0,0,0
7,79999,84,70000,8,10000,0,9999,0.100000,0,0,0.000000,3,0.000000,0.000000,0.765446,0,0,0,0,0,0,0
7,79999,85,70000,8,10000,0,9999,0.100000,0,0,0.000000,3,0.000000,0.000000,0.081865,0,0,0,0,0,0,0
7,79999,86,70000,80,50000,0,9999,0.100000,0,0,0.000000,3,0.000000,0.000000,0.344590,0,0,0,0,0,0,0
7,79999,87,70000,80,40000,0,9999,0.100000,0,0,0.000000,3,0.000000,0.000000,0.328906,0,0,0,0,0,0,0
7,79999,88,70000,8,10000,1,9999,0.100000,0,0,0.000000,3,1.000000,0.000000,7.164575,0,0,0,0,0,0,0
7,79999,89,70000,80,50000,1,9999,0.100000,0,0,0.000000,3,9.000000,0.000000,27.317882,0,0,0,0,0,0,0
7,79999,90,70000,80,50000,0,9999,0.100000,0,0,0.000000,3,0.000000,0.000000,0.219442,0,0,0,0,0,0,0
7,79999,91,70000,80,40000,0,9999,0.100000,0,0,0.000000,3,0.000000,0.000000,0.921551,0,0,0,0,0,0,0
7,79999,92,70000,80,40000,0,9999,0.100000,0,0,0.000000,3,0.000000,0.000000,3.603244,0,0,0,0,0,0,0
7,79999,93,70000,8,10000,0,9999,0.100000,0,0,0.000000,3,0.000000,0.000000,0.243070,0,0,0,0,0,0,0
7,79999,94,70000,8,10000,0,9999,0.100000,0,0,0.000000,3,0.000000,0.000000,0.367026,0,0,0,0,0,0,0
7,79999,95,70000,80,50000,1,9999,0.100000,0,0,0.000000,3,7.000000,0.000000,14.590725,0,0,0,0,0,0,0
7,79999,96,70000,8,10000,0,9999,0.100000,0,0,0.000000,3,0.000000,0.000000,0.647759,0,0,0,0,0,0,0
7,79999,97,70000,8,10000,0,9999,0.100000,0,0,0.000000,3,0.000000,0.000000,3.386877,0,0,0,0,0,0,0
7,79999,98,70000,80,40000,0,9999,0.100000,0,0,0.000000,3,0.000000,0.000000,0.106261,0,0,0,0,0,0,0
7,79999,99,70000,80,50000,0,9999,0.100000,0,0,0.000000,3,0.000000,0.000000,0.599245,0,0,0,0,0,0,0
8,89999,0,80000,80,40000,0,9999,0.100000,0,0,0.000000,3,0.000000,0.000000,0.131867,0,0,0,0,0,0,0
8,89999,1,80000,8,10000,0,9999,0.100000,0,0,0.000000,3,0.000000,0.000000,2.422686,0,0,0,0,0,0,0
8,89999,2,80000,8,10000,0,9999,0.100000,0,0,0.000000,3,0.000000,0.000000,0.176499,0,0,0,0,0,0,0
8,89999,3,80000,45,70000,0,9999,0.100000,0,0,0.000000,3,0.000000,0.000000,4.997340,0,0,0,0,0,0,0
8,89999,4,80000,80,40000,0,9999,0.100000,0,0,0.000000,3,0.000000,0.000000,0.078289,0,0,0,0,0,0,0
8,89999,5,80000,8,10000,0,9999,0.100000,0,0,0.000000,3,0.000000,0.000000,0.193013,0,0,0,0,0,0,0
8,89999,6,80000,80,40000,0,9999,0.100000,0,0,0.000000,3,0.000000,0.000000,0.082294,0,0,0,0,0,0,0
8,89999,7,80000,8,10000,0,9999,0.100000,0,0,0.000000,3,0.000000,0.000000,1.007459,0,0,0,0,0,0,0
8,89999,8,80000,80,40000,1,9999,0.100000,0,0,0.000000,3,1.000000,0.000000,7.234454,0,0,0,0,0,0,0
8,89999,9,80000,80,40000,0,9999,0.100000,0,0,0.000000,3,0.000000,0.000000,0.078951,0,0,0,0,0,0,0
8,89999,10,80000,8,10000,0,9999,0.100000,0,0,0.000000,3,0.000000,0.000000,0.520459,0,0,0,0,0,0,0
8,89999,11,80000,8,10000,1,9999,0.100000,0,0,0.000000,3,1.000000,0.000000,10.815186,0,0,0,0,0,0,0
8,89999,12,80000,8,10000,0,9999,0.100000,0,0,0.000000,3,0.000000,0.000000,0.138489,0,0,0,0,0,0,0
8,89999,13,80000,80,40000,0,9999,0.100000,0,0,0.000000,3,0.000000,0.000000,0.412129,0,0,0,0,0,0,0
8,89999,14,80000,80,40000,0,9999,0.100000,0,0,0.000000,3,0.000000,0.000000,0.947619,0,0,0,0,0,0,0
8,89999,15,80000,80,50000,0,9999,0.100000,0,0,0.000000,3,0.000000,0.000000,0.932827,0,0,0,0,0,0,0
8,89999,16,80000,80,40000,0,9999,0.100000,0,0,0.000000,3,0.000000,0.000000,0.092154,0,0,0,0,0,0,0
8,89999,17,80000,8,10000,0,9999,0.100000,0,0,0.000000,3,0.000000,0.000000,0.085275,0,0,0,0,0,0,0
8,89999,18,80000,45,70000,0,9999,0.100000,0,0,0.000000,3,0.000000,0.000000,3.804679,0,0,0,0,0,0,0
8,89999,19,80000,80,40000,0,9999,0.100000,0,0,0.000000,3,0.000000,0.000000,2.185948,0,0,0,0,0,0,0
8,89999,20,80000,80,40000,0,9999,0.100000,0,0,0.000000,3,0.000000,0.000000,0.610091,0,0,0,0,0,0,0
8,89999,21,80000,45,70000,0,9999,0.100000,0,0,0.000000,3,0.000000,0.000000,0.319329,0,0,0,0,0,0,0
8,89999,22,80000,8,10000,0,9999,0.100000,0,0,0.000000,3,0.000000,0.000000,0.086759,0,0,0,0,0,0,0
8,89999,23,80000,80,50000,1,9999,0.100000,0,0,0.000000,3,1.000000,0.000000,3.463105,0,0,0,0,0,0,0
8,89999,24,80000,80,40000,0,9999,0.100000,0,0,0.000000,3,0.000000,0.000000,4.107996,0,0,0,0,0,0,0
8,89999,25,80000,8,10000,0,9999,0.100000,0,0,0.000000,3,0.000000,0.000000,0.477599,0,0,0,0,0,0,0
8,89999,26,80000,80,40000,0,9999,0.100000,0,0,0.000000,3,0.000000,0.000000,0.927127,0,0,0,0,0,0,0
8,89999,27,80000,80,40000,0,9999,0.100000,0,0,0.000000,3,0.000000,0.000000,0.078886,0,0,0,0,0,0,0
8,89999,28,80000,80,50000,0,9999,0.100000,0,0,0.000000,3,0.000000,0.000000,0.987613,0,0,0,0,0,0,0
8,89999,29,80000,8,10000,1,9999,0.100000,0,0,34.210526,3,7.000000,0.000000,10.850492,0,0,0,0,0,0,1
8,89999,30,80000,80,40000,0,9999,0.100000,0,0,0.000000,3,0.000000,0.000000,0.087177,0,0,0,0,0,0,0
8,89999,31,80000,80,40000,0,9999,0.100000,0,0,0.000000,3,0.000000,0.000000,0.102946,0,0,0,0,0,0,0
8,89999,32,80000,8,10000,1,9999,0.100000,0,0,0.000000,3,1.000000,0.000000,2.068267,0,0,0,0,0,0,0
8,89999,33,80000,80,40000,0,9999,0.100000,0,0,0.000000,3,0.000000,0.000000,0.544121,0,0,0,0,0,0,0
8,89999,34,80000,8,10000,0,9999,0.100000,0,0,0.000000,3,0.000000,0.000000,0.129591,0,0,0,0,0,0,0
8,89999,35,80000,8,10000,0,9999,0.100000,0,0,0.000000,3,0.000000,0.000000,7.171053,0,0,0,0,0,0,0
8,89999,36,80000,45,70000,0,9999,0.100000,0,0,0.000000,3,0.000000,0.000000,0.073905,0,0,0,0,0,0,0
8,89999,37,80000,80,40000,0,9999,0.100000,0,0,0.000000,3,0.000000,0.000000,0.266856,0,0,0,0,0,0,0
8,89999,38,80000,80,40000,0,9999,0.100000,0,0,0.000000,3,0.000000,0.000000,0.097484,0,0,0,0,0,0,0
8,89999,39,80000,45,70000,1,9999,0.100000,0,0,0.000000,3,2.000000,0.000000,3.585386,0,0,0,0,0,0,0
8,89999,40,80000,45,70000,0,9999,0.100000,0,0,0.000000,3,0.000000,0.000000,0.567326,0,0,0,0,0,0,0
8,89999,41,80000,8,10000,0,9999,0.100000,0,0,0.000000,3,0.000000,0.000000,0.095817,0,0,0,0,0,0,0
8,89999,42,80000,80,50000,0,9999,0.100000,0,0,0.000000,3,0.000000,0.000000,4.794203,0,0,0,0,0,0,0
8,89999,43,80000,45,70000,0,9999,0.100000,0,0,0.000000,3,0.000000,0.000000,0.063110,0,0,0,0,0,0,0
8,89999,44,80000,45,70000,0,9999,0.100000,0,0,0.000000,3,0.000000,0.000000,0.147356,0,0,0,0,0,0,0
8,89999,45,80000,80,40000,1,9999,0.100000,0,0,0.000000,3,1.000000,0.000000,3.229193,0,0,0,0,0,0,0
8,89999,46,80000,8,10000,1,9999,0.100000,0,0,34.210526,3,7.000000,0.000000,12.411668,0,0,0,0,0,0,1
8,89999,47,80000,45,70000,0,9999,0.100000,0,0,0.000000,3,0.000000,0.000000,0.336497,0,0,0,0,0,0,0
8,89999,48,80000,80,40000,0,9999,0.100000,0,0,0.000000,3,0.000000,0.000000,1.617178,0,0,0,0,0,0,0
8,89999,49,80000,80,40000,0,9999,0.100000,0,0,0.000000,3,0.000000,0.000000,0.233114,0,0,0,0,0,0,0
8,89999,50,80000,8,10000,0,9999,0.100000,0,0,0.000000,3,0.000000,0.000000,0.116318,0,0,0,0,0,0,0
8,89999,51,80000,8,10000,1,9999,0.100000,0,0,0.000000,3,8.000000,0.000000,16.875864,0,0,0,0,0,0,0
8,89999,52,80000,8,10000,0,9999,0.100000,0,0,0.000000,3,0.000000,0.000000,0.181042,0,0,0,0,0,0,0
8,89999,53,80000,45,70000,0,9999,0.100000,0,0,0.000000,3,0.000000,0.000000,0.096767,0,0,0,0,0,0,0
8,89999,54,80000,45,70000,0,9999,0.100000,0,0,0.000000,3,0.000000,0.000000,0.092482,0,0,0,0,0,0,0
8,89999,55,80000,8,10000,0,9999,0.100000,0,0,0.000000,3,0.000000,0.000000,1.617313,0,0,0,0,0,0,0
8,89999,56,80000,8,10000,0,9999,0.100000,0,0,0.000000,3,0.000000,0.000000,0.988566,0,0,0,0,0,0,0
8,89999,57,80000,80,40000,1,9999,0.100000,0,0,34.210526,3,15.000000,0.000000,27.202234,0,0,0,0,0,0,1
8,89999,58,80000,8,10000,0,9999,0.100000,0,0,0.000000,3,0.000000,0.000000,0.091761,0,0,0,0,0,0,0
8,89999,59,80000,80,40000,0,9999,0.100000,0,0,0.000000,3,0.000000,0.000000,0.074064,0,0,0,0,0,0,0
8,89999,60,80000,45,70000,0,9999,0.100000,0,0,0.000000,3,0.000000,0.000000,0.483138,0,0,0,0,0,0,0
8,89999,61,80000,8,10000,0,9999,0.100000,0,0,0.000000,3,0.000000,0.000000,0.155650,0,0,0,0,0,0,0
8,89999,62,80000,8,10000,0,9999,0.100000,0,0,0.000000,3,0.000000,0.000000,0.154320,0,0,0,0,0,0,0
8,89999,63,80000,8,10000,1,9999,0.100000,0,0,0.000000,3,2.000000,0.000000,8.390187,0,0,0,0,0,0,0
8,89999,64,80000,80,40000,0,9999,0.100000,0,0,0.000000,3,0.000000,0.000000,0.101232,0,0,0,0,0,0,0
8,89999,65,80000,8,10000,0,9999,0.100000,0,0,0.000000,3,0.000000,0.000000,0.102445,0,0,0,0,0,0,0
8,89999,66,80000,45,70000,0,9999,0.100000,0,0,0.000000,3,0.000000,0.000000,0.115317,0,0,0,0,0,0,0
8,89999,67,80000,80,40000,0,9999,0.100000,0,0,0.000000,3,0.000000,0.000000,0.434507,0,0,0,0,0,0,0
8,89999,68,80000,80,50000,0,9999,0.100000,0,0,0.000000,3,0.000000,0.000000,0.151739,0,0,0,0,0,0,0
8,89999,69,80000,45,70000,1,9999,0.100000,0,0,0.000000,3,1.000000,0.000000,6.385311,0,0,0,0,0,0,0
8,89999,70,80000,80,40000,1,9999,0.100000,0,0,0.000000,3,1.000000,0.000000,2.013177,0,0,0,0,0,0,0
8,89999,71,80000,45,70000,0,9999,0.100000,0,0,0.000000,3,0.000000,0.000000,0.473094,0,0,0,0,0,0,0
8,89999,72,80000,80,40000,0,9999,0.100000,0,0,0.000000,3,0.000000,0.000000,0.091966,0,0,0,0,0,0,0
8,89999,73,80000,80,40000,0,9999,0.100000,0,0,0.000000,3,0.000000,0.000000,0.980770,0,0,0,0,0,0,0
8,89999,74,80000,45,70000,1,9999,0.100000,0,0,34.210526,3,7.000000,0.000000,10.178466,0,0,0,0,0,0,1
8,89999,75,80000,8,10000,0,9999,0.100000,0,0,0.000000,3,0.000000,0.000000,1.035633,0,0,0,0,0,0,0
8,89999,76,80000,45,70000,0,9999,0.100000,0,0,0.000000,3,0.000000,0.000000,0.102119,0,0,0,0,0,0,0
8,89999,77,80000,80,50000,0,9999,0.100000,0,0,0.000000,3,0.000000,0.000000,0.234366,0,0,0,0,0,0,0
8,89999,78,80000,8,10000,0,9999,0.100000,0,0,0.000000,3,0.000000,0.000000,0.190211,0,0,0,0,0,0,0
8,89999,79,80000,80,50000,0,9999,0.100000,0,0,0.000000,3,0.000000,0.000000,0.631740,0,0,0,0,0,0,0
8,89999,80,80000,80,40000,1,9999,0.100000,0,0,0.000000,3,1.000000,0.000000,3.060602,0,0,0,0,0,0,0
8,89999,81,80000,80,50000,0,9999,0.100000,0,0,0.000000,3,0.000000,0.000000,0.144773,0,0,0,0,0,0,0
8,89999,82,80000,80,40000,0,9999,0.100000,0,0,0.000000,3,0.000000,0.000000,0.082580,0,0,0,0,0,0,0
8,89999,83,80000,80,40000,1,9999,0.100000,0,0,0.000000,3,1.000000,0.000000,2.665192,0,0,0,0,0,0,0
8,89999,84,80000,80,40000,0,9999,0.100000,0,0,0.000000,3,0.000000,0.000000,0.799824,0,0,0,0,0,0,0
8,89999,85,80000,80,50000,0,9999,0.100000,0,0,0.000000,3,0.000000,0.000000,0.071702,0,0,0,0,0,0,0
8,89999,86,80000,45,70000,0,9999,0.100000,0,0,0.000000,3,0.000000,0.000000,0.310603,0,0,0,0,0,0,0
8,89999,87,80000,8,10000,1,9999,0.100000,0,0,34.210526,3,7.000000,0.000000,11.254638,0,0,0,0,0,0,1
8,89999,88,80000,80,40000,1,9999,0.100000,0,0,0.000000,3,1.000000,0.000000,6.187565,0,0,0,0,0,0,0
8,89999,89,80000,45,70000,0,9999,0.100000,0,0,0.000000,3,0.000000,0.000000,1.149839,0,0,0,0,0,0,0
8,89999,90,80000,80,40000,0,9999,0.100000,0,0,0.000000,3,0.000000,0.000000,0.385687,0,0,0,0,0,0,0
8,89999,91,80000,80,40000,1,9999,0.100000,0,0,0.000000,3,1.000000,0.000000,3.388487,0,0,0,0,0,0,0
8,89999,92,80000,8,10000,0,9999,0.100000,0,0,0.000000,3,0.000000,0.000000,1.116269,0,0,0,0,0,0,0
8,89999,93,80000,80,40000,0,9999,0.135000,0,0,0.000000,3,0.000000,0.000000,0.248663,0,0,0,0,0,0,0
8,89999,94,80000,45,70000,0,9999,0.100000,0,0,0.000000,3,0.000000,0.000000,0.369843,0,0,0,0,0,0,0
8,89999,95,80000,8,10000,1,9999,0.100000,0,0,0.000000,3,1.000000,0.000000,4.305670,0,0,0,0,0,0,0
8,89999,96,80000,80,40000,1,9999,0.100000,0,0,0.000000,3,2.000000,0.000000,8.774126,0,0,0,0,0,0,0
8,89999,97,80000,8,10000,1,9999,0.100000,0,0,0.000000,3,1.000000,0.000000,5.579337,0,0,0,0,0,0,0
8,89999,98,80000,80,40000,0,9999,0.100000,0,0,0.000000,3,0.000000,0.000000,2.341255,0,0,0,0,0,0,0
8,89999,99,80000,45,70000,0,9999,0.100000,0,0,0.000000,3,0.000000,0.000000,0.307020,0,0,0,0,0,0,0
9,99999,0,90000,80,40000,0,9999,0.100000,0,0,0.000000,3,0.000000,0.000000,0.141418,0,0,0,0,0,0,0
9,99999,1,90000,80,40000,0,9999,0.100000,0,0,0.000000,3,0.000000,0.000000,0.123146,0,0,0,0,0,0,0
9,99999,2,90000,80,40000,0,9999,0.100000,0,0,0.000000,3,0.000000,0.000000,2.559277,0,0,0,0,0,0,0
9,99999,3,90000,45,70000,0,9999,0.100000,0,0,0.000000,3,0.000000,0.000000,4.450893,0,0,0,0,0,0,0
9,99999,4,90000,8,10000,0,9999,0.100000,0,0,0.000000,3,0.000000,0.000000,0.076467,0,0,0,0,0,0,0
9,99999,5,90000,45,70000,0,9999,0.100000,0,0,0.000000,3,0.000000,0.000000,0.371818,0,0,0,0,0,0,0
9,99999,6,90000,8,10000,0,9999,0.100000,0,0,0.000000,3,0.000000,0.000000,0.084141,0,0,0,0,0,0,0
9,99999,7,90000,80,40000,0,9999,0.100000,0,0,0.000000,3,0.000000,0.000000,0.994967,0,0,0,0,0,0,0
9,99999,8,90000,45,70000,1,9999,0.100000,0,0,0.000000,3,2.000000,0.000000,6.132537,0,0,0,0,0,0,0
9,99999,9,90000,8,10000,0,9999,0.100000,0,0,0.000000,3,0.000000,0.000000,0.078216,0,0,0,0,0,0,0
9,99999,10,90000,45,70000,0,9999,0.100000,0,0,0.000000,3,0.000000,0.000000,0.114517,0,0,0,0,0,0,0
9,99999,11,90000,45,70000,1,9999,0.100000,0,0,0.000000,3,1.000000,0.000000,5.241975,0,0,0,0,0,0,0
9,99999,12,90000,80,40000,0,9999,0.100000,0,0,0.000000,3,0.000000,0.000000,0.134992,0,0,0,0,0,0,0
9,99999,13,90000,80,40000,0,9999,0.100000,0,0,0.000000,3,0.000000,0.000000,0.335448,0,0,0,0,0,0,0
9,99999,14,90000,80,40000,0,9999,0.100000,0,0,0.000000,3,0.000000,0.000000,0.870074,0,0,0,0,0,0,0
9,99999,15,90000,8,10000,1,9999,0.100000,0,0,0.000000,3,6.000000,0.000000,8.217434,0,0,0,0,0,0,0
9,99999,16,90000,45,70000,0,9999,0.100000,0,0,0.000000,3,0.000000,0.000000,0.088212,0,0,0,0,0,0,0
9,99999,17,90000,45,70000,0,9999,0.100000,0,0,0.000000,3,0.000000,0.000000,0.084687,0,0,0,0,0,0,0
9,99999,18,90000,80,40000,1,9999,0.100000,0,0,0.000000,3,2.000000,0.000000,6.606415,0,0,0,0,0,0,0
9,99999,19,90000,80,40000,0,9999,0.100000,0,0,0.000000,3,0.000000,0.000000,5.336024,0,0,0,0,0,0,0
9,99999,20,90000,8,10000,1,9999,0.100000,0,0,0.000000,3,1.000000,0.000000,3.465403,0,0,0,0,0,0,0
9,99999,21,90000,8,10000,0,9999,0.100000,0,0,0.000000,3,0.000000,0.000000,0.319725,0,0,0,0,0,0,0
9,99999,22,90000,8,10000,0,9999,0.100000,0,0,0.000000,3,0.000000,0.000000,0.087846,0,0,0,0,0,0,0
9,99999,23,90000,45,70000,0,9999,0.100000,0,0,0.000000,3,0.000000,0.000000,3.382694,0,0,0,0,0,0,0
9,99999,24,90000,39,80000,1,9999,0.100000,0,0,0.000000,3,2.000000,0.000000,5.206374,0,0,0,0,0,0,0
9,99999,25,90000,45,70000,0,9999,0.100000,0,0,0.000000,3,0.000000,0.000000,0.522066,0,0,0,0,0,0,0
9,99999,26,90000,80,40000,0,9999,0.100000,0,0,0.000000,3,0.000000,0.000000,0.927024,0,0,0,0,0,0,0
9,99999,27,90000,45,70000,0,9999,0.100000,0,0,0.000000,3,0.000000,0.000000,0.109087,0,0,0,0,0,0,0
9,99999,28,90000,45,70000,0,9999,0.100000,0,0,0.000000,3,0.000000,0.000000,0.774706,0,0,0,0,0,0,0
9,99999,29,90000,8,10000,1,9999,0.100000,0,0,0.000000,3,1.000000,0.000000,11.299979,0,0,0,0,0,0,0
9,99999,30,90000,80,40000,0,9999,0.100000,0,0,0.000000,3,0.000000,0.000000,0.486072,0,0,0,0,0,0,0
9,99999,31,90000,80,40000,0,9999,0.100000,0,0,0.000000,3,0.000000,0.000000,0.103844,0,0,0,0,0,0,0
9,99999,32,90000,45,70000,0,9999,0.100000,0,0,0.000000,3,0.000000,0.000000,0.922844,0,0,0,0,0,0,0
9,99999,33,90000,39,80000,0,9999,0.100000,0,0,0.000000,3,0.000000,0.000000,0.655651,0,0,0,0,0,0,0
9,99999,34,90000,80,40000,0,9999,0.100000,0,0,0.000000,3,0.000000,0.000000,0.178590,0,0,0,0,0,0,0
9,99999,35,90000,8,10000,0,9999,0.100000,0,0,0.000000,3,0.000000,0.000000,5.019218,0,0,0,0,0,0,0
9,99999,36,90000,80,40000,0,9999,0.100000,0,0,0.000000,3,0.000000,0.000000,0.072559,0,0,0,0,0,0,0
9,99999,37,90000,80,40000,0,9999,0.100000,0,0,0.000000,3,0.000000,0.000000,0.412964,0,0,0,0,0,0,0
9,99999,38,90000,45,70000,0,9999,0.100000,0,0,0.000000,3,0.000000,0.000000,0.091159,0,0,0,0,0,0,0
9,99999,39,90000,39,80000,1,9999,0.100000,0,0,0.000000,3,1.000000,0.000000,8.647153,0,0,0,0,0,0,0
9,99999,40,90000,45,70000,0,9999,0.100000,0,0,0.000000,3,0.000000,0.000000,0.517018,0,0,0,0,0,0,0
9,99999,41,90000,80,40000,0,9999,0.100000,0,0,0.000000,3,0.000000,0.000000,0.093463,0,0,0,0,0,0,0
9,99999,42,90000,45,70000,0,9999,0.100000,0,0,0.000000,3,0.000000,0.000000,4.296050,0,0,0,0,0,0,0
9,99999,43,90000,8,10000,0,9999,0.100000,0,0,0.000000,3,0.000000,0.000000,0.064560,0,0,0,0,0,0,0
9,99999,44,90000,8,10000,0,9999,0.100000,0,0,0.000000,3,0.000000,0.000000,0.333508,0,0,0,0,0,0,0
9,99999,45,90000,8,10000,1,9999,0.100000,0,0,0.000000,3,1.000000,0.000000,2.071206,0,0,0,0,0,0,0
9,99999,46,90000,45,70000,1,9999,0.100000,0,0,0.000000,3,2.000000,0.000000,6.302725,0,0,0,0,0,0,0
9,99999,47,90000,45,70000,0,9999,0.100000,0,0,0.000000,3,0.000000,0.000000,0.374766,0,0,0,0,0,0,0
9,99999,48,90000,39,80000,0,9999,0.100000,0,0,0.000000,3,0.000000,0.000000,0.690387,0,0,0,0,0,0,0
9,99999,49,90000,45,70000,0,9999,0.100000,0,0,0.000000,3,0.000000,0.000000,0.564181,0,0,0,0,0,0,0
9,99999,50,90000,45,70000,0,9999,0.100000,0,0,0.000000,3,0.000000,0.000000,0.115517,0,0,0,0,0,0,0
9,99999,51,90000,80,40000,0,9999,0.100000,0,0,0.000000,3,0.000000,0.000000,1.738655,0,0,0,0,0,0,0
9,99999,52,90000,80,40000,0,9999,0.100000,0,0,0.000000,3,0.000000,0.000000,0.197656,0,0,0,0,0,0,0
9,99999,53,90000,8,10000,0,9999,0.100000,0,0,0.000000,3,0.000000,0.000000,0.094377,0,0,0,0,0,0,0
9,99999,54,90000,80,40000,0,9999,0.100000,0,0,0.000000,3,0.000000,0.000000,0.092568,0,0,0,0,0,0,0
9,99999,55,90000,8,10000,0,9999,0.100000,0,0,0.000000,3,0.000000,0.000000,0.704784,0,0,0,0,0,0,0
9,99999,56,90000,39,80000,1,9999,0.100000,0,0,0.000000,3,1.000000,0.000000,10.316885,0,0,0,0,0,0,0
9,99999,57,90000,45,70000,0,9999,0.100000,0,0,0.000000,3,0.000000,0.000000,9.472802,0,0,0,0,0,0,0
9,99999,58,90000,80,40000,0,9999,0.100000,0,0,0.000000,3,0.000000,0.000000,0.093576,0,0,0,0,0,0,0
9,99999,59,90000,80,40000,0,9999,0.100000,0,0,0.000000,3,0.000000,0.000000,0.324925,0,0,0,0,0,0,0
9,99999,60,90000,8,10000,0,9999,0.100000,0,0,0.000000,3,0.000000,0.000000,0.589077,0,0,0,0,0,0,0
9,99999,61,90000,8,10000,0,9999,0.100000,0,0,0.000000,3,0.000000,0.000000,0.134758,0,0,0,0,0,0,0
9,99999,62,90000,45,70000,0,9999,0.100000,0,0,0.000000,3,0.000000,0.000000,0.164953,0,0,0,0,0,0,0
9,99999,63,90000,45,70000,0,9999,0.100000,0,0,0.000000,3,0.000000,0.000000,2.047862,0,0,0,0,0,0,0
9,99999,64,90000,8,10000,0,9999,0.100000,0,0,0.000000,3,0.000000,0.000000,0.107038,0,0,0,0,0,0,0
9,99999,65,90000,8,10000,0,9999,0.100000,0,0,0.000000,3,0.000000,0.000000,0.102206,0,0,0,0,0,0,0
9,99999,66,90000,8,10000,0,9999,0.100000,0,0,0.000000,3,0.000000,0.000000,0.120076,0,0,0,0,0,0,0
9,99999,67,90000,80,40000,0,9999,0.100000,0,0,0.000000,3,0.000000,0.000000,0.099166,0,0,0,0,0,0,0
9,99999,68,90000,8,10000,0,9999,0.100000,0,0,0.000000,3,0.000000,0.000000,0.156661,0,0,0,0,0,0,0
9,99999,69,90000,8,10000,0,9999,0.100000,0,0,0.000000,3,0.000000,0.000000,0.642494,0,0,0,0,0,0,0
9,99999,70,90000,45,70000,1,9999,0.100000,0,0,0.000000,3,1.000000,0.000000,5.162373,0,0,0,0,0,0,0
9,99999,71,90000,45,70000,0,9999,0.100000,0,0,0.000000,3,0.000000,0.000000,0.100835,0,0,0,0,0,0,0
9,99999,72,90000,45,70000,0,9999,0.100000,0,0,0.000000,3,0.000000,0.000000,0.099213,0,0,0,0,0,0,0
9,99999,73,90000,8,10000,0,9999,0.065000,0,0,0.000000,3,0.000000,0.000000,1.042166,0,0,0,0,0,0,0
9,99999,74,90000,80,40000,1,9999,0.100000,0,0,0.000000,3,1.000000,0.000000,7.259657,0,0,0,0,0,0,0
9,99999,75,90000,80,40000,1,9999,0.100000,0,0,0.000000,3,3.000000,0.000000,8.807244,0,0,0,0,0,0,0
9,99999,76,90000,8,10000,0,9999,0.100000,0,0,0.000000,3,0.000000,0.000000,0.091793,0,0,0,0,0,0,0
9,99999,77,90000,8,10000,0,9999,0.100000,0,0,0.000000,3,0.000000,0.000000,0.233109,0,0,0,0,0,0,0
9,99999,78,90000,45,70000,0,9999,0.100000,0,0,0.000000,3,0.000000,0.000000,0.116003,0,0,0,0,0,0,0
9,99999,79,90000,80,40000,0,9999,0.100000,0,0,0.000000,3,0.000000,0.000000,0.719276,0,0,0,0,0,0,0
9,99999,80,90000,8,10000,1,9999,0.100000,0,0,0.000000,3,2.000000,0.000000,7.819041,0,0,0,0,0,0,0
9,99999,81,90000,80,40000,0,9999,0.100000,0,0,0.000000,3,0.000000,0.000000,0.224201,0,0,0,0,0,0,0
9,99999,82,90000,45,70000,0,9999,0.100000,0,0,0.000000,3,0.000000,0.000000,0.082259,0,0,0,0,0,0,0
9,99999,83,90000,8,10000,0,9999,0.100000,0,0,0.000000,3,0.000000,0.000000,0.127855,0,0,0,0,0,0,0
9,99999,84,90000,8,10000,0,9999,0.100000,0,0,0.000000,3,0.000000,0.000000,0.232261,0,0,0,0,0,0,0
9,99999,85,90000,45,70000,0,9999,0.100000,0,0,0.000000,3,0.000000,0.000000,0.073384,0,0,0,0,0,0,0
9,99999,86,90000,80,40000,0,9999,0.100000,0,0,0.000000,3,0.000000,0.000000,0.330939,0,0,0,0,0,0,0
9,99999,87,90000,80,40000,1,9999,0.100000,0,0,0.000000,3,1.000000,0.000000,7.528748,0,0,0,0,0,0,0
9,99999,88,90000,45,70000,1,9999,0.100000,0,0,0.000000,3,2.000000,0.000000,7.877907,0,0,0,0,0,0,0
9,99999,89,90000,8,10000,0,9999,0.100000,0,0,0.000000,3,0.000000,0.000000,1.013213,0,0,0,0,0,0,0
9,99999,90,90000,45,70000,0,9999,0.100000,0,0,0.000000,3,0.000000,0.000000,0.249769,0,0,0,0,0,0,0
9,99999,91,90000,80,40000,1,9999,0.100000,0,0,0.000000,3,1.000000,0.000000,3.243320,0,0,0,0,0,0,0
9,99999,92,90000,80,40000,0,9999,0.100000,0,0,0.000000,3,0.000000,0.000000,0.107765,0,0,0,0,0,0,0
9,99999,93,90000,45,70000,0,9999,0.100000,0,0,0.000000,3,0.000000,0.000000,0.244171,0,0,0,0,0,0,0
9,99999,94,90000,45,70000,0,9999,0.100000,0,0,0.000000,3,0.000000,0.000000,0.392159,0,0,0,0,0,0,0
9,99999,95,90000,45,70000,0,9999,0.100000,0,0,0.000000,3,0.000000,0.000000,0.775628,0,0,0,0,0,0,0
9,99999,96,90000,45,70000,0,9999,0.100000,0,0,0.000000,3,0.000000,0.000000,0.452896,0,0,0,0,0,0,0
9,99999,97,90000,45,70000,0,9999,0.100000,0,0,0.000000,3,0.000000,0.000000,4.351114,0,0,0,0,0,0,0
9,99999,98,90000,45,70000,0,9999,0.100000,0,0,0.000000,3,0.000000,0.000000,0.136768,0,0,0,0,0,0,0
9,99999,99,90000,45,70000,1,9999,0.100000,0,0,0.000000,3,2.000000,0.000000,5.590407,0,0,0,0,0,0,0
10,109999,0,100000,8,10000,0,9999,0.100000,0,0,0.000000,3,0.000000,0.000000,0.142447,0,0,0,0,0,0,0
10,109999,1,100000,8,10000,0,9999,0.100000,0,0,0.000000,3,0.000000,0.000000,0.111104,0,0,0,0,0,0,0
10,109999,2,100000,39,80000,0,9999,0.100000,0,0,0.000000,3,0.000000,0.000000,2.066572,0,0,0,0,0,0,0
10,109999,3,100000,39,80000,0,9999,0.100000,0,0,0.000000,3,0.000000,0.000000,1.738427,0,0,0,0,0,0,0
10,109999,4,100000,45,70000,0,9999,0.100000,0,0,0.000000,3,0.000000,0.000000,0.078082,0,0,0,0,0,0,0
10,109999,5,100000,45,70000,0,9999,0.100000,0,0,0.000000,3,0.000000,0.000000,0.382582,0,0,0,0,0,0,0
10,109999,6,100000,39,80000,0,9999,0.100000,0,0,0.000000,3,0.000000,0.000000,0.074511,0,0,0,0,0,0,0
10,109999,7,100000,39,80000,0,9999,0.100000,0,0,0.000000,3,0.000000,0.000000,1.011320,0,0,0,0,0,0,0
10,109999,8,100000,45,70000,1,9999,0.100000,0,0,0.000000,3,2.000000,0.000000,9.054239,0,0,0,0,0,0,0
10,109999,9,100000,8,10000,0,9999,0.100000,0,0,0.000000,3,0.000000,0.000000,0.073460,0,0,0,0,0,0,0
10,109999,10,100000,39,80000,0,9999,0.100000,0,0,0.000000,3,0.000000,0.000000,0.075425,0,0,0,0,0,0,0
10,109999,11,100000,45,70000,0,9999,0.100000,0,0,0.000000,3,0.000000,0.000000,4.078027,0,0,0,0,0,0,0
10,109999,12,100000,39,80000,0,9999,0.100000,0,0,0.000000,3,0.000000,0.000000,0.135354,0,0,0,0,0,0,0
10,109999,13,100000,45,70000,0,9999,0.100000,0,0,0.000000,3,0.000000,0.000000,0.319581,0,0,0,0,0,0,0
10,109999,14,100000,8,10000,1,9999,0.100000,0,0,0.000000,3,2.000000,0.000000,5.433577,0,0,0,0,0,0,0
10,109999,15,100000,45,70000,1,9999,0.100000,0,0,0.000000,3,6.000000,0.000000,12.453885,0,0,0,0,0,0,0
10,109999,16,100000,8,10000,0,9999,0.100000,0,0,0.000000,3,0.000000,0.000000,0.214068,0,0,0,0,0,0,0
10,109999,17,100000,45,70000,0,9999,0.100000,0,0,0.000000,3,0.000000,0.000000,0.085657,0,0,0,0,0,0,0
10,109999,18,100000,45,70000,0,9999,0.065000,0,0,0.000000,3,0.000000,0.000000,3.690454,0,0,0,0,0,0,0
10,109999,19,100000,39,80000,0,9999,0.100000,0,0,0.000000,3,0.000000,0.000000,5.316676,0,0,0,0,0,0,0
10,109999,20,100000,45,70000,0,9999,0.100000,0,0,0.000000,3,0.000000,0.000000,3.378408,0,0,0,0,0,0,0
10,109999,21,100000,39,80000,0,9999,0.100000,0,0,0.000000,3,0.000000,0.000000,0.345060,0,0,0,0,0,0,0
10,109999,22,100000,8,10000,0,9999,0.100000,0,0,0.000000,3,0.000000,0.000000,0.089125,0,0,0,0,0,0,0
10,109999,23,100000,45,70000,0,9999,0.100000,0,0,0.000000,3,0.000000,0.000000,0.142739,0,0,0,0,0,0,0
10,109999,24,100000,8,10000,1,9999,0.100000,0,0,0.000000,3,1.000000,0.000000,7.602013,0,0,0,0,0,0,0
10,109999,25,100000,39,80000,0,9999,0.100000,0,0,0.000000,3,0.000000,0.000000,0.578355,0,0,0,0,0,0,0
10,109999,26,100000,45,70000,0,9999,0.100000,0,0,0.000000,3,0.000000,0.000000,0.908948,0,0,0,0,0,0,0
10,109999,27,100000,45,70000,0,9999,0.100000,0,0,0.000000,3,0.000000,0.000000,0.256900,0,0,0,0,0,0,0
10,109999,28,100000,45,70000,0,9999,0.100000,0,0,0.000000,3,0.000000,0.000000,0.780055,0,0,0,0,0,0,0
10,109999,29,100000,45,70000,1,9999,0.100000,0,0,0.000000,3,4.000000,0.000000,7.607061,0,0,0,0,0,0,0
10,109999,30,100000,45,70000,1,9999,0.100000,0,0,0.000000,3,7.000000,0.000000,15.548358,0,0,0,0,0,0,0
10,109999,31,100000,45,70000,0,9999,0.100000,0,0,0.000000,3,0.000000,0.000000,0.103226,0,0,0,0,0,0,0
10,109999,32,100000,8,10000,1,9999,0.100000,0,0,0.000000,3,1.000000,0.000000,6.992564,0,0,0,0,0,0,0
10,109999,33,100000,8,10000,0,9999,0.100000,0,0,0.000000,3,0.000000,0.000000,0.874985,0,0,0,0,0,0,0
10,109999,34,100000,39,80000,0,9999,0.100000,0,0,0.000000,3,0.000000,0.000000,0.186243,0,0,0,0,0,0,0
10,109999,35,100000,45,70000,1,9999,0.100000,0,0,0.000000,3,3.000000,0.000000,7.386660,0,0,0,0,0,0,0
10,109999,36,100000,39,80000,0,9999,0.100000,0,0,0.000000,3,0.000000,0.000000,0.072456,0,0,0,0,0,0,0
10,109999,37,100000,8,10000,0,9999,0.100000,0,0,0.000000,3,0.000000,0.000000,0.463865,0,0,0,0,0,0,0
10,109999,38,100000,8,10000,0,9999,0.100000,0,0,0.000000,3,0.000000,0.000000,0.084104,0,0,0,0,0,0,0
10,109999,39,100000,39,80000,1,9999,0.100000,0,0,0.000000,3,1.000000,0.000000,5.739098,0,0,0,0,0,0,0
10,109999,40,100000,8,10000,0,9999,0.100000,0,0,0.000000,3,0.000000,0.000000,0.424701,0,0,0,0,0,0,0
10,109999,41,100000,39,80000,0,9999,0.100000,0,0,0.000000,3,0.000000,0.000000,0.093952,0,0,0,0,0,0,0
10,109999,42,100000,45,70000,0,9999,0.100000,0,0,0.000000,3,0.000000,0.000000,5.134784,0,0,0,0,0,0,0
10,109999,43,100000,39,80000,0,9999,0.100000,0,0,0.000000,3,0.000000,0.000000,0.063251,0,0,0,0,0,0,0
10,109999,44,100000,39,80000,0,9999,0.100000,0,0,0.000000,3,0.000000,0.000000,0.550956,0,0,0,0,0,0,0
10,109999,45,100000,45,70000,0,9999,0.100000,0,0,0.000000,3,0.000000,0.000000,1.513456,0,0,0,0,0,0,0
10,109999,46,100000,39,80000,0,9999,0.100000,0,0,0.000000,3,0.000000,0.000000,1.976781,0,0,0,0,0,0,0
10,109999,47,100000,39,80000,0,9999,0.100000,0,0,0.000000,3,0.000000,0.000000,0.405302,0,0,0,0,0,0,0
10,109999,48,100000,45,70000,1,9999,0.100000,0,0,0.000000,3,5.000000,0.000000,11.316906,0,0,0,0,0,0,0
10,109999,49,100000,39,80000,0,9999,0.100000,0,0,0.000000,3,0.000000,0.000000,0.113443,0,0,0,0,0,0,0
10,109999,50,100000,8,10000,0,9999,0.100000,0,0,0.000000,3,0.000000,0.000000,0.102271,0,0,0,0,0,0,0
10,109999,51,100000,39,80000,0,9999,0.100000,0,0,0.000000,3,0.000000,0.000000,0.878645,0,0,0,0,0,0,0
10,109999,52,100000,39,80000,0,9999,0.100000,0,0,0.000000,3,0.000000,0.000000,0.633254,0,0,0,0,0,0,0
10,109999,53,100000,45,70000,0,9999,0.100000,0,0,0.000000,3,0.000000,0.000000,0.094789,0,0,0,0,0,0,0
10,109999,54,100000,39,80000,0,9999,0.100000,0,0,0.000000,3,0.000000,0.000000,0.205161,0,0,0,0,0,0,0
10,109999,55,100000,45,70000,0,9999,0.100000,0,0,0.000000,3,0.000000,0.000000,0.718335,0,0,0,0,0,0,0
10,109999,56,100000,8,10000,1,9999,0.100000,0,0,0.000000,3,1.000000,0.000000,2.892622,0,0,0,0,0,0,0
10,109999,57,100000,45,70000,1,9999,0.100000,0,0,0.000000,3,2.000000,0.000000,7.699220,0,0,0,0,0,0,0
10,109999,58,100000,39,80000,0,9999,0.135000,0,0,0.000000,3,0.000000,0.000000,0.096862,0,0,0,0,0,0,0
10,109999,59,100000,45,70000,0,9999,0.100000,0,0,0.000000,3,0.000000,0.000000,1.453904,0,0,0,0,0,0,0
10,109999,60,100000,8,10000,0,9999,0.100000,0,0,0.000000,3,0.000000,0.000000,0.559134,0,0,0,0,0,0,0
10,109999,61,100000,45,70000,0,9999,0.100000,0,0,0.000000,3,0.000000,0.000000,0.132953,0,0,0,0,0,0,0
10,109999,62,100000,45,70000,0,9999,0.100000,0,0,0.000000,3,0.000000,0.000000,0.159839,0,0,0,0,0,0,0
10,109999,63,100000,39,80000,0,9999,0.100000,0,0,0.000000,3,0.000000,0.000000,7.581781,0,0,0,0,0,0,0
10,109999,64,100000,39,80000,0,9999,0.100000,0,0,0.000000,3,0.000000,0.000000,0.113174,0,0,0,0,0,0,0
10,109999,65,100000,39,80000,0,9999,0.100000,0,0,0.000000,3,0.000000,0.000000,0.092225,0,0,0,0,0,0,0
10,109999,66,100000,8,10000,0,9999,0.100000,0,0,0.000000,3,0.000000,0.000000,0.108070,0,0,0,0,0,0,0
10,109999,67,100000,39,80000,0,9999,0.100000,0,0,0.000000,3,0.000000,0.000000,0.088267,0,0,0,0,0,0,0
10,109999,68,100000,8,10000,0,9999,0.100000,0,0,0.000000,3,0.000000,0.000000,0.149008,0,0,0,0,0,0,0
10,109999,69,100000,45,70000,1,9999,0.100000,0,0,0.000000,3,3.000000,0.000000,4.198095,0,0,0,0,0,0,0
10,109999,70,100000,39,80000,1,9999,0.100000,0,0,0.000000,3,1.000000,0.000000,7.800813,0,0,0,0,0,0,0
10,109999,71,100000,39,80000,0,9999,0.135000,0,0,0.000000,3,0.000000,0.000000,0.103793,0,0,0,0,0,0,0
10,109999,72,100000,39,80000,0,9999,0.100000,0,0,0.000000,3,0.000000,0.000000,0.109133,0,0,0,0,0,0,0
10,109999,73,100000,45,70000,0,9999,0.100000,0,0,0.000000,3,0.000000,0.000000,0.827616,0,0,0,0,0,0,0
10,109999,74,100000,45,70000,1,9999,0.100000,0,0,0.000000,3,1.000000,0.000000,5.214685,0,0,0,0,0,0,0
10,109999,75,100000,39,80000,1,9999,0.100000,0,0,0.000000,3,3.000000,0.000000,8.879303,0,0,0,0,0,0,0
10,109999,76,100000,39,80000,0,9999,0.100000,0,0,0.000000,3,0.000000,0.000000,0.093642,0,0,0,0,0,0,0
10,109999,77,100000,8,10000,0,9999,0.100000,0,0,0.000000,3,0.000000,0.000000,0.240843,0,0,0,0,0,0,0
10,109999,78,100000,45,70000,0,9999,0.100000,0,0,0.000000,3,0.000000,0.000000,0.098593,0,0,0,0,0,0,0
10,109999,79,100000,39,80000,0,9999,0.100000,0,0,0.000000,3,0.000000,0.000000,1.659634,0,0,0,0,0,0,0
10,109999,80,100000,39,80000,0,9999,0.100000,0,0,0.000000,3,0.000000,0.000000,2.568482,0,0,0,0,0,0,0
10,109999,81,100000,8,10000,0,9999,0.100000,0,0,0.000000,3,0.000000,0.000000,0.333737,0,0,0,0,0,0,0
10,109999,82,100000,8,10000,0,9999,0.100000,0,0,0.000000,3,0.000000,0.000000,0.082243,0,0,0,0,0,0,0
10,109999,83,100000,39,80000,0,9999,0.100000,0,0,0.000000,3,0.000000,0.000000,0.160884,0,0,0,0,0,0,0
10,109999,84,100000,8,10000,0,9999,0.100000,0,0,0.000000,3,0.000000,0.000000,0.796132,0,0,0,0,0,0,0
10,109999,85,100000,8,10000,0,9999,0.100000,0,0,0.000000,3,0.000000,0.000000,0.083272,0,0,0,0,0,0,0
10,109999,86,100000,45,70000,0,9999,0.100000,0,0,0.000000,3,0.000000,0.000000,0.659402,0,0,0,0,0,0,0
10,109999,87,100000,39,80000,1,9999,0.100000,0,0,0.000000,3,8.000000,0.000000,21.502704,0,0,0,0,0,0,0
10,109999,88,100000,39,80000,1,9999,0.100000,0,0,0.000000,3,1.000000,0.000000,5.139425,0,0,0,0,0,0,0
10,109999,89,100000,39,80000,0,9999,0.100000,0,0,0.000000,3,0.000000,0.000000,1.020014,0,0,0,0,0,0,0
10,109999,90,100000,8,10000,0,9999,0.100000,0,0,0.000000,3,0.000000,0.000000,0.145786,0,0,0,0,0,0,0
10,109999,91,100000,45,70000,1,9999,0.100000,0,0,0.000000,3,1.000000,0.000000,2.328955,0,0,0,0,0,0,0
10,109999,92,100000,45,70000,0,9999,0.100000,0,0,0.000000,3,0.000000,0.000000,0.082400,0,0,0,0,0,0,0
10,109999,93,100000,45,70000,0,9999,0.100000,0,0,0.000000,3,0.000000,0.000000,0.236744,0,0,0,0,0,0,0
10,109999,94,100000,45,70000,0,9999,0.100000,0,0,0.000000,3,0.000000,0.000000,0.367927,0,0,0,0,0,0,0
10,109999,95,100000,8,10000,0,9999,0.100000,0,0,0.000000,3,0.000000,0.000000,0.240241,0,0,0,0,0,0,0
10,109999,96,100000,8,10000,0,9999,0.100000,0,0,0.000000,3,0.000000,0.000000,0.249218,0,0,0,0,0,0,0
10,109999,97,100000,39,80000,0,9999,0.100000,0,0,0.000000,3,0.000000,0.000000,4.317553,0,0,0,0,0,0,0
10,109999,98,100000,8,10000,0,9999,0.100000,0,0,0.000000,3,0.000000,0.000000,0.096587,0,0,0,0,0,0,0
10,109999,99,100000,8,10000,0,9999,0.100000,0,0,0.000000,3,0.000000,0.000000,0.335784,0,0,0,0,0,0,0
11,119999,0,110000,39,80000,0,9999,0.100000,0,0,0.000000,3,0.000000,0.000000,0.173302,0,0,0,0,0,0,0
11,119999,1,110000,45,70000,0,9999,0.100000,0,0,0.000000,3,0.000000,0.000000,0.125005,0,0,0,0,0,0,0
11,119999,2,110000,39,80000,0,9999,0.100000,0,0,0.000000,3,0.000000,0.000000,2.951228,0,0,0,0,0,0,0
11,119999,3,110000,39,80000,1,9999,0.100000,0,0,0.000000,3,1.000000,0.000000,3.140010,0,0,0,0,0,0,0
11,119999,4,110000,45,70000,0,9999,0.100000,0,0,0.000000,3,0.000000,0.000000,0.079833,0,0,0,0,0,0,0
11,119999,5,110000,45,70000,0,9999,0.100000,0,0,0.000000,3,0.000000,0.000000,0.379835,0,0,0,0,0,0,0
11,119999,6,110000,8,10000,0,9999,0.100000,0,0,0.000000,3,0.000000,0.000000,0.081872,0,0,0,0,0,0,0
11,119999,7,110000,39,80000,0,9999,0.100000,0,0,0.000000,3,0.000000,0.000000,0.991629,0,0,0,0,0,0,0
11,119999,8,110000,39,80000,1,9999,0.100000,0,0,0.000000,3,1.000000,0.000000,3.730392,0,0,0,0,0,0,0
11,119999,9,110000,39,80000,0,9999,0.100000,0,0,0.000000,3,0.000000,0.000000,0.077487,0,0,0,0,0,0,0
11,119999,10,110000,39,80000,0,9999,0.100000,0,0,0.000000,3,0.000000,0.000000,0.074532,0,0,0,0,0,0,0
11,119999,11,110000,45,70000,1,9999,0.100000,0,0,0.000000,3,1.000000,0.000000,4.558075,0,0,0,0,0,0,0
11,119999,12,110000,39,80000,0,9999,0.100000,0,0,0.000000,3,0.000000,0.000000,0.134973,0,0,0,0,0,0,0
11,119999,13,110000,45,70000,0,9999,0.100000,0,0,0.000000,3,0.000000,0.000000,0.298731,0,0,0,0,0,0,0
11,119999,14,110000,45,70000,0,9999,0.100000,0,0,0.000000,3,0.000000,0.000000,1.291123,0,0,0,0,0,0,0
11,119999,15,110000,45,70000,0,9999,0.100000,0,0,0.000000,3,0.000000,0.000000,0.200183,0,0,0,0,0,0,0
11,119999,16,110000,8,10000,0,9999,0.100000,0,0,0.000000,3,0.000000,0.000000,0.223984,0,0,0,0,0,0,0
11,119999,17,110000,8,10000,0,9999,0.100000,0,0,0.000000,3,0.000000,0.000000,0.088486,0,0,0,0,0,0,0
11,119999,18,110000,39,80000,0,9999,0.100000,0,0,0.000000,3,0.000000,0.000000,3.676081,0,0,0,0,0,0,0
11,119999,19,110000,45,70000,0,9999,0.100000,0,0,0.000000,3,0.000000,0.000000,5.169795,0,0,0,0,0,0,0
11,119999,20,110000,8,10000,0,9999,0.100000,0,0,0.000000,3,0.000000,0.000000,1.164214,0,0,0,0,0,0,0
11,119999,21,110000,45,70000,0,9999,0.100000,0,0,0.000000,3,0.000000,0.000000,0.359440,0,0,0,0,0,0,0
11,119999,22,110000,45,70000,0,9999,0.100000,0,0,0.000000,3,0.000000,0.000000,0.083054,0,0,0,0,0,0,0
11,119999,23,110000,45,70000,0,9999,0.100000,0,0,0.000000,3,0.000000,0.000000,0.289820,0,0,0,0,0,0,0
11,119999,24,110000,8,10000,1,9999,0.100000,0,0,0.000000,3,1.000000,0.000000,3.163070,0,0,0,0,0,0,0
11,119999,25,110000,45,70000,0,9999,0.100000,0,0,0.000000,3,0.000000,0.000000,0.580896,0,0,0,0,0,0,0
11,119999,26,110000,45,70000,1,9999,0.100000,0,0,0.000000,3,6.000000,0.000000,15.803772,0,0,0,0,0,0,0
11,119999,27,110000,39,80000,0,9999,0.100000,0,0,0.000000,3,0.000000,0.000000,0.279220,0,0,0,0,0,0,0
11,119999,28,110000,8,10000,0,9999,0.100000,0,0,0.000000,3,0.000000,0.000000,0.540032,0,0,0,0,0,0,0
11,119999,29,110000,39,80000,1,9999,0.100000,0,0,0.000000,3,1.000000,0.000000,1.325104,0,0,0,0,0,0,0
11,119999,30,110000,8,10000,0,9999,0.100000,0,0,0.000000,3,0.000000,0.000000,0.800449,0,0,0,0,0,0,0
11,119999,31,110000,39,80000,0,9999,0.100000,0,0,0.000000,3,0.000000,0.000000,0.102525,0,0,0,0,0,0,0
11,119999,32,110000,45,70000,1,9999,0.100000,0,0,0.000000,3,1.000000,0.000000,4.450059,0,0,0,0,0,0,0
11,119999,33,110000,8,10000,0,9999,0.100000,0,0,0.000000,3,0.000000,0.000000,0.324033,0,0,0,0,0,0,0
11,119999,34,110000,8,10000,0,9999,0.100000,0,0,0.000000,3,0.000000,0.000000,0.184653,0,0,0,0,0,0,0
11,119999,35,110000,45,70000,1,9999,0.100000,0,0,0.000000,3,2.000000,0.000000,7.131113,0,0,0,0,0,0,0
11,119999,36,110000,39,80000,0,9999,0.100000,0,0,0.000000,3,0.000000,0.000000,0.072054,0,0,0,0,0,0,0
11,119999,37,110000,39,80000,0,9999,0.100000,0,0,0.000000,3,0.000000,0.000000,0.448638,0,0,0,0,0,0,0
11,119999,38,110000,39,80000,0,9999,0.100000,0,0,0.000000,3,0.000000,0.000000,0.077695,0,0,0,0,0,0,0
11,119999,39,110000,39,80000,0,9999,0.100000,0,0,0.000000,3,0.000000,0.000000,1.716853,0,0,0,0,0,0,0
11,119999,40,110000,45,70000,0,9999,0.100000,0,0,0.000000,3,0.000000,0.000000,0.523677,0,0,0,0,0,0,0
11,119999,41,110000,39,80000,0,9999,0.100000,0,0,0.000000,3,0.000000,0.000000,0.094954,0,0,0,0,0,0,0
11,119999,42,110000,45,70000,0,9999,0.100000,0,0,0.000000,3,0.000000,0.000000,1.106252,0,0,0,0,0,0,0
11,119999,43,110000,39,80000,0,9999,0.100000,0,0,0.000000,3,0.000000,0.000000,0.064474,0,0,0,0,0,0,0
11,119999,44,110000,39,80000,1,9999,0.100000,0,0,0.000000,3,2.000000,0.000000,4.515029,0,0,0,0,0,0,0
11,119999,45,110000,39,80000,0,9999,0.100000,0,0,0.000000,3,0.000000,0.000000,0.553388,0,0,0,0,0,0,0
11,119999,46,110000,39,80000,0,9999,0.100000,0,0,0.000000,3,0.000000,0.000000,2.085922,0,0,0,0,0,0,0
11,119999,47,110000,45,70000,0,9999,0.100000,0,0,0.000000,3,0.000000,0.000000,0.406629,0,0,0,0,0,0,0
11,119999,48,110000,8,10000,0,9999,0.100000,0,0,0.000000,3,0.000000,0.000000,0.516700,0,0,0,0,0,0,0
11,119999,49,110000,8,10000,0,9999,0.100000,0,0,0.000000,3,0.000000,0.000000,0.126080,0,0,0,0,0,0,0
11,119999,50,110000,45,70000,0,9999,0.100000,0,0,0.000000,3,0.000000,0.000000,0.107403,0,0,0,0,0,0,0
11,119999,51,110000,45,70000,0,9999,0.100000,0,0,0.000000,3,0.000000,0.000000,0.173615,0,0,0,0,0,0,0
11,119999,52,110000,39,80000,1,9999,0.100000,0,0,0.000000,3,8.000000,0.000000,17.823977,0,0,0,0,0,0,0
11,119999,53,110000,8,10000,0,9999,0.100000,0,0,0.000000,3,0.000000,0.000000,0.094883,0,0,0,0,0,0,0
11,119999,54,110000,8,10000,0,9999,0.100000,0,0,0.000000,3,0.000000,0.000000,0.221392,0,0,0,0,0,0,0
11,119999,55,110000,45,70000,0,9999,0.100000,0,0,0.000000,3,0.000000,0.000000,0.777891,0,0,0,0,0,0,0
11,119999,56,110000,45,70000,0,9999,0.100000,0,0,0.000000,3,0.000000,0.000000,1.012772,0,0,0,0,0,0,0
11,119999,57,110000,39,80000,1,9999,0.100000,0,0,0.000000,3,3.000000,0.000000,5.737923,0,0,0,0,0,0,0
11,119999,58,110000,8,10000,0,9999,0.135000,0,0,0.000000,3,0.000000,0.000000,0.108311,0,0,0,0,0,0,0
11,119999,59,110000,8,10000,0,9999,0.100000,0,0,0.000000,3,0.000000,0.000000,0.353730,0,0,0,0,0,0,0
11,119999,60,110000,39,80000,0,9999,0.065000,0,0,0.000000,3,0.000000,0.000000,0.210282,0,0,0,0,0,0,0
11,119999,61,110000,39,80000,0,9999,0.100000,0,0,0.000000,3,0.000000,0.000000,0.131772,0,0,0,0,0,0,0
11,119999,62,110000,45,70000,0,9999,0.100000,0,0,0.000000,3,0.000000,0.000000,0.174548,0,0,0,0,0,0,0
11,119999,63,110000,45,70000,1,9999,0.100000,0,0,0.000000,3,1.000000,0.000000,4.018884,0,0,0,0,0,0,0
11,119999,64,110000,8,10000,0,9999,0.100000,0,0,0.000000,3,0.000000,0.000000,0.114628,0,0,0,0,0,0,0
11,119999,65,110000,8,10000,0,9999,0.100000,0,0,0.000000,3,0.000000,0.000000,0.092458,0,0,0,0,0,0,0
11,119999,66,110000,8,10000,0,9999,0.100000,0,0,0.000000,3,0.000000,0.000000,0.117494,0,0,0,0,0,0,0
11,119999,67,110000,45,70000,0,9999,0.100000,0,0,0.000000,3,0.000000,0.000000,0.072488,0,0,0,0,0,0,0
11,119999,68,110000,39,80000,0,9999,0.100000,0,0,0.000000,3,0.000000,0.000000,0.159692,0,0,0,0,0,0,0
11,119999,69,110000,45,70000,1,9999,0.100000,0,0,0.000000,3,1.000000,0.000000,1.355164,0,0,0,0,0,0,0
11,119999,70,110000,45,70000,1,9999,0.100000,0,0,0.000000,3,1.000000,0.000000,1.212140,0,0,0,0,0,0,0
11,119999,71,110000,45,70000,0,9999,0.100000,0,0,0.000000,3,0.000000,0.000000,0.101598,0,0,0,0,0,0,0
11,119999,72,110000,39,80000,0,9999,0.100000,0,0,0.000000,3,0.000000,0.000000,0.121690,0,0,0,0,0,0,0
11,119999,73,110000,39,80000,0,9999,0.100000,0,0,0.000000,3,0.000000,0.000000,0.795892,0,0,0,0,0,0,0
11,119999,74,110000,8,10000,1,9999,0.100000,0,0,0.000000,3,1.000000,0.000000,6.065576,0,0,0,0,0,0,0
11,119999,75,110000,39,80000,0,9999,0.100000,0,0,0.000000,3,0.000000,0.000000,0.945142,0,0,0,0,0,0,0
11,119999,76,110000,8,10000,0,9999,0.100000,0,0,0.000000,3,0.000000,0.000000,0.094451,0,0,0,0,0,0,0
11,119999,77,110000,39,80000,0,9999,0.100000,0,0,0.000000,3,0.000000,0.000000,0.237332,0,0,0,0,0,0,0
11,119999,78,110000,39,80000,0,9999,0.100000,0,0,0.000000,3,0.000000,0.000000,0.092754,0,0,0,0,0,0,0
11,119999,79,110000,39,80000,0,9999,0.100000,0,0,0.000000,3,0.000000,0.000000,0.448110,0,0,0,0,0,0,0
11,119999,80,110000,45,70000,0,9999,0.100000,0,0,0.000000,3,0.000000,0.000000,1.489601,0,0,0,0,0,0,0
11,119999,81,110000,39,80000,0,9999,0.100000,0,0,0.000000,3,0.000000,0.000000,0.283574,0,0,0,0,0,0,0
11,119999,82,110000,8,10000,0,9999,0.100000,0,0,0.000000,3,0.000000,0.000000,0.081932,0,0,0,0,0,0,0
11,119999,83,110000,8,10000,0,9999,0.100000,0,0,0.000000,3,0.000000,0.000000,0.138223,0,0,0,0,0,0,0
11,119999,84,110000,8,10000,1,9999,0.100000,0,0,0.000000,3,3.000000,0.000000,5.138382,0,0,0,0,0,0,0
11,119999,85,110000,8,10000,0,9999,0.100000,0,0,0.000000,3,0.000000,0.000000,0.074888,0,0,0,0,0,0,0
11,119999,86,110000,39,80000,0,9999,0.100000,0,0,0.000000,3,0.000000,0.000000,0.433443,0,0,0,0,0,0,0
11,119999,87,110000,45,70000,1,9999,0.100000,0,0,0.000000,3,8.000000,0.000000,24.117445,0,0,0,0,0,0,0
11,119999,88,110000,45,70000,1,9999,0.100000,0,0,0.000000,3,1.000000,0.000000,7.140319,0,0,0,0,0,0,0
11,119999,89,110000,8,10000,0,9999,0.100000,0,0,0.000000,3,0.000000,0.000000,0.978320,0,0,0,0,0,0,0
11,119999,90,110000,45,70000,0,9999,0.100000,0,0,0.000000,3,0.000000,0.000000,0.331089,0,0,0,0,0,0,0
11,119999,91,110000,39,80000,1,9999,0.100000,0,0,0.000000,3,1.000000,0.000000,4.464895,0,0,0,0,0,0,0
11,119999,92,110000,8,10000,0,9999,0.100000,0,0,0.000000,3,0.000000,0.000000,0.089098,0,0,0,0,0,0,0
11,119999,93,110000,8,10000,0,9999,0.100000,0,0,0.000000,3,0.000000,0.000000,0.240983,0,0,0,0,0,0,0
11,119999,94,110000,39,80000,0,9999,0.100000,0,0,0.000000,3,0.000000,0.000000,0.361939,0,0,0,0,0,0,0
11,119999,95,110000,45,70000,0,9999,0.100000,0,0,0.000000,3,0.000000,0.000000,0.313480,0,0,0,0,0,0,0
11,119999,96,110000,45,70000,0,9999,0.100000,0,0,0.000000,3,0.000000,0.000000,0.255463,0,0,0,0,0,0,0
11,119999,97,110000,8,10000,1,9999,0.100000,0,0,0.000000,3,1.000000,0.000000,4.721822,0,0,0,0,0,0,0
11,119999,98,110000,39,80000,0,9999,0.100000,0,0,0.000000,3,0.000000,0.000000,0.123019,0,0,0,0,0,0,0
11,119999,99,110000,39,80000,0,9999,0.100000,0,0,0.000000,3,0.000000,0.000000,0.348553,0,0,0,0,0,0,0
12,129999,0,120000,8,10000,0,9999,0.100000,0,0,0.000000,3,0.000000,0.000000,0.152915,0,0,0,0,0,0,0
12,129999,1,120000,8,10000,0,9999,0.100000,0,0,0.000000,3,0.000000,0.000000,0.117559,0,0,0,0,0,0,0
12,129999,2,120000,45,70000,0,9999,0.100000,0,0,0.000000,3,0.000000,0.000000,1.215415,0,0,0,0,0,0,0
12,129999,3,120000,8,10000,0,9999,0.100000,0,0,0.000000,3,0.000000,0.000000,3.222129,0,0,0,0,0,0,0
12,129999,4,120000,8,10000,0,9999,0.100000,0,0,0.000000,3,0.000000,0.000000,0.078770,0,0,0,0,0,0,0
12,129999,5,120000,45,70000,0,9999,0.100000,0,0,0.000000,3,0.000000,0.000000,0.357259,0,0,0,0,0,0,0
12,129999,6,120000,8,10000,0,9999,0.100000,0,0,0.000000,3,0.000000,0.000000,0.083295,0,0,0,0,0,0,0
12,129999,7,120000,39,80000,0,9999,0.100000,0,0,0.000000,3,0.000000,0.000000,1.011048,0,0,0,0,0,0,0
12,129999,8,120000,45,70000,0,9999,0.100000,0,0,0.000000,3,0.000000,0.000000,0.185691,0,0,0,0,0,0,0
12,129999,9,120000,45,70000,0,9999,0.100000,0,0,0.000000,3,0.000000,0.000000,0.077657,0,0,0,0,0,0,0
12,129999,10,120000,45,70000,0,9999,0.135000,0,0,0.000000,3,0.000000,0.000000,0.073778,0,0,0,0,0,0,0
12,129999,11,120000,8,10000,0,9999,0.100000,0,0,0.000000,3,0.000000,0.000000,2.203680,0,0,0,0,0,0,0
12,129999,12,120000,8,10000,0,9999,0.100000,0,0,0.000000,3,0.000000,0.000000,0.133127,0,0,0,0,0,0,0
12,129999,13,120000,45,70000,0,9999,0.100000,0,0,0.000000,3,0.000000,0.000000,0.267932,0,0,0,0,0,0,0
12,129999,14,120000,8,10000,0,9999,0.100000,0,0,0.000000,3,0.000000,0.000000,3.605763,0,0,0,0,0,0,0
12,129999,15,120000,45,70000,0,9999,0.100000,0,0,0.000000,3,0.000000,0.000000,0.401079,0,0,0,0,0,0,0
12,129999,16,120000,8,10000,0,9999,0.100000,0,0,0.000000,3,0.000000,0.000000,0.140451,0,0,0,0,0,0,0
12,129999,17,120000,8,10000,0,9999,0.100000,0,0,0.000000,3,0.000000,0.000000,0.086529,0,0,0,0,0,0,0
12,129999,18,120000,8,10000,1,9999,0.100000,0,0,0.000000,3,1.000000,0.000000,7.954486,0,0,0,0,0,0,0
12,129999,19,120000,39,80000,0,9999,0.100000,0,0,0.000000,3,0.000000,0.000000,4.925252,0,0,0,0,0,0,0
12,129999,20,120000,39,80000,0,9999,0.100000,0,0,0.000000,3,0.000000,0.000000,1.498925,0,0,0,0,0,0,0
12,129999,21,120000,39,80000,0,9999,0.100000,0,0,0.000000,3,0.000000,0.000000,0.354944,0,0,0,0,0,0,0
12,129999,22,120000,39,80000,0,9999,0.100000,0,0,0.000000,3,0.000000,0.000000,0.074915,0,0,0,0,0,0,0
12,129999,23,120000,39,80000,0,9999,0.100000,0,0,0.000000,3,0.000000,0.000000,0.225189,0,0,0,0,0,0,0
12,129999,24,120000,8,10000,0,9999,0.100000,0,0,0.000000,3,0.000000,0.000000,6.438779,0,0,0,0,0,0,0
12,129999,25,120000,45,70000,0,9999,0.100000,0,0,0.000000,3,0.000000,0.000000,0.586251,0,0,0,0,0,0,0
12,129999,26,120000,39,80000,0,9999,0.100000,0,0,0.000000,3,0.000000,0.000000,3.483319,0,0,0,0,0,0,0
12,129999,27,120000,45,70000,0,9999,0.100000,0,0,0.000000,3,0.000000,0.000000,0.293905,0,0,0,0,0,0,0
12,129999,28,120000,45,70000,1,9999,0.100000,0,0,0.000000,3,1.000000,0.000000,1.344635,0,0,0,0,0,0,0
12,129999,29,120000,39,80000,1,9999,0.100000,0,0,0.000000,3,2.000000,0.000000,6.502979,0,0,0,0,0,0,0
12,129999,30,120000,45,70000,0,9999,0.100000,0,0,0.000000,3,0.000000,0.000000,0.130443,0,0,0,0,0,0,0
12,129999,31,120000,45,70000,0,9999,0.100000,0,0,0.000000,3,0.000000,0.000000,0.102928,0,0,0,0,0,0,0
12,129999,32,120000,8,10000,1,9999,0.100000,0,0,0.000000,3,1.000000,0.000000,2.113973,0,0,0,0,0,0,0
12,129999,33,120000,45,70000,0,9999,0.100000,0,0,0.000000,3,0.000000,0.000000,0.627755,0,0,0,0,0,0,0
12,129999,34,120000,45,70000,0,9999,0.100000,0,0,0.000000,3,0.000000,0.000000,0.181267,0,0,0,0,0,0,0
12,129999,35,120000,39,80000,0,9999,0.100000,0,0,0.000000,3,0.000000,0.000000,2.158087,0,0,0,0,0,0,0
