generation,iteration,robot,birthday,ancestor_id,ancestor_birthday,cell_id,age,sigma,maps,genomes,fitness,cells_in_map,dist_max,dist_pot_max,dist_total,com_rx,com_tx,obj_group1,obj_group2,obj_group3,obj_group4,obj_group5
0,9999,0,0,0,0,49,9999,0.100000,0,0,0.000000,0,8.000000,0.000000,10.525686,0,0,0,0,0,0,0
0,9999,1,0,1,0,99,9999,0.100000,0,0,47.368421,0,7.000000,0.000000,16.604742,0,0,1,0,0,0,0
0,9999,2,0,2,0,49,9999,0.100000,0,0,0.000000,0,9.000000,0.000000,10.375476,0,0,0,0,0,0,0
0,9999,3,0,3,0,49,9999,0.100000,0,0,0.000000,0,7.000000,0.000000,19.525231,0,0,0,0,0,0,0
0,9999,4,0,4,0,49,9999,0.100000,0,0,0.000000,0,6.000000,0.000000,16.370060,0,0,0,0,0,0,0
0,9999,5,0,5,0,49,9999,0.100000,0,0,0.000000,0,8.000000,0.000000,16.493703,0,0,0,0,0,0,0
0,9999,6,0,6,0,49,9999,0.100000,0,0,0.000000,0,10.000000,0.000000,18.319570,0,0,0,0,0,0,0
0,9999,7,0,7,0,49,9999,0.100000,0,0,0.000000,0,3.000000,0.000000,8.646035,0,0,0,0,0,0,0
0,9999,8,0,8,0,49,9999,0.100000,0,0,0.000000,0,6.000000,0.000000,9.085971,0,0,0,0,0,0,0
0,9999,9,0,9,0,49,9999,0.100000,0,0,0.000000,0,8.000000,0.000000,14.591424,0,0,0,0,0,0,0
0,9999,10,0,10,0,49,9999,0.100000,0,0,0.000000,0,11.000000,0.000000,11.865952,0,0,0,0,0,0,0
0,9999,11,0,11,0,49,9999,0.100000,0,0,0.000000,0,3.000000,0.000000,11.920986,0,0,0,0,0,0,0
0,9999,12,0,12,0,49,9999,0.100000,0,0,0.000000,0,9.000000,0.000000,15.117978,0,0,0,0,0,0,0
0,9999,13,0,13,0,49,9999,0.100000,0,0,0.000000,0,10.000000,0.000000,23.426990,0,0,0,0,0,0,0
0,9999,14,0,14,0,49,9999,0.100000,0,0,0.000000,0,6.000000,0.000000,7.259499,0,0,0,0,0,0,0
0,9999,15,0,15,0,49,9999,0.100000,0,0,0.000000,0,3.000000,0.000000,22.112450,0,0,0,0,0,0,0
0,9999,16,0,16,0,49,9999,0.100000,0,0,0.000000,0,6.000000,0.000000,25.632346,0,0,0,0,0,0,0
0,9999,17,0,17,0,49,9999,0.100000,0,0,0.000000,0,8.000000,0.000000,19.657340,0,0,0,0,0,0,0
0,9999,18,0,18,0,99,9999,0.100000,0,0,47.368421,0,9.000000,0.000000,25.338468,0,0,1,0,0,0,0
0,9999,19,0,19,0,49,9999,0.100000,0,0,0.000000,0,7.000000,0.000000,10.005402,0,0,0,0,0,0,0
0,9999,20,0,20,0,49,9999,0.100000,0,0,0.000000,0,1.000000,0.000000,2.417835,0,0,0,0,0,0,0
0,9999,21,0,21,0,49,9999,0.100000,0,0,0.000000,0,7.000000,0.000000,15.506562,0,0,0,0,0,0,0
0,9999,22,0,22,0,49,9999,0.100000,0,0,0.000000,0,8.000000,0.000000,9.340473,0,0,0,0,0,0,0
0,9999,23,0,23,0,49,9999,0.100000,0,0,0.000000,0,5.000000,0.000000,12.211618,0,0,0,0,0,0,0
0,9999,24,0,24,0,49,9999,0.100000,0,0,0.000000,0,11.000000,0.000000,12.707133,0,0,0,0,0,0,0
0,9999,25,0,25,0,49,9999,0.100000,0,0,0.000000,0,7.000000,0.000000,20.703674,0,0,0,0,0,0,0
0,9999,26,0,26,0,49,9999,0.100000,0,0,0.000000,0,10.000000,0.000000,19.189227,0,0,0,0,0,0,0
0,9999,27,0,27,0,49,9999,0.100000,0,0,0.000000,0,6.000000,0.000000,12.067659,0,0,0,0,0,0,0
0,9999,28,0,28,0,49,9999,0.100000,0,0,0.000000,0,7.000000,0.000000,8.554536,0,0,0,0,0,0,0
0,9999,29,0,29,0,49,9999,0.100000,0,0,0.000000,0,11.000000,0.000000,20.124583,0,0,0,0,0,0,0
0,9999,30,0,30,0,99,9999,0.100000,0,0,47.368421,0,11.000000,0.000000,23.709628,0,0,1,0,0,0,0
0,9999,31,0,31,0,49,9999,0.100000,0,0,0.000000,0,5.000000,0.000000,5.737176,0,0,0,0,0,0,0
0,9999,32,0,32,0,49,9999,0.100000,0,0,0.000000,0,5.000000,0.000000,15.008801,0,0,0,0,0,0,0
0,9999,33,0,33,0,49,9999,0.100000,0,0,0.000000,0,9.000000,0.000000,15.764465,0,0,0,0,0,0,0
0,9999,34,0,34,0,99,9999,0.100000,0,0,47.368421,0,8.000000,0.000000,19.174345,0,0,1,0,0,0,0
0,9999,35,0,35,0,49,9999,0.100000,0,0,0.000000,0,12.000000,0.000000,22.118612,0,0,0,0,0,0,0
0,9999,36,0,36,0,49,9999,0.100000,0,0,0.000000,0,10.000000,0.000000,19.842133,0,0,0,0,0,0,0
0,9999,37,0,37,0,49,9999,0.100000,0,0,0.000000,0,11.000000,0.000000,26.480395,0,0,0,0,0,0,0
0,9999,38,0,38,0,49,9999,0.100000,0,0,0.000000,0,7.000000,0.000000,13.205313,0,0,0,0,0,0,0
0,9999,39,0,39,0,49,9999,0.100000,0,0,0.000000,0,4.000000,0.000000,9.114791,0,0,0,0,0,0,0
0,9999,40,0,40,0,49,9999,0.100000,0,0,0.000000,0,4.000000,0.000000,15.959768,0,0,0,0,0,0,0
0,9999,41,0,41,0,49,9999,0.100000,0,0,0.000000,0,10.000000,0.000000,23.247356,0,0,0,0,0,0,0
0,9999,42,0,42,0,49,9999,0.100000,0,0,0.000000,0,11.000000,0.000000,23.023501,0,0,0,0,0,0,0
0,9999,43,0,43,0,49,9999,0.100000,0,0,0.000000,0,9.000000,0.000000,19.079693,0,0,0,0,0,0,0
0,9999,44,0,44,0,49,9999,0.100000,0,0,0.000000,0,8.000000,0.000000,11.944674,0,0,0,0,0,0,0
0,9999,45,0,45,0,49,9999,0.100000,0,0,0.000000,0,3.000000,0.000000,12.509279,0,0,0,0,0,0,0
0,9999,46,0,46,0,49,9999,0.100000,0,0,0.000000,0,8.000000,0.000000,20.082554,0,0,0,0,0,0,0
0,9999,47,0,47,0,99,9999,0.100000,0,0,47.368421,0,11.000000,0.000000,28.815344,0,0,1,0,0,0,0
0,9999,48,0,48,0,49,9999,0.100000,0,0,0.000000,0,3.000000,0.000000,11.106993,0,0,0,0,0,0,0
0,9999,49,0,49,0,49,9999,0.100000,0,0,0.000000,0,3.000000,0.000000,10.365132,0,0,0,0,0,0,0
0,9999,50,0,50,0,49,9999,0.100000,0,0,0.000000,0,6.000000,0.000000,13.321178,0,0,0,0,0,0,0
0,9999,51,0,51,0,49,9999,0.100000,0,0,0.000000,0,4.000000,0.000000,8.484072,0,0,0,0,0,0,0
0,9999,52,0,52,0,99,9999,0.100000,0,0,47.368421,0,8.000000,0.000000,17.843574,0,0,1,0,0,0,0
0,9999,53,0,53,0,49,9999,0.100000,0,0,0.000000,0,10.000000,0.000000,20.991425,0,0,0,0,0,0,0
0,9999,54,0,54,0,49,9999,0.100000,0,0,0.000000,0,7.000000,0.000000,11.038509,0,0,0,0,0,0,0
0,9999,55,0,55,0,49,9999,0.100000,0,0,0.000000,0,9.000000,0.000000,13.379346,0,0,0,0,0,0,0
0,9999,56,0,56,0,49,9999,0.100000,0,0,0.000000,0,9.000000,0.000000,10.954887,0,0,0,0,0,0,0
0,9999,57,0,57,0,49,9999,0.100000,0,0,0.000000,0,10.000000,0.000000,12.581602,0,0,0,0,0,0,0
0,9999,58,0,58,0,49,9999,0.100000,0,0,0.000000,0,12.000000,0.000000,30.017539,0,0,0,0,0,0,0
0,9999,59,0,59,0,49,9999,0.100000,0,0,0.000000,0,10.000000,0.000000,13.909405,0,0,0,0,0,0,0
0,9999,60,0,60,0,49,9999,0.100000,0,0,0.000000,0,3.000000,0.000000,10.260867,0,0,0,0,0,0,0
0,9999,61,0,61,0,49,9999,0.100000,0,0,0.000000,0,8.000000,0.000000,19.332465,0,0,0,0,0,0,0
0,9999,62,0,62,0,49,9999,0.100000,0,0,0.000000,0,10.000000,0.000000,20.562350,0,0,0,0,0,0,0
0,9999,63,0,63,0,49,9999,0.100000,0,0,0.000000,0,3.000000,0.000000,5.510597,0,0,0,0,0,0,0
0,9999,64,0,64,0,49,9999,0.100000,0,0,0.000000,0,8.000000,0.000000,13.695201,0,0,0,0,0,0,0
0,9999,65,0,65,0,49,9999,0.100000,0,0,0.000000,0,11.000000,0.000000,12.299791,0,0,0,0,0,0,0
0,9999,66,0,66,0,49,9999,0.100000,0,0,0.000000,0,12.000000,0.000000,18.351473,0,0,0,0,0,0,0
0,9999,67,0,67,0,49,9999,0.100000,0,0,0.000000,0,6.000000,0.000000,12.962952,0,0,0,0,0,0,0
0,9999,68,0,68,0,49,9999,0.100000,0,0,0.000000,0,10.000000,0.000000,30.135535,0,0,0,0,0,0,0
0,9999,69,0,69,0,99,9999,0.100000,0,0,47.368421,0,10.000000,0.000000,22.621486,0,0,1,0,0,0,0
0,9999,70,0,70,0,49,9999,0.100000,0,0,0.000000,0,11.000000,0.000000,17.967527,0,0,0,0,0,0,0
0,9999,71,0,71,0,49,9999,0.100000,0,0,0.000000,0,4.000000,0.000000,8.915144,0,0,0,0,0,0,0
0,9999,72,0,72,0,49,9999,0.100000,0,0,0.000000,0,4.000000,0.000000,9.378229,0,0,0,0,0,0,0
0,9999,73,0,73,0,49,9999,0.100000,0,0,0.000000,0,9.000000,0.000000,24.233705,0,0,0,0,0,0,0
0,9999,74,0,74,0,49,9999,0.100000,0,0,0.000000,0,9.000000,0.000000,13.772756,0,0,0,0,0,0,0
0,9999,75,0,75,0,49,9999,0.100000,0,0,0.000000,0,10.000000,0.000000,32.863468,0,0,0,0,0,0,0
0,9999,76,0,76,0,49,9999,0.100000,0,0,0.000000,0,9.000000,0.000000,15.403359,0,0,0,0,0,0,0
0,9999,77,0,77,0,49,9999,0.100000,0,0,0.000000,0,3.000000,0.000000,9.478038,0,0,0,0,0,0,0
0,9999,78,0,78,0,49,9999,0.100000,0,0,0.000000,0,6.000000,0.000000,15.701534,0,0,0,0,0,0,0
0,9999,79,0,79,0,49,9999,0.100000,0,0,0.000000,0,10.000000,0.000000,12.888993,0,0,0,0,0,0,0
0,9999,80,0,80,0,49,9999,0.100000,0,0,0.000000,0,10.000000,0.000000,18.309988,0,0,0,0,0,0,0
0,9999,81,0,81,0,49,9999,0.100000,0,0,0.000000,0,8.000000,0.000000,15.219934,0,0,0,0,0,0,0
0,9999,82,0,82,0,49,9999,0.100000,0,0,0.000000,0,6.000000,0.000000,19.433480,0,0,0,0,0,0,0
0,9999,83,0,83,0,99,9999,0.100000,0,0,47.368421,0,10.000000,0.000000,33.253603,0,0,1,0,0,0,0
0,9999,84,0,84,0,49,9999,0.100000,0,0,0.000000,0,12.000000,0.000000,16.442506,0,0,0,0,0,0,0
0,9999,85,0,85,0,49,9999,0.100000,0,0,0.000000,0,7.000000,0.000000,8.279328,0,0,0,0,0,0,0
0,9999,86,0,86,0,49,9999,0.100000,0,0,0.000000,0,7.000000,0.000000,17.195859,0,0,0,0,0,0,0
0,9999,87,0,87,0,49,9999,0.100000,0,0,0.000000,0,7.000000,0.000000,15.777327,0,0,0,0,0,0,0
0,9999,88,0,88,0,49,9999,0.100000,0,0,0.000000,0,11.000000,0.000000,12.505128,0,0,0,0,0,0,0
0,9999,89,0,89,0,49,9999,0.100000,0,0,0.000000,0,11.000000,0.000000,19.852262,0,0,0,0,0,0,0
0,9999,90,0,90,0,99,9999,0.100000,0,0,47.368421,0,8.000000,0.000000,15.761626,0,0,2,0,0,0,0
0,9999,91,0,91,0,99,9999,0.100000,0,0,47.368421,0,8.000000,0.000000,22.120862,0,0,1,0,0,0,0
0,9999,92,0,92,0,49,9999,0.100000,0,0,0.000000,0,8.000000,0.000000,16.413455,0,0,0,0,0,0,0
0,9999,93,0,93,0,49,9999,0.100000,0,0,0.000000,0,8.000000,0.000000,19.387377,0,0,0,0,0,0,0
0,9999,94,0,94,0,49,9999,0.100000,0,0,0.000000,0,3.000000,0.000000,8.654504,0,0,0,0,0,0,0
0,9999,95,0,95,0,49,9999,0.100000,0,0,0.000000,0,12.000000,0.000000,27.686140,0,0,0,0,0,0,0
0,9999,96,0,96,0,49,9999,0.100000,0,0,0.000000,0,6.000000,0.000000,13.188579,0,0,0,0,0,0,0
0,9999,97,0,97,0,49,9999,0.100000,0,0,0.000000,0,9.000000,0.000000,10.656294,0,0,0,0,0,0,0
0,9999,98,0,98,0,49,9999,0.100000,0,0,0.000000,0,5.000000,0.000000,15.319619,0,0,0,0,0,0,0
0,9999,99,0,99,0,49,9999,0.100000,0,0,0.000000,0,5.000000,0.000000,12.945103,0,0,0,0,0,0,0
1,19999,0,0,0,0,40,19999,0.100000,0,0,0.000000,3,0.000000,0.000000,0.184505,0,0,0,0,0,0,0
1,19999,1,10000,1,0,49,9999,0.100000,0,0,0.000000,1,1.000000,0.000000,8.172527,0,0,0,0,0,0,0
1,19999,2,10000,1,0,40,9999,0.100000,0,0,0.000000,3,0.000000,0.000000,0.136028,0,0,0,0,0,0,0
1,19999,3,10000,0,0,40,9999,0.100000,0,0,0.000000,3,0.000000,0.000000,1.213863,0,0,0,0,0,0,0
1,19999,4,10000,0,0,49,9999,0.100000,0,0,0.000000,3,1.000000,0.000000,6.737325,0,0,0,0,0,0,0
1,19999,5,10000,37,0,49,9999,0.100000,0,0,0.000000,3,2.000000,0.000000,3.967863,0,0,0,0,0,0,0
1,19999,6,10000,37,0,40,9999,0.100000,0,0,0.000000,3,0.000000,0.000000,0.882527,0,0,0,0,0,0,0
1,19999,7,10000,29,0,49,9999,0.100000,0,0,0.000000,3,1.000000,0.000000,11.391607,0,0,0,0,0,0,0
1,19999,8,0,8,0,40,19999,0.100000,0,0,0.000000,3,0.000000,0.000000,0.792920,0,0,0,0,0,0,0
1,19999,9,10000,37,0,49,9999,0.100000,0,0,0.000000,3,3.000000,0.000000,12.477031,0,0,0,0,0,0,0
1,19999,10,10000,29,0,40,9999,0.100000,0,0,0.000000,3,0.000000,0.000000,0.198127,0,0,0,0,0,0,0
1,19999,11,10000,36,0,40,9999,0.100000,0,0,0.000000,3,0.000000,0.000000,0.164688,0,0,0,0,0,0,0
1,19999,12,10000,56,0,49,9999,0.100000,0,0,0.000000,3,2.000000,0.000000,6.165271,0,0,0,0,0,0,0
1,19999,13,10000,0,0,49,9999,0.100000,0,0,0.000000,3,1.000000,0.000000,12.732823,0,0,0,0,0,0,0
1,19999,14,10000,36,0,40,9999,0.100000,0,0,0.000000,3,0.000000,0.000000,0.156068,0,0,0,0,0,0,0
1,19999,15,10000,37,0,49,9999,0.100000,0,0,0.000000,3,1.000000,0.000000,4.623354,0,0,0,0,0,0,0
1,19999,16,10000,37,0,99,9999,0.100000,0,0,34.210526,3,10.000000,0.000000,16.988722,0,0,1,0,0,0,0
1,19999,17,10000,0,0,49,9999,0.100000,0,0,0.000000,3,3.000000,0.000000,7.554785,0,0,0,0,0,0,0
1,19999,18,10000,37,0,49,9999,0.100000,0,0,0.000000,3,4.000000,0.000000,11.542970,0,0,0,0,0,0,0
1,19999,19,0,19,0,40,19999,0.100000,0,0,0.000000,3,0.000000,0.000000,1.995470,0,0,0,0,0,0,0
1,19999,20,10000,29,0,40,9999,0.100000,0,0,0.000000,3,0.000000,0.000000,1.036592,0,0,0,0,0,0,0
1,19999,21,10000,0,0,49,9999,0.100000,0,0,0.000000,3,1.000000,0.000000,1.804467,0,0,0,0,0,0,0
1,19999,22,10000,56,0,40,9999,0.100000,0,0,0.000000,3,0.000000,0.000000,1.251806,0,0,0,0,0,0,0
1,19999,23,10000,56,0,9,9999,0.100000,0,0,34.210526,3,3.000000,0.000000,8.527824,0,0,0,1,0,0,0
1,19999,24,10000,37,0,40,9999,0.100000,0,0,0.000000,3,0.000000,0.000000,0.986286,0,0,0,0,0,0,0
1,19999,25,10000,37,0,49,9999,0.100000,0,0,0.000000,3,3.000000,0.000000,12.635366,0,0,0,0,0,0,0
1,19999,26,10000,29,0,40,9999,0.100000,0,0,0.000000,3,0.000000,0.000000,12.436179,0,0,0,0,0,0,0
1,19999,27,0,27,0,40,19999,0.100000,0,0,0.000000,3,0.000000,0.000000,0.460203,0,0,0,0,0,0,0
1,19999,28,10000,37,0,40,9999,0.100000,0,0,0.000000,3,0.000000,0.000000,0.439945,0,0,0,0,0,0,0
1,19999,29,10000,36,0,40,9999,0.100000,0,0,0.000000,3,0.000000,0.000000,0.190434,0,0,0,0,0,0,0
1,19999,30,10000,0,0,49,9999,0.100000,0,0,0.000000,3,1.000000,0.000000,15.970785,0,0,0,0,0,0,0
1,19999,31,10000,29,0,9,9999,0.100000,0,0,34.210526,3,3.000000,0.000000,7.596195,0,0,0,1,0,0,0
1,19999,32,10000,0,0,49,9999,0.100000,0,0,0.000000,3,2.000000,0.000000,8.429135,0,0,0,0,0,0,0
1,19999,33,10000,65,0,49,9999,0.100000,0,0,0.000000,3,1.000000,0.000000,2.563519,0,0,0,0,0,0,0
1,19999,34,10000,0,0,49,9999,0.100000,0,0,0.000000,3,1.000000,0.000000,13.239954,0,0,0,0,0,0,0
1,19999,35,10000,36,0,49,9999,0.100000,0,0,0.000000,3,4.000000,0.000000,14.896381,0,0,0,0,0,0,0
1,19999,36,10000,37,0,40,9999,0.100000,0,0,0.000000,3,0.000000,0.000000,1.024475,0,0,0,0,0,0,0
1,19999,37,10000,37,0,40,9999,0.100000,0,0,0.000000,2,0.000000,0.000000,13.321591,0,0,0,0,0,0,0
1,19999,38,10000,56,0,49,9999,0.100000,0,0,0.000000,3,1.000000,0.000000,5.388227,0,0,0,0,0,0,0
1,19999,39,10000,36,0,40,9999,0.100000,0,0,0.000000,3,0.000000,0.000000,0.167973,0,0,0,0,0,0,0
1,19999,40,10000,36,0,49,9999,0.100000,0,0,0.000000,3,2.000000,0.000000,9.316098,0,0,0,0,0,0,0
1,19999,41,10000,29,0,49,9999,0.100000,0,0,0.000000,3,4.000000,0.000000,12.970662,0,0,0,0,0,0,0
1,19999,42,0,42,0,49,19999,0.100000,0,0,0.000000,3,2.000000,0.000000,14.901677,0,0,0,0,0,0,0
1,19999,43,10000,29,0,40,9999,0.100000,0,0,0.000000,3,0.000000,0.000000,0.113587,0,0,0,0,0,0,0
1,19999,44,10000,0,0,40,9999,0.100000,0,0,0.000000,3,0.000000,0.000000,0.231191,0,0,0,0,0,0,0
1,19999,45,10000,37,0,49,9999,0.100000,0,0,0.000000,3,2.000000,0.000000,8.949589,0,0,0,0,0,0,0
1,19999,46,10000,29,0,49,9999,0.100000,0,0,0.000000,3,3.000000,0.000000,11.596618,0,0,0,0,0,0,0
1,19999,47,10000,29,0,49,9999,0.100000,0,0,0.000000,3,3.000000,0.000000,4.984641,0,0,0,0,0,0,0
1,19999,48,10000,65,0,49,9999,0.100000,0,0,0.000000,3,3.000000,0.000000,13.347610,0,0,0,0,0,0,0
1,19999,49,10000,36,0,40,9999,0.100000,0,0,0.000000,3,0.000000,0.000000,0.914789,0,0,0,0,0,0,0
1,19999,50,10000,29,0,40,9999,0.100000,0,0,0.000000,3,0.000000,0.000000,6.336566,0,0,0,0,0,0,0
1,19999,51,10000,36,0,40,9999,0.100000,0,0,0.000000,3,0.000000,0.000000,11.170056,0,0,0,0,0,0,0
1,19999,52,10000,37,0,49,9999,0.100000,0,0,0.000000,3,2.000000,0.000000,11.464580,0,0,0,0,0,0,0
1,19999,53,10000,37,0,40,9999,0.100000,0,0,0.000000,3,0.000000,0.000000,0.248149,0,0,0,0,0,0,0
1,19999,54,10000,37,0,40,9999,0.100000,0,0,0.000000,3,0.000000,0.000000,0.682443,0,0,0,0,0,0,0
1,19999,55,10000,29,0,40,9999,0.100000,0,0,0.000000,3,0.000000,0.000000,4.299426,0,0,0,0,0,0,0
1,19999,56,10000,0,0,49,9999,0.100000,0,0,0.000000,3,16.000000,0.000000,19.795860,0,0,0,0,0,0,0
1,19999,57,10000,56,0,40,9999,0.100000,0,0,0.000000,3,0.000000,0.000000,1.009340,0,0,0,0,0,0,0
1,19999,58,10000,37,0,99,9999,0.100000,0,0,34.210526,3,11.000000,0.000000,15.926698,0,0,1,0,0,0,0
1,19999,59,10000,56,0,40,9999,0.100000,0,0,0.000000,3,0.000000,0.000000,0.553571,0,0,0,0,0,0,0
1,19999,60,10000,0,0,49,9999,0.100000,0,0,0.000000,3,1.000000,0.000000,2.694880,0,0,0,0,0,0,0
1,19999,61,10000,0,0,49,9999,0.100000,0,0,0.000000,3,7.000000,0.000000,10.957744,0,0,0,0,0,0,0
1,19999,62,10000,37,0,49,9999,0.100000,0,0,0.000000,3,2.000000,0.000000,16.301387,0,0,0,0,0,0,0
1,19999,63,10000,36,0,40,9999,0.100000,0,0,0.000000,3,0.000000,0.000000,0.543711,0,0,0,0,0,0,0
1,19999,64,10000,56,0,49,9999,0.100000,0,0,0.000000,3,4.000000,0.000000,12.853527,0,0,0,0,0,0,0
1,19999,65,10000,36,0,40,9999,0.100000,0,0,0.000000,3,0.000000,0.000000,0.150396,0,0,0,0,0,0,0
1,19999,66,0,66,0,40,19999,0.100000,0,0,0.000000,3,0.000000,0.000000,3.594649,0,0,0,0,0,0,0
1,19999,67,10000,37,0,40,9999,0.100000,0,0,0.000000,3,0.000000,0.000000,4.490868,0,0,0,0,0,0,0
1,19999,68,10000,0,0,49,9999,0.100000,0,0,0.000000,3,1.000000,0.000000,7.583185,0,0,0,0,0,0,0
1,19999,69,10000,0,0,49,9999,0.100000,0,0,0.000000,3,1.000000,0.000000,8.547775,0,0,0,0,0,0,0
1,19999,70,10000,37,0,40,9999,0.100000,0,0,0.000000,3,0.000000,0.000000,5.624104,0,0,0,0,0,0,0
1,19999,71,10000,65,0,49,9999,0.100000,0,0,0.000000,3,4.000000,0.000000,17.166480,0,0,0,0,0,0,0
1,19999,72,10000,29,0,40,9999,0.100000,0,0,0.000000,3,0.000000,0.000000,0.092590,0,0,0,0,0,0,0
1,19999,73,10000,0,0,49,9999,0.100000,0,0,0.000000,3,2.000000,0.000000,8.760198,0,0,0,0,0,0,0
1,19999,74,10000,0,0,49,9999,0.100000,0,0,0.000000,3,6.000000,0.000000,9.713498,0,0,0,0,0,0,0
1,19999,75,10000,37,0,40,9999,0.065000,0,0,0.000000,3,0.000000,0.000000,17.256930,0,0,0,0,0,0,0
1,19999,76,10000,37,0,40,9999,0.100000,0,0,0.000000,3,0.000000,0.000000,0.163077,0,0,0,0,0,0,0
1,19999,77,10000,56,0,40,9999,0.100000,0,0,0.000000,3,0.000000,0.000000,3.561792,0,0,0,0,0,0,0
1,19999,78,10000,36,0,49,9999,0.100000,0,0,0.000000,3,2.000000,0.000000,12.389325,0,0,0,0,0,0,0
1,19999,79,10000,37,0,40,9999,0.100000,0,0,0.000000,3,0.000000,0.000000,1.135270,0,0,0,0,0,0,0
1,19999,80,10000,0,0,49,9999,0.100000,0,0,0.000000,3,3.000000,0.000000,7.394114,0,0,0,0,0,0,0
1,19999,81,10000,36,0,49,9999,0.100000,0,0,0.000000,3,3.000000,0.000000,13.959904,0,0,0,0,0,0,0
1,19999,82,10000,56,0,49,9999,0.100000,0,0,0.000000,3,3.000000,0.000000,6.809622,0,0,0,0,0,0,0
1,19999,83,10000,29,0,49,9999,0.100000,0,0,0.000000,3,4.000000,0.000000,14.081809,0,0,0,0,0,0,0
1,19999,84,10000,37,0,49,9999,0.100000,0,0,0.000000,3,1.000000,0.000000,15.403664,0,0,0,0,0,0,0
1,19999,85,10000,65,0,40,9999,0.100000,0,0,0.000000,3,0.000000,0.000000,0.842370,0,0,0,0,0,0,0
1,19999,86,0,86,0,49,19999,0.100000,0,0,0.000000,3,1.000000,0.000000,9.045119,0,0,0,0,0,0,0
1,19999,87,10000,56,0,49,9999,0.100000,0,0,0.000000,3,1.000000,0.000000,3.509429,0,0,0,0,0,0,0
1,19999,88,10000,36,0,40,9999,0.100000,0,0,0.000000,3,0.000000,0.000000,0.657712,0,0,0,0,0,0,0
1,19999,89,10000,29,0,49,9999,0.100000,0,0,0.000000,3,4.000000,0.000000,12.313090,0,0,0,0,0,0,0
1,19999,90,10000,37,0,49,9999,0.100000,0,0,0.000000,3,1.000000,0.000000,10.375760,0,0,0,0,0,0,0
1,19999,91,10000,37,0,40,9999,0.100000,0,0,0.000000,3,0.000000,0.000000,3.096585,0,0,0,0,0,0,0
1,19999,92,10000,29,0,40,9999,0.100000,0,0,0.000000,3,0.000000,0.000000,0.131874,0,0,0,0,0,0,0
1,19999,93,10000,29,0,49,9999,0.100000,0,0,0.000000,3,1.000000,0.000000,1.928632,0,0,0,0,0,0,0
1,19999,94,10000,37,0,49,9999,0.100000,0,0,0.000000,3,2.000000,0.000000,6.156743,0,0,0,0,0,0,0
1,19999,95,10000,37,0,40,9999,0.100000,0,0,0.000000,3,0.000000,0.000000,7.406048,0,0,0,0,0,0,0
1,19999,96,10000,56,0,40,9999,0.100000,0,0,0.000000,3,0.000000,0.000000,0.365506,0,0,0,0,0,0,0
1,19999,97,10000,29,0,40,9999,0.100000,0,0,0.000000,3,0.000000,0.000000,0.362672,0,0,0,0,0,0,0
1,19999,98,10000,56,0,99,9999,0.100000,0,0,34.210526,3,10.000000,0.000000,16.839727,0,0,1,0,0,0,0
1,19999,99,10000,36,0,49,9999,0.100000,0,0,0.000000,3,2.000000,0.000000,12.086163,0,0,0,0,0,0,0
2,29999,0,20000,37,0,40,9999,0.100000,0,0,0.000000,5,0.000000,0.000000,0.145961,0,0,0,0,0,0,0
2,29999,1,20000,6,10000,49,9999,0.100000,0,0,0.000000,4,1.000000,0.000000,7.996607,0,0,0,0,0,0,0
2,29999,2,20000,29,10000,40,9999,0.100000,0,0,0.000000,5,0.000000,0.000000,0.117828,0,0,0,0,0,0,0
2,29999,3,20000,36,0,40,9999,0.100000,0,0,0.000000,4,0.000000,0.000000,1.406915,0,0,0,0,0,0,0
2,29999,4,20000,37,0,49,9999,0.100000,0,0,0.000000,5,5.000000,0.000000,15.141677,0,0,0,0,0,0,0
2,29999,5,20000,0,0,40,9999,0.100000,0,0,0.000000,5,0.000000,0.000000,0.899022,0,0,0,0,0,0,0
2,29999,6,20000,6,10000,49,9999,0.100000,0,0,0.000000,4,4.000000,0.000000,5.837506,0,0,0,0,0,0,0
2,29999,7,20000,6,10000,49,9999,0.100000,0,0,0.000000,5,1.000000,0.000000,6.480072,0,0,0,0,0,0,0
2,29999,8,20000,36,0,40,9999,0.100000,0,0,0.000000,5,0.000000,0.000000,1.102893,0,0,0,0,0,0,0
2,29999,9,20000,29,10000,49,9999,0.100000,0,0,0.000000,6,1.000000,0.000000,6.233209,0,0,0,0,0,0,0
2,29999,10,20000,36,10000,40,9999,0.100000,0,0,0.000000,6,0.000000,0.000000,0.184699,0,0,0,0,0,0,0
2,29999,11,20000,65,0,40,9999,0.100000,0,0,0.000000,5,0.000000,0.000000,0.473236,0,0,0,0,0,0,0
2,29999,12,20000,37,0,49,9999,0.100000,0,0,0.000000,4,2.000000,0.000000,4.350256,0,0,0,0,0,0,0
2,29999,13,20000,6,10000,49,9999,0.100000,0,0,0.000000,5,6.000000,0.000000,21.098616,0,0,0,0,0,0,0
2,29999,14,20000,0,0,40,9999,0.100000,0,0,0.000000,5,0.000000,0.000000,0.439474,0,0,0,0,0,0,0
2,29999,15,20000,65,0,49,9999,0.100000,0,0,0.000000,5,3.000000,0.000000,15.311184,0,0,0,0,0,0,0
2,29999,16,20000,36,0,40,9999,0.100000,0,0,0.000000,5,0.000000,0.000000,3.101303,0,0,0,0,0,0,0
2,29999,17,20000,29,10000,49,9999,0.100000,0,0,0.000000,5,3.000000,0.000000,9.784108,0,0,0,0,0,0,0
2,29999,18,20000,6,10000,49,9999,0.100000,0,0,0.000000,6,1.000000,0.000000,6.271918,0,0,0,0,0,0,0
2,29999,19,20000,65,10000,49,9999,0.100000,0,0,0.000000,5,1.000000,0.000000,1.847095,0,0,0,0,0,0,0
2,29999,20,20000,65,0,40,9999,0.100000,0,0,0.000000,5,0.000000,0.000000,6.487268,0,0,0,0,0,0,0
2,29999,21,20000,65,10000,49,9999,0.100000,0,0,0.000000,5,1.000000,0.000000,1.804734,0,0,0,0,0,0,0
2,29999,22,20000,6,10000,40,9999,0.100000,0,0,0.000000,5,0.000000,0.000000,0.401161,0,0,0,0,0,0,0
2,29999,23,20000,65,0,49,9999,0.100000,0,0,0.000000,5,5.000000,0.000000,14.826531,0,0,0,0,0,0,0
2,29999,24,20000,37,0,40,9999,0.100000,0,0,0.000000,5,0.000000,0.000000,1.010598,0,0,0,0,0,0,0
2,29999,25,20000,65,0,49,9999,0.100000,0,0,0.000000,5,3.000000,0.000000,13.038822,0,0,0,0,0,0,0
2,29999,26,20000,65,10000,49,9999,0.100000,0,0,0.000000,5,3.000000,0.000000,15.815151,0,0,0,0,0,0,0
2,29999,27,20000,36,10000,40,9999,0.100000,0,0,0.000000,6,0.000000,0.000000,0.523352,0,0,0,0,0,0,0
2,29999,28,20000,6,10000,40,9999,0.100000,0,0,0.000000,5,0.000000,0.000000,0.311843,0,0,0,0,0,0,0
2,29999,29,20000,6,10000,40,9999,0.100000,0,0,0.000000,5,0.000000,0.000000,0.705380,0,0,0,0,0,0,0
2,29999,30,20000,6,10000,40,9999,0.100000,0,0,0.000000,5,0.000000,0.000000,6.561249,0,0,0,0,0,0,0
2,29999,31,20000,65,10000,49,9999,0.100000,0,0,0.000000,5,6.000000,0.000000,18.773429,0,0,0,0,0,0,0
2,29999,32,20000,6,10000,40,9999,0.100000,0,0,0.000000,4,0.000000,0.000000,7.191019,0,0,0,0,0,0,0
2,29999,33,20000,29,10000,49,9999,0.100000,0,0,0.000000,6,3.000000,0.000000,4.552688,0,0,0,0,0,0,0
2,29999,34,20000,36,0,49,9999,0.100000,0,0,0.000000,5,1.000000,0.000000,16.974437,0,0,0,0,0,0,0
2,29999,35,20000,29,10000,49,9999,0.100000,0,0,0.000000,6,1.000000,0.000000,3.151119,0,0,0,0,0,0,0
2,29999,36,20000,29,10000,40,9999,0.100000,0,0,0.000000,6,0.000000,0.000000,0.924500,0,0,0,0,0,0,0
2,29999,37,20000,65,0,49,9999,0.100000,0,0,0.000000,4,4.000000,0.000000,9.049887,0,0,0,0,0,0,0
2,29999,38,20000,37,0,49,9999,0.100000,0,0,0.000000,6,1.000000,0.000000,2.684735,0,0,0,0,0,0,0
2,29999,39,20000,36,0,40,9999,0.100000,0,0,0.000000,6,0.000000,0.000000,0.186215,0,0,0,0,0,0,0
2,29999,40,20000,65,0,40,9999,0.100000,0,0,0.000000,5,0.000000,0.000000,0.319894,0,0,0,0,0,0,0
2,29999,41,20000,37,0,49,9999,0.100000,0,0,0.000000,4,4.000000,0.000000,14.575256,0,0,0,0,0,0,0
2,29999,42,20000,65,10000,49,9999,0.100000,0,0,0.000000,5,1.000000,0.000000,17.061006,0,0,0,0,0,0,0
2,29999,43,10000,29,0,40,19999,0.100000,0,0,0.000000,5,0.000000,0.000000,0.110896,0,0,0,0,0,0,0
2,29999,44,20000,36,0,40,9999,0.100000,0,0,0.000000,5,0.000000,0.000000,0.288361,0,0,0,0,0,0,0
2,29999,45,20000,37,0,40,9999,0.100000,0,0,0.000000,5,0.000000,0.000000,18.302407,0,0,0,0,0,0,0
2,29999,46,20000,36,10000,99,9999,0.100000,0,0,34.210526,6,6.000000,0.000000,12.947499,0,0,1,0,0,0,0
2,29999,47,20000,36,0,40,9999,0.100000,0,0,0.000000,5,0.000000,0.000000,0.239434,0,0,0,0,0,0,0
2,29999,48,20000,37,0,49,9999,0.100000,0,0,0.000000,5,1.000000,0.000000,5.042134,0,0,0,0,0,0,0
2,29999,49,20000,6,10000,40,9999,0.100000,0,0,0.000000,5,0.000000,0.000000,3.221262,0,0,0,0,0,0,0
2,29999,50,20000,0,0,40,9999,0.100000,0,0,0.000000,5,0.000000,0.000000,4.419714,0,0,0,0,0,0,0
2,29999,51,20000,37,0,40,9999,0.100000,0,0,0.000000,5,0.000000,0.000000,5.141137,0,0,0,0,0,0,0
2,29999,52,20000,65,0,49,9999,0.100000,0,0,0.000000,5,1.000000,0.000000,2.121519,0,0,0,0,0,0,0
2,29999,53,20000,36,0,40,9999,0.100000,0,0,0.000000,5,0.000000,0.000000,0.229853,0,0,0,0,0,0,0
2,29999,54,20000,36,0,40,9999,0.100000,0,0,0.000000,6,0.000000,0.000000,0.699257,0,0,0,0,0,0,0
2,29999,55,20000,29,10000,40,9999,0.100000,0,0,0.000000,6,0.000000,0.000000,1.278113,0,0,0,0,0,0,0
2,29999,56,20000,65,0,99,9999,0.100000,0,0,34.210526,5,2.000000,0.000000,16.553092,0,0,1,0,0,0,0
2,29999,57,20000,36,0,40,9999,0.100000,0,0,0.000000,5,0.000000,0.000000,0.949409,0,0,0,0,0,0,0
2,29999,58,20000,65,0,49,9999,0.100000,0,0,0.000000,6,4.000000,0.000000,17.616597,0,0,0,0,0,0,0
2,29999,59,20000,0,0,40,9999,0.100000,0,0,0.000000,5,0.000000,0.000000,0.577754,0,0,0,0,0,0,0
2,29999,60,20000,36,0,40,9999,0.100000,0,0,0.000000,5,0.000000,0.000000,0.067302,0,0,0,0,0,0,0
2,29999,61,20000,36,0,40,9999,0.100000,0,0,0.000000,5,0.000000,0.000000,0.116559,0,0,0,0,0,0,0
2,29999,62,20000,36,0,49,9999,0.100000,0,0,0.000000,6,6.000000,0.000000,12.008094,0,0,0,0,0,0,0
2,29999,63,20000,6,10000,40,9999,0.100000,0,0,0.000000,5,0.000000,0.000000,1.572222,0,0,0,0,0,0,0
2,29999,64,20000,36,0,9,9999,0.100000,0,0,34.210526,6,1.000000,0.000000,19.398929,0,0,0,1,0,0,0
2,29999,65,20000,36,0,9,9999,0.100000,0,0,34.210526,5,2.000000,0.000000,4.985814,0,0,0,1,0,0,0
2,29999,66,20000,6,10000,49,9999,0.100000,0,0,0.000000,6,1.000000,0.000000,14.963730,0,0,0,0,0,0,0
2,29999,67,20000,29,10000,40,9999,0.100000,0,0,0.000000,6,0.000000,0.000000,2.794333,0,0,0,0,0,0,0
2,29999,68,20000,65,0,99,9999,0.100000,0,0,34.210526,6,10.000000,0.000000,25.718419,0,0,1,0,0,0,0
2,29999,69,20000,65,0,49,9999,0.100000,0,0,0.000000,6,3.000000,0.000000,9.181379,0,0,0,0,0,0,0
2,29999,70,20000,36,10000,49,9999,0.100000,0,0,0.000000,6,2.000000,0.000000,10.324569,0,0,0,0,0,0,0
2,29999,71,20000,6,10000,49,9999,0.100000,0,0,0.000000,5,1.000000,0.000000,6.307049,0,0,0,0,0,0,0
2,29999,72,20000,65,0,40,9999,0.100000,0,0,0.000000,5,0.000000,0.000000,0.090490,0,0,0,0,0,0,0
2,29999,73,20000,65,10000,49,9999,0.100000,0,0,0.000000,5,3.000000,0.000000,11.309024,0,0,0,0,0,0,0
2,29999,74,20000,6,10000,40,9999,0.100000,0,0,0.000000,5,0.000000,0.000000,1.026990,0,0,0,0,0,0,0
2,29999,75,20000,29,10000,40,9999,0.100000,0,0,0.000000,5,0.000000,0.000000,23.907206,0,0,0,0,0,0,0
2,29999,76,20000,36,0,49,9999,0.100000,0,0,0.000000,6,3.000000,0.000000,4.080260,0,0,0,0,0,0,0
2,29999,77,20000,65,0,49,9999,0.100000,0,0,0.000000,6,5.000000,0.000000,20.499962,0,0,0,0,0,0,0
2,29999,78,20000,6,10000,49,9999,0.100000,0,0,0.000000,5,1.000000,0.000000,12.634893,0,0,0,0,0,0,0
2,29999,79,20000,29,10000,49,9999,0.100000,0,0,0.000000,6,2.000000,0.000000,6.765446,0,0,0,0,0,0,0
2,29999,80,20000,65,0,49,9999,0.100000,0,0,0.000000,4,5.000000,0.000000,16.798921,0,0,0,0,0,0,0
2,29999,81,20000,29,10000,49,9999,0.100000,0,0,0.000000,6,4.000000,0.000000,14.246779,0,0,0,0,0,0,0
2,29999,82,20000,36,0,49,9999,0.100000,0,0,0.000000,5,2.000000,0.000000,13.714338,0,0,0,0,0,0,0
2,29999,83,20000,6,10000,49,9999,0.100000,0,0,0.000000,5,1.000000,0.000000,15.957378,0,0,0,0,0,0,0
2,29999,84,20000,6,10000,40,9999,0.100000,0,0,0.000000,6,0.000000,0.000000,15.472506,0,0,0,0,0,0,0
2,29999,85,20000,37,0,49,9999,0.100000,0,0,0.000000,5,1.000000,0.000000,1.598332,0,0,0,0,0,0,0
2,29999,86,20000,36,0,40,9999,0.100000,0,0,0.000000,5,0.000000,0.000000,11.644242,0,0,0,0,0,0,0
2,29999,87,20000,37,0,49,9999,0.100000,0,0,0.000000,5,2.000000,0.000000,5.244080,0,0,0,0,0,0,0
2,29999,88,20000,6,10000,40,9999,0.100000,0,0,0.000000,5,0.000000,0.000000,0.674644,0,0,0,0,0,0,0
2,29999,89,20000,37,0,49,9999,0.100000,0,0,0.000000,5,7.000000,0.000000,17.956537,0,0,0,0,0,0,0
2,29999,90,20000,29,10000,40,9999,0.100000,0,0,0.000000,6,0.000000,0.000000,0.364407,0,0,0,0,0,0,0
2,29999,91,20000,65,10000,49,9999,0.100000,0,0,0.000000,5,1.000000,0.000000,3.640600,0,0,0,0,0,0,0
2,29999,92,20000,36,10000,40,9999,0.100000,0,0,0.000000,6,0.000000,0.000000,0.123136,0,0,0,0,0,0,0
2,29999,93,20000,37,0,40,9999,0.100000,0,0,0.000000,5,0.000000,0.000000,0.140009,0,0,0,0,0,0,0
2,29999,94,20000,36,10000,40,9999,0.100000,0,0,0.000000,6,0.000000,0.000000,1.971229,0,0,0,0,0,0,0
2,29999,95,20000,6,10000,40,9999,0.100000,0,0,0.000000,4,0.000000,0.000000,5.606136,0,0,0,0,0,0,0
2,29999,96,20000,36,0,40,9999,0.100000,0,0,0.000000,5,0.000000,0.000000,0.363543,0,0,0,0,0,0,0
2,29999,97,20000,37,0,40,9999,0.100000,0,0,0.000000,6,0.000000,0.000000,0.464443,0,0,0,0,0,0,0
2,29999,98,20000,65,10000,40,9999,0.100000,0,0,0.000000,5,0.000000,0.000000,7.751391,0,0,0,0,0,0,0
2,29999,99,20000,29,10000,40,9999,0.100000,0,0,0.000000,6,0.000000,0.000000,0.441904,0,0,0,0,0,0,0
3,39999,0,30000,12,20000,40,9999,0.100000,0,0,0.000000,6,0.000000,0.000000,0.136699,0,0,0,0,0,0,0
3,39999,1,30000,36,10000,9,9999,0.100000,0,0,34.210526,6,3.000000,0.000000,9.555477,0,0,0,1,0,0,0
3,39999,2,30000,37,0,40,9999,0.100000,0,0,0.000000,6,0.000000,0.000000,0.148374,0,0,0,0,0,0,0
3,39999,3,30000,29,10000,49,9999,0.100000,0,0,0.000000,6,2.000000,0.000000,2.976958,0,0,0,0,0,0,0
3,39999,4,30000,37,0,99,9999,0.100000,0,0,34.210526,6,4.000000,0.000000,13.179783,0,0,1,0,0,0,0
3,39999,5,30000,6,10000,49,9999,0.100000,0,0,0.000000,6,1.000000,0.000000,4.880000,0,0,0,0,0,0,0
3,39999,6,30000,29,10000,9,9999,0.100000,0,0,34.210526,6,8.000000,0.000000,11.485194,0,0,0,1,0,0,0
3,39999,7,30000,37,0,49,9999,0.100000,0,0,0.000000,6,1.000000,0.000000,6.472151,0,0,0,0,0,0,0
3,39999,8,30000,36,10000,49,9999,0.100000,0,0,0.000000,6,2.000000,0.000000,2.436474,0,0,0,0,0,0,0
3,39999,9,30000,36,10000,49,9999,0.100000,0,0,0.000000,6,1.000000,0.000000,7.231961,0,0,0,0,0,0,0
3,39999,10,30000,6,10000,40,9999,0.100000,0,0,0.000000,6,0.000000,0.000000,0.212557,0,0,0,0,0,0,0
3,39999,11,30000,36,0,40,9999,0.100000,0,0,0.000000,6,0.000000,0.000000,0.726486,0,0,0,0,0,0,0
3,39999,12,30000,29,10000,40,9999,0.100000,0,0,0.000000,6,0.000000,0.000000,0.617018,0,0,0,0,0,0,0
3,39999,13,30000,6,10000,40,9999,0.100000,0,0,0.000000,6,0.000000,0.000000,0.979831,0,0,0,0,0,0,0
3,39999,14,30000,29,10000,49,9999,0.100000,0,0,0.000000,6,1.000000,0.000000,1.296424,0,0,0,0,0,0,0
3,39999,15,30000,65,0,49,9999,0.100000,0,0,0.000000,6,1.000000,0.000000,9.154679,0,0,0,0,0,0,0
3,39999,16,30000,29,10000,49,9999,0.135000,0,0,0.000000,6,1.000000,0.000000,2.310790,0,0,0,0,0,0,0
3,39999,17,30000,36,0,49,9999,0.100000,0,0,0.000000,6,1.000000,0.000000,9.497300,0,0,0,0,0,0,0
3,39999,18,30000,6,10000,40,9999,0.100000,0,0,0.000000,6,0.000000,0.000000,1.390356,0,0,0,0,0,0,0
3,39999,19,30000,36,0,49,9999,0.100000,0,0,0.000000,6,1.000000,0.000000,4.135112,0,0,0,0,0,0,0
3,39999,20,30000,36,0,40,9999,0.100000,0,0,0.000000,6,0.000000,0.000000,2.109486,0,0,0,0,0,0,0
3,39999,21,30000,6,10000,49,9999,0.100000,0,0,0.000000,6,3.000000,0.000000,9.359537,0,0,0,0,0,0,0
3,39999,22,30000,36,0,40,9999,0.100000,0,0,0.000000,6,0.000000,0.000000,0.652399,0,0,0,0,0,0,0
3,39999,23,30000,37,0,9,9999,0.100000,0,0,34.210526,6,4.000000,0.000000,8.415933,0,0,0,1,0,0,0
3,39999,24,30000,6,10000,40,9999,0.100000,0,0,0.000000,6,0.000000,0.000000,1.034225,0,0,0,0,0,0,0
3,39999,25,30000,36,0,49,9999,0.100000,0,0,0.000000,6,5.000000,0.000000,16.763485,0,0,0,0,0,0,0
3,39999,26,30000,6,10000,49,9999,0.100000,0,0,0.000000,6,1.000000,0.000000,7.145774,0,0,0,0,0,0,0
3,39999,27,30000,36,10000,49,9999,0.100000,0,0,0.000000,6,1.000000,0.000000,1.989733,0,0,0,0,0,0,0
3,39999,28,30000,12,20000,40,9999,0.100000,0,0,0.000000,6,0.000000,0.000000,1.868194,0,0,0,0,0,0,0
3,39999,29,30000,29,10000,40,9999,0.100000,0,0,0.000000,6,0.000000,0.000000,0.270786,0,0,0,0,0,0,0
3,39999,30,30000,6,10000,40,9999,0.100000,0,0,0.000000,6,0.000000,0.000000,6.810083,0,0,0,0,0,0,0
3,39999,31,30000,29,10000,40,9999,0.100000,0,0,0.000000,6,0.000000,0.000000,1.515817,0,0,0,0,0,0,0
3,39999,32,30000,6,10000,49,9999,0.100000,0,0,0.000000,6,1.000000,0.000000,5.581074,0,0,0,0,0,0,0
3,39999,33,30000,12,20000,49,9999,0.100000,0,0,0.000000,6,4.000000,0.000000,11.293331,0,0,0,0,0,0,0
3,39999,34,30000,29,10000,40,9999,0.100000,0,0,0.000000,6,0.000000,0.000000,13.807290,0,0,0,0,0,0,0
3,39999,35,30000,36,0,49,9999,0.100000,0,0,0.000000,6,2.000000,0.000000,2.161868,0,0,0,0,0,0,0
3,39999,36,30000,6,10000,40,9999,0.100000,0,0,0.000000,6,0.000000,0.000000,3.215217,0,0,0,0,0,0,0
3,39999,37,30000,6,10000,40,9999,0.100000,0,0,0.000000,6,0.000000,0.000000,1.438214,0,0,0,0,0,0,0
3,39999,38,30000,36,10000,49,9999,0.100000,0,0,0.000000,6,1.000000,0.000000,5.065487,0,0,0,0,0,0,0
3,39999,39,30000,12,20000,40,9999,0.100000,0,0,0.000000,6,0.000000,0.000000,0.178723,0,0,0,0,0,0,0
3,39999,40,30000,65,0,40,9999,0.100000,0,0,0.000000,6,0.000000,0.000000,0.343212,0,0,0,0,0,0,0
3,39999,41,30000,65,0,49,9999,0.100000,0,0,0.000000,6,2.000000,0.000000,13.670836,0,0,0,0,0,0,0
3,39999,42,30000,36,0,49,9999,0.100000,0,0,0.000000,6,2.000000,0.000000,8.754799,0,0,0,0,0,0,0
3,39999,43,30000,36,10000,40,9999,0.100000,0,0,0.000000,6,0.000000,0.000000,0.127730,0,0,0,0,0,0,0
3,39999,44,30000,29,10000,49,9999,0.100000,0,0,0.000000,6,1.000000,0.000000,1.818281,0,0,0,0,0,0,0
3,39999,45,30000,36,10000,49,9999,0.100000,0,0,0.000000,6,1.000000,0.000000,9.266543,0,0,0,0,0,0,0
3,39999,46,30000,29,10000,49,9999,0.100000,0,0,0.000000,6,9.000000,0.000000,17.940495,0,0,0,0,0,0,0
3,39999,47,30000,37,0,40,9999,0.100000,0,0,0.000000,6,0.000000,0.000000,0.230362,0,0,0,0,0,0,0
3,39999,48,30000,36,0,49,9999,0.100000,0,0,0.000000,6,1.000000,0.000000,14.442254,0,0,0,0,0,0,0
3,39999,49,30000,29,10000,40,9999,0.100000,0,0,0.000000,6,0.000000,0.000000,0.914713,0,0,0,0,0,0,0
3,39999,50,30000,36,10000,49,9999,0.100000,0,0,0.000000,6,2.000000,0.000000,5.233990,0,0,0,0,0,0,0
3,39999,51,30000,36,10000,49,9999,0.100000,0,0,0.000000,6,1.000000,0.000000,6.053100,0,0,0,0,0,0,0
3,39999,52,30000,65,0,40,9999,0.100000,0,0,0.000000,6,0.000000,0.000000,0.236585,0,0,0,0,0,0,0
3,39999,53,30000,6,10000,40,9999,0.100000,0,0,0.000000,6,0.000000,0.000000,0.232443,0,0,0,0,0,0,0
3,39999,54,30000,65,0,49,9999,0.100000,0,0,0.000000,6,5.000000,0.000000,21.608966,0,0,0,0,0,0,0
3,39999,55,30000,36,0,49,9999,0.100000,0,0,0.000000,6,6.000000,0.000000,9.814444,0,0,0,0,0,0,0
3,39999,56,30000,37,0,49,9999,0.100000,0,0,0.000000,6,1.000000,0.000000,8.360333,0,0,0,0,0,0,0
3,39999,57,30000,37,0,40,9999,0.100000,0,0,0.000000,6,0.000000,0.000000,0.922598,0,0,0,0,0,0,0
3,39999,58,30000,65,0,49,9999,0.100000,0,0,0.000000,6,1.000000,0.000000,3.065186,0,0,0,0,0,0,0
3,39999,59,30000,36,10000,40,9999,0.100000,0,0,0.000000,6,0.000000,0.000000,0.573034,0,0,0,0,0,0,0
3,39999,60,30000,12,20000,40,9999,0.100000,0,0,0.000000,6,0.000000,0.000000,0.717033,0,0,0,0,0,0,0
3,39999,61,30000,29,10000,40,9999,0.100000,0,0,0.000000,6,0.000000,0.000000,0.117461,0,0,0,0,0,0,0
3,39999,62,30000,37,0,49,9999,0.100000,0,0,0.000000,6,1.000000,0.000000,4.819660,0,0,0,0,0,0,0
3,39999,63,30000,36,0,40,9999,0.100000,0,0,0.000000,6,0.000000,0.000000,0.630306,0,0,0,0,0,0,0
3,39999,64,30000,6,10000,40,9999,0.100000,0,0,0.000000,6,0.000000,0.000000,7.395264,0,0,0,0,0,0,0
3,39999,65,30000,36,0,49,9999,0.100000,0,0,0.000000,6,2.000000,0.000000,11.147249,0,0,0,0,0,0,0
3,39999,66,30000,29,10000,49,9999,0.100000,0,0,0.000000,6,3.000000,0.000000,11.277813,0,0,0,0,0,0,0
3,39999,67,30000,6,10000,49,9999,0.100000,0,0,0.000000,6,1.000000,0.000000,19.258543,0,0,0,0,0,0,0
3,39999,68,30000,36,0,49,9999,0.100000,0,0,0.000000,6,2.000000,0.000000,2.845385,0,0,0,0,0,0,0
3,39999,69,30000,6,10000,40,9999,0.100000,0,0,0.000000,6,0.000000,0.000000,0.207324,0,0,0,0,0,0,0
3,39999,70,30000,29,10000,49,9999,0.100000,0,0,0.000000,6,1.000000,0.000000,2.183754,0,0,0,0,0,0,0
3,39999,71,30000,65,0,49,9999,0.100000,0,0,0.000000,6,4.000000,0.000000,8.025263,0,0,0,0,0,0,0
3,39999,72,30000,36,0,40,9999,0.100000,0,0,0.000000,6,0.000000,0.000000,0.135940,0,0,0,0,0,0,0
3,39999,73,30000,65,0,49,9999,0.100000,0,0,0.000000,6,2.000000,0.000000,3.041895,0,0,0,0,0,0,0
3,39999,74,30000,37,0,40,9999,0.100000,0,0,0.000000,6,0.000000,0.000000,1.001696,0,0,0,0,0,0,0
3,39999,75,30000,12,20000,49,9999,0.100000,0,0,0.000000,6,2.000000,0.000000,14.923936,0,0,0,0,0,0,0
3,39999,76,30000,36,0,9,9999,0.100000,0,0,34.210526,6,7.000000,0.000000,12.114620,0,0,0,1,0,0,0
3,39999,77,30000,36,10000,49,9999,0.100000,0,0,0.000000,6,8.000000,0.000000,24.093670,0,0,0,0,0,0,0
3,39999,78,30000,36,10000,49,9999,0.100000,0,0,0.000000,6,1.000000,0.000000,8.382889,0,0,0,0,0,0,0
3,39999,79,30000,36,10000,49,9999,0.100000,0,0,0.000000,6,2.000000,0.000000,3.482495,0,0,0,0,0,0,0
3,39999,80,30000,37,0,49,9999,0.100000,0,0,0.000000,6,1.000000,0.000000,5.203015,0,0,0,0,0,0,0
3,39999,81,30000,6,10000,49,9999,0.100000,0,0,0.000000,6,1.000000,0.000000,18.063067,0,0,0,0,0,0,0
3,39999,82,30000,36,0,49,9999,0.100000,0,0,0.000000,6,3.000000,0.000000,16.360124,0,0,0,0,0,0,0
3,39999,83,30000,6,10000,49,9999,0.100000,0,0,0.000000,6,1.000000,0.000000,13.624053,0,0,0,0,0,0,0
3,39999,84,30000,36,0,49,9999,0.100000,0,0,0.000000,6,2.000000,0.000000,10.405961,0,0,0,0,0,0,0
3,39999,85,30000,6,10000,49,9999,0.065000,0,0,0.000000,6,1.000000,0.000000,1.978727,0,0,0,0,0,0,0
3,39999,86,30000,65,0,99,9999,0.100000,0,0,34.210526,6,9.000000,0.000000,19.818035,0,0,1,0,0,0,0
3,39999,87,30000,29,10000,40,9999,0.100000,0,0,0.000000,6,0.000000,0.000000,0.906835,0,0,0,0,0,0,0
3,39999,88,30000,36,0,40,9999,0.100000,0,0,0.000000,6,0.000000,0.000000,2.474418,0,0,0,0,0,0,0
3,39999,89,30000,37,0,49,9999,0.100000,0,0,0.000000,6,1.000000,0.000000,13.697141,0,0,0,0,0,0,0
3,39999,90,30000,37,0,40,9999,0.100000,0,0,0.000000,6,0.000000,0.000000,0.426633,0,0,0,0,0,0,0
3,39999,91,30000,37,0,49,9999,0.100000,0,0,0.000000,6,3.000000,0.000000,16.150798,0,0,0,0,0,0,0
3,39999,92,30000,36,10000,40,9999,0.100000,0,0,0.000000,6,0.000000,0.000000,0.363382,0,0,0,0,0,0,0
3,39999,93,30000,29,10000,40,9999,0.100000,0,0,0.000000,6,0.000000,0.000000,0.186264,0,0,0,0,0,0,0
3,39999,94,30000,65,0,49,9999,0.100000,0,0,0.000000,6,1.000000,0.000000,18.056069,0,0,0,0,0,0,0
3,39999,95,30000,36,0,49,9999,0.100000,0,0,0.000000,6,3.000000,0.000000,14.678999,0,0,0,0,0,0,0
3,39999,96,30000,65,0,40,9999,0.100000,0,0,0.000000,6,0.000000,0.000000,0.386340,0,0,0,0,0,0,0
3,39999,97,30000,36,0,40,9999,0.100000,0,0,0.000000,6,0.000000,0.000000,0.739777,0,0,0,0,0,0,0
3,39999,98,30000,12,20000,40,9999,0.100000,0,0,0.000000,6,0.000000,0.000000,6.498676,0,0,0,0,0,0,0
3,39999,99,30000,36,0,40,9999,0.100000,0,0,0.000000,6,0.000000,0.000000,1.643769,0,0,0,0,0,0,0
4,49999,0,40000,29,10000,40,9999,0.100000,0,0,0.000000,6,0.000000,0.000000,0.135505,0,0,0,0,0,0,0
4,49999,1,40000,36,10000,49,9999,0.100000,0,0,0.000000,6,2.000000,0.000000,8.074022,0,0,0,0,0,0,0
4,49999,2,40000,12,20000,40,9999,0.100000,0,0,0.000000,6,0.000000,0.000000,0.239043,0,0,0,0,0,0,0
4,49999,3,40000,37,0,40,9999,0.100000,0,0,0.000000,6,0.000000,0.000000,1.356729,0,0,0,0,0,0,0
4,49999,4,40000,29,10000,49,9999,0.100000,0,0,0.000000,6,1.000000,0.000000,7.604673,0,0,0,0,0,0,0
4,49999,5,40000,37,0,49,9999,0.100000,0,0,0.000000,6,2.000000,0.000000,2.700343,0,0,0,0,0,0,0
4,49999,6,40000,37,0,49,9999,0.100000,0,0,0.000000,6,1.000000,0.000000,7.030939,0,0,0,0,0,0,0
4,49999,7,40000,36,0,49,9999,0.100000,0,0,0.000000,6,2.000000,0.000000,15.480128,0,0,0,0,0,0,0
4,49999,8,40000,37,0,40,9999,0.100000,0,0,0.000000,6,0.000000,0.000000,1.051231,0,0,0,0,0,0,0
4,49999,9,40000,36,10000,40,9999,0.100000,0,0,0.000000,6,0.000000,0.000000,8.567817,0,0,0,0,0,0,0
4,49999,10,30000,6,10000,40,19999,0.100000,0,0,0.000000,6,0.000000,0.000000,0.533154,0,0,0,0,0,0,0
4,49999,11,40000,6,10000,40,9999,0.100000,0,0,0.000000,6,0.000000,0.000000,1.670549,0,0,0,0,0,0,0
4,49999,12,40000,36,10000,40,9999,0.100000,0,0,0.000000,6,0.000000,0.000000,0.455451,0,0,0,0,0,0,0
4,49999,13,40000,36,10000,40,9999,0.100000,0,0,0.000000,6,0.000000,0.000000,1.005390,0,0,0,0,0,0,0
4,49999,14,40000,36,10000,40,9999,0.100000,0,0,0.000000,6,0.000000,0.000000,0.141419,0,0,0,0,0,0,0
4,49999,15,40000,36,0,49,9999,0.100000,0,0,0.000000,6,5.000000,0.000000,8.914145,0,0,0,0,0,0,0
4,49999,16,40000,6,10000,40,9999,0.100000,0,0,0.000000,6,0.000000,0.000000,2.302377,0,0,0,0,0,0,0
4,49999,17,40000,12,20000,49,9999,0.100000,0,0,0.000000,6,2.000000,0.000000,6.283580,0,0,0,0,0,0,0
4,49999,18,40000,36,0,40,9999,0.100000,0,0,0.000000,6,0.000000,0.000000,2.256737,0,0,0,0,0,0,0
4,49999,19,40000,12,20000,40,9999,0.100000,0,0,0.000000,6,0.000000,0.000000,1.440849,0,0,0,0,0,0,0
4,49999,20,40000,36,0,40,9999,0.100000,0,0,0.000000,6,0.000000,0.000000,1.423536,0,0,0,0,0,0,0
4,49999,21,40000,29,10000,49,9999,0.100000,0,0,0.000000,6,1.000000,0.000000,10.795248,0,0,0,0,0,0,0
4,49999,22,40000,36,0,49,9999,0.100000,0,0,0.000000,6,1.000000,0.000000,1.292473,0,0,0,0,0,0,0
4,49999,23,40000,6,10000,49,9999,0.100000,0,0,0.000000,6,3.000000,0.000000,20.679705,0,0,0,0,0,0,0
4,49999,24,40000,29,10000,40,9999,0.100000,0,0,0.000000,6,0.000000,0.000000,0.994265,0,0,0,0,0,0,0
4,49999,25,40000,36,10000,49,9999,0.100000,0,0,0.000000,6,1.000000,0.000000,4.581208,0,0,0,0,0,0,0
4,49999,26,40000,36,0,40,9999,0.100000,0,0,0.000000,6,0.000000,0.000000,1.317461,0,0,0,0,0,0,0
4,49999,27,40000,29,10000,40,9999,0.100000,0,0,0.000000,6,0.000000,0.000000,1.474456,0,0,0,0,0,0,0
4,49999,28,40000,36,0,40,9999,0.100000,0,0,0.000000,6,0.000000,0.000000,1.522135,0,0,0,0,0,0,0
4,49999,29,40000,36,0,40,9999,0.100000,0,0,0.000000,6,0.000000,0.000000,0.280139,0,0,0,0,0,0,0
4,49999,30,40000,29,10000,40,9999,0.100000,0,0,0.000000,6,0.000000,0.000000,1.744062,0,0,0,0,0,0,0
4,49999,31,40000,36,10000,40,9999,0.100000,0,0,0.000000,6,0.000000,0.000000,0.317188,0,0,0,0,0,0,0
4,49999,32,40000,12,20000,49,9999,0.100000,0,0,0.000000,6,1.000000,0.000000,7.990398,0,0,0,0,0,0,0
4,49999,33,40000,12,20000,40,9999,0.100000,0,0,0.000000,6,0.000000,0.000000,0.948920,0,0,0,0,0,0,0
4,49999,34,40000,36,10000,49,9999,0.100000,0,0,0.000000,6,1.000000,0.000000,16.524049,0,0,0,0,0,0,0
4,49999,35,40000,6,10000,40,9999,0.100000,0,0,0.000000,6,0.000000,0.000000,0.541255,0,0,0,0,0,0,0
4,49999,36,40000,37,0,49,9999,0.100000,0,0,0.000000,6,7.000000,0.000000,7.693466,0,0,0,0,0,0,0
4,49999,37,40000,36,10000,40,9999,0.100000,0,0,0.000000,6,0.000000,0.000000,2.486843,0,0,0,0,0,0,0
4,49999,38,40000,29,10000,49,9999,0.100000,0,0,0.000000,6,2.000000,0.000000,4.649523,0,0,0,0,0,0,0
4,49999,39,40000,6,10000,40,9999,0.100000,0,0,0.000000,6,0.000000,0.000000,0.144024,0,0,0,0,0,0,0
4,49999,40,40000,6,10000,40,9999,0.100000,0,0,0.000000,6,0.000000,0.000000,0.241592,0,0,0,0,0,0,0
4,49999,41,40000,37,0,40,9999,0.100000,0,0,0.000000,6,0.000000,0.000000,1.487527,0,0,0,0,0,0,0
4,49999,42,40000,12,20000,49,9999,0.100000,0,0,0.000000,6,3.000000,0.000000,8.138280,0,0,0,0,0,0,0
4,49999,43,40000,29,10000,40,9999,0.100000,0,0,0.000000,6,0.000000,0.000000,0.196132,0,0,0,0,0,0,0
4,49999,44,40000,12,20000,40,9999,0.100000,0,0,0.000000,6,0.000000,0.000000,0.167341,0,0,0,0,0,0,0
4,49999,45,40000,36,10000,49,9999,0.100000,0,0,0.000000,6,1.000000,0.000000,10.437653,0,0,0,0,0,0,0
4,49999,46,40000,36,10000,49,9999,0.100000,0,0,0.000000,6,6.000000,0.000000,8.460919,0,0,0,0,0,0,0
4,49999,47,40000,29,10000,40,9999,0.100000,0,0,0.000000,6,0.000000,0.000000,0.253697,0,0,0,0,0,0,0
4,49999,48,40000,29,10000,49,9999,0.100000,0,0,0.000000,6,6.000000,0.000000,9.244976,0,0,0,0,0,0,0
4,49999,49,40000,37,0,40,9999,0.100000,0,0,0.000000,6,0.000000,0.000000,0.894694,0,0,0,0,0,0,0
4,49999,50,40000,6,10000,49,9999,0.100000,0,0,0.000000,6,3.000000,0.000000,6.577530,0,0,0,0,0,0,0
4,49999,51,40000,29,10000,99,9999,0.100000,0,0,34.210526,6,3.000000,0.000000,12.109106,0,0,1,0,0,0,0
4,49999,52,40000,29,10000,40,9999,0.100000,0,0,0.000000,6,0.000000,0.000000,0.261902,0,0,0,0,0,0,0
4,49999,53,40000,36,10000,40,9999,0.100000,0,0,0.000000,6,0.000000,0.000000,0.233674,0,0,0,0,0,0,0
4,49999,54,40000,36,0,49,9999,0.100000,0,0,0.000000,6,5.000000,0.000000,10.413298,0,0,0,0,0,0,0
4,49999,55,40000,29,10000,49,9999,0.100000,0,0,0.000000,6,2.000000,0.000000,3.758669,0,0,0,0,0,0,0
4,49999,56,40000,6,10000,49,9999,0.100000,0,0,0.000000,6,2.000000,0.000000,7.847538,0,0,0,0,0,0,0
4,49999,57,40000,6,10000,40,9999,0.100000,0,0,0.000000,6,0.000000,0.000000,2.632643,0,0,0,0,0,0,0
4,49999,58,40000,6,10000,49,9999,0.100000,0,0,0.000000,6,2.000000,0.000000,5.060384,0,0,0,0,0,0,0
4,49999,59,40000,12,20000,40,9999,0.100000,0,0,0.000000,6,0.000000,0.000000,0.570759,0,0,0,0,0,0,0
4,49999,60,40000,36,0,40,9999,0.100000,0,0,0.000000,6,0.000000,0.000000,0.939169,0,0,0,0,0,0,0
4,49999,61,40000,6,10000,40,9999,0.100000,0,0,0.000000,6,0.000000,0.000000,2.010359,0,0,0,0,0,0,0
4,49999,62,40000,12,20000,49,9999,0.100000,0,0,0.000000,6,2.000000,0.000000,2.240913,0,0,0,0,0,0,0
4,49999,63,40000,6,10000,40,9999,0.100000,0,0,0.000000,6,0.000000,0.000000,0.371309,0,0,0,0,0,0,0
4,49999,64,40000,6,10000,40,9999,0.100000,0,0,0.000000,6,0.000000,0.000000,3.356970,0,0,0,0,0,0,0
4,49999,65,40000,36,0,40,9999,0.100000,0,0,0.000000,6,0.000000,0.000000,2.610223,0,0,0,0,0,0,0
4,49999,66,40000,37,0,40,9999,0.100000,0,0,0.000000,6,0.000000,0.000000,0.703143,0,0,0,0,0,0,0
4,49999,67,40000,12,20000,40,9999,0.100000,0,0,0.000000,6,0.000000,0.000000,1.566129,0,0,0,0,0,0,0
4,49999,68,40000,6,10000,49,9999,0.100000,0,0,0.000000,6,2.000000,0.000000,5.625619,0,0,0,0,0,0,0
4,49999,69,40000,12,20000,40,9999,0.100000,0,0,0.000000,6,0.000000,0.000000,0.204948,0,0,0,0,0,0,0
4,49999,70,40000,36,0,40,9999,0.100000,0,0,0.000000,6,0.000000,0.000000,0.132164,0,0,0,0,0,0,0
4,49999,71,40000,12,20000,40,9999,0.100000,0,0,0.000000,6,0.000000,0.000000,1.516916,0,0,0,0,0,0,0
4,49999,72,40000,29,10000,40,9999,0.100000,0,0,0.000000,6,0.000000,0.000000,0.120356,0,0,0,0,0,0,0
4,49999,73,40000,36,10000,49,9999,0.100000,0,0,0.000000,6,1.000000,0.000000,12.242077,0,0,0,0,0,0,0
4,49999,74,40000,6,10000,40,9999,0.100000,0,0,0.000000,6,0.000000,0.000000,1.017465,0,0,0,0,0,0,0
4,49999,75,40000,37,0,40,9999,0.100000,0,0,0.000000,6,0.000000,0.000000,0.926074,0,0,0,0,0,0,0
4,49999,76,40000,36,10000,49,9999,0.100000,0,0,0.000000,6,1.000000,0.000000,8.184646,0,0,0,0,0,0,0
4,49999,77,40000,37,0,40,9999,0.100000,0,0,0.000000,6,0.000000,0.000000,11.156008,0,0,0,0,0,0,0
4,49999,78,40000,29,10000,49,9999,0.100000,0,0,0.000000,6,9.000000,0.000000,19.722752,0,0,0,0,0,0,0
4,49999,79,40000,6,10000,40,9999,0.100000,0,0,0.000000,6,0.000000,0.000000,0.834209,0,0,0,0,0,0,0
4,49999,80,40000,12,20000,49,9999,0.100000,0,0,0.000000,6,6.000000,0.000000,13.786438,0,0,0,0,0,0,0
4,49999,81,40000,12,20000,49,9999,0.100000,0,0,0.000000,6,1.000000,0.000000,8.509287,0,0,0,0,0,0,0
4,49999,82,40000,36,0,49,9999,0.100000,0,0,0.000000,6,2.000000,0.000000,12.461149,0,0,0,0,0,0,0
4,49999,83,40000,6,10000,49,9999,0.100000,0,0,0.000000,6,3.000000,0.000000,9.181370,0,0,0,0,0,0,0
4,49999,84,40000,36,10000,49,9999,0.100000,0,0,0.000000,6,5.000000,0.000000,18.611345,0,0,0,0,0,0,0
4,49999,85,40000,37,0,40,9999,0.100000,0,0,0.000000,6,0.000000,0.000000,0.694832,0,0,0,0,0,0,0
4,49999,86,40000,36,10000,49,9999,0.100000,0,0,0.000000,6,1.000000,0.000000,3.451839,0,0,0,0,0,0,0
4,49999,87,40000,29,10000,40,9999,0.100000,0,0,0.000000,6,0.000000,0.000000,0.616956,0,0,0,0,0,0,0
4,49999,88,40000,29,10000,40,9999,0.100000,0,0,0.000000,6,0.000000,0.000000,0.900079,0,0,0,0,0,0,0
4,49999,89,40000,6,10000,40,9999,0.100000,0,0,0.000000,6,0.000000,0.000000,21.864470,0,0,0,0,0,0,0
4,49999,90,40000,12,20000,40,9999,0.100000,0,0,0.000000,6,0.000000,0.000000,0.582935,0,0,0,0,0,0,0
4,49999,91,40000,37,0,49,9999,0.100000,0,0,0.000000,6,1.000000,0.000000,8.775816,0,0,0,0,0,0,0
4,49999,92,40000,37,0,40,9999,0.100000,0,0,0.000000,6,0.000000,0.000000,0.701489,0,0,0,0,0,0,0
4,49999,93,40000,37,0,40,9999,0.100000,0,0,0.000000,6,0.000000,0.000000,0.253343,0,0,0,0,0,0,0
4,49999,94,40000,37,0,49,9999,0.100000,0,0,0.000000,6,1.000000,0.000000,7.161129,0,0,0,0,0,0,0
4,49999,95,40000,6,10000,49,9999,0.100000,0,0,0.000000,6,1.000000,0.000000,14.117679,0,0,0,0,0,0,0
4,49999,96,40000,36,10000,40,9999,0.100000,0,0,0.000000,6,0.000000,0.000000,0.448379,0,0,0,0,0,0,0
4,49999,97,40000,6,10000,49,9999,0.135000,0,0,0.000000,6,1.000000,0.000000,1.709676,0,0,0,0,0,0,0
4,49999,98,40000,29,10000,49,9999,0.100000,0,0,0.000000,6,2.000000,0.000000,8.674891,0,0,0,0,0,0,0
4,49999,99,40000,6,10000,40,9999,0.100000,0,0,0.000000,6,0.000000,0.000000,1.508388,0,0,0,0,0,0,0
5,59999,0,50000,12,20000,40,9999,0.100000,0,0,0.000000,6,0.000000,0.000000,0.138799,0,0,0,0,0,0,0
5,59999,1,50000,36,0,49,9999,0.100000,0,0,0.000000,6,2.000000,0.000000,13.329840,0,0,0,0,0,0,0
5,59999,2,50000,36,10000,40,9999,0.100000,0,0,0.000000,6,0.000000,0.000000,0.276090,0,0,0,0,0,0,0
5,59999,3,40000,37,0,40,19999,0.100000,0,0,0.000000,6,0.000000,0.000000,1.236675,0,0,0,0,0,0,0
5,59999,4,50000,37,0,49,9999,0.100000,0,0,0.000000,6,2.000000,0.000000,11.073801,0,0,0,0,0,0,0
5,59999,5,50000,37,0,40,9999,0.100000,0,0,0.000000,6,0.000000,0.000000,0.697987,0,0,0,0,0,0,0
5,59999,6,50000,36,10000,40,9999,0.100000,0,0,0.000000,6,0.000000,0.000000,7.666338,0,0,0,0,0,0,0
5,59999,7,50000,36,0,49,9999,0.100000,0,0,0.000000,6,2.000000,0.000000,16.589386,0,0,0,0,0,0,0
5,59999,8,50000,12,20000,40,9999,0.100000,0,0,0.000000,6,0.000000,0.000000,1.020309,0,0,0,0,0,0,0
5,59999,9,50000,12,20000,40,9999,0.100000,0,0,0.000000,6,0.000000,0.000000,7.301851,0,0,0,0,0,0,0
5,59999,10,50000,37,0,49,9999,0.100000,0,0,0.000000,6,1.000000,0.000000,1.081624,0,0,0,0,0,0,0
5,59999,11,50000,36,0,40,9999,0.100000,0,0,0.000000,6,0.000000,0.000000,0.963215,0,0,0,0,0,0,0
5,59999,12,50000,36,0,49,9999,0.100000,0,0,0.000000,6,4.000000,0.000000,14.127878,0,0,0,0,0,0,0
5,59999,13,50000,12,30000,40,9999,0.100000,0,0,0.000000,6,0.000000,0.000000,0.939179,0,0,0,0,0,0,0
5,59999,14,50000,12,20000,40,9999,0.100000,0,0,0.000000,6,0.000000,0.000000,0.158296,0,0,0,0,0,0,0
5,59999,15,50000,37,0,40,9999,0.100000,0,0,0.000000,6,0.000000,0.000000,1.000406,0,0,0,0,0,0,0
5,59999,16,50000,36,10000,49,9999,0.100000,0,0,0.000000,6,1.000000,0.000000,2.907517,0,0,0,0,0,0,0
5,59999,17,50000,6,10000,49,9999,0.100000,0,0,0.000000,6,1.000000,0.000000,13.996024,0,0,0,0,0,0,0
5,59999,18,50000,12,20000,40,9999,0.100000,0,0,0.000000,6,0.000000,0.000000,1.743536,0,0,0,0,0,0,0
5,59999,19,50000,6,10000,49,9999,0.100000,0,0,0.000000,6,1.000000,0.000000,2.468124,0,0,0,0,0,0,0
5,59999,20,50000,36,0,40,9999,0.100000,0,0,0.000000,6,0.000000,0.000000,2.087255,0,0,0,0,0,0,0
5,59999,21,50000,6,10000,49,9999,0.100000,0,0,0.000000,6,1.000000,0.000000,5.484479,0,0,0,0,0,0,0
5,59999,22,50000,6,10000,40,9999,0.100000,0,0,0.000000,6,0.000000,0.000000,0.426128,0,0,0,0,0,0,0
5,59999,23,50000,36,10000,49,9999,0.100000,0,0,0.000000,6,1.000000,0.000000,12.568041,0,0,0,0,0,0,0
5,59999,24,50000,36,0,40,9999,0.100000,0,0,0.000000,6,0.000000,0.000000,0.780918,0,0,0,0,0,0,0
5,59999,25,50000,12,30000,40,9999,0.100000,0,0,0.000000,6,0.000000,0.000000,0.416880,0,0,0,0,0,0,0
5,59999,26,50000,12,20000,40,9999,0.100000,0,0,0.000000,6,0.000000,0.000000,1.303562,0,0,0,0,0,0,0
5,59999,27,50000,88,40000,40,9999,0.100000,0,0,0.000000,6,0.000000,0.000000,0.657489,0,0,0,0,0,0,0
5,59999,28,50000,36,10000,40,9999,0.100000,0,0,0.000000,6,0.000000,0.000000,0.958174,0,0,0,0,0,0,0
5,59999,29,50000,12,20000,40,9999,0.100000,0,0,0.000000,6,0.000000,0.000000,0.268785,0,0,0,0,0,0,0
5,59999,30,40000,29,10000,40,19999,0.100000,0,0,0.000000,6,0.000000,0.000000,0.358715,0,0,0,0,0,0,0
5,59999,31,50000,37,0,40,9999,0.100000,0,0,0.000000,6,0.000000,0.000000,0.353938,0,0,0,0,0,0,0
5,59999,32,50000,37,0,40,9999,0.100000,0,0,0.000000,6,0.000000,0.000000,6.275655,0,0,0,0,0,0,0
5,59999,33,50000,6,10000,49,9999,0.100000,0,0,0.000000,6,1.000000,0.000000,19.160979,0,0,0,0,0,0,0
5,59999,34,50000,12,20000,40,9999,0.100000,0,0,0.000000,6,0.000000,0.000000,8.059492,0,0,0,0,0,0,0
5,59999,35,50000,12,30000,49,9999,0.100000,0,0,0.000000,6,1.000000,0.000000,1.166824,0,0,0,0,0,0,0
5,59999,36,50000,36,0,40,9999,0.100000,0,0,0.000000,6,0.000000,0.000000,0.584376,0,0,0,0,0,0,0
5,59999,37,50000,37,0,49,9999,0.100000,0,0,0.000000,6,1.000000,0.000000,2.117357,0,0,0,0,0,0,0
5,59999,38,50000,37,0,40,9999,0.100000,0,0,0.000000,6,0.000000,0.000000,0.765675,0,0,0,0,0,0,0
5,59999,39,50000,12,20000,40,9999,0.100000,0,0,0.000000,6,0.000000,0.000000,0.128393,0,0,0,0,0,0,0
5,59999,40,50000,88,40000,40,9999,0.100000,0,0,0.000000,6,0.000000,0.000000,0.855942,0,0,0,0,0,0,0
5,59999,41,50000,88,40000,40,9999,0.100000,0,0,0.000000,6,0.000000,0.000000,1.558883,0,0,0,0,0,0,0
5,59999,42,50000,12,30000,49,9999,0.100000,0,0,0.000000,6,2.000000,0.000000,7.013963,0,0,0,0,0,0,0
5,59999,43,50000,37,0,40,9999,0.100000,0,0,0.000000,6,0.000000,0.000000,0.232024,0,0,0,0,0,0,0
5,59999,44,50000,12,30000,40,9999,0.100000,0,0,0.000000,6,0.000000,0.000000,0.209887,0,0,0,0,0,0,0
5,59999,45,50000,37,0,49,9999,0.100000,0,0,0.000000,6,1.000000,0.000000,12.536699,0,0,0,0,0,0,0
5,59999,46,50000,6,10000,40,9999,0.100000,0,0,0.000000,6,0.000000,0.000000,0.928024,0,0,0,0,0,0,0
5,59999,47,50000,12,30000,40,9999,0.100000,0,0,0.000000,6,0.000000,0.000000,0.320193,0,0,0,0,0,0,0
5,59999,48,50000,12,30000,49,9999,0.100000,0,0,0.000000,6,1.000000,0.000000,22.878844,0,0,0,0,0,0,0
5,59999,49,50000,37,0,40,9999,0.100000,0,0,0.000000,6,0.000000,0.000000,1.187594,0,0,0,0,0,0,0
5,59999,50,50000,36,10000,49,9999,0.100000,0,0,0.000000,6,1.000000,0.000000,2.834908,0,0,0,0,0,0,0
5,59999,51,50000,37,0,49,9999,0.100000,0,0,0.000000,6,2.000000,0.000000,10.337762,0,0,0,0,0,0,0
5,59999,52,50000,36,0,40,9999,0.100000,0,0,0.000000,6,0.000000,0.000000,0.138519,0,0,0,0,0,0,0
5,59999,53,50000,12,30000,40,9999,0.065000,0,0,0.000000,6,0.000000,0.000000,0.239558,0,0,0,0,0,0,0
5,59999,54,50000,36,10000,49,9999,0.100000,0,0,0.000000,6,16.000000,0.000000,25.293545,0,0,0,0,0,0,0
5,59999,55,50000,12,20000,40,9999,0.100000,0,0,0.000000,6,0.000000,0.000000,0.913447,0,0,0,0,0,0,0
5,59999,56,50000,88,40000,49,9999,0.100000,0,0,0.000000,6,3.000000,0.000000,10.521339,0,0,0,0,0,0,0
5,59999,57,50000,36,10000,49,9999,0.100000,0,0,0.000000,6,5.000000,0.000000,17.244968,0,0,0,0,0,0,0
5,59999,58,50000,36,10000,49,9999,0.100000,0,0,0.000000,6,1.000000,0.000000,7.800601,0,0,0,0,0,0,0
5,59999,59,50000,12,20000,49,9999,0.100000,0,0,0.000000,6,1.000000,0.000000,3.408475,0,0,0,0,0,0,0
5,59999,60,50000,36,10000,40,9999,0.100000,0,0,0.000000,6,0.000000,0.000000,0.876502,0,0,0,0,0,0,0
5,59999,61,50000,6,10000,40,9999,0.065000,0,0,0.000000,6,0.000000,0.000000,0.848464,0,0,0,0,0,0,0
5,59999,62,50000,37,0,40,9999,0.100000,0,0,0.000000,6,0.000000,0.000000,1.738511,0,0,0,0,0,0,0
5,59999,63,50000,37,0,40,9999,0.100000,0,0,0.000000,6,0.000000,0.000000,0.585979,0,0,0,0,0,0,0
5,59999,64,50000,12,20000,40,9999,0.100000,0,0,0.000000,6,0.000000,0.000000,0.986973,0,0,0,0,0,0,0
5,59999,65,50000,36,0,40,9999,0.100000,0,0,0.000000,6,0.000000,0.000000,0.651150,0,0,0,0,0,0,0
5,59999,66,50000,36,10000,49,9999,0.100000,0,0,0.000000,6,1.000000,0.000000,1.227302,0,0,0,0,0,0,0
5,59999,67,50000,36,0,40,9999,0.100000,0,0,0.000000,6,0.000000,0.000000,0.487734,0,0,0,0,0,0,0
5,59999,68,50000,37,0,40,9999,0.100000,0,0,0.000000,6,0.000000,0.000000,0.598321,0,0,0,0,0,0,0
5,59999,69,50000,36,10000,40,9999,0.100000,0,0,0.000000,6,0.000000,0.000000,0.201848,0,0,0,0,0,0,0
5,59999,70,50000,36,10000,40,9999,0.100000,0,0,0.000000,6,0.000000,0.000000,0.133388,0,0,0,0,0,0,0
5,59999,71,50000,12,20000,40,9999,0.100000,0,0,0.000000,6,0.000000,0.000000,1.756688,0,0,0,0,0,0,0
5,59999,72,50000,6,10000,40,9999,0.100000,0,0,0.000000,6,0.000000,0.000000,0.109377,0,0,0,0,0,0,0
5,59999,73,50000,36,10000,49,9999,0.100000,0,0,0.000000,6,2.000000,0.000000,3.917666,0,0,0,0,0,0,0
5,59999,74,50000,37,0,40,9999,0.100000,0,0,0.000000,6,0.000000,0.000000,1.021435,0,0,0,0,0,0,0
5,59999,75,50000,12,20000,40,9999,0.100000,0,0,0.000000,6,0.000000,0.000000,0.981983,0,0,0,0,0,0,0
5,59999,76,50000,12,30000,49,9999,0.100000,0,0,0.000000,6,2.000000,0.000000,5.508779,0,0,0,0,0,0,0
5,59999,77,50000,36,10000,40,9999,0.100000,0,0,0.000000,6,0.000000,0.000000,0.862318,0,0,0,0,0,0,0
5,59999,78,50000,37,0,49,9999,0.100000,0,0,0.000000,6,3.000000,0.000000,3.845250,0,0,0,0,0,0,0
5,59999,79,50000,36,10000,40,9999,0.100000,0,0,0.000000,6,0.000000,0.000000,2.035628,0,0,0,0,0,0,0
5,59999,80,50000,12,30000,49,9999,0.100000,0,0,0.000000,6,6.000000,0.000000,16.235501,0,0,0,0,0,0,0
5,59999,81,50000,12,30000,40,9999,0.100000,0,0,0.000000,6,0.000000,0.000000,6.727553,0,0,0,0,0,0,0
5,59999,82,50000,12,30000,49,9999,0.100000,0,0,0.000000,6,2.000000,0.000000,12.231060,0,0,0,0,0,0,0
5,59999,83,50000,12,20000,40,9999,0.100000,0,0,0.000000,6,0.000000,0.000000,0.725830,0,0,0,0,0,0,0
5,59999,84,50000,6,10000,49,9999,0.100000,0,0,0.000000,6,6.000000,0.000000,17.527921,0,0,0,0,0,0,0
5,59999,85,50000,12,20000,49,9999,0.100000,0,0,0.000000,6,1.000000,0.000000,1.806652,0,0,0,0,0,0,0
5,59999,86,50000,12,20000,40,9999,0.100000,0,0,0.000000,6,0.000000,0.000000,0.793331,0,0,0,0,0,0,0
5,59999,87,50000,6,10000,49,9999,0.100000,0,0,0.000000,6,1.000000,0.000000,1.138395,0,0,0,0,0,0,0
5,59999,88,50000,6,10000,40,9999,0.100000,0,0,0.000000,6,0.000000,0.000000,1.444114,0,0,0,0,0,0,0
5,59999,89,50000,37,0,40,9999,0.100000,0,0,0.000000,6,0.000000,0.000000,8.477797,0,0,0,0,0,0,0
5,59999,90,50000,36,0,40,9999,0.100000,0,0,0.000000,6,0.000000,0.000000,0.143001,0,0,0,0,0,0,0
5,59999,91,50000,37,0,49,9999,0.100000,0,0,0.000000,6,3.000000,0.000000,22.394385,0,0,0,0,0,0,0
5,59999,92,50000,36,0,40,9999,0.100000,0,0,0.000000,6,0.000000,0.000000,0.662720,0,0,0,0,0,0,0
5,59999,93,50000,12,20000,40,9999,0.100000,0,0,0.000000,6,0.000000,0.000000,0.287730,0,0,0,0,0,0,0
5,59999,94,50000,36,0,49,9999,0.100000,0,0,0.000000,6,2.000000,0.000000,11.137929,0,0,0,0,0,0,0
5,59999,95,50000,12,20000,49,9999,0.100000,0,0,0.000000,6,3.000000,0.000000,11.392206,0,0,0,0,0,0,0
5,59999,96,50000,36,0,40,9999,0.100000,0,0,0.000000,6,0.000000,0.000000,0.466308,0,0,0,0,0,0,0
5,59999,97,50000,12,20000,40,9999,0.100000,0,0,0.000000,6,0.000000,0.000000,2.492125,0,0,0,0,0,0,0
5,59999,98,50000,12,30000,49,9999,0.100000,0,0,0.000000,6,1.000000,0.000000,10.486352,0,0,0,0,0,0,0
5,59999,99,50000,12,20000,40,9999,0.100000,0,0,0.000000,6,0.000000,0.000000,1.298228,0,0,0,0,0,0,0
6,69999,0,60000,37,0,40,9999,0.100000,0,0,0.000000,6,0.000000,0.000000,0.127305,0,0,0,0,0,0,0
6,69999,1,60000,6,10000,49,9999,0.100000,0,0,0.000000,6,1.000000,0.000000,6.282413,0,0,0,0,0,0,0
6,69999,2,60000,6,10000,40,9999,0.100000,0,0,0.000000,6,0.000000,0.000000,0.264845,0,0,0,0,0,0,0
6,69999,3,60000,6,10000,40,9999,0.100000,0,0,0.000000,6,0.000000,0.000000,1.648664,0,0,0,0,0,0,0
6,69999,4,60000,12,20000,49,9999,0.100000,0,0,0.000000,6,3.000000,0.000000,12.920867,0,0,0,0,0,0,0
6,69999,5,60000,88,40000,40,9999,0.100000,0,0,0.000000,6,0.000000,0.000000,1.051424,0,0,0,0,0,0,0
6,69999,6,60000,36,10000,40,9999,0.135000,0,0,0.000000,6,0.000000,0.000000,5.248939,0,0,0,0,0,0,0
6,69999,7,60000,36,0,49,9999,0.100000,0,0,0.000000,6,4.000000,0.000000,12.658045,0,0,0,0,0,0,0
6,69999,8,60000,36,10000,40,9999,0.100000,0,0,0.000000,6,0.000000,0.000000,1.288650,0,0,0,0,0,0,0
6,69999,9,60000,36,0,49,9999,0.100000,0,0,0.000000,6,4.000000,0.000000,13.416926,0,0,0,0,0,0,0
6,69999,10,60000,37,0,40,9999,0.100000,0,0,0.000000,6,0.000000,0.000000,0.264118,0,0,0,0,0,0,0
6,69999,11,60000,36,10000,40,9999,0.100000,0,0,0.000000,6,0.000000,0.000000,0.690322,0,0,0,0,0,0,0
6,69999,12,60000,12,20000,49,9999,0.100000,0,0,0.000000,6,4.000000,0.000000,10.984827,0,0,0,0,0,0,0
6,69999,13,60000,36,0,40,9999,0.100000,0,0,0.000000,6,0.000000,0.000000,0.950181,0,0,0,0,0,0,0
6,69999,14,60000,6,10000,40,9999,0.100000,0,0,0.000000,6,0.000000,0.000000,0.228897,0,0,0,0,0,0,0
6,69999,15,60000,36,10000,40,9999,0.100000,0,0,0.000000,6,0.000000,0.000000,1.046522,0,0,0,0,0,0,0
6,69999,16,60000,6,10000,49,9999,0.100000,0,0,0.000000,6,2.000000,0.000000,6.910307,0,0,0,0,0,0,0
6,69999,17,60000,37,0,49,9999,0.100000,0,0,0.000000,6,10.000000,0.000000,14.714650,0,0,0,0,0,0,0
6,69999,18,60000,6,10000,49,9999,0.100000,0,0,0.000000,6,1.000000,0.000000,7.542126,0,0,0,0,0,0,0
6,69999,19,60000,88,40000,49,9999,0.100000,0,0,0.000000,6,2.000000,0.000000,3.492491,0,0,0,0,0,0,0
6,69999,20,60000,36,10000,40,9999,0.100000,0,0,0.000000,6,0.000000,0.000000,2.029620,0,0,0,0,0,0,0
6,69999,21,60000,6,10000,49,9999,0.100000,0,0,0.000000,6,1.000000,0.000000,5.356407,0,0,0,0,0,0,0
6,69999,22,60000,88,40000,40,9999,0.100000,0,0,0.000000,6,0.000000,0.000000,0.539155,0,0,0,0,0,0,0
6,69999,23,60000,36,0,49,9999,0.100000,0,0,0.000000,6,4.000000,0.000000,14.895014,0,0,0,0,0,0,0
6,69999,24,60000,6,10000,40,9999,0.100000,0,0,0.000000,6,0.000000,0.000000,0.496986,0,0,0,0,0,0,0
6,69999,25,60000,12,20000,40,9999,0.100000,0,0,0.000000,6,0.000000,0.000000,0.389777,0,0,0,0,0,0,0
6,69999,26,60000,37,0,40,9999,0.100000,0,0,0.000000,6,0.000000,0.000000,1.349325,0,0,0,0,0,0,0
6,69999,27,60000,88,40000,9,9999,0.100000,0,0,34.210526,6,4.000000,0.000000,7.892427,0,0,0,0,1,0,0
6,69999,28,60000,88,40000,9,9999,0.100000,0,0,34.210526,6,4.000000,0.000000,7.508728,0,0,0,0,1,0,0
6,69999,29,60000,12,20000,40,9999,0.100000,0,0,0.000000,6,0.000000,0.000000,0.276740,0,0,0,0,0,0,0
6,69999,30,60000,36,10000,40,9999,0.100000,0,0,0.000000,6,0.000000,0.000000,0.334752,0,0,0,0,0,0,0
6,69999,31,60000,36,10000,40,9999,0.100000,0,0,0.000000,6,0.000000,0.000000,0.318893,0,0,0,0,0,0,0
6,69999,32,60000,36,10000,49,9999,0.100000,0,0,0.000000,6,1.000000,0.000000,7.960158,0,0,0,0,0,0,0
6,69999,33,60000,88,40000,40,9999,0.100000,0,0,0.000000,6,0.000000,0.000000,23.063979,0,0,0,0,0,0,0
6,69999,34,60000,88,40000,40,9999,0.100000,0,0,0.000000,6,0.000000,0.000000,0.296339,0,0,0,0,0,0,0
6,69999,35,60000,12,20000,49,9999,0.100000,0,0,0.000000,6,2.000000,0.000000,2.970255,0,0,0,0,0,0,0
6,69999,36,60000,12,20000,40,9999,0.100000,0,0,0.000000,6,0.000000,0.000000,1.074449,0,0,0,0,0,0,0
6,69999,37,60000,36,10000,40,9999,0.100000,0,0,0.000000,6,0.000000,0.000000,0.218852,0,0,0,0,0,0,0
6,69999,38,60000,88,40000,40,9999,0.100000,0,0,0.000000,6,0.000000,0.000000,0.801829,0,0,0,0,0,0,0
6,69999,39,60000,37,0,40,9999,0.100000,0,0,0.000000,6,0.000000,0.000000,0.138475,0,0,0,0,0,0,0
6,69999,40,60000,6,10000,40,9999,0.100000,0,0,0.000000,6,0.000000,0.000000,1.084844,0,0,0,0,0,0,0
6,69999,41,60000,36,0,40,9999,0.100000,0,0,0.000000,6,0.000000,0.000000,1.858045,0,0,0,0,0,0,0
6,69999,42,60000,36,10000,49,9999,0.100000,0,0,0.000000,6,4.000000,0.000000,17.231062,0,0,0,0,0,0,0
6,69999,43,60000,36,0,40,9999,0.100000,0,0,0.000000,6,0.000000,0.000000,0.224073,0,0,0,0,0,0,0
6,69999,44,60000,37,0,40,9999,0.100000,0,0,0.000000,6,0.000000,0.000000,0.163157,0,0,0,0,0,0,0
6,69999,45,60000,36,10000,49,9999,0.100000,0,0,0.000000,6,2.000000,0.000000,6.738016,0,0,0,0,0,0,0
6,69999,46,60000,6,10000,40,9999,0.100000,0,0,0.000000,6,0.000000,0.000000,0.622425,0,0,0,0,0,0,0
6,69999,47,60000,12,20000,40,9999,0.100000,0,0,0.000000,6,0.000000,0.000000,0.618412,0,0,0,0,0,0,0
6,69999,48,60000,6,10000,40,9999,0.100000,0,0,0.000000,6,0.000000,0.000000,4.936684,0,0,0,0,0,0,0
6,69999,49,60000,36,0,40,9999,0.100000,0,0,0.000000,6,0.000000,0.000000,0.727015,0,0,0,0,0,0,0
6,69999,50,60000,12,20000,40,9999,0.100000,0,0,0.000000,6,0.000000,0.000000,0.763132,0,0,0,0,0,0,0
6,69999,51,60000,6,10000,49,9999,0.100000,0,0,0.000000,6,1.000000,0.000000,10.640233,0,0,0,0,0,0,0
6,69999,52,60000,12,20000,40,9999,0.100000,0,0,0.000000,6,0.000000,0.000000,0.156400,0,0,0,0,0,0,0
6,69999,53,60000,37,0,40,9999,0.100000,0,0,0.000000,6,0.000000,0.000000,0.238870,0,0,0,0,0,0,0
6,69999,54,60000,12,20000,49,9999,0.100000,0,0,0.000000,6,3.000000,0.000000,14.207749,0,0,0,0,0,0,0
6,69999,55,60000,88,40000,40,9999,0.100000,0,0,0.000000,6,0.000000,0.000000,0.895497,0,0,0,0,0,0,0
6,69999,56,60000,12,20000,40,9999,0.100000,0,0,0.000000,6,0.000000,0.000000,6.702109,0,0,0,0,0,0,0
6,69999,57,60000,36,0,40,9999,0.100000,0,0,0.000000,6,0.000000,0.000000,17.019898,0,0,0,0,0,0,0
6,69999,58,60000,6,10000,40,9999,0.100000,0,0,0.000000,6,0.000000,0.000000,6.395668,0,0,0,0,0,0,0
6,69999,59,60000,37,0,40,9999,0.100000,0,0,0.000000,6,0.000000,0.000000,1.091811,0,0,0,0,0,0,0
6,69999,60,60000,88,40000,40,9999,0.100000,0,0,0.000000,6,0.000000,0.000000,0.910307,0,0,0,0,0,0,0
6,69999,61,60000,6,10000,40,9999,0.100000,0,0,0.000000,6,0.000000,0.000000,0.904427,0,0,0,0,0,0,0
6,69999,62,60000,36,10000,40,9999,0.100000,0,0,0.000000,6,0.000000,0.000000,5.062264,0,0,0,0,0,0,0
6,69999,63,60000,12,20000,40,9999,0.100000,0,0,0.000000,6,0.000000,0.000000,0.934662,0,0,0,0,0,0,0
6,69999,64,60000,6,10000,40,9999,0.100000,0,0,0.000000,6,0.000000,0.000000,1.000259,0,0,0,0,0,0,0
6,69999,65,60000,36,10000,40,9999,0.100000,0,0,0.000000,6,0.000000,0.000000,0.695148,0,0,0,0,0,0,0
6,69999,66,60000,6,10000,40,9999,0.100000,0,0,0.000000,6,0.000000,0.000000,0.442904,0,0,0,0,0,0,0
6,69999,67,60000,12,20000,9,9999,0.100000,0,0,34.210526,6,5.000000,0.000000,7.920522,0,0,0,0,1,0,0
6,69999,68,60000,88,40000,40,9999,0.100000,0,0,0.000000,6,0.000000,0.000000,0.618503,0,0,0,0,0,0,0
6,69999,69,60000,12,20000,40,9999,0.100000,0,0,0.000000,6,0.000000,0.000000,0.198695,0,0,0,0,0,0,0
6,69999,70,60000,36,10000,40,9999,0.100000,0,0,0.000000,6,0.000000,0.000000,0.138090,0,0,0,0,0,0,0
6,69999,71,60000,36,0,40,9999,0.100000,0,0,0.000000,6,0.000000,0.000000,2.067066,0,0,0,0,0,0,0
6,69999,72,60000,12,20000,40,9999,0.100000,0,0,0.000000,6,0.000000,0.000000,0.134451,0,0,0,0,0,0,0
6,69999,73,60000,36,10000,49,9999,0.100000,0,0,0.000000,6,2.000000,0.000000,3.022500,0,0,0,0,0,0,0
6,69999,74,60000,37,0,40,9999,0.100000,0,0,0.000000,6,0.000000,0.000000,0.987890,0,0,0,0,0,0,0
6,69999,75,60000,12,20000,40,9999,0.100000,0,0,0.000000,6,0.000000,0.000000,1.186677,0,0,0,0,0,0,0
6,69999,76,60000,88,40000,40,9999,0.100000,0,0,0.000000,6,0.000000,0.000000,1.027441,0,0,0,0,0,0,0
6,69999,77,60000,88,40000,40,9999,0.100000,0,0,0.000000,6,0.000000,0.000000,0.775839,0,0,0,0,0,0,0
6,69999,78,60000,6,10000,40,9999,0.100000,0,0,0.000000,6,0.000000,0.000000,0.222673,0,0,0,0,0,0,0
6,69999,79,60000,6,10000,40,9999,0.100000,0,0,0.000000,6,0.000000,0.000000,0.350961,0,0,0,0,0,0,0
6,69999,80,60000,6,10000,49,9999,0.100000,0,0,0.000000,6,1.000000,0.000000,9.781116,0,0,0,0,0,0,0
6,69999,81,60000,12,20000,49,9999,0.100000,0,0,0.000000,6,2.000000,0.000000,6.959320,0,0,0,0,0,0,0
6,69999,82,60000,37,0,49,9999,0.100000,0,0,0.000000,6,1.000000,0.000000,9.559909,0,0,0,0,0,0,0
6,69999,83,60000,36,0,40,9999,0.100000,0,0,0.000000,6,0.000000,0.000000,1.104165,0,0,0,0,0,0,0
6,69999,84,60000,12,20000,49,9999,0.100000,0,0,0.000000,6,2.000000,0.000000,15.392148,0,0,0,0,0,0,0
6,69999,85,60000,37,0,49,9999,0.100000,0,0,0.000000,6,2.000000,0.000000,2.679203,0,0,0,0,0,0,0
6,69999,86,60000,36,0,40,9999,0.100000,0,0,0.000000,6,0.000000,0.000000,0.825387,0,0,0,0,0,0,0
6,69999,87,60000,36,0,40,9999,0.100000,0,0,0.000000,6,0.000000,0.000000,0.176782,0,0,0,0,0,0,0
6,69999,88,60000,36,10000,40,9999,0.100000,0,0,0.000000,6,0.000000,0.000000,4.619970,0,0,0,0,0,0,0
6,69999,89,60000,12,20000,40,9999,0.100000,0,0,0.000000,6,0.000000,0.000000,2.439155,0,0,0,0,0,0,0
6,69999,90,60000,36,0,40,9999,0.100000,0,0,0.000000,6,0.000000,0.000000,0.137950,0,0,0,0,0,0,0
6,69999,91,60000,12,20000,49,9999,0.100000,0,0,0.000000,6,2.000000,0.000000,6.257131,0,0,0,0,0,0,0
6,69999,92,60000,88,40000,40,9999,0.100000,0,0,0.000000,6,0.000000,0.000000,0.655552,0,0,0,0,0,0,0
6,69999,93,60000,37,0,40,9999,0.100000,0,0,0.000000,6,0.000000,0.000000,0.274857,0,0,0,0,0,0,0
6,69999,94,60000,36,0,49,9999,0.100000,0,0,0.000000,6,2.000000,0.000000,14.759773,0,0,0,0,0,0,0
6,69999,95,60000,36,0,49,9999,0.100000,0,0,0.000000,6,4.000000,0.000000,9.237445,0,0,0,0,0,0,0
6,69999,96,60000,36,10000,40,9999,0.100000,0,0,0.000000,6,0.000000,0.000000,0.444711,0,0,0,0,0,0,0
6,69999,97,60000,36,0,40,9999,0.100000,0,0,0.000000,6,0.000000,0.000000,2.340883,0,0,0,0,0,0,0
6,69999,98,60000,37,0,49,9999,0.100000,0,0,0.000000,6,1.000000,0.000000,6.324391,0,0,0,0,0,0,0
6,69999,99,60000,12,20000,49,9999,0.100000,0,0,0.000000,6,1.000000,0.000000,3.519284,0,0,0,0,0,0,0
7,79999,0,70000,6,10000,40,9999,0.100000,0,0,0.000000,6,0.000000,0.000000,0.138006,0,0,0,0,0,0,0
7,79999,1,70000,36,0,49,9999,0.100000,0,0,0.000000,6,4.000000,0.000000,13.764856,0,0,0,0,0,0,0
7,79999,2,70000,36,10000,40,9999,0.100000,0,0,0.000000,6,0.000000,0.000000,0.344844,0,0,0,0,0,0,0
7,79999,3,70000,12,20000,40,9999,0.100000,0,0,0.000000,6,0.000000,0.000000,1.999772,0,0,0,0,0,0,0
7,79999,4,70000,36,0,49,9999,0.100000,0,0,0.000000,6,3.000000,0.000000,13.839021,0,0,0,0,0,0,0
7,79999,5,70000,36,10000,40,9999,0.100000,0,0,0.000000,6,0.000000,0.000000,1.299672,0,0,0,0,0,0,0
7,79999,6,70000,12,20000,40,9999,0.100000,0,0,0.000000,6,0.000000,0.000000,6.700577,0,0,0,0,0,0,0
7,79999,7,70000,37,0,49,9999,0.100000,0,0,0.000000,6,1.000000,0.000000,12.158637,0,0,0,0,0,0,0
7,79999,8,70000,6,10000,40,9999,0.100000,0,0,0.000000,6,0.000000,0.000000,1.121119,0,0,0,0,0,0,0
7,79999,9,70000,36,10000,49,9999,0.100000,0,0,0.000000,6,2.000000,0.000000,7.030882,0,0,0,0,0,0,0
7,79999,10,70000,36,0,40,9999,0.100000,0,0,0.000000,6,0.000000,0.000000,0.308961,0,0,0,0,0,0,0
7,79999,11,70000,88,40000,49,9999,0.100000,0,0,0.000000,6,1.000000,0.000000,2.224684,0,0,0,0,0,0,0
7,79999,12,70000,12,20000,49,9999,0.100000,0,0,0.000000,6,1.000000,0.000000,9.480879,0,0,0,0,0,0,0
7,79999,13,70000,36,10000,40,9999,0.100000,0,0,0.000000,6,0.000000,0.000000,0.928664,0,0,0,0,0,0,0
7,79999,14,70000,6,10000,40,9999,0.100000,0,0,0.000000,6,0.000000,0.000000,0.373616,0,0,0,0,0,0,0
7,79999,15,70000,36,10000,40,9999,0.100000,0,0,0.000000,6,0.000000,0.000000,1.017409,0,0,0,0,0,0,0
7,79999,16,70000,36,0,40,9999,0.100000,0,0,0.000000,6,0.000000,0.000000,18.598593,0,0,0,0,0,0,0
7,79999,17,70000,36,0,40,9999,0.100000,0,0,0.000000,6,0.000000,0.000000,1.374486,0,0,0,0,0,0,0
7,79999,18,70000,6,10000,49,9999,0.100000,0,0,0.000000,6,1.000000,0.000000,12.640833,0,0,0,0,0,0,0
7,79999,19,70000,6,10000,40,9999,0.100000,0,0,0.000000,6,0.000000,0.000000,1.665562,0,0,0,0,0,0,0
7,79999,20,70000,36,0,49,9999,0.100000,0,0,0.000000,6,1.000000,0.000000,1.618512,0,0,0,0,0,0,0
7,79999,21,70000,36,0,49,9999,0.100000,0,0,0.000000,6,2.000000,0.000000,8.173322,0,0,0,0,0,0,0
7,79999,22,70000,37,0,40,9999,0.100000,0,0,0.000000,6,0.000000,0.000000,0.299002,0,0,0,0,0,0,0
7,79999,23,70000,12,20000,49,9999,0.100000,0,0,0.000000,6,1.000000,0.000000,9.854387,0,0,0,0,0,0,0
7,79999,24,70000,36,10000,40,9999,0.100000,0,0,0.000000,6,0.000000,0.000000,0.517039,0,0,0,0,0,0,0
7,79999,25,70000,36,10000,40,9999,0.100000,0,0,0.000000,6,0.000000,0.000000,0.378675,0,0,0,0,0,0,0
7,79999,26,70000,37,0,40,9999,0.100000,0,0,0.000000,6,0.000000,0.000000,1.499503,0,0,0,0,0,0,0
7,79999,27,70000,6,10000,49,9999,0.100000,0,0,0.000000,6,1.000000,0.000000,7.305941,0,0,0,0,0,0,0
7,79999,28,70000,37,0,49,9999,0.100000,0,0,0.000000,6,2.000000,0.000000,9.088505,0,0,0,0,0,0,0
7,79999,29,70000,36,10000,40,9999,0.100000,0,0,0.000000,6,0.000000,0.000000,0.813143,0,0,0,0,0,0,0
7,79999,30,70000,37,0,40,9999,0.100000,0,0,0.000000,6,0.000000,0.000000,0.327943,0,0,0,0,0,0,0
7,79999,31,70000,6,10000,40,9999,0.100000,0,0,0.000000,6,0.000000,0.000000,0.344335,0,0,0,0,0,0,0
7,79999,32,70000,6,10000,49,9999,0.100000,0,0,0.000000,6,2.000000,0.000000,7.454463,0,0,0,0,0,0,0
7,79999,33,70000,37,0,40,9999,0.100000,0,0,0.000000,6,0.000000,0.000000,22.201096,0,0,0,0,0,0,0
7,79999,34,70000,12,20000,40,9999,0.100000,0,0,0.000000,6,0.000000,0.000000,0.135938,0,0,0,0,0,0,0
7,79999,35,70000,12,20000,40,9999,0.100000,0,0,0.000000,6,0.000000,0.000000,1.068624,0,0,0,0,0,0,0
7,79999,36,70000,37,0,40,9999,0.100000,0,0,0.000000,6,0.000000,0.000000,1.700422,0,0,0,0,0,0,0
7,79999,37,70000,36,10000,40,9999,0.100000,0,0,0.000000,6,0.000000,0.000000,0.247922,0,0,0,0,0,0,0
7,79999,38,70000,36,10000,40,9999,0.100000,0,0,0.000000,6,0.000000,0.000000,0.801353,0,0,0,0,0,0,0
7,79999,39,70000,12,20000,40,9999,0.100000,0,0,0.000000,6,0.000000,0.000000,0.156881,0,0,0,0,0,0,0
7,79999,40,70000,88,40000,40,9999,0.100000,0,0,0.000000,6,0.000000,0.000000,1.581965,0,0,0,0,0,0,0
7,79999,41,70000,88,40000,40,9999,0.100000,0,0,0.000000,6,0.000000,0.000000,1.809483,0,0,0,0,0,0,0
7,79999,42,70000,12,20000,49,9999,0.100000,0,0,0.000000,6,2.000000,0.000000,10.382782,0,0,0,0,0,0,0
7,79999,43,70000,12,20000,40,9999,0.100000,0,0,0.000000,6,0.000000,0.000000,0.305896,0,0,0,0,0,0,0
7,79999,44,70000,12,20000,40,9999,0.100000,0,0,0.000000,6,0.000000,0.000000,0.105969,0,0,0,0,0,0,0
7,79999,45,70000,37,0,40,9999,0.100000,0,0,0.000000,6,0.000000,0.000000,1.778677,0,0,0,0,0,0,0
7,79999,46,70000,37,0,40,9999,0.100000,0,0,0.000000,6,0.000000,0.000000,0.640542,0,0,0,0,0,0,0
7,79999,47,70000,6,10000,40,9999,0.100000,0,0,0.000000,6,0.000000,0.000000,1.382056,0,0,0,0,0,0,0
7,79999,48,70000,6,10000,40,9999,0.100000,0,0,0.000000,6,0.000000,0.000000,9.893416,0,0,0,0,0,0,0
7,79999,49,70000,36,10000,49,9999,0.100000,0,0,0.000000,6,1.000000,0.000000,1.056388,0,0,0,0,0,0,0
7,79999,50,70000,88,40000,40,9999,0.100000,0,0,0.000000,6,0.000000,0.000000,0.769384,0,0,0,0,0,0,0
7,79999,51,70000,88,40000,49,9999,0.100000,0,0,0.000000,6,4.000000,0.000000,7.199462,0,0,0,0,0,0,0
7,79999,52,70000,37,0,40,9999,0.100000,0,0,0.000000,6,0.000000,0.000000,0.370803,0,0,0,0,0,0,0
7,79999,53,70000,88,40000,40,9999,0.100000,0,0,0.000000,6,0.000000,0.000000,0.237098,0,0,0,0,0,0,0
7,79999,54,70000,6,10000,40,9999,0.100000,0,0,0.000000,6,0.000000,0.000000,1.892087,0,0,0,0,0,0,0
7,79999,55,70000,88,40000,40,9999,0.065000,0,0,0.000000,6,0.000000,0.000000,0.960494,0,0,0,0,0,0,0
7,79999,56,70000,36,0,49,9999,0.100000,0,0,0.000000,6,3.000000,0.000000,13.112545,0,0,0,0,0,0,0
7,79999,57,70000,36,10000,40,9999,0.100000,0,0,0.000000,6,0.000000,0.000000,1.999983,0,0,0,0,0,0,0
7,79999,58,70000,37,0,40,9999,0.100000,0,0,0.000000,6,0.000000,0.000000,3.526047,0,0,0,0,0,0,0
7,79999,59,70000,37,0,40,9999,0.100000,0,0,0.000000,6,0.000000,0.000000,1.107501,0,0,0,0,0,0,0
7,79999,60,70000,36,10000,40,9999,0.100000,0,0,0.000000,6,0.000000,0.000000,0.549669,0,0,0,0,0,0,0
7,79999,61,70000,88,40000,40,9999,0.100000,0,0,0.000000,6,0.000000,0.000000,0.880793,0,0,0,0,0,0,0
7,79999,62,70000,12,20000,40,9999,0.100000,0,0,0.000000,6,0.000000,0.000000,2.321505,0,0,0,0,0,0,0
7,79999,63,70000,12,20000,49,9999,0.100000,0,0,0.000000,6,1.000000,0.000000,1.164925,0,0,0,0,0,0,0
7,79999,64,70000,36,10000,40,9999,0.100000,0,0,0.000000,6,0.000000,0.000000,1.023424,0,0,0,0,0,0,0
7,79999,65,70000,6,10000,40,9999,0.100000,0,0,0.000000,6,0.000000,0.000000,0.700768,0,0,0,0,0,0,0
7,79999,66,70000,6,10000,40,9999,0.100000,0,0,0.000000,6,0.000000,0.000000,0.502314,0,0,0,0,0,0,0
7,79999,67,70000,12,20000,49,9999,0.100000,0,0,0.000000,6,1.000000,0.000000,7.009260,0,0,0,0,0,0,0
7,79999,68,70000,6,10000,40,9999,0.100000,0,0,0.000000,6,0.000000,0.000000,0.624829,0,0,0,0,0,0,0
7,79999,69,70000,6,10000,40,9999,0.100000,0,0,0.000000,6,0.000000,0.000000,0.203443,0,0,0,0,0,0,0
7,79999,70,70000,37,0,40,9999,0.100000,0,0,0.000000,6,0.000000,0.000000,0.133252,0,0,0,0,0,0,0
7,79999,71,70000,88,40000,40,9999,0.100000,0,0,0.000000,6,0.000000,0.000000,19.446106,0,0,0,0,0,0,0
7,79999,72,70000,36,0,40,9999,0.100000,0,0,0.000000,6,0.000000,0.000000,0.142331,0,0,0,0,0,0,0
7,79999,73,70000,12,20000,40,9999,0.100000,0,0,0.000000,6,0.000000,0.000000,2.029819,0,0,0,0,0,0,0
7,79999,74,70000,6,10000,40,9999,0.100000,0,0,0.000000,6,0.000000,0.000000,1.030438,0,0,0,0,0,0,0
7,79999,75,70000,36,0,40,9999,0.100000,0,0,0.000000,6,0.000000,0.000000,0.890446,0,0,0,0,0,0,0
7,79999,76,70000,36,10000,40,9999,0.100000,0,0,0.000000,6,0.000000,0.000000,0.976346,0,0,0,0,0,0,0
7,79999,77,70000,36,10000,49,9999,0.100000,0,0,0.000000,6,1.000000,0.000000,1.414404,0,0,0,0,0,0,0
7,79999,78,70000,6,10000,40,9999,0.100000,0,0,0.000000,6,0.000000,0.000000,0.225382,0,0,0,0,0,0,0
7,79999,79,70000,88,40000,49,9999,0.100000,0,0,0.000000,6,5.000000,0.000000,13.773869,0,0,0,0,0,0,0
7,79999,80,70000,12,20000,40,9999,0.100000,0,0,0.000000,6,0.000000,0.000000,5.486689,0,0,0,0,0,0,0
7,79999,81,70000,12,20000,49,9999,0.100000,0,0,0.000000,6,1.000000,0.000000,6.729359,0,0,0,0,0,0,0
7,79999,82,70000,88,40000,49,9999,0.100000,0,0,0.000000,6,2.000000,0.000000,15.608900,0,0,0,0,0,0,0
7,79999,83,70000,36,0,40,9999,0.100000,0,0,0.000000,6,0.000000,0.000000,2.268087,0,0,0,0,0,0,0
7,79999,84,70000,6,10000,49,9999,0.100000,0,0,0.000000,6,1.000000,0.000000,5.865424,0,0,0,0,0,0,0
7,79999,85,70000,37,0,40,9999,0.100000,0,0,0.000000,6,0.000000,0.000000,1.155115,0,0,0,0,0,0,0
7,79999,86,70000,36,0,40,9999,0.100000,0,0,0.000000,6,0.000000,0.000000,0.801666,0,0,0,0,0,0,0
7,79999,87,70000,12,20000,40,9999,0.100000,0,0,0.000000,6,0.000000,0.000000,0.197752,0,0,0,0,0,0,0
7,79999,88,70000,36,10000,40,9999,0.100000,0,0,0.000000,6,0.000000,0.000000,1.867459,0,0,0,0,0,0,0
7,79999,89,70000,36,10000,40,9999,0.100000,0,0,0.000000,6,0.000000,0.000000,19.316416,0,0,0,0,0,0,0
7,79999,90,70000,88,40000,40,9999,0.100000,0,0,0.000000,6,0.000000,0.000000,0.141157,0,0,0,0,0,0,0
7,79999,91,70000,36,0,40,9999,0.100000,0,0,0.000000,6,0.000000,0.000000,2.953311,0,0,0,0,0,0,0
7,79999,92,70000,6,10000,40,9999,0.100000,0,0,0.000000,6,0.000000,0.000000,0.942550,0,0,0,0,0,0,0
7,79999,93,70000,36,0,40,9999,0.100000,0,0,0.000000,6,0.000000,0.000000,0.259273,0,0,0,0,0,0,0
7,79999,94,70000,37,0,40,9999,0.100000,0,0,0.000000,6,0.000000,0.000000,3.374431,0,0,0,0,0,0,0
7,79999,95,70000,12,20000,40,9999,0.100000,0,0,0.000000,6,0.000000,0.000000,0.126569,0,0,0,0,0,0,0
7,79999,96,70000,12,20000,40,9999,0.100000,0,0,0.000000,6,0.000000,0.000000,0.510652,0,0,0,0,0,0,0
7,79999,97,70000,12,20000,40,9999,0.100000,0,0,0.000000,6,0.000000,0.000000,0.667785,0,0,0,0,0,0,0
7,79999,98,70000,36,0,40,9999,0.100000,0,0,0.000000,6,0.000000,0.000000,7.618671,0,0,0,0,0,0,0
7,79999,99,70000,6,10000,40,9999,0.100000,0,0,0.000000,6,0.000000,0.000000,25.100660,0,0,0,0,0,0,0
8,89999,0,80000,37,0,40,9999,0.100000,0,0,0.000000,6,0.000000,0.000000,0.378496,0,0,0,0,0,0,0
8,89999,1,80000,88,40000,49,9999,0.100000,0,0,0.000000,6,1.000000,0.000000,17.251364,0,0,0,0,0,0,0
8,89999,2,80000,12,20000,40,9999,0.100000,0,0,0.000000,6,0.000000,0.000000,0.762271,0,0,0,0,0,0,0
8,89999,3,80000,88,40000,40,9999,0.100000,0,0,0.000000,6,0.000000,0.000000,1.649415,0,0,0,0,0,0,0
8,89999,4,80000,36,10000,49,9999,0.100000,0,0,0.000000,6,13.000000,0.000000,14.845381,0,0,0,0,0,0,0
8,89999,5,80000,12,20000,40,9999,0.100000,0,0,0.000000,6,0.000000,0.000000,1.256422,0,0,0,0,0,0,0
8,89999,6,80000,36,10000,40,9999,0.100000,0,0,0.000000,6,0.000000,0.000000,5.297542,0,0,0,0,0,0,0
8,89999,7,80000,6,10000,40,9999,0.100000,0,0,0.000000,6,0.000000,0.000000,9.002418,0,0,0,0,0,0,0
8,89999,8,80000,37,0,40,9999,0.100000,0,0,0.000000,6,0.000000,0.000000,1.079283,0,0,0,0,0,0,0
8,89999,9,80000,12,20000,49,9999,0.100000,0,0,0.000000,6,1.000000,0.000000,6.982335,0,0,0,0,0,0,0
8,89999,10,80000,6,10000,40,9999,0.100000,0,0,0.000000,6,0.000000,0.000000,0.286874,0,0,0,0,0,0,0
8,89999,11,80000,36,10000,49,9999,0.100000,0,0,0.000000,6,1.000000,0.000000,6.716636,0,0,0,0,0,0,0
8,89999,12,80000,36,10000,49,9999,0.100000,0,0,0.000000,6,1.000000,0.000000,9.311609,0,0,0,0,0,0,0
8,89999,13,70000,36,10000,49,19999,0.100000,0,0,0.000000,6,4.000000,0.000000,12.072227,0,0,0,0,0,0,0
8,89999,14,80000,6,10000,40,9999,0.100000,0,0,0.000000,6,0.000000,0.000000,0.384139,0,0,0,0,0,0,0
8,89999,15,80000,6,10000,40,9999,0.100000,0,0,0.000000,6,0.000000,0.000000,1.011633,0,0,0,0,0,0,0
8,89999,16,80000,12,20000,40,9999,0.100000,0,0,0.000000,6,0.000000,0.000000,10.282866,0,0,0,0,0,0,0
8,89999,17,80000,12,20000,40,9999,0.100000,0,0,0.000000,6,0.000000,0.000000,0.138037,0,0,0,0,0,0,0
8,89999,18,80000,12,20000,49,9999,0.100000,0,0,0.000000,6,2.000000,0.000000,7.657475,0,0,0,0,0,0,0
8,89999,19,80000,36,10000,40,9999,0.100000,0,0,0.000000,6,0.000000,0.000000,0.814425,0,0,0,0,0,0,0
8,89999,20,80000,36,0,40,9999,0.100000,0,0,0.000000,6,0.000000,0.000000,1.474075,0,0,0,0,0,0,0
8,89999,21,80000,36,10000,49,9999,0.100000,0,0,0.000000,6,5.000000,0.000000,17.319596,0,0,0,0,0,0,0
8,89999,22,80000,88,40000,40,9999,0.100000,0,0,0.000000,6,0.000000,0.000000,0.312006,0,0,0,0,0,0,0
8,89999,23,80000,37,0,40,9999,0.100000,0,0,0.000000,6,0.000000,0.000000,6.489102,0,0,0,0,0,0,0
8,89999,24,80000,6,10000,40,9999,0.100000,0,0,0.000000,6,0.000000,0.000000,0.534648,0,0,0,0,0,0,0
8,89999,25,80000,12,20000,49,9999,0.100000,0,0,0.000000,6,4.000000,0.000000,13.285159,0,0,0,0,0,0,0
8,89999,26,80000,37,0,40,9999,0.100000,0,0,0.000000,6,0.000000,0.000000,0.910338,0,0,0,0,0,0,0
8,89999,27,80000,12,20000,49,9999,0.100000,0,0,0.000000,6,6.000000,0.000000,12.700273,0,0,0,0,0,0,0
8,89999,28,80000,37,0,49,9999,0.100000,0,0,0.000000,6,2.000000,0.000000,12.781378,0,0,0,0,0,0,0
8,89999,29,80000,36,10000,40,9999,0.100000,0,0,0.000000,6,0.000000,0.000000,0.706281,0,0,0,0,0,0,0
8,89999,30,80000,37,0,49,9999,0.100000,0,0,0.000000,6,3.000000,0.000000,12.782470,0,0,0,0,0,0,0
8,89999,31,80000,37,0,40,9999,0.100000,0,0,0.000000,6,0.000000,0.000000,0.645881,0,0,0,0,0,0,0
8,89999,32,80000,36,10000,49,9999,0.100000,0,0,0.000000,6,3.000000,0.000000,9.189464,0,0,0,0,0,0,0
8,89999,33,80000,88,40000,40,9999,0.100000,0,0,0.000000,6,0.000000,0.000000,22.386370,0,0,0,0,0,0,0
8,89999,34,80000,36,10000,40,9999,0.100000,0,0,0.000000,6,0.000000,0.000000,0.136884,0,0,0,0,0,0,0
8,89999,35,80000,88,40000,40,9999,0.100000,0,0,0.000000,6,0.000000,0.000000,0.871778,0,0,0,0,0,0,0
8,89999,36,80000,12,20000,40,9999,0.100000,0,0,0.000000,6,0.000000,0.000000,1.427863,0,0,0,0,0,0,0
8,89999,37,80000,12,20000,40,9999,0.100000,0,0,0.000000,6,0.000000,0.000000,0.175496,0,0,0,0,0,0,0
8,89999,38,80000,6,10000,40,9999,0.065000,0,0,0.000000,6,0.000000,0.000000,0.845174,0,0,0,0,0,0,0
8,89999,39,80000,37,0,40,9999,0.100000,0,0,0.000000,6,0.000000,0.000000,0.223526,0,0,0,0,0,0,0
8,89999,40,80000,6,10000,40,9999,0.100000,0,0,0.000000,6,0.000000,0.000000,0.583753,0,0,0,0,0,0,0
8,89999,41,80000,36,10000,40,9999,0.100000,0,0,0.000000,6,0.000000,0.000000,1.306627,0,0,0,0,0,0,0
8,89999,42,80000,88,40000,49,9999,0.100000,0,0,0.000000,6,7.000000,0.000000,7.954623,0,0,0,0,0,0,0
8,89999,43,80000,36,10000,40,9999,0.065000,0,0,0.000000,6,0.000000,0.000000,0.524680,0,0,0,0,0,0,0
8,89999,44,80000,6,10000,40,9999,0.100000,0,0,0.000000,6,0.000000,0.000000,0.138486,0,0,0,0,0,0,0
8,89999,45,80000,6,10000,40,9999,0.100000,0,0,0.000000,6,0.000000,0.000000,4.113186,0,0,0,0,0,0,0
8,89999,46,80000,36,0,40,9999,0.100000,0,0,0.000000,6,0.000000,0.000000,0.639152,0,0,0,0,0,0,0
8,89999,47,80000,36,0,40,9999,0.100000,0,0,0.000000,6,0.000000,0.000000,0.343444,0,0,0,0,0,0,0
8,89999,48,80000,12,20000,40,9999,0.100000,0,0,0.000000,6,0.000000,0.000000,10.178417,0,0,0,0,0,0,0
8,89999,49,80000,88,40000,40,9999,0.100000,0,0,0.000000,6,0.000000,0.000000,0.797687,0,0,0,0,0,0,0
8,89999,50,80000,36,0,40,9999,0.100000,0,0,0.000000,6,0.000000,0.000000,0.755465,0,0,0,0,0,0,0
8,89999,51,80000,36,0,49,9999,0.100000,0,0,0.000000,6,1.000000,0.000000,7.691066,0,0,0,0,0,0,0
8,89999,52,80000,36,10000,40,9999,0.100000,0,0,0.000000,6,0.000000,0.000000,0.137227,0,0,0,0,0,0,0
8,89999,53,80000,12,20000,40,9999,0.100000,0,0,0.000000,6,0.000000,0.000000,0.239054,0,0,0,0,0,0,0
8,89999,54,80000,36,0,40,9999,0.100000,0,0,0.000000,6,0.000000,0.000000,2.046359,0,0,0,0,0,0,0
8,89999,55,80000,12,20000,40,9999,0.100000,0,0,0.000000,6,0.000000,0.000000,0.942187,0,0,0,0,0,0,0
8,89999,56,80000,36,10000,49,9999,0.100000,0,0,0.000000,6,1.000000,0.000000,5.680427,0,0,0,0,0,0,0
8,89999,57,80000,6,10000,40,9999,0.100000,0,0,0.000000,6,0.000000,0.000000,1.408753,0,0,0,0,0,0,0
8,89999,58,80000,37,0,40,9999,0.100000,0,0,0.000000,6,0.000000,0.000000,4.359164,0,0,0,0,0,0,0
8,89999,59,80000,6,10000,40,9999,0.100000,0,0,0.000000,6,0.000000,0.000000,1.076914,0,0,0,0,0,0,0
8,89999,60,80000,36,10000,40,9999,0.100000,0,0,0.000000,6,0.000000,0.000000,0.768534,0,0,0,0,0,0,0
8,89999,61,80000,88,40000,40,9999,0.100000,0,0,0.000000,6,0.000000,0.000000,0.863689,0,0,0,0,0,0,0
8,89999,62,80000,37,0,40,9999,0.100000,0,0,0.000000,6,0.000000,0.000000,2.214274,0,0,0,0,0,0,0
8,89999,63,80000,88,40000,40,9999,0.100000,0,0,0.000000,6,0.000000,0.000000,0.596102,0,0,0,0,0,0,0
8,89999,64,80000,6,10000,40,9999,0.100000,0,0,0.000000,6,0.000000,0.000000,1.015779,0,0,0,0,0,0,0
8,89999,65,80000,12,20000,40,9999,0.100000,0,0,0.000000,6,0.000000,0.000000,0.680334,0,0,0,0,0,0,0
8,89999,66,80000,12,20000,40,9999,0.100000,0,0,0.000000,6,0.000000,0.000000,0.377818,0,0,0,0,0,0,0
8,89999,67,80000,36,10000,49,9999,0.100000,0,0,0.000000,6,3.000000,0.000000,13.984260,0,0,0,0,0,0,0
8,89999,68,80000,6,10000,40,9999,0.100000,0,0,0.000000,6,0.000000,0.000000,0.649715,0,0,0,0,0,0,0
8,89999,69,80000,36,0,40,9999,0.100000,0,0,0.000000,6,0.000000,0.000000,0.207452,0,0,0,0,0,0,0
8,89999,70,80000,37,0,40,9999,0.100000,0,0,0.000000,6,0.000000,0.000000,0.144179,0,0,0,0,0,0,0
8,89999,71,80000,6,10000,40,9999,0.100000,0,0,0.000000,6,0.000000,0.000000,7.026986,0,0,0,0,0,0,0
8,89999,72,80000,37,0,40,9999,0.100000,0,0,0.000000,6,0.000000,0.000000,0.196158,0,0,0,0,0,0,0
8,89999,73,80000,6,10000,40,9999,0.100000,0,0,0.000000,6,0.000000,0.000000,1.378061,0,0,0,0,0,0,0
8,89999,74,80000,88,40000,40,9999,0.100000,0,0,0.000000,6,0.000000,0.000000,1.015310,0,0,0,0,0,0,0
8,89999,75,80000,12,20000,40,9999,0.100000,0,0,0.000000,6,0.000000,0.000000,0.857500,0,0,0,0,0,0,0
8,89999,76,80000,88,40000,40,9999,0.100000,0,0,0.000000,6,0.000000,0.000000,1.491909,0,0,0,0,0,0,0
8,89999,77,80000,12,20000,40,9999,0.100000,0,0,0.000000,6,0.000000,0.000000,1.067985,0,0,0,0,0,0,0
8,89999,78,80000,88,40000,40,9999,0.100000,0,0,0.000000,6,0.000000,0.000000,0.226454,0,0,0,0,0,0,0
8,89999,79,80000,37,0,49,9999,0.100000,0,0,0.000000,6,1.000000,0.000000,3.319888,0,0,0,0,0,0,0
8,89999,80,80000,36,10000,40,9999,0.100000,0,0,0.000000,6,0.000000,0.000000,7.381274,0,0,0,0,0,0,0
8,89999,81,80000,37,0,49,9999,0.100000,0,0,0.000000,6,1.000000,0.000000,4.906888,0,0,0,0,0,0,0
8,89999,82,80000,37,0,49,9999,0.100000,0,0,0.000000,6,2.000000,0.000000,5.549594,0,0,0,0,0,0,0
8,89999,83,80000,6,10000,40,9999,0.100000,0,0,0.000000,6,0.000000,0.000000,0.603711,0,0,0,0,0,0,0
8,89999,84,80000,36,10000,49,9999,0.100000,0,0,0.000000,6,1.000000,0.000000,4.809973,0,0,0,0,0,0,0
8,89999,85,80000,12,20000,49,9999,0.100000,0,0,0.000000,6,3.000000,0.000000,12.350000,0,0,0,0,0,0,0
8,89999,86,80000,37,0,40,9999,0.100000,0,0,0.000000,6,0.000000,0.000000,0.797509,0,0,0,0,0,0,0
8,89999,87,80000,36,10000,40,9999,0.100000,0,0,0.000000,6,0.000000,0.000000,0.145683,0,0,0,0,0,0,0
8,89999,88,80000,12,20000,40,9999,0.100000,0,0,0.000000,6,0.000000,0.000000,0.204829,0,0,0,0,0,0,0
8,89999,89,80000,6,10000,40,9999,0.100000,0,0,0.000000,6,0.000000,0.000000,21.034683,0,0,0,0,0,0,0
8,89999,90,80000,12,20000,40,9999,0.100000,0,0,0.000000,6,0.000000,0.000000,0.141313,0,0,0,0,0,0,0
8,89999,91,80000,6,10000,40,9999,0.100000,0,0,0.000000,6,0.000000,0.000000,0.900661,0,0,0,0,0,0,0
8,89999,92,80000,36,0,40,9999,0.100000,0,0,0.000000,6,0.000000,0.000000,2.106216,0,0,0,0,0,0,0
8,89999,93,80000,37,0,40,9999,0.100000,0,0,0.000000,6,0.000000,0.000000,0.190783,0,0,0,0,0,0,0
8,89999,94,80000,12,20000,40,9999,0.100000,0,0,0.000000,6,0.000000,0.000000,3.326691,0,0,0,0,0,0,0
8,89999,95,80000,6,10000,40,9999,0.100000,0,0,0.000000,6,0.000000,0.000000,0.146701,0,0,0,0,0,0,0
8,89999,96,80000,36,0,40,9999,0.100000,0,0,0.000000,6,0.000000,0.000000,0.970062,0,0,0,0,0,0,0
8,89999,97,80000,37,0,40,9999,0.100000,0,0,0.000000,6,0.000000,0.000000,0.704825,0,0,0,0,0,0,0
8,89999,98,80000,36,0,49,9999,0.100000,0,0,0.000000,6,1.000000,0.000000,14.365246,0,0,0,0,0,0,0
8,89999,99,80000,6,10000,40,9999,0.100000,0,0,0.000000,6,0.000000,0.000000,24.364288,0,0,0,0,0,0,0
9,99999,0,90000,36,10000,40,9999,0.100000,0,0,0.000000,6,0.000000,0.000000,1.900019,0,0,0,0,0,0,0
9,99999,1,90000,37,0,40,9999,0.100000,0,0,0.000000,6,0.000000,0.000000,3.254203,0,0,0,0,0,0,0
9,99999,2,90000,37,0,40,9999,0.100000,0,0,0.000000,6,0.000000,0.000000,0.610766,0,0,0,0,0,0,0
9,99999,3,90000,12,20000,40,9999,0.100000,0,0,0.000000,6,0.000000,0.000000,0.847332,0,0,0,0,0,0,0
9,99999,4,90000,12,20000,40,9999,0.100000,0,0,0.000000,6,0.000000,0.000000,0.323079,0,0,0,0,0,0,0
9,99999,5,90000,6,10000,40,9999,0.100000,0,0,0.000000,6,0.000000,0.000000,0.696306,0,0,0,0,0,0,0
9,99999,6,90000,37,0,49,9999,0.100000,0,0,0.000000,6,1.000000,0.000000,8.043054,0,0,0,0,0,0,0
9,99999,7,90000,36,10000,40,9999,0.100000,0,0,0.000000,6,0.000000,0.000000,0.678079,0,0,0,0,0,0,0
9,99999,8,90000,37,0,40,9999,0.100000,0,0,0.000000,6,0.000000,0.000000,0.965403,0,0,0,0,0,0,0
9,99999,9,90000,6,10000,40,9999,0.100000,0,0,0.000000,6,0.000000,0.000000,7.628597,0,0,0,0,0,0,0
9,99999,10,90000,36,0,40,9999,0.100000,0,0,0.000000,6,0.000000,0.000000,0.333083,0,0,0,0,0,0,0
9,99999,11,90000,36,10000,40,9999,0.100000,0,0,0.000000,6,0.000000,0.000000,19.660873,0,0,0,0,0,0,0
9,99999,12,90000,37,0,49,9999,0.100000,0,0,0.000000,6,1.000000,0.000000,4.663396,0,0,0,0,0,0,0
9,99999,13,90000,36,0,49,9999,0.100000,0,0,0.000000,6,6.000000,0.000000,12.542151,0,0,0,0,0,0,0
9,99999,14,90000,37,0,40,9999,0.100000,0,0,0.000000,6,0.000000,0.000000,0.485686,0,0,0,0,0,0,0
9,99999,15,90000,37,0,40,9999,0.100000,0,0,0.000000,6,0.000000,0.000000,1.009087,0,0,0,0,0,0,0
9,99999,16,90000,6,10000,40,9999,0.100000,0,0,0.000000,6,0.000000,0.000000,1.611376,0,0,0,0,0,0,0
9,99999,17,90000,37,0,40,9999,0.100000,0,0,0.000000,6,0.000000,0.000000,0.143530,0,0,0,0,0,0,0
9,99999,18,90000,36,10000,40,9999,0.100000,0,0,0.000000,6,0.000000,0.000000,7.044668,0,0,0,0,0,0,0
9,99999,19,90000,36,0,40,9999,0.100000,0,0,0.000000,6,0.000000,0.000000,0.679921,0,0,0,0,0,0,0
9,99999,20,90000,6,10000,49,9999,0.100000,0,0,0.000000,6,8.000000,0.000000,9.606005,0,0,0,0,0,0,0
9,99999,21,90000,12,20000,49,9999,0.100000,0,0,0.000000,6,5.000000,0.000000,21.704200,0,0,0,0,0,0,0
9,99999,22,90000,36,0,40,9999,0.100000,0,0,0.000000,6,0.000000,0.000000,0.367623,0,0,0,0,0,0,0
9,99999,23,90000,37,0,49,9999,0.100000,0,0,0.000000,6,1.000000,0.000000,6.667896,0,0,0,0,0,0,0
9,99999,24,90000,6,10000,40,9999,0.100000,0,0,0.000000,6,0.000000,0.000000,0.507838,0,0,0,0,0,0,0
9,99999,25,90000,12,20000,49,9999,0.100000,0,0,0.000000,6,3.000000,0.000000,15.089142,0,0,0,0,0,0,0
9,99999,26,90000,37,0,40,9999,0.100000,0,0,0.000000,6,0.000000,0.000000,0.442651,0,0,0,0,0,0,0
9,99999,27,90000,12,20000,49,9999,0.100000,0,0,0.000000,6,8.000000,0.000000,21.836877,0,0,0,0,0,0,0
9,99999,28,90000,36,0,49,9999,0.100000,0,0,0.000000,6,4.000000,0.000000,15.292701,0,0,0,0,0,0,0
9,99999,29,90000,12,20000,40,9999,0.100000,0,0,0.000000,6,0.000000,0.000000,0.626854,0,0,0,0,0,0,0
9,99999,30,90000,37,0,49,9999,0.100000,0,0,0.000000,6,3.000000,0.000000,5.339952,0,0,0,0,0,0,0
9,99999,31,90000,6,10000,40,9999,0.100000,0,0,0.000000,6,0.000000,0.000000,0.662740,0,0,0,0,0,0,0
9,99999,32,90000,36,10000,49,9999,0.100000,0,0,0.000000,6,1.000000,0.000000,7.639956,0,0,0,0,0,0,0
9,99999,33,90000,36,0,40,9999,0.100000,0,0,0.000000,6,0.000000,0.000000,10.183775,0,0,0,0,0,0,0
9,99999,34,90000,12,20000,40,9999,0.100000,0,0,0.000000,6,0.000000,0.000000,0.138618,0,0,0,0,0,0,0
9,99999,35,90000,36,10000,40,9999,0.100000,0,0,0.000000,6,0.000000,0.000000,1.388964,0,0,0,0,0,0,0
9,99999,36,90000,36,0,40,9999,0.100000,0,0,0.000000,6,0.000000,0.000000,11.018523,0,0,0,0,0,0,0
9,99999,37,90000,12,20000,40,9999,0.100000,0,0,0.000000,6,0.000000,0.000000,0.228355,0,0,0,0,0,0,0
9,99999,38,90000,37,0,40,9999,0.100000,0,0,0.000000,6,0.000000,0.000000,0.794829,0,0,0,0,0,0,0
9,99999,39,90000,36,0,40,9999,0.100000,0,0,0.000000,6,0.000000,0.000000,0.146009,0,0,0,0,0,0,0
9,99999,40,90000,12,20000,40,9999,0.100000,0,0,0.000000,6,0.000000,0.000000,0.309495,0,0,0,0,0,0,0
9,99999,41,90000,12,20000,40,9999,0.100000,0,0,0.000000,6,0.000000,0.000000,1.241122,0,0,0,0,0,0,0
9,99999,42,90000,88,40000,40,9999,0.100000,0,0,0.000000,6,0.000000,0.000000,1.019808,0,0,0,0,0,0,0
9,99999,43,90000,36,10000,40,9999,0.100000,0,0,0.000000,6,0.000000,0.000000,0.383564,0,0,0,0,0,0,0
9,99999,44,90000,88,40000,40,9999,0.100000,0,0,0.000000,6,0.000000,0.000000,0.231718,0,0,0,0,0,0,0
9,99999,45,90000,37,0,40,9999,0.100000,0,0,0.000000,6,0.000000,0.000000,1.985847,0,0,0,0,0,0,0
9,99999,46,90000,12,20000,40,9999,0.100000,0,0,0.000000,6,0.000000,0.000000,0.620499,0,0,0,0,0,0,0
9,99999,47,90000,88,40000,40,9999,0.100000,0,0,0.000000,6,0.000000,0.000000,0.874230,0,0,0,0,0,0,0
9,99999,48,90000,36,0,49,9999,0.100000,0,0,0.000000,6,2.000000,0.000000,5.013295,0,0,0,0,0,0,0
9,99999,49,90000,12,20000,40,9999,0.100000,0,0,0.000000,6,0.000000,0.000000,0.433647,0,0,0,0,0,0,0
9,99999,50,90000,12,20000,49,9999,0.100000,0,0,0.000000,6,1.000000,0.000000,1.207688,0,0,0,0,0,0,0
9,99999,51,90000,37,0,49,9999,0.100000,0,0,0.000000,6,3.000000,0.000000,10.403793,0,0,0,0,0,0,0
9,99999,52,90000,36,0,40,9999,0.100000,0,0,0.000000,6,0.000000,0.000000,0.140347,0,0,0,0,0,0,0
9,99999,53,90000,37,0,40,9999,0.100000,0,0,0.000000,6,0.000000,0.000000,0.242816,0,0,0,0,0,0,0
9,99999,54,90000,12,20000,40,9999,0.100000,0,0,0.000000,6,0.000000,0.000000,0.768160,0,0,0,0,0,0,0
9,99999,55,90000,37,0,40,9999,0.100000,0,0,0.000000,6,0.000000,0.000000,0.902998,0,0,0,0,0,0,0
9,99999,56,90000,6,10000,49,9999,0.100000,0,0,0.000000,6,2.000000,0.000000,6.046533,0,0,0,0,0,0,0
9,99999,57,90000,37,0,40,9999,0.100000,0,0,0.000000,6,0.000000,0.000000,1.717460,0,0,0,0,0,0,0
9,99999,58,90000,36,0,49,9999,0.100000,0,0,0.000000,6,1.000000,0.000000,13.628696,0,0,0,0,0,0,0
9,99999,59,90000,36,10000,49,9999,0.100000,0,0,0.000000,6,1.000000,0.000000,1.538329,0,0,0,0,0,0,0
9,99999,60,90000,36,10000,40,9999,0.100000,0,0,0.000000,6,0.000000,0.000000,0.380337,0,0,0,0,0,0,0
9,99999,61,90000,6,10000,40,9999,0.100000,0,0,0.000000,6,0.000000,0.000000,0.886598,0,0,0,0,0,0,0
9,99999,62,90000,88,40000,40,9999,0.100000,0,0,0.000000,6,0.000000,0.000000,2.344616,0,0,0,0,0,0,0
9,99999,63,90000,36,0,40,9999,0.100000,0,0,0.000000,6,0.000000,0.000000,0.311748,0,0,0,0,0,0,0
9,99999,64,90000,6,10000,40,9999,0.100000,0,0,0.000000,6,0.000000,0.000000,0.832803,0,0,0,0,0,0,0
9,99999,65,90000,6,10000,40,9999,0.100000,0,0,0.000000,6,0.000000,0.000000,0.693792,0,0,0,0,0,0,0
9,99999,66,90000,37,0,40,9999,0.100000,0,0,0.000000,6,0.000000,0.000000,0.492795,0,0,0,0,0,0,0
9,99999,67,90000,36,10000,49,9999,0.100000,0,0,0.000000,6,9.000000,0.000000,14.661737,0,0,0,0,0,0,0
9,99999,68,90000,37,0,40,9999,0.100000,0,0,0.000000,6,0.000000,0.000000,0.609338,0,0,0,0,0,0,0
9,99999,69,90000,37,0,40,9999,0.100000,0,0,0.000000,6,0.000000,0.000000,0.199482,0,0,0,0,0,0,0
9,99999,70,90000,36,0,40,9999,0.100000,0,0,0.000000,6,0.000000,0.000000,0.130291,0,0,0,0,0,0,0
9,99999,71,90000,12,20000,40,9999,0.100000,0,0,0.000000,6,0.000000,0.000000,0.313589,0,0,0,0,0,0,0
9,99999,72,90000,36,10000,40,9999,0.100000,0,0,0.000000,6,0.000000,0.000000,0.146353,0,0,0,0,0,0,0
9,99999,73,90000,6,10000,40,9999,0.100000,0,0,0.000000,6,0.000000,0.000000,1.168172,0,0,0,0,0,0,0
9,99999,74,90000,88,40000,40,9999,0.100000,0,0,0.000000,6,0.000000,0.000000,1.002705,0,0,0,0,0,0,0
9,99999,75,90000,37,0,40,9999,0.100000,0,0,0.000000,6,0.000000,0.000000,1.034358,0,0,0,0,0,0,0
9,99999,76,90000,12,20000,40,9999,0.100000,0,0,0.000000,6,0.000000,0.000000,1.172432,0,0,0,0,0,0,0
9,99999,77,90000,37,0,40,9999,0.100000,0,0,0.000000,6,0.000000,0.000000,1.093959,0,0,0,0,0,0,0
9,99999,78,90000,36,10000,40,9999,0.100000,0,0,0.000000,6,0.000000,0.000000,0.218252,0,0,0,0,0,0,0
9,99999,79,90000,6,10000,49,9999,0.100000,0,0,0.000000,6,3.000000,0.000000,4.944547,0,0,0,0,0,0,0
9,99999,80,90000,37,0,40,9999,0.100000,0,0,0.000000,6,0.000000,0.000000,6.223510,0,0,0,0,0,0,0
9,99999,81,90000,6,10000,49,9999,0.100000,0,0,0.000000,6,1.000000,0.000000,5.113654,0,0,0,0,0,0,0
9,99999,82,90000,12,20000,49,9999,0.100000,0,0,0.000000,6,1.000000,0.000000,20.570537,0,0,0,0,0,0,0
9,99999,83,90000,88,40000,40,9999,0.100000,0,0,0.000000,6,0.000000,0.000000,2.047469,0,0,0,0,0,0,0
9,99999,84,90000,88,40000,49,9999,0.100000,0,0,0.000000,6,4.000000,0.000000,5.843874,0,0,0,0,0,0,0
9,99999,85,90000,36,10000,49,9999,0.100000,0,0,0.000000,6,5.000000,0.000000,16.485712,0,0,0,0,0,0,0
9,99999,86,90000,88,40000,40,9999,0.100000,0,0,0.000000,6,0.000000,0.000000,0.787639,0,0,0,0,0,0,0
9,99999,87,90000,37,0,40,9999,0.100000,0,0,0.000000,6,0.000000,0.000000,0.192748,0,0,0,0,0,0,0
9,99999,88,90000,12,20000,40,9999,0.100000,0,0,0.000000,6,0.000000,0.000000,0.125375,0,0,0,0,0,0,0
9,99999,89,90000,36,0,40,9999,0.100000,0,0,0.000000,6,0.000000,0.000000,21.135263,0,0,0,0,0,0,0
9,99999,90,90000,88,40000,40,9999,0.100000,0,0,0.000000,6,0.000000,0.000000,0.136457,0,0,0,0,0,0,0
9,99999,91,90000,88,40000,40,9999,0.100000,0,0,0.000000,6,0.000000,0.000000,0.783354,0,0,0,0,0,0,0
9,99999,92,90000,88,40000,40,9999,0.100000,0,0,0.000000,6,0.000000,0.000000,0.580935,0,0,0,0,0,0,0
9,99999,93,90000,12,20000,40,9999,0.100000,0,0,0.000000,6,0.000000,0.000000,0.196788,0,0,0,0,0,0,0
9,99999,94,90000,36,10000,40,9999,0.100000,0,0,0.000000,6,0.000000,0.000000,3.480461,0,0,0,0,0,0,0
9,99999,95,90000,12,20000,40,9999,0.100000,0,0,0.000000,6,0.000000,0.000000,0.248486,0,0,0,0,0,0,0
9,99999,96,90000,88,40000,40,9999,0.100000,0,0,0.000000,6,0.000000,0.000000,0.712873,0,0,0,0,0,0,0
9,99999,97,90000,36,10000,40,9999,0.100000,0,0,0.000000,6,0.000000,0.000000,2.545072,0,0,0,0,0,0,0
9,99999,98,90000,6,10000,49,9999,0.100000,0,0,0.000000,6,4.000000,0.000000,7.546917,0,0,0,0,0,0,0
9,99999,99,90000,6,10000,40,9999,0.100000,0,0,0.000000,6,0.000000,0.000000,24.110441,0,0,0,0,0,0,0
10,109999,0,100000,36,10000,40,9999,0.100000,0,0,0.000000,6,0.000000,0.000000,0.490580,0,0,0,0,0,0,0
10,109999,1,100000,88,40000,49,9999,0.100000,0,0,0.000000,6,2.000000,0.000000,15.176607,0,0,0,0,0,0,0
10,109999,2,100000,36,10000,40,9999,0.100000,0,0,0.000000,6,0.000000,0.000000,0.243205,0,0,0,0,0,0,0
10,109999,3,100000,37,0,40,9999,0.100000,0,0,0.000000,6,0.000000,0.000000,0.674490,0,0,0,0,0,0,0
10,109999,4,100000,12,20000,40,9999,0.100000,0,0,0.000000,6,0.000000,0.000000,0.333848,0,0,0,0,0,0,0
10,109999,5,100000,36,0,49,9999,0.100000,0,0,0.000000,6,2.000000,0.000000,2.145037,0,0,0,0,0,0,0
10,109999,6,100000,12,20000,40,9999,0.100000,0,0,0.000000,6,0.000000,0.000000,5.047473,0,0,0,0,0,0,0
10,109999,7,100000,36,10000,40,9999,0.100000,0,0,0.000000,6,0.000000,0.000000,0.636641,0,0,0,0,0,0,0
10,109999,8,100000,37,0,40,9999,0.100000,0,0,0.000000,6,0.000000,0.000000,0.653433,0,0,0,0,0,0,0
10,109999,9,100000,88,40000,49,9999,0.100000,0,0,0.000000,6,5.000000,0.000000,10.951017,0,0,0,0,0,0,0
10,109999,10,100000,37,0,40,9999,0.100000,0,0,0.000000,6,0.000000,0.000000,0.621766,0,0,0,0,0,0,0
10,109999,11,100000,88,40000,40,9999,0.100000,0,0,0.000000,6,0.000000,0.000000,8.966655,0,0,0,0,0,0,0
10,109999,12,100000,88,40000,49,9999,0.100000,0,0,0.000000,6,2.000000,0.000000,2.253664,0,0,0,0,0,0,0
10,109999,13,100000,36,0,49,9999,0.100000,0,0,0.000000,6,2.000000,0.000000,12.172368,0,0,0,0,0,0,0
10,109999,14,100000,37,0,40,9999,0.100000,0,0,0.000000,6,0.000000,0.000000,0.457580,0,0,0,0,0,0,0
10,109999,15,100000,37,0,40,9999,0.100000,0,0,0.000000,6,0.000000,0.000000,1.039399,0,0,0,0,0,0,0
10,109999,16,100000,12,20000,40,9999,0.100000,0,0,0.000000,6,0.000000,0.000000,2.121028,0,0,0,0,0,0,0
10,109999,17,100000,36,10000,40,9999,0.100000,0,0,0.000000,6,0.000000,0.000000,0.139931,0,0,0,0,0,0,0
10,109999,18,100000,12,20000,40,9999,0.100000,0,0,0.000000,6,0.000000,0.000000,6.906860,0,0,0,0,0,0,0
10,109999,19,100000,6,10000,40,9999,0.100000,0,0,0.000000,6,0.000000,0.000000,0.585832,0,0,0,0,0,0,0
10,109999,20,100000,6,10000,40,9999,0.100000,0,0,0.000000,6,0.000000,0.000000,0.476308,0,0,0,0,0,0,0
10,109999,21,100000,12,20000,49,9999,0.100000,0,0,0.000000,6,3.000000,0.000000,9.711875,0,0,0,0,0,0,0
10,109999,22,100000,6,10000,49,9999,0.100000,0,0,0.000000,6,1.000000,0.000000,1.821435,0,0,0,0,0,0,0
10,109999,23,100000,36,10000,40,9999,0.100000,0,0,0.000000,6,0.000000,0.000000,3.820188,0,0,0,0,0,0,0
10,109999,24,100000,88,40000,40,9999,0.100000,0,0,0.000000,6,0.000000,0.000000,0.503702,0,0,0,0,0,0,0
10,109999,25,100000,36,10000,49,9999,0.100000,0,0,0.000000,6,3.000000,0.000000,19.659621,0,0,0,0,0,0,0
10,109999,26,100000,12,20000,40,9999,0.100000,0,0,0.000000,6,0.000000,0.000000,0.164124,0,0,0,0,0,0,0
10,109999,27,100000,37,0,49,9999,0.100000,0,0,0.000000,6,1.000000,0.000000,15.143124,0,0,0,0,0,0,0
10,109999,28,100000,36,0,49,9999,0.100000,0,0,0.000000,6,2.000000,0.000000,5.529717,0,0,0,0,0,0,0
10,109999,29,100000,37,0,40,9999,0.100000,0,0,0.000000,6,0.000000,0.000000,0.125426,0,0,0,0,0,0,0
10,109999,30,100000,12,20000,40,9999,0.100000,0,0,0.000000,6,0.000000,0.000000,1.882959,0,0,0,0,0,0,0
10,109999,31,100000,12,20000,40,9999,0.100000,0,0,0.000000,6,0.000000,0.000000,0.398030,0,0,0,0,0,0,0
10,109999,32,100000,36,0,49,9999,0.100000,0,0,0.000000,6,3.000000,0.000000,14.335277,0,0,0,0,0,0,0
10,109999,33,100000,88,40000,40,9999,0.100000,0,0,0.000000,6,0.000000,0.000000,3.874595,0,0,0,0,0,0,0
10,109999,34,100000,36,10000,40,9999,0.100000,0,0,0.000000,6,0.000000,0.000000,0.136546,0,0,0,0,0,0,0
10,109999,35,100000,36,10000,40,9999,0.100000,0,0,0.000000,6,0.000000,0.000000,1.923186,0,0,0,0,0,0,0
10,109999,36,100000,6,10000,49,9999,0.100000,0,0,0.000000,6,1.000000,0.000000,21.433573,0,0,0,0,0,0,0
10,109999,37,100000,6,10000,40,9999,0.100000,0,0,0.000000,6,0.000000,0.000000,0.370425,0,0,0,0,0,0,0
10,109999,38,100000,37,0,40,9999,0.100000,0,0,0.000000,6,0.000000,0.000000,0.803314,0,0,0,0,0,0,0
10,109999,39,100000,36,0,40,9999,0.100000,0,0,0.000000,6,0.000000,0.000000,0.117074,0,0,0,0,0,0,0
10,109999,40,100000,12,20000,40,9999,0.100000,0,0,0.000000,6,0.000000,0.000000,0.343431,0,0,0,0,0,0,0
10,109999,41,100000,36,10000,40,9999,0.100000,0,0,0.000000,6,0.000000,0.000000,1.147782,0,0,0,0,0,0,0
10,109999,42,100000,12,20000,49,9999,0.100000,0,0,0.000000,6,2.000000,0.000000,5.126335,0,0,0,0,0,0,0
10,109999,43,100000,36,10000,40,9999,0.100000,0,0,0.000000,6,0.000000,0.000000,0.156667,0,0,0,0,0,0,0
10,109999,44,100000,36,10000,40,9999,0.100000,0,0,0.000000,6,0.000000,0.000000,0.447771,0,0,0,0,0,0,0
10,109999,45,100000,6,10000,40,9999,0.100000,0,0,0.000000,6,0.000000,0.000000,1.964399,0,0,0,0,0,0,0
10,109999,46,100000,12,20000,40,9999,0.100000,0,0,0.000000,6,0.000000,0.000000,0.632160,0,0,0,0,0,0,0
10,109999,47,100000,37,0,40,9999,0.135000,0,0,0.000000,6,0.000000,0.000000,1.890874,0,0,0,0,0,0,0
10,109999,48,100000,6,10000,49,9999,0.100000,0,0,0.000000,6,11.000000,0.000000,11.646003,0,0,0,0,0,0,0
10,109999,49,100000,36,0,40,9999,0.100000,0,0,0.000000,6,0.000000,0.000000,0.449938,0,0,0,0,0,0,0
10,109999,50,100000,36,10000,49,9999,0.100000,0,0,0.000000,6,2.000000,0.000000,2.349974,0,0,0,0,0,0,0
10,109999,51,100000,88,40000,49,9999,0.100000,0,0,0.000000,6,2.000000,0.000000,7.452737,0,0,0,0,0,0,0
10,109999,52,100000,12,20000,40,9999,0.100000,0,0,0.000000,6,0.000000,0.000000,0.141797,0,0,0,0,0,0,0
10,109999,53,100000,88,40000,40,9999,0.100000,0,0,0.000000,6,0.000000,0.000000,0.237312,0,0,0,0,0,0,0
10,109999,54,100000,37,0,40,9999,0.100000,0,0,0.000000,6,0.000000,0.000000,0.443937,0,0,0,0,0,0,0
10,109999,55,100000,37,0,40,9999,0.100000,0,0,0.000000,6,0.000000,0.000000,1.008243,0,0,0,0,0,0,0
10,109999,56,100000,36,0,49,9999,0.100000,0,0,0.000000,6,3.000000,0.000000,11.858215,0,0,0,0,0,0,0
10,109999,57,100000,88,40000,40,9999,0.100000,0,0,0.000000,6,0.000000,0.000000,1.332806,0,0,0,0,0,0,0
10,109999,58,100000,36,0,49,9999,0.100000,0,0,0.000000,6,2.000000,0.000000,12.532620,0,0,0,0,0,0,0
10,109999,59,100000,37,0,49,9999,0.100000,0,0,0.000000,6,2.000000,0.000000,2.750942,0,0,0,0,0,0,0
10,109999,60,100000,12,20000,40,9999,0.065000,0,0,0.000000,6,0.000000,0.000000,0.333412,0,0,0,0,0,0,0
10,109999,61,100000,6,10000,40,9999,0.100000,0,0,0.000000,6,0.000000,0.000000,1.030646,0,0,0,0,0,0,0
10,109999,62,100000,36,10000,49,9999,0.100000,0,0,0.000000,6,1.000000,0.000000,2.041340,0,0,0,0,0,0,0
10,109999,63,100000,36,10000,40,9999,0.100000,0,0,0.000000,6,0.000000,0.000000,0.338080,0,0,0,0,0,0,0
10,109999,64,100000,36,0,40,9999,0.100000,0,0,0.000000,6,0.000000,0.000000,0.641079,0,0,0,0,0,0,0
10,109999,65,100000,12,20000,40,9999,0.100000,0,0,0.000000,6,0.000000,0.000000,0.718243,0,0,0,0,0,0,0
10,109999,66,100000,36,0,40,9999,0.100000,0,0,0.000000,6,0.000000,0.000000,0.673696,0,0,0,0,0,0,0
10,109999,67,100000,37,0,40,9999,0.100000,0,0,0.000000,6,0.000000,0.000000,6.323710,0,0,0,0,0,0,0
10,109999,68,100000,12,20000,40,9999,0.100000,0,0,0.000000,6,0.000000,0.000000,0.623732,0,0,0,0,0,0,0
10,109999,69,100000,12,20000,40,9999,0.100000,0,0,0.000000,6,0.000000,0.000000,0.198610,0,0,0,0,0,0,0
10,109999,70,100000,36,10000,40,9999,0.100000,0,0,0.000000,6,0.000000,0.000000,0.133663,0,0,0,0,0,0,0
10,109999,71,100000,36,10000,40,9999,0.100000,0,0,0.000000,6,0.000000,0.000000,0.235650,0,0,0,0,0,0,0
10,109999,72,100000,36,10000,40,9999,0.100000,0,0,0.000000,6,0.000000,0.000000,0.114605,0,0,0,0,0,0,0
10,109999,73,100000,36,10000,40,9999,0.100000,0,0,0.000000,6,0.000000,0.000000,0.806810,0,0,0,0,0,0,0
10,109999,74,100000,36,10000,40,9999,0.100000,0,0,0.000000,6,0.000000,0.000000,0.994329,0,0,0,0,0,0,0
10,109999,75,100000,12,20000,40,9999,0.100000,0,0,0.000000,6,0.000000,0.000000,0.955335,0,0,0,0,0,0,0
10,109999,76,100000,36,10000,40,9999,0.100000,0,0,0.000000,6,0.000000,0.000000,0.757794,0,0,0,0,0,0,0
10,109999,77,100000,12,20000,40,9999,0.100000,0,0,0.000000,6,0.000000,0.000000,0.949244,0,0,0,0,0,0,0
10,109999,78,100000,12,20000,40,9999,0.100000,0,0,0.000000,6,0.000000,0.000000,0.229706,0,0,0,0,0,0,0
10,109999,79,100000,37,0,49,9999,0.100000,0,0,0.000000,6,3.000000,0.000000,18.021120,0,0,0,0,0,0,0
10,109999,80,100000,36,10000,40,9999,0.100000,0,0,0.000000,6,0.000000,0.000000,4.542315,0,0,0,0,0,0,0
10,109999,81,100000,36,0,49,9999,0.100000,0,0,0.000000,6,4.000000,0.000000,14.034859,0,0,0,0,0,0,0
10,109999,82,100000,12,20000,40,9999,0.100000,0,0,0.000000,6,0.000000,0.000000,23.414678,0,0,0,0,0,0,0
10,109999,83,100000,12,20000,40,9999,0.100000,0,0,0.000000,6,0.000000,0.000000,1.731603,0,0,0,0,0,0,0
10,109999,84,100000,37,0,40,9999,0.100000,0,0,0.000000,6,0.000000,0.000000,15.498971,0,0,0,0,0,0,0
10,109999,85,100000,36,0,49,9999,0.100000,0,0,0.000000,6,1.000000,0.000000,20.610610,0,0,0,0,0,0,0
10,109999,86,100000,88,40000,40,9999,0.100000,0,0,0.000000,6,0.000000,0.000000,0.825381,0,0,0,0,0,0,0
10,109999,87,100000,36,0,40,9999,0.100000,0,0,0.000000,6,0.000000,0.000000,0.338063,0,0,0,0,0,0,0
10,109999,88,100000,6,10000,40,9999,0.100000,0,0,0.000000,6,0.000000,0.000000,0.112674,0,0,0,0,0,0,0
10,109999,89,100000,36,0,49,9999,0.100000,0,0,0.000000,6,1.000000,0.000000,20.847027,0,0,0,0,0,0,0
10,109999,90,100000,12,20000,40,9999,0.100000,0,0,0.000000,6,0.000000,0.000000,0.137067,0,0,0,0,0,0,0
10,109999,91,100000,6,10000,40,9999,0.100000,0,0,0.000000,6,0.000000,0.000000,0.720533,0,0,0,0,0,0,0
10,109999,92,100000,12,20000,40,9999,0.100000,0,0,0.000000,6,0.000000,0.000000,0.259653,0,0,0,0,0,0,0
10,109999,93,100000,12,20000,40,9999,0.100000,0,0,0.000000,6,0.000000,0.000000,0.192437,0,0,0,0,0,0,0
10,109999,94,100000,88,40000,49,9999,0.100000,0,0,0.000000,6,3.000000,0.000000,12.944379,0,0,0,0,0,0,0
10,109999,95,100000,36,10000,40,9999,0.100000,0,0,0.000000,6,0.000000,0.000000,0.363823,0,0,0,0,0,0,0
10,109999,96,100000,36,10000,40,9999,0.100000,0,0,0.000000,6,0.000000,0.000000,0.272320,0,0,0,0,0,0,0
10,109999,97,100000,12,20000,49,9999,0.100000,0,0,0.000000,6,2.000000,0.000000,2.565934,0,0,0,0,0,0,0
10,109999,98,100000,6,10000,40,9999,0.100000,0,0,0.000000,6,0.000000,0.000000,1.885407,0,0,0,0,0,0,0
10,109999,99,100000,36,10000,40,9999,0.100000,0,0,0.000000,6,0.000000,0.000000,21.732394,0,0,0,0,0,0,0
11,119999,0,110000,6,10000,40,9999,0.100000,0,0,0.000000,6,0.000000,0.000000,0.496383,0,0,0,0,0,0,0
11,119999,1,110000,37,0,49,9999,0.100000,0,0,0.000000,6,3.000000,0.000000,7.124791,0,0,0,0,0,0,0
11,119999,2,110000,36,10000,40,9999,0.100000,0,0,0.000000,6,0.000000,0.000000,0.162391,0,0,0,0,0,0,0
11,119999,3,110000,12,20000,40,9999,0.100000,0,0,0.000000,6,0.000000,0.000000,0.667819,0,0,0,0,0,0,0
11,119999,4,110000,88,40000,40,9999,0.100000,0,0,0.000000,6,0.000000,0.000000,0.323359,0,0,0,0,0,0,0
11,119999,5,110000,36,0,40,9999,0.100000,0,0,0.000000,6,0.000000,0.000000,0.504975,0,0,0,0,0,0,0
11,119999,6,110000,36,0,49,9999,0.100000,0,0,0.000000,6,3.000000,0.000000,10.578836,0,0,0,0,0,0,0
11,119999,7,110000,12,20000,40,9999,0.100000,0,0,0.000000,6,0.000000,0.000000,0.998991,0,0,0,0,0,0,0
11,119999,8,110000,37,0,40,9999,0.100000,0,0,0.000000,6,0.000000,0.000000,0.637440,0,0,0,0,0,0,0
11,119999,9,110000,36,0,40,9999,0.100000,0,0,0.000000,6,0.000000,0.000000,1.729045,0,0,0,0,0,0,0
11,119999,10,110000,88,40000,40,9999,0.100000,0,0,0.000000,6,0.000000,0.000000,0.821364,0,0,0,0,0,0,0
11,119999,11,110000,6,10000,40,9999,0.100000,0,0,0.000000,6,0.000000,0.000000,2.590637,0,0,0,0,0,0,0
11,119999,12,110000,37,0,40,9999,0.100000,0,0,0.000000,6,0.000000,0.000000,1.504580,0,0,0,0,0,0,0
11,119999,13,110000,6,10000,49,9999,0.100000,0,0,0.000000,6,2.000000,0.000000,5.196692,0,0,0,0,0,0,0
11,119999,14,110000,36,0,40,9999,0.100000,0,0,0.000000,6,0.000000,0.000000,0.478018,0,0,0,0,0,0,0
11,119999,15,110000,37,0,40,9999,0.100000,0,0,0.000000,6,0.000000,0.000000,1.041898,0,0,0,0,0,0,0
11,119999,16,110000,36,10000,40,9999,0.100000,0,0,0.000000,6,0.000000,0.000000,5.475009,0,0,0,0,0,0,0
11,119999,17,110000,6,10000,40,9999,0.100000,0,0,0.000000,6,0.000000,0.000000,0.142151,0,0,0,0,0,0,0
11,119999,18,110000,37,0,49,9999,0.100000,0,0,0.000000,6,3.000000,0.000000,5.702369,0,0,0,0,0,0,0
11,119999,19,110000,36,10000,40,9999,0.100000,0,0,0.000000,6,0.000000,0.000000,2.862865,0,0,0,0,0,0,0
11,119999,20,110000,6,10000,49,9999,0.100000,0,0,0.000000,6,7.000000,0.000000,12.684237,0,0,0,0,0,0,0
11,119999,21,110000,6,10000,40,9999,0.100000,0,0,0.000000,6,0.000000,0.000000,0.375385,0,0,0,0,0,0,0
11,119999,22,110000,36,0,40,9999,0.100000,0,0,0.000000,6,0.000000,0.000000,0.204948,0,0,0,0,0,0,0
11,119999,23,110000,36,10000,40,9999,0.100000,0,0,0.000000,6,0.000000,0.000000,3.939925,0,0,0,0,0,0,0
11,119999,24,110000,12,20000,40,9999,0.100000,0,0,0.000000,6,0.000000,0.000000,0.514654,0,0,0,0,0,0,0
11,119999,25,110000,88,40000,49,9999,0.100000,0,0,0.000000,6,2.000000,0.000000,13.143256,0,0,0,0,0,0,0
11,119999,26,110000,12,20000,40,9999,0.100000,0,0,0.000000,6,0.000000,0.000000,0.127628,0,0,0,0,0,0,0
11,119999,27,110000,6,10000,49,9999,0.100000,0,0,0.000000,6,1.000000,0.000000,10.771738,0,0,0,0,0,0,0
11,119999,28,110000,37,0,49,9999,0.100000,0,0,0.000000,6,1.000000,0.000000,5.414516,0,0,0,0,0,0,0
11,119999,29,110000,12,20000,40,9999,0.100000,0,0,0.000000,6,0.000000,0.000000,0.115011,0,0,0,0,0,0,0
11,119999,30,110000,37,0,40,9999,0.100000,0,0,0.000000,6,0.000000,0.000000,3.634639,0,0,0,0,0,0,0
11,119999,31,110000,12,20000,40,9999,0.100000,0,0,0.000000,6,0.000000,0.000000,0.076240,0,0,0,0,0,0,0
11,119999,32,110000,88,40000,49,9999,0.100000,0,0,0.000000,6,1.000000,0.000000,13.767716,0,0,0,0,0,0,0
11,119999,33,110000,88,40000,40,9999,0.100000,0,0,0.000000,6,0.000000,0.000000,4.773455,0,0,0,0,0,0,0
11,119999,34,110000,36,0,40,9999,0.100000,0,0,0.000000,6,0.000000,0.000000,0.140156,0,0,0,0,0,0,0
11,119999,35,110000,88,40000,40,9999,0.100000,0,0,0.000000,6,0.000000,0.000000,4.042323,0,0,0,0,0,0,0
11,119999,36,110000,36,0,40,9999,0.100000,0,0,0.000000,6,0.000000,0.000000,21.239752,0,0,0,0,0,0,0
11,119999,37,110000,37,0,40,9999,0.100000,0,0,0.000000,6,0.000000,0.000000,1.129415,0,0,0,0,0,0,0
11,119999,38,110000,37,0,40,9999,0.100000,0,0,0.000000,6,0.000000,0.000000,0.781766,0,0,0,0,0,0,0
11,119999,39,110000,37,0,40,9999,0.100000,0,0,0.000000,6,0.000000,0.000000,0.431608,0,0,0,0,0,0,0
11,119999,40,110000,88,40000,40,9999,0.100000,0,0,0.000000,6,0.000000,0.000000,0.373818,0,0,0,0,0,0,0
11,119999,41,110000,12,20000,40,9999,0.100000,0,0,0.000000,6,0.000000,0.000000,1.102351,0,0,0,0,0,0,0
11,119999,42,110000,36,10000,49,9999,0.100000,0,0,0.000000,6,8.000000,0.000000,10.648728,0,0,0,0,0,0,0
11,119999,43,110000,6,10000,40,9999,0.100000,0,0,0.000000,6,0.000000,0.000000,0.131140,0,0,0,0,0,0,0
11,119999,44,110000,88,40000,40,9999,0.100000,0,0,0.000000,6,0.000000,0.000000,0.352845,0,0,0,0,0,0,0
11,119999,45,110000,36,10000,40,9999,0.100000,0,0,0.000000,6,0.000000,0.000000,2.008743,0,0,0,0,0,0,0
11,119999,46,110000,37,0,40,9999,0.100000,0,0,0.000000,6,0.000000,0.000000,0.642604,0,0,0,0,0,0,0
11,119999,47,110000,88,40000,40,9999,0.100000,0,0,0.000000,6,0.000000,0.000000,0.914831,0,0,0,0,0,0,0
11,119999,48,110000,36,0,40,9999,0.100000,0,0,0.000000,6,0.000000,0.000000,0.946549,0,0,0,0,0,0,0
11,119999,49,110000,12,20000,40,9999,0.100000,0,0,0.000000,6,0.000000,0.000000,0.481827,0,0,0,0,0,0,0
11,119999,50,110000,6,10000,49,9999,0.100000,0,0,0.000000,6,1.000000,0.000000,3.565829,0,0,0,0,0,0,0
11,119999,51,110000,12,20000,49,9999,0.100000,0,0,0.000000,6,2.000000,0.000000,8.466380,0,0,0,0,0,0,0
11,119999,52,110000,12,20000,40,9999,0.100000,0,0,0.000000,6,0.000000,0.000000,0.140510,0,0,0,0,0,0,0
11,119999,53,110000,36,0,40,9999,0.100000,0,0,0.000000,6,0.000000,0.000000,0.239109,0,0,0,0,0,0,0
11,119999,54,110000,88,40000,40,9999,0.100000,0,0,0.000000,6,0.000000,0.000000,2.088649,0,0,0,0,0,0,0
11,119999,55,110000,36,0,40,9999,0.100000,0,0,0.000000,6,0.000000,0.000000,1.025552,0,0,0,0,0,0,0
11,119999,56,110000,36,10000,49,9999,0.100000,0,0,0.000000,6,2.000000,0.000000,4.580412,0,0,0,0,0,0,0
11,119999,57,110000,88,40000,40,9999,0.100000,0,0,0.000000,6,0.000000,0.000000,1.133615,0,0,0,0,0,0,0
11,119999,58,110000,36,10000,49,9999,0.100000,0,0,0.000000,6,2.000000,0.000000,18.343550,0,0,0,0,0,0,0
11,119999,59,110000,6,10000,49,9999,0.100000,0,0,0.000000,6,1.000000,0.000000,5.055797,0,0,0,0,0,0,0
11,119999,60,110000,37,0,40,9999,0.100000,0,0,0.000000,6,0.000000,0.000000,0.315308,0,0,0,0,0,0,0
11,119999,61,110000,37,0,40,9999,0.100000,0,0,0.000000,6,0.000000,0.000000,1.008434,0,0,0,0,0,0,0
11,119999,62,110000,37,0,40,9999,0.100000,0,0,0.000000,6,0.000000,0.000000,0.286764,0,0,0,0,0,0,0
11,119999,63,110000,36,10000,40,9999,0.100000,0,0,0.000000,6,0.000000,0.000000,0.407969,0,0,0,0,0,0,0
11,119999,64,110000,36,0,40,9999,0.100000,0,0,0.000000,6,0.000000,0.000000,0.645572,0,0,0,0,0,0,0
11,119999,65,110000,12,20000,40,9999,0.100000,0,0,0.000000,6,0.000000,0.000000,0.733681,0,0,0,0,0,0,0
11,119999,66,110000,6,10000,40,9999,0.100000,0,0,0.000000,6,0.000000,0.000000,0.800102,0,0,0,0,0,0,0
11,119999,67,110000,6,10000,40,9999,0.100000,0,0,0.000000,6,0.000000,0.000000,4.865600,0,0,0,0,0,0,0
11,119999,68,110000,36,0,40,9999,0.100000,0,0,0.000000,6,0.000000,0.000000,0.608873,0,0,0,0,0,0,0
11,119999,69,110000,88,40000,40,9999,0.100000,0,0,0.000000,6,0.000000,0.000000,0.196998,0,0,0,0,0,0,0
11,119999,70,110000,36,10000,40,9999,0.100000,0,0,0.000000,6,0.000000,0.000000,0.127679,0,0,0,0,0,0,0
11,119999,71,110000,36,0,40,9999,0.100000,0,0,0.000000,6,0.000000,0.000000,0.272567,0,0,0,0,0,0,0
11,119999,72,110000,88,40000,40,9999,0.100000,0,0,0.000000,6,0.000000,0.000000,0.198504,0,0,0,0,0,0,0
11,119999,73,110000,6,10000,40,9999,0.100000,0,0,0.000000,6,0.000000,0.000000,2.658709,0,0,0,0,0,0,0
11,119999,74,110000,37,0,40,9999,0.100000,0,0,0.000000,6,0.000000,0.000000,0.951273,0,0,0,0,0,0,0
11,119999,75,110000,37,0,40,9999,0.100000,0,0,0.000000,6,0.000000,0.000000,0.859380,0,0,0,0,0,0,0
11,119999,76,110000,6,10000,40,9999,0.100000,0,0,0.000000,6,0.000000,0.000000,0.768817,0,0,0,0,0,0,0
11,119999,77,110000,36,0,40,9999,0.100000,0,0,0.000000,6,0.000000,0.000000,1.253049,0,0,0,0,0,0,0
11,119999,78,110000,36,0,40,9999,0.100000,0,0,0.000000,6,0.000000,0.000000,0.220630,0,0,0,0,0,0,0
11,119999,79,110000,6,10000,49,9999,0.135000,0,0,0.000000,6,3.000000,0.000000,15.924611,0,0,0,0,0,0,0
11,119999,80,110000,88,40000,49,9999,0.100000,0,0,0.000000,6,1.000000,0.000000,6.593321,0,0,0,0,0,0,0
11,119999,81,110000,36,0,49,9999,0.100000,0,0,0.000000,6,1.000000,0.000000,11.613918,0,0,0,0,0,0,0
11,119999,82,110000,36,10000,40,9999,0.100000,0,0,0.000000,6,0.000000,0.000000,22.511264,0,0,0,0,0,0,0
11,119999,83,110000,36,10000,40,9999,0.100000,0,0,0.000000,6,0.000000,0.000000,1.491844,0,0,0,0,0,0,0
11,119999,84,110000,37,0,49,9999,0.100000,0,0,0.000000,6,1.000000,0.000000,11.071837,0,0,0,0,0,0,0
11,119999,85,110000,12,20000,40,9999,0.100000,0,0,0.000000,6,0.000000,0.000000,21.921843,0,0,0,0,0,0,0
11,119999,86,110000,6,10000,40,9999,0.100000,0,0,0.000000,6,0.000000,0.000000,0.829745,0,0,0,0,0,0,0
11,119999,87,110000,6,10000,40,9999,0.100000,0,0,0.000000,6,0.000000,0.000000,0.873646,0,0,0,0,0,0,0
11,119999,88,110000,12,20000,40,9999,0.100000,0,0,0.000000,6,0.000000,0.000000,0.180836,0,0,0,0,0,0,0
11,119999,89,110000,6,10000,40,9999,0.100000,0,0,0.000000,6,0.000000,0.000000,21.091746,0,0,0,0,0,0,0
11,119999,90,110000,37,0,40,9999,0.100000,0,0,0.000000,6,0.000000,0.000000,0.143229,0,0,0,0,0,0,0
11,119999,91,110000,36,0,40,9999,0.100000,0,0,0.000000,6,0.000000,0.000000,3.787840,0,0,0,0,0,0,0
11,119999,92,110000,12,20000,40,9999,0.100000,0,0,0.000000,6,0.000000,0.000000,0.186098,0,0,0,0,0,0,0
11,119999,93,110000,88,40000,40,9999,0.100000,0,0,0.000000,6,0.000000,0.000000,0.151928,0,0,0,0,0,0,0
11,119999,94,110000,88,40000,49,9999,0.100000,0,0,0.000000,6,2.000000,0.000000,15.135410,0,0,0,0,0,0,0
11,119999,95,110000,36,10000,40,9999,0.100000,0,0,0.000000,6,0.000000,0.000000,0.118148,0,0,0,0,0,0,0
11,119999,96,110000,36,10000,40,9999,0.100000,0,0,0.000000,6,0.000000,0.000000,0.194708,0,0,0,0,0,0,0
11,119999,97,110000,88,40000,40,9999,0.100000,0,0,0.000000,6,0.000000,0.000000,0.301032,0,0,0,0,0,0,0
11,119999,98,110000,12,20000,40,9999,0.100000,0,0,0.000000,6,0.000000,0.000000,1.342455,0,0,0,0,0,0,0
11,119999,99,110000,12,20000,40,9999,0.100000,0,0,0.000000,6,0.000000,0.000000,0.091368,0,0,0,0,0,0,0
12,129999,0,120000,36,0,40,9999,0.100000,0,0,0.000000,6,0.000000,0.000000,0.708028,0,0,0,0,0,0,0
12,129999,1,120000,36,10000,49,9999,0.100000,0,0,0.000000,6,11.000000,0.000000,19.165175,0,0,0,0,0,0,0
12,129999,2,120000,37,0,40,9999,0.100000,0,0,0.000000,6,0.000000,0.000000,0.211149,0,0,0,0,0,0,0
12,129999,3,120000,37,0,40,9999,0.100000,0,0,0.000000,6,0.000000,0.000000,2.140282,0,0,0,0,0,0,0
12,129999,4,120000,12,20000,40,9999,0.100000,0,0,0.000000,6,0.000000,0.000000,0.292985,0,0,0,0,0,0,0
12,129999,5,120000,37,0,40,9999,0.100000,0,0,0.000000,6,0.000000,0.000000,0.453958,0,0,0,0,0,0,0
12,129999,6,120000,12,110000,40,9999,0.100000,0,0,0.000000,6,0.000000,0.000000,4.463230,0,0,0,0,0,0,0
12,129999,7,120000,36,0,40,9999,0.100000,0,0,0.000000,6,0.000000,0.000000,4.635991,0,0,0,0,0,0,0
12,129999,8,120000,12,20000,40,9999,0.100000,0,0,0.000000,6,0.000000,0.000000,1.791815,0,0,0,0,0,0,0
12,129999,9,120000,36,10000,40,9999,0.100000,0,0,0.000000,6,0.000000,0.000000,1.191805,0,0,0,0,0,0,0
12,129999,10,120000,36,10000,40,9999,0.100000,0,0,0.000000,6,0.000000,0.000000,0.242565,0,0,0,0,0,0,0
12,129999,11,120000,36,0,49,9999,0.100000,0,0,0.000000,6,2.000000,0.000000,10.387209,0,0,0,0,0,0,0
12,129999,12,120000,12,110000,40,9999,0.100000,0,0,0.000000,6,0.000000,0.000000,2.902012,0,0,0,0,0,0,0
12,129999,13,120000,36,0,49,9999,0.100000,0,0,0.000000,6,4.000000,0.000000,12.476063,0,0,0,0,0,0,0
12,129999,14,120000,36,0,49,9999,0.100000,0,0,0.000000,6,1.000000,0.000000,1.722492,0,0,0,0,0,0,0
12,129999,15,120000,37,0,40,9999,0.100000,0,0,0.000000,6,0.000000,0.000000,1.026576,0,0,0,0,0,0,0
12,129999,16,120000,36,10000,40,9999,0.100000,0,0,0.000000,6,0.000000,0.000000,1.832214,0,0,0,0,0,0,0
12,129999,17,120000,6,10000,40,9999,0.100000,0,0,0.000000,6,0.000000,0.000000,0.140628,0,0,0,0,0,0,0
12,129999,18,120000,36,0,49,9999,0.100000,0,0,0.000000,6,1.000000,0.000000,12.312310,0,0,0,0,0,0,0
12,129999,19,120000,6,10000,49,9999,0.100000,0,0,0.000000,6,2.000000,0.000000,3.364302,0,0,0,0,0,0,0
12,129999,20,120000,37,0,49,9999,0.100000,0,0,0.000000,6,11.000000,0.000000,22.858640,0,0,0,0,0,0,0
12,129999,21,120000,37,0,40,9999,0.100000,0,0,0.000000,6,0.000000,0.000000,0.297043,0,0,0,0,0,0,0
12,129999,22,120000,88,40000,40,9999,0.100000,0,0,0.000000,6,0.000000,0.000000,0.199796,0,0,0,0,0,0,0
12,129999,23,120000,36,0,49,9999,0.100000,0,0,0.000000,6,2.000000,0.000000,11.308615,0,0,0,0,0,0,0
12,129999,24,120000,6,10000,40,9999,0.100000,0,0,0.000000,6,0.000000,0.000000,0.516156,0,0,0,0,0,0,0
12,129999,25,120000,36,10000,49,9999,0.100000,0,0,0.000000,6,2.000000,0.000000,8.651225,0,0,0,0,0,0,0
12,129999,26,120000,88,40000,40,9999,0.100000,0,0,0.000000,6,0.000000,0.000000,0.169902,0,0,0,0,0,0,0
12,129999,27,120000,12,20000,49,9999,0.100000,0,0,0.000000,6,8.000000,0.000000,18.842375,0,0,0,0,0,0,0
12,129999,28,120000,36,10000,40,9999,0.100000,0,0,0.000000,6,0.000000,0.000000,0.126396,0,0,0,0,0,0,0
12,129999,29,120000,36,10000,40,9999,0.100000,0,0,0.000000,6,0.000000,0.000000,0.117580,0,0,0,0,0,0,0
