generation,iteration,robot,birthday,ancestor_id,ancestor_birthday,cell_id,age,sigma,maps,genomes,fitness,cells_in_map,dist_max,dist_pot_max,dist_total,com_rx,com_tx,obj_group1,obj_group2,obj_group3,obj_group4,obj_group5
0,9999,0,0,0,0,49,9999,0.100000,0,0,0.000000,0,10.000000,0.000000,11.922573,0,0,0,0,0,0,0
0,9999,1,0,1,0,49,9999,0.100000,0,0,0.000000,0,10.000000,0.000000,19.234908,0,0,0,0,0,0,0
0,9999,2,0,2,0,49,9999,0.100000,0,0,0.000000,0,7.000000,0.000000,19.932313,0,0,0,0,0,0,0
0,9999,3,0,3,0,49,9999,0.100000,0,0,0.000000,0,6.000000,0.000000,12.192127,0,0,0,0,0,0,0
0,9999,4,0,4,0,49,9999,0.100000,0,0,0.000000,0,2.000000,0.000000,8.865077,0,0,0,0,0,0,0
0,9999,5,0,5,0,49,9999,0.100000,0,0,0.000000,0,7.000000,0.000000,16.343292,0,0,0,0,0,0,0
0,9999,6,0,6,0,49,9999,0.100000,0,0,0.000000,0,6.000000,0.000000,21.994300,0,0,0,0,0,0,0
0,9999,7,0,7,0,49,9999,0.100000,0,0,0.000000,0,8.000000,0.000000,15.798675,0,0,0,0,0,0,0
0,9999,8,0,8,0,49,9999,0.100000,0,0,0.000000,0,3.000000,0.000000,4.508986,0,0,0,0,0,0,0
0,9999,9,0,9,0,49,9999,0.100000,0,0,0.000000,0,7.000000,0.000000,9.659328,0,0,0,0,0,0,0
0,9999,10,0,10,0,99,9999,0.100000,0,0,47.368421,0,11.000000,0.000000,23.178787,0,0,1,0,0,0,0
0,9999,11,0,11,0,49,9999,0.100000,0,0,0.000000,0,10.000000,0.000000,17.175992,0,0,0,0,0,0,0
0,9999,12,0,12,0,49,9999,0.100000,0,0,0.000000,0,10.000000,0.000000,15.108904,0,0,0,0,0,0,0
0,9999,13,0,13,0,49,9999,0.100000,0,0,0.000000,0,8.000000,0.000000,9.061119,0,0,0,0,0,0,0
0,9999,14,0,14,0,49,9999,0.100000,0,0,0.000000,0,1.000000,0.000000,3.797001,0,0,0,0,0,0,0
0,9999,15,0,15,0,49,9999,0.100000,0,0,0.000000,0,5.000000,0.000000,10.124220,0,0,0,0,0,0,0
0,9999,16,0,16,0,49,9999,0.100000,0,0,0.000000,0,10.000000,0.000000,12.768224,0,0,0,0,0,0,0
0,9999,17,0,17,0,49,9999,0.100000,0,0,0.000000,0,12.000000,0.000000,26.411192,0,0,0,0,0,0,0
0,9999,18,0,18,0,49,9999,0.100000,0,0,0.000000,0,12.000000,0.000000,17.119131,0,0,0,0,0,0,0
0,9999,19,0,19,0,49,9999,0.100000,0,0,0.000000,0,8.000000,0.000000,9.881104,0,0,0,0,0,0,0
0,9999,20,0,20,0,49,9999,0.100000,0,0,0.000000,0,8.000000,0.000000,15.757586,0,0,0,0,0,0,0
0,9999,21,0,21,0,49,9999,0.100000,0,0,0.000000,0,6.000000,0.000000,10.789563,0,0,0,0,0,0,0
0,9999,22,0,22,0,49,9999,0.100000,0,0,0.000000,0,10.000000,0.000000,15.788585,0,0,0,0,0,0,0
0,9999,23,0,23,0,49,9999,0.100000,0,0,0.000000,0,10.000000,0.000000,18.122388,0,0,0,0,0,0,0
0,9999,24,0,24,0,49,9999,0.100000,0,0,0.000000,0,4.000000,0.000000,13.457769,0,0,0,0,0,0,0
0,9999,25,0,25,0,49,9999,0.100000,0,0,0.000000,0,5.000000,0.000000,6.133047,0,0,0,0,0,0,0
0,9999,26,0,26,0,49,9999,0.100000,0,0,0.000000,0,13.000000,0.000000,17.465045,0,0,0,0,0,0,0
0,9999,27,0,27,0,49,9999,0.100000,0,0,0.000000,0,6.000000,0.000000,8.251821,0,0,0,0,0,0,0
0,9999,28,0,28,0,49,9999,0.100000,0,0,0.000000,0,9.000000,0.000000,17.536369,0,0,0,0,0,0,0
0,9999,29,0,29,0,49,9999,0.100000,0,0,0.000000,0,9.000000,0.000000,19.750597,0,0,0,0,0,0,0
0,9999,30,0,30,0,49,9999,0.100000,0,0,0.000000,0,5.000000,0.000000,9.187127,0,0,0,0,0,0,0
0,9999,31,0,31,0,49,9999,0.100000,0,0,0.000000,0,9.000000,0.000000,12.777567,0,0,0,0,0,0,0
0,9999,32,0,32,0,49,9999,0.100000,0,0,0.000000,0,10.000000,0.000000,11.352186,0,0,0,0,0,0,0
0,9999,33,0,33,0,49,9999,0.100000,0,0,0.000000,0,12.000000,0.000000,17.500432,0,0,0,0,0,0,0
0,9999,34,0,34,0,49,9999,0.100000,0,0,0.000000,0,6.000000,0.000000,10.906552,0,0,0,0,0,0,0
0,9999,35,0,35,0,49,9999,0.100000,0,0,0.000000,0,7.000000,0.000000,16.186767,0,0,0,0,0,0,0
0,9999,36,0,36,0,49,9999,0.100000,0,0,0.000000,0,10.000000,0.000000,11.600818,0,0,0,0,0,0,0
0,9999,37,0,37,0,99,9999,0.100000,0,0,47.368421,0,11.000000,0.000000,17.155440,0,0,1,0,0,0,0
0,9999,38,0,38,0,49,9999,0.100000,0,0,0.000000,0,9.000000,0.000000,16.537328,0,0,0,0,0,0,0
0,9999,39,0,39,0,49,9999,0.100000,0,0,0.000000,0,9.000000,0.000000,11.726385,0,0,0,0,0,0,0
0,9999,40,0,40,0,49,9999,0.100000,0,0,0.000000,0,7.000000,0.000000,17.370272,0,0,0,0,0,0,0
0,9999,41,0,41,0,49,9999,0.100000,0,0,0.000000,0,9.000000,0.000000,21.615949,0,0,0,0,0,0,0
0,9999,42,0,42,0,49,9999,0.100000,0,0,0.000000,0,4.000000,0.000000,6.664748,0,0,0,0,0,0,0
0,9999,43,0,43,0,49,9999,0.100000,0,0,0.000000,0,9.000000,0.000000,21.690320,0,0,0,0,0,0,0
0,9999,44,0,44,0,49,9999,0.100000,0,0,0.000000,0,4.000000,0.000000,4.993485,0,0,0,0,0,0,0
0,9999,45,0,45,0,49,9999,0.100000,0,0,0.000000,0,8.000000,0.000000,18.337778,0,0,0,0,0,0,0
0,9999,46,0,46,0,49,9999,0.100000,0,0,0.000000,0,8.000000,0.000000,9.047103,0,0,0,0,0,0,0
0,9999,47,0,47,0,49,9999,0.100000,0,0,0.000000,0,7.000000,0.000000,9.311360,0,0,0,0,0,0,0
0,9999,48,0,48,0,49,9999,0.100000,0,0,0.000000,0,8.000000,0.000000,11.427320,0,0,0,0,0,0,0
0,9999,49,0,49,0,49,9999,0.100000,0,0,0.000000,0,12.000000,0.000000,17.445917,0,0,0,0,0,0,0
0,9999,50,0,50,0,49,9999,0.100000,0,0,0.000000,0,4.000000,0.000000,20.983977,0,0,0,0,0,0,0
0,9999,51,0,51,0,49,9999,0.100000,0,0,0.000000,0,5.000000,0.000000,12.218790,0,0,0,0,0,0,0
0,9999,52,0,52,0,99,9999,0.100000,0,0,47.368421,0,8.000000,0.000000,27.679858,0,0,1,0,0,0,0
0,9999,53,0,53,0,49,9999,0.100000,0,0,0.000000,0,6.000000,0.000000,9.192947,0,0,0,0,0,0,0
0,9999,54,0,54,0,49,9999,0.100000,0,0,0.000000,0,7.000000,0.000000,21.442176,0,0,0,0,0,0,0
0,9999,55,0,55,0,49,9999,0.100000,0,0,0.000000,0,6.000000,0.000000,19.902046,0,0,0,0,0,0,0
0,9999,56,0,56,0,49,9999,0.100000,0,0,0.000000,0,9.000000,0.000000,17.143284,0,0,0,0,0,0,0
0,9999,57,0,57,0,49,9999,0.100000,0,0,0.000000,0,4.000000,0.000000,5.011352,0,0,0,0,0,0,0
0,9999,58,0,58,0,49,9999,0.100000,0,0,0.000000,0,8.000000,0.000000,18.544181,0,0,0,0,0,0,0
0,9999,59,0,59,0,49,9999,0.100000,0,0,0.000000,0,8.000000,0.000000,17.459957,0,0,0,0,0,0,0
0,9999,60,0,60,0,49,9999,0.100000,0,0,0.000000,0,6.000000,0.000000,9.228502,0,0,0,0,0,0,0
0,9999,61,0,61,0,49,9999,0.100000,0,0,0.000000,0,7.000000,0.000000,15.913455,0,0,0,0,0,0,0
0,9999,62,0,62,0,49,9999,0.100000,0,0,0.000000,0,6.000000,0.000000,8.800185,0,0,0,0,0,0,0
0,9999,63,0,63,0,49,9999,0.100000,0,0,0.000000,0,9.000000,0.000000,11.197634,0,0,0,0,0,0,0
0,9999,64,0,64,0,49,9999,0.100000,0,0,0.000000,0,8.000000,0.000000,10.697343,0,0,0,0,0,0,0
0,9999,65,0,65,0,49,9999,0.100000,0,0,0.000000,0,7.000000,0.000000,11.340492,0,0,0,0,0,0,0
0,9999,66,0,66,0,49,9999,0.100000,0,0,0.000000,0,9.000000,0.000000,12.543977,0,0,0,0,0,0,0
0,9999,67,0,67,0,49,9999,0.100000,0,0,0.000000,0,5.000000,0.000000,18.068983,0,0,0,0,0,0,0
0,9999,68,0,68,0,49,9999,0.100000,0,0,0.000000,0,5.000000,0.000000,12.735309,0,0,0,0,0,0,0
0,9999,69,0,69,0,49,9999,0.100000,0,0,0.000000,0,5.000000,0.000000,8.775931,0,0,0,0,0,0,0
0,9999,70,0,70,0,49,9999,0.100000,0,0,0.000000,0,13.000000,0.000000,19.851946,0,0,0,0,0,0,0
0,9999,71,0,71,0,49,9999,0.100000,0,0,0.000000,0,7.000000,0.000000,21.403098,0,0,0,0,0,0,0
0,9999,72,0,72,0,49,9999,0.100000,0,0,0.000000,0,4.000000,0.000000,8.499252,0,0,0,0,0,0,0
0,9999,73,0,73,0,49,9999,0.100000,0,0,0.000000,0,10.000000,0.000000,21.312175,0,0,0,0,0,0,0
0,9999,74,0,74,0,49,9999,0.100000,0,0,0.000000,0,10.000000,0.000000,15.974353,0,0,0,0,0,0,0
0,9999,75,0,75,0,49,9999,0.100000,0,0,0.000000,0,13.000000,0.000000,24.274639,0,0,0,0,0,0,0
0,9999,76,0,76,0,49,9999,0.100000,0,0,0.000000,0,4.000000,0.000000,6.328729,0,0,0,0,0,0,0
0,9999,77,0,77,0,49,9999,0.100000,0,0,0.000000,0,10.000000,0.000000,18.972068,0,0,0,0,0,0,0
0,9999,78,0,78,0,40,9999,0.100000,0,0,0.000000,0,0.000000,0.000000,2.507254,0,0,0,0,0,0,0
0,9999,79,0,79,0,49,9999,0.100000,0,0,0.000000,0,10.000000,0.000000,12.017811,0,0,0,0,0,0,0
0,9999,80,0,80,0,49,9999,0.100000,0,0,0.000000,0,12.000000,0.000000,19.710473,0,0,0,0,0,0,0
0,9999,81,0,81,0,49,9999,0.100000,0,0,0.000000,0,7.000000,0.000000,30.568928,0,0,0,0,0,0,0
0,9999,82,0,82,0,49,9999,0.100000,0,0,0.000000,0,4.000000,0.000000,17.867094,0,0,0,0,0,0,0
0,9999,83,0,83,0,49,9999,0.100000,0,0,0.000000,0,8.000000,0.000000,18.037132,0,0,0,0,0,0,0
0,9999,84,0,84,0,49,9999,0.100000,0,0,0.000000,0,9.000000,0.000000,12.011333,0,0,0,0,0,0,0
0,9999,85,0,85,0,49,9999,0.100000,0,0,0.000000,0,10.000000,0.000000,14.149400,0,0,0,0,0,0,0
0,9999,86,0,86,0,49,9999,0.100000,0,0,0.000000,0,9.000000,0.000000,15.004285,0,0,0,0,0,0,0
0,9999,87,0,87,0,49,9999,0.100000,0,0,0.000000,0,4.000000,0.000000,14.438261,0,0,0,0,0,0,0
0,9999,88,0,88,0,49,9999,0.100000,0,0,0.000000,0,3.000000,0.000000,11.141939,0,0,0,0,0,0,0
0,9999,89,0,89,0,49,9999,0.100000,0,0,0.000000,0,6.000000,0.000000,14.439120,0,0,0,0,0,0,0
0,9999,90,0,90,0,49,9999,0.100000,0,0,0.000000,0,9.000000,0.000000,11.046409,0,0,0,0,0,0,0
0,9999,91,0,91,0,49,9999,0.100000,0,0,0.000000,0,9.000000,0.000000,11.677456,0,0,0,0,0,0,0
0,9999,92,0,92,0,49,9999,0.100000,0,0,0.000000,0,2.000000,0.000000,3.540635,0,0,0,0,0,0,0
0,9999,93,0,93,0,49,9999,0.100000,0,0,0.000000,0,7.000000,0.000000,8.025470,0,0,0,0,0,0,0
0,9999,94,0,94,0,49,9999,0.100000,0,0,0.000000,0,9.000000,0.000000,14.491334,0,0,0,0,0,0,0
0,9999,95,0,95,0,49,9999,0.100000,0,0,0.000000,0,9.000000,0.000000,16.713304,0,0,0,0,0,0,0
0,9999,96,0,96,0,99,9999,0.100000,0,0,47.368421,0,9.000000,0.000000,29.288782,0,0,1,0,0,0,0
0,9999,97,0,97,0,49,9999,0.100000,0,0,0.000000,0,7.000000,0.000000,19.041554,0,0,0,0,0,0,0
0,9999,98,0,98,0,49,9999,0.100000,0,0,0.000000,0,2.000000,0.000000,8.428504,0,0,0,0,0,0,0
0,9999,99,0,99,0,49,9999,0.100000,0,0,0.000000,0,7.000000,0.000000,19.880026,0,0,0,0,0,0,0
1,19999,0,10000,5,0,49,9999,0.100000,0,0,0.000000,2,1.000000,0.000000,4.684370,0,0,0,0,0,0,0
1,19999,1,0,1,0,40,19999,0.100000,0,0,0.000000,1,0.000000,0.000000,8.258446,0,0,0,0,0,0,0
1,19999,2,0,2,0,49,19999,0.100000,0,0,0.000000,3,1.000000,0.000000,10.450844,0,0,0,0,0,0,0
1,19999,3,0,3,0,49,19999,0.100000,0,0,0.000000,4,2.000000,0.000000,7.805643,0,0,0,0,0,0,0
1,19999,4,10000,78,0,49,9999,0.100000,0,0,0.000000,4,4.000000,0.000000,9.284830,0,0,0,0,0,0,0
1,19999,5,0,5,0,49,19999,0.100000,0,0,0.000000,2,3.000000,0.000000,15.545048,0,0,0,0,0,0,0
1,19999,6,10000,1,0,49,9999,0.100000,0,0,0.000000,2,1.000000,0.000000,9.459419,0,0,0,0,0,0,0
1,19999,7,10000,28,0,40,9999,0.100000,0,0,0.000000,3,0.000000,0.000000,0.104603,0,0,0,0,0,0,0
1,19999,8,10000,95,0,40,9999,0.100000,0,0,0.000000,3,0.000000,0.000000,0.191027,0,0,0,0,0,0,0
1,19999,9,10000,5,0,40,9999,0.100000,0,0,0.000000,3,0.000000,0.000000,1.996078,0,0,0,0,0,0,0
1,19999,10,10000,10,0,49,9999,0.100000,0,0,0.000000,3,1.000000,0.000000,11.669821,0,0,0,0,0,0,0
1,19999,11,10000,78,0,49,9999,0.100000,0,0,0.000000,4,5.000000,0.000000,10.178710,0,0,0,0,0,0,0
1,19999,12,10000,28,0,40,9999,0.100000,0,0,0.000000,3,0.000000,0.000000,0.921375,0,0,0,0,0,0,0
1,19999,13,10000,32,0,40,9999,0.100000,0,0,0.000000,4,0.000000,0.000000,1.196998,0,0,0,0,0,0,0
1,19999,14,10000,0,0,40,9999,0.100000,0,0,0.000000,3,0.000000,0.000000,0.392401,0,0,0,0,0,0,0
1,19999,15,10000,0,0,40,9999,0.100000,0,0,0.000000,3,0.000000,0.000000,0.646941,0,0,0,0,0,0,0
1,19999,16,10000,73,0,49,9999,0.100000,0,0,0.000000,4,9.000000,0.000000,45.792621,0,0,0,0,0,0,0
1,19999,17,10000,0,0,49,9999,0.100000,0,0,0.000000,3,2.000000,0.000000,21.879850,0,0,0,0,0,0,0
1,19999,18,10000,28,0,40,9999,0.100000,0,0,0.000000,3,0.000000,0.000000,6.296275,0,0,0,0,0,0,0
1,19999,19,10000,78,0,40,9999,0.100000,0,0,0.000000,4,0.000000,0.000000,0.306211,0,0,0,0,0,0,0
1,19999,20,10000,73,0,49,9999,0.100000,0,0,0.000000,4,3.000000,0.000000,17.543397,0,0,0,0,0,0,0
1,19999,21,10000,1,0,40,9999,0.100000,0,0,0.000000,2,0.000000,0.000000,0.306752,0,0,0,0,0,0,0
1,19999,22,10000,5,0,40,9999,0.100000,0,0,0.000000,2,0.000000,0.000000,1.162342,0,0,0,0,0,0,0
1,19999,23,10000,78,0,40,9999,0.100000,0,0,0.000000,4,0.000000,0.000000,0.868381,0,0,0,0,0,0,0
1,19999,24,10000,36,0,49,9999,0.100000,0,0,0.000000,3,1.000000,0.000000,6.073006,0,0,0,0,0,0,0
1,19999,25,10000,0,0,40,9999,0.100000,0,0,0.000000,4,0.000000,0.000000,0.094802,0,0,0,0,0,0,0
1,19999,26,10000,28,0,40,9999,0.100000,0,0,0.000000,3,0.000000,0.000000,0.256855,0,0,0,0,0,0,0
1,19999,27,10000,78,0,49,9999,0.100000,0,0,0.000000,4,1.000000,0.000000,1.998359,0,0,0,0,0,0,0
1,19999,28,10000,5,0,99,9999,0.100000,0,0,34.210526,3,4.000000,0.000000,6.251029,0,0,1,0,0,0,0
1,19999,29,10000,1,0,49,9999,0.100000,0,0,0.000000,2,4.000000,0.000000,17.136617,0,0,0,0,0,0,0
1,19999,30,10000,78,0,9,9999,0.100000,0,0,34.210526,4,2.000000,0.000000,7.009118,0,0,0,1,0,0,0
1,19999,31,10000,5,0,49,9999,0.100000,0,0,0.000000,3,3.000000,0.000000,15.055370,0,0,0,0,0,0,0
1,19999,32,10000,0,0,49,9999,0.100000,0,0,0.000000,3,6.000000,0.000000,14.064207,0,0,0,0,0,0,0
1,19999,33,10000,0,0,40,9999,0.100000,0,0,0.000000,2,0.000000,0.000000,1.025239,0,0,0,0,0,0,0
1,19999,34,10000,0,0,40,9999,0.100000,0,0,0.000000,2,0.000000,0.000000,0.793219,0,0,0,0,0,0,0
1,19999,35,10000,0,0,49,9999,0.100000,0,0,0.000000,4,2.000000,0.000000,11.823735,0,0,0,0,0,0,0
1,19999,36,10000,28,0,49,9999,0.100000,0,0,0.000000,3,1.000000,0.000000,2.077911,0,0,0,0,0,0,0
1,19999,37,10000,0,0,40,9999,0.100000,0,0,0.000000,4,0.000000,0.000000,17.207746,0,0,0,0,0,0,0
1,19999,38,10000,36,0,40,9999,0.100000,0,0,0.000000,3,0.000000,0.000000,5.120280,0,0,0,0,0,0,0
1,19999,39,10000,5,0,40,9999,0.100000,0,0,0.000000,2,0.000000,0.000000,0.702184,0,0,0,0,0,0,0
1,19999,40,10000,78,0,49,9999,0.100000,0,0,0.000000,4,4.000000,0.000000,7.697335,0,0,0,0,0,0,0
1,19999,41,10000,73,0,49,9999,0.100000,0,0,0.000000,4,2.000000,0.000000,7.780885,0,0,0,0,0,0,0
1,19999,42,10000,0,0,40,9999,0.100000,0,0,0.000000,4,0.000000,0.000000,0.697619,0,0,0,0,0,0,0
1,19999,43,10000,28,0,49,9999,0.100000,0,0,0.000000,3,5.000000,0.000000,14.090496,0,0,0,0,0,0,0
1,19999,44,10000,0,0,40,9999,0.100000,0,0,0.000000,2,0.000000,0.000000,0.316647,0,0,0,0,0,0,0
1,19999,45,10000,28,0,49,9999,0.100000,0,0,0.000000,3,3.000000,0.000000,6.973095,0,0,0,0,0,0,0
1,19999,46,10000,0,0,40,9999,0.100000,0,0,0.000000,3,0.000000,0.000000,0.111518,0,0,0,0,0,0,0
1,19999,47,10000,73,0,40,9999,0.100000,0,0,0.000000,4,0.000000,0.000000,0.195427,0,0,0,0,0,0,0
1,19999,48,10000,73,0,40,9999,0.100000,0,0,0.000000,4,0.000000,0.000000,1.056695,0,0,0,0,0,0,0
1,19999,49,10000,73,0,40,9999,0.100000,0,0,0.000000,4,0.000000,0.000000,0.289895,0,0,0,0,0,0,0
1,19999,50,10000,78,0,40,9999,0.100000,0,0,0.000000,4,0.000000,0.000000,1.834807,0,0,0,0,0,0,0
1,19999,51,10000,5,0,40,9999,0.100000,0,0,0.000000,2,0.000000,0.000000,1.653361,0,0,0,0,0,0,0
1,19999,52,10000,0,0,40,9999,0.100000,0,0,0.000000,4,0.000000,0.000000,4.417693,0,0,0,0,0,0,0
1,19999,53,10000,28,0,49,9999,0.100000,0,0,0.000000,3,1.000000,0.000000,6.359361,0,0,0,0,0,0,0
1,19999,54,10000,28,0,49,9999,0.100000,0,0,0.000000,3,1.000000,0.000000,9.839945,0,0,0,0,0,0,0
1,19999,55,10000,32,0,49,9999,0.100000,0,0,0.000000,4,2.000000,0.000000,24.088656,0,0,0,0,0,0,0
1,19999,56,10000,73,0,49,9999,0.100000,0,0,0.000000,4,2.000000,0.000000,5.772374,0,0,0,0,0,0,0
1,19999,57,10000,5,0,40,9999,0.100000,0,0,0.000000,2,0.000000,0.000000,0.745261,0,0,0,0,0,0,0
1,19999,58,10000,95,0,49,9999,0.100000,0,0,0.000000,3,4.000000,0.000000,5.518931,0,0,0,0,0,0,0
1,19999,59,0,59,0,40,19999,0.100000,0,0,0.000000,3,0.000000,0.000000,0.094951,0,0,0,0,0,0,0
1,19999,60,10000,10,0,40,9999,0.100000,0,0,0.000000,3,0.000000,0.000000,0.291282,0,0,0,0,0,0,0
1,19999,61,10000,28,0,40,9999,0.100000,0,0,0.000000,3,0.000000,0.000000,0.178653,0,0,0,0,0,0,0
1,19999,62,10000,95,0,49,9999,0.100000,0,0,0.000000,3,3.000000,0.000000,16.368740,0,0,0,0,0,0,0
1,19999,63,0,63,0,40,19999,0.100000,0,0,0.000000,4,0.000000,0.000000,0.694855,0,0,0,0,0,0,0
1,19999,64,10000,0,0,40,9999,0.100000,0,0,0.000000,3,0.000000,0.000000,1.005580,0,0,0,0,0,0,0
1,19999,65,10000,0,0,40,9999,0.100000,0,0,0.000000,3,0.000000,0.000000,0.908012,0,0,0,0,0,0,0
1,19999,66,0,66,0,40,19999,0.100000,0,0,0.000000,2,0.000000,0.000000,5.100242,0,0,0,0,0,0,0
1,19999,67,10000,73,0,9,9999,0.100000,0,0,34.210526,4,2.000000,0.000000,7.162920,0,0,0,1,0,0,0
1,19999,68,0,68,0,40,19999,0.100000,0,0,0.000000,2,0.000000,0.000000,0.173946,0,0,0,0,0,0,0
1,19999,69,10000,95,0,40,9999,0.100000,0,0,0.000000,3,0.000000,0.000000,2.498764,0,0,0,0,0,0,0
1,19999,70,10000,73,0,40,9999,0.100000,0,0,0.000000,4,0.000000,0.000000,1.135674,0,0,0,0,0,0,0
1,19999,71,10000,73,0,49,9999,0.100000,0,0,0.000000,4,4.000000,0.000000,24.561323,0,0,0,0,0,0,0
1,19999,72,10000,28,0,40,9999,0.100000,0,0,0.000000,3,0.000000,0.000000,0.921582,0,0,0,0,0,0,0
1,19999,73,10000,36,0,40,9999,0.100000,0,0,0.000000,3,0.000000,0.000000,5.330227,0,0,0,0,0,0,0
1,19999,74,10000,0,0,40,9999,0.100000,0,0,0.000000,2,0.000000,0.000000,1.219964,0,0,0,0,0,0,0
1,19999,75,10000,73,0,40,9999,0.100000,0,0,0.000000,4,0.000000,0.000000,0.996288,0,0,0,0,0,0,0
1,19999,76,10000,0,0,40,9999,0.100000,0,0,0.000000,3,0.000000,0.000000,0.581247,0,0,0,0,0,0,0
1,19999,77,10000,78,0,49,9999,0.100000,0,0,0.000000,4,1.000000,0.000000,3.699168,0,0,0,0,0,0,0
1,19999,78,10000,73,0,40,9999,0.100000,0,0,0.000000,4,0.000000,0.000000,0.189089,0,0,0,0,0,0,0
1,19999,79,10000,73,0,49,9999,0.100000,0,0,0.000000,4,5.000000,0.000000,10.568371,0,0,0,0,0,0,0
1,19999,80,10000,95,0,40,9999,0.100000,0,0,0.000000,3,0.000000,0.000000,1.399568,0,0,0,0,0,0,0
1,19999,81,10000,78,0,49,9999,0.100000,0,0,0.000000,4,1.000000,0.000000,13.054155,0,0,0,0,0,0,0
1,19999,82,10000,0,0,40,9999,0.100000,0,0,0.000000,3,0.000000,0.000000,0.640165,0,0,0,0,0,0,0
1,19999,83,10000,0,0,40,9999,0.100000,0,0,0.000000,4,0.000000,0.000000,6.911440,0,0,0,0,0,0,0
1,19999,84,10000,32,0,40,9999,0.100000,0,0,0.000000,4,0.000000,0.000000,0.601953,0,0,0,0,0,0,0
1,19999,85,10000,73,0,49,9999,0.100000,0,0,0.000000,4,4.000000,0.000000,7.532459,0,0,0,0,0,0,0
1,19999,86,10000,78,0,40,9999,0.100000,0,0,0.000000,4,0.000000,0.000000,0.258219,0,0,0,0,0,0,0
1,19999,87,10000,0,0,40,9999,0.100000,0,0,0.000000,4,0.000000,0.000000,0.697070,0,0,0,0,0,0,0
1,19999,88,10000,28,0,49,9999,0.100000,0,0,0.000000,3,1.000000,0.000000,9.954056,0,0,0,0,0,0,0
1,19999,89,10000,28,0,49,9999,0.100000,0,0,0.000000,3,1.000000,0.000000,5.582577,0,0,0,0,0,0,0
1,19999,90,10000,0,0,49,9999,0.100000,0,0,0.000000,4,4.000000,0.000000,4.663155,0,0,0,0,0,0,0
1,19999,91,10000,5,0,40,9999,0.100000,0,0,0.000000,2,0.000000,0.000000,1.320688,0,0,0,0,0,0,0
1,19999,92,10000,73,0,40,9999,0.100000,0,0,0.000000,4,0.000000,0.000000,0.446520,0,0,0,0,0,0,0
1,19999,93,10000,36,0,40,9999,0.100000,0,0,0.000000,3,0.000000,0.000000,0.151547,0,0,0,0,0,0,0
1,19999,94,10000,78,0,40,9999,0.100000,0,0,0.000000,4,0.000000,0.000000,0.492598,0,0,0,0,0,0,0
1,19999,95,10000,95,0,49,9999,0.100000,0,0,0.000000,3,1.000000,0.000000,1.742765,0,0,0,0,0,0,0
1,19999,96,10000,73,0,49,9999,0.100000,0,0,0.000000,4,4.000000,0.000000,8.030653,0,0,0,0,0,0,0
1,19999,97,10000,95,0,49,9999,0.100000,0,0,0.000000,3,1.000000,0.000000,15.932344,0,0,0,0,0,0,0
1,19999,98,10000,36,0,49,9999,0.100000,0,0,0.000000,3,4.000000,0.000000,15.389109,0,0,0,0,0,0,0
1,19999,99,10000,0,0,49,9999,0.100000,0,0,0.000000,4,2.000000,0.000000,14.006592,0,0,0,0,0,0,0
2,29999,0,20000,32,0,0,9999,0.100000,0,0,0.000000,4,0.000000,0.000000,3.147369,0,0,0,2,0,0,0
2,29999,1,20000,65,10000,0,9999,0.100000,0,0,0.000000,5,0.000000,0.000000,0.401707,0,0,0,0,0,2,0
2,29999,2,20000,65,10000,49,9999,0.100000,0,0,0.000000,5,6.000000,0.000000,10.732408,0,0,0,0,0,0,0
2,29999,3,20000,65,10000,40,9999,0.100000,0,0,0.000000,5,0.000000,0.000000,1.887326,0,0,0,0,0,0,0
2,29999,4,20000,0,0,9,9999,0.100000,0,0,34.210526,5,6.000000,0.000000,15.829425,0,0,0,1,0,0,0
2,29999,5,20000,0,0,49,9999,0.100000,0,0,0.000000,5,4.000000,0.000000,16.739934,0,0,0,0,0,0,0
2,29999,6,20000,32,0,40,9999,0.100000,0,0,0.000000,5,0.000000,0.000000,5.363050,0,0,0,0,0,0,0
2,29999,7,20000,73,0,40,9999,0.100000,0,0,0.000000,5,0.000000,0.000000,0.176755,0,0,0,0,0,0,0
2,29999,8,20000,0,0,40,9999,0.100000,0,0,0.000000,5,0.000000,0.000000,0.322159,0,0,0,0,0,0,0
2,29999,9,20000,12,10000,40,9999,0.100000,0,0,0.000000,5,0.000000,0.000000,0.534934,0,0,0,0,0,0,0
2,29999,10,20000,1,0,49,9999,0.100000,0,0,0.000000,5,1.000000,0.000000,8.244726,0,0,0,0,0,0,0
2,29999,11,20000,65,10000,49,9999,0.100000,0,0,0.000000,5,4.000000,0.000000,16.697542,0,0,0,0,0,0,0
2,29999,12,20000,32,0,0,9999,0.100000,0,0,0.000000,5,0.000000,0.000000,0.572320,0,0,0,2,0,0,0
2,29999,13,20000,1,0,40,9999,0.100000,0,0,0.000000,5,0.000000,0.000000,0.882743,0,0,0,0,0,0,0
2,29999,14,20000,73,0,40,9999,0.100000,0,0,0.000000,5,0.000000,0.000000,8.526198,0,0,0,0,0,0,0
2,29999,15,20000,70,10000,40,9999,0.100000,0,0,0.000000,5,0.000000,0.000000,0.551007,0,0,0,0,0,0,0
2,29999,16,20000,73,0,49,9999,0.100000,0,0,0.000000,5,4.000000,0.000000,20.776557,0,0,0,0,0,0,0
2,29999,17,20000,0,0,40,9999,0.100000,0,0,0.000000,5,0.000000,0.000000,20.182521,0,0,0,0,0,0,0
2,29999,18,20000,18,10000,40,9999,0.100000,0,0,0.000000,5,0.000000,0.000000,0.168730,0,0,0,0,0,0,0
2,29999,19,20000,0,0,40,9999,0.100000,0,0,0.000000,5,0.000000,0.000000,0.418661,0,0,0,0,0,0,0
2,29999,20,20000,32,0,49,9999,0.100000,0,0,0.000000,5,3.000000,0.000000,7.760069,0,0,0,0,0,0,0
2,29999,21,20000,73,0,40,9999,0.100000,0,0,0.000000,5,0.000000,0.000000,0.511826,0,0,0,0,0,0,0
2,29999,22,20000,0,0,40,9999,0.100000,0,0,0.000000,5,0.000000,0.000000,0.945796,0,0,0,0,0,0,0
2,29999,23,20000,0,0,40,9999,0.100000,0,0,0.000000,5,0.000000,0.000000,0.773486,0,0,0,0,0,0,0
2,29999,24,20000,73,0,99,9999,0.100000,0,0,34.210526,5,8.000000,0.000000,20.778963,0,0,1,0,0,0,0
2,29999,25,20000,0,0,40,9999,0.100000,0,0,0.000000,5,0.000000,0.000000,0.616904,0,0,0,0,0,0,0
2,29999,26,20000,73,0,40,9999,0.100000,0,0,0.000000,5,0.000000,0.000000,0.472193,0,0,0,0,0,0,0
2,29999,27,20000,32,0,40,9999,0.100000,0,0,0.000000,5,0.000000,0.000000,0.229271,0,0,0,0,0,0,0
2,29999,28,20000,0,0,40,9999,0.100000,0,0,0.000000,5,0.000000,0.000000,0.270721,0,0,0,0,0,0,0
2,29999,29,20000,73,0,49,9999,0.100000,0,0,0.000000,5,3.000000,0.000000,3.787081,0,0,0,0,0,0,0
2,29999,30,20000,18,10000,40,9999,0.100000,0,0,0.000000,5,0.000000,0.000000,0.869175,0,0,0,0,0,0,0
2,29999,31,20000,65,10000,49,9999,0.100000,0,0,0.000000,5,3.000000,0.000000,13.811717,0,0,0,0,0,0,0
2,29999,32,20000,1,0,40,9999,0.100000,0,0,0.000000,5,0.000000,0.000000,1.512596,0,0,0,0,0,0,0
2,29999,33,20000,0,0,40,9999,0.100000,0,0,0.000000,5,0.000000,0.000000,1.026624,0,0,0,0,0,0,0
2,29999,34,20000,73,0,40,9999,0.100000,0,0,0.000000,5,0.000000,0.000000,0.456011,0,0,0,0,0,0,0
2,29999,35,20000,32,0,49,9999,0.100000,0,0,0.000000,5,6.000000,0.000000,18.043021,0,0,0,0,0,0,0
2,29999,36,20000,12,10000,40,9999,0.100000,0,0,0.000000,5,0.000000,0.000000,4.058474,0,0,0,0,0,0,0
2,29999,37,20000,73,0,9,9999,0.100000,0,0,0.000000,5,1.000000,0.000000,3.027883,0,0,0,1,0,0,0
2,29999,38,20000,0,0,40,9999,0.100000,0,0,0.000000,5,0.000000,0.000000,1.082308,0,0,0,0,0,0,0
2,29999,39,20000,32,0,9,9999,0.100000,0,0,0.000000,5,4.000000,0.000000,8.892156,0,0,0,0,0,1,0
2,29999,40,20000,73,0,9,9999,0.100000,0,0,0.000000,5,1.000000,0.000000,3.876685,0,0,0,2,0,0,0
2,29999,41,20000,32,0,40,9999,0.100000,0,0,0.000000,5,0.000000,0.000000,1.736357,0,0,0,0,0,0,0
2,29999,42,20000,0,0,40,9999,0.100000,0,0,0.000000,5,0.000000,0.000000,0.740084,0,0,0,0,0,0,0
2,29999,43,20000,32,0,40,9999,0.100000,0,0,0.000000,5,0.000000,0.000000,4.132105,0,0,0,0,0,0,0
2,29999,44,20000,12,10000,40,9999,0.100000,0,0,0.000000,5,0.000000,0.000000,0.080970,0,0,0,0,0,0,0
2,29999,45,20000,65,10000,40,9999,0.100000,0,0,0.000000,5,0.000000,0.000000,0.637606,0,0,0,0,0,0,0
2,29999,46,20000,18,10000,40,9999,0.100000,0,0,0.000000,5,0.000000,0.000000,0.229297,0,0,0,0,0,0,0
2,29999,47,20000,0,0,40,9999,0.100000,0,0,0.000000,5,0.000000,0.000000,0.582560,0,0,0,0,0,0,0
2,29999,48,20000,0,0,49,9999,0.100000,0,0,0.000000,5,1.000000,0.000000,2.394745,0,0,0,0,0,0,0
2,29999,49,20000,1,0,40,9999,0.100000,0,0,0.000000,5,0.000000,0.000000,0.241637,0,0,0,0,0,0,0
2,29999,50,20000,65,10000,40,9999,0.100000,0,0,0.000000,5,0.000000,0.000000,0.178293,0,0,0,0,0,0,0
2,29999,51,20000,32,0,49,9999,0.100000,0,0,0.000000,5,9.000000,0.000000,11.009638,0,0,0,0,0,0,0
2,29999,52,20000,70,10000,40,9999,0.100000,0,0,0.000000,5,0.000000,0.000000,0.310329,0,0,0,0,0,0,0
2,29999,53,20000,1,0,40,9999,0.100000,0,0,0.000000,5,0.000000,0.000000,1.614435,0,0,0,0,0,0,0
2,29999,54,20000,32,0,49,9999,0.100000,0,0,0.000000,5,1.000000,0.000000,8.404518,0,0,0,0,0,0,0
2,29999,55,20000,73,0,49,9999,0.100000,0,0,0.000000,5,2.000000,0.000000,27.851932,0,0,0,0,0,0,0
2,29999,56,20000,12,10000,40,9999,0.100000,0,0,0.000000,5,0.000000,0.000000,0.342737,0,0,0,0,0,0,0
2,29999,57,20000,0,0,40,9999,0.100000,0,0,0.000000,5,0.000000,0.000000,0.826825,0,0,0,0,0,0,0
2,29999,58,10000,95,0,9,19999,0.100000,0,0,0.000000,5,1.000000,0.000000,2.748491,0,0,0,2,0,0,0
2,29999,59,20000,18,10000,40,9999,0.100000,0,0,0.000000,5,0.000000,0.000000,0.169163,0,0,0,0,0,0,0
2,29999,60,20000,70,10000,40,9999,0.100000,0,0,0.000000,5,0.000000,0.000000,0.092998,0,0,0,0,0,0,0
2,29999,61,20000,0,0,40,9999,0.100000,0,0,0.000000,5,0.000000,0.000000,0.155809,0,0,0,0,0,0,0
2,29999,62,20000,32,0,40,9999,0.100000,0,0,0.000000,5,0.000000,0.000000,0.313755,0,0,0,0,0,0,0
2,29999,63,20000,1,0,9,9999,0.100000,0,0,0.000000,5,1.000000,0.000000,14.875637,0,0,0,0,0,1,0
2,29999,64,20000,73,0,40,9999,0.100000,0,0,0.000000,5,0.000000,0.000000,0.439793,0,0,0,0,0,0,0
2,29999,65,20000,0,0,40,9999,0.100000,0,0,0.000000,5,0.000000,0.000000,0.705754,0,0,0,0,0,0,0
2,29999,66,20000,32,0,49,9999,0.100000,0,0,0.000000,5,2.000000,0.000000,10.299695,0,0,0,0,0,0,0
2,29999,67,20000,73,0,40,9999,0.100000,0,0,0.000000,5,0.000000,0.000000,0.325886,0,0,0,0,0,0,0
2,29999,68,20000,65,10000,49,9999,0.100000,0,0,0.000000,5,1.000000,0.000000,2.732776,0,0,0,0,0,0,0
2,29999,69,20000,73,0,40,9999,0.100000,0,0,0.000000,5,0.000000,0.000000,4.526862,0,0,0,0,0,0,0
2,29999,70,20000,73,0,40,9999,0.100000,0,0,0.000000,5,0.000000,0.000000,0.133181,0,0,0,0,0,0,0
2,29999,71,20000,32,0,49,9999,0.100000,0,0,0.000000,5,1.000000,0.000000,5.874190,0,0,0,0,0,0,0
2,29999,72,20000,73,0,49,9999,0.100000,0,0,0.000000,5,5.000000,0.000000,26.964049,0,0,0,0,0,0,0
2,29999,73,20000,65,10000,40,9999,0.100000,0,0,0.000000,5,0.000000,0.000000,3.792938,0,0,0,0,0,0,0
2,29999,74,20000,32,0,49,9999,0.100000,0,0,0.000000,5,1.000000,0.000000,2.749566,0,0,0,0,0,0,0
2,29999,75,20000,0,0,40,9999,0.100000,0,0,0.000000,5,0.000000,0.000000,1.009309,0,0,0,0,0,0,0
2,29999,76,20000,65,10000,49,9999,0.100000,0,0,0.000000,5,1.000000,0.000000,2.073505,0,0,0,0,0,0,0
2,29999,77,20000,12,10000,40,9999,0.100000,0,0,0.000000,5,0.000000,0.000000,1.440300,0,0,0,0,0,0,0
2,29999,78,20000,0,0,40,9999,0.100000,0,0,0.000000,5,0.000000,0.000000,0.195787,0,0,0,0,0,0,0
2,29999,79,20000,65,10000,40,9999,0.100000,0,0,0.000000,5,0.000000,0.000000,0.087752,0,0,0,0,0,0,0
2,29999,80,20000,0,0,40,9999,0.100000,0,0,0.000000,5,0.000000,0.000000,0.769046,0,0,0,0,0,0,0
2,29999,81,20000,65,10000,49,9999,0.100000,0,0,0.000000,5,2.000000,0.000000,10.950721,0,0,0,0,0,0,0
2,29999,82,20000,32,0,40,9999,0.100000,0,0,0.000000,5,0.000000,0.000000,0.086732,0,0,0,0,0,0,0
2,29999,83,20000,0,0,49,9999,0.100000,0,0,0.000000,5,1.000000,0.000000,3.233397,0,0,0,0,0,0,0
2,29999,84,20000,32,0,9,9999,0.100000,0,0,0.000000,5,2.000000,0.000000,4.482496,0,0,0,1,0,0,0
2,29999,85,20000,32,0,40,9999,0.100000,0,0,0.000000,5,0.000000,0.000000,0.118359,0,0,0,0,0,0,0
2,29999,86,20000,32,0,40,9999,0.100000,0,0,0.000000,5,0.000000,0.000000,0.386013,0,0,0,0,0,0,0
2,29999,87,20000,73,0,40,9999,0.100000,0,0,0.000000,5,0.000000,0.000000,0.475760,0,0,0,0,0,0,0
2,29999,88,20000,1,0,40,9999,0.100000,0,0,0.000000,5,0.000000,0.000000,0.083581,0,0,0,0,0,0,0
2,29999,89,20000,70,10000,40,9999,0.100000,0,0,0.000000,5,0.000000,0.000000,0.548646,0,0,0,0,0,0,0
2,29999,90,20000,70,10000,40,9999,0.100000,0,0,0.000000,5,0.000000,0.000000,1.928082,0,0,0,0,0,0,0
2,29999,91,20000,32,0,40,9999,0.100000,0,0,0.000000,5,0.000000,0.000000,0.080592,0,0,0,0,0,0,0
2,29999,92,20000,18,10000,40,9999,0.100000,0,0,0.000000,5,0.000000,0.000000,0.149129,0,0,0,0,0,0,0
2,29999,93,20000,0,0,40,9999,0.100000,0,0,0.000000,5,0.000000,0.000000,0.282689,0,0,0,0,0,0,0
2,29999,94,20000,0,0,40,9999,0.100000,0,0,0.000000,5,0.000000,0.000000,0.134295,0,0,0,0,0,0,0
2,29999,95,20000,73,0,40,9999,0.100000,0,0,0.000000,5,0.000000,0.000000,0.387178,0,0,0,0,0,0,0
2,29999,96,20000,32,0,40,9999,0.100000,0,0,0.000000,5,0.000000,0.000000,0.182769,0,0,0,0,0,0,0
2,29999,97,20000,32,0,49,9999,0.100000,0,0,0.000000,5,2.000000,0.000000,14.426931,0,0,0,0,0,0,0
2,29999,98,20000,32,0,9,9999,0.100000,0,0,34.210526,5,6.000000,0.000000,14.217843,0,0,0,1,0,0,0
2,29999,99,20000,32,0,49,9999,0.100000,0,0,0.000000,5,3.000000,0.000000,9.456256,0,0,0,0,0,0,0
3,39999,0,30000,1,0,40,9999,0.100000,0,0,0.000000,5,0.000000,0.000000,0.714194,0,0,0,0,0,0,0
3,39999,1,30000,70,10000,40,9999,0.100000,0,0,0.000000,5,0.000000,0.000000,0.127222,0,0,0,0,0,0,0
3,39999,2,30000,32,0,49,9999,0.100000,0,0,0.000000,5,2.000000,0.000000,3.172186,0,0,0,0,0,0,0
3,39999,3,30000,70,10000,40,9999,0.100000,0,0,0.000000,6,0.000000,0.000000,1.653119,0,0,0,0,0,0,0
3,39999,4,30000,70,10000,49,9999,0.100000,0,0,0.000000,5,2.000000,0.000000,8.328293,0,0,0,0,0,0,0
3,39999,5,30000,73,0,99,9999,0.100000,0,0,34.210526,5,7.000000,0.000000,26.345971,0,0,1,0,0,0,0
3,39999,6,30000,73,0,49,9999,0.100000,0,0,0.000000,5,1.000000,0.000000,2.722675,0,0,0,0,0,0,0
3,39999,7,30000,70,10000,40,9999,0.100000,0,0,0.000000,5,0.000000,0.000000,0.203053,0,0,0,0,0,0,0
3,39999,8,30000,0,0,40,9999,0.100000,0,0,0.000000,6,0.000000,0.000000,0.623651,0,0,0,0,0,0,0
3,39999,9,30000,0,0,40,9999,0.100000,0,0,0.000000,5,0.000000,0.000000,1.197071,0,0,0,0,0,0,0
3,39999,10,30000,70,10000,49,9999,0.100000,0,0,0.000000,5,2.000000,0.000000,13.702565,0,0,0,0,0,0,0
3,39999,11,30000,73,0,40,9999,0.100000,0,0,0.000000,5,0.000000,0.000000,0.124871,0,0,0,0,0,0,0
3,39999,12,30000,1,0,40,9999,0.100000,0,0,0.000000,6,0.000000,0.000000,0.145632,0,0,0,0,0,0,0
3,39999,13,30000,32,0,40,9999,0.100000,0,0,0.000000,6,0.000000,0.000000,0.545152,0,0,0,0,0,0,0
3,39999,14,30000,73,0,49,9999,0.100000,0,0,0.000000,5,9.000000,0.000000,14.467768,0,0,0,0,0,0,0
3,39999,15,30000,32,0,49,9999,0.100000,0,0,0.000000,5,2.000000,0.000000,2.284967,0,0,0,0,0,0,0
3,39999,16,30000,1,0,49,9999,0.100000,0,0,0.000000,5,2.000000,0.000000,8.484223,0,0,0,0,0,0,0
3,39999,17,30000,0,0,49,9999,0.100000,0,0,0.000000,5,1.000000,0.000000,23.603581,0,0,0,0,0,0,0
3,39999,18,30000,73,0,40,9999,0.100000,0,0,0.000000,5,0.000000,0.000000,0.175880,0,0,0,0,0,0,0
3,39999,19,30000,70,10000,40,9999,0.100000,0,0,0.000000,5,0.000000,0.000000,0.245138,0,0,0,0,0,0,0
3,39999,20,30000,1,0,49,9999,0.100000,0,0,0.000000,5,3.000000,0.000000,10.052480,0,0,0,0,0,0,0
3,39999,21,30000,0,0,40,9999,0.100000,0,0,0.000000,5,0.000000,0.000000,0.441338,0,0,0,0,0,0,0
3,39999,22,30000,32,0,49,9999,0.100000,0,0,0.000000,5,1.000000,0.000000,5.231052,0,0,0,0,0,0,0
3,39999,23,30000,0,0,40,9999,0.100000,0,0,0.000000,5,0.000000,0.000000,0.788227,0,0,0,0,0,0,0
3,39999,24,30000,70,10000,49,9999,0.100000,0,0,0.000000,5,1.000000,0.000000,2.347239,0,0,0,0,0,0,0
3,39999,25,30000,70,10000,40,9999,0.100000,0,0,0.000000,6,0.000000,0.000000,0.109585,0,0,0,0,0,0,0
3,39999,26,30000,70,10000,40,9999,0.100000,0,0,0.000000,6,0.000000,0.000000,0.267302,0,0,0,0,0,0,0
3,39999,27,30000,0,0,40,9999,0.100000,0,0,0.000000,5,0.000000,0.000000,0.813348,0,0,0,0,0,0,0
3,39999,28,30000,1,0,40,9999,0.100000,0,0,0.000000,6,0.000000,0.000000,0.841613,0,0,0,0,0,0,0
3,39999,29,30000,70,10000,40,9999,0.100000,0,0,0.000000,6,0.000000,0.000000,1.132014,0,0,0,0,0,0,0
3,39999,30,30000,32,0,49,9999,0.100000,0,0,0.000000,5,1.000000,0.000000,2.053084,0,0,0,0,0,0,0
3,39999,31,30000,1,0,49,9999,0.100000,0,0,0.000000,5,3.000000,0.000000,11.635154,0,0,0,0,0,0,0
3,39999,32,30000,12,20000,40,9999,0.100000,0,0,0.000000,6,0.000000,0.000000,0.144144,0,0,0,0,0,0,0
3,39999,33,30000,1,0,40,9999,0.135000,0,0,0.000000,5,0.000000,0.000000,0.998499,0,0,0,0,0,0,0
3,39999,34,30000,12,20000,40,9999,0.100000,0,0,0.000000,6,0.000000,0.000000,0.669129,0,0,0,0,0,0,0
3,39999,35,30000,70,10000,40,9999,0.100000,0,0,0.000000,5,0.000000,0.000000,0.718555,0,0,0,0,0,0,0
3,39999,36,30000,73,0,40,9999,0.100000,0,0,0.000000,5,0.000000,0.000000,1.048940,0,0,0,0,0,0,0
3,39999,37,30000,73,0,40,9999,0.100000,0,0,0.000000,5,0.000000,0.000000,1.317053,0,0,0,0,0,0,0
3,39999,38,30000,0,0,40,9999,0.100000,0,0,0.000000,5,0.000000,0.000000,0.946797,0,0,0,0,0,0,0
3,39999,39,30000,70,10000,40,9999,0.100000,0,0,0.000000,5,0.000000,0.000000,4.200401,0,0,0,0,0,0,0
3,39999,40,30000,1,0,40,9999,0.100000,0,0,0.000000,6,0.000000,0.000000,2.024921,0,0,0,0,0,0,0
3,39999,41,30000,12,20000,40,9999,0.065000,0,0,0.000000,6,0.000000,0.000000,1.123061,0,0,0,0,0,0,0
3,39999,42,30000,70,10000,49,9999,0.100000,0,0,0.000000,5,2.000000,0.000000,2.495383,0,0,0,0,0,0,0
3,39999,43,30000,1,0,49,9999,0.100000,0,0,0.000000,6,2.000000,0.000000,4.704625,0,0,0,0,0,0,0
3,39999,44,30000,0,0,40,9999,0.100000,0,0,0.000000,5,0.000000,0.000000,0.080510,0,0,0,0,0,0,0
3,39999,45,30000,70,10000,49,9999,0.100000,0,0,0.000000,5,1.000000,0.000000,3.217485,0,0,0,0,0,0,0
3,39999,46,30000,70,10000,40,9999,0.100000,0,0,0.000000,5,0.000000,0.000000,0.177655,0,0,0,0,0,0,0
3,39999,47,30000,73,0,40,9999,0.100000,0,0,0.000000,6,0.000000,0.000000,0.233352,0,0,0,0,0,0,0
3,39999,48,30000,12,20000,49,9999,0.100000,0,0,0.000000,6,2.000000,0.000000,3.367431,0,0,0,0,0,0,0
3,39999,49,30000,73,0,40,9999,0.100000,0,0,0.000000,5,0.000000,0.000000,0.154783,0,0,0,0,0,0,0
3,39999,50,30000,0,0,40,9999,0.100000,0,0,0.000000,5,0.000000,0.000000,0.156163,0,0,0,0,0,0,0
3,39999,51,30000,73,0,49,9999,0.100000,0,0,0.000000,5,1.000000,0.000000,2.574193,0,0,0,0,0,0,0
3,39999,52,30000,12,20000,40,9999,0.100000,0,0,0.000000,6,0.000000,0.000000,0.927668,0,0,0,0,0,0,0
3,39999,53,30000,0,0,40,9999,0.100000,0,0,0.000000,6,0.000000,0.000000,0.120732,0,0,0,0,0,0,0
3,39999,54,30000,1,0,40,9999,0.100000,0,0,0.000000,5,0.000000,0.000000,0.225295,0,0,0,0,0,0,0
3,39999,55,30000,0,0,49,9999,0.100000,0,0,0.000000,5,6.000000,0.000000,8.217997,0,0,0,0,0,0,0
3,39999,56,30000,1,0,40,9999,0.100000,0,0,0.000000,6,0.000000,0.000000,0.340252,0,0,0,0,0,0,0
3,39999,57,30000,70,10000,49,9999,0.100000,0,0,0.000000,6,2.000000,0.000000,2.719670,0,0,0,0,0,0,0
3,39999,58,30000,70,10000,40,9999,0.100000,0,0,0.000000,6,0.000000,0.000000,0.924723,0,0,0,0,0,0,0
3,39999,59,30000,12,20000,40,9999,0.100000,0,0,0.000000,6,0.000000,0.000000,0.230152,0,0,0,0,0,0,0
3,39999,60,30000,73,0,40,9999,0.100000,0,0,0.000000,6,0.000000,0.000000,0.092016,0,0,0,0,0,0,0
3,39999,61,30000,73,0,40,9999,0.100000,0,0,0.000000,6,0.000000,0.000000,0.150975,0,0,0,0,0,0,0
3,39999,62,30000,32,0,40,9999,0.100000,0,0,0.000000,5,0.000000,0.000000,0.332270,0,0,0,0,0,0,0
3,39999,63,30000,73,0,40,9999,0.100000,0,0,0.000000,6,0.000000,0.000000,15.983875,0,0,0,0,0,0,0
3,39999,64,30000,73,0,40,9999,0.100000,0,0,0.000000,6,0.000000,0.000000,0.336833,0,0,0,0,0,0,0
3,39999,65,30000,70,10000,40,9999,0.100000,0,0,0.000000,6,0.000000,0.000000,0.080265,0,0,0,0,0,0,0
3,39999,66,30000,73,0,49,9999,0.100000,0,0,0.000000,6,12.000000,0.000000,29.690837,0,0,0,0,0,0,0
3,39999,67,30000,0,0,40,9999,0.100000,0,0,0.000000,5,0.000000,0.000000,0.705853,0,0,0,0,0,0,0
3,39999,68,30000,70,10000,49,9999,0.100000,0,0,0.000000,5,1.000000,0.000000,9.620792,0,0,0,0,0,0,0
3,39999,69,30000,32,0,40,9999,0.100000,0,0,0.000000,5,0.000000,0.000000,0.734684,0,0,0,0,0,0,0
3,39999,70,30000,1,0,40,9999,0.100000,0,0,0.000000,6,0.000000,0.000000,0.237228,0,0,0,0,0,0,0
3,39999,71,30000,1,0,40,9999,0.100000,0,0,0.000000,5,0.000000,0.000000,0.556791,0,0,0,0,0,0,0
3,39999,72,30000,1,0,49,9999,0.100000,0,0,0.000000,6,4.000000,0.000000,5.539009,0,0,0,0,0,0,0
3,39999,73,30000,32,0,49,9999,0.100000,0,0,0.000000,6,1.000000,0.000000,1.783064,0,0,0,0,0,0,0
3,39999,74,30000,1,0,49,9999,0.100000,0,0,0.000000,6,2.000000,0.000000,7.058942,0,0,0,0,0,0,0
3,39999,75,30000,0,0,40,9999,0.100000,0,0,0.000000,5,0.000000,0.000000,1.006489,0,0,0,0,0,0,0
3,39999,76,30000,1,0,40,9999,0.100000,0,0,0.000000,5,0.000000,0.000000,0.198983,0,0,0,0,0,0,0
3,39999,77,30000,70,10000,49,9999,0.100000,0,0,0.000000,6,1.000000,0.000000,5.318813,0,0,0,0,0,0,0
3,39999,78,30000,73,0,40,9999,0.100000,0,0,0.000000,5,0.000000,0.000000,0.203988,0,0,0,0,0,0,0
3,39999,79,30000,12,20000,40,9999,0.100000,0,0,0.000000,6,0.000000,0.000000,0.088121,0,0,0,0,0,0,0
3,39999,80,30000,1,0,49,9999,0.100000,0,0,0.000000,5,3.000000,0.000000,6.622112,0,0,0,0,0,0,0
3,39999,81,30000,70,10000,40,9999,0.100000,0,0,0.000000,5,0.000000,0.000000,0.207090,0,0,0,0,0,0,0
3,39999,82,30000,32,0,40,9999,0.100000,0,0,0.000000,6,0.000000,0.000000,0.086541,0,0,0,0,0,0,0
3,39999,83,30000,12,20000,40,9999,0.100000,0,0,0.000000,6,0.000000,0.000000,0.111401,0,0,0,0,0,0,0
3,39999,84,30000,70,10000,40,9999,0.100000,0,0,0.000000,5,0.000000,0.000000,4.230768,0,0,0,0,0,0,0
3,39999,85,30000,1,0,40,9999,0.100000,0,0,0.000000,5,0.000000,0.000000,0.068516,0,0,0,0,0,0,0
3,39999,86,30000,70,10000,40,9999,0.100000,0,0,0.000000,6,0.000000,0.000000,0.163043,0,0,0,0,0,0,0
3,39999,87,30000,73,0,49,9999,0.100000,0,0,0.000000,6,2.000000,0.000000,3.040415,0,0,0,0,0,0,0
3,39999,88,30000,70,10000,40,9999,0.100000,0,0,0.000000,6,0.000000,0.000000,0.081605,0,0,0,0,0,0,0
3,39999,89,30000,1,0,40,9999,0.100000,0,0,0.000000,5,0.000000,0.000000,0.402035,0,0,0,0,0,0,0
3,39999,90,30000,1,0,40,9999,0.100000,0,0,0.000000,6,0.000000,0.000000,1.874762,0,0,0,0,0,0,0
3,39999,91,30000,0,0,40,9999,0.100000,0,0,0.000000,6,0.000000,0.000000,0.091640,0,0,0,0,0,0,0
3,39999,92,30000,70,10000,40,9999,0.100000,0,0,0.000000,5,0.000000,0.000000,0.082352,0,0,0,0,0,0,0
3,39999,93,30000,0,0,40,9999,0.100000,0,0,0.000000,6,0.000000,0.000000,0.276064,0,0,0,0,0,0,0
3,39999,94,30000,70,10000,40,9999,0.100000,0,0,0.000000,6,0.000000,0.000000,0.068017,0,0,0,0,0,0,0
3,39999,95,30000,73,0,40,9999,0.100000,0,0,0.000000,6,0.000000,0.000000,0.282106,0,0,0,0,0,0,0
3,39999,96,30000,32,0,40,9999,0.100000,0,0,0.000000,6,0.000000,0.000000,0.189655,0,0,0,0,0,0,0
3,39999,97,30000,12,20000,49,9999,0.100000,0,0,0.000000,6,1.000000,0.000000,18.551506,0,0,0,0,0,0,0
3,39999,98,30000,12,20000,49,9999,0.100000,0,0,0.000000,6,3.000000,0.000000,6.606993,0,0,0,0,0,0,0
3,39999,99,30000,1,0,49,9999,0.100000,0,0,0.000000,5,3.000000,0.000000,7.280230,0,0,0,0,0,0,0
4,49999,0,40000,70,10000,40,9999,0.100000,0,0,0.000000,6,0.000000,0.000000,0.660647,0,0,0,0,0,0,0
4,49999,1,40000,12,20000,40,9999,0.100000,0,0,0.000000,6,0.000000,0.000000,0.126916,0,0,0,0,0,0,0
4,49999,2,40000,32,0,49,9999,0.100000,0,0,0.000000,6,1.000000,0.000000,1.835429,0,0,0,0,0,0,0
4,49999,3,40000,1,0,40,9999,0.100000,0,0,0.000000,6,0.000000,0.000000,2.038186,0,0,0,0,0,0,0
4,49999,4,40000,32,0,49,9999,0.100000,0,0,0.000000,6,1.000000,0.000000,7.109989,0,0,0,0,0,0,0
4,49999,5,40000,1,0,49,9999,0.100000,0,0,0.000000,6,2.000000,0.000000,12.568632,0,0,0,0,0,0,0
4,49999,6,40000,0,0,40,9999,0.100000,0,0,0.000000,6,0.000000,0.000000,1.925653,0,0,0,0,0,0,0
4,49999,7,40000,0,0,40,9999,0.100000,0,0,0.000000,6,0.000000,0.000000,0.349507,0,0,0,0,0,0,0
4,49999,8,40000,32,0,40,9999,0.100000,0,0,0.000000,6,0.000000,0.000000,0.669542,0,0,0,0,0,0,0
4,49999,9,40000,73,0,40,9999,0.065000,0,0,0.000000,6,0.000000,0.000000,0.825547,0,0,0,0,0,0,0
4,49999,10,40000,32,0,40,9999,0.100000,0,0,0.000000,6,0.000000,0.000000,0.823247,0,0,0,0,0,0,0
4,49999,11,40000,70,10000,40,9999,0.100000,0,0,0.000000,6,0.000000,0.000000,0.120649,0,0,0,0,0,0,0
4,49999,12,40000,32,0,40,9999,0.100000,0,0,0.000000,6,0.000000,0.000000,0.600844,0,0,0,0,0,0,0
4,49999,13,40000,73,0,49,9999,0.100000,0,0,0.000000,6,3.000000,0.000000,10.966263,0,0,0,0,0,0,0
4,49999,14,40000,12,20000,40,9999,0.100000,0,0,0.000000,6,0.000000,0.000000,0.237787,0,0,0,0,0,0,0
4,49999,15,40000,1,0,49,9999,0.100000,0,0,0.000000,6,1.000000,0.000000,1.724549,0,0,0,0,0,0,0
4,49999,16,40000,32,0,49,9999,0.100000,0,0,0.000000,6,1.000000,0.000000,2.928834,0,0,0,0,0,0,0
4,49999,17,40000,32,0,49,9999,0.100000,0,0,0.000000,6,1.000000,0.000000,14.785992,0,0,0,0,0,0,0
4,49999,18,40000,32,0,40,9999,0.100000,0,0,0.000000,6,0.000000,0.000000,0.173100,0,0,0,0,0,0,0
4,49999,19,40000,73,0,40,9999,0.100000,0,0,0.000000,6,0.000000,0.000000,1.216245,0,0,0,0,0,0,0
4,49999,20,40000,70,10000,49,9999,0.100000,0,0,0.000000,6,7.000000,0.000000,23.624175,0,0,0,0,0,0,0
4,49999,21,40000,32,0,40,9999,0.100000,0,0,0.000000,6,0.000000,0.000000,0.592730,0,0,0,0,0,0,0
4,49999,22,40000,70,10000,49,9999,0.100000,0,0,0.000000,6,1.000000,0.000000,2.264820,0,0,0,0,0,0,0
4,49999,23,40000,32,0,40,9999,0.100000,0,0,0.000000,6,0.000000,0.000000,0.461011,0,0,0,0,0,0,0
4,49999,24,40000,1,0,40,9999,0.100000,0,0,0.000000,6,0.000000,0.000000,14.659923,0,0,0,0,0,0,0
4,49999,25,40000,70,10000,40,9999,0.100000,0,0,0.000000,6,0.000000,0.000000,0.109888,0,0,0,0,0,0,0
4,49999,26,40000,12,20000,40,9999,0.100000,0,0,0.000000,6,0.000000,0.000000,0.377906,0,0,0,0,0,0,0
4,49999,27,40000,0,0,49,9999,0.100000,0,0,0.000000,6,1.000000,0.000000,13.749079,0,0,0,0,0,0,0
4,49999,28,40000,73,0,40,9999,0.100000,0,0,0.000000,6,0.000000,0.000000,0.447884,0,0,0,0,0,0,0
4,49999,29,40000,1,0,9,9999,0.100000,0,0,0.000000,6,1.000000,0.000000,1.721650,0,0,0,0,0,0,1
4,49999,30,40000,73,0,40,9999,0.100000,0,0,0.000000,6,0.000000,0.000000,1.195240,0,0,0,0,0,0,0
4,49999,31,40000,0,0,40,9999,0.100000,0,0,0.000000,6,0.000000,0.000000,0.232243,0,0,0,0,0,0,0
4,49999,32,40000,12,20000,40,9999,0.100000,0,0,0.000000,6,0.000000,0.000000,0.118955,0,0,0,0,0,0,0
4,49999,33,40000,70,10000,40,9999,0.100000,0,0,0.000000,6,0.000000,0.000000,1.028112,0,0,0,0,0,0,0
4,49999,34,40000,0,0,40,9999,0.100000,0,0,0.000000,6,0.000000,0.000000,0.935366,0,0,0,0,0,0,0
4,49999,35,40000,70,10000,49,9999,0.100000,0,0,0.000000,6,3.000000,0.000000,6.631861,0,0,0,0,0,0,0
4,49999,36,40000,73,0,40,9999,0.100000,0,0,0.000000,6,0.000000,0.000000,1.006064,0,0,0,0,0,0,0
4,49999,37,40000,73,0,40,9999,0.100000,0,0,0.000000,6,0.000000,0.000000,0.774712,0,0,0,0,0,0,0
4,49999,38,40000,32,0,40,9999,0.100000,0,0,0.000000,6,0.000000,0.000000,0.924520,0,0,0,0,0,0,0
4,49999,39,40000,12,20000,40,9999,0.100000,0,0,0.000000,6,0.000000,0.000000,4.412560,0,0,0,0,0,0,0
4,49999,40,40000,32,0,40,9999,0.100000,0,0,0.000000,6,0.000000,0.000000,1.056764,0,0,0,0,0,0,0
4,49999,41,40000,32,0,40,9999,0.100000,0,0,0.000000,6,0.000000,0.000000,1.143246,0,0,0,0,0,0,0
4,49999,42,40000,73,0,49,9999,0.100000,0,0,0.000000,6,1.000000,0.000000,1.545035,0,0,0,0,0,0,0
4,49999,43,40000,1,0,49,9999,0.100000,0,0,0.000000,6,1.000000,0.000000,5.296124,0,0,0,0,0,0,0
4,49999,44,40000,32,0,40,9999,0.100000,0,0,0.000000,6,0.000000,0.000000,0.079813,0,0,0,0,0,0,0
4,49999,45,40000,0,0,49,9999,0.100000,0,0,0.000000,6,1.000000,0.000000,2.038450,0,0,0,0,0,0,0
4,49999,46,40000,70,10000,40,9999,0.100000,0,0,0.000000,6,0.000000,0.000000,0.175351,0,0,0,0,0,0,0
4,49999,47,40000,73,0,40,9999,0.100000,0,0,0.000000,6,0.000000,0.000000,1.006416,0,0,0,0,0,0,0
4,49999,48,40000,1,0,49,9999,0.100000,0,0,0.000000,6,1.000000,0.000000,1.955504,0,0,0,0,0,0,0
4,49999,49,40000,73,0,40,9999,0.100000,0,0,0.000000,6,0.000000,0.000000,0.375788,0,0,0,0,0,0,0
4,49999,50,40000,70,10000,40,9999,0.100000,0,0,0.000000,6,0.000000,0.000000,0.153337,0,0,0,0,0,0,0
4,49999,51,40000,70,10000,40,9999,0.100000,0,0,0.000000,6,0.000000,0.000000,1.148080,0,0,0,0,0,0,0
4,49999,52,40000,70,10000,40,9999,0.100000,0,0,0.000000,6,0.000000,0.000000,0.891950,0,0,0,0,0,0,0
4,49999,53,40000,12,20000,40,9999,0.100000,0,0,0.000000,6,0.000000,0.000000,0.122067,0,0,0,0,0,0,0
4,49999,54,40000,1,0,40,9999,0.100000,0,0,0.000000,6,0.000000,0.000000,0.259643,0,0,0,0,0,0,0
4,49999,55,40000,0,0,49,9999,0.100000,0,0,0.000000,6,1.000000,0.000000,3.280683,0,0,0,0,0,0,0
4,49999,56,40000,32,0,40,9999,0.100000,0,0,0.000000,6,0.000000,0.000000,0.409011,0,0,0,0,0,0,0
4,49999,57,40000,32,0,49,9999,0.100000,0,0,0.000000,6,1.000000,0.000000,1.561029,0,0,0,0,0,0,0
4,49999,58,40000,0,0,40,9999,0.100000,0,0,0.000000,6,0.000000,0.000000,3.562112,0,0,0,0,0,0,0
4,49999,59,40000,0,0,40,9999,0.100000,0,0,0.000000,6,0.000000,0.000000,0.322925,0,0,0,0,0,0,0
4,49999,60,40000,1,0,40,9999,0.100000,0,0,0.000000,6,0.000000,0.000000,0.091458,0,0,0,0,0,0,0
4,49999,61,40000,1,0,40,9999,0.100000,0,0,0.000000,6,0.000000,0.000000,0.165030,0,0,0,0,0,0,0
4,49999,62,40000,1,0,40,9999,0.100000,0,0,0.000000,6,0.000000,0.000000,0.403227,0,0,0,0,0,0,0
4,49999,63,40000,0,0,40,9999,0.100000,0,0,0.000000,6,0.000000,0.000000,17.479453,0,0,0,0,0,0,0
4,49999,64,40000,32,0,40,9999,0.100000,0,0,0.000000,6,0.000000,0.000000,0.324975,0,0,0,0,0,0,0
4,49999,65,40000,32,0,40,9999,0.100000,0,0,0.000000,6,0.000000,0.000000,0.082059,0,0,0,0,0,0,0
4,49999,66,40000,1,0,40,9999,0.100000,0,0,0.000000,6,0.000000,0.000000,1.440821,0,0,0,0,0,0,0
4,49999,67,40000,70,10000,40,9999,0.100000,0,0,0.000000,6,0.000000,0.000000,0.553044,0,0,0,0,0,0,0
4,49999,68,40000,70,10000,40,9999,0.100000,0,0,0.000000,6,0.000000,0.000000,0.408752,0,0,0,0,0,0,0
4,49999,69,40000,1,0,40,9999,0.100000,0,0,0.000000,6,0.000000,0.000000,0.891076,0,0,0,0,0,0,0
4,49999,70,40000,12,20000,40,9999,0.100000,0,0,0.000000,6,0.000000,0.000000,0.159613,0,0,0,0,0,0,0
4,49999,71,40000,73,0,40,9999,0.100000,0,0,0.000000,6,0.000000,0.000000,0.535705,0,0,0,0,0,0,0
4,49999,72,40000,0,0,40,9999,0.100000,0,0,0.000000,6,0.000000,0.000000,0.138206,0,0,0,0,0,0,0
4,49999,73,40000,1,0,49,9999,0.100000,0,0,0.000000,6,4.000000,0.000000,10.773910,0,0,0,0,0,0,0
4,49999,74,40000,0,0,49,9999,0.100000,0,0,0.000000,6,1.000000,0.000000,4.180162,0,0,0,0,0,0,0
4,49999,75,40000,70,10000,40,9999,0.100000,0,0,0.000000,6,0.000000,0.000000,1.012261,0,0,0,0,0,0,0
4,49999,76,40000,32,0,40,9999,0.100000,0,0,0.000000,6,0.000000,0.000000,1.092719,0,0,0,0,0,0,0
4,49999,77,40000,73,0,40,9999,0.100000,0,0,0.000000,6,0.000000,0.000000,1.220372,0,0,0,0,0,0,0
4,49999,78,40000,70,10000,40,9999,0.100000,0,0,0.000000,6,0.000000,0.000000,0.163502,0,0,0,0,0,0,0
4,49999,79,40000,73,0,40,9999,0.100000,0,0,0.000000,6,0.000000,0.000000,0.087666,0,0,0,0,0,0,0
4,49999,80,40000,0,0,40,9999,0.100000,0,0,0.000000,6,0.000000,0.000000,3.379896,0,0,0,0,0,0,0
4,49999,81,40000,73,0,40,9999,0.100000,0,0,0.000000,6,0.000000,0.000000,0.939428,0,0,0,0,0,0,0
4,49999,82,40000,32,0,40,9999,0.100000,0,0,0.000000,6,0.000000,0.000000,0.086634,0,0,0,0,0,0,0
4,49999,83,40000,12,20000,40,9999,0.100000,0,0,0.000000,6,0.000000,0.000000,0.110809,0,0,0,0,0,0,0
4,49999,84,40000,12,20000,49,9999,0.100000,0,0,0.000000,6,2.000000,0.000000,12.684365,0,0,0,0,0,0,0
4,49999,85,40000,12,20000,40,9999,0.100000,0,0,0.000000,6,0.000000,0.000000,0.072653,0,0,0,0,0,0,0
4,49999,86,40000,32,0,40,9999,0.100000,0,0,0.000000,6,0.000000,0.000000,0.087954,0,0,0,0,0,0,0
4,49999,87,40000,1,0,49,9999,0.100000,0,0,0.000000,6,1.000000,0.000000,1.846584,0,0,0,0,0,0,0
4,49999,88,40000,70,10000,40,9999,0.100000,0,0,0.000000,6,0.000000,0.000000,0.084249,0,0,0,0,0,0,0
4,49999,89,40000,0,0,40,9999,0.100000,0,0,0.000000,6,0.000000,0.000000,0.230622,0,0,0,0,0,0,0
4,49999,90,40000,70,10000,40,9999,0.100000,0,0,0.000000,6,0.000000,0.000000,0.950113,0,0,0,0,0,0,0
4,49999,91,40000,73,0,40,9999,0.100000,0,0,0.000000,6,0.000000,0.000000,0.091579,0,0,0,0,0,0,0
4,49999,92,40000,1,0,40,9999,0.100000,0,0,0.000000,6,0.000000,0.000000,0.151112,0,0,0,0,0,0,0
4,49999,93,40000,0,0,40,9999,0.100000,0,0,0.000000,6,0.000000,0.000000,0.358455,0,0,0,0,0,0,0
4,49999,94,40000,0,0,40,9999,0.100000,0,0,0.000000,6,0.000000,0.000000,0.069450,0,0,0,0,0,0,0
4,49999,95,40000,73,0,40,9999,0.100000,0,0,0.000000,6,0.000000,0.000000,0.286820,0,0,0,0,0,0,0
4,49999,96,40000,32,0,40,9999,0.100000,0,0,0.000000,6,0.000000,0.000000,0.172204,0,0,0,0,0,0,0
4,49999,97,40000,12,20000,40,9999,0.100000,0,0,0.000000,6,0.000000,0.000000,8.282772,0,0,0,0,0,0,0
4,49999,98,40000,73,0,49,9999,0.100000,0,0,0.000000,6,2.000000,0.000000,4.056505,0,0,0,0,0,0,0
4,49999,99,40000,0,0,40,9999,0.100000,0,0,0.000000,6,0.000000,0.000000,0.120902,0,0,0,0,0,0,0
5,59999,0,50000,73,0,40,9999,0.100000,0,0,0.000000,6,0.000000,0.000000,0.345042,0,0,0,0,0,0,0
5,59999,1,50000,32,0,40,9999,0.100000,0,0,0.000000,6,0.000000,0.000000,0.137930,0,0,0,0,0,0,0
5,59999,2,50000,0,0,9,9999,0.100000,0,0,34.210526,6,4.000000,0.000000,10.444364,0,0,0,1,0,0,0
5,59999,3,50000,70,10000,40,9999,0.100000,0,0,0.000000,6,0.000000,0.000000,1.787750,0,0,0,0,0,0,0
5,59999,4,50000,12,20000,40,9999,0.100000,0,0,0.000000,6,0.000000,0.000000,6.051125,0,0,0,0,0,0,0
5,59999,5,50000,32,0,40,9999,0.100000,0,0,0.000000,6,0.000000,0.000000,6.547774,0,0,0,0,0,0,0
5,59999,6,50000,73,0,40,9999,0.100000,0,0,0.000000,6,0.000000,0.000000,0.531574,0,0,0,0,0,0,0
5,59999,7,50000,0,0,40,9999,0.100000,0,0,0.000000,6,0.000000,0.000000,0.168112,0,0,0,0,0,0,0
5,59999,8,50000,32,0,40,9999,0.100000,0,0,0.000000,6,0.000000,0.000000,0.466062,0,0,0,0,0,0,0
5,59999,9,50000,12,20000,40,9999,0.100000,0,0,0.000000,6,0.000000,0.000000,0.162323,0,0,0,0,0,0,0
5,59999,10,50000,12,20000,40,9999,0.100000,0,0,0.000000,6,0.000000,0.000000,0.832028,0,0,0,0,0,0,0
5,59999,11,50000,73,0,40,9999,0.100000,0,0,0.000000,6,0.000000,0.000000,0.126100,0,0,0,0,0,0,0
5,59999,12,50000,32,0,40,9999,0.100000,0,0,0.000000,6,0.000000,0.000000,1.070468,0,0,0,0,0,0,0
5,59999,13,50000,73,0,40,9999,0.100000,0,0,0.000000,6,0.000000,0.000000,1.008592,0,0,0,0,0,0,0
5,59999,14,50000,1,0,40,9999,0.100000,0,0,0.000000,6,0.000000,0.000000,0.233413,0,0,0,0,0,0,0
5,59999,15,50000,1,0,9,9999,0.100000,0,0,34.210526,6,1.000000,0.000000,4.129886,0,0,0,0,0,1,0
5,59999,16,50000,70,10000,40,9999,0.100000,0,0,0.000000,6,0.000000,0.000000,0.396553,0,0,0,0,0,0,0
5,59999,17,50000,0,0,49,9999,0.100000,0,0,0.000000,6,1.000000,0.000000,1.871604,0,0,0,0,0,0,0
5,59999,18,50000,32,0,40,9999,0.100000,0,0,0.000000,6,0.000000,0.000000,0.165712,0,0,0,0,0,0,0
5,59999,19,50000,70,10000,40,9999,0.100000,0,0,0.000000,6,0.000000,0.000000,0.316633,0,0,0,0,0,0,0
5,59999,20,50000,73,0,49,9999,0.065000,0,0,0.000000,6,8.000000,0.000000,14.025531,0,0,0,0,0,0,0
5,59999,21,50000,0,0,49,9999,0.100000,0,0,0.000000,6,2.000000,0.000000,3.654522,0,0,0,0,0,0,0
5,59999,22,50000,73,0,40,9999,0.100000,0,0,0.000000,6,0.000000,0.000000,0.912952,0,0,0,0,0,0,0
5,59999,23,50000,73,0,40,9999,0.100000,0,0,0.000000,6,0.000000,0.000000,2.220048,0,0,0,0,0,0,0
5,59999,24,50000,0,0,49,9999,0.100000,0,0,0.000000,6,3.000000,0.000000,3.886674,0,0,0,0,0,0,0
5,59999,25,50000,70,10000,40,9999,0.100000,0,0,0.000000,6,0.000000,0.000000,0.109711,0,0,0,0,0,0,0
5,59999,26,50000,70,10000,40,9999,0.100000,0,0,0.000000,6,0.000000,0.000000,0.423743,0,0,0,0,0,0,0
5,59999,27,50000,73,0,49,9999,0.100000,0,0,0.000000,6,8.000000,0.000000,27.413900,0,0,0,0,0,0,0
5,59999,28,50000,12,20000,40,9999,0.100000,0,0,0.000000,6,0.000000,0.000000,0.705413,0,0,0,0,0,0,0
5,59999,29,50000,73,0,49,9999,0.100000,0,0,0.000000,6,9.000000,0.000000,10.025896,0,0,0,0,0,0,0
5,59999,30,50000,0,0,40,9999,0.100000,0,0,0.000000,6,0.000000,0.000000,0.233222,0,0,0,0,0,0,0
5,59999,31,50000,32,0,40,9999,0.100000,0,0,0.000000,6,0.000000,0.000000,0.240405,0,0,0,0,0,0,0
5,59999,32,50000,0,0,40,9999,0.100000,0,0,0.000000,6,0.000000,0.000000,0.109279,0,0,0,0,0,0,0
5,59999,33,50000,32,0,40,9999,0.100000,0,0,0.000000,6,0.000000,0.000000,0.961931,0,0,0,0,0,0,0
5,59999,34,50000,1,0,40,9999,0.100000,0,0,0.000000,6,0.000000,0.000000,0.226143,0,0,0,0,0,0,0
5,59999,35,50000,1,0,40,9999,0.100000,0,0,0.000000,6,0.000000,0.000000,1.126215,0,0,0,0,0,0,0
5,59999,36,50000,1,0,40,9999,0.100000,0,0,0.000000,6,0.000000,0.000000,1.024363,0,0,0,0,0,0,0
5,59999,37,50000,1,0,40,9999,0.100000,0,0,0.000000,6,0.000000,0.000000,0.432854,0,0,0,0,0,0,0
5,59999,38,50000,32,0,40,9999,0.100000,0,0,0.000000,6,0.000000,0.000000,0.620946,0,0,0,0,0,0,0
5,59999,39,50000,32,0,40,9999,0.100000,0,0,0.000000,6,0.000000,0.000000,4.479599,0,0,0,0,0,0,0
5,59999,40,50000,1,0,40,9999,0.100000,0,0,0.000000,6,0.000000,0.000000,0.619176,0,0,0,0,0,0,0
5,59999,41,50000,70,10000,40,9999,0.100000,0,0,0.000000,6,0.000000,0.000000,1.481364,0,0,0,0,0,0,0
5,59999,42,50000,1,0,49,9999,0.100000,0,0,0.000000,6,1.000000,0.000000,7.037695,0,0,0,0,0,0,0
5,59999,43,50000,12,20000,49,9999,0.100000,0,0,0.000000,6,1.000000,0.000000,11.094925,0,0,0,0,0,0,0
5,59999,44,50000,1,0,40,9999,0.100000,0,0,0.000000,6,0.000000,0.000000,0.080566,0,0,0,0,0,0,0
5,59999,45,50000,0,0,40,9999,0.100000,0,0,0.000000,6,0.000000,0.000000,0.463885,0,0,0,0,0,0,0
5,59999,46,50000,1,0,40,9999,0.100000,0,0,0.000000,6,0.000000,0.000000,0.179102,0,0,0,0,0,0,0
5,59999,47,50000,32,0,49,9999,0.100000,0,0,0.000000,6,1.000000,0.000000,2.326994,0,0,0,0,0,0,0
5,59999,48,50000,12,20000,9,9999,0.100000,0,0,34.210526,6,4.000000,0.000000,9.428349,0,0,0,1,0,0,0
5,59999,49,50000,73,0,40,9999,0.100000,0,0,0.000000,6,0.000000,0.000000,0.451583,0,0,0,0,0,0,0
5,59999,50,50000,73,0,40,9999,0.100000,0,0,0.000000,6,0.000000,0.000000,0.155707,0,0,0,0,0,0,0
5,59999,51,50000,12,20000,49,9999,0.100000,0,0,0.000000,6,3.000000,0.000000,5.685587,0,0,0,0,0,0,0
5,59999,52,50000,0,0,49,9999,0.100000,0,0,0.000000,6,6.000000,0.000000,8.385368,0,0,0,0,0,0,0
5,59999,53,50000,12,20000,40,9999,0.100000,0,0,0.000000,6,0.000000,0.000000,0.128033,0,0,0,0,0,0,0
5,59999,54,50000,32,0,40,9999,0.100000,0,0,0.000000,6,0.000000,0.000000,0.154439,0,0,0,0,0,0,0
5,59999,55,50000,12,20000,49,9999,0.100000,0,0,0.000000,6,5.000000,0.000000,8.479360,0,0,0,0,0,0,0
5,59999,56,50000,1,0,40,9999,0.100000,0,0,0.000000,6,0.000000,0.000000,0.342472,0,0,0,0,0,0,0
5,59999,57,50000,73,0,49,9999,0.100000,0,0,0.000000,6,1.000000,0.000000,4.056957,0,0,0,0,0,0,0
5,59999,58,50000,12,20000,40,9999,0.100000,0,0,0.000000,6,0.000000,0.000000,1.140499,0,0,0,0,0,0,0
5,59999,59,50000,12,20000,40,9999,0.100000,0,0,0.000000,6,0.000000,0.000000,0.180986,0,0,0,0,0,0,0
5,59999,60,50000,70,10000,40,9999,0.100000,0,0,0.000000,6,0.000000,0.000000,0.091678,0,0,0,0,0,0,0
5,59999,61,50000,0,0,40,9999,0.100000,0,0,0.000000,6,0.000000,0.000000,0.154373,0,0,0,0,0,0,0
5,59999,62,50000,1,0,40,9999,0.100000,0,0,0.000000,6,0.000000,0.000000,1.179223,0,0,0,0,0,0,0
5,59999,63,50000,0,0,40,9999,0.100000,0,0,0.000000,6,0.000000,0.000000,16.262492,0,0,0,0,0,0,0
5,59999,64,50000,0,0,40,9999,0.100000,0,0,0.000000,6,0.000000,0.000000,0.309852,0,0,0,0,0,0,0
5,59999,65,50000,1,0,40,9999,0.100000,0,0,0.000000,6,0.000000,0.000000,0.079850,0,0,0,0,0,0,0
5,59999,66,50000,0,0,40,9999,0.100000,0,0,0.000000,6,0.000000,0.000000,0.666248,0,0,0,0,0,0,0
5,59999,67,50000,70,10000,40,9999,0.100000,0,0,0.000000,6,0.000000,0.000000,0.162118,0,0,0,0,0,0,0
5,59999,68,50000,1,0,40,9999,0.100000,0,0,0.000000,6,0.000000,0.000000,0.408629,0,0,0,0,0,0,0
5,59999,69,50000,32,0,40,9999,0.100000,0,0,0.000000,6,0.000000,0.000000,1.161606,0,0,0,0,0,0,0
5,59999,70,50000,0,0,40,9999,0.100000,0,0,0.000000,6,0.000000,0.000000,0.151399,0,0,0,0,0,0,0
5,59999,71,50000,70,10000,40,9999,0.100000,0,0,0.000000,6,0.000000,0.000000,0.166293,0,0,0,0,0,0,0
5,59999,72,50000,0,0,40,9999,0.100000,0,0,0.000000,6,0.000000,0.000000,0.140123,0,0,0,0,0,0,0
5,59999,73,50000,70,10000,49,9999,0.100000,0,0,0.000000,6,1.000000,0.000000,4.680883,0,0,0,0,0,0,0
5,59999,74,50000,73,0,40,9999,0.100000,0,0,0.000000,6,0.000000,0.000000,4.225408,0,0,0,0,0,0,0
5,59999,75,50000,32,0,40,9999,0.100000,0,0,0.000000,6,0.000000,0.000000,0.991729,0,0,0,0,0,0,0
5,59999,76,50000,12,20000,40,9999,0.100000,0,0,0.000000,6,0.000000,0.000000,1.013997,0,0,0,0,0,0,0
5,59999,77,50000,70,10000,40,9999,0.065000,0,0,0.000000,6,0.000000,0.000000,1.212284,0,0,0,0,0,0,0
5,59999,78,50000,1,0,40,9999,0.100000,0,0,0.000000,6,0.000000,0.000000,0.159891,0,0,0,0,0,0,0
5,59999,79,50000,12,20000,40,9999,0.100000,0,0,0.000000,6,0.000000,0.000000,0.088146,0,0,0,0,0,0,0
5,59999,80,50000,73,0,40,9999,0.100000,0,0,0.000000,6,0.000000,0.000000,3.214513,0,0,0,0,0,0,0
5,59999,81,50000,70,10000,49,9999,0.100000,0,0,0.000000,6,1.000000,0.000000,2.112190,0,0,0,0,0,0,0
5,59999,82,50000,70,10000,40,9999,0.100000,0,0,0.000000,6,0.000000,0.000000,0.087223,0,0,0,0,0,0,0
5,59999,83,50000,12,20000,40,9999,0.100000,0,0,0.000000,6,0.000000,0.000000,0.117616,0,0,0,0,0,0,0
5,59999,84,50000,32,0,40,9999,0.100000,0,0,0.000000,6,0.000000,0.000000,1.526965,0,0,0,0,0,0,0
5,59999,85,50000,70,10000,40,9999,0.100000,0,0,0.000000,6,0.000000,0.000000,0.070061,0,0,0,0,0,0,0
5,59999,86,50000,32,0,40,9999,0.100000,0,0,0.000000,6,0.000000,0.000000,0.280539,0,0,0,0,0,0,0
5,59999,87,50000,1,0,9,9999,0.100000,0,0,34.210526,6,3.000000,0.000000,11.011145,0,0,0,0,0,1,0
5,59999,88,50000,1,0,40,9999,0.100000,0,0,0.000000,6,0.000000,0.000000,0.083285,0,0,0,0,0,0,0
5,59999,89,50000,73,0,49,9999,0.100000,0,0,0.000000,6,1.000000,0.000000,1.949653,0,0,0,0,0,0,0
5,59999,90,50000,1,0,40,9999,0.100000,0,0,0.000000,6,0.000000,0.000000,1.343269,0,0,0,0,0,0,0
5,59999,91,50000,1,0,40,9999,0.100000,0,0,0.000000,6,0.000000,0.000000,0.090694,0,0,0,0,0,0,0
5,59999,92,50000,73,0,40,9999,0.100000,0,0,0.000000,6,0.000000,0.000000,0.088436,0,0,0,0,0,0,0
5,59999,93,50000,12,20000,40,9999,0.100000,0,0,0.000000,6,0.000000,0.000000,0.253825,0,0,0,0,0,0,0
5,59999,94,50000,32,0,40,9999,0.100000,0,0,0.000000,6,0.000000,0.000000,0.067918,0,0,0,0,0,0,0
5,59999,95,50000,73,0,40,9999,0.100000,0,0,0.000000,6,0.000000,0.000000,0.495975,0,0,0,0,0,0,0
5,59999,96,50000,32,0,40,9999,0.100000,0,0,0.000000,6,0.000000,0.000000,0.164569,0,0,0,0,0,0,0
5,59999,97,50000,1,0,40,9999,0.100000,0,0,0.000000,6,0.000000,0.000000,0.456558,0,0,0,0,0,0,0
5,59999,98,50000,12,20000,49,9999,0.100000,0,0,0.000000,6,1.000000,0.000000,2.692528,0,0,0,0,0,0,0
5,59999,99,50000,32,0,40,9999,0.100000,0,0,0.000000,6,0.000000,0.000000,0.118410,0,0,0,0,0,0,0
6,69999,0,60000,70,10000,40,9999,0.100000,0,0,0.000000,6,0.000000,0.000000,0.268008,0,0,0,0,0,0,0
6,69999,1,60000,1,0,40,9999,0.100000,0,0,0.000000,6,0.000000,0.000000,0.119054,0,0,0,0,0,0,0
6,69999,2,60000,12,20000,49,9999,0.100000,0,0,0.000000,6,1.000000,0.000000,14.183910,0,0,0,0,0,0,0
6,69999,3,60000,32,0,40,9999,0.100000,0,0,0.000000,6,0.000000,0.000000,1.785168,0,0,0,0,0,0,0
6,69999,4,60000,70,10000,49,9999,0.100000,0,0,0.000000,6,3.000000,0.000000,10.169236,0,0,0,0,0,0,0
6,69999,5,60000,1,0,40,9999,0.100000,0,0,0.000000,6,0.000000,0.000000,5.894229,0,0,0,0,0,0,0
6,69999,6,60000,12,20000,49,9999,0.100000,0,0,0.000000,6,1.000000,0.000000,5.263399,0,0,0,0,0,0,0
6,69999,7,60000,32,0,40,9999,0.100000,0,0,0.000000,6,0.000000,0.000000,0.131801,0,0,0,0,0,0,0
6,69999,8,60000,70,10000,40,9999,0.100000,0,0,0.000000,6,0.000000,0.000000,0.152661,0,0,0,0,0,0,0
6,69999,9,60000,1,0,40,9999,0.100000,0,0,0.000000,6,0.000000,0.000000,0.684744,0,0,0,0,0,0,0
6,69999,10,60000,12,20000,40,9999,0.100000,0,0,0.000000,6,0.000000,0.000000,0.883852,0,0,0,0,0,0,0
6,69999,11,60000,70,10000,40,9999,0.100000,0,0,0.000000,6,0.000000,0.000000,0.116487,0,0,0,0,0,0,0
6,69999,12,60000,12,20000,40,9999,0.100000,0,0,0.000000,6,0.000000,0.000000,0.903570,0,0,0,0,0,0,0
6,69999,13,60000,0,0,40,9999,0.100000,0,0,0.000000,6,0.000000,0.000000,0.810958,0,0,0,0,0,0,0
6,69999,14,60000,70,10000,40,9999,0.100000,0,0,0.000000,6,0.000000,0.000000,0.244593,0,0,0,0,0,0,0
6,69999,15,60000,12,20000,49,9999,0.100000,0,0,0.000000,6,1.000000,0.000000,8.975560,0,0,0,0,0,0,0
6,69999,16,60000,1,0,40,9999,0.100000,0,0,0.000000,6,0.000000,0.000000,0.444883,0,0,0,0,0,0,0
6,69999,17,60000,0,0,49,9999,0.100000,0,0,0.000000,6,1.000000,0.000000,3.315058,0,0,0,0,0,0,0
6,69999,18,60000,12,20000,40,9999,0.100000,0,0,0.000000,6,0.000000,0.000000,0.160758,0,0,0,0,0,0,0
6,69999,19,60000,73,0,40,9999,0.100000,0,0,0.000000,6,0.000000,0.000000,0.331850,0,0,0,0,0,0,0
6,69999,20,60000,70,10000,40,9999,0.100000,0,0,0.000000,6,0.000000,0.000000,0.985862,0,0,0,0,0,0,0
6,69999,21,60000,73,0,49,9999,0.100000,0,0,0.000000,6,4.000000,0.000000,4.602686,0,0,0,0,0,0,0
6,69999,22,60000,12,20000,40,9999,0.100000,0,0,0.000000,6,0.000000,0.000000,1.566398,0,0,0,0,0,0,0
6,69999,23,60000,0,0,40,9999,0.100000,0,0,0.000000,6,0.000000,0.000000,0.853858,0,0,0,0,0,0,0
6,69999,24,60000,32,0,40,9999,0.100000,0,0,0.000000,6,0.000000,0.000000,0.136904,0,0,0,0,0,0,0
6,69999,25,60000,1,0,40,9999,0.100000,0,0,0.000000,6,0.000000,0.000000,0.141588,0,0,0,0,0,0,0
6,69999,26,60000,0,0,40,9999,0.100000,0,0,0.000000,6,0.000000,0.000000,0.242557,0,0,0,0,0,0,0
6,69999,27,60000,12,20000,49,9999,0.100000,0,0,0.000000,6,1.000000,0.000000,16.646077,0,0,0,0,0,0,0
6,69999,28,60000,73,0,40,9999,0.100000,0,0,0.000000,6,0.000000,0.000000,0.260052,0,0,0,0,0,0,0
6,69999,29,60000,32,0,40,9999,0.100000,0,0,0.000000,6,0.000000,0.000000,0.127081,0,0,0,0,0,0,0
6,69999,30,60000,12,20000,40,9999,0.100000,0,0,0.000000,6,0.000000,0.000000,0.883018,0,0,0,0,0,0,0
6,69999,31,60000,73,0,40,9999,0.100000,0,0,0.000000,6,0.000000,0.000000,0.237273,0,0,0,0,0,0,0
6,69999,32,60000,73,0,40,9999,0.100000,0,0,0.000000,6,0.000000,0.000000,0.114051,0,0,0,0,0,0,0
6,69999,33,60000,70,10000,40,9999,0.100000,0,0,0.000000,6,0.000000,0.000000,0.776570,0,0,0,0,0,0,0
6,69999,34,60000,12,20000,40,9999,0.100000,0,0,0.000000,6,0.000000,0.000000,0.127728,0,0,0,0,0,0,0
6,69999,35,60000,73,0,49,9999,0.100000,0,0,0.000000,6,6.000000,0.000000,27.407264,0,0,0,0,0,0,0
6,69999,36,60000,73,0,40,9999,0.100000,0,0,0.000000,6,0.000000,0.000000,0.915680,0,0,0,0,0,0,0
6,69999,37,60000,12,20000,40,9999,0.100000,0,0,0.000000,6,0.000000,0.000000,0.417268,0,0,0,0,0,0,0
6,69999,38,60000,32,0,49,9999,0.100000,0,0,0.000000,6,1.000000,0.000000,4.044359,0,0,0,0,0,0,0
6,69999,39,60000,12,20000,40,9999,0.100000,0,0,0.000000,6,0.000000,0.000000,4.243265,0,0,0,0,0,0,0
6,69999,40,60000,73,0,40,9999,0.100000,0,0,0.000000,6,0.000000,0.000000,0.576505,0,0,0,0,0,0,0
6,69999,41,60000,0,0,40,9999,0.100000,0,0,0.000000,6,0.000000,0.000000,0.887914,0,0,0,0,0,0,0
6,69999,42,60000,32,0,49,9999,0.100000,0,0,0.000000,6,4.000000,0.000000,15.369577,0,0,0,0,0,0,0
6,69999,43,60000,1,0,49,9999,0.100000,0,0,0.000000,6,1.000000,0.000000,4.570960,0,0,0,0,0,0,0
6,69999,44,60000,1,0,40,9999,0.100000,0,0,0.000000,6,0.000000,0.000000,0.080183,0,0,0,0,0,0,0
6,69999,45,60000,0,0,40,9999,0.065000,0,0,0.000000,6,0.000000,0.000000,0.530126,0,0,0,0,0,0,0
6,69999,46,60000,70,10000,40,9999,0.100000,0,0,0.000000,6,0.000000,0.000000,0.171483,0,0,0,0,0,0,0
6,69999,47,60000,73,0,40,9999,0.100000,0,0,0.000000,6,0.000000,0.000000,0.219675,0,0,0,0,0,0,0
6,69999,48,60000,12,20000,49,9999,0.100000,0,0,0.000000,6,1.000000,0.000000,14.704598,0,0,0,0,0,0,0
6,69999,49,60000,0,0,40,9999,0.100000,0,0,0.000000,6,0.000000,0.000000,0.264164,0,0,0,0,0,0,0
6,69999,50,60000,32,0,40,9999,0.100000,0,0,0.000000,6,0.000000,0.000000,0.151033,0,0,0,0,0,0,0
6,69999,51,60000,1,0,49,9999,0.100000,0,0,0.000000,6,4.000000,0.000000,4.825592,0,0,0,0,0,0,0
6,69999,52,60000,73,0,40,9999,0.100000,0,0,0.000000,6,0.000000,0.000000,0.114393,0,0,0,0,0,0,0
6,69999,53,60000,70,10000,40,9999,0.100000,0,0,0.000000,6,0.000000,0.000000,0.123991,0,0,0,0,0,0,0
6,69999,54,60000,0,0,40,9999,0.100000,0,0,0.000000,6,0.000000,0.000000,0.153301,0,0,0,0,0,0,0
6,69999,55,60000,1,0,49,9999,0.100000,0,0,0.000000,6,12.000000,0.000000,13.355251,0,0,0,0,0,0,0
6,69999,56,60000,32,0,40,9999,0.100000,0,0,0.000000,6,0.000000,0.000000,1.115280,0,0,0,0,0,0,0
6,69999,57,60000,12,20000,49,9999,0.100000,0,0,0.000000,6,1.000000,0.000000,11.032193,0,0,0,0,0,0,0
6,69999,58,60000,12,20000,40,9999,0.100000,0,0,0.000000,6,0.000000,0.000000,0.466989,0,0,0,0,0,0,0
6,69999,59,60000,32,0,40,9999,0.100000,0,0,0.000000,6,0.000000,0.000000,0.173193,0,0,0,0,0,0,0
6,69999,60,60000,0,0,40,9999,0.100000,0,0,0.000000,6,0.000000,0.000000,0.091076,0,0,0,0,0,0,0
6,69999,61,60000,12,20000,40,9999,0.100000,0,0,0.000000,6,0.000000,0.000000,0.159229,0,0,0,0,0,0,0
6,69999,62,60000,1,0,49,9999,0.100000,0,0,0.000000,6,8.000000,0.000000,17.699314,0,0,0,0,0,0,0
6,69999,63,60000,73,0,49,9999,0.100000,0,0,0.000000,6,3.000000,0.000000,19.187716,0,0,0,0,0,0,0
6,69999,64,60000,1,0,40,9999,0.100000,0,0,0.000000,6,0.000000,0.000000,0.320558,0,0,0,0,0,0,0
6,69999,65,60000,0,0,40,9999,0.100000,0,0,0.000000,6,0.000000,0.000000,0.082903,0,0,0,0,0,0,0
6,69999,66,60000,70,10000,40,9999,0.100000,0,0,0.000000,6,0.000000,0.000000,0.564904,0,0,0,0,0,0,0
6,69999,67,60000,1,0,40,9999,0.100000,0,0,0.000000,6,0.000000,0.000000,0.507142,0,0,0,0,0,0,0
6,69999,68,60000,0,0,40,9999,0.100000,0,0,0.000000,6,0.000000,0.000000,0.398125,0,0,0,0,0,0,0
6,69999,69,60000,12,20000,49,9999,0.100000,0,0,0.000000,6,2.000000,0.000000,2.820396,0,0,0,0,0,0,0
6,69999,70,60000,32,0,40,9999,0.100000,0,0,0.000000,6,0.000000,0.000000,0.142306,0,0,0,0,0,0,0
6,69999,71,60000,70,10000,40,9999,0.100000,0,0,0.000000,6,0.000000,0.000000,0.151499,0,0,0,0,0,0,0
6,69999,72,60000,70,10000,40,9999,0.100000,0,0,0.000000,6,0.000000,0.000000,0.137570,0,0,0,0,0,0,0
6,69999,73,60000,0,0,40,9999,0.100000,0,0,0.000000,6,0.000000,0.000000,1.861975,0,0,0,0,0,0,0
6,69999,74,60000,32,0,49,9999,0.100000,0,0,0.000000,6,1.000000,0.000000,11.588159,0,0,0,0,0,0,0
6,69999,75,60000,12,20000,40,9999,0.100000,0,0,0.000000,6,0.000000,0.000000,1.019623,0,0,0,0,0,0,0
6,69999,76,60000,73,0,49,9999,0.100000,0,0,0.000000,6,2.000000,0.000000,6.308222,0,0,0,0,0,0,0
6,69999,77,60000,32,0,40,9999,0.100000,0,0,0.000000,6,0.000000,0.000000,1.100924,0,0,0,0,0,0,0
6,69999,78,60000,70,10000,40,9999,0.100000,0,0,0.000000,6,0.000000,0.000000,0.174439,0,0,0,0,0,0,0
6,69999,79,60000,12,20000,40,9999,0.100000,0,0,0.000000,6,0.000000,0.000000,0.089258,0,0,0,0,0,0,0
6,69999,80,60000,32,0,40,9999,0.100000,0,0,0.000000,6,0.000000,0.000000,0.493018,0,0,0,0,0,0,0
6,69999,81,60000,73,0,40,9999,0.100000,0,0,0.000000,6,0.000000,0.000000,0.602065,0,0,0,0,0,0,0
6,69999,82,60000,1,0,40,9999,0.100000,0,0,0.000000,6,0.000000,0.000000,0.086612,0,0,0,0,0,0,0
6,69999,83,60000,12,20000,40,9999,0.100000,0,0,0.000000,6,0.000000,0.000000,0.101968,0,0,0,0,0,0,0
6,69999,84,60000,1,0,40,9999,0.100000,0,0,0.000000,6,0.000000,0.000000,1.440000,0,0,0,0,0,0,0
6,69999,85,60000,0,0,40,9999,0.100000,0,0,0.000000,6,0.000000,0.000000,0.090698,0,0,0,0,0,0,0
6,69999,86,60000,70,10000,40,9999,0.100000,0,0,0.000000,6,0.000000,0.000000,0.288365,0,0,0,0,0,0,0
6,69999,87,60000,12,20000,49,9999,0.100000,0,0,0.000000,6,1.000000,0.000000,4.649743,0,0,0,0,0,0,0
6,69999,88,60000,1,0,40,9999,0.100000,0,0,0.000000,6,0.000000,0.000000,0.082378,0,0,0,0,0,0,0
6,69999,89,60000,12,20000,49,9999,0.100000,0,0,0.000000,6,4.000000,0.000000,4.734224,0,0,0,0,0,0,0
6,69999,90,60000,70,10000,40,9999,0.100000,0,0,0.000000,6,0.000000,0.000000,0.964394,0,0,0,0,0,0,0
6,69999,91,60000,1,0,40,9999,0.100000,0,0,0.000000,6,0.000000,0.000000,0.089901,0,0,0,0,0,0,0
6,69999,92,60000,0,0,40,9999,0.100000,0,0,0.000000,6,0.000000,0.000000,0.088190,0,0,0,0,0,0,0
6,69999,93,60000,12,20000,40,9999,0.100000,0,0,0.000000,6,0.000000,0.000000,0.249752,0,0,0,0,0,0,0
6,69999,94,60000,70,10000,40,9999,0.100000,0,0,0.000000,6,0.000000,0.000000,0.068663,0,0,0,0,0,0,0
6,69999,95,60000,70,10000,40,9999,0.100000,0,0,0.000000,6,0.000000,0.000000,0.503264,0,0,0,0,0,0,0
6,69999,96,60000,73,0,40,9999,0.100000,0,0,0.000000,6,0.000000,0.000000,0.193077,0,0,0,0,0,0,0
6,69999,97,60000,1,0,40,9999,0.100000,0,0,0.000000,6,0.000000,0.000000,0.231470,0,0,0,0,0,0,0
6,69999,98,60000,73,0,49,9999,0.100000,0,0,0.000000,6,5.000000,0.000000,23.423433,0,0,0,0,0,0,0
6,69999,99,60000,0,0,40,9999,0.100000,0,0,0.000000,6,0.000000,0.000000,0.119615,0,0,0,0,0,0,0
7,79999,0,70000,73,0,49,9999,0.100000,0,0,0.000000,6,3.000000,0.000000,8.338194,0,0,0,0,0,0,0
7,79999,1,70000,12,20000,40,9999,0.100000,0,0,0.000000,6,0.000000,0.000000,0.137245,0,0,0,0,0,0,0
7,79999,2,70000,32,0,49,9999,0.100000,0,0,0.000000,6,1.000000,0.000000,9.925214,0,0,0,0,0,0,0
7,79999,3,70000,32,0,40,9999,0.100000,0,0,0.000000,6,0.000000,0.000000,1.658021,0,0,0,0,0,0,0
7,79999,4,70000,12,20000,49,9999,0.100000,0,0,0.000000,6,6.000000,0.000000,10.249373,0,0,0,0,0,0,0
7,79999,5,70000,32,0,40,9999,0.100000,0,0,0.000000,6,0.000000,0.000000,6.093339,0,0,0,0,0,0,0
7,79999,6,70000,32,0,9,9999,0.100000,0,0,0.000000,6,5.000000,0.000000,19.950687,0,0,0,0,1,0,0
7,79999,7,70000,73,0,40,9999,0.100000,0,0,0.000000,6,0.000000,0.000000,0.117288,0,0,0,0,0,0,0
7,79999,8,70000,73,0,40,9999,0.100000,0,0,0.000000,6,0.000000,0.000000,0.180195,0,0,0,0,0,0,0
7,79999,9,70000,73,0,49,9999,0.100000,0,0,0.000000,6,6.000000,0.000000,9.963690,0,0,0,0,0,0,0
7,79999,10,70000,0,0,40,9999,0.100000,0,0,0.000000,6,0.000000,0.000000,0.962346,0,0,0,0,0,0,0
7,79999,11,70000,1,0,40,9999,0.100000,0,0,0.000000,6,0.000000,0.000000,0.124986,0,0,0,0,0,0,0
7,79999,12,70000,12,20000,40,9999,0.100000,0,0,0.000000,6,0.000000,0.000000,1.128890,0,0,0,0,0,0,0
7,79999,13,70000,1,0,40,9999,0.100000,0,0,0.000000,6,0.000000,0.000000,0.774903,0,0,0,0,0,0,0
7,79999,14,70000,70,10000,40,9999,0.100000,0,0,0.000000,6,0.000000,0.000000,0.235252,0,0,0,0,0,0,0
7,79999,15,70000,32,0,40,9999,0.100000,0,0,0.000000,6,0.000000,0.000000,8.951956,0,0,0,0,0,0,0
7,79999,16,70000,32,0,40,9999,0.100000,0,0,0.000000,6,0.000000,0.000000,0.432649,0,0,0,0,0,0,0
7,79999,17,70000,70,10000,49,9999,0.100000,0,0,0.000000,6,3.000000,0.000000,4.411889,0,0,0,0,0,0,0
7,79999,18,70000,70,10000,40,9999,0.100000,0,0,0.000000,6,0.000000,0.000000,0.222183,0,0,0,0,0,0,0
7,79999,19,70000,70,10000,40,9999,0.100000,0,0,0.000000,6,0.000000,0.000000,0.799628,0,0,0,0,0,0,0
7,79999,20,70000,1,0,40,9999,0.100000,0,0,0.000000,6,0.000000,0.000000,0.976643,0,0,0,0,0,0,0
7,79999,21,70000,1,0,49,9999,0.100000,0,0,0.000000,6,1.000000,0.000000,1.239653,0,0,0,0,0,0,0
7,79999,22,70000,70,10000,49,9999,0.100000,0,0,0.000000,6,9.000000,0.000000,10.991145,0,0,0,0,0,0,0
7,79999,23,70000,1,0,40,9999,0.100000,0,0,0.000000,6,0.000000,0.000000,0.784641,0,0,0,0,0,0,0
7,79999,24,70000,70,10000,40,9999,0.100000,0,0,0.000000,6,0.000000,0.000000,0.142249,0,0,0,0,0,0,0
7,79999,25,70000,1,0,40,9999,0.100000,0,0,0.000000,6,0.000000,0.000000,0.110240,0,0,0,0,0,0,0
7,79999,26,70000,32,0,40,9999,0.100000,0,0,0.000000,6,0.000000,0.000000,0.574544,0,0,0,0,0,0,0
7,79999,27,70000,0,0,49,9999,0.100000,0,0,0.000000,6,3.000000,0.000000,10.714492,0,0,0,0,0,0,0
7,79999,28,70000,73,0,40,9999,0.100000,0,0,0.000000,6,0.000000,0.000000,0.715034,0,0,0,0,0,0,0
7,79999,29,70000,73,0,40,9999,0.100000,0,0,0.000000,6,0.000000,0.000000,0.122418,0,0,0,0,0,0,0
7,79999,30,70000,73,0,9,9999,0.100000,0,0,0.000000,6,5.000000,0.000000,7.073504,0,0,0,0,1,0,0
7,79999,31,70000,1,0,40,9999,0.100000,0,0,0.000000,6,0.000000,0.000000,0.229292,0,0,0,0,0,0,0
7,79999,32,70000,73,0,40,9999,0.100000,0,0,0.000000,6,0.000000,0.000000,0.116079,0,0,0,0,0,0,0
7,79999,33,70000,32,0,40,9999,0.100000,0,0,0.000000,6,0.000000,0.000000,2.329674,0,0,0,0,0,0,0
7,79999,34,70000,73,0,40,9999,0.100000,0,0,0.000000,6,0.000000,0.000000,0.160433,0,0,0,0,0,0,0
7,79999,35,70000,70,10000,49,9999,0.100000,0,0,0.000000,6,6.000000,0.000000,19.605440,0,0,0,0,0,0,0
7,79999,36,70000,32,0,40,9999,0.100000,0,0,0.000000,6,0.000000,0.000000,0.877192,0,0,0,0,0,0,0
7,79999,37,70000,70,10000,49,9999,0.100000,0,0,0.000000,6,3.000000,0.000000,10.685089,0,0,0,0,0,0,0
7,79999,38,70000,32,0,49,9999,0.100000,0,0,0.000000,6,1.000000,0.000000,3.049513,0,0,0,0,0,0,0
7,79999,39,70000,73,0,40,9999,0.100000,0,0,0.000000,6,0.000000,0.000000,4.473945,0,0,0,0,0,0,0
7,79999,40,70000,32,0,49,9999,0.100000,0,0,0.000000,6,1.000000,0.000000,13.176993,0,0,0,0,0,0,0
7,79999,41,70000,0,0,49,9999,0.100000,0,0,0.000000,6,4.000000,0.000000,5.324810,0,0,0,0,0,0,0
7,79999,42,70000,0,0,49,9999,0.100000,0,0,0.000000,6,5.000000,0.000000,7.046379,0,0,0,0,0,0,0
7,79999,43,70000,70,10000,49,9999,0.100000,0,0,0.000000,6,1.000000,0.000000,5.148296,0,0,0,0,0,0,0
7,79999,44,70000,73,0,40,9999,0.100000,0,0,0.000000,6,0.000000,0.000000,0.080467,0,0,0,0,0,0,0
7,79999,45,70000,1,0,40,9999,0.100000,0,0,0.000000,6,0.000000,0.000000,0.498222,0,0,0,0,0,0,0
7,79999,46,70000,12,20000,40,9999,0.100000,0,0,0.000000,6,0.000000,0.000000,0.153658,0,0,0,0,0,0,0
7,79999,47,70000,0,0,40,9999,0.100000,0,0,0.000000,6,0.000000,0.000000,0.212245,0,0,0,0,0,0,0
7,79999,48,70000,0,0,40,9999,0.100000,0,0,0.000000,6,0.000000,0.000000,3.145269,0,0,0,0,0,0,0
7,79999,49,70000,12,20000,40,9999,0.100000,0,0,0.000000,6,0.000000,0.000000,0.774703,0,0,0,0,0,0,0
7,79999,50,70000,73,0,40,9999,0.100000,0,0,0.000000,6,0.000000,0.000000,0.143281,0,0,0,0,0,0,0
7,79999,51,70000,1,0,49,9999,0.100000,0,0,0.000000,6,1.000000,0.000000,1.515591,0,0,0,0,0,0,0
7,79999,52,70000,73,0,40,9999,0.100000,0,0,0.000000,6,0.000000,0.000000,0.152985,0,0,0,0,0,0,0
7,79999,53,70000,70,10000,40,9999,0.100000,0,0,0.000000,6,0.000000,0.000000,0.130078,0,0,0,0,0,0,0
7,79999,54,70000,32,0,40,9999,0.100000,0,0,0.000000,6,0.000000,0.000000,0.161366,0,0,0,0,0,0,0
7,79999,55,70000,73,0,40,9999,0.100000,0,0,0.000000,6,0.000000,0.000000,2.609944,0,0,0,0,0,0,0
7,79999,56,70000,70,10000,40,9999,0.100000,0,0,0.000000,6,0.000000,0.000000,0.894685,0,0,0,0,0,0,0
7,79999,57,70000,73,0,49,9999,0.100000,0,0,0.000000,6,5.000000,0.000000,10.199924,0,0,0,0,0,0,0
7,79999,58,70000,32,0,49,9999,0.100000,0,0,0.000000,6,1.000000,0.000000,3.802575,0,0,0,0,0,0,0
7,79999,59,70000,32,0,40,9999,0.100000,0,0,0.000000,6,0.000000,0.000000,0.173275,0,0,0,0,0,0,0
7,79999,60,70000,12,20000,40,9999,0.100000,0,0,0.000000,6,0.000000,0.000000,0.089565,0,0,0,0,0,0,0
7,79999,61,70000,0,0,40,9999,0.100000,0,0,0.000000,6,0.000000,0.000000,0.157074,0,0,0,0,0,0,0
7,79999,62,70000,32,0,40,9999,0.100000,0,0,0.000000,6,0.000000,0.000000,0.556265,0,0,0,0,0,0,0
7,79999,63,70000,1,0,49,9999,0.100000,0,0,0.000000,6,1.000000,0.000000,17.753942,0,0,0,0,0,0,0
7,79999,64,70000,1,0,40,9999,0.100000,0,0,0.000000,6,0.000000,0.000000,0.308403,0,0,0,0,0,0,0
7,79999,65,70000,32,0,40,9999,0.100000,0,0,0.000000,6,0.000000,0.000000,0.081368,0,0,0,0,0,0,0
7,79999,66,70000,70,10000,40,9999,0.100000,0,0,0.000000,6,0.000000,0.000000,0.538126,0,0,0,0,0,0,0
7,79999,67,70000,70,10000,49,9999,0.100000,0,0,0.000000,6,4.000000,0.000000,17.132241,0,0,0,0,0,0,0
7,79999,68,70000,12,20000,40,9999,0.100000,0,0,0.000000,6,0.000000,0.000000,0.394733,0,0,0,0,0,0,0
7,79999,69,70000,32,0,40,9999,0.100000,0,0,0.000000,6,0.000000,0.000000,0.479939,0,0,0,0,0,0,0
7,79999,70,70000,12,20000,40,9999,0.100000,0,0,0.000000,6,0.000000,0.000000,0.155149,0,0,0,0,0,0,0
7,79999,71,70000,0,0,40,9999,0.100000,0,0,0.000000,6,0.000000,0.000000,0.124581,0,0,0,0,0,0,0
7,79999,72,70000,32,0,40,9999,0.100000,0,0,0.000000,6,0.000000,0.000000,0.133484,0,0,0,0,0,0,0
7,79999,73,70000,70,10000,40,9999,0.100000,0,0,0.000000,6,0.000000,0.000000,1.507008,0,0,0,0,0,0,0
7,79999,74,70000,1,0,49,9999,0.100000,0,0,0.000000,6,8.000000,0.000000,22.367376,0,0,0,0,0,0,0
7,79999,75,70000,73,0,40,9999,0.100000,0,0,0.000000,6,0.000000,0.000000,1.598660,0,0,0,0,0,0,0
7,79999,76,70000,70,10000,40,9999,0.100000,0,0,0.000000,6,0.000000,0.000000,0.252756,0,0,0,0,0,0,0
7,79999,77,70000,0,0,40,9999,0.100000,0,0,0.000000,6,0.000000,0.000000,1.884650,0,0,0,0,0,0,0
7,79999,78,70000,70,10000,40,9999,0.100000,0,0,0.000000,6,0.000000,0.000000,0.184182,0,0,0,0,0,0,0
7,79999,79,70000,1,0,40,9999,0.100000,0,0,0.000000,6,0.000000,0.000000,0.088665,0,0,0,0,0,0,0
7,79999,80,70000,73,0,40,9999,0.100000,0,0,0.000000,6,0.000000,0.000000,0.882070,0,0,0,0,0,0,0
7,79999,81,70000,73,0,40,9999,0.100000,0,0,0.000000,6,0.000000,0.000000,0.587133,0,0,0,0,0,0,0
7,79999,82,70000,1,0,40,9999,0.100000,0,0,0.000000,6,0.000000,0.000000,0.085475,0,0,0,0,0,0,0
7,79999,83,70000,32,0,40,9999,0.100000,0,0,0.000000,6,0.000000,0.000000,0.113752,0,0,0,0,0,0,0
7,79999,84,70000,12,20000,49,9999,0.100000,0,0,0.000000,6,1.000000,0.000000,19.485298,0,0,0,0,0,0,0
7,79999,85,70000,32,0,40,9999,0.100000,0,0,0.000000,6,0.000000,0.000000,0.109733,0,0,0,0,0,0,0
7,79999,86,70000,70,10000,40,9999,0.100000,0,0,0.000000,6,0.000000,0.000000,0.721229,0,0,0,0,0,0,0
7,79999,87,70000,0,0,49,9999,0.100000,0,0,0.000000,6,2.000000,0.000000,13.756274,0,0,0,0,0,0,0
7,79999,88,70000,32,0,40,9999,0.100000,0,0,0.000000,6,0.000000,0.000000,0.081924,0,0,0,0,0,0,0
7,79999,89,70000,12,20000,49,9999,0.100000,0,0,0.000000,6,1.000000,0.000000,1.446141,0,0,0,0,0,0,0
7,79999,90,70000,32,0,49,9999,0.100000,0,0,0.000000,6,4.000000,0.000000,6.968848,0,0,0,0,0,0,0
7,79999,91,70000,70,10000,40,9999,0.100000,0,0,0.000000,6,0.000000,0.000000,0.150893,0,0,0,0,0,0,0
7,79999,92,70000,1,0,40,9999,0.100000,0,0,0.000000,6,0.000000,0.000000,0.185436,0,0,0,0,0,0,0
7,79999,93,70000,70,10000,40,9999,0.100000,0,0,0.000000,6,0.000000,0.000000,0.329220,0,0,0,0,0,0,0
7,79999,94,70000,32,0,40,9999,0.100000,0,0,0.000000,6,0.000000,0.000000,0.661020,0,0,0,0,0,0,0
7,79999,95,70000,73,0,49,9999,0.100000,0,0,0.000000,6,3.000000,0.000000,4.284001,0,0,0,0,0,0,0
7,79999,96,70000,70,10000,40,9999,0.100000,0,0,0.000000,6,0.000000,0.000000,0.166997,0,0,0,0,0,0,0
7,79999,97,70000,1,0,40,9999,0.100000,0,0,0.000000,6,0.000000,0.000000,0.926021,0,0,0,0,0,0,0
7,79999,98,70000,12,20000,40,9999,0.100000,0,0,0.000000,6,0.000000,0.000000,1.098707,0,0,0,0,0,0,0
7,79999,99,70000,32,0,40,9999,0.100000,0,0,0.000000,6,0.000000,0.000000,0.124591,0,0,0,0,0,0,0
8,89999,0,80000,12,20000,40,9999,0.100000,0,0,0.000000,6,0.000000,0.000000,2.266298,0,0,0,0,0,0,0
8,89999,1,80000,1,0,40,9999,0.100000,0,0,0.000000,6,0.000000,0.000000,0.121450,0,0,0,0,0,0,0
8,89999,2,80000,32,0,40,9999,0.100000,0,0,0.000000,6,0.000000,0.000000,3.790651,0,0,0,0,0,0,0
8,89999,3,80000,12,20000,40,9999,0.100000,0,0,0.000000,6,0.000000,0.000000,1.526448,0,0,0,0,0,0,0
8,89999,4,80000,0,0,49,9999,0.100000,0,0,0.000000,6,6.000000,0.000000,8.610712,0,0,0,0,0,0,0
8,89999,5,80000,12,20000,40,9999,0.100000,0,0,0.000000,6,0.000000,0.000000,6.214828,0,0,0,0,0,0,0
8,89999,6,80000,70,10000,49,9999,0.100000,0,0,0.000000,6,5.000000,0.000000,22.106072,0,0,0,0,0,0,0
8,89999,7,80000,73,0,40,9999,0.100000,0,0,0.000000,6,0.000000,0.000000,0.126625,0,0,0,0,0,0,0
8,89999,8,80000,32,0,40,9999,0.100000,0,0,0.000000,6,0.000000,0.000000,0.231424,0,0,0,0,0,0,0
8,89999,9,80000,1,0,40,9999,0.100000,0,0,0.000000,6,0.000000,0.000000,2.235184,0,0,0,0,0,0,0
8,89999,10,80000,73,0,49,9999,0.100000,0,0,0.000000,6,3.000000,0.000000,5.317427,0,0,0,0,0,0,0
8,89999,11,80000,73,0,40,9999,0.100000,0,0,0.000000,6,0.000000,0.000000,0.126304,0,0,0,0,0,0,0
8,89999,12,80000,0,0,9,9999,0.100000,0,0,0.000000,6,2.000000,0.000000,3.111752,0,0,0,1,0,0,0
8,89999,13,80000,1,0,40,9999,0.100000,0,0,0.000000,6,0.000000,0.000000,0.848748,0,0,0,0,0,0,0
8,89999,14,80000,1,0,40,9999,0.100000,0,0,0.000000,6,0.000000,0.000000,0.226407,0,0,0,0,0,0,0
8,89999,15,80000,12,20000,49,9999,0.100000,0,0,0.000000,6,1.000000,0.000000,7.230628,0,0,0,0,0,0,0
8,89999,16,80000,0,0,40,9999,0.100000,0,0,0.000000,6,0.000000,0.000000,0.407129,0,0,0,0,0,0,0
8,89999,17,80000,12,20000,40,9999,0.100000,0,0,0.000000,6,0.000000,0.000000,0.789534,0,0,0,0,0,0,0
8,89999,18,80000,1,0,40,9999,0.100000,0,0,0.000000,6,0.000000,0.000000,0.197920,0,0,0,0,0,0,0
8,89999,19,80000,1,0,40,9999,0.100000,0,0,0.000000,6,0.000000,0.000000,2.155492,0,0,0,0,0,0,0
8,89999,20,80000,70,10000,40,9999,0.100000,0,0,0.000000,6,0.000000,0.000000,1.032548,0,0,0,0,0,0,0
8,89999,21,80000,0,0,40,9999,0.100000,0,0,0.000000,6,0.000000,0.000000,0.456237,0,0,0,0,0,0,0
8,89999,22,80000,12,20000,49,9999,0.100000,0,0,0.000000,6,4.000000,0.000000,5.783899,0,0,0,0,0,0,0
8,89999,23,80000,1,0,40,9999,0.100000,0,0,0.000000,6,0.000000,0.000000,0.756233,0,0,0,0,0,0,0
8,89999,24,80000,70,10000,40,9999,0.100000,0,0,0.000000,6,0.000000,0.000000,0.138398,0,0,0,0,0,0,0
8,89999,25,80000,73,0,40,9999,0.100000,0,0,0.000000,6,0.000000,0.000000,0.148759,0,0,0,0,0,0,0
8,89999,26,80000,1,0,49,9999,0.100000,0,0,0.000000,6,2.000000,0.000000,3.172876,0,0,0,0,0,0,0
8,89999,27,80000,12,20000,40,9999,0.100000,0,0,0.000000,6,0.000000,0.000000,2.214530,0,0,0,0,0,0,0
8,89999,28,80000,73,0,49,9999,0.100000,0,0,0.000000,6,2.000000,0.000000,3.370515,0,0,0,0,0,0,0
8,89999,29,80000,1,0,40,9999,0.100000,0,0,0.000000,6,0.000000,0.000000,0.118639,0,0,0,0,0,0,0
8,89999,30,80000,70,10000,49,9999,0.100000,0,0,0.000000,6,3.000000,0.000000,17.351187,0,0,0,0,0,0,0
8,89999,31,80000,1,0,40,9999,0.100000,0,0,0.000000,6,0.000000,0.000000,0.220758,0,0,0,0,0,0,0
8,89999,32,80000,0,0,40,9999,0.100000,0,0,0.000000,6,0.000000,0.000000,0.131594,0,0,0,0,0,0,0
8,89999,33,80000,1,0,40,9999,0.100000,0,0,0.000000,6,0.000000,0.000000,0.855259,0,0,0,0,0,0,0
8,89999,34,80000,1,0,40,9999,0.100000,0,0,0.000000,6,0.000000,0.000000,0.799689,0,0,0,0,0,0,0
8,89999,35,80000,1,0,40,9999,0.100000,0,0,0.000000,6,0.000000,0.000000,1.362525,0,0,0,0,0,0,0
8,89999,36,80000,1,0,49,9999,0.100000,0,0,0.000000,6,2.000000,0.000000,9.285407,0,0,0,0,0,0,0
8,89999,37,80000,73,0,40,9999,0.100000,0,0,0.000000,6,0.000000,0.000000,2.733575,0,0,0,0,0,0,0
8,89999,38,80000,32,0,49,9999,0.100000,0,0,0.000000,6,1.000000,0.000000,6.772372,0,0,0,0,0,0,0
8,89999,39,80000,70,10000,40,9999,0.100000,0,0,0.000000,6,0.000000,0.000000,2.528998,0,0,0,0,0,0,0
8,89999,40,80000,32,0,40,9999,0.100000,0,0,0.000000,6,0.000000,0.000000,11.641585,0,0,0,0,0,0,0
8,89999,41,80000,0,0,49,9999,0.100000,0,0,0.000000,6,6.000000,0.000000,7.847601,0,0,0,0,0,0,0
8,89999,42,80000,1,0,40,9999,0.100000,0,0,0.000000,6,0.000000,0.000000,2.545026,0,0,0,0,0,0,0
8,89999,43,80000,32,0,40,9999,0.100000,0,0,0.000000,6,0.000000,0.000000,2.147738,0,0,0,0,0,0,0
8,89999,44,80000,1,0,40,9999,0.100000,0,0,0.000000,6,0.000000,0.000000,0.080927,0,0,0,0,0,0,0
8,89999,45,80000,1,0,40,9999,0.100000,0,0,0.000000,6,0.000000,0.000000,0.478410,0,0,0,0,0,0,0
8,89999,46,80000,73,0,40,9999,0.100000,0,0,0.000000,6,0.000000,0.000000,0.390596,0,0,0,0,0,0,0
8,89999,47,80000,70,10000,40,9999,0.100000,0,0,0.000000,6,0.000000,0.000000,0.230979,0,0,0,0,0,0,0
8,89999,48,80000,12,20000,49,9999,0.100000,0,0,0.000000,6,3.000000,0.000000,3.551119,0,0,0,0,0,0,0
8,89999,49,80000,32,0,9,9999,0.100000,0,0,0.000000,6,2.000000,0.000000,3.141486,0,0,0,1,0,0,0
8,89999,50,80000,12,20000,40,9999,0.100000,0,0,0.000000,6,0.000000,0.000000,0.130395,0,0,0,0,0,0,0
8,89999,51,80000,0,0,40,9999,0.100000,0,0,0.000000,6,0.000000,0.000000,0.942875,0,0,0,0,0,0,0
8,89999,52,80000,0,0,40,9999,0.100000,0,0,0.000000,6,0.000000,0.000000,0.135814,0,0,0,0,0,0,0
8,89999,53,80000,1,0,40,9999,0.100000,0,0,0.000000,6,0.000000,0.000000,0.132672,0,0,0,0,0,0,0
8,89999,54,80000,70,10000,40,9999,0.100000,0,0,0.000000,6,0.000000,0.000000,0.159779,0,0,0,0,0,0,0
8,89999,55,80000,73,0,40,9999,0.100000,0,0,0.000000,6,0.000000,0.000000,0.231734,0,0,0,0,0,0,0
8,89999,56,80000,0,0,40,9999,0.100000,0,0,0.000000,6,0.000000,0.000000,0.563174,0,0,0,0,0,0,0
8,89999,57,80000,0,0,49,9999,0.100000,0,0,0.000000,6,1.000000,0.000000,4.563864,0,0,0,0,0,0,0
8,89999,58,80000,12,20000,49,9999,0.100000,0,0,0.000000,6,2.000000,0.000000,6.176055,0,0,0,0,0,0,0
8,89999,59,80000,73,0,40,9999,0.100000,0,0,0.000000,6,0.000000,0.000000,0.149359,0,0,0,0,0,0,0
8,89999,60,80000,70,10000,40,9999,0.100000,0,0,0.000000,6,0.000000,0.000000,0.089335,0,0,0,0,0,0,0
8,89999,61,80000,1,0,40,9999,0.100000,0,0,0.000000,6,0.000000,0.000000,0.152622,0,0,0,0,0,0,0
8,89999,62,80000,70,10000,40,9999,0.100000,0,0,0.000000,6,0.000000,0.000000,0.559106,0,0,0,0,0,0,0
8,89999,63,80000,32,0,40,9999,0.100000,0,0,0.000000,6,0.000000,0.000000,5.998871,0,0,0,0,0,0,0
8,89999,64,80000,0,0,40,9999,0.100000,0,0,0.000000,6,0.000000,0.000000,0.352050,0,0,0,0,0,0,0
8,89999,65,80000,73,0,40,9999,0.100000,0,0,0.000000,6,0.000000,0.000000,0.092190,0,0,0,0,0,0,0
8,89999,66,80000,12,20000,40,9999,0.100000,0,0,0.000000,6,0.000000,0.000000,0.588317,0,0,0,0,0,0,0
8,89999,67,80000,32,0,49,9999,0.100000,0,0,0.000000,6,3.000000,0.000000,6.844529,0,0,0,0,0,0,0
8,89999,68,80000,70,10000,40,9999,0.100000,0,0,0.000000,6,0.000000,0.000000,0.416279,0,0,0,0,0,0,0
8,89999,69,80000,0,0,40,9999,0.100000,0,0,0.000000,6,0.000000,0.000000,0.428908,0,0,0,0,0,0,0
8,89999,70,80000,70,10000,40,9999,0.100000,0,0,0.000000,6,0.000000,0.000000,0.166762,0,0,0,0,0,0,0
8,89999,71,80000,12,20000,40,9999,0.100000,0,0,0.000000,6,0.000000,0.000000,0.215310,0,0,0,0,0,0,0
8,89999,72,80000,73,0,40,9999,0.100000,0,0,0.000000,6,0.000000,0.000000,0.137763,0,0,0,0,0,0,0
8,89999,73,80000,12,20000,40,9999,0.100000,0,0,0.000000,6,0.000000,0.000000,1.462120,0,0,0,0,0,0,0
8,89999,74,80000,32,0,49,9999,0.100000,0,0,0.000000,6,2.000000,0.000000,5.679194,0,0,0,0,0,0,0
8,89999,75,80000,73,0,40,9999,0.100000,0,0,0.000000,6,0.000000,0.000000,0.699235,0,0,0,0,0,0,0
8,89999,76,80000,32,0,40,9999,0.100000,0,0,0.000000,6,0.000000,0.000000,0.237924,0,0,0,0,0,0,0
8,89999,77,80000,73,0,40,9999,0.100000,0,0,0.000000,6,0.000000,0.000000,2.015129,0,0,0,0,0,0,0
8,89999,78,80000,0,0,40,9999,0.100000,0,0,0.000000,6,0.000000,0.000000,0.211043,0,0,0,0,0,0,0
8,89999,79,80000,12,20000,40,9999,0.100000,0,0,0.000000,6,0.000000,0.000000,0.086469,0,0,0,0,0,0,0
8,89999,80,80000,32,0,40,9999,0.100000,0,0,0.000000,6,0.000000,0.000000,1.442226,0,0,0,0,0,0,0
8,89999,81,80000,1,0,40,9999,0.100000,0,0,0.000000,6,0.000000,0.000000,0.483797,0,0,0,0,0,0,0
8,89999,82,80000,32,0,40,9999,0.100000,0,0,0.000000,6,0.000000,0.000000,0.085501,0,0,0,0,0,0,0
8,89999,83,80000,70,10000,40,9999,0.100000,0,0,0.000000,6,0.000000,0.000000,0.103338,0,0,0,0,0,0,0
8,89999,84,80000,0,0,49,9999,0.100000,0,0,0.000000,6,2.000000,0.000000,17.366002,0,0,0,0,0,0,0
8,89999,85,80000,0,0,40,9999,0.100000,0,0,0.000000,6,0.000000,0.000000,0.128703,0,0,0,0,0,0,0
8,89999,86,80000,70,10000,40,9999,0.100000,0,0,0.000000,6,0.000000,0.000000,2.693224,0,0,0,0,0,0,0
8,89999,87,80000,32,0,49,9999,0.100000,0,0,0.000000,6,1.000000,0.000000,7.416346,0,0,0,0,0,0,0
8,89999,88,80000,1,0,40,9999,0.100000,0,0,0.000000,6,0.000000,0.000000,0.073317,0,0,0,0,0,0,0
8,89999,89,80000,12,20000,40,9999,0.100000,0,0,0.000000,6,0.000000,0.000000,0.672612,0,0,0,0,0,0,0
8,89999,90,80000,70,10000,49,9999,0.100000,0,0,0.000000,6,6.000000,0.000000,7.977798,0,0,0,0,0,0,0
8,89999,91,80000,1,0,40,9999,0.100000,0,0,0.000000,6,0.000000,0.000000,0.104400,0,0,0,0,0,0,0
8,89999,92,80000,70,10000,40,9999,0.100000,0,0,0.000000,6,0.000000,0.000000,0.405400,0,0,0,0,0,0,0
8,89999,93,80000,73,0,40,9999,0.100000,0,0,0.000000,6,0.000000,0.000000,0.237583,0,0,0,0,0,0,0
8,89999,94,80000,70,10000,40,9999,0.100000,0,0,0.000000,6,0.000000,0.000000,0.611432,0,0,0,0,0,0,0
8,89999,95,80000,12,20000,49,9999,0.100000,0,0,0.000000,6,1.000000,0.000000,4.333152,0,0,0,0,0,0,0
8,89999,96,80000,32,0,40,9999,0.100000,0,0,0.000000,6,0.000000,0.000000,0.177936,0,0,0,0,0,0,0
8,89999,97,80000,12,20000,40,9999,0.100000,0,0,0.000000,6,0.000000,0.000000,1.303007,0,0,0,0,0,0,0
8,89999,98,80000,1,0,40,9999,0.100000,0,0,0.000000,6,0.000000,0.000000,1.052366,0,0,0,0,0,0,0
8,89999,99,80000,70,10000,40,9999,0.100000,0,0,0.000000,6,0.000000,0.000000,0.142806,0,0,0,0,0,0,0
9,99999,0,90000,12,20000,40,9999,0.100000,0,0,0.000000,6,0.000000,0.000000,2.833035,0,0,0,0,0,0,0
9,99999,1,90000,0,0,40,9999,0.100000,0,0,0.000000,6,0.000000,0.000000,0.116770,0,0,0,0,0,0,0
9,99999,2,90000,73,0,40,9999,0.100000,0,0,0.000000,6,0.000000,0.000000,1.193304,0,0,0,0,0,0,0
9,99999,3,90000,0,0,40,9999,0.100000,0,0,0.000000,6,0.000000,0.000000,0.835084,0,0,0,0,0,0,0
9,99999,4,90000,1,0,40,9999,0.100000,0,0,0.000000,6,0.000000,0.000000,0.133918,0,0,0,0,0,0,0
9,99999,5,90000,73,0,40,9999,0.100000,0,0,0.000000,6,0.000000,0.000000,6.320782,0,0,0,0,0,0,0
9,99999,6,90000,73,0,49,9999,0.100000,0,0,0.000000,6,1.000000,0.000000,3.137494,0,0,0,0,0,0,0
9,99999,7,90000,32,0,40,9999,0.100000,0,0,0.000000,6,0.000000,0.000000,0.207022,0,0,0,0,0,0,0
9,99999,8,90000,32,0,40,9999,0.100000,0,0,0.000000,6,0.000000,0.000000,0.421330,0,0,0,0,0,0,0
9,99999,9,90000,73,0,40,9999,0.100000,0,0,0.000000,6,0.000000,0.000000,1.959851,0,0,0,0,0,0,0
9,99999,10,90000,0,0,49,9999,0.100000,0,0,0.000000,6,2.000000,0.000000,4.949989,0,0,0,0,0,0,0
9,99999,11,90000,73,0,40,9999,0.100000,0,0,0.000000,6,0.000000,0.000000,0.127901,0,0,0,0,0,0,0
9,99999,12,90000,12,80000,49,9999,0.100000,0,0,0.000000,7,2.000000,0.000000,5.261349,0,0,0,0,0,0,0
9,99999,13,90000,0,0,40,9999,0.100000,0,0,0.000000,6,0.000000,0.000000,1.190374,0,0,0,0,0,0,0
9,99999,14,90000,12,20000,40,9999,0.100000,0,0,0.000000,6,0.000000,0.000000,0.242118,0,0,0,0,0,0,0
9,99999,15,90000,0,0,49,9999,0.100000,0,0,0.000000,6,3.000000,0.000000,9.818142,0,0,0,0,0,0,0
9,99999,16,90000,1,0,40,9999,0.100000,0,0,0.000000,6,0.000000,0.000000,0.614082,0,0,0,0,0,0,0
9,99999,17,90000,12,20000,40,9999,0.100000,0,0,0.000000,6,0.000000,0.000000,1.301888,0,0,0,0,0,0,0
9,99999,18,90000,0,0,40,9999,0.100000,0,0,0.000000,6,0.000000,0.000000,0.210100,0,0,0,0,0,0,0
9,99999,19,90000,32,0,40,9999,0.100000,0,0,0.000000,6,0.000000,0.000000,0.106739,0,0,0,0,0,0,0
9,99999,20,90000,0,0,40,9999,0.100000,0,0,0.000000,6,0.000000,0.000000,0.983360,0,0,0,0,0,0,0
9,99999,21,90000,32,0,40,9999,0.100000,0,0,0.000000,6,0.000000,0.000000,0.134872,0,0,0,0,0,0,0
9,99999,22,90000,12,80000,49,9999,0.100000,0,0,0.000000,7,3.000000,0.000000,5.277389,0,0,0,0,0,0,0
9,99999,23,90000,32,0,40,9999,0.100000,0,0,0.000000,6,0.000000,0.000000,0.669221,0,0,0,0,0,0,0
9,99999,24,90000,0,0,40,9999,0.100000,0,0,0.000000,6,0.000000,0.000000,0.136441,0,0,0,0,0,0,0
9,99999,25,90000,32,0,40,9999,0.100000,0,0,0.000000,6,0.000000,0.000000,0.135343,0,0,0,0,0,0,0
9,99999,26,90000,17,80000,49,9999,0.100000,0,0,0.000000,6,5.000000,0.000000,13.376480,0,0,0,0,0,0,0
9,99999,27,90000,73,0,40,9999,0.100000,0,0,0.000000,7,0.000000,0.000000,2.185644,0,0,0,0,0,0,0
9,99999,28,90000,1,0,49,9999,0.100000,0,0,0.000000,7,3.000000,0.000000,14.424134,0,0,0,0,0,0,0
9,99999,29,90000,1,0,40,9999,0.100000,0,0,0.000000,6,0.000000,0.000000,0.122223,0,0,0,0,0,0,0
9,99999,30,90000,1,0,49,9999,0.100000,0,0,0.000000,7,4.000000,0.000000,11.833676,0,0,0,0,0,0,0
9,99999,31,90000,12,20000,40,9999,0.100000,0,0,0.000000,6,0.000000,0.000000,0.179582,0,0,0,0,0,0,0
9,99999,32,90000,17,80000,40,9999,0.065000,0,0,0.000000,7,0.000000,0.000000,0.120849,0,0,0,0,0,0,0
9,99999,33,90000,32,0,40,9999,0.100000,0,0,0.000000,6,0.000000,0.000000,0.772050,0,0,0,0,0,0,0
9,99999,34,90000,1,0,40,9999,0.100000,0,0,0.000000,6,0.000000,0.000000,0.942116,0,0,0,0,0,0,0
9,99999,35,90000,1,0,40,9999,0.100000,0,0,0.000000,6,0.000000,0.000000,1.438962,0,0,0,0,0,0,0
9,99999,36,90000,12,20000,49,9999,0.100000,0,0,0.000000,6,3.000000,0.000000,11.273365,0,0,0,0,0,0,0
9,99999,37,90000,0,0,40,9999,0.100000,0,0,0.000000,6,0.000000,0.000000,3.252589,0,0,0,0,0,0,0
9,99999,38,90000,32,0,40,9999,0.100000,0,0,0.000000,6,0.000000,0.000000,1.300649,0,0,0,0,0,0,0
9,99999,39,90000,1,0,40,9999,0.100000,0,0,0.000000,6,0.000000,0.000000,2.266885,0,0,0,0,0,0,0
9,99999,40,90000,1,0,40,9999,0.100000,0,0,0.000000,7,0.000000,0.000000,1.355866,0,0,0,0,0,0,0
9,99999,41,90000,32,0,49,9999,0.100000,0,0,0.000000,6,1.000000,0.000000,6.844334,0,0,0,0,0,0,0
9,99999,42,90000,73,0,40,9999,0.100000,0,0,0.000000,6,0.000000,0.000000,3.534682,0,0,0,0,0,0,0
9,99999,43,90000,0,0,40,9999,0.100000,0,0,0.000000,6,0.000000,0.000000,2.264499,0,0,0,0,0,0,0
9,99999,44,90000,12,20000,40,9999,0.100000,0,0,0.000000,7,0.000000,0.000000,0.092774,0,0,0,0,0,0,0
9,99999,45,90000,17,80000,40,9999,0.100000,0,0,0.000000,6,0.000000,0.000000,0.820998,0,0,0,0,0,0,0
9,99999,46,90000,73,0,40,9999,0.100000,0,0,0.000000,7,0.000000,0.000000,0.163309,0,0,0,0,0,0,0
9,99999,47,90000,73,0,40,9999,0.100000,0,0,0.000000,7,0.000000,0.000000,0.232968,0,0,0,0,0,0,0
9,99999,48,90000,0,0,49,9999,0.100000,0,0,0.000000,6,1.000000,0.000000,5.690991,0,0,0,0,0,0,0
9,99999,49,90000,73,0,49,9999,0.100000,0,0,0.000000,6,5.000000,0.000000,18.882426,0,0,0,0,0,0,0
9,99999,50,90000,1,0,40,9999,0.100000,0,0,0.000000,6,0.000000,0.000000,0.139565,0,0,0,0,0,0,0
9,99999,51,90000,17,80000,40,9999,0.100000,0,0,0.000000,6,0.000000,0.000000,0.536739,0,0,0,0,0,0,0
9,99999,52,90000,17,80000,40,9999,0.100000,0,0,0.000000,7,0.000000,0.000000,0.134822,0,0,0,0,0,0,0
9,99999,53,90000,12,20000,40,9999,0.100000,0,0,0.000000,6,0.000000,0.000000,0.130553,0,0,0,0,0,0,0
9,99999,54,90000,17,80000,40,9999,0.100000,0,0,0.000000,6,0.000000,0.000000,0.523213,0,0,0,0,0,0,0
9,99999,55,90000,0,0,40,9999,0.100000,0,0,0.000000,6,0.000000,0.000000,0.237554,0,0,0,0,0,0,0
9,99999,56,90000,32,0,40,9999,0.100000,0,0,0.000000,6,0.000000,0.000000,0.814311,0,0,0,0,0,0,0
9,99999,57,90000,73,0,40,9999,0.100000,0,0,0.000000,6,0.000000,0.000000,1.411743,0,0,0,0,0,0,0
9,99999,58,90000,73,0,49,9999,0.100000,0,0,0.000000,7,5.000000,0.000000,18.662369,0,0,0,0,0,0,0
9,99999,59,90000,12,20000,40,9999,0.100000,0,0,0.000000,6,0.000000,0.000000,0.319382,0,0,0,0,0,0,0
9,99999,60,90000,32,0,40,9999,0.100000,0,0,0.000000,6,0.000000,0.000000,0.082887,0,0,0,0,0,0,0
9,99999,61,90000,12,80000,40,9999,0.100000,0,0,0.000000,7,0.000000,0.000000,0.145753,0,0,0,0,0,0,0
9,99999,62,90000,17,80000,40,9999,0.100000,0,0,0.000000,7,0.000000,0.000000,0.346023,0,0,0,0,0,0,0
9,99999,63,90000,73,0,40,9999,0.100000,0,0,0.000000,6,0.000000,0.000000,1.876941,0,0,0,0,0,0,0
9,99999,64,90000,12,80000,40,9999,0.100000,0,0,0.000000,7,0.000000,0.000000,0.331050,0,0,0,0,0,0,0
9,99999,65,90000,0,0,40,9999,0.100000,0,0,0.000000,7,0.000000,0.000000,0.101646,0,0,0,0,0,0,0
9,99999,66,90000,73,0,40,9999,0.100000,0,0,0.000000,6,0.000000,0.000000,0.884711,0,0,0,0,0,0,0
9,99999,67,90000,73,0,49,9999,0.100000,0,0,0.000000,7,6.000000,0.000000,17.524316,0,0,0,0,0,0,0
9,99999,68,90000,73,0,40,9999,0.100000,0,0,0.000000,7,0.000000,0.000000,0.460202,0,0,0,0,0,0,0
9,99999,69,90000,0,0,40,9999,0.100000,0,0,0.000000,6,0.000000,0.000000,0.431841,0,0,0,0,0,0,0
9,99999,70,90000,73,0,40,9999,0.100000,0,0,0.000000,6,0.000000,0.000000,0.168729,0,0,0,0,0,0,0
9,99999,71,90000,0,0,40,9999,0.100000,0,0,0.000000,7,0.000000,0.000000,0.391386,0,0,0,0,0,0,0
9,99999,72,90000,1,0,40,9999,0.100000,0,0,0.000000,6,0.000000,0.000000,0.142950,0,0,0,0,0,0,0
9,99999,73,90000,12,20000,40,9999,0.100000,0,0,0.000000,6,0.000000,0.000000,1.174806,0,0,0,0,0,0,0
9,99999,74,90000,0,0,40,9999,0.100000,0,0,0.000000,7,0.000000,0.000000,3.530560,0,0,0,0,0,0,0
9,99999,75,90000,12,80000,40,9999,0.100000,0,0,0.000000,7,0.000000,0.000000,0.640342,0,0,0,0,0,0,0
9,99999,76,90000,0,0,40,9999,0.100000,0,0,0.000000,6,0.000000,0.000000,0.201144,0,0,0,0,0,0,0
9,99999,77,90000,0,0,40,9999,0.100000,0,0,0.000000,6,0.000000,0.000000,0.898911,0,0,0,0,0,0,0
9,99999,78,90000,32,0,40,9999,0.100000,0,0,0.000000,6,0.000000,0.000000,0.245510,0,0,0,0,0,0,0
9,99999,79,90000,17,80000,40,9999,0.100000,0,0,0.000000,6,0.000000,0.000000,0.087063,0,0,0,0,0,0,0
9,99999,80,90000,0,0,40,9999,0.100000,0,0,0.000000,6,0.000000,0.000000,1.425851,0,0,0,0,0,0,0
9,99999,81,90000,73,0,40,9999,0.100000,0,0,0.000000,7,0.000000,0.000000,0.629580,0,0,0,0,0,0,0
9,99999,82,90000,73,0,40,9999,0.100000,0,0,0.000000,7,0.000000,0.000000,0.097640,0,0,0,0,0,0,0
9,99999,83,90000,17,80000,40,9999,0.100000,0,0,0.000000,7,0.000000,0.000000,0.099503,0,0,0,0,0,0,0
9,99999,84,90000,17,80000,40,9999,0.100000,0,0,0.000000,7,0.000000,0.000000,2.147160,0,0,0,0,0,0,0
9,99999,85,90000,32,0,40,9999,0.100000,0,0,0.000000,6,0.000000,0.000000,0.116826,0,0,0,0,0,0,0
9,99999,86,90000,73,0,40,9999,0.100000,0,0,0.000000,7,0.000000,0.000000,0.300850,0,0,0,0,0,0,0
9,99999,87,90000,1,0,49,9999,0.100000,0,0,0.000000,6,3.000000,0.000000,16.554805,0,0,0,0,0,0,0
9,99999,88,90000,73,0,40,9999,0.100000,0,0,0.000000,7,0.000000,0.000000,0.189615,0,0,0,0,0,0,0
9,99999,89,90000,1,0,40,9999,0.100000,0,0,0.000000,6,0.000000,0.000000,0.266895,0,0,0,0,0,0,0
9,99999,90,90000,12,20000,40,9999,0.100000,0,0,0.000000,6,0.000000,0.000000,2.165605,0,0,0,0,0,0,0
9,99999,91,90000,17,80000,40,9999,0.100000,0,0,0.000000,7,0.000000,0.000000,0.121023,0,0,0,0,0,0,0
9,99999,92,90000,17,80000,40,9999,0.100000,0,0,0.000000,6,0.000000,0.000000,0.476558,0,0,0,0,0,0,0
9,99999,93,90000,12,20000,40,9999,0.100000,0,0,0.000000,6,0.000000,0.000000,0.374980,0,0,0,0,0,0,0
9,99999,94,90000,1,0,40,9999,0.100000,0,0,0.000000,7,0.000000,0.000000,0.582490,0,0,0,0,0,0,0
9,99999,95,90000,12,20000,40,9999,0.100000,0,0,0.000000,7,0.000000,0.000000,0.671791,0,0,0,0,0,0,0
9,99999,96,90000,12,80000,40,9999,0.100000,0,0,0.000000,7,0.000000,0.000000,0.309290,0,0,0,0,0,0,0
9,99999,97,90000,12,20000,40,9999,0.100000,0,0,0.000000,6,0.000000,0.000000,1.089471,0,0,0,0,0,0,0
9,99999,98,90000,1,0,49,9999,0.100000,0,0,0.000000,7,2.000000,0.000000,3.601877,0,0,0,0,0,0,0
9,99999,99,90000,17,80000,40,9999,0.100000,0,0,0.000000,6,0.000000,0.000000,0.123336,0,0,0,0,0,0,0
10,109999,0,100000,73,0,49,9999,0.100000,0,0,0.000000,7,1.000000,0.000000,1.684412,0,0,0,0,0,0,0
10,109999,1,100000,17,80000,40,9999,0.100000,0,0,0.000000,7,0.000000,0.000000,0.125066,0,0,0,0,0,0,0
10,109999,2,100000,73,0,40,9999,0.100000,0,0,0.000000,7,0.000000,0.000000,1.561277,0,0,0,0,0,0,0
10,109999,3,100000,0,0,40,9999,0.100000,0,0,0.000000,7,0.000000,0.000000,0.130221,0,0,0,0,0,0,0
10,109999,4,100000,12,20000,40,9999,0.100000,0,0,0.000000,7,0.000000,0.000000,0.136672,0,0,0,0,0,0,0
10,109999,5,100000,0,0,40,9999,0.100000,0,0,0.000000,7,0.000000,0.000000,6.119660,0,0,0,0,0,0,0
10,109999,6,100000,73,0,40,9999,0.100000,0,0,0.000000,7,0.000000,0.000000,0.113644,0,0,0,0,0,0,0
10,109999,7,100000,73,0,40,9999,0.100000,0,0,0.000000,7,0.000000,0.000000,0.106060,0,0,0,0,0,0,0
10,109999,8,100000,0,0,49,9999,0.100000,0,0,0.000000,7,1.000000,0.000000,1.047692,0,0,0,0,0,0,0
10,109999,9,100000,73,0,40,9999,0.100000,0,0,0.000000,7,0.000000,0.000000,2.044699,0,0,0,0,0,0,0
10,109999,10,100000,32,0,40,9999,0.100000,0,0,0.000000,7,0.000000,0.000000,2.138534,0,0,0,0,0,0,0
10,109999,11,100000,12,80000,40,9999,0.100000,0,0,0.000000,7,0.000000,0.000000,0.124704,0,0,0,0,0,0,0
10,109999,12,100000,17,80000,40,9999,0.100000,0,0,0.000000,7,0.000000,0.000000,1.882637,0,0,0,0,0,0,0
10,109999,13,100000,12,20000,49,9999,0.100000,0,0,0.000000,7,1.000000,0.000000,1.809085,0,0,0,0,0,0,0
10,109999,14,100000,12,80000,40,9999,0.100000,0,0,0.000000,7,0.000000,0.000000,0.240828,0,0,0,0,0,0,0
10,109999,15,100000,32,0,40,9999,0.100000,0,0,0.000000,7,0.000000,0.000000,7.617023,0,0,0,0,0,0,0
10,109999,16,100000,12,20000,40,9999,0.100000,0,0,0.000000,7,0.000000,0.000000,0.651008,0,0,0,0,0,0,0
10,109999,17,100000,73,0,40,9999,0.100000,0,0,0.000000,7,0.000000,0.000000,0.587288,0,0,0,0,0,0,0
10,109999,18,100000,12,20000,40,9999,0.100000,0,0,0.000000,7,0.000000,0.000000,0.209943,0,0,0,0,0,0,0
10,109999,19,100000,73,0,40,9999,0.100000,0,0,0.000000,7,0.000000,0.000000,0.131601,0,0,0,0,0,0,0
10,109999,20,100000,73,0,40,9999,0.100000,0,0,0.000000,7,0.000000,0.000000,0.992974,0,0,0,0,0,0,0
10,109999,21,100000,12,80000,40,9999,0.100000,0,0,0.000000,7,0.000000,0.000000,0.170973,0,0,0,0,0,0,0
10,109999,22,100000,32,0,49,9999,0.100000,0,0,0.000000,7,9.000000,0.000000,10.224246,0,0,0,0,0,0,0
10,109999,23,100000,17,80000,49,9999,0.100000,0,0,0.000000,7,1.000000,0.000000,1.520200,0,0,0,0,0,0,0
10,109999,24,100000,73,0,40,9999,0.100000,0,0,0.000000,7,0.000000,0.000000,0.138764,0,0,0,0,0,0,0
10,109999,25,100000,12,20000,40,9999,0.100000,0,0,0.000000,7,0.000000,0.000000,0.121262,0,0,0,0,0,0,0
10,109999,26,100000,1,0,49,9999,0.100000,0,0,0.000000,7,1.000000,0.000000,12.396707,0,0,0,0,0,0,0
10,109999,27,100000,32,0,40,9999,0.100000,0,0,0.000000,7,0.000000,0.000000,2.266749,0,0,0,0,0,0,0
10,109999,28,100000,17,80000,49,9999,0.100000,0,0,0.000000,7,1.000000,0.000000,14.610526,0,0,0,0,0,0,0
10,109999,29,100000,0,0,40,9999,0.100000,0,0,0.000000,7,0.000000,0.000000,0.121308,0,0,0,0,0,0,0
10,109999,30,100000,0,0,49,9999,0.100000,0,0,0.000000,7,1.000000,0.000000,13.959608,0,0,0,0,0,0,0
10,109999,31,100000,17,80000,40,9999,0.100000,0,0,0.000000,7,0.000000,0.000000,0.141628,0,0,0,0,0,0,0
10,109999,32,100000,73,0,40,9999,0.100000,0,0,0.000000,7,0.000000,0.000000,0.119841,0,0,0,0,0,0,0
10,109999,33,100000,32,0,40,9999,0.100000,0,0,0.000000,7,0.000000,0.000000,0.778604,0,0,0,0,0,0,0
10,109999,34,100000,32,0,49,9999,0.100000,0,0,0.000000,7,1.000000,0.000000,1.411152,0,0,0,0,0,0,0
10,109999,35,100000,17,80000,49,9999,0.100000,0,0,0.000000,7,1.000000,0.000000,1.735171,0,0,0,0,0,0,0
10,109999,36,100000,1,0,49,9999,0.100000,0,0,0.000000,7,2.000000,0.000000,7.672689,0,0,0,0,0,0,0
10,109999,37,100000,12,20000,40,9999,0.100000,0,0,0.000000,7,0.000000,0.000000,2.475721,0,0,0,0,0,0,0
10,109999,38,100000,12,80000,40,9999,0.100000,0,0,0.000000,7,0.000000,0.000000,1.316223,0,0,0,0,0,0,0
10,109999,39,100000,12,20000,40,9999,0.100000,0,0,0.000000,7,0.000000,0.000000,2.345305,0,0,0,0,0,0,0
10,109999,40,100000,12,80000,40,9999,0.100000,0,0,0.000000,7,0.000000,0.000000,1.629431,0,0,0,0,0,0,0
10,109999,41,100000,0,0,40,9999,0.100000,0,0,0.000000,7,0.000000,0.000000,1.197194,0,0,0,0,0,0,0
10,109999,42,100000,12,20000,40,9999,0.100000,0,0,0.000000,7,0.000000,0.000000,2.153438,0,0,0,0,0,0,0
10,109999,43,100000,0,0,40,9999,0.100000,0,0,0.000000,7,0.000000,0.000000,2.283733,0,0,0,0,0,0,0
10,109999,44,100000,73,0,40,9999,0.100000,0,0,0.000000,7,0.000000,0.000000,0.095887,0,0,0,0,0,0,0
10,109999,45,100000,32,0,40,9999,0.100000,0,0,0.000000,7,0.000000,0.000000,0.864081,0,0,0,0,0,0,0
10,109999,46,100000,1,0,40,9999,0.100000,0,0,0.000000,7,0.000000,0.000000,0.163712,0,0,0,0,0,0,0
10,109999,47,100000,12,20000,40,9999,0.100000,0,0,0.000000,7,0.000000,0.000000,0.203256,0,0,0,0,0,0,0
10,109999,48,100000,32,0,40,9999,0.135000,0,0,0.000000,7,0.000000,0.000000,5.004731,0,0,0,0,0,0,0
10,109999,49,100000,12,80000,40,9999,0.100000,0,0,0.000000,7,0.000000,0.000000,6.958859,0,0,0,0,0,0,0
10,109999,50,100000,12,20000,40,9999,0.100000,0,0,0.000000,7,0.000000,0.000000,0.163108,0,0,0,0,0,0,0
10,109999,51,100000,1,0,40,9999,0.100000,0,0,0.000000,7,0.000000,0.000000,0.624507,0,0,0,0,0,0,0
10,109999,52,100000,32,0,40,9999,0.100000,0,0,0.000000,7,0.000000,0.000000,0.169310,0,0,0,0,0,0,0
10,109999,53,100000,12,80000,40,9999,0.100000,0,0,0.000000,7,0.000000,0.000000,0.133253,0,0,0,0,0,0,0
10,109999,54,100000,0,0,40,9999,0.100000,0,0,0.000000,7,0.000000,0.000000,0.159155,0,0,0,0,0,0,0
10,109999,55,100000,17,80000,40,9999,0.100000,0,0,0.000000,7,0.000000,0.000000,0.235498,0,0,0,0,0,0,0
10,109999,56,100000,12,80000,40,9999,0.100000,0,0,0.000000,7,0.000000,0.000000,0.194465,0,0,0,0,0,0,0
10,109999,57,100000,12,80000,40,9999,0.100000,0,0,0.000000,7,0.000000,0.000000,1.238798,0,0,0,0,0,0,0
10,109999,58,100000,1,0,49,9999,0.100000,0,0,0.000000,7,3.000000,0.000000,18.471125,0,0,0,0,0,0,0
10,109999,59,100000,17,80000,40,9999,0.100000,0,0,0.000000,7,0.000000,0.000000,0.160750,0,0,0,0,0,0,0
10,109999,60,100000,0,0,40,9999,0.100000,0,0,0.000000,7,0.000000,0.000000,0.085850,0,0,0,0,0,0,0
10,109999,61,100000,12,80000,40,9999,0.100000,0,0,0.000000,7,0.000000,0.000000,0.138330,0,0,0,0,0,0,0
10,109999,62,100000,73,0,40,9999,0.100000,0,0,0.000000,7,0.000000,0.000000,1.066343,0,0,0,0,0,0,0
10,109999,63,100000,1,0,40,9999,0.100000,0,0,0.000000,7,0.000000,0.000000,1.655491,0,0,0,0,0,0,0
10,109999,64,100000,17,80000,40,9999,0.100000,0,0,0.000000,7,0.000000,0.000000,0.329689,0,0,0,0,0,0,0
10,109999,65,100000,12,80000,40,9999,0.100000,0,0,0.000000,7,0.000000,0.000000,0.112508,0,0,0,0,0,0,0
10,109999,66,100000,17,80000,49,9999,0.100000,0,0,0.000000,7,1.000000,0.000000,1.311411,0,0,0,0,0,0,0
10,109999,67,100000,12,20000,40,9999,0.100000,0,0,0.000000,7,0.000000,0.000000,22.016943,0,0,0,0,0,0,0
10,109999,68,100000,12,80000,40,9999,0.100000,0,0,0.000000,7,0.000000,0.000000,0.330019,0,0,0,0,0,0,0
10,109999,69,100000,12,80000,40,9999,0.100000,0,0,0.000000,7,0.000000,0.000000,0.410928,0,0,0,0,0,0,0
10,109999,70,100000,17,80000,40,9999,0.100000,0,0,0.000000,7,0.000000,0.000000,0.152231,0,0,0,0,0,0,0
10,109999,71,100000,1,0,40,9999,0.100000,0,0,0.000000,7,0.000000,0.000000,0.971770,0,0,0,0,0,0,0
10,109999,72,100000,73,0,40,9999,0.100000,0,0,0.000000,7,0.000000,0.000000,0.139245,0,0,0,0,0,0,0
10,109999,73,100000,1,0,49,9999,0.100000,0,0,0.000000,7,1.000000,0.000000,1.859650,0,0,0,0,0,0,0
10,109999,74,100000,17,80000,40,9999,0.100000,0,0,0.000000,7,0.000000,0.000000,3.206038,0,0,0,0,0,0,0
10,109999,75,100000,17,80000,40,9999,0.100000,0,0,0.000000,7,0.000000,0.000000,0.651432,0,0,0,0,0,0,0
10,109999,76,100000,73,0,40,9999,0.100000,0,0,0.000000,7,0.000000,0.000000,0.194311,0,0,0,0,0,0,0
10,109999,77,100000,1,0,40,9999,0.100000,0,0,0.000000,7,0.000000,0.000000,0.905157,0,0,0,0,0,0,0
10,109999,78,100000,32,0,40,9999,0.100000,0,0,0.000000,7,0.000000,0.000000,0.121402,0,0,0,0,0,0,0
10,109999,79,100000,17,80000,40,9999,0.100000,0,0,0.000000,7,0.000000,0.000000,0.087784,0,0,0,0,0,0,0
10,109999,80,100000,12,20000,40,9999,0.100000,0,0,0.000000,7,0.000000,0.000000,1.070664,0,0,0,0,0,0,0
10,109999,81,100000,32,0,40,9999,0.100000,0,0,0.000000,7,0.000000,0.000000,0.555604,0,0,0,0,0,0,0
10,109999,82,100000,17,80000,40,9999,0.100000,0,0,0.000000,7,0.000000,0.000000,0.103306,0,0,0,0,0,0,0
10,109999,83,100000,17,80000,40,9999,0.100000,0,0,0.000000,7,0.000000,0.000000,0.109910,0,0,0,0,0,0,0
10,109999,84,100000,17,80000,40,9999,0.100000,0,0,0.000000,7,0.000000,0.000000,1.380683,0,0,0,0,0,0,0
10,109999,85,100000,1,0,40,9999,0.100000,0,0,0.000000,7,0.000000,0.000000,0.114724,0,0,0,0,0,0,0
10,109999,86,100000,1,0,40,9999,0.100000,0,0,0.000000,7,0.000000,0.000000,0.347632,0,0,0,0,0,0,0
10,109999,87,100000,17,80000,49,9999,0.100000,0,0,0.000000,7,3.000000,0.000000,16.162593,0,0,0,0,0,0,0
10,109999,88,100000,32,0,40,9999,0.100000,0,0,0.000000,7,0.000000,0.000000,0.080832,0,0,0,0,0,0,0
10,109999,89,100000,17,80000,40,9999,0.100000,0,0,0.000000,7,0.000000,0.000000,0.312728,0,0,0,0,0,0,0
10,109999,90,100000,1,0,40,9999,0.100000,0,0,0.000000,7,0.000000,0.000000,1.629648,0,0,0,0,0,0,0
10,109999,91,100000,32,0,40,9999,0.100000,0,0,0.000000,7,0.000000,0.000000,0.140151,0,0,0,0,0,0,0
10,109999,92,100000,17,80000,40,9999,0.100000,0,0,0.000000,7,0.000000,0.000000,0.055906,0,0,0,0,0,0,0
10,109999,93,100000,12,80000,40,9999,0.100000,0,0,0.000000,7,0.000000,0.000000,0.229916,0,0,0,0,0,0,0
10,109999,94,100000,0,0,40,9999,0.100000,0,0,0.000000,7,0.000000,0.000000,0.567276,0,0,0,0,0,0,0
10,109999,95,100000,0,0,40,9999,0.100000,0,0,0.000000,7,0.000000,0.000000,0.297511,0,0,0,0,0,0,0
10,109999,96,100000,32,0,40,9999,0.100000,0,0,0.000000,7,0.000000,0.000000,0.167684,0,0,0,0,0,0,0
10,109999,97,100000,0,0,40,9999,0.100000,0,0,0.000000,7,0.000000,0.000000,0.865439,0,0,0,0,0,0,0
10,109999,98,100000,0,0,40,9999,0.100000,0,0,0.000000,7,0.000000,0.000000,0.240565,0,0,0,0,0,0,0
10,109999,99,100000,1,0,40,9999,0.100000,0,0,0.000000,7,0.000000,0.000000,0.127126,0,0,0,0,0,0,0
11,119999,0,110000,73,0,49,9999,0.100000,0,0,0.000000,7,1.000000,0.000000,3.892409,0,0,0,0,0,0,0
11,119999,1,110000,22,100000,40,9999,0.100000,0,0,0.000000,7,0.000000,0.000000,0.150570,0,0,0,0,0,0,0
11,119999,2,110000,73,0,49,9999,0.100000,0,0,0.000000,7,1.000000,0.000000,4.803341,0,0,0,0,0,0,0
11,119999,3,110000,12,80000,40,9999,0.100000,0,0,0.000000,7,0.000000,0.000000,0.144840,0,0,0,0,0,0,0
11,119999,4,110000,32,0,40,9999,0.100000,0,0,0.000000,7,0.000000,0.000000,0.137295,0,0,0,0,0,0,0
11,119999,5,110000,32,0,40,9999,0.100000,0,0,0.000000,7,0.000000,0.000000,6.335547,0,0,0,0,0,0,0
11,119999,6,110000,12,20000,40,9999,0.100000,0,0,0.000000,7,0.000000,0.000000,0.084998,0,0,0,0,0,0,0
11,119999,7,110000,1,0,40,9999,0.065000,0,0,0.000000,7,0.000000,0.000000,0.112310,0,0,0,0,0,0,0
11,119999,8,110000,12,80000,40,9999,0.100000,0,0,0.000000,7,0.000000,0.000000,0.463524,0,0,0,0,0,0,0
11,119999,9,110000,0,0,40,9999,0.100000,0,0,0.000000,7,0.000000,0.000000,1.796657,0,0,0,0,0,0,0
11,119999,10,110000,1,0,40,9999,0.100000,0,0,0.000000,7,0.000000,0.000000,1.667368,0,0,0,0,0,0,0
11,119999,11,110000,1,0,40,9999,0.100000,0,0,0.000000,7,0.000000,0.000000,0.117661,0,0,0,0,0,0,0
11,119999,12,110000,22,100000,40,9999,0.100000,0,0,0.000000,7,0.000000,0.000000,1.458697,0,0,0,0,0,0,0
11,119999,13,110000,12,20000,40,9999,0.100000,0,0,0.000000,7,0.000000,0.000000,1.096039,0,0,0,0,0,0,0
11,119999,14,110000,12,80000,40,9999,0.100000,0,0,0.000000,7,0.000000,0.000000,0.232852,0,0,0,0,0,0,0
11,119999,15,110000,12,20000,40,9999,0.100000,0,0,0.000000,7,0.000000,0.000000,6.034740,0,0,0,0,0,0,0
11,119999,16,110000,12,20000,40,9999,0.100000,0,0,0.000000,7,0.000000,0.000000,0.665887,0,0,0,0,0,0,0
11,119999,17,110000,17,80000,40,9999,0.100000,0,0,0.000000,7,0.000000,0.000000,0.590003,0,0,0,0,0,0,0
11,119999,18,110000,0,0,40,9999,0.100000,0,0,0.000000,7,0.000000,0.000000,0.104621,0,0,0,0,0,0,0
11,119999,19,110000,22,100000,40,9999,0.100000,0,0,0.000000,7,0.000000,0.000000,0.149076,0,0,0,0,0,0,0
11,119999,20,110000,32,0,40,9999,0.100000,0,0,0.000000,7,0.000000,0.000000,0.942469,0,0,0,0,0,0,0
11,119999,21,110000,12,80000,40,9999,0.100000,0,0,0.000000,7,0.000000,0.000000,0.294620,0,0,0,0,0,0,0
11,119999,22,110000,12,20000,40,9999,0.100000,0,0,0.000000,7,0.000000,0.000000,0.238927,0,0,0,0,0,0,0
11,119999,23,110000,12,80000,40,9999,0.100000,0,0,0.000000,7,0.000000,0.000000,0.235290,0,0,0,0,0,0,0
11,119999,24,110000,12,80000,40,9999,0.100000,0,0,0.000000,7,0.000000,0.000000,0.137858,0,0,0,0,0,0,0
11,119999,25,110000,12,20000,40,9999,0.100000,0,0,0.000000,7,0.000000,0.000000,0.125615,0,0,0,0,0,0,0
11,119999,26,110000,22,100000,49,9999,0.100000,0,0,0.000000,7,1.000000,0.000000,8.306459,0,0,0,0,0,0,0
11,119999,27,110000,32,0,40,9999,0.100000,0,0,0.000000,7,0.000000,0.000000,2.232840,0,0,0,0,0,0,0
11,119999,28,110000,22,100000,49,9999,0.100000,0,0,0.000000,7,1.000000,0.000000,10.364143,0,0,0,0,0,0,0
11,119999,29,110000,12,20000,40,9999,0.100000,0,0,0.000000,7,0.000000,0.000000,0.123737,0,0,0,0,0,0,0
11,119999,30,110000,12,80000,40,9999,0.100000,0,0,0.000000,7,0.000000,0.000000,6.550871,0,0,0,0,0,0,0
11,119999,31,110000,1,0,40,9999,0.100000,0,0,0.000000,7,0.000000,0.000000,0.139023,0,0,0,0,0,0,0
11,119999,32,110000,73,0,40,9999,0.100000,0,0,0.000000,7,0.000000,0.000000,0.118132,0,0,0,0,0,0,0
11,119999,33,110000,12,20000,40,9999,0.100000,0,0,0.000000,7,0.000000,0.000000,0.791800,0,0,0,0,0,0,0
11,119999,34,110000,17,80000,40,9999,0.100000,0,0,0.000000,7,0.000000,0.000000,0.596308,0,0,0,0,0,0,0
11,119999,35,110000,1,0,40,9999,0.100000,0,0,0.000000,7,0.000000,0.000000,1.773788,0,0,0,0,0,0,0
11,119999,36,110000,32,0,40,9999,0.100000,0,0,0.000000,7,0.000000,0.000000,11.129672,0,0,0,0,0,0,0
11,119999,37,110000,12,20000,40,9999,0.100000,0,0,0.000000,7,0.000000,0.000000,2.010626,0,0,0,0,0,0,0
11,119999,38,110000,73,0,40,9999,0.100000,0,0,0.000000,7,0.000000,0.000000,1.004922,0,0,0,0,0,0,0
11,119999,39,110000,12,20000,40,9999,0.100000,0,0,0.000000,7,0.000000,0.000000,1.948884,0,0,0,0,0,0,0
11,119999,40,110000,17,80000,40,9999,0.100000,0,0,0.000000,7,0.000000,0.000000,3.149664,0,0,0,0,0,0,0
11,119999,41,110000,12,20000,40,9999,0.100000,0,0,0.000000,7,0.000000,0.000000,2.419571,0,0,0,0,0,0,0
11,119999,42,110000,17,80000,40,9999,0.100000,0,0,0.000000,7,0.000000,0.000000,1.640022,0,0,0,0,0,0,0
11,119999,43,110000,32,0,40,9999,0.100000,0,0,0.000000,7,0.000000,0.000000,2.377564,0,0,0,0,0,0,0
11,119999,44,110000,12,80000,40,9999,0.100000,0,0,0.000000,7,0.000000,0.000000,0.095920,0,0,0,0,0,0,0
11,119999,45,110000,1,0,40,9999,0.100000,0,0,0.000000,7,0.000000,0.000000,0.886409,0,0,0,0,0,0,0
11,119999,46,110000,0,0,40,9999,0.100000,0,0,0.000000,7,0.000000,0.000000,0.163789,0,0,0,0,0,0,0
11,119999,47,110000,0,0,40,9999,0.100000,0,0,0.000000,7,0.000000,0.000000,0.202245,0,0,0,0,0,0,0
11,119999,48,110000,32,0,40,9999,0.100000,0,0,0.000000,7,0.000000,0.000000,6.733404,0,0,0,0,0,0,0
11,119999,49,110000,0,0,40,9999,0.100000,0,0,0.000000,7,0.000000,0.000000,5.263985,0,0,0,0,0,0,0
11,119999,50,110000,73,0,40,9999,0.100000,0,0,0.000000,7,0.000000,0.000000,0.160745,0,0,0,0,0,0,0
11,119999,51,110000,12,80000,49,9999,0.100000,0,0,0.000000,7,4.000000,0.000000,8.568821,0,0,0,0,0,0,0
11,119999,52,110000,22,100000,40,9999,0.100000,0,0,0.000000,7,0.000000,0.000000,0.267880,0,0,0,0,0,0,0
11,119999,53,110000,73,0,40,9999,0.100000,0,0,0.000000,7,0.000000,0.000000,0.130082,0,0,0,0,0,0,0
11,119999,54,110000,73,0,40,9999,0.100000,0,0,0.000000,7,0.000000,0.000000,0.159520,0,0,0,0,0,0,0
11,119999,55,110000,0,0,40,9999,0.100000,0,0,0.000000,7,0.000000,0.000000,0.232588,0,0,0,0,0,0,0
11,119999,56,110000,1,0,40,9999,0.100000,0,0,0.000000,7,0.000000,0.000000,0.321864,0,0,0,0,0,0,0
11,119999,57,110000,12,20000,40,9999,0.100000,0,0,0.000000,7,0.000000,0.000000,4.249189,0,0,0,0,0,0,0
11,119999,58,110000,73,0,49,9999,0.100000,0,0,0.000000,7,1.000000,0.000000,15.592205,0,0,0,0,0,0,0
11,119999,59,110000,22,100000,40,9999,0.100000,0,0,0.000000,7,0.000000,0.000000,0.149884,0,0,0,0,0,0,0
11,119999,60,110000,1,0,40,9999,0.100000,0,0,0.000000,7,0.000000,0.000000,0.081145,0,0,0,0,0,0,0
11,119999,61,110000,73,0,40,9999,0.100000,0,0,0.000000,7,0.000000,0.000000,0.135097,0,0,0,0,0,0,0
11,119999,62,110000,12,20000,40,9999,0.100000,0,0,0.000000,7,0.000000,0.000000,0.142997,0,0,0,0,0,0,0
11,119999,63,110000,17,80000,49,9999,0.100000,0,0,0.000000,7,3.000000,0.000000,5.081148,0,0,0,0,0,0,0
11,119999,64,110000,12,80000,40,9999,0.100000,0,0,0.000000,7,0.000000,0.000000,0.329621,0,0,0,0,0,0,0
11,119999,65,110000,12,80000,40,9999,0.100000,0,0,0.000000,7,0.000000,0.000000,0.122602,0,0,0,0,0,0,0
11,119999,66,110000,12,20000,40,9999,0.100000,0,0,0.000000,7,0.000000,0.000000,0.686719,0,0,0,0,0,0,0
11,119999,67,110000,1,0,40,9999,0.100000,0,0,0.000000,7,0.000000,0.000000,21.893638,0,0,0,0,0,0,0
11,119999,68,110000,0,0,40,9999,0.100000,0,0,0.000000,7,0.000000,0.000000,0.304682,0,0,0,0,0,0,0
11,119999,69,110000,0,0,40,9999,0.100000,0,0,0.000000,7,0.000000,0.000000,0.426783,0,0,0,0,0,0,0
11,119999,70,110000,1,0,40,9999,0.100000,0,0,0.000000,7,0.000000,0.000000,0.150406,0,0,0,0,0,0,0
11,119999,71,110000,1,0,40,9999,0.100000,0,0,0.000000,7,0.000000,0.000000,0.411651,0,0,0,0,0,0,0
11,119999,72,110000,17,80000,40,9999,0.100000,0,0,0.000000,7,0.000000,0.000000,0.141670,0,0,0,0,0,0,0
11,119999,73,110000,0,0,40,9999,0.100000,0,0,0.000000,7,0.000000,0.000000,2.887264,0,0,0,0,0,0,0
11,119999,74,110000,12,80000,40,9999,0.100000,0,0,0.000000,7,0.000000,0.000000,3.249989,0,0,0,0,0,0,0
11,119999,75,110000,22,100000,40,9999,0.100000,0,0,0.000000,7,0.000000,0.000000,0.676025,0,0,0,0,0,0,0
11,119999,76,110000,12,20000,40,9999,0.100000,0,0,0.000000,7,0.000000,0.000000,0.195277,0,0,0,0,0,0,0
11,119999,77,110000,17,80000,40,9999,0.100000,0,0,0.000000,7,0.000000,0.000000,0.902624,0,0,0,0,0,0,0
11,119999,78,110000,0,0,40,9999,0.100000,0,0,0.000000,7,0.000000,0.000000,0.097809,0,0,0,0,0,0,0
11,119999,79,110000,1,0,40,9999,0.100000,0,0,0.000000,7,0.000000,0.000000,0.087069,0,0,0,0,0,0,0
11,119999,80,110000,73,0,40,9999,0.100000,0,0,0.000000,7,0.000000,0.000000,1.006340,0,0,0,0,0,0,0
11,119999,81,110000,12,80000,40,9999,0.100000,0,0,0.000000,7,0.000000,0.000000,0.550227,0,0,0,0,0,0,0
11,119999,82,110000,22,100000,40,9999,0.100000,0,0,0.000000,7,0.000000,0.000000,0.103772,0,0,0,0,0,0,0
11,119999,83,110000,22,100000,40,9999,0.100000,0,0,0.000000,7,0.000000,0.000000,0.129859,0,0,0,0,0,0,0
11,119999,84,110000,17,80000,40,9999,0.100000,0,0,0.000000,7,0.000000,0.000000,1.222109,0,0,0,0,0,0,0
11,119999,85,110000,0,0,40,9999,0.100000,0,0,0.000000,7,0.000000,0.000000,0.112563,0,0,0,0,0,0,0
11,119999,86,110000,12,80000,40,9999,0.100000,0,0,0.000000,7,0.000000,0.000000,0.447499,0,0,0,0,0,0,0
11,119999,87,110000,73,0,49,9999,0.100000,0,0,0.000000,7,3.000000,0.000000,18.806155,0,0,0,0,0,0,0
11,119999,88,110000,17,80000,40,9999,0.100000,0,0,0.000000,7,0.000000,0.000000,0.116858,0,0,0,0,0,0,0
11,119999,89,110000,17,80000,40,9999,0.100000,0,0,0.000000,7,0.000000,0.000000,2.634204,0,0,0,0,0,0,0
11,119999,90,110000,32,0,40,9999,0.100000,0,0,0.000000,7,0.000000,0.000000,1.250427,0,0,0,0,0,0,0
11,119999,91,110000,12,80000,40,9999,0.100000,0,0,0.000000,7,0.000000,0.000000,0.081748,0,0,0,0,0,0,0
11,119999,92,110000,12,20000,40,9999,0.100000,0,0,0.000000,7,0.000000,0.000000,0.180937,0,0,0,0,0,0,0
11,119999,93,110000,12,80000,40,9999,0.100000,0,0,0.000000,7,0.000000,0.000000,0.250949,0,0,0,0,0,0,0
11,119999,94,110000,0,0,40,9999,0.100000,0,0,0.000000,7,0.000000,0.000000,0.544426,0,0,0,0,0,0,0
11,119999,95,110000,12,80000,40,9999,0.100000,0,0,0.000000,7,0.000000,0.000000,0.311171,0,0,0,0,0,0,0
11,119999,96,110000,0,0,40,9999,0.100000,0,0,0.000000,7,0.000000,0.000000,0.162935,0,0,0,0,0,0,0
11,119999,97,110000,17,80000,40,9999,0.100000,0,0,0.000000,7,0.000000,0.000000,2.045608,0,0,0,0,0,0,0
11,119999,98,110000,12,20000,40,9999,0.100000,0,0,0.000000,7,0.000000,0.000000,0.233002,0,0,0,0,0,0,0
11,119999,99,110000,12,20000,40,9999,0.100000,0,0,0.000000,7,0.000000,0.000000,0.119280,0,0,0,0,0,0,0
12,129999,0,120000,73,0,40,9999,0.100000,0,0,0.000000,7,0.000000,0.000000,0.211458,0,0,0,0,0,0,0
12,129999,1,120000,73,0,40,9999,0.100000,0,0,0.000000,7,0.000000,0.000000,0.128820,0,0,0,0,0,0,0
12,129999,2,120000,12,20000,40,9999,0.100000,0,0,0.000000,7,0.000000,0.000000,4.350118,0,0,0,0,0,0,0
12,129999,3,120000,1,0,40,9999,0.100000,0,0,0.000000,7,0.000000,0.000000,0.160690,0,0,0,0,0,0,0
12,129999,4,120000,17,80000,40,9999,0.100000,0,0,0.000000,7,0.000000,0.000000,0.133716,0,0,0,0,0,0,0
12,129999,5,120000,1,0,40,9999,0.100000,0,0,0.000000,7,0.000000,0.000000,9.000957,0,0,0,0,0,0,0
12,129999,6,120000,1,0,40,9999,0.100000,0,0,0.000000,7,0.000000,0.000000,0.089047,0,0,0,0,0,0,0
12,129999,7,120000,22,100000,40,9999,0.100000,0,0,0.000000,7,0.000000,0.000000,0.120555,0,0,0,0,0,0,0
12,129999,8,120000,12,20000,40,9999,0.100000,0,0,0.000000,7,0.000000,0.000000,0.237556,0,0,0,0,0,0,0
12,129999,9,120000,12,20000,40,9999,0.100000,0,0,0.000000,7,0.000000,0.000000,1.718010,0,0,0,0,0,0,0
12,129999,10,120000,73,0,40,9999,0.100000,0,0,0.000000,7,0.000000,0.000000,1.927234,0,0,0,0,0,0,0
12,129999,11,120000,17,80000,40,9999,0.100000,0,0,0.000000,7,0.000000,0.000000,0.123040,0,0,0,0,0,0,0
12,129999,12,120000,12,80000,40,9999,0.100000,0,0,0.000000,7,0.000000,0.000000,0.874982,0,0,0,0,0,0,0
12,129999,13,120000,22,100000,40,9999,0.100000,0,0,0.000000,7,0.000000,0.000000,1.176154,0,0,0,0,0,0,0
12,129999,14,120000,17,80000,40,9999,0.100000,0,0,0.000000,7,0.000000,0.000000,0.232583,0,0,0,0,0,0,0
12,129999,15,120000,0,0,49,9999,0.100000,0,0,0.000000,7,2.000000,0.000000,10.274231,0,0,0,0,0,0,0
12,129999,16,120000,22,100000,40,9999,0.100000,0,0,0.000000,7,0.000000,0.000000,0.649716,0,0,0,0,0,0,0
12,129999,17,120000,12,20000,40,9999,0.100000,0,0,0.000000,7,0.000000,0.000000,0.583377,0,0,0,0,0,0,0
12,129999,18,120000,73,0,40,9999,0.100000,0,0,0.000000,7,0.000000,0.000000,0.096612,0,0,0,0,0,0,0
12,129999,19,120000,1,0,40,9999,0.100000,0,0,0.000000,7,0.000000,0.000000,0.111101,0,0,0,0,0,0,0
12,129999,20,120000,73,0,40,9999,0.100000,0,0,0.000000,7,0.000000,0.000000,0.908997,0,0,0,0,0,0,0
12,129999,21,120000,1,0,40,9999,0.100000,0,0,0.000000,7,0.000000,0.000000,0.362383,0,0,0,0,0,0,0
12,129999,22,120000,73,0,40,9999,0.100000,0,0,0.000000,7,0.000000,0.000000,0.187793,0,0,0,0,0,0,0
12,129999,23,120000,12,80000,40,9999,0.100000,0,0,0.000000,7,0.000000,0.000000,0.182881,0,0,0,0,0,0,0
12,129999,24,120000,12,20000,40,9999,0.100000,0,0,0.000000,7,0.000000,0.000000,0.134427,0,0,0,0,0,0,0
12,129999,25,120000,0,0,40,9999,0.100000,0,0,0.000000,7,0.000000,0.000000,0.131643,0,0,0,0,0,0,0
12,129999,26,120000,12,20000,49,9999,0.100000,0,0,0.000000,7,2.000000,0.000000,10.788998,0,0,0,0,0,0,0
12,129999,27,120000,17,80000,40,9999,0.100000,0,0,0.000000,7,0.000000,0.000000,2.253637,0,0,0,0,0,0,0
12,129999,28,120000,0,0,49,9999,0.135000,0,0,0.000000,7,2.000000,0.000000,17.217022,0,0,0,0,0,0,0
12,129999,29,120000,73,0,40,9999,0.100000,0,0,0.000000,7,0.000000,0.000000,0.123742,0,0,0,0,0,0,0
12,129999,30,120000,1,0,49,9999,0.100000,0,0,0.000000,7,2.000000,0.000000,12.437029,0,0,0,0,0,0,0
12,129999,31,120000,73,0,40,9999,0.100000,0,0,0.000000,7,0.000000,0.000000,0.147513,0,0,0,0,0,0,0
12,129999,32,120000,1,0,40,9999,0.065000,0,0,0.000000,7,0.000000,0.000000,0.127580,0,0,0,0,0,0,0
12,129999,33,120000,22,100000,40,9999,0.100000,0,0,0.000000,7,0.000000,0.000000,0.849286,0,0,0,0,0,0,0
12,129999,34,120000,0,0,40,9999,0.100000,0,0,0.000000,7,0.000000,0.000000,0.265530,0,0,0,0,0,0,0
12,129999,35,120000,1,0,40,9999,0.100000,0,0,0.000000,7,0.000000,0.000000,0.262979,0,0,0,0,0,0,0
12,129999,36,120000,12,20000,40,9999,0.100000,0,0,0.000000,7,0.000000,0.000000,8.351509,0,0,0,0,0,0,0
12,129999,37,120000,1,0,40,9999,0.100000,0,0,0.000000,7,0.000000,0.000000,2.059254,0,0,0,0,0,0,0
12,129999,38,120000,73,0,40,9999,0.100000,0,0,0.000000,7,0.000000,0.000000,0.788036,0,0,0,0,0,0,0
12,129999,39,120000,0,0,40,9999,0.100000,0,0,0.000000,7,0.000000,0.000000,1.867761,0,0,0,0,0,0,0
12,129999,40,120000,12,80000,40,9999,0.100000,0,0,0.000000,7,0.000000,0.000000,7.494532,0,0,0,0,0,0,0
12,129999,41,120000,73,0,49,9999,0.100000,0,0,0.000000,7,9.000000,0.000000,22.105997,0,0,0,0,0,0,0
12,129999,42,120000,12,20000,40,9999,0.100000,0,0,0.000000,7,0.000000,0.000000,1.707259,0,0,0,0,0,0,0
12,129999,43,120000,22,100000,40,9999,0.100000,0,0,0.000000,7,0.000000,0.000000,2.340132,0,0,0,0,0,0,0
12,129999,44,120000,17,80000,40,9999,0.100000,0,0,0.000000,7,0.000000,0.000000,0.101523,0,0,0,0,0,0,0
