generation,iteration,robot,birthday,ancestor_id,ancestor_birthday,cell_id,age,sigma,maps,genomes,fitness,cells_in_map,dist_max,dist_pot_max,dist_total,com_rx,com_tx,obj_group1,obj_group2,obj_group3,obj_group4,obj_group5
0,9999,0,0,0,0,40,9999,0.100000,99,0,0.000000,0,0.000000,25.592626,1.093735,99,99,0,0,0,0,0
0,9999,1,0,1,0,0,9999,0.100000,99,0,0.055845,0,1.000000,27.253985,2.106926,99,99,0,0,0,1,0
0,9999,2,0,2,0,0,9999,0.100000,99,0,0.096039,0,1.000000,20.912378,4.874560,99,99,0,0,0,0,1
0,9999,3,0,3,0,40,9999,0.100000,99,0,0.000000,0,0.000000,16.030755,1.498545,99,99,0,0,0,0,0
0,9999,4,0,4,0,1,9999,0.100000,99,0,0.078671,0,2.000000,12.823119,6.756969,99,99,0,0,0,0,1
0,9999,5,0,5,0,91,9999,0.100000,99,0,18.989741,0,4.000000,31.010712,13.634514,99,99,1,0,0,0,0
0,9999,6,0,6,0,41,9999,0.100000,99,0,0.000000,0,5.000000,24.302797,10.690797,99,99,0,0,0,0,0
0,9999,7,0,7,0,40,9999,0.100000,99,0,0.000000,0,1.000000,26.714664,16.328048,99,99,0,0,0,0,0
0,9999,8,0,8,0,0,9999,0.100000,99,0,0.007397,0,0.000000,15.554278,0.504145,99,99,0,0,0,0,1
0,9999,9,0,9,0,0,9999,0.100000,99,0,0.978345,0,0.000000,28.435834,0.416017,99,99,0,0,0,0,1
0,9999,10,0,10,0,40,9999,0.100000,99,0,0.000000,0,1.000000,26.602711,2.734072,99,99,0,0,0,0,0
0,9999,11,0,11,0,40,9999,0.100000,99,0,0.000000,0,1.000000,21.910500,4.483847,99,99,0,0,0,0,0
0,9999,12,0,12,0,40,9999,0.100000,99,0,0.000000,0,1.000000,21.200446,9.260246,99,99,0,0,0,0,0
0,9999,13,0,13,0,40,9999,0.100000,99,0,0.000000,0,2.000000,24.266450,4.612393,99,99,0,0,0,0,0
0,9999,14,0,14,0,40,9999,0.100000,99,0,0.000000,0,1.000000,27.390802,12.750292,99,99,0,0,0,0,0
0,9999,15,0,15,0,40,9999,0.100000,99,0,0.000000,0,2.000000,25.902830,13.830473,99,99,0,0,0,0,0
0,9999,16,0,16,0,40,9999,0.100000,99,0,0.000000,0,3.000000,30.080090,5.509291,99,99,0,0,0,0,0
0,9999,17,0,17,0,40,9999,0.100000,99,0,0.000000,0,2.000000,22.149074,8.488573,99,99,0,0,0,0,0
0,9999,18,0,18,0,0,9999,0.100000,99,0,0.050279,0,0.000000,25.295751,0.461769,99,99,0,0,0,0,1
0,9999,19,0,19,0,42,9999,0.100000,99,0,0.000000,0,3.000000,11.500000,8.755153,99,99,0,0,0,0,0
0,9999,20,0,20,0,0,9999,0.100000,99,0,0.732192,0,0.000000,20.547511,1.334568,99,99,0,0,0,0,1
0,9999,21,0,21,0,40,9999,0.100000,99,0,0.000000,0,2.000000,26.524527,4.401091,99,99,0,0,0,0,0
0,9999,22,0,22,0,40,9999,0.100000,99,0,0.000000,0,2.000000,27.418381,11.126727,99,99,0,0,0,0,0
0,9999,23,0,23,0,40,9999,0.100000,99,0,0.000000,0,1.000000,26.130716,8.259454,99,99,0,0,0,0,0
0,9999,24,0,24,0,40,9999,0.100000,99,0,0.000000,0,1.000000,22.955694,10.718462,99,99,0,0,0,0,0
0,9999,25,0,25,0,41,9999,0.100000,99,0,0.000000,0,4.000000,25.507740,7.848962,99,99,0,0,0,0,0
0,9999,26,0,26,0,40,9999,0.100000,99,0,0.000000,0,0.000000,26.507574,0.911312,99,99,0,0,0,0,0
0,9999,27,0,27,0,40,9999,0.100000,99,0,0.000000,0,1.000000,26.796726,2.098896,99,99,0,0,0,0,0
0,9999,28,0,28,0,0,9999,0.100000,99,0,0.000000,0,1.000000,26.029036,2.854941,99,99,0,0,1,0,0
0,9999,29,0,29,0,40,9999,0.100000,99,0,0.000000,0,1.000000,24.924142,2.347602,99,99,0,0,0,0,0
0,9999,30,0,30,0,40,9999,0.100000,99,0,0.000000,0,2.000000,25.657905,8.510856,99,99,0,0,0,0,0
0,9999,31,0,31,0,40,9999,0.100000,99,0,0.000000,0,1.000000,34.493469,4.362296,99,99,0,0,0,0,0
0,9999,32,0,32,0,40,9999,0.100000,99,0,0.000000,0,0.000000,27.079227,0.838962,99,99,0,0,0,0,0
0,9999,33,0,33,0,41,9999,0.100000,99,0,0.000000,0,3.000000,22.419742,8.373047,99,99,0,0,0,0,0
0,9999,34,0,34,0,40,9999,0.100000,99,0,0.000000,0,1.000000,19.420191,3.599863,99,99,0,0,0,0,0
0,9999,35,0,35,0,41,9999,0.100000,99,0,0.000000,0,3.000000,22.757743,7.035043,99,99,0,0,0,0,0
0,9999,36,0,36,0,0,9999,0.100000,99,0,1.342202,0,0.000000,23.562448,0.507202,99,99,0,0,0,1,0
0,9999,37,0,37,0,0,9999,0.100000,99,0,0.147653,0,1.000000,27.944916,2.335766,99,99,0,0,0,0,1
0,9999,38,0,38,0,40,9999,0.100000,99,0,0.000000,0,2.000000,27.613915,7.187082,99,99,0,0,0,0,0
0,9999,39,0,39,0,40,9999,0.100000,99,0,0.000000,0,2.000000,26.862087,6.117120,99,99,0,0,0,0,0
0,9999,40,0,40,0,40,9999,0.100000,99,0,0.000000,0,1.000000,24.328294,6.680497,99,99,0,0,0,0,0
0,9999,41,0,41,0,40,9999,0.100000,99,0,0.000000,0,1.000000,35.250742,2.102760,99,99,0,0,0,0,0
0,9999,42,0,42,0,40,9999,0.100000,99,0,0.000000,0,3.000000,30.579845,6.905819,99,99,0,0,0,0,0
0,9999,43,0,43,0,40,9999,0.100000,99,0,0.000000,0,1.000000,21.225418,2.364931,99,99,0,0,0,0,0
0,9999,44,0,44,0,0,9999,0.100000,99,0,0.004249,0,0.000000,28.970767,0.917222,99,99,0,0,0,0,1
0,9999,45,0,45,0,1,9999,0.100000,99,0,0.000034,0,3.000000,19.780082,8.808888,99,99,0,0,0,0,1
0,9999,46,0,46,0,41,9999,0.100000,99,0,0.000000,0,3.000000,20.609901,12.226616,99,99,0,0,0,0,0
0,9999,47,0,47,0,0,9999,0.100000,99,0,0.082552,0,1.000000,21.401754,4.112908,99,99,0,0,0,0,1
0,9999,48,0,48,0,0,9999,0.100000,99,0,2.286231,0,2.000000,27.029386,6.738144,99,99,0,0,1,0,0
0,9999,49,0,49,0,0,9999,0.100000,99,0,0.070062,0,0.000000,19.492102,0.935988,99,99,0,0,0,0,1
0,9999,50,0,50,0,40,9999,0.100000,99,0,0.000000,0,2.000000,25.212166,4.118611,99,99,0,0,0,0,0
0,9999,51,0,51,0,0,9999,0.100000,99,0,0.001355,0,1.000000,23.931978,2.013355,99,99,0,0,0,0,1
0,9999,52,0,52,0,0,9999,0.100000,99,0,0.602619,0,0.000000,28.555861,0.509206,99,99,0,0,0,0,1
0,9999,53,0,53,0,40,9999,0.100000,99,0,0.000000,0,1.000000,31.689859,1.591363,99,99,0,0,0,0,0
0,9999,54,0,54,0,0,9999,0.100000,99,0,0.068589,0,0.000000,26.765739,1.173843,99,99,0,0,0,0,1
0,9999,55,0,55,0,40,9999,0.100000,99,0,0.000000,0,0.000000,19.818350,5.939220,99,99,0,0,0,0,0
0,9999,56,0,56,0,41,9999,0.100000,99,0,0.000000,0,5.000000,28.933568,12.570607,99,99,0,0,0,0,0
0,9999,57,0,57,0,41,9999,0.100000,99,0,0.000000,0,3.000000,24.534442,13.215806,99,99,0,0,0,0,0
0,9999,58,0,58,0,40,9999,0.100000,99,0,0.000000,0,2.000000,29.751709,6.609220,99,99,0,0,0,0,0
0,9999,59,0,59,0,41,9999,0.100000,99,0,0.000000,0,3.000000,26.458433,8.548519,99,99,0,0,0,0,0
0,9999,60,0,60,0,40,9999,0.100000,99,0,0.000000,0,2.000000,27.497714,5.687232,99,99,0,0,0,0,0
0,9999,61,0,61,0,0,9999,0.100000,99,0,0.655446,0,1.000000,32.536415,2.629675,99,99,0,1,0,0,0
0,9999,62,0,62,0,40,9999,0.100000,99,0,0.000000,0,0.000000,28.370901,0.645810,99,99,0,0,0,0,0
0,9999,63,0,63,0,40,9999,0.100000,99,0,0.000000,0,0.000000,29.436306,1.903045,99,99,0,0,0,0,0
0,9999,64,0,64,0,40,9999,0.100000,99,0,0.000000,0,1.000000,18.005623,2.817374,99,99,0,0,0,0,0
0,9999,65,0,65,0,0,9999,0.100000,99,0,0.321745,0,0.000000,27.181385,0.441693,99,99,0,0,0,0,1
0,9999,66,0,66,0,40,9999,0.100000,99,0,0.000000,0,1.000000,12.973214,2.952445,99,99,0,0,0,0,0
0,9999,67,0,67,0,41,9999,0.100000,99,0,0.000000,0,5.000000,29.342674,6.421242,99,99,0,0,0,0,0
0,9999,68,0,68,0,41,9999,0.100000,99,0,0.000000,0,2.000000,12.941088,9.843486,99,99,0,0,0,0,0
0,9999,69,0,69,0,0,9999,0.100000,99,0,0.000462,0,1.000000,22.209013,3.866477,99,99,0,0,0,0,1
0,9999,70,0,70,0,40,9999,0.100000,99,0,0.000000,0,2.000000,27.041713,12.133740,99,99,0,0,0,0,0
0,9999,71,0,71,0,0,9999,0.100000,99,0,0.001180,0,0.000000,21.335784,0.642549,99,99,0,0,0,0,1
0,9999,72,0,72,0,1,9999,0.100000,99,0,0.101060,0,5.000000,33.053416,9.296230,99,99,0,1,0,0,0
0,9999,73,0,73,0,40,9999,0.100000,99,0,0.000000,0,1.000000,22.788276,8.385638,99,99,0,0,0,0,0
0,9999,74,0,74,0,41,9999,0.100000,99,0,0.000000,0,2.000000,18.209750,15.621021,99,99,0,0,0,0,0
0,9999,75,0,75,0,41,9999,0.100000,99,0,0.000000,0,2.000000,18.729834,5.564063,99,99,0,0,0,0,0
0,9999,76,0,76,0,0,9999,0.100000,99,0,0.317812,0,0.000000,25.950549,2.064216,99,99,0,0,0,0,1
0,9999,77,0,77,0,40,9999,0.100000,99,0,0.000000,0,0.000000,18.612781,0.586943,99,99,0,0,0,0,0
0,9999,78,0,78,0,41,9999,0.100000,99,0,0.000000,0,6.000000,29.577794,13.479223,99,99,0,0,0,0,0
0,9999,79,0,79,0,0,9999,0.100000,99,0,0.001897,0,1.000000,32.230160,3.513078,99,99,0,0,0,0,1
0,9999,80,0,80,0,0,9999,0.100000,99,0,0.105833,0,1.000000,16.100000,2.035069,99,99,0,0,1,0,0
0,9999,81,0,81,0,0,9999,0.100000,99,0,0.004608,0,0.000000,25.697770,0.848182,99,99,0,0,0,0,1
0,9999,82,0,82,0,40,9999,0.100000,99,0,0.000000,0,0.000000,13.612478,2.542360,99,99,0,0,0,0,0
0,9999,83,0,83,0,42,9999,0.100000,99,0,0.000000,0,6.000000,23.336416,21.055573,99,99,0,0,0,0,0
0,9999,84,0,84,0,40,9999,0.100000,99,0,0.000000,0,1.000000,22.310971,7.435353,99,99,0,0,0,0,0
0,9999,85,0,85,0,40,9999,0.100000,99,0,0.000000,0,1.000000,27.044941,5.381981,99,99,0,0,0,0,0
0,9999,86,0,86,0,0,9999,0.100000,99,0,0.032224,0,0.000000,25.008331,0.357220,99,99,0,0,0,1,0
0,9999,87,0,87,0,40,9999,0.100000,99,0,0.000000,0,1.000000,15.234501,8.263848,99,99,0,0,0,0,0
0,9999,88,0,88,0,0,9999,0.100000,99,0,1.802616,0,0.000000,14.609772,2.173942,99,99,0,1,0,0,0
0,9999,89,0,89,0,0,9999,0.100000,99,0,0.007607,0,1.000000,15.866856,9.143631,99,99,0,0,0,0,1
0,9999,90,0,90,0,40,9999,0.100000,99,0,0.000000,0,0.000000,23.113733,2.361994,99,99,0,0,0,0,0
0,9999,91,0,91,0,40,9999,0.100000,99,0,0.000000,0,0.000000,23.130880,0.676241,99,99,0,0,0,0,0
0,9999,92,0,92,0,41,9999,0.100000,99,0,0.000000,0,2.000000,14.011234,5.706512,99,99,0,0,0,0,0
0,9999,93,0,93,0,40,9999,0.100000,99,0,0.000000,0,1.000000,14.304648,4.696147,99,99,0,0,0,0,0
0,9999,94,0,94,0,0,9999,0.100000,99,0,3.006349,0,0.000000,18.386895,1.210808,99,99,0,0,1,0,0
0,9999,95,0,95,0,41,9999,0.100000,99,0,0.000000,0,2.000000,12.284732,5.473887,99,99,0,0,0,0,0
0,9999,96,0,96,0,0,9999,0.100000,99,0,0.096179,0,1.000000,25.339492,9.656954,99,99,0,0,0,1,0
0,9999,97,0,97,0,0,9999,0.100000,99,0,0.001377,0,0.000000,22.366487,1.967757,99,99,0,0,0,0,1
0,9999,98,0,98,0,40,9999,0.100000,99,0,0.000000,0,1.000000,17.083784,2.825528,99,99,0,0,0,0,0
0,9999,99,0,99,0,41,9999,0.100000,99,0,0.000000,0,2.000000,17.516648,6.332467,99,99,0,0,0,0,0
1,19999,0,10000,0,0,40,9999,0.100000,99,0,0.000000,1,0.000000,25.698267,1.122554,99,99,0,0,0,0,0
1,19999,1,10000,0,0,0,9999,0.100000,99,0,0.985487,2,0.000000,26.626459,0.256677,99,99,0,0,0,1,0
1,19999,2,10000,94,0,0,9999,0.100000,99,0,0.033224,5,0.000000,20.511699,0.075264,99,99,0,0,0,0,1
1,19999,3,0,3,0,40,19999,0.100000,99,0,0.000000,2,0.000000,15.528237,1.658306,99,99,0,0,0,0,0
1,19999,4,10000,94,0,0,9999,0.100000,99,0,0.517652,6,0.000000,14.716862,0.441260,99,99,0,0,0,0,1
1,19999,5,10000,19,0,0,9999,0.100000,99,0,0.261033,6,2.000000,33.382764,14.864019,99,99,0,1,0,0,0
1,19999,6,10000,6,0,41,9999,0.100000,99,0,0.000000,7,2.000000,18.477274,6.263019,99,99,0,0,0,0,0
1,19999,7,10000,0,0,40,9999,0.100000,99,0,0.000000,2,2.000000,26.569563,13.637201,99,99,0,0,0,0,0
1,19999,8,10000,83,0,0,9999,0.100000,99,0,0.234653,6,0.000000,15.550526,0.283173,99,99,0,0,0,0,1
1,19999,9,10000,0,0,0,9999,0.100000,99,0,0.545465,2,0.000000,28.684108,0.173876,99,99,0,0,0,0,1
1,19999,10,10000,83,0,40,9999,0.100000,99,0,0.000000,5,1.000000,25.510528,1.182875,99,99,0,0,0,0,0
1,19999,11,10000,45,0,40,9999,0.100000,99,0,0.000000,5,1.000000,20.650999,6.476994,99,99,0,0,0,0,0
1,19999,12,10000,0,0,40,9999,0.100000,99,0,0.000000,2,0.000000,22.395827,1.432586,99,99,0,0,0,0,0
1,19999,13,10000,72,0,40,9999,0.100000,99,0,0.000000,6,0.000000,26.794545,2.333339,99,99,0,0,0,0,0
1,19999,14,10000,19,0,41,9999,0.100000,99,0,0.000000,6,3.000000,27.584420,12.200988,99,99,0,0,0,0,0
1,19999,15,10000,45,0,40,9999,0.100000,99,0,0.000000,6,1.000000,28.274930,5.609819,99,99,0,0,0,0,0
1,19999,16,10000,16,0,40,9999,0.100000,99,0,0.000000,3,0.000000,27.014966,0.215090,99,99,0,0,0,0,0
1,19999,17,10000,83,0,40,9999,0.100000,99,0,0.000000,6,2.000000,24.011870,4.668689,99,99,0,0,0,0,0
1,19999,18,10000,83,0,0,9999,0.100000,99,0,0.060099,5,0.000000,25.202947,0.082395,99,99,0,0,0,0,1
1,19999,19,10000,0,0,40,9999,0.100000,99,0,0.000000,5,1.000000,15.106674,8.361121,99,99,0,0,0,0,0
1,19999,20,10000,0,0,0,9999,0.100000,99,0,0.041604,2,0.000000,20.112566,1.153717,99,99,0,0,0,1,0
1,19999,21,10000,94,0,40,9999,0.100000,99,0,0.000000,6,0.000000,28.474721,0.462994,99,99,0,0,0,0,0
1,19999,22,10000,72,0,40,9999,0.100000,99,0,0.000000,6,0.000000,28.825374,8.081427,99,99,0,0,0,0,0
1,19999,23,10000,20,0,40,9999,0.100000,99,0,0.000000,2,0.000000,26.387173,0.381300,99,99,0,0,0,0,0
1,19999,24,10000,5,0,40,9999,0.100000,99,0,0.000000,6,1.000000,22.187797,3.541160,99,99,0,0,0,0,0
1,19999,25,10000,0,0,0,9999,0.100000,99,0,0.231445,5,0.000000,27.773418,0.509534,99,99,0,0,0,0,1
1,19999,26,10000,5,0,0,9999,0.100000,99,0,0.275859,6,0.000000,26.877662,0.210123,99,99,0,0,0,0,1
1,19999,27,10000,16,0,40,9999,0.100000,99,0,0.000000,3,0.000000,25.032959,0.238776,99,99,0,0,0,0,0
1,19999,28,10000,5,0,40,9999,0.100000,99,0,0.000000,6,2.000000,27.633396,12.493579,99,99,0,0,0,0,0
1,19999,29,10000,45,0,0,9999,0.135000,99,0,0.003951,5,0.000000,24.631290,0.099453,99,99,0,0,0,1,0
1,19999,30,10000,16,0,1,9999,0.100000,99,0,13.084304,3,4.000000,27.899700,13.072642,99,99,0,1,0,0,0
1,19999,31,10000,5,0,40,9999,0.100000,99,0,0.000000,6,0.000000,33.094158,0.310010,99,99,0,0,0,0,0
1,19999,32,10000,0,0,40,9999,0.100000,99,0,0.000000,6,0.000000,27.256717,0.669656,99,99,0,0,0,0,0
1,19999,33,10000,0,0,40,9999,0.100000,99,0,0.000000,6,0.000000,25.005591,0.316479,99,99,0,0,0,0,0
1,19999,34,10000,45,0,40,9999,0.100000,99,0,0.000000,5,0.000000,18.487127,1.118581,99,99,0,0,0,0,0
1,19999,35,10000,0,0,40,9999,0.100000,99,0,0.000000,6,0.000000,19.874415,0.561211,99,99,0,0,0,0,0
1,19999,36,10000,94,0,0,9999,0.100000,99,0,0.229994,6,0.000000,23.672125,0.298337,99,99,0,0,0,1,0
1,19999,37,10000,0,0,0,9999,0.100000,99,0,0.520381,6,2.000000,29.067354,2.341709,99,99,0,0,0,0,1
1,19999,38,10000,45,0,40,9999,0.100000,99,0,0.000000,6,2.000000,28.876680,2.358506,99,99,0,0,0,0,0
1,19999,39,10000,83,0,40,9999,0.100000,99,0,0.000000,6,0.000000,28.820364,0.193068,99,99,0,0,0,0,0
1,19999,40,10000,94,0,40,9999,0.100000,99,0,0.000000,3,1.000000,24.075512,13.794360,99,99,0,0,0,0,0
1,19999,41,10000,83,0,40,9999,0.100000,99,0,0.000000,5,0.000000,34.853934,0.562252,99,99,0,0,0,0,0
1,19999,42,10000,45,0,40,9999,0.100000,99,0,0.000000,6,2.000000,29.588550,2.393110,99,99,0,0,0,0,0
1,19999,43,10000,5,0,40,9999,0.100000,99,0,0.000000,6,0.000000,23.003970,0.432338,99,99,0,0,0,0,0
1,19999,44,10000,20,0,0,9999,0.100000,99,0,0.000735,2,0.000000,28.802726,0.081166,99,99,0,0,0,0,1
1,19999,45,10000,0,0,0,9999,0.100000,99,0,0.282728,4,0.000000,18.013214,0.104706,99,99,0,0,0,0,1
1,19999,46,10000,83,0,1,9999,0.100000,99,0,0.018655,5,3.000000,22.093265,10.480310,99,99,0,0,0,0,1
1,19999,47,10000,5,0,0,9999,0.100000,99,0,0.272324,6,0.000000,22.401499,0.944391,99,99,0,0,0,0,1
1,19999,48,10000,5,0,0,9999,0.100000,99,0,4.926678,6,0.000000,25.415598,1.185880,99,99,0,0,1,0,0
1,19999,49,10000,0,0,40,9999,0.100000,99,0,0.000000,2,0.000000,19.404093,2.377613,99,99,0,0,0,0,0
1,19999,50,10000,94,0,40,9999,0.100000,99,0,0.000000,6,0.000000,23.266141,0.089892,99,99,0,0,0,0,0
1,19999,51,10000,83,0,40,9999,0.100000,99,0,0.000000,5,0.000000,24.828175,0.408354,99,99,0,0,0,0,0
1,19999,52,10000,20,0,40,9999,0.100000,99,0,0.000000,2,0.000000,28.861035,0.110181,99,99,0,0,0,0,0
1,19999,53,10000,94,0,0,9999,0.100000,99,0,0.001718,6,0.000000,30.928209,0.071691,99,99,0,0,0,0,1
1,19999,54,10000,19,0,40,9999,0.100000,99,0,0.000000,6,0.000000,26.643756,0.075787,99,99,0,0,0,0,0
1,19999,55,10000,94,0,40,9999,0.100000,99,0,0.000000,4,1.000000,20.047029,7.386739,99,99,0,0,0,0,0
1,19999,56,10000,0,0,40,9999,0.100000,99,0,0.000000,6,0.000000,28.608127,8.075196,99,99,0,0,0,0,0
1,19999,57,10000,94,0,42,9999,0.100000,99,0,0.000000,5,8.000000,26.436930,26.273891,99,99,0,0,0,0,0
1,19999,58,10000,5,0,40,9999,0.100000,99,0,0.000000,6,0.000000,31.423755,0.090592,99,99,0,0,0,0,0
1,19999,59,10000,19,0,40,9999,0.100000,99,0,0.000000,6,0.000000,29.263438,14.012693,99,99,0,0,0,0,0
1,19999,60,10000,0,0,0,9999,0.100000,99,0,0.152942,2,0.000000,25.124876,0.204069,99,99,0,0,0,0,1
1,19999,61,10000,94,0,40,9999,0.100000,99,0,0.000000,6,1.000000,31.038080,1.509955,99,99,0,0,0,0,0
1,19999,62,10000,83,0,40,9999,0.100000,99,0,0.000000,6,0.000000,28.642729,0.323020,99,99,0,0,0,0,0
1,19999,63,10000,0,0,40,9999,0.100000,99,0,0.000000,5,0.000000,29.009616,0.427195,99,99,0,0,0,0,0
1,19999,64,10000,0,0,0,9999,0.100000,99,0,0.005998,6,0.000000,19.053573,0.467115,99,99,0,0,0,0,1
1,19999,65,10000,45,0,0,9999,0.100000,99,0,0.212486,4,0.000000,27.161071,0.139084,99,99,0,0,0,0,1
1,19999,66,10000,72,0,40,9999,0.100000,99,0,0.000000,6,1.000000,13.869139,4.069096,99,99,0,0,0,0,0
1,19999,67,10000,19,0,40,9999,0.100000,99,0,0.000000,6,1.000000,34.172477,1.781797,99,99,0,0,0,0,0
1,19999,68,10000,0,0,42,9999,0.100000,99,0,0.000000,6,3.000000,14.165105,4.554516,99,99,0,0,0,0,0
1,19999,69,10000,0,0,0,9999,0.100000,99,0,0.036875,2,0.000000,20.940912,0.114752,99,99,0,0,0,0,1
1,19999,70,10000,0,0,40,9999,0.100000,99,0,0.000000,6,0.000000,25.416150,2.375593,99,99,0,0,0,0,0
1,19999,71,10000,5,0,40,9999,0.100000,99,0,0.000000,6,0.000000,21.152085,0.197867,99,99,0,0,0,0,0
1,19999,72,10000,19,0,0,9999,0.100000,99,0,13.171646,6,2.000000,29.467374,5.806065,99,99,0,1,0,0,0
1,19999,73,10000,94,0,40,9999,0.100000,99,0,0.000000,5,0.000000,23.695323,21.641176,99,99,0,0,0,0,0
1,19999,74,10000,19,0,40,9999,0.100000,99,0,0.000000,6,0.000000,20.237524,4.869830,99,99,0,0,0,0,0
1,19999,75,10000,83,0,42,9999,0.100000,99,0,0.000000,6,5.000000,16.079820,21.874715,99,99,0,0,0,0,0
1,19999,76,10000,20,0,40,9999,0.100000,99,0,0.000000,2,0.000000,26.248809,0.734552,99,99,0,0,0,0,0
1,19999,77,0,77,0,40,19999,0.100000,99,0,0.000000,4,0.000000,18.684966,0.154359,99,99,0,0,0,0,0
1,19999,78,10000,5,0,90,9999,0.100000,99,0,0.918902,6,0.000000,33.486089,4.678239,99,99,1,0,0,0,0
1,19999,79,10000,0,0,40,9999,0.100000,99,0,0.000000,6,0.000000,31.291372,0.080389,99,99,0,0,0,0,0
1,19999,80,10000,0,0,0,9999,0.100000,99,0,0.009295,6,0.000000,16.548884,0.129043,99,99,0,0,1,0,0
1,19999,81,10000,83,0,0,9999,0.100000,99,0,0.157591,6,0.000000,25.592754,0.193993,99,99,0,0,0,0,1
1,19999,82,10000,5,0,41,9999,0.100000,99,0,0.000000,6,3.000000,14.290585,16.569402,99,99,0,0,0,0,0
1,19999,83,10000,0,0,40,9999,0.100000,99,0,0.000000,5,1.000000,16.871765,5.799261,99,99,0,0,0,0,0
1,19999,84,10000,19,0,43,9999,0.100000,99,0,0.000000,6,10.000000,23.832737,13.843078,99,99,0,0,0,0,0
1,19999,85,10000,0,0,0,9999,0.100000,99,0,0.002064,2,0.000000,26.467319,0.111102,99,99,0,0,0,0,1
1,19999,86,10000,5,0,40,9999,0.100000,99,0,0.000000,6,0.000000,25.214050,0.093676,99,99,0,0,0,0,0
1,19999,87,10000,94,0,41,9999,0.100000,99,0,0.000000,5,2.000000,15.524543,12.737604,99,99,0,0,0,0,0
1,19999,88,10000,83,0,0,9999,0.100000,99,0,0.175510,6,0.000000,15.360209,0.192665,99,99,0,1,0,0,0
1,19999,89,10000,83,0,0,9999,0.100000,99,0,0.001003,6,0.000000,17.758846,0.065720,99,99,0,0,0,0,1
1,19999,90,10000,20,0,40,9999,0.100000,99,0,0.000000,2,2.000000,22.933308,6.299709,99,99,0,0,0,0,0
1,19999,91,10000,83,0,40,9999,0.100000,99,0,0.000000,6,0.000000,23.100500,0.151116,99,99,0,0,0,0,0
1,19999,92,10000,83,0,40,9999,0.100000,99,0,0.000000,6,0.000000,16.014370,0.373038,99,99,0,0,0,0,0
1,19999,93,10000,0,0,40,9999,0.100000,99,0,0.000000,5,0.000000,15.321331,0.474091,99,99,0,0,0,0,0
1,19999,94,10000,0,0,0,9999,0.100000,99,0,1.166059,2,0.000000,18.621926,0.430090,99,99,0,0,1,0,0
1,19999,95,10000,0,0,41,9999,0.100000,99,0,0.000000,6,2.000000,11.624578,9.901003,99,99,0,0,0,0,0
1,19999,96,10000,5,0,0,9999,0.100000,99,0,0.138657,6,0.000000,23.980559,0.179550,99,99,0,0,0,1,0
1,19999,97,10000,45,0,0,9999,0.100000,99,0,0.000208,5,0.000000,23.039204,0.076288,99,99,0,0,0,0,1
1,19999,98,10000,5,0,40,9999,0.100000,99,0,0.000000,6,0.000000,16.958106,0.076976,99,99,0,0,0,0,0
1,19999,99,10000,5,0,40,9999,0.100000,99,0,0.000000,6,0.000000,18.942972,0.153043,99,99,0,0,0,0,0
2,29999,0,20000,94,0,40,9999,0.100000,99,0,0.000000,7,1.000000,25.605807,5.174619,99,99,0,0,0,0,0
2,29999,1,20000,72,10000,41,9999,0.100000,99,0,0.000000,8,3.000000,26.606736,8.471164,99,99,0,0,0,0,0
2,29999,2,20000,5,0,0,9999,0.100000,99,0,0.134232,7,0.000000,20.513387,0.319583,99,99,0,0,0,0,1
2,29999,3,20000,83,0,40,9999,0.100000,99,0,0.000000,7,0.000000,15.201341,0.882001,99,99,0,0,0,0,0
2,29999,4,20000,83,0,0,9999,0.100000,99,0,0.014841,8,0.000000,14.772174,1.081259,99,99,0,0,0,0,1
2,29999,5,20000,6,0,0,9999,0.100000,99,0,6.982133,8,1.000000,32.148926,4.715067,99,99,0,2,0,0,0
2,29999,6,20000,83,0,0,9999,0.100000,99,0,0.114852,8,0.000000,16.438367,0.230047,99,99,0,0,0,0,1
2,29999,7,20000,5,0,40,9999,0.100000,99,0,0.000000,8,1.000000,28.743025,13.916484,99,99,0,0,0,0,0
2,29999,8,20000,6,0,40,9999,0.100000,99,0,0.000000,7,0.000000,15.721051,0.398409,99,99,0,0,0,0,0
2,29999,9,20000,5,0,0,9999,0.100000,99,0,0.602715,8,0.000000,28.760467,0.196265,99,99,0,0,0,0,1
2,29999,10,20000,5,0,40,9999,0.100000,99,0,0.000000,7,1.000000,24.726227,1.296396,99,99,0,0,0,0,0
2,29999,11,20000,5,0,40,9999,0.100000,99,0,0.000000,8,0.000000,21.810054,18.388330,99,99,0,0,0,0,0
2,29999,12,20000,72,10000,40,9999,0.100000,99,0,0.000000,8,0.000000,22.371077,2.246159,99,99,0,0,0,0,0
2,29999,13,20000,72,0,40,9999,0.100000,99,0,0.000000,7,0.000000,26.323975,3.952428,99,99,0,0,0,0,0
2,29999,14,20000,72,10000,40,9999,0.100000,99,0,0.000000,7,1.000000,30.832482,6.564608,99,99,0,0,0,0,0
2,29999,15,20000,6,0,40,9999,0.100000,99,0,0.000000,7,2.000000,28.319542,4.060972,99,99,0,0,0,0,0
2,29999,16,20000,0,0,0,9999,0.100000,99,0,0.979431,8,1.000000,27.022647,1.580268,99,99,0,0,0,1,0
2,29999,17,20000,19,0,40,9999,0.100000,99,0,0.000000,8,0.000000,25.741842,0.354223,99,99,0,0,0,0,0
2,29999,18,20000,6,0,0,9999,0.100000,99,0,0.069975,8,0.000000,25.220029,0.083872,99,99,0,0,0,0,1
2,29999,19,20000,19,0,42,9999,0.100000,99,0,0.000000,7,3.000000,13.841207,8.264249,99,99,0,0,0,0,0
2,29999,20,20000,0,0,40,9999,0.100000,99,0,0.000000,8,0.000000,20.573609,0.406689,99,99,0,0,0,0,0
2,29999,21,20000,5,0,40,9999,0.100000,99,0,0.000000,8,0.000000,28.530821,0.569230,99,99,0,0,0,0,0
2,29999,22,20000,72,10000,40,9999,0.100000,99,0,0.000000,8,0.000000,28.799889,8.186535,99,99,0,0,0,0,0
2,29999,23,20000,83,0,40,9999,0.100000,99,0,0.000000,7,1.000000,26.311374,1.314901,99,99,0,0,0,0,0
2,29999,24,20000,0,0,40,9999,0.100000,99,0,0.000000,7,0.000000,23.004788,0.999637,99,99,0,0,0,0,0
2,29999,25,20000,72,10000,0,9999,0.100000,99,0,0.605828,8,0.000000,27.934625,0.160662,99,99,0,0,0,0,1
2,29999,26,20000,72,10000,0,9999,0.100000,99,0,0.190647,8,0.000000,26.882804,0.654440,99,99,0,0,0,0,1
2,29999,27,20000,83,0,40,9999,0.100000,99,0,0.000000,7,0.000000,24.941984,0.233771,99,99,0,0,0,0,0
2,29999,28,20000,19,0,40,9999,0.100000,99,0,0.000000,8,0.000000,28.079477,7.669354,99,99,0,0,0,0,0
2,29999,29,20000,0,0,0,9999,0.100000,99,0,0.003299,8,0.000000,24.630966,0.840722,99,99,0,0,0,1,0
2,29999,30,20000,0,0,40,9999,0.100000,99,0,0.000000,8,1.000000,29.881853,9.411737,99,99,0,0,0,0,0
2,29999,31,20000,19,0,40,9999,0.100000,99,0,0.000000,8,0.000000,33.049524,0.890277,99,99,0,0,0,0,0
2,29999,32,20000,30,10000,40,9999,0.100000,99,0,0.000000,8,0.000000,27.279780,1.008570,99,99,0,0,0,0,0
2,29999,33,20000,78,10000,0,9999,0.100000,99,0,0.020934,8,0.000000,25.203878,2.645511,99,99,0,0,0,0,1
2,29999,34,20000,5,0,40,9999,0.100000,99,0,0.000000,8,0.000000,18.752013,1.159001,99,99,0,0,0,0,0
2,29999,35,20000,5,0,40,9999,0.100000,99,0,0.000000,8,0.000000,19.944881,0.219283,99,99,0,0,0,0,0
2,29999,36,20000,72,0,0,9999,0.100000,99,0,0.573378,8,0.000000,23.621148,0.219115,99,99,0,0,0,1,0
2,29999,37,20000,5,0,0,9999,0.100000,99,0,0.099302,8,0.000000,30.680573,0.573653,99,99,0,0,0,0,1
2,29999,38,20000,78,10000,40,9999,0.100000,99,0,0.000000,8,0.000000,30.479248,0.635996,99,99,0,0,0,0,0
2,29999,39,20000,83,0,40,9999,0.100000,99,0,0.000000,7,0.000000,28.913015,0.202844,99,99,0,0,0,0,0
2,29999,40,20000,72,10000,40,9999,0.135000,99,0,0.000000,7,2.000000,23.686446,13.235123,99,99,0,0,0,0,0
2,29999,41,20000,30,10000,42,9999,0.100000,99,0,0.000000,8,9.000000,34.844393,13.741699,99,99,0,0,0,0,0
2,29999,42,20000,72,10000,40,9999,0.100000,99,0,0.000000,8,0.000000,31.167065,0.891857,99,99,0,0,0,0,0
2,29999,43,20000,83,0,40,9999,0.100000,99,0,0.000000,7,0.000000,23.053023,0.372870,99,99,0,0,0,0,0
2,29999,44,20000,78,10000,0,9999,0.100000,99,0,0.000411,8,0.000000,28.803800,0.080278,99,99,0,0,0,0,1
2,29999,45,20000,19,0,0,9999,0.100000,99,0,0.029723,8,0.000000,17.992024,0.096554,99,99,0,0,0,0,1
2,29999,46,20000,6,0,0,9999,0.100000,99,0,0.101612,8,0.000000,21.374699,0.573537,99,99,0,0,0,0,1
2,29999,47,20000,72,10000,0,9999,0.100000,99,0,1.408779,8,0.000000,22.400328,1.040446,99,99,0,0,0,0,1
2,29999,48,20000,0,0,0,9999,0.100000,99,0,4.852798,8,1.000000,24.738670,1.271306,99,99,0,0,1,0,0
2,29999,49,20000,75,10000,40,9999,0.100000,99,0,0.000000,8,0.000000,19.607653,0.263160,99,99,0,0,0,0,0
2,29999,50,20000,72,10000,0,9999,0.100000,99,0,0.000692,8,0.000000,23.264935,0.089813,99,99,0,0,0,0,1
2,29999,51,20000,72,0,40,9999,0.100000,99,0,0.000000,8,0.000000,24.676465,0.519239,99,99,0,0,0,0,0
2,29999,52,20000,6,0,40,9999,0.100000,99,0,0.000000,8,0.000000,28.915195,0.300947,99,99,0,0,0,0,0
2,29999,53,20000,72,10000,40,9999,0.100000,99,0,0.000000,8,0.000000,30.928397,0.071202,99,99,0,0,0,0,0
2,29999,54,20000,75,10000,0,9999,0.100000,99,0,0.002388,8,0.000000,26.645981,0.066832,99,99,0,0,0,0,1
2,29999,55,20000,75,10000,40,9999,0.100000,99,0,0.000000,8,0.000000,21.039760,0.930519,99,99,0,0,0,0,0
2,29999,56,20000,0,0,40,9999,0.100000,99,0,0.000000,8,0.000000,28.559081,0.254382,99,99,0,0,0,0,0
2,29999,57,20000,19,0,40,9999,0.100000,99,0,0.000000,8,2.000000,29.103642,10.383999,99,99,0,0,0,0,0
2,29999,58,20000,5,0,0,9999,0.100000,99,0,0.002197,8,0.000000,31.424500,0.091894,99,99,0,0,0,0,1
2,29999,59,20000,30,10000,41,9999,0.100000,99,0,0.000000,8,4.000000,28.861986,9.714910,99,99,0,0,0,0,0
2,29999,60,20000,0,0,0,9999,0.100000,99,0,0.495754,7,0.000000,24.985645,0.510496,99,99,0,0,0,0,1
2,29999,61,20000,83,0,0,9999,0.100000,99,0,6.905529,8,1.000000,31.928899,9.061869,99,99,0,1,0,0,0
2,29999,62,20000,6,0,40,9999,0.100000,99,0,0.000000,8,0.000000,28.701264,0.396050,99,99,0,0,0,0,0
2,29999,63,20000,19,0,40,9999,0.100000,99,0,0.000000,8,0.000000,29.125369,0.376745,99,99,0,0,0,0,0
2,29999,64,20000,5,0,0,9999,0.100000,99,0,0.000109,7,0.000000,18.928980,0.091325,99,99,0,0,0,0,1
2,29999,65,20000,30,10000,40,9999,0.100000,99,0,0.000000,8,0.000000,27.204365,1.179305,99,99,0,0,0,0,0
2,29999,66,20000,83,0,40,9999,0.100000,99,0,0.000000,8,0.000000,15.354365,3.028898,99,99,0,0,0,0,0
2,29999,67,20000,5,0,41,9999,0.100000,99,0,0.000000,8,5.000000,34.962144,9.584135,99,99,0,0,0,0,0
2,29999,68,20000,94,0,40,9999,0.100000,99,0,0.000000,7,0.000000,11.908583,0.188023,99,99,0,0,0,0,0
2,29999,69,20000,30,10000,0,9999,0.100000,99,0,0.497510,8,0.000000,20.961904,0.516905,99,99,0,0,0,0,1
2,29999,70,20000,72,10000,40,9999,0.100000,99,0,0.000000,8,1.000000,24.872330,8.370323,99,99,0,0,0,0,0
2,29999,71,20000,6,0,40,9999,0.100000,99,0,0.000000,8,0.000000,21.145245,0.460699,99,99,0,0,0,0,0
2,29999,72,20000,0,0,40,9999,0.100000,99,0,0.000000,7,0.000000,31.505104,9.473810,99,99,0,0,0,0,0
2,29999,73,20000,72,10000,40,9999,0.100000,99,0,0.000000,8,0.000000,23.823197,21.564460,99,99,0,0,0,0,0
2,29999,74,20000,78,10000,40,9999,0.100000,99,0,0.000000,8,2.000000,19.933342,7.496477,99,99,0,0,0,0,0
2,29999,75,20000,6,0,40,9999,0.100000,99,0,0.000000,8,0.000000,12.277014,7.601528,99,99,0,0,0,0,0
2,29999,76,20000,83,0,40,9999,0.100000,99,0,0.000000,8,0.000000,26.270737,0.388705,99,99,0,0,0,0,0
2,29999,77,20000,30,10000,40,9999,0.100000,99,0,0.000000,8,0.000000,18.648791,0.098770,99,99,0,0,0,0,0
2,29999,78,20000,83,0,91,9999,0.100000,99,0,27.784555,8,5.000000,33.330322,10.474742,99,99,1,0,0,0,0
2,29999,79,20000,83,0,40,9999,0.100000,99,0,0.000000,8,0.000000,31.292021,0.081803,99,99,0,0,0,0,0
2,29999,80,20000,0,0,0,9999,0.100000,99,0,0.006901,7,0.000000,16.548793,0.128123,99,99,0,0,1,0,0
2,29999,81,20000,78,10000,0,9999,0.100000,99,0,0.149180,8,0.000000,25.517316,0.153737,99,99,0,0,0,0,1
2,29999,82,20000,5,0,40,9999,0.100000,99,0,0.000000,8,1.000000,11.413091,14.846913,99,99,0,0,0,0,0
2,29999,83,20000,72,10000,41,9999,0.100000,99,0,0.000000,8,2.000000,18.326797,11.648525,99,99,0,0,0,0,0
2,29999,84,20000,78,10000,40,9999,0.100000,99,0,0.000000,8,0.000000,30.977477,0.210978,99,99,0,0,0,0,0
2,29999,85,20000,0,0,40,9999,0.100000,99,0,0.000000,8,0.000000,26.469386,0.112330,99,99,0,0,0,0,0
2,29999,86,20000,5,0,40,9999,0.100000,99,0,0.000000,8,0.000000,25.213458,0.094592,99,99,0,0,0,0,0
2,29999,87,20000,72,10000,41,9999,0.100000,99,0,0.000000,8,2.000000,13.060334,4.796622,99,99,0,0,0,0,0
2,29999,88,20000,72,10000,0,9999,0.100000,99,0,0.169016,8,0.000000,15.381127,0.192444,99,99,0,1,0,0,0
2,29999,89,20000,78,10000,0,9999,0.100000,99,0,0.001137,8,0.000000,17.757567,0.065456,99,99,0,0,0,0,1
2,29999,90,20000,5,0,40,9999,0.100000,99,0,0.000000,7,0.000000,22.155922,0.972451,99,99,0,0,0,0,0
2,29999,91,20000,5,0,40,9999,0.100000,99,0,0.000000,8,0.000000,23.100835,0.421619,99,99,0,0,0,0,0
2,29999,92,20000,75,10000,40,9999,0.100000,99,0,0.000000,8,0.000000,16.137028,0.272805,99,99,0,0,0,0,0
2,29999,93,20000,0,0,40,9999,0.100000,99,0,0.000000,8,0.000000,15.495227,0.442104,99,99,0,0,0,0,0
2,29999,94,20000,19,0,0,9999,0.100000,99,0,1.148374,8,0.000000,18.888869,0.426571,99,99,0,0,1,0,0
2,29999,95,20000,5,0,42,9999,0.100000,99,0,0.000000,7,3.000000,13.284789,16.043977,99,99,0,0,0,0,0
2,29999,96,20000,0,0,0,9999,0.100000,99,0,0.161035,8,0.000000,24.041409,0.181412,99,99,0,0,0,1,0
2,29999,97,20000,0,0,40,9999,0.100000,99,0,0.000000,8,0.000000,23.038622,0.074404,99,99,0,0,0,0,0
2,29999,98,20000,0,0,40,9999,0.100000,99,0,0.000000,8,0.000000,16.957449,0.076620,99,99,0,0,0,0,0
2,29999,99,20000,0,0,40,9999,0.100000,99,0,0.000000,8,0.000000,18.902778,0.071135,99,99,0,0,0,0,0
3,39999,0,30000,72,10000,40,9999,0.100000,99,0,0.000000,8,1.000000,23.980267,1.432584,99,99,0,0,0,0,0
3,39999,1,30000,30,10000,0,9999,0.100000,99,0,0.534869,8,3.000000,29.669547,4.426961,99,99,0,0,0,1,0
3,39999,2,30000,0,0,0,9999,0.100000,99,0,0.387124,8,0.000000,20.541928,0.444888,99,99,0,0,0,0,1
3,39999,3,30000,75,10000,40,9999,0.100000,99,0,0.000000,8,0.000000,15.638149,0.125610,99,99,0,0,0,0,0
3,39999,4,30000,78,10000,0,9999,0.100000,99,0,0.146066,8,0.000000,15.262227,0.478430,99,99,0,0,0,0,1
3,39999,5,30000,72,10000,0,9999,0.100000,99,0,0.697390,8,0.000000,32.781273,1.332558,99,99,0,1,0,0,0
3,39999,6,30000,72,10000,0,9999,0.100000,99,0,0.308477,8,0.000000,16.539143,0.722594,99,99,0,0,0,0,1
3,39999,7,30000,19,0,41,9999,0.100000,99,0,0.000000,8,4.000000,27.276980,14.508739,99,99,0,0,0,0,0
3,39999,8,30000,6,0,40,9999,0.100000,99,0,0.000000,8,0.000000,15.821898,1.055079,99,99,0,0,0,0,0
3,39999,9,30000,19,0,0,9999,0.100000,99,0,0.501295,8,0.000000,28.871439,0.141988,99,99,0,0,0,0,1
3,39999,10,30000,78,10000,40,9999,0.100000,99,0,0.000000,8,0.000000,23.470418,0.696112,99,99,0,0,0,0,0
3,39999,11,30000,75,10000,43,9999,0.100000,99,0,0.000000,8,7.000000,22.001780,19.868241,99,99,0,0,0,0,0
3,39999,12,30000,19,0,40,9999,0.100000,99,0,0.000000,8,0.000000,22.352364,1.204342,99,99,0,0,0,0,0
3,39999,13,30000,78,20000,40,9999,0.100000,99,0,0.000000,8,0.000000,26.853289,1.388687,99,99,0,0,0,0,0
3,39999,14,30000,78,20000,40,9999,0.100000,99,0,0.000000,8,0.000000,32.110380,6.285634,99,99,0,0,0,0,0
3,39999,15,30000,75,10000,40,9999,0.100000,99,0,0.000000,8,0.000000,29.046562,0.560466,99,99,0,0,0,0,0
3,39999,16,30000,0,0,40,9999,0.100000,99,0,0.000000,8,0.000000,26.611069,0.172248,99,99,0,0,0,0,0
3,39999,17,30000,0,0,40,9999,0.100000,99,0,0.000000,8,0.000000,25.659178,0.360708,99,99,0,0,0,0,0
3,39999,18,30000,75,10000,0,9999,0.100000,99,0,0.086845,8,0.000000,25.238607,0.087079,99,99,0,0,0,0,1
3,39999,19,30000,0,0,40,9999,0.100000,99,0,0.000000,8,1.000000,17.769966,5.741208,99,99,0,0,0,0,0
3,39999,20,30000,72,10000,40,9999,0.100000,99,0,0.000000,8,0.000000,20.709731,0.268192,99,99,0,0,0,0,0
3,39999,21,30000,30,10000,0,9999,0.100000,99,0,0.245605,8,0.000000,28.575012,0.693894,99,99,0,0,0,0,1
3,39999,22,30000,0,0,40,9999,0.100000,99,0,0.000000,8,0.000000,28.881210,8.181110,99,99,0,0,0,0,0
3,39999,23,30000,72,10000,40,9999,0.100000,99,0,0.000000,8,0.000000,26.166734,0.271396,99,99,0,0,0,0,0
3,39999,24,30000,30,10000,40,9999,0.100000,99,0,0.000000,8,0.000000,22.245159,0.981649,99,99,0,0,0,0,0
3,39999,25,30000,75,10000,40,9999,0.100000,99,0,0.000000,8,0.000000,27.982091,0.119274,99,99,0,0,0,0,0
3,39999,26,30000,30,10000,0,9999,0.100000,99,0,0.290468,8,0.000000,26.941649,1.116690,99,99,0,0,0,0,1
3,39999,27,30000,19,0,40,9999,0.100000,99,0,0.000000,8,0.000000,24.852835,0.231119,99,99,0,0,0,0,0
3,39999,28,30000,78,20000,40,9999,0.100000,99,0,0.000000,8,0.000000,27.982719,6.004563,99,99,0,0,0,0,0
3,39999,29,30000,19,0,0,9999,0.100000,99,0,0.003316,8,0.000000,24.630835,0.095225,99,99,0,0,0,1,0
3,39999,30,30000,0,0,40,9999,0.100000,99,0,0.000000,8,0.000000,31.113862,7.910011,99,99,0,0,0,0,0
3,39999,31,30000,72,10000,40,9999,0.100000,99,0,0.000000,8,0.000000,32.996735,1.280795,99,99,0,0,0,0,0
3,39999,32,30000,78,10000,40,9999,0.100000,99,0,0.000000,8,0.000000,27.206245,1.263771,99,99,0,0,0,0,0
3,39999,33,30000,78,20000,0,9999,0.100000,99,0,0.003472,8,0.000000,25.241674,0.603695,99,99,0,0,0,0,1
3,39999,34,30000,78,10000,40,9999,0.100000,99,0,0.000000,8,0.000000,19.039156,1.130757,99,99,0,0,0,0,0
3,39999,35,30000,75,10000,40,9999,0.100000,99,0,0.000000,8,0.000000,20.001562,0.218735,99,99,0,0,0,0,0
3,39999,36,30000,75,10000,0,9999,0.100000,99,0,3.052969,8,1.000000,23.629486,1.166289,99,99,0,0,0,1,0
3,39999,37,30000,78,10000,0,9999,0.100000,99,0,0.069753,8,0.000000,31.118996,2.280179,99,99,0,0,0,0,1
3,39999,38,30000,5,0,40,9999,0.100000,99,0,0.000000,8,0.000000,30.852823,0.274097,99,99,0,0,0,0,0
3,39999,39,30000,78,20000,40,9999,0.100000,99,0,0.000000,8,0.000000,29.031131,0.166580,99,99,0,0,0,0,0
3,39999,40,30000,0,0,40,9999,0.135000,99,0,0.000000,8,0.000000,21.111886,4.259176,99,99,0,0,0,0,0
3,39999,41,30000,19,0,41,9999,0.100000,99,0,0.000000,8,3.000000,27.201383,8.867777,99,99,0,0,0,0,0
3,39999,42,30000,19,0,40,9999,0.100000,99,0,0.000000,8,0.000000,31.531743,0.163950,99,99,0,0,0,0,0
3,39999,43,30000,0,0,40,9999,0.100000,99,0,0.000000,8,0.000000,23.109128,0.352323,99,99,0,0,0,0,0
3,39999,44,30000,75,10000,0,9999,0.100000,99,0,0.000964,8,0.000000,28.804980,0.079330,99,99,0,0,0,0,1
3,39999,45,30000,78,20000,0,9999,0.100000,99,0,0.042815,8,0.000000,17.985322,0.083919,99,99,0,0,0,0,1
3,39999,46,30000,78,10000,0,9999,0.100000,99,0,0.008716,8,0.000000,21.553711,0.158180,99,99,0,0,0,0,1
3,39999,47,30000,95,20000,0,9999,0.100000,99,0,1.009019,8,0.000000,22.374236,0.801040,99,99,0,0,0,0,1
3,39999,48,30000,19,0,0,9999,0.100000,99,0,2.182791,8,0.000000,23.512634,0.689724,99,99,0,0,1,0,0
3,39999,49,30000,78,10000,40,9999,0.100000,99,0,0.000000,8,0.000000,19.699729,0.220729,99,99,0,0,0,0,0
3,39999,50,30000,0,0,0,9999,0.100000,99,0,0.000677,8,0.000000,23.263527,0.089932,99,99,0,0,0,0,1
3,39999,51,30000,95,20000,40,9999,0.100000,99,0,0.000000,8,0.000000,24.444156,1.085105,99,99,0,0,0,0,0
3,39999,52,30000,95,20000,40,9999,0.100000,99,0,0.000000,8,0.000000,28.956736,0.404100,99,99,0,0,0,0,0
3,39999,53,30000,78,20000,40,9999,0.100000,99,0,0.000000,8,0.000000,30.928523,0.490104,99,99,0,0,0,0,0
3,39999,54,30000,78,10000,0,9999,0.100000,99,0,0.002244,8,0.000000,26.648157,0.066110,99,99,0,0,0,0,1
3,39999,55,30000,0,0,40,9999,0.100000,99,0,0.000000,8,0.000000,20.911940,0.841922,99,99,0,0,0,0,0
3,39999,56,30000,75,10000,40,9999,0.100000,99,0,0.000000,8,0.000000,28.594548,0.130279,99,99,0,0,0,0,0
3,39999,57,30000,78,20000,40,9999,0.100000,99,0,0.000000,8,1.000000,27.668139,8.577772,99,99,0,0,0,0,0
3,39999,58,30000,0,0,0,9999,0.100000,99,0,0.001606,8,0.000000,31.425157,0.091938,99,99,0,0,0,0,1
3,39999,59,30000,72,10000,40,9999,0.100000,99,0,0.000000,8,1.000000,26.514607,7.143372,99,99,0,0,0,0,0
3,39999,60,30000,78,20000,40,9999,0.100000,99,0,0.000000,8,1.000000,24.823333,8.453285,99,99,0,0,0,0,0
3,39999,61,30000,30,10000,40,9999,0.100000,99,0,0.000000,8,1.000000,32.910722,5.061506,99,99,0,0,0,0,0
3,39999,62,30000,78,20000,40,9999,0.100000,99,0,0.000000,8,0.000000,28.747026,0.137286,99,99,0,0,0,0,0
3,39999,63,30000,30,10000,40,9999,0.100000,99,0,0.000000,8,0.000000,29.267756,0.345496,99,99,0,0,0,0,0
3,39999,64,30000,19,0,0,9999,0.100000,99,0,0.000673,8,0.000000,18.928838,0.093738,99,99,0,0,0,0,1
3,39999,65,30000,78,20000,40,9999,0.100000,99,0,0.000000,8,0.000000,27.688336,1.083443,99,99,0,0,0,0,0
3,39999,66,30000,75,10000,40,9999,0.100000,99,0,0.000000,8,0.000000,15.819829,5.929329,99,99,0,0,0,0,0
3,39999,67,30000,19,0,40,9999,0.100000,99,0,0.000000,8,0.000000,31.734775,0.184592,99,99,0,0,0,0,0
3,39999,68,30000,6,0,40,9999,0.100000,99,0,0.000000,8,0.000000,11.910202,0.179004,99,99,0,0,0,0,0
3,39999,69,30000,19,0,0,9999,0.100000,99,0,0.381453,8,0.000000,20.853370,0.504352,99,99,0,0,0,0,1
3,39999,70,30000,78,10000,40,9999,0.100000,99,0,0.000000,8,0.000000,23.816848,20.166920,99,99,0,0,0,0,0
3,39999,71,30000,0,0,40,9999,0.100000,99,0,0.000000,8,0.000000,21.143027,0.907074,99,99,0,0,0,0,0
3,39999,72,30000,19,0,40,9999,0.100000,99,0,0.000000,8,1.000000,31.347330,10.893387,99,99,0,0,0,0,0
3,39999,73,30000,19,0,40,9999,0.100000,99,0,0.000000,8,1.000000,23.801397,24.675795,99,99,0,0,0,0,0
3,39999,74,30000,0,0,40,9999,0.100000,99,0,0.000000,8,0.000000,21.753773,0.925976,99,99,0,0,0,0,0
3,39999,75,30000,30,10000,42,9999,0.100000,99,0,0.000000,8,3.000000,12.482923,15.351514,99,99,0,0,0,0,0
3,39999,76,30000,75,10000,40,9999,0.100000,99,0,0.000000,8,0.000000,26.310019,0.155863,99,99,0,0,0,0,0
3,39999,77,30000,0,0,40,9999,0.100000,99,0,0.000000,8,0.000000,18.644345,0.107402,99,99,0,0,0,0,0
3,39999,78,30000,30,10000,41,9999,0.100000,99,0,0.000000,8,7.000000,35.858785,14.890263,99,99,0,0,0,0,0
3,39999,79,30000,75,10000,40,9999,0.100000,99,0,0.000000,8,0.000000,31.292468,0.084776,99,99,0,0,0,0,0
3,39999,80,30000,78,10000,0,9999,0.100000,99,0,0.007319,8,0.000000,16.548674,0.126356,99,99,0,0,1,0,0
3,39999,81,30000,78,10000,0,9999,0.100000,99,0,0.085210,8,0.000000,25.432804,0.159369,99,99,0,0,0,0,1
3,39999,82,30000,19,0,42,9999,0.100000,99,0,0.000000,8,3.000000,13.328295,10.945347,99,99,0,0,0,0,0
3,39999,83,30000,78,20000,44,9999,0.100000,99,0,0.000000,8,10.000000,20.998075,24.805049,99,99,0,0,0,0,0
3,39999,84,30000,78,20000,40,9999,0.100000,99,0,0.000000,8,0.000000,30.977178,0.195948,99,99,0,0,0,0,0
3,39999,85,30000,0,0,40,9999,0.100000,99,0,0.000000,8,0.000000,26.471417,0.111637,99,99,0,0,0,0,0
3,39999,86,30000,6,0,40,9999,0.100000,99,0,0.000000,8,0.000000,25.213136,0.137894,99,99,0,0,0,0,0
3,39999,87,30000,19,0,43,9999,0.100000,99,0,0.000000,8,4.000000,10.316428,9.280124,99,99,0,0,0,0,0
3,39999,88,30000,30,10000,4,9999,0.100000,99,0,0.147374,8,8.000000,15.401593,16.868657,99,99,0,1,0,0,0
3,39999,89,30000,78,10000,0,9999,0.100000,99,0,0.001176,8,0.000000,17.756090,0.066195,99,99,0,0,0,0,1
3,39999,90,30000,72,10000,40,9999,0.100000,99,0,0.000000,8,0.000000,21.439722,0.944222,99,99,0,0,0,0,0
3,39999,91,30000,0,0,40,9999,0.100000,99,0,0.000000,8,0.000000,23.100955,0.325834,99,99,0,0,0,0,0
3,39999,92,30000,19,0,40,9999,0.100000,99,0,0.000000,8,0.000000,16.232117,0.822389,99,99,0,0,0,0,0
3,39999,93,30000,75,10000,42,9999,0.100000,99,0,0.000000,8,4.000000,15.596148,10.551451,99,99,0,0,0,0,0
3,39999,94,30000,6,0,0,9999,0.100000,99,0,1.049451,8,0.000000,19.175231,0.408261,99,99,0,0,1,0,0
3,39999,95,30000,19,0,41,9999,0.100000,99,0,0.000000,8,2.000000,12.219244,10.599538,99,99,0,0,0,0,0
3,39999,96,30000,0,0,0,9999,0.100000,99,0,0.190078,8,0.000000,24.114824,0.182379,99,99,0,0,0,1,0
3,39999,97,30000,75,10000,40,9999,0.100000,99,0,0.000000,8,0.000000,23.037895,0.075783,99,99,0,0,0,0,0
3,39999,98,30000,30,10000,40,9999,0.100000,99,0,0.000000,8,0.000000,16.956645,0.072009,99,99,0,0,0,0,0
3,39999,99,30000,78,20000,40,9999,0.100000,99,0,0.000000,8,0.000000,18.899049,0.063668,99,99,0,0,0,0,0
4,49999,0,40000,75,10000,40,9999,0.100000,99,0,0.000000,8,0.000000,24.113629,0.469254,99,99,0,0,0,0,0
4,49999,1,40000,19,0,0,9999,0.100000,99,0,0.783319,8,0.000000,26.800087,0.181326,99,99,0,0,0,1,0
4,49999,2,40000,19,0,0,9999,0.100000,99,0,0.263082,8,0.000000,20.606536,0.440887,99,99,0,0,0,0,1
4,49999,3,40000,78,20000,40,9999,0.100000,99,0,0.000000,11,0.000000,15.643133,1.008030,99,99,0,0,0,0,0
4,49999,4,40000,72,10000,0,9999,0.100000,99,0,2.105058,8,0.000000,15.272068,1.346490,99,99,0,0,0,0,1
4,49999,5,40000,75,10000,0,9999,0.100000,99,0,0.589129,8,0.000000,33.286250,1.108418,99,99,0,1,0,0,0
4,49999,6,40000,72,10000,0,9999,0.100000,99,0,0.321909,11,0.000000,16.641052,0.569302,99,99,0,0,0,0,1
4,49999,7,40000,30,10000,40,9999,0.100000,99,0,0.000000,8,0.000000,29.252186,3.250751,99,99,0,0,0,0,0
4,49999,8,40000,75,10000,40,9999,0.100000,99,0,0.000000,10,0.000000,15.955803,0.796096,99,99,0,0,0,0,0
4,49999,9,40000,95,20000,0,9999,0.100000,99,0,0.520860,8,0.000000,28.962355,0.155358,99,99,0,0,0,0,1
4,49999,10,40000,19,0,40,9999,0.100000,99,0,0.000000,8,0.000000,22.837470,0.354520,99,99,0,0,0,0,0
4,49999,11,40000,95,20000,42,9999,0.100000,99,0,0.000000,10,4.000000,15.165357,20.042212,99,99,0,0,0,0,0
4,49999,12,40000,88,30000,40,9999,0.100000,99,0,0.000000,11,0.000000,22.333949,0.950086,99,99,0,0,0,0,0
4,49999,13,40000,95,20000,40,9999,0.100000,99,0,0.000000,8,0.000000,26.727746,1.015998,99,99,0,0,0,0,0
4,49999,14,40000,78,20000,40,9999,0.100000,99,0,0.000000,8,0.000000,32.212920,6.389412,99,99,0,0,0,0,0
4,49999,15,40000,78,10000,40,9999,0.100000,99,0,0.000000,11,0.000000,29.023029,1.066207,99,99,0,0,0,0,0
4,49999,16,40000,0,0,40,9999,0.100000,99,0,0.000000,8,0.000000,26.585930,0.177349,99,99,0,0,0,0,0
4,49999,17,40000,95,20000,40,9999,0.100000,99,0,0.000000,10,0.000000,25.577868,0.339689,99,99,0,0,0,0,0
4,49999,18,40000,78,20000,0,9999,0.100000,99,0,0.098066,8,0.000000,25.258652,0.090596,99,99,0,0,0,0,1
4,49999,19,40000,30,10000,41,9999,0.100000,99,0,0.000000,8,4.000000,19.065666,8.073112,99,99,0,0,0,0,0
4,49999,20,40000,0,0,0,9999,0.100000,99,0,0.287899,8,0.000000,20.795159,0.518080,99,99,0,0,0,1,0
4,49999,21,40000,78,20000,0,9999,0.100000,99,0,0.106142,8,0.000000,28.482676,0.203631,99,99,0,0,0,0,1
4,49999,22,40000,11,30000,40,9999,0.100000,99,0,0.000000,11,0.000000,28.936826,8.295718,99,99,0,0,0,0,0
4,49999,23,40000,78,20000,40,9999,0.100000,99,0,0.000000,8,0.000000,26.124867,0.274442,99,99,0,0,0,0,0
4,49999,24,40000,19,0,40,9999,0.100000,99,0,0.000000,8,0.000000,21.504996,0.943007,99,99,0,0,0,0,0
4,49999,25,40000,19,0,40,9999,0.100000,99,0,0.000000,10,0.000000,27.962205,0.165611,99,99,0,0,0,0,0
4,49999,26,40000,78,10000,0,9999,0.100000,99,0,0.323724,8,0.000000,26.721651,0.945398,99,99,0,0,0,0,1
4,49999,27,40000,11,30000,40,9999,0.100000,99,0,0.000000,10,0.000000,24.767657,0.211337,99,99,0,0,0,0,0
4,49999,28,40000,78,10000,40,9999,0.100000,99,0,0.000000,8,1.000000,28.015598,9.910889,99,99,0,0,0,0,0
4,49999,29,40000,75,10000,0,9999,0.100000,99,0,0.003585,11,0.000000,24.631074,0.095077,99,99,0,0,0,1,0
4,49999,30,40000,30,10000,40,9999,0.100000,99,0,0.000000,8,3.000000,31.612054,15.713556,99,99,0,0,0,0,0
4,49999,31,40000,0,0,40,9999,0.100000,99,0,0.000000,8,0.000000,32.929877,1.105130,99,99,0,0,0,0,0
4,49999,32,40000,95,20000,40,9999,0.100000,99,0,0.000000,10,1.000000,27.146348,9.251963,99,99,0,0,0,0,0
4,49999,33,40000,72,10000,0,9999,0.100000,99,0,0.112015,8,0.000000,25.251244,0.151507,99,99,0,0,0,0,1
4,49999,34,40000,0,0,40,9999,0.100000,99,0,0.000000,8,0.000000,19.306631,1.241401,99,99,0,0,0,0,0
4,49999,35,40000,78,20000,40,9999,0.100000,99,0,0.000000,11,0.000000,20.054985,0.590816,99,99,0,0,0,0,0
4,49999,36,40000,0,0,0,9999,0.100000,99,0,0.285040,8,0.000000,23.732956,0.325658,99,99,0,0,0,1,0
4,49999,37,40000,30,10000,0,9999,0.100000,99,0,0.166189,8,0.000000,31.195053,0.118539,99,99,0,0,0,0,1
4,49999,38,40000,78,10000,40,9999,0.100000,99,0,0.000000,11,0.000000,30.940267,0.207181,99,99,0,0,0,0,0
4,49999,39,40000,78,20000,40,9999,0.100000,99,0,0.000000,8,0.000000,29.140580,0.185377,99,99,0,0,0,0,0
4,49999,40,40000,78,20000,41,9999,0.100000,99,0,0.000000,8,3.000000,21.601441,13.576676,99,99,0,0,0,0,0
4,49999,41,40000,83,30000,41,9999,0.100000,99,0,0.000000,11,6.000000,29.049722,18.420314,99,99,0,0,0,0,0
4,49999,42,40000,78,20000,40,9999,0.100000,99,0,0.000000,11,0.000000,31.628741,0.109157,99,99,0,0,0,0,0
4,49999,43,40000,72,10000,40,9999,0.100000,99,0,0.000000,8,0.000000,23.169181,0.370665,99,99,0,0,0,0,0
4,49999,44,40000,78,20000,0,9999,0.100000,99,0,0.000328,8,0.000000,28.806010,0.078989,99,99,0,0,0,0,1
4,49999,45,40000,78,10000,3,9999,0.100000,99,0,0.055531,11,7.000000,17.973561,15.441889,99,99,0,0,0,0,1
4,49999,46,40000,72,10000,0,9999,0.100000,99,0,0.022909,11,0.000000,21.556036,0.165510,99,99,0,0,0,0,1
4,49999,47,40000,78,20000,0,9999,0.100000,99,0,0.267036,11,0.000000,22.383228,0.554908,99,99,0,0,0,0,1
4,49999,48,40000,0,0,0,9999,0.100000,99,0,0.317981,8,0.000000,22.876279,0.243890,99,99,0,0,1,0,0
4,49999,49,40000,95,20000,40,9999,0.100000,99,0,0.000000,8,0.000000,19.727329,0.241836,99,99,0,0,0,0,0
4,49999,50,40000,78,10000,0,9999,0.100000,99,0,0.001391,8,0.000000,23.262144,0.091064,99,99,0,0,0,0,1
4,49999,51,40000,75,10000,1,9999,0.100000,99,0,0.379853,8,4.000000,24.191998,10.774173,99,99,0,0,0,0,1
4,49999,52,40000,72,10000,40,9999,0.100000,99,0,0.000000,11,0.000000,28.930985,0.781591,99,99,0,0,0,0,0
4,49999,53,40000,88,30000,0,9999,0.100000,99,0,0.001877,11,0.000000,30.928515,0.070783,99,99,0,0,0,0,1
4,49999,54,40000,83,30000,0,9999,0.100000,99,0,0.002223,11,0.000000,26.650492,0.066387,99,99,0,0,0,0,1
4,49999,55,40000,72,10000,40,9999,0.100000,99,0,0.000000,11,0.000000,20.868040,1.227535,99,99,0,0,0,0,0
4,49999,56,40000,78,20000,40,9999,0.100000,99,0,0.000000,10,0.000000,28.650566,0.195601,99,99,0,0,0,0,0
4,49999,57,40000,78,10000,40,9999,0.100000,99,0,0.000000,8,0.000000,29.368640,8.119418,99,99,0,0,0,0,0
4,49999,58,40000,0,0,40,9999,0.100000,99,0,0.000000,10,0.000000,31.425762,0.092452,99,99,0,0,0,0,0
4,49999,59,40000,72,10000,40,9999,0.100000,99,0,0.000000,11,2.000000,27.732118,9.279132,99,99,0,0,0,0,0
4,49999,60,40000,78,10000,42,9999,0.100000,99,0,0.000000,8,6.000000,25.696719,28.836966,99,99,0,0,0,0,0
4,49999,61,40000,75,10000,40,9999,0.100000,99,0,0.000000,10,0.000000,33.189098,1.343273,99,99,0,0,0,0,0
4,49999,62,40000,19,0,40,9999,0.100000,99,0,0.000000,10,0.000000,28.723058,0.200314,99,99,0,0,0,0,0
4,49999,63,40000,30,10000,40,9999,0.100000,99,0,0.000000,8,0.000000,29.405207,0.347990,99,99,0,0,0,0,0
4,49999,64,40000,78,20000,0,9999,0.100000,99,0,0.752020,10,0.000000,18.928412,0.194889,99,99,0,0,0,0,1
4,49999,65,40000,83,30000,40,9999,0.100000,99,0,0.000000,11,2.000000,28.147702,3.825892,99,99,0,0,0,0,0
4,49999,66,40000,95,20000,40,9999,0.100000,99,0,0.000000,10,0.000000,15.887553,2.966405,99,99,0,0,0,0,0
4,49999,67,40000,75,10000,40,9999,0.100000,99,0,0.000000,11,0.000000,31.834607,0.111896,99,99,0,0,0,0,0
4,49999,68,40000,11,30000,40,9999,0.100000,99,0,0.000000,11,0.000000,11.909627,0.271286,99,99,0,0,0,0,0
4,49999,69,40000,19,0,0,9999,0.100000,99,0,0.295553,10,0.000000,20.805239,0.519008,99,99,0,0,0,0,1
4,49999,70,40000,19,0,40,9999,0.100000,99,0,0.000000,8,0.000000,23.052835,20.406050,99,99,0,0,0,0,0
4,49999,71,40000,72,10000,40,9999,0.100000,99,0,0.000000,8,0.000000,21.370654,0.092620,99,99,0,0,0,0,0
4,49999,72,40000,78,10000,40,9999,0.100000,99,0,0.000000,11,0.000000,30.489266,8.667729,99,99,0,0,0,0,0
4,49999,73,40000,75,10000,40,9999,0.100000,99,0,0.000000,11,0.000000,23.865863,21.473252,99,99,0,0,0,0,0
4,49999,74,40000,19,0,40,9999,0.100000,99,0,0.000000,8,0.000000,21.057999,0.957833,99,99,0,0,0,0,0
4,49999,75,40000,78,20000,40,9999,0.100000,99,0,0.000000,11,0.000000,16.323091,0.935719,99,99,0,0,0,0,0
4,49999,76,40000,95,20000,40,9999,0.100000,99,0,0.000000,8,0.000000,26.312906,0.141207,99,99,0,0,0,0,0
4,49999,77,40000,78,10000,40,9999,0.100000,99,0,0.000000,11,0.000000,18.636820,0.102908,99,99,0,0,0,0,0
4,49999,78,40000,78,10000,40,9999,0.100000,99,0,0.000000,10,1.000000,35.683736,2.577492,99,99,0,0,0,0,0
4,49999,79,40000,78,20000,40,9999,0.065000,99,0,0.000000,11,0.000000,31.292926,0.085180,99,99,0,0,0,0,0
4,49999,80,40000,72,10000,0,9999,0.100000,99,0,0.781049,10,0.000000,16.549051,0.282105,99,99,0,0,1,0,0
4,49999,81,40000,75,10000,0,9999,0.100000,99,0,0.294852,11,0.000000,25.339554,0.166846,99,99,0,0,0,0,1
4,49999,82,40000,11,30000,42,9999,0.100000,99,0,0.000000,10,3.000000,13.356040,20.843237,99,99,0,0,0,0,0
4,49999,83,40000,78,20000,41,9999,0.100000,99,0,0.000000,9,3.000000,14.824208,4.617080,99,99,0,0,0,0,0
4,49999,84,40000,19,0,40,9999,0.100000,99,0,0.000000,8,0.000000,30.976644,0.183452,99,99,0,0,0,0,0
4,49999,85,40000,78,20000,40,9999,0.100000,99,0,0.000000,8,0.000000,26.473548,0.111752,99,99,0,0,0,0,0
4,49999,86,40000,19,0,40,9999,0.100000,99,0,0.000000,8,0.000000,25.213771,0.088523,99,99,0,0,0,0,0
4,49999,87,40000,72,10000,40,9999,0.100000,99,0,0.000000,8,1.000000,14.488784,9.135283,99,99,0,0,0,0,0
4,49999,88,40000,0,0,0,9999,0.100000,99,0,0.620935,11,0.000000,15.415294,1.706414,99,99,0,1,0,0,0
4,49999,89,40000,19,0,40,9999,0.100000,99,0,0.000000,11,0.000000,17.755172,0.066180,99,99,0,0,0,0,0
4,49999,90,40000,95,20000,40,9999,0.100000,99,0,0.000000,8,0.000000,20.720890,0.944339,99,99,0,0,0,0,0
4,49999,91,40000,75,10000,40,9999,0.100000,99,0,0.000000,11,0.000000,23.107329,0.154489,99,99,0,0,0,0,0
4,49999,92,40000,83,30000,40,9999,0.100000,99,0,0.000000,9,0.000000,16.381220,0.764682,99,99,0,0,0,0,0
4,49999,93,40000,78,20000,40,9999,0.100000,99,0,0.000000,9,0.000000,15.774181,0.636089,99,99,0,0,0,0,0
4,49999,94,40000,88,30000,0,9999,0.100000,99,0,2.948063,11,0.000000,19.443091,0.834255,99,99,0,0,1,0,0
4,49999,95,40000,11,30000,42,9999,0.100000,99,0,0.000000,11,3.000000,12.874428,17.502163,99,99,0,0,0,0,0
4,49999,96,40000,88,30000,0,9999,0.100000,99,0,0.225778,11,0.000000,24.198288,0.191894,99,99,0,0,0,1,0
4,49999,97,40000,75,10000,40,9999,0.100000,99,0,0.000000,11,0.000000,23.037194,0.076562,99,99,0,0,0,0,0
4,49999,98,40000,75,10000,0,9999,0.100000,99,0,0.000562,11,0.000000,16.956224,0.070880,99,99,0,0,0,0,1
4,49999,99,40000,75,10000,40,9999,0.100000,99,0,0.000000,11,0.000000,18.892785,0.090522,99,99,0,0,0,0,0
5,59999,0,50000,72,10000,40,9999,0.100000,99,0,0.000000,11,0.000000,24.028328,0.348030,99,99,0,0,0,0,0
5,59999,1,50000,95,20000,0,9999,0.100000,99,0,0.869355,11,0.000000,26.818614,0.194609,99,99,0,0,0,1,0
5,59999,2,50000,72,10000,0,9999,0.100000,99,0,0.415461,11,0.000000,20.657116,0.477523,99,99,0,0,0,0,1
5,59999,3,50000,11,30000,0,9999,0.100000,99,0,0.382255,11,0.000000,15.126510,0.184563,99,99,0,0,0,0,1
5,59999,4,50000,0,0,40,9999,0.100000,99,0,0.000000,11,0.000000,14.991218,1.299694,99,99,0,0,0,0,0
5,59999,5,50000,78,10000,0,9999,0.100000,99,0,8.156943,11,2.000000,33.646418,2.592045,99,99,0,1,0,0,0
5,59999,6,50000,75,10000,0,9999,0.100000,99,0,0.290499,11,0.000000,16.897670,0.562379,99,99,0,0,0,0,1
5,59999,7,50000,0,0,40,9999,0.100000,99,0,0.000000,11,0.000000,29.105492,5.457115,99,99,0,0,0,0,0
5,59999,8,50000,78,20000,40,9999,0.100000,99,0,0.000000,11,0.000000,16.264701,0.542524,99,99,0,0,0,0,0
5,59999,9,50000,72,10000,0,9999,0.100000,99,0,0.517119,11,0.000000,29.066758,0.166766,99,99,0,0,0,0,1
5,59999,10,50000,95,20000,40,9999,0.100000,99,0,0.000000,11,0.000000,22.738402,0.426532,99,99,0,0,0,0,0
5,59999,11,50000,88,30000,43,9999,0.100000,99,0,0.000000,11,4.000000,11.766326,25.249929,99,99,0,0,0,0,0
5,59999,12,50000,83,30000,40,9999,0.100000,99,0,0.000000,11,0.000000,22.331571,0.905166,99,99,0,0,0,0,0
5,59999,13,50000,83,30000,40,9999,0.100000,99,0,0.000000,11,0.000000,26.711261,1.003982,99,99,0,0,0,0,0
5,59999,14,50000,30,10000,41,9999,0.100000,99,0,0.000000,11,4.000000,32.386659,12.049898,99,99,0,0,0,0,0
5,59999,15,50000,72,10000,40,9999,0.100000,99,0,0.000000,11,0.000000,28.963810,1.156729,99,99,0,0,0,0,0
5,59999,16,50000,88,30000,40,9999,0.100000,99,0,0.000000,11,0.000000,26.592075,0.215722,99,99,0,0,0,0,0
5,59999,17,50000,83,30000,40,9999,0.100000,99,0,0.000000,11,0.000000,25.461916,0.345348,99,99,0,0,0,0,0
5,59999,18,50000,30,10000,0,9999,0.100000,99,0,0.083357,11,0.000000,25.280101,0.085405,99,99,0,0,0,0,1
5,59999,19,50000,0,0,40,9999,0.100000,99,0,0.000000,11,1.000000,16.700323,1.633000,99,99,0,0,0,0,0
5,59999,20,50000,19,0,0,9999,0.100000,99,0,0.475793,11,0.000000,20.749228,0.242146,99,99,0,0,0,1,0
5,59999,21,50000,83,30000,0,9999,0.100000,99,0,0.501892,11,0.000000,28.398569,0.227964,99,99,0,0,0,0,1
5,59999,22,50000,95,20000,40,9999,0.100000,99,0,0.000000,11,0.000000,28.928446,8.244683,99,99,0,0,0,0,0
5,59999,23,50000,88,30000,40,9999,0.100000,99,0,0.000000,11,0.000000,26.112256,0.298635,99,99,0,0,0,0,0
5,59999,24,50000,75,10000,40,9999,0.100000,99,0,0.000000,11,0.000000,20.806777,0.893418,99,99,0,0,0,0,0
5,59999,25,50000,72,10000,40,9999,0.100000,99,0,0.000000,11,0.000000,27.876584,0.146088,99,99,0,0,0,0,0
5,59999,26,50000,0,0,0,9999,0.100000,99,0,0.321183,11,0.000000,26.709399,0.906008,99,99,0,0,0,0,1
5,59999,27,50000,0,0,40,9999,0.100000,99,0,0.000000,11,0.000000,24.703617,0.204436,99,99,0,0,0,0,0
5,59999,28,50000,72,10000,40,9999,0.100000,99,0,0.000000,11,1.000000,28.108200,6.969950,99,99,0,0,-1,0,0
5,59999,29,50000,19,0,0,9999,0.100000,99,0,0.004384,11,0.000000,24.630943,0.095140,99,99,0,0,0,1,0
5,59999,30,50000,19,0,41,9999,0.100000,99,0,0.000000,11,4.000000,28.142948,11.054544,99,99,0,0,0,0,0
5,59999,31,50000,11,30000,40,9999,0.100000,99,0,0.000000,11,0.000000,32.793375,0.788075,99,99,0,0,0,0,0
5,59999,32,50000,72,10000,40,9999,0.100000,99,0,0.000000,12,1.000000,28.251870,10.805381,99,99,0,0,-1,0,0
5,59999,33,50000,19,0,0,9999,0.100000,99,0,0.141249,11,0.000000,25.274063,0.233396,99,99,0,0,0,0,1
5,59999,34,50000,19,0,40,9999,0.100000,99,0,0.000000,11,0.000000,19.973000,1.262420,99,99,0,0,0,0,0
5,59999,35,50000,78,10000,40,9999,0.100000,99,0,0.000000,11,0.000000,20.134690,0.818697,99,99,0,0,0,0,0
5,59999,36,50000,19,0,0,9999,0.100000,99,0,0.116440,11,0.000000,23.683574,0.241902,99,99,0,0,0,1,0
5,59999,37,50000,95,20000,0,9999,0.100000,99,0,0.082153,11,0.000000,31.253341,0.131776,99,99,0,0,0,0,1
5,59999,38,50000,78,20000,40,9999,0.100000,99,0,0.000000,11,0.000000,30.994434,0.214862,99,99,0,0,0,0,0
5,59999,39,50000,19,0,40,9999,0.100000,99,0,0.000000,11,0.000000,29.262979,0.201088,99,99,0,0,0,0,0
5,59999,40,50000,0,0,40,9999,0.100000,99,0,0.000000,11,0.000000,25.330214,0.206150,99,99,0,0,0,0,0
5,59999,41,50000,0,0,40,9999,0.100000,99,0,0.000000,11,2.000000,27.072097,12.935608,99,99,0,0,0,0,0
5,59999,42,50000,88,30000,40,9999,0.100000,99,0,0.000000,11,0.000000,31.691501,0.116618,99,99,0,0,0,0,0
5,59999,43,50000,19,0,40,9999,0.100000,99,0,0.000000,11,0.000000,23.232677,0.362471,99,99,0,0,0,0,0
5,59999,44,50000,83,30000,0,9999,0.100000,99,0,0.000155,11,0.000000,28.807102,0.074828,99,99,0,0,0,0,1
5,59999,45,50000,95,20000,0,9999,0.100000,99,0,0.066466,12,0.000000,17.951417,0.094474,99,99,0,0,0,0,1
5,59999,46,50000,78,10000,0,9999,0.100000,99,0,0.022587,11,0.000000,21.559754,0.163408,99,99,0,0,0,0,1
5,59999,47,50000,11,30000,0,9999,0.100000,99,0,0.273544,11,0.000000,22.387725,0.531296,99,99,0,0,0,0,1
5,59999,48,50000,30,10000,0,9999,0.100000,99,0,0.912933,11,0.000000,22.763149,0.384890,99,99,0,0,1,0,0
5,59999,49,50000,88,30000,40,9999,0.100000,99,0,0.000000,11,0.000000,19.782873,2.582421,99,99,0,0,0,0,0
5,59999,50,50000,30,10000,0,9999,0.100000,99,0,0.058988,11,0.000000,23.260428,0.098666,99,99,0,0,0,0,1
5,59999,51,50000,83,30000,40,9999,0.100000,99,0,0.000000,11,0.000000,24.279011,1.206969,99,99,0,0,0,0,0
5,59999,52,50000,78,10000,40,9999,0.100000,99,0,0.000000,11,0.000000,28.840869,0.515193,99,99,0,0,0,0,0
5,59999,53,50000,78,20000,0,9999,0.100000,99,0,0.001790,11,0.000000,30.928439,0.071963,99,99,0,0,0,0,1
5,59999,54,50000,78,20000,0,9999,0.100000,99,0,0.002521,11,0.000000,26.652561,0.065797,99,99,0,0,0,0,1
5,59999,55,50000,19,0,40,9999,0.100000,99,0,0.000000,11,0.000000,20.818056,0.689815,99,99,0,0,0,0,0
5,59999,56,50000,83,30000,40,9999,0.100000,99,0,0.000000,11,0.000000,28.695262,0.055262,99,99,0,0,0,0,0
5,59999,57,50000,30,10000,41,9999,0.100000,99,0,0.000000,11,5.000000,29.175016,8.590998,99,99,0,0,0,0,0
5,59999,58,50000,78,20000,40,9999,0.100000,99,0,0.000000,11,0.000000,31.426326,0.092334,99,99,0,0,0,0,0
5,59999,59,50000,19,0,42,9999,0.100000,99,0,0.000000,11,7.000000,30.424698,24.169565,99,99,0,0,0,0,0
5,59999,60,50000,11,30000,0,9999,0.100000,99,0,0.017296,11,0.000000,29.251268,1.023843,99,99,0,0,1,0,0
5,59999,61,50000,11,40000,40,9999,0.100000,99,0,0.000000,11,1.000000,33.544420,2.563076,99,99,0,0,0,0,0
5,59999,62,50000,11,30000,40,9999,0.100000,99,0,0.000000,12,0.000000,28.638393,0.324621,99,99,0,0,0,0,0
5,59999,63,50000,88,30000,40,9999,0.100000,99,0,0.000000,11,0.000000,29.549280,0.336588,99,99,0,0,0,0,0
5,59999,64,50000,83,30000,0,9999,0.100000,99,0,0.935819,11,0.000000,19.045422,0.208100,99,99,0,0,0,0,1
5,59999,65,50000,75,10000,40,9999,0.100000,99,0,0.000000,11,0.000000,30.033485,0.186867,99,99,0,0,0,0,0
5,59999,66,50000,83,30000,42,9999,0.100000,99,0,0.000000,12,4.000000,16.199374,15.987555,99,99,0,0,0,0,0
5,59999,67,50000,11,30000,40,9999,0.100000,99,0,0.000000,12,0.000000,31.899899,0.123491,99,99,0,0,0,0,0
5,59999,68,50000,88,30000,40,9999,0.100000,99,0,0.000000,11,0.000000,11.947997,0.187527,99,99,0,0,0,0,0
5,59999,69,50000,88,30000,0,9999,0.100000,99,0,0.355124,11,0.000000,20.759256,0.345458,99,99,0,0,0,0,1
5,59999,70,50000,0,0,40,9999,0.100000,99,0,0.000000,12,0.000000,22.950443,12.337456,99,99,0,0,0,0,0
5,59999,71,50000,88,30000,40,9999,0.100000,99,0,0.000000,11,0.000000,21.374571,0.092109,99,99,0,0,0,0,0
5,59999,72,50000,75,10000,40,9999,0.100000,99,0,0.000000,11,0.000000,30.330264,6.283722,99,99,0,0,0,0,0
5,59999,73,50000,75,10000,40,9999,0.100000,99,0,0.000000,11,0.000000,24.108364,21.360101,99,99,0,0,0,0,0
5,59999,74,50000,19,0,40,9999,0.100000,99,0,0.000000,11,0.000000,20.350186,0.885681,99,99,0,0,0,0,0
5,59999,75,50000,95,20000,40,9999,0.100000,99,0,0.000000,12,0.000000,16.549709,2.327472,99,99,0,0,0,0,0
5,59999,76,50000,75,10000,40,9999,0.100000,99,0,0.000000,11,0.000000,26.310112,0.136081,99,99,0,0,0,0,0
5,59999,77,50000,11,40000,40,9999,0.100000,99,0,0.000000,11,0.000000,18.615148,0.108043,99,99,0,0,0,0,0
5,59999,78,50000,72,10000,40,9999,0.100000,99,0,0.000000,11,2.000000,34.951024,6.954236,99,99,0,0,0,0,0
5,59999,79,50000,72,10000,40,9999,0.135000,99,0,0.000000,11,0.000000,31.293368,0.084920,99,99,0,0,0,0,0
5,59999,80,50000,78,10000,0,9999,0.100000,99,0,3.189950,11,0.000000,16.606629,0.869471,99,99,0,0,1,0,0
5,59999,81,50000,95,20000,0,9999,0.100000,99,0,0.198983,11,0.000000,25.234895,0.198214,99,99,0,0,0,0,1
5,59999,82,50000,72,10000,48,9999,0.100000,99,0,0.000000,11,11.000000,12.529598,45.012669,99,99,0,0,0,0,0
5,59999,83,50000,72,10000,40,9999,0.100000,99,0,0.000000,11,0.000000,18.311354,0.533766,99,99,0,0,0,0,0
5,59999,84,50000,78,20000,40,9999,0.100000,99,0,0.000000,11,0.000000,30.976079,0.191184,99,99,0,0,0,0,0
5,59999,85,50000,88,30000,40,9999,0.100000,99,0,0.000000,11,0.000000,26.475419,0.111138,99,99,0,0,0,0,0
5,59999,86,50000,11,30000,40,9999,0.100000,99,0,0.000000,11,0.000000,25.213656,0.088791,99,99,0,0,0,0,0
5,59999,87,50000,95,20000,40,9999,0.100000,99,0,0.000000,11,0.000000,16.228211,2.741779,99,99,0,0,0,0,0
5,59999,88,50000,11,40000,0,9999,0.100000,99,0,2.500483,11,0.000000,16.358387,1.164623,99,99,0,1,0,0,0
5,59999,89,50000,0,0,0,9999,0.100000,99,0,0.000670,11,0.000000,17.754227,0.066214,99,99,0,0,0,0,1
5,59999,90,50000,78,20000,40,9999,0.100000,99,0,0.000000,11,2.000000,20.035385,11.432497,99,99,0,0,0,0,0
5,59999,91,50000,11,30000,40,9999,0.100000,99,0,0.000000,12,0.000000,23.106109,0.155625,99,99,0,0,0,0,0
5,59999,92,50000,0,0,40,9999,0.100000,99,0,0.000000,11,0.000000,16.627058,1.450328,99,99,0,0,0,0,0
5,59999,93,50000,72,10000,40,9999,0.100000,99,0,0.000000,11,0.000000,16.099718,0.880857,99,99,0,0,0,0,0
5,59999,94,50000,11,40000,0,9999,0.100000,99,0,3.226560,11,0.000000,20.106915,0.883107,99,99,0,0,1,0,0
5,59999,95,50000,78,10000,40,9999,0.100000,99,0,0.000000,11,0.000000,13.128640,15.187270,99,99,0,0,0,0,0
5,59999,96,50000,30,10000,0,9999,0.100000,99,0,0.187217,11,0.000000,24.288736,0.202376,99,99,0,0,0,1,0
5,59999,97,50000,78,20000,40,9999,0.100000,99,0,0.000000,11,0.000000,23.036443,0.080794,99,99,0,0,0,0,0
5,59999,98,50000,78,10000,40,9999,0.100000,99,0,0.000000,11,0.000000,16.955684,0.068794,99,99,0,0,0,0,0
5,59999,99,50000,0,0,40,9999,0.100000,99,0,0.000000,11,0.000000,18.871365,0.108788,99,99,0,0,0,0,0
6,69999,0,60000,78,10000,40,9999,0.100000,99,0,0.000000,12,0.000000,23.876787,0.275292,99,99,0,0,0,0,0
6,69999,1,60000,0,0,0,9999,0.100000,99,0,11.052692,12,2.000000,26.849590,2.477365,99,99,0,0,0,1,0
6,69999,2,60000,95,20000,0,9999,0.100000,99,0,0.404242,12,0.000000,20.743658,0.448381,99,99,0,0,0,0,1
6,69999,3,60000,72,10000,40,9999,0.100000,99,0,0.000000,12,1.000000,15.237791,20.024315,99,99,0,0,0,0,0
6,69999,4,60000,11,30000,0,9999,0.100000,99,0,0.003265,12,0.000000,14.922471,0.183045,99,99,0,0,0,0,1
6,69999,5,60000,78,20000,0,9999,0.100000,99,0,2.267417,12,0.000000,33.606387,0.676940,99,99,0,1,0,0,0
6,69999,6,60000,78,20000,40,9999,0.100000,99,0,0.000000,12,0.000000,16.709669,0.639681,99,99,0,0,0,0,0
6,69999,7,60000,72,10000,40,9999,0.100000,99,0,0.000000,13,0.000000,28.555647,0.628216,99,99,0,0,0,0,0
6,69999,8,60000,78,10000,0,9999,0.100000,99,0,0.415694,12,0.000000,16.153920,0.628376,99,99,0,0,0,0,1
6,69999,9,60000,78,10000,0,9999,0.100000,99,0,0.492524,12,0.000000,29.178148,0.177587,99,99,0,0,0,0,1
6,69999,10,60000,88,30000,40,9999,0.100000,99,0,0.000000,12,0.000000,22.602949,0.443746,99,99,0,0,0,0,0
6,69999,11,60000,0,0,41,9999,0.100000,99,0,0.000000,12,2.000000,15.521250,13.453363,99,99,0,0,0,0,0
6,69999,12,60000,95,20000,40,9999,0.100000,99,0,0.000000,12,0.000000,22.329339,0.875681,99,99,0,0,0,0,0
6,69999,13,60000,88,30000,40,9999,0.100000,99,0,0.000000,12,0.000000,26.699001,1.046908,99,99,0,0,0,0,0
6,69999,14,60000,45,40000,40,9999,0.100000,99,0,0.000000,12,2.000000,28.288374,9.450361,99,99,0,0,0,0,0
6,69999,15,60000,78,20000,40,9999,0.100000,99,0,0.000000,12,0.000000,28.892354,0.525509,99,99,0,0,0,0,0
6,69999,16,60000,95,20000,40,9999,0.100000,99,0,0.000000,12,2.000000,26.607122,2.876301,99,99,0,0,0,0,0
6,69999,17,60000,30,10000,40,9999,0.100000,99,0,0.000000,12,0.000000,25.376017,0.314279,99,99,0,0,0,0,0
6,69999,18,60000,45,40000,0,9999,0.100000,99,0,0.001262,12,0.000000,25.297000,0.063040,99,99,0,0,0,0,1
6,69999,19,60000,78,10000,42,9999,0.100000,99,0,0.000000,12,5.000000,16.648114,8.386367,99,99,0,0,0,0,0
6,69999,20,60000,78,10000,0,9999,0.100000,99,0,0.433694,12,0.000000,20.610957,0.251160,99,99,0,0,0,1,0
6,69999,21,60000,83,40000,40,9999,0.100000,99,0,0.000000,12,0.000000,28.362440,0.219481,99,99,0,0,0,0,0
6,69999,22,60000,30,10000,40,9999,0.100000,99,0,0.000000,12,0.000000,28.920619,8.366304,99,99,0,0,0,0,0
6,69999,23,60000,11,30000,41,9999,0.100000,99,0,0.000000,12,3.000000,26.110653,3.635887,99,99,0,0,0,0,0
6,69999,24,60000,88,30000,0,9999,0.100000,99,0,0.001604,12,1.000000,20.142984,1.967921,99,99,0,0,0,0,1
6,69999,25,60000,11,40000,0,9999,0.100000,99,0,0.519911,12,0.000000,27.843784,0.162384,99,99,0,0,0,0,1
6,69999,26,60000,45,40000,0,9999,0.100000,99,0,0.325367,12,0.000000,26.698195,0.929716,99,99,0,0,0,0,1
6,69999,27,60000,0,0,40,9999,0.100000,99,0,0.000000,12,0.000000,24.644554,0.795020,99,99,0,0,0,0,0
6,69999,28,60000,0,0,40,9999,0.100000,99,0,0.000000,12,0.000000,27.181527,1.057544,99,99,0,0,0,0,0
6,69999,29,60000,11,30000,0,9999,0.100000,99,0,0.004123,12,0.000000,24.630683,0.093418,99,99,0,0,0,1,0
6,69999,30,60000,45,40000,40,9999,0.100000,99,0,0.000000,12,0.000000,31.818674,9.511796,99,99,0,0,0,0,0
6,69999,31,60000,95,20000,0,9999,0.100000,99,0,2.490196,12,0.000000,32.555655,0.997818,99,99,0,0,0,0,1
6,69999,32,60000,11,40000,40,9999,0.100000,99,0,0.000000,12,1.000000,28.169653,10.287051,99,99,0,0,0,0,0
6,69999,33,60000,30,10000,0,9999,0.100000,99,0,0.000000,12,1.000000,25.310011,2.488068,99,99,0,0,0,0,1
6,69999,34,60000,11,30000,40,9999,0.100000,99,0,0.000000,12,0.000000,20.593149,0.941300,99,99,0,0,0,0,0
6,69999,35,60000,11,40000,40,9999,0.100000,99,0,0.000000,13,0.000000,20.125723,1.009106,99,99,0,0,0,0,0
6,69999,36,60000,11,30000,0,9999,0.100000,99,0,0.242097,12,0.000000,23.549729,0.211724,99,99,0,0,0,1,0
6,69999,37,60000,83,40000,40,9999,0.100000,99,0,0.000000,12,0.000000,31.307543,1.005190,99,99,0,0,0,0,0
6,69999,38,60000,83,30000,40,9999,0.100000,99,0,0.000000,12,0.000000,31.035724,0.926007,99,99,0,0,0,0,0
6,69999,39,60000,78,10000,40,9999,0.100000,99,0,0.000000,12,0.000000,29.390028,0.216304,99,99,0,0,0,0,0
6,69999,40,60000,78,20000,0,9999,0.100000,99,0,0.000000,12,1.000000,25.358316,2.650727,99,99,0,0,0,0,1
6,69999,41,60000,95,20000,40,9999,0.100000,99,0,0.000000,12,2.000000,29.179640,14.661703,99,99,0,0,0,0,0
6,69999,42,60000,83,40000,0,9999,0.100000,99,0,3.620477,13,0.000000,31.758275,0.928982,99,99,0,0,0,0,1
6,69999,43,60000,95,20000,40,9999,0.100000,99,0,0.000000,12,0.000000,23.283996,0.461303,99,99,0,0,0,0,0
6,69999,44,60000,30,10000,0,9999,0.100000,99,0,0.000485,12,0.000000,28.807970,0.075109,99,99,0,0,0,0,1
6,69999,45,60000,83,30000,0,9999,0.100000,99,0,0.173703,12,0.000000,17.922651,0.109671,99,99,0,0,0,0,1
6,69999,46,60000,78,20000,0,9999,0.100000,99,0,0.009510,12,0.000000,21.561006,1.125818,99,99,0,0,0,0,1
6,69999,47,60000,30,10000,0,9999,0.100000,99,0,0.273432,12,0.000000,22.392405,0.505215,99,99,0,0,0,0,1
6,69999,48,60000,45,40000,0,9999,0.100000,99,0,1.106609,12,0.000000,22.630356,0.360777,99,99,0,0,1,0,0
6,69999,49,60000,45,40000,40,9999,0.100000,99,0,0.000000,13,0.000000,19.854804,0.251446,99,99,0,0,0,0,0
6,69999,50,60000,83,30000,0,9999,0.135000,99,0,0.001580,12,0.000000,23.262987,0.091439,99,99,0,0,0,0,1
6,69999,51,60000,45,40000,40,9999,0.100000,99,0,0.000000,12,0.000000,23.643300,0.432967,99,99,0,0,0,0,0
6,69999,52,60000,11,30000,41,9999,0.100000,99,0,0.000000,12,6.000000,28.800840,13.900866,99,99,0,0,0,0,0
6,69999,53,60000,83,40000,0,9999,0.100000,99,0,0.001438,12,0.000000,30.928376,0.072809,99,99,0,0,0,0,1
6,69999,54,60000,83,40000,0,9999,0.100000,99,0,0.002020,12,0.000000,26.654646,0.066659,99,99,0,0,0,0,1
6,69999,55,60000,11,40000,40,9999,0.100000,99,0,0.000000,12,0.000000,20.766367,0.695538,99,99,0,0,0,0,0
6,69999,56,60000,11,40000,40,9999,0.100000,99,0,0.000000,12,0.000000,28.699605,0.061265,99,99,0,0,0,0,0
6,69999,57,60000,95,20000,40,9999,0.100000,99,0,0.000000,12,0.000000,24.755572,0.524994,99,99,0,0,0,0,0
6,69999,58,60000,78,10000,40,9999,0.100000,99,0,0.000000,12,0.000000,31.427014,0.091851,99,99,0,0,0,0,0
6,69999,59,60000,83,40000,40,9999,0.100000,99,0,0.000000,12,0.000000,31.900815,6.817222,99,99,0,0,0,0,0
6,69999,60,60000,88,30000,0,9999,0.100000,99,0,0.019457,12,0.000000,29.385823,0.184476,99,99,0,0,1,0,0
6,69999,61,60000,88,30000,40,9999,0.100000,99,0,0.000000,13,0.000000,33.623459,0.662955,99,99,0,0,0,0,0
6,69999,62,60000,78,20000,40,9999,0.100000,99,0,0.000000,12,0.000000,28.597879,0.414737,99,99,0,0,0,0,0
6,69999,63,60000,88,30000,40,9999,0.100000,99,0,0.000000,12,0.000000,29.695948,0.341946,99,99,0,0,0,0,0
6,69999,64,60000,83,30000,0,9999,0.100000,99,0,0.600071,12,0.000000,19.166048,0.157021,99,99,0,0,0,0,1
6,69999,65,60000,30,10000,40,9999,0.100000,99,0,0.000000,12,0.000000,30.033201,0.182688,99,99,0,0,0,0,0
6,69999,66,60000,83,30000,40,9999,0.100000,99,0,0.000000,12,1.000000,19.554954,5.320951,99,99,0,0,0,0,0
6,69999,67,60000,83,30000,40,9999,0.100000,99,0,0.000000,12,0.000000,31.971642,1.200972,99,99,0,0,0,0,0
6,69999,68,60000,11,30000,40,9999,0.100000,99,0,0.000000,12,0.000000,11.947127,0.395808,99,99,0,0,0,0,0
6,69999,69,60000,83,30000,0,9999,0.100000,99,0,0.333627,12,0.000000,20.706722,0.295295,99,99,0,0,0,0,1
6,69999,70,60000,88,30000,40,9999,0.100000,99,0,0.000000,12,0.000000,22.705825,10.369550,99,99,0,0,0,0,0
6,69999,71,60000,45,40000,40,9999,0.100000,99,0,0.000000,12,0.000000,21.378082,0.279335,99,99,0,0,0,0,0
6,69999,72,60000,30,10000,40,9999,0.100000,99,0,0.000000,12,3.000000,30.494246,13.598527,99,99,0,0,0,0,0
6,69999,73,60000,30,10000,0,9999,0.100000,99,0,0.045666,12,0.000000,24.107098,14.251262,99,99,0,0,0,1,0
6,69999,74,60000,83,30000,43,9999,0.100000,99,0,0.000000,12,8.000000,19.694588,21.102797,99,99,0,0,0,0,0
6,69999,75,60000,11,30000,40,9999,0.100000,99,0,0.000000,12,0.000000,16.332893,0.848068,99,99,0,0,0,0,0
6,69999,76,60000,78,10000,40,9999,0.100000,99,0,0.000000,12,0.000000,26.308056,0.142702,99,99,0,0,0,0,0
6,69999,77,60000,45,40000,40,9999,0.100000,99,0,0.000000,12,0.000000,18.586185,0.159046,99,99,0,0,0,0,0
6,69999,78,60000,82,50000,40,9999,0.100000,99,0,0.000000,13,0.000000,33.676603,0.735828,99,99,0,0,0,0,0
6,69999,79,60000,83,40000,40,9999,0.100000,99,0,0.000000,13,0.000000,31.293842,0.086413,99,99,0,0,0,0,0
6,69999,80,60000,78,20000,40,9999,0.100000,99,0,0.000000,12,0.000000,16.860112,0.821919,99,99,0,0,0,0,0
6,69999,81,60000,11,40000,0,9999,0.100000,99,0,0.000714,13,0.000000,25.101634,0.150141,99,99,0,0,0,0,1
6,69999,82,60000,95,20000,6,9999,0.100000,99,0,0.117657,13,9.000000,13.598105,36.027542,99,99,0,1,0,0,0
6,69999,83,60000,83,40000,40,9999,0.100000,99,0,0.000000,12,1.000000,18.491474,4.487336,99,99,0,0,0,0,0
6,69999,84,60000,95,20000,40,9999,0.100000,99,0,0.000000,13,0.000000,30.975451,0.201895,99,99,0,0,0,0,0
6,69999,85,60000,78,10000,40,9999,0.100000,99,0,0.000000,12,0.000000,26.477205,0.110434,99,99,0,0,0,0,0
6,69999,86,60000,11,30000,40,9999,0.100000,99,0,0.000000,12,0.000000,25.213321,0.089022,99,99,0,0,0,0,0
6,69999,87,60000,30,10000,42,9999,0.100000,99,0,0.000000,12,5.000000,16.572168,8.884735,99,99,0,0,0,0,0
6,69999,88,60000,30,10000,41,9999,0.100000,99,0,0.000000,12,2.000000,16.490733,5.666169,99,99,0,0,0,0,0
6,69999,89,60000,83,40000,0,9999,0.100000,99,0,0.000866,12,0.000000,17.753733,0.067283,99,99,0,0,0,0,1
6,69999,90,60000,11,40000,1,9999,0.100000,99,0,0.000000,13,4.000000,22.714413,9.296526,99,99,0,0,0,0,1
6,69999,91,60000,11,40000,40,9999,0.100000,99,0,0.000000,12,0.000000,23.103757,0.156787,99,99,0,0,0,0,0
6,69999,92,60000,30,10000,40,9999,0.100000,99,0,0.000000,12,0.000000,16.548268,0.923546,99,99,0,0,0,0,0
6,69999,93,60000,95,20000,40,9999,0.100000,99,0,0.000000,12,0.000000,15.985845,0.812280,99,99,0,0,0,0,0
6,69999,94,60000,83,30000,0,9999,0.100000,99,0,1.207998,12,0.000000,20.727382,0.650636,99,99,0,0,1,0,0
6,69999,95,60000,82,50000,40,9999,0.100000,99,0,0.000000,13,1.000000,13.958575,9.503015,99,99,0,0,0,0,0
6,69999,96,60000,78,10000,40,9999,0.100000,99,0,0.000000,12,0.000000,24.376475,0.326001,99,99,0,0,0,0,0
6,69999,97,60000,45,40000,40,9999,0.100000,99,0,0.000000,13,0.000000,23.032829,0.077258,99,99,0,0,0,0,0
6,69999,98,60000,83,30000,40,9999,0.100000,99,0,0.000000,12,0.000000,16.955425,0.068016,99,99,0,0,0,0,0
6,69999,99,60000,78,10000,40,9999,0.100000,99,0,0.000000,12,0.000000,18.842261,0.184919,99,99,0,0,0,0,0
7,79999,0,70000,83,40000,40,9999,0.100000,99,0,0.000000,13,0.000000,23.724880,0.272096,99,99,0,0,0,0,0
7,79999,1,70000,95,20000,40,9999,0.100000,99,0,0.000000,14,0.000000,27.282225,1.501239,99,99,0,0,0,0,0
7,79999,2,70000,83,30000,0,9999,0.100000,99,0,0.379723,13,0.000000,20.829693,0.430003,99,99,0,0,0,0,1
7,79999,3,70000,45,40000,40,9999,0.100000,99,0,0.000000,14,0.000000,15.761811,16.533092,99,99,0,0,0,0,0
7,79999,4,70000,11,30000,0,9999,0.100000,99,0,0.109296,13,0.000000,14.925006,0.191157,99,99,0,0,0,0,1
7,79999,5,70000,78,10000,0,9999,0.100000,99,0,3.968249,14,0.000000,33.207801,1.079285,99,99,0,1,0,0,0
7,79999,6,70000,95,20000,0,9999,0.100000,99,0,0.167605,13,0.000000,16.469597,0.518587,99,99,0,0,0,0,1
7,79999,7,70000,95,20000,40,9999,0.100000,99,0,0.000000,14,0.000000,28.512139,0.750299,99,99,0,0,0,0,0
7,79999,8,70000,45,40000,40,9999,0.100000,99,0,0.000000,13,0.000000,15.982185,0.712986,99,99,0,0,0,0,0
7,79999,9,70000,72,10000,0,9999,0.100000,99,0,0.401768,14,0.000000,29.291567,0.171580,99,99,0,0,0,0,1
7,79999,10,70000,11,30000,40,9999,0.100000,99,0,0.000000,14,0.000000,22.402474,0.608810,99,99,0,0,0,0,0
7,79999,11,70000,78,20000,45,9999,0.100000,99,0,0.000000,14,7.000000,13.238568,19.877380,99,99,0,0,0,0,0
7,79999,12,70000,0,0,40,9999,0.100000,99,0,0.000000,14,0.000000,22.327424,0.836973,99,99,0,0,0,0,0
7,79999,13,70000,72,10000,40,9999,0.100000,99,0,0.000000,13,0.000000,26.683948,1.028642,99,99,0,0,0,0,0
7,79999,14,70000,11,30000,40,9999,0.100000,99,0,0.000000,14,0.000000,30.892347,6.395735,99,99,0,0,0,0,0
7,79999,15,70000,88,30000,40,9999,0.100000,99,0,0.000000,14,0.000000,28.847192,0.522540,99,99,0,0,0,0,0
7,79999,16,70000,82,50000,40,9999,0.100000,99,0,0.000000,13,1.000000,27.094307,2.764641,99,99,0,0,0,0,0
7,79999,17,70000,78,10000,40,9999,0.100000,99,0,0.000000,14,0.000000,25.312363,0.308044,99,99,0,0,0,0,0
7,79999,18,70000,45,40000,0,9999,0.100000,99,0,0.014705,14,0.000000,25.297486,0.071963,99,99,0,0,0,0,1
7,79999,19,70000,88,30000,0,9999,0.100000,99,0,6.741658,13,0.000000,12.705727,2.635278,99,99,0,1,0,0,0
7,79999,20,70000,83,40000,0,9999,0.100000,99,0,0.947903,14,0.000000,20.464178,0.401227,99,99,0,0,0,1,0
7,79999,21,70000,11,30000,40,9999,0.100000,99,0,0.000000,14,0.000000,28.320451,0.199896,99,99,0,0,0,0,0
7,79999,22,70000,30,10000,40,9999,0.100000,99,0,0.000000,13,0.000000,28.924253,8.190492,99,99,0,0,0,0,0
7,79999,23,70000,88,30000,40,9999,0.100000,99,0,0.000000,13,2.000000,26.810311,2.360723,99,99,0,0,0,0,0
7,79999,24,70000,30,10000,0,9999,0.100000,99,0,0.040435,14,0.000000,19.533145,0.098258,99,99,0,0,0,0,1
7,79999,25,70000,30,10000,40,9999,0.100000,99,0,0.000000,13,0.000000,27.804222,0.494028,99,99,0,0,0,0,0
7,79999,26,70000,78,20000,0,9999,0.100000,99,0,0.346955,14,0.000000,26.685395,0.935341,99,99,0,0,0,0,1
7,79999,27,70000,95,20000,40,9999,0.100000,99,0,0.000000,14,0.000000,24.550816,0.821430,99,99,0,0,0,0,0
7,79999,28,70000,83,30000,0,9999,0.100000,99,0,0.600622,14,0.000000,26.746242,0.269129,99,99,0,0,1,0,0
7,79999,29,70000,78,20000,0,9999,0.100000,99,0,0.003848,13,0.000000,24.630478,0.092608,99,99,0,0,0,1,0
7,79999,30,70000,83,40000,40,9999,0.100000,99,0,0.000000,13,0.000000,31.999240,6.331435,99,99,0,0,0,0,0
7,79999,31,70000,72,10000,0,9999,0.100000,99,0,2.251259,14,0.000000,32.454704,0.653743,99,99,0,0,0,0,1
7,79999,32,70000,0,0,40,9999,0.100000,99,0,0.000000,13,0.000000,27.846565,1.046101,99,99,0,0,0,0,0
7,79999,33,70000,45,40000,40,9999,0.100000,99,0,0.000000,13,1.000000,26.886392,4.604116,99,99,0,0,0,0,0
7,79999,34,70000,11,30000,0,9999,0.100000,99,0,0.916248,13,1.000000,20.771439,2.859597,99,99,0,0,1,0,0
7,79999,35,70000,82,50000,40,9999,0.100000,99,0,0.000000,14,0.000000,20.146004,0.984492,99,99,0,0,0,0,0
7,79999,36,70000,95,20000,0,9999,0.100000,99,0,0.274010,13,0.000000,23.401396,0.211500,99,99,0,0,0,1,0
7,79999,37,70000,78,10000,40,9999,0.100000,99,0,0.000000,14,0.000000,31.343817,0.935742,99,99,0,0,0,0,0
7,79999,38,70000,88,30000,40,9999,0.100000,99,0,0.000000,13,0.000000,31.068097,0.915078,99,99,0,0,0,0,0
7,79999,39,70000,78,10000,40,9999,0.100000,99,0,0.000000,14,0.000000,29.515858,0.207966,99,99,0,0,0,0,0
7,79999,40,70000,30,10000,40,9999,0.100000,99,0,0.000000,14,2.000000,26.860494,13.597102,99,99,0,0,0,0,0
7,79999,41,70000,78,20000,0,9999,0.100000,99,0,0.054540,14,1.000000,26.221169,9.587280,99,99,0,0,0,0,1
7,79999,42,70000,87,60000,0,9999,0.100000,99,0,2.756059,14,0.000000,31.860195,0.672871,99,99,0,0,0,0,1
7,79999,43,70000,11,30000,40,9999,0.100000,99,0,0.000000,14,0.000000,23.087931,0.325880,99,99,0,0,0,0,0
7,79999,44,70000,45,40000,0,9999,0.100000,99,0,0.000061,13,0.000000,28.809015,0.074564,99,99,0,0,0,0,1
7,79999,45,70000,78,20000,0,9999,0.100000,99,0,0.053851,13,0.000000,17.924286,0.088133,99,99,0,0,0,0,1
7,79999,46,70000,83,40000,0,9999,0.100000,99,0,0.012946,13,0.000000,21.559616,1.283116,99,99,0,0,0,0,1
7,79999,47,70000,83,40000,0,9999,0.100000,99,0,0.298752,13,0.000000,22.397604,0.482632,99,99,0,0,0,0,1
7,79999,48,70000,11,30000,0,9999,0.100000,99,0,1.299644,14,0.000000,22.465350,0.378361,99,99,0,0,1,0,0
7,79999,49,70000,72,10000,40,9999,0.100000,99,0,0.000000,14,0.000000,19.901665,0.219784,99,99,0,0,0,0,0
7,79999,50,70000,11,30000,0,9999,0.100000,99,0,0.001900,14,0.000000,23.261226,0.090873,99,99,0,0,0,0,1
7,79999,51,70000,78,10000,40,9999,0.100000,99,0,0.000000,13,0.000000,23.408071,1.440956,99,99,0,0,0,0,0
7,79999,52,70000,78,10000,0,9999,0.100000,99,0,0.743908,14,0.000000,28.754373,0.400372,99,99,0,0,0,0,1
7,79999,53,70000,82,50000,40,9999,0.100000,99,0,0.000000,13,0.000000,30.928396,0.271882,99,99,0,0,0,0,0
7,79999,54,70000,82,50000,0,9999,0.100000,99,0,0.002356,13,0.000000,26.656299,0.066676,99,99,0,0,0,0,1
7,79999,55,70000,95,20000,40,9999,0.100000,99,0,0.000000,14,0.000000,20.722993,0.706391,99,99,0,0,0,0,0
7,79999,56,70000,82,60000,40,9999,0.100000,99,0,0.000000,14,0.000000,28.705593,0.050515,99,99,0,0,0,0,0
7,79999,57,70000,78,20000,40,9999,0.100000,99,0,0.000000,14,0.000000,24.530546,0.423031,99,99,0,0,0,0,0
7,79999,58,70000,78,20000,0,9999,0.100000,99,0,0.465964,14,0.000000,31.427664,0.981055,99,99,0,0,0,0,1
7,79999,59,70000,78,20000,40,9999,0.100000,99,0,0.000000,13,0.000000,31.790748,8.688556,99,99,0,0,0,0,0
7,79999,60,70000,78,10000,0,9999,0.100000,99,0,0.142366,13,0.000000,29.385921,0.178732,99,99,0,0,1,0,0
7,79999,61,70000,78,20000,40,9999,0.100000,99,0,0.000000,13,0.000000,33.212159,1.070866,99,99,0,0,0,0,0
7,79999,62,70000,78,20000,40,9999,0.100000,99,0,0.000000,14,0.000000,28.551435,0.454363,99,99,0,0,0,0,0
7,79999,63,70000,88,30000,40,9999,0.100000,99,0,0.000000,14,0.000000,29.835313,0.342310,99,99,0,0,0,0,0
7,79999,64,70000,0,0,0,9999,0.100000,99,0,0.625712,13,0.000000,19.249279,0.162962,99,99,0,0,0,0,1
7,79999,65,70000,78,20000,40,9999,0.100000,99,0,0.000000,13,0.000000,30.033091,0.173592,99,99,0,0,0,0,0
7,79999,66,70000,83,30000,40,9999,0.100000,99,0,0.000000,13,0.000000,20.408949,0.931579,99,99,0,0,0,0,0
7,79999,67,70000,82,50000,40,9999,0.100000,99,0,0.000000,14,0.000000,32.059099,0.968638,99,99,0,0,0,0,0
7,79999,68,70000,11,40000,40,9999,0.100000,99,0,0.000000,13,0.000000,11.902570,1.859083,99,99,0,0,0,0,0
7,79999,69,70000,0,0,0,9999,0.100000,99,0,0.350612,13,0.000000,20.661865,0.288200,99,99,0,0,0,0,1
7,79999,70,70000,78,10000,40,9999,0.100000,99,0,0.000000,14,0.000000,22.853738,17.889659,99,99,0,0,0,0,0
7,79999,71,70000,11,40000,40,9999,0.100000,99,0,0.000000,13,0.000000,21.352640,0.342162,99,99,0,0,0,0,0
7,79999,72,70000,11,30000,41,9999,0.100000,99,0,0.000000,14,3.000000,27.744602,8.318973,99,99,0,0,0,0,0
7,79999,73,70000,83,30000,0,9999,0.100000,99,0,0.222979,14,0.000000,24.151742,0.158715,99,99,0,0,0,1,0
7,79999,74,70000,87,60000,41,9999,0.100000,99,0,0.000000,14,3.000000,27.997149,15.492983,99,99,0,0,0,0,0
7,79999,75,70000,11,40000,40,9999,0.100000,99,0,0.000000,13,0.000000,16.135006,0.719652,99,99,0,0,0,0,0
7,79999,76,70000,30,10000,40,9999,0.100000,99,0,0.000000,14,0.000000,26.305976,0.146495,99,99,0,0,0,0,0
7,79999,77,70000,30,10000,40,9999,0.100000,99,0,0.000000,13,0.000000,18.595339,0.111039,99,99,0,0,0,0,0
7,79999,78,70000,11,40000,41,9999,0.100000,99,0,0.000000,14,4.000000,33.297959,10.786677,99,99,0,0,0,0,0
7,79999,79,70000,83,30000,40,9999,0.100000,99,0,0.000000,14,0.000000,31.294355,0.348853,99,99,0,0,0,0,0
7,79999,80,70000,82,50000,40,9999,0.100000,99,0,0.000000,14,0.000000,17.047906,0.432735,99,99,0,0,0,0,0
7,79999,81,70000,95,20000,0,9999,0.100000,99,0,0.091861,14,0.000000,25.012540,0.146526,99,99,0,0,0,0,1
7,79999,82,70000,72,10000,40,9999,0.100000,99,0,0.000000,14,1.000000,11.977156,5.802304,99,99,0,0,0,0,0
7,79999,83,70000,83,30000,40,9999,0.100000,99,0,0.000000,14,0.000000,18.616638,0.415587,99,99,0,0,0,0,0
7,79999,84,70000,82,50000,40,9999,0.100000,99,0,0.000000,14,0.000000,30.974684,0.207907,99,99,0,0,0,0,0
7,79999,85,70000,11,30000,40,9999,0.100000,99,0,0.000000,14,0.000000,26.478675,0.111046,99,99,0,0,0,0,0
7,79999,86,70000,83,40000,40,9999,0.100000,99,0,0.000000,14,0.000000,25.213140,0.089027,99,99,0,0,0,0,0
7,79999,87,70000,45,40000,40,9999,0.100000,99,0,0.000000,14,1.000000,12.577977,6.392367,99,99,0,0,0,0,0
7,79999,88,70000,82,50000,42,9999,0.100000,99,0,0.000000,14,4.000000,14.515343,8.552763,99,99,0,0,0,0,0
7,79999,89,70000,88,30000,0,9999,0.100000,99,0,0.001323,14,0.000000,17.753140,0.067086,99,99,0,0,0,0,1
7,79999,90,70000,30,10000,40,9999,0.100000,99,0,0.000000,14,2.000000,26.783717,6.799560,99,99,0,0,0,0,0
7,79999,91,70000,82,60000,40,9999,0.100000,99,0,0.000000,14,0.000000,23.100269,0.159190,99,99,0,0,0,0,0
7,79999,92,70000,78,10000,40,9999,0.100000,99,0,0.000000,14,0.000000,16.320330,0.710704,99,99,0,0,0,0,0
7,79999,93,70000,45,40000,40,9999,0.100000,99,0,0.000000,14,0.000000,15.838076,0.891357,99,99,0,0,0,0,0
7,79999,94,70000,78,10000,40,9999,0.100000,99,0,0.000000,13,1.000000,20.897886,3.643706,99,99,0,0,0,0,0
7,79999,95,70000,78,10000,40,9999,0.100000,99,0,0.000000,13,1.000000,12.407308,14.583683,99,99,0,0,0,0,0
7,79999,96,70000,95,20000,40,9999,0.065000,99,0,0.000000,14,0.000000,24.282055,0.150067,99,99,0,0,0,0,0
7,79999,97,70000,45,40000,40,9999,0.100000,99,0,0.000000,13,0.000000,23.032043,0.076868,99,99,0,0,0,0,0
7,79999,98,70000,30,10000,40,9999,0.100000,99,0,0.000000,14,0.000000,16.955120,0.069635,99,99,0,0,0,0,0
7,79999,99,70000,82,60000,40,9999,0.100000,99,0,0.000000,14,0.000000,18.853102,0.100899,99,99,0,0,0,0,0
8,89999,0,80000,78,10000,40,9999,0.100000,99,0,0.000000,14,0.000000,23.570604,0.281636,99,99,0,0,0,0,0
8,89999,1,80000,78,20000,40,9999,0.100000,99,0,0.000000,14,0.000000,27.661547,0.516018,99,99,0,0,0,0,0
8,89999,2,80000,0,0,0,9999,0.100000,99,0,0.001121,14,0.000000,20.913568,0.079705,99,99,0,0,0,0,1
8,89999,3,80000,95,20000,40,9999,0.100000,99,0,0.000000,14,0.000000,15.348458,15.505767,99,99,0,0,0,0,0
8,89999,4,80000,82,50000,0,9999,0.100000,99,0,0.077465,14,0.000000,14.907550,0.172687,99,99,0,0,0,0,1
8,89999,5,80000,88,30000,0,9999,0.100000,99,0,2.291676,14,0.000000,32.653007,0.857946,99,99,0,1,0,0,0
8,89999,6,80000,11,30000,0,9999,0.100000,99,0,0.006668,14,0.000000,16.338098,0.543208,99,99,0,0,0,0,1
8,89999,7,80000,82,60000,40,9999,0.100000,99,0,0.000000,14,0.000000,28.484361,0.690243,99,99,0,0,0,0,0
8,89999,8,80000,72,10000,40,9999,0.100000,99,0,0.000000,14,0.000000,15.897035,0.580336,99,99,0,0,0,0,0
8,89999,9,80000,11,30000,0,9999,0.100000,99,0,0.072105,14,0.000000,29.390689,0.206115,99,99,0,0,0,0,1
8,89999,10,80000,83,30000,40,9999,0.100000,99,0,0.000000,14,0.000000,22.077598,0.236296,99,99,0,0,0,0,0
8,89999,11,80000,83,40000,43,9999,0.100000,99,0,0.000000,14,7.000000,20.268495,16.073115,99,99,0,0,0,0,0
8,89999,12,80000,82,50000,0,9999,0.100000,99,0,0.005612,14,0.000000,22.328700,2.266358,99,99,0,0,0,0,1
8,89999,13,80000,30,10000,40,9999,0.100000,99,0,0.000000,14,0.000000,26.665958,1.053381,99,99,0,0,0,0,0
8,89999,14,80000,72,10000,40,9999,0.100000,99,0,0.000000,14,0.000000,31.160918,2.905065,99,99,0,0,0,0,0
8,89999,15,80000,88,30000,40,9999,0.100000,99,0,0.000000,14,0.000000,28.818810,0.481003,99,99,0,0,0,0,0
8,89999,16,80000,82,50000,40,9999,0.100000,99,0,0.000000,14,0.000000,28.740813,1.453174,99,99,0,0,0,0,0
8,89999,17,80000,82,60000,40,9999,0.100000,99,0,0.000000,14,0.000000,25.245733,0.297757,99,99,0,0,0,0,0
8,89999,18,80000,82,50000,0,9999,0.100000,99,0,0.023733,14,0.000000,25.295585,0.075312,99,99,0,0,0,0,1
8,89999,19,80000,83,40000,0,9999,0.100000,99,0,4.564975,14,0.000000,13.289590,1.434646,99,99,0,1,0,0,0
8,89999,20,80000,0,0,0,9999,0.100000,99,0,0.033800,14,0.000000,20.188303,0.163521,99,99,0,0,0,1,0
8,89999,21,80000,78,10000,0,9999,0.100000,99,0,0.498236,14,0.000000,28.293421,0.219700,99,99,0,0,0,0,1
8,89999,22,80000,87,60000,40,9999,0.100000,99,0,0.000000,14,0.000000,28.918309,8.291597,99,99,0,0,0,0,0
8,89999,23,80000,83,40000,40,9999,0.100000,99,0,0.000000,14,0.000000,28.775701,1.704922,99,99,0,0,0,0,0
8,89999,24,80000,82,50000,0,9999,0.100000,99,0,0.059773,14,0.000000,19.533211,0.105321,99,99,0,0,0,0,1
8,89999,25,80000,78,20000,40,9999,0.100000,99,0,0.000000,14,0.000000,27.785761,0.569090,99,99,0,0,0,0,0
8,89999,26,80000,78,10000,0,9999,0.100000,99,0,0.328197,14,0.000000,26.670398,0.933867,99,99,0,0,0,0,1
8,89999,27,80000,78,20000,40,9999,0.100000,99,0,0.000000,14,0.000000,24.470521,0.805202,99,99,0,0,0,0,0
8,89999,28,80000,95,20000,0,9999,0.100000,99,0,0.155586,14,0.000000,26.679537,0.298771,99,99,0,0,1,0,0
8,89999,29,80000,72,10000,0,9999,0.100000,99,0,0.003650,14,0.000000,24.630307,0.091806,99,99,0,0,0,1,0
8,89999,30,80000,82,50000,40,9999,0.100000,99,0,0.000000,14,0.000000,32.606300,8.948484,99,99,0,0,0,0,0
8,89999,31,80000,45,40000,0,9999,0.100000,99,0,1.815166,14,0.000000,32.557063,0.726128,99,99,0,0,0,0,1
8,89999,32,80000,78,20000,40,9999,0.100000,99,0,0.000000,14,0.000000,27.683242,0.522223,99,99,0,0,0,0,0
8,89999,33,80000,30,10000,41,9999,0.100000,99,0,0.000000,14,3.000000,27.005912,9.073902,99,99,0,0,0,0,0
8,89999,34,80000,95,20000,0,9999,0.100000,99,0,0.025522,14,0.000000,21.818096,0.144590,99,99,0,0,1,0,0
8,89999,35,80000,83,30000,40,9999,0.100000,99,0,0.000000,14,0.000000,20.154446,1.011215,99,99,0,0,0,0,0
8,89999,36,80000,83,30000,0,9999,0.100000,99,0,0.296918,14,0.000000,23.247688,0.222123,99,99,0,0,0,1,0
8,89999,37,80000,0,0,40,9999,0.100000,99,0,0.000000,14,0.000000,31.246123,1.023845,99,99,0,0,0,0,0
8,89999,38,80000,30,10000,40,9999,0.100000,99,0,0.000000,14,0.000000,30.974343,0.989879,99,99,0,0,0,0,0
8,89999,39,80000,83,30000,42,9999,0.100000,99,0,0.000000,14,7.000000,29.623237,15.620718,99,99,0,0,0,0,0
8,89999,40,80000,83,30000,40,9999,0.100000,99,0,0.000000,14,0.000000,26.541824,0.499746,99,99,0,0,0,0,0
8,89999,41,80000,83,40000,0,9999,0.100000,99,0,0.091284,14,0.000000,24.362401,0.115125,99,99,0,0,0,0,1
8,89999,42,80000,82,60000,0,9999,0.100000,99,0,2.809613,14,0.000000,31.747817,0.940406,99,99,0,0,0,0,1
8,89999,43,80000,82,60000,40,9999,0.100000,99,0,0.000000,14,0.000000,23.057710,0.322132,99,99,0,0,0,0,0
8,89999,44,80000,45,40000,0,9999,0.100000,99,0,0.000566,14,0.000000,28.809815,0.075818,99,99,0,0,0,0,1
8,89999,45,80000,78,20000,43,9999,0.100000,99,0,0.000000,14,7.000000,17.895225,15.427626,99,99,0,0,0,0,0
8,89999,46,80000,0,0,0,9999,0.100000,99,0,0.009644,14,0.000000,21.568786,1.984812,99,99,0,0,0,0,1
8,89999,47,80000,82,50000,40,9999,0.100000,99,0,0.000000,14,0.000000,22.406354,0.263001,99,99,0,0,0,0,0
8,89999,48,80000,72,10000,0,9999,0.100000,99,0,0.118477,14,0.000000,22.175614,0.219480,99,99,0,0,1,0,0
8,89999,49,80000,45,40000,40,9999,0.100000,99,0,0.000000,14,0.000000,19.901587,0.207123,99,99,0,0,0,0,0
8,89999,50,80000,83,40000,0,9999,0.100000,99,0,0.038201,14,0.000000,23.259186,0.668592,99,99,0,0,0,0,1
8,89999,51,80000,78,10000,40,9999,0.100000,99,0,0.000000,14,0.000000,23.244651,1.844324,99,99,0,0,0,0,0
8,89999,52,80000,83,30000,40,9999,0.100000,99,0,0.000000,14,0.000000,28.723829,0.344264,99,99,0,0,0,0,0
8,89999,53,80000,78,20000,0,9999,0.100000,99,0,0.027707,14,0.000000,30.866133,0.095017,99,99,0,0,0,0,1
8,89999,54,80000,11,30000,0,9999,0.100000,99,0,0.002070,14,0.000000,26.657827,0.066546,99,99,0,0,0,0,1
8,89999,55,80000,87,60000,40,9999,0.100000,99,0,0.000000,14,0.000000,20.676686,0.481179,99,99,0,0,0,0,0
8,89999,56,80000,72,10000,40,9999,0.100000,99,0,0.000000,14,0.000000,28.709265,0.050767,99,99,0,0,0,0,0
8,89999,57,80000,95,20000,40,9999,0.100000,99,0,0.000000,14,0.000000,24.449625,0.500180,99,99,0,0,0,0,0
8,89999,58,80000,78,10000,40,9999,0.100000,99,0,0.000000,14,0.000000,31.495909,0.178040,99,99,0,0,0,0,0
8,89999,59,80000,0,0,40,9999,0.100000,99,0,0.000000,14,0.000000,31.589631,8.319187,99,99,0,0,0,0,0
8,89999,60,80000,83,40000,1,9999,0.100000,99,0,0.492918,14,4.000000,29.392229,9.543716,99,99,0,0,1,0,0
8,89999,61,80000,0,0,40,9999,0.100000,99,0,0.000000,14,0.000000,32.674471,0.883269,99,99,0,0,0,0,0
8,89999,62,80000,30,10000,40,9999,0.100000,99,0,0.000000,14,0.000000,28.520501,0.423988,99,99,0,0,0,0,0
8,89999,63,80000,83,30000,42,9999,0.100000,99,0,0.000000,14,7.000000,29.952038,20.822259,99,99,0,0,0,0,0
8,89999,64,80000,95,20000,0,9999,0.100000,99,0,0.742487,14,0.000000,19.327481,0.199461,99,99,0,0,0,0,1
8,89999,65,80000,83,40000,40,9999,0.100000,99,0,0.000000,14,0.000000,30.032950,0.162524,99,99,0,0,0,0,0
8,89999,66,80000,82,60000,43,9999,0.100000,99,0,0.000000,14,8.000000,19.734925,20.119518,99,99,0,0,0,0,0
8,89999,67,80000,82,60000,40,9999,0.100000,99,0,0.000000,14,0.000000,31.938258,0.991655,99,99,0,0,0,0,0
8,89999,68,80000,0,0,40,9999,0.100000,99,0,0.000000,14,0.000000,11.789464,0.177702,99,99,0,0,0,0,0
8,89999,69,80000,82,60000,0,9999,0.100000,99,0,0.365754,14,0.000000,20.615158,0.234454,99,99,0,0,0,0,1
8,89999,70,80000,82,60000,40,9999,0.100000,99,0,0.000000,14,0.000000,22.405547,15.690959,99,99,0,0,0,0,0
8,89999,71,80000,95,20000,40,9999,0.100000,99,0,0.000000,14,0.000000,21.359105,1.777390,99,99,0,0,0,0,0
8,89999,72,80000,83,40000,40,9999,0.100000,99,0,0.000000,14,0.000000,30.912106,7.230204,99,99,0,0,0,0,0
8,89999,73,80000,95,20000,0,9999,0.100000,99,0,0.008716,14,0.000000,24.170358,0.148544,99,99,0,0,0,1,0
8,89999,74,80000,95,20000,42,9999,0.100000,99,0,0.000000,14,6.000000,26.797076,16.839359,99,99,0,0,0,0,0
8,89999,75,80000,78,20000,40,9999,0.100000,99,0,0.000000,14,0.000000,16.034353,0.733120,99,99,0,0,0,0,0
8,89999,76,80000,72,10000,40,9999,0.100000,99,0,0.000000,14,0.000000,26.301785,0.149368,99,99,0,0,0,0,0
8,89999,77,80000,87,60000,0,9999,0.100000,99,0,0.001829,14,0.000000,18.563936,0.125794,99,99,0,0,0,0,1
8,89999,78,80000,95,20000,40,9999,0.100000,99,0,0.000000,14,3.000000,32.708238,8.174158,99,99,0,0,0,0,0
8,89999,79,80000,45,40000,40,9999,0.100000,99,0,0.000000,14,0.000000,31.333917,0.106737,99,99,0,0,0,0,0
8,89999,80,80000,78,10000,40,9999,0.100000,99,0,0.000000,14,0.000000,17.129210,0.455153,99,99,0,0,0,0,0
8,89999,81,80000,82,50000,0,9999,0.100000,99,0,0.131234,14,0.000000,24.926906,0.131574,99,99,0,0,0,0,1
8,89999,82,80000,45,40000,40,9999,0.100000,99,0,0.000000,14,0.000000,13.572337,0.921848,99,99,0,0,0,0,0
8,89999,83,80000,82,50000,40,9999,0.135000,99,0,0.000000,14,0.000000,18.758746,0.426811,99,99,0,0,0,0,0
8,89999,84,80000,82,50000,40,9999,0.100000,99,0,0.000000,14,0.000000,30.974633,0.199287,99,99,0,0,0,0,0
8,89999,85,80000,82,50000,40,9999,0.100000,99,0,0.000000,14,0.000000,26.479985,0.110808,99,99,0,0,0,0,0
8,89999,86,80000,95,20000,40,9999,0.100000,99,0,0.000000,14,0.000000,25.212849,0.086955,99,99,0,0,0,0,0
8,89999,87,80000,45,40000,40,9999,0.100000,99,0,0.000000,14,1.000000,13.418277,1.223855,99,99,0,0,0,0,0
8,89999,88,80000,83,30000,40,9999,0.100000,99,0,0.000000,14,0.000000,10.331822,0.178532,99,99,0,0,0,0,0
8,89999,89,80000,83,30000,0,9999,0.100000,99,0,0.000998,14,0.000000,17.752383,0.066658,99,99,0,0,0,0,1
8,89999,90,80000,45,40000,41,9999,0.100000,99,0,0.000000,14,5.000000,26.328749,24.038986,99,99,0,0,0,0,0
8,89999,91,80000,95,20000,40,9999,0.100000,99,0,0.000000,14,0.000000,23.098527,0.131779,99,99,0,0,0,0,0
8,89999,92,80000,88,30000,40,9999,0.100000,99,0,0.000000,14,0.000000,16.196602,0.789621,99,99,0,0,0,0,0
8,89999,93,80000,0,0,40,9999,0.100000,99,0,0.000000,14,0.000000,15.771329,0.869660,99,99,0,0,0,0,0
8,89999,94,80000,78,20000,40,9999,0.100000,99,0,0.000000,14,0.000000,21.819001,0.181782,99,99,0,0,0,0,0
8,89999,95,80000,83,30000,40,9999,0.100000,99,0,0.000000,14,1.000000,12.511849,14.590086,99,99,0,0,0,0,0
8,89999,96,80000,87,60000,40,9999,0.100000,99,0,0.000000,14,0.000000,24.268225,0.106505,99,99,0,0,0,0,0
8,89999,97,80000,78,10000,40,9999,0.100000,99,0,0.000000,14,0.000000,23.031207,0.078228,99,99,0,0,0,0,0
8,89999,98,80000,88,30000,40,9999,0.100000,99,0,0.000000,14,0.000000,16.954802,0.069446,99,99,0,0,0,0,0
8,89999,99,80000,83,30000,40,9999,0.100000,99,0,0.000000,14,0.000000,18.820646,0.124526,99,99,0,0,0,0,0
9,99999,0,90000,82,50000,40,9999,0.100000,99,0,0.000000,14,0.000000,23.406285,0.286997,99,99,0,0,0,0,0
9,99999,1,90000,88,30000,40,9999,0.100000,99,0,0.000000,14,0.000000,27.643028,4.181226,99,99,0,0,0,0,0
9,99999,2,90000,78,20000,0,9999,0.100000,99,0,0.000678,14,1.000000,20.914503,4.915843,99,99,0,0,0,0,1
9,99999,3,90000,95,20000,40,9999,0.100000,99,0,0.000000,14,0.000000,15.343548,16.007072,99,99,0,0,0,0,0
9,99999,4,90000,83,30000,0,9999,0.135000,99,0,0.058531,14,0.000000,14.896735,0.148063,99,99,0,0,0,0,1
9,99999,5,90000,72,10000,0,9999,0.100000,99,0,1.517138,14,0.000000,32.205907,1.585770,99,99,0,1,0,0,0
9,99999,6,90000,88,30000,0,9999,0.100000,99,0,0.146125,14,0.000000,16.286075,0.550406,99,99,0,0,0,0,1
9,99999,7,90000,0,0,40,9999,0.100000,99,0,0.000000,14,0.000000,28.453459,0.578627,99,99,0,0,0,0,0
9,99999,8,90000,83,30000,40,9999,0.100000,99,0,0.000000,14,0.000000,15.870043,0.414038,99,99,0,0,0,0,0
9,99999,9,90000,82,50000,0,9999,0.100000,99,0,0.036878,14,0.000000,29.397348,0.303963,99,99,0,0,0,0,1
9,99999,10,90000,45,40000,0,9999,0.100000,99,0,0.367497,14,0.000000,22.076376,0.302874,99,99,0,0,1,0,0
9,99999,11,90000,83,30000,40,9999,0.100000,99,0,0.000000,14,0.000000,28.032880,6.680613,99,99,0,0,0,0,0
9,99999,12,90000,83,30000,0,9999,0.100000,99,0,0.003064,14,0.000000,22.610650,0.100859,99,99,0,0,0,0,1
9,99999,13,90000,78,20000,40,9999,0.100000,99,0,0.000000,14,0.000000,26.650139,1.064982,99,99,0,0,0,0,0
9,99999,14,90000,78,10000,40,9999,0.100000,99,0,0.000000,14,0.000000,30.202817,9.494222,99,99,0,0,0,0,0
9,99999,15,90000,88,30000,40,9999,0.100000,99,0,0.000000,14,0.000000,28.787166,0.479402,99,99,0,0,0,0,0
9,99999,16,90000,78,10000,40,9999,0.100000,99,0,0.000000,14,0.000000,28.805130,1.129013,99,99,0,0,0,0,0
9,99999,17,90000,0,0,40,9999,0.100000,99,0,0.000000,14,0.000000,25.186241,0.282057,99,99,0,0,0,0,0
9,99999,18,90000,83,40000,0,9999,0.100000,99,0,0.036935,14,0.000000,25.290752,0.078657,99,99,0,0,0,0,1
9,99999,19,90000,78,20000,1,9999,0.100000,99,0,11.204150,14,2.000000,14.245767,2.989104,99,99,0,1,0,0,0
9,99999,20,90000,82,60000,0,9999,0.100000,99,0,0.021328,14,0.000000,20.178718,0.164106,99,99,0,0,0,1,0
9,99999,21,90000,95,20000,2,9999,0.100000,99,0,0.541176,14,6.000000,28.266145,13.297938,99,99,0,0,0,0,1
9,99999,22,90000,11,30000,40,9999,0.100000,99,0,0.000000,14,0.000000,28.928583,8.159573,99,99,0,0,0,0,0
9,99999,23,90000,95,20000,40,9999,0.100000,99,0,0.000000,14,0.000000,28.922658,1.420782,99,99,0,0,0,0,0
9,99999,24,90000,83,40000,40,9999,0.100000,99,0,0.000000,14,0.000000,19.532027,0.155258,99,99,0,0,0,0,0
9,99999,25,90000,11,30000,40,9999,0.100000,99,0,0.000000,14,0.000000,27.769756,0.739538,99,99,0,0,0,0,0
9,99999,26,90000,30,10000,0,9999,0.100000,99,0,0.353152,14,0.000000,26.657289,0.877443,99,99,0,0,0,0,1
9,99999,27,90000,30,10000,40,9999,0.100000,99,0,0.000000,14,0.000000,24.415450,0.967808,99,99,0,0,0,0,0
9,99999,28,90000,87,60000,0,9999,0.100000,99,0,0.416607,14,2.000000,26.632254,2.780660,99,99,0,0,1,0,0
9,99999,29,90000,83,30000,0,9999,0.100000,99,0,0.004568,14,1.000000,24.630107,2.245065,99,99,0,0,0,1,0
9,99999,30,90000,83,40000,40,9999,0.100000,99,0,0.000000,14,0.000000,32.631761,6.473841,99,99,0,0,0,0,0
9,99999,31,90000,83,40000,40,9999,0.100000,99,0,0.000000,14,0.000000,32.871590,1.336433,99,99,0,0,0,0,0
9,99999,32,90000,30,10000,40,9999,0.100000,99,0,0.000000,14,0.000000,27.583312,0.330564,99,99,0,0,0,0,0
9,99999,33,90000,0,0,40,9999,0.100000,99,0,0.000000,14,0.000000,29.836789,0.107404,99,99,0,0,0,0,0
9,99999,34,90000,78,20000,0,9999,0.100000,99,0,0.080554,14,0.000000,21.811340,0.153226,99,99,0,0,1,0,0
9,99999,35,90000,78,20000,40,9999,0.100000,99,0,0.000000,14,0.000000,20.152682,0.390358,99,99,0,0,0,0,0
9,99999,36,90000,45,40000,0,9999,0.100000,99,0,0.306888,14,0.000000,23.083813,0.222376,99,99,0,0,0,1,0
9,99999,37,90000,30,10000,40,9999,0.100000,99,0,0.000000,14,0.000000,31.145431,2.235825,99,99,0,0,0,0,0
9,99999,38,90000,83,40000,40,9999,0.100000,99,0,0.000000,14,0.000000,30.954032,0.520879,99,99,0,0,0,0,0
9,99999,39,90000,82,60000,40,9999,0.100000,99,0,0.000000,14,0.000000,29.631682,0.348430,99,99,0,0,0,0,0
9,99999,40,90000,83,30000,40,9999,0.100000,99,0,0.000000,14,1.000000,26.420751,7.182218,99,99,0,0,0,0,0
9,99999,41,90000,82,60000,0,9999,0.100000,99,0,0.096478,14,0.000000,24.292479,0.115992,99,99,0,0,0,0,1
9,99999,42,90000,72,10000,40,9999,0.100000,99,0,0.000000,14,0.000000,31.621151,2.582339,99,99,0,0,0,0,0
9,99999,43,90000,45,40000,40,9999,0.100000,99,0,0.000000,14,0.000000,23.057307,0.359490,99,99,0,0,0,0,0
9,99999,44,90000,78,20000,0,9999,0.100000,99,0,0.000313,14,0.000000,28.810653,0.073456,99,99,0,0,0,0,1
9,99999,45,90000,78,10000,0,9999,0.100000,99,0,0.140770,14,0.000000,17.867467,0.090760,99,99,0,0,0,0,1
9,99999,46,90000,11,30000,0,9999,0.100000,99,0,0.298757,14,0.000000,21.313130,1.526874,99,99,0,0,0,0,1
9,99999,47,90000,82,50000,40,9999,0.100000,99,0,0.000000,14,0.000000,22.412155,0.114085,99,99,0,0,0,0,0
9,99999,48,90000,0,0,40,9999,0.100000,99,0,0.000000,14,0.000000,22.180198,0.352603,99,99,0,0,0,0,0
9,99999,49,90000,95,20000,0,9999,0.100000,99,0,2.556360,14,0.000000,19.868771,3.161209,99,99,0,0,0,0,1
9,99999,50,90000,78,10000,0,9999,0.100000,99,0,0.041932,14,0.000000,23.256774,0.906701,99,99,0,0,0,0,1
9,99999,51,90000,87,60000,40,9999,0.100000,99,0,0.000000,14,0.000000,23.187110,1.332774,99,99,0,0,0,0,0
9,99999,52,90000,78,10000,40,9999,0.100000,99,0,0.000000,14,0.000000,28.692109,0.344123,99,99,0,0,0,0,0
9,99999,53,90000,88,30000,0,9999,0.100000,99,0,0.219439,14,0.000000,30.861309,0.131304,99,99,0,0,0,0,1
9,99999,54,90000,82,60000,0,9999,0.100000,99,0,0.001607,14,0.000000,26.659329,0.066523,99,99,0,0,0,0,1
9,99999,55,90000,45,40000,40,9999,0.100000,99,0,0.000000,14,0.000000,20.630102,0.674914,99,99,0,0,0,0,0
9,99999,56,90000,30,10000,40,9999,0.100000,99,0,0.000000,14,0.000000,28.713047,0.062864,99,99,0,0,0,0,0
9,99999,57,90000,0,0,40,9999,0.100000,99,0,0.000000,14,0.000000,24.440373,0.748339,99,99,0,0,0,0,0
9,99999,58,90000,78,20000,40,9999,0.100000,99,0,0.000000,14,0.000000,31.497178,0.572623,99,99,0,0,0,0,0
9,99999,59,90000,72,10000,40,9999,0.100000,99,0,0.000000,14,1.000000,31.462723,12.139361,99,99,0,0,0,0,0
9,99999,60,90000,83,30000,0,9999,0.100000,99,0,0.508758,14,0.000000,29.415905,0.170831,99,99,0,0,1,0,0
9,99999,61,90000,82,60000,40,9999,0.100000,99,0,0.000000,14,0.000000,32.210274,1.485245,99,99,0,0,0,0,0
9,99999,62,90000,45,40000,40,9999,0.100000,99,0,0.000000,14,0.000000,28.488307,0.378644,99,99,0,0,0,0,0
9,99999,63,90000,72,10000,40,9999,0.100000,99,0,0.000000,14,0.000000,29.917149,3.203504,99,99,0,0,0,0,0
9,99999,64,90000,82,50000,40,9999,0.100000,99,0,0.000000,14,0.000000,19.428608,0.957749,99,99,0,0,0,0,0
9,99999,65,90000,88,30000,40,9999,0.100000,99,0,0.000000,14,0.000000,30.032664,0.164498,99,99,0,0,0,0,0
9,99999,66,90000,0,0,40,9999,0.100000,99,0,0.000000,14,2.000000,27.994239,5.757813,99,99,0,0,0,0,0
9,99999,67,90000,78,20000,40,9999,0.100000,99,0,0.000000,14,0.000000,31.795736,2.247672,99,99,0,0,0,0,0
9,99999,68,90000,72,10000,40,9999,0.100000,99,0,0.000000,14,0.000000,11.789381,0.186167,99,99,0,0,0,0,0
9,99999,69,90000,88,30000,0,9999,0.100000,99,0,0.290589,14,0.000000,20.567379,0.359381,99,99,0,0,0,0,1
9,99999,70,90000,95,20000,40,9999,0.100000,99,0,0.000000,14,0.000000,22.405133,13.873378,99,99,0,0,0,0,0
9,99999,71,90000,87,60000,40,9999,0.100000,99,0,0.000000,14,0.000000,20.897168,0.927901,99,99,0,0,0,0,0
9,99999,72,90000,0,0,40,9999,0.100000,99,0,0.000000,14,1.000000,30.765339,7.989530,99,99,0,0,0,0,0
9,99999,73,90000,30,10000,0,9999,0.100000,99,0,0.021172,14,0.000000,24.175384,0.159119,99,99,0,0,0,1,0
9,99999,74,90000,78,10000,40,9999,0.100000,99,0,0.000000,14,2.000000,26.525482,5.319939,99,99,0,0,0,0,0
9,99999,75,90000,0,0,40,9999,0.100000,99,0,0.000000,14,0.000000,15.998737,0.502695,99,99,0,0,0,0,0
9,99999,76,90000,0,0,40,9999,0.100000,99,0,0.000000,14,0.000000,26.299247,0.158859,99,99,0,0,0,0,0
9,99999,77,90000,78,10000,40,9999,0.100000,99,0,0.000000,14,0.000000,18.534831,0.145369,99,99,0,0,0,0,0
9,99999,78,90000,30,10000,40,9999,0.100000,99,0,0.000000,14,1.000000,32.286544,1.690658,99,99,0,0,0,0,0
9,99999,79,90000,78,20000,40,9999,0.100000,99,0,0.000000,14,0.000000,31.333751,0.167890,99,99,0,0,0,0,0
9,99999,80,90000,83,30000,40,9999,0.100000,99,0,0.000000,14,0.000000,17.204901,0.478145,99,99,0,0,0,0,0
9,99999,81,90000,11,30000,0,9999,0.100000,99,0,0.140827,14,0.000000,24.853057,0.121131,99,99,0,0,0,0,1
9,99999,82,90000,82,50000,42,9999,0.100000,99,0,0.000000,14,4.000000,14.368133,14.181829,99,99,0,0,0,0,0
9,99999,83,90000,95,20000,40,9999,0.100000,99,0,0.000000,14,1.000000,18.943616,1.903538,99,99,0,0,0,0,0
9,99999,84,90000,78,20000,40,9999,0.100000,99,0,0.000000,14,0.000000,30.974324,0.191194,99,99,0,0,0,0,0
9,99999,85,90000,78,10000,40,9999,0.100000,99,0,0.000000,14,0.000000,26.481297,0.110606,99,99,0,0,0,0,0
9,99999,86,90000,0,0,40,9999,0.100000,99,0,0.000000,14,0.000000,25.212584,0.086155,99,99,0,0,0,0,0
9,99999,87,90000,78,20000,40,9999,0.100000,99,0,0.000000,14,1.000000,14.496895,2.472166,99,99,0,0,0,0,0
9,99999,88,90000,83,30000,40,9999,0.100000,99,0,0.000000,14,0.000000,10.280776,0.132802,99,99,0,0,0,0,0
9,99999,89,90000,95,20000,0,9999,0.100000,99,0,0.000704,14,0.000000,17.751649,0.066652,99,99,0,0,0,0,1
9,99999,90,90000,88,30000,40,9999,0.100000,99,0,0.000000,14,1.000000,26.112957,2.239391,99,99,0,0,0,0,0
9,99999,91,90000,11,30000,40,9999,0.100000,99,0,0.000000,14,0.000000,23.100983,0.117552,99,99,0,0,0,0,0
9,99999,92,90000,78,10000,40,9999,0.100000,99,0,0.000000,14,0.000000,16.146689,0.829729,99,99,0,0,0,0,0
9,99999,93,90000,78,10000,40,9999,0.100000,99,0,0.000000,14,0.000000,15.754851,0.662409,99,99,0,0,0,0,0
9,99999,94,90000,78,20000,40,9999,0.100000,99,0,0.000000,14,0.000000,21.812988,0.230727,99,99,0,0,0,0,0
9,99999,95,90000,88,30000,44,9999,0.100000,99,0,0.000000,14,7.000000,13.502186,14.652044,99,99,0,0,0,0,0
9,99999,96,90000,83,40000,40,9999,0.100000,99,0,0.000000,14,0.000000,24.268491,0.118268,99,99,0,0,0,0,0
9,99999,97,90000,78,20000,40,9999,0.100000,99,0,0.000000,14,0.000000,23.037452,0.074159,99,99,0,0,0,0,0
9,99999,98,90000,78,20000,40,9999,0.100000,99,0,0.000000,14,0.000000,16.954491,0.067988,99,99,0,0,0,0,0
9,99999,99,90000,83,40000,40,9999,0.100000,99,0,0.000000,14,0.000000,18.790644,0.184257,99,99,0,0,0,0,0
10,109999,0,100000,11,30000,40,9999,0.100000,99,0,0.000000,14,0.000000,23.242255,0.300582,99,99,0,0,0,0,0
10,109999,1,100000,83,40000,40,9999,0.100000,99,0,0.000000,14,0.000000,27.668269,3.531924,99,99,0,0,0,0,0
10,109999,2,100000,11,30000,0,9999,0.100000,99,0,0.621068,14,0.000000,20.239900,0.163629,99,99,0,0,0,0,1
10,109999,3,100000,45,40000,40,9999,0.100000,99,0,0.000000,14,0.000000,15.648802,17.653325,99,99,0,0,0,0,0
10,109999,4,100000,83,30000,0,9999,0.100000,99,0,0.003538,14,0.000000,14.888244,0.147298,99,99,0,0,0,0,1
10,109999,5,100000,83,30000,0,9999,0.100000,99,0,0.040164,14,0.000000,31.440166,1.192704,99,99,0,1,0,0,0
10,109999,6,100000,30,10000,40,9999,0.100000,99,0,0.000000,14,0.000000,16.260861,0.664852,99,99,0,0,0,0,0
10,109999,7,100000,83,30000,40,9999,0.100000,99,0,0.000000,14,0.000000,28.412731,2.406650,99,99,0,0,0,0,0
10,109999,8,100000,87,60000,0,9999,0.100000,99,0,1.468935,14,0.000000,15.881090,0.559433,99,99,0,0,0,0,1
10,109999,9,100000,82,60000,0,9999,0.100000,99,0,0.124019,14,0.000000,29.363570,0.096786,99,99,0,0,0,0,1
10,109999,10,100000,45,40000,0,9999,0.100000,99,0,1.120907,15,0.000000,22.024337,0.351982,99,99,0,0,1,0,0
10,109999,11,100000,87,60000,40,9999,0.100000,99,0,0.000000,14,2.000000,28.070429,20.639038,99,99,0,0,0,0,0
10,109999,12,100000,82,50000,0,9999,0.100000,99,0,1.591030,14,0.000000,22.614286,0.569103,99,99,0,0,0,0,1
10,109999,13,100000,11,30000,40,9999,0.100000,99,0,0.000000,14,0.000000,26.641730,1.319527,99,99,0,0,0,0,0
10,109999,14,100000,83,30000,40,9999,0.100000,99,0,0.000000,14,0.000000,30.685091,7.640557,99,99,0,0,0,0,0
10,109999,15,100000,0,0,40,9999,0.100000,99,0,0.000000,15,0.000000,28.748178,4.304071,99,99,0,0,0,0,0
10,109999,16,100000,72,10000,40,9999,0.100000,99,0,0.000000,14,0.000000,28.831339,1.563873,99,99,0,0,0,0,0
10,109999,17,100000,78,20000,40,9999,0.100000,99,0,0.000000,14,0.000000,25.129898,0.253839,99,99,0,0,0,0,0
10,109999,18,100000,63,80000,0,9999,0.100000,99,0,0.019542,14,0.000000,25.280583,0.088425,99,99,0,0,0,0,1
10,109999,19,100000,83,40000,1,9999,0.100000,99,0,15.094852,14,2.000000,16.537174,4.786802,99,99,0,1,0,0,0
10,109999,20,100000,72,10000,0,9999,0.100000,99,0,0.838209,14,0.000000,20.176702,0.281551,99,99,0,0,0,1,0
10,109999,21,100000,82,50000,0,9999,0.100000,99,0,0.506215,15,0.000000,28.230834,0.339207,99,99,0,0,0,0,1
10,109999,22,100000,82,60000,40,9999,0.100000,99,0,0.000000,14,0.000000,28.911635,8.390418,99,99,0,0,0,0,0
10,109999,23,100000,0,0,40,9999,0.100000,99,0,0.000000,14,0.000000,28.964625,1.714540,99,99,0,0,0,0,0
10,109999,24,100000,88,30000,40,9999,0.100000,99,0,0.000000,14,0.000000,19.523505,0.165620,99,99,0,0,0,0,0
10,109999,25,100000,88,30000,40,9999,0.100000,99,0,0.000000,14,0.000000,27.742569,0.545398,99,99,0,0,0,0,0
10,109999,26,100000,82,50000,0,9999,0.100000,99,0,0.417099,14,0.000000,26.651942,0.822146,99,99,0,0,0,0,1
10,109999,27,100000,78,10000,40,9999,0.100000,99,0,0.000000,14,0.000000,24.338992,0.986973,99,99,0,0,0,0,0
10,109999,28,100000,78,10000,0,9999,0.100000,99,0,0.119444,14,0.000000,25.644584,0.263879,99,99,0,0,1,0,0
10,109999,29,100000,63,80000,0,9999,0.100000,99,0,0.003520,14,0.000000,24.629907,0.090053,99,99,0,0,0,1,0
10,109999,30,100000,30,10000,41,9999,0.100000,99,0,0.000000,14,4.000000,32.699688,12.572468,99,99,0,0,0,0,0
10,109999,31,100000,0,0,40,9999,0.100000,99,0,0.000000,14,1.000000,32.731191,4.806735,99,99,0,0,0,0,0
10,109999,32,100000,63,80000,40,9999,0.100000,99,0,0.000000,14,0.000000,27.605905,0.531824,99,99,0,0,0,0,0
10,109999,33,100000,72,10000,40,9999,0.100000,99,0,0.000000,14,0.000000,29.841308,0.113265,99,99,0,0,0,0,0
10,109999,34,100000,45,40000,0,9999,0.100000,99,0,1.273626,14,0.000000,21.789781,0.451985,99,99,0,0,1,0,0
10,109999,35,100000,88,30000,40,9999,0.100000,99,0,0.000000,14,0.000000,19.986008,0.142238,99,99,0,0,0,0,0
10,109999,36,100000,30,10000,0,9999,0.100000,99,0,0.343190,14,0.000000,22.919006,0.238658,99,99,0,0,0,1,0
10,109999,37,100000,11,30000,40,9999,0.100000,99,0,0.000000,14,0.000000,31.275105,1.471137,99,99,0,0,0,0,0
10,109999,38,100000,63,80000,40,9999,0.100000,99,0,0.000000,14,0.000000,31.085272,0.387909,99,99,0,0,0,0,0
10,109999,39,100000,88,30000,40,9999,0.100000,99,0,0.000000,14,0.000000,29.598120,0.109618,99,99,0,0,0,0,0
10,109999,40,100000,0,0,40,9999,0.100000,99,0,0.000000,14,0.000000,25.448224,2.796137,99,99,0,0,0,0,0
10,109999,41,100000,78,10000,0,9999,0.100000,99,0,0.108944,14,0.000000,24.218828,0.122328,99,99,0,0,0,0,1
10,109999,42,100000,78,10000,40,9999,0.100000,99,0,0.000000,14,0.000000,31.709315,0.965264,99,99,0,0,0,0,0
10,109999,43,100000,72,10000,40,9999,0.100000,99,0,0.000000,14,0.000000,23.050347,0.523017,99,99,0,0,0,0,0
10,109999,44,100000,63,80000,0,9999,0.100000,99,0,0.000428,14,0.000000,28.811485,0.071667,99,99,0,0,0,0,1
10,109999,45,100000,72,10000,0,9999,0.100000,99,0,0.039692,14,0.000000,17.854167,0.079462,99,99,0,0,0,0,1
10,109999,46,100000,72,10000,0,9999,0.100000,99,0,0.046552,14,0.000000,21.265116,0.929767,99,99,0,0,0,0,1
10,109999,47,100000,82,50000,40,9999,0.100000,99,0,0.000000,14,0.000000,22.413229,0.690502,99,99,0,0,0,0,0
10,109999,48,100000,83,30000,40,9999,0.100000,99,0,0.000000,14,0.000000,22.134951,0.456905,99,99,0,0,0,0,0
10,109999,49,100000,88,30000,0,9999,0.100000,99,0,0.611504,14,0.000000,20.285723,0.951681,99,99,0,0,0,0,1
10,109999,50,100000,78,10000,0,9999,0.100000,99,0,0.042671,14,0.000000,23.251204,0.738164,99,99,0,0,0,0,1
10,109999,51,100000,83,30000,40,9999,0.100000,99,0,0.000000,14,0.000000,23.180335,2.450216,99,99,0,0,0,0,0
10,109999,52,100000,63,80000,40,9999,0.100000,99,0,0.000000,14,0.000000,28.653600,0.236780,99,99,0,0,0,0,0
10,109999,53,100000,87,60000,0,9999,0.135000,99,0,0.320448,14,0.000000,30.784032,0.157031,99,99,0,0,0,0,1
10,109999,54,100000,83,30000,0,9999,0.100000,99,0,0.002257,14,0.000000,26.660632,0.067004,99,99,0,0,0,0,1
10,109999,55,100000,83,30000,40,9999,0.100000,99,0,0.000000,14,0.000000,20.587892,1.028548,99,99,0,0,0,0,0
10,109999,56,100000,78,10000,40,9999,0.100000,99,0,0.000000,14,0.000000,28.728247,0.069249,99,99,0,0,0,0,0
10,109999,57,100000,88,30000,40,9999,0.100000,99,0,0.000000,14,0.000000,24.427072,1.762818,99,99,0,0,0,0,0
10,109999,58,100000,88,30000,40,9999,0.100000,99,0,0.000000,14,0.000000,31.442591,0.156425,99,99,0,0,0,0,0
10,109999,59,100000,82,60000,40,9999,0.100000,99,0,0.000000,14,1.000000,31.365338,10.101952,99,99,0,0,0,0,0
10,109999,60,100000,11,30000,0,9999,0.100000,99,0,0.287704,14,0.000000,29.439115,0.188326,99,99,0,0,1,0,0
10,109999,61,100000,78,10000,40,9999,0.100000,99,0,0.000000,14,0.000000,31.566559,1.020223,99,99,0,0,0,0,0
10,109999,62,100000,72,10000,40,9999,0.100000,99,0,0.000000,14,0.000000,28.449687,0.200195,99,99,0,0,0,0,0
10,109999,63,100000,72,10000,40,9999,0.100000,99,0,0.000000,14,0.000000,29.868802,6.739538,99,99,0,0,0,0,0
10,109999,64,100000,63,80000,40,9999,0.100000,99,0,0.000000,14,0.000000,20.189332,1.698695,99,99,0,0,0,0,0
10,109999,65,100000,72,10000,40,9999,0.100000,99,0,0.000000,14,0.000000,30.032408,0.178799,99,99,0,0,0,0,0
10,109999,66,100000,30,10000,40,9999,0.100000,99,0,0.000000,14,2.000000,25.689642,12.587117,99,99,0,0,0,0,0
10,109999,67,100000,72,10000,40,9999,0.100000,99,0,0.000000,14,0.000000,31.550303,2.485740,99,99,0,0,0,0,0
10,109999,68,100000,72,10000,40,9999,0.100000,99,0,0.000000,14,0.000000,11.789988,0.183730,99,99,0,0,0,0,0
10,109999,69,100000,78,10000,0,9999,0.100000,99,0,0.231968,14,0.000000,20.523685,0.452228,99,99,0,0,0,0,1
10,109999,70,100000,83,40000,40,9999,0.100000,99,0,0.000000,14,0.000000,22.210188,0.570766,99,99,0,0,0,0,0
10,109999,71,100000,11,30000,40,9999,0.100000,99,0,0.000000,14,0.000000,21.040979,0.349050,99,99,0,0,0,0,0
10,109999,72,100000,0,0,40,9999,0.100000,99,0,0.000000,14,0.000000,30.250753,6.683795,99,99,0,0,0,0,0
10,109999,73,100000,88,30000,40,9999,0.135000,99,0,0.000000,14,0.000000,24.174121,0.193378,99,99,0,0,0,0,0
10,109999,74,100000,88,30000,40,9999,0.100000,99,0,0.000000,14,0.000000,25.455414,0.395803,99,99,0,0,0,0,0
10,109999,75,100000,82,60000,40,9999,0.100000,99,0,0.000000,14,0.000000,15.999094,0.555265,99,99,0,0,0,0,0
10,109999,76,100000,88,30000,40,9999,0.100000,99,0,0.000000,14,0.000000,26.302028,0.357602,99,99,0,0,0,0,0
10,109999,77,100000,83,40000,40,9999,0.100000,99,0,0.000000,14,0.000000,18.524240,0.114198,99,99,0,0,0,0,0
10,109999,78,100000,78,20000,40,9999,0.100000,99,0,0.000000,14,0.000000,31.255027,0.689184,99,99,0,0,0,0,0
10,109999,79,100000,83,40000,40,9999,0.100000,99,0,0.000000,14,0.000000,31.276278,0.171562,99,99,0,0,0,0,0
10,109999,80,100000,45,40000,40,9999,0.100000,99,0,0.000000,14,0.000000,17.303222,0.469232,99,99,0,0,0,0,0
10,109999,81,100000,78,10000,0,9999,0.100000,99,0,0.129004,14,0.000000,24.782958,0.124542,99,99,0,0,0,0,1
10,109999,82,100000,87,60000,41,9999,0.100000,99,0,0.000000,14,2.000000,16.503067,4.352207,99,99,0,0,0,0,0
10,109999,83,100000,30,10000,40,9999,0.100000,99,0,0.000000,14,0.000000,19.883335,1.181305,99,99,0,0,0,0,0
10,109999,84,100000,88,30000,40,9999,0.100000,99,0,0.000000,14,0.000000,30.973638,0.181634,99,99,0,0,0,0,0
10,109999,85,100000,82,50000,40,9999,0.100000,99,0,0.000000,14,0.000000,26.482391,0.110011,99,99,0,0,0,0,0
10,109999,86,100000,88,30000,40,9999,0.100000,99,0,0.000000,14,0.000000,25.212346,0.085693,99,99,0,0,0,0,0
10,109999,87,100000,78,10000,40,9999,0.100000,99,0,0.000000,14,0.000000,15.523983,16.496821,99,99,0,0,0,0,0
10,109999,88,100000,83,30000,40,9999,0.100000,99,0,0.000000,14,0.000000,10.254757,0.119572,99,99,0,0,0,0,0
10,109999,89,100000,83,30000,0,9999,0.100000,99,0,0.000443,14,0.000000,17.751255,0.066653,99,99,0,0,0,0,1
10,109999,90,100000,30,10000,40,9999,0.100000,99,0,0.000000,15,0.000000,25.134699,0.758008,99,99,0,0,0,0,0
10,109999,91,100000,82,50000,40,9999,0.100000,99,0,0.000000,14,0.000000,23.102328,0.414819,99,99,0,0,0,0,0
10,109999,92,100000,78,10000,40,9999,0.100000,99,0,0.000000,14,0.000000,16.126060,0.843859,99,99,0,0,0,0,0
10,109999,93,100000,63,80000,40,9999,0.065000,99,0,0.000000,14,0.000000,15.778684,0.602042,99,99,0,0,0,0,0
10,109999,94,100000,63,80000,40,9999,0.100000,99,0,0.000000,14,0.000000,21.790890,0.672165,99,99,0,0,0,0,0
10,109999,95,100000,63,80000,40,9999,0.100000,99,0,0.000000,14,0.000000,20.110155,0.661517,99,99,0,0,0,0,0
10,109999,96,100000,78,10000,0,9999,0.100000,99,0,0.118576,14,0.000000,24.262126,0.162567,99,99,0,0,0,1,0
10,109999,97,100000,87,60000,40,9999,0.100000,99,0,0.000000,14,0.000000,23.043812,0.076428,99,99,0,0,0,0,0
10,109999,98,100000,87,60000,42,9999,0.100000,99,0,0.000000,14,5.000000,16.954316,11.357495,99,99,0,0,0,0,0
10,109999,99,100000,11,30000,40,9999,0.100000,99,0,0.000000,14,0.000000,18.779867,0.102102,99,99,0,0,0,0,0
11,119999,0,110000,63,80000,40,9999,0.100000,99,0,0.000000,15,0.000000,23.063246,0.263831,99,99,0,0,0,0,0
11,119999,1,110000,63,80000,40,9999,0.100000,99,0,0.000000,15,0.000000,27.795073,2.433861,99,99,0,0,0,0,0
11,119999,2,110000,87,60000,0,9999,0.100000,99,0,0.568261,15,0.000000,20.293174,0.119304,99,99,0,0,0,0,1
11,119999,3,110000,83,30000,40,9999,0.100000,99,0,0.000000,15,1.000000,15.324258,6.653707,99,99,0,0,0,0,0
11,119999,4,110000,0,0,0,9999,0.100000,99,0,0.500982,15,0.000000,14.884412,0.235177,99,99,0,0,0,0,1
11,119999,5,110000,88,30000,0,9999,0.100000,99,0,0.188453,15,0.000000,31.671188,1.504147,99,99,0,1,0,0,0
11,119999,6,110000,82,50000,1,9999,0.135000,99,0,16.842035,15,3.000000,16.508269,3.471494,99,99,0,0,0,0,1
11,119999,7,110000,82,60000,40,9999,0.100000,99,0,0.000000,15,0.000000,27.926011,0.630821,99,99,0,0,0,0,0
11,119999,8,110000,78,10000,41,9999,0.100000,99,0,0.000000,15,3.000000,16.262957,3.681960,99,99,0,0,0,0,0
11,119999,9,110000,45,40000,40,9999,0.100000,99,0,0.000000,15,0.000000,29.397885,0.917266,99,99,0,0,0,0,0
11,119999,10,110000,21,90000,0,9999,0.100000,99,0,0.226638,15,1.000000,21.782838,5.446735,99,99,0,0,0,1,0
11,119999,11,110000,72,10000,40,9999,0.100000,99,0,0.000000,15,0.000000,26.423310,2.643993,99,99,0,0,0,0,0
11,119999,12,110000,11,30000,0,9999,0.100000,99,0,1.368575,15,0.000000,22.725777,0.521687,99,99,0,0,0,0,1
11,119999,13,110000,78,10000,40,9999,0.100000,99,0,0.000000,15,0.000000,26.445384,1.602225,99,99,0,0,0,0,0
11,119999,14,110000,11,30000,40,9999,0.100000,99,0,0.000000,15,0.000000,31.185688,8.206485,99,99,0,0,0,0,0
11,119999,15,110000,63,80000,40,9999,0.100000,99,0,0.000000,15,1.000000,27.932036,5.449251,99,99,0,0,0,0,0
11,119999,16,110000,88,30000,40,9999,0.100000,99,0,0.000000,15,0.000000,28.947244,1.171257,99,99,0,0,0,0,0
11,119999,17,110000,87,60000,40,9999,0.100000,99,0,0.000000,15,0.000000,25.072990,0.242821,99,99,0,0,0,0,0
11,119999,18,110000,63,80000,0,9999,0.100000,99,0,0.086569,15,0.000000,25.250472,0.131904,99,99,0,0,0,0,1
11,119999,19,110000,21,90000,2,9999,0.100000,99,0,20.669568,15,4.000000,18.616816,4.836612,99,99,0,1,0,0,0
11,119999,20,110000,82,50000,0,9999,0.100000,99,0,0.090712,15,0.000000,19.979102,0.497983,99,99,0,0,0,1,0
11,119999,21,110000,21,90000,0,9999,0.100000,99,0,0.183930,15,0.000000,28.136199,0.551707,99,99,0,0,0,0,1
11,119999,22,110000,45,40000,40,9999,0.100000,99,0,0.000000,15,0.000000,28.977062,8.330981,99,99,0,0,0,0,0
11,119999,23,110000,21,90000,40,9999,0.100000,99,0,0.000000,15,0.000000,29.066438,1.041272,99,99,0,0,0,0,0
11,119999,24,110000,19,100000,40,9999,0.100000,99,0,0.000000,15,0.000000,19.567968,0.165989,99,99,0,0,0,0,0
11,119999,25,110000,21,90000,40,9999,0.100000,99,0,0.000000,15,0.000000,27.644634,0.825835,99,99,0,0,0,0,0
11,119999,26,110000,19,100000,40,9999,0.100000,99,0,0.000000,15,0.000000,26.454674,1.121409,99,99,0,0,0,0,0
11,119999,27,110000,83,30000,40,9999,0.100000,99,0,0.000000,15,1.000000,24.258555,2.284463,99,99,0,0,0,0,0
11,119999,28,110000,78,20000,0,9999,0.100000,99,0,4.194443,15,0.000000,25.580536,0.443930,99,99,0,0,1,0,0
11,119999,29,110000,83,40000,0,9999,0.100000,99,0,0.003786,15,0.000000,24.629879,0.087579,99,99,0,0,0,1,0
11,119999,30,110000,63,80000,40,9999,0.100000,99,0,0.000000,15,2.000000,28.708754,9.786344,99,99,0,0,0,0,0
11,119999,31,110000,83,40000,40,9999,0.100000,99,0,0.000000,15,0.000000,32.678005,0.908131,99,99,0,0,0,0,0
11,119999,32,110000,88,30000,40,9999,0.100000,99,0,0.000000,15,0.000000,27.748456,0.816751,99,99,0,0,0,0,0
11,119999,33,110000,78,10000,40,9999,0.100000,99,0,0.000000,15,0.000000,29.841153,0.114000,99,99,0,0,0,0,0
11,119999,34,110000,83,40000,0,9999,0.135000,99,0,1.115580,15,0.000000,22.071901,0.421600,99,99,0,0,1,0,0
11,119999,35,110000,78,20000,40,9999,0.100000,99,0,0.000000,15,0.000000,20.035770,0.126153,99,99,0,0,0,0,0
11,119999,36,110000,87,60000,40,9999,0.100000,99,0,0.000000,15,0.000000,22.740367,0.205657,99,99,0,0,0,0,0
11,119999,37,110000,83,30000,40,9999,0.100000,99,0,0.000000,15,0.000000,31.272222,0.980576,99,99,0,0,0,0,0
11,119999,38,110000,78,20000,40,9999,0.100000,99,0,0.000000,15,0.000000,31.074277,0.401869,99,99,0,0,0,0,0
11,119999,39,110000,82,50000,40,9999,0.100000,99,0,0.000000,15,1.000000,29.634142,5.859271,99,99,0,0,0,0,0
11,119999,40,110000,63,80000,40,9999,0.100000,99,0,0.000000,15,1.000000,24.991497,9.288653,99,99,0,0,0,0,0
11,119999,41,110000,0,0,40,9999,0.100000,99,0,0.000000,15,2.000000,24.143871,2.339225,99,99,0,0,0,0,0
11,119999,42,110000,83,40000,40,9999,0.100000,99,0,0.000000,15,0.000000,31.687047,0.978724,99,99,0,0,0,0,0
11,119999,43,110000,30,10000,40,9999,0.100000,99,0,0.000000,15,1.000000,23.027208,3.237282,99,99,0,0,0,0,0
11,119999,44,110000,19,100000,0,9999,0.100000,99,0,0.000151,15,0.000000,28.812369,0.071643,99,99,0,0,0,0,1
11,119999,45,110000,45,40000,40,9999,0.100000,99,0,0.000000,15,0.000000,17.830064,0.075746,99,99,0,0,0,0,0
11,119999,46,110000,83,30000,0,9999,0.100000,99,0,0.048212,15,0.000000,21.484408,0.098813,99,99,0,0,0,0,1
11,119999,47,110000,82,50000,40,9999,0.100000,99,0,0.000000,15,0.000000,22.565100,0.663241,99,99,0,0,0,0,0
11,119999,48,110000,0,0,0,9999,0.100000,99,0,1.408760,15,0.000000,21.902646,0.775509,99,99,0,0,1,0,0
11,119999,49,110000,11,30000,0,9999,0.100000,99,0,0.788077,15,0.000000,20.881184,0.224259,99,99,0,0,0,0,1
11,119999,50,110000,87,60000,0,9999,0.100000,99,0,0.116901,15,0.000000,23.247549,0.712021,99,99,0,0,0,0,1
11,119999,51,110000,45,40000,40,9999,0.100000,99,0,0.000000,15,0.000000,23.151367,6.631141,99,99,0,0,0,0,0
11,119999,52,110000,83,30000,40,9999,0.100000,99,0,0.000000,15,0.000000,28.561785,0.529538,99,99,0,0,0,0,0
11,119999,53,110000,78,20000,0,9999,0.100000,99,0,0.312012,15,0.000000,30.691833,0.154564,99,99,0,0,0,0,1
11,119999,54,110000,87,60000,0,9999,0.100000,99,0,0.002274,15,0.000000,26.662390,0.066754,99,99,0,0,0,0,1
11,119999,55,110000,78,20000,42,9999,0.100000,99,0,0.000000,15,6.000000,20.560975,13.950251,99,99,0,0,0,0,0
11,119999,56,110000,0,0,40,9999,0.100000,99,0,0.000000,15,0.000000,28.748845,0.174013,99,99,0,0,0,0,0
11,119999,57,110000,82,60000,40,9999,0.100000,99,0,0.000000,15,0.000000,24.378685,0.989121,99,99,0,0,0,0,0
11,119999,58,110000,11,30000,40,9999,0.100000,99,0,0.000000,15,0.000000,31.362475,0.142454,99,99,0,0,0,0,0
11,119999,59,110000,21,90000,40,9999,0.100000,99,0,0.000000,15,0.000000,31.346925,11.980441,99,99,0,0,0,0,0
11,119999,60,110000,19,100000,0,9999,0.100000,99,0,0.332285,15,0.000000,29.460540,0.190765,99,99,0,0,1,0,0
11,119999,61,110000,72,10000,40,9999,0.100000,99,0,0.000000,15,3.000000,31.800641,7.629818,99,99,0,0,0,0,0
11,119999,62,110000,78,10000,40,9999,0.100000,99,0,0.000000,15,0.000000,28.356305,0.623160,99,99,0,0,0,0,0
11,119999,63,110000,63,80000,40,9999,0.100000,99,0,0.000000,15,1.000000,29.918888,8.310171,99,99,0,0,0,0,0
11,119999,64,110000,78,10000,40,9999,0.100000,99,0,0.000000,15,0.000000,20.772276,0.364696,99,99,0,0,0,0,0
11,119999,65,110000,87,60000,40,9999,0.100000,99,0,0.000000,15,0.000000,30.032350,0.187038,99,99,0,0,0,0,0
11,119999,66,110000,87,60000,40,9999,0.100000,99,0,0.000000,15,0.000000,27.690577,2.258858,99,99,0,0,0,0,0
11,119999,67,110000,11,30000,40,9999,0.100000,99,0,0.000000,15,0.000000,31.783173,2.283145,99,99,0,0,0,0,0
11,119999,68,110000,63,80000,40,9999,0.100000,99,0,0.000000,15,0.000000,11.790424,0.178244,99,99,0,0,0,0,0
11,119999,69,110000,82,60000,0,9999,0.100000,99,0,0.274587,15,0.000000,20.476962,0.649629,99,99,0,0,0,0,1
11,119999,70,110000,78,10000,40,9999,0.100000,99,0,0.000000,15,0.000000,21.980619,1.442468,99,99,0,0,0,0,0
11,119999,71,110000,72,10000,40,9999,0.100000,99,0,0.000000,15,0.000000,21.023614,1.028693,99,99,0,0,0,0,0
11,119999,72,110000,83,40000,40,9999,0.100000,99,0,0.000000,15,0.000000,30.576468,6.753811,99,99,0,0,0,0,0
11,119999,73,110000,83,30000,0,9999,0.100000,99,0,0.035381,15,0.000000,24.161244,0.225946,99,99,0,0,0,1,0
11,119999,74,110000,19,100000,41,9999,0.100000,99,0,0.000000,15,5.000000,25.316080,10.389524,99,99,0,0,0,0,0
