generation,iteration,robot,birthday,ancestor_id,ancestor_birthday,cell_id,age,sigma,maps,genomes,fitness,cells_in_map,dist_max,dist_pot_max,dist_total,com_rx,com_tx,obj_group1,obj_group2,obj_group3,obj_group4,obj_group5
0,9999,0,0,0,0,49,9999,0.100000,0,0,0.000000,0,7.000000,0.000000,21.840440,0,0,0,0,0,0,0
0,9999,1,0,1,0,49,9999,0.100000,0,0,0.000000,0,7.000000,0.000000,14.593865,0,0,0,0,0,0,0
0,9999,2,0,2,0,49,9999,0.100000,0,0,0.000000,0,5.000000,0.000000,14.475724,0,0,0,0,0,0,0
0,9999,3,0,3,0,49,9999,0.100000,0,0,0.000000,0,5.000000,0.000000,22.548141,0,0,0,0,0,0,0
0,9999,4,0,4,0,49,9999,0.100000,0,0,0.000000,0,9.000000,0.000000,12.137003,0,0,0,0,0,0,0
0,9999,5,0,5,0,49,9999,0.100000,0,0,0.000000,0,5.000000,0.000000,14.234069,0,0,0,0,0,0,0
0,9999,6,0,6,0,49,9999,0.100000,0,0,0.000000,0,11.000000,0.000000,18.473076,0,0,0,0,0,0,0
0,9999,7,0,7,0,49,9999,0.100000,0,0,0.000000,0,5.000000,0.000000,10.244372,0,0,0,0,0,0,0
0,9999,8,0,8,0,49,9999,0.100000,0,0,0.000000,0,5.000000,0.000000,17.205686,0,0,0,0,0,0,0
0,9999,9,0,9,0,49,9999,0.100000,0,0,0.000000,0,2.000000,0.000000,9.645733,0,0,0,0,0,0,0
0,9999,10,0,10,0,49,9999,0.100000,0,0,0.000000,0,10.000000,0.000000,17.739050,0,0,0,0,0,0,0
0,9999,11,0,11,0,49,9999,0.100000,0,0,0.000000,0,8.000000,0.000000,22.909009,0,0,0,0,0,0,0
0,9999,12,0,12,0,49,9999,0.100000,0,0,0.000000,0,7.000000,0.000000,12.495810,0,0,0,0,0,0,0
0,9999,13,0,13,0,49,9999,0.100000,0,0,0.000000,0,10.000000,0.000000,21.212369,0,0,0,0,0,0,0
0,9999,14,0,14,0,49,9999,0.100000,0,0,0.000000,0,6.000000,0.000000,17.740206,0,0,0,0,0,0,0
0,9999,15,0,15,0,49,9999,0.100000,0,0,0.000000,0,6.000000,0.000000,7.243472,0,0,0,0,0,0,0
0,9999,16,0,16,0,49,9999,0.100000,0,0,0.000000,0,4.000000,0.000000,10.765404,0,0,0,0,0,0,0
0,9999,17,0,17,0,49,9999,0.100000,0,0,0.000000,0,6.000000,0.000000,15.969503,0,0,0,0,0,0,0
0,9999,18,0,18,0,49,9999,0.100000,0,0,0.000000,0,8.000000,0.000000,13.838746,0,0,0,0,0,0,0
0,9999,19,0,19,0,99,9999,0.100000,0,0,47.368421,0,9.000000,0.000000,24.122967,0,0,1,0,0,0,0
0,9999,20,0,20,0,49,9999,0.100000,0,0,0.000000,0,9.000000,0.000000,21.462126,0,0,0,0,0,0,0
0,9999,21,0,21,0,49,9999,0.100000,0,0,0.000000,0,7.000000,0.000000,9.632283,0,0,0,0,0,0,0
0,9999,22,0,22,0,49,9999,0.100000,0,0,0.000000,0,5.000000,0.000000,10.155183,0,0,0,0,0,0,0
0,9999,23,0,23,0,49,9999,0.100000,0,0,0.000000,0,8.000000,0.000000,18.612660,0,0,0,0,0,0,0
0,9999,24,0,24,0,49,9999,0.100000,0,0,0.000000,0,3.000000,0.000000,14.075002,0,0,0,0,0,0,0
0,9999,25,0,25,0,49,9999,0.100000,0,0,0.000000,0,2.000000,0.000000,4.969975,0,0,0,0,0,0,0
0,9999,26,0,26,0,49,9999,0.100000,0,0,0.000000,0,3.000000,0.000000,14.302003,0,0,0,0,0,0,0
0,9999,27,0,27,0,49,9999,0.100000,0,0,0.000000,0,3.000000,0.000000,12.737815,0,0,0,0,0,0,0
0,9999,28,0,28,0,49,9999,0.100000,0,0,0.000000,0,10.000000,0.000000,23.576651,0,0,0,0,0,0,0
0,9999,29,0,29,0,49,9999,0.100000,0,0,0.000000,0,8.000000,0.000000,29.012704,0,0,0,0,0,0,0
0,9999,30,0,30,0,49,9999,0.100000,0,0,0.000000,0,9.000000,0.000000,27.862954,0,0,0,0,0,0,0
0,9999,31,0,31,0,49,9999,0.100000,0,0,0.000000,0,11.000000,0.000000,26.691408,0,0,0,0,0,0,0
0,9999,32,0,32,0,49,9999,0.100000,0,0,0.000000,0,4.000000,0.000000,16.299866,0,0,0,0,0,0,0
0,9999,33,0,33,0,49,9999,0.100000,0,0,0.000000,0,8.000000,0.000000,15.538460,0,0,0,0,0,0,0
0,9999,34,0,34,0,49,9999,0.100000,0,0,0.000000,0,10.000000,0.000000,21.667521,0,0,0,0,0,0,0
0,9999,35,0,35,0,49,9999,0.100000,0,0,0.000000,0,6.000000,0.000000,21.212364,0,0,0,0,0,0,0
0,9999,36,0,36,0,49,9999,0.100000,0,0,0.000000,0,10.000000,0.000000,25.088382,0,0,0,0,0,0,0
0,9999,37,0,37,0,49,9999,0.100000,0,0,0.000000,0,11.000000,0.000000,17.410016,0,0,0,0,0,0,0
0,9999,38,0,38,0,99,9999,0.100000,0,0,47.368421,0,10.000000,0.000000,33.301103,0,0,1,0,0,0,0
0,9999,39,0,39,0,49,9999,0.100000,0,0,0.000000,0,6.000000,0.000000,16.833142,0,0,0,0,0,0,0
0,9999,40,0,40,0,49,9999,0.100000,0,0,0.000000,0,9.000000,0.000000,20.670215,0,0,0,0,0,0,0
0,9999,41,0,41,0,49,9999,0.100000,0,0,0.000000,0,5.000000,0.000000,20.396613,0,0,0,0,0,0,0
0,9999,42,0,42,0,49,9999,0.100000,0,0,0.000000,0,8.000000,0.000000,12.577055,0,0,0,0,0,0,0
0,9999,43,0,43,0,49,9999,0.100000,0,0,0.000000,0,9.000000,0.000000,28.541954,0,0,0,0,0,0,0
0,9999,44,0,44,0,49,9999,0.100000,0,0,0.000000,0,3.000000,0.000000,15.196708,0,0,0,0,0,0,0
0,9999,45,0,45,0,49,9999,0.100000,0,0,0.000000,0,8.000000,0.000000,12.181704,0,0,0,0,0,0,0
0,9999,46,0,46,0,49,9999,0.100000,0,0,0.000000,0,4.000000,0.000000,15.464669,0,0,0,0,0,0,0
0,9999,47,0,47,0,99,9999,0.100000,0,0,47.368421,0,9.000000,0.000000,19.075561,0,0,1,0,0,0,0
0,9999,48,0,48,0,49,9999,0.100000,0,0,0.000000,0,9.000000,0.000000,13.445025,0,0,0,0,0,0,0
0,9999,49,0,49,0,49,9999,0.100000,0,0,0.000000,0,9.000000,0.000000,19.593056,0,0,0,0,0,0,0
0,9999,50,0,50,0,49,9999,0.100000,0,0,0.000000,0,2.000000,0.000000,7.091074,0,0,0,0,0,0,0
0,9999,51,0,51,0,49,9999,0.100000,0,0,0.000000,0,6.000000,0.000000,16.123490,0,0,0,0,0,0,0
0,9999,52,0,52,0,99,9999,0.100000,0,0,47.368421,0,9.000000,0.000000,30.649550,0,0,1,0,0,0,0
0,9999,53,0,53,0,49,9999,0.100000,0,0,0.000000,0,6.000000,0.000000,10.218986,0,0,0,0,0,0,0
0,9999,54,0,54,0,49,9999,0.100000,0,0,0.000000,0,8.000000,0.000000,11.414982,0,0,0,0,0,0,0
0,9999,55,0,55,0,49,9999,0.100000,0,0,0.000000,0,8.000000,0.000000,20.118292,0,0,0,0,0,0,0
0,9999,56,0,56,0,49,9999,0.100000,0,0,0.000000,0,5.000000,0.000000,17.663723,0,0,0,0,0,0,0
0,9999,57,0,57,0,49,9999,0.100000,0,0,0.000000,0,8.000000,0.000000,26.346560,0,0,0,0,0,0,0
0,9999,58,0,58,0,49,9999,0.100000,0,0,0.000000,0,10.000000,0.000000,13.692419,0,0,0,0,0,0,0
0,9999,59,0,59,0,49,9999,0.100000,0,0,0.000000,0,5.000000,0.000000,17.156851,0,0,0,0,0,0,0
0,9999,60,0,60,0,49,9999,0.100000,0,0,0.000000,0,10.000000,0.000000,18.832260,0,0,0,0,0,0,0
0,9999,61,0,61,0,49,9999,0.100000,0,0,0.000000,0,6.000000,0.000000,13.445088,0,0,0,0,0,0,0
0,9999,62,0,62,0,49,9999,0.100000,0,0,0.000000,0,4.000000,0.000000,12.039248,0,0,0,0,0,0,0
0,9999,63,0,63,0,49,9999,0.100000,0,0,0.000000,0,6.000000,0.000000,17.191059,0,0,0,0,0,0,0
0,9999,64,0,64,0,49,9999,0.100000,0,0,0.000000,0,10.000000,0.000000,22.213202,0,0,0,0,0,0,0
0,9999,65,0,65,0,99,9999,0.100000,0,0,47.368421,0,10.000000,0.000000,23.918744,0,0,1,0,0,0,0
0,9999,66,0,66,0,49,9999,0.100000,0,0,0.000000,0,7.000000,0.000000,24.209748,0,0,0,0,0,0,0
0,9999,67,0,67,0,49,9999,0.100000,0,0,0.000000,0,9.000000,0.000000,19.438215,0,0,0,0,0,0,0
0,9999,68,0,68,0,49,9999,0.100000,0,0,0.000000,0,13.000000,0.000000,14.092766,0,0,0,0,0,0,0
0,9999,69,0,69,0,49,9999,0.100000,0,0,0.000000,0,6.000000,0.000000,8.792032,0,0,0,0,0,0,0
0,9999,70,0,70,0,49,9999,0.100000,0,0,0.000000,0,9.000000,0.000000,14.508505,0,0,0,0,0,0,0
0,9999,71,0,71,0,49,9999,0.100000,0,0,0.000000,0,12.000000,0.000000,22.215607,0,0,0,0,0,0,0
0,9999,72,0,72,0,49,9999,0.100000,0,0,0.000000,0,7.000000,0.000000,9.408930,0,0,0,0,0,0,0
0,9999,73,0,73,0,99,9999,0.100000,0,0,47.368421,0,10.000000,0.000000,16.696609,0,0,1,0,0,0,0
0,9999,74,0,74,0,49,9999,0.100000,0,0,0.000000,0,9.000000,0.000000,14.582279,0,0,0,0,0,0,0
0,9999,75,0,75,0,99,9999,0.100000,0,0,47.368421,0,8.000000,0.000000,18.491777,0,0,1,0,0,0,0
0,9999,76,0,76,0,49,9999,0.100000,0,0,0.000000,0,9.000000,0.000000,22.824484,0,0,0,0,0,0,0
0,9999,77,0,77,0,49,9999,0.100000,0,0,0.000000,0,9.000000,0.000000,15.674304,0,0,0,0,0,0,0
0,9999,78,0,78,0,49,9999,0.100000,0,0,0.000000,0,8.000000,0.000000,11.331533,0,0,0,0,0,0,0
0,9999,79,0,79,0,49,9999,0.100000,0,0,0.000000,0,7.000000,0.000000,7.693625,0,0,0,0,0,0,0
0,9999,80,0,80,0,49,9999,0.100000,0,0,0.000000,0,10.000000,0.000000,15.368584,0,0,0,0,0,0,0
0,9999,81,0,81,0,49,9999,0.100000,0,0,0.000000,0,6.000000,0.000000,15.904526,0,0,0,0,0,0,0
0,9999,82,0,82,0,49,9999,0.100000,0,0,0.000000,0,6.000000,0.000000,19.357839,0,0,0,0,0,0,0
0,9999,83,0,83,0,49,9999,0.100000,0,0,0.000000,0,7.000000,0.000000,11.819524,0,0,0,0,0,0,0
0,9999,84,0,84,0,49,9999,0.100000,0,0,0.000000,0,7.000000,0.000000,13.705345,0,0,0,0,0,0,0
0,9999,85,0,85,0,49,9999,0.100000,0,0,0.000000,0,10.000000,0.000000,26.383865,0,0,0,0,0,0,0
0,9999,86,0,86,0,49,9999,0.100000,0,0,0.000000,0,3.000000,0.000000,10.145672,0,0,0,0,0,0,0
0,9999,87,0,87,0,49,9999,0.100000,0,0,0.000000,0,10.000000,0.000000,13.109983,0,0,0,0,0,0,0
0,9999,88,0,88,0,49,9999,0.100000,0,0,0.000000,0,7.000000,0.000000,9.527675,0,0,0,0,0,0,0
0,9999,89,0,89,0,49,9999,0.100000,0,0,0.000000,0,9.000000,0.000000,9.599947,0,0,0,0,0,0,0
0,9999,90,0,90,0,49,9999,0.100000,0,0,0.000000,0,11.000000,0.000000,24.864756,0,0,0,0,0,0,0
0,9999,91,0,91,0,49,9999,0.100000,0,0,0.000000,0,9.000000,0.000000,18.532226,0,0,0,0,0,0,0
0,9999,92,0,92,0,49,9999,0.100000,0,0,0.000000,0,11.000000,0.000000,13.982183,0,0,0,0,0,0,0
0,9999,93,0,93,0,49,9999,0.100000,0,0,0.000000,0,4.000000,0.000000,12.435807,0,0,0,0,0,0,0
0,9999,94,0,94,0,99,9999,0.100000,0,0,47.368421,0,9.000000,0.000000,18.019966,0,0,1,0,0,0,0
0,9999,95,0,95,0,99,9999,0.100000,0,0,47.368421,0,8.000000,0.000000,22.862782,0,0,1,0,0,0,0
0,9999,96,0,96,0,49,9999,0.100000,0,0,0.000000,0,9.000000,0.000000,19.454771,0,0,0,0,0,0,0
0,9999,97,0,97,0,49,9999,0.100000,0,0,0.000000,0,9.000000,0.000000,15.985921,0,0,0,0,0,0,0
0,9999,98,0,98,0,49,9999,0.100000,0,0,0.000000,0,7.000000,0.000000,12.329494,0,0,0,0,0,0,0
0,9999,99,0,99,0,49,9999,0.100000,0,0,0.000000,0,3.000000,0.000000,14.298113,0,0,0,0,0,0,0
1,19999,0,10000,47,0,49,9999,0.100000,0,0,0.000000,3,3.000000,0.000000,8.720621,0,0,0,0,0,0,0
1,19999,1,0,1,0,49,19999,0.100000,0,0,0.000000,1,1.000000,0.000000,6.083852,0,0,0,0,0,0,0
1,19999,2,10000,47,0,49,9999,0.100000,0,0,0.000000,3,3.000000,0.000000,11.075892,0,0,0,0,0,0,0
1,19999,3,10000,3,0,49,9999,0.100000,0,0,0.000000,1,4.000000,0.000000,9.064522,0,0,0,0,0,0,0
1,19999,4,10000,47,0,40,9999,0.100000,0,0,0.000000,3,0.000000,0.000000,0.122304,0,0,0,0,0,0,0
1,19999,5,10000,0,0,40,9999,0.100000,0,0,0.000000,3,0.000000,0.000000,0.998151,0,0,0,0,0,0,0
1,19999,6,10000,1,0,99,9999,0.100000,0,0,34.210526,3,9.000000,0.000000,13.618178,0,0,1,0,0,0,0
1,19999,7,10000,0,0,40,9999,0.100000,0,0,0.000000,3,0.000000,0.000000,0.818900,0,0,0,0,0,0,0
1,19999,8,0,8,0,49,19999,0.100000,0,0,0.000000,3,1.000000,0.000000,10.306541,0,0,0,0,0,0,0
1,19999,9,10000,0,0,49,9999,0.100000,0,0,0.000000,3,3.000000,0.000000,9.022004,0,0,0,0,0,0,0
1,19999,10,10000,80,0,49,9999,0.100000,0,0,0.000000,3,5.000000,0.000000,15.041147,0,0,0,0,0,0,0
1,19999,11,10000,47,0,49,9999,0.100000,0,0,0.000000,3,1.000000,0.000000,2.716631,0,0,0,0,0,0,0
1,19999,12,10000,89,0,49,9999,0.100000,0,0,0.000000,3,5.000000,0.000000,18.327211,0,0,0,0,0,0,0
1,19999,13,10000,80,0,49,9999,0.100000,0,0,0.000000,3,3.000000,0.000000,7.549393,0,0,0,0,0,0,0
1,19999,14,10000,0,0,40,9999,0.100000,0,0,0.000000,3,0.000000,0.000000,1.602005,0,0,0,0,0,0,0
1,19999,15,10000,73,0,40,9999,0.100000,0,0,0.000000,3,0.000000,0.000000,0.701524,0,0,0,0,0,0,0
1,19999,16,10000,80,0,49,9999,0.100000,0,0,0.000000,3,5.000000,0.000000,9.022461,0,0,0,0,0,0,0
1,19999,17,10000,0,0,40,9999,0.100000,0,0,0.000000,3,0.000000,0.000000,9.573381,0,0,0,0,0,0,0
1,19999,18,10000,47,0,40,9999,0.100000,0,0,0.000000,3,0.000000,0.000000,7.335544,0,0,0,0,0,0,0
1,19999,19,0,19,0,40,19999,0.100000,0,0,0.000000,3,0.000000,0.000000,5.138845,0,0,0,0,0,0,0
1,19999,20,10000,80,0,49,9999,0.100000,0,0,0.000000,3,7.000000,0.000000,16.151242,0,0,0,0,0,0,0
1,19999,21,10000,47,0,40,9999,0.100000,0,0,0.000000,3,0.000000,0.000000,0.129970,0,0,0,0,0,0,0
1,19999,22,10000,89,0,49,9999,0.100000,0,0,0.000000,3,5.000000,0.000000,20.662104,0,0,0,0,0,0,0
1,19999,23,10000,47,0,40,9999,0.100000,0,0,0.000000,3,0.000000,0.000000,4.150215,0,0,0,0,0,0,0
1,19999,24,10000,80,0,40,9999,0.100000,0,0,0.000000,3,0.000000,0.000000,0.436455,0,0,0,0,0,0,0
1,19999,25,10000,47,0,9,9999,0.100000,0,0,34.210526,3,10.000000,0.000000,14.608590,0,0,0,1,0,0,0
1,19999,26,10000,0,0,9,9999,0.100000,0,0,34.210526,3,10.000000,0.000000,15.970688,0,0,0,1,0,0,0
1,19999,27,10000,80,0,49,9999,0.100000,0,0,0.000000,3,3.000000,0.000000,17.446111,0,0,0,0,0,0,0
1,19999,28,10000,0,0,49,9999,0.100000,0,0,0.000000,3,3.000000,0.000000,8.374335,0,0,0,0,0,0,0
1,19999,29,10000,47,0,40,9999,0.100000,0,0,0.000000,3,0.000000,0.000000,4.874039,0,0,0,0,0,0,0
1,19999,30,10000,1,0,49,9999,0.100000,0,0,0.000000,2,1.000000,0.000000,10.330997,0,0,0,0,0,0,0
1,19999,31,10000,47,0,40,9999,0.100000,0,0,0.000000,3,0.000000,0.000000,0.941306,0,0,0,0,0,0,0
1,19999,32,10000,0,0,49,9999,0.100000,0,0,0.000000,3,2.000000,0.000000,8.666384,0,0,0,0,0,0,0
1,19999,33,10000,0,0,49,9999,0.100000,0,0,0.000000,3,5.000000,0.000000,9.493658,0,0,0,0,0,0,0
1,19999,34,10000,47,0,49,9999,0.100000,0,0,0.000000,3,3.000000,0.000000,8.140526,0,0,0,0,0,0,0
1,19999,35,10000,47,0,49,9999,0.100000,0,0,0.000000,3,2.000000,0.000000,5.300200,0,0,0,0,0,0,0
1,19999,36,10000,80,0,49,9999,0.100000,0,0,0.000000,3,2.000000,0.000000,5.773736,0,0,0,0,0,0,0
1,19999,37,10000,73,0,49,9999,0.100000,0,0,0.000000,3,12.000000,0.000000,21.185365,0,0,0,0,0,0,0
1,19999,38,10000,80,0,49,9999,0.100000,0,0,0.000000,3,8.000000,0.000000,16.295754,0,0,0,0,0,0,0
1,19999,39,10000,80,0,49,9999,0.100000,0,0,0.000000,3,5.000000,0.000000,6.477418,0,0,0,0,0,0,0
1,19999,40,10000,47,0,49,9999,0.100000,0,0,0.000000,3,1.000000,0.000000,5.368195,0,0,0,0,0,0,0
1,19999,41,10000,47,0,49,9999,0.100000,0,0,0.000000,3,1.000000,0.000000,5.999328,0,0,0,0,0,0,0
1,19999,42,10000,47,0,49,9999,0.100000,0,0,0.000000,3,5.000000,0.000000,10.268250,0,0,0,0,0,0,0
1,19999,43,10000,80,0,40,9999,0.100000,0,0,0.000000,3,0.000000,0.000000,21.293417,0,0,0,0,0,0,0
1,19999,44,10000,80,0,99,9999,0.100000,0,0,34.210526,3,10.000000,0.000000,20.848523,0,0,1,0,0,0,0
1,19999,45,10000,73,0,40,9999,0.100000,0,0,0.000000,3,0.000000,0.000000,0.190081,0,0,0,0,0,0,0
1,19999,46,10000,0,0,99,9999,0.100000,0,0,34.210526,3,5.000000,0.000000,9.918420,0,0,1,0,0,0,0
1,19999,47,10000,1,0,49,9999,0.100000,0,0,0.000000,2,2.000000,0.000000,7.305500,0,0,0,0,0,0,0
1,19999,48,10000,0,0,40,9999,0.100000,0,0,0.000000,3,0.000000,0.000000,1.209462,0,0,0,0,0,0,0
1,19999,49,10000,47,0,49,9999,0.100000,0,0,0.000000,3,2.000000,0.000000,4.112976,0,0,0,0,0,0,0
1,19999,50,10000,80,0,49,9999,0.100000,0,0,0.000000,3,5.000000,0.000000,15.052007,0,0,0,0,0,0,0
1,19999,51,10000,0,0,49,9999,0.100000,0,0,0.000000,3,1.000000,0.000000,8.382574,0,0,0,0,0,0,0
1,19999,52,10000,80,0,49,9999,0.100000,0,0,0.000000,3,3.000000,0.000000,4.925064,0,0,0,0,0,0,0
1,19999,53,10000,0,0,49,9999,0.100000,0,0,0.000000,3,3.000000,0.000000,10.496409,0,0,0,0,0,0,0
1,19999,54,10000,47,0,49,9999,0.100000,0,0,0.000000,3,1.000000,0.000000,5.892291,0,0,0,0,0,0,0
1,19999,55,10000,89,0,40,9999,0.100000,0,0,0.000000,3,0.000000,0.000000,7.076801,0,0,0,0,0,0,0
1,19999,56,10000,47,0,49,9999,0.100000,0,0,0.000000,3,1.000000,0.000000,5.803734,0,0,0,0,0,0,0
1,19999,57,10000,89,0,40,9999,0.100000,0,0,0.000000,3,0.000000,0.000000,14.097676,0,0,0,0,0,0,0
1,19999,58,10000,47,0,49,9999,0.100000,0,0,0.000000,3,2.000000,0.000000,4.190621,0,0,0,0,0,0,0
1,19999,59,10000,80,0,49,9999,0.100000,0,0,0.000000,3,6.000000,0.000000,11.615838,0,0,0,0,0,0,0
1,19999,60,10000,0,0,49,9999,0.100000,0,0,0.000000,3,3.000000,0.000000,7.478148,0,0,0,0,0,0,0
1,19999,61,10000,47,0,40,9999,0.100000,0,0,0.000000,3,0.000000,0.000000,0.770683,0,0,0,0,0,0,0
1,19999,62,10000,80,0,99,9999,0.100000,0,0,34.210526,3,7.000000,0.000000,15.629489,0,0,1,0,0,0,0
1,19999,63,10000,47,0,40,9999,0.100000,0,0,0.000000,3,0.000000,0.000000,7.693533,0,0,0,0,0,0,0
1,19999,64,10000,0,0,40,9999,0.100000,0,0,0.000000,3,0.000000,0.000000,8.660901,0,0,0,0,0,0,0
1,19999,65,10000,47,0,49,9999,0.100000,0,0,0.000000,3,2.000000,0.000000,4.550407,0,0,0,0,0,0,0
1,19999,66,10000,80,0,40,9999,0.100000,0,0,0.000000,3,0.000000,0.000000,1.772456,0,0,0,0,0,0,0
1,19999,67,10000,47,0,49,9999,0.100000,0,0,0.000000,3,2.000000,0.000000,6.436530,0,0,0,0,0,0,0
1,19999,68,10000,47,0,40,9999,0.100000,0,0,0.000000,3,0.000000,0.000000,0.083463,0,0,0,0,0,0,0
1,19999,69,10000,80,0,49,9999,0.100000,0,0,0.000000,3,5.000000,0.000000,10.813986,0,0,0,0,0,0,0
1,19999,70,10000,80,0,40,9999,0.100000,0,0,0.000000,3,0.000000,0.000000,0.832717,0,0,0,0,0,0,0
1,19999,71,10000,0,0,40,9999,0.100000,0,0,0.000000,3,0.000000,0.000000,6.212571,0,0,0,0,0,0,0
1,19999,72,10000,47,0,49,9999,0.100000,0,0,0.000000,3,1.000000,0.000000,1.575837,0,0,0,0,0,0,0
1,19999,73,10000,80,0,40,9999,0.100000,0,0,0.000000,3,0.000000,0.000000,0.282123,0,0,0,0,0,0,0
1,19999,74,10000,0,0,40,9999,0.100000,0,0,0.000000,3,0.000000,0.000000,1.108394,0,0,0,0,0,0,0
1,19999,75,10000,47,0,49,9999,0.100000,0,0,0.000000,3,1.000000,0.000000,7.275596,0,0,0,0,0,0,0
1,19999,76,10000,47,0,49,9999,0.100000,0,0,0.000000,3,1.000000,0.000000,2.334368,0,0,0,0,0,0,0
1,19999,77,0,77,0,40,19999,0.100000,0,0,0.000000,3,0.000000,0.000000,0.933043,0,0,0,0,0,0,0
1,19999,78,10000,73,0,49,9999,0.100000,0,0,0.000000,3,4.000000,0.000000,20.937692,0,0,0,0,0,0,0
1,19999,79,10000,47,0,40,9999,0.100000,0,0,0.000000,3,0.000000,0.000000,1.142440,0,0,0,0,0,0,0
1,19999,80,10000,0,0,40,9999,0.100000,0,0,0.000000,3,0.000000,0.000000,0.453493,0,0,0,0,0,0,0
1,19999,81,10000,47,0,40,9999,0.100000,0,0,0.000000,3,0.000000,0.000000,7.067829,0,0,0,0,0,0,0
1,19999,82,10000,73,0,49,9999,0.100000,0,0,0.000000,3,5.000000,0.000000,29.418320,0,0,0,0,0,0,0
1,19999,83,10000,47,0,49,9999,0.100000,0,0,0.000000,3,1.000000,0.000000,7.284924,0,0,0,0,0,0,0
1,19999,84,10000,0,0,40,9999,0.100000,0,0,0.000000,3,0.000000,0.000000,0.583757,0,0,0,0,0,0,0
1,19999,85,10000,89,0,49,9999,0.100000,0,0,0.000000,3,5.000000,0.000000,15.622267,0,0,0,0,0,0,0
1,19999,86,10000,0,0,49,9999,0.100000,0,0,0.000000,3,1.000000,0.000000,6.560932,0,0,0,0,0,0,0
1,19999,87,10000,80,0,40,9999,0.100000,0,0,0.000000,3,0.000000,0.000000,5.463126,0,0,0,0,0,0,0
1,19999,88,10000,47,0,40,9999,0.100000,0,0,0.000000,3,0.000000,0.000000,0.542818,0,0,0,0,0,0,0
1,19999,89,10000,1,0,40,9999,0.100000,0,0,0.000000,3,0.000000,0.000000,0.211533,0,0,0,0,0,0,0
1,19999,90,10000,47,0,40,9999,0.100000,0,0,0.000000,3,0.000000,0.000000,0.635201,0,0,0,0,0,0,0
1,19999,91,10000,47,0,49,9999,0.100000,0,0,0.000000,3,4.000000,0.000000,6.892259,0,0,0,0,0,0,0
1,19999,92,10000,47,0,99,9999,0.100000,0,0,34.210526,3,17.000000,0.000000,23.122629,0,0,1,0,0,0,0
1,19999,93,10000,0,0,49,9999,0.100000,0,0,0.000000,3,2.000000,0.000000,13.438170,0,0,0,0,0,0,0
1,19999,94,10000,47,0,49,9999,0.100000,0,0,0.000000,3,2.000000,0.000000,18.750923,0,0,0,0,0,0,0
1,19999,95,10000,0,0,40,9999,0.100000,0,0,0.000000,3,0.000000,0.000000,6.680147,0,0,0,0,0,0,0
1,19999,96,10000,73,0,49,9999,0.100000,0,0,0.000000,3,2.000000,0.000000,3.351874,0,0,0,0,0,0,0
1,19999,97,10000,0,0,49,9999,0.100000,0,0,0.000000,3,5.000000,0.000000,10.401094,0,0,0,0,0,0,0
1,19999,98,10000,47,0,49,9999,0.100000,0,0,0.000000,3,2.000000,0.000000,5.742103,0,0,0,0,0,0,0
1,19999,99,10000,0,0,40,9999,0.100000,0,0,0.000000,3,0.000000,0.000000,2.930726,0,0,0,0,0,0,0
2,29999,0,20000,73,0,49,9999,0.100000,0,0,0.000000,3,3.000000,0.000000,18.794649,0,0,0,0,0,0,0
2,29999,1,20000,7,10000,40,9999,0.100000,0,0,0.000000,4,0.000000,0.000000,5.836638,0,0,0,0,0,0,0
2,29999,2,20000,15,10000,40,9999,0.100000,0,0,0.000000,5,0.000000,0.000000,1.847885,0,0,0,0,0,0,0
2,29999,3,20000,15,10000,49,9999,0.100000,0,0,0.000000,5,1.000000,0.000000,2.221830,0,0,0,0,0,0,0
2,29999,4,20000,47,0,40,9999,0.100000,0,0,0.000000,4,0.000000,0.000000,0.424569,0,0,0,0,0,0,0
2,29999,5,20000,73,0,40,9999,0.100000,0,0,0.000000,6,0.000000,0.000000,17.519451,0,0,0,0,0,0,0
2,29999,6,20000,15,10000,49,9999,0.100000,0,0,0.000000,5,2.000000,0.000000,9.917857,0,0,0,0,0,0,0
2,29999,7,20000,73,0,49,9999,0.100000,0,0,0.000000,4,1.000000,0.000000,2.200770,0,0,0,0,0,0,0
2,29999,8,20000,19,0,49,9999,0.100000,0,0,0.000000,5,3.000000,0.000000,11.841810,0,0,0,0,0,0,0
2,29999,9,20000,68,0,49,9999,0.100000,0,0,0.000000,5,1.000000,0.000000,10.782493,0,0,0,0,0,0,0
2,29999,10,20000,47,0,99,9999,0.100000,0,0,34.210526,5,9.000000,0.000000,15.544519,0,0,1,0,0,0,0
2,29999,11,20000,68,0,40,9999,0.100000,0,0,0.000000,5,0.000000,0.000000,2.205799,0,0,0,0,0,0,0
2,29999,12,20000,36,10000,49,9999,0.100000,0,0,0.000000,5,6.000000,0.000000,13.259144,0,0,0,0,0,0,0
2,29999,13,20000,73,0,40,9999,0.100000,0,0,0.000000,5,0.000000,0.000000,1.335338,0,0,0,0,0,0,0
2,29999,14,20000,36,10000,49,9999,0.100000,0,0,0.000000,5,2.000000,0.000000,6.682851,0,0,0,0,0,0,0
2,29999,15,20000,68,0,40,9999,0.100000,0,0,0.000000,4,0.000000,0.000000,1.209492,0,0,0,0,0,0,0
2,29999,16,20000,47,0,49,9999,0.100000,0,0,0.000000,5,8.000000,0.000000,11.000865,0,0,0,0,0,0,0
2,29999,17,20000,36,10000,49,9999,0.100000,0,0,0.000000,6,5.000000,0.000000,12.443622,0,0,0,0,0,0,0
2,29999,18,20000,36,10000,40,9999,0.100000,0,0,0.000000,5,0.000000,0.000000,3.324983,0,0,0,0,0,0,0
2,29999,19,20000,19,0,40,9999,0.100000,0,0,0.000000,5,0.000000,0.000000,2.137602,0,0,0,0,0,0,0
2,29999,20,20000,19,0,49,9999,0.100000,0,0,0.000000,6,2.000000,0.000000,13.735712,0,0,0,0,0,0,0
2,29999,21,20000,73,0,40,9999,0.100000,0,0,0.000000,5,0.000000,0.000000,0.203593,0,0,0,0,0,0,0
2,29999,22,20000,47,0,40,9999,0.100000,0,0,0.000000,5,0.000000,0.000000,3.960996,0,0,0,0,0,0,0
2,29999,23,20000,68,10000,49,9999,0.100000,0,0,0.000000,6,3.000000,0.000000,7.721593,0,0,0,0,0,0,0
2,29999,24,20000,15,10000,49,9999,0.100000,0,0,0.000000,5,1.000000,0.000000,2.021747,0,0,0,0,0,0,0
2,29999,25,20000,73,0,49,9999,0.100000,0,0,0.000000,5,3.000000,0.000000,15.108682,0,0,0,0,0,0,0
2,29999,26,20000,36,10000,49,9999,0.100000,0,0,0.000000,5,7.000000,0.000000,15.082511,0,0,0,0,0,0,0
2,29999,27,20000,47,0,49,9999,0.100000,0,0,0.000000,4,4.000000,0.000000,10.257456,0,0,0,0,0,0,0
2,29999,28,20000,19,0,40,9999,0.100000,0,0,0.000000,5,0.000000,0.000000,0.178004,0,0,0,0,0,0,0
2,29999,29,20000,15,10000,49,9999,0.100000,0,0,0.000000,5,14.000000,0.000000,22.028542,0,0,0,0,0,0,0
2,29999,30,20000,19,0,49,9999,0.100000,0,0,0.000000,6,2.000000,0.000000,11.672539,0,0,0,0,0,0,0
2,29999,31,20000,68,10000,49,9999,0.100000,0,0,0.000000,6,1.000000,0.000000,5.231034,0,0,0,0,0,0,0
2,29999,32,20000,68,10000,49,9999,0.100000,0,0,0.000000,6,1.000000,0.000000,4.320833,0,0,0,0,0,0,0
2,29999,33,20000,73,0,40,9999,0.100000,0,0,0.000000,5,0.000000,0.000000,2.210521,0,0,0,0,0,0,0
2,29999,34,20000,68,10000,49,9999,0.100000,0,0,0.000000,5,1.000000,0.000000,4.165642,0,0,0,0,0,0,0
2,29999,35,20000,47,0,49,9999,0.100000,0,0,0.000000,5,3.000000,0.000000,7.030622,0,0,0,0,0,0,0
2,29999,36,20000,19,0,49,9999,0.100000,0,0,0.000000,5,2.000000,0.000000,2.675693,0,0,0,0,0,0,0
2,29999,37,20000,19,0,99,9999,0.100000,0,0,34.210526,5,4.000000,0.000000,12.804793,0,0,1,0,0,0,0
2,29999,38,20000,19,0,49,9999,0.100000,0,0,0.000000,5,2.000000,0.000000,4.986140,0,0,0,0,0,0,0
2,29999,39,20000,47,0,49,9999,0.100000,0,0,0.000000,5,1.000000,0.000000,5.778627,0,0,0,0,0,0,0
2,29999,40,20000,66,10000,49,9999,0.100000,0,0,0.000000,6,3.000000,0.000000,8.983698,0,0,0,0,0,0,0
2,29999,41,20000,73,0,49,9999,0.100000,0,0,0.000000,4,4.000000,0.000000,20.802909,0,0,0,0,0,0,0
2,29999,42,20000,19,0,40,9999,0.100000,0,0,0.000000,5,0.000000,0.000000,2.733100,0,0,0,0,0,0,0
2,29999,43,20000,15,10000,40,9999,0.100000,0,0,0.000000,5,0.000000,0.000000,21.280151,0,0,0,0,0,0,0
2,29999,44,20000,66,10000,49,9999,0.100000,0,0,0.000000,6,1.000000,0.000000,3.091586,0,0,0,0,0,0,0
2,29999,45,20000,15,10000,40,9999,0.100000,0,0,0.000000,5,0.000000,0.000000,0.612484,0,0,0,0,0,0,0
2,29999,46,20000,47,0,49,9999,0.100000,0,0,0.000000,5,3.000000,0.000000,7.574727,0,0,0,0,0,0,0
2,29999,47,20000,47,0,40,9999,0.100000,0,0,0.000000,4,0.000000,0.000000,5.537425,0,0,0,0,0,0,0
2,29999,48,20000,19,0,49,9999,0.100000,0,0,0.000000,5,1.000000,0.000000,5.093636,0,0,0,0,0,0,0
2,29999,49,20000,47,0,49,9999,0.100000,0,0,0.000000,5,2.000000,0.000000,6.082583,0,0,0,0,0,0,0
2,29999,50,20000,19,0,49,9999,0.100000,0,0,0.000000,5,1.000000,0.000000,1.871522,0,0,0,0,0,0,0
2,29999,51,20000,47,0,49,9999,0.100000,0,0,0.000000,4,2.000000,0.000000,5.640327,0,0,0,0,0,0,0
2,29999,52,20000,73,0,40,9999,0.100000,0,0,0.000000,5,0.000000,0.000000,0.667494,0,0,0,0,0,0,0
2,29999,53,20000,19,0,49,9999,0.100000,0,0,0.000000,5,1.000000,0.000000,11.680940,0,0,0,0,0,0,0
2,29999,54,20000,68,10000,40,9999,0.100000,0,0,0.000000,5,0.000000,0.000000,0.148431,0,0,0,0,0,0,0
2,29999,55,20000,19,0,49,9999,0.100000,0,0,0.000000,5,4.000000,0.000000,11.524340,0,0,0,0,0,0,0
2,29999,56,20000,73,0,49,9999,0.100000,0,0,0.000000,5,1.000000,0.000000,15.113419,0,0,0,0,0,0,0
2,29999,57,20000,73,0,49,9999,0.100000,0,0,0.000000,5,7.000000,0.000000,8.509174,0,0,0,0,0,0,0
2,29999,58,20000,68,0,49,9999,0.100000,0,0,0.000000,5,3.000000,0.000000,5.773715,0,0,0,0,0,0,0
2,29999,59,20000,19,0,99,9999,0.100000,0,0,34.210526,5,2.000000,0.000000,14.118147,0,0,1,0,0,0,0
2,29999,60,20000,47,0,49,9999,0.100000,0,0,0.000000,5,4.000000,0.000000,6.036633,0,0,0,0,0,0,0
2,29999,61,20000,19,0,49,9999,0.100000,0,0,0.000000,5,2.000000,0.000000,6.188092,0,0,0,0,0,0,0
2,29999,62,20000,15,10000,40,9999,0.100000,0,0,0.000000,5,0.000000,0.000000,0.701504,0,0,0,0,0,0,0
2,29999,63,20000,47,0,40,9999,0.100000,0,0,0.000000,5,0.000000,0.000000,6.164694,0,0,0,0,0,0,0
2,29999,64,20000,73,0,49,9999,0.100000,0,0,0.000000,5,3.000000,0.000000,18.111308,0,0,0,0,0,0,0
2,29999,65,20000,36,10000,49,9999,0.100000,0,0,0.000000,6,7.000000,0.000000,14.143968,0,0,0,0,0,0,0
2,29999,66,20000,66,10000,99,9999,0.100000,0,0,34.210526,6,5.000000,0.000000,17.537756,0,0,1,0,0,0,0
2,29999,67,20000,47,0,49,9999,0.100000,0,0,0.000000,5,3.000000,0.000000,6.626420,0,0,0,0,0,0,0
2,29999,68,20000,47,0,40,9999,0.100000,0,0,0.000000,5,0.000000,0.000000,0.082669,0,0,0,0,0,0,0
2,29999,69,20000,47,0,49,9999,0.100000,0,0,0.000000,6,2.000000,0.000000,3.817427,0,0,0,0,0,0,0
2,29999,70,20000,73,0,40,9999,0.100000,0,0,0.000000,6,0.000000,0.000000,0.706235,0,0,0,0,0,0,0
2,29999,71,20000,68,0,49,9999,0.100000,0,0,0.000000,5,7.000000,0.000000,13.050685,0,0,0,0,0,0,0
2,29999,72,20000,68,0,49,9999,0.100000,0,0,0.000000,5,1.000000,0.000000,2.793171,0,0,0,0,0,0,0
2,29999,73,20000,68,10000,49,9999,0.100000,0,0,0.000000,5,1.000000,0.000000,1.561453,0,0,0,0,0,0,0
2,29999,74,20000,15,10000,49,9999,0.100000,0,0,0.000000,5,2.000000,0.000000,2.967710,0,0,0,0,0,0,0
2,29999,75,20000,73,0,49,9999,0.100000,0,0,0.000000,5,4.000000,0.000000,19.128024,0,0,0,0,0,0,0
2,29999,76,20000,73,0,40,9999,0.100000,0,0,0.000000,5,0.000000,0.000000,0.172018,0,0,0,0,0,0,0
2,29999,77,20000,15,10000,40,9999,0.100000,0,0,0.000000,5,0.000000,0.000000,0.866657,0,0,0,0,0,0,0
2,29999,78,20000,47,0,40,9999,0.100000,0,0,0.000000,5,0.000000,0.000000,5.076653,0,0,0,0,0,0,0
2,29999,79,20000,73,0,49,9999,0.100000,0,0,0.000000,6,1.000000,0.000000,3.767314,0,0,0,0,0,0,0
2,29999,80,20000,47,0,49,9999,0.100000,0,0,0.000000,6,2.000000,0.000000,2.820588,0,0,0,0,0,0,0
2,29999,81,20000,19,0,49,9999,0.100000,0,0,0.000000,6,1.000000,0.000000,12.399754,0,0,0,0,0,0,0
2,29999,82,20000,68,0,49,9999,0.100000,0,0,0.000000,5,1.000000,0.000000,19.606586,0,0,0,0,0,0,0
2,29999,83,20000,73,0,49,9999,0.100000,0,0,0.000000,5,4.000000,0.000000,24.061733,0,0,0,0,0,0,0
2,29999,84,20000,47,0,40,9999,0.100000,0,0,0.000000,6,0.000000,0.000000,1.031480,0,0,0,0,0,0,0
2,29999,85,20000,15,10000,49,9999,0.100000,0,0,0.000000,5,3.000000,0.000000,3.704163,0,0,0,0,0,0,0
2,29999,86,20000,19,0,49,9999,0.100000,0,0,0.000000,5,2.000000,0.000000,18.844102,0,0,0,0,0,0,0
2,29999,87,20000,47,0,40,9999,0.100000,0,0,0.000000,5,0.000000,0.000000,2.996789,0,0,0,0,0,0,0
2,29999,88,20000,19,0,40,9999,0.100000,0,0,0.000000,5,0.000000,0.000000,0.980300,0,0,0,0,0,0,0
2,29999,89,20000,73,0,40,9999,0.100000,0,0,0.000000,5,0.000000,0.000000,0.240963,0,0,0,0,0,0,0
2,29999,90,20000,19,0,40,9999,0.100000,0,0,0.000000,6,0.000000,0.000000,0.129186,0,0,0,0,0,0,0
2,29999,91,20000,66,10000,40,9999,0.100000,0,0,0.000000,6,0.000000,0.000000,1.076059,0,0,0,0,0,0,0
2,29999,92,20000,68,10000,49,9999,0.100000,0,0,0.000000,6,1.000000,0.000000,8.902632,0,0,0,0,0,0,0
2,29999,93,20000,36,10000,49,9999,0.100000,0,0,0.000000,5,3.000000,0.000000,17.459980,0,0,0,0,0,0,0
2,29999,94,20000,19,0,49,9999,0.100000,0,0,0.000000,5,1.000000,0.000000,2.313166,0,0,0,0,0,0,0
2,29999,95,20000,47,0,49,9999,0.100000,0,0,0.000000,5,3.000000,0.000000,9.738271,0,0,0,0,0,0,0
2,29999,96,20000,68,0,40,9999,0.100000,0,0,0.000000,5,0.000000,0.000000,0.148991,0,0,0,0,0,0,0
2,29999,97,20000,15,10000,49,9999,0.100000,0,0,0.000000,5,2.000000,0.000000,15.250538,0,0,0,0,0,0,0
2,29999,98,20000,73,0,49,9999,0.100000,0,0,0.000000,5,5.000000,0.000000,12.489222,0,0,0,0,0,0,0
2,29999,99,20000,47,0,49,9999,0.100000,0,0,0.000000,6,1.000000,0.000000,1.428337,0,0,0,0,0,0,0
3,39999,0,30000,19,0,49,9999,0.100000,0,0,0.000000,6,1.000000,0.000000,12.014757,0,0,0,0,0,0,0
3,39999,1,30000,36,10000,49,9999,0.100000,0,0,0.000000,6,5.000000,0.000000,19.137645,0,0,0,0,0,0,0
3,39999,2,30000,19,0,40,9999,0.100000,0,0,0.000000,6,0.000000,0.000000,2.938256,0,0,0,0,0,0,0
3,39999,3,30000,80,20000,40,9999,0.100000,0,0,0.000000,6,0.000000,0.000000,0.176878,0,0,0,0,0,0,0
3,39999,4,30000,66,10000,40,9999,0.100000,0,0,0.000000,6,0.000000,0.000000,1.197478,0,0,0,0,0,0,0
3,39999,5,30000,66,10000,49,9999,0.100000,0,0,0.000000,6,5.000000,0.000000,18.205723,0,0,0,0,0,0,0
3,39999,6,30000,47,0,40,9999,0.100000,0,0,0.000000,6,0.000000,0.000000,0.169956,0,0,0,0,0,0,0
3,39999,7,30000,73,0,49,9999,0.100000,0,0,0.000000,6,1.000000,0.000000,1.965870,0,0,0,0,0,0,0
3,39999,8,30000,19,0,49,9999,0.100000,0,0,0.000000,6,2.000000,0.000000,16.282725,0,0,0,0,0,0,0
3,39999,9,30000,36,10000,49,9999,0.100000,0,0,0.000000,6,4.000000,0.000000,15.183190,0,0,0,0,0,0,0
3,39999,10,30000,66,10000,49,9999,0.100000,0,0,0.000000,6,2.000000,0.000000,5.505148,0,0,0,0,0,0,0
3,39999,11,30000,66,10000,49,9999,0.100000,0,0,0.000000,6,1.000000,0.000000,2.465978,0,0,0,0,0,0,0
3,39999,12,30000,68,10000,49,9999,0.100000,0,0,0.000000,6,1.000000,0.000000,6.273945,0,0,0,0,0,0,0
3,39999,13,30000,47,0,49,9999,0.100000,0,0,0.000000,6,1.000000,0.000000,1.639000,0,0,0,0,0,0,0
3,39999,14,30000,47,0,49,9999,0.100000,0,0,0.000000,6,11.000000,0.000000,19.856006,0,0,0,0,0,0,0
3,39999,15,30000,47,0,49,9999,0.100000,0,0,0.000000,6,2.000000,0.000000,2.242134,0,0,0,0,0,0,0
3,39999,16,30000,36,10000,49,9999,0.100000,0,0,0.000000,6,1.000000,0.000000,1.765083,0,0,0,0,0,0,0
3,39999,17,30000,47,0,49,9999,0.100000,0,0,0.000000,6,2.000000,0.000000,5.626394,0,0,0,0,0,0,0
3,39999,18,30000,66,10000,40,9999,0.100000,0,0,0.000000,6,0.000000,0.000000,1.425943,0,0,0,0,0,0,0
3,39999,19,30000,47,0,40,9999,0.100000,0,0,0.000000,6,0.000000,0.000000,2.372352,0,0,0,0,0,0,0
3,39999,20,30000,80,20000,40,9999,0.100000,0,0,0.000000,6,0.000000,0.000000,6.851629,0,0,0,0,0,0,0
3,39999,21,30000,68,10000,49,9999,0.100000,0,0,0.000000,6,1.000000,0.000000,1.721998,0,0,0,0,0,0,0
3,39999,22,30000,68,10000,49,9999,0.100000,0,0,0.000000,6,1.000000,0.000000,6.878350,0,0,0,0,0,0,0
3,39999,23,30000,66,10000,49,9999,0.100000,0,0,0.000000,6,3.000000,0.000000,9.333946,0,0,0,0,0,0,0
3,39999,24,30000,66,10000,49,9999,0.100000,0,0,0.000000,6,1.000000,0.000000,1.834245,0,0,0,0,0,0,0
3,39999,25,30000,47,0,49,9999,0.100000,0,0,0.000000,6,1.000000,0.000000,2.601984,0,0,0,0,0,0,0
3,39999,26,30000,47,0,49,9999,0.100000,0,0,0.000000,6,1.000000,0.000000,5.437347,0,0,0,0,0,0,0
3,39999,27,30000,47,0,49,9999,0.100000,0,0,0.000000,6,1.000000,0.000000,4.567868,0,0,0,0,0,0,0
3,39999,28,30000,80,20000,40,9999,0.100000,0,0,0.000000,6,0.000000,0.000000,0.173536,0,0,0,0,0,0,0
3,39999,29,30000,66,10000,40,9999,0.100000,0,0,0.000000,6,0.000000,0.000000,0.128128,0,0,0,0,0,0,0
3,39999,30,30000,68,10000,49,9999,0.100000,0,0,0.000000,6,2.000000,0.000000,5.533640,0,0,0,0,0,0,0
3,39999,31,30000,66,10000,40,9999,0.100000,0,0,0.000000,6,0.000000,0.000000,0.814201,0,0,0,0,0,0,0
3,39999,32,30000,19,0,49,9999,0.100000,0,0,0.000000,6,2.000000,0.000000,14.088772,0,0,0,0,0,0,0
3,39999,33,30000,36,10000,40,9999,0.100000,0,0,0.000000,6,0.000000,0.000000,1.744130,0,0,0,0,0,0,0
3,39999,34,30000,73,0,49,9999,0.100000,0,0,0.000000,6,5.000000,0.000000,19.764987,0,0,0,0,0,0,0
3,39999,35,30000,80,20000,49,9999,0.100000,0,0,0.000000,6,2.000000,0.000000,5.463094,0,0,0,0,0,0,0
3,39999,36,30000,80,20000,49,9999,0.100000,0,0,0.000000,6,3.000000,0.000000,6.202170,0,0,0,0,0,0,0
3,39999,37,30000,66,10000,49,9999,0.100000,0,0,0.000000,6,5.000000,0.000000,12.386500,0,0,0,0,0,0,0
3,39999,38,30000,73,0,40,9999,0.100000,0,0,0.000000,6,0.000000,0.000000,0.510213,0,0,0,0,0,0,0
3,39999,39,30000,73,0,40,9999,0.100000,0,0,0.000000,6,0.000000,0.000000,0.239404,0,0,0,0,0,0,0
3,39999,40,30000,66,10000,49,9999,0.100000,0,0,0.000000,6,1.000000,0.000000,6.568748,0,0,0,0,0,0,0
3,39999,41,30000,36,10000,49,9999,0.100000,0,0,0.000000,6,3.000000,0.000000,11.758058,0,0,0,0,0,0,0
3,39999,42,30000,19,0,40,9999,0.100000,0,0,0.000000,6,0.000000,0.000000,1.973426,0,0,0,0,0,0,0
3,39999,43,30000,80,20000,40,9999,0.100000,0,0,0.000000,6,0.000000,0.000000,8.605865,0,0,0,0,0,0,0
3,39999,44,30000,19,0,49,9999,0.100000,0,0,0.000000,6,3.000000,0.000000,13.801000,0,0,0,0,0,0,0
3,39999,45,30000,19,0,49,9999,0.100000,0,0,0.000000,6,1.000000,0.000000,1.862853,0,0,0,0,0,0,0
3,39999,46,30000,19,0,49,9999,0.100000,0,0,0.000000,6,3.000000,0.000000,9.191528,0,0,0,0,0,0,0
3,39999,47,30000,36,10000,49,9999,0.065000,0,0,0.000000,6,4.000000,0.000000,8.910233,0,0,0,0,0,0,0
3,39999,48,30000,68,10000,49,9999,0.100000,0,0,0.000000,6,1.000000,0.000000,8.301458,0,0,0,0,0,0,0
3,39999,49,30000,66,10000,49,9999,0.100000,0,0,0.000000,6,6.000000,0.000000,9.303556,0,0,0,0,0,0,0
3,39999,50,30000,73,0,49,9999,0.100000,0,0,0.000000,6,1.000000,0.000000,1.894567,0,0,0,0,0,0,0
3,39999,51,30000,80,20000,49,9999,0.100000,0,0,0.000000,6,1.000000,0.000000,24.183882,0,0,0,0,0,0,0
3,39999,52,30000,68,10000,40,9999,0.100000,0,0,0.000000,6,0.000000,0.000000,1.174431,0,0,0,0,0,0,0
3,39999,53,30000,47,0,40,9999,0.100000,0,0,0.000000,6,0.000000,0.000000,19.879416,0,0,0,0,0,0,0
3,39999,54,30000,73,0,40,9999,0.100000,0,0,0.000000,6,0.000000,0.000000,0.641145,0,0,0,0,0,0,0
3,39999,55,30000,73,0,49,9999,0.100000,0,0,0.000000,6,1.000000,0.000000,21.214608,0,0,0,0,0,0,0
3,39999,56,30000,19,0,49,9999,0.100000,0,0,0.000000,6,2.000000,0.000000,12.817452,0,0,0,0,0,0,0
3,39999,57,30000,19,0,49,9999,0.100000,0,0,0.000000,6,3.000000,0.000000,4.367059,0,0,0,0,0,0,0
3,39999,58,30000,73,0,49,9999,0.100000,0,0,0.000000,6,10.000000,0.000000,12.118801,0,0,0,0,0,0,0
3,39999,59,30000,47,0,40,9999,0.100000,0,0,0.000000,6,0.000000,0.000000,0.752542,0,0,0,0,0,0,0
3,39999,60,30000,19,0,49,9999,0.100000,0,0,0.000000,6,9.000000,0.000000,13.246571,0,0,0,0,0,0,0
3,39999,61,30000,36,10000,49,9999,0.100000,0,0,0.000000,6,12.000000,0.000000,18.098060,0,0,0,0,0,0,0
3,39999,62,30000,47,0,49,9999,0.100000,0,0,0.000000,6,1.000000,0.000000,9.592630,0,0,0,0,0,0,0
3,39999,63,30000,73,0,49,9999,0.100000,0,0,0.000000,6,2.000000,0.000000,21.474297,0,0,0,0,0,0,0
3,39999,64,30000,47,0,49,9999,0.100000,0,0,0.000000,6,3.000000,0.000000,6.242583,0,0,0,0,0,0,0
3,39999,65,30000,73,0,49,9999,0.100000,0,0,0.000000,6,3.000000,0.000000,22.894864,0,0,0,0,0,0,0
3,39999,66,30000,73,0,49,9999,0.100000,0,0,0.000000,6,4.000000,0.000000,22.833100,0,0,0,0,0,0,0
3,39999,67,30000,68,10000,40,9999,0.100000,0,0,0.000000,6,0.000000,0.000000,0.614502,0,0,0,0,0,0,0
3,39999,68,30000,47,0,40,9999,0.100000,0,0,0.000000,6,0.000000,0.000000,0.233035,0,0,0,0,0,0,0
3,39999,69,30000,66,10000,40,9999,0.100000,0,0,0.000000,6,0.000000,0.000000,2.397079,0,0,0,0,0,0,0
3,39999,70,30000,68,10000,40,9999,0.100000,0,0,0.000000,6,0.000000,0.000000,0.512886,0,0,0,0,0,0,0
3,39999,71,30000,47,0,40,9999,0.100000,0,0,0.000000,6,0.000000,0.000000,1.565807,0,0,0,0,0,0,0
3,39999,72,30000,68,10000,49,9999,0.100000,0,0,0.000000,6,3.000000,0.000000,8.496666,0,0,0,0,0,0,0
3,39999,73,30000,73,0,40,9999,0.100000,0,0,0.000000,6,0.000000,0.000000,0.282299,0,0,0,0,0,0,0
3,39999,74,30000,19,0,40,9999,0.100000,0,0,0.000000,6,0.000000,0.000000,1.347976,0,0,0,0,0,0,0
3,39999,75,30000,47,0,49,9999,0.100000,0,0,0.000000,6,2.000000,0.000000,7.148308,0,0,0,0,0,0,0
3,39999,76,30000,73,0,40,9999,0.100000,0,0,0.000000,6,0.000000,0.000000,0.241981,0,0,0,0,0,0,0
3,39999,77,30000,36,10000,49,9999,0.100000,0,0,0.000000,6,5.000000,0.000000,14.130541,0,0,0,0,0,0,0
3,39999,78,30000,36,10000,49,9999,0.100000,0,0,0.000000,6,4.000000,0.000000,10.752980,0,0,0,0,0,0,0
3,39999,79,30000,80,20000,40,9999,0.100000,0,0,0.000000,6,0.000000,0.000000,0.459996,0,0,0,0,0,0,0
3,39999,80,30000,19,0,40,9999,0.100000,0,0,0.000000,6,0.000000,0.000000,2.523294,0,0,0,0,0,0,0
3,39999,81,30000,68,10000,49,9999,0.100000,0,0,0.000000,6,1.000000,0.000000,6.060308,0,0,0,0,0,0,0
3,39999,82,30000,73,0,49,9999,0.100000,0,0,0.000000,6,2.000000,0.000000,22.025288,0,0,0,0,0,0,0
3,39999,83,30000,19,0,49,9999,0.100000,0,0,0.000000,6,6.000000,0.000000,18.402169,0,0,0,0,0,0,0
3,39999,84,30000,36,10000,40,9999,0.100000,0,0,0.000000,6,0.000000,0.000000,0.836880,0,0,0,0,0,0,0
3,39999,85,30000,80,20000,40,9999,0.100000,0,0,0.000000,6,0.000000,0.000000,0.154387,0,0,0,0,0,0,0
3,39999,86,30000,19,0,40,9999,0.100000,0,0,0.000000,6,0.000000,0.000000,3.123453,0,0,0,0,0,0,0
3,39999,87,30000,68,10000,49,9999,0.100000,0,0,0.000000,6,2.000000,0.000000,5.870690,0,0,0,0,0,0,0
3,39999,88,30000,80,20000,49,9999,0.100000,0,0,0.000000,6,1.000000,0.000000,2.089784,0,0,0,0,0,0,0
3,39999,89,30000,47,0,40,9999,0.100000,0,0,0.000000,6,0.000000,0.000000,0.398062,0,0,0,0,0,0,0
3,39999,90,30000,47,0,40,9999,0.100000,0,0,0.000000,6,0.000000,0.000000,0.589792,0,0,0,0,0,0,0
3,39999,91,30000,68,10000,49,9999,0.100000,0,0,0.000000,6,1.000000,0.000000,2.142810,0,0,0,0,0,0,0
3,39999,92,30000,19,0,49,9999,0.100000,0,0,0.000000,6,4.000000,0.000000,7.475246,0,0,0,0,0,0,0
3,39999,93,30000,73,0,49,9999,0.100000,0,0,0.000000,6,5.000000,0.000000,18.058515,0,0,0,0,0,0,0
3,39999,94,30000,36,10000,49,9999,0.100000,0,0,0.000000,6,1.000000,0.000000,15.253457,0,0,0,0,0,0,0
3,39999,95,30000,68,10000,99,9999,0.100000,0,0,34.210526,6,2.000000,0.000000,8.586157,0,0,1,0,0,0,0
3,39999,96,30000,73,0,49,9999,0.100000,0,0,0.000000,6,7.000000,0.000000,7.325858,0,0,0,0,0,0,0
3,39999,97,30000,19,0,49,9999,0.100000,0,0,0.000000,6,2.000000,0.000000,10.802585,0,0,0,0,0,0,0
3,39999,98,30000,47,0,49,9999,0.100000,0,0,0.000000,6,2.000000,0.000000,19.091789,0,0,0,0,0,0,0
3,39999,99,30000,68,10000,49,9999,0.100000,0,0,0.000000,6,1.000000,0.000000,1.757424,0,0,0,0,0,0,0
4,49999,0,40000,19,0,49,9999,0.100000,0,0,0.000000,6,1.000000,0.000000,8.799789,0,0,0,0,0,0,0
4,49999,1,40000,68,10000,49,9999,0.100000,0,0,0.000000,6,1.000000,0.000000,12.260550,0,0,0,0,0,0,0
4,49999,2,40000,19,0,49,9999,0.100000,0,0,0.000000,6,4.000000,0.000000,22.961469,0,0,0,0,0,0,0
4,49999,3,40000,66,10000,40,9999,0.100000,0,0,0.000000,6,0.000000,0.000000,0.215680,0,0,0,0,0,0,0
4,49999,4,40000,68,10000,49,9999,0.100000,0,0,0.000000,6,1.000000,0.000000,4.562309,0,0,0,0,0,0,0
4,49999,5,40000,19,0,49,9999,0.100000,0,0,0.000000,6,1.000000,0.000000,5.334304,0,0,0,0,0,0,0
4,49999,6,40000,19,0,40,9999,0.100000,0,0,0.000000,6,0.000000,0.000000,0.180538,0,0,0,0,0,0,0
4,49999,7,40000,68,10000,49,9999,0.100000,0,0,0.000000,6,1.000000,0.000000,1.552552,0,0,0,0,0,0,0
4,49999,8,40000,66,10000,40,9999,0.100000,0,0,0.000000,6,0.000000,0.000000,7.346695,0,0,0,0,0,0,0
4,49999,9,40000,66,10000,49,9999,0.100000,0,0,0.000000,6,6.000000,0.000000,18.969086,0,0,0,0,0,0,0
4,49999,10,40000,80,20000,49,9999,0.100000,0,0,0.000000,6,2.000000,0.000000,4.393029,0,0,0,0,0,0,0
4,49999,11,40000,68,10000,40,9999,0.100000,0,0,0.000000,6,0.000000,0.000000,2.698938,0,0,0,0,0,0,0
4,49999,12,40000,80,20000,40,9999,0.100000,0,0,0.000000,6,0.000000,0.000000,23.060771,0,0,0,0,0,0,0
4,49999,13,40000,68,10000,49,9999,0.100000,0,0,0.000000,6,3.000000,0.000000,5.592607,0,0,0,0,0,0,0
4,49999,14,40000,47,0,49,9999,0.100000,0,0,0.000000,6,9.000000,0.000000,18.300086,0,0,0,0,0,0,0
4,49999,15,40000,80,20000,40,9999,0.100000,0,0,0.000000,6,0.000000,0.000000,1.447240,0,0,0,0,0,0,0
4,49999,16,40000,19,0,40,9999,0.100000,0,0,0.000000,6,0.000000,0.000000,0.136420,0,0,0,0,0,0,0
4,49999,17,40000,47,0,40,9999,0.100000,0,0,0.000000,6,0.000000,0.000000,0.142439,0,0,0,0,0,0,0
4,49999,18,40000,19,0,40,9999,0.100000,0,0,0.000000,6,0.000000,0.000000,0.334979,0,0,0,0,0,0,0
4,49999,19,40000,68,10000,40,9999,0.100000,0,0,0.000000,6,0.000000,0.000000,0.669953,0,0,0,0,0,0,0
4,49999,20,40000,19,0,49,9999,0.100000,0,0,0.000000,6,5.000000,0.000000,17.039688,0,0,0,0,0,0,0
4,49999,21,40000,73,0,49,9999,0.100000,0,0,0.000000,6,3.000000,0.000000,4.733752,0,0,0,0,0,0,0
4,49999,22,40000,19,0,49,9999,0.100000,0,0,0.000000,6,1.000000,0.000000,10.688742,0,0,0,0,0,0,0
4,49999,23,40000,68,10000,49,9999,0.100000,0,0,0.000000,6,1.000000,0.000000,4.935492,0,0,0,0,0,0,0
4,49999,24,40000,47,0,49,9999,0.100000,0,0,0.000000,6,1.000000,0.000000,1.487668,0,0,0,0,0,0,0
4,49999,25,40000,66,10000,49,9999,0.100000,0,0,0.000000,6,5.000000,0.000000,7.930048,0,0,0,0,0,0,0
4,49999,26,40000,80,20000,49,9999,0.100000,0,0,0.000000,6,2.000000,0.000000,4.221194,0,0,0,0,0,0,0
4,49999,27,40000,80,20000,49,9999,0.100000,0,0,0.000000,6,4.000000,0.000000,4.960705,0,0,0,0,0,0,0
4,49999,28,40000,19,0,40,9999,0.100000,0,0,0.000000,6,0.000000,0.000000,0.179858,0,0,0,0,0,0,0
4,49999,29,40000,66,10000,40,9999,0.100000,0,0,0.000000,6,0.000000,0.000000,0.415305,0,0,0,0,0,0,0
4,49999,30,40000,47,0,49,9999,0.100000,0,0,0.000000,6,2.000000,0.000000,5.111642,0,0,0,0,0,0,0
4,49999,31,40000,47,0,49,9999,0.100000,0,0,0.000000,6,1.000000,0.000000,5.080083,0,0,0,0,0,0,0
4,49999,32,40000,73,0,49,9999,0.100000,0,0,0.000000,6,2.000000,0.000000,27.968133,0,0,0,0,0,0,0
4,49999,33,40000,66,10000,40,9999,0.065000,0,0,0.000000,6,0.000000,0.000000,1.480338,0,0,0,0,0,0,0
4,49999,34,40000,19,0,49,9999,0.100000,0,0,0.000000,6,1.000000,0.000000,12.735949,0,0,0,0,0,0,0
4,49999,35,40000,47,0,49,9999,0.100000,0,0,0.000000,6,2.000000,0.000000,5.515614,0,0,0,0,0,0,0
4,49999,36,40000,47,0,40,9999,0.100000,0,0,0.000000,6,0.000000,0.000000,3.796030,0,0,0,0,0,0,0
4,49999,37,40000,47,0,49,9999,0.100000,0,0,0.000000,6,1.000000,0.000000,10.062342,0,0,0,0,0,0,0
4,49999,38,40000,73,0,40,9999,0.100000,0,0,0.000000,6,0.000000,0.000000,1.664380,0,0,0,0,0,0,0
4,49999,39,40000,47,0,40,9999,0.100000,0,0,0.000000,6,0.000000,0.000000,0.245887,0,0,0,0,0,0,0
4,49999,40,40000,47,0,40,9999,0.100000,0,0,0.000000,6,0.000000,0.000000,1.645910,0,0,0,0,0,0,0
4,49999,41,40000,80,20000,49,9999,0.100000,0,0,0.000000,6,3.000000,0.000000,15.022206,0,0,0,0,0,0,0
4,49999,42,40000,80,20000,40,9999,0.100000,0,0,0.000000,6,0.000000,0.000000,2.135878,0,0,0,0,0,0,0
4,49999,43,40000,68,10000,40,9999,0.100000,0,0,0.000000,6,0.000000,0.000000,5.546483,0,0,0,0,0,0,0
4,49999,44,40000,68,10000,49,9999,0.100000,0,0,0.000000,6,2.000000,0.000000,21.728993,0,0,0,0,0,0,0
4,49999,45,40000,66,10000,49,9999,0.100000,0,0,0.000000,6,3.000000,0.000000,4.739915,0,0,0,0,0,0,0
4,49999,46,40000,66,10000,49,9999,0.100000,0,0,0.000000,6,7.000000,0.000000,14.212658,0,0,0,0,0,0,0
4,49999,47,40000,73,0,49,9999,0.100000,0,0,0.000000,6,3.000000,0.000000,15.187931,0,0,0,0,0,0,0
4,49999,48,40000,47,0,40,9999,0.100000,0,0,0.000000,6,0.000000,0.000000,1.046173,0,0,0,0,0,0,0
4,49999,49,40000,47,0,49,9999,0.100000,0,0,0.000000,6,3.000000,0.000000,4.913377,0,0,0,0,0,0,0
4,49999,50,40000,68,10000,49,9999,0.100000,0,0,0.000000,6,1.000000,0.000000,1.541837,0,0,0,0,0,0,0
4,49999,51,40000,47,0,40,9999,0.100000,0,0,0.000000,6,0.000000,0.000000,22.597814,0,0,0,0,0,0,0
4,49999,52,40000,73,0,49,9999,0.100000,0,0,0.000000,6,2.000000,0.000000,4.385857,0,0,0,0,0,0,0
4,49999,53,40000,66,10000,40,9999,0.100000,0,0,0.000000,6,0.000000,0.000000,18.486723,0,0,0,0,0,0,0
4,49999,54,40000,68,10000,40,9999,0.100000,0,0,0.000000,6,0.000000,0.000000,0.434037,0,0,0,0,0,0,0
4,49999,55,40000,19,0,49,9999,0.100000,0,0,0.000000,6,2.000000,0.000000,11.910457,0,0,0,0,0,0,0
4,49999,56,40000,68,10000,49,9999,0.100000,0,0,0.000000,6,3.000000,0.000000,4.632435,0,0,0,0,0,0,0
4,49999,57,40000,80,20000,49,9999,0.100000,0,0,0.000000,6,2.000000,0.000000,9.048660,0,0,0,0,0,0,0
4,49999,58,40000,19,0,40,9999,0.100000,0,0,0.000000,6,0.000000,0.000000,4.242997,0,0,0,0,0,0,0
4,49999,59,40000,80,20000,40,9999,0.100000,0,0,0.000000,6,0.000000,0.000000,5.096820,0,0,0,0,0,0,0
4,49999,60,40000,66,10000,49,9999,0.100000,0,0,0.000000,6,5.000000,0.000000,5.131428,0,0,0,0,0,0,0
4,49999,61,40000,19,0,40,9999,0.100000,0,0,0.000000,6,0.000000,0.000000,0.237358,0,0,0,0,0,0,0
4,49999,62,40000,73,0,49,9999,0.100000,0,0,0.000000,6,5.000000,0.000000,18.788901,0,0,0,0,0,0,0
4,49999,63,40000,19,0,40,9999,0.100000,0,0,0.000000,6,0.000000,0.000000,7.176132,0,0,0,0,0,0,0
4,49999,64,40000,73,0,49,9999,0.100000,0,0,0.000000,6,2.000000,0.000000,3.575215,0,0,0,0,0,0,0
4,49999,65,40000,66,10000,49,9999,0.100000,0,0,0.000000,6,5.000000,0.000000,18.479964,0,0,0,0,0,0,0
4,49999,66,40000,80,20000,49,9999,0.100000,0,0,0.000000,6,2.000000,0.000000,7.586106,0,0,0,0,0,0,0
4,49999,67,40000,66,10000,40,9999,0.100000,0,0,0.000000,6,0.000000,0.000000,1.029554,0,0,0,0,0,0,0
4,49999,68,40000,80,20000,40,9999,0.100000,0,0,0.000000,6,0.000000,0.000000,0.484400,0,0,0,0,0,0,0
4,49999,69,40000,80,20000,40,9999,0.100000,0,0,0.000000,6,0.000000,0.000000,1.361975,0,0,0,0,0,0,0
4,49999,70,40000,80,20000,40,9999,0.100000,0,0,0.000000,6,0.000000,0.000000,0.585045,0,0,0,0,0,0,0
4,49999,71,40000,19,0,40,9999,0.100000,0,0,0.000000,6,0.000000,0.000000,1.428742,0,0,0,0,0,0,0
4,49999,72,40000,73,0,49,9999,0.100000,0,0,0.000000,6,5.000000,0.000000,20.270594,0,0,0,0,0,0,0
4,49999,73,40000,47,0,40,9999,0.100000,0,0,0.000000,6,0.000000,0.000000,0.569221,0,0,0,0,0,0,0
4,49999,74,40000,80,20000,40,9999,0.100000,0,0,0.000000,6,0.000000,0.000000,0.820263,0,0,0,0,0,0,0
4,49999,75,40000,66,10000,49,9999,0.100000,0,0,0.000000,6,1.000000,0.000000,23.289598,0,0,0,0,0,0,0
4,49999,76,40000,47,0,40,9999,0.100000,0,0,0.000000,6,0.000000,0.000000,0.294914,0,0,0,0,0,0,0
4,49999,77,40000,47,0,40,9999,0.100000,0,0,0.000000,6,0.000000,0.000000,0.813475,0,0,0,0,0,0,0
4,49999,78,40000,73,0,49,9999,0.100000,0,0,0.000000,6,3.000000,0.000000,8.928679,0,0,0,0,0,0,0
4,49999,79,40000,47,0,40,9999,0.100000,0,0,0.000000,6,0.000000,0.000000,1.694346,0,0,0,0,0,0,0
4,49999,80,40000,80,20000,40,9999,0.100000,0,0,0.000000,6,0.000000,0.000000,0.644730,0,0,0,0,0,0,0
4,49999,81,40000,47,0,49,9999,0.100000,0,0,0.000000,6,5.000000,0.000000,7.772274,0,0,0,0,0,0,0
4,49999,82,40000,19,0,49,9999,0.100000,0,0,0.000000,6,1.000000,0.000000,4.474577,0,0,0,0,0,0,0
4,49999,83,40000,19,0,40,9999,0.100000,0,0,0.000000,6,0.000000,0.000000,0.246515,0,0,0,0,0,0,0
4,49999,84,40000,68,10000,40,9999,0.100000,0,0,0.000000,6,0.000000,0.000000,0.548261,0,0,0,0,0,0,0
4,49999,85,40000,47,0,40,9999,0.100000,0,0,0.000000,6,0.000000,0.000000,0.295631,0,0,0,0,0,0,0
4,49999,86,40000,47,0,40,9999,0.100000,0,0,0.000000,6,0.000000,0.000000,0.280157,0,0,0,0,0,0,0
4,49999,87,40000,73,0,49,9999,0.100000,0,0,0.000000,6,3.000000,0.000000,21.008054,0,0,0,0,0,0,0
4,49999,88,40000,80,20000,40,9999,0.100000,0,0,0.000000,6,0.000000,0.000000,0.997805,0,0,0,0,0,0,0
4,49999,89,40000,47,0,40,9999,0.100000,0,0,0.000000,6,0.000000,0.000000,1.157580,0,0,0,0,0,0,0
4,49999,90,40000,80,20000,40,9999,0.100000,0,0,0.000000,6,0.000000,0.000000,0.960799,0,0,0,0,0,0,0
4,49999,91,40000,19,0,40,9999,0.100000,0,0,0.000000,6,0.000000,0.000000,1.144116,0,0,0,0,0,0,0
4,49999,92,40000,80,20000,40,9999,0.100000,0,0,0.000000,6,0.000000,0.000000,0.081492,0,0,0,0,0,0,0
4,49999,93,40000,80,20000,49,9999,0.100000,0,0,0.000000,6,1.000000,0.000000,5.125262,0,0,0,0,0,0,0
4,49999,94,40000,66,10000,49,9999,0.100000,0,0,0.000000,6,1.000000,0.000000,14.680974,0,0,0,0,0,0,0
4,49999,95,40000,73,0,49,9999,0.100000,0,0,0.000000,6,4.000000,0.000000,22.525333,0,0,0,0,0,0,0
4,49999,96,40000,73,0,49,9999,0.100000,0,0,0.000000,6,4.000000,0.000000,5.135498,0,0,0,0,0,0,0
4,49999,97,40000,19,0,49,9999,0.100000,0,0,0.000000,6,5.000000,0.000000,10.921291,0,0,0,0,0,0,0
4,49999,98,40000,80,20000,49,9999,0.100000,0,0,0.000000,6,1.000000,0.000000,1.760844,0,0,0,0,0,0,0
4,49999,99,40000,19,0,49,9999,0.100000,0,0,0.000000,6,1.000000,0.000000,1.354633,0,0,0,0,0,0,0
5,59999,0,50000,68,10000,40,9999,0.100000,0,0,0.000000,6,0.000000,0.000000,2.775163,0,0,0,0,0,0,0
5,59999,1,50000,80,20000,49,9999,0.100000,0,0,0.000000,6,1.000000,0.000000,7.507931,0,0,0,0,0,0,0
5,59999,2,50000,69,40000,99,9999,0.100000,0,0,50.147491,6,3.000000,0.000000,9.826652,0,0,1,0,0,0,0
5,59999,3,50000,47,0,40,9999,0.100000,0,0,0.000000,6,0.000000,0.000000,0.402818,0,0,0,0,0,0,0
5,59999,4,50000,80,20000,40,9999,0.100000,0,0,0.000000,6,0.000000,0.000000,1.151203,0,0,0,0,0,0,0
5,59999,5,50000,47,0,49,9999,0.100000,0,0,0.000000,6,4.000000,0.000000,18.110261,0,0,0,0,0,0,0
5,59999,6,50000,66,10000,40,9999,0.100000,0,0,0.000000,6,0.000000,0.000000,0.466671,0,0,0,0,0,0,0
5,59999,7,50000,73,0,49,9999,0.100000,0,0,0.000000,6,1.000000,0.000000,1.525719,0,0,0,0,0,0,0
5,59999,8,50000,66,10000,40,9999,0.100000,0,0,0.000000,6,0.000000,0.000000,0.179781,0,0,0,0,0,0,0
5,59999,9,50000,69,40000,49,9999,0.100000,0,0,0.000000,6,7.000000,0.000000,8.549848,0,0,0,0,0,0,0
5,59999,10,50000,80,20000,40,9999,0.100000,0,0,0.000000,6,0.000000,0.000000,1.461595,0,0,0,0,0,0,0
5,59999,11,50000,66,10000,40,9999,0.100000,0,0,0.000000,6,0.000000,0.000000,0.948485,0,0,0,0,0,0,0
5,59999,12,50000,19,0,49,9999,0.100000,0,0,0.000000,6,4.000000,0.000000,15.264245,0,0,0,0,0,0,0
5,59999,13,50000,69,40000,40,9999,0.100000,0,0,0.000000,6,0.000000,0.000000,3.484946,0,0,0,0,0,0,0
5,59999,14,50000,47,0,49,9999,0.100000,0,0,0.000000,6,1.000000,0.000000,7.974054,0,0,0,0,0,0,0
5,59999,15,50000,66,10000,49,9999,0.100000,0,0,0.000000,6,10.000000,0.000000,10.913725,0,0,0,0,0,0,0
5,59999,16,50000,19,0,40,9999,0.100000,0,0,0.000000,6,0.000000,0.000000,0.137020,0,0,0,0,0,0,0
5,59999,17,50000,69,40000,40,9999,0.100000,0,0,0.000000,6,0.000000,0.000000,0.139492,0,0,0,0,0,0,0
5,59999,18,50000,19,0,40,9999,0.100000,0,0,0.000000,6,0.000000,0.000000,0.745316,0,0,0,0,0,0,0
5,59999,19,50000,80,20000,40,9999,0.100000,0,0,0.000000,6,0.000000,0.000000,1.151505,0,0,0,0,0,0,0
5,59999,20,50000,66,10000,49,9999,0.100000,0,0,0.000000,6,1.000000,0.000000,16.141300,0,0,0,0,0,0,0
5,59999,21,50000,66,10000,49,9999,0.100000,0,0,0.000000,6,3.000000,0.000000,8.940585,0,0,0,0,0,0,0
5,59999,22,50000,80,20000,49,9999,0.100000,0,0,0.000000,6,1.000000,0.000000,9.551996,0,0,0,0,0,0,0
5,59999,23,50000,80,20000,49,9999,0.100000,0,0,0.000000,6,2.000000,0.000000,4.181307,0,0,0,0,0,0,0
5,59999,24,50000,68,10000,49,9999,0.100000,0,0,0.000000,6,1.000000,0.000000,1.550624,0,0,0,0,0,0,0
5,59999,25,50000,80,20000,40,9999,0.100000,0,0,0.000000,6,0.000000,0.000000,0.739757,0,0,0,0,0,0,0
5,59999,26,50000,68,10000,49,9999,0.100000,0,0,0.000000,6,8.000000,0.000000,11.637098,0,0,0,0,0,0,0
5,59999,27,50000,80,20000,49,9999,0.100000,0,0,0.000000,6,2.000000,0.000000,5.020067,0,0,0,0,0,0,0
5,59999,28,50000,66,10000,40,9999,0.100000,0,0,0.000000,6,0.000000,0.000000,0.185773,0,0,0,0,0,0,0
5,59999,29,50000,73,0,40,9999,0.100000,0,0,0.000000,6,0.000000,0.000000,0.120730,0,0,0,0,0,0,0
5,59999,30,50000,47,0,49,9999,0.100000,0,0,0.000000,6,2.000000,0.000000,5.855874,0,0,0,0,0,0,0
5,59999,31,50000,66,10000,40,9999,0.100000,0,0,0.000000,6,0.000000,0.000000,0.594278,0,0,0,0,0,0,0
5,59999,32,50000,19,0,49,9999,0.100000,0,0,0.000000,6,1.000000,0.000000,12.804831,0,0,0,0,0,0,0
5,59999,33,50000,80,20000,40,9999,0.100000,0,0,0.000000,6,0.000000,0.000000,1.754817,0,0,0,0,0,0,0
5,59999,34,50000,47,0,40,9999,0.100000,0,0,0.000000,6,0.000000,0.000000,6.553208,0,0,0,0,0,0,0
5,59999,35,50000,69,40000,40,9999,0.100000,0,0,0.000000,6,0.000000,0.000000,2.226590,0,0,0,0,0,0,0
5,59999,36,50000,19,0,49,9999,0.100000,0,0,0.000000,6,3.000000,0.000000,14.225858,0,0,0,0,0,0,0
5,59999,37,50000,66,10000,49,9999,0.100000,0,0,0.000000,6,1.000000,0.000000,8.385473,0,0,0,0,0,0,0
5,59999,38,50000,47,0,40,9999,0.100000,0,0,0.000000,6,0.000000,0.000000,1.198397,0,0,0,0,0,0,0
5,59999,39,50000,47,0,40,9999,0.100000,0,0,0.000000,6,0.000000,0.000000,0.224916,0,0,0,0,0,0,0
5,59999,40,50000,69,40000,40,9999,0.100000,0,0,0.000000,6,0.000000,0.000000,3.033836,0,0,0,0,0,0,0
5,59999,41,50000,66,10000,49,9999,0.100000,0,0,0.000000,6,1.000000,0.000000,15.548952,0,0,0,0,0,0,0
5,59999,42,50000,47,0,40,9999,0.100000,0,0,0.000000,6,0.000000,0.000000,0.620025,0,0,0,0,0,0,0
5,59999,43,50000,47,0,40,9999,0.100000,0,0,0.000000,6,0.000000,0.000000,1.265683,0,0,0,0,0,0,0
5,59999,44,50000,80,20000,40,9999,0.100000,0,0,0.000000,6,0.000000,0.000000,9.583765,0,0,0,0,0,0,0
5,59999,45,50000,47,0,9,9999,0.100000,0,0,34.210526,6,2.000000,0.000000,7.042170,0,0,0,0,1,0,0
5,59999,46,50000,73,0,49,9999,0.100000,0,0,0.000000,6,6.000000,0.000000,14.659122,0,0,0,0,0,0,0
5,59999,47,50000,73,0,49,9999,0.100000,0,0,0.000000,6,1.000000,0.000000,5.213384,0,0,0,0,0,0,0
5,59999,48,50000,66,10000,49,9999,0.100000,0,0,0.000000,6,1.000000,0.000000,3.323291,0,0,0,0,0,0,0
5,59999,49,50000,73,0,49,9999,0.100000,0,0,0.000000,6,12.000000,0.000000,17.032810,0,0,0,0,0,0,0
5,59999,50,50000,68,10000,49,9999,0.100000,0,0,0.000000,6,1.000000,0.000000,1.621767,0,0,0,0,0,0,0
5,59999,51,50000,69,40000,40,9999,0.100000,0,0,0.000000,6,0.000000,0.000000,0.889284,0,0,0,0,0,0,0
5,59999,52,50000,47,0,40,9999,0.100000,0,0,0.000000,6,0.000000,0.000000,1.251793,0,0,0,0,0,0,0
5,59999,53,50000,19,0,49,9999,0.100000,0,0,0.000000,6,1.000000,0.000000,20.920070,0,0,0,0,0,0,0
5,59999,54,50000,69,40000,40,9999,0.100000,0,0,0.000000,6,0.000000,0.000000,0.763674,0,0,0,0,0,0,0
5,59999,55,50000,73,0,40,9999,0.100000,0,0,0.000000,6,0.000000,0.000000,13.683426,0,0,0,0,0,0,0
5,59999,56,50000,73,0,49,9999,0.100000,0,0,0.000000,6,5.000000,0.000000,18.039522,0,0,0,0,0,0,0
5,59999,57,50000,66,10000,40,9999,0.100000,0,0,0.000000,6,0.000000,0.000000,0.669837,0,0,0,0,0,0,0
5,59999,58,50000,66,10000,40,9999,0.100000,0,0,0.000000,6,0.000000,0.000000,0.866816,0,0,0,0,0,0,0
5,59999,59,50000,80,20000,49,9999,0.100000,0,0,0.000000,6,1.000000,0.000000,4.619172,0,0,0,0,0,0,0
5,59999,60,50000,69,40000,49,9999,0.100000,0,0,0.000000,6,4.000000,0.000000,5.704514,0,0,0,0,0,0,0
5,59999,61,50000,19,0,40,9999,0.100000,0,0,0.000000,6,0.000000,0.000000,0.230562,0,0,0,0,0,0,0
5,59999,62,50000,19,0,40,9999,0.100000,0,0,0.000000,6,0.000000,0.000000,0.735303,0,0,0,0,0,0,0
5,59999,63,50000,68,10000,40,9999,0.100000,0,0,0.000000,6,0.000000,0.000000,5.262611,0,0,0,0,0,0,0
5,59999,64,50000,80,20000,40,9999,0.100000,0,0,0.000000,6,0.000000,0.000000,0.474194,0,0,0,0,0,0,0
5,59999,65,50000,69,40000,40,9999,0.100000,0,0,0.000000,6,0.000000,0.000000,0.606883,0,0,0,0,0,0,0
5,59999,66,50000,66,10000,49,9999,0.100000,0,0,0.000000,6,8.000000,0.000000,19.589137,0,0,0,0,0,0,0
5,59999,67,50000,80,20000,40,9999,0.100000,0,0,0.000000,6,0.000000,0.000000,0.534873,0,0,0,0,0,0,0
5,59999,68,50000,2,40000,40,9999,0.100000,0,0,0.000000,6,0.000000,0.000000,0.271773,0,0,0,0,0,0,0
5,59999,69,50000,73,0,49,9999,0.100000,0,0,0.000000,6,9.000000,0.000000,24.902882,0,0,0,0,0,0,0
5,59999,70,50000,66,10000,40,9999,0.100000,0,0,0.000000,6,0.000000,0.000000,0.937867,0,0,0,0,0,0,0
5,59999,71,50000,69,40000,40,9999,0.100000,0,0,0.000000,6,0.000000,0.000000,0.926967,0,0,0,0,0,0,0
5,59999,72,50000,80,20000,40,9999,0.100000,0,0,0.000000,6,0.000000,0.000000,2.211881,0,0,0,0,0,0,0
5,59999,73,50000,19,0,40,9999,0.100000,0,0,0.000000,6,0.000000,0.000000,0.679506,0,0,0,0,0,0,0
5,59999,74,50000,19,0,40,9999,0.100000,0,0,0.000000,6,0.000000,0.000000,0.765454,0,0,0,0,0,0,0
5,59999,75,50000,80,20000,49,9999,0.100000,0,0,0.000000,6,1.000000,0.000000,15.401288,0,0,0,0,0,0,0
5,59999,76,50000,66,10000,40,9999,0.100000,0,0,0.000000,6,0.000000,0.000000,0.229066,0,0,0,0,0,0,0
5,59999,77,50000,80,20000,40,9999,0.100000,0,0,0.000000,6,0.000000,0.000000,0.772292,0,0,0,0,0,0,0
5,59999,78,50000,66,10000,40,9999,0.100000,0,0,0.000000,6,0.000000,0.000000,6.726914,0,0,0,0,0,0,0
5,59999,79,50000,73,0,40,9999,0.100000,0,0,0.000000,6,0.000000,0.000000,0.480462,0,0,0,0,0,0,0
5,59999,80,50000,47,0,49,9999,0.100000,0,0,0.000000,6,3.000000,0.000000,11.155724,0,0,0,0,0,0,0
5,59999,81,50000,80,20000,49,9999,0.100000,0,0,0.000000,6,4.000000,0.000000,5.149361,0,0,0,0,0,0,0
5,59999,82,50000,66,10000,49,9999,0.100000,0,0,0.000000,6,1.000000,0.000000,2.863728,0,0,0,0,0,0,0
5,59999,83,50000,80,20000,40,9999,0.100000,0,0,0.000000,6,0.000000,0.000000,0.237401,0,0,0,0,0,0,0
5,59999,84,50000,19,0,40,9999,0.100000,0,0,0.000000,6,0.000000,0.000000,0.864808,0,0,0,0,0,0,0
5,59999,85,50000,66,10000,40,9999,0.100000,0,0,0.000000,6,0.000000,0.000000,0.203567,0,0,0,0,0,0,0
5,59999,86,50000,2,40000,40,9999,0.100000,0,0,0.000000,6,0.000000,0.000000,0.183651,0,0,0,0,0,0,0
5,59999,87,50000,66,10000,49,9999,0.100000,0,0,0.000000,6,2.000000,0.000000,4.448334,0,0,0,0,0,0,0
5,59999,88,50000,47,0,49,9999,0.100000,0,0,0.000000,6,10.000000,0.000000,11.021026,0,0,0,0,0,0,0
5,59999,89,50000,73,0,40,9999,0.100000,0,0,0.000000,6,0.000000,0.000000,0.868124,0,0,0,0,0,0,0
5,59999,90,50000,19,0,40,9999,0.100000,0,0,0.000000,6,0.000000,0.000000,1.071387,0,0,0,0,0,0,0
5,59999,91,50000,47,0,49,9999,0.100000,0,0,0.000000,6,10.000000,0.000000,10.899926,0,0,0,0,0,0,0
5,59999,92,50000,73,0,40,9999,0.100000,0,0,0.000000,6,0.000000,0.000000,0.083930,0,0,0,0,0,0,0
5,59999,93,50000,80,20000,49,9999,0.100000,0,0,0.000000,6,4.000000,0.000000,18.109762,0,0,0,0,0,0,0
5,59999,94,50000,66,10000,49,9999,0.100000,0,0,0.000000,6,1.000000,0.000000,4.252448,0,0,0,0,0,0,0
5,59999,95,50000,66,10000,49,9999,0.100000,0,0,0.000000,6,3.000000,0.000000,13.976078,0,0,0,0,0,0,0
5,59999,96,50000,80,20000,49,9999,0.100000,0,0,0.000000,6,4.000000,0.000000,6.256822,0,0,0,0,0,0,0
5,59999,97,50000,66,10000,40,9999,0.100000,0,0,0.000000,6,0.000000,0.000000,0.226635,0,0,0,0,0,0,0
5,59999,98,50000,73,0,49,9999,0.100000,0,0,0.000000,6,1.000000,0.000000,4.733312,0,0,0,0,0,0,0
5,59999,99,50000,47,0,49,9999,0.100000,0,0,0.000000,6,1.000000,0.000000,1.236357,0,0,0,0,0,0,0
6,69999,0,60000,80,20000,40,9999,0.100000,0,0,0.000000,6,0.000000,0.000000,2.784329,0,0,0,0,0,0,0
6,69999,1,60000,73,0,49,9999,0.100000,0,0,0.000000,6,7.000000,0.000000,28.276887,0,0,0,0,0,0,0
6,69999,2,60000,19,0,49,9999,0.100000,0,0,0.000000,6,1.000000,0.000000,4.090848,0,0,0,0,0,0,0
6,69999,3,60000,73,0,40,9999,0.100000,0,0,0.000000,6,0.000000,0.000000,0.610427,0,0,0,0,0,0,0
6,69999,4,60000,66,10000,49,9999,0.100000,0,0,0.000000,6,2.000000,0.000000,2.352119,0,0,0,0,0,0,0
6,69999,5,60000,69,40000,49,9999,0.100000,0,0,0.000000,6,3.000000,0.000000,5.942594,0,0,0,0,0,0,0
6,69999,6,60000,80,20000,40,9999,0.100000,0,0,0.000000,6,0.000000,0.000000,0.822637,0,0,0,0,0,0,0
6,69999,7,60000,19,0,40,9999,0.100000,0,0,0.000000,6,0.000000,0.000000,0.771823,0,0,0,0,0,0,0
6,69999,8,60000,66,10000,40,9999,0.100000,0,0,0.000000,6,0.000000,0.000000,0.242649,0,0,0,0,0,0,0
6,69999,9,60000,2,40000,49,9999,0.100000,0,0,0.000000,6,1.000000,0.000000,2.772479,0,0,0,0,0,0,0
6,69999,10,60000,73,0,49,9999,0.100000,0,0,0.000000,6,2.000000,0.000000,3.088203,0,0,0,0,0,0,0
6,69999,11,60000,66,50000,40,9999,0.100000,0,0,0.000000,6,0.000000,0.000000,10.897714,0,0,0,0,0,0,0
6,69999,12,60000,19,0,49,9999,0.100000,0,0,0.000000,6,1.000000,0.000000,5.130553,0,0,0,0,0,0,0
6,69999,13,60000,19,0,40,9999,0.100000,0,0,0.000000,6,0.000000,0.000000,3.611954,0,0,0,0,0,0,0
6,69999,14,60000,80,20000,49,9999,0.100000,0,0,0.000000,6,1.000000,0.000000,1.857110,0,0,0,0,0,0,0
6,69999,15,60000,66,10000,9,9999,0.100000,0,0,34.210526,6,7.000000,0.000000,17.866710,0,0,0,0,1,0,0
6,69999,16,60000,73,0,40,9999,0.100000,0,0,0.000000,6,0.000000,0.000000,0.138894,0,0,0,0,0,0,0
6,69999,17,60000,80,20000,49,9999,0.100000,0,0,0.000000,6,1.000000,0.000000,1.723584,0,0,0,0,0,0,0
6,69999,18,60000,73,0,49,9999,0.100000,0,0,0.000000,6,1.000000,0.000000,3.111036,0,0,0,0,0,0,0
6,69999,19,60000,69,40000,49,9999,0.100000,0,0,0.000000,6,1.000000,0.000000,10.720674,0,0,0,0,0,0,0
6,69999,20,60000,73,0,49,9999,0.100000,0,0,0.000000,6,1.000000,0.000000,5.121743,0,0,0,0,0,0,0
6,69999,21,60000,2,40000,49,9999,0.100000,0,0,0.000000,6,1.000000,0.000000,3.140110,0,0,0,0,0,0,0
6,69999,22,60000,80,20000,49,9999,0.100000,0,0,0.000000,6,1.000000,0.000000,2.684289,0,0,0,0,0,0,0
6,69999,23,60000,66,10000,49,9999,0.100000,0,0,0.000000,6,6.000000,0.000000,12.651839,0,0,0,0,0,0,0
6,69999,24,60000,80,20000,40,9999,0.100000,0,0,0.000000,6,0.000000,0.000000,1.884257,0,0,0,0,0,0,0
6,69999,25,60000,66,10000,40,9999,0.100000,0,0,0.000000,6,0.000000,0.000000,1.334574,0,0,0,0,0,0,0
6,69999,26,60000,19,0,49,9999,0.100000,0,0,0.000000,6,4.000000,0.000000,11.943491,0,0,0,0,0,0,0
6,69999,27,60000,2,40000,49,9999,0.100000,0,0,0.000000,6,1.000000,0.000000,7.681761,0,0,0,0,0,0,0
6,69999,28,60000,66,10000,40,9999,0.100000,0,0,0.000000,6,0.000000,0.000000,0.186260,0,0,0,0,0,0,0
6,69999,29,60000,19,0,40,9999,0.100000,0,0,0.000000,6,0.000000,0.000000,0.122511,0,0,0,0,0,0,0
6,69999,30,60000,66,10000,49,9999,0.100000,0,0,0.000000,6,9.000000,0.000000,12.714747,0,0,0,0,0,0,0
6,69999,31,60000,2,40000,40,9999,0.100000,0,0,0.000000,6,0.000000,0.000000,0.649306,0,0,0,0,0,0,0
6,69999,32,60000,80,20000,40,9999,0.100000,0,0,0.000000,6,0.000000,0.000000,2.835823,0,0,0,0,0,0,0
6,69999,33,60000,69,40000,49,9999,0.100000,0,0,0.000000,6,1.000000,0.000000,1.574216,0,0,0,0,0,0,0
6,69999,34,60000,66,10000,49,9999,0.100000,0,0,0.000000,6,3.000000,0.000000,11.621193,0,0,0,0,0,0,0
6,69999,35,60000,66,10000,40,9999,0.100000,0,0,0.000000,6,0.000000,0.000000,1.784338,0,0,0,0,0,0,0
6,69999,36,60000,66,10000,49,9999,0.100000,0,0,0.000000,6,1.000000,0.000000,11.359595,0,0,0,0,0,0,0
6,69999,37,60000,19,0,49,9999,0.100000,0,0,0.000000,6,1.000000,0.000000,1.871855,0,0,0,0,0,0,0
6,69999,38,60000,2,40000,40,9999,0.100000,0,0,0.000000,6,0.000000,0.000000,0.447731,0,0,0,0,0,0,0
6,69999,39,60000,80,20000,40,9999,0.100000,0,0,0.000000,6,0.000000,0.000000,0.236180,0,0,0,0,0,0,0
6,69999,40,60000,73,0,49,9999,0.100000,0,0,0.000000,6,5.000000,0.000000,8.378621,0,0,0,0,0,0,0
6,69999,41,60000,19,0,49,9999,0.100000,0,0,0.000000,6,2.000000,0.000000,10.768585,0,0,0,0,0,0,0
6,69999,42,60000,66,10000,40,9999,0.100000,0,0,0.000000,6,0.000000,0.000000,1.002475,0,0,0,0,0,0,0
6,69999,43,60000,66,10000,40,9999,0.100000,0,0,0.000000,6,0.000000,0.000000,1.308577,0,0,0,0,0,0,0
6,69999,44,60000,73,0,49,9999,0.100000,0,0,0.000000,6,3.000000,0.000000,20.847099,0,0,0,0,0,0,0
6,69999,45,60000,80,20000,49,9999,0.100000,0,0,0.000000,6,1.000000,0.000000,6.253628,0,0,0,0,0,0,0
6,69999,46,60000,2,40000,49,9999,0.100000,0,0,0.000000,6,3.000000,0.000000,19.125167,0,0,0,0,0,0,0
6,69999,47,60000,66,10000,49,9999,0.100000,0,0,0.000000,6,2.000000,0.000000,14.718617,0,0,0,0,0,0,0
6,69999,48,60000,80,20000,40,9999,0.100000,0,0,0.000000,6,0.000000,0.000000,0.686901,0,0,0,0,0,0,0
6,69999,49,60000,66,10000,49,9999,0.100000,0,0,0.000000,6,4.000000,0.000000,6.446694,0,0,0,0,0,0,0
6,69999,50,60000,66,10000,40,9999,0.135000,0,0,0.000000,6,0.000000,0.000000,0.832134,0,0,0,0,0,0,0
6,69999,51,60000,66,10000,40,9999,0.100000,0,0,0.000000,6,0.000000,0.000000,0.961857,0,0,0,0,0,0,0
6,69999,52,60000,19,0,49,9999,0.100000,0,0,0.000000,6,2.000000,0.000000,2.776270,0,0,0,0,0,0,0
6,69999,53,60000,66,10000,40,9999,0.100000,0,0,0.000000,6,0.000000,0.000000,17.278132,0,0,0,0,0,0,0
6,69999,54,60000,73,0,49,9999,0.100000,0,0,0.000000,6,1.000000,0.000000,2.159589,0,0,0,0,0,0,0
6,69999,55,60000,69,40000,40,9999,0.100000,0,0,0.000000,6,0.000000,0.000000,4.170214,0,0,0,0,0,0,0
6,69999,56,60000,73,0,40,9999,0.100000,0,0,0.000000,6,0.000000,0.000000,19.818016,0,0,0,0,0,0,0
6,69999,57,60000,73,0,49,9999,0.100000,0,0,0.000000,6,1.000000,0.000000,2.346555,0,0,0,0,0,0,0
6,69999,58,60000,19,0,40,9999,0.100000,0,0,0.000000,6,0.000000,0.000000,0.921022,0,0,0,0,0,0,0
6,69999,59,60000,69,40000,40,9999,0.100000,0,0,0.000000,6,0.000000,0.000000,3.756628,0,0,0,0,0,0,0
6,69999,60,60000,19,0,49,9999,0.100000,0,0,0.000000,6,1.000000,0.000000,1.655485,0,0,0,0,0,0,0
6,69999,61,60000,80,20000,40,9999,0.100000,0,0,0.000000,6,0.000000,0.000000,0.223605,0,0,0,0,0,0,0
6,69999,62,60000,66,10000,49,9999,0.100000,0,0,0.000000,6,1.000000,0.000000,2.006988,0,0,0,0,0,0,0
6,69999,63,60000,69,40000,49,9999,0.100000,0,0,0.000000,6,2.000000,0.000000,7.293665,0,0,0,0,0,0,0
6,69999,64,60000,66,10000,40,9999,0.100000,0,0,0.000000,6,0.000000,0.000000,0.453029,0,0,0,0,0,0,0
6,69999,65,60000,19,0,40,9999,0.100000,0,0,0.000000,6,0.000000,0.000000,0.603108,0,0,0,0,0,0,0
6,69999,66,60000,19,0,40,9999,0.100000,0,0,0.000000,6,0.000000,0.000000,5.584962,0,0,0,0,0,0,0
6,69999,67,60000,80,20000,40,9999,0.100000,0,0,0.000000,6,0.000000,0.000000,2.927222,0,0,0,0,0,0,0
6,69999,68,60000,80,20000,40,9999,0.100000,0,0,0.000000,6,0.000000,0.000000,0.331765,0,0,0,0,0,0,0
6,69999,69,60000,73,0,99,9999,0.100000,0,0,34.210526,6,13.000000,0.000000,25.538145,0,0,1,0,0,0,0
6,69999,70,60000,66,10000,49,9999,0.100000,0,0,0.000000,6,1.000000,0.000000,2.477891,0,0,0,0,0,0,0
6,69999,71,60000,69,40000,40,9999,0.100000,0,0,0.000000,6,0.000000,0.000000,0.519835,0,0,0,0,0,0,0
6,69999,72,60000,69,40000,40,9999,0.100000,0,0,0.000000,6,0.000000,0.000000,3.503384,0,0,0,0,0,0,0
6,69999,73,60000,19,0,40,9999,0.100000,0,0,0.000000,6,0.000000,0.000000,1.124357,0,0,0,0,0,0,0
6,69999,74,60000,66,10000,49,9999,0.100000,0,0,0.000000,6,2.000000,0.000000,11.868659,0,0,0,0,0,0,0
6,69999,75,60000,2,40000,40,9999,0.100000,0,0,0.000000,6,0.000000,0.000000,14.959557,0,0,0,0,0,0,0
6,69999,76,60000,2,40000,40,9999,0.100000,0,0,0.000000,6,0.000000,0.000000,0.369016,0,0,0,0,0,0,0
6,69999,77,60000,19,0,40,9999,0.100000,0,0,0.000000,6,0.000000,0.000000,1.082825,0,0,0,0,0,0,0
6,69999,78,60000,66,50000,49,9999,0.100000,0,0,0.000000,6,2.000000,0.000000,7.187382,0,0,0,0,0,0,0
6,69999,79,60000,66,50000,40,9999,0.100000,0,0,0.000000,6,0.000000,0.000000,0.385110,0,0,0,0,0,0,0
6,69999,80,60000,66,10000,49,9999,0.100000,0,0,0.000000,6,4.000000,0.000000,12.648571,0,0,0,0,0,0,0
6,69999,81,60000,66,10000,49,9999,0.100000,0,0,0.000000,6,3.000000,0.000000,7.181558,0,0,0,0,0,0,0
6,69999,82,60000,73,0,40,9999,0.100000,0,0,0.000000,6,0.000000,0.000000,2.831261,0,0,0,0,0,0,0
6,69999,83,60000,73,0,40,9999,0.100000,0,0,0.000000,6,0.000000,0.000000,0.233039,0,0,0,0,0,0,0
6,69999,84,60000,66,10000,49,9999,0.100000,0,0,0.000000,6,1.000000,0.000000,2.094738,0,0,0,0,0,0,0
6,69999,85,60000,80,20000,40,9999,0.100000,0,0,0.000000,6,0.000000,0.000000,0.267097,0,0,0,0,0,0,0
6,69999,86,60000,73,0,40,9999,0.100000,0,0,0.000000,6,0.000000,0.000000,0.288886,0,0,0,0,0,0,0
6,69999,87,60000,73,0,49,9999,0.100000,0,0,0.000000,6,2.000000,0.000000,13.085005,0,0,0,0,0,0,0
6,69999,88,60000,69,40000,9,9999,0.100000,0,0,34.210526,6,5.000000,0.000000,10.042840,0,0,0,0,1,0,0
6,69999,89,60000,66,10000,40,9999,0.100000,0,0,0.000000,6,0.000000,0.000000,1.398631,0,0,0,0,0,0,0
6,69999,90,60000,2,40000,49,9999,0.100000,0,0,0.000000,6,2.000000,0.000000,2.380854,0,0,0,0,0,0,0
6,69999,91,60000,73,0,9,9999,0.100000,0,0,34.210526,6,5.000000,0.000000,20.347943,0,0,0,0,1,0,0
6,69999,92,60000,69,40000,40,9999,0.100000,0,0,0.000000,6,0.000000,0.000000,0.087686,0,0,0,0,0,0,0
6,69999,93,60000,19,0,49,9999,0.100000,0,0,0.000000,6,3.000000,0.000000,6.836904,0,0,0,0,0,0,0
6,69999,94,60000,19,0,40,9999,0.100000,0,0,0.000000,6,0.000000,0.000000,1.854816,0,0,0,0,0,0,0
6,69999,95,60000,19,0,49,9999,0.100000,0,0,0.000000,6,2.000000,0.000000,13.702802,0,0,0,0,0,0,0
6,69999,96,60000,73,0,49,9999,0.100000,0,0,0.000000,6,1.000000,0.000000,2.423342,0,0,0,0,0,0,0
6,69999,97,60000,80,20000,40,9999,0.100000,0,0,0.000000,6,0.000000,0.000000,0.223744,0,0,0,0,0,0,0
6,69999,98,60000,69,40000,40,9999,0.100000,0,0,0.000000,6,0.000000,0.000000,4.456208,0,0,0,0,0,0,0
6,69999,99,60000,80,20000,40,9999,0.100000,0,0,0.000000,6,0.000000,0.000000,0.653886,0,0,0,0,0,0,0
7,79999,0,70000,80,20000,40,9999,0.100000,0,0,0.000000,6,0.000000,0.000000,2.630334,0,0,0,0,0,0,0
7,79999,1,70000,66,10000,49,9999,0.100000,0,0,0.000000,6,6.000000,0.000000,8.199561,0,0,0,0,0,0,0
7,79999,2,70000,66,50000,40,9999,0.100000,0,0,0.000000,6,0.000000,0.000000,0.860729,0,0,0,0,0,0,0
7,79999,3,70000,69,40000,40,9999,0.100000,0,0,0.000000,6,0.000000,0.000000,0.748681,0,0,0,0,0,0,0
7,79999,4,70000,73,0,49,9999,0.100000,0,0,0.000000,6,1.000000,0.000000,1.645994,0,0,0,0,0,0,0
7,79999,5,70000,80,20000,49,9999,0.100000,0,0,0.000000,6,11.000000,0.000000,15.782884,0,0,0,0,0,0,0
7,79999,6,70000,73,0,40,9999,0.100000,0,0,0.000000,6,0.000000,0.000000,4.247862,0,0,0,0,0,0,0
7,79999,7,70000,80,20000,40,9999,0.100000,0,0,0.000000,6,0.000000,0.000000,0.354551,0,0,0,0,0,0,0
7,79999,8,70000,66,50000,40,9999,0.100000,0,0,0.000000,6,0.000000,0.000000,0.149114,0,0,0,0,0,0,0
7,79999,9,70000,73,0,40,9999,0.100000,0,0,0.000000,6,0.000000,0.000000,0.241826,0,0,0,0,0,0,0
7,79999,10,70000,80,20000,49,9999,0.135000,0,0,0.000000,6,2.000000,0.000000,3.078227,0,0,0,0,0,0,0
7,79999,11,70000,66,60000,40,9999,0.100000,0,0,0.000000,6,0.000000,0.000000,4.111022,0,0,0,0,0,0,0
7,79999,12,70000,80,20000,49,9999,0.100000,0,0,0.000000,6,1.000000,0.000000,1.350160,0,0,0,0,0,0,0
7,79999,13,70000,73,0,40,9999,0.100000,0,0,0.000000,6,0.000000,0.000000,3.752798,0,0,0,0,0,0,0
7,79999,14,70000,19,0,40,9999,0.100000,0,0,0.000000,6,0.000000,0.000000,1.506222,0,0,0,0,0,0,0
7,79999,15,70000,69,40000,49,9999,0.100000,0,0,0.000000,6,1.000000,0.000000,3.898372,0,0,0,0,0,0,0
7,79999,16,70000,19,0,40,9999,0.100000,0,0,0.000000,6,0.000000,0.000000,0.173751,0,0,0,0,0,0,0
7,79999,17,70000,66,50000,40,9999,0.100000,0,0,0.000000,6,0.000000,0.000000,0.979365,0,0,0,0,0,0,0
7,79999,18,70000,73,0,40,9999,0.100000,0,0,0.000000,6,0.000000,0.000000,0.895535,0,0,0,0,0,0,0
7,79999,19,70000,69,40000,49,9999,0.100000,0,0,0.000000,6,1.000000,0.000000,4.499715,0,0,0,0,0,0,0
7,79999,20,70000,73,0,40,9999,0.100000,0,0,0.000000,6,0.000000,0.000000,0.925855,0,0,0,0,0,0,0
7,79999,21,70000,73,0,49,9999,0.100000,0,0,0.000000,6,2.000000,0.000000,12.277588,0,0,0,0,0,0,0
7,79999,22,70000,69,40000,49,9999,0.100000,0,0,0.000000,6,1.000000,0.000000,2.258740,0,0,0,0,0,0,0
7,79999,23,70000,69,40000,49,9999,0.100000,0,0,0.000000,6,1.000000,0.000000,7.657724,0,0,0,0,0,0,0
7,79999,24,70000,80,20000,49,9999,0.100000,0,0,0.000000,6,18.000000,0.000000,21.017458,0,0,0,0,0,0,0
7,79999,25,70000,66,50000,40,9999,0.100000,0,0,0.000000,6,0.000000,0.000000,5.885181,0,0,0,0,0,0,0
7,79999,26,70000,69,40000,49,9999,0.100000,0,0,0.000000,6,1.000000,0.000000,4.436903,0,0,0,0,0,0,0
7,79999,27,70000,69,40000,49,9999,0.100000,0,0,0.000000,6,2.000000,0.000000,8.524578,0,0,0,0,0,0,0
7,79999,28,70000,66,50000,40,9999,0.100000,0,0,0.000000,6,0.000000,0.000000,0.188567,0,0,0,0,0,0,0
7,79999,29,70000,73,0,40,9999,0.100000,0,0,0.000000,6,0.000000,0.000000,0.127571,0,0,0,0,0,0,0
7,79999,30,70000,19,0,49,9999,0.100000,0,0,0.000000,6,5.000000,0.000000,11.026432,0,0,0,0,0,0,0
7,79999,31,70000,80,20000,40,9999,0.100000,0,0,0.000000,6,0.000000,0.000000,0.848038,0,0,0,0,0,0,0
7,79999,32,70000,19,0,49,9999,0.100000,0,0,0.000000,6,1.000000,0.000000,10.244401,0,0,0,0,0,0,0
7,79999,33,70000,69,40000,49,9999,0.100000,0,0,0.000000,6,1.000000,0.000000,1.341442,0,0,0,0,0,0,0
7,79999,34,70000,66,50000,49,9999,0.100000,0,0,0.000000,6,2.000000,0.000000,11.202867,0,0,0,0,0,0,0
7,79999,35,70000,80,20000,40,9999,0.100000,0,0,0.000000,6,0.000000,0.000000,1.962976,0,0,0,0,0,0,0
7,79999,36,70000,19,0,49,9999,0.100000,0,0,0.000000,6,5.000000,0.000000,18.051046,0,0,0,0,0,0,0
7,79999,37,70000,69,40000,49,9999,0.100000,0,0,0.000000,6,1.000000,0.000000,2.275758,0,0,0,0,0,0,0
7,79999,38,70000,66,50000,40,9999,0.100000,0,0,0.000000,6,0.000000,0.000000,1.075590,0,0,0,0,0,0,0
7,79999,39,70000,69,40000,40,9999,0.100000,0,0,0.000000,6,0.000000,0.000000,0.239316,0,0,0,0,0,0,0
7,79999,40,70000,69,40000,40,9999,0.100000,0,0,0.000000,6,0.000000,0.000000,0.876490,0,0,0,0,0,0,0
7,79999,41,70000,80,20000,49,9999,0.100000,0,0,0.000000,6,3.000000,0.000000,5.267136,0,0,0,0,0,0,0
7,79999,42,70000,66,50000,40,9999,0.100000,0,0,0.000000,6,0.000000,0.000000,0.581869,0,0,0,0,0,0,0
7,79999,43,70000,66,50000,40,9999,0.100000,0,0,0.000000,6,0.000000,0.000000,1.087554,0,0,0,0,0,0,0
7,79999,44,70000,69,40000,40,9999,0.100000,0,0,0.000000,6,0.000000,0.000000,4.347141,0,0,0,0,0,0,0
7,79999,45,70000,69,40000,49,9999,0.100000,0,0,0.000000,6,1.000000,0.000000,7.102079,0,0,0,0,0,0,0
7,79999,46,70000,66,50000,49,9999,0.100000,0,0,0.000000,6,1.000000,0.000000,5.293247,0,0,0,0,0,0,0
7,79999,47,70000,66,50000,49,9999,0.100000,0,0,0.000000,6,3.000000,0.000000,6.168057,0,0,0,0,0,0,0
7,79999,48,70000,73,0,40,9999,0.100000,0,0,0.000000,6,0.000000,0.000000,0.407209,0,0,0,0,0,0,0
7,79999,49,70000,66,50000,49,9999,0.100000,0,0,0.000000,6,5.000000,0.000000,11.439704,0,0,0,0,0,0,0
7,79999,50,70000,80,20000,40,9999,0.100000,0,0,0.000000,6,0.000000,0.000000,2.424066,0,0,0,0,0,0,0
7,79999,51,70000,66,60000,40,9999,0.100000,0,0,0.000000,6,0.000000,0.000000,1.318506,0,0,0,0,0,0,0
7,79999,52,70000,19,0,49,9999,0.100000,0,0,0.000000,6,1.000000,0.000000,2.290358,0,0,0,0,0,0,0
7,79999,53,70000,80,20000,40,9999,0.100000,0,0,0.000000,6,0.000000,0.000000,11.906801,0,0,0,0,0,0,0
7,79999,54,70000,69,40000,40,9999,0.100000,0,0,0.000000,6,0.000000,0.000000,0.719733,0,0,0,0,0,0,0
7,79999,55,70000,66,60000,40,9999,0.100000,0,0,0.000000,6,0.000000,0.000000,11.566538,0,0,0,0,0,0,0
7,79999,56,70000,19,0,40,9999,0.100000,0,0,0.000000,6,0.000000,0.000000,9.446089,0,0,0,0,0,0,0
7,79999,57,70000,73,0,49,9999,0.100000,0,0,0.000000,6,6.000000,0.000000,7.429079,0,0,0,0,0,0,0
7,79999,58,70000,66,50000,40,9999,0.100000,0,0,0.000000,6,0.000000,0.000000,0.736587,0,0,0,0,0,0,0
7,79999,59,70000,73,0,49,9999,0.100000,0,0,0.000000,6,1.000000,0.000000,5.145569,0,0,0,0,0,0,0
7,79999,60,70000,19,0,49,9999,0.100000,0,0,0.000000,6,3.000000,0.000000,10.133985,0,0,0,0,0,0,0
7,79999,61,70000,69,40000,40,9999,0.100000,0,0,0.000000,6,0.000000,0.000000,0.233678,0,0,0,0,0,0,0
7,79999,62,70000,80,20000,49,9999,0.100000,0,0,0.000000,6,2.000000,0.000000,7.701183,0,0,0,0,0,0,0
7,79999,63,70000,69,40000,49,9999,0.100000,0,0,0.000000,6,2.000000,0.000000,17.647581,0,0,0,0,0,0,0
7,79999,64,70000,19,0,40,9999,0.100000,0,0,0.000000,6,0.000000,0.000000,0.385354,0,0,0,0,0,0,0
7,79999,65,70000,73,0,40,9999,0.100000,0,0,0.000000,6,0.000000,0.000000,0.652009,0,0,0,0,0,0,0
7,79999,66,70000,66,60000,99,9999,0.100000,0,0,49.946154,6,1.000000,0.000000,8.502977,0,0,1,0,0,0,0
7,79999,67,70000,66,50000,40,9999,0.100000,0,0,0.000000,6,0.000000,0.000000,7.609064,0,0,0,0,0,0,0
7,79999,68,70000,73,0,40,9999,0.100000,0,0,0.000000,6,0.000000,0.000000,0.194343,0,0,0,0,0,0,0
7,79999,69,70000,66,50000,49,9999,0.100000,0,0,0.000000,6,1.000000,0.000000,12.161299,0,0,0,0,0,0,0
7,79999,70,70000,66,50000,40,9999,0.100000,0,0,0.000000,6,0.000000,0.000000,0.962312,0,0,0,0,0,0,0
7,79999,71,70000,19,0,40,9999,0.100000,0,0,0.000000,6,0.000000,0.000000,0.284653,0,0,0,0,0,0,0
7,79999,72,70000,73,0,49,9999,0.100000,0,0,0.000000,6,2.000000,0.000000,13.974458,0,0,0,0,0,0,0
7,79999,73,70000,73,0,40,9999,0.100000,0,0,0.000000,6,0.000000,0.000000,0.917690,0,0,0,0,0,0,0
7,79999,74,70000,66,60000,49,9999,0.100000,0,0,0.000000,6,4.000000,0.000000,9.922123,0,0,0,0,0,0,0
7,79999,75,70000,66,50000,49,9999,0.100000,0,0,0.000000,6,7.000000,0.000000,9.807183,0,0,0,0,0,0,0
7,79999,76,70000,66,50000,40,9999,0.100000,0,0,0.000000,6,0.000000,0.000000,0.262090,0,0,0,0,0,0,0
7,79999,77,70000,73,0,40,9999,0.100000,0,0,0.000000,6,0.000000,0.000000,1.459110,0,0,0,0,0,0,0
7,79999,78,70000,66,50000,49,9999,0.100000,0,0,0.000000,6,1.000000,0.000000,1.460759,0,0,0,0,0,0,0
7,79999,79,70000,73,0,40,9999,0.100000,0,0,0.000000,6,0.000000,0.000000,0.742916,0,0,0,0,0,0,0
7,79999,80,70000,73,0,49,9999,0.100000,0,0,0.000000,6,6.000000,0.000000,16.094939,0,0,0,0,0,0,0
7,79999,81,70000,69,40000,49,9999,0.100000,0,0,0.000000,6,1.000000,0.000000,3.537997,0,0,0,0,0,0,0
7,79999,82,70000,69,40000,40,9999,0.100000,0,0,0.000000,6,0.000000,0.000000,3.818016,0,0,0,0,0,0,0
7,79999,83,70000,19,0,40,9999,0.100000,0,0,0.000000,6,0.000000,0.000000,0.243045,0,0,0,0,0,0,0
7,79999,84,70000,80,20000,49,9999,0.100000,0,0,0.000000,6,1.000000,0.000000,1.841028,0,0,0,0,0,0,0
7,79999,85,70000,66,50000,40,9999,0.100000,0,0,0.000000,6,0.000000,0.000000,0.211059,0,0,0,0,0,0,0
7,79999,86,70000,73,0,40,9999,0.100000,0,0,0.000000,6,0.000000,0.000000,0.213909,0,0,0,0,0,0,0
7,79999,87,70000,73,0,40,9999,0.100000,0,0,0.000000,6,0.000000,0.000000,15.554958,0,0,0,0,0,0,0
7,79999,88,70000,69,40000,49,9999,0.100000,0,0,0.000000,6,2.000000,0.000000,5.000698,0,0,0,0,0,0,0
7,79999,89,70000,73,0,40,9999,0.100000,0,0,0.000000,6,0.000000,0.000000,0.692517,0,0,0,0,0,0,0
7,79999,90,70000,66,60000,40,9999,0.100000,0,0,0.000000,6,0.000000,0.000000,0.670374,0,0,0,0,0,0,0
7,79999,91,70000,80,20000,40,9999,0.100000,0,0,0.000000,6,0.000000,0.000000,2.982696,0,0,0,0,0,0,0
7,79999,92,70000,66,50000,40,9999,0.100000,0,0,0.000000,6,0.000000,0.000000,0.087524,0,0,0,0,0,0,0
7,79999,93,70000,19,0,49,9999,0.100000,0,0,0.000000,6,2.000000,0.000000,6.218584,0,0,0,0,0,0,0
7,79999,94,70000,66,60000,49,9999,0.100000,0,0,0.000000,6,18.000000,0.000000,20.941184,0,0,0,0,0,0,0
7,79999,95,70000,80,20000,40,9999,0.100000,0,0,0.000000,6,0.000000,0.000000,4.511303,0,0,0,0,0,0,0
7,79999,96,70000,80,20000,9,9999,0.100000,0,0,0.000000,6,3.000000,0.000000,6.097063,0,0,0,1,0,0,0
7,79999,97,70000,73,0,40,9999,0.100000,0,0,0.000000,6,0.000000,0.000000,0.226069,0,0,0,0,0,0,0
7,79999,98,70000,66,50000,49,9999,0.100000,0,0,0.000000,6,1.000000,0.000000,19.104438,0,0,0,0,0,0,0
7,79999,99,70000,73,0,40,9999,0.100000,0,0,0.000000,6,0.000000,0.000000,0.532537,0,0,0,0,0,0,0
8,89999,0,80000,80,20000,40,9999,0.100000,0,0,0.000000,6,0.000000,0.000000,2.558236,0,0,0,0,0,0,0
8,89999,1,80000,66,50000,49,9999,0.100000,0,0,0.000000,6,9.000000,0.000000,14.885206,0,0,0,0,0,0,0
8,89999,2,80000,19,0,40,9999,0.100000,0,0,0.000000,6,0.000000,0.000000,0.893510,0,0,0,0,0,0,0
8,89999,3,80000,66,60000,40,9999,0.100000,0,0,0.000000,6,0.000000,0.000000,0.658529,0,0,0,0,0,0,0
8,89999,4,80000,80,20000,49,9999,0.100000,0,0,0.000000,6,2.000000,0.000000,2.430449,0,0,0,0,0,0,0
8,89999,5,80000,80,20000,49,9999,0.100000,0,0,0.000000,6,5.000000,0.000000,11.836790,0,0,0,0,0,0,0
8,89999,6,80000,66,50000,40,9999,0.100000,0,0,0.000000,6,0.000000,0.000000,1.866512,0,0,0,0,0,0,0
8,89999,7,80000,66,50000,49,9999,0.100000,0,0,0.000000,6,3.000000,0.000000,3.296788,0,0,0,0,0,0,0
8,89999,8,80000,73,0,40,9999,0.100000,0,0,0.000000,6,0.000000,0.000000,0.122979,0,0,0,0,0,0,0
8,89999,9,80000,19,0,40,9999,0.100000,0,0,0.000000,6,0.000000,0.000000,0.239595,0,0,0,0,0,0,0
8,89999,10,80000,80,20000,49,9999,0.100000,0,0,0.000000,6,2.000000,0.000000,2.393751,0,0,0,0,0,0,0
8,89999,11,80000,69,40000,40,9999,0.100000,0,0,0.000000,6,0.000000,0.000000,1.399490,0,0,0,0,0,0,0
8,89999,12,80000,73,0,49,9999,0.100000,0,0,0.000000,6,1.000000,0.000000,3.257993,0,0,0,0,0,0,0
8,89999,13,80000,19,0,40,9999,0.100000,0,0,0.000000,6,0.000000,0.000000,3.769738,0,0,0,0,0,0,0
8,89999,14,80000,69,40000,9,9999,0.100000,0,0,0.000000,6,2.000000,0.000000,5.484313,0,0,0,0,0,1,0
8,89999,15,80000,69,40000,49,9999,0.100000,0,0,0.000000,6,1.000000,0.000000,3.662047,0,0,0,0,0,0,0
8,89999,16,80000,80,20000,40,9999,0.100000,0,0,0.000000,6,0.000000,0.000000,0.177503,0,0,0,0,0,0,0
8,89999,17,80000,80,20000,40,9999,0.100000,0,0,0.000000,6,0.000000,0.000000,0.782086,0,0,0,0,0,0,0
8,89999,18,80000,80,20000,40,9999,0.100000,0,0,0.000000,6,0.000000,0.000000,0.819072,0,0,0,0,0,0,0
8,89999,19,80000,66,50000,9,9999,0.100000,0,0,0.000000,6,12.000000,0.000000,14.256695,0,0,0,0,0,1,0
8,89999,20,80000,80,20000,40,9999,0.100000,0,0,0.000000,6,0.000000,0.000000,2.173806,0,0,0,0,0,0,0
8,89999,21,80000,73,0,49,9999,0.100000,0,0,0.000000,6,4.000000,0.000000,7.260643,0,0,0,0,0,0,0
8,89999,22,80000,69,40000,49,9999,0.100000,0,0,0.000000,6,1.000000,0.000000,3.075133,0,0,0,0,0,0,0
8,89999,23,80000,69,40000,49,9999,0.100000,0,0,0.000000,6,1.000000,0.000000,5.505431,0,0,0,0,0,0,0
8,89999,24,80000,80,20000,49,9999,0.100000,0,0,0.000000,6,1.000000,0.000000,6.920445,0,0,0,0,0,0,0
8,89999,25,80000,19,0,40,9999,0.100000,0,0,0.000000,6,0.000000,0.000000,1.092144,0,0,0,0,0,0,0
8,89999,26,80000,66,60000,49,9999,0.100000,0,0,0.000000,6,4.000000,0.000000,15.054477,0,0,0,0,0,0,0
8,89999,27,80000,73,0,49,9999,0.100000,0,0,0.000000,6,6.000000,0.000000,21.553439,0,0,0,0,0,0,0
8,89999,28,80000,73,0,40,9999,0.100000,0,0,0.000000,6,0.000000,0.000000,0.180678,0,0,0,0,0,0,0
8,89999,29,80000,69,40000,40,9999,0.100000,0,0,0.000000,6,0.000000,0.000000,0.121945,0,0,0,0,0,0,0
8,89999,30,80000,69,40000,49,9999,0.100000,0,0,0.000000,6,1.000000,0.000000,3.024782,0,0,0,0,0,0,0
8,89999,31,80000,80,20000,40,9999,0.100000,0,0,0.000000,6,0.000000,0.000000,0.686732,0,0,0,0,0,0,0
8,89999,32,80000,66,60000,49,9999,0.100000,0,0,0.000000,6,1.000000,0.000000,7.854747,0,0,0,0,0,0,0
8,89999,33,80000,73,0,49,9999,0.100000,0,0,0.000000,6,6.000000,0.000000,21.211819,0,0,0,0,0,0,0
8,89999,34,80000,66,60000,40,9999,0.100000,0,0,0.000000,6,0.000000,0.000000,7.450132,0,0,0,0,0,0,0
8,89999,35,80000,69,40000,40,9999,0.100000,0,0,0.000000,6,0.000000,0.000000,0.155282,0,0,0,0,0,0,0
8,89999,36,80000,66,60000,40,9999,0.100000,0,0,0.000000,6,0.000000,0.000000,0.254462,0,0,0,0,0,0,0
8,89999,37,80000,69,40000,9,9999,0.100000,0,0,0.000000,6,1.000000,0.000000,5.582870,0,0,0,0,0,1,0
8,89999,38,80000,66,50000,40,9999,0.100000,0,0,0.000000,6,0.000000,0.000000,0.744271,0,0,0,0,0,0,0
8,89999,39,80000,69,40000,40,9999,0.100000,0,0,0.000000,6,0.000000,0.000000,0.246840,0,0,0,0,0,0,0
8,89999,40,80000,66,60000,40,9999,0.100000,0,0,0.000000,6,0.000000,0.000000,4.479620,0,0,0,0,0,0,0
8,89999,41,80000,66,50000,49,9999,0.100000,0,0,0.000000,6,8.000000,0.000000,12.359648,0,0,0,0,0,0,0
8,89999,42,80000,66,60000,49,9999,0.100000,0,0,0.000000,6,1.000000,0.000000,4.248097,0,0,0,0,0,0,0
8,89999,43,80000,69,40000,40,9999,0.100000,0,0,0.000000,6,0.000000,0.000000,0.663770,0,0,0,0,0,0,0
8,89999,44,80000,69,40000,40,9999,0.100000,0,0,0.000000,6,0.000000,0.000000,2.368949,0,0,0,0,0,0,0
8,89999,45,80000,69,40000,49,9999,0.100000,0,0,0.000000,6,2.000000,0.000000,4.324078,0,0,0,0,0,0,0
8,89999,46,80000,19,0,49,9999,0.100000,0,0,0.000000,6,2.000000,0.000000,3.446355,0,0,0,0,0,0,0
8,89999,47,80000,66,50000,40,9999,0.100000,0,0,0.000000,6,0.000000,0.000000,1.018537,0,0,0,0,0,0,0
8,89999,48,80000,80,20000,49,9999,0.100000,0,0,0.000000,6,1.000000,0.000000,2.421455,0,0,0,0,0,0,0
8,89999,49,80000,66,60000,49,9999,0.100000,0,0,0.000000,6,4.000000,0.000000,11.018555,0,0,0,0,0,0,0
8,89999,50,80000,66,60000,49,9999,0.100000,0,0,0.000000,6,2.000000,0.000000,3.332253,0,0,0,0,0,0,0
8,89999,51,80000,66,60000,49,9999,0.100000,0,0,0.000000,6,11.000000,0.000000,14.070157,0,0,0,0,0,0,0
8,89999,52,80000,69,40000,49,9999,0.100000,0,0,0.000000,6,2.000000,0.000000,2.541909,0,0,0,0,0,0,0
8,89999,53,80000,66,50000,49,9999,0.100000,0,0,0.000000,6,2.000000,0.000000,4.831205,0,0,0,0,0,0,0
8,89999,54,80000,80,20000,40,9999,0.100000,0,0,0.000000,6,0.000000,0.000000,0.491857,0,0,0,0,0,0,0
8,89999,55,80000,19,0,49,9999,0.100000,0,0,0.000000,6,1.000000,0.000000,11.936215,0,0,0,0,0,0,0
8,89999,56,80000,80,20000,49,9999,0.100000,0,0,0.000000,6,2.000000,0.000000,6.127518,0,0,0,0,0,0,0
8,89999,57,80000,69,40000,49,9999,0.100000,0,0,0.000000,6,8.000000,0.000000,26.069707,0,0,0,0,0,0,0
8,89999,58,80000,69,40000,40,9999,0.100000,0,0,0.000000,6,0.000000,0.000000,0.534364,0,0,0,0,0,0,0
8,89999,59,80000,69,40000,40,9999,0.100000,0,0,0.000000,6,0.000000,0.000000,0.973257,0,0,0,0,0,0,0
8,89999,60,80000,80,20000,40,9999,0.100000,0,0,0.000000,6,0.000000,0.000000,7.795427,0,0,0,0,0,0,0
8,89999,61,80000,19,0,40,9999,0.100000,0,0,0.000000,6,0.000000,0.000000,0.231141,0,0,0,0,0,0,0
8,89999,62,80000,73,0,49,9999,0.100000,0,0,0.000000,6,2.000000,0.000000,27.121841,0,0,0,0,0,0,0
8,89999,63,80000,73,0,40,9999,0.100000,0,0,0.000000,6,0.000000,0.000000,21.483376,0,0,0,0,0,0,0
8,89999,64,80000,19,0,40,9999,0.100000,0,0,0.000000,6,0.000000,0.000000,0.485136,0,0,0,0,0,0,0
8,89999,65,80000,69,40000,40,9999,0.100000,0,0,0.000000,6,0.000000,0.000000,0.747879,0,0,0,0,0,0,0
8,89999,66,80000,69,40000,49,9999,0.100000,0,0,0.000000,6,4.000000,0.000000,7.231522,0,0,0,0,0,0,0
8,89999,67,80000,73,0,40,9999,0.100000,0,0,0.000000,6,0.000000,0.000000,0.621886,0,0,0,0,0,0,0
8,89999,68,80000,19,0,40,9999,0.100000,0,0,0.000000,6,0.000000,0.000000,0.184702,0,0,0,0,0,0,0
8,89999,69,80000,73,0,49,9999,0.100000,0,0,0.000000,6,2.000000,0.000000,16.413384,0,0,0,0,0,0,0
8,89999,70,80000,19,0,40,9999,0.100000,0,0,0.000000,6,0.000000,0.000000,0.834464,0,0,0,0,0,0,0
8,89999,71,80000,19,0,40,9999,0.100000,0,0,0.000000,6,0.000000,0.000000,0.244945,0,0,0,0,0,0,0
8,89999,72,80000,80,20000,49,9999,0.100000,0,0,0.000000,6,5.000000,0.000000,7.848165,0,0,0,0,0,0,0
8,89999,73,80000,66,50000,40,9999,0.100000,0,0,0.000000,6,0.000000,0.000000,0.736842,0,0,0,0,0,0,0
8,89999,74,80000,66,50000,49,9999,0.100000,0,0,0.000000,6,2.000000,0.000000,6.333985,0,0,0,0,0,0,0
8,89999,75,80000,80,20000,40,9999,0.100000,0,0,0.000000,6,0.000000,0.000000,0.189957,0,0,0,0,0,0,0
8,89999,76,80000,66,60000,40,9999,0.100000,0,0,0.000000,6,0.000000,0.000000,0.288976,0,0,0,0,0,0,0
8,89999,77,80000,19,0,40,9999,0.100000,0,0,0.000000,6,0.000000,0.000000,0.680516,0,0,0,0,0,0,0
8,89999,78,80000,19,0,49,9999,0.100000,0,0,0.000000,6,1.000000,0.000000,3.560138,0,0,0,0,0,0,0
8,89999,79,80000,19,0,40,9999,0.100000,0,0,0.000000,6,0.000000,0.000000,0.561659,0,0,0,0,0,0,0
8,89999,80,80000,73,0,49,9999,0.100000,0,0,0.000000,6,1.000000,0.000000,7.149814,0,0,0,0,0,0,0
8,89999,81,80000,19,0,49,9999,0.100000,0,0,0.000000,6,1.000000,0.000000,7.289472,0,0,0,0,0,0,0
8,89999,82,80000,80,20000,49,9999,0.100000,0,0,0.000000,6,3.000000,0.000000,3.348748,0,0,0,0,0,0,0
8,89999,83,80000,80,20000,40,9999,0.100000,0,0,0.000000,6,0.000000,0.000000,0.242811,0,0,0,0,0,0,0
8,89999,84,80000,80,20000,0,9999,0.100000,0,0,0.000000,6,0.000000,0.000000,5.420809,0,0,0,0,0,1,0
8,89999,85,80000,80,20000,40,9999,0.100000,0,0,0.000000,6,0.000000,0.000000,0.329214,0,0,0,0,0,0,0
8,89999,86,80000,66,50000,40,9999,0.100000,0,0,0.000000,6,0.000000,0.000000,0.306473,0,0,0,0,0,0,0
8,89999,87,80000,66,50000,49,9999,0.100000,0,0,0.000000,6,1.000000,0.000000,7.942870,0,0,0,0,0,0,0
8,89999,88,80000,66,50000,49,9999,0.100000,0,0,0.000000,6,5.000000,0.000000,11.593777,0,0,0,0,0,0,0
8,89999,89,80000,80,20000,40,9999,0.100000,0,0,0.000000,6,0.000000,0.000000,0.175542,0,0,0,0,0,0,0
8,89999,90,80000,73,0,49,9999,0.100000,0,0,0.000000,6,1.000000,0.000000,6.494617,0,0,0,0,0,0,0
8,89999,91,80000,66,50000,49,9999,0.100000,0,0,0.000000,6,7.000000,0.000000,16.401604,0,0,0,0,0,0,0
8,89999,92,80000,69,40000,40,9999,0.100000,0,0,0.000000,6,0.000000,0.000000,0.084897,0,0,0,0,0,0,0
8,89999,93,80000,66,60000,49,9999,0.100000,0,0,0.000000,6,10.000000,0.000000,17.426064,0,0,0,0,0,0,0
8,89999,94,80000,73,0,49,9999,0.100000,0,0,0.000000,6,6.000000,0.000000,26.062527,0,0,0,0,0,0,0
8,89999,95,80000,69,40000,49,9999,0.100000,0,0,0.000000,6,5.000000,0.000000,17.256054,0,0,0,0,0,0,0
8,89999,96,80000,19,0,49,9999,0.100000,0,0,0.000000,6,3.000000,0.000000,14.547141,0,0,0,0,0,0,0
8,89999,97,80000,66,50000,40,9999,0.100000,0,0,0.000000,6,0.000000,0.000000,0.291352,0,0,0,0,0,0,0
8,89999,98,80000,69,40000,49,9999,0.100000,0,0,0.000000,6,1.000000,0.000000,13.635307,0,0,0,0,0,0,0
8,89999,99,80000,66,60000,49,9999,0.100000,0,0,0.000000,6,2.000000,0.000000,3.258968,0,0,0,0,0,0,0
9,99999,0,90000,66,50000,49,9999,0.100000,0,0,0.000000,6,1.000000,0.000000,14.593412,0,0,0,0,0,0,0
9,99999,1,90000,19,0,49,9999,0.100000,0,0,0.000000,6,2.000000,0.000000,5.942823,0,0,0,0,0,0,0
9,99999,2,90000,73,0,49,9999,0.100000,0,0,0.000000,6,2.000000,0.000000,2.836282,0,0,0,0,0,0,0
9,99999,3,90000,73,0,40,9999,0.100000,0,0,0.000000,6,0.000000,0.000000,2.423287,0,0,0,0,0,0,0
9,99999,4,90000,69,40000,0,9999,0.100000,0,0,0.000000,6,0.000000,0.000000,1.916541,0,0,0,0,1,0,0
9,99999,5,90000,66,60000,40,9999,0.100000,0,0,0.000000,6,0.000000,0.000000,6.089173,0,0,0,0,0,0,0
9,99999,6,90000,66,60000,40,9999,0.100000,0,0,0.000000,6,0.000000,0.000000,1.368186,0,0,0,0,0,0,0
9,99999,7,90000,19,0,40,9999,0.100000,0,0,0.000000,6,0.000000,0.000000,1.403006,0,0,0,0,0,0,0
9,99999,8,90000,69,40000,40,9999,0.100000,0,0,0.000000,6,0.000000,0.000000,0.200232,0,0,0,0,0,0,0
9,99999,9,90000,19,0,40,9999,0.100000,0,0,0.000000,6,0.000000,0.000000,0.231865,0,0,0,0,0,0,0
9,99999,10,90000,73,0,49,9999,0.100000,0,0,0.000000,6,6.000000,0.000000,21.126695,0,0,0,0,0,0,0
9,99999,11,90000,66,60000,40,9999,0.100000,0,0,0.000000,6,0.000000,0.000000,5.308291,0,0,0,0,0,0,0
9,99999,12,90000,66,50000,49,9999,0.100000,0,0,0.000000,6,2.000000,0.000000,6.960479,0,0,0,0,0,0,0
9,99999,13,90000,19,0,40,9999,0.100000,0,0,0.000000,6,0.000000,0.000000,3.546761,0,0,0,0,0,0,0
9,99999,14,90000,19,0,9,9999,0.100000,0,0,0.000000,6,4.000000,0.000000,9.443997,0,0,0,0,0,1,0
9,99999,15,90000,69,40000,49,9999,0.100000,0,0,0.000000,6,1.000000,0.000000,4.354604,0,0,0,0,0,0,0
9,99999,16,90000,66,60000,40,9999,0.100000,0,0,0.000000,6,0.000000,0.000000,0.179700,0,0,0,0,0,0,0
9,99999,17,90000,66,60000,40,9999,0.100000,0,0,0.000000,6,0.000000,0.000000,0.805521,0,0,0,0,0,0,0
9,99999,18,90000,66,50000,49,9999,0.100000,0,0,0.000000,6,4.000000,0.000000,16.664331,0,0,0,0,0,0,0
9,99999,19,90000,80,20000,49,9999,0.100000,0,0,0.000000,6,1.000000,0.000000,5.280666,0,0,0,0,0,0,0
9,99999,20,90000,19,0,40,9999,0.100000,0,0,0.000000,6,0.000000,0.000000,1.679638,0,0,0,0,0,0,0
9,99999,21,90000,80,20000,40,9999,0.100000,0,0,0.000000,6,0.000000,0.000000,0.693730,0,0,0,0,0,0,0
9,99999,22,90000,73,0,49,9999,0.100000,0,0,0.000000,6,2.000000,0.000000,17.469449,0,0,0,0,0,0,0
9,99999,23,90000,66,50000,49,9999,0.100000,0,0,0.000000,6,6.000000,0.000000,17.655167,0,0,0,0,0,0,0
9,99999,24,90000,19,0,49,9999,0.100000,0,0,0.000000,6,3.000000,0.000000,12.777939,0,0,0,0,0,0,0
9,99999,25,90000,80,20000,40,9999,0.100000,0,0,0.000000,6,0.000000,0.000000,3.606797,0,0,0,0,0,0,0
9,99999,26,90000,66,50000,49,9999,0.100000,0,0,0.000000,6,4.000000,0.000000,16.844604,0,0,0,0,0,0,0
9,99999,27,90000,19,0,49,9999,0.100000,0,0,0.000000,6,4.000000,0.000000,15.810050,0,0,0,0,0,0,0
9,99999,28,90000,80,20000,40,9999,0.100000,0,0,0.000000,6,0.000000,0.000000,0.186481,0,0,0,0,0,0,0
9,99999,29,90000,69,40000,40,9999,0.100000,0,0,0.000000,6,0.000000,0.000000,0.125364,0,0,0,0,0,0,0
9,99999,30,90000,66,50000,49,9999,0.100000,0,0,0.000000,6,3.000000,0.000000,7.539066,0,0,0,0,0,0,0
9,99999,31,90000,66,50000,40,9999,0.100000,0,0,0.000000,6,0.000000,0.000000,0.656454,0,0,0,0,0,0,0
9,99999,32,90000,66,60000,40,9999,0.100000,0,0,0.000000,6,0.000000,0.000000,6.858212,0,0,0,0,0,0,0
9,99999,33,90000,73,0,49,9999,0.100000,0,0,0.000000,6,3.000000,0.000000,17.930942,0,0,0,0,0,0,0
9,99999,34,90000,19,0,49,9999,0.100000,0,0,0.000000,6,1.000000,0.000000,8.070688,0,0,0,0,0,0,0
9,99999,35,90000,80,20000,40,9999,0.100000,0,0,0.000000,6,0.000000,0.000000,0.231293,0,0,0,0,0,0,0
9,99999,36,90000,66,60000,40,9999,0.100000,0,0,0.000000,6,0.000000,0.000000,0.236013,0,0,0,0,0,0,0
9,99999,37,90000,66,50000,49,9999,0.100000,0,0,0.000000,6,13.000000,0.000000,16.016864,0,0,0,0,0,0,0
9,99999,38,90000,19,0,49,9999,0.100000,0,0,0.000000,6,1.000000,0.000000,2.211489,0,0,0,0,0,0,0
9,99999,39,90000,66,50000,40,9999,0.100000,0,0,0.000000,6,0.000000,0.000000,0.225462,0,0,0,0,0,0,0
9,99999,40,90000,80,20000,40,9999,0.100000,0,0,0.000000,6,0.000000,0.000000,2.531166,0,0,0,0,0,0,0
9,99999,41,90000,69,40000,99,9999,0.100000,0,0,34.210526,6,9.000000,0.000000,21.185379,0,0,1,0,0,0,0
9,99999,42,90000,66,50000,40,9999,0.100000,0,0,0.000000,6,0.000000,0.000000,1.833927,0,0,0,0,0,0,0
9,99999,43,90000,66,50000,40,9999,0.100000,0,0,0.000000,6,0.000000,0.000000,0.736745,0,0,0,0,0,0,0
9,99999,44,90000,73,0,40,9999,0.100000,0,0,0.000000,6,0.000000,0.000000,0.708431,0,0,0,0,0,0,0
9,99999,45,90000,80,20000,9,9999,0.100000,0,0,0.000000,6,3.000000,0.000000,4.092315,0,0,0,0,2,0,0
9,99999,46,90000,69,40000,49,9999,0.100000,0,0,0.000000,6,2.000000,0.000000,7.320212,0,0,0,0,0,0,0
9,99999,47,90000,69,40000,49,9999,0.100000,0,0,0.000000,6,2.000000,0.000000,6.236957,0,0,0,0,0,0,0
9,99999,48,90000,66,50000,40,9999,0.100000,0,0,0.000000,6,0.000000,0.000000,1.318688,0,0,0,0,0,0,0
9,99999,49,90000,69,40000,40,9999,0.100000,0,0,0.000000,6,0.000000,0.000000,3.275660,0,0,0,0,0,0,0
9,99999,50,90000,73,0,40,9999,0.100000,0,0,0.000000,6,0.000000,0.000000,1.374362,0,0,0,0,0,0,0
9,99999,51,90000,66,60000,99,9999,0.100000,0,0,0.000000,6,11.000000,0.000000,24.172783,0,0,1,0,0,0,0
9,99999,52,90000,69,40000,49,9999,0.100000,0,0,0.000000,6,1.000000,0.000000,3.901020,0,0,0,0,0,0,0
9,99999,53,90000,19,0,40,9999,0.100000,0,0,0.000000,6,0.000000,0.000000,1.297335,0,0,0,0,0,0,0
9,99999,54,90000,19,0,40,9999,0.100000,0,0,0.000000,6,0.000000,0.000000,0.888484,0,0,0,0,0,0,0
9,99999,55,90000,80,20000,49,9999,0.100000,0,0,0.000000,6,1.000000,0.000000,6.054387,0,0,0,0,0,0,0
9,99999,56,90000,66,60000,49,9999,0.100000,0,0,0.000000,6,5.000000,0.000000,11.909727,0,0,0,0,0,0,0
9,99999,57,90000,73,0,99,9999,0.100000,0,0,34.210526,6,5.000000,0.000000,25.552151,0,0,1,0,0,0,0
9,99999,58,90000,80,20000,40,9999,0.100000,0,0,0.000000,6,0.000000,0.000000,0.565419,0,0,0,0,0,0,0
9,99999,59,90000,73,0,49,9999,0.100000,0,0,0.000000,6,1.000000,0.000000,1.905951,0,0,0,0,0,0,0
9,99999,60,90000,80,20000,49,9999,0.100000,0,0,0.000000,6,1.000000,0.000000,7.148637,0,0,0,0,0,0,0
9,99999,61,90000,66,50000,40,9999,0.100000,0,0,0.000000,6,0.000000,0.000000,0.239780,0,0,0,0,0,0,0
9,99999,62,90000,19,0,49,9999,0.100000,0,0,0.000000,6,7.000000,0.000000,14.744766,0,0,0,0,0,0,0
9,99999,63,90000,69,40000,40,9999,0.100000,0,0,0.000000,6,0.000000,0.000000,19.606620,0,0,0,0,0,0,0
9,99999,64,90000,19,0,40,9999,0.100000,0,0,0.000000,6,0.000000,0.000000,0.559739,0,0,0,0,0,0,0
9,99999,65,90000,19,0,40,9999,0.100000,0,0,0.000000,6,0.000000,0.000000,0.861192,0,0,0,0,0,0,0
9,99999,66,90000,80,20000,49,9999,0.100000,0,0,0.000000,6,1.000000,0.000000,9.152486,0,0,0,0,0,0,0
9,99999,67,90000,80,20000,40,9999,0.100000,0,0,0.000000,6,0.000000,0.000000,0.588659,0,0,0,0,0,0,0
9,99999,68,90000,19,0,40,9999,0.100000,0,0,0.000000,6,0.000000,0.000000,0.171509,0,0,0,0,0,0,0
9,99999,69,90000,66,60000,49,9999,0.100000,0,0,0.000000,6,2.000000,0.000000,11.337089,0,0,0,0,0,0,0
9,99999,70,90000,66,60000,40,9999,0.100000,0,0,0.000000,6,0.000000,0.000000,0.880287,0,0,0,0,0,0,0
9,99999,71,90000,69,40000,40,9999,0.100000,0,0,0.000000,6,0.000000,0.000000,0.235985,0,0,0,0,0,0,0
9,99999,72,90000,66,50000,49,9999,0.100000,0,0,0.000000,6,6.000000,0.000000,7.590805,0,0,0,0,0,0,0
9,99999,73,90000,66,60000,40,9999,0.100000,0,0,0.000000,6,0.000000,0.000000,1.213805,0,0,0,0,0,0,0
9,99999,74,90000,66,50000,40,9999,0.100000,0,0,0.000000,6,0.000000,0.000000,2.535402,0,0,0,0,0,0,0
9,99999,75,90000,19,0,40,9999,0.100000,0,0,0.000000,6,0.000000,0.000000,0.203933,0,0,0,0,0,0,0
9,99999,76,90000,66,50000,40,9999,0.100000,0,0,0.000000,6,0.000000,0.000000,0.313440,0,0,0,0,0,0,0
9,99999,77,90000,66,60000,49,9999,0.100000,0,0,0.000000,6,1.000000,0.000000,6.424895,0,0,0,0,0,0,0
9,99999,78,90000,80,20000,49,9999,0.100000,0,0,0.000000,6,14.000000,0.000000,16.984862,0,0,0,0,0,0,0
9,99999,79,90000,19,0,40,9999,0.100000,0,0,0.000000,6,0.000000,0.000000,0.422664,0,0,0,0,0,0,0
9,99999,80,90000,73,0,40,9999,0.100000,0,0,0.000000,6,0.000000,0.000000,11.075854,0,0,0,0,0,0,0
9,99999,81,90000,80,20000,49,9999,0.100000,0,0,0.000000,6,1.000000,0.000000,5.847057,0,0,0,0,0,0,0
9,99999,82,90000,80,20000,40,9999,0.100000,0,0,0.000000,6,0.000000,0.000000,1.194883,0,0,0,0,0,0,0
9,99999,83,90000,66,60000,40,9999,0.100000,0,0,0.000000,6,0.000000,0.000000,0.236407,0,0,0,0,0,0,0
9,99999,84,90000,19,0,9,9999,0.100000,0,0,0.000000,6,3.000000,0.000000,7.955626,0,0,0,0,0,1,0
9,99999,85,90000,73,0,40,9999,0.100000,0,0,0.000000,6,0.000000,0.000000,0.426809,0,0,0,0,0,0,0
9,99999,86,90000,66,60000,40,9999,0.100000,0,0,0.000000,6,0.000000,0.000000,0.410139,0,0,0,0,0,0,0
9,99999,87,90000,80,20000,40,9999,0.100000,0,0,0.000000,6,0.000000,0.000000,3.087136,0,0,0,0,0,0,0
9,99999,88,90000,66,50000,49,9999,0.100000,0,0,0.000000,6,2.000000,0.000000,15.260888,0,0,0,0,0,0,0
9,99999,89,90000,73,0,40,9999,0.100000,0,0,0.000000,6,0.000000,0.000000,0.161931,0,0,0,0,0,0,0
9,99999,90,90000,80,20000,40,9999,0.100000,0,0,0.000000,6,0.000000,0.000000,4.174129,0,0,0,0,0,0,0
9,99999,91,90000,66,50000,9,9999,0.100000,0,0,0.000000,6,1.000000,0.000000,3.802319,0,0,0,0,1,0,0
9,99999,92,90000,66,60000,40,9999,0.100000,0,0,0.000000,6,0.000000,0.000000,1.078041,0,0,0,0,0,0,0
9,99999,93,90000,80,20000,40,9999,0.100000,0,0,0.000000,6,0.000000,0.000000,3.663018,0,0,0,0,0,0,0
9,99999,94,90000,80,20000,49,9999,0.100000,0,0,0.000000,6,2.000000,0.000000,5.422231,0,0,0,0,0,0,0
9,99999,95,90000,69,40000,49,9999,0.100000,0,0,0.000000,6,1.000000,0.000000,8.785423,0,0,0,0,0,0,0
9,99999,96,90000,66,50000,40,9999,0.100000,0,0,0.000000,6,0.000000,0.000000,1.848644,0,0,0,0,0,0,0
9,99999,97,90000,80,20000,40,9999,0.100000,0,0,0.000000,6,0.000000,0.000000,0.272016,0,0,0,0,0,0,0
9,99999,98,90000,69,40000,40,9999,0.100000,0,0,0.000000,6,0.000000,0.000000,8.928907,0,0,0,0,0,0,0
9,99999,99,90000,80,20000,40,9999,0.100000,0,0,0.000000,6,0.000000,0.000000,1.404490,0,0,0,0,0,0,0
10,109999,0,100000,73,0,49,9999,0.100000,0,0,0.000000,6,1.000000,0.000000,15.309605,0,0,0,0,0,0,0
10,109999,1,100000,66,50000,49,9999,0.100000,0,0,0.000000,6,3.000000,0.000000,4.638195,0,0,0,0,0,0,0
10,109999,2,100000,80,20000,40,9999,0.100000,0,0,0.000000,6,0.000000,0.000000,3.401123,0,0,0,0,0,0,0
10,109999,3,100000,66,50000,40,9999,0.100000,0,0,0.000000,6,0.000000,0.000000,1.285171,0,0,0,0,0,0,0
10,109999,4,100000,66,60000,49,9999,0.100000,0,0,0.000000,6,1.000000,0.000000,2.513516,0,0,0,0,0,0,0
10,109999,5,100000,80,20000,49,9999,0.100000,0,0,0.000000,6,2.000000,0.000000,3.407502,0,0,0,0,0,0,0
10,109999,6,100000,66,60000,40,9999,0.100000,0,0,0.000000,6,0.000000,0.000000,1.455040,0,0,0,0,0,0,0
10,109999,7,100000,66,50000,49,9999,0.100000,0,0,0.000000,6,1.000000,0.000000,2.010746,0,0,0,0,0,0,0
10,109999,8,100000,19,0,40,9999,0.100000,0,0,0.000000,6,0.000000,0.000000,1.028405,0,0,0,0,0,0,0
10,109999,9,100000,69,40000,40,9999,0.100000,0,0,0.000000,6,0.000000,0.000000,0.638033,0,0,0,0,0,0,0
10,109999,10,100000,80,20000,40,9999,0.100000,0,0,0.000000,6,0.000000,0.000000,0.843070,0,0,0,0,0,0,0
10,109999,11,100000,69,40000,40,9999,0.100000,0,0,0.000000,6,0.000000,0.000000,0.228770,0,0,0,0,0,0,0
10,109999,12,100000,69,40000,9,9999,0.100000,0,0,34.210526,6,7.000000,0.000000,11.627466,0,0,0,1,0,0,0
10,109999,13,100000,69,40000,40,9999,0.100000,0,0,0.000000,6,0.000000,0.000000,3.623469,0,0,0,0,0,0,0
10,109999,14,100000,80,20000,40,9999,0.100000,0,0,0.000000,6,0.000000,0.000000,0.198665,0,0,0,0,0,0,0
10,109999,15,100000,19,0,49,9999,0.100000,0,0,0.000000,6,5.000000,0.000000,14.553348,0,0,0,0,0,0,0
10,109999,16,100000,66,60000,40,9999,0.100000,0,0,0.000000,6,0.000000,0.000000,0.129023,0,0,0,0,0,0,0
10,109999,17,100000,73,0,40,9999,0.100000,0,0,0.000000,6,0.000000,0.000000,0.492302,0,0,0,0,0,0,0
10,109999,18,100000,73,0,9,9999,0.100000,0,0,34.210526,6,8.000000,0.000000,23.734560,0,0,0,1,0,0,0
10,109999,19,100000,66,60000,49,9999,0.100000,0,0,0.000000,6,3.000000,0.000000,7.513150,0,0,0,0,0,0,0
10,109999,20,100000,19,0,40,9999,0.100000,0,0,0.000000,6,0.000000,0.000000,2.842465,0,0,0,0,0,0,0
10,109999,21,100000,66,60000,40,9999,0.100000,0,0,0.000000,6,0.000000,0.000000,1.279930,0,0,0,0,0,0,0
10,109999,22,100000,69,40000,49,9999,0.100000,0,0,0.000000,6,1.000000,0.000000,5.654388,0,0,0,0,0,0,0
10,109999,23,100000,66,60000,49,9999,0.100000,0,0,0.000000,6,1.000000,0.000000,16.773502,0,0,0,0,0,0,0
10,109999,24,100000,66,60000,49,9999,0.100000,0,0,0.000000,6,1.000000,0.000000,13.822476,0,0,0,0,0,0,0
10,109999,25,100000,80,20000,49,9999,0.100000,0,0,0.000000,6,1.000000,0.000000,2.687757,0,0,0,0,0,0,0
10,109999,26,100000,80,20000,49,9999,0.100000,0,0,0.000000,6,2.000000,0.000000,5.370046,0,0,0,0,0,0,0
10,109999,27,100000,73,0,49,9999,0.100000,0,0,0.000000,6,2.000000,0.000000,17.283854,0,0,0,0,0,0,0
10,109999,28,100000,66,60000,40,9999,0.100000,0,0,0.000000,6,0.000000,0.000000,0.177496,0,0,0,0,0,0,0
10,109999,29,100000,73,0,40,9999,0.100000,0,0,0.000000,6,0.000000,0.000000,0.119569,0,0,0,0,0,0,0
10,109999,30,100000,66,50000,49,9999,0.100000,0,0,0.000000,6,1.000000,0.000000,6.315616,0,0,0,0,0,0,0
10,109999,31,100000,80,20000,40,9999,0.100000,0,0,0.000000,6,0.000000,0.000000,2.415449,0,0,0,0,0,0,0
10,109999,32,100000,19,0,49,9999,0.100000,0,0,0.000000,6,1.000000,0.000000,9.464686,0,0,0,0,0,0,0
10,109999,33,100000,69,40000,49,9999,0.100000,0,0,0.000000,6,1.000000,0.000000,9.945801,0,0,0,0,0,0,0
10,109999,34,100000,19,0,40,9999,0.100000,0,0,0.000000,6,0.000000,0.000000,10.299548,0,0,0,0,0,0,0
10,109999,35,100000,69,40000,40,9999,0.100000,0,0,0.000000,6,0.000000,0.000000,0.295409,0,0,0,0,0,0,0
10,109999,36,100000,73,0,40,9999,0.100000,0,0,0.000000,6,0.000000,0.000000,0.264270,0,0,0,0,0,0,0
10,109999,37,100000,66,50000,49,9999,0.100000,0,0,0.000000,6,6.000000,0.000000,9.354966,0,0,0,0,0,0,0
10,109999,38,100000,73,0,40,9999,0.100000,0,0,0.000000,6,0.000000,0.000000,0.689369,0,0,0,0,0,0,0
10,109999,39,100000,66,60000,40,9999,0.100000,0,0,0.000000,6,0.000000,0.000000,0.228553,0,0,0,0,0,0,0
10,109999,40,100000,66,50000,40,9999,0.100000,0,0,0.000000,6,0.000000,0.000000,0.986070,0,0,0,0,0,0,0
10,109999,41,100000,69,40000,49,9999,0.100000,0,0,0.000000,6,5.000000,0.000000,11.384505,0,0,0,0,0,0,0
10,109999,42,100000,80,20000,40,9999,0.100000,0,0,0.000000,6,0.000000,0.000000,0.321106,0,0,0,0,0,0,0
10,109999,43,100000,80,20000,40,9999,0.100000,0,0,0.000000,6,0.000000,0.000000,1.022494,0,0,0,0,0,0,0
10,109999,44,100000,19,0,40,9999,0.100000,0,0,0.000000,6,0.000000,0.000000,0.728946,0,0,0,0,0,0,0
10,109999,45,100000,19,0,40,9999,0.100000,0,0,0.000000,6,0.000000,0.000000,0.127751,0,0,0,0,0,0,0
10,109999,46,100000,69,40000,49,9999,0.100000,0,0,0.000000,6,1.000000,0.000000,7.331921,0,0,0,0,0,0,0
10,109999,47,100000,66,60000,49,9999,0.100000,0,0,0.000000,6,1.000000,0.000000,6.003590,0,0,0,0,0,0,0
10,109999,48,100000,66,50000,40,9999,0.100000,0,0,0.000000,6,0.000000,0.000000,0.444769,0,0,0,0,0,0,0
10,109999,49,100000,66,60000,49,9999,0.100000,0,0,0.000000,6,2.000000,0.000000,9.081889,0,0,0,0,0,0,0
10,109999,50,100000,19,0,49,9999,0.100000,0,0,0.000000,6,1.000000,0.000000,1.765786,0,0,0,0,0,0,0
10,109999,51,100000,19,0,40,9999,0.100000,0,0,0.000000,6,0.000000,0.000000,1.485247,0,0,0,0,0,0,0
10,109999,52,100000,80,20000,49,9999,0.100000,0,0,0.000000,6,1.000000,0.000000,2.413696,0,0,0,0,0,0,0
10,109999,53,100000,19,0,49,9999,0.100000,0,0,0.000000,6,1.000000,0.000000,1.878960,0,0,0,0,0,0,0
10,109999,54,100000,69,40000,40,9999,0.100000,0,0,0.000000,6,0.000000,0.000000,0.995796,0,0,0,0,0,0,0
10,109999,55,100000,69,40000,49,9999,0.100000,0,0,0.000000,6,1.000000,0.000000,6.706920,0,0,0,0,0,0,0
10,109999,56,100000,19,0,49,9999,0.100000,0,0,0.000000,6,5.000000,0.000000,14.235428,0,0,0,0,0,0,0
10,109999,57,100000,69,40000,49,9999,0.100000,0,0,0.000000,6,1.000000,0.000000,22.425106,0,0,0,0,0,0,0
10,109999,58,100000,73,0,40,9999,0.100000,0,0,0.000000,6,0.000000,0.000000,0.484201,0,0,0,0,0,0,0
10,109999,59,100000,69,40000,40,9999,0.100000,0,0,0.000000,6,0.000000,0.000000,0.549214,0,0,0,0,0,0,0
10,109999,60,100000,73,0,49,9999,0.100000,0,0,0.000000,6,1.000000,0.000000,17.430890,0,0,0,0,0,0,0
10,109999,61,100000,66,60000,40,9999,0.100000,0,0,0.000000,6,0.000000,0.000000,0.250877,0,0,0,0,0,0,0
10,109999,62,100000,66,50000,49,9999,0.100000,0,0,0.000000,6,12.000000,0.000000,16.901411,0,0,0,0,0,0,0
10,109999,63,100000,80,20000,40,9999,0.100000,0,0,0.000000,6,0.000000,0.000000,21.048164,0,0,0,0,0,0,0
10,109999,64,100000,66,50000,40,9999,0.100000,0,0,0.000000,6,0.000000,0.000000,0.839141,0,0,0,0,0,0,0
10,109999,65,100000,80,20000,40,9999,0.100000,0,0,0.000000,6,0.000000,0.000000,0.790957,0,0,0,0,0,0,0
10,109999,66,100000,66,50000,40,9999,0.100000,0,0,0.000000,6,0.000000,0.000000,6.540458,0,0,0,0,0,0,0
10,109999,67,100000,19,0,40,9999,0.100000,0,0,0.000000,6,0.000000,0.000000,0.561716,0,0,0,0,0,0,0
10,109999,68,100000,69,40000,40,9999,0.100000,0,0,0.000000,6,0.000000,0.000000,0.185671,0,0,0,0,0,0,0
10,109999,69,100000,66,60000,49,9999,0.100000,0,0,0.000000,6,1.000000,0.000000,11.462218,0,0,0,0,0,0,0
10,109999,70,100000,19,0,40,9999,0.100000,0,0,0.000000,6,0.000000,0.000000,0.691344,0,0,0,0,0,0,0
10,109999,71,100000,19,0,40,9999,0.100000,0,0,0.000000,6,0.000000,0.000000,0.256441,0,0,0,0,0,0,0
10,109999,72,100000,66,50000,40,9999,0.100000,0,0,0.000000,6,0.000000,0.000000,6.121566,0,0,0,0,0,0,0
10,109999,73,100000,66,50000,40,9999,0.100000,0,0,0.000000,6,0.000000,0.000000,2.823569,0,0,0,0,0,0,0
10,109999,74,100000,73,0,40,9999,0.100000,0,0,0.000000,6,0.000000,0.000000,2.290760,0,0,0,0,0,0,0
10,109999,75,100000,69,40000,40,9999,0.100000,0,0,0.000000,6,0.000000,0.000000,0.210863,0,0,0,0,0,0,0
10,109999,76,100000,73,0,40,9999,0.100000,0,0,0.000000,6,0.000000,0.000000,0.214990,0,0,0,0,0,0,0
10,109999,77,100000,69,40000,40,9999,0.100000,0,0,0.000000,6,0.000000,0.000000,2.243323,0,0,0,0,0,0,0
10,109999,78,100000,66,60000,40,9999,0.135000,0,0,0.000000,6,0.000000,0.000000,1.154898,0,0,0,0,0,0,0
10,109999,79,100000,69,40000,49,9999,0.100000,0,0,0.000000,6,1.000000,0.000000,9.316040,0,0,0,0,0,0,0
10,109999,80,100000,73,0,49,9999,0.100000,0,0,0.000000,6,3.000000,0.000000,14.473255,0,0,0,0,0,0,0
10,109999,81,100000,69,40000,49,9999,0.100000,0,0,0.000000,6,3.000000,0.000000,4.586729,0,0,0,0,0,0,0
10,109999,82,100000,80,20000,49,9999,0.100000,0,0,0.000000,6,1.000000,0.000000,1.917024,0,0,0,0,0,0,0
10,109999,83,100000,66,60000,40,9999,0.100000,0,0,0.000000,6,0.000000,0.000000,0.241485,0,0,0,0,0,0,0
10,109999,84,100000,66,50000,40,9999,0.100000,0,0,0.000000,6,0.000000,0.000000,1.285333,0,0,0,0,0,0,0
10,109999,85,100000,73,0,40,9999,0.100000,0,0,0.000000,6,0.000000,0.000000,0.845371,0,0,0,0,0,0,0
10,109999,86,100000,80,20000,40,9999,0.100000,0,0,0.000000,6,0.000000,0.000000,1.268820,0,0,0,0,0,0,0
10,109999,87,100000,19,0,49,9999,0.100000,0,0,0.000000,6,2.000000,0.000000,13.978945,0,0,0,0,0,0,0
10,109999,88,100000,19,0,49,9999,0.100000,0,0,0.000000,6,1.000000,0.000000,7.006992,0,0,0,0,0,0,0
10,109999,89,100000,66,50000,40,9999,0.100000,0,0,0.000000,6,0.000000,0.000000,0.192132,0,0,0,0,0,0,0
10,109999,90,100000,66,50000,49,9999,0.100000,0,0,0.000000,6,5.000000,0.000000,19.072322,0,0,0,0,0,0,0
10,109999,91,100000,69,40000,49,9999,0.100000,0,0,0.000000,6,1.000000,0.000000,3.546900,0,0,0,0,0,0,0
10,109999,92,100000,80,20000,40,9999,0.100000,0,0,0.000000,6,0.000000,0.000000,3.228961,0,0,0,0,0,0,0
10,109999,93,100000,66,60000,40,9999,0.100000,0,0,0.000000,6,0.000000,0.000000,11.462902,0,0,0,0,0,0,0
10,109999,94,100000,69,40000,49,9999,0.100000,0,0,0.000000,6,1.000000,0.000000,4.263747,0,0,0,0,0,0,0
10,109999,95,100000,69,40000,49,9999,0.100000,0,0,0.000000,6,1.000000,0.000000,12.866323,0,0,0,0,0,0,0
10,109999,96,100000,66,60000,49,9999,0.100000,0,0,0.000000,6,1.000000,0.000000,1.916320,0,0,0,0,0,0,0
10,109999,97,100000,66,60000,40,9999,0.100000,0,0,0.000000,6,0.000000,0.000000,0.345086,0,0,0,0,0,0,0
10,109999,98,100000,73,0,49,9999,0.100000,0,0,0.000000,6,3.000000,0.000000,15.764284,0,0,0,0,0,0,0
10,109999,99,100000,69,40000,49,9999,0.100000,0,0,0.000000,6,1.000000,0.000000,1.699473,0,0,0,0,0,0,0
11,119999,0,110000,66,50000,49,9999,0.100000,0,0,0.000000,6,7.000000,0.000000,9.618620,0,0,0,0,0,0,0
11,119999,1,110000,69,40000,40,9999,0.100000,0,0,0.000000,6,0.000000,0.000000,3.421973,0,0,0,0,0,0,0
11,119999,2,110000,73,0,49,9999,0.100000,0,0,0.000000,6,1.000000,0.000000,9.568593,0,0,0,0,0,0,0
11,119999,3,110000,69,40000,40,9999,0.100000,0,0,0.000000,6,0.000000,0.000000,0.487117,0,0,0,0,0,0,0
11,119999,4,110000,73,0,49,9999,0.100000,0,0,0.000000,6,1.000000,0.000000,2.852078,0,0,1,0,1,0,0
11,119999,5,110000,66,60000,49,9999,0.100000,0,0,0.000000,6,1.000000,0.000000,1.191451,0,0,0,0,0,0,0
11,119999,6,110000,66,50000,40,9999,0.100000,0,0,0.000000,6,0.000000,0.000000,0.761347,0,0,0,0,0,0,0
11,119999,7,110000,19,0,49,9999,0.100000,0,0,0.000000,6,1.000000,0.000000,1.288378,0,0,0,0,0,0,0
11,119999,8,110000,66,60000,40,9999,0.100000,0,0,0.000000,6,0.000000,0.000000,1.080909,0,0,0,0,0,0,0
11,119999,9,110000,69,40000,40,9999,0.100000,0,0,0.000000,6,0.000000,0.000000,0.253503,0,0,0,0,0,0,0
11,119999,10,110000,69,40000,40,9999,0.100000,0,0,0.000000,6,0.000000,0.000000,0.796104,0,0,0,0,0,0,0
11,119999,11,110000,80,20000,40,9999,0.100000,0,0,0.000000,6,0.000000,0.000000,0.581658,0,0,0,0,0,0,0
11,119999,12,110000,73,0,49,9999,0.100000,0,0,0.000000,6,5.000000,0.000000,7.767298,0,0,0,0,0,0,0
11,119999,13,110000,73,0,40,9999,0.100000,0,0,0.000000,6,0.000000,0.000000,3.001642,0,0,0,0,0,0,0
11,119999,14,110000,69,40000,40,9999,0.100000,0,0,0.000000,6,0.000000,0.000000,0.198475,0,0,0,0,0,0,0
11,119999,15,110000,66,60000,49,9999,0.100000,0,0,0.000000,6,1.000000,0.000000,11.370722,0,0,0,0,0,0,0
11,119999,16,110000,66,60000,40,9999,0.100000,0,0,0.000000,6,0.000000,0.000000,0.103803,0,0,0,0,0,0,0
11,119999,17,110000,19,0,40,9999,0.100000,0,0,0.000000,6,0.000000,0.000000,0.253359,0,0,0,0,0,0,0
11,119999,18,110000,66,60000,49,9999,0.100000,0,0,0.000000,6,1.000000,0.000000,9.881838,0,0,0,0,0,0,0
11,119999,19,110000,80,20000,49,9999,0.065000,0,0,0.000000,6,4.000000,0.000000,8.810619,0,0,0,0,0,0,0
11,119999,20,110000,80,20000,40,9999,0.100000,0,0,0.000000,6,0.000000,0.000000,0.885350,0,0,0,0,0,0,0
11,119999,21,110000,69,40000,40,9999,0.100000,0,0,0.000000,6,0.000000,0.000000,0.929128,0,0,0,0,0,0,0
11,119999,22,110000,19,0,49,9999,0.100000,0,0,0.000000,6,2.000000,0.000000,9.207024,0,0,0,0,0,0,0
11,119999,23,110000,80,20000,49,9999,0.100000,0,0,0.000000,6,1.000000,0.000000,3.563645,0,0,0,0,0,0,0
11,119999,24,110000,19,0,49,9999,0.100000,0,0,0.000000,6,1.000000,0.000000,7.269621,0,0,0,0,0,0,0
11,119999,25,110000,66,60000,40,9999,0.100000,0,0,0.000000,6,0.000000,0.000000,0.191561,0,0,0,0,0,0,0
11,119999,26,110000,66,60000,49,9999,0.100000,0,0,0.000000,6,4.000000,0.000000,12.692161,0,0,0,0,0,0,0
11,119999,27,110000,73,0,49,9999,0.100000,0,0,0.000000,6,1.000000,0.000000,14.568861,0,0,0,0,0,0,0
11,119999,28,110000,66,50000,40,9999,0.100000,0,0,0.000000,6,0.000000,0.000000,0.177489,0,0,0,0,0,0,0
11,119999,29,110000,73,0,40,9999,0.100000,0,0,0.000000,6,0.000000,0.000000,0.122621,0,0,0,0,0,0,0
11,119999,30,110000,66,50000,49,9999,0.100000,0,0,0.000000,6,8.000000,0.000000,11.471704,0,0,0,0,0,0,0
11,119999,31,110000,73,0,40,9999,0.100000,0,0,0.000000,6,0.000000,0.000000,2.302806,0,0,0,0,0,0,0
11,119999,32,110000,80,20000,49,9999,0.100000,0,0,0.000000,6,2.000000,0.000000,5.823611,0,0,0,0,0,0,0
11,119999,33,100000,69,40000,40,19999,0.100000,0,0,0.000000,6,0.000000,0.000000,5.828833,0,0,0,0,0,0,0
11,119999,34,110000,73,0,49,9999,0.100000,0,0,0.000000,6,2.000000,0.000000,13.153821,0,0,0,0,0,0,0
11,119999,35,110000,69,40000,40,9999,0.100000,0,0,0.000000,6,0.000000,0.000000,0.307113,0,0,0,0,0,0,0
11,119999,36,110000,66,50000,40,9999,0.100000,0,0,0.000000,6,0.000000,0.000000,0.230208,0,0,0,0,0,0,0
11,119999,37,110000,80,20000,40,9999,0.100000,0,0,0.000000,6,0.000000,0.000000,1.085290,0,0,0,0,0,0,0
11,119999,38,110000,69,40000,49,9999,0.100000,0,0,0.000000,6,1.000000,0.000000,1.534469,0,0,0,0,0,0,0
11,119999,39,110000,73,0,40,9999,0.100000,0,0,0.000000,6,0.000000,0.000000,0.239837,0,0,0,0,0,0,0
11,119999,40,110000,80,20000,40,9999,0.100000,0,0,0.000000,6,0.000000,0.000000,11.500409,0,0,0,0,0,0,0
11,119999,41,110000,19,0,49,9999,0.100000,0,0,0.000000,6,2.000000,0.000000,5.979967,0,0,0,0,0,0,0
11,119999,42,110000,19,0,40,9999,0.100000,0,0,0.000000,6,0.000000,0.000000,0.104903,0,0,0,0,0,0,0
11,119999,43,110000,66,60000,40,9999,0.100000,0,0,0.000000,6,0.000000,0.000000,0.968915,0,0,0,0,0,0,0
11,119999,44,110000,19,0,40,9999,0.100000,0,0,0.000000,6,0.000000,0.000000,0.965463,0,0,0,0,0,0,0
11,119999,45,110000,73,0,40,9999,0.100000,0,0,0.000000,6,0.000000,0.000000,0.129793,0,0,0,0,0,0,0
11,119999,46,110000,73,0,9,9999,0.100000,0,0,0.000000,6,8.000000,0.000000,26.861715,0,0,0,0,1,0,0
11,119999,47,110000,66,50000,49,9999,0.100000,0,0,0.000000,6,12.000000,0.000000,14.129604,0,0,0,0,0,0,0
11,119999,48,110000,80,20000,40,9999,0.065000,0,0,0.000000,6,0.000000,0.000000,0.130727,0,0,0,0,0,0,0
11,119999,49,110000,69,40000,40,9999,0.100000,0,0,0.000000,6,0.000000,0.000000,3.256469,0,0,0,0,0,0,0
11,119999,50,110000,66,60000,49,9999,0.100000,0,0,0.000000,6,1.000000,0.000000,1.056549,0,0,0,0,0,0,0
11,119999,51,110000,19,0,40,9999,0.100000,0,0,0.000000,6,0.000000,0.000000,7.475503,0,0,0,0,0,0,0
11,119999,52,110000,19,0,49,9999,0.100000,0,0,0.000000,6,1.000000,0.000000,7.555272,0,0,0,0,0,0,0
11,119999,53,110000,66,60000,49,9999,0.100000,0,0,0.000000,6,1.000000,0.000000,1.154344,0,0,0,0,0,0,0
11,119999,54,110000,73,0,40,9999,0.100000,0,0,0.000000,6,0.000000,0.000000,3.067246,0,0,0,0,0,0,0
11,119999,55,110000,66,50000,49,9999,0.100000,0,0,0.000000,6,7.000000,0.000000,17.402712,0,0,0,0,0,0,0
11,119999,56,110000,69,40000,49,9999,0.100000,0,0,0.000000,6,1.000000,0.000000,4.917792,0,0,0,0,0,0,0
11,119999,57,110000,66,50000,49,9999,0.100000,0,0,0.000000,6,1.000000,0.000000,21.334815,0,0,0,0,0,0,0
11,119999,58,110000,73,0,40,9999,0.100000,0,0,0.000000,6,0.000000,0.000000,0.422137,0,0,0,0,0,0,0
11,119999,59,110000,66,50000,40,9999,0.135000,0,0,0.000000,6,0.000000,0.000000,0.893130,0,0,0,0,0,0,0
11,119999,60,110000,66,50000,49,9999,0.100000,0,0,0.000000,6,2.000000,0.000000,10.449183,0,0,0,0,0,0,0
11,119999,61,110000,73,0,40,9999,0.100000,0,0,0.000000,6,0.000000,0.000000,0.222374,0,0,0,0,0,0,0
11,119999,62,110000,66,60000,49,9999,0.100000,0,0,0.000000,6,2.000000,0.000000,7.981516,0,0,0,0,0,0,0
11,119999,63,110000,19,0,40,9999,0.100000,0,0,0.000000,6,0.000000,0.000000,18.165938,0,0,0,0,0,0,0
11,119999,64,110000,66,50000,40,9999,0.100000,0,0,0.000000,6,0.000000,0.000000,0.803824,0,0,0,0,0,0,0
11,119999,65,110000,73,0,40,9999,0.100000,0,0,0.000000,6,0.000000,0.000000,0.821612,0,0,0,0,0,0,0
11,119999,66,110000,73,0,40,9999,0.100000,0,0,0.000000,6,0.000000,0.000000,1.755589,0,0,0,0,0,0,0
11,119999,67,110000,73,0,40,9999,0.100000,0,0,0.000000,6,0.000000,0.000000,0.565528,0,0,0,0,0,0,0
11,119999,68,110000,66,60000,40,9999,0.100000,0,0,0.000000,6,0.000000,0.000000,0.194230,0,0,0,0,0,0,0
11,119999,69,110000,80,20000,49,9999,0.100000,0,0,0.000000,6,7.000000,0.000000,11.169398,0,0,0,0,0,0,0
11,119999,70,110000,19,0,40,9999,0.100000,0,0,0.000000,6,0.000000,0.000000,0.754463,0,0,0,0,0,0,0
11,119999,71,110000,73,0,40,9999,0.100000,0,0,0.000000,6,0.000000,0.000000,0.256908,0,0,0,0,0,0,0
11,119999,72,110000,69,40000,49,9999,0.100000,0,0,0.000000,6,1.000000,0.000000,3.905377,0,0,0,0,0,0,0
11,119999,73,110000,19,0,40,9999,0.100000,0,0,0.000000,6,0.000000,0.000000,1.975260,0,0,0,0,0,0,0
11,119999,74,110000,66,60000,40,9999,0.100000,0,0,0.000000,6,0.000000,0.000000,1.251401,0,0,0,0,0,0,0
11,119999,75,110000,80,20000,40,9999,0.100000,0,0,0.000000,6,0.000000,0.000000,0.201387,0,0,0,0,0,0,0
11,119999,76,110000,69,40000,40,9999,0.100000,0,0,0.000000,6,0.000000,0.000000,0.503044,0,0,0,0,0,0,0
11,119999,77,110000,69,40000,40,9999,0.100000,0,0,0.000000,6,0.000000,0.000000,0.843357,0,0,0,0,0,0,0
11,119999,78,110000,19,0,40,9999,0.100000,0,0,0.000000,6,0.000000,0.000000,1.226989,0,0,0,0,0,0,0
11,119999,79,110000,73,0,40,9999,0.100000,0,0,0.000000,6,0.000000,0.000000,0.456929,0,0,0,0,0,0,0
11,119999,80,110000,66,50000,49,9999,0.100000,0,0,0.000000,6,5.000000,0.000000,9.977499,0,0,0,0,0,0,0
11,119999,81,110000,66,50000,49,9999,0.100000,0,0,0.000000,6,7.000000,0.000000,10.032507,0,0,0,0,0,0,0
11,119999,82,110000,66,50000,49,9999,0.100000,0,0,0.000000,6,1.000000,0.000000,1.209061,0,0,0,0,0,0,0
11,119999,83,110000,80,20000,40,9999,0.100000,0,0,0.000000,6,0.000000,0.000000,0.245688,0,0,0,0,0,0,0
11,119999,84,110000,66,60000,40,9999,0.100000,0,0,0.000000,6,0.000000,0.000000,0.721605,0,0,0,0,0,0,0
11,119999,85,110000,73,0,40,9999,0.100000,0,0,0.000000,6,0.000000,0.000000,0.666059,0,0,0,0,0,0,0
11,119999,86,110000,66,50000,40,9999,0.100000,0,0,0.000000,6,0.000000,0.000000,3.648096,0,0,0,0,0,0,0
11,119999,87,110000,66,60000,49,9999,0.100000,0,0,0.000000,6,1.000000,0.000000,8.172293,0,0,0,0,0,0,0
11,119999,88,110000,19,0,9,9999,0.100000,0,0,0.000000,6,5.000000,0.000000,16.826938,0,0,0,0,1,0,0
11,119999,89,110000,73,0,40,9999,0.100000,0,0,0.000000,6,0.000000,0.000000,0.199749,0,0,0,0,0,0,0
11,119999,90,110000,19,0,49,9999,0.100000,0,0,0.000000,6,2.000000,0.000000,9.672442,0,0,0,0,0,0,0
11,119999,91,110000,66,50000,9,9999,0.100000,0,0,0.000000,6,13.000000,0.000000,15.262705,0,0,0,0,1,0,0
11,119999,92,110000,69,40000,40,9999,0.100000,0,0,0.000000,6,0.000000,0.000000,2.576733,0,0,0,0,0,0,0
11,119999,93,110000,69,40000,49,9999,0.100000,0,0,0.000000,6,2.000000,0.000000,6.182493,0,0,0,0,0,0,0
11,119999,94,110000,19,0,49,9999,0.100000,0,0,0.000000,6,1.000000,0.000000,10.549375,0,0,0,0,0,0,0
11,119999,95,110000,66,60000,40,9999,0.100000,0,0,0.000000,6,0.000000,0.000000,10.380933,0,0,0,0,0,0,0
11,119999,96,110000,73,0,49,9999,0.100000,0,0,0.000000,6,1.000000,0.000000,1.175035,0,0,0,0,0,0,0
11,119999,97,110000,73,0,40,9999,0.100000,0,0,0.000000,6,0.000000,0.000000,0.200355,0,0,0,0,0,0,0
11,119999,98,110000,73,0,49,9999,0.100000,0,0,0.000000,6,1.000000,0.000000,14.622159,0,0,0,0,0,0,0
11,119999,99,110000,69,40000,40,9999,0.100000,0,0,0.000000,6,0.000000,0.000000,1.006951,0,0,0,0,0,0,0
12,129999,0,120000,73,0,49,9999,0.100000,0,0,0.000000,6,4.000000,0.000000,20.176168,0,0,0,0,0,0,0
12,129999,1,120000,66,60000,40,9999,0.100000,0,0,0.000000,6,0.000000,0.000000,3.121664,0,0,0,0,0,0,0
12,129999,2,120000,69,40000,40,9999,0.100000,0,0,0.000000,7,0.000000,0.000000,1.830748,0,0,0,0,0,0,0
12,129999,3,120000,66,60000,40,9999,0.100000,0,0,0.000000,6,0.000000,0.000000,0.546215,0,0,0,0,0,0,0
12,129999,4,120000,4,110000,99,9999,0.100000,0,0,34.210526,7,5.000000,0.000000,28.818626,0,0,1,0,0,0,0
12,129999,5,120000,19,0,49,9999,0.100000,0,0,0.000000,6,6.000000,0.000000,8.046095,0,0,0,0,0,0,0
12,129999,6,120000,66,50000,40,9999,0.100000,0,0,0.000000,6,0.000000,0.000000,0.428832,0,0,0,0,0,0,0
12,129999,7,120000,69,40000,40,9999,0.100000,0,0,0.000000,6,0.000000,0.000000,2.846159,0,0,0,0,0,0,0
12,129999,8,120000,66,50000,49,9999,0.100000,0,0,0.000000,6,1.000000,0.000000,9.053893,0,0,0,0,0,0,0
12,129999,9,120000,80,20000,40,9999,0.100000,0,0,0.000000,6,0.000000,0.000000,0.237657,0,0,0,0,0,0,0
12,129999,10,120000,66,50000,40,9999,0.100000,0,0,0.000000,6,0.000000,0.000000,0.859611,0,0,0,0,0,0,0
12,129999,11,120000,69,40000,40,9999,0.100000,0,0,0.000000,6,0.000000,0.000000,0.765987,0,0,0,0,0,0,0
12,129999,12,120000,69,40000,40,9999,0.100000,0,0,0.000000,6,0.000000,0.000000,4.234891,0,0,0,0,0,0,0
12,129999,13,120000,19,0,40,9999,0.100000,0,0,0.000000,6,0.000000,0.000000,3.338961,0,0,0,0,0,0,0
12,129999,14,120000,69,40000,40,9999,0.100000,0,0,0.000000,6,0.000000,0.000000,0.198829,0,0,0,0,0,0,0
12,129999,15,120000,66,50000,49,9999,0.100000,0,0,0.000000,6,11.000000,0.000000,18.697555,0,0,0,0,0,0,0
12,129999,16,120000,19,0,40,9999,0.100000,0,0,0.000000,6,0.000000,0.000000,0.105235,0,0,0,0,0,0,0
12,129999,17,120000,66,60000,40,9999,0.100000,0,0,0.000000,6,0.000000,0.000000,0.277745,0,0,0,0,0,0,0
12,129999,18,120000,4,110000,49,9999,0.100000,0,0,0.000000,7,2.000000,0.000000,12.318152,0,0,0,0,0,0,0
12,129999,19,120000,66,50000,49,9999,0.100000,0,0,0.000000,6,10.000000,0.000000,14.259453,0,0,0,0,0,0,0
12,129999,20,120000,69,40000,40,9999,0.100000,0,0,0.000000,6,0.000000,0.000000,0.571851,0,0,0,0,0,0,0
12,129999,21,120000,19,0,49,9999,0.100000,0,0,0.000000,6,11.000000,0.000000,14.168925,0,0,0,0,0,0,0
12,129999,22,120000,66,50000,49,9999,0.100000,0,0,0.000000,6,6.000000,0.000000,14.183077,0,0,0,0,0,0,0
12,129999,23,120000,80,20000,40,9999,0.100000,0,0,0.000000,6,0.000000,0.000000,1.836249,0,0,0,0,0,0,0
12,129999,24,120000,66,50000,99,9999,0.100000,0,0,34.210526,6,8.000000,0.000000,19.456991,0,0,1,0,0,0,0
12,129999,25,120000,69,40000,40,9999,0.100000,0,0,0.000000,6,0.000000,0.000000,0.184374,0,0,0,0,0,0,0
12,129999,26,120000,19,0,49,9999,0.100000,0,0,0.000000,6,2.000000,0.000000,10.182938,0,0,0,0,0,0,0
12,129999,27,120000,69,40000,49,9999,0.100000,0,0,0.000000,6,2.000000,0.000000,7.831803,0,0,0,0,0,0,0
12,129999,28,120000,66,60000,40,9999,0.100000,0,0,0.000000,6,0.000000,0.000000,0.186846,0,0,0,0,0,0,0
12,129999,29,120000,19,0,40,9999,0.100000,0,0,0.000000,6,0.000000,0.000000,0.119694,0,0,0,0,0,0,0
