generation,iteration,robot,birthday,ancestor_id,ancestor_birthday,cell_id,age,sigma,maps,genomes,fitness,cells_in_map,dist_max,dist_pot_max,dist_total,com_rx,com_tx,obj_group1,obj_group2,obj_group3,obj_group4,obj_group5
0,9999,0,0,0,0,1,9999,0.100000,0,0,0.000000,0,11.000000,0.000000,17.926177,0,0,0,0,0,0,0
0,9999,1,0,1,0,1,9999,0.100000,0,0,0.000000,0,7.000000,0.000000,11.957447,0,0,0,0,0,0,0
0,9999,2,0,2,0,1,9999,0.100000,0,0,0.000000,0,4.000000,0.000000,22.944435,0,0,0,0,0,0,0
0,9999,3,0,3,0,1,9999,0.100000,0,0,0.000000,0,10.000000,0.000000,19.661639,0,0,0,0,0,0,0
0,9999,4,0,4,0,1,9999,0.100000,0,0,0.000000,0,12.000000,0.000000,23.803467,0,0,0,0,0,0,0
0,9999,5,0,5,0,1,9999,0.100000,0,0,0.000000,0,8.000000,0.000000,11.477304,0,0,0,0,0,0,0
0,9999,6,0,6,0,1,9999,0.100000,0,0,0.000000,0,12.000000,0.000000,17.556487,0,0,0,0,0,0,0
0,9999,7,0,7,0,1,9999,0.100000,0,0,0.000000,0,1.000000,0.000000,12.030690,0,0,0,0,0,0,0
0,9999,8,0,8,0,1,9999,0.100000,0,0,0.000000,0,1.000000,0.000000,2.623769,0,0,0,0,0,0,0
0,9999,9,0,9,0,1,9999,0.100000,0,0,0.000000,0,7.000000,0.000000,11.509921,0,0,0,0,0,0,0
0,9999,10,0,10,0,1,9999,0.100000,0,0,0.000000,0,9.000000,0.000000,23.072198,0,0,0,0,0,0,0
0,9999,11,0,11,0,1,9999,0.100000,0,0,0.000000,0,8.000000,0.000000,13.528363,0,0,0,0,0,0,0
0,9999,12,0,12,0,1,9999,0.100000,0,0,0.000000,0,8.000000,0.000000,12.786995,0,0,0,0,0,0,0
0,9999,13,0,13,0,1,9999,0.100000,0,0,0.000000,0,4.000000,0.000000,6.241515,0,0,0,0,0,0,0
0,9999,14,0,14,0,1,9999,0.100000,0,0,0.000000,0,3.000000,0.000000,11.458966,0,0,0,0,0,0,0
0,9999,15,0,15,0,1,9999,0.100000,0,0,0.000000,0,8.000000,0.000000,13.194324,0,0,0,0,0,0,0
0,9999,16,0,16,0,1,9999,0.100000,0,0,0.000000,0,9.000000,0.000000,25.383871,0,0,0,0,0,0,0
0,9999,17,0,17,0,1,9999,0.100000,0,0,0.000000,0,8.000000,0.000000,10.875245,0,0,0,0,0,0,0
0,9999,18,0,18,0,1,9999,0.100000,0,0,0.000000,0,4.000000,0.000000,10.037989,0,0,0,0,0,0,0
0,9999,19,0,19,0,1,9999,0.100000,0,0,0.000000,0,5.000000,0.000000,13.901492,0,0,0,0,0,0,0
0,9999,20,0,20,0,1,9999,0.100000,0,0,0.000000,0,9.000000,0.000000,20.400281,0,0,0,0,0,0,0
0,9999,21,0,21,0,1,9999,0.100000,0,0,0.000000,0,5.000000,0.000000,17.272173,0,0,0,0,0,0,0
0,9999,22,0,22,0,1,9999,0.100000,0,0,0.000000,0,7.000000,0.000000,14.555217,0,0,0,0,0,0,0
0,9999,23,0,23,0,1,9999,0.100000,0,0,0.000000,0,7.000000,0.000000,17.976855,0,0,0,0,0,0,0
0,9999,24,0,24,0,1,9999,0.100000,0,0,0.000000,0,4.000000,0.000000,21.890063,0,0,0,0,0,0,0
0,9999,25,0,25,0,1,9999,0.100000,0,0,0.000000,0,6.000000,0.000000,12.669086,0,0,0,0,0,0,0
0,9999,26,0,26,0,1,9999,0.100000,0,0,0.000000,0,4.000000,0.000000,15.011907,0,0,0,0,0,0,0
0,9999,27,0,27,0,1,9999,0.100000,0,0,0.000000,0,9.000000,0.000000,21.966915,0,0,0,0,0,0,0
0,9999,28,0,28,0,1,9999,0.100000,0,0,0.000000,0,10.000000,0.000000,19.046295,0,0,0,0,0,0,0
0,9999,29,0,29,0,1,9999,0.100000,0,0,0.000000,0,6.000000,0.000000,12.137093,0,0,0,0,0,0,0
0,9999,30,0,30,0,1,9999,0.100000,0,0,0.000000,0,11.000000,0.000000,39.388856,0,0,0,0,0,0,0
0,9999,31,0,31,0,1,9999,0.100000,0,0,0.000000,0,10.000000,0.000000,28.609324,0,0,0,0,0,0,0
0,9999,32,0,32,0,1,9999,0.100000,0,0,0.000000,0,10.000000,0.000000,22.848123,0,0,0,0,0,0,0
0,9999,33,0,33,0,1,9999,0.100000,0,0,0.000000,0,9.000000,0.000000,24.288048,0,0,0,0,0,0,0
0,9999,34,0,34,0,1,9999,0.100000,0,0,0.000000,0,3.000000,0.000000,7.088772,0,0,0,0,0,0,0
0,9999,35,0,35,0,1,9999,0.100000,0,0,0.000000,0,8.000000,0.000000,11.570342,0,0,0,0,0,0,0
0,9999,36,0,36,0,1,9999,0.100000,0,0,0.000000,0,5.000000,0.000000,10.844653,0,0,0,0,0,0,0
0,9999,37,0,37,0,1,9999,0.100000,0,0,0.000000,0,4.000000,0.000000,14.880157,0,0,0,0,0,0,0
0,9999,38,0,38,0,1,9999,0.100000,0,0,0.000000,0,6.000000,0.000000,19.705559,0,0,0,0,0,0,0
0,9999,39,0,39,0,1,9999,0.100000,0,0,0.000000,0,2.000000,0.000000,9.072433,0,0,0,0,0,0,0
0,9999,40,0,40,0,1,9999,0.100000,0,0,0.000000,0,13.000000,0.000000,27.225397,0,0,0,0,0,0,0
0,9999,41,0,41,0,1,9999,0.100000,0,0,0.000000,0,8.000000,0.000000,10.999918,0,0,0,0,0,0,0
0,9999,42,0,42,0,1,9999,0.100000,0,0,0.000000,0,11.000000,0.000000,16.837002,0,0,0,0,0,0,0
0,9999,43,0,43,0,1,9999,0.100000,0,0,0.000000,0,3.000000,0.000000,13.300109,0,0,0,0,0,0,0
0,9999,44,0,44,0,1,9999,0.100000,0,0,0.000000,0,5.000000,0.000000,12.327569,0,0,0,0,0,0,0
0,9999,45,0,45,0,1,9999,0.100000,0,0,0.000000,0,8.000000,0.000000,21.644648,0,0,0,0,0,0,0
0,9999,46,0,46,0,1,9999,0.100000,0,0,0.000000,0,10.000000,0.000000,19.319020,0,0,0,0,0,0,0
0,9999,47,0,47,0,1,9999,0.100000,0,0,0.000000,0,11.000000,0.000000,17.598280,0,0,0,0,0,0,0
0,9999,48,0,48,0,1,9999,0.100000,0,0,0.000000,0,8.000000,0.000000,24.692619,0,0,0,0,0,0,0
0,9999,49,0,49,0,1,9999,0.100000,0,0,0.000000,0,9.000000,0.000000,16.236919,0,0,0,0,0,0,0
0,9999,50,0,50,0,1,9999,0.100000,0,0,0.000000,0,9.000000,0.000000,12.351660,0,0,0,0,0,0,0
0,9999,51,0,51,0,1,9999,0.100000,0,0,0.000000,0,5.000000,0.000000,12.270133,0,0,0,0,0,0,0
0,9999,52,0,52,0,1,9999,0.100000,0,0,0.000000,0,7.000000,0.000000,13.173960,0,0,0,0,0,0,0
0,9999,53,0,53,0,1,9999,0.100000,0,0,0.000000,0,4.000000,0.000000,10.705786,0,0,0,0,0,0,0
0,9999,54,0,54,0,1,9999,0.100000,0,0,0.000000,0,3.000000,0.000000,12.916838,0,0,0,0,0,0,0
0,9999,55,0,55,0,1,9999,0.100000,0,0,0.000000,0,8.000000,0.000000,21.281845,0,0,0,0,0,0,0
0,9999,56,0,56,0,1,9999,0.100000,0,0,0.000000,0,9.000000,0.000000,19.759581,0,0,0,0,0,0,0
0,9999,57,0,57,0,1,9999,0.100000,0,0,0.000000,0,9.000000,0.000000,19.170517,0,0,0,0,0,0,0
0,9999,58,0,58,0,1,9999,0.100000,0,0,0.000000,0,9.000000,0.000000,21.272001,0,0,0,0,0,0,0
0,9999,59,0,59,0,1,9999,0.100000,0,0,0.000000,0,8.000000,0.000000,17.125745,0,0,0,0,0,0,0
0,9999,60,0,60,0,1,9999,0.100000,0,0,0.000000,0,12.000000,0.000000,22.858201,0,0,0,0,0,0,0
0,9999,61,0,61,0,1,9999,0.100000,0,0,0.000000,0,7.000000,0.000000,16.223007,0,0,0,0,0,0,0
0,9999,62,0,62,0,1,9999,0.100000,0,0,0.000000,0,8.000000,0.000000,16.950991,0,0,0,0,0,0,0
0,9999,63,0,63,0,1,9999,0.100000,0,0,0.000000,0,4.000000,0.000000,19.517896,0,0,0,0,0,0,0
0,9999,64,0,64,0,1,9999,0.100000,0,0,0.000000,0,7.000000,0.000000,14.676682,0,0,0,0,0,0,0
0,9999,65,0,65,0,1,9999,0.100000,0,0,0.000000,0,5.000000,0.000000,14.533959,0,0,0,0,0,0,0
0,9999,66,0,66,0,1,9999,0.100000,0,0,0.000000,0,8.000000,0.000000,20.256913,0,0,0,0,0,0,0
0,9999,67,0,67,0,1,9999,0.100000,0,0,0.000000,0,9.000000,0.000000,21.287648,0,0,0,0,0,0,0
0,9999,68,0,68,0,1,9999,0.100000,0,0,0.000000,0,9.000000,0.000000,21.037218,0,0,0,0,0,0,0
0,9999,69,0,69,0,1,9999,0.100000,0,0,0.000000,0,13.000000,0.000000,25.301537,0,0,0,0,0,0,0
0,9999,70,0,70,0,1,9999,0.100000,0,0,0.000000,0,8.000000,0.000000,12.279510,0,0,0,0,0,0,0
0,9999,71,0,71,0,1,9999,0.100000,0,0,0.000000,0,6.000000,0.000000,23.254400,0,0,0,0,0,0,0
0,9999,72,0,72,0,1,9999,0.100000,0,0,0.000000,0,12.000000,0.000000,21.587131,0,0,0,0,0,0,0
0,9999,73,0,73,0,1,9999,0.100000,0,0,0.000000,0,11.000000,0.000000,27.348765,0,0,0,0,0,0,0
0,9999,74,0,74,0,1,9999,0.100000,0,0,0.000000,0,12.000000,0.000000,26.634076,0,0,0,0,0,0,0
0,9999,75,0,75,0,1,9999,0.100000,0,0,0.000000,0,7.000000,0.000000,13.646027,0,0,0,0,0,0,0
0,9999,76,0,76,0,1,9999,0.100000,0,0,0.000000,0,8.000000,0.000000,19.315705,0,0,0,0,0,0,0
0,9999,77,0,77,0,1,9999,0.100000,0,0,0.000000,0,8.000000,0.000000,15.084183,0,0,0,0,0,0,0
0,9999,78,0,78,0,1,9999,0.100000,0,0,0.000000,0,9.000000,0.000000,15.168515,0,0,0,0,0,0,0
0,9999,79,0,79,0,1,9999,0.100000,0,0,0.000000,0,9.000000,0.000000,19.117402,0,0,0,0,0,0,0
0,9999,80,0,80,0,1,9999,0.100000,0,0,0.000000,0,12.000000,0.000000,15.678765,0,0,0,0,0,0,0
0,9999,81,0,81,0,1,9999,0.100000,0,0,0.000000,0,13.000000,0.000000,15.630530,0,0,0,0,0,0,0
0,9999,82,0,82,0,1,9999,0.100000,0,0,0.000000,0,5.000000,0.000000,21.042160,0,0,0,0,0,0,0
0,9999,83,0,83,0,1,9999,0.100000,0,0,0.000000,0,3.000000,0.000000,14.646175,0,0,0,0,0,0,0
0,9999,84,0,84,0,1,9999,0.100000,0,0,0.000000,0,10.000000,0.000000,26.669354,0,0,0,0,0,0,0
0,9999,85,0,85,0,1,9999,0.100000,0,0,0.000000,0,9.000000,0.000000,19.708460,0,0,0,0,0,0,0
0,9999,86,0,86,0,1,9999,0.100000,0,0,0.000000,0,4.000000,0.000000,6.014487,0,0,0,0,0,0,0
0,9999,87,0,87,0,1,9999,0.100000,0,0,0.000000,0,7.000000,0.000000,20.528374,0,0,0,0,0,0,0
0,9999,88,0,88,0,1,9999,0.100000,0,0,0.000000,0,10.000000,0.000000,15.419953,0,0,0,0,0,0,0
0,9999,89,0,89,0,1,9999,0.100000,0,0,0.000000,0,11.000000,0.000000,16.629190,0,0,0,0,0,0,0
0,9999,90,0,90,0,1,9999,0.100000,0,0,0.000000,0,9.000000,0.000000,31.525743,0,0,0,0,0,0,0
0,9999,91,0,91,0,1,9999,0.100000,0,0,0.000000,0,10.000000,0.000000,20.293987,0,0,0,0,0,0,0
0,9999,92,0,92,0,1,9999,0.100000,0,0,0.000000,0,12.000000,0.000000,20.677894,0,0,0,0,0,0,0
0,9999,93,0,93,0,1,9999,0.100000,0,0,0.000000,0,10.000000,0.000000,11.351204,0,0,0,0,0,0,0
0,9999,94,0,94,0,1,9999,0.100000,0,0,0.000000,0,8.000000,0.000000,28.608981,0,0,0,0,0,0,0
0,9999,95,0,95,0,1,9999,0.100000,0,0,0.000000,0,10.000000,0.000000,19.536735,0,0,0,0,0,0,0
0,9999,96,0,96,0,1,9999,0.100000,0,0,0.000000,0,1.000000,0.000000,3.997349,0,0,0,0,0,0,0
0,9999,97,0,97,0,1,9999,0.100000,0,0,0.000000,0,5.000000,0.000000,11.931025,0,0,0,0,0,0,0
0,9999,98,0,98,0,1,9999,0.100000,0,0,0.000000,0,6.000000,0.000000,11.746933,0,0,0,0,0,0,0
0,9999,99,0,99,0,1,9999,0.100000,0,0,0.000000,0,2.000000,0.000000,11.452963,0,0,0,0,0,0,0
1,19999,0,10000,6,0,1,9999,0.100000,0,0,0.000000,1,1.000000,0.000000,4.218750,0,0,0,0,0,0,0
1,19999,1,10000,6,0,0,9999,0.100000,0,0,0.000000,1,0.000000,0.000000,16.407947,0,0,0,0,0,0,0
1,19999,2,10000,6,0,1,9999,0.100000,0,0,0.000000,1,3.000000,0.000000,10.175661,0,0,0,0,0,0,0
1,19999,3,10000,6,0,1,9999,0.100000,0,0,0.000000,1,1.000000,0.000000,10.739649,0,0,0,0,0,0,0
1,19999,4,10000,6,0,1,9999,0.100000,0,0,0.000000,1,2.000000,0.000000,12.348644,0,0,0,0,0,0,0
1,19999,5,10000,6,0,0,9999,0.100000,0,0,0.000000,1,0.000000,0.000000,1.353946,0,0,0,0,0,0,0
1,19999,6,10000,6,0,0,9999,0.100000,0,0,0.000000,1,0.000000,0.000000,0.991623,0,0,0,0,0,0,0
1,19999,7,10000,6,0,0,9999,0.100000,0,0,0.000000,1,0.000000,0.000000,1.596497,0,0,0,0,0,0,0
1,19999,8,10000,6,0,0,9999,0.100000,0,0,0.000000,1,0.000000,0.000000,0.627381,0,0,0,0,0,0,0
1,19999,9,10000,6,0,0,9999,0.100000,0,0,0.000000,1,0.000000,0.000000,1.217227,0,0,0,0,0,0,0
1,19999,10,10000,6,0,1,9999,0.100000,0,0,0.000000,1,1.000000,0.000000,7.880109,0,0,0,0,0,0,0
1,19999,11,10000,6,0,1,9999,0.100000,0,0,34.210526,1,6.000000,0.000000,22.296880,0,0,0,1,0,0,0
1,19999,12,10000,6,0,1,9999,0.100000,0,0,0.000000,1,1.000000,0.000000,11.019352,0,0,0,0,0,0,0
1,19999,13,10000,6,0,0,9999,0.100000,0,0,0.000000,1,0.000000,0.000000,0.393385,0,0,0,0,0,0,0
1,19999,14,10000,6,0,1,9999,0.100000,0,0,0.000000,1,1.000000,0.000000,14.448475,0,0,0,0,0,0,0
1,19999,15,10000,6,0,1,9999,0.100000,0,0,0.000000,1,4.000000,0.000000,14.827123,0,0,0,0,0,0,0
1,19999,16,10000,6,0,1,9999,0.100000,0,0,0.000000,1,1.000000,0.000000,12.139545,0,0,0,0,0,0,0
1,19999,17,10000,6,0,1,9999,0.100000,0,0,0.000000,1,2.000000,0.000000,6.399633,0,0,0,0,0,0,0
1,19999,18,10000,6,0,0,9999,0.100000,0,0,0.000000,1,0.000000,0.000000,0.220077,0,0,0,0,0,0,0
1,19999,19,10000,6,0,1,9999,0.100000,0,0,0.000000,1,1.000000,0.000000,6.992419,0,0,0,0,0,0,0
1,19999,20,10000,6,0,1,9999,0.100000,0,0,0.000000,1,3.000000,0.000000,17.626966,0,0,0,0,0,0,0
1,19999,21,10000,6,0,0,9999,0.100000,0,0,0.000000,1,0.000000,0.000000,14.525496,0,0,0,0,0,0,0
1,19999,22,10000,6,0,1,9999,0.100000,0,0,34.210526,1,7.000000,0.000000,9.843354,0,0,0,1,0,0,0
1,19999,23,10000,6,0,1,9999,0.100000,0,0,0.000000,1,5.000000,0.000000,16.778319,0,0,0,0,0,0,0
1,19999,24,10000,6,0,1,9999,0.100000,0,0,0.000000,1,1.000000,0.000000,11.104726,0,0,0,0,0,0,0
1,19999,25,10000,6,0,1,9999,0.100000,0,0,0.000000,1,2.000000,0.000000,6.712230,0,0,0,0,0,0,0
1,19999,26,10000,6,0,1,9999,0.100000,0,0,0.000000,1,1.000000,0.000000,11.915327,0,0,0,0,0,0,0
1,19999,27,10000,6,0,1,9999,0.100000,0,0,0.000000,1,1.000000,0.000000,11.919143,0,0,0,0,0,0,0
1,19999,28,10000,6,0,1,9999,0.100000,0,0,0.000000,1,1.000000,0.000000,12.993719,0,0,0,0,0,0,0
1,19999,29,10000,6,0,0,9999,0.065000,0,0,0.000000,1,0.000000,0.000000,0.200126,0,0,0,0,0,0,0
1,19999,30,10000,6,0,1,9999,0.100000,0,0,0.000000,1,4.000000,0.000000,13.055064,0,0,0,0,0,0,0
1,19999,31,10000,6,0,1,9999,0.100000,0,0,0.000000,1,4.000000,0.000000,13.653505,0,0,0,0,0,0,0
1,19999,32,10000,6,0,1,9999,0.100000,0,0,0.000000,1,1.000000,0.000000,10.700842,0,0,0,0,0,0,0
1,19999,33,10000,6,0,1,9999,0.100000,0,0,0.000000,1,3.000000,0.000000,10.147250,0,0,0,0,0,0,0
1,19999,34,10000,6,0,0,9999,0.100000,0,0,0.000000,1,0.000000,0.000000,0.375322,0,0,0,0,0,0,0
1,19999,35,10000,6,0,0,9999,0.100000,0,0,0.000000,1,0.000000,0.000000,0.368782,0,0,0,0,0,0,0
1,19999,36,10000,6,0,0,9999,0.100000,0,0,0.000000,1,0.000000,0.000000,0.723778,0,0,0,0,0,0,0
1,19999,37,10000,6,0,1,9999,0.100000,0,0,0.000000,1,2.000000,0.000000,3.513264,0,0,0,0,0,0,0
1,19999,38,10000,6,0,0,9999,0.100000,0,0,0.000000,1,0.000000,0.000000,7.548096,0,0,0,0,0,0,0
1,19999,39,10000,6,0,1,9999,0.100000,0,0,0.000000,1,1.000000,0.000000,5.095579,0,0,0,0,0,0,0
1,19999,40,10000,6,0,1,9999,0.100000,0,0,0.000000,1,2.000000,0.000000,4.853494,0,0,0,0,0,0,0
1,19999,41,10000,6,0,1,9999,0.100000,0,0,0.000000,1,1.000000,0.000000,18.802905,0,0,0,0,0,0,0
1,19999,42,10000,6,0,0,9999,0.100000,0,0,0.000000,1,0.000000,0.000000,0.284181,0,0,0,0,0,0,0
1,19999,43,10000,6,0,1,9999,0.100000,0,0,0.000000,1,2.000000,0.000000,11.187428,0,0,0,0,0,0,0
1,19999,44,10000,6,0,1,9999,0.100000,0,0,0.000000,1,1.000000,0.000000,11.495829,0,0,0,0,0,0,0
1,19999,45,10000,6,0,1,9999,0.100000,0,0,0.000000,1,5.000000,0.000000,10.969518,0,0,0,0,0,0,0
1,19999,46,10000,6,0,1,9999,0.100000,0,0,0.000000,1,1.000000,0.000000,12.668285,0,0,0,0,0,0,0
1,19999,47,10000,6,0,1,9999,0.100000,0,0,0.000000,1,1.000000,0.000000,10.749086,0,0,0,0,0,0,0
1,19999,48,10000,6,0,0,9999,0.100000,0,0,0.000000,1,0.000000,0.000000,14.917661,0,0,0,0,0,0,0
1,19999,49,10000,6,0,1,9999,0.100000,0,0,0.000000,1,2.000000,0.000000,12.788122,0,0,0,0,0,0,0
1,19999,50,10000,6,0,0,9999,0.100000,0,0,0.000000,1,0.000000,0.000000,0.531835,0,0,0,0,0,0,0
1,19999,51,10000,6,0,0,9999,0.100000,0,0,0.000000,1,0.000000,0.000000,1.284865,0,0,0,0,0,0,0
1,19999,52,10000,6,0,1,9999,0.100000,0,0,0.000000,1,3.000000,0.000000,14.970022,0,0,0,0,0,0,0
1,19999,53,10000,6,0,1,9999,0.100000,0,0,0.000000,1,5.000000,0.000000,23.134526,0,0,0,0,0,0,0
1,19999,54,10000,6,0,0,9999,0.100000,0,0,0.000000,1,0.000000,0.000000,6.607076,0,0,0,0,0,0,0
1,19999,55,10000,6,0,1,9999,0.100000,0,0,0.000000,1,2.000000,0.000000,14.582392,0,0,0,0,0,0,0
1,19999,56,10000,6,0,1,9999,0.100000,0,0,0.000000,1,6.000000,0.000000,14.315000,0,0,0,0,0,0,0
1,19999,57,10000,6,0,1,9999,0.100000,0,0,0.000000,1,4.000000,0.000000,10.400579,0,0,0,0,0,0,0
1,19999,58,10000,6,0,1,9999,0.100000,0,0,0.000000,1,5.000000,0.000000,18.827981,0,0,0,0,0,0,0
1,19999,59,10000,6,0,1,9999,0.100000,0,0,0.000000,1,2.000000,0.000000,13.199639,0,0,0,0,0,0,0
1,19999,60,10000,6,0,1,9999,0.100000,0,0,0.000000,1,1.000000,0.000000,10.205720,0,0,0,0,0,0,0
1,19999,61,10000,6,0,1,9999,0.100000,0,0,34.210526,1,7.000000,0.000000,9.386922,0,0,0,1,0,0,0
1,19999,62,10000,6,0,1,9999,0.100000,0,0,0.000000,1,3.000000,0.000000,15.534836,0,0,0,0,0,0,0
1,19999,63,10000,6,0,1,9999,0.100000,0,0,0.000000,1,3.000000,0.000000,14.073905,0,0,0,0,0,0,0
1,19999,64,10000,6,0,1,9999,0.100000,0,0,0.000000,1,5.000000,0.000000,14.980769,0,0,0,0,0,0,0
1,19999,65,10000,6,0,1,9999,0.100000,0,0,0.000000,1,3.000000,0.000000,11.369132,0,0,0,0,0,0,0
1,19999,66,10000,6,0,1,9999,0.100000,0,0,0.000000,1,1.000000,0.000000,3.522603,0,0,0,0,0,0,0
1,19999,67,10000,6,0,0,9999,0.100000,0,0,0.000000,1,0.000000,0.000000,0.487744,0,0,0,0,0,0,0
1,19999,68,10000,6,0,1,9999,0.100000,0,0,0.000000,1,1.000000,0.000000,4.807777,0,0,0,0,0,0,0
1,19999,69,10000,6,0,1,9999,0.100000,0,0,0.000000,1,1.000000,0.000000,13.888555,0,0,0,0,0,0,0
1,19999,70,10000,6,0,0,9999,0.100000,0,0,0.000000,1,0.000000,0.000000,0.553200,0,0,0,0,0,0,0
1,19999,71,10000,73,0,1,9999,0.100000,0,0,34.210526,2,6.000000,0.000000,15.182521,0,0,0,1,0,0,0
1,19999,72,10000,6,0,0,9999,0.100000,0,0,0.000000,1,0.000000,0.000000,11.722546,0,0,0,0,0,0,0
1,19999,73,10000,73,0,0,9999,0.100000,0,0,0.000000,2,0.000000,0.000000,1.208102,0,0,0,0,0,0,0
1,19999,74,10000,6,0,1,9999,0.100000,0,0,0.000000,2,2.000000,0.000000,12.414498,0,0,0,0,0,0,0
1,19999,75,10000,6,0,1,9999,0.100000,0,0,0.000000,2,1.000000,0.000000,16.233524,0,0,0,0,0,0,0
1,19999,76,10000,6,0,1,9999,0.100000,0,0,0.000000,2,1.000000,0.000000,17.361640,0,0,0,0,0,0,0
1,19999,77,10000,73,0,1,9999,0.100000,0,0,0.000000,2,5.000000,0.000000,12.443855,0,0,0,0,0,0,0
1,19999,78,10000,6,0,1,9999,0.100000,0,0,0.000000,2,1.000000,0.000000,12.461178,0,0,0,0,0,0,0
1,19999,79,10000,73,0,1,9999,0.100000,0,0,0.000000,2,4.000000,0.000000,14.797423,0,0,0,0,0,0,0
1,19999,80,10000,81,0,0,9999,0.100000,0,0,0.000000,2,0.000000,0.000000,1.002890,0,0,0,0,0,0,0
1,19999,81,10000,81,0,0,9999,0.100000,0,0,0.000000,2,0.000000,0.000000,0.562706,0,0,0,0,0,0,0
1,19999,82,10000,81,0,1,9999,0.100000,0,0,0.000000,2,1.000000,0.000000,15.289222,0,0,0,0,0,0,0
1,19999,83,10000,81,0,1,9999,0.100000,0,0,0.000000,2,3.000000,0.000000,19.989867,0,0,0,0,0,0,0
1,19999,84,10000,81,0,3,9999,0.100000,0,0,94.128733,2,17.000000,0.000000,28.515232,0,0,1,0,0,0,0
1,19999,85,10000,81,0,1,9999,0.100000,0,0,0.000000,2,7.000000,0.000000,19.742157,0,0,0,0,0,0,0
1,19999,86,10000,81,0,1,9999,0.100000,0,0,0.000000,2,2.000000,0.000000,3.341478,0,0,0,0,0,0,0
1,19999,87,10000,81,0,1,9999,0.100000,0,0,0.000000,2,3.000000,0.000000,19.044592,0,0,0,0,0,0,0
1,19999,88,10000,81,0,0,9999,0.100000,0,0,0.000000,2,0.000000,0.000000,2.248321,0,0,0,0,0,0,0
1,19999,89,10000,81,0,1,9999,0.100000,0,0,0.000000,2,9.000000,0.000000,21.842527,0,0,0,0,0,0,0
1,19999,90,10000,81,0,1,9999,0.100000,0,0,0.000000,2,1.000000,0.000000,18.289112,0,0,0,0,0,0,0
1,19999,91,10000,81,0,1,9999,0.100000,0,0,0.000000,2,6.000000,0.000000,23.098590,0,0,0,0,0,0,0
1,19999,92,10000,81,0,1,9999,0.100000,0,0,0.000000,2,3.000000,0.000000,8.231256,0,0,0,0,0,0,0
1,19999,93,10000,81,0,0,9999,0.100000,0,0,0.000000,2,0.000000,0.000000,0.124410,0,0,0,0,0,0,0
1,19999,94,10000,81,0,0,9999,0.100000,0,0,0.000000,2,0.000000,0.000000,21.976287,0,0,0,0,0,0,0
1,19999,95,10000,81,0,0,9999,0.100000,0,0,0.000000,2,0.000000,0.000000,4.591623,0,0,0,0,0,0,0
1,19999,96,10000,81,0,0,9999,0.100000,0,0,0.000000,2,0.000000,0.000000,1.049321,0,0,0,0,0,0,0
1,19999,97,10000,81,0,1,9999,0.100000,0,0,0.000000,2,2.000000,0.000000,7.151918,0,0,0,0,0,0,0
1,19999,98,10000,81,0,0,9999,0.135000,0,0,0.000000,2,0.000000,0.000000,0.204023,0,0,0,0,0,0,0
1,19999,99,10000,81,0,1,9999,0.100000,0,0,0.000000,2,3.000000,0.000000,19.680061,0,0,0,0,0,0,0
2,29999,0,20000,6,10000,0,9999,0.100000,0,0,0.000000,3,0.000000,0.000000,1.484712,0,0,0,0,0,0,0
2,29999,1,20000,0,10000,0,9999,0.100000,0,0,0.000000,3,0.000000,0.000000,11.953231,0,0,0,0,0,0,0
2,29999,2,20000,6,10000,1,9999,0.100000,0,0,0.000000,3,6.000000,0.000000,14.181758,0,0,0,0,0,0,0
2,29999,3,20000,6,10000,1,9999,0.100000,0,0,0.000000,3,2.000000,0.000000,12.703791,0,0,0,0,0,0,0
2,29999,4,20000,0,10000,1,9999,0.100000,0,0,0.000000,3,2.000000,0.000000,9.355458,0,0,0,0,0,0,0
2,29999,5,20000,6,10000,1,9999,0.100000,0,0,0.000000,3,5.000000,0.000000,6.616502,0,0,0,0,0,0,0
2,29999,6,20000,0,10000,0,9999,0.100000,0,0,0.000000,3,0.000000,0.000000,1.032537,0,0,0,0,0,0,0
2,29999,7,20000,0,10000,0,9999,0.100000,0,0,0.000000,3,0.000000,0.000000,1.645217,0,0,0,0,0,0,0
2,29999,8,20000,6,10000,0,9999,0.100000,0,0,0.000000,3,0.000000,0.000000,0.401772,0,0,0,0,0,0,0
2,29999,9,20000,0,10000,0,9999,0.100000,0,0,0.000000,3,0.000000,0.000000,1.322001,0,0,0,0,0,0,0
2,29999,10,20000,0,10000,0,9999,0.100000,0,0,0.000000,3,0.000000,0.000000,3.993726,0,0,0,0,0,0,0
2,29999,11,20000,0,10000,1,9999,0.100000,0,0,0.000000,3,4.000000,0.000000,14.297419,0,0,0,0,0,0,0
2,29999,12,20000,6,10000,1,9999,0.100000,0,0,0.000000,3,3.000000,0.000000,12.721669,0,0,0,0,0,0,0
2,29999,13,20000,0,10000,0,9999,0.100000,0,0,0.000000,3,0.000000,0.000000,0.637704,0,0,0,0,0,0,0
2,29999,14,20000,6,10000,1,9999,0.100000,0,0,0.000000,3,1.000000,0.000000,4.992230,0,0,0,0,0,0,0
2,29999,15,20000,0,10000,1,9999,0.100000,0,0,0.000000,3,7.000000,0.000000,17.193600,0,0,0,0,0,0,0
2,29999,16,20000,6,10000,1,9999,0.100000,0,0,0.000000,3,1.000000,0.000000,9.910289,0,0,0,0,0,0,0
2,29999,17,20000,6,10000,1,9999,0.100000,0,0,0.000000,3,1.000000,0.000000,1.801901,0,0,0,0,0,0,0
2,29999,18,20000,0,10000,0,9999,0.100000,0,0,0.000000,3,0.000000,0.000000,0.281869,0,0,0,0,0,0,0
2,29999,19,20000,6,10000,1,9999,0.100000,0,0,0.000000,3,4.000000,0.000000,12.414906,0,0,0,0,0,0,0
2,29999,20,20000,6,10000,1,9999,0.100000,0,0,0.000000,3,1.000000,0.000000,19.786979,0,0,0,0,0,0,0
2,29999,21,20000,6,10000,0,9999,0.100000,0,0,0.000000,3,0.000000,0.000000,0.593239,0,0,0,0,0,0,0
2,29999,22,20000,0,10000,1,9999,0.100000,0,0,0.000000,3,3.000000,0.000000,14.312601,0,0,0,0,0,0,0
2,29999,23,20000,6,10000,1,9999,0.100000,0,0,0.000000,3,3.000000,0.000000,3.662491,0,0,0,0,0,0,0
2,29999,24,20000,0,10000,0,9999,0.100000,0,0,0.000000,3,0.000000,0.000000,0.674067,0,0,0,0,0,0,0
2,29999,25,20000,6,10000,1,9999,0.100000,0,0,0.000000,3,6.000000,0.000000,8.580337,0,0,0,0,0,0,0
2,29999,26,20000,0,10000,0,9999,0.100000,0,0,0.000000,3,0.000000,0.000000,1.297196,0,0,0,0,0,0,0
2,29999,27,20000,0,10000,1,9999,0.100000,0,0,0.000000,3,1.000000,0.000000,7.673700,0,0,0,0,0,0,0
2,29999,28,20000,6,10000,1,9999,0.100000,0,0,0.000000,3,1.000000,0.000000,10.048102,0,0,0,0,0,0,0
2,29999,29,20000,6,10000,0,9999,0.100000,0,0,0.000000,3,0.000000,0.000000,0.427179,0,0,0,0,0,0,0
2,29999,30,20000,0,10000,1,9999,0.100000,0,0,0.000000,3,1.000000,0.000000,9.821219,0,0,0,0,0,0,0
2,29999,31,20000,0,10000,1,9999,0.100000,0,0,0.000000,3,1.000000,0.000000,10.035799,0,0,0,0,0,0,0
2,29999,32,20000,6,10000,1,9999,0.100000,0,0,0.000000,3,1.000000,0.000000,12.102642,0,0,0,0,0,0,0
2,29999,33,20000,6,10000,0,9999,0.100000,0,0,0.000000,3,0.000000,0.000000,1.544853,0,0,0,0,0,0,0
2,29999,34,20000,0,10000,0,9999,0.100000,0,0,0.000000,3,0.000000,0.000000,0.663417,0,0,0,0,0,0,0
2,29999,35,20000,0,10000,0,9999,0.100000,0,0,0.000000,3,0.000000,0.000000,0.489606,0,0,0,0,0,0,0
2,29999,36,20000,6,10000,0,9999,0.100000,0,0,0.000000,3,0.000000,0.000000,1.318559,0,0,0,0,0,0,0
2,29999,37,20000,6,10000,0,9999,0.100000,0,0,0.000000,3,0.000000,0.000000,2.534134,0,0,0,0,0,0,0
2,29999,38,20000,6,10000,3,9999,0.100000,0,0,67.886441,3,11.000000,0.000000,25.514502,0,0,1,0,0,0,0
2,29999,39,20000,6,10000,1,9999,0.100000,0,0,0.000000,3,6.000000,0.000000,11.536340,0,0,0,0,0,0,0
2,29999,40,20000,6,10000,0,9999,0.100000,0,0,0.000000,3,0.000000,0.000000,0.572242,0,0,0,0,0,0,0
2,29999,41,20000,6,10000,0,9999,0.100000,0,0,0.000000,3,0.000000,0.000000,14.764360,0,0,0,0,0,0,0
2,29999,42,20000,6,10000,0,9999,0.100000,0,0,0.000000,3,0.000000,0.000000,0.259505,0,0,0,0,0,0,0
2,29999,43,20000,0,10000,1,9999,0.100000,0,0,0.000000,3,3.000000,0.000000,11.897157,0,0,0,0,0,0,0
2,29999,44,20000,6,10000,1,9999,0.100000,0,0,0.000000,3,1.000000,0.000000,10.486587,0,0,0,0,0,0,0
2,29999,45,20000,0,10000,0,9999,0.100000,0,0,0.000000,3,0.000000,0.000000,3.305381,0,0,0,0,0,0,0
2,29999,46,20000,6,10000,1,9999,0.100000,0,0,0.000000,3,1.000000,0.000000,8.519722,0,0,0,0,0,0,0
2,29999,47,20000,6,10000,1,9999,0.100000,0,0,0.000000,3,1.000000,0.000000,5.525798,0,0,0,0,0,0,0
2,29999,48,20000,6,10000,0,9999,0.100000,0,0,0.000000,3,0.000000,0.000000,1.946302,0,0,0,0,0,0,0
2,29999,49,20000,6,10000,1,9999,0.100000,0,0,0.000000,3,5.000000,0.000000,14.261780,0,0,0,0,0,0,0
2,29999,50,20000,0,10000,0,9999,0.100000,0,0,0.000000,3,0.000000,0.000000,0.412218,0,0,0,0,0,0,0
2,29999,51,20000,0,10000,0,9999,0.100000,0,0,0.000000,3,0.000000,0.000000,1.425261,0,0,0,0,0,0,0
2,29999,52,20000,6,10000,0,9999,0.100000,0,0,0.000000,3,0.000000,0.000000,6.431880,0,0,0,0,0,0,0
2,29999,53,20000,0,10000,1,9999,0.100000,0,0,0.000000,3,11.000000,0.000000,12.313469,0,0,0,0,0,0,0
2,29999,54,20000,0,10000,0,9999,0.100000,0,0,0.000000,3,0.000000,0.000000,7.158685,0,0,0,0,0,0,0
2,29999,55,20000,0,10000,1,9999,0.100000,0,0,0.000000,3,5.000000,0.000000,16.946042,0,0,0,0,0,0,0
2,29999,56,20000,6,10000,0,9999,0.100000,0,0,0.000000,3,0.000000,0.000000,15.270639,0,0,0,0,0,0,0
2,29999,57,20000,6,10000,0,9999,0.100000,0,0,0.000000,3,0.000000,0.000000,2.382798,0,0,0,0,0,0,0
2,29999,58,20000,6,10000,0,9999,0.100000,0,0,0.000000,3,0.000000,0.000000,15.669946,0,0,0,0,0,0,0
2,29999,59,20000,6,10000,1,9999,0.100000,0,0,0.000000,3,1.000000,0.000000,4.368965,0,0,0,0,0,0,0
2,29999,60,20000,6,10000,0,9999,0.100000,0,0,0.000000,3,0.000000,0.000000,0.173982,0,0,0,0,0,0,0
2,29999,61,20000,0,10000,1,9999,0.100000,0,0,0.000000,3,4.000000,0.000000,11.085777,0,0,0,0,0,0,0
2,29999,62,20000,0,10000,1,9999,0.100000,0,0,0.000000,3,3.000000,0.000000,12.783596,0,0,0,0,0,0,0
2,29999,63,20000,6,10000,3,9999,0.100000,0,0,34.344129,3,5.000000,0.000000,18.976403,0,0,1,0,0,0,0
2,29999,64,20000,0,10000,1,9999,0.100000,0,0,0.000000,3,1.000000,0.000000,13.131691,0,0,0,0,0,0,0
2,29999,65,20000,0,10000,3,9999,0.100000,0,0,15.079800,3,2.000000,0.000000,17.465503,0,0,5,0,0,0,0
2,29999,66,20000,0,10000,1,9999,0.100000,0,0,0.000000,3,6.000000,0.000000,6.982570,0,0,0,0,0,0,0
2,29999,67,20000,0,10000,0,9999,0.100000,0,0,0.000000,3,0.000000,0.000000,0.568418,0,0,0,0,0,0,0
2,29999,68,20000,6,10000,1,9999,0.100000,0,0,0.000000,3,6.000000,0.000000,7.354011,0,0,0,0,0,0,0
2,29999,69,20000,0,10000,1,9999,0.100000,0,0,0.000000,3,1.000000,0.000000,6.936609,0,0,0,0,0,0,0
2,29999,70,20000,0,10000,0,9999,0.100000,0,0,0.000000,3,0.000000,0.000000,0.707401,0,0,0,0,0,0,0
2,29999,71,20000,6,10000,1,9999,0.100000,0,0,0.000000,3,5.000000,0.000000,14.797212,0,0,0,0,0,0,0
2,29999,72,20000,0,10000,1,9999,0.100000,0,0,0.000000,3,2.000000,0.000000,8.481962,0,0,0,0,0,0,0
2,29999,73,20000,0,10000,0,9999,0.100000,0,0,0.000000,3,0.000000,0.000000,0.524128,0,0,0,0,0,0,0
2,29999,74,20000,6,10000,1,9999,0.100000,0,0,0.000000,3,1.000000,0.000000,14.501073,0,0,0,0,0,0,0
2,29999,75,20000,6,10000,3,9999,0.100000,0,0,19.893272,3,3.000000,0.000000,19.460153,0,0,1,0,0,0,0
2,29999,76,20000,0,10000,1,9999,0.100000,0,0,0.000000,3,4.000000,0.000000,16.201939,0,0,0,0,0,0,0
2,29999,77,20000,6,10000,3,9999,0.100000,0,0,96.137626,3,18.000000,0.000000,21.479581,0,0,1,0,0,0,0
2,29999,78,20000,6,10000,1,9999,0.100000,0,0,0.000000,3,6.000000,0.000000,14.170299,0,0,0,0,0,0,0
2,29999,79,20000,0,10000,0,9999,0.100000,0,0,0.000000,3,0.000000,0.000000,9.731311,0,0,0,0,0,0,0
2,29999,80,20000,0,10000,0,9999,0.100000,0,0,0.000000,3,0.000000,0.000000,1.245099,0,0,0,0,0,0,0
2,29999,81,20000,0,10000,0,9999,0.100000,0,0,0.000000,3,0.000000,0.000000,0.596863,0,0,0,0,0,0,0
2,29999,82,20000,6,10000,1,9999,0.100000,0,0,0.000000,3,3.000000,0.000000,12.645714,0,0,0,0,0,0,0
2,29999,83,20000,0,10000,1,9999,0.100000,0,0,0.000000,3,1.000000,0.000000,7.641640,0,0,0,0,0,0,0
2,29999,84,20000,6,10000,0,9999,0.100000,0,0,0.000000,3,0.000000,0.000000,9.113927,0,0,0,0,0,0,0
2,29999,85,20000,84,10000,1,9999,0.100000,0,0,0.000000,3,2.000000,0.000000,6.265009,0,0,0,0,0,0,0
2,29999,86,20000,6,10000,1,9999,0.100000,0,0,0.000000,3,4.000000,0.000000,4.945078,0,0,0,0,0,0,0
2,29999,87,20000,6,10000,0,9999,0.100000,0,0,0.000000,3,0.000000,0.000000,2.574021,0,0,0,0,0,0,0
2,29999,88,20000,6,10000,0,9999,0.100000,0,0,0.000000,3,0.000000,0.000000,0.686730,0,0,0,0,0,0,0
2,29999,89,20000,0,10000,1,9999,0.100000,0,0,0.000000,3,4.000000,0.000000,4.645704,0,0,0,0,0,0,0
2,29999,90,20000,0,10000,1,9999,0.100000,0,0,0.000000,3,2.000000,0.000000,8.321509,0,0,0,0,0,0,0
2,29999,91,20000,84,10000,1,9999,0.100000,0,0,0.000000,3,4.000000,0.000000,20.802512,0,0,0,0,0,0,0
2,29999,92,20000,84,10000,0,9999,0.100000,0,0,0.000000,3,0.000000,0.000000,1.048299,0,0,0,0,0,0,0
2,29999,93,20000,6,10000,0,9999,0.100000,0,0,0.000000,3,0.000000,0.000000,0.140014,0,0,0,0,0,0,0
2,29999,94,20000,6,10000,0,9999,0.100000,0,0,0.000000,3,0.000000,0.000000,21.696269,0,0,0,0,0,0,0
2,29999,95,20000,0,10000,0,9999,0.100000,0,0,0.000000,3,0.000000,0.000000,0.598320,0,0,0,0,0,0,0
2,29999,96,20000,0,10000,0,9999,0.100000,0,0,0.000000,3,0.000000,0.000000,0.863495,0,0,0,0,0,0,0
2,29999,97,20000,0,10000,0,9999,0.100000,0,0,0.000000,3,0.000000,0.000000,0.854198,0,0,0,0,0,0,0
2,29999,98,20000,0,10000,0,9999,0.100000,0,0,0.000000,3,0.000000,0.000000,0.220259,0,0,0,0,0,0,0
2,29999,99,20000,0,10000,0,9999,0.100000,0,0,0.000000,3,0.000000,0.000000,21.537726,0,0,0,0,0,0,0
