generation,iteration,robot,birthday,ancestor_id,ancestor_birthday,cell_id,age,sigma,maps,genomes,fitness,cells_in_map,dist_max,dist_pot_max,dist_total,com_rx,com_tx,obj_group1,obj_group2,obj_group3,obj_group4,obj_group5
0,9999,0,0,0,0,40,9999,0.100000,99,0,0.000000,0,1.000000,12.280351,17.358623,99,99,0,0,0,0,0
0,9999,1,0,1,0,40,9999,0.100000,99,0,0.000000,0,1.000000,27.494285,11.164613,99,99,0,0,0,0,0
0,9999,2,0,2,0,0,9999,0.100000,99,0,0.403047,0,0.000000,27.610508,4.153218,99,99,0,0,0,1,0
0,9999,3,0,3,0,41,9999,0.100000,99,0,0.000000,0,2.000000,18.300602,8.311682,99,99,0,0,0,0,0
0,9999,4,0,4,0,0,9999,0.100000,99,0,0.205041,0,1.000000,27.321951,4.457401,99,99,0,0,0,0,1
0,9999,5,0,5,0,0,9999,0.100000,99,0,0.002046,0,2.000000,27.195930,3.809030,99,99,0,0,0,0,1
0,9999,6,0,6,0,40,9999,0.100000,99,0,0.000000,0,2.000000,30.600971,17.503017,99,99,0,0,0,0,0
0,9999,7,0,7,0,40,9999,0.100000,99,0,0.000000,0,1.000000,24.150972,8.587764,99,99,0,0,0,0,0
0,9999,8,0,8,0,0,9999,0.100000,99,0,2.455648,0,1.000000,28.280044,2.521918,99,99,0,0,1,0,0
0,9999,9,0,9,0,40,9999,0.100000,99,0,0.000000,0,1.000000,22.539936,2.689016,99,99,0,0,0,0,0
0,9999,10,0,10,0,0,9999,0.100000,99,0,18.431695,0,3.000000,31.027839,7.506361,99,99,0,1,0,0,0
0,9999,11,0,11,0,40,9999,0.100000,99,0,0.000000,0,1.000000,24.996666,18.559789,99,99,0,0,0,0,0
0,9999,12,0,12,0,40,9999,0.100000,99,0,0.000000,0,1.000000,28.300273,11.618056,99,99,0,0,0,0,0
0,9999,13,0,13,0,41,9999,0.100000,99,0,0.000000,0,2.000000,18.276473,6.627931,99,99,0,0,0,0,0
0,9999,14,0,14,0,40,9999,0.100000,99,0,0.000000,0,1.000000,23.124405,8.355701,99,99,0,0,0,0,0
0,9999,15,0,15,0,40,9999,0.100000,99,0,0.000000,0,1.000000,26.949631,7.008679,99,99,0,0,0,0,0
0,9999,16,0,16,0,40,9999,0.100000,99,0,0.000000,0,1.000000,27.065169,14.905337,99,99,0,0,0,0,0
0,9999,17,0,17,0,41,9999,0.100000,99,0,0.000000,0,3.000000,25.289539,5.147794,99,99,0,0,0,0,0
0,9999,18,0,18,0,0,9999,0.100000,99,0,0.018542,0,0.000000,29.932386,2.446530,99,99,0,0,1,0,0
0,9999,19,0,19,0,40,9999,0.100000,99,0,0.000000,0,0.000000,26.304907,1.730699,99,99,0,0,0,0,0
0,9999,20,0,20,0,40,9999,0.100000,99,0,0.000000,0,1.000000,25.134398,8.185972,99,99,0,0,0,0,0
0,9999,21,0,21,0,0,9999,0.100000,99,0,0.336491,0,0.000000,28.873262,2.321340,99,99,0,0,1,0,0
0,9999,22,0,22,0,0,9999,0.100000,99,0,0.517681,0,1.000000,27.844327,4.243261,99,99,0,0,0,1,0
0,9999,23,0,23,0,90,9999,0.100000,99,0,3.899623,0,0.000000,26.959363,1.892576,99,99,1,0,0,0,0
0,9999,24,0,24,0,40,9999,0.100000,99,0,0.000000,0,0.000000,27.947145,6.961754,99,99,0,0,0,0,0
0,9999,25,0,25,0,40,9999,0.100000,99,0,0.000000,0,0.000000,24.741099,2.570302,99,99,0,0,0,0,0
0,9999,26,0,26,0,40,9999,0.100000,99,0,0.000000,0,1.000000,27.042594,4.704417,99,99,0,0,0,0,0
0,9999,27,0,27,0,0,9999,0.100000,99,0,4.634215,0,1.000000,28.049931,1.522824,99,99,0,0,0,1,0
0,9999,28,0,28,0,40,9999,0.100000,99,0,0.000000,0,1.000000,27.947145,2.439755,99,99,0,0,0,0,0
0,9999,29,0,29,0,0,9999,0.100000,99,0,1.397681,0,0.000000,31.957231,1.024284,99,99,0,0,1,0,0
0,9999,30,0,30,0,0,9999,0.100000,99,0,0.069046,0,1.000000,25.432433,1.261894,99,99,0,1,0,0,0
0,9999,31,0,31,0,1,9999,0.100000,99,0,24.870133,0,4.000000,27.681912,6.121861,99,99,0,1,0,0,0
0,9999,32,0,32,0,40,9999,0.100000,99,0,0.000000,0,0.000000,28.106905,9.127285,99,99,0,0,0,0,0
0,9999,33,0,33,0,40,9999,0.100000,99,0,0.000000,0,0.000000,28.212358,0.787403,99,99,0,0,0,0,0
0,9999,34,0,34,0,90,9999,0.100000,99,0,8.634007,0,1.000000,35.763540,13.750479,99,99,1,0,0,0,0
0,9999,35,0,35,0,40,9999,0.100000,99,0,0.000000,0,0.000000,25.562133,0.388533,99,99,0,0,0,0,0
0,9999,36,0,36,0,40,9999,0.100000,99,0,0.000000,0,1.000000,23.507405,7.622201,99,99,0,0,0,0,0
0,9999,37,0,37,0,40,9999,0.100000,99,0,0.000000,0,1.000000,27.565022,7.137545,99,99,0,0,0,0,0
0,9999,38,0,38,0,41,9999,0.100000,99,0,0.000000,0,3.000000,24.312582,9.754444,99,99,0,0,0,0,0
0,9999,39,0,39,0,0,9999,0.100000,99,0,0.021378,0,0.000000,17.808969,1.786656,99,99,0,0,0,0,1
0,9999,40,0,40,0,40,9999,0.100000,99,0,0.000000,0,3.000000,28.847016,9.951045,99,99,0,0,0,0,0
0,9999,41,0,41,0,40,9999,0.100000,99,0,0.000000,0,1.000000,27.032909,10.654817,99,99,0,0,0,0,0
0,9999,42,0,42,0,40,9999,0.100000,99,0,0.000000,0,0.000000,29.448907,10.980430,99,99,0,0,0,0,0
0,9999,43,0,43,0,40,9999,0.100000,99,0,0.000000,0,1.000000,26.796726,4.931259,99,99,0,0,0,0,0
0,9999,44,0,44,0,0,9999,0.100000,99,0,0.045354,0,1.000000,19.928243,2.887321,99,99,0,0,0,0,1
0,9999,45,0,45,0,40,9999,0.100000,99,0,0.000000,0,2.000000,24.005713,9.346831,99,99,0,0,0,0,0
0,9999,46,0,46,0,41,9999,0.100000,99,0,0.000000,0,6.000000,28.717105,14.115893,99,99,0,0,0,0,0
0,9999,47,0,47,0,41,9999,0.100000,99,0,0.000000,0,3.000000,22.272327,12.354340,99,99,0,0,0,0,0
0,9999,48,0,48,0,40,9999,0.100000,99,0,0.000000,0,1.000000,22.167169,10.759775,99,99,0,0,0,0,0
0,9999,49,0,49,0,40,9999,0.100000,99,0,0.000000,0,2.000000,28.595160,6.878069,99,99,0,0,0,0,0
0,9999,50,0,50,0,40,9999,0.100000,99,0,0.000000,0,1.000000,14.604346,2.692817,99,99,0,0,0,0,0
0,9999,51,0,51,0,42,9999,0.100000,99,0,0.000000,0,6.000000,22.467959,16.089500,99,99,0,0,0,0,0
0,9999,52,0,52,0,41,9999,0.100000,99,0,0.000000,0,3.000000,19.360021,7.048939,99,99,0,0,0,0,0
0,9999,53,0,53,0,40,9999,0.100000,99,0,0.000000,0,3.000000,34.048285,11.159493,99,99,0,0,0,0,0
0,9999,54,0,54,0,40,9999,0.100000,99,0,0.000000,0,1.000000,32.194819,2.141679,99,99,0,0,0,0,0
0,9999,55,0,55,0,0,9999,0.100000,99,0,0.000199,0,0.000000,20.044899,2.021806,99,99,0,0,0,0,1
0,9999,56,0,56,0,41,9999,0.100000,99,0,0.000000,0,4.000000,21.808895,25.133940,99,99,0,0,0,0,0
0,9999,57,0,57,0,94,9999,0.100000,99,0,47.901163,0,8.000000,18.004998,19.462185,99,99,1,0,0,0,0
0,9999,58,0,58,0,42,9999,0.100000,99,0,0.000000,0,7.000000,26.137224,16.782947,99,99,0,0,0,0,0
0,9999,59,0,59,0,0,9999,0.100000,99,0,0.000856,0,0.000000,17.130919,1.231854,99,99,0,0,0,0,1
0,9999,60,0,60,0,40,9999,0.100000,99,0,0.000000,0,0.000000,32.625870,1.002299,99,99,0,0,0,0,0
0,9999,61,0,61,0,40,9999,0.100000,99,0,0.000000,0,1.000000,27.114321,2.928050,99,99,0,0,0,0,0
0,9999,62,0,62,0,0,9999,0.100000,99,0,0.845114,0,0.000000,25.021651,5.041341,99,99,0,0,0,0,1
0,9999,63,0,63,0,1,9999,0.100000,99,0,0.011330,0,3.000000,22.603571,4.280887,99,99,0,1,0,0,0
0,9999,64,0,64,0,40,9999,0.100000,99,0,0.000000,0,2.000000,27.837320,5.927156,99,99,0,0,0,0,0
0,9999,65,0,65,0,0,9999,0.100000,99,0,0.000902,0,1.000000,23.192801,3.628641,99,99,0,0,0,1,0
0,9999,66,0,66,0,40,9999,0.100000,99,0,0.000000,0,0.000000,29.068561,1.938915,99,99,0,0,0,0,0
0,9999,67,0,67,0,40,9999,0.100000,99,0,0.000000,0,0.000000,25.307514,6.585010,99,99,0,0,0,0,0
0,9999,68,0,68,0,40,9999,0.100000,99,0,0.000000,0,1.000000,26.601807,4.548438,99,99,0,0,0,0,0
0,9999,69,0,69,0,40,9999,0.100000,99,0,0.000000,0,2.000000,22.257651,5.387729,99,99,0,0,0,0,0
0,9999,70,0,70,0,0,9999,0.100000,99,0,3.842943,0,0.000000,20.960383,1.322233,99,99,0,0,0,1,0
0,9999,71,0,71,0,40,9999,0.100000,99,0,0.000000,0,1.000000,30.131567,9.004611,99,99,0,0,0,0,0
0,9999,72,0,72,0,41,9999,0.100000,99,0,0.000000,0,3.000000,26.455924,4.845669,99,99,0,0,0,0,0
0,9999,73,0,73,0,0,9999,0.100000,99,0,0.539577,0,0.000000,29.453535,1.799982,99,99,0,1,0,0,0
0,9999,74,0,74,0,40,9999,0.100000,99,0,0.000000,0,1.000000,26.549622,14.255414,99,99,0,0,0,0,0
0,9999,75,0,75,0,40,9999,0.100000,99,0,0.000000,0,0.000000,30.309603,4.781431,99,99,0,0,0,0,0
0,9999,76,0,76,0,41,9999,0.100000,99,0,0.000000,0,3.000000,22.624579,15.821649,99,99,0,0,0,0,0
0,9999,77,0,77,0,40,9999,0.100000,99,0,0.000000,0,1.000000,27.681912,6.750338,99,99,0,0,0,0,0
0,9999,78,0,78,0,40,9999,0.100000,99,0,0.000000,0,1.000000,27.532826,5.665330,99,99,0,0,0,0,0
0,9999,79,0,79,0,40,9999,0.100000,99,0,0.000000,0,0.000000,17.025667,1.346467,99,99,0,0,0,0,0
0,9999,80,0,80,0,40,9999,0.100000,99,0,0.000000,0,3.000000,31.343383,6.345348,99,99,0,0,0,0,0
0,9999,81,0,81,0,40,9999,0.100000,99,0,0.000000,0,3.000000,33.380548,20.567274,99,99,0,0,0,0,0
0,9999,82,0,82,0,0,9999,0.100000,99,0,0.037567,0,0.000000,23.729530,0.592817,99,99,0,0,1,0,0
0,9999,83,0,83,0,40,9999,0.100000,99,0,0.000000,0,1.000000,24.006427,9.338154,99,99,0,0,0,0,0
0,9999,84,0,84,0,0,9999,0.100000,99,0,0.063262,0,1.000000,23.536617,1.519303,99,99,0,1,0,0,0
0,9999,85,0,85,0,41,9999,0.100000,99,0,0.000000,0,3.000000,19.326307,18.209723,99,99,0,0,0,0,0
0,9999,86,0,86,0,40,9999,0.100000,99,0,0.000000,0,1.000000,30.306649,9.254050,99,99,0,0,0,0,0
0,9999,87,0,87,0,40,9999,0.100000,99,0,0.000000,0,2.000000,28.887562,11.720608,99,99,0,0,0,0,0
0,9999,88,0,88,0,40,9999,0.100000,99,0,0.000000,0,1.000000,22.747549,7.474244,99,99,0,0,0,0,0
0,9999,89,0,89,0,92,9999,0.100000,99,0,35.699682,0,6.000000,23.013839,9.012378,99,99,1,0,0,0,0
0,9999,90,0,90,0,40,9999,0.100000,99,0,0.000000,0,0.000000,26.144658,7.262075,99,99,0,0,0,0,0
0,9999,91,0,91,0,40,9999,0.100000,99,0,0.000000,0,1.000000,22.553884,7.809096,99,99,0,0,0,0,0
0,9999,92,0,92,0,40,9999,0.100000,99,0,0.000000,0,0.000000,27.833115,2.388279,99,99,0,0,0,0,0
0,9999,93,0,93,0,40,9999,0.100000,99,0,0.000000,0,2.000000,23.014607,11.001208,99,99,0,0,0,0,0
0,9999,94,0,94,0,2,9999,0.100000,99,0,0.066857,0,6.000000,21.569356,15.453141,99,99,0,1,0,0,0
0,9999,95,0,95,0,40,9999,0.100000,99,0,0.000000,0,1.000000,21.088733,5.442645,99,99,0,0,0,0,0
0,9999,96,0,96,0,40,9999,0.100000,99,0,0.000000,0,1.000000,27.734148,2.575144,99,99,0,0,0,0,0
0,9999,97,0,97,0,40,9999,0.100000,99,0,0.000000,0,2.000000,32.415397,4.418242,99,99,0,0,0,0,0
0,9999,98,0,98,0,1,9999,0.100000,99,0,0.376053,0,3.000000,26.051480,7.395376,99,99,0,1,0,0,0
0,9999,99,0,99,0,0,9999,0.100000,99,0,0.891006,0,2.000000,22.658989,3.678779,99,99,0,0,0,1,0
1,19999,0,10000,0,0,40,9999,0.100000,99,0,0.000000,1,1.000000,11.487212,16.432072,99,99,0,0,0,0,0
1,19999,1,10000,56,0,0,9999,0.100000,99,0,2.233280,7,2.000000,27.980874,2.786043,99,99,0,1,0,0,0
1,19999,2,10000,19,0,0,9999,0.100000,99,0,0.336618,7,0.000000,28.192017,0.440812,99,99,0,0,0,1,0
1,19999,3,10000,3,0,40,9999,0.100000,99,0,0.000000,2,1.000000,17.938936,5.567741,99,99,0,0,0,0,0
1,19999,4,10000,58,0,0,9999,0.100000,99,0,0.402986,7,0.000000,26.495104,0.140231,99,99,0,0,0,0,1
1,19999,5,10000,99,0,0,9999,0.100000,99,0,0.003697,6,0.000000,25.462652,0.099748,99,99,0,0,0,0,1
1,19999,6,10000,31,0,40,9999,0.100000,99,0,0.000000,6,0.000000,28.543984,15.231716,99,99,0,0,0,0,0
1,19999,7,10000,89,0,40,9999,0.100000,99,0,0.000000,6,2.000000,24.198499,11.094181,99,99,0,0,0,0,0
1,19999,8,10000,10,0,1,9999,0.100000,99,0,0.010510,7,5.000000,29.199824,11.723511,99,99,0,0,1,0,0
1,19999,9,10000,3,0,40,9999,0.100000,99,0,0.000000,2,0.000000,22.536352,1.006764,99,99,0,0,0,0,0
1,19999,10,10000,10,0,41,9999,0.100000,99,0,0.000000,6,5.000000,34.192393,13.866087,99,99,0,0,0,0,0
1,19999,11,10000,3,0,40,9999,0.100000,99,0,0.000000,2,2.000000,24.850124,5.664767,99,99,0,0,0,0,0
1,19999,12,10000,89,0,40,9999,0.100000,99,0,0.000000,6,1.000000,28.751960,6.150787,99,99,0,0,0,0,0
1,19999,13,10000,9,0,40,9999,0.100000,99,0,0.000000,2,0.000000,20.523390,3.466997,99,99,0,0,0,0,0
1,19999,14,10000,31,0,41,9999,0.100000,99,0,0.000000,6,3.000000,22.250611,6.562259,99,99,0,0,0,0,0
1,19999,15,10000,10,0,0,9999,0.100000,99,0,2.178944,7,1.000000,28.627570,3.482971,99,99,0,0,0,1,0
1,19999,16,0,16,0,40,19999,0.100000,99,0,0.000000,2,0.000000,26.843827,0.889582,99,99,0,0,0,0,0
1,19999,17,10000,19,0,40,9999,0.100000,99,0,0.000000,6,0.000000,26.885438,6.876174,99,99,0,0,0,0,0
1,19999,18,10000,19,0,0,9999,0.100000,99,0,0.407611,6,2.000000,30.328528,2.770898,99,99,0,0,1,0,0
1,19999,19,10000,3,0,40,9999,0.100000,99,0,0.000000,2,0.000000,26.294460,0.153180,99,99,0,0,0,0,0
1,19999,20,10000,23,0,40,9999,0.100000,99,0,0.000000,6,0.000000,25.228255,2.660513,99,99,0,0,0,0,0
1,19999,21,10000,31,0,0,9999,0.100000,99,0,0.948458,6,0.000000,29.413973,0.204423,99,99,0,0,1,0,0
1,19999,22,10000,3,0,0,9999,0.100000,99,0,2.673333,3,0.000000,29.502220,1.124723,99,99,0,0,0,1,0
1,19999,23,10000,3,0,92,9999,0.100000,99,0,36.497828,4,7.000000,27.362946,7.359699,99,99,1,0,0,0,0
1,19999,24,10000,31,0,40,9999,0.100000,99,0,0.000000,6,1.000000,27.897330,4.099108,99,99,0,0,0,0,0
1,19999,25,10000,34,0,40,9999,0.100000,99,0,0.000000,7,0.000000,25.567101,1.320360,99,99,0,0,0,0,0
1,19999,26,10000,10,0,40,9999,0.100000,99,0,0.000000,7,2.000000,28.903199,2.476567,99,99,0,0,0,0,0
1,19999,27,10000,31,0,40,9999,0.100000,99,0,0.000000,6,2.000000,28.666674,3.945863,99,99,0,0,0,0,0
1,19999,28,10000,23,0,41,9999,0.100000,99,0,0.000000,6,3.000000,27.546794,9.457661,99,99,0,0,0,0,0
1,19999,29,10000,31,0,0,9999,0.100000,99,0,5.322476,6,1.000000,32.756818,1.263274,99,99,0,0,1,0,0
1,19999,30,10000,34,0,0,9999,0.100000,99,0,0.067051,7,0.000000,26.201482,0.173003,99,99,0,1,0,0,0
1,19999,31,10000,23,0,1,9999,0.100000,99,0,34.605473,5,6.000000,31.076568,7.880884,99,99,0,1,0,0,0
1,19999,32,10000,19,0,40,9999,0.100000,99,0,0.000000,7,0.000000,27.293358,9.664826,99,99,0,0,0,0,0
1,19999,33,10000,31,0,40,9999,0.100000,99,0,0.000000,5,0.000000,28.335394,0.387538,99,99,0,0,0,0,0
1,19999,34,10000,34,0,40,9999,0.100000,99,0,0.000000,6,0.000000,35.609886,5.885884,99,99,0,0,0,0,0
1,19999,35,10000,56,0,40,9999,0.100000,99,0,0.000000,6,0.000000,25.791230,0.138589,99,99,0,0,0,0,0
1,19999,36,10000,19,0,40,9999,0.100000,99,0,0.000000,6,2.000000,24.826840,10.026681,99,99,0,0,0,0,0
1,19999,37,10000,23,0,0,9999,0.100000,99,0,28.244770,5,3.000000,29.066248,14.576758,99,99,0,1,0,0,0
1,19999,38,10000,56,0,0,9999,0.100000,99,0,0.002851,6,0.000000,27.539100,1.930420,99,99,0,0,1,0,0
1,19999,39,10000,34,0,0,9999,0.100000,99,0,0.001920,7,0.000000,17.091156,0.129905,99,99,0,0,0,0,1
1,19999,40,10000,3,0,40,9999,0.100000,99,0,0.000000,5,0.000000,30.726133,1.020671,99,99,0,0,0,0,0
1,19999,41,10000,34,0,41,9999,0.100000,99,0,0.000000,6,4.000000,26.739569,14.704016,99,99,0,0,0,0,0
1,19999,42,10000,31,0,40,9999,0.100000,99,0,0.000000,5,0.000000,29.047301,0.529646,99,99,0,0,0,0,0
1,19999,43,10000,56,0,41,9999,0.100000,99,0,0.000000,6,3.000000,28.416063,34.290842,99,99,0,0,0,0,0
1,19999,44,10000,22,0,0,9999,0.100000,99,0,0.238957,5,0.000000,20.538473,1.100181,99,99,0,0,0,0,1
1,19999,45,10000,34,0,41,9999,0.100000,99,0,0.000000,6,4.000000,23.651365,16.548887,99,99,0,0,0,0,0
1,19999,46,10000,31,0,40,9999,0.100000,99,0,0.000000,6,0.000000,29.321619,1.045544,99,99,0,0,0,0,0
1,19999,47,10000,19,0,40,9999,0.100000,99,0,0.000000,7,1.000000,24.247272,9.647714,99,99,0,0,0,0,0
1,19999,48,10000,31,0,43,9999,0.100000,99,0,0.000000,6,8.000000,21.190592,10.946190,99,99,0,0,0,0,0
1,19999,49,10000,56,0,41,9999,0.100000,99,0,0.000000,7,4.000000,30.313346,6.055297,99,99,0,0,0,0,0
1,19999,50,10000,58,0,40,9999,0.100000,99,0,0.000000,7,0.000000,15.939152,1.228227,99,99,0,0,0,0,0
1,19999,51,10000,56,0,40,9999,0.100000,99,0,0.000000,7,0.000000,22.123758,0.775404,99,99,0,0,0,0,0
1,19999,52,10000,19,0,40,9999,0.100000,99,0,0.000000,7,0.000000,20.386621,0.804669,99,99,0,0,0,0,0
1,19999,53,10000,58,0,40,9999,0.100000,99,0,0.000000,7,1.000000,34.059095,5.529151,99,99,0,0,0,0,0
1,19999,54,10000,27,0,40,9999,0.100000,99,0,0.000000,6,0.000000,31.554977,0.575049,99,99,0,0,0,0,0
1,19999,55,10000,23,0,0,9999,0.100000,99,0,0.000565,6,2.000000,19.594597,6.032079,99,99,0,0,0,0,1
1,19999,56,10000,56,0,41,9999,0.100000,99,0,14.374393,5,3.000000,25.842337,16.870139,99,99,1,0,0,0,1
1,19999,57,10000,31,0,0,9999,0.100000,99,0,13.442093,7,2.000000,26.409139,8.598649,99,99,0,1,0,0,0
1,19999,58,10000,89,0,41,9999,0.100000,99,0,0.000000,7,6.000000,31.296237,8.286512,99,99,0,0,0,0,0
1,19999,59,10000,27,0,40,9999,0.100000,99,0,0.000000,6,0.000000,16.337055,0.122320,99,99,0,0,0,0,0
1,19999,60,10000,27,0,40,9999,0.100000,99,0,0.000000,6,1.000000,32.990738,2.199779,99,99,0,0,0,0,0
1,19999,61,10000,56,0,40,9999,0.100000,99,0,0.000000,5,0.000000,28.899478,0.132910,99,99,0,0,0,0,0
1,19999,62,10000,10,0,40,9999,0.100000,99,0,0.000000,7,0.000000,25.365317,0.885498,99,99,0,0,0,0,0
1,19999,63,10000,23,0,1,9999,0.100000,99,0,28.216347,5,5.000000,25.550011,6.235501,99,99,0,1,0,0,0
1,19999,64,10000,19,0,40,9999,0.100000,99,0,0.000000,6,0.000000,30.246937,1.007838,99,99,0,0,0,0,0
1,19999,65,10000,27,0,0,9999,0.100000,99,0,0.000435,6,0.000000,24.551292,0.093121,99,99,0,0,0,1,0
1,19999,66,10000,19,0,40,9999,0.100000,99,0,0.000000,7,0.000000,28.624174,0.946756,99,99,0,0,0,0,0
1,19999,67,10000,56,0,40,9999,0.100000,99,0,0.000000,5,0.000000,25.749654,0.683266,99,99,0,0,0,0,0
1,19999,68,10000,34,0,40,9999,0.100000,99,0,0.000000,7,0.000000,27.078390,0.408573,99,99,0,0,0,0,0
1,19999,69,10000,56,0,41,9999,0.100000,99,0,0.000000,5,3.000000,22.281112,3.665141,99,99,0,0,0,0,0
1,19999,70,10000,89,0,43,9999,0.100000,99,0,0.000000,7,7.000000,21.571515,11.442214,99,99,0,0,0,0,0
1,19999,71,10000,19,0,40,9999,0.100000,99,0,0.000000,7,0.000000,29.191120,0.330780,99,99,0,0,0,0,0
1,19999,72,10000,56,0,40,9999,0.100000,99,0,0.000000,5,0.000000,28.709074,1.742723,99,99,0,0,0,0,0
1,19999,73,10000,27,0,40,9999,0.100000,99,0,0.000000,6,1.000000,28.508444,2.688924,99,99,0,0,0,0,0
1,19999,74,10000,22,0,40,9999,0.100000,99,0,0.000000,5,2.000000,27.252395,15.132328,99,99,0,0,0,0,0
1,19999,75,10000,31,0,0,9999,0.100000,99,0,0.100222,7,1.000000,30.566037,3.183693,99,99,0,0,0,0,1
1,19999,76,10000,19,0,40,9999,0.100000,99,0,0.000000,5,2.000000,22.337771,6.165441,99,99,0,0,0,0,0
1,19999,77,10000,57,0,40,9999,0.100000,99,0,0.000000,7,1.000000,28.281809,12.036645,99,99,0,0,0,0,0
1,19999,78,10000,23,0,40,9999,0.100000,99,0,0.000000,5,2.000000,28.544013,4.151809,99,99,0,0,0,0,0
1,19999,79,10000,19,0,5,9999,0.100000,99,0,0.450012,7,9.000000,16.228390,18.531886,99,99,0,0,0,0,1
1,19999,80,10000,89,0,42,9999,0.100000,99,0,0.000000,7,7.000000,29.893719,15.679915,99,99,0,0,0,0,0
1,19999,81,10000,19,0,40,9999,0.100000,99,0,0.000000,5,1.000000,31.641434,8.559537,99,99,0,0,0,0,0
1,19999,82,10000,31,0,0,9999,0.100000,99,0,1.234656,7,0.000000,23.574103,0.800897,99,99,0,0,1,0,0
1,19999,83,10000,89,0,41,9999,0.100000,99,0,0.000000,7,4.000000,23.034504,17.628630,99,99,0,0,0,0,0
1,19999,84,10000,89,0,0,9999,0.100000,99,0,0.029012,6,0.000000,23.825457,0.176025,99,99,0,1,0,0,0
1,19999,85,10000,27,0,40,9999,0.100000,99,0,0.000000,6,1.000000,22.394841,20.946884,99,99,0,0,0,0,0
1,19999,86,10000,89,0,40,9999,0.100000,99,0,0.000000,7,0.000000,28.664513,6.353599,99,99,0,0,0,0,0
1,19999,87,10000,23,0,40,9999,0.100000,99,0,0.000000,5,0.000000,28.276336,8.246642,99,99,0,0,0,0,0
1,19999,88,10000,58,0,92,9999,0.100000,99,0,45.528588,7,6.000000,21.065813,21.217601,99,99,1,0,0,0,0
1,19999,89,10000,31,0,90,9999,0.100000,99,0,13.230069,6,2.000000,28.473274,11.380675,99,99,1,0,0,0,0
1,19999,90,10000,58,0,41,9999,0.100000,99,0,0.000000,7,4.000000,25.848802,16.686488,99,99,0,0,0,0,0
1,19999,91,10000,19,0,43,9999,0.100000,99,0,0.000000,6,7.000000,21.445950,12.166104,99,99,0,0,0,0,0
1,19999,92,10000,31,0,40,9999,0.100000,99,0,0.000000,6,0.000000,27.179869,0.444829,99,99,0,0,0,0,0
1,19999,93,10000,10,0,41,9999,0.100000,99,0,0.000000,7,3.000000,22.206687,3.985498,99,99,0,0,0,0,0
1,19999,94,10000,56,0,0,9999,0.100000,99,0,0.300767,8,0.000000,22.382949,1.160069,99,99,0,1,0,0,0
1,19999,95,10000,23,0,0,9999,0.100000,99,0,3.011737,6,2.000000,21.752868,2.724381,99,99,0,0,0,1,0
1,19999,96,10000,56,0,40,9999,0.100000,99,0,0.000000,7,2.000000,26.933909,21.760656,99,99,0,0,0,0,0
1,19999,97,10000,89,0,40,9999,0.100000,99,0,0.000000,6,2.000000,33.552733,7.208771,99,99,0,0,0,0,0
1,19999,98,10000,19,0,1,9999,0.100000,99,0,13.455347,7,4.000000,26.694979,14.007566,99,99,0,1,0,0,0
1,19999,99,10000,31,0,0,9999,0.100000,99,0,2.557341,6,0.000000,20.257112,0.309541,99,99,0,0,0,1,0
2,29999,0,20000,19,0,40,9999,0.100000,99,0,0.000000,8,1.000000,12.513634,5.455692,99,99,0,0,0,0,0
2,29999,1,20000,19,0,0,9999,0.100000,99,0,0.088675,8,0.000000,29.595136,1.174069,99,99,0,0,0,1,0
2,29999,2,20000,56,10000,0,9999,0.100000,99,0,0.119632,9,0.000000,28.435862,0.249082,99,99,0,0,0,1,0
2,29999,3,20000,89,10000,40,9999,0.100000,99,0,0.000000,9,1.000000,19.060679,2.338053,99,99,0,0,0,0,0
2,29999,4,20000,80,10000,0,9999,0.100000,99,0,0.314700,9,0.000000,26.390830,0.117906,99,99,0,0,0,0,1
2,29999,5,20000,58,0,0,9999,0.100000,99,0,0.015464,8,0.000000,25.446993,0.093317,99,99,0,0,0,0,1
2,29999,6,20000,10,0,40,9999,0.100000,99,0,0.000000,8,0.000000,28.844964,22.700091,99,99,0,0,0,0,0
2,29999,7,20000,57,0,40,9999,0.100000,99,0,0.000000,8,1.000000,23.890571,5.869444,99,99,0,0,0,0,0
2,29999,8,20000,56,10000,0,9999,0.100000,99,0,0.222725,10,0.000000,29.197951,0.299817,99,99,0,0,1,0,0
2,29999,9,20000,63,10000,40,9999,0.100000,99,0,0.000000,10,0.000000,21.781300,0.976221,99,99,0,0,0,0,0
2,29999,10,20000,89,10000,40,9999,0.100000,99,0,0.000000,10,0.000000,32.320474,1.064582,99,99,0,0,0,0,0
2,29999,11,20000,56,0,40,9999,0.100000,99,0,0.000000,8,1.000000,22.854099,8.394681,99,99,0,0,0,0,0
2,29999,12,20000,63,10000,40,9999,0.100000,99,0,0.000000,10,2.000000,30.598033,10.457222,99,99,0,0,0,0,0
2,29999,13,20000,10,0,40,9999,0.100000,99,0,0.000000,8,0.000000,20.510524,1.255060,99,99,0,0,0,0,0
2,29999,14,20000,56,10000,40,9999,0.100000,99,0,0.000000,10,1.000000,22.127629,1.723270,99,99,0,0,0,0,0
2,29999,15,20000,57,0,40,9999,0.100000,99,0,0.000000,10,1.000000,29.187247,5.823039,99,99,0,0,0,0,0
2,29999,16,20000,19,0,40,9999,0.100000,99,0,0.000000,8,0.000000,26.952119,2.330471,99,99,0,0,0,0,0
2,29999,17,20000,89,10000,40,9999,0.100000,99,0,0.000000,10,1.000000,27.709719,7.565447,99,99,0,0,0,0,0
2,29999,18,20000,94,0,0,9999,0.100000,99,0,1.171855,8,0.000000,32.400097,0.201267,99,99,0,0,1,0,0
2,29999,19,20000,34,0,40,9999,0.100000,99,0,0.000000,8,0.000000,26.189578,0.119502,99,99,0,0,0,0,0
2,29999,20,20000,57,0,40,9999,0.100000,99,0,0.000000,10,0.000000,25.173169,5.507917,99,99,0,0,0,0,0
2,29999,21,20000,10,0,0,9999,0.100000,99,0,0.986179,8,0.000000,29.501683,0.284275,99,99,0,0,1,0,0
2,29999,22,20000,56,0,0,9999,0.100000,99,0,4.443636,8,1.000000,29.841632,19.089840,99,99,0,0,0,1,0
2,29999,23,20000,10,0,90,9999,0.100000,99,0,15.083262,10,3.000000,31.708634,11.234993,99,99,1,0,0,0,0
2,29999,24,20000,37,10000,0,9999,0.100000,99,0,4.443636,10,1.000000,29.823734,8.743037,99,99,0,0,0,1,0
2,29999,25,20000,56,10000,40,9999,0.100000,99,0,0.000000,8,1.000000,25.862510,1.316340,99,99,0,0,0,0,0
2,29999,26,20000,37,10000,0,9999,0.100000,99,0,0.453961,10,1.000000,29.647537,3.914841,99,99,0,0,0,1,0
2,29999,27,20000,19,0,42,9999,0.100000,99,0,0.000000,10,7.000000,29.410129,12.106625,99,99,0,0,0,0,0
2,29999,28,20000,10,0,0,9999,0.100000,99,0,0.034083,9,1.000000,24.661628,2.603722,99,99,0,0,0,1,0
2,29999,29,20000,31,0,0,9999,0.100000,99,0,1.477454,8,0.000000,33.258020,0.314532,99,99,0,0,1,0,0
2,29999,30,20000,31,10000,0,9999,0.100000,99,0,0.057179,10,0.000000,26.210369,0.172439,99,99,0,1,0,0,0
2,29999,31,20000,19,0,40,9999,0.100000,99,0,0.000000,10,0.000000,34.893439,8.400373,99,99,0,0,0,0,0
2,29999,32,20000,79,10000,40,9999,0.100000,99,0,0.000000,10,0.000000,26.620269,0.137616,99,99,0,0,0,0,0
2,29999,33,20000,57,0,40,9999,0.100000,99,0,0.000000,8,0.000000,28.527890,0.213491,99,99,0,0,0,0,0
2,29999,34,20000,57,0,0,9999,0.100000,99,0,0.020247,8,1.000000,35.545908,5.499212,99,99,0,1,0,0,0
2,29999,35,20000,19,0,40,9999,0.100000,99,0,0.000000,10,0.000000,25.764893,0.142448,99,99,0,0,0,0,0
2,29999,36,20000,19,0,0,9999,0.100000,99,0,1.307030,9,1.000000,22.155217,2.140959,99,99,0,0,1,0,0
2,29999,37,20000,89,10000,40,9999,0.100000,99,0,0.000000,10,1.000000,30.049307,10.993082,99,99,0,0,0,0,0
2,29999,38,20000,19,0,42,9999,0.100000,99,0,0.000000,8,8.000000,27.592925,27.651338,99,99,0,0,0,0,0
2,29999,39,20000,57,0,0,9999,0.100000,99,0,0.002456,10,0.000000,17.090909,0.290538,99,99,0,0,0,0,1
2,29999,40,20000,94,0,40,9999,0.100000,99,0,0.000000,8,0.000000,30.963442,0.952423,99,99,0,0,0,0,0
2,29999,41,20000,80,10000,40,9999,0.100000,99,0,0.000000,10,0.000000,28.017614,13.959505,99,99,0,0,0,0,0
2,29999,42,20000,10,0,40,9999,0.100000,99,0,0.000000,8,0.000000,29.168578,0.657643,99,99,0,0,0,0,0
2,29999,43,20000,48,10000,40,9999,0.100000,99,0,0.000000,10,1.000000,29.624346,7.858770,99,99,0,0,0,0,0
2,29999,44,20000,58,0,40,9999,0.100000,99,0,0.000000,8,0.000000,20.487635,0.867454,99,99,0,0,0,0,0
2,29999,45,20000,56,10000,42,9999,0.100000,99,0,0.000000,10,6.000000,27.906374,18.493886,99,99,0,0,0,0,0
2,29999,46,20000,31,0,0,9999,0.100000,99,0,4.443636,8,1.000000,29.868613,2.362123,99,99,0,0,0,1,0
2,29999,47,20000,57,0,40,9999,0.100000,99,0,0.000000,8,1.000000,23.169099,15.005449,99,99,0,0,0,0,0
2,29999,48,20000,57,0,40,9999,0.100000,99,0,0.000000,10,0.000000,15.363570,0.861390,99,99,0,0,0,0,0
2,29999,49,20000,10,0,40,9999,0.100000,99,0,0.000000,8,1.000000,29.959717,1.584820,99,99,0,0,0,0,0
2,29999,50,20000,31,0,0,9999,0.100000,99,0,0.004233,8,0.000000,16.435965,0.399027,99,99,0,0,0,1,0
2,29999,51,20000,10,0,40,9999,0.100000,99,0,0.000000,8,0.000000,22.644968,1.104992,99,99,0,0,0,0,0
2,29999,52,20000,31,0,40,9999,0.100000,99,0,0.000000,8,0.000000,19.695826,0.673692,99,99,0,0,0,0,0
2,29999,53,20000,19,0,40,9999,0.100000,99,0,0.000000,8,0.000000,33.628259,0.810890,99,99,0,0,0,0,0
2,29999,54,20000,10,0,0,9999,0.100000,99,0,0.958879,8,0.000000,31.610691,0.352769,99,99,0,0,0,0,1
2,29999,55,20000,19,0,0,9999,0.100000,99,0,0.001053,8,0.000000,19.594702,0.065864,99,99,0,0,0,0,1
2,29999,56,20000,57,0,0,9999,0.100000,99,0,1.094459,8,0.000000,25.494935,0.732041,99,99,0,0,0,0,1
2,29999,57,20000,56,10000,41,9999,0.100000,99,0,0.000000,8,4.000000,28.830774,10.426958,99,99,0,0,0,0,0
2,29999,58,20000,34,0,40,9999,0.100000,99,0,0.000000,8,2.000000,34.928340,11.191342,99,99,0,0,0,0,0
2,29999,59,20000,19,0,4,9999,0.100000,99,0,0.463099,8,8.000000,16.281862,17.175551,99,99,0,0,0,0,1
2,29999,60,20000,34,0,40,9999,0.100000,99,0,0.000000,8,0.000000,33.588821,0.491559,99,99,0,0,0,0,0
2,29999,61,20000,56,10000,40,9999,0.100000,99,0,0.000000,8,0.000000,28.903219,0.480600,99,99,0,0,0,0,0
2,29999,62,20000,34,0,40,9999,0.100000,99,0,0.000000,8,1.000000,25.348659,3.645925,99,99,0,0,0,0,0
2,29999,63,20000,57,0,41,9999,0.100000,99,0,0.000000,8,4.000000,30.257420,11.797764,99,99,0,0,0,0,0
2,29999,64,20000,34,0,40,9999,0.100000,99,0,0.000000,8,0.000000,30.419502,1.023144,99,99,0,0,0,0,0
2,29999,65,20000,31,10000,0,9999,0.100000,99,0,2.058628,10,0.000000,24.551554,0.415342,99,99,0,0,0,1,0
2,29999,66,20000,57,0,40,9999,0.100000,99,0,0.000000,8,0.000000,28.716265,0.619631,99,99,0,0,0,0,0
2,29999,67,20000,79,10000,41,9999,0.100000,99,0,0.000000,10,5.000000,26.100789,18.082014,99,99,0,0,0,0,0
2,29999,68,20000,80,10000,40,9999,0.100000,99,0,0.000000,10,0.000000,27.073993,0.594678,99,99,0,0,0,0,0
2,29999,69,20000,57,0,40,9999,0.100000,99,0,0.000000,8,1.000000,22.325210,2.507903,99,99,0,0,0,0,0
2,29999,70,20000,37,10000,40,9999,0.100000,99,0,0.000000,10,1.000000,25.611453,4.607347,99,99,0,0,0,0,0
2,29999,71,20000,63,10000,40,9999,0.100000,99,0,0.000000,8,0.000000,29.335628,0.430264,99,99,0,0,0,0,0
2,29999,72,20000,58,0,1,9999,0.100000,99,0,0.000000,8,5.000000,29.326637,6.801632,99,99,0,1,0,0,0
2,29999,73,20000,34,0,0,9999,0.100000,99,0,0.006705,8,0.000000,29.607342,1.531027,99,99,0,1,0,0,0
2,29999,74,20000,19,0,40,9999,0.100000,99,0,0.000000,8,0.000000,29.948427,8.523778,99,99,0,0,0,0,0
2,29999,75,20000,34,0,40,9999,0.100000,99,0,0.000000,8,0.000000,31.407812,0.328813,99,99,0,0,0,0,0
2,29999,76,20000,34,0,0,9999,0.100000,99,0,0.471903,8,1.000000,23.566315,1.662231,99,99,0,0,1,0,0
2,29999,77,20000,19,0,40,9999,0.100000,99,0,0.000000,8,0.000000,27.191412,0.722247,99,99,0,0,0,0,0
2,29999,78,20000,56,10000,40,9999,0.100000,99,0,0.000000,8,1.000000,29.378420,6.694790,99,99,0,0,0,0,0
2,29999,79,20000,10,0,40,9999,0.100000,99,0,0.000000,9,0.000000,16.248670,0.171290,99,99,0,0,0,0,0
2,29999,80,20000,80,10000,0,9999,0.100000,99,0,4.420584,9,1.000000,29.802489,6.627840,99,99,0,0,0,1,0
2,29999,81,20000,48,10000,40,9999,0.100000,99,0,0.000000,10,2.000000,32.216823,11.232602,99,99,0,0,0,0,0
2,29999,82,20000,94,0,40,9999,0.100000,99,0,0.000000,10,0.000000,23.753322,1.212301,99,99,0,0,0,0,0
2,29999,83,20000,57,0,42,9999,0.100000,99,0,0.000000,10,5.000000,23.071699,6.850804,99,99,0,0,0,0,0
2,29999,84,20000,63,10000,0,9999,0.100000,99,0,0.042203,10,0.000000,23.814840,0.177403,99,99,0,1,0,0,0
2,29999,85,20000,19,0,40,9999,0.100000,99,0,0.000000,9,1.000000,22.597439,10.467031,99,99,0,0,0,0,0
2,29999,86,20000,34,0,40,9999,0.100000,99,0,0.000000,9,0.000000,28.605768,1.755413,99,99,0,0,0,0,0
2,29999,87,20000,89,10000,91,9999,0.100000,99,0,35.910993,10,6.000000,28.870724,14.759814,99,99,1,0,0,0,0
2,29999,88,20000,79,10000,91,9999,0.100000,99,0,18.067568,10,3.000000,27.007867,14.115102,99,99,1,0,0,0,0
2,29999,89,20000,19,0,41,9999,0.100000,99,0,0.000000,9,5.000000,30.266364,9.683713,99,99,0,0,0,0,0
2,29999,90,20000,57,0,40,9999,0.100000,99,0,0.000000,10,2.000000,22.126124,6.819152,99,99,0,0,0,0,0
2,29999,91,20000,56,10000,40,9999,0.100000,99,0,0.000000,10,1.000000,25.697059,3.865063,99,99,0,0,0,0,0
2,29999,92,20000,19,0,40,9999,0.100000,99,0,0.000000,9,0.000000,27.079002,0.223386,99,99,0,0,0,0,0
2,29999,93,20000,79,10000,40,9999,0.100000,99,0,0.000000,10,1.000000,22.088768,1.986686,99,99,0,0,0,0,0
2,29999,94,20000,80,10000,2,9999,0.100000,99,0,25.201357,9,5.000000,22.949834,7.222278,99,99,0,1,0,0,0
2,29999,95,20000,79,10000,0,9999,0.100000,99,0,1.009529,10,0.000000,21.787552,1.035327,99,99,0,0,0,1,0
2,29999,96,20000,56,10000,40,9999,0.100000,99,0,0.000000,9,0.000000,25.050159,2.397675,99,99,0,0,0,0,0
2,29999,97,20000,80,10000,40,9999,0.100000,99,0,0.000000,10,3.000000,35.036179,6.080158,99,99,0,0,0,0,0
2,29999,98,20000,19,0,40,9999,0.100000,99,0,0.000000,10,0.000000,28.031377,11.158991,99,99,0,0,0,0,0
2,29999,99,20000,80,10000,0,9999,0.100000,99,0,1.990981,10,0.000000,20.003769,0.278411,99,99,0,0,0,1,0
3,39999,0,30000,79,10000,0,9999,0.100000,99,0,0.000289,12,0.000000,13.622429,1.762138,99,99,0,0,1,0,0
3,39999,1,30000,89,10000,0,9999,0.100000,99,0,0.026862,10,0.000000,29.292217,0.151627,99,99,0,0,0,1,0
3,39999,2,30000,19,0,0,9999,0.100000,99,0,0.550543,12,0.000000,28.520320,0.353867,99,99,0,0,0,1,0
3,39999,3,30000,57,0,40,9999,0.100000,99,0,0.000000,10,0.000000,19.399797,0.699090,99,99,0,0,0,0,0
3,39999,4,30000,80,10000,40,9999,0.100000,99,0,0.000000,10,0.000000,26.309920,0.120855,99,99,0,0,0,0,0
3,39999,5,30000,94,0,40,9999,0.100000,99,0,0.000000,12,0.000000,25.435386,0.088620,99,99,0,0,0,0,0
3,39999,6,30000,89,10000,40,9999,0.100000,99,0,0.000000,10,1.000000,28.745547,21.812106,99,99,0,0,0,0,0
3,39999,7,30000,79,10000,93,9999,0.100000,99,0,40.975816,12,8.000000,24.806766,19.303756,99,99,1,0,0,0,0
3,39999,8,30000,88,20000,0,9999,0.100000,99,0,0.830176,12,0.000000,29.239071,0.247307,99,99,0,0,1,0,0
3,39999,9,30000,79,10000,40,9999,0.065000,99,0,0.000000,10,0.000000,21.056803,0.911672,99,99,0,0,0,0,0
3,39999,10,30000,79,10000,40,9999,0.100000,99,0,0.000000,12,0.000000,32.270371,1.062621,99,99,0,0,0,0,0
3,39999,11,30000,87,20000,42,9999,0.100000,99,0,0.000000,12,5.000000,22.012328,9.261859,99,99,0,0,0,0,0
3,39999,12,30000,48,10000,40,9999,0.100000,99,0,0.000000,12,1.000000,31.774924,3.898965,99,99,0,0,0,0,0
3,39999,13,30000,37,10000,40,9999,0.100000,99,0,0.000000,12,0.000000,20.410248,1.066312,99,99,0,0,0,0,0
3,39999,14,30000,37,10000,0,9999,0.100000,99,0,0.091521,10,0.000000,21.784210,0.421102,99,99,0,0,0,1,0
3,39999,15,30000,57,0,40,9999,0.100000,99,0,0.000000,10,0.000000,30.333198,1.558231,99,99,0,0,0,0,0
3,39999,16,30000,19,0,40,9999,0.100000,99,0,0.000000,12,0.000000,27.049364,0.721622,99,99,0,0,0,0,0
3,39999,17,30000,56,10000,41,9999,0.100000,99,0,0.000000,10,5.000000,28.752692,16.168808,99,99,0,0,0,0,0
3,39999,18,30000,80,10000,0,9999,0.100000,99,0,1.862023,12,0.000000,32.320222,0.221466,99,99,0,0,1,0,0
3,39999,19,30000,94,0,0,9999,0.100000,99,0,0.303982,10,0.000000,26.109916,0.114716,99,99,0,0,0,0,1
3,39999,20,30000,94,0,40,9999,0.100000,99,0,0.000000,12,0.000000,25.894175,4.349718,99,99,0,0,0,0,0
3,39999,21,30000,56,10000,0,9999,0.100000,99,0,0.615571,12,0.000000,29.697514,0.248459,99,99,0,0,1,0,0
3,39999,22,30000,19,0,40,9999,0.100000,99,0,0.000000,12,0.000000,28.695324,1.355772,99,99,0,0,0,0,0
3,39999,23,30000,57,0,40,9999,0.100000,99,0,0.000000,12,0.000000,28.839815,14.865104,99,99,0,0,0,0,0
3,39999,24,30000,59,20000,42,9999,0.100000,99,0,0.000000,12,7.000000,30.704470,26.597959,99,99,0,0,0,0,0
3,39999,25,30000,59,20000,0,9999,0.100000,99,0,0.221371,12,0.000000,26.264771,1.911822,99,99,0,0,0,0,1
3,39999,26,30000,37,10000,40,9999,0.100000,99,0,0.000000,10,0.000000,30.051670,0.401772,99,99,0,0,0,0,0
3,39999,27,30000,94,0,40,9999,0.100000,99,0,0.000000,12,1.000000,28.610679,2.569866,99,99,0,0,0,0,0
3,39999,28,30000,79,10000,0,9999,0.100000,99,0,0.684337,10,0.000000,23.614398,0.274479,99,99,0,0,0,1,0
3,39999,29,30000,88,20000,0,9999,0.100000,99,0,1.845370,12,0.000000,33.155217,1.080242,99,99,0,0,1,0,0
3,39999,30,30000,79,10000,0,9999,0.100000,99,0,4.205361,12,1.000000,26.215690,2.254011,99,99,0,1,0,0,0
3,39999,31,30000,57,0,40,9999,0.100000,99,0,0.000000,12,2.000000,34.917864,4.331718,99,99,0,0,0,0,0
3,39999,32,30000,57,0,40,9999,0.100000,99,0,0.000000,12,0.000000,26.539647,0.141535,99,99,0,0,0,0,0
3,39999,33,30000,80,10000,40,9999,0.100000,99,0,0.000000,10,0.000000,28.585025,0.307206,99,99,0,0,0,0,0
3,39999,34,30000,57,0,0,9999,0.100000,99,0,0.174652,12,0.000000,35.345570,0.748844,99,99,0,1,0,0,0
3,39999,35,30000,87,20000,0,9999,0.100000,99,0,0.026869,12,0.000000,25.743853,0.164867,99,99,0,0,0,0,1
3,39999,36,30000,19,0,0,9999,0.100000,99,0,0.325299,12,0.000000,20.773776,0.187158,99,99,0,0,1,0,0
3,39999,37,30000,59,20000,40,9999,0.100000,99,0,0.000000,12,2.000000,30.255602,13.311794,99,99,0,0,0,0,0
3,39999,38,30000,59,20000,40,9999,0.100000,99,0,0.000000,12,2.000000,27.421106,10.608199,99,99,0,0,0,0,0
3,39999,39,30000,89,10000,40,9999,0.100000,99,0,0.000000,10,0.000000,17.090290,0.582752,99,99,0,0,0,0,0
3,39999,40,30000,37,10000,40,9999,0.100000,99,0,0.000000,12,0.000000,31.212736,1.004752,99,99,0,0,0,0,0
3,39999,41,30000,48,10000,40,9999,0.100000,99,0,0.000000,12,1.000000,27.998583,8.128549,99,99,0,0,0,0,0
3,39999,42,30000,87,20000,40,9999,0.100000,99,0,0.000000,12,0.000000,29.449189,0.587050,99,99,0,0,0,0,0
3,39999,43,30000,79,10000,40,9999,0.100000,99,0,0.000000,12,0.000000,29.818038,2.233322,99,99,0,0,0,0,0
3,39999,44,30000,79,10000,40,9999,0.100000,99,0,0.000000,10,0.000000,20.362744,0.746994,99,99,0,0,0,0,0
3,39999,45,30000,57,0,40,9999,0.100000,99,0,0.000000,12,0.000000,25.380482,7.000883,99,99,0,0,0,0,0
3,39999,46,30000,89,10000,40,9999,0.100000,99,0,0.000000,10,0.000000,31.077192,0.320949,99,99,0,0,0,0,0
3,39999,47,30000,88,20000,40,9999,0.100000,99,0,0.000000,12,0.000000,21.988747,17.928994,99,99,0,0,0,0,0
3,39999,48,30000,19,0,40,9999,0.100000,99,0,0.000000,10,0.000000,15.191857,0.800568,99,99,0,0,0,0,0
3,39999,49,30000,31,10000,0,9999,0.100000,99,0,1.479945,12,0.000000,29.842683,0.427454,99,99,0,0,0,1,0
3,39999,50,30000,87,20000,0,9999,0.100000,99,0,0.005385,12,0.000000,16.466528,0.105001,99,99,0,0,0,1,0
3,39999,51,30000,37,10000,40,9999,0.100000,99,0,0.000000,10,0.000000,22.849602,0.194648,99,99,0,0,0,0,0
3,39999,52,30000,19,0,40,9999,0.100000,99,0,0.000000,12,0.000000,19.172437,0.423696,99,99,0,0,0,0,0
3,39999,53,30000,79,10000,40,9999,0.100000,99,0,0.000000,10,0.000000,33.490022,2.809990,99,99,0,0,0,0,0
3,39999,54,30000,80,10000,0,9999,0.100000,99,0,0.252642,12,0.000000,31.618566,0.239240,99,99,0,0,0,0,1
3,39999,55,30000,88,20000,0,9999,0.100000,99,0,0.000344,12,0.000000,19.594784,0.081634,99,99,0,0,0,0,1
3,39999,56,30000,48,10000,0,9999,0.100000,99,0,0.962155,12,0.000000,25.728887,0.802184,99,99,0,0,0,0,1
3,39999,57,30000,31,10000,40,9999,0.100000,99,0,0.000000,12,0.000000,25.798542,5.159943,99,99,0,0,0,0,0
3,39999,58,30000,94,0,40,9999,0.100000,99,0,0.000000,10,0.000000,35.438172,0.735391,99,99,0,0,0,0,0
3,39999,59,30000,57,0,0,9999,0.100000,99,0,0.304667,11,0.000000,16.234645,0.315300,99,99,0,0,0,0,1
3,39999,60,30000,80,10000,40,9999,0.100000,99,0,0.000000,11,2.000000,33.443925,4.801707,99,99,0,0,0,0,0
3,39999,61,30000,57,0,40,9999,0.100000,99,0,0.000000,11,0.000000,28.902999,0.917150,99,99,0,0,0,0,0
3,39999,62,30000,31,10000,40,9999,0.100000,99,0,0.000000,12,0.000000,26.310842,0.533099,99,99,0,0,0,0,0
3,39999,63,30000,27,20000,40,9999,0.100000,99,0,0.000000,12,0.000000,26.387353,17.488680,99,99,0,0,0,0,0
3,39999,64,30000,80,10000,40,9999,0.100000,99,0,0.000000,11,0.000000,30.620275,1.028599,99,99,0,0,0,0,0
3,39999,65,30000,38,20000,0,9999,0.100000,99,0,1.829790,12,0.000000,24.569896,0.357175,99,99,0,0,0,1,0
3,39999,66,30000,31,10000,40,9999,0.100000,99,0,0.000000,11,0.000000,28.722535,0.652644,99,99,0,0,0,0,0
3,39999,67,30000,31,10000,41,9999,0.100000,99,0,0.000000,12,5.000000,25.997712,12.206975,99,99,0,0,0,0,0
3,39999,68,30000,48,10000,40,9999,0.100000,99,0,0.000000,11,0.000000,27.258284,0.714791,99,99,0,0,0,0,0
3,39999,69,30000,56,10000,40,9999,0.100000,99,0,0.000000,12,0.000000,22.685176,6.067673,99,99,0,0,0,0,0
3,39999,70,30000,59,20000,42,9999,0.100000,99,0,0.000000,12,6.000000,25.836487,9.857192,99,99,0,0,0,0,0
3,39999,71,30000,80,10000,40,9999,0.100000,99,0,0.000000,11,0.000000,29.598066,0.336206,99,99,0,0,0,0,0
3,39999,72,30000,80,10000,40,9999,0.100000,99,0,0.000000,11,0.000000,34.035058,1.073374,99,99,0,0,0,0,0
3,39999,73,30000,79,10000,40,9999,0.100000,99,0,0.000000,11,1.000000,29.539137,5.314360,99,99,0,0,0,0,0
3,39999,74,30000,94,0,40,9999,0.100000,99,0,0.000000,11,2.000000,29.888477,9.100948,99,99,0,0,0,0,0
3,39999,75,30000,37,10000,40,9999,0.100000,99,0,0.000000,11,0.000000,31.438084,0.212567,99,99,0,0,0,0,0
3,39999,76,30000,19,0,41,9999,0.100000,99,0,0.000000,11,5.000000,24.741252,13.469134,99,99,0,0,0,0,0
3,39999,77,30000,80,10000,40,9999,0.100000,99,0,0.000000,11,0.000000,27.110955,0.704374,99,99,0,0,0,0,0
3,39999,78,30000,79,10000,40,9999,0.100000,99,0,0.000000,12,0.000000,30.243483,0.538676,99,99,0,0,0,0,0
3,39999,79,30000,80,10000,40,9999,0.100000,99,0,0.000000,11,0.000000,16.272713,0.263988,99,99,0,0,0,0,0
3,39999,80,30000,37,10000,40,9999,0.100000,99,0,0.000000,11,0.000000,28.800139,0.815402,99,99,0,0,0,0,0
3,39999,81,30000,48,10000,40,9999,0.100000,99,0,0.000000,11,3.000000,33.036673,14.443018,99,99,0,0,0,0,0
3,39999,82,30000,89,10000,40,9999,0.100000,99,0,0.000000,11,0.000000,24.605310,0.963085,99,99,0,0,0,0,0
3,39999,83,30000,87,20000,0,9999,0.100000,99,0,12.900362,12,2.000000,27.476034,3.718246,99,99,0,1,0,0,0
3,39999,84,30000,59,20000,0,9999,0.100000,99,0,0.068271,11,0.000000,23.807605,0.166053,99,99,0,1,0,0,0
3,39999,85,30000,48,10000,40,9999,0.100000,99,0,0.000000,11,1.000000,23.552936,2.220882,99,99,0,0,0,0,0
3,39999,86,30000,19,0,40,9999,0.100000,99,0,0.000000,11,0.000000,28.583417,1.444770,99,99,0,0,0,0,0
3,39999,87,30000,94,0,41,9999,0.100000,99,0,0.000000,12,7.000000,34.005504,24.567202,99,99,0,0,0,0,0
3,39999,88,30000,37,10000,40,9999,0.100000,99,0,0.000000,12,1.000000,29.851419,10.366631,99,99,0,0,0,0,0
3,39999,89,30000,87,20000,40,9999,0.100000,99,0,0.000000,12,0.000000,34.594342,0.685562,99,99,0,0,0,0,0
3,39999,90,30000,56,10000,0,9999,0.100000,99,0,2.755710,12,0.000000,24.463023,0.797903,99,99,0,0,1,0,0
3,39999,91,30000,57,0,40,9999,0.100000,99,0,0.000000,12,1.000000,25.924161,3.973463,99,99,0,0,0,0,0
3,39999,92,30000,88,20000,40,9999,0.100000,99,0,0.000000,12,0.000000,26.998679,0.216258,99,99,0,0,0,0,0
3,39999,93,30000,94,0,40,9999,0.100000,99,0,0.000000,12,0.000000,21.998552,2.279032,99,99,0,0,0,0,0
3,39999,94,30000,94,0,40,9999,0.100000,99,0,0.000000,12,2.000000,27.665992,2.915624,99,99,0,0,0,0,0
3,39999,95,30000,94,0,40,9999,0.100000,99,0,0.000000,12,0.000000,21.591500,0.322900,99,99,0,0,0,0,0
3,39999,96,30000,57,0,40,9999,0.100000,99,0,0.000000,12,0.000000,25.538965,1.036379,99,99,0,0,0,0,0
3,39999,97,30000,31,10000,40,9999,0.100000,99,0,0.000000,12,0.000000,32.502798,0.422904,99,99,0,0,0,0,0
3,39999,98,30000,19,0,40,9999,0.100000,99,0,0.000000,12,1.000000,28.038131,7.095389,99,99,0,0,0,0,0
3,39999,99,30000,88,20000,0,9999,0.100000,99,0,1.399864,12,0.000000,19.764565,0.219606,99,99,0,0,0,1,0
4,49999,0,40000,31,10000,0,9999,0.100000,99,0,0.001335,12,0.000000,14.062074,0.203747,99,99,0,0,1,0,0
4,49999,1,40000,37,10000,0,9999,0.100000,99,0,0.735332,12,0.000000,29.301072,0.288509,99,99,0,0,0,1,0
4,49999,2,40000,37,10000,0,9999,0.100000,99,0,0.345009,12,0.000000,28.579036,0.349768,99,99,0,0,0,1,0
4,49999,3,40000,31,10000,40,9999,0.100000,99,0,0.000000,12,0.000000,19.497368,0.761505,99,99,0,0,0,0,0
4,49999,4,40000,38,20000,0,9999,0.100000,99,0,0.265517,12,0.000000,26.230030,0.119233,99,99,0,0,0,0,1
4,49999,5,40000,59,20000,0,9999,0.100000,99,0,0.022634,12,0.000000,25.426312,0.088327,99,99,0,0,0,0,1
4,49999,6,40000,56,10000,41,9999,0.100000,99,0,0.000000,12,5.000000,28.637303,22.521828,99,99,0,0,0,0,0
4,49999,7,40000,59,20000,40,9999,0.100000,99,0,0.000000,12,3.000000,29.338563,11.253479,99,99,0,0,0,0,0
4,49999,8,40000,19,0,0,9999,0.100000,99,0,4.691464,12,0.000000,29.403194,1.117602,99,99,0,0,1,0,0
4,49999,9,40000,94,0,40,9999,0.100000,99,0,0.000000,12,0.000000,20.390430,1.310697,99,99,0,0,0,0,0
4,49999,10,40000,48,10000,40,9999,0.100000,99,0,0.000000,12,0.000000,32.108791,0.417571,99,99,0,0,0,0,0
4,49999,11,40000,88,20000,40,9999,0.100000,99,0,0.000000,12,0.000000,24.598723,2.787298,99,99,0,0,0,0,0
4,49999,12,40000,19,0,40,9999,0.100000,99,0,0.000000,12,2.000000,33.119533,10.990382,99,99,0,0,0,0,0
4,49999,13,40000,48,10000,40,9999,0.100000,99,0,0.000000,12,0.000000,20.384936,0.829285,99,99,0,0,0,0,0
4,49999,14,40000,88,20000,0,9999,0.100000,99,0,0.077056,12,0.000000,21.704321,0.238859,99,99,0,0,0,1,0
4,49999,15,40000,19,0,40,9999,0.100000,99,0,0.000000,12,1.000000,30.224667,6.844961,99,99,0,0,0,0,0
4,49999,16,40000,94,0,0,9999,0.100000,99,0,0.068682,12,0.000000,26.990725,0.196520,99,99,0,0,0,0,1
4,49999,17,40000,31,10000,41,9999,0.100000,99,0,0.000000,12,4.000000,25.512822,11.927403,99,99,0,0,0,0,0
4,49999,18,40000,19,0,0,9999,0.100000,99,0,2.716043,12,0.000000,32.219110,0.285104,99,99,0,0,1,0,0
4,49999,19,40000,56,10000,40,9999,0.100000,99,0,0.000000,12,0.000000,26.030215,0.116976,99,99,0,0,0,0,0
4,49999,20,40000,88,20000,40,9999,0.100000,99,0,0.000000,12,0.000000,26.137075,2.945420,99,99,0,0,0,0,0
4,49999,21,40000,59,20000,0,9999,0.100000,99,0,4.943165,12,0.000000,29.834319,0.436545,99,99,0,0,1,0,0
4,49999,22,40000,79,10000,40,9999,0.100000,99,0,0.000000,12,3.000000,28.944072,12.025911,99,99,0,0,0,0,0
4,49999,23,40000,88,20000,40,9999,0.100000,99,0,0.000000,12,1.000000,28.912207,20.266143,99,99,0,0,0,0,0
4,49999,24,40000,56,10000,40,9999,0.100000,99,0,0.000000,12,3.000000,30.890809,10.117259,99,99,0,0,0,0,0
4,49999,25,40000,94,0,40,9999,0.100000,99,0,0.000000,12,0.000000,26.498174,0.090573,99,99,0,0,0,0,0
4,49999,26,40000,59,20000,0,9999,0.100000,99,0,2.482051,12,0.000000,29.947715,0.630268,99,99,0,0,0,1,0
4,49999,27,40000,57,0,40,9999,0.100000,99,0,0.000000,12,0.000000,28.357131,0.764882,99,99,0,0,0,0,0
4,49999,28,40000,56,10000,0,9999,0.100000,99,0,0.016486,12,0.000000,23.557960,0.105246,99,99,0,0,0,1,0
4,49999,29,40000,56,10000,40,9999,0.100000,99,0,0.000000,12,2.000000,33.267708,2.830027,99,99,0,0,0,0,0
4,49999,30,40000,31,10000,40,9999,0.100000,99,0,0.000000,12,0.000000,25.221126,1.023257,99,99,0,0,0,0,0
4,49999,31,40000,37,10000,0,9999,0.100000,99,0,2.385993,12,1.000000,33.816765,2.224641,99,99,0,0,1,0,0
4,49999,32,40000,94,0,40,9999,0.100000,99,0,0.000000,12,0.000000,26.459798,0.140452,99,99,0,0,0,0,0
4,49999,33,40000,37,10000,40,9999,0.100000,99,0,0.000000,12,0.000000,28.607245,0.310456,99,99,0,0,0,0,0
4,49999,34,40000,57,0,0,9999,0.100000,99,0,0.642515,12,1.000000,34.809776,2.618486,99,99,0,1,0,0,0
4,49999,35,40000,94,0,40,9999,0.100000,99,0,0.000000,12,0.000000,25.726708,0.138060,99,99,0,0,0,0,0
4,49999,36,40000,38,20000,0,9999,0.100000,99,0,0.757673,12,0.000000,20.679408,0.253971,99,99,0,0,1,0,0
4,49999,37,40000,31,10000,40,9999,0.100000,99,0,0.000000,12,3.000000,30.705166,14.266625,99,99,0,0,0,0,0
4,49999,38,40000,37,10000,93,9999,0.100000,99,0,41.533615,12,9.000000,25.843355,20.246673,99,99,1,0,0,0,0
4,49999,39,40000,38,20000,40,9999,0.100000,99,0,0.000000,12,0.000000,16.966718,0.246074,99,99,0,0,0,0,0
4,49999,40,40000,79,10000,40,9999,0.100000,99,0,0.000000,12,0.000000,31.489902,0.941650,99,99,0,0,0,0,0
4,49999,41,40000,59,20000,40,9999,0.100000,99,0,0.000000,12,0.000000,26.912149,0.982149,99,99,0,0,0,0,0
4,49999,42,40000,87,20000,40,9999,0.100000,99,0,0.000000,12,0.000000,29.648041,1.035906,99,99,0,0,0,0,0
4,49999,43,40000,87,20000,41,9999,0.100000,99,0,0.000000,12,5.000000,30.195696,9.476905,99,99,0,0,0,0,0
4,49999,44,40000,56,10000,40,9999,0.100000,99,0,0.000000,12,0.000000,20.325836,0.601565,99,99,0,0,0,0,0
4,49999,45,40000,57,0,40,9999,0.100000,99,0,0.000000,12,0.000000,26.054919,0.573617,99,99,0,0,0,0,0
4,49999,46,40000,94,0,40,9999,0.100000,99,0,0.000000,12,0.000000,31.103728,0.329286,99,99,0,0,0,0,0
4,49999,47,40000,48,10000,40,9999,0.100000,99,0,0.000000,12,0.000000,22.055954,4.527048,99,99,0,0,0,0,0
4,49999,48,40000,56,10000,40,9999,0.100000,99,0,0.000000,12,0.000000,15.740335,0.391176,99,99,0,0,0,0,0
4,49999,49,40000,31,10000,40,9999,0.100000,99,0,0.000000,12,1.000000,29.716346,4.154967,99,99,0,0,0,0,0
4,49999,50,40000,88,20000,0,9999,0.100000,99,0,0.005125,12,0.000000,16.467120,0.105783,99,99,0,0,0,1,0
4,49999,51,40000,94,0,40,9999,0.100000,99,0,0.000000,12,0.000000,22.787735,0.124512,99,99,0,0,0,0,0
4,49999,52,40000,19,0,40,9999,0.100000,99,0,0.000000,12,0.000000,19.015755,0.323100,99,99,0,0,0,0,0
4,49999,53,40000,31,10000,41,9999,0.100000,99,0,0.000000,12,6.000000,33.569698,15.589126,99,99,0,0,0,0,0
4,49999,54,40000,56,10000,0,9999,0.100000,99,0,0.034321,12,0.000000,31.583545,0.267446,99,99,0,0,0,0,1
4,49999,55,40000,88,20000,0,9999,0.100000,99,0,0.001335,12,0.000000,19.594523,0.065898,99,99,0,0,0,0,1
4,49999,56,40000,37,10000,0,9999,0.100000,99,0,0.219460,12,0.000000,25.827272,0.223180,99,99,0,0,0,0,1
4,49999,57,40000,48,10000,40,9999,0.100000,99,0,0.000000,12,0.000000,26.121947,7.016991,99,99,0,0,0,0,0
4,49999,58,40000,94,0,40,9999,0.100000,99,0,0.000000,12,1.000000,34.900403,4.310218,99,99,0,0,0,0,0
4,49999,59,40000,79,10000,40,9999,0.100000,99,0,0.000000,12,0.000000,16.436210,0.241866,99,99,0,0,0,0,0
4,49999,60,40000,38,20000,40,9999,0.100000,99,0,0.000000,12,3.000000,31.130769,12.763609,99,99,0,0,0,0,0
4,49999,61,40000,56,10000,40,9999,0.100000,99,0,0.000000,12,1.000000,29.144146,3.730027,99,99,0,0,0,0,0
4,49999,62,40000,56,10000,40,9999,0.100000,99,0,0.000000,12,0.000000,26.456022,0.225037,99,99,0,0,0,0,0
4,49999,63,40000,48,10000,40,9999,0.100000,99,0,0.000000,12,0.000000,26.666275,19.803913,99,99,0,0,0,0,0
4,49999,64,40000,19,0,40,9999,0.100000,99,0,0.000000,12,0.000000,30.854198,1.013616,99,99,0,0,0,0,0
4,49999,65,40000,19,0,0,9999,0.100000,99,0,1.626834,12,0.000000,24.591821,0.436061,99,99,0,0,0,1,0
4,49999,66,40000,37,10000,40,9999,0.100000,99,0,0.000000,12,0.000000,28.669608,0.736711,99,99,0,0,0,0,0
4,49999,67,40000,48,10000,40,9999,0.100000,99,0,0.000000,12,0.000000,26.240873,0.930041,99,99,0,0,0,0,0
4,49999,68,40000,38,20000,40,9999,0.100000,99,0,0.000000,12,0.000000,27.306289,0.354944,99,99,0,0,0,0,0
4,49999,69,40000,56,10000,40,9999,0.100000,99,0,0.000000,12,0.000000,21.891377,0.660946,99,99,0,0,0,0,0
4,49999,70,40000,56,10000,40,9999,0.100000,99,0,0.000000,12,3.000000,30.276493,4.670622,99,99,0,0,0,0,0
4,49999,71,40000,48,10000,40,9999,0.100000,99,0,0.000000,12,0.000000,29.779097,0.699179,99,99,0,0,0,0,0
4,49999,72,40000,19,0,40,9999,0.100000,99,0,0.000000,12,0.000000,34.245635,1.148152,99,99,0,0,0,0,0
4,49999,73,40000,88,20000,40,9999,0.100000,99,0,0.000000,12,2.000000,30.192303,4.527159,99,99,0,0,0,0,0
4,49999,74,40000,31,10000,41,9999,0.100000,99,0,0.000000,12,3.000000,27.540529,13.948178,99,99,0,0,0,0,0
4,49999,75,40000,37,10000,40,9999,0.100000,99,0,0.000000,12,0.000000,31.410821,0.536735,99,99,0,0,0,0,0
4,49999,76,40000,48,10000,0,9999,0.100000,99,0,0.851956,12,0.000000,25.684952,0.851933,99,99,0,0,1,0,0
4,49999,77,40000,59,20000,40,9999,0.100000,99,0,0.000000,12,0.000000,27.031870,0.857941,99,99,0,0,0,0,0
4,49999,78,40000,37,10000,40,9999,0.100000,99,0,0.000000,12,0.000000,30.159649,0.592474,99,99,0,0,0,0,0
4,49999,79,40000,79,10000,0,9999,0.100000,99,0,0.302393,12,0.000000,16.405535,0.290196,99,99,0,0,0,0,1
4,49999,80,40000,56,10000,40,9999,0.100000,99,0,0.000000,12,1.000000,29.045807,1.817900,99,99,0,0,0,0,0
4,49999,81,40000,37,10000,40,9999,0.100000,99,0,0.000000,12,3.000000,30.435852,6.601191,99,99,0,0,0,0,0
4,49999,82,40000,38,20000,40,9999,0.100000,99,0,0.000000,12,0.000000,25.396069,0.823950,99,99,0,0,0,0,0
4,49999,83,40000,56,10000,0,9999,0.100000,99,0,1.958867,12,0.000000,28.814682,1.823305,99,99,0,1,0,0,0
4,49999,84,40000,37,10000,0,9999,0.100000,99,0,0.033270,12,0.000000,23.806483,0.162564,99,99,0,1,0,0,0
4,49999,85,40000,56,10000,41,9999,0.100000,99,0,0.000000,12,3.000000,23.708710,15.036171,99,99,0,0,0,0,0
4,49999,86,40000,59,20000,40,9999,0.100000,99,0,0.000000,12,0.000000,28.529199,1.286236,99,99,0,0,0,0,0
4,49999,87,40000,87,20000,40,9999,0.100000,99,0,0.000000,12,2.000000,32.691664,7.006060,99,99,0,0,0,0,0
4,49999,88,40000,31,10000,40,9999,0.100000,99,0,0.000000,12,3.000000,29.608479,10.814773,99,99,0,0,0,0,0
4,49999,89,40000,48,10000,40,9999,0.100000,99,0,0.000000,12,0.000000,34.802074,1.067979,99,99,0,0,0,0,0
4,49999,90,40000,59,20000,40,9999,0.100000,99,0,0.000000,12,0.000000,25.117321,0.831703,99,99,0,0,0,0,0
4,49999,91,40000,59,20000,44,9999,0.100000,99,0,0.000000,12,12.000000,26.299130,18.137659,99,99,0,0,0,0,0
4,49999,92,40000,37,10000,40,9999,0.100000,99,0,0.000000,12,0.000000,26.919773,0.229679,99,99,0,0,0,0,0
4,49999,93,40000,87,20000,40,9999,0.100000,99,0,0.000000,12,0.000000,22.018209,1.451776,99,99,0,0,0,0,0
4,49999,94,40000,38,20000,40,9999,0.100000,99,0,0.000000,12,0.000000,28.992750,1.743647,99,99,0,0,0,0,0
4,49999,95,40000,56,10000,40,9999,0.100000,99,0,0.000000,12,0.000000,21.517903,0.212097,99,99,0,0,0,0,0
4,49999,96,40000,37,10000,40,9999,0.100000,99,0,0.000000,12,0.000000,25.639290,0.210989,99,99,0,0,0,0,0
4,49999,97,40000,88,20000,40,9999,0.100000,99,0,0.000000,12,0.000000,32.164241,0.870458,99,99,0,0,0,0,0
4,49999,98,40000,38,20000,41,9999,0.100000,99,0,0.000000,12,3.000000,26.968813,6.071694,99,99,0,0,0,0,0
4,49999,99,40000,59,20000,0,9999,0.100000,99,0,1.116797,12,0.000000,19.690876,0.230069,99,99,0,0,0,1,0
5,59999,0,50000,38,20000,0,9999,0.100000,99,0,0.000592,12,0.000000,14.061442,0.201452,99,99,0,0,1,0,0
5,59999,1,50000,91,40000,0,9999,0.100000,99,0,0.019983,13,0.000000,29.282159,0.142279,99,99,0,0,0,1,0
5,59999,2,50000,56,10000,0,9999,0.100000,99,0,0.108469,13,0.000000,28.689779,0.209735,99,99,0,0,0,1,0
5,59999,3,50000,79,10000,40,9999,0.100000,99,0,0.000000,13,0.000000,19.677861,2.988233,99,99,0,0,0,0,0
5,59999,4,50000,88,20000,0,9999,0.100000,99,0,0.268103,12,0.000000,26.153841,0.236908,99,99,0,0,0,0,1
5,59999,5,50000,48,10000,0,9999,0.100000,99,0,0.200107,13,0.000000,25.416906,0.214417,99,99,0,0,0,0,1
5,59999,6,50000,91,40000,40,9999,0.100000,99,0,0.000000,13,0.000000,34.106795,0.938264,99,99,0,0,0,0,0
5,59999,7,50000,88,20000,41,9999,0.100000,99,0,0.000000,12,3.000000,28.457922,9.674150,99,99,0,0,0,0,0
5,59999,8,50000,56,10000,0,9999,0.100000,99,0,2.006836,12,0.000000,30.270845,0.477308,99,99,0,0,1,0,0
5,59999,9,50000,88,20000,40,9999,0.100000,99,0,0.000000,12,1.000000,19.974239,2.272143,99,99,0,0,0,0,0
5,59999,10,50000,38,20000,40,9999,0.100000,99,0,0.000000,13,0.000000,31.905674,0.348870,99,99,0,0,0,0,0
5,59999,11,50000,88,20000,40,9999,0.100000,99,0,0.000000,13,0.000000,23.990921,0.999030,99,99,0,0,0,0,0
5,59999,12,50000,91,40000,40,9999,0.100000,99,0,0.000000,13,1.000000,33.139659,11.452148,99,99,0,0,0,0,0
5,59999,13,50000,38,20000,40,9999,0.100000,99,0,0.000000,13,0.000000,20.330486,0.644071,99,99,0,0,0,0,0
5,59999,14,50000,37,10000,0,9999,0.100000,99,0,0.193834,12,0.000000,21.668527,0.150800,99,99,0,0,0,1,0
5,59999,15,50000,19,0,0,9999,0.100000,99,0,0.476327,13,0.000000,29.737907,0.168717,99,99,0,0,0,1,0
5,59999,16,50000,31,10000,40,9999,0.100000,99,0,0.000000,12,1.000000,26.998910,4.238097,99,99,0,0,0,0,0
5,59999,17,50000,37,10000,40,9999,0.100000,99,0,0.000000,12,0.000000,26.286438,2.204347,99,99,0,0,0,0,0
5,59999,18,50000,48,10000,0,9999,0.100000,99,0,1.701162,12,0.000000,32.118674,0.842480,99,99,0,0,1,0,0
5,59999,19,50000,94,0,40,9999,0.100000,99,0,0.000000,13,0.000000,25.954719,0.237224,99,99,0,0,0,0,0
5,59999,20,50000,57,0,40,9999,0.100000,99,0,0.000000,12,0.000000,26.108086,2.745346,99,99,0,0,0,0,0
5,59999,21,50000,94,0,0,9999,0.100000,99,0,1.105795,12,0.000000,29.694787,0.372050,99,99,0,0,1,0,0
5,59999,22,50000,59,20000,41,9999,0.100000,99,0,0.000000,13,4.000000,29.830953,11.015279,99,99,0,0,0,0,0
5,59999,23,50000,79,10000,40,9999,0.100000,99,0,0.000000,13,0.000000,28.603316,22.091480,99,99,0,0,0,0,0
5,59999,24,50000,19,0,41,9999,0.100000,99,0,0.000000,13,4.000000,29.100780,14.524245,99,99,0,0,0,0,0
5,59999,25,50000,79,10000,0,9999,0.100000,99,0,0.012780,13,0.000000,26.508554,1.406293,99,99,0,0,0,0,1
5,59999,26,50000,31,10000,40,9999,0.100000,99,0,0.000000,13,0.000000,29.988505,0.164120,99,99,0,0,0,0,0
5,59999,27,50000,19,0,40,9999,0.100000,99,0,0.000000,12,0.000000,27.924053,0.727592,99,99,0,0,0,0,0
5,59999,28,50000,79,10000,0,9999,0.100000,99,0,0.002577,13,0.000000,23.559117,0.102607,99,99,0,0,0,1,0
5,59999,29,50000,88,20000,40,9999,0.100000,99,0,0.000000,12,1.000000,35.067311,10.570718,99,99,0,0,0,0,0
5,59999,30,50000,19,0,40,9999,0.100000,99,0,0.000000,12,0.000000,24.453193,0.985158,99,99,0,0,0,0,0
5,59999,31,50000,56,10000,40,9999,0.100000,99,0,0.000000,13,0.000000,35.323076,2.814217,99,99,0,0,0,0,0
5,59999,32,50000,56,10000,40,9999,0.100000,99,0,0.000000,13,0.000000,26.382796,1.416346,99,99,0,0,0,0,0
5,59999,33,50000,87,20000,40,9999,0.100000,99,0,0.000000,13,0.000000,28.674739,0.184621,99,99,0,0,0,0,0
5,59999,34,50000,79,10000,0,9999,0.100000,99,0,0.493649,13,0.000000,35.990275,1.121986,99,99,0,1,0,0,0
5,59999,35,50000,48,10000,40,9999,0.100000,99,0,0.000000,13,0.000000,25.707957,0.208446,99,99,0,0,0,0,0
5,59999,36,50000,59,20000,0,9999,0.100000,99,0,0.284488,13,0.000000,20.800921,0.176818,99,99,0,0,1,0,0
5,59999,37,50000,87,20000,40,9999,0.100000,99,0,0.000000,13,1.000000,27.684853,4.878741,99,99,0,0,0,0,0
5,59999,38,50000,94,0,40,9999,0.100000,99,0,0.000000,13,2.000000,29.458957,11.920950,99,99,0,0,0,0,0
5,59999,39,50000,19,0,40,9999,0.100000,99,0,0.000000,13,0.000000,16.876977,0.218170,99,99,0,0,0,0,0
5,59999,40,50000,59,20000,40,9999,0.100000,99,0,0.000000,12,0.000000,31.776445,0.936849,99,99,0,0,0,0,0
5,59999,41,50000,48,10000,40,9999,0.100000,99,0,0.000000,13,0.000000,26.174799,0.974951,99,99,0,0,0,0,0
5,59999,42,50000,87,20000,40,9999,0.100000,99,0,0.000000,12,0.000000,30.114239,1.268724,99,99,0,0,0,0,0
5,59999,43,50000,88,20000,40,9999,0.100000,99,0,0.000000,12,0.000000,26.116806,1.563352,99,99,0,0,0,0,0
5,59999,44,50000,79,10000,40,9999,0.100000,99,0,0.000000,13,0.000000,20.285163,0.424171,99,99,0,0,0,0,0
5,59999,45,50000,48,10000,40,9999,0.100000,99,0,0.000000,12,0.000000,26.045043,0.701309,99,99,0,0,0,0,0
5,59999,46,50000,31,10000,40,9999,0.100000,99,0,0.000000,13,0.000000,31.131654,0.311847,99,99,0,0,0,0,0
5,59999,47,50000,19,0,40,9999,0.100000,99,0,0.000000,12,0.000000,22.346086,22.328814,99,99,0,0,0,0,0
5,59999,48,50000,94,0,40,9999,0.100000,99,0,0.000000,12,0.000000,15.963642,0.400830,99,99,0,0,0,0,0
5,59999,49,50000,79,10000,40,9999,0.100000,99,0,0.000000,13,0.000000,31.276844,2.326371,99,99,0,0,0,0,0
5,59999,50,50000,59,20000,0,9999,0.100000,99,0,0.004979,12,0.000000,16.467677,0.105569,99,99,0,0,0,1,0
5,59999,51,50000,79,10000,40,9999,0.100000,99,0,0.000000,13,0.000000,22.789262,0.107262,99,99,0,0,0,0,0
5,59999,52,50000,87,20000,40,9999,0.100000,99,0,0.000000,13,0.000000,18.991072,0.332001,99,99,0,0,0,0,0
5,59999,53,50000,57,0,41,9999,0.100000,99,0,0.000000,12,6.000000,35.203419,12.577152,99,99,0,0,0,0,0
5,59999,54,50000,79,10000,0,9999,0.100000,99,0,0.035055,13,0.000000,31.392060,0.133610,99,99,0,0,0,0,1
5,59999,55,50000,19,0,0,9999,0.100000,99,0,0.001503,12,0.000000,19.594196,0.066555,99,99,0,0,0,0,1
5,59999,56,50000,87,20000,40,9999,0.100000,99,0,0.000000,13,0.000000,25.824674,0.211472,99,99,0,0,0,0,0
5,59999,57,50000,38,20000,40,9999,0.100000,99,0,0.000000,12,0.000000,26.039720,7.836945,99,99,0,0,0,0,0
5,59999,58,50000,79,10000,40,9999,0.100000,99,0,0.000000,13,0.000000,35.759882,1.007257,99,99,0,0,0,0,0
5,59999,59,50000,38,20000,0,9999,0.100000,99,0,0.000010,13,0.000000,16.557232,0.107065,99,99,0,0,0,0,1
5,59999,60,50000,91,40000,41,9999,0.100000,99,0,0.000000,13,5.000000,32.693020,13.395753,99,99,0,0,0,0,0
5,59999,61,50000,38,20000,40,9999,0.100000,99,0,0.000000,13,0.000000,30.167731,0.525948,99,99,0,0,0,0,0
5,59999,62,50000,79,10000,0,9999,0.100000,99,0,0.410740,12,0.000000,26.456679,0.249329,99,99,0,0,0,0,1
5,59999,63,50000,87,20000,40,9999,0.100000,99,0,0.000000,13,0.000000,26.594451,19.850628,99,99,0,0,0,0,0
5,59999,64,50000,79,10000,40,9999,0.100000,99,0,0.000000,13,0.000000,31.104772,0.973125,99,99,0,0,0,0,0
5,59999,65,50000,94,0,40,9999,0.100000,99,0,0.000000,13,0.000000,24.562250,1.565641,99,99,0,0,0,0,0
5,59999,66,50000,59,20000,40,9999,0.100000,99,0,0.000000,12,0.000000,28.654056,0.610037,99,99,0,0,0,0,0
5,59999,67,50000,94,0,40,9999,0.100000,99,0,0.000000,13,0.000000,26.232013,0.383772,99,99,0,0,0,0,0
5,59999,68,50000,88,20000,40,9999,0.100000,99,0,0.000000,12,0.000000,27.295300,0.438893,99,99,0,0,0,0,0
5,59999,69,50000,87,20000,40,9999,0.100000,99,0,0.000000,12,0.000000,21.878596,0.126003,99,99,0,0,0,0,0
5,59999,70,50000,59,20000,40,9999,0.100000,99,0,0.000000,12,0.000000,29.831954,2.935048,99,99,0,0,0,0,0
5,59999,71,50000,87,20000,40,9999,0.100000,99,0,0.000000,12,0.000000,29.959110,0.579184,99,99,0,0,0,0,0
5,59999,72,50000,59,20000,43,9999,0.100000,99,0,0.000000,12,11.000000,34.521692,15.979285,99,99,0,0,0,0,0
5,59999,73,50000,87,20000,40,9999,0.100000,99,0,0.000000,13,0.000000,29.826251,2.998085,99,99,0,0,0,0,0
5,59999,74,50000,48,10000,0,9999,0.100000,99,0,0.286255,12,0.000000,24.406340,1.625482,99,99,0,0,0,1,0
5,59999,75,50000,94,0,40,9999,0.100000,99,0,0.000000,12,0.000000,31.225812,0.554377,99,99,0,0,0,0,0
5,59999,76,50000,57,0,0,9999,0.100000,99,0,0.899308,12,0.000000,25.966406,1.385048,99,99,0,0,1,0,0
5,59999,77,50000,88,20000,40,9999,0.100000,99,0,0.000000,12,0.000000,26.956133,1.139654,99,99,0,0,0,0,0
5,59999,78,50000,79,10000,40,9999,0.100000,99,0,0.000000,12,0.000000,30.218441,1.238391,99,99,0,0,0,0,0
5,59999,79,50000,56,10000,40,9999,0.100000,99,0,0.000000,12,0.000000,16.463540,0.407250,99,99,0,0,0,0,0
5,59999,80,50000,57,0,42,9999,0.100000,99,0,0.000000,12,7.000000,30.056117,14.566489,99,99,0,0,0,0,0
5,59999,81,50000,59,20000,40,9999,0.100000,99,0,0.000000,12,1.000000,33.033651,1.980980,99,99,0,0,0,0,0
5,59999,82,50000,57,0,40,9999,0.100000,99,0,0.000000,12,0.000000,25.688383,1.352594,99,99,0,0,0,0,0
5,59999,83,50000,48,10000,40,9999,0.100000,99,0,0.000000,12,0.000000,28.914358,0.664168,99,99,0,0,0,0,0
5,59999,84,50000,37,10000,1,9999,0.100000,99,0,0.020082,12,3.000000,23.799947,13.176355,99,99,0,1,0,0,0
5,59999,85,50000,31,10000,40,9999,0.100000,99,0,0.000000,13,1.000000,24.785630,7.005648,99,99,0,0,0,0,0
5,59999,86,50000,56,10000,40,9999,0.100000,99,0,0.000000,13,0.000000,28.515485,1.056926,99,99,0,0,0,0,0
5,59999,87,50000,57,0,41,9999,0.100000,99,0,0.000000,13,5.000000,30.326622,6.642610,99,99,0,0,0,0,0
5,59999,88,50000,31,10000,40,9999,0.100000,99,0,0.000000,13,0.000000,26.147363,3.613711,99,99,0,0,0,0,0
5,59999,89,50000,19,0,40,9999,0.100000,99,0,0.000000,12,0.000000,34.861978,0.497512,99,99,0,0,0,0,0
5,59999,90,50000,37,10000,40,9999,0.100000,99,0,0.000000,13,0.000000,25.433558,1.350733,99,99,0,0,0,0,0
5,59999,91,50000,31,10000,40,9999,0.100000,99,0,0.000000,13,0.000000,21.214626,19.085136,99,99,0,0,0,0,0
5,59999,92,50000,31,10000,40,9999,0.100000,99,0,0.000000,13,0.000000,26.844834,0.351148,99,99,0,0,0,0,0
5,59999,93,50000,87,20000,40,9999,0.100000,99,0,0.000000,13,0.000000,21.944054,0.405266,99,99,0,0,0,0,0
5,59999,94,50000,56,10000,0,9999,0.100000,99,0,0.850157,13,0.000000,29.090602,0.475722,99,99,0,1,0,0,0
5,59999,95,50000,37,10000,40,9999,0.100000,99,0,0.000000,13,0.000000,21.457655,0.206711,99,99,0,0,0,0,0
5,59999,96,50000,48,10000,40,9999,0.100000,99,0,0.000000,13,0.000000,25.634328,0.224221,99,99,0,0,0,0,0
5,59999,97,50000,38,20000,40,9999,0.100000,99,0,0.000000,13,1.000000,31.788439,4.802349,99,99,0,0,0,0,0
5,59999,98,50000,38,20000,40,9999,0.100000,99,0,0.000000,13,0.000000,30.072644,0.131189,99,99,0,0,0,0,0
5,59999,99,50000,94,0,0,9999,0.100000,99,0,1.142570,13,0.000000,19.699331,0.262123,99,99,0,0,0,1,0
6,69999,0,60000,94,0,0,9999,0.100000,99,0,0.000548,13,0.000000,14.060875,0.196552,99,99,0,0,1,0,0
6,69999,1,60000,57,0,0,9999,0.100000,99,0,0.014144,14,0.000000,29.280717,0.150734,99,99,0,0,0,1,0
6,69999,2,60000,56,10000,0,9999,0.100000,99,0,0.251181,13,0.000000,28.771470,0.269531,99,99,0,0,0,1,0
6,69999,3,60000,48,10000,40,9999,0.100000,99,0,0.000000,13,0.000000,19.055016,1.602121,99,99,0,0,0,0,0
6,69999,4,60000,19,0,0,9999,0.100000,99,0,0.124385,13,0.000000,25.985361,0.208781,99,99,0,0,0,0,1
6,69999,5,60000,79,10000,0,9999,0.100000,99,0,0.115124,13,0.000000,25.388023,0.834357,99,99,0,0,0,0,1
6,69999,6,60000,38,20000,40,9999,0.100000,99,0,0.000000,13,1.000000,34.530843,1.519801,99,99,0,0,0,0,0
6,69999,7,60000,59,20000,40,9999,0.100000,99,0,0.000000,13,0.000000,27.986646,5.665025,99,99,0,0,0,0,0
6,69999,8,60000,94,0,40,9999,0.100000,99,0,0.000000,13,3.000000,30.701821,12.031622,99,99,0,0,0,0,0
6,69999,9,60000,38,20000,40,9999,0.100000,99,0,0.000000,13,0.000000,19.157751,0.756845,99,99,0,0,0,0,0
6,69999,10,60000,37,10000,40,9999,0.100000,99,0,0.000000,13,0.000000,31.881474,0.299611,99,99,0,0,0,0,0
6,69999,11,60000,37,10000,40,9999,0.100000,99,0,0.000000,14,0.000000,23.226326,1.010451,99,99,0,0,0,0,0
6,69999,12,60000,91,40000,40,9999,0.100000,99,0,0.000000,13,2.000000,32.733292,6.546766,99,99,0,0,0,0,0
6,69999,13,60000,59,20000,40,9999,0.100000,99,0,0.000000,13,0.000000,20.318889,0.728629,99,99,0,0,0,0,0
6,69999,14,60000,38,20000,0,9999,0.100000,99,0,0.414870,13,0.000000,21.658075,1.600250,99,99,0,0,0,1,0
6,69999,15,60000,94,0,0,9999,0.100000,99,0,0.612077,14,1.000000,29.791198,3.491199,99,99,0,0,0,1,0
6,69999,16,60000,56,10000,0,9999,0.100000,99,0,0.351016,13,0.000000,26.337934,1.636265,99,99,0,0,0,0,1
6,69999,17,60000,31,10000,40,9999,0.100000,99,0,0.000000,13,0.000000,26.303780,1.176225,99,99,0,0,0,0,0
6,69999,18,60000,56,10000,0,9999,0.100000,99,0,0.036452,13,0.000000,31.956833,0.176572,99,99,0,0,1,0,0
6,69999,19,60000,87,20000,40,9999,0.100000,99,0,0.000000,13,0.000000,25.784902,0.201458,99,99,0,0,0,0,0
6,69999,20,60000,79,10000,40,9999,0.100000,99,0,0.000000,13,0.000000,26.339296,0.639925,99,99,0,0,0,0,0
6,69999,21,60000,57,0,0,9999,0.100000,99,0,0.534697,13,0.000000,29.601903,0.601498,99,99,0,0,1,0,0
6,69999,22,60000,87,20000,40,9999,0.100000,99,0,0.000000,13,0.000000,28.576672,6.493863,99,99,0,0,0,0,0
6,69999,23,60000,94,0,40,9999,0.100000,99,0,0.000000,14,0.000000,28.547807,19.869671,99,99,0,0,0,0,0
6,69999,24,60000,48,10000,40,9999,0.100000,99,0,0.000000,13,0.000000,30.136277,7.865499,99,99,0,0,0,0,0
6,69999,25,60000,79,10000,40,9999,0.100000,99,0,0.000000,13,0.000000,26.278834,0.245824,99,99,0,0,0,0,0
6,69999,26,60000,48,10000,40,9999,0.100000,99,0,0.000000,13,0.000000,30.042469,0.204654,99,99,0,0,0,0,0
6,69999,27,60000,91,40000,40,9999,0.100000,99,0,0.000000,14,0.000000,27.574954,0.680912,99,99,0,0,0,0,0
6,69999,28,60000,57,0,0,9999,0.100000,99,0,0.003154,13,0.000000,23.558352,0.103396,99,99,0,0,0,1,0
6,69999,29,60000,37,10000,0,9999,0.100000,99,0,0.004047,14,0.000000,34.751677,8.737593,99,99,0,0,1,0,0
6,69999,30,60000,88,20000,40,9999,0.100000,99,0,0.000000,13,0.000000,23.697677,1.035700,99,99,0,0,0,0,0
6,69999,31,60000,94,0,40,9999,0.100000,99,0,0.000000,13,1.000000,35.464598,2.257410,99,99,0,0,0,0,0
6,69999,32,60000,48,10000,40,9999,0.100000,99,0,0.000000,13,0.000000,26.285650,1.724707,99,99,0,0,0,0,0
6,69999,33,60000,88,20000,40,9999,0.100000,99,0,0.000000,14,0.000000,28.731039,0.243489,99,99,0,0,0,0,0
6,69999,34,60000,91,40000,0,9999,0.100000,99,0,0.549143,13,0.000000,35.979812,1.724655,99,99,0,1,0,0,0
6,69999,35,60000,38,20000,40,9999,0.100000,99,0,0.000000,13,0.000000,25.649626,0.232129,99,99,0,0,0,0,0
6,69999,36,60000,38,20000,0,9999,0.100000,99,0,0.485376,13,0.000000,20.870773,0.236729,99,99,0,0,1,0,0
6,69999,37,60000,19,0,40,9999,0.100000,99,0,0.000000,13,1.000000,26.643947,6.554869,99,99,0,0,0,0,0
6,69999,38,60000,31,10000,0,9999,0.100000,99,0,0.095141,13,1.000000,31.087714,9.273222,99,99,0,0,0,0,1
6,69999,39,60000,57,0,0,9999,0.100000,99,0,0.064097,13,1.000000,16.813388,3.285615,99,99,0,0,0,0,1
6,69999,40,60000,56,10000,40,9999,0.100000,99,0,0.000000,13,0.000000,32.069123,1.387297,99,99,0,0,0,0,0
6,69999,41,60000,79,10000,40,9999,0.100000,99,0,0.000000,13,0.000000,25.490422,0.715602,99,99,0,0,0,0,0
6,69999,42,60000,56,10000,40,9999,0.100000,99,0,0.000000,13,0.000000,30.126957,1.007571,99,99,0,0,0,0,0
6,69999,43,60000,87,20000,41,9999,0.100000,99,0,0.000000,13,4.000000,26.307740,6.399796,99,99,0,0,0,0,0
6,69999,44,60000,48,10000,40,9999,0.100000,99,0,0.000000,13,0.000000,20.277573,0.595562,99,99,0,0,0,0,0
6,69999,45,60000,94,0,40,9999,0.100000,99,0,0.000000,13,0.000000,26.108890,0.344125,99,99,0,0,0,0,0
6,69999,46,60000,59,20000,40,9999,0.100000,99,0,0.000000,13,0.000000,31.158246,0.357846,99,99,0,0,0,0,0
6,69999,47,60000,37,10000,40,9999,0.100000,99,0,0.000000,13,0.000000,22.413500,11.805144,99,99,0,0,0,0,0
6,69999,48,60000,19,0,40,9999,0.100000,99,0,0.000000,13,1.000000,15.901651,2.212432,99,99,0,0,0,0,0
6,69999,49,60000,59,20000,40,9999,0.100000,99,0,0.000000,13,0.000000,31.573175,2.311674,99,99,0,0,0,0,0
6,69999,50,60000,91,40000,0,9999,0.100000,99,0,0.004893,13,0.000000,16.468182,0.103071,99,99,0,0,0,1,0
6,69999,51,60000,57,0,40,9999,0.100000,99,0,0.000000,14,0.000000,22.788491,0.107766,99,99,0,0,0,0,0
6,69999,52,60000,87,20000,40,9999,0.100000,99,0,0.000000,13,0.000000,19.014686,0.338779,99,99,0,0,0,0,0
6,69999,53,60000,87,20000,41,9999,0.100000,99,0,0.000000,13,4.000000,29.110344,7.583305,99,99,0,0,0,0,0
6,69999,54,60000,57,0,40,9999,0.100000,99,0,0.000000,13,0.000000,31.378620,0.181820,99,99,0,0,0,0,0
6,69999,55,60000,94,0,0,9999,0.100000,99,0,0.001816,13,2.000000,19.593795,6.033576,99,99,0,0,0,0,1
6,69999,56,60000,79,10000,0,9999,0.100000,99,0,0.076612,13,0.000000,25.882976,0.138469,99,99,0,0,0,0,1
6,69999,57,60000,88,20000,40,9999,0.100000,99,0,0.000000,13,0.000000,26.026768,0.931251,99,99,0,0,0,0,0
6,69999,58,60000,79,10000,40,9999,0.100000,99,0,0.000000,13,0.000000,35.780741,1.863609,99,99,0,0,0,0,0
6,69999,59,60000,87,20000,0,9999,0.100000,99,0,0.020272,13,0.000000,16.468291,0.106932,99,99,0,0,0,0,1
6,69999,60,60000,37,10000,40,9999,0.100000,99,0,0.000000,13,1.000000,33.043318,5.209489,99,99,0,0,0,0,0
6,69999,61,60000,91,40000,40,9999,0.100000,99,0,0.000000,13,1.000000,30.600170,6.988373,99,99,0,0,0,0,0
6,69999,62,60000,37,10000,40,9999,0.100000,99,0,0.000000,13,0.000000,26.525962,0.171084,99,99,0,0,0,0,0
6,69999,63,60000,94,0,40,9999,0.100000,99,0,0.000000,13,0.000000,26.627982,20.820629,99,99,0,0,0,0,0
6,69999,64,60000,56,10000,40,9999,0.100000,99,0,0.000000,13,0.000000,31.374033,0.973492,99,99,0,0,0,0,0
6,69999,65,60000,37,10000,40,9999,0.100000,99,0,0.000000,13,0.000000,24.833180,0.496356,99,99,0,0,0,0,0
6,69999,66,60000,72,50000,40,9999,0.100000,99,0,0.000000,14,0.000000,28.669166,0.645011,99,99,0,0,0,0,0
6,69999,67,60000,87,20000,40,9999,0.100000,99,0,0.000000,13,0.000000,26.292523,0.349129,99,99,0,0,0,0,0
6,69999,68,60000,59,20000,40,9999,0.100000,99,0,0.000000,13,0.000000,27.336117,0.349834,99,99,0,0,0,0,0
6,69999,69,60000,87,20000,40,9999,0.100000,99,0,0.000000,13,0.000000,21.877240,1.768247,99,99,0,0,0,0,0
6,69999,70,60000,31,10000,40,9999,0.100000,99,0,0.000000,13,0.000000,29.806780,3.058695,99,99,0,0,0,0,0
6,69999,71,60000,48,10000,40,9999,0.100000,99,0,0.000000,14,0.000000,29.865785,0.778682,99,99,0,0,0,0,0
6,69999,72,60000,94,0,40,9999,0.100000,99,0,0.000000,14,0.000000,26.249557,5.317863,99,99,0,0,0,0,0
6,69999,73,60000,79,10000,40,9999,0.100000,99,0,0.000000,13,0.000000,29.793274,3.635309,99,99,0,0,0,0,0
6,69999,74,60000,37,10000,0,9999,0.100000,99,0,0.578484,13,0.000000,24.920921,0.211012,99,99,0,0,0,1,0
6,69999,75,60000,59,20000,40,9999,0.100000,99,0,0.000000,13,0.000000,31.215551,0.116030,99,99,0,0,0,0,0
6,69999,76,60000,88,20000,0,9999,0.100000,99,0,3.579239,14,0.000000,26.183459,1.002341,99,99,0,0,1,0,0
6,69999,77,60000,56,10000,40,9999,0.100000,99,0,0.000000,13,0.000000,26.794889,0.929295,99,99,0,0,0,0,0
6,69999,78,60000,31,10000,40,9999,0.100000,99,0,0.000000,14,0.000000,30.307689,0.947552,99,99,0,0,0,0,0
6,69999,79,60000,48,10000,40,9999,0.100000,99,0,0.000000,13,0.000000,16.376376,0.239492,99,99,0,0,0,0,0
6,69999,80,60000,94,0,40,9999,0.100000,99,0,0.000000,13,3.000000,30.422382,7.315078,99,99,0,0,0,0,0
6,69999,81,60000,19,0,40,9999,0.100000,99,0,0.000000,13,0.000000,34.264864,0.502294,99,99,0,0,0,0,0
6,69999,82,60000,37,10000,40,9999,0.100000,99,0,0.000000,14,0.000000,25.905339,1.037403,99,99,0,0,0,0,0
6,69999,83,60000,57,0,0,9999,0.100000,99,0,0.743172,13,0.000000,28.972926,0.611242,99,99,0,1,0,0,0
6,69999,84,60000,57,0,1,9999,0.100000,99,0,0.044082,14,3.000000,23.788804,6.665036,99,99,0,1,0,0,0
6,69999,85,60000,88,20000,41,9999,0.100000,99,0,0.000000,13,3.000000,23.512537,12.137236,99,99,0,0,0,0,0
6,69999,86,60000,79,10000,40,9999,0.100000,99,0,0.000000,13,0.000000,28.524535,1.189852,99,99,0,0,0,0,0
6,69999,87,60000,87,20000,40,9999,0.100000,99,0,0.000000,13,0.000000,34.201249,0.568752,99,99,0,0,0,0,0
6,69999,88,60000,59,20000,42,9999,0.100000,99,0,0.000000,14,8.000000,26.177516,20.031307,99,99,0,0,0,0,0
6,69999,89,60000,91,40000,40,9999,0.100000,99,0,0.000000,13,0.000000,34.737816,0.527979,99,99,0,0,0,0,0
6,69999,90,60000,88,20000,40,9999,0.100000,99,0,0.000000,13,0.000000,25.651687,1.065422,99,99,0,0,0,0,0
6,69999,91,60000,79,10000,40,9999,0.100000,99,0,0.000000,13,0.000000,21.159058,7.923909,99,99,0,0,0,0,0
6,69999,92,60000,87,20000,40,9999,0.100000,99,0,0.000000,13,0.000000,26.684022,0.314558,99,99,0,0,0,0,0
6,69999,93,60000,56,10000,40,9999,0.100000,99,0,0.000000,13,1.000000,21.940408,10.303627,99,99,0,0,0,0,0
6,69999,94,60000,31,10000,40,9999,0.100000,99,0,0.000000,13,0.000000,29.146587,0.426015,99,99,0,0,0,0,0
6,69999,95,60000,31,10000,40,9999,0.100000,99,0,0.000000,13,0.000000,21.435047,1.095514,99,99,0,0,0,0,0
6,69999,96,60000,94,0,40,9999,0.100000,99,0,0.000000,14,0.000000,25.689964,0.171643,99,99,0,0,0,0,0
6,69999,97,60000,19,0,40,9999,0.100000,99,0,0.000000,13,0.000000,32.553736,20.862669,99,99,0,0,0,0,0
6,69999,98,60000,91,40000,40,9999,0.100000,99,0,0.000000,13,0.000000,30.072401,0.131075,99,99,0,0,0,0,0
6,69999,99,60000,57,0,0,9999,0.100000,99,0,1.120289,13,0.000000,19.740304,0.282372,99,99,0,0,0,1,0
7,79999,0,70000,88,20000,0,9999,0.100000,99,0,0.000827,14,0.000000,14.059766,0.193623,99,99,0,0,1,0,0
7,79999,1,70000,88,20000,0,9999,0.100000,99,0,0.018506,14,0.000000,29.278879,0.182790,99,99,0,0,0,1,0
7,79999,2,70000,87,20000,0,9999,0.100000,99,0,0.048101,14,0.000000,28.846537,0.363926,99,99,0,0,0,1,0
7,79999,3,70000,48,10000,40,9999,0.100000,99,0,0.000000,14,0.000000,18.688455,1.758714,99,99,0,0,0,0,0
7,79999,4,70000,31,10000,0,9999,0.100000,99,0,0.217718,14,0.000000,25.844456,0.233504,99,99,0,0,0,0,1
7,79999,5,70000,37,10000,40,9999,0.100000,99,0,0.000000,14,1.000000,25.288336,5.830886,99,99,0,0,0,0,0
7,79999,6,70000,94,0,41,9999,0.100000,99,0,0.000000,14,4.000000,35.155218,7.496173,99,99,0,0,0,0,0
7,79999,7,70000,94,0,41,9999,0.100000,99,0,0.000000,14,3.000000,27.751221,9.549107,99,99,0,0,0,0,0
7,79999,8,70000,87,20000,42,9999,0.100000,99,0,0.000000,14,9.000000,28.701530,11.705774,99,99,0,0,0,0,0
7,79999,9,70000,87,20000,40,9999,0.100000,99,0,0.000000,14,0.000000,18.824603,1.120535,99,99,0,0,0,0,0
7,79999,10,70000,48,10000,40,9999,0.100000,99,0,0.000000,14,0.000000,31.827056,0.360514,99,99,0,0,0,0,0
7,79999,11,70000,31,10000,40,9999,0.100000,99,0,0.000000,14,0.000000,22.458665,0.983078,99,99,0,0,0,0,0
7,79999,12,70000,87,20000,40,9999,0.100000,99,0,0.000000,14,0.000000,32.061354,6.837213,99,99,0,0,0,0,0
7,79999,13,70000,48,10000,40,9999,0.100000,99,0,0.000000,14,0.000000,20.274737,4.436191,99,99,0,0,0,0,0
7,79999,14,70000,79,10000,0,9999,0.100000,99,0,0.092323,14,0.000000,21.464167,0.708234,99,99,0,0,0,1,0
7,79999,15,70000,56,10000,0,9999,0.100000,99,0,1.067813,14,0.000000,29.907729,0.446885,99,99,0,0,0,1,0
7,79999,16,70000,48,10000,0,9999,0.100000,99,0,0.091396,14,0.000000,26.419299,1.515482,99,99,0,0,0,0,1
7,79999,17,70000,87,20000,40,9999,0.100000,99,0,0.000000,14,0.000000,26.198256,0.308253,99,99,0,0,0,0,0
7,79999,18,70000,57,0,0,9999,0.100000,99,0,0.439874,14,0.000000,31.945447,0.405784,99,99,0,0,1,0,0
7,79999,19,70000,48,10000,40,9999,0.100000,99,0,0.000000,14,0.000000,25.640027,0.233914,99,99,0,0,0,0,0
7,79999,20,70000,19,0,40,9999,0.100000,99,0,0.000000,14,0.000000,26.377710,0.660900,99,99,0,0,0,0,0
7,79999,21,70000,37,10000,0,9999,0.100000,99,0,1.434809,14,0.000000,29.553719,0.518376,99,99,0,0,1,0,0
7,79999,22,70000,38,20000,40,9999,0.100000,99,0,0.000000,14,0.000000,28.535101,8.061975,99,99,0,0,0,0,0
7,79999,23,70000,91,40000,40,9999,0.100000,99,0,0.000000,14,0.000000,28.620904,10.751362,99,99,0,0,0,0,0
7,79999,24,70000,88,20000,40,9999,0.100000,99,0,0.000000,14,1.000000,30.094303,11.908145,99,99,0,0,0,0,0
7,79999,25,70000,59,20000,40,9999,0.100000,99,0,0.000000,14,0.000000,26.353050,0.167577,99,99,0,0,0,0,0
7,79999,26,70000,72,50000,40,9999,0.100000,99,0,0.000000,14,0.000000,30.138412,5.612588,99,99,0,0,0,0,0
7,79999,27,70000,59,20000,40,9999,0.100000,99,0,0.000000,14,0.000000,27.305473,0.686029,99,99,0,0,0,0,0
7,79999,28,70000,79,10000,0,9999,0.100000,99,0,0.001854,14,0.000000,23.557841,0.103306,99,99,0,0,0,1,0
7,79999,29,70000,87,20000,0,9999,0.100000,99,0,0.464911,14,0.000000,35.253278,0.601437,99,99,0,0,1,0,0
7,79999,30,70000,38,20000,40,9999,0.100000,99,0,0.000000,14,0.000000,22.914762,0.969787,99,99,0,0,0,0,0
7,79999,31,70000,94,0,40,9999,0.100000,99,0,0.000000,14,0.000000,35.039543,0.354916,99,99,0,0,0,0,0
7,79999,32,70000,31,10000,40,9999,0.100000,99,0,0.000000,14,0.000000,26.144699,1.966023,99,99,0,0,0,0,0
7,79999,33,70000,38,20000,40,9999,0.100000,99,0,0.000000,14,0.000000,28.801181,0.356794,99,99,0,0,0,0,0
7,79999,34,70000,72,50000,0,9999,0.100000,99,0,0.528553,14,0.000000,35.908425,0.942750,99,99,0,1,0,0,0
7,79999,35,70000,57,0,0,9999,0.100000,99,0,0.815722,14,0.000000,25.556584,0.317058,99,99,0,0,0,0,1
7,79999,36,70000,19,0,0,9999,0.100000,99,0,0.049383,14,0.000000,20.804721,0.334716,99,99,0,0,1,0,0
7,79999,37,70000,57,0,41,9999,0.100000,99,0,0.000000,14,3.000000,27.339366,9.001727,99,99,0,0,0,0,0
7,79999,38,70000,19,0,40,9999,0.100000,99,0,0.000000,14,0.000000,31.633943,0.158866,99,99,0,0,0,0,0
7,79999,39,70000,59,20000,0,9999,0.100000,99,0,0.138645,14,0.000000,16.779870,1.720634,99,99,0,0,0,0,1
7,79999,40,70000,57,0,40,9999,0.100000,99,0,0.000000,14,0.000000,31.940396,0.566000,99,99,0,0,0,0,0
7,79999,41,70000,38,20000,40,9999,0.100000,99,0,0.000000,14,0.000000,25.044513,0.988800,99,99,0,0,0,0,0
7,79999,42,70000,79,10000,40,9999,0.100000,99,0,0.000000,14,0.000000,30.020810,2.949828,99,99,0,0,0,0,0
7,79999,43,70000,38,20000,41,9999,0.100000,99,0,0.000000,14,4.000000,30.403803,19.515304,99,99,0,0,0,0,0
7,79999,44,70000,87,20000,40,9999,0.100000,99,0,0.000000,14,0.000000,20.237134,1.092160,99,99,0,0,0,0,0
7,79999,45,70000,48,10000,40,9999,0.100000,99,0,0.000000,14,0.000000,26.122235,0.228948,99,99,0,0,0,0,0
7,79999,46,70000,37,10000,40,9999,0.100000,99,0,0.000000,14,0.000000,31.203471,0.286409,99,99,0,0,0,0,0
7,79999,47,70000,87,20000,40,9999,0.100000,99,0,0.000000,14,0.000000,21.833380,3.807205,99,99,0,0,0,0,0
7,79999,48,70000,94,0,42,9999,0.100000,99,0,0.000000,14,4.000000,15.072852,5.223870,99,99,0,0,0,0,0
7,79999,49,70000,57,0,0,9999,0.100000,99,0,0.206644,14,0.000000,31.472084,0.136894,99,99,0,0,0,0,1
7,79999,50,70000,48,10000,0,9999,0.100000,99,0,0.005448,14,0.000000,16.468746,0.103817,99,99,0,0,0,1,0
7,79999,51,70000,87,20000,40,9999,0.100000,99,0,0.000000,14,0.000000,22.788208,0.107774,99,99,0,0,0,0,0
7,79999,52,70000,56,10000,40,9999,0.100000,99,0,0.000000,14,0.000000,19.045663,0.339712,99,99,0,0,0,0,0
7,79999,53,70000,31,10000,40,9999,0.100000,99,0,0.000000,14,1.000000,25.151524,5.120967,99,99,0,0,0,0,0
7,79999,54,70000,38,20000,40,9999,0.100000,99,0,0.000000,14,0.000000,31.326304,0.132309,99,99,0,0,0,0,0
7,79999,55,70000,57,0,0,9999,0.100000,99,0,0.001369,14,0.000000,19.593375,0.066452,99,99,0,0,0,0,1
7,79999,56,70000,48,10000,0,9999,0.100000,99,0,0.079937,14,0.000000,25.911730,0.076686,99,99,0,0,0,0,1
7,79999,57,70000,88,20000,40,9999,0.100000,99,0,0.000000,14,0.000000,26.048725,1.143337,99,99,0,0,0,0,0
7,79999,58,70000,31,10000,40,9999,0.100000,99,0,0.000000,14,0.000000,35.710734,0.977933,99,99,0,0,0,0,0
7,79999,59,70000,88,20000,0,9999,0.100000,99,0,0.030332,14,0.000000,16.394187,0.096107,99,99,0,0,0,0,1
7,79999,60,70000,31,10000,40,9999,0.100000,99,0,0.000000,14,1.000000,31.955892,14.796693,99,99,0,0,0,0,0
7,79999,61,70000,48,10000,40,9999,0.100000,99,0,0.000000,14,0.000000,30.658532,7.251521,99,99,0,0,0,0,0
7,79999,62,70000,31,10000,40,9999,0.100000,99,0,0.000000,14,0.000000,26.585208,0.119906,99,99,0,0,0,0,0
7,79999,63,70000,57,0,40,9999,0.100000,99,0,0.000000,14,0.000000,26.812789,16.957009,99,99,0,0,0,0,0
7,79999,64,70000,56,10000,40,9999,0.100000,99,0,0.000000,14,0.000000,31.655383,0.932511,99,99,0,0,0,0,0
7,79999,65,70000,59,20000,40,9999,0.100000,99,0,0.000000,14,0.000000,24.883730,0.488529,99,99,0,0,0,0,0
7,79999,66,70000,56,10000,40,9999,0.100000,99,0,0.000000,14,0.000000,28.727875,1.219754,99,99,0,0,0,0,0
7,79999,67,70000,79,10000,40,9999,0.100000,99,0,0.000000,14,0.000000,26.324870,0.303055,99,99,0,0,0,0,0
7,79999,68,70000,91,40000,40,9999,0.100000,99,0,0.000000,14,0.000000,27.302320,0.273565,99,99,0,0,0,0,0
7,79999,69,70000,79,10000,40,9999,0.100000,99,0,0.000000,14,1.000000,21.704070,5.172527,99,99,0,0,0,0,0
7,79999,70,70000,38,20000,40,9999,0.100000,99,0,0.000000,14,0.000000,29.804978,1.618161,99,99,0,0,0,0,0
7,79999,71,70000,31,10000,40,9999,0.100000,99,0,0.000000,14,0.000000,29.788377,0.560322,99,99,0,0,0,0,0
7,79999,72,70000,38,20000,40,9999,0.100000,99,0,0.000000,14,0.000000,26.332141,4.163771,99,99,0,0,0,0,0
7,79999,73,70000,87,20000,40,9999,0.100000,99,0,0.000000,14,0.000000,29.793060,1.362183,99,99,0,0,0,0,0
7,79999,74,70000,57,0,0,9999,0.100000,99,0,0.116252,14,0.000000,24.998110,0.152467,99,99,0,0,0,1,0
7,79999,75,70000,37,10000,40,9999,0.100000,99,0,0.000000,14,0.000000,31.162875,0.113850,99,99,0,0,0,0,0
7,79999,76,70000,72,50000,0,9999,0.100000,99,0,0.146537,14,0.000000,26.706185,0.348045,99,99,0,0,1,0,0
7,79999,77,70000,37,10000,40,9999,0.100000,99,0,0.000000,14,0.000000,26.658437,0.760842,99,99,0,0,0,0,0
7,79999,78,70000,57,0,40,9999,0.100000,99,0,0.000000,14,2.000000,30.375508,19.441249,99,99,0,0,0,0,0
7,79999,79,70000,79,10000,40,9999,0.100000,99,0,0.000000,14,0.000000,16.297131,0.231954,99,99,0,0,0,0,0
7,79999,80,70000,91,40000,42,9999,0.100000,99,0,0.000000,14,8.000000,28.801381,29.606635,99,99,0,0,0,0,0
7,79999,81,70000,37,10000,40,9999,0.100000,99,0,0.000000,14,0.000000,34.133850,0.507797,99,99,0,0,0,0,0
7,79999,82,70000,57,0,40,9999,0.100000,99,0,0.000000,14,0.000000,26.429366,0.397188,99,99,0,0,0,0,0
7,79999,83,70000,72,50000,0,9999,0.100000,99,0,1.022452,14,0.000000,29.053530,0.693789,99,99,0,1,0,0,0
7,79999,84,70000,37,10000,1,9999,0.100000,99,0,0.038197,14,3.000000,23.783421,6.666525,99,99,0,1,0,0,0
7,79999,85,70000,57,0,41,9999,0.100000,99,0,0.000000,14,3.000000,24.931392,10.487587,99,99,0,0,0,0,0
7,79999,86,70000,88,20000,40,9999,0.100000,99,0,0.000000,14,0.000000,28.578955,6.194159,99,99,0,0,0,0,0
7,79999,87,70000,37,10000,40,9999,0.100000,99,0,0.000000,14,0.000000,34.071593,0.557333,99,99,0,0,0,0,0
7,79999,88,70000,88,20000,41,9999,0.100000,99,0,0.000000,14,3.000000,27.771261,9.219454,99,99,0,0,0,0,0
7,79999,89,70000,87,20000,40,9999,0.100000,99,0,0.000000,14,0.000000,34.557501,0.586713,99,99,0,0,0,0,0
7,79999,90,70000,31,10000,40,9999,0.100000,99,0,0.000000,14,0.000000,26.176333,0.464212,99,99,0,0,0,0,0
7,79999,91,70000,59,20000,40,9999,0.100000,99,0,0.000000,14,0.000000,20.960302,1.057765,99,99,0,0,0,0,0
7,79999,92,70000,88,20000,40,9999,0.100000,99,0,0.000000,14,0.000000,26.550716,0.353147,99,99,0,0,0,0,0
7,79999,93,70000,38,20000,0,9999,0.100000,99,0,0.135667,14,0.000000,21.083709,3.087911,99,99,0,0,0,0,1
7,79999,94,70000,87,20000,40,9999,0.100000,99,0,0.000000,14,0.000000,29.224371,0.591371,99,99,0,0,0,0,0
7,79999,95,70000,56,10000,40,9999,0.100000,99,0,0.000000,14,0.000000,21.226588,0.775318,99,99,0,0,0,0,0
7,79999,96,70000,57,0,40,9999,0.100000,99,0,0.000000,14,0.000000,25.708459,0.111643,99,99,0,0,0,0,0
7,79999,97,70000,59,20000,40,9999,0.100000,99,0,0.000000,14,0.000000,32.136556,21.639456,99,99,0,0,0,0,0
7,79999,98,70000,19,0,40,9999,0.100000,99,0,0.000000,14,0.000000,30.072198,0.132822,99,99,0,0,0,0,0
7,79999,99,70000,31,10000,0,9999,0.100000,99,0,1.093869,14,0.000000,19.787883,0.282364,99,99,0,0,0,1,0
8,89999,0,80000,31,10000,0,9999,0.100000,99,0,0.004705,14,0.000000,14.058458,0.199702,99,99,0,0,1,0,0
8,89999,1,80000,88,20000,0,9999,0.100000,99,0,0.016892,14,0.000000,29.281835,0.184214,99,99,0,0,0,1,0
8,89999,2,80000,91,40000,1,9999,0.100000,99,0,24.885170,14,5.000000,29.017402,9.554836,99,99,0,0,0,1,0
8,89999,3,80000,56,10000,40,9999,0.100000,99,0,0.000000,14,0.000000,18.404142,1.359835,99,99,0,0,0,0,0
8,89999,4,80000,56,10000,1,9999,0.100000,99,0,0.834306,14,5.000000,25.681098,5.555157,99,99,0,0,0,0,1
8,89999,5,80000,56,10000,40,9999,0.100000,99,0,0.000000,14,0.000000,25.481967,0.705549,99,99,0,0,0,0,0
8,89999,6,80000,91,40000,42,9999,0.100000,99,0,0.000000,14,8.000000,37.260602,21.659577,99,99,0,0,0,0,0
8,89999,7,80000,37,10000,40,9999,0.100000,99,0,0.000000,14,0.000000,24.451872,12.007526,99,99,0,0,0,0,0
8,89999,8,80000,37,10000,40,9999,0.100000,99,0,0.000000,14,0.000000,30.670837,0.136152,99,99,0,0,0,0,0
8,89999,9,80000,37,10000,40,9999,0.100000,99,0,0.000000,14,0.000000,18.496129,0.744195,99,99,0,0,0,0,0
8,89999,10,80000,31,10000,40,9999,0.100000,99,0,0.000000,14,0.000000,31.784845,1.177484,99,99,0,0,0,0,0
8,89999,11,80000,48,10000,40,9999,0.100000,99,0,0.000000,14,0.000000,21.711824,0.948751,99,99,0,0,0,0,0
8,89999,12,80000,94,0,42,9999,0.100000,99,0,0.026241,14,7.000000,31.110680,7.732751,99,99,0,0,0,0,0
8,89999,13,80000,87,20000,0,9999,0.100000,99,0,0.142526,14,0.000000,20.071865,0.642364,99,99,0,0,0,0,1
8,89999,14,80000,59,20000,0,9999,0.100000,99,0,0.076250,14,0.000000,21.298214,0.457986,99,99,0,0,0,1,0
8,89999,15,80000,37,10000,40,9999,0.100000,99,0,0.000000,14,0.000000,30.125462,10.427086,99,99,0,0,0,0,0
8,89999,16,80000,94,0,0,9999,0.100000,99,0,1.049415,14,0.000000,26.445477,1.510783,99,99,0,0,0,0,1
8,89999,17,80000,38,20000,40,9999,0.100000,99,0,0.000000,14,0.000000,26.086219,0.356582,99,99,0,0,0,0,0
8,89999,18,80000,88,20000,0,9999,0.100000,99,0,0.730456,14,0.000000,31.709814,0.340890,99,99,0,0,1,0,0
8,89999,19,80000,19,0,41,9999,0.100000,99,0,0.000000,14,5.000000,25.470458,5.457272,99,99,0,0,0,0,0
8,89999,20,80000,79,10000,40,9999,0.100000,99,0,0.000000,14,0.000000,26.419271,0.633808,99,99,0,0,0,0,0
8,89999,21,80000,72,50000,0,9999,0.100000,99,0,1.529307,14,0.000000,29.135039,0.472119,99,99,0,0,1,0,0
8,89999,22,80000,91,40000,40,9999,0.100000,99,0,0.000000,14,1.000000,28.123200,14.290791,99,99,0,0,0,0,0
8,89999,23,80000,94,0,40,9999,0.100000,99,0,0.000000,14,1.000000,28.741717,5.892894,99,99,0,0,0,0,0
8,89999,24,80000,91,40000,40,9999,0.100000,99,0,0.000000,14,0.000000,29.651023,6.875253,99,99,0,0,0,0,0
8,89999,25,80000,72,50000,40,9999,0.100000,99,0,0.000000,14,0.000000,26.381487,0.306311,99,99,0,0,0,0,0
8,89999,26,80000,31,10000,40,9999,0.100000,99,0,0.000000,14,2.000000,30.697120,6.116857,99,99,0,0,0,0,0
8,89999,27,80000,31,10000,40,9999,0.100000,99,0,0.000000,14,0.000000,27.013678,0.678301,99,99,0,0,0,0,0
8,89999,28,80000,59,20000,0,9999,0.100000,99,0,0.003032,14,0.000000,23.557273,0.100633,99,99,0,0,0,1,0
8,89999,29,80000,59,20000,0,9999,0.100000,99,0,0.460101,14,0.000000,35.249711,0.228423,99,99,0,0,1,0,0
8,89999,30,80000,94,0,40,9999,0.100000,99,0,0.000000,14,0.000000,22.174774,0.983041,99,99,0,0,0,0,0
8,89999,31,80000,37,10000,40,9999,0.100000,99,0,0.000000,14,0.000000,35.108847,0.251167,99,99,0,0,0,0,0
8,89999,32,80000,19,0,41,9999,0.100000,99,0,0.000000,14,5.000000,25.981788,5.717253,99,99,0,0,0,0,0
8,89999,33,80000,72,50000,1,9999,0.100000,99,0,24.885250,14,5.000000,28.958931,7.274479,99,99,0,0,0,1,0
8,89999,34,80000,79,10000,0,9999,0.100000,99,0,0.530099,14,0.000000,35.975469,0.856343,99,99,0,1,0,0,0
8,89999,35,80000,48,10000,0,9999,0.100000,99,0,0.618991,14,0.000000,25.656748,0.400558,99,99,0,0,0,0,1
8,89999,36,80000,38,20000,0,9999,0.100000,99,0,1.153658,14,0.000000,20.824145,1.419400,99,99,0,0,1,0,0
8,89999,37,80000,56,10000,40,9999,0.100000,99,0,0.000000,14,0.000000,25.477736,0.485570,99,99,0,0,0,0,0
8,89999,38,80000,88,20000,0,9999,0.100000,99,0,0.501332,14,0.000000,31.583099,0.233010,99,99,0,0,0,0,1
8,89999,39,80000,57,0,0,9999,0.100000,99,0,1.160200,14,0.000000,16.544293,0.929294,99,99,0,0,0,0,1
8,89999,40,80000,48,10000,40,9999,0.100000,99,0,0.000000,14,0.000000,31.693986,0.397625,99,99,0,0,0,0,0
8,89999,41,80000,94,0,40,9999,0.100000,99,0,0.000000,14,0.000000,24.289530,0.989625,99,99,0,0,0,0,0
8,89999,42,80000,87,20000,0,9999,0.100000,99,0,0.960475,14,0.000000,29.822096,3.895882,99,99,0,0,0,1,0
8,89999,43,80000,37,10000,40,9999,0.100000,99,0,0.000000,14,0.000000,27.071537,24.116073,99,99,0,0,0,0,0
8,89999,44,80000,57,0,40,9999,0.100000,99,0,0.000000,14,0.000000,20.271144,2.549497,99,99,0,0,0,0,0
8,89999,45,80000,72,50000,40,9999,0.100000,99,0,0.000000,14,0.000000,26.160724,0.268737,99,99,0,0,0,0,0
8,89999,46,80000,57,0,40,9999,0.100000,99,0,0.000000,14,0.000000,31.227323,0.288553,99,99,0,0,0,0,0
8,89999,47,80000,87,20000,41,9999,0.100000,99,0,0.000000,14,3.000000,21.541872,6.195359,99,99,0,0,0,0,0
8,89999,48,80000,79,10000,40,9999,0.100000,99,0,0.000000,14,0.000000,15.346103,0.402571,99,99,0,0,0,0,0
8,89999,49,80000,48,10000,40,9999,0.100000,99,0,0.000000,14,0.000000,31.415065,0.202372,99,99,0,0,0,0,0
8,89999,50,80000,37,10000,0,9999,0.100000,99,0,0.003854,14,0.000000,16.469336,0.101086,99,99,0,0,0,1,0
8,89999,51,80000,48,10000,40,9999,0.100000,99,0,0.000000,14,0.000000,22.787633,0.105475,99,99,0,0,0,0,0
8,89999,52,80000,56,10000,40,9999,0.100000,99,0,0.000000,14,0.000000,19.107065,0.480203,99,99,0,0,0,0,0
8,89999,53,80000,94,0,40,9999,0.100000,99,0,0.000000,14,0.000000,25.555917,0.404330,99,99,0,0,0,0,0
8,89999,54,80000,88,20000,40,9999,0.100000,99,0,0.000000,14,0.000000,31.264727,0.184986,99,99,0,0,0,0,0
8,89999,55,80000,88,20000,0,9999,0.100000,99,0,0.001737,14,2.000000,19.593042,6.035422,99,99,0,0,0,0,1
8,89999,56,80000,59,20000,0,9999,0.100000,99,0,0.173574,14,0.000000,25.931284,0.103880,99,99,0,0,0,0,1
8,89999,57,80000,19,0,40,9999,0.100000,99,0,0.000000,14,0.000000,26.103997,1.215633,99,99,0,0,0,0,0
8,89999,58,80000,87,20000,40,9999,0.100000,99,0,0.000000,14,0.000000,35.778909,0.910741,99,99,0,0,0,0,0
8,89999,59,80000,72,50000,4,9999,0.100000,99,0,0.027422,14,8.000000,16.342927,17.686076,99,99,0,0,0,0,1
8,89999,60,80000,57,0,40,9999,0.100000,99,0,0.000000,14,0.000000,32.228394,16.063032,99,99,0,0,0,0,0
8,89999,61,80000,31,10000,42,9999,0.100000,99,0,0.000000,14,8.000000,30.991977,28.927989,99,99,0,0,-1,0,0
8,89999,62,80000,91,40000,40,9999,0.100000,99,0,0.000000,14,0.000000,26.629799,0.150604,99,99,0,0,0,0,0
8,89999,63,80000,94,0,40,9999,0.100000,99,0,0.000000,14,0.000000,26.873724,17.140961,99,99,0,0,0,0,0
8,89999,64,80000,37,10000,40,9999,0.100000,99,0,0.000000,14,0.000000,31.951342,0.919583,99,99,0,0,0,0,0
8,89999,65,80000,91,40000,40,9999,0.100000,99,0,0.000000,14,0.000000,24.906134,0.490986,99,99,0,0,0,0,0
8,89999,66,80000,37,10000,1,9999,0.100000,99,0,24.885137,14,4.000000,28.869337,8.824095,99,99,0,0,0,1,0
8,89999,67,80000,57,0,40,9999,0.100000,99,0,0.000000,14,0.000000,26.357843,0.302625,99,99,0,0,0,0,0
8,89999,68,80000,19,0,40,9999,0.100000,99,0,0.000000,14,0.000000,27.247086,0.317725,99,99,0,0,0,0,0
8,89999,69,80000,91,40000,40,9999,0.100000,99,0,0.000000,14,0.000000,19.857508,0.612194,99,99,0,0,0,0,0
8,89999,70,80000,94,0,40,9999,0.100000,99,0,0.000000,14,0.000000,29.801497,1.217330,99,99,0,0,0,0,0
8,89999,71,80000,57,0,40,9999,0.100000,99,0,0.000000,14,3.000000,29.353703,6.837080,99,99,0,0,0,0,0
8,89999,72,80000,72,50000,40,9999,0.100000,99,0,0.000000,14,0.000000,26.360796,3.615422,99,99,0,0,0,0,0
8,89999,73,80000,94,0,40,9999,0.100000,99,0,0.000000,14,0.000000,29.698431,0.504705,99,99,0,0,0,0,0
8,89999,74,80000,57,0,1,9999,0.100000,99,0,0.107007,14,4.000000,25.019003,8.567534,99,99,0,0,0,1,0
8,89999,75,80000,79,10000,40,9999,0.100000,99,0,0.000000,14,0.000000,31.094837,0.181157,99,99,0,0,0,0,0
8,89999,76,80000,72,50000,0,9999,0.100000,99,0,1.282189,14,0.000000,26.790205,0.484049,99,99,0,0,1,0,0
8,89999,77,80000,37,10000,41,9999,0.100000,99,0,0.000000,14,5.000000,26.500905,6.112118,99,99,0,0,0,0,0
8,89999,78,80000,19,0,40,9999,0.100000,99,0,0.000000,14,0.000000,32.308054,14.685508,99,99,0,0,0,0,0
8,89999,79,80000,72,50000,40,9999,0.100000,99,0,0.000000,14,0.000000,16.238995,0.226825,99,99,0,0,0,0,0
8,89999,80,80000,38,20000,40,9999,0.100000,99,0,0.000000,14,0.000000,31.609887,0.140402,99,99,0,0,0,0,0
8,89999,81,80000,31,10000,40,9999,0.100000,99,0,0.000000,14,0.000000,34.012796,0.498279,99,99,0,0,0,0,0
8,89999,82,80000,87,20000,40,9999,0.100000,99,0,0.000000,14,0.000000,26.512791,0.555832,99,99,0,0,0,0,0
8,89999,83,80000,87,20000,40,9999,0.100000,99,0,0.000000,14,0.000000,29.274774,1.089936,99,99,0,0,0,0,0
8,89999,84,80000,88,20000,0,9999,0.100000,99,0,0.058938,14,0.000000,23.778095,0.153891,99,99,0,1,0,0,0
8,89999,85,80000,94,0,40,9999,0.100000,99,0,0.000000,14,1.000000,25.567408,8.711471,99,99,0,0,0,0,0
8,89999,86,80000,48,10000,1,9999,0.100000,99,0,24.936082,14,4.000000,28.809720,11.161797,99,99,0,0,0,1,0
8,89999,87,80000,48,10000,40,9999,0.100000,99,0,0.000000,14,0.000000,33.951989,0.556393,99,99,0,0,0,0,0
8,89999,88,80000,59,20000,41,9999,0.100000,99,0,0.000000,14,3.000000,28.431472,11.886301,99,99,0,0,0,0,0
8,89999,89,80000,38,20000,40,9999,0.100000,99,0,0.000000,14,0.000000,34.315137,1.812681,99,99,0,0,0,0,0
8,89999,90,80000,48,10000,40,9999,0.100000,99,0,0.000000,14,0.000000,26.259494,0.562241,99,99,0,0,0,0,0
8,89999,91,80000,79,10000,40,9999,0.100000,99,0,0.000000,14,0.000000,20.794410,0.477782,99,99,0,0,0,0,0
8,89999,92,80000,94,0,41,9999,0.100000,99,0,0.000000,14,5.000000,26.399175,6.003923,99,99,0,0,0,0,0
8,89999,93,80000,56,10000,40,9999,0.100000,99,0,0.000000,14,0.000000,20.503351,0.996782,99,99,0,0,0,0,0
8,89999,94,80000,19,0,0,9999,0.100000,99,0,3.388338,14,0.000000,29.436323,1.016423,99,99,0,1,0,0,0
8,89999,95,80000,19,0,40,9999,0.100000,99,0,0.000000,14,0.000000,21.104365,0.979760,99,99,0,0,0,0,0
8,89999,96,80000,79,10000,40,9999,0.100000,99,0,0.000000,14,0.000000,25.719462,0.133126,99,99,0,0,0,0,0
8,89999,97,80000,79,10000,40,9999,0.100000,99,0,0.000000,14,0.000000,31.818255,21.296417,99,99,0,0,0,0,0
8,89999,98,80000,31,10000,40,9999,0.100000,99,0,0.000000,14,0.000000,30.071995,0.133563,99,99,0,0,0,0,0
8,89999,99,80000,48,10000,40,9999,0.100000,99,0,0.000000,14,0.000000,19.859412,1.031513,99,99,0,0,0,0,0
9,99999,0,90000,88,20000,0,9999,0.100000,99,0,0.029539,14,0.000000,14.054760,0.200848,99,99,0,0,1,0,0
9,99999,1,90000,91,40000,0,9999,0.100000,99,0,0.015877,14,0.000000,29.284139,0.183740,99,99,0,0,0,1,0
9,99999,2,90000,88,20000,40,9999,0.100000,99,0,0.000000,14,2.000000,34.124454,5.598759,99,99,0,0,0,0,0
9,99999,3,90000,72,50000,40,9999,0.100000,99,0,0.000000,14,0.000000,18.230914,1.820257,99,99,0,0,0,0,0
9,99999,4,90000,37,10000,0,9999,0.100000,99,0,0.295389,14,0.000000,22.531813,0.217324,99,99,0,0,0,0,1
9,99999,5,90000,57,0,40,9999,0.100000,99,0,0.000000,14,0.000000,25.834427,0.485280,99,99,0,0,0,0,0
9,99999,6,90000,38,20000,40,9999,0.100000,99,0,0.000000,14,1.000000,29.886007,21.433104,99,99,0,0,0,0,0
9,99999,7,90000,59,20000,41,9999,0.100000,99,0,0.000000,14,3.000000,23.561834,6.093014,99,99,0,0,0,0,0
9,99999,8,90000,79,10000,40,9999,0.100000,99,0,0.000000,14,0.000000,30.670832,0.136626,99,99,0,0,0,0,0
9,99999,9,90000,38,20000,40,9999,0.100000,99,0,0.000000,14,0.000000,18.255086,1.134913,99,99,0,0,0,0,0
9,99999,10,90000,37,10000,40,9999,0.100000,99,0,0.000000,14,0.000000,31.657937,0.443250,99,99,0,0,0,0,0
9,99999,11,90000,79,10000,40,9999,0.100000,99,0,0.000000,14,0.000000,21.021151,0.872779,99,99,0,0,0,0,0
9,99999,12,90000,72,50000,0,9999,0.100000,99,0,0.060681,14,0.000000,34.715249,0.731437,99,99,0,0,1,0,0
9,99999,13,90000,87,20000,40,9999,0.100000,99,0,0.000000,14,0.000000,19.734325,0.565184,99,99,0,0,0,0,0
9,99999,14,90000,38,20000,0,9999,0.100000,99,0,0.011529,14,0.000000,21.215065,0.388096,99,99,0,0,0,1,0
9,99999,15,90000,72,50000,40,9999,0.100000,99,0,0.000000,14,0.000000,29.902882,0.806200,99,99,0,0,0,0,0
9,99999,16,90000,48,10000,40,9999,0.100000,99,0,0.000000,14,0.000000,26.576717,5.828905,99,99,0,0,0,0,0
9,99999,17,90000,88,20000,40,9999,0.100000,99,0,0.000000,14,0.000000,26.038493,0.409232,99,99,0,0,0,0,0
9,99999,18,90000,56,10000,0,9999,0.100000,99,0,1.667636,14,2.000000,31.600151,2.473908,99,99,0,0,1,0,0
9,99999,19,90000,91,40000,40,9999,0.100000,99,0,0.000000,14,0.000000,22.337500,0.158119,99,99,0,0,0,0,0
9,99999,20,90000,56,10000,40,9999,0.100000,99,0,0.000000,14,0.000000,26.492116,1.660109,99,99,0,0,0,0,0
9,99999,21,90000,38,20000,0,9999,0.100000,99,0,4.533971,14,2.000000,29.035412,5.537640,99,99,0,0,1,0,0
9,99999,22,90000,37,10000,40,9999,0.100000,99,0,0.000000,14,0.000000,28.116410,5.961714,99,99,0,0,0,0,0
9,99999,23,90000,87,20000,40,9999,0.100000,99,0,0.000000,14,2.000000,27.744303,17.159178,99,99,0,0,0,0,0
9,99999,24,90000,19,0,40,9999,0.100000,99,0,0.000000,14,1.000000,29.438903,5.294133,99,99,0,0,0,0,0
9,99999,25,90000,57,0,0,9999,0.100000,99,0,1.310488,14,0.000000,26.502747,0.697536,99,99,0,0,0,0,1
9,99999,26,90000,87,20000,40,9999,0.100000,99,0,0.000000,14,1.000000,31.957757,6.960122,99,99,0,0,0,0,0
9,99999,27,90000,59,20000,40,9999,0.100000,99,0,0.000000,14,0.000000,26.743078,0.698199,99,99,0,0,0,0,0
9,99999,28,90000,31,10000,0,9999,0.100000,99,0,0.003066,14,0.000000,23.556466,0.101131,99,99,0,0,0,1,0
9,99999,29,90000,56,10000,0,9999,0.100000,99,0,0.677556,14,0.000000,35.291506,0.370400,99,99,0,0,1,0,0
9,99999,30,90000,59,20000,40,9999,0.100000,99,0,0.000000,14,0.000000,21.426649,0.929611,99,99,0,0,0,0,0
9,99999,31,90000,59,20000,40,9999,0.100000,99,0,0.000000,14,0.000000,35.162003,0.509255,99,99,0,0,0,0,0
9,99999,32,90000,19,0,40,9999,0.100000,99,0,0.000000,14,0.000000,22.733900,0.231133,99,99,0,0,0,0,0
9,99999,33,90000,57,0,42,9999,0.100000,99,0,0.000000,14,7.000000,32.906151,12.075216,99,99,0,0,0,0,0
9,99999,34,90000,87,20000,0,9999,0.100000,99,0,0.524465,14,0.000000,36.044011,0.923497,99,99,0,1,0,0,0
9,99999,35,90000,37,10000,40,9999,0.100000,99,0,0.000000,14,0.000000,25.788428,0.203699,99,99,0,0,0,0,0
9,99999,36,90000,88,20000,0,9999,0.100000,99,0,1.796785,14,0.000000,20.549042,0.949695,99,99,0,0,1,0,0
9,99999,37,90000,88,20000,40,9999,0.100000,99,0,0.000000,14,0.000000,25.683915,0.495548,99,99,0,0,0,0,0
9,99999,38,90000,4,80000,40,9999,0.100000,99,0,0.000000,14,0.000000,31.486226,0.470281,99,99,0,0,0,0,0
9,99999,39,90000,59,20000,0,9999,0.100000,99,0,0.578926,14,0.000000,16.800211,0.746814,99,99,0,0,0,0,1
9,99999,40,90000,79,10000,40,9999,0.100000,99,0,0.000000,14,2.000000,31.580049,2.526111,99,99,0,0,0,0,0
9,99999,41,90000,57,0,40,9999,0.100000,99,0,0.000000,14,0.000000,23.552151,1.010296,99,99,0,0,0,0,0
9,99999,42,90000,37,10000,0,9999,0.100000,99,0,0.988508,14,1.000000,30.477590,2.472158,99,99,0,0,0,1,0
9,99999,43,90000,59,20000,40,9999,0.100000,99,0,0.000000,14,2.000000,27.216060,20.585391,99,99,0,0,0,0,0
9,99999,44,90000,31,10000,40,9999,0.100000,99,0,0.000000,14,0.000000,20.043032,0.565743,99,99,0,0,0,0,0
9,99999,45,90000,59,20000,40,9999,0.100000,99,0,0.000000,14,0.000000,26.235257,0.656585,99,99,0,0,0,0,0
9,99999,46,90000,38,20000,40,9999,0.100000,99,0,0.000000,14,0.000000,31.254313,0.294436,99,99,0,0,0,0,0
9,99999,47,90000,57,0,40,9999,0.100000,99,0,0.000000,14,0.000000,23.300866,0.973711,99,99,0,0,0,0,0
9,99999,48,90000,57,0,40,9999,0.100000,99,0,0.000000,14,0.000000,15.520061,0.344315,99,99,0,0,0,0,0
9,99999,49,90000,48,10000,0,9999,0.100000,99,0,0.027459,14,0.000000,31.344886,0.176035,99,99,0,0,0,0,1
9,99999,50,90000,57,0,2,9999,0.100000,99,0,0.005316,14,4.000000,16.469723,9.496637,99,99,0,0,0,1,0
9,99999,51,90000,37,10000,40,9999,0.100000,99,0,0.000000,14,0.000000,22.786746,0.105797,99,99,0,0,0,0,0
9,99999,52,90000,38,20000,40,9999,0.100000,99,0,0.000000,14,0.000000,19.048053,0.353319,99,99,0,0,0,0,0
9,99999,53,90000,87,20000,0,9999,0.100000,99,0,0.540252,14,0.000000,25.716758,0.379403,99,99,0,0,0,0,1
9,99999,54,90000,31,10000,40,9999,0.100000,99,0,0.000000,14,0.000000,31.216028,0.171473,99,99,0,0,0,0,0
9,99999,55,90000,31,10000,0,9999,0.100000,99,0,0.001681,14,0.000000,19.592690,0.065942,99,99,0,0,0,0,1
9,99999,56,90000,79,10000,40,9999,0.100000,99,0,0.000000,14,0.000000,25.982176,0.391508,99,99,0,0,0,0,0
9,99999,57,90000,72,50000,40,9999,0.100000,99,0,0.000000,14,0.000000,26.208211,2.010836,99,99,0,0,0,0,0
9,99999,58,90000,72,50000,40,9999,0.100000,99,0,0.000000,14,0.000000,35.847625,1.003791,99,99,0,0,0,0,0
9,99999,59,90000,72,50000,0,9999,0.100000,99,0,0.005962,14,0.000000,16.295107,0.091590,99,99,0,0,0,0,1
9,99999,60,90000,38,20000,40,9999,0.100000,99,0,0.000000,14,0.000000,32.302911,8.435255,99,99,0,0,0,0,0
9,99999,61,90000,4,80000,40,9999,0.100000,99,0,0.000000,14,0.000000,34.465819,0.832801,99,99,0,0,0,0,0
9,99999,62,90000,56,10000,0,9999,0.100000,99,0,0.152382,14,0.000000,26.694305,0.383392,99,99,0,0,0,0,1
9,99999,63,90000,72,50000,40,9999,0.100000,99,0,0.000000,14,0.000000,26.961545,16.500044,99,99,0,0,0,0,0
9,99999,64,90000,56,10000,40,9999,0.100000,99,0,0.000000,14,3.000000,32.254583,4.960903,99,99,0,0,0,0,0
9,99999,65,90000,88,20000,40,9999,0.100000,99,0,0.000000,14,0.000000,24.932896,0.477953,99,99,0,0,0,0,0
9,99999,66,90000,72,50000,40,9999,0.100000,99,0,0.000000,14,3.000000,31.982737,11.905782,99,99,0,0,0,0,0
9,99999,67,90000,31,10000,43,9999,0.100000,99,0,0.000000,14,10.000000,26.423693,11.145340,99,99,0,0,0,0,0
9,99999,68,90000,37,10000,42,9999,0.100000,99,0,0.000000,14,6.000000,27.239091,13.574307,99,99,0,0,0,0,0
9,99999,69,90000,38,20000,40,9999,0.100000,99,0,0.000000,14,0.000000,19.500802,0.568383,99,99,0,0,0,0,0
9,99999,70,90000,87,20000,40,9999,0.100000,99,0,0.000000,14,0.000000,29.801344,1.631285,99,99,0,0,0,0,0
9,99999,71,90000,37,10000,40,9999,0.100000,99,0,0.000000,14,1.000000,29.407684,1.900731,99,99,0,0,0,0,0
9,99999,72,90000,59,20000,40,9999,0.100000,99,0,0.000000,14,0.000000,26.496272,5.832911,99,99,0,0,0,0,0
9,99999,73,90000,91,40000,40,9999,0.100000,99,0,0.000000,14,0.000000,29.695196,2.179791,99,99,0,0,0,0,0
9,99999,74,90000,59,20000,0,9999,0.100000,99,0,0.295365,14,0.000000,25.041819,0.196986,99,99,0,0,0,1,0
9,99999,75,90000,91,40000,40,9999,0.100000,99,0,0.000000,14,0.000000,31.072982,0.163769,99,99,0,0,0,0,0
9,99999,76,90000,91,40000,0,9999,0.135000,99,0,1.465399,14,0.000000,27.067664,0.599307,99,99,0,0,1,0,0
9,99999,77,90000,4,80000,40,9999,0.100000,99,0,0.000000,14,0.000000,23.245701,2.974968,99,99,0,0,0,0,0
9,99999,78,90000,31,10000,40,9999,0.100000,99,0,0.000000,14,0.000000,31.619899,1.957895,99,99,0,0,0,0,0
9,99999,79,90000,79,10000,40,9999,0.100000,99,0,0.000000,14,0.000000,16.185141,0.216586,99,99,0,0,0,0,0
9,99999,80,90000,91,40000,40,9999,0.100000,99,0,0.000000,14,0.000000,31.609564,0.135911,99,99,0,0,0,0,0
9,99999,81,90000,57,0,40,9999,0.100000,99,0,0.000000,14,0.000000,33.898824,0.505371,99,99,0,0,0,0,0
9,99999,82,90000,72,50000,40,9999,0.100000,99,0,0.000000,14,0.000000,26.790825,0.656357,99,99,0,0,0,0,0
9,99999,83,90000,59,20000,0,9999,0.100000,99,0,9.085856,14,1.000000,29.876127,2.126618,99,99,0,1,0,0,0
9,99999,84,90000,87,20000,1,9999,0.100000,99,0,0.053230,14,3.000000,23.775885,6.690835,99,99,0,1,0,0,0
9,99999,85,90000,94,0,40,9999,0.100000,99,0,0.000000,14,0.000000,25.671332,10.038927,99,99,0,0,0,0,0
9,99999,86,90000,48,10000,40,9999,0.100000,99,0,0.000000,14,0.000000,32.734562,6.331271,99,99,0,0,0,0,0
9,99999,87,90000,38,20000,40,9999,0.100000,99,0,0.000000,14,0.000000,33.839682,0.551716,99,99,0,0,0,0,0
9,99999,88,90000,87,20000,40,9999,0.100000,99,0,0.000000,14,1.000000,27.739442,9.606632,99,99,0,0,0,0,0
9,99999,89,90000,87,20000,41,9999,0.100000,99,0,0.000000,14,4.000000,34.849865,10.925489,99,99,0,0,0,0,0
9,99999,90,90000,19,0,40,9999,0.100000,99,0,0.000000,14,0.000000,26.539907,0.614666,99,99,0,0,0,0,0
9,99999,91,90000,87,20000,40,9999,0.100000,99,0,0.000000,14,0.000000,20.723402,0.366044,99,99,0,0,0,0,0
9,99999,92,90000,48,10000,40,9999,0.100000,99,0,0.000000,14,1.000000,23.181493,11.096619,99,99,0,0,0,0,0
9,99999,93,90000,57,0,41,9999,0.100000,99,0,0.000000,14,3.000000,20.215034,12.644421,99,99,0,0,0,0,0
9,99999,94,90000,72,50000,40,9999,0.100000,99,0,0.000000,14,1.000000,30.045780,2.091266,99,99,0,0,0,0,0
9,99999,95,90000,19,0,40,9999,0.100000,99,0,0.000000,14,0.000000,21.006688,0.408894,99,99,0,0,0,0,0
9,99999,96,90000,72,50000,40,9999,0.100000,99,0,0.000000,14,0.000000,25.765527,0.207815,99,99,0,0,0,0,0
9,99999,97,90000,48,10000,40,9999,0.100000,99,0,0.000000,14,1.000000,31.746644,23.284188,99,99,0,0,0,0,0
9,99999,98,90000,37,10000,40,9999,0.100000,99,0,0.000000,14,0.000000,30.072041,0.138103,99,99,0,0,0,0,0
9,99999,99,90000,19,0,0,9999,0.100000,99,0,0.001120,14,0.000000,19.699346,1.292377,99,99,0,0,0,1,0
10,109999,0,100000,72,50000,0,9999,0.100000,99,0,0.018741,14,0.000000,14.034325,0.184015,99,99,0,0,1,0,0
10,109999,1,100000,79,10000,0,9999,0.100000,99,0,0.014713,14,0.000000,29.286017,0.179730,99,99,0,0,0,1,0
10,109999,2,100000,91,40000,40,9999,0.100000,99,0,0.000000,14,1.000000,33.493132,5.620027,99,99,0,0,0,0,0
10,109999,3,100000,57,0,40,9999,0.100000,99,0,0.000000,14,0.000000,18.030705,1.208810,99,99,0,0,0,0,0
10,109999,4,100000,56,10000,0,9999,0.100000,99,0,0.031340,14,0.000000,22.497503,0.399312,99,99,0,0,0,0,1
10,109999,5,100000,31,10000,40,9999,0.100000,99,0,0.000000,14,0.000000,26.014094,0.710727,99,99,0,0,0,0,0
10,109999,6,100000,31,10000,40,9999,0.100000,99,0,0.000000,14,1.000000,30.124716,4.151178,99,99,0,0,0,0,0
10,109999,7,100000,38,20000,40,9999,0.100000,99,0,0.000000,14,1.000000,20.219042,6.799377,99,99,0,0,0,0,0
10,109999,8,100000,79,10000,40,9999,0.100000,99,0,0.000000,14,0.000000,30.670220,0.134502,99,99,0,0,0,0,0
10,109999,9,100000,88,20000,40,9999,0.100000,99,0,0.000000,14,0.000000,18.005765,0.686364,99,99,0,0,0,0,0
10,109999,10,100000,87,20000,40,9999,0.100000,99,0,0.000000,14,0.000000,31.574246,0.413866,99,99,0,0,0,0,0
10,109999,11,100000,91,40000,40,9999,0.100000,99,0,0.000000,14,0.000000,20.420609,0.561190,99,99,0,0,0,0,0
10,109999,12,100000,87,20000,0,9999,0.100000,99,0,0.338916,14,0.000000,34.473924,0.548644,99,99,0,0,1,0,0
10,109999,13,100000,19,0,40,9999,0.100000,99,0,0.000000,14,0.000000,19.666426,0.497345,99,99,0,0,0,0,0
10,109999,14,100000,57,0,40,9999,0.100000,99,0,0.000000,14,1.000000,21.210154,8.544361,99,99,0,0,0,0,0
10,109999,15,100000,38,20000,40,9999,0.100000,99,0,0.000000,14,0.000000,29.850717,0.304216,99,99,0,0,0,0,0
10,109999,16,100000,56,10000,40,9999,0.100000,99,0,0.000000,14,0.000000,26.626626,1.088255,99,99,0,0,0,0,0
10,109999,17,100000,59,20000,40,9999,0.100000,99,0,0.000000,14,0.000000,25.999780,0.565559,99,99,0,0,0,0,0
10,109999,18,100000,31,10000,0,9999,0.100000,99,0,0.080511,14,0.000000,29.778243,2.289324,99,99,0,0,1,0,0
10,109999,19,100000,57,0,40,9999,0.100000,99,0,0.000000,14,0.000000,22.317275,0.896521,99,99,0,0,0,0,0
10,109999,20,100000,57,0,41,9999,0.100000,99,0,0.000000,14,5.000000,26.147457,9.022146,99,99,0,0,0,0,0
10,109999,21,100000,4,80000,0,9999,0.100000,99,0,6.004934,14,1.000000,29.271463,1.469353,99,99,0,0,1,0,0
10,109999,22,100000,4,80000,41,9999,0.100000,99,0,0.000000,14,3.000000,28.036767,16.643094,99,99,0,0,0,0,0
10,109999,23,100000,38,20000,40,9999,0.100000,99,0,0.000000,14,1.000000,25.334348,16.730970,99,99,0,0,0,0,0
10,109999,24,100000,79,10000,40,9999,0.100000,99,0,0.000000,14,0.000000,28.660246,3.505972,99,99,0,0,0,0,0
10,109999,25,100000,48,10000,40,9999,0.100000,99,0,0.000000,14,0.000000,26.734791,0.728796,99,99,0,0,0,0,0
10,109999,26,100000,31,10000,40,9999,0.100000,99,0,0.000000,14,0.000000,32.915526,1.417160,99,99,0,0,0,0,0
10,109999,27,100000,88,20000,40,9999,0.100000,99,0,0.000000,14,0.000000,26.437164,0.709757,99,99,0,0,0,0,0
10,109999,28,100000,38,20000,3,9999,0.100000,99,0,0.002636,14,8.000000,23.555940,17.639527,99,99,0,0,0,1,0
10,109999,29,100000,56,10000,40,9999,0.100000,99,0,0.000000,14,0.000000,35.440939,0.286279,99,99,0,0,0,0,0
10,109999,30,100000,59,20000,40,9999,0.100000,99,0,0.000000,14,0.000000,20.726045,1.240055,99,99,0,0,0,0,0
10,109999,31,100000,59,20000,0,9999,0.100000,99,0,0.086997,14,0.000000,35.287421,0.567589,99,99,0,0,1,0,0
10,109999,32,100000,4,80000,40,9999,0.100000,99,0,0.000000,14,0.000000,22.682783,0.595785,99,99,0,0,0,0,0
10,109999,33,100000,31,10000,40,9999,0.100000,99,0,0.000000,14,1.000000,26.139260,12.869282,99,99,0,0,0,0,0
10,109999,34,100000,79,10000,40,9999,0.100000,99,0,0.000000,14,0.000000,36.111868,0.851156,99,99,0,0,0,0,0
10,109999,35,100000,38,20000,0,9999,0.100000,99,0,0.707485,14,0.000000,25.933650,0.450267,99,99,0,0,0,0,1
10,109999,36,100000,38,20000,0,9999,0.100000,99,0,0.270282,14,0.000000,20.208901,0.660254,99,99,0,0,1,0,0
10,109999,37,100000,88,20000,40,9999,0.100000,99,0,0.000000,14,1.000000,25.880158,4.260609,99,99,0,0,0,0,0
10,109999,38,100000,48,10000,0,9999,0.100000,99,0,0.222263,14,0.000000,31.396064,0.568180,99,99,0,0,0,0,1
10,109999,39,100000,48,10000,0,9999,0.100000,99,0,0.674044,14,0.000000,16.855479,0.751578,99,99,0,0,0,0,1
10,109999,40,100000,48,10000,40,9999,0.100000,99,0,0.000000,14,3.000000,29.752876,5.573400,99,99,0,0,0,0,0
10,109999,41,100000,57,0,40,9999,0.100000,99,0,0.000000,14,0.000000,22.786503,1.405202,99,99,0,0,0,0,0
10,109999,42,100000,57,0,0,9999,0.100000,99,0,1.291163,14,0.000000,31.474830,0.297290,99,99,0,0,0,1,0
10,109999,43,100000,38,20000,40,9999,0.100000,99,0,0.000000,14,0.000000,25.331220,0.423684,99,99,0,0,0,0,0
10,109999,44,100000,31,10000,40,9999,0.100000,99,0,0.000000,14,0.000000,19.900462,0.518589,99,99,0,0,0,0,0
10,109999,45,100000,87,20000,40,9999,0.100000,99,0,0.000000,14,0.000000,26.399445,0.954397,99,99,0,0,0,0,0
10,109999,46,100000,87,20000,40,9999,0.100000,99,0,0.000000,14,0.000000,31.280613,0.291550,99,99,0,0,0,0,0
10,109999,47,100000,57,0,40,9999,0.100000,99,0,0.000000,14,0.000000,22.566649,1.184421,99,99,0,0,0,0,0
10,109999,48,100000,56,10000,40,9999,0.100000,99,0,0.000000,14,0.000000,15.571285,0.373852,99,99,0,0,0,0,0
10,109999,49,100000,88,20000,40,9999,0.100000,99,0,0.000000,14,0.000000,31.251903,0.198992,99,99,0,0,0,0,0
10,109999,50,100000,37,10000,0,9999,0.100000,99,0,0.004979,14,0.000000,16.470404,0.103218,99,99,0,0,0,1,0
10,109999,51,100000,57,0,40,9999,0.100000,99,0,0.000000,14,0.000000,22.786056,0.103576,99,99,0,0,0,0,0
10,109999,52,100000,56,10000,40,9999,0.100000,99,0,0.000000,14,0.000000,18.976011,0.197086,99,99,0,0,0,0,0
10,109999,53,100000,38,20000,40,9999,0.100000,99,0,0.000000,14,0.000000,25.892219,0.670168,99,99,0,0,0,0,0
10,109999,54,100000,79,10000,40,9999,0.100000,99,0,0.000000,14,0.000000,31.120108,0.212228,99,99,0,0,0,0,0
10,109999,55,100000,59,20000,0,9999,0.100000,99,0,0.003224,14,0.000000,19.592329,0.066583,99,99,0,0,0,0,1
10,109999,56,100000,56,10000,0,9999,0.100000,99,0,1.821951,14,0.000000,26.034800,0.662177,99,99,0,0,0,0,1
10,109999,57,100000,57,0,40,9999,0.100000,99,0,0.000000,14,0.000000,26.312018,1.296367,99,99,0,0,0,0,0
10,109999,58,100000,38,20000,0,9999,0.100000,99,0,0.518219,14,0.000000,35.916044,0.971803,99,99,0,1,0,0,0
10,109999,59,100000,48,10000,0,9999,0.100000,99,0,0.008060,14,0.000000,16.264094,0.091120,99,99,0,0,0,0,1
10,109999,60,100000,31,10000,40,9999,0.100000,99,0,0.000000,14,0.000000,31.647550,1.698231,99,99,0,0,0,0,0
10,109999,61,100000,38,20000,40,9999,0.100000,99,0,0.000000,14,1.000000,34.300923,6.432513,99,99,0,0,0,0,0
10,109999,62,100000,4,80000,40,9999,0.100000,99,0,0.000000,14,0.000000,26.751328,0.994152,99,99,0,0,0,0,0
10,109999,63,100000,57,0,40,9999,0.100000,99,0,0.000000,14,2.000000,26.830045,9.281009,99,99,0,0,0,0,0
10,109999,64,100000,31,10000,40,9999,0.100000,99,0,0.000000,14,0.000000,29.866193,3.793521,99,99,0,0,0,0,0
10,109999,65,100000,79,10000,40,9999,0.100000,99,0,0.000000,14,0.000000,24.988846,0.405733,99,99,0,0,0,0,0
10,109999,66,100000,31,10000,40,9999,0.100000,99,0,0.000000,14,3.000000,30.194125,10.880965,99,99,0,0,0,0,0
10,109999,67,100000,57,0,40,9999,0.100000,99,0,0.000000,14,3.000000,32.798503,4.543847,99,99,0,0,0,0,0
10,109999,68,100000,57,0,40,9999,0.100000,99,0,0.000000,14,0.000000,27.220321,0.987496,99,99,0,0,0,0,0
10,109999,69,100000,57,0,40,9999,0.100000,99,0,0.000000,14,0.000000,19.432122,0.508332,99,99,0,0,0,0,0
10,109999,70,100000,31,10000,40,9999,0.100000,99,0,0.000000,14,0.000000,29.802087,2.722705,99,99,0,0,0,0,0
10,109999,71,100000,87,20000,40,9999,0.100000,99,0,0.000000,14,1.000000,29.704463,2.496058,99,99,0,0,0,0,0
10,109999,72,100000,88,20000,0,9999,0.100000,99,0,0.957791,14,0.000000,26.823752,0.325182,99,99,0,0,0,0,1
10,109999,73,100000,72,50000,40,9999,0.100000,99,0,0.000000,14,0.000000,29.656077,2.964784,99,99,0,0,0,0,0
10,109999,74,100000,87,20000,0,9999,0.100000,99,0,0.872135,14,0.000000,25.119474,0.269501,99,99,0,0,0,1,0
10,109999,75,100000,88,20000,40,9999,0.100000,99,0,0.000000,14,0.000000,30.973439,0.245473,99,99,0,0,0,0,0
10,109999,76,100000,91,40000,1,9999,0.100000,99,0,0.952979,14,3.000000,27.419195,14.184975,99,99,0,0,1,0,0
10,109999,77,100000,4,80000,40,9999,0.100000,99,0,0.000000,14,0.000000,23.054210,0.992174,99,99,0,0,0,0,0
10,109999,78,100000,56,10000,40,9999,0.100000,99,0,0.000000,14,2.000000,31.530913,3.750694,99,99,0,0,0,0,0
10,109999,79,100000,91,40000,40,9999,0.100000,99,0,0.000000,14,0.000000,16.152468,0.216891,99,99,0,0,0,0,0
10,109999,80,100000,91,40000,42,9999,0.100000,99,0,0.000000,14,9.000000,31.608426,19.799150,99,99,0,0,0,0,0
10,109999,81,100000,38,20000,40,9999,0.100000,99,0,0.000000,14,0.000000,33.782287,0.477406,99,99,0,0,0,0,0
10,109999,82,100000,79,10000,40,9999,0.100000,99,0,0.000000,14,0.000000,27.142031,0.475346,99,99,0,0,0,0,0
10,109999,83,100000,38,20000,0,9999,0.100000,99,0,1.252463,14,0.000000,31.313690,0.583641,99,99,0,1,0,0,0
10,109999,84,100000,48,10000,0,9999,0.100000,99,0,0.032562,14,0.000000,23.773363,0.161743,99,99,0,1,0,0,0
10,109999,85,100000,38,20000,40,9999,0.100000,99,0,0.000000,14,0.000000,25.883243,5.596195,99,99,0,0,0,0,0
10,109999,86,100000,72,50000,40,9999,0.100000,99,0,0.000000,14,0.000000,32.771965,7.511433,99,99,0,0,0,0,0
10,109999,87,100000,79,10000,40,9999,0.100000,99,0,0.000000,14,0.000000,33.724606,0.531950,99,99,0,0,0,0,0
10,109999,88,100000,79,10000,0,9999,0.100000,99,0,0.030452,14,1.000000,26.199807,6.395399,99,99,0,1,0,0,0
10,109999,89,100000,48,10000,40,9999,0.100000,99,0,0.000000,14,0.000000,36.097715,8.104622,99,99,0,0,0,0,0
10,109999,90,100000,38,20000,40,9999,0.100000,99,0,0.000000,14,0.000000,26.891970,0.540898,99,99,0,0,0,0,0
10,109999,91,100000,59,20000,0,9999,0.100000,99,0,0.699364,14,1.000000,20.722696,2.362992,99,99,0,0,0,1,0
10,109999,92,100000,87,20000,40,9999,0.100000,99,0,0.000000,14,0.000000,22.875966,0.816534,99,99,0,0,0,0,0
10,109999,93,100000,4,80000,40,9999,0.100000,99,0,0.000000,14,1.000000,19.399716,16.168322,99,99,0,0,0,0,0
10,109999,94,100000,59,20000,40,9999,0.100000,99,0,0.000000,14,0.000000,31.471680,0.436231,99,99,0,0,0,0,0
10,109999,95,100000,31,10000,40,9999,0.100000,99,0,0.000000,14,2.000000,20.966909,9.609494,99,99,0,0,0,0,0
10,109999,96,100000,57,0,40,9999,0.100000,99,0,0.000000,14,0.000000,25.816512,0.596392,99,99,0,0,0,0,0
10,109999,97,100000,37,10000,40,9999,0.100000,99,0,0.000000,14,1.000000,30.304899,6.063806,99,99,0,0,0,0,0
10,109999,98,100000,87,20000,40,9999,0.100000,99,0,0.000000,14,0.000000,30.071979,0.134994,99,99,0,0,0,0,0
10,109999,99,100000,4,80000,0,9999,0.100000,99,0,0.025730,14,0.000000,19.523287,0.077546,99,99,0,0,0,1,0
11,119999,0,110000,31,10000,0,9999,0.100000,99,0,0.010104,15,0.000000,14.010309,0.166102,99,99,0,0,1,0,0
11,119999,1,110000,19,0,0,9999,0.065000,99,0,0.013344,14,0.000000,29.287627,0.176529,99,99,0,0,0,1,0
11,119999,2,110000,31,10000,41,9999,0.100000,99,0,0.000000,15,4.000000,34.100914,9.697004,99,99,0,0,0,0,0
11,119999,3,110000,48,10000,0,9999,0.100000,99,0,0.605972,15,0.000000,17.877381,1.837881,99,99,0,0,1,0,0
11,119999,4,110000,31,10000,0,9999,0.100000,99,0,0.116541,14,0.000000,22.476707,0.343627,99,99,0,0,0,0,1
11,119999,5,110000,38,20000,40,9999,0.100000,99,0,0.000000,14,0.000000,26.322613,0.761768,99,99,0,0,0,0,0
11,119999,6,110000,88,20000,40,9999,0.100000,99,0,0.000000,15,0.000000,28.975122,0.399429,99,99,0,0,0,0,0
11,119999,7,110000,87,20000,40,9999,0.100000,99,0,0.000000,15,0.000000,21.776523,1.987960,99,99,0,0,0,0,0
11,119999,8,110000,38,20000,40,9999,0.100000,99,0,0.000000,14,0.000000,30.670061,0.132767,99,99,0,0,0,0,0
11,119999,9,110000,56,10000,40,9999,0.100000,99,0,0.000000,14,0.000000,17.789854,2.785737,99,99,0,0,0,0,0
11,119999,10,110000,48,10000,40,9999,0.100000,99,0,0.000000,14,0.000000,31.509731,4.334199,99,99,0,0,0,0,0
11,119999,11,110000,48,10000,40,9999,0.100000,99,0,0.000000,14,0.000000,20.168291,0.369689,99,99,0,0,0,0,0
11,119999,12,110000,91,40000,40,9999,0.100000,99,0,0.000000,14,2.000000,34.422133,9.136322,99,99,0,0,0,0,0
11,119999,13,110000,59,20000,40,9999,0.100000,99,0,0.000000,15,0.000000,19.611670,0.476553,99,99,0,0,0,0,0
11,119999,14,110000,79,10000,40,9999,0.100000,99,0,0.000000,15,0.000000,21.796961,1.472315,99,99,0,0,0,0,0
11,119999,15,110000,59,20000,40,9999,0.100000,99,0,0.000000,14,0.000000,29.899635,0.305193,99,99,0,0,0,0,0
11,119999,16,110000,72,50000,40,9999,0.100000,99,0,0.000000,15,0.000000,26.784582,0.961245,99,99,0,0,0,0,0
11,119999,17,110000,88,20000,40,9999,0.100000,99,0,0.000000,15,0.000000,26.063383,0.566385,99,99,0,0,0,0,0
11,119999,18,110000,31,10000,0,9999,0.100000,99,0,0.050977,14,0.000000,29.319652,0.765745,99,99,0,0,1,0,0
11,119999,19,110000,88,20000,40,9999,0.100000,99,0,0.000000,14,0.000000,22.291542,1.177262,99,99,0,0,0,0,0
11,119999,20,110000,19,0,41,9999,0.100000,99,0,0.000000,14,4.000000,24.364436,24.780539,99,99,0,0,0,0,0
11,119999,21,110000,19,0,0,9999,0.100000,99,0,3.674054,14,1.000000,27.936263,1.729761,99,99,0,0,1,0,0
11,119999,22,110000,91,40000,41,9999,0.100000,99,0,0.000000,14,5.000000,24.530192,8.643542,99,99,0,0,0,0,0
11,119999,23,110000,79,10000,0,9999,0.100000,99,0,0.078051,14,0.000000,26.220435,0.280864,99,99,0,0,0,0,1
11,119999,24,110000,87,20000,40,9999,0.100000,99,0,0.000000,14,1.000000,28.241232,7.248535,99,99,0,0,0,0,0
11,119999,25,110000,31,10000,40,9999,0.100000,99,0,0.000000,14,0.000000,26.908727,0.676343,99,99,0,0,0,0,0
11,119999,26,110000,79,10000,40,9999,0.100000,99,0,0.000000,14,1.000000,32.897078,1.918462,99,99,0,0,0,0,0
11,119999,27,110000,59,20000,40,9999,0.100000,99,0,0.000000,15,0.000000,26.118760,0.722779,99,99,0,0,0,0,0
11,119999,28,110000,48,10000,0,9999,0.100000,99,0,0.002323,15,0.000000,23.555340,0.100985,99,99,0,0,0,1,0
11,119999,29,110000,28,100000,0,9999,0.100000,99,0,0.060125,15,0.000000,35.513343,0.150054,99,99,0,0,1,0,0
11,119999,30,110000,79,10000,40,9999,0.100000,99,0,0.000000,15,0.000000,20.639405,1.032442,99,99,0,0,0,0,0
11,119999,31,110000,79,10000,40,9999,0.100000,99,0,0.000000,15,0.000000,35.312991,0.180417,99,99,0,0,0,0,0
11,119999,32,110000,79,10000,40,9999,0.100000,99,0,0.000000,15,0.000000,22.667070,0.535978,99,99,0,0,0,0,0
11,119999,33,110000,37,10000,40,9999,0.100000,99,0,0.000000,15,0.000000,26.186547,2.793608,99,99,0,0,0,0,0
11,119999,34,110000,37,10000,0,9999,0.100000,99,0,0.156275,15,0.000000,36.204603,1.658226,99,99,0,1,0,0,0
11,119999,35,110000,48,10000,40,9999,0.100000,99,0,0.000000,15,0.000000,26.202597,0.161396,99,99,0,0,0,0,0
11,119999,36,110000,48,10000,0,9999,0.100000,99,0,0.336499,15,0.000000,20.138346,0.173602,99,99,0,0,1,0,0
11,119999,37,110000,28,100000,40,9999,0.100000,99,0,0.000000,15,0.000000,25.842881,23.967257,99,99,0,0,0,0,0
11,119999,38,110000,48,10000,0,9999,0.100000,99,0,0.485930,15,0.000000,31.293756,0.213818,99,99,0,0,0,0,1
11,119999,39,110000,19,0,40,9999,0.100000,99,0,0.000000,15,0.000000,17.018172,0.774118,99,99,0,0,0,0,0
11,119999,40,110000,31,10000,40,9999,0.100000,99,0,0.000000,15,1.000000,32.994067,2.314969,99,99,0,0,0,0,0
11,119999,41,110000,4,80000,40,9999,0.100000,99,0,0.000000,15,1.000000,23.023378,1.577481,99,99,0,0,0,0,0
11,119999,42,110000,31,10000,0,9999,0.100000,99,0,4.558595,15,0.000000,31.623156,0.863277,99,99,0,0,0,1,0
11,119999,43,110000,72,50000,0,9999,0.100000,99,0,0.193743,15,0.000000,25.568106,4.934029,99,99,0,0,0,1,0
11,119999,44,110000,19,0,40,9999,0.100000,99,0,0.000000,15,0.000000,19.845733,0.488870,99,99,0,0,0,0,0
11,119999,45,110000,79,10000,40,9999,0.100000,99,0,0.000000,15,0.000000,26.949879,0.989127,99,99,0,0,0,0,0
11,119999,46,110000,31,10000,40,9999,0.100000,99,0,0.000000,15,3.000000,31.305808,7.253356,99,99,0,0,0,0,0
11,119999,47,110000,37,10000,40,9999,0.100000,99,0,0.000000,15,0.000000,22.298793,1.392162,99,99,0,0,0,0,0
11,119999,48,110000,37,10000,40,9999,0.100000,99,0,0.000000,15,0.000000,15.693552,0.225665,99,99,0,0,0,0,0
11,119999,49,110000,31,10000,40,9999,0.100000,99,0,0.000000,15,0.000000,31.128627,0.195298,99,99,0,0,0,0,0
11,119999,50,110000,79,10000,2,9999,0.100000,99,0,0.005213,15,4.000000,16.470946,9.489060,99,99,0,0,0,1,0
11,119999,51,110000,87,20000,40,9999,0.100000,99,0,0.000000,15,0.000000,22.785431,0.102928,99,99,0,0,0,0,0
11,119999,52,110000,59,20000,40,9999,0.100000,99,0,0.000000,15,0.000000,19.023636,0.189451,99,99,0,0,0,0,0
11,119999,53,110000,91,40000,40,9999,0.100000,99,0,0.000000,15,0.000000,26.194558,0.231288,99,99,0,0,0,0,0
11,119999,54,110000,56,10000,40,9999,0.100000,99,0,0.000000,15,0.000000,30.980892,0.188116,99,99,0,0,0,0,0
11,119999,55,110000,72,50000,0,9999,0.100000,99,0,0.002956,15,0.000000,19.591579,0.067420,99,99,0,0,0,0,1
11,119999,56,110000,57,0,40,9999,0.100000,99,0,0.000000,15,0.000000,26.404524,0.735078,99,99,0,0,0,0,0
11,119999,57,110000,72,50000,40,9999,0.100000,99,0,0.000000,15,0.000000,26.894234,1.367406,99,99,0,0,0,0,0
11,119999,58,110000,38,20000,40,9999,0.100000,99,0,0.000000,15,0.000000,35.997211,1.777555,99,99,0,0,0,0,0
11,119999,59,110000,38,20000,0,9999,0.100000,99,0,0.021822,15,0.000000,16.232762,0.084367,99,99,0,0,0,0,1
11,119999,60,110000,37,10000,42,9999,0.100000,99,0,0.000000,15,9.000000,31.634627,10.592485,99,99,0,0,0,0,0
11,119999,61,110000,56,10000,0,9999,0.100000,99,0,0.080480,15,0.000000,34.382891,0.649790,99,99,0,0,1,0,0
11,119999,62,110000,91,40000,0,9999,0.100000,99,0,1.872520,15,0.000000,27.141329,1.017642,99,99,0,0,0,0,1
11,119999,63,110000,87,20000,40,9999,0.100000,99,0,0.000000,15,0.000000,26.728082,1.655917,99,99,0,0,0,0,0
11,119999,64,110000,79,10000,40,9999,0.100000,99,0,0.000000,15,0.000000,29.041588,0.595707,99,99,0,0,0,0,0
11,119999,65,110000,57,0,40,9999,0.100000,99,0,0.000000,15,0.000000,25.119029,0.343316,99,99,0,0,0,0,0
11,119999,66,110000,31,10000,40,9999,0.100000,99,0,0.000000,15,0.000000,27.374361,9.252660,99,99,0,0,0,0,0
11,119999,67,110000,72,50000,40,9999,0.100000,99,0,0.000000,15,0.000000,35.253493,0.215360,99,99,0,0,0,0,0
11,119999,68,110000,28,100000,40,9999,0.100000,99,0,0.000000,15,1.000000,27.342209,19.662436,99,99,0,0,0,0,0
11,119999,69,110000,57,0,40,9999,0.100000,99,0,0.000000,15,0.000000,19.376759,0.455918,99,99,0,0,0,0,0
11,119999,70,110000,38,20000,40,9999,0.100000,99,0,0.000000,15,0.000000,29.714141,1.153141,99,99,0,0,0,0,0
11,119999,71,110000,72,50000,40,9999,0.100000,99,0,0.000000,15,1.000000,27.913588,1.887770,99,99,0,0,0,0,0
11,119999,72,110000,4,80000,0,9999,0.100000,99,0,0.822745,15,0.000000,27.069715,0.256168,99,99,0,0,0,0,1
