generation,iteration,robot,birthday,ancestor_id,ancestor_birthday,cell_id,age,sigma,maps,genomes,fitness,cells_in_map,dist_max,dist_pot_max,dist_total,com_rx,com_tx,obj_group1,obj_group2,obj_group3,obj_group4,obj_group5
0,9999,0,0,0,0,49,9999,0.100000,0,0,0.000000,0,11.000000,0.000000,13.266625,0,0,0,0,0,0,0
0,9999,1,0,1,0,49,9999,0.100000,0,0,0.000000,0,6.000000,0.000000,12.537419,0,0,0,0,0,0,0
0,9999,2,0,2,0,99,9999,0.100000,0,0,47.368421,0,9.000000,0.000000,24.490164,0,0,1,0,0,0,0
0,9999,3,0,3,0,49,9999,0.100000,0,0,0.000000,0,9.000000,0.000000,10.565189,0,0,0,0,0,0,0
0,9999,4,0,4,0,49,9999,0.100000,0,0,0.000000,0,6.000000,0.000000,9.897041,0,0,0,0,0,0,0
0,9999,5,0,5,0,49,9999,0.100000,0,0,0.000000,0,1.000000,0.000000,11.468089,0,0,0,0,0,0,0
0,9999,6,0,6,0,49,9999,0.100000,0,0,0.000000,0,8.000000,0.000000,16.272942,0,0,0,0,0,0,0
0,9999,7,0,7,0,49,9999,0.100000,0,0,0.000000,0,11.000000,0.000000,13.733821,0,0,0,0,0,0,0
0,9999,8,0,8,0,49,9999,0.100000,0,0,0.000000,0,8.000000,0.000000,16.406947,0,0,0,0,0,0,0
0,9999,9,0,9,0,49,9999,0.100000,0,0,0.000000,0,5.000000,0.000000,6.585682,0,0,0,0,0,0,0
0,9999,10,0,10,0,49,9999,0.100000,0,0,0.000000,0,7.000000,0.000000,13.505408,0,0,0,0,0,0,0
0,9999,11,0,11,0,49,9999,0.100000,0,0,0.000000,0,6.000000,0.000000,7.775258,0,0,0,0,0,0,0
0,9999,12,0,12,0,49,9999,0.100000,0,0,0.000000,0,6.000000,0.000000,14.260993,0,0,0,0,0,0,0
0,9999,13,0,13,0,49,9999,0.100000,0,0,0.000000,0,9.000000,0.000000,15.152494,0,0,0,0,0,0,0
0,9999,14,0,14,0,49,9999,0.100000,0,0,0.000000,0,8.000000,0.000000,16.213002,0,0,0,0,0,0,0
0,9999,15,0,15,0,49,9999,0.100000,0,0,0.000000,0,8.000000,0.000000,9.855080,0,0,0,0,0,0,0
0,9999,16,0,16,0,49,9999,0.100000,0,0,0.000000,0,6.000000,0.000000,9.580323,0,0,0,0,0,0,0
0,9999,17,0,17,0,49,9999,0.100000,0,0,0.000000,0,6.000000,0.000000,26.064807,0,0,0,0,0,0,0
0,9999,18,0,18,0,49,9999,0.100000,0,0,0.000000,0,7.000000,0.000000,11.492678,0,0,0,0,0,0,0
0,9999,19,0,19,0,99,9999,0.100000,0,0,47.368421,0,8.000000,0.000000,17.601894,0,0,1,0,0,0,0
0,9999,20,0,20,0,49,9999,0.100000,0,0,0.000000,0,3.000000,0.000000,6.774078,0,0,0,0,0,0,0
0,9999,21,0,21,0,40,9999,0.100000,0,0,0.000000,0,0.000000,0.000000,3.309275,0,0,0,0,0,0,0
0,9999,22,0,22,0,49,9999,0.100000,0,0,0.000000,0,6.000000,0.000000,15.057175,0,0,0,0,0,0,0
0,9999,23,0,23,0,49,9999,0.100000,0,0,0.000000,0,5.000000,0.000000,13.622109,0,0,0,0,0,0,0
0,9999,24,0,24,0,49,9999,0.100000,0,0,0.000000,0,9.000000,0.000000,15.199863,0,0,0,0,0,0,0
0,9999,25,0,25,0,49,9999,0.100000,0,0,0.000000,0,6.000000,0.000000,18.988893,0,0,0,0,0,0,0
0,9999,26,0,26,0,49,9999,0.100000,0,0,0.000000,0,9.000000,0.000000,10.528779,0,0,0,0,0,0,0
0,9999,27,0,27,0,49,9999,0.100000,0,0,0.000000,0,7.000000,0.000000,9.999968,0,0,0,0,0,0,0
0,9999,28,0,28,0,49,9999,0.100000,0,0,0.000000,0,3.000000,0.000000,16.402672,0,0,0,0,0,0,0
0,9999,29,0,29,0,49,9999,0.100000,0,0,0.000000,0,5.000000,0.000000,10.846771,0,0,0,0,0,0,0
0,9999,30,0,30,0,49,9999,0.100000,0,0,0.000000,0,2.000000,0.000000,2.905970,0,0,0,0,0,0,0
0,9999,31,0,31,0,49,9999,0.100000,0,0,0.000000,0,1.000000,0.000000,2.473023,0,0,0,0,0,0,0
0,9999,32,0,32,0,49,9999,0.100000,0,0,0.000000,0,8.000000,0.000000,24.011044,0,0,0,0,0,0,0
0,9999,33,0,33,0,49,9999,0.100000,0,0,0.000000,0,5.000000,0.000000,5.528763,0,0,0,0,0,0,0
0,9999,34,0,34,0,49,9999,0.100000,0,0,0.000000,0,2.000000,0.000000,3.530195,0,0,0,0,0,0,0
0,9999,35,0,35,0,49,9999,0.100000,0,0,0.000000,0,10.000000,0.000000,17.525008,0,0,0,0,0,0,0
0,9999,36,0,36,0,49,9999,0.100000,0,0,0.000000,0,8.000000,0.000000,15.354576,0,0,0,0,0,0,0
0,9999,37,0,37,0,49,9999,0.100000,0,0,0.000000,0,5.000000,0.000000,9.796500,0,0,0,0,0,0,0
0,9999,38,0,38,0,49,9999,0.100000,0,0,0.000000,0,6.000000,0.000000,18.675572,0,0,0,0,0,0,0
0,9999,39,0,39,0,49,9999,0.100000,0,0,0.000000,0,5.000000,0.000000,5.716273,0,0,0,0,0,0,0
0,9999,40,0,40,0,49,9999,0.100000,0,0,0.000000,0,8.000000,0.000000,9.681207,0,0,0,0,0,0,0
0,9999,41,0,41,0,49,9999,0.100000,0,0,0.000000,0,10.000000,0.000000,16.695793,0,0,0,0,0,0,0
0,9999,42,0,42,0,49,9999,0.100000,0,0,0.000000,0,10.000000,0.000000,11.621538,0,0,0,0,0,0,0
0,9999,43,0,43,0,49,9999,0.100000,0,0,0.000000,0,6.000000,0.000000,18.472103,0,0,0,0,0,0,0
0,9999,44,0,44,0,49,9999,0.100000,0,0,0.000000,0,3.000000,0.000000,9.839704,0,0,0,0,0,0,0
0,9999,45,0,45,0,49,9999,0.100000,0,0,0.000000,0,8.000000,0.000000,15.364351,0,0,0,0,0,0,0
0,9999,46,0,46,0,49,9999,0.100000,0,0,0.000000,0,2.000000,0.000000,16.470085,0,0,0,0,0,0,0
0,9999,47,0,47,0,49,9999,0.100000,0,0,0.000000,0,10.000000,0.000000,16.214761,0,0,0,0,0,0,0
0,9999,48,0,48,0,49,9999,0.100000,0,0,0.000000,0,3.000000,0.000000,18.172071,0,0,0,0,0,0,0
0,9999,49,0,49,0,49,9999,0.100000,0,0,0.000000,0,9.000000,0.000000,13.114318,0,0,0,0,0,0,0
0,9999,50,0,50,0,49,9999,0.100000,0,0,0.000000,0,7.000000,0.000000,10.323951,0,0,0,0,0,0,0
0,9999,51,0,51,0,49,9999,0.100000,0,0,0.000000,0,8.000000,0.000000,26.579963,0,0,0,0,0,0,0
0,9999,52,0,52,0,49,9999,0.100000,0,0,0.000000,0,11.000000,0.000000,24.345406,0,0,0,0,0,0,0
0,9999,53,0,53,0,49,9999,0.100000,0,0,0.000000,0,7.000000,0.000000,12.357535,0,0,0,0,0,0,0
0,9999,54,0,54,0,49,9999,0.100000,0,0,0.000000,0,8.000000,0.000000,25.328803,0,0,0,0,0,0,0
0,9999,55,0,55,0,49,9999,0.100000,0,0,0.000000,0,10.000000,0.000000,20.358798,0,0,0,0,0,0,0
0,9999,56,0,56,0,49,9999,0.100000,0,0,0.000000,0,8.000000,0.000000,16.186022,0,0,0,0,0,0,0
0,9999,57,0,57,0,49,9999,0.100000,0,0,0.000000,0,8.000000,0.000000,8.325092,0,0,0,0,0,0,0
0,9999,58,0,58,0,49,9999,0.100000,0,0,0.000000,0,11.000000,0.000000,22.325214,0,0,0,0,0,0,0
0,9999,59,0,59,0,49,9999,0.100000,0,0,0.000000,0,9.000000,0.000000,21.255348,0,0,0,0,0,0,0
0,9999,60,0,60,0,49,9999,0.100000,0,0,0.000000,0,9.000000,0.000000,28.906603,0,0,0,0,0,0,0
0,9999,61,0,61,0,49,9999,0.100000,0,0,0.000000,0,3.000000,0.000000,3.657275,0,0,0,0,0,0,0
0,9999,62,0,62,0,49,9999,0.100000,0,0,0.000000,0,10.000000,0.000000,11.303003,0,0,0,0,0,0,0
0,9999,63,0,63,0,49,9999,0.100000,0,0,0.000000,0,9.000000,0.000000,11.930725,0,0,0,0,0,0,0
0,9999,64,0,64,0,49,9999,0.100000,0,0,0.000000,0,6.000000,0.000000,20.387314,0,0,0,0,0,0,0
0,9999,65,0,65,0,49,9999,0.100000,0,0,0.000000,0,6.000000,0.000000,6.788660,0,0,0,0,0,0,0
0,9999,66,0,66,0,49,9999,0.100000,0,0,0.000000,0,12.000000,0.000000,17.023573,0,0,0,0,0,0,0
0,9999,67,0,67,0,49,9999,0.100000,0,0,0.000000,0,10.000000,0.000000,11.574563,0,0,0,0,0,0,0
0,9999,68,0,68,0,49,9999,0.100000,0,0,0.000000,0,5.000000,0.000000,13.533691,0,0,0,0,0,0,0
0,9999,69,0,69,0,49,9999,0.100000,0,0,0.000000,0,3.000000,0.000000,9.306698,0,0,0,0,0,0,0
0,9999,70,0,70,0,49,9999,0.100000,0,0,0.000000,0,5.000000,0.000000,13.631247,0,0,0,0,0,0,0
0,9999,71,0,71,0,49,9999,0.100000,0,0,0.000000,0,8.000000,0.000000,10.054637,0,0,0,0,0,0,0
0,9999,72,0,72,0,99,9999,0.100000,0,0,47.368421,0,9.000000,0.000000,27.175013,0,0,1,0,0,0,0
0,9999,73,0,73,0,49,9999,0.100000,0,0,0.000000,0,11.000000,0.000000,14.554658,0,0,0,0,0,0,0
0,9999,74,0,74,0,49,9999,0.100000,0,0,0.000000,0,2.000000,0.000000,7.484793,0,0,0,0,0,0,0
0,9999,75,0,75,0,49,9999,0.100000,0,0,0.000000,0,9.000000,0.000000,10.363705,0,0,0,0,0,0,0
0,9999,76,0,76,0,49,9999,0.100000,0,0,0.000000,0,7.000000,0.000000,8.657417,0,0,0,0,0,0,0
0,9999,77,0,77,0,49,9999,0.100000,0,0,0.000000,0,6.000000,0.000000,8.672603,0,0,0,0,0,0,0
0,9999,78,0,78,0,49,9999,0.100000,0,0,0.000000,0,1.000000,0.000000,3.394407,0,0,0,0,0,0,0
0,9999,79,0,79,0,49,9999,0.100000,0,0,0.000000,0,9.000000,0.000000,22.842983,0,0,0,0,0,0,0
0,9999,80,0,80,0,49,9999,0.100000,0,0,0.000000,0,3.000000,0.000000,15.871209,0,0,0,0,0,0,0
0,9999,81,0,81,0,9,9999,0.100000,0,0,0.000000,0,11.000000,0.000000,22.989348,0,0,0,1,0,0,0
0,9999,82,0,82,0,49,9999,0.100000,0,0,0.000000,0,10.000000,0.000000,11.723616,0,0,0,0,0,0,0
0,9999,83,0,83,0,49,9999,0.100000,0,0,0.000000,0,9.000000,0.000000,10.220813,0,0,0,0,0,0,0
0,9999,84,0,84,0,49,9999,0.100000,0,0,0.000000,0,7.000000,0.000000,21.103643,0,0,0,0,0,0,0
0,9999,85,0,85,0,49,9999,0.100000,0,0,0.000000,0,5.000000,0.000000,13.749697,0,0,0,0,0,0,0
0,9999,86,0,86,0,49,9999,0.100000,0,0,0.000000,0,10.000000,0.000000,16.003173,0,0,0,0,0,0,0
0,9999,87,0,87,0,49,9999,0.100000,0,0,0.000000,0,8.000000,0.000000,10.598080,0,0,0,0,0,0,0
0,9999,88,0,88,0,49,9999,0.100000,0,0,0.000000,0,2.000000,0.000000,13.397365,0,0,0,0,0,0,0
0,9999,89,0,89,0,49,9999,0.100000,0,0,0.000000,0,10.000000,0.000000,18.132762,0,0,0,0,0,0,0
0,9999,90,0,90,0,49,9999,0.100000,0,0,0.000000,0,11.000000,0.000000,12.967091,0,0,0,0,0,0,0
0,9999,91,0,91,0,49,9999,0.100000,0,0,0.000000,0,8.000000,0.000000,17.358440,0,0,0,0,0,0,0
0,9999,92,0,92,0,49,9999,0.100000,0,0,0.000000,0,8.000000,0.000000,13.922573,0,0,0,0,0,0,0
0,9999,93,0,93,0,49,9999,0.100000,0,0,0.000000,0,2.000000,0.000000,10.099993,0,0,0,0,0,0,0
0,9999,94,0,94,0,49,9999,0.100000,0,0,0.000000,0,9.000000,0.000000,10.072166,0,0,0,0,0,0,0
0,9999,95,0,95,0,99,9999,0.100000,0,0,47.368421,0,9.000000,0.000000,25.825216,0,0,1,0,0,0,0
0,9999,96,0,96,0,49,9999,0.100000,0,0,0.000000,0,3.000000,0.000000,9.323145,0,0,0,0,0,0,0
0,9999,97,0,97,0,49,9999,0.100000,0,0,0.000000,0,10.000000,0.000000,15.432161,0,0,0,0,0,0,0
0,9999,98,0,98,0,49,9999,0.100000,0,0,0.000000,0,4.000000,0.000000,10.346427,0,0,0,0,0,0,0
0,9999,99,0,99,0,49,9999,0.100000,0,0,0.000000,0,10.000000,0.000000,21.690930,0,0,0,0,0,0,0
1,19999,0,10000,0,0,40,9999,0.100000,0,0,0.000000,2,0.000000,0.000000,0.181663,0,0,0,0,0,0,0
1,19999,1,10000,12,0,49,9999,0.100000,0,0,0.000000,2,1.000000,0.000000,11.972560,0,0,0,0,0,0,0
1,19999,2,10000,0,0,40,9999,0.100000,0,0,0.000000,4,0.000000,0.000000,1.211791,0,0,0,0,0,0,0
1,19999,3,10000,1,0,40,9999,0.100000,0,0,0.000000,2,0.000000,0.000000,0.192263,0,0,0,0,0,0,0
1,19999,4,10000,4,0,40,9999,0.100000,0,0,0.000000,1,0.000000,0.000000,0.932278,0,0,0,0,0,0,0
1,19999,5,10000,0,0,40,9999,0.100000,0,0,0.000000,3,0.000000,0.000000,1.333417,0,0,0,0,0,0,0
1,19999,6,10000,1,0,40,9999,0.100000,0,0,0.000000,2,0.000000,0.000000,0.190017,0,0,0,0,0,0,0
1,19999,7,10000,0,0,49,9999,0.100000,0,0,0.000000,4,1.000000,0.000000,2.195119,0,0,0,0,0,0,0
1,19999,8,10000,1,0,49,9999,0.100000,0,0,0.000000,3,3.000000,0.000000,7.658466,0,0,0,0,0,0,0
1,19999,9,10000,19,0,40,9999,0.100000,0,0,0.000000,3,0.000000,0.000000,0.095506,0,0,0,0,0,0,0
1,19999,10,10000,1,0,40,9999,0.100000,0,0,0.000000,3,0.000000,0.000000,0.108658,0,0,0,0,0,0,0
1,19999,11,10000,21,0,40,9999,0.100000,0,0,0.000000,4,0.000000,0.000000,0.123805,0,0,0,0,0,0,0
1,19999,12,0,12,0,40,19999,0.100000,0,0,0.000000,1,0.000000,0.000000,0.177249,0,0,0,0,0,0,0
1,19999,13,10000,19,0,40,9999,0.100000,0,0,0.000000,4,0.000000,0.000000,0.598677,0,0,0,0,0,0,0
1,19999,14,10000,19,0,40,9999,0.100000,0,0,0.000000,3,0.000000,0.000000,1.217818,0,0,0,0,0,0,0
1,19999,15,10000,0,0,40,9999,0.100000,0,0,0.000000,4,0.000000,0.000000,0.492869,0,0,0,0,0,0,0
1,19999,16,10000,1,0,40,9999,0.100000,0,0,0.000000,3,0.000000,0.000000,0.138405,0,0,0,0,0,0,0
1,19999,17,10000,1,0,49,9999,0.100000,0,0,0.000000,4,1.000000,0.000000,10.423031,0,0,0,0,0,0,0
1,19999,18,10000,21,0,40,9999,0.100000,0,0,0.000000,4,0.000000,0.000000,1.139330,0,0,0,0,0,0,0
1,19999,19,10000,0,0,40,9999,0.100000,0,0,0.000000,3,0.000000,0.000000,0.968813,0,0,0,0,0,0,0
1,19999,20,10000,3,0,40,9999,0.100000,0,0,0.000000,2,0.000000,0.000000,0.202946,0,0,0,0,0,0,0
1,19999,21,10000,19,0,40,9999,0.100000,0,0,0.000000,4,0.000000,0.000000,17.770422,0,0,0,0,0,0,0
1,19999,22,10000,21,0,49,9999,0.100000,0,0,0.000000,4,2.000000,0.000000,10.787064,0,0,0,0,0,0,0
1,19999,23,10000,3,0,49,9999,0.100000,0,0,0.000000,2,1.000000,0.000000,10.922974,0,0,0,0,0,0,0
1,19999,24,10000,0,0,40,9999,0.100000,0,0,0.000000,4,0.000000,0.000000,0.435253,0,0,0,0,0,0,0
1,19999,25,10000,19,0,49,9999,0.100000,0,0,0.000000,4,4.000000,0.000000,12.716768,0,0,0,0,0,0,0
1,19999,26,10000,21,0,49,9999,0.100000,0,0,0.000000,4,1.000000,0.000000,3.189144,0,0,0,0,0,0,0
1,19999,27,10000,1,0,40,9999,0.100000,0,0,0.000000,2,0.000000,0.000000,0.901608,0,0,0,0,0,0,0
1,19999,28,10000,21,0,49,9999,0.100000,0,0,0.000000,4,1.000000,0.000000,21.188226,0,0,0,0,0,0,0
1,19999,29,10000,1,0,40,9999,0.100000,0,0,0.000000,4,0.000000,0.000000,1.570856,0,0,0,0,0,0,0
1,19999,30,10000,1,0,40,9999,0.100000,0,0,0.000000,4,0.000000,0.000000,0.272081,0,0,0,0,0,0,0
1,19999,31,10000,0,0,40,9999,0.100000,0,0,0.000000,4,0.000000,0.000000,0.990112,0,0,0,0,0,0,0
1,19999,32,10000,1,0,49,9999,0.100000,0,0,0.000000,2,2.000000,0.000000,4.870324,0,0,0,0,0,0,0
1,19999,33,10000,19,0,40,9999,0.100000,0,0,0.000000,3,0.000000,0.000000,0.309391,0,0,0,0,0,0,0
1,19999,34,10000,21,0,40,9999,0.100000,0,0,0.000000,4,0.000000,0.000000,1.096553,0,0,0,0,0,0,0
1,19999,35,10000,1,0,40,9999,0.100000,0,0,0.000000,2,0.000000,0.000000,0.991602,0,0,0,0,0,0,0
1,19999,36,10000,21,0,49,9999,0.100000,0,0,0.000000,4,1.000000,0.000000,1.558482,0,0,0,0,0,0,0
1,19999,37,0,37,0,49,19999,0.100000,0,0,0.000000,2,2.000000,0.000000,3.736482,0,0,0,0,0,0,0
1,19999,38,10000,1,0,49,9999,0.100000,0,0,0.000000,4,3.000000,0.000000,8.916275,0,0,0,0,0,0,0
1,19999,39,10000,0,0,40,9999,0.100000,0,0,0.000000,2,0.000000,0.000000,0.096209,0,0,0,0,0,0,0
1,19999,40,10000,19,0,49,9999,0.100000,0,0,0.000000,3,2.000000,0.000000,2.470428,0,0,0,0,0,0,0
1,19999,41,10000,1,0,40,9999,0.100000,0,0,0.000000,4,0.000000,0.000000,1.333792,0,0,0,0,0,0,0
1,19999,42,10000,19,0,49,9999,0.100000,0,0,0.000000,4,4.000000,0.000000,5.338261,0,0,0,0,0,0,0
1,19999,43,10000,19,0,40,9999,0.100000,0,0,0.000000,4,0.000000,0.000000,0.116213,0,0,0,0,0,0,0
1,19999,44,10000,19,0,49,9999,0.100000,0,0,0.000000,4,2.000000,0.000000,9.477027,0,0,0,0,0,0,0
1,19999,45,10000,21,0,49,9999,0.100000,0,0,0.000000,4,2.000000,0.000000,7.348168,0,0,0,0,0,0,0
1,19999,46,10000,1,0,40,9999,0.100000,0,0,0.000000,2,0.000000,0.000000,11.644640,0,0,0,0,0,0,0
1,19999,47,10000,0,0,40,9999,0.100000,0,0,0.000000,2,0.000000,0.000000,1.817110,0,0,0,0,0,0,0
1,19999,48,10000,1,0,49,9999,0.100000,0,0,0.000000,2,1.000000,0.000000,13.822423,0,0,0,0,0,0,0
1,19999,49,10000,0,0,40,9999,0.100000,0,0,0.000000,4,0.000000,0.000000,0.129049,0,0,0,0,0,0,0
1,19999,50,10000,21,0,40,9999,0.100000,0,0,0.000000,4,0.000000,0.000000,0.621240,0,0,0,0,0,0,0
1,19999,51,10000,1,0,49,9999,0.100000,0,0,0.000000,4,1.000000,0.000000,8.330688,0,0,0,0,0,0,0
1,19999,52,10000,1,0,49,9999,0.100000,0,0,0.000000,4,4.000000,0.000000,4.483885,0,0,0,0,0,0,0
1,19999,53,10000,19,0,49,9999,0.100000,0,0,0.000000,4,6.000000,0.000000,13.707667,0,0,0,0,0,0,0
1,19999,54,10000,19,0,40,9999,0.100000,0,0,0.000000,3,0.000000,0.000000,23.092902,0,0,0,0,0,0,0
1,19999,55,10000,1,0,49,9999,0.100000,0,0,0.000000,2,2.000000,0.000000,7.618690,0,0,0,0,0,0,0
1,19999,56,0,56,0,40,19999,0.100000,0,0,0.000000,2,0.000000,0.000000,6.980672,0,0,0,0,0,0,0
1,19999,57,10000,21,0,40,9999,0.100000,0,0,0.000000,4,0.000000,0.000000,0.499520,0,0,0,0,0,0,0
1,19999,58,10000,1,0,49,9999,0.100000,0,0,0.000000,4,3.000000,0.000000,6.257277,0,0,0,0,0,0,0
1,19999,59,10000,19,0,40,9999,0.100000,0,0,0.000000,4,0.000000,0.000000,7.180847,0,0,0,0,0,0,0
1,19999,60,10000,0,0,40,9999,0.100000,0,0,0.000000,4,0.000000,0.000000,0.092856,0,0,0,0,0,0,0
1,19999,61,10000,1,0,40,9999,0.100000,0,0,0.000000,4,0.000000,0.000000,0.221177,0,0,0,0,0,0,0
1,19999,62,10000,0,0,49,9999,0.100000,0,0,0.000000,2,9.000000,0.000000,18.534812,0,0,0,0,0,0,0
1,19999,63,10000,19,0,40,9999,0.100000,0,0,0.000000,3,0.000000,0.000000,0.166623,0,0,0,0,0,0,0
1,19999,64,10000,21,0,49,9999,0.100000,0,0,0.000000,4,1.000000,0.000000,9.021914,0,0,0,0,0,0,0
1,19999,65,10000,19,0,40,9999,0.100000,0,0,0.000000,3,0.000000,0.000000,0.217588,0,0,0,0,0,0,0
1,19999,66,10000,19,0,40,9999,0.100000,0,0,0.000000,4,0.000000,0.000000,0.769009,0,0,0,0,0,0,0
1,19999,67,10000,0,0,40,9999,0.100000,0,0,0.000000,3,0.000000,0.000000,0.284558,0,0,0,0,0,0,0
1,19999,68,10000,1,0,49,9999,0.100000,0,0,0.000000,4,2.000000,0.000000,11.622765,0,0,0,0,0,0,0
1,19999,69,10000,0,0,40,9999,0.100000,0,0,0.000000,2,0.000000,0.000000,0.124767,0,0,0,0,0,0,0
1,19999,70,10000,1,0,40,9999,0.100000,0,0,0.000000,2,0.000000,0.000000,5.036386,0,0,0,0,0,0,0
1,19999,71,10000,0,0,49,9999,0.100000,0,0,0.000000,4,2.000000,0.000000,2.913259,0,0,0,0,0,0,0
1,19999,72,10000,21,0,49,9999,0.100000,0,0,0.000000,4,2.000000,0.000000,10.844542,0,0,0,0,0,0,0
1,19999,73,10000,19,0,40,9999,0.100000,0,0,0.000000,4,0.000000,0.000000,0.149437,0,0,0,0,0,0,0
1,19999,74,10000,21,0,49,9999,0.100000,0,0,0.000000,4,1.000000,0.000000,1.238506,0,0,0,0,0,0,0
1,19999,75,10000,0,0,40,9999,0.100000,0,0,0.000000,4,0.000000,0.000000,0.489116,0,0,0,0,0,0,0
1,19999,76,10000,0,0,40,9999,0.100000,0,0,0.000000,4,0.000000,0.000000,4.461967,0,0,0,0,0,0,0
1,19999,77,10000,21,0,40,9999,0.100000,0,0,0.000000,4,0.000000,0.000000,0.121165,0,0,0,0,0,0,0
1,19999,78,10000,1,0,40,9999,0.100000,0,0,0.000000,2,0.000000,0.000000,1.470481,0,0,0,0,0,0,0
1,19999,79,10000,1,0,49,9999,0.100000,0,0,0.000000,2,3.000000,0.000000,5.856077,0,0,0,0,0,0,0
1,19999,80,10000,19,0,40,9999,0.100000,0,0,0.000000,4,0.000000,0.000000,1.348626,0,0,0,0,0,0,0
1,19999,81,10000,1,0,49,9999,0.100000,0,0,0.000000,2,4.000000,0.000000,16.226482,0,0,0,0,0,0,0
1,19999,82,10000,19,0,40,9999,0.100000,0,0,0.000000,3,0.000000,0.000000,1.084799,0,0,0,0,0,0,0
1,19999,83,10000,19,0,40,9999,0.100000,0,0,0.000000,4,0.000000,0.000000,0.375992,0,0,0,0,0,0,0
1,19999,84,10000,1,0,49,9999,0.100000,0,0,0.000000,3,1.000000,0.000000,5.134335,0,0,0,0,0,0,0
1,19999,85,10000,1,0,40,9999,0.100000,0,0,0.000000,2,0.000000,0.000000,8.214090,0,0,0,0,0,0,0
1,19999,86,10000,0,0,40,9999,0.100000,0,0,0.000000,4,0.000000,0.000000,0.262788,0,0,0,0,0,0,0
1,19999,87,10000,1,0,49,9999,0.100000,0,0,0.000000,4,1.000000,0.000000,4.243278,0,0,0,0,0,0,0
1,19999,88,10000,1,0,40,9999,0.100000,0,0,0.000000,3,0.000000,0.000000,0.977709,0,0,0,0,0,0,0
1,19999,89,10000,1,0,49,9999,0.100000,0,0,0.000000,4,2.000000,0.000000,2.711119,0,0,0,0,0,0,0
1,19999,90,10000,1,0,40,9999,0.100000,0,0,0.000000,4,0.000000,0.000000,0.068439,0,0,0,0,0,0,0
1,19999,91,10000,0,0,49,9999,0.100000,0,0,0.000000,4,5.000000,0.000000,9.504547,0,0,0,0,0,0,0
1,19999,92,10000,19,0,49,9999,0.100000,0,0,0.000000,4,2.000000,0.000000,3.010869,0,0,0,0,0,0,0
1,19999,93,10000,0,0,49,9999,0.100000,0,0,0.000000,4,1.000000,0.000000,11.407539,0,0,0,0,0,0,0
1,19999,94,10000,19,0,40,9999,0.100000,0,0,0.000000,3,0.000000,0.000000,0.488501,0,0,0,0,0,0,0
1,19999,95,10000,95,0,40,9999,0.100000,0,0,0.000000,3,0.000000,0.000000,9.446528,0,0,0,0,0,0,0
1,19999,96,10000,1,0,49,9999,0.100000,0,0,0.000000,4,1.000000,0.000000,5.635849,0,0,0,0,0,0,0
1,19999,97,10000,21,0,40,9999,0.100000,0,0,0.000000,4,0.000000,0.000000,0.458289,0,0,0,0,0,0,0
1,19999,98,10000,0,0,49,9999,0.100000,0,0,0.000000,3,3.000000,0.000000,17.263366,0,0,0,0,0,0,0
1,19999,99,10000,0,0,49,9999,0.100000,0,0,0.000000,4,1.000000,0.000000,6.947966,0,0,0,0,0,0,0
2,29999,0,20000,0,10000,40,9999,0.100000,0,0,0.000000,5,0.000000,0.000000,0.267292,0,0,0,0,0,0,0
2,29999,1,20000,21,0,40,9999,0.100000,0,0,0.000000,4,0.000000,0.000000,3.027559,0,0,0,0,0,0,0
2,29999,2,20000,2,0,40,9999,0.100000,0,0,0.000000,5,0.000000,0.000000,3.410215,0,0,0,0,0,0,0
2,29999,3,20000,2,0,40,9999,0.100000,0,0,0.000000,5,0.000000,0.000000,0.180834,0,0,0,0,0,0,0
2,29999,4,20000,2,0,40,9999,0.100000,0,0,0.000000,5,0.000000,0.000000,0.456447,0,0,0,0,0,0,0
2,29999,5,20000,2,0,40,9999,0.100000,0,0,0.000000,5,0.000000,0.000000,0.132755,0,0,0,0,0,0,0
2,29999,6,20000,1,0,40,9999,0.100000,0,0,0.000000,5,0.000000,0.000000,0.187599,0,0,0,0,0,0,0
2,29999,7,20000,2,0,40,9999,0.100000,0,0,0.000000,5,0.000000,0.000000,0.529787,0,0,0,0,0,0,0
2,29999,8,20000,21,0,49,9999,0.100000,0,0,0.000000,5,3.000000,0.000000,8.350739,0,0,0,0,0,0,0
2,29999,9,20000,21,0,40,9999,0.100000,0,0,0.000000,5,0.000000,0.000000,0.092828,0,0,0,0,0,0,0
2,29999,10,20000,2,0,40,9999,0.100000,0,0,0.000000,5,0.000000,0.000000,0.113403,0,0,0,0,0,0,0
2,29999,11,20000,21,0,40,9999,0.100000,0,0,0.000000,5,0.000000,0.000000,0.123639,0,0,0,0,0,0,0
2,29999,12,20000,0,10000,40,9999,0.100000,0,0,0.000000,5,0.000000,0.000000,0.412991,0,0,0,0,0,0,0
2,29999,13,20000,0,10000,40,9999,0.100000,0,0,0.000000,5,0.000000,0.000000,0.300454,0,0,0,0,0,0,0
2,29999,14,20000,21,0,49,9999,0.100000,0,0,0.000000,5,2.000000,0.000000,3.861685,0,0,0,0,0,0,0
2,29999,15,20000,1,0,40,9999,0.100000,0,0,0.000000,5,0.000000,0.000000,0.226948,0,0,0,0,0,0,0
2,29999,16,20000,0,10000,40,9999,0.100000,0,0,0.000000,5,0.000000,0.000000,0.316728,0,0,0,0,0,0,0
2,29999,17,20000,52,10000,49,9999,0.100000,0,0,0.000000,5,1.000000,0.000000,4.905061,0,0,0,0,0,0,0
2,29999,18,20000,21,0,40,9999,0.100000,0,0,0.000000,5,0.000000,0.000000,1.203381,0,0,0,0,0,0,0
2,29999,19,20000,2,0,40,9999,0.100000,0,0,0.000000,5,0.000000,0.000000,0.456460,0,0,0,0,0,0,0
2,29999,20,20000,21,0,40,9999,0.100000,0,0,0.000000,5,0.000000,0.000000,0.220482,0,0,0,0,0,0,0
2,29999,21,20000,0,0,40,9999,0.100000,0,0,0.000000,5,0.000000,0.000000,19.772697,0,0,0,0,0,0,0
2,29999,22,20000,0,10000,49,9999,0.100000,0,0,0.000000,5,5.000000,0.000000,11.701063,0,0,0,0,0,0,0
2,29999,23,20000,21,0,49,9999,0.100000,0,0,0.000000,5,1.000000,0.000000,8.639656,0,0,0,0,0,0,0
2,29999,24,20000,1,0,40,9999,0.100000,0,0,0.000000,5,0.000000,0.000000,0.134340,0,0,0,0,0,0,0
2,29999,25,20000,2,0,49,9999,0.100000,0,0,0.000000,5,1.000000,0.000000,5.848025,0,0,0,0,0,0,0
2,29999,26,20000,52,10000,40,9999,0.100000,0,0,0.000000,5,0.000000,0.000000,0.506883,0,0,0,0,0,0,0
2,29999,27,20000,52,10000,40,9999,0.100000,0,0,0.000000,5,0.000000,0.000000,0.992631,0,0,0,0,0,0,0
2,29999,28,20000,52,10000,49,9999,0.100000,0,0,0.000000,5,4.000000,0.000000,7.525362,0,0,0,0,0,0,0
2,29999,29,20000,21,0,40,9999,0.100000,0,0,0.000000,5,0.000000,0.000000,0.958598,0,0,0,0,0,0,0
2,29999,30,20000,0,10000,40,9999,0.100000,0,0,0.000000,5,0.000000,0.000000,0.166551,0,0,0,0,0,0,0
2,29999,31,20000,1,0,49,9999,0.100000,0,0,0.000000,5,4.000000,0.000000,5.452903,0,0,0,0,0,0,0
2,29999,32,20000,0,10000,49,9999,0.100000,0,0,0.000000,5,4.000000,0.000000,6.740291,0,0,0,0,0,0,0
2,29999,33,20000,2,0,40,9999,0.065000,0,0,0.000000,5,0.000000,0.000000,0.708025,0,0,0,0,0,0,0
2,29999,34,20000,0,10000,40,9999,0.100000,0,0,0.000000,5,0.000000,0.000000,1.313006,0,0,0,0,0,0,0
2,29999,35,20000,0,10000,40,9999,0.100000,0,0,0.000000,5,0.000000,0.000000,0.984097,0,0,0,0,0,0,0
2,29999,36,20000,0,10000,49,9999,0.100000,0,0,0.000000,5,4.000000,0.000000,6.536913,0,0,0,0,0,0,0
2,29999,37,20000,52,10000,9,9999,0.100000,0,0,34.210526,5,2.000000,0.000000,6.325583,0,0,0,0,1,0,0
2,29999,38,20000,2,0,49,9999,0.100000,0,0,0.000000,5,4.000000,0.000000,14.782168,0,0,0,0,0,0,0
2,29999,39,20000,52,10000,40,9999,0.100000,0,0,0.000000,5,0.000000,0.000000,0.873275,0,0,0,0,0,0,0
2,29999,40,20000,21,0,49,9999,0.100000,0,0,0.000000,5,2.000000,0.000000,4.142854,0,0,0,0,0,0,0
2,29999,41,20000,21,0,49,9999,0.100000,0,0,0.000000,5,1.000000,0.000000,1.683611,0,0,0,0,0,0,0
2,29999,42,20000,0,10000,40,9999,0.100000,0,0,0.000000,5,0.000000,0.000000,1.245903,0,0,0,0,0,0,0
2,29999,43,20000,1,0,40,9999,0.100000,0,0,0.000000,5,0.000000,0.000000,0.313245,0,0,0,0,0,0,0
2,29999,44,20000,21,0,49,9999,0.100000,0,0,0.000000,5,2.000000,0.000000,12.985219,0,0,0,0,0,0,0
2,29999,45,20000,1,0,49,9999,0.100000,0,0,0.000000,5,3.000000,0.000000,20.683480,0,0,0,0,0,0,0
2,29999,46,20000,52,10000,49,9999,0.100000,0,0,0.000000,5,5.000000,0.000000,15.306945,0,0,0,0,0,0,0
2,29999,47,20000,1,0,40,9999,0.100000,0,0,0.000000,5,0.000000,0.000000,1.048649,0,0,0,0,0,0,0
2,29999,48,20000,1,0,49,9999,0.100000,0,0,0.000000,5,4.000000,0.000000,5.771098,0,0,0,0,0,0,0
2,29999,49,20000,2,0,40,9999,0.100000,0,0,0.000000,5,0.000000,0.000000,0.126515,0,0,0,0,0,0,0
2,29999,50,20000,52,10000,49,9999,0.100000,0,0,68.421053,5,2.000000,0.000000,10.312213,0,0,1,0,1,0,0
2,29999,51,20000,52,10000,49,9999,0.100000,0,0,0.000000,5,5.000000,0.000000,20.297261,0,0,0,0,0,0,0
2,29999,52,20000,52,10000,40,9999,0.100000,0,0,0.000000,5,0.000000,0.000000,0.217801,0,0,0,0,0,0,0
2,29999,53,20000,52,10000,40,9999,0.100000,0,0,0.000000,5,0.000000,0.000000,0.097165,0,0,0,0,0,0,0
2,29999,54,20000,52,10000,40,9999,0.100000,0,0,0.000000,5,0.000000,0.000000,17.799370,0,0,0,0,0,0,0
2,29999,55,20000,2,0,49,9999,0.100000,0,0,0.000000,5,5.000000,0.000000,6.961604,0,0,0,0,0,0,0
2,29999,56,20000,0,10000,49,9999,0.100000,0,0,0.000000,5,7.000000,0.000000,19.472079,0,0,0,0,0,0,0
2,29999,57,20000,21,0,40,9999,0.100000,0,0,0.000000,5,0.000000,0.000000,0.690476,0,0,0,0,0,0,0
2,29999,58,20000,0,10000,40,9999,0.100000,0,0,0.000000,5,0.000000,0.000000,0.503025,0,0,0,0,0,0,0
2,29999,59,20000,0,10000,49,9999,0.100000,0,0,0.000000,5,2.000000,0.000000,12.152283,0,0,0,0,0,0,0
2,29999,60,20000,21,0,40,9999,0.100000,0,0,0.000000,5,0.000000,0.000000,0.091711,0,0,0,0,0,0,0
2,29999,61,20000,1,0,40,9999,0.100000,0,0,0.000000,5,0.000000,0.000000,0.210466,0,0,0,0,0,0,0
2,29999,62,20000,1,0,40,9999,0.100000,0,0,0.000000,5,0.000000,0.000000,0.095096,0,0,0,0,0,0,0
2,29999,63,20000,21,0,40,9999,0.100000,0,0,0.000000,5,0.000000,0.000000,0.172487,0,0,0,0,0,0,0
2,29999,64,20000,2,0,49,9999,0.100000,0,0,0.000000,5,1.000000,0.000000,6.508450,0,0,0,0,0,0,0
2,29999,65,20000,21,0,40,9999,0.100000,0,0,0.000000,5,0.000000,0.000000,0.321279,0,0,0,0,0,0,0
2,29999,66,20000,52,10000,40,9999,0.100000,0,0,0.000000,5,0.000000,0.000000,0.285728,0,0,0,0,0,0,0
2,29999,67,20000,2,0,40,9999,0.100000,0,0,0.000000,5,0.000000,0.000000,0.151091,0,0,0,0,0,0,0
2,29999,68,20000,2,0,49,9999,0.100000,0,0,0.000000,5,4.000000,0.000000,14.182648,0,0,0,0,0,0,0
2,29999,69,20000,0,10000,40,9999,0.100000,0,0,0.000000,5,0.000000,0.000000,0.114521,0,0,0,0,0,0,0
2,29999,70,20000,21,0,49,9999,0.100000,0,0,0.000000,5,2.000000,0.000000,9.024092,0,0,0,0,0,0,0
2,29999,71,20000,52,10000,49,9999,0.100000,0,0,0.000000,5,2.000000,0.000000,4.198854,0,0,0,0,0,0,0
2,29999,72,20000,2,0,49,9999,0.100000,0,0,0.000000,5,4.000000,0.000000,14.106738,0,0,0,0,0,0,0
2,29999,73,20000,52,10000,40,9999,0.100000,0,0,0.000000,5,0.000000,0.000000,0.152818,0,0,0,0,0,0,0
2,29999,74,20000,21,0,49,9999,0.100000,0,0,0.000000,5,1.000000,0.000000,10.122977,0,0,0,0,0,0,0
2,29999,75,20000,1,0,40,9999,0.100000,0,0,0.000000,5,0.000000,0.000000,0.432081,0,0,0,0,0,0,0
2,29999,76,20000,21,0,49,9999,0.100000,0,0,0.000000,5,1.000000,0.000000,7.655026,0,0,0,0,0,0,0
2,29999,77,20000,1,0,40,9999,0.100000,0,0,0.000000,5,0.000000,0.000000,0.193513,0,0,0,0,0,0,0
2,29999,78,20000,2,0,40,9999,0.100000,0,0,0.000000,5,0.000000,0.000000,0.184173,0,0,0,0,0,0,0
2,29999,79,20000,2,0,40,9999,0.100000,0,0,0.000000,5,0.000000,0.000000,0.601255,0,0,0,0,0,0,0
2,29999,80,20000,21,0,49,9999,0.100000,0,0,0.000000,5,4.000000,0.000000,12.068885,0,0,0,0,0,0,0
2,29999,81,20000,1,0,49,9999,0.100000,0,0,0.000000,5,4.000000,0.000000,8.254241,0,0,0,0,0,0,0
2,29999,82,20000,21,0,40,9999,0.100000,0,0,0.000000,5,0.000000,0.000000,0.787158,0,0,0,0,0,0,0
2,29999,83,20000,0,10000,40,9999,0.100000,0,0,0.000000,5,0.000000,0.000000,0.460685,0,0,0,0,0,0,0
2,29999,84,20000,21,0,49,9999,0.100000,0,0,0.000000,5,18.000000,0.000000,19.742862,0,0,0,0,0,0,0
2,29999,85,20000,1,0,49,9999,0.100000,0,0,0.000000,5,2.000000,0.000000,13.130032,0,0,0,0,0,0,0
2,29999,86,20000,52,10000,40,9999,0.100000,0,0,0.000000,5,0.000000,0.000000,0.107033,0,0,0,0,0,0,0
2,29999,87,20000,21,0,40,9999,0.100000,0,0,0.000000,5,0.000000,0.000000,0.363644,0,0,0,0,0,0,0
2,29999,88,20000,21,0,40,9999,0.100000,0,0,0.000000,5,0.000000,0.000000,0.746474,0,0,0,0,0,0,0
2,29999,89,20000,0,10000,40,9999,0.100000,0,0,0.000000,5,0.000000,0.000000,0.138899,0,0,0,0,0,0,0
2,29999,90,20000,2,0,40,9999,0.100000,0,0,0.000000,5,0.000000,0.000000,0.067862,0,0,0,0,0,0,0
2,29999,91,20000,52,10000,49,9999,0.100000,0,0,0.000000,5,2.000000,0.000000,4.137078,0,0,0,0,0,0,0
2,29999,92,20000,0,10000,49,9999,0.100000,0,0,0.000000,5,3.000000,0.000000,4.457897,0,0,0,0,0,0,0
2,29999,93,20000,21,0,40,9999,0.100000,0,0,0.000000,5,0.000000,0.000000,6.910866,0,0,0,0,0,0,0
2,29999,94,20000,52,10000,40,9999,0.100000,0,0,0.000000,5,0.000000,0.000000,2.051322,0,0,0,0,0,0,0
2,29999,95,20000,1,0,9,9999,0.100000,0,0,34.210526,5,3.000000,0.000000,11.594095,0,0,0,0,1,0,0
2,29999,96,20000,52,10000,49,9999,0.100000,0,0,0.000000,5,2.000000,0.000000,12.833930,0,0,0,0,0,0,0
2,29999,97,20000,0,10000,40,9999,0.100000,0,0,0.000000,5,0.000000,0.000000,0.311251,0,0,0,0,0,0,0
2,29999,98,20000,52,10000,49,9999,0.100000,0,0,0.000000,5,3.000000,0.000000,10.936187,0,0,0,0,0,0,0
2,29999,99,10000,0,0,40,19999,0.100000,0,0,0.000000,5,0.000000,0.000000,0.948554,0,0,0,0,0,0,0
3,39999,0,30000,0,10000,40,9999,0.100000,0,0,0.000000,5,0.000000,0.000000,0.122640,0,0,0,0,0,0,0
3,39999,1,30000,52,10000,9,9999,0.100000,0,0,34.210526,5,3.000000,0.000000,9.505993,0,0,0,0,0,0,1
3,39999,2,30000,2,0,40,9999,0.100000,0,0,0.000000,5,0.000000,0.000000,0.680121,0,0,0,0,0,0,0
3,39999,3,30000,50,20000,40,9999,0.100000,0,0,0.000000,5,0.000000,0.000000,0.157191,0,0,0,0,0,0,0
3,39999,4,30000,1,0,40,9999,0.100000,0,0,0.000000,5,0.000000,0.000000,0.795672,0,0,0,0,0,0,0
3,39999,5,30000,50,20000,40,9999,0.100000,0,0,0.000000,5,0.000000,0.000000,0.135137,0,0,0,0,0,0,0
3,39999,6,30000,21,0,40,9999,0.100000,0,0,0.000000,5,0.000000,0.000000,0.177416,0,0,0,0,0,0,0
3,39999,7,30000,0,10000,40,9999,0.100000,0,0,0.000000,5,0.000000,0.000000,0.169185,0,0,0,0,0,0,0
3,39999,8,30000,0,10000,49,9999,0.100000,0,0,0.000000,5,1.000000,0.000000,7.796084,0,0,0,0,0,0,0
3,39999,9,30000,1,0,40,9999,0.100000,0,0,0.000000,5,0.000000,0.000000,0.093348,0,0,0,0,0,0,0
3,39999,10,30000,21,0,40,9999,0.100000,0,0,0.000000,5,0.000000,0.000000,0.113151,0,0,0,0,0,0,0
3,39999,11,30000,0,10000,40,9999,0.100000,0,0,0.000000,5,0.000000,0.000000,0.126459,0,0,0,0,0,0,0
3,39999,12,30000,2,0,49,9999,0.100000,0,0,0.000000,5,1.000000,0.000000,1.607928,0,0,0,0,0,0,0
3,39999,13,30000,50,20000,40,9999,0.100000,0,0,0.000000,5,0.000000,0.000000,0.286090,0,0,0,0,0,0,0
3,39999,14,30000,2,0,40,9999,0.100000,0,0,0.000000,5,0.000000,0.000000,0.794337,0,0,0,0,0,0,0
3,39999,15,30000,0,10000,40,9999,0.100000,0,0,0.000000,5,0.000000,0.000000,0.218233,0,0,0,0,0,0,0
3,39999,16,30000,2,0,40,9999,0.100000,0,0,0.000000,5,0.000000,0.000000,1.011888,0,0,0,0,0,0,0
3,39999,17,30000,21,0,40,9999,0.100000,0,0,0.000000,5,0.000000,0.000000,2.231890,0,0,0,0,0,0,0
3,39999,18,30000,50,20000,40,9999,0.100000,0,0,0.000000,5,0.000000,0.000000,1.081730,0,0,0,0,0,0,0
3,39999,19,30000,50,20000,40,9999,0.100000,0,0,0.000000,5,0.000000,0.000000,0.414479,0,0,0,0,0,0,0
3,39999,20,30000,52,10000,40,9999,0.100000,0,0,0.000000,5,0.000000,0.000000,0.287449,0,0,0,0,0,0,0
3,39999,21,30000,52,10000,40,9999,0.100000,0,0,0.000000,5,0.000000,0.000000,20.812413,0,0,0,0,0,0,0
3,39999,22,30000,50,20000,9,9999,0.100000,0,0,34.210526,5,6.000000,0.000000,15.559727,0,0,0,0,0,0,1
3,39999,23,30000,50,20000,49,9999,0.100000,0,0,0.000000,5,2.000000,0.000000,9.031229,0,0,0,0,0,0,0
3,39999,24,30000,0,10000,40,9999,0.100000,0,0,0.000000,5,0.000000,0.000000,0.143032,0,0,0,0,0,0,0
3,39999,25,30000,0,10000,49,9999,0.100000,0,0,0.000000,5,2.000000,0.000000,5.253240,0,0,0,0,0,0,0
3,39999,26,30000,52,10000,40,9999,0.100000,0,0,0.000000,5,0.000000,0.000000,0.144173,0,0,0,0,0,0,0
3,39999,27,30000,50,20000,40,9999,0.100000,0,0,0.000000,5,0.000000,0.000000,1.051493,0,0,0,0,0,0,0
3,39999,28,30000,52,10000,40,9999,0.100000,0,0,0.000000,5,0.000000,0.000000,1.023144,0,0,0,0,0,0,0
3,39999,29,30000,52,10000,40,9999,0.100000,0,0,0.000000,5,0.000000,0.000000,0.612591,0,0,0,0,0,0,0
3,39999,30,30000,0,10000,40,9999,0.100000,0,0,0.000000,5,0.000000,0.000000,0.165921,0,0,0,0,0,0,0
3,39999,31,30000,21,0,40,9999,0.100000,0,0,0.000000,5,0.000000,0.000000,0.420307,0,0,0,0,0,0,0
3,39999,32,30000,21,0,49,9999,0.100000,0,0,0.000000,5,1.000000,0.000000,24.116822,0,0,0,0,0,0,0
3,39999,33,30000,21,0,40,9999,0.100000,0,0,0.000000,5,0.000000,0.000000,0.706124,0,0,0,0,0,0,0
3,39999,34,30000,50,20000,40,9999,0.100000,0,0,0.000000,5,0.000000,0.000000,1.312103,0,0,0,0,0,0,0
3,39999,35,30000,0,10000,40,9999,0.100000,0,0,0.000000,5,0.000000,0.000000,0.922198,0,0,0,0,0,0,0
3,39999,36,30000,21,0,49,9999,0.100000,0,0,0.000000,5,1.000000,0.000000,24.110203,0,0,0,0,0,0,0
3,39999,37,30000,0,10000,99,9999,0.100000,0,0,34.210526,5,3.000000,0.000000,19.281521,0,0,1,0,0,0,0
3,39999,38,30000,52,10000,49,9999,0.100000,0,0,0.000000,5,3.000000,0.000000,8.583737,0,0,0,0,0,0,0
3,39999,39,30000,52,10000,49,9999,0.100000,0,0,0.000000,5,1.000000,0.000000,4.054332,0,0,0,0,0,0,0
3,39999,40,30000,2,0,49,9999,0.100000,0,0,0.000000,5,1.000000,0.000000,3.402189,0,0,0,0,0,0,0
3,39999,41,30000,52,10000,49,9999,0.100000,0,0,0.000000,5,4.000000,0.000000,6.291569,0,0,0,0,0,0,0
3,39999,42,30000,21,0,40,9999,0.100000,0,0,0.000000,5,0.000000,0.000000,2.779397,0,0,0,0,0,0,0
3,39999,43,30000,2,0,40,9999,0.100000,0,0,0.000000,5,0.000000,0.000000,0.626765,0,0,0,0,0,0,0
3,39999,44,30000,52,10000,49,9999,0.100000,0,0,0.000000,5,1.000000,0.000000,11.682269,0,0,0,0,0,0,0
3,39999,45,30000,52,10000,40,9999,0.100000,0,0,0.000000,5,0.000000,0.000000,5.061569,0,0,0,0,0,0,0
3,39999,46,30000,52,10000,40,9999,0.100000,0,0,0.000000,5,0.000000,0.000000,0.589874,0,0,0,0,0,0,0
3,39999,47,30000,21,0,40,9999,0.100000,0,0,0.000000,5,0.000000,0.000000,1.271810,0,0,0,0,0,0,0
3,39999,48,30000,0,10000,40,9999,0.100000,0,0,0.000000,5,0.000000,0.000000,0.702353,0,0,0,0,0,0,0
3,39999,49,30000,50,20000,40,9999,0.100000,0,0,0.000000,5,0.000000,0.000000,0.126968,0,0,0,0,0,0,0
3,39999,50,30000,52,10000,9,9999,0.100000,0,0,0.000000,5,2.000000,0.000000,5.776239,0,0,0,0,0,0,5
3,39999,51,30000,52,10000,40,9999,0.100000,0,0,0.000000,5,0.000000,0.000000,11.101807,0,0,0,0,0,0,0
3,39999,52,30000,52,10000,40,9999,0.100000,0,0,0.000000,5,0.000000,0.000000,0.413609,0,0,0,0,0,0,0
3,39999,53,30000,52,10000,40,9999,0.100000,0,0,0.000000,5,0.000000,0.000000,0.094238,0,0,0,0,0,0,0
3,39999,54,30000,50,20000,40,9999,0.100000,0,0,0.000000,5,0.000000,0.000000,2.354929,0,0,0,0,0,0,0
3,39999,55,30000,0,10000,40,9999,0.100000,0,0,0.000000,5,0.000000,0.000000,0.789809,0,0,0,0,0,0,0
3,39999,56,20000,0,10000,49,19999,0.100000,0,0,0.000000,5,1.000000,0.000000,1.949284,0,0,0,0,0,0,0
3,39999,57,30000,2,0,9,9999,0.100000,0,0,0.000000,5,1.000000,0.000000,1.699873,0,0,0,0,0,0,5
3,39999,58,30000,2,0,9,9999,0.100000,0,0,34.210526,5,3.000000,0.000000,5.595432,0,0,0,0,0,0,1
3,39999,59,30000,52,10000,49,9999,0.100000,0,0,0.000000,5,3.000000,0.000000,7.320561,0,0,0,0,0,0,0
3,39999,60,30000,0,10000,40,9999,0.100000,0,0,0.000000,5,0.000000,0.000000,0.091279,0,0,0,0,0,0,0
3,39999,61,30000,2,0,40,9999,0.100000,0,0,0.000000,5,0.000000,0.000000,0.214544,0,0,0,0,0,0,0
3,39999,62,30000,0,10000,40,9999,0.100000,0,0,0.000000,5,0.000000,0.000000,0.095287,0,0,0,0,0,0,0
3,39999,63,30000,52,10000,40,9999,0.100000,0,0,0.000000,5,0.000000,0.000000,0.127870,0,0,0,0,0,0,0
3,39999,64,30000,52,10000,49,9999,0.100000,0,0,0.000000,5,1.000000,0.000000,8.315968,0,0,0,0,0,0,0
3,39999,65,30000,21,0,40,9999,0.100000,0,0,0.000000,5,0.000000,0.000000,0.493322,0,0,0,0,0,0,0
3,39999,66,30000,52,10000,49,9999,0.100000,0,0,0.000000,5,4.000000,0.000000,7.549730,0,0,0,0,0,0,0
3,39999,67,30000,21,0,40,9999,0.100000,0,0,0.000000,5,0.000000,0.000000,0.206791,0,0,0,0,0,0,0
3,39999,68,30000,50,20000,49,9999,0.100000,0,0,0.000000,5,1.000000,0.000000,12.087596,0,0,0,0,0,0,0
3,39999,69,30000,52,10000,40,9999,0.100000,0,0,0.000000,5,0.000000,0.000000,0.121419,0,0,0,0,0,0,0
3,39999,70,30000,52,10000,40,9999,0.100000,0,0,0.000000,5,0.000000,0.000000,21.252869,0,0,0,0,0,0,0
3,39999,71,30000,21,0,40,9999,0.100000,0,0,0.000000,5,0.000000,0.000000,0.935815,0,0,0,0,0,0,0
3,39999,72,30000,2,0,49,9999,0.100000,0,0,0.000000,5,3.000000,0.000000,12.485525,0,0,0,0,0,0,0
3,39999,73,30000,2,0,40,9999,0.100000,0,0,0.000000,5,0.000000,0.000000,0.142453,0,0,0,0,0,0,0
3,39999,74,30000,52,10000,49,9999,0.100000,0,0,0.000000,5,1.000000,0.000000,7.934649,0,0,0,0,0,0,0
3,39999,75,30000,21,0,40,9999,0.100000,0,0,0.000000,5,0.000000,0.000000,0.098188,0,0,0,0,0,0,0
3,39999,76,30000,50,20000,9,9999,0.100000,0,0,34.210526,5,7.000000,0.000000,21.525222,0,0,0,0,0,0,1
3,39999,77,30000,0,10000,40,9999,0.100000,0,0,0.000000,5,0.000000,0.000000,0.322115,0,0,0,0,0,0,0
3,39999,78,30000,52,10000,40,9999,0.100000,0,0,0.000000,5,0.000000,0.000000,0.191328,0,0,0,0,0,0,0
3,39999,79,30000,52,10000,40,9999,0.100000,0,0,0.000000,5,0.000000,0.000000,0.766923,0,0,0,0,0,0,0
3,39999,80,30000,50,20000,40,9999,0.100000,0,0,0.000000,5,0.000000,0.000000,1.198093,0,0,0,0,0,0,0
3,39999,81,30000,21,0,40,9999,0.100000,0,0,0.000000,5,0.000000,0.000000,0.127376,0,0,0,0,0,0,0
3,39999,82,30000,52,10000,40,9999,0.100000,0,0,0.000000,5,0.000000,0.000000,0.867121,0,0,0,0,0,0,0
3,39999,83,30000,2,0,40,9999,0.100000,0,0,0.000000,5,0.000000,0.000000,0.564848,0,0,0,0,0,0,0
3,39999,84,30000,21,0,49,9999,0.100000,0,0,0.000000,5,3.000000,0.000000,5.008579,0,0,0,0,0,0,0
3,39999,85,30000,2,0,49,9999,0.100000,0,0,0.000000,5,2.000000,0.000000,5.639303,0,0,0,0,0,0,0
3,39999,86,30000,2,0,40,9999,0.100000,0,0,0.000000,5,0.000000,0.000000,0.107664,0,0,0,0,0,0,0
3,39999,87,30000,21,0,40,9999,0.100000,0,0,0.000000,5,0.000000,0.000000,0.343481,0,0,0,0,0,0,0
3,39999,88,30000,50,20000,40,9999,0.100000,0,0,0.000000,5,0.000000,0.000000,0.993298,0,0,0,0,0,0,0
3,39999,89,30000,21,0,40,9999,0.100000,0,0,0.000000,5,0.000000,0.000000,0.133958,0,0,0,0,0,0,0
3,39999,90,30000,0,10000,40,9999,0.100000,0,0,0.000000,5,0.000000,0.000000,0.067327,0,0,0,0,0,0,0
3,39999,91,30000,0,10000,9,9999,0.100000,0,0,34.210526,5,3.000000,0.000000,8.315209,0,0,0,0,0,0,1
3,39999,92,30000,52,10000,40,9999,0.100000,0,0,0.000000,5,0.000000,0.000000,0.136613,0,0,0,0,0,0,0
3,39999,93,30000,2,0,49,9999,0.100000,0,0,0.000000,5,1.000000,0.000000,4.747498,0,0,0,0,0,0,0
3,39999,94,30000,2,0,40,9999,0.100000,0,0,0.000000,5,0.000000,0.000000,0.711967,0,0,0,0,0,0,0
3,39999,95,30000,52,10000,49,9999,0.100000,0,0,0.000000,5,1.000000,0.000000,4.987847,0,0,0,0,0,0,0
3,39999,96,30000,21,0,49,9999,0.100000,0,0,0.000000,5,1.000000,0.000000,22.200287,0,0,0,0,0,0,0
3,39999,97,30000,50,20000,40,9999,0.100000,0,0,0.000000,5,0.000000,0.000000,0.545284,0,0,0,0,0,0,0
3,39999,98,30000,52,10000,49,9999,0.100000,0,0,0.000000,5,2.000000,0.000000,10.895493,0,0,0,0,0,0,0
3,39999,99,30000,50,20000,40,9999,0.100000,0,0,0.000000,5,0.000000,0.000000,0.951752,0,0,0,0,0,0,0
4,49999,0,40000,2,0,49,9999,0.100000,0,0,0.000000,5,9.000000,0.000000,18.755556,0,0,0,0,0,0,0
4,49999,1,40000,50,20000,40,9999,0.100000,0,0,0.000000,5,0.000000,0.000000,11.308852,0,0,0,0,0,0,0
4,49999,2,40000,0,10000,40,9999,0.100000,0,0,0.000000,5,0.000000,0.000000,1.466341,0,0,0,0,0,0,0
4,49999,3,40000,50,20000,40,9999,0.100000,0,0,0.000000,5,0.000000,0.000000,0.150166,0,0,0,0,0,0,0
4,49999,4,40000,0,10000,40,9999,0.100000,0,0,0.000000,5,0.000000,0.000000,0.481992,0,0,0,0,0,0,0
4,49999,5,40000,21,0,40,9999,0.100000,0,0,0.000000,5,0.000000,0.000000,0.127201,0,0,0,0,0,0,0
4,49999,6,40000,52,10000,40,9999,0.100000,0,0,0.000000,5,0.000000,0.000000,0.283320,0,0,0,0,0,0,0
4,49999,7,40000,21,0,40,9999,0.100000,0,0,0.000000,5,0.000000,0.000000,0.167285,0,0,0,0,0,0,0
4,49999,8,40000,21,0,40,9999,0.100000,0,0,0.000000,5,0.000000,0.000000,0.265580,0,0,0,0,0,0,0
4,49999,9,40000,50,20000,40,9999,0.100000,0,0,0.000000,5,0.000000,0.000000,0.095291,0,0,0,0,0,0,0
4,49999,10,40000,21,0,40,9999,0.100000,0,0,0.000000,5,0.000000,0.000000,0.253443,0,0,0,0,0,0,0
4,49999,11,40000,0,10000,40,9999,0.100000,0,0,0.000000,5,0.000000,0.000000,0.126576,0,0,0,0,0,0,0
4,49999,12,40000,0,10000,49,9999,0.100000,0,0,0.000000,5,3.000000,0.000000,4.570312,0,0,0,0,0,0,0
4,49999,13,40000,52,10000,40,9999,0.100000,0,0,0.000000,5,0.000000,0.000000,0.283057,0,0,0,0,0,0,0
4,49999,14,40000,0,10000,40,9999,0.100000,0,0,0.000000,5,0.000000,0.000000,0.847257,0,0,0,0,0,0,0
4,49999,15,40000,0,10000,40,9999,0.100000,0,0,0.000000,5,0.000000,0.000000,0.220299,0,0,0,0,0,0,0
4,49999,16,40000,50,20000,40,9999,0.100000,0,0,0.000000,5,0.000000,0.000000,0.131542,0,0,0,0,0,0,0
4,49999,17,40000,2,0,40,9999,0.100000,0,0,0.000000,5,0.000000,0.000000,3.859194,0,0,0,0,0,0,0
4,49999,18,30000,50,20000,49,19999,0.100000,0,0,0.000000,5,2.000000,0.000000,8.887668,0,0,0,0,0,0,0
4,49999,19,40000,50,20000,40,9999,0.100000,0,0,0.000000,5,0.000000,0.000000,1.003130,0,0,0,0,0,0,0
4,49999,20,40000,0,10000,40,9999,0.100000,0,0,0.000000,5,0.000000,0.000000,0.188035,0,0,0,0,0,0,0
4,49999,21,40000,0,10000,40,9999,0.100000,0,0,0.000000,5,0.000000,0.000000,21.032408,0,0,0,0,0,0,0
4,49999,22,40000,50,20000,49,9999,0.100000,0,0,0.000000,5,1.000000,0.000000,9.966487,0,0,0,0,0,0,0
4,49999,23,40000,50,20000,49,9999,0.100000,0,0,0.000000,5,2.000000,0.000000,7.254534,0,0,0,0,0,0,0
4,49999,24,40000,0,10000,40,9999,0.100000,0,0,0.000000,5,0.000000,0.000000,0.144087,0,0,0,0,0,0,0
4,49999,25,40000,52,10000,49,9999,0.100000,0,0,0.000000,5,1.000000,0.000000,2.347809,0,0,0,0,0,0,0
4,49999,26,40000,52,10000,40,9999,0.100000,0,0,0.000000,5,0.000000,0.000000,0.292222,0,0,0,0,0,0,0
4,49999,27,40000,50,20000,40,9999,0.100000,0,0,0.000000,5,0.000000,0.000000,0.599349,0,0,0,0,0,0,0
4,49999,28,40000,52,10000,40,9999,0.100000,0,0,0.000000,5,0.000000,0.000000,3.285283,0,0,0,0,0,0,0
4,49999,29,40000,52,10000,40,9999,0.100000,0,0,0.000000,5,0.000000,0.000000,0.722180,0,0,0,0,0,0,0
4,49999,30,40000,2,0,9,9999,0.100000,0,0,34.210526,5,10.000000,0.000000,14.114587,0,0,0,1,0,0,0
4,49999,31,40000,50,20000,40,9999,0.100000,0,0,0.000000,5,0.000000,0.000000,0.308779,0,0,0,0,0,0,0
4,49999,32,40000,2,0,9,9999,0.100000,0,0,34.210526,5,8.000000,0.000000,17.083260,0,0,0,1,0,0,0
4,49999,33,40000,0,10000,40,9999,0.100000,0,0,0.000000,5,0.000000,0.000000,0.795969,0,0,0,0,0,0,0
4,49999,34,40000,0,10000,40,9999,0.100000,0,0,0.000000,5,0.000000,0.000000,2.854088,0,0,0,0,0,0,0
4,49999,35,40000,52,10000,40,9999,0.100000,0,0,0.000000,5,0.000000,0.000000,0.909376,0,0,0,0,0,0,0
4,49999,36,40000,0,10000,9,9999,0.100000,0,0,34.210526,5,7.000000,0.000000,18.456367,0,0,0,1,0,0,0
4,49999,37,40000,2,0,49,9999,0.100000,0,0,0.000000,5,2.000000,0.000000,15.579802,0,0,0,0,0,0,0
4,49999,38,40000,2,0,49,9999,0.100000,0,0,0.000000,5,3.000000,0.000000,8.845070,0,0,0,0,0,0,0
4,49999,39,40000,52,10000,40,9999,0.100000,0,0,0.000000,5,0.000000,0.000000,1.703615,0,0,0,0,0,0,0
4,49999,40,40000,2,0,40,9999,0.100000,0,0,0.000000,5,0.000000,0.000000,0.525276,0,0,0,0,0,0,0
4,49999,41,40000,50,20000,49,9999,0.100000,0,0,0.000000,5,1.000000,0.000000,3.251487,0,0,0,0,0,0,0
4,49999,42,40000,2,0,49,9999,0.100000,0,0,0.000000,5,1.000000,0.000000,4.562689,0,0,0,0,0,0,0
4,49999,43,40000,52,10000,40,9999,0.100000,0,0,0.000000,5,0.000000,0.000000,3.113245,0,0,0,0,0,0,0
4,49999,44,40000,2,0,49,9999,0.100000,0,0,0.000000,5,11.000000,0.000000,25.570671,0,0,0,0,0,0,0
4,49999,45,40000,0,10000,49,9999,0.100000,0,0,0.000000,5,1.000000,0.000000,5.409968,0,0,0,0,0,0,0
4,49999,46,40000,0,10000,40,9999,0.100000,0,0,0.000000,5,0.000000,0.000000,0.369288,0,0,0,0,0,0,0
4,49999,47,40000,0,10000,40,9999,0.100000,0,0,0.000000,5,0.000000,0.000000,0.588974,0,0,0,0,0,0,0
4,49999,48,40000,2,0,40,9999,0.100000,0,0,0.000000,5,0.000000,0.000000,0.720091,0,0,0,0,0,0,0
4,49999,49,40000,0,10000,40,9999,0.100000,0,0,0.000000,5,0.000000,0.000000,0.127016,0,0,0,0,0,0,0
4,49999,50,40000,52,10000,49,9999,0.100000,0,0,0.000000,5,1.000000,0.000000,11.247268,0,0,0,0,0,0,0
4,49999,51,40000,50,20000,40,9999,0.100000,0,0,0.000000,5,0.000000,0.000000,9.598475,0,0,0,0,0,0,0
4,49999,52,40000,21,0,40,9999,0.100000,0,0,0.000000,5,0.000000,0.000000,0.215381,0,0,0,0,0,0,0
4,49999,53,40000,21,0,40,9999,0.100000,0,0,0.000000,5,0.000000,0.000000,0.160697,0,0,0,0,0,0,0
4,49999,54,40000,21,0,40,9999,0.100000,0,0,0.000000,5,0.000000,0.000000,18.197968,0,0,0,0,0,0,0
4,49999,55,40000,0,10000,40,9999,0.100000,0,0,0.000000,5,0.000000,0.000000,1.045401,0,0,0,0,0,0,0
4,49999,56,40000,21,0,49,9999,0.135000,0,0,0.000000,5,1.000000,0.000000,3.603754,0,0,0,0,0,0,0
4,49999,57,40000,52,10000,49,9999,0.100000,0,0,0.000000,5,1.000000,0.000000,4.657690,0,0,0,0,0,0,0
4,49999,58,40000,50,20000,49,9999,0.100000,0,0,0.000000,5,3.000000,0.000000,13.364952,0,0,0,0,0,0,0
4,49999,59,40000,21,0,49,9999,0.100000,0,0,0.000000,5,2.000000,0.000000,12.250088,0,0,0,0,0,0,0
4,49999,60,40000,21,0,40,9999,0.100000,0,0,0.000000,5,0.000000,0.000000,0.091395,0,0,0,0,0,0,0
4,49999,61,40000,2,0,40,9999,0.100000,0,0,0.000000,5,0.000000,0.000000,0.203483,0,0,0,0,0,0,0
4,49999,62,40000,21,0,40,9999,0.100000,0,0,0.000000,5,0.000000,0.000000,0.095729,0,0,0,0,0,0,0
4,49999,63,40000,0,10000,40,9999,0.100000,0,0,0.000000,5,0.000000,0.000000,0.127223,0,0,0,0,0,0,0
4,49999,64,40000,50,20000,49,9999,0.100000,0,0,0.000000,5,2.000000,0.000000,11.839365,0,0,0,0,0,0,0
4,49999,65,40000,52,10000,40,9999,0.100000,0,0,0.000000,5,0.000000,0.000000,0.422287,0,0,0,0,0,0,0
4,49999,66,40000,50,20000,49,9999,0.100000,0,0,0.000000,5,3.000000,0.000000,4.112415,0,0,0,0,0,0,0
4,49999,67,40000,52,10000,40,9999,0.100000,0,0,0.000000,5,0.000000,0.000000,0.234266,0,0,0,0,0,0,0
4,49999,68,40000,0,10000,49,9999,0.100000,0,0,0.000000,5,3.000000,0.000000,4.895200,0,0,0,0,0,0,0
4,49999,69,40000,52,10000,40,9999,0.100000,0,0,0.000000,5,0.000000,0.000000,0.121163,0,0,0,0,0,0,0
4,49999,70,40000,2,0,9,9999,0.100000,0,0,34.210526,5,11.000000,0.000000,18.213474,0,0,0,1,0,0,0
4,49999,71,40000,52,10000,40,9999,0.100000,0,0,0.000000,5,0.000000,0.000000,0.881881,0,0,0,0,0,0,0
4,49999,72,40000,2,0,40,9999,0.100000,0,0,0.000000,5,0.000000,0.000000,0.315001,0,0,0,0,0,0,0
4,49999,73,40000,52,10000,40,9999,0.100000,0,0,0.000000,5,0.000000,0.000000,0.141576,0,0,0,0,0,0,0
4,49999,74,40000,2,0,49,9999,0.100000,0,0,0.000000,5,1.000000,0.000000,10.928362,0,0,0,0,0,0,0
4,49999,75,40000,50,20000,40,9999,0.100000,0,0,0.000000,5,0.000000,0.000000,0.100694,0,0,0,0,0,0,0
4,49999,76,40000,21,0,49,9999,0.100000,0,0,0.000000,5,3.000000,0.000000,8.993816,0,0,0,0,0,0,0
4,49999,77,40000,21,0,40,9999,0.100000,0,0,0.000000,5,0.000000,0.000000,0.447778,0,0,0,0,0,0,0
4,49999,78,40000,52,10000,40,9999,0.100000,0,0,0.000000,5,0.000000,0.000000,0.204765,0,0,0,0,0,0,0
4,49999,79,40000,0,10000,40,9999,0.100000,0,0,0.000000,5,0.000000,0.000000,0.569458,0,0,0,0,0,0,0
4,49999,80,40000,50,20000,40,9999,0.100000,0,0,0.000000,5,0.000000,0.000000,0.148903,0,0,0,0,0,0,0
4,49999,81,40000,2,0,40,9999,0.100000,0,0,0.000000,5,0.000000,0.000000,0.322129,0,0,0,0,0,0,0
4,49999,82,40000,0,10000,40,9999,0.100000,0,0,0.000000,5,0.000000,0.000000,0.495888,0,0,0,0,0,0,0
4,49999,83,40000,0,10000,40,9999,0.100000,0,0,0.000000,5,0.000000,0.000000,0.297161,0,0,0,0,0,0,0
4,49999,84,40000,21,0,49,9999,0.100000,0,0,0.000000,5,2.000000,0.000000,4.757421,0,0,0,0,0,0,0
4,49999,85,40000,0,10000,49,9999,0.100000,0,0,0.000000,5,2.000000,0.000000,9.885698,0,0,0,0,0,0,0
4,49999,86,40000,0,10000,40,9999,0.100000,0,0,0.000000,5,0.000000,0.000000,0.107134,0,0,0,0,0,0,0
4,49999,87,40000,2,0,40,9999,0.100000,0,0,0.000000,5,0.000000,0.000000,0.381790,0,0,0,0,0,0,0
4,49999,88,40000,50,20000,40,9999,0.100000,0,0,0.000000,5,0.000000,0.000000,0.610075,0,0,0,0,0,0,0
4,49999,89,40000,52,10000,40,9999,0.100000,0,0,0.000000,5,0.000000,0.000000,0.134782,0,0,0,0,0,0,0
4,49999,90,40000,2,0,40,9999,0.100000,0,0,0.000000,5,0.000000,0.000000,0.066807,0,0,0,0,0,0,0
4,49999,91,40000,2,0,40,9999,0.100000,0,0,0.000000,5,0.000000,0.000000,5.619888,0,0,0,0,0,0,0
4,49999,92,40000,0,10000,40,9999,0.100000,0,0,0.000000,5,0.000000,0.000000,0.133567,0,0,0,0,0,0,0
4,49999,93,40000,0,10000,49,9999,0.100000,0,0,0.000000,5,2.000000,0.000000,10.173674,0,0,0,0,0,0,0
4,49999,94,40000,50,20000,40,9999,0.100000,0,0,0.000000,5,0.000000,0.000000,0.433464,0,0,0,0,0,0,0
4,49999,95,40000,21,0,49,9999,0.100000,0,0,0.000000,5,1.000000,0.000000,13.190233,0,0,0,0,0,0,0
4,49999,96,40000,50,20000,49,9999,0.100000,0,0,0.000000,5,2.000000,0.000000,21.855682,0,0,0,0,0,0,0
4,49999,97,40000,0,10000,40,9999,0.100000,0,0,0.000000,5,0.000000,0.000000,0.317459,0,0,0,0,0,0,0
4,49999,98,40000,52,10000,40,9999,0.100000,0,0,0.000000,5,0.000000,0.000000,9.937975,0,0,0,0,0,0,0
4,49999,99,40000,21,0,40,9999,0.100000,0,0,0.000000,5,0.000000,0.000000,0.915468,0,0,0,0,0,0,0
5,59999,0,50000,0,40000,40,9999,0.100000,0,0,0.000000,5,0.000000,0.000000,0.366678,0,0,0,0,0,0,0
5,59999,1,50000,50,20000,49,9999,0.100000,0,0,0.000000,5,5.000000,0.000000,23.771530,0,0,0,0,0,0,0
5,59999,2,50000,0,40000,49,9999,0.100000,0,0,0.000000,5,1.000000,0.000000,1.941840,0,0,0,0,0,0,0
5,59999,3,50000,2,0,40,9999,0.100000,0,0,0.000000,5,0.000000,0.000000,0.364407,0,0,0,0,0,0,0
5,59999,4,50000,50,20000,40,9999,0.100000,0,0,0.000000,5,0.000000,0.000000,0.852929,0,0,0,0,0,0,0
5,59999,5,50000,50,20000,40,9999,0.100000,0,0,0.000000,5,0.000000,0.000000,0.126631,0,0,0,0,0,0,0
5,59999,6,50000,21,0,40,9999,0.100000,0,0,0.000000,5,0.000000,0.000000,0.206035,0,0,0,0,0,0,0
5,59999,7,50000,0,40000,40,9999,0.100000,0,0,0.000000,5,0.000000,0.000000,0.359777,0,0,0,0,0,0,0
5,59999,8,50000,21,0,49,9999,0.100000,0,0,0.000000,5,1.000000,0.000000,1.295289,0,0,0,0,0,0,0
5,59999,9,50000,21,0,40,9999,0.100000,0,0,0.000000,5,0.000000,0.000000,0.094727,0,0,0,0,0,0,0
5,59999,10,50000,50,20000,40,9999,0.100000,0,0,0.000000,5,0.000000,0.000000,0.193296,0,0,0,0,0,0,0
5,59999,11,50000,0,10000,40,9999,0.100000,0,0,0.000000,5,0.000000,0.000000,0.225041,0,0,0,0,0,0,0
5,59999,12,50000,0,10000,9,9999,0.100000,0,0,34.210526,5,3.000000,0.000000,10.960292,0,0,0,1,0,0,0
5,59999,13,50000,2,0,40,9999,0.100000,0,0,0.000000,5,0.000000,0.000000,0.283367,0,0,0,0,0,0,0
5,59999,14,50000,0,10000,40,9999,0.100000,0,0,0.000000,5,0.000000,0.000000,0.929621,0,0,0,0,0,0,0
5,59999,15,50000,0,10000,40,9999,0.100000,0,0,0.000000,5,0.000000,0.000000,0.209837,0,0,0,0,0,0,0
5,59999,16,50000,0,40000,40,9999,0.100000,0,0,0.000000,5,0.000000,0.000000,0.129341,0,0,0,0,0,0,0
5,59999,17,50000,21,0,40,9999,0.100000,0,0,0.000000,5,0.000000,0.000000,0.502792,0,0,0,0,0,0,0
5,59999,18,50000,52,10000,40,9999,0.100000,0,0,0.000000,5,0.000000,0.000000,0.647541,0,0,0,0,0,0,0
5,59999,19,50000,2,0,49,9999,0.100000,0,0,0.000000,5,1.000000,0.000000,1.628540,0,0,0,0,0,0,0
5,59999,20,50000,50,20000,40,9999,0.100000,0,0,0.000000,5,0.000000,0.000000,0.866026,0,0,0,0,0,0,0
5,59999,21,50000,50,20000,40,9999,0.100000,0,0,0.000000,5,0.000000,0.000000,21.300174,0,0,0,0,0,0,0
5,59999,22,50000,50,20000,40,9999,0.100000,0,0,0.000000,5,0.000000,0.000000,8.560963,0,0,0,0,0,0,0
5,59999,23,50000,52,10000,40,9999,0.100000,0,0,0.000000,5,0.000000,0.000000,5.503158,0,0,0,0,0,0,0
5,59999,24,50000,0,40000,40,9999,0.100000,0,0,0.000000,5,0.000000,0.000000,0.129249,0,0,0,0,0,0,0
5,59999,25,50000,0,10000,49,9999,0.100000,0,0,0.000000,5,1.000000,0.000000,3.269706,0,0,0,0,0,0,0
5,59999,26,50000,0,40000,40,9999,0.100000,0,0,0.000000,5,0.000000,0.000000,0.291728,0,0,0,0,0,0,0
5,59999,27,50000,21,0,40,9999,0.100000,0,0,0.000000,5,0.000000,0.000000,0.193930,0,0,0,0,0,0,0
5,59999,28,50000,2,0,40,9999,0.100000,0,0,0.000000,5,0.000000,0.000000,0.579763,0,0,0,0,0,0,0
5,59999,29,50000,21,0,40,9999,0.100000,0,0,0.000000,5,0.000000,0.000000,0.615489,0,0,0,0,0,0,0
5,59999,30,50000,50,20000,49,9999,0.100000,0,0,0.000000,5,3.000000,0.000000,8.381402,0,0,0,0,0,0,0
5,59999,31,50000,0,10000,40,9999,0.100000,0,0,0.000000,5,0.000000,0.000000,0.304055,0,0,0,0,0,0,0
5,59999,32,50000,21,0,49,9999,0.100000,0,0,0.000000,5,2.000000,0.000000,10.406254,0,0,0,0,0,0,0
5,59999,33,50000,2,0,40,9999,0.100000,0,0,0.000000,5,0.000000,0.000000,0.191805,0,0,0,0,0,0,0
5,59999,34,50000,2,0,49,9999,0.100000,0,0,0.000000,5,1.000000,0.000000,6.342017,0,0,0,0,0,0,0
5,59999,35,50000,50,20000,49,9999,0.100000,0,0,0.000000,5,1.000000,0.000000,9.990691,0,0,0,0,0,0,0
5,59999,36,50000,2,0,49,9999,0.100000,0,0,0.000000,5,1.000000,0.000000,14.545735,0,0,0,0,0,0,0
5,59999,37,50000,2,0,49,9999,0.100000,0,0,0.000000,5,1.000000,0.000000,15.468897,0,0,0,0,0,0,0
5,59999,38,50000,21,0,49,9999,0.100000,0,0,0.000000,5,1.000000,0.000000,1.653490,0,0,0,0,0,0,0
5,59999,39,50000,50,20000,40,9999,0.100000,0,0,0.000000,5,0.000000,0.000000,0.393521,0,0,0,0,0,0,0
5,59999,40,50000,21,0,40,9999,0.100000,0,0,0.000000,5,0.000000,0.000000,0.512148,0,0,0,0,0,0,0
5,59999,41,50000,0,40000,40,9999,0.100000,0,0,0.000000,5,0.000000,0.000000,2.909373,0,0,0,0,0,0,0
5,59999,42,50000,50,20000,49,9999,0.100000,0,0,0.000000,5,1.000000,0.000000,1.921669,0,0,0,0,0,0,0
5,59999,43,50000,2,0,40,9999,0.100000,0,0,0.000000,5,0.000000,0.000000,0.255812,0,0,0,0,0,0,0
5,59999,44,50000,0,10000,40,9999,0.100000,0,0,0.000000,5,0.000000,0.000000,1.011963,0,0,0,0,0,0,0
5,59999,45,50000,2,0,40,9999,0.100000,0,0,0.000000,5,0.000000,0.000000,0.120157,0,0,0,0,0,0,0
5,59999,46,50000,52,10000,40,9999,0.100000,0,0,0.000000,5,0.000000,0.000000,0.304095,0,0,0,0,0,0,0
5,59999,47,50000,50,20000,40,9999,0.100000,0,0,0.000000,5,0.000000,0.000000,0.563785,0,0,0,0,0,0,0
5,59999,48,50000,2,0,40,9999,0.100000,0,0,0.000000,5,0.000000,0.000000,0.760773,0,0,0,0,0,0,0
5,59999,49,50000,50,20000,40,9999,0.100000,0,0,0.000000,5,0.000000,0.000000,0.175315,0,0,0,0,0,0,0
5,59999,50,50000,50,20000,49,9999,0.100000,0,0,0.000000,5,1.000000,0.000000,12.016209,0,0,0,0,0,0,0
5,59999,51,50000,21,0,49,9999,0.100000,0,0,0.000000,5,1.000000,0.000000,6.962296,0,0,0,0,0,0,0
5,59999,52,50000,21,0,40,9999,0.100000,0,0,0.000000,5,0.000000,0.000000,0.212675,0,0,0,0,0,0,0
5,59999,53,50000,0,40000,40,9999,0.100000,0,0,0.000000,5,0.000000,0.000000,0.087318,0,0,0,0,0,0,0
5,59999,54,50000,21,0,40,9999,0.100000,0,0,0.000000,5,0.000000,0.000000,1.218037,0,0,0,0,0,0,0
5,59999,55,50000,50,20000,49,9999,0.100000,0,0,0.000000,5,1.000000,0.000000,1.643667,0,0,0,0,0,0,0
5,59999,56,50000,2,0,40,9999,0.100000,0,0,0.000000,5,0.000000,0.000000,0.009682,0,0,0,0,0,0,0
5,59999,57,50000,21,0,40,9999,0.100000,0,0,0.000000,5,0.000000,0.000000,0.450036,0,0,0,0,0,0,0
5,59999,58,50000,21,0,49,9999,0.100000,0,0,0.000000,5,2.000000,0.000000,10.011166,0,0,0,0,0,0,0
5,59999,59,50000,0,10000,49,9999,0.100000,0,0,0.000000,5,3.000000,0.000000,9.851519,0,0,0,0,0,0,0
5,59999,60,50000,2,0,40,9999,0.100000,0,0,0.000000,5,0.000000,0.000000,0.089863,0,0,0,0,0,0,0
5,59999,61,50000,50,20000,40,9999,0.100000,0,0,0.000000,5,0.000000,0.000000,0.214912,0,0,0,0,0,0,0
5,59999,62,50000,0,10000,40,9999,0.100000,0,0,0.000000,5,0.000000,0.000000,0.095843,0,0,0,0,0,0,0
5,59999,63,50000,0,10000,40,9999,0.100000,0,0,0.000000,5,0.000000,0.000000,0.127961,0,0,0,0,0,0,0
5,59999,64,50000,2,0,49,9999,0.100000,0,0,0.000000,5,3.000000,0.000000,15.081969,0,0,0,0,0,0,0
5,59999,65,50000,21,0,40,9999,0.100000,0,0,0.000000,5,0.000000,0.000000,2.432868,0,0,0,0,0,0,0
5,59999,66,50000,50,20000,49,9999,0.100000,0,0,0.000000,5,2.000000,0.000000,3.658674,0,0,0,0,0,0,0
5,59999,67,50000,0,10000,40,9999,0.100000,0,0,0.000000,5,0.000000,0.000000,0.235593,0,0,0,0,0,0,0
5,59999,68,50000,21,0,40,9999,0.100000,0,0,0.000000,5,0.000000,0.000000,1.002361,0,0,0,0,0,0,0
5,59999,69,50000,0,40000,49,9999,0.100000,0,0,0.000000,5,3.000000,0.000000,12.208564,0,0,0,0,0,0,0
5,59999,70,50000,50,20000,49,9999,0.100000,0,0,0.000000,5,3.000000,0.000000,8.622346,0,0,0,0,0,0,0
5,59999,71,50000,0,10000,40,9999,0.100000,0,0,0.000000,5,0.000000,0.000000,5.024863,0,0,0,0,0,0,0
5,59999,72,50000,21,0,40,9999,0.100000,0,0,0.000000,5,0.000000,0.000000,0.366699,0,0,0,0,0,0,0
5,59999,73,50000,2,0,40,9999,0.100000,0,0,0.000000,5,0.000000,0.000000,0.148839,0,0,0,0,0,0,0
5,59999,74,50000,0,10000,40,9999,0.100000,0,0,0.000000,5,0.000000,0.000000,6.923417,0,0,0,0,0,0,0
5,59999,75,50000,0,10000,40,9999,0.100000,0,0,0.000000,5,0.000000,0.000000,0.100209,0,0,0,0,0,0,0
5,59999,76,50000,21,0,49,9999,0.100000,0,0,0.000000,5,1.000000,0.000000,7.334534,0,0,0,0,0,0,0
5,59999,77,50000,0,40000,40,9999,0.100000,0,0,0.000000,5,0.000000,0.000000,0.617521,0,0,0,0,0,0,0
5,59999,78,50000,50,20000,40,9999,0.100000,0,0,0.000000,5,0.000000,0.000000,0.189388,0,0,0,0,0,0,0
5,59999,79,50000,21,0,40,9999,0.100000,0,0,0.000000,5,0.000000,0.000000,7.949119,0,0,0,0,0,0,0
5,59999,80,50000,52,10000,40,9999,0.100000,0,0,0.000000,5,0.000000,0.000000,0.130774,0,0,0,0,0,0,0
5,59999,81,50000,52,10000,40,9999,0.100000,0,0,0.000000,5,0.000000,0.000000,2.792186,0,0,0,0,0,0,0
5,59999,82,50000,0,10000,40,9999,0.100000,0,0,0.000000,5,0.000000,0.000000,0.477087,0,0,0,0,0,0,0
5,59999,83,50000,21,0,40,9999,0.100000,0,0,0.000000,5,0.000000,0.000000,0.282549,0,0,0,0,0,0,0
5,59999,84,50000,50,20000,49,9999,0.100000,0,0,0.000000,5,2.000000,0.000000,3.791494,0,0,0,0,0,0,0
5,59999,85,50000,50,20000,49,9999,0.100000,0,0,0.000000,5,1.000000,0.000000,5.839527,0,0,0,0,0,0,0
5,59999,86,50000,50,20000,40,9999,0.100000,0,0,0.000000,5,0.000000,0.000000,0.106385,0,0,0,0,0,0,0
5,59999,87,50000,0,40000,40,9999,0.100000,0,0,0.000000,5,0.000000,0.000000,0.350143,0,0,0,0,0,0,0
5,59999,88,50000,2,0,40,9999,0.100000,0,0,0.000000,5,0.000000,0.000000,0.181936,0,0,0,0,0,0,0
5,59999,89,50000,50,20000,40,9999,0.100000,0,0,0.000000,5,0.000000,0.000000,0.137106,0,0,0,0,0,0,0
5,59999,90,50000,52,10000,40,9999,0.100000,0,0,0.000000,5,0.000000,0.000000,0.066735,0,0,0,0,0,0,0
5,59999,91,50000,21,0,49,9999,0.100000,0,0,0.000000,5,1.000000,0.000000,6.625701,0,0,0,0,0,0,0
5,59999,92,50000,52,10000,40,9999,0.065000,0,0,0.000000,5,0.000000,0.000000,0.222734,0,0,0,0,0,0,0
5,59999,93,50000,21,0,49,9999,0.100000,0,0,0.000000,5,2.000000,0.000000,11.784743,0,0,0,0,0,0,0
5,59999,94,50000,52,10000,40,9999,0.100000,0,0,0.000000,5,0.000000,0.000000,0.421191,0,0,0,0,0,0,0
5,59999,95,50000,21,0,49,9999,0.100000,0,0,0.000000,5,1.000000,0.000000,4.133383,0,0,0,0,0,0,0
5,59999,96,50000,2,0,9,9999,0.100000,0,0,34.210526,5,2.000000,0.000000,16.259496,0,0,0,1,0,0,0
5,59999,97,50000,21,0,40,9999,0.100000,0,0,0.000000,5,0.000000,0.000000,0.292740,0,0,0,0,0,0,0
5,59999,98,50000,21,0,40,9999,0.100000,0,0,0.000000,5,0.000000,0.000000,5.803969,0,0,0,0,0,0,0
5,59999,99,50000,50,20000,40,9999,0.100000,0,0,0.000000,5,0.000000,0.000000,0.893273,0,0,0,0,0,0,0
6,69999,0,60000,2,0,40,9999,0.100000,0,0,0.000000,5,0.000000,0.000000,0.859774,0,0,0,0,0,0,0
6,69999,1,60000,2,0,49,9999,0.100000,0,0,0.000000,5,4.000000,0.000000,8.741934,0,0,0,0,0,0,0
6,69999,2,60000,2,0,49,9999,0.100000,0,0,0.000000,5,1.000000,0.000000,1.363908,0,0,0,0,0,0,0
6,69999,3,60000,2,0,40,9999,0.100000,0,0,0.000000,5,0.000000,0.000000,1.043223,0,0,0,0,0,0,0
6,69999,4,60000,21,0,40,9999,0.100000,0,0,0.000000,5,0.000000,0.000000,0.783189,0,0,0,0,0,0,0
6,69999,5,60000,0,40000,40,9999,0.100000,0,0,0.000000,5,0.000000,0.000000,0.430785,0,0,0,0,0,0,0
6,69999,6,60000,21,0,40,9999,0.100000,0,0,0.000000,5,0.000000,0.000000,0.361973,0,0,0,0,0,0,0
6,69999,7,60000,0,40000,40,9999,0.100000,0,0,0.000000,5,0.000000,0.000000,1.012683,0,0,0,0,0,0,0
6,69999,8,60000,0,10000,40,9999,0.100000,0,0,0.000000,5,0.000000,0.000000,0.820286,0,0,0,0,0,0,0
6,69999,9,60000,2,0,40,9999,0.100000,0,0,0.000000,5,0.000000,0.000000,0.100672,0,0,0,0,0,0,0
6,69999,10,60000,21,0,40,9999,0.100000,0,0,0.000000,5,0.000000,0.000000,0.673414,0,0,0,0,0,0,0
6,69999,11,60000,2,0,40,9999,0.100000,0,0,0.000000,5,0.000000,0.000000,0.935813,0,0,0,0,0,0,0
6,69999,12,60000,50,20000,49,9999,0.100000,0,0,0.000000,5,3.000000,0.000000,10.153042,0,0,0,0,0,0,0
6,69999,13,60000,2,0,40,9999,0.100000,0,0,0.000000,5,0.000000,0.000000,0.298312,0,0,0,0,0,0,0
6,69999,14,60000,0,40000,40,9999,0.100000,0,0,0.000000,5,0.000000,0.000000,0.921850,0,0,0,0,0,0,0
6,69999,15,60000,0,40000,40,9999,0.100000,0,0,0.000000,5,0.000000,0.000000,0.218321,0,0,0,0,0,0,0
6,69999,16,60000,2,0,49,9999,0.100000,0,0,0.000000,5,6.000000,0.000000,15.565700,0,0,0,0,0,0,0
6,69999,17,60000,50,20000,40,9999,0.100000,0,0,0.000000,5,0.000000,0.000000,0.473231,0,0,0,0,0,0,0
6,69999,18,60000,0,40000,49,9999,0.100000,0,0,0.000000,5,1.000000,0.000000,3.930272,0,0,0,0,0,0,0
6,69999,19,60000,50,20000,49,9999,0.100000,0,0,0.000000,5,1.000000,0.000000,1.234811,0,0,0,0,0,0,0
6,69999,20,60000,2,0,40,9999,0.100000,0,0,0.000000,5,0.000000,0.000000,0.438069,0,0,0,0,0,0,0
6,69999,21,60000,2,0,40,9999,0.100000,0,0,0.000000,5,0.000000,0.000000,21.620700,0,0,0,0,0,0,0
6,69999,22,60000,0,40000,40,9999,0.100000,0,0,0.000000,5,0.000000,0.000000,7.197142,0,0,0,0,0,0,0
6,69999,23,60000,0,10000,49,9999,0.100000,0,0,0.000000,5,4.000000,0.000000,11.682359,0,0,0,0,0,0,0
6,69999,24,60000,2,0,40,9999,0.100000,0,0,0.000000,5,0.000000,0.000000,0.123419,0,0,0,0,0,0,0
6,69999,25,60000,0,40000,49,9999,0.100000,0,0,0.000000,5,1.000000,0.000000,8.865638,0,0,0,0,0,0,0
6,69999,26,60000,0,40000,40,9999,0.100000,0,0,0.000000,5,0.000000,0.000000,0.403937,0,0,0,0,0,0,0
6,69999,27,60000,0,40000,40,9999,0.100000,0,0,0.000000,5,0.000000,0.000000,0.079481,0,0,0,0,0,0,0
6,69999,28,60000,0,10000,40,9999,0.100000,0,0,0.000000,5,0.000000,0.000000,0.711898,0,0,0,0,0,0,0
6,69999,29,60000,2,0,40,9999,0.100000,0,0,0.000000,5,0.000000,0.000000,0.392978,0,0,0,0,0,0,0
6,69999,30,60000,50,20000,40,9999,0.100000,0,0,0.000000,5,0.000000,0.000000,6.090800,0,0,0,0,0,0,0
6,69999,31,60000,21,0,40,9999,0.100000,0,0,0.000000,5,0.000000,0.000000,0.642298,0,0,0,0,0,0,0
6,69999,32,60000,50,20000,49,9999,0.100000,0,0,0.000000,5,1.000000,0.000000,14.300861,0,0,0,0,0,0,0
6,69999,33,60000,0,10000,40,9999,0.100000,0,0,0.000000,5,0.000000,0.000000,0.624890,0,0,0,0,0,0,0
6,69999,34,60000,2,0,40,9999,0.100000,0,0,0.000000,5,0.000000,0.000000,0.708838,0,0,0,0,0,0,0
6,69999,35,60000,2,0,49,9999,0.100000,0,0,0.000000,5,2.000000,0.000000,7.303721,0,0,0,0,0,0,0
6,69999,36,60000,0,10000,49,9999,0.100000,0,0,0.000000,5,3.000000,0.000000,12.264702,0,0,0,0,0,0,0
6,69999,37,60000,2,0,49,9999,0.100000,0,0,0.000000,5,2.000000,0.000000,14.235921,0,0,0,0,0,0,0
6,69999,38,60000,2,0,49,9999,0.100000,0,0,0.000000,5,1.000000,0.000000,1.360336,0,0,0,0,0,0,0
6,69999,39,60000,21,0,40,9999,0.100000,0,0,0.000000,5,0.000000,0.000000,0.390301,0,0,0,0,0,0,0
6,69999,40,60000,0,40000,49,9999,0.100000,0,0,0.000000,5,9.000000,0.000000,18.864301,0,0,0,0,0,0,0
6,69999,41,60000,2,0,40,9999,0.100000,0,0,0.000000,5,0.000000,0.000000,0.373175,0,0,0,0,0,0,0
6,69999,42,60000,50,20000,49,9999,0.100000,0,0,0.000000,5,3.000000,0.000000,16.795902,0,0,0,0,0,0,0
6,69999,43,60000,50,20000,40,9999,0.100000,0,0,0.000000,5,0.000000,0.000000,0.296815,0,0,0,0,0,0,0
6,69999,44,60000,2,0,40,9999,0.100000,0,0,0.000000,5,0.000000,0.000000,1.004155,0,0,0,0,0,0,0
6,69999,45,60000,21,0,40,9999,0.100000,0,0,0.000000,5,0.000000,0.000000,0.145974,0,0,0,0,0,0,0
6,69999,46,60000,50,20000,40,9999,0.100000,0,0,0.000000,5,0.000000,0.000000,0.373325,0,0,0,0,0,0,0
6,69999,47,60000,21,0,40,9999,0.100000,0,0,0.000000,5,0.000000,0.000000,0.864824,0,0,0,0,0,0,0
6,69999,48,60000,0,40000,40,9999,0.100000,0,0,0.000000,5,0.000000,0.000000,0.763643,0,0,0,0,0,0,0
6,69999,49,60000,0,40000,40,9999,0.100000,0,0,0.000000,5,0.000000,0.000000,1.297369,0,0,0,0,0,0,0
6,69999,50,60000,0,10000,49,9999,0.100000,0,0,0.000000,5,2.000000,0.000000,7.719281,0,0,0,0,0,0,0
6,69999,51,60000,21,0,40,9999,0.065000,0,0,0.000000,5,0.000000,0.000000,7.661176,0,0,0,0,0,0,0
6,69999,52,60000,21,0,40,9999,0.100000,0,0,0.000000,5,0.000000,0.000000,0.218186,0,0,0,0,0,0,0
6,69999,53,60000,21,0,40,9999,0.100000,0,0,0.000000,5,0.000000,0.000000,0.146570,0,0,0,0,0,0,0
6,69999,54,60000,2,0,40,9999,0.100000,0,0,0.000000,5,0.000000,0.000000,1.396435,0,0,0,0,0,0,0
6,69999,55,60000,0,10000,49,9999,0.100000,0,0,0.000000,5,1.000000,0.000000,1.301590,0,0,0,0,0,0,0
6,69999,56,60000,0,10000,40,9999,0.100000,0,0,0.000000,5,0.000000,0.000000,0.009565,0,0,0,0,0,0,0
6,69999,57,60000,0,10000,40,9999,0.100000,0,0,0.000000,5,0.000000,0.000000,0.679509,0,0,0,0,0,0,0
6,69999,58,60000,0,40000,49,9999,0.100000,0,0,0.000000,5,4.000000,0.000000,9.529148,0,0,0,0,0,0,0
6,69999,59,60000,0,40000,49,9999,0.100000,0,0,0.000000,5,1.000000,0.000000,10.927108,0,0,0,0,0,0,0
6,69999,60,60000,50,20000,40,9999,0.100000,0,0,0.000000,5,0.000000,0.000000,0.092305,0,0,0,0,0,0,0
6,69999,61,60000,0,40000,40,9999,0.100000,0,0,0.000000,5,0.000000,0.000000,0.220715,0,0,0,0,0,0,0
6,69999,62,60000,0,10000,49,9999,0.100000,0,0,0.000000,5,10.000000,0.000000,20.790644,0,0,0,0,0,0,0
6,69999,63,60000,2,0,40,9999,0.100000,0,0,0.000000,5,0.000000,0.000000,0.139987,0,0,0,0,0,0,0
6,69999,64,60000,0,40000,49,9999,0.100000,0,0,0.000000,5,2.000000,0.000000,12.511607,0,0,0,0,0,0,0
6,69999,65,60000,0,10000,49,9999,0.100000,0,0,0.000000,5,2.000000,0.000000,2.260290,0,0,0,0,0,0,0
6,69999,66,60000,21,0,49,9999,0.100000,0,0,0.000000,5,2.000000,0.000000,4.114456,0,0,0,0,0,0,0
6,69999,67,60000,2,0,40,9999,0.100000,0,0,0.000000,5,0.000000,0.000000,0.444308,0,0,0,0,0,0,0
6,69999,68,60000,50,20000,49,9999,0.100000,0,0,0.000000,5,1.000000,0.000000,2.091061,0,0,0,0,0,0,0
6,69999,69,60000,50,20000,49,9999,0.100000,0,0,0.000000,5,2.000000,0.000000,5.635230,0,0,0,0,0,0,0
6,69999,70,60000,2,0,49,9999,0.100000,0,0,0.000000,5,3.000000,0.000000,14.057830,0,0,0,0,0,0,0
6,69999,71,60000,2,0,40,9999,0.100000,0,0,0.000000,5,0.000000,0.000000,3.714182,0,0,0,0,0,0,0
6,69999,72,60000,50,20000,49,9999,0.100000,0,0,0.000000,5,3.000000,0.000000,9.639281,0,0,0,0,0,0,0
6,69999,73,60000,21,0,40,9999,0.100000,0,0,0.000000,5,0.000000,0.000000,0.155328,0,0,0,0,0,0,0
6,69999,74,60000,21,0,40,9999,0.100000,0,0,0.000000,5,0.000000,0.000000,6.420314,0,0,0,0,0,0,0
6,69999,75,60000,2,0,40,9999,0.100000,0,0,0.000000,5,0.000000,0.000000,0.253177,0,0,0,0,0,0,0
6,69999,76,60000,50,20000,40,9999,0.100000,0,0,0.000000,5,0.000000,0.000000,5.564780,0,0,0,0,0,0,0
6,69999,77,60000,0,10000,49,9999,0.100000,0,0,0.000000,5,1.000000,0.000000,2.258134,0,0,0,0,0,0,0
6,69999,78,60000,0,40000,40,9999,0.100000,0,0,0.000000,5,0.000000,0.000000,0.239954,0,0,0,0,0,0,0
6,69999,79,60000,2,0,49,9999,0.100000,0,0,0.000000,5,2.000000,0.000000,7.414691,0,0,0,0,0,0,0
6,69999,80,60000,21,0,49,9999,0.100000,0,0,0.000000,5,2.000000,0.000000,4.638742,0,0,0,0,0,0,0
6,69999,81,60000,50,20000,40,9999,0.100000,0,0,0.000000,5,0.000000,0.000000,0.292909,0,0,0,0,0,0,0
6,69999,82,60000,0,10000,40,9999,0.100000,0,0,0.000000,5,0.000000,0.000000,0.635733,0,0,0,0,0,0,0
6,69999,83,60000,0,40000,40,9999,0.100000,0,0,0.000000,5,0.000000,0.000000,0.293531,0,0,0,0,0,0,0
6,69999,84,60000,0,40000,40,9999,0.100000,0,0,0.000000,5,0.000000,0.000000,0.940678,0,0,0,0,0,0,0
6,69999,85,60000,2,0,49,9999,0.100000,0,0,0.000000,5,2.000000,0.000000,9.753201,0,0,0,0,0,0,0
6,69999,86,60000,21,0,40,9999,0.100000,0,0,0.000000,5,0.000000,0.000000,0.110820,0,0,0,0,0,0,0
6,69999,87,60000,21,0,40,9999,0.100000,0,0,0.000000,5,0.000000,0.000000,0.221526,0,0,0,0,0,0,0
6,69999,88,60000,0,40000,40,9999,0.100000,0,0,0.000000,5,0.000000,0.000000,0.235051,0,0,0,0,0,0,0
6,69999,89,60000,0,40000,40,9999,0.100000,0,0,0.000000,5,0.000000,0.000000,0.138093,0,0,0,0,0,0,0
6,69999,90,60000,2,0,40,9999,0.100000,0,0,0.000000,5,0.000000,0.000000,0.066859,0,0,0,0,0,0,0
6,69999,91,60000,50,20000,49,9999,0.100000,0,0,0.000000,5,6.000000,0.000000,13.027628,0,0,0,0,0,0,0
6,69999,92,60000,50,20000,40,9999,0.100000,0,0,0.000000,5,0.000000,0.000000,0.264183,0,0,0,0,0,0,0
6,69999,93,60000,50,20000,49,9999,0.100000,0,0,0.000000,5,2.000000,0.000000,17.092970,0,0,0,0,0,0,0
6,69999,94,60000,0,40000,40,9999,0.100000,0,0,0.000000,5,0.000000,0.000000,0.426469,0,0,0,0,0,0,0
6,69999,95,60000,50,20000,40,9999,0.100000,0,0,0.000000,5,0.000000,0.000000,1.034129,0,0,0,0,0,0,0
6,69999,96,60000,50,20000,49,9999,0.100000,0,0,0.000000,5,4.000000,0.000000,14.537395,0,0,0,0,0,0,0
6,69999,97,60000,0,10000,49,9999,0.100000,0,0,0.000000,5,8.000000,0.000000,18.010818,0,0,0,0,0,0,0
6,69999,98,60000,2,0,49,9999,0.100000,0,0,0.000000,5,3.000000,0.000000,13.506013,0,0,0,0,0,0,0
6,69999,99,60000,0,40000,49,9999,0.100000,0,0,0.000000,5,1.000000,0.000000,11.126507,0,0,0,0,0,0,0
7,79999,0,70000,50,20000,40,9999,0.100000,0,0,0.000000,5,0.000000,0.000000,0.525165,0,0,0,0,0,0,0
7,79999,1,70000,2,0,49,9999,0.100000,0,0,0.000000,5,1.000000,0.000000,10.333043,0,0,0,0,0,0,0
7,79999,2,70000,50,20000,49,9999,0.100000,0,0,0.000000,5,1.000000,0.000000,4.398412,0,0,0,0,0,0,0
7,79999,3,70000,0,60000,49,9999,0.100000,0,0,0.000000,5,8.000000,0.000000,9.888176,0,0,0,0,0,0,0
7,79999,4,70000,0,40000,40,9999,0.100000,0,0,0.000000,5,0.000000,0.000000,0.317215,0,0,0,0,0,0,0
7,79999,5,70000,21,0,40,9999,0.100000,0,0,0.000000,5,0.000000,0.000000,0.392767,0,0,0,0,0,0,0
7,79999,6,70000,0,40000,40,9999,0.100000,0,0,0.000000,5,0.000000,0.000000,0.237321,0,0,0,0,0,0,0
7,79999,7,70000,50,20000,40,9999,0.100000,0,0,0.000000,5,0.000000,0.000000,0.602353,0,0,0,0,0,0,0
7,79999,8,70000,50,20000,40,9999,0.100000,0,0,0.000000,5,0.000000,0.000000,1.237385,0,0,0,0,0,0,0
7,79999,9,70000,21,0,40,9999,0.100000,0,0,0.000000,5,0.000000,0.000000,0.108064,0,0,0,0,0,0,0
7,79999,10,70000,2,0,40,9999,0.100000,0,0,0.000000,5,0.000000,0.000000,0.187593,0,0,0,0,0,0,0
7,79999,11,70000,0,40000,49,9999,0.100000,0,0,0.000000,5,5.000000,0.000000,12.798292,0,0,0,0,0,0,0
7,79999,12,70000,50,20000,49,9999,0.100000,0,0,0.000000,5,5.000000,0.000000,13.325086,0,0,0,0,0,0,0
7,79999,13,70000,0,60000,40,9999,0.100000,0,0,0.000000,5,0.000000,0.000000,0.290217,0,0,0,0,0,0,0
7,79999,14,70000,0,40000,49,9999,0.100000,0,0,0.000000,5,1.000000,0.000000,2.908297,0,0,0,0,0,0,0
7,79999,15,70000,21,0,40,9999,0.100000,0,0,0.000000,5,0.000000,0.000000,0.219477,0,0,0,0,0,0,0
7,79999,16,70000,21,0,49,9999,0.100000,0,0,0.000000,5,9.000000,0.000000,12.264465,0,0,0,0,0,0,0
7,79999,17,70000,21,0,40,9999,0.100000,0,0,0.000000,5,0.000000,0.000000,0.424799,0,0,0,0,0,0,0
7,79999,18,70000,2,0,40,9999,0.100000,0,0,0.000000,5,0.000000,0.000000,0.280379,0,0,0,0,0,0,0
7,79999,19,70000,0,40000,49,9999,0.100000,0,0,0.000000,5,5.000000,0.000000,14.648339,0,0,0,0,0,0,0
7,79999,20,70000,21,0,40,9999,0.100000,0,0,0.000000,5,0.000000,0.000000,0.225676,0,0,0,0,0,0,0
7,79999,21,70000,50,20000,40,9999,0.100000,0,0,0.000000,5,0.000000,0.000000,22.388745,0,0,0,0,0,0,0
7,79999,22,70000,21,0,40,9999,0.100000,0,0,0.000000,5,0.000000,0.000000,11.571556,0,0,0,0,0,0,0
7,79999,23,70000,21,0,40,9999,0.100000,0,0,0.000000,5,0.000000,0.000000,0.952737,0,0,0,0,0,0,0
7,79999,24,70000,21,0,40,9999,0.100000,0,0,0.000000,5,0.000000,0.000000,0.289211,0,0,0,0,0,0,0
7,79999,25,70000,0,10000,40,9999,0.100000,0,0,0.000000,5,0.000000,0.000000,4.174897,0,0,0,0,0,0,0
7,79999,26,70000,21,0,49,9999,0.100000,0,0,0.000000,5,1.000000,0.000000,1.541748,0,0,0,0,0,0,0
7,79999,27,70000,0,60000,40,9999,0.100000,0,0,0.000000,5,0.000000,0.000000,0.651353,0,0,0,0,0,0,0
7,79999,28,70000,2,0,40,9999,0.100000,0,0,0.000000,5,0.000000,0.000000,0.827475,0,0,0,0,0,0,0
7,79999,29,70000,50,20000,40,9999,0.100000,0,0,0.000000,5,0.000000,0.000000,0.299322,0,0,0,0,0,0,0
7,79999,30,70000,2,0,49,9999,0.100000,0,0,0.000000,5,3.000000,0.000000,12.737443,0,0,0,0,0,0,0
7,79999,31,70000,0,40000,40,9999,0.100000,0,0,0.000000,5,0.000000,0.000000,0.541357,0,0,0,0,0,0,0
7,79999,32,70000,0,60000,49,9999,0.100000,0,0,0.000000,5,1.000000,0.000000,5.109507,0,0,0,0,0,0,0
7,79999,33,70000,21,0,40,9999,0.100000,0,0,0.000000,5,0.000000,0.000000,0.071193,0,0,0,0,0,0,0
7,79999,34,70000,21,0,40,9999,0.100000,0,0,0.000000,5,0.000000,0.000000,0.359713,0,0,0,0,0,0,0
7,79999,35,70000,50,20000,49,9999,0.100000,0,0,0.000000,5,5.000000,0.000000,7.715503,0,0,0,0,0,0,0
7,79999,36,70000,21,0,49,9999,0.100000,0,0,0.000000,5,2.000000,0.000000,14.062582,0,0,0,0,0,0,0
7,79999,37,70000,21,0,49,9999,0.100000,0,0,0.000000,5,2.000000,0.000000,11.541501,0,0,0,0,0,0,0
7,79999,38,70000,0,40000,49,9999,0.100000,0,0,0.000000,5,1.000000,0.000000,1.316352,0,0,0,0,0,0,0
7,79999,39,70000,2,0,40,9999,0.100000,0,0,0.000000,5,0.000000,0.000000,0.374544,0,0,0,0,0,0,0
7,79999,40,70000,21,0,40,9999,0.100000,0,0,0.000000,5,0.000000,0.000000,0.560694,0,0,0,0,0,0,0
7,79999,41,70000,21,0,40,9999,0.100000,0,0,0.000000,5,0.000000,0.000000,0.221179,0,0,0,0,0,0,0
7,79999,42,70000,2,0,49,9999,0.100000,0,0,0.000000,5,6.000000,0.000000,12.112863,0,0,0,0,0,0,0
7,79999,43,70000,2,0,40,9999,0.100000,0,0,0.000000,5,0.000000,0.000000,0.251235,0,0,0,0,0,0,0
7,79999,44,70000,21,0,40,9999,0.100000,0,0,0.000000,5,0.000000,0.000000,1.022519,0,0,0,0,0,0,0
7,79999,45,70000,2,0,40,9999,0.100000,0,0,0.000000,5,0.000000,0.000000,0.065800,0,0,0,0,0,0,0
7,79999,46,70000,0,60000,40,9999,0.100000,0,0,0.000000,5,0.000000,0.000000,0.706639,0,0,0,0,0,0,0
7,79999,47,70000,0,10000,40,9999,0.100000,0,0,0.000000,5,0.000000,0.000000,1.525737,0,0,0,0,0,0,0
7,79999,48,70000,2,0,40,9999,0.100000,0,0,0.000000,5,0.000000,0.000000,0.880806,0,0,0,0,0,0,0
7,79999,49,70000,50,20000,40,9999,0.100000,0,0,0.000000,5,0.000000,0.000000,0.690543,0,0,0,0,0,0,0
7,79999,50,70000,2,0,49,9999,0.100000,0,0,0.000000,5,1.000000,0.000000,5.242146,0,0,0,0,0,0,0
7,79999,51,70000,0,40000,40,9999,0.100000,0,0,0.000000,5,0.000000,0.000000,5.159753,0,0,0,0,0,0,0
7,79999,52,70000,2,0,40,9999,0.100000,0,0,0.000000,5,0.000000,0.000000,0.245972,0,0,0,0,0,0,0
7,79999,53,70000,21,0,40,9999,0.100000,0,0,0.000000,5,0.000000,0.000000,0.078205,0,0,0,0,0,0,0
7,79999,54,70000,0,40000,40,9999,0.100000,0,0,0.000000,5,0.000000,0.000000,0.302171,0,0,0,0,0,0,0
7,79999,55,70000,0,40000,49,9999,0.100000,0,0,0.000000,5,2.000000,0.000000,9.211260,0,0,0,0,0,0,0
7,79999,56,70000,0,10000,40,9999,0.100000,0,0,0.000000,5,0.000000,0.000000,0.009514,0,0,0,0,0,0,0
7,79999,57,70000,21,0,49,9999,0.100000,0,0,0.000000,5,1.000000,0.000000,1.862242,0,0,0,0,0,0,0
7,79999,58,70000,50,20000,40,9999,0.100000,0,0,0.000000,5,0.000000,0.000000,1.619377,0,0,0,0,0,0,0
7,79999,59,70000,2,0,40,9999,0.100000,0,0,0.000000,5,0.000000,0.000000,9.008060,0,0,0,0,0,0,0
7,79999,60,70000,50,20000,40,9999,0.100000,0,0,0.000000,5,0.000000,0.000000,0.096797,0,0,0,0,0,0,0
7,79999,61,70000,21,0,40,9999,0.100000,0,0,0.000000,5,0.000000,0.000000,0.401564,0,0,0,0,0,0,0
7,79999,62,70000,0,60000,40,9999,0.100000,0,0,0.000000,5,0.000000,0.000000,0.162635,0,0,0,0,0,0,0
7,79999,63,60000,2,0,40,19999,0.100000,0,0,0.000000,5,0.000000,0.000000,0.108515,0,0,0,0,0,0,0
7,79999,64,70000,21,0,40,9999,0.100000,0,0,0.000000,5,0.000000,0.000000,2.364230,0,0,0,0,0,0,0
7,79999,65,70000,21,0,40,9999,0.100000,0,0,0.000000,5,0.000000,0.000000,0.418266,0,0,0,0,0,0,0
7,79999,66,70000,2,0,49,9999,0.100000,0,0,0.000000,5,3.000000,0.000000,4.318625,0,0,0,0,0,0,0
7,79999,67,70000,0,10000,40,9999,0.100000,0,0,0.000000,5,0.000000,0.000000,1.229565,0,0,0,0,0,0,0
7,79999,68,70000,2,0,40,9999,0.100000,0,0,0.000000,5,0.000000,0.000000,0.406217,0,0,0,0,0,0,0
7,79999,69,70000,0,40000,40,9999,0.100000,0,0,0.000000,5,0.000000,0.000000,9.881205,0,0,0,0,0,0,0
7,79999,70,70000,0,60000,49,9999,0.100000,0,0,0.000000,5,1.000000,0.000000,14.332254,0,0,0,0,0,0,0
7,79999,71,70000,2,0,49,9999,0.100000,0,0,0.000000,5,1.000000,0.000000,13.292977,0,0,0,0,0,0,0
7,79999,72,70000,21,0,49,9999,0.100000,0,0,0.000000,5,2.000000,0.000000,13.325717,0,0,0,0,0,0,0
7,79999,73,70000,0,40000,40,9999,0.100000,0,0,0.000000,5,0.000000,0.000000,0.150958,0,0,0,0,0,0,0
7,79999,74,70000,0,40000,49,9999,0.100000,0,0,0.000000,5,1.000000,0.000000,9.164351,0,0,0,0,0,0,0
7,79999,75,70000,0,40000,40,9999,0.100000,0,0,0.000000,5,0.000000,0.000000,0.122203,0,0,0,0,0,0,0
7,79999,76,70000,2,0,49,9999,0.100000,0,0,0.000000,5,5.000000,0.000000,16.815691,0,0,0,0,0,0,0
7,79999,77,70000,21,0,49,9999,0.100000,0,0,0.000000,5,3.000000,0.000000,6.339140,0,0,0,0,0,0,0
7,79999,78,70000,0,40000,40,9999,0.100000,0,0,0.000000,5,0.000000,0.000000,0.222918,0,0,0,0,0,0,0
7,79999,79,70000,2,0,40,9999,0.100000,0,0,0.000000,5,0.000000,0.000000,0.895336,0,0,0,0,0,0,0
7,79999,80,70000,21,0,40,9999,0.100000,0,0,0.000000,5,0.000000,0.000000,0.408563,0,0,0,0,0,0,0
7,79999,81,70000,0,10000,40,9999,0.100000,0,0,0.000000,5,0.000000,0.000000,0.111313,0,0,0,0,0,0,0
7,79999,82,70000,21,0,40,9999,0.100000,0,0,0.000000,5,0.000000,0.000000,1.381832,0,0,0,0,0,0,0
7,79999,83,70000,0,60000,40,9999,0.100000,0,0,0.000000,5,0.000000,0.000000,0.328085,0,0,0,0,0,0,0
7,79999,84,70000,2,0,40,9999,0.100000,0,0,0.000000,5,0.000000,0.000000,0.579544,0,0,0,0,0,0,0
7,79999,85,70000,0,60000,49,9999,0.100000,0,0,0.000000,5,1.000000,0.000000,2.329216,0,0,0,0,0,0,0
7,79999,86,70000,50,20000,40,9999,0.100000,0,0,0.000000,5,0.000000,0.000000,0.370058,0,0,0,0,0,0,0
7,79999,87,70000,50,20000,40,9999,0.100000,0,0,0.000000,5,0.000000,0.000000,0.225339,0,0,0,0,0,0,0
7,79999,88,70000,2,0,40,9999,0.100000,0,0,0.000000,5,0.000000,0.000000,0.371531,0,0,0,0,0,0,0
7,79999,89,70000,2,0,40,9999,0.100000,0,0,0.000000,5,0.000000,0.000000,0.122520,0,0,0,0,0,0,0
7,79999,90,70000,0,40000,40,9999,0.100000,0,0,0.000000,5,0.000000,0.000000,0.066666,0,0,0,0,0,0,0
7,79999,91,70000,21,0,49,9999,0.100000,0,0,0.000000,5,1.000000,0.000000,10.438948,0,0,0,0,0,0,0
7,79999,92,70000,21,0,40,9999,0.100000,0,0,0.000000,5,0.000000,0.000000,0.203412,0,0,0,0,0,0,0
7,79999,93,70000,21,0,49,9999,0.100000,0,0,0.000000,5,2.000000,0.000000,10.653620,0,0,0,0,0,0,0
7,79999,94,70000,50,20000,40,9999,0.100000,0,0,0.000000,5,0.000000,0.000000,0.469414,0,0,0,0,0,0,0
7,79999,95,70000,2,0,40,9999,0.100000,0,0,0.000000,5,0.000000,0.000000,1.314607,0,0,0,0,0,0,0
7,79999,96,70000,0,60000,49,9999,0.100000,0,0,0.000000,5,4.000000,0.000000,11.140776,0,0,0,0,0,0,0
7,79999,97,70000,2,0,40,9999,0.100000,0,0,0.000000,5,0.000000,0.000000,0.308558,0,0,0,0,0,0,0
7,79999,98,70000,0,40000,40,9999,0.100000,0,0,0.000000,5,0.000000,0.000000,10.124543,0,0,0,0,0,0,0
7,79999,99,70000,0,40000,49,9999,0.100000,0,0,0.000000,5,1.000000,0.000000,10.141801,0,0,0,0,0,0,0
8,89999,0,80000,2,0,40,9999,0.100000,0,0,0.000000,5,0.000000,0.000000,0.554363,0,0,0,0,0,0,0
8,89999,1,80000,2,0,49,9999,0.100000,0,0,0.000000,5,2.000000,0.000000,4.735075,0,0,0,0,0,0,0
8,89999,2,80000,50,20000,40,9999,0.100000,0,0,0.000000,5,0.000000,0.000000,0.740864,0,0,0,0,0,0,0
8,89999,3,80000,50,20000,49,9999,0.100000,0,0,0.000000,5,2.000000,0.000000,15.519513,0,0,0,0,0,0,0
8,89999,4,80000,50,20000,40,9999,0.100000,0,0,0.000000,5,0.000000,0.000000,0.750550,0,0,0,0,0,0,0
8,89999,5,80000,0,60000,40,9999,0.100000,0,0,0.000000,5,0.000000,0.000000,0.465410,0,0,0,0,0,0,0
8,89999,6,80000,21,0,40,9999,0.100000,0,0,0.000000,5,0.000000,0.000000,0.228117,0,0,0,0,0,0,0
8,89999,7,80000,50,20000,40,9999,0.100000,0,0,0.000000,5,0.000000,0.000000,0.575357,0,0,0,0,0,0,0
8,89999,8,80000,2,0,40,9999,0.100000,0,0,0.000000,5,0.000000,0.000000,1.175895,0,0,0,0,0,0,0
8,89999,9,80000,0,40000,40,9999,0.100000,0,0,0.000000,5,0.000000,0.000000,0.100233,0,0,0,0,0,0,0
8,89999,10,80000,0,60000,40,9999,0.100000,0,0,0.000000,5,0.000000,0.000000,0.174010,0,0,0,0,0,0,0
8,89999,11,80000,0,60000,49,9999,0.100000,0,0,0.000000,5,2.000000,0.000000,7.448097,0,0,0,0,0,0,0
8,89999,12,80000,21,0,49,9999,0.100000,0,0,0.000000,5,1.000000,0.000000,7.615902,0,0,0,0,0,0,0
8,89999,13,80000,0,60000,40,9999,0.100000,0,0,0.000000,5,0.000000,0.000000,0.282503,0,0,0,0,0,0,0
8,89999,14,80000,50,20000,49,9999,0.100000,0,0,0.000000,5,7.000000,0.000000,20.695225,0,0,0,0,0,0,0
8,89999,15,80000,2,0,40,9999,0.100000,0,0,0.000000,5,0.000000,0.000000,0.218857,0,0,0,0,0,0,0
8,89999,16,80000,50,20000,40,9999,0.100000,0,0,0.000000,5,0.000000,0.000000,1.435670,0,0,0,0,0,0,0
8,89999,17,80000,21,0,40,9999,0.100000,0,0,0.000000,5,0.000000,0.000000,0.511792,0,0,0,0,0,0,0
8,89999,18,80000,21,0,40,9999,0.100000,0,0,0.000000,5,0.000000,0.000000,0.286122,0,0,0,0,0,0,0
8,89999,19,80000,0,40000,40,9999,0.100000,0,0,0.000000,5,0.000000,0.000000,2.152708,0,0,0,0,0,0,0
8,89999,20,80000,2,0,40,9999,0.135000,0,0,0.000000,5,0.000000,0.000000,0.545975,0,0,0,0,0,0,0
8,89999,21,80000,50,20000,40,9999,0.100000,0,0,0.000000,5,0.000000,0.000000,22.549883,0,0,0,0,0,0,0
8,89999,22,80000,50,20000,49,9999,0.100000,0,0,0.000000,5,1.000000,0.000000,8.082483,0,0,0,0,0,0,0
8,89999,23,80000,0,60000,40,9999,0.100000,0,0,0.000000,5,0.000000,0.000000,0.926560,0,0,0,0,0,0,0
8,89999,24,80000,0,60000,40,9999,0.100000,0,0,0.000000,5,0.000000,0.000000,0.468179,0,0,0,0,0,0,0
8,89999,25,80000,0,60000,40,9999,0.100000,0,0,0.000000,5,0.000000,0.000000,1.020291,0,0,0,0,0,0,0
8,89999,26,80000,0,40000,40,9999,0.100000,0,0,0.000000,5,0.000000,0.000000,1.606733,0,0,0,0,0,0,0
8,89999,27,80000,21,0,40,9999,0.100000,0,0,0.000000,5,0.000000,0.000000,1.551194,0,0,0,0,0,0,0
8,89999,28,80000,0,40000,40,9999,0.100000,0,0,0.000000,5,0.000000,0.000000,0.925711,0,0,0,0,0,0,0
8,89999,29,80000,0,60000,40,9999,0.100000,0,0,0.000000,5,0.000000,0.000000,0.259827,0,0,0,0,0,0,0
8,89999,30,80000,0,40000,49,9999,0.100000,0,0,0.000000,5,3.000000,0.000000,14.331281,0,0,0,0,0,0,0
8,89999,31,80000,50,20000,40,9999,0.100000,0,0,0.000000,5,0.000000,0.000000,0.668376,0,0,0,0,0,0,0
8,89999,32,80000,2,0,40,9999,0.100000,0,0,0.000000,5,0.000000,0.000000,1.231252,0,0,0,0,0,0,0
8,89999,33,80000,50,20000,40,9999,0.100000,0,0,0.000000,5,0.000000,0.000000,0.308304,0,0,0,0,0,0,0
8,89999,34,80000,2,0,40,9999,0.100000,0,0,0.000000,5,0.000000,0.000000,0.582874,0,0,0,0,0,0,0
8,89999,35,80000,0,40000,49,9999,0.100000,0,0,0.000000,5,5.000000,0.000000,9.467117,0,0,0,0,0,0,0
8,89999,36,80000,50,20000,49,9999,0.100000,0,0,0.000000,5,3.000000,0.000000,9.120576,0,0,0,0,0,0,0
8,89999,37,80000,0,40000,49,9999,0.100000,0,0,0.000000,5,3.000000,0.000000,12.802545,0,0,0,0,0,0,0
8,89999,38,80000,50,20000,40,9999,0.100000,0,0,0.000000,5,0.000000,0.000000,0.849089,0,0,0,0,0,0,0
8,89999,39,80000,0,40000,40,9999,0.100000,0,0,0.000000,5,0.000000,0.000000,0.454846,0,0,0,0,0,0,0
8,89999,40,80000,0,40000,40,9999,0.100000,0,0,0.000000,5,0.000000,0.000000,0.732844,0,0,0,0,0,0,0
8,89999,41,80000,21,0,40,9999,0.100000,0,0,0.000000,5,0.000000,0.000000,0.218667,0,0,0,0,0,0,0
8,89999,42,80000,50,20000,49,9999,0.100000,0,0,0.000000,5,6.000000,0.000000,13.137756,0,0,0,0,0,0,0
8,89999,43,80000,21,0,40,9999,0.100000,0,0,0.000000,5,0.000000,0.000000,0.386337,0,0,0,0,0,0,0
8,89999,44,80000,0,40000,40,9999,0.100000,0,0,0.000000,5,0.000000,0.000000,1.003187,0,0,0,0,0,0,0
8,89999,45,80000,50,20000,40,9999,0.100000,0,0,0.000000,5,0.000000,0.000000,0.235413,0,0,0,0,0,0,0
8,89999,46,80000,2,0,40,9999,0.100000,0,0,0.000000,5,0.000000,0.000000,0.883614,0,0,0,0,0,0,0
8,89999,47,80000,21,0,40,9999,0.100000,0,0,0.000000,5,0.000000,0.000000,1.424722,0,0,0,0,0,0,0
8,89999,48,80000,50,20000,40,9999,0.100000,0,0,0.000000,5,0.000000,0.000000,0.998297,0,0,0,0,0,0,0
8,89999,49,80000,0,60000,40,9999,0.100000,0,0,0.000000,5,0.000000,0.000000,0.158033,0,0,0,0,0,0,0
8,89999,50,80000,50,20000,49,9999,0.100000,0,0,0.000000,5,1.000000,0.000000,5.024136,0,0,0,0,0,0,0
8,89999,51,80000,2,0,40,9999,0.100000,0,0,0.000000,5,0.000000,0.000000,5.799440,0,0,0,0,0,0,0
8,89999,52,80000,0,60000,40,9999,0.100000,0,0,0.000000,5,0.000000,0.000000,0.303140,0,0,0,0,0,0,0
8,89999,53,80000,2,0,40,9999,0.100000,0,0,0.000000,5,0.000000,0.000000,0.079094,0,0,0,0,0,0,0
8,89999,54,80000,0,60000,40,9999,0.100000,0,0,0.000000,5,0.000000,0.000000,0.472837,0,0,0,0,0,0,0
8,89999,55,80000,0,60000,40,9999,0.100000,0,0,0.000000,5,0.000000,0.000000,1.680081,0,0,0,0,0,0,0
8,89999,56,80000,0,60000,40,9999,0.100000,0,0,0.000000,5,0.000000,0.000000,0.009588,0,0,0,0,0,0,0
8,89999,57,80000,2,0,40,9999,0.100000,0,0,0.000000,5,0.000000,0.000000,3.591362,0,0,0,0,0,0,0
8,89999,58,80000,0,60000,40,9999,0.100000,0,0,0.000000,5,0.000000,0.000000,0.937168,0,0,0,0,0,0,0
8,89999,59,80000,0,40000,49,9999,0.100000,0,0,0.000000,5,1.000000,0.000000,8.327618,0,0,0,0,0,0,0
8,89999,60,80000,50,20000,40,9999,0.100000,0,0,0.000000,5,0.000000,0.000000,0.090047,0,0,0,0,0,0,0
8,89999,61,80000,50,20000,40,9999,0.100000,0,0,0.000000,5,0.000000,0.000000,0.798224,0,0,0,0,0,0,0
8,89999,62,80000,0,40000,40,9999,0.100000,0,0,0.000000,5,0.000000,0.000000,0.104703,0,0,0,0,0,0,0
8,89999,63,80000,50,20000,40,9999,0.100000,0,0,0.000000,5,0.000000,0.000000,0.109246,0,0,0,0,0,0,0
8,89999,64,80000,0,60000,49,9999,0.100000,0,0,0.000000,5,8.000000,0.000000,25.635964,0,0,0,0,0,0,0
8,89999,65,80000,21,0,40,9999,0.100000,0,0,0.000000,5,0.000000,0.000000,0.389779,0,0,0,0,0,0,0
8,89999,66,80000,0,60000,49,9999,0.100000,0,0,0.000000,5,3.000000,0.000000,5.978725,0,0,0,0,0,0,0
8,89999,67,80000,21,0,40,9999,0.100000,0,0,0.000000,5,0.000000,0.000000,0.373683,0,0,0,0,0,0,0
8,89999,68,80000,0,60000,40,9999,0.100000,0,0,0.000000,5,0.000000,0.000000,0.345577,0,0,0,0,0,0,0
8,89999,69,80000,0,40000,40,9999,0.100000,0,0,0.000000,5,0.000000,0.000000,11.096801,0,0,0,0,0,0,0
8,89999,70,80000,0,40000,49,9999,0.100000,0,0,0.000000,5,4.000000,0.000000,15.061082,0,0,0,0,0,0,0
8,89999,71,80000,0,60000,40,9999,0.100000,0,0,0.000000,5,0.000000,0.000000,21.854365,0,0,0,0,0,0,0
8,89999,72,80000,0,40000,49,9999,0.100000,0,0,0.000000,5,3.000000,0.000000,13.604262,0,0,0,0,0,0,0
8,89999,73,80000,2,0,40,9999,0.100000,0,0,0.000000,5,0.000000,0.000000,0.146834,0,0,0,0,0,0,0
8,89999,74,80000,50,20000,49,9999,0.100000,0,0,0.000000,5,1.000000,0.000000,6.270701,0,0,0,0,0,0,0
8,89999,75,80000,21,0,40,9999,0.100000,0,0,0.000000,5,0.000000,0.000000,0.114953,0,0,0,0,0,0,0
8,89999,76,80000,0,40000,49,9999,0.100000,0,0,0.000000,5,1.000000,0.000000,6.666591,0,0,0,0,0,0,0
8,89999,77,80000,21,0,40,9999,0.100000,0,0,0.000000,5,0.000000,0.000000,0.377330,0,0,0,0,0,0,0
8,89999,78,80000,0,40000,40,9999,0.100000,0,0,0.000000,5,0.000000,0.000000,0.166670,0,0,0,0,0,0,0
8,89999,79,80000,21,0,40,9999,0.100000,0,0,0.000000,5,0.000000,0.000000,0.742872,0,0,0,0,0,0,0
8,89999,80,80000,2,0,40,9999,0.100000,0,0,0.000000,5,0.000000,0.000000,0.367592,0,0,0,0,0,0,0
8,89999,81,80000,0,60000,40,9999,0.100000,0,0,0.000000,5,0.000000,0.000000,0.109562,0,0,0,0,0,0,0
8,89999,82,80000,21,0,40,9999,0.100000,0,0,0.000000,5,0.000000,0.000000,1.329319,0,0,0,0,0,0,0
8,89999,83,80000,0,40000,40,9999,0.100000,0,0,0.000000,5,0.000000,0.000000,0.399959,0,0,0,0,0,0,0
8,89999,84,80000,0,40000,40,9999,0.100000,0,0,0.000000,5,0.000000,0.000000,0.574746,0,0,0,0,0,0,0
8,89999,85,80000,0,60000,40,9999,0.100000,0,0,0.000000,5,0.000000,0.000000,0.520101,0,0,0,0,0,0,0
8,89999,86,80000,21,0,40,9999,0.100000,0,0,0.000000,5,0.000000,0.000000,0.179781,0,0,0,0,0,0,0
8,89999,87,80000,50,20000,40,9999,0.100000,0,0,0.000000,5,0.000000,0.000000,0.179134,0,0,0,0,0,0,0
8,89999,88,80000,0,40000,40,9999,0.100000,0,0,0.000000,5,0.000000,0.000000,0.301883,0,0,0,0,0,0,0
8,89999,89,80000,21,0,40,9999,0.100000,0,0,0.000000,5,0.000000,0.000000,0.111507,0,0,0,0,0,0,0
8,89999,90,80000,2,0,40,9999,0.100000,0,0,0.000000,5,0.000000,0.000000,0.066142,0,0,0,0,0,0,0
8,89999,91,80000,0,40000,49,9999,0.100000,0,0,0.000000,5,3.000000,0.000000,12.809178,0,0,0,0,0,0,0
8,89999,92,80000,21,0,40,9999,0.100000,0,0,0.000000,5,0.000000,0.000000,0.157308,0,0,0,0,0,0,0
8,89999,93,80000,50,20000,49,9999,0.100000,0,0,0.000000,5,2.000000,0.000000,6.831832,0,0,0,0,0,0,0
8,89999,94,80000,2,0,40,9999,0.100000,0,0,0.000000,5,0.000000,0.000000,0.558266,0,0,0,0,0,0,0
8,89999,95,80000,21,0,49,9999,0.100000,0,0,0.000000,5,3.000000,0.000000,9.060760,0,0,0,0,0,0,0
8,89999,96,80000,21,0,40,9999,0.100000,0,0,0.000000,5,0.000000,0.000000,1.066721,0,0,0,0,0,0,0
8,89999,97,80000,0,60000,40,9999,0.100000,0,0,0.000000,5,0.000000,0.000000,0.342494,0,0,0,0,0,0,0
8,89999,98,80000,0,60000,49,9999,0.100000,0,0,0.000000,5,4.000000,0.000000,13.530139,0,0,0,0,0,0,0
8,89999,99,80000,50,20000,49,9999,0.100000,0,0,0.000000,5,4.000000,0.000000,9.496080,0,0,0,0,0,0,0
9,99999,0,90000,50,20000,40,9999,0.100000,0,0,0.000000,5,0.000000,0.000000,0.389361,0,0,0,0,0,0,0
9,99999,1,90000,0,40000,40,9999,0.100000,0,0,0.000000,5,0.000000,0.000000,5.906652,0,0,0,0,0,0,0
9,99999,2,90000,2,0,40,9999,0.100000,0,0,0.000000,5,0.000000,0.000000,0.294660,0,0,0,0,0,0,0
9,99999,3,90000,50,20000,49,9999,0.100000,0,0,0.000000,5,6.000000,0.000000,7.142184,0,0,0,0,0,0,0
9,99999,4,90000,21,0,40,9999,0.100000,0,0,0.000000,5,0.000000,0.000000,0.741180,0,0,0,0,0,0,0
9,99999,5,90000,0,60000,40,9999,0.100000,0,0,0.000000,5,0.000000,0.000000,0.414573,0,0,0,0,0,0,0
9,99999,6,90000,50,20000,40,9999,0.100000,0,0,0.000000,5,0.000000,0.000000,0.221849,0,0,0,0,0,0,0
9,99999,7,90000,2,0,40,9999,0.100000,0,0,0.000000,5,0.000000,0.000000,0.528979,0,0,0,0,0,0,0
9,99999,8,90000,21,0,40,9999,0.100000,0,0,0.000000,5,0.000000,0.000000,1.147042,0,0,0,0,0,0,0
9,99999,9,90000,50,20000,40,9999,0.100000,0,0,0.000000,5,0.000000,0.000000,0.102649,0,0,0,0,0,0,0
9,99999,10,90000,50,20000,40,9999,0.100000,0,0,0.000000,5,0.000000,0.000000,0.171372,0,0,0,0,0,0,0
9,99999,11,90000,21,0,49,9999,0.100000,0,0,0.000000,5,6.000000,0.000000,7.192596,0,0,0,0,0,0,0
9,99999,12,90000,0,60000,49,9999,0.100000,0,0,0.000000,5,2.000000,0.000000,10.993011,0,0,0,0,0,0,0
9,99999,13,90000,0,40000,40,9999,0.100000,0,0,0.000000,5,0.000000,0.000000,0.282650,0,0,0,0,0,0,0
9,99999,14,90000,0,40000,49,9999,0.100000,0,0,0.000000,5,1.000000,0.000000,2.066397,0,0,0,0,0,0,0
9,99999,15,90000,50,20000,49,9999,0.100000,0,0,0.000000,5,5.000000,0.000000,11.493299,0,0,0,0,0,0,0
9,99999,16,90000,50,20000,40,9999,0.100000,0,0,0.000000,5,0.000000,0.000000,2.407223,0,0,0,0,0,0,0
9,99999,17,90000,50,20000,40,9999,0.100000,0,0,0.000000,5,0.000000,0.000000,0.793830,0,0,0,0,0,0,0
9,99999,18,90000,50,20000,49,9999,0.100000,0,0,0.000000,5,1.000000,0.000000,11.504027,0,0,0,0,0,0,0
9,99999,19,90000,21,0,40,9999,0.100000,0,0,0.000000,5,0.000000,0.000000,0.214474,0,0,0,0,0,0,0
9,99999,20,90000,50,20000,40,9999,0.100000,0,0,0.000000,5,0.000000,0.000000,0.736194,0,0,0,0,0,0,0
9,99999,21,90000,50,20000,40,9999,0.100000,0,0,0.000000,5,0.000000,0.000000,22.271364,0,0,0,0,0,0,0
9,99999,22,90000,21,0,49,9999,0.100000,0,0,0.000000,5,1.000000,0.000000,8.095514,0,0,0,0,0,0,0
9,99999,23,90000,0,40000,49,9999,0.100000,0,0,0.000000,5,1.000000,0.000000,4.903767,0,0,0,0,0,0,0
9,99999,24,90000,0,40000,40,9999,0.100000,0,0,0.000000,5,0.000000,0.000000,0.493071,0,0,0,0,0,0,0
9,99999,25,90000,0,40000,40,9999,0.100000,0,0,0.000000,5,0.000000,0.000000,1.148307,0,0,0,0,0,0,0
9,99999,26,90000,21,0,49,9999,0.100000,0,0,0.000000,5,1.000000,0.000000,1.838008,0,0,0,0,0,0,0
9,99999,27,90000,0,60000,40,9999,0.100000,0,0,0.000000,5,0.000000,0.000000,4.157422,0,0,0,0,0,0,0
9,99999,28,90000,0,40000,40,9999,0.100000,0,0,0.000000,5,0.000000,0.000000,0.798250,0,0,0,0,0,0,0
9,99999,29,90000,21,0,40,9999,0.100000,0,0,0.000000,5,0.000000,0.000000,0.237190,0,0,0,0,0,0,0
9,99999,30,90000,50,20000,49,9999,0.100000,0,0,0.000000,5,3.000000,0.000000,22.037280,0,0,0,0,0,0,0
9,99999,31,90000,21,0,40,9999,0.100000,0,0,0.000000,5,0.000000,0.000000,0.509372,0,0,0,0,0,0,0
9,99999,32,90000,50,20000,49,9999,0.100000,0,0,0.000000,5,1.000000,0.000000,1.495286,0,0,0,0,0,0,0
9,99999,33,90000,50,20000,40,9999,0.100000,0,0,0.000000,5,0.000000,0.000000,0.112311,0,0,0,0,0,0,0
9,99999,34,90000,0,40000,40,9999,0.100000,0,0,0.000000,5,0.000000,0.000000,0.887748,0,0,0,0,0,0,0
9,99999,35,90000,21,0,49,9999,0.100000,0,0,0.000000,5,8.000000,0.000000,11.743899,0,0,0,0,0,0,0
9,99999,36,90000,0,60000,49,9999,0.100000,0,0,0.000000,5,3.000000,0.000000,14.054334,0,0,0,0,0,0,0
9,99999,37,90000,0,40000,49,9999,0.100000,0,0,0.000000,5,3.000000,0.000000,11.619379,0,0,0,0,0,0,0
9,99999,38,90000,21,0,49,9999,0.100000,0,0,0.000000,5,7.000000,0.000000,9.907053,0,0,0,0,0,0,0
9,99999,39,90000,0,60000,40,9999,0.100000,0,0,0.000000,5,0.000000,0.000000,0.216696,0,0,0,0,0,0,0
9,99999,40,90000,50,20000,40,9999,0.100000,0,0,0.000000,5,0.000000,0.000000,0.517879,0,0,0,0,0,0,0
9,99999,41,90000,0,60000,40,9999,0.100000,0,0,0.000000,5,0.000000,0.000000,0.257085,0,0,0,0,0,0,0
9,99999,42,90000,21,0,40,9999,0.100000,0,0,0.000000,5,0.000000,0.000000,4.814060,0,0,0,0,0,0,0
9,99999,43,90000,50,20000,40,9999,0.065000,0,0,0.000000,5,0.000000,0.000000,0.221540,0,0,0,0,0,0,0
9,99999,44,90000,21,0,40,9999,0.100000,0,0,0.000000,5,0.000000,0.000000,0.995834,0,0,0,0,0,0,0
9,99999,45,90000,0,60000,40,9999,0.100000,0,0,0.000000,5,0.000000,0.000000,0.129210,0,0,0,0,0,0,0
9,99999,46,90000,0,60000,40,9999,0.100000,0,0,0.000000,5,0.000000,0.000000,0.769935,0,0,0,0,0,0,0
9,99999,47,90000,0,40000,40,9999,0.100000,0,0,0.000000,5,0.000000,0.000000,0.548555,0,0,0,0,0,0,0
9,99999,48,90000,2,0,40,9999,0.100000,0,0,0.000000,5,0.000000,0.000000,0.665764,0,0,0,0,0,0,0
9,99999,49,90000,0,40000,40,9999,0.100000,0,0,0.000000,5,0.000000,0.000000,0.158198,0,0,0,0,0,0,0
9,99999,50,90000,50,20000,49,9999,0.100000,0,0,0.000000,5,1.000000,0.000000,1.226972,0,0,0,0,0,0,0
9,99999,51,90000,50,20000,40,9999,0.100000,0,0,0.000000,5,0.000000,0.000000,3.006179,0,0,0,0,0,0,0
9,99999,52,90000,0,40000,40,9999,0.100000,0,0,0.000000,5,0.000000,0.000000,0.249226,0,0,0,0,0,0,0
9,99999,53,90000,0,40000,40,9999,0.100000,0,0,0.000000,5,0.000000,0.000000,0.081325,0,0,0,0,0,0,0
9,99999,54,90000,0,60000,40,9999,0.100000,0,0,0.000000,5,0.000000,0.000000,0.948830,0,0,0,0,0,0,0
9,99999,55,90000,50,20000,40,9999,0.100000,0,0,0.000000,5,0.000000,0.000000,1.223521,0,0,0,0,0,0,0
9,99999,56,90000,50,20000,40,9999,0.100000,0,0,0.000000,5,0.000000,0.000000,0.009541,0,0,0,0,0,0,0
9,99999,57,90000,0,40000,49,9999,0.100000,0,0,0.000000,5,1.000000,0.000000,1.727449,0,0,0,0,0,0,0
9,99999,58,90000,0,40000,40,9999,0.100000,0,0,0.000000,5,0.000000,0.000000,1.800487,0,0,0,0,0,0,0
9,99999,59,90000,21,0,49,9999,0.100000,0,0,0.000000,5,5.000000,0.000000,8.277911,0,0,0,0,0,0,0
9,99999,60,90000,21,0,40,9999,0.100000,0,0,0.000000,5,0.000000,0.000000,0.090057,0,0,0,0,0,0,0
9,99999,61,90000,21,0,40,9999,0.100000,0,0,0.000000,5,0.000000,0.000000,1.021124,0,0,0,0,0,0,0
9,99999,62,90000,21,0,49,9999,0.100000,0,0,0.000000,5,10.000000,0.000000,20.799106,0,0,0,0,0,0,0
9,99999,63,90000,2,0,40,9999,0.100000,0,0,0.000000,5,0.000000,0.000000,0.108544,0,0,0,0,0,0,0
9,99999,64,90000,0,60000,49,9999,0.100000,0,0,0.000000,5,2.000000,0.000000,4.562071,0,0,0,0,0,0,0
9,99999,65,90000,0,40000,40,9999,0.100000,0,0,0.000000,5,0.000000,0.000000,0.626152,0,0,0,0,0,0,0
9,99999,66,90000,0,60000,49,9999,0.100000,0,0,0.000000,5,8.000000,0.000000,12.653737,0,0,0,0,0,0,0
9,99999,67,90000,50,20000,40,9999,0.100000,0,0,0.000000,5,0.000000,0.000000,0.105299,0,0,0,0,0,0,0
9,99999,68,90000,0,40000,40,9999,0.100000,0,0,0.000000,5,0.000000,0.000000,0.585106,0,0,0,0,0,0,0
9,99999,69,90000,50,20000,49,9999,0.100000,0,0,0.000000,5,1.000000,0.000000,7.376358,0,0,0,0,0,0,0
9,99999,70,90000,0,40000,49,9999,0.100000,0,0,0.000000,5,5.000000,0.000000,11.400389,0,0,0,0,0,0,0
9,99999,71,90000,21,0,40,9999,0.100000,0,0,0.000000,5,0.000000,0.000000,23.290360,0,0,0,0,0,0,0
9,99999,72,90000,0,60000,49,9999,0.100000,0,0,0.000000,5,3.000000,0.000000,9.453439,0,0,0,0,0,0,0
9,99999,73,90000,21,0,40,9999,0.100000,0,0,0.000000,5,0.000000,0.000000,0.142655,0,0,0,0,0,0,0
9,99999,74,90000,0,40000,49,9999,0.100000,0,0,0.000000,5,2.000000,0.000000,6.164899,0,0,0,0,0,0,0
9,99999,75,90000,0,60000,40,9999,0.100000,0,0,0.000000,5,0.000000,0.000000,0.114675,0,0,0,0,0,0,0
9,99999,76,90000,2,0,49,9999,0.100000,0,0,0.000000,5,2.000000,0.000000,9.474643,0,0,0,0,0,0,0
9,99999,77,90000,0,40000,49,9999,0.100000,0,0,0.000000,5,3.000000,0.000000,7.550743,0,0,0,0,0,0,0
9,99999,78,90000,0,60000,40,9999,0.100000,0,0,0.000000,5,0.000000,0.000000,0.142461,0,0,0,0,0,0,0
9,99999,79,90000,0,40000,40,9999,0.100000,0,0,0.000000,5,0.000000,0.000000,0.885037,0,0,0,0,0,0,0
9,99999,80,90000,2,0,40,9999,0.100000,0,0,0.000000,5,0.000000,0.000000,0.583778,0,0,0,0,0,0,0
9,99999,81,90000,2,0,40,9999,0.100000,0,0,0.000000,5,0.000000,0.000000,0.117552,0,0,0,0,0,0,0
9,99999,82,90000,50,20000,40,9999,0.100000,0,0,0.000000,5,0.000000,0.000000,0.339129,0,0,0,0,0,0,0
9,99999,83,90000,50,20000,40,9999,0.100000,0,0,0.000000,5,0.000000,0.000000,0.287979,0,0,0,0,0,0,0
9,99999,84,90000,2,0,40,9999,0.100000,0,0,0.000000,5,0.000000,0.000000,0.547307,0,0,0,0,0,0,0
9,99999,85,90000,0,60000,40,9999,0.100000,0,0,0.000000,5,0.000000,0.000000,1.113525,0,0,0,0,0,0,0
9,99999,86,90000,50,20000,40,9999,0.100000,0,0,0.000000,5,0.000000,0.000000,0.165395,0,0,0,0,0,0,0
9,99999,87,90000,2,0,40,9999,0.100000,0,0,0.000000,5,0.000000,0.000000,0.168683,0,0,0,0,0,0,0
9,99999,88,90000,50,20000,40,9999,0.100000,0,0,0.000000,5,0.000000,0.000000,0.279204,0,0,0,0,0,0,0
9,99999,89,90000,21,0,40,9999,0.100000,0,0,0.000000,5,0.000000,0.000000,0.112016,0,0,0,0,0,0,0
9,99999,90,90000,2,0,40,9999,0.100000,0,0,0.000000,5,0.000000,0.000000,0.066833,0,0,0,0,0,0,0
9,99999,91,90000,0,60000,49,9999,0.100000,0,0,0.000000,5,5.000000,0.000000,12.335176,0,0,0,0,0,0,0
9,99999,92,90000,0,60000,40,9999,0.100000,0,0,0.000000,5,0.000000,0.000000,0.157867,0,0,0,0,0,0,0
9,99999,93,90000,2,0,40,9999,0.100000,0,0,0.000000,5,0.000000,0.000000,0.139447,0,0,0,0,0,0,0
9,99999,94,90000,50,20000,40,9999,0.100000,0,0,0.000000,5,0.000000,0.000000,0.435994,0,0,0,0,0,0,0
9,99999,95,90000,50,20000,49,9999,0.100000,0,0,0.000000,5,2.000000,0.000000,16.591701,0,0,0,0,0,0,0
9,99999,96,90000,0,60000,49,9999,0.100000,0,0,0.000000,5,3.000000,0.000000,7.271086,0,0,0,0,0,0,0
9,99999,97,90000,2,0,49,9999,0.100000,0,0,0.000000,5,8.000000,0.000000,17.374706,0,0,0,0,0,0,0
9,99999,98,90000,0,60000,49,9999,0.100000,0,0,0.000000,5,2.000000,0.000000,9.646678,0,0,0,0,0,0,0
9,99999,99,90000,0,40000,49,9999,0.100000,0,0,0.000000,5,7.000000,0.000000,12.439270,0,0,0,0,0,0,0
10,109999,0,100000,50,20000,40,9999,0.100000,0,0,0.000000,5,0.000000,0.000000,0.676268,0,0,0,0,0,0,0
10,109999,1,100000,0,60000,40,9999,0.100000,0,0,0.000000,5,0.000000,0.000000,1.003611,0,0,0,0,0,0,0
10,109999,2,100000,21,0,40,9999,0.100000,0,0,0.000000,5,0.000000,0.000000,0.211309,0,0,0,0,0,0,0
10,109999,3,100000,0,60000,49,9999,0.100000,0,0,0.000000,5,3.000000,0.000000,15.193561,0,0,0,0,0,0,0
10,109999,4,100000,21,0,40,9999,0.100000,0,0,0.000000,5,0.000000,0.000000,0.198162,0,0,0,0,0,0,0
10,109999,5,100000,0,40000,40,9999,0.100000,0,0,0.000000,5,0.000000,0.000000,0.223939,0,0,0,0,0,0,0
10,109999,6,100000,0,60000,40,9999,0.100000,0,0,0.000000,5,0.000000,0.000000,0.210712,0,0,0,0,0,0,0
10,109999,7,100000,50,20000,40,9999,0.100000,0,0,0.000000,5,0.000000,0.000000,1.787760,0,0,0,0,0,0,0
10,109999,8,100000,50,20000,49,9999,0.100000,0,0,0.000000,5,1.000000,0.000000,1.877115,0,0,0,0,0,0,0
10,109999,9,100000,0,40000,40,9999,0.100000,0,0,0.000000,5,0.000000,0.000000,0.103499,0,0,0,0,0,0,0
10,109999,10,100000,0,40000,40,9999,0.100000,0,0,0.000000,5,0.000000,0.000000,0.136293,0,0,0,0,0,0,0
10,109999,11,100000,0,60000,49,9999,0.100000,0,0,0.000000,5,3.000000,0.000000,15.995649,0,0,0,0,0,0,0
10,109999,12,100000,0,40000,49,9999,0.100000,0,0,0.000000,5,5.000000,0.000000,15.420044,0,0,0,0,0,0,0
10,109999,13,100000,21,0,40,9999,0.100000,0,0,0.000000,5,0.000000,0.000000,0.280116,0,0,0,0,0,0,0
10,109999,14,100000,2,0,40,9999,0.100000,0,0,0.000000,5,0.000000,0.000000,0.230512,0,0,0,0,0,0,0
10,109999,15,100000,0,40000,40,9999,0.135000,0,0,0.000000,5,0.000000,0.000000,0.215864,0,0,0,0,0,0,0
10,109999,16,100000,0,40000,40,9999,0.100000,0,0,0.000000,5,0.000000,0.000000,0.110329,0,0,0,0,0,0,0
10,109999,17,100000,50,20000,40,9999,0.100000,0,0,0.000000,5,0.000000,0.000000,0.126879,0,0,0,0,0,0,0
10,109999,18,100000,2,0,40,9999,0.100000,0,0,0.000000,5,0.000000,0.000000,0.393851,0,0,0,0,0,0,0
10,109999,19,100000,50,20000,40,9999,0.100000,0,0,0.000000,5,0.000000,0.000000,0.149552,0,0,0,0,0,0,0
10,109999,20,100000,21,0,49,9999,0.100000,0,0,0.000000,5,1.000000,0.000000,1.756422,0,0,0,0,0,0,0
10,109999,21,100000,0,60000,40,9999,0.100000,0,0,0.000000,5,0.000000,0.000000,21.782683,0,0,0,0,0,0,0
10,109999,22,100000,2,0,49,9999,0.100000,0,0,0.000000,5,4.000000,0.000000,12.736889,0,0,0,0,0,0,0
10,109999,23,100000,0,60000,49,9999,0.100000,0,0,0.000000,5,1.000000,0.000000,12.687589,0,0,0,0,0,0,0
10,109999,24,100000,2,0,40,9999,0.100000,0,0,0.000000,5,0.000000,0.000000,0.502930,0,0,0,0,0,0,0
10,109999,25,100000,50,20000,49,9999,0.100000,0,0,0.000000,5,1.000000,0.000000,5.722913,0,0,0,0,0,0,0
10,109999,26,100000,2,0,40,9999,0.100000,0,0,0.000000,5,0.000000,0.000000,0.553689,0,0,0,0,0,0,0
10,109999,27,100000,0,40000,40,9999,0.100000,0,0,0.000000,5,0.000000,0.000000,0.211631,0,0,0,0,0,0,0
10,109999,28,100000,0,40000,40,9999,0.100000,0,0,0.000000,5,0.000000,0.000000,0.887056,0,0,0,0,0,0,0
10,109999,29,100000,21,0,40,9999,0.100000,0,0,0.000000,5,0.000000,0.000000,0.229010,0,0,0,0,0,0,0
10,109999,30,100000,0,40000,49,9999,0.100000,0,0,0.000000,5,4.000000,0.000000,12.041351,0,0,0,0,0,0,0
10,109999,31,100000,2,0,40,9999,0.100000,0,0,0.000000,5,0.000000,0.000000,0.624911,0,0,0,0,0,0,0
10,109999,32,100000,0,60000,40,9999,0.100000,0,0,0.000000,5,0.000000,0.000000,0.282584,0,0,0,0,0,0,0
10,109999,33,100000,2,0,40,9999,0.100000,0,0,0.000000,5,0.000000,0.000000,0.064179,0,0,0,0,0,0,0
10,109999,34,100000,2,0,49,9999,0.100000,0,0,0.000000,5,2.000000,0.000000,2.114312,0,0,0,0,0,0,0
10,109999,35,100000,2,0,40,9999,0.100000,0,0,0.000000,5,0.000000,0.000000,10.769333,0,0,0,0,0,0,0
10,109999,36,100000,21,0,49,9999,0.100000,0,0,0.000000,5,2.000000,0.000000,7.831263,0,0,0,0,0,0,0
10,109999,37,100000,0,40000,49,9999,0.100000,0,0,0.000000,5,3.000000,0.000000,7.193493,0,0,0,0,0,0,0
10,109999,38,100000,0,40000,40,9999,0.100000,0,0,0.000000,5,0.000000,0.000000,0.290390,0,0,0,0,0,0,0
10,109999,39,100000,0,40000,40,9999,0.100000,0,0,0.000000,5,0.000000,0.000000,0.069272,0,0,0,0,0,0,0
10,109999,40,100000,0,60000,40,9999,0.100000,0,0,0.000000,5,0.000000,0.000000,0.520840,0,0,0,0,0,0,0
10,109999,41,100000,0,60000,40,9999,0.100000,0,0,0.000000,5,0.000000,0.000000,1.012354,0,0,0,0,0,0,0
10,109999,42,100000,0,60000,49,9999,0.100000,0,0,0.000000,5,6.000000,0.000000,15.822809,0,0,0,0,0,0,0
10,109999,43,100000,50,20000,40,9999,0.100000,0,0,0.000000,5,0.000000,0.000000,0.109030,0,0,0,0,0,0,0
10,109999,44,100000,50,20000,40,9999,0.100000,0,0,0.000000,5,0.000000,0.000000,0.944944,0,0,0,0,0,0,0
10,109999,45,100000,0,40000,40,9999,0.100000,0,0,0.000000,5,0.000000,0.000000,0.084137,0,0,0,0,0,0,0
10,109999,46,100000,21,0,40,9999,0.100000,0,0,0.000000,5,0.000000,0.000000,0.969060,0,0,0,0,0,0,0
10,109999,47,100000,21,0,40,9999,0.065000,0,0,0.000000,5,0.000000,0.000000,0.607381,0,0,0,0,0,0,0
10,109999,48,100000,2,0,40,9999,0.100000,0,0,0.000000,5,0.000000,0.000000,0.661115,0,0,0,0,0,0,0
10,109999,49,100000,2,0,40,9999,0.100000,0,0,0.000000,5,0.000000,0.000000,0.154419,0,0,0,0,0,0,0
10,109999,50,100000,0,60000,49,9999,0.100000,0,0,0.000000,5,2.000000,0.000000,11.643879,0,0,0,0,0,0,0
10,109999,51,100000,0,60000,49,9999,0.100000,0,0,0.000000,5,3.000000,0.000000,13.440318,0,0,0,0,0,0,0
10,109999,52,100000,21,0,40,9999,0.100000,0,0,0.000000,5,0.000000,0.000000,0.259285,0,0,0,0,0,0,0
10,109999,53,100000,21,0,40,9999,0.100000,0,0,0.000000,5,0.000000,0.000000,0.070826,0,0,0,0,0,0,0
10,109999,54,100000,0,40000,40,9999,0.100000,0,0,0.000000,5,0.000000,0.000000,0.266233,0,0,0,0,0,0,0
10,109999,55,100000,2,0,40,9999,0.100000,0,0,0.000000,5,0.000000,0.000000,1.609408,0,0,0,0,0,0,0
10,109999,56,100000,2,0,40,9999,0.100000,0,0,0.000000,5,0.000000,0.000000,0.009542,0,0,0,0,0,0,0
10,109999,57,100000,2,0,40,9999,0.100000,0,0,0.000000,5,0.000000,0.000000,0.677259,0,0,0,0,0,0,0
10,109999,58,100000,0,40000,40,9999,0.100000,0,0,0.000000,5,0.000000,0.000000,0.854394,0,0,0,0,0,0,0
10,109999,59,100000,21,0,49,9999,0.100000,0,0,0.000000,5,2.000000,0.000000,9.237970,0,0,0,0,0,0,0
10,109999,60,100000,0,60000,40,9999,0.100000,0,0,0.000000,5,0.000000,0.000000,0.090796,0,0,0,0,0,0,0
10,109999,61,100000,0,40000,40,9999,0.100000,0,0,0.000000,5,0.000000,0.000000,0.974083,0,0,0,0,0,0,0
10,109999,62,100000,21,0,40,9999,0.100000,0,0,0.000000,5,0.000000,0.000000,0.102429,0,0,0,0,0,0,0
10,109999,63,100000,21,0,40,9999,0.100000,0,0,0.000000,5,0.000000,0.000000,0.107053,0,0,0,0,0,0,0
10,109999,64,100000,0,60000,49,9999,0.100000,0,0,0.000000,5,1.000000,0.000000,4.520552,0,0,0,0,0,0,0
10,109999,65,100000,2,0,49,9999,0.100000,0,0,0.000000,5,4.000000,0.000000,8.523974,0,0,0,0,0,0,0
10,109999,66,100000,21,0,40,9999,0.100000,0,0,0.000000,5,0.000000,0.000000,3.972117,0,0,0,0,0,0,0
10,109999,67,100000,50,20000,40,9999,0.100000,0,0,0.000000,5,0.000000,0.000000,0.295940,0,0,0,0,0,0,0
10,109999,68,100000,21,0,40,9999,0.100000,0,0,0.000000,5,0.000000,0.000000,0.644344,0,0,0,0,0,0,0
10,109999,69,100000,0,60000,49,9999,0.100000,0,0,0.000000,5,7.000000,0.000000,16.338786,0,0,0,0,0,0,0
10,109999,70,100000,2,0,49,9999,0.100000,0,0,0.000000,5,1.000000,0.000000,5.973379,0,0,0,0,0,0,0
10,109999,71,100000,0,40000,40,9999,0.100000,0,0,0.000000,5,0.000000,0.000000,23.074183,0,0,0,0,0,0,0
10,109999,72,100000,50,20000,40,9999,0.100000,0,0,0.000000,5,0.000000,0.000000,1.036734,0,0,0,0,0,0,0
10,109999,73,100000,0,60000,40,9999,0.100000,0,0,0.000000,5,0.000000,0.000000,0.141640,0,0,0,0,0,0,0
10,109999,74,100000,50,20000,40,9999,0.100000,0,0,0.000000,5,0.000000,0.000000,5.143749,0,0,0,0,0,0,0
10,109999,75,100000,50,20000,40,9999,0.100000,0,0,0.000000,5,0.000000,0.000000,0.112014,0,0,0,0,0,0,0
10,109999,76,100000,0,60000,49,9999,0.100000,0,0,0.000000,5,1.000000,0.000000,8.834786,0,0,0,0,0,0,0
10,109999,77,100000,0,60000,40,9999,0.100000,0,0,0.000000,5,0.000000,0.000000,1.641228,0,0,0,0,0,0,0
10,109999,78,100000,0,40000,40,9999,0.135000,0,0,0.000000,5,0.000000,0.000000,0.099215,0,0,0,0,0,0,0
10,109999,79,100000,21,0,40,9999,0.100000,0,0,0.000000,5,0.000000,0.000000,0.892107,0,0,0,0,0,0,0
10,109999,80,100000,21,0,40,9999,0.100000,0,0,0.000000,5,0.000000,0.000000,0.896536,0,0,0,0,0,0,0
10,109999,81,100000,50,20000,40,9999,0.100000,0,0,0.000000,5,0.000000,0.000000,0.477039,0,0,0,0,0,0,0
10,109999,82,100000,50,20000,40,9999,0.100000,0,0,0.000000,5,0.000000,0.000000,0.361216,0,0,0,0,0,0,0
10,109999,83,100000,0,40000,49,9999,0.100000,0,0,0.000000,5,9.000000,0.000000,19.331740,0,0,0,0,0,0,0
10,109999,84,100000,0,60000,40,9999,0.100000,0,0,0.000000,5,0.000000,0.000000,0.915189,0,0,0,0,0,0,0
10,109999,85,100000,21,0,40,9999,0.100000,0,0,0.000000,5,0.000000,0.000000,8.608871,0,0,0,0,0,0,0
10,109999,86,100000,50,20000,40,9999,0.100000,0,0,0.000000,5,0.000000,0.000000,0.199257,0,0,0,0,0,0,0
10,109999,87,100000,0,60000,40,9999,0.100000,0,0,0.000000,5,0.000000,0.000000,0.162458,0,0,0,0,0,0,0
10,109999,88,100000,21,0,40,9999,0.100000,0,0,0.000000,5,0.000000,0.000000,0.148200,0,0,0,0,0,0,0
10,109999,89,100000,0,40000,40,9999,0.100000,0,0,0.000000,5,0.000000,0.000000,0.113461,0,0,0,0,0,0,0
10,109999,90,100000,50,20000,40,9999,0.100000,0,0,0.000000,5,0.000000,0.000000,0.437014,0,0,0,0,0,0,0
10,109999,91,100000,2,0,49,9999,0.100000,0,0,0.000000,5,1.000000,0.000000,9.225484,0,0,0,0,0,0,0
10,109999,92,100000,50,20000,40,9999,0.100000,0,0,0.000000,5,0.000000,0.000000,0.144692,0,0,0,0,0,0,0
10,109999,93,100000,21,0,40,9999,0.100000,0,0,0.000000,5,0.000000,0.000000,0.137705,0,0,0,0,0,0,0
10,109999,94,100000,0,40000,40,9999,0.100000,0,0,0.000000,5,0.000000,0.000000,0.453075,0,0,0,0,0,0,0
10,109999,95,100000,50,20000,49,9999,0.100000,0,0,0.000000,5,2.000000,0.000000,11.464832,0,0,0,0,0,0,0
10,109999,96,100000,0,60000,49,9999,0.100000,0,0,0.000000,5,3.000000,0.000000,9.073460,0,0,0,0,0,0,0
10,109999,97,100000,2,0,40,9999,0.100000,0,0,0.000000,5,0.000000,0.000000,0.298790,0,0,0,0,0,0,0
10,109999,98,100000,0,40000,40,9999,0.100000,0,0,0.000000,5,0.000000,0.000000,3.206339,0,0,0,0,0,0,0
10,109999,99,100000,0,60000,49,9999,0.100000,0,0,0.000000,5,5.000000,0.000000,6.366524,0,0,0,0,0,0,0
11,119999,0,110000,0,40000,40,9999,0.100000,0,0,0.000000,5,0.000000,0.000000,0.966141,0,0,0,0,0,0,0
11,119999,1,110000,50,20000,40,9999,0.100000,0,0,0.000000,5,0.000000,0.000000,1.017981,0,0,0,0,0,0,0
11,119999,2,110000,21,0,40,9999,0.100000,0,0,0.000000,5,0.000000,0.000000,0.204403,0,0,0,0,0,0,0
11,119999,3,110000,0,40000,49,9999,0.100000,0,0,0.000000,5,4.000000,0.000000,15.173355,0,0,0,0,0,0,0
11,119999,4,110000,50,20000,40,9999,0.100000,0,0,0.000000,5,0.000000,0.000000,0.158120,0,0,0,0,0,0,0
11,119999,5,110000,2,0,40,9999,0.100000,0,0,0.000000,5,0.000000,0.000000,0.131452,0,0,0,0,0,0,0
11,119999,6,110000,50,20000,40,9999,0.100000,0,0,0.000000,5,0.000000,0.000000,0.225893,0,0,0,0,0,0,0
11,119999,7,110000,0,60000,40,9999,0.100000,0,0,0.000000,5,0.000000,0.000000,2.362506,0,0,0,0,0,0,0
11,119999,8,110000,2,0,49,9999,0.100000,0,0,0.000000,5,1.000000,0.000000,4.470273,0,0,0,0,0,0,0
11,119999,9,110000,0,60000,40,9999,0.100000,0,0,0.000000,5,0.000000,0.000000,0.103525,0,0,0,0,0,0,0
11,119999,10,110000,50,20000,40,9999,0.100000,0,0,0.000000,5,0.000000,0.000000,0.116403,0,0,0,0,0,0,0
11,119999,11,110000,50,20000,49,9999,0.100000,0,0,0.000000,5,3.000000,0.000000,6.629383,0,0,0,0,0,0,0
11,119999,12,110000,0,60000,49,9999,0.100000,0,0,0.000000,5,5.000000,0.000000,11.113670,0,0,0,0,0,0,0
11,119999,13,110000,0,60000,40,9999,0.100000,0,0,0.000000,5,0.000000,0.000000,1.576376,0,0,0,0,0,0,0
11,119999,14,110000,50,20000,40,9999,0.100000,0,0,0.000000,5,0.000000,0.000000,0.224770,0,0,0,0,0,0,0
11,119999,15,110000,21,0,40,9999,0.100000,0,0,0.000000,5,0.000000,0.000000,0.761202,0,0,0,0,0,0,0
11,119999,16,110000,21,0,49,9999,0.100000,0,0,0.000000,5,4.000000,0.000000,10.089989,0,0,0,0,0,0,0
11,119999,17,110000,50,20000,40,9999,0.100000,0,0,0.000000,5,0.000000,0.000000,0.120084,0,0,0,0,0,0,0
11,119999,18,110000,0,60000,40,9999,0.100000,0,0,0.000000,5,0.000000,0.000000,0.802027,0,0,0,0,0,0,0
11,119999,19,110000,2,0,40,9999,0.100000,0,0,0.000000,5,0.000000,0.000000,0.144379,0,0,0,0,0,0,0
11,119999,20,110000,0,40000,49,9999,0.100000,0,0,0.000000,5,1.000000,0.000000,21.239980,0,0,0,0,0,0,0
11,119999,21,110000,0,40000,40,9999,0.100000,0,0,0.000000,5,0.000000,0.000000,22.229032,0,0,0,0,0,0,0
11,119999,22,110000,0,40000,49,9999,0.100000,0,0,0.000000,5,1.000000,0.000000,7.322033,0,0,0,0,0,0,0
11,119999,23,110000,0,40000,49,9999,0.100000,0,0,0.000000,5,1.000000,0.000000,9.076771,0,0,0,0,0,0,0
11,119999,24,110000,0,40000,40,9999,0.100000,0,0,0.000000,5,0.000000,0.000000,0.589201,0,0,0,0,0,0,0
11,119999,25,110000,0,40000,49,9999,0.100000,0,0,0.000000,5,1.000000,0.000000,11.654977,0,0,0,0,0,0,0
11,119999,26,110000,0,40000,40,9999,0.100000,0,0,0.000000,5,0.000000,0.000000,0.914061,0,0,0,0,0,0,0
11,119999,27,110000,0,40000,40,9999,0.100000,0,0,0.000000,5,0.000000,0.000000,0.503973,0,0,0,0,0,0,0
11,119999,28,110000,0,60000,40,9999,0.100000,0,0,0.000000,5,0.000000,0.000000,0.808148,0,0,0,0,0,0,0
11,119999,29,110000,50,20000,40,9999,0.100000,0,0,0.000000,5,0.000000,0.000000,0.238142,0,0,0,0,0,0,0
11,119999,30,110000,50,20000,49,9999,0.065000,0,0,0.000000,5,3.000000,0.000000,7.352414,0,0,0,0,0,0,0
11,119999,31,110000,2,0,40,9999,0.100000,0,0,0.000000,5,0.000000,0.000000,0.524964,0,0,0,0,0,0,0
11,119999,32,110000,50,20000,40,9999,0.100000,0,0,0.000000,5,0.000000,0.000000,0.585836,0,0,0,0,0,0,0
11,119999,33,110000,50,20000,40,9999,0.100000,0,0,0.000000,5,0.000000,0.000000,0.059801,0,0,0,0,0,0,0
11,119999,34,110000,50,20000,40,9999,0.100000,0,0,0.000000,5,0.000000,0.000000,2.202841,0,0,0,0,0,0,0
11,119999,35,110000,2,0,40,9999,0.100000,0,0,0.000000,5,0.000000,0.000000,4.253441,0,0,0,0,0,0,0
11,119999,36,110000,0,60000,49,9999,0.100000,0,0,0.000000,5,4.000000,0.000000,14.189067,0,0,0,0,0,0,0
11,119999,37,110000,2,0,49,9999,0.100000,0,0,0.000000,5,9.000000,0.000000,22.150286,0,0,0,0,0,0,0
11,119999,38,110000,50,20000,40,9999,0.100000,0,0,0.000000,5,0.000000,0.000000,0.285866,0,0,0,0,0,0,0
11,119999,39,110000,0,60000,40,9999,0.100000,0,0,0.000000,5,0.000000,0.000000,0.062512,0,0,0,0,0,0,0
11,119999,40,110000,0,60000,40,9999,0.100000,0,0,0.000000,5,0.000000,0.000000,0.619343,0,0,0,0,0,0,0
11,119999,41,110000,0,60000,40,9999,0.100000,0,0,0.000000,5,0.000000,0.000000,0.421340,0,0,0,0,0,0,0
11,119999,42,110000,0,40000,49,9999,0.100000,0,0,0.000000,5,1.000000,0.000000,19.600675,0,0,0,0,0,0,0
11,119999,43,110000,0,60000,40,9999,0.100000,0,0,0.000000,5,0.000000,0.000000,0.129884,0,0,0,0,0,0,0
11,119999,44,110000,21,0,40,9999,0.100000,0,0,0.000000,5,0.000000,0.000000,0.923105,0,0,0,0,0,0,0
11,119999,45,110000,2,0,40,9999,0.100000,0,0,0.000000,5,0.000000,0.000000,0.087357,0,0,0,0,0,0,0
11,119999,46,110000,0,40000,40,9999,0.100000,0,0,0.000000,5,0.000000,0.000000,0.738275,0,0,0,0,0,0,0
11,119999,47,110000,21,0,40,9999,0.100000,0,0,0.000000,5,0.000000,0.000000,0.901783,0,0,0,0,0,0,0
11,119999,48,110000,0,60000,40,9999,0.100000,0,0,0.000000,5,0.000000,0.000000,0.635534,0,0,0,0,0,0,0
11,119999,49,110000,50,20000,40,9999,0.100000,0,0,0.000000,5,0.000000,0.000000,0.153811,0,0,0,0,0,0,0
11,119999,50,110000,2,0,40,9999,0.100000,0,0,0.000000,5,0.000000,0.000000,1.003859,0,0,0,0,0,0,0
11,119999,51,110000,2,0,49,9999,0.100000,0,0,0.000000,5,3.000000,0.000000,14.098158,0,0,0,0,0,0,0
11,119999,52,110000,0,60000,40,9999,0.100000,0,0,0.000000,5,0.000000,0.000000,0.256503,0,0,0,0,0,0,0
11,119999,53,110000,0,60000,40,9999,0.100000,0,0,0.000000,5,0.000000,0.000000,0.057936,0,0,0,0,0,0,0
11,119999,54,110000,0,40000,40,9999,0.100000,0,0,0.000000,5,0.000000,0.000000,0.548478,0,0,0,0,0,0,0
11,119999,55,110000,50,20000,40,9999,0.100000,0,0,0.000000,5,0.000000,0.000000,3.711903,0,0,0,0,0,0,0
11,119999,56,110000,2,0,49,9999,0.100000,0,0,0.000000,5,4.000000,0.000000,8.602334,0,0,0,0,0,0,0
11,119999,57,110000,21,0,40,9999,0.100000,0,0,0.000000,5,0.000000,0.000000,0.846693,0,0,0,0,0,0,0
11,119999,58,110000,50,20000,40,9999,0.100000,0,0,0.000000,5,0.000000,0.000000,0.948442,0,0,0,0,0,0,0
11,119999,59,110000,2,0,49,9999,0.100000,0,0,0.000000,5,2.000000,0.000000,7.351454,0,0,0,0,0,0,0
11,119999,60,110000,2,0,40,9999,0.100000,0,0,0.000000,5,0.000000,0.000000,0.089615,0,0,0,0,0,0,0
11,119999,61,110000,2,0,40,9999,0.100000,0,0,0.000000,5,0.000000,0.000000,0.802705,0,0,0,0,0,0,0
11,119999,62,110000,0,40000,40,9999,0.100000,0,0,0.000000,5,0.000000,0.000000,0.101493,0,0,0,0,0,0,0
11,119999,63,110000,2,0,40,9999,0.100000,0,0,0.000000,5,0.000000,0.000000,0.107733,0,0,0,0,0,0,0
11,119999,64,110000,0,60000,40,9999,0.100000,0,0,0.000000,5,0.000000,0.000000,7.546220,0,0,0,0,0,0,0
11,119999,65,110000,2,0,49,9999,0.100000,0,0,0.000000,5,6.000000,0.000000,12.754659,0,0,0,0,0,0,0
11,119999,66,110000,21,0,40,9999,0.100000,0,0,0.000000,5,0.000000,0.000000,0.970415,0,0,0,0,0,0,0
11,119999,67,110000,50,20000,40,9999,0.100000,0,0,0.000000,5,0.000000,0.000000,0.105804,0,0,0,0,0,0,0
11,119999,68,110000,21,0,49,9999,0.100000,0,0,0.000000,5,1.000000,0.000000,1.945905,0,0,0,0,0,0,0
11,119999,69,110000,2,0,40,9999,0.100000,0,0,0.000000,5,0.000000,0.000000,22.153819,0,0,0,0,0,0,0
11,119999,70,110000,50,20000,40,9999,0.100000,0,0,0.000000,5,0.000000,0.000000,0.924050,0,0,0,0,0,0,0
11,119999,71,110000,0,40000,49,9999,0.100000,0,0,0.000000,5,1.000000,0.000000,12.969208,0,0,0,0,0,0,0
11,119999,72,110000,0,60000,40,9999,0.100000,0,0,0.000000,5,0.000000,0.000000,1.020312,0,0,0,0,0,0,0
11,119999,73,110000,50,20000,40,9999,0.100000,0,0,0.000000,5,0.000000,0.000000,0.139501,0,0,0,0,0,0,0
11,119999,74,110000,50,20000,49,9999,0.100000,0,0,0.000000,5,1.000000,0.000000,6.197683,0,0,0,0,0,0,0
11,119999,75,110000,0,40000,40,9999,0.100000,0,0,0.000000,5,0.000000,0.000000,0.112310,0,0,0,0,0,0,0
11,119999,76,110000,21,0,40,9999,0.100000,0,0,0.000000,5,0.000000,0.000000,2.057315,0,0,0,0,0,0,0
11,119999,77,110000,0,40000,49,9999,0.135000,0,0,0.000000,5,1.000000,0.000000,1.915178,0,0,0,0,0,0,0
11,119999,78,110000,0,60000,40,9999,0.100000,0,0,0.000000,5,0.000000,0.000000,0.099054,0,0,0,0,0,0,0
11,119999,79,110000,0,40000,49,9999,0.100000,0,0,0.000000,5,1.000000,0.000000,2.209912,0,0,0,0,0,0,0
11,119999,80,110000,21,0,49,9999,0.100000,0,0,0.000000,5,1.000000,0.000000,2.199864,0,0,0,0,0,0,0
11,119999,81,110000,0,60000,40,9999,0.100000,0,0,0.000000,5,0.000000,0.000000,1.780266,0,0,0,0,0,0,0
11,119999,82,110000,0,60000,40,9999,0.100000,0,0,0.000000,5,0.000000,0.000000,0.422643,0,0,0,0,0,0,0
11,119999,83,110000,21,0,40,9999,0.100000,0,0,0.000000,5,0.000000,0.000000,0.351783,0,0,0,0,0,0,0
11,119999,84,110000,50,20000,49,9999,0.100000,0,0,0.000000,5,1.000000,0.000000,5.245447,0,0,0,0,0,0,0
11,119999,85,110000,50,20000,49,9999,0.100000,0,0,0.000000,5,1.000000,0.000000,15.797273,0,0,0,0,0,0,0
11,119999,86,110000,2,0,40,9999,0.100000,0,0,0.000000,5,0.000000,0.000000,0.245602,0,0,0,0,0,0,0
11,119999,87,110000,21,0,40,9999,0.100000,0,0,0.000000,5,0.000000,0.000000,0.174533,0,0,0,0,0,0,0
11,119999,88,110000,0,40000,40,9999,0.100000,0,0,0.000000,5,0.000000,0.000000,0.153264,0,0,0,0,0,0,0
11,119999,89,110000,21,0,40,9999,0.100000,0,0,0.000000,5,0.000000,0.000000,0.117993,0,0,0,0,0,0,0
11,119999,90,110000,2,0,40,9999,0.100000,0,0,0.000000,5,0.000000,0.000000,0.525944,0,0,0,0,0,0,0
11,119999,91,110000,50,20000,40,9999,0.100000,0,0,0.000000,5,0.000000,0.000000,1.054765,0,0,0,0,0,0,0
11,119999,92,110000,2,0,40,9999,0.100000,0,0,0.000000,5,0.000000,0.000000,1.021147,0,0,0,0,0,0,0
11,119999,93,110000,21,0,40,9999,0.100000,0,0,0.000000,5,0.000000,0.000000,0.141324,0,0,0,0,0,0,0
11,119999,94,110000,0,40000,40,9999,0.100000,0,0,0.000000,5,0.000000,0.000000,0.499893,0,0,0,0,0,0,0
11,119999,95,110000,0,60000,49,9999,0.100000,0,0,0.000000,5,3.000000,0.000000,14.712893,0,0,0,0,0,0,0
11,119999,96,110000,0,40000,40,9999,0.135000,0,0,0.000000,5,0.000000,0.000000,5.378128,0,0,0,0,0,0,0
11,119999,97,110000,2,0,40,9999,0.100000,0,0,0.000000,5,0.000000,0.000000,0.613153,0,0,0,0,0,0,0
11,119999,98,110000,2,0,40,9999,0.100000,0,0,0.000000,5,0.000000,0.000000,1.020044,0,0,0,0,0,0,0
11,119999,99,110000,0,60000,49,9999,0.100000,0,0,0.000000,5,1.000000,0.000000,6.875039,0,0,0,0,0,0,0
12,129999,0,120000,0,40000,40,9999,0.100000,0,0,0.000000,5,0.000000,0.000000,0.389208,0,0,0,0,0,0,0
12,129999,1,120000,2,0,40,9999,0.100000,0,0,0.000000,5,0.000000,0.000000,1.005879,0,0,0,0,0,0,0
12,129999,2,120000,0,60000,40,9999,0.100000,0,0,0.000000,5,0.000000,0.000000,0.177638,0,0,0,0,0,0,0
12,129999,3,120000,50,20000,49,9999,0.100000,0,0,0.000000,5,4.000000,0.000000,11.856638,0,0,0,0,0,0,0
12,129999,4,120000,0,60000,40,9999,0.100000,0,0,0.000000,5,0.000000,0.000000,0.156352,0,0,0,0,0,0,0
12,129999,5,120000,0,60000,40,9999,0.100000,0,0,0.000000,5,0.000000,0.000000,0.130023,0,0,0,0,0,0,0
12,129999,6,120000,2,0,40,9999,0.100000,0,0,0.000000,5,0.000000,0.000000,0.259962,0,0,0,0,0,0,0
12,129999,7,120000,50,20000,40,9999,0.100000,0,0,0.000000,5,0.000000,0.000000,0.659497,0,0,0,0,0,0,0
12,129999,8,120000,50,20000,49,9999,0.100000,0,0,0.000000,5,1.000000,0.000000,5.082879,0,0,0,0,0,0,0
12,129999,9,120000,2,0,49,9999,0.100000,0,0,0.000000,5,1.000000,0.000000,1.299919,0,0,0,0,0,0,0
12,129999,10,120000,21,0,40,9999,0.100000,0,0,0.000000,5,0.000000,0.000000,0.107215,0,0,0,0,0,0,0
12,129999,11,120000,0,60000,49,9999,0.100000,0,0,0.000000,5,4.000000,0.000000,14.379045,0,0,0,0,0,0,0
12,129999,12,120000,2,0,40,9999,0.100000,0,0,0.000000,5,0.000000,0.000000,4.643052,0,0,0,0,0,0,0
12,129999,13,120000,0,60000,49,9999,0.100000,0,0,0.000000,5,2.000000,0.000000,3.496949,0,0,0,0,0,0,0
12,129999,14,120000,21,0,40,9999,0.100000,0,0,0.000000,5,0.000000,0.000000,0.164021,0,0,0,0,0,0,0
12,129999,15,120000,21,0,49,9999,0.100000,0,0,0.000000,5,3.000000,0.000000,9.158248,0,0,0,0,0,0,0
12,129999,16,110000,21,0,49,19999,0.100000,0,0,0.000000,5,1.000000,0.000000,1.546134,0,0,0,0,0,0,0
12,129999,17,120000,0,40000,40,9999,0.100000,0,0,0.000000,5,0.000000,0.000000,0.113700,0,0,0,0,0,0,0
12,129999,18,120000,0,60000,49,9999,0.100000,0,0,0.000000,5,2.000000,0.000000,12.363807,0,0,0,0,0,0,0
12,129999,19,120000,2,0,40,9999,0.100000,0,0,0.000000,5,0.000000,0.000000,0.141487,0,0,0,0,0,0,0
12,129999,20,120000,50,20000,40,9999,0.100000,0,0,0.000000,5,0.000000,0.000000,1.146710,0,0,0,0,0,0,0
12,129999,21,120000,21,0,40,9999,0.100000,0,0,0.000000,5,0.000000,0.000000,22.308805,0,0,0,0,0,0,0
12,129999,22,120000,0,60000,40,9999,0.100000,0,0,0.000000,5,0.000000,0.000000,1.413951,0,0,0,0,0,0,0
12,129999,23,120000,50,20000,49,9999,0.100000,0,0,0.000000,5,4.000000,0.000000,20.972554,0,0,0,0,0,0,0
12,129999,24,120000,0,60000,40,9999,0.100000,0,0,0.000000,5,0.000000,0.000000,0.663597,0,0,0,0,0,0,0
12,129999,25,120000,21,0,40,9999,0.100000,0,0,0.000000,5,0.000000,0.000000,2.502109,0,0,0,0,0,0,0
12,129999,26,120000,0,60000,40,9999,0.100000,0,0,0.000000,5,0.000000,0.000000,0.670756,0,0,0,0,0,0,0
12,129999,27,120000,0,60000,49,9999,0.100000,0,0,0.000000,5,1.000000,0.000000,6.334433,0,0,0,0,0,0,0
12,129999,28,120000,21,0,40,9999,0.100000,0,0,0.000000,5,0.000000,0.000000,0.817763,0,0,0,0,0,0,0
12,129999,29,120000,50,20000,40,9999,0.100000,0,0,0.000000,5,0.000000,0.000000,0.231232,0,0,0,0,0,0,0
12,129999,30,120000,2,0,49,9999,0.100000,0,0,0.000000,5,5.000000,0.000000,16.042468,0,0,0,0,0,0,0
12,129999,31,120000,2,0,40,9999,0.100000,0,0,0.000000,5,0.000000,0.000000,0.507047,0,0,0,0,0,0,0
12,129999,32,120000,21,0,40,9999,0.100000,0,0,0.000000,5,0.000000,0.000000,0.430460,0,0,0,0,0,0,0
12,129999,33,120000,50,20000,40,9999,0.100000,0,0,0.000000,5,0.000000,0.000000,0.059521,0,0,0,0,0,0,0
12,129999,34,120000,50,20000,49,9999,0.100000,0,0,0.000000,5,1.000000,0.000000,13.318053,0,0,0,0,0,0,0
12,129999,35,120000,2,0,49,9999,0.100000,0,0,0.000000,5,1.000000,0.000000,5.123196,0,0,0,0,0,0,0
12,129999,36,120000,50,20000,40,9999,0.100000,0,0,0.000000,5,0.000000,0.000000,6.663013,0,0,0,0,0,0,0
