generation,iteration,robot,birthday,ancestor_id,ancestor_birthday,cell_id,age,sigma,maps,genomes,fitness,cells_in_map,dist_max,dist_pot_max,dist_total,com_rx,com_tx,obj_group1,obj_group2,obj_group3,obj_group4,obj_group5
0,9999,0,0,0,0,1,9999,0.100000,0,0,0.000000,0,8.000000,0.000000,24.907325,0,0,0,0,0,0,0
0,9999,1,0,1,0,1,9999,0.100000,0,0,0.000000,0,11.000000,0.000000,12.822991,0,0,0,0,0,0,0
0,9999,2,0,2,0,1,9999,0.100000,0,0,0.000000,0,2.000000,0.000000,9.422488,0,0,0,0,0,0,0
0,9999,3,0,3,0,1,9999,0.100000,0,0,0.000000,0,3.000000,0.000000,11.584853,0,0,0,0,0,0,0
0,9999,4,0,4,0,1,9999,0.100000,0,0,0.000000,0,9.000000,0.000000,14.536558,0,0,0,0,0,0,0
0,9999,5,0,5,0,1,9999,0.100000,0,0,0.000000,0,10.000000,0.000000,14.801664,0,0,0,0,0,0,0
0,9999,6,0,6,0,1,9999,0.100000,0,0,0.000000,0,5.000000,0.000000,8.755175,0,0,0,0,0,0,0
0,9999,7,0,7,0,1,9999,0.100000,0,0,0.000000,0,7.000000,0.000000,20.607249,0,0,0,0,0,0,0
0,9999,8,0,8,0,1,9999,0.100000,0,0,0.000000,0,10.000000,0.000000,20.248671,0,0,0,0,0,0,0
0,9999,9,0,9,0,1,9999,0.100000,0,0,0.000000,0,9.000000,0.000000,36.001777,0,0,0,0,0,0,0
0,9999,10,0,10,0,1,9999,0.100000,0,0,0.000000,0,3.000000,0.000000,23.706825,0,0,0,0,0,0,0
0,9999,11,0,11,0,1,9999,0.100000,0,0,0.000000,0,12.000000,0.000000,17.838635,0,0,0,0,0,0,0
0,9999,12,0,12,0,1,9999,0.100000,0,0,0.000000,0,5.000000,0.000000,11.966920,0,0,0,0,0,0,0
0,9999,13,0,13,0,1,9999,0.100000,0,0,0.000000,0,8.000000,0.000000,21.500085,0,0,0,0,0,0,0
0,9999,14,0,14,0,1,9999,0.100000,0,0,0.000000,0,7.000000,0.000000,15.684317,0,0,0,0,0,0,0
0,9999,15,0,15,0,1,9999,0.100000,0,0,0.000000,0,10.000000,0.000000,25.507221,0,0,0,0,0,0,0
0,9999,16,0,16,0,1,9999,0.100000,0,0,0.000000,0,4.000000,0.000000,10.381762,0,0,0,0,0,0,0
0,9999,17,0,17,0,1,9999,0.100000,0,0,0.000000,0,6.000000,0.000000,15.001605,0,0,0,0,0,0,0
0,9999,18,0,18,0,1,9999,0.100000,0,0,0.000000,0,8.000000,0.000000,17.911853,0,0,0,0,0,0,0
0,9999,19,0,19,0,1,9999,0.100000,0,0,0.000000,0,10.000000,0.000000,23.098901,0,0,0,0,0,0,0
0,9999,20,0,20,0,1,9999,0.100000,0,0,0.000000,0,9.000000,0.000000,23.811574,0,0,0,0,0,0,0
0,9999,21,0,21,0,1,9999,0.100000,0,0,0.000000,0,10.000000,0.000000,14.677140,0,0,0,0,0,0,0
0,9999,22,0,22,0,1,9999,0.100000,0,0,0.000000,0,8.000000,0.000000,25.930031,0,0,0,0,0,0,0
0,9999,23,0,23,0,1,9999,0.100000,0,0,0.000000,0,13.000000,0.000000,20.490626,0,0,0,0,0,0,0
0,9999,24,0,24,0,1,9999,0.100000,0,0,0.000000,0,11.000000,0.000000,23.727892,0,0,0,0,0,0,0
0,9999,25,0,25,0,1,9999,0.100000,0,0,0.000000,0,9.000000,0.000000,23.292989,0,0,0,0,0,0,0
0,9999,26,0,26,0,1,9999,0.100000,0,0,0.000000,0,10.000000,0.000000,24.430072,0,0,0,0,0,0,0
0,9999,27,0,27,0,1,9999,0.100000,0,0,0.000000,0,10.000000,0.000000,18.337735,0,0,0,0,0,2,0
0,9999,28,0,28,0,1,9999,0.100000,0,0,0.000000,0,12.000000,0.000000,22.751199,0,0,0,0,0,0,0
0,9999,29,0,29,0,1,9999,0.100000,0,0,0.000000,0,5.000000,0.000000,17.519418,0,0,0,0,0,0,0
0,9999,30,0,30,0,1,9999,0.100000,0,0,0.000000,0,7.000000,0.000000,20.725866,0,0,0,0,0,0,0
0,9999,31,0,31,0,1,9999,0.100000,0,0,0.000000,0,5.000000,0.000000,16.375225,0,0,0,0,0,0,0
0,9999,32,0,32,0,1,9999,0.100000,0,0,0.000000,0,4.000000,0.000000,11.312821,0,0,0,0,0,0,0
0,9999,33,0,33,0,1,9999,0.100000,0,0,0.000000,0,8.000000,0.000000,14.707664,0,0,0,0,0,0,0
0,9999,34,0,34,0,1,9999,0.100000,0,0,0.000000,0,9.000000,0.000000,10.661419,0,0,0,0,0,0,0
0,9999,35,0,35,0,1,9999,0.100000,0,0,0.000000,0,6.000000,0.000000,18.063458,0,0,0,0,0,0,0
0,9999,36,0,36,0,1,9999,0.100000,0,0,0.000000,0,9.000000,0.000000,16.407635,0,0,0,0,0,0,0
0,9999,37,0,37,0,1,9999,0.100000,0,0,0.000000,0,7.000000,0.000000,17.769489,0,0,0,0,0,0,0
0,9999,38,0,38,0,1,9999,0.100000,0,0,0.000000,0,3.000000,0.000000,4.936359,0,0,0,0,0,0,0
0,9999,39,0,39,0,1,9999,0.100000,0,0,0.000000,0,2.000000,0.000000,4.175160,0,0,0,0,0,0,0
0,9999,40,0,40,0,1,9999,0.100000,0,0,0.000000,0,12.000000,0.000000,12.890177,0,0,0,0,0,0,0
0,9999,41,0,41,0,1,9999,0.100000,0,0,0.000000,0,1.000000,0.000000,13.392669,0,0,0,0,0,0,0
0,9999,42,0,42,0,1,9999,0.100000,0,0,0.000000,0,10.000000,0.000000,22.917456,0,0,0,0,0,0,0
0,9999,43,0,43,0,1,9999,0.100000,0,0,0.000000,0,4.000000,0.000000,7.011530,0,0,0,0,0,0,0
0,9999,44,0,44,0,1,9999,0.100000,0,0,0.000000,0,10.000000,0.000000,12.594859,0,0,0,0,0,0,0
0,9999,45,0,45,0,1,9999,0.100000,0,0,0.000000,0,2.000000,0.000000,12.170617,0,0,0,0,0,0,0
0,9999,46,0,46,0,1,9999,0.100000,0,0,0.000000,0,6.000000,0.000000,20.416554,0,0,0,0,0,0,0
0,9999,47,0,47,0,1,9999,0.100000,0,0,0.000000,0,13.000000,0.000000,17.215000,0,0,0,0,0,0,0
0,9999,48,0,48,0,1,9999,0.100000,0,0,0.000000,0,2.000000,0.000000,10.624042,0,0,0,0,0,0,0
0,9999,49,0,49,0,1,9999,0.100000,0,0,0.000000,0,9.000000,0.000000,21.206846,0,0,0,0,0,0,0
0,9999,50,0,50,0,1,9999,0.100000,0,0,0.000000,0,10.000000,0.000000,23.029986,0,0,0,0,0,0,0
0,9999,51,0,51,0,1,9999,0.100000,0,0,0.000000,0,6.000000,0.000000,12.051206,0,0,0,0,0,0,0
0,9999,52,0,52,0,1,9999,0.100000,0,0,0.000000,0,8.000000,0.000000,13.815719,0,0,0,0,0,0,0
0,9999,53,0,53,0,1,9999,0.100000,0,0,0.000000,0,9.000000,0.000000,11.467468,0,0,0,0,0,0,0
0,9999,54,0,54,0,1,9999,0.100000,0,0,0.000000,0,10.000000,0.000000,15.973863,0,0,0,0,0,0,0
0,9999,55,0,55,0,1,9999,0.100000,0,0,0.000000,0,11.000000,0.000000,30.828296,0,0,0,0,0,0,0
0,9999,56,0,56,0,1,9999,0.100000,0,0,0.000000,0,10.000000,0.000000,17.881503,0,0,0,0,0,0,0
0,9999,57,0,57,0,3,9999,0.100000,0,0,46.437071,0,8.000000,0.000000,22.398854,0,0,1,0,0,0,0
0,9999,58,0,58,0,1,9999,0.100000,0,0,47.368421,0,11.000000,0.000000,16.527337,0,0,0,1,0,0,0
0,9999,59,0,59,0,1,9999,0.100000,0,0,0.000000,0,2.000000,0.000000,11.280303,0,0,0,0,0,0,0
0,9999,60,0,60,0,1,9999,0.100000,0,0,0.000000,0,7.000000,0.000000,12.918494,0,0,0,0,0,0,0
0,9999,61,0,61,0,1,9999,0.100000,0,0,0.000000,0,5.000000,0.000000,16.723712,0,0,0,0,0,0,0
0,9999,62,0,62,0,1,9999,0.100000,0,0,0.000000,0,11.000000,0.000000,21.495285,0,0,0,0,0,0,0
0,9999,63,0,63,0,1,9999,0.100000,0,0,0.000000,0,8.000000,0.000000,17.312646,0,0,0,0,0,0,0
0,9999,64,0,64,0,1,9999,0.100000,0,0,0.000000,0,8.000000,0.000000,21.572625,0,0,0,0,0,0,0
0,9999,65,0,65,0,1,9999,0.100000,0,0,0.000000,0,3.000000,0.000000,7.283591,0,0,0,0,0,0,0
0,9999,66,0,66,0,1,9999,0.100000,0,0,0.000000,0,6.000000,0.000000,13.594025,0,0,0,0,0,0,0
0,9999,67,0,67,0,1,9999,0.100000,0,0,0.000000,0,9.000000,0.000000,16.266182,0,0,0,0,0,0,0
0,9999,68,0,68,0,1,9999,0.100000,0,0,0.000000,0,3.000000,0.000000,10.906125,0,0,0,0,0,0,0
0,9999,69,0,69,0,1,9999,0.100000,0,0,0.000000,0,2.000000,0.000000,9.600529,0,0,0,0,0,0,0
0,9999,70,0,70,0,1,9999,0.100000,0,0,0.000000,0,6.000000,0.000000,19.660382,0,0,0,0,0,0,0
0,9999,71,0,71,0,1,9999,0.100000,0,0,0.000000,0,11.000000,0.000000,14.318740,0,0,0,0,0,0,0
0,9999,72,0,72,0,1,9999,0.100000,0,0,0.000000,0,9.000000,0.000000,14.543570,0,0,0,0,0,0,0
0,9999,73,0,73,0,1,9999,0.100000,0,0,0.000000,0,2.000000,0.000000,3.526983,0,0,0,0,0,0,0
0,9999,74,0,74,0,1,9999,0.100000,0,0,0.000000,0,7.000000,0.000000,19.596216,0,0,0,0,0,0,0
0,9999,75,0,75,0,1,9999,0.100000,0,0,0.000000,0,11.000000,0.000000,24.536399,0,0,0,0,0,0,0
0,9999,76,0,76,0,1,9999,0.100000,0,0,0.000000,0,10.000000,0.000000,12.027262,0,0,0,0,0,0,0
0,9999,77,0,77,0,1,9999,0.100000,0,0,47.368421,0,11.000000,0.000000,26.390299,0,0,0,1,0,0,0
0,9999,78,0,78,0,1,9999,0.100000,0,0,0.000000,0,8.000000,0.000000,14.108238,0,0,0,0,0,0,0
0,9999,79,0,79,0,1,9999,0.100000,0,0,0.000000,0,10.000000,0.000000,29.387888,0,0,0,0,0,0,0
0,9999,80,0,80,0,1,9999,0.100000,0,0,0.000000,0,5.000000,0.000000,19.737431,0,0,0,0,0,0,0
0,9999,81,0,81,0,1,9999,0.100000,0,0,0.000000,0,4.000000,0.000000,10.885711,0,0,0,0,0,0,0
0,9999,82,0,82,0,1,9999,0.100000,0,0,0.000000,0,10.000000,0.000000,11.311645,0,0,0,0,0,0,0
0,9999,83,0,83,0,1,9999,0.100000,0,0,0.000000,0,10.000000,0.000000,13.271125,0,0,0,0,0,1,0
0,9999,84,0,84,0,3,9999,0.100000,0,0,39.049845,0,8.000000,0.000000,19.830032,0,0,1,0,0,0,0
0,9999,85,0,85,0,1,9999,0.100000,0,0,0.000000,0,6.000000,0.000000,17.060173,0,0,0,0,0,0,0
0,9999,86,0,86,0,1,9999,0.100000,0,0,0.000000,0,4.000000,0.000000,10.950639,0,0,0,0,0,0,0
0,9999,87,0,87,0,1,9999,0.100000,0,0,0.000000,0,3.000000,0.000000,12.565905,0,0,0,0,0,0,0
0,9999,88,0,88,0,1,9999,0.100000,0,0,0.000000,0,7.000000,0.000000,15.035960,0,0,0,0,0,0,0
0,9999,89,0,89,0,1,9999,0.100000,0,0,0.000000,0,4.000000,0.000000,14.345381,0,0,0,0,0,0,0
0,9999,90,0,90,0,1,9999,0.100000,0,0,0.000000,0,5.000000,0.000000,7.750001,0,0,0,0,0,0,0
0,9999,91,0,91,0,1,9999,0.100000,0,0,0.000000,0,9.000000,0.000000,10.328331,0,0,0,0,0,0,0
0,9999,92,0,92,0,1,9999,0.100000,0,0,0.000000,0,10.000000,0.000000,15.574294,0,0,0,0,0,0,0
0,9999,93,0,93,0,1,9999,0.100000,0,0,0.000000,0,5.000000,0.000000,12.559112,0,0,0,0,0,0,0
0,9999,94,0,94,0,1,9999,0.100000,0,0,0.000000,0,8.000000,0.000000,9.082429,0,0,0,0,0,0,0
0,9999,95,0,95,0,1,9999,0.100000,0,0,0.000000,0,10.000000,0.000000,21.323981,0,0,0,0,0,0,0
0,9999,96,0,96,0,1,9999,0.100000,0,0,0.000000,0,8.000000,0.000000,10.463058,0,0,0,0,0,0,0
0,9999,97,0,97,0,1,9999,0.100000,0,0,0.000000,0,7.000000,0.000000,9.819257,0,0,0,0,0,0,0
0,9999,98,0,98,0,1,9999,0.100000,0,0,0.000000,0,6.000000,0.000000,7.801164,0,0,0,0,0,0,0
0,9999,99,0,99,0,1,9999,0.100000,0,0,0.000000,0,8.000000,0.000000,18.658552,0,0,0,0,0,0,0
1,19999,0,10000,0,0,0,9999,0.100000,0,0,0.000000,1,0.000000,0.000000,0.527728,0,0,0,0,0,0,0
1,19999,1,10000,1,0,0,9999,0.100000,0,0,0.000000,2,0.000000,0.000000,0.865399,0,0,0,0,0,0,0
1,19999,2,10000,0,0,1,9999,0.100000,0,0,0.000000,1,3.000000,0.000000,3.937662,0,0,0,0,0,0,0
1,19999,3,10000,0,0,0,9999,0.100000,0,0,0.000000,1,0.000000,0.000000,12.160485,0,0,0,0,0,0,0
1,19999,4,10000,57,0,0,9999,0.100000,0,0,0.000000,2,0.000000,0.000000,0.867109,0,0,0,0,0,0,0
1,19999,5,10000,57,0,0,9999,0.100000,0,0,0.000000,2,0.000000,0.000000,0.384499,0,0,0,0,0,0,0
1,19999,6,10000,0,0,1,9999,0.100000,0,0,0.000000,1,3.000000,0.000000,5.446508,0,0,0,0,0,0,0
1,19999,7,10000,40,0,1,9999,0.100000,0,0,0.000000,2,9.000000,0.000000,9.683864,0,0,0,0,0,0,0
1,19999,8,10000,0,0,0,9999,0.100000,0,0,0.000000,1,0.000000,0.000000,1.005914,0,0,0,0,0,0,0
1,19999,9,10000,40,0,1,9999,0.100000,0,0,0.000000,2,1.000000,0.000000,9.730954,0,0,0,0,0,0,0
1,19999,10,10000,57,0,1,9999,0.100000,0,0,0.000000,2,2.000000,0.000000,12.323347,0,0,0,0,0,0,0
1,19999,11,10000,57,0,0,9999,0.100000,0,0,0.000000,2,0.000000,0.000000,5.061239,0,0,0,0,0,0,0
1,19999,12,10000,0,0,1,9999,0.100000,0,0,0.000000,1,2.000000,0.000000,9.517460,0,0,0,0,0,0,0
1,19999,13,10000,0,0,0,9999,0.100000,0,0,0.000000,1,0.000000,0.000000,2.821958,0,0,0,0,0,0,0
1,19999,14,10000,50,0,1,9999,0.100000,0,0,0.000000,2,4.000000,0.000000,24.203409,0,0,0,0,0,0,0
1,19999,15,10000,57,0,1,9999,0.100000,0,0,0.000000,2,1.000000,0.000000,4.951284,0,0,0,0,0,0,0
1,19999,16,10000,57,0,1,9999,0.100000,0,0,0.000000,2,3.000000,0.000000,11.929806,0,0,0,0,0,0,0
1,19999,17,10000,0,0,0,9999,0.100000,0,0,0.000000,2,0.000000,0.000000,14.983782,0,0,0,0,0,0,0
1,19999,18,10000,40,0,1,9999,0.100000,0,0,0.000000,2,4.000000,0.000000,7.845369,0,0,0,0,0,0,0
1,19999,19,10000,0,0,1,9999,0.100000,0,0,0.000000,1,1.000000,0.000000,5.146388,0,0,0,0,0,0,0
1,19999,20,10000,0,0,1,9999,0.100000,0,0,0.000000,1,1.000000,0.000000,4.840916,0,0,0,0,0,0,0
1,19999,21,10000,0,0,1,9999,0.100000,0,0,0.000000,1,1.000000,0.000000,4.341060,0,0,0,0,0,0,0
1,19999,22,10000,40,0,1,9999,0.100000,0,0,0.000000,2,4.000000,0.000000,7.907533,0,0,0,0,0,0,0
1,19999,23,10000,40,0,0,9999,0.100000,0,0,0.000000,2,0.000000,0.000000,1.398306,0,0,0,0,0,0,0
1,19999,24,10000,0,0,1,9999,0.100000,0,0,0.000000,1,4.000000,0.000000,14.592183,0,0,0,0,0,0,0
1,19999,25,10000,57,0,0,9999,0.100000,0,0,0.000000,2,0.000000,0.000000,8.503866,0,0,0,0,0,0,0
1,19999,26,10000,57,0,1,9999,0.100000,0,0,0.000000,2,3.000000,0.000000,7.545475,0,0,0,0,0,0,0
1,19999,27,10000,0,0,1,9999,0.100000,0,0,0.000000,2,2.000000,0.000000,17.404180,0,0,0,0,0,0,0
1,19999,28,10000,0,0,1,9999,0.100000,0,0,0.000000,1,2.000000,0.000000,8.949174,0,0,0,0,0,0,0
1,19999,29,10000,0,0,1,9999,0.100000,0,0,0.000000,2,3.000000,0.000000,12.403769,0,0,0,0,0,0,0
1,19999,30,10000,57,0,3,9999,0.100000,0,0,60.588497,2,12.000000,0.000000,18.976497,0,0,1,0,0,0,0
1,19999,31,10000,57,0,1,9999,0.100000,0,0,0.000000,2,1.000000,0.000000,11.518888,0,0,0,0,0,0,0
1,19999,32,10000,57,0,1,9999,0.100000,0,0,0.000000,2,3.000000,0.000000,7.389691,0,0,0,0,0,0,0
1,19999,33,10000,57,0,1,9999,0.100000,0,0,0.000000,2,1.000000,0.000000,10.762475,0,0,0,0,0,0,0
1,19999,34,10000,57,0,1,9999,0.100000,0,0,0.000000,2,16.000000,0.000000,17.861038,0,0,0,0,0,0,0
1,19999,35,10000,0,0,1,9999,0.100000,0,0,0.000000,1,3.000000,0.000000,13.797808,0,0,0,0,0,0,0
1,19999,36,10000,0,0,1,9999,0.100000,0,0,0.000000,1,4.000000,0.000000,15.647837,0,0,0,0,0,0,0
1,19999,37,10000,0,0,1,9999,0.100000,0,0,0.000000,2,1.000000,0.000000,11.476989,0,0,0,0,0,0,0
1,19999,38,10000,40,0,0,9999,0.100000,0,0,0.000000,2,0.000000,0.000000,0.656548,0,0,0,0,0,0,0
1,19999,39,10000,0,0,1,9999,0.100000,0,0,0.000000,1,3.000000,0.000000,3.686031,0,0,0,0,0,0,0
1,19999,40,10000,57,0,0,9999,0.100000,0,0,0.000000,2,0.000000,0.000000,0.058951,0,0,0,0,0,0,0
1,19999,41,10000,57,0,1,9999,0.100000,0,0,0.000000,2,1.000000,0.000000,9.055964,0,0,0,0,0,0,0
1,19999,42,10000,57,0,0,9999,0.100000,0,0,0.000000,2,0.000000,0.000000,6.067079,0,0,0,0,0,0,0
1,19999,43,10000,57,0,1,9999,0.100000,0,0,0.000000,2,1.000000,0.000000,1.316394,0,0,0,0,0,0,0
1,19999,44,10000,57,0,0,9999,0.100000,0,0,0.000000,2,0.000000,0.000000,0.991653,0,0,0,0,0,0,0
1,19999,45,10000,0,0,1,9999,0.100000,0,0,0.000000,2,2.000000,0.000000,15.040235,0,0,0,0,0,0,0
1,19999,46,10000,57,0,1,9999,0.100000,0,0,0.000000,2,4.000000,0.000000,10.391288,0,0,0,0,0,0,0
1,19999,47,10000,40,0,0,9999,0.100000,0,0,0.000000,2,0.000000,0.000000,1.031978,0,0,0,0,0,0,0
1,19999,48,10000,57,0,1,9999,0.100000,0,0,0.000000,2,3.000000,0.000000,3.827473,0,0,0,0,0,0,0
1,19999,49,10000,50,0,0,9999,0.100000,0,0,0.000000,2,0.000000,0.000000,1.077143,0,0,0,0,0,0,0
1,19999,50,10000,57,0,1,9999,0.100000,0,0,0.000000,2,7.000000,0.000000,8.853169,0,0,0,0,0,0,0
1,19999,51,10000,57,0,1,9999,0.100000,0,0,0.000000,2,2.000000,0.000000,12.146644,0,0,0,0,0,0,0
1,19999,52,10000,40,0,1,9999,0.100000,0,0,0.000000,2,5.000000,0.000000,7.777478,0,0,0,0,0,0,0
1,19999,53,10000,40,0,0,9999,0.100000,0,0,0.000000,2,0.000000,0.000000,0.596897,0,0,0,0,0,0,0
1,19999,54,10000,57,0,1,9999,0.100000,0,0,0.000000,2,3.000000,0.000000,15.974772,0,0,0,0,0,0,0
1,19999,55,10000,57,0,1,9999,0.100000,0,0,0.000000,2,1.000000,0.000000,7.465275,0,0,0,0,0,0,0
1,19999,56,10000,40,0,1,9999,0.100000,0,0,0.000000,2,5.000000,0.000000,7.830295,0,0,0,0,0,0,0
1,19999,57,10000,57,0,1,9999,0.100000,0,0,0.000000,2,2.000000,0.000000,12.033780,0,0,0,0,0,0,0
1,19999,58,10000,40,0,1,9999,0.100000,0,0,0.000000,2,1.000000,0.000000,6.612445,0,0,0,0,0,0,0
1,19999,59,10000,40,0,1,9999,0.100000,0,0,0.000000,2,3.000000,0.000000,7.331337,0,0,0,0,0,0,0
1,19999,60,10000,40,0,1,9999,0.100000,0,0,0.000000,2,9.000000,0.000000,9.674696,0,0,0,0,0,0,0
1,19999,61,10000,40,0,0,9999,0.100000,0,0,0.000000,2,0.000000,0.000000,0.888224,0,0,0,0,0,0,0
1,19999,62,10000,50,0,0,9999,0.100000,0,0,0.000000,2,0.000000,0.000000,0.508637,0,0,0,0,0,0,0
1,19999,63,10000,57,0,0,9999,0.100000,0,0,0.000000,2,0.000000,0.000000,8.259695,0,0,0,0,0,0,0
1,19999,64,10000,57,0,1,9999,0.100000,0,0,0.000000,2,1.000000,0.000000,10.645832,0,0,0,0,0,0,0
1,19999,65,10000,57,0,1,9999,0.100000,0,0,0.000000,2,4.000000,0.000000,10.999086,0,0,0,0,0,0,0
1,19999,66,10000,57,0,1,9999,0.100000,0,0,0.000000,2,3.000000,0.000000,4.159167,0,0,0,0,0,0,0
1,19999,67,10000,57,0,1,9999,0.100000,0,0,0.000000,2,1.000000,0.000000,5.815789,0,0,0,0,0,0,0
1,19999,68,10000,50,0,1,9999,0.100000,0,0,0.000000,2,4.000000,0.000000,7.534045,0,0,0,0,0,0,0
1,19999,69,10000,57,0,1,9999,0.100000,0,0,0.000000,2,1.000000,0.000000,9.607611,0,0,0,0,0,0,0
1,19999,70,10000,40,0,1,9999,0.100000,0,0,0.000000,2,8.000000,0.000000,10.449379,0,0,0,0,0,0,0
1,19999,71,10000,71,0,0,9999,0.100000,0,0,0.000000,2,0.000000,0.000000,0.668483,0,0,0,0,0,0,0
1,19999,72,10000,57,0,1,9999,0.100000,0,0,0.000000,2,3.000000,0.000000,13.094857,0,0,0,0,0,0,0
1,19999,73,10000,40,0,1,9999,0.100000,0,0,0.000000,2,3.000000,0.000000,3.796739,0,0,0,0,0,0,0
1,19999,74,10000,57,0,1,9999,0.100000,0,0,0.000000,2,2.000000,0.000000,6.625319,0,0,0,0,0,0,0
1,19999,75,10000,40,0,1,9999,0.100000,0,0,0.000000,2,1.000000,0.000000,5.398411,0,0,0,0,0,0,0
1,19999,76,10000,40,0,0,9999,0.100000,0,0,0.000000,2,0.000000,0.000000,0.953425,0,0,0,0,0,0,0
1,19999,77,10000,40,0,0,9999,0.100000,0,0,0.000000,2,0.000000,0.000000,3.746845,0,0,0,0,0,0,0
1,19999,78,10000,40,0,1,9999,0.100000,0,0,0.000000,2,4.000000,0.000000,7.593108,0,0,0,0,0,0,0
1,19999,79,10000,57,0,1,9999,0.100000,0,0,0.000000,2,2.000000,0.000000,11.678327,0,0,0,0,0,0,0
1,19999,80,10000,57,0,0,9999,0.100000,0,0,0.000000,2,0.000000,0.000000,5.144526,0,0,0,0,0,0,0
1,19999,81,10000,0,0,1,9999,0.100000,0,0,0.000000,1,1.000000,0.000000,13.406830,0,0,0,0,0,0,0
1,19999,82,10000,40,0,0,9999,0.100000,0,0,0.000000,2,0.000000,0.000000,6.871929,0,0,0,0,0,0,0
1,19999,83,10000,40,0,0,9999,0.100000,0,0,0.000000,2,0.000000,0.000000,0.253292,0,0,0,0,0,0,0
1,19999,84,10000,40,0,1,9999,0.100000,0,0,0.000000,2,3.000000,0.000000,7.834649,0,0,0,0,0,0,0
1,19999,85,10000,40,0,1,9999,0.100000,0,0,0.000000,2,2.000000,0.000000,7.855216,0,0,0,0,0,0,0
1,19999,86,10000,40,0,1,9999,0.100000,0,0,0.000000,2,2.000000,0.000000,2.850472,0,0,0,0,0,0,0
1,19999,87,10000,40,0,1,9999,0.100000,0,0,0.000000,2,1.000000,0.000000,12.163631,0,0,0,0,0,0,0
1,19999,88,10000,57,0,1,9999,0.100000,0,0,0.000000,2,2.000000,0.000000,6.703826,0,0,0,0,0,0,0
1,19999,89,10000,57,0,1,9999,0.100000,0,0,0.000000,2,5.000000,0.000000,11.711134,0,0,0,0,0,0,0
1,19999,90,10000,40,0,0,9999,0.100000,0,0,0.000000,2,0.000000,0.000000,0.894697,0,0,0,0,0,0,0
1,19999,91,10000,57,0,0,9999,0.100000,0,0,0.000000,2,0.000000,0.000000,0.326757,0,0,0,0,0,0,0
1,19999,92,10000,40,0,1,9999,0.100000,0,0,0.000000,2,9.000000,0.000000,15.447266,0,0,0,0,0,0,0
1,19999,93,10000,40,0,1,9999,0.100000,0,0,0.000000,2,3.000000,0.000000,9.365247,0,0,0,0,0,0,0
1,19999,94,10000,57,0,0,9999,0.100000,0,0,0.000000,2,0.000000,0.000000,0.228809,0,0,0,0,0,0,0
1,19999,95,10000,40,0,0,9999,0.100000,0,0,0.000000,2,0.000000,0.000000,7.081710,0,0,0,0,0,0,0
1,19999,96,10000,40,0,0,9999,0.100000,0,0,0.000000,2,0.000000,0.000000,0.320191,0,0,0,0,0,0,0
1,19999,97,10000,40,0,1,9999,0.100000,0,0,0.000000,2,9.000000,0.000000,9.874795,0,0,0,0,0,0,0
1,19999,98,10000,57,0,0,9999,0.100000,0,0,0.000000,2,0.000000,0.000000,0.131140,0,0,0,0,0,0,0
1,19999,99,10000,57,0,1,9999,0.100000,0,0,0.000000,2,1.000000,0.000000,5.860736,0,0,0,0,0,0,0
2,29999,0,20000,30,10000,1,9999,0.100000,0,0,0.000000,3,1.000000,0.000000,1.810456,0,0,0,0,0,0,0
2,29999,1,20000,40,0,1,9999,0.100000,0,0,0.000000,3,3.000000,0.000000,3.753761,0,0,0,0,0,0,0
2,29999,2,20000,40,10000,1,9999,0.100000,0,0,34.210526,3,6.000000,0.000000,8.579013,0,0,0,0,0,1,0
2,29999,3,20000,30,10000,1,9999,0.100000,0,0,0.000000,3,2.000000,0.000000,12.462320,0,0,0,0,0,0,0
2,29999,4,20000,57,0,0,9999,0.100000,0,0,0.000000,3,0.000000,0.000000,0.714021,0,0,0,0,0,0,0
2,29999,5,20000,40,0,0,9999,0.100000,0,0,0.000000,3,0.000000,0.000000,0.215065,0,0,0,0,0,0,0
2,29999,6,20000,30,10000,0,9999,0.100000,0,0,0.000000,3,0.000000,0.000000,1.360263,0,0,0,0,0,0,0
2,29999,7,20000,40,10000,1,9999,0.100000,0,0,0.000000,3,2.000000,0.000000,5.364341,0,0,0,0,0,0,0
2,29999,8,20000,40,10000,0,9999,0.100000,0,0,0.000000,3,0.000000,0.000000,1.006464,0,0,0,0,0,0,0
2,29999,9,20000,57,0,1,9999,0.100000,0,0,0.000000,3,3.000000,0.000000,3.835137,0,0,0,0,0,0,0
2,29999,10,20000,30,10000,1,9999,0.100000,0,0,0.000000,3,1.000000,0.000000,15.078484,0,0,0,0,0,0,0
2,29999,11,20000,40,10000,0,9999,0.100000,0,0,0.000000,3,0.000000,0.000000,0.985427,0,0,0,0,0,0,0
2,29999,12,20000,40,0,1,9999,0.100000,0,0,0.000000,3,5.000000,0.000000,8.674856,0,0,0,0,0,0,0
2,29999,13,20000,40,0,1,9999,0.100000,0,0,0.000000,3,1.000000,0.000000,1.724259,0,0,0,0,0,0,0
2,29999,14,20000,30,10000,1,9999,0.100000,0,0,0.000000,3,2.000000,0.000000,9.221993,0,0,0,0,0,0,0
2,29999,15,20000,40,10000,1,9999,0.100000,0,0,0.000000,3,1.000000,0.000000,5.700178,0,0,0,0,0,0,0
2,29999,16,20000,40,10000,1,9999,0.100000,0,0,0.000000,3,1.000000,0.000000,2.327906,0,0,0,0,0,0,0
2,29999,17,20000,40,10000,1,9999,0.100000,0,0,0.000000,3,2.000000,0.000000,11.948048,0,0,0,0,0,0,0
2,29999,18,20000,40,0,1,9999,0.100000,0,0,0.000000,3,1.000000,0.000000,5.848235,0,0,0,0,0,0,0
2,29999,19,20000,40,10000,1,9999,0.100000,0,0,0.000000,3,5.000000,0.000000,8.553744,0,0,0,0,0,0,0
2,29999,20,20000,49,10000,0,9999,0.100000,0,0,0.000000,3,0.000000,0.000000,1.162377,0,0,0,0,0,0,0
2,29999,21,20000,40,0,1,9999,0.100000,0,0,0.000000,3,1.000000,0.000000,4.762262,0,0,0,0,0,0,0
2,29999,22,20000,40,10000,1,9999,0.100000,0,0,0.000000,3,1.000000,0.000000,11.768502,0,0,0,0,0,0,0
2,29999,23,20000,57,0,1,9999,0.100000,0,0,0.000000,3,3.000000,0.000000,3.568729,0,0,0,0,0,0,0
2,29999,24,20000,40,0,1,9999,0.100000,0,0,0.000000,3,8.000000,0.000000,13.201079,0,0,0,0,0,0,0
2,29999,25,20000,40,10000,1,9999,0.100000,0,0,0.000000,3,1.000000,0.000000,5.678148,0,0,0,0,0,0,0
2,29999,26,20000,40,0,1,9999,0.100000,0,0,0.000000,3,6.000000,0.000000,8.719043,0,0,0,0,0,0,0
2,29999,27,20000,40,10000,1,9999,0.100000,0,0,0.000000,3,2.000000,0.000000,7.569275,0,0,0,0,0,0,0
2,29999,28,20000,40,0,0,9999,0.100000,0,0,0.000000,3,0.000000,0.000000,3.466610,0,0,0,0,0,0,0
2,29999,29,20000,57,0,0,9999,0.100000,0,0,0.000000,3,0.000000,0.000000,7.097225,0,0,0,0,0,0,0
2,29999,30,20000,30,10000,1,9999,0.100000,0,0,0.000000,3,3.000000,0.000000,10.377669,0,0,0,0,0,0,0
2,29999,31,20000,40,10000,1,9999,0.100000,0,0,0.000000,3,1.000000,0.000000,5.461500,0,0,0,0,0,0,0
2,29999,32,20000,30,10000,1,9999,0.100000,0,0,0.000000,3,1.000000,0.000000,1.382904,0,0,0,0,0,0,0
2,29999,33,20000,40,0,1,9999,0.100000,0,0,0.000000,3,3.000000,0.000000,11.115635,0,0,0,0,0,0,0
2,29999,34,20000,40,10000,0,9999,0.100000,0,0,0.000000,3,0.000000,0.000000,0.135759,0,0,0,0,0,0,0
2,29999,35,20000,30,10000,1,9999,0.100000,0,0,0.000000,3,6.000000,0.000000,16.631857,0,0,0,0,0,0,0
2,29999,36,20000,57,0,1,9999,0.100000,0,0,0.000000,3,1.000000,0.000000,7.294737,0,0,0,0,0,0,0
2,29999,37,20000,30,10000,1,9999,0.100000,0,0,0.000000,3,1.000000,0.000000,7.838045,0,0,0,0,0,0,0
2,29999,38,20000,40,0,1,9999,0.100000,0,0,0.000000,3,1.000000,0.000000,7.145106,0,0,0,0,0,0,0
2,29999,39,20000,30,10000,1,9999,0.100000,0,0,34.210526,3,6.000000,0.000000,8.373591,0,0,0,0,0,1,0
2,29999,40,20000,57,0,0,9999,0.100000,0,0,0.000000,3,0.000000,0.000000,0.059608,0,0,0,0,0,0,0
2,29999,41,20000,40,10000,1,9999,0.100000,0,0,0.000000,3,1.000000,0.000000,13.177524,0,0,0,0,0,0,0
2,29999,42,20000,40,0,1,9999,0.100000,0,0,0.000000,3,1.000000,0.000000,4.554870,0,0,0,0,0,0,0
2,29999,43,20000,40,10000,0,9999,0.100000,0,0,0.000000,3,0.000000,0.000000,0.749318,0,0,0,0,0,0,0
2,29999,44,20000,40,10000,0,9999,0.100000,0,0,0.000000,3,0.000000,0.000000,0.163539,0,0,0,0,0,0,0
2,29999,45,20000,40,0,3,9999,0.100000,0,0,40.895982,3,7.000000,0.000000,15.411611,0,0,1,0,0,0,0
2,29999,46,20000,30,10000,1,9999,0.100000,0,0,0.000000,3,1.000000,0.000000,13.103453,0,0,0,0,0,0,0
2,29999,47,20000,40,0,0,9999,0.100000,0,0,0.000000,3,0.000000,0.000000,0.997633,0,0,0,0,0,0,0
2,29999,48,20000,40,0,1,9999,0.100000,0,0,34.210526,3,6.000000,0.000000,9.406800,0,0,0,0,0,1,0
2,29999,49,20000,40,0,0,9999,0.100000,0,0,0.000000,3,0.000000,0.000000,0.997297,0,0,0,0,0,0,0
2,29999,50,20000,30,10000,1,9999,0.100000,0,0,0.000000,3,3.000000,0.000000,3.493005,0,0,0,0,0,0,0
2,29999,51,20000,40,10000,1,9999,0.100000,0,0,0.000000,3,3.000000,0.000000,16.946823,0,0,0,0,0,0,0
2,29999,52,20000,30,10000,0,9999,0.100000,0,0,0.000000,3,0.000000,0.000000,7.795816,0,0,0,0,0,0,0
2,29999,53,20000,40,0,0,9999,0.100000,0,0,0.000000,3,0.000000,0.000000,0.497515,0,0,0,0,0,0,0
2,29999,54,20000,40,0,1,9999,0.100000,0,0,0.000000,3,4.000000,0.000000,8.119520,0,0,0,0,0,0,0
2,29999,55,20000,30,10000,1,9999,0.100000,0,0,0.000000,3,2.000000,0.000000,9.662081,0,0,0,0,0,0,0
2,29999,56,20000,40,0,1,9999,0.100000,0,0,0.000000,3,2.000000,0.000000,4.820594,0,0,0,0,0,0,0
2,29999,57,20000,57,0,1,9999,0.100000,0,0,0.000000,3,1.000000,0.000000,3.042298,0,0,0,0,0,0,0
2,29999,58,20000,40,10000,0,9999,0.100000,0,0,0.000000,3,0.000000,0.000000,8.916423,0,0,0,0,0,0,0
2,29999,59,20000,40,0,1,9999,0.100000,0,0,0.000000,3,2.000000,0.000000,5.809793,0,0,0,0,0,0,0
2,29999,60,20000,30,10000,0,9999,0.100000,0,0,0.000000,3,0.000000,0.000000,0.480402,0,0,0,0,0,0,0
2,29999,61,20000,40,10000,0,9999,0.100000,0,0,0.000000,3,0.000000,0.000000,0.796018,0,0,0,0,0,0,0
2,29999,62,20000,40,0,1,9999,0.100000,0,0,0.000000,3,3.000000,0.000000,3.562728,0,0,0,0,0,0,0
2,29999,63,20000,30,10000,1,9999,0.100000,0,0,0.000000,3,1.000000,0.000000,11.898930,0,0,0,0,0,0,0
2,29999,64,20000,30,10000,1,9999,0.100000,0,0,0.000000,3,4.000000,0.000000,17.387853,0,0,0,0,0,0,0
2,29999,65,20000,40,0,0,9999,0.100000,0,0,0.000000,3,0.000000,0.000000,1.337724,0,0,0,0,0,0,0
2,29999,66,20000,30,10000,0,9999,0.100000,0,0,0.000000,3,0.000000,0.000000,10.769447,0,0,0,0,0,0,0
2,29999,67,20000,40,10000,1,9999,0.100000,0,0,0.000000,3,2.000000,0.000000,5.280726,0,0,0,0,0,0,0
2,29999,68,20000,30,10000,1,9999,0.100000,0,0,0.000000,3,1.000000,0.000000,1.555788,0,0,0,0,0,0,0
2,29999,69,20000,40,0,0,9999,0.100000,0,0,0.000000,3,0.000000,0.000000,6.099891,0,0,0,0,0,0,0
2,29999,70,20000,40,0,0,9999,0.100000,0,0,0.000000,3,0.000000,0.000000,9.810992,0,0,0,0,0,0,0
2,29999,71,20000,57,0,0,9999,0.100000,0,0,0.000000,3,0.000000,0.000000,0.087519,0,0,0,0,0,0,0
2,29999,72,20000,40,0,1,9999,0.100000,0,0,0.000000,3,6.000000,0.000000,11.531726,0,0,0,0,0,0,0
2,29999,73,20000,40,10000,1,9999,0.100000,0,0,34.210526,3,6.000000,0.000000,8.600137,0,0,0,0,0,1,0
2,29999,74,20000,40,0,1,9999,0.100000,0,0,0.000000,3,4.000000,0.000000,10.859988,0,0,0,0,0,0,0
2,29999,75,20000,40,0,0,9999,0.100000,0,0,0.000000,3,0.000000,0.000000,3.184452,0,0,0,0,0,0,0
2,29999,76,20000,40,10000,0,9999,0.100000,0,0,0.000000,3,0.000000,0.000000,0.869132,0,0,0,0,0,0,0
2,29999,77,20000,40,0,1,9999,0.100000,0,0,0.000000,3,1.000000,0.000000,5.151818,0,0,0,0,0,0,0
2,29999,78,20000,40,10000,1,9999,0.100000,0,0,0.000000,3,2.000000,0.000000,18.524719,0,0,0,0,0,0,0
2,29999,79,20000,57,0,1,9999,0.100000,0,0,0.000000,3,2.000000,0.000000,9.320795,0,0,0,0,0,0,0
2,29999,80,20000,40,0,1,9999,0.100000,0,0,0.000000,3,1.000000,0.000000,2.998084,0,0,0,0,0,0,0
2,29999,81,20000,40,10000,1,9999,0.100000,0,0,0.000000,3,1.000000,0.000000,9.123568,0,0,0,0,0,0,0
2,29999,82,20000,40,0,0,9999,0.100000,0,0,0.000000,3,0.000000,0.000000,15.615155,0,0,0,0,0,0,0
2,29999,83,20000,30,10000,1,9999,0.100000,0,0,0.000000,3,1.000000,0.000000,15.981402,0,0,0,0,0,1,0
2,29999,84,20000,40,10000,1,9999,0.100000,0,0,0.000000,3,2.000000,0.000000,17.563795,0,0,0,0,0,0,0
2,29999,85,20000,40,10000,0,9999,0.100000,0,0,0.000000,3,0.000000,0.000000,14.556362,0,0,0,0,0,0,0
2,29999,86,20000,40,10000,0,9999,0.100000,0,0,0.000000,3,0.000000,0.000000,0.833605,0,0,0,0,0,0,0
2,29999,87,20000,40,10000,0,9999,0.100000,0,0,0.000000,3,0.000000,0.000000,0.627495,0,0,0,0,0,0,0
2,29999,88,20000,57,0,0,9999,0.100000,0,0,0.000000,3,0.000000,0.000000,7.418481,0,0,0,0,0,0,0
2,29999,89,20000,40,10000,1,9999,0.100000,0,0,0.000000,3,1.000000,0.000000,4.373655,0,0,0,0,0,0,0
2,29999,90,20000,40,10000,0,9999,0.100000,0,0,0.000000,3,0.000000,0.000000,0.512949,0,0,0,0,0,0,0
2,29999,91,20000,40,0,0,9999,0.100000,0,0,0.000000,3,0.000000,0.000000,0.180585,0,0,0,0,0,0,0
2,29999,92,20000,40,10000,1,9999,0.100000,0,0,0.000000,3,3.000000,0.000000,3.705303,0,0,0,0,0,0,0
2,29999,93,20000,30,10000,1,9999,0.100000,0,0,0.000000,3,3.000000,0.000000,12.081755,0,0,0,0,0,0,0
2,29999,94,20000,30,10000,0,9999,0.100000,0,0,0.000000,3,0.000000,0.000000,0.991942,0,0,0,0,0,0,0
2,29999,95,20000,40,0,1,9999,0.100000,0,0,0.000000,3,1.000000,0.000000,7.736509,0,0,0,0,0,0,0
2,29999,96,20000,40,10000,0,9999,0.100000,0,0,0.000000,3,0.000000,0.000000,0.253911,0,0,0,0,0,0,0
2,29999,97,20000,30,10000,0,9999,0.100000,0,0,0.000000,3,0.000000,0.000000,0.682875,0,0,0,0,0,0,0
2,29999,98,20000,30,10000,0,9999,0.100000,0,0,0.000000,3,0.000000,0.000000,0.136636,0,0,0,0,0,0,0
2,29999,99,20000,40,0,1,9999,0.100000,0,0,0.000000,3,3.000000,0.000000,10.205075,0,0,0,0,0,0,0
3,39999,0,30000,40,0,1,9999,0.100000,0,0,0.000000,3,1.000000,0.000000,1.917362,0,0,0,0,0,0,0
3,39999,1,30000,40,0,1,9999,0.100000,0,0,0.000000,3,2.000000,0.000000,2.280329,0,0,0,0,0,0,0
3,39999,2,30000,40,10000,1,9999,0.100000,0,0,0.000000,3,3.000000,0.000000,17.806068,0,0,0,0,0,0,0
3,39999,3,30000,40,0,1,9999,0.100000,0,0,0.000000,3,2.000000,0.000000,10.033018,0,0,0,0,0,0,0
3,39999,4,30000,40,0,0,9999,0.100000,0,0,0.000000,3,0.000000,0.000000,0.953899,0,0,0,0,0,0,0
3,39999,5,30000,40,0,0,9999,0.100000,0,0,0.000000,3,0.000000,0.000000,0.294116,0,0,0,0,0,0,0
3,39999,6,30000,30,10000,0,9999,0.100000,0,0,0.000000,3,0.000000,0.000000,0.771521,0,0,0,0,0,0,0
3,39999,7,30000,40,10000,1,9999,0.100000,0,0,0.000000,3,1.000000,0.000000,5.815227,0,0,0,0,0,0,0
3,39999,8,30000,30,10000,0,9999,0.100000,0,0,0.000000,3,0.000000,0.000000,0.973099,0,0,0,0,0,0,0
3,39999,9,30000,40,10000,0,9999,0.100000,0,0,0.000000,3,0.000000,0.000000,0.576614,0,0,0,0,0,0,0
3,39999,10,30000,30,10000,1,9999,0.100000,0,0,0.000000,3,2.000000,0.000000,10.660034,0,0,0,0,0,0,0
3,39999,11,30000,30,10000,0,9999,0.100000,0,0,0.000000,3,0.000000,0.000000,1.059435,0,0,0,0,0,0,0
3,39999,12,30000,40,0,1,9999,0.100000,0,0,0.000000,3,2.000000,0.000000,9.722456,0,0,0,0,0,0,0
3,39999,13,30000,40,0,1,9999,0.100000,0,0,0.000000,3,1.000000,0.000000,2.101914,0,0,0,0,0,0,0
3,39999,14,30000,40,10000,0,9999,0.100000,0,0,0.000000,3,0.000000,0.000000,4.236253,0,0,0,0,0,0,0
3,39999,15,30000,40,10000,1,9999,0.100000,0,0,0.000000,3,4.000000,0.000000,16.891081,0,0,0,0,0,0,0
3,39999,16,30000,40,0,1,9999,0.100000,0,0,0.000000,3,1.000000,0.000000,1.854389,0,0,0,0,0,0,0
3,39999,17,30000,40,10000,1,9999,0.100000,0,0,0.000000,3,2.000000,0.000000,11.708248,0,0,0,0,0,0,0
3,39999,18,30000,40,0,1,9999,0.100000,0,0,0.000000,3,2.000000,0.000000,4.123577,0,0,0,0,0,0,0
3,39999,19,30000,30,10000,1,9999,0.100000,0,0,0.000000,3,2.000000,0.000000,18.735995,0,0,0,0,0,0,0
3,39999,20,30000,40,10000,0,9999,0.100000,0,0,0.000000,3,0.000000,0.000000,3.071869,0,0,0,0,0,0,0
3,39999,21,30000,40,10000,1,9999,0.100000,0,0,0.000000,3,3.000000,0.000000,11.789838,0,0,0,0,0,0,0
3,39999,22,30000,30,10000,0,9999,0.100000,0,0,0.000000,3,0.000000,0.000000,7.283312,0,0,0,0,0,0,0
3,39999,23,30000,40,0,1,9999,0.100000,0,0,0.000000,3,1.000000,0.000000,2.149856,0,0,0,0,0,0,0
3,39999,24,30000,30,10000,1,9999,0.100000,0,0,0.000000,3,1.000000,0.000000,5.903925,0,0,0,0,0,0,0
3,39999,25,30000,30,10000,0,9999,0.100000,0,0,0.000000,3,0.000000,0.000000,4.916124,0,0,0,0,0,0,0
3,39999,26,30000,40,10000,1,9999,0.100000,0,0,0.000000,3,1.000000,0.000000,2.700918,0,0,0,0,0,0,0
3,39999,27,30000,40,0,1,9999,0.100000,0,0,0.000000,3,6.000000,0.000000,8.380906,0,0,0,0,0,0,0
3,39999,28,30000,40,0,0,9999,0.100000,0,0,0.000000,3,0.000000,0.000000,4.354517,0,0,0,0,0,0,0
3,39999,29,30000,40,0,1,9999,0.100000,0,0,0.000000,3,1.000000,0.000000,5.490759,0,0,0,0,0,0,0
3,39999,30,30000,30,10000,1,9999,0.100000,0,0,0.000000,3,1.000000,0.000000,18.916501,0,0,0,0,0,0,0
3,39999,31,30000,30,10000,1,9999,0.100000,0,0,0.000000,3,1.000000,0.000000,9.365689,0,0,0,0,0,0,0
3,39999,32,30000,40,0,0,9999,0.100000,0,0,0.000000,3,0.000000,0.000000,0.616220,0,0,0,0,0,0,0
3,39999,33,30000,40,10000,1,9999,0.100000,0,0,0.000000,3,3.000000,0.000000,17.696424,0,0,0,0,0,0,0
3,39999,34,30000,40,10000,0,9999,0.100000,0,0,0.000000,3,0.000000,0.000000,0.134538,0,0,0,0,0,0,0
3,39999,35,30000,30,10000,0,9999,0.065000,0,0,0.000000,3,0.000000,0.000000,16.298442,0,0,0,0,0,0,0
3,39999,36,30000,30,10000,1,9999,0.100000,0,0,0.000000,3,2.000000,0.000000,8.922564,0,0,0,0,0,0,0
3,39999,37,30000,30,10000,1,9999,0.100000,0,0,0.000000,3,1.000000,0.000000,5.737427,0,0,0,0,0,0,0
3,39999,38,30000,30,10000,1,9999,0.100000,0,0,0.000000,3,2.000000,0.000000,13.352799,0,0,0,0,0,0,0
3,39999,39,30000,30,10000,1,9999,0.100000,0,0,0.000000,3,1.000000,0.000000,15.714402,0,0,0,0,0,0,0
3,39999,40,30000,30,10000,0,9999,0.100000,0,0,0.000000,3,0.000000,0.000000,0.059376,0,0,0,0,0,0,0
3,39999,41,30000,30,10000,1,9999,0.100000,0,0,0.000000,3,3.000000,0.000000,12.103486,0,0,0,0,0,0,0
3,39999,42,30000,40,10000,1,9999,0.100000,0,0,0.000000,3,1.000000,0.000000,5.001577,0,0,0,0,0,0,0
3,39999,43,30000,40,10000,0,9999,0.100000,0,0,0.000000,3,0.000000,0.000000,5.104177,0,0,0,0,0,0,0
3,39999,44,30000,30,10000,0,9999,0.100000,0,0,0.000000,3,0.000000,0.000000,0.175480,0,0,0,0,0,0,0
3,39999,45,30000,40,10000,1,9999,0.100000,0,0,0.000000,3,2.000000,0.000000,15.097965,0,0,0,0,0,0,0
3,39999,46,30000,40,10000,1,9999,0.100000,0,0,0.000000,3,1.000000,0.000000,14.657345,0,0,0,0,0,0,0
3,39999,47,30000,40,0,0,9999,0.100000,0,0,0.000000,3,0.000000,0.000000,1.018718,0,0,0,0,0,0,0
3,39999,48,30000,30,10000,1,9999,0.100000,0,0,0.000000,3,1.000000,0.000000,12.141708,0,0,0,0,0,0,0
3,39999,49,30000,40,10000,0,9999,0.100000,0,0,0.000000,3,0.000000,0.000000,1.202437,0,0,0,0,0,0,0
3,39999,50,30000,40,10000,1,9999,0.100000,0,0,0.000000,3,1.000000,0.000000,7.892248,0,0,0,0,0,0,0
3,39999,51,30000,30,10000,1,9999,0.100000,0,0,0.000000,3,2.000000,0.000000,13.543916,0,0,0,0,0,0,0
3,39999,52,30000,40,0,1,9999,0.100000,0,0,0.000000,3,1.000000,0.000000,4.821575,0,0,0,0,0,0,0
3,39999,53,30000,30,10000,0,9999,0.100000,0,0,0.000000,3,0.000000,0.000000,0.651401,0,0,0,0,0,0,0
3,39999,54,30000,30,10000,1,9999,0.100000,0,0,0.000000,3,3.000000,0.000000,14.183597,0,0,0,0,0,0,0
3,39999,55,30000,40,0,1,9999,0.100000,0,0,0.000000,3,2.000000,0.000000,3.370297,0,0,0,0,0,0,0
3,39999,56,30000,40,0,0,9999,0.100000,0,0,0.000000,3,0.000000,0.000000,5.158645,0,0,0,0,0,0,0
3,39999,57,30000,40,0,0,9999,0.100000,0,0,0.000000,3,0.000000,0.000000,0.135788,0,0,0,0,0,0,0
3,39999,58,30000,40,10000,1,9999,0.100000,0,0,0.000000,3,3.000000,0.000000,15.750299,0,0,0,0,0,0,0
3,39999,59,30000,40,10000,0,9999,0.100000,0,0,0.000000,3,0.000000,0.000000,7.173609,0,0,0,0,0,0,0
3,39999,60,30000,30,10000,0,9999,0.100000,0,0,0.000000,3,0.000000,0.000000,0.113253,0,0,0,0,0,0,0
3,39999,61,30000,40,10000,0,9999,0.100000,0,0,0.000000,3,0.000000,0.000000,0.952161,0,0,0,0,0,0,0
3,39999,62,30000,40,0,1,9999,0.100000,0,0,0.000000,3,2.000000,0.000000,2.361552,0,0,0,0,0,0,0
3,39999,63,30000,30,10000,1,9999,0.100000,0,0,0.000000,3,3.000000,0.000000,13.226805,0,0,0,0,0,0,0
3,39999,64,30000,30,10000,1,9999,0.100000,0,0,0.000000,3,3.000000,0.000000,15.585680,0,0,0,0,0,0,0
3,39999,65,30000,40,0,0,9999,0.135000,0,0,0.000000,3,0.000000,0.000000,1.624834,0,0,0,0,0,0,0
3,39999,66,30000,40,10000,1,9999,0.100000,0,0,0.000000,3,1.000000,0.000000,3.986159,0,0,0,0,0,0,0
3,39999,67,30000,40,0,0,9999,0.100000,0,0,0.000000,3,0.000000,0.000000,1.189458,0,0,0,0,0,0,0
3,39999,68,30000,40,0,0,9999,0.100000,0,0,0.000000,3,0.000000,0.000000,0.833486,0,0,0,0,0,0,0
3,39999,69,30000,40,10000,1,9999,0.100000,0,0,0.000000,3,1.000000,0.000000,10.698813,0,0,0,0,0,0,0
3,39999,70,30000,40,10000,0,9999,0.100000,0,0,0.000000,3,0.000000,0.000000,1.833971,0,0,0,0,0,0,0
3,39999,71,30000,30,10000,0,9999,0.100000,0,0,0.000000,3,0.000000,0.000000,0.144536,0,0,0,0,0,0,0
3,39999,72,30000,40,10000,1,9999,0.100000,0,0,0.000000,3,1.000000,0.000000,5.938864,0,0,0,0,0,0,0
3,39999,73,30000,30,10000,1,9999,0.100000,0,0,0.000000,3,1.000000,0.000000,14.007861,0,0,0,0,0,0,0
3,39999,74,30000,30,10000,1,9999,0.100000,0,0,0.000000,3,1.000000,0.000000,6.971058,0,0,0,0,0,0,0
3,39999,75,30000,40,10000,1,9999,0.100000,0,0,0.000000,3,4.000000,0.000000,12.987451,0,0,0,0,0,0,0
3,39999,76,30000,40,0,1,9999,0.100000,0,0,0.000000,3,1.000000,0.000000,2.114759,0,0,0,0,0,0,0
3,39999,77,30000,30,10000,1,9999,0.100000,0,0,0.000000,3,4.000000,0.000000,14.484423,0,0,0,0,0,0,0
3,39999,78,30000,30,10000,0,9999,0.100000,0,0,0.000000,3,0.000000,0.000000,23.815828,0,0,0,0,0,0,0
3,39999,79,30000,30,10000,0,9999,0.100000,0,0,0.000000,3,0.000000,0.000000,6.030961,0,0,0,0,0,0,0
3,39999,80,30000,30,10000,1,9999,0.100000,0,0,0.000000,3,1.000000,0.000000,4.187631,0,0,0,0,0,0,0
3,39999,81,30000,40,10000,1,9999,0.100000,0,0,0.000000,3,1.000000,0.000000,10.270730,0,0,0,0,0,0,0
3,39999,82,30000,40,0,0,9999,0.100000,0,0,0.000000,3,0.000000,0.000000,0.972708,0,0,0,0,0,0,0
3,39999,83,30000,40,10000,1,9999,0.100000,0,0,0.000000,3,1.000000,0.000000,21.469409,0,0,0,0,0,0,0
3,39999,84,30000,40,0,1,9999,0.100000,0,0,0.000000,3,3.000000,0.000000,24.173712,0,0,0,0,0,0,0
3,39999,85,30000,40,0,1,9999,0.100000,0,0,0.000000,3,3.000000,0.000000,7.463362,0,0,0,0,0,0,0
3,39999,86,30000,40,10000,0,9999,0.100000,0,0,0.000000,3,0.000000,0.000000,1.036612,0,0,0,0,0,0,0
3,39999,87,30000,30,10000,0,9999,0.100000,0,0,0.000000,3,0.000000,0.000000,0.708150,0,0,0,0,0,0,0
3,39999,88,30000,30,10000,1,9999,0.100000,0,0,0.000000,3,1.000000,0.000000,9.434565,0,0,0,0,0,0,0
3,39999,89,30000,40,10000,1,9999,0.100000,0,0,0.000000,3,7.000000,0.000000,10.891776,0,0,0,0,0,0,0
3,39999,90,30000,40,0,0,9999,0.100000,0,0,0.000000,3,0.000000,0.000000,0.848058,0,0,0,0,0,0,0
3,39999,91,30000,30,10000,0,9999,0.100000,0,0,0.000000,3,0.000000,0.000000,0.227058,0,0,0,0,0,0,0
3,39999,92,30000,30,10000,0,9999,0.100000,0,0,0.000000,3,0.000000,0.000000,1.058274,0,0,0,0,0,0,0
3,39999,93,30000,30,10000,1,9999,0.100000,0,0,0.000000,3,3.000000,0.000000,9.951259,0,0,0,0,0,0,0
3,39999,94,30000,40,10000,0,9999,0.100000,0,0,0.000000,3,0.000000,0.000000,0.190519,0,0,0,0,0,0,0
3,39999,95,30000,30,10000,0,9999,0.100000,0,0,0.000000,3,0.000000,0.000000,0.369924,0,0,0,0,0,0,0
3,39999,96,30000,40,0,0,9999,0.100000,0,0,0.000000,3,0.000000,0.000000,0.234340,0,0,0,0,0,0,0
3,39999,97,30000,30,10000,0,9999,0.100000,0,0,0.000000,3,0.000000,0.000000,0.098723,0,0,0,0,0,0,0
3,39999,98,30000,40,0,0,9999,0.100000,0,0,0.000000,3,0.000000,0.000000,0.127323,0,0,0,0,0,0,0
3,39999,99,30000,40,0,3,9999,0.100000,0,0,7.730236,3,1.000000,0.000000,7.065381,0,0,1,0,0,0,0
4,49999,0,40000,40,0,1,9999,0.100000,0,0,0.000000,3,2.000000,0.000000,3.314910,0,0,0,0,0,0,0
4,49999,1,40000,40,0,1,9999,0.100000,0,0,0.000000,3,2.000000,0.000000,5.990313,0,0,0,0,0,0,0
4,49999,2,40000,40,10000,1,9999,0.100000,0,0,0.000000,3,2.000000,0.000000,17.343443,0,0,0,0,0,0,0
4,49999,3,40000,30,10000,1,9999,0.100000,0,0,0.000000,3,2.000000,0.000000,9.988149,0,0,0,0,0,0,0
4,49999,4,40000,40,10000,0,9999,0.100000,0,0,0.000000,3,0.000000,0.000000,0.696476,0,0,0,0,0,0,0
4,49999,5,40000,30,10000,0,9999,0.100000,0,0,0.000000,3,0.000000,0.000000,1.241232,0,0,0,0,0,0,0
4,49999,6,40000,30,10000,1,9999,0.100000,0,0,0.000000,3,9.000000,0.000000,9.456148,0,0,0,0,0,0,0
4,49999,7,40000,40,10000,1,9999,0.100000,0,0,0.000000,3,6.000000,0.000000,11.205572,0,0,0,0,0,0,0
4,49999,8,40000,40,0,0,9999,0.100000,0,0,0.000000,3,0.000000,0.000000,0.978021,0,0,0,0,0,0,0
4,49999,9,40000,30,10000,0,9999,0.100000,0,0,0.000000,3,0.000000,0.000000,0.580934,0,0,0,0,0,0,0
4,49999,10,40000,40,0,1,9999,0.100000,0,0,0.000000,3,7.000000,0.000000,20.883586,0,0,0,0,0,0,0
4,49999,11,40000,40,0,0,9999,0.100000,0,0,0.000000,3,0.000000,0.000000,3.383041,0,0,0,0,0,0,0
4,49999,12,40000,40,0,1,9999,0.100000,0,0,0.000000,3,2.000000,0.000000,5.502755,0,0,0,0,0,0,0
4,49999,13,40000,40,0,1,9999,0.100000,0,0,0.000000,3,2.000000,0.000000,3.859253,0,0,0,0,0,0,0
4,49999,14,40000,40,0,1,9999,0.100000,0,0,0.000000,3,3.000000,0.000000,6.019624,0,0,0,0,0,0,0
4,49999,15,40000,30,10000,1,9999,0.100000,0,0,0.000000,3,1.000000,0.000000,14.668655,0,0,0,0,0,0,0
4,49999,16,40000,30,10000,1,9999,0.100000,0,0,0.000000,3,2.000000,0.000000,3.044026,0,0,0,0,0,0,0
4,49999,17,40000,30,10000,1,9999,0.100000,0,0,0.000000,3,3.000000,0.000000,13.802813,0,0,0,0,0,0,0
4,49999,18,40000,40,10000,1,9999,0.100000,0,0,0.000000,3,3.000000,0.000000,11.947609,0,0,0,0,0,0,0
4,49999,19,40000,30,10000,0,9999,0.100000,0,0,0.000000,3,0.000000,0.000000,1.683700,0,0,0,0,0,0,0
4,49999,20,40000,30,10000,0,9999,0.100000,0,0,0.000000,3,0.000000,0.000000,3.197201,0,0,0,0,0,0,0
4,49999,21,40000,40,0,1,9999,0.100000,0,0,0.000000,3,2.000000,0.000000,12.522560,0,0,0,0,0,0,0
4,49999,22,40000,40,10000,0,9999,0.100000,0,0,0.000000,3,0.000000,0.000000,8.639170,0,0,0,0,0,0,0
4,49999,23,40000,40,10000,1,9999,0.100000,0,0,0.000000,3,2.000000,0.000000,5.410872,0,0,0,0,0,0,0
4,49999,24,40000,30,10000,1,9999,0.100000,0,0,0.000000,3,1.000000,0.000000,6.648141,0,0,0,0,0,0,0
4,49999,25,40000,40,10000,1,9999,0.100000,0,0,0.000000,3,3.000000,0.000000,8.978006,0,0,0,0,0,0,0
4,49999,26,40000,40,10000,0,9999,0.100000,0,0,0.000000,3,0.000000,0.000000,1.508450,0,0,0,0,0,0,0
4,49999,27,40000,40,0,1,9999,0.100000,0,0,0.000000,3,2.000000,0.000000,5.757308,0,0,0,0,0,0,0
4,49999,28,40000,30,10000,0,9999,0.100000,0,0,0.000000,3,0.000000,0.000000,6.399642,0,0,0,0,0,0,0
4,49999,29,40000,40,10000,1,9999,0.100000,0,0,0.000000,3,3.000000,0.000000,13.821958,0,0,0,0,0,0,0
4,49999,30,40000,40,10000,1,9999,0.100000,0,0,0.000000,3,4.000000,0.000000,17.435733,0,0,0,0,0,0,0
4,49999,31,40000,40,0,1,9999,0.100000,0,0,0.000000,3,5.000000,0.000000,13.269923,0,0,0,0,0,0,0
4,49999,32,40000,30,10000,1,9999,0.100000,0,0,0.000000,3,8.000000,0.000000,9.440878,0,0,0,0,0,0,0
4,49999,33,40000,40,0,1,9999,0.100000,0,0,0.000000,3,2.000000,0.000000,6.897767,0,0,0,0,0,0,0
4,49999,34,40000,30,10000,1,9999,0.100000,0,0,0.000000,3,1.000000,0.000000,1.768648,0,0,0,0,0,0,0
4,49999,35,40000,30,10000,1,9999,0.100000,0,0,0.000000,3,1.000000,0.000000,15.538766,0,0,0,0,0,0,0
4,49999,36,40000,40,10000,1,9999,0.100000,0,0,0.000000,3,6.000000,0.000000,12.800502,0,0,0,0,0,0,0
4,49999,37,40000,30,10000,1,9999,0.100000,0,0,0.000000,3,1.000000,0.000000,4.977208,0,0,0,0,0,0,0
4,49999,38,40000,40,10000,1,9999,0.100000,0,0,0.000000,3,3.000000,0.000000,18.581876,0,0,0,0,0,0,0
4,49999,39,40000,30,10000,1,9999,0.100000,0,0,0.000000,3,2.000000,0.000000,20.524814,0,0,0,0,0,0,0
4,49999,40,40000,40,0,0,9999,0.100000,0,0,0.000000,3,0.000000,0.000000,0.295002,0,0,0,0,0,0,0
4,49999,41,40000,40,0,1,9999,0.100000,0,0,0.000000,3,1.000000,0.000000,11.778941,0,0,0,0,0,0,0
4,49999,42,40000,40,10000,1,9999,0.100000,0,0,0.000000,3,2.000000,0.000000,7.792396,0,0,0,0,0,0,0
4,49999,43,40000,40,10000,0,9999,0.100000,0,0,0.000000,3,0.000000,0.000000,3.587139,0,0,0,0,0,0,0
4,49999,44,40000,30,10000,0,9999,0.100000,0,0,0.000000,3,0.000000,0.000000,1.231737,0,0,0,0,0,0,0
4,49999,45,40000,30,10000,1,9999,0.100000,0,0,0.000000,3,1.000000,0.000000,9.607330,0,0,0,0,0,0,0
4,49999,46,40000,40,0,1,9999,0.100000,0,0,0.000000,3,2.000000,0.000000,7.741708,0,0,0,0,0,0,0
4,49999,47,40000,30,10000,0,9999,0.100000,0,0,0.000000,3,0.000000,0.000000,2.163096,0,0,0,0,0,0,0
4,49999,48,40000,40,0,1,9999,0.100000,0,0,0.000000,3,3.000000,0.000000,13.652276,0,0,0,0,0,0,0
4,49999,49,40000,30,10000,1,9999,0.100000,0,0,0.000000,3,1.000000,0.000000,2.364278,0,0,0,0,0,0,0
4,49999,50,40000,30,10000,1,9999,0.100000,0,0,0.000000,3,1.000000,0.000000,6.562418,0,0,0,0,0,0,0
4,49999,51,40000,40,10000,1,9999,0.100000,0,0,0.000000,3,1.000000,0.000000,16.058011,0,0,0,0,0,0,0
4,49999,52,40000,40,0,1,9999,0.100000,0,0,0.000000,3,1.000000,0.000000,2.265017,0,0,0,0,0,0,0
4,49999,53,40000,40,0,1,9999,0.100000,0,0,0.000000,3,1.000000,0.000000,1.607593,0,0,0,0,0,0,0
4,49999,54,40000,30,10000,1,9999,0.100000,0,0,0.000000,3,2.000000,0.000000,18.487699,0,0,0,0,0,0,0
4,49999,55,40000,40,10000,0,9999,0.100000,0,0,0.000000,3,0.000000,0.000000,0.245625,0,0,0,0,0,0,0
4,49999,56,40000,30,10000,0,9999,0.100000,0,0,0.000000,3,0.000000,0.000000,5.813802,0,0,0,0,0,0,0
4,49999,57,40000,30,10000,0,9999,0.100000,0,0,0.000000,3,0.000000,0.000000,0.142611,0,0,0,0,0,0,0
4,49999,58,40000,40,10000,1,9999,0.100000,0,0,0.000000,3,4.000000,0.000000,18.601547,0,0,0,0,0,0,0
4,49999,59,40000,30,10000,0,9999,0.100000,0,0,0.000000,3,0.000000,0.000000,7.953076,0,0,0,0,0,0,0
4,49999,60,40000,30,10000,0,9999,0.100000,0,0,0.000000,3,0.000000,0.000000,0.884591,0,0,0,0,0,0,0
4,49999,61,40000,30,10000,0,9999,0.100000,0,0,0.000000,3,0.000000,0.000000,0.856479,0,0,0,0,0,0,0
4,49999,62,40000,40,0,1,9999,0.100000,0,0,0.000000,3,2.000000,0.000000,6.704630,0,0,0,0,0,0,0
4,49999,63,40000,40,10000,1,9999,0.100000,0,0,0.000000,3,2.000000,0.000000,18.062006,0,0,0,0,0,0,0
4,49999,64,40000,40,10000,1,9999,0.100000,0,0,0.000000,3,2.000000,0.000000,15.813904,0,0,0,0,0,0,0
4,49999,65,40000,40,10000,0,9999,0.100000,0,0,0.000000,3,0.000000,0.000000,2.963353,0,0,0,0,0,0,0
4,49999,66,40000,40,0,1,9999,0.100000,0,0,0.000000,3,1.000000,0.000000,2.781034,0,0,0,0,0,0,0
4,49999,67,40000,40,0,0,9999,0.100000,0,0,0.000000,3,0.000000,0.000000,5.567992,0,0,0,0,0,0,0
4,49999,68,40000,40,0,1,9999,0.100000,0,0,0.000000,3,8.000000,0.000000,9.622965,0,0,0,0,0,0,0
4,49999,69,40000,30,10000,1,9999,0.100000,0,0,0.000000,3,2.000000,0.000000,13.187652,0,0,0,0,0,0,0
4,49999,70,40000,40,0,1,9999,0.100000,0,0,0.000000,3,3.000000,0.000000,11.528230,0,0,0,0,0,0,0
4,49999,71,40000,30,10000,0,9999,0.100000,0,0,0.000000,3,0.000000,0.000000,1.323384,0,0,0,0,0,0,0
4,49999,72,40000,40,0,1,9999,0.100000,0,0,0.000000,3,4.000000,0.000000,15.881252,0,0,0,0,0,0,0
4,49999,73,40000,40,0,1,9999,0.100000,0,0,0.000000,3,1.000000,0.000000,13.020424,0,0,0,0,0,0,0
4,49999,74,40000,30,10000,1,9999,0.100000,0,0,0.000000,3,1.000000,0.000000,7.272798,0,0,0,0,0,0,0
4,49999,75,40000,30,10000,1,9999,0.100000,0,0,0.000000,3,4.000000,0.000000,9.955552,0,0,0,0,0,0,0
4,49999,76,40000,40,0,1,9999,0.100000,0,0,0.000000,3,1.000000,0.000000,2.425235,0,0,0,0,0,0,0
4,49999,77,40000,40,0,1,9999,0.100000,0,0,0.000000,3,5.000000,0.000000,8.498899,0,0,0,0,0,0,0
4,49999,78,40000,40,10000,1,9999,0.100000,0,0,0.000000,3,4.000000,0.000000,24.987965,0,0,0,0,0,0,0
4,49999,79,40000,30,10000,1,9999,0.100000,0,0,0.000000,3,1.000000,0.000000,4.194052,0,0,0,0,0,0,0
4,49999,80,40000,40,0,1,9999,0.100000,0,0,0.000000,3,2.000000,0.000000,2.818057,0,0,0,0,0,0,0
4,49999,81,40000,40,10000,1,9999,0.100000,0,0,0.000000,3,1.000000,0.000000,12.283659,0,0,0,0,0,0,0
4,49999,82,40000,40,0,0,9999,0.100000,0,0,0.000000,3,0.000000,0.000000,0.389875,0,0,0,0,0,0,0
4,49999,83,40000,30,10000,1,9999,0.100000,0,0,0.000000,3,1.000000,0.000000,8.803639,0,0,0,0,0,1,0
4,49999,84,40000,40,0,1,9999,0.100000,0,0,0.000000,3,2.000000,0.000000,10.759246,0,0,0,0,0,0,0
4,49999,85,40000,40,0,0,9999,0.100000,0,0,0.000000,3,0.000000,0.000000,1.203175,0,0,0,0,0,0,0
4,49999,86,40000,40,10000,0,9999,0.100000,0,0,0.000000,3,0.000000,0.000000,0.376194,0,0,0,0,0,0,0
4,49999,87,40000,30,10000,1,9999,0.100000,0,0,0.000000,3,1.000000,0.000000,9.035339,0,0,0,0,0,0,0
4,49999,88,40000,40,10000,1,9999,0.100000,0,0,0.000000,3,1.000000,0.000000,2.906907,0,0,0,0,0,0,0
4,49999,89,40000,30,10000,1,9999,0.100000,0,0,0.000000,3,1.000000,0.000000,8.112509,0,0,0,1,0,0,0
4,49999,90,40000,40,10000,0,9999,0.100000,0,0,0.000000,3,0.000000,0.000000,0.171344,0,0,0,0,0,0,0
4,49999,91,40000,30,10000,0,9999,0.100000,0,0,0.000000,3,0.000000,0.000000,1.273870,0,0,0,0,0,0,0
4,49999,92,40000,40,0,0,9999,0.100000,0,0,44.357676,3,0.000000,0.000000,6.038860,0,0,1,1,0,0,0
4,49999,93,40000,40,10000,1,9999,0.100000,0,0,0.000000,3,2.000000,0.000000,2.708684,0,0,0,0,0,0,0
4,49999,94,40000,40,10000,0,9999,0.100000,0,0,0.000000,3,0.000000,0.000000,0.314734,0,0,0,0,0,0,0
4,49999,95,40000,40,0,0,9999,0.100000,0,0,0.000000,3,0.000000,0.000000,0.241102,0,0,0,0,0,0,0
4,49999,96,40000,40,0,0,9999,0.100000,0,0,0.000000,3,0.000000,0.000000,0.198488,0,0,0,0,0,0,0
4,49999,97,40000,30,10000,1,9999,0.100000,0,0,0.000000,3,1.000000,0.000000,1.730794,0,0,0,0,0,0,0
4,49999,98,40000,30,10000,1,9999,0.100000,0,0,0.000000,3,4.000000,0.000000,4.869367,0,0,0,0,0,0,0
4,49999,99,40000,40,0,1,9999,0.100000,0,0,0.000000,3,2.000000,0.000000,10.422590,0,0,0,0,0,0,0
5,59999,0,50000,40,0,1,9999,0.100000,0,0,0.000000,3,3.000000,0.000000,3.454945,0,0,0,0,0,0,0
5,59999,1,50000,40,0,0,9999,0.100000,0,0,0.000000,3,0.000000,0.000000,0.944806,0,0,0,0,0,0,0
5,59999,2,50000,40,10000,1,9999,0.100000,0,0,0.000000,3,3.000000,0.000000,6.438507,0,0,0,0,0,0,0
5,59999,3,50000,30,10000,1,9999,0.100000,0,0,0.000000,3,1.000000,0.000000,9.146618,0,0,0,0,0,0,0
5,59999,4,50000,30,10000,0,9999,0.100000,0,0,0.000000,3,0.000000,0.000000,1.190987,0,0,0,0,0,0,0
5,59999,5,50000,40,0,0,9999,0.100000,0,0,0.000000,3,0.000000,0.000000,0.332323,0,0,0,0,0,0,0
5,59999,6,50000,30,10000,0,9999,0.100000,0,0,0.000000,3,0.000000,0.000000,1.080143,0,0,0,0,0,0,0
5,59999,7,50000,40,10000,0,9999,0.100000,0,0,0.000000,3,0.000000,0.000000,1.004802,0,0,0,0,0,0,0
5,59999,8,50000,30,10000,0,9999,0.100000,0,0,0.000000,3,0.000000,0.000000,0.923470,0,0,0,0,0,0,0
5,59999,9,50000,30,10000,0,9999,0.100000,0,0,0.000000,3,0.000000,0.000000,0.065096,0,0,0,0,0,0,0
5,59999,10,50000,40,10000,3,9999,0.100000,0,0,0.000000,3,4.000000,0.000000,26.914222,0,0,1,0,0,0,0
5,59999,11,50000,40,10000,0,9999,0.100000,0,0,0.000000,3,0.000000,0.000000,0.950330,0,0,0,0,0,0,0
5,59999,12,50000,6,40000,1,9999,0.100000,0,0,0.000000,3,2.000000,0.000000,7.781960,0,0,0,0,0,0,0
5,59999,13,50000,30,10000,1,9999,0.100000,0,0,0.000000,3,3.000000,0.000000,3.479120,0,0,0,0,0,0,0
5,59999,14,50000,30,10000,1,9999,0.100000,0,0,0.000000,3,1.000000,0.000000,5.327598,0,0,0,0,0,0,0
5,59999,15,50000,40,0,1,9999,0.100000,0,0,0.000000,3,12.000000,0.000000,20.628031,0,0,0,0,0,0,0
5,59999,16,50000,40,10000,1,9999,0.100000,0,0,0.000000,3,3.000000,0.000000,3.444839,0,0,0,0,0,0,0
5,59999,17,50000,30,10000,1,9999,0.100000,0,0,0.000000,3,3.000000,0.000000,12.994426,0,0,0,0,0,0,0
5,59999,18,50000,30,10000,0,9999,0.100000,0,0,0.000000,3,0.000000,0.000000,3.464091,0,0,0,0,0,0,0
5,59999,19,50000,30,10000,0,9999,0.100000,0,0,0.000000,3,0.000000,0.000000,1.881037,0,0,0,0,0,0,0
5,59999,20,50000,40,0,0,9999,0.100000,0,0,0.000000,3,0.000000,0.000000,1.053574,0,0,0,0,0,0,0
5,59999,21,50000,30,10000,1,9999,0.100000,0,0,0.000000,3,3.000000,0.000000,8.007864,0,0,0,0,0,0,0
5,59999,22,50000,40,0,1,9999,0.100000,0,0,0.000000,3,1.000000,0.000000,5.581789,0,0,0,0,0,0,0
5,59999,23,50000,40,10000,0,9999,0.100000,0,0,0.000000,3,0.000000,0.000000,1.564470,0,0,0,0,0,0,0
5,59999,24,50000,40,0,0,9999,0.100000,0,0,0.000000,3,0.000000,0.000000,0.910976,0,0,0,0,0,0,0
5,59999,25,50000,40,0,0,9999,0.100000,0,0,0.000000,3,0.000000,0.000000,4.890311,0,0,0,0,0,0,0
5,59999,26,50000,40,10000,0,9999,0.100000,0,0,0.000000,3,0.000000,0.000000,3.216753,0,0,0,0,0,0,0
5,59999,27,50000,40,0,1,9999,0.100000,0,0,0.000000,3,4.000000,0.000000,15.450092,0,0,0,0,0,0,0
5,59999,28,50000,30,10000,1,9999,0.100000,0,0,0.000000,3,1.000000,0.000000,5.919890,0,0,0,0,0,0,0
5,59999,29,50000,6,40000,1,9999,0.100000,0,0,0.000000,3,3.000000,0.000000,15.419171,0,0,0,0,0,0,0
5,59999,30,50000,30,10000,1,9999,0.100000,0,0,0.000000,3,4.000000,0.000000,12.675259,0,0,0,0,0,0,0
5,59999,31,50000,40,10000,1,9999,0.100000,0,0,0.000000,3,2.000000,0.000000,6.207900,0,0,0,0,0,0,0
5,59999,32,50000,30,10000,0,9999,0.100000,0,0,0.000000,3,0.000000,0.000000,3.613142,0,0,0,0,0,0,0
5,59999,33,50000,40,0,1,9999,0.100000,0,0,0.000000,3,1.000000,0.000000,14.157512,0,0,0,0,0,0,0
5,59999,34,50000,40,10000,0,9999,0.100000,0,0,0.000000,3,0.000000,0.000000,0.134711,0,0,0,0,0,0,0
5,59999,35,50000,40,10000,1,9999,0.100000,0,0,0.000000,3,2.000000,0.000000,9.680641,0,0,0,0,0,0,0
5,59999,36,50000,40,10000,1,9999,0.100000,0,0,0.000000,3,2.000000,0.000000,8.851221,0,0,0,0,0,0,0
5,59999,37,50000,40,10000,0,9999,0.100000,0,0,0.000000,3,0.000000,0.000000,2.451271,0,0,0,0,0,0,0
5,59999,38,50000,40,10000,1,9999,0.100000,0,0,0.000000,3,2.000000,0.000000,16.336612,0,0,0,0,0,0,0
5,59999,39,50000,40,10000,0,9999,0.100000,0,0,0.000000,3,0.000000,0.000000,0.525529,0,0,0,0,0,0,0
5,59999,40,50000,6,40000,0,9999,0.100000,0,0,0.000000,3,0.000000,0.000000,0.191432,0,0,0,0,0,0,0
5,59999,41,50000,30,10000,0,9999,0.100000,0,0,0.000000,3,0.000000,0.000000,0.561430,0,0,0,0,0,0,0
5,59999,42,50000,6,40000,1,9999,0.100000,0,0,0.000000,3,6.000000,0.000000,10.606881,0,0,0,0,0,0,0
5,59999,43,50000,30,10000,0,9999,0.100000,0,0,0.000000,3,0.000000,0.000000,0.112831,0,0,0,0,0,0,0
5,59999,44,50000,30,10000,0,9999,0.100000,0,0,0.000000,3,0.000000,0.000000,0.377330,0,0,0,0,0,0,0
5,59999,45,50000,30,10000,1,9999,0.100000,0,0,0.000000,3,3.000000,0.000000,4.723263,0,0,0,0,0,0,0
5,59999,46,50000,40,10000,1,9999,0.100000,0,0,0.000000,3,3.000000,0.000000,16.128225,0,0,0,0,0,0,0
5,59999,47,50000,30,10000,0,9999,0.100000,0,0,0.000000,3,0.000000,0.000000,5.906416,0,0,0,0,0,0,0
5,59999,48,50000,40,10000,1,9999,0.100000,0,0,0.000000,3,1.000000,0.000000,16.283348,0,0,0,0,0,0,0
5,59999,49,50000,40,10000,0,9999,0.100000,0,0,0.000000,3,0.000000,0.000000,2.194502,0,0,0,0,0,0,0
5,59999,50,50000,40,10000,1,9999,0.100000,0,0,0.000000,3,2.000000,0.000000,11.843949,0,0,0,0,0,0,0
5,59999,51,50000,40,0,1,9999,0.100000,0,0,0.000000,3,2.000000,0.000000,7.609610,0,0,0,0,0,0,0
5,59999,52,50000,40,10000,0,9999,0.100000,0,0,0.000000,3,0.000000,0.000000,4.211320,0,0,0,0,0,0,0
5,59999,53,50000,30,10000,0,9999,0.100000,0,0,0.000000,3,0.000000,0.000000,0.375077,0,0,0,0,0,0,0
5,59999,54,50000,30,10000,1,9999,0.135000,0,0,0.000000,3,4.000000,0.000000,11.846979,0,0,0,0,0,0,0
5,59999,55,50000,40,0,0,9999,0.100000,0,0,0.000000,3,0.000000,0.000000,0.227215,0,0,0,0,0,0,0
5,59999,56,50000,6,40000,1,9999,0.100000,0,0,0.000000,3,1.000000,0.000000,10.248193,0,0,0,0,0,0,0
5,59999,57,50000,40,10000,0,9999,0.100000,0,0,0.000000,3,0.000000,0.000000,0.140022,0,0,0,0,0,0,0
5,59999,58,50000,30,10000,0,9999,0.100000,0,0,0.000000,3,0.000000,0.000000,0.215461,0,0,0,0,0,0,0
5,59999,59,50000,30,10000,1,9999,0.100000,0,0,0.000000,3,2.000000,0.000000,9.381284,0,0,0,0,0,0,0
5,59999,60,50000,40,0,1,9999,0.100000,0,0,0.000000,3,2.000000,0.000000,3.616984,0,0,0,0,0,0,0
5,59999,61,50000,30,10000,0,9999,0.100000,0,0,0.000000,3,0.000000,0.000000,0.985068,0,0,0,0,0,0,0
5,59999,62,50000,40,10000,0,9999,0.100000,0,0,0.000000,3,0.000000,0.000000,22.837456,0,0,0,0,0,0,0
5,59999,63,50000,30,10000,1,9999,0.100000,0,0,0.000000,3,1.000000,0.000000,14.711499,0,0,0,0,0,0,0
5,59999,64,50000,40,0,1,9999,0.100000,0,0,0.000000,3,1.000000,0.000000,8.194759,0,0,0,0,0,0,0
5,59999,65,50000,30,10000,0,9999,0.100000,0,0,0.000000,3,0.000000,0.000000,3.840769,0,0,0,0,0,0,0
5,59999,66,50000,40,10000,1,9999,0.100000,0,0,0.000000,3,1.000000,0.000000,6.265022,0,0,0,0,0,0,0
5,59999,67,50000,30,10000,0,9999,0.100000,0,0,0.000000,3,0.000000,0.000000,0.286337,0,0,0,0,0,0,0
5,59999,68,50000,40,10000,1,9999,0.100000,0,0,0.000000,3,1.000000,0.000000,2.609849,0,0,0,0,0,0,0
5,59999,69,50000,40,10000,1,9999,0.100000,0,0,0.000000,3,4.000000,0.000000,10.138112,0,0,0,0,0,0,0
5,59999,70,50000,30,10000,1,9999,0.100000,0,0,0.000000,3,2.000000,0.000000,9.631907,0,0,0,0,0,0,0
5,59999,71,50000,6,40000,0,9999,0.100000,0,0,0.000000,3,0.000000,0.000000,0.439827,0,0,0,0,0,0,0
5,59999,72,50000,40,0,1,9999,0.100000,0,0,0.000000,3,1.000000,0.000000,14.718688,0,0,0,0,0,0,0
5,59999,73,50000,30,10000,1,9999,0.100000,0,0,0.000000,3,3.000000,0.000000,18.411029,0,0,0,0,0,0,0
5,59999,74,50000,40,10000,1,9999,0.100000,0,0,0.000000,3,1.000000,0.000000,5.211684,0,0,0,0,0,0,0
5,59999,75,50000,30,10000,0,9999,0.100000,0,0,0.000000,3,0.000000,0.000000,0.501071,0,0,0,0,0,0,0
5,59999,76,50000,40,10000,1,9999,0.100000,0,0,34.210526,3,8.000000,0.000000,12.945556,0,0,0,1,0,0,0
5,59999,77,50000,40,10000,1,9999,0.100000,0,0,0.000000,3,2.000000,0.000000,9.199392,0,0,0,0,0,0,0
5,59999,78,50000,30,10000,1,9999,0.100000,0,0,34.210526,3,9.000000,0.000000,15.575096,0,0,0,1,0,0,0
5,59999,79,50000,30,10000,0,9999,0.100000,0,0,0.000000,3,0.000000,0.000000,1.591868,0,0,0,0,0,0,0
5,59999,80,50000,40,0,1,9999,0.100000,0,0,0.000000,3,3.000000,0.000000,3.253513,0,0,0,0,0,0,0
5,59999,81,50000,30,10000,1,9999,0.100000,0,0,0.000000,3,1.000000,0.000000,14.005927,0,0,0,0,0,0,0
5,59999,82,50000,40,0,0,9999,0.100000,0,0,0.000000,3,0.000000,0.000000,0.515000,0,0,0,0,0,0,0
5,59999,83,50000,40,10000,1,9999,0.100000,0,0,0.000000,3,1.000000,0.000000,2.269547,0,0,0,0,0,0,0
5,59999,84,50000,40,10000,1,9999,0.100000,0,0,0.000000,3,4.000000,0.000000,22.327168,0,0,0,0,0,0,0
5,59999,85,50000,30,10000,0,9999,0.100000,0,0,0.000000,3,0.000000,0.000000,0.260351,0,0,0,0,0,0,0
5,59999,86,50000,30,10000,0,9999,0.100000,0,0,0.000000,3,0.000000,0.000000,0.355868,0,0,0,0,0,0,0
5,59999,87,50000,6,40000,0,9999,0.100000,0,0,0.000000,3,0.000000,0.000000,0.897995,0,0,0,0,0,0,0
5,59999,88,50000,30,10000,1,9999,0.100000,0,0,34.210526,3,8.000000,0.000000,13.875864,0,0,0,1,0,0,0
5,59999,89,50000,30,10000,1,9999,0.100000,0,0,0.000000,3,2.000000,0.000000,3.627099,0,0,0,0,0,0,0
5,59999,90,50000,40,10000,0,9999,0.100000,0,0,0.000000,3,0.000000,0.000000,0.117872,0,0,0,0,0,0,0
5,59999,91,50000,30,10000,0,9999,0.100000,0,0,0.000000,3,0.000000,0.000000,0.630924,0,0,0,0,0,0,0
5,59999,92,50000,40,10000,1,9999,0.100000,0,0,0.000000,3,1.000000,0.000000,3.501030,0,0,0,0,0,0,0
5,59999,93,50000,6,40000,1,9999,0.100000,0,0,0.000000,3,2.000000,0.000000,3.064926,0,0,0,0,0,0,0
5,59999,94,50000,40,10000,0,9999,0.100000,0,0,0.000000,3,0.000000,0.000000,0.132799,0,0,0,0,0,0,0
5,59999,95,50000,40,10000,0,9999,0.100000,0,0,0.000000,3,0.000000,0.000000,0.247962,0,0,0,0,0,0,0
5,59999,96,50000,30,10000,0,9999,0.100000,0,0,0.000000,3,0.000000,0.000000,0.195662,0,0,0,0,0,0,0
5,59999,97,50000,40,10000,1,9999,0.100000,0,0,0.000000,3,2.000000,0.000000,3.910433,0,0,0,0,0,0,0
5,59999,98,50000,30,10000,1,9999,0.100000,0,0,34.210526,3,9.000000,0.000000,14.984993,0,0,0,1,0,0,0
5,59999,99,50000,30,10000,1,9999,0.100000,0,0,0.000000,3,3.000000,0.000000,23.027356,0,0,0,0,0,0,0
6,69999,0,60000,40,10000,0,9999,0.100000,0,0,0.000000,3,0.000000,0.000000,1.151735,0,0,0,0,0,0,0
6,69999,1,60000,6,40000,0,9999,0.100000,0,0,0.000000,3,0.000000,0.000000,2.480517,0,0,0,0,0,0,0
6,69999,2,60000,40,10000,0,9999,0.100000,0,0,0.000000,3,0.000000,0.000000,1.200756,0,0,0,0,0,0,0
6,69999,3,60000,40,10000,1,9999,0.100000,0,0,0.000000,3,1.000000,0.000000,8.017579,0,0,0,0,0,0,0
6,69999,4,60000,6,40000,0,9999,0.100000,0,0,0.000000,3,0.000000,0.000000,1.058750,0,0,0,0,0,0,0
6,69999,5,60000,6,40000,0,9999,0.100000,0,0,0.000000,3,0.000000,0.000000,0.201525,0,0,0,0,0,0,0
6,69999,6,60000,30,10000,0,9999,0.100000,0,0,0.000000,3,0.000000,0.000000,1.538183,0,0,0,0,0,0,0
6,69999,7,60000,40,50000,0,9999,0.100000,0,0,0.000000,3,0.000000,0.000000,0.930621,0,0,0,0,0,0,0
6,69999,8,60000,6,40000,0,9999,0.100000,0,0,0.000000,3,0.000000,0.000000,0.911526,0,0,0,0,0,0,0
6,69999,9,60000,6,40000,0,9999,0.100000,0,0,0.000000,3,0.000000,0.000000,0.066256,0,0,0,0,0,0,0
6,69999,10,60000,30,10000,1,9999,0.100000,0,0,0.000000,3,1.000000,0.000000,20.962886,0,0,0,0,0,0,0
6,69999,11,60000,6,40000,0,9999,0.100000,0,0,0.000000,3,0.000000,0.000000,0.994625,0,0,0,0,0,0,0
6,69999,12,60000,6,40000,0,9999,0.100000,0,0,0.000000,3,0.000000,0.000000,0.230131,0,0,0,0,0,0,0
6,69999,13,60000,40,50000,0,9999,0.100000,0,0,0.000000,3,0.000000,0.000000,1.215506,0,0,0,0,0,0,0
6,69999,14,60000,40,10000,1,9999,0.100000,0,0,0.000000,3,2.000000,0.000000,6.646178,0,0,0,0,0,0,0
6,69999,15,60000,6,40000,0,9999,0.100000,0,0,0.000000,3,0.000000,0.000000,2.166218,0,0,0,0,0,0,0
6,69999,16,60000,30,10000,0,9999,0.100000,0,0,0.000000,3,0.000000,0.000000,1.040064,0,0,0,0,0,0,0
6,69999,17,60000,6,40000,1,9999,0.100000,0,0,0.000000,3,1.000000,0.000000,9.902077,0,0,0,0,0,0,0
6,69999,18,60000,6,40000,0,9999,0.100000,0,0,0.000000,3,0.000000,0.000000,3.118760,0,0,0,0,0,0,0
6,69999,19,60000,6,40000,0,9999,0.100000,0,0,0.000000,3,0.000000,0.000000,1.356567,0,0,0,0,0,0,0
6,69999,20,60000,6,40000,0,9999,0.100000,0,0,0.000000,3,0.000000,0.000000,0.974332,0,0,0,0,0,0,0
6,69999,21,60000,6,40000,1,9999,0.100000,0,0,0.000000,3,8.000000,0.000000,11.270926,0,0,0,0,0,0,0
6,69999,22,60000,6,40000,1,9999,0.100000,0,0,0.000000,3,1.000000,0.000000,7.930270,0,0,0,0,0,0,0
6,69999,23,60000,6,40000,0,9999,0.100000,0,0,0.000000,3,0.000000,0.000000,3.717441,0,0,0,0,0,0,0
6,69999,24,60000,30,10000,0,9999,0.100000,0,0,0.000000,3,0.000000,0.000000,2.113412,0,0,0,0,0,0,0
6,69999,25,60000,40,10000,1,9999,0.100000,0,0,0.000000,3,4.000000,0.000000,6.734172,0,0,0,0,0,0,0
6,69999,26,60000,30,10000,1,9999,0.100000,0,0,0.000000,3,1.000000,0.000000,5.522807,0,0,0,0,0,0,0
6,69999,27,60000,6,40000,1,9999,0.100000,0,0,0.000000,3,1.000000,0.000000,10.328010,0,0,0,0,0,0,0
6,69999,28,60000,6,40000,1,9999,0.100000,0,0,0.000000,3,1.000000,0.000000,8.791587,0,0,0,0,0,0,0
6,69999,29,60000,30,10000,1,9999,0.100000,0,0,0.000000,3,1.000000,0.000000,23.310669,0,0,0,0,0,0,0
6,69999,30,60000,30,10000,1,9999,0.100000,0,0,0.000000,3,4.000000,0.000000,10.084289,0,0,0,0,0,0,0
6,69999,31,60000,30,10000,1,9999,0.100000,0,0,0.000000,3,2.000000,0.000000,7.161644,0,0,0,0,0,0,0
6,69999,32,60000,40,50000,0,9999,0.100000,0,0,0.000000,3,0.000000,0.000000,2.155990,0,0,0,0,0,0,0
6,69999,33,60000,30,10000,1,9999,0.100000,0,0,0.000000,3,1.000000,0.000000,11.853847,0,0,0,0,0,0,0
6,69999,34,60000,40,10000,0,9999,0.100000,0,0,0.000000,3,0.000000,0.000000,0.133759,0,0,0,0,0,0,0
6,69999,35,60000,30,10000,1,9999,0.100000,0,0,0.000000,3,1.000000,0.000000,9.708421,0,0,0,0,0,0,0
6,69999,36,60000,6,40000,1,9999,0.100000,0,0,0.000000,3,2.000000,0.000000,11.023344,0,0,0,0,0,0,0
6,69999,37,60000,40,50000,1,9999,0.100000,0,0,0.000000,3,1.000000,0.000000,8.746406,0,0,0,0,0,0,0
6,69999,38,60000,30,10000,1,9999,0.100000,0,0,0.000000,3,3.000000,0.000000,15.106644,0,0,0,0,0,0,0
6,69999,39,60000,30,10000,0,9999,0.100000,0,0,0.000000,3,0.000000,0.000000,0.135994,0,0,0,0,0,0,0
6,69999,40,60000,40,50000,0,9999,0.100000,0,0,0.000000,3,0.000000,0.000000,0.101916,0,0,0,0,0,0,0
6,69999,41,60000,6,40000,0,9999,0.100000,0,0,0.000000,3,0.000000,0.000000,0.236395,0,0,0,0,0,0,0
6,69999,42,60000,6,40000,1,9999,0.100000,0,0,0.000000,3,1.000000,0.000000,15.533961,0,0,0,0,0,0,0
6,69999,43,60000,30,10000,0,9999,0.100000,0,0,0.000000,3,0.000000,0.000000,0.296366,0,0,0,0,0,0,0
6,69999,44,60000,30,10000,0,9999,0.100000,0,0,0.000000,3,0.000000,0.000000,0.209168,0,0,0,0,0,0,0
6,69999,45,60000,40,10000,0,9999,0.100000,0,0,0.000000,3,0.000000,0.000000,3.182860,0,0,0,0,0,0,0
6,69999,46,60000,6,40000,1,9999,0.100000,0,0,0.000000,3,4.000000,0.000000,17.813954,0,0,0,0,0,0,0
6,69999,47,60000,30,10000,1,9999,0.100000,0,0,0.000000,3,1.000000,0.000000,4.030358,0,0,0,0,0,0,0
6,69999,48,60000,6,40000,1,9999,0.100000,0,0,0.000000,3,1.000000,0.000000,14.900296,0,0,0,0,0,0,0
6,69999,49,60000,30,10000,0,9999,0.100000,0,0,0.000000,3,0.000000,0.000000,0.699405,0,0,0,0,0,0,0
6,69999,50,60000,30,10000,0,9999,0.100000,0,0,0.000000,3,0.000000,0.000000,3.533250,0,0,0,0,0,0,0
6,69999,51,60000,30,10000,1,9999,0.100000,0,0,0.000000,3,2.000000,0.000000,7.851377,0,0,0,0,0,0,0
6,69999,52,60000,30,10000,0,9999,0.100000,0,0,0.000000,3,0.000000,0.000000,6.080058,0,0,0,0,0,0,0
6,69999,53,60000,6,40000,0,9999,0.100000,0,0,0.000000,3,0.000000,0.000000,0.173627,0,0,0,0,0,0,0
6,69999,54,60000,40,10000,0,9999,0.100000,0,0,0.000000,3,0.000000,0.000000,6.801494,0,0,0,0,0,0,0
6,69999,55,60000,40,10000,0,9999,0.100000,0,0,0.000000,3,0.000000,0.000000,0.244431,0,0,0,0,0,0,0
6,69999,56,60000,6,40000,1,9999,0.100000,0,0,0.000000,3,2.000000,0.000000,9.717326,0,0,0,0,0,0,0
6,69999,57,60000,40,10000,0,9999,0.100000,0,0,0.000000,3,0.000000,0.000000,0.141881,0,0,0,0,0,0,0
6,69999,58,60000,6,40000,0,9999,0.100000,0,0,0.000000,3,0.000000,0.000000,0.138974,0,0,0,0,0,0,0
6,69999,59,60000,6,40000,0,9999,0.100000,0,0,0.000000,3,0.000000,0.000000,7.607831,0,0,0,0,0,0,0
6,69999,60,60000,30,10000,0,9999,0.100000,0,0,0.000000,3,0.000000,0.000000,1.125377,0,0,0,0,0,0,0
6,69999,61,60000,30,10000,0,9999,0.100000,0,0,0.000000,3,0.000000,0.000000,1.394964,0,0,0,0,0,0,0
6,69999,62,60000,30,10000,0,9999,0.100000,0,0,0.000000,3,0.000000,0.000000,15.827584,0,0,0,0,0,0,0
6,69999,63,60000,6,40000,1,9999,0.100000,0,0,0.000000,3,1.000000,0.000000,12.181159,0,0,0,0,0,0,0
6,69999,64,60000,40,10000,1,9999,0.100000,0,0,0.000000,3,1.000000,0.000000,7.202310,0,0,0,0,0,0,0
6,69999,65,60000,30,10000,0,9999,0.100000,0,0,0.000000,3,0.000000,0.000000,3.915017,0,0,0,0,0,0,0
6,69999,66,60000,6,40000,0,9999,0.100000,0,0,0.000000,3,0.000000,0.000000,2.615537,0,0,0,0,0,0,0
6,69999,67,60000,40,10000,1,9999,0.100000,0,0,0.000000,3,4.000000,0.000000,14.692225,0,0,0,0,0,0,0
6,69999,68,60000,6,40000,0,9999,0.100000,0,0,0.000000,3,0.000000,0.000000,5.622643,0,0,0,0,0,0,0
6,69999,69,60000,6,40000,1,9999,0.100000,0,0,0.000000,3,9.000000,0.000000,12.663229,0,0,0,0,0,0,0
6,69999,70,60000,30,10000,1,9999,0.100000,0,0,0.000000,3,1.000000,0.000000,6.625628,0,0,0,0,0,0,0
6,69999,71,60000,40,50000,0,9999,0.100000,0,0,0.000000,3,0.000000,0.000000,0.237900,0,0,0,0,0,0,0
6,69999,72,60000,30,10000,1,9999,0.100000,0,0,0.000000,3,2.000000,0.000000,12.755675,0,0,0,0,0,0,0
6,69999,73,60000,40,10000,1,9999,0.100000,0,0,0.000000,3,1.000000,0.000000,14.906390,0,0,0,0,0,0,0
6,69999,74,60000,40,10000,1,9999,0.100000,0,0,0.000000,3,1.000000,0.000000,4.042292,0,0,0,0,0,0,0
6,69999,75,60000,6,40000,0,9999,0.100000,0,0,0.000000,3,0.000000,0.000000,0.139170,0,0,0,0,0,0,0
6,69999,76,60000,30,10000,0,9999,0.100000,0,0,0.000000,3,0.000000,0.000000,5.231734,0,0,0,0,0,0,0
6,69999,77,60000,40,10000,1,9999,0.100000,0,0,0.000000,3,1.000000,0.000000,14.685477,0,0,0,0,0,0,0
6,69999,78,60000,30,10000,1,9999,0.100000,0,0,0.000000,3,2.000000,0.000000,10.584218,0,0,0,0,0,0,0
6,69999,79,60000,30,10000,0,9999,0.100000,0,0,0.000000,3,0.000000,0.000000,5.490457,0,0,0,0,0,0,0
6,69999,80,60000,30,10000,0,9999,0.100000,0,0,0.000000,3,0.000000,0.000000,0.791619,0,0,0,0,0,0,0
6,69999,81,60000,30,10000,0,9999,0.100000,0,0,0.000000,3,0.000000,0.000000,11.287100,0,0,0,0,0,0,0
6,69999,82,60000,30,10000,0,9999,0.100000,0,0,0.000000,3,0.000000,0.000000,0.884733,0,0,0,0,0,0,0
6,69999,83,60000,30,10000,0,9999,0.100000,0,0,0.000000,3,0.000000,0.000000,7.546241,0,0,0,0,0,0,0
6,69999,84,60000,30,10000,1,9999,0.100000,0,0,0.000000,3,8.000000,0.000000,11.149319,0,0,0,0,0,0,0
6,69999,85,60000,40,10000,0,9999,0.100000,0,0,0.000000,3,0.000000,0.000000,0.275391,0,0,0,0,0,0,0
6,69999,86,60000,30,10000,0,9999,0.100000,0,0,0.000000,3,0.000000,0.000000,0.201008,0,0,0,0,0,0,0
6,69999,87,60000,30,10000,0,9999,0.100000,0,0,0.000000,3,0.000000,0.000000,0.339566,0,0,0,0,0,0,0
6,69999,88,60000,40,10000,1,9999,0.100000,0,0,0.000000,3,2.000000,0.000000,17.174723,0,0,0,0,0,0,0
6,69999,89,60000,6,40000,0,9999,0.100000,0,0,0.000000,3,0.000000,0.000000,0.754868,0,0,0,0,0,0,0
6,69999,90,60000,40,50000,0,9999,0.100000,0,0,0.000000,3,0.000000,0.000000,0.335594,0,0,0,0,0,0,0
6,69999,91,60000,6,40000,0,9999,0.100000,0,0,0.000000,3,0.000000,0.000000,0.537248,0,0,0,0,0,0,0
6,69999,92,60000,30,10000,0,9999,0.100000,0,0,0.000000,3,0.000000,0.000000,7.037774,0,0,0,0,0,0,0
6,69999,93,60000,6,40000,0,9999,0.100000,0,0,0.000000,3,0.000000,0.000000,1.128255,0,0,0,0,0,0,0
6,69999,94,60000,6,40000,0,9999,0.100000,0,0,0.000000,3,0.000000,0.000000,0.134770,0,0,0,0,0,0,0
6,69999,95,60000,40,10000,0,9999,0.100000,0,0,0.000000,3,0.000000,0.000000,0.231498,0,0,0,0,0,0,0
6,69999,96,60000,6,40000,0,9999,0.100000,0,0,0.000000,3,0.000000,0.000000,0.334313,0,0,0,0,0,0,0
6,69999,97,60000,6,40000,0,9999,0.100000,0,0,0.000000,3,0.000000,0.000000,1.133917,0,0,0,0,0,0,0
6,69999,98,60000,40,50000,0,9999,0.100000,0,0,0.000000,3,0.000000,0.000000,2.097171,0,0,0,0,0,0,0
6,69999,99,60000,30,10000,0,9999,0.100000,0,0,0.000000,3,0.000000,0.000000,6.315625,0,0,0,0,0,0,0
7,79999,0,70000,40,50000,1,9999,0.100000,0,0,0.000000,3,1.000000,0.000000,1.613395,0,0,0,0,0,0,0
7,79999,1,70000,6,40000,0,9999,0.100000,0,0,0.000000,3,0.000000,0.000000,1.224310,0,0,0,0,0,0,0
7,79999,2,70000,40,50000,1,9999,0.100000,0,0,0.000000,3,1.000000,0.000000,3.654790,0,0,0,0,0,0,0
7,79999,3,70000,6,40000,0,9999,0.100000,0,0,0.000000,3,0.000000,0.000000,7.684680,0,0,0,0,0,0,0
7,79999,4,70000,30,10000,1,9999,0.100000,0,0,0.000000,3,1.000000,0.000000,5.067273,0,0,0,0,0,0,0
7,79999,5,70000,40,50000,0,9999,0.100000,0,0,0.000000,3,0.000000,0.000000,0.297387,0,0,0,0,0,0,0
7,79999,6,70000,40,50000,1,9999,0.100000,0,0,0.000000,3,1.000000,0.000000,6.543469,0,0,0,0,0,0,0
7,79999,7,70000,6,40000,0,9999,0.100000,0,0,0.000000,3,0.000000,0.000000,0.883227,0,0,0,0,0,0,0
7,79999,8,70000,40,50000,1,9999,0.100000,0,0,0.000000,3,2.000000,0.000000,11.939523,0,0,0,0,0,0,0
7,79999,9,70000,40,50000,0,9999,0.100000,0,0,0.000000,3,0.000000,0.000000,1.140877,0,0,0,0,0,0,0
7,79999,10,70000,6,40000,1,9999,0.100000,0,0,0.000000,3,1.000000,0.000000,22.869314,0,0,0,0,0,0,0
7,79999,11,70000,40,50000,0,9999,0.100000,0,0,0.000000,3,0.000000,0.000000,0.992049,0,0,0,0,0,0,0
7,79999,12,70000,6,40000,0,9999,0.100000,0,0,0.000000,3,0.000000,0.000000,0.221500,0,0,0,0,0,0,0
7,79999,13,70000,30,10000,1,9999,0.100000,0,0,0.000000,3,2.000000,0.000000,7.427295,0,0,0,0,0,0,0
7,79999,14,70000,40,50000,1,9999,0.100000,0,0,0.000000,3,1.000000,0.000000,7.108099,0,0,0,0,0,0,0
7,79999,15,70000,40,50000,0,9999,0.100000,0,0,0.000000,3,0.000000,0.000000,1.576417,0,0,0,0,0,0,0
7,79999,16,70000,30,10000,1,9999,0.100000,0,0,0.000000,3,1.000000,0.000000,2.772630,0,0,0,0,0,0,0
7,79999,17,70000,40,50000,1,9999,0.100000,0,0,0.000000,3,1.000000,0.000000,7.819278,0,0,0,0,0,0,0
7,79999,18,70000,84,60000,0,9999,0.100000,0,0,0.000000,3,0.000000,0.000000,1.007351,0,0,0,0,0,0,0
7,79999,19,70000,30,10000,1,9999,0.100000,0,0,0.000000,3,5.000000,0.000000,10.555110,0,0,0,0,0,0,0
7,79999,20,70000,30,10000,0,9999,0.100000,0,0,0.000000,3,0.000000,0.000000,0.985785,0,0,0,0,0,0,0
7,79999,21,70000,6,40000,1,9999,0.100000,0,0,0.000000,3,2.000000,0.000000,3.731674,0,0,0,0,0,0,0
7,79999,22,70000,84,60000,1,9999,0.100000,0,0,0.000000,3,1.000000,0.000000,10.068154,0,0,0,0,0,0,0
7,79999,23,70000,40,50000,0,9999,0.100000,0,0,0.000000,3,0.000000,0.000000,2.389178,0,0,0,0,0,0,0
7,79999,24,70000,40,50000,0,9999,0.100000,0,0,0.000000,3,0.000000,0.000000,1.579901,0,0,0,0,0,0,0
7,79999,25,70000,6,40000,1,9999,0.100000,0,0,0.000000,3,1.000000,0.000000,2.117440,0,0,0,0,0,0,0
7,79999,26,70000,6,40000,1,9999,0.100000,0,0,0.000000,3,1.000000,0.000000,6.356582,0,0,0,0,0,0,0
7,79999,27,70000,6,40000,0,9999,0.100000,0,0,0.000000,3,0.000000,0.000000,9.333840,0,0,0,0,0,0,0
7,79999,28,70000,6,40000,1,9999,0.100000,0,0,0.000000,3,1.000000,0.000000,5.701791,0,0,0,0,0,0,0
7,79999,29,70000,84,60000,1,9999,0.135000,0,0,0.000000,3,1.000000,0.000000,11.013890,0,0,0,0,0,0,0
7,79999,30,70000,40,50000,1,9999,0.100000,0,0,0.000000,3,1.000000,0.000000,5.760273,0,0,0,0,0,0,0
7,79999,31,70000,40,50000,1,9999,0.100000,0,0,0.000000,3,1.000000,0.000000,6.161097,0,0,0,0,0,0,0
7,79999,32,70000,40,50000,0,9999,0.100000,0,0,0.000000,3,0.000000,0.000000,2.073223,0,0,0,0,0,0,0
7,79999,33,70000,84,60000,1,9999,0.100000,0,0,0.000000,3,2.000000,0.000000,10.957206,0,0,0,0,0,0,0
7,79999,34,70000,30,10000,0,9999,0.100000,0,0,0.000000,3,0.000000,0.000000,0.134568,0,0,0,0,0,0,0
7,79999,35,70000,84,60000,0,9999,0.100000,0,0,0.000000,3,0.000000,0.000000,5.270888,0,0,0,0,0,0,0
7,79999,36,70000,6,40000,0,9999,0.100000,0,0,0.000000,3,0.000000,0.000000,10.837436,0,0,0,0,0,0,0
7,79999,37,70000,30,10000,1,9999,0.100000,0,0,0.000000,3,1.000000,0.000000,4.388587,0,0,0,0,0,0,0
7,79999,38,70000,84,60000,1,9999,0.100000,0,0,0.000000,3,1.000000,0.000000,8.721876,0,0,0,0,0,0,0
7,79999,39,70000,84,60000,0,9999,0.100000,0,0,0.000000,3,0.000000,0.000000,0.136407,0,0,0,0,0,0,0
7,79999,40,70000,84,60000,0,9999,0.100000,0,0,0.000000,3,0.000000,0.000000,0.445384,0,0,0,0,0,0,0
7,79999,41,70000,40,50000,0,9999,0.100000,0,0,0.000000,3,0.000000,0.000000,0.798249,0,0,0,0,0,0,0
7,79999,42,70000,84,60000,1,9999,0.100000,0,0,0.000000,3,6.000000,0.000000,10.961522,0,0,0,0,0,0,0
7,79999,43,70000,84,60000,1,9999,0.100000,0,0,0.000000,3,1.000000,0.000000,2.063795,0,0,0,0,0,0,0
7,79999,44,70000,40,50000,0,9999,0.100000,0,0,0.000000,3,0.000000,0.000000,0.249935,0,0,0,0,0,0,0
7,79999,45,70000,40,50000,1,9999,0.065000,0,0,0.000000,3,4.000000,0.000000,6.477016,0,0,0,0,0,0,0
7,79999,46,70000,6,40000,1,9999,0.100000,0,0,0.000000,3,2.000000,0.000000,13.775792,0,0,0,0,0,0,0
7,79999,47,70000,40,50000,0,9999,0.100000,0,0,0.000000,3,0.000000,0.000000,2.569414,0,0,0,0,0,0,0
7,79999,48,70000,40,50000,1,9999,0.100000,0,0,0.000000,3,2.000000,0.000000,10.502815,0,0,0,0,0,0,0
7,79999,49,70000,6,40000,0,9999,0.100000,0,0,0.000000,3,0.000000,0.000000,0.704176,0,0,0,0,0,0,0
7,79999,50,70000,6,40000,0,9999,0.100000,0,0,0.000000,3,0.000000,0.000000,3.291394,0,0,0,0,0,0,0
7,79999,51,70000,6,40000,1,9999,0.100000,0,0,0.000000,3,2.000000,0.000000,14.052511,0,0,0,0,0,0,0
7,79999,52,70000,40,50000,1,9999,0.100000,0,0,0.000000,3,1.000000,0.000000,7.991009,0,0,0,0,0,0,0
7,79999,53,70000,6,40000,1,9999,0.100000,0,0,0.000000,3,2.000000,0.000000,3.413469,0,0,0,0,0,0,0
7,79999,54,70000,6,40000,1,9999,0.100000,0,0,0.000000,3,1.000000,0.000000,17.148651,0,0,0,0,0,0,0
7,79999,55,70000,6,40000,1,9999,0.100000,0,0,0.000000,3,1.000000,0.000000,6.000296,0,0,0,0,0,0,0
7,79999,56,70000,6,40000,1,9999,0.100000,0,0,0.000000,3,1.000000,0.000000,8.312172,0,0,0,0,0,0,0
7,79999,57,70000,6,40000,0,9999,0.100000,0,0,0.000000,3,0.000000,0.000000,0.143527,0,0,0,0,0,0,0
7,79999,58,70000,40,50000,0,9999,0.100000,0,0,0.000000,3,0.000000,0.000000,0.136422,0,0,0,0,0,0,0
7,79999,59,70000,40,50000,0,9999,0.100000,0,0,0.000000,3,0.000000,0.000000,2.840113,0,0,0,0,0,0,0
7,79999,60,70000,6,40000,0,9999,0.100000,0,0,0.000000,3,0.000000,0.000000,0.653419,0,0,0,0,0,0,0
7,79999,61,70000,84,60000,1,9999,0.100000,0,0,0.000000,3,2.000000,0.000000,2.418595,0,0,0,0,0,0,0
7,79999,62,70000,6,40000,0,9999,0.100000,0,0,0.000000,3,0.000000,0.000000,3.673387,0,0,0,0,0,0,0
7,79999,63,70000,40,50000,1,9999,0.100000,0,0,0.000000,3,2.000000,0.000000,10.526149,0,0,0,0,0,0,0
7,79999,64,70000,6,40000,1,9999,0.100000,0,0,0.000000,3,2.000000,0.000000,14.055300,0,0,0,0,0,0,0
7,79999,65,70000,84,60000,1,9999,0.100000,0,0,0.000000,3,2.000000,0.000000,5.552250,0,0,0,0,0,0,0
7,79999,66,70000,84,60000,0,9999,0.100000,0,0,0.000000,3,0.000000,0.000000,0.089239,0,0,0,0,0,0,0
7,79999,67,70000,30,10000,0,9999,0.100000,0,0,0.000000,3,0.000000,0.000000,2.031205,0,0,0,0,0,0,0
7,79999,68,70000,6,40000,1,9999,0.100000,0,0,0.000000,3,1.000000,0.000000,6.548299,0,0,0,0,0,0,0
7,79999,69,70000,6,40000,1,9999,0.100000,0,0,0.000000,3,1.000000,0.000000,4.276443,0,0,0,0,0,0,0
7,79999,70,70000,6,40000,3,9999,0.100000,0,0,0.000000,3,2.000000,0.000000,11.914883,0,0,1,0,0,0,0
7,79999,71,70000,6,40000,0,9999,0.100000,0,0,0.000000,3,0.000000,0.000000,0.230178,0,0,0,0,0,0,0
7,79999,72,70000,40,50000,1,9999,0.100000,0,0,0.000000,3,2.000000,0.000000,20.763124,0,0,0,0,0,0,0
7,79999,73,70000,40,50000,1,9999,0.100000,0,0,0.000000,3,3.000000,0.000000,15.611603,0,0,0,0,0,0,0
7,79999,74,70000,40,50000,1,9999,0.100000,0,0,0.000000,3,6.000000,0.000000,11.337320,0,0,0,0,0,0,0
7,79999,75,70000,6,40000,0,9999,0.100000,0,0,0.000000,3,0.000000,0.000000,0.138187,0,0,0,0,0,0,0
7,79999,76,70000,40,50000,0,9999,0.100000,0,0,0.000000,3,0.000000,0.000000,6.962855,0,0,0,0,0,0,0
7,79999,77,70000,40,50000,1,9999,0.100000,0,0,0.000000,3,1.000000,0.000000,10.932653,0,0,0,0,0,0,0
7,79999,78,70000,6,40000,0,9999,0.100000,0,0,0.000000,3,0.000000,0.000000,1.686570,0,0,0,0,0,0,0
7,79999,79,70000,6,40000,1,9999,0.100000,0,0,0.000000,3,2.000000,0.000000,6.914434,0,0,0,0,0,0,0
7,79999,80,70000,30,10000,1,9999,0.100000,0,0,0.000000,3,1.000000,0.000000,2.282590,0,0,0,0,0,0,0
7,79999,81,70000,6,40000,1,9999,0.100000,0,0,0.000000,3,3.000000,0.000000,17.005393,0,0,0,0,0,0,0
7,79999,82,70000,6,40000,0,9999,0.100000,0,0,0.000000,3,0.000000,0.000000,0.513751,0,0,0,0,0,0,0
7,79999,83,70000,6,40000,0,9999,0.100000,0,0,0.000000,3,0.000000,0.000000,3.971501,0,0,0,0,0,0,0
7,79999,84,70000,40,50000,1,9999,0.100000,0,0,0.000000,3,1.000000,0.000000,5.712671,0,0,0,0,0,0,0
7,79999,85,70000,84,60000,0,9999,0.100000,0,0,0.000000,3,0.000000,0.000000,4.200094,0,0,0,0,0,0,0
7,79999,86,70000,84,60000,0,9999,0.100000,0,0,0.000000,3,0.000000,0.000000,0.698982,0,0,0,0,0,0,0
7,79999,87,70000,84,60000,0,9999,0.100000,0,0,0.000000,3,0.000000,0.000000,0.856145,0,0,0,0,0,0,0
7,79999,88,70000,6,40000,1,9999,0.100000,0,0,0.000000,3,2.000000,0.000000,5.419949,0,0,0,0,0,0,0
7,79999,89,70000,84,60000,0,9999,0.100000,0,0,0.000000,3,0.000000,0.000000,2.266170,0,0,0,0,0,0,0
7,79999,90,70000,40,50000,1,9999,0.100000,0,0,0.000000,3,1.000000,0.000000,2.105910,0,0,0,0,0,0,0
7,79999,91,70000,6,40000,0,9999,0.100000,0,0,0.000000,3,0.000000,0.000000,0.560022,0,0,0,0,0,0,0
7,79999,92,70000,6,40000,1,9999,0.100000,0,0,0.000000,3,1.000000,0.000000,7.887436,0,0,0,0,0,0,0
7,79999,93,70000,40,50000,1,9999,0.100000,0,0,0.000000,3,1.000000,0.000000,9.975982,0,0,0,0,0,0,0
7,79999,94,70000,84,60000,0,9999,0.100000,0,0,0.000000,3,0.000000,0.000000,1.271632,0,0,0,0,0,0,0
7,79999,95,70000,40,50000,0,9999,0.100000,0,0,0.000000,3,0.000000,0.000000,0.269724,0,0,0,0,0,0,0
7,79999,96,70000,40,50000,0,9999,0.100000,0,0,0.000000,3,0.000000,0.000000,0.306310,0,0,0,0,0,0,0
7,79999,97,70000,84,60000,0,9999,0.100000,0,0,0.000000,3,0.000000,0.000000,0.399634,0,0,0,0,0,0,0
7,79999,98,70000,84,60000,0,9999,0.100000,0,0,0.000000,3,0.000000,0.000000,0.311590,0,0,0,0,0,0,0
7,79999,99,70000,30,10000,1,9999,0.100000,0,0,0.000000,3,1.000000,0.000000,2.676322,0,0,0,0,0,0,0
8,89999,0,80000,40,50000,1,9999,0.100000,0,0,0.000000,3,1.000000,0.000000,2.821468,0,0,0,0,0,0,0
8,89999,1,80000,40,50000,0,9999,0.100000,0,0,0.000000,3,0.000000,0.000000,1.446291,0,0,0,0,0,0,0
8,89999,2,80000,6,40000,0,9999,0.100000,0,0,0.000000,3,0.000000,0.000000,3.005451,0,0,0,0,0,0,0
8,89999,3,80000,40,50000,0,9999,0.100000,0,0,0.000000,3,0.000000,0.000000,7.474876,0,0,0,0,0,0,0
8,89999,4,80000,6,40000,1,9999,0.100000,0,0,0.000000,3,2.000000,0.000000,5.069511,0,0,0,0,0,0,0
8,89999,5,80000,84,60000,0,9999,0.100000,0,0,0.000000,3,0.000000,0.000000,0.614076,0,0,0,0,0,0,0
8,89999,6,80000,84,60000,1,9999,0.100000,0,0,0.000000,3,1.000000,0.000000,3.214559,0,0,0,0,0,0,0
8,89999,7,80000,84,60000,0,9999,0.100000,0,0,0.000000,3,0.000000,0.000000,4.199847,0,0,0,0,0,0,0
8,89999,8,80000,84,60000,1,9999,0.065000,0,0,0.000000,3,1.000000,0.000000,2.885456,0,0,0,0,0,0,0
8,89999,9,80000,40,70000,0,9999,0.100000,0,0,0.000000,3,0.000000,0.000000,0.522618,0,0,0,0,0,0,0
8,89999,10,80000,6,40000,0,9999,0.100000,0,0,0.000000,3,0.000000,0.000000,11.500444,0,0,0,0,0,0,0
8,89999,11,80000,6,40000,0,9999,0.100000,0,0,0.000000,3,0.000000,0.000000,1.000275,0,0,0,0,0,0,0
8,89999,12,80000,40,50000,0,9999,0.100000,0,0,0.000000,3,0.000000,0.000000,0.224302,0,0,0,0,0,0,0
8,89999,13,80000,84,60000,1,9999,0.100000,0,0,0.000000,3,1.000000,0.000000,4.130972,0,0,0,0,0,0,0
8,89999,14,80000,40,70000,1,9999,0.100000,0,0,0.000000,3,1.000000,0.000000,7.633489,0,0,0,0,0,0,0
8,89999,15,80000,6,40000,0,9999,0.100000,0,0,0.000000,3,0.000000,0.000000,1.011586,0,0,0,0,0,0,0
8,89999,16,80000,40,50000,1,9999,0.100000,0,0,0.000000,3,1.000000,0.000000,3.762581,0,0,0,0,0,0,0
8,89999,17,80000,6,40000,0,9999,0.100000,0,0,0.000000,3,0.000000,0.000000,5.911984,0,0,0,0,0,0,0
8,89999,18,80000,84,60000,0,9999,0.100000,0,0,0.000000,3,0.000000,0.000000,0.999127,0,0,0,0,0,0,0
8,89999,19,80000,40,50000,0,9999,0.100000,0,0,0.000000,3,0.000000,0.000000,3.152525,0,0,0,0,0,0,0
8,89999,20,80000,6,40000,0,9999,0.100000,0,0,0.000000,3,0.000000,0.000000,1.138091,0,0,0,0,0,0,0
8,89999,21,80000,6,40000,1,9999,0.100000,0,0,0.000000,3,4.000000,0.000000,6.428639,0,0,0,0,0,0,0
8,89999,22,80000,40,70000,1,9999,0.100000,0,0,0.000000,3,1.000000,0.000000,3.780832,0,0,0,0,0,0,0
8,89999,23,80000,40,70000,0,9999,0.100000,0,0,0.000000,3,0.000000,0.000000,2.172510,0,0,0,0,0,0,0
8,89999,24,80000,84,60000,0,9999,0.100000,0,0,0.000000,3,0.000000,0.000000,2.125545,0,0,0,0,0,0,0
8,89999,25,80000,6,40000,0,9999,0.100000,0,0,0.000000,3,0.000000,0.000000,0.321593,0,0,0,0,0,0,0
8,89999,26,80000,40,70000,1,9999,0.100000,0,0,0.000000,3,1.000000,0.000000,4.796719,0,0,0,0,0,0,0
8,89999,27,80000,40,70000,1,9999,0.100000,0,0,0.000000,3,1.000000,0.000000,3.374904,0,0,0,0,0,0,0
8,89999,28,80000,84,60000,0,9999,0.100000,0,0,0.000000,3,0.000000,0.000000,3.048638,0,0,0,0,0,0,0
8,89999,29,80000,6,40000,1,9999,0.100000,0,0,0.000000,3,1.000000,0.000000,6.005360,0,0,0,0,0,0,0
8,89999,30,80000,6,40000,1,9999,0.100000,0,0,0.000000,3,1.000000,0.000000,6.360967,0,0,0,0,0,0,0
8,89999,31,80000,6,40000,0,9999,0.100000,0,0,0.000000,3,0.000000,0.000000,7.486790,0,0,0,0,0,0,0
8,89999,32,80000,84,60000,1,9999,0.100000,0,0,0.000000,3,4.000000,0.000000,5.947211,0,0,0,0,0,0,0
8,89999,33,80000,84,60000,1,9999,0.100000,0,0,0.000000,3,2.000000,0.000000,9.679230,0,0,0,0,0,0,0
8,89999,34,80000,6,40000,0,9999,0.100000,0,0,0.000000,3,0.000000,0.000000,0.135688,0,0,0,0,0,0,0
8,89999,35,80000,40,50000,1,9999,0.100000,0,0,0.000000,3,1.000000,0.000000,7.298950,0,0,0,0,0,0,0
8,89999,36,80000,40,70000,1,9999,0.100000,0,0,0.000000,3,1.000000,0.000000,9.047301,0,0,0,0,0,0,0
8,89999,37,80000,40,70000,1,9999,0.100000,0,0,0.000000,3,1.000000,0.000000,4.090556,0,0,0,0,0,0,0
8,89999,38,80000,6,40000,0,9999,0.065000,0,0,0.000000,3,0.000000,0.000000,11.759805,0,0,0,0,0,0,0
8,89999,39,80000,40,50000,0,9999,0.100000,0,0,0.000000,3,0.000000,0.000000,0.139027,0,0,0,0,0,0,0
8,89999,40,80000,40,70000,0,9999,0.100000,0,0,0.000000,3,0.000000,0.000000,0.654433,0,0,0,0,0,0,0
8,89999,41,80000,84,60000,1,9999,0.100000,0,0,0.000000,3,1.000000,0.000000,2.589790,0,0,0,0,0,0,0
8,89999,42,80000,84,60000,1,9999,0.100000,0,0,0.000000,3,3.000000,0.000000,7.299331,0,0,0,0,0,0,0
8,89999,43,80000,6,40000,1,9999,0.100000,0,0,0.000000,3,2.000000,0.000000,2.535892,0,0,0,0,0,0,0
8,89999,44,80000,40,70000,0,9999,0.100000,0,0,0.000000,3,0.000000,0.000000,0.473857,0,0,0,0,0,0,0
8,89999,45,80000,84,60000,0,9999,0.100000,0,0,0.000000,3,0.000000,0.000000,0.138272,0,0,0,0,0,0,0
8,89999,46,80000,84,60000,1,9999,0.100000,0,0,0.000000,3,3.000000,0.000000,7.299091,0,0,0,0,0,0,0
8,89999,47,80000,40,70000,1,9999,0.100000,0,0,0.000000,3,1.000000,0.000000,6.940480,0,0,0,0,0,0,0
8,89999,48,80000,84,60000,1,9999,0.100000,0,0,0.000000,3,3.000000,0.000000,11.741763,0,0,0,0,0,0,0
8,89999,49,80000,84,60000,0,9999,0.100000,0,0,0.000000,3,0.000000,0.000000,1.133200,0,0,0,0,0,0,0
8,89999,50,80000,6,40000,0,9999,0.100000,0,0,0.000000,3,0.000000,0.000000,1.200320,0,0,0,0,0,0,0
8,89999,51,80000,6,40000,1,9999,0.100000,0,0,0.000000,3,4.000000,0.000000,14.193307,0,0,0,0,0,0,0
8,89999,52,80000,40,70000,1,9999,0.100000,0,0,0.000000,3,1.000000,0.000000,6.749174,0,0,0,0,0,0,0
8,89999,53,80000,84,60000,0,9999,0.100000,0,0,0.000000,3,0.000000,0.000000,0.375424,0,0,0,0,0,0,0
8,89999,54,80000,40,50000,0,9999,0.100000,0,0,0.000000,3,0.000000,0.000000,8.828684,0,0,0,0,0,0,0
8,89999,55,80000,6,40000,0,9999,0.100000,0,0,0.000000,3,0.000000,0.000000,6.003384,0,0,0,0,0,0,0
8,89999,56,80000,40,70000,1,9999,0.100000,0,0,0.000000,3,1.000000,0.000000,7.082332,0,0,0,0,0,0,0
8,89999,57,80000,84,60000,0,9999,0.100000,0,0,0.000000,3,0.000000,0.000000,0.136956,0,0,0,0,0,0,0
8,89999,58,80000,6,40000,0,9999,0.100000,0,0,0.000000,3,0.000000,0.000000,0.137853,0,0,0,0,0,0,0
8,89999,59,80000,6,40000,0,9999,0.100000,0,0,0.000000,3,0.000000,0.000000,6.176190,0,0,0,0,0,0,0
8,89999,60,80000,6,40000,0,9999,0.100000,0,0,0.000000,3,0.000000,0.000000,0.566123,0,0,0,0,0,0,0
8,89999,61,80000,84,60000,1,9999,0.100000,0,0,0.000000,3,2.000000,0.000000,3.141453,0,0,0,0,0,0,0
8,89999,62,80000,6,40000,0,9999,0.100000,0,0,0.000000,3,0.000000,0.000000,0.773054,0,0,0,0,0,0,0
8,89999,63,80000,6,40000,1,9999,0.100000,0,0,0.000000,3,4.000000,0.000000,17.749495,0,0,0,0,0,0,0
8,89999,64,80000,40,50000,1,9999,0.100000,0,0,0.000000,3,4.000000,0.000000,13.977990,0,0,0,0,0,0,0
8,89999,65,80000,84,60000,1,9999,0.100000,0,0,0.000000,3,2.000000,0.000000,3.019495,0,0,0,0,0,0,0
8,89999,66,80000,40,70000,0,9999,0.100000,0,0,0.000000,3,0.000000,0.000000,0.088567,0,0,0,0,0,0,0
8,89999,67,80000,84,60000,0,9999,0.100000,0,0,0.000000,3,0.000000,0.000000,1.961597,0,0,0,0,0,0,0
8,89999,68,80000,40,70000,0,9999,0.100000,0,0,0.000000,3,0.000000,0.000000,5.742219,0,0,0,0,0,0,0
8,89999,69,80000,84,60000,0,9999,0.100000,0,0,0.000000,3,0.000000,0.000000,1.311707,0,0,0,0,0,0,0
8,89999,70,80000,40,70000,3,9999,0.100000,0,0,0.000000,3,1.000000,0.000000,8.785886,0,0,1,0,0,0,0
8,89999,71,80000,6,40000,0,9999,0.100000,0,0,0.000000,3,0.000000,0.000000,0.282989,0,0,0,0,0,0,0
8,89999,72,80000,6,40000,1,9999,0.100000,0,0,0.000000,3,3.000000,0.000000,19.014735,0,0,0,0,0,0,0
8,89999,73,80000,40,70000,1,9999,0.100000,0,0,0.000000,3,1.000000,0.000000,19.499238,0,0,0,0,0,0,0
8,89999,74,80000,84,60000,0,9999,0.100000,0,0,0.000000,3,0.000000,0.000000,0.455951,0,0,0,0,0,0,0
8,89999,75,80000,6,40000,0,9999,0.100000,0,0,0.000000,3,0.000000,0.000000,0.140165,0,0,0,0,0,0,0
8,89999,76,80000,40,70000,1,9999,0.100000,0,0,0.000000,3,1.000000,0.000000,5.103267,0,0,0,0,0,0,0
8,89999,77,80000,40,70000,0,9999,0.100000,0,0,0.000000,3,0.000000,0.000000,5.704439,0,0,0,0,0,0,0
8,89999,78,80000,6,40000,0,9999,0.100000,0,0,0.000000,3,0.000000,0.000000,0.081379,0,0,0,0,0,0,0
8,89999,79,80000,6,40000,0,9999,0.100000,0,0,0.000000,3,0.000000,0.000000,6.586841,0,0,0,0,0,0,0
8,89999,80,80000,6,40000,0,9999,0.100000,0,0,0.000000,3,0.000000,0.000000,2.473112,0,0,0,0,0,0,0
8,89999,81,80000,40,70000,1,9999,0.100000,0,0,0.000000,3,1.000000,0.000000,21.192906,0,0,0,0,0,0,0
8,89999,82,80000,40,70000,0,9999,0.100000,0,0,0.000000,3,0.000000,0.000000,0.155401,0,0,0,0,0,0,0
8,89999,83,80000,40,70000,0,9999,0.100000,0,0,0.000000,3,0.000000,0.000000,4.023424,0,0,0,0,0,0,0
8,89999,84,80000,6,40000,0,9999,0.100000,0,0,0.000000,3,0.000000,0.000000,0.354701,0,0,0,0,0,0,0
8,89999,85,80000,40,70000,1,9999,0.100000,0,0,0.000000,3,3.000000,0.000000,7.919194,0,0,0,0,0,0,0
8,89999,86,80000,40,70000,1,9999,0.100000,0,0,0.000000,3,1.000000,0.000000,2.508794,0,0,0,0,0,0,0
8,89999,87,80000,84,60000,1,9999,0.100000,0,0,0.000000,3,3.000000,0.000000,8.945126,0,0,0,0,0,0,0
8,89999,88,80000,40,70000,1,9999,0.100000,0,0,0.000000,3,1.000000,0.000000,3.059083,0,0,0,0,0,0,0
8,89999,89,80000,40,70000,0,9999,0.100000,0,0,0.000000,3,0.000000,0.000000,1.342271,0,0,0,0,0,0,0
8,89999,90,80000,40,50000,1,9999,0.100000,0,0,0.000000,3,2.000000,0.000000,2.585697,0,0,0,0,0,0,0
8,89999,91,80000,84,60000,0,9999,0.100000,0,0,0.000000,3,0.000000,0.000000,0.796185,0,0,0,0,0,0,0
8,89999,92,80000,40,70000,2,9999,0.100000,0,0,0.000000,3,0.000000,0.000000,13.690644,0,0,1,0,0,0,0
8,89999,93,80000,6,40000,1,9999,0.100000,0,0,0.000000,3,2.000000,0.000000,14.537446,0,0,0,0,0,0,0
8,89999,94,80000,6,40000,1,9999,0.100000,0,0,0.000000,3,1.000000,0.000000,1.523982,0,0,0,0,0,0,0
8,89999,95,80000,6,40000,0,9999,0.100000,0,0,0.000000,3,0.000000,0.000000,0.472108,0,0,0,0,0,0,0
8,89999,96,80000,6,40000,0,9999,0.100000,0,0,0.000000,3,0.000000,0.000000,0.202282,0,0,0,0,0,0,0
8,89999,97,80000,40,70000,0,9999,0.100000,0,0,0.000000,3,0.000000,0.000000,0.914484,0,0,0,0,0,0,0
8,89999,98,80000,6,40000,0,9999,0.100000,0,0,0.000000,3,0.000000,0.000000,0.057831,0,0,0,0,0,0,0
8,89999,99,80000,84,60000,0,9999,0.100000,0,0,0.000000,3,0.000000,0.000000,2.632202,0,0,0,0,0,0,0
9,99999,0,90000,84,60000,1,9999,0.100000,0,0,0.000000,3,1.000000,0.000000,1.846490,0,0,0,0,0,0,0
9,99999,1,90000,84,60000,0,9999,0.100000,0,0,0.000000,3,0.000000,0.000000,1.107696,0,0,0,0,0,0,0
9,99999,2,90000,40,70000,1,9999,0.100000,0,0,0.000000,4,1.000000,0.000000,1.835407,0,0,0,0,0,0,0
9,99999,3,90000,84,60000,1,9999,0.100000,0,0,0.000000,3,1.000000,0.000000,6.121346,0,0,0,0,0,0,0
9,99999,4,90000,40,70000,0,9999,0.100000,0,0,0.000000,4,0.000000,0.000000,2.706142,0,0,0,0,0,0,0
9,99999,5,90000,84,60000,0,9999,0.100000,0,0,0.000000,3,0.000000,0.000000,0.651015,0,0,0,0,0,0,0
9,99999,6,90000,84,60000,1,9999,0.100000,0,0,0.000000,4,11.000000,0.000000,11.257509,0,0,0,0,0,0,0
9,99999,7,90000,6,40000,0,9999,0.100000,0,0,0.000000,3,0.000000,0.000000,2.079912,0,0,0,0,0,0,0
9,99999,8,90000,84,60000,0,9999,0.100000,0,0,0.000000,3,0.000000,0.000000,0.992051,0,0,0,0,0,0,0
9,99999,9,90000,6,40000,0,9999,0.100000,0,0,0.000000,3,0.000000,0.000000,1.919756,0,0,0,0,0,0,0
9,99999,10,90000,84,60000,1,9999,0.100000,0,0,0.000000,3,1.000000,0.000000,4.381344,0,0,0,0,0,0,0
9,99999,11,90000,6,40000,0,9999,0.100000,0,0,0.000000,3,0.000000,0.000000,0.979798,0,0,0,0,0,0,0
9,99999,12,90000,92,80000,0,9999,0.100000,0,0,0.000000,4,0.000000,0.000000,0.217445,0,0,0,0,0,0,0
9,99999,13,90000,6,40000,1,9999,0.100000,0,0,0.000000,4,1.000000,0.000000,3.435540,0,0,0,0,0,0,0
9,99999,14,90000,40,70000,1,9999,0.100000,0,0,0.000000,3,1.000000,0.000000,6.061923,0,0,0,0,0,0,0
9,99999,15,90000,40,70000,0,9999,0.100000,0,0,0.000000,3,0.000000,0.000000,0.651309,0,0,0,0,0,0,0
9,99999,16,90000,40,70000,1,9999,0.100000,0,0,0.000000,3,1.000000,0.000000,2.436087,0,0,0,0,0,0,0
9,99999,17,90000,84,60000,0,9999,0.100000,0,0,0.000000,4,0.000000,0.000000,5.889582,0,0,0,0,0,0,0
9,99999,18,90000,6,40000,0,9999,0.100000,0,0,0.000000,3,0.000000,0.000000,1.021743,0,0,0,0,0,0,0
9,99999,19,90000,40,70000,1,9999,0.100000,0,0,0.000000,4,6.000000,0.000000,7.466218,0,0,0,0,0,0,0
9,99999,20,90000,40,70000,0,9999,0.100000,0,0,0.000000,3,0.000000,0.000000,5.819200,0,0,0,0,0,0,0
9,99999,21,90000,6,40000,0,9999,0.100000,0,0,0.000000,3,0.000000,0.000000,2.024488,0,0,0,0,0,0,0
9,99999,22,90000,6,40000,1,9999,0.100000,0,0,0.000000,3,11.000000,0.000000,11.252100,0,0,0,0,0,0,0
9,99999,23,90000,6,40000,0,9999,0.100000,0,0,0.000000,3,0.000000,0.000000,1.794742,0,0,0,0,0,0,0
9,99999,24,90000,84,60000,0,9999,0.100000,0,0,0.000000,3,0.000000,0.000000,1.574773,0,0,0,0,0,0,0
9,99999,25,90000,6,40000,0,9999,0.100000,0,0,0.000000,4,0.000000,0.000000,0.316235,0,0,0,0,0,0,0
9,99999,26,90000,84,60000,0,9999,0.100000,0,0,0.000000,3,0.000000,0.000000,4.932422,0,0,0,0,0,0,0
9,99999,27,90000,84,60000,1,9999,0.100000,0,0,0.000000,3,1.000000,0.000000,6.150263,0,0,0,0,0,0,0
9,99999,28,90000,84,60000,1,9999,0.100000,0,0,0.000000,3,2.000000,0.000000,4.996859,0,0,0,0,0,0,0
9,99999,29,90000,40,70000,1,9999,0.100000,0,0,0.000000,3,2.000000,0.000000,5.629446,0,0,0,0,0,0,0
9,99999,30,90000,6,40000,1,9999,0.100000,0,0,0.000000,4,7.000000,0.000000,21.650328,0,0,0,0,0,0,0
9,99999,31,90000,6,40000,3,9999,0.100000,0,0,0.000000,4,2.000000,0.000000,10.787279,0,0,1,0,0,0,0
9,99999,32,90000,84,60000,0,9999,0.100000,0,0,0.000000,4,0.000000,0.000000,2.626442,0,0,0,0,0,0,0
9,99999,33,90000,84,60000,1,9999,0.100000,0,0,0.000000,3,4.000000,0.000000,11.649052,0,0,0,0,0,0,0
9,99999,34,90000,84,60000,0,9999,0.100000,0,0,0.000000,3,0.000000,0.000000,0.137283,0,0,0,0,0,0,0
9,99999,35,90000,6,40000,1,9999,0.100000,0,0,0.000000,3,1.000000,0.000000,7.226786,0,0,0,0,0,0,0
9,99999,36,90000,84,60000,0,9999,0.100000,0,0,0.000000,3,0.000000,0.000000,9.161835,0,0,0,0,0,0,0
9,99999,37,90000,84,60000,1,9999,0.100000,0,0,0.000000,4,2.000000,0.000000,9.855553,0,0,0,0,0,0,0
9,99999,38,90000,6,40000,1,9999,0.100000,0,0,0.000000,3,1.000000,0.000000,1.952118,0,0,0,0,0,0,0
9,99999,39,90000,6,40000,0,9999,0.100000,0,0,0.000000,3,0.000000,0.000000,0.140369,0,0,0,0,0,0,0
9,99999,40,90000,40,70000,0,9999,0.100000,0,0,0.000000,4,0.000000,0.000000,0.203643,0,0,0,0,0,0,0
9,99999,41,90000,40,70000,1,9999,0.100000,0,0,0.000000,3,7.000000,0.000000,8.704042,0,0,0,0,0,0,0
9,99999,42,90000,6,40000,1,9999,0.100000,0,0,0.000000,4,2.000000,0.000000,2.846232,0,0,0,0,0,0,0
9,99999,43,90000,84,60000,0,9999,0.100000,0,0,0.000000,3,0.000000,0.000000,1.031301,0,0,0,0,0,0,0
9,99999,44,90000,84,60000,0,9999,0.100000,0,0,0.000000,3,0.000000,0.000000,0.479416,0,0,0,0,0,0,0
9,99999,45,90000,6,40000,0,9999,0.100000,0,0,0.000000,4,0.000000,0.000000,0.136034,0,0,0,0,0,0,0
9,99999,46,90000,6,40000,0,9999,0.100000,0,0,0.000000,4,0.000000,0.000000,3.468987,0,0,0,0,0,0,0
9,99999,47,90000,40,70000,1,9999,0.100000,0,0,0.000000,3,11.000000,0.000000,11.157854,0,0,0,0,0,0,0
9,99999,48,90000,6,40000,1,9999,0.100000,0,0,0.000000,3,3.000000,0.000000,9.181415,0,0,0,0,0,0,0
9,99999,49,90000,6,40000,0,9999,0.100000,0,0,0.000000,4,0.000000,0.000000,1.106942,0,0,0,0,0,0,0
9,99999,50,90000,40,70000,0,9999,0.100000,0,0,0.000000,4,0.000000,0.000000,0.900048,0,0,0,0,0,0,0
9,99999,51,90000,92,80000,0,9999,0.100000,0,0,0.000000,4,0.000000,0.000000,2.020677,0,0,0,0,0,0,0
9,99999,52,90000,40,70000,1,9999,0.100000,0,0,0.000000,4,1.000000,0.000000,9.081284,0,0,0,0,0,0,0
9,99999,53,90000,92,80000,0,9999,0.100000,0,0,0.000000,4,0.000000,0.000000,4.664735,0,0,0,0,0,0,0
9,99999,54,90000,84,60000,1,9999,0.100000,0,0,0.000000,3,2.000000,0.000000,5.048224,0,0,0,0,0,0,0
9,99999,55,90000,40,70000,0,9999,0.100000,0,0,0.000000,4,0.000000,0.000000,6.128409,0,0,0,0,0,0,0
9,99999,56,90000,6,40000,1,9999,0.100000,0,0,0.000000,3,1.000000,0.000000,8.211837,0,0,0,0,0,0,0
9,99999,57,90000,40,70000,0,9999,0.100000,0,0,0.000000,3,0.000000,0.000000,0.137270,0,0,0,0,0,0,0
9,99999,58,90000,6,40000,0,9999,0.100000,0,0,0.000000,4,0.000000,0.000000,0.139267,0,0,0,0,0,0,0
9,99999,59,90000,84,60000,0,9999,0.100000,0,0,0.000000,3,0.000000,0.000000,7.239245,0,0,0,0,0,0,0
9,99999,60,90000,92,80000,0,9999,0.100000,0,0,0.000000,4,0.000000,0.000000,0.819090,0,0,0,0,0,0,0
9,99999,61,90000,40,70000,0,9999,0.100000,0,0,0.000000,3,0.000000,0.000000,2.985449,0,0,0,0,0,0,0
9,99999,62,90000,6,40000,0,9999,0.100000,0,0,0.000000,3,0.000000,0.000000,0.526118,0,0,0,0,0,0,0
9,99999,63,90000,84,60000,1,9999,0.100000,0,0,0.000000,3,6.000000,0.000000,16.027723,0,0,0,0,0,0,0
9,99999,64,90000,6,40000,0,9999,0.100000,0,0,0.000000,3,0.000000,0.000000,2.169767,0,0,0,0,0,0,0
9,99999,65,90000,92,80000,0,9999,0.100000,0,0,0.000000,4,0.000000,0.000000,11.158487,0,0,0,0,0,0,0
9,99999,66,90000,84,60000,0,9999,0.100000,0,0,0.000000,3,0.000000,0.000000,0.088442,0,0,0,0,0,0,0
9,99999,67,90000,92,80000,0,9999,0.100000,0,0,0.000000,4,0.000000,0.000000,1.565888,0,0,0,0,0,0,0
9,99999,68,90000,40,70000,1,9999,0.100000,0,0,0.000000,3,1.000000,0.000000,5.154940,0,0,0,0,0,0,0
9,99999,69,90000,6,40000,0,9999,0.100000,0,0,0.000000,4,0.000000,0.000000,1.490479,0,0,0,0,0,0,0
9,99999,70,90000,92,80000,0,9999,0.135000,0,0,0.000000,4,0.000000,0.000000,1.503538,0,0,0,0,0,0,0
9,99999,71,90000,84,60000,0,9999,0.100000,0,0,0.000000,3,0.000000,0.000000,0.224452,0,0,0,0,0,0,0
9,99999,72,90000,84,60000,1,9999,0.100000,0,0,0.000000,4,2.000000,0.000000,9.208169,0,0,0,0,0,0,0
9,99999,73,90000,84,60000,1,9999,0.100000,0,0,0.000000,3,7.000000,0.000000,8.809924,0,0,0,0,0,0,0
9,99999,74,90000,84,60000,0,9999,0.100000,0,0,0.000000,4,0.000000,0.000000,1.040260,0,0,0,0,0,0,0
9,99999,75,90000,40,70000,0,9999,0.100000,0,0,0.000000,4,0.000000,0.000000,0.136215,0,0,0,0,0,0,0
9,99999,76,90000,40,70000,0,9999,0.100000,0,0,0.000000,3,0.000000,0.000000,4.851368,0,0,0,0,0,0,0
9,99999,77,90000,84,60000,1,9999,0.100000,0,0,0.000000,4,3.000000,0.000000,6.195938,0,0,0,0,0,0,0
9,99999,78,90000,84,60000,0,9999,0.100000,0,0,0.000000,4,0.000000,0.000000,0.082728,0,0,0,0,0,0,0
9,99999,79,90000,40,70000,1,9999,0.100000,0,0,0.000000,3,1.000000,0.000000,7.002989,0,0,0,0,0,0,0
9,99999,80,90000,84,60000,1,9999,0.100000,0,0,0.000000,4,1.000000,0.000000,1.778118,0,0,0,0,0,0,0
9,99999,81,90000,84,60000,1,9999,0.100000,0,0,0.000000,4,7.000000,0.000000,9.289612,0,0,0,0,0,0,0
9,99999,82,90000,84,60000,0,9999,0.100000,0,0,0.000000,4,0.000000,0.000000,0.150293,0,0,0,0,0,0,0
9,99999,83,90000,84,60000,0,9999,0.100000,0,0,0.000000,4,0.000000,0.000000,3.395149,0,0,0,0,0,0,0
9,99999,84,90000,40,70000,0,9999,0.100000,0,0,0.000000,3,0.000000,0.000000,0.234574,0,0,0,0,0,0,0
9,99999,85,90000,6,40000,0,9999,0.100000,0,0,0.000000,4,0.000000,0.000000,1.433007,0,0,0,0,0,0,0
9,99999,86,90000,40,70000,1,9999,0.100000,0,0,0.000000,4,6.000000,0.000000,8.558335,0,0,0,0,0,0,0
9,99999,87,90000,6,40000,0,9999,0.100000,0,0,0.000000,3,0.000000,0.000000,0.806567,0,0,0,0,0,0,0
9,99999,88,90000,6,40000,1,9999,0.100000,0,0,0.000000,4,1.000000,0.000000,1.883417,0,0,0,0,0,0,0
9,99999,89,90000,40,70000,0,9999,0.100000,0,0,0.000000,4,0.000000,0.000000,0.935831,0,0,0,0,0,0,0
9,99999,90,90000,92,80000,0,9999,0.100000,0,0,0.000000,4,0.000000,0.000000,0.874347,0,0,0,0,0,0,0
9,99999,91,90000,92,80000,0,9999,0.100000,0,0,0.000000,4,0.000000,0.000000,0.718569,0,0,0,0,0,0,0
9,99999,92,90000,6,40000,1,9999,0.100000,0,0,0.000000,4,1.000000,0.000000,9.255991,0,0,0,0,0,0,0
9,99999,93,90000,40,70000,1,9999,0.100000,0,0,0.000000,4,1.000000,0.000000,4.755001,0,0,0,0,0,0,0
9,99999,94,90000,92,80000,0,9999,0.100000,0,0,0.000000,4,0.000000,0.000000,7.007826,0,0,0,0,0,0,0
9,99999,95,90000,40,70000,0,9999,0.100000,0,0,0.000000,4,0.000000,0.000000,0.467067,0,0,0,0,0,0,0
9,99999,96,90000,92,80000,0,9999,0.100000,0,0,0.000000,4,0.000000,0.000000,0.093681,0,0,0,0,0,0,0
9,99999,97,90000,6,40000,0,9999,0.100000,0,0,0.000000,4,0.000000,0.000000,1.130988,0,0,0,0,0,0,0
9,99999,98,90000,40,70000,0,9999,0.100000,0,0,0.000000,4,0.000000,0.000000,0.057834,0,0,0,0,0,0,0
9,99999,99,90000,6,40000,1,9999,0.100000,0,0,0.000000,4,1.000000,0.000000,1.793313,0,0,0,0,0,0,0
10,109999,0,100000,40,70000,1,9999,0.100000,0,0,0.000000,4,1.000000,0.000000,5.963234,0,0,0,0,0,0,0
10,109999,1,100000,40,70000,0,9999,0.100000,0,0,0.000000,4,0.000000,0.000000,1.093144,0,0,0,0,0,0,0
10,109999,2,100000,84,60000,1,9999,0.100000,0,0,0.000000,4,2.000000,0.000000,6.761457,0,0,0,0,0,0,0
10,109999,3,100000,40,70000,0,9999,0.100000,0,0,0.000000,4,0.000000,0.000000,6.627966,0,0,0,0,0,0,0
10,109999,4,100000,92,80000,0,9999,0.100000,0,0,0.000000,4,0.000000,0.000000,1.255685,0,0,0,0,0,0,0
10,109999,5,100000,84,60000,1,9999,0.100000,0,0,0.000000,4,1.000000,0.000000,5.949764,0,0,0,0,0,0,0
10,109999,6,100000,92,80000,0,9999,0.100000,0,0,0.000000,4,0.000000,0.000000,2.508495,0,0,0,0,0,0,0
10,109999,7,100000,92,80000,0,9999,0.100000,0,0,0.000000,4,0.000000,0.000000,1.050230,0,0,0,0,0,0,0
10,109999,8,100000,92,80000,0,9999,0.100000,0,0,0.000000,4,0.000000,0.000000,0.987143,0,0,0,0,0,0,0
10,109999,9,100000,92,80000,0,9999,0.100000,0,0,0.000000,4,0.000000,0.000000,0.627008,0,0,0,0,0,0,0
10,109999,10,100000,92,80000,0,9999,0.100000,0,0,0.000000,4,0.000000,0.000000,3.186925,0,0,0,0,0,0,0
10,109999,11,100000,40,70000,0,9999,0.100000,0,0,0.000000,4,0.000000,0.000000,0.966994,0,0,0,0,0,0,0
10,109999,12,100000,6,40000,0,9999,0.100000,0,0,0.000000,4,0.000000,0.000000,0.206599,0,0,0,0,0,0,0
10,109999,13,100000,84,60000,1,9999,0.100000,0,0,0.000000,4,1.000000,0.000000,4.051652,0,0,0,0,0,0,0
10,109999,14,100000,6,40000,1,9999,0.100000,0,0,0.000000,4,2.000000,0.000000,9.646236,0,0,0,0,0,0,0
10,109999,15,100000,92,80000,0,9999,0.100000,0,0,0.000000,4,0.000000,0.000000,0.893490,0,0,0,0,0,0,0
10,109999,16,100000,92,80000,1,9999,0.100000,0,0,0.000000,4,4.000000,0.000000,5.995785,0,0,0,0,0,0,0
10,109999,17,100000,92,80000,0,9999,0.100000,0,0,0.000000,4,0.000000,0.000000,6.608578,0,0,0,0,0,0,0
10,109999,18,100000,40,70000,0,9999,0.100000,0,0,0.000000,4,0.000000,0.000000,0.978507,0,0,0,0,0,0,0
10,109999,19,100000,92,80000,0,9999,0.100000,0,0,0.000000,4,0.000000,0.000000,0.904554,0,0,0,0,0,0,0
10,109999,20,100000,40,70000,0,9999,0.100000,0,0,0.000000,4,0.000000,0.000000,5.904008,0,0,0,0,0,0,0
10,109999,21,100000,92,80000,0,9999,0.100000,0,0,0.000000,4,0.000000,0.000000,1.865356,0,0,0,0,0,0,0
10,109999,22,100000,6,40000,0,9999,0.100000,0,0,0.000000,4,0.000000,0.000000,0.659406,0,0,0,0,0,0,0
10,109999,23,100000,84,60000,0,9999,0.100000,0,0,0.000000,4,0.000000,0.000000,1.767861,0,0,0,0,0,0,0
10,109999,24,100000,6,40000,0,9999,0.100000,0,0,0.000000,4,0.000000,0.000000,1.682929,0,0,0,0,0,0,0
10,109999,25,100000,84,60000,0,9999,0.100000,0,0,0.000000,4,0.000000,0.000000,0.524451,0,0,0,0,0,0,0
10,109999,26,100000,92,80000,0,9999,0.100000,0,0,0.000000,4,0.000000,0.000000,4.904114,0,0,0,0,0,0,0
10,109999,27,100000,92,80000,0,9999,0.100000,0,0,0.000000,4,0.000000,0.000000,2.214611,0,0,0,0,0,0,0
10,109999,28,100000,40,90000,1,9999,0.100000,0,0,0.000000,4,2.000000,0.000000,8.337061,0,0,0,0,0,0,0
10,109999,29,100000,84,60000,1,9999,0.100000,0,0,0.000000,4,2.000000,0.000000,8.560611,0,0,0,0,0,0,0
10,109999,30,100000,84,60000,0,9999,0.100000,0,0,0.000000,4,0.000000,0.000000,0.664419,0,0,0,0,0,0,0
10,109999,31,100000,84,60000,1,9999,0.100000,0,0,0.000000,4,2.000000,0.000000,10.636151,0,0,0,0,0,0,0
10,109999,32,100000,92,80000,0,9999,0.100000,0,0,0.000000,4,0.000000,0.000000,2.692526,0,0,0,0,0,0,0
10,109999,33,100000,84,60000,0,9999,0.100000,0,0,0.000000,4,0.000000,0.000000,1.124415,0,0,0,0,0,0,0
10,109999,34,100000,84,60000,0,9999,0.100000,0,0,0.000000,4,0.000000,0.000000,0.135552,0,0,0,0,0,0,0
10,109999,35,100000,84,60000,0,9999,0.100000,0,0,0.000000,4,0.000000,0.000000,6.206695,0,0,0,0,0,0,0
10,109999,36,100000,84,60000,0,9999,0.100000,0,0,0.000000,4,0.000000,0.000000,6.420489,0,0,0,0,0,0,0
10,109999,37,100000,84,60000,1,9999,0.100000,0,0,0.000000,4,1.000000,0.000000,8.206614,0,0,0,0,0,0,0
10,109999,38,100000,40,90000,1,9999,0.100000,0,0,0.000000,4,1.000000,0.000000,11.418806,0,0,0,0,0,0,0
10,109999,39,100000,6,40000,0,9999,0.100000,0,0,0.000000,4,0.000000,0.000000,0.139746,0,0,0,0,0,0,0
10,109999,40,100000,84,60000,0,9999,0.100000,0,0,0.000000,4,0.000000,0.000000,0.701311,0,0,0,0,0,0,0
10,109999,41,100000,6,40000,1,9999,0.100000,0,0,0.000000,4,14.000000,0.000000,15.219460,0,0,0,0,0,0,0
10,109999,42,100000,92,80000,0,9999,0.100000,0,0,0.000000,4,0.000000,0.000000,0.276828,0,0,0,0,0,0,0
10,109999,43,100000,92,80000,0,9999,0.100000,0,0,0.000000,4,0.000000,0.000000,0.743187,0,0,0,0,0,0,0
10,109999,44,100000,40,70000,1,9999,0.100000,0,0,0.000000,4,1.000000,0.000000,5.886742,0,0,0,0,0,0,0
10,109999,45,100000,6,40000,0,9999,0.100000,0,0,0.000000,4,0.000000,0.000000,0.140230,0,0,0,0,0,0,0
10,109999,46,100000,84,60000,0,9999,0.100000,0,0,0.000000,4,0.000000,0.000000,1.050020,0,0,0,0,0,0,0
10,109999,47,100000,40,90000,0,9999,0.100000,0,0,0.000000,4,0.000000,0.000000,1.751195,0,0,0,0,0,0,0
10,109999,48,100000,84,60000,1,9999,0.100000,0,0,0.000000,4,4.000000,0.000000,12.738112,0,0,0,0,0,0,0
10,109999,49,100000,84,60000,0,9999,0.100000,0,0,0.000000,4,0.000000,0.000000,1.022922,0,0,0,0,0,0,0
10,109999,50,100000,92,80000,0,9999,0.100000,0,0,0.000000,4,0.000000,0.000000,0.810147,0,0,0,0,0,0,0
10,109999,51,100000,92,80000,0,9999,0.100000,0,0,0.000000,4,0.000000,0.000000,0.666424,0,0,0,0,0,0,0
10,109999,52,100000,40,90000,1,9999,0.100000,0,0,0.000000,4,2.000000,0.000000,7.467108,0,0,0,0,0,0,0
10,109999,53,100000,40,70000,0,9999,0.100000,0,0,0.000000,4,0.000000,0.000000,0.661696,0,0,0,0,0,0,0
10,109999,54,100000,84,60000,1,9999,0.100000,0,0,0.000000,4,2.000000,0.000000,4.509584,0,0,0,0,0,0,0
10,109999,55,100000,6,40000,1,9999,0.100000,0,0,0.000000,4,2.000000,0.000000,7.667736,0,0,0,0,0,0,0
10,109999,56,100000,40,90000,0,9999,0.100000,0,0,0.000000,4,0.000000,0.000000,3.803753,0,0,0,0,0,0,0
10,109999,57,100000,40,90000,0,9999,0.100000,0,0,0.000000,4,0.000000,0.000000,0.135530,0,0,0,0,0,0,0
10,109999,58,100000,40,90000,0,9999,0.100000,0,0,0.000000,4,0.000000,0.000000,0.145470,0,0,0,0,0,0,0
10,109999,59,100000,6,40000,0,9999,0.100000,0,0,0.000000,4,0.000000,0.000000,6.392473,0,0,0,0,0,0,0
10,109999,60,100000,92,80000,1,9999,0.100000,0,0,34.210526,4,2.000000,0.000000,7.136955,0,0,0,0,1,0,0
10,109999,61,100000,84,60000,0,9999,0.100000,0,0,0.000000,4,0.000000,0.000000,16.866732,0,0,0,0,0,0,0
10,109999,62,100000,6,40000,0,9999,0.100000,0,0,0.000000,4,0.000000,0.000000,0.469015,0,0,0,0,0,0,0
10,109999,63,100000,84,60000,1,9999,0.100000,0,0,0.000000,4,13.000000,0.000000,20.364084,0,0,0,0,0,0,0
10,109999,64,100000,92,80000,0,9999,0.100000,0,0,0.000000,4,0.000000,0.000000,0.855658,0,0,0,0,0,0,0
10,109999,65,100000,40,90000,0,9999,0.100000,0,0,0.000000,4,0.000000,0.000000,1.766043,0,0,0,0,0,0,0
10,109999,66,100000,84,60000,0,9999,0.100000,0,0,0.000000,4,0.000000,0.000000,1.393484,0,0,0,0,0,0,0
10,109999,67,100000,6,40000,0,9999,0.100000,0,0,0.000000,4,0.000000,0.000000,1.586217,0,0,0,0,0,0,0
10,109999,68,100000,92,80000,1,9999,0.100000,0,0,0.000000,4,2.000000,0.000000,6.710447,0,0,0,0,0,0,0
10,109999,69,100000,40,90000,0,9999,0.100000,0,0,0.000000,4,0.000000,0.000000,1.627316,0,0,0,0,0,0,0
10,109999,70,100000,92,80000,1,9999,0.100000,0,0,0.000000,4,2.000000,0.000000,7.489414,0,0,0,0,0,0,0
10,109999,71,100000,6,40000,0,9999,0.100000,0,0,0.000000,4,0.000000,0.000000,0.415798,0,0,0,0,0,0,0
10,109999,72,100000,6,40000,1,9999,0.100000,0,0,0.000000,4,1.000000,0.000000,8.117255,0,0,0,0,0,0,0
10,109999,73,100000,84,60000,1,9999,0.100000,0,0,0.000000,4,14.000000,0.000000,14.973644,0,0,0,0,0,0,0
10,109999,74,100000,92,80000,0,9999,0.100000,0,0,0.000000,4,0.000000,0.000000,0.520815,0,0,0,0,0,0,0
10,109999,75,100000,40,90000,0,9999,0.100000,0,0,0.000000,4,0.000000,0.000000,0.138465,0,0,0,0,0,0,0
10,109999,76,100000,92,80000,0,9999,0.100000,0,0,0.000000,4,0.000000,0.000000,4.866648,0,0,0,0,0,0,0
10,109999,77,100000,84,60000,1,9999,0.100000,0,0,0.000000,4,2.000000,0.000000,3.733882,0,0,0,0,0,0,0
10,109999,78,100000,84,60000,0,9999,0.100000,0,0,0.000000,4,0.000000,0.000000,0.080775,0,0,0,0,0,0,0
10,109999,79,100000,6,40000,1,9999,0.100000,0,0,0.000000,4,1.000000,0.000000,9.823569,0,0,0,0,0,0,0
10,109999,80,100000,40,90000,0,9999,0.100000,0,0,0.000000,4,0.000000,0.000000,6.200939,0,0,0,0,0,0,0
10,109999,81,100000,84,60000,1,9999,0.100000,0,0,0.000000,4,3.000000,0.000000,5.831551,0,0,0,0,0,0,0
10,109999,82,100000,84,60000,0,9999,0.100000,0,0,0.000000,4,0.000000,0.000000,0.420554,0,0,0,0,0,0,0
10,109999,83,100000,40,90000,0,9999,0.100000,0,0,0.000000,4,0.000000,0.000000,3.579821,0,0,0,0,0,0,0
10,109999,84,100000,84,60000,0,9999,0.100000,0,0,0.000000,4,0.000000,0.000000,0.241141,0,0,0,0,0,0,0
10,109999,85,100000,40,90000,0,9999,0.100000,0,0,0.000000,4,0.000000,0.000000,1.025681,0,0,0,0,0,0,0
10,109999,86,100000,6,40000,1,9999,0.100000,0,0,0.000000,4,14.000000,0.000000,15.109815,0,0,0,0,0,0,0
10,109999,87,100000,40,90000,0,9999,0.100000,0,0,0.000000,4,0.000000,0.000000,1.373042,0,0,0,0,0,0,0
10,109999,88,100000,84,60000,1,9999,0.100000,0,0,0.000000,4,1.000000,0.000000,4.373923,0,0,0,0,0,0,0
10,109999,89,100000,92,80000,1,9999,0.100000,0,0,34.210526,4,2.000000,0.000000,7.561721,0,0,0,0,1,0,0
10,109999,90,100000,84,60000,0,9999,0.100000,0,0,0.000000,4,0.000000,0.000000,0.764336,0,0,0,0,0,0,0
10,109999,91,100000,84,60000,0,9999,0.100000,0,0,0.000000,4,0.000000,0.000000,1.431554,0,0,0,0,0,0,0
10,109999,92,100000,92,80000,1,9999,0.100000,0,0,0.000000,4,2.000000,0.000000,7.771101,0,0,0,0,0,0,0
10,109999,93,100000,92,80000,0,9999,0.100000,0,0,0.000000,4,0.000000,0.000000,3.415172,0,0,0,0,0,0,0
10,109999,94,100000,40,90000,0,9999,0.100000,0,0,0.000000,4,0.000000,0.000000,0.142101,0,0,0,0,0,0,0
10,109999,95,100000,92,80000,0,9999,0.100000,0,0,0.000000,4,0.000000,0.000000,0.432048,0,0,0,0,0,0,0
10,109999,96,100000,84,60000,0,9999,0.100000,0,0,0.000000,4,0.000000,0.000000,0.185824,0,0,0,0,0,0,0
10,109999,97,100000,84,60000,1,9999,0.100000,0,0,34.210526,4,2.000000,0.000000,6.514323,0,0,0,0,1,0,0
10,109999,98,100000,84,60000,0,9999,0.100000,0,0,0.000000,4,0.000000,0.000000,0.058267,0,0,0,0,0,0,0
10,109999,99,100000,84,60000,0,9999,0.100000,0,0,0.000000,4,0.000000,0.000000,2.134802,0,0,0,0,0,0,0
11,119999,0,110000,92,80000,0,9999,0.100000,0,0,0.000000,4,0.000000,0.000000,10.860370,0,0,0,0,0,0,0
11,119999,1,110000,6,40000,0,9999,0.100000,0,0,0.000000,4,0.000000,0.000000,1.032913,0,0,0,0,0,0,0
11,119999,2,110000,40,90000,1,9999,0.100000,0,0,0.000000,4,1.000000,0.000000,3.692513,0,0,0,0,0,0,0
11,119999,3,110000,92,80000,1,9999,0.100000,0,0,0.000000,4,4.000000,0.000000,10.114455,0,0,0,0,0,0,0
11,119999,4,110000,92,80000,0,9999,0.100000,0,0,0.000000,4,0.000000,0.000000,2.022322,0,0,0,0,0,0,0
11,119999,5,110000,92,80000,0,9999,0.100000,0,0,0.000000,4,0.000000,0.000000,0.705086,0,0,0,0,0,0,0
11,119999,6,110000,6,40000,0,9999,0.100000,0,0,0.000000,4,0.000000,0.000000,2.715183,0,0,0,0,0,0,0
11,119999,7,110000,84,60000,0,9999,0.100000,0,0,0.000000,4,0.000000,0.000000,1.580449,0,0,0,0,0,0,0
11,119999,8,110000,84,60000,0,9999,0.100000,0,0,0.000000,4,0.000000,0.000000,1.050325,0,0,0,0,0,0,0
11,119999,9,110000,40,90000,0,9999,0.100000,0,0,0.000000,4,0.000000,0.000000,0.405973,0,0,0,0,0,0,0
11,119999,10,110000,84,60000,1,9999,0.100000,0,0,0.000000,4,2.000000,0.000000,12.111558,0,0,0,0,0,0,0
11,119999,11,110000,84,60000,0,9999,0.100000,0,0,0.000000,4,0.000000,0.000000,1.880398,0,0,0,0,0,0,0
11,119999,12,110000,84,60000,0,9999,0.100000,0,0,0.000000,4,0.000000,0.000000,0.206204,0,0,0,0,0,0,0
11,119999,13,110000,6,40000,0,9999,0.100000,0,0,0.000000,4,0.000000,0.000000,1.656987,0,0,0,0,0,0,0
11,119999,14,110000,40,100000,1,9999,0.100000,0,0,0.000000,4,1.000000,0.000000,5.896589,0,0,0,0,0,0,0
11,119999,15,110000,84,60000,0,9999,0.100000,0,0,0.000000,4,0.000000,0.000000,2.916474,0,0,0,0,0,0,0
11,119999,16,110000,6,40000,0,9999,0.100000,0,0,0.000000,4,0.000000,0.000000,1.260792,0,0,0,0,0,0,0
11,119999,17,110000,6,40000,0,9999,0.100000,0,0,0.000000,4,0.000000,0.000000,5.994559,0,0,0,0,0,0,0
11,119999,18,110000,40,90000,0,9999,0.100000,0,0,0.000000,4,0.000000,0.000000,1.447314,0,0,0,0,0,0,0
11,119999,19,110000,40,90000,0,9999,0.100000,0,0,0.000000,4,0.000000,0.000000,0.803305,0,0,0,0,0,0,0
11,119999,20,110000,40,90000,0,9999,0.100000,0,0,0.000000,4,0.000000,0.000000,2.595292,0,0,0,0,0,0,0
11,119999,21,110000,40,100000,1,9999,0.100000,0,0,0.000000,4,1.000000,0.000000,3.020215,0,0,0,0,0,0,0
11,119999,22,110000,40,90000,0,9999,0.100000,0,0,0.000000,4,0.000000,0.000000,1.121565,0,0,0,0,0,0,0
11,119999,23,110000,40,100000,0,9999,0.100000,0,0,0.000000,4,0.000000,0.000000,1.283921,0,0,0,0,0,0,0
11,119999,24,110000,6,40000,0,9999,0.100000,0,0,0.000000,4,0.000000,0.000000,1.196318,0,0,0,0,0,0,0
11,119999,25,110000,92,80000,0,9999,0.100000,0,0,0.000000,4,0.000000,0.000000,0.477284,0,0,0,0,0,0,0
11,119999,26,110000,84,60000,1,9999,0.100000,0,0,0.000000,4,1.000000,0.000000,3.275926,0,0,0,0,0,0,0
11,119999,27,110000,92,80000,1,9999,0.100000,0,0,0.000000,4,1.000000,0.000000,5.714939,0,0,0,0,0,0,0
11,119999,28,110000,6,40000,0,9999,0.100000,0,0,0.000000,4,0.000000,0.000000,5.057483,0,0,0,0,0,0,0
11,119999,29,110000,92,80000,1,9999,0.100000,0,0,0.000000,4,3.000000,0.000000,8.674464,0,0,0,0,0,0,0
11,119999,30,110000,84,60000,0,9999,0.100000,0,0,0.000000,4,0.000000,0.000000,0.008977,0,0,0,0,0,0,0
11,119999,31,110000,84,60000,1,9999,0.100000,0,0,0.000000,4,4.000000,0.000000,13.240567,0,0,0,0,0,0,0
11,119999,32,110000,92,80000,0,9999,0.100000,0,0,0.000000,4,0.000000,0.000000,1.325075,0,0,0,0,0,0,0
11,119999,33,110000,6,40000,0,9999,0.100000,0,0,0.000000,4,0.000000,0.000000,0.950861,0,0,0,0,0,0,0
11,119999,34,110000,40,90000,0,9999,0.100000,0,0,0.000000,4,0.000000,0.000000,0.140880,0,0,0,0,0,0,0
11,119999,35,110000,84,60000,0,9999,0.100000,0,0,0.000000,4,0.000000,0.000000,4.699062,0,0,0,0,0,0,0
11,119999,36,110000,84,60000,1,9999,0.100000,0,0,0.000000,4,1.000000,0.000000,9.578931,0,0,0,0,0,0,0
11,119999,37,110000,84,60000,1,9999,0.100000,0,0,0.000000,4,1.000000,0.000000,6.516255,0,0,0,0,0,0,0
11,119999,38,110000,40,100000,0,9999,0.100000,0,0,0.000000,4,0.000000,0.000000,0.249536,0,0,0,0,0,0,0
11,119999,39,110000,40,90000,0,9999,0.100000,0,0,0.000000,4,0.000000,0.000000,0.139816,0,0,0,0,0,0,0
11,119999,40,110000,40,100000,0,9999,0.100000,0,0,0.000000,4,0.000000,0.000000,2.530349,0,0,0,0,0,0,0
11,119999,41,110000,84,60000,1,9999,0.100000,0,0,34.210526,4,2.000000,0.000000,10.587960,0,0,0,0,1,0,0
11,119999,42,110000,40,90000,0,9999,0.100000,0,0,0.000000,4,0.000000,0.000000,0.428565,0,0,0,0,0,0,0
11,119999,43,110000,40,100000,0,9999,0.100000,0,0,0.000000,4,0.000000,0.000000,1.815007,0,0,0,0,0,0,0
11,119999,44,110000,84,60000,1,9999,0.065000,0,0,0.000000,4,1.000000,0.000000,4.512968,0,0,0,0,0,0,0
11,119999,45,110000,6,40000,0,9999,0.100000,0,0,0.000000,4,0.000000,0.000000,0.144628,0,0,0,0,0,0,0
11,119999,46,110000,40,90000,0,9999,0.100000,0,0,0.000000,4,0.000000,0.000000,0.316906,0,0,0,0,0,0,0
11,119999,47,110000,92,80000,0,9999,0.100000,0,0,0.000000,4,0.000000,0.000000,2.965919,0,0,0,0,0,0,0
11,119999,48,110000,92,80000,1,9999,0.100000,0,0,0.000000,4,3.000000,0.000000,10.861059,0,0,0,0,0,0,0
11,119999,49,110000,84,60000,1,9999,0.100000,0,0,0.000000,4,1.000000,0.000000,2.740327,0,0,0,0,0,0,0
11,119999,50,110000,6,40000,1,9999,0.100000,0,0,0.000000,4,1.000000,0.000000,1.924405,0,0,0,0,0,0,0
11,119999,51,110000,84,60000,0,9999,0.100000,0,0,0.000000,4,0.000000,0.000000,0.662123,0,0,0,0,0,0,0
11,119999,52,110000,92,80000,0,9999,0.100000,0,0,0.000000,4,0.000000,0.000000,5.177110,0,0,0,0,0,0,0
11,119999,53,110000,6,40000,0,9999,0.100000,0,0,0.000000,4,0.000000,0.000000,0.496996,0,0,0,0,0,0,0
11,119999,54,110000,6,40000,1,9999,0.100000,0,0,0.000000,4,3.000000,0.000000,8.258302,0,0,0,0,0,0,0
11,119999,55,110000,92,80000,1,9999,0.100000,0,0,0.000000,4,1.000000,0.000000,4.116460,0,0,0,0,0,0,0
11,119999,56,110000,40,100000,1,9999,0.100000,0,0,0.000000,4,1.000000,0.000000,5.757420,0,0,0,0,0,0,0
11,119999,57,110000,40,100000,0,9999,0.100000,0,0,0.000000,4,0.000000,0.000000,0.133437,0,0,0,0,0,0,0
11,119999,58,110000,40,90000,0,9999,0.100000,0,0,0.000000,4,0.000000,0.000000,0.141417,0,0,0,0,0,0,0
11,119999,59,110000,40,90000,0,9999,0.100000,0,0,0.000000,4,0.000000,0.000000,2.557589,0,0,0,0,0,0,0
11,119999,60,110000,92,80000,0,9999,0.100000,0,0,0.000000,4,0.000000,0.000000,4.753977,0,0,0,0,0,0,0
11,119999,61,110000,92,80000,1,9999,0.100000,0,0,0.000000,4,7.000000,0.000000,14.465210,0,0,0,0,0,0,0
11,119999,62,110000,84,60000,0,9999,0.100000,0,0,0.000000,4,0.000000,0.000000,2.820739,0,0,0,0,0,0,0
11,119999,63,110000,6,40000,1,9999,0.100000,0,0,0.000000,4,2.000000,0.000000,10.751991,0,0,0,0,0,0,0
11,119999,64,110000,84,60000,0,9999,0.100000,0,0,0.000000,4,0.000000,0.000000,0.847450,0,0,0,0,0,0,0
11,119999,65,110000,40,100000,0,9999,0.100000,0,0,0.000000,4,0.000000,0.000000,6.794643,0,0,0,0,0,0,0
11,119999,66,110000,40,100000,1,9999,0.100000,0,0,0.000000,4,4.000000,0.000000,11.170780,0,0,0,0,0,0,0
11,119999,67,110000,6,40000,1,9999,0.100000,0,0,0.000000,4,1.000000,0.000000,9.024564,0,0,0,0,0,0,0
11,119999,68,110000,40,90000,1,9999,0.100000,0,0,0.000000,4,2.000000,0.000000,4.466394,0,0,0,0,0,0,0
11,119999,69,110000,40,100000,0,9999,0.100000,0,0,0.000000,4,0.000000,0.000000,2.089311,0,0,0,0,0,0,0
11,119999,70,110000,84,60000,0,9999,0.100000,0,0,0.000000,4,0.000000,0.000000,3.906086,0,0,0,0,0,0,0
11,119999,71,110000,6,40000,0,9999,0.100000,0,0,0.000000,4,0.000000,0.000000,0.691442,0,0,0,0,0,0,0
11,119999,72,110000,92,80000,1,9999,0.100000,0,0,0.000000,4,4.000000,0.000000,10.258001,0,0,0,0,0,0,0
11,119999,73,110000,40,90000,1,9999,0.100000,0,0,34.210526,4,2.000000,0.000000,9.751422,0,0,0,0,1,0,0
11,119999,74,110000,84,60000,0,9999,0.100000,0,0,0.000000,4,0.000000,0.000000,0.462155,0,0,0,0,0,0,0
11,119999,75,110000,84,60000,0,9999,0.100000,0,0,0.000000,4,0.000000,0.000000,0.141274,0,0,0,0,0,0,0
11,119999,76,110000,40,90000,1,9999,0.100000,0,0,0.000000,4,1.000000,0.000000,3.067893,0,0,0,0,0,0,0
11,119999,77,110000,84,60000,1,9999,0.100000,0,0,0.000000,4,3.000000,0.000000,6.541175,0,0,0,0,0,0,0
11,119999,78,110000,92,80000,0,9999,0.100000,0,0,0.000000,4,0.000000,0.000000,0.080852,0,0,0,0,0,0,0
11,119999,79,110000,6,40000,1,9999,0.100000,0,0,0.000000,4,1.000000,0.000000,6.292847,0,0,0,0,0,0,0
11,119999,80,110000,92,80000,0,9999,0.135000,0,0,0.000000,4,0.000000,0.000000,0.417351,0,0,0,0,0,0,0
11,119999,81,110000,40,90000,1,9999,0.100000,0,0,0.000000,4,1.000000,0.000000,4.185259,0,0,0,0,0,0,0
11,119999,82,110000,92,80000,0,9999,0.100000,0,0,0.000000,4,0.000000,0.000000,0.487734,0,0,0,0,0,0,0
11,119999,83,110000,92,80000,0,9999,0.100000,0,0,0.000000,4,0.000000,0.000000,3.551644,0,0,0,0,0,0,0
11,119999,84,110000,40,100000,0,9999,0.100000,0,0,0.000000,4,0.000000,0.000000,0.240254,0,0,0,0,0,0,0
11,119999,85,110000,92,80000,0,9999,0.100000,0,0,0.000000,4,0.000000,0.000000,2.001180,0,0,0,0,0,0,0
11,119999,86,110000,84,60000,1,9999,0.100000,0,0,34.210526,4,2.000000,0.000000,9.223606,0,0,0,0,1,0,0
11,119999,87,110000,6,40000,1,9999,0.100000,0,0,0.000000,4,2.000000,0.000000,9.280085,0,0,0,0,0,0,0
11,119999,88,110000,6,40000,0,9999,0.100000,0,0,0.000000,4,0.000000,0.000000,4.906858,0,0,0,0,0,0,0
11,119999,89,110000,84,60000,1,9999,0.100000,0,0,0.000000,4,1.000000,0.000000,4.789078,0,0,0,0,0,0,0
11,119999,90,110000,40,90000,1,9999,0.100000,0,0,0.000000,4,9.000000,0.000000,12.132993,0,0,0,0,0,0,0
11,119999,91,110000,40,100000,0,9999,0.065000,0,0,0.000000,4,0.000000,0.000000,0.697438,0,0,0,0,0,0,0
11,119999,92,110000,40,100000,1,9999,0.100000,0,0,0.000000,4,4.000000,0.000000,8.590239,0,0,0,0,0,0,0
11,119999,93,110000,6,40000,1,9999,0.100000,0,0,0.000000,4,2.000000,0.000000,10.012459,0,0,0,0,0,0,0
11,119999,94,110000,6,40000,0,9999,0.100000,0,0,0.000000,4,0.000000,0.000000,0.147076,0,0,0,0,0,0,0
11,119999,95,110000,92,80000,0,9999,0.100000,0,0,0.000000,4,0.000000,0.000000,0.496853,0,0,0,0,0,0,0
11,119999,96,110000,6,40000,0,9999,0.100000,0,0,0.000000,4,0.000000,0.000000,0.366667,0,0,0,0,0,0,0
11,119999,97,110000,6,40000,1,9999,0.100000,0,0,0.000000,4,2.000000,0.000000,5.373466,0,0,0,0,0,0,0
11,119999,98,110000,84,60000,0,9999,0.100000,0,0,0.000000,4,0.000000,0.000000,0.058246,0,0,0,0,0,0,0
11,119999,99,110000,92,80000,0,9999,0.100000,0,0,0.000000,4,0.000000,0.000000,0.366640,0,0,0,0,0,0,0
12,129999,0,120000,92,80000,0,9999,0.100000,0,0,0.000000,4,0.000000,0.000000,5.257514,0,0,0,0,0,0,0
12,129999,1,120000,84,60000,0,9999,0.100000,0,0,0.000000,4,0.000000,0.000000,0.707473,0,0,0,0,0,0,0
12,129999,2,120000,40,100000,1,9999,0.100000,0,0,0.000000,4,2.000000,0.000000,4.895421,0,0,0,0,0,0,0
12,129999,3,120000,84,60000,1,9999,0.100000,0,0,0.000000,4,4.000000,0.000000,9.749096,0,0,0,0,0,0,0
12,129999,4,120000,81,110000,0,9999,0.100000,0,0,0.000000,4,0.000000,0.000000,0.374432,0,0,0,0,0,0,0
12,129999,5,120000,40,100000,0,9999,0.100000,0,0,0.000000,4,0.000000,0.000000,2.031329,0,0,0,0,0,0,0
12,129999,6,120000,84,60000,1,9999,0.100000,0,0,0.000000,4,1.000000,0.000000,2.304985,0,0,0,0,0,0,0
12,129999,7,120000,81,110000,1,9999,0.100000,0,0,0.000000,4,1.000000,0.000000,8.935936,0,0,0,0,0,0,0
12,129999,8,120000,92,80000,0,9999,0.100000,0,0,0.000000,4,0.000000,0.000000,1.052043,0,0,0,0,0,0,0
12,129999,9,120000,92,80000,0,9999,0.100000,0,0,0.000000,4,0.000000,0.000000,2.219652,0,0,0,0,0,0,0
12,129999,10,120000,92,80000,1,9999,0.100000,0,0,0.000000,4,1.000000,0.000000,5.345814,0,0,0,0,0,0,0
12,129999,11,120000,92,80000,1,9999,0.100000,0,0,0.000000,4,1.000000,0.000000,3.743249,0,0,0,0,0,0,0
12,129999,12,120000,40,100000,0,9999,0.100000,0,0,0.000000,4,0.000000,0.000000,0.210922,0,0,0,0,0,0,0
12,129999,13,120000,92,80000,0,9999,0.100000,0,0,0.000000,4,0.000000,0.000000,2.288962,0,0,0,0,0,0,0
12,129999,14,120000,84,60000,1,9999,0.100000,0,0,0.000000,4,1.000000,0.000000,8.595665,0,0,0,0,0,0,0
12,129999,15,120000,6,40000,1,9999,0.100000,0,0,0.000000,4,1.000000,0.000000,5.925499,0,0,0,0,0,0,0
12,129999,16,120000,6,40000,0,9999,0.100000,0,0,0.000000,4,0.000000,0.000000,0.142154,0,0,0,0,0,0,0
12,129999,17,120000,6,40000,0,9999,0.100000,0,0,0.000000,4,0.000000,0.000000,7.581256,0,0,0,0,0,0,0
12,129999,18,120000,6,40000,1,9999,0.100000,0,0,0.000000,4,1.000000,0.000000,4.835727,0,0,0,0,0,0,0
12,129999,19,120000,84,60000,0,9999,0.100000,0,0,0.000000,4,0.000000,0.000000,0.753350,0,0,0,0,0,0,0
12,129999,20,120000,6,40000,0,9999,0.100000,0,0,0.000000,4,0.000000,0.000000,4.537214,0,0,0,0,0,0,0
12,129999,21,120000,92,80000,0,9999,0.100000,0,0,0.000000,4,0.000000,0.000000,0.920878,0,0,0,0,0,0,0
12,129999,22,120000,40,100000,1,9999,0.100000,0,0,0.000000,4,1.000000,0.000000,2.142316,0,0,0,0,0,0,0
12,129999,23,120000,92,80000,0,9999,0.100000,0,0,0.000000,4,0.000000,0.000000,0.963875,0,0,0,0,0,0,0
12,129999,24,120000,81,110000,0,9999,0.100000,0,0,0.000000,4,0.000000,0.000000,1.569586,0,0,0,0,0,0,0
12,129999,25,120000,92,80000,0,9999,0.100000,0,0,0.000000,4,0.000000,0.000000,2.243410,0,0,0,0,0,0,0
12,129999,26,120000,6,40000,1,9999,0.100000,0,0,0.000000,4,2.000000,0.000000,9.220225,0,0,0,0,0,0,0
12,129999,27,120000,84,60000,0,9999,0.100000,0,0,0.000000,4,0.000000,0.000000,7.316104,0,0,0,0,0,0,0
12,129999,28,120000,81,110000,1,9999,0.100000,0,0,0.000000,4,1.000000,0.000000,4.611168,0,0,0,0,0,0,0
12,129999,29,120000,40,100000,1,9999,0.100000,0,0,0.000000,4,4.000000,0.000000,11.275542,0,0,0,0,0,0,0
12,129999,30,120000,92,80000,0,9999,0.100000,0,0,0.000000,4,0.000000,0.000000,0.009010,0,0,0,0,0,0,0
12,129999,31,120000,84,60000,1,9999,0.100000,0,0,0.000000,4,1.000000,0.000000,2.630238,0,0,0,0,0,0,0
12,129999,32,120000,40,100000,0,9999,0.100000,0,0,0.000000,4,0.000000,0.000000,2.991222,0,0,0,0,0,0,0
