generation,iteration,robot,birthday,ancestor_id,ancestor_birthday,cell_id,age,sigma,maps,genomes,fitness,cells_in_map,dist_max,dist_pot_max,dist_total,com_rx,com_tx,obj_group1,obj_group2,obj_group3,obj_group4,obj_group5
0,9999,0,0,0,0,40,9999,0.100000,99,0,0.000000,0,2.000000,27.773013,6.263826,99,99,0,0,0,0,0
0,9999,1,0,1,0,0,9999,0.100000,99,0,0.000000,0,2.000000,32.983690,4.918610,99,99,0,0,1,0,0
0,9999,2,0,2,0,40,9999,0.100000,99,0,0.000000,0,1.000000,27.445057,6.197953,99,99,0,0,0,0,0
0,9999,3,0,3,0,90,9999,0.100000,99,0,11.299522,0,1.000000,27.293929,10.581044,99,99,1,0,0,0,0
0,9999,4,0,4,0,0,9999,0.100000,99,0,0.078270,0,0.000000,31.727862,0.508205,99,99,0,1,0,0,0
0,9999,5,0,5,0,42,9999,0.100000,99,0,0.000000,0,4.000000,17.840918,18.648062,99,99,0,0,0,0,0
0,9999,6,0,6,0,95,9999,0.100000,99,0,91.285075,0,16.000000,25.703503,24.528362,99,99,1,0,0,0,0
0,9999,7,0,7,0,93,9999,0.100000,99,0,57.728818,0,11.000000,28.402445,20.268490,99,99,1,0,0,0,0
0,9999,8,0,8,0,43,9999,0.100000,99,0,0.000000,0,8.000000,19.363760,13.688340,99,99,0,0,0,0,0
0,9999,9,0,9,0,97,9999,0.100000,99,0,74.762586,0,15.000000,19.808160,19.032760,99,99,1,0,0,0,0
0,9999,10,0,10,0,41,9999,0.100000,99,0,0.000000,0,3.000000,16.390618,16.001340,99,99,0,0,0,0,0
0,9999,11,0,11,0,91,9999,0.100000,99,0,35.969801,0,6.000000,28.619613,15.443292,99,99,1,0,0,0,0
0,9999,12,0,12,0,40,9999,0.100000,99,0,0.000000,0,1.000000,25.132085,8.976957,99,99,0,0,0,0,0
0,9999,13,0,13,0,94,9999,0.100000,99,0,64.510436,0,10.000000,21.977479,19.323662,99,99,1,0,0,0,0
0,9999,14,0,14,0,41,9999,0.100000,99,0,0.000000,0,5.000000,24.698640,11.805803,99,99,0,0,0,0,0
0,9999,15,0,15,0,93,9999,0.100000,99,0,40.587406,0,8.000000,20.225947,12.212813,99,99,1,0,0,0,0
0,9999,16,0,16,0,41,9999,0.100000,99,0,0.000000,0,5.000000,26.036521,8.712368,99,99,0,0,0,0,0
0,9999,17,0,17,0,46,9999,0.100000,99,0,0.000000,0,16.000000,25.140013,21.643495,99,99,0,0,0,0,0
0,9999,18,0,18,0,0,9999,0.100000,99,0,0.001876,0,0.000000,27.837320,1.954374,99,99,0,0,0,1,0
0,9999,19,0,19,0,40,9999,0.100000,99,0,0.000000,0,2.000000,27.965523,10.175315,99,99,0,0,0,0,0
0,9999,20,0,20,0,40,9999,0.100000,99,0,0.000000,0,2.000000,29.289894,9.415145,99,99,0,0,0,0,0
0,9999,21,0,21,0,44,9999,0.100000,99,0,0.000000,0,14.000000,26.936647,19.642736,99,99,0,0,0,0,0
0,9999,22,0,22,0,0,9999,0.100000,99,0,0.022262,0,0.000000,20.030454,0.547289,99,99,0,0,0,0,1
0,9999,23,0,23,0,91,9999,0.100000,99,0,14.791709,0,3.000000,26.611141,6.955589,99,99,1,0,0,0,0
0,9999,24,0,24,0,97,9999,0.100000,99,0,87.214788,0,17.000000,20.855874,22.942160,99,99,1,0,0,0,0
0,9999,25,0,25,0,40,9999,0.100000,99,0,0.000000,0,2.000000,19.716995,10.081037,99,99,0,0,0,0,0
0,9999,26,0,26,0,40,9999,0.100000,99,0,0.000000,0,2.000000,24.436759,5.164281,99,99,0,0,0,0,0
0,9999,27,0,27,0,0,9999,0.100000,99,0,0.171429,0,0.000000,21.269871,1.640141,99,99,0,0,0,1,0
0,9999,28,0,28,0,41,9999,0.100000,99,0,0.000000,0,4.000000,23.861097,9.216505,99,99,0,0,0,0,0
0,9999,29,0,29,0,40,9999,0.100000,99,0,0.000000,0,1.000000,19.121952,13.152590,99,99,0,0,0,0,0
0,9999,30,0,30,0,40,9999,0.100000,99,0,22.024800,0,3.000000,28.722446,10.017909,99,99,0,0,0,0,0
0,9999,31,0,31,0,40,9999,0.100000,99,0,0.000000,0,1.000000,26.249615,8.798174,99,99,0,0,0,0,0
0,9999,32,0,32,0,40,9999,0.100000,99,0,0.000000,0,3.000000,30.530221,12.403802,99,99,0,0,0,0,0
0,9999,33,0,33,0,42,9999,0.100000,99,0,0.000000,0,5.000000,15.984146,9.700020,99,99,0,0,0,0,0
0,9999,34,0,34,0,40,9999,0.100000,99,0,0.000000,0,2.000000,25.634897,11.564315,99,99,0,0,0,0,0
0,9999,35,0,35,0,40,9999,0.100000,99,0,0.000000,0,1.000000,19.152595,6.531406,99,99,0,0,0,0,0
0,9999,36,0,36,0,41,9999,0.100000,99,0,0.000000,0,3.000000,15.053712,9.099933,99,99,0,0,0,0,0
0,9999,37,0,37,0,40,9999,0.100000,99,0,0.000000,0,1.000000,27.321952,4.168987,99,99,0,0,0,0,0
0,9999,38,0,38,0,42,9999,0.100000,99,0,0.000000,0,4.000000,15.015974,11.756220,99,99,0,0,0,0,0
0,9999,39,0,39,0,40,9999,0.100000,99,0,0.000000,0,1.000000,17.376313,6.456487,99,99,0,0,0,0,0
0,9999,40,0,40,0,40,9999,0.100000,99,0,0.000000,0,1.000000,26.794344,8.484504,99,99,0,0,0,0,0
0,9999,41,0,41,0,41,9999,0.100000,99,0,0.000000,0,3.000000,26.513025,18.385925,99,99,0,0,0,0,0
0,9999,42,0,42,0,0,9999,0.100000,99,0,0.167675,0,0.000000,23.011533,0.626219,99,99,0,1,0,0,0
0,9999,43,0,43,0,40,9999,0.100000,99,0,0.000000,0,0.000000,27.304624,2.415436,99,99,0,0,0,0,0
0,9999,44,0,44,0,41,9999,0.100000,99,0,0.000000,0,3.000000,16.300793,7.820059,99,99,0,0,0,0,0
0,9999,45,0,45,0,41,9999,0.100000,99,0,0.000000,0,3.000000,23.862179,12.079920,99,99,0,0,0,0,0
0,9999,46,0,46,0,93,9999,0.100000,99,0,31.859461,0,7.000000,21.574109,15.098612,99,99,1,0,0,0,0
0,9999,47,0,47,0,41,9999,0.100000,99,0,0.000000,0,2.000000,13.721558,15.694660,99,99,0,0,0,0,0
0,9999,48,0,48,0,94,9999,0.100000,99,0,45.256466,0,10.000000,23.403358,19.372922,99,99,1,0,0,0,0
0,9999,49,0,49,0,40,9999,0.100000,99,0,0.000000,0,1.000000,31.900913,6.900111,99,99,0,0,0,0,0
0,9999,50,0,50,0,41,9999,0.100000,99,0,0.000000,0,4.000000,21.217843,16.956913,99,99,0,0,0,0,0
0,9999,51,0,51,0,41,9999,0.100000,99,0,0.000000,0,4.000000,26.641214,12.830245,99,99,0,0,0,0,0
0,9999,52,0,52,0,40,9999,0.100000,99,0,0.000000,0,0.000000,30.278067,1.618722,99,99,0,0,0,0,0
0,9999,53,0,53,0,40,9999,0.100000,99,0,0.000000,0,1.000000,25.086418,7.002839,99,99,0,0,0,0,0
0,9999,54,0,54,0,40,9999,0.100000,99,0,0.000000,0,1.000000,28.253767,7.782628,99,99,0,0,0,0,0
0,9999,55,0,55,0,90,9999,0.100000,99,0,12.325355,0,1.000000,27.123084,6.890980,99,99,1,0,0,0,0
0,9999,56,0,56,0,1,9999,0.100000,99,0,22.056284,0,4.000000,27.065169,9.848624,99,99,0,1,0,0,0
0,9999,57,0,57,0,40,9999,0.100000,99,0,0.000000,0,0.000000,18.070936,9.366067,99,99,0,0,0,0,0
0,9999,58,0,58,0,0,9999,0.100000,99,0,0.054748,0,3.000000,32.717835,7.159081,99,99,0,1,0,0,0
0,9999,59,0,59,0,40,9999,0.100000,99,0,0.000000,0,1.000000,26.443844,5.484943,99,99,0,0,0,0,0
0,9999,60,0,60,0,41,9999,0.100000,99,0,0.000000,0,4.000000,29.897990,16.379043,99,99,0,0,0,0,0
0,9999,61,0,61,0,40,9999,0.100000,99,0,0.000000,0,1.000000,26.401219,12.122763,99,99,0,0,0,0,0
0,9999,62,0,62,0,40,9999,0.100000,99,0,0.000000,0,0.000000,30.288174,13.539514,99,99,0,0,0,0,0
0,9999,63,0,63,0,94,9999,0.100000,99,0,64.852759,0,11.000000,25.161135,20.131696,99,99,2,0,0,0,0
0,9999,64,0,64,0,40,9999,0.100000,99,0,0.000000,0,0.000000,21.985408,23.616492,99,99,0,0,0,0,0
0,9999,65,0,65,0,0,9999,0.100000,99,0,0.568771,0,0.000000,27.048461,3.485715,99,99,0,0,0,0,1
0,9999,66,0,66,0,40,9999,0.100000,99,0,0.000000,0,2.000000,29.860010,13.889320,99,99,0,0,0,0,0
0,9999,67,0,67,0,91,9999,0.100000,99,0,26.016250,0,5.000000,23.905395,12.636836,99,99,1,0,0,0,0
0,9999,68,0,68,0,41,9999,0.100000,99,0,0.000000,0,2.000000,17.638063,20.911259,99,99,0,0,0,0,0
0,9999,69,0,69,0,40,9999,0.100000,99,0,0.000000,0,2.000000,27.861971,6.324028,99,99,0,0,0,0,0
0,9999,70,0,70,0,0,9999,0.100000,99,0,0.026243,0,0.000000,29.759048,1.744836,99,99,0,0,0,1,0
0,9999,71,0,71,0,40,9999,0.100000,99,0,0.000000,0,1.000000,29.325630,2.966000,99,99,0,0,0,0,0
0,9999,72,0,72,0,41,9999,0.100000,99,0,0.000000,0,5.000000,26.144658,10.709613,99,99,0,0,0,0,0
0,9999,73,0,73,0,41,9999,0.100000,99,0,0.000000,0,4.000000,23.778607,14.551344,99,99,0,0,0,0,0
0,9999,74,0,74,0,40,9999,0.100000,99,0,0.000000,0,0.000000,27.638594,8.648823,99,99,0,0,0,0,0
0,9999,75,0,75,0,40,9999,0.100000,99,0,0.000000,0,2.000000,28.309833,11.985144,99,99,0,0,0,0,0
0,9999,76,0,76,0,0,9999,0.100000,99,0,0.022320,0,0.000000,22.316655,0.394259,99,99,0,0,0,1,0
0,9999,77,0,77,0,0,9999,0.100000,99,0,0.136317,0,1.000000,30.461916,4.002874,99,99,0,0,0,0,1
0,9999,78,0,78,0,40,9999,0.100000,99,0,0.000000,0,1.000000,29.416488,5.358284,99,99,0,0,0,0,0
0,9999,79,0,79,0,40,9999,0.100000,99,0,0.000000,0,1.000000,28.886238,14.737014,99,99,0,0,0,0,0
0,9999,80,0,80,0,40,9999,0.100000,99,0,0.000000,0,1.000000,34.755201,14.588956,99,99,0,0,0,0,0
0,9999,81,0,81,0,0,9999,0.100000,99,0,0.475003,0,1.000000,18.542248,2.192006,99,99,0,0,0,0,1
0,9999,82,0,82,0,40,9999,0.100000,99,0,0.000000,0,1.000000,19.284934,4.893433,99,99,0,0,0,0,0
0,9999,83,0,83,0,40,9999,0.100000,99,0,0.000000,0,0.000000,29.804040,0.590793,99,99,0,0,0,0,0
0,9999,84,0,84,0,41,9999,0.100000,99,0,0.000000,0,3.000000,17.424958,14.271215,99,99,0,0,0,0,0
0,9999,85,0,85,0,40,9999,0.100000,99,0,0.000000,0,0.000000,33.048211,1.358729,99,99,0,0,0,0,0
0,9999,86,0,86,0,40,9999,0.100000,99,0,0.000000,0,1.000000,21.527792,6.103295,99,99,0,0,0,0,0
0,9999,87,0,87,0,41,9999,0.100000,99,0,28.417302,0,4.000000,24.615403,7.931918,99,99,1,0,0,1,0
0,9999,88,0,88,0,40,9999,0.100000,99,0,0.000000,0,2.000000,28.004999,9.057406,99,99,0,0,0,0,0
0,9999,89,0,89,0,40,9999,0.100000,99,0,0.000000,0,1.000000,27.297688,3.690032,99,99,0,0,0,0,0
0,9999,90,0,90,0,97,9999,0.100000,99,0,77.034997,0,15.000000,18.523497,24.206001,99,99,1,0,0,0,0
0,9999,91,0,91,0,40,9999,0.100000,99,0,0.000000,0,0.000000,17.427651,9.957973,99,99,0,0,0,0,0
0,9999,92,0,92,0,0,9999,0.100000,99,0,0.165271,0,0.000000,17.134423,0.607333,99,99,0,0,1,0,0
0,9999,93,0,93,0,0,9999,0.100000,99,0,0.708966,0,0.000000,18.628441,1.099032,99,99,0,0,1,0,0
0,9999,94,0,94,0,42,9999,0.100000,99,0,0.000000,0,3.000000,10.854401,5.869119,99,99,0,0,0,0,0
0,9999,95,0,95,0,0,9999,0.100000,99,0,0.338589,0,0.000000,15.682429,0.799430,99,99,0,0,0,0,1
0,9999,96,0,96,0,40,9999,0.100000,99,0,0.000000,0,0.000000,25.624660,5.301049,99,99,0,0,0,0,0
0,9999,97,0,97,0,43,9999,0.100000,99,0,0.000000,0,5.000000,12.475884,14.767785,99,99,0,0,0,0,0
0,9999,98,0,98,0,40,9999,0.100000,99,0,0.000000,0,1.000000,24.013208,6.752619,99,99,0,0,0,0,0
0,9999,99,0,99,0,40,9999,0.100000,99,0,0.000000,0,0.000000,16.609841,3.516429,99,99,0,0,0,0,0
1,19999,0,10000,0,0,40,9999,0.100000,99,0,0.000000,1,1.000000,25.907112,6.188935,99,99,0,0,0,0,0
1,19999,1,10000,55,0,40,9999,0.100000,99,0,0.000000,10,2.000000,32.901378,5.661627,99,99,0,0,0,0,0
1,19999,2,10000,14,0,40,9999,0.100000,99,0,0.000000,6,2.000000,27.220110,6.493442,99,99,0,0,0,0,0
1,19999,3,10000,93,0,90,9999,0.100000,99,0,0.000000,11,1.000000,28.008513,10.902780,99,99,1,0,0,0,0
1,19999,4,10000,52,0,0,9999,0.100000,99,0,0.088741,10,0.000000,31.871118,0.557968,99,99,0,1,0,0,0
1,19999,5,10000,7,0,40,9999,0.100000,99,0,0.000000,10,1.000000,20.578020,6.323519,99,99,0,0,0,0,0
1,19999,6,10000,19,0,90,9999,0.100000,99,0,21.578239,4,3.000000,33.560264,19.442268,99,99,1,0,0,0,0
1,19999,7,10000,7,0,40,9999,0.100000,99,0,0.000000,8,1.000000,36.045424,5.551949,99,99,0,0,0,0,0
1,19999,8,10000,8,0,6,9999,0.100000,99,0,0.046633,5,9.000000,13.900225,10.049850,99,99,0,0,0,0,1
1,19999,9,10000,7,0,40,9999,0.100000,99,0,0.000000,8,1.000000,30.444023,9.671050,99,99,0,0,0,0,0
1,19999,10,10000,10,0,40,9999,0.100000,99,0,0.000000,7,0.000000,17.307357,10.339898,99,99,0,0,0,0,0
1,19999,11,10000,16,0,40,9999,0.100000,99,0,0.000000,10,0.000000,34.659115,11.214228,99,99,0,0,0,0,0
1,19999,12,10000,7,0,40,9999,0.100000,99,0,0.000000,12,1.000000,25.295603,8.675349,99,99,0,0,0,0,0
1,19999,13,10000,21,0,90,9999,0.100000,99,0,15.476183,14,3.000000,29.017403,9.232240,99,99,1,0,0,0,0
1,19999,14,10000,14,0,0,9999,0.100000,99,0,19.142291,5,2.000000,19.323498,6.800574,99,99,0,0,1,0,0
1,19999,15,10000,14,0,40,9999,0.100000,99,0,0.000000,13,2.000000,28.087270,5.678277,99,99,0,0,0,0,0
1,19999,16,10000,16,0,40,9999,0.100000,99,0,0.000000,8,0.000000,26.796773,1.009857,99,99,0,0,0,0,0
1,19999,17,10000,17,0,90,9999,0.100000,99,0,84.390555,15,2.000000,33.162141,5.281695,99,99,1,0,0,0,0
1,19999,18,10000,8,0,0,9999,0.100000,99,0,0.057348,6,0.000000,27.342991,0.118057,99,99,0,0,0,1,0
1,19999,19,10000,19,0,40,9999,0.100000,99,0,0.000000,2,1.000000,28.268543,7.173549,99,99,0,0,0,0,0
1,19999,20,10000,52,0,40,9999,0.100000,99,0,0.000000,6,1.000000,29.371830,4.528311,99,99,0,0,0,0,0
1,19999,21,10000,63,0,95,9999,0.100000,99,0,54.764270,14,10.000000,17.863557,14.053345,99,99,1,0,0,0,0
1,19999,22,10000,52,0,40,9999,0.100000,99,0,0.000000,8,0.000000,20.265989,0.776752,99,99,0,0,0,0,0
1,19999,23,10000,8,0,40,9999,0.100000,99,0,0.000000,10,0.000000,29.409496,4.945944,99,99,0,0,0,-1,0
1,19999,24,10000,87,0,41,9999,0.100000,99,0,0.000000,13,4.000000,31.115549,14.259783,99,99,0,0,0,0,0
1,19999,25,10000,8,0,40,9999,0.100000,99,0,0.000000,8,2.000000,19.239530,5.889219,99,99,0,0,0,0,0
1,19999,26,10000,6,0,40,9999,0.100000,99,0,0.000000,8,1.000000,22.198190,12.603547,99,99,0,0,0,0,0
1,19999,27,10000,87,0,0,9999,0.100000,99,0,0.142867,15,0.000000,20.850089,0.167451,99,99,0,0,0,1,0
1,19999,28,10000,14,0,40,9999,0.100000,99,0,0.000000,12,2.000000,27.953513,6.953559,99,99,0,0,0,0,0
1,19999,29,10000,52,0,41,9999,0.100000,99,0,0.000000,8,2.000000,18.547385,6.587280,99,99,0,0,0,0,0
1,19999,30,10000,56,0,42,9999,0.100000,99,0,0.000000,13,7.000000,29.484030,11.723102,99,99,0,0,0,0,0
1,19999,31,10000,7,0,41,9999,0.100000,99,0,0.000000,8,4.000000,26.521977,11.605648,99,99,0,0,0,0,0
1,19999,32,10000,7,0,0,9999,0.100000,99,0,0.186617,10,0.000000,33.097916,0.268068,99,99,0,0,0,0,1
1,19999,33,10000,33,0,40,9999,0.100000,99,0,0.000000,2,0.000000,20.608086,0.399934,99,99,0,0,0,0,0
1,19999,34,10000,6,0,40,9999,0.100000,99,0,0.000000,13,0.000000,27.098552,16.019628,99,99,0,0,0,0,0
1,19999,35,10000,93,0,0,9999,0.100000,99,0,0.104929,12,0.000000,19.495556,2.567014,99,99,0,0,0,0,1
1,19999,36,10000,93,0,40,9999,0.100000,99,0,0.000000,8,1.000000,15.593646,8.104795,99,99,0,0,0,0,0
1,19999,37,10000,55,0,40,9999,0.100000,99,0,0.000000,13,2.000000,25.724157,5.899609,99,99,0,0,0,0,0
1,19999,38,10000,87,0,99,9999,0.100000,99,0,79.506096,15,15.000000,12.767688,18.905443,99,99,1,0,0,0,0
1,19999,39,10000,16,0,40,9999,0.100000,99,0,0.000000,10,1.000000,16.477909,16.628201,99,99,0,0,0,0,0
1,19999,40,10000,56,0,40,9999,0.100000,99,0,0.000000,10,2.000000,28.223959,11.563797,99,99,0,0,0,0,0
1,19999,41,10000,93,0,41,9999,0.100000,99,0,0.000000,12,3.000000,25.856102,13.179896,99,99,0,0,0,0,0
1,19999,42,10000,6,0,0,9999,0.100000,99,0,0.185203,6,0.000000,23.176136,0.172775,99,99,0,1,0,0,0
1,19999,43,10000,11,0,0,9999,0.100000,99,0,0.126543,13,0.000000,27.032079,0.830545,99,99,0,0,0,0,1
1,19999,44,10000,14,0,42,9999,0.100000,99,0,0.000000,12,4.000000,15.541386,11.085653,99,99,0,0,0,0,0
1,19999,45,10000,93,0,0,9999,0.100000,99,0,6.211351,8,2.000000,25.504231,4.631151,99,99,0,1,0,0,0
1,19999,46,10000,16,0,41,9999,0.100000,99,0,0.000000,14,3.000000,28.385138,13.918821,99,99,0,0,0,0,0
1,19999,47,10000,8,0,42,9999,0.100000,99,0,0.000000,10,3.000000,10.830143,9.764321,99,99,0,0,0,0,0
1,19999,48,10000,7,0,40,9999,0.100000,99,0,0.000000,15,3.000000,30.201093,13.076932,99,99,0,0,0,0,0
1,19999,49,10000,11,0,40,9999,0.100000,99,0,0.000000,10,0.000000,32.700668,0.963210,99,99,0,0,0,0,0
1,19999,50,10000,23,0,40,9999,0.100000,99,0,0.000000,12,1.000000,18.366969,5.221805,99,99,0,0,0,0,0
1,19999,51,10000,8,0,40,9999,0.100000,99,0,0.000000,15,3.000000,31.024969,8.167519,99,99,0,0,0,0,0
1,19999,52,10000,52,0,40,9999,0.100000,99,0,0.000000,6,0.000000,30.654911,0.985724,99,99,0,0,0,0,0
1,19999,53,10000,16,0,40,9999,0.100000,99,0,0.000000,8,2.000000,24.532357,20.763734,99,99,0,0,0,0,0
1,19999,54,10000,93,0,41,9999,0.100000,99,0,0.000000,10,3.000000,26.868497,17.239145,99,99,0,0,0,0,0
1,19999,55,10000,14,0,41,9999,0.100000,99,0,0.000000,10,3.000000,28.194901,12.540846,99,99,0,0,0,0,0
1,19999,56,10000,14,0,40,9999,0.100000,99,0,0.000000,9,0.000000,29.677677,1.603896,99,99,0,0,0,0,0
1,19999,57,10000,24,0,41,9999,0.100000,99,0,0.000000,14,2.000000,18.349305,5.814204,99,99,0,0,0,0,0
1,19999,58,10000,11,0,0,9999,0.100000,99,0,0.102781,10,0.000000,29.854021,0.144195,99,99,0,1,0,0,0
1,19999,59,10000,24,0,40,9999,0.100000,99,0,0.000000,13,2.000000,25.432689,4.387525,99,99,0,0,0,0,0
1,19999,60,10000,67,0,40,9999,0.100000,99,0,0.000000,10,2.000000,27.614258,9.565935,99,99,0,0,0,0,0
1,19999,61,10000,21,0,40,9999,0.100000,99,0,0.000000,14,0.000000,25.748657,4.543814,99,99,0,0,0,0,0
1,19999,62,10000,56,0,40,9999,0.100000,99,0,0.000000,13,3.000000,30.327629,13.297782,99,99,0,0,0,0,0
1,19999,63,10000,7,0,90,9999,0.100000,99,0,3.389657,11,1.000000,31.999006,19.881322,99,99,1,0,0,0,0
1,19999,64,10000,52,0,40,9999,0.100000,99,0,0.000000,6,0.000000,21.909558,23.938619,99,99,0,0,0,0,0
1,19999,65,10000,93,0,40,9999,0.100000,99,0,0.000000,14,0.000000,26.813646,3.386972,99,99,0,0,0,0,0
1,19999,66,10000,56,0,40,9999,0.100000,99,0,0.000000,13,2.000000,30.591880,9.562262,99,99,0,0,0,0,0
1,19999,67,10000,67,0,90,9999,0.100000,99,0,13.481896,3,2.000000,28.381137,18.818978,99,99,1,0,0,0,0
1,19999,68,10000,24,0,40,9999,0.100000,99,0,0.000000,13,0.000000,16.153927,22.912574,99,99,0,0,0,0,0
1,19999,69,10000,14,0,40,9999,0.100000,99,0,0.000000,10,2.000000,25.656964,8.260108,99,99,0,0,0,0,0
1,19999,70,10000,16,0,0,9999,0.100000,99,0,0.442190,10,0.000000,29.754459,0.138375,99,99,0,0,0,1,0
1,19999,71,10000,16,0,40,9999,0.100000,99,0,0.000000,11,0.000000,27.701289,0.402419,99,99,0,0,0,0,0
1,19999,72,10000,6,0,0,9999,0.100000,99,0,0.033804,10,0.000000,27.754366,6.849211,99,99,0,0,0,1,0
1,19999,73,10000,8,0,41,9999,0.100000,99,0,0.000000,10,3.000000,21.453232,7.475273,99,99,0,0,0,0,0
1,19999,74,10000,8,0,40,9999,0.100000,99,0,0.000000,13,2.000000,26.783060,10.930641,99,99,0,0,0,0,0
1,19999,75,10000,7,0,40,9999,0.100000,99,0,0.000000,13,3.000000,30.047526,6.775401,99,99,0,0,0,0,0
1,19999,76,10000,14,0,0,9999,0.100000,99,0,0.059287,6,0.000000,22.451205,0.222776,99,99,0,0,0,1,0
1,19999,77,10000,55,0,40,9999,0.100000,99,0,0.000000,15,0.000000,32.235039,0.158682,99,99,0,0,0,0,0
1,19999,78,10000,11,0,40,9999,0.100000,99,0,0.000000,11,1.000000,31.041031,7.265076,99,99,0,0,0,0,0
1,19999,79,10000,93,0,41,9999,0.100000,99,0,0.000000,11,5.000000,29.442336,15.036168,99,99,0,0,0,0,0
1,19999,80,10000,56,0,40,9999,0.100000,99,0,0.000000,14,2.000000,36.398097,17.348017,99,99,0,0,0,0,0
1,19999,81,10000,16,0,40,9999,0.100000,99,0,0.000000,10,1.000000,19.599898,7.366888,99,99,0,0,0,0,0
1,19999,82,10000,8,0,40,9999,0.100000,99,0,0.000000,14,0.000000,20.475936,0.171978,99,99,0,0,0,0,0
1,19999,83,10000,7,0,40,9999,0.100000,99,0,0.000000,14,0.000000,29.500977,0.179251,99,99,0,0,0,0,0
1,19999,84,10000,8,0,40,9999,0.100000,99,0,0.000000,10,0.000000,20.607176,0.331918,99,99,0,0,0,0,0
1,19999,85,10000,11,0,40,9999,0.100000,99,0,0.000000,11,0.000000,32.840819,0.514441,99,99,0,0,0,0,0
1,19999,86,10000,8,0,40,9999,0.100000,99,0,0.000000,6,0.000000,21.197746,0.587347,99,99,0,0,0,0,0
1,19999,87,10000,93,0,40,9999,0.100000,99,0,0.000000,12,1.000000,28.317038,6.866609,99,99,0,0,0,0,0
1,19999,88,10000,11,0,40,9999,0.100000,99,0,0.000000,12,0.000000,26.833747,1.407637,99,99,0,0,0,0,0
1,19999,89,10000,42,0,40,9999,0.100000,99,0,0.000000,6,2.000000,28.271828,5.331008,99,99,0,0,0,0,0
1,19999,90,10000,55,0,41,9999,0.100000,99,0,0.000000,14,6.000000,29.494421,15.047702,99,99,0,0,0,0,0
1,19999,91,10000,14,0,41,9999,0.100000,99,0,0.000000,13,3.000000,17.866583,12.251282,99,99,0,0,0,0,0
1,19999,92,10000,93,0,0,9999,0.100000,99,0,1.050987,13,0.000000,17.324662,0.532149,99,99,0,0,1,0,0
1,19999,93,10000,93,0,41,9999,0.100000,99,0,0.000000,6,3.000000,18.765439,4.855096,99,99,0,0,0,0,0
1,19999,94,10000,8,0,91,9999,0.100000,99,0,7.726038,15,2.000000,14.167782,6.206018,99,99,1,0,0,0,0
1,19999,95,10000,93,0,0,9999,0.100000,99,0,0.004089,13,0.000000,15.577210,0.706848,99,99,0,0,0,0,1
1,19999,96,10000,87,0,40,9999,0.100000,99,0,0.000000,12,1.000000,25.271119,12.339442,99,99,0,0,0,0,0
1,19999,97,10000,55,0,40,9999,0.100000,99,0,0.000000,14,0.000000,16.874148,1.956061,99,99,0,0,0,0,0
1,19999,98,10000,14,0,40,9999,0.100000,99,0,0.000000,12,1.000000,22.958046,3.475330,99,99,0,0,0,0,0
1,19999,99,10000,11,0,40,9999,0.100000,99,0,0.000000,12,0.000000,17.373615,0.805903,99,99,0,0,0,0,0
2,29999,0,20000,87,0,41,9999,0.100000,99,0,0.000000,15,3.000000,26.782794,16.846644,99,99,0,0,0,0,0
2,29999,1,20000,21,0,40,9999,0.100000,99,0,0.000000,15,2.000000,31.807877,7.818432,99,99,0,0,0,0,0
2,29999,2,20000,17,0,40,9999,0.100000,99,0,0.000000,17,2.000000,28.508204,9.686658,99,99,0,0,0,0,0
2,29999,3,20000,93,0,40,9999,0.100000,99,0,3.163362,15,2.000000,28.559135,12.016695,99,99,0,0,0,0,0
2,29999,4,20000,44,10000,40,9999,0.100000,99,0,0.000000,16,0.000000,32.097573,1.353728,99,99,0,0,0,0,0
2,29999,5,20000,6,0,0,9999,0.100000,99,0,0.027587,17,0.000000,20.067411,1.705491,99,99,0,0,1,0,0
2,29999,6,20000,51,0,90,9999,0.100000,99,0,20.656309,15,3.000000,29.802367,12.795440,99,99,1,0,0,0,0
2,29999,7,20000,6,0,40,9999,0.100000,99,0,0.000000,17,1.000000,35.564101,13.488865,99,99,0,0,0,0,0
2,29999,8,20000,93,0,0,9999,0.100000,99,0,0.483123,17,0.000000,20.362031,0.820239,99,99,0,0,0,0,1
2,29999,9,20000,30,0,40,9999,0.100000,99,0,0.000000,17,2.000000,29.706762,9.401275,99,99,0,0,0,0,0
2,29999,10,20000,11,0,40,9999,0.100000,99,0,0.000000,17,1.000000,17.242620,11.489196,99,99,0,0,0,0,0
2,29999,11,20000,30,0,41,9999,0.100000,99,0,0.000000,17,4.000000,34.613146,12.237044,99,99,0,0,0,0,0
2,29999,12,20000,6,10000,40,9999,0.100000,99,0,0.000000,17,0.000000,26.143125,5.763062,99,99,0,0,0,0,0
2,29999,13,20000,21,0,40,9999,0.100000,99,0,0.000000,17,2.000000,29.842154,6.687255,99,99,0,0,0,0,0
2,29999,14,20000,30,0,0,9999,0.100000,99,0,12.015610,17,1.000000,22.097731,2.617010,99,99,0,0,1,0,0
2,29999,15,20000,44,10000,41,9999,0.100000,99,0,0.000000,17,5.000000,27.944674,13.786987,99,99,0,0,0,0,0
2,29999,16,20000,87,0,40,9999,0.100000,99,0,0.000000,15,0.000000,26.015202,1.029091,99,99,0,0,0,0,0
2,29999,17,20000,7,0,40,9999,0.100000,99,0,0.000000,17,2.000000,31.703501,13.554256,99,99,0,0,0,0,0
2,29999,18,20000,30,0,0,9999,0.100000,99,0,0.031503,17,0.000000,27.344106,0.100198,99,99,0,0,0,1,0
2,29999,19,20000,17,0,40,9999,0.100000,99,0,0.000000,17,0.000000,27.446411,7.535818,99,99,0,0,0,0,0
2,29999,20,20000,93,0,40,9999,0.100000,99,0,0.000000,15,0.000000,28.132387,0.996623,99,99,0,0,0,0,0
2,29999,21,20000,44,10000,40,9999,0.100000,99,0,0.000000,17,0.000000,27.986627,9.339841,99,99,-1,0,0,0,0
2,29999,22,20000,24,0,40,9999,0.100000,99,0,0.000000,17,0.000000,20.269808,2.855662,99,99,0,0,0,0,0
2,29999,23,20000,94,0,40,9999,0.100000,99,0,0.000000,17,0.000000,29.313242,8.179406,99,99,0,0,0,0,0
2,29999,24,20000,17,0,40,9999,0.100000,99,0,0.000000,17,0.000000,27.973159,4.211227,99,99,0,0,0,0,0
2,29999,25,20000,44,10000,40,9999,0.100000,99,0,0.000000,17,2.000000,21.958140,2.991312,99,99,0,0,0,0,0
2,29999,26,20000,30,0,41,9999,0.100000,99,0,0.000000,17,4.000000,20.998912,11.390447,99,99,0,0,0,0,0
2,29999,27,20000,94,0,0,9999,0.100000,99,0,0.129382,17,0.000000,20.843685,0.155057,99,99,0,0,0,1,0
2,29999,28,20000,94,0,40,9999,0.100000,99,0,0.000000,15,2.000000,27.830837,11.718906,99,99,0,0,0,0,0
2,29999,29,20000,87,0,41,9999,0.100000,99,0,0.000000,17,3.000000,16.600113,12.006163,99,99,0,0,0,0,0
2,29999,30,20000,6,0,40,9999,0.100000,99,0,0.000000,17,2.000000,31.709827,4.390946,99,99,0,0,0,0,0
2,29999,31,20000,51,0,0,9999,0.100000,99,0,0.192823,17,1.000000,27.218772,4.208772,99,99,0,0,0,1,0
2,29999,32,20000,17,0,0,9999,0.100000,99,0,0.688881,17,0.000000,33.207458,0.430378,99,99,0,0,0,0,1
2,29999,33,20000,56,0,40,9999,0.100000,99,0,0.000000,15,0.000000,20.516024,0.315911,99,99,0,0,0,0,0
2,29999,34,20000,56,0,40,9999,0.100000,99,0,0.000000,17,0.000000,27.017297,3.613931,99,99,0,0,0,0,0
2,29999,35,20000,51,0,0,9999,0.100000,99,0,0.095292,17,0.000000,19.483692,0.858269,99,99,0,0,0,0,1
2,29999,36,20000,8,0,40,9999,0.100000,99,0,0.000000,15,0.000000,15.618078,1.541927,99,99,0,0,0,0,0
2,29999,37,20000,8,10000,40,9999,0.100000,99,0,0.000000,17,1.000000,26.681331,8.167012,99,99,0,0,0,0,0
2,29999,38,20000,44,10000,42,9999,0.100000,99,0,0.000000,17,6.000000,27.763934,15.286335,99,99,0,0,0,0,0
2,29999,39,20000,24,0,42,9999,0.100000,99,0,0.000000,15,4.000000,15.522458,11.207148,99,99,0,0,0,0,0
2,29999,40,20000,11,0,40,9999,0.100000,99,0,0.000000,17,1.000000,30.412572,6.862251,99,99,0,0,0,0,0
2,29999,41,20000,11,0,41,9999,0.100000,99,0,0.000000,17,3.000000,27.880133,6.565463,99,99,0,0,0,0,0
2,29999,42,20000,21,0,0,9999,0.100000,99,0,0.162325,17,0.000000,23.154060,0.169946,99,99,0,1,0,0,0
2,29999,43,20000,56,0,40,9999,0.100000,99,0,0.000000,17,0.000000,27.093772,1.146418,99,99,0,0,0,0,0
2,29999,44,20000,17,0,44,9999,0.100000,99,0,0.000000,16,5.000000,11.594564,11.173526,99,99,0,0,0,0,0
2,29999,45,20000,30,0,1,9999,0.100000,99,0,19.481800,17,3.000000,27.556427,3.935744,99,99,0,1,0,0,0
2,29999,46,20000,44,10000,41,9999,0.100000,99,0,0.000000,17,3.000000,26.802333,21.372343,99,99,0,0,0,0,0
2,29999,47,20000,44,10000,40,9999,0.100000,99,0,0.000000,17,0.000000,14.457969,1.268146,99,99,0,0,0,0,0
2,29999,48,20000,51,0,40,9999,0.100000,99,0,0.000000,17,1.000000,32.146215,8.180487,99,99,0,0,0,0,0
2,29999,49,20000,24,0,40,9999,0.100000,99,0,0.000000,17,0.000000,32.919554,1.179534,99,99,0,0,0,0,0
2,29999,50,20000,87,0,41,9999,0.100000,99,0,0.000000,17,2.000000,17.461894,7.610806,99,99,0,0,0,0,0
2,29999,51,20000,51,0,40,9999,0.100000,99,0,0.000000,17,3.000000,29.424551,8.547989,99,99,0,0,0,0,0
2,29999,52,20000,7,0,40,9999,0.100000,99,0,0.000000,17,0.000000,30.886312,0.993143,99,99,0,0,0,0,0
2,29999,53,20000,8,0,40,9999,0.100000,99,0,0.000000,17,0.000000,23.579810,24.257482,99,99,0,0,0,0,0
2,29999,54,20000,51,0,42,9999,0.100000,99,0,0.000000,17,6.000000,27.174490,16.236128,99,99,0,0,0,0,0
2,29999,55,20000,63,0,41,9999,0.100000,99,0,0.000000,17,3.000000,27.460468,12.813939,99,99,0,0,0,0,0
2,29999,56,20000,56,0,0,9999,0.100000,99,0,4.093495,16,1.000000,29.896869,6.233030,99,99,0,1,0,0,0
2,29999,57,20000,11,0,48,9999,0.100000,99,0,0.000000,17,14.000000,16.139395,20.879126,99,99,0,0,0,0,0
2,29999,58,20000,44,10000,0,9999,0.100000,99,0,9.215175,17,2.000000,29.850320,3.029570,99,99,0,1,0,0,0
2,29999,59,20000,30,0,41,9999,0.100000,99,0,0.000000,17,3.000000,27.296951,3.977527,99,99,0,0,0,0,0
2,29999,60,20000,56,0,40,9999,0.100000,99,0,0.000000,17,1.000000,28.946469,1.164769,99,99,0,0,0,0,0
2,29999,61,20000,51,0,40,9999,0.100000,99,0,0.000000,17,0.000000,25.336855,3.144976,99,99,0,0,0,0,0
2,29999,62,20000,30,0,40,9999,0.100000,99,0,0.000000,17,1.000000,31.413373,10.016078,99,99,0,0,0,0,0
2,29999,63,20000,6,0,40,9999,0.100000,99,0,0.000000,15,3.000000,32.911408,16.131916,99,99,0,0,0,0,0
2,29999,64,20000,87,0,40,9999,0.100000,99,0,0.000000,16,0.000000,21.915415,23.909612,99,99,0,0,0,0,0
2,29999,65,20000,44,10000,0,9999,0.100000,99,0,0.035046,17,0.000000,27.002390,2.140624,99,99,0,0,0,0,1
2,29999,66,20000,6,10000,41,9999,0.100000,99,0,0.000000,17,4.000000,32.785988,11.080833,99,99,0,0,0,0,0
2,29999,67,20000,8,0,40,9999,0.100000,99,0,0.000000,16,1.000000,29.670181,10.355945,99,99,0,0,0,0,0
2,29999,68,20000,7,0,40,9999,0.100000,99,0,0.000000,17,0.000000,15.757409,8.355303,99,99,0,0,0,0,0
2,29999,69,20000,30,0,40,9999,0.100000,99,0,0.000000,17,1.000000,22.755304,2.924822,99,99,0,0,0,0,0
2,29999,70,20000,24,0,0,9999,0.100000,99,0,2.782396,17,0.000000,29.756457,0.998236,99,99,0,0,0,1,0
2,29999,71,20000,44,10000,40,9999,0.100000,99,0,0.000000,17,0.000000,27.738705,0.634653,99,99,0,0,0,0,0
2,29999,72,20000,21,0,40,9999,0.100000,99,0,0.000000,17,0.000000,28.099100,0.748461,99,99,0,0,0,0,0
2,29999,73,20000,56,0,40,9999,0.100000,99,0,0.000000,17,1.000000,20.078410,6.633727,99,99,0,0,0,0,0
2,29999,74,20000,94,0,0,9999,0.100000,99,0,0.001949,16,1.000000,25.522925,5.335462,99,99,0,0,1,0,0
2,29999,75,20000,30,0,40,9999,0.100000,99,0,0.000000,17,2.000000,32.265193,4.767001,99,99,0,0,0,0,0
2,29999,76,20000,14,10000,0,9999,0.100000,99,0,0.424341,17,0.000000,22.470158,0.192006,99,99,0,0,0,1,0
2,29999,77,20000,45,10000,40,9999,0.100000,99,0,0.000000,17,0.000000,32.336768,0.507120,99,99,0,0,0,0,0
2,29999,78,20000,30,0,40,9999,0.100000,99,0,0.000000,17,2.000000,32.356928,12.370669,99,99,0,0,0,0,0
2,29999,79,20000,17,10000,40,9999,0.100000,99,0,0.000000,17,2.000000,34.161188,8.322190,99,99,0,0,0,0,0
2,29999,80,20000,6,0,40,9999,0.100000,99,0,0.000000,17,2.000000,35.079684,15.900670,99,99,0,0,0,0,0
2,29999,81,20000,24,0,40,9999,0.100000,99,0,0.000000,17,0.000000,20.564926,1.245842,99,99,0,0,0,0,0
2,29999,82,20000,6,0,40,9999,0.100000,99,0,0.000000,17,0.000000,20.471603,0.284870,99,99,0,0,0,0,0
2,29999,83,20000,87,0,40,9999,0.100000,99,0,0.000000,17,0.000000,29.485156,0.780973,99,99,0,0,0,0,0
2,29999,84,20000,7,0,40,9999,0.100000,99,0,0.000000,17,0.000000,20.582584,0.241099,99,99,0,0,0,0,0
2,29999,85,20000,56,0,40,9999,0.100000,99,0,0.000000,17,0.000000,32.956728,1.302239,99,99,0,0,0,0,0
2,29999,86,20000,11,0,40,9999,0.100000,99,0,0.000000,17,0.000000,21.246985,0.095864,99,99,0,0,0,0,0
2,29999,87,20000,44,10000,43,9999,0.100000,99,0,0.000000,17,11.000000,28.786142,21.289786,99,99,0,0,0,0,0
2,29999,88,20000,7,0,40,9999,0.100000,99,0,0.000000,17,1.000000,27.682176,4.118894,99,99,0,0,0,0,0
2,29999,89,20000,87,0,40,9999,0.100000,99,0,0.000000,17,0.000000,26.852554,0.169065,99,99,0,0,0,0,0
2,29999,90,20000,17,0,44,9999,0.100000,99,0,0.000000,17,11.000000,23.539899,11.952118,99,99,0,0,0,0,0
2,29999,91,20000,51,0,40,9999,0.100000,99,0,0.000000,17,0.000000,20.645492,0.675319,99,99,0,0,0,0,0
2,29999,92,20000,56,0,2,9999,0.100000,99,0,22.294949,17,4.000000,17.511625,5.201835,99,99,0,0,1,0,0
2,29999,93,20000,56,0,40,9999,0.100000,99,0,0.000000,17,2.000000,21.755512,3.835353,99,99,0,0,0,0,0
2,29999,94,20000,17,0,40,9999,0.100000,99,0,0.000000,17,0.000000,15.316861,0.744231,99,99,0,0,0,0,0
2,29999,95,20000,44,10000,0,9999,0.100000,99,0,0.167509,17,0.000000,15.635353,0.972998,99,99,0,0,0,0,1
2,29999,96,20000,7,0,40,9999,0.100000,99,0,0.000000,17,0.000000,26.151129,8.096515,99,99,0,0,0,0,0
2,29999,97,20000,8,10000,42,9999,0.100000,99,0,0.000000,17,5.000000,17.469485,5.523336,99,99,0,0,0,0,0
2,29999,98,20000,30,0,40,9999,0.100000,99,0,0.000000,17,0.000000,23.180121,0.521418,99,99,0,0,0,0,0
2,29999,99,20000,17,0,42,9999,0.100000,99,0,0.000000,17,4.000000,17.563590,5.126519,99,99,0,0,0,0,0
3,39999,0,30000,8,0,40,9999,0.100000,99,0,0.000000,17,2.000000,28.613391,22.812508,99,99,0,0,0,0,0
3,39999,1,30000,24,0,40,9999,0.100000,99,0,0.000000,18,2.000000,31.521397,4.788351,99,99,0,0,0,0,0
3,39999,2,30000,51,0,41,9999,0.100000,99,0,0.000000,17,5.000000,30.347914,7.904627,99,99,0,0,0,0,0
3,39999,3,30000,8,0,41,9999,0.100000,99,0,0.000000,17,5.000000,28.254018,11.545101,99,99,0,0,0,0,0
3,39999,4,30000,44,10000,40,9999,0.100000,99,0,0.000000,17,1.000000,32.217122,1.594408,99,99,0,0,0,0,0
3,39999,5,30000,11,0,0,9999,0.100000,99,0,0.001440,17,0.000000,20.893675,0.132194,99,99,0,0,1,0,0
3,39999,6,30000,17,10000,40,9999,0.100000,99,0,0.000000,18,1.000000,33.366172,6.639830,99,99,0,0,0,0,0
3,39999,7,30000,17,10000,40,9999,0.100000,99,0,0.000000,18,3.000000,36.267913,9.413427,99,99,0,0,0,0,0
3,39999,8,30000,8,0,0,9999,0.100000,99,0,1.214900,18,0.000000,20.467787,1.509924,99,99,0,0,0,0,1
3,39999,9,30000,17,10000,41,9999,0.100000,99,0,0.000000,18,4.000000,28.821766,11.273853,99,99,0,0,0,0,0
3,39999,10,30000,92,20000,41,9999,0.100000,99,0,0.000000,18,2.000000,18.439226,12.993878,99,99,0,0,0,0,0
3,39999,11,30000,44,10000,40,9999,0.100000,99,0,0.000000,18,2.000000,30.753075,8.761017,99,99,0,0,0,0,0
3,39999,12,30000,7,0,40,9999,0.100000,99,0,0.000000,18,0.000000,25.960532,10.785257,99,99,0,0,0,0,0
3,39999,13,30000,87,20000,40,9999,0.100000,99,0,0.000000,18,1.000000,27.020360,5.667588,99,99,0,0,0,0,0
3,39999,14,30000,14,10000,0,9999,0.100000,99,0,3.527383,18,0.000000,23.507097,0.906903,99,99,0,0,1,0,0
3,39999,15,30000,63,0,41,9999,0.100000,99,0,0.000000,18,3.000000,22.399119,22.207814,99,99,0,0,0,0,0
3,39999,16,30000,63,0,40,9999,0.100000,99,0,0.000000,18,0.000000,25.225046,0.952928,99,99,0,0,0,0,0
3,39999,17,30000,17,0,40,9999,0.100000,99,0,0.000000,18,1.000000,31.904582,9.613490,99,99,0,0,0,0,0
3,39999,18,30000,17,0,0,9999,0.100000,99,0,0.117187,18,0.000000,27.343635,0.182321,99,99,0,0,0,1,0
3,39999,19,30000,94,0,40,9999,0.100000,99,0,0.000000,18,0.000000,27.986882,4.625731,99,99,0,0,0,0,0
3,39999,20,30000,94,0,40,9999,0.100000,99,0,0.000000,18,2.000000,28.331550,6.618962,99,99,0,0,0,0,0
3,39999,21,30000,92,20000,41,9999,0.100000,99,0,0.000000,18,4.000000,27.930310,8.085135,99,99,0,0,0,0,0
3,39999,22,30000,63,0,40,9999,0.100000,99,0,0.000000,18,0.000000,20.441991,1.039545,99,99,0,0,0,0,0
3,39999,23,30000,44,10000,40,9999,0.100000,99,0,0.000000,18,1.000000,29.672356,4.921411,99,99,0,0,0,0,0
3,39999,24,30000,8,10000,0,9999,0.100000,99,0,4.339842,17,1.000000,28.130887,9.216808,99,99,0,0,0,1,0
3,39999,25,30000,15,20000,40,9999,0.100000,99,0,0.000000,18,0.000000,23.575872,0.777339,99,99,0,0,0,0,0
3,39999,26,30000,94,0,40,9999,0.100000,99,0,0.000000,17,0.000000,21.153739,1.886328,99,99,0,0,0,0,0
3,39999,27,30000,56,0,0,9999,0.100000,99,0,0.138156,18,0.000000,20.863419,0.177000,99,99,0,0,0,1,0
3,39999,28,30000,21,0,40,9999,0.100000,99,0,0.000000,18,0.000000,29.441961,1.036937,99,99,0,0,0,0,0
3,39999,29,30000,17,10000,0,9999,0.100000,99,0,0.057717,18,0.000000,19.259352,3.321022,99,99,0,0,0,0,1
3,39999,30,30000,17,10000,41,9999,0.100000,99,0,0.000000,18,5.000000,32.994734,8.531553,99,99,0,0,0,0,0
3,39999,31,30000,24,0,0,9999,0.100000,99,0,4.407535,18,0.000000,28.308384,3.557543,99,99,0,0,0,1,0
3,39999,32,30000,7,0,40,9999,0.100000,99,0,0.000000,17,0.000000,33.476508,2.334367,99,99,0,0,0,0,0
3,39999,33,30000,30,0,40,9999,0.100000,99,0,0.000000,17,0.000000,20.378685,0.253776,99,99,0,0,0,0,0
3,39999,34,30000,7,0,40,9999,0.100000,99,0,0.000000,17,2.000000,27.477367,13.103482,99,99,0,0,0,0,0
3,39999,35,30000,21,0,40,9999,0.100000,99,0,0.000000,18,0.000000,19.388837,1.009890,99,99,0,0,0,0,0
3,39999,36,30000,51,0,40,9999,0.100000,99,0,0.000000,17,0.000000,15.747162,1.719984,99,99,0,0,0,0,0
3,39999,37,30000,30,0,40,9999,0.100000,99,0,0.000000,17,2.000000,25.218960,19.254007,99,99,0,0,0,0,0
3,39999,38,30000,15,20000,40,9999,0.100000,99,0,0.000000,18,1.000000,22.935193,8.875681,99,99,0,0,0,0,0
3,39999,39,30000,17,10000,40,9999,0.100000,99,0,0.000000,18,0.000000,20.168243,5.852717,99,99,0,0,0,0,0
3,39999,40,30000,11,0,40,9999,0.100000,99,0,0.000000,17,1.000000,30.964621,6.613941,99,99,0,0,0,0,0
3,39999,41,30000,44,10000,40,9999,0.100000,99,0,0.000000,17,1.000000,25.982974,7.002379,99,99,0,0,0,0,0
3,39999,42,30000,30,0,0,9999,0.100000,99,0,0.194484,18,0.000000,23.128596,0.167677,99,99,0,1,0,0,0
3,39999,43,30000,56,0,40,9999,0.100000,99,0,0.000000,18,0.000000,27.166898,0.647231,99,99,0,0,0,0,0
3,39999,44,30000,17,0,40,9999,0.100000,99,0,0.000000,17,0.000000,16.068554,3.600143,99,99,0,0,0,0,0
3,39999,45,30000,8,10000,0,9999,0.100000,99,0,16.647603,18,3.000000,30.271893,3.425649,99,99,0,1,0,0,0
3,39999,46,30000,87,0,40,9999,0.100000,99,0,0.000000,17,1.000000,28.336230,3.593546,99,99,0,0,0,0,0
3,39999,47,30000,63,0,40,9999,0.100000,99,0,0.000000,18,0.000000,14.939254,0.746264,99,99,0,0,0,0,0
3,39999,48,30000,21,0,40,9999,0.100000,99,0,0.000000,18,2.000000,31.455449,6.332781,99,99,0,0,0,0,0
3,39999,49,30000,21,0,0,9999,0.100000,99,0,0.263464,17,0.000000,33.272483,0.485694,99,99,0,0,0,0,1
3,39999,50,30000,63,0,41,9999,0.100000,99,0,0.000000,18,2.000000,16.505092,15.945879,99,99,0,0,0,0,0
3,39999,51,30000,94,0,40,9999,0.100000,99,0,0.000000,18,2.000000,32.567427,8.721420,99,99,0,0,0,0,0
3,39999,52,30000,21,0,40,9999,0.100000,99,0,0.000000,18,0.000000,31.136231,0.964823,99,99,0,0,0,0,0
3,39999,53,30000,21,0,40,9999,0.100000,99,0,0.000000,17,2.000000,23.391089,18.366077,99,99,0,0,0,0,0
3,39999,54,30000,7,0,41,9999,0.100000,99,0,0.000000,17,4.000000,28.724104,7.400809,99,99,0,0,0,0,0
3,39999,55,30000,8,10000,40,9999,0.100000,99,0,0.000000,18,1.000000,27.619988,3.704154,99,99,0,0,0,0,0
3,39999,56,30000,44,10000,40,9999,0.100000,99,0,0.000000,18,0.000000,30.244974,10.727312,99,99,0,0,0,0,0
3,39999,57,30000,6,0,40,9999,0.100000,99,0,91.019251,17,1.000000,28.987840,13.206333,99,99,1,0,0,1,0
3,39999,58,30000,21,0,0,9999,0.100000,99,0,0.187209,17,0.000000,31.951866,9.982353,99,99,0,1,0,0,0
3,39999,59,30000,87,20000,40,9999,0.100000,99,0,0.000000,18,3.000000,30.076821,3.423415,99,99,0,0,0,0,0
3,39999,60,30000,15,20000,40,9999,0.100000,99,0,0.000000,18,2.000000,28.692622,2.305319,99,99,0,0,0,0,0
3,39999,61,30000,94,0,41,9999,0.100000,99,0,0.000000,17,4.000000,25.121149,10.446834,99,99,0,0,0,0,0
3,39999,62,30000,24,0,40,9999,0.100000,99,0,0.000000,17,0.000000,31.722862,5.652910,99,99,0,0,0,0,0
3,39999,63,30000,87,0,40,9999,0.100000,99,0,0.000000,18,0.000000,31.898034,1.454588,99,99,0,0,0,0,0
3,39999,64,30000,17,10000,40,9999,0.100000,99,0,0.000000,17,0.000000,21.996756,23.619937,99,99,0,0,0,0,0
3,39999,65,30000,24,0,0,9999,0.100000,99,0,0.951948,18,0.000000,27.540234,0.235994,99,99,0,0,0,0,1
3,39999,66,30000,63,0,40,9999,0.100000,99,0,0.000000,18,3.000000,28.825095,9.775500,99,99,0,0,0,0,0
3,39999,67,30000,44,10000,40,9999,0.100000,99,0,0.000000,18,0.000000,29.584787,9.771012,99,99,0,0,0,0,0
3,39999,68,30000,8,10000,40,9999,0.100000,99,0,0.000000,18,0.000000,15.794277,2.282075,99,99,0,0,0,0,0
3,39999,69,30000,87,0,40,9999,0.100000,99,0,0.000000,18,0.000000,21.302525,0.124456,99,99,0,0,0,0,0
3,39999,70,30000,30,0,40,9999,0.100000,99,0,0.000000,17,2.000000,29.525011,2.215081,99,99,0,0,0,0,0
3,39999,71,30000,56,0,40,9999,0.100000,99,0,0.000000,18,0.000000,27.778107,0.331912,99,99,0,0,0,0,0
3,39999,72,30000,17,0,0,9999,0.100000,99,0,4.407535,18,1.000000,28.264341,8.010920,99,99,0,0,0,1,0
3,39999,73,30000,30,0,40,9999,0.100000,99,0,0.000000,18,0.000000,20.381682,2.252897,99,99,0,0,0,0,0
3,39999,74,30000,17,0,0,9999,0.100000,99,0,0.005103,17,0.000000,24.421000,0.111213,99,99,0,0,1,0,0
3,39999,75,30000,87,20000,40,9999,0.100000,99,0,0.000000,18,2.000000,29.577323,2.627825,99,99,0,0,0,0,0
3,39999,76,30000,11,0,0,9999,0.100000,99,0,1.293788,18,0.000000,22.558999,0.605634,99,99,0,0,0,1,0
3,39999,77,30000,24,0,40,9999,0.100000,99,0,0.000000,18,0.000000,32.685923,0.376910,99,99,0,0,0,0,0
3,39999,78,30000,6,0,40,9999,0.100000,99,0,0.000000,18,1.000000,30.949822,2.080004,99,99,0,0,0,0,0
3,39999,79,30000,21,0,40,9999,0.100000,99,0,0.000000,18,0.000000,32.062491,6.455824,99,99,0,0,0,0,0
3,39999,80,30000,21,0,40,9999,0.100000,99,0,0.000000,18,2.000000,35.919893,6.047179,99,99,0,0,0,0,0
3,39999,81,30000,44,10000,40,9999,0.100000,99,0,0.000000,18,0.000000,20.434269,0.768295,99,99,0,0,0,0,0
3,39999,82,30000,87,20000,40,9999,0.100000,99,0,0.000000,18,0.000000,20.542527,0.447088,99,99,0,0,0,0,0
3,39999,83,30000,87,20000,0,9999,0.100000,99,0,6.425913,18,2.000000,29.250700,2.202844,99,99,0,0,0,1,0
3,39999,84,30000,14,10000,40,9999,0.100000,99,0,0.000000,18,0.000000,20.594162,0.252546,99,99,0,0,0,0,0
3,39999,85,30000,44,10000,40,9999,0.100000,99,0,0.000000,18,0.000000,32.871511,0.181241,99,99,0,0,0,0,0
3,39999,86,30000,51,0,40,9999,0.100000,99,0,0.000000,18,0.000000,21.290471,0.143192,99,99,0,0,0,0,0
3,39999,87,30000,30,0,40,9999,0.100000,99,0,0.000000,18,0.000000,17.252654,0.241410,99,99,0,0,0,0,0
3,39999,88,30000,17,10000,40,9999,0.100000,99,0,0.000000,18,0.000000,27.080174,0.651864,99,99,0,0,0,0,0
3,39999,89,30000,17,0,40,9999,0.100000,99,0,0.000000,18,0.000000,26.851933,0.159192,99,99,0,0,0,0,0
3,39999,90,30000,45,20000,40,9999,0.100000,99,0,0.000000,18,1.000000,16.117005,2.524337,99,99,0,0,0,0,0
3,39999,91,30000,8,10000,40,9999,0.100000,99,0,0.000000,18,0.000000,20.654848,0.755633,99,99,0,0,0,0,0
3,39999,92,30000,51,0,40,9999,0.100000,99,0,0.000000,18,0.000000,22.184940,1.022503,99,99,0,0,0,0,0
3,39999,93,30000,51,0,40,9999,0.100000,99,0,0.000000,18,0.000000,23.694992,1.076058,99,99,0,0,0,0,0
3,39999,94,30000,51,0,0,9999,0.100000,99,0,0.549429,18,0.000000,15.379085,0.569934,99,99,0,0,0,0,1
3,39999,95,30000,17,0,40,9999,0.100000,99,0,0.000000,18,0.000000,15.779446,1.289674,99,99,0,0,0,0,0
3,39999,96,30000,51,0,42,9999,0.100000,99,0,0.000000,17,7.000000,25.752431,21.317219,99,99,0,0,0,0,0
3,39999,97,30000,21,0,40,9999,0.100000,99,0,0.000000,18,0.000000,22.334774,1.093423,99,99,0,0,0,0,0
3,39999,98,30000,51,0,40,9999,0.100000,99,0,0.000000,18,0.000000,23.237094,3.646985,99,99,0,0,0,0,0
3,39999,99,30000,87,20000,0,9999,0.100000,99,0,1.794096,18,0.000000,22.029203,0.935591,99,99,0,0,1,0,0
4,49999,0,40000,24,0,40,9999,0.100000,99,0,0.000000,18,1.000000,29.555171,22.029416,99,99,0,0,0,0,0
4,49999,1,40000,30,0,40,9999,0.100000,99,0,0.000000,18,0.000000,32.602442,1.568944,99,99,0,0,0,0,0
4,49999,2,40000,17,10000,40,9999,0.100000,99,0,0.000000,18,0.000000,32.905791,0.239390,99,99,0,0,0,0,0
4,49999,3,40000,87,0,41,9999,0.100000,99,0,0.000000,18,4.000000,23.804193,12.313423,99,99,0,0,0,0,0
4,49999,4,40000,92,20000,40,9999,0.100000,99,0,0.000000,18,0.000000,32.612807,0.835786,99,99,0,0,0,0,0
4,49999,5,40000,15,20000,0,9999,0.100000,99,0,0.002763,18,0.000000,20.891285,0.082449,99,99,0,0,1,0,0
4,49999,6,40000,92,20000,40,9999,0.100000,99,0,0.000000,18,1.000000,32.292283,6.818571,99,99,0,0,0,0,0
4,49999,7,40000,51,0,40,9999,0.100000,99,0,0.000000,18,3.000000,34.357682,16.406036,99,99,0,0,0,0,0
4,49999,8,40000,11,0,0,9999,0.100000,99,0,0.360705,18,0.000000,20.881862,0.782426,99,99,0,0,0,0,1
4,49999,9,40000,44,10000,40,9999,0.100000,99,0,0.000000,18,1.000000,29.762857,4.690690,99,99,0,0,0,0,0
4,49999,10,40000,21,0,40,9999,0.100000,99,0,0.000000,18,0.000000,19.232294,1.230118,99,99,0,0,0,0,0
4,49999,11,40000,8,0,40,9999,0.100000,99,0,0.000000,18,1.000000,33.044695,5.330537,99,99,0,0,0,0,0
4,49999,12,40000,44,10000,40,9999,0.100000,99,0,0.000000,18,2.000000,26.147155,5.195301,99,99,0,0,0,0,0
4,49999,13,40000,17,10000,40,9999,0.100000,99,0,0.000000,18,0.000000,25.764264,12.901032,99,99,0,0,0,0,0
4,49999,14,40000,45,20000,0,9999,0.065000,99,0,1.559749,18,0.000000,24.179035,0.798600,99,99,0,0,1,0,0
4,49999,15,40000,7,0,0,9999,0.100000,99,0,0.230457,18,0.000000,23.774339,10.052747,99,99,0,0,0,1,0
4,49999,16,40000,17,0,40,9999,0.100000,99,0,0.000000,18,2.000000,24.599885,4.075528,99,99,0,0,0,0,0
4,49999,17,40000,6,0,40,9999,0.100000,99,0,0.000000,18,2.000000,32.415743,12.926275,99,99,0,0,0,0,0
4,49999,18,40000,7,0,0,9999,0.100000,99,0,0.348698,18,0.000000,27.347328,0.269097,99,99,0,0,0,1,0
4,49999,19,40000,63,0,40,9999,0.100000,99,0,0.000000,18,2.000000,28.079754,11.660128,99,99,0,0,0,0,0
4,49999,20,40000,6,0,40,9999,0.100000,99,0,0.000000,18,2.000000,26.134022,24.212669,99,99,0,0,0,0,0
4,49999,21,40000,57,30000,40,9999,0.100000,99,0,0.000000,18,1.000000,23.062981,12.093499,99,99,0,0,0,0,0
4,49999,22,40000,96,30000,40,9999,0.100000,99,0,0.000000,18,0.000000,20.928403,1.827770,99,99,0,0,0,0,0
4,49999,23,40000,7,0,40,9999,0.100000,99,0,0.000000,18,1.000000,28.722143,8.179478,99,99,0,0,0,0,0
4,49999,24,40000,8,0,40,9999,0.100000,99,0,0.000000,18,0.000000,26.722173,7.362160,99,99,0,0,0,0,0
4,49999,25,40000,21,0,40,9999,0.100000,99,0,0.000000,18,0.000000,24.248900,0.445120,99,99,0,0,0,0,0
4,49999,26,40000,17,0,41,9999,0.100000,99,0,0.000000,18,3.000000,21.551489,8.296906,99,99,0,0,0,0,0
4,49999,27,40000,90,20000,0,9999,0.100000,99,0,0.287115,18,0.000000,20.960554,0.207513,99,99,0,0,0,1,0
4,49999,28,40000,92,20000,40,9999,0.100000,99,0,0.000000,18,0.000000,29.943096,0.525401,99,99,0,0,0,0,0
4,49999,29,40000,44,10000,0,9999,0.100000,99,0,0.280933,18,0.000000,19.601101,0.361221,99,99,0,0,0,0,1
4,49999,30,40000,7,0,40,9999,0.100000,99,0,0.000000,18,1.000000,37.201444,4.409884,99,99,0,0,0,0,0
4,49999,31,40000,63,0,41,9999,0.100000,99,0,0.000000,18,5.000000,29.230544,19.293749,99,99,0,0,0,0,0
4,49999,32,40000,51,0,40,9999,0.100000,99,0,0.000000,18,0.000000,33.761424,0.255160,99,99,0,0,0,0,0
4,49999,33,40000,8,10000,40,9999,0.100000,99,0,0.000000,18,0.000000,20.369112,0.262022,99,99,0,0,0,0,0
4,49999,34,40000,15,20000,40,9999,0.100000,99,0,0.000000,18,1.000000,26.919317,8.387899,99,99,0,0,0,0,0
4,49999,35,40000,7,0,40,9999,0.100000,99,0,0.000000,18,0.000000,19.394195,0.991708,99,99,0,0,0,0,0
4,49999,36,40000,96,30000,0,9999,0.100000,99,0,0.016413,18,1.000000,15.787062,4.494570,99,99,0,0,0,0,1
4,49999,37,40000,15,20000,40,9999,0.100000,99,0,0.000000,18,1.000000,23.609057,18.235948,99,99,0,0,0,0,0
4,49999,38,40000,63,0,40,9999,0.100000,99,0,0.000000,18,0.000000,24.185447,0.979776,99,99,0,0,0,0,0
4,49999,39,40000,63,0,40,9999,0.100000,99,0,0.000000,18,0.000000,20.693385,7.620502,99,99,0,0,0,0,0
4,49999,40,40000,24,0,40,9999,0.100000,99,0,0.000000,18,0.000000,31.400330,2.982180,99,99,0,0,0,0,0
4,49999,41,40000,45,20000,40,9999,0.100000,99,0,0.000000,18,1.000000,25.428412,10.283911,99,99,0,0,0,0,0
4,49999,42,40000,7,0,0,9999,0.100000,99,0,0.174393,18,0.000000,23.098715,0.169205,99,99,0,1,0,0,0
4,49999,43,40000,8,0,40,9999,0.100000,99,0,0.000000,18,0.000000,27.122019,0.603181,99,99,0,0,0,0,0
4,49999,44,40000,92,20000,40,9999,0.100000,99,0,0.000000,18,0.000000,16.071512,2.357028,99,99,0,0,0,0,0
4,49999,45,40000,92,20000,40,9999,0.100000,99,0,0.000000,18,1.000000,32.996658,10.104710,99,99,0,0,0,0,0
4,49999,46,40000,8,10000,40,9999,0.100000,99,0,0.000000,18,0.000000,29.792751,1.837363,99,99,0,0,0,0,0
4,49999,47,40000,57,30000,40,9999,0.100000,99,0,0.000000,18,1.000000,15.188899,12.678570,99,99,0,0,0,0,0
4,49999,48,40000,21,0,40,9999,0.100000,99,0,0.000000,18,2.000000,29.745102,4.806478,99,99,0,0,0,0,0
4,49999,49,40000,21,0,0,9999,0.100000,99,0,0.607163,18,0.000000,33.340349,0.555607,99,99,0,0,0,0,1
4,49999,50,40000,8,0,40,9999,0.100000,99,0,0.000000,18,1.000000,14.938456,21.226047,99,99,0,0,0,0,0
4,49999,51,40000,8,10000,40,9999,0.100000,99,0,0.000000,18,2.000000,31.704292,5.165935,99,99,0,0,0,0,0
4,49999,52,40000,17,0,40,9999,0.100000,99,0,0.000000,18,0.000000,31.405484,0.979792,99,99,0,0,0,0,0
4,49999,53,40000,17,10000,42,9999,0.135000,99,0,0.000000,18,7.000000,23.347910,10.406160,99,99,0,0,0,0,0
4,49999,54,40000,87,0,40,9999,0.100000,99,0,0.000000,18,2.000000,30.116420,20.658494,99,99,0,0,0,0,0
4,49999,55,40000,87,0,41,9999,0.100000,99,0,0.000000,18,3.000000,26.624750,17.346144,99,99,0,0,0,0,0
4,49999,56,40000,17,10000,40,9999,0.100000,99,0,0.000000,18,2.000000,29.836849,8.598343,99,99,0,0,0,0,0
4,49999,57,40000,51,0,40,9999,0.100000,99,0,0.000000,18,0.000000,28.565864,7.008917,99,99,0,0,0,0,0
4,49999,58,40000,24,0,0,9999,0.100000,99,0,0.425718,18,0.000000,32.174249,1.909287,99,99,0,1,0,0,0
4,49999,59,40000,15,20000,40,9999,0.100000,99,0,0.000000,18,1.000000,32.824178,7.172964,99,99,0,0,0,0,0
4,49999,60,40000,8,0,40,9999,0.100000,99,0,0.000000,18,0.000000,29.718469,1.057778,99,99,0,0,0,0,0
4,49999,61,40000,63,0,40,9999,0.100000,99,0,0.000000,18,0.000000,23.727192,5.375102,99,99,0,0,0,0,0
4,49999,62,40000,45,20000,40,9999,0.100000,99,0,0.000000,18,0.000000,32.101274,1.569546,99,99,0,0,0,0,0
4,49999,63,40000,44,10000,40,9999,0.100000,99,0,0.000000,18,0.000000,31.811843,0.498058,99,99,0,0,0,0,0
4,49999,64,40000,96,30000,40,9999,0.100000,99,0,0.000000,18,1.000000,22.483163,9.645707,99,99,0,0,0,0,0
4,49999,65,40000,96,30000,0,9999,0.100000,99,0,0.378562,18,0.000000,27.497622,0.129121,99,99,0,0,0,0,1
4,49999,66,40000,63,0,40,9999,0.100000,99,0,0.000000,18,1.000000,30.424500,15.014602,99,99,0,0,0,0,0
4,49999,67,40000,90,20000,41,9999,0.100000,99,0,0.000000,18,4.000000,29.406905,13.270695,99,99,0,0,0,0,0
4,49999,68,40000,8,0,40,9999,0.100000,99,0,0.000000,18,0.000000,15.831163,3.129998,99,99,0,0,0,0,0
4,49999,69,40000,44,10000,40,9999,0.100000,99,0,0.000000,18,0.000000,21.300896,0.111113,99,99,0,0,0,0,0
4,49999,70,40000,92,20000,40,9999,0.100000,99,0,0.000000,18,0.000000,30.461075,1.001018,99,99,0,0,0,0,0
4,49999,71,40000,7,0,40,9999,0.100000,99,0,0.000000,18,0.000000,27.805360,0.431398,99,99,0,0,0,0,0
4,49999,72,40000,7,0,40,9999,0.100000,99,0,0.000000,18,2.000000,28.013128,12.171812,99,99,0,0,0,0,0
4,49999,73,40000,92,20000,40,9999,0.100000,99,0,0.000000,18,1.000000,20.981919,11.822372,99,99,0,0,0,0,0
4,49999,74,40000,2,30000,0,9999,0.100000,99,0,0.004539,18,0.000000,24.422183,0.112263,99,99,0,0,1,0,0
4,49999,75,40000,96,30000,40,9999,0.100000,99,0,0.000000,18,0.000000,30.392131,1.229426,99,99,0,0,0,0,0
4,49999,76,40000,17,10000,40,9999,0.100000,99,0,0.000000,18,0.000000,23.051451,0.516093,99,99,0,0,0,0,0
4,49999,77,40000,57,30000,40,9999,0.100000,99,0,0.000000,18,0.000000,32.758717,1.383305,99,99,0,0,0,0,0
4,49999,78,40000,8,0,40,9999,0.100000,99,0,0.000000,18,0.000000,31.747663,0.556263,99,99,0,0,0,0,0
4,49999,79,40000,57,30000,40,9999,0.100000,99,0,0.000000,18,2.000000,31.765984,10.460589,99,99,0,0,0,0,0
4,49999,80,40000,92,20000,40,9999,0.100000,99,0,0.000000,18,1.000000,33.761490,11.009377,99,99,0,0,0,0,0
4,49999,81,40000,8,10000,40,9999,0.100000,99,0,0.000000,18,0.000000,20.422461,1.053476,99,99,0,0,0,0,0
4,49999,82,40000,87,0,40,9999,0.100000,99,0,0.000000,18,0.000000,20.858132,0.429038,99,99,0,0,0,0,0
4,49999,83,40000,92,20000,0,9999,0.100000,99,0,2.603582,18,0.000000,30.241350,0.871085,99,99,0,0,0,1,0
4,49999,84,40000,6,0,40,9999,0.100000,99,0,0.000000,18,0.000000,20.688793,0.285923,99,99,0,0,0,0,0
4,49999,85,40000,7,0,40,9999,0.100000,99,0,0.000000,18,0.000000,32.935454,1.075875,99,99,0,0,0,0,0
4,49999,86,40000,17,0,40,9999,0.100000,99,0,0.000000,18,0.000000,21.382258,0.175084,99,99,0,0,0,0,0
4,49999,87,40000,21,0,40,9999,0.100000,99,0,0.000000,18,0.000000,17.251170,0.236518,99,99,0,0,0,0,0
4,49999,88,40000,6,0,40,9999,0.100000,99,0,0.000000,18,0.000000,27.038864,0.591369,99,99,0,0,0,0,0
4,49999,89,40000,57,30000,40,9999,0.100000,99,0,0.000000,18,0.000000,26.856416,0.145700,99,99,0,0,0,0,0
4,49999,90,40000,6,0,42,9999,0.100000,99,0,0.000000,18,4.000000,14.588332,7.173798,99,99,0,0,0,0,0
4,49999,91,40000,7,0,40,9999,0.100000,99,0,0.000000,18,0.000000,20.743755,0.753243,99,99,0,0,0,0,0
4,49999,92,40000,2,30000,2,9999,0.100000,99,0,30.039477,18,5.000000,22.749585,9.864636,99,99,0,0,1,0,0
4,49999,93,40000,8,10000,40,9999,0.100000,99,0,0.000000,18,0.000000,24.367353,0.884327,99,99,0,0,0,0,0
4,49999,94,40000,17,0,40,9999,0.100000,99,0,0.000000,18,0.000000,15.525988,0.637713,99,99,0,0,0,0,0
4,49999,95,40000,51,0,40,9999,0.100000,99,0,0.000000,18,0.000000,15.845999,2.676518,99,99,0,0,0,0,0
4,49999,96,40000,44,10000,40,9999,0.100000,99,0,0.000000,18,2.000000,27.184637,13.626625,99,99,0,0,0,0,0
4,49999,97,40000,63,0,2,9999,0.100000,99,0,30.039477,18,5.000000,22.938653,13.784514,99,99,0,0,1,0,0
4,49999,98,40000,21,0,40,9999,0.100000,99,0,0.000000,18,1.000000,23.566650,8.701602,99,99,0,0,0,0,0
4,49999,99,40000,45,20000,2,9999,0.100000,99,0,30.039477,18,5.000000,22.557574,16.351443,99,99,0,0,1,0,0
5,59999,0,50000,87,0,0,9999,0.100000,99,0,0.519547,18,0.000000,29.895546,11.441962,99,99,0,0,0,1,0
5,59999,1,50000,57,30000,40,9999,0.100000,99,0,0.000000,18,0.000000,32.972765,7.985008,99,99,0,0,0,0,0
5,59999,2,50000,8,0,40,9999,0.100000,99,0,0.000000,18,0.000000,32.906599,0.237006,99,99,0,0,0,0,0
5,59999,3,50000,21,0,41,9999,0.100000,99,0,0.000000,18,4.000000,25.171612,6.712520,99,99,0,0,0,0,0
5,59999,4,50000,2,30000,40,9999,0.100000,99,0,0.000000,18,0.000000,33.165940,1.503061,99,99,0,0,0,0,0
5,59999,5,50000,24,0,0,9999,0.100000,99,0,0.002717,18,0.000000,20.889584,0.081794,99,99,0,0,1,0,0
5,59999,6,50000,92,40000,40,9999,0.100000,99,0,0.000000,18,0.000000,33.984952,7.340564,99,99,0,0,0,0,0
5,59999,7,50000,24,0,0,9999,0.100000,99,0,0.108753,18,2.000000,35.172289,5.478683,99,99,0,0,0,0,1
5,59999,8,50000,90,20000,0,9999,0.100000,99,0,0.841058,18,0.000000,20.971112,0.880662,99,99,0,0,0,0,1
5,59999,9,50000,45,20000,40,9999,0.100000,99,0,0.000000,18,3.000000,29.771987,9.502809,99,99,0,0,0,0,0
5,59999,10,50000,8,0,40,9999,0.100000,99,0,0.000000,18,0.000000,19.256502,3.860728,99,99,0,0,0,0,0
5,59999,11,50000,45,20000,40,9999,0.100000,99,0,0.000000,18,1.000000,32.022560,7.289081,99,99,0,0,0,0,0
5,59999,12,50000,7,0,40,9999,0.100000,99,0,0.000000,18,0.000000,24.445393,11.281439,99,99,0,0,0,0,0
5,59999,13,50000,57,30000,40,9999,0.100000,99,0,0.000000,18,1.000000,26.690131,15.971679,99,99,0,0,0,0,0
5,59999,14,50000,92,40000,0,9999,0.100000,99,0,0.852736,18,0.000000,24.487571,0.753384,99,99,0,0,1,0,0
5,59999,15,50000,11,0,0,9999,0.100000,99,0,0.309651,18,0.000000,23.538538,0.564134,99,99,0,0,0,1,0
5,59999,16,50000,90,40000,40,9999,0.100000,99,0,0.000000,18,2.000000,27.112642,5.178128,99,99,0,0,0,0,0
5,59999,17,50000,96,30000,40,9999,0.100000,99,0,0.000000,18,0.000000,31.489694,6.907322,99,99,0,0,0,0,0
5,59999,18,50000,11,0,0,9999,0.100000,99,0,0.784967,18,0.000000,27.367150,0.382613,99,99,0,0,0,1,0
5,59999,19,50000,96,30000,40,9999,0.065000,99,0,0.000000,18,0.000000,28.455572,3.798010,99,99,0,0,0,0,0
5,59999,20,50000,17,10000,41,9999,0.100000,99,0,0.000000,18,3.000000,24.685678,10.788167,99,99,0,0,0,0,0
5,59999,21,50000,45,20000,40,9999,0.100000,99,0,0.000000,18,1.000000,21.468209,8.326200,99,99,0,0,0,0,0
5,59999,22,50000,90,20000,40,9999,0.100000,99,0,0.000000,18,0.000000,20.777656,0.699496,99,99,0,0,0,0,0
5,59999,23,50000,63,0,40,9999,0.100000,99,0,0.000000,18,2.000000,29.842235,7.091260,99,99,0,0,0,0,0
5,59999,24,50000,8,10000,40,9999,0.100000,99,0,0.000000,18,0.000000,26.728708,4.568406,99,99,0,0,0,0,0
5,59999,25,50000,21,0,40,9999,0.100000,99,0,0.000000,18,0.000000,24.556412,0.390532,99,99,0,0,0,0,0
5,59999,26,50000,17,10000,0,9999,0.100000,99,0,0.012432,18,1.000000,23.077789,5.886161,99,99,0,0,1,0,0
5,59999,27,50000,45,20000,0,9999,0.100000,99,0,0.515415,18,0.000000,21.098385,0.243298,99,99,0,0,0,1,0
5,59999,28,50000,17,0,40,9999,0.100000,99,0,0.000000,18,0.000000,29.950552,0.574904,99,99,0,0,0,0,0
5,59999,29,50000,87,0,0,9999,0.100000,99,0,0.544047,18,0.000000,19.607209,0.579630,99,99,0,0,0,0,1
5,59999,30,50000,45,20000,40,9999,0.100000,99,0,0.000000,18,0.000000,38.014555,3.656656,99,99,0,0,0,0,0
5,59999,31,50000,96,30000,40,9999,0.100000,99,0,0.000000,18,2.000000,25.181157,9.834759,99,99,0,0,0,0,0
5,59999,32,50000,63,0,40,9999,0.100000,99,0,0.000000,18,0.000000,33.761783,0.232382,99,99,0,0,0,0,0
5,59999,33,50000,57,30000,40,9999,0.100000,99,0,0.000000,18,0.000000,20.362458,1.907691,99,99,0,0,0,0,0
5,59999,34,50000,92,40000,41,9999,0.100000,99,0,0.000000,18,4.000000,27.540654,10.584313,99,99,0,0,0,0,0
5,59999,35,50000,8,0,40,9999,0.100000,99,0,0.000000,18,0.000000,19.417663,0.580194,99,99,0,0,0,0,0
5,59999,36,50000,24,0,0,9999,0.100000,99,0,0.066410,18,0.000000,15.650965,0.096824,99,99,0,0,0,0,1
5,59999,37,50000,17,10000,40,9999,0.100000,99,0,0.000000,18,1.000000,23.275921,13.665109,99,99,0,0,0,0,0
5,59999,38,50000,8,0,40,9999,0.100000,99,0,0.000000,18,0.000000,23.431579,0.976126,99,99,0,0,0,0,0
5,59999,39,50000,6,0,40,9999,0.100000,99,0,0.000000,18,0.000000,21.050369,1.722780,99,99,0,0,0,0,0
5,59999,40,50000,8,0,40,9999,0.100000,99,0,0.000000,18,2.000000,31.192898,4.901519,99,99,0,0,0,0,0
5,59999,41,50000,96,30000,41,9999,0.100000,99,0,0.000000,18,3.000000,27.178209,7.781911,99,99,0,0,0,0,0
5,59999,42,50000,11,0,0,9999,0.100000,99,0,0.153107,18,0.000000,23.070850,0.168511,99,99,0,1,0,0,0
5,59999,43,50000,87,0,41,9999,0.100000,99,0,0.000000,18,3.000000,27.089374,4.666714,99,99,0,0,0,0,0
5,59999,44,50000,92,40000,40,9999,0.100000,99,0,0.000000,18,0.000000,16.204647,0.967512,99,99,0,0,0,0,0
5,59999,45,50000,90,40000,41,9999,0.100000,99,0,0.000000,18,4.000000,32.924800,14.697998,99,99,0,0,0,0,0
5,59999,46,50000,96,30000,40,9999,0.100000,99,0,0.000000,18,0.000000,29.800401,1.773591,99,99,0,0,0,0,0
5,59999,47,50000,92,20000,41,9999,0.100000,99,0,0.000000,18,3.000000,15.727201,4.807719,99,99,0,0,0,0,0
5,59999,48,50000,24,0,40,9999,0.100000,99,0,0.000000,18,2.000000,27.441481,4.134022,99,99,0,0,0,0,0
5,59999,49,50000,92,40000,40,9999,0.100000,99,0,0.000000,18,0.000000,33.748715,0.363901,99,99,0,0,0,0,0
5,59999,50,50000,6,0,40,9999,0.100000,99,0,0.000000,18,0.000000,15.666287,24.866723,99,99,0,0,0,0,0
5,59999,51,50000,6,0,40,9999,0.100000,99,0,0.000000,18,1.000000,29.917413,14.078027,99,99,0,0,0,0,0
5,59999,52,50000,45,20000,40,9999,0.100000,99,0,0.000000,18,0.000000,31.696196,0.891461,99,99,0,0,0,0,0
5,59999,53,50000,87,0,40,9999,0.100000,99,0,0.000000,18,0.000000,29.821166,2.329208,99,99,0,0,0,0,0
5,59999,54,50000,17,0,40,9999,0.100000,99,0,0.000000,18,0.000000,30.055869,23.516121,99,99,0,0,0,0,0
5,59999,55,50000,7,0,40,9999,0.100000,99,0,0.000000,18,1.000000,27.106972,14.451761,99,99,0,0,0,0,0
5,59999,56,50000,11,0,40,9999,0.100000,99,0,0.000000,18,2.000000,28.224250,6.935085,99,99,0,0,0,0,0
5,59999,57,50000,11,0,40,9999,0.100000,99,0,0.000000,18,0.000000,28.710720,6.835156,99,99,0,0,0,0,0
5,59999,58,50000,92,40000,0,9999,0.100000,99,0,0.873558,18,0.000000,32.044324,9.278512,99,99,0,1,0,0,0
5,59999,59,50000,24,0,40,9999,0.100000,99,0,0.000000,18,1.000000,32.419132,6.715268,99,99,0,0,0,0,0
5,59999,60,50000,8,0,40,9999,0.100000,99,0,0.000000,18,0.000000,29.911723,0.488417,99,99,0,0,0,0,0
5,59999,61,50000,96,30000,40,9999,0.100000,99,0,0.000000,18,0.000000,23.422437,0.582737,99,99,0,0,0,0,0
5,59999,62,50000,92,20000,40,9999,0.100000,99,0,0.000000,18,0.000000,31.979368,8.243483,99,99,0,0,0,0,0
5,59999,63,50000,90,20000,40,9999,0.100000,99,0,0.000000,18,0.000000,32.105789,0.496903,99,99,0,0,0,0,0
5,59999,64,50000,87,0,40,9999,0.100000,99,0,0.000000,18,2.000000,22.897530,11.490603,99,99,0,0,0,0,0
5,59999,65,50000,87,0,0,9999,0.100000,99,0,0.763504,18,0.000000,27.467050,1.203652,99,99,0,0,0,0,1
5,59999,66,50000,2,30000,40,9999,0.100000,99,0,0.000000,18,0.000000,31.576463,7.694456,99,99,0,0,0,0,0
5,59999,67,50000,45,20000,40,9999,0.100000,99,0,0.000000,18,0.000000,24.525742,7.014411,99,99,0,0,0,0,0
5,59999,68,50000,87,0,40,9999,0.100000,99,0,0.000000,18,0.000000,16.091231,0.343516,99,99,0,0,0,0,0
5,59999,69,50000,92,40000,40,9999,0.100000,99,0,0.000000,18,0.000000,21.297652,0.111014,99,99,0,0,0,0,0
5,59999,70,50000,8,0,40,9999,0.100000,99,0,0.000000,18,0.000000,30.545696,0.526117,99,99,0,0,0,0,0
5,59999,71,50000,6,0,40,9999,0.100000,99,0,0.000000,18,0.000000,27.772312,2.533129,99,99,0,0,0,0,0
5,59999,72,50000,96,30000,40,9999,0.100000,99,0,0.000000,18,1.000000,29.172329,6.483816,99,99,0,0,0,0,0
5,59999,73,50000,8,10000,40,9999,0.100000,99,0,0.000000,18,0.000000,21.036185,2.548933,99,99,0,0,0,0,0
5,59999,74,50000,11,0,40,9999,0.100000,99,0,0.000000,18,0.000000,24.423308,0.149105,99,99,0,0,0,0,0
5,59999,75,50000,2,30000,40,9999,0.100000,99,0,0.000000,18,0.000000,30.456926,1.096032,99,99,0,0,0,0,0
5,59999,76,50000,92,20000,40,9999,0.100000,99,0,0.000000,18,1.000000,23.172414,2.546553,99,99,0,0,0,0,0
5,59999,77,50000,57,30000,40,9999,0.100000,99,0,0.000000,18,1.000000,33.097984,10.904207,99,99,0,0,0,0,0
5,59999,78,50000,87,0,40,9999,0.100000,99,0,0.000000,18,0.000000,32.040755,0.558493,99,99,0,0,0,0,0
5,59999,79,50000,90,40000,40,9999,0.100000,99,0,0.000000,18,2.000000,34.613024,14.125966,99,99,0,0,0,0,0
5,59999,80,50000,17,0,40,9999,0.100000,99,0,0.000000,18,1.000000,34.887385,12.607179,99,99,0,0,0,0,0
5,59999,81,50000,63,0,40,9999,0.100000,99,0,0.000000,18,0.000000,20.394033,3.034375,99,99,0,0,0,0,0
5,59999,82,50000,63,0,40,9999,0.100000,99,0,0.000000,18,0.000000,20.898996,0.408066,99,99,0,0,0,0,0
5,59999,83,50000,57,30000,40,9999,0.100000,99,0,0.000000,18,0.000000,30.375023,0.424125,99,99,0,0,0,0,0
5,59999,84,50000,57,30000,40,9999,0.100000,99,0,0.000000,18,0.000000,20.834196,0.327489,99,99,0,0,0,0,0
5,59999,85,50000,6,0,40,9999,0.100000,99,0,0.000000,18,0.000000,33.272406,0.512701,99,99,0,0,0,0,0
5,59999,86,50000,45,20000,40,9999,0.100000,99,0,0.000000,18,0.000000,21.506000,0.206669,99,99,0,0,0,0,0
5,59999,87,50000,92,40000,40,9999,0.100000,99,0,0.000000,18,0.000000,17.249516,0.225308,99,99,0,0,0,0,0
5,59999,88,50000,11,0,40,9999,0.100000,99,0,0.000000,18,0.000000,27.008650,1.401831,99,99,0,0,0,0,0
5,59999,89,50000,2,30000,40,9999,0.100000,99,0,0.000000,18,0.000000,26.874940,0.221075,99,99,0,0,0,0,0
5,59999,90,50000,6,0,40,9999,0.100000,99,0,0.000000,18,0.000000,10.267960,3.130332,99,99,0,0,0,0,0
5,59999,91,50000,63,0,40,9999,0.100000,99,0,0.000000,18,0.000000,20.894171,0.734351,99,99,0,0,0,0,0
5,59999,92,50000,2,30000,40,9999,0.100000,99,0,0.000000,18,0.000000,28.377186,6.571520,99,99,0,0,0,0,0
5,59999,93,50000,57,30000,40,9999,0.100000,99,0,0.000000,18,0.000000,24.671772,0.886727,99,99,0,0,0,0,0
5,59999,94,50000,63,0,40,9999,0.100000,99,0,0.000000,18,0.000000,15.931600,0.135778,99,99,0,0,0,0,0
5,59999,95,50000,8,10000,40,9999,0.100000,99,0,0.000000,18,0.000000,15.796430,0.102015,99,99,0,0,0,0,0
5,59999,96,50000,8,0,40,9999,0.100000,99,0,0.000000,18,1.000000,27.304163,8.756099,99,99,0,0,0,0,0
5,59999,97,50000,45,20000,41,9999,0.100000,99,0,0.000000,18,3.000000,28.089450,13.277503,99,99,0,0,0,0,0
5,59999,98,50000,63,0,40,9999,0.100000,99,0,0.000000,18,0.000000,23.286824,0.281022,99,99,0,0,0,0,0
5,59999,99,50000,17,10000,40,9999,0.100000,99,0,0.000000,18,2.000000,24.445295,11.343303,99,99,0,0,0,0,0
6,69999,0,60000,8,10000,40,9999,0.100000,99,0,0.000000,18,0.000000,30.054734,11.811952,99,99,0,0,0,0,0
6,69999,1,60000,96,30000,0,9999,0.100000,99,0,0.153962,18,0.000000,33.305439,1.304195,99,99,0,0,0,0,1
6,69999,2,60000,8,10000,40,9999,0.100000,99,0,0.000000,18,0.000000,32.907380,0.237380,99,99,0,0,0,0,0
6,69999,3,60000,8,0,40,9999,0.100000,99,0,0.000000,18,0.000000,29.536119,1.855027,99,99,0,0,0,0,0
6,69999,4,60000,8,10000,40,9999,0.100000,99,0,0.000000,18,0.000000,33.195542,1.549286,99,99,0,0,0,0,0
6,69999,5,60000,2,30000,0,9999,0.100000,99,0,0.003714,18,0.000000,20.887564,0.079367,99,99,0,0,1,0,0
6,69999,6,60000,90,40000,40,9999,0.100000,99,0,0.000000,18,1.000000,34.074248,11.665062,99,99,0,0,0,0,0
6,69999,7,60000,21,0,40,9999,0.100000,99,0,0.000000,18,2.000000,33.158321,5.803658,99,99,0,0,0,0,0
6,69999,8,60000,6,0,40,9999,0.100000,99,0,0.000000,18,0.000000,20.878522,2.400184,99,99,0,0,0,0,0
6,69999,9,60000,45,20000,40,9999,0.100000,99,0,0.000000,18,3.000000,29.455773,12.703806,99,99,0,0,0,0,0
6,69999,10,60000,45,20000,40,9999,0.100000,99,0,0.000000,18,0.000000,19.251365,3.666114,99,99,0,0,0,0,0
6,69999,11,60000,11,0,40,9999,0.100000,99,0,0.000000,18,1.000000,31.547294,7.465975,99,99,0,0,0,0,0
6,69999,12,60000,17,10000,41,9999,0.100000,99,0,0.000000,18,3.000000,24.939910,10.763956,99,99,0,0,0,0,0
6,69999,13,60000,7,0,41,9999,0.100000,99,0,0.000000,18,4.000000,27.203077,13.160759,99,99,0,0,0,0,0
6,69999,14,60000,7,0,0,9999,0.100000,99,0,0.128294,18,0.000000,24.668875,0.524029,99,99,0,0,1,0,0
6,69999,15,60000,96,30000,0,9999,0.100000,99,0,0.372566,18,0.000000,23.559609,5.347425,99,99,0,0,0,1,0
6,69999,16,60000,2,30000,40,9999,0.100000,99,0,0.000000,18,0.000000,29.683372,1.741040,99,99,0,0,0,0,0
6,69999,17,60000,92,40000,40,9999,0.100000,99,0,0.000000,18,2.000000,31.960645,10.235765,99,99,0,0,0,0,0
6,69999,18,60000,17,0,0,9999,0.100000,99,0,0.121359,18,0.000000,27.405033,0.160323,99,99,0,0,0,1,0
6,69999,19,60000,96,30000,40,9999,0.100000,99,0,0.000000,18,0.000000,27.732094,4.683716,99,99,0,0,0,0,0
6,69999,20,60000,17,0,40,9999,0.100000,99,0,0.000000,18,2.000000,27.872854,10.871315,99,99,0,0,0,0,0
6,69999,21,60000,45,20000,41,9999,0.100000,99,0,0.000000,18,3.000000,22.605719,20.750508,99,99,0,0,0,0,0
6,69999,22,60000,8,0,40,9999,0.100000,99,0,0.000000,18,0.000000,20.737232,1.175811,99,99,0,0,0,0,0
6,69999,23,60000,87,0,40,9999,0.100000,99,0,0.000000,18,3.000000,28.908625,15.345323,99,99,0,0,0,0,0
6,69999,24,60000,90,20000,41,9999,0.100000,99,0,0.000000,18,5.000000,26.898138,12.461729,99,99,0,0,0,0,0
6,69999,25,60000,90,20000,40,9999,0.100000,99,0,0.000000,18,0.000000,24.739887,0.344483,99,99,0,0,0,0,0
6,69999,26,60000,57,30000,0,9999,0.100000,99,0,0.023671,18,0.000000,24.196154,0.369879,99,99,0,0,1,0,0
6,69999,27,60000,8,10000,0,9999,0.100000,99,0,0.180672,18,0.000000,21.117996,0.233408,99,99,0,0,0,1,0
6,69999,28,60000,7,0,40,9999,0.100000,99,0,0.000000,18,0.000000,29.942238,0.780667,99,99,0,0,0,0,0
6,69999,29,60000,90,20000,0,9999,0.100000,99,0,0.090252,18,0.000000,19.641079,0.376695,99,99,0,0,0,0,1
6,69999,30,60000,17,0,40,9999,0.100000,99,0,0.000000,18,0.000000,38.017676,3.458798,99,99,0,0,0,0,0
6,69999,31,60000,11,0,40,9999,0.100000,99,0,0.000000,18,0.000000,24.675361,2.821131,99,99,0,0,0,0,0
6,69999,32,60000,21,0,40,9999,0.100000,99,0,0.000000,18,0.000000,33.762822,0.231003,99,99,0,0,0,0,0
6,69999,33,60000,17,10000,40,9999,0.100000,99,0,0.000000,18,0.000000,20.361536,0.430988,99,99,0,0,0,0,0
6,69999,34,60000,17,10000,40,9999,0.100000,99,0,0.000000,18,1.000000,31.525092,10.520477,99,99,0,0,0,0,0
6,69999,35,60000,6,0,40,9999,0.100000,99,0,0.000000,18,0.000000,19.401433,0.787253,99,99,0,0,0,0,0
6,69999,36,60000,2,30000,0,9999,0.100000,99,0,0.062297,18,0.000000,15.675337,0.081356,99,99,0,0,0,0,1
6,69999,37,60000,8,0,40,9999,0.100000,99,0,0.000000,18,0.000000,23.010231,16.270654,99,99,0,0,0,0,0
6,69999,38,60000,57,30000,40,9999,0.100000,99,0,0.000000,18,0.000000,22.694243,0.995591,99,99,0,0,0,0,0
6,69999,39,60000,96,30000,0,9999,0.100000,99,0,0.294190,18,0.000000,20.738306,1.664116,99,99,0,0,0,0,1
6,69999,40,60000,45,20000,40,9999,0.100000,99,0,0.000000,18,1.000000,29.327900,12.675430,99,99,0,0,0,0,0
6,69999,41,60000,6,0,40,9999,0.100000,99,0,0.000000,18,2.000000,27.526124,14.786962,99,99,0,0,0,0,0
6,69999,42,60000,17,0,0,9999,0.100000,99,0,0.159847,18,0.000000,23.042916,0.160913,99,99,0,1,0,0,0
6,69999,43,60000,57,30000,45,9999,0.100000,99,0,0.000000,18,13.000000,23.508706,13.411657,99,99,0,0,0,0,0
6,69999,44,60000,63,0,40,9999,0.100000,99,0,0.000000,18,0.000000,16.238491,0.812009,99,99,0,0,0,0,0
6,69999,45,60000,90,20000,40,9999,0.100000,99,0,0.000000,18,3.000000,35.568285,7.326569,99,99,0,0,0,0,0
6,69999,46,60000,6,0,40,9999,0.100000,99,0,0.000000,18,0.000000,29.791648,1.616394,99,99,0,0,0,0,0
6,69999,47,60000,63,0,40,9999,0.100000,99,0,0.000000,18,0.000000,12.928669,0.217111,99,99,0,0,0,0,0
6,69999,48,60000,90,20000,40,9999,0.100000,99,0,0.000000,18,0.000000,28.523316,6.471993,99,99,0,0,0,0,0
6,69999,49,60000,87,0,40,9999,0.100000,99,0,0.000000,18,0.000000,33.881931,0.319145,99,99,0,0,0,0,0
6,69999,50,60000,45,20000,40,9999,0.100000,99,0,0.000000,18,0.000000,15.941893,24.746919,99,99,0,0,0,0,0
6,69999,51,60000,87,0,40,9999,0.100000,99,0,0.000000,18,2.000000,30.892623,10.570381,99,99,0,0,0,0,0
6,69999,52,60000,63,0,40,9999,0.100000,99,0,0.000000,18,0.000000,31.975102,0.939682,99,99,0,0,0,0,0
6,69999,53,60000,92,40000,40,9999,0.100000,99,0,0.000000,18,0.000000,29.843001,0.246350,99,99,0,0,0,0,0
6,69999,54,60000,96,30000,0,9999,0.100000,99,0,0.417413,18,0.000000,29.865869,1.035562,99,99,0,0,0,1,0
6,69999,55,60000,24,0,40,9999,0.100000,99,0,0.000000,18,2.000000,27.875407,6.522862,99,99,0,0,0,0,0
6,69999,56,60000,8,0,40,9999,0.100000,99,0,0.000000,18,1.000000,30.627174,5.988379,99,99,0,0,0,0,0
6,69999,57,60000,87,0,41,9999,0.100000,99,0,0.000000,18,5.000000,28.826840,14.341351,99,99,0,0,0,0,0
6,69999,58,60000,24,0,0,9999,0.100000,99,0,0.947309,18,0.000000,31.951667,7.612217,99,99,0,1,0,0,0
6,69999,59,60000,7,0,40,9999,0.100000,99,0,0.000000,18,3.000000,32.715038,12.541852,99,99,0,0,0,0,0
6,69999,60,60000,21,0,40,9999,0.100000,99,0,0.000000,18,0.000000,29.840517,2.519128,99,99,0,0,0,0,0
6,69999,61,60000,92,40000,40,9999,0.100000,99,0,0.000000,18,0.000000,23.425062,0.321104,99,99,0,0,0,0,0
6,69999,62,60000,17,10000,40,9999,0.100000,99,0,0.000000,18,0.000000,31.808212,6.640792,99,99,0,0,0,0,0
6,69999,63,60000,17,10000,40,9999,0.100000,99,0,0.000000,18,0.000000,32.402803,0.504980,99,99,0,0,0,0,0
6,69999,64,60000,11,0,40,9999,0.100000,99,0,0.000000,18,1.000000,24.926320,5.001706,99,99,0,0,0,0,0
6,69999,65,60000,11,0,0,9999,0.100000,99,0,1.046061,18,0.000000,26.836212,0.873921,99,99,0,0,0,0,1
6,69999,66,60000,45,20000,40,9999,0.100000,99,0,0.000000,18,2.000000,32.338219,8.811127,99,99,0,0,0,0,0
6,69999,67,60000,8,10000,40,9999,0.100000,99,0,0.000000,18,1.000000,23.601318,18.349145,99,99,0,0,0,0,0
6,69999,68,60000,87,0,40,9999,0.100000,99,0,0.000000,18,0.000000,16.123231,0.345540,99,99,0,0,0,0,0
6,69999,69,60000,63,0,40,9999,0.100000,99,0,0.000000,18,0.000000,21.293861,0.111372,99,99,0,0,0,0,0
6,69999,70,60000,45,20000,40,9999,0.100000,99,0,0.000000,18,1.000000,30.381768,19.539697,99,99,0,0,0,0,0
6,69999,71,60000,2,30000,40,9999,0.100000,99,0,0.000000,18,0.000000,27.185182,0.884975,99,99,0,0,0,0,0
6,69999,72,60000,17,0,40,9999,0.100000,99,0,0.000000,18,2.000000,28.823774,9.992462,99,99,0,0,0,0,0
6,69999,73,60000,7,0,40,9999,0.100000,99,0,0.000000,18,0.000000,21.008731,0.312420,99,99,0,0,0,0,0
6,69999,74,60000,17,0,40,9999,0.100000,99,0,0.000000,18,0.000000,24.402100,0.117391,99,99,0,0,0,0,0
6,69999,75,60000,2,30000,40,9999,0.100000,99,0,0.000000,18,1.000000,30.270760,4.026335,99,99,0,0,0,0,0
6,69999,76,60000,90,40000,40,9999,0.100000,99,0,0.000000,18,0.000000,21.912794,0.580351,99,99,0,0,0,0,0
6,69999,77,60000,8,10000,40,9999,0.100000,99,0,0.000000,18,0.000000,33.096589,2.904497,99,99,0,0,0,0,0
6,69999,78,60000,11,0,40,9999,0.100000,99,0,0.000000,18,0.000000,32.336928,0.589651,99,99,0,0,0,0,0
6,69999,79,60000,17,10000,40,9999,0.100000,99,0,0.000000,18,2.000000,35.900594,7.914349,99,99,0,0,0,0,0
6,69999,80,60000,90,20000,40,9999,0.100000,99,0,0.000000,18,2.000000,34.354711,9.186171,99,99,0,0,0,0,0
6,69999,81,60000,90,20000,40,9999,0.100000,99,0,0.000000,18,0.000000,20.071956,1.866024,99,99,0,0,0,0,0
6,69999,82,60000,8,0,40,9999,0.100000,99,0,0.000000,18,0.000000,20.800536,1.164735,99,99,0,0,0,0,0
6,69999,83,60000,11,0,40,9999,0.100000,99,0,0.000000,18,1.000000,30.237520,5.007647,99,99,0,0,0,0,0
6,69999,84,60000,6,0,40,9999,0.100000,99,0,0.000000,18,0.000000,20.845682,0.310574,99,99,0,0,0,0,0
6,69999,85,60000,17,10000,40,9999,0.100000,99,0,0.000000,18,0.000000,33.397410,0.134330,99,99,0,0,0,0,0
6,69999,86,60000,57,30000,40,9999,0.100000,99,0,0.000000,18,0.000000,21.544059,0.235368,99,99,0,0,0,0,0
6,69999,87,60000,7,0,40,9999,0.100000,99,0,0.000000,18,0.000000,17.246771,0.242263,99,99,0,0,0,0,0
6,69999,88,60000,17,10000,40,9999,0.100000,99,0,0.000000,18,2.000000,26.575772,6.298470,99,99,0,0,0,0,0
6,69999,89,60000,21,0,40,9999,0.100000,99,0,0.000000,18,0.000000,26.910249,0.129483,99,99,0,0,0,0,0
6,69999,90,60000,57,30000,40,9999,0.100000,99,0,0.000000,18,0.000000,10.257880,0.110324,99,99,0,0,0,0,0
6,69999,91,60000,21,0,40,9999,0.100000,99,0,0.000000,18,0.000000,20.903007,0.777113,99,99,0,0,0,0,0
6,69999,92,60000,6,0,40,9999,0.100000,99,0,0.000000,18,1.000000,28.344444,14.317727,99,99,0,0,0,0,0
6,69999,93,60000,17,0,40,9999,0.100000,99,0,0.000000,18,0.000000,24.856193,0.730542,99,99,0,0,0,0,0
6,69999,94,60000,8,0,40,9999,0.100000,99,0,0.000000,18,0.000000,15.961517,0.131640,99,99,0,0,0,0,0
6,69999,95,60000,87,0,40,9999,0.100000,99,0,0.000000,18,0.000000,15.824030,0.090406,99,99,0,0,0,0,0
6,69999,96,60000,90,20000,40,9999,0.100000,99,0,0.000000,18,2.000000,28.274080,5.533713,99,99,0,0,0,0,0
6,69999,97,60000,87,0,40,9999,0.100000,99,0,0.000000,18,1.000000,26.601894,15.564948,99,99,0,0,0,0,0
6,69999,98,60000,7,0,40,9999,0.100000,99,0,0.000000,18,0.000000,23.270178,0.326978,99,99,0,0,0,0,0
6,69999,99,60000,87,0,41,9999,0.100000,99,0,0.000000,18,4.000000,26.223066,9.436680,99,99,0,0,0,0,0
7,79999,0,70000,6,0,0,9999,0.100000,99,0,0.045897,18,0.000000,29.699306,2.461134,99,99,0,0,0,1,0
7,79999,1,70000,92,40000,40,9999,0.100000,99,0,0.000000,18,3.000000,33.180575,12.765162,99,99,0,0,0,0,0
7,79999,2,70000,63,0,40,9999,0.100000,99,0,0.000000,18,0.000000,32.908344,0.256982,99,99,0,0,0,0,0
7,79999,3,70000,2,30000,40,9999,0.100000,99,0,0.000000,19,0.000000,29.561765,1.651170,99,99,0,0,0,0,0
7,79999,4,70000,6,0,0,9999,0.100000,99,0,2.540074,19,0.000000,33.524782,2.402246,99,99,0,1,0,0,0
7,79999,5,70000,11,0,0,9999,0.100000,99,0,0.001162,18,0.000000,20.886183,0.081401,99,99,0,0,1,0,0
7,79999,6,70000,8,0,40,9999,0.100000,99,0,0.000000,19,2.000000,33.764841,7.523705,99,99,0,0,0,0,0
7,79999,7,70000,24,0,40,9999,0.100000,99,0,0.000000,19,2.000000,31.288605,3.754526,99,99,0,0,0,0,0
7,79999,8,70000,96,30000,0,9999,0.100000,99,0,0.180344,18,0.000000,20.642138,1.398701,99,99,0,0,0,0,1
7,79999,9,70000,21,0,40,9999,0.100000,99,0,0.000000,18,1.000000,26.796506,6.750550,99,99,0,0,0,0,0
7,79999,10,70000,92,40000,40,9999,0.100000,99,0,0.000000,19,0.000000,19.143278,2.881070,99,99,0,0,0,0,0
7,79999,11,70000,92,40000,40,9999,0.100000,99,0,0.000000,19,0.000000,33.104437,7.207677,99,99,0,0,0,0,0
7,79999,12,70000,45,20000,40,9999,0.100000,99,0,0.000000,19,0.000000,27.634924,13.168747,99,99,0,0,0,0,0
7,79999,13,70000,24,0,40,9999,0.100000,99,0,0.000000,18,0.000000,28.294161,2.618564,99,99,0,0,0,0,0
7,79999,14,70000,6,0,0,9999,0.100000,99,0,2.815604,19,0.000000,24.643899,0.922960,99,99,0,0,1,0,0
7,79999,15,70000,2,30000,0,9999,0.100000,99,0,0.205420,19,0.000000,23.474634,0.727721,99,99,0,0,0,1,0
7,79999,16,70000,57,30000,40,9999,0.100000,99,0,0.000000,18,0.000000,29.699010,1.493675,99,99,0,0,0,0,0
7,79999,17,70000,17,0,40,9999,0.100000,99,0,0.000000,19,2.000000,30.829095,9.779114,99,99,0,0,0,0,0
7,79999,18,70000,7,0,0,9999,0.100000,99,0,0.005052,18,0.000000,27.411696,0.112901,99,99,0,0,0,1,0
7,79999,19,70000,90,20000,40,9999,0.100000,99,0,0.000000,19,1.000000,26.994013,10.765077,99,99,0,0,0,0,0
7,79999,20,70000,24,0,40,9999,0.100000,99,0,0.000000,19,0.000000,28.769386,4.094574,99,99,0,0,0,0,0
7,79999,21,70000,87,0,40,9999,0.100000,99,0,0.000000,18,2.000000,22.948875,21.765762,99,99,0,0,0,0,0
7,79999,22,70000,92,40000,40,9999,0.100000,99,0,0.000000,19,1.000000,20.692716,8.033251,99,99,0,0,0,0,0
7,79999,23,70000,45,20000,40,9999,0.100000,99,0,0.000000,19,2.000000,26.255051,10.413581,99,99,0,0,0,0,0
7,79999,24,70000,63,0,41,9999,0.100000,99,0,0.000000,18,5.000000,30.578262,11.452275,99,99,0,0,0,0,0
7,79999,25,70000,21,0,40,9999,0.100000,99,0,0.000000,19,0.000000,24.732701,0.801198,99,99,0,0,0,0,0
7,79999,26,70000,21,0,1,9999,0.100000,99,0,22.323701,18,3.000000,24.198113,6.416118,99,99,0,0,1,0,0
7,79999,27,70000,45,20000,0,9999,0.100000,99,0,0.184661,19,0.000000,21.219385,0.282899,99,99,0,0,0,1,0
7,79999,28,70000,8,0,40,9999,0.100000,99,0,0.000000,19,2.000000,29.954914,3.635774,99,99,0,0,0,0,0
7,79999,29,70000,63,0,0,9999,0.100000,99,0,0.014995,19,0.000000,19.518785,0.170404,99,99,0,0,0,0,1
7,79999,30,70000,2,30000,40,9999,0.100000,99,0,0.000000,18,0.000000,38.016175,3.574834,99,99,0,0,0,0,0
7,79999,31,70000,63,0,40,9999,0.100000,99,0,0.000000,19,2.000000,24.811866,18.597045,99,99,0,0,0,0,0
7,79999,32,70000,96,30000,40,9999,0.100000,99,0,0.000000,19,0.000000,33.764120,0.247650,99,99,0,0,0,0,0
7,79999,33,70000,8,10000,40,9999,0.100000,99,0,0.000000,19,0.000000,20.228301,0.380030,99,99,0,0,0,0,0
7,79999,34,70000,24,0,40,9999,0.100000,99,0,0.000000,19,1.000000,30.952360,3.820827,99,99,0,0,0,0,0
7,79999,35,70000,92,40000,40,9999,0.100000,99,0,0.000000,19,0.000000,19.295339,0.748013,99,99,0,0,0,0,0
7,79999,36,70000,7,0,0,9999,0.100000,99,0,0.057091,19,0.000000,15.690522,0.082400,99,99,0,0,0,0,1
7,79999,37,70000,6,0,40,9999,0.100000,99,0,0.000000,19,0.000000,23.008291,3.169866,99,99,0,0,0,0,0
7,79999,38,70000,6,0,40,9999,0.100000,99,0,0.000000,18,0.000000,21.941544,0.968500,99,99,0,0,0,0,0
7,79999,39,70000,57,30000,40,9999,0.100000,99,0,0.000000,19,0.000000,20.915793,0.877590,99,99,0,0,0,0,0
7,79999,40,70000,6,0,40,9999,0.100000,99,0,0.000000,19,1.000000,29.506052,17.132502,99,99,0,0,0,0,0
7,79999,41,70000,90,20000,41,9999,0.100000,99,0,0.000000,19,4.000000,26.690849,9.101949,99,99,0,0,0,0,0
7,79999,42,70000,45,20000,0,9999,0.100000,99,0,0.151492,18,0.000000,23.012477,0.163162,99,99,0,1,0,0,0
7,79999,43,70000,2,30000,40,9999,0.100000,99,0,0.000000,19,0.000000,10.514031,0.173627,99,99,0,0,0,0,0
7,79999,44,70000,45,20000,40,9999,0.100000,99,0,0.000000,19,0.000000,16.258760,0.806579,99,99,0,0,0,0,0
7,79999,45,70000,17,0,40,9999,0.100000,99,0,0.000000,19,1.000000,33.131467,9.047101,99,99,0,0,0,0,0
7,79999,46,70000,17,10000,40,9999,0.100000,99,0,0.000000,19,1.000000,29.808090,3.333707,99,99,0,0,0,0,0
7,79999,47,70000,8,10000,40,9999,0.100000,99,0,0.000000,19,0.000000,12.928786,0.216823,99,99,0,0,0,0,0
7,79999,48,70000,43,60000,40,9999,0.100000,99,0,0.000000,19,2.000000,28.775342,14.139778,99,99,0,0,0,0,0
7,79999,49,70000,45,20000,0,9999,0.100000,99,0,0.300131,19,0.000000,33.905603,0.139292,99,99,0,0,0,0,1
7,79999,50,70000,17,0,40,9999,0.100000,99,0,0.000000,18,0.000000,15.992909,24.873854,99,99,0,0,0,0,0
7,79999,51,70000,92,40000,40,9999,0.100000,99,0,0.000000,19,1.000000,29.398063,5.640292,99,99,0,0,0,0,0
7,79999,52,70000,24,0,40,9999,0.100000,99,0,0.000000,19,0.000000,32.285391,9.532644,99,99,0,0,0,0,0
7,79999,53,70000,57,30000,40,9999,0.100000,99,0,0.000000,18,0.000000,29.843171,0.203960,99,99,0,0,0,0,0
7,79999,54,70000,17,10000,40,9999,0.100000,99,0,0.000000,19,0.000000,30.350849,0.942010,99,99,0,0,0,0,0
7,79999,55,70000,7,0,40,9999,0.100000,99,0,0.000000,19,2.000000,29.166050,11.008685,99,99,0,0,0,0,0
7,79999,56,70000,17,0,40,9999,0.100000,99,0,0.000000,18,1.000000,29.217533,11.184719,99,99,0,0,0,0,0
7,79999,57,70000,17,10000,40,9999,0.100000,99,0,0.000000,19,2.000000,23.621469,18.374404,99,99,0,0,0,0,0
7,79999,58,70000,7,0,0,9999,0.100000,99,0,0.817736,19,0.000000,31.858398,6.809851,99,99,0,1,0,0,0
7,79999,59,70000,57,30000,40,9999,0.100000,99,0,0.000000,19,0.000000,30.727616,13.024154,99,99,0,0,0,0,0
7,79999,60,70000,21,0,40,9999,0.100000,99,0,0.000000,19,0.000000,30.083301,1.023265,99,99,0,0,0,0,0
7,79999,61,70000,6,0,40,9999,0.100000,99,0,0.000000,19,0.000000,23.328734,0.728288,99,99,0,0,0,0,0
7,79999,62,70000,45,20000,40,9999,0.100000,99,0,0.000000,19,0.000000,31.726198,6.679037,99,99,0,0,0,0,0
7,79999,63,70000,11,0,41,9999,0.100000,99,0,0.000000,19,6.000000,32.698702,15.013157,99,99,0,0,0,0,0
7,79999,64,70000,90,20000,41,9999,0.100000,99,0,0.000000,19,3.000000,24.199945,18.668728,99,99,0,0,0,0,0
7,79999,65,70000,90,20000,0,9999,0.100000,99,0,0.533324,19,0.000000,27.427644,0.159740,99,99,0,0,0,0,1
7,79999,66,70000,6,0,40,9999,0.100000,99,0,0.000000,19,2.000000,30.175326,13.041853,99,99,0,0,0,0,0
7,79999,67,70000,45,20000,40,9999,0.100000,99,0,0.000000,19,2.000000,23.502898,14.625771,99,99,0,0,0,0,0
7,79999,68,70000,8,10000,40,9999,0.100000,99,0,0.000000,19,0.000000,16.143068,0.367993,99,99,0,0,0,0,0
7,79999,69,70000,17,10000,40,9999,0.100000,99,0,0.000000,19,0.000000,21.291055,0.112634,99,99,0,0,0,0,0
7,79999,70,70000,21,0,40,9999,0.100000,99,0,0.000000,19,1.000000,29.501211,13.325777,99,99,0,0,0,0,0
7,79999,71,70000,6,0,40,9999,0.100000,99,0,0.000000,19,0.000000,27.832747,0.363947,99,99,0,0,0,0,0
7,79999,72,70000,45,20000,40,9999,0.100000,99,0,0.000000,19,2.000000,27.971663,12.217999,99,99,0,0,0,0,0
7,79999,73,70000,7,0,40,9999,0.100000,99,0,0.000000,19,0.000000,21.040303,0.507536,99,99,0,0,0,0,0
7,79999,74,70000,87,0,41,9999,0.100000,99,0,0.000000,19,3.000000,24.405226,5.575952,99,99,0,0,0,0,0
7,79999,75,70000,57,30000,40,9999,0.100000,99,0,0.000000,19,1.000000,29.935185,2.036895,99,99,0,0,0,0,0
7,79999,76,70000,8,10000,40,9999,0.100000,99,0,0.000000,19,0.000000,21.880006,1.173278,99,99,0,0,0,0,0
7,79999,77,70000,2,30000,40,9999,0.100000,99,0,0.000000,19,1.000000,33.323542,7.502804,99,99,0,0,0,0,0
7,79999,78,70000,90,20000,41,9999,0.100000,99,0,0.000000,19,6.000000,32.632649,15.061431,99,99,0,0,0,0,0
7,79999,79,70000,92,40000,40,9999,0.100000,99,0,0.000000,18,0.000000,33.949069,6.534102,99,99,0,0,0,0,0
7,79999,80,70000,90,40000,40,9999,0.100000,99,0,0.000000,19,2.000000,31.499559,12.947821,99,99,0,0,0,0,0
7,79999,81,70000,90,20000,40,9999,0.100000,99,0,0.000000,19,0.000000,19.919520,0.435981,99,99,0,0,0,0,0
7,79999,82,70000,57,30000,40,9999,0.100000,99,0,0.000000,19,0.000000,20.805511,3.140877,99,99,0,0,0,0,0
7,79999,83,70000,21,0,40,9999,0.100000,99,0,0.000000,19,1.000000,29.790019,2.254120,99,99,0,0,0,0,0
7,79999,84,70000,24,0,40,9999,0.100000,99,0,0.000000,19,0.000000,20.950505,0.471241,99,99,0,0,0,0,0
7,79999,85,70000,21,0,40,9999,0.100000,99,0,0.000000,19,0.000000,33.414050,0.236347,99,99,0,0,0,0,0
7,79999,86,70000,17,10000,40,9999,0.100000,99,0,0.000000,19,0.000000,21.627463,0.255050,99,99,0,0,0,0,0
7,79999,87,70000,90,40000,40,9999,0.100000,99,0,0.000000,19,0.000000,17.245999,0.242345,99,99,0,0,0,0,0
7,79999,88,70000,2,30000,41,9999,0.100000,99,0,0.000000,19,3.000000,24.265223,8.785959,99,99,0,0,0,0,0
7,79999,89,70000,90,40000,40,9999,0.100000,99,0,0.000000,19,0.000000,26.917279,0.109036,99,99,0,0,0,0,0
7,79999,90,70000,21,0,40,9999,0.100000,99,0,0.000000,18,0.000000,10.254656,0.110452,99,99,0,0,0,0,0
7,79999,91,70000,96,30000,40,9999,0.100000,99,0,0.000000,19,0.000000,21.007325,1.035462,99,99,0,0,0,0,0
7,79999,92,70000,24,0,40,9999,0.100000,99,0,0.000000,19,1.000000,27.281347,3.309864,99,99,0,0,0,0,0
7,79999,93,70000,7,0,40,9999,0.100000,99,0,0.000000,19,0.000000,24.868834,1.118365,99,99,0,0,0,0,0
7,79999,94,70000,90,20000,40,9999,0.100000,99,0,0.000000,19,0.000000,15.980344,0.132354,99,99,0,0,0,0,0
7,79999,95,70000,87,0,40,9999,0.100000,99,0,0.000000,19,0.000000,15.841285,0.088424,99,99,0,0,0,0,0
7,79999,96,70000,6,0,41,9999,0.100000,99,0,27.799555,19,6.000000,30.378423,12.133288,99,99,0,0,0,0,0
7,79999,97,70000,17,10000,40,9999,0.100000,99,0,0.000000,19,1.000000,26.877505,10.348674,99,99,0,0,0,0,0
7,79999,98,70000,8,10000,40,9999,0.100000,99,0,0.000000,19,0.000000,23.170026,0.545598,99,99,0,0,0,0,0
7,79999,99,70000,6,0,40,9999,0.100000,99,0,0.000000,19,2.000000,23.000515,12.297190,99,99,0,0,0,0,0
8,89999,0,80000,17,0,0,9999,0.100000,99,0,1.573256,19,0.000000,30.499584,0.387019,99,99,0,0,0,1,0
8,89999,1,80000,8,0,40,9999,0.100000,99,0,0.000000,19,1.000000,32.272534,17.084155,99,99,0,0,0,0,0
8,89999,2,80000,43,60000,40,9999,0.100000,99,0,0.000000,19,0.000000,32.911897,0.235172,99,99,0,0,0,0,0
8,89999,3,80000,11,0,40,9999,0.100000,99,0,0.000000,19,0.000000,29.559408,1.579311,99,99,0,0,0,0,0
8,89999,4,80000,43,60000,0,9999,0.100000,99,0,0.546073,19,0.000000,32.849897,0.785119,99,99,0,1,0,0,0
8,89999,5,80000,92,40000,0,9999,0.100000,99,0,0.239797,19,0.000000,20.884173,0.173276,99,99,0,0,1,0,0
8,89999,6,80000,96,70000,40,9999,0.100000,99,0,0.000000,19,3.000000,31.995188,10.922140,99,99,0,0,0,0,0
8,89999,7,80000,24,0,0,9999,0.100000,99,0,0.025541,19,0.000000,33.074215,2.149140,99,99,0,0,0,0,1
8,89999,8,80000,17,10000,0,9999,0.100000,99,0,0.579393,19,0.000000,20.902783,0.291852,99,99,0,0,0,0,1
8,89999,9,80000,21,0,40,9999,0.100000,99,0,0.000000,19,1.000000,27.705795,6.042384,99,99,0,0,0,0,0
8,89999,10,80000,96,70000,40,9999,0.100000,99,0,0.000000,19,0.000000,19.062497,2.393418,99,99,0,0,0,0,0
8,89999,11,80000,2,30000,40,9999,0.100000,99,0,0.000000,19,0.000000,33.629609,6.826687,99,99,0,0,0,0,0
8,89999,12,80000,87,0,41,9999,0.100000,99,0,0.000000,19,3.000000,28.117600,16.184320,99,99,0,0,0,0,0
8,89999,13,80000,92,40000,40,9999,0.100000,99,0,0.000000,19,0.000000,28.433401,5.777972,99,99,0,0,0,0,0
8,89999,14,80000,2,30000,0,9999,0.100000,99,0,4.034732,19,0.000000,25.183561,1.068315,99,99,0,0,1,0,0
8,89999,15,80000,90,20000,2,9999,0.100000,99,0,3.110559,19,7.000000,23.378233,7.825257,99,99,0,0,0,1,0
8,89999,16,80000,96,30000,40,9999,0.100000,99,0,0.000000,19,0.000000,29.698281,1.329004,99,99,0,0,0,0,0
8,89999,17,80000,87,0,41,9999,0.100000,99,0,0.000000,19,4.000000,29.627194,14.212508,99,99,0,0,0,0,0
8,89999,18,80000,92,40000,0,9999,0.100000,99,0,0.025982,19,0.000000,27.408949,0.168051,99,99,0,0,0,1,0
8,89999,19,80000,92,40000,40,9999,0.100000,99,0,0.000000,19,3.000000,28.825623,10.634472,99,99,0,0,0,0,0
8,89999,20,80000,6,0,40,9999,0.100000,99,0,0.000000,19,3.000000,28.704430,18.691363,99,99,0,0,0,0,0
8,89999,21,80000,6,0,40,9999,0.100000,99,0,0.000000,19,2.000000,22.247484,16.310370,99,99,0,0,0,0,0
8,89999,22,80000,24,0,40,9999,0.100000,99,0,0.000000,19,0.000000,20.959375,7.502744,99,99,0,0,0,0,0
8,89999,23,80000,63,0,40,9999,0.100000,99,0,0.000000,19,2.000000,24.000793,12.996400,99,99,0,0,0,0,0
8,89999,24,80000,6,0,40,9999,0.100000,99,0,0.000000,19,1.000000,35.778553,4.392682,99,99,0,0,0,0,0
8,89999,25,80000,90,40000,40,9999,0.100000,99,0,0.000000,19,0.000000,25.252329,0.919532,99,99,0,0,0,0,0
8,89999,26,80000,45,20000,0,9999,0.100000,99,0,1.446113,19,0.000000,24.119343,0.660470,99,99,0,0,1,0,0
8,89999,27,80000,90,40000,0,9999,0.100000,99,0,0.088824,19,0.000000,21.336040,3.836522,99,99,0,0,0,1,0
8,89999,28,80000,24,0,40,9999,0.100000,99,0,0.000000,19,1.000000,27.905146,4.749121,99,99,0,0,0,0,0
8,89999,29,80000,8,10000,0,9999,0.100000,99,0,0.485252,19,0.000000,19.432067,0.237743,99,99,0,0,0,0,1
8,89999,30,80000,8,10000,40,9999,0.100000,99,0,0.000000,19,0.000000,38.017336,3.473215,99,99,0,0,0,0,0
8,89999,31,80000,17,0,40,9999,0.100000,99,0,0.000000,19,1.000000,25.566752,9.637633,99,99,0,0,0,0,0
8,89999,32,80000,8,10000,40,9999,0.100000,99,0,0.000000,19,0.000000,33.765150,0.238718,99,99,0,0,0,0,0
8,89999,33,80000,24,0,40,9999,0.100000,99,0,0.000000,19,0.000000,20.114810,0.435262,99,99,0,0,0,0,0
8,89999,34,80000,6,0,40,9999,0.100000,99,0,0.000000,19,1.000000,31.826305,13.076962,99,99,0,0,0,0,0
8,89999,35,80000,87,0,40,9999,0.100000,99,0,0.000000,19,0.000000,19.219351,0.707803,99,99,0,0,0,0,0
8,89999,36,80000,92,40000,0,9999,0.100000,99,0,0.080935,19,0.000000,15.706405,0.092031,99,99,0,0,0,0,1
8,89999,37,80000,7,0,42,9999,0.100000,99,0,0.000000,19,7.000000,22.800231,7.739998,99,99,0,0,0,0,0
8,89999,38,80000,11,0,40,9999,0.100000,99,0,0.000000,19,0.000000,21.203548,0.932175,99,99,0,0,0,0,0
8,89999,39,80000,92,40000,40,9999,0.100000,99,0,0.000000,19,1.000000,21.130993,13.999076,99,99,0,0,0,0,0
8,89999,40,80000,57,30000,40,9999,0.100000,99,0,0.000000,19,2.000000,28.474226,16.900864,99,99,0,0,0,0,0
8,89999,41,80000,17,10000,40,9999,0.100000,99,0,0.000000,19,0.000000,30.044329,0.137439,99,99,0,0,0,0,0
8,89999,42,80000,45,20000,0,9999,0.100000,99,0,4.045315,19,1.000000,22.983397,1.794292,99,99,0,1,0,0,0
8,89999,43,80000,8,10000,40,9999,0.100000,99,0,0.000000,19,0.000000,10.489294,0.184978,99,99,0,0,0,0,0
8,89999,44,80000,7,0,40,9999,0.100000,99,0,0.000000,19,0.000000,16.280952,1.074472,99,99,0,0,0,0,0
8,89999,45,80000,24,0,40,9999,0.100000,99,0,0.000000,19,2.000000,31.867067,5.386633,99,99,0,0,0,0,0
8,89999,46,80000,2,30000,40,9999,0.100000,99,0,0.000000,19,1.000000,28.802099,2.850258,99,99,0,0,0,0,0
8,89999,47,80000,45,20000,40,9999,0.100000,99,0,0.000000,19,0.000000,12.926540,0.211089,99,99,0,0,0,0,0
8,89999,48,80000,11,0,41,9999,0.100000,99,0,0.000000,19,5.000000,30.230088,13.981477,99,99,0,0,0,0,0
8,89999,49,80000,43,60000,40,9999,0.100000,99,0,0.000000,19,0.000000,33.921655,0.118449,99,99,0,0,0,0,0
8,89999,50,80000,2,30000,40,9999,0.100000,99,0,0.000000,19,0.000000,16.006940,24.616746,99,99,0,0,0,0,0
8,89999,51,80000,2,30000,40,9999,0.100000,99,0,0.000000,19,0.000000,28.901615,4.172601,99,99,0,0,0,0,0
8,89999,52,80000,8,0,40,9999,0.100000,99,0,0.000000,19,1.000000,31.837645,13.682650,99,99,0,0,0,0,0
8,89999,53,80000,8,10000,40,9999,0.100000,99,0,0.000000,19,0.000000,29.843113,0.204197,99,99,0,0,0,0,0
8,89999,54,80000,45,20000,40,9999,0.100000,99,0,0.000000,19,0.000000,30.731735,0.543557,99,99,0,0,0,0,0
8,89999,55,80000,17,0,40,9999,0.100000,99,0,0.000000,19,3.000000,29.372812,9.098420,99,99,0,0,0,0,0
8,89999,56,80000,6,0,40,9999,0.100000,99,0,0.000000,19,2.000000,28.227906,14.953887,99,99,0,0,0,0,0
8,89999,57,80000,92,40000,41,9999,0.100000,99,0,0.000000,19,4.000000,22.714406,21.590962,99,99,0,0,0,0,0
8,89999,58,80000,63,0,0,9999,0.100000,99,0,1.140627,19,1.000000,31.705863,10.063189,99,99,0,1,0,0,0
8,89999,59,80000,7,0,40,9999,0.100000,99,0,0.000000,19,2.000000,30.764466,7.178729,99,99,0,0,0,0,0
8,89999,60,80000,21,0,40,9999,0.100000,99,0,0.000000,19,0.000000,30.274918,0.690766,99,99,0,0,0,0,0
8,89999,61,80000,92,40000,42,9999,0.100000,99,0,0.000000,19,7.000000,23.182810,7.764209,99,99,0,0,0,0,0
8,89999,62,80000,24,0,40,9999,0.100000,99,0,0.000000,19,1.000000,31.632331,9.579186,99,99,0,0,0,0,0
8,89999,63,80000,21,0,42,9999,0.100000,99,0,0.000000,19,7.000000,29.956842,14.755224,99,99,0,0,0,0,0
8,89999,64,80000,43,60000,40,9999,0.100000,99,0,0.000000,19,1.000000,22.665720,13.644104,99,99,0,0,0,0,0
8,89999,65,80000,92,40000,0,9999,0.100000,99,0,0.325905,19,0.000000,27.546062,0.101618,99,99,0,0,0,0,1
8,89999,66,80000,24,0,40,9999,0.100000,99,0,0.000000,19,0.000000,32.302271,4.623579,99,99,0,0,0,0,0
8,89999,67,80000,45,20000,40,9999,0.100000,99,0,0.000000,19,1.000000,23.392735,12.372376,99,99,0,0,0,0,0
8,89999,68,80000,92,40000,40,9999,0.100000,99,0,0.000000,19,0.000000,16.163703,0.381750,99,99,0,0,0,0,0
8,89999,69,80000,7,0,40,9999,0.100000,99,0,0.000000,19,0.000000,21.287208,0.245499,99,99,0,0,0,0,0
8,89999,70,80000,90,40000,40,9999,0.100000,99,0,0.000000,19,0.000000,30.224853,1.723290,99,99,0,0,0,0,0
8,89999,71,80000,57,30000,40,9999,0.100000,99,0,0.000000,19,0.000000,27.988957,0.314170,99,99,0,0,0,0,0
8,89999,72,80000,24,0,41,9999,0.100000,99,0,0.000000,19,3.000000,27.181635,9.526327,99,99,0,0,0,0,0
8,89999,73,80000,8,0,44,9999,0.100000,99,0,0.000000,19,9.000000,21.257562,13.882097,99,99,0,0,0,0,0
8,89999,74,80000,43,60000,40,9999,0.100000,99,0,0.000000,19,0.000000,24.373011,0.788229,99,99,0,0,0,0,0
8,89999,75,80000,17,10000,40,9999,0.100000,99,0,0.000000,19,0.000000,30.751614,1.002996,99,99,0,0,0,0,0
8,89999,76,80000,17,10000,41,9999,0.100000,99,0,0.000000,19,4.000000,22.031457,6.153948,99,99,0,0,0,0,0
8,89999,77,80000,8,10000,40,9999,0.100000,99,0,0.000000,19,0.000000,33.203755,0.961834,99,99,0,0,0,0,0
8,89999,78,80000,90,20000,41,9999,0.100000,99,0,0.000000,19,5.000000,29.843333,12.908914,99,99,0,0,0,0,0
8,89999,79,80000,43,60000,40,9999,0.100000,99,0,0.000000,19,0.000000,34.439369,13.237440,99,99,0,0,0,0,0
8,89999,80,80000,2,30000,40,9999,0.100000,99,0,0.000000,19,3.000000,33.608897,10.912356,99,99,0,0,0,0,0
8,89999,81,80000,8,0,40,9999,0.100000,99,0,0.000000,19,0.000000,19.805908,0.581648,99,99,0,0,0,0,0
8,89999,82,80000,6,0,40,9999,0.100000,99,0,0.000000,19,0.000000,21.029281,4.566450,99,99,0,0,0,0,0
8,89999,83,80000,8,10000,40,9999,0.100000,99,0,0.000000,19,0.000000,30.583948,1.904925,99,99,0,0,0,0,0
8,89999,84,80000,17,0,40,9999,0.100000,99,0,0.000000,19,1.000000,21.062259,8.073605,99,99,0,0,0,0,0
8,89999,85,80000,21,0,40,9999,0.100000,99,0,0.000000,19,0.000000,33.434037,0.151895,99,99,0,0,0,0,0
8,89999,86,80000,11,0,40,9999,0.100000,99,0,0.000000,19,0.000000,21.721825,0.477780,99,99,0,0,0,0,0
8,89999,87,80000,8,10000,40,9999,0.100000,99,0,0.000000,19,0.000000,17.245220,0.243180,99,99,0,0,0,0,0
8,89999,88,80000,63,0,40,9999,0.100000,99,0,0.000000,19,0.000000,23.872072,0.658692,99,99,0,0,0,0,0
8,89999,89,80000,2,30000,40,9999,0.100000,99,0,0.000000,19,0.000000,26.914885,0.106930,99,99,0,0,0,0,0
8,89999,90,80000,90,40000,40,9999,0.100000,99,0,0.000000,19,0.000000,10.254640,0.111887,99,99,0,0,0,0,0
8,89999,91,80000,2,30000,40,9999,0.100000,99,0,0.000000,19,2.000000,21.095955,9.035050,99,99,0,0,0,0,0
8,89999,92,80000,6,0,40,9999,0.100000,99,0,0.000000,19,2.000000,28.252521,15.134924,99,99,0,0,0,0,0
8,89999,93,80000,11,0,40,9999,0.100000,99,0,0.000000,19,0.000000,25.348176,1.233476,99,99,0,0,0,0,0
8,89999,94,80000,11,0,40,9999,0.100000,99,0,0.000000,19,0.000000,15.999916,0.124620,99,99,0,0,0,0,0
8,89999,95,80000,63,0,40,9999,0.100000,99,0,0.000000,19,0.000000,15.859245,0.092235,99,99,0,0,0,0,0
8,89999,96,80000,57,30000,94,9999,0.100000,99,0,63.042643,19,12.000000,24.325243,15.684330,99,99,1,0,0,0,0
8,89999,97,80000,7,0,41,9999,0.100000,99,0,0.000000,19,5.000000,26.344446,17.654219,99,99,0,0,0,0,0
8,89999,98,80000,24,0,42,9999,0.100000,99,0,0.000000,19,7.000000,22.968215,7.572879,99,99,0,0,0,0,0
8,89999,99,80000,45,20000,40,9999,0.100000,99,0,0.000000,19,1.000000,23.116527,13.165285,99,99,0,0,0,0,0
9,99999,0,90000,90,20000,0,9999,0.100000,99,0,1.752090,19,0.000000,30.579399,0.643203,99,99,0,0,0,1,0
9,99999,1,90000,45,20000,40,9999,0.100000,99,0,0.000000,19,0.000000,31.568895,21.867657,99,99,0,0,0,0,0
9,99999,2,90000,11,0,40,9999,0.100000,99,0,0.000000,19,0.000000,32.911239,0.255636,99,99,0,0,0,0,0
9,99999,3,90000,57,30000,40,9999,0.100000,99,0,0.000000,19,0.000000,29.549127,0.379093,99,99,0,0,0,0,0
9,99999,4,90000,24,0,0,9999,0.100000,99,0,0.143898,21,0.000000,32.778390,2.578411,99,99,0,1,0,0,0
9,99999,5,90000,7,0,0,9999,0.100000,99,0,0.001086,21,0.000000,20.838957,0.126875,99,99,0,0,1,0,0
9,99999,6,90000,96,70000,40,9999,0.100000,99,0,0.000000,21,1.000000,32.979107,9.590149,99,99,0,0,0,0,0
9,99999,7,90000,90,20000,0,9999,0.100000,99,0,0.931554,21,0.000000,33.758000,0.335578,99,99,0,0,0,0,1
9,99999,8,90000,90,20000,0,9999,0.100000,99,0,0.306329,21,0.000000,20.861337,0.201954,99,99,0,0,0,0,1
9,99999,9,90000,2,30000,40,9999,0.100000,99,0,0.000000,21,0.000000,27.101337,1.158864,99,99,0,0,0,0,0
9,99999,10,90000,6,0,40,9999,0.100000,99,0,0.000000,21,0.000000,18.927069,2.037554,99,99,0,0,0,0,0
9,99999,11,90000,6,0,40,9999,0.100000,99,0,0.000000,20,3.000000,33.893233,8.739408,99,99,0,0,0,0,0
9,99999,12,90000,2,30000,41,9999,0.100000,99,0,0.000000,19,3.000000,27.473738,15.927784,99,99,0,0,0,0,0
9,99999,13,90000,96,80000,41,9999,0.100000,99,0,0.000000,21,3.000000,28.496037,14.406312,99,99,0,0,0,0,0
9,99999,14,90000,90,40000,0,9999,0.100000,99,0,1.321988,21,0.000000,25.962406,0.942495,99,99,0,0,1,0,0
9,99999,15,90000,96,70000,1,9999,0.100000,99,0,5.636316,21,3.000000,27.239988,4.221610,99,99,0,0,0,1,0
9,99999,16,90000,8,10000,40,9999,0.100000,99,0,0.000000,19,0.000000,29.699272,0.373111,99,99,0,0,0,0,0
9,99999,17,90000,15,80000,40,9999,0.100000,99,0,0.000000,21,1.000000,25.026959,6.711079,99,99,0,0,0,0,0
9,99999,18,90000,96,70000,0,9999,0.100000,99,0,0.027400,21,0.000000,27.402407,0.174611,99,99,0,0,0,1,0
9,99999,19,90000,8,10000,41,9999,0.100000,99,0,0.000000,21,4.000000,32.126029,8.713743,99,99,0,0,0,0,0
9,99999,20,90000,17,0,40,9999,0.100000,99,0,0.000000,19,2.000000,27.885649,16.069060,99,99,0,0,0,0,0
9,99999,21,90000,24,0,40,9999,0.100000,99,0,0.000000,21,0.000000,25.015868,4.087399,99,99,0,0,0,0,0
9,99999,22,90000,90,40000,40,9999,0.100000,99,0,0.000000,21,0.000000,21.062510,1.751152,99,99,0,0,0,0,0
9,99999,23,90000,87,0,45,9999,0.100000,99,0,0.000000,21,14.000000,23.046170,18.108811,99,99,0,0,0,0,0
9,99999,24,90000,96,70000,40,9999,0.100000,99,0,0.000000,21,0.000000,35.711199,4.033113,99,99,0,0,0,0,0
9,99999,25,90000,87,0,40,9999,0.100000,99,0,0.000000,21,0.000000,26.005068,1.060384,99,99,0,0,0,0,0
9,99999,26,90000,21,0,40,9999,0.100000,99,0,0.000000,19,1.000000,24.436477,1.423669,99,99,0,0,0,0,0
9,99999,27,90000,96,80000,40,9999,0.100000,99,0,0.000000,21,0.000000,21.396510,1.560513,99,99,0,0,0,0,0
9,99999,28,90000,17,0,41,9999,0.100000,99,0,0.000000,21,3.000000,28.269024,11.702478,99,99,0,0,0,0,0
9,99999,29,90000,57,30000,0,9999,0.100000,99,0,0.089770,21,0.000000,19.284305,0.154980,99,99,0,0,0,0,1
9,99999,30,90000,57,30000,40,9999,0.100000,99,0,0.000000,21,0.000000,38.014639,3.547589,99,99,0,0,0,0,0
9,99999,31,90000,17,10000,40,9999,0.100000,99,0,0.000000,21,2.000000,25.614873,10.273837,99,99,0,0,0,0,0
9,99999,32,90000,96,70000,40,9999,0.100000,99,0,0.000000,19,0.000000,33.766364,0.222040,99,99,0,0,0,0,0
9,99999,33,90000,87,0,40,9999,0.065000,99,0,0.000000,21,0.000000,19.920571,0.338097,99,99,0,0,0,0,0
9,99999,34,90000,87,0,40,9999,0.100000,99,0,0.000000,21,3.000000,31.369648,12.076069,99,99,0,0,0,0,0
9,99999,35,90000,96,70000,40,9999,0.100000,99,0,0.000000,21,0.000000,19.088769,0.592123,99,99,0,0,0,0,0
9,99999,36,90000,6,0,0,9999,0.100000,99,0,0.133698,21,0.000000,15.723488,0.136072,99,99,0,0,0,0,1
9,99999,37,90000,17,0,40,9999,0.100000,99,0,0.000000,21,2.000000,26.775435,3.328196,99,99,0,0,0,0,0
9,99999,38,90000,8,10000,40,9999,0.100000,99,0,0.000000,21,0.000000,20.502821,0.915887,99,99,0,0,0,0,0
9,99999,39,90000,21,0,40,9999,0.100000,99,0,0.000000,21,1.000000,21.702380,15.319642,99,99,0,0,0,0,0
9,99999,40,90000,45,20000,41,9999,0.100000,99,0,0.000000,21,6.000000,30.582640,16.736648,99,99,0,0,0,0,0
9,99999,41,90000,7,0,40,9999,0.100000,99,0,0.000000,21,0.000000,30.044093,0.135786,99,99,0,0,0,0,0
9,99999,42,90000,90,20000,0,9999,0.100000,99,0,1.915407,19,0.000000,23.354923,0.287877,99,99,0,1,0,0,0
9,99999,43,90000,15,80000,40,9999,0.100000,99,0,0.000000,21,0.000000,10.459532,0.180126,99,99,0,0,0,0,0
9,99999,44,90000,8,10000,40,9999,0.100000,99,0,0.000000,21,0.000000,16.308857,0.837468,99,99,0,0,0,0,0
9,99999,45,90000,57,30000,40,9999,0.100000,99,0,0.000000,21,3.000000,32.461372,10.553935,99,99,0,0,0,0,0
9,99999,46,90000,24,0,40,9999,0.100000,99,0,0.000000,21,0.000000,29.991178,0.100797,99,99,0,0,0,0,0
9,99999,47,90000,45,20000,40,9999,0.100000,99,0,0.000000,19,0.000000,12.924776,0.211540,99,99,0,0,0,0,0
9,99999,48,90000,92,40000,40,9999,0.100000,99,0,0.000000,21,0.000000,31.037183,4.066657,99,99,0,0,0,0,0
9,99999,49,90000,43,60000,40,9999,0.100000,99,0,0.000000,21,0.000000,33.982753,0.293667,99,99,0,0,0,0,0
9,99999,50,90000,90,20000,40,9999,0.100000,99,0,0.000000,19,0.000000,16.161181,7.876775,99,99,0,0,0,0,0
9,99999,51,90000,17,10000,41,9999,0.100000,99,0,0.000000,21,3.000000,28.395849,8.991476,99,99,0,0,0,0,0
9,99999,52,90000,17,0,40,9999,0.100000,99,0,0.000000,21,2.000000,30.940269,4.871524,99,99,0,0,0,0,0
9,99999,53,90000,87,0,40,9999,0.100000,99,0,0.000000,19,0.000000,29.842781,0.127234,99,99,0,0,0,0,0
9,99999,54,90000,43,60000,40,9999,0.100000,99,0,0.000000,21,0.000000,30.796348,0.704749,99,99,0,0,0,0,0
9,99999,55,90000,92,40000,41,9999,0.100000,99,0,0.000000,21,3.000000,25.978005,8.690446,99,99,0,0,0,0,0
9,99999,56,90000,21,0,40,9999,0.100000,99,0,0.000000,21,0.000000,27.010422,0.821438,99,99,0,0,0,0,0
9,99999,57,90000,87,0,41,9999,0.100000,99,0,0.000000,21,4.000000,27.075351,5.703719,99,99,0,0,0,0,0
9,99999,58,90000,17,10000,0,9999,0.100000,99,0,0.017720,19,0.000000,31.869000,5.282739,99,99,0,1,0,0,0
9,99999,59,90000,17,10000,40,9999,0.100000,99,0,0.000000,19,3.000000,29.768077,6.051861,99,99,0,0,0,0,0
9,99999,60,90000,15,80000,40,9999,0.100000,99,0,0.000000,21,0.000000,30.371396,0.845748,99,99,0,0,0,0,0
9,99999,61,90000,15,80000,41,9999,0.100000,99,0,0.000000,21,3.000000,27.078286,3.858767,99,99,0,0,0,0,0
9,99999,62,90000,63,0,40,9999,0.100000,99,0,0.000000,21,0.000000,31.743282,5.017457,99,99,0,0,0,0,0
9,99999,63,90000,90,40000,40,9999,0.100000,99,0,0.000000,19,0.000000,36.286191,0.217126,99,99,0,0,0,0,0
9,99999,64,90000,21,0,40,9999,0.100000,99,0,0.000000,21,2.000000,22.727103,6.927309,99,99,0,0,0,0,0
9,99999,65,90000,6,0,0,9999,0.100000,99,0,0.409645,21,0.000000,27.599560,0.114203,99,99,0,0,0,0,1
9,99999,66,90000,2,30000,40,9999,0.100000,99,0,0.000000,19,1.000000,32.600071,5.756384,99,99,0,0,0,0,0
9,99999,67,90000,57,30000,40,9999,0.100000,99,0,0.000000,21,2.000000,22.525251,13.291871,99,99,0,0,0,0,0
9,99999,68,90000,90,40000,40,9999,0.100000,99,0,0.000000,21,0.000000,16.189602,0.335599,99,99,0,0,0,0,0
9,99999,69,90000,45,20000,40,9999,0.100000,99,0,0.000000,21,0.000000,21.220918,0.127230,99,99,0,0,0,0,0
9,99999,70,90000,8,0,40,9999,0.100000,99,0,0.000000,21,0.000000,30.339979,1.546256,99,99,0,0,0,0,0
9,99999,71,90000,8,0,40,9999,0.100000,99,0,0.000000,21,0.000000,28.055522,0.325597,99,99,0,0,0,0,0
9,99999,72,90000,90,40000,41,9999,0.100000,99,0,0.000000,21,5.000000,25.067355,13.024500,99,99,0,0,0,0,0
9,99999,73,90000,21,0,40,9999,0.100000,99,0,0.000000,21,0.000000,29.866271,0.299291,99,99,0,0,0,0,0
9,99999,74,90000,87,0,0,9999,0.100000,99,0,2.601496,21,1.000000,24.683024,1.581207,99,99,0,0,1,0,0
9,99999,75,90000,24,0,40,9999,0.100000,99,0,0.000000,21,0.000000,30.976998,1.008833,99,99,0,0,0,0,0
9,99999,76,90000,45,20000,43,9999,0.100000,99,0,0.000000,19,8.000000,23.765867,8.731269,99,99,0,0,0,0,0
9,99999,77,90000,17,10000,40,9999,0.100000,99,0,0.000000,21,0.000000,33.274859,1.102331,99,99,0,0,0,0,0
9,99999,78,90000,6,0,40,9999,0.100000,99,0,0.000000,21,1.000000,34.582274,3.802098,99,99,0,0,0,0,0
9,99999,79,90000,21,0,40,9999,0.100000,99,0,0.000000,21,1.000000,34.561188,10.086810,99,99,0,0,0,0,0
9,99999,80,90000,97,80000,40,9999,0.100000,99,0,0.000000,21,1.000000,33.117625,12.336503,99,99,0,0,0,0,0
9,99999,81,90000,45,20000,40,9999,0.100000,99,0,0.000000,21,0.000000,19.653331,0.238891,99,99,0,0,0,0,0
9,99999,82,90000,45,20000,40,9999,0.100000,99,0,0.000000,21,0.000000,21.192429,0.658232,99,99,0,0,0,0,0
9,99999,83,90000,96,70000,40,9999,0.100000,99,0,0.000000,21,0.000000,30.829229,3.212085,99,99,0,0,0,0,0
9,99999,84,90000,15,80000,40,9999,0.100000,99,0,0.000000,21,0.000000,21.199193,1.324638,99,99,0,0,0,0,0
9,99999,85,90000,43,60000,40,9999,0.100000,99,0,0.000000,21,0.000000,33.491619,0.705015,99,99,0,0,0,0,0
9,99999,86,90000,21,0,0,9999,0.100000,99,0,0.321160,21,0.000000,21.731862,0.556041,99,99,0,0,0,1,0
9,99999,87,90000,43,60000,40,9999,0.100000,99,0,0.000000,19,0.000000,17.243436,0.223750,99,99,0,0,0,0,0
9,99999,88,90000,7,0,40,9999,0.100000,99,0,0.000000,21,1.000000,24.196145,1.133305,99,99,0,0,0,0,0
9,99999,89,90000,87,0,40,9999,0.100000,99,0,0.000000,21,0.000000,26.909133,0.108183,99,99,0,0,0,0,0
9,99999,90,90000,96,70000,40,9999,0.100000,99,0,0.000000,21,0.000000,10.254746,0.108284,99,99,0,0,0,0,0
9,99999,91,90000,57,30000,40,9999,0.100000,99,0,0.000000,19,0.000000,21.435059,2.027339,99,99,0,0,0,0,0
9,99999,92,90000,8,0,40,9999,0.100000,99,0,0.000000,21,2.000000,26.200059,6.070011,99,99,0,0,0,0,0
9,99999,93,90000,8,10000,40,9999,0.100000,99,0,0.000000,21,0.000000,26.067891,1.629510,99,99,0,0,0,0,0
9,99999,94,90000,17,10000,40,9999,0.100000,99,0,0.000000,21,0.000000,16.023738,0.193040,99,99,0,0,0,0,0
9,99999,95,90000,7,0,40,9999,0.100000,99,0,0.000000,21,0.000000,15.880299,0.161426,99,99,0,0,0,0,0
9,99999,96,90000,8,0,40,9999,0.100000,99,0,0.000000,20,1.000000,16.150384,2.001060,99,99,0,0,0,0,0
9,99999,97,90000,21,0,41,9999,0.100000,99,0,0.000000,21,5.000000,30.528281,10.023473,99,99,0,0,0,0,0
9,99999,98,90000,15,80000,41,9999,0.100000,99,0,0.000000,21,3.000000,26.902243,3.593573,99,99,0,0,0,0,0
9,99999,99,90000,24,0,40,9999,0.100000,99,0,0.000000,21,2.000000,23.747121,6.199243,99,99,0,0,0,0,0
10,109999,0,100000,90,20000,0,9999,0.100000,99,0,0.342583,21,0.000000,30.774185,1.043289,99,99,0,0,0,1,0
10,109999,1,100000,21,0,40,9999,0.100000,99,0,0.000000,21,0.000000,31.577001,22.965902,99,99,0,0,0,0,0
10,109999,2,100000,8,10000,40,9999,0.100000,99,0,0.000000,21,0.000000,32.911682,0.253443,99,99,0,0,0,0,0
10,109999,3,100000,7,0,40,9999,0.100000,99,0,0.000000,21,0.000000,29.609159,0.231714,99,99,0,0,0,0,0
10,109999,4,100000,23,90000,40,9999,0.100000,99,0,0.000000,21,2.000000,33.334345,11.462522,99,99,0,0,0,0,0
10,109999,5,100000,11,0,0,9999,0.100000,99,0,0.835259,21,0.000000,20.836166,0.276808,99,99,0,0,1,0,0
10,109999,6,100000,87,0,40,9999,0.100000,99,0,0.000000,21,0.000000,33.343771,2.561979,99,99,0,0,0,0,0
10,109999,7,100000,97,80000,0,9999,0.065000,99,0,0.070029,21,0.000000,33.718938,0.156226,99,99,0,0,0,0,1
10,109999,8,100000,21,0,0,9999,0.100000,99,0,0.201284,21,0.000000,20.850044,0.190235,99,99,0,0,0,0,1
10,109999,9,100000,8,0,40,9999,0.100000,99,0,0.000000,21,0.000000,26.762102,1.149964,99,99,0,0,0,0,0
10,109999,10,100000,17,0,40,9999,0.100000,99,0,0.000000,21,0.000000,18.869198,2.081570,99,99,0,0,0,0,0
10,109999,11,100000,57,30000,40,9999,0.100000,99,0,0.000000,21,2.000000,37.145785,12.068729,99,99,0,0,0,0,0
10,109999,12,100000,15,80000,41,9999,0.100000,99,0,0.000000,21,4.000000,29.513708,17.742449,99,99,0,0,0,0,0
10,109999,13,100000,17,10000,40,9999,0.100000,99,0,0.000000,21,1.000000,26.887722,10.586087,99,99,0,0,0,0,0
10,109999,14,100000,8,10000,0,9999,0.100000,99,0,0.598575,21,0.000000,26.209129,0.469196,99,99,0,0,1,0,0
10,109999,15,100000,57,30000,0,9999,0.100000,99,0,0.701094,21,0.000000,28.767582,1.082165,99,99,0,0,0,1,0
10,109999,16,100000,57,30000,40,9999,0.100000,99,0,0.000000,21,0.000000,29.695181,0.288207,99,99,0,0,0,0,0
10,109999,17,100000,92,40000,40,9999,0.100000,99,0,0.000000,21,0.000000,26.520069,4.167538,99,99,0,0,0,0,0
10,109999,18,100000,8,10000,0,9999,0.100000,99,0,0.034736,21,0.000000,27.394989,0.193136,99,99,0,0,0,1,0
10,109999,19,100000,23,90000,40,9999,0.100000,99,0,0.000000,21,3.000000,28.747614,13.107941,99,99,0,0,0,0,0
10,109999,20,100000,8,10000,42,9999,0.100000,99,0,0.000000,21,7.000000,30.154091,12.531478,99,99,0,0,0,0,0
10,109999,21,100000,17,10000,40,9999,0.100000,99,0,0.000000,21,1.000000,25.886473,10.406528,99,99,0,0,0,0,0
10,109999,22,100000,23,90000,40,9999,0.100000,99,0,0.000000,21,0.000000,20.983588,1.387816,99,99,0,0,0,0,0
10,109999,23,100000,11,0,44,9999,0.100000,99,0,0.000000,21,16.000000,37.058615,20.187524,99,99,0,0,0,0,0
10,109999,24,100000,7,0,41,9999,0.100000,99,0,0.000000,21,4.000000,35.838861,10.941099,99,99,0,0,0,0,0
10,109999,25,100000,43,60000,40,9999,0.100000,99,0,0.000000,21,0.000000,26.270413,0.369157,99,99,0,0,0,0,0
10,109999,26,100000,24,0,40,9999,0.100000,99,0,0.000000,21,0.000000,23.560605,0.357694,99,99,0,0,0,0,0
10,109999,27,100000,17,10000,43,9999,0.100000,99,0,0.000000,21,8.000000,21.621753,15.939269,99,99,0,0,0,0,0
10,109999,28,100000,8,10000,40,9999,0.100000,99,0,0.000000,21,1.000000,26.420827,5.825435,99,99,0,0,0,0,0
10,109999,29,100000,15,80000,0,9999,0.100000,99,0,0.119808,21,0.000000,19.212242,0.113804,99,99,0,0,0,0,1
10,109999,30,100000,63,0,40,9999,0.100000,99,0,0.000000,21,0.000000,38.011321,3.590197,99,99,0,0,0,0,0
10,109999,31,100000,97,80000,41,9999,0.100000,99,0,0.000000,21,3.000000,25.872075,8.440763,99,99,0,0,0,0,0
10,109999,32,100000,57,30000,40,9999,0.100000,99,0,0.000000,21,0.000000,33.761346,0.230369,99,99,0,0,0,0,0
10,109999,33,100000,92,40000,40,9999,0.100000,99,0,0.000000,21,0.000000,19.798668,0.237095,99,99,0,0,0,0,0
10,109999,34,100000,11,0,41,9999,0.100000,99,0,0.000000,21,4.000000,27.582438,7.725306,99,99,0,0,0,0,0
10,109999,35,100000,87,0,40,9999,0.100000,99,0,0.000000,21,0.000000,19.034567,0.518205,99,99,0,0,0,0,0
10,109999,36,100000,97,80000,0,9999,0.100000,99,0,0.415961,21,0.000000,15.815145,0.153410,99,99,0,0,0,0,1
10,109999,37,100000,92,40000,40,9999,0.100000,99,0,0.000000,21,0.000000,28.004503,0.690152,99,99,0,0,0,0,0
10,109999,38,100000,21,0,40,9999,0.100000,99,0,0.000000,21,1.000000,19.827513,7.376163,99,99,0,0,0,0,0
10,109999,39,100000,17,0,40,9999,0.100000,99,0,0.000000,21,0.000000,21.249065,21.336101,99,99,0,0,0,0,0
10,109999,40,100000,8,0,40,9999,0.100000,99,0,0.000000,21,1.000000,29.252911,13.970708,99,99,0,0,0,0,0
10,109999,41,100000,57,30000,40,9999,0.100000,99,0,0.000000,21,0.000000,30.043861,0.137964,99,99,0,0,0,0,0
10,109999,42,100000,96,80000,0,9999,0.100000,99,0,0.150781,21,0.000000,23.357371,0.160093,99,99,0,1,0,0,0
10,109999,43,100000,57,30000,40,9999,0.100000,99,0,0.000000,21,0.000000,10.425921,0.157326,99,99,0,0,0,0,0
10,109999,44,100000,7,0,40,9999,0.100000,99,0,0.000000,21,0.000000,16.481155,0.372553,99,99,0,0,0,0,0
10,109999,45,100000,7,0,40,9999,0.100000,99,0,0.000000,21,2.000000,30.188956,12.359295,99,99,0,0,0,0,0
10,109999,46,100000,23,90000,40,9999,0.100000,99,0,0.000000,21,0.000000,29.996093,0.092696,99,99,0,0,0,0,0
10,109999,47,100000,92,40000,40,9999,0.100000,99,0,0.000000,21,0.000000,12.923212,0.212190,99,99,0,0,0,0,0
10,109999,48,100000,15,80000,40,9999,0.100000,99,0,0.000000,21,0.000000,31.140847,7.576807,99,99,0,0,0,0,0
10,109999,49,100000,6,0,40,9999,0.100000,99,0,0.000000,21,0.000000,33.926140,0.152859,99,99,0,0,0,0,0
10,109999,50,100000,96,80000,40,9999,0.100000,99,0,0.000000,21,0.000000,16.379548,1.374348,99,99,0,0,0,0,0
10,109999,51,100000,6,0,40,9999,0.100000,99,0,0.000000,21,1.000000,29.575590,14.658012,99,99,0,0,0,0,0
10,109999,52,100000,45,20000,40,9999,0.100000,99,0,0.000000,21,3.000000,29.485302,15.463867,99,99,0,0,0,0,0
10,109999,53,100000,8,0,40,9999,0.100000,99,0,0.000000,21,0.000000,29.842742,0.122256,99,99,0,0,0,0,0
10,109999,54,100000,17,0,40,9999,0.100000,99,0,0.000000,21,0.000000,30.942391,1.362007,99,99,0,0,0,0,0
10,109999,55,100000,15,80000,41,9999,0.100000,99,0,0.000000,21,5.000000,29.072953,12.181735,99,99,0,0,0,0,0
10,109999,56,100000,11,0,40,9999,0.100000,99,0,0.000000,21,0.000000,26.668705,0.828277,99,99,0,0,0,0,0
10,109999,57,100000,17,0,40,9999,0.100000,99,0,0.000000,21,0.000000,30.719395,0.546361,99,99,0,0,0,0,0
10,109999,58,100000,7,0,0,9999,0.100000,99,0,1.339791,21,0.000000,31.874108,3.663510,99,99,0,1,0,0,0
10,109999,59,100000,45,20000,40,9999,0.100000,99,0,0.000000,21,1.000000,27.011204,8.767358,99,99,0,0,0,0,0
10,109999,60,100000,8,10000,40,9999,0.100000,99,0,0.000000,21,0.000000,30.624981,1.099373,99,99,0,0,0,0,0
10,109999,61,100000,11,0,40,9999,0.100000,99,0,0.000000,21,0.000000,28.510345,0.684848,99,99,0,0,0,0,0
10,109999,62,100000,17,0,40,9999,0.100000,99,0,0.000000,21,0.000000,31.745708,3.709183,99,99,0,0,0,0,0
10,109999,63,100000,17,10000,40,9999,0.100000,99,0,0.000000,21,0.000000,36.287684,0.204064,99,99,0,0,0,0,0
10,109999,64,100000,45,20000,40,9999,0.100000,99,0,0.000000,21,1.000000,24.993645,8.516476,99,99,0,0,0,0,0
10,109999,65,100000,90,20000,0,9999,0.100000,99,0,0.331468,21,0.000000,27.662454,0.093318,99,99,0,0,0,0,1
10,109999,66,100000,24,0,40,9999,0.100000,99,0,0.000000,21,0.000000,33.398906,3.668264,99,99,0,0,0,0,0
10,109999,67,100000,45,20000,40,9999,0.100000,99,0,0.000000,21,1.000000,24.940453,11.956530,99,99,0,0,0,0,0
10,109999,68,100000,8,0,40,9999,0.100000,99,0,0.000000,21,0.000000,16.327718,0.412189,99,99,0,0,0,0,0
10,109999,69,100000,24,0,40,9999,0.100000,99,0,0.000000,21,0.000000,21.219494,0.415025,99,99,0,0,0,0,0
10,109999,70,100000,8,0,40,9999,0.100000,99,0,0.000000,21,0.000000,30.647921,5.743076,99,99,0,0,0,0,0
10,109999,71,100000,15,80000,40,9999,0.100000,99,0,0.000000,21,0.000000,28.130793,0.258122,99,99,0,0,0,0,0
10,109999,72,100000,43,60000,40,9999,0.100000,99,0,0.000000,21,0.000000,21.889519,0.411099,99,99,0,0,0,0,0
10,109999,73,100000,96,80000,40,9999,0.100000,99,0,0.000000,21,0.000000,29.915142,0.189614,99,99,0,0,0,0,0
10,109999,74,100000,21,0,0,9999,0.100000,99,0,0.341596,21,0.000000,23.625845,0.367296,99,99,0,0,1,0,0
10,109999,75,100000,45,20000,40,9999,0.100000,99,0,0.000000,21,0.000000,31.242597,0.985094,99,99,0,0,0,0,0
10,109999,76,100000,17,0,40,9999,0.100000,99,0,0.000000,21,1.000000,30.075290,5.111537,99,99,0,0,0,0,0
10,109999,77,100000,43,60000,40,9999,0.100000,99,0,0.000000,21,0.000000,33.279357,0.197561,99,99,0,0,0,0,0
10,109999,78,100000,87,0,40,9999,0.100000,99,0,0.000000,21,2.000000,35.385385,3.396897,99,99,0,0,0,0,0
10,109999,79,100000,21,0,40,9999,0.100000,99,0,0.000000,21,2.000000,32.999342,4.609034,99,99,0,0,0,0,0
10,109999,80,100000,45,20000,40,9999,0.100000,99,0,0.000000,21,3.000000,33.343808,25.336075,99,99,0,0,0,0,0
10,109999,81,100000,8,10000,40,9999,0.100000,99,0,0.000000,21,0.000000,19.550588,0.131809,99,99,0,0,0,0,0
10,109999,82,100000,21,0,40,9999,0.100000,99,0,0.000000,21,0.000000,21.128611,1.160804,99,99,0,0,0,0,0
10,109999,83,100000,24,0,40,9999,0.100000,99,0,0.000000,21,0.000000,30.935002,8.157202,99,99,0,0,0,0,0
10,109999,84,100000,7,0,0,9999,0.100000,99,0,0.015163,21,2.000000,21.388108,9.180840,99,99,0,0,0,1,0
10,109999,85,100000,17,0,40,9999,0.100000,99,0,0.000000,21,0.000000,33.478199,0.151839,99,99,0,0,0,0,0
10,109999,86,100000,15,80000,40,9999,0.100000,99,0,0.000000,21,0.000000,21.827179,0.187210,99,99,0,0,0,0,0
10,109999,87,100000,17,10000,40,9999,0.100000,99,0,0.000000,21,0.000000,17.240785,0.244896,99,99,0,0,0,0,0
10,109999,88,100000,17,0,40,9999,0.100000,99,0,0.000000,21,0.000000,23.437276,0.270906,99,99,0,0,0,0,0
10,109999,89,100000,23,90000,40,9999,0.100000,99,0,0.000000,21,0.000000,26.902481,0.113860,99,99,0,0,0,0,0
10,109999,90,100000,8,10000,40,9999,0.100000,99,0,0.000000,21,0.000000,10.254610,0.065916,99,99,0,0,0,0,0
10,109999,91,100000,96,70000,43,9999,0.100000,99,0,0.000000,21,8.000000,21.698751,15.913698,99,99,0,0,0,0,0
10,109999,92,100000,8,10000,40,9999,0.100000,99,0,0.000000,21,0.000000,25.174077,6.488392,99,99,0,0,0,0,0
10,109999,93,100000,63,0,41,9999,0.100000,99,0,0.000000,21,3.000000,26.376847,12.276613,99,99,0,0,0,0,0
10,109999,94,100000,15,80000,40,9999,0.100000,99,0,0.000000,21,0.000000,16.151227,0.208125,99,99,0,0,0,0,0
10,109999,95,100000,8,10000,40,9999,0.100000,99,0,0.000000,21,0.000000,15.993130,0.180550,99,99,0,0,0,0,0
10,109999,96,100000,24,0,41,9999,0.100000,99,0,0.000000,21,2.000000,14.575379,2.749849,99,99,0,0,0,0,0
10,109999,97,100000,92,40000,41,9999,0.100000,99,0,0.000000,21,4.000000,29.956753,9.991708,99,99,0,0,0,0,0
10,109999,98,100000,8,10000,40,9999,0.100000,99,0,0.000000,21,0.000000,28.249530,0.521439,99,99,0,0,0,0,0
10,109999,99,100000,8,10000,40,9999,0.100000,99,0,0.000000,21,1.000000,22.088795,5.877191,99,99,0,0,0,0,0
11,119999,0,110000,21,0,40,9999,0.100000,99,0,0.000000,21,0.000000,30.907256,4.613202,99,99,0,0,0,0,0
11,119999,1,110000,6,0,40,9999,0.100000,99,0,0.000000,21,0.000000,31.799358,2.292544,99,99,0,0,0,0,0
11,119999,2,110000,92,40000,40,9999,0.100000,99,0,0.000000,21,0.000000,32.912063,0.241631,99,99,0,0,0,0,0
11,119999,3,110000,11,0,40,9999,0.100000,99,0,0.000000,21,0.000000,29.608968,0.215789,99,99,0,0,0,0,0
11,119999,4,110000,92,40000,40,9999,0.100000,99,0,0.000000,21,0.000000,31.920083,1.264910,99,99,0,0,0,0,0
11,119999,5,110000,97,80000,0,9999,0.100000,99,0,1.716322,21,0.000000,20.847518,0.446789,99,99,0,0,1,0,0
11,119999,6,110000,17,10000,40,9999,0.100000,99,0,0.000000,21,0.000000,33.742625,1.896421,99,99,0,0,0,0,0
11,119999,7,110000,87,0,0,9999,0.100000,99,0,0.040301,21,0.000000,33.726646,1.842788,99,99,0,0,0,0,1
11,119999,8,110000,17,10000,0,9999,0.100000,99,0,1.036449,21,0.000000,20.840199,0.464039,99,99,0,0,0,0,1
11,119999,9,110000,21,0,42,9999,0.100000,99,0,0.000000,21,8.000000,26.415383,11.779437,99,99,0,0,0,0,0
11,119999,10,110000,11,0,40,9999,0.100000,99,0,0.000000,21,0.000000,18.847795,3.217686,99,99,0,0,0,0,0
11,119999,11,110000,17,0,40,9999,0.100000,99,0,0.000000,21,1.000000,34.558845,7.310022,99,99,0,0,0,0,0
11,119999,12,110000,96,70000,40,9999,0.100000,99,0,0.000000,21,1.000000,32.606426,10.156528,99,99,0,0,0,0,0
11,119999,13,110000,6,0,40,9999,0.100000,99,0,0.000000,21,2.000000,25.752888,15.937101,99,99,0,0,0,0,0
11,119999,14,110000,97,80000,0,9999,0.100000,99,0,0.000000,21,1.000000,26.347059,6.931358,99,99,0,0,1,0,0
11,119999,15,110000,24,0,0,9999,0.100000,99,0,0.134519,21,0.000000,28.724064,1.099594,99,99,0,0,0,1,0
11,119999,16,110000,96,80000,40,9999,0.100000,99,0,0.000000,21,0.000000,29.694994,0.268510,99,99,0,0,0,0,0
11,119999,17,110000,7,0,40,9999,0.100000,99,0,0.000000,21,0.000000,26.644056,11.394974,99,99,0,0,0,0,0
11,119999,18,110000,45,20000,0,9999,0.100000,99,0,0.054452,21,0.000000,27.386367,0.208282,99,99,0,0,0,1,0
11,119999,19,110000,90,20000,40,9999,0.100000,99,0,0.000000,21,0.000000,26.972102,7.885818,99,99,0,0,0,0,0
11,119999,20,110000,92,40000,40,9999,0.100000,99,0,0.000000,21,0.000000,37.507880,2.281499,99,99,0,0,0,0,0
11,119999,21,110000,92,40000,41,9999,0.100000,99,0,0.000000,21,3.000000,25.468250,10.560316,99,99,0,0,0,0,0
11,119999,22,110000,6,0,40,9999,0.100000,99,0,0.000000,21,1.000000,20.870823,15.134258,99,99,0,0,0,0,0
11,119999,23,110000,17,10000,40,9999,0.100000,99,0,0.000000,21,0.000000,21.264544,1.451385,99,99,0,0,0,0,0
11,119999,24,110000,7,0,40,9999,0.100000,99,0,0.000000,21,1.000000,32.150084,7.540174,99,99,0,0,0,0,0
11,119999,25,110000,57,30000,40,9999,0.100000,99,0,0.000000,21,2.000000,26.461670,9.614802,99,99,0,0,0,0,0
11,119999,26,110000,97,80000,40,9999,0.100000,99,0,0.000000,21,0.000000,23.315051,0.339748,99,99,0,0,0,0,0
11,119999,27,110000,7,0,40,9999,0.100000,99,0,0.000000,21,2.000000,29.056918,3.311579,99,99,0,0,0,0,0
11,119999,28,110000,57,30000,40,9999,0.100000,99,0,0.000000,21,2.000000,26.064412,13.689109,99,99,0,0,0,0,0
11,119999,29,110000,90,20000,0,9999,0.100000,99,0,0.176153,21,0.000000,19.181437,0.077218,99,99,0,0,0,0,1
11,119999,30,110000,17,10000,40,9999,0.100000,99,0,0.000000,21,0.000000,38.014902,1.938519,99,99,0,0,0,0,0
11,119999,31,110000,8,10000,40,9999,0.100000,99,0,0.000000,21,2.000000,29.128030,7.667014,99,99,0,0,0,0,0
11,119999,32,110000,17,0,40,9999,0.100000,99,0,0.000000,21,0.000000,33.762309,0.249090,99,99,0,0,0,0,0
11,119999,33,110000,15,80000,40,9999,0.100000,99,0,0.000000,21,0.000000,19.740544,0.191324,99,99,0,0,0,0,0
11,119999,34,110000,43,60000,40,9999,0.100000,99,0,0.000000,21,1.000000,31.584381,12.912806,99,99,0,0,0,0,0
11,119999,35,110000,97,80000,40,9999,0.100000,99,0,0.000000,21,0.000000,19.013796,0.524566,99,99,0,0,0,0,0
11,119999,36,110000,21,0,0,9999,0.100000,99,0,2.256689,21,0.000000,15.907340,0.609864,99,99,0,0,0,0,1
11,119999,37,110000,92,40000,40,9999,0.100000,99,0,0.000000,21,0.000000,27.966106,0.747140,99,99,0,0,0,0,0
11,119999,38,110000,8,10000,41,9999,0.100000,99,0,0.000000,21,4.000000,19.990405,8.348764,99,99,0,0,0,0,0
11,119999,39,110000,87,0,40,9999,0.100000,99,0,0.000000,21,0.000000,21.178838,13.837286,99,99,0,0,0,0,0
11,119999,40,110000,15,80000,40,9999,0.100000,99,0,0.000000,21,2.000000,29.475405,9.833205,99,99,0,0,0,0,0
11,119999,41,110000,15,80000,40,9999,0.100000,99,0,0.000000,21,0.000000,30.043665,0.136569,99,99,0,0,0,0,0
11,119999,42,110000,96,80000,0,9999,0.100000,99,0,0.176395,21,0.000000,23.362495,0.160717,99,99,0,1,0,0,0
11,119999,43,110000,17,0,40,9999,0.100000,99,0,0.000000,21,0.000000,10.425885,0.157358,99,99,0,0,0,0,0
11,119999,44,110000,57,30000,40,9999,0.100000,99,0,0.000000,21,0.000000,16.615089,1.009307,99,99,0,0,0,0,0
11,119999,45,110000,8,0,40,9999,0.100000,99,0,0.000000,21,1.000000,29.682800,4.315503,99,99,0,0,0,0,0
11,119999,46,110000,92,40000,40,9999,0.100000,99,0,0.000000,21,0.000000,30.000971,0.091219,99,99,0,0,0,0,0
11,119999,47,110000,45,20000,40,9999,0.100000,99,0,0.000000,21,0.000000,12.923421,0.211083,99,99,0,0,0,0,0
11,119999,48,110000,24,0,0,9999,0.100000,99,0,0.675135,21,0.000000,30.954365,0.169408,99,99,0,0,0,1,0
11,119999,49,110000,96,70000,40,9999,0.100000,99,0,0.000000,21,0.000000,33.933323,0.833248,99,99,0,0,0,0,0
11,119999,50,110000,24,0,40,9999,0.100000,99,0,0.000000,21,0.000000,16.518275,1.680542,99,99,0,0,0,0,0
11,119999,51,110000,23,90000,40,9999,0.100000,99,0,0.000000,21,1.000000,29.837157,21.410251,99,99,0,0,0,0,0
11,119999,52,110000,97,80000,40,9999,0.100000,99,0,0.000000,21,3.000000,28.691240,13.196880,99,99,0,0,0,0,0
11,119999,53,110000,7,0,40,9999,0.100000,99,0,0.000000,21,0.000000,29.842694,0.122588,99,99,0,0,0,0,0
11,119999,54,110000,45,20000,40,9999,0.100000,99,0,0.000000,21,0.000000,30.924396,0.368379,99,99,0,0,0,0,0
11,119999,55,110000,63,0,41,9999,0.100000,99,0,0.000000,21,3.000000,26.181483,7.201202,99,99,0,0,0,0,0
11,119999,56,110000,8,0,42,9999,0.100000,99,0,0.000000,21,8.000000,26.326858,11.687193,99,99,0,0,0,0,0
11,119999,57,110000,92,40000,40,9999,0.100000,99,0,0.000000,21,0.000000,31.047750,0.137274,99,99,0,0,0,0,0
11,119999,58,110000,7,0,0,9999,0.100000,99,0,0.322102,21,0.000000,31.747368,1.225315,99,99,0,1,0,0,0
11,119999,59,110000,43,60000,41,9999,0.100000,99,0,0.000000,21,3.000000,26.448869,9.742604,99,99,0,0,0,0,0
11,119999,60,110000,90,20000,40,9999,0.100000,99,0,0.000000,21,0.000000,30.876579,1.167322,99,99,0,0,0,0,0
11,119999,61,110000,8,10000,40,9999,0.100000,99,0,0.000000,21,0.000000,28.466539,0.895048,99,99,0,0,0,0,0
11,119999,62,110000,43,60000,40,9999,0.135000,99,0,0.000000,21,0.000000,31.626978,1.288497,99,99,0,0,0,0,0
11,119999,63,110000,24,0,40,9999,0.100000,99,0,0.000000,21,0.000000,36.287675,0.209832,99,99,0,0,0,0,0
11,119999,64,110000,96,80000,40,9999,0.100000,99,0,0.000000,21,1.000000,25.198199,8.530193,99,99,0,0,0,0,0
11,119999,65,110000,96,80000,0,9999,0.100000,99,0,0.271646,21,0.000000,27.703199,0.083572,99,99,0,0,0,0,1
11,119999,66,110000,97,80000,40,9999,0.100000,99,0,0.000000,21,2.000000,33.675947,6.094057,99,99,0,0,0,0,0
11,119999,67,110000,96,70000,41,9999,0.100000,99,0,0.000000,21,3.000000,25.777027,11.053264,99,99,0,0,0,0,0
11,119999,68,110000,8,0,40,9999,0.100000,99,0,0.000000,21,0.000000,16.454637,0.914926,99,99,0,0,0,0,0
11,119999,69,110000,43,60000,40,9999,0.100000,99,0,0.000000,21,0.000000,21.283368,0.776718,99,99,0,0,0,0,0
11,119999,70,110000,87,0,43,9999,0.100000,99,0,0.000000,21,12.000000,30.804771,14.429246,99,99,0,0,0,0,0
11,119999,71,110000,6,0,40,9999,0.100000,99,0,0.000000,21,0.000000,28.181270,0.230333,99,99,0,0,0,0,0
11,119999,72,110000,17,0,40,9999,0.100000,99,0,0.000000,21,0.000000,21.936637,0.881362,99,99,0,0,0,0,0
11,119999,73,110000,92,40000,40,9999,0.100000,99,0,0.000000,21,0.000000,29.919738,0.188632,99,99,0,0,0,0,0
11,119999,74,110000,8,10000,0,9999,0.100000,99,0,0.041228,21,0.000000,23.357682,0.331073,99,99,0,0,1,0,0
11,119999,75,110000,15,80000,40,9999,0.100000,99,0,0.000000,21,0.000000,31.519482,0.922925,99,99,0,0,0,0,0
11,119999,76,110000,57,30000,40,9999,0.100000,99,0,0.000000,21,3.000000,29.243733,6.069855,99,99,0,0,0,0,0
11,119999,77,110000,90,20000,40,9999,0.100000,99,0,0.000000,21,0.000000,33.260730,0.095786,99,99,0,0,0,0,0
11,119999,78,110000,8,0,40,9999,0.100000,99,0,0.000000,21,0.000000,37.501236,0.098315,99,99,0,0,0,0,0
11,119999,79,110000,63,0,40,9999,0.100000,99,0,0.000000,21,2.000000,30.338699,10.943314,99,99,0,0,0,0,0
11,119999,80,110000,43,60000,40,9999,0.100000,99,0,0.000000,21,1.000000,33.211876,20.359723,99,99,0,0,0,0,0
