generation,iteration,robot,birthday,ancestor_id,ancestor_birthday,cell_id,age,sigma,maps,genomes,fitness,cells_in_map,dist_max,dist_pot_max,dist_total,com_rx,com_tx,obj_group1,obj_group2,obj_group3,obj_group4,obj_group5
0,9999,0,0,0,0,49,9999,0.100000,0,0,0.000000,0,4.000000,0.000000,9.103139,0,0,0,0,0,0,0
0,9999,1,0,1,0,49,9999,0.100000,0,0,0.000000,0,6.000000,0.000000,14.705547,0,0,0,0,0,0,0
0,9999,2,0,2,0,49,9999,0.100000,0,0,0.000000,0,7.000000,0.000000,19.715948,0,0,0,0,0,0,0
0,9999,3,0,3,0,49,9999,0.100000,0,0,0.000000,0,11.000000,0.000000,16.752120,0,0,0,0,0,0,0
0,9999,4,0,4,0,49,9999,0.100000,0,0,0.000000,0,7.000000,0.000000,8.356362,0,0,0,0,0,0,0
0,9999,5,0,5,0,49,9999,0.100000,0,0,0.000000,0,7.000000,0.000000,17.571800,0,0,0,0,0,0,0
0,9999,6,0,6,0,49,9999,0.100000,0,0,0.000000,0,14.000000,0.000000,26.051340,0,0,0,0,0,0,0
0,9999,7,0,7,0,49,9999,0.100000,0,0,0.000000,0,7.000000,0.000000,12.359069,0,0,0,0,0,0,0
0,9999,8,0,8,0,40,9999,0.100000,0,0,0.000000,0,0.000000,0.000000,12.067861,0,0,0,0,0,0,0
0,9999,9,0,9,0,49,9999,0.100000,0,0,0.000000,0,5.000000,0.000000,20.840182,0,0,0,0,0,0,0
0,9999,10,0,10,0,49,9999,0.100000,0,0,0.000000,0,11.000000,0.000000,16.535708,0,0,0,0,0,0,0
0,9999,11,0,11,0,49,9999,0.100000,0,0,0.000000,0,11.000000,0.000000,24.527146,0,0,0,0,0,0,0
0,9999,12,0,12,0,49,9999,0.100000,0,0,0.000000,0,10.000000,0.000000,26.625051,0,0,0,0,0,0,0
0,9999,13,0,13,0,49,9999,0.100000,0,0,0.000000,0,3.000000,0.000000,9.559051,0,0,0,0,0,0,0
0,9999,14,0,14,0,49,9999,0.100000,0,0,0.000000,0,10.000000,0.000000,14.419184,0,0,0,0,0,0,0
0,9999,15,0,15,0,49,9999,0.100000,0,0,0.000000,0,6.000000,0.000000,7.781936,0,0,0,0,0,0,0
0,9999,16,0,16,0,49,9999,0.100000,0,0,0.000000,0,10.000000,0.000000,29.332447,0,0,0,0,0,0,0
0,9999,17,0,17,0,49,9999,0.100000,0,0,0.000000,0,10.000000,0.000000,15.281237,0,0,0,0,0,0,0
0,9999,18,0,18,0,49,9999,0.100000,0,0,0.000000,0,4.000000,0.000000,4.719629,0,0,0,0,0,0,0
0,9999,19,0,19,0,49,9999,0.100000,0,0,0.000000,0,9.000000,0.000000,10.228586,0,0,0,0,0,0,0
0,9999,20,0,20,0,49,9999,0.100000,0,0,0.000000,0,12.000000,0.000000,26.394886,0,0,0,0,0,0,0
0,9999,21,0,21,0,49,9999,0.100000,0,0,0.000000,0,4.000000,0.000000,12.251581,0,0,0,0,0,0,0
0,9999,22,0,22,0,49,9999,0.100000,0,0,0.000000,0,1.000000,0.000000,10.405274,0,0,0,0,0,0,0
0,9999,23,0,23,0,49,9999,0.100000,0,0,0.000000,0,8.000000,0.000000,8.890959,0,0,0,0,0,0,0
0,9999,24,0,24,0,49,9999,0.100000,0,0,0.000000,0,9.000000,0.000000,15.492771,0,0,0,0,0,0,0
0,9999,25,0,25,0,49,9999,0.100000,0,0,0.000000,0,1.000000,0.000000,5.617290,0,0,0,0,0,0,0
0,9999,26,0,26,0,49,9999,0.100000,0,0,0.000000,0,2.000000,0.000000,5.928788,0,0,0,0,0,0,0
0,9999,27,0,27,0,49,9999,0.100000,0,0,0.000000,0,9.000000,0.000000,12.534295,0,0,0,0,0,0,0
0,9999,28,0,28,0,49,9999,0.100000,0,0,0.000000,0,3.000000,0.000000,10.081674,0,0,0,0,0,0,0
0,9999,29,0,29,0,49,9999,0.100000,0,0,0.000000,0,9.000000,0.000000,25.005516,0,0,0,0,0,0,0
0,9999,30,0,30,0,49,9999,0.100000,0,0,0.000000,0,8.000000,0.000000,10.329795,0,0,0,0,0,0,0
0,9999,31,0,31,0,49,9999,0.100000,0,0,0.000000,0,3.000000,0.000000,4.163793,0,0,0,0,0,0,0
0,9999,32,0,32,0,49,9999,0.100000,0,0,0.000000,0,8.000000,0.000000,18.139516,0,0,0,0,0,0,0
0,9999,33,0,33,0,49,9999,0.100000,0,0,0.000000,0,8.000000,0.000000,9.308938,0,0,0,0,0,0,0
0,9999,34,0,34,0,49,9999,0.100000,0,0,0.000000,0,6.000000,0.000000,12.865506,0,0,0,0,0,0,0
0,9999,35,0,35,0,49,9999,0.100000,0,0,0.000000,0,6.000000,0.000000,7.440951,0,0,0,0,0,0,0
0,9999,36,0,36,0,49,9999,0.100000,0,0,0.000000,0,9.000000,0.000000,17.769464,0,0,0,0,0,0,0
0,9999,37,0,37,0,49,9999,0.100000,0,0,0.000000,0,6.000000,0.000000,15.290183,0,0,0,0,0,0,0
0,9999,38,0,38,0,49,9999,0.100000,0,0,0.000000,0,7.000000,0.000000,13.081523,0,0,0,0,0,0,0
0,9999,39,0,39,0,49,9999,0.100000,0,0,0.000000,0,7.000000,0.000000,16.137925,0,0,0,0,0,0,0
0,9999,40,0,40,0,49,9999,0.100000,0,0,0.000000,0,7.000000,0.000000,18.335682,0,0,0,0,0,0,0
0,9999,41,0,41,0,49,9999,0.100000,0,0,0.000000,0,13.000000,0.000000,18.037523,0,0,0,0,0,0,0
0,9999,42,0,42,0,49,9999,0.100000,0,0,0.000000,0,3.000000,0.000000,5.015223,0,0,0,0,0,0,0
0,9999,43,0,43,0,49,9999,0.100000,0,0,0.000000,0,8.000000,0.000000,29.200662,0,0,0,0,0,0,0
0,9999,44,0,44,0,49,9999,0.100000,0,0,0.000000,0,8.000000,0.000000,13.707891,0,0,0,0,0,0,0
0,9999,45,0,45,0,49,9999,0.100000,0,0,0.000000,0,10.000000,0.000000,11.164841,0,0,0,0,0,0,0
0,9999,46,0,46,0,49,9999,0.100000,0,0,0.000000,0,8.000000,0.000000,11.358034,0,0,0,0,0,0,0
0,9999,47,0,47,0,49,9999,0.100000,0,0,0.000000,0,8.000000,0.000000,8.670117,0,0,0,0,0,0,0
0,9999,48,0,48,0,49,9999,0.100000,0,0,0.000000,0,5.000000,0.000000,9.534353,0,0,0,0,0,0,0
0,9999,49,0,49,0,49,9999,0.100000,0,0,0.000000,0,10.000000,0.000000,14.573486,0,0,0,0,0,0,0
0,9999,50,0,50,0,49,9999,0.100000,0,0,0.000000,0,3.000000,0.000000,6.341546,0,0,0,0,0,0,0
0,9999,51,0,51,0,49,9999,0.100000,0,0,0.000000,0,8.000000,0.000000,11.385455,0,0,0,0,0,0,0
0,9999,52,0,52,0,49,9999,0.100000,0,0,0.000000,0,8.000000,0.000000,9.857401,0,0,0,0,0,0,0
0,9999,53,0,53,0,49,9999,0.100000,0,0,0.000000,0,11.000000,0.000000,22.378785,0,0,0,0,0,0,0
0,9999,54,0,54,0,49,9999,0.100000,0,0,0.000000,0,10.000000,0.000000,27.176066,0,0,0,0,0,0,0
0,9999,55,0,55,0,49,9999,0.100000,0,0,0.000000,0,10.000000,0.000000,16.458948,0,0,0,0,0,0,0
0,9999,56,0,56,0,49,9999,0.100000,0,0,0.000000,0,7.000000,0.000000,19.156866,0,0,0,0,0,0,0
0,9999,57,0,57,0,49,9999,0.100000,0,0,0.000000,0,3.000000,0.000000,3.675776,0,0,0,0,0,0,0
0,9999,58,0,58,0,49,9999,0.100000,0,0,0.000000,0,8.000000,0.000000,8.726076,0,0,0,0,0,0,0
0,9999,59,0,59,0,49,9999,0.100000,0,0,0.000000,0,7.000000,0.000000,8.908024,0,0,0,0,0,0,0
0,9999,60,0,60,0,49,9999,0.100000,0,0,0.000000,0,9.000000,0.000000,10.302646,0,0,0,0,0,0,0
0,9999,61,0,61,0,49,9999,0.100000,0,0,0.000000,0,11.000000,0.000000,20.661874,0,0,0,0,0,0,0
0,9999,62,0,62,0,49,9999,0.100000,0,0,0.000000,0,11.000000,0.000000,23.248460,0,0,0,0,0,0,0
0,9999,63,0,63,0,49,9999,0.100000,0,0,0.000000,0,11.000000,0.000000,17.344433,0,0,0,0,0,0,0
0,9999,64,0,64,0,49,9999,0.100000,0,0,0.000000,0,9.000000,0.000000,13.372926,0,0,0,0,0,0,0
0,9999,65,0,65,0,49,9999,0.100000,0,0,0.000000,0,4.000000,0.000000,5.388312,0,0,0,0,0,0,0
0,9999,66,0,66,0,49,9999,0.100000,0,0,0.000000,0,7.000000,0.000000,15.916892,0,0,0,0,0,0,0
0,9999,67,0,67,0,49,9999,0.100000,0,0,0.000000,0,9.000000,0.000000,10.591355,0,0,0,0,0,0,0
0,9999,68,0,68,0,49,9999,0.100000,0,0,0.000000,0,2.000000,0.000000,25.394005,0,0,0,0,0,0,0
0,9999,69,0,69,0,49,9999,0.100000,0,0,0.000000,0,5.000000,0.000000,14.509992,0,0,0,0,0,0,0
0,9999,70,0,70,0,49,9999,0.100000,0,0,0.000000,0,5.000000,0.000000,5.396848,0,0,0,0,0,0,0
0,9999,71,0,71,0,49,9999,0.100000,0,0,0.000000,0,9.000000,0.000000,9.841573,0,0,0,0,0,0,0
0,9999,72,0,72,0,49,9999,0.100000,0,0,0.000000,0,9.000000,0.000000,16.561842,0,0,0,0,0,0,0
0,9999,73,0,73,0,49,9999,0.100000,0,0,0.000000,0,4.000000,0.000000,5.486527,0,0,0,0,0,0,0
0,9999,74,0,74,0,49,9999,0.100000,0,0,0.000000,0,8.000000,0.000000,19.383414,0,0,0,0,0,0,0
0,9999,75,0,75,0,49,9999,0.100000,0,0,0.000000,0,10.000000,0.000000,20.419358,0,0,0,0,0,0,0
0,9999,76,0,76,0,49,9999,0.100000,0,0,0.000000,0,7.000000,0.000000,14.325999,0,0,0,0,0,0,0
0,9999,77,0,77,0,49,9999,0.100000,0,0,0.000000,0,8.000000,0.000000,20.714876,0,0,0,0,0,0,0
0,9999,78,0,78,0,49,9999,0.100000,0,0,0.000000,0,8.000000,0.000000,18.653236,0,0,0,0,0,0,0
0,9999,79,0,79,0,49,9999,0.100000,0,0,0.000000,0,8.000000,0.000000,20.864258,0,0,0,0,0,0,0
0,9999,80,0,80,0,49,9999,0.100000,0,0,0.000000,0,4.000000,0.000000,5.352275,0,0,0,0,0,0,0
0,9999,81,0,81,0,49,9999,0.100000,0,0,0.000000,0,6.000000,0.000000,18.851377,0,0,0,0,0,0,0
0,9999,82,0,82,0,49,9999,0.100000,0,0,0.000000,0,4.000000,0.000000,10.808751,0,0,0,0,0,0,0
0,9999,83,0,83,0,49,9999,0.100000,0,0,0.000000,0,9.000000,0.000000,13.606077,0,0,0,0,0,0,0
0,9999,84,0,84,0,49,9999,0.100000,0,0,0.000000,0,7.000000,0.000000,10.357632,0,0,0,0,0,0,0
0,9999,85,0,85,0,49,9999,0.100000,0,0,0.000000,0,4.000000,0.000000,13.023941,0,0,0,0,0,0,0
0,9999,86,0,86,0,49,9999,0.100000,0,0,0.000000,0,12.000000,0.000000,27.561088,0,0,0,0,0,0,0
0,9999,87,0,87,0,49,9999,0.100000,0,0,0.000000,0,8.000000,0.000000,8.750496,0,0,0,0,0,0,0
0,9999,88,0,88,0,49,9999,0.100000,0,0,0.000000,0,10.000000,0.000000,18.174137,0,0,0,0,0,0,0
0,9999,89,0,89,0,49,9999,0.100000,0,0,0.000000,0,13.000000,0.000000,20.174982,0,0,0,0,0,0,0
0,9999,90,0,90,0,49,9999,0.100000,0,0,0.000000,0,4.000000,0.000000,5.634256,0,0,0,0,0,0,0
0,9999,91,0,91,0,49,9999,0.100000,0,0,0.000000,0,13.000000,0.000000,40.450629,0,0,0,0,0,0,0
0,9999,92,0,92,0,49,9999,0.100000,0,0,0.000000,0,7.000000,0.000000,14.109283,0,0,0,0,0,0,0
0,9999,93,0,93,0,49,9999,0.100000,0,0,0.000000,0,11.000000,0.000000,22.062451,0,0,0,0,0,0,0
0,9999,94,0,94,0,49,9999,0.100000,0,0,0.000000,0,10.000000,0.000000,12.545487,0,0,0,0,0,0,0
0,9999,95,0,95,0,49,9999,0.100000,0,0,0.000000,0,11.000000,0.000000,19.387107,0,0,0,0,0,0,0
0,9999,96,0,96,0,49,9999,0.100000,0,0,0.000000,0,7.000000,0.000000,15.429406,0,0,0,0,0,0,0
0,9999,97,0,97,0,49,9999,0.100000,0,0,0.000000,0,10.000000,0.000000,24.538896,0,0,0,0,0,0,0
0,9999,98,0,98,0,49,9999,0.100000,0,0,0.000000,0,5.000000,0.000000,5.856725,0,0,0,0,0,0,0
0,9999,99,0,99,0,49,9999,0.100000,0,0,0.000000,0,8.000000,0.000000,10.681057,0,0,0,0,0,0,0
1,19999,0,10000,0,0,40,9999,0.100000,0,0,0.000000,1,0.000000,0.000000,7.919036,0,0,0,0,0,0,0
1,19999,1,10000,27,0,40,9999,0.100000,0,0,0.000000,2,0.000000,0.000000,0.437035,0,0,0,0,0,0,0
1,19999,2,0,2,0,49,19999,0.100000,0,0,0.000000,1,1.000000,0.000000,4.664875,0,0,0,0,0,0,0
1,19999,3,10000,0,0,49,9999,0.100000,0,0,0.000000,2,2.000000,0.000000,7.577862,0,0,0,0,0,0,0
1,19999,4,10000,41,0,9,9999,0.100000,0,0,34.210526,4,3.000000,0.000000,7.207135,0,0,0,1,0,0,0
1,19999,5,10000,8,0,49,9999,0.100000,0,0,0.000000,4,2.000000,0.000000,9.844319,0,0,0,0,0,0,0
1,19999,6,10000,0,0,49,9999,0.100000,0,0,0.000000,1,1.000000,0.000000,1.313758,0,0,0,0,0,0,0
1,19999,7,10000,8,0,40,9999,0.100000,0,0,0.000000,4,0.000000,0.000000,0.146175,0,0,0,0,0,0,0
1,19999,8,10000,0,0,49,9999,0.100000,0,0,0.000000,3,1.000000,0.000000,9.234053,0,0,0,0,0,0,0
1,19999,9,10000,0,0,49,9999,0.100000,0,0,0.000000,1,1.000000,0.000000,10.984532,0,0,0,0,0,0,0
1,19999,10,10000,0,0,49,9999,0.100000,0,0,0.000000,3,1.000000,0.000000,12.774832,0,0,0,0,0,0,0
1,19999,11,10000,41,0,40,9999,0.100000,0,0,0.000000,4,0.000000,0.000000,2.774181,0,0,0,0,0,0,0
1,19999,12,10000,0,0,49,9999,0.100000,0,0,0.000000,4,2.000000,0.000000,13.358413,0,0,0,0,0,0,0
1,19999,13,10000,0,0,40,9999,0.100000,0,0,0.000000,2,0.000000,0.000000,0.166213,0,0,0,0,0,0,0
1,19999,14,10000,0,0,40,9999,0.100000,0,0,0.000000,2,0.000000,0.000000,0.142305,0,0,0,0,0,0,0
1,19999,15,10000,17,0,40,9999,0.100000,0,0,0.000000,2,0.000000,0.000000,0.331921,0,0,0,0,0,0,0
1,19999,16,0,16,0,40,19999,0.100000,0,0,0.000000,4,0.000000,0.000000,0.347211,0,0,0,0,0,0,0
1,19999,17,10000,17,0,49,9999,0.100000,0,0,0.000000,2,3.000000,0.000000,11.722813,0,0,0,0,0,0,0
1,19999,18,10000,24,0,9,9999,0.100000,0,0,34.210526,4,3.000000,0.000000,5.315369,0,0,0,0,0,1,0
1,19999,19,10000,41,0,40,9999,0.100000,0,0,0.000000,4,0.000000,0.000000,0.594679,0,0,0,0,0,0,0
1,19999,20,0,20,0,49,19999,0.100000,0,0,0.000000,2,5.000000,0.000000,21.505314,0,0,0,0,0,0,0
1,19999,21,10000,0,0,49,9999,0.065000,0,0,0.000000,1,2.000000,0.000000,4.510698,0,0,0,0,0,0,0
1,19999,22,10000,0,0,49,9999,0.100000,0,0,0.000000,4,2.000000,0.000000,6.542333,0,0,0,0,0,0,0
1,19999,23,10000,14,0,40,9999,0.100000,0,0,0.000000,2,0.000000,0.000000,0.251080,0,0,0,0,0,0,0
1,19999,24,10000,41,0,40,9999,0.100000,0,0,0.000000,4,0.000000,0.000000,0.843582,0,0,0,0,0,0,0
1,19999,25,10000,41,0,40,9999,0.100000,0,0,0.000000,4,0.000000,0.000000,0.331320,0,0,0,0,0,0,0
1,19999,26,10000,0,0,49,9999,0.100000,0,0,0.000000,2,1.000000,0.000000,19.421923,0,0,0,0,0,0,0
1,19999,27,10000,27,0,40,9999,0.100000,0,0,0.000000,2,0.000000,0.000000,0.187808,0,0,0,0,0,0,0
1,19999,28,10000,41,0,40,9999,0.100000,0,0,0.000000,4,0.000000,0.000000,0.755128,0,0,0,0,0,0,0
1,19999,29,0,29,0,40,19999,0.100000,0,0,0.000000,4,0.000000,0.000000,4.956149,0,0,0,0,0,0,0
1,19999,30,10000,8,0,49,9999,0.100000,0,0,0.000000,3,1.000000,0.000000,12.805481,0,0,0,0,0,0,0
1,19999,31,10000,14,0,40,9999,0.100000,0,0,0.000000,2,0.000000,0.000000,0.869559,0,0,0,0,0,0,0
1,19999,32,10000,8,0,40,9999,0.100000,0,0,0.000000,3,0.000000,0.000000,1.070848,0,0,0,0,0,0,0
1,19999,33,10000,27,0,49,9999,0.100000,0,0,0.000000,2,2.000000,0.000000,4.525978,0,0,0,0,0,0,0
1,19999,34,10000,0,0,40,9999,0.100000,0,0,0.000000,1,0.000000,0.000000,2.142907,0,0,0,0,0,0,0
1,19999,35,10000,11,0,49,9999,0.100000,0,0,0.000000,4,2.000000,0.000000,16.387172,0,0,0,0,0,0,0
1,19999,36,10000,41,0,40,9999,0.100000,0,0,0.000000,4,0.000000,0.000000,9.252909,0,0,0,0,0,0,0
1,19999,37,10000,14,0,49,9999,0.100000,0,0,0.000000,2,4.000000,0.000000,16.027667,0,0,0,0,0,0,0
1,19999,38,10000,41,0,40,9999,0.100000,0,0,0.000000,4,0.000000,0.000000,0.726987,0,0,0,0,0,0,0
1,19999,39,10000,8,0,40,9999,0.100000,0,0,0.000000,4,0.000000,0.000000,0.628017,0,0,0,0,0,0,0
1,19999,40,10000,0,0,49,9999,0.100000,0,0,0.000000,4,2.000000,0.000000,11.115269,0,0,0,0,0,0,0
1,19999,41,0,41,0,40,19999,0.100000,0,0,0.000000,3,0.000000,0.000000,0.107680,0,0,0,0,0,0,0
1,19999,42,10000,0,0,40,9999,0.100000,0,0,0.000000,2,0.000000,0.000000,0.160172,0,0,0,0,0,0,0
1,19999,43,10000,8,0,40,9999,0.100000,0,0,0.000000,4,0.000000,0.000000,20.959103,0,0,0,0,0,0,0
1,19999,44,10000,8,0,9,9999,0.100000,0,0,0.000000,4,2.000000,0.000000,10.376989,0,0,0,0,1,0,0
1,19999,45,10000,41,0,40,9999,0.100000,0,0,0.000000,4,0.000000,0.000000,2.655378,0,0,0,0,0,0,0
1,19999,46,10000,27,0,40,9999,0.100000,0,0,0.000000,2,0.000000,0.000000,0.612935,0,0,0,0,0,0,0
1,19999,47,10000,41,0,40,9999,0.100000,0,0,0.000000,4,0.000000,0.000000,1.084838,0,0,0,0,0,0,0
1,19999,48,10000,27,0,49,9999,0.100000,0,0,0.000000,2,8.000000,0.000000,9.616231,0,0,0,0,0,0,0
1,19999,49,10000,8,0,49,9999,0.100000,0,0,0.000000,4,1.000000,0.000000,8.930884,0,0,0,0,0,0,0
1,19999,50,10000,0,0,49,9999,0.100000,0,0,0.000000,2,2.000000,0.000000,4.175580,0,0,0,0,0,0,0
1,19999,51,10000,0,0,40,9999,0.100000,0,0,0.000000,4,0.000000,0.000000,0.097406,0,0,0,0,0,0,0
1,19999,52,0,52,0,9,19999,0.100000,0,0,0.000000,2,1.000000,0.000000,8.661611,0,0,0,0,1,0,0
1,19999,53,10000,0,0,49,9999,0.100000,0,0,0.000000,4,2.000000,0.000000,7.410500,0,0,0,0,0,0,0
1,19999,54,10000,41,0,49,9999,0.100000,0,0,0.000000,4,1.000000,0.000000,1.553226,0,0,0,0,0,0,0
1,19999,55,10000,27,0,49,9999,0.100000,0,0,0.000000,2,3.000000,0.000000,3.543213,0,0,0,0,0,0,0
1,19999,56,10000,0,0,49,9999,0.100000,0,0,0.000000,4,4.000000,0.000000,11.381011,0,0,0,0,0,0,0
1,19999,57,10000,8,0,40,9999,0.100000,0,0,0.000000,4,0.000000,0.000000,0.192956,0,0,0,0,0,0,0
1,19999,58,10000,8,0,40,9999,0.100000,0,0,0.000000,4,0.000000,0.000000,0.133021,0,0,0,0,0,0,0
1,19999,59,10000,24,0,40,9999,0.100000,0,0,0.000000,4,0.000000,0.000000,0.195654,0,0,0,0,0,0,0
1,19999,60,10000,24,0,40,9999,0.100000,0,0,0.000000,4,0.000000,0.000000,0.061824,0,0,0,0,0,0,0
1,19999,61,10000,8,0,49,9999,0.100000,0,0,0.000000,4,2.000000,0.000000,6.700776,0,0,0,0,0,0,0
1,19999,62,10000,0,0,40,9999,0.100000,0,0,0.000000,2,0.000000,0.000000,4.603442,0,0,0,0,0,0,0
1,19999,63,0,63,0,40,19999,0.100000,0,0,0.000000,1,0.000000,0.000000,2.368837,0,0,0,0,0,0,0
1,19999,64,10000,41,0,40,9999,0.100000,0,0,0.000000,4,0.000000,0.000000,1.053854,0,0,0,0,0,0,0
1,19999,65,10000,41,0,9,9999,0.100000,0,0,34.210526,4,3.000000,0.000000,11.377943,0,0,0,0,0,1,0
1,19999,66,10000,0,0,49,9999,0.100000,0,0,0.000000,3,2.000000,0.000000,7.496508,0,0,0,0,0,0,0
1,19999,67,10000,14,0,40,9999,0.100000,0,0,0.000000,2,0.000000,0.000000,0.196537,0,0,0,0,0,0,0
1,19999,68,10000,0,0,40,9999,0.100000,0,0,0.000000,1,0.000000,0.000000,3.385404,0,0,0,0,0,0,0
1,19999,69,10000,0,0,40,9999,0.100000,0,0,0.000000,4,0.000000,0.000000,0.874353,0,0,0,0,0,0,0
1,19999,70,10000,41,0,40,9999,0.100000,0,0,0.000000,4,0.000000,0.000000,0.683643,0,0,0,0,0,0,0
1,19999,71,10000,8,0,40,9999,0.100000,0,0,0.000000,3,0.000000,0.000000,0.104139,0,0,0,0,0,0,0
1,19999,72,10000,27,0,49,9999,0.100000,0,0,0.000000,2,3.000000,0.000000,4.011290,0,0,0,0,0,0,0
1,19999,73,10000,27,0,9,9999,0.100000,0,0,34.210526,2,3.000000,0.000000,16.221464,0,0,0,0,0,1,0
1,19999,74,10000,0,0,40,9999,0.100000,0,0,0.000000,4,0.000000,0.000000,7.149555,0,0,0,0,0,0,0
1,19999,75,10000,0,0,40,9999,0.100000,0,0,0.000000,2,0.000000,0.000000,0.630184,0,0,0,0,0,0,0
1,19999,76,0,76,0,40,19999,0.100000,0,0,0.000000,2,0.000000,0.000000,0.473922,0,0,0,0,0,0,0
1,19999,77,10000,0,0,40,9999,0.100000,0,0,0.000000,4,0.000000,0.000000,1.429213,0,0,0,0,0,0,0
1,19999,78,0,78,0,49,19999,0.100000,0,0,0.000000,2,1.000000,0.000000,1.467098,0,0,0,0,0,0,0
1,19999,79,10000,0,0,49,9999,0.100000,0,0,0.000000,3,2.000000,0.000000,12.520909,0,0,0,0,0,0,0
1,19999,80,10000,24,0,40,9999,0.100000,0,0,0.000000,4,0.000000,0.000000,0.385010,0,0,0,0,0,0,0
1,19999,81,10000,27,0,49,9999,0.100000,0,0,0.000000,2,1.000000,0.000000,17.559198,0,0,0,0,0,0,0
1,19999,82,10000,27,0,9,9999,0.100000,0,0,34.210526,2,3.000000,0.000000,17.374476,0,0,0,0,0,1,0
1,19999,83,10000,24,0,49,9999,0.100000,0,0,0.000000,4,2.000000,0.000000,6.530504,0,0,0,0,0,0,0
1,19999,84,10000,0,0,40,9999,0.100000,0,0,0.000000,4,0.000000,0.000000,0.599454,0,0,0,0,0,0,0
1,19999,85,10000,8,0,99,9999,0.100000,0,0,34.210526,3,11.000000,0.000000,18.115104,0,0,1,0,0,0,0
1,19999,86,0,86,0,49,19999,0.100000,0,0,0.000000,1,2.000000,0.000000,3.938840,0,0,0,0,0,0,0
1,19999,87,10000,41,0,40,9999,0.100000,0,0,0.000000,4,0.000000,0.000000,1.268990,0,0,0,0,0,0,0
1,19999,88,10000,0,0,49,9999,0.100000,0,0,0.000000,3,1.000000,0.000000,9.639413,0,0,0,0,0,0,0
1,19999,89,10000,14,0,49,9999,0.100000,0,0,0.000000,2,2.000000,0.000000,17.240532,0,0,0,0,0,0,0
1,19999,90,10000,0,0,40,9999,0.100000,0,0,0.000000,2,0.000000,0.000000,0.652688,0,0,0,0,0,0,0
1,19999,91,10000,0,0,49,9999,0.100000,0,0,0.000000,2,1.000000,0.000000,3.243979,0,0,0,0,0,0,0
1,19999,92,10000,41,0,40,9999,0.100000,0,0,0.000000,4,0.000000,0.000000,0.738862,0,0,0,0,0,0,0
1,19999,93,10000,27,0,49,9999,0.100000,0,0,0.000000,2,3.000000,0.000000,14.464107,0,0,0,0,0,0,0
1,19999,94,10000,8,0,49,9999,0.100000,0,0,0.000000,4,1.000000,0.000000,7.905776,0,0,0,0,0,0,0
1,19999,95,0,95,0,49,19999,0.100000,0,0,0.000000,1,2.000000,0.000000,10.627149,0,0,0,0,0,0,0
1,19999,96,10000,27,0,9,9999,0.100000,0,0,34.210526,2,4.000000,0.000000,16.551466,0,0,0,1,0,0,0
1,19999,97,10000,0,0,49,9999,0.100000,0,0,0.000000,4,1.000000,0.000000,4.481809,0,0,0,0,0,0,0
1,19999,98,10000,41,0,40,9999,0.100000,0,0,0.000000,4,0.000000,0.000000,0.137157,0,0,0,0,0,0,0
1,19999,99,10000,0,0,40,9999,0.100000,0,0,0.000000,4,0.000000,0.000000,0.242535,0,0,0,0,0,0,0
2,29999,0,20000,0,0,49,9999,0.100000,0,0,0.000000,4,1.000000,0.000000,23.114529,0,0,0,0,0,0,0
2,29999,1,20000,16,0,40,9999,0.100000,0,0,0.000000,5,0.000000,0.000000,0.164970,0,0,0,0,0,0,0
2,29999,2,20000,41,0,49,9999,0.100000,0,0,0.000000,5,1.000000,0.000000,7.591064,0,0,0,0,0,0,0
2,29999,3,20000,0,10000,49,9999,0.100000,0,0,0.000000,5,4.000000,0.000000,10.765333,0,0,0,0,0,0,0
2,29999,4,20000,24,10000,40,9999,0.100000,0,0,0.000000,6,0.000000,0.000000,8.615678,0,0,0,0,0,0,0
2,29999,5,20000,0,0,49,9999,0.100000,0,0,0.000000,5,2.000000,0.000000,6.917440,0,0,0,0,0,0,0
2,29999,6,20000,0,10000,40,9999,0.100000,0,0,0.000000,5,0.000000,0.000000,1.058236,0,0,0,0,0,0,0
2,29999,7,20000,0,0,40,9999,0.100000,0,0,0.000000,5,0.000000,0.000000,0.551770,0,0,0,0,0,0,0
2,29999,8,20000,41,0,40,9999,0.100000,0,0,0.000000,6,0.000000,0.000000,0.936777,0,0,0,0,0,0,0
2,29999,9,20000,0,0,49,9999,0.100000,0,0,0.000000,5,1.000000,0.000000,10.928508,0,0,0,0,0,0,0
2,29999,10,20000,24,0,40,9999,0.100000,0,0,0.000000,5,0.000000,0.000000,21.840669,0,0,0,0,0,0,0
2,29999,11,20000,41,0,99,9999,0.100000,0,0,34.210526,6,7.000000,0.000000,11.781811,0,0,1,0,0,0,0
2,29999,12,20000,41,0,49,9999,0.100000,0,0,0.000000,5,5.000000,0.000000,5.777984,0,0,0,0,0,0,0
2,29999,13,20000,24,10000,40,9999,0.100000,0,0,0.000000,6,0.000000,0.000000,0.132827,0,0,0,0,0,0,0
2,29999,14,20000,24,0,40,9999,0.065000,0,0,0.000000,5,0.000000,0.000000,1.142577,0,0,0,0,0,0,0
2,29999,15,20000,27,10000,40,9999,0.100000,0,0,0.000000,6,0.000000,0.000000,0.749461,0,0,0,0,0,0,0
2,29999,16,20000,16,0,49,9999,0.100000,0,0,0.000000,5,6.000000,0.000000,21.124666,0,0,0,0,0,0,0
2,29999,17,20000,24,0,49,9999,0.100000,0,0,0.000000,5,1.000000,0.000000,8.622458,0,0,0,0,0,0,0
2,29999,18,20000,58,10000,49,9999,0.100000,0,0,0.000000,5,4.000000,0.000000,8.765522,0,0,0,0,0,0,0
2,29999,19,20000,58,10000,40,9999,0.100000,0,0,0.000000,5,0.000000,0.000000,0.556005,0,0,0,0,0,0,0
2,29999,20,20000,41,0,49,9999,0.100000,0,0,0.000000,5,1.000000,0.000000,19.790477,0,0,0,0,0,0,0
2,29999,21,20000,0,0,40,9999,0.100000,0,0,0.000000,6,0.000000,0.000000,0.711511,0,0,0,0,0,0,0
2,29999,22,20000,0,10000,40,9999,0.100000,0,0,0.000000,6,0.000000,0.000000,5.940666,0,0,0,0,0,0,0
2,29999,23,20000,0,0,40,9999,0.100000,0,0,0.000000,5,0.000000,0.000000,0.230095,0,0,0,0,0,0,0
2,29999,24,20000,41,0,40,9999,0.100000,0,0,0.000000,6,0.000000,0.000000,0.786302,0,0,0,0,0,0,0
2,29999,25,20000,0,0,40,9999,0.100000,0,0,0.000000,5,0.000000,0.000000,0.180828,0,0,0,0,0,0,0
2,29999,26,20000,16,0,40,9999,0.100000,0,0,0.000000,5,0.000000,0.000000,22.919228,0,0,0,0,0,0,0
2,29999,27,20000,24,0,40,9999,0.100000,0,0,0.000000,6,0.000000,0.000000,0.189837,0,0,0,0,0,0,0
2,29999,28,20000,0,10000,40,9999,0.100000,0,0,0.000000,5,0.000000,0.000000,0.564168,0,0,0,0,0,0,0
2,29999,29,20000,0,0,40,9999,0.100000,0,0,0.000000,5,0.000000,0.000000,1.555133,0,0,0,0,0,0,0
2,29999,30,20000,24,10000,40,9999,0.100000,0,0,0.000000,6,0.000000,0.000000,8.065591,0,0,0,0,0,0,0
2,29999,31,20000,0,0,49,9999,0.100000,0,0,0.000000,5,1.000000,0.000000,4.169414,0,0,0,0,0,0,0
2,29999,32,20000,41,0,40,9999,0.100000,0,0,0.000000,5,0.000000,0.000000,0.292697,0,0,0,0,0,0,0
2,29999,33,20000,0,0,40,9999,0.100000,0,0,0.000000,5,0.000000,0.000000,1.529203,0,0,0,0,0,0,0
2,29999,34,20000,41,0,40,9999,0.100000,0,0,0.000000,6,0.000000,0.000000,0.089327,0,0,0,0,0,0,0
2,29999,35,20000,16,0,49,9999,0.100000,0,0,0.000000,5,3.000000,0.000000,8.863391,0,0,0,0,0,0,0
2,29999,36,20000,24,0,49,9999,0.100000,0,0,0.000000,6,1.000000,0.000000,5.921153,0,0,0,0,0,0,0
2,29999,37,20000,58,10000,40,9999,0.100000,0,0,0.000000,5,0.000000,0.000000,0.077260,0,0,0,0,0,0,0
2,29999,38,20000,0,0,40,9999,0.100000,0,0,0.000000,4,0.000000,0.000000,2.521873,0,0,0,0,0,0,0
2,29999,39,20000,0,10000,40,9999,0.100000,0,0,0.000000,5,0.000000,0.000000,0.204540,0,0,0,0,0,0,0
2,29999,40,20000,0,10000,49,9999,0.100000,0,0,0.000000,5,7.000000,0.000000,18.390182,0,0,0,0,0,0,0
2,29999,41,20000,0,10000,40,9999,0.100000,0,0,0.000000,6,0.000000,0.000000,0.107254,0,0,0,0,0,0,0
2,29999,42,20000,16,0,40,9999,0.100000,0,0,0.000000,5,0.000000,0.000000,0.142858,0,0,0,0,0,0,0
2,29999,43,20000,0,0,40,9999,0.100000,0,0,0.000000,5,0.000000,0.000000,20.642299,0,0,0,0,0,0,0
2,29999,44,20000,24,0,40,9999,0.100000,0,0,0.000000,5,0.000000,0.000000,6.575859,0,0,0,0,0,0,0
2,29999,45,20000,0,10000,49,9999,0.100000,0,0,0.000000,5,4.000000,0.000000,9.961453,0,0,0,0,0,0,0
2,29999,46,20000,41,0,40,9999,0.100000,0,0,0.000000,5,0.000000,0.000000,7.208207,0,0,0,0,0,0,0
2,29999,47,20000,24,0,40,9999,0.100000,0,0,0.000000,6,0.000000,0.000000,0.405673,0,0,0,0,0,0,0
2,29999,48,20000,0,10000,40,9999,0.100000,0,0,0.000000,5,0.000000,0.000000,0.487153,0,0,0,0,0,0,0
2,29999,49,20000,24,0,40,9999,0.100000,0,0,0.000000,5,0.000000,0.000000,6.305620,0,0,0,0,0,0,0
2,29999,50,20000,0,10000,40,9999,0.100000,0,0,0.000000,5,0.000000,0.000000,0.723674,0,0,0,0,0,0,0
2,29999,51,20000,0,10000,40,9999,0.100000,0,0,0.000000,5,0.000000,0.000000,0.879213,0,0,0,0,0,0,0
2,29999,52,20000,24,0,40,9999,0.100000,0,0,0.000000,6,0.000000,0.000000,6.038247,0,0,0,0,0,0,0
2,29999,53,20000,0,10000,49,9999,0.100000,0,0,0.000000,5,1.000000,0.000000,5.164728,0,0,0,0,0,0,0
2,29999,54,20000,24,0,40,9999,0.100000,0,0,0.000000,6,0.000000,0.000000,0.738430,0,0,0,0,0,0,0
2,29999,55,20000,24,0,40,9999,0.100000,0,0,0.000000,5,0.000000,0.000000,5.895145,0,0,0,0,0,0,0
2,29999,56,20000,0,0,49,9999,0.100000,0,0,0.000000,5,1.000000,0.000000,7.872110,0,0,0,0,0,0,0
2,29999,57,20000,41,0,40,9999,0.100000,0,0,0.000000,6,0.000000,0.000000,0.189379,0,0,0,0,0,0,0
2,29999,58,20000,24,0,40,9999,0.100000,0,0,0.000000,5,0.000000,0.000000,0.218735,0,0,0,0,0,0,0
2,29999,59,20000,41,0,40,9999,0.100000,0,0,0.000000,5,0.000000,0.000000,0.292652,0,0,0,0,0,0,0
2,29999,60,20000,24,10000,40,9999,0.100000,0,0,0.000000,6,0.000000,0.000000,0.088170,0,0,0,0,0,0,0
2,29999,61,20000,16,0,49,9999,0.100000,0,0,0.000000,5,7.000000,0.000000,25.471369,0,0,0,0,0,0,0
2,29999,62,20000,58,10000,49,9999,0.100000,0,0,0.000000,5,3.000000,0.000000,6.005943,0,0,0,0,0,0,0
2,29999,63,20000,41,0,40,9999,0.100000,0,0,0.000000,5,0.000000,0.000000,1.633303,0,0,0,0,0,0,0
2,29999,64,20000,0,0,40,9999,0.100000,0,0,0.000000,6,0.000000,0.000000,0.461734,0,0,0,0,0,0,0
2,29999,65,20000,41,0,49,9999,0.100000,0,0,0.000000,6,1.000000,0.000000,9.051937,0,0,0,0,0,0,0
2,29999,66,20000,0,10000,40,9999,0.100000,0,0,0.000000,5,0.000000,0.000000,0.979336,0,0,0,0,0,0,0
2,29999,67,20000,41,0,49,9999,0.100000,0,0,0.000000,5,2.000000,0.000000,5.309837,0,0,0,0,0,0,0
2,29999,68,20000,58,10000,40,9999,0.100000,0,0,0.000000,6,0.000000,0.000000,0.098945,0,0,0,0,0,0,0
2,29999,69,20000,0,0,40,9999,0.100000,0,0,0.000000,6,0.000000,0.000000,0.708467,0,0,0,0,0,0,0
2,29999,70,20000,24,10000,49,9999,0.100000,0,0,0.000000,6,1.000000,0.000000,1.800651,0,0,0,0,0,0,0
2,29999,71,20000,0,0,40,9999,0.100000,0,0,0.000000,5,0.000000,0.000000,0.352454,0,0,0,0,0,0,0
2,29999,72,20000,24,0,40,9999,0.100000,0,0,0.000000,5,0.000000,0.000000,7.162138,0,0,0,0,0,0,0
2,29999,73,20000,0,0,49,9999,0.100000,0,0,0.000000,5,4.000000,0.000000,14.378725,0,0,0,0,0,0,0
2,29999,74,20000,24,10000,49,9999,0.100000,0,0,0.000000,6,5.000000,0.000000,18.212816,0,0,0,0,0,0,0
2,29999,75,20000,0,10000,49,9999,0.100000,0,0,0.000000,5,3.000000,0.000000,5.209236,0,0,0,0,0,0,0
2,29999,76,20000,0,10000,40,9999,0.100000,0,0,0.000000,6,0.000000,0.000000,0.165092,0,0,0,0,0,0,0
2,29999,77,20000,0,0,40,9999,0.100000,0,0,0.000000,6,0.000000,0.000000,2.630125,0,0,0,0,0,0,0
2,29999,78,20000,24,0,40,9999,0.100000,0,0,0.000000,6,0.000000,0.000000,0.731088,0,0,0,0,0,0,0
2,29999,79,20000,0,0,49,9999,0.100000,0,0,0.000000,5,1.000000,0.000000,4.739778,0,0,0,0,0,0,0
2,29999,80,20000,27,10000,40,9999,0.100000,0,0,0.000000,6,0.000000,0.000000,0.189108,0,0,0,0,0,0,0
2,29999,81,20000,0,0,49,9999,0.100000,0,0,0.000000,6,3.000000,0.000000,7.678522,0,0,0,0,0,0,0
2,29999,82,20000,24,0,40,9999,0.100000,0,0,0.000000,6,0.000000,0.000000,7.887363,0,0,0,0,0,0,0
2,29999,83,20000,0,10000,49,9999,0.100000,0,0,0.000000,6,3.000000,0.000000,8.574419,0,0,0,0,0,0,0
2,29999,84,20000,0,10000,40,9999,0.100000,0,0,0.000000,5,0.000000,0.000000,0.899003,0,0,0,0,0,0,0
2,29999,85,20000,41,0,49,9999,0.100000,0,0,0.000000,5,1.000000,0.000000,9.339799,0,0,0,0,0,0,0
2,29999,86,20000,0,10000,49,9999,0.100000,0,0,0.000000,6,5.000000,0.000000,5.836428,0,0,0,0,0,0,0
2,29999,87,20000,0,0,49,9999,0.100000,0,0,0.000000,5,3.000000,0.000000,12.605783,0,0,0,0,0,0,0
2,29999,88,20000,58,10000,49,9999,0.100000,0,0,0.000000,5,1.000000,0.000000,14.892725,0,0,0,0,0,0,0
2,29999,89,20000,58,10000,49,9999,0.100000,0,0,0.000000,6,6.000000,0.000000,11.732106,0,0,0,0,0,0,0
2,29999,90,20000,0,10000,49,9999,0.100000,0,0,0.000000,5,1.000000,0.000000,1.353481,0,0,0,0,0,0,0
2,29999,91,20000,24,10000,49,9999,0.100000,0,0,0.000000,6,3.000000,0.000000,14.824688,0,0,0,0,0,0,0
2,29999,92,20000,0,10000,49,9999,0.100000,0,0,0.000000,5,1.000000,0.000000,2.385099,0,0,0,0,0,0,0
2,29999,93,20000,41,0,49,9999,0.100000,0,0,0.000000,6,5.000000,0.000000,13.087419,0,0,0,0,0,0,0
2,29999,94,20000,58,10000,40,9999,0.100000,0,0,0.000000,5,0.000000,0.000000,7.083045,0,0,0,0,0,0,0
2,29999,95,20000,24,0,40,9999,0.100000,0,0,0.000000,5,0.000000,0.000000,0.177761,0,0,0,0,0,0,0
2,29999,96,20000,0,10000,40,9999,0.100000,0,0,0.000000,5,0.000000,0.000000,4.988305,0,0,0,0,0,0,0
2,29999,97,20000,24,0,49,9999,0.100000,0,0,0.000000,5,1.000000,0.000000,9.491829,0,0,0,0,0,0,0
2,29999,98,20000,24,10000,40,9999,0.100000,0,0,0.000000,6,0.000000,0.000000,0.086226,0,0,0,0,0,0,0
2,29999,99,20000,24,10000,40,9999,0.100000,0,0,0.000000,6,0.000000,0.000000,2.465753,0,0,0,0,0,0,0
3,39999,0,30000,41,0,49,9999,0.100000,0,0,0.000000,6,2.000000,0.000000,24.401175,0,0,0,0,0,0,0
3,39999,1,30000,24,10000,40,9999,0.100000,0,0,0.000000,6,0.000000,0.000000,0.159365,0,0,0,0,0,0,0
3,39999,2,30000,0,10000,49,9999,0.100000,0,0,0.000000,6,1.000000,0.000000,2.402952,0,0,0,0,0,0,0
3,39999,3,30000,0,10000,49,9999,0.100000,0,0,0.000000,6,1.000000,0.000000,8.746348,0,0,0,0,0,0,0
3,39999,4,30000,24,0,40,9999,0.100000,0,0,0.000000,6,0.000000,0.000000,5.791399,0,0,0,0,0,0,0
3,39999,5,30000,0,10000,40,9999,0.100000,0,0,0.000000,6,0.000000,0.000000,8.331677,0,0,0,0,0,0,0
3,39999,6,30000,24,0,40,9999,0.100000,0,0,0.000000,6,0.000000,0.000000,1.000187,0,0,0,0,0,0,0
3,39999,7,30000,24,10000,40,9999,0.135000,0,0,0.000000,6,0.000000,0.000000,0.428288,0,0,0,0,0,0,0
3,39999,8,30000,0,0,40,9999,0.100000,0,0,0.000000,6,0.000000,0.000000,0.805313,0,0,0,0,0,0,0
3,39999,9,30000,0,0,49,9999,0.100000,0,0,0.000000,6,1.000000,0.000000,4.368671,0,0,0,0,0,0,0
3,39999,10,30000,0,10000,49,9999,0.100000,0,0,0.000000,6,2.000000,0.000000,15.680541,0,0,0,0,0,0,0
3,39999,11,30000,41,0,40,9999,0.100000,0,0,0.000000,6,0.000000,0.000000,0.819706,0,0,0,0,0,0,0
3,39999,12,30000,41,0,9,9999,0.100000,0,0,34.210526,6,7.000000,0.000000,10.044385,0,0,0,1,0,0,0
3,39999,13,30000,41,0,40,9999,0.100000,0,0,0.000000,6,0.000000,0.000000,0.141914,0,0,0,0,0,0,0
3,39999,14,30000,0,0,9,9999,0.100000,0,0,0.000000,6,1.000000,0.000000,3.231847,0,0,0,0,1,0,0
3,39999,15,30000,41,0,40,9999,0.100000,0,0,0.000000,6,0.000000,0.000000,0.795235,0,0,0,0,0,0,0
3,39999,16,30000,24,10000,40,9999,0.100000,0,0,0.000000,6,0.000000,0.000000,0.126299,0,0,0,0,0,0,0
3,39999,17,30000,24,10000,49,9999,0.100000,0,0,0.000000,6,4.000000,0.000000,17.981039,0,0,0,0,0,0,0
3,39999,18,30000,41,0,49,9999,0.100000,0,0,0.000000,6,3.000000,0.000000,18.515665,0,0,0,0,0,0,0
3,39999,19,30000,24,0,40,9999,0.100000,0,0,0.000000,6,0.000000,0.000000,0.410122,0,0,0,0,0,0,0
3,39999,20,30000,0,0,40,9999,0.100000,0,0,0.000000,6,0.000000,0.000000,5.840957,0,0,0,0,0,0,0
3,39999,21,30000,0,10000,40,9999,0.100000,0,0,0.000000,6,0.000000,0.000000,0.772207,0,0,0,0,0,0,0
3,39999,22,30000,41,0,40,9999,0.100000,0,0,0.000000,6,0.000000,0.000000,8.390590,0,0,0,0,0,0,0
3,39999,23,30000,0,10000,40,9999,0.100000,0,0,0.000000,6,0.000000,0.000000,0.432985,0,0,0,0,0,0,0
3,39999,24,30000,41,0,40,9999,0.100000,0,0,0.000000,6,0.000000,0.000000,2.311627,0,0,0,0,0,0,0
3,39999,25,30000,24,0,40,9999,0.100000,0,0,0.000000,6,0.000000,0.000000,0.171195,0,0,0,0,0,0,0
3,39999,26,30000,24,10000,40,9999,0.100000,0,0,0.000000,6,0.000000,0.000000,23.169690,0,0,0,0,0,0,0
3,39999,27,30000,41,0,40,9999,0.100000,0,0,0.000000,6,0.000000,0.000000,0.198154,0,0,0,0,0,0,0
3,39999,28,30000,24,0,40,9999,0.100000,0,0,0.000000,6,0.000000,0.000000,0.128013,0,0,0,0,0,0,0
3,39999,29,30000,24,0,49,9999,0.100000,0,0,0.000000,6,8.000000,0.000000,26.401417,0,0,0,0,0,0,0
3,39999,30,30000,41,0,40,9999,0.100000,0,0,0.000000,6,0.000000,0.000000,8.501497,0,0,0,0,0,0,0
3,39999,31,30000,0,10000,49,9999,0.100000,0,0,0.000000,6,1.000000,0.000000,2.655632,0,0,0,0,0,0,0
3,39999,32,30000,41,0,40,9999,0.100000,0,0,0.000000,6,0.000000,0.000000,0.203274,0,0,0,0,0,0,0
3,39999,33,30000,24,10000,40,9999,0.100000,0,0,0.000000,6,0.000000,0.000000,1.125699,0,0,0,0,0,0,0
3,39999,34,30000,41,0,40,9999,0.100000,0,0,0.000000,6,0.000000,0.000000,0.266251,0,0,0,0,0,0,0
3,39999,35,30000,24,0,49,9999,0.100000,0,0,0.000000,6,1.000000,0.000000,4.568915,0,0,0,0,0,0,0
3,39999,36,30000,0,0,49,9999,0.100000,0,0,0.000000,6,2.000000,0.000000,4.016693,0,0,0,0,0,0,0
3,39999,37,30000,24,0,40,9999,0.100000,0,0,0.000000,6,0.000000,0.000000,0.078256,0,0,0,0,0,0,0
3,39999,38,30000,41,0,40,9999,0.100000,0,0,0.000000,6,0.000000,0.000000,0.636400,0,0,0,0,0,0,0
3,39999,39,30000,41,0,40,9999,0.100000,0,0,0.000000,6,0.000000,0.000000,0.140208,0,0,0,0,0,0,0
3,39999,40,30000,41,0,49,9999,0.100000,0,0,0.000000,6,2.000000,0.000000,9.639322,0,0,0,0,0,0,0
3,39999,41,30000,0,10000,40,9999,0.100000,0,0,0.000000,6,0.000000,0.000000,0.110075,0,0,0,0,0,0,0
3,39999,42,30000,24,0,40,9999,0.100000,0,0,0.000000,6,0.000000,0.000000,0.136005,0,0,0,0,0,0,0
3,39999,43,30000,0,10000,40,9999,0.100000,0,0,0.000000,6,0.000000,0.000000,3.074575,0,0,0,0,0,0,0
3,39999,44,30000,0,0,49,9999,0.100000,0,0,0.000000,6,1.000000,0.000000,8.263993,0,0,0,0,0,0,0
3,39999,45,30000,0,0,49,9999,0.100000,0,0,0.000000,6,2.000000,0.000000,9.955272,0,0,0,0,0,0,0
3,39999,46,30000,41,0,49,9999,0.100000,0,0,0.000000,6,4.000000,0.000000,18.805974,0,0,0,0,0,0,0
3,39999,47,30000,24,10000,40,9999,0.100000,0,0,0.000000,6,0.000000,0.000000,0.404705,0,0,0,0,0,0,0
3,39999,48,30000,0,10000,40,9999,0.100000,0,0,0.000000,6,0.000000,0.000000,0.380025,0,0,0,0,0,0,0
3,39999,49,30000,41,0,40,9999,0.100000,0,0,0.000000,6,0.000000,0.000000,6.462381,0,0,0,0,0,0,0
3,39999,50,30000,41,0,40,9999,0.100000,0,0,0.000000,6,0.000000,0.000000,0.600183,0,0,0,0,0,0,0
3,39999,51,30000,41,0,49,9999,0.100000,0,0,0.000000,6,1.000000,0.000000,5.588194,0,0,0,0,0,0,0
3,39999,52,30000,24,0,40,9999,0.100000,0,0,0.000000,6,0.000000,0.000000,6.252918,0,0,0,0,0,0,0
3,39999,53,30000,0,10000,40,9999,0.100000,0,0,0.000000,6,0.000000,0.000000,3.567902,0,0,0,0,0,0,0
3,39999,54,30000,24,0,49,9999,0.100000,0,0,0.000000,6,2.000000,0.000000,9.040704,0,0,0,0,0,0,0
3,39999,55,30000,0,10000,9,9999,0.100000,0,0,34.210526,6,9.000000,0.000000,12.543896,0,0,0,1,0,0,0
3,39999,56,30000,24,10000,49,9999,0.100000,0,0,0.000000,6,1.000000,0.000000,5.007979,0,0,0,0,0,0,0
3,39999,57,30000,41,0,40,9999,0.100000,0,0,0.000000,6,0.000000,0.000000,0.185173,0,0,0,0,0,0,0
3,39999,58,30000,24,0,40,9999,0.100000,0,0,0.000000,6,0.000000,0.000000,0.748083,0,0,0,0,0,0,0
3,39999,59,30000,0,0,40,9999,0.100000,0,0,0.000000,6,0.000000,0.000000,0.303581,0,0,0,0,0,0,0
3,39999,60,30000,24,10000,40,9999,0.100000,0,0,0.000000,6,0.000000,0.000000,0.567122,0,0,0,0,0,0,0
3,39999,61,30000,41,0,40,9999,0.100000,0,0,0.000000,6,0.000000,0.000000,1.378059,0,0,0,0,0,0,0
3,39999,62,30000,0,10000,40,9999,0.100000,0,0,0.000000,6,0.000000,0.000000,0.338616,0,0,0,0,0,0,0
3,39999,63,30000,24,10000,40,9999,0.100000,0,0,0.000000,6,0.000000,0.000000,0.573020,0,0,0,0,0,0,0
3,39999,64,30000,24,0,40,9999,0.100000,0,0,0.000000,6,0.000000,0.000000,0.446825,0,0,0,0,0,0,0
3,39999,65,30000,0,10000,40,9999,0.100000,0,0,0.000000,6,0.000000,0.000000,7.184665,0,0,0,0,0,0,0
3,39999,66,30000,41,0,40,9999,0.100000,0,0,0.000000,6,0.000000,0.000000,2.428479,0,0,0,0,0,0,0
3,39999,67,30000,24,10000,9,9999,0.100000,0,0,0.000000,6,2.000000,0.000000,12.676252,0,0,0,0,1,0,0
3,39999,68,30000,41,0,40,9999,0.100000,0,0,0.000000,6,0.000000,0.000000,0.099972,0,0,0,0,0,0,0
3,39999,69,30000,24,0,40,9999,0.100000,0,0,0.000000,6,0.000000,0.000000,1.640890,0,0,0,0,0,0,0
3,39999,70,30000,41,0,40,9999,0.100000,0,0,0.000000,6,0.000000,0.000000,0.351859,0,0,0,0,0,0,0
3,39999,71,30000,41,0,49,9999,0.100000,0,0,0.000000,6,1.000000,0.000000,4.416417,0,0,0,0,0,0,0
3,39999,72,30000,24,0,9,9999,0.100000,0,0,34.210526,6,9.000000,0.000000,13.876382,0,0,0,1,0,0,0
3,39999,73,30000,41,0,49,9999,0.100000,0,0,0.000000,6,8.000000,0.000000,30.253399,0,0,0,0,0,0,0
3,39999,74,30000,41,0,40,9999,0.100000,0,0,0.000000,6,0.000000,0.000000,1.287332,0,0,0,0,0,0,0
3,39999,75,30000,0,0,40,9999,0.100000,0,0,0.000000,6,0.000000,0.000000,1.414027,0,0,0,0,0,0,0
3,39999,76,30000,24,10000,40,9999,0.100000,0,0,0.000000,6,0.000000,0.000000,0.503789,0,0,0,0,0,0,0
3,39999,77,30000,24,10000,99,9999,0.100000,0,0,34.210526,6,15.000000,0.000000,30.510537,0,0,1,0,0,0,0
3,39999,78,30000,24,10000,49,9999,0.100000,0,0,0.000000,6,1.000000,0.000000,2.884316,0,0,0,0,0,0,0
3,39999,79,30000,0,10000,49,9999,0.100000,0,0,0.000000,6,1.000000,0.000000,11.250927,0,0,0,0,0,0,0
3,39999,80,30000,0,10000,40,9999,0.100000,0,0,0.000000,6,0.000000,0.000000,0.172782,0,0,0,0,0,0,0
3,39999,81,30000,0,0,49,9999,0.100000,0,0,0.000000,6,1.000000,0.000000,2.792781,0,0,0,0,0,0,0
3,39999,82,30000,41,0,40,9999,0.100000,0,0,0.000000,6,0.000000,0.000000,5.528728,0,0,0,0,0,0,0
3,39999,83,30000,41,0,49,9999,0.100000,0,0,0.000000,6,2.000000,0.000000,21.176035,0,0,0,0,0,0,0
3,39999,84,30000,0,10000,40,9999,0.100000,0,0,0.000000,6,0.000000,0.000000,1.011425,0,0,0,0,0,0,0
3,39999,85,30000,24,0,40,9999,0.100000,0,0,0.000000,6,0.000000,0.000000,8.010305,0,0,0,0,0,0,0
3,39999,86,30000,0,10000,9,9999,0.100000,0,0,34.210526,6,7.000000,0.000000,10.407370,0,0,0,1,0,0,0
3,39999,87,30000,0,10000,40,9999,0.100000,0,0,0.000000,6,0.000000,0.000000,11.300050,0,0,0,0,0,0,0
3,39999,88,30000,0,10000,49,9999,0.100000,0,0,0.000000,6,1.000000,0.000000,5.238003,0,0,0,0,0,0,0
3,39999,89,30000,24,10000,49,9999,0.100000,0,0,0.000000,6,1.000000,0.000000,6.415542,0,0,0,0,0,0,0
3,39999,90,30000,41,0,40,9999,0.100000,0,0,0.000000,6,0.000000,0.000000,0.388080,0,0,0,0,0,0,0
3,39999,91,30000,24,10000,49,9999,0.100000,0,0,0.000000,6,1.000000,0.000000,13.547668,0,0,0,0,0,0,0
3,39999,92,30000,41,0,40,9999,0.100000,0,0,0.000000,6,0.000000,0.000000,0.329614,0,0,0,0,0,0,0
3,39999,93,30000,24,10000,40,9999,0.100000,0,0,0.000000,6,0.000000,0.000000,9.558968,0,0,0,0,0,0,0
3,39999,94,30000,41,0,40,9999,0.100000,0,0,0.000000,6,0.000000,0.000000,1.695199,0,0,0,0,0,0,0
3,39999,95,30000,0,10000,40,9999,0.100000,0,0,0.000000,6,0.000000,0.000000,0.178120,0,0,0,0,0,0,0
3,39999,96,30000,24,10000,40,9999,0.100000,0,0,0.000000,6,0.000000,0.000000,1.624477,0,0,0,0,0,0,0
3,39999,97,30000,41,0,40,9999,0.100000,0,0,0.000000,6,0.000000,0.000000,9.030720,0,0,0,0,0,0,0
3,39999,98,30000,24,10000,40,9999,0.100000,0,0,0.000000,6,0.000000,0.000000,0.319649,0,0,0,0,0,0,0
3,39999,99,30000,24,10000,40,9999,0.100000,0,0,0.000000,6,0.000000,0.000000,1.717753,0,0,0,0,0,0,0
4,49999,0,40000,24,0,49,9999,0.100000,0,0,0.000000,6,1.000000,0.000000,23.458345,0,0,0,0,0,0,0
4,49999,1,40000,0,10000,40,9999,0.100000,0,0,0.000000,6,0.000000,0.000000,0.150385,0,0,0,0,0,0,0
4,49999,2,40000,41,0,40,9999,0.100000,0,0,0.000000,6,0.000000,0.000000,0.567674,0,0,0,0,0,0,0
4,49999,3,40000,0,0,40,9999,0.100000,0,0,0.000000,6,0.000000,0.000000,6.446399,0,0,0,0,0,0,0
4,49999,4,40000,0,0,49,9999,0.100000,0,0,0.000000,6,1.000000,0.000000,4.637371,0,0,0,0,0,0,0
4,49999,5,40000,24,10000,40,9999,0.100000,0,0,0.000000,6,0.000000,0.000000,8.391254,0,0,0,0,0,0,0
4,49999,6,40000,41,0,40,9999,0.100000,0,0,0.000000,6,0.000000,0.000000,0.975622,0,0,0,0,0,0,0
4,49999,7,40000,0,10000,40,9999,0.100000,0,0,0.000000,6,0.000000,0.000000,0.234197,0,0,0,0,0,0,0
4,49999,8,40000,41,0,49,9999,0.100000,0,0,0.000000,6,2.000000,0.000000,9.822449,0,0,0,0,0,0,0
4,49999,9,40000,24,10000,49,9999,0.100000,0,0,0.000000,6,4.000000,0.000000,10.415288,0,0,0,0,0,0,0
4,49999,10,40000,0,10000,49,9999,0.100000,0,0,0.000000,6,2.000000,0.000000,2.802460,0,0,0,0,0,0,0
4,49999,11,40000,24,0,40,9999,0.100000,0,0,0.000000,6,0.000000,0.000000,1.065451,0,0,0,0,0,0,0
4,49999,12,40000,24,10000,40,9999,0.100000,0,0,0.000000,6,0.000000,0.000000,9.799274,0,0,0,0,0,0,0
4,49999,13,40000,0,10000,40,9999,0.100000,0,0,0.000000,6,0.000000,0.000000,0.133946,0,0,0,0,0,0,0
4,49999,14,40000,41,0,49,9999,0.100000,0,0,0.000000,6,1.000000,0.000000,3.301358,0,0,0,0,0,0,0
4,49999,15,40000,0,10000,40,9999,0.100000,0,0,0.000000,6,0.000000,0.000000,0.682852,0,0,0,0,0,0,0
4,49999,16,40000,0,10000,40,9999,0.100000,0,0,0.000000,6,0.000000,0.000000,0.231016,0,0,0,0,0,0,0
4,49999,17,40000,0,0,49,9999,0.100000,0,0,0.000000,6,3.000000,0.000000,8.909523,0,0,0,0,0,0,0
4,49999,18,40000,24,10000,49,9999,0.100000,0,0,0.000000,6,1.000000,0.000000,17.180509,0,0,0,0,0,0,0
4,49999,19,40000,0,0,40,9999,0.100000,0,0,0.000000,6,0.000000,0.000000,1.115592,0,0,0,0,0,0,0
4,49999,20,40000,24,10000,40,9999,0.100000,0,0,0.000000,6,0.000000,0.000000,8.547057,0,0,0,0,0,0,0
4,49999,21,40000,24,10000,49,9999,0.100000,0,0,0.000000,6,1.000000,0.000000,3.634937,0,0,0,0,0,0,0
4,49999,22,40000,0,10000,49,9999,0.100000,0,0,0.000000,6,1.000000,0.000000,3.264154,0,0,0,0,0,0,0
4,49999,23,40000,0,10000,40,9999,0.100000,0,0,0.000000,6,0.000000,0.000000,0.848534,0,0,0,0,0,0,0
4,49999,24,40000,24,0,49,9999,0.100000,0,0,0.000000,6,1.000000,0.000000,6.545914,0,0,0,0,0,0,0
4,49999,25,40000,0,10000,40,9999,0.100000,0,0,0.000000,6,0.000000,0.000000,0.163796,0,0,0,0,0,0,0
4,49999,26,40000,24,0,40,9999,0.100000,0,0,0.000000,6,0.000000,0.000000,23.078163,0,0,0,0,0,0,0
4,49999,27,40000,24,10000,40,9999,0.100000,0,0,0.000000,6,0.000000,0.000000,0.200748,0,0,0,0,0,0,0
4,49999,28,40000,0,0,40,9999,0.100000,0,0,0.000000,6,0.000000,0.000000,0.127236,0,0,0,0,0,0,0
4,49999,29,40000,0,10000,40,9999,0.100000,0,0,0.000000,6,0.000000,0.000000,0.115325,0,0,0,0,0,0,0
4,49999,30,40000,24,0,49,9999,0.100000,0,0,0.000000,6,1.000000,0.000000,6.115121,0,0,0,0,0,0,0
4,49999,31,40000,0,10000,40,9999,0.100000,0,0,0.000000,6,0.000000,0.000000,0.517901,0,0,0,0,0,0,0
4,49999,32,40000,24,10000,40,9999,0.100000,0,0,0.000000,6,0.000000,0.000000,0.269392,0,0,0,0,0,0,0
4,49999,33,40000,0,10000,49,9999,0.100000,0,0,0.000000,6,1.000000,0.000000,1.937558,0,0,0,0,0,0,0
4,49999,34,40000,41,0,40,9999,0.100000,0,0,0.000000,6,0.000000,0.000000,0.086222,0,0,0,0,0,0,0
4,49999,35,40000,41,0,49,9999,0.100000,0,0,0.000000,6,3.000000,0.000000,8.621885,0,0,0,0,0,0,0
4,49999,36,40000,24,10000,40,9999,0.100000,0,0,0.000000,6,0.000000,0.000000,1.126382,0,0,0,0,0,0,0
4,49999,37,40000,0,0,40,9999,0.100000,0,0,0.000000,6,0.000000,0.000000,0.079207,0,0,0,0,0,0,0
4,49999,38,40000,41,0,40,9999,0.100000,0,0,0.000000,6,0.000000,0.000000,0.479981,0,0,0,0,0,0,0
4,49999,39,40000,41,0,40,9999,0.100000,0,0,0.000000,6,0.000000,0.000000,0.337824,0,0,0,0,0,0,0
4,49999,40,40000,24,0,40,9999,0.100000,0,0,0.000000,6,0.000000,0.000000,7.351935,0,0,0,0,0,0,0
4,49999,41,40000,41,0,40,9999,0.100000,0,0,0.000000,6,0.000000,0.000000,0.110363,0,0,0,0,0,0,0
4,49999,42,40000,0,0,40,9999,0.100000,0,0,0.000000,6,0.000000,0.000000,0.137778,0,0,0,0,0,0,0
4,49999,43,40000,24,10000,49,9999,0.100000,0,0,0.000000,6,2.000000,0.000000,2.748797,0,0,0,0,0,0,0
4,49999,44,40000,0,0,49,9999,0.100000,0,0,0.000000,6,9.000000,0.000000,24.960063,0,0,0,0,0,0,0
4,49999,45,40000,0,0,49,9999,0.100000,0,0,0.000000,6,2.000000,0.000000,5.293019,0,0,0,0,0,0,0
4,49999,46,40000,24,10000,49,9999,0.100000,0,0,0.000000,6,1.000000,0.000000,14.010877,0,0,0,0,0,0,0
4,49999,47,40000,41,0,40,9999,0.100000,0,0,0.000000,6,0.000000,0.000000,0.407729,0,0,0,0,0,0,0
4,49999,48,40000,24,10000,40,9999,0.100000,0,0,0.000000,6,0.000000,0.000000,0.378055,0,0,0,0,0,0,0
4,49999,49,40000,41,0,49,9999,0.100000,0,0,0.000000,6,4.000000,0.000000,12.815625,0,0,0,0,0,0,0
4,49999,50,40000,0,10000,49,9999,0.100000,0,0,0.000000,6,1.000000,0.000000,7.876781,0,0,0,0,0,0,0
4,49999,51,40000,41,0,49,9999,0.100000,0,0,0.000000,6,1.000000,0.000000,3.202808,0,0,0,0,0,0,0
4,49999,52,40000,24,0,40,9999,0.100000,0,0,0.000000,6,0.000000,0.000000,5.862018,0,0,0,0,0,0,0
4,49999,53,40000,24,0,49,9999,0.100000,0,0,0.000000,6,2.000000,0.000000,6.921361,0,0,0,0,0,0,0
4,49999,54,40000,0,10000,49,9999,0.100000,0,0,0.000000,6,2.000000,0.000000,2.705307,0,0,0,0,0,0,0
4,49999,55,40000,0,10000,49,9999,0.100000,0,0,0.000000,6,5.000000,0.000000,11.712830,0,0,0,0,0,0,0
4,49999,56,40000,41,0,40,9999,0.100000,0,0,0.000000,6,0.000000,0.000000,0.415911,0,0,0,0,0,0,0
4,49999,57,40000,41,0,40,9999,0.100000,0,0,0.000000,6,0.000000,0.000000,1.038821,0,0,0,0,0,0,0
4,49999,58,40000,24,0,49,9999,0.100000,0,0,0.000000,6,1.000000,0.000000,2.017301,0,0,0,0,0,0,0
4,49999,59,40000,0,0,49,9999,0.100000,0,0,0.000000,6,1.000000,0.000000,1.252863,0,0,0,0,0,0,0
4,49999,60,40000,41,0,49,9999,0.100000,0,0,0.000000,6,1.000000,0.000000,2.819705,0,0,0,0,0,0,0
4,49999,61,40000,0,0,40,9999,0.100000,0,0,0.000000,6,0.000000,0.000000,0.336908,0,0,0,0,0,0,0
4,49999,62,40000,0,0,40,9999,0.100000,0,0,0.000000,6,0.000000,0.000000,3.082474,0,0,0,0,0,0,0
4,49999,63,40000,24,10000,40,9999,0.100000,0,0,0.000000,6,0.000000,0.000000,1.392082,0,0,0,0,0,0,0
4,49999,64,40000,0,0,40,9999,0.100000,0,0,0.000000,6,0.000000,0.000000,0.616192,0,0,0,0,0,0,0
4,49999,65,40000,41,0,49,9999,0.100000,0,0,0.000000,6,8.000000,0.000000,23.943870,0,0,0,0,0,0,0
4,49999,66,40000,41,0,40,9999,0.100000,0,0,0.000000,6,0.000000,0.000000,0.865009,0,0,0,0,0,0,0
4,49999,67,40000,0,10000,49,9999,0.100000,0,0,0.000000,6,3.000000,0.000000,5.516279,0,0,0,0,0,0,0
4,49999,68,40000,0,10000,40,9999,0.100000,0,0,0.000000,6,0.000000,0.000000,0.101220,0,0,0,0,0,0,0
4,49999,69,40000,24,0,49,9999,0.100000,0,0,0.000000,6,1.000000,0.000000,1.546482,0,0,0,0,0,0,0
4,49999,70,40000,0,0,40,9999,0.100000,0,0,0.000000,6,0.000000,0.000000,0.720064,0,0,0,0,0,0,0
4,49999,71,40000,24,0,49,9999,0.100000,0,0,0.000000,6,2.000000,0.000000,3.333436,0,0,0,0,0,0,0
4,49999,72,40000,24,0,40,9999,0.100000,0,0,0.000000,6,0.000000,0.000000,7.004088,0,0,0,0,0,0,0
4,49999,73,40000,24,10000,40,9999,0.100000,0,0,0.000000,6,0.000000,0.000000,7.482787,0,0,0,0,0,0,0
4,49999,74,40000,24,10000,49,9999,0.100000,0,0,0.000000,6,1.000000,0.000000,1.386306,0,0,0,0,0,0,0
4,49999,75,40000,0,10000,40,9999,0.100000,0,0,0.000000,6,0.000000,0.000000,1.477894,0,0,0,0,0,0,0
4,49999,76,40000,0,10000,40,9999,0.100000,0,0,0.000000,6,0.000000,0.000000,0.216367,0,0,0,0,0,0,0
4,49999,77,40000,24,10000,40,9999,0.100000,0,0,0.000000,6,0.000000,0.000000,9.369328,0,0,0,0,0,0,0
4,49999,78,40000,0,0,49,9999,0.100000,0,0,0.000000,6,2.000000,0.000000,2.816920,0,0,0,0,0,0,0
4,49999,79,40000,24,0,49,9999,0.100000,0,0,0.000000,6,1.000000,0.000000,1.611246,0,0,0,0,0,0,0
4,49999,80,40000,24,10000,40,9999,0.100000,0,0,0.000000,6,0.000000,0.000000,0.196226,0,0,0,0,0,0,0
4,49999,81,40000,41,0,49,9999,0.100000,0,0,0.000000,6,3.000000,0.000000,8.705045,0,0,0,0,0,0,0
4,49999,82,40000,24,0,40,9999,0.100000,0,0,0.000000,6,0.000000,0.000000,5.562251,0,0,0,0,0,0,0
4,49999,83,40000,0,10000,49,9999,0.100000,0,0,0.000000,6,4.000000,0.000000,9.878434,0,0,0,0,0,0,0
4,49999,84,40000,24,10000,40,9999,0.100000,0,0,0.000000,6,0.000000,0.000000,0.927506,0,0,0,0,0,0,0
4,49999,85,40000,41,0,40,9999,0.100000,0,0,0.000000,6,0.000000,0.000000,10.681481,0,0,0,0,0,0,0
4,49999,86,40000,0,10000,49,9999,0.100000,0,0,0.000000,6,2.000000,0.000000,8.491930,0,0,0,0,0,0,0
4,49999,87,40000,24,0,49,9999,0.100000,0,0,0.000000,6,3.000000,0.000000,6.161620,0,0,0,0,0,0,0
4,49999,88,40000,0,10000,40,9999,0.100000,0,0,0.000000,6,0.000000,0.000000,0.407108,0,0,0,0,0,0,0
4,49999,89,40000,0,0,49,9999,0.100000,0,0,0.000000,6,1.000000,0.000000,4.829779,0,0,0,0,0,0,0
4,49999,90,40000,41,0,40,9999,0.100000,0,0,0.000000,6,0.000000,0.000000,0.973809,0,0,0,0,0,0,0
4,49999,91,40000,24,10000,49,9999,0.100000,0,0,0.000000,6,1.000000,0.000000,14.835337,0,0,0,0,0,0,0
4,49999,92,40000,41,0,40,9999,0.100000,0,0,0.000000,6,0.000000,0.000000,1.878503,0,0,0,0,0,0,0
4,49999,93,40000,24,0,40,9999,0.100000,0,0,0.000000,6,0.000000,0.000000,7.392437,0,0,0,0,0,0,0
4,49999,94,40000,41,0,40,9999,0.100000,0,0,0.000000,6,0.000000,0.000000,7.965828,0,0,0,0,0,0,0
4,49999,95,40000,24,10000,40,9999,0.100000,0,0,0.000000,6,0.000000,0.000000,0.177367,0,0,0,0,0,0,0
4,49999,96,40000,24,10000,40,9999,0.100000,0,0,0.000000,6,0.000000,0.000000,2.798424,0,0,0,0,0,0,0
4,49999,97,40000,0,0,49,9999,0.100000,0,0,0.000000,6,2.000000,0.000000,7.178465,0,0,0,0,0,0,0
4,49999,98,40000,0,0,40,9999,0.100000,0,0,0.000000,6,0.000000,0.000000,0.083788,0,0,0,0,0,0,0
4,49999,99,40000,0,0,49,9999,0.100000,0,0,0.000000,6,1.000000,0.000000,2.637863,0,0,0,0,0,0,0
5,59999,0,50000,0,10000,49,9999,0.100000,0,0,0.000000,6,1.000000,0.000000,25.403952,0,0,0,0,0,0,0
5,59999,1,50000,24,0,40,9999,0.100000,0,0,0.000000,6,0.000000,0.000000,0.128117,0,0,0,0,0,0,0
5,59999,2,50000,0,0,40,9999,0.100000,0,0,0.000000,6,0.000000,0.000000,0.212402,0,0,0,0,0,0,0
5,59999,3,50000,41,0,49,9999,0.100000,0,0,0.000000,6,2.000000,0.000000,24.968473,0,0,0,0,0,0,0
5,59999,4,50000,24,40000,40,9999,0.100000,0,0,0.000000,6,0.000000,0.000000,3.966811,0,0,0,0,0,0,0
5,59999,5,50000,0,10000,49,9999,0.100000,0,0,0.000000,6,2.000000,0.000000,7.091811,0,0,0,0,0,0,0
5,59999,6,50000,0,0,40,9999,0.100000,0,0,0.000000,6,0.000000,0.000000,1.021169,0,0,0,0,0,0,0
5,59999,7,50000,24,40000,40,9999,0.100000,0,0,0.000000,6,0.000000,0.000000,0.252635,0,0,0,0,0,0,0
5,59999,8,50000,0,10000,49,9999,0.100000,0,0,0.000000,6,2.000000,0.000000,21.416045,0,0,0,0,0,0,0
5,59999,9,50000,24,10000,49,9999,0.100000,0,0,0.000000,6,1.000000,0.000000,3.102932,0,0,0,0,0,0,0
5,59999,10,50000,24,40000,40,9999,0.100000,0,0,0.000000,6,0.000000,0.000000,0.519528,0,0,0,0,0,0,0
5,59999,11,50000,24,10000,40,9999,0.100000,0,0,0.000000,6,0.000000,0.000000,1.032431,0,0,0,0,0,0,0
5,59999,12,50000,41,0,40,9999,0.100000,0,0,0.000000,6,0.000000,0.000000,8.659306,0,0,0,0,0,0,0
5,59999,13,50000,41,0,40,9999,0.100000,0,0,0.000000,6,0.000000,0.000000,0.163010,0,0,0,0,0,0,0
5,59999,14,50000,0,0,40,9999,0.100000,0,0,0.000000,6,0.000000,0.000000,0.789594,0,0,0,0,0,0,0
5,59999,15,50000,41,0,40,9999,0.100000,0,0,0.000000,6,0.000000,0.000000,0.697535,0,0,0,0,0,0,0
5,59999,16,50000,0,0,40,9999,0.100000,0,0,0.000000,6,0.000000,0.000000,0.150186,0,0,0,0,0,0,0
5,59999,17,50000,0,0,49,9999,0.100000,0,0,0.000000,6,1.000000,0.000000,3.611255,0,0,0,0,0,0,0
5,59999,18,50000,41,0,49,9999,0.100000,0,0,0.000000,6,1.000000,0.000000,12.168939,0,0,0,0,0,0,0
5,59999,19,50000,0,10000,49,9999,0.100000,0,0,0.000000,6,1.000000,0.000000,19.577623,0,0,0,0,0,0,0
5,59999,20,50000,0,10000,40,9999,0.100000,0,0,0.000000,6,0.000000,0.000000,6.620552,0,0,0,0,0,0,0
5,59999,21,50000,24,0,40,9999,0.100000,0,0,0.000000,6,0.000000,0.000000,0.965487,0,0,0,0,0,0,0
5,59999,22,50000,41,0,40,9999,0.100000,0,0,0.000000,6,0.000000,0.000000,0.666446,0,0,0,0,0,0,0
5,59999,23,50000,24,10000,40,9999,0.100000,0,0,0.000000,6,0.000000,0.000000,1.030403,0,0,0,0,0,0,0
5,59999,24,50000,41,0,40,9999,0.100000,0,0,0.000000,6,0.000000,0.000000,4.278666,0,0,0,0,0,0,0
5,59999,25,50000,41,0,40,9999,0.100000,0,0,0.000000,6,0.000000,0.000000,0.125514,0,0,0,0,0,0,0
5,59999,26,50000,41,0,40,9999,0.100000,0,0,0.000000,6,0.000000,0.000000,22.023717,0,0,0,0,0,0,0
5,59999,27,50000,24,10000,40,9999,0.100000,0,0,0.000000,6,0.000000,0.000000,0.203255,0,0,0,0,0,0,0
5,59999,28,50000,41,0,40,9999,0.100000,0,0,0.000000,6,0.000000,0.000000,0.127855,0,0,0,0,0,0,0
5,59999,29,50000,24,0,40,9999,0.100000,0,0,0.000000,6,0.000000,0.000000,0.376348,0,0,0,0,0,0,0
5,59999,30,50000,41,0,40,9999,0.100000,0,0,0.000000,6,0.000000,0.000000,8.049471,0,0,0,0,0,0,0
5,59999,31,50000,24,40000,40,9999,0.100000,0,0,0.000000,6,0.000000,0.000000,0.258738,0,0,0,0,0,0,0
5,59999,32,50000,41,0,40,9999,0.100000,0,0,0.000000,6,0.000000,0.000000,0.262148,0,0,0,0,0,0,0
5,59999,33,50000,41,0,49,9999,0.100000,0,0,0.000000,6,1.000000,0.000000,1.684004,0,0,0,0,0,0,0
5,59999,34,50000,0,10000,40,9999,0.100000,0,0,0.000000,6,0.000000,0.000000,0.087712,0,0,0,0,0,0,0
5,59999,35,50000,24,10000,49,9999,0.100000,0,0,0.000000,6,1.000000,0.000000,2.414400,0,0,0,0,0,0,0
5,59999,36,50000,0,0,40,9999,0.100000,0,0,0.000000,6,0.000000,0.000000,1.007008,0,0,0,0,0,0,0
5,59999,37,50000,41,0,40,9999,0.100000,0,0,0.000000,6,0.000000,0.000000,0.075237,0,0,0,0,0,0,0
5,59999,38,50000,0,0,40,9999,0.100000,0,0,0.000000,6,0.000000,0.000000,0.493291,0,0,0,0,0,0,0
5,59999,39,50000,0,10000,40,9999,0.065000,0,0,0.000000,6,0.000000,0.000000,0.304608,0,0,0,0,0,0,0
5,59999,40,50000,24,40000,40,9999,0.100000,0,0,0.000000,6,0.000000,0.000000,4.943767,0,0,0,0,0,0,0
5,59999,41,50000,24,10000,40,9999,0.100000,0,0,0.000000,6,0.000000,0.000000,0.152735,0,0,0,0,0,0,0
5,59999,42,50000,0,10000,40,9999,0.100000,0,0,0.000000,6,0.000000,0.000000,0.154584,0,0,0,0,0,0,0
5,59999,43,50000,0,10000,49,9999,0.100000,0,0,0.000000,6,1.000000,0.000000,1.800430,0,0,0,0,0,0,0
5,59999,44,50000,0,0,40,9999,0.100000,0,0,0.000000,6,0.000000,0.000000,4.193277,0,0,0,0,0,0,0
5,59999,45,50000,41,0,40,9999,0.100000,0,0,0.000000,6,0.000000,0.000000,0.137381,0,0,0,0,0,0,0
5,59999,46,50000,0,10000,40,9999,0.100000,0,0,0.000000,6,0.000000,0.000000,0.416495,0,0,0,0,0,0,0
5,59999,47,50000,0,10000,40,9999,0.100000,0,0,0.000000,6,0.000000,0.000000,0.957271,0,0,0,0,0,0,0
5,59999,48,50000,24,0,40,9999,0.100000,0,0,0.000000,6,0.000000,0.000000,0.372090,0,0,0,0,0,0,0
5,59999,49,50000,24,0,40,9999,0.100000,0,0,0.000000,6,0.000000,0.000000,6.982520,0,0,0,0,0,0,0
5,59999,50,50000,24,10000,49,9999,0.100000,0,0,0.000000,6,1.000000,0.000000,6.534613,0,0,0,0,0,0,0
5,59999,51,50000,0,10000,40,9999,0.100000,0,0,0.000000,6,0.000000,0.000000,0.686973,0,0,0,0,0,0,0
5,59999,52,50000,41,0,40,9999,0.100000,0,0,0.000000,6,0.000000,0.000000,3.474467,0,0,0,0,0,0,0
5,59999,53,50000,41,0,40,9999,0.100000,0,0,0.000000,6,0.000000,0.000000,7.437908,0,0,0,0,0,0,0
5,59999,54,50000,0,0,40,9999,0.100000,0,0,0.000000,6,0.000000,0.000000,1.587833,0,0,0,0,0,0,0
5,59999,55,50000,41,0,49,9999,0.100000,0,0,0.000000,6,2.000000,0.000000,4.390696,0,0,0,0,0,0,0
5,59999,56,50000,41,0,40,9999,0.100000,0,0,0.000000,6,0.000000,0.000000,20.778915,0,0,0,0,0,0,0
5,59999,57,50000,0,0,40,9999,0.100000,0,0,0.000000,6,0.000000,0.000000,0.195976,0,0,0,0,0,0,0
5,59999,58,50000,24,40000,49,9999,0.100000,0,0,0.000000,6,1.000000,0.000000,1.650498,0,0,0,0,0,0,0
5,59999,59,50000,41,0,40,9999,0.100000,0,0,0.000000,6,0.000000,0.000000,0.158280,0,0,0,0,0,0,0
5,59999,60,50000,41,0,49,9999,0.100000,0,0,0.000000,6,1.000000,0.000000,2.209320,0,0,0,0,0,0,0
5,59999,61,50000,41,0,40,9999,0.100000,0,0,0.000000,6,0.000000,0.000000,0.183161,0,0,0,0,0,0,0
5,59999,62,50000,0,10000,40,9999,0.100000,0,0,0.000000,6,0.000000,0.000000,1.995641,0,0,0,0,0,0,0
5,59999,63,50000,24,10000,40,9999,0.100000,0,0,0.000000,6,0.000000,0.000000,0.941465,0,0,0,0,0,0,0
5,59999,64,50000,41,0,40,9999,0.100000,0,0,0.000000,6,0.000000,0.000000,1.120582,0,0,0,0,0,0,0
5,59999,65,50000,24,10000,40,9999,0.100000,0,0,0.000000,6,0.000000,0.000000,9.517067,0,0,0,0,0,0,0
5,59999,66,50000,0,0,40,9999,0.100000,0,0,0.000000,6,0.000000,0.000000,0.881593,0,0,0,0,0,0,0
5,59999,67,50000,0,0,40,9999,0.100000,0,0,0.000000,6,0.000000,0.000000,0.780002,0,0,0,0,0,0,0
5,59999,68,50000,41,0,40,9999,0.135000,0,0,0.000000,6,0.000000,0.000000,0.118420,0,0,0,0,0,0,0
5,59999,69,50000,24,40000,40,9999,0.100000,0,0,0.000000,6,0.000000,0.000000,0.419958,0,0,0,0,0,0,0
5,59999,70,50000,41,0,40,9999,0.100000,0,0,0.000000,6,0.000000,0.000000,1.117933,0,0,0,0,0,0,0
5,59999,71,50000,0,0,49,9999,0.100000,0,0,0.000000,6,1.000000,0.000000,1.846078,0,0,0,0,0,0,0
5,59999,72,50000,0,10000,40,9999,0.100000,0,0,0.000000,6,0.000000,0.000000,6.644541,0,0,0,0,0,0,0
5,59999,73,50000,0,10000,49,9999,0.100000,0,0,0.000000,6,1.000000,0.000000,9.524455,0,0,0,0,0,0,0
5,59999,74,50000,24,40000,49,9999,0.100000,0,0,0.000000,6,5.000000,0.000000,9.570266,0,0,0,0,0,0,0
5,59999,75,50000,24,40000,40,9999,0.100000,0,0,0.000000,6,0.000000,0.000000,1.459567,0,0,0,0,0,0,0
5,59999,76,50000,24,10000,40,9999,0.100000,0,0,0.000000,6,0.000000,0.000000,0.221612,0,0,0,0,0,0,0
5,59999,77,50000,24,40000,40,9999,0.100000,0,0,0.000000,6,0.000000,0.000000,5.926146,0,0,0,0,0,0,0
5,59999,78,50000,41,0,40,9999,0.100000,0,0,0.000000,6,0.000000,0.000000,0.395604,0,0,0,0,0,0,0
5,59999,79,50000,41,0,40,9999,0.100000,0,0,0.000000,6,0.000000,0.000000,0.746807,0,0,0,0,0,0,0
5,59999,80,50000,24,10000,40,9999,0.100000,0,0,0.000000,6,0.000000,0.000000,0.166614,0,0,0,0,0,0,0
5,59999,81,50000,0,10000,49,9999,0.100000,0,0,0.000000,6,1.000000,0.000000,24.003727,0,0,0,0,0,0,0
5,59999,82,50000,41,0,40,9999,0.100000,0,0,0.000000,6,0.000000,0.000000,8.180441,0,0,0,0,0,0,0
5,59999,83,50000,41,0,49,9999,0.100000,0,0,0.000000,6,5.000000,0.000000,24.195478,0,0,0,0,0,0,0
5,59999,84,50000,41,0,40,9999,0.100000,0,0,0.000000,6,0.000000,0.000000,0.878633,0,0,0,0,0,0,0
5,59999,85,50000,24,10000,40,9999,0.100000,0,0,0.000000,6,0.000000,0.000000,7.850717,0,0,0,0,0,0,0
5,59999,86,50000,24,10000,40,9999,0.100000,0,0,0.000000,6,0.000000,0.000000,0.370851,0,0,0,0,0,0,0
5,59999,87,50000,41,0,40,9999,0.100000,0,0,0.000000,6,0.000000,0.000000,0.080080,0,0,0,0,0,0,0
5,59999,88,50000,0,10000,40,9999,0.100000,0,0,0.000000,6,0.000000,0.000000,0.422973,0,0,0,0,0,0,0
5,59999,89,50000,0,10000,49,9999,0.100000,0,0,0.000000,6,3.000000,0.000000,8.354576,0,0,0,0,0,0,0
5,59999,90,50000,0,0,40,9999,0.100000,0,0,0.000000,6,0.000000,0.000000,0.950143,0,0,0,0,0,0,0
5,59999,91,50000,41,0,40,9999,0.100000,0,0,0.000000,6,0.000000,0.000000,14.829076,0,0,0,0,0,0,0
5,59999,92,50000,0,0,40,9999,0.100000,0,0,0.000000,6,0.000000,0.000000,2.070989,0,0,0,0,0,0,0
5,59999,93,50000,0,0,49,9999,0.100000,0,0,0.000000,6,1.000000,0.000000,4.732129,0,0,0,0,0,0,0
5,59999,94,50000,0,0,49,9999,0.100000,0,0,0.000000,6,1.000000,0.000000,5.140466,0,0,0,0,0,0,0
5,59999,95,50000,41,0,40,9999,0.100000,0,0,0.000000,6,0.000000,0.000000,0.250823,0,0,0,0,0,0,0
5,59999,96,50000,41,0,40,9999,0.135000,0,0,0.000000,6,0.000000,0.000000,3.554896,0,0,0,0,0,0,0
5,59999,97,50000,0,10000,40,9999,0.100000,0,0,0.000000,6,0.000000,0.000000,4.029517,0,0,0,0,0,0,0
5,59999,98,50000,41,0,40,9999,0.100000,0,0,0.000000,6,0.000000,0.000000,0.082354,0,0,0,0,0,0,0
5,59999,99,50000,0,10000,49,9999,0.100000,0,0,0.000000,6,1.000000,0.000000,1.759867,0,0,0,0,0,0,0
6,69999,0,60000,24,10000,40,9999,0.100000,0,0,0.000000,6,0.000000,0.000000,2.354344,0,0,0,0,0,0,0
6,69999,1,60000,41,0,40,9999,0.100000,0,0,0.000000,6,0.000000,0.000000,0.288147,0,0,0,0,0,0,0
6,69999,2,60000,41,0,40,9999,0.100000,0,0,0.000000,6,0.000000,0.000000,0.221619,0,0,0,0,0,0,0
6,69999,3,60000,24,50000,49,9999,0.100000,0,0,0.000000,6,2.000000,0.000000,9.948740,0,0,0,0,0,0,0
6,69999,4,60000,24,40000,40,9999,0.100000,0,0,0.000000,6,0.000000,0.000000,5.977055,0,0,0,0,0,0,0
6,69999,5,60000,24,40000,49,9999,0.100000,0,0,0.000000,6,2.000000,0.000000,11.216857,0,0,0,0,0,0,0
6,69999,6,60000,41,0,40,9999,0.100000,0,0,0.000000,6,0.000000,0.000000,1.006800,0,0,0,0,0,0,0
6,69999,7,60000,0,10000,40,9999,0.100000,0,0,0.000000,6,0.000000,0.000000,0.207978,0,0,0,0,0,0,0
6,69999,8,60000,0,0,49,9999,0.100000,0,0,0.000000,6,1.000000,0.000000,17.328442,0,0,0,0,0,0,0
6,69999,9,60000,41,0,49,9999,0.100000,0,0,0.000000,6,1.000000,0.000000,2.891832,0,0,0,0,0,0,0
6,69999,10,60000,41,0,40,9999,0.100000,0,0,0.000000,6,0.000000,0.000000,0.235244,0,0,0,0,0,0,0
6,69999,11,60000,24,10000,40,9999,0.100000,0,0,0.000000,6,0.000000,0.000000,6.146607,0,0,0,0,0,0,0
6,69999,12,60000,24,40000,49,9999,0.100000,0,0,0.000000,6,3.000000,0.000000,6.981709,0,0,0,0,0,0,0
6,69999,13,60000,24,50000,40,9999,0.100000,0,0,0.000000,6,0.000000,0.000000,0.173926,0,0,0,0,0,0,0
6,69999,14,60000,24,50000,9,9999,0.100000,0,0,34.210526,6,3.000000,0.000000,5.840989,0,0,0,0,0,1,0
6,69999,15,60000,0,0,40,9999,0.100000,0,0,0.000000,6,0.000000,0.000000,0.661921,0,0,0,0,0,0,0
6,69999,16,60000,0,10000,49,9999,0.100000,0,0,0.000000,6,6.000000,0.000000,12.987414,0,0,0,0,0,0,0
6,69999,17,60000,0,10000,49,9999,0.100000,0,0,0.000000,6,2.000000,0.000000,5.133559,0,0,0,0,0,0,0
6,69999,18,60000,0,0,49,9999,0.100000,0,0,0.000000,6,1.000000,0.000000,9.400874,0,0,0,0,0,0,0
6,69999,19,60000,0,10000,49,9999,0.100000,0,0,0.000000,6,1.000000,0.000000,1.502226,0,0,0,0,0,0,0
6,69999,20,60000,41,0,49,9999,0.100000,0,0,0.000000,6,1.000000,0.000000,6.299149,0,0,0,0,0,0,0
6,69999,21,60000,24,40000,40,9999,0.100000,0,0,0.000000,6,0.000000,0.000000,1.027385,0,0,0,0,0,0,0
6,69999,22,60000,41,0,40,9999,0.100000,0,0,0.000000,6,0.000000,0.000000,0.648276,0,0,0,0,0,0,0
6,69999,23,60000,24,50000,40,9999,0.100000,0,0,0.000000,6,0.000000,0.000000,1.070920,0,0,0,0,0,0,0
6,69999,24,60000,41,0,40,9999,0.100000,0,0,0.000000,6,0.000000,0.000000,20.265582,0,0,0,0,0,0,0
6,69999,25,60000,24,50000,40,9999,0.100000,0,0,0.000000,6,0.000000,0.000000,0.161466,0,0,0,0,0,0,0
6,69999,26,60000,24,50000,40,9999,0.100000,0,0,0.000000,6,0.000000,0.000000,18.306469,0,0,0,0,0,0,0
6,69999,27,60000,24,50000,40,9999,0.100000,0,0,0.000000,6,0.000000,0.000000,0.200123,0,0,0,0,0,0,0
6,69999,28,60000,24,50000,40,9999,0.100000,0,0,0.000000,6,0.000000,0.000000,0.128273,0,0,0,0,0,0,0
6,69999,29,60000,0,10000,40,9999,0.100000,0,0,0.000000,6,0.000000,0.000000,0.672623,0,0,0,0,0,0,0
6,69999,30,60000,41,0,40,9999,0.100000,0,0,0.000000,6,0.000000,0.000000,8.414042,0,0,0,0,0,0,0
6,69999,31,60000,41,0,40,9999,0.065000,0,0,0.000000,6,0.000000,0.000000,0.252577,0,0,0,0,0,0,0
6,69999,32,60000,0,10000,40,9999,0.100000,0,0,0.000000,6,0.000000,0.000000,0.938857,0,0,0,0,0,0,0
6,69999,33,60000,24,50000,49,9999,0.100000,0,0,0.000000,6,1.000000,0.000000,1.636058,0,0,0,0,0,0,0
6,69999,34,60000,41,0,40,9999,0.100000,0,0,0.000000,6,0.000000,0.000000,0.087927,0,0,0,0,0,0,0
6,69999,35,60000,24,40000,9,9999,0.100000,0,0,34.210526,6,4.000000,0.000000,8.893895,0,0,0,1,0,0,0
6,69999,36,60000,0,0,9,9999,0.100000,0,0,34.210526,6,2.000000,0.000000,4.163421,0,0,0,0,0,1,0
6,69999,37,60000,41,0,40,9999,0.100000,0,0,0.000000,6,0.000000,0.000000,0.076642,0,0,0,0,0,0,0
6,69999,38,60000,0,0,40,9999,0.100000,0,0,0.000000,6,0.000000,0.000000,0.477685,0,0,0,0,0,0,0
6,69999,39,60000,24,40000,40,9999,0.100000,0,0,0.000000,6,0.000000,0.000000,1.441324,0,0,0,0,0,0,0
6,69999,40,60000,24,40000,49,9999,0.100000,0,0,0.000000,6,6.000000,0.000000,13.647637,0,0,0,0,0,0,0
6,69999,41,60000,41,0,40,9999,0.100000,0,0,0.000000,6,0.000000,0.000000,0.089696,0,0,0,0,0,0,0
6,69999,42,60000,24,40000,40,9999,0.100000,0,0,0.000000,6,0.000000,0.000000,0.167787,0,0,0,0,0,0,0
6,69999,43,60000,24,50000,49,9999,0.100000,0,0,0.000000,6,1.000000,0.000000,2.206528,0,0,0,0,0,0,0
6,69999,44,60000,41,0,40,9999,0.100000,0,0,0.000000,6,0.000000,0.000000,9.786408,0,0,0,0,0,0,0
6,69999,45,60000,0,10000,40,9999,0.100000,0,0,0.000000,6,0.000000,0.000000,0.137131,0,0,0,0,0,0,0
6,69999,46,60000,24,40000,40,9999,0.100000,0,0,0.000000,6,0.000000,0.000000,0.504291,0,0,0,0,0,0,0
6,69999,47,60000,24,40000,40,9999,0.100000,0,0,0.000000,6,0.000000,0.000000,0.834922,0,0,0,0,0,0,0
6,69999,48,60000,24,40000,40,9999,0.100000,0,0,0.000000,6,0.000000,0.000000,0.395387,0,0,0,0,0,0,0
6,69999,49,60000,24,50000,49,9999,0.100000,0,0,0.000000,6,1.000000,0.000000,7.754381,0,0,0,0,0,0,0
6,69999,50,60000,24,50000,49,9999,0.100000,0,0,0.000000,6,1.000000,0.000000,15.721542,0,0,0,0,0,0,0
6,69999,51,60000,24,50000,40,9999,0.100000,0,0,0.000000,6,0.000000,0.000000,0.991623,0,0,0,0,0,0,0
6,69999,52,60000,24,50000,49,9999,0.100000,0,0,0.000000,6,3.000000,0.000000,7.837315,0,0,0,0,0,0,0
6,69999,53,60000,41,0,40,9999,0.100000,0,0,0.000000,6,0.000000,0.000000,5.473983,0,0,0,0,0,0,0
6,69999,54,60000,0,0,40,9999,0.100000,0,0,0.000000,6,0.000000,0.000000,0.534514,0,0,0,0,0,0,0
6,69999,55,60000,0,10000,40,9999,0.100000,0,0,0.000000,6,0.000000,0.000000,0.009172,0,0,0,0,0,0,0
6,69999,56,60000,24,40000,40,9999,0.100000,0,0,0.000000,6,0.000000,0.000000,25.350470,0,0,0,0,0,0,0
6,69999,57,60000,0,10000,40,9999,0.100000,0,0,0.000000,6,0.000000,0.000000,0.218554,0,0,0,0,0,0,0
6,69999,58,60000,41,0,49,9999,0.100000,0,0,0.000000,6,1.000000,0.000000,1.559749,0,0,0,0,0,0,0
6,69999,59,60000,24,40000,40,9999,0.100000,0,0,0.000000,6,0.000000,0.000000,0.597843,0,0,0,0,0,0,0
6,69999,60,60000,0,10000,49,9999,0.100000,0,0,0.000000,6,3.000000,0.000000,7.606004,0,0,0,0,0,0,0
6,69999,61,60000,0,10000,40,9999,0.100000,0,0,0.000000,6,0.000000,0.000000,0.179297,0,0,0,0,0,0,0
6,69999,62,60000,41,0,40,9999,0.100000,0,0,0.000000,6,0.000000,0.000000,1.412936,0,0,0,0,0,0,0
6,69999,63,60000,0,10000,40,9999,0.100000,0,0,0.000000,6,0.000000,0.000000,0.728036,0,0,0,0,0,0,0
6,69999,64,60000,0,10000,40,9999,0.100000,0,0,0.000000,6,0.000000,0.000000,1.478348,0,0,0,0,0,0,0
6,69999,65,60000,24,40000,49,9999,0.100000,0,0,0.000000,6,1.000000,0.000000,10.154131,0,0,0,0,0,0,0
6,69999,66,60000,24,50000,9,9999,0.100000,0,0,45.309200,6,3.000000,0.000000,6.675923,0,0,0,0,0,1,0
6,69999,67,60000,41,0,9,9999,0.100000,0,0,45.294525,6,2.000000,0.000000,3.423771,0,0,0,0,0,1,0
6,69999,68,60000,24,40000,40,9999,0.100000,0,0,0.000000,6,0.000000,0.000000,0.127631,0,0,0,0,0,0,0
6,69999,69,60000,41,0,40,9999,0.100000,0,0,0.000000,6,0.000000,0.000000,1.599036,0,0,0,0,0,0,0
6,69999,70,60000,41,0,40,9999,0.100000,0,0,0.000000,6,0.000000,0.000000,0.913141,0,0,0,0,0,0,0
6,69999,71,60000,24,40000,49,9999,0.100000,0,0,0.000000,6,1.000000,0.000000,2.358065,0,0,0,0,0,0,0
6,69999,72,60000,41,0,40,9999,0.100000,0,0,0.000000,6,0.000000,0.000000,8.307340,0,0,0,0,0,0,0
6,69999,73,60000,24,40000,49,9999,0.100000,0,0,0.000000,6,8.000000,0.000000,23.214852,0,0,0,0,0,0,0
6,69999,74,60000,0,10000,40,9999,0.100000,0,0,0.000000,6,0.000000,0.000000,0.327533,0,0,0,0,0,0,0
6,69999,75,60000,0,0,40,9999,0.100000,0,0,0.000000,6,0.000000,0.000000,1.523862,0,0,0,0,0,0,0
6,69999,76,60000,0,10000,40,9999,0.100000,0,0,0.000000,6,0.000000,0.000000,0.215461,0,0,0,0,0,0,0
6,69999,77,60000,0,10000,49,9999,0.100000,0,0,0.000000,6,2.000000,0.000000,5.690539,0,0,0,0,0,0,0
6,69999,78,60000,0,10000,40,9999,0.100000,0,0,0.000000,6,0.000000,0.000000,0.232953,0,0,0,0,0,0,0
6,69999,79,60000,0,10000,40,9999,0.100000,0,0,0.000000,6,0.000000,0.000000,0.633773,0,0,0,0,0,0,0
6,69999,80,60000,24,50000,40,9999,0.100000,0,0,0.000000,6,0.000000,0.000000,0.357644,0,0,0,0,0,0,0
6,69999,81,60000,41,0,9,9999,0.100000,0,0,34.210526,6,4.000000,0.000000,12.201171,0,0,0,1,0,0,0
6,69999,82,60000,24,40000,40,9999,0.100000,0,0,0.000000,6,0.000000,0.000000,9.329861,0,0,0,0,0,0,0
6,69999,83,60000,0,10000,49,9999,0.065000,0,0,0.000000,6,2.000000,0.000000,8.535691,0,0,0,0,0,0,0
6,69999,84,60000,24,50000,40,9999,0.100000,0,0,0.000000,6,0.000000,0.000000,0.894718,0,0,0,0,0,0,0
6,69999,85,60000,41,0,40,9999,0.100000,0,0,0.000000,6,0.000000,0.000000,8.134176,0,0,0,0,0,0,0
6,69999,86,60000,0,10000,40,9999,0.100000,0,0,0.000000,6,0.000000,0.000000,0.655650,0,0,0,0,0,0,0
6,69999,87,60000,24,50000,40,9999,0.100000,0,0,0.000000,6,0.000000,0.000000,0.081783,0,0,0,0,0,0,0
6,69999,88,60000,24,40000,40,9999,0.100000,0,0,0.000000,6,0.000000,0.000000,0.487272,0,0,0,0,0,0,0
6,69999,89,60000,24,50000,49,9999,0.100000,0,0,0.000000,6,3.000000,0.000000,15.858363,0,0,0,0,0,0,0
6,69999,90,60000,41,0,40,9999,0.100000,0,0,0.000000,6,0.000000,0.000000,0.866250,0,0,0,0,0,0,0
6,69999,91,60000,24,50000,40,9999,0.100000,0,0,0.000000,6,0.000000,0.000000,13.131904,0,0,0,0,0,0,0
6,69999,92,60000,41,0,40,9999,0.100000,0,0,0.000000,6,0.000000,0.000000,0.709005,0,0,0,0,0,0,0
6,69999,93,60000,24,40000,49,9999,0.100000,0,0,0.000000,6,1.000000,0.000000,7.614160,0,0,0,0,0,0,0
6,69999,94,60000,41,0,40,9999,0.100000,0,0,0.000000,6,0.000000,0.000000,1.012585,0,0,0,0,0,0,0
6,69999,95,60000,0,0,40,9999,0.100000,0,0,0.000000,6,0.000000,0.000000,1.151113,0,0,0,0,0,0,0
6,69999,96,60000,0,0,40,9999,0.100000,0,0,0.000000,6,0.000000,0.000000,2.833775,0,0,0,0,0,0,0
6,69999,97,60000,24,50000,49,9999,0.100000,0,0,0.000000,6,1.000000,0.000000,8.554509,0,0,0,0,0,0,0
6,69999,98,60000,41,0,40,9999,0.100000,0,0,0.000000,6,0.000000,0.000000,0.085521,0,0,0,0,0,0,0
6,69999,99,60000,41,0,49,9999,0.100000,0,0,0.000000,6,1.000000,0.000000,2.216070,0,0,0,0,0,0,0
7,79999,0,70000,24,40000,49,9999,0.100000,0,0,0.000000,6,4.000000,0.000000,7.363310,0,0,0,0,0,0,0
7,79999,1,70000,0,0,49,9999,0.100000,0,0,0.000000,6,4.000000,0.000000,4.476251,0,0,0,0,0,0,0
7,79999,2,70000,24,50000,40,9999,0.100000,0,0,0.000000,6,0.000000,0.000000,0.196995,0,0,0,0,0,0,0
7,79999,3,70000,24,50000,49,9999,0.100000,0,0,0.000000,6,5.000000,0.000000,20.688036,0,0,0,0,0,0,0
7,79999,4,70000,0,10000,40,9999,0.100000,0,0,0.000000,6,0.000000,0.000000,3.478211,0,0,0,0,0,0,0
7,79999,5,70000,41,0,40,9999,0.100000,0,0,0.000000,6,0.000000,0.000000,7.068328,0,0,0,0,0,0,0
7,79999,6,70000,41,0,40,9999,0.100000,0,0,0.000000,6,0.000000,0.000000,1.017069,0,0,0,0,0,0,0
7,79999,7,70000,41,0,40,9999,0.100000,0,0,0.000000,6,0.000000,0.000000,0.273023,0,0,0,0,0,0,0
7,79999,8,70000,0,0,49,9999,0.100000,0,0,0.000000,6,2.000000,0.000000,10.785229,0,0,0,0,0,0,0
7,79999,9,70000,0,10000,40,9999,0.100000,0,0,0.000000,6,0.000000,0.000000,0.833552,0,0,0,0,0,0,0
7,79999,10,70000,41,0,40,9999,0.100000,0,0,0.000000,6,0.000000,0.000000,0.674920,0,0,0,0,0,0,0
7,79999,11,70000,0,0,40,9999,0.100000,0,0,0.000000,6,0.000000,0.000000,4.166495,0,0,0,0,0,0,0
7,79999,12,70000,41,0,40,9999,0.100000,0,0,0.000000,6,0.000000,0.000000,9.970429,0,0,0,0,0,0,0
7,79999,13,70000,0,10000,49,9999,0.100000,0,0,0.000000,6,1.000000,0.000000,7.897281,0,0,0,0,0,0,0
7,79999,14,70000,41,0,49,9999,0.100000,0,0,0.000000,6,1.000000,0.000000,11.859234,0,0,0,0,0,0,0
7,79999,15,70000,0,10000,40,9999,0.100000,0,0,0.000000,6,0.000000,0.000000,0.703827,0,0,0,0,0,0,0
7,79999,16,70000,0,0,40,9999,0.100000,0,0,0.000000,6,0.000000,0.000000,0.309681,0,0,0,0,0,0,0
7,79999,17,70000,24,40000,49,9999,0.100000,0,0,0.000000,6,1.000000,0.000000,11.161537,0,0,0,0,0,0,0
7,79999,18,70000,41,0,49,9999,0.100000,0,0,0.000000,6,2.000000,0.000000,10.602879,0,0,0,0,0,0,0
7,79999,19,70000,0,0,40,9999,0.100000,0,0,0.000000,6,0.000000,0.000000,0.144314,0,0,0,0,0,0,0
7,79999,20,70000,0,10000,40,9999,0.100000,0,0,0.000000,6,0.000000,0.000000,2.466121,0,0,0,0,0,0,0
7,79999,21,70000,24,50000,40,9999,0.100000,0,0,0.000000,6,0.000000,0.000000,1.139193,0,0,0,0,0,0,0
7,79999,22,70000,24,50000,40,9999,0.100000,0,0,0.000000,6,0.000000,0.000000,0.773960,0,0,0,0,0,0,0
7,79999,23,70000,24,50000,40,9999,0.100000,0,0,0.000000,6,0.000000,0.000000,1.049200,0,0,0,0,0,0,0
7,79999,24,70000,24,50000,49,9999,0.100000,0,0,0.000000,6,3.000000,0.000000,18.722737,0,0,0,0,0,0,0
7,79999,25,70000,0,10000,49,9999,0.100000,0,0,0.000000,6,3.000000,0.000000,10.005174,0,0,0,0,0,0,0
7,79999,26,70000,24,50000,49,9999,0.100000,0,0,0.000000,6,2.000000,0.000000,22.276810,0,0,0,0,0,0,0
7,79999,27,70000,41,0,40,9999,0.100000,0,0,0.000000,6,0.000000,0.000000,0.201661,0,0,0,0,0,0,0
7,79999,28,70000,41,0,40,9999,0.100000,0,0,0.000000,6,0.000000,0.000000,0.127889,0,0,0,0,0,0,0
7,79999,29,70000,41,0,40,9999,0.100000,0,0,0.000000,6,0.000000,0.000000,0.199942,0,0,0,0,0,0,0
7,79999,30,70000,41,0,40,9999,0.100000,0,0,0.000000,6,0.000000,0.000000,7.387994,0,0,0,0,0,0,0
7,79999,31,70000,41,0,40,9999,0.100000,0,0,0.000000,6,0.000000,0.000000,0.196440,0,0,0,0,0,0,0
7,79999,32,70000,24,40000,40,9999,0.100000,0,0,0.000000,6,0.000000,0.000000,0.340147,0,0,0,0,0,0,0
7,79999,33,70000,0,0,40,9999,0.100000,0,0,0.000000,6,0.000000,0.000000,0.103855,0,0,0,0,0,0,0
7,79999,34,70000,0,0,40,9999,0.100000,0,0,0.000000,6,0.000000,0.000000,0.086702,0,0,0,0,0,0,0
7,79999,35,70000,24,40000,49,9999,0.100000,0,0,0.000000,6,1.000000,0.000000,20.641727,0,0,0,0,0,0,0
7,79999,36,70000,41,0,49,9999,0.100000,0,0,0.000000,6,1.000000,0.000000,3.845140,0,0,0,0,0,0,0
7,79999,37,70000,0,10000,40,9999,0.100000,0,0,0.000000,6,0.000000,0.000000,0.073337,0,0,0,0,0,0,0
7,79999,38,70000,41,0,40,9999,0.100000,0,0,0.000000,6,0.000000,0.000000,0.534328,0,0,0,0,0,0,0
7,79999,39,70000,41,0,49,9999,0.100000,0,0,0.000000,6,4.000000,0.000000,4.725084,0,0,0,0,0,0,0
7,79999,40,70000,0,10000,49,9999,0.100000,0,0,0.000000,6,2.000000,0.000000,5.453167,0,0,0,0,0,0,0
7,79999,41,70000,0,10000,40,9999,0.100000,0,0,0.000000,6,0.000000,0.000000,0.089327,0,0,0,0,0,0,0
7,79999,42,70000,0,10000,49,9999,0.100000,0,0,0.000000,6,1.000000,0.000000,14.575252,0,0,0,0,0,0,0
7,79999,43,70000,24,50000,40,9999,0.100000,0,0,0.000000,6,0.000000,0.000000,0.635699,0,0,0,0,0,0,0
7,79999,44,70000,41,0,49,9999,0.100000,0,0,0.000000,6,1.000000,0.000000,9.467671,0,0,0,0,0,0,0
7,79999,45,70000,41,0,40,9999,0.100000,0,0,0.000000,6,0.000000,0.000000,0.134010,0,0,0,0,0,0,0
7,79999,46,70000,41,0,49,9999,0.100000,0,0,0.000000,6,1.000000,0.000000,2.461775,0,0,0,0,0,0,0
7,79999,47,70000,24,40000,40,9999,0.100000,0,0,0.000000,6,0.000000,0.000000,2.296404,0,0,0,0,0,0,0
7,79999,48,70000,24,40000,40,9999,0.100000,0,0,0.000000,6,0.000000,0.000000,0.402099,0,0,0,0,0,0,0
7,79999,49,70000,41,0,40,9999,0.100000,0,0,0.000000,6,0.000000,0.000000,7.624822,0,0,0,0,0,0,0
7,79999,50,70000,41,0,40,9999,0.100000,0,0,0.000000,6,0.000000,0.000000,12.399008,0,0,0,0,0,0,0
7,79999,51,70000,41,0,40,9999,0.100000,0,0,0.000000,6,0.000000,0.000000,0.681005,0,0,0,0,0,0,0
7,79999,52,70000,41,0,49,9999,0.100000,0,0,0.000000,6,4.000000,0.000000,19.231824,0,0,0,0,0,0,0
7,79999,53,70000,41,0,40,9999,0.100000,0,0,0.000000,6,0.000000,0.000000,1.380236,0,0,0,0,0,0,0
7,79999,54,70000,0,0,40,9999,0.100000,0,0,0.000000,6,0.000000,0.000000,1.431067,0,0,0,0,0,0,0
7,79999,55,70000,24,50000,40,9999,0.100000,0,0,0.000000,6,0.000000,0.000000,1.087444,0,0,0,0,0,0,0
7,79999,56,70000,41,0,49,9999,0.100000,0,0,0.000000,6,1.000000,0.000000,14.285824,0,0,0,0,0,0,0
7,79999,57,70000,24,50000,40,9999,0.100000,0,0,0.000000,6,0.000000,0.000000,0.226397,0,0,0,0,0,0,0
7,79999,58,70000,0,0,40,9999,0.100000,0,0,0.000000,6,0.000000,0.000000,0.172511,0,0,0,0,0,0,0
7,79999,59,70000,24,40000,40,9999,0.100000,0,0,0.000000,6,0.000000,0.000000,0.312705,0,0,0,0,0,0,0
7,79999,60,70000,41,0,49,9999,0.100000,0,0,0.000000,6,3.000000,0.000000,6.822942,0,0,0,0,0,0,0
7,79999,61,70000,41,0,40,9999,0.100000,0,0,0.000000,6,0.000000,0.000000,0.179492,0,0,0,0,0,0,0
7,79999,62,70000,0,0,40,9999,0.100000,0,0,0.000000,6,0.000000,0.000000,0.923903,0,0,0,0,0,0,0
7,79999,63,70000,0,0,40,9999,0.100000,0,0,0.000000,6,0.000000,0.000000,0.731980,0,0,0,0,0,0,0
7,79999,64,70000,24,50000,49,9999,0.100000,0,0,0.000000,6,8.000000,0.000000,20.739700,0,0,0,0,0,0,0
7,79999,65,70000,0,10000,40,9999,0.100000,0,0,0.000000,6,0.000000,0.000000,6.516569,0,0,0,0,0,0,0
7,79999,66,70000,0,10000,49,9999,0.100000,0,0,0.000000,6,3.000000,0.000000,8.822598,0,0,0,0,0,0,0
7,79999,67,70000,41,0,40,9999,0.100000,0,0,0.000000,6,0.000000,0.000000,2.359049,0,0,0,0,0,0,0
7,79999,68,70000,41,0,40,9999,0.100000,0,0,0.000000,6,0.000000,0.000000,0.280381,0,0,0,0,0,0,0
7,79999,69,70000,0,0,40,9999,0.100000,0,0,0.000000,6,0.000000,0.000000,0.495347,0,0,0,0,0,0,0
7,79999,70,70000,24,50000,40,9999,0.100000,0,0,0.000000,6,0.000000,0.000000,0.453211,0,0,0,0,0,0,0
7,79999,71,70000,24,40000,40,9999,0.100000,0,0,0.000000,6,0.000000,0.000000,0.759844,0,0,0,0,0,0,0
7,79999,72,70000,24,50000,49,9999,0.100000,0,0,0.000000,6,2.000000,0.000000,8.420693,0,0,0,0,0,0,0
7,79999,73,70000,41,0,49,9999,0.100000,0,0,0.000000,6,7.000000,0.000000,18.303867,0,0,0,0,0,0,0
7,79999,74,70000,41,0,40,9999,0.100000,0,0,0.000000,6,0.000000,0.000000,0.391752,0,0,0,0,0,0,0
7,79999,75,70000,0,10000,40,9999,0.100000,0,0,0.000000,6,0.000000,0.000000,1.605897,0,0,0,0,0,0,0
7,79999,76,70000,0,0,40,9999,0.100000,0,0,0.000000,6,0.000000,0.000000,0.215776,0,0,0,0,0,0,0
7,79999,77,70000,0,0,49,9999,0.100000,0,0,0.000000,6,1.000000,0.000000,9.216835,0,0,0,0,0,0,0
7,79999,78,70000,0,10000,40,9999,0.100000,0,0,0.000000,6,0.000000,0.000000,0.620938,0,0,0,0,0,0,0
7,79999,79,70000,0,0,40,9999,0.100000,0,0,0.000000,6,0.000000,0.000000,0.766078,0,0,0,0,0,0,0
7,79999,80,70000,24,50000,49,9999,0.100000,0,0,0.000000,6,4.000000,0.000000,4.529699,0,0,0,0,0,0,0
7,79999,81,70000,24,50000,40,9999,0.100000,0,0,0.000000,6,0.000000,0.000000,13.244331,0,0,0,0,0,0,0
7,79999,82,70000,24,40000,40,9999,0.100000,0,0,0.000000,6,0.000000,0.000000,6.099105,0,0,0,0,0,0,0
7,79999,83,70000,0,10000,49,9999,0.100000,0,0,0.000000,6,1.000000,0.000000,8.796785,0,0,0,0,0,0,0
7,79999,84,70000,0,10000,40,9999,0.100000,0,0,0.000000,6,0.000000,0.000000,1.039426,0,0,0,0,0,0,0
7,79999,85,70000,41,0,40,9999,0.100000,0,0,0.000000,6,0.000000,0.000000,8.907903,0,0,0,0,0,0,0
7,79999,86,70000,24,40000,40,9999,0.100000,0,0,0.000000,6,0.000000,0.000000,0.417275,0,0,0,0,0,0,0
7,79999,87,70000,24,50000,40,9999,0.100000,0,0,0.000000,6,0.000000,0.000000,0.082278,0,0,0,0,0,0,0
7,79999,88,70000,0,0,40,9999,0.100000,0,0,0.000000,6,0.000000,0.000000,4.851184,0,0,0,0,0,0,0
7,79999,89,70000,24,50000,40,9999,0.100000,0,0,0.000000,6,0.000000,0.000000,14.553297,0,0,0,0,0,0,0
7,79999,90,70000,24,50000,40,9999,0.100000,0,0,0.000000,6,0.000000,0.000000,0.454435,0,0,0,0,0,0,0
7,79999,91,70000,24,50000,49,9999,0.100000,0,0,0.000000,6,2.000000,0.000000,5.254506,0,0,0,0,0,0,0
7,79999,92,70000,24,50000,40,9999,0.100000,0,0,0.000000,6,0.000000,0.000000,0.598002,0,0,0,0,0,0,0
7,79999,93,70000,24,50000,40,9999,0.100000,0,0,0.000000,6,0.000000,0.000000,7.087184,0,0,0,0,0,0,0
7,79999,94,70000,41,0,40,9999,0.100000,0,0,0.000000,6,0.000000,0.000000,1.012363,0,0,0,0,0,0,0
7,79999,95,70000,0,10000,40,9999,0.100000,0,0,0.000000,6,0.000000,0.000000,0.471475,0,0,0,0,0,0,0
7,79999,96,70000,24,50000,40,9999,0.100000,0,0,0.000000,6,0.000000,0.000000,9.933306,0,0,0,0,0,0,0
7,79999,97,70000,24,50000,49,9999,0.100000,0,0,0.000000,6,1.000000,0.000000,10.432366,0,0,0,0,0,0,0
7,79999,98,70000,24,40000,40,9999,0.100000,0,0,0.000000,6,0.000000,0.000000,0.111784,0,0,0,0,0,0,0
7,79999,99,70000,41,0,40,9999,0.100000,0,0,0.000000,6,0.000000,0.000000,0.698742,0,0,0,0,0,0,0
8,89999,0,80000,0,0,40,9999,0.100000,0,0,0.000000,6,0.000000,0.000000,1.259262,0,0,0,0,0,0,0
8,89999,1,80000,0,10000,40,9999,0.100000,0,0,0.000000,6,0.000000,0.000000,1.108342,0,0,0,0,0,0,0
8,89999,2,80000,24,40000,40,9999,0.100000,0,0,0.000000,6,0.000000,0.000000,0.334080,0,0,0,0,0,0,0
8,89999,3,80000,0,10000,40,9999,0.100000,0,0,0.000000,6,0.000000,0.000000,0.817725,0,0,0,0,0,0,0
8,89999,4,80000,24,40000,40,9999,0.100000,0,0,0.000000,6,0.000000,0.000000,6.142660,0,0,0,0,0,0,0
8,89999,5,80000,41,0,49,9999,0.100000,0,0,0.000000,6,1.000000,0.000000,10.601849,0,0,0,0,0,0,0
8,89999,6,80000,0,0,40,9999,0.100000,0,0,0.000000,6,0.000000,0.000000,0.995722,0,0,0,0,0,0,0
8,89999,7,80000,0,10000,40,9999,0.100000,0,0,0.000000,6,0.000000,0.000000,0.396492,0,0,0,0,0,0,0
8,89999,8,80000,41,0,40,9999,0.100000,0,0,0.000000,6,0.000000,0.000000,0.434081,0,0,0,0,0,0,0
8,89999,9,80000,24,40000,40,9999,0.100000,0,0,0.000000,6,0.000000,0.000000,1.175591,0,0,0,0,0,0,0
8,89999,10,80000,24,40000,49,9999,0.100000,0,0,0.000000,6,1.000000,0.000000,2.824653,0,0,0,0,0,0,0
8,89999,11,80000,41,0,40,9999,0.100000,0,0,0.000000,6,0.000000,0.000000,5.296165,0,0,0,0,0,0,0
8,89999,12,80000,0,10000,49,9999,0.100000,0,0,0.000000,6,1.000000,0.000000,6.297958,0,0,0,0,0,0,0
8,89999,13,80000,41,0,49,9999,0.100000,0,0,0.000000,6,3.000000,0.000000,7.284232,0,0,0,0,0,0,0
8,89999,14,80000,24,40000,49,9999,0.100000,0,0,0.000000,6,2.000000,0.000000,14.831421,0,0,0,0,0,0,0
8,89999,15,80000,0,10000,40,9999,0.100000,0,0,0.000000,6,0.000000,0.000000,0.725728,0,0,0,0,0,0,0
8,89999,16,80000,0,0,49,9999,0.100000,0,0,0.000000,6,3.000000,0.000000,3.888113,0,0,0,0,0,0,0
8,89999,17,80000,24,50000,49,9999,0.100000,0,0,0.000000,6,2.000000,0.000000,10.884106,0,0,0,0,0,0,0
8,89999,18,80000,24,50000,49,9999,0.100000,0,0,0.000000,6,7.000000,0.000000,19.503384,0,0,0,0,0,0,0
8,89999,19,80000,0,0,40,9999,0.100000,0,0,0.000000,6,0.000000,0.000000,0.203246,0,0,0,0,0,0,0
8,89999,20,80000,24,50000,40,9999,0.100000,0,0,0.000000,6,0.000000,0.000000,1.034306,0,0,0,0,0,0,0
8,89999,21,80000,41,0,40,9999,0.100000,0,0,0.000000,6,0.000000,0.000000,1.162828,0,0,0,0,0,0,0
8,89999,22,80000,0,10000,40,9999,0.100000,0,0,0.000000,6,0.000000,0.000000,0.949185,0,0,0,0,0,0,0
8,89999,23,80000,0,0,40,9999,0.100000,0,0,0.000000,6,0.000000,0.000000,1.108593,0,0,0,0,0,0,0
8,89999,24,80000,0,10000,49,9999,0.100000,0,0,0.000000,6,2.000000,0.000000,11.349012,0,0,0,0,0,0,0
8,89999,25,80000,24,40000,49,9999,0.100000,0,0,0.000000,6,1.000000,0.000000,21.713368,0,0,0,0,0,0,0
8,89999,26,80000,41,0,40,9999,0.100000,0,0,0.000000,6,0.000000,0.000000,25.592060,0,0,0,0,0,0,0
8,89999,27,80000,0,0,40,9999,0.100000,0,0,0.000000,6,0.000000,0.000000,1.392371,0,0,0,0,0,0,0
8,89999,28,80000,0,0,40,9999,0.100000,0,0,0.000000,6,0.000000,0.000000,0.198828,0,0,0,0,0,0,0
8,89999,29,80000,41,0,40,9999,0.100000,0,0,0.000000,6,0.000000,0.000000,0.328590,0,0,0,0,0,0,0
8,89999,30,80000,24,50000,49,9999,0.100000,0,0,0.000000,6,1.000000,0.000000,10.461866,0,0,0,0,0,0,0
8,89999,31,80000,41,0,40,9999,0.100000,0,0,0.000000,6,0.000000,0.000000,0.450880,0,0,0,0,0,0,0
8,89999,32,80000,0,0,49,9999,0.100000,0,0,0.000000,6,3.000000,0.000000,3.894412,0,0,0,0,0,0,0
8,89999,33,80000,0,10000,40,9999,0.100000,0,0,0.000000,6,0.000000,0.000000,0.161289,0,0,0,0,0,0,0
8,89999,34,80000,41,0,40,9999,0.100000,0,0,0.000000,6,0.000000,0.000000,0.087387,0,0,0,0,0,0,0
8,89999,35,80000,41,0,49,9999,0.100000,0,0,0.000000,6,7.000000,0.000000,16.159094,0,0,0,0,0,0,0
8,89999,36,80000,41,0,49,9999,0.100000,0,0,0.000000,6,4.000000,0.000000,14.732750,0,0,0,0,0,0,0
8,89999,37,80000,41,0,40,9999,0.100000,0,0,0.000000,6,0.000000,0.000000,0.075716,0,0,0,0,0,0,0
8,89999,38,80000,24,50000,40,9999,0.100000,0,0,0.000000,6,0.000000,0.000000,0.580989,0,0,0,0,0,0,0
8,89999,39,80000,0,0,40,9999,0.100000,0,0,0.000000,6,0.000000,0.000000,1.563674,0,0,0,0,0,0,0
8,89999,40,80000,24,50000,40,9999,0.100000,0,0,0.000000,6,0.000000,0.000000,3.232742,0,0,0,0,0,0,0
8,89999,41,80000,24,40000,40,9999,0.100000,0,0,0.000000,6,0.000000,0.000000,0.088819,0,0,0,0,0,0,0
8,89999,42,80000,41,0,40,9999,0.100000,0,0,0.000000,6,0.000000,0.000000,7.655771,0,0,0,0,0,0,0
8,89999,43,80000,41,0,40,9999,0.100000,0,0,0.000000,6,0.000000,0.000000,0.512021,0,0,0,0,0,0,0
8,89999,44,80000,24,40000,49,9999,0.100000,0,0,0.000000,6,1.000000,0.000000,7.145567,0,0,0,0,0,0,0
8,89999,45,80000,24,40000,40,9999,0.100000,0,0,0.000000,6,0.000000,0.000000,0.140771,0,0,0,0,0,0,0
8,89999,46,80000,24,50000,49,9999,0.100000,0,0,0.000000,6,2.000000,0.000000,5.940917,0,0,0,0,0,0,0
8,89999,47,80000,24,50000,49,9999,0.100000,0,0,0.000000,6,1.000000,0.000000,4.325121,0,0,0,0,0,0,0
8,89999,48,80000,41,0,40,9999,0.100000,0,0,0.000000,6,0.000000,0.000000,0.372666,0,0,0,0,0,0,0
8,89999,49,80000,41,0,49,9999,0.100000,0,0,0.000000,6,1.000000,0.000000,10.038581,0,0,0,0,0,0,0
8,89999,50,80000,24,40000,40,9999,0.100000,0,0,0.000000,6,0.000000,0.000000,0.513519,0,0,0,0,0,0,0
8,89999,51,80000,41,0,40,9999,0.100000,0,0,0.000000,6,0.000000,0.000000,0.827573,0,0,0,0,0,0,0
8,89999,52,80000,0,0,49,9999,0.100000,0,0,0.000000,6,3.000000,0.000000,16.699387,0,0,0,0,0,0,0
8,89999,53,80000,41,0,40,9999,0.100000,0,0,0.000000,6,0.000000,0.000000,0.803079,0,0,0,0,0,0,0
8,89999,54,80000,24,50000,49,9999,0.100000,0,0,0.000000,6,2.000000,0.000000,3.597075,0,0,0,0,0,0,0
8,89999,55,80000,0,10000,49,9999,0.100000,0,0,0.000000,6,5.000000,0.000000,13.146232,0,0,0,0,0,0,0
8,89999,56,80000,0,10000,49,9999,0.100000,0,0,0.000000,6,2.000000,0.000000,12.128516,0,0,0,0,0,0,0
8,89999,57,80000,0,0,40,9999,0.100000,0,0,0.000000,6,0.000000,0.000000,0.587525,0,0,0,0,0,0,0
8,89999,58,80000,41,0,40,9999,0.100000,0,0,0.000000,6,0.000000,0.000000,0.205835,0,0,0,0,0,0,0
8,89999,59,80000,41,0,40,9999,0.100000,0,0,0.000000,6,0.000000,0.000000,0.588252,0,0,0,0,0,0,0
8,89999,60,80000,24,50000,40,9999,0.100000,0,0,0.000000,6,0.000000,0.000000,0.651632,0,0,0,0,0,0,0
8,89999,61,80000,0,0,49,9999,0.100000,0,0,0.000000,6,1.000000,0.000000,2.947800,0,0,0,0,0,0,0
8,89999,62,80000,41,0,40,9999,0.100000,0,0,0.000000,6,0.000000,0.000000,0.812644,0,0,0,0,0,0,0
8,89999,63,80000,41,0,40,9999,0.100000,0,0,0.000000,6,0.000000,0.000000,5.148136,0,0,0,0,0,0,0
8,89999,64,80000,41,0,40,9999,0.100000,0,0,0.000000,6,0.000000,0.000000,1.031812,0,0,0,0,0,0,0
8,89999,65,80000,0,10000,49,9999,0.100000,0,0,0.000000,6,7.000000,0.000000,21.813254,0,0,0,0,0,0,0
8,89999,66,80000,0,10000,40,9999,0.100000,0,0,0.000000,6,0.000000,0.000000,0.220560,0,0,0,0,0,0,0
8,89999,67,80000,24,50000,49,9999,0.100000,0,0,0.000000,6,1.000000,0.000000,6.224810,0,0,0,0,0,0,0
8,89999,68,80000,24,50000,40,9999,0.100000,0,0,0.000000,6,0.000000,0.000000,0.192153,0,0,0,0,0,0,0
8,89999,69,80000,0,0,40,9999,0.100000,0,0,0.000000,6,0.000000,0.000000,0.808191,0,0,0,0,0,0,0
8,89999,70,80000,24,40000,40,9999,0.100000,0,0,0.000000,6,0.000000,0.000000,0.496861,0,0,0,0,0,0,0
8,89999,71,80000,41,0,40,9999,0.100000,0,0,0.000000,6,0.000000,0.000000,0.577790,0,0,0,0,0,0,0
8,89999,72,80000,24,40000,40,9999,0.100000,0,0,0.000000,6,0.000000,0.000000,5.082573,0,0,0,0,0,0,0
8,89999,73,80000,0,0,49,9999,0.100000,0,0,0.000000,6,2.000000,0.000000,7.015812,0,0,0,0,0,0,0
8,89999,74,80000,41,0,49,9999,0.100000,0,0,0.000000,6,3.000000,0.000000,3.967927,0,0,0,0,0,0,0
8,89999,75,80000,0,10000,40,9999,0.100000,0,0,0.000000,6,0.000000,0.000000,1.483486,0,0,0,0,0,0,0
8,89999,76,80000,41,0,40,9999,0.100000,0,0,0.000000,6,0.000000,0.000000,0.214385,0,0,0,0,0,0,0
8,89999,77,80000,41,0,49,9999,0.100000,0,0,0.000000,6,3.000000,0.000000,18.064460,0,0,0,0,0,0,0
8,89999,78,80000,24,40000,49,9999,0.100000,0,0,0.000000,6,1.000000,0.000000,1.987393,0,0,0,0,0,0,0
8,89999,79,80000,24,50000,40,9999,0.100000,0,0,0.000000,6,0.000000,0.000000,0.917870,0,0,0,0,0,0,0
8,89999,80,80000,24,50000,40,9999,0.100000,0,0,0.000000,6,0.000000,0.000000,1.141987,0,0,0,0,0,0,0
8,89999,81,80000,0,0,49,9999,0.100000,0,0,0.000000,6,6.000000,0.000000,20.539901,0,0,0,0,0,0,0
8,89999,82,80000,24,50000,40,9999,0.100000,0,0,0.000000,6,0.000000,0.000000,6.074400,0,0,0,0,0,0,0
8,89999,83,80000,0,0,49,9999,0.100000,0,0,0.000000,6,1.000000,0.000000,7.641930,0,0,0,0,0,0,0
8,89999,84,80000,41,0,40,9999,0.100000,0,0,0.000000,6,0.000000,0.000000,0.987937,0,0,0,0,0,0,0
8,89999,85,80000,41,0,40,9999,0.100000,0,0,0.000000,6,0.000000,0.000000,7.641289,0,0,0,0,0,0,0
8,89999,86,80000,24,40000,40,9999,0.100000,0,0,0.000000,6,0.000000,0.000000,0.555474,0,0,0,0,0,0,0
8,89999,87,80000,41,0,40,9999,0.100000,0,0,0.000000,6,0.000000,0.000000,0.175087,0,0,0,0,0,0,0
8,89999,88,80000,41,0,49,9999,0.100000,0,0,0.000000,6,3.000000,0.000000,3.894990,0,0,0,0,0,0,0
8,89999,89,80000,0,10000,49,9999,0.100000,0,0,0.000000,6,3.000000,0.000000,5.883518,0,0,0,0,0,0,0
8,89999,90,80000,41,0,40,9999,0.100000,0,0,0.000000,6,0.000000,0.000000,0.659398,0,0,0,0,0,0,0
8,89999,91,80000,0,10000,40,9999,0.100000,0,0,0.000000,6,0.000000,0.000000,2.788969,0,0,0,0,0,0,0
8,89999,92,80000,24,50000,40,9999,0.100000,0,0,0.000000,6,0.000000,0.000000,2.389698,0,0,0,0,0,0,0
8,89999,93,80000,24,50000,40,9999,0.100000,0,0,0.000000,6,0.000000,0.000000,7.578054,0,0,0,0,0,0,0
8,89999,94,80000,0,10000,40,9999,0.100000,0,0,0.000000,6,0.000000,0.000000,1.012790,0,0,0,0,0,0,0
8,89999,95,80000,41,0,40,9999,0.100000,0,0,0.000000,6,0.000000,0.000000,4.092876,0,0,0,0,0,0,0
8,89999,96,80000,0,0,49,9999,0.100000,0,0,0.000000,6,1.000000,0.000000,5.733825,0,0,0,0,0,0,0
8,89999,97,80000,41,0,49,9999,0.100000,0,0,0.000000,6,1.000000,0.000000,5.397372,0,0,0,0,0,0,0
8,89999,98,80000,0,0,40,9999,0.100000,0,0,0.000000,6,0.000000,0.000000,0.089464,0,0,0,0,0,0,0
8,89999,99,80000,41,0,40,9999,0.100000,0,0,0.000000,6,0.000000,0.000000,0.561067,0,0,0,0,0,0,0
9,99999,0,90000,0,10000,40,9999,0.100000,0,0,0.000000,6,0.000000,0.000000,0.316460,0,0,0,0,0,0,0
9,99999,1,90000,24,50000,40,9999,0.100000,0,0,0.000000,6,0.000000,0.000000,0.229917,0,0,0,0,0,0,0
9,99999,2,90000,41,0,40,9999,0.100000,0,0,0.000000,6,0.000000,0.000000,0.201747,0,0,0,0,0,0,0
9,99999,3,90000,0,0,40,9999,0.100000,0,0,0.000000,6,0.000000,0.000000,0.140247,0,0,0,0,0,0,0
9,99999,4,90000,0,10000,40,9999,0.100000,0,0,0.000000,6,0.000000,0.000000,4.944555,0,0,0,0,0,0,0
9,99999,5,90000,41,0,40,9999,0.100000,0,0,0.000000,6,0.000000,0.000000,8.091458,0,0,0,0,0,0,0
9,99999,6,90000,41,0,40,9999,0.100000,0,0,0.000000,6,0.000000,0.000000,0.996227,0,0,0,0,0,0,0
9,99999,7,90000,0,0,40,9999,0.100000,0,0,0.000000,6,0.000000,0.000000,0.306076,0,0,0,0,0,0,0
9,99999,8,90000,24,40000,40,9999,0.100000,0,0,0.000000,6,0.000000,0.000000,0.431229,0,0,0,0,0,0,0
9,99999,9,90000,41,0,40,9999,0.100000,0,0,0.000000,6,0.000000,0.000000,1.752672,0,0,0,0,0,0,0
9,99999,10,90000,41,0,40,9999,0.100000,0,0,0.000000,6,0.000000,0.000000,1.539989,0,0,0,0,0,0,0
9,99999,11,90000,41,0,40,9999,0.100000,0,0,0.000000,6,0.000000,0.000000,6.312476,0,0,0,0,0,0,0
9,99999,12,90000,41,0,49,9999,0.100000,0,0,0.000000,6,1.000000,0.000000,10.654252,0,0,0,0,0,0,0
9,99999,13,90000,24,50000,49,9999,0.100000,0,0,0.000000,6,2.000000,0.000000,4.668005,0,0,0,0,0,0,0
9,99999,14,90000,41,0,40,9999,0.100000,0,0,0.000000,6,0.000000,0.000000,0.210944,0,0,0,0,0,0,0
9,99999,15,90000,0,0,40,9999,0.100000,0,0,0.000000,6,0.000000,0.000000,0.448599,0,0,0,0,0,0,0
9,99999,16,90000,0,0,40,9999,0.100000,0,0,0.000000,6,0.000000,0.000000,0.215459,0,0,0,0,0,0,0
9,99999,17,90000,0,0,49,9999,0.100000,0,0,0.000000,6,11.000000,0.000000,11.312957,0,0,0,0,0,0,0
9,99999,18,90000,24,50000,49,9999,0.100000,0,0,0.000000,6,5.000000,0.000000,18.471998,0,0,0,0,0,0,0
9,99999,19,90000,41,0,40,9999,0.100000,0,0,0.000000,6,0.000000,0.000000,0.495758,0,0,0,0,0,0,0
9,99999,20,90000,0,10000,40,9999,0.100000,0,0,0.000000,6,0.000000,0.000000,4.162044,0,0,0,0,0,0,0
9,99999,21,90000,0,0,9,9999,0.100000,0,0,34.210526,6,6.000000,0.000000,8.527413,0,0,0,0,0,1,0
9,99999,22,90000,41,0,9,9999,0.100000,0,0,34.210526,6,6.000000,0.000000,7.990480,0,0,0,0,0,1,0
9,99999,23,90000,24,40000,40,9999,0.100000,0,0,0.000000,6,0.000000,0.000000,1.094363,0,0,0,0,0,0,0
9,99999,24,90000,41,0,49,9999,0.100000,0,0,0.000000,6,1.000000,0.000000,8.121687,0,0,0,0,0,0,0
9,99999,25,90000,0,10000,40,9999,0.100000,0,0,0.000000,6,0.000000,0.000000,12.770136,0,0,0,0,0,0,0
9,99999,26,90000,24,50000,40,9999,0.100000,0,0,0.000000,6,0.000000,0.000000,7.365092,0,0,0,0,0,0,0
9,99999,27,90000,41,0,40,9999,0.100000,0,0,0.000000,6,0.000000,0.000000,0.896510,0,0,0,0,0,0,0
9,99999,28,90000,0,10000,40,9999,0.100000,0,0,0.000000,6,0.000000,0.000000,0.373704,0,0,0,0,0,0,0
9,99999,29,90000,24,50000,40,9999,0.100000,0,0,0.000000,6,0.000000,0.000000,1.779372,0,0,0,0,0,0,0
9,99999,30,90000,41,0,49,9999,0.100000,0,0,0.000000,6,1.000000,0.000000,10.567389,0,0,0,0,0,0,0
9,99999,31,90000,41,0,40,9999,0.100000,0,0,0.000000,6,0.000000,0.000000,0.235622,0,0,0,0,0,0,0
9,99999,32,90000,41,0,40,9999,0.100000,0,0,0.000000,6,0.000000,0.000000,0.365694,0,0,0,0,0,0,0
9,99999,33,90000,24,40000,40,9999,0.100000,0,0,0.000000,6,0.000000,0.000000,0.153694,0,0,0,0,0,0,0
9,99999,34,90000,0,0,40,9999,0.100000,0,0,0.000000,6,0.000000,0.000000,0.160076,0,0,0,0,0,0,0
9,99999,35,90000,0,10000,49,9999,0.100000,0,0,0.000000,6,6.000000,0.000000,15.382688,0,0,0,0,0,0,0
9,99999,36,90000,24,50000,49,9999,0.100000,0,0,0.000000,6,3.000000,0.000000,18.238892,0,0,0,0,0,0,0
9,99999,37,90000,41,0,40,9999,0.100000,0,0,0.000000,6,0.000000,0.000000,0.075744,0,0,0,0,0,0,0
9,99999,38,90000,41,0,40,9999,0.100000,0,0,0.000000,6,0.000000,0.000000,0.589217,0,0,0,0,0,0,0
9,99999,39,90000,24,50000,40,9999,0.100000,0,0,0.000000,6,0.000000,0.000000,0.773345,0,0,0,0,0,0,0
9,99999,40,90000,0,0,40,9999,0.100000,0,0,0.000000,6,0.000000,0.000000,3.356154,0,0,0,0,0,0,0
9,99999,41,90000,0,0,40,9999,0.100000,0,0,0.000000,6,0.000000,0.000000,0.103323,0,0,0,0,0,0,0
9,99999,42,90000,41,0,49,9999,0.100000,0,0,0.000000,6,1.000000,0.000000,9.502924,0,0,0,0,0,0,0
9,99999,43,90000,41,0,40,9999,0.100000,0,0,0.000000,6,0.000000,0.000000,0.467798,0,0,0,0,0,0,0
9,99999,44,90000,24,40000,40,9999,0.100000,0,0,0.000000,6,0.000000,0.000000,7.263611,0,0,0,0,0,0,0
9,99999,45,90000,0,10000,40,9999,0.100000,0,0,0.000000,6,0.000000,0.000000,0.139427,0,0,0,0,0,0,0
9,99999,46,90000,24,40000,40,9999,0.100000,0,0,0.000000,6,0.000000,0.000000,2.025760,0,0,0,0,0,0,0
9,99999,47,90000,24,50000,40,9999,0.100000,0,0,0.000000,6,0.000000,0.000000,0.329351,0,0,0,0,0,0,0
9,99999,48,90000,0,0,40,9999,0.100000,0,0,0.000000,6,0.000000,0.000000,0.381318,0,0,0,0,0,0,0
9,99999,49,90000,24,50000,40,9999,0.100000,0,0,0.000000,6,0.000000,0.000000,8.418188,0,0,0,0,0,0,0
9,99999,50,90000,41,0,40,9999,0.100000,0,0,0.000000,6,0.000000,0.000000,0.504458,0,0,0,0,0,0,0
9,99999,51,90000,24,40000,40,9999,0.100000,0,0,0.000000,6,0.000000,0.000000,0.686499,0,0,0,0,0,0,0
9,99999,52,90000,0,0,49,9999,0.100000,0,0,0.000000,6,2.000000,0.000000,18.223813,0,0,0,0,0,0,0
9,99999,53,90000,0,0,40,9999,0.100000,0,0,0.000000,6,0.000000,0.000000,3.761228,0,0,0,0,0,0,0
9,99999,54,90000,24,40000,40,9999,0.100000,0,0,0.000000,6,0.000000,0.000000,2.598024,0,0,0,0,0,0,0
9,99999,55,90000,24,40000,49,9999,0.100000,0,0,0.000000,6,9.000000,0.000000,11.248415,0,0,0,0,0,0,0
9,99999,56,90000,41,0,40,9999,0.100000,0,0,0.000000,6,0.000000,0.000000,23.585459,0,0,0,0,0,0,0
9,99999,57,90000,0,0,40,9999,0.100000,0,0,0.000000,6,0.000000,0.000000,1.216858,0,0,0,0,0,0,0
9,99999,58,90000,24,40000,40,9999,0.100000,0,0,0.000000,6,0.000000,0.000000,0.186943,0,0,0,0,0,0,0
9,99999,59,90000,41,0,40,9999,0.100000,0,0,0.000000,6,0.000000,0.000000,0.153876,0,0,0,0,0,0,0
9,99999,60,90000,24,40000,40,9999,0.100000,0,0,0.000000,6,0.000000,0.000000,0.611580,0,0,0,0,0,0,0
9,99999,61,90000,41,0,49,9999,0.100000,0,0,0.000000,6,2.000000,0.000000,4.668118,0,0,0,0,0,0,0
9,99999,62,90000,0,0,49,9999,0.100000,0,0,0.000000,6,2.000000,0.000000,5.291751,0,0,0,0,0,0,0
9,99999,63,90000,24,40000,40,9999,0.100000,0,0,0.000000,6,0.000000,0.000000,1.255687,0,0,0,0,0,0,0
9,99999,64,90000,24,40000,40,9999,0.100000,0,0,0.000000,6,0.000000,0.000000,0.415966,0,0,0,0,0,0,0
9,99999,65,90000,0,10000,49,9999,0.100000,0,0,0.000000,6,1.000000,0.000000,8.493981,0,0,0,0,0,0,0
9,99999,66,90000,41,0,40,9999,0.100000,0,0,0.000000,6,0.000000,0.000000,0.227433,0,0,0,0,0,0,0
9,99999,67,90000,0,0,49,9999,0.100000,0,0,0.000000,6,1.000000,0.000000,4.401423,0,0,0,0,0,0,0
9,99999,68,90000,41,0,40,9999,0.100000,0,0,0.000000,6,0.000000,0.000000,0.167980,0,0,0,0,0,0,0
9,99999,69,90000,41,0,9,9999,0.100000,0,0,34.210526,6,6.000000,0.000000,7.605689,0,0,0,0,0,1,0
9,99999,70,90000,0,0,49,9999,0.100000,0,0,0.000000,6,3.000000,0.000000,5.705128,0,0,0,0,0,0,0
9,99999,71,90000,41,0,40,9999,0.100000,0,0,0.000000,6,0.000000,0.000000,0.458569,0,0,0,0,0,0,0
9,99999,72,90000,41,0,40,9999,0.100000,0,0,0.000000,6,0.000000,0.000000,8.957880,0,0,0,0,0,0,0
9,99999,73,90000,41,0,40,9999,0.100000,0,0,0.000000,6,0.000000,0.000000,16.009424,0,0,0,0,0,0,0
9,99999,74,90000,41,0,40,9999,0.100000,0,0,0.000000,6,0.000000,0.000000,0.260412,0,0,0,0,0,0,0
9,99999,75,90000,41,0,40,9999,0.100000,0,0,0.000000,6,0.000000,0.000000,1.545238,0,0,0,0,0,0,0
9,99999,76,90000,24,40000,40,9999,0.100000,0,0,0.000000,6,0.000000,0.000000,0.209912,0,0,0,0,0,0,0
9,99999,77,90000,24,40000,49,9999,0.100000,0,0,0.000000,6,2.000000,0.000000,20.521443,0,0,0,0,0,0,0
9,99999,78,90000,41,0,40,9999,0.100000,0,0,0.000000,6,0.000000,0.000000,0.913230,0,0,0,0,0,0,0
9,99999,79,90000,0,10000,9,9999,0.100000,0,0,34.210526,6,6.000000,0.000000,7.986100,0,0,0,0,0,1,0
9,99999,80,90000,0,0,40,9999,0.100000,0,0,0.000000,6,0.000000,0.000000,0.237164,0,0,0,0,0,0,0
9,99999,81,90000,24,40000,49,9999,0.100000,0,0,0.000000,6,2.000000,0.000000,16.527757,0,0,0,0,0,0,0
9,99999,82,90000,0,10000,49,9999,0.100000,0,0,0.000000,6,3.000000,0.000000,12.706349,0,0,0,0,0,0,0
9,99999,83,90000,0,0,40,9999,0.100000,0,0,0.000000,6,0.000000,0.000000,5.929329,0,0,0,0,0,0,0
9,99999,84,90000,0,0,40,9999,0.100000,0,0,0.000000,6,0.000000,0.000000,0.953697,0,0,0,0,0,0,0
9,99999,85,90000,0,0,40,9999,0.100000,0,0,0.000000,6,0.000000,0.000000,7.472648,0,0,0,0,0,0,0
9,99999,86,90000,24,50000,40,9999,0.100000,0,0,0.000000,6,0.000000,0.000000,0.419190,0,0,0,0,0,0,0
9,99999,87,90000,0,10000,40,9999,0.100000,0,0,0.000000,6,0.000000,0.000000,0.173660,0,0,0,0,0,0,0
9,99999,88,90000,24,40000,40,9999,0.100000,0,0,0.000000,6,0.000000,0.000000,0.215193,0,0,0,0,0,0,0
9,99999,89,90000,0,10000,40,9999,0.100000,0,0,0.000000,6,0.000000,0.000000,0.781753,0,0,0,0,0,0,0
9,99999,90,90000,0,0,40,9999,0.100000,0,0,0.000000,6,0.000000,0.000000,1.931349,0,0,0,0,0,0,0
9,99999,91,90000,24,40000,49,9999,0.100000,0,0,0.000000,6,1.000000,0.000000,15.116261,0,0,0,0,0,0,0
9,99999,92,90000,41,0,40,9999,0.100000,0,0,0.000000,6,0.000000,0.000000,0.739247,0,0,0,0,0,0,0
9,99999,93,90000,41,0,40,9999,0.100000,0,0,0.000000,6,0.000000,0.000000,6.503696,0,0,0,0,0,0,0
9,99999,94,90000,0,0,40,9999,0.100000,0,0,0.000000,6,0.000000,0.000000,1.010420,0,0,0,0,0,0,0
9,99999,95,90000,41,0,40,9999,0.100000,0,0,0.000000,6,0.000000,0.000000,0.748557,0,0,0,0,0,0,0
9,99999,96,90000,41,0,40,9999,0.100000,0,0,0.000000,6,0.000000,0.000000,8.929460,0,0,0,0,0,0,0
9,99999,97,90000,0,0,40,9999,0.100000,0,0,0.000000,6,0.000000,0.000000,6.266376,0,0,0,0,0,0,0
9,99999,98,90000,24,40000,40,9999,0.100000,0,0,0.000000,6,0.000000,0.000000,0.239357,0,0,0,0,0,0,0
9,99999,99,90000,41,0,40,9999,0.100000,0,0,0.000000,6,0.000000,0.000000,0.525786,0,0,0,0,0,0,0
10,109999,0,100000,24,40000,40,9999,0.100000,0,0,0.000000,6,0.000000,0.000000,0.590706,0,0,0,0,0,0,0
10,109999,1,100000,0,10000,40,9999,0.100000,0,0,0.000000,6,0.000000,0.000000,0.183265,0,0,0,0,0,0,0
10,109999,2,100000,41,0,40,9999,0.100000,0,0,0.000000,6,0.000000,0.000000,0.219275,0,0,0,0,0,0,0
10,109999,3,100000,41,0,40,9999,0.100000,0,0,0.000000,6,0.000000,0.000000,0.139660,0,0,0,0,0,0,0
10,109999,4,100000,24,40000,40,9999,0.100000,0,0,0.000000,6,0.000000,0.000000,6.514840,0,0,0,0,0,0,0
10,109999,5,100000,41,0,49,9999,0.100000,0,0,0.000000,6,1.000000,0.000000,10.523622,0,0,0,0,0,0,0
10,109999,6,100000,0,10000,40,9999,0.100000,0,0,0.000000,6,0.000000,0.000000,0.980957,0,0,0,0,0,0,0
10,109999,7,100000,24,40000,40,9999,0.100000,0,0,0.000000,6,0.000000,0.000000,0.265675,0,0,0,0,0,0,0
10,109999,8,100000,24,40000,40,9999,0.100000,0,0,0.000000,6,0.000000,0.000000,0.323036,0,0,0,0,0,0,0
10,109999,9,100000,0,0,40,9999,0.100000,0,0,0.000000,6,0.000000,0.000000,0.826239,0,0,0,0,0,0,0
10,109999,10,100000,24,50000,49,9999,0.100000,0,0,0.000000,6,1.000000,0.000000,16.375685,0,0,0,0,0,0,0
10,109999,11,100000,41,0,40,9999,0.100000,0,0,0.000000,6,0.000000,0.000000,7.929011,0,0,0,0,0,0,0
10,109999,12,100000,0,10000,49,9999,0.100000,0,0,0.000000,6,1.000000,0.000000,6.303754,0,0,0,0,0,0,0
10,109999,13,100000,24,40000,40,9999,0.100000,0,0,0.000000,6,0.000000,0.000000,1.049744,0,0,0,0,0,0,0
10,109999,14,100000,41,0,40,9999,0.100000,0,0,0.000000,6,0.000000,0.000000,0.156710,0,0,0,0,0,0,0
10,109999,15,100000,0,10000,40,9999,0.100000,0,0,0.000000,6,0.000000,0.000000,0.437701,0,0,0,0,0,0,0
10,109999,16,100000,24,40000,40,9999,0.100000,0,0,0.000000,6,0.000000,0.000000,0.129144,0,0,0,0,0,0,0
10,109999,17,100000,24,50000,40,9999,0.100000,0,0,0.000000,6,0.000000,0.000000,0.225806,0,0,0,0,0,0,0
10,109999,18,100000,0,0,49,9999,0.100000,0,0,0.000000,6,2.000000,0.000000,9.029685,0,0,0,0,0,0,0
10,109999,19,100000,0,10000,40,9999,0.100000,0,0,0.000000,6,0.000000,0.000000,0.149341,0,0,0,0,0,0,0
10,109999,20,100000,0,10000,49,9999,0.100000,0,0,0.000000,6,3.000000,0.000000,16.183753,0,0,0,0,0,0,0
10,109999,21,100000,0,10000,49,9999,0.100000,0,0,0.000000,6,1.000000,0.000000,5.617840,0,0,0,0,0,0,0
10,109999,22,100000,41,0,49,9999,0.100000,0,0,0.000000,6,1.000000,0.000000,9.506780,0,0,0,0,0,0,0
10,109999,23,100000,41,0,40,9999,0.100000,0,0,0.000000,6,0.000000,0.000000,1.828128,0,0,0,0,0,0,0
10,109999,24,100000,24,40000,40,9999,0.100000,0,0,0.000000,6,0.000000,0.000000,1.156624,0,0,0,0,0,0,0
10,109999,25,100000,24,50000,40,9999,0.100000,0,0,0.000000,6,0.000000,0.000000,24.425684,0,0,0,0,0,0,0
10,109999,26,100000,41,0,49,9999,0.100000,0,0,0.000000,6,1.000000,0.000000,15.114977,0,0,0,0,0,0,0
10,109999,27,100000,0,10000,49,9999,0.100000,0,0,0.000000,6,1.000000,0.000000,6.874896,0,0,0,0,0,0,0
10,109999,28,100000,24,40000,40,9999,0.100000,0,0,0.000000,6,0.000000,0.000000,0.129811,0,0,0,0,0,0,0
10,109999,29,100000,24,50000,40,9999,0.100000,0,0,0.000000,6,0.000000,0.000000,9.277369,0,0,0,0,0,0,0
10,109999,30,100000,41,0,40,9999,0.100000,0,0,0.000000,6,0.000000,0.000000,9.257673,0,0,0,0,0,0,0
10,109999,31,100000,24,40000,40,9999,0.100000,0,0,0.000000,6,0.000000,0.000000,0.249860,0,0,0,0,0,0,0
10,109999,32,100000,41,0,40,9999,0.100000,0,0,0.000000,6,0.000000,0.000000,0.233082,0,0,0,0,0,0,0
10,109999,33,100000,0,0,40,9999,0.100000,0,0,0.000000,6,0.000000,0.000000,0.136144,0,0,0,0,0,0,0
10,109999,34,100000,0,10000,40,9999,0.100000,0,0,0.000000,6,0.000000,0.000000,0.099961,0,0,0,0,0,0,0
10,109999,35,100000,41,0,40,9999,0.100000,0,0,0.000000,6,0.000000,0.000000,4.913479,0,0,0,0,0,0,0
10,109999,36,100000,41,0,49,9999,0.100000,0,0,0.000000,6,9.000000,0.000000,13.866297,0,0,0,0,0,0,0
10,109999,37,100000,41,0,40,9999,0.100000,0,0,0.000000,6,0.000000,0.000000,0.075560,0,0,0,0,0,0,0
10,109999,38,100000,24,40000,40,9999,0.135000,0,0,0.000000,6,0.000000,0.000000,0.433262,0,0,0,0,0,0,0
10,109999,39,100000,24,50000,40,9999,0.100000,0,0,0.000000,6,0.000000,0.000000,0.399928,0,0,0,0,0,0,0
10,109999,40,100000,24,40000,40,9999,0.100000,0,0,0.000000,6,0.000000,0.000000,3.204820,0,0,0,0,0,0,0
10,109999,41,100000,24,40000,40,9999,0.100000,0,0,0.000000,6,0.000000,0.000000,0.162923,0,0,0,0,0,0,0
10,109999,42,100000,41,0,49,9999,0.100000,0,0,0.000000,6,1.000000,0.000000,7.764180,0,0,0,0,0,0,0
10,109999,43,100000,41,0,40,9999,0.100000,0,0,0.000000,6,0.000000,0.000000,0.480164,0,0,0,0,0,0,0
10,109999,44,100000,24,50000,40,9999,0.100000,0,0,0.000000,6,0.000000,0.000000,7.749111,0,0,0,0,0,0,0
10,109999,45,100000,0,0,40,9999,0.100000,0,0,0.000000,6,0.000000,0.000000,0.138095,0,0,0,0,0,0,0
10,109999,46,100000,41,0,40,9999,0.100000,0,0,0.000000,6,0.000000,0.000000,0.576213,0,0,0,0,0,0,0
10,109999,47,100000,0,0,40,9999,0.100000,0,0,0.000000,6,0.000000,0.000000,0.468135,0,0,0,0,0,0,0
10,109999,48,100000,24,50000,40,9999,0.100000,0,0,0.000000,6,0.000000,0.000000,0.392998,0,0,0,0,0,0,0
10,109999,49,100000,0,0,49,9999,0.100000,0,0,0.000000,6,2.000000,0.000000,9.374731,0,0,0,0,0,0,0
10,109999,50,100000,0,0,40,9999,0.100000,0,0,0.000000,6,0.000000,0.000000,0.507198,0,0,0,0,0,0,0
10,109999,51,100000,0,0,40,9999,0.100000,0,0,0.000000,6,0.000000,0.000000,0.688984,0,0,0,0,0,0,0
10,109999,52,100000,41,0,49,9999,0.100000,0,0,0.000000,6,4.000000,0.000000,18.450529,0,0,0,0,0,0,0
10,109999,53,100000,41,0,49,9999,0.100000,0,0,0.000000,6,3.000000,0.000000,16.400437,0,0,0,0,0,0,0
10,109999,54,100000,41,0,49,9999,0.100000,0,0,0.000000,6,1.000000,0.000000,3.746042,0,0,0,0,0,0,0
10,109999,55,100000,0,0,49,9999,0.100000,0,0,0.000000,6,2.000000,0.000000,3.912751,0,0,0,0,0,0,0
10,109999,56,100000,24,50000,40,9999,0.100000,0,0,0.000000,6,0.000000,0.000000,24.661852,0,0,0,0,0,0,0
10,109999,57,100000,41,0,40,9999,0.100000,0,0,0.000000,6,0.000000,0.000000,0.284741,0,0,0,0,0,0,0
10,109999,58,100000,0,10000,40,9999,0.100000,0,0,0.000000,6,0.000000,0.000000,0.150993,0,0,0,0,0,0,0
10,109999,59,100000,24,40000,40,9999,0.100000,0,0,0.000000,6,0.000000,0.000000,0.131404,0,0,0,0,0,0,0
10,109999,60,100000,41,0,40,9999,0.100000,0,0,0.000000,6,0.000000,0.000000,0.349126,0,0,0,0,0,0,0
10,109999,61,100000,41,0,40,9999,0.100000,0,0,0.000000,6,0.000000,0.000000,0.972558,0,0,0,0,0,0,0
10,109999,62,100000,24,40000,40,9999,0.100000,0,0,0.000000,6,0.000000,0.000000,0.226969,0,0,0,0,0,0,0
10,109999,63,100000,41,0,49,9999,0.100000,0,0,0.000000,6,1.000000,0.000000,5.299599,0,0,0,0,0,0,0
10,109999,64,100000,24,40000,40,9999,0.100000,0,0,0.000000,6,0.000000,0.000000,0.386836,0,0,0,0,0,0,0
10,109999,65,100000,24,40000,49,9999,0.100000,0,0,0.000000,6,10.000000,0.000000,24.448851,0,0,0,0,0,0,0
10,109999,66,100000,0,10000,40,9999,0.100000,0,0,0.000000,6,0.000000,0.000000,0.228657,0,0,0,0,0,0,0
10,109999,67,100000,24,40000,49,9999,0.065000,0,0,0.000000,6,1.000000,0.000000,12.210197,0,0,0,0,0,0,0
10,109999,68,100000,41,0,40,9999,0.100000,0,0,0.000000,6,0.000000,0.000000,0.146877,0,0,0,0,0,0,0
10,109999,69,100000,41,0,49,9999,0.100000,0,0,0.000000,6,4.000000,0.000000,13.175355,0,0,0,0,0,0,0
10,109999,70,100000,24,50000,40,9999,0.100000,0,0,0.000000,6,0.000000,0.000000,0.177240,0,0,0,0,0,0,0
10,109999,71,100000,24,50000,40,9999,0.100000,0,0,0.000000,6,0.000000,0.000000,0.552450,0,0,0,0,0,0,0
10,109999,72,100000,24,40000,40,9999,0.100000,0,0,0.000000,6,0.000000,0.000000,5.405376,0,0,0,0,0,0,0
10,109999,73,100000,41,0,49,9999,0.100000,0,0,0.000000,6,6.000000,0.000000,22.893523,0,0,0,0,0,0,0
10,109999,74,100000,0,0,40,9999,0.100000,0,0,0.000000,6,0.000000,0.000000,0.240414,0,0,0,0,0,0,0
10,109999,75,100000,24,50000,40,9999,0.100000,0,0,0.000000,6,0.000000,0.000000,1.525083,0,0,0,0,0,0,0
10,109999,76,100000,0,10000,40,9999,0.100000,0,0,0.000000,6,0.000000,0.000000,0.207057,0,0,0,0,0,0,0
10,109999,77,100000,24,50000,49,9999,0.100000,0,0,0.000000,6,3.000000,0.000000,14.286316,0,0,0,0,0,0,0
10,109999,78,100000,24,50000,49,9999,0.100000,0,0,0.000000,6,1.000000,0.000000,1.233239,0,0,0,0,0,0,0
10,109999,79,100000,24,40000,49,9999,0.100000,0,0,0.000000,6,1.000000,0.000000,6.908873,0,0,0,0,0,0,0
10,109999,80,100000,0,0,40,9999,0.100000,0,0,0.000000,6,0.000000,0.000000,0.194508,0,0,0,0,0,0,0
10,109999,81,100000,41,0,40,9999,0.100000,0,0,0.000000,6,0.000000,0.000000,15.974861,0,0,0,0,0,0,0
10,109999,82,100000,41,0,49,9999,0.065000,0,0,0.000000,6,2.000000,0.000000,11.750649,0,0,0,0,0,0,0
10,109999,83,100000,24,40000,49,9999,0.100000,0,0,0.000000,6,1.000000,0.000000,15.587991,0,0,0,0,0,0,0
10,109999,84,100000,0,10000,40,9999,0.100000,0,0,0.000000,6,0.000000,0.000000,0.992199,0,0,0,0,0,0,0
10,109999,85,100000,0,0,40,9999,0.100000,0,0,0.000000,6,0.000000,0.000000,9.481103,0,0,0,0,0,0,0
10,109999,86,100000,41,0,40,9999,0.100000,0,0,0.000000,6,0.000000,0.000000,0.326737,0,0,0,0,0,0,0
10,109999,87,100000,24,40000,40,9999,0.100000,0,0,0.000000,6,0.000000,0.000000,0.153403,0,0,0,0,0,0,0
10,109999,88,100000,41,0,40,9999,0.100000,0,0,0.000000,6,0.000000,0.000000,0.122214,0,0,0,0,0,0,0
10,109999,89,100000,41,0,40,9999,0.100000,0,0,0.000000,6,0.000000,0.000000,0.439626,0,0,0,0,0,0,0
10,109999,90,100000,41,0,40,9999,0.100000,0,0,0.000000,6,0.000000,0.000000,0.757885,0,0,0,0,0,0,0
10,109999,91,100000,41,0,40,9999,0.100000,0,0,0.000000,6,0.000000,0.000000,13.262798,0,0,0,0,0,0,0
10,109999,92,100000,41,0,40,9999,0.100000,0,0,0.000000,6,0.000000,0.000000,0.523540,0,0,0,0,0,0,0
10,109999,93,100000,0,10000,49,9999,0.100000,0,0,0.000000,6,1.000000,0.000000,3.618079,0,0,0,0,0,0,0
10,109999,94,100000,0,0,40,9999,0.100000,0,0,0.000000,6,0.000000,0.000000,0.981137,0,0,0,0,0,0,0
10,109999,95,100000,24,40000,40,9999,0.100000,0,0,0.000000,6,0.000000,0.000000,0.069501,0,0,0,0,0,0,0
10,109999,96,100000,41,0,49,9999,0.100000,0,0,0.000000,6,1.000000,0.000000,8.660825,0,0,0,0,0,0,0
10,109999,97,100000,41,0,40,9999,0.100000,0,0,0.000000,6,0.000000,0.000000,7.423329,0,0,0,0,0,0,0
10,109999,98,100000,0,10000,40,9999,0.100000,0,0,0.000000,6,0.000000,0.000000,0.706732,0,0,0,0,0,0,0
10,109999,99,100000,0,0,40,9999,0.100000,0,0,0.000000,6,0.000000,0.000000,0.544233,0,0,0,0,0,0,0
11,119999,0,110000,0,0,40,9999,0.100000,0,0,0.000000,6,0.000000,0.000000,0.120641,0,0,0,0,0,0,0
11,119999,1,110000,41,0,40,9999,0.100000,0,0,0.000000,6,0.000000,0.000000,0.124794,0,0,0,0,0,0,0
11,119999,2,110000,41,0,40,9999,0.100000,0,0,0.000000,6,0.000000,0.000000,0.183886,0,0,0,0,0,0,0
11,119999,3,110000,0,0,40,9999,0.100000,0,0,0.000000,6,0.000000,0.000000,0.138071,0,0,0,0,0,0,0
11,119999,4,110000,41,0,40,9999,0.100000,0,0,0.000000,6,0.000000,0.000000,7.828727,0,0,0,0,0,0,0
11,119999,5,110000,24,50000,49,9999,0.100000,0,0,0.000000,6,1.000000,0.000000,9.208788,0,0,0,0,0,0,0
11,119999,6,110000,24,40000,40,9999,0.100000,0,0,0.000000,6,0.000000,0.000000,0.965109,0,0,0,0,0,0,0
11,119999,7,110000,0,0,40,9999,0.100000,0,0,0.000000,6,0.000000,0.000000,0.321551,0,0,0,0,0,0,0
11,119999,8,110000,41,0,40,9999,0.100000,0,0,0.000000,6,0.000000,0.000000,0.288384,0,0,0,0,0,0,0
11,119999,9,110000,41,0,40,9999,0.100000,0,0,0.000000,6,0.000000,0.000000,3.992426,0,0,0,0,0,0,0
11,119999,10,110000,24,50000,49,9999,0.100000,0,0,0.000000,6,1.000000,0.000000,24.825072,0,0,0,0,0,0,0
11,119999,11,110000,41,0,40,9999,0.100000,0,0,0.000000,6,0.000000,0.000000,11.161265,0,0,0,0,0,0,0
11,119999,12,110000,24,40000,49,9999,0.100000,0,0,0.000000,6,2.000000,0.000000,12.104568,0,0,0,0,0,0,0
11,119999,13,110000,24,50000,40,9999,0.100000,0,0,0.000000,6,0.000000,0.000000,0.569482,0,0,0,0,0,0,0
11,119999,14,110000,41,0,40,9999,0.100000,0,0,0.000000,6,0.000000,0.000000,0.530291,0,0,0,0,0,0,0
11,119999,15,110000,24,40000,40,9999,0.100000,0,0,0.000000,6,0.000000,0.000000,0.517577,0,0,0,0,0,0,0
11,119999,16,110000,41,0,40,9999,0.100000,0,0,0.000000,6,0.000000,0.000000,0.137931,0,0,0,0,0,0,0
11,119999,17,110000,41,0,40,9999,0.100000,0,0,0.000000,6,0.000000,0.000000,0.226702,0,0,0,0,0,0,0
11,119999,18,110000,0,0,49,9999,0.100000,0,0,0.000000,6,2.000000,0.000000,9.450253,0,0,0,0,0,0,0
11,119999,19,110000,0,10000,40,9999,0.100000,0,0,0.000000,6,0.000000,0.000000,0.507211,0,0,0,0,0,0,0
11,119999,20,110000,0,10000,49,9999,0.100000,0,0,0.000000,6,4.000000,0.000000,11.486931,0,0,0,0,0,0,0
11,119999,21,110000,41,0,40,9999,0.100000,0,0,0.000000,6,0.000000,0.000000,7.810542,0,0,0,0,0,0,0
11,119999,22,110000,41,0,40,9999,0.100000,0,0,0.000000,6,0.000000,0.000000,8.473164,0,0,0,0,0,0,0
11,119999,23,110000,24,50000,40,9999,0.100000,0,0,0.000000,6,0.000000,0.000000,1.273578,0,0,0,0,0,0,0
11,119999,24,110000,24,40000,40,9999,0.100000,0,0,0.000000,6,0.000000,0.000000,2.273386,0,0,0,0,0,0,0
11,119999,25,110000,41,0,40,9999,0.100000,0,0,0.000000,6,0.000000,0.000000,23.246945,0,0,0,0,0,0,0
11,119999,26,110000,0,0,40,9999,0.100000,0,0,0.000000,6,0.000000,0.000000,0.188057,0,0,0,0,0,0,0
11,119999,27,110000,24,50000,40,9999,0.100000,0,0,0.000000,6,0.000000,0.000000,0.920524,0,0,0,0,0,0,0
11,119999,28,110000,24,50000,40,9999,0.100000,0,0,0.000000,6,0.000000,0.000000,0.127464,0,0,0,0,0,0,0
11,119999,29,110000,24,40000,40,9999,0.100000,0,0,0.000000,6,0.000000,0.000000,16.054446,0,0,0,0,0,0,0
11,119999,30,110000,41,0,40,9999,0.100000,0,0,0.000000,6,0.000000,0.000000,8.607949,0,0,0,0,0,0,0
11,119999,31,110000,0,10000,40,9999,0.100000,0,0,0.000000,6,0.000000,0.000000,0.168952,0,0,0,0,0,0,0
11,119999,32,110000,24,40000,40,9999,0.100000,0,0,0.000000,6,0.000000,0.000000,0.235607,0,0,0,0,0,0,0
11,119999,33,110000,24,40000,40,9999,0.100000,0,0,0.000000,6,0.000000,0.000000,0.387476,0,0,0,0,0,0,0
11,119999,34,110000,41,0,40,9999,0.100000,0,0,0.000000,6,0.000000,0.000000,0.109483,0,0,0,0,0,0,0
11,119999,35,110000,41,0,40,9999,0.100000,0,0,0.000000,6,0.000000,0.000000,5.033524,0,0,0,0,0,0,0
11,119999,36,110000,24,50000,40,9999,0.100000,0,0,0.000000,6,0.000000,0.000000,0.115971,0,0,0,0,0,0,0
11,119999,37,110000,24,40000,40,9999,0.100000,0,0,0.000000,6,0.000000,0.000000,0.076955,0,0,0,0,0,0,0
11,119999,38,110000,41,0,40,9999,0.100000,0,0,0.000000,6,0.000000,0.000000,0.363052,0,0,0,0,0,0,0
11,119999,39,110000,24,50000,40,9999,0.135000,0,0,0.000000,6,0.000000,0.000000,0.366156,0,0,0,0,0,0,0
11,119999,40,110000,24,40000,40,9999,0.100000,0,0,0.000000,6,0.000000,0.000000,1.917235,0,0,0,0,0,0,0
11,119999,41,110000,41,0,40,9999,0.100000,0,0,0.000000,6,0.000000,0.000000,0.377307,0,0,0,0,0,0,0
11,119999,42,110000,24,40000,49,9999,0.100000,0,0,0.000000,6,1.000000,0.000000,3.671317,0,0,0,0,0,0,0
11,119999,43,110000,0,10000,40,9999,0.100000,0,0,0.000000,6,0.000000,0.000000,0.442958,0,0,0,0,0,0,0
11,119999,44,110000,24,40000,40,9999,0.100000,0,0,0.000000,6,0.000000,0.000000,6.540177,0,0,0,0,0,0,0
11,119999,45,110000,41,0,40,9999,0.100000,0,0,0.000000,6,0.000000,0.000000,0.259717,0,0,0,0,0,0,0
11,119999,46,110000,24,50000,49,9999,0.100000,0,0,0.000000,6,2.000000,0.000000,15.683350,0,0,0,0,0,0,0
11,119999,47,110000,24,40000,40,9999,0.100000,0,0,0.000000,6,0.000000,0.000000,0.312930,0,0,0,0,0,0,0
11,119999,48,110000,41,0,40,9999,0.100000,0,0,0.000000,6,0.000000,0.000000,0.379347,0,0,0,0,0,0,0
11,119999,49,110000,24,50000,49,9999,0.100000,0,0,0.000000,6,2.000000,0.000000,9.607892,0,0,0,0,0,0,0
11,119999,50,110000,0,0,40,9999,0.100000,0,0,0.000000,6,0.000000,0.000000,0.472355,0,0,0,0,0,0,0
11,119999,51,110000,0,0,40,9999,0.100000,0,0,0.000000,6,0.000000,0.000000,0.770651,0,0,0,0,0,0,0
11,119999,52,110000,24,50000,49,9999,0.100000,0,0,0.000000,6,1.000000,0.000000,7.752340,0,0,0,0,0,0,0
11,119999,53,110000,24,50000,49,9999,0.100000,0,0,0.000000,6,4.000000,0.000000,11.657916,0,0,0,0,0,0,0
11,119999,54,110000,41,0,49,9999,0.100000,0,0,0.000000,6,1.000000,0.000000,1.293588,0,0,0,0,0,0,0
11,119999,55,110000,41,0,49,9999,0.100000,0,0,0.000000,6,1.000000,0.000000,2.607729,0,0,0,0,0,0,0
11,119999,56,110000,24,50000,40,9999,0.065000,0,0,0.000000,6,0.000000,0.000000,5.538681,0,0,0,0,0,0,0
11,119999,57,110000,0,0,40,9999,0.100000,0,0,0.000000,6,0.000000,0.000000,0.273344,0,0,0,0,0,0,0
11,119999,58,110000,24,40000,40,9999,0.100000,0,0,0.000000,6,0.000000,0.000000,0.383475,0,0,0,0,0,0,0
11,119999,59,110000,0,0,40,9999,0.100000,0,0,0.000000,6,0.000000,0.000000,0.135958,0,0,0,0,0,0,0
11,119999,60,110000,41,0,40,9999,0.100000,0,0,0.000000,6,0.000000,0.000000,1.119922,0,0,0,0,0,0,0
11,119999,61,110000,0,10000,40,9999,0.100000,0,0,0.000000,6,0.000000,0.000000,0.708757,0,0,0,0,0,0,0
11,119999,62,110000,41,0,40,9999,0.100000,0,0,0.000000,6,0.000000,0.000000,0.231719,0,0,0,0,0,0,0
11,119999,63,110000,0,0,49,9999,0.100000,0,0,0.000000,6,1.000000,0.000000,4.109997,0,0,0,0,0,0,0
11,119999,64,110000,24,50000,40,9999,0.100000,0,0,0.000000,6,0.000000,0.000000,0.390631,0,0,0,0,0,0,0
11,119999,65,110000,41,0,40,9999,0.100000,0,0,0.000000,6,0.000000,0.000000,10.754408,0,0,0,0,0,0,0
11,119999,66,110000,0,10000,40,9999,0.100000,0,0,0.000000,6,0.000000,0.000000,0.221644,0,0,0,0,0,0,0
11,119999,67,110000,24,40000,49,9999,0.100000,0,0,0.000000,6,2.000000,0.000000,16.171406,0,0,0,0,0,0,0
11,119999,68,110000,0,10000,40,9999,0.100000,0,0,0.000000,6,0.000000,0.000000,0.129305,0,0,0,0,0,0,0
11,119999,69,110000,24,50000,49,9999,0.100000,0,0,0.000000,6,6.000000,0.000000,6.559862,0,0,0,0,0,0,0
11,119999,70,110000,0,10000,40,9999,0.100000,0,0,0.000000,6,0.000000,0.000000,0.167864,0,0,0,0,0,0,0
11,119999,71,110000,41,0,40,9999,0.100000,0,0,0.000000,6,0.000000,0.000000,0.475021,0,0,0,0,0,0,0
11,119999,72,110000,24,40000,49,9999,0.100000,0,0,0.000000,6,1.000000,0.000000,6.525020,0,0,0,0,0,0,0
11,119999,73,110000,41,0,49,9999,0.100000,0,0,0.000000,6,3.000000,0.000000,16.296306,0,0,0,0,0,0,0
11,119999,74,110000,24,40000,40,9999,0.100000,0,0,0.000000,6,0.000000,0.000000,0.249981,0,0,0,0,0,0,0
11,119999,75,110000,24,40000,40,9999,0.100000,0,0,0.000000,6,0.000000,0.000000,1.512282,0,0,0,0,0,0,0
11,119999,76,110000,41,0,40,9999,0.100000,0,0,0.000000,6,0.000000,0.000000,0.202358,0,0,0,0,0,0,0
11,119999,77,110000,41,0,49,9999,0.100000,0,0,0.000000,6,1.000000,0.000000,9.313190,0,0,0,0,0,0,0
11,119999,78,110000,41,0,40,9999,0.100000,0,0,0.000000,6,0.000000,0.000000,0.760656,0,0,0,0,0,0,0
11,119999,79,110000,0,0,40,9999,0.100000,0,0,0.000000,6,0.000000,0.000000,8.916292,0,0,0,0,0,0,0
11,119999,80,110000,0,10000,40,9999,0.100000,0,0,0.000000,6,0.000000,0.000000,0.105045,0,0,0,0,0,0,0
11,119999,81,110000,0,0,40,9999,0.100000,0,0,0.000000,6,0.000000,0.000000,7.260733,0,0,0,0,0,0,0
11,119999,82,110000,24,50000,40,9999,0.100000,0,0,0.000000,6,0.000000,0.000000,8.958732,0,0,0,0,0,0,0
11,119999,83,110000,24,40000,49,9999,0.100000,0,0,0.000000,6,2.000000,0.000000,9.712319,0,0,0,0,0,0,0
11,119999,84,110000,24,50000,40,9999,0.100000,0,0,0.000000,6,0.000000,0.000000,1.097866,0,0,0,0,0,0,0
11,119999,85,110000,24,50000,40,9999,0.100000,0,0,0.000000,6,0.000000,0.000000,8.702726,0,0,0,0,0,0,0
11,119999,86,110000,41,0,40,9999,0.100000,0,0,0.000000,6,0.000000,0.000000,0.644983,0,0,0,0,0,0,0
11,119999,87,110000,0,0,40,9999,0.100000,0,0,0.000000,6,0.000000,0.000000,0.134474,0,0,0,0,0,0,0
11,119999,88,110000,0,10000,40,9999,0.100000,0,0,0.000000,6,0.000000,0.000000,0.127991,0,0,0,0,0,0,0
11,119999,89,110000,0,10000,40,9999,0.100000,0,0,0.000000,6,0.000000,0.000000,0.382961,0,0,0,0,0,0,0
11,119999,90,110000,0,10000,40,9999,0.100000,0,0,0.000000,6,0.000000,0.000000,1.029170,0,0,0,0,0,0,0
11,119999,91,110000,0,0,49,9999,0.100000,0,0,0.000000,6,1.000000,0.000000,2.605619,0,0,0,0,0,0,0
11,119999,92,110000,0,0,40,9999,0.100000,0,0,0.000000,6,0.000000,0.000000,0.173521,0,0,0,0,0,0,0
11,119999,93,110000,0,0,49,9999,0.100000,0,0,0.000000,6,2.000000,0.000000,6.317263,0,0,0,0,0,0,0
11,119999,94,110000,24,50000,40,9999,0.100000,0,0,0.000000,6,0.000000,0.000000,1.003679,0,0,0,0,0,0,0
11,119999,95,110000,24,50000,40,9999,0.100000,0,0,0.000000,6,0.000000,0.000000,0.074409,0,0,0,0,0,0,0
11,119999,96,110000,0,0,49,9999,0.100000,0,0,0.000000,6,1.000000,0.000000,5.387289,0,0,0,0,0,0,0
11,119999,97,110000,24,50000,40,9999,0.100000,0,0,0.000000,6,0.000000,0.000000,7.347140,0,0,0,0,0,0,0
11,119999,98,110000,41,0,40,9999,0.100000,0,0,0.000000,6,0.000000,0.000000,0.496646,0,0,0,0,0,0,0
11,119999,99,110000,41,0,40,9999,0.065000,0,0,0.000000,6,0.000000,0.000000,0.525682,0,0,0,0,0,0,0
12,129999,0,120000,41,0,40,9999,0.100000,0,0,0.000000,6,0.000000,0.000000,0.269840,0,0,0,0,0,0,0
12,129999,1,120000,41,0,40,9999,0.100000,0,0,0.000000,6,0.000000,0.000000,0.247434,0,0,0,0,0,0,0
12,129999,2,120000,0,10000,40,9999,0.100000,0,0,0.000000,6,0.000000,0.000000,0.172069,0,0,0,0,0,0,0
12,129999,3,120000,41,0,40,9999,0.100000,0,0,0.000000,6,0.000000,0.000000,0.136832,0,0,0,0,0,0,0
12,129999,4,120000,0,10000,49,9999,0.100000,0,0,0.000000,6,3.000000,0.000000,6.941677,0,0,0,0,0,0,0
12,129999,5,120000,24,50000,40,9999,0.100000,0,0,0.000000,6,0.000000,0.000000,7.651664,0,0,0,0,0,0,0
12,129999,6,120000,0,0,40,9999,0.135000,0,0,0.000000,6,0.000000,0.000000,0.900584,0,0,0,0,0,0,0
12,129999,7,120000,24,40000,40,9999,0.100000,0,0,0.000000,6,0.000000,0.000000,0.287017,0,0,0,0,0,0,0
12,129999,8,120000,0,0,40,9999,0.100000,0,0,0.000000,6,0.000000,0.000000,1.034481,0,0,0,0,0,0,0
12,129999,9,120000,0,10000,40,9999,0.100000,0,0,0.000000,6,0.000000,0.000000,0.559122,0,0,0,0,0,0,0
12,129999,10,120000,0,10000,40,9999,0.100000,0,0,0.000000,6,0.000000,0.000000,3.987227,0,0,0,0,0,0,0
12,129999,11,120000,0,10000,40,9999,0.100000,0,0,0.000000,6,0.000000,0.000000,6.110705,0,0,0,0,0,0,0
12,129999,12,120000,41,0,49,9999,0.100000,0,0,0.000000,6,1.000000,0.000000,2.388332,0,0,0,0,0,0,0
12,129999,13,120000,0,10000,40,9999,0.100000,0,0,0.000000,6,0.000000,0.000000,0.268323,0,0,0,0,0,0,0
12,129999,14,120000,0,10000,49,9999,0.100000,0,0,0.000000,6,1.000000,0.000000,1.503050,0,0,0,0,0,0,0
12,129999,15,120000,24,40000,40,9999,0.100000,0,0,0.000000,6,0.000000,0.000000,0.510415,0,0,0,0,0,0,0
12,129999,16,120000,41,0,40,9999,0.100000,0,0,0.000000,6,0.000000,0.000000,0.134217,0,0,0,0,0,0,0
12,129999,17,120000,41,0,40,9999,0.100000,0,0,0.000000,6,0.000000,0.000000,0.239765,0,0,0,0,0,0,0
12,129999,18,120000,0,10000,40,9999,0.100000,0,0,0.000000,6,0.000000,0.000000,8.678073,0,0,0,0,0,0,0
12,129999,19,120000,41,0,40,9999,0.100000,0,0,0.000000,6,0.000000,0.000000,0.652373,0,0,0,0,0,0,0
12,129999,20,120000,0,10000,49,9999,0.100000,0,0,0.000000,6,3.000000,0.000000,17.514134,0,0,0,0,0,0,0
12,129999,21,120000,24,50000,40,9999,0.100000,0,0,0.000000,6,0.000000,0.000000,7.443514,0,0,0,0,0,0,0
12,129999,22,120000,41,0,40,9999,0.100000,0,0,0.000000,6,0.000000,0.000000,8.238069,0,0,0,0,0,0,0
12,129999,23,120000,41,0,40,9999,0.100000,0,0,0.000000,6,0.000000,0.000000,1.013848,0,0,0,0,0,0,0
12,129999,24,120000,41,0,40,9999,0.100000,0,0,0.000000,6,0.000000,0.000000,0.532560,0,0,0,0,0,0,0
12,129999,25,120000,41,0,40,9999,0.100000,0,0,0.000000,6,0.000000,0.000000,24.471469,0,0,0,0,0,0,0
12,129999,26,120000,24,40000,40,9999,0.100000,0,0,0.000000,6,0.000000,0.000000,0.877503,0,0,0,0,0,0,0
12,129999,27,120000,24,40000,40,9999,0.100000,0,0,0.000000,6,0.000000,0.000000,0.511233,0,0,0,0,0,0,0
12,129999,28,120000,24,50000,40,9999,0.100000,0,0,0.000000,6,0.000000,0.000000,0.126520,0,0,0,0,0,0,0
12,129999,29,120000,0,10000,40,9999,0.100000,0,0,0.000000,6,0.000000,0.000000,3.202023,0,0,0,0,0,0,0
12,129999,30,120000,41,0,49,9999,0.100000,0,0,0.000000,6,1.000000,0.000000,7.645167,0,0,0,0,0,0,0
12,129999,31,120000,0,10000,40,9999,0.100000,0,0,0.000000,6,0.000000,0.000000,0.144586,0,0,0,0,0,0,0
12,129999,32,120000,24,50000,40,9999,0.100000,0,0,0.000000,6,0.000000,0.000000,0.233862,0,0,0,0,0,0,0
12,129999,33,120000,41,0,40,9999,0.100000,0,0,0.000000,6,0.000000,0.000000,0.662174,0,0,0,0,0,0,0
12,129999,34,120000,41,0,40,9999,0.100000,0,0,0.000000,6,0.000000,0.000000,0.135122,0,0,0,0,0,0,0
12,129999,35,120000,0,0,40,9999,0.100000,0,0,0.000000,6,0.000000,0.000000,5.481889,0,0,0,0,0,0,0
12,129999,36,120000,24,50000,40,9999,0.100000,0,0,0.000000,6,0.000000,0.000000,0.115149,0,0,0,0,0,0,0
12,129999,37,120000,0,10000,40,9999,0.100000,0,0,0.000000,6,0.000000,0.000000,0.305533,0,0,0,0,0,0,0
12,129999,38,120000,41,0,40,9999,0.100000,0,0,0.000000,6,0.000000,0.000000,0.434957,0,0,0,0,0,0,0
12,129999,39,120000,24,40000,40,9999,0.100000,0,0,0.000000,6,0.000000,0.000000,0.338397,0,0,0,0,0,0,0
