generation,iteration,robot,birthday,ancestor_id,ancestor_birthday,cell_id,age,sigma,maps,genomes,fitness,cells_in_map,dist_max,dist_pot_max,dist_total,com_rx,com_tx,obj_group1,obj_group2,obj_group3,obj_group4,obj_group5
0,9999,0,0,0,0,49,9999,0.100000,0,0,0.000000,0,8.000000,0.000000,15.561256,0,0,0,0,0,0,0
0,9999,1,0,1,0,49,9999,0.100000,0,0,0.000000,0,5.000000,0.000000,13.622426,0,0,0,0,0,0,0
0,9999,2,0,2,0,49,9999,0.100000,0,0,0.000000,0,6.000000,0.000000,9.050256,0,0,0,0,0,0,0
0,9999,3,0,3,0,49,9999,0.100000,0,0,0.000000,0,11.000000,0.000000,14.841283,0,0,0,0,0,0,0
0,9999,4,0,4,0,49,9999,0.100000,0,0,0.000000,0,10.000000,0.000000,12.338229,0,0,0,0,0,0,0
0,9999,5,0,5,0,49,9999,0.100000,0,0,0.000000,0,7.000000,0.000000,13.153981,0,0,0,0,0,0,0
0,9999,6,0,6,0,49,9999,0.100000,0,0,0.000000,0,7.000000,0.000000,9.264101,0,0,0,0,0,0,0
0,9999,7,0,7,0,49,9999,0.100000,0,0,0.000000,0,3.000000,0.000000,6.715812,0,0,0,0,0,0,0
0,9999,8,0,8,0,49,9999,0.100000,0,0,0.000000,0,6.000000,0.000000,5.257504,0,0,0,0,0,0,0
0,9999,9,0,9,0,49,9999,0.100000,0,0,0.000000,0,4.000000,0.000000,5.667500,0,0,0,0,0,0,0
0,9999,10,0,10,0,49,9999,0.100000,0,0,0.000000,0,9.000000,0.000000,23.780064,0,0,0,0,0,0,0
0,9999,11,0,11,0,49,9999,0.100000,0,0,0.000000,0,6.000000,0.000000,11.549704,0,0,0,0,0,0,0
0,9999,12,0,12,0,99,9999,0.100000,0,0,47.368421,0,12.000000,0.000000,29.820790,0,0,1,0,0,0,0
0,9999,13,0,13,0,49,9999,0.100000,0,0,0.000000,0,4.000000,0.000000,5.981954,0,0,0,0,0,0,0
0,9999,14,0,14,0,49,9999,0.100000,0,0,0.000000,0,4.000000,0.000000,7.107362,0,0,0,0,0,0,0
0,9999,15,0,15,0,49,9999,0.100000,0,0,0.000000,0,10.000000,0.000000,19.968354,0,0,0,0,0,0,0
0,9999,16,0,16,0,49,9999,0.100000,0,0,0.000000,0,12.000000,0.000000,14.429589,0,0,0,0,0,0,0
0,9999,17,0,17,0,49,9999,0.100000,0,0,0.000000,0,8.000000,0.000000,9.304029,0,0,0,0,0,0,0
0,9999,18,0,18,0,49,9999,0.100000,0,0,0.000000,0,7.000000,0.000000,17.049529,0,0,0,0,0,0,0
0,9999,19,0,19,0,49,9999,0.100000,0,0,0.000000,0,9.000000,0.000000,15.366601,0,0,0,0,0,0,0
0,9999,20,0,20,0,49,9999,0.100000,0,0,0.000000,0,7.000000,0.000000,10.268615,0,0,0,0,0,0,0
0,9999,21,0,21,0,49,9999,0.100000,0,0,0.000000,0,2.000000,0.000000,9.448021,0,0,0,0,0,0,0
0,9999,22,0,22,0,49,9999,0.100000,0,0,0.000000,0,10.000000,0.000000,12.415382,0,0,0,0,0,0,0
0,9999,23,0,23,0,49,9999,0.100000,0,0,0.000000,0,3.000000,0.000000,8.275857,0,0,0,0,0,0,0
0,9999,24,0,24,0,49,9999,0.100000,0,0,0.000000,0,4.000000,0.000000,9.119738,0,0,0,0,0,0,0
0,9999,25,0,25,0,49,9999,0.100000,0,0,0.000000,0,13.000000,0.000000,27.391529,0,0,0,0,0,0,0
0,9999,26,0,26,0,49,9999,0.100000,0,0,0.000000,0,9.000000,0.000000,11.002324,0,0,0,0,0,0,0
0,9999,27,0,27,0,49,9999,0.100000,0,0,0.000000,0,12.000000,0.000000,21.509327,0,0,0,0,0,0,0
0,9999,28,0,28,0,49,9999,0.100000,0,0,0.000000,0,9.000000,0.000000,11.328689,0,0,0,0,0,0,0
0,9999,29,0,29,0,49,9999,0.100000,0,0,0.000000,0,6.000000,0.000000,12.338201,0,0,0,0,0,0,0
0,9999,30,0,30,0,49,9999,0.100000,0,0,0.000000,0,8.000000,0.000000,21.477155,0,0,0,0,0,0,0
0,9999,31,0,31,0,99,9999,0.100000,0,0,47.368421,0,9.000000,0.000000,28.586687,0,0,1,0,0,0,0
0,9999,32,0,32,0,49,9999,0.100000,0,0,0.000000,0,4.000000,0.000000,15.839664,0,0,0,0,0,0,0
0,9999,33,0,33,0,49,9999,0.100000,0,0,0.000000,0,10.000000,0.000000,23.554279,0,0,0,0,0,0,0
0,9999,34,0,34,0,49,9999,0.100000,0,0,0.000000,0,8.000000,0.000000,18.622097,0,0,0,0,0,0,0
0,9999,35,0,35,0,49,9999,0.100000,0,0,0.000000,0,1.000000,0.000000,1.762200,0,0,0,0,0,0,0
0,9999,36,0,36,0,49,9999,0.100000,0,0,0.000000,0,7.000000,0.000000,8.287123,0,0,0,0,0,0,0
0,9999,37,0,37,0,49,9999,0.100000,0,0,0.000000,0,5.000000,0.000000,12.957034,0,0,0,0,0,0,0
0,9999,38,0,38,0,49,9999,0.100000,0,0,0.000000,0,8.000000,0.000000,15.800554,0,0,0,0,0,0,0
0,9999,39,0,39,0,49,9999,0.100000,0,0,0.000000,0,5.000000,0.000000,11.207587,0,0,0,0,0,0,0
0,9999,40,0,40,0,49,9999,0.100000,0,0,0.000000,0,3.000000,0.000000,11.632248,0,0,0,0,0,0,0
0,9999,41,0,41,0,49,9999,0.100000,0,0,0.000000,0,8.000000,0.000000,12.781175,0,0,0,0,0,0,0
0,9999,42,0,42,0,49,9999,0.100000,0,0,0.000000,0,5.000000,0.000000,16.497154,0,0,0,0,0,0,0
0,9999,43,0,43,0,49,9999,0.100000,0,0,0.000000,0,9.000000,0.000000,13.124696,0,0,0,0,0,0,0
0,9999,44,0,44,0,49,9999,0.100000,0,0,0.000000,0,6.000000,0.000000,13.485645,0,0,0,0,0,0,0
0,9999,45,0,45,0,49,9999,0.100000,0,0,0.000000,0,9.000000,0.000000,28.924247,0,0,0,0,0,0,0
0,9999,46,0,46,0,49,9999,0.100000,0,0,0.000000,0,8.000000,0.000000,12.364086,0,0,0,0,0,0,0
0,9999,47,0,47,0,49,9999,0.100000,0,0,0.000000,0,9.000000,0.000000,11.942558,0,0,0,0,0,0,0
0,9999,48,0,48,0,49,9999,0.100000,0,0,0.000000,0,2.000000,0.000000,11.180678,0,0,0,0,0,0,0
0,9999,49,0,49,0,49,9999,0.100000,0,0,0.000000,0,11.000000,0.000000,19.074202,0,0,0,0,0,0,0
0,9999,50,0,50,0,49,9999,0.100000,0,0,0.000000,0,12.000000,0.000000,26.198582,0,0,0,0,0,0,0
0,9999,51,0,51,0,99,9999,0.100000,0,0,47.368421,0,9.000000,0.000000,18.516493,0,0,1,0,0,0,0
0,9999,52,0,52,0,49,9999,0.100000,0,0,0.000000,0,9.000000,0.000000,11.425911,0,0,0,0,0,0,0
0,9999,53,0,53,0,49,9999,0.100000,0,0,0.000000,0,9.000000,0.000000,11.265551,0,0,0,0,0,0,0
0,9999,54,0,54,0,49,9999,0.100000,0,0,0.000000,0,5.000000,0.000000,10.837303,0,0,0,0,0,0,0
0,9999,55,0,55,0,49,9999,0.100000,0,0,0.000000,0,6.000000,0.000000,6.699339,0,0,0,0,0,0,0
0,9999,56,0,56,0,49,9999,0.100000,0,0,0.000000,0,10.000000,0.000000,12.576323,0,0,0,0,0,0,0
0,9999,57,0,57,0,49,9999,0.100000,0,0,0.000000,0,4.000000,0.000000,20.293658,0,0,0,0,0,0,0
0,9999,58,0,58,0,49,9999,0.100000,0,0,0.000000,0,8.000000,0.000000,16.593664,0,0,0,0,0,0,0
0,9999,59,0,59,0,49,9999,0.100000,0,0,0.000000,0,1.000000,0.000000,5.568993,0,0,0,0,0,0,0
0,9999,60,0,60,0,49,9999,0.100000,0,0,0.000000,0,6.000000,0.000000,11.604938,0,0,0,0,0,0,0
0,9999,61,0,61,0,49,9999,0.100000,0,0,0.000000,0,2.000000,0.000000,2.697517,0,0,0,0,0,0,0
0,9999,62,0,62,0,49,9999,0.100000,0,0,0.000000,0,5.000000,0.000000,6.884129,0,0,0,0,0,0,0
0,9999,63,0,63,0,49,9999,0.100000,0,0,0.000000,0,3.000000,0.000000,10.836934,0,0,0,0,0,0,0
0,9999,64,0,64,0,49,9999,0.100000,0,0,0.000000,0,3.000000,0.000000,9.572810,0,0,0,0,0,0,0
0,9999,65,0,65,0,49,9999,0.100000,0,0,0.000000,0,9.000000,0.000000,17.087050,0,0,0,0,0,0,0
0,9999,66,0,66,0,49,9999,0.100000,0,0,0.000000,0,8.000000,0.000000,19.909484,0,0,0,0,0,0,0
0,9999,67,0,67,0,49,9999,0.100000,0,0,0.000000,0,7.000000,0.000000,9.644297,0,0,0,0,0,0,0
0,9999,68,0,68,0,49,9999,0.100000,0,0,0.000000,0,11.000000,0.000000,20.259962,0,0,0,0,0,0,0
0,9999,69,0,69,0,49,9999,0.100000,0,0,0.000000,0,3.000000,0.000000,5.686244,0,0,0,0,0,0,0
0,9999,70,0,70,0,49,9999,0.100000,0,0,0.000000,0,4.000000,0.000000,9.722969,0,0,0,0,0,0,0
0,9999,71,0,71,0,49,9999,0.100000,0,0,0.000000,0,8.000000,0.000000,9.743599,0,0,0,0,0,0,0
0,9999,72,0,72,0,49,9999,0.100000,0,0,0.000000,0,5.000000,0.000000,6.136316,0,0,0,0,0,0,0
0,9999,73,0,73,0,49,9999,0.100000,0,0,0.000000,0,4.000000,0.000000,14.541863,0,0,0,0,0,0,0
0,9999,74,0,74,0,49,9999,0.100000,0,0,0.000000,0,9.000000,0.000000,29.391514,0,0,0,0,0,0,0
0,9999,75,0,75,0,49,9999,0.100000,0,0,0.000000,0,7.000000,0.000000,14.774586,0,0,0,0,0,0,0
0,9999,76,0,76,0,49,9999,0.100000,0,0,0.000000,0,6.000000,0.000000,7.321306,0,0,0,0,0,0,0
0,9999,77,0,77,0,49,9999,0.100000,0,0,0.000000,0,6.000000,0.000000,8.238347,0,0,0,0,0,0,0
0,9999,78,0,78,0,49,9999,0.100000,0,0,0.000000,0,3.000000,0.000000,9.796581,0,0,0,0,0,0,0
0,9999,79,0,79,0,49,9999,0.100000,0,0,0.000000,0,8.000000,0.000000,16.378510,0,0,0,0,0,0,0
0,9999,80,0,80,0,49,9999,0.100000,0,0,0.000000,0,9.000000,0.000000,14.369300,0,0,0,0,0,0,0
0,9999,81,0,81,0,49,9999,0.100000,0,0,0.000000,0,6.000000,0.000000,15.009887,0,0,0,0,0,0,0
0,9999,82,0,82,0,49,9999,0.100000,0,0,0.000000,0,1.000000,0.000000,15.585535,0,0,0,0,0,0,0
0,9999,83,0,83,0,49,9999,0.100000,0,0,0.000000,0,6.000000,0.000000,11.397114,0,0,0,0,0,0,0
0,9999,84,0,84,0,49,9999,0.100000,0,0,0.000000,0,2.000000,0.000000,7.914618,0,0,0,0,0,0,0
0,9999,85,0,85,0,49,9999,0.100000,0,0,0.000000,0,8.000000,0.000000,22.810584,0,0,0,0,0,0,0
0,9999,86,0,86,0,99,9999,0.100000,0,0,47.368421,0,10.000000,0.000000,25.399442,0,0,1,0,0,0,0
0,9999,87,0,87,0,49,9999,0.100000,0,0,0.000000,0,10.000000,0.000000,11.960042,0,0,0,0,0,0,0
0,9999,88,0,88,0,49,9999,0.100000,0,0,0.000000,0,9.000000,0.000000,14.837547,0,0,0,0,0,0,0
0,9999,89,0,89,0,49,9999,0.100000,0,0,0.000000,0,8.000000,0.000000,13.256863,0,0,0,0,0,0,0
0,9999,90,0,90,0,49,9999,0.100000,0,0,0.000000,0,7.000000,0.000000,11.449878,0,0,0,0,0,0,0
0,9999,91,0,91,0,49,9999,0.100000,0,0,0.000000,0,6.000000,0.000000,17.298756,0,0,0,0,0,0,0
0,9999,92,0,92,0,49,9999,0.100000,0,0,0.000000,0,8.000000,0.000000,12.820640,0,0,0,0,0,0,0
0,9999,93,0,93,0,49,9999,0.100000,0,0,0.000000,0,5.000000,0.000000,14.963950,0,0,0,0,0,0,0
0,9999,94,0,94,0,49,9999,0.100000,0,0,0.000000,0,7.000000,0.000000,15.298818,0,0,0,0,0,0,0
0,9999,95,0,95,0,49,9999,0.100000,0,0,0.000000,0,3.000000,0.000000,7.807176,0,0,0,0,0,0,0
0,9999,96,0,96,0,49,9999,0.100000,0,0,0.000000,0,5.000000,0.000000,18.919059,0,0,0,0,0,0,0
0,9999,97,0,97,0,49,9999,0.100000,0,0,0.000000,0,13.000000,0.000000,23.408308,0,0,0,0,0,0,0
0,9999,98,0,98,0,49,9999,0.100000,0,0,0.000000,0,8.000000,0.000000,14.229016,0,0,0,0,0,0,0
0,9999,99,0,99,0,49,9999,0.100000,0,0,0.000000,0,1.000000,0.000000,7.435736,0,0,0,0,0,0,0
1,19999,0,0,0,0,49,19999,0.100000,0,0,0.000000,1,1.000000,0.000000,4.799400,0,0,0,0,0,0,0
1,19999,1,10000,1,0,40,9999,0.100000,0,0,0.000000,2,0.000000,0.000000,1.634761,0,0,0,0,0,0,0
1,19999,2,10000,12,0,40,9999,0.100000,0,0,0.000000,3,0.000000,0.000000,0.462241,0,0,0,0,0,0,0
1,19999,3,10000,3,0,40,9999,0.100000,0,0,0.000000,3,0.000000,0.000000,0.140415,0,0,0,0,0,0,0
1,19999,4,10000,1,0,49,9999,0.100000,0,0,0.000000,3,1.000000,0.000000,5.440752,0,0,0,0,0,0,0
1,19999,5,10000,0,0,40,9999,0.100000,0,0,0.000000,2,0.000000,0.000000,12.996982,0,0,0,0,0,0,0
1,19999,6,0,6,0,40,19999,0.100000,0,0,0.000000,2,0.000000,0.000000,0.474944,0,0,0,0,0,0,0
1,19999,7,10000,1,0,40,9999,0.100000,0,0,0.000000,3,0.000000,0.000000,0.762760,0,0,0,0,0,0,0
1,19999,8,10000,3,0,40,9999,0.100000,0,0,0.000000,3,0.000000,0.000000,0.853198,0,0,0,0,0,0,0
1,19999,9,0,9,0,40,19999,0.100000,0,0,0.000000,3,0.000000,0.000000,0.069038,0,0,0,0,0,0,0
1,19999,10,10000,1,0,40,9999,0.100000,0,0,0.000000,3,0.000000,0.000000,0.209009,0,0,0,0,0,0,0
1,19999,11,10000,3,0,49,9999,0.100000,0,0,0.000000,3,1.000000,0.000000,4.018063,0,0,0,0,0,0,0
1,19999,12,10000,12,0,99,9999,0.100000,0,0,34.210526,3,3.000000,0.000000,17.332499,0,0,1,0,0,0,0
1,19999,13,10000,1,0,40,9999,0.100000,0,0,0.000000,3,0.000000,0.000000,1.068078,0,0,0,0,0,0,0
1,19999,14,10000,1,0,40,9999,0.100000,0,0,0.000000,3,0.000000,0.000000,0.128976,0,0,0,0,0,0,0
1,19999,15,10000,1,0,49,9999,0.100000,0,0,0.000000,3,1.000000,0.000000,6.053365,0,0,0,0,0,0,0
1,19999,16,10000,3,0,40,9999,0.100000,0,0,0.000000,3,0.000000,0.000000,0.292436,0,0,0,0,0,0,0
1,19999,17,10000,3,0,40,9999,0.100000,0,0,0.000000,3,0.000000,0.000000,0.085397,0,0,0,0,0,0,0
1,19999,18,10000,3,0,49,9999,0.100000,0,0,0.000000,3,1.000000,0.000000,2.763613,0,0,0,0,0,0,0
1,19999,19,10000,3,0,40,9999,0.100000,0,0,0.000000,3,0.000000,0.000000,1.123236,0,0,0,0,0,0,0
1,19999,20,10000,12,0,49,9999,0.100000,0,0,0.000000,3,1.000000,0.000000,1.956689,0,0,0,0,0,0,0
1,19999,21,10000,12,0,40,9999,0.100000,0,0,0.000000,3,0.000000,0.000000,4.697307,0,0,0,0,0,0,0
1,19999,22,10000,12,0,49,9999,0.100000,0,0,0.000000,3,1.000000,0.000000,3.280905,0,0,0,0,0,0,0
1,19999,23,10000,0,0,40,9999,0.100000,0,0,0.000000,1,0.000000,0.000000,0.522707,0,0,0,0,0,0,0
1,19999,24,10000,3,0,40,9999,0.100000,0,0,0.000000,3,0.000000,0.000000,2.285341,0,0,0,0,0,0,0
1,19999,25,10000,12,0,49,9999,0.100000,0,0,0.000000,3,2.000000,0.000000,13.340782,0,0,0,0,0,0,0
1,19999,26,10000,1,0,49,9999,0.100000,0,0,0.000000,3,1.000000,0.000000,3.543442,0,0,0,0,0,0,0
1,19999,27,10000,1,0,49,9999,0.100000,0,0,0.000000,2,3.000000,0.000000,6.610483,0,0,0,0,0,0,0
1,19999,28,10000,12,0,49,9999,0.100000,0,0,0.000000,3,2.000000,0.000000,13.129508,0,0,0,0,0,0,0
1,19999,29,10000,3,0,49,9999,0.100000,0,0,0.000000,3,3.000000,0.000000,7.252161,0,0,0,0,0,0,0
1,19999,30,10000,1,0,49,9999,0.100000,0,0,0.000000,3,1.000000,0.000000,5.403910,0,0,0,0,0,0,0
1,19999,31,10000,3,0,9,9999,0.100000,0,0,34.210526,3,2.000000,0.000000,8.550793,0,0,0,1,0,0,0
1,19999,32,10000,1,0,49,9999,0.100000,0,0,0.000000,3,1.000000,0.000000,5.375646,0,0,0,0,0,0,0
1,19999,33,10000,1,0,49,9999,0.100000,0,0,0.000000,3,2.000000,0.000000,9.233791,0,0,0,0,0,0,0
1,19999,34,10000,1,0,40,9999,0.100000,0,0,0.000000,3,0.000000,0.000000,3.807650,0,0,0,0,0,0,0
1,19999,35,10000,3,0,40,9999,0.100000,0,0,0.000000,3,0.000000,0.000000,0.098240,0,0,0,0,0,0,0
1,19999,36,10000,1,0,40,9999,0.100000,0,0,0.000000,3,0.000000,0.000000,0.486582,0,0,0,0,0,0,0
1,19999,37,10000,0,0,40,9999,0.100000,0,0,0.000000,2,0.000000,0.000000,0.130748,0,0,0,0,0,0,0
1,19999,38,10000,1,0,40,9999,0.100000,0,0,0.000000,3,0.000000,0.000000,6.803475,0,0,0,0,0,0,0
1,19999,39,10000,1,0,40,9999,0.100000,0,0,0.000000,3,0.000000,0.000000,1.161386,0,0,0,0,0,0,0
1,19999,40,10000,0,0,49,9999,0.100000,0,0,0.000000,2,3.000000,0.000000,7.522448,0,0,0,0,0,0,0
1,19999,41,10000,10,0,40,9999,0.100000,0,0,0.000000,3,0.000000,0.000000,0.905614,0,0,0,0,0,0,0
1,19999,42,10000,12,0,99,9999,0.100000,0,0,34.210526,3,14.000000,0.000000,20.028922,0,0,1,0,0,0,0
1,19999,43,0,43,0,49,19999,0.100000,0,0,0.000000,2,2.000000,0.000000,4.597958,0,0,0,0,0,0,0
1,19999,44,10000,1,0,49,9999,0.100000,0,0,0.000000,3,1.000000,0.000000,6.982656,0,0,0,0,0,0,0
1,19999,45,10000,1,0,49,9999,0.100000,0,0,0.000000,3,4.000000,0.000000,4.688871,0,0,0,0,0,0,0
1,19999,46,10000,10,0,49,9999,0.100000,0,0,0.000000,3,1.000000,0.000000,2.403114,0,0,0,0,0,0,0
1,19999,47,0,47,0,40,19999,0.100000,0,0,0.000000,3,0.000000,0.000000,0.304710,0,0,0,0,0,0,0
1,19999,48,10000,1,0,40,9999,0.100000,0,0,0.000000,3,0.000000,0.000000,4.810173,0,0,0,0,0,0,0
1,19999,49,10000,3,0,49,9999,0.100000,0,0,0.000000,3,4.000000,0.000000,4.838703,0,0,0,0,0,0,0
1,19999,50,10000,12,0,40,9999,0.100000,0,0,0.000000,3,0.000000,0.000000,0.120841,0,0,0,0,0,0,0
1,19999,51,10000,1,0,40,9999,0.100000,0,0,0.000000,3,0.000000,0.000000,5.634445,0,0,0,0,0,0,0
1,19999,52,10000,12,0,40,9999,0.100000,0,0,0.000000,3,0.000000,0.000000,0.234519,0,0,0,0,0,0,0
1,19999,53,10000,3,0,40,9999,0.100000,0,0,0.000000,3,0.000000,0.000000,0.450079,0,0,0,0,0,0,0
1,19999,54,10000,12,0,40,9999,0.100000,0,0,0.000000,3,0.000000,0.000000,1.359505,0,0,0,0,0,0,0
1,19999,55,10000,3,0,40,9999,0.100000,0,0,0.000000,3,0.000000,0.000000,0.131167,0,0,0,0,0,0,0
1,19999,56,10000,1,0,40,9999,0.100000,0,0,0.000000,3,0.000000,0.000000,0.343314,0,0,0,0,0,0,0
1,19999,57,10000,1,0,49,9999,0.100000,0,0,0.000000,3,1.000000,0.000000,10.329629,0,0,0,0,0,0,0
1,19999,58,0,58,0,40,19999,0.100000,0,0,0.000000,3,0.000000,0.000000,8.173029,0,0,0,0,0,0,0
1,19999,59,10000,12,0,40,9999,0.100000,0,0,0.000000,3,0.000000,0.000000,0.149519,0,0,0,0,0,0,0
1,19999,60,10000,1,0,40,9999,0.100000,0,0,0.000000,3,0.000000,0.000000,4.793133,0,0,0,0,0,0,0
1,19999,61,10000,0,0,40,9999,0.100000,0,0,0.000000,2,0.000000,0.000000,0.224669,0,0,0,0,0,0,0
1,19999,62,10000,12,0,40,9999,0.100000,0,0,0.000000,3,0.000000,0.000000,2.164626,0,0,0,0,0,0,0
1,19999,63,10000,12,0,49,9999,0.100000,0,0,0.000000,3,2.000000,0.000000,5.847894,0,0,0,0,0,0,0
1,19999,64,10000,12,0,40,9999,0.100000,0,0,0.000000,3,0.000000,0.000000,0.213755,0,0,0,0,0,0,0
1,19999,65,10000,3,0,40,9999,0.100000,0,0,0.000000,3,0.000000,0.000000,0.514632,0,0,0,0,0,0,0
1,19999,66,10000,12,0,49,9999,0.100000,0,0,0.000000,3,2.000000,0.000000,11.520059,0,0,0,0,0,0,0
1,19999,67,10000,1,0,40,9999,0.100000,0,0,0.000000,3,0.000000,0.000000,0.604866,0,0,0,0,0,0,0
1,19999,68,10000,3,0,40,9999,0.100000,0,0,0.000000,3,0.000000,0.000000,0.710309,0,0,0,0,0,0,0
1,19999,69,10000,1,0,40,9999,0.100000,0,0,0.000000,3,0.000000,0.000000,0.168893,0,0,0,0,0,0,0
1,19999,70,10000,3,0,49,9999,0.100000,0,0,0.000000,3,3.000000,0.000000,11.102441,0,0,0,0,0,0,0
1,19999,71,10000,12,0,9,9999,0.100000,0,0,34.210526,3,1.000000,0.000000,7.247000,0,0,0,1,0,0,0
1,19999,72,10000,1,0,40,9999,0.100000,0,0,0.000000,3,0.000000,0.000000,1.177999,0,0,0,0,0,0,0
1,19999,73,10000,12,0,40,9999,0.100000,0,0,0.000000,3,0.000000,0.000000,3.888039,0,0,0,0,0,0,0
1,19999,74,10000,3,0,49,9999,0.100000,0,0,0.000000,3,2.000000,0.000000,4.099315,0,0,0,0,0,0,0
1,19999,75,10000,1,0,49,9999,0.100000,0,0,0.000000,3,7.000000,0.000000,12.354382,0,0,0,0,0,0,0
1,19999,76,10000,12,0,40,9999,0.100000,0,0,0.000000,3,0.000000,0.000000,1.121924,0,0,0,0,0,0,0
1,19999,77,10000,12,0,40,9999,0.100000,0,0,0.000000,3,0.000000,0.000000,1.048909,0,0,0,0,0,0,0
1,19999,78,10000,1,0,40,9999,0.100000,0,0,0.000000,3,0.000000,0.000000,0.602276,0,0,0,0,0,0,0
1,19999,79,10000,1,0,40,9999,0.100000,0,0,0.000000,3,0.000000,0.000000,0.713945,0,0,0,0,0,0,0
1,19999,80,10000,1,0,49,9999,0.100000,0,0,0.000000,3,3.000000,0.000000,6.217991,0,0,0,0,0,0,0
1,19999,81,0,81,0,49,19999,0.100000,0,0,0.000000,3,1.000000,0.000000,6.306252,0,0,0,0,0,0,0
1,19999,82,0,82,0,40,19999,0.100000,0,0,0.000000,3,0.000000,0.000000,13.408821,0,0,0,0,0,0,0
1,19999,83,10000,3,0,40,9999,0.100000,0,0,0.000000,3,0.000000,0.000000,2.907549,0,0,0,0,0,0,0
1,19999,84,10000,3,0,40,9999,0.100000,0,0,0.000000,3,0.000000,0.000000,0.091134,0,0,0,0,0,0,0
1,19999,85,10000,12,0,40,9999,0.100000,0,0,0.000000,3,0.000000,0.000000,3.749352,0,0,0,0,0,0,0
1,19999,86,10000,12,0,49,9999,0.100000,0,0,0.000000,3,2.000000,0.000000,8.850602,0,0,0,0,0,0,0
1,19999,87,10000,1,0,40,9999,0.100000,0,0,0.000000,3,0.000000,0.000000,0.943961,0,0,0,0,0,0,0
1,19999,88,10000,3,0,40,9999,0.100000,0,0,0.000000,3,0.000000,0.000000,0.840761,0,0,0,0,0,0,0
1,19999,89,10000,3,0,40,9999,0.100000,0,0,0.000000,3,0.000000,0.000000,0.100188,0,0,0,0,0,0,0
1,19999,90,10000,10,0,9,9999,0.100000,0,0,0.000000,3,1.000000,0.000000,1.445610,0,0,0,0,0,0,1
1,19999,91,10000,12,0,49,9999,0.100000,0,0,0.000000,3,3.000000,0.000000,6.081744,0,0,0,0,0,0,0
1,19999,92,10000,10,0,40,9999,0.100000,0,0,0.000000,3,0.000000,0.000000,1.504533,0,0,0,0,0,0,0
1,19999,93,10000,12,0,49,9999,0.100000,0,0,0.000000,3,2.000000,0.000000,6.754101,0,0,0,0,0,0,0
1,19999,94,10000,12,0,49,9999,0.100000,0,0,0.000000,3,1.000000,0.000000,2.909699,0,0,0,0,0,0,0
1,19999,95,10000,3,0,40,9999,0.100000,0,0,0.000000,3,0.000000,0.000000,0.545768,0,0,0,0,0,0,0
1,19999,96,10000,12,0,40,9999,0.100000,0,0,0.000000,3,0.000000,0.000000,0.844134,0,0,0,0,0,0,0
1,19999,97,10000,1,0,40,9999,0.100000,0,0,0.000000,2,0.000000,0.000000,1.715833,0,0,0,0,0,0,0
1,19999,98,10000,3,0,40,9999,0.100000,0,0,0.000000,3,0.000000,0.000000,0.965256,0,0,0,0,0,0,0
1,19999,99,10000,3,0,40,9999,0.100000,0,0,0.000000,3,0.000000,0.000000,0.101701,0,0,0,0,0,0,0
2,29999,0,20000,3,0,49,9999,0.100000,0,0,0.000000,3,1.000000,0.000000,2.620337,0,0,0,0,0,0,0
2,29999,1,20000,1,10000,40,9999,0.100000,0,0,0.000000,5,0.000000,0.000000,2.332991,0,0,0,0,0,0,0
2,29999,2,20000,1,10000,40,9999,0.100000,0,0,0.000000,5,0.000000,0.000000,0.246858,0,0,0,0,0,0,0
2,29999,3,20000,56,10000,40,9999,0.100000,0,0,0.000000,5,0.000000,0.000000,0.163396,0,0,0,0,0,0,0
2,29999,4,20000,3,0,40,9999,0.100000,0,0,0.000000,5,0.000000,0.000000,1.523132,0,0,0,0,0,0,0
2,29999,5,20000,0,0,40,9999,0.100000,0,0,0.000000,5,0.000000,0.000000,1.962490,0,0,0,0,0,0,0
2,29999,6,20000,56,10000,40,9999,0.100000,0,0,0.000000,5,0.000000,0.000000,0.337685,0,0,0,0,0,0,0
2,29999,7,20000,12,0,40,9999,0.100000,0,0,0.000000,5,0.000000,0.000000,0.129915,0,0,0,0,0,0,0
2,29999,8,20000,1,10000,40,9999,0.100000,0,0,0.000000,5,0.000000,0.000000,0.442463,0,0,0,0,0,0,0
2,29999,9,20000,12,0,40,9999,0.100000,0,0,0.000000,5,0.000000,0.000000,0.070805,0,0,0,0,0,0,0
2,29999,10,20000,56,10000,40,9999,0.100000,0,0,0.000000,5,0.000000,0.000000,0.319330,0,0,0,0,0,0,0
2,29999,11,20000,0,0,40,9999,0.100000,0,0,0.000000,5,0.000000,0.000000,1.218670,0,0,0,0,0,0,0
2,29999,12,20000,52,10000,49,9999,0.100000,0,0,0.000000,5,2.000000,0.000000,7.939909,0,0,0,0,0,0,0
2,29999,13,20000,1,10000,40,9999,0.100000,0,0,0.000000,5,0.000000,0.000000,0.358718,0,0,0,0,0,0,0
2,29999,14,20000,1,10000,40,9999,0.100000,0,0,0.000000,5,0.000000,0.000000,1.046525,0,0,0,0,0,0,0
2,29999,15,20000,0,0,49,9999,0.100000,0,0,0.000000,5,3.000000,0.000000,10.029253,0,0,0,0,0,0,0
2,29999,16,20000,0,0,40,9999,0.100000,0,0,0.000000,5,0.000000,0.000000,0.589567,0,0,0,0,0,0,0
2,29999,17,20000,34,10000,40,9999,0.100000,0,0,0.000000,5,0.000000,0.000000,0.091350,0,0,0,0,0,0,0
2,29999,18,20000,1,10000,40,9999,0.100000,0,0,0.000000,5,0.000000,0.000000,0.748158,0,0,0,0,0,0,0
2,29999,19,20000,52,10000,40,9999,0.100000,0,0,0.000000,5,0.000000,0.000000,0.191525,0,0,0,0,0,0,0
2,29999,20,20000,1,10000,40,9999,0.100000,0,0,0.000000,5,0.000000,0.000000,5.307452,0,0,0,0,0,0,0
2,29999,21,20000,1,10000,40,9999,0.100000,0,0,0.000000,5,0.000000,0.000000,4.893829,0,0,0,0,0,0,0
2,29999,22,20000,1,10000,40,9999,0.100000,0,0,0.000000,5,0.000000,0.000000,1.005628,0,0,0,0,0,0,0
2,29999,23,20000,0,0,40,9999,0.100000,0,0,0.000000,5,0.000000,0.000000,1.200602,0,0,0,0,0,0,0
2,29999,24,20000,0,0,40,9999,0.100000,0,0,0.000000,5,0.000000,0.000000,0.194402,0,0,0,0,0,0,0
2,29999,25,20000,3,0,49,9999,0.100000,0,0,0.000000,5,5.000000,0.000000,6.107371,0,0,0,0,0,0,0
2,29999,26,20000,52,10000,40,9999,0.100000,0,0,0.000000,5,0.000000,0.000000,0.071519,0,0,0,0,0,0,0
2,29999,27,20000,3,0,49,9999,0.100000,0,0,0.000000,5,4.000000,0.000000,7.711912,0,0,0,0,0,0,0
2,29999,28,20000,0,0,49,9999,0.100000,0,0,0.000000,5,4.000000,0.000000,15.478975,0,0,0,0,0,0,0
2,29999,29,20000,56,10000,40,9999,0.100000,0,0,0.000000,5,0.000000,0.000000,1.108145,0,0,0,0,0,0,0
2,29999,30,20000,52,10000,49,9999,0.100000,0,0,0.000000,5,4.000000,0.000000,12.735860,0,0,0,0,0,0,0
2,29999,31,20000,12,0,40,9999,0.100000,0,0,0.000000,5,0.000000,0.000000,0.835561,0,0,0,0,0,0,0
2,29999,32,20000,3,0,49,9999,0.100000,0,0,0.000000,5,2.000000,0.000000,5.427257,0,0,0,0,0,0,0
2,29999,33,20000,52,10000,49,9999,0.100000,0,0,0.000000,5,1.000000,0.000000,9.796998,0,0,0,0,0,0,0
2,29999,34,20000,3,0,40,9999,0.100000,0,0,0.000000,4,0.000000,0.000000,1.555689,0,0,0,0,0,0,0
2,29999,35,20000,1,10000,40,9999,0.100000,0,0,0.000000,5,0.000000,0.000000,0.106084,0,0,0,0,0,0,0
2,29999,36,20000,1,10000,40,9999,0.100000,0,0,0.000000,5,0.000000,0.000000,0.263865,0,0,0,0,0,0,0
2,29999,37,20000,12,0,40,9999,0.100000,0,0,0.000000,5,0.000000,0.000000,0.130710,0,0,0,0,0,0,0
2,29999,38,20000,1,10000,49,9999,0.100000,0,0,0.000000,5,3.000000,0.000000,6.568474,0,0,0,0,0,0,0
2,29999,39,20000,0,0,40,9999,0.100000,0,0,0.000000,5,0.000000,0.000000,1.102379,0,0,0,0,0,0,0
2,29999,40,20000,3,0,40,9999,0.100000,0,0,0.000000,5,0.000000,0.000000,0.274643,0,0,0,0,0,0,0
2,29999,41,20000,1,10000,40,9999,0.100000,0,0,0.000000,5,0.000000,0.000000,0.327021,0,0,0,0,0,0,0
2,29999,42,20000,0,0,49,9999,0.100000,0,0,0.000000,5,2.000000,0.000000,9.907694,0,0,0,0,0,0,0
2,29999,43,20000,1,10000,49,9999,0.100000,0,0,0.000000,5,1.000000,0.000000,7.864849,0,0,0,0,0,0,0
2,29999,44,20000,12,0,40,9999,0.100000,0,0,0.000000,5,0.000000,0.000000,4.151136,0,0,0,0,0,0,0
2,29999,45,20000,0,0,40,9999,0.100000,0,0,0.000000,5,0.000000,0.000000,0.222516,0,0,0,0,0,0,0
2,29999,46,20000,3,0,49,9999,0.100000,0,0,0.000000,5,1.000000,0.000000,2.137972,0,0,0,0,0,0,0
2,29999,47,20000,0,0,40,9999,0.100000,0,0,0.000000,5,0.000000,0.000000,0.265356,0,0,0,0,0,0,0
2,29999,48,20000,12,0,40,9999,0.100000,0,0,0.000000,5,0.000000,0.000000,3.851117,0,0,0,0,0,0,0
2,29999,49,20000,1,10000,40,9999,0.100000,0,0,0.000000,5,0.000000,0.000000,0.124498,0,0,0,0,0,0,0
2,29999,50,20000,1,10000,40,9999,0.100000,0,0,0.000000,5,0.000000,0.000000,0.121561,0,0,0,0,0,0,0
2,29999,51,20000,0,0,49,9999,0.100000,0,0,0.000000,5,2.000000,0.000000,17.918338,0,0,0,0,0,0,0
2,29999,52,20000,3,0,40,9999,0.100000,0,0,0.000000,5,0.000000,0.000000,0.213341,0,0,0,0,0,0,0
2,29999,53,20000,1,10000,40,9999,0.100000,0,0,0.000000,5,0.000000,0.000000,0.433057,0,0,0,0,0,0,0
2,29999,54,20000,12,0,40,9999,0.100000,0,0,0.000000,5,0.000000,0.000000,1.357646,0,0,0,0,0,0,0
2,29999,55,20000,0,0,40,9999,0.100000,0,0,0.000000,5,0.000000,0.000000,0.112613,0,0,0,0,0,0,0
2,29999,56,20000,0,0,40,9999,0.100000,0,0,0.000000,5,0.000000,0.000000,0.424312,0,0,0,0,0,0,0
2,29999,57,20000,52,10000,40,9999,0.100000,0,0,0.000000,5,0.000000,0.000000,1.532298,0,0,0,0,0,0,0
2,29999,58,20000,1,10000,49,9999,0.100000,0,0,0.000000,5,2.000000,0.000000,5.857141,0,0,0,0,0,0,0
2,29999,59,20000,1,10000,40,9999,0.100000,0,0,0.000000,5,0.000000,0.000000,0.107250,0,0,0,0,0,0,0
2,29999,60,20000,3,0,40,9999,0.100000,0,0,0.000000,5,0.000000,0.000000,2.262751,0,0,0,0,0,0,0
2,29999,61,20000,56,10000,40,9999,0.100000,0,0,0.000000,5,0.000000,0.000000,0.703027,0,0,0,0,0,0,0
2,29999,62,20000,3,0,40,9999,0.100000,0,0,0.000000,5,0.000000,0.000000,1.229188,0,0,0,0,0,0,0
2,29999,63,20000,56,10000,40,9999,0.100000,0,0,0.000000,5,0.000000,0.000000,2.367836,0,0,0,0,0,0,0
2,29999,64,20000,3,0,40,9999,0.100000,0,0,0.000000,5,0.000000,0.000000,0.074998,0,0,0,0,0,0,0
2,29999,65,20000,12,0,40,9999,0.100000,0,0,0.000000,5,0.000000,0.000000,0.413552,0,0,0,0,0,0,0
2,29999,66,20000,3,0,40,9999,0.100000,0,0,0.000000,5,0.000000,0.000000,0.619830,0,0,0,0,0,0,0
2,29999,67,20000,3,0,40,9999,0.100000,0,0,0.000000,5,0.000000,0.000000,0.323479,0,0,0,0,0,0,0
2,29999,68,20000,1,10000,40,9999,0.100000,0,0,0.000000,5,0.000000,0.000000,1.055508,0,0,0,0,0,0,0
2,29999,69,20000,0,0,40,9999,0.100000,0,0,0.000000,5,0.000000,0.000000,0.285367,0,0,0,0,0,0,0
2,29999,70,20000,3,0,49,9999,0.100000,0,0,0.000000,5,1.000000,0.000000,2.332770,0,0,0,0,0,0,0
2,29999,71,20000,0,0,49,9999,0.100000,0,0,0.000000,5,3.000000,0.000000,13.815372,0,0,0,0,0,0,0
2,29999,72,20000,3,0,40,9999,0.100000,0,0,0.000000,5,0.000000,0.000000,0.581619,0,0,0,0,0,0,0
2,29999,73,20000,3,0,49,9999,0.100000,0,0,0.000000,5,2.000000,0.000000,8.727834,0,0,0,0,0,0,0
2,29999,74,20000,52,10000,49,9999,0.100000,0,0,0.000000,5,2.000000,0.000000,9.432886,0,0,0,0,0,0,0
2,29999,75,20000,0,0,9,9999,0.100000,0,0,34.210526,5,4.000000,0.000000,13.839901,0,0,0,1,0,0,0
2,29999,76,20000,0,0,40,9999,0.100000,0,0,0.000000,5,0.000000,0.000000,3.082843,0,0,0,0,0,0,0
2,29999,77,20000,56,10000,40,9999,0.100000,0,0,0.000000,5,0.000000,0.000000,0.584385,0,0,0,0,0,0,0
2,29999,78,20000,1,10000,40,9999,0.100000,0,0,0.000000,5,0.000000,0.000000,0.537157,0,0,0,0,0,0,0
2,29999,79,20000,1,10000,40,9999,0.100000,0,0,0.000000,5,0.000000,0.000000,0.192394,0,0,0,0,0,0,0
2,29999,80,20000,0,0,40,9999,0.100000,0,0,0.000000,5,0.000000,0.000000,4.532773,0,0,0,0,0,0,0
2,29999,81,20000,1,10000,49,9999,0.100000,0,0,0.000000,5,3.000000,0.000000,6.481611,0,0,0,0,0,0,0
2,29999,82,20000,3,0,40,9999,0.100000,0,0,0.000000,5,0.000000,0.000000,4.438884,0,0,0,0,0,0,0
2,29999,83,20000,52,10000,40,9999,0.100000,0,0,0.000000,5,0.000000,0.000000,3.848892,0,0,0,0,0,0,0
2,29999,84,20000,0,0,49,9999,0.100000,0,0,0.000000,5,1.000000,0.000000,3.904948,0,0,0,0,0,0,0
2,29999,85,20000,3,0,40,9999,0.100000,0,0,0.000000,5,0.000000,0.000000,1.096267,0,0,0,0,0,0,0
2,29999,86,20000,52,10000,49,9999,0.100000,0,0,0.000000,5,1.000000,0.000000,8.802868,0,0,0,0,0,0,0
2,29999,87,20000,56,10000,40,9999,0.100000,0,0,0.000000,5,0.000000,0.000000,0.621336,0,0,0,0,0,0,0
2,29999,88,10000,3,0,40,19999,0.100000,0,0,0.000000,5,0.000000,0.000000,0.701067,0,0,0,0,0,0,0
2,29999,89,20000,56,10000,40,9999,0.100000,0,0,0.000000,5,0.000000,0.000000,0.101322,0,0,0,0,0,0,0
2,29999,90,20000,34,10000,40,9999,0.100000,0,0,0.000000,5,0.000000,0.000000,1.412177,0,0,0,0,0,0,0
2,29999,91,20000,0,0,99,9999,0.100000,0,0,34.210526,5,3.000000,0.000000,13.266860,0,0,1,0,0,0,0
2,29999,92,20000,3,0,40,9999,0.100000,0,0,0.000000,5,0.000000,0.000000,0.527240,0,0,0,0,0,0,0
2,29999,93,20000,52,10000,9,9999,0.100000,0,0,34.210526,5,4.000000,0.000000,10.779934,0,0,0,1,0,0,0
2,29999,94,20000,3,0,40,9999,0.100000,0,0,0.000000,5,0.000000,0.000000,0.208953,0,0,0,0,0,0,0
2,29999,95,20000,0,0,40,9999,0.100000,0,0,0.000000,5,0.000000,0.000000,0.526735,0,0,0,0,0,0,0
2,29999,96,20000,0,0,40,9999,0.100000,0,0,0.000000,5,0.000000,0.000000,0.608682,0,0,0,0,0,0,0
2,29999,97,20000,52,10000,40,9999,0.100000,0,0,0.000000,5,0.000000,0.000000,1.036773,0,0,0,0,0,0,0
2,29999,98,20000,3,0,40,9999,0.100000,0,0,0.000000,5,0.000000,0.000000,0.270918,0,0,0,0,0,0,0
2,29999,99,20000,34,10000,40,9999,0.100000,0,0,0.000000,5,0.000000,0.000000,0.099511,0,0,0,0,0,0,0
3,39999,0,30000,1,10000,49,9999,0.100000,0,0,0.000000,5,1.000000,0.000000,13.479333,0,0,0,0,0,0,0
3,39999,1,30000,3,0,40,9999,0.100000,0,0,0.000000,5,0.000000,0.000000,2.816121,0,0,0,0,0,0,0
3,39999,2,30000,56,10000,40,9999,0.100000,0,0,0.000000,5,0.000000,0.000000,0.253188,0,0,0,0,0,0,0
3,39999,3,30000,12,0,40,9999,0.100000,0,0,0.000000,5,0.000000,0.000000,0.150296,0,0,0,0,0,0,0
3,39999,4,30000,12,0,40,9999,0.100000,0,0,0.000000,5,0.000000,0.000000,0.660982,0,0,0,0,0,0,0
3,39999,5,30000,3,0,40,9999,0.100000,0,0,0.000000,5,0.000000,0.000000,19.916717,0,0,0,0,0,0,0
3,39999,6,30000,87,20000,40,9999,0.100000,0,0,0.000000,5,0.000000,0.000000,0.800830,0,0,0,0,0,0,0
3,39999,7,30000,1,10000,40,9999,0.100000,0,0,0.000000,5,0.000000,0.000000,0.090859,0,0,0,0,0,0,0
3,39999,8,30000,3,0,40,9999,0.100000,0,0,0.000000,5,0.000000,0.000000,0.499335,0,0,0,0,0,0,0
3,39999,9,30000,56,10000,40,9999,0.100000,0,0,0.000000,5,0.000000,0.000000,0.072832,0,0,0,0,0,0,0
3,39999,10,30000,87,20000,40,9999,0.100000,0,0,0.000000,5,0.000000,0.000000,0.332660,0,0,0,0,0,0,0
3,39999,11,30000,12,0,40,9999,0.100000,0,0,0.000000,5,0.000000,0.000000,1.052661,0,0,0,0,0,0,0
3,39999,12,30000,1,10000,49,9999,0.100000,0,0,0.000000,5,1.000000,0.000000,4.580281,0,0,0,0,0,0,0
3,39999,13,30000,12,0,40,9999,0.100000,0,0,0.000000,5,0.000000,0.000000,0.384292,0,0,0,0,0,0,0
3,39999,14,30000,56,10000,40,9999,0.100000,0,0,0.000000,5,0.000000,0.000000,1.267041,0,0,0,0,0,0,0
3,39999,15,30000,0,0,40,9999,0.100000,0,0,0.000000,5,0.000000,0.000000,9.333363,0,0,0,0,0,0,0
3,39999,16,30000,93,20000,40,9999,0.100000,0,0,0.000000,5,0.000000,0.000000,0.489818,0,0,0,0,0,0,0
3,39999,17,30000,3,0,40,9999,0.100000,0,0,0.000000,5,0.000000,0.000000,0.081287,0,0,0,0,0,0,0
3,39999,18,30000,12,0,40,9999,0.100000,0,0,0.000000,5,0.000000,0.000000,0.839315,0,0,0,0,0,0,0
3,39999,19,30000,16,20000,40,9999,0.100000,0,0,0.000000,5,0.000000,0.000000,0.114428,0,0,0,0,0,0,0
3,39999,20,30000,3,0,49,9999,0.100000,0,0,0.000000,5,2.000000,0.000000,3.709504,0,0,0,0,0,0,0
3,39999,21,30000,12,0,49,9999,0.100000,0,0,0.000000,5,1.000000,0.000000,3.745300,0,0,0,0,0,0,0
3,39999,22,30000,12,0,49,9999,0.100000,0,0,0.000000,5,1.000000,0.000000,1.834988,0,0,0,0,0,0,0
3,39999,23,30000,87,20000,49,9999,0.100000,0,0,0.000000,5,1.000000,0.000000,1.146584,0,0,0,0,0,0,0
3,39999,24,30000,1,10000,40,9999,0.100000,0,0,0.000000,5,0.000000,0.000000,0.324018,0,0,0,0,0,0,0
3,39999,25,30000,0,0,40,9999,0.100000,0,0,0.000000,5,0.000000,0.000000,0.078830,0,0,0,0,0,0,0
3,39999,26,30000,3,0,40,9999,0.100000,0,0,0.000000,5,0.000000,0.000000,0.071528,0,0,0,0,0,0,0
3,39999,27,30000,0,0,49,9999,0.100000,0,0,0.000000,5,5.000000,0.000000,8.250012,0,0,0,0,0,0,0
3,39999,28,30000,3,0,49,9999,0.100000,0,0,0.000000,5,2.000000,0.000000,6.437815,0,0,0,0,0,0,0
3,39999,29,30000,87,20000,40,9999,0.100000,0,0,0.000000,5,0.000000,0.000000,1.484426,0,0,0,0,0,0,0
3,39999,30,30000,1,10000,49,9999,0.100000,0,0,0.000000,5,1.000000,0.000000,6.022725,0,0,0,0,0,0,0
3,39999,31,30000,87,20000,40,9999,0.100000,0,0,0.000000,5,0.000000,0.000000,1.203904,0,0,0,0,0,0,0
3,39999,32,30000,56,10000,40,9999,0.100000,0,0,0.000000,5,0.000000,0.000000,2.455152,0,0,0,0,0,0,0
3,39999,33,30000,12,0,49,9999,0.100000,0,0,0.000000,5,3.000000,0.000000,15.065165,0,0,0,0,0,0,0
3,39999,34,30000,3,0,40,9999,0.100000,0,0,0.000000,5,0.000000,0.000000,2.177139,0,0,0,0,0,0,0
3,39999,35,30000,12,0,40,9999,0.100000,0,0,0.000000,5,0.000000,0.000000,0.117215,0,0,0,0,0,0,0
3,39999,36,30000,0,0,40,9999,0.100000,0,0,0.000000,5,0.000000,0.000000,0.265974,0,0,0,0,0,0,0
3,39999,37,30000,0,0,40,9999,0.100000,0,0,0.000000,5,0.000000,0.000000,0.132174,0,0,0,0,0,0,0
3,39999,38,30000,87,20000,40,9999,0.100000,0,0,0.000000,5,0.000000,0.000000,6.627209,0,0,0,0,0,0,0
3,39999,39,30000,3,0,40,9999,0.100000,0,0,0.000000,5,0.000000,0.000000,1.068748,0,0,0,0,0,0,0
3,39999,40,30000,12,0,49,9999,0.100000,0,0,0.000000,5,1.000000,0.000000,3.121472,0,0,0,0,0,0,0
3,39999,41,30000,12,0,40,9999,0.100000,0,0,0.000000,5,0.000000,0.000000,0.181626,0,0,0,0,0,0,0
3,39999,42,30000,3,0,49,9999,0.100000,0,0,0.000000,5,2.000000,0.000000,2.948870,0,0,0,0,0,0,0
3,39999,43,30000,1,10000,49,9999,0.100000,0,0,0.000000,5,4.000000,0.000000,7.515471,0,0,0,0,0,0,0
3,39999,44,30000,87,20000,49,9999,0.100000,0,0,0.000000,5,2.000000,0.000000,5.541984,0,0,0,0,0,0,0
3,39999,45,30000,12,0,40,9999,0.100000,0,0,0.000000,5,0.000000,0.000000,0.215945,0,0,0,0,0,0,0
3,39999,46,30000,1,10000,49,9999,0.100000,0,0,0.000000,5,1.000000,0.000000,1.744694,0,0,0,0,0,0,0
3,39999,47,30000,1,10000,40,9999,0.100000,0,0,0.000000,5,0.000000,0.000000,0.164843,0,0,0,0,0,0,0
3,39999,48,30000,3,0,49,9999,0.100000,0,0,0.000000,5,1.000000,0.000000,7.168282,0,0,0,0,0,0,0
3,39999,49,30000,93,20000,40,9999,0.100000,0,0,0.000000,5,0.000000,0.000000,0.124503,0,0,0,0,0,0,0
3,39999,50,30000,56,10000,40,9999,0.100000,0,0,0.000000,5,0.000000,0.000000,0.124507,0,0,0,0,0,0,0
3,39999,51,30000,0,0,49,9999,0.100000,0,0,0.000000,5,1.000000,0.000000,15.387550,0,0,0,0,0,0,0
3,39999,52,30000,1,10000,40,9999,0.100000,0,0,0.000000,5,0.000000,0.000000,0.234937,0,0,0,0,0,0,0
3,39999,53,30000,12,0,40,9999,0.100000,0,0,0.000000,5,0.000000,0.000000,0.477025,0,0,0,0,0,0,0
3,39999,54,30000,12,0,40,9999,0.100000,0,0,0.000000,5,0.000000,0.000000,0.065819,0,0,0,0,0,0,0
3,39999,55,30000,3,0,40,9999,0.100000,0,0,0.000000,5,0.000000,0.000000,0.115876,0,0,0,0,0,0,0
3,39999,56,30000,1,10000,40,9999,0.100000,0,0,0.000000,5,0.000000,0.000000,0.497329,0,0,0,0,0,0,0
3,39999,57,30000,87,20000,49,9999,0.100000,0,0,0.000000,5,1.000000,0.000000,1.202825,0,0,0,0,0,0,0
3,39999,58,30000,1,10000,49,9999,0.100000,0,0,0.000000,5,1.000000,0.000000,2.760345,0,0,0,0,0,0,0
3,39999,59,30000,3,0,40,9999,0.100000,0,0,0.000000,5,0.000000,0.000000,0.120415,0,0,0,0,0,0,0
3,39999,60,30000,0,0,40,9999,0.100000,0,0,0.000000,5,0.000000,0.000000,3.391644,0,0,0,0,0,0,0
3,39999,61,30000,3,0,49,9999,0.100000,0,0,0.000000,5,2.000000,0.000000,6.153339,0,0,0,0,0,0,0
3,39999,62,30000,0,0,40,9999,0.100000,0,0,0.000000,5,0.000000,0.000000,2.629339,0,0,0,0,0,0,0
3,39999,63,30000,0,0,40,9999,0.100000,0,0,0.000000,5,0.000000,0.000000,0.080368,0,0,0,0,0,0,0
3,39999,64,30000,56,10000,40,9999,0.100000,0,0,0.000000,5,0.000000,0.000000,0.069920,0,0,0,0,0,0,0
3,39999,65,30000,12,0,40,9999,0.100000,0,0,0.000000,5,0.000000,0.000000,4.135999,0,0,0,0,0,0,0
3,39999,66,30000,56,10000,40,9999,0.100000,0,0,0.000000,5,0.000000,0.000000,0.527203,0,0,0,0,0,0,0
3,39999,67,30000,3,0,40,9999,0.100000,0,0,0.000000,5,0.000000,0.000000,0.327337,0,0,0,0,0,0,0
3,39999,68,30000,87,20000,49,9999,0.100000,0,0,0.000000,5,1.000000,0.000000,1.259880,0,0,0,0,0,0,0
3,39999,69,30000,0,0,40,9999,0.100000,0,0,0.000000,5,0.000000,0.000000,0.293851,0,0,0,0,0,0,0
3,39999,70,30000,87,20000,40,9999,0.100000,0,0,0.000000,5,0.000000,0.000000,0.184347,0,0,0,0,0,0,0
3,39999,71,30000,0,0,49,9999,0.100000,0,0,0.000000,5,2.000000,0.000000,5.860071,0,0,0,0,0,0,0
3,39999,72,30000,3,0,40,9999,0.100000,0,0,0.000000,5,0.000000,0.000000,0.554148,0,0,0,0,0,0,0
3,39999,73,30000,1,10000,40,9999,0.065000,0,0,0.000000,5,0.000000,0.000000,6.016580,0,0,0,0,0,0,0
3,39999,74,30000,3,0,40,9999,0.065000,0,0,0.000000,5,0.000000,0.000000,0.548744,0,0,0,0,0,0,0
3,39999,75,30000,16,20000,49,9999,0.100000,0,0,0.000000,5,5.000000,0.000000,8.680180,0,0,0,0,0,0,0
3,39999,76,30000,56,10000,40,9999,0.100000,0,0,0.000000,5,0.000000,0.000000,0.575270,0,0,0,0,0,0,0
3,39999,77,30000,0,0,40,9999,0.100000,0,0,0.000000,5,0.000000,0.000000,0.876696,0,0,0,0,0,0,0
3,39999,78,30000,87,20000,40,9999,0.100000,0,0,0.000000,5,0.000000,0.000000,0.661127,0,0,0,0,0,0,0
3,39999,79,30000,1,10000,40,9999,0.100000,0,0,0.000000,5,0.000000,0.000000,0.191478,0,0,0,0,0,0,0
3,39999,80,30000,12,0,49,9999,0.100000,0,0,0.000000,5,1.000000,0.000000,3.080635,0,0,0,0,0,0,0
3,39999,81,30000,3,0,40,9999,0.100000,0,0,0.000000,5,0.000000,0.000000,0.454837,0,0,0,0,0,0,0
3,39999,82,30000,0,0,40,9999,0.100000,0,0,0.000000,5,0.000000,0.000000,8.538026,0,0,0,0,0,0,0
3,39999,83,30000,3,0,49,9999,0.100000,0,0,0.000000,5,2.000000,0.000000,7.752296,0,0,0,0,0,0,0
3,39999,84,30000,1,10000,40,9999,0.100000,0,0,0.000000,5,0.000000,0.000000,0.168993,0,0,0,0,0,0,0
3,39999,85,30000,3,0,40,9999,0.100000,0,0,0.000000,5,0.000000,0.000000,2.453987,0,0,0,0,0,0,0
3,39999,86,30000,93,20000,40,9999,0.100000,0,0,0.000000,5,0.000000,0.000000,3.089105,0,0,0,0,0,0,0
3,39999,87,30000,12,0,49,9999,0.100000,0,0,0.000000,5,1.000000,0.000000,3.143297,0,0,0,0,0,0,0
3,39999,88,30000,3,0,40,9999,0.100000,0,0,0.000000,5,0.000000,0.000000,0.841753,0,0,0,0,0,0,0
3,39999,89,30000,0,0,40,9999,0.100000,0,0,0.000000,5,0.000000,0.000000,0.097985,0,0,0,0,0,0,0
3,39999,90,30000,1,10000,40,9999,0.100000,0,0,0.000000,5,0.000000,0.000000,0.180584,0,0,0,0,0,0,0
3,39999,91,30000,1,10000,49,9999,0.100000,0,0,0.000000,5,2.000000,0.000000,5.210537,0,0,0,0,0,0,0
3,39999,92,30000,12,0,40,9999,0.100000,0,0,0.000000,5,0.000000,0.000000,0.572446,0,0,0,0,0,0,0
3,39999,93,30000,1,10000,40,9999,0.100000,0,0,0.000000,5,0.000000,0.000000,0.086851,0,0,0,0,0,0,0
3,39999,94,30000,12,0,49,9999,0.100000,0,0,0.000000,5,8.000000,0.000000,17.482193,0,0,0,0,0,0,0
3,39999,95,30000,87,20000,40,9999,0.100000,0,0,0.000000,5,0.000000,0.000000,0.637230,0,0,0,0,0,0,0
3,39999,96,30000,3,0,40,9999,0.100000,0,0,0.000000,5,0.000000,0.000000,0.989050,0,0,0,0,0,0,0
3,39999,97,30000,3,0,40,9999,0.100000,0,0,0.000000,5,0.000000,0.000000,0.592185,0,0,0,0,0,0,0
3,39999,98,30000,3,0,40,9999,0.100000,0,0,0.000000,5,0.000000,0.000000,0.103103,0,0,0,0,0,0,0
3,39999,99,30000,3,0,40,9999,0.100000,0,0,0.000000,5,0.000000,0.000000,0.272196,0,0,0,0,0,0,0
4,49999,0,40000,3,30000,49,9999,0.100000,0,0,0.000000,5,2.000000,0.000000,3.594547,0,0,0,0,0,0,0
4,49999,1,40000,3,0,40,9999,0.100000,0,0,0.000000,5,0.000000,0.000000,1.097022,0,0,0,0,0,0,0
4,49999,2,40000,3,0,40,9999,0.100000,0,0,0.000000,5,0.000000,0.000000,0.219549,0,0,0,0,0,0,0
4,49999,3,40000,3,0,40,9999,0.100000,0,0,0.000000,5,0.000000,0.000000,0.160102,0,0,0,0,0,0,0
4,49999,4,40000,1,10000,40,9999,0.100000,0,0,0.000000,5,0.000000,0.000000,0.339486,0,0,0,0,0,0,0
4,49999,5,40000,12,0,49,9999,0.100000,0,0,0.000000,5,2.000000,0.000000,2.993914,0,0,0,0,0,0,0
4,49999,6,40000,93,20000,40,9999,0.100000,0,0,0.000000,5,0.000000,0.000000,0.379614,0,0,0,0,0,0,0
4,49999,7,40000,1,10000,40,9999,0.100000,0,0,0.000000,5,0.000000,0.000000,0.088346,0,0,0,0,0,0,0
4,49999,8,40000,3,30000,49,9999,0.100000,0,0,0.000000,5,1.000000,0.000000,2.197702,0,0,0,0,0,0,0
4,49999,9,40000,93,20000,40,9999,0.100000,0,0,0.000000,5,0.000000,0.000000,0.073345,0,0,0,0,0,0,0
4,49999,10,40000,1,10000,40,9999,0.100000,0,0,0.000000,5,0.000000,0.000000,0.163350,0,0,0,0,0,0,0
4,49999,11,40000,87,30000,40,9999,0.100000,0,0,0.000000,5,0.000000,0.000000,0.148773,0,0,0,0,0,0,0
4,49999,12,40000,93,20000,49,9999,0.100000,0,0,0.000000,5,2.000000,0.000000,8.655658,0,0,0,0,0,0,0
4,49999,13,40000,1,10000,40,9999,0.100000,0,0,0.000000,5,0.000000,0.000000,0.270834,0,0,0,0,0,0,0
4,49999,14,40000,12,0,40,9999,0.100000,0,0,0.000000,5,0.000000,0.000000,0.962203,0,0,0,0,0,0,0
4,49999,15,40000,12,0,40,9999,0.100000,0,0,0.000000,5,0.000000,0.000000,5.545729,0,0,0,0,0,0,0
4,49999,16,40000,3,30000,40,9999,0.100000,0,0,0.000000,5,0.000000,0.000000,0.780944,0,0,0,0,0,0,0
4,49999,17,40000,3,30000,40,9999,0.100000,0,0,0.000000,5,0.000000,0.000000,0.081493,0,0,0,0,0,0,0
4,49999,18,40000,93,20000,49,9999,0.100000,0,0,0.000000,5,1.000000,0.000000,2.041395,0,0,0,0,0,0,0
4,49999,19,40000,12,0,40,9999,0.100000,0,0,0.000000,5,0.000000,0.000000,0.103957,0,0,0,0,0,0,0
4,49999,20,40000,12,0,40,9999,0.100000,0,0,0.000000,5,0.000000,0.000000,0.156140,0,0,0,0,0,0,0
4,49999,21,40000,3,30000,40,9999,0.100000,0,0,0.000000,5,0.000000,0.000000,4.193629,0,0,0,0,0,0,0
4,49999,22,40000,93,20000,40,9999,0.100000,0,0,0.000000,5,0.000000,0.000000,0.622370,0,0,0,0,0,0,0
4,49999,23,40000,1,10000,40,9999,0.100000,0,0,0.000000,5,0.000000,0.000000,0.404113,0,0,0,0,0,0,0
4,49999,24,40000,93,20000,40,9999,0.100000,0,0,0.000000,5,0.000000,0.000000,0.308303,0,0,0,0,0,0,0
4,49999,25,40000,93,20000,40,9999,0.100000,0,0,0.000000,5,0.000000,0.000000,0.077531,0,0,0,0,0,0,0
4,49999,26,40000,87,30000,40,9999,0.100000,0,0,0.000000,5,0.000000,0.000000,0.071488,0,0,0,0,0,0,0
4,49999,27,40000,1,10000,49,9999,0.100000,0,0,0.000000,5,2.000000,0.000000,6.214199,0,0,0,0,0,0,0
4,49999,28,40000,1,10000,40,9999,0.100000,0,0,0.000000,5,0.000000,0.000000,4.422415,0,0,0,0,0,0,0
4,49999,29,40000,1,10000,40,9999,0.100000,0,0,0.000000,5,0.000000,0.000000,1.295764,0,0,0,0,0,0,0
4,49999,30,40000,3,0,49,9999,0.100000,0,0,0.000000,5,1.000000,0.000000,4.089493,0,0,0,0,0,0,0
4,49999,31,40000,87,30000,49,9999,0.100000,0,0,0.000000,5,1.000000,0.000000,3.611974,0,0,0,0,0,0,0
4,49999,32,40000,93,20000,40,9999,0.100000,0,0,0.000000,5,0.000000,0.000000,0.202775,0,0,0,0,0,0,0
4,49999,33,40000,93,20000,49,9999,0.100000,0,0,0.000000,5,4.000000,0.000000,15.047659,0,0,0,0,0,0,0
4,49999,34,40000,3,30000,40,9999,0.100000,0,0,0.000000,5,0.000000,0.000000,0.385471,0,0,0,0,0,0,0
4,49999,35,40000,87,30000,40,9999,0.100000,0,0,0.000000,5,0.000000,0.000000,0.336900,0,0,0,0,0,0,0
4,49999,36,40000,1,10000,40,9999,0.100000,0,0,0.000000,5,0.000000,0.000000,0.197426,0,0,0,0,0,0,0
4,49999,37,40000,3,30000,40,9999,0.100000,0,0,0.000000,5,0.000000,0.000000,0.130592,0,0,0,0,0,0,0
4,49999,38,40000,3,0,49,9999,0.100000,0,0,0.000000,5,1.000000,0.000000,3.351101,0,0,0,0,0,0,0
4,49999,39,40000,1,10000,40,9999,0.100000,0,0,0.000000,5,0.000000,0.000000,1.066140,0,0,0,0,0,0,0
4,49999,40,40000,93,20000,49,9999,0.100000,0,0,0.000000,5,1.000000,0.000000,2.299021,0,0,0,0,0,0,0
4,49999,41,40000,3,30000,40,9999,0.100000,0,0,0.000000,5,0.000000,0.000000,0.171396,0,0,0,0,0,0,0
4,49999,42,40000,87,30000,40,9999,0.100000,0,0,0.000000,5,0.000000,0.000000,0.197651,0,0,0,0,0,0,0
4,49999,43,40000,87,30000,49,9999,0.100000,0,0,0.000000,5,1.000000,0.000000,3.573821,0,0,0,0,0,0,0
4,49999,44,40000,3,30000,49,9999,0.100000,0,0,0.000000,5,4.000000,0.000000,10.249054,0,0,0,0,0,0,0
4,49999,45,40000,87,30000,40,9999,0.100000,0,0,0.000000,5,0.000000,0.000000,0.212614,0,0,0,0,0,0,0
4,49999,46,40000,12,0,49,9999,0.100000,0,0,0.000000,5,2.000000,0.000000,2.612659,0,0,0,0,0,0,0
4,49999,47,40000,93,20000,49,9999,0.100000,0,0,0.000000,5,1.000000,0.000000,2.355486,0,0,0,0,0,0,0
4,49999,48,40000,87,30000,40,9999,0.100000,0,0,0.000000,5,0.000000,0.000000,3.323943,0,0,0,0,0,0,0
4,49999,49,40000,1,10000,40,9999,0.100000,0,0,0.000000,5,0.000000,0.000000,0.127110,0,0,0,0,0,0,0
4,49999,50,40000,12,0,40,9999,0.100000,0,0,0.000000,5,0.000000,0.000000,0.161449,0,0,0,0,0,0,0
4,49999,51,40000,93,20000,40,9999,0.100000,0,0,0.000000,5,0.000000,0.000000,4.592106,0,0,0,0,0,0,0
4,49999,52,40000,12,0,40,9999,0.100000,0,0,0.000000,5,0.000000,0.000000,0.195122,0,0,0,0,0,0,0
4,49999,53,40000,1,10000,40,9999,0.100000,0,0,0.000000,5,0.000000,0.000000,0.143368,0,0,0,0,0,0,0
4,49999,54,40000,3,30000,40,9999,0.100000,0,0,0.000000,5,0.000000,0.000000,0.065423,0,0,0,0,0,0,0
4,49999,55,40000,93,20000,40,9999,0.100000,0,0,0.000000,5,0.000000,0.000000,0.158523,0,0,0,0,0,0,0
4,49999,56,40000,87,30000,40,9999,0.100000,0,0,0.000000,5,0.000000,0.000000,0.128268,0,0,0,0,0,0,0
4,49999,57,40000,93,20000,40,9999,0.100000,0,0,0.000000,5,0.000000,0.000000,0.396697,0,0,0,0,0,0,0
4,49999,58,40000,12,0,40,9999,0.100000,0,0,0.000000,5,0.000000,0.000000,0.074534,0,0,0,0,0,0,0
4,49999,59,40000,3,30000,40,9999,0.100000,0,0,0.000000,5,0.000000,0.000000,0.288826,0,0,0,0,0,0,0
4,49999,60,40000,93,20000,40,9999,0.100000,0,0,0.000000,5,0.000000,0.000000,4.618319,0,0,0,0,0,0,0
4,49999,61,40000,3,30000,40,9999,0.100000,0,0,0.000000,5,0.000000,0.000000,0.168191,0,0,0,0,0,0,0
4,49999,62,40000,3,30000,49,9999,0.100000,0,0,0.000000,5,1.000000,0.000000,2.462556,0,0,0,0,0,0,0
4,49999,63,40000,93,20000,40,9999,0.100000,0,0,0.000000,5,0.000000,0.000000,0.082640,0,0,0,0,0,0,0
4,49999,64,40000,93,20000,40,9999,0.100000,0,0,0.000000,5,0.000000,0.000000,0.069411,0,0,0,0,0,0,0
4,49999,65,40000,87,30000,40,9999,0.100000,0,0,0.000000,5,0.000000,0.000000,0.165694,0,0,0,0,0,0,0
4,49999,66,40000,87,30000,40,9999,0.100000,0,0,0.000000,5,0.000000,0.000000,0.437470,0,0,0,0,0,0,0
4,49999,67,40000,3,30000,40,9999,0.100000,0,0,0.000000,5,0.000000,0.000000,0.349244,0,0,0,0,0,0,0
4,49999,68,40000,87,30000,49,9999,0.100000,0,0,0.000000,5,1.000000,0.000000,1.890438,0,0,0,0,0,0,0
4,49999,69,40000,12,0,40,9999,0.100000,0,0,0.000000,5,0.000000,0.000000,0.302579,0,0,0,0,0,0,0
4,49999,70,40000,3,30000,40,9999,0.100000,0,0,0.000000,5,0.000000,0.000000,0.175489,0,0,0,0,0,0,0
4,49999,71,40000,12,0,49,9999,0.100000,0,0,0.000000,5,3.000000,0.000000,8.162368,0,0,0,0,0,0,0
4,49999,72,40000,93,20000,49,9999,0.100000,0,0,0.000000,5,1.000000,0.000000,2.075851,0,0,0,0,0,0,0
4,49999,73,40000,1,10000,40,9999,0.100000,0,0,0.000000,5,0.000000,0.000000,2.002561,0,0,0,0,0,0,0
4,49999,74,40000,1,10000,40,9999,0.100000,0,0,0.000000,5,0.000000,0.000000,0.466016,0,0,0,0,0,0,0
4,49999,75,40000,3,30000,40,9999,0.100000,0,0,0.000000,5,0.000000,0.000000,1.003495,0,0,0,0,0,0,0
4,49999,76,40000,1,10000,40,9999,0.100000,0,0,0.000000,5,0.000000,0.000000,0.302146,0,0,0,0,0,0,0
4,49999,77,40000,87,30000,40,9999,0.100000,0,0,0.000000,5,0.000000,0.000000,0.758744,0,0,0,0,0,0,0
4,49999,78,40000,1,10000,49,9999,0.100000,0,0,0.000000,5,3.000000,0.000000,3.504852,0,0,0,0,0,0,0
4,49999,79,40000,12,0,40,9999,0.100000,0,0,0.000000,5,0.000000,0.000000,0.178320,0,0,0,0,0,0,0
4,49999,80,40000,1,10000,49,9999,0.100000,0,0,0.000000,5,1.000000,0.000000,2.541246,0,0,0,0,0,0,0
4,49999,81,40000,12,0,40,9999,0.100000,0,0,0.000000,5,0.000000,0.000000,0.383759,0,0,0,0,0,0,0
4,49999,82,40000,1,10000,40,9999,0.065000,0,0,0.000000,5,0.000000,0.000000,0.888946,0,0,0,0,0,0,0
4,49999,83,40000,3,30000,40,9999,0.100000,0,0,0.000000,5,0.000000,0.000000,4.014769,0,0,0,0,0,0,0
4,49999,84,40000,93,20000,40,9999,0.100000,0,0,0.000000,5,0.000000,0.000000,0.376434,0,0,0,0,0,0,0
4,49999,85,40000,1,10000,49,9999,0.100000,0,0,0.000000,5,2.000000,0.000000,2.900270,0,0,0,0,0,0,0
4,49999,86,40000,1,10000,40,9999,0.100000,0,0,0.000000,5,0.000000,0.000000,4.896759,0,0,0,0,0,0,0
4,49999,87,40000,3,30000,40,9999,0.100000,0,0,0.000000,5,0.000000,0.000000,0.680844,0,0,0,0,0,0,0
4,49999,88,40000,93,20000,40,9999,0.100000,0,0,0.000000,5,0.000000,0.000000,0.282400,0,0,0,0,0,0,0
4,49999,89,40000,1,10000,40,9999,0.100000,0,0,0.000000,5,0.000000,0.000000,0.100255,0,0,0,0,0,0,0
4,49999,90,40000,12,0,40,9999,0.100000,0,0,0.000000,5,0.000000,0.000000,0.621141,0,0,0,0,0,0,0
4,49999,91,40000,93,20000,49,9999,0.100000,0,0,0.000000,5,2.000000,0.000000,5.064903,0,0,0,0,0,0,0
4,49999,92,40000,87,30000,49,9999,0.100000,0,0,0.000000,5,1.000000,0.000000,2.133527,0,0,0,0,0,0,0
4,49999,93,40000,93,20000,40,9999,0.100000,0,0,0.000000,5,0.000000,0.000000,0.071776,0,0,0,0,0,0,0
4,49999,94,40000,93,20000,40,9999,0.100000,0,0,0.000000,5,0.000000,0.000000,0.197620,0,0,0,0,0,0,0
4,49999,95,40000,12,0,49,9999,0.100000,0,0,0.000000,5,3.000000,0.000000,3.512293,0,0,0,0,0,0,0
4,49999,96,40000,1,10000,49,9999,0.100000,0,0,0.000000,5,1.000000,0.000000,3.052860,0,0,0,0,0,0,0
4,49999,97,40000,87,30000,49,9999,0.100000,0,0,0.000000,5,1.000000,0.000000,2.106417,0,0,0,0,0,0,0
4,49999,98,40000,1,10000,40,9999,0.100000,0,0,0.000000,5,0.000000,0.000000,0.088784,0,0,0,0,0,0,0
4,49999,99,40000,12,0,40,9999,0.100000,0,0,0.000000,5,0.000000,0.000000,0.131298,0,0,0,0,0,0,0
5,59999,0,50000,1,10000,40,9999,0.100000,0,0,0.000000,5,0.000000,0.000000,1.785595,0,0,0,0,0,0,0
5,59999,1,50000,87,30000,40,9999,0.100000,0,0,0.000000,5,0.000000,0.000000,0.517001,0,0,0,0,0,0,0
5,59999,2,50000,1,10000,40,9999,0.100000,0,0,0.000000,5,0.000000,0.000000,0.960219,0,0,0,0,0,0,0
5,59999,3,50000,93,20000,40,9999,0.100000,0,0,0.000000,5,0.000000,0.000000,10.625616,0,0,0,0,0,0,0
5,59999,4,50000,87,30000,40,9999,0.100000,0,0,0.000000,5,0.000000,0.000000,2.574753,0,0,0,0,0,0,0
5,59999,5,50000,1,10000,40,9999,0.100000,0,0,0.000000,5,0.000000,0.000000,1.092126,0,0,0,0,0,0,0
5,59999,6,50000,3,30000,40,9999,0.100000,0,0,0.000000,5,0.000000,0.000000,0.312663,0,0,0,0,0,0,0
5,59999,7,50000,12,0,40,9999,0.100000,0,0,0.000000,5,0.000000,0.000000,0.087322,0,0,0,0,0,0,0
5,59999,8,50000,12,0,40,9999,0.100000,0,0,0.000000,5,0.000000,0.000000,3.146655,0,0,0,0,0,0,0
5,59999,9,50000,1,10000,40,9999,0.100000,0,0,0.000000,5,0.000000,0.000000,0.075724,0,0,0,0,0,0,0
5,59999,10,50000,87,30000,40,9999,0.100000,0,0,0.000000,5,0.000000,0.000000,0.099692,0,0,0,0,0,0,0
5,59999,11,50000,87,30000,40,9999,0.100000,0,0,0.000000,5,0.000000,0.000000,0.122860,0,0,0,0,0,0,0
5,59999,12,50000,87,30000,49,9999,0.100000,0,0,0.000000,5,1.000000,0.000000,12.912348,0,0,0,0,0,0,0
5,59999,13,50000,3,30000,40,9999,0.100000,0,0,0.000000,5,0.000000,0.000000,0.130972,0,0,0,0,0,0,0
5,59999,14,50000,1,10000,40,9999,0.100000,0,0,0.000000,5,0.000000,0.000000,0.875098,0,0,0,0,0,0,0
5,59999,15,50000,12,0,40,9999,0.100000,0,0,0.000000,5,0.000000,0.000000,0.130044,0,0,0,0,0,0,0
5,59999,16,50000,87,30000,40,9999,0.100000,0,0,0.000000,5,0.000000,0.000000,4.067566,0,0,0,0,0,0,0
5,59999,17,50000,93,20000,40,9999,0.100000,0,0,0.000000,5,0.000000,0.000000,0.081390,0,0,0,0,0,0,0
5,59999,18,50000,12,0,49,9999,0.100000,0,0,0.000000,5,1.000000,0.000000,3.521482,0,0,0,0,0,0,0
5,59999,19,50000,93,20000,40,9999,0.100000,0,0,0.000000,5,0.000000,0.000000,0.103748,0,0,0,0,0,0,0
5,59999,20,50000,1,10000,40,9999,0.100000,0,0,0.000000,5,0.000000,0.000000,0.270993,0,0,0,0,0,0,0
5,59999,21,50000,93,20000,40,9999,0.100000,0,0,0.000000,5,0.000000,0.000000,0.717794,0,0,0,0,0,0,0
5,59999,22,50000,87,30000,40,9999,0.100000,0,0,0.000000,5,0.000000,0.000000,0.692533,0,0,0,0,0,0,0
5,59999,23,50000,93,20000,9,9999,0.100000,0,0,34.210526,5,10.000000,0.000000,17.202972,0,0,0,1,0,0,0
5,59999,24,50000,93,20000,40,9999,0.100000,0,0,0.000000,5,0.000000,0.000000,0.172665,0,0,0,0,0,0,0
5,59999,25,50000,93,20000,40,9999,0.100000,0,0,0.000000,5,0.000000,0.000000,0.077632,0,0,0,0,0,0,0
5,59999,26,50000,12,0,40,9999,0.100000,0,0,0.000000,5,0.000000,0.000000,0.072055,0,0,0,0,0,0,0
5,59999,27,50000,12,0,49,9999,0.100000,0,0,0.000000,5,6.000000,0.000000,16.554471,0,0,0,0,0,0,0
5,59999,28,50000,1,10000,40,9999,0.100000,0,0,0.000000,5,0.000000,0.000000,2.257952,0,0,0,0,0,0,0
5,59999,29,50000,3,30000,40,9999,0.100000,0,0,0.000000,5,0.000000,0.000000,0.235801,0,0,0,0,0,0,0
5,59999,30,50000,12,0,49,9999,0.100000,0,0,0.000000,5,2.000000,0.000000,11.403832,0,0,0,0,0,0,0
5,59999,31,50000,1,10000,49,9999,0.100000,0,0,0.000000,5,2.000000,0.000000,2.890702,0,0,0,0,0,0,0
5,59999,32,50000,87,30000,40,9999,0.100000,0,0,0.000000,5,0.000000,0.000000,0.338920,0,0,0,0,0,0,0
5,59999,33,50000,87,30000,49,9999,0.100000,0,0,0.000000,5,2.000000,0.000000,13.303706,0,0,0,0,0,0,0
5,59999,34,50000,87,30000,40,9999,0.100000,0,0,0.000000,5,0.000000,0.000000,0.311210,0,0,0,0,0,0,0
5,59999,35,50000,87,30000,40,9999,0.100000,0,0,0.000000,5,0.000000,0.000000,1.235344,0,0,0,0,0,0,0
5,59999,36,50000,1,10000,40,9999,0.100000,0,0,0.000000,5,0.000000,0.000000,1.086263,0,0,0,0,0,0,0
5,59999,37,50000,3,30000,40,9999,0.100000,0,0,0.000000,5,0.000000,0.000000,0.137167,0,0,0,0,0,0,0
5,59999,38,50000,3,30000,49,9999,0.100000,0,0,0.000000,5,2.000000,0.000000,3.002914,0,0,0,0,0,0,0
5,59999,39,50000,1,10000,40,9999,0.100000,0,0,0.000000,5,0.000000,0.000000,0.630078,0,0,0,0,0,0,0
5,59999,40,50000,3,30000,49,9999,0.100000,0,0,0.000000,5,2.000000,0.000000,2.898863,0,0,0,0,0,0,0
5,59999,41,50000,3,30000,40,9999,0.100000,0,0,0.000000,5,0.000000,0.000000,0.171999,0,0,0,0,0,0,0
5,59999,42,50000,93,20000,40,9999,0.100000,0,0,0.000000,5,0.000000,0.000000,0.217938,0,0,0,0,0,0,0
5,59999,43,50000,87,30000,49,9999,0.100000,0,0,0.000000,5,3.000000,0.000000,10.218118,0,0,0,0,0,0,0
5,59999,44,50000,87,30000,40,9999,0.100000,0,0,0.000000,5,0.000000,0.000000,1.616389,0,0,0,0,0,0,0
5,59999,45,50000,12,0,40,9999,0.100000,0,0,0.000000,5,0.000000,0.000000,0.213350,0,0,0,0,0,0,0
5,59999,46,50000,1,10000,40,9999,0.100000,0,0,0.000000,5,0.000000,0.000000,2.286710,0,0,0,0,0,0,0
5,59999,47,50000,3,30000,49,9999,0.100000,0,0,0.000000,5,3.000000,0.000000,8.794093,0,0,0,0,0,0,0
5,59999,48,50000,93,20000,40,9999,0.100000,0,0,0.000000,5,0.000000,0.000000,4.887867,0,0,0,0,0,0,0
5,59999,49,50000,93,20000,40,9999,0.100000,0,0,0.000000,5,0.000000,0.000000,0.128453,0,0,0,0,0,0,0
5,59999,50,50000,3,30000,49,9999,0.100000,0,0,0.000000,5,9.000000,0.000000,20.157785,0,0,0,0,0,0,0
5,59999,51,50000,1,10000,49,9999,0.100000,0,0,0.000000,5,2.000000,0.000000,6.414872,0,0,0,0,0,0,0
5,59999,52,50000,12,0,40,9999,0.100000,0,0,0.000000,5,0.000000,0.000000,0.245145,0,0,0,0,0,0,0
5,59999,53,50000,1,10000,40,9999,0.100000,0,0,0.000000,5,0.000000,0.000000,0.119654,0,0,0,0,0,0,0
5,59999,54,50000,3,30000,40,9999,0.100000,0,0,0.000000,5,0.000000,0.000000,0.064681,0,0,0,0,0,0,0
5,59999,55,50000,1,10000,40,9999,0.100000,0,0,0.000000,5,0.000000,0.000000,0.096694,0,0,0,0,0,0,0
5,59999,56,50000,12,0,40,9999,0.100000,0,0,0.000000,5,0.000000,0.000000,0.167523,0,0,0,0,0,0,0
5,59999,57,50000,1,10000,9,9999,0.100000,0,0,34.210526,5,10.000000,0.000000,14.842250,0,0,0,1,0,0,0
5,59999,58,50000,12,0,49,9999,0.100000,0,0,0.000000,5,6.000000,0.000000,12.652545,0,0,0,0,0,0,0
5,59999,59,50000,3,30000,40,9999,0.100000,0,0,0.000000,5,0.000000,0.000000,0.115639,0,0,0,0,0,0,0
5,59999,60,50000,1,10000,40,9999,0.100000,0,0,0.000000,5,0.000000,0.000000,4.905566,0,0,0,0,0,0,0
5,59999,61,50000,93,20000,40,9999,0.100000,0,0,0.000000,5,0.000000,0.000000,0.358202,0,0,0,0,0,0,0
5,59999,62,50000,87,30000,40,9999,0.100000,0,0,0.000000,5,0.000000,0.000000,1.965335,0,0,0,0,0,0,0
5,59999,63,50000,93,20000,40,9999,0.100000,0,0,0.000000,5,0.000000,0.000000,0.085422,0,0,0,0,0,0,0
5,59999,64,50000,93,20000,40,9999,0.100000,0,0,0.000000,5,0.000000,0.000000,0.067860,0,0,0,0,0,0,0
5,59999,65,50000,87,30000,40,9999,0.100000,0,0,0.000000,5,0.000000,0.000000,0.169136,0,0,0,0,0,0,0
5,59999,66,50000,1,10000,40,9999,0.100000,0,0,0.000000,5,0.000000,0.000000,0.463112,0,0,0,0,0,0,0
5,59999,67,50000,3,30000,40,9999,0.100000,0,0,0.000000,5,0.000000,0.000000,0.539724,0,0,0,0,0,0,0
5,59999,68,50000,87,30000,40,9999,0.100000,0,0,0.000000,5,0.000000,0.000000,0.374987,0,0,0,0,0,0,0
5,59999,69,50000,3,30000,40,9999,0.100000,0,0,0.000000,5,0.000000,0.000000,0.517699,0,0,0,0,0,0,0
5,59999,70,50000,93,20000,49,9999,0.100000,0,0,0.000000,5,2.000000,0.000000,3.279903,0,0,0,0,0,0,0
5,59999,71,50000,87,30000,40,9999,0.100000,0,0,0.000000,5,0.000000,0.000000,0.986578,0,0,0,0,0,0,0
5,59999,72,50000,3,30000,40,9999,0.100000,0,0,0.000000,5,0.000000,0.000000,1.152808,0,0,0,0,0,0,0
5,59999,73,50000,12,0,40,9999,0.100000,0,0,0.000000,5,0.000000,0.000000,4.961312,0,0,0,0,0,0,0
5,59999,74,50000,87,30000,40,9999,0.100000,0,0,0.000000,5,0.000000,0.000000,0.802597,0,0,0,0,0,0,0
5,59999,75,50000,3,30000,40,9999,0.100000,0,0,0.000000,5,0.000000,0.000000,0.966481,0,0,0,0,0,0,0
5,59999,76,50000,87,30000,40,9999,0.100000,0,0,0.000000,5,0.000000,0.000000,0.281300,0,0,0,0,0,0,0
5,59999,77,50000,3,30000,40,9999,0.100000,0,0,0.000000,5,0.000000,0.000000,0.579170,0,0,0,0,0,0,0
5,59999,78,50000,93,20000,40,9999,0.100000,0,0,0.000000,5,0.000000,0.000000,0.913314,0,0,0,0,0,0,0
5,59999,79,50000,93,20000,40,9999,0.100000,0,0,0.000000,5,0.000000,0.000000,0.196140,0,0,0,0,0,0,0
5,59999,80,50000,87,30000,49,9999,0.100000,0,0,0.000000,5,1.000000,0.000000,13.941866,0,0,0,0,0,0,0
5,59999,81,50000,1,10000,40,9999,0.100000,0,0,0.000000,5,0.000000,0.000000,0.714038,0,0,0,0,0,0,0
5,59999,82,50000,93,20000,40,9999,0.100000,0,0,0.000000,5,0.000000,0.000000,5.740935,0,0,0,0,0,0,0
5,59999,83,50000,12,0,49,9999,0.100000,0,0,0.000000,5,5.000000,0.000000,6.601437,0,0,0,0,0,0,0
5,59999,84,50000,1,10000,40,9999,0.100000,0,0,0.000000,5,0.000000,0.000000,0.103825,0,0,0,0,0,0,0
5,59999,85,50000,87,30000,49,9999,0.100000,0,0,0.000000,5,1.000000,0.000000,6.712018,0,0,0,0,0,0,0
5,59999,86,50000,93,20000,49,9999,0.100000,0,0,0.000000,5,1.000000,0.000000,8.323618,0,0,0,0,0,0,0
5,59999,87,50000,87,30000,40,9999,0.100000,0,0,0.000000,5,0.000000,0.000000,0.567275,0,0,0,0,0,0,0
5,59999,88,50000,93,20000,40,9999,0.100000,0,0,0.000000,5,0.000000,0.000000,0.212957,0,0,0,0,0,0,0
5,59999,89,50000,12,0,40,9999,0.100000,0,0,0.000000,5,0.000000,0.000000,0.099598,0,0,0,0,0,0,0
5,59999,90,50000,93,20000,0,9999,0.065000,0,0,0.000000,5,0.000000,0.000000,3.149635,0,0,0,0,0,0,1
5,59999,91,50000,12,0,40,9999,0.100000,0,0,0.000000,5,0.000000,0.000000,0.156291,0,0,0,0,0,0,0
5,59999,92,50000,3,30000,40,9999,0.100000,0,0,0.000000,5,0.000000,0.000000,0.163840,0,0,0,0,0,0,0
5,59999,93,50000,1,10000,40,9999,0.100000,0,0,0.000000,5,0.000000,0.000000,0.068574,0,0,0,0,0,0,0
5,59999,94,50000,87,30000,40,9999,0.100000,0,0,0.000000,5,0.000000,0.000000,0.185609,0,0,0,0,0,0,0
5,59999,95,50000,87,30000,40,9999,0.100000,0,0,0.000000,5,0.000000,0.000000,0.873229,0,0,0,0,0,0,0
5,59999,96,50000,93,20000,49,9999,0.100000,0,0,0.000000,5,2.000000,0.000000,2.855860,0,0,0,0,0,0,0
5,59999,97,50000,93,20000,40,9999,0.100000,0,0,0.000000,5,0.000000,0.000000,0.293804,0,0,0,0,0,0,0
5,59999,98,50000,1,10000,40,9999,0.100000,0,0,0.000000,5,0.000000,0.000000,0.085248,0,0,0,0,0,0,0
5,59999,99,50000,87,30000,40,9999,0.100000,0,0,0.000000,5,0.000000,0.000000,0.249968,0,0,0,0,0,0,0
6,69999,0,60000,93,20000,49,9999,0.100000,0,0,0.000000,5,5.000000,0.000000,7.788435,0,0,0,0,0,0,0
6,69999,1,60000,1,10000,40,9999,0.100000,0,0,0.000000,5,0.000000,0.000000,0.529527,0,0,0,0,0,0,0
6,69999,2,60000,93,20000,49,9999,0.100000,0,0,0.000000,5,2.000000,0.000000,8.370596,0,0,0,0,0,0,0
6,69999,3,60000,12,0,40,9999,0.100000,0,0,0.000000,5,0.000000,0.000000,3.509400,0,0,0,0,0,0,0
6,69999,4,60000,3,30000,49,9999,0.100000,0,0,0.000000,5,2.000000,0.000000,5.930431,0,0,0,0,0,0,0
6,69999,5,50000,1,10000,40,19999,0.100000,0,0,0.000000,5,0.000000,0.000000,0.582663,0,0,0,0,0,0,0
6,69999,6,60000,93,20000,49,9999,0.100000,0,0,0.000000,5,1.000000,0.000000,2.252303,0,0,0,0,0,0,0
6,69999,7,60000,12,0,40,9999,0.100000,0,0,0.000000,5,0.000000,0.000000,0.085713,0,0,0,0,0,0,0
6,69999,8,60000,3,30000,40,9999,0.100000,0,0,0.000000,5,0.000000,0.000000,1.040901,0,0,0,0,0,0,0
6,69999,9,60000,12,0,40,9999,0.100000,0,0,0.000000,5,0.000000,0.000000,0.408716,0,0,0,0,0,0,0
6,69999,10,60000,3,30000,40,9999,0.100000,0,0,0.000000,5,0.000000,0.000000,0.354171,0,0,0,0,0,0,0
6,69999,11,60000,87,30000,40,9999,0.100000,0,0,0.000000,5,0.000000,0.000000,0.117063,0,0,0,0,0,0,0
6,69999,12,60000,87,30000,49,9999,0.100000,0,0,0.000000,5,2.000000,0.000000,13.371588,0,0,0,0,0,0,0
6,69999,13,60000,87,30000,40,9999,0.100000,0,0,0.000000,5,0.000000,0.000000,0.112473,0,0,0,0,0,0,0
6,69999,14,60000,1,10000,40,9999,0.100000,0,0,0.000000,5,0.000000,0.000000,0.353379,0,0,0,0,0,0,0
6,69999,15,60000,12,0,40,9999,0.100000,0,0,0.000000,5,0.000000,0.000000,0.138142,0,0,0,0,0,0,0
6,69999,16,60000,3,30000,40,9999,0.100000,0,0,0.000000,5,0.000000,0.000000,1.831423,0,0,0,0,0,0,0
6,69999,17,60000,87,30000,40,9999,0.100000,0,0,0.000000,5,0.000000,0.000000,0.081064,0,0,0,0,0,0,0
6,69999,18,60000,93,20000,40,9999,0.100000,0,0,0.000000,5,0.000000,0.000000,1.990588,0,0,0,0,0,0,0
6,69999,19,60000,93,20000,40,9999,0.100000,0,0,0.000000,5,0.000000,0.000000,0.092364,0,0,0,0,0,0,0
6,69999,20,60000,1,10000,49,9999,0.100000,0,0,0.000000,5,1.000000,0.000000,1.891910,0,0,0,0,0,0,0
6,69999,21,60000,3,30000,40,9999,0.100000,0,0,0.000000,5,0.000000,0.000000,0.644260,0,0,0,0,0,0,0
6,69999,22,60000,1,10000,40,9999,0.100000,0,0,0.000000,5,0.000000,0.000000,0.603511,0,0,0,0,0,0,0
6,69999,23,60000,93,20000,40,9999,0.100000,0,0,0.000000,5,0.000000,0.000000,1.121725,0,0,0,0,0,0,0
6,69999,24,60000,12,0,40,9999,0.100000,0,0,0.000000,5,0.000000,0.000000,0.122667,0,0,0,0,0,0,0
6,69999,25,60000,12,0,40,9999,0.100000,0,0,0.000000,5,0.000000,0.000000,0.077123,0,0,0,0,0,0,0
6,69999,26,60000,1,10000,40,9999,0.100000,0,0,0.000000,5,0.000000,0.000000,0.072344,0,0,0,0,0,0,0
6,69999,27,60000,1,10000,49,9999,0.100000,0,0,0.000000,5,2.000000,0.000000,6.610143,0,0,0,0,0,0,0
6,69999,28,60000,12,0,40,9999,0.100000,0,0,0.000000,5,0.000000,0.000000,7.908100,0,0,0,0,0,0,0
6,69999,29,60000,87,30000,40,9999,0.100000,0,0,0.000000,5,0.000000,0.000000,0.099482,0,0,0,0,0,0,0
6,69999,30,60000,3,30000,49,9999,0.100000,0,0,0.000000,5,3.000000,0.000000,8.366651,0,0,0,0,0,0,0
6,69999,31,60000,93,20000,49,9999,0.100000,0,0,0.000000,5,1.000000,0.000000,1.500620,0,0,0,0,0,0,0
6,69999,32,60000,12,0,40,9999,0.100000,0,0,0.000000,5,0.000000,0.000000,0.136522,0,0,0,0,0,0,0
6,69999,33,60000,87,30000,49,9999,0.100000,0,0,0.000000,5,2.000000,0.000000,9.341255,0,0,0,0,0,0,0
6,69999,34,60000,1,10000,49,9999,0.100000,0,0,0.000000,5,1.000000,0.000000,1.357249,0,0,0,0,0,0,0
6,69999,35,60000,1,10000,40,9999,0.100000,0,0,0.000000,5,0.000000,0.000000,0.129542,0,0,0,0,0,0,0
6,69999,36,60000,1,10000,49,9999,0.100000,0,0,0.000000,5,2.000000,0.000000,9.215040,0,0,0,0,0,0,0
6,69999,37,60000,1,10000,40,9999,0.100000,0,0,0.000000,5,0.000000,0.000000,0.130857,0,0,0,0,0,0,0
6,69999,38,60000,87,30000,49,9999,0.100000,0,0,0.000000,5,1.000000,0.000000,1.813516,0,0,0,0,0,0,0
6,69999,39,60000,87,30000,40,9999,0.100000,0,0,0.000000,5,0.000000,0.000000,0.758530,0,0,0,0,0,0,0
6,69999,40,60000,87,30000,49,9999,0.100000,0,0,0.000000,5,1.000000,0.000000,1.440663,0,0,0,0,0,0,0
6,69999,41,60000,87,30000,40,9999,0.100000,0,0,0.000000,5,0.000000,0.000000,0.162590,0,0,0,0,0,0,0
6,69999,42,60000,93,20000,40,9999,0.100000,0,0,0.000000,5,0.000000,0.000000,1.311303,0,0,0,0,0,0,0
6,69999,43,60000,87,30000,40,9999,0.100000,0,0,0.000000,5,0.000000,0.000000,3.352760,0,0,0,0,0,0,0
6,69999,44,60000,93,20000,40,9999,0.100000,0,0,0.000000,5,0.000000,0.000000,0.491357,0,0,0,0,0,0,0
6,69999,45,60000,1,10000,40,9999,0.100000,0,0,0.000000,5,0.000000,0.000000,0.223668,0,0,0,0,0,0,0
6,69999,46,60000,93,20000,49,9999,0.100000,0,0,0.000000,5,5.000000,0.000000,8.710684,0,0,0,0,0,0,0
6,69999,47,60000,93,20000,40,9999,0.100000,0,0,0.000000,5,0.000000,0.000000,3.166222,0,0,0,0,0,0,0
6,69999,48,60000,12,0,40,9999,0.100000,0,0,0.000000,5,0.000000,0.000000,2.894213,0,0,0,0,0,0,0
6,69999,49,60000,87,30000,40,9999,0.100000,0,0,0.000000,5,0.000000,0.000000,0.129972,0,0,0,0,0,0,0
6,69999,50,60000,1,10000,40,9999,0.100000,0,0,0.000000,5,0.000000,0.000000,0.110340,0,0,0,0,0,0,0
6,69999,51,60000,12,0,49,9999,0.100000,0,0,0.000000,5,2.000000,0.000000,8.835273,0,0,0,0,0,0,0
6,69999,52,60000,1,10000,40,9999,0.100000,0,0,0.000000,5,0.000000,0.000000,0.284886,0,0,0,0,0,0,0
6,69999,53,60000,87,30000,40,9999,0.100000,0,0,0.000000,5,0.000000,0.000000,0.182306,0,0,0,0,0,0,0
6,69999,54,60000,93,20000,40,9999,0.100000,0,0,0.000000,5,0.000000,0.000000,0.244238,0,0,0,0,0,0,0
6,69999,55,60000,3,30000,40,9999,0.100000,0,0,0.000000,5,0.000000,0.000000,0.090833,0,0,0,0,0,0,0
6,69999,56,60000,12,0,40,9999,0.100000,0,0,0.000000,5,0.000000,0.000000,0.781258,0,0,0,0,0,0,0
6,69999,57,60000,1,10000,40,9999,0.100000,0,0,0.000000,5,0.000000,0.000000,0.083324,0,0,0,0,0,0,0
6,69999,58,60000,87,30000,40,9999,0.100000,0,0,0.000000,5,0.000000,0.000000,0.083524,0,0,0,0,0,0,0
6,69999,59,60000,1,10000,40,9999,0.135000,0,0,0.000000,5,0.000000,0.000000,0.113128,0,0,0,0,0,0,0
6,69999,60,60000,1,10000,49,9999,0.100000,0,0,0.000000,5,1.000000,0.000000,16.102558,0,0,0,0,0,0,0
6,69999,61,60000,87,30000,40,9999,0.100000,0,0,0.000000,5,0.000000,0.000000,0.159196,0,0,0,0,0,0,0
6,69999,62,60000,87,30000,40,9999,0.100000,0,0,0.000000,5,0.000000,0.000000,1.344018,0,0,0,0,0,0,0
6,69999,63,60000,87,30000,40,9999,0.100000,0,0,0.000000,5,0.000000,0.000000,0.085912,0,0,0,0,0,0,0
6,69999,64,60000,93,20000,40,9999,0.100000,0,0,0.000000,5,0.000000,0.000000,0.067390,0,0,0,0,0,0,0
6,69999,65,60000,12,0,40,9999,0.100000,0,0,0.000000,5,0.000000,0.000000,0.175943,0,0,0,0,0,0,0
6,69999,66,60000,93,20000,40,9999,0.100000,0,0,0.000000,5,0.000000,0.000000,0.455906,0,0,0,0,0,0,0
6,69999,67,60000,87,30000,40,9999,0.100000,0,0,0.000000,5,0.000000,0.000000,0.206142,0,0,0,0,0,0,0
6,69999,68,60000,3,30000,49,9999,0.100000,0,0,0.000000,5,5.000000,0.000000,7.154343,0,0,0,0,0,0,0
6,69999,69,60000,1,10000,40,9999,0.100000,0,0,0.000000,5,0.000000,0.000000,1.053472,0,0,0,0,0,0,0
6,69999,70,60000,3,30000,40,9999,0.100000,0,0,0.000000,5,0.000000,0.000000,0.141257,0,0,0,0,0,0,0
6,69999,71,60000,3,30000,40,9999,0.100000,0,0,0.000000,5,0.000000,0.000000,0.998479,0,0,0,0,0,0,0
6,69999,72,60000,1,10000,49,9999,0.100000,0,0,0.000000,5,1.000000,0.000000,4.217000,0,0,0,0,0,0,0
6,69999,73,60000,1,10000,40,9999,0.100000,0,0,0.000000,5,0.000000,0.000000,1.722061,0,0,0,0,0,0,0
6,69999,74,60000,12,0,40,9999,0.100000,0,0,0.000000,5,0.000000,0.000000,0.553855,0,0,0,0,0,0,0
6,69999,75,60000,87,30000,40,9999,0.100000,0,0,0.000000,5,0.000000,0.000000,0.836357,0,0,0,0,0,0,0
6,69999,76,60000,87,30000,40,9999,0.100000,0,0,0.000000,5,0.000000,0.000000,0.292877,0,0,0,0,0,0,0
6,69999,77,60000,12,0,40,9999,0.100000,0,0,0.000000,5,0.000000,0.000000,0.713892,0,0,0,0,0,0,0
6,69999,78,60000,12,0,9,9999,0.100000,0,0,34.210526,5,2.000000,0.000000,10.136601,0,0,0,1,0,0,0
6,69999,79,60000,12,0,40,9999,0.100000,0,0,0.000000,5,0.000000,0.000000,0.193235,0,0,0,0,0,0,0
6,69999,80,60000,1,10000,40,9999,0.100000,0,0,0.000000,5,0.000000,0.000000,5.303063,0,0,0,0,0,0,0
6,69999,81,60000,12,0,40,9999,0.100000,0,0,0.000000,5,0.000000,0.000000,0.465209,0,0,0,0,0,0,0
6,69999,82,60000,93,20000,49,9999,0.100000,0,0,0.000000,5,1.000000,0.000000,8.055963,0,0,0,0,0,0,0
6,69999,83,60000,12,0,40,9999,0.100000,0,0,0.000000,5,0.000000,0.000000,0.601138,0,0,0,0,0,0,0
6,69999,84,60000,93,20000,40,9999,0.100000,0,0,0.000000,5,0.000000,0.000000,0.101808,0,0,0,0,0,0,0
6,69999,85,60000,1,10000,40,9999,0.100000,0,0,0.000000,5,0.000000,0.000000,1.752221,0,0,0,0,0,0,0
6,69999,86,60000,1,10000,40,9999,0.100000,0,0,0.000000,5,0.000000,0.000000,8.198914,0,0,0,0,0,0,0
6,69999,87,60000,93,20000,40,9999,0.100000,0,0,0.000000,5,0.000000,0.000000,0.477193,0,0,0,0,0,0,0
6,69999,88,60000,1,10000,40,9999,0.100000,0,0,0.000000,5,0.000000,0.000000,3.095645,0,0,0,0,0,0,0
6,69999,89,60000,3,30000,40,9999,0.100000,0,0,0.000000,5,0.000000,0.000000,0.100512,0,0,0,0,0,0,0
6,69999,90,60000,3,30000,40,9999,0.100000,0,0,0.000000,5,0.000000,0.000000,6.761902,0,0,0,0,0,0,0
6,69999,91,60000,93,20000,40,9999,0.100000,0,0,0.000000,5,0.000000,0.000000,0.164782,0,0,0,0,0,0,0
6,69999,92,60000,87,30000,40,9999,0.100000,0,0,0.000000,5,0.000000,0.000000,0.191527,0,0,0,0,0,0,0
6,69999,93,60000,87,30000,40,9999,0.100000,0,0,0.000000,5,0.000000,0.000000,0.065794,0,0,0,0,0,0,0
6,69999,94,60000,12,0,40,9999,0.100000,0,0,0.000000,5,0.000000,0.000000,0.181728,0,0,0,0,0,0,0
6,69999,95,60000,87,30000,9,9999,0.100000,0,0,34.210526,5,2.000000,0.000000,8.347920,0,0,0,1,0,0,0
6,69999,96,60000,3,30000,49,9999,0.100000,0,0,0.000000,5,1.000000,0.000000,1.432195,0,0,0,0,0,0,0
6,69999,97,60000,87,30000,49,9999,0.100000,0,0,0.000000,5,5.000000,0.000000,11.078477,0,0,0,0,0,0,0
6,69999,98,60000,87,30000,40,9999,0.100000,0,0,0.000000,5,0.000000,0.000000,0.083867,0,0,0,0,0,0,0
6,69999,99,60000,87,30000,40,9999,0.100000,0,0,0.000000,5,0.000000,0.000000,0.532323,0,0,0,0,0,0,0
7,79999,0,70000,1,10000,40,9999,0.100000,0,0,0.000000,5,0.000000,0.000000,0.928114,0,0,0,0,0,0,0
7,79999,1,70000,95,60000,49,9999,0.100000,0,0,0.000000,6,2.000000,0.000000,10.625291,0,0,0,0,0,0,0
7,79999,2,70000,87,30000,49,9999,0.100000,0,0,0.000000,5,1.000000,0.000000,2.223997,0,0,0,0,0,0,0
7,79999,3,70000,1,10000,40,9999,0.100000,0,0,0.000000,6,0.000000,0.000000,0.454344,0,0,0,0,0,0,0
7,79999,4,70000,93,20000,49,9999,0.100000,0,0,0.000000,5,1.000000,0.000000,5.241058,0,0,0,0,0,0,0
7,79999,5,70000,95,60000,40,9999,0.100000,0,0,0.000000,6,0.000000,0.000000,1.387289,0,0,0,0,0,0,0
7,79999,6,70000,3,30000,49,9999,0.100000,0,0,0.000000,6,1.000000,0.000000,13.602990,0,0,0,0,0,0,0
7,79999,7,70000,3,30000,40,9999,0.100000,0,0,0.000000,5,0.000000,0.000000,0.127538,0,0,0,0,0,0,0
7,79999,8,70000,3,30000,40,9999,0.100000,0,0,0.000000,6,0.000000,0.000000,1.789793,0,0,0,0,0,0,0
7,79999,9,70000,93,20000,40,9999,0.100000,0,0,0.000000,6,0.000000,0.000000,2.160974,0,0,0,0,0,0,0
7,79999,10,70000,12,0,40,9999,0.100000,0,0,0.000000,6,0.000000,0.000000,4.058848,0,0,0,0,0,0,0
7,79999,11,70000,93,20000,40,9999,0.100000,0,0,0.000000,6,0.000000,0.000000,0.119450,0,0,0,0,0,0,0
7,79999,12,70000,95,60000,40,9999,0.100000,0,0,0.000000,6,0.000000,0.000000,12.871769,0,0,0,0,0,0,0
7,79999,13,70000,3,30000,40,9999,0.100000,0,0,0.000000,5,0.000000,0.000000,0.155750,0,0,0,0,0,0,0
7,79999,14,70000,1,10000,40,9999,0.100000,0,0,0.000000,6,0.000000,0.000000,0.225637,0,0,0,0,0,0,0
7,79999,15,70000,95,60000,40,9999,0.100000,0,0,0.000000,6,0.000000,0.000000,0.135160,0,0,0,0,0,0,0
7,79999,16,70000,87,30000,40,9999,0.100000,0,0,0.000000,6,0.000000,0.000000,0.237433,0,0,0,0,0,0,0
7,79999,17,70000,1,10000,40,9999,0.100000,0,0,0.000000,6,0.000000,0.000000,0.080800,0,0,0,0,0,0,0
7,79999,18,70000,12,0,40,9999,0.100000,0,0,0.000000,5,0.000000,0.000000,0.091020,0,0,0,0,0,0,0
7,79999,19,70000,1,10000,40,9999,0.100000,0,0,0.000000,6,0.000000,0.000000,0.096197,0,0,0,0,0,0,0
7,79999,20,70000,87,30000,9,9999,0.100000,0,0,0.000000,5,1.000000,0.000000,11.781105,0,0,0,0,1,0,0
7,79999,21,70000,1,10000,40,9999,0.100000,0,0,0.000000,6,0.000000,0.000000,0.485583,0,0,0,0,0,0,0
7,79999,22,70000,93,20000,40,9999,0.100000,0,0,0.000000,6,0.000000,0.000000,0.635887,0,0,0,0,0,0,0
7,79999,23,70000,3,30000,40,9999,0.100000,0,0,0.000000,6,0.000000,0.000000,0.116380,0,0,0,0,0,0,0
7,79999,24,70000,93,20000,40,9999,0.100000,0,0,0.000000,6,0.000000,0.000000,0.110710,0,0,0,0,0,0,0
7,79999,25,70000,1,10000,40,9999,0.100000,0,0,0.000000,6,0.000000,0.000000,0.078510,0,0,0,0,0,0,0
7,79999,26,70000,93,20000,40,9999,0.100000,0,0,0.000000,6,0.000000,0.000000,0.071618,0,0,0,0,0,0,0
7,79999,27,70000,12,0,49,9999,0.100000,0,0,0.000000,6,2.000000,0.000000,14.897043,0,0,0,0,0,0,0
7,79999,28,70000,95,60000,40,9999,0.100000,0,0,0.000000,6,0.000000,0.000000,6.184321,0,0,0,0,0,0,0
7,79999,29,70000,93,20000,40,9999,0.100000,0,0,0.000000,6,0.000000,0.000000,0.092210,0,0,0,0,0,0,0
7,79999,30,70000,12,0,40,9999,0.100000,0,0,0.000000,6,0.000000,0.000000,11.793867,0,0,0,0,0,0,0
7,79999,31,70000,12,0,49,9999,0.135000,0,0,0.000000,6,3.000000,0.000000,16.679497,0,0,0,0,0,0,0
7,79999,32,70000,1,10000,40,9999,0.100000,0,0,0.000000,5,0.000000,0.000000,0.133152,0,0,0,0,0,0,0
7,79999,33,70000,1,10000,40,9999,0.100000,0,0,0.000000,6,0.000000,0.000000,5.509369,0,0,0,0,0,0,0
7,79999,34,70000,1,10000,40,9999,0.100000,0,0,0.000000,6,0.000000,0.000000,0.500177,0,0,0,0,0,0,0
7,79999,35,70000,93,20000,40,9999,0.100000,0,0,0.000000,6,0.000000,0.000000,0.131278,0,0,0,0,0,0,0
7,79999,36,70000,93,20000,49,9999,0.100000,0,0,0.000000,6,1.000000,0.000000,2.061979,0,0,0,0,0,0,0
7,79999,37,70000,1,10000,40,9999,0.100000,0,0,0.000000,6,0.000000,0.000000,0.132588,0,0,0,0,0,0,0
7,79999,38,70000,1,10000,49,9999,0.100000,0,0,0.000000,6,3.000000,0.000000,3.538659,0,0,0,0,0,0,0
7,79999,39,70000,3,30000,49,9999,0.100000,0,0,0.000000,5,2.000000,0.000000,11.310587,0,0,0,0,0,0,0
7,79999,40,70000,12,0,49,9999,0.100000,0,0,0.000000,5,3.000000,0.000000,3.721084,0,0,0,0,0,0,0
7,79999,41,70000,93,20000,40,9999,0.100000,0,0,0.000000,6,0.000000,0.000000,0.164254,0,0,0,0,0,0,0
7,79999,42,70000,12,0,40,9999,0.100000,0,0,0.000000,6,0.000000,0.000000,4.499098,0,0,0,0,0,0,0
7,79999,43,70000,12,0,40,9999,0.100000,0,0,0.000000,6,0.000000,0.000000,3.051393,0,0,0,0,0,0,0
7,79999,44,70000,1,10000,40,9999,0.100000,0,0,0.000000,5,0.000000,0.000000,1.183521,0,0,0,0,0,0,0
7,79999,45,70000,12,0,40,9999,0.100000,0,0,0.000000,6,0.000000,0.000000,0.209314,0,0,0,0,0,0,0
7,79999,46,70000,3,30000,40,9999,0.100000,0,0,0.000000,6,0.000000,0.000000,1.296210,0,0,0,0,0,0,0
7,79999,47,70000,1,10000,40,9999,0.100000,0,0,0.000000,5,0.000000,0.000000,3.029761,0,0,0,0,0,0,0
7,79999,48,70000,93,20000,40,9999,0.100000,0,0,0.000000,6,0.000000,0.000000,3.725645,0,0,0,0,0,0,0
7,79999,49,70000,12,0,40,9999,0.100000,0,0,0.000000,6,0.000000,0.000000,0.129841,0,0,0,0,0,0,0
7,79999,50,70000,3,30000,40,9999,0.100000,0,0,0.000000,6,0.000000,0.000000,0.118941,0,0,0,0,0,0,0
7,79999,51,70000,1,10000,40,9999,0.100000,0,0,0.000000,6,0.000000,0.000000,6.451413,0,0,0,0,0,0,0
7,79999,52,70000,1,10000,40,9999,0.100000,0,0,0.000000,5,0.000000,0.000000,0.245875,0,0,0,0,0,0,0
7,79999,53,70000,12,0,40,9999,0.100000,0,0,0.000000,6,0.000000,0.000000,0.161299,0,0,0,0,0,0,0
7,79999,54,70000,1,10000,40,9999,0.100000,0,0,0.000000,6,0.000000,0.000000,0.952622,0,0,0,0,0,0,0
7,79999,55,70000,93,20000,40,9999,0.100000,0,0,0.000000,6,0.000000,0.000000,0.087609,0,0,0,0,0,0,0
7,79999,56,70000,12,0,49,9999,0.100000,0,0,0.000000,6,1.000000,0.000000,4.560059,0,0,0,0,0,0,0
7,79999,57,70000,93,20000,40,9999,0.100000,0,0,0.000000,6,0.000000,0.000000,0.148274,0,0,0,0,0,0,0
7,79999,58,70000,1,10000,40,9999,0.100000,0,0,0.000000,6,0.000000,0.000000,0.080850,0,0,0,0,0,0,0
7,79999,59,70000,1,10000,40,9999,0.100000,0,0,0.000000,6,0.000000,0.000000,0.112003,0,0,0,0,0,0,0
7,79999,60,70000,12,0,49,9999,0.100000,0,0,0.000000,5,1.000000,0.000000,6.503143,0,0,0,0,0,0,0
7,79999,61,70000,93,20000,40,9999,0.100000,0,0,0.000000,5,0.000000,0.000000,0.154651,0,0,0,0,0,0,0
7,79999,62,70000,12,0,40,9999,0.100000,0,0,0.000000,6,0.000000,0.000000,2.094590,0,0,0,0,0,0,0
7,79999,63,70000,1,10000,40,9999,0.100000,0,0,0.000000,6,0.000000,0.000000,0.127613,0,0,0,0,0,0,0
7,79999,64,70000,1,10000,40,9999,0.100000,0,0,0.000000,5,0.000000,0.000000,0.111009,0,0,0,0,0,0,0
7,79999,65,70000,95,60000,40,9999,0.100000,0,0,0.000000,6,0.000000,0.000000,0.207957,0,0,0,0,0,0,0
7,79999,66,70000,3,30000,40,9999,0.100000,0,0,0.000000,6,0.000000,0.000000,0.517500,0,0,0,0,0,0,0
7,79999,67,70000,93,20000,40,9999,0.100000,0,0,0.000000,6,0.000000,0.000000,0.126151,0,0,0,0,0,0,0
7,79999,68,70000,1,10000,40,9999,0.100000,0,0,0.000000,6,0.000000,0.000000,1.313404,0,0,0,0,0,0,0
7,79999,69,70000,87,30000,40,9999,0.100000,0,0,0.000000,5,0.000000,0.000000,0.333168,0,0,0,0,0,0,0
7,79999,70,70000,95,60000,40,9999,0.100000,0,0,0.000000,6,0.000000,0.000000,0.144826,0,0,0,0,0,0,0
7,79999,71,70000,1,10000,40,9999,0.100000,0,0,0.000000,5,0.000000,0.000000,0.987150,0,0,0,0,0,0,0
7,79999,72,70000,87,30000,40,9999,0.100000,0,0,0.000000,6,0.000000,0.000000,0.685345,0,0,0,0,0,0,0
7,79999,73,70000,87,30000,40,9999,0.100000,0,0,0.000000,5,0.000000,0.000000,0.226969,0,0,0,0,0,0,0
7,79999,74,70000,12,0,40,9999,0.100000,0,0,0.000000,6,0.000000,0.000000,0.438407,0,0,0,0,0,0,0
7,79999,75,70000,87,30000,40,9999,0.100000,0,0,0.000000,5,0.000000,0.000000,0.740741,0,0,0,0,0,0,0
7,79999,76,70000,93,20000,40,9999,0.100000,0,0,0.000000,6,0.000000,0.000000,0.291146,0,0,0,0,0,0,0
7,79999,77,70000,87,30000,40,9999,0.100000,0,0,0.000000,6,0.000000,0.000000,0.404221,0,0,0,0,0,0,0
7,79999,78,70000,93,20000,0,9999,0.100000,0,0,0.000000,6,0.000000,0.000000,2.621204,0,0,0,0,1,0,0
7,79999,79,70000,87,30000,40,9999,0.100000,0,0,0.000000,5,0.000000,0.000000,0.162730,0,0,0,0,0,0,0
7,79999,80,70000,1,10000,49,9999,0.100000,0,0,0.000000,6,1.000000,0.000000,6.803029,0,0,0,0,0,0,0
7,79999,81,70000,12,0,40,9999,0.100000,0,0,0.000000,6,0.000000,0.000000,0.366706,0,0,0,0,0,0,0
7,79999,82,70000,93,20000,40,9999,0.100000,0,0,0.000000,6,0.000000,0.000000,0.088400,0,0,0,0,0,0,0
7,79999,83,70000,87,30000,40,9999,0.100000,0,0,0.000000,6,0.000000,0.000000,1.610029,0,0,0,0,0,0,0
7,79999,84,70000,87,30000,40,9999,0.100000,0,0,0.000000,6,0.000000,0.000000,0.103900,0,0,0,0,0,0,0
7,79999,85,70000,95,60000,40,9999,0.100000,0,0,0.000000,6,0.000000,0.000000,0.971241,0,0,0,0,0,0,0
7,79999,86,70000,3,30000,0,9999,0.100000,0,0,0.000000,6,0.000000,0.000000,2.555354,0,0,0,0,1,0,0
7,79999,87,70000,95,60000,40,9999,0.100000,0,0,0.000000,6,0.000000,0.000000,0.501314,0,0,0,0,0,0,0
7,79999,88,70000,93,20000,40,9999,0.100000,0,0,0.000000,6,0.000000,0.000000,7.875383,0,0,0,0,0,0,0
7,79999,89,70000,3,30000,40,9999,0.100000,0,0,0.000000,5,0.000000,0.000000,0.101204,0,0,0,0,0,0,0
7,79999,90,70000,95,60000,40,9999,0.100000,0,0,0.000000,6,0.000000,0.000000,6.541125,0,0,0,0,0,0,0
7,79999,91,70000,87,30000,40,9999,0.100000,0,0,0.000000,5,0.000000,0.000000,0.159071,0,0,0,0,0,0,0
7,79999,92,70000,93,20000,40,9999,0.100000,0,0,0.000000,5,0.000000,0.000000,0.146023,0,0,0,0,0,0,0
7,79999,93,70000,3,30000,40,9999,0.100000,0,0,0.000000,6,0.000000,0.000000,0.065077,0,0,0,0,0,0,0
7,79999,94,70000,95,60000,40,9999,0.100000,0,0,0.000000,6,0.000000,0.000000,0.178068,0,0,0,0,0,0,0
7,79999,95,70000,1,10000,49,9999,0.100000,0,0,0.000000,6,1.000000,0.000000,5.072308,0,0,0,0,0,0,0
7,79999,96,70000,3,30000,49,9999,0.100000,0,0,0.000000,6,3.000000,0.000000,3.829026,0,0,0,0,0,0,0
7,79999,97,70000,95,60000,49,9999,0.100000,0,0,0.000000,6,5.000000,0.000000,11.026270,0,0,0,0,0,0,0
7,79999,98,70000,1,10000,40,9999,0.100000,0,0,0.000000,6,0.000000,0.000000,0.087965,0,0,0,0,0,0,0
7,79999,99,70000,87,30000,40,9999,0.100000,0,0,0.000000,6,0.000000,0.000000,0.100941,0,0,0,0,0,0,0
8,89999,0,80000,87,30000,40,9999,0.100000,0,0,0.000000,6,0.000000,0.000000,0.604986,0,0,0,0,0,0,0
8,89999,1,80000,12,0,49,9999,0.100000,0,0,0.000000,6,6.000000,0.000000,6.640711,0,0,0,0,0,0,0
8,89999,2,80000,87,30000,40,9999,0.100000,0,0,0.000000,6,0.000000,0.000000,1.265390,0,0,0,0,0,0,0
8,89999,3,80000,87,30000,40,9999,0.100000,0,0,0.000000,6,0.000000,0.000000,0.377890,0,0,0,0,0,0,0
8,89999,4,80000,12,0,40,9999,0.100000,0,0,0.000000,6,0.000000,0.000000,0.387145,0,0,0,0,0,0,0
8,89999,5,80000,87,30000,40,9999,0.100000,0,0,0.000000,6,0.000000,0.000000,0.434712,0,0,0,0,0,0,0
8,89999,6,80000,95,60000,40,9999,0.100000,0,0,0.000000,6,0.000000,0.000000,9.480211,0,0,0,0,0,0,0
8,89999,7,80000,95,60000,40,9999,0.100000,0,0,0.000000,6,0.000000,0.000000,0.125928,0,0,0,0,0,0,0
8,89999,8,80000,1,10000,49,9999,0.100000,0,0,0.000000,6,2.000000,0.000000,4.108764,0,0,0,0,0,0,0
8,89999,9,80000,1,10000,49,9999,0.100000,0,0,0.000000,6,8.000000,0.000000,9.417488,0,0,0,0,0,0,0
8,89999,10,80000,93,20000,40,9999,0.100000,0,0,0.000000,6,0.000000,0.000000,0.925555,0,0,0,0,0,0,0
8,89999,11,80000,93,20000,40,9999,0.100000,0,0,0.000000,6,0.000000,0.000000,0.141136,0,0,0,0,0,0,0
8,89999,12,80000,1,10000,49,9999,0.100000,0,0,0.000000,6,3.000000,0.000000,6.777497,0,0,0,0,0,0,0
8,89999,13,80000,87,30000,40,9999,0.100000,0,0,0.000000,6,0.000000,0.000000,0.102629,0,0,0,0,0,0,0
8,89999,14,80000,93,20000,40,9999,0.100000,0,0,0.000000,6,0.000000,0.000000,0.178324,0,0,0,0,0,0,0
8,89999,15,80000,93,20000,40,9999,0.100000,0,0,0.000000,6,0.000000,0.000000,0.145497,0,0,0,0,0,0,0
8,89999,16,80000,95,60000,40,9999,0.100000,0,0,0.000000,6,0.000000,0.000000,0.256787,0,0,0,0,0,0,0
8,89999,17,80000,12,0,40,9999,0.100000,0,0,0.000000,6,0.000000,0.000000,0.080423,0,0,0,0,0,0,0
8,89999,18,80000,1,10000,40,9999,0.100000,0,0,0.000000,6,0.000000,0.000000,0.056154,0,0,0,0,0,0,0
8,89999,19,80000,87,30000,40,9999,0.100000,0,0,0.000000,6,0.000000,0.000000,0.112497,0,0,0,0,0,0,0
8,89999,20,80000,95,60000,40,9999,0.100000,0,0,0.000000,6,0.000000,0.000000,1.268486,0,0,0,0,0,0,0
8,89999,21,80000,87,30000,40,9999,0.100000,0,0,0.000000,6,0.000000,0.000000,0.416504,0,0,0,0,0,0,0
8,89999,22,80000,87,30000,40,9999,0.100000,0,0,0.000000,6,0.000000,0.000000,0.628819,0,0,0,0,0,0,0
8,89999,23,80000,1,10000,40,9999,0.100000,0,0,0.000000,6,0.000000,0.000000,4.948863,0,0,0,0,0,0,0
8,89999,24,80000,93,20000,40,9999,0.100000,0,0,0.000000,6,0.000000,0.000000,0.116807,0,0,0,0,0,0,0
8,89999,25,80000,87,30000,40,9999,0.100000,0,0,0.000000,6,0.000000,0.000000,0.078623,0,0,0,0,0,0,0
8,89999,26,80000,95,60000,40,9999,0.100000,0,0,0.000000,6,0.000000,0.000000,0.072934,0,0,0,0,0,0,0
8,89999,27,80000,1,10000,49,9999,0.100000,0,0,0.000000,6,5.000000,0.000000,8.131209,0,0,0,0,0,0,0
8,89999,28,80000,95,60000,40,9999,0.100000,0,0,0.000000,6,0.000000,0.000000,2.889841,0,0,0,0,0,0,0
8,89999,29,80000,95,60000,40,9999,0.100000,0,0,0.000000,6,0.000000,0.000000,0.095730,0,0,0,0,0,0,0
8,89999,30,80000,3,30000,49,9999,0.100000,0,0,0.000000,6,1.000000,0.000000,5.992471,0,0,0,0,0,0,0
8,89999,31,80000,87,30000,40,9999,0.100000,0,0,0.000000,6,0.000000,0.000000,1.925616,0,0,0,0,0,0,0
8,89999,32,80000,3,30000,40,9999,0.100000,0,0,0.000000,6,0.000000,0.000000,0.133729,0,0,0,0,0,0,0
8,89999,33,80000,95,60000,40,9999,0.100000,0,0,0.000000,6,0.000000,0.000000,5.991159,0,0,0,0,0,0,0
8,89999,34,80000,12,0,40,9999,0.100000,0,0,0.000000,6,0.000000,0.000000,0.961846,0,0,0,0,0,0,0
8,89999,35,80000,12,0,40,9999,0.100000,0,0,0.000000,6,0.000000,0.000000,0.130967,0,0,0,0,0,0,0
8,89999,36,80000,87,30000,40,9999,0.100000,0,0,0.000000,6,0.000000,0.000000,1.069229,0,0,0,0,0,0,0
8,89999,37,80000,93,20000,40,9999,0.100000,0,0,0.000000,6,0.000000,0.000000,0.554177,0,0,0,0,0,0,0
8,89999,38,80000,95,60000,40,9999,0.100000,0,0,0.000000,6,0.000000,0.000000,0.625546,0,0,0,0,0,0,0
8,89999,39,80000,87,30000,49,9999,0.100000,0,0,0.000000,6,2.000000,0.000000,5.478954,0,0,0,0,0,0,0
8,89999,40,80000,3,30000,40,9999,0.100000,0,0,0.000000,6,0.000000,0.000000,0.836688,0,0,0,0,0,0,0
8,89999,41,80000,87,30000,40,9999,0.100000,0,0,0.000000,6,0.000000,0.000000,0.183409,0,0,0,0,0,0,0
8,89999,42,80000,3,30000,40,9999,0.100000,0,0,0.000000,6,0.000000,0.000000,0.338114,0,0,0,0,0,0,0
8,89999,43,80000,12,0,40,9999,0.100000,0,0,0.000000,6,0.000000,0.000000,3.359911,0,0,0,0,0,0,0
8,89999,44,80000,1,10000,40,9999,0.100000,0,0,0.000000,6,0.000000,0.000000,1.483531,0,0,0,0,0,0,0
8,89999,45,80000,95,60000,40,9999,0.100000,0,0,0.000000,6,0.000000,0.000000,0.205300,0,0,0,0,0,0,0
8,89999,46,80000,87,30000,40,9999,0.100000,0,0,0.000000,6,0.000000,0.000000,0.826100,0,0,0,0,0,0,0
8,89999,47,80000,93,20000,40,9999,0.100000,0,0,0.000000,6,0.000000,0.000000,3.314209,0,0,0,0,0,0,0
8,89999,48,80000,3,30000,40,9999,0.100000,0,0,0.000000,6,0.000000,0.000000,3.165034,0,0,0,0,0,0,0
8,89999,49,80000,87,30000,40,9999,0.100000,0,0,0.000000,6,0.000000,0.000000,0.130997,0,0,0,0,0,0,0
8,89999,50,80000,12,0,40,9999,0.100000,0,0,0.000000,6,0.000000,0.000000,0.128783,0,0,0,0,0,0,0
8,89999,51,80000,87,30000,40,9999,0.100000,0,0,0.000000,6,0.000000,0.000000,5.653451,0,0,0,0,0,0,0
8,89999,52,80000,95,60000,40,9999,0.100000,0,0,0.000000,6,0.000000,0.000000,0.540224,0,0,0,0,0,0,0
8,89999,53,80000,95,60000,40,9999,0.100000,0,0,0.000000,6,0.000000,0.000000,0.079937,0,0,0,0,0,0,0
8,89999,54,80000,93,20000,40,9999,0.100000,0,0,0.000000,6,0.000000,0.000000,0.098480,0,0,0,0,0,0,0
8,89999,55,80000,12,0,40,9999,0.100000,0,0,0.000000,6,0.000000,0.000000,0.152721,0,0,0,0,0,0,0
8,89999,56,80000,12,0,40,9999,0.100000,0,0,0.000000,6,0.000000,0.000000,0.988818,0,0,0,0,0,0,0
8,89999,57,80000,87,30000,40,9999,0.100000,0,0,0.000000,6,0.000000,0.000000,0.146769,0,0,0,0,0,0,0
8,89999,58,80000,93,20000,40,9999,0.100000,0,0,0.000000,6,0.000000,0.000000,0.086393,0,0,0,0,0,0,0
8,89999,59,80000,95,60000,40,9999,0.100000,0,0,0.000000,6,0.000000,0.000000,0.111342,0,0,0,0,0,0,0
8,89999,60,80000,95,60000,49,9999,0.100000,0,0,0.000000,6,5.000000,0.000000,9.147609,0,0,0,0,0,0,0
8,89999,61,80000,87,30000,40,9999,0.100000,0,0,0.000000,6,0.000000,0.000000,0.152899,0,0,0,0,0,0,0
8,89999,62,80000,87,30000,40,9999,0.100000,0,0,0.000000,6,0.000000,0.000000,0.137939,0,0,0,0,0,0,0
8,89999,63,80000,93,20000,40,9999,0.100000,0,0,0.000000,6,0.000000,0.000000,0.176067,0,0,0,0,0,0,0
8,89999,64,80000,93,20000,40,9999,0.100000,0,0,0.000000,6,0.000000,0.000000,0.086304,0,0,0,0,0,0,0
8,89999,65,80000,1,10000,40,9999,0.100000,0,0,0.000000,6,0.000000,0.000000,0.155794,0,0,0,0,0,0,0
8,89999,66,80000,12,0,40,9999,0.100000,0,0,0.000000,6,0.000000,0.000000,0.428534,0,0,0,0,0,0,0
8,89999,67,80000,95,60000,40,9999,0.100000,0,0,0.000000,6,0.000000,0.000000,0.120668,0,0,0,0,0,0,0
8,89999,68,80000,93,20000,40,9999,0.100000,0,0,0.000000,6,0.000000,0.000000,0.748709,0,0,0,0,0,0,0
8,89999,69,80000,1,10000,40,9999,0.100000,0,0,0.000000,6,0.000000,0.000000,0.251106,0,0,0,0,0,0,0
8,89999,70,80000,95,60000,40,9999,0.100000,0,0,0.000000,6,0.000000,0.000000,0.142980,0,0,0,0,0,0,0
8,89999,71,80000,93,20000,40,9999,0.100000,0,0,0.000000,6,0.000000,0.000000,0.931039,0,0,0,0,0,0,0
8,89999,72,80000,95,60000,40,9999,0.100000,0,0,0.000000,6,0.000000,0.000000,0.126152,0,0,0,0,0,0,0
8,89999,73,80000,1,10000,40,9999,0.100000,0,0,0.000000,6,0.000000,0.000000,0.191839,0,0,0,0,0,0,0
8,89999,74,80000,95,60000,40,9999,0.100000,0,0,0.000000,6,0.000000,0.000000,0.391126,0,0,0,0,0,0,0
8,89999,75,80000,95,60000,40,9999,0.100000,0,0,0.000000,6,0.000000,0.000000,1.019549,0,0,0,0,0,0,0
8,89999,76,80000,93,20000,40,9999,0.100000,0,0,0.000000,6,0.000000,0.000000,0.318035,0,0,0,0,0,0,0
8,89999,77,80000,1,10000,40,9999,0.100000,0,0,0.000000,6,0.000000,0.000000,0.903348,0,0,0,0,0,0,0
8,89999,78,80000,1,10000,40,9999,0.100000,0,0,0.000000,6,0.000000,0.000000,0.569804,0,0,0,0,0,0,0
8,89999,79,80000,87,30000,40,9999,0.100000,0,0,0.000000,6,0.000000,0.000000,0.154205,0,0,0,0,0,0,0
8,89999,80,80000,1,10000,49,9999,0.100000,0,0,0.000000,6,1.000000,0.000000,4.646171,0,0,0,0,0,0,0
8,89999,81,80000,3,30000,40,9999,0.100000,0,0,0.000000,6,0.000000,0.000000,0.326868,0,0,0,0,0,0,0
8,89999,82,80000,1,10000,40,9999,0.100000,0,0,0.000000,6,0.000000,0.000000,0.077504,0,0,0,0,0,0,0
8,89999,83,80000,95,60000,40,9999,0.100000,0,0,0.000000,6,0.000000,0.000000,2.030972,0,0,0,0,0,0,0
8,89999,84,80000,87,30000,40,9999,0.100000,0,0,0.000000,6,0.000000,0.000000,0.102925,0,0,0,0,0,0,0
8,89999,85,80000,3,30000,40,9999,0.100000,0,0,0.000000,6,0.000000,0.000000,0.714242,0,0,0,0,0,0,0
8,89999,86,80000,95,60000,40,9999,0.100000,0,0,0.000000,6,0.000000,0.000000,6.205784,0,0,0,0,0,0,0
8,89999,87,80000,3,30000,40,9999,0.100000,0,0,0.000000,6,0.000000,0.000000,0.541464,0,0,0,0,0,0,0
8,89999,88,80000,12,0,49,9999,0.100000,0,0,0.000000,6,1.000000,0.000000,6.721898,0,0,0,0,0,0,0
8,89999,89,80000,87,30000,40,9999,0.100000,0,0,0.000000,6,0.000000,0.000000,0.099052,0,0,0,0,0,0,0
8,89999,90,80000,93,20000,40,9999,0.100000,0,0,0.000000,6,0.000000,0.000000,6.512022,0,0,0,0,0,0,0
8,89999,91,80000,95,60000,40,9999,0.100000,0,0,0.000000,6,0.000000,0.000000,0.170070,0,0,0,0,0,0,0
8,89999,92,80000,1,10000,49,9999,0.100000,0,0,0.000000,6,5.000000,0.000000,11.270584,0,0,0,0,0,0,0
8,89999,93,80000,1,10000,40,9999,0.100000,0,0,0.000000,6,0.000000,0.000000,0.134522,0,0,0,0,0,0,0
8,89999,94,80000,87,30000,40,9999,0.100000,0,0,0.000000,6,0.000000,0.000000,0.171403,0,0,0,0,0,0,0
8,89999,95,80000,1,10000,49,9999,0.100000,0,0,0.000000,6,1.000000,0.000000,6.132784,0,0,0,0,0,0,0
8,89999,96,80000,87,30000,40,9999,0.100000,0,0,0.000000,6,0.000000,0.000000,1.041102,0,0,0,0,0,0,0
8,89999,97,80000,95,60000,49,9999,0.100000,0,0,0.000000,6,5.000000,0.000000,11.013770,0,0,0,0,0,0,0
8,89999,98,80000,12,0,40,9999,0.100000,0,0,0.000000,6,0.000000,0.000000,0.095985,0,0,0,0,0,0,0
8,89999,99,80000,95,60000,40,9999,0.100000,0,0,0.000000,6,0.000000,0.000000,0.100576,0,0,0,0,0,0,0
9,99999,0,90000,95,60000,40,9999,0.100000,0,0,0.000000,6,0.000000,0.000000,0.761754,0,0,0,0,0,0,0
9,99999,1,90000,93,20000,40,9999,0.100000,0,0,0.000000,6,0.000000,0.000000,0.099060,0,0,0,0,0,0,0
9,99999,2,90000,12,0,49,9999,0.100000,0,0,0.000000,6,3.000000,0.000000,3.728422,0,0,0,0,0,0,0
9,99999,3,90000,87,30000,40,9999,0.100000,0,0,0.000000,6,0.000000,0.000000,0.358183,0,0,0,0,0,0,0
9,99999,4,90000,95,60000,40,9999,0.100000,0,0,0.000000,6,0.000000,0.000000,0.374076,0,0,0,0,0,0,0
9,99999,5,90000,95,60000,40,9999,0.100000,0,0,0.000000,6,0.000000,0.000000,0.380537,0,0,0,0,0,0,0
9,99999,6,90000,12,0,49,9999,0.100000,0,0,0.000000,6,4.000000,0.000000,5.399228,0,0,0,0,0,0,0
9,99999,7,90000,12,0,40,9999,0.100000,0,0,0.000000,6,0.000000,0.000000,0.120020,0,0,0,0,0,0,0
9,99999,8,90000,87,30000,40,9999,0.100000,0,0,0.000000,6,0.000000,0.000000,0.213136,0,0,0,0,0,0,0
9,99999,9,90000,12,0,40,9999,0.100000,0,0,0.000000,6,0.000000,0.000000,0.244441,0,0,0,0,0,0,0
9,99999,10,90000,3,30000,40,9999,0.100000,0,0,0.000000,6,0.000000,0.000000,0.795622,0,0,0,0,0,0,0
9,99999,11,90000,1,10000,40,9999,0.100000,0,0,0.000000,6,0.000000,0.000000,0.313102,0,0,0,0,0,0,0
9,99999,12,90000,12,0,49,9999,0.100000,0,0,0.000000,6,2.000000,0.000000,10.359516,0,0,0,0,0,0,0
9,99999,13,90000,95,60000,40,9999,0.100000,0,0,0.000000,6,0.000000,0.000000,0.105296,0,0,0,0,0,0,0
9,99999,14,90000,87,30000,40,9999,0.100000,0,0,0.000000,6,0.000000,0.000000,0.272350,0,0,0,0,0,0,0
9,99999,15,90000,87,30000,40,9999,0.100000,0,0,0.000000,6,0.000000,0.000000,0.141924,0,0,0,0,0,0,0
9,99999,16,90000,3,30000,40,9999,0.100000,0,0,0.000000,6,0.000000,0.000000,0.242359,0,0,0,0,0,0,0
9,99999,17,90000,1,10000,40,9999,0.100000,0,0,0.000000,6,0.000000,0.000000,0.079694,0,0,0,0,0,0,0
9,99999,18,90000,93,20000,40,9999,0.100000,0,0,0.000000,6,0.000000,0.000000,0.085520,0,0,0,0,0,0,0
9,99999,19,90000,87,30000,40,9999,0.100000,0,0,0.000000,6,0.000000,0.000000,0.249338,0,0,0,0,0,0,0
9,99999,20,90000,87,30000,40,9999,0.100000,0,0,0.000000,6,0.000000,0.000000,2.655739,0,0,0,0,0,0,0
9,99999,21,90000,3,30000,40,9999,0.100000,0,0,0.000000,6,0.000000,0.000000,0.429165,0,0,0,0,0,0,0
9,99999,22,90000,87,30000,40,9999,0.100000,0,0,0.000000,6,0.000000,0.000000,0.618025,0,0,0,0,0,0,0
9,99999,23,90000,95,60000,40,9999,0.100000,0,0,0.000000,6,0.000000,0.000000,0.125997,0,0,0,0,0,0,0
9,99999,24,90000,12,0,40,9999,0.100000,0,0,0.000000,6,0.000000,0.000000,0.128019,0,0,0,0,0,0,0
9,99999,25,90000,95,60000,40,9999,0.100000,0,0,0.000000,6,0.000000,0.000000,0.079892,0,0,0,0,0,0,0
9,99999,26,90000,12,0,40,9999,0.100000,0,0,0.000000,6,0.000000,0.000000,0.072944,0,0,0,0,0,0,0
9,99999,27,90000,3,30000,49,9999,0.100000,0,0,0.000000,6,5.000000,0.000000,13.934220,0,0,0,0,0,0,0
9,99999,28,90000,12,0,40,9999,0.100000,0,0,0.000000,6,0.000000,0.000000,5.753399,0,0,0,0,0,0,0
9,99999,29,90000,87,30000,40,9999,0.100000,0,0,0.000000,6,0.000000,0.000000,0.100072,0,0,0,0,0,0,0
9,99999,30,90000,12,0,49,9999,0.100000,0,0,0.000000,6,1.000000,0.000000,9.958966,0,0,0,0,0,0,0
9,99999,31,90000,93,20000,49,9999,0.100000,0,0,0.000000,6,1.000000,0.000000,3.196474,0,0,0,0,0,0,0
9,99999,32,90000,12,0,40,9999,0.100000,0,0,0.000000,6,0.000000,0.000000,0.568000,0,0,0,0,0,0,0
9,99999,33,90000,12,0,40,9999,0.100000,0,0,0.000000,6,0.000000,0.000000,5.516300,0,0,0,0,0,0,0
9,99999,34,90000,1,10000,49,9999,0.100000,0,0,0.000000,6,4.000000,0.000000,5.275864,0,0,0,0,0,0,0
9,99999,35,90000,3,30000,49,9999,0.100000,0,0,0.000000,6,1.000000,0.000000,4.973427,0,0,0,0,0,0,0
9,99999,36,90000,93,20000,49,9999,0.100000,0,0,0.000000,6,3.000000,0.000000,3.932359,0,0,0,0,0,0,0
9,99999,37,90000,3,30000,40,9999,0.100000,0,0,0.000000,6,0.000000,0.000000,1.402164,0,0,0,0,0,0,0
9,99999,38,90000,3,30000,49,9999,0.100000,0,0,0.000000,6,1.000000,0.000000,2.545999,0,0,0,0,0,0,0
9,99999,39,90000,3,30000,49,9999,0.100000,0,0,0.000000,6,9.000000,0.000000,10.682767,0,0,0,0,0,0,0
9,99999,40,90000,12,0,49,9999,0.100000,0,0,0.000000,6,1.000000,0.000000,2.893337,0,0,0,0,0,0,0
9,99999,41,90000,1,10000,40,9999,0.100000,0,0,0.000000,6,0.000000,0.000000,0.334351,0,0,0,0,0,0,0
9,99999,42,90000,3,30000,40,9999,0.100000,0,0,0.000000,6,0.000000,0.000000,0.884433,0,0,0,0,0,0,0
9,99999,43,90000,93,20000,40,9999,0.100000,0,0,0.000000,6,0.000000,0.000000,2.840001,0,0,0,0,0,0,0
9,99999,44,90000,1,10000,40,9999,0.100000,0,0,0.000000,6,0.000000,0.000000,1.413887,0,0,0,0,0,0,0
9,99999,45,90000,12,0,40,9999,0.100000,0,0,0.000000,6,0.000000,0.000000,0.211223,0,0,0,0,0,0,0
9,99999,46,90000,93,20000,40,9999,0.100000,0,0,0.000000,6,0.000000,0.000000,0.558057,0,0,0,0,0,0,0
9,99999,47,90000,12,0,40,9999,0.100000,0,0,0.000000,6,0.000000,0.000000,2.875384,0,0,0,0,0,0,0
9,99999,48,90000,3,30000,40,9999,0.100000,0,0,0.000000,6,0.000000,0.000000,3.310325,0,0,0,0,0,0,0
9,99999,49,90000,1,10000,40,9999,0.100000,0,0,0.000000,6,0.000000,0.000000,0.132423,0,0,0,0,0,0,0
9,99999,50,90000,95,60000,40,9999,0.100000,0,0,0.000000,6,0.000000,0.000000,0.130042,0,0,0,0,0,0,0
9,99999,51,90000,95,60000,40,9999,0.100000,0,0,0.000000,6,0.000000,0.000000,6.320842,0,0,0,0,0,0,0
9,99999,52,90000,93,20000,40,9999,0.100000,0,0,0.000000,6,0.000000,0.000000,0.223374,0,0,0,0,0,0,0
9,99999,53,90000,12,0,40,9999,0.100000,0,0,0.000000,6,0.000000,0.000000,0.095214,0,0,0,0,0,0,0
9,99999,54,90000,3,30000,40,9999,0.100000,0,0,0.000000,6,0.000000,0.000000,0.076209,0,0,0,0,0,0,0
9,99999,55,90000,1,10000,40,9999,0.100000,0,0,0.000000,6,0.000000,0.000000,0.096018,0,0,0,0,0,0,0
9,99999,56,90000,3,30000,40,9999,0.100000,0,0,0.000000,6,0.000000,0.000000,0.864634,0,0,0,0,0,0,0
9,99999,57,90000,12,0,40,9999,0.100000,0,0,0.000000,6,0.000000,0.000000,0.161223,0,0,0,0,0,0,0
9,99999,58,90000,1,10000,40,9999,0.100000,0,0,0.000000,6,0.000000,0.000000,0.086912,0,0,0,0,0,0,0
9,99999,59,90000,12,0,40,9999,0.100000,0,0,0.000000,6,0.000000,0.000000,0.364395,0,0,0,0,0,0,0
9,99999,60,90000,3,30000,40,9999,0.100000,0,0,0.000000,6,0.000000,0.000000,8.464062,0,0,0,0,0,0,0
9,99999,61,90000,93,20000,40,9999,0.100000,0,0,0.000000,6,0.000000,0.000000,0.711553,0,0,0,0,0,0,0
9,99999,62,90000,1,10000,40,9999,0.100000,0,0,0.000000,6,0.000000,0.000000,0.083720,0,0,0,0,0,0,0
9,99999,63,90000,12,0,40,9999,0.100000,0,0,0.000000,6,0.000000,0.000000,0.177549,0,0,0,0,0,0,0
9,99999,64,90000,93,20000,40,9999,0.100000,0,0,0.000000,6,0.000000,0.000000,0.064274,0,0,0,0,0,0,0
9,99999,65,90000,87,30000,40,9999,0.100000,0,0,0.000000,6,0.000000,0.000000,0.098866,0,0,0,0,0,0,0
9,99999,66,90000,87,30000,40,9999,0.100000,0,0,0.000000,6,0.000000,0.000000,0.349756,0,0,0,0,0,0,0
9,99999,67,90000,12,0,40,9999,0.100000,0,0,0.000000,6,0.000000,0.000000,0.119788,0,0,0,0,0,0,0
9,99999,68,90000,95,60000,40,9999,0.100000,0,0,0.000000,6,0.000000,0.000000,0.610844,0,0,0,0,0,0,0
9,99999,69,90000,95,60000,40,9999,0.100000,0,0,0.000000,6,0.000000,0.000000,0.226403,0,0,0,0,0,0,0
9,99999,70,90000,93,20000,40,9999,0.100000,0,0,0.000000,6,0.000000,0.000000,0.146156,0,0,0,0,0,0,0
9,99999,71,90000,1,10000,40,9999,0.100000,0,0,0.000000,6,0.000000,0.000000,0.527615,0,0,0,0,0,0,0
9,99999,72,90000,93,20000,40,9999,0.100000,0,0,0.000000,6,0.000000,0.000000,0.194729,0,0,0,0,0,0,0
9,99999,73,90000,1,10000,40,9999,0.100000,0,0,0.000000,6,0.000000,0.000000,0.204036,0,0,0,0,0,0,0
9,99999,74,90000,12,0,40,9999,0.100000,0,0,0.000000,6,0.000000,0.000000,0.686766,0,0,0,0,0,0,0
9,99999,75,90000,87,30000,40,9999,0.100000,0,0,0.000000,6,0.000000,0.000000,0.841235,0,0,0,0,0,0,0
9,99999,76,90000,12,0,40,9999,0.100000,0,0,0.000000,6,0.000000,0.000000,0.371902,0,0,0,0,0,0,0
9,99999,77,90000,87,30000,49,9999,0.100000,0,0,0.000000,6,4.000000,0.000000,5.316424,0,0,0,0,0,0,0
9,99999,78,90000,93,20000,40,9999,0.100000,0,0,0.000000,6,0.000000,0.000000,0.892937,0,0,0,0,0,0,0
9,99999,79,90000,12,0,40,9999,0.100000,0,0,0.000000,6,0.000000,0.000000,0.352777,0,0,0,0,0,0,0
9,99999,80,90000,1,10000,49,9999,0.100000,0,0,0.000000,6,2.000000,0.000000,5.048631,0,0,0,0,0,0,0
9,99999,81,90000,87,30000,40,9999,0.100000,0,0,0.000000,6,0.000000,0.000000,0.634684,0,0,0,0,0,0,0
9,99999,82,90000,3,30000,40,9999,0.100000,0,0,0.000000,6,0.000000,0.000000,0.076923,0,0,0,0,0,0,0
9,99999,83,90000,3,30000,40,9999,0.100000,0,0,0.000000,6,0.000000,0.000000,1.972336,0,0,0,0,0,0,0
9,99999,84,90000,12,0,40,9999,0.100000,0,0,0.000000,6,0.000000,0.000000,0.794339,0,0,0,0,0,0,0
9,99999,85,90000,12,0,40,9999,0.100000,0,0,0.000000,6,0.000000,0.000000,1.343872,0,0,0,0,0,0,0
9,99999,86,90000,93,20000,40,9999,0.100000,0,0,0.000000,6,0.000000,0.000000,9.452964,0,0,0,0,0,0,0
9,99999,87,90000,3,30000,40,9999,0.100000,0,0,0.000000,6,0.000000,0.000000,0.538531,0,0,0,0,0,0,0
9,99999,88,90000,12,0,40,9999,0.100000,0,0,0.000000,6,0.000000,0.000000,2.447592,0,0,0,0,0,0,0
9,99999,89,90000,1,10000,40,9999,0.100000,0,0,0.000000,6,0.000000,0.000000,0.097865,0,0,0,0,0,0,0
9,99999,90,90000,87,30000,40,9999,0.100000,0,0,0.000000,6,0.000000,0.000000,6.152064,0,0,0,0,0,0,0
9,99999,91,90000,93,20000,40,9999,0.100000,0,0,0.000000,6,0.000000,0.000000,0.162844,0,0,0,0,0,0,0
9,99999,92,90000,95,60000,40,9999,0.100000,0,0,0.000000,6,0.000000,0.000000,0.144861,0,0,0,0,0,0,0
9,99999,93,90000,95,60000,40,9999,0.100000,0,0,0.000000,6,0.000000,0.000000,0.180896,0,0,0,0,0,0,0
9,99999,94,90000,95,60000,40,9999,0.100000,0,0,0.000000,6,0.000000,0.000000,0.171921,0,0,0,0,0,0,0
9,99999,95,90000,3,30000,49,9999,0.100000,0,0,0.000000,6,2.000000,0.000000,8.297712,0,0,0,0,0,0,0
9,99999,96,90000,95,60000,49,9999,0.100000,0,0,0.000000,6,1.000000,0.000000,2.920342,0,0,0,0,0,0,0
9,99999,97,90000,87,30000,40,9999,0.100000,0,0,0.000000,6,0.000000,0.000000,0.200214,0,0,0,0,0,0,0
9,99999,98,90000,3,30000,40,9999,0.100000,0,0,0.000000,6,0.000000,0.000000,0.308096,0,0,0,0,0,0,0
9,99999,99,90000,3,30000,40,9999,0.100000,0,0,0.000000,6,0.000000,0.000000,0.099960,0,0,0,0,0,0,0
10,109999,0,100000,3,30000,40,9999,0.100000,0,0,0.000000,6,0.000000,0.000000,0.474471,0,0,0,0,0,0,0
10,109999,1,100000,1,10000,40,9999,0.100000,0,0,0.000000,6,0.000000,0.000000,0.101128,0,0,0,0,0,0,0
10,109999,2,100000,3,30000,40,9999,0.100000,0,0,0.000000,6,0.000000,0.000000,1.908460,0,0,0,0,0,0,0
10,109999,3,100000,3,30000,40,9999,0.100000,0,0,0.000000,6,0.000000,0.000000,0.340322,0,0,0,0,0,0,0
10,109999,4,100000,95,60000,40,9999,0.100000,0,0,0.000000,6,0.000000,0.000000,0.359761,0,0,0,0,0,0,0
10,109999,5,100000,3,30000,40,9999,0.100000,0,0,0.000000,6,0.000000,0.000000,0.378361,0,0,0,0,0,0,0
10,109999,6,100000,3,30000,9,9999,0.100000,0,0,34.210526,6,6.000000,0.000000,16.178795,0,0,0,0,1,0,0
10,109999,7,100000,93,20000,40,9999,0.100000,0,0,0.000000,6,0.000000,0.000000,0.120537,0,0,0,0,0,0,0
10,109999,8,100000,12,0,40,9999,0.100000,0,0,0.000000,6,0.000000,0.000000,0.220433,0,0,0,0,0,0,0
10,109999,9,100000,95,60000,40,9999,0.100000,0,0,0.000000,6,0.000000,0.000000,0.242030,0,0,0,0,0,0,0
10,109999,10,100000,3,30000,40,9999,0.100000,0,0,0.000000,6,0.000000,0.000000,0.621936,0,0,0,0,0,0,0
10,109999,11,100000,93,20000,40,9999,0.100000,0,0,0.000000,6,0.000000,0.000000,0.181741,0,0,0,0,0,0,0
10,109999,12,100000,3,30000,49,9999,0.100000,0,0,0.000000,6,4.000000,0.000000,13.939250,0,0,0,0,0,0,0
10,109999,13,100000,93,20000,40,9999,0.100000,0,0,0.000000,6,0.000000,0.000000,0.103741,0,0,0,0,0,0,0
10,109999,14,100000,3,30000,40,9999,0.100000,0,0,0.000000,6,0.000000,0.000000,0.174625,0,0,0,0,0,0,0
10,109999,15,100000,1,10000,40,9999,0.100000,0,0,0.000000,6,0.000000,0.000000,0.134509,0,0,0,0,0,0,0
10,109999,16,100000,93,20000,40,9999,0.100000,0,0,0.000000,6,0.000000,0.000000,0.243324,0,0,0,0,0,0,0
10,109999,17,100000,87,30000,40,9999,0.100000,0,0,0.000000,6,0.000000,0.000000,0.079966,0,0,0,0,0,0,0
10,109999,18,100000,12,0,40,9999,0.100000,0,0,0.000000,6,0.000000,0.000000,0.087785,0,0,0,0,0,0,0
10,109999,19,100000,1,10000,40,9999,0.100000,0,0,0.000000,6,0.000000,0.000000,0.620526,0,0,0,0,0,0,0
10,109999,20,100000,1,10000,9,9999,0.100000,0,0,34.210526,6,1.000000,0.000000,4.616623,0,0,0,0,1,0,0
10,109999,21,100000,87,30000,40,9999,0.100000,0,0,0.000000,6,0.000000,0.000000,0.530206,0,0,0,0,0,0,0
10,109999,22,100000,95,60000,40,9999,0.100000,0,0,0.000000,6,0.000000,0.000000,0.613374,0,0,0,0,0,0,0
10,109999,23,100000,1,10000,40,9999,0.100000,0,0,0.000000,6,0.000000,0.000000,0.140517,0,0,0,0,0,0,0
10,109999,24,100000,12,0,40,9999,0.100000,0,0,0.000000,6,0.000000,0.000000,0.129653,0,0,0,0,0,0,0
10,109999,25,100000,95,60000,40,9999,0.100000,0,0,0.000000,6,0.000000,0.000000,0.081016,0,0,0,0,0,0,0
10,109999,26,100000,1,10000,40,9999,0.100000,0,0,0.000000,6,0.000000,0.000000,0.172876,0,0,0,0,0,0,0
10,109999,27,100000,3,30000,49,9999,0.100000,0,0,0.000000,6,2.000000,0.000000,13.920018,0,0,0,0,0,0,0
10,109999,28,100000,3,30000,40,9999,0.100000,0,0,0.000000,6,0.000000,0.000000,6.384793,0,0,0,0,0,0,0
10,109999,29,100000,95,60000,40,9999,0.100000,0,0,0.000000,6,0.000000,0.000000,0.099607,0,0,0,0,0,0,0
10,109999,30,100000,93,20000,40,9999,0.100000,0,0,0.000000,6,0.000000,0.000000,12.379727,0,0,0,0,0,0,0
10,109999,31,100000,93,20000,40,9999,0.100000,0,0,0.000000,6,0.000000,0.000000,1.372106,0,0,0,0,0,0,0
10,109999,32,100000,3,30000,40,9999,0.100000,0,0,0.000000,6,0.000000,0.000000,0.332984,0,0,0,0,0,0,0
10,109999,33,100000,93,20000,40,9999,0.100000,0,0,0.000000,6,0.000000,0.000000,5.856434,0,0,0,0,0,0,0
10,109999,34,100000,93,20000,9,9999,0.100000,0,0,34.210526,6,6.000000,0.000000,19.743804,0,0,0,0,1,0,0
10,109999,35,100000,3,30000,40,9999,0.100000,0,0,0.000000,6,0.000000,0.000000,0.329701,0,0,0,0,0,0,0
10,109999,36,100000,93,20000,40,9999,0.100000,0,0,0.000000,6,0.000000,0.000000,3.435972,0,0,0,0,0,0,0
10,109999,37,100000,87,30000,40,9999,0.100000,0,0,0.000000,6,0.000000,0.000000,0.146998,0,0,0,0,0,0,0
10,109999,38,100000,87,30000,40,9999,0.100000,0,0,0.000000,6,0.000000,0.000000,1.878052,0,0,0,0,0,0,0
10,109999,39,100000,87,30000,40,9999,0.100000,0,0,0.000000,6,0.000000,0.000000,1.527920,0,0,0,0,0,0,0
10,109999,40,100000,95,60000,40,9999,0.100000,0,0,0.000000,6,0.000000,0.000000,1.738440,0,0,0,0,0,0,0
10,109999,41,100000,87,30000,40,9999,0.100000,0,0,0.000000,6,0.000000,0.000000,0.582006,0,0,0,0,0,0,0
10,109999,42,100000,12,0,9,9999,0.100000,0,0,34.210526,6,1.000000,0.000000,2.784294,0,0,0,0,1,0,0
10,109999,43,100000,3,30000,40,9999,0.100000,0,0,0.000000,6,0.000000,0.000000,2.601655,0,0,0,0,0,0,0
10,109999,44,100000,12,0,40,9999,0.100000,0,0,0.000000,6,0.000000,0.000000,1.473751,0,0,0,0,0,0,0
10,109999,45,100000,95,60000,40,9999,0.100000,0,0,0.000000,6,0.000000,0.000000,0.217185,0,0,0,0,0,0,0
10,109999,46,100000,87,30000,40,9999,0.100000,0,0,0.000000,6,0.000000,0.000000,0.346928,0,0,0,0,0,0,0
10,109999,47,100000,1,10000,40,9999,0.100000,0,0,0.000000,6,0.000000,0.000000,2.705275,0,0,0,0,0,0,0
10,109999,48,100000,3,30000,49,9999,0.100000,0,0,0.000000,6,1.000000,0.000000,3.709815,0,0,0,0,0,0,0
10,109999,49,100000,87,30000,40,9999,0.100000,0,0,0.000000,6,0.000000,0.000000,0.141445,0,0,0,0,0,0,0
10,109999,50,100000,87,30000,40,9999,0.100000,0,0,0.000000,6,0.000000,0.000000,0.128710,0,0,0,0,0,0,0
10,109999,51,100000,1,10000,40,9999,0.100000,0,0,0.000000,6,0.000000,0.000000,5.558480,0,0,0,0,0,0,0
10,109999,52,90000,93,20000,40,19999,0.100000,0,0,0.000000,6,0.000000,0.000000,0.214920,0,0,0,0,0,0,0
10,109999,53,100000,3,30000,40,9999,0.100000,0,0,0.000000,6,0.000000,0.000000,0.095544,0,0,0,0,0,0,0
10,109999,54,100000,12,0,40,9999,0.100000,0,0,0.000000,6,0.000000,0.000000,0.077373,0,0,0,0,0,0,0
10,109999,55,100000,95,60000,40,9999,0.100000,0,0,0.000000,6,0.000000,0.000000,0.158294,0,0,0,0,0,0,0
10,109999,56,100000,3,30000,40,9999,0.100000,0,0,0.000000,6,0.000000,0.000000,1.993005,0,0,0,0,0,0,0
10,109999,57,100000,1,10000,40,9999,0.100000,0,0,0.000000,6,0.000000,0.000000,0.134940,0,0,0,0,0,0,0
10,109999,58,100000,3,30000,40,9999,0.100000,0,0,0.000000,6,0.000000,0.000000,0.083968,0,0,0,0,0,0,0
10,109999,59,100000,93,20000,40,9999,0.100000,0,0,0.000000,6,0.000000,0.000000,0.361988,0,0,0,0,0,0,0
10,109999,60,100000,12,0,49,9999,0.100000,0,0,0.000000,6,1.000000,0.000000,12.596697,0,0,0,0,0,0,0
10,109999,61,100000,87,30000,40,9999,0.100000,0,0,0.000000,6,0.000000,0.000000,0.838085,0,0,0,0,0,0,0
10,109999,62,100000,3,30000,40,9999,0.100000,0,0,0.000000,6,0.000000,0.000000,0.083719,0,0,0,0,0,0,0
10,109999,63,100000,87,30000,40,9999,0.100000,0,0,0.000000,6,0.000000,0.000000,0.176993,0,0,0,0,0,0,0
10,109999,64,100000,3,30000,40,9999,0.100000,0,0,0.000000,6,0.000000,0.000000,0.063810,0,0,0,0,0,0,0
10,109999,65,100000,93,20000,49,9999,0.100000,0,0,0.000000,6,2.000000,0.000000,11.348914,0,0,0,0,0,0,0
10,109999,66,100000,95,60000,40,9999,0.100000,0,0,0.000000,6,0.000000,0.000000,0.348889,0,0,0,0,0,0,0
10,109999,67,100000,1,10000,40,9999,0.100000,0,0,0.000000,6,0.000000,0.000000,0.120194,0,0,0,0,0,0,0
10,109999,68,100000,12,0,40,9999,0.100000,0,0,0.000000,6,0.000000,0.000000,0.309853,0,0,0,0,0,0,0
10,109999,69,100000,87,30000,40,9999,0.100000,0,0,0.000000,6,0.000000,0.000000,0.325143,0,0,0,0,0,0,0
10,109999,70,100000,1,10000,40,9999,0.100000,0,0,0.000000,6,0.000000,0.000000,0.138680,0,0,0,0,0,0,0
10,109999,71,100000,1,10000,49,9999,0.100000,0,0,0.000000,6,1.000000,0.000000,1.833702,0,0,0,0,0,0,0
10,109999,72,100000,3,30000,40,9999,0.100000,0,0,0.000000,6,0.000000,0.000000,0.195784,0,0,0,0,0,0,0
10,109999,73,100000,95,60000,40,9999,0.100000,0,0,0.000000,6,0.000000,0.000000,0.250168,0,0,0,0,0,0,0
10,109999,74,100000,1,10000,40,9999,0.100000,0,0,0.000000,6,0.000000,0.000000,0.664319,0,0,0,0,0,0,0
10,109999,75,100000,12,0,40,9999,0.100000,0,0,0.000000,6,0.000000,0.000000,1.055361,0,0,0,0,0,0,0
10,109999,76,100000,12,0,40,9999,0.100000,0,0,0.000000,6,0.000000,0.000000,0.328250,0,0,0,0,0,0,0
10,109999,77,100000,95,60000,9,9999,0.100000,0,0,34.210526,6,13.000000,0.000000,29.749233,0,0,0,0,1,0,0
10,109999,78,100000,12,0,49,9999,0.100000,0,0,0.000000,6,1.000000,0.000000,5.015340,0,0,0,0,0,0,0
10,109999,79,100000,3,30000,40,9999,0.100000,0,0,0.000000,6,0.000000,0.000000,0.558661,0,0,0,0,0,0,0
10,109999,80,100000,1,10000,40,9999,0.100000,0,0,0.000000,6,0.000000,0.000000,4.562544,0,0,0,0,0,0,0
10,109999,81,100000,93,20000,40,9999,0.100000,0,0,0.000000,6,0.000000,0.000000,0.591016,0,0,0,0,0,0,0
10,109999,82,100000,87,30000,40,9999,0.100000,0,0,0.000000,6,0.000000,0.000000,0.076807,0,0,0,0,0,0,0
10,109999,83,100000,3,30000,40,9999,0.100000,0,0,0.000000,6,0.000000,0.000000,1.987449,0,0,0,0,0,0,0
10,109999,84,100000,12,0,40,9999,0.100000,0,0,0.000000,6,0.000000,0.000000,0.505062,0,0,0,0,0,0,0
10,109999,85,100000,87,30000,40,9999,0.100000,0,0,0.000000,6,0.000000,0.000000,1.462251,0,0,0,0,0,0,0
10,109999,86,100000,1,10000,49,9999,0.100000,0,0,0.000000,6,3.000000,0.000000,3.526887,0,0,0,0,0,0,0
10,109999,87,100000,87,30000,40,9999,0.100000,0,0,0.000000,6,0.000000,0.000000,0.542813,0,0,0,0,0,0,0
10,109999,88,100000,12,0,40,9999,0.100000,0,0,0.000000,6,0.000000,0.000000,0.237609,0,0,0,0,0,0,0
10,109999,89,100000,12,0,40,9999,0.100000,0,0,0.000000,6,0.000000,0.000000,0.095021,0,0,0,0,0,0,0
10,109999,90,100000,12,0,40,9999,0.100000,0,0,0.000000,6,0.000000,0.000000,6.227143,0,0,0,0,0,0,0
10,109999,91,100000,12,0,40,9999,0.100000,0,0,0.000000,6,0.000000,0.000000,0.163210,0,0,0,0,0,0,0
10,109999,92,100000,87,30000,40,9999,0.100000,0,0,0.000000,6,0.000000,0.000000,0.144306,0,0,0,0,0,0,0
10,109999,93,100000,1,10000,40,9999,0.100000,0,0,0.000000,6,0.000000,0.000000,0.472777,0,0,0,0,0,0,0
10,109999,94,100000,87,30000,40,9999,0.100000,0,0,0.000000,6,0.000000,0.000000,0.189171,0,0,0,0,0,0,0
10,109999,95,100000,12,0,49,9999,0.100000,0,0,0.000000,6,1.000000,0.000000,4.622010,0,0,0,0,0,0,0
10,109999,96,100000,12,0,49,9999,0.100000,0,0,0.000000,6,1.000000,0.000000,6.218874,0,0,0,0,0,0,0
10,109999,97,100000,3,30000,40,9999,0.100000,0,0,0.000000,6,0.000000,0.000000,0.198178,0,0,0,0,0,0,0
10,109999,98,100000,87,30000,40,9999,0.100000,0,0,0.000000,6,0.000000,0.000000,0.552319,0,0,0,0,0,0,0
10,109999,99,100000,3,30000,40,9999,0.100000,0,0,0.000000,6,0.000000,0.000000,0.100923,0,0,0,0,0,0,0
11,119999,0,110000,1,10000,49,9999,0.100000,0,0,0.000000,6,1.000000,0.000000,1.337876,0,0,0,0,0,0,0
11,119999,1,110000,3,30000,40,9999,0.100000,0,0,0.000000,6,0.000000,0.000000,0.101683,0,0,0,0,0,0,0
11,119999,2,110000,95,60000,49,9999,0.100000,0,0,0.000000,6,5.000000,0.000000,6.318026,0,0,0,0,0,0,0
11,119999,3,110000,1,10000,40,9999,0.100000,0,0,0.000000,6,0.000000,0.000000,0.319018,0,0,0,0,0,0,0
11,119999,4,110000,93,20000,40,9999,0.100000,0,0,0.000000,6,0.000000,0.000000,0.366735,0,0,0,0,0,0,0
11,119999,5,110000,87,30000,40,9999,0.100000,0,0,0.000000,6,0.000000,0.000000,0.406593,0,0,0,0,0,0,0
11,119999,6,110000,12,0,49,9999,0.100000,0,0,0.000000,6,3.000000,0.000000,10.268529,0,0,0,0,0,0,0
11,119999,7,110000,12,0,40,9999,0.100000,0,0,0.000000,6,0.000000,0.000000,0.119849,0,0,0,0,0,0,0
11,119999,8,110000,3,30000,40,9999,0.100000,0,0,0.000000,6,0.000000,0.000000,0.216001,0,0,0,0,0,0,0
11,119999,9,110000,12,0,40,9999,0.100000,0,0,0.000000,6,0.000000,0.000000,0.228195,0,0,0,0,0,0,0
11,119999,10,110000,93,20000,40,9999,0.100000,0,0,0.000000,6,0.000000,0.000000,0.788497,0,0,0,0,0,0,0
11,119999,11,110000,12,0,40,9999,0.100000,0,0,0.000000,6,0.000000,0.000000,0.201069,0,0,0,0,0,0,0
11,119999,12,110000,1,10000,40,9999,0.100000,0,0,0.000000,6,0.000000,0.000000,5.619497,0,0,0,0,0,0,0
11,119999,13,110000,87,30000,40,9999,0.100000,0,0,0.000000,6,0.000000,0.000000,0.103336,0,0,0,0,0,0,0
11,119999,14,110000,3,30000,40,9999,0.100000,0,0,0.000000,6,0.000000,0.000000,0.177653,0,0,0,0,0,0,0
11,119999,15,110000,95,60000,40,9999,0.100000,0,0,0.000000,6,0.000000,0.000000,0.135885,0,0,0,0,0,0,0
11,119999,16,110000,93,20000,40,9999,0.100000,0,0,0.000000,6,0.000000,0.000000,0.234900,0,0,0,0,0,0,0
11,119999,17,110000,93,20000,40,9999,0.100000,0,0,0.000000,6,0.000000,0.000000,0.080969,0,0,0,0,0,0,0
11,119999,18,110000,12,0,40,9999,0.100000,0,0,0.000000,6,0.000000,0.000000,0.086687,0,0,0,0,0,0,0
11,119999,19,110000,93,20000,9,9999,0.100000,0,0,0.000000,6,2.000000,0.000000,10.151409,0,0,0,0,0,1,0
11,119999,20,110000,95,60000,49,9999,0.100000,0,0,0.000000,6,4.000000,0.000000,13.334047,0,0,0,0,0,0,0
11,119999,21,110000,87,30000,40,9999,0.100000,0,0,0.000000,6,0.000000,0.000000,0.465368,0,0,0,0,0,0,0
11,119999,22,110000,87,30000,40,9999,0.100000,0,0,0.000000,6,0.000000,0.000000,0.627123,0,0,0,0,0,0,0
11,119999,23,110000,1,10000,40,9999,0.100000,0,0,0.000000,6,0.000000,0.000000,0.541645,0,0,0,0,0,0,0
11,119999,24,110000,1,10000,40,9999,0.100000,0,0,0.000000,6,0.000000,0.000000,0.127536,0,0,0,0,0,0,0
11,119999,25,110000,87,30000,40,9999,0.100000,0,0,0.000000,6,0.000000,0.000000,0.081007,0,0,0,0,0,0,0
11,119999,26,110000,95,60000,40,9999,0.100000,0,0,0.000000,6,0.000000,0.000000,0.393065,0,0,0,0,0,0,0
11,119999,27,110000,95,60000,40,9999,0.100000,0,0,0.000000,6,0.000000,0.000000,13.919342,0,0,0,0,0,0,0
11,119999,28,110000,87,30000,49,9999,0.100000,0,0,0.000000,6,1.000000,0.000000,7.182438,0,0,0,0,0,0,0
11,119999,29,110000,93,20000,40,9999,0.100000,0,0,0.000000,6,0.000000,0.000000,0.099515,0,0,0,0,0,0,0
11,119999,30,110000,95,60000,49,9999,0.100000,0,0,0.000000,6,3.000000,0.000000,8.172628,0,0,0,0,0,0,0
11,119999,31,110000,95,60000,40,9999,0.100000,0,0,0.000000,6,0.000000,0.000000,0.648832,0,0,0,0,0,0,0
11,119999,32,110000,87,30000,49,9999,0.100000,0,0,0.000000,6,1.000000,0.000000,1.584019,0,0,0,0,0,0,0
11,119999,33,110000,1,10000,40,9999,0.100000,0,0,0.000000,6,0.000000,0.000000,3.573405,0,0,0,0,0,0,0
11,119999,34,110000,93,20000,49,9999,0.100000,0,0,0.000000,6,3.000000,0.000000,3.792846,0,0,0,0,0,0,0
11,119999,35,110000,95,60000,40,9999,0.100000,0,0,0.000000,6,0.000000,0.000000,0.083406,0,0,0,0,0,0,0
11,119999,36,110000,95,60000,49,9999,0.100000,0,0,0.000000,6,5.000000,0.000000,6.548513,0,0,0,0,0,0,0
11,119999,37,110000,93,20000,40,9999,0.100000,0,0,0.000000,6,0.000000,0.000000,0.147593,0,0,0,0,0,0,0
11,119999,38,110000,87,30000,40,9999,0.100000,0,0,0.000000,6,0.000000,0.000000,1.119364,0,0,0,0,0,0,0
11,119999,39,110000,93,20000,49,9999,0.100000,0,0,0.000000,6,1.000000,0.000000,4.125627,0,0,0,0,0,0,0
11,119999,40,110000,95,60000,40,9999,0.100000,0,0,0.000000,6,0.000000,0.000000,0.832000,0,0,0,0,0,0,0
11,119999,41,110000,12,0,9,9999,0.100000,0,0,0.000000,6,2.000000,0.000000,5.955662,0,0,0,0,0,1,0
11,119999,42,110000,93,20000,49,9999,0.100000,0,0,0.000000,6,2.000000,0.000000,9.163130,0,0,0,0,0,0,0
11,119999,43,110000,3,30000,40,9999,0.100000,0,0,0.000000,6,0.000000,0.000000,2.601328,0,0,0,0,0,0,0
11,119999,44,110000,87,30000,40,9999,0.100000,0,0,0.000000,6,0.000000,0.000000,1.538191,0,0,0,0,0,0,0
11,119999,45,110000,95,60000,40,9999,0.100000,0,0,0.000000,6,0.000000,0.000000,0.222382,0,0,0,0,0,0,0
11,119999,46,110000,3,30000,49,9999,0.100000,0,0,0.000000,6,1.000000,0.000000,1.323109,0,0,0,0,0,0,0
11,119999,47,110000,3,30000,40,9999,0.100000,0,0,0.000000,6,0.000000,0.000000,2.736697,0,0,0,0,0,0,0
11,119999,48,110000,87,30000,40,9999,0.100000,0,0,0.000000,6,0.000000,0.000000,2.688866,0,0,0,0,0,0,0
11,119999,49,110000,12,0,40,9999,0.100000,0,0,0.000000,6,0.000000,0.000000,0.129808,0,0,0,0,0,0,0
11,119999,50,110000,3,30000,40,9999,0.100000,0,0,0.000000,6,0.000000,0.000000,0.118443,0,0,0,0,0,0,0
11,119999,51,110000,93,20000,49,9999,0.100000,0,0,0.000000,6,3.000000,0.000000,9.550569,0,0,0,0,0,0,0
11,119999,52,110000,3,30000,40,9999,0.100000,0,0,0.000000,6,0.000000,0.000000,0.214646,0,0,0,0,0,0,0
11,119999,53,110000,93,20000,40,9999,0.100000,0,0,0.000000,6,0.000000,0.000000,0.096060,0,0,0,0,0,0,0
11,119999,54,110000,3,30000,40,9999,0.100000,0,0,0.000000,6,0.000000,0.000000,0.076876,0,0,0,0,0,0,0
11,119999,55,110000,95,60000,40,9999,0.100000,0,0,0.000000,6,0.000000,0.000000,0.174464,0,0,0,0,0,0,0
11,119999,56,110000,12,0,40,9999,0.100000,0,0,0.000000,6,0.000000,0.000000,1.296721,0,0,0,0,0,0,0
11,119999,57,110000,95,60000,40,9999,0.100000,0,0,0.000000,6,0.000000,0.000000,0.375702,0,0,0,0,0,0,0
11,119999,58,110000,3,30000,40,9999,0.100000,0,0,0.000000,6,0.000000,0.000000,0.083830,0,0,0,0,0,0,0
11,119999,59,110000,93,20000,40,9999,0.100000,0,0,0.000000,6,0.000000,0.000000,0.146975,0,0,0,0,0,0,0
11,119999,60,110000,3,30000,40,9999,0.100000,0,0,0.000000,6,0.000000,0.000000,22.381448,0,0,0,0,0,0,0
11,119999,61,110000,93,20000,49,9999,0.100000,0,0,0.000000,6,1.000000,0.000000,1.782383,0,0,0,0,0,0,0
11,119999,62,110000,87,30000,49,9999,0.100000,0,0,0.000000,6,10.000000,0.000000,83.453774,0,0,0,0,0,0,0
11,119999,63,110000,1,10000,40,9999,0.100000,0,0,0.000000,6,0.000000,0.000000,0.176536,0,0,0,0,0,0,0
11,119999,64,110000,87,30000,40,9999,0.100000,0,0,0.000000,6,0.000000,0.000000,0.063113,0,0,0,0,0,0,0
11,119999,65,110000,95,60000,40,9999,0.100000,0,0,0.000000,6,0.000000,0.000000,0.093847,0,0,0,0,0,0,0
11,119999,66,110000,87,30000,40,9999,0.100000,0,0,0.000000,6,0.000000,0.000000,0.351203,0,0,0,0,0,0,0
11,119999,67,110000,95,60000,40,9999,0.100000,0,0,0.000000,6,0.000000,0.000000,0.119993,0,0,0,0,0,0,0
11,119999,68,110000,95,60000,49,9999,0.100000,0,0,0.000000,6,1.000000,0.000000,1.427512,0,0,0,0,0,0,0
11,119999,69,110000,87,30000,40,9999,0.100000,0,0,0.000000,6,0.000000,0.000000,0.281752,0,0,0,0,0,0,0
11,119999,70,110000,87,30000,40,9999,0.100000,0,0,0.000000,6,0.000000,0.000000,1.349681,0,0,0,0,0,0,0
11,119999,71,110000,87,30000,40,9999,0.100000,0,0,0.000000,6,0.000000,0.000000,1.362980,0,0,0,0,0,0,0
11,119999,72,110000,3,30000,40,9999,0.100000,0,0,0.000000,6,0.000000,0.000000,0.204881,0,0,0,0,0,0,0
11,119999,73,110000,3,30000,40,9999,0.100000,0,0,0.000000,6,0.000000,0.000000,0.229822,0,0,0,0,0,0,0
11,119999,74,110000,95,60000,40,9999,0.100000,0,0,0.000000,6,0.000000,0.000000,0.721832,0,0,0,0,0,0,0
11,119999,75,110000,95,60000,40,9999,0.100000,0,0,0.000000,6,0.000000,0.000000,1.096228,0,0,0,0,0,0,0
11,119999,76,110000,87,30000,40,9999,0.065000,0,0,0.000000,6,0.000000,0.000000,0.321269,0,0,0,0,0,0,0
11,119999,77,110000,3,30000,49,9999,0.100000,0,0,0.000000,6,2.000000,0.000000,11.019328,0,0,0,0,0,0,0
11,119999,78,110000,3,30000,49,9999,0.100000,0,0,0.000000,6,1.000000,0.000000,5.125468,0,0,0,0,0,0,0
11,119999,79,110000,1,10000,9,9999,0.100000,0,0,0.000000,6,2.000000,0.000000,4.014800,0,0,0,0,0,1,0
11,119999,80,110000,93,20000,49,9999,0.100000,0,0,0.000000,6,3.000000,0.000000,8.643570,0,0,0,0,0,0,0
11,119999,81,110000,95,60000,40,9999,0.100000,0,0,0.000000,6,0.000000,0.000000,0.612646,0,0,0,0,0,0,0
11,119999,82,110000,12,0,40,9999,0.100000,0,0,0.000000,6,0.000000,0.000000,0.076999,0,0,0,0,0,0,0
11,119999,83,110000,87,30000,40,9999,0.100000,0,0,0.000000,6,0.000000,0.000000,2.030119,0,0,0,0,0,0,0
11,119999,84,110000,93,20000,40,9999,0.100000,0,0,0.000000,6,0.000000,0.000000,1.389665,0,0,0,0,0,0,0
11,119999,85,110000,93,20000,40,9999,0.100000,0,0,0.000000,6,0.000000,0.000000,1.541926,0,0,0,0,0,0,0
11,119999,86,110000,3,30000,40,9999,0.100000,0,0,0.000000,6,0.000000,0.000000,0.900602,0,0,0,0,0,0,0
11,119999,87,110000,1,10000,40,9999,0.100000,0,0,0.000000,6,0.000000,0.000000,0.543043,0,0,0,0,0,0,0
11,119999,88,110000,87,30000,40,9999,0.100000,0,0,0.000000,6,0.000000,0.000000,0.241942,0,0,0,0,0,0,0
11,119999,89,110000,95,60000,40,9999,0.100000,0,0,0.000000,6,0.000000,0.000000,0.094217,0,0,0,0,0,0,0
11,119999,90,110000,3,30000,49,9999,0.100000,0,0,0.000000,6,1.000000,0.000000,3.318430,0,0,0,0,0,0,0
11,119999,91,110000,3,30000,40,9999,0.100000,0,0,0.000000,6,0.000000,0.000000,0.161362,0,0,0,0,0,0,0
11,119999,92,110000,3,30000,49,9999,0.100000,0,0,0.000000,6,9.000000,0.000000,18.821566,0,0,0,0,0,0,0
11,119999,93,110000,87,30000,49,9999,0.100000,0,0,0.000000,6,1.000000,0.000000,2.876488,0,0,0,0,0,1,1
11,119999,94,110000,3,30000,40,9999,0.100000,0,0,0.000000,6,0.000000,0.000000,0.288088,0,0,0,0,0,0,0
11,119999,95,110000,87,30000,49,9999,0.100000,0,0,0.000000,6,2.000000,0.000000,11.144550,0,0,0,0,0,0,0
11,119999,96,110000,87,30000,49,9999,0.100000,0,0,0.000000,6,9.000000,0.000000,25.192631,0,0,0,0,0,0,0
11,119999,97,110000,87,30000,49,9999,0.100000,0,0,0.000000,6,7.000000,0.000000,14.776763,0,0,0,0,0,0,0
11,119999,98,110000,93,20000,9,9999,0.100000,0,0,0.000000,6,2.000000,0.000000,4.196167,0,0,0,0,0,1,0
11,119999,99,110000,95,60000,40,9999,0.100000,0,0,0.000000,6,0.000000,0.000000,0.102040,0,0,0,0,0,0,0
12,129999,0,120000,1,10000,40,9999,0.100000,0,0,0.000000,6,0.000000,0.000000,0.891396,0,0,0,0,0,0,0
12,129999,1,120000,87,30000,40,9999,0.100000,0,0,0.000000,6,0.000000,0.000000,0.099172,0,0,0,0,0,0,0
12,129999,2,120000,87,30000,49,9999,0.100000,0,0,0.000000,6,1.000000,0.000000,4.220929,0,0,0,0,0,0,0
12,129999,3,120000,93,20000,40,9999,0.100000,0,0,0.000000,6,0.000000,0.000000,0.300174,0,0,0,0,0,0,0
12,129999,4,120000,95,60000,40,9999,0.100000,0,0,0.000000,6,0.000000,0.000000,0.382500,0,0,0,0,0,0,0
12,129999,5,120000,95,60000,40,9999,0.100000,0,0,0.000000,6,0.000000,0.000000,0.404154,0,0,0,0,0,0,0
12,129999,6,120000,93,20000,49,9999,0.100000,0,0,0.000000,6,3.000000,0.000000,13.508394,0,0,0,0,0,0,0
12,129999,7,120000,12,0,40,9999,0.100000,0,0,0.000000,6,0.000000,0.000000,0.117197,0,0,0,0,0,0,0
12,129999,8,120000,1,10000,40,9999,0.100000,0,0,0.000000,6,0.000000,0.000000,0.809431,0,0,0,0,0,0,0
12,129999,9,120000,93,20000,40,9999,0.100000,0,0,0.000000,6,0.000000,0.000000,0.236298,0,0,0,0,0,0,0
12,129999,10,120000,87,30000,40,9999,0.100000,0,0,0.000000,6,0.000000,0.000000,0.728386,0,0,0,0,0,0,0
12,129999,11,120000,95,60000,40,9999,0.100000,0,0,0.000000,6,0.000000,0.000000,0.205749,0,0,0,0,0,0,0
12,129999,12,120000,87,30000,40,9999,0.100000,0,0,0.000000,6,0.000000,0.000000,0.138675,0,0,0,0,0,0,0
12,129999,13,120000,93,20000,40,9999,0.100000,0,0,0.000000,6,0.000000,0.000000,0.101796,0,0,0,0,0,0,0
12,129999,14,120000,3,30000,49,9999,0.100000,0,0,0.000000,6,1.000000,0.000000,2.089017,0,0,0,0,0,0,0
12,129999,15,120000,3,30000,40,9999,0.100000,0,0,0.000000,6,0.000000,0.000000,0.138229,0,0,0,0,0,0,0
12,129999,16,120000,12,0,40,9999,0.100000,0,0,0.000000,6,0.000000,0.000000,0.239284,0,0,0,0,0,0,0
12,129999,17,120000,95,60000,40,9999,0.100000,0,0,0.000000,6,0.000000,0.000000,0.079982,0,0,0,0,0,0,0
12,129999,18,120000,3,30000,40,9999,0.100000,0,0,0.000000,6,0.000000,0.000000,0.086469,0,0,0,0,0,0,0
12,129999,19,120000,87,30000,49,9999,0.100000,0,0,0.000000,6,5.000000,0.000000,15.772211,0,0,0,0,0,0,0
12,129999,20,120000,12,0,49,9999,0.100000,0,0,0.000000,6,1.000000,0.000000,22.909039,0,0,0,0,0,0,0
12,129999,21,120000,87,30000,49,9999,0.100000,0,0,0.000000,6,2.000000,0.000000,5.669644,0,0,0,0,0,0,0
12,129999,22,120000,87,30000,40,9999,0.100000,0,0,0.000000,6,0.000000,0.000000,0.667023,0,0,0,0,0,0,0
12,129999,23,120000,87,30000,40,9999,0.100000,0,0,0.000000,6,0.000000,0.000000,0.809975,0,0,0,0,0,0,0
12,129999,24,120000,87,30000,40,9999,0.100000,0,0,0.000000,6,0.000000,0.000000,0.126921,0,0,0,0,0,0,0
12,129999,25,120000,3,30000,40,9999,0.100000,0,0,0.000000,6,0.000000,0.000000,0.081021,0,0,0,0,0,0,0
12,129999,26,120000,1,10000,40,9999,0.100000,0,0,0.000000,6,0.000000,0.000000,0.103237,0,0,0,0,0,0,0
12,129999,27,120000,1,10000,49,9999,0.100000,0,0,0.000000,6,3.000000,0.000000,8.018004,0,0,0,0,0,0,0
12,129999,28,120000,93,20000,40,9999,0.100000,0,0,0.000000,6,0.000000,0.000000,1.049041,0,0,0,0,0,0,0
12,129999,29,120000,3,30000,40,9999,0.100000,0,0,0.000000,6,0.000000,0.000000,0.099585,0,0,0,0,0,0,0
