generation,iteration,robot,birthday,ancestor_id,ancestor_birthday,cell_id,age,sigma,maps,genomes,fitness,cells_in_map,dist_max,dist_pot_max,dist_total,com_rx,com_tx,obj_group1,obj_group2,obj_group3,obj_group4,obj_group5
0,9999,0,0,0,0,49,9999,0.100000,0,0,0.000000,0,5.000000,0.000000,9.644465,0,0,0,0,0,0,0
0,9999,1,0,1,0,49,9999,0.100000,0,0,0.000000,0,10.000000,0.000000,10.364282,0,0,0,0,0,0,0
0,9999,2,0,2,0,49,9999,0.100000,0,0,0.000000,0,5.000000,0.000000,23.645367,0,0,0,0,0,0,0
0,9999,3,0,3,0,49,9999,0.100000,0,0,0.000000,0,11.000000,0.000000,12.630842,0,0,0,0,0,0,0
0,9999,4,0,4,0,49,9999,0.100000,0,0,0.000000,0,8.000000,0.000000,17.964012,0,0,0,0,0,0,0
0,9999,5,0,5,0,49,9999,0.100000,0,0,0.000000,0,4.000000,0.000000,5.101705,0,0,0,0,0,0,0
0,9999,6,0,6,0,49,9999,0.100000,0,0,0.000000,0,1.000000,0.000000,10.000926,0,0,0,0,0,0,0
0,9999,7,0,7,0,49,9999,0.100000,0,0,0.000000,0,9.000000,0.000000,17.241407,0,0,0,0,0,0,0
0,9999,8,0,8,0,49,9999,0.100000,0,0,0.000000,0,4.000000,0.000000,12.391161,0,0,0,0,0,0,0
0,9999,9,0,9,0,49,9999,0.100000,0,0,0.000000,0,12.000000,0.000000,18.204278,0,0,0,0,0,0,0
0,9999,10,0,10,0,49,9999,0.100000,0,0,0.000000,0,3.000000,0.000000,18.386269,0,0,0,0,0,0,0
0,9999,11,0,11,0,49,9999,0.100000,0,0,0.000000,0,5.000000,0.000000,17.861531,0,0,0,0,0,0,0
0,9999,12,0,12,0,49,9999,0.100000,0,0,0.000000,0,7.000000,0.000000,22.817680,0,0,0,0,0,0,0
0,9999,13,0,13,0,49,9999,0.100000,0,0,0.000000,0,5.000000,0.000000,15.886733,0,0,0,0,0,0,0
0,9999,14,0,14,0,49,9999,0.100000,0,0,0.000000,0,2.000000,0.000000,8.419095,0,0,0,0,0,0,0
0,9999,15,0,15,0,99,9999,0.100000,0,0,47.368421,0,12.000000,0.000000,21.134474,0,0,1,0,0,0,0
0,9999,16,0,16,0,49,9999,0.100000,0,0,0.000000,0,9.000000,0.000000,19.753902,0,0,0,0,0,0,0
0,9999,17,0,17,0,49,9999,0.100000,0,0,0.000000,0,6.000000,0.000000,10.336021,0,0,0,0,0,0,0
0,9999,18,0,18,0,9,9999,0.100000,0,0,47.368421,0,9.000000,0.000000,16.853401,0,0,0,1,0,0,0
0,9999,19,0,19,0,49,9999,0.100000,0,0,0.000000,0,8.000000,0.000000,16.029572,0,0,0,0,0,0,0
0,9999,20,0,20,0,49,9999,0.100000,0,0,0.000000,0,7.000000,0.000000,13.744834,0,0,0,0,0,0,0
0,9999,21,0,21,0,49,9999,0.100000,0,0,0.000000,0,7.000000,0.000000,21.604428,0,0,0,0,0,0,0
0,9999,22,0,22,0,49,9999,0.100000,0,0,0.000000,0,11.000000,0.000000,13.216936,0,0,0,0,0,0,0
0,9999,23,0,23,0,49,9999,0.100000,0,0,0.000000,0,6.000000,0.000000,14.299459,0,0,0,0,0,0,0
0,9999,24,0,24,0,49,9999,0.100000,0,0,0.000000,0,12.000000,0.000000,19.758821,0,0,0,0,0,0,0
0,9999,25,0,25,0,49,9999,0.100000,0,0,0.000000,0,12.000000,0.000000,31.731082,0,0,0,0,0,0,0
0,9999,26,0,26,0,49,9999,0.100000,0,0,0.000000,0,12.000000,0.000000,18.787513,0,0,0,0,0,0,0
0,9999,27,0,27,0,9,9999,0.100000,0,0,0.000000,0,8.000000,0.000000,20.361383,0,0,0,0,18,0,0
0,9999,28,0,28,0,49,9999,0.100000,0,0,0.000000,0,2.000000,0.000000,10.552169,0,0,0,0,0,0,0
0,9999,29,0,29,0,49,9999,0.100000,0,0,0.000000,0,2.000000,0.000000,5.686461,0,0,0,0,0,0,0
0,9999,30,0,30,0,49,9999,0.100000,0,0,0.000000,0,12.000000,0.000000,13.648494,0,0,0,0,0,0,0
0,9999,31,0,31,0,49,9999,0.100000,0,0,0.000000,0,10.000000,0.000000,20.662152,0,0,0,0,0,0,0
0,9999,32,0,32,0,49,9999,0.100000,0,0,0.000000,0,5.000000,0.000000,17.687920,0,0,0,0,0,0,0
0,9999,33,0,33,0,49,9999,0.100000,0,0,0.000000,0,2.000000,0.000000,3.395868,0,0,0,0,0,0,0
0,9999,34,0,34,0,49,9999,0.100000,0,0,0.000000,0,6.000000,0.000000,11.112122,0,0,0,0,0,0,0
0,9999,35,0,35,0,49,9999,0.100000,0,0,0.000000,0,11.000000,0.000000,15.372205,0,0,0,0,0,0,0
0,9999,36,0,36,0,49,9999,0.100000,0,0,0.000000,0,1.000000,0.000000,9.453858,0,0,0,0,0,0,0
0,9999,37,0,37,0,49,9999,0.100000,0,0,0.000000,0,5.000000,0.000000,10.522302,0,0,0,0,0,0,0
0,9999,38,0,38,0,49,9999,0.100000,0,0,0.000000,0,5.000000,0.000000,17.589232,0,0,0,0,0,0,0
0,9999,39,0,39,0,49,9999,0.100000,0,0,0.000000,0,11.000000,0.000000,16.432420,0,0,0,0,0,0,0
0,9999,40,0,40,0,49,9999,0.100000,0,0,0.000000,0,5.000000,0.000000,12.045141,0,0,0,0,0,0,0
0,9999,41,0,41,0,49,9999,0.100000,0,0,0.000000,0,9.000000,0.000000,20.040175,0,0,0,0,0,0,0
0,9999,42,0,42,0,49,9999,0.100000,0,0,0.000000,0,9.000000,0.000000,14.386694,0,0,0,0,0,0,0
0,9999,43,0,43,0,49,9999,0.100000,0,0,0.000000,0,7.000000,0.000000,20.990028,0,0,0,0,0,0,0
0,9999,44,0,44,0,49,9999,0.100000,0,0,0.000000,0,7.000000,0.000000,9.355457,0,0,0,0,0,0,0
0,9999,45,0,45,0,49,9999,0.100000,0,0,0.000000,0,7.000000,0.000000,8.299000,0,0,0,0,0,0,0
0,9999,46,0,46,0,49,9999,0.100000,0,0,0.000000,0,7.000000,0.000000,17.840842,0,0,0,0,0,0,0
0,9999,47,0,47,0,49,9999,0.100000,0,0,0.000000,0,6.000000,0.000000,6.816662,0,0,0,0,0,0,0
0,9999,48,0,48,0,49,9999,0.100000,0,0,0.000000,0,9.000000,0.000000,16.815131,0,0,0,0,0,0,0
0,9999,49,0,49,0,49,9999,0.100000,0,0,0.000000,0,12.000000,0.000000,18.357491,0,0,0,0,0,0,0
0,9999,50,0,50,0,49,9999,0.100000,0,0,0.000000,0,8.000000,0.000000,15.139522,0,0,0,0,0,0,0
0,9999,51,0,51,0,49,9999,0.100000,0,0,0.000000,0,9.000000,0.000000,13.336230,0,0,0,0,0,0,0
0,9999,52,0,52,0,49,9999,0.100000,0,0,0.000000,0,6.000000,0.000000,13.548143,0,0,0,0,0,0,0
0,9999,53,0,53,0,49,9999,0.100000,0,0,0.000000,0,10.000000,0.000000,17.304149,0,0,0,0,0,0,0
0,9999,54,0,54,0,49,9999,0.100000,0,0,0.000000,0,9.000000,0.000000,20.674971,0,0,0,0,0,0,0
0,9999,55,0,55,0,49,9999,0.100000,0,0,0.000000,0,2.000000,0.000000,5.106073,0,0,0,0,0,0,0
0,9999,56,0,56,0,49,9999,0.100000,0,0,0.000000,0,7.000000,0.000000,20.613964,0,0,0,0,0,0,0
0,9999,57,0,57,0,49,9999,0.100000,0,0,0.000000,0,11.000000,0.000000,21.516372,0,0,0,0,0,0,0
0,9999,58,0,58,0,99,9999,0.100000,0,0,47.368421,0,12.000000,0.000000,32.234205,0,0,1,0,0,0,0
0,9999,59,0,59,0,49,9999,0.100000,0,0,0.000000,0,7.000000,0.000000,19.193945,0,0,0,0,0,0,0
0,9999,60,0,60,0,49,9999,0.100000,0,0,0.000000,0,5.000000,0.000000,10.712109,0,0,0,0,0,0,0
0,9999,61,0,61,0,49,9999,0.100000,0,0,0.000000,0,9.000000,0.000000,19.103117,0,0,0,0,0,0,0
0,9999,62,0,62,0,49,9999,0.100000,0,0,0.000000,0,3.000000,0.000000,4.455315,0,0,0,0,0,0,0
0,9999,63,0,63,0,99,9999,0.100000,0,0,47.368421,0,12.000000,0.000000,28.579538,0,0,1,0,0,0,0
0,9999,64,0,64,0,49,9999,0.100000,0,0,0.000000,0,7.000000,0.000000,8.054888,0,0,0,0,0,0,0
0,9999,65,0,65,0,49,9999,0.100000,0,0,0.000000,0,7.000000,0.000000,17.620167,0,0,0,0,0,0,0
0,9999,66,0,66,0,49,9999,0.100000,0,0,0.000000,0,11.000000,0.000000,15.700757,0,0,0,0,0,0,0
0,9999,67,0,67,0,49,9999,0.100000,0,0,0.000000,0,4.000000,0.000000,5.745330,0,0,0,0,0,0,0
0,9999,68,0,68,0,49,9999,0.100000,0,0,0.000000,0,11.000000,0.000000,17.684645,0,0,0,0,0,0,0
0,9999,69,0,69,0,49,9999,0.100000,0,0,0.000000,0,8.000000,0.000000,16.225556,0,0,0,0,0,0,0
0,9999,70,0,70,0,49,9999,0.100000,0,0,0.000000,0,3.000000,0.000000,7.217652,0,0,0,0,0,0,0
0,9999,71,0,71,0,99,9999,0.100000,0,0,47.368421,0,9.000000,0.000000,27.688337,0,0,1,0,0,0,0
0,9999,72,0,72,0,49,9999,0.100000,0,0,0.000000,0,5.000000,0.000000,8.560014,0,0,0,0,0,0,0
0,9999,73,0,73,0,49,9999,0.100000,0,0,0.000000,0,10.000000,0.000000,18.081650,0,0,0,0,0,0,0
0,9999,74,0,74,0,49,9999,0.100000,0,0,0.000000,0,5.000000,0.000000,12.135162,0,0,0,0,0,0,0
0,9999,75,0,75,0,49,9999,0.100000,0,0,0.000000,0,7.000000,0.000000,13.706545,0,0,0,0,0,0,0
0,9999,76,0,76,0,49,9999,0.100000,0,0,0.000000,0,8.000000,0.000000,13.796182,0,0,0,0,0,0,0
0,9999,77,0,77,0,49,9999,0.100000,0,0,0.000000,0,10.000000,0.000000,24.152944,0,0,0,0,0,0,0
0,9999,78,0,78,0,49,9999,0.100000,0,0,0.000000,0,12.000000,0.000000,21.921650,0,0,0,0,0,0,0
0,9999,79,0,79,0,49,9999,0.100000,0,0,0.000000,0,11.000000,0.000000,16.777187,0,0,0,0,0,0,0
0,9999,80,0,80,0,49,9999,0.100000,0,0,0.000000,0,10.000000,0.000000,10.505124,0,0,0,0,0,0,0
0,9999,81,0,81,0,49,9999,0.100000,0,0,0.000000,0,8.000000,0.000000,22.981581,0,0,0,0,0,0,0
0,9999,82,0,82,0,49,9999,0.100000,0,0,0.000000,0,6.000000,0.000000,7.386659,0,0,0,0,0,0,0
0,9999,83,0,83,0,49,9999,0.100000,0,0,0.000000,0,4.000000,0.000000,13.554044,0,0,0,0,0,0,0
0,9999,84,0,84,0,49,9999,0.100000,0,0,0.000000,0,12.000000,0.000000,16.012227,0,0,0,0,0,0,0
0,9999,85,0,85,0,49,9999,0.100000,0,0,0.000000,0,9.000000,0.000000,10.090643,0,0,0,0,0,0,0
0,9999,86,0,86,0,49,9999,0.100000,0,0,0.000000,0,3.000000,0.000000,12.769463,0,0,0,0,0,0,0
0,9999,87,0,87,0,49,9999,0.100000,0,0,0.000000,0,9.000000,0.000000,20.649081,0,0,0,0,0,0,0
0,9999,88,0,88,0,9,9999,0.100000,0,0,47.368421,0,9.000000,0.000000,25.094260,0,0,0,1,0,0,0
0,9999,89,0,89,0,49,9999,0.100000,0,0,0.000000,0,9.000000,0.000000,11.193387,0,0,0,0,0,0,0
0,9999,90,0,90,0,49,9999,0.100000,0,0,0.000000,0,3.000000,0.000000,5.703916,0,0,0,0,0,0,0
0,9999,91,0,91,0,49,9999,0.100000,0,0,0.000000,0,7.000000,0.000000,7.635313,0,0,0,0,0,0,0
0,9999,92,0,92,0,49,9999,0.100000,0,0,0.000000,0,8.000000,0.000000,13.885320,0,0,0,0,0,0,0
0,9999,93,0,93,0,49,9999,0.100000,0,0,0.000000,0,6.000000,0.000000,10.565016,0,0,0,0,0,0,0
0,9999,94,0,94,0,49,9999,0.100000,0,0,0.000000,0,7.000000,0.000000,10.337510,0,0,0,0,0,0,0
0,9999,95,0,95,0,49,9999,0.100000,0,0,0.000000,0,8.000000,0.000000,13.663823,0,0,0,0,0,0,0
0,9999,96,0,96,0,49,9999,0.100000,0,0,0.000000,0,9.000000,0.000000,11.059523,0,0,0,0,0,0,0
0,9999,97,0,97,0,49,9999,0.100000,0,0,0.000000,0,5.000000,0.000000,21.681930,0,0,0,0,0,0,0
0,9999,98,0,98,0,49,9999,0.100000,0,0,0.000000,0,4.000000,0.000000,14.988581,0,0,0,0,0,0,0
0,9999,99,0,99,0,49,9999,0.100000,0,0,0.000000,0,12.000000,0.000000,18.571847,0,0,0,0,0,0,0
1,19999,0,10000,9,0,49,9999,0.100000,0,0,0.000000,2,5.000000,0.000000,5.242040,0,0,0,0,0,0,0
1,19999,1,10000,1,0,40,9999,0.100000,0,0,0.000000,2,0.000000,0.000000,0.199181,0,0,0,0,0,0,0
1,19999,2,0,2,0,49,19999,0.100000,0,0,0.000000,3,1.000000,0.000000,17.524494,0,0,0,0,0,0,0
1,19999,3,10000,3,0,40,9999,0.100000,0,0,0.000000,2,0.000000,0.000000,0.980984,0,0,0,0,0,0,0
1,19999,4,10000,1,0,40,9999,0.100000,0,0,0.000000,3,0.000000,0.000000,0.525610,0,0,0,0,0,0,0
1,19999,5,10000,1,0,40,9999,0.100000,0,0,0.000000,2,0.000000,0.000000,0.605078,0,0,0,0,0,0,0
1,19999,6,0,6,0,40,19999,0.100000,0,0,0.000000,2,0.000000,0.000000,8.309102,0,0,0,0,0,0,0
1,19999,7,10000,1,0,40,9999,0.100000,0,0,0.000000,3,0.000000,0.000000,1.474181,0,0,0,0,0,0,0
1,19999,8,10000,1,0,40,9999,0.100000,0,0,0.000000,3,0.000000,0.000000,0.763909,0,0,0,0,0,0,0
1,19999,9,10000,9,0,40,9999,0.100000,0,0,0.000000,2,0.000000,0.000000,7.299781,0,0,0,0,0,0,0
1,19999,10,10000,1,0,40,9999,0.100000,0,0,0.000000,3,0.000000,0.000000,0.309717,0,0,0,0,0,0,0
1,19999,11,10000,79,0,99,9999,0.100000,0,0,34.210526,3,4.000000,0.000000,18.301942,0,0,1,0,0,0,0
1,19999,12,10000,12,0,49,9999,0.100000,0,0,0.000000,1,2.000000,0.000000,7.072299,0,0,0,0,0,0,0
1,19999,13,10000,9,0,49,9999,0.100000,0,0,0.000000,3,1.000000,0.000000,7.265044,0,0,0,0,0,0,0
1,19999,14,10000,9,0,40,9999,0.100000,0,0,0.000000,2,0.000000,0.000000,5.199519,0,0,0,0,0,0,0
1,19999,15,10000,79,0,49,9999,0.100000,0,0,0.000000,3,4.000000,0.000000,16.439238,0,0,0,0,0,0,0
1,19999,16,10000,58,0,49,9999,0.100000,0,0,0.000000,3,6.000000,0.000000,11.759880,0,0,0,0,0,0,0
1,19999,17,0,17,0,40,19999,0.100000,0,0,0.000000,3,0.000000,0.000000,0.996737,0,0,0,0,0,0,0
1,19999,18,10000,1,0,40,9999,0.100000,0,0,0.000000,3,0.000000,0.000000,5.952633,0,0,0,0,0,0,0
1,19999,19,10000,9,0,40,9999,0.100000,0,0,0.000000,2,0.000000,0.000000,0.162415,0,0,0,0,0,0,0
1,19999,20,10000,1,0,49,9999,0.100000,0,0,0.000000,2,2.000000,0.000000,4.616079,0,0,0,0,0,0,0
1,19999,21,10000,9,0,99,9999,0.100000,0,0,34.210526,3,9.000000,0.000000,14.062817,0,0,1,0,0,0,0
1,19999,22,10000,79,0,40,9999,0.100000,0,0,0.000000,3,0.000000,0.000000,0.226130,0,0,0,0,0,0,0
1,19999,23,10000,9,0,49,9999,0.100000,0,0,0.000000,3,2.000000,0.000000,3.802433,0,0,0,0,0,0,0
1,19999,24,10000,1,0,40,9999,0.100000,0,0,0.000000,3,0.000000,0.000000,7.237662,0,0,0,0,0,0,0
1,19999,25,10000,1,0,49,9999,0.100000,0,0,0.000000,3,2.000000,0.000000,4.975777,0,0,0,0,0,0,0
1,19999,26,10000,58,0,40,9999,0.100000,0,0,0.000000,3,0.000000,0.000000,1.021161,0,0,0,0,0,0,0
1,19999,27,0,27,0,49,19999,0.100000,0,0,0.000000,2,2.000000,0.000000,8.458316,0,0,0,0,0,0,0
1,19999,28,10000,1,0,49,9999,0.100000,0,0,0.000000,3,2.000000,0.000000,13.875966,0,0,0,0,0,0,0
1,19999,29,0,29,0,49,19999,0.100000,0,0,0.000000,3,1.000000,0.000000,4.403473,0,0,0,0,0,0,0
1,19999,30,10000,9,0,49,9999,0.100000,0,0,0.000000,2,4.000000,0.000000,9.577917,0,0,0,0,0,0,0
1,19999,31,10000,79,0,40,9999,0.100000,0,0,0.000000,3,0.000000,0.000000,0.907865,0,0,0,0,0,0,0
1,19999,32,10000,1,0,49,9999,0.100000,0,0,0.000000,2,3.000000,0.000000,15.740809,0,0,0,0,0,0,0
1,19999,33,10000,79,0,40,9999,0.100000,0,0,0.000000,3,0.000000,0.000000,4.331662,0,0,0,0,0,0,0
1,19999,34,10000,9,0,49,9999,0.100000,0,0,0.000000,3,3.000000,0.000000,5.155897,0,0,0,0,0,0,0
1,19999,35,10000,9,0,49,9999,0.100000,0,0,0.000000,3,2.000000,0.000000,11.647007,0,0,0,0,0,0,0
1,19999,36,10000,9,0,49,9999,0.100000,0,0,0.000000,2,1.000000,0.000000,6.664635,0,0,0,0,0,0,0
1,19999,37,10000,1,0,49,9999,0.100000,0,0,0.000000,2,1.000000,0.000000,4.360817,0,0,0,0,0,0,0
1,19999,38,10000,9,0,40,9999,0.100000,0,0,0.000000,3,0.000000,0.000000,6.887193,0,0,0,0,0,0,0
1,19999,39,10000,1,0,40,9999,0.100000,0,0,0.000000,3,0.000000,0.000000,0.086472,0,0,0,0,0,0,0
1,19999,40,10000,1,0,40,9999,0.100000,0,0,0.000000,2,0.000000,0.000000,0.761273,0,0,0,0,0,0,0
1,19999,41,10000,1,0,40,9999,0.100000,0,0,0.000000,3,0.000000,0.000000,0.890618,0,0,0,0,0,0,0
1,19999,42,0,42,0,40,19999,0.100000,0,0,0.000000,2,0.000000,0.000000,0.089903,0,0,0,0,0,0,0
1,19999,43,10000,9,0,49,9999,0.100000,0,0,0.000000,2,1.000000,0.000000,3.409312,0,0,0,0,0,0,0
1,19999,44,10000,79,0,40,9999,0.100000,0,0,0.000000,3,0.000000,0.000000,4.310514,0,0,0,0,0,0,0
1,19999,45,10000,1,0,40,9999,0.100000,0,0,0.000000,3,0.000000,0.000000,1.225193,0,0,0,0,0,0,0
1,19999,46,10000,1,0,49,9999,0.100000,0,0,0.000000,3,5.000000,0.000000,19.276129,0,0,0,0,0,0,0
1,19999,47,10000,1,0,40,9999,0.100000,0,0,0.000000,3,0.000000,0.000000,0.775450,0,0,0,0,0,0,0
1,19999,48,10000,9,0,40,9999,0.100000,0,0,0.000000,2,0.000000,0.000000,8.221815,0,0,0,0,0,0,0
1,19999,49,10000,9,0,49,9999,0.065000,0,0,0.000000,2,1.000000,0.000000,5.377998,0,0,0,0,0,0,0
1,19999,50,10000,79,0,40,9999,0.100000,0,0,0.000000,3,0.000000,0.000000,0.419294,0,0,0,0,0,0,0
1,19999,51,10000,79,0,40,9999,0.100000,0,0,0.000000,3,0.000000,0.000000,1.029457,0,0,0,0,0,0,0
1,19999,52,10000,79,0,49,9999,0.100000,0,0,0.000000,3,5.000000,0.000000,5.130071,0,0,0,0,0,0,0
1,19999,53,10000,1,0,40,9999,0.100000,0,0,0.000000,2,0.000000,0.000000,0.621286,0,0,0,0,0,0,0
1,19999,54,10000,9,0,40,9999,0.100000,0,0,0.000000,3,0.000000,0.000000,0.280497,0,0,0,0,0,0,0
1,19999,55,10000,9,0,40,9999,0.100000,0,0,0.000000,2,0.000000,0.000000,1.113096,0,0,0,0,0,0,0
1,19999,56,0,56,0,40,19999,0.100000,0,0,0.000000,2,0.000000,0.000000,0.163667,0,0,0,0,0,0,0
1,19999,57,10000,79,0,49,9999,0.100000,0,0,0.000000,3,1.000000,0.000000,5.453440,0,0,0,0,0,0,0
1,19999,58,10000,58,0,40,9999,0.100000,0,0,0.000000,3,0.000000,0.000000,1.026886,0,0,0,0,0,0,0
1,19999,59,10000,1,0,40,9999,0.100000,0,0,0.000000,3,0.000000,0.000000,0.157575,0,0,0,0,0,0,0
1,19999,60,10000,1,0,49,9999,0.100000,0,0,0.000000,3,1.000000,0.000000,5.370190,0,0,0,0,0,0,0
1,19999,61,10000,9,0,49,9999,0.100000,0,0,0.000000,2,8.000000,0.000000,23.135861,0,0,0,0,0,0,0
1,19999,62,10000,1,0,40,9999,0.100000,0,0,0.000000,3,0.000000,0.000000,0.626496,0,0,0,0,0,0,0
1,19999,63,10000,1,0,40,9999,0.100000,0,0,0.000000,3,0.000000,0.000000,0.133129,0,0,0,0,0,0,0
1,19999,64,10000,1,0,40,9999,0.100000,0,0,0.000000,3,0.000000,0.000000,0.586732,0,0,0,0,0,0,0
1,19999,65,10000,79,0,49,9999,0.100000,0,0,0.000000,3,1.000000,0.000000,5.381276,0,0,0,0,0,0,0
1,19999,66,10000,1,0,49,9999,0.100000,0,0,0.000000,3,1.000000,0.000000,12.548965,0,0,0,0,0,0,0
1,19999,67,10000,79,0,40,9999,0.100000,0,0,0.000000,3,0.000000,0.000000,0.300321,0,0,0,0,0,0,0
1,19999,68,10000,1,0,40,9999,0.100000,0,0,0.000000,3,0.000000,0.000000,0.319126,0,0,0,0,0,0,0
1,19999,69,10000,58,0,40,9999,0.100000,0,0,0.000000,3,0.000000,0.000000,1.793956,0,0,0,0,0,0,0
1,19999,70,10000,9,0,40,9999,0.100000,0,0,0.000000,2,0.000000,0.000000,1.149395,0,0,0,0,0,0,0
1,19999,71,10000,9,0,49,9999,0.100000,0,0,0.000000,3,3.000000,0.000000,9.258347,0,0,0,0,0,0,0
1,19999,72,10000,79,0,40,9999,0.100000,0,0,0.000000,3,0.000000,0.000000,1.401892,0,0,0,0,0,0,0
1,19999,73,10000,9,0,40,9999,0.100000,0,0,0.000000,3,0.000000,0.000000,0.388191,0,0,0,0,0,0,0
1,19999,74,10000,9,0,49,9999,0.100000,0,0,0.000000,2,2.000000,0.000000,4.436585,0,0,0,0,0,0,0
1,19999,75,10000,9,0,49,9999,0.100000,0,0,0.000000,3,2.000000,0.000000,2.784601,0,0,0,0,0,0,0
1,19999,76,0,76,0,40,19999,0.100000,0,0,0.000000,2,0.000000,0.000000,6.199076,0,0,0,0,0,0,0
1,19999,77,10000,9,0,49,9999,0.100000,0,0,0.000000,3,4.000000,0.000000,10.205327,0,0,0,0,0,0,0
1,19999,78,10000,1,0,49,9999,0.100000,0,0,0.000000,2,1.000000,0.000000,17.771474,0,0,0,0,0,0,0
1,19999,79,10000,9,0,40,9999,0.100000,0,0,0.000000,3,0.000000,0.000000,0.656151,0,0,0,0,0,0,0
1,19999,80,10000,79,0,49,9999,0.100000,0,0,0.000000,3,9.000000,0.000000,19.758545,0,0,0,0,0,0,0
1,19999,81,10000,1,0,40,9999,0.100000,0,0,0.000000,2,0.000000,0.000000,2.748866,0,0,0,0,0,0,0
1,19999,82,10000,9,0,49,9999,0.065000,0,0,0.000000,3,2.000000,0.000000,3.000212,0,0,0,0,0,0,0
1,19999,83,10000,1,0,49,9999,0.100000,0,0,0.000000,2,1.000000,0.000000,5.122655,0,0,0,0,0,0,0
1,19999,84,10000,1,0,40,9999,0.100000,0,0,0.000000,3,0.000000,0.000000,0.307883,0,0,0,0,0,0,0
1,19999,85,10000,1,0,40,9999,0.100000,0,0,0.000000,3,0.000000,0.000000,1.511019,0,0,0,0,0,0,0
1,19999,86,10000,58,0,40,9999,0.100000,0,0,0.000000,3,0.000000,0.000000,4.203647,0,0,0,0,0,0,0
1,19999,87,10000,1,0,40,9999,0.100000,0,0,0.000000,2,0.000000,0.000000,1.854394,0,0,0,0,0,0,0
1,19999,88,10000,9,0,49,9999,0.100000,0,0,0.000000,3,2.000000,0.000000,5.218634,0,0,0,0,0,0,0
1,19999,89,10000,9,0,49,9999,0.100000,0,0,0.000000,3,1.000000,0.000000,2.748719,0,0,0,0,0,0,0
1,19999,90,10000,9,0,40,9999,0.100000,0,0,0.000000,2,0.000000,0.000000,1.409574,0,0,0,0,0,0,0
1,19999,91,10000,1,0,49,9999,0.100000,0,0,0.000000,3,6.000000,0.000000,13.668294,0,0,0,0,0,0,0
1,19999,92,10000,9,0,40,9999,0.100000,0,0,0.000000,3,0.000000,0.000000,0.654229,0,0,0,0,0,0,0
1,19999,93,10000,79,0,49,9999,0.100000,0,0,0.000000,3,3.000000,0.000000,8.718495,0,0,0,0,0,0,0
1,19999,94,10000,1,0,40,9999,0.100000,0,0,0.000000,3,0.000000,0.000000,0.817709,0,0,0,0,0,0,0
1,19999,95,10000,1,0,40,9999,0.100000,0,0,0.000000,2,0.000000,0.000000,2.218805,0,0,0,0,0,0,0
1,19999,96,10000,9,0,40,9999,0.100000,0,0,0.000000,3,0.000000,0.000000,0.085097,0,0,0,0,0,0,0
1,19999,97,10000,1,0,49,9999,0.100000,0,0,0.000000,3,2.000000,0.000000,17.577981,0,0,0,0,0,0,0
1,19999,98,10000,9,0,49,9999,0.100000,0,0,0.000000,2,2.000000,0.000000,6.833943,0,0,0,0,0,0,0
1,19999,99,10000,58,0,40,9999,0.100000,0,0,0.000000,3,0.000000,0.000000,0.268105,0,0,0,0,0,0,0
2,29999,0,20000,9,0,49,9999,0.100000,0,0,0.000000,3,4.000000,0.000000,4.459862,0,0,0,0,0,0,0
2,29999,1,20000,9,0,40,9999,0.100000,0,0,0.000000,5,0.000000,0.000000,0.207671,0,0,0,0,0,0,0
2,29999,2,20000,42,0,49,9999,0.100000,0,0,0.000000,6,3.000000,0.000000,4.546988,0,0,0,0,0,0,0
2,29999,3,20000,3,10000,40,9999,0.100000,0,0,0.000000,4,0.000000,0.000000,1.022279,0,0,0,0,0,0,0
2,29999,4,20000,9,0,49,9999,0.100000,0,0,0.000000,5,2.000000,0.000000,2.873028,0,0,0,0,0,0,0
2,29999,5,20000,79,0,40,9999,0.100000,0,0,0.000000,5,0.000000,0.000000,0.644435,0,0,0,0,0,0,0
2,29999,6,20000,1,0,49,9999,0.100000,0,0,0.000000,5,1.000000,0.000000,14.068893,0,0,0,0,0,0,0
2,29999,7,20000,79,10000,40,9999,0.100000,0,0,0.000000,6,0.000000,0.000000,1.182427,0,0,0,0,0,0,0
2,29999,8,20000,79,0,40,9999,0.100000,0,0,0.000000,5,0.000000,0.000000,0.912439,0,0,0,0,0,0,0
2,29999,9,20000,79,0,49,9999,0.100000,0,0,0.000000,5,1.000000,0.000000,2.670981,0,0,0,0,0,0,0
2,29999,10,20000,9,0,40,9999,0.100000,0,0,0.000000,6,0.000000,0.000000,0.088237,0,0,0,0,0,0,0
2,29999,11,20000,79,0,49,9999,0.100000,0,0,0.000000,6,3.000000,0.000000,11.558398,0,0,0,0,0,0,0
2,29999,12,20000,1,0,40,9999,0.100000,0,0,0.000000,5,0.000000,0.000000,19.083339,0,0,0,0,0,0,0
2,29999,13,20000,79,0,49,9999,0.100000,0,0,0.000000,6,4.000000,0.000000,16.931406,0,0,0,0,0,0,0
2,29999,14,20000,79,0,49,9999,0.100000,0,0,0.000000,6,6.000000,0.000000,17.471440,0,0,0,0,0,0,0
2,29999,15,20000,79,10000,40,9999,0.100000,0,0,0.000000,6,0.000000,0.000000,0.173338,0,0,0,0,0,0,0
2,29999,16,20000,9,0,49,9999,0.100000,0,0,0.000000,6,4.000000,0.000000,8.406860,0,0,0,0,0,0,0
2,29999,17,20000,4,10000,40,9999,0.100000,0,0,0.000000,5,0.000000,0.000000,0.751358,0,0,0,0,0,0,0
2,29999,18,20000,47,10000,49,9999,0.100000,0,0,0.000000,5,1.000000,0.000000,8.956834,0,0,0,0,0,0,0
2,29999,19,20000,1,0,40,9999,0.100000,0,0,0.000000,5,0.000000,0.000000,0.158436,0,0,0,0,0,0,0
2,29999,20,20000,9,0,49,9999,0.100000,0,0,0.000000,6,2.000000,0.000000,7.012920,0,0,0,0,0,0,0
2,29999,21,20000,1,0,49,9999,0.100000,0,0,0.000000,5,1.000000,0.000000,8.850301,0,0,0,0,0,0,0
2,29999,22,20000,79,10000,40,9999,0.100000,0,0,0.000000,6,0.000000,0.000000,0.697270,0,0,0,0,0,0,0
2,29999,23,20000,79,0,49,9999,0.100000,0,0,0.000000,6,2.000000,0.000000,3.116417,0,0,0,0,0,0,0
2,29999,24,20000,9,0,49,9999,0.100000,0,0,0.000000,6,1.000000,0.000000,2.915224,0,0,0,0,0,0,0
2,29999,25,20000,1,10000,40,9999,0.100000,0,0,0.000000,5,0.000000,0.000000,0.986863,0,0,0,0,0,0,0
2,29999,26,20000,1,0,40,9999,0.100000,0,0,0.000000,5,0.000000,0.000000,1.023952,0,0,0,0,0,0,0
2,29999,27,20000,1,0,49,9999,0.100000,0,0,0.000000,5,2.000000,0.000000,10.829868,0,0,0,0,0,0,0
2,29999,28,20000,79,0,40,9999,0.100000,0,0,0.000000,6,0.000000,0.000000,0.406212,0,0,0,0,0,0,0
2,29999,29,20000,1,10000,49,9999,0.100000,0,0,0.000000,6,3.000000,0.000000,14.644056,0,0,0,0,0,0,0
2,29999,30,20000,9,0,49,9999,0.100000,0,0,0.000000,6,1.000000,0.000000,7.440524,0,0,0,0,0,0,0
2,29999,31,20000,1,0,40,9999,0.100000,0,0,0.000000,5,0.000000,0.000000,0.707388,0,0,0,0,0,0,0
2,29999,32,20000,3,10000,49,9999,0.100000,0,0,0.000000,5,1.000000,0.000000,7.036015,0,0,0,0,0,0,0
2,29999,33,20000,79,10000,40,9999,0.100000,0,0,0.000000,6,0.000000,0.000000,1.088997,0,0,0,0,0,0,0
2,29999,34,20000,1,0,40,9999,0.100000,0,0,0.000000,6,0.000000,0.000000,1.524340,0,0,0,0,0,0,0
2,29999,35,20000,19,10000,49,9999,0.100000,0,0,0.000000,5,3.000000,0.000000,7.462406,0,0,0,0,0,0,0
2,29999,36,20000,1,10000,49,9999,0.100000,0,0,0.000000,6,4.000000,0.000000,18.441323,0,0,0,0,0,0,0
2,29999,37,20000,73,10000,40,9999,0.100000,0,0,0.000000,6,0.000000,0.000000,0.477298,0,0,0,0,0,0,0
2,29999,38,20000,9,0,40,9999,0.100000,0,0,0.000000,6,0.000000,0.000000,4.508160,0,0,0,0,0,0,0
2,29999,39,20000,1,0,40,9999,0.100000,0,0,0.000000,6,0.000000,0.000000,0.101143,0,0,0,0,0,0,0
2,29999,40,20000,73,10000,49,9999,0.100000,0,0,0.000000,6,2.000000,0.000000,6.832627,0,0,0,0,0,0,0
2,29999,41,20000,1,10000,40,9999,0.100000,0,0,0.000000,6,0.000000,0.000000,1.409509,0,0,0,0,0,0,0
2,29999,42,20000,79,0,40,9999,0.100000,0,0,0.000000,5,0.000000,0.000000,0.091838,0,0,0,0,0,0,0
2,29999,43,20000,1,10000,40,9999,0.100000,0,0,0.000000,5,0.000000,0.000000,0.941754,0,0,0,0,0,0,0
2,29999,44,20000,9,0,40,9999,0.100000,0,0,0.000000,5,0.000000,0.000000,2.197964,0,0,0,0,0,0,0
2,29999,45,20000,1,0,40,9999,0.100000,0,0,0.000000,6,0.000000,0.000000,0.148733,0,0,0,0,0,0,0
2,29999,46,20000,1,10000,99,9999,0.100000,0,0,34.210526,6,9.000000,0.000000,11.580426,0,0,1,0,0,0,0
2,29999,47,20000,47,10000,40,9999,0.100000,0,0,0.000000,5,0.000000,0.000000,0.171847,0,0,0,0,0,0,0
2,29999,48,20000,79,0,49,9999,0.100000,0,0,0.000000,6,1.000000,0.000000,9.553237,0,0,0,0,0,0,0
2,29999,49,20000,1,10000,40,9999,0.100000,0,0,0.000000,6,0.000000,0.000000,8.349393,0,0,0,0,0,0,0
2,29999,50,20000,79,0,40,9999,0.100000,0,0,0.000000,4,0.000000,0.000000,0.229181,0,0,0,0,0,0,0
2,29999,51,20000,79,10000,40,9999,0.100000,0,0,0.000000,6,0.000000,0.000000,1.699849,0,0,0,0,0,0,0
2,29999,52,20000,1,10000,49,9999,0.100000,0,0,0.000000,6,4.000000,0.000000,4.416523,0,0,0,0,0,0,0
2,29999,53,20000,51,10000,40,9999,0.100000,0,0,0.000000,6,0.000000,0.000000,0.183838,0,0,0,0,0,0,0
2,29999,54,20000,42,0,40,9999,0.100000,0,0,0.000000,6,0.000000,0.000000,0.152953,0,0,0,0,0,0,0
2,29999,55,20000,42,0,40,9999,0.100000,0,0,0.000000,6,0.000000,0.000000,0.887854,0,0,0,0,0,0,0
2,29999,56,20000,73,10000,49,9999,0.100000,0,0,0.000000,6,2.000000,0.000000,2.820182,0,0,0,0,0,0,0
2,29999,57,20000,79,10000,40,9999,0.100000,0,0,0.000000,6,0.000000,0.000000,1.792662,0,0,0,0,0,0,0
2,29999,58,20000,4,10000,40,9999,0.100000,0,0,0.000000,5,0.000000,0.000000,1.025160,0,0,0,0,0,0,0
2,29999,59,20000,1,0,40,9999,0.100000,0,0,0.000000,6,0.000000,0.000000,0.180058,0,0,0,0,0,0,0
2,29999,60,20000,1,10000,40,9999,0.100000,0,0,0.000000,5,0.000000,0.000000,0.157138,0,0,0,0,0,0,0
2,29999,61,20000,9,0,40,9999,0.100000,0,0,0.000000,6,0.000000,0.000000,1.660429,0,0,0,0,0,0,0
2,29999,62,20000,79,0,49,9999,0.100000,0,0,0.000000,6,3.000000,0.000000,7.184998,0,0,0,0,0,0,0
2,29999,63,20000,1,0,40,9999,0.100000,0,0,0.000000,6,0.000000,0.000000,0.146288,0,0,0,0,0,0,0
2,29999,64,20000,9,0,40,9999,0.100000,0,0,0.000000,5,0.000000,0.000000,0.803520,0,0,0,0,0,0,0
2,29999,65,20000,9,0,49,9999,0.100000,0,0,0.000000,6,1.000000,0.000000,2.240189,0,0,0,0,0,0,0
2,29999,66,20000,79,0,40,9999,0.100000,0,0,0.000000,6,0.000000,0.000000,0.994461,0,0,0,0,0,0,0
2,29999,67,20000,1,0,40,9999,0.100000,0,0,0.000000,6,0.000000,0.000000,0.445236,0,0,0,0,0,0,0
2,29999,68,20000,79,10000,40,9999,0.100000,0,0,0.000000,6,0.000000,0.000000,0.102714,0,0,0,0,0,0,0
2,29999,69,20000,79,10000,40,9999,0.100000,0,0,0.000000,6,0.000000,0.000000,0.573777,0,0,0,0,0,0,0
2,29999,70,20000,1,10000,40,9999,0.100000,0,0,0.000000,5,0.000000,0.000000,5.507631,0,0,0,0,0,0,0
2,29999,71,20000,9,0,40,9999,0.100000,0,0,0.000000,6,0.000000,0.000000,0.187723,0,0,0,0,0,0,0
2,29999,72,20000,3,10000,40,9999,0.100000,0,0,0.000000,5,0.000000,0.000000,0.512956,0,0,0,0,0,0,0
2,29999,73,20000,9,0,40,9999,0.100000,0,0,0.000000,6,0.000000,0.000000,0.133767,0,0,0,0,0,0,0
2,29999,74,20000,9,0,9,9999,0.100000,0,0,0.000000,6,2.000000,0.000000,4.460205,0,0,0,1,0,0,0
2,29999,75,20000,1,0,9,9999,0.100000,0,0,0.000000,6,2.000000,0.000000,3.179984,0,0,0,1,0,0,0
2,29999,76,20000,79,0,40,9999,0.100000,0,0,0.000000,6,0.000000,0.000000,0.558473,0,0,0,0,0,0,0
2,29999,77,20000,79,10000,40,9999,0.100000,0,0,0.000000,6,0.000000,0.000000,0.500148,0,0,0,0,0,0,0
2,29999,78,20000,9,0,49,9999,0.100000,0,0,0.000000,6,2.000000,0.000000,7.153925,0,0,0,0,0,0,0
2,29999,79,20000,1,10000,40,9999,0.100000,0,0,0.000000,6,0.000000,0.000000,0.612107,0,0,0,0,0,0,0
2,29999,80,20000,1,0,40,9999,0.100000,0,0,0.000000,6,0.000000,0.000000,0.066569,0,0,0,0,0,0,0
2,29999,81,20000,9,0,49,9999,0.100000,0,0,0.000000,6,2.000000,0.000000,10.772129,0,0,0,0,0,0,0
2,29999,82,20000,9,0,49,9999,0.100000,0,0,0.000000,6,2.000000,0.000000,3.272050,0,0,0,0,0,0,0
2,29999,83,20000,9,0,40,9999,0.100000,0,0,0.000000,6,0.000000,0.000000,0.757937,0,0,0,0,0,0,0
2,29999,84,20000,9,0,40,9999,0.100000,0,0,0.000000,6,0.000000,0.000000,0.153175,0,0,0,0,0,0,0
2,29999,85,20000,79,10000,40,9999,0.100000,0,0,0.000000,6,0.000000,0.000000,1.623163,0,0,0,0,0,0,0
2,29999,86,20000,79,10000,40,9999,0.100000,0,0,0.000000,6,0.000000,0.000000,0.094267,0,0,0,0,0,0,0
2,29999,87,20000,79,0,40,9999,0.100000,0,0,0.000000,6,0.000000,0.000000,0.412663,0,0,0,0,0,0,0
2,29999,88,20000,1,10000,49,9999,0.100000,0,0,0.000000,6,2.000000,0.000000,2.846518,0,0,0,0,0,0,0
2,29999,89,20000,79,0,40,9999,0.100000,0,0,0.000000,6,0.000000,0.000000,3.742074,0,0,0,0,0,0,0
2,29999,90,20000,1,0,40,9999,0.100000,0,0,0.000000,6,0.000000,0.000000,0.592946,0,0,0,0,0,0,0
2,29999,91,20000,1,0,40,9999,0.100000,0,0,0.000000,6,0.000000,0.000000,0.143168,0,0,0,0,0,0,0
2,29999,92,20000,79,0,49,9999,0.100000,0,0,0.000000,6,3.000000,0.000000,13.165035,0,0,0,0,0,0,0
2,29999,93,20000,1,10000,49,9999,0.100000,0,0,0.000000,5,1.000000,0.000000,3.106398,0,0,0,0,0,0,0
2,29999,94,20000,79,0,40,9999,0.100000,0,0,0.000000,6,0.000000,0.000000,0.168728,0,0,0,0,0,0,0
2,29999,95,20000,1,10000,40,9999,0.100000,0,0,0.000000,6,0.000000,0.000000,0.352736,0,0,0,0,0,0,0
2,29999,96,20000,1,10000,40,9999,0.100000,0,0,0.000000,6,0.000000,0.000000,0.088470,0,0,0,0,0,0,0
2,29999,97,20000,79,0,49,9999,0.100000,0,0,0.000000,6,1.000000,0.000000,7.595430,0,0,0,0,0,0,0
2,29999,98,20000,1,0,49,9999,0.100000,0,0,0.000000,6,3.000000,0.000000,16.369990,0,0,0,0,0,0,0
2,29999,99,20000,79,0,40,9999,0.100000,0,0,0.000000,6,0.000000,0.000000,0.292051,0,0,0,0,0,0,0
3,39999,0,30000,9,0,40,9999,0.100000,0,0,0.000000,6,0.000000,0.000000,1.192937,0,0,0,0,0,0,0
3,39999,1,30000,79,0,40,9999,0.100000,0,0,0.000000,6,0.000000,0.000000,0.339022,0,0,0,0,0,0,0
3,39999,2,30000,1,0,40,9999,0.100000,0,0,0.000000,6,0.000000,0.000000,0.978276,0,0,0,0,0,0,0
3,39999,3,30000,9,0,40,9999,0.100000,0,0,0.000000,6,0.000000,0.000000,1.011333,0,0,0,0,0,0,0
3,39999,4,30000,79,0,40,9999,0.100000,0,0,0.000000,6,0.000000,0.000000,0.146635,0,0,0,0,0,0,0
3,39999,5,30000,79,0,40,9999,0.100000,0,0,0.000000,6,0.000000,0.000000,0.462669,0,0,0,0,0,0,0
3,39999,6,30000,79,0,49,9999,0.100000,0,0,0.000000,6,1.000000,0.000000,15.719865,0,0,0,0,0,0,0
3,39999,7,30000,1,0,40,9999,0.100000,0,0,0.000000,6,0.000000,0.000000,0.333539,0,0,0,0,0,0,0
3,39999,8,30000,1,10000,40,9999,0.100000,0,0,0.000000,6,0.000000,0.000000,1.921956,0,0,0,0,0,0,0
3,39999,9,30000,79,0,49,9999,0.100000,0,0,0.000000,6,1.000000,0.000000,9.603535,0,0,0,0,0,0,0
3,39999,10,30000,79,0,40,9999,0.100000,0,0,0.000000,6,0.000000,0.000000,0.649451,0,0,0,0,0,0,0
3,39999,11,30000,51,10000,49,9999,0.100000,0,0,0.000000,6,1.000000,0.000000,11.010717,0,0,0,0,0,0,0
3,39999,12,30000,79,0,40,9999,0.100000,0,0,0.000000,6,0.000000,0.000000,0.726212,0,0,0,0,0,0,0
3,39999,13,30000,79,0,49,9999,0.100000,0,0,0.000000,6,1.000000,0.000000,16.651071,0,0,0,0,0,0,0
3,39999,14,30000,79,10000,49,9999,0.100000,0,0,0.000000,6,1.000000,0.000000,7.472217,0,0,0,0,0,0,0
3,39999,15,30000,79,0,40,9999,0.100000,0,0,0.000000,6,0.000000,0.000000,0.756869,0,0,0,0,0,0,0
3,39999,16,30000,1,10000,49,9999,0.100000,0,0,0.000000,6,6.000000,0.000000,21.754190,0,0,0,0,0,0,0
3,39999,17,30000,1,10000,40,9999,0.100000,0,0,0.000000,6,0.000000,0.000000,0.545675,0,0,0,0,0,0,0
3,39999,18,30000,1,0,40,9999,0.100000,0,0,0.000000,6,0.000000,0.000000,0.650482,0,0,0,0,0,0,0
3,39999,19,30000,7,20000,49,9999,0.100000,0,0,0.000000,6,1.000000,0.000000,3.145715,0,0,0,0,0,0,0
3,39999,20,30000,9,0,49,9999,0.100000,0,0,0.000000,6,2.000000,0.000000,6.488598,0,0,0,0,0,0,0
3,39999,21,30000,1,10000,40,9999,0.100000,0,0,0.000000,6,0.000000,0.000000,5.582687,0,0,0,0,0,0,0
3,39999,22,30000,51,10000,40,9999,0.100000,0,0,0.000000,6,0.000000,0.000000,0.632319,0,0,0,0,0,0,0
3,39999,23,30000,7,20000,40,9999,0.135000,0,0,0.000000,6,0.000000,0.000000,0.108974,0,0,0,0,0,0,0
3,39999,24,30000,1,10000,40,9999,0.100000,0,0,0.000000,6,0.000000,0.000000,6.749715,0,0,0,0,0,0,0
3,39999,25,30000,1,0,40,9999,0.100000,0,0,0.000000,6,0.000000,0.000000,0.859251,0,0,0,0,0,0,0
3,39999,26,30000,1,0,40,9999,0.100000,0,0,0.000000,6,0.000000,0.000000,1.164693,0,0,0,0,0,0,0
3,39999,27,30000,79,10000,49,9999,0.100000,0,0,0.000000,6,14.000000,0.000000,15.855559,0,0,0,0,0,0,0
3,39999,28,30000,9,0,40,9999,0.100000,0,0,0.000000,6,0.000000,0.000000,1.948544,0,0,0,0,0,0,0
3,39999,29,30000,7,20000,40,9999,0.100000,0,0,0.000000,6,0.000000,0.000000,4.144608,0,0,0,0,0,0,0
3,39999,30,30000,51,10000,49,9999,0.100000,0,0,0.000000,6,4.000000,0.000000,14.458722,0,0,0,0,0,0,0
3,39999,31,30000,1,0,40,9999,0.100000,0,0,0.000000,6,0.000000,0.000000,1.046845,0,0,0,0,0,0,0
3,39999,32,30000,1,10000,49,9999,0.100000,0,0,0.000000,6,4.000000,0.000000,21.249549,0,0,0,0,0,0,0
3,39999,33,30000,79,0,40,9999,0.100000,0,0,0.000000,6,0.000000,0.000000,3.869512,0,0,0,0,0,0,0
3,39999,34,30000,51,10000,40,9999,0.100000,0,0,0.000000,6,0.000000,0.000000,1.067133,0,0,0,0,0,0,0
3,39999,35,30000,7,20000,49,9999,0.100000,0,0,0.000000,6,1.000000,0.000000,3.566595,0,0,0,0,0,0,0
3,39999,36,30000,9,0,49,9999,0.100000,0,0,0.000000,6,1.000000,0.000000,6.278694,0,0,0,0,0,0,0
3,39999,37,30000,7,20000,40,9999,0.100000,0,0,0.000000,6,0.000000,0.000000,0.440580,0,0,0,0,0,0,0
3,39999,38,30000,1,10000,49,9999,0.100000,0,0,0.000000,6,2.000000,0.000000,20.152519,0,0,0,0,0,0,0
3,39999,39,30000,1,0,40,9999,0.100000,0,0,0.000000,6,0.000000,0.000000,0.297878,0,0,0,0,0,0,0
3,39999,40,30000,1,10000,40,9999,0.100000,0,0,0.000000,6,0.000000,0.000000,0.737296,0,0,0,0,0,0,0
3,39999,41,30000,1,0,40,9999,0.100000,0,0,0.000000,6,0.000000,0.000000,0.139224,0,0,0,0,0,0,0
3,39999,42,30000,1,10000,40,9999,0.100000,0,0,0.000000,6,0.000000,0.000000,0.091474,0,0,0,0,0,0,0
3,39999,43,30000,9,0,40,9999,0.100000,0,0,0.000000,6,0.000000,0.000000,1.340307,0,0,0,0,0,0,0
3,39999,44,30000,79,10000,40,9999,0.100000,0,0,0.000000,6,0.000000,0.000000,6.643137,0,0,0,0,0,0,0
3,39999,45,30000,1,10000,40,9999,0.100000,0,0,0.000000,6,0.000000,0.000000,0.498398,0,0,0,0,0,0,0
3,39999,46,30000,51,10000,49,9999,0.100000,0,0,0.000000,6,2.000000,0.000000,4.806700,0,0,0,0,0,0,0
3,39999,47,30000,9,0,49,9999,0.100000,0,0,0.000000,6,4.000000,0.000000,9.586830,0,0,0,0,0,0,0
3,39999,48,30000,79,10000,49,9999,0.100000,0,0,0.000000,6,7.000000,0.000000,9.039387,0,0,0,0,0,0,0
3,39999,49,30000,51,10000,49,9999,0.100000,0,0,0.000000,6,1.000000,0.000000,3.859669,0,0,0,0,0,0,0
3,39999,50,30000,1,0,40,9999,0.100000,0,0,0.000000,6,0.000000,0.000000,0.214381,0,0,0,0,0,0,0
3,39999,51,30000,1,0,40,9999,0.100000,0,0,0.000000,6,0.000000,0.000000,0.914826,0,0,0,0,0,0,0
3,39999,52,30000,7,20000,40,9999,0.100000,0,0,0.000000,6,0.000000,0.000000,1.156807,0,0,0,0,0,0,0
3,39999,53,30000,7,20000,40,9999,0.100000,0,0,0.000000,6,0.000000,0.000000,0.146018,0,0,0,0,0,0,0
3,39999,54,30000,9,0,40,9999,0.135000,0,0,0.000000,6,0.000000,0.000000,0.140135,0,0,0,0,0,0,0
3,39999,55,30000,9,0,40,9999,0.100000,0,0,0.000000,6,0.000000,0.000000,0.708116,0,0,0,0,0,0,0
3,39999,56,30000,9,0,49,9999,0.100000,0,0,0.000000,6,1.000000,0.000000,2.167535,0,0,0,0,0,0,0
3,39999,57,30000,51,10000,40,9999,0.100000,0,0,0.000000,6,0.000000,0.000000,2.224052,0,0,0,0,0,0,0
3,39999,58,30000,79,10000,40,9999,0.100000,0,0,0.000000,6,0.000000,0.000000,1.008242,0,0,0,0,0,0,0
3,39999,59,30000,79,10000,40,9999,0.100000,0,0,0.000000,6,0.000000,0.000000,0.162809,0,0,0,0,0,0,0
3,39999,60,30000,79,0,40,9999,0.100000,0,0,0.000000,6,0.000000,0.000000,0.157039,0,0,0,0,0,0,0
3,39999,61,30000,79,10000,40,9999,0.100000,0,0,0.000000,6,0.000000,0.000000,3.205544,0,0,0,0,0,0,0
3,39999,62,30000,9,0,40,9999,0.100000,0,0,0.000000,6,0.000000,0.000000,0.860888,0,0,0,0,0,0,0
3,39999,63,30000,1,10000,49,9999,0.100000,0,0,0.000000,6,6.000000,0.000000,14.147490,0,0,0,0,0,0,0
3,39999,64,30000,51,10000,40,9999,0.100000,0,0,0.000000,6,0.000000,0.000000,0.579264,0,0,0,0,0,0,0
3,39999,65,30000,9,0,40,9999,0.100000,0,0,0.000000,6,0.000000,0.000000,0.640127,0,0,0,0,0,0,0
3,39999,66,30000,1,0,40,9999,0.100000,0,0,0.000000,6,0.000000,0.000000,1.042876,0,0,0,0,0,0,0
3,39999,67,30000,79,10000,40,9999,0.100000,0,0,0.000000,6,0.000000,0.000000,0.349669,0,0,0,0,0,0,0
3,39999,68,30000,79,10000,40,9999,0.100000,0,0,0.000000,6,0.000000,0.000000,0.404999,0,0,0,0,0,0,0
3,39999,69,30000,1,0,49,9999,0.100000,0,0,0.000000,6,2.000000,0.000000,7.437035,0,0,0,0,0,0,0
3,39999,70,30000,1,0,49,9999,0.100000,0,0,0.000000,6,1.000000,0.000000,1.495652,0,0,0,0,0,0,0
3,39999,71,30000,79,10000,40,9999,0.100000,0,0,0.000000,6,0.000000,0.000000,0.167503,0,0,0,0,0,0,0
3,39999,72,30000,9,0,49,9999,0.100000,0,0,0.000000,6,1.000000,0.000000,2.344366,0,0,0,0,0,0,0
3,39999,73,30000,7,20000,40,9999,0.100000,0,0,0.000000,6,0.000000,0.000000,0.108526,0,0,0,0,0,0,0
3,39999,74,30000,9,0,40,9999,0.100000,0,0,0.000000,6,0.000000,0.000000,0.641929,0,0,0,0,0,0,0
3,39999,75,30000,7,20000,49,9999,0.100000,0,0,0.000000,6,2.000000,0.000000,8.374201,0,0,0,0,0,0,0
3,39999,76,30000,1,10000,40,9999,0.100000,0,0,0.000000,6,0.000000,0.000000,0.083522,0,0,0,0,0,0,0
3,39999,77,30000,9,0,40,9999,0.100000,0,0,0.000000,6,0.000000,0.000000,0.371178,0,0,0,0,0,0,0
3,39999,78,30000,1,10000,49,9999,0.100000,0,0,0.000000,6,2.000000,0.000000,4.619196,0,0,0,0,0,0,0
3,39999,79,30000,1,0,40,9999,0.100000,0,0,0.000000,6,0.000000,0.000000,0.695051,0,0,0,0,0,0,0
3,39999,80,30000,79,10000,40,9999,0.100000,0,0,0.000000,6,0.000000,0.000000,0.249729,0,0,0,0,0,0,0
3,39999,81,30000,1,10000,49,9999,0.100000,0,0,0.000000,6,6.000000,0.000000,33.470771,0,0,0,0,0,0,0
3,39999,82,30000,1,10000,40,9999,0.100000,0,0,0.000000,6,0.000000,0.000000,0.449631,0,0,0,0,0,0,0
3,39999,83,30000,1,0,49,9999,0.100000,0,0,0.000000,6,1.000000,0.000000,1.469541,0,0,0,0,0,0,0
3,39999,84,30000,51,10000,40,9999,0.100000,0,0,0.000000,6,0.000000,0.000000,0.092345,0,0,0,0,0,0,0
3,39999,85,30000,79,10000,40,9999,0.100000,0,0,0.000000,6,0.000000,0.000000,0.410532,0,0,0,0,0,0,0
3,39999,86,30000,79,0,40,9999,0.100000,0,0,0.000000,6,0.000000,0.000000,0.160608,0,0,0,0,0,0,0
3,39999,87,30000,79,0,40,9999,0.100000,0,0,0.000000,6,0.000000,0.000000,0.393087,0,0,0,0,0,0,0
3,39999,88,30000,79,10000,40,9999,0.100000,0,0,0.000000,6,0.000000,0.000000,0.097437,0,0,0,0,0,0,0
3,39999,89,30000,1,10000,40,9999,0.100000,0,0,0.000000,6,0.000000,0.000000,1.846686,0,0,0,0,0,0,0
3,39999,90,30000,79,0,49,9999,0.100000,0,0,0.000000,6,1.000000,0.000000,1.844114,0,0,0,0,0,0,0
3,39999,91,30000,79,10000,40,9999,0.100000,0,0,0.000000,6,0.000000,0.000000,0.136002,0,0,0,0,0,0,0
3,39999,92,30000,79,10000,40,9999,0.100000,0,0,0.000000,6,0.000000,0.000000,5.076778,0,0,0,0,0,0,0
3,39999,93,30000,79,10000,49,9999,0.100000,0,0,0.000000,6,5.000000,0.000000,12.933178,0,0,0,0,0,0,0
3,39999,94,30000,79,0,40,9999,0.100000,0,0,0.000000,6,0.000000,0.000000,0.139702,0,0,0,0,0,0,0
3,39999,95,30000,1,10000,40,9999,0.100000,0,0,0.000000,6,0.000000,0.000000,2.041234,0,0,0,0,0,0,0
3,39999,96,30000,7,20000,40,9999,0.100000,0,0,0.000000,6,0.000000,0.000000,0.086415,0,0,0,0,0,0,0
3,39999,97,30000,9,0,49,9999,0.100000,0,0,0.000000,6,1.000000,0.000000,7.321868,0,0,0,0,0,0,0
3,39999,98,30000,79,10000,49,9999,0.100000,0,0,0.000000,6,4.000000,0.000000,13.258900,0,0,0,0,0,0,0
3,39999,99,30000,1,0,40,9999,0.100000,0,0,0.000000,6,0.000000,0.000000,0.328717,0,0,0,0,0,0,0
4,49999,0,40000,9,0,9,9999,0.100000,0,0,34.210526,6,2.000000,0.000000,15.232110,0,0,0,1,0,0,0
4,49999,1,40000,9,0,40,9999,0.100000,0,0,0.000000,6,0.000000,0.000000,0.257713,0,0,0,0,0,0,0
4,49999,2,40000,79,0,40,9999,0.100000,0,0,0.000000,6,0.000000,0.000000,0.558346,0,0,0,0,0,0,0
4,49999,3,40000,1,0,40,9999,0.100000,0,0,0.000000,6,0.000000,0.000000,1.007379,0,0,0,0,0,0,0
4,49999,4,40000,1,0,40,9999,0.100000,0,0,0.000000,6,0.000000,0.000000,0.429523,0,0,0,0,0,0,0
4,49999,5,40000,79,0,40,9999,0.100000,0,0,0.000000,6,0.000000,0.000000,0.211506,0,0,0,0,0,0,0
4,49999,6,40000,79,0,49,9999,0.100000,0,0,0.000000,6,1.000000,0.000000,18.610143,0,0,0,0,0,0,0
4,49999,7,40000,7,20000,40,9999,0.100000,0,0,0.000000,6,0.000000,0.000000,0.793811,0,0,0,0,0,0,0
4,49999,8,40000,1,0,40,9999,0.100000,0,0,0.000000,6,0.000000,0.000000,0.761575,0,0,0,0,0,0,0
4,49999,9,40000,9,0,40,9999,0.100000,0,0,0.000000,6,0.000000,0.000000,1.715487,0,0,0,0,0,0,0
4,49999,10,40000,1,0,40,9999,0.100000,0,0,0.000000,6,0.000000,0.000000,0.380598,0,0,0,0,0,0,0
4,49999,11,40000,7,20000,49,9999,0.100000,0,0,0.000000,6,1.000000,0.000000,7.634415,0,0,0,0,0,0,0
4,49999,12,40000,79,10000,40,9999,0.100000,0,0,0.000000,6,0.000000,0.000000,0.123420,0,0,0,0,0,0,0
4,49999,13,40000,79,10000,49,9999,0.100000,0,0,0.000000,6,3.000000,0.000000,8.095106,0,0,0,0,0,0,0
4,49999,14,40000,9,0,49,9999,0.100000,0,0,0.000000,6,2.000000,0.000000,5.685150,0,0,0,0,0,0,0
4,49999,15,40000,1,0,40,9999,0.100000,0,0,0.000000,6,0.000000,0.000000,1.189495,0,0,0,0,0,0,0
4,49999,16,40000,1,0,40,9999,0.100000,0,0,0.000000,6,0.000000,0.000000,0.120081,0,0,0,0,0,0,0
4,49999,17,40000,79,0,40,9999,0.100000,0,0,0.000000,6,0.000000,0.000000,0.656978,0,0,0,0,0,0,0
4,49999,18,40000,7,20000,40,9999,0.100000,0,0,0.000000,6,0.000000,0.000000,0.096162,0,0,0,0,0,0,0
4,49999,19,40000,1,0,49,9999,0.100000,0,0,0.000000,6,1.000000,0.000000,4.516964,0,0,0,0,0,0,0
4,49999,20,40000,1,0,49,9999,0.100000,0,0,0.000000,6,3.000000,0.000000,4.117680,0,0,0,0,0,0,0
4,49999,21,40000,9,0,49,9999,0.100000,0,0,0.000000,6,4.000000,0.000000,6.925269,0,0,0,0,0,0,0
4,49999,22,40000,7,20000,40,9999,0.100000,0,0,0.000000,6,0.000000,0.000000,0.211601,0,0,0,0,0,0,0
4,49999,23,40000,1,0,40,9999,0.100000,0,0,0.000000,6,0.000000,0.000000,0.119739,0,0,0,0,0,0,0
4,49999,24,40000,1,0,40,9999,0.100000,0,0,0.000000,6,0.000000,0.000000,1.904312,0,0,0,0,0,0,0
4,49999,25,40000,1,10000,40,9999,0.100000,0,0,0.000000,6,0.000000,0.000000,0.640479,0,0,0,0,0,0,0
4,49999,26,40000,79,0,40,9999,0.100000,0,0,0.000000,6,0.000000,0.000000,1.164080,0,0,0,0,0,0,0
4,49999,27,40000,79,10000,40,9999,0.100000,0,0,0.000000,6,0.000000,0.000000,2.317393,0,0,0,0,0,0,0
4,49999,28,40000,1,10000,40,9999,0.100000,0,0,0.000000,6,0.000000,0.000000,0.464689,0,0,0,0,0,0,0
4,49999,29,40000,79,10000,49,9999,0.100000,0,0,0.000000,6,1.000000,0.000000,2.483580,0,0,0,0,0,0,0
4,49999,30,40000,1,0,49,9999,0.100000,0,0,0.000000,6,6.000000,0.000000,17.244642,0,0,0,0,0,0,0
4,49999,31,40000,79,0,49,9999,0.100000,0,0,0.000000,6,7.000000,0.000000,15.127329,0,0,0,0,0,0,0
4,49999,32,40000,79,10000,49,9999,0.100000,0,0,0.000000,6,1.000000,0.000000,7.233214,0,0,0,0,0,0,0
4,49999,33,40000,1,0,40,9999,0.100000,0,0,0.000000,6,0.000000,0.000000,0.468706,0,0,0,0,0,0,0
4,49999,34,40000,79,0,9,9999,0.100000,0,0,34.210526,6,3.000000,0.000000,16.725889,0,0,0,1,0,0,0
4,49999,35,40000,9,0,40,9999,0.100000,0,0,0.000000,6,0.000000,0.000000,1.331566,0,0,0,0,0,0,0
4,49999,36,40000,1,0,40,9999,0.100000,0,0,0.000000,6,0.000000,0.000000,16.534538,0,0,0,0,0,0,0
4,49999,37,40000,9,0,40,9999,0.100000,0,0,0.000000,6,0.000000,0.000000,0.662591,0,0,0,0,0,0,0
4,49999,38,40000,79,0,49,9999,0.100000,0,0,0.000000,6,2.000000,0.000000,13.029979,0,0,0,0,0,0,0
4,49999,39,40000,7,20000,40,9999,0.100000,0,0,0.000000,6,0.000000,0.000000,0.311721,0,0,0,0,0,0,0
4,49999,40,40000,9,0,40,9999,0.100000,0,0,0.000000,6,0.000000,0.000000,0.416273,0,0,0,0,0,0,0
4,49999,41,40000,1,10000,40,9999,0.100000,0,0,0.000000,6,0.000000,0.000000,2.317207,0,0,0,0,0,0,0
4,49999,42,40000,79,10000,40,9999,0.100000,0,0,0.000000,6,0.000000,0.000000,0.088863,0,0,0,0,0,0,0
4,49999,43,40000,1,0,40,9999,0.100000,0,0,0.000000,6,0.000000,0.000000,0.645378,0,0,0,0,0,0,0
4,49999,44,40000,79,10000,40,9999,0.100000,0,0,0.000000,6,0.000000,0.000000,0.789588,0,0,0,0,0,0,0
4,49999,45,40000,1,0,9,9999,0.100000,0,0,34.210526,6,2.000000,0.000000,16.239264,0,0,0,1,0,0,0
4,49999,46,40000,1,0,40,9999,0.100000,0,0,0.000000,6,0.000000,0.000000,0.401960,0,0,0,0,0,0,0
4,49999,47,40000,7,20000,40,9999,0.100000,0,0,0.000000,6,0.000000,0.000000,0.108637,0,0,0,0,0,0,0
4,49999,48,40000,79,10000,49,9999,0.100000,0,0,0.000000,6,4.000000,0.000000,6.109630,0,0,0,0,0,0,0
4,49999,49,40000,1,0,40,9999,0.100000,0,0,0.000000,6,0.000000,0.000000,2.290127,0,0,0,0,0,0,0
4,49999,50,40000,79,10000,40,9999,0.100000,0,0,0.000000,6,0.000000,0.000000,0.213487,0,0,0,0,0,0,0
4,49999,51,40000,9,0,40,9999,0.100000,0,0,0.000000,6,0.000000,0.000000,0.097754,0,0,0,0,0,0,0
4,49999,52,40000,79,0,9,9999,0.100000,0,0,34.210526,6,3.000000,0.000000,9.533596,0,0,0,1,0,0,0
4,49999,53,40000,1,10000,40,9999,0.100000,0,0,0.000000,6,0.000000,0.000000,0.301565,0,0,0,0,0,0,0
4,49999,54,40000,1,10000,40,9999,0.100000,0,0,0.000000,6,0.000000,0.000000,0.145484,0,0,0,0,0,0,0
4,49999,55,40000,9,0,40,9999,0.100000,0,0,0.000000,6,0.000000,0.000000,0.421861,0,0,0,0,0,0,0
4,49999,56,40000,79,10000,40,9999,0.100000,0,0,0.000000,6,0.000000,0.000000,0.174388,0,0,0,0,0,0,0
4,49999,57,40000,79,0,40,9999,0.100000,0,0,0.000000,6,0.000000,0.000000,1.362774,0,0,0,0,0,0,0
4,49999,58,40000,79,0,40,9999,0.100000,0,0,0.000000,6,0.000000,0.000000,1.005864,0,0,0,0,0,0,0
4,49999,59,40000,79,10000,40,9999,0.100000,0,0,0.000000,6,0.000000,0.000000,0.169376,0,0,0,0,0,0,0
4,49999,60,40000,1,0,40,9999,0.100000,0,0,0.000000,6,0.000000,0.000000,0.151865,0,0,0,0,0,0,0
4,49999,61,40000,1,10000,40,9999,0.100000,0,0,0.000000,6,0.000000,0.000000,2.443257,0,0,0,0,0,0,0
4,49999,62,40000,9,0,40,9999,0.100000,0,0,0.000000,6,0.000000,0.000000,0.129377,0,0,0,0,0,0,0
4,49999,63,40000,1,0,40,9999,0.100000,0,0,0.000000,6,0.000000,0.000000,0.685198,0,0,0,0,0,0,0
4,49999,64,40000,1,10000,40,9999,0.100000,0,0,0.000000,6,0.000000,0.000000,0.732616,0,0,0,0,0,0,0
4,49999,65,40000,1,0,40,9999,0.100000,0,0,0.000000,6,0.000000,0.000000,0.322600,0,0,0,0,0,0,0
4,49999,66,40000,1,0,40,9999,0.100000,0,0,0.000000,6,0.000000,0.000000,0.987470,0,0,0,0,0,0,0
4,49999,67,40000,79,0,40,9999,0.100000,0,0,0.000000,6,0.000000,0.000000,0.156646,0,0,0,0,0,0,0
4,49999,68,40000,7,20000,40,9999,0.100000,0,0,0.000000,6,0.000000,0.000000,0.261749,0,0,0,0,0,0,0
4,49999,69,40000,79,0,40,9999,0.135000,0,0,0.000000,6,0.000000,0.000000,0.533460,0,0,0,0,0,0,0
4,49999,70,40000,9,0,49,9999,0.100000,0,0,0.000000,6,2.000000,0.000000,3.701278,0,0,0,0,0,0,0
4,49999,71,40000,79,10000,40,9999,0.100000,0,0,0.000000,6,0.000000,0.000000,0.169290,0,0,0,0,0,0,0
4,49999,72,40000,79,10000,40,9999,0.100000,0,0,0.000000,6,0.000000,0.000000,0.308214,0,0,0,0,0,0,0
4,49999,73,40000,7,20000,40,9999,0.100000,0,0,0.000000,6,0.000000,0.000000,0.102231,0,0,0,0,0,0,0
4,49999,74,40000,7,20000,40,9999,0.100000,0,0,0.000000,6,0.000000,0.000000,0.230511,0,0,0,0,0,0,0
4,49999,75,40000,7,20000,49,9999,0.100000,0,0,0.000000,6,1.000000,0.000000,7.222106,0,0,0,0,0,0,0
4,49999,76,40000,9,0,40,9999,0.100000,0,0,0.000000,6,0.000000,0.000000,0.082899,0,0,0,0,0,0,0
4,49999,77,40000,79,0,40,9999,0.065000,0,0,0.000000,6,0.000000,0.000000,0.103532,0,0,0,0,0,0,0
4,49999,78,40000,79,0,40,9999,0.100000,0,0,0.000000,6,0.000000,0.000000,1.071697,0,0,0,0,0,0,0
4,49999,79,40000,79,10000,40,9999,0.100000,0,0,0.000000,6,0.000000,0.000000,0.717345,0,0,0,0,0,0,0
4,49999,80,40000,1,0,40,9999,0.100000,0,0,0.000000,6,0.000000,0.000000,0.333079,0,0,0,0,0,0,0
4,49999,81,40000,7,20000,49,9999,0.100000,0,0,0.000000,6,3.000000,0.000000,9.278682,0,0,0,0,0,0,0
4,49999,82,40000,79,10000,40,9999,0.100000,0,0,0.000000,6,0.000000,0.000000,0.454710,0,0,0,0,0,0,0
4,49999,83,40000,1,0,49,9999,0.100000,0,0,0.000000,6,2.000000,0.000000,3.389932,0,0,0,0,0,0,0
4,49999,84,40000,1,0,40,9999,0.100000,0,0,0.000000,6,0.000000,0.000000,0.092969,0,0,0,0,0,0,0
4,49999,85,40000,79,0,40,9999,0.100000,0,0,0.000000,6,0.000000,0.000000,0.312342,0,0,0,0,0,0,0
4,49999,86,40000,7,20000,40,9999,0.100000,0,0,0.000000,6,0.000000,0.000000,0.123411,0,0,0,0,0,0,0
4,49999,87,40000,7,20000,40,9999,0.100000,0,0,0.000000,6,0.000000,0.000000,0.467756,0,0,0,0,0,0,0
4,49999,88,40000,79,0,40,9999,0.100000,0,0,0.000000,6,0.000000,0.000000,0.092914,0,0,0,0,0,0,0
4,49999,89,40000,79,10000,40,9999,0.100000,0,0,0.000000,6,0.000000,0.000000,0.114686,0,0,0,0,0,0,0
4,49999,90,40000,7,20000,49,9999,0.100000,0,0,0.000000,6,3.000000,0.000000,3.442391,0,0,0,0,0,0,0
4,49999,91,40000,1,10000,40,9999,0.100000,0,0,0.000000,6,0.000000,0.000000,0.143483,0,0,0,0,0,0,0
4,49999,92,40000,1,0,40,9999,0.100000,0,0,0.000000,6,0.000000,0.000000,1.065981,0,0,0,0,0,0,0
4,49999,93,40000,7,20000,49,9999,0.100000,0,0,0.000000,6,1.000000,0.000000,2.190874,0,0,0,0,0,0,0
4,49999,94,40000,79,10000,40,9999,0.100000,0,0,0.000000,6,0.000000,0.000000,0.141577,0,0,0,0,0,0,0
4,49999,95,40000,1,0,40,9999,0.100000,0,0,0.000000,6,0.000000,0.000000,0.028449,0,0,0,0,0,0,0
4,49999,96,40000,79,0,40,9999,0.100000,0,0,0.000000,6,0.000000,0.000000,0.084797,0,0,0,0,0,0,0
4,49999,97,40000,79,0,49,9999,0.100000,0,0,0.000000,6,1.000000,0.000000,4.950147,0,0,0,0,0,0,0
4,49999,98,40000,79,0,49,9999,0.100000,0,0,0.000000,6,2.000000,0.000000,14.597579,0,0,0,0,0,0,0
4,49999,99,40000,79,10000,40,9999,0.100000,0,0,0.000000,6,0.000000,0.000000,0.283368,0,0,0,0,0,0,0
5,59999,0,50000,79,10000,49,9999,0.100000,0,0,0.000000,6,3.000000,0.000000,11.549382,0,0,0,0,0,0,0
5,59999,1,50000,79,0,40,9999,0.100000,0,0,0.000000,6,0.000000,0.000000,0.378634,0,0,0,0,0,0,0
5,59999,2,50000,1,0,40,9999,0.100000,0,0,0.000000,6,0.000000,0.000000,0.256507,0,0,0,0,0,0,0
5,59999,3,50000,1,0,40,9999,0.100000,0,0,0.000000,6,0.000000,0.000000,0.817196,0,0,0,0,0,0,0
5,59999,4,50000,45,40000,40,9999,0.100000,0,0,0.000000,6,0.000000,0.000000,0.358469,0,0,0,0,0,0,0
5,59999,5,50000,1,0,40,9999,0.100000,0,0,0.000000,6,0.000000,0.000000,0.090522,0,0,0,0,0,0,0
5,59999,6,50000,1,10000,49,9999,0.100000,0,0,0.000000,6,4.000000,0.000000,18.180779,0,0,0,0,0,0,0
5,59999,7,50000,79,10000,40,9999,0.100000,0,0,0.000000,6,0.000000,0.000000,0.868920,0,0,0,0,0,0,0
5,59999,8,50000,79,10000,40,9999,0.100000,0,0,0.000000,6,0.000000,0.000000,0.118826,0,0,0,0,0,0,0
5,59999,9,50000,7,20000,40,9999,0.100000,0,0,0.000000,6,0.000000,0.000000,1.293580,0,0,0,0,0,0,0
5,59999,10,50000,7,20000,40,9999,0.100000,0,0,0.000000,6,0.000000,0.000000,0.183980,0,0,0,0,0,0,0
5,59999,11,50000,79,0,49,9999,0.100000,0,0,0.000000,6,2.000000,0.000000,7.047869,0,0,0,0,0,0,0
5,59999,12,50000,79,0,40,9999,0.100000,0,0,0.000000,6,0.000000,0.000000,0.188974,0,0,0,0,0,0,0
5,59999,13,50000,1,0,49,9999,0.100000,0,0,0.000000,6,3.000000,0.000000,14.332412,0,0,0,0,0,0,0
5,59999,14,50000,7,20000,49,9999,0.100000,0,0,0.000000,6,1.000000,0.000000,6.072592,0,0,0,0,0,0,0
5,59999,15,50000,79,0,9,9999,0.100000,0,0,0.000000,6,6.000000,0.000000,11.958321,0,0,0,0,0,1,0
5,59999,16,50000,9,0,40,9999,0.100000,0,0,0.000000,6,0.000000,0.000000,0.122827,0,0,0,0,0,0,0
5,59999,17,50000,1,10000,49,9999,0.100000,0,0,0.000000,6,3.000000,0.000000,3.548548,0,0,0,0,0,0,0
5,59999,18,50000,1,10000,49,9999,0.100000,0,0,0.000000,6,1.000000,0.000000,8.325230,0,0,0,0,0,0,0
5,59999,19,50000,9,0,40,9999,0.100000,0,0,0.000000,6,0.000000,0.000000,3.178627,0,0,0,0,0,0,0
5,59999,20,50000,79,10000,40,9999,0.100000,0,0,0.000000,6,0.000000,0.000000,1.018919,0,0,0,0,0,0,0
5,59999,21,50000,1,0,49,9999,0.100000,0,0,0.000000,6,1.000000,0.000000,10.584747,0,0,0,0,0,0,0
5,59999,22,50000,79,10000,40,9999,0.100000,0,0,0.000000,6,0.000000,0.000000,0.155397,0,0,0,0,0,0,0
5,59999,23,50000,79,0,49,9999,0.100000,0,0,0.000000,6,1.000000,0.000000,3.165083,0,0,0,1,0,1,0
5,59999,24,50000,7,20000,49,9999,0.100000,0,0,0.000000,6,2.000000,0.000000,5.939824,0,0,0,0,0,0,0
5,59999,25,50000,1,10000,40,9999,0.100000,0,0,0.000000,6,0.000000,0.000000,0.840008,0,0,0,0,0,0,0
5,59999,26,50000,45,40000,40,9999,0.100000,0,0,0.000000,6,0.000000,0.000000,1.508181,0,0,0,0,0,0,0
5,59999,27,50000,1,10000,40,9999,0.100000,0,0,0.000000,6,0.000000,0.000000,2.348558,0,0,0,0,0,0,0
5,59999,28,50000,79,0,40,9999,0.100000,0,0,0.000000,6,0.000000,0.000000,0.086076,0,0,0,0,0,0,0
5,59999,29,50000,9,0,40,9999,0.100000,0,0,0.000000,6,0.000000,0.000000,3.288579,0,0,0,0,0,0,0
5,59999,30,50000,9,0,40,9999,0.100000,0,0,0.000000,6,0.000000,0.000000,4.193209,0,0,0,0,0,0,0
5,59999,31,50000,79,0,40,9999,0.100000,0,0,0.000000,6,0.000000,0.000000,0.947335,0,0,0,0,0,0,0
5,59999,32,50000,9,0,49,9999,0.100000,0,0,0.000000,6,2.000000,0.000000,5.575694,0,0,0,0,0,0,0
5,59999,33,50000,79,0,40,9999,0.100000,0,0,0.000000,6,0.000000,0.000000,19.626391,0,0,0,0,0,0,0
5,59999,34,50000,1,10000,49,9999,0.100000,0,0,0.000000,6,3.000000,0.000000,12.052382,0,0,0,0,0,0,0
5,59999,35,50000,9,0,40,9999,0.100000,0,0,0.000000,6,0.000000,0.000000,2.743463,0,0,0,0,0,0,0
5,59999,36,50000,1,10000,49,9999,0.100000,0,0,0.000000,6,2.000000,0.000000,15.590001,0,0,0,0,0,0,0
5,59999,37,50000,79,0,49,9999,0.100000,0,0,0.000000,6,2.000000,0.000000,3.256519,0,0,0,0,0,0,0
5,59999,38,50000,9,0,40,9999,0.100000,0,0,0.000000,6,0.000000,0.000000,6.024141,0,0,0,0,0,0,0
5,59999,39,50000,1,10000,40,9999,0.100000,0,0,0.000000,6,0.000000,0.000000,0.543276,0,0,0,0,0,0,0
5,59999,40,50000,1,0,40,9999,0.100000,0,0,0.000000,6,0.000000,0.000000,0.199160,0,0,0,0,0,0,0
5,59999,41,50000,79,0,40,9999,0.100000,0,0,0.000000,6,0.000000,0.000000,1.437767,0,0,0,0,0,0,0
5,59999,42,50000,79,0,40,9999,0.100000,0,0,0.000000,6,0.000000,0.000000,0.087547,0,0,0,0,0,0,0
5,59999,43,50000,79,10000,40,9999,0.135000,0,0,0.000000,6,0.000000,0.000000,0.826275,0,0,0,0,0,0,0
5,59999,44,50000,79,10000,40,9999,0.100000,0,0,0.000000,6,0.000000,0.000000,1.973329,0,0,0,0,0,0,0
5,59999,45,50000,1,10000,49,9999,0.100000,0,0,0.000000,6,5.000000,0.000000,6.962990,0,0,0,0,0,0,0
5,59999,46,50000,1,10000,40,9999,0.100000,0,0,0.000000,6,0.000000,0.000000,0.769513,0,0,0,0,0,0,0
5,59999,47,50000,79,10000,40,9999,0.100000,0,0,0.000000,6,0.000000,0.000000,0.105761,0,0,0,0,0,0,0
5,59999,48,50000,7,20000,49,9999,0.100000,0,0,0.000000,6,1.000000,0.000000,4.386026,0,0,0,0,0,0,0
5,59999,49,50000,45,40000,40,9999,0.100000,0,0,0.000000,6,0.000000,0.000000,1.883074,0,0,0,0,0,0,0
5,59999,50,50000,1,10000,40,9999,0.100000,0,0,0.000000,6,0.000000,0.000000,0.208441,0,0,0,0,0,0,0
5,59999,51,50000,9,0,40,9999,0.100000,0,0,0.000000,6,0.000000,0.000000,0.232193,0,0,0,0,0,0,0
5,59999,52,50000,7,20000,49,9999,0.100000,0,0,0.000000,6,3.000000,0.000000,16.771060,0,0,0,0,0,0,0
5,59999,53,50000,7,20000,40,9999,0.100000,0,0,0.000000,6,0.000000,0.000000,0.326126,0,0,0,0,0,0,0
5,59999,54,50000,7,20000,40,9999,0.100000,0,0,0.000000,6,0.000000,0.000000,0.148814,0,0,0,0,0,0,0
5,59999,55,50000,7,20000,40,9999,0.100000,0,0,0.000000,6,0.000000,0.000000,0.737717,0,0,0,0,0,0,0
5,59999,56,50000,7,20000,40,9999,0.100000,0,0,0.000000,6,0.000000,0.000000,0.287662,0,0,0,0,0,0,0
5,59999,57,50000,79,0,40,9999,0.100000,0,0,0.000000,6,0.000000,0.000000,1.507134,0,0,0,0,0,0,0
5,59999,58,50000,79,0,40,9999,0.100000,0,0,0.000000,6,0.000000,0.000000,1.014722,0,0,0,0,0,0,0
5,59999,59,50000,45,40000,40,9999,0.100000,0,0,0.000000,6,0.000000,0.000000,0.166840,0,0,0,0,0,0,0
5,59999,60,50000,79,10000,40,9999,0.100000,0,0,0.000000,6,0.000000,0.000000,0.151179,0,0,0,0,0,0,0
5,59999,61,50000,7,20000,40,9999,0.100000,0,0,0.000000,6,0.000000,0.000000,3.319556,0,0,0,0,0,0,0
5,59999,62,50000,7,20000,49,9999,0.100000,0,0,0.000000,6,3.000000,0.000000,14.302410,0,0,0,0,0,0,0
5,59999,63,50000,79,0,40,9999,0.100000,0,0,0.000000,6,0.000000,0.000000,0.558686,0,0,0,0,0,0,0
5,59999,64,50000,7,20000,49,9999,0.100000,0,0,0.000000,6,3.000000,0.000000,6.804609,0,0,0,0,0,0,0
5,59999,65,50000,79,10000,40,9999,0.100000,0,0,0.000000,6,0.000000,0.000000,0.150989,0,0,0,0,0,0,0
5,59999,66,50000,1,0,40,9999,0.100000,0,0,0.000000,6,0.000000,0.000000,0.993236,0,0,0,0,0,0,0
5,59999,67,50000,7,20000,40,9999,0.100000,0,0,0.000000,6,0.000000,0.000000,0.086462,0,0,0,0,0,0,0
5,59999,68,50000,1,0,40,9999,0.100000,0,0,0.000000,6,0.000000,0.000000,0.427174,0,0,0,0,0,0,0
5,59999,69,50000,7,20000,40,9999,0.100000,0,0,0.000000,6,0.000000,0.000000,0.665262,0,0,0,0,0,0,0
5,59999,70,50000,1,10000,40,9999,0.100000,0,0,0.000000,6,0.000000,0.000000,2.035013,0,0,0,0,0,0,0
5,59999,71,50000,79,10000,40,9999,0.100000,0,0,0.000000,6,0.000000,0.000000,0.166097,0,0,0,0,0,0,0
5,59999,72,50000,79,0,40,9999,0.100000,0,0,0.000000,6,0.000000,0.000000,0.478715,0,0,0,0,0,0,0
5,59999,73,50000,79,0,40,9999,0.100000,0,0,0.000000,6,0.000000,0.000000,0.600498,0,0,0,0,0,0,0
5,59999,74,50000,79,10000,60,9999,0.100000,0,0,0.000000,6,0.000000,0.000000,1.578372,0,0,0,2,0,1,0
5,59999,75,50000,79,0,49,9999,0.100000,0,0,0.000000,6,3.000000,0.000000,8.578032,0,0,0,0,0,0,0
5,59999,76,50000,45,40000,40,9999,0.100000,0,0,0.000000,6,0.000000,0.000000,0.082910,0,0,0,0,0,0,0
5,59999,77,50000,79,10000,40,9999,0.100000,0,0,0.000000,6,0.000000,0.000000,0.079544,0,0,0,0,0,0,0
5,59999,78,50000,79,0,49,9999,0.100000,0,0,0.000000,6,5.000000,0.000000,14.562395,0,0,0,0,0,0,0
5,59999,79,50000,7,20000,40,9999,0.100000,0,0,0.000000,6,0.000000,0.000000,0.723140,0,0,0,0,0,0,0
5,59999,80,50000,7,20000,40,9999,0.100000,0,0,0.000000,6,0.000000,0.000000,0.801160,0,0,0,0,0,0,0
5,59999,81,50000,9,0,49,9999,0.100000,0,0,0.000000,6,3.000000,0.000000,11.416517,0,0,0,0,0,0,0
5,59999,82,50000,7,20000,0,9999,0.100000,0,0,0.000000,6,0.000000,0.000000,5.760862,0,0,0,1,0,0,0
5,59999,83,50000,45,40000,40,9999,0.100000,0,0,0.000000,6,0.000000,0.000000,1.553792,0,0,0,0,0,0,0
5,59999,84,50000,9,0,40,9999,0.100000,0,0,0.000000,6,0.000000,0.000000,0.093632,0,0,0,0,0,0,0
5,59999,85,50000,79,0,40,9999,0.100000,0,0,0.000000,6,0.000000,0.000000,0.418453,0,0,0,0,0,0,0
5,59999,86,50000,7,20000,40,9999,0.100000,0,0,0.000000,6,0.000000,0.000000,0.196435,0,0,0,0,0,0,0
5,59999,87,50000,7,20000,49,9999,0.100000,0,0,0.000000,6,2.000000,0.000000,3.010038,0,0,0,0,0,0,0
5,59999,88,50000,79,10000,49,9999,0.100000,0,0,0.000000,6,1.000000,0.000000,6.519936,0,0,0,0,0,0,0
5,59999,89,50000,7,20000,40,9999,0.100000,0,0,0.000000,6,0.000000,0.000000,0.092737,0,0,0,0,0,0,0
5,59999,90,50000,1,10000,40,9999,0.100000,0,0,0.000000,6,0.000000,0.000000,1.325753,0,0,0,0,0,0,0
5,59999,91,50000,1,10000,40,9999,0.100000,0,0,0.000000,6,0.000000,0.000000,0.135324,0,0,0,0,0,0,0
5,59999,92,50000,79,10000,49,9999,0.100000,0,0,0.000000,6,5.000000,0.000000,11.764690,0,0,0,0,0,0,0
5,59999,93,50000,1,0,9,9999,0.100000,0,0,0.000000,6,5.000000,0.000000,9.724029,0,0,0,0,0,1,0
5,59999,94,50000,79,0,40,9999,0.100000,0,0,0.000000,6,0.000000,0.000000,0.141567,0,0,0,0,0,0,0
5,59999,95,50000,79,10000,40,9999,0.100000,0,0,0.000000,6,0.000000,0.000000,0.009207,0,0,0,0,0,0,0
5,59999,96,50000,7,20000,40,9999,0.100000,0,0,0.000000,6,0.000000,0.000000,0.084362,0,0,0,0,0,0,0
5,59999,97,50000,79,0,40,9999,0.100000,0,0,0.000000,6,0.000000,0.000000,12.740501,0,0,0,0,0,0,0
5,59999,98,50000,1,0,40,9999,0.100000,0,0,0.000000,6,0.000000,0.000000,2.823240,0,0,0,0,0,0,0
5,59999,99,50000,7,20000,40,9999,0.100000,0,0,0.000000,6,0.000000,0.000000,1.185172,0,0,0,0,0,0,0
6,69999,0,60000,79,10000,49,9999,0.100000,0,0,0.000000,6,1.000000,0.000000,4.328482,0,0,0,0,0,0,0
6,69999,1,60000,7,50000,49,9999,0.100000,0,0,0.000000,7,1.000000,0.000000,15.580573,0,0,0,0,0,0,0
6,69999,2,60000,23,50000,40,9999,0.100000,0,0,0.000000,7,0.000000,0.000000,0.253550,0,0,0,0,0,0,0
6,69999,3,60000,9,0,40,9999,0.100000,0,0,0.000000,6,0.000000,0.000000,0.506162,0,0,0,0,0,0,0
6,69999,4,60000,79,10000,40,9999,0.100000,0,0,0.000000,6,0.000000,0.000000,0.983376,0,0,0,0,0,0,0
6,69999,5,60000,7,20000,40,9999,0.100000,0,0,0.000000,6,0.000000,0.000000,0.091260,0,0,0,0,0,0,0
6,69999,6,60000,9,0,40,9999,0.100000,0,0,0.000000,6,0.000000,0.000000,7.778153,0,0,0,0,0,0,0
6,69999,7,60000,23,50000,40,9999,0.100000,0,0,0.000000,7,0.000000,0.000000,0.141943,0,0,0,0,0,0,0
6,69999,8,60000,45,40000,40,9999,0.100000,0,0,0.000000,7,0.000000,0.000000,0.108156,0,0,0,0,0,0,0
6,69999,9,60000,79,10000,49,9999,0.100000,0,0,0.000000,6,4.000000,0.000000,12.777060,0,0,0,0,0,0,0
6,69999,10,60000,9,0,40,9999,0.100000,0,0,0.000000,7,0.000000,0.000000,0.168079,0,0,0,0,0,0,0
6,69999,11,60000,45,40000,0,9999,0.100000,0,0,0.000000,6,0.000000,0.000000,0.609403,0,0,0,0,0,2,0
6,69999,12,60000,79,10000,40,9999,0.100000,0,0,0.000000,7,0.000000,0.000000,0.480850,0,0,0,0,0,0,0
6,69999,13,60000,45,40000,40,9999,0.100000,0,0,0.000000,7,0.000000,0.000000,3.847549,0,0,0,0,0,0,0
6,69999,14,60000,7,20000,40,9999,0.100000,0,0,0.000000,6,0.000000,0.000000,4.697914,0,0,0,0,0,0,0
6,69999,15,60000,74,50000,40,9999,0.100000,0,0,0.000000,6,0.000000,0.000000,0.156683,0,0,0,0,0,0,0
6,69999,16,60000,7,20000,40,9999,0.100000,0,0,0.000000,6,0.000000,0.000000,0.115744,0,0,0,0,0,0,0
6,69999,17,60000,79,10000,49,9999,0.100000,0,0,0.000000,6,1.000000,0.000000,1.507062,0,0,0,0,0,0,0
6,69999,18,60000,79,10000,49,9999,0.100000,0,0,0.000000,6,2.000000,0.000000,12.486495,0,0,0,0,0,0,0
6,69999,19,60000,1,10000,40,9999,0.100000,0,0,0.000000,6,0.000000,0.000000,2.599382,0,0,0,0,0,0,0
6,69999,20,60000,9,0,40,9999,0.100000,0,0,0.000000,7,0.000000,0.000000,0.634306,0,0,0,0,0,0,0
6,69999,21,60000,7,20000,49,9999,0.100000,0,0,0.000000,6,1.000000,0.000000,11.496786,0,0,0,0,0,0,0
6,69999,22,60000,9,0,40,9999,0.100000,0,0,0.000000,6,0.000000,0.000000,0.323932,0,0,0,0,0,0,0
6,69999,23,60000,74,50000,40,9999,0.100000,0,0,0.000000,7,0.000000,0.000000,0.418179,0,0,0,1,0,1,0
6,69999,24,60000,45,40000,49,9999,0.100000,0,0,0.000000,6,5.000000,0.000000,11.244373,0,0,0,0,0,0,0
6,69999,25,60000,9,0,40,9999,0.100000,0,0,0.000000,6,0.000000,0.000000,1.472377,0,0,0,0,0,0,0
6,69999,26,60000,9,0,40,9999,0.100000,0,0,0.000000,6,0.000000,0.000000,1.447945,0,0,0,0,0,0,0
6,69999,27,60000,79,0,40,9999,0.100000,0,0,0.000000,6,0.000000,0.000000,2.148643,0,0,0,0,0,0,0
6,69999,28,60000,7,20000,40,9999,0.100000,0,0,0.000000,6,0.000000,0.000000,0.453398,0,0,0,0,0,0,0
6,69999,29,60000,7,20000,40,9999,0.100000,0,0,0.000000,6,0.000000,0.000000,2.967437,0,0,0,0,0,0,0
6,69999,30,60000,9,0,40,9999,0.100000,0,0,0.000000,7,0.000000,0.000000,5.777691,0,0,0,0,0,0,0
6,69999,31,60000,9,0,49,9999,0.100000,0,0,0.000000,7,4.000000,0.000000,8.345771,0,0,0,0,0,0,0
6,69999,32,60000,79,0,49,9999,0.100000,0,0,0.000000,6,2.000000,0.000000,9.702645,0,0,0,0,0,0,0
6,69999,33,60000,45,40000,40,9999,0.100000,0,0,0.000000,6,0.000000,0.000000,19.985735,0,0,0,0,0,0,0
6,69999,34,60000,45,40000,40,9999,0.100000,0,0,0.000000,7,0.000000,0.000000,7.680125,0,0,0,0,0,0,0
6,69999,35,60000,45,40000,40,9999,0.100000,0,0,0.000000,6,0.000000,0.000000,1.415577,0,0,0,0,0,0,0
6,69999,36,60000,45,40000,49,9999,0.100000,0,0,0.000000,6,2.000000,0.000000,18.793923,0,0,0,0,0,0,0
6,69999,37,60000,9,0,49,9999,0.100000,0,0,0.000000,7,1.000000,0.000000,1.368156,0,0,0,0,0,0,0
6,69999,38,60000,9,0,49,9999,0.100000,0,0,0.000000,6,1.000000,0.000000,6.905918,0,0,0,0,0,0,0
6,69999,39,60000,79,0,49,9999,0.100000,0,0,0.000000,7,5.000000,0.000000,9.120553,0,0,0,0,0,0,0
6,69999,40,60000,79,0,40,9999,0.100000,0,0,0.000000,7,0.000000,0.000000,0.189567,0,0,0,0,0,0,0
6,69999,41,60000,45,40000,40,9999,0.100000,0,0,0.000000,6,0.000000,0.000000,0.165364,0,0,0,0,0,0,0
6,69999,42,60000,9,0,40,9999,0.100000,0,0,0.000000,7,0.000000,0.000000,0.089763,0,0,0,0,0,0,0
6,69999,43,60000,7,20000,40,9999,0.100000,0,0,0.000000,6,0.000000,0.000000,1.907451,0,0,0,0,0,0,0
6,69999,44,60000,45,40000,40,9999,0.100000,0,0,0.000000,7,0.000000,0.000000,0.236754,0,0,0,0,0,0,0
6,69999,45,60000,23,50000,40,9999,0.100000,0,0,0.000000,7,0.000000,0.000000,0.409846,0,0,0,0,0,0,0
6,69999,46,60000,9,0,40,9999,0.100000,0,0,0.000000,6,0.000000,0.000000,0.582272,0,0,0,0,0,0,0
6,69999,47,60000,9,0,40,9999,0.100000,0,0,0.000000,6,0.000000,0.000000,0.106305,0,0,0,0,0,0,0
6,69999,48,60000,79,0,40,9999,0.100000,0,0,0.000000,6,0.000000,0.000000,0.222400,0,0,0,0,0,0,0
6,69999,49,60000,9,0,40,9999,0.100000,0,0,0.000000,6,0.000000,0.000000,1.815052,0,0,0,0,0,0,0
6,69999,50,60000,79,10000,40,9999,0.100000,0,0,0.000000,6,0.000000,0.000000,0.208548,0,0,0,0,0,0,0
6,69999,51,60000,79,10000,40,9999,0.100000,0,0,0.000000,7,0.000000,0.000000,0.807681,0,0,0,0,0,0,0
6,69999,52,60000,45,40000,49,9999,0.100000,0,0,0.000000,6,1.000000,0.000000,1.512962,0,0,0,0,0,0,0
6,69999,53,60000,79,0,40,9999,0.100000,0,0,0.000000,7,0.000000,0.000000,0.211270,0,0,0,0,0,0,0
6,69999,54,60000,23,50000,40,9999,0.100000,0,0,0.000000,7,0.000000,0.000000,0.146398,0,0,0,0,0,0,0
6,69999,55,60000,79,10000,40,9999,0.100000,0,0,0.000000,7,0.000000,0.000000,0.547218,0,0,0,0,0,0,0
6,69999,56,60000,9,0,40,9999,0.100000,0,0,0.000000,6,0.000000,0.000000,0.226928,0,0,0,0,0,0,0
6,69999,57,60000,9,0,40,9999,0.100000,0,0,0.000000,6,0.000000,0.000000,2.911367,0,0,0,0,0,0,0
6,69999,58,60000,7,20000,40,9999,0.100000,0,0,0.000000,6,0.000000,0.000000,1.014838,0,0,0,0,0,0,0
6,69999,59,60000,9,0,40,9999,0.100000,0,0,0.000000,6,0.000000,0.000000,0.170370,0,0,0,0,0,0,0
6,69999,60,60000,79,0,40,9999,0.100000,0,0,0.000000,6,0.000000,0.000000,0.158676,0,0,0,0,0,0,0
6,69999,61,60000,79,0,40,9999,0.100000,0,0,0.000000,7,0.000000,0.000000,0.716292,0,0,0,0,0,0,0
6,69999,62,60000,9,0,40,9999,0.100000,0,0,0.000000,7,0.000000,0.000000,0.171259,0,0,0,0,0,0,0
6,69999,63,60000,79,0,40,9999,0.100000,0,0,0.000000,6,0.000000,0.000000,0.448800,0,0,0,0,0,0,0
6,69999,64,60000,7,20000,40,9999,0.100000,0,0,0.000000,7,0.000000,0.000000,0.652037,0,0,0,0,0,0,0
6,69999,65,60000,79,0,40,9999,0.100000,0,0,0.000000,7,0.000000,0.000000,0.140679,0,0,0,0,0,0,0
6,69999,66,60000,9,0,40,9999,0.100000,0,0,0.000000,7,0.000000,0.000000,0.888836,0,0,0,0,0,0,0
6,69999,67,60000,7,20000,40,9999,0.100000,0,0,0.000000,7,0.000000,0.000000,0.090639,0,0,0,0,0,0,0
6,69999,68,60000,79,10000,49,9999,0.100000,0,0,0.000000,6,1.000000,0.000000,2.451319,0,0,0,0,0,0,0
6,69999,69,60000,9,0,40,9999,0.100000,0,0,0.000000,7,0.000000,0.000000,2.219971,0,0,0,0,0,0,0
6,69999,70,60000,79,0,40,9999,0.100000,0,0,0.000000,7,0.000000,0.000000,1.035170,0,0,0,0,0,0,0
6,69999,71,50000,79,10000,40,19999,0.100000,0,0,0.000000,7,0.000000,0.000000,0.169126,0,0,0,0,0,0,0
6,69999,72,60000,7,20000,40,9999,0.100000,0,0,0.000000,7,0.000000,0.000000,0.781845,0,0,0,0,0,0,0
6,69999,73,60000,79,10000,40,9999,0.100000,0,0,0.000000,7,0.000000,0.000000,0.110479,0,0,0,0,0,0,0
6,69999,74,60000,45,40000,30,9999,0.100000,0,0,0.000000,6,0.000000,0.000000,1.371798,0,0,0,1,0,2,0
6,69999,75,60000,9,0,40,9999,0.100000,0,0,0.000000,7,0.000000,0.000000,0.723390,0,0,0,0,0,0,0
6,69999,76,60000,9,0,40,9999,0.100000,0,0,0.000000,6,0.000000,0.000000,0.083365,0,0,0,0,0,0,0
6,69999,77,60000,79,10000,40,9999,0.100000,0,0,0.000000,6,0.000000,0.000000,0.078251,0,0,0,0,0,0,0
6,69999,78,60000,74,50000,49,9999,0.065000,0,0,0.000000,7,4.000000,0.000000,11.459809,0,0,0,0,0,0,0
6,69999,79,60000,79,0,49,9999,0.100000,0,0,0.000000,7,8.000000,0.000000,9.826751,0,0,0,0,0,0,0
6,69999,80,60000,23,50000,40,9999,0.100000,0,0,0.000000,7,0.000000,0.000000,0.655582,0,0,0,0,0,0,0
6,69999,81,60000,9,0,49,9999,0.100000,0,0,0.000000,7,7.000000,0.000000,17.342150,0,0,0,0,0,0,0
6,69999,82,60000,7,20000,40,9999,0.100000,0,0,0.000000,7,0.000000,0.000000,4.205798,0,0,0,0,0,0,0
6,69999,83,60000,9,0,40,9999,0.100000,0,0,0.000000,6,0.000000,0.000000,0.636526,0,0,0,0,0,0,0
6,69999,84,60000,79,0,40,9999,0.100000,0,0,0.000000,7,0.000000,0.000000,0.088315,0,0,0,0,0,0,0
6,69999,85,60000,45,40000,40,9999,0.100000,0,0,0.000000,6,0.000000,0.000000,0.225189,0,0,0,0,0,0,0
6,69999,86,60000,45,40000,40,9999,0.100000,0,0,0.000000,6,0.000000,0.000000,0.161964,0,0,0,0,0,0,0
6,69999,87,60000,23,50000,49,9999,0.100000,0,0,0.000000,7,1.000000,0.000000,1.433243,0,0,0,0,0,0,0
6,69999,88,60000,79,10000,40,9999,0.100000,0,0,0.000000,7,0.000000,0.000000,7.979972,0,0,0,0,0,0,0
6,69999,89,60000,45,40000,40,9999,0.100000,0,0,0.000000,6,0.000000,0.000000,0.092858,0,0,0,0,0,0,0
6,69999,90,60000,79,0,40,9999,0.100000,0,0,0.000000,7,0.000000,0.000000,0.591179,0,0,0,0,0,0,0
6,69999,91,60000,23,50000,40,9999,0.100000,0,0,0.000000,7,0.000000,0.000000,0.135634,0,0,0,0,0,0,0
6,69999,92,60000,79,10000,49,9999,0.100000,0,0,0.000000,6,2.000000,0.000000,5.712721,0,0,0,0,0,0,0
6,69999,93,60000,45,40000,40,9999,0.100000,0,0,0.000000,7,0.000000,0.000000,0.250448,0,0,0,0,0,0,0
6,69999,94,60000,79,0,40,9999,0.100000,0,0,0.000000,6,0.000000,0.000000,0.144701,0,0,0,0,0,0,0
6,69999,95,60000,9,0,49,9999,0.100000,0,0,0.000000,7,1.000000,0.000000,3.301881,0,0,0,0,0,0,0
6,69999,96,60000,9,0,40,9999,0.100000,0,0,0.000000,7,0.000000,0.000000,0.083518,0,0,0,0,0,0,0
6,69999,97,60000,79,0,49,9999,0.100000,0,0,0.000000,7,2.000000,0.000000,15.410570,0,0,0,0,0,0,0
6,69999,98,60000,79,0,40,9999,0.100000,0,0,0.000000,7,0.000000,0.000000,0.381106,0,0,0,0,0,0,0
6,69999,99,60000,79,10000,40,9999,0.100000,0,0,0.000000,7,0.000000,0.000000,0.430027,0,0,0,0,0,0,0
7,79999,0,70000,23,50000,40,9999,0.100000,0,0,0.000000,7,0.000000,0.000000,4.413585,0,0,0,0,0,0,0
7,79999,1,70000,23,50000,40,9999,0.100000,0,0,0.000000,7,0.000000,0.000000,0.129985,0,0,0,0,0,0,0
7,79999,2,70000,1,60000,40,9999,0.100000,0,0,0.000000,7,0.000000,0.000000,0.249802,0,0,0,0,0,0,0
7,79999,3,70000,1,60000,40,9999,0.100000,0,0,0.000000,7,0.000000,0.000000,0.501173,0,0,0,0,0,0,0
7,79999,4,70000,79,0,49,9999,0.100000,0,0,0.000000,7,3.000000,0.000000,15.636880,0,0,0,0,0,0,0
7,79999,5,70000,45,40000,40,9999,0.100000,0,0,0.000000,7,0.000000,0.000000,0.062534,0,0,0,0,0,0,0
7,79999,6,70000,51,60000,40,9999,0.100000,0,0,0.000000,7,0.000000,0.000000,7.765785,0,0,0,0,0,0,0
7,79999,7,70000,51,60000,40,9999,0.100000,0,0,0.000000,8,0.000000,0.000000,0.104869,0,0,0,0,0,0,0
7,79999,8,70000,51,60000,40,9999,0.100000,0,0,0.000000,7,0.000000,0.000000,0.113405,0,0,0,0,0,0,0
7,79999,9,70000,79,10000,49,9999,0.100000,0,0,0.000000,7,1.000000,0.000000,4.558328,0,0,0,0,0,0,0
7,79999,10,70000,45,40000,40,9999,0.100000,0,0,0.000000,7,0.000000,0.000000,0.104761,0,0,0,0,0,0,0
7,79999,11,70000,79,10000,40,9999,0.100000,0,0,0.000000,7,0.000000,0.000000,0.535611,0,0,0,0,0,0,0
7,79999,12,70000,79,10000,40,9999,0.100000,0,0,0.000000,7,0.000000,0.000000,0.149504,0,0,0,0,0,0,0
7,79999,13,70000,23,60000,40,9999,0.100000,0,0,0.000000,8,0.000000,0.000000,3.912115,0,0,0,0,0,0,0
7,79999,14,70000,1,60000,40,9999,0.100000,0,0,0.000000,7,0.000000,0.000000,0.225214,0,0,0,0,0,0,0
7,79999,15,70000,51,60000,40,9999,0.100000,0,0,0.000000,7,0.000000,0.000000,0.834697,0,0,0,0,0,0,0
7,79999,16,70000,79,10000,40,9999,0.100000,0,0,0.000000,7,0.000000,0.000000,0.115421,0,0,0,0,0,0,0
7,79999,17,70000,9,0,40,9999,0.100000,0,0,0.000000,7,0.000000,0.000000,1.186916,0,0,0,0,0,0,0
7,79999,18,70000,9,0,40,9999,0.100000,0,0,0.000000,7,0.000000,0.000000,11.840066,0,0,0,0,0,0,0
7,79999,19,70000,23,50000,9,9999,0.100000,0,0,0.000000,7,2.000000,0.000000,10.140117,0,0,0,2,0,0,0
7,79999,20,70000,79,10000,40,9999,0.100000,0,0,0.000000,7,0.000000,0.000000,0.434023,0,0,0,0,0,0,0
7,79999,21,70000,45,40000,49,9999,0.100000,0,0,0.000000,7,3.000000,0.000000,11.762863,0,0,0,0,0,0,0
7,79999,22,70000,45,40000,40,9999,0.100000,0,0,0.000000,8,0.000000,0.000000,0.342667,0,0,0,0,0,0,0
7,79999,23,70000,74,50000,40,9999,0.100000,0,0,0.000000,8,0.000000,0.000000,0.296337,0,0,0,0,0,0,0
7,79999,24,70000,1,60000,40,9999,0.100000,0,0,0.000000,8,0.000000,0.000000,3.942673,0,0,0,0,0,0,0
7,79999,25,70000,79,10000,49,9999,0.100000,0,0,0.000000,7,3.000000,0.000000,6.769679,0,0,0,0,0,0,0
7,79999,26,70000,23,50000,49,9999,0.100000,0,0,0.000000,7,1.000000,0.000000,3.748539,0,0,0,0,0,0,0
7,79999,27,70000,79,10000,49,9999,0.100000,0,0,0.000000,7,2.000000,0.000000,3.819001,0,0,0,0,0,0,0
7,79999,28,70000,23,50000,40,9999,0.100000,0,0,0.000000,7,0.000000,0.000000,1.114917,0,0,0,0,0,0,0
7,79999,29,70000,45,40000,40,9999,0.100000,0,0,0.000000,7,0.000000,0.000000,0.295071,0,0,0,0,0,0,0
7,79999,30,70000,1,60000,40,9999,0.100000,0,0,0.000000,8,0.000000,0.000000,5.930826,0,0,0,0,0,0,0
7,79999,31,70000,51,60000,49,9999,0.100000,0,0,0.000000,7,6.000000,0.000000,7.323009,0,0,0,0,0,0,0
7,79999,32,70000,79,0,40,9999,0.100000,0,0,0.000000,7,0.000000,0.000000,1.177228,0,0,0,0,0,0,0
7,79999,33,70000,79,10000,40,9999,0.100000,0,0,0.000000,7,0.000000,0.000000,20.062157,0,0,0,0,0,0,0
7,79999,34,70000,79,0,40,9999,0.100000,0,0,0.000000,8,0.000000,0.000000,2.565536,0,0,0,0,0,0,0
7,79999,35,70000,23,50000,40,9999,0.100000,0,0,0.000000,7,0.000000,0.000000,2.257280,0,0,0,0,0,0,0
7,79999,36,70000,74,50000,49,9999,0.100000,0,0,0.000000,8,1.000000,0.000000,6.439324,0,0,0,0,0,0,0
7,79999,37,70000,79,10000,40,9999,0.100000,0,0,0.000000,8,0.000000,0.000000,1.028625,0,0,0,0,0,0,0
7,79999,38,70000,1,60000,40,9999,0.100000,0,0,0.000000,7,0.000000,0.000000,5.216399,0,0,0,0,0,0,0
7,79999,39,70000,1,60000,40,9999,0.100000,0,0,0.000000,7,0.000000,0.000000,3.244959,0,0,0,0,0,0,0
7,79999,40,70000,51,60000,40,9999,0.100000,0,0,0.000000,8,0.000000,0.000000,0.232014,0,0,0,0,0,0,0
7,79999,41,70000,1,60000,40,9999,0.100000,0,0,0.000000,8,0.000000,0.000000,0.160993,0,0,0,0,0,0,0
7,79999,42,70000,1,60000,40,9999,0.100000,0,0,0.000000,7,0.000000,0.000000,0.089299,0,0,0,0,0,0,0
7,79999,43,70000,51,60000,49,9999,0.100000,0,0,0.000000,7,13.000000,0.000000,15.080737,0,0,0,0,0,0,0
7,79999,44,70000,45,40000,40,9999,0.100000,0,0,0.000000,8,0.000000,0.000000,0.220697,0,0,0,0,0,0,0
7,79999,45,70000,45,40000,40,9999,0.100000,0,0,0.000000,7,0.000000,0.000000,0.136372,0,0,0,0,0,0,0
7,79999,46,70000,1,60000,40,9999,0.100000,0,0,0.000000,7,0.000000,0.000000,0.251513,0,0,0,0,0,0,0
7,79999,47,70000,45,40000,40,9999,0.100000,0,0,0.000000,8,0.000000,0.000000,0.108326,0,0,0,0,0,0,0
7,79999,48,70000,45,40000,40,9999,0.100000,0,0,0.000000,8,0.000000,0.000000,0.241390,0,0,0,0,0,0,0
7,79999,49,70000,45,40000,40,9999,0.100000,0,0,0.000000,8,0.000000,0.000000,1.891934,0,0,0,0,0,0,0
7,79999,50,70000,1,60000,40,9999,0.100000,0,0,0.000000,8,0.000000,0.000000,0.196966,0,0,0,0,0,0,0
7,79999,51,70000,45,40000,40,9999,0.100000,0,0,0.000000,7,0.000000,0.000000,1.135121,0,0,0,0,0,0,0
7,79999,52,70000,45,40000,49,9999,0.100000,0,0,0.000000,8,1.000000,0.000000,7.184001,0,0,0,0,0,0,0
7,79999,53,70000,79,0,40,9999,0.100000,0,0,0.000000,8,0.000000,0.000000,0.150886,0,0,0,0,0,0,0
7,79999,54,70000,74,50000,40,9999,0.100000,0,0,0.000000,8,0.000000,0.000000,0.145071,0,0,0,0,0,0,0
7,79999,55,70000,1,60000,40,9999,0.100000,0,0,0.000000,8,0.000000,0.000000,0.217594,0,0,0,0,0,0,0
7,79999,56,70000,45,40000,40,9999,0.100000,0,0,0.000000,7,0.000000,0.000000,0.168422,0,0,0,0,0,0,0
7,79999,57,70000,79,10000,40,9999,0.100000,0,0,0.000000,7,0.000000,0.000000,0.765317,0,0,0,0,0,0,0
7,79999,58,70000,9,0,40,9999,0.100000,0,0,0.000000,7,0.000000,0.000000,1.348348,0,0,0,0,0,0,0
7,79999,59,70000,79,10000,40,9999,0.100000,0,0,0.000000,7,0.000000,0.000000,0.182324,0,0,0,0,0,0,0
7,79999,60,70000,1,60000,40,9999,0.100000,0,0,0.000000,8,0.000000,0.000000,0.153957,0,0,0,0,0,0,0
7,79999,61,70000,9,0,40,9999,0.100000,0,0,0.000000,7,0.000000,0.000000,0.127531,0,0,0,0,0,0,0
7,79999,62,70000,79,10000,49,9999,0.100000,0,0,0.000000,8,3.000000,0.000000,14.496736,0,0,0,0,0,0,0
7,79999,63,70000,79,10000,40,9999,0.100000,0,0,0.000000,8,0.000000,0.000000,0.336017,0,0,0,0,0,0,0
7,79999,64,70000,45,40000,40,9999,0.100000,0,0,0.000000,7,0.000000,0.000000,0.623191,0,0,0,0,0,0,0
7,79999,65,70000,51,60000,40,9999,0.100000,0,0,0.000000,8,0.000000,0.000000,0.183579,0,0,0,0,0,0,0
7,79999,66,70000,51,60000,40,9999,0.065000,0,0,0.000000,7,0.000000,0.000000,4.144221,0,0,0,0,0,0,0
7,79999,67,70000,9,0,40,9999,0.100000,0,0,0.000000,7,0.000000,0.000000,0.055479,0,0,0,0,0,0,0
7,79999,68,70000,79,0,40,9999,0.100000,0,0,0.000000,7,0.000000,0.000000,0.118148,0,0,0,0,0,0,0
7,79999,69,70000,7,50000,49,9999,0.100000,0,0,0.000000,7,20.000000,0.000000,33.002112,0,0,0,0,0,0,0
7,79999,70,70000,51,60000,40,9999,0.100000,0,0,0.000000,7,0.000000,0.000000,1.092654,0,0,0,0,0,0,0
7,79999,71,70000,23,50000,40,9999,0.100000,0,0,0.000000,7,0.000000,0.000000,0.168883,0,0,0,0,0,0,0
7,79999,72,70000,23,60000,40,9999,0.100000,0,0,0.000000,8,0.000000,0.000000,0.407378,0,0,0,0,0,0,0
7,79999,73,70000,1,60000,40,9999,0.100000,0,0,0.000000,8,0.000000,0.000000,0.141001,0,0,0,0,0,0,0
7,79999,74,70000,1,60000,40,9999,0.100000,0,0,0.000000,8,0.000000,0.000000,0.593675,0,0,0,0,0,0,0
7,79999,75,70000,74,50000,40,9999,0.100000,0,0,0.000000,8,0.000000,0.000000,0.605456,0,0,0,0,0,0,0
7,79999,76,70000,79,0,40,9999,0.100000,0,0,0.000000,8,0.000000,0.000000,0.082280,0,0,0,0,0,0,0
7,79999,77,70000,74,50000,40,9999,0.100000,0,0,0.000000,8,0.000000,0.000000,0.079594,0,0,0,0,0,0,0
7,79999,78,70000,79,10000,49,9999,0.100000,0,0,0.000000,7,1.000000,0.000000,9.877463,0,0,0,0,0,0,0
7,79999,79,70000,51,60000,49,9999,0.100000,0,0,0.000000,7,2.000000,0.000000,4.323458,0,0,0,0,0,0,0
7,79999,80,70000,74,50000,40,9999,0.100000,0,0,0.000000,7,0.000000,0.000000,0.724004,0,0,0,0,0,0,0
7,79999,81,70000,79,10000,40,9999,0.100000,0,0,0.000000,7,0.000000,0.000000,0.387209,0,0,0,0,0,0,0
7,79999,82,70000,74,50000,40,9999,0.100000,0,0,0.000000,8,0.000000,0.000000,3.282656,0,0,0,0,0,0,0
7,79999,83,70000,1,60000,40,9999,0.100000,0,0,0.000000,8,0.000000,0.000000,0.784464,0,0,0,0,0,0,0
7,79999,84,70000,79,10000,40,9999,0.100000,0,0,0.000000,8,0.000000,0.000000,0.165355,0,0,0,0,0,0,0
7,79999,85,70000,51,60000,49,9999,0.100000,0,0,0.000000,7,3.000000,0.000000,6.840670,0,0,0,0,0,0,0
7,79999,86,70000,79,10000,40,9999,0.100000,0,0,0.000000,7,0.000000,0.000000,0.110167,0,0,0,0,0,0,0
7,79999,87,70000,74,50000,40,9999,0.100000,0,0,0.000000,8,0.000000,0.000000,1.123770,0,0,0,0,0,0,0
7,79999,88,70000,74,50000,40,9999,0.100000,0,0,0.000000,8,0.000000,0.000000,8.553524,0,0,0,0,0,0,0
7,79999,89,70000,23,50000,40,9999,0.100000,0,0,0.000000,8,0.000000,0.000000,0.090903,0,0,0,0,0,0,0
7,79999,90,70000,79,10000,40,9999,0.100000,0,0,0.000000,7,0.000000,0.000000,0.814065,0,0,0,0,0,0,0
7,79999,91,70000,79,10000,40,9999,0.100000,0,0,0.000000,7,0.000000,0.000000,0.143929,0,0,0,0,0,0,0
7,79999,92,70000,23,50000,40,9999,0.100000,0,0,0.000000,7,0.000000,0.000000,0.152722,0,0,0,0,0,0,0
7,79999,93,70000,79,0,40,9999,0.100000,0,0,0.000000,7,0.000000,0.000000,0.232187,0,0,0,0,0,0,0
7,79999,94,70000,9,0,40,9999,0.100000,0,0,0.000000,7,0.000000,0.000000,0.144198,0,0,0,0,0,0,0
7,79999,95,70000,51,60000,49,9999,0.100000,0,0,0.000000,8,4.000000,0.000000,15.160182,0,0,0,0,0,0,0
7,79999,96,70000,45,40000,40,9999,0.100000,0,0,0.000000,8,0.000000,0.000000,0.083071,0,0,0,0,0,0,0
7,79999,97,70000,79,10000,49,9999,0.100000,0,0,0.000000,8,1.000000,0.000000,4.370697,0,0,0,0,0,0,0
7,79999,98,70000,45,40000,40,9999,0.100000,0,0,0.000000,7,0.000000,0.000000,2.012378,0,0,0,0,0,0,0
7,79999,99,70000,45,40000,40,9999,0.100000,0,0,0.000000,7,0.000000,0.000000,0.211027,0,0,0,0,0,0,0
8,89999,0,80000,79,0,40,9999,0.100000,0,0,0.000000,8,0.000000,0.000000,2.111426,0,0,0,0,0,0,0
8,89999,1,80000,51,60000,40,9999,0.100000,0,0,0.000000,8,0.000000,0.000000,0.083237,0,0,0,0,0,0,0
8,89999,2,80000,74,50000,40,9999,0.100000,0,0,0.000000,8,0.000000,0.000000,0.213506,0,0,0,0,0,0,0
8,89999,3,80000,79,0,40,9999,0.100000,0,0,0.000000,8,0.000000,0.000000,0.507998,0,0,0,0,0,0,0
8,89999,4,80000,23,60000,49,9999,0.100000,0,0,0.000000,8,3.000000,0.000000,9.164234,0,0,0,0,0,0,0
8,89999,5,80000,79,10000,40,9999,0.100000,0,0,0.000000,8,0.000000,0.000000,0.058721,0,0,0,0,0,0,0
8,89999,6,80000,74,50000,40,9999,0.100000,0,0,0.000000,8,0.000000,0.000000,4.531727,0,0,0,0,0,0,0
8,89999,7,80000,1,60000,40,9999,0.100000,0,0,0.000000,8,0.000000,0.000000,0.113959,0,0,0,0,0,0,0
8,89999,8,80000,23,50000,40,9999,0.100000,0,0,0.000000,8,0.000000,0.000000,0.104717,0,0,0,0,0,0,0
8,89999,9,80000,51,60000,49,9999,0.100000,0,0,0.000000,8,2.000000,0.000000,3.818932,0,0,0,0,0,0,0
8,89999,10,80000,74,50000,40,9999,0.100000,0,0,0.000000,8,0.000000,0.000000,0.731669,0,0,0,0,0,0,0
8,89999,11,80000,79,10000,40,9999,0.100000,0,0,0.000000,8,0.000000,0.000000,0.748755,0,0,0,0,0,0,0
8,89999,12,80000,23,60000,49,9999,0.100000,0,0,0.000000,8,1.000000,0.000000,5.092179,0,0,0,0,0,0,0
8,89999,13,80000,23,50000,40,9999,0.100000,0,0,0.000000,8,0.000000,0.000000,3.673666,0,0,0,0,0,0,0
8,89999,14,80000,23,50000,40,9999,0.100000,0,0,0.000000,8,0.000000,0.000000,0.331181,0,0,0,0,0,0,0
8,89999,15,80000,74,50000,40,9999,0.100000,0,0,0.000000,8,0.000000,0.000000,0.341575,0,0,0,0,0,0,0
8,89999,16,80000,1,60000,40,9999,0.100000,0,0,0.000000,8,0.000000,0.000000,0.121154,0,0,0,0,0,0,0
8,89999,17,80000,45,40000,49,9999,0.100000,0,0,0.000000,8,3.000000,0.000000,3.567315,0,0,0,0,0,0,0
8,89999,18,80000,45,40000,49,9999,0.100000,0,0,0.000000,8,3.000000,0.000000,11.352258,0,0,0,0,0,0,0
8,89999,19,80000,74,50000,40,9999,0.100000,0,0,0.000000,8,0.000000,0.000000,5.287818,0,0,0,0,0,0,0
8,89999,20,80000,23,50000,49,9999,0.100000,0,0,0.000000,8,4.000000,0.000000,7.014051,0,0,0,0,0,0,0
8,89999,21,80000,23,50000,40,9999,0.100000,0,0,0.000000,8,0.000000,0.000000,0.157688,0,0,0,0,0,0,0
8,89999,22,80000,45,40000,40,9999,0.100000,0,0,0.000000,8,0.000000,0.000000,0.347306,0,0,0,0,0,0,0
8,89999,23,80000,45,40000,40,9999,0.100000,0,0,0.000000,8,0.000000,0.000000,0.406349,0,0,0,0,0,0,0
8,89999,24,80000,79,0,40,9999,0.100000,0,0,0.000000,8,0.000000,0.000000,3.882725,0,0,0,0,0,0,0
8,89999,25,80000,79,10000,49,9999,0.100000,0,0,0.000000,8,1.000000,0.000000,4.797351,0,0,0,0,0,0,0
8,89999,26,80000,79,10000,49,9999,0.100000,0,0,0.000000,8,3.000000,0.000000,6.946869,0,0,0,0,0,0,0
8,89999,27,80000,23,60000,49,9999,0.100000,0,0,0.000000,8,2.000000,0.000000,8.256167,0,0,0,0,0,0,0
8,89999,28,80000,1,60000,40,9999,0.100000,0,0,0.000000,8,0.000000,0.000000,0.102511,0,0,0,0,0,0,0
8,89999,29,80000,74,50000,40,9999,0.100000,0,0,0.000000,8,0.000000,0.000000,1.404146,0,0,0,0,0,0,0
8,89999,30,80000,45,40000,40,9999,0.100000,0,0,0.000000,8,0.000000,0.000000,5.796947,0,0,0,0,0,0,0
8,89999,31,80000,74,50000,40,9999,0.100000,0,0,0.000000,8,0.000000,0.000000,0.175762,0,0,0,0,0,0,0
8,89999,32,80000,23,50000,40,9999,0.100000,0,0,0.000000,8,0.000000,0.000000,0.092914,0,0,0,0,0,0,0
8,89999,33,80000,51,60000,40,9999,0.100000,0,0,0.000000,8,0.000000,0.000000,3.317623,0,0,0,0,0,0,0
8,89999,34,80000,23,60000,40,9999,0.100000,0,0,0.000000,8,0.000000,0.000000,0.970443,0,0,0,0,0,0,0
8,89999,35,80000,23,50000,40,9999,0.100000,0,0,0.000000,8,0.000000,0.000000,1.937859,0,0,0,0,0,0,0
8,89999,36,80000,79,0,49,9999,0.100000,0,0,0.000000,8,1.000000,0.000000,13.894697,0,0,0,0,0,0,0
8,89999,37,80000,23,50000,49,9999,0.100000,0,0,0.000000,8,3.000000,0.000000,3.479315,0,0,0,0,0,0,0
8,89999,38,80000,79,10000,49,9999,0.100000,0,0,0.000000,8,1.000000,0.000000,6.297385,0,0,0,0,0,0,0
8,89999,39,80000,51,60000,49,9999,0.100000,0,0,0.000000,8,4.000000,0.000000,8.672208,0,0,0,0,0,0,0
8,89999,40,80000,79,0,40,9999,0.100000,0,0,0.000000,8,0.000000,0.000000,0.364797,0,0,0,0,0,0,0
8,89999,41,80000,23,50000,40,9999,0.100000,0,0,0.000000,8,0.000000,0.000000,0.156905,0,0,0,0,0,0,0
8,89999,42,80000,74,50000,40,9999,0.100000,0,0,0.000000,8,0.000000,0.000000,0.089152,0,0,0,0,0,0,0
8,89999,43,80000,1,60000,49,9999,0.100000,0,0,0.000000,8,4.000000,0.000000,6.789077,0,0,0,0,0,0,0
8,89999,44,80000,23,50000,40,9999,0.100000,0,0,0.000000,8,0.000000,0.000000,0.236070,0,0,0,0,0,0,0
8,89999,45,80000,79,10000,40,9999,0.100000,0,0,0.000000,8,0.000000,0.000000,0.178883,0,0,0,0,0,0,0
8,89999,46,80000,79,0,40,9999,0.100000,0,0,0.000000,8,0.000000,0.000000,0.146741,0,0,0,0,0,0,0
8,89999,47,80000,79,0,40,9999,0.100000,0,0,0.000000,8,0.000000,0.000000,0.107105,0,0,0,0,0,0,0
8,89999,48,80000,74,50000,40,9999,0.100000,0,0,0.000000,8,0.000000,0.000000,0.248076,0,0,0,0,0,0,0
8,89999,49,80000,45,40000,40,9999,0.100000,0,0,0.000000,8,0.000000,0.000000,1.119966,0,0,0,0,0,0,0
8,89999,50,80000,1,60000,40,9999,0.100000,0,0,0.000000,8,0.000000,0.000000,0.202653,0,0,0,0,0,0,0
8,89999,51,80000,23,50000,40,9999,0.100000,0,0,0.000000,8,0.000000,0.000000,1.112479,0,0,0,0,0,0,0
8,89999,52,80000,74,50000,49,9999,0.100000,0,0,0.000000,8,5.000000,0.000000,14.203972,0,0,0,0,0,0,0
8,89999,53,80000,51,60000,40,9999,0.100000,0,0,0.000000,8,0.000000,0.000000,0.200799,0,0,0,0,0,0,0
8,89999,54,80000,51,60000,40,9999,0.100000,0,0,0.000000,8,0.000000,0.000000,0.149929,0,0,0,0,0,0,0
8,89999,55,80000,79,0,40,9999,0.100000,0,0,0.000000,8,0.000000,0.000000,0.188056,0,0,0,0,0,0,0
8,89999,56,80000,1,60000,40,9999,0.100000,0,0,0.000000,8,0.000000,0.000000,0.211156,0,0,0,0,0,0,0
8,89999,57,80000,51,60000,40,9999,0.100000,0,0,0.000000,8,0.000000,0.000000,1.513238,0,0,0,0,0,0,0
8,89999,58,80000,51,60000,49,9999,0.100000,0,0,0.000000,8,1.000000,0.000000,1.716980,0,0,0,0,0,0,0
8,89999,59,80000,79,10000,40,9999,0.100000,0,0,0.000000,8,0.000000,0.000000,0.184898,0,0,0,0,0,0,0
8,89999,60,80000,23,60000,40,9999,0.100000,0,0,0.000000,8,0.000000,0.000000,0.150602,0,0,0,0,0,0,0
8,89999,61,80000,23,50000,40,9999,0.100000,0,0,0.000000,8,0.000000,0.000000,0.139155,0,0,0,0,0,0,0
8,89999,62,80000,23,50000,40,9999,0.100000,0,0,0.000000,8,0.000000,0.000000,0.440904,0,0,0,0,0,0,0
8,89999,63,80000,51,60000,40,9999,0.100000,0,0,0.000000,8,0.000000,0.000000,0.540927,0,0,0,0,0,0,0
8,89999,64,80000,23,50000,40,9999,0.100000,0,0,0.000000,8,0.000000,0.000000,0.635423,0,0,0,0,0,0,0
8,89999,65,80000,23,60000,40,9999,0.100000,0,0,0.000000,8,0.000000,0.000000,0.259663,0,0,0,0,0,0,0
8,89999,66,80000,23,50000,40,9999,0.100000,0,0,0.000000,8,0.000000,0.000000,0.252766,0,0,0,0,0,0,0
8,89999,67,80000,1,60000,40,9999,0.100000,0,0,0.000000,8,0.000000,0.000000,0.051959,0,0,0,0,0,0,0
8,89999,68,80000,74,50000,40,9999,0.100000,0,0,0.000000,8,0.000000,0.000000,0.131395,0,0,0,0,0,0,0
8,89999,69,80000,23,50000,40,9999,0.100000,0,0,0.000000,8,0.000000,0.000000,0.134123,0,0,0,0,0,0,0
8,89999,70,80000,23,50000,40,9999,0.100000,0,0,0.000000,8,0.000000,0.000000,0.772238,0,0,0,0,0,0,0
8,89999,71,80000,23,50000,40,9999,0.100000,0,0,0.000000,8,0.000000,0.000000,0.169696,0,0,0,0,0,0,0
8,89999,72,80000,45,40000,40,9999,0.100000,0,0,0.000000,8,0.000000,0.000000,0.119317,0,0,0,0,0,0,0
8,89999,73,80000,74,50000,40,9999,0.100000,0,0,0.000000,8,0.000000,0.000000,0.129869,0,0,0,0,0,0,0
8,89999,74,80000,1,60000,40,9999,0.100000,0,0,0.000000,8,0.000000,0.000000,0.656059,0,0,0,0,0,0,0
8,89999,75,80000,45,40000,40,9999,0.100000,0,0,0.000000,8,0.000000,0.000000,0.837428,0,0,0,0,0,0,0
8,89999,76,80000,79,0,40,9999,0.100000,0,0,0.000000,8,0.000000,0.000000,0.081895,0,0,0,0,0,0,0
8,89999,77,80000,23,60000,40,9999,0.100000,0,0,0.000000,8,0.000000,0.000000,0.079445,0,0,0,0,0,0,0
8,89999,78,80000,23,50000,49,9999,0.100000,0,0,0.000000,8,3.000000,0.000000,9.858092,0,0,0,0,0,0,0
8,89999,79,80000,1,60000,40,9999,0.100000,0,0,0.000000,8,0.000000,0.000000,4.914439,0,0,0,0,0,0,0
8,89999,80,80000,74,50000,40,9999,0.100000,0,0,0.000000,8,0.000000,0.000000,0.547453,0,0,0,0,0,0,0
8,89999,81,80000,45,40000,40,9999,0.100000,0,0,0.000000,8,0.000000,0.000000,0.571049,0,0,0,0,0,0,0
8,89999,82,80000,1,60000,40,9999,0.100000,0,0,0.000000,8,0.000000,0.000000,4.853572,0,0,0,0,0,0,0
8,89999,83,80000,74,50000,40,9999,0.100000,0,0,0.000000,8,0.000000,0.000000,0.557969,0,0,0,0,0,0,0
8,89999,84,80000,51,60000,40,9999,0.100000,0,0,0.000000,8,0.000000,0.000000,0.129896,0,0,0,0,0,0,0
8,89999,85,80000,79,10000,49,9999,0.100000,0,0,0.000000,8,3.000000,0.000000,6.858290,0,0,0,0,0,0,0
8,89999,86,80000,51,60000,40,9999,0.100000,0,0,0.000000,8,0.000000,0.000000,0.680352,0,0,0,0,0,0,0
8,89999,87,80000,23,60000,49,9999,0.100000,0,0,0.000000,8,3.000000,0.000000,3.519276,0,0,0,0,0,0,0
8,89999,88,80000,79,0,49,9999,0.100000,0,0,0.000000,8,2.000000,0.000000,4.550454,0,0,0,0,0,0,0
8,89999,89,80000,51,60000,40,9999,0.100000,0,0,0.000000,8,0.000000,0.000000,0.091907,0,0,0,0,0,0,0
8,89999,90,80000,45,40000,40,9999,0.100000,0,0,0.000000,8,0.000000,0.000000,0.475895,0,0,0,0,0,0,0
8,89999,91,80000,51,60000,40,9999,0.100000,0,0,0.000000,8,0.000000,0.000000,0.144762,0,0,0,0,0,0,0
8,89999,92,80000,79,10000,49,9999,0.100000,0,0,0.000000,8,5.000000,0.000000,11.731084,0,0,0,0,0,0,0
8,89999,93,80000,45,40000,40,9999,0.100000,0,0,0.000000,8,0.000000,0.000000,0.229216,0,0,0,0,0,0,0
8,89999,94,80000,23,60000,40,9999,0.100000,0,0,0.000000,8,0.000000,0.000000,0.145965,0,0,0,0,0,0,0
8,89999,95,80000,1,60000,49,9999,0.100000,0,0,0.000000,8,1.000000,0.000000,2.446849,0,0,0,0,0,0,0
8,89999,96,80000,23,50000,40,9999,0.100000,0,0,0.000000,8,0.000000,0.000000,0.082666,0,0,0,0,0,0,0
8,89999,97,80000,51,60000,49,9999,0.100000,0,0,0.000000,8,3.000000,0.000000,6.342015,0,0,0,0,0,0,0
8,89999,98,80000,23,50000,40,9999,0.100000,0,0,0.000000,8,0.000000,0.000000,0.394082,0,0,0,0,0,0,0
8,89999,99,80000,79,0,40,9999,0.100000,0,0,0.000000,8,0.000000,0.000000,0.117495,0,0,0,0,0,0,0
9,99999,0,90000,74,50000,40,9999,0.100000,0,0,0.000000,8,0.000000,0.000000,1.861260,0,0,0,0,0,0,0
9,99999,1,90000,79,0,40,9999,0.100000,0,0,0.000000,8,0.000000,0.000000,0.085649,0,0,0,0,0,0,0
9,99999,2,90000,23,60000,40,9999,0.100000,0,0,0.000000,8,0.000000,0.000000,0.266225,0,0,0,0,0,0,0
9,99999,3,90000,23,50000,40,9999,0.100000,0,0,0.000000,8,0.000000,0.000000,0.504466,0,0,0,0,0,0,0
9,99999,4,90000,74,50000,49,9999,0.100000,0,0,0.000000,8,1.000000,0.000000,12.098178,0,0,0,0,0,0,0
9,99999,5,90000,23,50000,40,9999,0.100000,0,0,0.000000,8,0.000000,0.000000,0.065062,0,0,0,0,0,0,0
9,99999,6,90000,1,60000,40,9999,0.100000,0,0,0.000000,8,0.000000,0.000000,3.528715,0,0,0,0,0,0,0
9,99999,7,90000,74,50000,40,9999,0.100000,0,0,0.000000,8,0.000000,0.000000,0.572815,0,0,0,0,0,0,0
9,99999,8,90000,79,10000,40,9999,0.100000,0,0,0.000000,8,0.000000,0.000000,0.116882,0,0,0,0,0,0,0
9,99999,9,90000,79,0,40,9999,0.100000,0,0,0.000000,8,0.000000,0.000000,0.841159,0,0,0,0,0,0,0
9,99999,10,90000,51,60000,40,9999,0.100000,0,0,0.000000,8,0.000000,0.000000,0.498478,0,0,0,0,0,0,0
9,99999,11,90000,23,60000,49,9999,0.100000,0,0,0.000000,8,2.000000,0.000000,5.753722,0,0,0,0,0,0,0
9,99999,12,90000,23,50000,49,9999,0.100000,0,0,0.000000,8,2.000000,0.000000,14.421214,0,0,0,0,0,0,0
9,99999,13,90000,74,50000,40,9999,0.100000,0,0,0.000000,8,0.000000,0.000000,3.667620,0,0,0,0,0,0,0
9,99999,14,90000,45,40000,40,9999,0.100000,0,0,0.000000,8,0.000000,0.000000,0.337343,0,0,0,0,0,0,0
9,99999,15,90000,1,60000,40,9999,0.100000,0,0,0.000000,8,0.000000,0.000000,0.539265,0,0,0,0,0,0,0
9,99999,16,90000,79,0,40,9999,0.100000,0,0,0.000000,8,0.000000,0.000000,0.121106,0,0,0,0,0,0,0
9,99999,17,90000,23,50000,40,9999,0.100000,0,0,0.000000,8,0.000000,0.000000,0.894673,0,0,0,0,0,0,0
9,99999,18,90000,79,10000,40,9999,0.100000,0,0,0.000000,8,0.000000,0.000000,21.777062,0,0,0,0,0,0,0
9,99999,19,90000,45,40000,40,9999,0.100000,0,0,0.000000,8,0.000000,0.000000,10.150555,0,0,0,0,0,0,0
9,99999,20,90000,1,60000,40,9999,0.100000,0,0,0.000000,8,0.000000,0.000000,0.770284,0,0,0,0,0,0,0
9,99999,21,90000,79,0,40,9999,0.100000,0,0,0.000000,8,0.000000,0.000000,0.169356,0,0,0,0,0,0,0
9,99999,22,90000,51,60000,40,9999,0.100000,0,0,0.000000,8,0.000000,0.000000,0.130980,0,0,0,0,0,0,0
9,99999,23,90000,45,40000,40,9999,0.100000,0,0,0.000000,8,0.000000,0.000000,0.895106,0,0,0,0,0,0,0
9,99999,24,90000,74,50000,40,9999,0.100000,0,0,0.000000,8,0.000000,0.000000,1.467013,0,0,0,0,0,0,0
9,99999,25,90000,79,10000,40,9999,0.100000,0,0,0.000000,8,0.000000,0.000000,0.430975,0,0,0,0,0,0,0
9,99999,26,90000,1,60000,40,9999,0.100000,0,0,0.000000,8,0.000000,0.000000,0.465878,0,0,0,0,0,0,0
9,99999,27,90000,51,60000,49,9999,0.100000,0,0,0.000000,8,7.000000,0.000000,24.482117,0,0,0,0,0,0,0
9,99999,28,90000,79,0,40,9999,0.100000,0,0,0.000000,8,0.000000,0.000000,0.209626,0,0,0,0,0,0,0
9,99999,29,90000,23,50000,40,9999,0.100000,0,0,0.000000,8,0.000000,0.000000,0.989301,0,0,0,0,0,0,0
9,99999,30,90000,45,40000,40,9999,0.100000,0,0,0.000000,8,0.000000,0.000000,5.602218,0,0,0,0,0,0,0
9,99999,31,90000,1,60000,40,9999,0.100000,0,0,0.000000,8,0.000000,0.000000,0.189860,0,0,0,0,0,0,0
9,99999,32,90000,51,60000,40,9999,0.100000,0,0,0.000000,8,0.000000,0.000000,0.096851,0,0,0,0,0,0,0
9,99999,33,90000,1,60000,40,9999,0.100000,0,0,0.000000,8,0.000000,0.000000,0.741861,0,0,0,0,0,0,0
9,99999,34,90000,45,40000,40,9999,0.100000,0,0,0.000000,8,0.000000,0.000000,0.897180,0,0,0,0,0,0,0
9,99999,35,90000,1,60000,49,9999,0.100000,0,0,0.000000,8,1.000000,0.000000,4.853867,0,0,0,0,0,0,0
9,99999,36,90000,45,40000,40,9999,0.100000,0,0,0.000000,8,0.000000,0.000000,14.931849,0,0,0,0,0,0,0
9,99999,37,90000,74,50000,40,9999,0.100000,0,0,0.000000,8,0.000000,0.000000,0.656032,0,0,0,0,0,0,0
9,99999,38,90000,51,60000,49,9999,0.100000,0,0,0.000000,8,1.000000,0.000000,10.718820,0,0,0,0,0,0,0
9,99999,39,90000,23,60000,40,9999,0.100000,0,0,0.000000,8,0.000000,0.000000,2.387469,0,0,0,0,0,0,0
9,99999,40,90000,79,0,40,9999,0.100000,0,0,0.000000,8,0.000000,0.000000,2.112886,0,0,0,0,0,0,0
9,99999,41,90000,79,10000,40,9999,0.100000,0,0,0.000000,8,0.000000,0.000000,0.154308,0,0,0,0,0,0,0
9,99999,42,90000,79,0,40,9999,0.100000,0,0,0.000000,8,0.000000,0.000000,0.087564,0,0,0,0,0,0,0
9,99999,43,90000,23,50000,49,9999,0.100000,0,0,0.000000,8,6.000000,0.000000,7.996371,0,0,0,0,0,0,0
9,99999,44,90000,79,10000,40,9999,0.100000,0,0,0.000000,8,0.000000,0.000000,0.213333,0,0,0,0,0,0,0
9,99999,45,90000,1,60000,40,9999,0.100000,0,0,0.000000,8,0.000000,0.000000,0.143978,0,0,0,0,0,0,0
9,99999,46,90000,23,50000,40,9999,0.100000,0,0,0.000000,8,0.000000,0.000000,0.168076,0,0,0,0,0,0,0
9,99999,47,90000,1,60000,40,9999,0.100000,0,0,0.000000,8,0.000000,0.000000,0.106688,0,0,0,0,0,0,0
9,99999,48,90000,23,60000,40,9999,0.100000,0,0,0.000000,8,0.000000,0.000000,0.230923,0,0,0,0,0,0,0
9,99999,49,90000,51,60000,49,9999,0.100000,0,0,0.000000,8,1.000000,0.000000,1.498523,0,0,0,0,0,0,0
9,99999,50,90000,1,60000,40,9999,0.100000,0,0,0.000000,8,0.000000,0.000000,1.432802,0,0,0,0,0,0,0
9,99999,51,90000,45,40000,40,9999,0.100000,0,0,0.000000,8,0.000000,0.000000,0.566107,0,0,0,0,0,0,0
9,99999,52,90000,1,60000,40,9999,0.100000,0,0,0.000000,8,0.000000,0.000000,1.552856,0,0,0,0,0,0,0
9,99999,53,90000,45,40000,40,9999,0.100000,0,0,0.000000,8,0.000000,0.000000,0.285197,0,0,0,0,0,0,0
9,99999,54,90000,45,40000,40,9999,0.100000,0,0,0.000000,8,0.000000,0.000000,0.198659,0,0,0,0,0,0,0
9,99999,55,90000,23,50000,40,9999,0.100000,0,0,0.000000,8,0.000000,0.000000,0.180659,0,0,0,0,0,0,0
9,99999,56,90000,74,50000,40,9999,0.100000,0,0,0.000000,8,0.000000,0.000000,0.245974,0,0,0,0,0,0,0
9,99999,57,90000,79,10000,40,9999,0.100000,0,0,0.000000,8,0.000000,0.000000,1.667357,0,0,0,0,0,0,0
9,99999,58,90000,45,40000,49,9999,0.100000,0,0,0.000000,8,2.000000,0.000000,3.877759,0,0,0,0,0,0,0
9,99999,59,90000,74,50000,40,9999,0.100000,0,0,0.000000,8,0.000000,0.000000,0.081307,0,0,0,0,0,0,0
9,99999,60,90000,79,0,40,9999,0.100000,0,0,0.000000,8,0.000000,0.000000,0.263044,0,0,0,0,0,0,0
9,99999,61,90000,79,0,49,9999,0.100000,0,0,0.000000,8,10.000000,0.000000,21.571245,0,0,0,0,0,0,0
9,99999,62,90000,45,40000,40,9999,0.100000,0,0,0.000000,8,0.000000,0.000000,0.421442,0,0,0,0,0,0,0
9,99999,63,90000,51,60000,49,9999,0.100000,0,0,0.000000,8,1.000000,0.000000,2.414069,0,0,0,0,0,0,0
9,99999,64,90000,45,40000,40,9999,0.100000,0,0,0.000000,8,0.000000,0.000000,0.659560,0,0,0,0,0,0,0
9,99999,65,90000,23,50000,40,9999,0.100000,0,0,0.000000,8,0.000000,0.000000,1.527423,0,0,0,0,0,0,0
9,99999,66,90000,79,10000,40,9999,0.100000,0,0,0.000000,8,0.000000,0.000000,0.268280,0,0,0,0,0,0,0
9,99999,67,90000,23,50000,40,9999,0.100000,0,0,0.000000,8,0.000000,0.000000,0.055792,0,0,0,0,0,0,0
9,99999,68,90000,23,50000,40,9999,0.100000,0,0,0.000000,8,0.000000,0.000000,0.499088,0,0,0,0,0,0,0
9,99999,69,90000,79,0,40,9999,0.100000,0,0,0.000000,8,0.000000,0.000000,0.132389,0,0,0,0,0,0,0
9,99999,70,90000,23,60000,40,9999,0.100000,0,0,0.000000,8,0.000000,0.000000,1.025839,0,0,0,0,0,0,0
9,99999,71,90000,23,50000,40,9999,0.100000,0,0,0.000000,8,0.000000,0.000000,0.168907,0,0,0,0,0,0,0
9,99999,72,90000,79,0,40,9999,0.100000,0,0,0.000000,8,0.000000,0.000000,0.115732,0,0,0,0,0,0,0
9,99999,73,90000,23,50000,40,9999,0.100000,0,0,0.000000,8,0.000000,0.000000,0.086264,0,0,0,0,0,0,0
9,99999,74,90000,23,50000,40,9999,0.100000,0,0,0.000000,8,0.000000,0.000000,1.010354,0,0,0,0,0,0,0
9,99999,75,90000,51,60000,49,9999,0.100000,0,0,0.000000,8,2.000000,0.000000,6.309215,0,0,0,0,0,0,0
9,99999,76,90000,74,50000,40,9999,0.100000,0,0,0.000000,8,0.000000,0.000000,0.081165,0,0,0,0,0,0,0
9,99999,77,90000,1,60000,49,9999,0.100000,0,0,0.000000,8,8.000000,0.000000,16.495701,0,0,0,0,0,0,0
9,99999,78,90000,45,40000,49,9999,0.100000,0,0,0.000000,8,6.000000,0.000000,22.065055,0,0,0,0,0,0,0
9,99999,79,90000,23,60000,40,9999,0.100000,0,0,0.000000,8,0.000000,0.000000,1.257320,0,0,0,0,0,0,0
9,99999,80,90000,79,10000,49,9999,0.100000,0,0,0.000000,8,1.000000,0.000000,1.734874,0,0,0,0,0,0,0
9,99999,81,90000,79,0,40,9999,0.100000,0,0,0.000000,8,0.000000,0.000000,1.095585,0,0,0,0,0,0,0
9,99999,82,90000,45,40000,40,9999,0.100000,0,0,0.000000,8,0.000000,0.000000,1.997231,0,0,0,0,0,0,0
9,99999,83,90000,45,40000,40,9999,0.100000,0,0,0.000000,8,0.000000,0.000000,1.018484,0,0,0,0,0,0,0
9,99999,84,90000,79,0,40,9999,0.100000,0,0,0.000000,8,0.000000,0.000000,0.081256,0,0,0,0,0,0,0
9,99999,85,90000,51,60000,40,9999,0.100000,0,0,0.000000,8,0.000000,0.000000,0.094482,0,0,0,0,0,0,0
9,99999,86,90000,1,60000,40,9999,0.100000,0,0,0.000000,8,0.000000,0.000000,1.547752,0,0,0,0,0,0,0
9,99999,87,90000,1,60000,40,9999,0.100000,0,0,0.000000,8,0.000000,0.000000,0.751785,0,0,0,0,0,0,0
9,99999,88,90000,45,40000,40,9999,0.100000,0,0,0.000000,8,0.000000,0.000000,6.246198,0,0,0,0,0,0,0
9,99999,89,90000,1,60000,40,9999,0.100000,0,0,0.000000,8,0.000000,0.000000,0.154586,0,0,0,0,0,0,0
9,99999,90,90000,23,60000,40,9999,0.100000,0,0,0.000000,8,0.000000,0.000000,1.149392,0,0,0,0,0,0,0
9,99999,91,90000,23,60000,40,9999,0.100000,0,0,0.000000,8,0.000000,0.000000,0.183174,0,0,0,0,0,0,0
9,99999,92,90000,51,60000,49,9999,0.100000,0,0,0.000000,8,5.000000,0.000000,11.760254,0,0,0,0,0,0,0
9,99999,93,90000,79,10000,40,9999,0.100000,0,0,0.000000,8,0.000000,0.000000,0.236232,0,0,0,0,0,0,0
9,99999,94,90000,51,60000,40,9999,0.100000,0,0,0.000000,8,0.000000,0.000000,0.145514,0,0,0,0,0,0,0
9,99999,95,90000,1,60000,49,9999,0.100000,0,0,0.000000,8,1.000000,0.000000,2.078105,0,0,0,0,0,0,0
9,99999,96,90000,79,0,40,9999,0.100000,0,0,0.000000,8,0.000000,0.000000,0.081261,0,0,0,0,0,0,0
9,99999,97,90000,74,50000,49,9999,0.100000,0,0,0.000000,8,1.000000,0.000000,6.402920,0,0,0,0,0,0,0
9,99999,98,90000,79,0,40,9999,0.100000,0,0,0.000000,8,0.000000,0.000000,1.496157,0,0,0,0,0,0,0
9,99999,99,90000,45,40000,40,9999,0.100000,0,0,0.000000,8,0.000000,0.000000,0.101379,0,0,0,0,0,0,0
10,109999,0,100000,79,0,49,9999,0.100000,0,0,0.000000,8,3.000000,0.000000,11.230769,0,0,0,0,0,0,0
10,109999,1,100000,79,0,40,9999,0.100000,0,0,0.000000,8,0.000000,0.000000,0.091168,0,0,0,0,0,0,0
10,109999,2,100000,23,60000,40,9999,0.100000,0,0,0.000000,8,0.000000,0.000000,0.216545,0,0,0,0,0,0,0
10,109999,3,100000,23,60000,40,9999,0.100000,0,0,0.000000,8,0.000000,0.000000,0.499685,0,0,0,0,0,0,0
10,109999,4,100000,51,60000,49,9999,0.100000,0,0,0.000000,8,1.000000,0.000000,6.465681,0,0,0,0,0,0,0
10,109999,5,100000,77,90000,40,9999,0.100000,0,0,0.000000,8,0.000000,0.000000,0.087045,0,0,0,0,0,0,0
10,109999,6,100000,23,50000,49,9999,0.100000,0,0,0.000000,8,1.000000,0.000000,12.508547,0,0,0,0,0,0,0
10,109999,7,100000,79,10000,40,9999,0.100000,0,0,0.000000,8,0.000000,0.000000,1.072263,0,0,0,0,0,0,0
10,109999,8,100000,79,10000,40,9999,0.100000,0,0,0.000000,8,0.000000,0.000000,0.088056,0,0,0,0,0,0,0
10,109999,9,100000,23,60000,40,9999,0.100000,0,0,0.000000,8,0.000000,0.000000,0.146298,0,0,0,0,0,0,0
10,109999,10,100000,1,60000,40,9999,0.100000,0,0,0.000000,8,0.000000,0.000000,0.267376,0,0,0,0,0,0,0
10,109999,11,100000,79,10000,9,9999,0.100000,0,0,0.000000,8,2.000000,0.000000,3.739287,0,0,0,1,0,0,0
10,109999,12,100000,79,0,49,9999,0.100000,0,0,0.000000,8,1.000000,0.000000,16.297545,0,0,0,0,0,0,0
10,109999,13,100000,77,90000,40,9999,0.100000,0,0,0.000000,8,0.000000,0.000000,3.580715,0,0,0,0,0,0,0
10,109999,14,100000,23,60000,40,9999,0.100000,0,0,0.000000,8,0.000000,0.000000,0.622736,0,0,0,0,0,0,0
10,109999,15,100000,45,40000,40,9999,0.100000,0,0,0.000000,8,0.000000,0.000000,6.340357,0,0,0,0,0,0,0
10,109999,16,100000,23,50000,40,9999,0.100000,0,0,0.000000,8,0.000000,0.000000,0.118485,0,0,0,0,0,0,0
10,109999,17,100000,23,50000,40,9999,0.100000,0,0,0.000000,8,0.000000,0.000000,1.125187,0,0,0,0,0,0,0
10,109999,18,100000,77,90000,49,9999,0.100000,0,0,0.000000,8,5.000000,0.000000,6.934267,0,0,0,0,0,0,0
10,109999,19,100000,23,60000,40,9999,0.100000,0,0,0.000000,8,0.000000,0.000000,2.468016,0,0,0,0,0,0,0
10,109999,20,100000,77,90000,40,9999,0.100000,0,0,0.000000,8,0.000000,0.000000,0.843937,0,0,0,0,0,0,0
10,109999,21,100000,79,10000,40,9999,0.100000,0,0,0.000000,8,0.000000,0.000000,0.437646,0,0,0,0,0,0,0
10,109999,22,100000,77,90000,40,9999,0.100000,0,0,0.000000,8,0.000000,0.000000,0.118908,0,0,0,0,0,0,0
10,109999,23,100000,79,0,40,9999,0.100000,0,0,0.000000,8,0.000000,0.000000,0.414983,0,0,0,0,0,0,0
10,109999,24,100000,79,0,40,9999,0.100000,0,0,0.000000,8,0.000000,0.000000,16.629063,0,0,0,0,0,0,0
10,109999,25,100000,74,50000,40,9999,0.100000,0,0,0.000000,8,0.000000,0.000000,0.446361,0,0,0,0,0,0,0
10,109999,26,100000,74,50000,40,9999,0.100000,0,0,0.000000,8,0.000000,0.000000,0.484973,0,0,0,0,0,0,0
10,109999,27,100000,45,40000,49,9999,0.100000,0,0,0.000000,8,2.000000,0.000000,6.470129,0,0,0,0,0,0,0
10,109999,28,100000,23,50000,40,9999,0.100000,0,0,0.000000,8,0.000000,0.000000,0.085889,0,0,0,0,0,0,0
10,109999,29,100000,23,50000,40,9999,0.100000,0,0,0.000000,8,0.000000,0.000000,1.457062,0,0,0,0,0,0,0
10,109999,30,100000,74,50000,40,9999,0.100000,0,0,0.000000,8,0.000000,0.000000,5.715357,0,0,0,0,0,0,0
10,109999,31,100000,23,60000,40,9999,0.100000,0,0,0.000000,8,0.000000,0.000000,0.189717,0,0,0,0,0,0,0
10,109999,32,100000,23,50000,40,9999,0.100000,0,0,0.000000,8,0.000000,0.000000,0.118218,0,0,0,0,0,0,0
10,109999,33,100000,77,90000,40,9999,0.100000,0,0,0.000000,8,0.000000,0.000000,0.795659,0,0,0,0,0,0,0
10,109999,34,100000,23,50000,0,9999,0.100000,0,0,0.000000,8,0.000000,0.000000,4.056643,0,0,0,0,1,0,0
10,109999,35,100000,45,40000,49,9999,0.100000,0,0,0.000000,8,1.000000,0.000000,1.297113,0,0,0,0,0,0,0
10,109999,36,100000,79,0,49,9999,0.100000,0,0,0.000000,8,1.000000,0.000000,18.798094,0,0,0,0,0,0,0
10,109999,37,100000,23,50000,40,9999,0.100000,0,0,0.000000,8,0.000000,0.000000,0.481397,0,0,0,0,0,0,0
10,109999,38,100000,79,10000,49,9999,0.100000,0,0,0.000000,8,2.000000,0.000000,6.745144,0,0,0,0,0,0,0
10,109999,39,100000,45,40000,40,9999,0.100000,0,0,0.000000,8,0.000000,0.000000,2.456768,0,0,0,0,0,0,0
10,109999,40,100000,45,40000,40,9999,0.135000,0,0,0.000000,8,0.000000,0.000000,0.124502,0,0,0,0,0,0,0
10,109999,41,100000,45,40000,40,9999,0.100000,0,0,0.000000,8,0.000000,0.000000,0.140591,0,0,0,0,0,0,0
10,109999,42,100000,23,50000,40,9999,0.100000,0,0,0.000000,8,0.000000,0.000000,0.088472,0,0,0,0,0,0,0
10,109999,43,100000,79,10000,49,9999,0.100000,0,0,0.000000,8,1.000000,0.000000,2.112659,0,0,0,0,0,0,0
10,109999,44,100000,77,90000,40,9999,0.100000,0,0,0.000000,8,0.000000,0.000000,0.207086,0,0,0,0,0,0,0
10,109999,45,100000,45,40000,40,9999,0.100000,0,0,0.000000,8,0.000000,0.000000,0.263059,0,0,0,0,0,0,0
10,109999,46,100000,1,60000,40,9999,0.100000,0,0,0.000000,8,0.000000,0.000000,0.175088,0,0,0,0,0,0,0
10,109999,47,100000,79,10000,40,9999,0.100000,0,0,0.000000,8,0.000000,0.000000,0.104465,0,0,0,0,0,0,0
10,109999,48,100000,79,0,40,9999,0.100000,0,0,0.000000,8,0.000000,0.000000,0.232850,0,0,0,0,0,0,0
10,109999,49,100000,23,60000,49,9999,0.100000,0,0,0.000000,8,1.000000,0.000000,1.110893,0,0,0,0,0,0,0
10,109999,50,100000,79,0,40,9999,0.100000,0,0,0.000000,8,0.000000,0.000000,0.323701,0,0,0,0,0,0,0
10,109999,51,100000,23,50000,40,9999,0.100000,0,0,0.000000,8,0.000000,0.000000,1.045143,0,0,0,0,0,0,0
10,109999,52,100000,23,50000,40,9999,0.100000,0,0,0.000000,8,0.000000,0.000000,2.910791,0,0,0,0,0,0,0
10,109999,53,100000,45,40000,40,9999,0.100000,0,0,0.000000,8,0.000000,0.000000,0.309282,0,0,0,0,0,0,0
10,109999,54,100000,23,60000,40,9999,0.100000,0,0,0.000000,8,0.000000,0.000000,0.455469,0,0,0,0,0,0,0
10,109999,55,100000,51,60000,40,9999,0.100000,0,0,0.000000,8,0.000000,0.000000,0.306429,0,0,0,0,0,0,0
10,109999,56,100000,74,50000,40,9999,0.100000,0,0,0.000000,8,0.000000,0.000000,0.174622,0,0,0,0,0,0,0
10,109999,57,100000,23,50000,40,9999,0.100000,0,0,0.000000,8,0.000000,0.000000,1.664750,0,0,0,0,0,0,0
10,109999,58,100000,79,10000,49,9999,0.100000,0,0,0.000000,8,13.000000,0.000000,24.739743,0,0,0,0,0,0,0
10,109999,59,100000,45,40000,40,9999,0.100000,0,0,0.000000,8,0.000000,0.000000,0.143813,0,0,0,0,0,0,0
10,109999,60,100000,77,90000,40,9999,0.100000,0,0,0.000000,8,0.000000,0.000000,0.568407,0,0,0,0,0,0,0
10,109999,61,100000,79,0,40,9999,0.100000,0,0,0.000000,8,0.000000,0.000000,0.428892,0,0,0,0,0,0,0
10,109999,62,100000,23,60000,40,9999,0.100000,0,0,0.000000,8,0.000000,0.000000,0.302447,0,0,0,0,0,0,0
10,109999,63,100000,74,50000,49,9999,0.100000,0,0,0.000000,8,1.000000,0.000000,1.153080,0,0,0,0,0,0,0
10,109999,64,100000,79,0,49,9999,0.100000,0,0,0.000000,8,2.000000,0.000000,5.953914,0,0,0,0,0,0,0
10,109999,65,100000,23,50000,40,9999,0.100000,0,0,0.000000,8,0.000000,0.000000,0.164461,0,0,0,0,0,0,0
10,109999,66,100000,51,60000,40,9999,0.100000,0,0,0.000000,8,0.000000,0.000000,0.266711,0,0,0,0,0,0,0
10,109999,67,100000,23,60000,40,9999,0.100000,0,0,0.000000,8,0.000000,0.000000,0.090922,0,0,0,0,0,0,0
10,109999,68,100000,51,60000,40,9999,0.100000,0,0,0.000000,8,0.000000,0.000000,0.578801,0,0,0,0,0,0,0
10,109999,69,100000,23,60000,40,9999,0.100000,0,0,0.000000,8,0.000000,0.000000,0.128359,0,0,0,0,0,0,0
10,109999,70,100000,79,0,40,9999,0.100000,0,0,0.000000,8,0.000000,0.000000,0.709807,0,0,0,0,0,0,0
10,109999,71,100000,1,60000,40,9999,0.100000,0,0,0.000000,8,0.000000,0.000000,0.165585,0,0,0,0,0,0,0
10,109999,72,100000,45,40000,40,9999,0.100000,0,0,0.000000,8,0.000000,0.000000,0.266932,0,0,0,0,0,0,0
10,109999,73,100000,23,50000,40,9999,0.100000,0,0,0.000000,8,0.000000,0.000000,0.091504,0,0,0,0,0,0,0
10,109999,74,100000,23,50000,40,9999,0.100000,0,0,0.000000,8,0.000000,0.000000,0.339476,0,0,0,0,0,0,0
10,109999,75,100000,77,90000,49,9999,0.100000,0,0,0.000000,8,4.000000,0.000000,7.328419,0,0,0,0,0,0,0
10,109999,76,100000,23,50000,40,9999,0.100000,0,0,0.000000,8,0.000000,0.000000,0.081529,0,0,0,0,0,0,0
10,109999,77,100000,23,50000,40,9999,0.100000,0,0,0.000000,8,0.000000,0.000000,0.065858,0,0,0,0,0,0,0
10,109999,78,100000,74,50000,40,9999,0.100000,0,0,0.000000,8,0.000000,0.000000,1.086972,0,0,0,0,0,0,0
10,109999,79,100000,51,60000,49,9999,0.100000,0,0,0.000000,8,3.000000,0.000000,11.806077,0,0,0,0,0,0,0
10,109999,80,100000,79,10000,49,9999,0.100000,0,0,0.000000,8,1.000000,0.000000,1.275444,0,0,0,0,0,0,0
10,109999,81,100000,23,60000,40,9999,0.100000,0,0,0.000000,8,0.000000,0.000000,0.701575,0,0,0,0,0,0,0
10,109999,82,100000,77,90000,40,9999,0.100000,0,0,0.000000,8,0.000000,0.000000,1.638918,0,0,0,0,0,0,0
10,109999,83,100000,23,50000,40,9999,0.100000,0,0,0.000000,8,0.000000,0.000000,0.664186,0,0,0,0,0,0,0
10,109999,84,100000,23,50000,40,9999,0.100000,0,0,0.000000,8,0.000000,0.000000,0.081189,0,0,0,0,0,0,0
10,109999,85,100000,79,10000,40,9999,0.100000,0,0,0.000000,8,0.000000,0.000000,0.156228,0,0,0,0,0,0,0
10,109999,86,100000,74,50000,40,9999,0.100000,0,0,0.000000,8,0.000000,0.000000,0.464086,0,0,0,0,0,0,0
10,109999,87,100000,74,50000,40,9999,0.100000,0,0,0.000000,8,0.000000,0.000000,0.607463,0,0,0,0,0,0,0
10,109999,88,100000,51,60000,49,9999,0.100000,0,0,0.000000,8,1.000000,0.000000,1.789885,0,0,0,0,0,0,0
10,109999,89,100000,79,10000,40,9999,0.100000,0,0,0.000000,8,0.000000,0.000000,0.095996,0,0,0,0,0,0,0
10,109999,90,100000,23,60000,40,9999,0.100000,0,0,0.000000,8,0.000000,0.000000,3.796940,0,0,0,0,0,0,0
10,109999,91,100000,51,60000,40,9999,0.100000,0,0,0.000000,8,0.000000,0.000000,0.137539,0,0,0,0,0,0,0
10,109999,92,100000,23,60000,40,9999,0.100000,0,0,0.000000,8,0.000000,0.000000,0.170371,0,0,0,0,0,0,0
10,109999,93,100000,77,90000,40,9999,0.100000,0,0,0.000000,8,0.000000,0.000000,0.241054,0,0,0,0,0,0,0
10,109999,94,100000,45,40000,40,9999,0.100000,0,0,0.000000,8,0.000000,0.000000,0.142232,0,0,0,0,0,0,0
10,109999,95,100000,23,60000,49,9999,0.100000,0,0,0.000000,8,1.000000,0.000000,5.358091,0,0,0,0,0,0,0
10,109999,96,100000,45,40000,40,9999,0.100000,0,0,0.000000,8,0.000000,0.000000,0.079717,0,0,0,0,0,0,0
10,109999,97,100000,79,10000,40,9999,0.100000,0,0,0.000000,8,0.000000,0.000000,1.034842,0,0,0,0,0,0,0
10,109999,98,100000,23,50000,49,9999,0.100000,0,0,0.000000,8,2.000000,0.000000,6.728950,0,0,0,0,0,0,0
10,109999,99,100000,79,0,40,9999,0.100000,0,0,0.000000,8,0.000000,0.000000,0.098415,0,0,0,0,0,0,0
11,119999,0,110000,23,60000,49,9999,0.100000,0,0,0.000000,8,3.000000,0.000000,9.532160,0,0,0,0,0,0,0
11,119999,1,110000,45,40000,40,9999,0.100000,0,0,0.000000,8,0.000000,0.000000,0.092988,0,0,0,0,0,0,0
11,119999,2,110000,23,50000,40,9999,0.100000,0,0,0.000000,8,0.000000,0.000000,0.213376,0,0,0,0,0,0,0
11,119999,3,110000,79,10000,40,9999,0.100000,0,0,0.000000,8,0.000000,0.000000,0.500641,0,0,0,0,0,0,0
11,119999,4,110000,45,40000,40,9999,0.100000,0,0,0.000000,8,0.000000,0.000000,0.653193,0,0,0,0,0,0,0
11,119999,5,110000,79,0,40,9999,0.100000,0,0,0.000000,8,0.000000,0.000000,0.085644,0,0,0,0,0,0,0
11,119999,6,110000,45,40000,49,9999,0.135000,0,0,0.000000,8,1.000000,0.000000,13.357641,0,0,0,0,0,0,0
11,119999,7,110000,74,50000,40,9999,0.100000,0,0,0.000000,8,0.000000,0.000000,0.921708,0,0,0,0,0,0,0
11,119999,8,110000,45,40000,40,9999,0.100000,0,0,0.000000,8,0.000000,0.000000,0.089583,0,0,0,0,0,0,0
11,119999,9,110000,79,0,40,9999,0.100000,0,0,0.000000,8,0.000000,0.000000,0.233546,0,0,0,0,0,0,0
11,119999,10,110000,79,10000,40,9999,0.100000,0,0,0.000000,8,0.000000,0.000000,0.217524,0,0,0,0,0,0,0
11,119999,11,110000,45,40000,49,9999,0.100000,0,0,0.000000,8,2.000000,0.000000,5.603614,0,0,0,0,0,0,0
11,119999,12,110000,79,10000,49,9999,0.100000,0,0,0.000000,8,2.000000,0.000000,7.933274,0,0,0,0,0,0,0
11,119999,13,110000,23,60000,40,9999,0.100000,0,0,0.000000,8,0.000000,0.000000,5.321876,0,0,0,0,0,0,0
11,119999,14,110000,23,60000,40,9999,0.100000,0,0,0.000000,8,0.000000,0.000000,1.137952,0,0,0,0,0,0,0
11,119999,15,110000,23,60000,49,9999,0.100000,0,0,0.000000,8,3.000000,0.000000,10.445894,0,0,0,0,0,0,0
11,119999,16,110000,51,60000,40,9999,0.100000,0,0,0.000000,8,0.000000,0.000000,0.072223,0,0,0,0,0,0,0
11,119999,17,110000,34,100000,40,9999,0.100000,0,0,0.000000,8,0.000000,0.000000,0.907018,0,0,0,0,0,0,0
11,119999,18,110000,79,0,49,9999,0.100000,0,0,0.000000,8,7.000000,0.000000,8.530060,0,0,0,0,0,0,0
11,119999,19,110000,7,100000,40,9999,0.100000,0,0,0.000000,8,0.000000,0.000000,3.202978,0,0,0,0,0,0,0
11,119999,20,110000,23,60000,40,9999,0.100000,0,0,0.000000,8,0.000000,0.000000,0.855396,0,0,0,0,0,0,0
11,119999,21,110000,77,90000,49,9999,0.100000,0,0,0.000000,8,2.000000,0.000000,6.138441,0,0,0,0,0,0,0
11,119999,22,110000,34,100000,40,9999,0.100000,0,0,0.000000,8,0.000000,0.000000,0.126458,0,0,0,0,0,0,0
11,119999,23,110000,23,60000,40,9999,0.100000,0,0,0.000000,8,0.000000,0.000000,0.456182,0,0,0,0,0,0,0
11,119999,24,110000,23,60000,40,9999,0.100000,0,0,0.000000,8,0.000000,0.000000,2.185733,0,0,0,0,0,0,0
11,119999,25,110000,79,0,40,9999,0.100000,0,0,0.000000,8,0.000000,0.000000,0.422041,0,0,0,0,0,0,0
11,119999,26,110000,74,50000,40,9999,0.100000,0,0,0.000000,8,0.000000,0.000000,0.462140,0,0,0,0,0,0,0
11,119999,27,110000,7,100000,40,9999,0.100000,0,0,0.000000,8,0.000000,0.000000,1.516751,0,0,0,0,0,0,0
11,119999,28,110000,23,50000,40,9999,0.100000,0,0,0.000000,8,0.000000,0.000000,0.104112,0,0,0,0,0,0,0
11,119999,29,110000,7,100000,40,9999,0.100000,0,0,0.000000,8,0.000000,0.000000,0.511614,0,0,0,0,0,0,0
11,119999,30,110000,45,40000,40,9999,0.100000,0,0,0.000000,8,0.000000,0.000000,6.058464,0,0,0,0,0,0,0
11,119999,31,110000,45,40000,40,9999,0.100000,0,0,0.000000,8,0.000000,0.000000,0.158754,0,0,0,0,0,0,0
11,119999,32,110000,7,100000,40,9999,0.100000,0,0,0.000000,8,0.000000,0.000000,0.095281,0,0,0,0,0,0,0
11,119999,33,110000,23,60000,40,9999,0.100000,0,0,0.000000,8,0.000000,0.000000,1.438439,0,0,0,0,0,0,0
11,119999,34,110000,7,100000,99,9999,0.100000,0,0,0.000000,8,4.000000,0.000000,12.431074,0,0,1,0,0,0,0
11,119999,35,110000,79,0,49,9999,0.100000,0,0,0.000000,8,1.000000,0.000000,5.698521,0,0,0,0,0,0,0
11,119999,36,110000,77,90000,40,9999,0.100000,0,0,0.000000,8,0.000000,0.000000,11.708970,0,0,0,0,0,0,0
11,119999,37,110000,34,100000,40,9999,0.100000,0,0,0.000000,8,0.000000,0.000000,0.440581,0,0,0,0,0,0,0
11,119999,38,110000,7,100000,49,9999,0.100000,0,0,0.000000,8,1.000000,0.000000,8.855684,0,0,0,0,0,0,0
11,119999,39,110000,45,40000,40,9999,0.100000,0,0,0.000000,8,0.000000,0.000000,2.796210,0,0,0,0,0,0,0
11,119999,40,110000,7,100000,40,9999,0.100000,0,0,0.000000,8,0.000000,0.000000,0.129633,0,0,0,0,0,0,0
11,119999,41,110000,45,40000,40,9999,0.100000,0,0,0.000000,8,0.000000,0.000000,0.125808,0,0,0,0,0,0,0
11,119999,42,110000,45,40000,40,9999,0.100000,0,0,0.000000,8,0.000000,0.000000,0.097859,0,0,0,0,0,0,0
11,119999,43,110000,23,50000,49,9999,0.100000,0,0,0.000000,8,4.000000,0.000000,7.038265,0,0,0,0,0,0,0
11,119999,44,110000,23,50000,40,9999,0.100000,0,0,0.000000,8,0.000000,0.000000,0.188110,0,0,0,0,0,0,0
11,119999,45,110000,45,40000,49,9999,0.100000,0,0,0.000000,8,7.000000,0.000000,8.752353,0,0,0,0,0,0,0
11,119999,46,110000,23,50000,40,9999,0.100000,0,0,0.000000,8,0.000000,0.000000,0.171850,0,0,0,0,0,0,0
11,119999,47,110000,34,100000,40,9999,0.100000,0,0,0.000000,8,0.000000,0.000000,0.106400,0,0,0,0,0,0,0
11,119999,48,110000,7,100000,40,9999,0.100000,0,0,0.000000,8,0.000000,0.000000,0.241755,0,0,0,0,0,0,0
11,119999,49,110000,77,90000,49,9999,0.100000,0,0,0.000000,8,1.000000,0.000000,2.419550,0,0,0,0,0,0,0
11,119999,50,110000,77,90000,40,9999,0.100000,0,0,0.000000,8,0.000000,0.000000,0.414769,0,0,0,0,0,0,0
11,119999,51,110000,23,60000,49,9999,0.100000,0,0,0.000000,8,18.000000,0.000000,26.195934,0,0,0,0,0,0,0
11,119999,52,110000,34,100000,40,9999,0.100000,0,0,0.000000,8,0.000000,0.000000,0.760795,0,0,0,0,0,0,0
11,119999,53,110000,7,100000,40,9999,0.100000,0,0,0.000000,8,0.000000,0.000000,0.322302,0,0,0,0,0,0,0
11,119999,54,110000,34,100000,40,9999,0.100000,0,0,0.000000,8,0.000000,0.000000,0.474151,0,0,0,0,0,0,0
11,119999,55,110000,23,50000,40,9999,0.100000,0,0,0.000000,8,0.000000,0.000000,1.012886,0,0,0,0,0,0,0
11,119999,56,110000,23,50000,40,9999,0.100000,0,0,0.000000,8,0.000000,0.000000,0.329448,0,0,0,0,0,0,0
11,119999,57,110000,23,50000,40,9999,0.100000,0,0,0.000000,8,0.000000,0.000000,1.636999,0,0,0,0,0,0,0
11,119999,58,110000,23,60000,40,9999,0.100000,0,0,0.000000,8,0.000000,0.000000,0.990433,0,0,0,0,0,0,0
11,119999,59,110000,23,60000,40,9999,0.100000,0,0,0.000000,8,0.000000,0.000000,0.113117,0,0,0,0,0,0,0
11,119999,60,110000,34,100000,49,9999,0.100000,0,0,0.000000,8,7.000000,0.000000,10.784501,0,0,0,0,0,0,0
11,119999,61,110000,34,100000,40,9999,0.100000,0,0,0.000000,8,0.000000,0.000000,0.979576,0,0,0,0,0,0,0
11,119999,62,110000,77,90000,49,9999,0.100000,0,0,0.000000,8,4.000000,0.000000,9.095319,0,0,0,0,0,0,0
11,119999,63,110000,23,50000,49,9999,0.100000,0,0,0.000000,8,6.000000,0.000000,13.379247,0,0,0,0,0,0,0
11,119999,64,110000,7,100000,40,9999,0.100000,0,0,0.000000,8,0.000000,0.000000,0.631679,0,0,0,0,0,0,0
11,119999,65,110000,79,0,40,9999,0.100000,0,0,0.000000,8,0.000000,0.000000,0.162959,0,0,0,0,0,0,0
11,119999,66,110000,34,100000,40,9999,0.100000,0,0,0.000000,8,0.000000,0.000000,0.275297,0,0,0,0,0,0,0
11,119999,67,110000,34,100000,40,9999,0.100000,0,0,0.000000,8,0.000000,0.000000,0.092762,0,0,0,0,0,0,0
11,119999,68,110000,23,50000,40,9999,0.100000,0,0,0.000000,8,0.000000,0.000000,0.635994,0,0,0,0,0,0,0
11,119999,69,110000,45,40000,40,9999,0.100000,0,0,0.000000,8,0.000000,0.000000,0.130506,0,0,0,0,0,0,0
11,119999,70,110000,7,100000,40,9999,0.100000,0,0,0.000000,8,0.000000,0.000000,1.396642,0,0,0,0,0,0,0
11,119999,71,110000,74,50000,40,9999,0.100000,0,0,0.000000,8,0.000000,0.000000,0.165931,0,0,0,0,0,0,0
11,119999,72,110000,34,100000,40,9999,0.100000,0,0,0.000000,8,0.000000,0.000000,0.226683,0,0,0,0,0,0,0
11,119999,73,110000,79,0,40,9999,0.100000,0,0,0.000000,8,0.000000,0.000000,0.110376,0,0,0,0,0,0,0
11,119999,74,110000,23,60000,40,9999,0.100000,0,0,0.000000,8,0.000000,0.000000,0.515265,0,0,0,0,0,0,0
11,119999,75,110000,79,0,49,9999,0.100000,0,0,0.000000,8,1.000000,0.000000,3.675993,0,0,0,0,0,0,0
11,119999,76,110000,74,50000,40,9999,0.100000,0,0,0.000000,8,0.000000,0.000000,0.086199,0,0,0,0,0,0,0
11,119999,77,110000,23,60000,40,9999,0.100000,0,0,0.000000,8,0.000000,0.000000,0.057394,0,0,0,0,0,0,0
11,119999,78,110000,79,0,40,9999,0.100000,0,0,0.000000,8,0.000000,0.000000,2.409626,0,0,0,0,0,0,0
11,119999,79,110000,45,40000,49,9999,0.100000,0,0,0.000000,8,7.000000,0.000000,10.801386,0,0,0,0,0,0,0
11,119999,80,110000,79,0,49,9999,0.100000,0,0,0.000000,8,3.000000,0.000000,6.134134,0,0,0,0,0,0,0
11,119999,81,110000,23,50000,49,9999,0.100000,0,0,0.000000,8,6.000000,0.000000,21.207170,0,0,0,0,0,0,0
11,119999,82,110000,79,10000,40,9999,0.100000,0,0,0.000000,8,0.000000,0.000000,0.440274,0,0,0,0,0,0,0
11,119999,83,110000,34,100000,40,9999,0.100000,0,0,0.000000,8,0.000000,0.000000,0.325974,0,0,0,0,0,0,0
11,119999,84,110000,7,100000,40,9999,0.100000,0,0,0.000000,8,0.000000,0.000000,0.080699,0,0,0,0,0,0,0
11,119999,85,110000,34,100000,49,9999,0.100000,0,0,0.000000,8,3.000000,0.000000,10.396374,0,0,0,0,0,0,0
11,119999,86,110000,7,100000,40,9999,0.100000,0,0,0.000000,8,0.000000,0.000000,0.381780,0,0,0,0,0,0,0
11,119999,87,110000,79,0,40,9999,0.100000,0,0,0.000000,8,0.000000,0.000000,0.602926,0,0,0,0,0,0,0
11,119999,88,110000,79,0,49,9999,0.100000,0,0,0.000000,8,2.000000,0.000000,9.043472,0,0,0,0,0,0,0
11,119999,89,110000,74,50000,40,9999,0.100000,0,0,0.000000,8,0.000000,0.000000,0.080751,0,0,0,0,0,0,0
11,119999,90,110000,45,40000,40,9999,0.100000,0,0,0.000000,8,0.000000,0.000000,3.761724,0,0,0,0,0,0,0
11,119999,91,110000,77,90000,40,9999,0.100000,0,0,0.000000,8,0.000000,0.000000,0.165333,0,0,0,0,0,0,0
11,119999,92,110000,79,10000,40,9999,0.100000,0,0,0.000000,8,0.000000,0.000000,0.125779,0,0,0,0,0,0,0
11,119999,93,110000,23,50000,40,9999,0.100000,0,0,0.000000,8,0.000000,0.000000,0.240915,0,0,0,0,0,0,0
11,119999,94,110000,79,0,40,9999,0.100000,0,0,0.000000,8,0.000000,0.000000,0.142588,0,0,0,0,0,0,0
11,119999,95,110000,77,90000,40,9999,0.100000,0,0,0.000000,8,0.000000,0.000000,1.671529,0,0,0,0,0,0,0
11,119999,96,110000,7,100000,40,9999,0.100000,0,0,0.000000,8,0.000000,0.000000,0.079661,0,0,0,0,0,0,0
11,119999,97,110000,79,0,40,9999,0.100000,0,0,0.000000,8,0.000000,0.000000,0.177056,0,0,0,0,0,0,0
11,119999,98,110000,45,40000,40,9999,0.100000,0,0,0.000000,8,0.000000,0.000000,1.019460,0,0,0,0,0,0,0
11,119999,99,110000,45,40000,40,9999,0.100000,0,0,0.000000,8,0.000000,0.000000,0.117495,0,0,0,0,0,0,0
12,129999,0,120000,79,0,49,9999,0.100000,0,0,0.000000,8,5.000000,0.000000,12.006395,0,0,0,0,0,0,0
12,129999,1,120000,77,90000,40,9999,0.100000,0,0,0.000000,8,0.000000,0.000000,0.121309,0,0,0,0,0,0,0
12,129999,2,120000,45,40000,40,9999,0.100000,0,0,0.000000,8,0.000000,0.000000,0.215656,0,0,0,0,0,0,0
12,129999,3,120000,34,100000,40,9999,0.100000,0,0,0.000000,8,0.000000,0.000000,0.504793,0,0,0,0,0,0,0
12,129999,4,120000,45,40000,40,9999,0.100000,0,0,0.000000,8,0.000000,0.000000,0.112269,0,0,0,0,0,0,0
12,129999,5,120000,79,10000,40,9999,0.100000,0,0,0.000000,8,0.000000,0.000000,0.084448,0,0,0,0,0,0,0
12,129999,6,120000,79,10000,40,9999,0.100000,0,0,0.000000,8,0.000000,0.000000,3.556429,0,0,0,0,0,0,0
12,129999,7,120000,77,90000,40,9999,0.100000,0,0,0.000000,8,0.000000,0.000000,0.180384,0,0,0,0,0,0,0
12,129999,8,120000,23,60000,40,9999,0.100000,0,0,0.000000,8,0.000000,0.000000,0.089567,0,0,0,0,0,0,0
12,129999,9,120000,45,40000,40,9999,0.100000,0,0,0.000000,8,0.000000,0.000000,0.156778,0,0,0,0,0,0,0
12,129999,10,120000,45,40000,40,9999,0.100000,0,0,0.000000,8,0.000000,0.000000,0.385525,0,0,0,0,0,0,0
12,129999,11,120000,79,0,40,9999,0.100000,0,0,0.000000,8,0.000000,0.000000,4.309286,0,0,0,0,0,0,0
12,129999,12,120000,23,60000,40,9999,0.100000,0,0,0.000000,8,0.000000,0.000000,4.916366,0,0,0,0,0,0,0
12,129999,13,120000,34,100000,40,9999,0.100000,0,0,0.000000,8,0.000000,0.000000,7.157940,0,0,0,0,0,0,0
12,129999,14,120000,79,0,40,9999,0.100000,0,0,0.000000,8,0.000000,0.000000,0.382640,0,0,0,0,0,0,0
12,129999,15,120000,77,90000,40,9999,0.100000,0,0,0.000000,8,0.000000,0.000000,0.190514,0,0,0,0,0,0,0
12,129999,16,120000,79,10000,40,9999,0.100000,0,0,0.000000,8,0.000000,0.000000,0.072538,0,0,0,0,0,0,0
12,129999,17,120000,34,100000,40,9999,0.100000,0,0,0.000000,8,0.000000,0.000000,0.676307,0,0,0,0,0,0,0
12,129999,18,120000,79,0,40,9999,0.100000,0,0,0.000000,8,0.000000,0.000000,1.217400,0,0,0,0,0,0,0
12,129999,19,120000,23,50000,40,9999,0.100000,0,0,0.000000,8,0.000000,0.000000,0.823342,0,0,0,0,0,0,0
12,129999,20,120000,7,110000,40,9999,0.100000,0,0,0.000000,8,0.000000,0.000000,1.044419,0,0,0,0,0,0,0
12,129999,21,120000,77,90000,49,9999,0.100000,0,0,0.000000,8,1.000000,0.000000,7.055879,0,0,0,0,0,0,0
12,129999,22,120000,45,40000,40,9999,0.100000,0,0,0.000000,8,0.000000,0.000000,0.130113,0,0,0,0,0,0,0
12,129999,23,120000,77,90000,40,9999,0.100000,0,0,0.000000,8,0.000000,0.000000,0.709610,0,0,0,0,0,0,0
12,129999,24,120000,45,40000,40,9999,0.100000,0,0,0.000000,8,0.000000,0.000000,0.665136,0,0,0,0,0,0,0
12,129999,25,120000,7,110000,40,9999,0.100000,0,0,0.000000,8,0.000000,0.000000,0.448325,0,0,0,0,0,0,0
12,129999,26,120000,79,10000,40,9999,0.100000,0,0,0.000000,8,0.000000,0.000000,0.489808,0,0,0,0,0,0,0
12,129999,27,120000,45,40000,40,9999,0.100000,0,0,0.000000,8,0.000000,0.000000,3.185643,0,0,0,0,0,0,0
12,129999,28,120000,79,10000,40,9999,0.100000,0,0,0.000000,8,0.000000,0.000000,0.103439,0,0,0,0,0,0,0
12,129999,29,120000,7,110000,40,9999,0.100000,0,0,0.000000,8,0.000000,0.000000,0.584801,0,0,0,0,0,0,0
12,129999,30,120000,7,110000,40,9999,0.135000,0,0,0.000000,8,0.000000,0.000000,5.416673,0,0,0,0,0,0,0
12,129999,31,120000,7,100000,40,9999,0.100000,0,0,0.000000,8,0.000000,0.000000,0.142547,0,0,0,0,0,0,0
