generation,iteration,robot,birthday,ancestor_id,ancestor_birthday,cell_id,age,sigma,maps,genomes,fitness,cells_in_map,dist_max,dist_pot_max,dist_total,com_rx,com_tx,obj_group1,obj_group2,obj_group3,obj_group4,obj_group5
0,9999,0,0,0,0,99,9999,0.100000,0,0,47.368421,0,10.000000,0.000000,26.103149,0,0,1,0,0,0,0
0,9999,1,0,1,0,49,9999,0.100000,0,0,0.000000,0,4.000000,0.000000,10.127552,0,0,0,0,0,0,0
0,9999,2,0,2,0,49,9999,0.100000,0,0,0.000000,0,5.000000,0.000000,8.642552,0,0,0,0,0,0,0
0,9999,3,0,3,0,49,9999,0.100000,0,0,0.000000,0,5.000000,0.000000,15.629043,0,0,0,0,0,0,0
0,9999,4,0,4,0,49,9999,0.100000,0,0,0.000000,0,9.000000,0.000000,21.020192,0,0,0,0,0,0,0
0,9999,5,0,5,0,99,9999,0.100000,0,0,47.368421,0,7.000000,0.000000,21.999593,0,0,1,0,0,0,0
0,9999,6,0,6,0,49,9999,0.100000,0,0,0.000000,0,7.000000,0.000000,14.074873,0,0,0,0,0,0,0
0,9999,7,0,7,0,49,9999,0.100000,0,0,0.000000,0,1.000000,0.000000,3.780151,0,0,0,0,0,0,0
0,9999,8,0,8,0,49,9999,0.100000,0,0,0.000000,0,8.000000,0.000000,25.880256,0,0,0,0,0,0,0
0,9999,9,0,9,0,49,9999,0.100000,0,0,0.000000,0,7.000000,0.000000,9.885177,0,0,0,0,0,0,0
0,9999,10,0,10,0,49,9999,0.100000,0,0,0.000000,0,7.000000,0.000000,23.972196,0,0,0,0,0,0,0
0,9999,11,0,11,0,49,9999,0.100000,0,0,0.000000,0,11.000000,0.000000,21.984498,0,0,0,0,0,0,0
0,9999,12,0,12,0,49,9999,0.100000,0,0,0.000000,0,4.000000,0.000000,12.177997,0,0,0,0,0,0,0
0,9999,13,0,13,0,49,9999,0.100000,0,0,0.000000,0,9.000000,0.000000,25.184921,0,0,0,0,0,0,0
0,9999,14,0,14,0,49,9999,0.100000,0,0,0.000000,0,2.000000,0.000000,6.988661,0,0,0,0,0,0,0
0,9999,15,0,15,0,49,9999,0.100000,0,0,0.000000,0,9.000000,0.000000,24.562940,0,0,0,0,0,0,0
0,9999,16,0,16,0,49,9999,0.100000,0,0,0.000000,0,7.000000,0.000000,14.270152,0,0,0,0,0,0,0
0,9999,17,0,17,0,49,9999,0.100000,0,0,0.000000,0,6.000000,0.000000,10.420891,0,0,0,0,0,0,0
0,9999,18,0,18,0,49,9999,0.100000,0,0,0.000000,0,9.000000,0.000000,13.140208,0,0,0,0,0,0,0
0,9999,19,0,19,0,49,9999,0.100000,0,0,0.000000,0,11.000000,0.000000,18.366478,0,0,0,0,0,0,0
0,9999,20,0,20,0,49,9999,0.100000,0,0,0.000000,0,8.000000,0.000000,22.182578,0,0,0,0,0,0,0
0,9999,21,0,21,0,49,9999,0.100000,0,0,0.000000,0,12.000000,0.000000,35.653549,0,0,0,0,0,0,0
0,9999,22,0,22,0,49,9999,0.100000,0,0,0.000000,0,4.000000,0.000000,13.349420,0,0,0,0,0,0,0
0,9999,23,0,23,0,49,9999,0.100000,0,0,0.000000,0,6.000000,0.000000,8.682064,0,0,0,0,0,0,0
0,9999,24,0,24,0,49,9999,0.100000,0,0,0.000000,0,8.000000,0.000000,8.725847,0,0,0,0,0,0,0
0,9999,25,0,25,0,49,9999,0.100000,0,0,0.000000,0,9.000000,0.000000,24.448331,0,0,0,0,0,0,0
0,9999,26,0,26,0,49,9999,0.100000,0,0,0.000000,0,8.000000,0.000000,19.276189,0,0,0,0,0,0,0
0,9999,27,0,27,0,49,9999,0.100000,0,0,0.000000,0,9.000000,0.000000,12.580120,0,0,0,0,0,0,0
0,9999,28,0,28,0,99,9999,0.100000,0,0,47.368421,0,10.000000,0.000000,21.627719,0,0,1,0,0,0,0
0,9999,29,0,29,0,49,9999,0.100000,0,0,0.000000,0,10.000000,0.000000,13.626435,0,0,0,0,0,0,0
0,9999,30,0,30,0,49,9999,0.100000,0,0,0.000000,0,7.000000,0.000000,14.361255,0,0,0,0,0,0,0
0,9999,31,0,31,0,49,9999,0.100000,0,0,0.000000,0,10.000000,0.000000,11.723902,0,0,0,0,0,0,0
0,9999,32,0,32,0,49,9999,0.100000,0,0,0.000000,0,4.000000,0.000000,15.750988,0,0,0,0,0,0,0
0,9999,33,0,33,0,49,9999,0.100000,0,0,0.000000,0,7.000000,0.000000,8.381219,0,0,0,0,0,0,0
0,9999,34,0,34,0,49,9999,0.100000,0,0,0.000000,0,8.000000,0.000000,15.856062,0,0,0,0,0,0,0
0,9999,35,0,35,0,49,9999,0.100000,0,0,0.000000,0,8.000000,0.000000,22.897161,0,0,0,0,0,0,0
0,9999,36,0,36,0,49,9999,0.100000,0,0,0.000000,0,3.000000,0.000000,9.693099,0,0,0,0,0,0,0
0,9999,37,0,37,0,49,9999,0.100000,0,0,0.000000,0,4.000000,0.000000,16.169498,0,0,0,0,0,0,0
0,9999,38,0,38,0,49,9999,0.100000,0,0,0.000000,0,3.000000,0.000000,4.109938,0,0,0,0,0,0,0
0,9999,39,0,39,0,49,9999,0.100000,0,0,0.000000,0,5.000000,0.000000,12.088587,0,0,0,0,0,0,0
0,9999,40,0,40,0,49,9999,0.100000,0,0,0.000000,0,4.000000,0.000000,11.268517,0,0,0,0,0,0,0
0,9999,41,0,41,0,49,9999,0.100000,0,0,0.000000,0,13.000000,0.000000,34.986607,0,0,0,0,0,0,0
0,9999,42,0,42,0,49,9999,0.100000,0,0,0.000000,0,5.000000,0.000000,10.122445,0,0,0,0,0,0,0
0,9999,43,0,43,0,49,9999,0.100000,0,0,0.000000,0,6.000000,0.000000,18.581855,0,0,0,0,0,0,0
0,9999,44,0,44,0,49,9999,0.100000,0,0,0.000000,0,9.000000,0.000000,17.580040,0,0,0,0,0,0,0
0,9999,45,0,45,0,49,9999,0.100000,0,0,0.000000,0,5.000000,0.000000,15.632913,0,0,0,0,0,0,0
0,9999,46,0,46,0,49,9999,0.100000,0,0,0.000000,0,5.000000,0.000000,6.694434,0,0,0,0,0,0,0
0,9999,47,0,47,0,49,9999,0.100000,0,0,0.000000,0,10.000000,0.000000,13.638215,0,0,0,0,0,0,0
0,9999,48,0,48,0,99,9999,0.100000,0,0,47.368421,0,11.000000,0.000000,21.398493,0,0,1,0,0,0,0
0,9999,49,0,49,0,49,9999,0.100000,0,0,0.000000,0,8.000000,0.000000,27.851463,0,0,0,0,0,0,0
0,9999,50,0,50,0,49,9999,0.100000,0,0,0.000000,0,6.000000,0.000000,13.178395,0,0,0,0,0,0,0
0,9999,51,0,51,0,99,9999,0.100000,0,0,47.368421,0,9.000000,0.000000,32.258160,0,0,1,0,0,0,0
0,9999,52,0,52,0,49,9999,0.100000,0,0,0.000000,0,7.000000,0.000000,19.704705,0,0,0,0,0,0,0
0,9999,53,0,53,0,49,9999,0.100000,0,0,0.000000,0,5.000000,0.000000,13.360028,0,0,0,0,0,0,0
0,9999,54,0,54,0,49,9999,0.100000,0,0,0.000000,0,4.000000,0.000000,9.830424,0,0,0,0,0,0,0
0,9999,55,0,55,0,49,9999,0.100000,0,0,0.000000,0,7.000000,0.000000,7.983519,0,0,0,0,0,0,0
0,9999,56,0,56,0,49,9999,0.100000,0,0,0.000000,0,5.000000,0.000000,30.063742,0,0,0,0,0,0,0
0,9999,57,0,57,0,49,9999,0.100000,0,0,0.000000,0,3.000000,0.000000,5.224597,0,0,0,0,0,0,0
0,9999,58,0,58,0,49,9999,0.100000,0,0,0.000000,0,6.000000,0.000000,14.196762,0,0,0,0,0,0,0
0,9999,59,0,59,0,49,9999,0.100000,0,0,0.000000,0,7.000000,0.000000,14.304544,0,0,0,0,0,0,0
0,9999,60,0,60,0,49,9999,0.100000,0,0,0.000000,0,11.000000,0.000000,22.360337,0,0,0,0,0,0,0
0,9999,61,0,61,0,49,9999,0.100000,0,0,0.000000,0,2.000000,0.000000,12.038740,0,0,0,0,0,0,0
0,9999,62,0,62,0,49,9999,0.100000,0,0,0.000000,0,9.000000,0.000000,16.278614,0,0,0,0,0,0,0
0,9999,63,0,63,0,99,9999,0.100000,0,0,47.368421,0,9.000000,0.000000,30.626686,0,0,1,0,0,0,0
0,9999,64,0,64,0,49,9999,0.100000,0,0,0.000000,0,4.000000,0.000000,10.709627,0,0,0,0,0,0,0
0,9999,65,0,65,0,49,9999,0.100000,0,0,0.000000,0,5.000000,0.000000,6.385610,0,0,0,0,0,0,0
0,9999,66,0,66,0,49,9999,0.100000,0,0,0.000000,0,5.000000,0.000000,16.224918,0,0,0,0,0,0,0
0,9999,67,0,67,0,49,9999,0.100000,0,0,0.000000,0,4.000000,0.000000,5.102752,0,0,0,0,0,0,0
0,9999,68,0,68,0,49,9999,0.100000,0,0,0.000000,0,9.000000,0.000000,9.908636,0,0,0,0,0,0,0
0,9999,69,0,69,0,9,9999,0.100000,0,0,47.368421,0,10.000000,0.000000,20.890530,0,0,0,1,0,0,0
0,9999,70,0,70,0,49,9999,0.100000,0,0,0.000000,0,4.000000,0.000000,12.893456,0,0,0,0,0,0,0
0,9999,71,0,71,0,49,9999,0.100000,0,0,0.000000,0,9.000000,0.000000,13.982136,0,0,0,0,0,0,0
0,9999,72,0,72,0,49,9999,0.100000,0,0,0.000000,0,10.000000,0.000000,22.457710,0,0,0,0,0,0,0
0,9999,73,0,73,0,9,9999,0.100000,0,0,47.368421,0,10.000000,0.000000,17.109778,0,0,0,1,0,0,0
0,9999,74,0,74,0,49,9999,0.100000,0,0,0.000000,0,8.000000,0.000000,9.493005,0,0,0,0,0,0,0
0,9999,75,0,75,0,49,9999,0.100000,0,0,0.000000,0,11.000000,0.000000,16.617246,0,0,0,0,0,0,0
0,9999,76,0,76,0,49,9999,0.100000,0,0,0.000000,0,10.000000,0.000000,23.077315,0,0,0,0,0,0,0
0,9999,77,0,77,0,49,9999,0.100000,0,0,0.000000,0,8.000000,0.000000,14.727689,0,0,0,0,0,0,0
0,9999,78,0,78,0,49,9999,0.100000,0,0,0.000000,0,3.000000,0.000000,10.418504,0,0,0,0,0,0,0
0,9999,79,0,79,0,49,9999,0.100000,0,0,0.000000,0,9.000000,0.000000,22.913961,0,0,0,0,0,0,0
0,9999,80,0,80,0,99,9999,0.100000,0,0,47.368421,0,9.000000,0.000000,37.628305,0,0,1,0,0,0,0
0,9999,81,0,81,0,49,9999,0.100000,0,0,0.000000,0,8.000000,0.000000,18.952415,0,0,0,0,0,0,0
0,9999,82,0,82,0,49,9999,0.100000,0,0,0.000000,0,12.000000,0.000000,16.266147,0,0,0,0,0,0,0
0,9999,83,0,83,0,49,9999,0.100000,0,0,0.000000,0,9.000000,0.000000,23.980301,0,0,0,0,0,0,0
0,9999,84,0,84,0,49,9999,0.100000,0,0,0.000000,0,5.000000,0.000000,11.068631,0,0,0,0,0,0,0
0,9999,85,0,85,0,49,9999,0.100000,0,0,0.000000,0,5.000000,0.000000,8.331943,0,0,0,0,0,0,0
0,9999,86,0,86,0,49,9999,0.100000,0,0,0.000000,0,4.000000,0.000000,14.075133,0,0,0,0,0,0,0
0,9999,87,0,87,0,40,9999,0.100000,0,0,0.000000,0,0.000000,0.000000,6.464986,0,0,0,0,0,0,0
0,9999,88,0,88,0,49,9999,0.100000,0,0,0.000000,0,9.000000,0.000000,20.760597,0,0,0,0,0,0,0
0,9999,89,0,89,0,49,9999,0.100000,0,0,0.000000,0,9.000000,0.000000,11.560604,0,0,0,0,0,0,0
0,9999,90,0,90,0,49,9999,0.100000,0,0,0.000000,0,4.000000,0.000000,5.093703,0,0,0,0,0,0,0
0,9999,91,0,91,0,49,9999,0.100000,0,0,0.000000,0,8.000000,0.000000,11.281304,0,0,0,0,0,0,0
0,9999,92,0,92,0,49,9999,0.100000,0,0,0.000000,0,3.000000,0.000000,16.478254,0,0,0,0,0,0,0
0,9999,93,0,93,0,49,9999,0.100000,0,0,0.000000,0,10.000000,0.000000,17.767602,0,0,0,0,0,0,0
0,9999,94,0,94,0,49,9999,0.100000,0,0,0.000000,0,2.000000,0.000000,4.155149,0,0,0,0,0,0,0
0,9999,95,0,95,0,49,9999,0.100000,0,0,0.000000,0,9.000000,0.000000,21.426010,0,0,0,0,0,0,0
0,9999,96,0,96,0,49,9999,0.100000,0,0,0.000000,0,6.000000,0.000000,26.617813,0,0,0,0,0,0,0
0,9999,97,0,97,0,49,9999,0.100000,0,0,0.000000,0,9.000000,0.000000,28.594543,0,0,0,0,0,0,0
0,9999,98,0,98,0,49,9999,0.100000,0,0,0.000000,0,10.000000,0.000000,11.974897,0,0,0,0,0,0,0
0,9999,99,0,99,0,49,9999,0.100000,0,0,0.000000,0,1.000000,0.000000,6.514813,0,0,0,0,0,0,0
1,19999,0,10000,0,0,99,9999,0.100000,0,0,34.210526,1,6.000000,0.000000,18.025415,0,0,1,0,0,0,0
1,19999,1,10000,0,0,49,9999,0.100000,0,0,0.000000,3,1.000000,0.000000,8.487593,0,0,0,0,0,0,0
1,19999,2,10000,82,0,40,9999,0.100000,0,0,0.000000,3,0.000000,0.000000,0.625336,0,0,0,0,0,0,0
1,19999,3,10000,69,0,49,9999,0.100000,0,0,0.000000,3,2.000000,0.000000,10.792015,0,0,0,0,0,0,0
1,19999,4,10000,4,0,40,9999,0.100000,0,0,0.000000,2,0.000000,0.000000,12.522776,0,0,0,0,0,0,0
1,19999,5,10000,87,0,99,9999,0.100000,0,0,34.210526,4,1.000000,0.000000,8.325020,0,0,1,0,0,0,0
1,19999,6,10000,0,0,49,9999,0.100000,0,0,0.000000,3,1.000000,0.000000,8.986317,0,0,0,0,0,0,0
1,19999,7,10000,69,0,40,9999,0.100000,0,0,0.000000,3,0.000000,0.000000,0.375273,0,0,0,0,0,0,0
1,19999,8,10000,40,0,49,9999,0.100000,0,0,0.000000,3,4.000000,0.000000,15.752422,0,0,0,0,0,0,0
1,19999,9,10000,82,0,40,9999,0.100000,0,0,0.000000,4,0.000000,0.000000,1.249618,0,0,0,0,0,0,0
1,19999,10,10000,1,0,40,9999,0.100000,0,0,0.000000,3,0.000000,0.000000,1.884086,0,0,0,0,0,0,0
1,19999,11,10000,68,0,49,9999,0.100000,0,0,0.000000,3,1.000000,0.000000,1.794350,0,0,0,0,0,0,0
1,19999,12,10000,24,0,40,9999,0.100000,0,0,0.000000,3,0.000000,0.000000,1.680577,0,0,0,0,0,0,0
1,19999,13,10000,0,0,49,9999,0.100000,0,0,0.000000,3,2.000000,0.000000,5.091913,0,0,0,0,0,0,0
1,19999,14,10000,0,0,40,9999,0.100000,0,0,0.000000,2,0.000000,0.000000,6.332267,0,0,0,0,0,0,0
1,19999,15,10000,0,0,49,9999,0.100000,0,0,0.000000,3,4.000000,0.000000,10.701700,0,0,0,0,0,0,0
1,19999,16,10000,1,0,40,9999,0.100000,0,0,0.000000,3,0.000000,0.000000,0.904163,0,0,0,0,0,0,0
1,19999,17,10000,0,0,49,9999,0.100000,0,0,0.000000,3,2.000000,0.000000,7.757414,0,0,0,0,0,0,0
1,19999,18,10000,0,0,49,9999,0.100000,0,0,0.000000,2,3.000000,0.000000,8.475213,0,0,0,0,0,0,0
1,19999,19,10000,82,0,49,9999,0.100000,0,0,0.000000,3,1.000000,0.000000,3.116476,0,0,0,0,0,0,0
1,19999,20,10000,1,0,49,9999,0.100000,0,0,0.000000,3,2.000000,0.000000,8.816589,0,0,0,0,0,0,0
1,19999,21,10000,0,0,49,9999,0.100000,0,0,0.000000,3,2.000000,0.000000,2.376711,0,0,0,0,0,0,0
1,19999,22,10000,1,0,49,9999,0.100000,0,0,0.000000,3,2.000000,0.000000,7.939411,0,0,0,0,0,0,0
1,19999,23,10000,1,0,40,9999,0.100000,0,0,0.000000,3,0.000000,0.000000,0.086498,0,0,0,0,0,0,0
1,19999,24,10000,0,0,40,9999,0.100000,0,0,0.000000,3,0.000000,0.000000,0.119441,0,0,0,0,0,0,0
1,19999,25,10000,4,0,40,9999,0.100000,0,0,0.000000,2,0.000000,0.000000,14.519714,0,0,0,0,0,0,0
1,19999,26,0,26,0,99,19999,0.100000,0,0,34.210526,3,5.000000,0.000000,14.645976,0,0,1,0,0,0,0
1,19999,27,10000,0,0,49,9999,0.100000,0,0,0.000000,4,3.000000,0.000000,14.811703,0,0,0,0,0,0,0
1,19999,28,10000,68,0,49,9999,0.100000,0,0,0.000000,3,3.000000,0.000000,13.869422,0,0,0,0,0,0,0
1,19999,29,10000,1,0,40,9999,0.100000,0,0,0.000000,3,0.000000,0.000000,1.561864,0,0,0,0,0,0,0
1,19999,30,10000,0,0,40,9999,0.100000,0,0,0.000000,3,0.000000,0.000000,0.067077,0,0,0,0,0,0,0
1,19999,31,0,31,0,40,19999,0.100000,0,0,0.000000,3,0.000000,0.000000,1.895479,0,0,0,0,0,0,0
1,19999,32,10000,1,0,49,9999,0.100000,0,0,0.000000,3,2.000000,0.000000,7.585445,0,0,0,0,0,0,0
1,19999,33,10000,68,0,40,9999,0.100000,0,0,0.000000,3,0.000000,0.000000,0.897140,0,0,0,0,0,0,0
1,19999,34,10000,0,0,49,9999,0.100000,0,0,0.000000,3,7.000000,0.000000,12.779820,0,0,0,0,0,0,0
1,19999,35,10000,0,0,49,9999,0.100000,0,0,0.000000,3,2.000000,0.000000,16.785372,0,0,0,0,0,0,0
1,19999,36,10000,1,0,40,9999,0.100000,0,0,0.000000,3,0.000000,0.000000,3.557024,0,0,0,0,0,0,0
1,19999,37,10000,0,0,49,9999,0.100000,0,0,0.000000,3,2.000000,0.000000,10.023671,0,0,0,0,0,0,0
1,19999,38,10000,24,0,40,9999,0.100000,0,0,0.000000,3,0.000000,0.000000,0.180441,0,0,0,0,0,0,0
1,19999,39,10000,82,0,40,9999,0.100000,0,0,0.000000,4,0.000000,0.000000,3.781730,0,0,0,0,0,0,0
1,19999,40,10000,0,0,40,9999,0.100000,0,0,0.000000,3,0.000000,0.000000,0.092749,0,0,0,0,0,0,0
1,19999,41,10000,69,0,49,9999,0.100000,0,0,0.000000,3,4.000000,0.000000,7.789471,0,0,0,0,0,0,0
1,19999,42,10000,1,0,40,9999,0.100000,0,0,0.000000,3,0.000000,0.000000,4.787457,0,0,0,0,0,0,0
1,19999,43,10000,0,0,49,9999,0.100000,0,0,0.000000,3,1.000000,0.000000,5.529931,0,0,0,0,0,0,0
1,19999,44,10000,68,0,99,9999,0.100000,0,0,34.210526,3,6.000000,0.000000,14.763084,0,0,1,0,0,0,0
1,19999,45,10000,68,0,49,9999,0.100000,0,0,0.000000,3,2.000000,0.000000,12.090039,0,0,0,0,0,0,0
1,19999,46,10000,68,0,40,9999,0.100000,0,0,0.000000,3,0.000000,0.000000,1.151749,0,0,0,0,0,0,0
1,19999,47,10000,1,0,49,9999,0.100000,0,0,0.000000,3,3.000000,0.000000,5.569445,0,0,0,0,0,0,0
1,19999,48,10000,87,0,49,9999,0.100000,0,0,0.000000,4,3.000000,0.000000,17.384529,0,0,0,0,0,0,0
1,19999,49,10000,40,0,49,9999,0.100000,0,0,0.000000,3,4.000000,0.000000,13.121099,0,0,0,0,0,0,0
1,19999,50,10000,24,0,40,9999,0.100000,0,0,0.000000,3,0.000000,0.000000,1.583429,0,0,0,0,0,0,0
1,19999,51,10000,1,0,49,9999,0.100000,0,0,0.000000,3,4.000000,0.000000,9.662194,0,0,0,0,0,0,0
1,19999,52,10000,1,0,40,9999,0.100000,0,0,0.000000,3,0.000000,0.000000,7.181601,0,0,0,0,0,0,0
1,19999,53,10000,1,0,40,9999,0.100000,0,0,0.000000,3,0.000000,0.000000,4.053561,0,0,0,0,0,0,0
1,19999,54,10000,0,0,49,9999,0.100000,0,0,0.000000,3,2.000000,0.000000,13.464139,0,0,0,0,0,0,0
1,19999,55,10000,0,0,40,9999,0.100000,0,0,0.000000,3,0.000000,0.000000,0.156373,0,0,0,0,0,0,0
1,19999,56,10000,4,0,40,9999,0.100000,0,0,0.000000,3,0.000000,0.000000,23.957961,0,0,0,0,0,0,0
1,19999,57,10000,24,0,40,9999,0.100000,0,0,0.000000,3,0.000000,0.000000,0.720949,0,0,0,0,0,0,0
1,19999,58,10000,1,0,40,9999,0.100000,0,0,0.000000,4,0.000000,0.000000,2.700349,0,0,0,0,0,0,0
1,19999,59,10000,0,0,40,9999,0.100000,0,0,0.000000,3,0.000000,0.000000,1.027737,0,0,0,0,0,0,0
1,19999,60,10000,87,0,49,9999,0.100000,0,0,0.000000,4,1.000000,0.000000,18.787007,0,0,0,0,0,0,0
1,19999,61,0,61,0,40,19999,0.100000,0,0,0.000000,3,0.000000,0.000000,1.314646,0,0,0,0,0,0,0
1,19999,62,10000,1,0,40,9999,0.100000,0,0,0.000000,4,0.000000,0.000000,5.052328,0,0,0,0,0,0,0
1,19999,63,10000,0,0,49,9999,0.100000,0,0,0.000000,3,3.000000,0.000000,4.071120,0,0,0,0,0,0,0
1,19999,64,10000,0,0,40,9999,0.100000,0,0,0.000000,3,0.000000,0.000000,0.086593,0,0,0,0,0,0,0
1,19999,65,10000,0,0,40,9999,0.100000,0,0,0.000000,3,0.000000,0.000000,0.084326,0,0,0,0,0,0,0
1,19999,66,10000,1,0,49,9999,0.100000,0,0,0.000000,3,1.000000,0.000000,4.218675,0,0,0,0,0,0,0
1,19999,67,10000,0,0,40,9999,0.100000,0,0,0.000000,3,0.000000,0.000000,1.125888,0,0,0,0,0,0,0
1,19999,68,10000,0,0,40,9999,0.100000,0,0,0.000000,3,0.000000,0.000000,0.095488,0,0,0,0,0,0,0
1,19999,69,10000,1,0,40,9999,0.100000,0,0,0.000000,3,0.000000,0.000000,4.054873,0,0,0,0,0,0,0
1,19999,70,10000,0,0,49,9999,0.100000,0,0,0.000000,3,1.000000,0.000000,12.379658,0,0,0,0,0,0,0
1,19999,71,10000,0,0,49,9999,0.100000,0,0,0.000000,3,2.000000,0.000000,7.335326,0,0,0,0,0,0,0
1,19999,72,10000,0,0,49,9999,0.100000,0,0,0.000000,3,2.000000,0.000000,7.649147,0,0,0,0,0,0,0
1,19999,73,10000,87,0,49,9999,0.100000,0,0,0.000000,4,3.000000,0.000000,11.002889,0,0,0,0,0,0,0
1,19999,74,10000,0,0,49,9999,0.100000,0,0,0.000000,3,1.000000,0.000000,1.985823,0,0,0,0,0,0,0
1,19999,75,10000,82,0,49,9999,0.100000,0,0,0.000000,3,1.000000,0.000000,18.130307,0,0,0,0,0,0,0
1,19999,76,10000,68,0,99,9999,0.100000,0,0,67.593970,3,5.000000,0.000000,21.533931,0,0,1,0,0,0,0
1,19999,77,10000,0,0,99,9999,0.100000,0,0,68.421053,3,7.000000,0.000000,20.260561,0,0,2,0,0,0,0
1,19999,78,10000,0,0,49,9999,0.100000,0,0,0.000000,3,2.000000,0.000000,11.992848,0,0,0,0,0,0,0
1,19999,79,10000,1,0,49,9999,0.100000,0,0,0.000000,3,3.000000,0.000000,19.668276,0,0,0,0,0,0,0
1,19999,80,10000,0,0,49,9999,0.100000,0,0,0.000000,3,3.000000,0.000000,11.602448,0,0,0,0,0,0,0
1,19999,81,10000,0,0,49,9999,0.100000,0,0,0.000000,3,2.000000,0.000000,13.156086,0,0,0,0,0,0,0
1,19999,82,10000,82,0,40,9999,0.100000,0,0,0.000000,3,0.000000,0.000000,0.199955,0,0,0,0,0,0,0
1,19999,83,10000,24,0,40,9999,0.100000,0,0,0.000000,3,0.000000,0.000000,0.169980,0,0,0,0,0,0,0
1,19999,84,10000,69,0,40,9999,0.100000,0,0,0.000000,3,0.000000,0.000000,0.813308,0,0,0,0,0,0,0
1,19999,85,10000,0,0,40,9999,0.100000,0,0,0.000000,3,0.000000,0.000000,0.801360,0,0,0,0,0,0,0
1,19999,86,10000,0,0,49,9999,0.100000,0,0,0.000000,3,4.000000,0.000000,17.152882,0,0,0,0,0,0,0
1,19999,87,10000,87,0,49,9999,0.100000,0,0,0.000000,4,1.000000,0.000000,3.983948,0,0,0,0,0,0,0
1,19999,88,10000,0,0,49,9999,0.100000,0,0,0.000000,3,3.000000,0.000000,10.501552,0,0,0,0,0,0,0
1,19999,89,10000,87,0,49,9999,0.100000,0,0,0.000000,4,2.000000,0.000000,5.022260,0,0,0,0,0,0,0
1,19999,90,10000,0,0,40,9999,0.100000,0,0,0.000000,3,0.000000,0.000000,0.780304,0,0,0,0,0,0,0
1,19999,91,10000,1,0,49,9999,0.100000,0,0,0.000000,3,1.000000,0.000000,2.441417,0,0,0,0,0,0,0
1,19999,92,10000,69,0,40,9999,0.100000,0,0,0.000000,3,0.000000,0.000000,15.639067,0,0,0,0,0,0,0
1,19999,93,10000,82,0,49,9999,0.100000,0,0,0.000000,3,1.000000,0.000000,8.040654,0,0,0,0,0,0,0
1,19999,94,10000,0,0,40,9999,0.100000,0,0,0.000000,3,0.000000,0.000000,0.646058,0,0,0,0,0,0,0
1,19999,95,10000,4,0,40,9999,0.100000,0,0,0.000000,3,0.000000,0.000000,12.951193,0,0,0,0,0,0,0
1,19999,96,10000,1,0,40,9999,0.100000,0,0,0.000000,3,0.000000,0.000000,4.742768,0,0,0,0,0,0,0
1,19999,97,10000,82,0,49,9999,0.100000,0,0,0.000000,3,4.000000,0.000000,12.947640,0,0,0,0,0,0,0
1,19999,98,10000,24,0,40,9999,0.100000,0,0,0.000000,3,0.000000,0.000000,0.095221,0,0,0,0,0,0,0
1,19999,99,10000,82,0,49,9999,0.100000,0,0,0.000000,3,2.000000,0.000000,5.813050,0,0,0,0,0,0,0
2,29999,0,20000,0,0,49,9999,0.100000,0,0,0.000000,4,1.000000,0.000000,15.736175,0,0,0,0,0,0,0
2,29999,1,20000,87,0,49,9999,0.100000,0,0,0.000000,5,4.000000,0.000000,19.945289,0,0,0,0,0,0,0
2,29999,2,20000,83,10000,40,9999,0.100000,0,0,0.000000,5,0.000000,0.000000,0.642271,0,0,0,0,0,0,0
2,29999,3,20000,1,0,49,9999,0.100000,0,0,0.000000,5,1.000000,0.000000,5.732711,0,0,0,0,0,0,0
2,29999,4,20000,1,0,40,9999,0.100000,0,0,0.000000,5,0.000000,0.000000,1.442649,0,0,0,0,0,0,0
2,29999,5,20000,83,10000,40,9999,0.100000,0,0,0.000000,5,0.000000,0.000000,5.077663,0,0,0,0,0,0,0
2,29999,6,20000,21,10000,49,9999,0.100000,0,0,0.000000,5,3.000000,0.000000,9.331349,0,0,0,0,0,0,0
2,29999,7,20000,21,10000,40,9999,0.100000,0,0,0.000000,5,0.000000,0.000000,0.195752,0,0,0,0,0,0,0
2,29999,8,20000,83,10000,49,9999,0.100000,0,0,0.000000,5,1.000000,0.000000,6.071110,0,0,0,0,0,0,0
2,29999,9,20000,1,0,40,9999,0.100000,0,0,0.000000,5,0.000000,0.000000,2.098149,0,0,0,0,0,0,0
2,29999,10,20000,77,10000,40,9999,0.100000,0,0,0.000000,5,0.000000,0.000000,8.671115,0,0,0,0,0,0,0
2,29999,11,20000,82,0,40,9999,0.100000,0,0,0.000000,5,0.000000,0.000000,0.360330,0,0,0,0,0,0,0
2,29999,12,20000,77,10000,40,9999,0.100000,0,0,0.000000,5,0.000000,0.000000,1.262020,0,0,0,0,0,0,0
2,29999,13,20000,82,0,40,9999,0.100000,0,0,0.000000,5,0.000000,0.000000,0.145410,0,0,0,0,0,0,0
2,29999,14,20000,77,10000,40,9999,0.100000,0,0,0.000000,5,0.000000,0.000000,0.654115,0,0,0,0,0,0,0
2,29999,15,20000,83,10000,40,9999,0.100000,0,0,0.000000,5,0.000000,0.000000,1.423802,0,0,0,0,0,0,0
2,29999,16,20000,87,0,40,9999,0.100000,0,0,0.000000,5,0.000000,0.000000,0.767578,0,0,0,0,0,0,0
2,29999,17,20000,87,0,49,9999,0.100000,0,0,0.000000,5,1.000000,0.000000,7.475792,0,0,0,0,0,0,0
2,29999,18,20000,83,10000,49,9999,0.100000,0,0,0.000000,5,2.000000,0.000000,15.886698,0,0,0,0,0,0,0
2,29999,19,20000,21,10000,49,9999,0.100000,0,0,0.000000,5,3.000000,0.000000,5.921043,0,0,0,0,0,0,0
2,29999,20,20000,87,0,49,9999,0.100000,0,0,0.000000,5,11.000000,0.000000,12.050848,0,0,0,0,0,0,0
2,29999,21,20000,87,0,49,9999,0.100000,0,0,0.000000,5,6.000000,0.000000,6.878840,0,0,0,0,0,0,0
2,29999,22,20000,77,10000,49,9999,0.100000,0,0,0.000000,5,6.000000,0.000000,10.169343,0,0,0,0,0,0,0
2,29999,23,20000,77,10000,40,9999,0.100000,0,0,0.000000,5,0.000000,0.000000,0.084753,0,0,0,0,0,0,0
2,29999,24,20000,82,0,40,9999,0.100000,0,0,0.000000,5,0.000000,0.000000,0.104397,0,0,0,0,0,0,0
2,29999,25,20000,83,10000,40,9999,0.100000,0,0,0.000000,5,0.000000,0.000000,3.051055,0,0,0,0,0,0,0
2,29999,26,20000,1,0,49,9999,0.100000,0,0,0.000000,4,2.000000,0.000000,6.444418,0,0,0,0,0,0,0
2,29999,27,20000,21,10000,49,9999,0.100000,0,0,0.000000,5,4.000000,0.000000,10.880798,0,0,0,0,0,0,0
2,29999,28,20000,77,10000,49,9999,0.100000,0,0,0.000000,5,1.000000,0.000000,3.512652,0,0,0,0,0,0,0
2,29999,29,20000,83,10000,49,9999,0.100000,0,0,0.000000,5,3.000000,0.000000,5.153202,0,0,0,0,0,0,0
2,29999,30,20000,82,0,40,9999,0.100000,0,0,0.000000,5,0.000000,0.000000,0.472509,0,0,0,0,0,0,0
2,29999,31,20000,21,10000,49,9999,0.100000,0,0,0.000000,5,4.000000,0.000000,10.138164,0,0,0,0,0,0,0
2,29999,32,20000,83,10000,49,9999,0.100000,0,0,0.000000,5,1.000000,0.000000,6.104837,0,0,0,0,0,0,0
2,29999,33,20000,77,10000,40,9999,0.100000,0,0,0.000000,5,0.000000,0.000000,0.755715,0,0,0,0,0,0,0
2,29999,34,20000,83,10000,49,9999,0.100000,0,0,0.000000,5,5.000000,0.000000,14.686323,0,0,0,0,0,0,0
2,29999,35,20000,83,10000,40,9999,0.100000,0,0,0.000000,5,0.000000,0.000000,7.032254,0,0,0,0,0,0,0
2,29999,36,20000,1,0,40,9999,0.135000,0,0,0.000000,5,0.000000,0.000000,3.862664,0,0,0,0,0,0,0
2,29999,37,20000,87,0,49,9999,0.100000,0,0,0.000000,5,1.000000,0.000000,10.060525,0,0,0,0,0,0,0
2,29999,38,20000,77,10000,40,9999,0.100000,0,0,0.000000,5,0.000000,0.000000,0.604689,0,0,0,0,0,0,0
2,29999,39,20000,83,10000,49,9999,0.100000,0,0,0.000000,5,1.000000,0.000000,7.196776,0,0,0,0,0,0,0
2,29999,40,20000,1,0,40,9999,0.100000,0,0,0.000000,5,0.000000,0.000000,0.115756,0,0,0,0,0,0,0
2,29999,41,20000,77,10000,49,9999,0.100000,0,0,0.000000,5,6.000000,0.000000,6.732869,0,0,0,0,0,0,0
2,29999,42,20000,82,10000,40,9999,0.100000,0,0,0.000000,5,0.000000,0.000000,5.585762,0,0,0,0,0,0,0
2,29999,43,20000,82,10000,49,9999,0.100000,0,0,0.000000,5,1.000000,0.000000,7.442169,0,0,0,0,0,0,0
2,29999,44,20000,1,0,40,9999,0.100000,0,0,0.000000,5,0.000000,0.000000,3.248612,0,0,0,0,0,0,0
2,29999,45,20000,77,10000,99,9999,0.100000,0,0,34.210526,5,5.000000,0.000000,14.289226,0,0,1,0,0,0,0
2,29999,46,20000,87,0,49,9999,0.100000,0,0,0.000000,4,6.000000,0.000000,6.523064,0,0,0,0,0,0,0
2,29999,47,20000,77,10000,40,9999,0.100000,0,0,0.000000,5,0.000000,0.000000,2.952161,0,0,0,0,0,0,0
2,29999,48,20000,1,0,49,9999,0.100000,0,0,0.000000,5,2.000000,0.000000,6.486656,0,0,0,0,0,0,0
2,29999,49,20000,82,0,40,9999,0.100000,0,0,0.000000,5,0.000000,0.000000,0.975308,0,0,0,0,0,0,0
2,29999,50,20000,87,0,49,9999,0.100000,0,0,0.000000,4,5.000000,0.000000,9.694679,0,0,0,0,0,0,0
2,29999,51,20000,87,0,49,9999,0.100000,0,0,0.000000,5,4.000000,0.000000,13.898416,0,0,0,0,0,0,0
2,29999,52,20000,21,10000,49,9999,0.100000,0,0,0.000000,5,2.000000,0.000000,7.613497,0,0,0,0,0,0,0
2,29999,53,20000,83,10000,49,9999,0.100000,0,0,0.000000,5,1.000000,0.000000,2.240048,0,0,0,0,0,0,0
2,29999,54,20000,77,10000,49,9999,0.100000,0,0,0.000000,5,1.000000,0.000000,11.144395,0,0,0,0,0,0,0
2,29999,55,20000,82,10000,40,9999,0.100000,0,0,0.000000,5,0.000000,0.000000,0.293418,0,0,0,0,0,0,0
2,29999,56,20000,83,10000,40,9999,0.100000,0,0,0.000000,5,0.000000,0.000000,10.347350,0,0,0,0,0,0,0
2,29999,57,20000,1,0,40,9999,0.100000,0,0,0.000000,5,0.000000,0.000000,0.603368,0,0,0,0,0,0,0
2,29999,58,20000,21,10000,49,9999,0.100000,0,0,0.000000,5,1.000000,0.000000,16.828738,0,0,0,0,0,0,0
2,29999,59,20000,77,10000,40,9999,0.100000,0,0,0.000000,5,0.000000,0.000000,0.782870,0,0,0,0,0,0,0
2,29999,60,20000,1,0,49,9999,0.100000,0,0,0.000000,5,1.000000,0.000000,14.051196,0,0,0,0,0,0,0
2,29999,61,20000,1,0,40,9999,0.100000,0,0,0.000000,5,0.000000,0.000000,14.774002,0,0,0,0,0,0,0
2,29999,62,20000,21,10000,49,9999,0.100000,0,0,0.000000,5,1.000000,0.000000,10.813877,0,0,0,0,0,0,0
2,29999,63,20000,82,0,40,9999,0.100000,0,0,0.000000,5,0.000000,0.000000,5.060814,0,0,0,0,0,0,0
2,29999,64,20000,77,10000,40,9999,0.100000,0,0,0.000000,5,0.000000,0.000000,0.109203,0,0,0,0,0,0,0
2,29999,65,20000,87,0,40,9999,0.100000,0,0,0.000000,5,0.000000,0.000000,0.083917,0,0,0,0,0,0,0
2,29999,66,20000,83,10000,49,9999,0.100000,0,0,0.000000,5,1.000000,0.000000,6.770347,0,0,0,0,0,0,0
2,29999,67,20000,82,0,40,9999,0.100000,0,0,0.000000,5,0.000000,0.000000,0.109845,0,0,0,0,0,0,0
2,29999,68,20000,87,0,40,9999,0.100000,0,0,0.000000,5,0.000000,0.000000,0.594221,0,0,0,0,0,0,0
2,29999,69,20000,87,0,49,9999,0.100000,0,0,0.000000,5,3.000000,0.000000,8.519635,0,0,0,0,0,0,0
2,29999,70,20000,1,0,49,9999,0.100000,0,0,0.000000,5,1.000000,0.000000,7.463152,0,0,0,0,0,0,0
2,29999,71,20000,87,0,40,9999,0.100000,0,0,0.000000,5,0.000000,0.000000,4.679408,0,0,0,0,0,0,0
2,29999,72,20000,21,10000,40,9999,0.100000,0,0,0.000000,5,0.000000,0.000000,6.867347,0,0,0,0,0,0,0
2,29999,73,20000,83,10000,49,9999,0.100000,0,0,0.000000,5,3.000000,0.000000,7.337671,0,0,0,0,0,0,0
2,29999,74,20000,87,0,49,9999,0.100000,0,0,0.000000,5,1.000000,0.000000,1.393931,0,0,0,0,0,0,0
2,29999,75,20000,1,0,40,9999,0.100000,0,0,0.000000,5,0.000000,0.000000,1.903539,0,0,0,0,0,0,0
2,29999,76,20000,83,10000,49,9999,0.100000,0,0,0.000000,5,2.000000,0.000000,7.338539,0,0,0,0,0,0,0
2,29999,77,20000,57,10000,49,9999,0.100000,0,0,0.000000,5,2.000000,0.000000,3.341584,0,0,0,0,0,0,0
2,29999,78,20000,87,0,40,9999,0.100000,0,0,0.000000,5,0.000000,0.000000,11.130496,0,0,0,0,0,0,0
2,29999,79,20000,21,10000,49,9999,0.100000,0,0,0.000000,5,1.000000,0.000000,7.415188,0,0,0,0,0,0,0
2,29999,80,20000,1,0,40,9999,0.100000,0,0,0.000000,5,0.000000,0.000000,6.553102,0,0,0,0,0,0,0
2,29999,81,20000,1,0,40,9999,0.100000,0,0,0.000000,5,0.000000,0.000000,2.311442,0,0,0,0,0,0,0
2,29999,82,20000,87,0,40,9999,0.100000,0,0,0.000000,5,0.000000,0.000000,0.202473,0,0,0,0,0,0,0
2,29999,83,20000,82,0,40,9999,0.100000,0,0,0.000000,5,0.000000,0.000000,0.164075,0,0,0,0,0,0,0
2,29999,84,20000,77,10000,40,9999,0.100000,0,0,0.000000,5,0.000000,0.000000,0.827463,0,0,0,0,0,0,0
2,29999,85,20000,21,10000,49,9999,0.100000,0,0,0.000000,5,5.000000,0.000000,6.017575,0,0,0,0,0,0,0
2,29999,86,20000,1,0,99,9999,0.100000,0,0,38.411681,4,6.000000,0.000000,12.076148,0,0,1,0,0,0,0
2,29999,87,20000,82,0,40,9999,0.100000,0,0,0.000000,5,0.000000,0.000000,0.549796,0,0,0,0,0,0,0
2,29999,88,20000,87,0,49,9999,0.100000,0,0,0.000000,5,2.000000,0.000000,14.084055,0,0,0,0,0,0,0
2,29999,89,20000,77,10000,49,9999,0.100000,0,0,0.000000,5,6.000000,0.000000,6.612875,0,0,0,0,0,0,0
2,29999,90,20000,21,10000,40,9999,0.100000,0,0,0.000000,5,0.000000,0.000000,0.750553,0,0,0,0,0,0,0
2,29999,91,20000,82,10000,49,9999,0.100000,0,0,0.000000,5,1.000000,0.000000,1.999896,0,0,0,0,0,0,0
2,29999,92,20000,82,0,40,9999,0.100000,0,0,0.000000,5,0.000000,0.000000,1.401055,0,0,0,0,0,0,0
2,29999,93,20000,21,10000,49,9999,0.100000,0,0,0.000000,5,2.000000,0.000000,23.763644,0,0,0,0,0,0,0
2,29999,94,20000,87,0,40,9999,0.100000,0,0,0.000000,5,0.000000,0.000000,2.169747,0,0,0,0,0,0,0
2,29999,95,20000,57,10000,49,9999,0.100000,0,0,0.000000,5,1.000000,0.000000,3.902758,0,0,0,0,0,0,0
2,29999,96,20000,21,10000,40,9999,0.100000,0,0,0.000000,5,0.000000,0.000000,0.734011,0,0,0,0,0,0,0
2,29999,97,20000,87,0,49,9999,0.100000,0,0,0.000000,5,1.000000,0.000000,12.942483,0,0,0,0,0,0,0
2,29999,98,20000,87,0,40,9999,0.100000,0,0,0.000000,5,0.000000,0.000000,0.257930,0,0,0,0,0,0,0
2,29999,99,20000,77,10000,49,9999,0.100000,0,0,0.000000,5,1.000000,0.000000,8.944596,0,0,0,0,0,0,0
3,39999,0,30000,87,0,49,9999,0.100000,0,0,0.000000,5,10.000000,0.000000,13.114741,0,0,0,0,0,0,0
3,39999,1,30000,21,10000,40,9999,0.100000,0,0,0.000000,5,0.000000,0.000000,2.182441,0,0,0,0,0,0,0
3,39999,2,30000,77,10000,40,9999,0.100000,0,0,0.000000,5,0.000000,0.000000,0.690985,0,0,0,0,0,0,0
3,39999,3,30000,82,10000,40,9999,0.100000,0,0,0.000000,5,0.000000,0.000000,4.253138,0,0,0,0,0,0,0
3,39999,4,30000,77,10000,40,9999,0.100000,0,0,0.000000,5,0.000000,0.000000,0.631044,0,0,0,0,0,0,0
3,39999,5,30000,87,0,49,9999,0.100000,0,0,0.000000,5,1.000000,0.000000,7.126506,0,0,0,0,0,0,0
3,39999,6,30000,21,10000,49,9999,0.100000,0,0,0.000000,5,2.000000,0.000000,7.606524,0,0,0,0,0,0,0
3,39999,7,30000,87,0,40,9999,0.100000,0,0,0.000000,5,0.000000,0.000000,0.126745,0,0,0,0,0,0,0
3,39999,8,30000,82,10000,49,9999,0.100000,0,0,0.000000,5,1.000000,0.000000,11.807336,0,0,0,0,0,0,0
3,39999,9,30000,87,0,49,9999,0.100000,0,0,0.000000,5,1.000000,0.000000,2.847650,0,0,0,0,0,0,0
3,39999,10,30000,1,0,40,9999,0.100000,0,0,0.000000,5,0.000000,0.000000,1.187180,0,0,0,0,0,0,0
3,39999,11,30000,87,0,40,9999,0.100000,0,0,0.000000,5,0.000000,0.000000,0.493886,0,0,0,0,0,0,0
3,39999,12,30000,82,10000,40,9999,0.100000,0,0,0.000000,5,0.000000,0.000000,7.247870,0,0,0,0,0,0,0
3,39999,13,30000,82,10000,40,9999,0.100000,0,0,0.000000,5,0.000000,0.000000,0.146463,0,0,0,0,0,0,0
3,39999,14,30000,21,10000,40,9999,0.100000,0,0,0.000000,5,0.000000,0.000000,0.510418,0,0,0,0,0,0,0
3,39999,15,30000,21,10000,40,9999,0.100000,0,0,0.000000,5,0.000000,0.000000,0.853816,0,0,0,0,0,0,0
3,39999,16,30000,82,10000,40,9999,0.100000,0,0,0.000000,5,0.000000,0.000000,0.724806,0,0,0,0,0,0,0
3,39999,17,30000,77,10000,49,9999,0.100000,0,0,0.000000,5,1.000000,0.000000,7.294145,0,0,0,0,0,0,0
3,39999,18,30000,1,0,49,9999,0.100000,0,0,0.000000,5,1.000000,0.000000,5.989340,0,0,0,0,0,0,0
3,39999,19,30000,21,10000,40,9999,0.100000,0,0,0.000000,5,0.000000,0.000000,0.492497,0,0,0,0,0,0,0
3,39999,20,30000,82,10000,40,9999,0.100000,0,0,0.000000,5,0.000000,0.000000,0.844903,0,0,0,0,0,0,0
3,39999,21,30000,87,0,40,9999,0.100000,0,0,0.000000,5,0.000000,0.000000,4.214069,0,0,0,0,0,0,0
3,39999,22,30000,77,10000,49,9999,0.100000,0,0,0.000000,5,1.000000,0.000000,1.986220,0,0,0,0,0,0,0
3,39999,23,30000,82,10000,40,9999,0.100000,0,0,0.000000,5,0.000000,0.000000,3.348091,0,0,0,0,0,0,0
3,39999,24,30000,77,10000,40,9999,0.100000,0,0,0.000000,5,0.000000,0.000000,0.102636,0,0,0,0,0,0,0
3,39999,25,30000,21,10000,49,9999,0.100000,0,0,0.000000,5,2.000000,0.000000,11.694660,0,0,0,0,0,0,0
3,39999,26,30000,82,10000,49,9999,0.100000,0,0,0.000000,5,3.000000,0.000000,10.123491,0,0,0,0,0,0,0
3,39999,27,30000,21,10000,49,9999,0.100000,0,0,0.000000,5,3.000000,0.000000,8.517106,0,0,0,0,0,0,0
3,39999,28,30000,87,0,40,9999,0.100000,0,0,0.000000,5,0.000000,0.000000,1.020940,0,0,0,0,0,0,0
3,39999,29,30000,77,10000,49,9999,0.100000,0,0,0.000000,5,1.000000,0.000000,3.809110,0,0,0,0,0,0,0
3,39999,30,30000,77,10000,40,9999,0.100000,0,0,0.000000,5,0.000000,0.000000,0.801223,0,0,0,0,0,0,0
3,39999,31,30000,87,0,49,9999,0.100000,0,0,0.000000,5,3.000000,0.000000,12.329315,0,0,0,0,0,0,0
3,39999,32,30000,21,10000,49,9999,0.100000,0,0,0.000000,5,5.000000,0.000000,16.607561,0,0,0,0,0,0,0
3,39999,33,30000,1,0,40,9999,0.100000,0,0,0.000000,5,0.000000,0.000000,0.702524,0,0,0,0,0,0,0
3,39999,34,30000,1,0,49,9999,0.100000,0,0,0.000000,5,4.000000,0.000000,10.011415,0,0,0,0,0,0,0
3,39999,35,30000,87,0,40,9999,0.100000,0,0,0.000000,5,0.000000,0.000000,1.138539,0,0,0,0,0,0,0
3,39999,36,30000,1,0,49,9999,0.100000,0,0,0.000000,5,1.000000,0.000000,4.311150,0,0,0,0,0,0,0
3,39999,37,30000,77,10000,49,9999,0.100000,0,0,0.000000,5,1.000000,0.000000,9.553161,0,0,0,0,0,0,0
3,39999,38,30000,87,0,40,9999,0.100000,0,0,0.000000,5,0.000000,0.000000,0.666386,0,0,0,0,0,0,0
3,39999,39,30000,82,10000,49,9999,0.100000,0,0,0.000000,5,2.000000,0.000000,6.266795,0,0,0,0,0,0,0
3,39999,40,30000,87,0,40,9999,0.100000,0,0,0.000000,5,0.000000,0.000000,0.858935,0,0,0,0,0,0,0
3,39999,41,30000,21,10000,40,9999,0.100000,0,0,0.000000,5,0.000000,0.000000,2.214716,0,0,0,0,0,0,0
3,39999,42,30000,1,0,40,9999,0.100000,0,0,0.000000,5,0.000000,0.000000,3.663846,0,0,0,0,0,0,0
3,39999,43,30000,77,10000,99,9999,0.135000,0,0,34.210526,5,15.000000,0.000000,24.622109,0,0,1,0,0,0,0
3,39999,44,30000,1,0,49,9999,0.100000,0,0,0.000000,5,1.000000,0.000000,14.355132,0,0,0,0,0,0,0
3,39999,45,30000,21,10000,49,9999,0.100000,0,0,0.000000,5,4.000000,0.000000,14.167883,0,0,0,0,0,0,0
3,39999,46,30000,1,0,49,9999,0.100000,0,0,0.000000,5,1.000000,0.000000,1.949207,0,0,0,0,0,0,0
3,39999,47,30000,87,0,49,9999,0.100000,0,0,0.000000,5,4.000000,0.000000,8.446160,0,0,0,0,0,0,0
3,39999,48,30000,87,0,49,9999,0.100000,0,0,0.000000,5,2.000000,0.000000,8.245272,0,0,0,0,0,0,0
3,39999,49,30000,77,10000,40,9999,0.100000,0,0,0.000000,5,0.000000,0.000000,4.869393,0,0,0,0,0,0,0
3,39999,50,30000,21,10000,49,9999,0.100000,0,0,0.000000,5,1.000000,0.000000,1.786214,0,0,0,0,0,0,0
3,39999,51,30000,82,10000,49,9999,0.100000,0,0,0.000000,5,2.000000,0.000000,9.624887,0,0,0,0,0,0,0
3,39999,52,30000,1,0,40,9999,0.100000,0,0,0.000000,5,0.000000,0.000000,3.551761,0,0,0,0,0,0,0
3,39999,53,30000,1,0,40,9999,0.100000,0,0,0.000000,5,0.000000,0.000000,0.455527,0,0,0,0,0,0,0
3,39999,54,30000,1,0,49,9999,0.100000,0,0,0.000000,5,1.000000,0.000000,4.770168,0,0,0,0,0,0,0
3,39999,55,30000,21,10000,40,9999,0.100000,0,0,0.000000,5,0.000000,0.000000,0.753161,0,0,0,0,0,0,0
3,39999,56,30000,77,10000,49,9999,0.100000,0,0,0.000000,5,1.000000,0.000000,23.234040,0,0,0,0,0,0,0
3,39999,57,30000,87,0,40,9999,0.100000,0,0,0.000000,5,0.000000,0.000000,0.508708,0,0,0,0,0,0,0
3,39999,58,30000,1,0,49,9999,0.100000,0,0,0.000000,5,1.000000,0.000000,5.447743,0,0,0,0,0,0,0
3,39999,59,30000,1,0,40,9999,0.100000,0,0,0.000000,5,0.000000,0.000000,0.768423,0,0,0,0,0,0,0
3,39999,60,30000,1,0,49,9999,0.100000,0,0,0.000000,5,6.000000,0.000000,9.096501,0,0,0,0,0,0,0
3,39999,61,30000,21,10000,40,9999,0.100000,0,0,0.000000,5,0.000000,0.000000,2.148233,0,0,0,0,0,0,0
3,39999,62,30000,21,10000,49,9999,0.100000,0,0,0.000000,5,1.000000,0.000000,10.859796,0,0,0,0,0,0,0
3,39999,63,30000,87,0,49,9999,0.100000,0,0,0.000000,5,10.000000,0.000000,13.002816,0,0,0,0,0,0,0
3,39999,64,30000,1,0,40,9999,0.100000,0,0,0.000000,5,0.000000,0.000000,0.462949,0,0,0,0,0,0,0
3,39999,65,30000,82,10000,40,9999,0.100000,0,0,0.000000,5,0.000000,0.000000,0.513956,0,0,0,0,0,0,0
3,39999,66,30000,87,0,49,9999,0.100000,0,0,0.000000,5,1.000000,0.000000,9.902737,0,0,0,0,0,0,0
3,39999,67,30000,1,0,40,9999,0.100000,0,0,0.000000,5,0.000000,0.000000,0.107770,0,0,0,0,0,0,0
3,39999,68,30000,87,0,40,9999,0.100000,0,0,0.000000,5,0.000000,0.000000,0.549828,0,0,0,0,0,0,0
3,39999,69,30000,82,10000,49,9999,0.100000,0,0,0.000000,5,2.000000,0.000000,10.629774,0,0,0,0,0,0,0
3,39999,70,30000,82,10000,40,9999,0.100000,0,0,0.000000,5,0.000000,0.000000,4.937496,0,0,0,0,0,0,0
3,39999,71,30000,21,10000,49,9999,0.100000,0,0,0.000000,5,4.000000,0.000000,6.119098,0,0,0,0,0,0,0
3,39999,72,30000,21,10000,49,9999,0.100000,0,0,0.000000,5,2.000000,0.000000,8.862724,0,0,0,0,0,0,0
3,39999,73,30000,82,10000,49,9999,0.100000,0,0,0.000000,5,3.000000,0.000000,11.849079,0,0,0,0,0,0,0
3,39999,74,30000,82,10000,40,9999,0.100000,0,0,0.000000,5,0.000000,0.000000,1.103243,0,0,0,0,0,0,0
3,39999,75,30000,77,10000,49,9999,0.100000,0,0,0.000000,5,4.000000,0.000000,9.405412,0,0,0,0,0,0,0
3,39999,76,30000,77,10000,40,9999,0.100000,0,0,0.000000,5,0.000000,0.000000,3.249016,0,0,0,0,0,0,0
3,39999,77,30000,87,0,40,9999,0.100000,0,0,0.000000,5,0.000000,0.000000,0.950764,0,0,0,0,0,0,0
3,39999,78,30000,1,0,49,9999,0.100000,0,0,0.000000,5,2.000000,0.000000,17.901904,0,0,0,0,0,0,0
3,39999,79,30000,82,10000,49,9999,0.100000,0,0,0.000000,5,4.000000,0.000000,6.354166,0,0,0,0,0,0,0
3,39999,80,30000,82,10000,49,9999,0.100000,0,0,0.000000,5,1.000000,0.000000,7.337630,0,0,0,0,0,0,0
3,39999,81,30000,1,0,40,9999,0.100000,0,0,0.000000,5,0.000000,0.000000,1.757761,0,0,0,0,0,0,0
3,39999,82,30000,21,10000,40,9999,0.100000,0,0,0.000000,5,0.000000,0.000000,0.203764,0,0,0,0,0,0,0
3,39999,83,30000,21,10000,40,9999,0.100000,0,0,0.000000,5,0.000000,0.000000,0.258964,0,0,0,0,0,0,0
3,39999,84,30000,21,10000,40,9999,0.100000,0,0,0.000000,5,0.000000,0.000000,0.869220,0,0,0,0,0,0,0
3,39999,85,30000,1,0,49,9999,0.135000,0,0,0.000000,5,1.000000,0.000000,2.167508,0,0,0,0,0,0,0
3,39999,86,30000,77,10000,49,9999,0.100000,0,0,0.000000,5,2.000000,0.000000,8.099806,0,0,0,0,0,0,0
3,39999,87,30000,77,10000,40,9999,0.100000,0,0,0.000000,5,0.000000,0.000000,0.451349,0,0,0,0,0,0,0
3,39999,88,30000,82,10000,49,9999,0.100000,0,0,0.000000,5,2.000000,0.000000,6.148836,0,0,0,0,0,0,0
3,39999,89,30000,82,10000,40,9999,0.100000,0,0,0.000000,5,0.000000,0.000000,2.215119,0,0,0,0,0,0,0
3,39999,90,30000,77,10000,40,9999,0.100000,0,0,0.000000,5,0.000000,0.000000,0.980379,0,0,0,0,0,0,0
3,39999,91,30000,1,0,40,9999,0.100000,0,0,0.000000,5,0.000000,0.000000,1.389905,0,0,0,0,0,0,0
3,39999,92,30000,21,10000,40,9999,0.100000,0,0,0.000000,5,0.000000,0.000000,0.124835,0,0,0,0,0,0,0
3,39999,93,30000,82,10000,49,9999,0.100000,0,0,0.000000,5,1.000000,0.000000,10.419969,0,0,0,0,0,0,0
3,39999,94,30000,21,10000,40,9999,0.100000,0,0,0.000000,5,0.000000,0.000000,1.011695,0,0,0,0,0,0,0
3,39999,95,30000,1,0,40,9999,0.100000,0,0,0.000000,5,0.000000,0.000000,3.593376,0,0,0,0,0,0,0
3,39999,96,30000,1,0,40,9999,0.100000,0,0,0.000000,5,0.000000,0.000000,0.713440,0,0,0,0,0,0,0
3,39999,97,30000,82,10000,49,9999,0.100000,0,0,0.000000,5,2.000000,0.000000,8.284695,0,0,0,0,0,0,0
3,39999,98,30000,1,0,40,9999,0.100000,0,0,0.000000,5,0.000000,0.000000,0.276506,0,0,0,0,0,0,0
3,39999,99,30000,82,10000,40,9999,0.100000,0,0,0.000000,5,0.000000,0.000000,1.611525,0,0,0,0,0,0,0
4,49999,0,40000,1,0,40,9999,0.100000,0,0,0.000000,5,0.000000,0.000000,0.674145,0,0,0,0,0,0,0
4,49999,1,40000,77,10000,49,9999,0.100000,0,0,0.000000,6,1.000000,0.000000,3.729491,0,0,0,0,0,0,0
4,49999,2,40000,1,0,40,9999,0.100000,0,0,0.000000,6,0.000000,0.000000,0.672511,0,0,0,0,0,0,0
4,49999,3,40000,87,0,40,9999,0.100000,0,0,0.000000,6,0.000000,0.000000,2.191859,0,0,0,0,0,0,0
4,49999,4,40000,21,10000,49,9999,0.100000,0,0,0.000000,6,1.000000,0.000000,1.279420,0,0,0,0,0,0,0
4,49999,5,40000,77,10000,49,9999,0.100000,0,0,0.000000,6,1.000000,0.000000,1.488038,0,0,0,0,0,0,0
4,49999,6,40000,82,10000,49,9999,0.100000,0,0,0.000000,6,1.000000,0.000000,2.267703,0,0,0,0,0,0,0
4,49999,7,40000,1,30000,40,9999,0.100000,0,0,0.000000,6,0.000000,0.000000,0.878393,0,0,0,0,0,0,0
4,49999,8,40000,21,10000,49,9999,0.100000,0,0,0.000000,6,2.000000,0.000000,8.141197,0,0,0,0,0,0,0
4,49999,9,40000,1,30000,40,9999,0.100000,0,0,0.000000,6,0.000000,0.000000,2.437770,0,0,0,0,0,0,0
4,49999,10,40000,87,0,40,9999,0.100000,0,0,0.000000,6,0.000000,0.000000,1.119916,0,0,0,0,0,0,0
4,49999,11,40000,1,30000,9,9999,0.100000,0,0,34.210526,6,3.000000,0.000000,9.012019,0,0,0,0,0,1,0
4,49999,12,40000,1,30000,49,9999,0.100000,0,0,0.000000,6,1.000000,0.000000,2.053324,0,0,0,0,0,0,0
4,49999,13,40000,77,10000,40,9999,0.100000,0,0,0.000000,6,0.000000,0.000000,0.141664,0,0,0,0,0,0,0
4,49999,14,40000,21,10000,40,9999,0.100000,0,0,0.000000,6,0.000000,0.000000,0.884366,0,0,0,0,0,0,0
4,49999,15,40000,82,10000,40,9999,0.100000,0,0,0.000000,6,0.000000,0.000000,0.627016,0,0,0,0,0,0,0
4,49999,16,40000,1,30000,40,9999,0.100000,0,0,0.000000,6,0.000000,0.000000,0.993025,0,0,0,0,0,0,0
4,49999,17,40000,82,10000,49,9999,0.100000,0,0,0.000000,6,1.000000,0.000000,8.627812,0,0,0,0,0,0,0
4,49999,18,40000,1,30000,49,9999,0.135000,0,0,0.000000,6,2.000000,0.000000,12.561908,0,0,0,0,0,0,0
4,49999,19,40000,82,10000,40,9999,0.100000,0,0,0.000000,6,0.000000,0.000000,0.756356,0,0,0,0,0,0,0
4,49999,20,40000,21,10000,40,9999,0.100000,0,0,0.000000,6,0.000000,0.000000,0.923049,0,0,0,0,0,0,0
4,49999,21,40000,1,30000,40,9999,0.100000,0,0,0.000000,6,0.000000,0.000000,3.959689,0,0,0,0,0,0,0
4,49999,22,40000,1,30000,49,9999,0.100000,0,0,0.000000,6,5.000000,0.000000,11.315946,0,0,0,0,0,0,0
4,49999,23,40000,77,10000,49,9999,0.100000,0,0,0.000000,6,1.000000,0.000000,18.649823,0,0,0,0,0,0,0
4,49999,24,40000,21,10000,40,9999,0.100000,0,0,0.000000,6,0.000000,0.000000,0.099808,0,0,0,0,0,0,0
4,49999,25,40000,82,10000,49,9999,0.100000,0,0,0.000000,6,2.000000,0.000000,4.140903,0,0,0,0,0,0,0
4,49999,26,40000,1,30000,49,9999,0.100000,0,0,0.000000,6,3.000000,0.000000,7.249613,0,0,0,0,0,0,0
4,49999,27,40000,1,30000,49,9999,0.100000,0,0,0.000000,6,2.000000,0.000000,3.903610,0,0,0,0,0,0,0
4,49999,28,40000,1,30000,9,9999,0.100000,0,0,34.210526,6,3.000000,0.000000,7.173566,0,0,0,0,0,1,0
4,49999,29,40000,87,0,49,9999,0.100000,0,0,0.000000,6,1.000000,0.000000,1.597751,0,0,0,0,0,0,0
4,49999,30,40000,1,30000,9,9999,0.100000,0,0,34.210526,6,2.000000,0.000000,7.668318,0,0,0,0,0,1,0
4,49999,31,40000,21,10000,49,9999,0.100000,0,0,0.000000,6,1.000000,0.000000,10.954010,0,0,0,0,0,0,0
4,49999,32,40000,21,10000,49,9999,0.100000,0,0,0.000000,6,2.000000,0.000000,12.665199,0,0,0,0,0,0,0
4,49999,33,40000,77,10000,40,9999,0.100000,0,0,0.000000,6,0.000000,0.000000,0.949952,0,0,0,0,0,0,0
4,49999,34,40000,82,10000,49,9999,0.100000,0,0,0.000000,6,1.000000,0.000000,9.808243,0,0,0,0,0,0,0
4,49999,35,40000,1,30000,40,9999,0.100000,0,0,0.000000,6,0.000000,0.000000,1.106138,0,0,0,0,0,0,0
4,49999,36,40000,1,30000,49,9999,0.100000,0,0,0.000000,6,2.000000,0.000000,8.901489,0,0,0,0,0,0,0
4,49999,37,40000,1,0,49,9999,0.100000,0,0,0.000000,6,8.000000,0.000000,15.642928,0,0,0,0,0,0,0
4,49999,38,40000,77,10000,49,9999,0.100000,0,0,0.000000,6,1.000000,0.000000,1.487015,0,0,0,0,0,0,0
4,49999,39,40000,87,0,49,9999,0.100000,0,0,0.000000,6,1.000000,0.000000,7.882635,0,0,0,0,0,0,0
4,49999,40,40000,21,10000,49,9999,0.100000,0,0,0.000000,6,1.000000,0.000000,1.462900,0,0,0,0,0,0,0
4,49999,41,40000,87,0,40,9999,0.100000,0,0,0.000000,6,0.000000,0.000000,1.202701,0,0,0,0,0,0,0
4,49999,42,40000,87,0,49,9999,0.100000,0,0,0.000000,6,2.000000,0.000000,10.679523,0,0,0,0,0,0,0
4,49999,43,40000,87,0,49,9999,0.100000,0,0,0.000000,6,1.000000,0.000000,11.542194,0,0,0,0,0,0,0
4,49999,44,40000,21,10000,40,9999,0.100000,0,0,0.000000,6,0.000000,0.000000,11.433663,0,0,0,0,0,0,0
4,49999,45,40000,21,10000,49,9999,0.100000,0,0,0.000000,6,2.000000,0.000000,10.651337,0,0,0,0,0,0,0
4,49999,46,40000,1,30000,40,9999,0.100000,0,0,0.000000,6,0.000000,0.000000,1.220682,0,0,0,0,0,0,0
4,49999,47,40000,82,10000,49,9999,0.100000,0,0,0.000000,6,1.000000,0.000000,3.221094,0,0,0,0,0,0,0
4,49999,48,40000,21,10000,49,9999,0.100000,0,0,0.000000,6,1.000000,0.000000,11.606745,0,0,0,0,0,0,0
4,49999,49,40000,21,10000,40,9999,0.100000,0,0,0.000000,6,0.000000,0.000000,0.277083,0,0,0,0,0,0,0
4,49999,50,40000,1,30000,40,9999,0.100000,0,0,0.000000,6,0.000000,0.000000,1.031210,0,0,0,0,0,0,0
4,49999,51,40000,1,30000,49,9999,0.100000,0,0,0.000000,6,3.000000,0.000000,6.276782,0,0,0,0,0,0,0
4,49999,52,40000,82,10000,49,9999,0.100000,0,0,0.000000,6,2.000000,0.000000,8.632756,0,0,0,0,0,0,0
4,49999,53,40000,1,30000,40,9999,0.100000,0,0,0.000000,6,0.000000,0.000000,0.819882,0,0,0,0,0,0,0
4,49999,54,40000,82,10000,49,9999,0.100000,0,0,0.000000,6,1.000000,0.000000,8.060025,0,0,0,0,0,0,0
4,49999,55,40000,21,10000,9,9999,0.100000,0,0,34.210526,6,3.000000,0.000000,9.071507,0,0,0,0,0,1,0
4,49999,56,40000,87,0,49,9999,0.100000,0,0,0.000000,6,1.000000,0.000000,7.424061,0,0,0,0,0,0,0
4,49999,57,40000,1,0,40,9999,0.100000,0,0,0.000000,6,0.000000,0.000000,0.467649,0,0,0,0,0,0,0
4,49999,58,40000,77,10000,49,9999,0.100000,0,0,0.000000,6,2.000000,0.000000,11.648926,0,0,0,0,0,0,0
4,49999,59,40000,82,10000,40,9999,0.100000,0,0,0.000000,6,0.000000,0.000000,0.983031,0,0,0,0,0,0,0
4,49999,60,40000,82,10000,49,9999,0.100000,0,0,0.000000,6,2.000000,0.000000,10.695755,0,0,0,0,0,0,0
4,49999,61,40000,77,10000,40,9999,0.135000,0,0,0.000000,6,0.000000,0.000000,1.495380,0,0,0,0,0,0,0
4,49999,62,40000,1,0,49,9999,0.100000,0,0,0.000000,6,2.000000,0.000000,5.603970,0,0,0,0,0,0,0
4,49999,63,40000,77,10000,40,9999,0.100000,0,0,0.000000,6,0.000000,0.000000,0.536508,0,0,0,0,0,0,0
4,49999,64,40000,21,10000,40,9999,0.100000,0,0,0.000000,6,0.000000,0.000000,0.994797,0,0,0,0,0,0,0
4,49999,65,40000,1,0,40,9999,0.100000,0,0,0.000000,6,0.000000,0.000000,0.362981,0,0,0,0,0,0,0
4,49999,66,40000,77,10000,40,9999,0.100000,0,0,0.000000,6,0.000000,0.000000,8.986469,0,0,0,0,0,0,0
4,49999,67,40000,1,0,40,9999,0.100000,0,0,0.000000,6,0.000000,0.000000,0.351122,0,0,0,0,0,0,0
4,49999,68,40000,77,10000,40,9999,0.100000,0,0,0.000000,6,0.000000,0.000000,0.386829,0,0,0,0,0,0,0
4,49999,69,40000,1,0,49,9999,0.100000,0,0,0.000000,6,2.000000,0.000000,14.350177,0,0,0,0,0,0,0
4,49999,70,40000,1,0,49,9999,0.100000,0,0,0.000000,6,1.000000,0.000000,1.934110,0,0,0,0,0,0,0
4,49999,71,40000,77,10000,49,9999,0.100000,0,0,0.000000,6,2.000000,0.000000,5.155223,0,0,0,0,0,0,0
4,49999,72,40000,1,0,40,9999,0.100000,0,0,0.000000,6,0.000000,0.000000,2.237683,0,0,0,0,0,0,0
4,49999,73,40000,87,0,49,9999,0.100000,0,0,0.000000,6,3.000000,0.000000,12.103521,0,0,0,0,0,0,0
4,49999,74,40000,77,10000,40,9999,0.100000,0,0,0.000000,6,0.000000,0.000000,1.062677,0,0,0,0,0,0,0
4,49999,75,40000,1,30000,40,9999,0.100000,0,0,0.000000,6,0.000000,0.000000,4.546688,0,0,0,0,0,0,0
4,49999,76,40000,77,10000,40,9999,0.100000,0,0,0.000000,6,0.000000,0.000000,0.241649,0,0,0,0,0,0,0
4,49999,77,40000,1,30000,40,9999,0.100000,0,0,0.000000,6,0.000000,0.000000,0.974174,0,0,0,0,0,0,0
4,49999,78,40000,87,0,49,9999,0.100000,0,0,0.000000,6,1.000000,0.000000,10.671040,0,0,0,0,0,0,0
4,49999,79,40000,82,10000,49,9999,0.100000,0,0,0.000000,6,2.000000,0.000000,4.141848,0,0,0,0,0,0,0
4,49999,80,40000,82,10000,49,9999,0.100000,0,0,0.000000,6,1.000000,0.000000,9.451054,0,0,0,0,0,0,0
4,49999,81,40000,1,0,40,9999,0.100000,0,0,0.000000,6,0.000000,0.000000,3.276589,0,0,0,0,0,0,0
4,49999,82,40000,1,30000,40,9999,0.100000,0,0,0.000000,6,0.000000,0.000000,0.202453,0,0,0,0,0,0,0
4,49999,83,40000,77,10000,40,9999,0.100000,0,0,0.000000,6,0.000000,0.000000,0.534565,0,0,0,0,0,0,0
4,49999,84,40000,87,0,40,9999,0.100000,0,0,0.000000,6,0.000000,0.000000,0.868611,0,0,0,0,0,0,0
4,49999,85,40000,82,10000,40,9999,0.100000,0,0,0.000000,6,0.000000,0.000000,0.943999,0,0,0,0,0,0,0
4,49999,86,40000,21,10000,49,9999,0.100000,0,0,0.000000,6,2.000000,0.000000,9.853225,0,0,0,0,0,0,0
4,49999,87,40000,87,0,40,9999,0.100000,0,0,0.000000,6,0.000000,0.000000,0.447172,0,0,0,0,0,0,0
4,49999,88,40000,21,10000,49,9999,0.100000,0,0,0.000000,6,3.000000,0.000000,6.971003,0,0,0,0,0,0,0
4,49999,89,40000,87,0,40,9999,0.100000,0,0,0.000000,6,0.000000,0.000000,0.959038,0,0,0,0,0,0,0
4,49999,90,40000,87,0,49,9999,0.100000,0,0,0.000000,6,1.000000,0.000000,1.615521,0,0,0,0,0,0,0
4,49999,91,40000,77,10000,40,9999,0.100000,0,0,0.000000,6,0.000000,0.000000,1.338418,0,0,0,0,0,0,0
4,49999,92,40000,1,0,49,9999,0.100000,0,0,0.000000,6,1.000000,0.000000,1.057030,0,0,0,0,0,0,0
4,49999,93,40000,1,30000,49,9999,0.100000,0,0,0.000000,6,1.000000,0.000000,1.876447,0,0,0,0,0,0,0
4,49999,94,40000,87,0,40,9999,0.100000,0,0,0.000000,6,0.000000,0.000000,4.381237,0,0,0,0,0,0,0
4,49999,95,40000,1,0,49,9999,0.100000,0,0,0.000000,6,1.000000,0.000000,1.833736,0,0,0,0,0,0,0
4,49999,96,40000,1,30000,49,9999,0.100000,0,0,0.000000,6,1.000000,0.000000,4.040417,0,0,0,0,0,0,0
4,49999,97,40000,87,0,49,9999,0.100000,0,0,0.000000,6,3.000000,0.000000,19.026999,0,0,0,0,0,0,0
4,49999,98,40000,1,30000,40,9999,0.100000,0,0,0.000000,6,0.000000,0.000000,0.215824,0,0,0,0,0,0,0
4,49999,99,40000,1,0,49,9999,0.100000,0,0,0.000000,6,8.000000,0.000000,22.723189,0,0,0,0,0,0,0
5,59999,0,50000,1,0,40,9999,0.100000,0,0,0.000000,6,0.000000,0.000000,0.920970,0,0,0,0,0,0,0
5,59999,1,50000,21,10000,49,9999,0.100000,0,0,0.000000,6,2.000000,0.000000,10.957128,0,0,0,0,0,0,0
5,59999,2,50000,1,30000,40,9999,0.100000,0,0,0.000000,6,0.000000,0.000000,0.652434,0,0,0,0,0,0,0
5,59999,3,50000,82,10000,40,9999,0.100000,0,0,0.000000,6,0.000000,0.000000,2.188709,0,0,0,0,0,0,0
5,59999,4,50000,82,10000,40,9999,0.100000,0,0,0.000000,6,0.000000,0.000000,1.048569,0,0,0,0,0,0,0
5,59999,5,50000,82,10000,49,9999,0.100000,0,0,0.000000,6,1.000000,0.000000,1.746112,0,0,0,0,0,0,0
5,59999,6,50000,87,0,40,9999,0.100000,0,0,0.000000,6,0.000000,0.000000,0.830712,0,0,0,0,0,0,0
5,59999,7,50000,1,30000,40,9999,0.100000,0,0,0.000000,6,0.000000,0.000000,0.390566,0,0,0,0,0,0,0
5,59999,8,50000,4,40000,49,9999,0.100000,0,0,0.000000,6,2.000000,0.000000,10.881014,0,0,0,0,0,0,0
5,59999,9,50000,77,10000,40,9999,0.100000,0,0,0.000000,6,0.000000,0.000000,0.474475,0,0,0,0,0,0,0
5,59999,10,50000,87,0,40,9999,0.100000,0,0,0.000000,6,0.000000,0.000000,1.131422,0,0,0,0,0,0,0
5,59999,11,50000,1,30000,49,9999,0.100000,0,0,0.000000,6,6.000000,0.000000,8.771404,0,0,0,0,0,0,0
5,59999,12,50000,77,10000,49,9999,0.100000,0,0,0.000000,6,1.000000,0.000000,2.594730,0,0,0,0,0,0,0
5,59999,13,50000,1,0,40,9999,0.100000,0,0,0.000000,6,0.000000,0.000000,0.137684,0,0,0,0,0,0,0
5,59999,14,50000,1,30000,40,9999,0.100000,0,0,0.000000,6,0.000000,0.000000,0.963787,0,0,0,0,0,0,0
5,59999,15,50000,77,10000,40,9999,0.100000,0,0,0.000000,6,0.000000,0.000000,0.547212,0,0,0,0,0,0,0
5,59999,16,50000,87,0,9,9999,0.100000,0,0,34.210526,6,9.000000,0.000000,12.858961,0,0,0,0,1,0,0
5,59999,17,50000,1,30000,49,9999,0.100000,0,0,0.000000,6,2.000000,0.000000,10.282892,0,0,0,0,0,0,0
5,59999,18,50000,87,0,40,9999,0.100000,0,0,0.000000,6,0.000000,0.000000,21.306554,0,0,0,0,0,0,0
5,59999,19,50000,1,0,40,9999,0.100000,0,0,0.000000,6,0.000000,0.000000,0.575092,0,0,0,0,0,0,0
5,59999,20,50000,1,30000,40,9999,0.100000,0,0,0.000000,6,0.000000,0.000000,0.897329,0,0,0,0,0,0,0
5,59999,21,50000,77,10000,40,9999,0.100000,0,0,0.000000,6,0.000000,0.000000,0.662556,0,0,0,0,0,0,0
5,59999,22,50000,21,10000,49,9999,0.100000,0,0,0.000000,6,2.000000,0.000000,4.346793,0,0,0,0,0,0,0
5,59999,23,50000,87,0,40,9999,0.100000,0,0,0.000000,6,0.000000,0.000000,1.580200,0,0,0,0,0,0,0
5,59999,24,50000,87,0,40,9999,0.100000,0,0,0.000000,6,0.000000,0.000000,0.323592,0,0,0,0,0,0,0
5,59999,25,50000,87,0,40,9999,0.100000,0,0,0.000000,6,0.000000,0.000000,0.594008,0,0,0,0,0,0,0
5,59999,26,50000,4,40000,49,9999,0.100000,0,0,0.000000,6,3.000000,0.000000,10.631709,0,0,0,0,0,0,0
5,59999,27,50000,1,0,40,9999,0.100000,0,0,0.000000,6,0.000000,0.000000,2.239394,0,0,0,0,0,0,0
5,59999,28,50000,1,0,40,9999,0.100000,0,0,0.000000,6,0.000000,0.000000,2.467274,0,0,0,0,0,0,0
5,59999,29,50000,82,10000,40,9999,0.100000,0,0,0.000000,6,0.000000,0.000000,1.938897,0,0,0,0,0,0,0
5,59999,30,50000,1,30000,49,9999,0.100000,0,0,0.000000,6,5.000000,0.000000,8.541020,0,0,0,0,0,0,0
5,59999,31,50000,1,0,49,9999,0.100000,0,0,0.000000,6,1.000000,0.000000,13.526100,0,0,0,0,0,0,0
5,59999,32,50000,4,40000,49,9999,0.100000,0,0,0.000000,6,5.000000,0.000000,13.572452,0,0,0,0,0,0,0
5,59999,33,50000,4,40000,9,9999,0.100000,0,0,34.210526,6,9.000000,0.000000,13.032624,0,0,0,0,1,0,0
5,59999,34,50000,4,40000,49,9999,0.100000,0,0,0.000000,6,2.000000,0.000000,7.694829,0,0,0,0,0,0,0
5,59999,35,50000,1,30000,40,9999,0.100000,0,0,0.000000,6,0.000000,0.000000,1.919011,0,0,0,0,0,0,0
5,59999,36,50000,87,0,49,9999,0.100000,0,0,0.000000,6,1.000000,0.000000,10.289299,0,0,0,0,0,0,0
5,59999,37,50000,1,0,40,9999,0.100000,0,0,0.000000,6,0.000000,0.000000,0.114256,0,0,0,0,0,0,0
5,59999,38,50000,21,10000,40,9999,0.100000,0,0,0.000000,6,0.000000,0.000000,0.474055,0,0,0,0,0,0,0
5,59999,39,50000,77,10000,49,9999,0.100000,0,0,0.000000,6,4.000000,0.000000,9.915692,0,0,0,0,0,0,0
5,59999,40,50000,82,10000,49,9999,0.100000,0,0,0.000000,6,1.000000,0.000000,1.514774,0,0,0,0,0,0,0
5,59999,41,50000,21,10000,40,9999,0.100000,0,0,0.000000,6,0.000000,0.000000,0.569236,0,0,0,0,0,0,0
5,59999,42,50000,1,0,49,9999,0.100000,0,0,0.000000,6,1.000000,0.000000,5.901360,0,0,0,0,0,0,0
5,59999,43,50000,87,0,40,9999,0.100000,0,0,0.000000,6,0.000000,0.000000,1.880379,0,0,0,0,0,0,0
5,59999,44,50000,82,10000,40,9999,0.100000,0,0,0.000000,6,0.000000,0.000000,0.143111,0,0,0,0,0,0,0
5,59999,45,50000,87,0,49,9999,0.100000,0,0,0.000000,6,10.000000,0.000000,22.531331,0,0,0,0,0,0,0
5,59999,46,50000,21,10000,40,9999,0.100000,0,0,0.000000,6,0.000000,0.000000,1.313611,0,0,0,0,0,0,0
5,59999,47,50000,87,0,49,9999,0.100000,0,0,0.000000,6,1.000000,0.000000,2.346631,0,0,0,0,0,0,0
5,59999,48,50000,82,10000,49,9999,0.100000,0,0,0.000000,6,1.000000,0.000000,6.254849,0,0,0,0,0,0,0
5,59999,49,50000,1,0,40,9999,0.100000,0,0,0.000000,6,0.000000,0.000000,0.246316,0,0,0,0,0,0,0
5,59999,50,50000,82,10000,40,9999,0.100000,0,0,0.000000,6,0.000000,0.000000,1.050282,0,0,0,0,0,0,0
5,59999,51,50000,21,10000,40,9999,0.100000,0,0,0.000000,6,0.000000,0.000000,0.472584,0,0,0,0,0,0,0
5,59999,52,50000,1,0,49,9999,0.100000,0,0,0.000000,6,1.000000,0.000000,3.080277,0,0,0,0,0,0,0
5,59999,53,50000,87,0,40,9999,0.100000,0,0,0.000000,6,0.000000,0.000000,0.978348,0,0,0,0,0,0,0
5,59999,54,50000,1,30000,49,9999,0.100000,0,0,0.000000,6,2.000000,0.000000,10.577053,0,0,0,0,0,0,0
5,59999,55,50000,87,0,49,9999,0.100000,0,0,0.000000,6,2.000000,0.000000,9.945526,0,0,0,0,0,0,0
5,59999,56,50000,1,30000,49,9999,0.100000,0,0,0.000000,6,1.000000,0.000000,1.870878,0,0,0,0,0,0,0
5,59999,57,50000,82,10000,40,9999,0.100000,0,0,0.000000,6,0.000000,0.000000,1.172489,0,0,0,0,0,0,0
5,59999,58,50000,1,0,49,9999,0.100000,0,0,0.000000,6,1.000000,0.000000,4.460943,0,0,0,0,0,0,0
5,59999,59,50000,82,10000,9,9999,0.100000,0,0,34.210526,6,10.000000,0.000000,11.561254,0,0,0,0,1,0,0
5,59999,60,50000,87,0,40,9999,0.100000,0,0,0.000000,6,0.000000,0.000000,1.457543,0,0,0,0,0,0,0
5,59999,61,50000,1,0,40,9999,0.100000,0,0,0.000000,6,0.000000,0.000000,1.576100,0,0,0,0,0,0,0
5,59999,62,50000,21,10000,40,9999,0.100000,0,0,0.000000,6,0.000000,0.000000,0.960699,0,0,0,0,0,0,0
5,59999,63,50000,1,0,40,9999,0.100000,0,0,0.000000,6,0.000000,0.000000,0.681755,0,0,0,0,0,0,0
5,59999,64,50000,77,10000,49,9999,0.100000,0,0,0.000000,6,1.000000,0.000000,1.122537,0,0,0,0,0,0,0
5,59999,65,50000,1,0,40,9999,0.100000,0,0,0.000000,6,0.000000,0.000000,0.164955,0,0,0,0,0,0,0
5,59999,66,50000,1,0,40,9999,0.100000,0,0,0.000000,6,0.000000,0.000000,4.578568,0,0,0,0,0,0,0
5,59999,67,50000,1,0,40,9999,0.100000,0,0,0.000000,6,0.000000,0.000000,0.606118,0,0,0,0,0,0,0
5,59999,68,50000,77,10000,40,9999,0.100000,0,0,0.000000,6,0.000000,0.000000,0.282933,0,0,0,0,0,0,0
5,59999,69,50000,1,30000,49,9999,0.100000,0,0,0.000000,6,3.000000,0.000000,21.757554,0,0,0,0,0,0,0
5,59999,70,50000,4,40000,40,9999,0.100000,0,0,0.000000,6,0.000000,0.000000,1.368532,0,0,0,0,0,0,0
5,59999,71,50000,1,0,49,9999,0.100000,0,0,0.000000,6,2.000000,0.000000,3.847961,0,0,0,0,0,0,0
5,59999,72,50000,87,0,49,9999,0.100000,0,0,0.000000,6,4.000000,0.000000,11.426256,0,0,0,0,0,0,0
5,59999,73,50000,4,40000,49,9999,0.100000,0,0,0.000000,6,1.000000,0.000000,10.707085,0,0,0,0,0,0,0
5,59999,74,50000,4,40000,40,9999,0.100000,0,0,0.000000,6,0.000000,0.000000,1.059584,0,0,0,0,0,0,0
5,59999,75,50000,1,30000,49,9999,0.100000,0,0,0.000000,6,2.000000,0.000000,5.834035,0,0,0,0,0,0,0
5,59999,76,50000,1,30000,40,9999,0.100000,0,0,0.000000,6,0.000000,0.000000,0.242147,0,0,0,0,0,0,0
5,59999,77,50000,77,10000,40,9999,0.100000,0,0,0.000000,6,0.000000,0.000000,0.902162,0,0,0,0,0,0,0
5,59999,78,50000,1,30000,40,9999,0.100000,0,0,0.000000,6,0.000000,0.000000,0.484054,0,0,0,0,0,0,0
5,59999,79,50000,1,30000,49,9999,0.100000,0,0,0.000000,6,2.000000,0.000000,6.809473,0,0,0,0,0,0,0
5,59999,80,50000,1,0,40,9999,0.100000,0,0,0.000000,6,0.000000,0.000000,2.342515,0,0,0,0,0,0,0
5,59999,81,50000,77,10000,49,9999,0.100000,0,0,0.000000,6,8.000000,0.000000,12.935403,0,0,0,0,0,0,0
5,59999,82,50000,1,30000,40,9999,0.100000,0,0,0.000000,6,0.000000,0.000000,0.245122,0,0,0,0,0,0,0
5,59999,83,50000,87,0,40,9999,0.100000,0,0,0.000000,6,0.000000,0.000000,0.424455,0,0,0,0,0,0,0
5,59999,84,50000,82,10000,40,9999,0.100000,0,0,0.000000,6,0.000000,0.000000,0.952273,0,0,0,0,0,0,0
5,59999,85,50000,21,10000,40,9999,0.100000,0,0,0.000000,6,0.000000,0.000000,0.968071,0,0,0,0,0,0,0
5,59999,86,50000,4,40000,40,9999,0.100000,0,0,0.000000,6,0.000000,0.000000,0.121742,0,0,0,0,0,0,0
5,59999,87,50000,1,30000,40,9999,0.100000,0,0,0.000000,6,0.000000,0.000000,0.975279,0,0,0,0,0,0,0
5,59999,88,50000,1,0,49,9999,0.100000,0,0,0.000000,6,1.000000,0.000000,5.834610,0,0,0,0,0,0,0
5,59999,89,50000,82,40000,40,9999,0.100000,0,0,0.000000,6,0.000000,0.000000,0.352275,0,0,0,0,0,0,0
5,59999,90,50000,82,10000,49,9999,0.100000,0,0,0.000000,6,1.000000,0.000000,1.488675,0,0,0,0,0,0,0
5,59999,91,50000,82,10000,40,9999,0.100000,0,0,0.000000,6,0.000000,0.000000,1.361256,0,0,0,0,0,0,0
5,59999,92,50000,77,10000,40,9999,0.100000,0,0,0.000000,6,0.000000,0.000000,0.372782,0,0,0,0,0,0,0
5,59999,93,50000,77,10000,49,9999,0.100000,0,0,0.000000,6,1.000000,0.000000,2.209433,0,0,0,0,0,0,0
5,59999,94,50000,21,10000,49,9999,0.100000,0,0,0.000000,6,1.000000,0.000000,16.375688,0,0,0,0,0,0,0
5,59999,95,50000,87,0,40,9999,0.100000,0,0,0.000000,6,0.000000,0.000000,1.057847,0,0,0,0,0,0,0
5,59999,96,50000,87,0,49,9999,0.100000,0,0,0.000000,6,8.000000,0.000000,21.828561,0,0,0,0,0,0,0
5,59999,97,50000,77,10000,49,9999,0.100000,0,0,0.000000,6,2.000000,0.000000,5.152590,0,0,0,0,0,0,0
5,59999,98,50000,82,10000,40,9999,0.100000,0,0,0.000000,6,0.000000,0.000000,0.183311,0,0,0,0,0,0,0
5,59999,99,50000,82,10000,40,9999,0.100000,0,0,0.000000,6,0.000000,0.000000,2.180857,0,0,0,0,0,0,0
6,69999,0,60000,4,40000,40,9999,0.100000,0,0,0.000000,6,0.000000,0.000000,1.029300,0,0,0,0,0,0,0
6,69999,1,60000,82,40000,99,9999,0.100000,0,0,36.212942,6,6.000000,0.000000,17.817575,0,0,1,0,0,0,0
6,69999,2,60000,82,40000,40,9999,0.100000,0,0,0.000000,6,0.000000,0.000000,0.624725,0,0,0,0,0,0,0
6,69999,3,60000,77,10000,49,9999,0.100000,0,0,0.000000,6,9.000000,0.000000,10.593498,0,0,0,0,0,0,0
6,69999,4,60000,1,30000,40,9999,0.100000,0,0,0.000000,6,0.000000,0.000000,1.029902,0,0,0,0,0,0,0
6,69999,5,60000,4,40000,49,9999,0.100000,0,0,0.000000,6,1.000000,0.000000,17.862489,0,0,0,0,0,0,0
6,69999,6,60000,82,40000,40,9999,0.100000,0,0,0.000000,6,0.000000,0.000000,0.643430,0,0,0,0,0,0,0
6,69999,7,60000,77,10000,40,9999,0.100000,0,0,0.000000,6,0.000000,0.000000,0.258460,0,0,0,0,0,0,0
6,69999,8,60000,1,30000,49,9999,0.100000,0,0,0.000000,6,1.000000,0.000000,16.401217,0,0,0,0,0,0,0
6,69999,9,60000,77,10000,40,9999,0.100000,0,0,0.000000,6,0.000000,0.000000,0.415206,0,0,0,0,0,0,0
6,69999,10,60000,1,30000,40,9999,0.100000,0,0,0.000000,6,0.000000,0.000000,1.185345,0,0,0,0,0,0,0
6,69999,11,60000,77,10000,49,9999,0.100000,0,0,0.000000,6,2.000000,0.000000,5.295094,0,0,0,0,0,0,0
6,69999,12,60000,1,0,40,9999,0.100000,0,0,0.000000,6,0.000000,0.000000,0.326651,0,0,0,0,0,0,0
6,69999,13,60000,87,0,40,9999,0.100000,0,0,0.000000,6,0.000000,0.000000,0.131377,0,0,0,0,0,0,0
6,69999,14,60000,87,0,40,9999,0.100000,0,0,0.000000,6,0.000000,0.000000,0.363701,0,0,0,0,0,0,0
6,69999,15,60000,82,40000,40,9999,0.100000,0,0,0.000000,6,0.000000,0.000000,0.519492,0,0,0,0,0,0,0
6,69999,16,60000,77,10000,49,9999,0.100000,0,0,0.000000,6,2.000000,0.000000,5.994865,0,0,0,0,0,0,0
6,69999,17,60000,82,40000,49,9999,0.100000,0,0,0.000000,6,3.000000,0.000000,5.136335,0,0,0,0,0,0,0
6,69999,18,60000,1,30000,40,9999,0.100000,0,0,0.000000,6,0.000000,0.000000,21.070472,0,0,0,0,0,0,0
6,69999,19,60000,1,30000,40,9999,0.100000,0,0,0.000000,6,0.000000,0.000000,0.505211,0,0,0,0,0,0,0
6,69999,20,60000,82,40000,40,9999,0.100000,0,0,0.000000,6,0.000000,0.000000,0.915760,0,0,0,0,0,0,0
6,69999,21,60000,1,30000,40,9999,0.100000,0,0,0.000000,6,0.000000,0.000000,0.821719,0,0,0,0,0,0,0
6,69999,22,60000,1,0,90,9999,0.100000,0,0,0.000000,6,0.000000,0.000000,2.142325,0,0,1,0,0,0,0
6,69999,23,60000,1,0,40,9999,0.100000,0,0,0.000000,6,0.000000,0.000000,1.193500,0,0,0,0,0,0,0
6,69999,24,60000,1,0,40,9999,0.100000,0,0,0.000000,6,0.000000,0.000000,0.519764,0,0,0,0,0,0,0
6,69999,25,60000,4,40000,49,9999,0.100000,0,0,0.000000,6,1.000000,0.000000,2.734546,0,0,0,0,0,0,0
6,69999,26,60000,82,40000,49,9999,0.100000,0,0,0.000000,6,3.000000,0.000000,9.184126,0,0,0,0,0,0,0
6,69999,27,60000,77,10000,40,9999,0.100000,0,0,0.000000,6,0.000000,0.000000,3.789676,0,0,0,0,0,0,0
6,69999,28,60000,82,40000,49,9999,0.100000,0,0,0.000000,6,2.000000,0.000000,9.322751,0,0,0,0,0,0,0
6,69999,29,60000,82,40000,40,9999,0.100000,0,0,0.000000,6,0.000000,0.000000,1.975604,0,0,0,0,0,0,0
6,69999,30,60000,87,0,49,9999,0.100000,0,0,0.000000,6,4.000000,0.000000,9.359634,0,0,0,0,0,0,0
6,69999,31,60000,1,0,40,9999,0.100000,0,0,0.000000,6,0.000000,0.000000,12.625594,0,0,0,0,0,0,0
6,69999,32,60000,77,10000,49,9999,0.100000,0,0,0.000000,6,1.000000,0.000000,9.437790,0,0,0,0,0,0,0
6,69999,33,60000,87,0,49,9999,0.100000,0,0,0.000000,6,4.000000,0.000000,11.818731,0,0,0,0,0,0,0
6,69999,34,60000,77,10000,49,9999,0.100000,0,0,0.000000,6,3.000000,0.000000,20.127923,0,0,0,0,0,0,0
6,69999,35,60000,82,40000,40,9999,0.100000,0,0,0.000000,6,0.000000,0.000000,0.576173,0,0,0,0,0,0,0
6,69999,36,60000,4,40000,49,9999,0.100000,0,0,0.000000,6,3.000000,0.000000,15.782588,0,0,0,0,0,0,0
6,69999,37,60000,1,0,40,9999,0.100000,0,0,0.000000,6,0.000000,0.000000,0.118037,0,0,0,0,0,0,0
6,69999,38,60000,87,0,40,9999,0.100000,0,0,0.000000,6,0.000000,0.000000,0.355451,0,0,0,0,0,0,0
6,69999,39,60000,82,40000,40,9999,0.100000,0,0,0.000000,6,0.000000,0.000000,3.994261,0,0,0,0,0,0,0
6,69999,40,60000,4,40000,49,9999,0.100000,0,0,0.000000,6,13.000000,0.000000,14.498096,0,0,0,0,0,0,0
6,69999,41,60000,4,40000,49,9999,0.100000,0,0,0.000000,6,1.000000,0.000000,2.689964,0,0,0,0,0,0,0
6,69999,42,60000,82,40000,49,9999,0.100000,0,0,0.000000,6,1.000000,0.000000,6.689703,0,0,0,0,0,0,0
6,69999,43,60000,4,40000,49,9999,0.100000,0,0,0.000000,6,1.000000,0.000000,13.393436,0,0,0,0,0,0,0
6,69999,44,60000,77,10000,40,9999,0.100000,0,0,0.000000,6,0.000000,0.000000,0.333698,0,0,0,0,0,0,0
6,69999,45,60000,87,0,40,9999,0.100000,0,0,0.000000,6,0.000000,0.000000,0.230125,0,0,0,0,0,0,0
6,69999,46,60000,82,40000,40,9999,0.100000,0,0,0.000000,6,0.000000,0.000000,0.757334,0,0,0,0,0,0,0
6,69999,47,60000,87,0,40,9999,0.100000,0,0,0.000000,6,0.000000,0.000000,0.591933,0,0,0,0,0,0,0
6,69999,48,60000,82,40000,49,9999,0.100000,0,0,0.000000,6,1.000000,0.000000,6.123031,0,0,0,0,0,0,0
6,69999,49,60000,1,0,40,9999,0.100000,0,0,0.000000,6,0.000000,0.000000,0.245288,0,0,0,0,0,0,0
6,69999,50,60000,1,0,40,9999,0.100000,0,0,0.000000,6,0.000000,0.000000,0.686958,0,0,0,0,0,0,0
6,69999,51,60000,87,0,40,9999,0.100000,0,0,0.000000,6,0.000000,0.000000,0.318639,0,0,0,0,0,0,0
6,69999,52,60000,4,40000,49,9999,0.100000,0,0,0.000000,6,1.000000,0.000000,6.810785,0,0,0,0,0,0,0
6,69999,53,60000,1,0,40,9999,0.100000,0,0,0.000000,6,0.000000,0.000000,0.211348,0,0,0,0,0,0,0
6,69999,54,60000,77,10000,49,9999,0.100000,0,0,0.000000,6,1.000000,0.000000,8.816149,0,0,0,0,0,0,0
6,69999,55,60000,87,0,49,9999,0.100000,0,0,0.000000,6,1.000000,0.000000,11.154570,0,0,0,0,0,0,0
6,69999,56,60000,77,10000,40,9999,0.100000,0,0,0.000000,6,0.000000,0.000000,2.054220,0,0,0,0,0,0,0
6,69999,57,60000,1,0,40,9999,0.100000,0,0,0.000000,6,0.000000,0.000000,0.500918,0,0,0,0,0,0,0
6,69999,58,60000,1,30000,49,9999,0.100000,0,0,0.000000,6,4.000000,0.000000,11.970699,0,0,0,0,0,0,0
6,69999,59,60000,87,0,49,9999,0.100000,0,0,0.000000,6,4.000000,0.000000,12.398038,0,0,0,0,0,0,0
6,69999,60,60000,77,10000,49,9999,0.100000,0,0,0.000000,6,1.000000,0.000000,2.274463,0,0,0,0,0,0,0
6,69999,61,60000,1,0,49,9999,0.100000,0,0,0.000000,6,6.000000,0.000000,18.033312,0,0,0,0,0,0,0
6,69999,62,60000,4,40000,40,9999,0.065000,0,0,0.000000,6,0.000000,0.000000,0.709432,0,0,0,0,0,0,0
6,69999,63,60000,1,0,40,9999,0.100000,0,0,0.000000,6,0.000000,0.000000,0.775495,0,0,0,0,0,0,0
6,69999,64,60000,82,40000,40,9999,0.100000,0,0,0.000000,6,0.000000,0.000000,0.243028,0,0,0,0,0,0,0
6,69999,65,60000,77,10000,40,9999,0.100000,0,0,0.000000,6,0.000000,0.000000,0.250333,0,0,0,0,0,0,0
6,69999,66,60000,1,0,49,9999,0.100000,0,0,0.000000,6,1.000000,0.000000,5.797386,0,0,0,0,0,0,0
6,69999,67,60000,4,40000,40,9999,0.100000,0,0,0.000000,6,0.000000,0.000000,1.099832,0,0,0,0,0,0,0
6,69999,68,60000,1,0,40,9999,0.100000,0,0,0.000000,6,0.000000,0.000000,0.266312,0,0,0,0,0,0,0
6,69999,69,60000,4,40000,40,9999,0.100000,0,0,0.000000,6,0.000000,0.000000,0.490294,0,0,0,0,0,0,0
6,69999,70,60000,87,0,40,9999,0.100000,0,0,0.000000,6,0.000000,0.000000,2.220305,0,0,0,0,0,0,0
6,69999,71,60000,77,10000,40,9999,0.100000,0,0,0.000000,6,0.000000,0.000000,3.562327,0,0,0,0,0,0,0
6,69999,72,60000,1,30000,40,9999,0.100000,0,0,0.000000,6,0.000000,0.000000,3.740202,0,0,0,0,0,0,0
6,69999,73,60000,1,30000,40,9999,0.100000,0,0,0.000000,6,0.000000,0.000000,0.563515,0,0,0,0,0,0,0
6,69999,74,60000,87,0,40,9999,0.100000,0,0,0.000000,6,0.000000,0.000000,1.132892,0,0,0,0,0,0,0
6,69999,75,60000,87,0,40,9999,0.100000,0,0,0.000000,6,0.000000,0.000000,3.085843,0,0,0,0,0,0,0
6,69999,76,60000,1,0,40,9999,0.100000,0,0,0.000000,6,0.000000,0.000000,0.228997,0,0,0,0,0,0,0
6,69999,77,60000,77,10000,40,9999,0.100000,0,0,0.000000,6,0.000000,0.000000,1.031439,0,0,0,0,0,0,0
6,69999,78,60000,87,0,40,9999,0.100000,0,0,0.000000,6,0.000000,0.000000,0.285423,0,0,0,0,0,0,0
6,69999,79,60000,1,0,49,9999,0.100000,0,0,0.000000,6,4.000000,0.000000,20.588881,0,0,0,0,0,0,0
6,69999,80,60000,87,0,40,9999,0.100000,0,0,0.000000,6,0.000000,0.000000,8.837264,0,0,0,0,0,0,0
6,69999,81,60000,1,0,49,9999,0.100000,0,0,0.000000,6,1.000000,0.000000,5.910334,0,0,0,0,0,0,0
6,69999,82,60000,4,40000,40,9999,0.100000,0,0,0.000000,6,0.000000,0.000000,0.197004,0,0,0,0,0,0,0
6,69999,83,60000,77,10000,40,9999,0.100000,0,0,0.000000,6,0.000000,0.000000,0.410370,0,0,0,0,0,0,0
6,69999,84,60000,4,40000,40,9999,0.100000,0,0,0.000000,6,0.000000,0.000000,1.013612,0,0,0,0,0,0,0
6,69999,85,60000,1,0,40,9999,0.100000,0,0,0.000000,6,0.000000,0.000000,0.725177,0,0,0,0,0,0,0
6,69999,86,60000,4,40000,40,9999,0.100000,0,0,0.000000,6,0.000000,0.000000,0.142962,0,0,0,0,0,0,0
6,69999,87,60000,4,40000,40,9999,0.100000,0,0,0.000000,6,0.000000,0.000000,0.424007,0,0,0,0,0,0,0
6,69999,88,60000,4,40000,49,9999,0.100000,0,0,0.000000,6,3.000000,0.000000,4.461209,0,0,0,0,0,0,0
6,69999,89,60000,1,30000,49,9999,0.100000,0,0,0.000000,6,1.000000,0.000000,2.584982,0,0,0,0,0,0,0
6,69999,90,60000,1,30000,40,9999,0.100000,0,0,0.000000,6,0.000000,0.000000,1.028794,0,0,0,0,0,0,0
6,69999,91,60000,82,40000,40,9999,0.100000,0,0,0.000000,6,0.000000,0.000000,1.355280,0,0,0,0,0,0,0
6,69999,92,60000,1,30000,40,9999,0.100000,0,0,0.000000,6,0.000000,0.000000,0.242346,0,0,0,0,0,0,0
6,69999,93,60000,4,40000,49,9999,0.100000,0,0,0.000000,6,11.000000,0.000000,13.044637,0,0,0,0,0,0,0
6,69999,94,60000,1,30000,99,9999,0.100000,0,0,34.210526,6,6.000000,0.000000,14.796252,0,0,1,0,0,0,0
6,69999,95,60000,4,40000,40,9999,0.100000,0,0,0.000000,6,0.000000,0.000000,1.037908,0,0,0,0,0,0,0
6,69999,96,60000,82,40000,49,9999,0.100000,0,0,0.000000,6,2.000000,0.000000,4.609596,0,0,0,0,0,0,0
6,69999,97,60000,1,30000,40,9999,0.100000,0,0,0.000000,6,0.000000,0.000000,3.728564,0,0,0,0,0,0,0
6,69999,98,60000,4,40000,40,9999,0.100000,0,0,0.000000,6,0.000000,0.000000,0.187759,0,0,0,0,0,0,0
6,69999,99,60000,4,40000,40,9999,0.100000,0,0,0.000000,6,0.000000,0.000000,0.785378,0,0,0,0,0,0,0
7,79999,0,70000,82,40000,49,9999,0.100000,0,0,0.000000,6,10.000000,0.000000,15.144570,0,0,0,0,0,0,0
7,79999,1,70000,1,0,99,9999,0.100000,0,0,34.210526,6,1.000000,0.000000,6.330844,0,0,1,0,0,0,0
7,79999,2,70000,1,30000,40,9999,0.100000,0,0,0.000000,6,0.000000,0.000000,0.496093,0,0,0,0,0,0,0
7,79999,3,70000,1,0,40,9999,0.100000,0,0,0.000000,6,0.000000,0.000000,1.050973,0,0,0,0,0,0,0
7,79999,4,70000,87,0,49,9999,0.100000,0,0,0.000000,6,1.000000,0.000000,1.198928,0,0,0,0,0,0,0
7,79999,5,70000,1,30000,49,9999,0.100000,0,0,0.000000,6,1.000000,0.000000,11.784534,0,0,0,0,0,0,0
7,79999,6,70000,1,0,40,9999,0.100000,0,0,0.000000,6,0.000000,0.000000,1.711297,0,0,0,0,0,0,0
7,79999,7,70000,4,60000,40,9999,0.100000,0,0,0.000000,6,0.000000,0.000000,0.945381,0,0,0,0,0,0,0
7,79999,8,70000,87,0,49,9999,0.100000,0,0,0.000000,6,1.000000,0.000000,6.371725,0,0,0,0,0,0,0
7,79999,9,70000,77,10000,49,9999,0.100000,0,0,0.000000,6,2.000000,0.000000,5.287269,0,0,0,0,0,0,0
7,79999,10,70000,1,0,40,9999,0.100000,0,0,0.000000,6,0.000000,0.000000,1.171959,0,0,0,0,0,0,0
7,79999,11,70000,4,40000,40,9999,0.100000,0,0,0.000000,6,0.000000,0.000000,0.953940,0,0,0,0,0,0,0
7,79999,12,70000,1,0,40,9999,0.100000,0,0,0.000000,6,0.000000,0.000000,0.154381,0,0,0,0,0,0,0
7,79999,13,70000,4,40000,40,9999,0.100000,0,0,0.000000,6,0.000000,0.000000,0.137160,0,0,0,0,0,0,0
7,79999,14,70000,1,0,9,9999,0.100000,0,0,34.210526,6,6.000000,0.000000,9.910808,0,0,0,0,0,0,1
7,79999,15,70000,1,0,40,9999,0.100000,0,0,0.000000,6,0.000000,0.000000,0.534079,0,0,0,0,0,0,0
7,79999,16,70000,1,30000,49,9999,0.100000,0,0,0.000000,6,1.000000,0.000000,2.671743,0,0,0,0,0,0,0
7,79999,17,70000,1,0,40,9999,0.100000,0,0,0.000000,6,0.000000,0.000000,1.030353,0,0,0,0,0,0,0
7,79999,18,70000,1,30000,40,9999,0.100000,0,0,0.000000,6,0.000000,0.000000,2.119843,0,0,0,0,0,0,0
7,79999,19,70000,4,40000,40,9999,0.100000,0,0,0.000000,6,0.000000,0.000000,10.175885,0,0,0,0,0,0,0
7,79999,20,70000,82,40000,40,9999,0.100000,0,0,0.000000,6,0.000000,0.000000,0.954034,0,0,0,0,0,0,0
7,79999,21,70000,4,60000,40,9999,0.100000,0,0,0.000000,6,0.000000,0.000000,1.069834,0,0,0,0,0,0,0
7,79999,22,70000,82,40000,49,9999,0.100000,0,0,0.000000,6,1.000000,0.000000,4.132124,0,0,0,0,0,0,0
7,79999,23,70000,87,0,40,9999,0.100000,0,0,0.000000,6,0.000000,0.000000,0.353025,0,0,0,0,0,0,0
7,79999,24,70000,87,0,40,9999,0.100000,0,0,0.000000,6,0.000000,0.000000,0.612569,0,0,0,0,0,0,0
7,79999,25,70000,4,40000,9,9999,0.100000,0,0,34.210526,6,4.000000,0.000000,10.802805,0,0,0,0,1,0,0
7,79999,26,70000,77,10000,49,9999,0.100000,0,0,0.000000,6,2.000000,0.000000,6.749832,0,0,0,0,0,0,0
7,79999,27,70000,1,0,40,9999,0.100000,0,0,0.000000,6,0.000000,0.000000,1.451924,0,0,0,0,0,0,0
7,79999,28,70000,82,40000,49,9999,0.100000,0,0,0.000000,6,3.000000,0.000000,11.013895,0,0,0,0,0,0,0
7,79999,29,70000,77,10000,49,9999,0.100000,0,0,0.000000,6,1.000000,0.000000,2.328925,0,0,0,0,0,0,0
7,79999,30,70000,4,40000,49,9999,0.100000,0,0,0.000000,6,1.000000,0.000000,6.371818,0,0,0,0,0,0,0
7,79999,31,70000,87,0,40,9999,0.100000,0,0,0.000000,6,0.000000,0.000000,4.346134,0,0,0,0,0,0,0
7,79999,32,70000,1,0,40,9999,0.100000,0,0,0.000000,6,0.000000,0.000000,1.050817,0,0,0,0,0,0,0
7,79999,33,70000,4,40000,49,9999,0.100000,0,0,0.000000,6,1.000000,0.000000,8.421923,0,0,0,0,0,0,0
7,79999,34,70000,1,0,49,9999,0.100000,0,0,0.000000,6,4.000000,0.000000,4.487507,0,0,0,0,0,0,0
7,79999,35,70000,87,0,9,9999,0.100000,0,0,34.210526,6,6.000000,0.000000,13.762644,0,0,0,0,0,0,1
7,79999,36,70000,4,40000,40,9999,0.100000,0,0,0.000000,6,0.000000,0.000000,9.563620,0,0,0,0,0,0,0
7,79999,37,70000,4,60000,40,9999,0.100000,0,0,0.000000,6,0.000000,0.000000,0.116967,0,0,0,0,0,0,0
7,79999,38,70000,77,10000,40,9999,0.100000,0,0,0.000000,6,0.000000,0.000000,0.907383,0,0,0,0,0,0,0
7,79999,39,70000,1,0,40,9999,0.100000,0,0,0.000000,6,0.000000,0.000000,1.486128,0,0,0,0,0,0,0
7,79999,40,70000,1,30000,40,9999,0.100000,0,0,0.000000,6,0.000000,0.000000,0.567109,0,0,0,0,0,0,0
7,79999,41,70000,4,40000,9,9999,0.100000,0,0,34.210526,6,4.000000,0.000000,9.262195,0,0,0,0,1,0,0
7,79999,42,70000,4,60000,49,9999,0.100000,0,0,0.000000,6,1.000000,0.000000,8.877273,0,0,0,0,0,0,0
7,79999,43,70000,87,0,40,9999,0.100000,0,0,0.000000,6,0.000000,0.000000,0.687913,0,0,0,0,0,0,0
7,79999,44,70000,87,0,40,9999,0.100000,0,0,0.000000,6,0.000000,0.000000,0.113830,0,0,0,0,0,0,0
7,79999,45,70000,77,10000,40,9999,0.100000,0,0,0.000000,6,0.000000,0.000000,0.243714,0,0,0,0,0,0,0
7,79999,46,70000,87,0,40,9999,0.100000,0,0,0.000000,6,0.000000,0.000000,0.549409,0,0,0,0,0,0,0
7,79999,47,70000,77,10000,40,9999,0.100000,0,0,0.000000,6,0.000000,0.000000,0.918092,0,0,0,0,0,0,0
7,79999,48,70000,4,60000,49,9999,0.100000,0,0,0.000000,6,1.000000,0.000000,3.343276,0,0,0,0,0,0,0
7,79999,49,70000,4,40000,40,9999,0.100000,0,0,0.000000,6,0.000000,0.000000,0.441439,0,0,0,0,0,0,0
7,79999,50,70000,1,30000,40,9999,0.100000,0,0,0.000000,6,0.000000,0.000000,0.590240,0,0,0,0,0,0,0
7,79999,51,70000,1,30000,40,9999,0.100000,0,0,0.000000,6,0.000000,0.000000,0.303492,0,0,0,0,0,0,0
7,79999,52,70000,4,60000,40,9999,0.100000,0,0,0.000000,6,0.000000,0.000000,0.909077,0,0,0,0,0,0,0
7,79999,53,70000,4,60000,40,9999,0.100000,0,0,0.000000,6,0.000000,0.000000,0.135942,0,0,0,0,0,0,0
7,79999,54,70000,77,10000,40,9999,0.100000,0,0,0.000000,6,0.000000,0.000000,3.951746,0,0,0,0,0,0,0
7,79999,55,70000,87,0,49,9999,0.100000,0,0,0.000000,6,1.000000,0.000000,10.549035,0,0,0,0,0,0,0
7,79999,56,70000,1,0,40,9999,0.100000,0,0,0.000000,6,0.000000,0.000000,0.957164,0,0,0,0,0,0,0
7,79999,57,70000,4,60000,9,9999,0.100000,0,0,34.210526,6,6.000000,0.000000,13.722479,0,0,0,0,0,0,1
7,79999,58,70000,1,0,40,9999,0.135000,0,0,0.000000,6,0.000000,0.000000,23.324750,0,0,0,0,0,0,0
7,79999,59,70000,77,10000,40,9999,0.100000,0,0,0.000000,6,0.000000,0.000000,6.416815,0,0,0,0,0,0,0
7,79999,60,70000,4,40000,49,9999,0.100000,0,0,0.000000,6,5.000000,0.000000,9.031486,0,0,0,0,0,0,0
7,79999,61,70000,1,30000,9,9999,0.100000,0,0,34.210526,6,7.000000,0.000000,15.406475,0,0,0,0,0,0,1
7,79999,62,70000,87,0,40,9999,0.100000,0,0,0.000000,6,0.000000,0.000000,0.496793,0,0,0,0,0,0,0
7,79999,63,70000,4,40000,49,9999,0.100000,0,0,0.000000,6,1.000000,0.000000,12.457489,0,0,0,0,0,0,0
7,79999,64,70000,77,10000,40,9999,0.100000,0,0,0.000000,6,0.000000,0.000000,0.138074,0,0,0,0,0,0,0
7,79999,65,70000,4,40000,40,9999,0.100000,0,0,0.000000,6,0.000000,0.000000,0.207299,0,0,0,0,0,0,0
7,79999,66,70000,77,10000,49,9999,0.100000,0,0,0.000000,6,1.000000,0.000000,6.456563,0,0,0,0,0,0,0
7,79999,67,70000,1,0,40,9999,0.100000,0,0,0.000000,6,0.000000,0.000000,1.933363,0,0,0,0,0,0,0
7,79999,68,70000,87,0,40,9999,0.065000,0,0,0.000000,6,0.000000,0.000000,0.260203,0,0,0,0,0,0,0
7,79999,69,70000,4,60000,40,9999,0.100000,0,0,0.000000,6,0.000000,0.000000,0.640635,0,0,0,0,0,0,0
7,79999,70,70000,1,30000,40,9999,0.100000,0,0,0.000000,6,0.000000,0.000000,1.147530,0,0,0,0,0,0,0
7,79999,71,70000,1,0,40,9999,0.100000,0,0,0.000000,6,0.000000,0.000000,3.901830,0,0,0,0,0,0,0
7,79999,72,70000,1,30000,49,9999,0.100000,0,0,0.000000,6,1.000000,0.000000,4.381580,0,0,0,0,0,0,0
7,79999,73,70000,1,0,40,9999,0.100000,0,0,0.000000,6,0.000000,0.000000,0.937936,0,0,0,0,0,0,0
7,79999,74,70000,87,0,40,9999,0.100000,0,0,0.000000,6,0.000000,0.000000,1.117038,0,0,0,0,0,0,0
7,79999,75,70000,77,10000,49,9999,0.100000,0,0,0.000000,6,3.000000,0.000000,10.134934,0,0,0,0,0,0,0
7,79999,76,70000,1,30000,40,9999,0.100000,0,0,0.000000,6,0.000000,0.000000,0.236059,0,0,0,0,0,0,0
7,79999,77,70000,4,60000,49,9999,0.100000,0,0,0.000000,6,1.000000,0.000000,4.046712,0,0,0,0,0,0,0
7,79999,78,70000,1,0,40,9999,0.100000,0,0,0.000000,6,0.000000,0.000000,0.520229,0,0,0,0,0,0,0
7,79999,79,70000,77,10000,40,9999,0.100000,0,0,0.000000,6,0.000000,0.000000,1.672303,0,0,0,0,0,0,0
7,79999,80,70000,4,60000,49,9999,0.100000,0,0,0.000000,6,1.000000,0.000000,5.376766,0,0,0,0,0,0,0
7,79999,81,70000,4,60000,49,9999,0.100000,0,0,0.000000,6,3.000000,0.000000,5.906161,0,0,0,0,0,0,0
7,79999,82,70000,4,40000,40,9999,0.100000,0,0,0.000000,6,0.000000,0.000000,0.197807,0,0,0,0,0,0,0
7,79999,83,70000,87,0,40,9999,0.100000,0,0,0.000000,6,0.000000,0.000000,0.371430,0,0,0,0,0,0,0
7,79999,84,70000,1,0,40,9999,0.100000,0,0,0.000000,6,0.000000,0.000000,1.254115,0,0,0,0,0,0,0
7,79999,85,70000,1,0,40,9999,0.100000,0,0,0.000000,6,0.000000,0.000000,0.579357,0,0,0,0,0,0,0
7,79999,86,70000,77,10000,40,9999,0.100000,0,0,0.000000,6,0.000000,0.000000,0.087753,0,0,0,0,0,0,0
7,79999,87,70000,1,0,9,9999,0.135000,0,0,34.210526,6,6.000000,0.000000,9.612292,0,0,0,0,0,0,1
7,79999,88,70000,87,0,49,9999,0.100000,0,0,0.000000,6,4.000000,0.000000,8.943489,0,0,0,0,0,0,0
7,79999,89,70000,1,30000,9,9999,0.135000,0,0,34.210526,6,5.000000,0.000000,10.697367,0,0,0,0,1,0,0
7,79999,90,70000,1,0,49,9999,0.100000,0,0,0.000000,6,4.000000,0.000000,7.211488,0,0,0,0,0,0,0
7,79999,91,70000,1,30000,40,9999,0.100000,0,0,0.000000,6,0.000000,0.000000,1.363357,0,0,0,0,0,0,0
7,79999,92,70000,1,0,40,9999,0.100000,0,0,0.000000,6,0.000000,0.000000,0.989914,0,0,0,0,0,0,0
7,79999,93,70000,87,0,40,9999,0.100000,0,0,0.000000,6,0.000000,0.000000,0.967328,0,0,0,0,0,0,0
7,79999,94,70000,1,0,40,9999,0.100000,0,0,0.000000,6,0.000000,0.000000,2.125629,0,0,0,0,0,0,0
7,79999,95,70000,4,40000,49,9999,0.100000,0,0,0.000000,6,1.000000,0.000000,1.181783,0,0,0,0,0,0,0
7,79999,96,70000,1,0,40,9999,0.100000,0,0,0.000000,6,0.000000,0.000000,0.087519,0,0,0,0,0,0,0
7,79999,97,70000,77,10000,40,9999,0.100000,0,0,0.000000,6,0.000000,0.000000,4.720122,0,0,0,0,0,0,0
7,79999,98,70000,4,40000,40,9999,0.100000,0,0,0.000000,6,0.000000,0.000000,0.180607,0,0,0,0,0,0,0
7,79999,99,70000,77,10000,40,9999,0.100000,0,0,0.000000,6,0.000000,0.000000,0.738833,0,0,0,0,0,0,0
8,89999,0,80000,87,0,49,9999,0.100000,0,0,0.000000,6,7.000000,0.000000,12.005536,0,0,0,0,0,0,0
8,89999,1,80000,87,0,49,9999,0.100000,0,0,0.000000,6,3.000000,0.000000,9.425111,0,0,0,0,0,0,0
8,89999,2,80000,4,60000,40,9999,0.100000,0,0,0.000000,6,0.000000,0.000000,0.526172,0,0,0,0,0,0,0
8,89999,3,80000,1,0,40,9999,0.100000,0,0,0.000000,6,0.000000,0.000000,1.220849,0,0,0,0,0,0,0
8,89999,4,80000,1,0,49,9999,0.100000,0,0,0.000000,6,3.000000,0.000000,3.719882,0,0,0,0,0,0,0
8,89999,5,80000,77,10000,49,9999,0.100000,0,0,0.000000,6,2.000000,0.000000,10.534458,0,0,0,0,0,0,0
8,89999,6,80000,4,60000,40,9999,0.100000,0,0,0.000000,6,0.000000,0.000000,0.503980,0,0,0,0,0,0,0
8,89999,7,80000,1,30000,40,9999,0.100000,0,0,0.000000,6,0.000000,0.000000,1.002477,0,0,0,0,0,0,0
8,89999,8,80000,77,10000,40,9999,0.100000,0,0,0.000000,6,0.000000,0.000000,0.639545,0,0,0,0,0,0,0
8,89999,9,80000,87,0,49,9999,0.100000,0,0,34.210526,6,3.000000,0.000000,18.103728,0,0,1,1,0,0,0
8,89999,10,80000,77,10000,40,9999,0.100000,0,0,0.000000,6,0.000000,0.000000,1.184064,0,0,0,0,0,0,0
8,89999,11,80000,4,40000,40,9999,0.100000,0,0,0.000000,6,0.000000,0.000000,4.449044,0,0,0,0,0,0,0
8,89999,12,80000,1,0,40,9999,0.100000,0,0,0.000000,6,0.000000,0.000000,0.422138,0,0,0,0,0,0,0
8,89999,13,80000,87,0,40,9999,0.100000,0,0,0.000000,6,0.000000,0.000000,0.140345,0,0,0,0,0,0,0
8,89999,14,80000,1,30000,49,9999,0.100000,0,0,0.000000,6,1.000000,0.000000,10.394844,0,0,0,0,0,0,0
8,89999,15,80000,4,40000,40,9999,0.100000,0,0,0.000000,6,0.000000,0.000000,0.537017,0,0,0,0,0,0,0
8,89999,16,80000,4,40000,49,9999,0.100000,0,0,0.000000,6,5.000000,0.000000,14.589711,0,0,0,0,0,0,0
8,89999,17,80000,77,10000,49,9999,0.100000,0,0,0.000000,6,3.000000,0.000000,5.929993,0,0,0,0,0,0,0
8,89999,18,80000,1,0,40,9999,0.100000,0,0,0.000000,6,0.000000,0.000000,0.514288,0,0,0,0,0,0,0
8,89999,19,80000,87,0,40,9999,0.100000,0,0,0.000000,6,0.000000,0.000000,23.707277,0,0,0,0,0,0,0
8,89999,20,80000,77,10000,40,9999,0.100000,0,0,0.000000,6,0.000000,0.000000,0.914678,0,0,0,0,0,0,0
8,89999,21,80000,1,0,40,9999,0.100000,0,0,0.000000,6,0.000000,0.000000,0.482794,0,0,0,0,0,0,0
8,89999,22,80000,4,40000,49,9999,0.100000,0,0,0.000000,6,2.000000,0.000000,11.566462,0,0,0,0,0,0,0
8,89999,23,80000,1,0,40,9999,0.100000,0,0,0.000000,6,0.000000,0.000000,1.694305,0,0,0,0,0,0,0
8,89999,24,80000,4,40000,40,9999,0.100000,0,0,0.000000,6,0.000000,0.000000,0.173175,0,0,0,0,0,0,0
8,89999,25,80000,1,0,40,9999,0.100000,0,0,0.000000,6,0.000000,0.000000,1.439944,0,0,0,0,0,0,0
8,89999,26,80000,87,0,40,9999,0.100000,0,0,0.000000,6,0.000000,0.000000,1.179902,0,0,0,0,0,0,0
8,89999,27,80000,4,40000,49,9999,0.100000,0,0,0.000000,6,2.000000,0.000000,12.998330,0,0,0,0,0,0,0
8,89999,28,80000,4,40000,49,9999,0.100000,0,0,0.000000,6,1.000000,0.000000,4.272765,0,0,0,0,0,0,0
8,89999,29,80000,1,30000,49,9999,0.100000,0,0,0.000000,6,3.000000,0.000000,5.083242,0,0,0,0,0,0,0
8,89999,30,80000,1,30000,49,9999,0.100000,0,0,0.000000,6,1.000000,0.000000,8.699177,0,0,0,0,0,0,0
8,89999,31,80000,77,10000,40,9999,0.100000,0,0,0.000000,6,0.000000,0.000000,6.207640,0,0,0,0,0,0,0
8,89999,32,80000,77,10000,49,9999,0.100000,0,0,0.000000,6,2.000000,0.000000,4.785637,0,0,0,0,0,0,0
8,89999,33,80000,1,0,49,9999,0.100000,0,0,0.000000,6,1.000000,0.000000,9.289500,0,0,0,0,0,0,0
8,89999,34,80000,77,10000,49,9999,0.100000,0,0,0.000000,6,1.000000,0.000000,1.915347,0,0,0,0,0,0,0
8,89999,35,80000,4,40000,49,9999,0.100000,0,0,0.000000,6,1.000000,0.000000,12.062188,0,0,0,0,0,0,0
8,89999,36,80000,1,30000,49,9999,0.100000,0,0,0.000000,6,1.000000,0.000000,9.712510,0,0,0,0,0,0,0
8,89999,37,80000,77,10000,40,9999,0.100000,0,0,0.000000,6,0.000000,0.000000,0.121400,0,0,0,0,0,0,0
8,89999,38,80000,4,60000,40,9999,0.065000,0,0,0.000000,6,0.000000,0.000000,1.007495,0,0,0,0,0,0,0
8,89999,39,80000,4,60000,49,9999,0.100000,0,0,0.000000,6,1.000000,0.000000,2.763342,0,0,0,0,0,0,0
8,89999,40,80000,1,0,40,9999,0.100000,0,0,0.000000,6,0.000000,0.000000,0.538352,0,0,0,0,0,0,0
8,89999,41,80000,1,0,40,9999,0.100000,0,0,0.000000,6,0.000000,0.000000,1.179391,0,0,0,0,0,0,0
8,89999,42,80000,4,40000,49,9999,0.100000,0,0,0.000000,6,2.000000,0.000000,7.236337,0,0,0,0,0,0,0
8,89999,43,80000,1,0,40,9999,0.100000,0,0,0.000000,6,0.000000,0.000000,7.650143,0,0,0,0,0,0,0
8,89999,44,80000,1,30000,40,9999,0.100000,0,0,0.000000,6,0.000000,0.000000,0.443241,0,0,0,0,0,0,0
8,89999,45,80000,1,30000,40,9999,0.100000,0,0,0.000000,6,0.000000,0.000000,0.228531,0,0,0,0,0,0,0
8,89999,46,80000,4,60000,40,9999,0.100000,0,0,0.000000,6,0.000000,0.000000,0.576476,0,0,0,0,0,0,0
8,89999,47,80000,87,0,9,9999,0.100000,0,0,34.210526,6,1.000000,0.000000,10.534253,0,0,0,0,1,0,0
8,89999,48,80000,77,10000,49,9999,0.100000,0,0,0.000000,6,5.000000,0.000000,12.821180,0,0,0,0,0,0,0
8,89999,49,80000,4,60000,40,9999,0.100000,0,0,0.000000,6,0.000000,0.000000,0.379511,0,0,0,0,0,0,0
8,89999,50,80000,4,60000,40,9999,0.100000,0,0,0.000000,6,0.000000,0.000000,0.445565,0,0,0,0,0,0,0
8,89999,51,80000,1,30000,40,9999,0.100000,0,0,0.000000,6,0.000000,0.000000,0.307418,0,0,0,0,0,0,0
8,89999,52,80000,77,10000,49,9999,0.100000,0,0,0.000000,6,1.000000,0.000000,6.330946,0,0,0,0,0,0,0
8,89999,53,80000,4,60000,40,9999,0.100000,0,0,0.000000,6,0.000000,0.000000,0.419161,0,0,0,0,0,0,0
8,89999,54,80000,4,40000,40,9999,0.100000,0,0,0.000000,6,0.000000,0.000000,0.487973,0,0,0,0,0,0,0
8,89999,55,80000,1,30000,49,9999,0.100000,0,0,0.000000,6,1.000000,0.000000,8.804762,0,0,0,0,0,0,0
8,89999,56,80000,4,60000,40,9999,0.100000,0,0,0.000000,6,0.000000,0.000000,2.180585,0,0,0,0,0,0,0
8,89999,57,80000,1,30000,49,9999,0.100000,0,0,0.000000,6,2.000000,0.000000,8.071146,0,0,0,0,0,0,0
8,89999,58,80000,77,10000,40,9999,0.100000,0,0,0.000000,6,0.000000,0.000000,23.181983,0,0,0,0,0,0,0
8,89999,59,80000,1,0,40,9999,0.100000,0,0,0.000000,6,0.000000,0.000000,2.094280,0,0,0,0,0,0,0
8,89999,60,80000,87,0,49,9999,0.100000,0,0,0.000000,6,1.000000,0.000000,4.413509,0,0,0,0,0,0,0
8,89999,61,80000,1,0,40,9999,0.100000,0,0,0.000000,6,0.000000,0.000000,4.878201,0,0,0,0,0,0,0
8,89999,62,80000,1,0,40,9999,0.100000,0,0,0.000000,6,0.000000,0.000000,0.241092,0,0,0,0,0,0,0
8,89999,63,80000,1,30000,49,9999,0.100000,0,0,0.000000,6,1.000000,0.000000,4.796714,0,0,0,0,0,0,0
8,89999,64,80000,77,10000,40,9999,0.100000,0,0,0.000000,6,0.000000,0.000000,0.413746,0,0,0,0,0,0,0
8,89999,65,80000,1,30000,40,9999,0.100000,0,0,0.000000,6,0.000000,0.000000,0.356597,0,0,0,0,0,0,0
8,89999,66,80000,87,0,49,9999,0.100000,0,0,0.000000,6,1.000000,0.000000,7.101716,0,0,0,0,0,0,0
8,89999,67,80000,1,30000,40,9999,0.100000,0,0,0.000000,6,0.000000,0.000000,0.406617,0,0,0,0,0,0,0
8,89999,68,80000,4,60000,40,9999,0.100000,0,0,0.000000,6,0.000000,0.000000,0.260217,0,0,0,0,0,0,0
8,89999,69,80000,4,70000,9,9999,0.100000,0,0,34.210526,6,2.000000,0.000000,9.742488,0,0,0,0,1,0,0
8,89999,70,80000,87,0,40,9999,0.100000,0,0,0.000000,6,0.000000,0.000000,1.289277,0,0,0,0,0,0,0
8,89999,71,80000,77,10000,9,9999,0.100000,0,0,34.210526,6,2.000000,0.000000,7.366000,0,0,0,0,1,0,0
8,89999,72,80000,77,10000,49,9999,0.100000,0,0,0.000000,6,2.000000,0.000000,4.300945,0,0,0,0,0,0,0
8,89999,73,80000,77,10000,49,9999,0.100000,0,0,0.000000,6,1.000000,0.000000,9.180102,0,0,0,0,0,0,0
8,89999,74,80000,4,40000,40,9999,0.100000,0,0,0.000000,6,0.000000,0.000000,1.105676,0,0,0,0,0,0,0
8,89999,75,80000,1,0,49,9999,0.100000,0,0,0.000000,6,1.000000,0.000000,4.550179,0,0,0,0,0,0,0
8,89999,76,80000,4,40000,40,9999,0.100000,0,0,0.000000,6,0.000000,0.000000,0.244530,0,0,0,0,0,0,0
8,89999,77,80000,4,70000,49,9999,0.100000,0,0,0.000000,6,4.000000,0.000000,9.837890,0,0,0,0,0,0,0
8,89999,78,80000,4,60000,40,9999,0.100000,0,0,0.000000,6,0.000000,0.000000,0.634559,0,0,0,0,0,0,0
8,89999,79,80000,4,60000,40,9999,0.100000,0,0,0.000000,6,0.000000,0.000000,0.735124,0,0,0,0,0,0,0
8,89999,80,80000,87,0,40,9999,0.100000,0,0,0.000000,6,0.000000,0.000000,6.114529,0,0,0,0,0,0,0
8,89999,81,80000,1,30000,49,9999,0.100000,0,0,0.000000,6,3.000000,0.000000,5.193856,0,0,0,0,0,0,0
8,89999,82,80000,87,0,40,9999,0.100000,0,0,0.000000,6,0.000000,0.000000,0.201806,0,0,0,0,0,0,0
8,89999,83,80000,1,0,40,9999,0.100000,0,0,0.000000,6,0.000000,0.000000,0.248807,0,0,0,0,0,0,0
8,89999,84,80000,1,30000,40,9999,0.100000,0,0,0.000000,6,0.000000,0.000000,1.205494,0,0,0,0,0,0,0
8,89999,85,80000,4,60000,40,9999,0.100000,0,0,0.000000,6,0.000000,0.000000,0.308217,0,0,0,0,0,0,0
8,89999,86,80000,1,30000,40,9999,0.100000,0,0,0.000000,6,0.000000,0.000000,0.619708,0,0,0,0,0,0,0
8,89999,87,80000,1,0,49,9999,0.100000,0,0,0.000000,6,2.000000,0.000000,4.821522,0,0,0,0,0,0,0
8,89999,88,80000,87,0,40,9999,0.100000,0,0,0.000000,6,0.000000,0.000000,6.759165,0,0,0,0,0,0,0
8,89999,89,80000,87,0,49,9999,0.100000,0,0,0.000000,6,5.000000,0.000000,12.461811,0,0,0,0,0,0,0
8,89999,90,80000,77,10000,49,9999,0.100000,0,0,0.000000,6,1.000000,0.000000,2.748773,0,0,0,0,0,0,0
8,89999,91,80000,87,0,40,9999,0.100000,0,0,0.000000,6,0.000000,0.000000,1.286585,0,0,0,0,0,0,0
8,89999,92,80000,87,0,40,9999,0.100000,0,0,0.000000,6,0.000000,0.000000,1.022713,0,0,0,0,0,0,0
8,89999,93,80000,77,10000,49,9999,0.100000,0,0,0.000000,6,2.000000,0.000000,5.105065,0,0,0,0,0,0,0
8,89999,94,80000,1,0,40,9999,0.100000,0,0,0.000000,6,0.000000,0.000000,2.586557,0,0,0,0,0,0,0
8,89999,95,80000,1,0,49,9999,0.100000,0,0,0.000000,6,3.000000,0.000000,3.618450,0,0,0,0,0,0,0
8,89999,96,80000,87,0,40,9999,0.100000,0,0,0.000000,6,0.000000,0.000000,0.083087,0,0,0,0,0,0,0
8,89999,97,80000,87,0,49,9999,0.100000,0,0,0.000000,6,5.000000,0.000000,10.431191,0,0,0,0,0,0,0
8,89999,98,80000,87,0,40,9999,0.100000,0,0,0.000000,6,0.000000,0.000000,0.177728,0,0,0,0,0,0,0
8,89999,99,80000,77,10000,40,9999,0.100000,0,0,0.000000,6,0.000000,0.000000,0.764290,0,0,0,0,0,0,0
9,99999,0,90000,1,30000,49,9999,0.100000,0,0,0.000000,6,2.000000,0.000000,9.278450,0,0,0,0,0,0,0
9,99999,1,90000,77,10000,49,9999,0.100000,0,0,0.000000,6,2.000000,0.000000,8.591435,0,0,0,0,0,0,0
9,99999,2,90000,9,80000,40,9999,0.100000,0,0,0.000000,6,0.000000,0.000000,1.074232,0,0,0,0,0,0,0
9,99999,3,90000,1,30000,40,9999,0.100000,0,0,0.000000,6,0.000000,0.000000,1.319874,0,0,0,0,0,0,0
9,99999,4,90000,1,30000,49,9999,0.100000,0,0,0.000000,6,4.000000,0.000000,6.452341,0,0,0,0,0,0,0
9,99999,5,90000,9,80000,49,9999,0.100000,0,0,0.000000,6,3.000000,0.000000,9.886394,0,0,0,0,0,0,0
9,99999,6,90000,4,70000,40,9999,0.100000,0,0,0.000000,6,0.000000,0.000000,0.524705,0,0,0,0,0,0,0
9,99999,7,90000,4,70000,40,9999,0.100000,0,0,0.000000,6,0.000000,0.000000,0.527410,0,0,0,0,0,0,0
9,99999,8,90000,9,80000,40,9999,0.100000,0,0,0.000000,6,0.000000,0.000000,0.615966,0,0,0,0,0,0,0
9,99999,9,90000,9,80000,40,9999,0.100000,0,0,0.000000,6,0.000000,0.000000,3.019452,0,0,0,0,0,0,0
9,99999,10,90000,77,10000,40,9999,0.100000,0,0,0.000000,6,0.000000,0.000000,1.200551,0,0,0,0,0,0,0
9,99999,11,90000,77,10000,49,9999,0.100000,0,0,0.000000,6,1.000000,0.000000,10.601760,0,0,0,0,0,0,0
9,99999,12,90000,1,30000,49,9999,0.100000,0,0,0.000000,6,4.000000,0.000000,4.630989,0,0,0,0,0,0,0
9,99999,13,90000,9,80000,40,9999,0.100000,0,0,0.000000,6,0.000000,0.000000,1.421495,0,0,0,0,0,0,0
9,99999,14,90000,4,60000,49,9999,0.100000,0,0,0.000000,6,2.000000,0.000000,4.348116,0,0,0,0,0,0,0
9,99999,15,90000,87,0,40,9999,0.100000,0,0,0.000000,6,0.000000,0.000000,0.438585,0,0,0,0,0,0,0
9,99999,16,90000,4,80000,49,9999,0.100000,0,0,0.000000,6,1.000000,0.000000,8.607623,0,0,0,0,0,0,0
9,99999,17,90000,1,30000,40,9999,0.100000,0,0,0.000000,6,0.000000,0.000000,2.441552,0,0,0,0,0,0,0
9,99999,18,90000,9,80000,40,9999,0.100000,0,0,0.000000,6,0.000000,0.000000,0.538777,0,0,0,0,0,0,0
9,99999,19,90000,9,80000,40,9999,0.100000,0,0,0.000000,6,0.000000,0.000000,23.928194,0,0,0,0,0,0,0
9,99999,20,90000,77,10000,40,9999,0.100000,0,0,0.000000,6,0.000000,0.000000,0.891734,0,0,0,0,0,0,0
9,99999,21,90000,77,10000,40,9999,0.100000,0,0,0.000000,6,0.000000,0.000000,0.518636,0,0,0,0,0,0,0
9,99999,22,90000,9,80000,49,9999,0.100000,0,0,0.000000,6,1.000000,0.000000,14.065379,0,0,0,0,0,0,0
9,99999,23,90000,87,0,40,9999,0.100000,0,0,0.000000,6,0.000000,0.000000,0.858872,0,0,0,0,0,0,0
9,99999,24,90000,9,80000,40,9999,0.100000,0,0,0.000000,6,0.000000,0.000000,0.107667,0,0,0,0,0,0,0
9,99999,25,90000,4,60000,49,9999,0.100000,0,0,0.000000,6,3.000000,0.000000,5.170420,0,0,0,0,0,0,0
9,99999,26,90000,77,10000,40,9999,0.100000,0,0,0.000000,6,0.000000,0.000000,1.214407,0,0,0,0,0,0,0
9,99999,27,90000,4,80000,40,9999,0.100000,0,0,0.000000,6,0.000000,0.000000,4.626487,0,0,0,0,0,0,0
9,99999,28,90000,4,80000,40,9999,0.100000,0,0,0.000000,6,0.000000,0.000000,0.706466,0,0,0,0,0,0,0
9,99999,29,90000,4,60000,40,9999,0.100000,0,0,0.000000,6,0.000000,0.000000,3.814263,0,0,0,0,0,0,0
9,99999,30,90000,1,30000,49,9999,0.100000,0,0,0.000000,6,2.000000,0.000000,9.712059,0,0,0,0,0,0,0
9,99999,31,90000,4,60000,40,9999,0.100000,0,0,0.000000,6,0.000000,0.000000,5.788521,0,0,0,0,0,0,0
9,99999,32,90000,9,80000,49,9999,0.100000,0,0,0.000000,6,4.000000,0.000000,9.704589,0,0,0,0,0,0,0
9,99999,33,90000,87,0,49,9999,0.100000,0,0,0.000000,6,3.000000,0.000000,13.618673,0,0,0,0,0,0,0
9,99999,34,90000,77,10000,49,9999,0.100000,0,0,0.000000,6,1.000000,0.000000,1.415621,0,0,0,0,0,0,0
9,99999,35,90000,87,0,49,9999,0.100000,0,0,0.000000,6,1.000000,0.000000,5.046596,0,0,0,0,0,0,0
9,99999,36,90000,4,60000,49,9999,0.100000,0,0,0.000000,6,2.000000,0.000000,11.198416,0,0,0,0,0,0,0
9,99999,37,90000,4,70000,40,9999,0.100000,0,0,0.000000,6,0.000000,0.000000,0.115304,0,0,0,0,0,0,0
9,99999,38,90000,4,80000,40,9999,0.100000,0,0,0.000000,6,0.000000,0.000000,0.466082,0,0,0,0,0,0,0
9,99999,39,90000,77,10000,49,9999,0.100000,0,0,0.000000,6,1.000000,0.000000,8.658251,0,0,0,0,0,0,0
9,99999,40,90000,4,70000,40,9999,0.100000,0,0,0.000000,6,0.000000,0.000000,0.527497,0,0,0,0,0,0,0
9,99999,41,90000,77,10000,49,9999,0.100000,0,0,0.000000,6,1.000000,0.000000,4.565276,0,0,0,0,0,0,0
9,99999,42,90000,4,80000,40,9999,0.100000,0,0,0.000000,6,0.000000,0.000000,4.837052,0,0,0,0,0,0,0
9,99999,43,90000,9,80000,49,9999,0.100000,0,0,0.000000,6,1.000000,0.000000,13.614085,0,0,0,0,0,0,0
9,99999,44,90000,1,30000,40,9999,0.100000,0,0,0.000000,6,0.000000,0.000000,0.856355,0,0,0,0,0,0,0
9,99999,45,90000,9,80000,40,9999,0.100000,0,0,0.000000,6,0.000000,0.000000,0.232895,0,0,0,0,0,0,0
9,99999,46,90000,4,80000,40,9999,0.100000,0,0,0.000000,6,0.000000,0.000000,6.465231,0,0,0,0,0,0,0
9,99999,47,90000,87,0,49,9999,0.100000,0,0,0.000000,6,1.000000,0.000000,9.369622,0,0,0,0,0,0,0
9,99999,48,90000,9,80000,40,9999,0.100000,0,0,0.000000,6,0.000000,0.000000,4.902921,0,0,0,0,0,0,0
9,99999,49,90000,77,10000,40,9999,0.100000,0,0,0.000000,6,0.000000,0.000000,0.375669,0,0,0,0,0,0,0
9,99999,50,90000,4,60000,40,9999,0.100000,0,0,0.000000,6,0.000000,0.000000,3.400812,0,0,0,0,0,0,0
9,99999,51,90000,9,80000,40,9999,0.100000,0,0,0.000000,6,0.000000,0.000000,0.310855,0,0,0,0,0,0,0
9,99999,52,90000,4,80000,40,9999,0.100000,0,0,0.000000,6,0.000000,0.000000,2.499597,0,0,0,0,0,0,0
9,99999,53,90000,4,80000,49,9999,0.100000,0,0,0.000000,6,4.000000,0.000000,4.234856,0,0,0,0,0,0,0
9,99999,54,90000,9,80000,40,9999,0.100000,0,0,0.000000,6,0.000000,0.000000,0.534382,0,0,0,0,0,0,0
9,99999,55,90000,4,70000,49,9999,0.100000,0,0,0.000000,6,1.000000,0.000000,13.199009,0,0,0,0,0,0,0
9,99999,56,90000,77,10000,40,9999,0.100000,0,0,0.000000,6,0.000000,0.000000,4.101655,0,0,0,0,0,0,0
9,99999,57,90000,4,80000,40,9999,0.100000,0,0,0.000000,6,0.000000,0.000000,5.572625,0,0,0,0,0,0,0
9,99999,58,90000,1,30000,40,9999,0.100000,0,0,0.000000,6,0.000000,0.000000,23.741155,0,0,0,0,0,0,0
9,99999,59,90000,9,80000,49,9999,0.100000,0,0,0.000000,6,1.000000,0.000000,10.113277,0,0,0,0,0,0,0
9,99999,60,90000,77,10000,49,9999,0.100000,0,0,0.000000,6,4.000000,0.000000,6.616713,0,0,0,0,0,0,0
9,99999,61,90000,87,0,49,9999,0.100000,0,0,0.000000,6,3.000000,0.000000,10.547710,0,0,0,0,0,0,0
9,99999,62,90000,9,80000,40,9999,0.100000,0,0,0.000000,6,0.000000,0.000000,0.280031,0,0,0,0,0,0,0
9,99999,63,90000,4,60000,49,9999,0.100000,0,0,0.000000,6,1.000000,0.000000,13.049147,0,0,0,0,0,0,0
9,99999,64,90000,1,30000,49,9999,0.100000,0,0,0.000000,6,4.000000,0.000000,4.459348,0,0,0,0,0,0,0
9,99999,65,90000,9,80000,40,9999,0.100000,0,0,0.000000,6,0.000000,0.000000,0.705409,0,0,0,0,0,0,0
9,99999,66,90000,1,30000,40,9999,0.100000,0,0,0.000000,6,0.000000,0.000000,5.732599,0,0,0,0,0,0,0
9,99999,67,90000,77,10000,40,9999,0.100000,0,0,0.000000,6,0.000000,0.000000,1.215678,0,0,0,0,0,0,0
9,99999,68,90000,4,60000,40,9999,0.100000,0,0,0.000000,6,0.000000,0.000000,0.184053,0,0,0,0,0,0,0
9,99999,69,90000,4,60000,49,9999,0.100000,0,0,0.000000,6,2.000000,0.000000,8.548516,0,0,0,0,0,0,0
9,99999,70,90000,4,60000,40,9999,0.100000,0,0,0.000000,6,0.000000,0.000000,0.982760,0,0,0,0,0,0,0
9,99999,71,90000,87,0,49,9999,0.100000,0,0,0.000000,6,3.000000,0.000000,12.350914,0,0,0,0,0,0,0
9,99999,72,90000,87,0,40,9999,0.100000,0,0,0.000000,6,0.000000,0.000000,1.040436,0,0,0,0,0,0,0
9,99999,73,90000,4,60000,49,9999,0.100000,0,0,0.000000,6,3.000000,0.000000,9.221818,0,0,0,0,0,0,0
9,99999,74,90000,4,70000,40,9999,0.100000,0,0,0.000000,6,0.000000,0.000000,1.139517,0,0,0,0,0,0,0
9,99999,75,90000,1,30000,49,9999,0.100000,0,0,0.000000,6,4.000000,0.000000,7.087113,0,0,0,0,0,0,0
9,99999,76,90000,77,10000,40,9999,0.100000,0,0,0.000000,6,0.000000,0.000000,0.223539,0,0,0,0,0,0,0
9,99999,77,90000,87,0,49,9999,0.100000,0,0,0.000000,6,1.000000,0.000000,8.606603,0,0,0,0,0,0,0
9,99999,78,90000,1,30000,40,9999,0.100000,0,0,0.000000,6,0.000000,0.000000,1.098595,0,0,0,0,0,0,0
9,99999,79,90000,4,80000,40,9999,0.100000,0,0,0.000000,6,0.000000,0.000000,0.776670,0,0,0,0,0,0,0
9,99999,80,90000,4,60000,40,9999,0.100000,0,0,0.000000,6,0.000000,0.000000,5.402685,0,0,0,0,0,0,0
9,99999,81,90000,9,80000,49,9999,0.100000,0,0,0.000000,6,4.000000,0.000000,8.780963,0,0,0,0,0,0,0
9,99999,82,90000,4,80000,40,9999,0.100000,0,0,0.000000,6,0.000000,0.000000,0.207798,0,0,0,0,0,0,0
9,99999,83,90000,1,30000,40,9999,0.100000,0,0,0.000000,6,0.000000,0.000000,0.278463,0,0,0,0,0,0,0
9,99999,84,90000,4,80000,40,9999,0.100000,0,0,0.000000,6,0.000000,0.000000,1.312229,0,0,0,0,0,0,0
9,99999,85,90000,9,80000,40,9999,0.100000,0,0,0.000000,6,0.000000,0.000000,5.003844,0,0,0,0,0,0,0
9,99999,86,90000,77,10000,40,9999,0.100000,0,0,0.000000,6,0.000000,0.000000,0.895758,0,0,0,0,0,0,0
9,99999,87,90000,87,0,49,9999,0.100000,0,0,0.000000,6,3.000000,0.000000,10.868692,0,0,0,0,0,0,0
9,99999,88,90000,1,30000,49,9999,0.100000,0,0,0.000000,6,1.000000,0.000000,11.975567,0,0,0,0,0,0,0
9,99999,89,90000,4,60000,49,9999,0.100000,0,0,0.000000,6,1.000000,0.000000,6.731437,0,0,0,0,0,0,0
9,99999,90,90000,77,10000,40,9999,0.100000,0,0,0.000000,6,0.000000,0.000000,1.012949,0,0,0,0,0,0,0
9,99999,91,90000,1,30000,40,9999,0.100000,0,0,0.000000,6,0.000000,0.000000,1.357333,0,0,0,0,0,0,0
9,99999,92,90000,4,80000,40,9999,0.100000,0,0,0.000000,6,0.000000,0.000000,0.567366,0,0,0,0,0,0,0
9,99999,93,90000,77,10000,49,9999,0.100000,0,0,0.000000,6,11.000000,0.000000,17.467698,0,0,0,0,0,0,0
9,99999,94,90000,4,80000,49,9999,0.100000,0,0,0.000000,6,1.000000,0.000000,3.686545,0,0,0,0,0,0,0
9,99999,95,90000,77,10000,40,9999,0.100000,0,0,0.000000,6,0.000000,0.000000,2.868938,0,0,0,0,0,0,0
9,99999,96,90000,1,30000,40,9999,0.100000,0,0,0.000000,6,0.000000,0.000000,0.085527,0,0,0,0,0,0,0
9,99999,97,90000,77,10000,49,9999,0.100000,0,0,0.000000,6,1.000000,0.000000,3.356625,0,0,0,0,0,0,0
9,99999,98,90000,4,80000,40,9999,0.100000,0,0,0.000000,6,0.000000,0.000000,0.066922,0,0,0,0,0,0,0
9,99999,99,90000,9,80000,40,9999,0.100000,0,0,0.000000,6,0.000000,0.000000,0.751283,0,0,0,0,0,0,0
10,109999,0,100000,4,60000,49,9999,0.100000,0,0,0.000000,6,2.000000,0.000000,10.935455,0,0,0,0,0,0,0
10,109999,1,100000,1,30000,40,9999,0.100000,0,0,0.000000,6,0.000000,0.000000,0.917991,0,0,0,0,0,0,0
10,109999,2,100000,1,30000,40,9999,0.100000,0,0,0.000000,6,0.000000,0.000000,0.097308,0,0,0,0,0,0,0
10,109999,3,100000,77,10000,49,9999,0.100000,0,0,0.000000,6,1.000000,0.000000,1.495764,0,0,0,0,0,0,0
10,109999,4,100000,87,0,49,9999,0.100000,0,0,0.000000,6,4.000000,0.000000,9.697980,0,0,0,0,0,0,0
10,109999,5,100000,4,60000,49,9999,0.100000,0,0,0.000000,6,2.000000,0.000000,9.895113,0,0,0,0,0,0,0
10,109999,6,100000,77,10000,40,9999,0.100000,0,0,0.000000,6,0.000000,0.000000,0.544989,0,0,0,0,0,0,0
10,109999,7,100000,4,60000,49,9999,0.100000,0,0,0.000000,6,2.000000,0.000000,2.094569,0,0,0,0,0,0,0
10,109999,8,100000,77,10000,40,9999,0.100000,0,0,0.000000,6,0.000000,0.000000,15.004769,0,0,0,0,0,0,0
10,109999,9,100000,87,0,40,9999,0.100000,0,0,0.000000,6,0.000000,0.000000,0.512773,0,0,0,0,0,0,0
10,109999,10,100000,4,60000,40,9999,0.100000,0,0,0.000000,6,0.000000,0.000000,1.102348,0,0,0,0,0,0,0
10,109999,11,100000,9,80000,49,9999,0.100000,0,0,0.000000,6,4.000000,0.000000,9.703712,0,0,0,0,0,0,0
10,109999,12,100000,9,80000,49,9999,0.100000,0,0,0.000000,6,1.000000,0.000000,1.289690,0,0,0,0,0,0,0
10,109999,13,100000,4,60000,40,9999,0.100000,0,0,0.000000,6,0.000000,0.000000,0.698793,0,0,0,0,0,0,0
10,109999,14,100000,4,60000,49,9999,0.100000,0,0,0.000000,6,2.000000,0.000000,11.247168,0,0,0,0,0,0,0
10,109999,15,100000,1,30000,40,9999,0.100000,0,0,0.000000,6,0.000000,0.000000,0.463304,0,0,0,0,0,0,0
10,109999,16,100000,4,80000,49,9999,0.100000,0,0,0.000000,6,1.000000,0.000000,7.675905,0,0,0,0,0,0,0
10,109999,17,100000,1,30000,40,9999,0.100000,0,0,0.000000,6,0.000000,0.000000,0.739250,0,0,0,0,0,0,0
10,109999,18,100000,1,30000,40,9999,0.100000,0,0,0.000000,6,0.000000,0.000000,0.559667,0,0,0,0,0,0,0
10,109999,19,100000,77,10000,40,9999,0.100000,0,0,0.000000,6,0.000000,0.000000,23.997402,0,0,0,0,0,0,0
10,109999,20,100000,87,0,40,9999,0.100000,0,0,0.000000,6,0.000000,0.000000,0.879801,0,0,0,0,0,0,0
10,109999,21,100000,4,60000,40,9999,0.100000,0,0,0.000000,6,0.000000,0.000000,1.640769,0,0,0,0,0,0,0
10,109999,22,100000,4,60000,40,9999,0.100000,0,0,0.000000,6,0.000000,0.000000,4.739311,0,0,0,0,0,0,0
10,109999,23,100000,1,30000,40,9999,0.100000,0,0,0.000000,6,0.000000,0.000000,0.885352,0,0,0,0,0,0,0
10,109999,24,100000,4,60000,40,9999,0.100000,0,0,0.000000,6,0.000000,0.000000,0.106562,0,0,0,0,0,0,0
10,109999,25,100000,4,80000,40,9999,0.100000,0,0,0.000000,6,0.000000,0.000000,2.291174,0,0,0,0,0,0,0
10,109999,26,100000,4,80000,40,9999,0.100000,0,0,0.000000,6,0.000000,0.000000,1.348893,0,0,0,0,0,0,0
10,109999,27,100000,1,30000,49,9999,0.100000,0,0,0.000000,6,1.000000,0.000000,2.945913,0,0,0,0,0,0,0
10,109999,28,100000,9,80000,49,9999,0.100000,0,0,0.000000,6,1.000000,0.000000,3.760497,0,0,0,0,0,0,0
10,109999,29,100000,9,80000,40,9999,0.100000,0,0,0.000000,6,0.000000,0.000000,3.912765,0,0,0,0,0,0,0
10,109999,30,100000,4,60000,49,9999,0.100000,0,0,0.000000,6,1.000000,0.000000,18.292878,0,0,0,0,0,0,0
10,109999,31,100000,87,0,49,9999,0.100000,0,0,0.000000,6,3.000000,0.000000,16.373281,0,0,0,0,0,0,0
10,109999,32,100000,87,0,49,9999,0.100000,0,0,0.000000,6,1.000000,0.000000,16.181891,0,0,0,0,0,0,0
10,109999,33,100000,4,80000,49,9999,0.100000,0,0,0.000000,6,3.000000,0.000000,5.754460,0,0,0,0,0,0,0
10,109999,34,100000,9,80000,40,9999,0.100000,0,0,0.000000,6,0.000000,0.000000,1.633074,0,0,0,0,0,0,0
10,109999,35,100000,9,80000,40,9999,0.100000,0,0,0.000000,6,0.000000,0.000000,1.658793,0,0,0,0,0,0,0
10,109999,36,100000,4,80000,49,9999,0.100000,0,0,0.000000,6,3.000000,0.000000,17.752136,0,0,0,0,0,0,0
10,109999,37,100000,1,30000,40,9999,0.100000,0,0,0.000000,6,0.000000,0.000000,0.113754,0,0,0,0,0,0,0
10,109999,38,100000,9,80000,49,9999,0.100000,0,0,0.000000,6,2.000000,0.000000,2.305371,0,0,0,0,0,0,0
10,109999,39,100000,87,0,49,9999,0.100000,0,0,0.000000,6,1.000000,0.000000,2.701428,0,0,0,0,0,0,0
10,109999,40,100000,4,60000,40,9999,0.100000,0,0,0.000000,6,0.000000,0.000000,0.608011,0,0,0,0,0,0,0
10,109999,41,100000,77,10000,40,9999,0.100000,0,0,0.000000,6,0.000000,0.000000,3.946609,0,0,0,0,0,0,0
10,109999,42,100000,77,10000,40,9999,0.100000,0,0,0.000000,6,0.000000,0.000000,3.809574,0,0,0,0,0,0,0
10,109999,43,100000,4,80000,49,9999,0.100000,0,0,0.000000,6,1.000000,0.000000,18.572056,0,0,0,0,0,0,0
10,109999,44,100000,4,80000,40,9999,0.100000,0,0,0.000000,6,0.000000,0.000000,0.615417,0,0,0,0,0,0,0
10,109999,45,100000,4,80000,40,9999,0.100000,0,0,0.000000,6,0.000000,0.000000,0.239683,0,0,0,0,0,0,0
10,109999,46,100000,1,30000,49,9999,0.100000,0,0,0.000000,6,1.000000,0.000000,9.366071,0,0,0,0,0,0,0
10,109999,47,100000,1,30000,49,9999,0.100000,0,0,0.000000,6,1.000000,0.000000,10.651106,0,0,0,0,0,0,0
10,109999,48,100000,1,30000,40,9999,0.100000,0,0,0.000000,6,0.000000,0.000000,0.772447,0,0,0,0,0,0,0
10,109999,49,100000,4,80000,40,9999,0.100000,0,0,0.000000,6,0.000000,0.000000,0.359148,0,0,0,0,0,0,0
10,109999,50,100000,4,80000,49,9999,0.100000,0,0,0.000000,6,7.000000,0.000000,16.033319,0,0,0,0,0,0,0
10,109999,51,100000,77,10000,40,9999,0.100000,0,0,0.000000,6,0.000000,0.000000,0.317845,0,0,0,0,0,0,0
10,109999,52,100000,9,80000,49,9999,0.100000,0,0,0.000000,6,2.000000,0.000000,7.553467,0,0,0,0,0,0,0
10,109999,53,100000,4,80000,49,9999,0.100000,0,0,0.000000,6,1.000000,0.000000,1.250468,0,0,0,0,0,0,0
10,109999,54,100000,9,80000,40,9999,0.100000,0,0,0.000000,6,0.000000,0.000000,0.504515,0,0,0,0,0,0,0
10,109999,55,100000,9,80000,40,9999,0.100000,0,0,0.000000,6,0.000000,0.000000,9.022932,0,0,0,0,0,0,0
10,109999,56,100000,1,30000,49,9999,0.100000,0,0,0.000000,6,1.000000,0.000000,3.423703,0,0,0,0,0,0,0
10,109999,57,100000,1,30000,40,9999,0.100000,0,0,0.000000,6,0.000000,0.000000,2.404912,0,0,0,0,0,0,0
10,109999,58,90000,1,30000,40,19999,0.100000,0,0,0.000000,6,0.000000,0.000000,23.549532,0,0,0,0,0,0,0
10,109999,59,100000,4,80000,40,9999,0.100000,0,0,0.000000,6,0.000000,0.000000,3.523010,0,0,0,0,0,0,0
10,109999,60,100000,1,30000,49,9999,0.100000,0,0,0.000000,6,1.000000,0.000000,4.890645,0,0,0,0,0,0,0
10,109999,61,100000,87,0,49,9999,0.100000,0,0,0.000000,6,1.000000,0.000000,14.004375,0,0,0,0,0,0,0
10,109999,62,100000,87,0,40,9999,0.100000,0,0,0.000000,6,0.000000,0.000000,2.767873,0,0,0,0,0,0,0
10,109999,63,100000,87,0,49,9999,0.100000,0,0,0.000000,6,3.000000,0.000000,16.072961,0,0,0,0,0,0,0
10,109999,64,100000,4,80000,49,9999,0.100000,0,0,0.000000,6,1.000000,0.000000,1.501386,0,0,0,0,0,0,0
10,109999,65,100000,9,80000,40,9999,0.100000,0,0,0.000000,6,0.000000,0.000000,1.103180,0,0,0,0,0,0,0
10,109999,66,100000,87,0,49,9999,0.100000,0,0,0.000000,6,1.000000,0.000000,15.065169,0,0,0,0,0,0,0
10,109999,67,100000,9,80000,40,9999,0.100000,0,0,0.000000,6,0.000000,0.000000,1.384164,0,0,0,0,0,0,0
10,109999,68,100000,4,80000,40,9999,0.100000,0,0,0.000000,6,0.000000,0.000000,0.192562,0,0,0,0,0,0,0
10,109999,69,100000,4,80000,40,9999,0.100000,0,0,0.000000,6,0.000000,0.000000,1.773634,0,0,0,0,0,0,0
10,109999,70,100000,87,0,49,9999,0.100000,0,0,0.000000,6,2.000000,0.000000,2.264800,0,0,0,0,0,0,0
10,109999,71,100000,87,0,49,9999,0.100000,0,0,0.000000,6,1.000000,0.000000,9.592400,0,0,0,0,0,0,0
10,109999,72,100000,9,80000,40,9999,0.100000,0,0,0.000000,6,0.000000,0.000000,0.976234,0,0,0,0,0,0,0
10,109999,73,100000,4,80000,49,9999,0.100000,0,0,0.000000,6,3.000000,0.000000,8.581380,0,0,0,0,0,0,0
10,109999,74,100000,4,80000,40,9999,0.100000,0,0,0.000000,6,0.000000,0.000000,1.042742,0,0,0,0,0,0,0
10,109999,75,100000,77,10000,49,9999,0.100000,0,0,0.000000,6,1.000000,0.000000,1.471743,0,0,0,0,0,0,0
10,109999,76,100000,4,80000,40,9999,0.100000,0,0,0.000000,6,0.000000,0.000000,0.226090,0,0,0,0,0,0,0
10,109999,77,100000,1,30000,49,9999,0.100000,0,0,0.000000,6,3.000000,0.000000,14.233641,0,0,0,0,0,0,0
10,109999,78,100000,9,80000,40,9999,0.100000,0,0,0.000000,6,0.000000,0.000000,0.724873,0,0,0,0,0,0,0
10,109999,79,100000,1,30000,40,9999,0.100000,0,0,0.000000,6,0.000000,0.000000,0.790628,0,0,0,0,0,0,0
10,109999,80,100000,87,0,49,9999,0.100000,0,0,0.000000,6,1.000000,0.000000,19.379131,0,0,0,0,0,0,0
10,109999,81,100000,87,0,49,9999,0.100000,0,0,0.000000,6,2.000000,0.000000,9.534906,0,0,0,0,0,0,0
10,109999,82,100000,87,0,40,9999,0.100000,0,0,0.000000,6,0.000000,0.000000,0.205507,0,0,0,0,0,0,0
10,109999,83,100000,9,80000,40,9999,0.100000,0,0,0.000000,6,0.000000,0.000000,0.308524,0,0,0,0,0,0,0
10,109999,84,100000,9,80000,40,9999,0.100000,0,0,0.000000,6,0.000000,0.000000,0.071725,0,0,0,0,0,0,0
10,109999,85,100000,87,0,40,9999,0.100000,0,0,0.000000,6,0.000000,0.000000,15.180424,0,0,0,0,0,0,0
10,109999,86,100000,1,30000,40,9999,0.100000,0,0,0.000000,6,0.000000,0.000000,1.354231,0,0,0,0,0,0,0
10,109999,87,100000,87,0,49,9999,0.100000,0,0,0.000000,6,7.000000,0.000000,16.820282,0,0,0,0,0,0,0
10,109999,88,100000,1,30000,49,9999,0.100000,0,0,0.000000,6,1.000000,0.000000,4.132408,0,0,0,0,0,0,0
10,109999,89,100000,4,60000,49,9999,0.100000,0,0,0.000000,6,3.000000,0.000000,12.864439,0,0,0,0,0,0,0
10,109999,90,100000,77,10000,40,9999,0.100000,0,0,0.000000,6,0.000000,0.000000,0.836386,0,0,0,0,0,0,0
10,109999,91,100000,87,0,40,9999,0.100000,0,0,0.000000,6,0.000000,0.000000,1.332676,0,0,0,0,0,0,0
10,109999,92,100000,9,80000,49,9999,0.100000,0,0,0.000000,6,2.000000,0.000000,2.191980,0,0,0,0,0,0,0
10,109999,93,100000,77,10000,49,9999,0.100000,0,0,0.000000,6,1.000000,0.000000,1.476957,0,0,0,0,0,0,0
10,109999,94,100000,87,0,49,9999,0.100000,0,0,0.000000,6,3.000000,0.000000,17.486244,0,0,0,0,0,0,0
10,109999,95,100000,4,80000,40,9999,0.100000,0,0,0.000000,6,0.000000,0.000000,5.211806,0,0,0,0,0,0,0
10,109999,96,100000,1,30000,40,9999,0.100000,0,0,0.000000,6,0.000000,0.000000,0.084763,0,0,0,0,0,0,0
10,109999,97,100000,87,0,40,9999,0.100000,0,0,0.000000,6,0.000000,0.000000,9.016887,0,0,0,0,0,0,0
10,109999,98,100000,77,10000,40,9999,0.100000,0,0,0.000000,6,0.000000,0.000000,0.073902,0,0,0,0,0,0,0
10,109999,99,100000,9,80000,40,9999,0.100000,0,0,0.000000,6,0.000000,0.000000,0.771844,0,0,0,0,0,0,0
11,119999,0,110000,4,80000,49,9999,0.100000,0,0,0.000000,6,1.000000,0.000000,8.226428,0,0,0,0,0,0,0
11,119999,1,110000,9,80000,40,9999,0.100000,0,0,0.000000,6,0.000000,0.000000,1.005891,0,0,0,0,0,0,0
11,119999,2,110000,9,80000,40,9999,0.100000,0,0,0.000000,6,0.000000,0.000000,0.094883,0,0,0,0,0,0,0
11,119999,3,110000,87,0,49,9999,0.100000,0,0,0.000000,6,1.000000,0.000000,2.338668,0,0,0,0,0,0,0
11,119999,4,110000,9,80000,49,9999,0.100000,0,0,0.000000,6,2.000000,0.000000,7.374647,0,0,0,0,0,0,0
11,119999,5,110000,9,80000,49,9999,0.100000,0,0,0.000000,6,1.000000,0.000000,7.829742,0,0,0,0,0,0,0
11,119999,6,110000,87,0,40,9999,0.100000,0,0,0.000000,6,0.000000,0.000000,0.649519,0,0,0,0,0,0,0
11,119999,7,110000,77,10000,40,9999,0.100000,0,0,0.000000,6,0.000000,0.000000,1.443606,0,0,0,0,0,0,0
11,119999,8,110000,77,10000,40,9999,0.100000,0,0,0.000000,6,0.000000,0.000000,2.750259,0,0,0,0,0,0,0
11,119999,9,110000,87,0,40,9999,0.100000,0,0,0.000000,6,0.000000,0.000000,11.268879,0,0,0,0,0,0,0
11,119999,10,110000,87,0,40,9999,0.100000,0,0,0.000000,6,0.000000,0.000000,1.203163,0,0,0,0,0,0,0
11,119999,11,110000,1,30000,49,9999,0.100000,0,0,0.000000,6,1.000000,0.000000,4.702692,0,0,0,0,0,0,0
11,119999,12,110000,1,30000,40,9999,0.100000,0,0,0.000000,6,0.000000,0.000000,0.824127,0,0,0,0,0,0,0
11,119999,13,110000,77,10000,40,9999,0.100000,0,0,0.000000,6,0.000000,0.000000,0.141586,0,0,0,0,0,0,0
11,119999,14,110000,77,10000,49,9999,0.100000,0,0,0.000000,6,3.000000,0.000000,13.932900,0,0,0,0,0,0,0
11,119999,15,110000,9,80000,40,9999,0.100000,0,0,0.000000,6,0.000000,0.000000,0.489889,0,0,0,0,0,0,0
11,119999,16,110000,9,80000,49,9999,0.100000,0,0,0.000000,6,2.000000,0.000000,11.422777,0,0,0,0,0,0,0
11,119999,17,110000,1,30000,40,9999,0.100000,0,0,0.000000,6,0.000000,0.000000,0.275007,0,0,0,0,0,0,0
11,119999,18,110000,4,80000,40,9999,0.100000,0,0,0.000000,6,0.000000,0.000000,0.598462,0,0,0,0,0,0,0
11,119999,19,110000,1,30000,40,9999,0.100000,0,0,0.000000,6,0.000000,0.000000,10.243138,0,0,0,0,0,0,0
11,119999,20,110000,4,80000,40,9999,0.100000,0,0,0.000000,6,0.000000,0.000000,0.889888,0,0,0,0,0,0,0
11,119999,21,110000,87,0,40,9999,0.100000,0,0,0.000000,6,0.000000,0.000000,0.617348,0,0,0,0,0,0,0
11,119999,22,110000,1,30000,40,9999,0.100000,0,0,0.000000,6,0.000000,0.000000,0.720530,0,0,0,0,0,0,0
11,119999,23,110000,87,0,40,9999,0.100000,0,0,0.000000,6,0.000000,0.000000,0.326309,0,0,0,0,0,0,0
11,119999,24,110000,4,60000,40,9999,0.100000,0,0,0.000000,6,0.000000,0.000000,0.106502,0,0,0,0,0,0,0
11,119999,25,110000,77,10000,49,9999,0.100000,0,0,0.000000,6,3.000000,0.000000,8.025363,0,0,0,0,0,0,0
11,119999,26,110000,77,10000,49,9999,0.100000,0,0,0.000000,6,1.000000,0.000000,1.782558,0,0,0,0,0,0,0
11,119999,27,110000,87,0,49,9999,0.100000,0,0,0.000000,6,4.000000,0.000000,14.260937,0,0,0,0,0,0,0
11,119999,28,110000,77,10000,40,9999,0.100000,0,0,0.000000,6,0.000000,0.000000,4.440978,0,0,0,0,0,0,0
11,119999,29,110000,87,0,40,9999,0.100000,0,0,0.000000,6,0.000000,0.000000,0.713115,0,0,0,0,0,0,0
11,119999,30,110000,1,30000,49,9999,0.100000,0,0,0.000000,6,2.000000,0.000000,19.095933,0,0,0,0,0,0,0
11,119999,31,110000,4,80000,49,9999,0.100000,0,0,0.000000,6,1.000000,0.000000,16.915835,0,0,0,0,0,0,0
11,119999,32,110000,77,10000,49,9999,0.100000,0,0,0.000000,6,1.000000,0.000000,18.434223,0,0,0,0,0,0,0
11,119999,33,110000,87,0,40,9999,0.100000,0,0,0.000000,6,0.000000,0.000000,2.403829,0,0,0,0,0,0,0
11,119999,34,110000,77,10000,40,9999,0.100000,0,0,0.000000,6,0.000000,0.000000,2.923643,0,0,0,0,0,0,0
11,119999,35,110000,87,0,49,9999,0.100000,0,0,0.000000,6,1.000000,0.000000,19.728580,0,0,0,0,0,0,0
11,119999,36,110000,4,80000,49,9999,0.100000,0,0,0.000000,6,3.000000,0.000000,14.368062,0,0,0,0,0,0,0
11,119999,37,110000,4,60000,40,9999,0.100000,0,0,0.000000,6,0.000000,0.000000,0.115402,0,0,0,0,0,0,0
11,119999,38,110000,9,80000,40,9999,0.100000,0,0,0.000000,6,0.000000,0.000000,1.284443,0,0,0,0,0,0,0
11,119999,39,110000,4,60000,40,9999,0.100000,0,0,0.000000,6,0.000000,0.000000,0.059484,0,0,0,0,0,0,0
11,119999,40,110000,4,60000,40,9999,0.100000,0,0,0.000000,6,0.000000,0.000000,0.735667,0,0,0,0,0,0,0
11,119999,41,110000,17,100000,49,9999,0.100000,0,0,0.000000,6,11.000000,0.000000,23.605366,0,0,0,0,0,0,0
11,119999,42,110000,17,100000,40,9999,0.100000,0,0,0.000000,6,0.000000,0.000000,4.093512,0,0,0,0,0,0,0
11,119999,43,100000,4,80000,49,19999,0.100000,0,0,0.000000,6,1.000000,0.000000,9.148283,0,0,0,0,0,0,0
11,119999,44,110000,87,0,40,9999,0.100000,0,0,0.000000,6,0.000000,0.000000,0.779059,0,0,0,0,0,0,0
11,119999,45,110000,1,30000,40,9999,0.100000,0,0,0.000000,6,0.000000,0.000000,0.235962,0,0,0,0,0,0,0
11,119999,46,110000,1,30000,49,9999,0.100000,0,0,0.000000,6,1.000000,0.000000,13.732427,0,0,0,0,0,0,0
11,119999,47,110000,1,30000,40,9999,0.100000,0,0,0.000000,6,0.000000,0.000000,15.524152,0,0,0,0,0,0,0
11,119999,48,110000,87,0,49,9999,0.100000,0,0,0.000000,6,1.000000,0.000000,13.850340,0,0,0,0,0,0,0
11,119999,49,110000,77,10000,40,9999,0.100000,0,0,0.000000,6,0.000000,0.000000,0.365853,0,0,0,0,0,0,0
11,119999,50,110000,4,60000,49,9999,0.100000,0,0,0.000000,6,3.000000,0.000000,5.859327,0,0,0,0,0,0,0
11,119999,51,110000,87,0,40,9999,0.100000,0,0,0.000000,6,0.000000,0.000000,0.321144,0,0,0,0,0,0,0
11,119999,52,110000,87,0,40,9999,0.100000,0,0,0.000000,6,0.000000,0.000000,10.162579,0,0,0,0,0,0,0
11,119999,53,110000,87,0,40,9999,0.100000,0,0,0.000000,6,0.000000,0.000000,0.932521,0,0,0,0,0,0,0
11,119999,54,110000,4,80000,40,9999,0.100000,0,0,0.000000,6,0.000000,0.000000,0.478436,0,0,0,0,0,0,0
11,119999,55,110000,9,80000,49,9999,0.100000,0,0,0.000000,6,3.000000,0.000000,9.478291,0,0,0,0,0,0,0
11,119999,56,110000,87,0,49,9999,0.100000,0,0,0.000000,6,3.000000,0.000000,21.601785,0,0,0,0,0,0,0
11,119999,57,110000,4,80000,49,9999,0.100000,0,0,0.000000,6,1.000000,0.000000,5.602576,0,0,0,0,0,0,0
11,119999,58,110000,4,60000,40,9999,0.100000,0,0,0.000000,6,0.000000,0.000000,23.688086,0,0,0,0,0,0,0
11,119999,59,110000,4,80000,49,9999,0.100000,0,0,0.000000,6,1.000000,0.000000,4.211862,0,0,0,0,0,0,0
11,119999,60,110000,4,80000,49,9999,0.100000,0,0,0.000000,6,3.000000,0.000000,7.160359,0,0,0,0,0,0,0
11,119999,61,110000,1,30000,49,9999,0.100000,0,0,0.000000,6,2.000000,0.000000,16.015530,0,0,0,0,0,0,0
11,119999,62,110000,9,80000,40,9999,0.100000,0,0,0.000000,6,0.000000,0.000000,1.730624,0,0,0,0,0,0,0
11,119999,63,110000,9,80000,49,9999,0.100000,0,0,0.000000,6,2.000000,0.000000,16.104719,0,0,0,0,0,0,0
11,119999,64,110000,87,0,40,9999,0.100000,0,0,0.000000,6,0.000000,0.000000,1.115484,0,0,0,0,0,0,0
11,119999,65,110000,9,80000,40,9999,0.100000,0,0,0.000000,6,0.000000,0.000000,0.313767,0,0,0,0,0,0,0
11,119999,66,110000,17,100000,49,9999,0.100000,0,0,0.000000,6,2.000000,0.000000,7.198669,0,0,0,0,0,0,0
11,119999,67,110000,87,0,40,9999,0.100000,0,0,0.000000,6,0.000000,0.000000,1.284250,0,0,0,0,0,0,0
11,119999,68,110000,77,10000,40,9999,0.100000,0,0,0.000000,6,0.000000,0.000000,0.193006,0,0,0,0,0,0,0
11,119999,69,110000,4,80000,40,9999,0.100000,0,0,0.000000,6,0.000000,0.000000,1.773953,0,0,0,0,0,0,0
11,119999,70,110000,4,80000,49,9999,0.100000,0,0,0.000000,6,1.000000,0.000000,7.262648,0,0,0,0,0,0,0
11,119999,71,110000,4,80000,40,9999,0.100000,0,0,0.000000,6,0.000000,0.000000,1.443567,0,0,0,0,0,0,0
11,119999,72,110000,77,10000,40,9999,0.100000,0,0,0.000000,6,0.000000,0.000000,1.170763,0,0,0,0,0,0,0
11,119999,73,110000,17,100000,49,9999,0.100000,0,0,0.000000,6,7.000000,0.000000,23.926771,0,0,0,0,0,0,0
11,119999,74,110000,4,80000,40,9999,0.100000,0,0,0.000000,6,0.000000,0.000000,1.218458,0,0,0,0,0,0,0
11,119999,75,110000,1,30000,40,9999,0.100000,0,0,0.000000,6,0.000000,0.000000,1.084430,0,0,0,0,0,0,0
11,119999,76,110000,9,80000,40,9999,0.100000,0,0,0.000000,6,0.000000,0.000000,0.233566,0,0,0,0,0,0,0
11,119999,77,110000,87,0,49,9999,0.100000,0,0,0.000000,6,2.000000,0.000000,10.098213,0,0,0,0,0,0,0
11,119999,78,110000,77,10000,40,9999,0.100000,0,0,0.000000,6,0.000000,0.000000,0.487690,0,0,0,0,0,0,0
11,119999,79,110000,77,10000,40,9999,0.100000,0,0,0.000000,6,0.000000,0.000000,0.834316,0,0,0,0,0,0,0
11,119999,80,110000,9,80000,40,9999,0.100000,0,0,0.000000,6,0.000000,0.000000,2.265755,0,0,0,0,0,0,0
11,119999,81,110000,9,80000,49,9999,0.100000,0,0,0.000000,6,1.000000,0.000000,6.190020,0,0,0,0,0,0,0
11,119999,82,110000,17,100000,40,9999,0.100000,0,0,0.000000,6,0.000000,0.000000,0.201752,0,0,0,0,0,0,0
11,119999,83,110000,77,10000,40,9999,0.100000,0,0,0.000000,6,0.000000,0.000000,0.458665,0,0,0,0,0,0,0
11,119999,84,110000,17,100000,40,9999,0.100000,0,0,0.000000,6,0.000000,0.000000,0.071625,0,0,0,0,0,0,0
11,119999,85,110000,4,60000,40,9999,0.100000,0,0,0.000000,6,0.000000,0.000000,1.251701,0,0,0,0,0,0,0
11,119999,86,110000,4,60000,40,9999,0.100000,0,0,0.000000,6,0.000000,0.000000,1.768937,0,0,0,0,0,0,0
11,119999,87,110000,4,80000,40,9999,0.100000,0,0,0.000000,6,0.000000,0.000000,2.483914,0,0,0,0,0,0,0
11,119999,88,110000,17,100000,40,9999,0.100000,0,0,0.000000,6,0.000000,0.000000,1.303514,0,0,0,0,0,0,0
11,119999,89,110000,4,80000,49,9999,0.100000,0,0,0.000000,6,2.000000,0.000000,13.317084,0,0,0,0,0,0,0
11,119999,90,110000,4,60000,40,9999,0.100000,0,0,0.000000,6,0.000000,0.000000,1.893366,0,0,0,0,0,0,0
11,119999,91,110000,4,80000,49,9999,0.100000,0,0,0.000000,6,1.000000,0.000000,1.458374,0,0,0,0,0,0,0
11,119999,92,110000,1,30000,40,9999,0.100000,0,0,0.000000,6,0.000000,0.000000,1.101051,0,0,0,0,0,0,0
11,119999,93,110000,1,30000,40,9999,0.100000,0,0,0.000000,6,0.000000,0.000000,1.182740,0,0,0,0,0,0,0
11,119999,94,110000,87,0,49,9999,0.100000,0,0,0.000000,6,1.000000,0.000000,16.285853,0,0,0,0,0,0,0
11,119999,95,110000,9,80000,40,9999,0.100000,0,0,0.000000,6,0.000000,0.000000,4.304306,0,0,0,0,0,0,0
11,119999,96,110000,9,80000,40,9999,0.100000,0,0,0.000000,6,0.000000,0.000000,0.087056,0,0,0,0,0,0,0
11,119999,97,110000,4,80000,40,9999,0.100000,0,0,0.000000,6,0.000000,0.000000,2.853403,0,0,0,0,0,0,0
11,119999,98,110000,9,80000,40,9999,0.100000,0,0,0.000000,6,0.000000,0.000000,0.073181,0,0,0,0,0,0,0
11,119999,99,110000,4,80000,40,9999,0.100000,0,0,0.000000,6,0.000000,0.000000,0.772315,0,0,0,0,0,0,0
12,129999,0,120000,87,0,40,9999,0.100000,0,0,0.000000,6,0.000000,0.000000,16.543517,0,0,0,0,0,0,0
12,129999,1,120000,17,100000,40,9999,0.100000,0,0,0.000000,6,0.000000,0.000000,0.787316,0,0,0,0,0,0,0
12,129999,2,120000,87,0,40,9999,0.100000,0,0,0.000000,6,0.000000,0.000000,0.096492,0,0,0,0,0,0,0
12,129999,3,120000,4,80000,49,9999,0.100000,0,0,0.000000,6,2.000000,0.000000,12.131752,0,0,0,0,0,0,0
12,129999,4,120000,77,10000,49,9999,0.100000,0,0,0.000000,6,1.000000,0.000000,12.822163,0,0,0,0,0,0,0
12,129999,5,120000,1,30000,40,9999,0.100000,0,0,0.000000,6,0.000000,0.000000,8.553252,0,0,0,0,0,0,0
12,129999,6,120000,4,80000,40,9999,0.100000,0,0,0.000000,6,0.000000,0.000000,0.613884,0,0,0,0,0,0,0
12,129999,7,120000,1,30000,40,9999,0.100000,0,0,0.000000,6,0.000000,0.000000,1.019229,0,0,0,0,0,0,0
12,129999,8,120000,9,80000,40,9999,0.100000,0,0,0.000000,6,0.000000,0.000000,3.264516,0,0,0,0,0,0,0
12,129999,9,120000,87,0,40,9999,0.100000,0,0,0.000000,6,0.000000,0.000000,13.798842,0,0,0,0,0,0,0
12,129999,10,120000,1,30000,40,9999,0.100000,0,0,0.000000,6,0.000000,0.000000,1.321129,0,0,0,0,0,0,0
12,129999,11,120000,9,80000,49,9999,0.100000,0,0,0.000000,6,2.000000,0.000000,8.531273,0,0,0,0,0,0,0
12,129999,12,120000,17,100000,40,9999,0.100000,0,0,0.000000,6,0.000000,0.000000,1.004288,0,0,0,0,0,0,0
12,129999,13,120000,4,80000,40,9999,0.100000,0,0,0.000000,6,0.000000,0.000000,0.142583,0,0,0,0,0,0,0
12,129999,14,120000,9,80000,49,9999,0.100000,0,0,0.000000,6,2.000000,0.000000,11.994419,0,0,0,0,0,0,0
12,129999,15,120000,17,100000,40,9999,0.100000,0,0,0.000000,6,0.000000,0.000000,0.484575,0,0,0,0,0,0,0
12,129999,16,120000,77,10000,49,9999,0.100000,0,0,0.000000,6,6.000000,0.000000,20.215970,0,0,0,0,0,0,0
12,129999,17,120000,4,80000,40,9999,0.100000,0,0,0.000000,6,0.000000,0.000000,0.263566,0,0,0,0,0,0,0
12,129999,18,120000,4,80000,40,9999,0.100000,0,0,0.000000,6,0.000000,0.000000,0.508548,0,0,0,0,0,0,0
12,129999,19,120000,9,80000,40,9999,0.100000,0,0,0.000000,6,0.000000,0.000000,0.987946,0,0,0,0,0,0,0
12,129999,20,120000,87,0,40,9999,0.100000,0,0,0.000000,6,0.000000,0.000000,0.900674,0,0,0,0,0,0,0
12,129999,21,120000,4,80000,40,9999,0.100000,0,0,0.000000,6,0.000000,0.000000,0.613084,0,0,0,0,0,0,0
12,129999,22,120000,4,80000,40,9999,0.100000,0,0,0.000000,6,0.000000,0.000000,0.779734,0,0,0,0,0,0,0
12,129999,23,120000,87,0,40,9999,0.100000,0,0,0.000000,6,0.000000,0.000000,0.382232,0,0,0,0,0,0,0
12,129999,24,120000,17,100000,40,9999,0.100000,0,0,0.000000,6,0.000000,0.000000,0.356371,0,0,0,0,0,0,0
12,129999,25,120000,4,80000,40,9999,0.100000,0,0,0.000000,6,0.000000,0.000000,2.105131,0,0,0,0,0,0,0
12,129999,26,120000,9,80000,49,9999,0.100000,0,0,0.000000,6,2.000000,0.000000,7.719323,0,0,0,0,0,0,0
12,129999,27,120000,17,100000,49,9999,0.100000,0,0,0.000000,6,4.000000,0.000000,16.574551,0,0,0,0,0,0,0
12,129999,28,120000,77,10000,49,9999,0.100000,0,0,0.000000,6,2.000000,0.000000,15.114097,0,0,0,0,0,0,0
12,129999,29,120000,87,0,40,9999,0.100000,0,0,0.000000,6,0.000000,0.000000,0.725082,0,0,0,0,0,0,0
12,129999,30,120000,9,80000,49,9999,0.100000,0,0,0.000000,6,1.000000,0.000000,15.861204,0,0,0,0,0,0,0
12,129999,31,120000,77,10000,49,9999,0.100000,0,0,0.000000,6,2.000000,0.000000,12.900459,0,0,0,0,0,0,0
