generation,iteration,robot,birthday,ancestor_id,ancestor_birthday,cell_id,age,sigma,maps,genomes,fitness,cells_in_map,dist_max,dist_pot_max,dist_total,com_rx,com_tx,obj_group1,obj_group2,obj_group3,obj_group4,obj_group5
0,9999,0,0,0,0,49,9999,0.100000,0,0,0.000000,0,9.000000,0.000000,10.188016,0,0,0,0,0,0,0
0,9999,1,0,1,0,49,9999,0.100000,0,0,0.000000,0,4.000000,0.000000,12.427746,0,0,0,0,0,0,0
0,9999,2,0,2,0,49,9999,0.100000,0,0,0.000000,0,8.000000,0.000000,11.067708,0,0,0,0,0,0,0
0,9999,3,0,3,0,49,9999,0.100000,0,0,0.000000,0,9.000000,0.000000,11.134763,0,0,0,0,0,0,0
0,9999,4,0,4,0,49,9999,0.100000,0,0,0.000000,0,6.000000,0.000000,10.577722,0,0,0,0,0,0,0
0,9999,5,0,5,0,49,9999,0.100000,0,0,0.000000,0,10.000000,0.000000,19.159852,0,0,0,0,0,0,0
0,9999,6,0,6,0,49,9999,0.100000,0,0,0.000000,0,7.000000,0.000000,9.160917,0,0,0,0,0,0,0
0,9999,7,0,7,0,49,9999,0.100000,0,0,0.000000,0,8.000000,0.000000,20.876072,0,0,0,0,0,0,0
0,9999,8,0,8,0,49,9999,0.100000,0,0,0.000000,0,2.000000,0.000000,4.501545,0,0,0,0,0,0,0
0,9999,9,0,9,0,49,9999,0.100000,0,0,0.000000,0,11.000000,0.000000,15.111245,0,0,0,0,0,0,0
0,9999,10,0,10,0,49,9999,0.100000,0,0,0.000000,0,9.000000,0.000000,16.792892,0,0,0,0,0,0,0
0,9999,11,0,11,0,49,9999,0.100000,0,0,0.000000,0,2.000000,0.000000,9.081930,0,0,0,0,0,0,0
0,9999,12,0,12,0,49,9999,0.100000,0,0,0.000000,0,8.000000,0.000000,18.908905,0,0,0,0,0,0,0
0,9999,13,0,13,0,49,9999,0.100000,0,0,0.000000,0,10.000000,0.000000,10.521687,0,0,0,0,0,0,0
0,9999,14,0,14,0,49,9999,0.100000,0,0,0.000000,0,10.000000,0.000000,14.497957,0,0,0,0,0,0,0
0,9999,15,0,15,0,49,9999,0.100000,0,0,0.000000,0,9.000000,0.000000,13.962196,0,0,0,0,0,0,0
0,9999,16,0,16,0,49,9999,0.100000,0,0,0.000000,0,8.000000,0.000000,20.591923,0,0,0,0,0,0,0
0,9999,17,0,17,0,49,9999,0.100000,0,0,0.000000,0,2.000000,0.000000,19.114803,0,0,0,0,0,0,0
0,9999,18,0,18,0,99,9999,0.100000,0,0,47.368421,0,8.000000,0.000000,16.532741,0,0,1,0,0,0,0
0,9999,19,0,19,0,49,9999,0.100000,0,0,0.000000,0,9.000000,0.000000,22.127683,0,0,0,0,0,0,0
0,9999,20,0,20,0,49,9999,0.100000,0,0,0.000000,0,10.000000,0.000000,15.839878,0,0,0,0,0,0,0
0,9999,21,0,21,0,49,9999,0.100000,0,0,0.000000,0,4.000000,0.000000,10.129684,0,0,0,0,0,0,0
0,9999,22,0,22,0,49,9999,0.100000,0,0,0.000000,0,11.000000,0.000000,12.162084,0,0,0,0,0,0,0
0,9999,23,0,23,0,49,9999,0.100000,0,0,0.000000,0,8.000000,0.000000,12.091197,0,0,0,0,0,0,0
0,9999,24,0,24,0,49,9999,0.100000,0,0,0.000000,0,8.000000,0.000000,15.098870,0,0,0,0,0,0,0
0,9999,25,0,25,0,49,9999,0.100000,0,0,0.000000,0,9.000000,0.000000,23.823589,0,0,0,0,0,0,0
0,9999,26,0,26,0,49,9999,0.100000,0,0,0.000000,0,7.000000,0.000000,10.333138,0,0,0,0,0,0,0
0,9999,27,0,27,0,49,9999,0.100000,0,0,0.000000,0,8.000000,0.000000,11.952317,0,0,0,0,0,0,0
0,9999,28,0,28,0,49,9999,0.100000,0,0,0.000000,0,9.000000,0.000000,28.879145,0,0,0,0,0,0,0
0,9999,29,0,29,0,49,9999,0.100000,0,0,0.000000,0,7.000000,0.000000,13.995007,0,0,0,0,0,0,0
0,9999,30,0,30,0,49,9999,0.100000,0,0,0.000000,0,5.000000,0.000000,7.063362,0,0,0,0,0,0,0
0,9999,31,0,31,0,49,9999,0.100000,0,0,0.000000,0,7.000000,0.000000,23.176469,0,0,0,0,0,0,0
0,9999,32,0,32,0,49,9999,0.100000,0,0,0.000000,0,13.000000,0.000000,26.506022,0,0,0,0,0,0,0
0,9999,33,0,33,0,49,9999,0.100000,0,0,0.000000,0,8.000000,0.000000,13.814810,0,0,0,0,0,0,0
0,9999,34,0,34,0,49,9999,0.100000,0,0,0.000000,0,7.000000,0.000000,17.996575,0,0,0,0,0,0,0
0,9999,35,0,35,0,49,9999,0.100000,0,0,0.000000,0,8.000000,0.000000,10.482429,0,0,0,0,0,0,0
0,9999,36,0,36,0,49,9999,0.100000,0,0,0.000000,0,6.000000,0.000000,9.751099,0,0,0,0,0,0,0
0,9999,37,0,37,0,49,9999,0.100000,0,0,0.000000,0,7.000000,0.000000,12.103147,0,0,0,0,0,0,0
0,9999,38,0,38,0,49,9999,0.100000,0,0,0.000000,0,9.000000,0.000000,12.662832,0,0,0,0,0,0,0
0,9999,39,0,39,0,49,9999,0.100000,0,0,0.000000,0,2.000000,0.000000,5.384904,0,0,0,0,0,0,0
0,9999,40,0,40,0,49,9999,0.100000,0,0,0.000000,0,10.000000,0.000000,26.564782,0,0,0,0,0,0,0
0,9999,41,0,41,0,49,9999,0.100000,0,0,0.000000,0,1.000000,0.000000,7.056553,0,0,0,0,0,0,0
0,9999,42,0,42,0,49,9999,0.100000,0,0,0.000000,0,13.000000,0.000000,27.409286,0,0,0,0,0,0,0
0,9999,43,0,43,0,49,9999,0.100000,0,0,0.000000,0,7.000000,0.000000,8.956095,0,0,0,0,0,0,0
0,9999,44,0,44,0,49,9999,0.100000,0,0,0.000000,0,12.000000,0.000000,20.114443,0,0,0,0,0,0,0
0,9999,45,0,45,0,49,9999,0.100000,0,0,0.000000,0,12.000000,0.000000,15.669497,0,0,0,0,0,0,0
0,9999,46,0,46,0,49,9999,0.100000,0,0,0.000000,0,8.000000,0.000000,17.287984,0,0,0,0,0,0,0
0,9999,47,0,47,0,49,9999,0.100000,0,0,0.000000,0,10.000000,0.000000,11.615957,0,0,0,0,0,0,0
0,9999,48,0,48,0,49,9999,0.100000,0,0,0.000000,0,8.000000,0.000000,13.484811,0,0,0,0,0,0,0
0,9999,49,0,49,0,49,9999,0.100000,0,0,0.000000,0,8.000000,0.000000,9.926960,0,0,0,0,0,0,0
0,9999,50,0,50,0,49,9999,0.100000,0,0,0.000000,0,7.000000,0.000000,10.971346,0,0,0,0,0,0,0
0,9999,51,0,51,0,49,9999,0.100000,0,0,0.000000,0,8.000000,0.000000,22.805173,0,0,0,0,0,0,0
0,9999,52,0,52,0,49,9999,0.100000,0,0,0.000000,0,11.000000,0.000000,13.951756,0,0,0,0,0,0,0
0,9999,53,0,53,0,49,9999,0.100000,0,0,0.000000,0,3.000000,0.000000,9.979732,0,0,0,0,0,0,0
0,9999,54,0,54,0,49,9999,0.100000,0,0,0.000000,0,7.000000,0.000000,9.931157,0,0,0,0,0,0,0
0,9999,55,0,55,0,49,9999,0.100000,0,0,0.000000,0,7.000000,0.000000,12.728416,0,0,0,0,0,0,0
0,9999,56,0,56,0,49,9999,0.100000,0,0,0.000000,0,9.000000,0.000000,15.965639,0,0,0,0,0,0,0
0,9999,57,0,57,0,49,9999,0.100000,0,0,0.000000,0,3.000000,0.000000,17.196496,0,0,0,0,0,0,0
0,9999,58,0,58,0,49,9999,0.100000,0,0,0.000000,0,8.000000,0.000000,13.680296,0,0,0,0,0,0,0
0,9999,59,0,59,0,49,9999,0.100000,0,0,0.000000,0,2.000000,0.000000,4.169278,0,0,0,0,0,0,0
0,9999,60,0,60,0,49,9999,0.100000,0,0,0.000000,0,8.000000,0.000000,22.725945,0,0,0,0,0,0,0
0,9999,61,0,61,0,49,9999,0.100000,0,0,0.000000,0,8.000000,0.000000,21.009321,0,0,0,0,0,0,0
0,9999,62,0,62,0,49,9999,0.100000,0,0,0.000000,0,7.000000,0.000000,12.110594,0,0,0,0,0,0,0
0,9999,63,0,63,0,49,9999,0.100000,0,0,0.000000,0,8.000000,0.000000,18.878780,0,0,0,0,0,0,0
0,9999,64,0,64,0,49,9999,0.100000,0,0,0.000000,0,6.000000,0.000000,17.711541,0,0,0,0,0,0,0
0,9999,65,0,65,0,49,9999,0.100000,0,0,0.000000,0,10.000000,0.000000,11.777648,0,0,0,0,0,0,0
0,9999,66,0,66,0,49,9999,0.100000,0,0,0.000000,0,8.000000,0.000000,22.500419,0,0,0,0,0,0,0
0,9999,67,0,67,0,49,9999,0.100000,0,0,0.000000,0,6.000000,0.000000,13.892961,0,0,0,0,0,0,0
0,9999,68,0,68,0,49,9999,0.100000,0,0,0.000000,0,13.000000,0.000000,24.020882,0,0,0,0,0,0,0
0,9999,69,0,69,0,49,9999,0.100000,0,0,0.000000,0,7.000000,0.000000,9.242995,0,0,0,0,0,0,0
0,9999,70,0,70,0,49,9999,0.100000,0,0,0.000000,0,3.000000,0.000000,15.807225,0,0,0,0,0,0,0
0,9999,71,0,71,0,49,9999,0.100000,0,0,0.000000,0,8.000000,0.000000,12.548514,0,0,0,0,0,0,0
0,9999,72,0,72,0,49,9999,0.100000,0,0,0.000000,0,7.000000,0.000000,11.798810,0,0,0,0,0,0,0
0,9999,73,0,73,0,49,9999,0.100000,0,0,0.000000,0,6.000000,0.000000,7.957784,0,0,0,0,0,0,0
0,9999,74,0,74,0,49,9999,0.100000,0,0,0.000000,0,6.000000,0.000000,12.565198,0,0,0,0,0,0,0
0,9999,75,0,75,0,49,9999,0.100000,0,0,0.000000,0,1.000000,0.000000,6.283440,0,0,0,0,0,0,0
0,9999,76,0,76,0,49,9999,0.100000,0,0,0.000000,0,5.000000,0.000000,6.499524,0,0,0,0,0,0,0
0,9999,77,0,77,0,49,9999,0.100000,0,0,0.000000,0,10.000000,0.000000,15.030694,0,0,0,0,0,0,0
0,9999,78,0,78,0,49,9999,0.100000,0,0,0.000000,0,7.000000,0.000000,11.056177,0,0,0,0,0,0,0
0,9999,79,0,79,0,49,9999,0.100000,0,0,0.000000,0,5.000000,0.000000,7.696534,0,0,0,0,0,0,0
0,9999,80,0,80,0,49,9999,0.100000,0,0,0.000000,0,6.000000,0.000000,10.923232,0,0,0,0,0,0,0
0,9999,81,0,81,0,49,9999,0.100000,0,0,0.000000,0,9.000000,0.000000,20.594558,0,0,0,0,0,0,0
0,9999,82,0,82,0,49,9999,0.100000,0,0,0.000000,0,9.000000,0.000000,20.426204,0,0,0,0,0,0,0
0,9999,83,0,83,0,49,9999,0.100000,0,0,0.000000,0,8.000000,0.000000,12.709739,0,0,0,0,0,0,0
0,9999,84,0,84,0,49,9999,0.100000,0,0,0.000000,0,6.000000,0.000000,9.362280,0,0,0,0,0,0,0
0,9999,85,0,85,0,49,9999,0.100000,0,0,0.000000,0,6.000000,0.000000,11.052492,0,0,0,0,0,0,0
0,9999,86,0,86,0,49,9999,0.100000,0,0,0.000000,0,7.000000,0.000000,8.051011,0,0,0,0,0,0,0
0,9999,87,0,87,0,49,9999,0.100000,0,0,0.000000,0,11.000000,0.000000,17.177278,0,0,0,0,0,0,0
0,9999,88,0,88,0,49,9999,0.100000,0,0,0.000000,0,7.000000,0.000000,8.360516,0,0,0,0,0,0,0
0,9999,89,0,89,0,49,9999,0.100000,0,0,0.000000,0,2.000000,0.000000,9.051736,0,0,0,0,0,0,0
0,9999,90,0,90,0,49,9999,0.100000,0,0,0.000000,0,6.000000,0.000000,8.340937,0,0,0,0,0,0,0
0,9999,91,0,91,0,99,9999,0.100000,0,0,47.368421,0,10.000000,0.000000,18.070272,0,0,1,0,0,0,0
0,9999,92,0,92,0,49,9999,0.100000,0,0,0.000000,0,11.000000,0.000000,15.999897,0,0,0,0,0,0,0
0,9999,93,0,93,0,49,9999,0.100000,0,0,0.000000,0,7.000000,0.000000,24.994138,0,0,0,0,0,0,0
0,9999,94,0,94,0,49,9999,0.100000,0,0,0.000000,0,10.000000,0.000000,14.224921,0,0,0,0,0,0,0
0,9999,95,0,95,0,49,9999,0.100000,0,0,0.000000,0,9.000000,0.000000,20.265762,0,0,0,0,0,0,0
0,9999,96,0,96,0,49,9999,0.100000,0,0,0.000000,0,8.000000,0.000000,15.146772,0,0,0,0,0,0,0
0,9999,97,0,97,0,49,9999,0.100000,0,0,0.000000,0,9.000000,0.000000,11.015257,0,0,0,0,0,0,0
0,9999,98,0,98,0,49,9999,0.100000,0,0,0.000000,0,6.000000,0.000000,14.359402,0,0,0,0,0,0,0
0,9999,99,0,99,0,49,9999,0.100000,0,0,0.000000,0,7.000000,0.000000,8.509898,0,0,0,0,0,0,0
1,19999,0,10000,1,0,40,9999,0.100000,0,0,0.000000,2,0.000000,0.000000,0.489538,0,0,0,0,0,0,0
1,19999,1,10000,1,0,40,9999,0.100000,0,0,0.000000,1,0.000000,0.000000,3.358864,0,0,0,0,0,0,0
1,19999,2,10000,1,0,49,9999,0.100000,0,0,0.000000,2,2.000000,0.000000,8.447982,0,0,0,0,0,0,0
1,19999,3,0,3,0,49,19999,0.100000,0,0,0.000000,3,2.000000,0.000000,10.297701,0,0,0,0,0,0,0
1,19999,4,10000,1,0,49,9999,0.100000,0,0,0.000000,2,1.000000,0.000000,2.216323,0,0,0,0,0,0,0
1,19999,5,10000,18,0,49,9999,0.100000,0,0,0.000000,3,4.000000,0.000000,18.146855,0,0,0,0,0,0,0
1,19999,6,10000,52,0,40,9999,0.100000,0,0,0.000000,3,0.000000,0.000000,0.082914,0,0,0,0,0,0,0
1,19999,7,10000,23,0,49,9999,0.100000,0,0,0.000000,2,2.000000,0.000000,15.207204,0,0,0,0,0,0,0
1,19999,8,10000,1,0,49,9999,0.100000,0,0,0.000000,2,1.000000,0.000000,4.750542,0,0,0,0,0,0,0
1,19999,9,10000,1,0,40,9999,0.100000,0,0,0.000000,2,0.000000,0.000000,2.012210,0,0,0,0,0,0,0
1,19999,10,10000,52,0,49,9999,0.100000,0,0,0.000000,3,1.000000,0.000000,3.890807,0,0,0,0,0,0,0
1,19999,11,10000,1,0,49,9999,0.100000,0,0,0.000000,2,1.000000,0.000000,9.328192,0,0,0,0,0,0,0
1,19999,12,10000,9,0,49,9999,0.100000,0,0,0.000000,2,1.000000,0.000000,3.183407,0,0,0,0,0,0,0
1,19999,13,10000,52,0,40,9999,0.100000,0,0,0.000000,3,0.000000,0.000000,0.079706,0,0,0,0,0,0,0
1,19999,14,10000,18,0,49,9999,0.100000,0,0,0.000000,3,1.000000,0.000000,3.656897,0,0,0,0,0,0,0
1,19999,15,10000,18,0,40,9999,0.100000,0,0,0.000000,3,0.000000,0.000000,3.637193,0,0,0,0,0,0,0
1,19999,16,10000,1,0,49,9999,0.100000,0,0,0.000000,1,1.000000,0.000000,4.272142,0,0,0,0,0,0,0
1,19999,17,10000,1,0,99,9999,0.100000,0,0,34.210526,3,7.000000,0.000000,15.333782,0,0,1,0,0,0,0
1,19999,18,10000,18,0,49,9999,0.100000,0,0,0.000000,3,1.000000,0.000000,4.646794,0,0,0,0,0,0,0
1,19999,19,0,19,0,49,19999,0.100000,0,0,0.000000,2,1.000000,0.000000,1.726592,0,0,0,0,0,0,0
1,19999,20,10000,1,0,49,9999,0.100000,0,0,0.000000,2,3.000000,0.000000,13.335091,0,0,0,0,0,0,0
1,19999,21,10000,1,0,49,9999,0.100000,0,0,0.000000,2,1.000000,0.000000,2.016969,0,0,0,0,0,0,0
1,19999,22,10000,1,0,40,9999,0.100000,0,0,0.000000,3,0.000000,0.000000,0.128025,0,0,0,0,0,0,0
1,19999,23,0,23,0,40,19999,0.100000,0,0,0.000000,2,0.000000,0.000000,0.109504,0,0,0,0,0,0,0
1,19999,24,10000,52,0,40,9999,0.100000,0,0,0.000000,3,0.000000,0.000000,2.488543,0,0,0,0,0,0,0
1,19999,25,10000,9,0,49,9999,0.100000,0,0,0.000000,2,2.000000,0.000000,4.684070,0,0,0,0,0,0,0
1,19999,26,10000,52,0,40,9999,0.100000,0,0,0.000000,3,0.000000,0.000000,0.157578,0,0,0,0,0,0,0
1,19999,27,10000,1,0,49,9999,0.100000,0,0,0.000000,3,1.000000,0.000000,1.653038,0,0,0,0,0,0,0
1,19999,28,10000,1,0,40,9999,0.100000,0,0,0.000000,3,0.000000,0.000000,0.744362,0,0,0,0,0,0,0
1,19999,29,10000,18,0,49,9999,0.100000,0,0,0.000000,3,4.000000,0.000000,11.053743,0,0,0,0,0,0,0
1,19999,30,10000,18,0,49,9999,0.100000,0,0,0.000000,3,4.000000,0.000000,10.046648,0,0,0,0,0,0,0
1,19999,31,10000,23,0,49,9999,0.100000,0,0,0.000000,2,1.000000,0.000000,1.745789,0,0,0,0,0,0,0
1,19999,32,10000,52,0,49,9999,0.100000,0,0,0.000000,3,2.000000,0.000000,7.773857,0,0,0,0,0,0,0
1,19999,33,10000,18,0,49,9999,0.100000,0,0,0.000000,3,2.000000,0.000000,8.816620,0,0,0,0,0,0,0
1,19999,34,10000,18,0,49,9999,0.100000,0,0,0.000000,3,1.000000,0.000000,7.090095,0,0,0,0,0,0,0
1,19999,35,10000,52,0,40,9999,0.100000,0,0,0.000000,3,0.000000,0.000000,1.259556,0,0,0,0,0,0,0
1,19999,36,10000,18,0,40,9999,0.100000,0,0,0.000000,3,0.000000,0.000000,0.214664,0,0,0,0,0,0,0
1,19999,37,10000,1,0,40,9999,0.100000,0,0,0.000000,1,0.000000,0.000000,1.629262,0,0,0,0,0,0,0
1,19999,38,10000,9,0,40,9999,0.100000,0,0,0.000000,2,0.000000,0.000000,1.057716,0,0,0,0,0,0,0
1,19999,39,10000,52,0,40,9999,0.100000,0,0,0.000000,3,0.000000,0.000000,0.562795,0,0,0,0,0,0,0
1,19999,40,0,40,0,40,19999,0.100000,0,0,0.000000,1,0.000000,0.000000,16.257970,0,0,0,0,0,0,0
1,19999,41,10000,1,0,49,9999,0.100000,0,0,0.000000,3,3.000000,0.000000,14.085005,0,0,0,0,0,0,0
1,19999,42,10000,1,0,49,9999,0.100000,0,0,0.000000,2,1.000000,0.000000,10.489675,0,0,0,0,0,0,0
1,19999,43,10000,52,0,40,9999,0.100000,0,0,0.000000,3,0.000000,0.000000,0.991717,0,0,0,0,0,0,0
1,19999,44,10000,1,0,49,9999,0.100000,0,0,0.000000,2,1.000000,0.000000,8.841629,0,0,0,0,0,0,0
1,19999,45,0,45,0,40,19999,0.100000,0,0,0.000000,3,0.000000,0.000000,0.114557,0,0,0,0,0,0,0
1,19999,46,10000,9,0,49,9999,0.100000,0,0,0.000000,2,2.000000,0.000000,7.631478,0,0,0,0,0,0,0
1,19999,47,10000,1,0,40,9999,0.100000,0,0,0.000000,1,0.000000,0.000000,0.996661,0,0,0,0,0,0,0
1,19999,48,10000,52,0,40,9999,0.100000,0,0,0.000000,3,0.000000,0.000000,1.000562,0,0,0,0,0,0,0
1,19999,49,10000,9,0,40,9999,0.100000,0,0,0.000000,2,0.000000,0.000000,1.904534,0,0,0,0,0,0,0
1,19999,50,10000,52,0,40,9999,0.100000,0,0,0.000000,3,0.000000,0.000000,0.893558,0,0,0,0,0,0,0
1,19999,51,10000,52,0,40,9999,0.100000,0,0,0.000000,3,0.000000,0.000000,0.542489,0,0,0,0,0,0,0
1,19999,52,10000,52,0,40,9999,0.100000,0,0,0.000000,2,0.000000,0.000000,2.345001,0,0,0,0,0,0,0
1,19999,53,10000,1,0,40,9999,0.100000,0,0,0.000000,3,0.000000,0.000000,0.341074,0,0,0,0,0,0,0
1,19999,54,10000,18,0,40,9999,0.100000,0,0,0.000000,3,0.000000,0.000000,0.105213,0,0,0,0,0,0,0
1,19999,55,10000,1,0,40,9999,0.100000,0,0,0.000000,3,0.000000,0.000000,0.446118,0,0,0,0,0,0,0
1,19999,56,10000,52,0,49,9999,0.100000,0,0,0.000000,3,2.000000,0.000000,9.786474,0,0,0,0,0,0,0
1,19999,57,0,57,0,49,19999,0.100000,0,0,0.000000,3,1.000000,0.000000,10.709034,0,0,0,0,0,0,0
1,19999,58,10000,91,0,40,9999,0.100000,0,0,0.000000,3,0.000000,0.000000,0.466936,0,0,0,0,0,0,0
1,19999,59,10000,23,0,40,9999,0.100000,0,0,0.000000,2,0.000000,0.000000,0.700769,0,0,0,0,0,0,0
1,19999,60,10000,52,0,49,9999,0.100000,0,0,0.000000,3,2.000000,0.000000,14.955246,0,0,0,0,0,0,0
1,19999,61,10000,18,0,40,9999,0.100000,0,0,0.000000,3,0.000000,0.000000,11.723793,0,0,0,0,0,0,0
1,19999,62,10000,18,0,40,9999,0.100000,0,0,0.000000,3,0.000000,0.000000,3.527329,0,0,0,0,0,0,0
1,19999,63,10000,1,0,49,9999,0.100000,0,0,0.000000,3,4.000000,0.000000,27.073976,0,0,0,0,0,0,0
1,19999,64,10000,1,0,49,9999,0.100000,0,0,0.000000,2,9.000000,0.000000,11.553773,0,0,0,0,0,0,0
1,19999,65,10000,52,0,49,9999,0.100000,0,0,0.000000,3,5.000000,0.000000,15.665021,0,0,0,0,0,0,0
1,19999,66,10000,52,0,49,9999,0.100000,0,0,0.000000,3,2.000000,0.000000,7.141662,0,0,0,0,0,0,0
1,19999,67,10000,1,0,49,9999,0.100000,0,0,0.000000,3,2.000000,0.000000,6.568090,0,0,0,0,0,0,0
1,19999,68,0,68,0,49,19999,0.100000,0,0,0.000000,2,1.000000,0.000000,12.172745,0,0,0,0,0,0,0
1,19999,69,10000,52,0,40,9999,0.100000,0,0,0.000000,2,0.000000,0.000000,0.156475,0,0,0,0,0,0,0
1,19999,70,10000,1,0,49,9999,0.100000,0,0,0.000000,3,1.000000,0.000000,1.580467,0,0,0,0,0,0,0
1,19999,71,10000,52,0,49,9999,0.100000,0,0,0.000000,3,3.000000,0.000000,5.182464,0,0,0,0,0,0,0
1,19999,72,10000,91,0,40,9999,0.100000,0,0,0.000000,3,0.000000,0.000000,0.403031,0,0,0,0,0,0,0
1,19999,73,10000,9,0,40,9999,0.100000,0,0,0.000000,2,0.000000,0.000000,0.628186,0,0,0,0,0,0,0
1,19999,74,10000,1,0,40,9999,0.100000,0,0,0.000000,3,0.000000,0.000000,1.250420,0,0,0,0,0,0,0
1,19999,75,10000,18,0,49,9999,0.100000,0,0,0.000000,3,1.000000,0.000000,9.385499,0,0,0,0,0,0,0
1,19999,76,10000,52,0,49,9999,0.100000,0,0,0.000000,3,1.000000,0.000000,1.932019,0,0,0,0,0,0,0
1,19999,77,10000,52,0,40,9999,0.100000,0,0,0.000000,2,0.000000,0.000000,1.288310,0,0,0,0,0,0,0
1,19999,78,10000,91,0,49,9999,0.100000,0,0,0.000000,3,1.000000,0.000000,2.373442,0,0,0,0,0,0,0
1,19999,79,10000,52,0,40,9999,0.100000,0,0,0.000000,3,0.000000,0.000000,0.665081,0,0,0,0,0,0,0
1,19999,80,10000,52,0,40,9999,0.100000,0,0,0.000000,3,0.000000,0.000000,2.182482,0,0,0,0,0,0,0
1,19999,81,10000,18,0,49,9999,0.100000,0,0,0.000000,3,2.000000,0.000000,7.807346,0,0,0,0,0,0,0
1,19999,82,10000,1,0,49,9999,0.100000,0,0,0.000000,2,2.000000,0.000000,8.475640,0,0,0,0,0,0,0
1,19999,83,10000,52,0,40,9999,0.100000,0,0,0.000000,3,0.000000,0.000000,0.862485,0,0,0,0,0,0,0
1,19999,84,10000,52,0,40,9999,0.100000,0,0,0.000000,2,0.000000,0.000000,0.128527,0,0,0,0,0,0,0
1,19999,85,10000,52,0,49,9999,0.100000,0,0,0.000000,3,2.000000,0.000000,13.647491,0,0,0,0,0,0,0
1,19999,86,10000,1,0,40,9999,0.100000,0,0,0.000000,3,0.000000,0.000000,0.154837,0,0,0,0,0,0,0
1,19999,87,10000,18,0,49,9999,0.100000,0,0,0.000000,3,3.000000,0.000000,17.221143,0,0,0,0,0,0,0
1,19999,88,10000,1,0,49,9999,0.100000,0,0,0.000000,2,1.000000,0.000000,1.633211,0,0,0,0,0,0,0
1,19999,89,10000,52,0,49,9999,0.100000,0,0,0.000000,3,1.000000,0.000000,4.553283,0,0,0,0,0,0,0
1,19999,90,10000,52,0,40,9999,0.100000,0,0,0.000000,3,0.000000,0.000000,1.502906,0,0,0,0,0,0,0
1,19999,91,10000,18,0,40,9999,0.100000,0,0,0.000000,3,0.000000,0.000000,0.418472,0,0,0,0,0,0,0
1,19999,92,10000,52,0,49,9999,0.100000,0,0,0.000000,3,2.000000,0.000000,10.640867,0,0,0,0,0,0,0
1,19999,93,10000,52,0,49,9999,0.100000,0,0,0.000000,3,2.000000,0.000000,8.431421,0,0,0,0,0,0,0
1,19999,94,10000,1,0,40,9999,0.100000,0,0,0.000000,3,0.000000,0.000000,1.454057,0,0,0,0,0,0,0
1,19999,95,10000,52,0,49,9999,0.100000,0,0,0.000000,3,5.000000,0.000000,10.567253,0,0,0,0,0,0,0
1,19999,96,10000,18,0,40,9999,0.100000,0,0,0.000000,3,0.000000,0.000000,3.853649,0,0,0,0,0,0,0
1,19999,97,10000,1,0,40,9999,0.100000,0,0,0.000000,3,0.000000,0.000000,0.199646,0,0,0,0,0,0,0
1,19999,98,10000,1,0,49,9999,0.100000,0,0,0.000000,2,2.000000,0.000000,8.732637,0,0,0,0,0,0,0
1,19999,99,10000,18,0,40,9999,0.100000,0,0,0.000000,3,0.000000,0.000000,0.613902,0,0,0,0,0,0,0
2,29999,0,20000,18,0,40,9999,0.100000,0,0,0.000000,6,0.000000,0.000000,0.459183,0,0,0,0,0,0,0
2,29999,1,20000,13,10000,40,9999,0.100000,0,0,0.000000,6,0.000000,0.000000,1.564207,0,0,0,0,0,0,0
2,29999,2,20000,48,10000,49,9999,0.100000,0,0,0.000000,6,2.000000,0.000000,5.431717,0,0,0,0,0,0,0
2,29999,3,20000,48,10000,40,9999,0.100000,0,0,0.000000,6,0.000000,0.000000,1.131682,0,0,0,0,0,0,0
2,29999,4,20000,13,10000,40,9999,0.100000,0,0,0.000000,6,0.000000,0.000000,0.306281,0,0,0,0,0,0,0
2,29999,5,20000,61,10000,40,9999,0.100000,0,0,0.000000,5,0.000000,0.000000,0.620152,0,0,0,0,0,0,0
2,29999,6,20000,18,0,40,9999,0.100000,0,0,0.000000,6,0.000000,0.000000,0.150734,0,0,0,0,0,0,0
2,29999,7,20000,91,0,49,9999,0.100000,0,0,0.000000,6,2.000000,0.000000,9.878337,0,0,0,0,0,0,0
2,29999,8,20000,37,10000,49,9999,0.100000,0,0,0.000000,5,1.000000,0.000000,3.688122,0,0,0,0,0,0,0
2,29999,9,20000,18,0,40,9999,0.100000,0,0,0.000000,6,0.000000,0.000000,0.891239,0,0,0,0,0,0,0
2,29999,10,20000,18,0,49,9999,0.100000,0,0,0.000000,6,4.000000,0.000000,5.901240,0,0,0,0,0,0,0
2,29999,11,20000,48,10000,49,9999,0.100000,0,0,0.000000,6,1.000000,0.000000,7.384765,0,0,0,0,0,0,0
2,29999,12,20000,18,0,40,9999,0.100000,0,0,0.000000,6,0.000000,0.000000,0.166214,0,0,0,0,0,0,0
2,29999,13,20000,61,10000,40,9999,0.100000,0,0,0.000000,5,0.000000,0.000000,0.122306,0,0,0,0,0,0,0
2,29999,14,20000,52,0,49,9999,0.100000,0,0,0.000000,6,1.000000,0.000000,1.890257,0,0,0,0,0,0,0
2,29999,15,20000,61,10000,40,9999,0.100000,0,0,0.000000,6,0.000000,0.000000,3.417288,0,0,0,0,0,0,0
2,29999,16,20000,18,0,49,9999,0.100000,0,0,0.000000,3,4.000000,0.000000,4.172681,0,0,0,0,0,0,0
2,29999,17,20000,91,0,49,9999,0.100000,0,0,0.000000,6,3.000000,0.000000,7.314125,0,0,0,0,0,0,0
2,29999,18,20000,61,10000,40,9999,0.100000,0,0,0.000000,6,0.000000,0.000000,0.081609,0,0,0,0,0,0,0
2,29999,19,20000,61,10000,40,9999,0.100000,0,0,0.000000,6,0.000000,0.000000,1.341883,0,0,0,0,0,0,0
2,29999,20,20000,61,10000,49,9999,0.100000,0,0,0.000000,5,5.000000,0.000000,11.803447,0,0,0,0,0,0,0
2,29999,21,20000,61,10000,40,9999,0.100000,0,0,0.000000,6,0.000000,0.000000,0.079925,0,0,0,0,0,0,0
2,29999,22,20000,91,0,40,9999,0.100000,0,0,0.000000,6,0.000000,0.000000,0.155768,0,0,0,0,0,0,0
2,29999,23,20000,32,10000,40,9999,0.100000,0,0,0.000000,6,0.000000,0.000000,0.816204,0,0,0,0,0,0,0
2,29999,24,20000,13,10000,40,9999,0.100000,0,0,0.000000,6,0.000000,0.000000,0.527365,0,0,0,0,0,0,0
2,29999,25,20000,48,10000,40,9999,0.100000,0,0,0.000000,6,0.000000,0.000000,1.240826,0,0,0,0,0,0,0
2,29999,26,20000,13,10000,40,9999,0.100000,0,0,0.000000,6,0.000000,0.000000,0.144243,0,0,0,0,0,0,0
2,29999,27,20000,61,10000,40,9999,0.100000,0,0,0.000000,6,0.000000,0.000000,0.488652,0,0,0,0,0,0,0
2,29999,28,20000,13,10000,40,9999,0.100000,0,0,0.000000,6,0.000000,0.000000,0.127711,0,0,0,0,0,0,0
2,29999,29,20000,18,0,40,9999,0.100000,0,0,0.000000,6,0.000000,0.000000,0.162581,0,0,0,0,0,0,0
2,29999,30,20000,1,10000,40,9999,0.100000,0,0,0.000000,6,0.000000,0.000000,0.156827,0,0,0,0,0,0,0
2,29999,31,20000,1,10000,40,9999,0.100000,0,0,0.000000,6,0.000000,0.000000,1.344743,0,0,0,0,0,0,0
2,29999,32,20000,32,10000,40,9999,0.100000,0,0,0.000000,6,0.000000,0.000000,0.663380,0,0,0,0,0,0,0
2,29999,33,20000,91,0,49,9999,0.065000,0,0,0.000000,5,1.000000,0.000000,8.447231,0,0,0,0,0,0,0
2,29999,34,20000,13,10000,49,9999,0.100000,0,0,0.000000,6,3.000000,0.000000,14.778388,0,0,0,0,0,0,0
2,29999,35,20000,1,10000,40,9999,0.100000,0,0,0.000000,6,0.000000,0.000000,0.406023,0,0,0,0,0,0,0
2,29999,36,20000,52,0,40,9999,0.100000,0,0,0.000000,6,0.000000,0.000000,0.386951,0,0,0,0,0,0,0
2,29999,37,20000,37,10000,40,9999,0.100000,0,0,0.000000,4,0.000000,0.000000,0.090042,0,0,0,0,0,0,0
2,29999,38,20000,91,0,49,9999,0.100000,0,0,0.000000,6,2.000000,0.000000,2.703789,0,0,0,0,0,0,0
2,29999,39,20000,13,10000,40,9999,0.100000,0,0,0.000000,6,0.000000,0.000000,0.172386,0,0,0,0,0,0,0
2,29999,40,20000,91,0,40,9999,0.100000,0,0,0.000000,5,0.000000,0.000000,6.804554,0,0,0,0,0,0,0
2,29999,41,20000,13,10000,49,9999,0.100000,0,0,0.000000,6,1.000000,0.000000,16.641310,0,0,0,0,0,0,0
2,29999,42,20000,18,0,49,9999,0.100000,0,0,0.000000,6,6.000000,0.000000,10.046098,0,0,0,0,0,0,0
2,29999,43,20000,61,10000,40,9999,0.100000,0,0,0.000000,5,0.000000,0.000000,0.850808,0,0,0,0,0,0,0
2,29999,44,20000,32,10000,49,9999,0.100000,0,0,0.000000,6,6.000000,0.000000,13.262789,0,0,0,0,0,0,0
2,29999,45,20000,18,0,40,9999,0.100000,0,0,0.000000,6,0.000000,0.000000,0.158875,0,0,0,0,0,0,0
2,29999,46,20000,13,10000,40,9999,0.100000,0,0,0.000000,6,0.000000,0.000000,0.238501,0,0,0,0,0,0,0
2,29999,47,20000,18,0,40,9999,0.100000,0,0,0.000000,6,0.000000,0.000000,0.963180,0,0,0,0,0,0,0
2,29999,48,10000,52,0,49,19999,0.100000,0,0,0.000000,6,4.000000,0.000000,6.709260,0,0,0,0,0,0,0
2,29999,49,20000,13,10000,40,9999,0.100000,0,0,0.000000,6,0.000000,0.000000,1.035352,0,0,0,0,0,0,0
2,29999,50,20000,37,10000,40,9999,0.100000,0,0,0.000000,4,0.000000,0.000000,0.854235,0,0,0,0,0,0,0
2,29999,51,20000,13,10000,40,9999,0.100000,0,0,0.000000,6,0.000000,0.000000,0.308809,0,0,0,0,0,0,0
2,29999,52,20000,32,10000,40,9999,0.100000,0,0,0.000000,6,0.000000,0.000000,0.717341,0,0,0,0,0,0,0
2,29999,53,20000,52,0,40,9999,0.100000,0,0,0.000000,6,0.000000,0.000000,0.280644,0,0,0,0,0,0,0
2,29999,54,20000,1,10000,40,9999,0.100000,0,0,0.000000,6,0.000000,0.000000,1.261865,0,0,0,0,0,0,0
2,29999,55,20000,48,10000,40,9999,0.100000,0,0,0.000000,6,0.000000,0.000000,0.424019,0,0,0,0,0,0,0
2,29999,56,20000,18,0,49,9999,0.100000,0,0,0.000000,6,2.000000,0.000000,5.617809,0,0,0,0,0,0,0
2,29999,57,20000,48,10000,40,9999,0.100000,0,0,0.000000,6,0.000000,0.000000,0.185122,0,0,0,0,0,0,0
2,29999,58,20000,13,10000,40,9999,0.100000,0,0,0.000000,6,0.000000,0.000000,0.317663,0,0,0,0,0,0,0
2,29999,59,20000,61,10000,40,9999,0.100000,0,0,0.000000,6,0.000000,0.000000,0.375904,0,0,0,0,0,0,0
2,29999,60,20000,91,0,49,9999,0.100000,0,0,0.000000,6,1.000000,0.000000,7.589219,0,0,0,0,0,0,0
2,29999,61,20000,37,10000,49,9999,0.100000,0,0,0.000000,5,1.000000,0.000000,3.560334,0,0,0,0,0,0,0
2,29999,62,20000,1,10000,40,9999,0.100000,0,0,0.000000,6,0.000000,0.000000,1.170321,0,0,0,0,0,0,0
2,29999,63,20000,91,0,49,9999,0.100000,0,0,0.000000,5,2.000000,0.000000,13.400875,0,0,0,0,0,0,0
2,29999,64,20000,48,10000,49,9999,0.100000,0,0,0.000000,6,1.000000,0.000000,3.428456,0,0,0,0,0,0,0
2,29999,65,20000,61,10000,40,9999,0.100000,0,0,0.000000,6,0.000000,0.000000,2.539279,0,0,0,0,0,0,0
2,29999,66,20000,18,0,40,9999,0.100000,0,0,0.000000,6,0.000000,0.000000,8.954219,0,0,0,0,0,0,0
2,29999,67,20000,13,10000,40,9999,0.100000,0,0,0.000000,6,0.000000,0.000000,1.063707,0,0,0,0,0,0,0
2,29999,68,20000,52,0,49,9999,0.100000,0,0,0.000000,6,1.000000,0.000000,10.817744,0,0,0,0,0,0,0
2,29999,69,20000,13,10000,40,9999,0.100000,0,0,0.000000,6,0.000000,0.000000,0.133448,0,0,0,0,0,0,0
2,29999,70,20000,18,0,40,9999,0.100000,0,0,0.000000,5,0.000000,0.000000,0.263957,0,0,0,0,0,0,0
2,29999,71,20000,13,10000,49,9999,0.100000,0,0,0.000000,6,1.000000,0.000000,4.777080,0,0,0,0,0,0,0
2,29999,72,20000,13,10000,40,9999,0.100000,0,0,0.000000,6,0.000000,0.000000,0.139958,0,0,0,0,0,0,0
2,29999,73,20000,18,0,40,9999,0.100000,0,0,0.000000,6,0.000000,0.000000,0.224462,0,0,0,0,0,0,0
2,29999,74,20000,1,10000,40,9999,0.100000,0,0,0.000000,6,0.000000,0.000000,0.334272,0,0,0,0,0,0,0
2,29999,75,20000,61,10000,49,9999,0.100000,0,0,0.000000,6,1.000000,0.000000,17.461935,0,0,0,0,0,0,0
2,29999,76,20000,52,0,49,9999,0.100000,0,0,0.000000,6,1.000000,0.000000,1.555000,0,0,0,0,0,0,0
2,29999,77,20000,18,0,40,9999,0.100000,0,0,0.000000,6,0.000000,0.000000,1.165346,0,0,0,0,0,0,0
2,29999,78,20000,18,0,49,9999,0.100000,0,0,0.000000,6,1.000000,0.000000,12.247877,0,0,0,0,0,0,0
2,29999,79,20000,18,0,49,9999,0.100000,0,0,0.000000,6,1.000000,0.000000,10.423681,0,0,0,0,0,0,0
2,29999,80,20000,52,0,49,9999,0.100000,0,0,0.000000,5,4.000000,0.000000,4.272446,0,0,0,0,0,0,0
2,29999,81,20000,32,10000,40,9999,0.100000,0,0,0.000000,6,0.000000,0.000000,3.468813,0,0,0,0,0,0,0
2,29999,82,20000,48,10000,40,9999,0.100000,0,0,0.000000,6,0.000000,0.000000,15.870299,0,0,0,0,0,0,0
2,29999,83,20000,18,0,40,9999,0.100000,0,0,0.000000,6,0.000000,0.000000,0.536971,0,0,0,0,0,0,0
2,29999,84,20000,61,10000,40,9999,0.100000,0,0,0.000000,6,0.000000,0.000000,0.112075,0,0,0,0,0,0,0
2,29999,85,20000,48,10000,40,9999,0.100000,0,0,0.000000,6,0.000000,0.000000,0.469793,0,0,0,0,0,0,0
2,29999,86,20000,32,10000,40,9999,0.100000,0,0,0.000000,6,0.000000,0.000000,0.150950,0,0,0,0,0,0,0
2,29999,87,20000,61,10000,40,9999,0.100000,0,0,0.000000,6,0.000000,0.000000,0.827918,0,0,0,0,0,0,0
2,29999,88,20000,52,0,40,9999,0.100000,0,0,0.000000,6,0.000000,0.000000,0.234296,0,0,0,0,0,0,0
2,29999,89,20000,61,10000,49,9999,0.100000,0,0,0.000000,6,4.000000,0.000000,15.175630,0,0,0,0,0,0,0
2,29999,90,20000,18,0,40,9999,0.100000,0,0,0.000000,6,0.000000,0.000000,0.968650,0,0,0,0,0,0,0
2,29999,91,20000,48,10000,49,9999,0.100000,0,0,0.000000,6,1.000000,0.000000,2.195216,0,0,0,0,0,0,0
2,29999,92,20000,13,10000,49,9999,0.100000,0,0,0.000000,6,2.000000,0.000000,14.047803,0,0,0,0,0,0,0
2,29999,93,20000,1,10000,49,9999,0.100000,0,0,0.000000,6,8.000000,0.000000,20.721974,0,0,0,0,0,0,0
2,29999,94,20000,48,10000,40,9999,0.100000,0,0,0.000000,6,0.000000,0.000000,0.836732,0,0,0,0,0,0,0
2,29999,95,20000,48,10000,49,9999,0.100000,0,0,0.000000,6,2.000000,0.000000,6.606153,0,0,0,0,0,0,0
2,29999,96,20000,48,10000,49,9999,0.100000,0,0,0.000000,6,1.000000,0.000000,11.996346,0,0,0,0,0,0,0
2,29999,97,20000,13,10000,40,9999,0.100000,0,0,0.000000,6,0.000000,0.000000,0.176305,0,0,0,0,0,0,0
2,29999,98,20000,91,0,40,9999,0.100000,0,0,0.000000,6,0.000000,0.000000,0.223716,0,0,0,0,0,0,0
2,29999,99,20000,18,0,40,9999,0.100000,0,0,0.000000,6,0.000000,0.000000,0.368203,0,0,0,0,0,0,0
3,39999,0,30000,48,10000,40,9999,0.100000,0,0,0.000000,6,0.000000,0.000000,0.486723,0,0,0,0,0,0,0
3,39999,1,30000,48,10000,40,9999,0.100000,0,0,0.000000,6,0.000000,0.000000,0.175965,0,0,0,0,0,0,0
3,39999,2,30000,48,10000,40,9999,0.100000,0,0,0.000000,6,0.000000,0.000000,1.021818,0,0,0,0,0,0,0
3,39999,3,30000,48,10000,49,9999,0.100000,0,0,0.000000,6,1.000000,0.000000,1.967206,0,0,0,0,0,0,0
3,39999,4,30000,91,0,49,9999,0.100000,0,0,0.000000,6,1.000000,0.000000,1.728813,0,0,0,0,0,0,0
3,39999,5,30000,91,0,40,9999,0.100000,0,0,0.000000,6,0.000000,0.000000,1.743386,0,0,0,0,0,0,0
3,39999,6,30000,48,10000,40,9999,0.100000,0,0,0.000000,6,0.000000,0.000000,0.230950,0,0,0,0,0,0,0
3,39999,7,30000,91,0,49,9999,0.100000,0,0,0.000000,6,1.000000,0.000000,2.566846,0,0,0,0,0,0,0
3,39999,8,30000,32,10000,49,9999,0.100000,0,0,0.000000,6,8.000000,0.000000,10.381223,0,0,0,0,0,0,0
3,39999,9,30000,18,0,40,9999,0.100000,0,0,0.000000,6,0.000000,0.000000,0.352525,0,0,0,0,0,0,0
3,39999,10,30000,91,0,49,9999,0.100000,0,0,0.000000,6,2.000000,0.000000,5.159985,0,0,0,0,0,0,0
3,39999,11,30000,32,10000,49,9999,0.100000,0,0,0.000000,6,9.000000,0.000000,14.622597,0,0,0,0,0,0,0
3,39999,12,30000,32,10000,40,9999,0.100000,0,0,0.000000,6,0.000000,0.000000,0.483707,0,0,0,0,0,0,0
3,39999,13,30000,13,10000,40,9999,0.100000,0,0,0.000000,6,0.000000,0.000000,0.159484,0,0,0,0,0,0,0
3,39999,14,30000,32,10000,40,9999,0.100000,0,0,0.000000,6,0.000000,0.000000,0.150239,0,0,0,0,0,0,0
3,39999,15,30000,48,10000,40,9999,0.100000,0,0,0.000000,6,0.000000,0.000000,0.370779,0,0,0,0,0,0,0
3,39999,16,30000,18,0,40,9999,0.100000,0,0,0.000000,6,0.000000,0.000000,0.646840,0,0,0,0,0,0,0
3,39999,17,30000,18,0,49,9999,0.100000,0,0,0.000000,6,2.000000,0.000000,4.433731,0,0,0,0,0,0,0
3,39999,18,30000,1,10000,40,9999,0.100000,0,0,0.000000,6,0.000000,0.000000,0.080624,0,0,0,0,0,0,0
3,39999,19,30000,13,10000,40,9999,0.100000,0,0,0.000000,6,0.000000,0.000000,0.833792,0,0,0,0,0,0,0
3,39999,20,30000,91,0,40,9999,0.100000,0,0,0.000000,6,0.000000,0.000000,16.334641,0,0,0,0,0,0,0
3,39999,21,30000,18,0,40,9999,0.100000,0,0,0.000000,6,0.000000,0.000000,0.080729,0,0,0,0,0,0,0
3,39999,22,30000,91,0,40,9999,0.100000,0,0,0.000000,6,0.000000,0.000000,0.111241,0,0,0,0,0,0,0
3,39999,23,30000,32,10000,40,9999,0.100000,0,0,0.000000,6,0.000000,0.000000,0.953653,0,0,0,0,0,0,0
3,39999,24,30000,1,10000,40,9999,0.100000,0,0,0.000000,6,0.000000,0.000000,1.884407,0,0,0,0,0,0,0
3,39999,25,30000,1,10000,40,9999,0.100000,0,0,0.000000,6,0.000000,0.000000,2.247340,0,0,0,0,0,0,0
3,39999,26,30000,1,10000,40,9999,0.100000,0,0,0.000000,6,0.000000,0.000000,0.127494,0,0,0,0,0,0,0
3,39999,27,30000,91,0,49,9999,0.100000,0,0,0.000000,6,1.000000,0.000000,1.678518,0,0,0,0,0,0,0
3,39999,28,30000,13,10000,40,9999,0.100000,0,0,0.000000,6,0.000000,0.000000,0.126028,0,0,0,0,0,0,0
3,39999,29,30000,32,10000,40,9999,0.100000,0,0,0.000000,6,0.000000,0.000000,0.320057,0,0,0,0,0,0,0
3,39999,30,30000,1,10000,40,9999,0.100000,0,0,0.000000,6,0.000000,0.000000,0.185126,0,0,0,0,0,0,0
3,39999,31,30000,32,10000,40,9999,0.100000,0,0,0.000000,6,0.000000,0.000000,1.629751,0,0,0,0,0,0,0
3,39999,32,30000,32,20000,40,9999,0.100000,0,0,0.000000,6,0.000000,0.000000,0.493713,0,0,0,0,0,0,0
3,39999,33,30000,18,0,49,9999,0.100000,0,0,0.000000,6,1.000000,0.000000,8.843270,0,0,0,0,0,0,0
3,39999,34,30000,13,10000,40,9999,0.100000,0,0,0.000000,6,0.000000,0.000000,2.223555,0,0,0,0,0,0,0
3,39999,35,30000,32,10000,40,9999,0.100000,0,0,0.000000,6,0.000000,0.000000,1.804388,0,0,0,0,0,0,0
3,39999,36,30000,13,10000,49,9999,0.100000,0,0,0.000000,6,1.000000,0.000000,1.514746,0,0,0,0,0,0,0
3,39999,37,30000,18,0,40,9999,0.100000,0,0,0.000000,6,0.000000,0.000000,0.224356,0,0,0,0,0,0,0
3,39999,38,30000,13,10000,40,9999,0.100000,0,0,0.000000,6,0.000000,0.000000,0.187382,0,0,0,0,0,0,0
3,39999,39,30000,48,10000,40,9999,0.100000,0,0,0.000000,6,0.000000,0.000000,0.186200,0,0,0,0,0,0,0
3,39999,40,30000,18,0,49,9999,0.100000,0,0,0.000000,6,4.000000,0.000000,21.667681,0,0,0,0,0,0,0
3,39999,41,30000,91,0,49,9999,0.065000,0,0,0.000000,6,7.000000,0.000000,11.483790,0,0,0,0,0,0,0
3,39999,42,30000,91,0,49,9999,0.100000,0,0,0.000000,6,1.000000,0.000000,2.744237,0,0,0,0,0,0,0
3,39999,43,30000,32,20000,40,9999,0.100000,0,0,0.000000,6,0.000000,0.000000,0.927890,0,0,0,0,0,0,0
3,39999,44,30000,91,0,40,9999,0.100000,0,0,0.000000,6,0.000000,0.000000,0.996914,0,0,0,0,0,0,0
3,39999,45,30000,91,0,40,9999,0.100000,0,0,0.000000,6,0.000000,0.000000,0.286483,0,0,0,0,0,0,0
3,39999,46,30000,48,10000,49,9999,0.100000,0,0,0.000000,6,10.000000,0.000000,20.746338,0,0,0,0,0,0,0
3,39999,47,30000,48,10000,40,9999,0.100000,0,0,0.000000,6,0.000000,0.000000,0.892269,0,0,0,0,0,0,0
3,39999,48,30000,32,10000,99,9999,0.100000,0,0,34.210526,6,4.000000,0.000000,8.251890,0,0,1,0,0,0,0
3,39999,49,30000,91,0,49,9999,0.100000,0,0,0.000000,6,1.000000,0.000000,2.209589,0,0,0,0,0,0,0
3,39999,50,30000,18,0,40,9999,0.100000,0,0,0.000000,6,0.000000,0.000000,1.039259,0,0,0,0,0,0,0
3,39999,51,30000,18,0,49,9999,0.100000,0,0,0.000000,6,5.000000,0.000000,12.397637,0,0,0,0,0,0,0
3,39999,52,30000,18,0,40,9999,0.100000,0,0,0.000000,6,0.000000,0.000000,0.861941,0,0,0,0,0,0,0
3,39999,53,30000,32,10000,40,9999,0.100000,0,0,0.000000,6,0.000000,0.000000,0.325913,0,0,0,0,0,0,0
3,39999,54,30000,13,10000,40,9999,0.100000,0,0,0.000000,6,0.000000,0.000000,0.736655,0,0,0,0,0,0,0
3,39999,55,30000,18,0,40,9999,0.100000,0,0,0.000000,6,0.000000,0.000000,0.385069,0,0,0,0,0,0,0
3,39999,56,30000,1,10000,40,9999,0.100000,0,0,0.000000,6,0.000000,0.000000,3.615443,0,0,0,0,0,0,0
3,39999,57,30000,1,10000,40,9999,0.100000,0,0,0.000000,6,0.000000,0.000000,0.196141,0,0,0,0,0,0,0
3,39999,58,30000,48,10000,40,9999,0.100000,0,0,0.000000,6,0.000000,0.000000,0.408512,0,0,0,0,0,0,0
3,39999,59,30000,32,10000,40,9999,0.100000,0,0,0.000000,6,0.000000,0.000000,0.386707,0,0,0,0,0,0,0
3,39999,60,30000,48,10000,40,9999,0.100000,0,0,0.000000,6,0.000000,0.000000,6.038769,0,0,0,0,0,0,0
3,39999,61,30000,1,10000,40,9999,0.100000,0,0,0.000000,6,0.000000,0.000000,22.431540,0,0,0,0,0,0,0
3,39999,62,30000,48,10000,40,9999,0.100000,0,0,0.000000,6,0.000000,0.000000,1.216928,0,0,0,0,0,0,0
3,39999,63,30000,48,10000,49,9999,0.100000,0,0,0.000000,6,3.000000,0.000000,14.714455,0,0,0,0,0,0,0
3,39999,64,30000,91,0,40,9999,0.100000,0,0,0.000000,6,0.000000,0.000000,3.668219,0,0,0,0,0,0,0
3,39999,65,30000,91,0,40,9999,0.100000,0,0,0.000000,6,0.000000,0.000000,1.133860,0,0,0,0,0,0,0
3,39999,66,30000,18,0,40,9999,0.100000,0,0,0.000000,6,0.000000,0.000000,1.179730,0,0,0,0,0,0,0
3,39999,67,30000,1,10000,40,9999,0.100000,0,0,0.000000,6,0.000000,0.000000,0.581321,0,0,0,0,0,0,0
3,39999,68,30000,48,10000,49,9999,0.100000,0,0,0.000000,6,1.000000,0.000000,11.826703,0,0,0,0,0,0,0
3,39999,69,30000,1,10000,40,9999,0.100000,0,0,0.000000,6,0.000000,0.000000,0.155430,0,0,0,0,0,0,0
3,39999,70,30000,32,20000,40,9999,0.100000,0,0,0.000000,6,0.000000,0.000000,0.296135,0,0,0,0,0,0,0
3,39999,71,30000,48,10000,49,9999,0.100000,0,0,0.000000,6,2.000000,0.000000,4.134807,0,0,0,0,0,0,0
3,39999,72,30000,48,10000,40,9999,0.100000,0,0,0.000000,6,0.000000,0.000000,0.245410,0,0,0,0,0,0,0
3,39999,73,30000,32,20000,40,9999,0.100000,0,0,0.000000,6,0.000000,0.000000,0.504846,0,0,0,0,0,0,0
3,39999,74,30000,32,10000,40,9999,0.100000,0,0,0.000000,6,0.000000,0.000000,0.418241,0,0,0,0,0,0,0
3,39999,75,30000,1,10000,49,9999,0.100000,0,0,0.000000,6,9.000000,0.000000,11.107455,0,0,0,0,0,0,0
3,39999,76,30000,32,10000,40,9999,0.100000,0,0,0.000000,6,0.000000,0.000000,1.764592,0,0,0,0,0,0,0
3,39999,77,30000,18,0,40,9999,0.100000,0,0,0.000000,6,0.000000,0.000000,0.820188,0,0,0,0,0,0,0
3,39999,78,30000,18,0,40,9999,0.100000,0,0,0.000000,6,0.000000,0.000000,14.666768,0,0,0,0,0,0,0
3,39999,79,30000,32,20000,40,9999,0.100000,0,0,0.000000,6,0.000000,0.000000,9.133797,0,0,0,0,0,0,0
3,39999,80,30000,48,10000,40,9999,0.100000,0,0,0.000000,6,0.000000,0.000000,0.703395,0,0,0,0,0,0,0
3,39999,81,30000,48,10000,40,9999,0.100000,0,0,0.000000,6,0.000000,0.000000,3.666995,0,0,0,0,0,0,0
3,39999,82,30000,32,20000,40,9999,0.100000,0,0,0.000000,6,0.000000,0.000000,17.999354,0,0,0,0,0,0,0
3,39999,83,30000,91,0,40,9999,0.100000,0,0,0.000000,6,0.000000,0.000000,0.518300,0,0,0,0,0,0,0
3,39999,84,30000,48,10000,40,9999,0.100000,0,0,0.000000,6,0.000000,0.000000,0.111014,0,0,0,0,0,0,0
3,39999,85,30000,91,0,49,9999,0.100000,0,0,0.000000,6,3.000000,0.000000,7.907999,0,0,0,0,0,0,0
3,39999,86,30000,32,10000,40,9999,0.100000,0,0,0.000000,6,0.000000,0.000000,0.152216,0,0,0,0,0,0,0
3,39999,87,30000,18,0,40,9999,0.100000,0,0,0.000000,6,0.000000,0.000000,1.903042,0,0,0,0,0,0,0
3,39999,88,30000,32,10000,49,9999,0.100000,0,0,0.000000,6,5.000000,0.000000,11.498430,0,0,0,0,0,0,0
3,39999,89,30000,13,10000,49,9999,0.100000,0,0,0.000000,6,1.000000,0.000000,4.448592,0,0,0,0,0,0,0
3,39999,90,30000,32,10000,40,9999,0.100000,0,0,0.000000,6,0.000000,0.000000,1.033803,0,0,0,0,0,0,0
3,39999,91,30000,32,10000,40,9999,0.100000,0,0,0.000000,6,0.000000,0.000000,1.931032,0,0,0,0,0,0,0
3,39999,92,30000,1,10000,49,9999,0.100000,0,0,0.000000,6,3.000000,0.000000,10.350769,0,0,0,0,0,0,0
3,39999,93,30000,18,0,49,9999,0.100000,0,0,0.000000,6,1.000000,0.000000,6.777823,0,0,0,0,0,0,0
3,39999,94,30000,32,10000,49,9999,0.100000,0,0,0.000000,6,9.000000,0.000000,20.457588,0,0,0,0,0,0,0
3,39999,95,30000,91,0,40,9999,0.100000,0,0,0.000000,6,0.000000,0.000000,2.080053,0,0,0,0,0,0,0
3,39999,96,30000,91,0,40,9999,0.100000,0,0,0.000000,6,0.000000,0.000000,4.073385,0,0,0,0,0,0,0
3,39999,97,30000,18,0,40,9999,0.100000,0,0,0.000000,6,0.000000,0.000000,0.333533,0,0,0,0,0,0,0
3,39999,98,30000,18,0,40,9999,0.100000,0,0,0.000000,6,0.000000,0.000000,0.233706,0,0,0,0,0,0,0
3,39999,99,30000,91,0,40,9999,0.100000,0,0,0.000000,6,0.000000,0.000000,0.495795,0,0,0,0,0,0,0
4,49999,0,40000,32,10000,40,9999,0.100000,0,0,0.000000,6,0.000000,0.000000,0.269242,0,0,0,0,0,0,0
4,49999,1,40000,91,0,40,9999,0.100000,0,0,0.000000,6,0.000000,0.000000,0.227193,0,0,0,0,0,0,0
4,49999,2,40000,91,0,40,9999,0.100000,0,0,0.000000,6,0.000000,0.000000,0.997841,0,0,0,0,0,0,0
4,49999,3,40000,1,10000,49,9999,0.100000,0,0,0.000000,6,4.000000,0.000000,5.244260,0,0,0,0,0,0,0
4,49999,4,40000,1,10000,40,9999,0.100000,0,0,0.000000,6,0.000000,0.000000,1.065834,0,0,0,0,0,0,0
4,49999,5,40000,48,10000,49,9999,0.100000,0,0,0.000000,6,3.000000,0.000000,10.343058,0,0,0,0,0,0,0
4,49999,6,40000,48,10000,40,9999,0.100000,0,0,0.000000,6,0.000000,0.000000,0.295022,0,0,0,0,0,0,0
4,49999,7,40000,48,10000,40,9999,0.100000,0,0,0.000000,6,0.000000,0.000000,0.628266,0,0,0,0,0,0,0
4,49999,8,40000,91,0,40,9999,0.100000,0,0,0.000000,6,0.000000,0.000000,3.127334,0,0,0,0,0,0,0
4,49999,9,40000,32,10000,40,9999,0.100000,0,0,0.000000,6,0.000000,0.000000,1.774240,0,0,0,0,0,0,0
4,49999,10,40000,48,10000,49,9999,0.100000,0,0,0.000000,6,1.000000,0.000000,10.204828,0,0,0,0,0,0,0
4,49999,11,40000,32,20000,49,9999,0.100000,0,0,0.000000,6,1.000000,0.000000,7.122646,0,0,0,0,0,0,0
4,49999,12,40000,91,0,40,9999,0.100000,0,0,0.000000,6,0.000000,0.000000,0.136339,0,0,0,0,0,0,0
4,49999,13,40000,91,0,40,9999,0.100000,0,0,0.000000,6,0.000000,0.000000,0.386133,0,0,0,0,0,0,0
4,49999,14,40000,18,0,40,9999,0.100000,0,0,0.000000,6,0.000000,0.000000,0.115546,0,0,0,0,0,0,0
4,49999,15,40000,91,0,40,9999,0.100000,0,0,0.000000,6,0.000000,0.000000,0.317369,0,0,0,0,0,0,0
4,49999,16,40000,48,10000,40,9999,0.100000,0,0,0.000000,6,0.000000,0.000000,1.564952,0,0,0,0,0,0,0
4,49999,17,40000,48,10000,40,9999,0.100000,0,0,0.000000,6,0.000000,0.000000,0.145909,0,0,0,0,0,0,0
4,49999,18,40000,48,10000,40,9999,0.100000,0,0,0.000000,6,0.000000,0.000000,0.080374,0,0,0,0,0,0,0
4,49999,19,40000,32,20000,40,9999,0.100000,0,0,0.000000,6,0.000000,0.000000,0.451406,0,0,0,0,0,0,0
4,49999,20,40000,48,10000,49,9999,0.100000,0,0,0.000000,6,3.000000,0.000000,8.925805,0,0,0,0,0,0,0
4,49999,21,40000,48,10000,40,9999,0.100000,0,0,0.000000,6,0.000000,0.000000,0.080448,0,0,0,0,0,0,0
4,49999,22,40000,48,10000,40,9999,0.100000,0,0,0.000000,6,0.000000,0.000000,0.111331,0,0,0,0,0,0,0
4,49999,23,40000,32,20000,40,9999,0.100000,0,0,0.000000,6,0.000000,0.000000,1.520723,0,0,0,0,0,0,0
4,49999,24,40000,1,10000,49,9999,0.100000,0,0,0.000000,6,1.000000,0.000000,5.240350,0,0,0,0,0,0,0
4,49999,25,40000,32,10000,40,9999,0.100000,0,0,0.000000,6,0.000000,0.000000,3.174718,0,0,0,0,0,0,0
4,49999,26,40000,48,10000,40,9999,0.100000,0,0,0.000000,6,0.000000,0.000000,0.128526,0,0,0,0,0,0,0
4,49999,27,40000,32,10000,40,9999,0.100000,0,0,0.000000,6,0.000000,0.000000,0.490537,0,0,0,0,0,0,0
4,49999,28,40000,18,0,40,9999,0.100000,0,0,0.000000,6,0.000000,0.000000,0.157331,0,0,0,0,0,0,0
4,49999,29,40000,1,10000,40,9999,0.100000,0,0,0.000000,6,0.000000,0.000000,0.512755,0,0,0,0,0,0,0
4,49999,30,40000,1,10000,40,9999,0.100000,0,0,0.000000,6,0.000000,0.000000,0.215773,0,0,0,0,0,0,0
4,49999,31,40000,18,0,40,9999,0.100000,0,0,0.000000,6,0.000000,0.000000,0.317670,0,0,0,0,0,0,0
4,49999,32,40000,32,20000,40,9999,0.100000,0,0,0.000000,6,0.000000,0.000000,0.425183,0,0,0,0,0,0,0
4,49999,33,40000,32,10000,49,9999,0.100000,0,0,0.000000,6,1.000000,0.000000,3.109968,0,0,0,0,0,0,0
4,49999,34,40000,48,10000,40,9999,0.100000,0,0,0.000000,6,0.000000,0.000000,0.824439,0,0,0,0,0,0,0
4,49999,35,40000,1,10000,49,9999,0.100000,0,0,0.000000,6,1.000000,0.000000,3.130082,0,0,0,0,0,0,0
4,49999,36,40000,48,10000,40,9999,0.100000,0,0,0.000000,6,0.000000,0.000000,0.318160,0,0,0,0,0,0,0
4,49999,37,40000,32,20000,40,9999,0.100000,0,0,0.000000,6,0.000000,0.000000,0.384706,0,0,0,0,0,0,0
4,49999,38,40000,1,10000,40,9999,0.100000,0,0,0.000000,6,0.000000,0.000000,0.159033,0,0,0,0,0,0,0
4,49999,39,40000,91,0,40,9999,0.100000,0,0,0.000000,6,0.000000,0.000000,0.176874,0,0,0,0,0,0,0
4,49999,40,40000,48,10000,40,9999,0.100000,0,0,0.000000,6,0.000000,0.000000,1.662705,0,0,0,0,0,0,0
4,49999,41,40000,18,0,49,9999,0.100000,0,0,0.000000,6,2.000000,0.000000,4.434011,0,0,0,0,0,0,0
4,49999,42,40000,1,10000,40,9999,0.100000,0,0,0.000000,6,0.000000,0.000000,17.580555,0,0,0,0,0,0,0
4,49999,43,40000,1,10000,40,9999,0.100000,0,0,0.000000,6,0.000000,0.000000,0.855267,0,0,0,0,0,0,0
4,49999,44,40000,18,0,40,9999,0.100000,0,0,0.000000,6,0.000000,0.000000,0.140026,0,0,0,0,0,0,0
4,49999,45,40000,18,0,40,9999,0.100000,0,0,0.000000,6,0.000000,0.000000,0.426952,0,0,0,0,0,0,0
4,49999,46,40000,91,0,40,9999,0.100000,0,0,0.000000,6,0.000000,0.000000,0.153177,0,0,0,0,0,0,0
4,49999,47,40000,32,20000,40,9999,0.100000,0,0,0.000000,6,0.000000,0.000000,1.164130,0,0,0,0,0,0,0
4,49999,48,40000,18,0,49,9999,0.100000,0,0,0.000000,6,1.000000,0.000000,2.731769,0,0,0,0,0,0,0
4,49999,49,40000,1,10000,49,9999,0.100000,0,0,0.000000,6,4.000000,0.000000,5.091878,0,0,0,0,0,0,0
4,49999,50,40000,1,10000,40,9999,0.100000,0,0,0.000000,6,0.000000,0.000000,0.864146,0,0,0,0,0,0,0
4,49999,51,40000,1,10000,40,9999,0.100000,0,0,0.000000,6,0.000000,0.000000,0.572178,0,0,0,0,0,0,0
4,49999,52,40000,18,0,40,9999,0.100000,0,0,0.000000,6,0.000000,0.000000,0.585182,0,0,0,0,0,0,0
4,49999,53,40000,1,10000,40,9999,0.100000,0,0,0.000000,6,0.000000,0.000000,0.360679,0,0,0,0,0,0,0
4,49999,54,40000,48,10000,40,9999,0.100000,0,0,0.000000,6,0.000000,0.000000,0.859091,0,0,0,0,0,0,0
4,49999,55,40000,32,20000,40,9999,0.100000,0,0,0.000000,6,0.000000,0.000000,0.360050,0,0,0,0,0,0,0
4,49999,56,40000,91,0,49,9999,0.100000,0,0,0.000000,6,4.000000,0.000000,11.815792,0,0,0,0,0,0,0
4,49999,57,40000,32,20000,40,9999,0.100000,0,0,0.000000,6,0.000000,0.000000,0.181780,0,0,0,0,0,0,0
4,49999,58,40000,1,10000,40,9999,0.100000,0,0,0.000000,6,0.000000,0.000000,0.487949,0,0,0,0,0,0,0
4,49999,59,40000,1,10000,40,9999,0.100000,0,0,0.000000,6,0.000000,0.000000,0.400897,0,0,0,0,0,0,0
4,49999,60,40000,32,20000,40,9999,0.065000,0,0,0.000000,6,0.000000,0.000000,5.752132,0,0,0,0,0,0,0
4,49999,61,40000,32,20000,40,9999,0.100000,0,0,0.000000,6,0.000000,0.000000,21.955234,0,0,0,0,0,0,0
4,49999,62,40000,1,10000,40,9999,0.100000,0,0,0.000000,6,0.000000,0.000000,0.242551,0,0,0,0,0,0,0
4,49999,63,40000,18,0,49,9999,0.100000,0,0,0.000000,6,2.000000,0.000000,12.244820,0,0,0,0,0,0,0
4,49999,64,40000,1,10000,40,9999,0.100000,0,0,0.000000,6,0.000000,0.000000,3.477635,0,0,0,0,0,0,0
4,49999,65,40000,32,10000,49,9999,0.100000,0,0,0.000000,6,1.000000,0.000000,6.209243,0,0,0,0,0,0,0
4,49999,66,40000,91,0,40,9999,0.100000,0,0,0.000000,6,0.000000,0.000000,0.718218,0,0,0,0,0,0,0
4,49999,67,40000,32,10000,40,9999,0.100000,0,0,0.000000,6,0.000000,0.000000,0.651678,0,0,0,0,0,0,0
4,49999,68,40000,48,10000,49,9999,0.100000,0,0,0.000000,6,1.000000,0.000000,11.060501,0,0,0,0,0,0,0
4,49999,69,40000,32,20000,40,9999,0.100000,0,0,0.000000,6,0.000000,0.000000,0.171428,0,0,0,0,0,0,0
4,49999,70,40000,32,10000,40,9999,0.100000,0,0,0.000000,6,0.000000,0.000000,0.251950,0,0,0,0,0,0,0
4,49999,71,40000,1,10000,40,9999,0.100000,0,0,0.000000,6,0.000000,0.000000,0.368973,0,0,0,0,0,0,0
4,49999,72,40000,91,0,40,9999,0.100000,0,0,0.000000,6,0.000000,0.000000,0.590516,0,0,0,0,0,0,0
4,49999,73,40000,91,0,40,9999,0.100000,0,0,0.000000,6,0.000000,0.000000,0.595006,0,0,0,0,0,0,0
4,49999,74,40000,91,0,40,9999,0.100000,0,0,0.000000,6,0.000000,0.000000,0.625771,0,0,0,0,0,0,0
4,49999,75,40000,32,10000,49,9999,0.100000,0,0,0.000000,6,1.000000,0.000000,3.502977,0,0,0,0,0,0,0
4,49999,76,40000,18,0,40,9999,0.100000,0,0,0.000000,6,0.000000,0.000000,0.323197,0,0,0,0,0,0,0
4,49999,77,40000,32,20000,40,9999,0.100000,0,0,0.000000,6,0.000000,0.000000,1.662592,0,0,0,0,0,0,0
4,49999,78,40000,18,0,40,9999,0.100000,0,0,0.000000,6,0.000000,0.000000,2.901528,0,0,0,0,0,0,0
4,49999,79,40000,32,20000,40,9999,0.100000,0,0,0.000000,6,0.000000,0.000000,9.232052,0,0,0,0,0,0,0
4,49999,80,40000,18,0,40,9999,0.100000,0,0,0.000000,6,0.000000,0.000000,1.469180,0,0,0,0,0,0,0
4,49999,81,40000,32,10000,40,9999,0.100000,0,0,0.000000,6,0.000000,0.000000,1.411413,0,0,0,0,0,0,0
4,49999,82,40000,48,10000,49,9999,0.100000,0,0,0.000000,6,2.000000,0.000000,7.245916,0,0,0,0,0,0,0
4,49999,83,40000,32,10000,40,9999,0.100000,0,0,0.000000,6,0.000000,0.000000,0.521363,0,0,0,0,0,0,0
4,49999,84,40000,48,10000,40,9999,0.100000,0,0,0.000000,6,0.000000,0.000000,0.115300,0,0,0,0,0,0,0
4,49999,85,40000,32,20000,40,9999,0.100000,0,0,0.000000,6,0.000000,0.000000,0.503989,0,0,0,0,0,0,0
4,49999,86,40000,91,0,40,9999,0.100000,0,0,0.000000,6,0.000000,0.000000,0.153243,0,0,0,0,0,0,0
4,49999,87,40000,32,10000,99,9999,0.100000,0,0,34.210526,6,17.000000,0.000000,24.061398,0,0,1,0,0,0,0
4,49999,88,40000,1,10000,40,9999,0.100000,0,0,0.000000,6,0.000000,0.000000,0.257751,0,0,0,0,0,0,0
4,49999,89,40000,91,0,49,9999,0.100000,0,0,0.000000,6,1.000000,0.000000,6.574804,0,0,0,0,0,0,0
4,49999,90,40000,1,10000,40,9999,0.100000,0,0,0.000000,6,0.000000,0.000000,0.166974,0,0,0,0,0,0,0
4,49999,91,40000,32,10000,40,9999,0.100000,0,0,0.000000,6,0.000000,0.000000,3.735768,0,0,0,0,0,0,0
4,49999,92,40000,1,10000,49,9999,0.100000,0,0,0.000000,6,1.000000,0.000000,11.581534,0,0,0,0,0,0,0
4,49999,93,40000,18,0,40,9999,0.100000,0,0,0.000000,6,0.000000,0.000000,4.396447,0,0,0,0,0,0,0
4,49999,94,40000,18,0,40,9999,0.100000,0,0,0.000000,6,0.000000,0.000000,0.890294,0,0,0,0,0,0,0
4,49999,95,40000,48,10000,49,9999,0.100000,0,0,0.000000,6,1.000000,0.000000,9.753400,0,0,0,0,0,0,0
4,49999,96,40000,48,10000,49,9999,0.100000,0,0,0.000000,6,3.000000,0.000000,10.383401,0,0,0,0,0,0,0
4,49999,97,40000,32,10000,49,9999,0.100000,0,0,0.000000,6,6.000000,0.000000,8.828839,0,0,0,0,0,0,0
4,49999,98,40000,32,10000,40,9999,0.100000,0,0,0.000000,6,0.000000,0.000000,0.271720,0,0,0,0,0,0,0
4,49999,99,40000,32,20000,40,9999,0.100000,0,0,0.000000,6,0.000000,0.000000,0.607818,0,0,0,0,0,0,0
5,59999,0,50000,48,10000,40,9999,0.100000,0,0,0.000000,6,0.000000,0.000000,0.276678,0,0,0,0,0,0,0
5,59999,1,50000,18,0,40,9999,0.100000,0,0,0.000000,6,0.000000,0.000000,0.189605,0,0,0,0,0,0,0
5,59999,2,50000,48,10000,40,9999,0.100000,0,0,0.000000,6,0.000000,0.000000,1.024985,0,0,0,0,0,0,0
5,59999,3,50000,48,10000,40,9999,0.100000,0,0,0.000000,6,0.000000,0.000000,7.768321,0,0,0,0,0,0,0
5,59999,4,50000,18,0,49,9999,0.100000,0,0,0.000000,6,1.000000,0.000000,5.770994,0,0,0,0,0,0,0
5,59999,5,50000,91,0,40,9999,0.100000,0,0,0.000000,6,0.000000,0.000000,0.988025,0,0,0,0,0,0,0
5,59999,6,50000,48,10000,40,9999,0.100000,0,0,0.000000,6,0.000000,0.000000,0.133084,0,0,0,0,0,0,0
5,59999,7,50000,48,10000,40,9999,0.100000,0,0,0.000000,6,0.000000,0.000000,0.530289,0,0,0,0,0,0,0
5,59999,8,50000,32,20000,49,9999,0.100000,0,0,0.000000,6,1.000000,0.000000,1.798935,0,0,0,0,0,0,0
5,59999,9,50000,1,10000,40,9999,0.100000,0,0,0.000000,6,0.000000,0.000000,0.282232,0,0,0,0,0,0,0
5,59999,10,50000,1,10000,40,9999,0.100000,0,0,0.000000,6,0.000000,0.000000,4.394031,0,0,0,0,0,0,0
5,59999,11,50000,18,0,49,9999,0.100000,0,0,0.000000,6,3.000000,0.000000,8.235823,0,0,0,0,0,0,0
5,59999,12,50000,48,10000,40,9999,0.100000,0,0,0.000000,6,0.000000,0.000000,0.136335,0,0,0,0,0,0,0
5,59999,13,50000,1,10000,40,9999,0.100000,0,0,0.000000,6,0.000000,0.000000,0.669354,0,0,0,0,0,0,0
5,59999,14,50000,32,20000,40,9999,0.100000,0,0,0.000000,6,0.000000,0.000000,0.127904,0,0,0,0,0,0,0
5,59999,15,50000,32,20000,40,9999,0.100000,0,0,0.000000,6,0.000000,0.000000,0.312248,0,0,0,0,0,0,0
5,59999,16,50000,32,10000,49,9999,0.100000,0,0,0.000000,6,1.000000,0.000000,4.452685,0,0,0,0,0,0,0
5,59999,17,50000,32,10000,40,9999,0.100000,0,0,0.000000,6,0.000000,0.000000,0.133172,0,0,0,0,0,0,0
5,59999,18,50000,18,0,40,9999,0.100000,0,0,0.000000,6,0.000000,0.000000,0.081651,0,0,0,0,0,0,0
5,59999,19,50000,91,0,40,9999,0.135000,0,0,0.000000,6,0.000000,0.000000,0.318036,0,0,0,0,0,0,0
5,59999,20,50000,1,10000,49,9999,0.100000,0,0,0.000000,6,5.000000,0.000000,12.663187,0,0,0,0,0,0,0
5,59999,21,50000,32,10000,40,9999,0.100000,0,0,0.000000,6,0.000000,0.000000,0.080653,0,0,0,0,0,0,0
5,59999,22,50000,48,10000,40,9999,0.100000,0,0,0.000000,6,0.000000,0.000000,0.110396,0,0,0,0,0,0,0
5,59999,23,50000,32,10000,49,9999,0.100000,0,0,0.000000,6,1.000000,0.000000,3.115604,0,0,0,0,0,0,0
5,59999,24,50000,48,10000,49,9999,0.100000,0,0,0.000000,6,1.000000,0.000000,3.184006,0,0,0,0,0,0,0
5,59999,25,50000,32,20000,40,9999,0.100000,0,0,0.000000,6,0.000000,0.000000,2.443018,0,0,0,0,0,0,0
5,59999,26,50000,1,10000,40,9999,0.100000,0,0,0.000000,6,0.000000,0.000000,0.093510,0,0,0,0,0,0,0
5,59999,27,50000,32,20000,49,9999,0.100000,0,0,0.000000,6,1.000000,0.000000,18.591026,0,0,0,0,0,0,0
5,59999,28,50000,18,0,40,9999,0.100000,0,0,0.000000,6,0.000000,0.000000,0.160475,0,0,0,0,0,0,0
5,59999,29,50000,1,10000,40,9999,0.100000,0,0,0.000000,6,0.000000,0.000000,0.585802,0,0,0,0,0,0,0
5,59999,30,50000,48,10000,40,9999,0.100000,0,0,0.000000,6,0.000000,0.000000,0.171947,0,0,0,0,0,0,0
5,59999,31,50000,91,0,40,9999,0.100000,0,0,0.000000,6,0.000000,0.000000,0.294459,0,0,0,0,0,0,0
5,59999,32,50000,32,20000,40,9999,0.100000,0,0,0.000000,6,0.000000,0.000000,0.595980,0,0,0,0,0,0,0
5,59999,33,50000,1,10000,40,9999,0.100000,0,0,0.000000,6,0.000000,0.000000,4.971090,0,0,0,0,0,0,0
5,59999,34,50000,91,0,49,9999,0.100000,0,0,0.000000,6,1.000000,0.000000,1.408465,0,0,0,0,0,0,0
5,59999,35,50000,32,10000,40,9999,0.100000,0,0,0.000000,6,0.000000,0.000000,1.148561,0,0,0,0,0,0,0
5,59999,36,50000,91,0,49,9999,0.100000,0,0,0.000000,6,2.000000,0.000000,8.027582,0,0,0,0,0,0,0
5,59999,37,50000,18,0,40,9999,0.100000,0,0,0.000000,6,0.000000,0.000000,1.035073,0,0,0,0,0,0,0
5,59999,38,50000,48,10000,40,9999,0.100000,0,0,0.000000,6,0.000000,0.000000,0.151722,0,0,0,0,0,0,0
5,59999,39,50000,48,10000,40,9999,0.100000,0,0,0.000000,6,0.000000,0.000000,0.176323,0,0,0,0,0,0,0
5,59999,40,50000,48,10000,40,9999,0.100000,0,0,0.000000,6,0.000000,0.000000,0.913313,0,0,0,0,0,0,0
5,59999,41,50000,91,0,40,9999,0.100000,0,0,0.000000,6,0.000000,0.000000,1.656393,0,0,0,0,0,0,0
5,59999,42,50000,1,10000,49,9999,0.100000,0,0,0.000000,6,1.000000,0.000000,6.854232,0,0,0,0,0,0,0
5,59999,43,50000,18,0,40,9999,0.100000,0,0,0.000000,6,0.000000,0.000000,1.152753,0,0,0,0,0,0,0
5,59999,44,50000,18,0,40,9999,0.100000,0,0,0.000000,6,0.000000,0.000000,0.109779,0,0,0,0,0,0,0
5,59999,45,50000,48,10000,40,9999,0.100000,0,0,0.000000,6,0.000000,0.000000,0.553004,0,0,0,0,0,0,0
5,59999,46,50000,32,20000,40,9999,0.100000,0,0,0.000000,6,0.000000,0.000000,0.153301,0,0,0,0,0,0,0
5,59999,47,50000,1,10000,49,9999,0.100000,0,0,0.000000,6,1.000000,0.000000,1.483941,0,0,0,0,0,0,0
5,59999,48,50000,32,20000,49,9999,0.100000,0,0,0.000000,6,2.000000,0.000000,13.734380,0,0,0,0,0,0,0
5,59999,49,50000,32,10000,40,9999,0.100000,0,0,0.000000,6,0.000000,0.000000,5.573801,0,0,0,0,0,0,0
5,59999,50,50000,18,0,40,9999,0.100000,0,0,0.000000,6,0.000000,0.000000,0.166947,0,0,0,0,0,0,0
5,59999,51,50000,1,10000,40,9999,0.100000,0,0,0.000000,6,0.000000,0.000000,0.619835,0,0,0,0,0,0,0
5,59999,52,50000,1,10000,40,9999,0.100000,0,0,0.000000,6,0.000000,0.000000,0.720161,0,0,0,0,0,0,0
5,59999,53,50000,32,20000,40,9999,0.100000,0,0,0.000000,6,0.000000,0.000000,0.311757,0,0,0,0,0,0,0
5,59999,54,50000,91,0,40,9999,0.100000,0,0,0.000000,6,0.000000,0.000000,1.086907,0,0,0,0,0,0,0
5,59999,55,50000,18,0,40,9999,0.100000,0,0,0.000000,6,0.000000,0.000000,0.302364,0,0,0,0,0,0,0
5,59999,56,50000,32,20000,40,9999,0.100000,0,0,0.000000,6,0.000000,0.000000,0.856959,0,0,0,0,0,0,0
5,59999,57,50000,91,0,49,9999,0.100000,0,0,0.000000,6,2.000000,0.000000,4.120822,0,0,0,0,0,0,0
5,59999,58,50000,48,10000,40,9999,0.100000,0,0,0.000000,6,0.000000,0.000000,0.510606,0,0,0,0,0,0,0
5,59999,59,50000,32,10000,40,9999,0.100000,0,0,0.000000,6,0.000000,0.000000,0.400769,0,0,0,0,0,0,0
5,59999,60,50000,48,10000,49,9999,0.100000,0,0,0.000000,6,5.000000,0.000000,8.174197,0,0,0,0,0,0,0
5,59999,61,50000,1,10000,40,9999,0.100000,0,0,0.000000,6,0.000000,0.000000,10.330137,0,0,0,0,0,0,0
5,59999,62,50000,32,10000,40,9999,0.100000,0,0,0.000000,6,0.000000,0.000000,0.185585,0,0,0,0,0,0,0
5,59999,63,50000,32,10000,40,9999,0.100000,0,0,0.000000,6,0.000000,0.000000,0.678035,0,0,0,0,0,0,0
5,59999,64,50000,32,20000,40,9999,0.100000,0,0,0.000000,6,0.000000,0.000000,3.190817,0,0,0,0,0,0,0
5,59999,65,50000,91,0,49,9999,0.100000,0,0,0.000000,6,6.000000,0.000000,15.065302,0,0,0,0,0,0,0
5,59999,66,50000,48,10000,49,9999,0.100000,0,0,0.000000,6,4.000000,0.000000,5.141536,0,0,0,0,0,0,0
5,59999,67,50000,32,20000,40,9999,0.100000,0,0,0.000000,6,0.000000,0.000000,0.594196,0,0,0,0,0,0,0
5,59999,68,50000,48,10000,49,9999,0.100000,0,0,0.000000,6,1.000000,0.000000,14.957362,0,0,0,0,0,0,0
5,59999,69,50000,91,0,40,9999,0.100000,0,0,0.000000,6,0.000000,0.000000,0.154627,0,0,0,0,0,0,0
5,59999,70,50000,32,20000,40,9999,0.100000,0,0,0.000000,6,0.000000,0.000000,0.246063,0,0,0,0,0,0,0
5,59999,71,50000,32,20000,40,9999,0.100000,0,0,0.000000,6,0.000000,0.000000,0.241302,0,0,0,0,0,0,0
5,59999,72,50000,1,10000,40,9999,0.100000,0,0,0.000000,6,0.000000,0.000000,0.777731,0,0,0,0,0,0,0
5,59999,73,50000,91,0,49,9999,0.100000,0,0,0.000000,6,4.000000,0.000000,4.733608,0,0,0,0,0,0,0
5,59999,74,50000,32,20000,49,9999,0.100000,0,0,0.000000,6,4.000000,0.000000,4.915040,0,0,0,0,0,0,0
5,59999,75,50000,48,10000,49,9999,0.100000,0,0,0.000000,6,1.000000,0.000000,2.012248,0,0,0,0,0,0,0
5,59999,76,50000,32,10000,40,9999,0.100000,0,0,0.000000,6,0.000000,0.000000,0.219833,0,0,0,0,0,0,0
5,59999,77,50000,91,0,40,9999,0.100000,0,0,0.000000,6,0.000000,0.000000,0.248632,0,0,0,0,0,0,0
5,59999,78,50000,48,10000,40,9999,0.100000,0,0,0.000000,6,0.000000,0.000000,1.095969,0,0,0,0,0,0,0
5,59999,79,50000,1,10000,40,9999,0.100000,0,0,0.000000,6,0.000000,0.000000,19.125240,0,0,0,0,0,0,0
5,59999,80,50000,18,0,40,9999,0.100000,0,0,0.000000,6,0.000000,0.000000,0.984384,0,0,0,0,0,0,0
5,59999,81,50000,48,10000,40,9999,0.100000,0,0,0.000000,6,0.000000,0.000000,0.103103,0,0,0,0,0,0,0
5,59999,82,50000,91,0,49,9999,0.100000,0,0,0.000000,6,1.000000,0.000000,4.573687,0,0,0,0,0,0,0
5,59999,83,50000,1,10000,40,9999,0.100000,0,0,0.000000,6,0.000000,0.000000,0.501663,0,0,0,0,0,0,0
5,59999,84,50000,91,0,40,9999,0.100000,0,0,0.000000,6,0.000000,0.000000,0.100404,0,0,0,0,0,0,0
5,59999,85,50000,18,0,40,9999,0.100000,0,0,0.000000,6,0.000000,0.000000,0.472398,0,0,0,0,0,0,0
5,59999,86,50000,18,0,40,9999,0.100000,0,0,0.000000,6,0.000000,0.000000,0.154190,0,0,0,0,0,0,0
5,59999,87,50000,48,10000,49,9999,0.100000,0,0,0.000000,6,2.000000,0.000000,5.446762,0,0,0,0,0,0,0
5,59999,88,50000,1,10000,40,9999,0.100000,0,0,0.000000,6,0.000000,0.000000,0.552591,0,0,0,0,0,0,0
5,59999,89,50000,32,20000,40,9999,0.100000,0,0,0.000000,6,0.000000,0.000000,3.238333,0,0,0,0,0,0,0
5,59999,90,50000,18,0,40,9999,0.100000,0,0,0.000000,6,0.000000,0.000000,0.138184,0,0,0,0,0,0,0
5,59999,91,50000,91,0,40,9999,0.100000,0,0,0.000000,6,0.000000,0.000000,4.460598,0,0,0,0,0,0,0
5,59999,92,50000,1,10000,49,9999,0.100000,0,0,0.000000,6,3.000000,0.000000,5.160166,0,0,0,0,0,0,0
5,59999,93,50000,18,0,40,9999,0.100000,0,0,0.000000,6,0.000000,0.000000,2.541218,0,0,0,0,0,0,0
5,59999,94,50000,91,0,40,9999,0.100000,0,0,0.000000,6,0.000000,0.000000,0.317175,0,0,0,0,0,0,0
5,59999,95,50000,91,0,49,9999,0.100000,0,0,0.000000,6,3.000000,0.000000,5.868630,0,0,0,0,0,0,0
5,59999,96,50000,18,0,40,9999,0.100000,0,0,0.000000,6,0.000000,0.000000,1.031631,0,0,0,0,0,0,0
5,59999,97,50000,32,20000,40,9999,0.100000,0,0,0.000000,6,0.000000,0.000000,0.503250,0,0,0,0,0,0,0
5,59999,98,50000,48,10000,40,9999,0.100000,0,0,0.000000,6,0.000000,0.000000,0.251572,0,0,0,0,0,0,0
5,59999,99,50000,91,0,40,9999,0.100000,0,0,0.000000,6,0.000000,0.000000,0.825855,0,0,0,0,0,0,0
6,69999,0,60000,1,10000,40,9999,0.100000,0,0,0.000000,6,0.000000,0.000000,0.396609,0,0,0,0,0,0,0
6,69999,1,60000,18,0,40,9999,0.100000,0,0,0.000000,6,0.000000,0.000000,0.210543,0,0,0,0,0,0,0
6,69999,2,60000,48,10000,40,9999,0.100000,0,0,0.000000,6,0.000000,0.000000,0.994913,0,0,0,0,0,0,0
6,69999,3,60000,32,20000,40,9999,0.100000,0,0,0.000000,6,0.000000,0.000000,0.717515,0,0,0,0,0,0,0
6,69999,4,60000,1,10000,49,9999,0.100000,0,0,0.000000,6,5.000000,0.000000,8.769032,0,0,0,0,0,0,0
6,69999,5,60000,32,20000,40,9999,0.100000,0,0,0.000000,6,0.000000,0.000000,1.177896,0,0,0,0,0,0,0
6,69999,6,60000,32,20000,40,9999,0.100000,0,0,0.000000,6,0.000000,0.000000,0.082370,0,0,0,0,0,0,0
6,69999,7,60000,48,10000,40,9999,0.100000,0,0,0.000000,6,0.000000,0.000000,0.286760,0,0,0,0,0,0,0
6,69999,8,60000,32,20000,40,9999,0.100000,0,0,0.000000,6,0.000000,0.000000,1.443824,0,0,0,0,0,0,0
6,69999,9,60000,91,0,40,9999,0.100000,0,0,0.000000,6,0.000000,0.000000,0.239446,0,0,0,0,0,0,0
6,69999,10,60000,32,10000,40,9999,0.100000,0,0,0.000000,6,0.000000,0.000000,6.463382,0,0,0,0,0,0,0
6,69999,11,60000,91,0,49,9999,0.100000,0,0,0.000000,6,1.000000,0.000000,4.664689,0,0,0,0,0,0,0
6,69999,12,60000,91,0,40,9999,0.100000,0,0,0.000000,6,0.000000,0.000000,0.135773,0,0,0,0,0,0,0
6,69999,13,60000,48,10000,40,9999,0.100000,0,0,0.000000,6,0.000000,0.000000,0.295522,0,0,0,0,0,0,0
6,69999,14,60000,91,0,40,9999,0.100000,0,0,0.000000,6,0.000000,0.000000,0.101963,0,0,0,0,0,0,0
6,69999,15,60000,32,20000,40,9999,0.100000,0,0,0.000000,6,0.000000,0.000000,0.311093,0,0,0,0,0,0,0
6,69999,16,60000,32,20000,49,9999,0.100000,0,0,0.000000,6,4.000000,0.000000,16.911880,0,0,0,0,0,0,0
6,69999,17,60000,91,0,40,9999,0.100000,0,0,0.000000,6,0.000000,0.000000,0.133058,0,0,0,0,0,0,0
6,69999,18,60000,91,0,40,9999,0.100000,0,0,0.000000,6,0.000000,0.000000,0.081335,0,0,0,0,0,0,0
6,69999,19,60000,1,10000,40,9999,0.100000,0,0,0.000000,6,0.000000,0.000000,0.221099,0,0,0,0,0,0,0
6,69999,20,60000,48,10000,49,9999,0.100000,0,0,0.000000,6,1.000000,0.000000,6.900192,0,0,0,0,0,0,0
6,69999,21,60000,32,10000,40,9999,0.100000,0,0,0.000000,6,0.000000,0.000000,0.081443,0,0,0,0,0,0,0
6,69999,22,60000,32,10000,40,9999,0.100000,0,0,0.000000,6,0.000000,0.000000,0.109632,0,0,0,0,0,0,0
6,69999,23,60000,48,10000,49,9999,0.100000,0,0,0.000000,6,1.000000,0.000000,8.975231,0,0,0,0,0,0,0
6,69999,24,50000,48,10000,40,19999,0.100000,0,0,0.000000,6,0.000000,0.000000,1.357739,0,0,0,0,0,0,0
6,69999,25,60000,1,10000,49,9999,0.100000,0,0,0.000000,6,3.000000,0.000000,6.797675,0,0,0,0,0,0,0
6,69999,26,60000,32,20000,40,9999,0.100000,0,0,0.000000,6,0.000000,0.000000,0.080591,0,0,0,0,0,0,0
6,69999,27,60000,32,20000,40,9999,0.100000,0,0,0.000000,6,0.000000,0.000000,1.764509,0,0,0,0,0,0,0
6,69999,28,60000,1,10000,40,9999,0.100000,0,0,0.000000,6,0.000000,0.000000,0.149042,0,0,0,0,0,0,0
6,69999,29,60000,91,0,40,9999,0.100000,0,0,0.000000,6,0.000000,0.000000,0.532874,0,0,0,0,0,0,0
6,69999,30,60000,18,0,40,9999,0.100000,0,0,0.000000,6,0.000000,0.000000,0.157713,0,0,0,0,0,0,0
6,69999,31,60000,1,10000,40,9999,0.100000,0,0,0.000000,6,0.000000,0.000000,0.270502,0,0,0,0,0,0,0
6,69999,32,60000,18,0,40,9999,0.100000,0,0,0.000000,6,0.000000,0.000000,0.326225,0,0,0,0,0,0,0
6,69999,33,60000,91,0,40,9999,0.100000,0,0,0.000000,6,0.000000,0.000000,1.469897,0,0,0,0,0,0,0
6,69999,34,60000,32,20000,40,9999,0.100000,0,0,0.000000,6,0.000000,0.000000,1.872885,0,0,0,0,0,0,0
6,69999,35,60000,18,0,40,9999,0.100000,0,0,0.000000,6,0.000000,0.000000,1.296837,0,0,0,0,0,0,0
6,69999,36,60000,32,10000,49,9999,0.100000,0,0,0.000000,6,2.000000,0.000000,2.331762,0,0,0,0,0,0,0
6,69999,37,60000,32,10000,40,9999,0.100000,0,0,0.000000,6,0.000000,0.000000,17.265017,0,0,0,0,0,0,0
6,69999,38,60000,1,10000,40,9999,0.100000,0,0,0.000000,6,0.000000,0.000000,0.161302,0,0,0,0,0,0,0
6,69999,39,60000,32,10000,40,9999,0.100000,0,0,0.000000,6,0.000000,0.000000,0.682859,0,0,0,0,0,0,0
6,69999,40,60000,32,10000,40,9999,0.100000,0,0,0.000000,6,0.000000,0.000000,0.647894,0,0,0,0,0,0,0
6,69999,41,60000,91,0,49,9999,0.100000,0,0,0.000000,6,1.000000,0.000000,3.933404,0,0,0,0,0,0,0
6,69999,42,60000,1,10000,49,9999,0.100000,0,0,0.000000,6,2.000000,0.000000,3.598389,0,0,0,0,0,0,0
6,69999,43,60000,18,0,40,9999,0.135000,0,0,0.000000,6,0.000000,0.000000,0.512107,0,0,0,0,0,0,0
6,69999,44,60000,18,0,49,9999,0.100000,0,0,0.000000,6,6.000000,0.000000,26.123430,0,0,0,0,0,0,0
6,69999,45,60000,91,0,40,9999,0.100000,0,0,0.000000,6,0.000000,0.000000,0.361389,0,0,0,0,0,0,0
6,69999,46,60000,32,10000,40,9999,0.100000,0,0,0.000000,6,0.000000,0.000000,0.154072,0,0,0,0,0,0,0
6,69999,47,60000,32,20000,40,9999,0.100000,0,0,0.000000,6,0.000000,0.000000,0.879936,0,0,0,0,0,0,0
6,69999,48,60000,32,10000,49,9999,0.100000,0,0,0.000000,6,2.000000,0.000000,6.307069,0,0,0,0,0,0,0
6,69999,49,60000,32,10000,40,9999,0.100000,0,0,0.000000,6,0.000000,0.000000,1.012171,0,0,0,0,0,0,0
6,69999,50,60000,91,0,40,9999,0.065000,0,0,0.000000,6,0.000000,0.000000,0.089997,0,0,0,0,0,0,0
6,69999,51,60000,91,0,40,9999,0.100000,0,0,0.000000,6,0.000000,0.000000,3.926718,0,0,0,0,0,0,0
6,69999,52,60000,32,20000,40,9999,0.100000,0,0,0.000000,6,0.000000,0.000000,0.434960,0,0,0,0,0,0,0
6,69999,53,60000,91,0,49,9999,0.100000,0,0,0.000000,6,3.000000,0.000000,6.656363,0,0,0,0,0,0,0
6,69999,54,60000,18,0,40,9999,0.100000,0,0,0.000000,6,0.000000,0.000000,0.916739,0,0,0,0,0,0,0
6,69999,55,60000,48,10000,40,9999,0.100000,0,0,0.000000,6,0.000000,0.000000,0.262560,0,0,0,0,0,0,0
6,69999,56,60000,1,10000,40,9999,0.100000,0,0,0.000000,6,0.000000,0.000000,0.238167,0,0,0,0,0,0,0
6,69999,57,60000,91,0,40,9999,0.100000,0,0,0.000000,6,0.000000,0.000000,0.401288,0,0,0,0,0,0,0
6,69999,58,60000,91,0,40,9999,0.100000,0,0,0.000000,6,0.000000,0.000000,0.744107,0,0,0,0,0,0,0
6,69999,59,60000,48,10000,40,9999,0.100000,0,0,0.000000,6,0.000000,0.000000,0.364925,0,0,0,0,0,0,0
6,69999,60,60000,32,20000,40,9999,0.100000,0,0,0.000000,6,0.000000,0.000000,0.184913,0,0,0,0,0,0,0
6,69999,61,60000,91,0,40,9999,0.100000,0,0,0.000000,6,0.000000,0.000000,0.886814,0,0,0,0,0,0,0
6,69999,62,60000,32,20000,40,9999,0.100000,0,0,0.000000,6,0.000000,0.000000,0.180936,0,0,0,0,0,0,0
6,69999,63,60000,18,0,40,9999,0.100000,0,0,0.000000,6,0.000000,0.000000,0.392969,0,0,0,0,0,0,0
6,69999,64,60000,1,10000,40,9999,0.100000,0,0,0.000000,6,0.000000,0.000000,1.329078,0,0,0,0,0,0,0
6,69999,65,60000,91,0,40,9999,0.100000,0,0,0.000000,6,0.000000,0.000000,0.829922,0,0,0,0,0,0,0
6,69999,66,60000,91,0,40,9999,0.100000,0,0,0.000000,6,0.000000,0.000000,1.320478,0,0,0,0,0,0,0
6,69999,67,60000,1,10000,49,9999,0.100000,0,0,0.000000,6,4.000000,0.000000,11.973675,0,0,0,0,0,0,0
6,69999,68,60000,48,10000,49,9999,0.100000,0,0,0.000000,6,1.000000,0.000000,2.394001,0,0,0,0,0,0,0
6,69999,69,60000,91,0,40,9999,0.100000,0,0,0.000000,6,0.000000,0.000000,0.140057,0,0,0,0,0,0,0
6,69999,70,60000,91,0,40,9999,0.100000,0,0,0.000000,6,0.000000,0.000000,0.430582,0,0,0,0,0,0,0
6,69999,71,60000,18,0,40,9999,0.100000,0,0,0.000000,6,0.000000,0.000000,0.285128,0,0,0,0,0,0,0
6,69999,72,60000,32,20000,40,9999,0.100000,0,0,0.000000,6,0.000000,0.000000,0.602432,0,0,0,0,0,0,0
6,69999,73,60000,48,10000,40,9999,0.100000,0,0,0.000000,6,0.000000,0.000000,1.153146,0,0,0,0,0,0,0
6,69999,74,60000,32,20000,40,9999,0.100000,0,0,0.000000,6,0.000000,0.000000,1.140940,0,0,0,0,0,0,0
6,69999,75,60000,32,10000,40,9999,0.100000,0,0,0.000000,6,0.000000,0.000000,1.296602,0,0,0,0,0,0,0
6,69999,76,60000,18,0,40,9999,0.100000,0,0,0.000000,6,0.000000,0.000000,0.220097,0,0,0,0,0,0,0
6,69999,77,60000,32,20000,40,9999,0.100000,0,0,0.000000,6,0.000000,0.000000,0.162020,0,0,0,0,0,0,0
6,69999,78,60000,32,10000,40,9999,0.100000,0,0,0.000000,6,0.000000,0.000000,5.569294,0,0,0,0,0,0,0
6,69999,79,60000,48,10000,49,9999,0.100000,0,0,0.000000,6,10.000000,0.000000,13.522949,0,0,0,0,0,0,0
6,69999,80,60000,1,10000,49,9999,0.100000,0,0,0.000000,6,3.000000,0.000000,5.209498,0,0,0,0,0,0,0
6,69999,81,60000,32,20000,40,9999,0.100000,0,0,0.000000,6,0.000000,0.000000,0.074265,0,0,0,0,0,0,0
6,69999,82,60000,48,10000,49,9999,0.100000,0,0,0.000000,6,2.000000,0.000000,6.982479,0,0,0,0,0,0,0
6,69999,83,60000,48,10000,40,9999,0.100000,0,0,0.000000,6,0.000000,0.000000,0.546679,0,0,0,0,0,0,0
6,69999,84,60000,32,10000,40,9999,0.100000,0,0,0.000000,6,0.000000,0.000000,0.097028,0,0,0,0,0,0,0
6,69999,85,60000,1,10000,40,9999,0.100000,0,0,0.000000,6,0.000000,0.000000,0.465646,0,0,0,0,0,0,0
6,69999,86,60000,32,20000,40,9999,0.100000,0,0,0.000000,6,0.000000,0.000000,0.157529,0,0,0,0,0,0,0
6,69999,87,60000,18,0,49,9999,0.100000,0,0,0.000000,6,2.000000,0.000000,5.996811,0,0,0,0,0,0,0
6,69999,88,60000,18,0,40,9999,0.100000,0,0,0.000000,6,0.000000,0.000000,0.307269,0,0,0,0,0,0,0
6,69999,89,60000,18,0,49,9999,0.100000,0,0,0.000000,6,1.000000,0.000000,8.862667,0,0,0,0,0,0,0
6,69999,90,60000,18,0,40,9999,0.100000,0,0,0.000000,6,0.000000,0.000000,0.143996,0,0,0,0,0,0,0
6,69999,91,60000,32,10000,40,9999,0.100000,0,0,0.000000,6,0.000000,0.000000,5.813950,0,0,0,0,0,0,0
6,69999,92,60000,18,0,49,9999,0.100000,0,0,0.000000,6,1.000000,0.000000,2.739404,0,0,0,0,0,0,0
6,69999,93,60000,91,0,49,9999,0.100000,0,0,0.000000,6,3.000000,0.000000,6.231330,0,0,0,0,0,0,0
6,69999,94,60000,32,20000,40,9999,0.100000,0,0,0.000000,6,0.000000,0.000000,0.636094,0,0,0,0,0,0,0
6,69999,95,60000,91,0,40,9999,0.100000,0,0,0.000000,6,0.000000,0.000000,3.378452,0,0,0,0,0,0,0
6,69999,96,60000,18,0,40,9999,0.100000,0,0,0.000000,6,0.000000,0.000000,1.002197,0,0,0,0,0,0,0
6,69999,97,60000,48,10000,40,9999,0.100000,0,0,0.000000,6,0.000000,0.000000,1.066441,0,0,0,0,0,0,0
6,69999,98,60000,1,10000,40,9999,0.100000,0,0,0.000000,6,0.000000,0.000000,0.279648,0,0,0,0,0,0,0
6,69999,99,60000,1,10000,49,9999,0.100000,0,0,0.000000,6,9.000000,0.000000,16.377868,0,0,0,0,0,0,0
7,79999,0,70000,32,10000,40,9999,0.100000,0,0,0.000000,6,0.000000,0.000000,0.364047,0,0,0,0,0,0,0
7,79999,1,70000,3,60000,40,9999,0.100000,0,0,0.000000,6,0.000000,0.000000,1.149504,0,0,0,0,0,0,0
7,79999,2,70000,91,0,40,9999,0.100000,0,0,0.000000,6,0.000000,0.000000,0.662088,0,0,0,0,0,0,0
7,79999,3,70000,3,60000,49,9999,0.100000,0,0,0.000000,6,1.000000,0.000000,11.673970,0,0,0,0,0,0,0
7,79999,4,70000,1,10000,40,9999,0.100000,0,0,0.000000,6,0.000000,0.000000,3.119746,0,0,0,0,0,0,0
7,79999,5,70000,48,10000,40,9999,0.100000,0,0,0.000000,6,0.000000,0.000000,1.205607,0,0,0,0,0,0,0
7,79999,6,70000,18,0,40,9999,0.100000,0,0,0.000000,6,0.000000,0.000000,0.083108,0,0,0,0,0,0,0
7,79999,7,70000,3,60000,40,9999,0.100000,0,0,0.000000,6,0.000000,0.000000,0.469341,0,0,0,0,0,0,0
7,79999,8,70000,3,60000,40,9999,0.100000,0,0,0.000000,6,0.000000,0.000000,0.890705,0,0,0,0,0,0,0
7,79999,9,70000,1,10000,40,9999,0.100000,0,0,0.000000,6,0.000000,0.000000,0.244247,0,0,0,0,0,0,0
7,79999,10,70000,48,10000,40,9999,0.100000,0,0,0.000000,6,0.000000,0.000000,10.123745,0,0,0,0,0,0,0
7,79999,11,70000,18,0,40,9999,0.100000,0,0,0.000000,6,0.000000,0.000000,4.271192,0,0,0,0,0,0,0
7,79999,12,70000,91,0,40,9999,0.100000,0,0,0.000000,6,0.000000,0.000000,0.138814,0,0,0,0,0,0,0
7,79999,13,70000,91,0,40,9999,0.100000,0,0,0.000000,6,0.000000,0.000000,0.251690,0,0,0,0,0,0,0
7,79999,14,70000,1,10000,40,9999,0.100000,0,0,0.000000,6,0.000000,0.000000,0.110355,0,0,0,0,0,0,0
7,79999,15,70000,91,0,40,9999,0.100000,0,0,0.000000,6,0.000000,0.000000,0.347807,0,0,0,0,0,0,0
7,79999,16,70000,1,10000,40,9999,0.100000,0,0,0.000000,6,0.000000,0.000000,20.494302,0,0,0,0,0,0,0
7,79999,17,70000,48,10000,40,9999,0.100000,0,0,0.000000,6,0.000000,0.000000,0.133145,0,0,0,0,0,0,0
7,79999,18,70000,3,60000,40,9999,0.100000,0,0,0.000000,6,0.000000,0.000000,0.087870,0,0,0,0,0,0,0
7,79999,19,70000,3,60000,40,9999,0.100000,0,0,0.000000,6,0.000000,0.000000,0.253065,0,0,0,0,0,0,0
7,79999,20,70000,48,10000,49,9999,0.100000,0,0,0.000000,6,4.000000,0.000000,14.363776,0,0,0,0,0,0,0
7,79999,21,70000,18,0,40,9999,0.100000,0,0,0.000000,6,0.000000,0.000000,0.094516,0,0,0,0,0,0,0
7,79999,22,70000,32,10000,40,9999,0.100000,0,0,0.000000,6,0.000000,0.000000,0.110338,0,0,0,0,0,0,0
7,79999,23,70000,18,0,49,9999,0.100000,0,0,0.000000,6,12.000000,0.000000,20.198682,0,0,0,0,0,0,0
7,79999,24,70000,32,10000,40,9999,0.100000,0,0,0.000000,6,0.000000,0.000000,1.047888,0,0,0,0,0,0,0
7,79999,25,70000,3,60000,40,9999,0.100000,0,0,0.000000,6,0.000000,0.000000,0.075579,0,0,0,0,0,0,0
7,79999,26,70000,18,0,40,9999,0.100000,0,0,0.000000,6,0.000000,0.000000,0.424604,0,0,0,0,0,0,0
7,79999,27,70000,1,10000,40,9999,0.100000,0,0,0.000000,6,0.000000,0.000000,0.114616,0,0,0,0,0,0,0
7,79999,28,70000,18,0,40,9999,0.135000,0,0,0.000000,6,0.000000,0.000000,0.147419,0,0,0,0,0,0,0
7,79999,29,70000,48,10000,40,9999,0.100000,0,0,0.000000,6,0.000000,0.000000,0.097566,0,0,0,0,0,0,0
7,79999,30,70000,18,0,40,9999,0.100000,0,0,0.000000,6,0.000000,0.000000,0.151259,0,0,0,0,0,0,0
7,79999,31,70000,18,0,49,9999,0.100000,0,0,0.000000,6,1.000000,0.000000,3.709644,0,0,0,0,0,0,0
7,79999,32,70000,1,10000,40,9999,0.100000,0,0,0.000000,6,0.000000,0.000000,0.608195,0,0,0,0,0,0,0
7,79999,33,70000,91,0,40,9999,0.100000,0,0,0.000000,6,0.000000,0.000000,3.424312,0,0,0,0,0,0,0
7,79999,34,70000,1,10000,40,9999,0.100000,0,0,0.000000,6,0.000000,0.000000,0.819977,0,0,0,0,0,0,0
7,79999,35,70000,91,0,40,9999,0.100000,0,0,0.000000,6,0.000000,0.000000,0.839025,0,0,0,0,0,0,0
7,79999,36,70000,1,10000,49,9999,0.100000,0,0,0.000000,6,4.000000,0.000000,9.390452,0,0,0,0,0,0,0
7,79999,37,70000,3,60000,49,9999,0.100000,0,0,0.000000,6,1.000000,0.000000,2.505771,0,0,0,0,0,0,0
7,79999,38,70000,3,60000,40,9999,0.100000,0,0,0.000000,6,0.000000,0.000000,0.187203,0,0,0,0,0,0,0
7,79999,39,70000,18,0,49,9999,0.100000,0,0,0.000000,6,4.000000,0.000000,9.718986,0,0,0,0,0,0,0
7,79999,40,70000,32,10000,40,9999,0.100000,0,0,0.000000,6,0.000000,0.000000,0.647130,0,0,0,0,0,0,0
7,79999,41,70000,91,0,49,9999,0.100000,0,0,0.000000,6,1.000000,0.000000,1.082711,0,0,0,0,0,0,0
7,79999,42,70000,91,0,49,9999,0.100000,0,0,0.000000,6,4.000000,0.000000,12.717187,0,0,0,0,0,0,0
7,79999,43,70000,32,10000,40,9999,0.100000,0,0,0.000000,6,0.000000,0.000000,0.188556,0,0,0,0,0,0,0
7,79999,44,70000,1,10000,40,9999,0.100000,0,0,0.000000,6,0.000000,0.000000,0.149527,0,0,0,0,0,0,0
7,79999,45,70000,32,10000,40,9999,0.100000,0,0,0.000000,6,0.000000,0.000000,1.313997,0,0,0,0,0,0,0
7,79999,46,70000,48,10000,40,9999,0.100000,0,0,0.000000,6,0.000000,0.000000,0.151067,0,0,0,0,0,0,0
7,79999,47,70000,18,0,40,9999,0.100000,0,0,0.000000,6,0.000000,0.000000,2.163070,0,0,0,0,0,0,0
7,79999,48,70000,1,10000,49,9999,0.100000,0,0,0.000000,6,4.000000,0.000000,7.975462,0,0,0,0,0,0,0
7,79999,49,70000,3,60000,40,9999,0.100000,0,0,0.000000,6,0.000000,0.000000,1.011380,0,0,0,0,0,0,0
7,79999,50,70000,3,60000,40,9999,0.100000,0,0,0.000000,6,0.000000,0.000000,0.090506,0,0,0,0,0,0,0
7,79999,51,70000,1,10000,40,9999,0.100000,0,0,0.000000,6,0.000000,0.000000,0.582484,0,0,0,0,0,0,0
7,79999,52,70000,18,0,40,9999,0.100000,0,0,0.000000,6,0.000000,0.000000,0.638278,0,0,0,0,0,0,0
7,79999,53,70000,3,60000,40,9999,0.100000,0,0,0.000000,6,0.000000,0.000000,0.871412,0,0,0,0,0,0,0
7,79999,54,70000,18,0,40,9999,0.100000,0,0,0.000000,6,0.000000,0.000000,1.065743,0,0,0,0,0,0,0
7,79999,55,70000,1,10000,40,9999,0.100000,0,0,0.000000,6,0.000000,0.000000,0.250297,0,0,0,0,0,0,0
7,79999,56,70000,1,10000,40,9999,0.100000,0,0,0.000000,6,0.000000,0.000000,1.009802,0,0,0,0,0,0,0
7,79999,57,70000,18,0,40,9999,0.100000,0,0,0.000000,6,0.000000,0.000000,0.967087,0,0,0,0,0,0,0
7,79999,58,70000,3,60000,40,9999,0.100000,0,0,0.000000,6,0.000000,0.000000,0.181748,0,0,0,0,0,0,0
7,79999,59,70000,18,0,40,9999,0.100000,0,0,0.000000,6,0.000000,0.000000,0.332541,0,0,0,0,0,0,0
7,79999,60,70000,91,0,40,9999,0.100000,0,0,0.000000,6,0.000000,0.000000,0.185867,0,0,0,0,0,0,0
7,79999,61,70000,91,0,40,9999,0.100000,0,0,0.000000,6,0.000000,0.000000,0.845598,0,0,0,0,0,0,0
7,79999,62,70000,48,10000,49,9999,0.100000,0,0,0.000000,6,1.000000,0.000000,3.458220,0,0,0,0,0,0,0
7,79999,63,70000,48,10000,49,9999,0.100000,0,0,0.000000,6,2.000000,0.000000,13.027365,0,0,0,0,0,0,0
7,79999,64,70000,32,10000,40,9999,0.100000,0,0,0.000000,6,0.000000,0.000000,2.921428,0,0,0,0,0,0,0
7,79999,65,70000,18,0,40,9999,0.100000,0,0,0.000000,6,0.000000,0.000000,0.833115,0,0,0,0,0,0,0
7,79999,66,70000,3,60000,40,9999,0.100000,0,0,0.000000,6,0.000000,0.000000,0.714138,0,0,0,0,0,0,0
7,79999,67,70000,18,0,40,9999,0.100000,0,0,0.000000,6,0.000000,0.000000,7.165679,0,0,0,0,0,0,0
7,79999,68,70000,18,0,40,9999,0.100000,0,0,0.000000,6,0.000000,0.000000,4.953217,0,0,0,0,0,0,0
7,79999,69,70000,18,0,40,9999,0.100000,0,0,0.000000,6,0.000000,0.000000,0.142119,0,0,0,0,0,0,0
7,79999,70,70000,91,0,49,9999,0.100000,0,0,0.000000,6,1.000000,0.000000,2.731360,0,0,0,0,0,0,0
7,79999,71,70000,48,10000,40,9999,0.100000,0,0,0.000000,6,0.000000,0.000000,0.362168,0,0,0,0,0,0,0
7,79999,72,70000,18,0,49,9999,0.100000,0,0,0.000000,6,1.000000,0.000000,1.298389,0,0,0,0,0,0,0
7,79999,73,70000,1,10000,49,9999,0.100000,0,0,0.000000,6,1.000000,0.000000,4.455657,0,0,0,0,0,0,0
7,79999,74,70000,91,0,40,9999,0.100000,0,0,0.000000,6,0.000000,0.000000,0.511155,0,0,0,0,0,0,0
7,79999,75,70000,32,10000,40,9999,0.100000,0,0,0.000000,6,0.000000,0.000000,0.919417,0,0,0,0,0,0,0
7,79999,76,70000,32,10000,49,9999,0.100000,0,0,0.000000,6,1.000000,0.000000,4.077367,0,0,0,0,0,0,0
7,79999,77,70000,18,0,40,9999,0.100000,0,0,0.000000,6,0.000000,0.000000,0.166186,0,0,0,0,0,0,0
7,79999,78,70000,3,60000,40,9999,0.100000,0,0,0.000000,6,0.000000,0.000000,3.717643,0,0,0,0,0,0,0
7,79999,79,70000,3,60000,40,9999,0.100000,0,0,0.000000,6,0.000000,0.000000,2.088049,0,0,0,0,0,0,0
7,79999,80,70000,18,0,40,9999,0.100000,0,0,0.000000,6,0.000000,0.000000,0.281980,0,0,0,0,0,0,0
7,79999,81,70000,32,10000,40,9999,0.100000,0,0,0.000000,6,0.000000,0.000000,0.074733,0,0,0,0,0,0,0
7,79999,82,70000,3,60000,49,9999,0.100000,0,0,0.000000,6,1.000000,0.000000,8.958413,0,0,0,0,0,0,0
7,79999,83,70000,3,60000,40,9999,0.100000,0,0,0.000000,6,0.000000,0.000000,0.267710,0,0,0,0,0,0,0
7,79999,84,70000,48,10000,40,9999,0.100000,0,0,0.000000,6,0.000000,0.000000,0.106992,0,0,0,0,0,0,0
7,79999,85,70000,1,10000,40,9999,0.100000,0,0,0.000000,6,0.000000,0.000000,0.438824,0,0,0,0,0,0,0
7,79999,86,70000,32,10000,40,9999,0.100000,0,0,0.000000,6,0.000000,0.000000,0.154917,0,0,0,0,0,0,0
7,79999,87,70000,48,10000,49,9999,0.100000,0,0,0.000000,6,2.000000,0.000000,8.197339,0,0,0,0,0,0,0
7,79999,88,70000,32,10000,40,9999,0.100000,0,0,0.000000,6,0.000000,0.000000,0.103553,0,0,0,0,0,0,0
7,79999,89,70000,1,10000,49,9999,0.100000,0,0,0.000000,6,1.000000,0.000000,8.146549,0,0,0,0,0,0,0
7,79999,90,70000,32,10000,49,9999,0.100000,0,0,0.000000,6,1.000000,0.000000,2.995221,0,0,0,0,0,0,0
7,79999,91,70000,48,10000,49,9999,0.100000,0,0,0.000000,6,1.000000,0.000000,7.718925,0,0,0,0,0,0,0
7,79999,92,70000,48,10000,40,9999,0.100000,0,0,0.000000,6,0.000000,0.000000,2.155802,0,0,0,0,0,0,0
7,79999,93,70000,91,0,49,9999,0.100000,0,0,0.000000,6,3.000000,0.000000,4.984412,0,0,0,0,0,0,0
7,79999,94,70000,32,10000,40,9999,0.100000,0,0,0.000000,6,0.000000,0.000000,0.820176,0,0,0,0,0,0,0
7,79999,95,70000,1,10000,40,9999,0.100000,0,0,0.000000,6,0.000000,0.000000,0.954277,0,0,0,0,0,0,0
7,79999,96,70000,18,0,40,9999,0.100000,0,0,0.000000,6,0.000000,0.000000,1.008876,0,0,0,0,0,0,0
7,79999,97,70000,3,60000,49,9999,0.100000,0,0,0.000000,6,9.000000,0.000000,9.644953,0,0,0,0,0,0,0
7,79999,98,70000,48,10000,40,9999,0.100000,0,0,0.000000,6,0.000000,0.000000,0.437842,0,0,0,0,0,0,0
7,79999,99,70000,91,0,40,9999,0.100000,0,0,0.000000,6,0.000000,0.000000,2.265756,0,0,0,0,0,0,0
8,89999,0,80000,18,0,40,9999,0.100000,0,0,0.000000,6,0.000000,0.000000,0.376969,0,0,0,0,0,0,0
8,89999,1,80000,91,0,40,9999,0.100000,0,0,0.000000,6,0.000000,0.000000,0.176569,0,0,0,0,0,0,0
8,89999,2,80000,3,60000,49,9999,0.100000,0,0,0.000000,6,1.000000,0.000000,2.923365,0,0,0,0,0,0,0
8,89999,3,80000,32,10000,49,9999,0.100000,0,0,0.000000,6,1.000000,0.000000,4.165485,0,0,0,0,0,0,0
8,89999,4,80000,91,0,40,9999,0.100000,0,0,0.000000,6,0.000000,0.000000,3.117324,0,0,0,0,0,0,0
8,89999,5,80000,1,10000,40,9999,0.100000,0,0,0.000000,6,0.000000,0.000000,1.384917,0,0,0,0,0,0,0
8,89999,6,80000,91,0,40,9999,0.100000,0,0,0.000000,6,0.000000,0.000000,0.084317,0,0,0,0,0,0,0
8,89999,7,80000,48,10000,9,9999,0.100000,0,0,34.210526,6,10.000000,0.000000,14.066512,0,0,0,0,0,1,0
8,89999,8,80000,48,10000,40,9999,0.100000,0,0,0.000000,6,0.000000,0.000000,1.519815,0,0,0,0,0,0,0
8,89999,9,80000,91,0,40,9999,0.100000,0,0,0.000000,6,0.000000,0.000000,0.161658,0,0,0,0,0,0,0
8,89999,10,80000,18,0,49,9999,0.100000,0,0,0.000000,6,1.000000,0.000000,5.201944,0,0,0,0,0,0,0
8,89999,11,80000,32,10000,40,9999,0.100000,0,0,0.000000,6,0.000000,0.000000,4.556035,0,0,0,0,0,0,0
8,89999,12,80000,18,0,40,9999,0.100000,0,0,0.000000,6,0.000000,0.000000,0.142565,0,0,0,0,0,0,0
8,89999,13,80000,91,0,40,9999,0.100000,0,0,0.000000,6,0.000000,0.000000,0.586508,0,0,0,0,0,0,0
8,89999,14,80000,18,0,40,9999,0.100000,0,0,0.000000,6,0.000000,0.000000,0.136291,0,0,0,0,0,0,0
8,89999,15,80000,32,10000,40,9999,0.100000,0,0,0.000000,6,0.000000,0.000000,0.362026,0,0,0,0,0,0,0
8,89999,16,80000,32,10000,40,9999,0.100000,0,0,0.000000,6,0.000000,0.000000,20.484463,0,0,0,0,0,0,0
8,89999,17,80000,3,60000,40,9999,0.100000,0,0,0.000000,6,0.000000,0.000000,0.133392,0,0,0,0,0,0,0
8,89999,18,80000,91,0,40,9999,0.100000,0,0,0.000000,6,0.000000,0.000000,0.080726,0,0,0,0,0,0,0
8,89999,19,80000,3,60000,40,9999,0.100000,0,0,0.000000,6,0.000000,0.000000,0.240770,0,0,0,0,0,0,0
8,89999,20,80000,48,10000,49,9999,0.100000,0,0,0.000000,6,2.000000,0.000000,12.576242,0,0,0,0,0,0,0
8,89999,21,80000,3,60000,40,9999,0.100000,0,0,0.000000,6,0.000000,0.000000,0.085287,0,0,0,0,0,0,0
8,89999,22,80000,48,10000,40,9999,0.100000,0,0,0.000000,6,0.000000,0.000000,0.137909,0,0,0,0,0,0,0
8,89999,23,80000,18,0,9,9999,0.100000,0,0,34.210526,6,1.000000,0.000000,7.934515,0,0,0,1,0,0,0
8,89999,24,80000,32,10000,40,9999,0.100000,0,0,0.000000,6,0.000000,0.000000,1.617136,0,0,0,0,0,0,0
8,89999,25,80000,48,10000,40,9999,0.100000,0,0,0.000000,6,0.000000,0.000000,0.137366,0,0,0,0,0,0,0
8,89999,26,80000,3,60000,40,9999,0.100000,0,0,0.000000,6,0.000000,0.000000,0.231205,0,0,0,0,0,0,0
8,89999,27,80000,1,10000,40,9999,0.100000,0,0,0.000000,6,0.000000,0.000000,0.548236,0,0,0,0,0,0,0
8,89999,28,80000,32,10000,40,9999,0.100000,0,0,0.000000,6,0.000000,0.000000,0.138417,0,0,0,0,0,0,0
8,89999,29,80000,3,60000,40,9999,0.100000,0,0,0.000000,6,0.000000,0.000000,0.070550,0,0,0,0,0,0,0
8,89999,30,80000,18,0,40,9999,0.100000,0,0,0.000000,6,0.000000,0.000000,0.158044,0,0,0,0,0,0,0
8,89999,31,80000,32,10000,49,9999,0.100000,0,0,0.000000,6,1.000000,0.000000,2.291745,0,0,0,0,0,0,0
8,89999,32,80000,18,0,40,9999,0.100000,0,0,0.000000,6,0.000000,0.000000,0.545795,0,0,0,0,0,0,0
8,89999,33,80000,32,10000,49,9999,0.100000,0,0,0.000000,6,2.000000,0.000000,6.155271,0,0,0,0,0,0,0
8,89999,34,80000,1,10000,40,9999,0.100000,0,0,0.000000,6,0.000000,0.000000,1.087337,0,0,0,0,0,0,0
8,89999,35,80000,3,60000,40,9999,0.100000,0,0,0.000000,6,0.000000,0.000000,1.843600,0,0,0,0,0,0,0
8,89999,36,80000,1,10000,40,9999,0.100000,0,0,0.000000,6,0.000000,0.000000,3.578548,0,0,0,0,0,0,0
8,89999,37,80000,48,10000,49,9999,0.100000,0,0,0.000000,6,1.000000,0.000000,3.721904,0,0,0,0,0,0,0
8,89999,38,80000,18,0,40,9999,0.100000,0,0,0.000000,6,0.000000,0.000000,0.174237,0,0,0,0,0,0,0
8,89999,39,80000,32,10000,40,9999,0.100000,0,0,0.000000,6,0.000000,0.000000,0.790709,0,0,0,0,0,0,0
8,89999,40,80000,91,0,9,9999,0.100000,0,0,34.210526,6,10.000000,0.000000,13.550638,0,0,0,0,0,1,0
8,89999,41,80000,18,0,40,9999,0.100000,0,0,0.000000,6,0.000000,0.000000,0.091735,0,0,0,0,0,0,0
8,89999,42,80000,18,0,49,9999,0.100000,0,0,0.000000,6,1.000000,0.000000,8.586980,0,0,0,0,0,0,0
8,89999,43,80000,1,10000,40,9999,0.100000,0,0,0.000000,6,0.000000,0.000000,0.228138,0,0,0,0,0,0,0
8,89999,44,80000,49,70000,40,9999,0.100000,0,0,0.000000,6,0.000000,0.000000,0.181800,0,0,0,0,0,0,0
8,89999,45,80000,32,10000,40,9999,0.100000,0,0,0.000000,6,0.000000,0.000000,1.274995,0,0,0,0,0,0,0
8,89999,46,80000,1,10000,49,9999,0.100000,0,0,0.000000,6,10.000000,0.000000,21.379596,0,0,0,0,0,0,0
8,89999,47,80000,32,10000,40,9999,0.100000,0,0,0.000000,6,0.000000,0.000000,0.645632,0,0,0,0,0,0,0
8,89999,48,80000,1,10000,40,9999,0.100000,0,0,0.000000,6,0.000000,0.000000,0.151240,0,0,0,0,0,0,0
8,89999,49,80000,48,10000,49,9999,0.100000,0,0,0.000000,6,1.000000,0.000000,2.159523,0,0,0,0,0,0,0
8,89999,50,80000,49,70000,40,9999,0.100000,0,0,0.000000,6,0.000000,0.000000,0.091048,0,0,0,0,0,0,0
8,89999,51,80000,32,10000,40,9999,0.100000,0,0,0.000000,6,0.000000,0.000000,0.649132,0,0,0,0,0,0,0
8,89999,52,80000,1,10000,40,9999,0.100000,0,0,0.000000,6,0.000000,0.000000,0.619314,0,0,0,0,0,0,0
8,89999,53,80000,32,10000,40,9999,0.100000,0,0,0.000000,6,0.000000,0.000000,1.876331,0,0,0,0,0,0,0
8,89999,54,80000,48,10000,9,9999,0.100000,0,0,34.210526,6,10.000000,0.000000,13.140174,0,0,0,0,0,1,0
8,89999,55,80000,91,0,40,9999,0.100000,0,0,0.000000,6,0.000000,0.000000,0.253343,0,0,0,0,0,0,0
8,89999,56,80000,32,10000,40,9999,0.100000,0,0,0.000000,6,0.000000,0.000000,0.202888,0,0,0,0,0,0,0
8,89999,57,80000,32,10000,40,9999,0.100000,0,0,0.000000,6,0.000000,0.000000,0.116466,0,0,0,0,0,0,0
8,89999,58,80000,32,10000,40,9999,0.100000,0,0,0.000000,6,0.000000,0.000000,0.191504,0,0,0,0,0,0,0
8,89999,59,80000,48,10000,40,9999,0.100000,0,0,0.000000,6,0.000000,0.000000,0.397691,0,0,0,0,0,0,0
8,89999,60,80000,48,10000,40,9999,0.100000,0,0,0.000000,6,0.000000,0.000000,0.191556,0,0,0,0,0,0,0
8,89999,61,80000,3,60000,9,9999,0.100000,0,0,34.210526,6,10.000000,0.000000,13.918770,0,0,0,0,0,1,0
8,89999,62,80000,3,60000,49,9999,0.100000,0,0,0.000000,6,1.000000,0.000000,2.249756,0,0,0,0,0,0,0
8,89999,63,80000,32,10000,40,9999,0.100000,0,0,0.000000,6,0.000000,0.000000,6.117358,0,0,0,0,0,0,0
8,89999,64,80000,32,10000,49,9999,0.100000,0,0,0.000000,6,2.000000,0.000000,6.010951,0,0,0,0,0,0,0
8,89999,65,80000,18,0,40,9999,0.100000,0,0,0.000000,6,0.000000,0.000000,1.396598,0,0,0,0,0,0,0
8,89999,66,80000,32,10000,9,9999,0.100000,0,0,34.210526,6,6.000000,0.000000,7.916987,0,0,0,0,1,0,0
8,89999,67,80000,91,0,49,9999,0.100000,0,0,0.000000,6,2.000000,0.000000,7.115565,0,0,0,0,0,0,0
8,89999,68,80000,32,10000,49,9999,0.100000,0,0,0.000000,6,3.000000,0.000000,7.800195,0,0,0,0,0,0,0
8,89999,69,80000,3,60000,40,9999,0.100000,0,0,0.000000,6,0.000000,0.000000,0.157820,0,0,0,0,0,0,0
8,89999,70,80000,3,60000,40,9999,0.100000,0,0,0.000000,6,0.000000,0.000000,0.157019,0,0,0,0,0,0,0
8,89999,71,80000,48,10000,40,9999,0.100000,0,0,0.000000,6,0.000000,0.000000,0.373015,0,0,0,0,0,0,0
8,89999,72,80000,32,10000,40,9999,0.100000,0,0,0.000000,6,0.000000,0.000000,0.084214,0,0,0,0,0,0,0
8,89999,73,80000,91,0,9,9999,0.100000,0,0,34.210526,6,5.000000,0.000000,7.931729,0,0,0,0,1,0,0
8,89999,74,80000,48,10000,9,9999,0.100000,0,0,34.210526,6,5.000000,0.000000,8.483041,0,0,0,0,1,0,0
8,89999,75,80000,91,0,40,9999,0.100000,0,0,0.000000,6,0.000000,0.000000,1.471484,0,0,0,0,0,0,0
8,89999,76,80000,1,10000,49,9999,0.100000,0,0,0.000000,6,1.000000,0.000000,2.481949,0,0,0,0,0,0,0
8,89999,77,80000,91,0,40,9999,0.100000,0,0,0.000000,6,0.000000,0.000000,0.142156,0,0,0,0,0,0,0
8,89999,78,80000,91,0,40,9999,0.100000,0,0,0.000000,6,0.000000,0.000000,3.865955,0,0,0,0,0,0,0
8,89999,79,80000,49,70000,40,9999,0.100000,0,0,0.000000,6,0.000000,0.000000,1.842287,0,0,0,0,0,0,0
8,89999,80,80000,18,0,40,9999,0.100000,0,0,0.000000,6,0.000000,0.000000,0.194753,0,0,0,0,0,0,0
8,89999,81,80000,3,60000,40,9999,0.100000,0,0,0.000000,6,0.000000,0.000000,0.123302,0,0,0,0,0,0,0
8,89999,82,80000,3,60000,49,9999,0.100000,0,0,0.000000,6,4.000000,0.000000,6.578576,0,0,0,0,0,0,0
8,89999,83,80000,32,10000,40,9999,0.100000,0,0,0.000000,6,0.000000,0.000000,3.149395,0,0,0,0,0,0,0
8,89999,84,80000,91,0,40,9999,0.100000,0,0,0.000000,6,0.000000,0.000000,0.108520,0,0,0,0,0,0,0
8,89999,85,80000,91,0,40,9999,0.100000,0,0,0.000000,6,0.000000,0.000000,0.437180,0,0,0,0,0,0,0
8,89999,86,80000,91,0,40,9999,0.100000,0,0,0.000000,6,0.000000,0.000000,0.155438,0,0,0,0,0,0,0
8,89999,87,80000,32,10000,40,9999,0.100000,0,0,0.000000,6,0.000000,0.000000,4.785787,0,0,0,0,0,0,0
8,89999,88,80000,32,10000,40,9999,0.100000,0,0,0.000000,6,0.000000,0.000000,0.164909,0,0,0,0,0,0,0
8,89999,89,80000,91,0,40,9999,0.100000,0,0,0.000000,6,0.000000,0.000000,0.084161,0,0,0,0,0,0,0
8,89999,90,80000,49,70000,49,9999,0.100000,0,0,0.000000,6,1.000000,0.000000,1.938732,0,0,0,0,0,0,0
8,89999,91,80000,18,0,40,9999,0.100000,0,0,0.000000,6,0.000000,0.000000,2.027447,0,0,0,0,0,0,0
8,89999,92,80000,32,10000,40,9999,0.100000,0,0,0.000000,6,0.000000,0.000000,3.982831,0,0,0,0,0,0,0
8,89999,93,80000,1,10000,40,9999,0.100000,0,0,0.000000,6,0.000000,0.000000,0.174082,0,0,0,0,0,0,0
8,89999,94,80000,18,0,40,9999,0.100000,0,0,0.000000,6,0.000000,0.000000,0.162002,0,0,0,0,0,0,0
8,89999,95,80000,32,10000,40,9999,0.100000,0,0,0.000000,6,0.000000,0.000000,0.931752,0,0,0,0,0,0,0
8,89999,96,80000,32,10000,40,9999,0.100000,0,0,0.000000,6,0.000000,0.000000,1.013809,0,0,0,0,0,0,0
8,89999,97,80000,3,60000,40,9999,0.100000,0,0,0.000000,6,0.000000,0.000000,0.137518,0,0,0,0,0,0,0
8,89999,98,80000,1,10000,40,9999,0.100000,0,0,0.000000,6,0.000000,0.000000,0.170100,0,0,0,0,0,0,0
8,89999,99,80000,18,0,40,9999,0.100000,0,0,0.000000,6,0.000000,0.000000,2.236663,0,0,0,0,0,0,0
9,99999,0,90000,91,0,40,9999,0.100000,0,0,0.000000,6,0.000000,0.000000,0.423285,0,0,0,0,0,0,0
9,99999,1,90000,91,0,40,9999,0.100000,0,0,0.000000,6,0.000000,0.000000,0.127947,0,0,0,0,0,0,0
9,99999,2,90000,63,80000,49,9999,0.100000,0,0,0.000000,6,1.000000,0.000000,4.243546,0,0,0,0,0,0,0
9,99999,3,90000,18,0,40,9999,0.100000,0,0,0.000000,6,0.000000,0.000000,0.892947,0,0,0,0,0,0,0
9,99999,4,90000,49,70000,40,9999,0.100000,0,0,0.000000,6,0.000000,0.000000,3.204241,0,0,0,0,0,0,0
9,99999,5,90000,1,10000,49,9999,0.100000,0,0,0.000000,6,1.000000,0.000000,1.383589,0,0,0,0,0,0,0
9,99999,6,90000,48,10000,40,9999,0.100000,0,0,0.000000,6,0.000000,0.000000,0.083832,0,0,0,0,0,0,0
9,99999,7,90000,48,10000,49,9999,0.100000,0,0,0.000000,6,2.000000,0.000000,8.947425,0,0,0,0,0,0,0
9,99999,8,90000,63,80000,40,9999,0.100000,0,0,0.000000,6,0.000000,0.000000,1.253433,0,0,0,0,0,0,0
9,99999,9,90000,18,0,40,9999,0.100000,0,0,0.000000,6,0.000000,0.000000,0.165490,0,0,0,0,0,0,0
9,99999,10,90000,63,80000,49,9999,0.100000,0,0,0.000000,6,1.000000,0.000000,9.320770,0,0,0,0,0,0,0
9,99999,11,90000,63,80000,40,9999,0.100000,0,0,0.000000,6,0.000000,0.000000,2.518039,0,0,0,0,0,0,0
9,99999,12,90000,63,80000,40,9999,0.100000,0,0,0.000000,6,0.000000,0.000000,0.143916,0,0,0,0,0,0,0
9,99999,13,90000,1,10000,40,9999,0.100000,0,0,0.000000,6,0.000000,0.000000,0.803323,0,0,0,0,0,0,0
9,99999,14,90000,18,0,40,9999,0.100000,0,0,0.000000,6,0.000000,0.000000,0.128685,0,0,0,0,0,0,0
9,99999,15,90000,18,0,40,9999,0.100000,0,0,0.000000,6,0.000000,0.000000,0.397284,0,0,0,0,0,0,0
9,99999,16,90000,91,0,40,9999,0.100000,0,0,0.000000,6,0.000000,0.000000,20.539648,0,0,0,0,0,0,0
9,99999,17,90000,49,70000,40,9999,0.100000,0,0,0.000000,6,0.000000,0.000000,0.226468,0,0,0,0,0,0,0
9,99999,18,90000,1,10000,40,9999,0.100000,0,0,0.000000,6,0.000000,0.000000,0.080751,0,0,0,0,0,0,0
9,99999,19,90000,63,80000,40,9999,0.100000,0,0,0.000000,6,0.000000,0.000000,0.192798,0,0,0,0,0,0,0
9,99999,20,90000,49,70000,49,9999,0.100000,0,0,0.000000,6,6.000000,0.000000,10.701978,0,0,0,0,0,0,0
9,99999,21,90000,48,10000,40,9999,0.100000,0,0,0.000000,6,0.000000,0.000000,0.086153,0,0,0,0,0,0,0
9,99999,22,90000,18,0,40,9999,0.100000,0,0,0.000000,6,0.000000,0.000000,0.492152,0,0,0,0,0,0,0
9,99999,23,90000,63,80000,49,9999,0.100000,0,0,0.000000,6,1.000000,0.000000,6.117576,0,0,0,0,0,0,0
9,99999,24,90000,49,70000,40,9999,0.100000,0,0,0.000000,6,0.000000,0.000000,3.092300,0,0,0,0,0,0,0
9,99999,25,90000,91,0,40,9999,0.100000,0,0,0.000000,6,0.000000,0.000000,0.085509,0,0,0,0,0,0,0
9,99999,26,90000,91,0,40,9999,0.100000,0,0,0.000000,6,0.000000,0.000000,0.180798,0,0,0,0,0,0,0
9,99999,27,90000,48,10000,40,9999,0.100000,0,0,0.000000,6,0.000000,0.000000,0.643823,0,0,0,0,0,0,0
9,99999,28,90000,1,10000,40,9999,0.100000,0,0,0.000000,6,0.000000,0.000000,0.142223,0,0,0,0,0,0,0
9,99999,29,90000,91,0,40,9999,0.100000,0,0,0.000000,6,0.000000,0.000000,0.079564,0,0,0,0,0,0,0
9,99999,30,90000,91,0,40,9999,0.100000,0,0,0.000000,6,0.000000,0.000000,0.135871,0,0,0,0,0,0,0
9,99999,31,90000,1,10000,40,9999,0.100000,0,0,0.000000,6,0.000000,0.000000,1.798593,0,0,0,0,0,0,0
9,99999,32,90000,1,10000,40,9999,0.100000,0,0,0.000000,6,0.000000,0.000000,0.820456,0,0,0,0,0,0,0
9,99999,33,90000,91,0,49,9999,0.100000,0,0,0.000000,6,3.000000,0.000000,6.366520,0,0,0,0,0,0,0
9,99999,34,90000,49,70000,40,9999,0.100000,0,0,0.000000,6,0.000000,0.000000,0.248489,0,0,0,0,0,0,0
9,99999,35,90000,18,0,49,9999,0.100000,0,0,0.000000,6,2.000000,0.000000,4.601851,0,0,0,0,0,0,0
9,99999,36,90000,32,10000,49,9999,0.100000,0,0,0.000000,6,1.000000,0.000000,4.049069,0,0,0,0,0,0,0
9,99999,37,90000,91,0,40,9999,0.100000,0,0,0.000000,6,0.000000,0.000000,1.028309,0,0,0,0,0,0,0
9,99999,38,90000,32,10000,40,9999,0.100000,0,0,0.000000,6,0.000000,0.000000,0.154254,0,0,0,0,0,0,0
9,99999,39,90000,32,10000,40,9999,0.100000,0,0,0.000000,6,0.000000,0.000000,0.791395,0,0,0,0,0,0,0
9,99999,40,90000,63,80000,49,9999,0.100000,0,0,0.000000,6,1.000000,0.000000,7.947944,0,0,0,0,0,0,0
9,99999,41,90000,48,10000,40,9999,0.100000,0,0,0.000000,6,0.000000,0.000000,0.172538,0,0,0,0,0,0,0
9,99999,42,90000,48,10000,40,9999,0.100000,0,0,0.000000,6,0.000000,0.000000,5.139043,0,0,0,0,0,0,0
9,99999,43,90000,1,10000,40,9999,0.100000,0,0,0.000000,6,0.000000,0.000000,0.332438,0,0,0,0,0,0,0
9,99999,44,90000,32,10000,40,9999,0.100000,0,0,0.000000,6,0.000000,0.000000,0.176552,0,0,0,0,0,0,0
9,99999,45,90000,63,80000,40,9999,0.100000,0,0,0.000000,6,0.000000,0.000000,0.624581,0,0,0,0,0,0,0
9,99999,46,90000,91,0,40,9999,0.100000,0,0,0.000000,6,0.000000,0.000000,2.110873,0,0,0,0,0,0,0
9,99999,47,90000,48,10000,40,9999,0.100000,0,0,0.000000,6,0.000000,0.000000,0.740123,0,0,0,0,0,0,0
9,99999,48,90000,91,0,40,9999,0.100000,0,0,0.000000,6,0.000000,0.000000,0.135628,0,0,0,0,0,0,0
9,99999,49,90000,63,80000,40,9999,0.100000,0,0,0.000000,6,0.000000,0.000000,3.799924,0,0,0,0,0,0,0
9,99999,50,90000,91,0,40,9999,0.100000,0,0,0.000000,6,0.000000,0.000000,0.092149,0,0,0,0,0,0,0
9,99999,51,90000,91,0,40,9999,0.100000,0,0,0.000000,6,0.000000,0.000000,1.705539,0,0,0,0,0,0,0
9,99999,52,90000,32,10000,49,9999,0.100000,0,0,0.000000,6,1.000000,0.000000,1.339771,0,0,0,0,0,0,0
9,99999,53,90000,63,80000,40,9999,0.100000,0,0,0.000000,6,0.000000,0.000000,1.182007,0,0,0,0,0,0,0
9,99999,54,90000,18,0,49,9999,0.100000,0,0,0.000000,6,2.000000,0.000000,5.568215,0,0,0,0,0,0,0
9,99999,55,90000,48,10000,40,9999,0.100000,0,0,0.000000,6,0.000000,0.000000,0.259575,0,0,0,0,0,0,0
9,99999,56,90000,63,80000,40,9999,0.100000,0,0,0.000000,6,0.000000,0.000000,0.205688,0,0,0,0,0,0,0
9,99999,57,90000,48,10000,40,9999,0.100000,0,0,0.000000,6,0.000000,0.000000,0.114349,0,0,0,0,0,0,0
9,99999,58,90000,91,0,40,9999,0.100000,0,0,0.000000,6,0.000000,0.000000,0.272481,0,0,0,0,0,0,0
9,99999,59,90000,91,0,40,9999,0.100000,0,0,0.000000,6,0.000000,0.000000,0.306516,0,0,0,0,0,0,0
9,99999,60,90000,49,70000,40,9999,0.100000,0,0,0.000000,6,0.000000,0.000000,0.194062,0,0,0,0,0,0,0
9,99999,61,90000,48,10000,49,9999,0.100000,0,0,0.000000,6,4.000000,0.000000,6.420944,0,0,0,0,0,0,0
9,99999,62,90000,18,0,40,9999,0.100000,0,0,0.000000,6,0.000000,0.000000,1.516706,0,0,0,0,0,0,0
9,99999,63,90000,32,10000,40,9999,0.100000,0,0,0.000000,6,0.000000,0.000000,0.204001,0,0,0,0,0,0,0
9,99999,64,90000,91,0,49,9999,0.100000,0,0,0.000000,6,12.000000,0.000000,12.609913,0,0,0,0,0,0,0
9,99999,65,90000,1,10000,40,9999,0.100000,0,0,0.000000,6,0.000000,0.000000,0.579709,0,0,0,0,0,0,0
9,99999,66,90000,1,10000,49,9999,0.100000,0,0,0.000000,6,5.000000,0.000000,17.999660,0,0,0,0,0,0,0
9,99999,67,90000,32,10000,40,9999,0.100000,0,0,0.000000,6,0.000000,0.000000,4.147823,0,0,0,0,0,0,0
9,99999,68,90000,91,0,49,9999,0.100000,0,0,0.000000,6,1.000000,0.000000,5.837490,0,0,0,0,0,0,0
9,99999,69,90000,1,10000,40,9999,0.100000,0,0,0.000000,6,0.000000,0.000000,0.143707,0,0,0,0,0,0,0
9,99999,70,90000,63,80000,40,9999,0.100000,0,0,0.000000,6,0.000000,0.000000,0.155783,0,0,0,0,0,0,0
9,99999,71,90000,1,10000,40,9999,0.100000,0,0,0.000000,6,0.000000,0.000000,0.332819,0,0,0,0,0,0,0
9,99999,72,90000,18,0,40,9999,0.100000,0,0,0.000000,6,0.000000,0.000000,0.083066,0,0,0,0,0,0,0
9,99999,73,90000,48,10000,49,9999,0.100000,0,0,0.000000,6,8.000000,0.000000,41.129708,0,0,0,0,0,0,0
9,99999,74,90000,1,10000,49,9999,0.100000,0,0,0.000000,6,1.000000,0.000000,11.219012,0,0,0,0,0,0,0
9,99999,75,90000,48,10000,40,9999,0.100000,0,0,0.000000,6,0.000000,0.000000,0.697798,0,0,0,0,0,0,0
9,99999,76,90000,18,0,40,9999,0.100000,0,0,0.000000,6,0.000000,0.000000,2.205643,0,0,0,0,0,0,0
9,99999,77,90000,32,10000,40,9999,0.100000,0,0,0.000000,6,0.000000,0.000000,0.144399,0,0,0,0,0,0,0
9,99999,78,90000,18,0,40,9999,0.100000,0,0,0.000000,6,0.000000,0.000000,4.768021,0,0,0,0,0,0,0
9,99999,79,90000,48,10000,40,9999,0.100000,0,0,0.000000,6,0.000000,0.000000,1.929436,0,0,0,0,0,0,0
9,99999,80,90000,63,80000,40,9999,0.100000,0,0,0.000000,6,0.000000,0.000000,0.202750,0,0,0,0,0,0,0
9,99999,81,90000,18,0,40,9999,0.100000,0,0,0.000000,6,0.000000,0.000000,0.160445,0,0,0,0,0,0,0
9,99999,82,90000,32,10000,40,9999,0.100000,0,0,0.000000,6,0.000000,0.000000,2.512218,0,0,0,0,0,0,0
9,99999,83,90000,48,10000,40,9999,0.100000,0,0,0.000000,6,0.000000,0.000000,3.827854,0,0,0,0,0,0,0
9,99999,84,90000,91,0,40,9999,0.100000,0,0,0.000000,6,0.000000,0.000000,0.127838,0,0,0,0,0,0,0
9,99999,85,90000,32,10000,40,9999,0.100000,0,0,0.000000,6,0.000000,0.000000,0.453855,0,0,0,0,0,0,0
9,99999,86,90000,91,0,40,9999,0.100000,0,0,0.000000,6,0.000000,0.000000,0.149503,0,0,0,0,0,0,0
9,99999,87,80000,32,10000,40,19999,0.100000,0,0,0.000000,6,0.000000,0.000000,5.345312,0,0,0,0,0,0,0
9,99999,88,90000,32,10000,40,9999,0.100000,0,0,0.000000,6,0.000000,0.000000,0.177319,0,0,0,0,0,0,0
9,99999,89,90000,18,0,40,9999,0.100000,0,0,0.000000,6,0.000000,0.000000,0.084159,0,0,0,0,0,0,0
9,99999,90,90000,48,10000,40,9999,0.100000,0,0,0.000000,6,0.000000,0.000000,1.287628,0,0,0,0,0,0,0
9,99999,91,90000,63,80000,40,9999,0.100000,0,0,0.000000,6,0.000000,0.000000,0.260333,0,0,0,0,0,0,0
9,99999,92,90000,18,0,40,9999,0.100000,0,0,0.000000,6,0.000000,0.000000,1.118768,0,0,0,0,0,0,0
9,99999,93,90000,63,80000,40,9999,0.135000,0,0,0.000000,6,0.000000,0.000000,0.177739,0,0,0,0,0,0,0
9,99999,94,90000,48,10000,40,9999,0.100000,0,0,0.000000,6,0.000000,0.000000,0.139812,0,0,0,0,0,0,0
9,99999,95,90000,1,10000,40,9999,0.100000,0,0,0.000000,6,0.000000,0.000000,1.042930,0,0,0,0,0,0,0
9,99999,96,90000,32,10000,40,9999,0.100000,0,0,0.000000,6,0.000000,0.000000,0.979012,0,0,0,0,0,0,0
9,99999,97,90000,63,80000,40,9999,0.100000,0,0,0.000000,6,0.000000,0.000000,0.128081,0,0,0,0,0,0,0
9,99999,98,90000,1,10000,40,9999,0.100000,0,0,0.000000,6,0.000000,0.000000,0.149838,0,0,0,0,0,0,0
9,99999,99,90000,32,10000,40,9999,0.100000,0,0,0.000000,6,0.000000,0.000000,2.286343,0,0,0,0,0,0,0
10,109999,0,100000,63,80000,40,9999,0.100000,0,0,0.000000,6,0.000000,0.000000,0.479283,0,0,0,0,0,0,0
10,109999,1,100000,32,10000,40,9999,0.100000,0,0,0.000000,6,0.000000,0.000000,0.130338,0,0,0,0,0,0,0
10,109999,2,100000,91,0,49,9999,0.100000,0,0,0.000000,6,1.000000,0.000000,3.481903,0,0,0,0,0,0,0
10,109999,3,100000,32,10000,40,9999,0.100000,0,0,0.000000,6,0.000000,0.000000,0.950675,0,0,0,0,0,0,0
10,109999,4,100000,18,0,40,9999,0.100000,0,0,0.000000,6,0.000000,0.000000,3.237230,0,0,0,0,0,0,0
10,109999,5,100000,91,0,49,9999,0.100000,0,0,0.000000,6,2.000000,0.000000,5.416092,0,0,0,0,0,0,0
10,109999,6,100000,48,10000,40,9999,0.100000,0,0,0.000000,6,0.000000,0.000000,0.084206,0,0,0,0,0,0,0
10,109999,7,100000,48,10000,40,9999,0.100000,0,0,0.000000,6,0.000000,0.000000,0.141355,0,0,0,0,0,0,0
10,109999,8,100000,48,10000,40,9999,0.100000,0,0,0.000000,6,0.000000,0.000000,0.621845,0,0,0,0,0,0,0
10,109999,9,100000,48,10000,40,9999,0.100000,0,0,0.000000,6,0.000000,0.000000,0.317767,0,0,0,0,0,0,0
10,109999,10,100000,32,10000,49,9999,0.100000,0,0,0.000000,6,1.000000,0.000000,8.226304,0,0,0,0,0,0,0
10,109999,11,100000,1,10000,40,9999,0.100000,0,0,0.000000,6,0.000000,0.000000,2.419653,0,0,0,0,0,0,0
10,109999,12,100000,18,0,40,9999,0.100000,0,0,0.000000,6,0.000000,0.000000,0.152941,0,0,0,0,0,0,0
10,109999,13,100000,48,10000,40,9999,0.100000,0,0,0.000000,6,0.000000,0.000000,0.951866,0,0,0,0,0,0,0
10,109999,14,100000,91,0,40,9999,0.100000,0,0,0.000000,6,0.000000,0.000000,1.111237,0,0,0,0,0,0,0
10,109999,15,100000,63,80000,40,9999,0.100000,0,0,0.000000,6,0.000000,0.000000,0.409758,0,0,0,0,0,0,0
10,109999,16,100000,63,80000,40,9999,0.100000,0,0,0.000000,6,0.000000,0.000000,20.394424,0,0,0,0,0,0,0
10,109999,17,100000,63,80000,40,9999,0.100000,0,0,0.000000,6,0.000000,0.000000,0.364983,0,0,0,0,0,0,0
10,109999,18,100000,32,10000,40,9999,0.100000,0,0,0.000000,6,0.000000,0.000000,0.082706,0,0,0,0,0,0,0
10,109999,19,100000,48,10000,40,9999,0.100000,0,0,0.000000,6,0.000000,0.000000,0.181846,0,0,0,0,0,0,0
10,109999,20,100000,91,0,49,9999,0.100000,0,0,0.000000,6,2.000000,0.000000,12.678044,0,0,0,0,0,0,0
10,109999,21,100000,32,10000,40,9999,0.100000,0,0,0.000000,6,0.000000,0.000000,0.110062,0,0,0,0,0,0,0
10,109999,22,100000,1,10000,40,9999,0.100000,0,0,0.000000,6,0.000000,0.000000,0.330506,0,0,0,0,0,0,0
10,109999,23,100000,18,0,99,9999,0.100000,0,0,0.000000,6,3.000000,0.000000,7.034969,0,0,18,0,0,0,0
10,109999,24,100000,91,0,49,9999,0.100000,0,0,0.000000,6,5.000000,0.000000,8.536545,0,0,0,0,0,0,0
10,109999,25,100000,63,80000,40,9999,0.100000,0,0,0.000000,6,0.000000,0.000000,0.103407,0,0,0,0,0,0,0
10,109999,26,100000,48,10000,40,9999,0.100000,0,0,0.000000,6,0.000000,0.000000,0.091159,0,0,0,0,0,0,0
10,109999,27,100000,91,0,40,9999,0.100000,0,0,0.000000,6,0.000000,0.000000,0.643761,0,0,0,0,0,0,0
10,109999,28,100000,48,10000,40,9999,0.100000,0,0,0.000000,6,0.000000,0.000000,0.139854,0,0,0,0,0,0,0
10,109999,29,100000,63,80000,40,9999,0.100000,0,0,0.000000,6,0.000000,0.000000,0.077758,0,0,0,0,0,0,0
10,109999,30,100000,91,0,40,9999,0.100000,0,0,0.000000,6,0.000000,0.000000,0.137886,0,0,0,0,0,0,0
10,109999,31,100000,32,10000,49,9999,0.100000,0,0,0.000000,6,1.000000,0.000000,1.487739,0,0,0,0,0,0,0
10,109999,32,100000,63,80000,40,9999,0.100000,0,0,0.000000,6,0.000000,0.000000,2.165252,0,0,0,0,0,0,0
10,109999,33,100000,18,0,49,9999,0.100000,0,0,0.000000,6,4.000000,0.000000,6.884936,0,0,0,0,0,0,0
10,109999,34,100000,32,10000,40,9999,0.100000,0,0,0.000000,6,0.000000,0.000000,0.233061,0,0,0,0,0,0,0
10,109999,35,100000,91,0,40,9999,0.100000,0,0,0.000000,6,0.000000,0.000000,3.020522,0,0,0,0,0,0,0
10,109999,36,100000,32,10000,40,9999,0.100000,0,0,0.000000,6,0.000000,0.000000,0.257769,0,0,0,0,0,0,0
10,109999,37,100000,1,10000,40,9999,0.100000,0,0,0.000000,6,0.000000,0.000000,1.047202,0,0,0,0,0,0,0
10,109999,38,100000,1,10000,40,9999,0.100000,0,0,0.000000,6,0.000000,0.000000,0.491935,0,0,0,0,0,0,0
10,109999,39,100000,18,0,40,9999,0.100000,0,0,0.000000,6,0.000000,0.000000,0.618346,0,0,0,0,0,0,0
10,109999,40,100000,18,0,49,9999,0.100000,0,0,0.000000,6,1.000000,0.000000,6.279784,0,0,0,0,0,0,0
10,109999,41,100000,1,10000,40,9999,0.100000,0,0,0.000000,6,0.000000,0.000000,0.181691,0,0,0,0,0,0,0
10,109999,42,100000,18,0,49,9999,0.100000,0,0,0.000000,6,2.000000,0.000000,8.202763,0,0,0,0,0,0,0
10,109999,43,100000,91,0,40,9999,0.100000,0,0,0.000000,6,0.000000,0.000000,0.176438,0,0,0,0,0,0,0
10,109999,44,100000,48,10000,40,9999,0.100000,0,0,0.000000,6,0.000000,0.000000,0.477271,0,0,0,0,0,0,0
10,109999,45,100000,32,10000,40,9999,0.100000,0,0,0.000000,6,0.000000,0.000000,0.183344,0,0,0,0,0,0,0
10,109999,46,100000,1,10000,9,9999,0.100000,0,0,0.000000,6,2.000000,0.000000,3.484011,0,0,0,1,0,0,0
10,109999,47,100000,1,10000,40,9999,0.100000,0,0,0.000000,6,0.000000,0.000000,0.928824,0,0,0,0,0,0,0
10,109999,48,100000,18,0,40,9999,0.100000,0,0,0.000000,6,0.000000,0.000000,0.170183,0,0,0,0,0,0,0
10,109999,49,100000,32,10000,49,9999,0.100000,0,0,0.000000,6,2.000000,0.000000,7.303033,0,0,0,0,0,0,0
10,109999,50,100000,18,0,40,9999,0.100000,0,0,0.000000,6,0.000000,0.000000,0.092372,0,0,0,0,0,0,0
10,109999,51,100000,18,0,40,9999,0.100000,0,0,0.000000,6,0.000000,0.000000,0.325778,0,0,0,0,0,0,0
10,109999,52,100000,63,80000,40,9999,0.100000,0,0,0.000000,6,0.000000,0.000000,7.987841,0,0,0,0,0,0,0
10,109999,53,100000,32,10000,40,9999,0.100000,0,0,0.000000,6,0.000000,0.000000,1.031222,0,0,0,0,0,0,0
10,109999,54,100000,91,0,40,9999,0.100000,0,0,0.000000,6,0.000000,0.000000,0.516323,0,0,0,0,0,0,0
10,109999,55,100000,18,0,40,9999,0.100000,0,0,0.000000,6,0.000000,0.000000,0.237356,0,0,0,0,0,0,0
10,109999,56,100000,18,0,40,9999,0.100000,0,0,0.000000,6,0.000000,0.000000,0.182283,0,0,0,0,0,0,0
10,109999,57,100000,48,10000,40,9999,0.100000,0,0,0.000000,6,0.000000,0.000000,0.134919,0,0,0,0,0,0,0
10,109999,58,100000,91,0,40,9999,0.100000,0,0,0.000000,6,0.000000,0.000000,0.190633,0,0,0,0,0,0,0
10,109999,59,100000,18,0,40,9999,0.100000,0,0,0.000000,6,0.000000,0.000000,0.309192,0,0,0,0,0,0,0
10,109999,60,100000,1,10000,40,9999,0.100000,0,0,0.000000,6,0.000000,0.000000,0.184812,0,0,0,0,0,0,0
10,109999,61,100000,1,10000,49,9999,0.100000,0,0,0.000000,6,1.000000,0.000000,5.158892,0,0,0,0,0,0,0
10,109999,62,100000,48,10000,49,9999,0.100000,0,0,0.000000,6,1.000000,0.000000,2.271897,0,0,0,0,0,0,0
10,109999,63,100000,32,10000,40,9999,0.100000,0,0,0.000000,6,0.000000,0.000000,0.110872,0,0,0,0,0,0,0
10,109999,64,100000,1,10000,40,9999,0.100000,0,0,0.000000,6,0.000000,0.000000,0.220028,0,0,0,0,0,0,0
10,109999,65,100000,91,0,40,9999,0.100000,0,0,0.000000,6,0.000000,0.000000,0.708645,0,0,0,0,0,0,0
10,109999,66,100000,18,0,40,9999,0.100000,0,0,0.000000,6,0.000000,0.000000,23.855359,0,0,0,0,0,0,0
10,109999,67,100000,1,10000,49,9999,0.100000,0,0,0.000000,6,3.000000,0.000000,13.790276,0,0,0,0,0,0,0
10,109999,68,100000,91,0,49,9999,0.100000,0,0,0.000000,6,3.000000,0.000000,7.261451,0,0,0,0,0,0,0
10,109999,69,100000,91,0,40,9999,0.100000,0,0,0.000000,6,0.000000,0.000000,0.160047,0,0,0,0,0,0,0
10,109999,70,100000,91,0,40,9999,0.100000,0,0,0.000000,6,0.000000,0.000000,0.150986,0,0,0,0,0,0,0
10,109999,71,100000,32,10000,40,9999,0.100000,0,0,0.000000,6,0.000000,0.000000,0.425171,0,0,0,0,0,0,0
10,109999,72,100000,63,80000,40,9999,0.100000,0,0,0.000000,6,0.000000,0.000000,0.090093,0,0,0,0,0,0,0
10,109999,73,100000,63,80000,40,9999,0.100000,0,0,0.000000,6,0.000000,0.000000,7.398234,0,0,0,0,0,0,0
10,109999,74,100000,91,0,49,9999,0.100000,0,0,0.000000,6,4.000000,0.000000,8.196462,0,0,0,0,0,0,0
10,109999,75,100000,91,0,40,9999,0.100000,0,0,0.000000,6,0.000000,0.000000,0.448829,0,0,0,0,0,0,0
10,109999,76,100000,48,10000,49,9999,0.100000,0,0,0.000000,6,1.000000,0.000000,1.385541,0,0,0,0,0,0,0
10,109999,77,100000,48,10000,40,9999,0.100000,0,0,0.000000,6,0.000000,0.000000,0.256539,0,0,0,0,0,0,0
10,109999,78,100000,1,10000,40,9999,0.100000,0,0,0.000000,6,0.000000,0.000000,2.687986,0,0,0,0,0,0,0
10,109999,79,100000,91,0,40,9999,0.100000,0,0,0.000000,6,0.000000,0.000000,1.517469,0,0,0,0,0,0,0
10,109999,80,100000,1,10000,40,9999,0.100000,0,0,0.000000,6,0.000000,0.000000,0.196035,0,0,0,0,0,0,0
10,109999,81,100000,91,0,40,9999,0.100000,0,0,0.000000,6,0.000000,0.000000,0.174596,0,0,0,0,0,0,0
10,109999,82,100000,32,10000,49,9999,0.135000,0,0,0.000000,6,2.000000,0.000000,4.024496,0,0,0,0,0,0,0
10,109999,83,100000,91,0,49,9999,0.100000,0,0,0.000000,6,2.000000,0.000000,4.524709,0,0,0,0,0,0,0
10,109999,84,100000,32,10000,40,9999,0.100000,0,0,0.000000,6,0.000000,0.000000,0.137991,0,0,0,0,0,0,0
10,109999,85,100000,32,10000,40,9999,0.100000,0,0,0.000000,6,0.000000,0.000000,0.481932,0,0,0,0,0,0,0
10,109999,86,100000,48,10000,40,9999,0.100000,0,0,0.000000,6,0.000000,0.000000,0.149787,0,0,0,0,0,0,0
10,109999,87,100000,1,10000,40,9999,0.100000,0,0,0.000000,6,0.000000,0.000000,6.216187,0,0,0,0,0,0,0
10,109999,88,100000,63,80000,40,9999,0.100000,0,0,0.000000,6,0.000000,0.000000,0.255066,0,0,0,0,0,0,0
10,109999,89,100000,1,10000,40,9999,0.100000,0,0,0.000000,6,0.000000,0.000000,0.105698,0,0,0,0,0,0,0
10,109999,90,100000,48,10000,40,9999,0.100000,0,0,0.000000,6,0.000000,0.000000,1.095792,0,0,0,0,0,0,0
10,109999,91,100000,63,80000,40,9999,0.100000,0,0,0.000000,6,0.000000,0.000000,0.195443,0,0,0,0,0,0,0
10,109999,92,100000,32,10000,49,9999,0.100000,0,0,0.000000,6,2.000000,0.000000,2.356144,0,0,0,0,0,0,0
10,109999,93,100000,1,10000,40,9999,0.100000,0,0,0.000000,6,0.000000,0.000000,0.178450,0,0,0,0,0,0,0
10,109999,94,100000,1,10000,40,9999,0.100000,0,0,0.000000,6,0.000000,0.000000,0.146711,0,0,0,0,0,0,0
10,109999,95,100000,1,10000,40,9999,0.100000,0,0,0.000000,6,0.000000,0.000000,0.816901,0,0,0,0,0,0,0
10,109999,96,100000,91,0,40,9999,0.100000,0,0,0.000000,6,0.000000,0.000000,0.980921,0,0,0,0,0,0,0
10,109999,97,100000,48,10000,40,9999,0.100000,0,0,0.000000,6,0.000000,0.000000,0.142362,0,0,0,0,0,0,0
10,109999,98,100000,1,10000,40,9999,0.100000,0,0,0.000000,6,0.000000,0.000000,0.117184,0,0,0,0,0,0,0
10,109999,99,100000,91,0,40,9999,0.100000,0,0,0.000000,6,0.000000,0.000000,1.798685,0,0,0,0,0,0,0
11,119999,0,110000,18,0,40,9999,0.100000,0,0,0.000000,6,0.000000,0.000000,0.409625,0,0,0,0,0,0,0
11,119999,1,110000,63,80000,40,9999,0.100000,0,0,0.000000,6,0.000000,0.000000,0.130382,0,0,0,0,0,0,0
11,119999,2,110000,32,10000,49,9999,0.100000,0,0,0.000000,6,3.000000,0.000000,13.384011,0,0,0,0,0,0,0
11,119999,3,110000,63,80000,40,9999,0.100000,0,0,0.000000,6,0.000000,0.000000,0.956022,0,0,0,0,0,0,0
11,119999,4,110000,32,10000,40,9999,0.100000,0,0,0.000000,6,0.000000,0.000000,1.987421,0,0,0,0,0,0,0
11,119999,5,110000,63,80000,49,9999,0.100000,0,0,0.000000,6,1.000000,0.000000,3.652299,0,0,0,0,0,0,0
11,119999,6,110000,63,80000,40,9999,0.100000,0,0,0.000000,6,0.000000,0.000000,0.085067,0,0,0,0,0,0,0
11,119999,7,110000,18,0,40,9999,0.100000,0,0,0.000000,6,0.000000,0.000000,0.140775,0,0,0,0,0,0,0
11,119999,8,110000,63,80000,40,9999,0.100000,0,0,0.000000,6,0.000000,0.000000,0.626801,0,0,0,0,0,0,0
11,119999,9,110000,91,0,40,9999,0.100000,0,0,0.000000,6,0.000000,0.000000,0.480601,0,0,0,0,0,0,0
11,119999,10,110000,18,0,49,9999,0.100000,0,0,0.000000,6,3.000000,0.000000,6.182439,0,0,0,0,0,0,0
11,119999,11,110000,1,10000,40,9999,0.100000,0,0,0.000000,6,0.000000,0.000000,2.917331,0,0,0,0,0,0,0
11,119999,12,110000,32,10000,40,9999,0.100000,0,0,0.000000,6,0.000000,0.000000,0.124215,0,0,0,0,0,0,0
11,119999,13,110000,63,80000,40,9999,0.100000,0,0,0.000000,6,0.000000,0.000000,1.000240,0,0,0,0,0,0,0
11,119999,14,110000,91,0,40,9999,0.100000,0,0,0.000000,6,0.000000,0.000000,0.170360,0,0,0,0,0,0,0
11,119999,15,110000,18,0,40,9999,0.100000,0,0,0.000000,6,0.000000,0.000000,0.151704,0,0,0,0,0,0,0
11,119999,16,110000,18,0,40,9999,0.100000,0,0,0.000000,6,0.000000,0.000000,19.045408,0,0,0,0,0,0,0
11,119999,17,110000,91,0,40,9999,0.100000,0,0,0.000000,6,0.000000,0.000000,0.100148,0,0,0,0,0,0,0
11,119999,18,110000,48,10000,40,9999,0.100000,0,0,0.000000,6,0.000000,0.000000,0.095496,0,0,0,0,0,0,0
11,119999,19,110000,32,10000,40,9999,0.100000,0,0,0.000000,6,0.000000,0.000000,0.162556,0,0,0,0,0,0,0
11,119999,20,110000,32,10000,40,9999,0.100000,0,0,0.000000,6,0.000000,0.000000,2.154651,0,0,0,0,0,0,0
11,119999,21,110000,32,10000,40,9999,0.100000,0,0,0.000000,6,0.000000,0.000000,0.092533,0,0,0,0,0,0,0
11,119999,22,110000,63,80000,40,9999,0.100000,0,0,0.000000,6,0.000000,0.000000,0.717313,0,0,0,0,0,0,0
11,119999,23,110000,1,10000,49,9999,0.100000,0,0,0.000000,6,3.000000,0.000000,15.201100,0,0,0,0,0,0,0
11,119999,24,110000,91,0,40,9999,0.100000,0,0,0.000000,6,0.000000,0.000000,0.680918,0,0,0,0,0,0,0
11,119999,25,110000,32,10000,40,9999,0.100000,0,0,0.000000,6,0.000000,0.000000,0.116420,0,0,0,0,0,0,0
11,119999,26,110000,63,80000,40,9999,0.100000,0,0,0.000000,6,0.000000,0.000000,0.062651,0,0,0,0,0,0,0
11,119999,27,110000,48,10000,40,9999,0.100000,0,0,0.000000,6,0.000000,0.000000,0.644285,0,0,0,0,0,0,0
11,119999,28,110000,48,10000,40,9999,0.100000,0,0,0.000000,6,0.000000,0.000000,0.136451,0,0,0,0,0,0,0
11,119999,29,110000,63,80000,40,9999,0.100000,0,0,0.000000,6,0.000000,0.000000,0.061049,0,0,0,0,0,0,0
11,119999,30,110000,32,10000,40,9999,0.100000,0,0,0.000000,6,0.000000,0.000000,0.096004,0,0,0,0,0,0,0
11,119999,31,110000,32,10000,40,9999,0.100000,0,0,0.000000,6,0.000000,0.000000,0.884853,0,0,0,0,0,0,0
11,119999,32,110000,18,0,49,9999,0.100000,0,0,0.000000,6,1.000000,0.000000,2.044022,0,0,0,0,0,0,0
11,119999,33,110000,63,80000,49,9999,0.100000,0,0,0.000000,6,3.000000,0.000000,7.409043,0,0,0,0,0,0,0
11,119999,34,110000,32,10000,40,9999,0.100000,0,0,0.000000,6,0.000000,0.000000,0.222661,0,0,0,0,0,0,0
11,119999,35,110000,1,10000,40,9999,0.100000,0,0,0.000000,6,0.000000,0.000000,2.210080,0,0,0,0,0,0,0
11,119999,36,110000,32,10000,40,9999,0.100000,0,0,0.000000,6,0.000000,0.000000,0.242414,0,0,0,0,0,0,0
11,119999,37,110000,32,10000,40,9999,0.100000,0,0,0.000000,6,0.000000,0.000000,1.032615,0,0,0,0,0,0,0
11,119999,38,110000,1,10000,40,9999,0.100000,0,0,0.000000,6,0.000000,0.000000,0.253886,0,0,0,0,0,0,0
11,119999,39,110000,1,10000,40,9999,0.100000,0,0,0.000000,6,0.000000,0.000000,0.288156,0,0,0,0,0,0,0
11,119999,40,110000,91,0,40,9999,0.100000,0,0,0.000000,6,0.000000,0.000000,1.804180,0,0,0,0,0,0,0
11,119999,41,110000,48,10000,40,9999,0.100000,0,0,0.000000,6,0.000000,0.000000,0.170123,0,0,0,0,0,0,0
11,119999,42,110000,32,10000,40,9999,0.100000,0,0,0.000000,6,0.000000,0.000000,2.505191,0,0,0,0,0,0,0
11,119999,43,110000,48,10000,40,9999,0.135000,0,0,0.000000,6,0.000000,0.000000,0.186938,0,0,0,0,0,0,0
11,119999,44,110000,63,80000,49,9999,0.100000,0,0,0.000000,6,5.000000,0.000000,11.523573,0,0,0,0,0,0,0
11,119999,45,110000,32,10000,40,9999,0.100000,0,0,0.000000,6,0.000000,0.000000,0.230238,0,0,0,0,0,0,0
11,119999,46,110000,18,0,49,9999,0.100000,0,0,0.000000,6,2.000000,0.000000,8.284865,0,0,0,0,0,0,0
11,119999,47,110000,63,80000,40,9999,0.100000,0,0,0.000000,6,0.000000,0.000000,0.994175,0,0,0,0,0,0,0
11,119999,48,110000,32,10000,40,9999,0.100000,0,0,0.000000,6,0.000000,0.000000,0.140391,0,0,0,0,0,0,0
11,119999,49,110000,91,0,49,9999,0.100000,0,0,0.000000,6,1.000000,0.000000,6.004969,0,0,0,0,0,0,0
11,119999,50,110000,48,10000,40,9999,0.100000,0,0,0.000000,6,0.000000,0.000000,0.092503,0,0,0,0,0,0,0
11,119999,51,110000,18,0,40,9999,0.100000,0,0,0.000000,6,0.000000,0.000000,0.341228,0,0,0,0,0,0,0
11,119999,52,110000,1,10000,49,9999,0.100000,0,0,0.000000,6,1.000000,0.000000,4.121718,0,0,0,0,0,0,0
11,119999,53,110000,91,0,40,9999,0.100000,0,0,0.000000,6,0.000000,0.000000,1.202803,0,0,0,0,0,0,0
11,119999,54,110000,91,0,40,9999,0.100000,0,0,0.000000,6,0.000000,0.000000,0.134364,0,0,0,0,0,0,0
11,119999,55,110000,63,80000,40,9999,0.100000,0,0,0.000000,6,0.000000,0.000000,0.209247,0,0,0,0,0,0,0
11,119999,56,110000,1,10000,40,9999,0.100000,0,0,0.000000,6,0.000000,0.000000,0.155513,0,0,0,0,0,0,0
11,119999,57,110000,48,10000,40,9999,0.100000,0,0,0.000000,6,0.000000,0.000000,0.112536,0,0,0,0,0,0,0
11,119999,58,110000,48,10000,40,9999,0.100000,0,0,0.000000,6,0.000000,0.000000,0.205468,0,0,0,0,0,0,0
11,119999,59,110000,1,10000,40,9999,0.100000,0,0,0.000000,6,0.000000,0.000000,0.823392,0,0,0,0,0,0,0
11,119999,60,110000,1,10000,40,9999,0.100000,0,0,0.000000,6,0.000000,0.000000,0.178265,0,0,0,0,0,0,0
11,119999,61,110000,48,10000,49,9999,0.135000,0,0,0.000000,6,5.000000,0.000000,9.386451,0,0,0,0,0,0,0
11,119999,62,110000,91,0,40,9999,0.100000,0,0,0.000000,6,0.000000,0.000000,1.410675,0,0,0,0,0,0,0
11,119999,63,110000,91,0,40,9999,0.100000,0,0,0.000000,6,0.000000,0.000000,0.304494,0,0,0,0,0,0,0
11,119999,64,110000,91,0,40,9999,0.100000,0,0,0.000000,6,0.000000,0.000000,0.220029,0,0,0,0,0,0,0
11,119999,65,110000,18,0,49,9999,0.100000,0,0,0.000000,6,5.000000,0.000000,11.933837,0,0,0,0,0,0,0
11,119999,66,110000,32,10000,40,9999,0.100000,0,0,0.000000,6,0.000000,0.000000,23.929180,0,0,0,0,0,0,0
11,119999,67,110000,1,10000,40,9999,0.100000,0,0,0.000000,6,0.000000,0.000000,0.149010,0,0,0,0,0,0,0
11,119999,68,110000,18,0,40,9999,0.100000,0,0,0.000000,6,0.000000,0.000000,0.432435,0,0,0,0,0,0,0
11,119999,69,110000,1,10000,40,9999,0.100000,0,0,0.000000,6,0.000000,0.000000,0.129915,0,0,0,0,0,0,0
11,119999,70,110000,32,10000,40,9999,0.100000,0,0,0.000000,6,0.000000,0.000000,0.155847,0,0,0,0,0,0,0
11,119999,71,110000,63,80000,40,9999,0.100000,0,0,0.000000,6,0.000000,0.000000,0.418251,0,0,0,0,0,0,0
11,119999,72,110000,1,10000,40,9999,0.100000,0,0,0.000000,6,0.000000,0.000000,0.163372,0,0,0,0,0,0,0
11,119999,73,110000,32,10000,40,9999,0.100000,0,0,0.000000,6,0.000000,0.000000,8.983746,0,0,0,0,0,0,0
11,119999,74,110000,91,0,49,9999,0.100000,0,0,0.000000,6,8.000000,0.000000,20.363548,0,0,0,0,0,0,0
11,119999,75,110000,32,10000,40,9999,0.100000,0,0,0.000000,6,0.000000,0.000000,0.401431,0,0,0,0,0,0,0
11,119999,76,110000,1,10000,40,9999,0.100000,0,0,0.000000,6,0.000000,0.000000,0.483103,0,0,0,0,0,0,0
11,119999,77,110000,63,80000,40,9999,0.100000,0,0,0.000000,6,0.000000,0.000000,1.263766,0,0,0,0,0,0,0
11,119999,78,110000,1,10000,40,9999,0.100000,0,0,0.000000,6,0.000000,0.000000,2.879152,0,0,0,0,0,0,0
11,119999,79,110000,32,10000,40,9999,0.100000,0,0,0.000000,6,0.000000,0.000000,1.566262,0,0,0,0,0,0,0
11,119999,80,110000,1,10000,40,9999,0.100000,0,0,0.000000,6,0.000000,0.000000,0.203295,0,0,0,0,0,0,0
11,119999,81,110000,48,10000,49,9999,0.100000,0,0,0.000000,6,3.000000,0.000000,6.651799,0,0,0,0,0,0,0
11,119999,82,110000,63,80000,40,9999,0.100000,0,0,0.000000,6,0.000000,0.000000,0.584911,0,0,0,0,0,0,0
11,119999,83,110000,18,0,49,9999,0.100000,0,0,0.000000,6,2.000000,0.000000,2.579463,0,0,0,0,0,0,0
11,119999,84,110000,18,0,40,9999,0.100000,0,0,0.000000,6,0.000000,0.000000,0.133064,0,0,0,0,0,0,0
11,119999,85,110000,63,80000,40,9999,0.100000,0,0,0.000000,6,0.000000,0.000000,0.521033,0,0,0,0,0,0,0
11,119999,86,110000,32,10000,40,9999,0.100000,0,0,0.000000,6,0.000000,0.000000,0.146716,0,0,0,0,0,0,0
11,119999,87,110000,48,10000,49,9999,0.100000,0,0,0.000000,6,1.000000,0.000000,6.426550,0,0,0,0,0,0,0
11,119999,88,110000,18,0,40,9999,0.100000,0,0,0.000000,6,0.000000,0.000000,0.163582,0,0,0,0,0,0,0
11,119999,89,110000,91,0,40,9999,0.100000,0,0,0.000000,6,0.000000,0.000000,0.242052,0,0,0,0,0,0,0
11,119999,90,110000,63,80000,40,9999,0.100000,0,0,0.000000,6,0.000000,0.000000,0.451900,0,0,0,0,0,0,0
11,119999,91,110000,63,80000,40,9999,0.100000,0,0,0.000000,6,0.000000,0.000000,0.463351,0,0,0,0,0,0,0
11,119999,92,110000,1,10000,40,9999,0.100000,0,0,0.000000,6,0.000000,0.000000,0.467437,0,0,0,0,0,0,0
11,119999,93,110000,91,0,40,9999,0.100000,0,0,0.000000,6,0.000000,0.000000,0.177294,0,0,0,0,0,0,0
11,119999,94,110000,1,10000,40,9999,0.100000,0,0,0.000000,6,0.000000,0.000000,0.151935,0,0,0,0,0,0,0
11,119999,95,110000,32,10000,40,9999,0.100000,0,0,0.000000,6,0.000000,0.000000,1.313188,0,0,0,0,0,0,0
11,119999,96,110000,91,0,40,9999,0.100000,0,0,0.000000,6,0.000000,0.000000,1.008219,0,0,0,0,0,0,0
11,119999,97,110000,91,0,40,9999,0.100000,0,0,0.000000,6,0.000000,0.000000,0.143050,0,0,0,0,0,0,0
11,119999,98,110000,1,10000,40,9999,0.100000,0,0,0.000000,6,0.000000,0.000000,0.131383,0,0,0,0,0,0,0
11,119999,99,110000,18,0,40,9999,0.100000,0,0,0.000000,6,0.000000,0.000000,1.609678,0,0,0,0,0,0,0
12,129999,0,120000,63,80000,40,9999,0.100000,0,0,0.000000,6,0.000000,0.000000,0.228428,0,0,0,0,0,0,0
12,129999,1,120000,91,0,40,9999,0.100000,0,0,0.000000,6,0.000000,0.000000,0.127318,0,0,0,0,0,0,0
12,129999,2,120000,48,10000,40,9999,0.100000,0,0,0.000000,6,0.000000,0.000000,1.040754,0,0,0,0,0,0,0
12,129999,3,120000,1,10000,40,9999,0.100000,0,0,0.000000,6,0.000000,0.000000,0.510096,0,0,0,0,0,0,0
12,129999,4,120000,63,80000,40,9999,0.100000,0,0,0.000000,6,0.000000,0.000000,0.103354,0,0,0,0,0,0,0
12,129999,5,120000,1,10000,40,9999,0.065000,0,0,0.000000,6,0.000000,0.000000,1.019340,0,0,0,0,0,0,0
12,129999,6,120000,91,0,40,9999,0.100000,0,0,0.000000,6,0.000000,0.000000,0.084781,0,0,0,0,0,0,0
12,129999,7,120000,32,10000,40,9999,0.100000,0,0,0.000000,6,0.000000,0.000000,0.138811,0,0,0,0,0,0,0
12,129999,8,120000,48,10000,40,9999,0.100000,0,0,0.000000,6,0.000000,0.000000,1.210638,0,0,0,0,0,0,0
12,129999,9,120000,91,0,40,9999,0.100000,0,0,0.000000,6,0.000000,0.000000,0.387294,0,0,0,0,0,0,0
12,129999,10,120000,48,10000,49,9999,0.100000,0,0,0.000000,6,3.000000,0.000000,7.506780,0,0,0,0,0,0,0
12,129999,11,120000,18,0,40,9999,0.100000,0,0,0.000000,6,0.000000,0.000000,3.295718,0,0,0,0,0,0,0
12,129999,12,120000,32,10000,40,9999,0.100000,0,0,0.000000,6,0.000000,0.000000,0.123413,0,0,0,0,0,0,0
12,129999,13,120000,91,0,40,9999,0.100000,0,0,0.000000,6,0.000000,0.000000,0.377670,0,0,0,0,0,0,0
12,129999,14,120000,48,10000,40,9999,0.100000,0,0,0.000000,6,0.000000,0.000000,0.153292,0,0,0,0,0,0,0
12,129999,15,120000,18,0,40,9999,0.100000,0,0,0.000000,6,0.000000,0.000000,0.220479,0,0,0,0,0,0,0
12,129999,16,120000,1,10000,40,9999,0.100000,0,0,0.000000,6,0.000000,0.000000,12.645550,0,0,0,0,0,0,0
12,129999,17,120000,32,10000,40,9999,0.100000,0,0,0.000000,6,0.000000,0.000000,0.447252,0,0,0,0,0,0,0
12,129999,18,120000,1,10000,40,9999,0.100000,0,0,0.000000,6,0.000000,0.000000,0.096638,0,0,0,0,0,0,0
12,129999,19,120000,91,0,40,9999,0.100000,0,0,0.000000,6,0.000000,0.000000,0.188692,0,0,0,0,0,0,0
12,129999,20,120000,18,0,40,9999,0.100000,0,0,0.000000,6,0.000000,0.000000,0.398538,0,0,0,0,0,0,0
12,129999,21,120000,63,80000,40,9999,0.100000,0,0,0.000000,6,0.000000,0.000000,0.093540,0,0,0,0,0,0,0
12,129999,22,120000,32,10000,49,9999,0.100000,0,0,0.000000,6,1.000000,0.000000,1.966191,0,0,0,0,0,0,0
12,129999,23,120000,1,10000,40,9999,0.100000,0,0,0.000000,6,0.000000,0.000000,0.162719,0,0,0,0,0,0,0
12,129999,24,120000,91,0,40,9999,0.100000,0,0,0.000000,6,0.000000,0.000000,0.654039,0,0,0,0,0,0,0
12,129999,25,120000,63,80000,49,9999,0.100000,0,0,0.000000,6,3.000000,0.000000,6.958280,0,0,0,0,0,0,0
12,129999,26,120000,91,0,40,9999,0.100000,0,0,0.000000,6,0.000000,0.000000,0.415645,0,0,0,0,0,0,0
12,129999,27,120000,32,10000,40,9999,0.100000,0,0,0.000000,6,0.000000,0.000000,0.624101,0,0,0,0,0,0,0
12,129999,28,120000,32,10000,40,9999,0.100000,0,0,0.000000,6,0.000000,0.000000,0.136338,0,0,0,0,0,0,0
12,129999,29,120000,63,80000,40,9999,0.100000,0,0,0.000000,6,0.000000,0.000000,0.135880,0,0,0,0,0,0,0
12,129999,30,120000,32,10000,40,9999,0.100000,0,0,0.000000,6,0.000000,0.000000,0.081466,0,0,0,0,0,0,0
