generation,iteration,robot,birthday,ancestor_id,ancestor_birthday,cell_id,age,sigma,maps,genomes,fitness,cells_in_map,dist_max,dist_pot_max,dist_total,com_rx,com_tx,obj_group1,obj_group2,obj_group3,obj_group4,obj_group5
0,9999,0,0,0,0,49,9999,0.100000,0,0,0.000000,0,9.000000,0.000000,10.185731,0,0,0,0,0,0,0
0,9999,1,0,1,0,49,9999,0.100000,0,0,0.000000,0,2.000000,0.000000,9.487615,0,0,0,0,0,0,0
0,9999,2,0,2,0,49,9999,0.100000,0,0,0.000000,0,8.000000,0.000000,11.113921,0,0,0,0,0,0,0
0,9999,3,0,3,0,49,9999,0.100000,0,0,0.000000,0,9.000000,0.000000,14.123338,0,0,0,0,0,0,0
0,9999,4,0,4,0,49,9999,0.100000,0,0,0.000000,0,5.000000,0.000000,12.412710,0,0,0,0,0,0,0
0,9999,5,0,5,0,49,9999,0.100000,0,0,0.000000,0,10.000000,0.000000,19.877105,0,0,0,0,0,0,0
0,9999,6,0,6,0,49,9999,0.100000,0,0,0.000000,0,7.000000,0.000000,9.204118,0,0,0,0,0,0,0
0,9999,7,0,7,0,49,9999,0.100000,0,0,0.000000,0,8.000000,0.000000,22.139315,0,0,0,0,0,0,0
0,9999,8,0,8,0,9,9999,0.100000,0,0,47.368421,0,10.000000,0.000000,16.623040,0,0,0,1,0,0,0
0,9999,9,0,9,0,49,9999,0.100000,0,0,0.000000,0,11.000000,0.000000,15.415613,0,0,0,0,0,0,0
0,9999,10,0,10,0,49,9999,0.100000,0,0,0.000000,0,10.000000,0.000000,16.104643,0,0,0,0,0,0,0
0,9999,11,0,11,0,9,9999,0.100000,0,0,47.368421,0,9.000000,0.000000,24.958329,0,0,0,1,0,0,0
0,9999,12,0,12,0,49,9999,0.100000,0,0,0.000000,0,8.000000,0.000000,12.085816,0,0,0,0,0,0,0
0,9999,13,0,13,0,49,9999,0.100000,0,0,0.000000,0,10.000000,0.000000,10.521785,0,0,0,0,0,0,0
0,9999,14,0,14,0,49,9999,0.100000,0,0,0.000000,0,10.000000,0.000000,14.538836,0,0,0,0,0,0,0
0,9999,15,0,15,0,49,9999,0.100000,0,0,0.000000,0,9.000000,0.000000,13.618027,0,0,0,0,0,0,0
0,9999,16,0,16,0,49,9999,0.100000,0,0,0.000000,0,9.000000,0.000000,10.713929,0,0,0,0,0,0,0
0,9999,17,0,17,0,49,9999,0.100000,0,0,0.000000,0,2.000000,0.000000,21.131464,0,0,0,0,0,0,0
0,9999,18,0,18,0,99,9999,0.100000,0,0,47.368421,0,8.000000,0.000000,16.116788,0,0,1,0,0,0,0
0,9999,19,0,19,0,49,9999,0.100000,0,0,0.000000,0,9.000000,0.000000,22.645152,0,0,0,0,0,0,0
0,9999,20,0,20,0,49,9999,0.100000,0,0,0.000000,0,10.000000,0.000000,14.719223,0,0,0,0,0,0,0
0,9999,21,0,21,0,49,9999,0.100000,0,0,0.000000,0,5.000000,0.000000,10.258460,0,0,0,0,0,0,0
0,9999,22,0,22,0,49,9999,0.100000,0,0,0.000000,0,11.000000,0.000000,12.228559,0,0,0,0,0,0,0
0,9999,23,0,23,0,49,9999,0.100000,0,0,0.000000,0,10.000000,0.000000,16.813101,0,0,0,0,0,0,0
0,9999,24,0,24,0,49,9999,0.100000,0,0,0.000000,0,8.000000,0.000000,14.263265,0,0,0,0,0,0,0
0,9999,25,0,25,0,49,9999,0.100000,0,0,0.000000,0,9.000000,0.000000,23.963911,0,0,0,0,0,0,0
0,9999,26,0,26,0,49,9999,0.100000,0,0,0.000000,0,7.000000,0.000000,11.029148,0,0,0,0,0,0,0
0,9999,27,0,27,0,49,9999,0.100000,0,0,0.000000,0,8.000000,0.000000,11.146197,0,0,0,0,0,0,0
0,9999,28,0,28,0,49,9999,0.100000,0,0,0.000000,0,9.000000,0.000000,27.859256,0,0,0,0,0,0,0
0,9999,29,0,29,0,49,9999,0.100000,0,0,0.000000,0,7.000000,0.000000,12.546678,0,0,0,0,0,0,0
0,9999,30,0,30,0,49,9999,0.100000,0,0,0.000000,0,5.000000,0.000000,7.333870,0,0,0,0,0,0,0
0,9999,31,0,31,0,49,9999,0.100000,0,0,0.000000,0,7.000000,0.000000,15.850147,0,0,0,0,0,0,0
0,9999,32,0,32,0,49,9999,0.100000,0,0,0.000000,0,13.000000,0.000000,25.499452,0,0,0,0,0,0,0
0,9999,33,0,33,0,49,9999,0.100000,0,0,0.000000,0,9.000000,0.000000,14.534248,0,0,0,0,0,0,0
0,9999,34,0,34,0,49,9999,0.100000,0,0,0.000000,0,7.000000,0.000000,17.851835,0,0,0,0,0,0,0
0,9999,35,0,35,0,49,9999,0.100000,0,0,0.000000,0,8.000000,0.000000,10.910807,0,0,0,0,0,0,0
0,9999,36,0,36,0,49,9999,0.100000,0,0,0.000000,0,6.000000,0.000000,11.957528,0,0,0,0,0,0,0
0,9999,37,0,37,0,49,9999,0.100000,0,0,0.000000,0,7.000000,0.000000,10.612516,0,0,0,0,0,0,0
0,9999,38,0,38,0,49,9999,0.100000,0,0,0.000000,0,9.000000,0.000000,15.740061,0,0,0,0,0,0,0
0,9999,39,0,39,0,49,9999,0.100000,0,0,0.000000,0,2.000000,0.000000,8.095695,0,0,0,0,0,0,0
0,9999,40,0,40,0,49,9999,0.100000,0,0,0.000000,0,10.000000,0.000000,26.493687,0,0,0,0,0,0,0
0,9999,41,0,41,0,49,9999,0.100000,0,0,0.000000,0,1.000000,0.000000,4.739941,0,0,0,0,0,0,0
0,9999,42,0,42,0,49,9999,0.100000,0,0,0.000000,0,13.000000,0.000000,27.380431,0,0,0,0,0,0,0
0,9999,43,0,43,0,49,9999,0.100000,0,0,0.000000,0,7.000000,0.000000,9.720030,0,0,0,0,0,0,0
0,9999,44,0,44,0,49,9999,0.100000,0,0,0.000000,0,12.000000,0.000000,21.736283,0,0,0,0,0,0,0
0,9999,45,0,45,0,49,9999,0.100000,0,0,0.000000,0,12.000000,0.000000,16.181380,0,0,0,0,0,0,0
0,9999,46,0,46,0,49,9999,0.100000,0,0,0.000000,0,8.000000,0.000000,16.579903,0,0,0,0,0,0,0
0,9999,47,0,47,0,49,9999,0.100000,0,0,0.000000,0,10.000000,0.000000,11.626318,0,0,0,0,0,0,0
0,9999,48,0,48,0,99,9999,0.100000,0,0,47.368421,0,11.000000,0.000000,21.958262,0,0,1,0,0,0,0
0,9999,49,0,49,0,49,9999,0.100000,0,0,0.000000,0,8.000000,0.000000,9.961016,0,0,0,0,0,0,0
0,9999,50,0,50,0,49,9999,0.100000,0,0,0.000000,0,7.000000,0.000000,10.108769,0,0,0,0,0,0,0
0,9999,51,0,51,0,49,9999,0.100000,0,0,0.000000,0,11.000000,0.000000,22.288914,0,0,0,0,0,0,0
0,9999,52,0,52,0,49,9999,0.100000,0,0,0.000000,0,12.000000,0.000000,15.213199,0,0,0,0,0,0,0
0,9999,53,0,53,0,49,9999,0.100000,0,0,0.000000,0,3.000000,0.000000,10.025845,0,0,0,0,0,0,0
0,9999,54,0,54,0,49,9999,0.100000,0,0,0.000000,0,7.000000,0.000000,23.953328,0,0,0,0,0,0,0
0,9999,55,0,55,0,49,9999,0.100000,0,0,0.000000,0,7.000000,0.000000,15.416561,0,0,0,0,0,0,0
0,9999,56,0,56,0,49,9999,0.100000,0,0,0.000000,0,8.000000,0.000000,14.894549,0,0,0,0,0,0,0
0,9999,57,0,57,0,49,9999,0.100000,0,0,0.000000,0,3.000000,0.000000,14.777870,0,0,0,0,0,0,0
0,9999,58,0,58,0,49,9999,0.100000,0,0,0.000000,0,8.000000,0.000000,24.902038,0,0,0,0,0,0,0
0,9999,59,0,59,0,49,9999,0.100000,0,0,0.000000,0,2.000000,0.000000,4.042831,0,0,0,0,0,0,0
0,9999,60,0,60,0,49,9999,0.100000,0,0,0.000000,0,9.000000,0.000000,22.949724,0,0,0,0,0,0,0
0,9999,61,0,61,0,49,9999,0.100000,0,0,0.000000,0,8.000000,0.000000,24.194109,0,0,0,0,0,0,0
0,9999,62,0,62,0,49,9999,0.100000,0,0,0.000000,0,7.000000,0.000000,8.097911,0,0,0,0,0,0,0
0,9999,63,0,63,0,49,9999,0.100000,0,0,0.000000,0,8.000000,0.000000,17.095656,0,0,0,0,0,0,0
0,9999,64,0,64,0,49,9999,0.100000,0,0,0.000000,0,6.000000,0.000000,19.313491,0,0,0,0,0,0,0
0,9999,65,0,65,0,49,9999,0.100000,0,0,0.000000,0,10.000000,0.000000,11.710615,0,0,0,0,0,0,0
0,9999,66,0,66,0,49,9999,0.100000,0,0,0.000000,0,7.000000,0.000000,14.621733,0,0,0,0,0,0,0
0,9999,67,0,67,0,49,9999,0.100000,0,0,0.000000,0,6.000000,0.000000,13.969163,0,0,0,0,0,0,0
0,9999,68,0,68,0,49,9999,0.100000,0,0,0.000000,0,13.000000,0.000000,24.254504,0,0,0,0,0,0,0
0,9999,69,0,69,0,49,9999,0.100000,0,0,0.000000,0,7.000000,0.000000,9.452344,0,0,0,0,0,0,0
0,9999,70,0,70,0,49,9999,0.100000,0,0,0.000000,0,5.000000,0.000000,8.289237,0,0,0,0,0,0,0
0,9999,71,0,71,0,49,9999,0.100000,0,0,0.000000,0,8.000000,0.000000,11.058522,0,0,0,0,0,0,0
0,9999,72,0,72,0,49,9999,0.100000,0,0,0.000000,0,6.000000,0.000000,16.388864,0,0,0,0,0,0,0
0,9999,73,0,73,0,49,9999,0.100000,0,0,0.000000,0,6.000000,0.000000,8.957693,0,0,0,0,0,0,0
0,9999,74,0,74,0,49,9999,0.100000,0,0,0.000000,0,7.000000,0.000000,10.442306,0,0,0,0,0,0,0
0,9999,75,0,75,0,49,9999,0.100000,0,0,0.000000,0,3.000000,0.000000,7.929240,0,0,0,0,0,0,0
0,9999,76,0,76,0,49,9999,0.100000,0,0,0.000000,0,7.000000,0.000000,13.492340,0,0,0,0,0,0,0
0,9999,77,0,77,0,49,9999,0.100000,0,0,0.000000,0,10.000000,0.000000,14.991618,0,0,0,0,0,0,0
0,9999,78,0,78,0,49,9999,0.100000,0,0,0.000000,0,5.000000,0.000000,15.586626,0,0,0,0,0,0,0
0,9999,79,0,79,0,49,9999,0.100000,0,0,0.000000,0,5.000000,0.000000,10.186156,0,0,0,0,0,0,0
0,9999,80,0,80,0,49,9999,0.100000,0,0,0.000000,0,6.000000,0.000000,13.413677,0,0,0,0,0,0,0
0,9999,81,0,81,0,49,9999,0.100000,0,0,0.000000,0,10.000000,0.000000,20.855638,0,0,0,0,0,0,0
0,9999,82,0,82,0,49,9999,0.100000,0,0,0.000000,0,10.000000,0.000000,20.367588,0,0,0,0,0,0,0
0,9999,83,0,83,0,49,9999,0.100000,0,0,0.000000,0,9.000000,0.000000,14.436675,0,0,0,0,0,0,0
0,9999,84,0,84,0,49,9999,0.100000,0,0,0.000000,0,6.000000,0.000000,10.304644,0,0,0,0,0,0,0
0,9999,85,0,85,0,49,9999,0.100000,0,0,0.000000,0,6.000000,0.000000,12.415079,0,0,0,0,0,0,0
0,9999,86,0,86,0,9,9999,0.100000,0,0,0.000000,0,8.000000,0.000000,13.388665,0,0,0,1,0,0,0
0,9999,87,0,87,0,49,9999,0.100000,0,0,0.000000,0,11.000000,0.000000,19.354616,0,0,0,0,0,0,0
0,9999,88,0,88,0,49,9999,0.100000,0,0,0.000000,0,7.000000,0.000000,7.673003,0,0,0,0,0,0,0
0,9999,89,0,89,0,49,9999,0.100000,0,0,0.000000,0,2.000000,0.000000,11.181673,0,0,0,0,0,0,0
0,9999,90,0,90,0,49,9999,0.100000,0,0,0.000000,0,6.000000,0.000000,9.224441,0,0,0,0,0,0,0
0,9999,91,0,91,0,99,9999,0.100000,0,0,47.368421,0,10.000000,0.000000,18.056958,0,0,1,0,0,0,0
0,9999,92,0,92,0,49,9999,0.100000,0,0,0.000000,0,11.000000,0.000000,15.949384,0,0,0,0,0,0,0
0,9999,93,0,93,0,49,9999,0.100000,0,0,0.000000,0,7.000000,0.000000,20.788154,0,0,0,0,0,0,0
0,9999,94,0,94,0,49,9999,0.100000,0,0,0.000000,0,10.000000,0.000000,15.352240,0,0,0,0,0,0,0
0,9999,95,0,95,0,49,9999,0.100000,0,0,0.000000,0,13.000000,0.000000,27.763263,0,0,0,0,0,0,0
0,9999,96,0,96,0,49,9999,0.100000,0,0,0.000000,0,9.000000,0.000000,13.511233,0,0,0,0,0,0,0
0,9999,97,0,97,0,49,9999,0.100000,0,0,0.000000,0,9.000000,0.000000,14.228448,0,0,0,0,0,0,0
0,9999,98,0,98,0,49,9999,0.100000,0,0,0.000000,0,7.000000,0.000000,9.240001,0,0,0,0,0,0,0
0,9999,99,0,99,0,49,9999,0.100000,0,0,0.000000,0,7.000000,0.000000,9.194436,0,0,0,0,0,0,0
1,19999,0,10000,9,0,40,9999,0.100000,0,0,0.000000,3,0.000000,0.000000,0.910696,0,0,0,0,0,0,0
1,19999,1,0,1,0,40,19999,0.100000,0,0,0.000000,3,0.000000,0.000000,0.196601,0,0,0,0,0,0,0
1,19999,2,10000,2,0,40,9999,0.100000,0,0,0.000000,1,0.000000,0.000000,1.944845,0,0,0,0,0,0,0
1,19999,3,10000,3,0,40,9999,0.100000,0,0,0.000000,1,0.000000,0.000000,2.897264,0,0,0,0,0,0,0
1,19999,4,10000,2,0,49,9999,0.100000,0,0,0.000000,3,1.000000,0.000000,6.165448,0,0,0,0,0,0,0
1,19999,5,10000,52,0,40,9999,0.100000,0,0,0.000000,3,0.000000,0.000000,2.050264,0,0,0,0,0,0,0
1,19999,6,10000,48,0,40,9999,0.100000,0,0,0.000000,3,0.000000,0.000000,0.166804,0,0,0,0,0,0,0
1,19999,7,10000,9,0,49,9999,0.100000,0,0,0.000000,3,3.000000,0.000000,8.991766,0,0,0,0,0,0,0
1,19999,8,10000,9,0,49,9999,0.100000,0,0,0.000000,3,1.000000,0.000000,12.416870,0,0,0,0,0,0,0
1,19999,9,0,9,0,40,19999,0.100000,0,0,0.000000,2,0.000000,0.000000,0.435980,0,0,0,0,0,0,0
1,19999,10,10000,9,0,40,9999,0.100000,0,0,0.000000,3,0.000000,0.000000,1.270454,0,0,0,0,0,0,0
1,19999,11,10000,9,0,49,9999,0.100000,0,0,0.000000,2,1.000000,0.000000,7.636445,0,0,0,0,0,0,0
1,19999,12,10000,2,0,40,9999,0.100000,0,0,0.000000,3,0.000000,0.000000,0.587116,0,0,0,0,0,0,0
1,19999,13,10000,52,0,40,9999,0.100000,0,0,0.000000,3,0.000000,0.000000,0.425884,0,0,0,0,0,0,0
1,19999,14,10000,2,0,40,9999,0.100000,0,0,0.000000,3,0.000000,0.000000,1.699776,0,0,0,0,0,0,0
1,19999,15,10000,2,0,40,9999,0.100000,0,0,0.000000,3,0.000000,0.000000,3.809593,0,0,0,0,0,0,0
1,19999,16,10000,2,0,40,9999,0.100000,0,0,0.000000,3,0.000000,0.000000,0.247439,0,0,0,0,0,0,0
1,19999,17,10000,2,0,99,9999,0.100000,0,0,34.210526,3,7.000000,0.000000,15.017966,0,0,1,0,0,0,0
1,19999,18,10000,52,0,40,9999,0.100000,0,0,0.000000,3,0.000000,0.000000,8.970317,0,0,0,0,0,0,0
1,19999,19,10000,2,0,49,9999,0.100000,0,0,0.000000,3,1.000000,0.000000,5.110114,0,0,0,0,0,0,0
1,19999,20,10000,2,0,49,9999,0.100000,0,0,0.000000,3,1.000000,0.000000,3.925019,0,0,0,0,0,0,0
1,19999,21,10000,48,0,40,9999,0.100000,0,0,0.000000,3,0.000000,0.000000,0.068600,0,0,0,0,0,0,0
1,19999,22,10000,33,0,40,9999,0.100000,0,0,0.000000,3,0.000000,0.000000,0.130090,0,0,0,0,0,0,0
1,19999,23,10000,33,0,40,9999,0.100000,0,0,0.000000,3,0.000000,0.000000,2.945577,0,0,0,0,0,0,0
1,19999,24,0,24,0,40,19999,0.100000,0,0,0.000000,3,0.000000,0.000000,1.382483,0,0,0,0,0,0,0
1,19999,25,10000,48,0,49,9999,0.100000,0,0,0.000000,3,1.000000,0.000000,2.781028,0,0,0,0,0,0,0
1,19999,26,10000,2,0,40,9999,0.100000,0,0,0.000000,3,0.000000,0.000000,4.613497,0,0,0,0,0,0,0
1,19999,27,10000,48,0,40,9999,0.100000,0,0,0.000000,3,0.000000,0.000000,0.660111,0,0,0,0,0,0,0
1,19999,28,10000,52,0,49,9999,0.100000,0,0,0.000000,3,3.000000,0.000000,14.456604,0,0,0,0,0,0,0
1,19999,29,10000,2,0,40,9999,0.100000,0,0,0.000000,3,0.000000,0.000000,0.100688,0,0,0,0,0,0,0
1,19999,30,10000,9,0,40,9999,0.100000,0,0,0.000000,3,0.000000,0.000000,0.149082,0,0,0,0,0,0,0
1,19999,31,10000,2,0,40,9999,0.100000,0,0,0.000000,3,0.000000,0.000000,0.379097,0,0,0,0,0,0,0
1,19999,32,10000,48,0,40,9999,0.100000,0,0,0.000000,3,0.000000,0.000000,6.017803,0,0,0,0,0,0,0
1,19999,33,10000,33,0,99,9999,0.100000,0,0,34.210526,3,13.000000,0.000000,17.048136,0,0,1,0,0,0,0
1,19999,34,10000,2,0,40,9999,0.100000,0,0,0.000000,3,0.000000,0.000000,4.612260,0,0,0,0,0,0,0
1,19999,35,10000,48,0,40,9999,0.100000,0,0,0.000000,3,0.000000,0.000000,0.813022,0,0,0,0,0,0,0
1,19999,36,10000,9,0,49,9999,0.100000,0,0,0.000000,3,6.000000,0.000000,7.943516,0,0,0,0,0,0,0
1,19999,37,10000,48,0,40,9999,0.100000,0,0,0.000000,3,0.000000,0.000000,1.620141,0,0,0,0,0,0,0
1,19999,38,10000,48,0,40,9999,0.100000,0,0,0.000000,3,0.000000,0.000000,0.540992,0,0,0,0,0,0,0
1,19999,39,10000,48,0,40,9999,0.100000,0,0,0.000000,3,0.000000,0.000000,0.151304,0,0,0,0,0,0,0
1,19999,40,10000,9,0,40,9999,0.100000,0,0,0.000000,3,0.000000,0.000000,14.802927,0,0,0,0,0,0,0
1,19999,41,10000,2,0,40,9999,0.100000,0,0,0.000000,3,0.000000,0.000000,0.283008,0,0,0,0,0,0,0
1,19999,42,10000,52,0,40,9999,0.100000,0,0,0.000000,3,0.000000,0.000000,10.050211,0,0,0,0,0,0,0
1,19999,43,10000,2,0,40,9999,0.100000,0,0,0.000000,3,0.000000,0.000000,1.134555,0,0,0,0,0,0,0
1,19999,44,10000,9,0,49,9999,0.100000,0,0,0.000000,3,1.000000,0.000000,7.352440,0,0,0,0,0,0,0
1,19999,45,10000,52,0,40,9999,0.100000,0,0,0.000000,3,0.000000,0.000000,0.107161,0,0,0,0,0,0,0
1,19999,46,0,46,0,49,19999,0.100000,0,0,0.000000,3,1.000000,0.000000,9.136320,0,0,0,0,0,0,0
1,19999,47,10000,9,0,40,9999,0.100000,0,0,0.000000,3,0.000000,0.000000,0.989585,0,0,0,0,0,0,0
1,19999,48,10000,2,0,40,9999,0.100000,0,0,0.000000,3,0.000000,0.000000,1.400126,0,0,0,0,0,0,0
1,19999,49,10000,49,0,49,9999,0.100000,0,0,0.000000,2,3.000000,0.000000,10.018883,0,0,0,0,0,0,0
1,19999,50,10000,48,0,40,9999,0.100000,0,0,0.000000,3,0.000000,0.000000,0.536984,0,0,0,0,0,0,0
1,19999,51,10000,2,0,40,9999,0.100000,0,0,0.000000,3,0.000000,0.000000,4.810050,0,0,0,0,0,0,0
1,19999,52,10000,48,0,40,9999,0.100000,0,0,0.000000,3,0.000000,0.000000,0.177902,0,0,0,0,0,0,0
1,19999,53,10000,9,0,40,9999,0.100000,0,0,0.000000,3,0.000000,0.000000,0.405569,0,0,0,0,0,0,0
1,19999,54,10000,2,0,49,9999,0.100000,0,0,0.000000,3,1.000000,0.000000,3.341487,0,0,0,0,0,0,0
1,19999,55,10000,22,0,49,9999,0.100000,0,0,0.000000,3,1.000000,0.000000,11.032780,0,0,0,0,0,0,0
1,19999,56,10000,52,0,49,9999,0.100000,0,0,0.000000,3,5.000000,0.000000,9.379233,0,0,0,0,0,0,0
1,19999,57,10000,48,0,40,9999,0.100000,0,0,0.000000,3,0.000000,0.000000,0.530140,0,0,0,0,0,0,0
1,19999,58,10000,9,0,49,9999,0.100000,0,0,0.000000,3,1.000000,0.000000,6.811708,0,0,0,0,0,0,0
1,19999,59,10000,48,0,40,9999,0.100000,0,0,0.000000,3,0.000000,0.000000,0.940922,0,0,0,0,0,0,0
1,19999,60,10000,52,0,49,9999,0.100000,0,0,0.000000,3,2.000000,0.000000,11.767373,0,0,0,0,0,0,0
1,19999,61,10000,52,0,49,9999,0.100000,0,0,0.000000,3,1.000000,0.000000,8.375741,0,0,0,0,0,0,0
1,19999,62,10000,48,0,40,9999,0.100000,0,0,0.000000,3,0.000000,0.000000,0.690509,0,0,0,0,0,0,0
1,19999,63,10000,48,0,40,9999,0.100000,0,0,0.000000,3,0.000000,0.000000,0.463085,0,0,0,0,0,0,0
1,19999,64,10000,52,0,49,9999,0.100000,0,0,0.000000,3,11.000000,0.000000,13.549377,0,0,0,0,0,0,0
1,19999,65,10000,2,0,40,9999,0.100000,0,0,0.000000,3,0.000000,0.000000,1.716399,0,0,0,0,0,0,0
1,19999,66,10000,2,0,49,9999,0.100000,0,0,0.000000,3,8.000000,0.000000,8.810065,0,0,0,0,0,0,0
1,19999,67,10000,48,0,49,9999,0.100000,0,0,0.000000,3,1.000000,0.000000,5.552930,0,0,0,0,0,0,0
1,19999,68,10000,33,0,40,9999,0.100000,0,0,0.000000,3,0.000000,0.000000,2.380878,0,0,0,0,0,0,0
1,19999,69,10000,48,0,40,9999,0.100000,0,0,0.000000,3,0.000000,0.000000,0.818614,0,0,0,0,0,0,0
1,19999,70,10000,48,0,40,9999,0.100000,0,0,0.000000,3,0.000000,0.000000,0.388153,0,0,0,0,0,0,0
1,19999,71,10000,52,0,40,9999,0.100000,0,0,0.000000,3,0.000000,0.000000,0.586327,0,0,0,0,0,0,0
1,19999,72,10000,48,0,49,9999,0.100000,0,0,0.000000,3,1.000000,0.000000,2.655002,0,0,0,0,0,0,0
1,19999,73,10000,48,0,40,9999,0.100000,0,0,0.000000,3,0.000000,0.000000,11.035691,0,0,0,0,0,0,0
1,19999,74,10000,22,0,40,9999,0.100000,0,0,0.000000,3,0.000000,0.000000,0.575375,0,0,0,0,0,0,0
1,19999,75,10000,9,0,49,9999,0.100000,0,0,0.000000,3,1.000000,0.000000,2.568402,0,0,0,0,0,0,0
1,19999,76,10000,48,0,40,9999,0.100000,0,0,0.000000,3,0.000000,0.000000,0.688418,0,0,0,0,0,0,0
1,19999,77,10000,2,0,40,9999,0.100000,0,0,0.000000,3,0.000000,0.000000,1.041224,0,0,0,0,0,0,0
1,19999,78,0,78,0,49,19999,0.100000,0,0,0.000000,3,1.000000,0.000000,4.592966,0,0,0,0,0,0,0
1,19999,79,10000,48,0,49,9999,0.100000,0,0,0.000000,3,6.000000,0.000000,6.899692,0,0,0,0,0,0,0
1,19999,80,10000,2,0,49,9999,0.100000,0,0,0.000000,3,1.000000,0.000000,21.206651,0,0,0,0,0,0,0
1,19999,81,10000,2,0,49,9999,0.100000,0,0,0.000000,3,2.000000,0.000000,5.143721,0,0,0,0,0,0,0
1,19999,82,10000,9,0,49,9999,0.100000,0,0,0.000000,3,1.000000,0.000000,7.260179,0,0,0,0,0,0,0
1,19999,83,10000,52,0,40,9999,0.100000,0,0,0.000000,3,0.000000,0.000000,4.014160,0,0,0,0,0,0,0
1,19999,84,10000,52,0,40,9999,0.100000,0,0,0.000000,3,0.000000,0.000000,2.168463,0,0,0,0,0,0,0
1,19999,85,10000,2,0,49,9999,0.100000,0,0,0.000000,3,1.000000,0.000000,3.919500,0,0,0,0,0,0,0
1,19999,86,10000,52,0,49,9999,0.100000,0,0,0.000000,3,1.000000,0.000000,5.677980,0,0,0,0,0,0,0
1,19999,87,10000,9,0,49,9999,0.100000,0,0,0.000000,3,1.000000,0.000000,3.246435,0,0,0,0,0,0,0
1,19999,88,10000,52,0,40,9999,0.100000,0,0,0.000000,3,0.000000,0.000000,0.296588,0,0,0,0,0,0,0
1,19999,89,10000,2,0,49,9999,0.100000,0,0,0.000000,3,1.000000,0.000000,4.505519,0,0,0,0,0,0,0
1,19999,90,10000,2,0,40,9999,0.100000,0,0,0.000000,3,0.000000,0.000000,0.728165,0,0,0,0,0,0,0
1,19999,91,10000,52,0,40,9999,0.100000,0,0,0.000000,3,0.000000,0.000000,0.774717,0,0,0,0,0,0,0
1,19999,92,10000,48,0,49,9999,0.100000,0,0,0.000000,3,2.000000,0.000000,7.709602,0,0,0,0,0,0,0
1,19999,93,10000,48,0,40,9999,0.100000,0,0,0.000000,3,0.000000,0.000000,1.503080,0,0,0,0,0,0,0
1,19999,94,10000,33,0,40,9999,0.100000,0,0,0.000000,3,0.000000,0.000000,0.458441,0,0,0,0,0,0,0
1,19999,95,10000,2,0,40,9999,0.100000,0,0,0.000000,3,0.000000,0.000000,1.291194,0,0,0,0,0,0,0
1,19999,96,10000,52,0,49,9999,0.100000,0,0,0.000000,3,2.000000,0.000000,10.390109,0,0,0,0,0,0,0
1,19999,97,10000,33,0,40,9999,0.100000,0,0,0.000000,3,0.000000,0.000000,1.162524,0,0,0,0,0,0,0
1,19999,98,0,98,0,40,19999,0.100000,0,0,0.000000,3,0.000000,0.000000,0.449378,0,0,0,0,0,0,0
1,19999,99,10000,52,0,40,9999,0.100000,0,0,0.000000,3,0.000000,0.000000,1.069093,0,0,0,0,0,0,0
2,29999,0,20000,13,10000,40,9999,0.100000,0,0,0.000000,5,0.000000,0.000000,0.873265,0,0,0,0,0,0,0
2,29999,1,20000,13,10000,40,9999,0.100000,0,0,0.000000,5,0.000000,0.000000,0.195219,0,0,0,0,0,0,0
2,29999,2,20000,22,0,40,9999,0.100000,0,0,0.000000,4,0.000000,0.000000,2.415067,0,0,0,0,0,0,0
2,29999,3,20000,33,0,40,9999,0.100000,0,0,0.000000,5,0.000000,0.000000,0.879505,0,0,0,0,0,0,0
2,29999,4,20000,2,10000,49,9999,0.065000,0,0,0.000000,5,1.000000,0.000000,4.863940,0,0,0,0,0,0,0
2,29999,5,20000,2,10000,49,9999,0.100000,0,0,0.000000,5,1.000000,0.000000,4.007032,0,0,0,0,0,0,0
2,29999,6,20000,22,0,40,9999,0.100000,0,0,0.000000,5,0.000000,0.000000,0.409279,0,0,0,0,0,0,0
2,29999,7,20000,13,10000,40,9999,0.100000,0,0,0.000000,5,0.000000,0.000000,5.209366,0,0,0,0,0,0,0
2,29999,8,20000,91,0,49,9999,0.100000,0,0,0.000000,5,2.000000,0.000000,4.498113,0,0,0,0,0,0,0
2,29999,9,20000,2,10000,40,9999,0.100000,0,0,0.000000,5,0.000000,0.000000,0.960772,0,0,0,0,0,0,0
2,29999,10,20000,91,0,40,9999,0.100000,0,0,0.000000,5,0.000000,0.000000,1.324174,0,0,0,0,0,0,0
2,29999,11,20000,2,10000,40,9999,0.100000,0,0,0.000000,5,0.000000,0.000000,2.857653,0,0,0,0,0,0,0
2,29999,12,20000,91,0,40,9999,0.100000,0,0,0.000000,5,0.000000,0.000000,0.553894,0,0,0,0,0,0,0
2,29999,13,20000,91,0,40,9999,0.100000,0,0,0.000000,5,0.000000,0.000000,0.793947,0,0,0,0,0,0,0
2,29999,14,20000,2,10000,40,9999,0.100000,0,0,0.000000,5,0.000000,0.000000,2.255280,0,0,0,0,0,0,0
2,29999,15,20000,13,10000,40,9999,0.100000,0,0,0.000000,5,0.000000,0.000000,3.453284,0,0,0,0,0,0,0
2,29999,16,10000,2,0,40,19999,0.100000,0,0,0.000000,5,0.000000,0.000000,0.105946,0,0,0,0,0,0,0
2,29999,17,20000,2,10000,40,9999,0.100000,0,0,0.000000,5,0.000000,0.000000,2.924777,0,0,0,0,0,0,0
2,29999,18,20000,2,10000,40,9999,0.100000,0,0,0.000000,5,0.000000,0.000000,5.042644,0,0,0,0,0,0,0
2,29999,19,20000,22,0,40,9999,0.100000,0,0,0.000000,5,0.000000,0.000000,7.290660,0,0,0,0,0,0,0
2,29999,20,20000,33,0,40,9999,0.100000,0,0,0.000000,5,0.000000,0.000000,0.934909,0,0,0,0,0,0,0
2,29999,21,20000,33,0,40,9999,0.100000,0,0,0.000000,5,0.000000,0.000000,0.105999,0,0,0,0,0,0,0
2,29999,22,20000,2,10000,40,9999,0.100000,0,0,0.000000,5,0.000000,0.000000,0.128542,0,0,0,0,0,0,0
2,29999,23,20000,33,0,49,9999,0.100000,0,0,0.000000,5,6.000000,0.000000,16.317317,0,0,0,0,0,0,0
2,29999,24,20000,91,0,40,9999,0.100000,0,0,0.000000,5,0.000000,0.000000,1.378286,0,0,0,0,0,0,0
2,29999,25,20000,91,0,40,9999,0.100000,0,0,0.000000,5,0.000000,0.000000,2.598162,0,0,0,0,0,0,0
2,29999,26,20000,33,0,40,9999,0.100000,0,0,0.000000,5,0.000000,0.000000,0.717980,0,0,0,0,0,0,0
2,29999,27,20000,22,0,40,9999,0.100000,0,0,0.000000,5,0.000000,0.000000,0.563683,0,0,0,0,0,0,0
2,29999,28,20000,2,10000,49,9999,0.100000,0,0,0.000000,5,1.000000,0.000000,8.164028,0,0,0,0,0,0,0
2,29999,29,20000,13,10000,40,9999,0.100000,0,0,0.000000,5,0.000000,0.000000,0.103193,0,0,0,0,0,0,0
2,29999,30,20000,22,0,40,9999,0.100000,0,0,0.000000,5,0.000000,0.000000,0.138677,0,0,0,0,0,0,0
2,29999,31,20000,33,0,40,9999,0.100000,0,0,0.000000,5,0.000000,0.000000,0.428355,0,0,0,0,0,0,0
2,29999,32,20000,2,10000,49,9999,0.100000,0,0,0.000000,5,1.000000,0.000000,4.892456,0,0,0,0,0,0,0
2,29999,33,20000,33,0,40,9999,0.100000,0,0,0.000000,5,0.000000,0.000000,1.012875,0,0,0,0,0,0,0
2,29999,34,20000,22,0,49,9999,0.100000,0,0,0.000000,5,2.000000,0.000000,7.107182,0,0,0,0,0,0,0
2,29999,35,20000,2,10000,40,9999,0.100000,0,0,0.000000,5,0.000000,0.000000,0.823553,0,0,0,0,0,0,0
2,29999,36,20000,2,10000,9,9999,0.100000,0,0,34.210526,5,4.000000,0.000000,5.832181,0,0,0,1,0,0,0
2,29999,37,20000,2,10000,40,9999,0.100000,0,0,0.000000,5,0.000000,0.000000,2.717757,0,0,0,0,0,0,0
2,29999,38,20000,13,10000,49,9999,0.100000,0,0,0.000000,5,1.000000,0.000000,13.771833,0,0,0,0,0,0,0
2,29999,39,20000,13,10000,40,9999,0.100000,0,0,0.000000,5,0.000000,0.000000,0.259778,0,0,0,0,0,0,0
2,29999,40,20000,22,0,49,9999,0.100000,0,0,0.000000,5,2.000000,0.000000,6.112399,0,0,0,0,0,0,0
2,29999,41,20000,13,10000,40,9999,0.100000,0,0,0.000000,5,0.000000,0.000000,1.417352,0,0,0,0,0,0,0
2,29999,42,20000,2,10000,40,9999,0.100000,0,0,0.000000,5,0.000000,0.000000,2.693508,0,0,0,0,0,0,0
2,29999,43,20000,91,0,40,9999,0.100000,0,0,0.000000,5,0.000000,0.000000,0.905062,0,0,0,0,0,0,0
2,29999,44,20000,33,0,40,9999,0.100000,0,0,0.000000,5,0.000000,0.000000,0.132946,0,0,0,0,0,0,0
2,29999,45,20000,22,0,40,9999,0.100000,0,0,0.000000,5,0.000000,0.000000,0.472136,0,0,0,0,0,0,0
2,29999,46,20000,13,10000,40,9999,0.100000,0,0,0.000000,5,0.000000,0.000000,1.024333,0,0,0,0,0,0,0
2,29999,47,20000,91,0,40,9999,0.100000,0,0,0.000000,5,0.000000,0.000000,0.567588,0,0,0,0,0,0,0
2,29999,48,20000,22,0,49,9999,0.100000,0,0,0.000000,5,1.000000,0.000000,8.052264,0,0,0,0,0,0,0
2,29999,49,20000,2,10000,40,9999,0.100000,0,0,0.000000,5,0.000000,0.000000,0.983540,0,0,0,0,0,0,0
2,29999,50,20000,13,10000,40,9999,0.100000,0,0,0.000000,5,0.000000,0.000000,0.469315,0,0,0,0,0,0,0
2,29999,51,20000,33,0,49,9999,0.100000,0,0,0.000000,5,1.000000,0.000000,4.084592,0,0,0,0,0,0,0
2,29999,52,20000,22,0,40,9999,0.100000,0,0,0.000000,5,0.000000,0.000000,0.719059,0,0,0,0,0,0,0
2,29999,53,20000,2,10000,40,9999,0.100000,0,0,0.000000,5,0.000000,0.000000,2.741418,0,0,0,0,0,0,0
2,29999,54,20000,33,0,49,9999,0.100000,0,0,0.000000,5,1.000000,0.000000,2.266748,0,0,0,0,0,0,0
2,29999,55,20000,52,10000,49,9999,0.100000,0,0,0.000000,5,1.000000,0.000000,10.223132,0,0,0,0,0,0,0
2,29999,56,20000,33,0,40,9999,0.100000,0,0,0.000000,5,0.000000,0.000000,4.452054,0,0,0,0,0,0,0
2,29999,57,20000,91,0,40,9999,0.100000,0,0,0.000000,5,0.000000,0.000000,0.313697,0,0,0,0,0,0,0
2,29999,58,20000,33,0,49,9999,0.100000,0,0,0.000000,5,1.000000,0.000000,2.717418,0,0,0,0,0,0,0
2,29999,59,20000,33,0,40,9999,0.100000,0,0,0.000000,5,0.000000,0.000000,2.423240,0,0,0,0,0,0,0
2,29999,60,20000,22,0,49,9999,0.100000,0,0,0.000000,5,4.000000,0.000000,16.849759,0,0,0,0,0,0,0
2,29999,61,20000,13,10000,40,9999,0.100000,0,0,0.000000,5,0.000000,0.000000,0.782071,0,0,0,0,0,0,0
2,29999,62,20000,33,0,40,9999,0.100000,0,0,0.000000,5,0.000000,0.000000,0.808917,0,0,0,0,0,0,0
2,29999,63,20000,91,0,40,9999,0.100000,0,0,0.000000,5,0.000000,0.000000,0.262820,0,0,0,0,0,0,0
2,29999,64,20000,33,0,40,9999,0.100000,0,0,0.000000,5,0.000000,0.000000,0.701944,0,0,0,0,0,0,0
2,29999,65,20000,91,0,49,9999,0.100000,0,0,0.000000,5,1.000000,0.000000,3.881685,0,0,0,0,0,0,0
2,29999,66,20000,33,0,49,9999,0.100000,0,0,0.000000,5,7.000000,0.000000,10.332387,0,0,0,0,0,0,0
2,29999,67,20000,22,0,49,9999,0.100000,0,0,0.000000,5,2.000000,0.000000,4.494924,0,0,0,0,0,0,0
2,29999,68,10000,33,0,40,19999,0.100000,0,0,0.000000,5,0.000000,0.000000,1.788470,0,0,0,0,0,0,0
2,29999,69,20000,13,10000,40,9999,0.100000,0,0,0.000000,5,0.000000,0.000000,0.911956,0,0,0,0,0,0,0
2,29999,70,20000,2,10000,40,9999,0.100000,0,0,0.000000,5,0.000000,0.000000,0.380770,0,0,0,0,0,0,0
2,29999,71,20000,2,10000,40,9999,0.100000,0,0,0.000000,5,0.000000,0.000000,0.587707,0,0,0,0,0,0,0
2,29999,72,20000,91,0,40,9999,0.100000,0,0,0.000000,5,0.000000,0.000000,0.155167,0,0,0,0,0,0,0
2,29999,73,20000,33,0,40,9999,0.100000,0,0,0.000000,5,0.000000,0.000000,1.631715,0,0,0,0,0,0,0
2,29999,74,20000,22,0,49,9999,0.100000,0,0,0.000000,5,1.000000,0.000000,1.489086,0,0,0,0,0,0,0
2,29999,75,20000,33,0,40,9999,0.100000,0,0,0.000000,5,0.000000,0.000000,0.132105,0,0,0,0,0,0,0
2,29999,76,20000,2,10000,40,9999,0.100000,0,0,0.000000,5,0.000000,0.000000,0.618045,0,0,0,0,0,0,0
2,29999,77,20000,91,0,49,9999,0.100000,0,0,0.000000,5,2.000000,0.000000,3.938209,0,0,0,0,0,0,0
2,29999,78,20000,2,10000,40,9999,0.100000,0,0,0.000000,5,0.000000,0.000000,1.451804,0,0,0,0,0,0,0
2,29999,79,20000,13,10000,9,9999,0.100000,0,0,34.210526,5,4.000000,0.000000,8.169764,0,0,0,1,0,0,0
2,29999,80,20000,2,10000,49,9999,0.100000,0,0,0.000000,5,1.000000,0.000000,8.676797,0,0,0,0,0,0,0
2,29999,81,20000,91,0,40,9999,0.100000,0,0,0.000000,5,0.000000,0.000000,5.383194,0,0,0,0,0,0,0
2,29999,82,20000,2,10000,40,9999,0.100000,0,0,0.000000,5,0.000000,0.000000,2.911711,0,0,0,0,0,0,0
2,29999,83,20000,22,0,49,9999,0.100000,0,0,0.000000,5,2.000000,0.000000,8.274468,0,0,0,0,0,0,0
2,29999,84,20000,13,10000,40,9999,0.100000,0,0,0.000000,5,0.000000,0.000000,0.261519,0,0,0,0,0,0,0
2,29999,85,20000,22,0,40,9999,0.100000,0,0,0.000000,5,0.000000,0.000000,1.197653,0,0,0,0,0,0,0
2,29999,86,20000,91,0,49,9999,0.100000,0,0,0.000000,5,2.000000,0.000000,6.639795,0,0,0,0,0,0,0
2,29999,87,20000,2,10000,49,9999,0.100000,0,0,0.000000,5,3.000000,0.000000,14.585820,0,0,0,0,0,0,0
2,29999,88,20000,33,0,40,9999,0.100000,0,0,0.000000,5,0.000000,0.000000,0.263249,0,0,0,0,0,0,0
2,29999,89,20000,2,10000,40,9999,0.100000,0,0,0.000000,5,0.000000,0.000000,1.382691,0,0,0,0,0,0,0
2,29999,90,20000,22,0,40,9999,0.100000,0,0,0.000000,5,0.000000,0.000000,0.512608,0,0,0,0,0,0,0
2,29999,91,20000,13,10000,40,9999,0.100000,0,0,0.000000,5,0.000000,0.000000,0.940978,0,0,0,0,0,0,0
2,29999,92,20000,13,10000,49,9999,0.100000,0,0,0.000000,5,12.000000,0.000000,32.563505,0,0,0,0,0,0,0
2,29999,93,20000,33,0,40,9999,0.100000,0,0,0.000000,5,0.000000,0.000000,0.477644,0,0,0,0,0,0,0
2,29999,94,20000,33,0,40,9999,0.100000,0,0,0.000000,5,0.000000,0.000000,1.386717,0,0,0,0,0,0,0
2,29999,95,20000,33,0,40,9999,0.100000,0,0,0.000000,5,0.000000,0.000000,0.176691,0,0,0,0,0,0,0
2,29999,96,20000,2,10000,40,9999,0.100000,0,0,0.000000,5,0.000000,0.000000,2.070972,0,0,0,0,0,0,0
2,29999,97,20000,22,0,40,9999,0.100000,0,0,0.000000,5,0.000000,0.000000,0.089451,0,0,0,0,0,0,0
2,29999,98,20000,13,10000,40,9999,0.100000,0,0,0.000000,5,0.000000,0.000000,0.644928,0,0,0,0,0,0,0
2,29999,99,20000,2,10000,40,9999,0.100000,0,0,0.000000,5,0.000000,0.000000,0.650780,0,0,0,0,0,0,0
3,39999,0,30000,91,0,49,9999,0.100000,0,0,0.000000,5,1.000000,0.000000,3.191913,0,0,0,0,0,0,0
3,39999,1,30000,2,10000,40,9999,0.100000,0,0,0.000000,5,0.000000,0.000000,0.197726,0,0,0,0,0,0,0
3,39999,2,30000,2,10000,40,9999,0.100000,0,0,0.000000,5,0.000000,0.000000,0.933160,0,0,0,0,0,0,0
3,39999,3,30000,91,0,40,9999,0.100000,0,0,0.000000,5,0.000000,0.000000,0.999634,0,0,0,0,0,0,0
3,39999,4,30000,33,0,49,9999,0.100000,0,0,0.000000,5,1.000000,0.000000,5.087939,0,0,0,0,0,0,0
3,39999,5,30000,52,10000,40,9999,0.100000,0,0,0.000000,5,0.000000,0.000000,4.129480,0,0,0,0,0,0,0
3,39999,6,30000,22,0,40,9999,0.100000,0,0,0.000000,5,0.000000,0.000000,0.434108,0,0,0,0,0,0,0
3,39999,7,30000,2,10000,49,9999,0.100000,0,0,0.000000,5,2.000000,0.000000,4.996403,0,0,0,0,0,0,0
3,39999,8,30000,52,10000,40,9999,0.100000,0,0,0.000000,5,0.000000,0.000000,5.902320,0,0,0,0,0,0,0
3,39999,9,30000,22,0,40,9999,0.065000,0,0,0.000000,5,0.000000,0.000000,0.464948,0,0,0,0,0,0,0
3,39999,10,30000,91,0,40,9999,0.100000,0,0,0.000000,5,0.000000,0.000000,2.578777,0,0,0,0,0,0,0
3,39999,11,30000,22,0,49,9999,0.100000,0,0,0.000000,5,1.000000,0.000000,6.333130,0,0,0,0,0,0,0
3,39999,12,30000,22,0,40,9999,0.100000,0,0,0.000000,5,0.000000,0.000000,0.436215,0,0,0,0,0,0,0
3,39999,13,30000,22,0,40,9999,0.100000,0,0,0.000000,5,0.000000,0.000000,0.855136,0,0,0,0,0,0,0
3,39999,14,30000,2,10000,49,9999,0.100000,0,0,0.000000,5,1.000000,0.000000,4.590835,0,0,0,0,0,0,0
3,39999,15,30000,33,0,49,9999,0.100000,0,0,0.000000,5,1.000000,0.000000,2.609646,0,0,0,0,0,0,0
3,39999,16,30000,52,10000,40,9999,0.100000,0,0,0.000000,5,0.000000,0.000000,0.101875,0,0,0,0,0,0,0
3,39999,17,30000,2,10000,49,9999,0.100000,0,0,0.000000,5,1.000000,0.000000,9.750138,0,0,0,0,0,0,0
3,39999,18,30000,33,0,49,9999,0.100000,0,0,0.000000,5,2.000000,0.000000,6.645903,0,0,0,0,0,0,0
3,39999,19,30000,2,10000,40,9999,0.100000,0,0,0.000000,5,0.000000,0.000000,4.197715,0,0,0,0,0,0,0
3,39999,20,30000,33,0,40,9999,0.100000,0,0,0.000000,5,0.000000,0.000000,0.850136,0,0,0,0,0,0,0
3,39999,21,30000,52,10000,40,9999,0.100000,0,0,0.000000,5,0.000000,0.000000,0.159984,0,0,0,0,0,0,0
3,39999,22,30000,33,0,40,9999,0.100000,0,0,0.000000,5,0.000000,0.000000,0.173413,0,0,0,0,0,0,0
3,39999,23,30000,91,0,40,9999,0.100000,0,0,0.000000,5,0.000000,0.000000,0.250307,0,0,0,0,0,0,0
3,39999,24,30000,52,10000,40,9999,0.100000,0,0,0.000000,5,0.000000,0.000000,2.256578,0,0,0,0,0,0,0
3,39999,25,30000,91,0,40,9999,0.100000,0,0,0.000000,5,0.000000,0.000000,0.368000,0,0,0,0,0,0,0
3,39999,26,30000,52,10000,40,9999,0.100000,0,0,0.000000,5,0.000000,0.000000,1.798225,0,0,0,0,0,0,0
3,39999,27,30000,33,0,49,9999,0.100000,0,0,0.000000,5,4.000000,0.000000,4.429482,0,0,0,0,0,0,0
3,39999,28,30000,33,0,49,9999,0.100000,0,0,0.000000,5,2.000000,0.000000,3.670427,0,0,0,0,0,0,0
3,39999,29,30000,22,0,40,9999,0.100000,0,0,0.000000,5,0.000000,0.000000,0.103569,0,0,0,0,0,0,0
3,39999,30,30000,33,0,40,9999,0.100000,0,0,0.000000,5,0.000000,0.000000,0.110936,0,0,0,0,0,0,0
3,39999,31,30000,91,0,40,9999,0.100000,0,0,0.000000,5,0.000000,0.000000,0.446336,0,0,0,0,0,0,0
3,39999,32,30000,22,0,49,9999,0.100000,0,0,0.000000,5,2.000000,0.000000,9.358605,0,0,0,0,0,0,0
3,39999,33,30000,33,0,40,9999,0.100000,0,0,0.000000,5,0.000000,0.000000,0.897156,0,0,0,0,0,0,0
3,39999,34,30000,33,0,49,9999,0.100000,0,0,0.000000,5,1.000000,0.000000,5.297742,0,0,0,0,0,0,0
3,39999,35,30000,2,10000,40,9999,0.100000,0,0,0.000000,5,0.000000,0.000000,0.847035,0,0,0,0,0,0,0
3,39999,36,30000,33,0,49,9999,0.100000,0,0,0.000000,5,3.000000,0.000000,8.411002,0,0,0,0,0,0,0
3,39999,37,30000,52,10000,40,9999,0.100000,0,0,0.000000,5,0.000000,0.000000,0.455593,0,0,0,0,0,0,0
3,39999,38,30000,2,10000,40,9999,0.100000,0,0,0.000000,5,0.000000,0.000000,3.275493,0,0,0,0,0,0,0
3,39999,39,30000,33,0,40,9999,0.100000,0,0,0.000000,5,0.000000,0.000000,0.331620,0,0,0,0,0,0,0
3,39999,40,30000,2,10000,40,9999,0.100000,0,0,0.000000,5,0.000000,0.000000,1.563944,0,0,0,0,0,0,0
3,39999,41,30000,2,10000,40,9999,0.100000,0,0,0.000000,5,0.000000,0.000000,1.205273,0,0,0,0,0,0,0
3,39999,42,30000,91,0,49,9999,0.100000,0,0,0.000000,5,2.000000,0.000000,4.599639,0,0,0,0,0,0,0
3,39999,43,30000,91,0,40,9999,0.100000,0,0,0.000000,5,0.000000,0.000000,0.732674,0,0,0,0,0,0,0
3,39999,44,30000,91,0,40,9999,0.100000,0,0,0.000000,5,0.000000,0.000000,0.105513,0,0,0,0,0,0,0
3,39999,45,30000,22,0,40,9999,0.100000,0,0,0.000000,5,0.000000,0.000000,0.186905,0,0,0,0,0,0,0
3,39999,46,30000,33,0,40,9999,0.100000,0,0,0.000000,5,0.000000,0.000000,0.635404,0,0,0,0,0,0,0
3,39999,47,30000,33,0,40,9999,0.100000,0,0,0.000000,5,0.000000,0.000000,0.507832,0,0,0,0,0,0,0
3,39999,48,30000,22,0,49,9999,0.100000,0,0,0.000000,5,2.000000,0.000000,8.629451,0,0,0,0,0,0,0
3,39999,49,30000,2,10000,40,9999,0.100000,0,0,0.000000,5,0.000000,0.000000,4.427588,0,0,0,0,0,0,0
3,39999,50,30000,33,0,40,9999,0.100000,0,0,0.000000,5,0.000000,0.000000,0.447151,0,0,0,0,0,0,0
3,39999,51,30000,2,10000,49,9999,0.100000,0,0,0.000000,5,2.000000,0.000000,5.553098,0,0,0,0,0,0,0
3,39999,52,30000,22,0,40,9999,0.100000,0,0,0.000000,5,0.000000,0.000000,0.508328,0,0,0,0,0,0,0
3,39999,53,30000,2,10000,49,9999,0.100000,0,0,0.000000,5,1.000000,0.000000,3.308929,0,0,0,0,0,0,0
3,39999,54,30000,91,0,40,9999,0.100000,0,0,0.000000,5,0.000000,0.000000,1.182420,0,0,0,0,0,0,0
3,39999,55,30000,52,10000,40,9999,0.100000,0,0,0.000000,5,0.000000,0.000000,2.391505,0,0,0,0,0,0,0
3,39999,56,30000,2,10000,40,9999,0.100000,0,0,0.000000,5,0.000000,0.000000,4.171969,0,0,0,0,0,0,0
3,39999,57,30000,2,10000,40,9999,0.100000,0,0,0.000000,5,0.000000,0.000000,0.411795,0,0,0,0,0,0,0
3,39999,58,30000,33,0,40,9999,0.100000,0,0,0.000000,5,0.000000,0.000000,2.661022,0,0,0,0,0,0,0
3,39999,59,30000,2,10000,49,9999,0.100000,0,0,0.000000,5,1.000000,0.000000,1.651893,0,0,0,0,0,0,0
3,39999,60,30000,91,0,40,9999,0.100000,0,0,0.000000,5,0.000000,0.000000,0.799273,0,0,0,0,0,0,0
3,39999,61,30000,52,10000,40,9999,0.100000,0,0,0.000000,5,0.000000,0.000000,0.760639,0,0,0,0,0,0,0
3,39999,62,30000,91,0,40,9999,0.100000,0,0,0.000000,5,0.000000,0.000000,0.823565,0,0,0,0,0,0,0
3,39999,63,30000,52,10000,40,9999,0.100000,0,0,0.000000,5,0.000000,0.000000,0.436085,0,0,0,0,0,0,0
3,39999,64,30000,33,0,40,9999,0.100000,0,0,0.000000,5,0.000000,0.000000,0.632479,0,0,0,0,0,0,0
3,39999,65,30000,22,0,99,9999,0.100000,0,0,34.210526,5,2.000000,0.000000,11.145400,0,0,1,0,0,0,0
3,39999,66,30000,22,0,49,9999,0.100000,0,0,0.000000,5,1.000000,0.000000,2.745486,0,0,0,0,0,0,0
3,39999,67,30000,33,0,40,9999,0.100000,0,0,0.000000,5,0.000000,0.000000,0.571449,0,0,0,0,0,0,0
3,39999,68,30000,52,10000,49,9999,0.100000,0,0,0.000000,5,1.000000,0.000000,10.307244,0,0,0,0,0,0,0
3,39999,69,30000,91,0,40,9999,0.100000,0,0,0.000000,5,0.000000,0.000000,0.152095,0,0,0,0,0,0,0
3,39999,70,30000,22,0,40,9999,0.100000,0,0,0.000000,5,0.000000,0.000000,0.388963,0,0,0,0,0,0,0
3,39999,71,30000,33,0,9,9999,0.100000,0,0,0.000000,5,1.000000,0.000000,5.455743,0,0,0,3,0,0,0
3,39999,72,30000,52,10000,49,9999,0.100000,0,0,0.000000,5,2.000000,0.000000,3.221046,0,0,0,0,0,0,0
3,39999,73,30000,33,0,40,9999,0.100000,0,0,0.000000,5,0.000000,0.000000,2.268118,0,0,0,0,0,0,0
3,39999,74,30000,22,0,40,9999,0.100000,0,0,0.000000,5,0.000000,0.000000,0.707457,0,0,0,0,0,0,0
3,39999,75,30000,33,0,40,9999,0.100000,0,0,0.000000,5,0.000000,0.000000,0.171018,0,0,0,0,0,0,0
3,39999,76,30000,91,0,40,9999,0.100000,0,0,0.000000,5,0.000000,0.000000,0.447184,0,0,0,0,0,0,0
3,39999,77,30000,52,10000,40,9999,0.100000,0,0,0.000000,5,0.000000,0.000000,0.308881,0,0,0,0,0,0,0
3,39999,78,30000,33,0,40,9999,0.100000,0,0,0.000000,5,0.000000,0.000000,1.164813,0,0,0,0,0,0,0
3,39999,79,30000,2,10000,40,9999,0.100000,0,0,0.000000,5,0.000000,0.000000,3.587958,0,0,0,0,0,0,0
3,39999,80,20000,2,10000,40,19999,0.100000,0,0,0.000000,5,0.000000,0.000000,0.260616,0,0,0,0,0,0,0
3,39999,81,30000,2,10000,40,9999,0.100000,0,0,0.000000,5,0.000000,0.000000,4.549579,0,0,0,0,0,0,0
3,39999,82,30000,22,0,40,9999,0.100000,0,0,0.000000,5,0.000000,0.000000,0.438368,0,0,0,0,0,0,0
3,39999,83,30000,22,0,49,9999,0.100000,0,0,0.000000,5,1.000000,0.000000,7.417487,0,0,0,0,0,0,0
3,39999,84,30000,91,0,40,9999,0.100000,0,0,0.000000,5,0.000000,0.000000,0.360511,0,0,0,0,0,0,0
3,39999,85,30000,52,10000,40,9999,0.100000,0,0,0.000000,5,0.000000,0.000000,0.296645,0,0,0,0,0,0,0
3,39999,86,30000,33,0,49,9999,0.100000,0,0,0.000000,5,3.000000,0.000000,7.841335,0,0,0,0,0,0,0
3,39999,87,30000,52,10000,49,9999,0.100000,0,0,0.000000,5,2.000000,0.000000,24.670627,0,0,0,0,0,0,0
3,39999,88,30000,91,0,49,9999,0.100000,0,0,0.000000,5,4.000000,0.000000,5.381487,0,0,0,0,0,0,0
3,39999,89,20000,2,10000,40,19999,0.100000,0,0,0.000000,5,0.000000,0.000000,1.625169,0,0,0,0,0,0,0
3,39999,90,30000,33,0,40,9999,0.100000,0,0,0.000000,5,0.000000,0.000000,0.365031,0,0,0,0,0,0,0
3,39999,91,30000,33,0,40,9999,0.100000,0,0,0.000000,5,0.000000,0.000000,1.613200,0,0,0,0,0,0,0
3,39999,92,30000,91,0,40,9999,0.100000,0,0,0.000000,5,0.000000,0.000000,4.305453,0,0,0,0,0,0,0
3,39999,93,30000,2,10000,40,9999,0.100000,0,0,0.000000,5,0.000000,0.000000,0.095249,0,0,0,0,0,0,0
3,39999,94,30000,22,0,40,9999,0.100000,0,0,0.000000,5,0.000000,0.000000,0.317103,0,0,0,0,0,0,0
3,39999,95,30000,2,10000,40,9999,0.100000,0,0,0.000000,5,0.000000,0.000000,0.118397,0,0,0,0,0,0,0
3,39999,96,30000,22,0,40,9999,0.100000,0,0,0.000000,5,0.000000,0.000000,1.028812,0,0,0,0,0,0,0
3,39999,97,30000,22,0,40,9999,0.100000,0,0,0.000000,5,0.000000,0.000000,0.087766,0,0,0,0,0,0,0
3,39999,98,30000,91,0,9,9999,0.100000,0,0,0.000000,5,1.000000,0.000000,3.506511,0,0,0,3,0,0,0
3,39999,99,30000,33,0,40,9999,0.100000,0,0,0.000000,5,0.000000,0.000000,0.469147,0,0,0,0,0,0,0
4,49999,0,40000,52,10000,40,9999,0.100000,0,0,0.000000,5,0.000000,0.000000,0.679170,0,0,0,0,0,0,0
4,49999,1,40000,33,0,40,9999,0.100000,0,0,0.000000,5,0.000000,0.000000,0.197754,0,0,0,0,0,0,0
4,49999,2,40000,22,0,40,9999,0.100000,0,0,0.000000,5,0.000000,0.000000,0.555273,0,0,0,0,0,0,0
4,49999,3,40000,2,10000,40,9999,0.100000,0,0,0.000000,5,0.000000,0.000000,1.041776,0,0,0,0,0,0,0
4,49999,4,40000,91,0,49,9999,0.100000,0,0,0.000000,5,1.000000,0.000000,3.970833,0,0,0,0,0,0,0
4,49999,5,40000,91,0,40,9999,0.100000,0,0,0.000000,5,0.000000,0.000000,5.344084,0,0,0,0,0,0,0
4,49999,6,40000,33,0,40,9999,0.100000,0,0,0.000000,5,0.000000,0.000000,0.203406,0,0,0,0,0,0,0
4,49999,7,40000,2,10000,9,9999,0.100000,0,0,34.210526,5,3.000000,0.000000,7.185641,0,0,0,1,0,0,0
4,49999,8,40000,33,0,49,9999,0.100000,0,0,0.000000,5,3.000000,0.000000,9.449650,0,0,0,0,0,0,0
4,49999,9,40000,2,10000,40,9999,0.100000,0,0,0.000000,5,0.000000,0.000000,0.927972,0,0,0,0,0,0,0
4,49999,10,30000,91,0,40,19999,0.100000,0,0,0.000000,5,0.000000,0.000000,2.412689,0,0,0,0,0,0,0
4,49999,11,40000,91,0,49,9999,0.100000,0,0,0.000000,5,2.000000,0.000000,7.222309,0,0,0,0,0,0,0
4,49999,12,40000,52,10000,40,9999,0.100000,0,0,0.000000,5,0.000000,0.000000,0.433616,0,0,0,0,0,0,0
4,49999,13,40000,91,0,40,9999,0.100000,0,0,0.000000,5,0.000000,0.000000,2.278219,0,0,0,0,0,0,0
4,49999,14,40000,91,0,40,9999,0.100000,0,0,0.000000,5,0.000000,0.000000,2.208702,0,0,0,0,0,0,0
4,49999,15,40000,52,10000,40,9999,0.100000,0,0,0.000000,5,0.000000,0.000000,0.540792,0,0,0,0,0,0,0
4,49999,16,40000,33,0,40,9999,0.100000,0,0,0.000000,5,0.000000,0.000000,0.541530,0,0,0,0,0,0,0
4,49999,17,40000,33,0,49,9999,0.100000,0,0,0.000000,5,3.000000,0.000000,8.009742,0,0,0,0,0,0,0
4,49999,18,40000,91,0,49,9999,0.100000,0,0,0.000000,5,1.000000,0.000000,6.640688,0,0,0,0,0,0,0
4,49999,19,40000,2,10000,49,9999,0.100000,0,0,0.000000,5,1.000000,0.000000,4.745151,0,0,0,0,0,0,0
4,49999,20,40000,33,0,40,9999,0.100000,0,0,0.000000,5,0.000000,0.000000,0.655163,0,0,0,0,0,0,0
4,49999,21,40000,2,10000,40,9999,0.100000,0,0,0.000000,5,0.000000,0.000000,0.251094,0,0,0,0,0,0,0
4,49999,22,40000,52,10000,49,9999,0.100000,0,0,0.000000,5,1.000000,0.000000,7.929508,0,0,0,0,0,0,0
4,49999,23,40000,91,0,40,9999,0.100000,0,0,0.000000,5,0.000000,0.000000,0.716139,0,0,0,0,0,0,0
4,49999,24,40000,22,0,40,9999,0.100000,0,0,0.000000,5,0.000000,0.000000,1.933128,0,0,0,0,0,0,0
4,49999,25,40000,91,0,40,9999,0.100000,0,0,0.000000,5,0.000000,0.000000,0.485321,0,0,0,0,0,0,0
4,49999,26,40000,52,10000,40,9999,0.100000,0,0,0.000000,5,0.000000,0.000000,1.356032,0,0,0,0,0,0,0
4,49999,27,40000,33,0,49,9999,0.100000,0,0,0.000000,5,1.000000,0.000000,5.857078,0,0,0,0,0,0,0
4,49999,28,40000,52,10000,49,9999,0.100000,0,0,0.000000,5,1.000000,0.000000,5.458842,0,0,0,0,0,0,0
4,49999,29,40000,33,0,40,9999,0.100000,0,0,0.000000,5,0.000000,0.000000,0.166259,0,0,0,0,0,0,0
4,49999,30,40000,52,10000,40,9999,0.100000,0,0,0.000000,5,0.000000,0.000000,0.093039,0,0,0,0,0,0,0
4,49999,31,40000,52,10000,40,9999,0.100000,0,0,0.000000,5,0.000000,0.000000,0.443299,0,0,0,0,0,0,0
4,49999,32,40000,33,0,49,9999,0.100000,0,0,0.000000,5,2.000000,0.000000,6.974933,0,0,0,0,0,0,0
4,49999,33,40000,33,0,40,9999,0.100000,0,0,0.000000,5,0.000000,0.000000,1.098744,0,0,0,0,0,0,0
4,49999,34,40000,52,10000,40,9999,0.100000,0,0,0.000000,5,0.000000,0.000000,0.748294,0,0,0,0,0,0,0
4,49999,35,40000,33,0,40,9999,0.100000,0,0,0.000000,5,0.000000,0.000000,0.874861,0,0,0,0,0,0,0
4,49999,36,40000,22,0,49,9999,0.100000,0,0,0.000000,5,2.000000,0.000000,5.384245,0,0,0,0,0,0,0
4,49999,37,40000,22,0,40,9999,0.100000,0,0,0.000000,5,0.000000,0.000000,0.534515,0,0,0,0,0,0,0
4,49999,38,40000,22,0,40,9999,0.100000,0,0,0.000000,5,0.000000,0.000000,7.464807,0,0,0,0,0,0,0
4,49999,39,40000,33,0,40,9999,0.100000,0,0,0.000000,5,0.000000,0.000000,0.158806,0,0,0,0,0,0,0
4,49999,40,40000,2,10000,40,9999,0.100000,0,0,0.000000,5,0.000000,0.000000,0.491886,0,0,0,0,0,0,0
4,49999,41,40000,22,0,40,9999,0.100000,0,0,0.000000,5,0.000000,0.000000,0.145386,0,0,0,0,0,0,0
4,49999,42,40000,33,0,40,9999,0.100000,0,0,0.000000,5,0.000000,0.000000,0.662187,0,0,0,0,0,0,0
4,49999,43,40000,52,10000,40,9999,0.100000,0,0,0.000000,5,0.000000,0.000000,0.720560,0,0,0,0,0,0,0
4,49999,44,40000,52,10000,40,9999,0.100000,0,0,0.000000,5,0.000000,0.000000,0.099834,0,0,0,0,0,0,0
4,49999,45,40000,33,0,40,9999,0.100000,0,0,0.000000,5,0.000000,0.000000,0.590300,0,0,0,0,0,0,0
4,49999,46,40000,91,0,9,9999,0.100000,0,0,34.210526,5,3.000000,0.000000,7.566272,0,0,0,1,0,0,0
4,49999,47,40000,52,10000,40,9999,0.100000,0,0,0.000000,5,0.000000,0.000000,0.504982,0,0,0,0,0,0,0
4,49999,48,40000,52,10000,40,9999,0.100000,0,0,0.000000,5,0.000000,0.000000,0.669939,0,0,0,0,0,0,0
4,49999,49,40000,91,0,40,9999,0.100000,0,0,0.000000,5,0.000000,0.000000,2.528975,0,0,0,0,0,0,0
4,49999,50,40000,22,0,40,9999,0.100000,0,0,0.000000,5,0.000000,0.000000,0.562716,0,0,0,0,0,0,0
4,49999,51,40000,52,10000,49,9999,0.100000,0,0,0.000000,5,3.000000,0.000000,6.612950,0,0,0,0,0,0,0
4,49999,52,40000,52,10000,49,9999,0.100000,0,0,0.000000,5,1.000000,0.000000,1.733024,0,0,0,0,0,0,0
4,49999,53,40000,33,0,40,9999,0.100000,0,0,0.000000,5,0.000000,0.000000,1.158758,0,0,0,0,0,0,0
4,49999,54,40000,33,0,40,9999,0.100000,0,0,0.000000,5,0.000000,0.000000,0.757905,0,0,0,0,0,0,0
4,49999,55,40000,2,10000,40,9999,0.100000,0,0,0.000000,5,0.000000,0.000000,0.129266,0,0,0,0,0,0,0
4,49999,56,40000,91,0,49,9999,0.100000,0,0,0.000000,5,1.000000,0.000000,5.307224,0,0,0,0,0,0,0
4,49999,57,40000,22,0,40,9999,0.100000,0,0,0.000000,5,0.000000,0.000000,0.091833,0,0,0,0,0,0,0
4,49999,58,40000,33,0,49,9999,0.100000,0,0,0.000000,5,1.000000,0.000000,4.673651,0,0,0,0,0,0,0
4,49999,59,40000,91,0,40,9999,0.100000,0,0,0.000000,5,0.000000,0.000000,0.505959,0,0,0,0,0,0,0
4,49999,60,40000,33,0,40,9999,0.100000,0,0,0.000000,5,0.000000,0.000000,0.252946,0,0,0,0,0,0,0
4,49999,61,40000,22,0,40,9999,0.100000,0,0,0.000000,5,0.000000,0.000000,0.388531,0,0,0,0,0,0,0
4,49999,62,40000,52,10000,40,9999,0.100000,0,0,0.000000,5,0.000000,0.000000,0.763244,0,0,0,0,0,0,0
4,49999,63,40000,52,10000,40,9999,0.100000,0,0,0.000000,5,0.000000,0.000000,0.598969,0,0,0,0,0,0,0
4,49999,64,40000,22,0,40,9999,0.100000,0,0,0.000000,5,0.000000,0.000000,0.639637,0,0,0,0,0,0,0
4,49999,65,40000,33,0,9,9999,0.100000,0,0,0.000000,5,2.000000,0.000000,3.831817,0,0,0,1,0,0,0
4,49999,66,40000,22,0,40,9999,0.100000,0,0,0.000000,5,0.000000,0.000000,1.241556,0,0,0,0,0,0,0
4,49999,67,40000,2,10000,40,9999,0.100000,0,0,0.000000,5,0.000000,0.000000,0.330680,0,0,0,0,0,0,0
4,49999,68,40000,2,10000,49,9999,0.100000,0,0,0.000000,5,1.000000,0.000000,3.674174,0,0,0,0,0,0,0
4,49999,69,40000,33,0,40,9999,0.100000,0,0,0.000000,5,0.000000,0.000000,0.102275,0,0,0,0,0,0,0
4,49999,70,40000,2,10000,40,9999,0.100000,0,0,0.000000,5,0.000000,0.000000,0.391585,0,0,0,0,0,0,0
4,49999,71,40000,22,0,49,9999,0.100000,0,0,0.000000,5,1.000000,0.000000,8.067649,0,0,0,0,0,0,0
4,49999,72,40000,2,10000,49,9999,0.100000,0,0,0.000000,5,5.000000,0.000000,8.272090,0,0,0,0,0,0,0
4,49999,73,40000,52,10000,49,9999,0.100000,0,0,0.000000,5,4.000000,0.000000,12.602851,0,0,0,0,0,0,0
4,49999,74,40000,33,0,40,9999,0.100000,0,0,0.000000,5,0.000000,0.000000,0.390614,0,0,0,0,0,0,0
4,49999,75,40000,2,10000,40,9999,0.100000,0,0,0.000000,5,0.000000,0.000000,0.118598,0,0,0,0,0,0,0
4,49999,76,40000,52,10000,40,9999,0.100000,0,0,0.000000,5,0.000000,0.000000,0.432432,0,0,0,0,0,0,0
4,49999,77,40000,33,0,40,9999,0.100000,0,0,0.000000,5,0.000000,0.000000,0.508591,0,0,0,0,0,0,0
4,49999,78,40000,91,0,40,9999,0.100000,0,0,0.000000,5,0.000000,0.000000,1.154872,0,0,0,0,0,0,0
4,49999,79,40000,52,10000,49,9999,0.100000,0,0,0.000000,5,2.000000,0.000000,6.255405,0,0,0,0,0,0,0
4,49999,80,40000,91,0,49,9999,0.100000,0,0,0.000000,5,2.000000,0.000000,2.653037,0,0,0,0,0,0,0
4,49999,81,40000,22,0,40,9999,0.100000,0,0,0.000000,5,0.000000,0.000000,1.198390,0,0,0,0,0,0,0
4,49999,82,40000,33,0,40,9999,0.100000,0,0,0.000000,5,0.000000,0.000000,0.242173,0,0,0,0,0,0,0
4,49999,83,40000,22,0,49,9999,0.100000,0,0,0.000000,5,2.000000,0.000000,10.877754,0,0,0,0,0,0,0
4,49999,84,40000,33,0,40,9999,0.100000,0,0,0.000000,5,0.000000,0.000000,0.453277,0,0,0,0,0,0,0
4,49999,85,40000,2,10000,40,9999,0.100000,0,0,0.000000,5,0.000000,0.000000,0.377215,0,0,0,0,0,0,0
4,49999,86,40000,22,0,49,9999,0.100000,0,0,0.000000,5,3.000000,0.000000,8.043249,0,0,0,0,0,0,0
4,49999,87,40000,2,10000,40,9999,0.100000,0,0,0.000000,5,0.000000,0.000000,25.711746,0,0,0,0,0,0,0
4,49999,88,40000,2,10000,49,9999,0.100000,0,0,0.000000,5,1.000000,0.000000,1.517052,0,0,0,0,0,0,0
4,49999,89,40000,52,10000,40,9999,0.100000,0,0,0.000000,5,0.000000,0.000000,3.116428,0,0,0,0,0,0,0
4,49999,90,40000,33,0,40,9999,0.100000,0,0,0.000000,5,0.000000,0.000000,0.548436,0,0,0,0,0,0,0
4,49999,91,40000,91,0,40,9999,0.100000,0,0,0.000000,5,0.000000,0.000000,1.497426,0,0,0,0,0,0,0
4,49999,92,40000,52,10000,49,9999,0.100000,0,0,0.000000,5,1.000000,0.000000,15.822334,0,0,0,0,0,0,0
4,49999,93,40000,22,0,40,9999,0.100000,0,0,0.000000,5,0.000000,0.000000,0.083173,0,0,0,0,0,0,0
4,49999,94,40000,52,10000,40,9999,0.100000,0,0,0.000000,5,0.000000,0.000000,0.351360,0,0,0,0,0,0,0
4,49999,95,40000,22,0,40,9999,0.100000,0,0,0.000000,5,0.000000,0.000000,0.187620,0,0,0,0,0,0,0
4,49999,96,40000,22,0,40,9999,0.065000,0,0,0.000000,5,0.000000,0.000000,0.705293,0,0,0,0,0,0,0
4,49999,97,40000,52,10000,40,9999,0.100000,0,0,0.000000,5,0.000000,0.000000,0.229927,0,0,0,0,0,0,0
4,49999,98,40000,2,10000,49,9999,0.100000,0,0,0.000000,5,2.000000,0.000000,18.564064,0,0,0,0,0,0,0
4,49999,99,40000,33,0,40,9999,0.100000,0,0,0.000000,5,0.000000,0.000000,0.450386,0,0,0,0,0,0,0
5,59999,0,50000,22,0,40,9999,0.100000,0,0,0.000000,5,0.000000,0.000000,2.514369,0,0,0,0,0,0,0
5,59999,1,50000,91,0,40,9999,0.100000,0,0,0.000000,5,0.000000,0.000000,0.203161,0,0,0,0,0,0,0
5,59999,2,50000,22,0,40,9999,0.100000,0,0,0.000000,5,0.000000,0.000000,0.158989,0,0,0,0,0,0,0
5,59999,3,50000,2,10000,40,9999,0.100000,0,0,0.000000,5,0.000000,0.000000,0.927303,0,0,0,0,0,0,0
5,59999,4,50000,33,0,40,9999,0.100000,0,0,0.000000,5,0.000000,0.000000,0.307430,0,0,0,0,0,0,0
5,59999,5,50000,22,0,49,9999,0.100000,0,0,0.000000,5,2.000000,0.000000,7.313854,0,0,0,0,0,0,0
5,59999,6,50000,91,0,40,9999,0.100000,0,0,0.000000,5,0.000000,0.000000,0.140192,0,0,0,0,0,0,0
5,59999,7,50000,91,0,49,9999,0.100000,0,0,0.000000,5,4.000000,0.000000,4.981805,0,0,0,0,0,0,0
5,59999,8,50000,2,10000,49,9999,0.100000,0,0,0.000000,5,1.000000,0.000000,3.438762,0,0,0,0,0,0,0
5,59999,9,50000,2,10000,40,9999,0.100000,0,0,0.000000,5,0.000000,0.000000,0.557506,0,0,0,0,0,0,0
5,59999,10,50000,33,0,40,9999,0.100000,0,0,0.000000,5,0.000000,0.000000,0.215991,0,0,0,0,0,0,0
5,59999,11,50000,52,10000,49,9999,0.100000,0,0,0.000000,5,2.000000,0.000000,6.944064,0,0,0,0,0,0,0
5,59999,12,50000,33,0,40,9999,0.100000,0,0,0.000000,5,0.000000,0.000000,0.314447,0,0,0,0,0,0,0
5,59999,13,50000,22,0,49,9999,0.100000,0,0,0.000000,5,1.000000,0.000000,6.378019,0,0,0,0,0,0,0
5,59999,14,50000,2,10000,40,9999,0.100000,0,0,0.000000,5,0.000000,0.000000,0.455929,0,0,0,0,0,0,0
5,59999,15,50000,91,0,40,9999,0.100000,0,0,0.000000,5,0.000000,0.000000,0.553583,0,0,0,0,0,0,0
5,59999,16,50000,33,0,40,9999,0.100000,0,0,0.000000,5,0.000000,0.000000,0.908802,0,0,0,0,0,0,0
5,59999,17,50000,91,0,40,9999,0.100000,0,0,0.000000,5,0.000000,0.000000,23.508889,0,0,0,0,0,0,0
5,59999,18,50000,33,0,49,9999,0.100000,0,0,0.000000,5,4.000000,0.000000,6.408220,0,0,0,0,0,0,0
5,59999,19,50000,22,0,40,9999,0.100000,0,0,0.000000,5,0.000000,0.000000,0.672751,0,0,0,0,0,0,0
5,59999,20,50000,91,0,40,9999,0.100000,0,0,0.000000,5,0.000000,0.000000,0.652593,0,0,0,0,0,0,0
5,59999,21,50000,52,10000,40,9999,0.100000,0,0,0.000000,5,0.000000,0.000000,0.152175,0,0,0,0,0,0,0
5,59999,22,50000,22,0,49,9999,0.100000,0,0,0.000000,5,2.000000,0.000000,7.431478,0,0,0,0,0,0,0
5,59999,23,50000,2,10000,49,9999,0.100000,0,0,0.000000,5,1.000000,0.000000,1.526703,0,0,0,0,0,0,0
5,59999,24,50000,2,10000,40,9999,0.100000,0,0,0.000000,5,0.000000,0.000000,1.048970,0,0,0,0,0,0,0
5,59999,25,50000,22,0,49,9999,0.100000,0,0,0.000000,5,5.000000,0.000000,10.226406,0,0,0,0,0,0,0
5,59999,26,50000,22,0,40,9999,0.100000,0,0,0.000000,5,0.000000,0.000000,0.154552,0,0,0,0,0,0,0
5,59999,27,50000,2,10000,40,9999,0.100000,0,0,0.000000,5,0.000000,0.000000,4.147075,0,0,0,0,0,0,0
5,59999,28,50000,91,0,49,9999,0.100000,0,0,0.000000,5,6.000000,0.000000,7.831746,0,0,0,0,0,0,0
5,59999,29,50000,52,10000,40,9999,0.100000,0,0,0.000000,5,0.000000,0.000000,0.500346,0,0,0,0,0,0,0
5,59999,30,50000,33,0,40,9999,0.100000,0,0,0.000000,5,0.000000,0.000000,0.106253,0,0,0,0,0,0,0
5,59999,31,50000,22,0,49,9999,0.100000,0,0,0.000000,5,3.000000,0.000000,3.616697,0,0,0,0,0,0,0
5,59999,32,50000,91,0,49,9999,0.100000,0,0,0.000000,5,1.000000,0.000000,3.654896,0,0,0,0,0,0,0
5,59999,33,50000,22,0,40,9999,0.100000,0,0,0.000000,5,0.000000,0.000000,0.369533,0,0,0,0,0,0,0
5,59999,34,50000,33,0,40,9999,0.100000,0,0,0.000000,5,0.000000,0.000000,0.766382,0,0,0,0,0,0,0
5,59999,35,50000,2,10000,40,9999,0.100000,0,0,0.000000,5,0.000000,0.000000,1.334909,0,0,0,0,0,0,0
5,59999,36,50000,33,0,40,9999,0.100000,0,0,0.000000,5,0.000000,0.000000,0.137853,0,0,0,0,0,0,0
5,59999,37,50000,22,0,49,9999,0.100000,0,0,0.000000,5,1.000000,0.000000,1.575448,0,0,0,0,0,0,0
5,59999,38,50000,2,10000,49,9999,0.100000,0,0,0.000000,5,1.000000,0.000000,4.107986,0,0,0,0,0,0,0
5,59999,39,50000,33,0,40,9999,0.100000,0,0,0.000000,5,0.000000,0.000000,0.200333,0,0,0,0,0,0,0
5,59999,40,50000,2,10000,40,9999,0.100000,0,0,0.000000,5,0.000000,0.000000,0.201361,0,0,0,0,0,0,0
5,59999,41,50000,91,0,40,9999,0.100000,0,0,0.000000,5,0.000000,0.000000,0.181026,0,0,0,0,0,0,0
5,59999,42,50000,2,10000,40,9999,0.100000,0,0,0.000000,5,0.000000,0.000000,0.140700,0,0,0,0,0,0,0
5,59999,43,50000,33,0,40,9999,0.100000,0,0,0.000000,5,0.000000,0.000000,0.641834,0,0,0,0,0,0,0
5,59999,44,50000,2,10000,40,9999,0.100000,0,0,0.000000,5,0.000000,0.000000,0.099776,0,0,0,0,0,0,0
5,59999,45,50000,91,0,49,9999,0.100000,0,0,0.000000,5,1.000000,0.000000,1.642098,0,0,0,0,0,0,0
5,59999,46,50000,2,10000,40,9999,0.100000,0,0,0.000000,5,0.000000,0.000000,1.584431,0,0,0,0,0,0,0
5,59999,47,50000,2,10000,40,9999,0.100000,0,0,0.000000,5,0.000000,0.000000,0.509911,0,0,0,0,0,0,0
5,59999,48,50000,91,0,40,9999,0.100000,0,0,0.000000,5,0.000000,0.000000,1.833857,0,0,0,0,0,0,0
5,59999,49,50000,2,10000,49,9999,0.100000,0,0,0.000000,5,1.000000,0.000000,1.275775,0,0,0,0,0,0,0
5,59999,50,50000,2,10000,40,9999,0.100000,0,0,0.000000,5,0.000000,0.000000,0.368643,0,0,0,0,0,0,0
5,59999,51,50000,91,0,40,9999,0.100000,0,0,0.000000,5,0.000000,0.000000,1.059435,0,0,0,0,0,0,0
5,59999,52,50000,2,10000,49,9999,0.100000,0,0,0.000000,5,1.000000,0.000000,4.065414,0,0,0,0,0,0,0
5,59999,53,50000,2,10000,40,9999,0.135000,0,0,0.000000,5,0.000000,0.000000,0.883339,0,0,0,0,0,0,0
5,59999,54,50000,91,0,40,9999,0.100000,0,0,0.000000,5,0.000000,0.000000,1.174160,0,0,0,0,0,0,0
5,59999,55,50000,22,0,40,9999,0.100000,0,0,0.000000,5,0.000000,0.000000,0.092601,0,0,0,0,0,0,0
5,59999,56,50000,52,10000,49,9999,0.100000,0,0,0.000000,5,3.000000,0.000000,6.447164,0,0,0,0,0,0,0
5,59999,57,50000,22,0,40,9999,0.100000,0,0,0.000000,5,0.000000,0.000000,0.140556,0,0,0,0,0,0,0
5,59999,58,50000,2,10000,40,9999,0.100000,0,0,0.000000,5,0.000000,0.000000,3.760553,0,0,0,0,0,0,0
5,59999,59,50000,2,10000,40,9999,0.100000,0,0,0.000000,5,0.000000,0.000000,0.178841,0,0,0,0,0,0,0
5,59999,60,50000,33,0,40,9999,0.100000,0,0,0.000000,5,0.000000,0.000000,0.124697,0,0,0,0,0,0,0
5,59999,61,50000,91,0,40,9999,0.100000,0,0,0.000000,5,0.000000,0.000000,0.445882,0,0,0,0,0,0,0
5,59999,62,50000,52,10000,49,9999,0.100000,0,0,0.000000,5,3.000000,0.000000,3.962647,0,0,0,0,0,0,0
5,59999,63,50000,91,0,49,9999,0.100000,0,0,0.000000,5,3.000000,0.000000,3.361430,0,0,0,0,0,0,0
5,59999,64,50000,22,0,40,9999,0.100000,0,0,0.000000,5,0.000000,0.000000,0.642160,0,0,0,0,0,0,0
5,59999,65,50000,52,10000,9,9999,0.100000,0,0,34.210526,5,4.000000,0.000000,8.867375,0,0,0,1,0,0,0
5,59999,66,50000,33,0,40,9999,0.100000,0,0,0.000000,5,0.000000,0.000000,1.291346,0,0,0,0,0,0,0
5,59999,67,40000,2,10000,40,19999,0.100000,0,0,0.000000,5,0.000000,0.000000,0.354525,0,0,0,0,0,0,0
5,59999,68,50000,2,10000,49,9999,0.100000,0,0,0.000000,5,4.000000,0.000000,7.565922,0,0,0,0,0,0,0
5,59999,69,50000,52,10000,40,9999,0.100000,0,0,0.000000,5,0.000000,0.000000,0.397585,0,0,0,0,0,0,0
5,59999,70,50000,33,0,40,9999,0.100000,0,0,0.000000,5,0.000000,0.000000,0.381419,0,0,0,0,0,0,0
5,59999,71,40000,22,0,9,19999,0.100000,0,0,34.210526,5,3.000000,0.000000,10.691474,0,0,0,1,0,0,0
5,59999,72,50000,22,0,40,9999,0.100000,0,0,0.000000,5,0.000000,0.000000,0.631709,0,0,0,0,0,0,0
5,59999,73,50000,2,10000,40,9999,0.100000,0,0,0.000000,5,0.000000,0.000000,0.627115,0,0,0,0,0,0,0
5,59999,74,50000,2,10000,40,9999,0.100000,0,0,0.000000,5,0.000000,0.000000,0.884131,0,0,0,0,0,0,0
5,59999,75,50000,52,10000,40,9999,0.100000,0,0,0.000000,5,0.000000,0.000000,0.138354,0,0,0,0,0,0,0
5,59999,76,50000,33,0,40,9999,0.100000,0,0,0.000000,5,0.000000,0.000000,0.308683,0,0,0,0,0,0,0
5,59999,77,50000,22,0,40,9999,0.100000,0,0,0.000000,5,0.000000,0.000000,2.824363,0,0,0,0,0,0,0
5,59999,78,50000,52,10000,40,9999,0.100000,0,0,0.000000,5,0.000000,0.000000,1.086907,0,0,0,0,0,0,0
5,59999,79,50000,33,0,49,9999,0.100000,0,0,0.000000,5,11.000000,0.000000,14.281701,0,0,0,0,0,0,0
5,59999,80,50000,22,0,40,9999,0.100000,0,0,0.000000,5,0.000000,0.000000,0.461338,0,0,0,0,0,0,0
5,59999,81,50000,2,10000,40,9999,0.100000,0,0,0.000000,5,0.000000,0.000000,1.183875,0,0,0,0,0,0,0
5,59999,82,50000,91,0,40,9999,0.100000,0,0,0.000000,5,0.000000,0.000000,0.266102,0,0,0,0,0,0,0
5,59999,83,50000,52,10000,40,9999,0.100000,0,0,0.000000,5,0.000000,0.000000,1.125881,0,0,0,0,0,0,0
5,59999,84,50000,22,0,40,9999,0.100000,0,0,0.000000,5,0.000000,0.000000,0.079887,0,0,0,0,0,0,0
5,59999,85,50000,22,0,40,9999,0.100000,0,0,0.000000,5,0.000000,0.000000,0.286741,0,0,0,0,0,0,0
5,59999,86,50000,52,10000,49,9999,0.100000,0,0,0.000000,5,1.000000,0.000000,3.903642,0,0,0,0,0,0,0
5,59999,87,50000,33,0,40,9999,0.100000,0,0,0.000000,5,0.000000,0.000000,25.626716,0,0,0,0,0,0,0
5,59999,88,50000,33,0,40,9999,0.100000,0,0,0.000000,5,0.000000,0.000000,0.401338,0,0,0,0,0,0,0
5,59999,89,50000,22,0,40,9999,0.100000,0,0,0.000000,5,0.000000,0.000000,5.114819,0,0,0,0,0,0,0
5,59999,90,50000,22,0,49,9999,0.100000,0,0,0.000000,5,2.000000,0.000000,3.120147,0,0,0,0,0,0,0
5,59999,91,50000,33,0,40,9999,0.100000,0,0,0.000000,5,0.000000,0.000000,2.380163,0,0,0,0,0,0,0
5,59999,92,50000,52,10000,49,9999,0.100000,0,0,0.000000,5,2.000000,0.000000,9.610546,0,0,0,0,0,0,0
5,59999,93,50000,2,10000,40,9999,0.100000,0,0,0.000000,5,0.000000,0.000000,0.196051,0,0,0,0,0,0,0
5,59999,94,50000,52,10000,40,9999,0.100000,0,0,0.000000,5,0.000000,0.000000,0.704403,0,0,0,0,0,0,0
5,59999,95,50000,33,0,40,9999,0.100000,0,0,0.000000,5,0.000000,0.000000,0.218007,0,0,0,0,0,0,0
5,59999,96,50000,22,0,40,9999,0.100000,0,0,0.000000,5,0.000000,0.000000,0.218900,0,0,0,0,0,0,0
5,59999,97,50000,33,0,40,9999,0.100000,0,0,0.000000,5,0.000000,0.000000,0.222033,0,0,0,0,0,0,0
5,59999,98,50000,91,0,49,9999,0.100000,0,0,0.000000,5,1.000000,0.000000,7.052111,0,0,0,0,0,0,0
5,59999,99,50000,22,0,40,9999,0.100000,0,0,0.000000,5,0.000000,0.000000,0.331697,0,0,0,0,0,0,0
6,69999,0,60000,2,10000,40,9999,0.100000,0,0,0.000000,5,0.000000,0.000000,2.627846,0,0,0,0,0,0,0
6,69999,1,60000,22,0,40,9999,0.100000,0,0,0.000000,5,0.000000,0.000000,0.195357,0,0,0,0,0,0,0
6,69999,2,60000,91,0,40,9999,0.100000,0,0,0.000000,5,0.000000,0.000000,0.159416,0,0,0,0,0,0,0
6,69999,3,60000,2,10000,40,9999,0.100000,0,0,0.000000,5,0.000000,0.000000,0.984392,0,0,0,0,0,0,0
6,69999,4,60000,33,0,40,9999,0.100000,0,0,0.000000,5,0.000000,0.000000,0.249176,0,0,0,0,0,0,0
6,69999,5,60000,33,0,49,9999,0.100000,0,0,0.000000,5,5.000000,0.000000,7.648284,0,0,0,0,0,0,0
6,69999,6,60000,2,10000,40,9999,0.100000,0,0,0.000000,5,0.000000,0.000000,1.071728,0,0,0,0,0,0,0
6,69999,7,60000,52,10000,49,9999,0.100000,0,0,0.000000,5,2.000000,0.000000,5.696192,0,0,0,0,0,0,0
6,69999,8,50000,2,10000,49,19999,0.100000,0,0,0.000000,5,1.000000,0.000000,4.582738,0,0,0,0,0,0,0
6,69999,9,60000,2,10000,40,9999,0.100000,0,0,0.000000,5,0.000000,0.000000,2.678950,0,0,0,0,0,0,0
6,69999,10,60000,2,10000,40,9999,0.100000,0,0,0.000000,5,0.000000,0.000000,0.205481,0,0,0,0,0,0,0
6,69999,11,60000,52,10000,49,9999,0.100000,0,0,0.000000,5,1.000000,0.000000,5.575650,0,0,0,0,0,0,0
6,69999,12,60000,2,10000,40,9999,0.100000,0,0,0.000000,5,0.000000,0.000000,0.291817,0,0,0,0,0,0,0
6,69999,13,60000,33,0,40,9999,0.100000,0,0,0.000000,5,0.000000,0.000000,0.604792,0,0,0,0,0,0,0
6,69999,14,60000,33,0,40,9999,0.100000,0,0,0.000000,5,0.000000,0.000000,0.881202,0,0,0,0,0,0,0
6,69999,15,60000,91,0,40,9999,0.100000,0,0,0.000000,5,0.000000,0.000000,0.203494,0,0,0,0,0,0,0
6,69999,16,60000,91,0,40,9999,0.100000,0,0,0.000000,5,0.000000,0.000000,0.898823,0,0,0,0,0,0,0
6,69999,17,60000,33,0,40,9999,0.135000,0,0,0.000000,5,0.000000,0.000000,23.370081,0,0,0,0,0,0,0
6,69999,18,60000,91,0,49,9999,0.100000,0,0,0.000000,5,1.000000,0.000000,21.287433,0,0,0,0,0,0,0
6,69999,19,60000,91,0,40,9999,0.100000,0,0,0.000000,5,0.000000,0.000000,0.631258,0,0,0,0,0,0,0
6,69999,20,60000,91,0,40,9999,0.100000,0,0,0.000000,5,0.000000,0.000000,0.938364,0,0,0,0,0,0,0
6,69999,21,60000,91,0,40,9999,0.100000,0,0,0.000000,5,0.000000,0.000000,0.161355,0,0,0,0,0,0,0
6,69999,22,60000,52,10000,40,9999,0.100000,0,0,0.000000,5,0.000000,0.000000,1.794174,0,0,0,0,0,0,0
6,69999,23,60000,33,0,40,9999,0.100000,0,0,0.000000,5,0.000000,0.000000,0.153272,0,0,0,0,0,0,0
6,69999,24,60000,91,0,40,9999,0.100000,0,0,0.000000,5,0.000000,0.000000,1.593061,0,0,0,0,0,0,0
6,69999,25,60000,52,10000,49,9999,0.100000,0,0,0.000000,5,1.000000,0.000000,4.053904,0,0,0,0,0,0,0
6,69999,26,60000,52,10000,40,9999,0.100000,0,0,0.000000,5,0.000000,0.000000,0.124396,0,0,0,0,0,0,0
6,69999,27,60000,2,10000,40,9999,0.100000,0,0,0.000000,5,0.000000,0.000000,3.389254,0,0,0,0,0,0,0
6,69999,28,60000,52,10000,49,9999,0.100000,0,0,0.000000,5,4.000000,0.000000,5.491224,0,0,0,0,0,0,0
6,69999,29,60000,23,50000,40,9999,0.100000,0,0,0.000000,5,0.000000,0.000000,0.493260,0,0,0,0,0,0,0
6,69999,30,60000,23,50000,40,9999,0.100000,0,0,0.000000,5,0.000000,0.000000,0.144094,0,0,0,0,0,0,0
6,69999,31,60000,33,0,49,9999,0.100000,0,0,0.000000,5,2.000000,0.000000,2.406688,0,0,0,0,0,0,0
6,69999,32,60000,2,10000,49,9999,0.100000,0,0,0.000000,5,6.000000,0.000000,11.756901,0,0,0,0,0,0,0
6,69999,33,60000,23,50000,40,9999,0.100000,0,0,0.000000,5,0.000000,0.000000,0.416608,0,0,0,0,0,0,0
6,69999,34,60000,33,0,40,9999,0.100000,0,0,0.000000,5,0.000000,0.000000,0.931542,0,0,0,0,0,0,0
6,69999,35,60000,91,0,40,9999,0.100000,0,0,0.000000,5,0.000000,0.000000,2.408587,0,0,0,0,0,0,0
6,69999,36,60000,52,10000,40,9999,0.100000,0,0,0.000000,5,0.000000,0.000000,0.121163,0,0,0,0,0,0,0
6,69999,37,60000,33,0,49,9999,0.100000,0,0,0.000000,5,1.000000,0.000000,3.940018,0,0,0,0,0,0,0
6,69999,38,60000,2,10000,49,9999,0.100000,0,0,0.000000,5,1.000000,0.000000,3.491706,0,0,0,0,0,0,0
6,69999,39,60000,91,0,40,9999,0.100000,0,0,0.000000,5,0.000000,0.000000,0.523815,0,0,0,0,0,0,0
6,69999,40,60000,22,0,40,9999,0.100000,0,0,0.000000,5,0.000000,0.000000,0.204031,0,0,0,0,0,0,0
6,69999,41,60000,91,0,40,9999,0.100000,0,0,0.000000,5,0.000000,0.000000,0.328624,0,0,0,0,0,0,0
6,69999,42,60000,91,0,40,9999,0.100000,0,0,0.000000,5,0.000000,0.000000,0.145056,0,0,0,0,0,0,0
6,69999,43,60000,22,0,40,9999,0.100000,0,0,0.000000,5,0.000000,0.000000,0.619804,0,0,0,0,0,0,0
6,69999,44,60000,2,10000,40,9999,0.100000,0,0,0.000000,5,0.000000,0.000000,0.099744,0,0,0,0,0,0,0
6,69999,45,60000,2,10000,40,9999,0.100000,0,0,0.000000,5,0.000000,0.000000,0.123939,0,0,0,0,0,0,0
6,69999,46,60000,23,50000,40,9999,0.100000,0,0,0.000000,5,0.000000,0.000000,1.893497,0,0,0,0,0,0,0
6,69999,47,60000,91,0,40,9999,0.100000,0,0,0.000000,5,0.000000,0.000000,0.504864,0,0,0,0,0,0,0
6,69999,48,60000,33,0,40,9999,0.100000,0,0,0.000000,5,0.000000,0.000000,0.316457,0,0,0,0,0,0,0
6,69999,49,60000,33,0,40,9999,0.100000,0,0,0.000000,5,0.000000,0.000000,0.319544,0,0,0,0,0,0,0
6,69999,50,60000,91,0,40,9999,0.100000,0,0,0.000000,5,0.000000,0.000000,0.228952,0,0,0,0,0,0,0
6,69999,51,60000,22,0,40,9999,0.100000,0,0,0.000000,5,0.000000,0.000000,1.075925,0,0,0,0,0,0,0
6,69999,52,60000,52,10000,49,9999,0.100000,0,0,0.000000,5,7.000000,0.000000,25.001077,0,0,0,0,0,0,0
6,69999,53,60000,52,10000,40,9999,0.100000,0,0,0.000000,5,0.000000,0.000000,0.903848,0,0,0,0,0,0,0
6,69999,54,60000,33,0,49,9999,0.065000,0,0,0.000000,5,6.000000,0.000000,17.297166,0,0,0,0,0,0,0
6,69999,55,60000,33,0,40,9999,0.100000,0,0,0.000000,5,0.000000,0.000000,0.097867,0,0,0,0,0,0,0
6,69999,56,60000,2,10000,40,9999,0.100000,0,0,0.000000,5,0.000000,0.000000,2.659298,0,0,0,0,0,0,0
6,69999,57,60000,2,10000,40,9999,0.100000,0,0,0.000000,5,0.000000,0.000000,0.348384,0,0,0,0,0,0,0
6,69999,58,60000,23,50000,49,9999,0.100000,0,0,0.000000,5,2.000000,0.000000,5.091160,0,0,0,0,0,0,0
6,69999,59,60000,33,0,40,9999,0.100000,0,0,0.000000,5,0.000000,0.000000,0.181290,0,0,0,0,0,0,0
6,69999,60,60000,33,0,40,9999,0.100000,0,0,0.000000,5,0.000000,0.000000,0.106858,0,0,0,0,0,0,0
6,69999,61,60000,23,50000,40,9999,0.100000,0,0,0.000000,5,0.000000,0.000000,0.516597,0,0,0,0,0,0,0
6,69999,62,60000,33,0,49,9999,0.100000,0,0,0.000000,5,2.000000,0.000000,2.605019,0,0,0,0,0,0,0
6,69999,63,60000,33,0,49,9999,0.100000,0,0,0.000000,5,2.000000,0.000000,2.270391,0,0,0,0,0,0,0
6,69999,64,60000,33,0,40,9999,0.100000,0,0,0.000000,5,0.000000,0.000000,0.614810,0,0,0,0,0,0,0
6,69999,65,60000,91,0,49,9999,0.100000,0,0,0.000000,5,6.000000,0.000000,8.258722,0,0,0,0,0,0,0
6,69999,66,60000,91,0,49,9999,0.100000,0,0,0.000000,5,1.000000,0.000000,1.433367,0,0,0,0,0,0,0
6,69999,67,60000,2,10000,40,9999,0.100000,0,0,0.000000,5,0.000000,0.000000,0.430451,0,0,0,0,0,0,0
6,69999,68,60000,52,10000,49,9999,0.100000,0,0,0.000000,5,1.000000,0.000000,7.020466,0,0,0,0,0,0,0
6,69999,69,60000,91,0,40,9999,0.100000,0,0,0.000000,5,0.000000,0.000000,0.423484,0,0,0,0,0,0,0
6,69999,70,60000,91,0,40,9999,0.100000,0,0,0.000000,5,0.000000,0.000000,0.384219,0,0,0,0,0,0,0
6,69999,71,60000,91,0,49,9999,0.100000,0,0,0.000000,5,1.000000,0.000000,1.909982,0,0,0,0,0,0,0
6,69999,72,60000,52,10000,40,9999,0.100000,0,0,0.000000,5,0.000000,0.000000,0.612200,0,0,0,0,0,0,0
6,69999,73,60000,33,0,40,9999,0.100000,0,0,0.000000,5,0.000000,0.000000,0.560134,0,0,0,0,0,0,0
6,69999,74,60000,52,10000,49,9999,0.100000,0,0,0.000000,5,1.000000,0.000000,2.986778,0,0,0,0,0,0,0
6,69999,75,60000,91,0,40,9999,0.100000,0,0,0.000000,5,0.000000,0.000000,0.127516,0,0,0,0,0,0,0
6,69999,76,60000,52,10000,40,9999,0.100000,0,0,0.000000,5,0.000000,0.000000,0.285226,0,0,0,0,0,0,0
6,69999,77,60000,91,0,40,9999,0.100000,0,0,0.000000,5,0.000000,0.000000,1.394395,0,0,0,0,0,0,0
6,69999,78,60000,33,0,40,9999,0.100000,0,0,0.000000,5,0.000000,0.000000,1.056836,0,0,0,0,0,0,0
6,69999,79,60000,52,10000,40,9999,0.100000,0,0,0.000000,5,0.000000,0.000000,0.137011,0,0,0,0,0,0,0
6,69999,80,60000,91,0,40,9999,0.100000,0,0,0.000000,5,0.000000,0.000000,0.417306,0,0,0,0,0,0,0
6,69999,81,60000,22,0,40,9999,0.100000,0,0,0.000000,5,0.000000,0.000000,0.399848,0,0,0,0,0,0,0
6,69999,82,60000,52,10000,40,9999,0.100000,0,0,0.000000,5,0.000000,0.000000,0.592819,0,0,0,0,0,0,0
6,69999,83,60000,52,10000,40,9999,0.100000,0,0,0.000000,5,0.000000,0.000000,0.160136,0,0,0,0,0,0,0
6,69999,84,60000,33,0,40,9999,0.100000,0,0,0.000000,5,0.000000,0.000000,0.089812,0,0,0,0,0,0,0
6,69999,85,60000,23,50000,40,9999,0.100000,0,0,0.000000,5,0.000000,0.000000,0.667973,0,0,0,0,0,0,0
6,69999,86,60000,33,0,40,9999,0.100000,0,0,0.000000,5,0.000000,0.000000,0.773393,0,0,0,0,0,0,0
6,69999,87,60000,52,10000,49,9999,0.100000,0,0,0.000000,5,1.000000,0.000000,25.981103,0,0,0,0,0,0,0
6,69999,88,60000,91,0,40,9999,0.100000,0,0,0.000000,5,0.000000,0.000000,0.298516,0,0,0,0,0,0,0
6,69999,89,60000,91,0,49,9999,0.100000,0,0,0.000000,5,2.000000,0.000000,18.320051,0,0,0,0,0,0,0
6,69999,90,60000,52,10000,49,9999,0.100000,0,0,0.000000,5,2.000000,0.000000,2.436481,0,0,0,0,0,0,0
6,69999,91,60000,52,10000,40,9999,0.100000,0,0,0.000000,5,0.000000,0.000000,0.320727,0,0,0,0,0,0,0
6,69999,92,60000,52,10000,49,9999,0.100000,0,0,0.000000,5,2.000000,0.000000,6.446379,0,0,0,0,0,0,0
6,69999,93,60000,52,10000,40,9999,0.100000,0,0,0.000000,5,0.000000,0.000000,0.101198,0,0,0,0,0,0,0
6,69999,94,60000,52,10000,40,9999,0.100000,0,0,0.000000,5,0.000000,0.000000,0.158564,0,0,0,0,0,0,0
6,69999,95,60000,22,0,40,9999,0.100000,0,0,0.000000,5,0.000000,0.000000,0.213983,0,0,0,0,0,0,0
6,69999,96,60000,2,10000,40,9999,0.100000,0,0,0.000000,5,0.000000,0.000000,0.198869,0,0,0,0,0,0,0
6,69999,97,60000,91,0,40,9999,0.100000,0,0,0.000000,5,0.000000,0.000000,0.240695,0,0,0,0,0,0,0
6,69999,98,60000,91,0,49,9999,0.100000,0,0,0.000000,5,4.000000,0.000000,6.728130,0,0,0,0,0,0,0
6,69999,99,60000,52,10000,40,9999,0.100000,0,0,0.000000,5,0.000000,0.000000,0.313374,0,0,0,0,0,0,0
7,79999,0,70000,91,0,40,9999,0.100000,0,0,0.000000,5,0.000000,0.000000,0.359270,0,0,0,0,0,0,0
7,79999,1,70000,52,10000,40,9999,0.100000,0,0,0.000000,5,0.000000,0.000000,0.128892,0,0,0,0,0,0,0
7,79999,2,70000,91,0,40,9999,0.100000,0,0,0.000000,5,0.000000,0.000000,0.158004,0,0,0,0,0,0,0
7,79999,3,70000,91,0,40,9999,0.100000,0,0,0.000000,5,0.000000,0.000000,0.542026,0,0,0,0,0,0,0
7,79999,4,70000,33,0,40,9999,0.100000,0,0,0.000000,5,0.000000,0.000000,0.219517,0,0,0,0,0,0,0
7,79999,5,70000,23,50000,40,9999,0.100000,0,0,0.000000,5,0.000000,0.000000,2.117828,0,0,0,0,0,0,0
7,79999,6,70000,2,10000,40,9999,0.100000,0,0,0.000000,5,0.000000,0.000000,0.153413,0,0,0,0,0,0,0
7,79999,7,70000,33,0,40,9999,0.100000,0,0,0.000000,5,0.000000,0.000000,4.743295,0,0,0,0,0,0,0
7,79999,8,70000,2,10000,49,9999,0.100000,0,0,0.000000,5,1.000000,0.000000,4.938109,0,0,0,0,0,0,0
7,79999,9,70000,2,10000,40,9999,0.100000,0,0,0.000000,5,0.000000,0.000000,2.287363,0,0,0,0,0,0,0
7,79999,10,70000,52,10000,40,9999,0.100000,0,0,0.000000,5,0.000000,0.000000,0.580889,0,0,0,0,0,0,0
7,79999,11,70000,2,10000,40,9999,0.100000,0,0,0.000000,5,0.000000,0.000000,5.750211,0,0,0,0,0,0,0
7,79999,12,70000,52,10000,40,9999,0.100000,0,0,0.000000,5,0.000000,0.000000,0.220605,0,0,0,0,0,0,0
7,79999,13,70000,91,0,40,9999,0.100000,0,0,0.000000,5,0.000000,0.000000,0.558881,0,0,0,0,0,0,0
7,79999,14,70000,91,0,40,9999,0.100000,0,0,0.000000,5,0.000000,0.000000,0.699634,0,0,0,0,0,0,0
7,79999,15,70000,91,0,40,9999,0.100000,0,0,0.000000,5,0.000000,0.000000,0.191093,0,0,0,0,0,0,0
7,79999,16,70000,91,0,40,9999,0.100000,0,0,0.000000,5,0.000000,0.000000,0.747511,0,0,0,0,0,0,0
7,79999,17,70000,33,0,40,9999,0.100000,0,0,0.000000,5,0.000000,0.000000,19.133104,0,0,0,0,0,0,0
7,79999,18,70000,23,50000,40,9999,0.100000,0,0,0.000000,5,0.000000,0.000000,5.196546,0,0,0,0,0,0,0
7,79999,19,70000,91,0,49,9999,0.100000,0,0,0.000000,5,1.000000,0.000000,2.401740,0,0,0,0,0,0,0
7,79999,20,70000,52,10000,40,9999,0.100000,0,0,0.000000,5,0.000000,0.000000,0.591220,0,0,0,0,0,0,0
7,79999,21,70000,33,0,40,9999,0.100000,0,0,0.000000,5,0.000000,0.000000,0.139106,0,0,0,0,0,0,0
7,79999,22,70000,2,10000,40,9999,0.100000,0,0,0.000000,5,0.000000,0.000000,3.781962,0,0,0,0,0,0,0
7,79999,23,70000,33,0,40,9999,0.100000,0,0,0.000000,5,0.000000,0.000000,0.141318,0,0,0,0,0,0,0
7,79999,24,70000,91,0,40,9999,0.100000,0,0,0.000000,5,0.000000,0.000000,1.629693,0,0,0,0,0,0,0
7,79999,25,70000,33,0,40,9999,0.100000,0,0,0.000000,5,0.000000,0.000000,1.428804,0,0,0,0,0,0,0
7,79999,26,70000,23,50000,40,9999,0.100000,0,0,0.000000,5,0.000000,0.000000,0.200599,0,0,0,0,0,0,0
7,79999,27,70000,91,0,49,9999,0.100000,0,0,0.000000,5,7.000000,0.000000,16.422046,0,0,0,0,0,0,0
7,79999,28,70000,33,0,49,9999,0.100000,0,0,0.000000,5,4.000000,0.000000,6.601288,0,0,0,0,0,0,0
7,79999,29,70000,2,10000,40,9999,0.100000,0,0,0.000000,5,0.000000,0.000000,2.029798,0,0,0,0,0,0,0
7,79999,30,70000,2,10000,40,9999,0.100000,0,0,0.000000,5,0.000000,0.000000,0.178914,0,0,0,0,0,0,0
7,79999,31,70000,52,10000,49,9999,0.100000,0,0,0.000000,5,2.000000,0.000000,3.159127,0,0,0,0,0,0,0
7,79999,32,70000,23,50000,40,9999,0.100000,0,0,0.000000,5,0.000000,0.000000,1.174957,0,0,0,0,0,0,0
7,79999,33,70000,33,0,40,9999,0.100000,0,0,0.000000,5,0.000000,0.000000,0.985498,0,0,0,0,0,0,0
7,79999,34,70000,2,10000,40,9999,0.100000,0,0,0.000000,5,0.000000,0.000000,5.566318,0,0,0,0,0,0,0
7,79999,35,70000,2,10000,40,9999,0.100000,0,0,0.000000,5,0.000000,0.000000,0.697037,0,0,0,0,0,0,0
7,79999,36,70000,2,10000,40,9999,0.100000,0,0,0.000000,5,0.000000,0.000000,0.115632,0,0,0,0,0,0,0
7,79999,37,70000,52,10000,49,9999,0.100000,0,0,0.000000,5,4.000000,0.000000,5.862015,0,0,0,0,0,0,0
7,79999,38,70000,91,0,49,9999,0.100000,0,0,0.000000,5,1.000000,0.000000,4.795924,0,0,0,0,0,0,0
7,79999,39,70000,52,10000,40,9999,0.100000,0,0,0.000000,5,0.000000,0.000000,0.292523,0,0,0,0,0,0,0
7,79999,40,70000,2,10000,40,9999,0.100000,0,0,0.000000,5,0.000000,0.000000,0.190381,0,0,0,0,0,0,0
7,79999,41,70000,91,0,40,9999,0.100000,0,0,0.000000,5,0.000000,0.000000,0.166327,0,0,0,0,0,0,0
7,79999,42,70000,33,0,40,9999,0.100000,0,0,0.000000,5,0.000000,0.000000,0.146910,0,0,0,0,0,0,0
7,79999,43,70000,91,0,49,9999,0.100000,0,0,0.000000,5,8.000000,0.000000,24.645244,0,0,0,0,0,0,0
7,79999,44,70000,52,10000,40,9999,0.100000,0,0,0.000000,5,0.000000,0.000000,0.170701,0,0,0,0,0,0,0
7,79999,45,70000,52,10000,40,9999,0.100000,0,0,0.000000,5,0.000000,0.000000,0.136848,0,0,0,0,0,0,0
7,79999,46,70000,33,0,49,9999,0.100000,0,0,0.000000,5,1.000000,0.000000,2.647076,0,0,0,0,0,0,0
7,79999,47,70000,23,50000,40,9999,0.100000,0,0,0.000000,5,0.000000,0.000000,0.508838,0,0,0,0,0,0,0
7,79999,48,70000,2,10000,40,9999,0.100000,0,0,0.000000,5,0.000000,0.000000,0.260967,0,0,0,0,0,0,0
7,79999,49,70000,91,0,40,9999,0.100000,0,0,0.000000,5,0.000000,0.000000,0.314893,0,0,0,0,0,0,0
7,79999,50,70000,33,0,40,9999,0.100000,0,0,0.000000,5,0.000000,0.000000,0.225692,0,0,0,0,0,0,0
7,79999,51,70000,2,10000,40,9999,0.100000,0,0,0.000000,5,0.000000,0.000000,1.078268,0,0,0,0,0,0,0
7,79999,52,70000,52,10000,40,9999,0.100000,0,0,0.000000,5,0.000000,0.000000,1.060825,0,0,0,0,0,0,0
7,79999,53,70000,33,0,40,9999,0.100000,0,0,0.000000,5,0.000000,0.000000,0.446095,0,0,0,0,0,0,0
7,79999,54,70000,33,0,49,9999,0.100000,0,0,0.000000,5,16.000000,0.000000,17.632679,0,0,0,0,0,0,0
7,79999,55,70000,33,0,40,9999,0.100000,0,0,0.000000,5,0.000000,0.000000,0.181966,0,0,0,0,0,0,0
7,79999,56,70000,33,0,40,9999,0.100000,0,0,0.000000,5,0.000000,0.000000,2.966985,0,0,0,0,0,0,0
7,79999,57,70000,52,10000,40,9999,0.100000,0,0,0.000000,5,0.000000,0.000000,0.114239,0,0,0,0,0,0,0
7,79999,58,70000,23,50000,49,9999,0.100000,0,0,0.000000,5,1.000000,0.000000,5.424728,0,0,0,0,0,0,0
7,79999,59,70000,52,10000,40,9999,0.100000,0,0,0.000000,5,0.000000,0.000000,0.139137,0,0,0,0,0,0,0
7,79999,60,70000,25,60000,40,9999,0.100000,0,0,0.000000,5,0.000000,0.000000,0.335032,0,0,0,0,0,0,0
7,79999,61,70000,2,10000,40,9999,0.100000,0,0,0.000000,5,0.000000,0.000000,0.263971,0,0,0,0,0,0,0
7,79999,62,70000,2,10000,49,9999,0.135000,0,0,0.000000,5,2.000000,0.000000,5.686121,0,0,0,0,0,0,0
7,79999,63,70000,2,10000,49,9999,0.100000,0,0,0.000000,5,2.000000,0.000000,3.113701,0,0,0,0,0,0,0
7,79999,64,70000,2,10000,40,9999,0.100000,0,0,0.000000,5,0.000000,0.000000,0.659523,0,0,0,0,0,0,0
7,79999,65,70000,23,50000,40,9999,0.100000,0,0,0.000000,5,0.000000,0.000000,2.111856,0,0,0,0,0,0,0
7,79999,66,70000,33,0,49,9999,0.100000,0,0,0.000000,5,3.000000,0.000000,6.071924,0,0,0,0,0,0,0
7,79999,67,70000,91,0,40,9999,0.100000,0,0,0.000000,5,0.000000,0.000000,0.488241,0,0,0,0,0,0,0
7,79999,68,70000,91,0,40,9999,0.100000,0,0,0.000000,5,0.000000,0.000000,1.218626,0,0,0,0,0,0,0
7,79999,69,70000,23,50000,40,9999,0.100000,0,0,0.000000,5,0.000000,0.000000,0.722169,0,0,0,0,0,0,0
7,79999,70,70000,33,0,40,9999,0.100000,0,0,0.000000,5,0.000000,0.000000,0.617578,0,0,0,0,0,0,0
7,79999,71,70000,33,0,40,9999,0.100000,0,0,0.000000,5,0.000000,0.000000,0.923896,0,0,0,0,0,0,0
7,79999,72,70000,2,10000,40,9999,0.100000,0,0,0.000000,5,0.000000,0.000000,0.614330,0,0,0,0,0,0,0
7,79999,73,70000,23,50000,40,9999,0.100000,0,0,0.000000,5,0.000000,0.000000,0.538286,0,0,0,0,0,0,0
7,79999,74,70000,91,0,40,9999,0.100000,0,0,0.000000,5,0.000000,0.000000,0.614281,0,0,0,0,0,0,0
7,79999,75,70000,91,0,40,9999,0.100000,0,0,0.000000,5,0.000000,0.000000,0.129431,0,0,0,0,0,0,0
7,79999,76,70000,91,0,40,9999,0.100000,0,0,0.000000,5,0.000000,0.000000,0.229248,0,0,0,0,0,0,0
7,79999,77,70000,91,0,40,9999,0.100000,0,0,0.000000,5,0.000000,0.000000,1.485072,0,0,0,0,0,0,0
7,79999,78,70000,52,10000,40,9999,0.100000,0,0,0.000000,5,0.000000,0.000000,2.354371,0,0,0,0,0,0,0
7,79999,79,70000,2,10000,40,9999,0.100000,0,0,0.000000,5,0.000000,0.000000,0.128621,0,0,0,0,0,0,0
7,79999,80,70000,91,0,40,9999,0.100000,0,0,0.000000,5,0.000000,0.000000,0.417877,0,0,0,0,0,0,0
7,79999,81,70000,91,0,40,9999,0.100000,0,0,0.000000,5,0.000000,0.000000,0.339881,0,0,0,0,0,0,0
7,79999,82,70000,33,0,40,9999,0.100000,0,0,0.000000,5,0.000000,0.000000,0.396038,0,0,0,0,0,0,0
7,79999,83,70000,2,10000,40,9999,0.100000,0,0,0.000000,5,0.000000,0.000000,0.167455,0,0,0,0,0,0,0
7,79999,84,70000,33,0,40,9999,0.100000,0,0,0.000000,5,0.000000,0.000000,0.651326,0,0,0,0,0,0,0
7,79999,85,70000,33,0,40,9999,0.100000,0,0,0.000000,5,0.000000,0.000000,0.576770,0,0,0,0,0,0,0
7,79999,86,70000,23,50000,40,9999,0.100000,0,0,0.000000,5,0.000000,0.000000,1.308666,0,0,0,0,0,0,0
7,79999,87,70000,2,10000,49,9999,0.100000,0,0,0.000000,5,1.000000,0.000000,16.561827,0,0,0,0,0,0,0
7,79999,88,60000,91,0,40,19999,0.100000,0,0,0.000000,5,0.000000,0.000000,0.301679,0,0,0,0,0,0,0
7,79999,89,70000,2,10000,40,9999,0.100000,0,0,0.000000,5,0.000000,0.000000,0.136036,0,0,0,0,0,0,0
7,79999,90,70000,91,0,49,9999,0.100000,0,0,0.000000,5,2.000000,0.000000,3.043324,0,0,0,0,0,0,0
7,79999,91,70000,23,50000,49,9999,0.100000,0,0,0.000000,5,8.000000,0.000000,18.128420,0,0,0,0,0,0,0
7,79999,92,70000,52,10000,49,9999,0.100000,0,0,0.000000,5,15.000000,0.000000,21.247262,0,0,0,0,0,0,0
7,79999,93,70000,25,60000,40,9999,0.100000,0,0,0.000000,5,0.000000,0.000000,0.290082,0,0,0,0,0,0,0
7,79999,94,70000,23,50000,40,9999,0.100000,0,0,0.000000,5,0.000000,0.000000,0.166361,0,0,0,0,0,0,0
7,79999,95,70000,23,50000,40,9999,0.100000,0,0,0.000000,5,0.000000,0.000000,0.218779,0,0,0,0,0,0,0
7,79999,96,70000,33,0,40,9999,0.100000,0,0,0.000000,5,0.000000,0.000000,0.400547,0,0,0,0,0,0,0
7,79999,97,70000,33,0,40,9999,0.100000,0,0,0.000000,5,0.000000,0.000000,0.173306,0,0,0,0,0,0,0
7,79999,98,70000,33,0,49,9999,0.100000,0,0,0.000000,5,5.000000,0.000000,9.039649,0,0,0,0,0,0,0
7,79999,99,70000,52,10000,40,9999,0.100000,0,0,0.000000,5,0.000000,0.000000,0.275850,0,0,0,0,0,0,0
8,89999,0,80000,2,10000,40,9999,0.100000,0,0,0.000000,5,0.000000,0.000000,0.174464,0,0,0,0,0,0,0
8,89999,1,80000,91,0,40,9999,0.100000,0,0,0.000000,5,0.000000,0.000000,0.127812,0,0,0,0,0,0,0
8,89999,2,80000,2,10000,40,9999,0.100000,0,0,0.000000,5,0.000000,0.000000,0.156102,0,0,0,0,0,0,0
8,89999,3,80000,25,60000,40,9999,0.100000,0,0,0.000000,5,0.000000,0.000000,0.560418,0,0,0,0,0,0,0
8,89999,4,80000,25,60000,40,9999,0.100000,0,0,0.000000,5,0.000000,0.000000,0.226020,0,0,0,0,0,0,0
8,89999,5,80000,52,10000,49,9999,0.100000,0,0,0.000000,5,3.000000,0.000000,7.576160,0,0,0,0,0,0,0
8,89999,6,80000,52,10000,49,9999,0.100000,0,0,0.000000,5,2.000000,0.000000,3.142664,0,0,0,0,0,0,0
8,89999,7,80000,91,0,49,9999,0.100000,0,0,0.000000,5,3.000000,0.000000,7.914193,0,0,0,0,0,0,0
8,89999,8,80000,52,10000,40,9999,0.100000,0,0,0.000000,5,0.000000,0.000000,1.172032,0,0,0,0,0,0,0
8,89999,9,80000,2,10000,40,9999,0.100000,0,0,0.000000,5,0.000000,0.000000,2.858200,0,0,0,0,0,0,0
8,89999,10,80000,52,10000,40,9999,0.100000,0,0,0.000000,5,0.000000,0.000000,1.103744,0,0,0,0,0,0,0
8,89999,11,80000,33,0,40,9999,0.100000,0,0,0.000000,5,0.000000,0.000000,3.317364,0,0,0,0,0,0,0
8,89999,12,80000,2,10000,40,9999,0.100000,0,0,0.000000,5,0.000000,0.000000,0.166842,0,0,0,0,0,0,0
8,89999,13,80000,52,10000,40,9999,0.100000,0,0,0.000000,5,0.000000,0.000000,0.560321,0,0,0,0,0,0,0
8,89999,14,80000,52,10000,40,9999,0.100000,0,0,0.000000,5,0.000000,0.000000,1.180731,0,0,0,0,0,0,0
8,89999,15,80000,2,10000,40,9999,0.100000,0,0,0.000000,5,0.000000,0.000000,0.171415,0,0,0,0,0,0,0
8,89999,16,80000,52,10000,40,9999,0.100000,0,0,0.000000,5,0.000000,0.000000,0.157443,0,0,0,0,0,0,0
8,89999,17,80000,91,0,40,9999,0.100000,0,0,0.000000,5,0.000000,0.000000,1.663328,0,0,0,0,0,0,0
8,89999,18,80000,2,10000,40,9999,0.100000,0,0,0.000000,5,0.000000,0.000000,2.690810,0,0,0,0,0,0,0
8,89999,19,80000,33,0,40,9999,0.100000,0,0,0.000000,5,0.000000,0.000000,2.506544,0,0,0,0,0,0,0
8,89999,20,80000,52,10000,40,9999,0.100000,0,0,0.000000,5,0.000000,0.000000,0.605793,0,0,0,0,0,0,0
8,89999,21,80000,2,10000,40,9999,0.100000,0,0,0.000000,5,0.000000,0.000000,0.125942,0,0,0,0,0,0,0
8,89999,22,80000,33,0,40,9999,0.100000,0,0,0.000000,5,0.000000,0.000000,2.572717,0,0,0,0,0,0,0
8,89999,23,80000,91,0,40,9999,0.100000,0,0,0.000000,5,0.000000,0.000000,0.122545,0,0,0,0,0,0,0
8,89999,24,80000,91,0,40,9999,0.100000,0,0,0.000000,5,0.000000,0.000000,1.601475,0,0,0,0,0,0,0
8,89999,25,80000,91,0,40,9999,0.100000,0,0,0.000000,5,0.000000,0.000000,1.272827,0,0,0,0,0,0,0
8,89999,26,80000,33,0,40,9999,0.100000,0,0,0.000000,5,0.000000,0.000000,0.291044,0,0,0,0,0,0,0
8,89999,27,80000,91,0,49,9999,0.100000,0,0,0.000000,5,2.000000,0.000000,7.555156,0,0,0,0,0,0,0
8,89999,28,80000,33,0,40,9999,0.100000,0,0,0.000000,5,0.000000,0.000000,0.894229,0,0,0,0,0,0,0
8,89999,29,80000,52,10000,40,9999,0.100000,0,0,0.000000,5,0.000000,0.000000,0.224033,0,0,0,0,0,0,0
8,89999,30,80000,2,10000,40,9999,0.100000,0,0,0.000000,5,0.000000,0.000000,0.220804,0,0,0,0,0,0,0
8,89999,31,80000,91,0,40,9999,0.100000,0,0,0.000000,5,0.000000,0.000000,1.057886,0,0,0,0,0,0,0
8,89999,32,80000,91,0,40,9999,0.100000,0,0,0.000000,5,0.000000,0.000000,1.615052,0,0,0,0,0,0,0
8,89999,33,80000,2,10000,40,9999,0.100000,0,0,0.000000,5,0.000000,0.000000,1.171547,0,0,0,0,0,0,0
8,89999,34,80000,52,10000,49,9999,0.100000,0,0,0.000000,5,2.000000,0.000000,7.937660,0,0,0,0,0,0,0
8,89999,35,80000,33,0,40,9999,0.100000,0,0,0.000000,5,0.000000,0.000000,0.501814,0,0,0,0,0,0,0
8,89999,36,80000,33,0,40,9999,0.100000,0,0,0.000000,5,0.000000,0.000000,0.144006,0,0,0,0,0,0,0
8,89999,37,80000,52,10000,40,9999,0.100000,0,0,0.000000,5,0.000000,0.000000,0.221056,0,0,0,0,0,0,0
8,89999,38,80000,25,60000,49,9999,0.100000,0,0,0.000000,5,1.000000,0.000000,4.376334,0,0,0,0,0,0,0
8,89999,39,80000,91,0,40,9999,0.100000,0,0,0.000000,5,0.000000,0.000000,0.135813,0,0,0,0,0,0,0
8,89999,40,80000,33,0,40,9999,0.100000,0,0,0.000000,5,0.000000,0.000000,0.265790,0,0,0,0,0,0,0
8,89999,41,80000,25,60000,40,9999,0.100000,0,0,0.000000,5,0.000000,0.000000,0.151750,0,0,0,0,0,0,0
8,89999,42,80000,52,10000,40,9999,0.100000,0,0,0.000000,5,0.000000,0.000000,0.148072,0,0,0,0,0,0,0
8,89999,43,80000,2,10000,40,9999,0.100000,0,0,0.000000,5,0.000000,0.000000,25.952294,0,0,0,0,0,0,0
8,89999,44,80000,2,10000,40,9999,0.100000,0,0,0.000000,5,0.000000,0.000000,0.120206,0,0,0,0,0,0,0
8,89999,45,80000,25,60000,40,9999,0.100000,0,0,0.000000,5,0.000000,0.000000,0.116207,0,0,0,0,0,0,0
8,89999,46,80000,91,0,49,9999,0.100000,0,0,0.000000,5,1.000000,0.000000,3.685538,0,0,0,0,0,0,0
8,89999,47,80000,33,0,40,9999,0.100000,0,0,0.000000,5,0.000000,0.000000,0.910264,0,0,0,0,0,0,0
8,89999,48,80000,33,0,40,9999,0.100000,0,0,0.000000,5,0.000000,0.000000,0.233895,0,0,0,0,0,0,0
8,89999,49,80000,91,0,40,9999,0.100000,0,0,0.000000,5,0.000000,0.000000,0.319189,0,0,0,0,0,0,0
8,89999,50,80000,52,10000,49,9999,0.100000,0,0,0.000000,5,2.000000,0.000000,3.498332,0,0,0,0,0,0,0
8,89999,51,80000,91,0,40,9999,0.100000,0,0,0.000000,5,0.000000,0.000000,1.043737,0,0,0,0,0,0,0
8,89999,52,80000,25,60000,40,9999,0.100000,0,0,0.000000,5,0.000000,0.000000,3.396991,0,0,0,0,0,0,0
8,89999,53,80000,91,0,40,9999,0.100000,0,0,0.000000,5,0.000000,0.000000,0.110210,0,0,0,0,0,0,0
8,89999,54,80000,2,10000,40,9999,0.100000,0,0,0.000000,5,0.000000,0.000000,0.649680,0,0,0,0,0,0,0
8,89999,55,80000,33,0,40,9999,0.100000,0,0,0.000000,5,0.000000,0.000000,0.295350,0,0,0,0,0,0,0
8,89999,56,80000,33,0,40,9999,0.100000,0,0,0.000000,5,0.000000,0.000000,0.099283,0,0,0,0,0,0,0
8,89999,57,80000,91,0,40,9999,0.100000,0,0,0.000000,5,0.000000,0.000000,0.106086,0,0,0,0,0,0,0
8,89999,58,80000,91,0,49,9999,0.100000,0,0,0.000000,5,1.000000,0.000000,3.915201,0,0,0,0,0,0,0
8,89999,59,80000,52,10000,40,9999,0.100000,0,0,0.000000,5,0.000000,0.000000,0.078933,0,0,0,0,0,0,0
8,89999,60,80000,52,10000,40,9999,0.100000,0,0,0.000000,5,0.000000,0.000000,0.498087,0,0,0,0,0,0,0
8,89999,61,80000,25,60000,40,9999,0.100000,0,0,0.000000,5,0.000000,0.000000,0.342164,0,0,0,0,0,0,0
8,89999,62,80000,52,10000,40,9999,0.100000,0,0,0.000000,5,0.000000,0.000000,2.152834,0,0,0,0,0,0,0
8,89999,63,80000,52,10000,40,9999,0.100000,0,0,0.000000,5,0.000000,0.000000,0.989183,0,0,0,0,0,0,0
8,89999,64,80000,52,10000,40,9999,0.100000,0,0,0.000000,5,0.000000,0.000000,1.822348,0,0,0,0,0,0,0
8,89999,65,80000,25,60000,40,9999,0.100000,0,0,0.000000,5,0.000000,0.000000,0.503843,0,0,0,0,0,0,0
8,89999,66,80000,52,10000,49,9999,0.100000,0,0,0.000000,5,3.000000,0.000000,8.846385,0,0,0,0,0,0,0
8,89999,67,80000,91,0,49,9999,0.100000,0,0,0.000000,5,1.000000,0.000000,4.337937,0,0,0,0,0,0,0
8,89999,68,80000,2,10000,40,9999,0.100000,0,0,0.000000,5,0.000000,0.000000,1.055373,0,0,0,0,0,0,0
8,89999,69,80000,52,10000,40,9999,0.100000,0,0,0.000000,5,0.000000,0.000000,0.865842,0,0,0,0,0,0,0
8,89999,70,80000,52,10000,40,9999,0.100000,0,0,0.000000,5,0.000000,0.000000,0.224973,0,0,0,0,0,0,0
8,89999,71,80000,33,0,40,9999,0.100000,0,0,0.000000,5,0.000000,0.000000,0.929897,0,0,0,0,0,0,0
8,89999,72,80000,52,10000,40,9999,0.100000,0,0,0.000000,5,0.000000,0.000000,0.737345,0,0,0,0,0,0,0
8,89999,73,80000,91,0,40,9999,0.100000,0,0,0.000000,5,0.000000,0.000000,0.616735,0,0,0,0,0,0,0
8,89999,74,80000,2,10000,40,9999,0.100000,0,0,0.000000,5,0.000000,0.000000,0.675436,0,0,0,0,0,0,0
8,89999,75,80000,91,0,40,9999,0.100000,0,0,0.000000,5,0.000000,0.000000,0.200101,0,0,0,0,0,0,0
8,89999,76,80000,91,0,40,9999,0.100000,0,0,0.000000,5,0.000000,0.000000,0.160592,0,0,0,0,0,0,0
8,89999,77,80000,91,0,40,9999,0.100000,0,0,0.000000,5,0.000000,0.000000,0.794514,0,0,0,0,0,0,0
8,89999,78,80000,33,0,40,9999,0.100000,0,0,0.000000,5,0.000000,0.000000,0.146383,0,0,0,0,0,0,0
8,89999,79,80000,2,10000,40,9999,0.100000,0,0,0.000000,5,0.000000,0.000000,0.131635,0,0,0,0,0,0,0
8,89999,80,80000,25,60000,40,9999,0.100000,0,0,0.000000,5,0.000000,0.000000,0.465238,0,0,0,0,0,0,0
8,89999,81,80000,33,0,40,9999,0.100000,0,0,0.000000,5,0.000000,0.000000,0.459894,0,0,0,0,0,0,0
8,89999,82,80000,2,10000,40,9999,0.100000,0,0,0.000000,5,0.000000,0.000000,0.438235,0,0,0,0,0,0,0
8,89999,83,80000,25,60000,40,9999,0.100000,0,0,0.000000,5,0.000000,0.000000,0.312615,0,0,0,0,0,0,0
8,89999,84,80000,2,10000,40,9999,0.100000,0,0,0.000000,5,0.000000,0.000000,0.519124,0,0,0,0,0,0,0
8,89999,85,80000,25,60000,40,9999,0.100000,0,0,0.000000,5,0.000000,0.000000,0.840772,0,0,0,0,0,0,0
8,89999,86,80000,52,10000,40,9999,0.100000,0,0,0.000000,5,0.000000,0.000000,0.533586,0,0,0,0,0,0,0
8,89999,87,80000,2,10000,40,9999,0.100000,0,0,0.000000,5,0.000000,0.000000,13.793542,0,0,0,0,0,0,0
8,89999,88,80000,33,0,40,9999,0.100000,0,0,0.000000,5,0.000000,0.000000,0.732214,0,0,0,0,0,0,0
8,89999,89,80000,91,0,40,9999,0.100000,0,0,0.000000,5,0.000000,0.000000,0.133490,0,0,0,0,0,0,0
8,89999,90,80000,91,0,40,9999,0.100000,0,0,0.000000,5,0.000000,0.000000,1.170541,0,0,0,0,0,0,0
8,89999,91,80000,25,60000,40,9999,0.100000,0,0,0.000000,5,0.000000,0.000000,1.105390,0,0,0,0,0,0,0
8,89999,92,80000,25,60000,99,9999,0.100000,0,0,34.210526,5,2.000000,0.000000,7.046627,0,0,1,0,0,0,0
8,89999,93,80000,2,10000,40,9999,0.100000,0,0,0.000000,5,0.000000,0.000000,0.559355,0,0,0,0,0,0,0
8,89999,94,80000,2,10000,40,9999,0.100000,0,0,0.000000,5,0.000000,0.000000,0.218199,0,0,0,0,0,0,0
8,89999,95,80000,52,10000,40,9999,0.100000,0,0,0.000000,5,0.000000,0.000000,0.218061,0,0,0,0,0,0,0
8,89999,96,80000,25,60000,40,9999,0.100000,0,0,0.000000,5,0.000000,0.000000,0.992240,0,0,0,0,0,0,0
8,89999,97,80000,2,10000,40,9999,0.100000,0,0,0.000000,5,0.000000,0.000000,0.104522,0,0,0,0,0,0,0
8,89999,98,80000,25,60000,49,9999,0.100000,0,0,0.000000,5,1.000000,0.000000,8.099274,0,0,0,0,0,0,0
8,89999,99,80000,33,0,40,9999,0.100000,0,0,0.000000,5,0.000000,0.000000,0.187529,0,0,0,0,0,0,0
9,99999,0,90000,52,10000,40,9999,0.100000,0,0,0.000000,5,0.000000,0.000000,0.165801,0,0,0,0,0,0,0
9,99999,1,90000,2,10000,40,9999,0.100000,0,0,0.000000,5,0.000000,0.000000,0.117866,0,0,0,0,0,0,0
9,99999,2,90000,33,0,40,9999,0.100000,0,0,0.000000,5,0.000000,0.000000,0.174826,0,0,0,0,0,0,0
9,99999,3,90000,91,0,49,9999,0.100000,0,0,0.000000,5,1.000000,0.000000,1.602360,0,0,0,0,0,0,0
9,99999,4,90000,33,0,40,9999,0.100000,0,0,0.000000,5,0.000000,0.000000,0.234498,0,0,0,0,0,0,0
9,99999,5,90000,52,10000,49,9999,0.100000,0,0,0.000000,5,4.000000,0.000000,8.044596,0,0,0,0,0,0,0
9,99999,6,90000,33,0,40,9999,0.100000,0,0,0.000000,5,0.000000,0.000000,0.853067,0,0,0,0,0,0,0
9,99999,7,90000,91,0,40,9999,0.100000,0,0,0.000000,5,0.000000,0.000000,3.199857,0,0,0,0,0,0,0
9,99999,8,90000,91,0,40,9999,0.100000,0,0,0.000000,5,0.000000,0.000000,0.948543,0,0,0,0,0,0,0
9,99999,9,90000,52,10000,40,9999,0.100000,0,0,0.000000,5,0.000000,0.000000,3.838573,0,0,0,0,0,0,0
9,99999,10,90000,25,60000,40,9999,0.100000,0,0,0.000000,5,0.000000,0.000000,0.931954,0,0,0,0,0,0,0
9,99999,11,90000,52,10000,49,9999,0.100000,0,0,0.000000,5,1.000000,0.000000,6.841844,0,0,0,0,0,0,0
9,99999,12,90000,52,10000,40,9999,0.100000,0,0,0.000000,5,0.000000,0.000000,0.169398,0,0,0,0,0,0,0
9,99999,13,90000,33,0,40,9999,0.100000,0,0,0.000000,5,0.000000,0.000000,0.907464,0,0,0,0,0,0,0
9,99999,14,90000,33,0,40,9999,0.100000,0,0,0.000000,5,0.000000,0.000000,1.296829,0,0,0,0,0,0,0
9,99999,15,90000,91,0,40,9999,0.100000,0,0,0.000000,5,0.000000,0.000000,0.162981,0,0,0,0,0,0,0
9,99999,16,90000,25,60000,40,9999,0.100000,0,0,0.000000,5,0.000000,0.000000,0.157734,0,0,0,0,0,0,0
9,99999,17,90000,2,10000,40,9999,0.100000,0,0,0.000000,5,0.000000,0.000000,2.524421,0,0,0,0,0,0,0
9,99999,18,90000,52,10000,40,9999,0.100000,0,0,0.000000,5,0.000000,0.000000,4.815335,0,0,0,0,0,0,0
9,99999,19,90000,2,10000,40,9999,0.100000,0,0,0.000000,5,0.000000,0.000000,0.632768,0,0,0,0,0,0,0
9,99999,20,90000,33,0,49,9999,0.100000,0,0,0.000000,5,1.000000,0.000000,2.108991,0,0,0,0,0,0,0
9,99999,21,90000,52,10000,40,9999,0.100000,0,0,0.000000,5,0.000000,0.000000,0.106155,0,0,0,0,0,0,0
9,99999,22,90000,91,0,40,9999,0.100000,0,0,0.000000,5,0.000000,0.000000,16.511986,0,0,0,0,0,0,0
9,99999,23,90000,2,10000,40,9999,0.100000,0,0,0.000000,5,0.000000,0.000000,0.119614,0,0,0,0,0,0,0
9,99999,24,90000,91,0,40,9999,0.100000,0,0,0.000000,5,0.000000,0.000000,1.325392,0,0,0,0,0,0,0
9,99999,25,90000,2,10000,40,9999,0.100000,0,0,0.000000,5,0.000000,0.000000,0.466294,0,0,0,0,0,0,0
9,99999,26,90000,2,10000,40,9999,0.100000,0,0,0.000000,5,0.000000,0.000000,0.177831,0,0,0,0,0,0,0
9,99999,27,90000,52,10000,40,9999,0.100000,0,0,0.000000,5,0.000000,0.000000,0.379691,0,0,0,0,0,0,0
9,99999,28,90000,2,10000,49,9999,0.100000,0,0,0.000000,5,2.000000,0.000000,3.814221,0,0,0,0,0,0,0
9,99999,29,90000,2,10000,40,9999,0.100000,0,0,0.000000,5,0.000000,0.000000,0.578772,0,0,0,0,0,0,0
9,99999,30,90000,2,10000,40,9999,0.100000,0,0,0.000000,5,0.000000,0.000000,0.175234,0,0,0,0,0,0,0
9,99999,31,90000,52,10000,49,9999,0.100000,0,0,0.000000,5,1.000000,0.000000,1.785955,0,0,0,0,0,0,0
9,99999,32,90000,2,10000,40,9999,0.100000,0,0,0.000000,5,0.000000,0.000000,4.727041,0,0,0,0,0,0,0
9,99999,33,90000,25,60000,40,9999,0.100000,0,0,0.000000,5,0.000000,0.000000,0.910323,0,0,0,0,0,0,0
9,99999,34,90000,2,10000,40,9999,0.100000,0,0,0.000000,5,0.000000,0.000000,0.685532,0,0,0,0,0,0,0
9,99999,35,90000,91,0,40,9999,0.100000,0,0,0.000000,5,0.000000,0.000000,0.490664,0,0,0,0,0,0,0
9,99999,36,90000,91,0,40,9999,0.100000,0,0,0.000000,5,0.000000,0.000000,0.136156,0,0,0,0,0,0,0
9,99999,37,90000,52,10000,40,9999,0.100000,0,0,0.000000,5,0.000000,0.000000,0.228448,0,0,0,0,0,0,0
9,99999,38,90000,33,0,40,9999,0.100000,0,0,0.000000,5,0.000000,0.000000,4.124087,0,0,0,0,0,0,0
9,99999,39,90000,91,0,40,9999,0.100000,0,0,0.000000,5,0.000000,0.000000,0.136113,0,0,0,0,0,0,0
9,99999,40,90000,52,10000,40,9999,0.100000,0,0,0.000000,5,0.000000,0.000000,0.250140,0,0,0,0,0,0,0
9,99999,41,90000,33,0,40,9999,0.100000,0,0,0.000000,5,0.000000,0.000000,0.178268,0,0,0,0,0,0,0
9,99999,42,90000,2,10000,40,9999,0.100000,0,0,0.000000,5,0.000000,0.000000,0.155209,0,0,0,0,0,0,0
9,99999,43,90000,91,0,49,9999,0.100000,0,0,0.000000,5,1.000000,0.000000,26.512733,0,0,0,0,0,0,0
9,99999,44,90000,91,0,40,9999,0.100000,0,0,0.000000,5,0.000000,0.000000,0.104608,0,0,0,0,0,0,0
9,99999,45,90000,52,10000,40,9999,0.100000,0,0,0.000000,5,0.000000,0.000000,0.162443,0,0,0,0,0,0,0
9,99999,46,90000,2,10000,40,9999,0.100000,0,0,0.000000,5,0.000000,0.000000,4.391177,0,0,0,0,0,0,0
9,99999,47,90000,52,10000,40,9999,0.100000,0,0,0.000000,5,0.000000,0.000000,0.752493,0,0,0,0,0,0,0
9,99999,48,90000,91,0,40,9999,0.100000,0,0,0.000000,5,0.000000,0.000000,0.229623,0,0,0,0,0,0,0
9,99999,49,90000,52,10000,40,9999,0.100000,0,0,0.000000,5,0.000000,0.000000,0.445376,0,0,0,0,0,0,0
9,99999,50,90000,52,10000,40,9999,0.100000,0,0,0.000000,5,0.000000,0.000000,0.669135,0,0,0,0,0,0,0
9,99999,51,90000,91,0,40,9999,0.100000,0,0,0.000000,5,0.000000,0.000000,1.054775,0,0,0,0,0,0,0
9,99999,52,90000,91,0,40,9999,0.100000,0,0,0.000000,5,0.000000,0.000000,1.362112,0,0,0,0,0,0,0
9,99999,53,90000,91,0,40,9999,0.100000,0,0,0.000000,5,0.000000,0.000000,0.204457,0,0,0,0,0,0,0
9,99999,54,90000,52,10000,40,9999,0.100000,0,0,0.000000,5,0.000000,0.000000,0.539457,0,0,0,0,0,0,0
9,99999,55,90000,25,60000,40,9999,0.100000,0,0,0.000000,5,0.000000,0.000000,0.211781,0,0,0,0,0,0,0
9,99999,56,90000,2,10000,40,9999,0.100000,0,0,0.000000,5,0.000000,0.000000,0.568832,0,0,0,0,0,0,0
9,99999,57,90000,52,10000,40,9999,0.100000,0,0,0.000000,5,0.000000,0.000000,0.088869,0,0,0,0,0,0,0
9,99999,58,90000,52,10000,49,9999,0.100000,0,0,0.000000,5,2.000000,0.000000,6.633962,0,0,0,0,0,0,0
9,99999,59,90000,52,10000,40,9999,0.100000,0,0,0.000000,5,0.000000,0.000000,0.325322,0,0,0,0,0,0,0
9,99999,60,90000,91,0,49,9999,0.100000,0,0,0.000000,5,3.000000,0.000000,7.920538,0,0,0,0,0,0,0
9,99999,61,90000,91,0,49,9999,0.100000,0,0,0.000000,5,1.000000,0.000000,1.714734,0,0,0,0,0,0,0
9,99999,62,90000,25,60000,49,9999,0.100000,0,0,0.000000,5,1.000000,0.000000,1.753510,0,0,0,0,0,0,0
9,99999,63,90000,91,0,49,9999,0.100000,0,0,0.000000,5,1.000000,0.000000,2.353590,0,0,0,0,0,0,0
9,99999,64,90000,91,0,40,9999,0.100000,0,0,0.000000,5,0.000000,0.000000,2.073684,0,0,0,0,0,0,0
9,99999,65,90000,52,10000,49,9999,0.100000,0,0,0.000000,5,2.000000,0.000000,4.485571,0,0,0,0,0,0,0
9,99999,66,90000,33,0,49,9999,0.100000,0,0,0.000000,5,3.000000,0.000000,6.159910,0,0,0,0,0,0,0
9,99999,67,90000,91,0,40,9999,0.100000,0,0,0.000000,5,0.000000,0.000000,1.747498,0,0,0,0,0,0,0
9,99999,68,90000,2,10000,40,9999,0.100000,0,0,0.000000,5,0.000000,0.000000,0.767307,0,0,0,0,0,0,0
9,99999,69,90000,2,10000,49,9999,0.135000,0,0,0.000000,5,4.000000,0.000000,9.733939,0,0,0,0,0,0,0
9,99999,70,90000,25,60000,40,9999,0.100000,0,0,0.000000,5,0.000000,0.000000,0.291809,0,0,0,0,0,0,0
9,99999,71,90000,25,60000,40,9999,0.100000,0,0,0.000000,5,0.000000,0.000000,0.962163,0,0,0,0,0,0,0
9,99999,72,90000,2,10000,40,9999,0.100000,0,0,0.000000,5,0.000000,0.000000,0.609932,0,0,0,0,0,0,0
9,99999,73,90000,52,10000,40,9999,0.100000,0,0,0.000000,5,0.000000,0.000000,0.514958,0,0,0,0,0,0,0
9,99999,74,90000,33,0,40,9999,0.100000,0,0,0.000000,5,0.000000,0.000000,1.783497,0,0,0,0,0,0,0
9,99999,75,90000,25,60000,40,9999,0.100000,0,0,0.000000,5,0.000000,0.000000,0.152032,0,0,0,0,0,0,0
9,99999,76,90000,52,10000,40,9999,0.100000,0,0,0.000000,5,0.000000,0.000000,0.153445,0,0,0,0,0,0,0
9,99999,77,90000,33,0,40,9999,0.100000,0,0,0.000000,5,0.000000,0.000000,1.137873,0,0,0,0,0,0,0
9,99999,78,90000,2,10000,40,9999,0.100000,0,0,0.000000,5,0.000000,0.000000,0.146092,0,0,0,0,0,0,0
9,99999,79,90000,25,60000,40,9999,0.100000,0,0,0.000000,5,0.000000,0.000000,0.129642,0,0,0,0,0,0,0
9,99999,80,90000,25,60000,40,9999,0.100000,0,0,0.000000,5,0.000000,0.000000,0.401378,0,0,0,0,0,0,0
9,99999,81,90000,33,0,40,9999,0.100000,0,0,0.000000,5,0.000000,0.000000,0.148932,0,0,0,0,0,0,0
9,99999,82,90000,91,0,49,9999,0.100000,0,0,0.000000,5,1.000000,0.000000,1.866686,0,0,0,0,0,0,0
9,99999,83,90000,33,0,40,9999,0.100000,0,0,0.000000,5,0.000000,0.000000,0.254661,0,0,0,0,0,0,0
9,99999,84,90000,52,10000,40,9999,0.100000,0,0,0.000000,5,0.000000,0.000000,0.704134,0,0,0,0,0,0,0
9,99999,85,90000,33,0,40,9999,0.100000,0,0,0.000000,5,0.000000,0.000000,0.447568,0,0,0,0,0,0,0
9,99999,86,90000,25,60000,40,9999,0.100000,0,0,0.000000,5,0.000000,0.000000,0.431839,0,0,0,0,0,0,0
9,99999,87,90000,25,60000,49,9999,0.100000,0,0,0.000000,5,1.000000,0.000000,2.935967,0,0,0,0,0,0,0
9,99999,88,90000,52,10000,40,9999,0.100000,0,0,0.000000,5,0.000000,0.000000,0.403174,0,0,0,0,0,0,0
9,99999,89,90000,91,0,40,9999,0.100000,0,0,0.000000,5,0.000000,0.000000,0.160683,0,0,0,0,0,0,0
9,99999,90,90000,52,10000,49,9999,0.100000,0,0,0.000000,5,1.000000,0.000000,1.150328,0,0,0,0,0,0,0
9,99999,91,90000,52,10000,40,9999,0.100000,0,0,0.000000,5,0.000000,0.000000,0.921995,0,0,0,0,0,0,0
9,99999,92,90000,33,0,49,9999,0.100000,0,0,0.000000,5,2.000000,0.000000,6.194092,0,0,0,0,0,0,0
9,99999,93,80000,2,10000,40,19999,0.100000,0,0,0.000000,5,0.000000,0.000000,0.425968,0,0,0,0,0,0,0
9,99999,94,90000,91,0,40,9999,0.100000,0,0,0.000000,5,0.000000,0.000000,0.161529,0,0,0,0,0,0,0
9,99999,95,90000,52,10000,40,9999,0.100000,0,0,0.000000,5,0.000000,0.000000,0.217464,0,0,0,0,0,0,0
9,99999,96,90000,52,10000,40,9999,0.100000,0,0,0.000000,5,0.000000,0.000000,1.374004,0,0,0,0,0,0,0
9,99999,97,90000,25,60000,40,9999,0.100000,0,0,0.000000,5,0.000000,0.000000,0.103547,0,0,0,0,0,0,0
9,99999,98,90000,91,0,40,9999,0.100000,0,0,0.000000,5,0.000000,0.000000,21.985332,0,0,0,0,0,0,0
9,99999,99,90000,91,0,40,9999,0.100000,0,0,0.000000,5,0.000000,0.000000,0.183476,0,0,0,0,0,0,0
10,109999,0,100000,91,0,40,9999,0.100000,0,0,0.000000,5,0.000000,0.000000,0.166090,0,0,0,0,0,0,0
10,109999,1,100000,25,60000,40,9999,0.100000,0,0,0.000000,5,0.000000,0.000000,0.132761,0,0,0,0,0,0,0
10,109999,2,100000,91,0,40,9999,0.100000,0,0,0.000000,5,0.000000,0.000000,0.191177,0,0,0,0,0,0,0
10,109999,3,100000,33,0,49,9999,0.100000,0,0,0.000000,5,4.000000,0.000000,4.119117,0,0,0,0,0,0,0
10,109999,4,100000,25,60000,40,9999,0.100000,0,0,0.000000,5,0.000000,0.000000,0.244546,0,0,0,0,0,0,0
10,109999,5,100000,91,0,49,9999,0.100000,0,0,0.000000,5,4.000000,0.000000,9.145291,0,0,0,0,0,0,0
10,109999,6,100000,33,0,40,9999,0.100000,0,0,0.000000,5,0.000000,0.000000,0.742967,0,0,0,0,0,0,0
10,109999,7,100000,2,10000,40,9999,0.100000,0,0,0.000000,5,0.000000,0.000000,1.017891,0,0,0,0,0,0,0
10,109999,8,100000,2,10000,40,9999,0.100000,0,0,0.000000,5,0.000000,0.000000,0.891443,0,0,0,0,0,0,0
10,109999,9,100000,2,10000,40,9999,0.100000,0,0,0.000000,5,0.000000,0.000000,0.932635,0,0,0,0,0,0,0
10,109999,10,100000,91,0,40,9999,0.100000,0,0,0.000000,5,0.000000,0.000000,0.782715,0,0,0,0,0,0,0
10,109999,11,100000,33,0,40,9999,0.100000,0,0,0.000000,5,0.000000,0.000000,4.803486,0,0,0,0,0,0,0
10,109999,12,100000,25,60000,40,9999,0.100000,0,0,0.000000,5,0.000000,0.000000,0.170007,0,0,0,0,0,0,0
10,109999,13,100000,25,60000,40,9999,0.100000,0,0,0.000000,5,0.000000,0.000000,1.143276,0,0,0,0,0,0,0
10,109999,14,100000,25,60000,40,9999,0.100000,0,0,0.000000,5,0.000000,0.000000,1.156371,0,0,0,0,0,0,0
10,109999,15,100000,33,0,40,9999,0.100000,0,0,0.000000,5,0.000000,0.000000,0.157079,0,0,0,0,0,0,0
10,109999,16,100000,91,0,40,9999,0.100000,0,0,0.000000,5,0.000000,0.000000,0.152136,0,0,0,0,0,0,0
10,109999,17,100000,25,60000,40,9999,0.100000,0,0,0.000000,5,0.000000,0.000000,0.822367,0,0,0,0,0,0,0
10,109999,18,100000,33,0,40,9999,0.100000,0,0,0.000000,5,0.000000,0.000000,1.272060,0,0,0,0,0,0,0
10,109999,19,100000,2,10000,40,9999,0.100000,0,0,0.000000,5,0.000000,0.000000,0.651997,0,0,0,0,0,0,0
10,109999,20,100000,91,0,49,9999,0.100000,0,0,0.000000,5,3.000000,0.000000,3.969460,0,0,0,0,0,0,0
10,109999,21,100000,25,60000,40,9999,0.100000,0,0,0.000000,5,0.000000,0.000000,0.106638,0,0,0,0,0,0,0
10,109999,22,100000,33,0,40,9999,0.100000,0,0,0.000000,5,0.000000,0.000000,5.158900,0,0,0,0,0,0,0
10,109999,23,100000,2,10000,40,9999,0.100000,0,0,0.000000,5,0.000000,0.000000,0.303391,0,0,0,0,0,0,0
10,109999,24,100000,33,0,40,9999,0.100000,0,0,0.000000,5,0.000000,0.000000,1.159425,0,0,0,0,0,0,0
10,109999,25,100000,52,10000,40,9999,0.100000,0,0,0.000000,5,0.000000,0.000000,0.623831,0,0,0,0,0,0,0
10,109999,26,100000,91,0,40,9999,0.100000,0,0,0.000000,5,0.000000,0.000000,0.120937,0,0,0,0,0,0,0
10,109999,27,100000,52,10000,40,9999,0.100000,0,0,0.000000,5,0.000000,0.000000,1.312381,0,0,0,0,0,0,0
10,109999,28,100000,33,0,49,9999,0.100000,0,0,0.000000,5,1.000000,0.000000,1.523844,0,0,0,0,0,0,0
10,109999,29,100000,25,60000,40,9999,0.100000,0,0,0.000000,5,0.000000,0.000000,0.829755,0,0,0,0,0,0,0
10,109999,30,100000,33,0,40,9999,0.100000,0,0,0.000000,5,0.000000,0.000000,0.171550,0,0,0,0,0,0,0
10,109999,31,100000,52,10000,40,9999,0.100000,0,0,0.000000,5,0.000000,0.000000,1.364064,0,0,0,0,0,0,0
10,109999,32,100000,25,60000,40,9999,0.100000,0,0,0.000000,5,0.000000,0.000000,4.975966,0,0,0,0,0,0,0
10,109999,33,100000,52,10000,40,9999,0.100000,0,0,0.000000,5,0.000000,0.000000,1.024720,0,0,0,0,0,0,0
10,109999,34,100000,91,0,40,9999,0.100000,0,0,0.000000,5,0.000000,0.000000,0.645517,0,0,0,0,0,0,0
10,109999,35,100000,33,0,40,9999,0.100000,0,0,0.000000,5,0.000000,0.000000,0.469815,0,0,0,0,0,0,0
10,109999,36,100000,52,10000,40,9999,0.100000,0,0,0.000000,5,0.000000,0.000000,0.170278,0,0,0,0,0,0,0
10,109999,37,100000,25,60000,40,9999,0.100000,0,0,0.000000,5,0.000000,0.000000,0.234001,0,0,0,0,0,0,0
10,109999,38,100000,2,10000,40,9999,0.100000,0,0,0.000000,5,0.000000,0.000000,2.555249,0,0,0,0,0,0,0
10,109999,39,100000,91,0,40,9999,0.100000,0,0,0.000000,5,0.000000,0.000000,0.619869,0,0,0,0,0,0,0
10,109999,40,100000,33,0,40,9999,0.100000,0,0,0.000000,5,0.000000,0.000000,0.159681,0,0,0,0,0,0,0
10,109999,41,100000,91,0,40,9999,0.100000,0,0,0.000000,5,0.000000,0.000000,0.478238,0,0,0,0,0,0,0
10,109999,42,100000,2,10000,40,9999,0.100000,0,0,0.000000,5,0.000000,0.000000,0.163764,0,0,0,0,0,0,0
10,109999,43,100000,52,10000,49,9999,0.100000,0,0,0.000000,5,6.000000,0.000000,26.856836,0,0,0,0,0,0,0
10,109999,44,100000,33,0,40,9999,0.100000,0,0,0.000000,5,0.000000,0.000000,0.103407,0,0,0,0,0,0,0
10,109999,45,100000,91,0,40,9999,0.100000,0,0,0.000000,5,0.000000,0.000000,0.360885,0,0,0,0,0,0,0
10,109999,46,100000,91,0,9,9999,0.100000,0,0,34.210526,5,2.000000,0.000000,6.401388,0,0,0,1,0,0,0
10,109999,47,100000,25,60000,40,9999,0.100000,0,0,0.000000,5,0.000000,0.000000,0.793897,0,0,0,0,0,0,0
10,109999,48,100000,33,0,40,9999,0.100000,0,0,0.000000,5,0.000000,0.000000,0.224902,0,0,0,0,0,0,0
10,109999,49,100000,2,10000,40,9999,0.100000,0,0,0.000000,5,0.000000,0.000000,0.550613,0,0,0,0,0,0,0
10,109999,50,100000,33,0,40,9999,0.100000,0,0,0.000000,5,0.000000,0.000000,0.394109,0,0,0,0,0,0,0
10,109999,51,100000,33,0,40,9999,0.100000,0,0,0.000000,5,0.000000,0.000000,1.072427,0,0,0,0,0,0,0
10,109999,52,100000,52,10000,40,9999,0.100000,0,0,0.000000,5,0.000000,0.000000,1.572240,0,0,0,0,0,0,0
10,109999,53,100000,2,10000,49,9999,0.100000,0,0,0.000000,5,1.000000,0.000000,2.012494,0,0,0,0,0,0,0
10,109999,54,100000,52,10000,40,9999,0.100000,0,0,0.000000,5,0.000000,0.000000,1.690684,0,0,0,0,0,0,0
10,109999,55,100000,25,60000,40,9999,0.100000,0,0,0.000000,5,0.000000,0.000000,0.132752,0,0,0,0,0,0,0
10,109999,56,100000,33,0,40,9999,0.100000,0,0,0.000000,5,0.000000,0.000000,0.609311,0,0,0,0,0,0,0
10,109999,57,100000,91,0,40,9999,0.100000,0,0,0.000000,5,0.000000,0.000000,0.551393,0,0,0,0,0,0,0
10,109999,58,100000,25,60000,49,9999,0.100000,0,0,0.000000,5,2.000000,0.000000,6.666797,0,0,0,0,0,0,0
10,109999,59,100000,91,0,40,9999,0.100000,0,0,0.000000,5,0.000000,0.000000,0.284274,0,0,0,0,0,0,0
10,109999,60,100000,2,10000,40,9999,0.100000,0,0,0.000000,5,0.000000,0.000000,0.206844,0,0,0,0,0,0,0
10,109999,61,100000,33,0,49,9999,0.100000,0,0,0.000000,5,3.000000,0.000000,4.073505,0,0,0,0,0,0,0
10,109999,62,100000,33,0,40,9999,0.100000,0,0,0.000000,5,0.000000,0.000000,0.524580,0,0,0,0,0,0,0
10,109999,63,100000,33,0,40,9999,0.100000,0,0,0.000000,5,0.000000,0.000000,0.182184,0,0,0,0,0,0,0
10,109999,64,100000,33,0,40,9999,0.100000,0,0,0.000000,5,0.000000,0.000000,2.063368,0,0,0,0,0,0,0
10,109999,65,100000,2,10000,49,9999,0.100000,0,0,0.000000,5,1.000000,0.000000,1.433845,0,0,0,0,0,0,0
10,109999,66,100000,25,60000,9,9999,0.100000,0,0,34.210526,5,3.000000,0.000000,10.513941,0,0,0,1,0,0,0
10,109999,67,100000,2,10000,40,9999,0.100000,0,0,0.000000,5,0.000000,0.000000,0.656266,0,0,0,0,0,0,0
10,109999,68,100000,33,0,40,9999,0.100000,0,0,0.000000,5,0.000000,0.000000,5.440828,0,0,0,0,0,0,0
10,109999,69,100000,91,0,49,9999,0.100000,0,0,0.000000,5,4.000000,0.000000,9.504302,0,0,0,0,0,0,0
10,109999,70,100000,33,0,40,9999,0.100000,0,0,0.000000,5,0.000000,0.000000,0.303922,0,0,0,0,0,0,0
10,109999,71,100000,25,60000,40,9999,0.100000,0,0,0.000000,5,0.000000,0.000000,0.793515,0,0,0,0,0,0,0
10,109999,72,100000,91,0,40,9999,0.100000,0,0,0.000000,5,0.000000,0.000000,0.664576,0,0,0,0,0,0,0
10,109999,73,100000,2,10000,40,9999,0.100000,0,0,0.000000,5,0.000000,0.000000,0.587886,0,0,0,0,0,0,0
10,109999,74,100000,33,0,40,9999,0.135000,0,0,0.000000,5,0.000000,0.000000,0.787031,0,0,0,0,0,0,0
10,109999,75,100000,2,10000,40,9999,0.100000,0,0,0.000000,5,0.000000,0.000000,0.567070,0,0,0,0,0,0,0
10,109999,76,100000,91,0,40,9999,0.100000,0,0,0.000000,5,0.000000,0.000000,0.157176,0,0,0,0,0,0,0
10,109999,77,100000,52,10000,40,9999,0.100000,0,0,0.000000,5,0.000000,0.000000,0.149110,0,0,0,0,0,0,0
10,109999,78,100000,2,10000,40,9999,0.100000,0,0,0.000000,5,0.000000,0.000000,0.230761,0,0,0,0,0,0,0
10,109999,79,100000,2,10000,40,9999,0.100000,0,0,0.000000,5,0.000000,0.000000,0.131112,0,0,0,0,0,0,0
10,109999,80,100000,2,10000,40,9999,0.100000,0,0,0.000000,5,0.000000,0.000000,0.438776,0,0,0,0,0,0,0
10,109999,81,100000,25,60000,40,9999,0.100000,0,0,0.000000,5,0.000000,0.000000,0.155759,0,0,0,0,0,0,0
10,109999,82,100000,33,0,49,9999,0.100000,0,0,0.000000,5,3.000000,0.000000,3.979643,0,0,0,0,0,0,0
10,109999,83,100000,2,10000,40,9999,0.100000,0,0,0.000000,5,0.000000,0.000000,0.559383,0,0,0,0,0,0,0
10,109999,84,100000,52,10000,40,9999,0.100000,0,0,0.000000,5,0.000000,0.000000,0.254559,0,0,0,0,0,0,0
10,109999,85,100000,25,60000,40,9999,0.100000,0,0,0.000000,5,0.000000,0.000000,0.444973,0,0,0,0,0,0,0
10,109999,86,100000,2,10000,40,9999,0.100000,0,0,0.000000,5,0.000000,0.000000,0.347545,0,0,0,0,0,0,0
10,109999,87,100000,91,0,49,9999,0.100000,0,0,0.000000,5,3.000000,0.000000,8.125163,0,0,0,0,0,0,0
10,109999,88,100000,25,60000,40,9999,0.100000,0,0,0.000000,5,0.000000,0.000000,0.459404,0,0,0,0,0,0,0
10,109999,89,100000,2,10000,40,9999,0.100000,0,0,0.000000,5,0.000000,0.000000,0.126067,0,0,0,0,0,0,0
10,109999,90,100000,25,60000,40,9999,0.100000,0,0,0.000000,5,0.000000,0.000000,0.166927,0,0,0,0,0,0,0
10,109999,91,100000,33,0,40,9999,0.100000,0,0,0.000000,5,0.000000,0.000000,2.693695,0,0,0,0,0,0,0
10,109999,92,100000,52,10000,40,9999,0.100000,0,0,0.000000,5,0.000000,0.000000,3.875386,0,0,0,0,0,0,0
10,109999,93,100000,33,0,40,9999,0.100000,0,0,0.000000,5,0.000000,0.000000,0.399471,0,0,0,0,0,0,0
10,109999,94,100000,91,0,40,9999,0.100000,0,0,0.000000,5,0.000000,0.000000,0.311604,0,0,0,0,0,0,0
10,109999,95,100000,25,60000,40,9999,0.100000,0,0,0.000000,5,0.000000,0.000000,0.227220,0,0,0,0,0,0,0
10,109999,96,100000,52,10000,40,9999,0.100000,0,0,0.000000,5,0.000000,0.000000,0.713656,0,0,0,0,0,0,0
10,109999,97,100000,52,10000,40,9999,0.100000,0,0,0.000000,5,0.000000,0.000000,0.107332,0,0,0,0,0,0,0
10,109999,98,100000,91,0,49,9999,0.100000,0,0,0.000000,5,1.000000,0.000000,22.623415,0,0,0,0,0,0,0
10,109999,99,100000,91,0,40,9999,0.100000,0,0,0.000000,5,0.000000,0.000000,0.189480,0,0,0,0,0,0,0
11,119999,0,110000,33,0,40,9999,0.100000,0,0,0.000000,5,0.000000,0.000000,0.159441,0,0,0,0,0,0,0
11,119999,1,110000,25,60000,40,9999,0.100000,0,0,0.000000,5,0.000000,0.000000,0.134386,0,0,0,0,0,0,0
11,119999,2,110000,2,10000,40,9999,0.100000,0,0,0.000000,5,0.000000,0.000000,0.148216,0,0,0,0,0,0,0
11,119999,3,110000,25,60000,49,9999,0.100000,0,0,0.000000,5,2.000000,0.000000,2.147651,0,0,0,0,0,0,0
11,119999,4,110000,52,10000,40,9999,0.100000,0,0,0.000000,5,0.000000,0.000000,0.246550,0,0,0,0,0,0,0
11,119999,5,110000,2,10000,49,9999,0.100000,0,0,0.000000,5,1.000000,0.000000,2.741859,0,0,0,0,0,0,0
11,119999,6,110000,2,10000,40,9999,0.100000,0,0,0.000000,5,0.000000,0.000000,0.419202,0,0,0,0,0,0,0
11,119999,7,110000,2,10000,40,9999,0.100000,0,0,0.000000,5,0.000000,0.000000,3.830782,0,0,0,0,0,0,0
11,119999,8,110000,25,60000,40,9999,0.100000,0,0,0.000000,5,0.000000,0.000000,2.579086,0,0,0,0,0,0,0
11,119999,9,110000,2,10000,40,9999,0.100000,0,0,0.000000,5,0.000000,0.000000,1.385121,0,0,0,0,0,0,0
11,119999,10,110000,91,0,0,9999,0.100000,0,0,0.000000,5,0.000000,0.000000,5.710049,0,0,0,0,0,1,0
11,119999,11,110000,33,0,49,9999,0.100000,0,0,0.000000,5,2.000000,0.000000,9.443142,0,0,0,0,0,0,0
11,119999,12,110000,2,10000,40,9999,0.100000,0,0,0.000000,5,0.000000,0.000000,0.169822,0,0,0,0,0,0,0
11,119999,13,110000,33,0,40,9999,0.100000,0,0,0.000000,5,0.000000,0.000000,0.798867,0,0,0,0,0,0,0
11,119999,14,110000,52,10000,40,9999,0.100000,0,0,0.000000,5,0.000000,0.000000,0.944655,0,0,0,0,0,0,0
11,119999,15,110000,52,10000,40,9999,0.100000,0,0,0.000000,5,0.000000,0.000000,0.148356,0,0,0,0,0,0,0
11,119999,16,110000,33,0,40,9999,0.100000,0,0,0.000000,5,0.000000,0.000000,0.142709,0,0,0,0,0,0,0
11,119999,17,110000,2,10000,49,9999,0.135000,0,0,0.000000,5,1.000000,0.000000,5.432309,0,0,0,0,0,0,0
11,119999,18,110000,33,0,49,9999,0.100000,0,0,0.000000,5,1.000000,0.000000,7.915928,0,0,0,0,0,0,0
11,119999,19,110000,2,10000,49,9999,0.100000,0,0,0.000000,5,2.000000,0.000000,2.832277,0,0,0,0,0,0,0
11,119999,20,110000,25,60000,49,9999,0.100000,0,0,0.000000,5,2.000000,0.000000,2.223292,0,0,0,0,0,0,0
11,119999,21,110000,52,10000,40,9999,0.100000,0,0,0.000000,5,0.000000,0.000000,0.094739,0,0,0,0,0,0,0
11,119999,22,110000,33,0,49,9999,0.100000,0,0,0.000000,5,2.000000,0.000000,6.141989,0,0,0,0,0,0,0
11,119999,23,110000,91,0,40,9999,0.100000,0,0,0.000000,5,0.000000,0.000000,0.717101,0,0,0,0,0,0,0
11,119999,24,110000,25,60000,40,9999,0.100000,0,0,0.000000,5,0.000000,0.000000,1.115492,0,0,0,0,0,0,0
11,119999,25,110000,52,10000,40,9999,0.100000,0,0,0.000000,5,0.000000,0.000000,0.412672,0,0,0,0,0,0,0
11,119999,26,110000,2,10000,40,9999,0.100000,0,0,0.000000,5,0.000000,0.000000,0.125470,0,0,0,0,0,0,0
11,119999,27,110000,52,10000,49,9999,0.100000,0,0,0.000000,5,1.000000,0.000000,2.008691,0,0,0,0,0,0,0
11,119999,28,110000,33,0,40,9999,0.100000,0,0,0.000000,5,0.000000,0.000000,0.723893,0,0,0,0,0,0,0
11,119999,29,110000,25,60000,49,9999,0.100000,0,0,0.000000,5,3.000000,0.000000,6.929212,0,0,0,0,0,0,0
11,119999,30,110000,25,60000,40,9999,0.100000,0,0,0.000000,5,0.000000,0.000000,0.208580,0,0,0,0,0,0,0
11,119999,31,110000,33,0,49,9999,0.100000,0,0,0.000000,5,2.000000,0.000000,19.755364,0,0,0,0,0,0,0
11,119999,32,110000,52,10000,49,9999,0.100000,0,0,0.000000,5,1.000000,0.000000,2.193835,0,0,0,0,0,0,0
11,119999,33,110000,25,60000,9,9999,0.100000,0,0,0.000000,5,1.000000,0.000000,7.453007,0,0,0,0,0,1,0
11,119999,34,110000,91,0,40,9999,0.100000,0,0,0.000000,5,0.000000,0.000000,0.459883,0,0,0,0,0,0,0
11,119999,35,110000,91,0,40,9999,0.100000,0,0,0.000000,5,0.000000,0.000000,0.937928,0,0,0,0,0,0,0
11,119999,36,110000,2,10000,40,9999,0.100000,0,0,0.000000,5,0.000000,0.000000,0.141423,0,0,0,0,0,0,0
11,119999,37,110000,52,10000,40,9999,0.100000,0,0,0.000000,5,0.000000,0.000000,0.235353,0,0,0,0,0,0,0
11,119999,38,110000,2,10000,49,9999,0.100000,0,0,0.000000,5,4.000000,0.000000,5.720342,0,0,0,0,0,0,0
11,119999,39,110000,33,0,49,9999,0.100000,0,0,0.000000,5,2.000000,0.000000,2.120371,0,0,0,0,0,0,0
11,119999,40,110000,25,60000,40,9999,0.100000,0,0,0.000000,5,0.000000,0.000000,0.101441,0,0,0,0,0,0,0
11,119999,41,110000,2,10000,49,9999,0.100000,0,0,0.000000,5,1.000000,0.000000,1.883703,0,0,0,0,0,0,0
11,119999,42,110000,2,10000,40,9999,0.100000,0,0,0.000000,5,0.000000,0.000000,0.131987,0,0,0,0,0,0,0
11,119999,43,110000,52,10000,40,9999,0.100000,0,0,0.000000,5,0.000000,0.000000,23.788332,0,0,0,0,0,0,0
11,119999,44,110000,2,10000,40,9999,0.100000,0,0,0.000000,5,0.000000,0.000000,0.126178,0,0,0,0,0,0,0
11,119999,45,110000,2,10000,40,9999,0.100000,0,0,0.000000,5,0.000000,0.000000,0.858954,0,0,0,0,0,0,0
11,119999,46,110000,2,10000,40,9999,0.100000,0,0,0.000000,5,0.000000,0.000000,1.906227,0,0,0,0,0,0,0
11,119999,47,110000,25,60000,40,9999,0.100000,0,0,0.000000,5,0.000000,0.000000,0.717917,0,0,0,0,0,0,0
11,119999,48,110000,52,10000,40,9999,0.100000,0,0,0.000000,5,0.000000,0.000000,0.225493,0,0,0,0,0,0,0
11,119999,49,110000,2,10000,40,9999,0.100000,0,0,0.000000,5,0.000000,0.000000,1.267425,0,0,0,0,0,0,0
11,119999,50,110000,25,60000,40,9999,0.100000,0,0,0.000000,5,0.000000,0.000000,0.302999,0,0,0,0,0,0,0
11,119999,51,110000,91,0,40,9999,0.100000,0,0,0.000000,5,0.000000,0.000000,1.072519,0,0,0,0,0,0,0
11,119999,52,110000,91,0,49,9999,0.100000,0,0,0.000000,5,3.000000,0.000000,9.095719,0,0,0,0,0,0,0
11,119999,53,110000,25,60000,49,9999,0.100000,0,0,0.000000,5,2.000000,0.000000,24.690925,0,0,0,0,0,0,0
11,119999,54,100000,52,10000,40,19999,0.100000,0,0,0.000000,5,0.000000,0.000000,0.140250,0,0,0,0,0,0,0
11,119999,55,110000,33,0,40,9999,0.100000,0,0,0.000000,5,0.000000,0.000000,0.160704,0,0,0,0,0,0,0
11,119999,56,110000,52,10000,40,9999,0.100000,0,0,0.000000,5,0.000000,0.000000,0.689476,0,0,0,0,0,0,0
11,119999,57,110000,2,10000,49,9999,0.100000,0,0,0.000000,5,2.000000,0.000000,2.666711,0,0,0,0,0,0,0
11,119999,58,110000,25,60000,40,9999,0.100000,0,0,0.000000,5,0.000000,0.000000,0.669276,0,0,0,0,0,0,0
11,119999,59,110000,91,0,40,9999,0.100000,0,0,0.000000,5,0.000000,0.000000,0.570801,0,0,0,0,0,0,0
11,119999,60,110000,25,60000,40,9999,0.100000,0,0,0.000000,5,0.000000,0.000000,0.121577,0,0,0,0,0,0,0
11,119999,61,110000,52,10000,49,9999,0.100000,0,0,0.000000,5,2.000000,0.000000,2.153820,0,0,0,0,0,0,0
11,119999,62,110000,25,60000,40,9999,0.100000,0,0,0.000000,5,0.000000,0.000000,0.644875,0,0,0,0,0,0,0
11,119999,63,110000,91,0,40,9999,0.100000,0,0,0.000000,5,0.000000,0.000000,0.691345,0,0,0,0,0,0,0
11,119999,64,110000,91,0,40,9999,0.100000,0,0,0.000000,5,0.000000,0.000000,2.036014,0,0,0,0,0,0,0
11,119999,65,110000,25,60000,40,9999,0.100000,0,0,0.000000,5,0.000000,0.000000,0.560980,0,0,0,0,0,0,0
11,119999,66,110000,33,0,40,9999,0.100000,0,0,0.000000,5,0.000000,0.000000,3.034370,0,0,0,0,0,0,0
11,119999,67,110000,52,10000,40,9999,0.100000,0,0,0.000000,5,0.000000,0.000000,0.623963,0,0,0,0,0,0,0
11,119999,68,110000,33,0,40,9999,0.135000,0,0,0.000000,5,0.000000,0.000000,6.149841,0,0,0,0,0,0,0
11,119999,69,110000,25,60000,40,9999,0.100000,0,0,0.000000,5,0.000000,0.000000,0.486585,0,0,0,0,0,0,0
11,119999,70,110000,2,10000,40,9999,0.100000,0,0,0.000000,5,0.000000,0.000000,0.281368,0,0,0,0,0,0,0
11,119999,71,110000,2,10000,40,9999,0.100000,0,0,0.000000,5,0.000000,0.000000,3.778042,0,0,0,0,0,0,0
11,119999,72,110000,52,10000,40,9999,0.100000,0,0,0.000000,5,0.000000,0.000000,1.812575,0,0,0,0,0,0,0
11,119999,73,110000,25,60000,49,9999,0.100000,0,0,0.000000,5,3.000000,0.000000,9.489636,0,0,0,0,0,0,0
11,119999,74,110000,2,10000,40,9999,0.100000,0,0,0.000000,5,0.000000,0.000000,0.418541,0,0,0,0,0,0,0
11,119999,75,110000,2,10000,49,9999,0.100000,0,0,0.000000,5,1.000000,0.000000,2.282817,0,0,0,0,0,0,0
11,119999,76,110000,91,0,40,9999,0.100000,0,0,0.000000,5,0.000000,0.000000,0.160261,0,0,0,0,0,0,0
11,119999,77,110000,25,60000,40,9999,0.100000,0,0,0.000000,5,0.000000,0.000000,0.108200,0,0,0,0,0,0,0
11,119999,78,110000,2,10000,40,9999,0.100000,0,0,0.000000,5,0.000000,0.000000,0.327714,0,0,0,0,0,0,0
11,119999,79,110000,33,0,40,9999,0.100000,0,0,0.000000,5,0.000000,0.000000,0.138351,0,0,0,0,0,0,0
11,119999,80,110000,52,10000,40,9999,0.100000,0,0,0.000000,5,0.000000,0.000000,1.552654,0,0,0,0,0,0,0
11,119999,81,110000,52,10000,40,9999,0.100000,0,0,0.000000,5,0.000000,0.000000,0.137002,0,0,0,0,0,0,0
11,119999,82,110000,91,0,49,9999,0.100000,0,0,0.000000,5,2.000000,0.000000,2.194032,0,0,0,0,0,0,0
11,119999,83,110000,33,0,49,9999,0.100000,0,0,0.000000,5,1.000000,0.000000,2.024647,0,0,0,0,0,0,0
11,119999,84,110000,2,10000,40,9999,0.100000,0,0,0.000000,5,0.000000,0.000000,0.283791,0,0,0,0,0,0,0
11,119999,85,110000,91,0,40,9999,0.100000,0,0,0.000000,5,0.000000,0.000000,0.227971,0,0,0,0,0,0,0
11,119999,86,110000,2,10000,40,9999,0.100000,0,0,0.000000,5,0.000000,0.000000,0.628054,0,0,0,0,0,0,0
11,119999,87,110000,91,0,49,9999,0.100000,0,0,0.000000,5,5.000000,0.000000,6.826469,0,0,0,0,0,0,0
11,119999,88,110000,25,60000,40,9999,0.100000,0,0,0.000000,5,0.000000,0.000000,1.062920,0,0,0,0,0,0,0
11,119999,89,110000,91,0,40,9999,0.100000,0,0,0.000000,5,0.000000,0.000000,0.116002,0,0,0,0,0,0,0
11,119999,90,110000,2,10000,40,9999,0.100000,0,0,0.000000,5,0.000000,0.000000,0.863668,0,0,0,0,0,0,0
11,119999,91,110000,33,0,49,9999,0.100000,0,0,0.000000,5,3.000000,0.000000,6.298556,0,0,0,0,0,0,0
11,119999,92,110000,91,0,49,9999,0.100000,0,0,0.000000,5,1.000000,0.000000,11.075422,0,0,0,0,0,0,0
11,119999,93,110000,52,10000,40,9999,0.100000,0,0,0.000000,5,0.000000,0.000000,1.319832,0,0,0,0,0,0,0
11,119999,94,110000,52,10000,40,9999,0.100000,0,0,0.000000,5,0.000000,0.000000,0.268091,0,0,0,0,0,0,0
11,119999,95,110000,25,60000,40,9999,0.100000,0,0,0.000000,5,0.000000,0.000000,0.216741,0,0,0,0,0,0,0
11,119999,96,110000,25,60000,9,9999,0.100000,0,0,0.000000,5,6.000000,0.000000,23.783081,0,0,0,0,0,1,0
11,119999,97,110000,52,10000,40,9999,0.100000,0,0,0.000000,5,0.000000,0.000000,0.107112,0,0,0,0,0,0,0
11,119999,98,110000,25,60000,9,9999,0.100000,0,0,0.000000,5,1.000000,0.000000,7.272366,0,0,0,0,0,1,0
11,119999,99,110000,25,60000,40,9999,0.100000,0,0,0.000000,5,0.000000,0.000000,0.195226,0,0,0,0,0,0,0
12,129999,0,120000,52,10000,40,9999,0.065000,0,0,0.000000,5,0.000000,0.000000,0.158383,0,0,0,0,0,0,0
12,129999,1,120000,52,10000,40,9999,0.100000,0,0,0.000000,5,0.000000,0.000000,0.133778,0,0,0,0,0,0,0
12,129999,2,120000,33,0,40,9999,0.100000,0,0,0.000000,5,0.000000,0.000000,0.201615,0,0,0,0,0,0,0
12,129999,3,120000,91,0,40,9999,0.100000,0,0,0.000000,5,0.000000,0.000000,0.939905,0,0,0,0,0,0,0
12,129999,4,120000,52,10000,40,9999,0.100000,0,0,0.000000,5,0.000000,0.000000,0.257741,0,0,0,0,0,0,0
12,129999,5,120000,91,0,49,9999,0.100000,0,0,0.000000,5,3.000000,0.000000,6.880296,0,0,0,0,0,0,0
12,129999,6,120000,2,10000,40,9999,0.100000,0,0,0.000000,5,0.000000,0.000000,0.174209,0,0,0,0,0,0,0
12,129999,7,120000,91,0,49,9999,0.100000,0,0,0.000000,5,1.000000,0.000000,3.536305,0,0,0,0,0,0,0
12,129999,8,120000,91,0,40,9999,0.100000,0,0,0.000000,5,0.000000,0.000000,4.291284,0,0,0,0,0,0,0
12,129999,9,120000,52,10000,40,9999,0.100000,0,0,0.000000,5,0.000000,0.000000,0.507609,0,0,0,0,0,0,0
12,129999,10,120000,25,60000,40,9999,0.100000,0,0,0.000000,5,0.000000,0.000000,4.729061,0,0,0,0,0,0,0
12,129999,11,120000,25,60000,49,9999,0.100000,0,0,0.000000,5,1.000000,0.000000,3.448149,0,0,0,0,0,0,0
12,129999,12,120000,52,10000,40,9999,0.100000,0,0,0.000000,5,0.000000,0.000000,0.169545,0,0,0,0,0,0,0
12,129999,13,120000,2,10000,40,9999,0.100000,0,0,0.000000,5,0.000000,0.000000,1.092488,0,0,0,0,0,0,0
12,129999,14,120000,2,10000,40,9999,0.100000,0,0,0.000000,5,0.000000,0.000000,0.805510,0,0,0,0,0,0,0
12,129999,15,120000,2,10000,40,9999,0.100000,0,0,0.000000,5,0.000000,0.000000,0.122168,0,0,0,0,0,0,0
12,129999,16,120000,52,10000,40,9999,0.100000,0,0,0.000000,5,0.000000,0.000000,0.141563,0,0,0,0,0,0,0
12,129999,17,120000,2,10000,49,9999,0.135000,0,0,0.000000,5,1.000000,0.000000,3.021870,0,0,0,0,0,0,0
12,129999,18,120000,52,10000,49,9999,0.100000,0,0,0.000000,5,2.000000,0.000000,5.345516,0,0,0,0,0,0,0
12,129999,19,120000,33,0,40,9999,0.100000,0,0,0.000000,5,0.000000,0.000000,0.542447,0,0,0,0,0,0,0
12,129999,20,120000,91,0,40,9999,0.100000,0,0,0.000000,5,0.000000,0.000000,0.948055,0,0,0,0,0,0,0
12,129999,21,120000,2,10000,40,9999,0.100000,0,0,0.000000,5,0.000000,0.000000,0.094720,0,0,0,0,0,0,0
12,129999,22,120000,2,10000,40,9999,0.100000,0,0,0.000000,5,0.000000,0.000000,0.720592,0,0,0,0,0,0,0
12,129999,23,120000,33,0,40,9999,0.100000,0,0,0.000000,5,0.000000,0.000000,1.142356,0,0,0,0,0,0,0
12,129999,24,120000,91,0,40,9999,0.100000,0,0,0.000000,5,0.000000,0.000000,1.067716,0,0,0,0,0,0,0
12,129999,25,120000,91,0,40,9999,0.100000,0,0,0.000000,5,0.000000,0.000000,0.324458,0,0,0,0,0,0,0
12,129999,26,120000,91,0,40,9999,0.100000,0,0,0.000000,5,0.000000,0.000000,0.150734,0,0,0,0,0,0,0
12,129999,27,120000,33,0,49,9999,0.100000,0,0,0.000000,5,2.000000,0.000000,3.414989,0,0,0,0,0,0,0
12,129999,28,120000,91,0,40,9999,0.100000,0,0,0.000000,5,0.000000,0.000000,0.517144,0,0,0,0,0,0,0
12,129999,29,120000,33,0,40,9999,0.100000,0,0,0.000000,5,0.000000,0.000000,0.527971,0,0,0,0,0,0,0
12,129999,30,120000,2,10000,40,9999,0.100000,0,0,0.000000,5,0.000000,0.000000,0.333874,0,0,0,0,0,0,0
12,129999,31,120000,52,10000,40,9999,0.100000,0,0,0.000000,5,0.000000,0.000000,2.457215,0,0,0,0,0,0,0
12,129999,32,120000,33,0,40,9999,0.100000,0,0,0.000000,5,0.000000,0.000000,0.430556,0,0,0,0,0,0,0
12,129999,33,120000,2,10000,40,9999,0.100000,0,0,0.000000,5,0.000000,0.000000,3.700866,0,0,0,0,0,0,0
12,129999,34,120000,33,0,40,9999,0.100000,0,0,0.000000,5,0.000000,0.000000,0.312741,0,0,0,0,0,0,0
12,129999,35,120000,91,0,40,9999,0.100000,0,0,0.000000,5,0.000000,0.000000,0.443354,0,0,0,0,0,0,0
12,129999,36,120000,33,0,40,9999,0.100000,0,0,0.000000,5,0.000000,0.000000,0.140863,0,0,0,0,0,0,0
12,129999,37,120000,52,10000,40,9999,0.100000,0,0,0.000000,5,0.000000,0.000000,0.230424,0,0,0,0,0,0,0
12,129999,38,120000,52,10000,40,9999,0.100000,0,0,0.000000,5,0.000000,0.000000,0.791549,0,0,0,0,0,0,0
