generation,iteration,robot,birthday,ancestor_id,ancestor_birthday,cell_id,age,sigma,maps,genomes,fitness,cells_in_map,dist_max,dist_pot_max,dist_total,com_rx,com_tx,obj_group1,obj_group2,obj_group3,obj_group4,obj_group5
0,9999,0,0,0,0,1,9999,0.100000,0,0,0.000000,0,3.000000,0.000000,5.036753,0,0,0,0,0,0,0
0,9999,1,0,1,0,1,9999,0.100000,0,0,0.000000,0,5.000000,0.000000,6.361283,0,0,0,0,0,0,0
0,9999,2,0,2,0,1,9999,0.100000,0,0,0.000000,0,6.000000,0.000000,17.393725,0,0,0,0,0,0,0
0,9999,3,0,3,0,1,9999,0.100000,0,0,0.000000,0,8.000000,0.000000,9.298887,0,0,0,0,0,0,0
0,9999,4,0,4,0,1,9999,0.100000,0,0,0.000000,0,11.000000,0.000000,22.812832,0,0,0,0,0,0,0
0,9999,5,0,5,0,3,9999,0.100000,0,0,47.368421,0,10.000000,0.000000,19.897052,0,0,1,0,0,0,0
0,9999,6,0,6,0,1,9999,0.100000,0,0,0.000000,0,8.000000,0.000000,14.393718,0,0,0,0,0,0,0
0,9999,7,0,7,0,1,9999,0.100000,0,0,0.000000,0,12.000000,0.000000,28.354397,0,0,0,0,0,0,0
0,9999,8,0,8,0,1,9999,0.100000,0,0,0.000000,0,9.000000,0.000000,10.623730,0,0,0,0,0,0,0
0,9999,9,0,9,0,1,9999,0.100000,0,0,0.000000,0,6.000000,0.000000,6.782849,0,0,0,0,0,0,0
0,9999,10,0,10,0,1,9999,0.100000,0,0,0.000000,0,3.000000,0.000000,6.352635,0,0,0,0,0,0,0
0,9999,11,0,11,0,1,9999,0.100000,0,0,0.000000,0,9.000000,0.000000,14.799121,0,0,0,0,0,0,0
0,9999,12,0,12,0,1,9999,0.100000,0,0,0.000000,0,5.000000,0.000000,22.201969,0,0,0,0,0,0,0
0,9999,13,0,13,0,1,9999,0.100000,0,0,0.000000,0,3.000000,0.000000,9.930164,0,0,0,0,0,0,0
0,9999,14,0,14,0,1,9999,0.100000,0,0,0.000000,0,5.000000,0.000000,13.675807,0,0,0,0,0,0,0
0,9999,15,0,15,0,1,9999,0.100000,0,0,0.000000,0,11.000000,0.000000,25.606736,0,0,0,0,0,0,0
0,9999,16,0,16,0,1,9999,0.100000,0,0,0.000000,0,8.000000,0.000000,11.992855,0,0,0,0,0,0,0
0,9999,17,0,17,0,1,9999,0.100000,0,0,0.000000,0,5.000000,0.000000,17.382999,0,0,0,0,0,0,0
0,9999,18,0,18,0,1,9999,0.100000,0,0,0.000000,0,4.000000,0.000000,5.127687,0,0,0,0,0,0,0
0,9999,19,0,19,0,1,9999,0.100000,0,0,0.000000,0,12.000000,0.000000,19.186649,0,0,0,0,0,0,0
0,9999,20,0,20,0,1,9999,0.100000,0,0,0.000000,0,4.000000,0.000000,4.640879,0,0,0,0,0,0,0
0,9999,21,0,21,0,1,9999,0.100000,0,0,0.000000,0,11.000000,0.000000,15.956476,0,0,0,0,0,0,0
0,9999,22,0,22,0,1,9999,0.100000,0,0,0.000000,0,8.000000,0.000000,18.780380,0,0,0,0,0,0,0
0,9999,23,0,23,0,1,9999,0.100000,0,0,0.000000,0,6.000000,0.000000,11.956874,0,0,0,0,0,0,0
0,9999,24,0,24,0,1,9999,0.100000,0,0,0.000000,0,11.000000,0.000000,17.652793,0,0,0,0,0,0,0
0,9999,25,0,25,0,1,9999,0.100000,0,0,0.000000,0,5.000000,0.000000,7.026329,0,0,0,0,0,0,0
0,9999,26,0,26,0,1,9999,0.100000,0,0,0.000000,0,3.000000,0.000000,3.972474,0,0,0,0,0,0,0
0,9999,27,0,27,0,1,9999,0.100000,0,0,0.000000,0,10.000000,0.000000,12.722362,0,0,0,0,0,0,0
0,9999,28,0,28,0,1,9999,0.100000,0,0,0.000000,0,10.000000,0.000000,14.122084,0,0,0,0,1,0,0
0,9999,29,0,29,0,1,9999,0.100000,0,0,0.000000,0,1.000000,0.000000,3.153939,0,0,0,0,0,0,0
0,9999,30,0,30,0,1,9999,0.100000,0,0,0.000000,0,8.000000,0.000000,22.740654,0,0,0,0,0,0,0
0,9999,31,0,31,0,1,9999,0.100000,0,0,0.000000,0,10.000000,0.000000,13.405288,0,0,0,0,0,0,0
0,9999,32,0,32,0,1,9999,0.100000,0,0,0.000000,0,9.000000,0.000000,17.721082,0,0,0,0,0,0,0
0,9999,33,0,33,0,1,9999,0.100000,0,0,0.000000,0,10.000000,0.000000,13.079986,0,0,0,0,0,0,0
0,9999,34,0,34,0,1,9999,0.100000,0,0,0.000000,0,5.000000,0.000000,7.486478,0,0,0,0,0,0,0
0,9999,35,0,35,0,1,9999,0.100000,0,0,0.000000,0,8.000000,0.000000,12.696803,0,0,0,0,0,0,0
0,9999,36,0,36,0,1,9999,0.100000,0,0,0.000000,0,2.000000,0.000000,3.347634,0,0,0,0,0,0,0
0,9999,37,0,37,0,1,9999,0.100000,0,0,0.000000,0,5.000000,0.000000,11.787014,0,0,0,0,0,0,0
0,9999,38,0,38,0,1,9999,0.100000,0,0,0.000000,0,4.000000,0.000000,7.351642,0,0,0,0,0,0,0
0,9999,39,0,39,0,1,9999,0.100000,0,0,0.000000,0,6.000000,0.000000,12.417774,0,0,0,0,0,0,0
0,9999,40,0,40,0,1,9999,0.100000,0,0,0.000000,0,10.000000,0.000000,16.352610,0,0,0,0,0,0,0
0,9999,41,0,41,0,1,9999,0.100000,0,0,0.000000,0,11.000000,0.000000,13.353908,0,0,0,0,0,0,0
0,9999,42,0,42,0,1,9999,0.100000,0,0,0.000000,0,6.000000,0.000000,11.297224,0,0,0,0,0,0,0
0,9999,43,0,43,0,1,9999,0.100000,0,0,0.000000,0,4.000000,0.000000,6.955978,0,0,0,0,0,0,0
0,9999,44,0,44,0,1,9999,0.100000,0,0,0.000000,0,5.000000,0.000000,6.922265,0,0,0,0,0,0,0
0,9999,45,0,45,0,1,9999,0.100000,0,0,0.000000,0,4.000000,0.000000,7.345982,0,0,0,0,0,0,0
0,9999,46,0,46,0,1,9999,0.100000,0,0,0.000000,0,8.000000,0.000000,18.245546,0,0,0,0,0,0,0
0,9999,47,0,47,0,1,9999,0.100000,0,0,0.000000,0,5.000000,0.000000,8.787468,0,0,0,0,0,0,0
0,9999,48,0,48,0,1,9999,0.100000,0,0,0.000000,0,4.000000,0.000000,12.352857,0,0,0,0,0,0,0
0,9999,49,0,49,0,1,9999,0.100000,0,0,0.000000,0,7.000000,0.000000,8.000855,0,0,0,0,0,0,0
0,9999,50,0,50,0,1,9999,0.100000,0,0,0.000000,0,7.000000,0.000000,10.847611,0,0,0,0,0,0,0
0,9999,51,0,51,0,1,9999,0.100000,0,0,0.000000,0,6.000000,0.000000,7.886447,0,0,0,0,0,0,0
0,9999,52,0,52,0,1,9999,0.100000,0,0,0.000000,0,11.000000,0.000000,11.637067,0,0,0,0,0,0,0
0,9999,53,0,53,0,1,9999,0.100000,0,0,0.000000,0,9.000000,0.000000,10.941158,0,0,0,0,0,0,0
0,9999,54,0,54,0,1,9999,0.100000,0,0,0.000000,0,2.000000,0.000000,4.127495,0,0,0,0,0,0,0
0,9999,55,0,55,0,1,9999,0.100000,0,0,0.000000,0,5.000000,0.000000,10.026391,0,0,0,0,0,0,0
0,9999,56,0,56,0,1,9999,0.100000,0,0,0.000000,0,6.000000,0.000000,7.841324,0,0,0,0,0,0,0
0,9999,57,0,57,0,1,9999,0.100000,0,0,0.000000,0,5.000000,0.000000,14.560550,0,0,0,0,0,0,0
0,9999,58,0,58,0,1,9999,0.100000,0,0,0.000000,0,8.000000,0.000000,13.563491,0,0,0,0,0,0,0
0,9999,59,0,59,0,1,9999,0.100000,0,0,0.000000,0,8.000000,0.000000,14.622976,0,0,0,0,0,0,0
0,9999,60,0,60,0,1,9999,0.100000,0,0,0.000000,0,7.000000,0.000000,17.401912,0,0,0,0,0,0,0
0,9999,61,0,61,0,1,9999,0.100000,0,0,0.000000,0,9.000000,0.000000,11.726054,0,0,0,0,0,0,0
0,9999,62,0,62,0,1,9999,0.100000,0,0,0.000000,0,11.000000,0.000000,11.674565,0,0,0,0,0,0,0
0,9999,63,0,63,0,1,9999,0.100000,0,0,0.000000,0,6.000000,0.000000,10.587497,0,0,0,0,0,0,0
0,9999,64,0,64,0,1,9999,0.100000,0,0,0.000000,0,7.000000,0.000000,8.277228,0,0,0,0,0,0,0
0,9999,65,0,65,0,1,9999,0.100000,0,0,0.000000,0,9.000000,0.000000,9.685186,0,0,0,0,0,0,0
0,9999,66,0,66,0,1,9999,0.100000,0,0,0.000000,0,11.000000,0.000000,15.494999,0,0,0,0,0,0,0
0,9999,67,0,67,0,1,9999,0.100000,0,0,0.000000,0,10.000000,0.000000,11.408059,0,0,0,0,0,0,0
0,9999,68,0,68,0,1,9999,0.100000,0,0,0.000000,0,10.000000,0.000000,15.975422,0,0,0,0,0,0,0
0,9999,69,0,69,0,1,9999,0.100000,0,0,0.000000,0,6.000000,0.000000,8.172685,0,0,0,0,0,0,0
0,9999,70,0,70,0,1,9999,0.100000,0,0,0.000000,0,15.000000,0.000000,31.786976,0,0,0,0,0,0,0
0,9999,71,0,71,0,1,9999,0.100000,0,0,0.000000,0,3.000000,0.000000,3.455140,0,0,0,0,0,0,0
0,9999,72,0,72,0,1,9999,0.100000,0,0,0.000000,0,8.000000,0.000000,11.159508,0,0,0,0,0,0,0
0,9999,73,0,73,0,1,9999,0.100000,0,0,0.000000,0,4.000000,0.000000,10.841382,0,0,0,0,0,0,0
0,9999,74,0,74,0,1,9999,0.100000,0,0,0.000000,0,9.000000,0.000000,30.714673,0,0,0,0,0,0,0
0,9999,75,0,75,0,1,9999,0.100000,0,0,0.000000,0,10.000000,0.000000,14.949014,0,0,0,0,0,0,0
0,9999,76,0,76,0,1,9999,0.100000,0,0,0.000000,0,3.000000,0.000000,5.583034,0,0,0,0,0,0,0
0,9999,77,0,77,0,1,9999,0.100000,0,0,0.000000,0,7.000000,0.000000,8.191284,0,0,0,0,0,0,0
0,9999,78,0,78,0,1,9999,0.100000,0,0,0.000000,0,10.000000,0.000000,17.013450,0,0,0,0,0,0,0
0,9999,79,0,79,0,1,9999,0.100000,0,0,0.000000,0,9.000000,0.000000,21.735948,0,0,0,0,0,0,0
0,9999,80,0,80,0,1,9999,0.100000,0,0,0.000000,0,9.000000,0.000000,16.395164,0,0,0,0,0,0,0
0,9999,81,0,81,0,1,9999,0.100000,0,0,0.000000,0,5.000000,0.000000,5.928526,0,0,0,0,0,0,0
0,9999,82,0,82,0,1,9999,0.100000,0,0,0.000000,0,10.000000,0.000000,11.988402,0,0,0,0,0,0,0
0,9999,83,0,83,0,1,9999,0.100000,0,0,0.000000,0,9.000000,0.000000,30.010555,0,0,0,0,0,0,0
0,9999,84,0,84,0,1,9999,0.100000,0,0,0.000000,0,1.000000,0.000000,7.025713,0,0,0,0,0,0,0
0,9999,85,0,85,0,1,9999,0.100000,0,0,0.000000,0,3.000000,0.000000,9.598091,0,0,0,0,0,0,0
0,9999,86,0,86,0,1,9999,0.100000,0,0,0.000000,0,1.000000,0.000000,2.310775,0,0,0,0,0,0,0
0,9999,87,0,87,0,1,9999,0.100000,0,0,0.000000,0,10.000000,0.000000,17.210807,0,0,0,0,0,0,0
0,9999,88,0,88,0,1,9999,0.100000,0,0,0.000000,0,10.000000,0.000000,14.647896,0,0,0,0,0,0,0
0,9999,89,0,89,0,1,9999,0.100000,0,0,0.000000,0,7.000000,0.000000,23.241297,0,0,0,0,0,0,0
0,9999,90,0,90,0,1,9999,0.100000,0,0,0.000000,0,10.000000,0.000000,14.636224,0,0,0,0,0,0,0
0,9999,91,0,91,0,1,9999,0.100000,0,0,0.000000,0,5.000000,0.000000,5.933809,0,0,0,0,0,0,0
0,9999,92,0,92,0,1,9999,0.100000,0,0,0.000000,0,12.000000,0.000000,27.880740,0,0,0,0,0,0,0
0,9999,93,0,93,0,1,9999,0.100000,0,0,0.000000,0,11.000000,0.000000,20.147484,0,0,0,0,0,0,0
0,9999,94,0,94,0,1,9999,0.100000,0,0,0.000000,0,5.000000,0.000000,6.860567,0,0,0,0,0,0,0
0,9999,95,0,95,0,1,9999,0.100000,0,0,0.000000,0,12.000000,0.000000,20.246220,0,0,0,0,0,0,0
0,9999,96,0,96,0,1,9999,0.100000,0,0,0.000000,0,3.000000,0.000000,14.391594,0,0,0,0,0,0,0
0,9999,97,0,97,0,1,9999,0.100000,0,0,0.000000,0,6.000000,0.000000,8.553343,0,0,0,0,0,0,0
0,9999,98,0,98,0,1,9999,0.100000,0,0,0.000000,0,7.000000,0.000000,7.603567,0,0,0,0,0,0,0
0,9999,99,0,99,0,1,9999,0.100000,0,0,0.000000,0,9.000000,0.000000,16.713655,0,0,0,0,0,0,0
1,19999,0,10000,0,0,0,9999,0.100000,0,0,0.000000,1,0.000000,0.000000,2.585154,0,0,0,0,0,0,0
1,19999,1,10000,61,0,1,9999,0.100000,0,0,0.000000,2,1.000000,0.000000,4.627059,0,0,0,0,0,0,0
1,19999,2,10000,3,0,0,9999,0.100000,0,0,0.000000,1,0.000000,0.000000,0.848257,0,0,0,0,0,0,0
1,19999,3,10000,3,0,1,9999,0.100000,0,0,0.000000,1,1.000000,0.000000,3.386422,0,0,0,0,0,0,0
1,19999,4,10000,72,0,0,9999,0.100000,0,0,0.000000,2,0.000000,0.000000,7.754743,0,0,0,0,0,0,0
1,19999,5,10000,78,0,1,9999,0.100000,0,0,0.000000,2,1.000000,0.000000,5.524550,0,0,0,0,0,0,0
1,19999,6,10000,52,0,0,9999,0.100000,0,0,0.000000,2,0.000000,0.000000,0.106908,0,0,0,0,0,0,0
1,19999,7,10000,61,0,1,9999,0.100000,0,0,0.000000,2,1.000000,0.000000,1.659251,0,0,0,0,0,0,0
1,19999,8,10000,3,0,0,9999,0.100000,0,0,0.000000,2,0.000000,0.000000,0.473292,0,0,0,0,0,0,0
1,19999,9,10000,33,0,0,9999,0.135000,0,0,0.000000,2,0.000000,0.000000,0.327718,0,0,0,0,0,0,0
1,19999,10,10000,23,0,0,9999,0.100000,0,0,0.000000,1,0.000000,0.000000,0.103166,0,0,0,0,0,0,0
1,19999,11,10000,33,0,1,9999,0.100000,0,0,0.000000,2,4.000000,0.000000,7.584479,0,0,0,0,0,0,0
1,19999,12,10000,3,0,1,9999,0.100000,0,0,0.000000,2,2.000000,0.000000,4.425988,0,0,0,0,0,0,0
1,19999,13,10000,78,0,0,9999,0.100000,0,0,0.000000,2,0.000000,0.000000,0.136647,0,0,0,0,0,0,0
1,19999,14,10000,23,0,1,9999,0.100000,0,0,0.000000,1,4.000000,0.000000,12.291382,0,0,0,0,0,0,0
1,19999,15,10000,78,0,1,9999,0.100000,0,0,0.000000,2,1.000000,0.000000,3.968046,0,0,0,0,0,0,0
1,19999,16,10000,52,0,0,9999,0.100000,0,0,0.000000,2,0.000000,0.000000,0.227210,0,0,0,0,0,0,0
1,19999,17,10000,52,0,1,9999,0.100000,0,0,0.000000,2,4.000000,0.000000,9.945816,0,0,0,0,0,0,0
1,19999,18,10000,3,0,0,9999,0.100000,0,0,0.000000,1,0.000000,0.000000,0.079635,0,0,0,0,0,0,0
1,19999,19,10000,61,0,1,9999,0.100000,0,0,0.000000,2,3.000000,0.000000,10.623576,0,0,0,0,0,0,0
1,19999,20,10000,3,0,0,9999,0.100000,0,0,0.000000,1,0.000000,0.000000,0.712058,0,0,0,0,0,0,0
1,19999,21,10000,78,0,0,9999,0.100000,0,0,0.000000,2,0.000000,0.000000,0.424812,0,0,0,0,0,0,0
1,19999,22,10000,52,0,1,9999,0.100000,0,0,0.000000,2,1.000000,0.000000,9.647176,0,0,0,0,0,0,0
1,19999,23,10000,23,0,0,9999,0.100000,0,0,0.000000,1,0.000000,0.000000,1.582616,0,0,0,0,0,0,0
1,19999,24,10000,61,0,1,9999,0.100000,0,0,0.000000,2,2.000000,0.000000,7.468704,0,0,0,0,0,0,0
1,19999,25,10000,78,0,0,9999,0.100000,0,0,0.000000,2,0.000000,0.000000,1.223658,0,0,0,0,0,0,0
1,19999,26,10000,78,0,0,9999,0.100000,0,0,0.000000,2,0.000000,0.000000,0.093712,0,0,0,0,0,0,0
1,19999,27,10000,78,0,0,9999,0.100000,0,0,0.000000,2,0.000000,0.000000,0.355945,0,0,0,0,0,0,0
1,19999,28,10000,78,0,0,9999,0.100000,0,0,0.000000,2,0.000000,0.000000,0.107384,0,0,0,0,0,0,0
1,19999,29,10000,72,0,0,9999,0.100000,0,0,0.000000,2,0.000000,0.000000,0.431865,0,0,0,0,0,0,0
1,19999,30,10000,52,0,0,9999,0.100000,0,0,0.000000,2,0.000000,0.000000,1.657595,0,0,0,0,0,0,0
1,19999,31,10000,52,0,0,9999,0.100000,0,0,0.000000,2,0.000000,0.000000,0.507182,0,0,0,0,0,0,0
1,19999,32,10000,78,0,0,9999,0.100000,0,0,0.000000,2,0.000000,0.000000,8.270414,0,0,0,0,0,0,0
1,19999,33,10000,78,0,0,9999,0.100000,0,0,0.000000,2,0.000000,0.000000,0.165555,0,0,0,0,0,0,0
1,19999,34,10000,78,0,0,9999,0.100000,0,0,0.000000,2,0.000000,0.000000,0.863511,0,0,0,0,0,0,0
1,19999,35,10000,33,0,0,9999,0.100000,0,0,0.000000,2,0.000000,0.000000,0.076265,0,0,0,0,0,0,0
1,19999,36,10000,72,0,0,9999,0.100000,0,0,0.000000,2,0.000000,0.000000,0.585087,0,0,0,0,0,0,0
1,19999,37,10000,52,0,1,9999,0.100000,0,0,0.000000,2,1.000000,0.000000,4.986824,0,0,0,0,0,0,0
1,19999,38,10000,52,0,0,9999,0.100000,0,0,0.000000,2,0.000000,0.000000,0.089435,0,0,0,0,0,0,0
1,19999,39,10000,78,0,0,9999,0.100000,0,0,0.000000,2,0.000000,0.000000,1.853657,0,0,0,0,0,0,0
1,19999,40,10000,78,0,1,9999,0.100000,0,0,0.000000,2,1.000000,0.000000,2.634329,0,0,0,0,0,0,0
1,19999,41,10000,52,0,0,9999,0.100000,0,0,0.000000,2,0.000000,0.000000,0.578653,0,0,0,0,0,0,0
1,19999,42,10000,23,0,0,9999,0.100000,0,0,0.000000,1,0.000000,0.000000,0.073654,0,0,0,0,0,0,0
1,19999,43,10000,78,0,0,9999,0.100000,0,0,0.000000,2,0.000000,0.000000,1.573184,0,0,0,0,0,0,0
1,19999,44,10000,3,0,0,9999,0.100000,0,0,0.000000,1,0.000000,0.000000,0.085372,0,0,0,0,0,0,0
1,19999,45,10000,72,0,0,9999,0.100000,0,0,0.000000,2,0.000000,0.000000,0.381416,0,0,0,0,0,0,0
1,19999,46,10000,52,0,1,9999,0.100000,0,0,0.000000,2,4.000000,0.000000,11.270327,0,0,0,0,0,0,0
1,19999,47,10000,52,0,1,9999,0.100000,0,0,0.000000,2,2.000000,0.000000,8.543080,0,0,0,0,0,0,0
1,19999,48,10000,78,0,0,9999,0.100000,0,0,0.000000,2,0.000000,0.000000,1.011882,0,0,0,0,0,0,0
1,19999,49,10000,3,0,0,9999,0.100000,0,0,0.000000,2,0.000000,0.000000,0.941089,0,0,0,0,0,0,0
1,19999,50,10000,72,0,0,9999,0.100000,0,0,0.000000,2,0.000000,0.000000,0.076559,0,0,0,0,0,0,0
1,19999,51,10000,52,0,0,9999,0.100000,0,0,0.000000,2,0.000000,0.000000,0.610461,0,0,0,0,0,0,0
1,19999,52,10000,52,0,0,9999,0.100000,0,0,0.000000,2,0.000000,0.000000,0.143026,0,0,0,0,0,0,0
1,19999,53,10000,52,0,0,9999,0.100000,0,0,0.000000,2,0.000000,0.000000,0.174196,0,0,0,0,0,0,0
1,19999,54,10000,78,0,0,9999,0.100000,0,0,0.000000,2,0.000000,0.000000,0.543402,0,0,0,0,0,0,0
1,19999,55,10000,78,0,1,9999,0.100000,0,0,0.000000,2,1.000000,0.000000,5.004246,0,0,0,0,0,0,0
1,19999,56,10000,23,0,0,9999,0.100000,0,0,0.000000,1,0.000000,0.000000,0.374297,0,0,0,0,0,0,0
1,19999,57,10000,78,0,1,9999,0.100000,0,0,0.000000,2,1.000000,0.000000,20.050498,0,0,0,0,0,0,0
1,19999,58,10000,52,0,0,9999,0.100000,0,0,0.000000,2,0.000000,0.000000,0.511023,0,0,0,0,0,0,0
1,19999,59,10000,78,0,1,9999,0.100000,0,0,0.000000,2,2.000000,0.000000,6.626952,0,0,0,0,0,0,0
1,19999,60,10000,52,0,0,9999,0.100000,0,0,0.000000,2,0.000000,0.000000,0.698266,0,0,0,0,0,0,0
1,19999,61,10000,72,0,0,9999,0.100000,0,0,0.000000,2,0.000000,0.000000,0.170655,0,0,0,0,0,0,0
1,19999,62,10000,72,0,0,9999,0.100000,0,0,0.000000,2,0.000000,0.000000,0.467026,0,0,0,0,0,0,0
1,19999,63,10000,52,0,0,9999,0.100000,0,0,0.000000,2,0.000000,0.000000,0.553238,0,0,0,0,0,0,0
1,19999,64,10000,78,0,0,9999,0.100000,0,0,0.000000,2,0.000000,0.000000,0.596133,0,0,0,0,0,0,0
1,19999,65,10000,78,0,0,9999,0.100000,0,0,0.000000,2,0.000000,0.000000,0.063291,0,0,0,0,0,0,0
1,19999,66,10000,78,0,0,9999,0.100000,0,0,0.000000,2,0.000000,0.000000,0.876879,0,0,0,0,0,0,0
1,19999,67,10000,3,0,0,9999,0.100000,0,0,0.000000,1,0.000000,0.000000,0.860751,0,0,0,0,0,0,0
1,19999,68,10000,78,0,0,9999,0.100000,0,0,0.000000,2,0.000000,0.000000,7.850267,0,0,0,0,0,0,0
1,19999,69,10000,78,0,0,9999,0.100000,0,0,0.000000,2,0.000000,0.000000,0.224557,0,0,0,0,0,0,0
1,19999,70,10000,52,0,0,9999,0.100000,0,0,0.000000,2,0.000000,0.000000,7.486239,0,0,0,0,0,0,0
1,19999,71,10000,78,0,0,9999,0.100000,0,0,0.000000,2,0.000000,0.000000,0.432464,0,0,0,0,0,0,0
1,19999,72,10000,72,0,1,9999,0.100000,0,0,0.000000,2,2.000000,0.000000,11.087552,0,0,0,0,0,0,0
1,19999,73,10000,78,0,0,9999,0.100000,0,0,0.000000,2,0.000000,0.000000,1.397370,0,0,0,0,0,0,0
1,19999,74,10000,78,0,1,9999,0.100000,0,0,0.000000,2,2.000000,0.000000,9.479889,0,0,0,0,0,0,0
1,19999,75,10000,52,0,1,9999,0.100000,0,0,0.000000,2,4.000000,0.000000,12.912047,0,0,0,0,0,0,0
1,19999,76,10000,78,0,0,9999,0.100000,0,0,0.000000,2,0.000000,0.000000,0.173288,0,0,0,0,0,0,0
1,19999,77,10000,78,0,0,9999,0.100000,0,0,0.000000,2,0.000000,0.000000,0.110473,0,0,0,0,0,0,0
1,19999,78,10000,61,0,0,9999,0.100000,0,0,0.000000,2,0.000000,0.000000,3.541233,0,0,0,0,0,0,0
1,19999,79,10000,52,0,1,9999,0.100000,0,0,0.000000,2,3.000000,0.000000,11.758762,0,0,0,0,0,0,0
1,19999,80,10000,78,0,1,9999,0.100000,0,0,0.000000,2,1.000000,0.000000,15.340616,0,0,0,0,0,0,0
1,19999,81,10000,52,0,0,9999,0.100000,0,0,0.000000,2,0.000000,0.000000,0.207997,0,0,0,0,0,0,0
1,19999,82,10000,78,0,0,9999,0.100000,0,0,0.000000,2,0.000000,0.000000,0.317517,0,0,0,0,0,0,0
1,19999,83,10000,52,0,1,9999,0.100000,0,0,0.000000,2,3.000000,0.000000,10.417814,0,0,0,0,0,0,0
1,19999,84,10000,78,0,0,9999,0.100000,0,0,0.000000,2,0.000000,0.000000,0.547666,0,0,0,0,0,0,0
1,19999,85,10000,52,0,0,9999,0.100000,0,0,0.000000,2,0.000000,0.000000,0.784669,0,0,0,0,0,0,0
1,19999,86,10000,52,0,0,9999,0.100000,0,0,0.000000,2,0.000000,0.000000,0.143432,0,0,0,0,0,0,0
1,19999,87,10000,78,0,1,9999,0.100000,0,0,0.000000,2,1.000000,0.000000,1.675900,0,0,0,0,0,0,0
1,19999,88,10000,3,0,1,9999,0.100000,0,0,0.000000,1,1.000000,0.000000,9.162914,0,0,0,0,0,0,0
1,19999,89,10000,78,0,1,9999,0.100000,0,0,0.000000,2,3.000000,0.000000,8.077553,0,0,0,0,0,0,0
1,19999,90,10000,78,0,0,9999,0.100000,0,0,0.000000,2,0.000000,0.000000,0.994992,0,0,0,0,0,0,0
1,19999,91,10000,78,0,1,9999,0.100000,0,0,0.000000,2,3.000000,0.000000,11.304328,0,0,0,0,0,0,0
1,19999,92,10000,52,0,0,9999,0.100000,0,0,0.000000,2,0.000000,0.000000,0.096596,0,0,0,0,0,0,0
1,19999,93,10000,72,0,0,9999,0.100000,0,0,0.000000,2,0.000000,0.000000,0.713718,0,0,0,0,0,0,0
1,19999,94,10000,78,0,0,9999,0.100000,0,0,0.000000,2,0.000000,0.000000,0.754824,0,0,0,0,0,0,0
1,19999,95,10000,78,0,1,9999,0.100000,0,0,0.000000,2,1.000000,0.000000,17.391525,0,0,0,0,0,0,0
1,19999,96,10000,52,0,1,9999,0.100000,0,0,0.000000,2,1.000000,0.000000,5.222381,0,0,0,0,0,0,0
1,19999,97,10000,78,0,0,9999,0.100000,0,0,0.000000,2,0.000000,0.000000,0.107121,0,0,0,0,0,0,0
1,19999,98,10000,52,0,0,9999,0.100000,0,0,0.000000,2,0.000000,0.000000,0.155950,0,0,0,0,0,0,0
1,19999,99,10000,78,0,0,9999,0.100000,0,0,0.000000,2,0.000000,0.000000,0.063156,0,0,0,0,0,0,0
2,29999,0,20000,78,0,1,9999,0.100000,0,0,0.000000,3,1.000000,0.000000,7.552444,0,0,0,0,0,0,0
2,29999,1,20000,78,0,0,9999,0.100000,0,0,0.000000,3,0.000000,0.000000,0.551848,0,0,0,0,0,0,0
2,29999,2,20000,78,0,0,9999,0.100000,0,0,0.000000,4,0.000000,0.000000,0.091020,0,0,0,0,0,0,0
2,29999,3,20000,3,10000,0,9999,0.100000,0,0,0.000000,3,0.000000,0.000000,0.082769,0,0,0,0,0,0,0
2,29999,4,20000,78,10000,1,9999,0.100000,0,0,0.000000,4,1.000000,0.000000,2.234577,0,0,0,0,0,0,0
2,29999,5,20000,90,10000,1,9999,0.100000,0,0,0.000000,4,1.000000,0.000000,2.842034,0,0,0,0,0,0,0
2,29999,6,20000,78,0,0,9999,0.100000,0,0,0.000000,4,0.000000,0.000000,0.103944,0,0,0,0,0,0,0
2,29999,7,20000,78,0,0,9999,0.100000,0,0,0.000000,4,0.000000,0.000000,0.118998,0,0,0,0,0,0,0
2,29999,8,20000,78,0,0,9999,0.100000,0,0,0.000000,4,0.000000,0.000000,0.376179,0,0,0,0,0,0,0
2,29999,9,20000,78,0,0,9999,0.100000,0,0,0.000000,4,0.000000,0.000000,0.400315,0,0,0,0,0,0,0
2,29999,10,20000,16,10000,0,9999,0.100000,0,0,0.000000,3,0.000000,0.000000,0.195837,0,0,0,0,0,0,0
2,29999,11,20000,16,10000,1,9999,0.100000,0,0,0.000000,3,1.000000,0.000000,14.135183,0,0,0,0,0,0,0
2,29999,12,20000,3,10000,0,9999,0.100000,0,0,0.000000,4,0.000000,0.000000,0.407226,0,0,0,0,0,0,0
2,29999,13,20000,78,0,0,9999,0.100000,0,0,0.000000,3,0.000000,0.000000,0.235131,0,0,0,0,0,0,0
2,29999,14,20000,3,10000,0,9999,0.135000,0,0,0.000000,3,0.000000,0.000000,0.957677,0,0,0,0,0,0,0
2,29999,15,20000,78,0,0,9999,0.100000,0,0,0.000000,4,0.000000,0.000000,9.823506,0,0,0,0,0,0,0
2,29999,16,20000,16,10000,0,9999,0.100000,0,0,0.000000,3,0.000000,0.000000,0.244683,0,0,0,0,0,0,0
2,29999,17,20000,52,0,1,9999,0.100000,0,0,0.000000,3,1.000000,0.000000,5.690160,0,0,0,0,0,0,0
2,29999,18,20000,52,0,0,9999,0.100000,0,0,0.000000,3,0.000000,0.000000,0.076364,0,0,0,0,0,0,0
2,29999,19,20000,52,10000,1,9999,0.100000,0,0,0.000000,4,2.000000,0.000000,4.392820,0,0,0,0,0,0,0
2,29999,20,20000,50,10000,0,9999,0.100000,0,0,0.000000,4,0.000000,0.000000,1.184616,0,0,0,0,0,0,0
2,29999,21,20000,3,10000,0,9999,0.100000,0,0,0.000000,4,0.000000,0.000000,0.502637,0,0,0,0,0,0,0
2,29999,22,20000,90,10000,1,9999,0.100000,0,0,0.000000,4,1.000000,0.000000,7.750512,0,0,0,0,0,0,0
2,29999,23,20000,16,10000,1,9999,0.100000,0,0,0.000000,3,2.000000,0.000000,2.470772,0,0,0,0,0,0,0
2,29999,24,20000,3,10000,0,9999,0.100000,0,0,0.000000,4,0.000000,0.000000,0.284238,0,0,0,0,0,0,0
2,29999,25,20000,7,10000,1,9999,0.100000,0,0,0.000000,4,2.000000,0.000000,2.310285,0,0,0,0,0,0,0
2,29999,26,20000,78,0,0,9999,0.100000,0,0,0.000000,4,0.000000,0.000000,0.094312,0,0,0,0,0,0,0
2,29999,27,20000,7,10000,0,9999,0.100000,0,0,0.000000,4,0.000000,0.000000,0.204980,0,0,0,0,0,0,0
2,29999,28,20000,3,10000,0,9999,0.100000,0,0,0.000000,4,0.000000,0.000000,0.107526,0,0,0,0,0,0,0
2,29999,29,20000,3,10000,0,9999,0.100000,0,0,0.000000,3,0.000000,0.000000,0.675342,0,0,0,0,0,0,0
2,29999,30,20000,78,0,0,9999,0.100000,0,0,0.000000,4,0.000000,0.000000,0.725718,0,0,0,0,0,0,0
2,29999,31,20000,7,10000,0,9999,0.100000,0,0,0.000000,4,0.000000,0.000000,0.508779,0,0,0,0,0,0,0
2,29999,32,20000,78,10000,0,9999,0.100000,0,0,0.000000,4,0.000000,0.000000,7.996369,0,0,0,0,0,0,0
2,29999,33,20000,78,0,0,9999,0.100000,0,0,0.000000,4,0.000000,0.000000,0.181097,0,0,0,0,0,0,0
2,29999,34,20000,7,10000,0,9999,0.100000,0,0,0.000000,4,0.000000,0.000000,3.113022,0,0,0,0,0,0,0
2,29999,35,20000,52,10000,0,9999,0.100000,0,0,0.000000,4,0.000000,0.000000,0.078681,0,0,0,0,0,0,0
2,29999,36,20000,78,0,0,9999,0.100000,0,0,0.000000,3,0.000000,0.000000,0.487987,0,0,0,0,0,0,0
2,29999,37,20000,78,10000,0,9999,0.100000,0,0,0.000000,4,0.000000,0.000000,17.339937,0,0,0,0,0,0,0
2,29999,38,20000,78,0,0,9999,0.100000,0,0,0.000000,3,0.000000,0.000000,0.271287,0,0,0,0,0,0,0
2,29999,39,20000,3,10000,0,9999,0.100000,0,0,0.000000,3,0.000000,0.000000,1.096411,0,0,0,0,0,0,0
2,29999,40,20000,78,0,0,9999,0.100000,0,0,0.000000,4,0.000000,0.000000,0.695335,0,0,0,0,0,0,0
2,29999,41,20000,78,10000,1,9999,0.100000,0,0,0.000000,4,1.000000,0.000000,3.868624,0,0,0,0,0,0,0
2,29999,42,20000,52,10000,0,9999,0.100000,0,0,0.000000,4,0.000000,0.000000,0.083877,0,0,0,0,0,0,0
2,29999,43,20000,78,0,0,9999,0.100000,0,0,0.000000,4,0.000000,0.000000,0.129074,0,0,0,0,0,0,0
2,29999,44,20000,50,10000,0,9999,0.100000,0,0,0.000000,4,0.000000,0.000000,0.084694,0,0,0,0,0,0,0
2,29999,45,20000,3,10000,0,9999,0.100000,0,0,0.000000,4,0.000000,0.000000,0.526710,0,0,0,0,0,0,0
2,29999,46,20000,78,10000,1,9999,0.100000,0,0,0.000000,4,1.000000,0.000000,8.686350,0,0,0,0,0,0,0
2,29999,47,20000,3,10000,0,9999,0.100000,0,0,0.000000,4,0.000000,0.000000,0.282507,0,0,0,0,0,0,0
2,29999,48,20000,78,0,0,9999,0.100000,0,0,0.000000,4,0.000000,0.000000,0.563269,0,0,0,0,0,0,0
2,29999,49,20000,50,10000,0,9999,0.100000,0,0,0.000000,4,0.000000,0.000000,0.342605,0,0,0,0,0,0,0
2,29999,50,20000,78,0,0,9999,0.100000,0,0,0.000000,3,0.000000,0.000000,0.071363,0,0,0,0,0,0,0
2,29999,51,20000,78,10000,0,9999,0.100000,0,0,0.000000,4,0.000000,0.000000,23.689342,0,0,0,0,0,0,0
2,29999,52,20000,78,0,0,9999,0.100000,0,0,0.000000,4,0.000000,0.000000,0.149468,0,0,0,0,0,0,0
2,29999,53,20000,78,0,0,9999,0.100000,0,0,0.000000,4,0.000000,0.000000,0.130839,0,0,0,0,0,0,0
2,29999,54,20000,78,0,0,9999,0.100000,0,0,0.000000,4,0.000000,0.000000,0.718862,0,0,0,0,0,0,0
2,29999,55,20000,78,0,0,9999,0.100000,0,0,0.000000,4,0.000000,0.000000,3.157762,0,0,0,0,0,0,0
2,29999,56,20000,78,10000,0,9999,0.100000,0,0,0.000000,4,0.000000,0.000000,0.675939,0,0,0,0,0,0,0
2,29999,57,20000,52,10000,0,9999,0.100000,0,0,0.000000,4,0.000000,0.000000,22.879273,0,0,0,0,0,0,0
2,29999,58,20000,7,10000,0,9999,0.100000,0,0,0.000000,4,0.000000,0.000000,0.462333,0,0,0,0,0,0,0
2,29999,59,20000,78,0,0,9999,0.100000,0,0,0.000000,4,0.000000,0.000000,1.084781,0,0,0,0,0,0,0
2,29999,60,20000,3,10000,1,9999,0.100000,0,0,0.000000,4,2.000000,0.000000,2.316527,0,0,0,0,0,0,0
2,29999,61,20000,52,10000,0,9999,0.100000,0,0,0.000000,4,0.000000,0.000000,0.916223,0,0,0,0,0,0,0
2,29999,62,20000,78,10000,0,9999,0.100000,0,0,0.000000,4,0.000000,0.000000,0.395239,0,0,0,0,0,0,0
2,29999,63,20000,3,10000,0,9999,0.100000,0,0,0.000000,4,0.000000,0.000000,1.044882,0,0,0,0,0,0,0
2,29999,64,20000,7,10000,0,9999,0.100000,0,0,0.000000,4,0.000000,0.000000,0.327922,0,0,0,0,0,0,0
2,29999,65,20000,3,10000,0,9999,0.100000,0,0,0.000000,4,0.000000,0.000000,0.063286,0,0,0,0,0,0,0
2,29999,66,20000,52,10000,0,9999,0.100000,0,0,0.000000,4,0.000000,0.000000,0.359076,0,0,0,0,0,0,0
2,29999,67,20000,78,0,0,9999,0.100000,0,0,0.000000,3,0.000000,0.000000,0.886631,0,0,0,0,0,0,0
2,29999,68,20000,90,10000,0,9999,0.100000,0,0,0.000000,4,0.000000,0.000000,0.486527,0,0,0,0,0,0,0
2,29999,69,20000,3,10000,0,9999,0.100000,0,0,0.000000,4,0.000000,0.000000,0.233617,0,0,0,0,0,0,0
2,29999,70,20000,3,10000,0,9999,0.100000,0,0,0.000000,3,0.000000,0.000000,7.242653,0,0,0,0,0,0,0
2,29999,71,20000,78,10000,0,9999,0.100000,0,0,0.000000,4,0.000000,0.000000,0.465142,0,0,0,0,0,0,0
2,29999,72,20000,78,10000,1,9999,0.100000,0,0,0.000000,4,1.000000,0.000000,7.046659,0,0,0,0,0,0,0
2,29999,73,20000,78,0,0,9999,0.100000,0,0,0.000000,4,0.000000,0.000000,0.102687,0,0,0,0,0,0,0
2,29999,74,20000,7,10000,1,9999,0.100000,0,0,0.000000,4,2.000000,0.000000,10.620953,0,0,0,0,0,0,0
2,29999,75,20000,90,10000,1,9999,0.100000,0,0,0.000000,4,3.000000,0.000000,4.828507,0,0,0,0,0,0,0
2,29999,76,20000,50,10000,0,9999,0.100000,0,0,0.000000,4,0.000000,0.000000,0.153982,0,0,0,0,0,0,0
2,29999,77,20000,78,10000,0,9999,0.100000,0,0,0.000000,4,0.000000,0.000000,0.114875,0,0,0,0,0,0,0
2,29999,78,20000,50,10000,0,9999,0.100000,0,0,0.000000,4,0.000000,0.000000,4.314715,0,0,0,0,0,0,0
2,29999,79,20000,78,10000,1,9999,0.100000,0,0,0.000000,4,2.000000,0.000000,24.899295,0,0,0,0,0,0,0
2,29999,80,20000,52,10000,0,9999,0.100000,0,0,0.000000,4,0.000000,0.000000,22.546111,0,0,0,0,0,0,0
2,29999,81,20000,50,10000,0,9999,0.100000,0,0,0.000000,4,0.000000,0.000000,0.237676,0,0,0,0,0,0,0
2,29999,82,20000,78,0,0,9999,0.100000,0,0,0.000000,4,0.000000,0.000000,0.059905,0,0,0,0,0,0,0
2,29999,83,20000,52,10000,1,9999,0.100000,0,0,0.000000,4,1.000000,0.000000,5.895986,0,0,0,0,0,0,0
2,29999,84,20000,78,10000,0,9999,0.100000,0,0,0.000000,4,0.000000,0.000000,0.525504,0,0,0,0,0,0,0
2,29999,85,20000,78,10000,0,9999,0.100000,0,0,0.000000,4,0.000000,0.000000,0.944373,0,0,0,0,0,0,0
2,29999,86,20000,78,0,0,9999,0.100000,0,0,0.000000,4,0.000000,0.000000,0.179233,0,0,0,0,0,0,0
2,29999,87,20000,78,0,0,9999,0.100000,0,0,0.000000,4,0.000000,0.000000,0.972778,0,0,0,0,0,0,0
2,29999,88,20000,78,10000,1,9999,0.100000,0,0,0.000000,4,1.000000,0.000000,2.080468,0,0,0,0,0,0,0
2,29999,89,20000,7,10000,0,9999,0.100000,0,0,0.000000,4,0.000000,0.000000,1.626765,0,0,0,0,0,0,0
2,29999,90,20000,78,10000,0,9999,0.100000,0,0,0.000000,4,0.000000,0.000000,0.190972,0,0,0,0,0,0,0
2,29999,91,20000,50,10000,0,9999,0.100000,0,0,0.000000,4,0.000000,0.000000,0.953470,0,0,0,0,0,0,0
2,29999,92,20000,77,10000,0,9999,0.100000,0,0,0.000000,4,0.000000,0.000000,0.097144,0,0,0,0,0,0,0
2,29999,93,20000,52,10000,0,9999,0.100000,0,0,0.000000,4,0.000000,0.000000,1.874634,0,0,0,0,0,0,0
2,29999,94,20000,52,10000,0,9999,0.100000,0,0,0.000000,4,0.000000,0.000000,0.338727,0,0,0,0,0,0,0
2,29999,95,20000,77,10000,1,9999,0.100000,0,0,0.000000,4,3.000000,0.000000,13.057274,0,0,0,0,0,0,0
2,29999,96,20000,7,10000,1,9999,0.100000,0,0,0.000000,4,1.000000,0.000000,15.130234,0,0,0,0,0,0,0
2,29999,97,20000,78,0,0,9999,0.100000,0,0,0.000000,4,0.000000,0.000000,0.107269,0,0,0,0,0,0,0
2,29999,98,20000,78,0,0,9999,0.100000,0,0,0.000000,4,0.000000,0.000000,0.991518,0,0,0,0,0,0,0
2,29999,99,20000,78,0,0,9999,0.100000,0,0,0.000000,4,0.000000,0.000000,0.065584,0,0,0,0,0,0,0
3,39999,0,30000,78,0,0,9999,0.100000,0,0,0.000000,4,0.000000,0.000000,0.481598,0,0,0,0,0,0,0
3,39999,1,30000,78,10000,0,9999,0.100000,0,0,0.000000,4,0.000000,0.000000,0.437963,0,0,0,0,0,0,0
3,39999,2,30000,78,0,0,9999,0.100000,0,0,0.000000,4,0.000000,0.000000,0.091129,0,0,0,0,0,0,0
3,39999,3,30000,78,10000,0,9999,0.100000,0,0,0.000000,4,0.000000,0.000000,0.083163,0,0,0,0,0,0,0
3,39999,4,30000,78,0,0,9999,0.100000,0,0,0.000000,4,0.000000,0.000000,0.253169,0,0,0,0,0,0,0
3,39999,5,30000,52,10000,0,9999,0.100000,0,0,0.000000,4,0.000000,0.000000,5.153267,0,0,0,1,0,0,0
3,39999,6,30000,78,0,0,9999,0.100000,0,0,0.000000,4,0.000000,0.000000,0.104341,0,0,0,0,0,0,0
3,39999,7,30000,78,10000,0,9999,0.100000,0,0,0.000000,4,0.000000,0.000000,0.115727,0,0,0,0,0,0,0
3,39999,8,30000,78,10000,0,9999,0.100000,0,0,0.000000,4,0.000000,0.000000,0.101129,0,0,0,0,0,0,0
3,39999,9,30000,52,10000,0,9999,0.100000,0,0,0.000000,4,0.000000,0.000000,0.924514,0,0,0,0,0,0,0
3,39999,10,30000,7,10000,0,9999,0.100000,0,0,0.000000,4,0.000000,0.000000,0.272899,0,0,0,0,0,0,0
3,39999,11,30000,7,10000,1,9999,0.100000,0,0,0.000000,4,2.000000,0.000000,4.517230,0,0,0,0,0,0,0
3,39999,12,30000,52,10000,0,9999,0.100000,0,0,0.000000,4,0.000000,0.000000,0.458993,0,0,0,0,0,0,0
3,39999,13,30000,78,0,0,9999,0.100000,0,0,0.000000,4,0.000000,0.000000,0.267992,0,0,0,0,0,0,0
3,39999,14,30000,52,10000,0,9999,0.100000,0,0,0.000000,4,0.000000,0.000000,2.548069,0,0,0,0,0,0,0
3,39999,15,30000,52,10000,1,9999,0.100000,0,0,0.000000,4,1.000000,0.000000,9.423721,0,0,0,0,0,0,0
3,39999,16,30000,52,10000,1,9999,0.100000,0,0,0.000000,4,1.000000,0.000000,4.113951,0,0,0,0,0,0,0
3,39999,17,30000,78,10000,1,9999,0.100000,0,0,0.000000,4,2.000000,0.000000,5.130646,0,0,0,0,0,0,0
3,39999,18,30000,78,10000,1,9999,0.100000,0,0,0.000000,4,3.000000,0.000000,7.389426,0,0,0,0,0,0,0
3,39999,19,30000,78,0,0,9999,0.100000,0,0,0.000000,4,0.000000,0.000000,0.347470,0,0,0,0,0,0,0
3,39999,20,30000,78,10000,0,9999,0.100000,0,0,0.000000,4,0.000000,0.000000,1.373755,0,0,0,0,0,0,0
3,39999,21,30000,7,10000,0,9999,0.100000,0,0,0.000000,4,0.000000,0.000000,0.351129,0,0,0,0,0,0,0
3,39999,22,30000,78,0,0,9999,0.100000,0,0,0.000000,4,0.000000,0.000000,5.130217,0,0,0,0,0,0,0
3,39999,23,30000,7,10000,0,9999,0.100000,0,0,0.000000,4,0.000000,0.000000,0.157350,0,0,0,0,0,0,0
3,39999,24,30000,78,10000,0,9999,0.100000,0,0,0.000000,4,0.000000,0.000000,0.329316,0,0,0,0,0,0,0
3,39999,25,30000,52,10000,0,9999,0.100000,0,0,0.000000,4,0.000000,0.000000,0.129433,0,0,0,0,0,0,0
3,39999,26,30000,78,10000,0,9999,0.100000,0,0,0.000000,4,0.000000,0.000000,0.094346,0,0,0,0,0,0,0
3,39999,27,30000,52,10000,0,9999,0.100000,0,0,0.000000,4,0.000000,0.000000,0.214179,0,0,0,0,0,0,0
3,39999,28,30000,78,0,0,9999,0.100000,0,0,0.000000,4,0.000000,0.000000,0.107428,0,0,0,0,0,0,0
3,39999,29,30000,7,10000,0,9999,0.100000,0,0,0.000000,4,0.000000,0.000000,0.666898,0,0,0,0,0,0,0
3,39999,30,30000,78,0,0,9999,0.100000,0,0,0.000000,4,0.000000,0.000000,0.809828,0,0,0,0,0,0,0
3,39999,31,30000,78,10000,0,9999,0.100000,0,0,0.000000,4,0.000000,0.000000,0.498885,0,0,0,0,0,0,0
3,39999,32,30000,78,10000,0,9999,0.100000,0,0,0.000000,4,0.000000,0.000000,8.178963,0,0,0,0,0,0,0
3,39999,33,30000,78,10000,0,9999,0.100000,0,0,0.000000,4,0.000000,0.000000,0.159385,0,0,0,0,0,0,0
3,39999,34,30000,78,0,0,9999,0.100000,0,0,0.000000,4,0.000000,0.000000,0.138088,0,0,0,0,0,0,0
3,39999,35,30000,52,10000,0,9999,0.100000,0,0,0.000000,4,0.000000,0.000000,0.234923,0,0,0,0,0,0,0
3,39999,36,30000,78,0,0,9999,0.100000,0,0,0.000000,4,0.000000,0.000000,0.986300,0,0,0,0,0,0,0
3,39999,37,30000,7,10000,1,9999,0.100000,0,0,0.000000,4,1.000000,0.000000,14.713287,0,0,0,0,0,0,0
3,39999,38,30000,52,10000,0,9999,0.100000,0,0,0.000000,4,0.000000,0.000000,0.089544,0,0,0,0,0,0,0
3,39999,39,30000,78,10000,1,9999,0.100000,0,0,34.210526,4,2.000000,0.000000,3.660903,0,0,0,1,0,0,0
3,39999,40,30000,7,10000,0,9999,0.100000,0,0,0.000000,4,0.000000,0.000000,0.761156,0,0,0,0,0,0,0
3,39999,41,30000,78,0,0,9999,0.100000,0,0,0.000000,4,0.000000,0.000000,0.227575,0,0,0,0,0,0,0
3,39999,42,30000,52,10000,0,9999,0.100000,0,0,0.000000,4,0.000000,0.000000,0.078617,0,0,0,0,0,0,0
3,39999,43,30000,78,10000,1,9999,0.100000,0,0,0.000000,4,4.000000,0.000000,8.979817,0,0,0,0,0,0,0
3,39999,44,30000,78,0,0,9999,0.100000,0,0,0.000000,4,0.000000,0.000000,0.083573,0,0,0,0,0,0,0
3,39999,45,30000,78,0,0,9999,0.100000,0,0,0.000000,4,0.000000,0.000000,0.963477,0,0,0,0,0,0,0
3,39999,46,30000,52,10000,1,9999,0.100000,0,0,0.000000,4,1.000000,0.000000,8.476918,0,0,0,0,0,0,0
3,39999,47,30000,78,10000,0,9999,0.100000,0,0,0.000000,4,0.000000,0.000000,0.316752,0,0,0,0,0,0,0
3,39999,48,30000,52,10000,1,9999,0.100000,0,0,0.000000,4,2.000000,0.000000,2.418924,0,0,0,0,0,0,0
3,39999,49,30000,52,10000,0,9999,0.100000,0,0,0.000000,4,0.000000,0.000000,0.289441,0,0,0,0,0,0,0
3,39999,50,30000,78,10000,0,9999,0.100000,0,0,0.000000,4,0.000000,0.000000,0.080390,0,0,0,0,0,0,0
3,39999,51,30000,78,0,0,9999,0.100000,0,0,0.000000,4,0.000000,0.000000,23.910184,0,0,0,0,0,0,0
3,39999,52,30000,52,10000,0,9999,0.100000,0,0,0.000000,4,0.000000,0.000000,0.090789,0,0,0,0,0,0,0
3,39999,53,30000,78,10000,0,9999,0.100000,0,0,0.000000,4,0.000000,0.000000,0.114809,0,0,0,0,0,0,0
3,39999,54,30000,7,10000,0,9999,0.100000,0,0,0.000000,4,0.000000,0.000000,0.813648,0,0,0,0,0,0,0
3,39999,55,30000,78,0,0,9999,0.100000,0,0,0.000000,4,0.000000,0.000000,0.627255,0,0,0,0,0,0,0
3,39999,56,30000,7,10000,0,9999,0.100000,0,0,0.000000,4,0.000000,0.000000,0.876733,0,0,0,0,0,0,0
3,39999,57,30000,78,0,0,9999,0.100000,0,0,0.000000,4,0.000000,0.000000,22.767645,0,0,0,0,0,0,0
3,39999,58,30000,7,10000,0,9999,0.100000,0,0,0.000000,4,0.000000,0.000000,0.410838,0,0,0,0,0,0,0
3,39999,59,30000,78,10000,0,9999,0.100000,0,0,0.000000,4,0.000000,0.000000,0.822204,0,0,0,0,0,0,0
3,39999,60,30000,7,10000,0,9999,0.100000,0,0,0.000000,4,0.000000,0.000000,0.092826,0,0,0,0,0,0,0
3,39999,61,30000,52,10000,0,9999,0.100000,0,0,0.000000,4,0.000000,0.000000,6.890176,0,0,0,1,0,0,0
3,39999,62,30000,78,0,0,9999,0.100000,0,0,0.000000,4,0.000000,0.000000,0.107812,0,0,0,0,0,0,0
3,39999,63,30000,52,10000,1,9999,0.100000,0,0,34.210526,4,1.000000,0.000000,7.662519,0,0,0,1,0,0,0
3,39999,64,30000,52,10000,0,9999,0.100000,0,0,0.000000,4,0.000000,0.000000,0.256196,0,0,0,0,0,0,0
3,39999,65,30000,78,0,0,9999,0.100000,0,0,0.000000,4,0.000000,0.000000,0.063267,0,0,0,0,0,0,0
3,39999,66,30000,52,10000,0,9999,0.100000,0,0,0.000000,4,0.000000,0.000000,0.463432,0,0,0,0,0,0,0
3,39999,67,30000,7,10000,0,9999,0.100000,0,0,0.000000,4,0.000000,0.000000,0.951955,0,0,0,0,0,0,0
3,39999,68,30000,78,0,0,9999,0.100000,0,0,0.000000,4,0.000000,0.000000,1.392976,0,0,0,0,0,0,0
3,39999,69,30000,52,10000,0,9999,0.100000,0,0,0.000000,4,0.000000,0.000000,0.222304,0,0,0,0,0,0,0
3,39999,70,30000,7,10000,0,9999,0.100000,0,0,0.000000,4,0.000000,0.000000,8.090767,0,0,0,0,0,0,0
3,39999,71,30000,78,10000,0,9999,0.100000,0,0,0.000000,4,0.000000,0.000000,0.094596,0,0,0,0,0,0,0
3,39999,72,30000,78,10000,0,9999,0.100000,0,0,0.000000,4,0.000000,0.000000,0.091787,0,0,0,0,0,0,0
3,39999,73,30000,52,10000,0,9999,0.100000,0,0,0.000000,4,0.000000,0.000000,0.102636,0,0,0,0,0,0,0
3,39999,74,30000,78,10000,0,9999,0.100000,0,0,0.000000,4,0.000000,0.000000,0.095064,0,0,0,0,0,0,0
3,39999,75,30000,78,10000,1,9999,0.100000,0,0,0.000000,4,5.000000,0.000000,9.346304,0,0,0,0,0,0,0
3,39999,76,30000,7,10000,0,9999,0.100000,0,0,0.000000,4,0.000000,0.000000,0.150666,0,0,0,0,0,0,0
3,39999,77,30000,78,10000,0,9999,0.100000,0,0,0.000000,4,0.000000,0.000000,0.107149,0,0,0,0,0,0,0
3,39999,78,30000,78,10000,0,9999,0.100000,0,0,0.000000,4,0.000000,0.000000,1.318398,0,0,0,0,0,0,0
3,39999,79,30000,7,10000,0,9999,0.100000,0,0,0.000000,4,0.000000,0.000000,23.958323,0,0,0,0,0,0,0
3,39999,80,30000,7,10000,1,9999,0.100000,0,0,0.000000,4,1.000000,0.000000,6.081979,0,0,0,0,0,0,0
3,39999,81,30000,52,10000,0,9999,0.100000,0,0,0.000000,4,0.000000,0.000000,0.217528,0,0,0,0,0,0,0
3,39999,82,30000,7,10000,0,9999,0.100000,0,0,0.000000,4,0.000000,0.000000,0.066207,0,0,0,0,0,0,0
3,39999,83,30000,7,10000,1,9999,0.100000,0,0,0.000000,4,2.000000,0.000000,5.157112,0,0,0,0,0,0,0
3,39999,84,30000,52,10000,1,9999,0.100000,0,0,0.000000,4,2.000000,0.000000,2.467009,0,0,0,0,0,0,0
3,39999,85,30000,78,0,0,9999,0.100000,0,0,0.000000,4,0.000000,0.000000,1.135041,0,0,0,0,0,0,0
3,39999,86,30000,78,10000,0,9999,0.100000,0,0,0.000000,4,0.000000,0.000000,0.106667,0,0,0,0,0,0,0
3,39999,87,30000,78,0,0,9999,0.100000,0,0,0.000000,4,0.000000,0.000000,0.988385,0,0,0,0,0,0,0
3,39999,88,30000,7,10000,1,9999,0.100000,0,0,0.000000,4,1.000000,0.000000,1.885893,0,0,0,0,0,0,0
3,39999,89,30000,52,10000,1,9999,0.100000,0,0,0.000000,4,1.000000,0.000000,1.473321,0,0,0,0,0,0,0
3,39999,90,30000,52,10000,0,9999,0.100000,0,0,0.000000,4,0.000000,0.000000,0.088207,0,0,0,0,0,0,0
3,39999,91,30000,7,10000,0,9999,0.100000,0,0,0.000000,4,0.000000,0.000000,1.051419,0,0,0,0,0,0,0
3,39999,92,30000,52,10000,0,9999,0.100000,0,0,0.000000,4,0.000000,0.000000,0.084591,0,0,0,0,0,0,0
3,39999,93,30000,78,10000,0,9999,0.135000,0,0,0.000000,4,0.000000,0.000000,1.891091,0,0,0,0,0,0,0
3,39999,94,30000,52,10000,0,9999,0.100000,0,0,0.000000,4,0.000000,0.000000,0.118680,0,0,0,0,0,0,0
3,39999,95,30000,78,10000,1,9999,0.100000,0,0,0.000000,4,3.000000,0.000000,15.378996,0,0,0,0,0,0,0
3,39999,96,30000,78,0,1,9999,0.100000,0,0,0.000000,4,3.000000,0.000000,7.611831,0,0,0,0,0,0,0
3,39999,97,30000,52,10000,0,9999,0.100000,0,0,0.000000,4,0.000000,0.000000,0.107583,0,0,0,0,0,0,0
3,39999,98,30000,78,0,1,9999,0.100000,0,0,0.000000,4,1.000000,0.000000,1.387766,0,0,0,0,0,0,0
3,39999,99,30000,7,10000,0,9999,0.100000,0,0,0.000000,4,0.000000,0.000000,0.074602,0,0,0,0,0,0,0
4,49999,0,40000,7,10000,0,9999,0.100000,0,0,0.000000,4,0.000000,0.000000,0.423837,0,0,0,0,0,0,0
4,49999,1,40000,52,10000,0,9999,0.100000,0,0,0.000000,4,0.000000,0.000000,0.425502,0,0,0,0,0,0,0
4,49999,2,40000,78,10000,0,9999,0.100000,0,0,0.000000,4,0.000000,0.000000,0.090162,0,0,0,0,0,0,0
4,49999,3,40000,7,10000,0,9999,0.100000,0,0,0.000000,4,0.000000,0.000000,0.078516,0,0,0,0,0,0,0
4,49999,4,40000,78,0,0,9999,0.100000,0,0,0.000000,4,0.000000,0.000000,0.220464,0,0,0,0,0,0,0
4,49999,5,40000,52,10000,1,9999,0.100000,0,0,0.000000,4,10.000000,0.000000,21.593772,0,0,0,0,0,0,0
4,49999,6,40000,7,10000,0,9999,0.100000,0,0,0.000000,4,0.000000,0.000000,0.103295,0,0,0,0,0,0,0
4,49999,7,40000,52,10000,0,9999,0.100000,0,0,0.000000,4,0.000000,0.000000,0.125426,0,0,0,0,0,0,0
4,49999,8,40000,78,10000,0,9999,0.100000,0,0,0.000000,4,0.000000,0.000000,0.173286,0,0,0,0,0,0,0
4,49999,9,40000,7,10000,1,9999,0.100000,0,0,0.000000,4,5.000000,0.000000,8.556581,0,0,0,0,0,0,0
4,49999,10,40000,78,10000,0,9999,0.100000,0,0,0.000000,4,0.000000,0.000000,0.249273,0,0,0,0,0,0,0
4,49999,11,40000,78,10000,0,9999,0.100000,0,0,0.000000,4,0.000000,0.000000,2.015424,0,0,0,0,0,0,0
4,49999,12,40000,52,10000,0,9999,0.100000,0,0,0.000000,4,0.000000,0.000000,0.500111,0,0,0,0,0,0,0
4,49999,13,40000,7,10000,0,9999,0.100000,0,0,0.000000,4,0.000000,0.000000,0.539492,0,0,0,0,0,0,0
4,49999,14,40000,78,10000,0,9999,0.100000,0,0,0.000000,4,0.000000,0.000000,2.728481,0,0,0,0,0,0,0
4,49999,15,40000,52,10000,0,9999,0.100000,0,0,0.000000,4,0.000000,0.000000,8.837720,0,0,0,0,0,0,0
4,49999,16,40000,7,10000,0,9999,0.100000,0,0,0.000000,4,0.000000,0.000000,0.219035,0,0,0,0,0,0,0
4,49999,17,40000,78,10000,0,9999,0.100000,0,0,0.000000,4,0.000000,0.000000,0.062437,0,0,0,0,0,0,0
4,49999,18,40000,78,0,0,9999,0.100000,0,0,0.000000,4,0.000000,0.000000,0.082829,0,0,0,0,0,0,0
4,49999,19,40000,7,10000,0,9999,0.100000,0,0,0.000000,4,0.000000,0.000000,0.100474,0,0,0,0,0,0,0
4,49999,20,40000,52,10000,0,9999,0.100000,0,0,0.000000,4,0.000000,0.000000,0.629344,0,0,0,0,0,0,0
4,49999,21,40000,78,0,0,9999,0.100000,0,0,0.000000,4,0.000000,0.000000,0.158964,0,0,0,0,0,0,0
4,49999,22,40000,52,10000,1,9999,0.100000,0,0,0.000000,4,9.000000,0.000000,22.761684,0,0,0,0,0,0,0
4,49999,23,40000,78,0,0,9999,0.100000,0,0,0.000000,4,0.000000,0.000000,0.114265,0,0,0,0,0,0,0
4,49999,24,40000,78,0,0,9999,0.100000,0,0,0.000000,4,0.000000,0.000000,0.344550,0,0,0,0,0,0,0
4,49999,25,40000,52,10000,0,9999,0.100000,0,0,0.000000,4,0.000000,0.000000,0.201996,0,0,0,0,0,0,0
4,49999,26,40000,7,10000,0,9999,0.100000,0,0,0.000000,4,0.000000,0.000000,0.093704,0,0,0,0,0,0,0
4,49999,27,40000,78,0,0,9999,0.100000,0,0,0.000000,4,0.000000,0.000000,0.204206,0,0,0,0,0,0,0
4,49999,28,40000,7,10000,0,9999,0.100000,0,0,0.000000,4,0.000000,0.000000,0.107504,0,0,0,0,0,0,0
4,49999,29,40000,78,0,0,9999,0.100000,0,0,0.000000,4,0.000000,0.000000,0.778623,0,0,0,0,0,0,0
4,49999,30,40000,52,10000,1,9999,0.100000,0,0,0.000000,4,4.000000,0.000000,9.787877,0,0,0,0,0,0,0
4,49999,31,40000,78,10000,0,9999,0.100000,0,0,0.000000,4,0.000000,0.000000,0.476342,0,0,0,0,0,0,0
4,49999,32,40000,78,10000,0,9999,0.100000,0,0,0.000000,4,0.000000,0.000000,8.337370,0,0,0,0,0,0,0
4,49999,33,40000,78,10000,0,9999,0.100000,0,0,0.000000,4,0.000000,0.000000,0.163606,0,0,0,0,0,0,0
4,49999,34,40000,52,10000,0,9999,0.100000,0,0,0.000000,4,0.000000,0.000000,0.136541,0,0,0,0,0,0,0
4,49999,35,40000,78,10000,0,9999,0.100000,0,0,0.000000,4,0.000000,0.000000,0.674297,0,0,0,0,0,0,0
4,49999,36,40000,78,10000,0,9999,0.100000,0,0,0.000000,4,0.000000,0.000000,0.660232,0,0,0,0,0,0,0
4,49999,37,40000,52,10000,1,9999,0.100000,0,0,0.000000,4,2.000000,0.000000,9.166726,0,0,0,0,0,0,0
4,49999,38,40000,52,10000,0,9999,0.100000,0,0,0.000000,4,0.000000,0.000000,0.118771,0,0,0,0,0,0,0
4,49999,39,40000,52,10000,1,9999,0.100000,0,0,0.000000,4,1.000000,0.000000,5.888710,0,0,0,0,0,0,0
4,49999,40,40000,78,10000,0,9999,0.100000,0,0,0.000000,4,0.000000,0.000000,0.803919,0,0,0,0,0,0,0
4,49999,41,40000,78,0,0,9999,0.100000,0,0,0.000000,4,0.000000,0.000000,0.221275,0,0,0,0,0,0,0
4,49999,42,40000,52,10000,0,9999,0.100000,0,0,0.000000,4,0.000000,0.000000,0.321787,0,0,0,0,0,0,0
4,49999,43,40000,78,0,0,9999,0.100000,0,0,0.000000,4,0.000000,0.000000,0.126575,0,0,0,0,0,0,0
4,49999,44,40000,52,10000,0,9999,0.100000,0,0,0.000000,4,0.000000,0.000000,0.689225,0,0,0,0,0,0,0
4,49999,45,40000,7,10000,0,9999,0.100000,0,0,0.000000,4,0.000000,0.000000,0.593491,0,0,0,0,0,0,0
4,49999,46,40000,52,10000,1,9999,0.100000,0,0,0.000000,4,1.000000,0.000000,10.771166,0,0,0,0,0,0,0
4,49999,47,40000,78,0,0,9999,0.100000,0,0,0.000000,4,0.000000,0.000000,0.332641,0,0,0,0,0,0,0
4,49999,48,40000,78,0,0,9999,0.100000,0,0,0.000000,4,0.000000,0.000000,0.455454,0,0,0,0,0,0,0
4,49999,49,40000,52,10000,0,9999,0.100000,0,0,0.000000,4,0.000000,0.000000,0.229136,0,0,0,0,0,0,0
4,49999,50,40000,7,10000,0,9999,0.100000,0,0,0.000000,4,0.000000,0.000000,0.068711,0,0,0,0,0,0,0
4,49999,51,40000,7,10000,1,9999,0.100000,0,0,0.000000,4,4.000000,0.000000,33.611202,0,0,0,0,0,0,0
4,49999,52,40000,78,10000,0,9999,0.100000,0,0,0.000000,4,0.000000,0.000000,0.081268,0,0,0,0,0,0,0
4,49999,53,40000,7,10000,0,9999,0.100000,0,0,0.000000,4,0.000000,0.000000,0.133281,0,0,0,0,0,0,0
4,49999,54,40000,78,10000,0,9999,0.100000,0,0,0.000000,4,0.000000,0.000000,0.573396,0,0,0,0,0,0,0
4,49999,55,40000,78,0,0,9999,0.100000,0,0,0.000000,4,0.000000,0.000000,0.137688,0,0,0,0,0,0,0
4,49999,56,40000,78,0,1,9999,0.100000,0,0,0.000000,4,1.000000,0.000000,1.361772,0,0,0,0,0,0,0
4,49999,57,40000,7,10000,0,9999,0.100000,0,0,0.000000,4,0.000000,0.000000,22.772472,0,0,0,0,0,0,0
4,49999,58,40000,52,10000,0,9999,0.100000,0,0,0.000000,4,0.000000,0.000000,0.408177,0,0,0,0,0,0,0
4,49999,59,40000,52,10000,1,9999,0.100000,0,0,0.000000,4,1.000000,0.000000,4.099734,0,0,0,0,0,0,0
4,49999,60,40000,52,10000,0,9999,0.100000,0,0,0.000000,4,0.000000,0.000000,0.274164,0,0,0,0,0,0,0
4,49999,61,40000,52,10000,0,9999,0.100000,0,0,0.000000,4,0.000000,0.000000,0.878421,0,0,0,0,0,0,0
4,49999,62,40000,78,0,0,9999,0.100000,0,0,0.000000,4,0.000000,0.000000,0.077696,0,0,0,0,0,0,0
4,49999,63,40000,78,0,1,9999,0.100000,0,0,0.000000,4,4.000000,0.000000,13.102119,0,0,0,0,0,0,0
4,49999,64,40000,78,0,0,9999,0.100000,0,0,0.000000,4,0.000000,0.000000,0.201728,0,0,0,0,0,0,0
4,49999,65,40000,7,10000,0,9999,0.100000,0,0,0.000000,4,0.000000,0.000000,0.063145,0,0,0,0,0,0,0
4,49999,66,40000,52,10000,0,9999,0.100000,0,0,0.000000,4,0.000000,0.000000,0.320842,0,0,0,0,0,0,0
4,49999,67,40000,52,10000,1,9999,0.100000,0,0,0.000000,4,1.000000,0.000000,2.477100,0,0,0,0,0,0,0
4,49999,68,40000,78,10000,0,9999,0.100000,0,0,0.000000,4,0.000000,0.000000,0.236517,0,0,0,0,0,0,0
4,49999,69,40000,78,0,0,9999,0.100000,0,0,0.000000,4,0.000000,0.000000,0.222075,0,0,0,0,0,0,0
4,49999,70,40000,78,10000,0,9999,0.100000,0,0,0.000000,4,0.000000,0.000000,8.395495,0,0,0,0,0,0,0
4,49999,71,40000,78,0,0,9999,0.100000,0,0,0.000000,4,0.000000,0.000000,0.069320,0,0,0,0,0,0,0
4,49999,72,40000,78,10000,0,9999,0.100000,0,0,0.000000,4,0.000000,0.000000,0.132182,0,0,0,0,0,0,0
4,49999,73,40000,78,0,0,9999,0.100000,0,0,0.000000,4,0.000000,0.000000,0.103319,0,0,0,0,0,0,0
4,49999,74,40000,78,0,0,9999,0.100000,0,0,0.000000,4,0.000000,0.000000,0.094629,0,0,0,0,0,0,0
4,49999,75,40000,78,0,0,9999,0.100000,0,0,0.000000,4,0.000000,0.000000,2.437181,0,0,0,0,0,0,0
4,49999,76,40000,78,10000,0,9999,0.100000,0,0,0.000000,4,0.000000,0.000000,0.148184,0,0,0,0,0,0,0
4,49999,77,40000,52,10000,0,9999,0.100000,0,0,0.000000,4,0.000000,0.000000,0.095449,0,0,0,0,0,0,0
4,49999,78,40000,52,10000,1,9999,0.100000,0,0,0.000000,4,1.000000,0.000000,1.921024,0,0,0,0,0,0,0
4,49999,79,40000,78,0,0,9999,0.100000,0,0,0.000000,4,0.000000,0.000000,23.249698,0,0,0,0,0,0,0
4,49999,80,40000,78,0,1,9999,0.100000,0,0,0.000000,4,6.000000,0.000000,15.079944,0,0,0,0,0,0,0
4,49999,81,40000,7,10000,0,9999,0.100000,0,0,0.000000,4,0.000000,0.000000,0.150695,0,0,0,0,0,0,0
4,49999,82,40000,52,10000,0,9999,0.100000,0,0,0.000000,4,0.000000,0.000000,0.061222,0,0,0,0,0,0,0
4,49999,83,40000,78,10000,1,9999,0.100000,0,0,0.000000,4,7.000000,0.000000,31.401835,0,0,0,0,0,0,0
4,49999,84,40000,78,0,0,9999,0.100000,0,0,0.000000,4,0.000000,0.000000,0.246379,0,0,0,0,0,0,0
4,49999,85,40000,78,0,0,9999,0.100000,0,0,0.000000,4,0.000000,0.000000,0.972574,0,0,0,0,0,0,0
4,49999,86,40000,52,10000,0,9999,0.100000,0,0,0.000000,4,0.000000,0.000000,0.114920,0,0,0,0,0,0,0
4,49999,87,40000,78,10000,0,9999,0.100000,0,0,0.000000,4,0.000000,0.000000,0.945608,0,0,0,0,0,0,0
4,49999,88,40000,78,10000,0,9999,0.100000,0,0,0.000000,4,0.000000,0.000000,1.052604,0,0,0,0,0,0,0
4,49999,89,40000,78,10000,0,9999,0.100000,0,0,0.000000,4,0.000000,0.000000,0.415973,0,0,0,0,0,0,0
4,49999,90,40000,7,10000,0,9999,0.065000,0,0,0.000000,4,0.000000,0.000000,0.087317,0,0,0,0,0,0,0
4,49999,91,40000,7,10000,0,9999,0.100000,0,0,0.000000,4,0.000000,0.000000,1.205402,0,0,0,0,0,0,0
4,49999,92,40000,52,10000,0,9999,0.100000,0,0,0.000000,4,0.000000,0.000000,0.179985,0,0,0,0,0,0,0
4,49999,93,40000,78,0,0,9999,0.100000,0,0,0.000000,4,0.000000,0.000000,0.167806,0,0,0,0,0,0,0
4,49999,94,40000,78,10000,0,9999,0.100000,0,0,0.000000,4,0.000000,0.000000,0.116737,0,0,0,0,0,0,0
4,49999,95,40000,78,0,0,9999,0.100000,0,0,0.000000,4,0.000000,0.000000,0.472627,0,0,0,0,0,0,0
4,49999,96,40000,52,10000,0,9999,0.100000,0,0,0.000000,4,0.000000,0.000000,0.520813,0,0,0,0,0,0,0
4,49999,97,40000,52,10000,0,9999,0.100000,0,0,0.000000,4,0.000000,0.000000,0.103098,0,0,0,0,0,0,0
4,49999,98,40000,78,0,0,9999,0.100000,0,0,0.000000,4,0.000000,0.000000,0.366430,0,0,0,0,0,0,0
4,49999,99,40000,7,10000,0,9999,0.100000,0,0,0.000000,4,0.000000,0.000000,0.065883,0,0,0,0,0,0,0
5,59999,0,50000,52,10000,0,9999,0.100000,0,0,0.000000,4,0.000000,0.000000,0.397474,0,0,0,0,0,0,0
5,59999,1,50000,7,10000,0,9999,0.100000,0,0,0.000000,4,0.000000,0.000000,1.068217,0,0,0,0,0,0,0
5,59999,2,50000,52,10000,0,9999,0.100000,0,0,0.000000,4,0.000000,0.000000,0.090611,0,0,0,0,0,0,0
5,59999,3,50000,7,10000,0,9999,0.100000,0,0,0.000000,4,0.000000,0.000000,0.118865,0,0,0,0,0,0,0
5,59999,4,50000,52,10000,0,9999,0.100000,0,0,0.000000,4,0.000000,0.000000,0.220336,0,0,0,0,0,0,0
5,59999,5,50000,78,0,0,9999,0.100000,0,0,0.000000,4,0.000000,0.000000,4.863239,0,0,0,0,0,0,0
5,59999,6,50000,78,0,0,9999,0.100000,0,0,0.000000,4,0.000000,0.000000,0.104051,0,0,0,0,0,0,0
5,59999,7,50000,78,10000,0,9999,0.100000,0,0,0.000000,4,0.000000,0.000000,0.415678,0,0,0,0,0,0,0
5,59999,8,50000,7,10000,0,9999,0.100000,0,0,0.000000,4,0.000000,0.000000,0.100122,0,0,0,0,0,0,0
5,59999,9,50000,78,10000,0,9999,0.100000,0,0,0.000000,4,0.000000,0.000000,0.311552,0,0,0,0,0,0,0
5,59999,10,50000,7,10000,0,9999,0.100000,0,0,0.000000,4,0.000000,0.000000,0.158113,0,0,0,0,0,0,0
5,59999,11,50000,78,0,0,9999,0.100000,0,0,0.000000,4,0.000000,0.000000,2.003553,0,0,0,0,0,0,0
5,59999,12,50000,7,10000,0,9999,0.100000,0,0,0.000000,4,0.000000,0.000000,0.725025,0,0,0,0,0,0,0
5,59999,13,50000,78,10000,0,9999,0.100000,0,0,0.000000,4,0.000000,0.000000,0.801162,0,0,0,0,0,0,0
5,59999,14,50000,78,10000,0,9999,0.100000,0,0,0.000000,4,0.000000,0.000000,2.067336,0,0,0,0,0,0,0
5,59999,15,50000,78,10000,1,9999,0.100000,0,0,0.000000,4,2.000000,0.000000,6.579453,0,0,0,0,0,0,0
5,59999,16,50000,78,0,0,9999,0.100000,0,0,0.000000,4,0.000000,0.000000,0.429687,0,0,0,0,0,0,0
5,59999,17,50000,78,0,0,9999,0.100000,0,0,0.000000,4,0.000000,0.000000,0.077035,0,0,0,0,0,0,0
5,59999,18,50000,7,10000,0,9999,0.100000,0,0,0.000000,4,0.000000,0.000000,0.108765,0,0,0,0,0,0,0
5,59999,19,50000,52,10000,0,9999,0.100000,0,0,0.000000,4,0.000000,0.000000,0.115864,0,0,0,0,0,0,0
5,59999,20,50000,7,10000,0,9999,0.100000,0,0,0.000000,4,0.000000,0.000000,1.910690,0,0,0,0,0,0,0
5,59999,21,50000,78,0,0,9999,0.100000,0,0,0.000000,4,0.000000,0.000000,0.155277,0,0,0,0,0,0,0
5,59999,22,50000,7,10000,1,9999,0.100000,0,0,0.000000,4,2.000000,0.000000,9.281426,0,0,0,0,0,0,0
5,59999,23,50000,78,10000,0,9999,0.100000,0,0,0.000000,4,0.000000,0.000000,0.291070,0,0,0,0,0,0,0
5,59999,24,50000,78,0,0,9999,0.100000,0,0,0.000000,4,0.000000,0.000000,0.698576,0,0,0,0,0,0,0
5,59999,25,50000,78,0,1,9999,0.100000,0,0,0.000000,4,4.000000,0.000000,8.992497,0,0,0,0,0,0,0
5,59999,26,50000,7,10000,0,9999,0.100000,0,0,0.000000,4,0.000000,0.000000,0.092471,0,0,0,0,0,0,0
5,59999,27,50000,78,0,0,9999,0.100000,0,0,0.000000,4,0.000000,0.000000,0.697669,0,0,0,0,0,0,0
5,59999,28,50000,7,10000,0,9999,0.100000,0,0,0.000000,4,0.000000,0.000000,0.108430,0,0,0,0,0,0,0
5,59999,29,50000,7,10000,0,9999,0.100000,0,0,0.000000,4,0.000000,0.000000,0.439991,0,0,0,0,0,0,0
5,59999,30,50000,78,10000,0,9999,0.100000,0,0,0.000000,4,0.000000,0.000000,0.279066,0,0,0,0,0,0,0
5,59999,31,50000,78,10000,0,9999,0.100000,0,0,0.000000,4,0.000000,0.000000,0.454295,0,0,0,0,0,0,0
5,59999,32,50000,78,10000,0,9999,0.100000,0,0,0.000000,4,0.000000,0.000000,8.172483,0,0,0,0,0,0,0
5,59999,33,50000,52,10000,0,9999,0.100000,0,0,0.000000,4,0.000000,0.000000,0.162931,0,0,0,0,0,0,0
5,59999,34,50000,52,10000,0,9999,0.100000,0,0,0.000000,4,0.000000,0.000000,0.137660,0,0,0,0,0,0,0
5,59999,35,50000,52,10000,0,9999,0.100000,0,0,0.000000,4,0.000000,0.000000,0.975662,0,0,0,0,0,0,0
5,59999,36,50000,7,10000,0,9999,0.100000,0,0,0.000000,4,0.000000,0.000000,0.908948,0,0,0,0,0,0,0
5,59999,37,50000,78,0,1,9999,0.100000,0,0,0.000000,4,3.000000,0.000000,5.703444,0,0,0,0,0,0,0
5,59999,38,50000,78,10000,0,9999,0.100000,0,0,0.000000,4,0.000000,0.000000,0.095660,0,0,0,0,0,0,0
5,59999,39,50000,78,10000,1,9999,0.100000,0,0,0.000000,4,3.000000,0.000000,13.331553,0,0,0,0,0,0,0
5,59999,40,50000,78,0,0,9999,0.100000,0,0,0.000000,4,0.000000,0.000000,0.836849,0,0,0,0,0,0,0
5,59999,41,50000,52,10000,0,9999,0.100000,0,0,0.000000,4,0.000000,0.000000,0.210723,0,0,0,0,0,0,0
5,59999,42,50000,78,0,0,9999,0.100000,0,0,0.000000,4,0.000000,0.000000,0.197594,0,0,0,0,0,0,0
5,59999,43,50000,78,0,0,9999,0.100000,0,0,0.000000,4,0.000000,0.000000,0.210915,0,0,0,0,0,0,0
5,59999,44,50000,52,10000,0,9999,0.135000,0,0,0.000000,4,0.000000,0.000000,0.467944,0,0,0,0,0,0,0
5,59999,45,50000,78,10000,1,9999,0.100000,0,0,0.000000,4,1.000000,0.000000,5.630123,0,0,0,0,0,0,0
5,59999,46,50000,7,10000,1,9999,0.100000,0,0,0.000000,4,5.000000,0.000000,9.253030,0,0,0,0,0,0,0
5,59999,47,50000,78,0,0,9999,0.100000,0,0,0.000000,4,0.000000,0.000000,0.966811,0,0,0,0,0,0,0
5,59999,48,50000,7,10000,0,9999,0.100000,0,0,0.000000,4,0.000000,0.000000,0.163022,0,0,0,0,0,0,0
5,59999,49,50000,78,0,0,9999,0.100000,0,0,0.000000,4,0.000000,0.000000,0.241598,0,0,0,0,0,0,0
5,59999,50,50000,78,10000,0,9999,0.100000,0,0,0.000000,4,0.000000,0.000000,0.129066,0,0,0,0,0,0,0
5,59999,51,50000,7,10000,0,9999,0.100000,0,0,0.000000,4,0.000000,0.000000,23.914445,0,0,0,0,0,0,0
5,59999,52,50000,78,0,0,9999,0.100000,0,0,0.000000,4,0.000000,0.000000,0.083844,0,0,0,0,0,0,0
5,59999,53,50000,52,10000,0,9999,0.100000,0,0,0.000000,4,0.000000,0.000000,0.187462,0,0,0,0,0,0,0
5,59999,54,50000,78,10000,0,9999,0.100000,0,0,0.000000,4,0.000000,0.000000,0.520601,0,0,0,0,0,0,0
5,59999,55,50000,7,10000,0,9999,0.100000,0,0,0.000000,4,0.000000,0.000000,0.154942,0,0,0,0,0,0,0
5,59999,56,50000,78,10000,0,9999,0.100000,0,0,0.000000,4,0.000000,0.000000,6.612629,0,0,0,0,0,0,0
5,59999,57,50000,78,0,0,9999,0.100000,0,0,0.000000,4,0.000000,0.000000,5.330970,0,0,0,0,0,0,0
5,59999,58,50000,78,10000,0,9999,0.100000,0,0,0.000000,4,0.000000,0.000000,0.435277,0,0,0,0,0,0,0
5,59999,59,50000,52,10000,0,9999,0.100000,0,0,0.000000,4,0.000000,0.000000,5.637909,0,0,0,0,0,0,0
5,59999,60,50000,78,0,1,9999,0.100000,0,0,0.000000,4,4.000000,0.000000,9.378892,0,0,0,0,0,0,0
5,59999,61,50000,78,0,1,9999,0.100000,0,0,0.000000,4,1.000000,0.000000,10.320669,0,0,0,0,0,0,0
5,59999,62,50000,52,10000,0,9999,0.100000,0,0,0.000000,4,0.000000,0.000000,0.077591,0,0,0,0,0,0,0
5,59999,63,50000,7,10000,0,9999,0.100000,0,0,0.000000,4,0.000000,0.000000,0.372702,0,0,0,0,0,0,0
5,59999,64,50000,78,10000,0,9999,0.100000,0,0,0.000000,4,0.000000,0.000000,0.219992,0,0,0,0,0,0,0
5,59999,65,50000,78,0,0,9999,0.100000,0,0,0.000000,4,0.000000,0.000000,0.063231,0,0,0,0,0,0,0
5,59999,66,50000,78,10000,0,9999,0.100000,0,0,0.000000,4,0.000000,0.000000,0.152836,0,0,0,0,0,0,0
5,59999,67,50000,52,10000,1,9999,0.100000,0,0,0.000000,4,6.000000,0.000000,8.084594,0,0,0,0,0,0,0
5,59999,68,50000,52,10000,1,9999,0.100000,0,0,0.000000,4,3.000000,0.000000,6.060091,0,0,0,0,0,0,0
5,59999,69,50000,78,10000,0,9999,0.100000,0,0,0.000000,4,0.000000,0.000000,0.211316,0,0,0,0,0,0,0
5,59999,70,50000,78,10000,0,9999,0.100000,0,0,0.000000,4,0.000000,0.000000,8.409057,0,0,0,0,0,0,0
5,59999,71,50000,52,10000,0,9999,0.100000,0,0,0.000000,4,0.000000,0.000000,0.446579,0,0,0,0,0,0,0
5,59999,72,50000,7,10000,0,9999,0.100000,0,0,0.000000,4,0.000000,0.000000,0.092833,0,0,0,0,0,0,0
5,59999,73,50000,78,10000,0,9999,0.100000,0,0,0.000000,4,0.000000,0.000000,0.223121,0,0,0,0,0,0,0
5,59999,74,50000,7,10000,0,9999,0.100000,0,0,0.000000,4,0.000000,0.000000,0.095709,0,0,0,0,0,0,0
5,59999,75,50000,78,10000,0,9999,0.100000,0,0,0.000000,4,0.000000,0.000000,0.760559,0,0,0,0,0,0,0
5,59999,76,50000,78,0,0,9999,0.100000,0,0,0.000000,4,0.000000,0.000000,0.144329,0,0,0,0,0,0,0
5,59999,77,50000,7,10000,0,9999,0.100000,0,0,0.000000,4,0.000000,0.000000,0.093924,0,0,0,0,0,0,0
5,59999,78,50000,78,0,0,9999,0.100000,0,0,0.000000,4,0.000000,0.000000,1.571612,0,0,0,0,0,0,0
5,59999,79,50000,78,10000,0,9999,0.100000,0,0,0.000000,4,0.000000,0.000000,17.477437,0,0,0,0,0,0,0
5,59999,80,50000,7,10000,0,9999,0.100000,0,0,0.000000,4,0.000000,0.000000,1.911980,0,0,0,0,0,0,0
5,59999,81,50000,78,10000,0,9999,0.100000,0,0,0.000000,4,0.000000,0.000000,0.148770,0,0,0,0,0,0,0
5,59999,82,50000,78,10000,0,9999,0.100000,0,0,0.000000,4,0.000000,0.000000,0.119671,0,0,0,0,0,0,0
5,59999,83,50000,78,10000,0,9999,0.100000,0,0,0.000000,4,0.000000,0.000000,0.876224,0,0,0,0,0,0,0
5,59999,84,50000,78,10000,0,9999,0.100000,0,0,0.000000,4,0.000000,0.000000,0.125687,0,0,0,0,0,0,0
5,59999,85,50000,52,10000,0,9999,0.100000,0,0,0.000000,4,0.000000,0.000000,0.985649,0,0,0,0,0,0,0
5,59999,86,50000,7,10000,0,9999,0.100000,0,0,0.000000,4,0.000000,0.000000,0.104643,0,0,0,0,0,0,0
5,59999,87,50000,7,10000,0,9999,0.100000,0,0,0.000000,4,0.000000,0.000000,0.903751,0,0,0,0,0,0,0
5,59999,88,50000,78,0,0,9999,0.100000,0,0,0.000000,4,0.000000,0.000000,0.352800,0,0,0,0,0,0,0
5,59999,89,50000,78,10000,0,9999,0.100000,0,0,0.000000,4,0.000000,0.000000,0.240921,0,0,0,0,0,0,0
5,59999,90,50000,78,0,0,9999,0.100000,0,0,0.000000,4,0.000000,0.000000,0.086380,0,0,0,0,0,0,0
5,59999,91,50000,78,10000,0,9999,0.100000,0,0,0.000000,4,0.000000,0.000000,1.499416,0,0,0,0,0,0,0
5,59999,92,50000,7,10000,0,9999,0.100000,0,0,0.000000,4,0.000000,0.000000,0.061440,0,0,0,0,0,0,0
5,59999,93,50000,52,10000,0,9999,0.100000,0,0,0.000000,4,0.000000,0.000000,0.131085,0,0,0,0,0,0,0
5,59999,94,50000,78,10000,0,9999,0.100000,0,0,0.000000,4,0.000000,0.000000,0.095301,0,0,0,0,0,0,0
5,59999,95,50000,78,10000,0,9999,0.100000,0,0,0.000000,4,0.000000,0.000000,0.422111,0,0,0,0,0,0,0
5,59999,96,50000,7,10000,0,9999,0.100000,0,0,0.000000,4,0.000000,0.000000,0.578556,0,0,0,0,0,0,0
5,59999,97,50000,78,0,0,9999,0.100000,0,0,0.000000,4,0.000000,0.000000,0.093905,0,0,0,0,0,0,0
5,59999,98,50000,78,10000,1,9999,0.100000,0,0,0.000000,4,5.000000,0.000000,12.099216,0,0,0,0,0,0,0
5,59999,99,50000,7,10000,1,9999,0.100000,0,0,0.000000,4,7.000000,0.000000,15.198133,0,0,0,0,0,0,0
6,69999,0,60000,52,10000,0,9999,0.100000,0,0,0.000000,4,0.000000,0.000000,0.412000,0,0,0,0,0,0,0
6,69999,1,60000,7,10000,0,9999,0.100000,0,0,0.000000,4,0.000000,0.000000,0.909610,0,0,0,0,0,0,0
6,69999,2,60000,7,10000,0,9999,0.100000,0,0,0.000000,4,0.000000,0.000000,0.091111,0,0,0,0,0,0,0
6,69999,3,60000,7,10000,0,9999,0.100000,0,0,0.000000,4,0.000000,0.000000,0.091413,0,0,0,0,0,0,0
6,69999,4,60000,52,10000,0,9999,0.100000,0,0,0.000000,4,0.000000,0.000000,0.209812,0,0,0,0,0,0,0
6,69999,5,60000,7,10000,1,9999,0.100000,0,0,0.000000,4,7.000000,0.000000,16.013427,0,0,0,0,0,0,0
6,69999,6,60000,78,10000,0,9999,0.100000,0,0,0.000000,4,0.000000,0.000000,0.104227,0,0,0,0,0,0,0
6,69999,7,60000,7,10000,0,9999,0.100000,0,0,0.000000,4,0.000000,0.000000,0.089428,0,0,0,0,0,0,0
6,69999,8,60000,52,10000,0,9999,0.100000,0,0,0.000000,4,0.000000,0.000000,0.099822,0,0,0,0,0,0,0
6,69999,9,60000,78,10000,0,9999,0.100000,0,0,0.000000,4,0.000000,0.000000,1.068284,0,0,0,0,0,0,0
6,69999,10,60000,78,0,0,9999,0.100000,0,0,0.000000,4,0.000000,0.000000,0.259790,0,0,0,0,0,0,0
6,69999,11,60000,52,10000,0,9999,0.100000,0,0,0.000000,4,0.000000,0.000000,1.112467,0,0,0,0,0,0,0
6,69999,12,60000,78,10000,0,9999,0.100000,0,0,0.000000,4,0.000000,0.000000,0.357974,0,0,0,0,0,0,0
6,69999,13,60000,52,10000,0,9999,0.100000,0,0,0.000000,4,0.000000,0.000000,0.415988,0,0,0,0,0,0,0
6,69999,14,60000,52,10000,0,9999,0.135000,0,0,0.000000,4,0.000000,0.000000,0.338392,0,0,0,0,0,0,0
6,69999,15,60000,78,0,0,9999,0.100000,0,0,0.000000,4,0.000000,0.000000,0.091350,0,0,0,0,0,0,0
6,69999,16,60000,7,10000,0,9999,0.100000,0,0,0.000000,4,0.000000,0.000000,0.372568,0,0,0,0,0,0,0
6,69999,17,60000,7,10000,0,9999,0.100000,0,0,0.000000,4,0.000000,0.000000,0.080321,0,0,0,0,0,0,0
6,69999,18,60000,7,10000,0,9999,0.100000,0,0,0.000000,4,0.000000,0.000000,0.086540,0,0,0,0,0,0,0
6,69999,19,60000,7,10000,0,9999,0.100000,0,0,0.000000,4,0.000000,0.000000,0.129803,0,0,0,0,0,0,0
6,69999,20,60000,7,10000,0,9999,0.100000,0,0,0.000000,4,0.000000,0.000000,0.093451,0,0,0,0,0,0,0
6,69999,21,60000,52,10000,0,9999,0.100000,0,0,0.000000,4,0.000000,0.000000,0.147937,0,0,0,0,0,0,0
6,69999,22,60000,78,0,0,9999,0.100000,0,0,0.000000,4,0.000000,0.000000,7.000205,0,0,0,0,0,0,0
6,69999,23,60000,78,10000,0,9999,0.100000,0,0,0.000000,4,0.000000,0.000000,0.282869,0,0,0,0,0,0,0
6,69999,24,60000,78,10000,0,9999,0.100000,0,0,0.000000,4,0.000000,0.000000,0.272002,0,0,0,0,0,0,0
6,69999,25,60000,78,0,0,9999,0.100000,0,0,0.000000,4,0.000000,0.000000,0.303560,0,0,0,0,0,0,0
6,69999,26,60000,52,10000,0,9999,0.100000,0,0,0.000000,4,0.000000,0.000000,0.087488,0,0,0,0,0,0,0
6,69999,27,60000,7,10000,0,9999,0.100000,0,0,0.000000,4,0.000000,0.000000,0.098093,0,0,0,0,0,0,0
6,69999,28,60000,52,10000,0,9999,0.100000,0,0,0.000000,4,0.000000,0.000000,0.109667,0,0,0,0,0,0,0
6,69999,29,60000,78,0,0,9999,0.100000,0,0,0.000000,4,0.000000,0.000000,0.253010,0,0,0,0,0,0,0
6,69999,30,60000,78,0,0,9999,0.100000,0,0,0.000000,4,0.000000,0.000000,0.341934,0,0,0,0,0,0,0
6,69999,31,60000,7,10000,0,9999,0.100000,0,0,0.000000,4,0.000000,0.000000,0.397109,0,0,0,0,0,0,0
6,69999,32,60000,78,10000,1,9999,0.100000,0,0,0.000000,4,8.000000,0.000000,21.821042,0,0,0,0,0,0,0
6,69999,33,60000,78,10000,0,9999,0.100000,0,0,0.000000,4,0.000000,0.000000,0.159667,0,0,0,0,0,0,0
6,69999,34,60000,52,10000,0,9999,0.100000,0,0,0.000000,4,0.000000,0.000000,0.133858,0,0,0,0,0,0,0
6,69999,35,60000,78,10000,0,9999,0.100000,0,0,0.000000,4,0.000000,0.000000,0.502475,0,0,0,0,0,0,0
6,69999,36,60000,7,10000,0,9999,0.100000,0,0,0.000000,4,0.000000,0.000000,0.378327,0,0,0,0,0,0,0
6,69999,37,60000,78,10000,1,9999,0.100000,0,0,0.000000,4,2.000000,0.000000,3.773695,0,0,0,0,0,0,0
6,69999,38,60000,52,10000,0,9999,0.100000,0,0,0.000000,4,0.000000,0.000000,0.145005,0,0,0,0,0,0,0
6,69999,39,60000,52,10000,1,9999,0.100000,0,0,0.000000,4,3.000000,0.000000,7.943680,0,0,0,0,0,0,0
6,69999,40,60000,7,10000,0,9999,0.100000,0,0,0.000000,4,0.000000,0.000000,0.354178,0,0,0,0,0,0,0
6,69999,41,60000,52,10000,0,9999,0.100000,0,0,0.000000,4,0.000000,0.000000,0.208577,0,0,0,0,0,0,0
6,69999,42,60000,78,0,0,9999,0.100000,0,0,0.000000,4,0.000000,0.000000,0.234877,0,0,0,0,0,0,0
6,69999,43,60000,78,0,0,9999,0.100000,0,0,0.000000,4,0.000000,0.000000,0.261609,0,0,0,0,0,0,0
6,69999,44,60000,78,0,0,9999,0.100000,0,0,0.000000,4,0.000000,0.000000,1.087846,0,0,0,0,0,0,0
6,69999,45,60000,78,0,0,9999,0.100000,0,0,0.000000,4,0.000000,0.000000,0.754980,0,0,0,0,0,0,0
6,69999,46,60000,78,10000,0,9999,0.100000,0,0,0.000000,4,0.000000,0.000000,0.086211,0,0,0,0,0,0,0
6,69999,47,60000,52,10000,0,9999,0.100000,0,0,0.000000,4,0.000000,0.000000,0.474776,0,0,0,0,0,0,0
6,69999,48,60000,78,0,0,9999,0.100000,0,0,0.000000,4,0.000000,0.000000,0.155043,0,0,0,0,0,0,0
6,69999,49,60000,78,0,0,9999,0.100000,0,0,0.000000,4,0.000000,0.000000,0.236027,0,0,0,0,0,0,0
6,69999,50,60000,52,10000,0,9999,0.100000,0,0,0.000000,4,0.000000,0.000000,0.103995,0,0,0,0,0,0,0
6,69999,51,60000,52,10000,0,9999,0.100000,0,0,0.000000,4,0.000000,0.000000,23.792765,0,0,0,0,0,0,0
6,69999,52,60000,78,10000,1,9999,0.100000,0,0,0.000000,4,7.000000,0.000000,14.570847,0,0,0,0,0,0,0
6,69999,53,60000,78,0,0,9999,0.100000,0,0,0.000000,4,0.000000,0.000000,0.332268,0,0,0,0,0,0,0
6,69999,54,60000,52,10000,0,9999,0.100000,0,0,0.000000,4,0.000000,0.000000,0.564733,0,0,0,0,0,0,0
6,69999,55,60000,78,0,0,9999,0.100000,0,0,0.000000,4,0.000000,0.000000,0.176829,0,0,0,0,0,0,0
6,69999,56,60000,52,10000,0,9999,0.100000,0,0,0.000000,4,0.000000,0.000000,6.650975,0,0,0,0,0,0,0
6,69999,57,60000,78,0,0,9999,0.100000,0,0,0.000000,4,0.000000,0.000000,0.081554,0,0,0,0,0,0,0
6,69999,58,60000,52,10000,0,9999,0.100000,0,0,0.000000,4,0.000000,0.000000,0.499477,0,0,0,0,0,0,0
6,69999,59,60000,78,0,0,9999,0.100000,0,0,0.000000,4,0.000000,0.000000,6.426908,0,0,0,0,0,0,0
6,69999,60,60000,7,10000,0,9999,0.100000,0,0,0.000000,4,0.000000,0.000000,0.292855,0,0,0,0,0,0,0
6,69999,61,60000,78,0,0,9999,0.100000,0,0,0.000000,4,0.000000,0.000000,22.221999,0,0,0,0,0,0,0
6,69999,62,60000,52,10000,0,9999,0.100000,0,0,0.000000,4,0.000000,0.000000,0.077835,0,0,0,0,0,0,0
6,69999,63,60000,7,10000,0,9999,0.100000,0,0,0.000000,4,0.000000,0.000000,0.321000,0,0,0,0,0,0,0
6,69999,64,60000,52,10000,0,9999,0.100000,0,0,0.000000,4,0.000000,0.000000,0.215064,0,0,0,0,0,0,0
6,69999,65,60000,78,10000,0,9999,0.100000,0,0,0.000000,4,0.000000,0.000000,0.062894,0,0,0,0,0,0,0
6,69999,66,60000,52,10000,0,9999,0.100000,0,0,0.000000,4,0.000000,0.000000,0.079184,0,0,0,0,0,0,0
6,69999,67,60000,78,0,0,9999,0.100000,0,0,0.000000,4,0.000000,0.000000,1.943870,0,0,0,0,0,0,0
6,69999,68,60000,78,0,0,9999,0.100000,0,0,0.000000,4,0.000000,0.000000,1.094271,0,0,0,0,0,0,0
6,69999,69,60000,52,10000,0,9999,0.100000,0,0,0.000000,4,0.000000,0.000000,0.401193,0,0,0,0,0,0,0
6,69999,70,60000,78,10000,0,9999,0.100000,0,0,0.000000,4,0.000000,0.000000,8.284113,0,0,0,0,0,0,0
6,69999,71,60000,7,10000,0,9999,0.100000,0,0,0.000000,4,0.000000,0.000000,0.535997,0,0,0,0,0,0,0
6,69999,72,60000,78,0,0,9999,0.100000,0,0,0.000000,4,0.000000,0.000000,0.258599,0,0,0,0,0,0,0
6,69999,73,60000,52,10000,0,9999,0.100000,0,0,0.000000,4,0.000000,0.000000,0.300655,0,0,0,0,0,0,0
6,69999,74,60000,7,10000,0,9999,0.100000,0,0,0.000000,4,0.000000,0.000000,0.094771,0,0,0,0,0,0,0
6,69999,75,60000,78,0,0,9999,0.100000,0,0,0.000000,4,0.000000,0.000000,0.388712,0,0,0,0,0,0,0
6,69999,76,60000,78,0,0,9999,0.100000,0,0,0.000000,4,0.000000,0.000000,0.653044,0,0,0,0,0,0,0
6,69999,77,60000,7,10000,0,9999,0.100000,0,0,0.000000,4,0.000000,0.000000,0.102031,0,0,0,0,0,0,0
6,69999,78,60000,78,10000,0,9999,0.100000,0,0,0.000000,4,0.000000,0.000000,1.905421,0,0,0,0,0,0,0
6,69999,79,60000,7,10000,0,9999,0.100000,0,0,0.000000,4,0.000000,0.000000,9.213480,0,0,0,0,0,0,0
6,69999,80,60000,52,10000,0,9999,0.100000,0,0,0.000000,4,0.000000,0.000000,0.088145,0,0,0,0,0,0,0
6,69999,81,60000,78,10000,0,9999,0.100000,0,0,0.000000,4,0.000000,0.000000,0.167906,0,0,0,0,0,0,0
6,69999,82,60000,7,10000,0,9999,0.100000,0,0,0.000000,4,0.000000,0.000000,0.077150,0,0,0,0,0,0,0
6,69999,83,60000,78,0,0,9999,0.100000,0,0,0.000000,4,0.000000,0.000000,0.917801,0,0,0,0,0,0,0
6,69999,84,60000,78,10000,0,9999,0.100000,0,0,0.000000,4,0.000000,0.000000,0.123008,0,0,0,0,0,0,0
6,69999,85,60000,78,10000,0,9999,0.100000,0,0,0.000000,4,0.000000,0.000000,1.044996,0,0,0,0,0,0,0
6,69999,86,60000,7,10000,0,9999,0.100000,0,0,0.000000,4,0.000000,0.000000,0.099130,0,0,0,0,0,0,0
6,69999,87,60000,52,10000,0,9999,0.100000,0,0,0.000000,4,0.000000,0.000000,1.642662,0,0,0,0,0,0,0
6,69999,88,60000,7,10000,0,9999,0.100000,0,0,0.000000,4,0.000000,0.000000,0.091275,0,0,0,0,0,0,0
6,69999,89,60000,78,10000,0,9999,0.100000,0,0,0.000000,4,0.000000,0.000000,0.093433,0,0,0,0,0,0,0
6,69999,90,60000,78,10000,0,9999,0.100000,0,0,0.000000,4,0.000000,0.000000,0.085731,0,0,0,0,0,0,0
6,69999,91,60000,7,10000,0,9999,0.100000,0,0,0.000000,4,0.000000,0.000000,0.624486,0,0,0,0,0,0,0
6,69999,92,60000,52,10000,0,9999,0.100000,0,0,0.000000,4,0.000000,0.000000,0.061198,0,0,0,0,0,0,0
6,69999,93,60000,78,10000,0,9999,0.100000,0,0,0.000000,4,0.000000,0.000000,0.130660,0,0,0,0,0,0,0
6,69999,94,60000,78,10000,0,9999,0.100000,0,0,0.000000,4,0.000000,0.000000,0.115326,0,0,0,0,0,0,0
6,69999,95,60000,78,10000,0,9999,0.100000,0,0,0.000000,4,0.000000,0.000000,0.119514,0,0,0,0,0,0,0
6,69999,96,60000,78,0,0,9999,0.100000,0,0,0.000000,4,0.000000,0.000000,1.209170,0,0,0,0,0,0,0
6,69999,97,60000,7,10000,0,9999,0.100000,0,0,0.000000,4,0.000000,0.000000,0.074095,0,0,0,0,0,0,0
6,69999,98,60000,78,0,0,9999,0.100000,0,0,0.000000,4,0.000000,0.000000,0.095944,0,0,0,0,0,0,0
6,69999,99,60000,52,10000,0,9999,0.100000,0,0,0.000000,4,0.000000,0.000000,0.088523,0,0,0,0,0,0,0
7,79999,0,70000,78,0,0,9999,0.100000,0,0,0.000000,4,0.000000,0.000000,0.409136,0,0,0,0,0,0,0
7,79999,1,70000,52,10000,0,9999,0.100000,0,0,0.000000,4,0.000000,0.000000,2.876534,0,0,0,0,0,0,0
7,79999,2,70000,78,0,0,9999,0.100000,0,0,0.000000,4,0.000000,0.000000,0.091599,0,0,0,0,0,0,0
7,79999,3,70000,78,0,0,9999,0.100000,0,0,0.000000,4,0.000000,0.000000,0.084827,0,0,0,0,0,0,0
7,79999,4,70000,78,10000,0,9999,0.100000,0,0,0.000000,4,0.000000,0.000000,0.211339,0,0,0,0,0,0,0
7,79999,5,70000,52,10000,1,9999,0.100000,0,0,0.000000,4,1.000000,0.000000,5.267513,0,0,0,0,0,0,0
7,79999,6,70000,52,10000,0,9999,0.100000,0,0,0.000000,4,0.000000,0.000000,0.103131,0,0,0,0,0,0,0
7,79999,7,70000,7,10000,0,9999,0.100000,0,0,0.000000,4,0.000000,0.000000,0.088359,0,0,0,0,0,0,0
7,79999,8,70000,7,10000,0,9999,0.100000,0,0,0.000000,4,0.000000,0.000000,0.099909,0,0,0,0,0,0,0
7,79999,9,70000,78,10000,0,9999,0.100000,0,0,0.000000,4,0.000000,0.000000,1.092910,0,0,0,0,0,0,0
7,79999,10,70000,52,10000,0,9999,0.100000,0,0,0.000000,4,0.000000,0.000000,0.489981,0,0,0,0,0,0,0
7,79999,11,70000,52,10000,0,9999,0.100000,0,0,0.000000,4,0.000000,0.000000,2.986134,0,0,0,0,0,0,0
7,79999,12,70000,78,0,0,9999,0.100000,0,0,0.000000,4,0.000000,0.000000,0.524304,0,0,0,0,0,0,0
7,79999,13,70000,78,10000,0,9999,0.100000,0,0,0.000000,4,0.000000,0.000000,0.713197,0,0,0,0,0,0,0
7,79999,14,70000,52,10000,0,9999,0.100000,0,0,0.000000,4,0.000000,0.000000,1.468986,0,0,0,0,0,0,0
7,79999,15,70000,7,10000,0,9999,0.100000,0,0,0.000000,4,0.000000,0.000000,0.091939,0,0,0,0,0,0,0
7,79999,16,70000,78,10000,0,9999,0.100000,0,0,0.000000,4,0.000000,0.000000,0.364541,0,0,0,0,0,0,0
7,79999,17,70000,52,10000,0,9999,0.100000,0,0,0.000000,4,0.000000,0.000000,0.114408,0,0,0,0,0,0,0
7,79999,18,70000,78,10000,0,9999,0.100000,0,0,0.000000,4,0.000000,0.000000,0.086288,0,0,0,0,0,0,0
7,79999,19,70000,7,10000,0,9999,0.100000,0,0,0.000000,4,0.000000,0.000000,0.126899,0,0,0,0,0,0,0
7,79999,20,70000,78,0,0,9999,0.100000,0,0,0.000000,4,0.000000,0.000000,0.222719,0,0,0,0,0,0,0
7,79999,21,70000,78,0,0,9999,0.100000,0,0,0.000000,4,0.000000,0.000000,0.163185,0,0,0,0,0,0,0
7,79999,22,70000,78,10000,0,9999,0.100000,0,0,0.000000,4,0.000000,0.000000,7.442733,0,0,0,0,0,0,0
7,79999,23,70000,52,10000,0,9999,0.100000,0,0,0.000000,4,0.000000,0.000000,0.159529,0,0,0,0,0,0,0
7,79999,24,70000,52,10000,0,9999,0.100000,0,0,0.000000,4,0.000000,0.000000,0.677923,0,0,0,0,0,0,0
7,79999,25,70000,52,10000,0,9999,0.100000,0,0,0.000000,4,0.000000,0.000000,0.229645,0,0,0,0,0,0,0
7,79999,26,70000,52,10000,0,9999,0.100000,0,0,0.000000,4,0.000000,0.000000,0.070348,0,0,0,0,0,0,0
7,79999,27,70000,52,10000,0,9999,0.065000,0,0,0.000000,4,0.000000,0.000000,0.081322,0,0,0,0,0,0,0
7,79999,28,70000,7,10000,0,9999,0.100000,0,0,0.000000,4,0.000000,0.000000,0.109964,0,0,0,0,0,0,0
7,79999,29,70000,52,10000,0,9999,0.100000,0,0,0.000000,4,0.000000,0.000000,2.078127,0,0,0,0,0,0,0
7,79999,30,70000,7,10000,0,9999,0.100000,0,0,0.000000,4,0.000000,0.000000,0.695586,0,0,0,0,0,0,0
7,79999,31,70000,78,10000,0,9999,0.100000,0,0,0.000000,4,0.000000,0.000000,0.330257,0,0,0,0,0,0,0
7,79999,32,70000,78,10000,0,9999,0.100000,0,0,0.000000,4,0.000000,0.000000,7.089026,0,0,0,0,0,0,0
7,79999,33,70000,78,10000,0,9999,0.100000,0,0,0.000000,4,0.000000,0.000000,0.158927,0,0,0,0,0,0,0
7,79999,34,70000,52,10000,0,9999,0.100000,0,0,0.000000,4,0.000000,0.000000,0.135739,0,0,0,0,0,0,0
7,79999,35,70000,52,10000,0,9999,0.100000,0,0,0.000000,4,0.000000,0.000000,0.478935,0,0,0,0,0,0,0
7,79999,36,70000,7,10000,0,9999,0.100000,0,0,0.000000,4,0.000000,0.000000,0.820844,0,0,0,0,0,0,0
7,79999,37,70000,78,10000,0,9999,0.100000,0,0,0.000000,4,0.000000,0.000000,2.394274,0,0,0,0,0,0,0
7,79999,38,70000,52,10000,0,9999,0.100000,0,0,0.000000,4,0.000000,0.000000,0.744223,0,0,0,0,0,0,0
7,79999,39,70000,78,10000,1,9999,0.100000,0,0,0.000000,4,5.000000,0.000000,13.596531,0,0,0,0,0,0,0
7,79999,40,70000,52,10000,0,9999,0.100000,0,0,0.000000,4,0.000000,0.000000,0.608996,0,0,0,0,0,0,0
7,79999,41,70000,78,10000,0,9999,0.100000,0,0,0.000000,4,0.000000,0.000000,0.275529,0,0,0,0,0,0,0
7,79999,42,70000,52,10000,0,9999,0.100000,0,0,0.000000,4,0.000000,0.000000,0.883973,0,0,0,0,0,0,0
7,79999,43,70000,78,10000,0,9999,0.100000,0,0,0.000000,4,0.000000,0.000000,0.507436,0,0,0,0,0,0,0
7,79999,44,70000,78,0,0,9999,0.100000,0,0,0.000000,4,0.000000,0.000000,1.188900,0,0,0,0,0,0,0
7,79999,45,70000,7,10000,0,9999,0.100000,0,0,0.000000,4,0.000000,0.000000,0.423563,0,0,0,0,0,0,0
7,79999,46,70000,78,10000,0,9999,0.100000,0,0,0.000000,4,0.000000,0.000000,0.102139,0,0,0,0,0,0,0
7,79999,47,70000,52,10000,0,9999,0.100000,0,0,0.000000,4,0.000000,0.000000,0.566026,0,0,0,0,0,0,0
7,79999,48,70000,78,0,0,9999,0.100000,0,0,0.000000,4,0.000000,0.000000,0.150980,0,0,0,0,0,0,0
7,79999,49,70000,7,10000,0,9999,0.100000,0,0,0.000000,4,0.000000,0.000000,0.227886,0,0,0,0,0,0,0
7,79999,50,70000,78,0,0,9999,0.100000,0,0,0.000000,4,0.000000,0.000000,0.089474,0,0,0,0,0,0,0
7,79999,51,70000,52,10000,0,9999,0.100000,0,0,0.000000,4,0.000000,0.000000,23.814927,0,0,0,0,0,0,0
7,79999,52,70000,52,10000,0,9999,0.100000,0,0,0.000000,4,0.000000,0.000000,0.086109,0,0,0,0,0,0,0
7,79999,53,70000,78,10000,0,9999,0.100000,0,0,0.000000,4,0.000000,0.000000,0.685297,0,0,0,0,0,0,0
7,79999,54,70000,78,0,0,9999,0.100000,0,0,0.000000,4,0.000000,0.000000,0.695392,0,0,0,0,0,0,0
7,79999,55,70000,52,10000,0,9999,0.100000,0,0,0.000000,4,0.000000,0.000000,0.169414,0,0,0,0,0,0,0
7,79999,56,70000,78,0,0,9999,0.100000,0,0,0.000000,4,0.000000,0.000000,9.628518,0,0,0,0,0,0,0
7,79999,57,70000,52,10000,0,9999,0.100000,0,0,0.000000,4,0.000000,0.000000,0.079264,0,0,0,0,0,0,0
7,79999,58,70000,7,10000,0,9999,0.100000,0,0,0.000000,4,0.000000,0.000000,0.529376,0,0,0,0,0,0,0
7,79999,59,70000,7,10000,1,9999,0.100000,0,0,0.000000,4,1.000000,0.000000,11.239906,0,0,0,0,0,0,0
7,79999,60,70000,78,0,0,9999,0.100000,0,0,0.000000,4,0.000000,0.000000,0.251459,0,0,0,0,0,0,0
7,79999,61,70000,78,0,0,9999,0.100000,0,0,0.000000,4,0.000000,0.000000,20.360332,0,0,0,0,0,0,0
7,79999,62,70000,52,10000,0,9999,0.100000,0,0,0.000000,4,0.000000,0.000000,0.079082,0,0,0,0,0,0,0
7,79999,63,70000,7,10000,0,9999,0.100000,0,0,0.000000,4,0.000000,0.000000,0.776066,0,0,0,0,0,0,0
7,79999,64,70000,7,10000,0,9999,0.100000,0,0,0.000000,4,0.000000,0.000000,0.199012,0,0,0,0,0,0,0
7,79999,65,70000,7,10000,0,9999,0.100000,0,0,0.000000,4,0.000000,0.000000,0.062767,0,0,0,0,0,0,0
7,79999,66,70000,78,10000,0,9999,0.100000,0,0,0.000000,4,0.000000,0.000000,0.080274,0,0,0,0,0,0,0
7,79999,67,70000,78,0,0,9999,0.100000,0,0,0.000000,4,0.000000,0.000000,0.907429,0,0,0,0,0,0,0
7,79999,68,70000,78,0,0,9999,0.100000,0,0,0.000000,4,0.000000,0.000000,1.005198,0,0,0,0,0,0,0
7,79999,69,70000,52,10000,0,9999,0.100000,0,0,0.000000,4,0.000000,0.000000,0.793045,0,0,0,0,0,0,0
7,79999,70,70000,78,0,0,9999,0.100000,0,0,0.000000,4,0.000000,0.000000,8.166324,0,0,0,0,0,0,0
7,79999,71,70000,78,0,0,9999,0.100000,0,0,0.000000,4,0.000000,0.000000,0.306295,0,0,0,0,0,0,0
7,79999,72,70000,78,10000,0,9999,0.100000,0,0,0.000000,4,0.000000,0.000000,0.632251,0,0,0,0,0,0,0
7,79999,73,70000,52,10000,0,9999,0.100000,0,0,0.000000,4,0.000000,0.000000,0.545487,0,0,0,0,0,0,0
7,79999,74,70000,52,10000,0,9999,0.100000,0,0,0.000000,4,0.000000,0.000000,0.095333,0,0,0,0,0,0,0
7,79999,75,70000,78,10000,0,9999,0.100000,0,0,0.000000,4,0.000000,0.000000,0.307262,0,0,0,0,0,0,0
7,79999,76,70000,78,10000,0,9999,0.100000,0,0,0.000000,4,0.000000,0.000000,0.157608,0,0,0,0,0,0,0
7,79999,77,70000,78,0,0,9999,0.100000,0,0,0.000000,4,0.000000,0.000000,0.103903,0,0,0,0,0,0,0
7,79999,78,70000,7,10000,0,9999,0.100000,0,0,0.000000,4,0.000000,0.000000,1.901486,0,0,0,0,0,0,0
7,79999,79,70000,52,10000,0,9999,0.100000,0,0,0.000000,4,0.000000,0.000000,3.364870,0,0,0,0,0,0,0
7,79999,80,70000,78,10000,0,9999,0.100000,0,0,0.000000,4,0.000000,0.000000,0.483882,0,0,0,0,0,0,0
7,79999,81,70000,52,10000,0,9999,0.100000,0,0,0.000000,4,0.000000,0.000000,0.177455,0,0,0,0,0,0,0
7,79999,82,70000,7,10000,0,9999,0.100000,0,0,0.000000,4,0.000000,0.000000,0.076809,0,0,0,0,0,0,0
7,79999,83,70000,78,0,0,9999,0.100000,0,0,0.000000,4,0.000000,0.000000,0.881329,0,0,0,0,0,0,0
7,79999,84,70000,78,0,0,9999,0.100000,0,0,0.000000,4,0.000000,0.000000,0.120375,0,0,0,0,0,0,0
7,79999,85,70000,78,10000,0,9999,0.100000,0,0,0.000000,4,0.000000,0.000000,1.190696,0,0,0,0,0,0,0
7,79999,86,70000,78,10000,0,9999,0.100000,0,0,0.000000,4,0.000000,0.000000,0.994731,0,0,0,0,0,0,0
7,79999,87,70000,7,10000,1,9999,0.100000,0,0,0.000000,4,4.000000,0.000000,10.831301,0,0,0,0,0,0,0
7,79999,88,70000,78,10000,0,9999,0.100000,0,0,0.000000,4,0.000000,0.000000,0.480892,0,0,0,0,0,0,0
7,79999,89,70000,78,10000,0,9999,0.100000,0,0,0.000000,4,0.000000,0.000000,0.518522,0,0,0,0,0,0,0
7,79999,90,70000,78,10000,0,9999,0.100000,0,0,0.000000,4,0.000000,0.000000,0.085631,0,0,0,0,0,0,0
7,79999,91,70000,52,10000,0,9999,0.100000,0,0,0.000000,4,0.000000,0.000000,1.376733,0,0,0,0,0,0,0
7,79999,92,70000,52,10000,0,9999,0.100000,0,0,0.000000,4,0.000000,0.000000,0.061161,0,0,0,0,0,0,0
7,79999,93,70000,78,10000,0,9999,0.100000,0,0,0.000000,4,0.000000,0.000000,0.131314,0,0,0,0,0,0,0
7,79999,94,70000,78,10000,0,9999,0.100000,0,0,0.000000,4,0.000000,0.000000,0.119869,0,0,0,0,0,0,0
7,79999,95,70000,52,10000,0,9999,0.100000,0,0,0.000000,4,0.000000,0.000000,0.114904,0,0,0,0,0,0,0
7,79999,96,70000,78,0,0,9999,0.100000,0,0,0.000000,4,0.000000,0.000000,1.841808,0,0,0,0,0,0,0
7,79999,97,70000,78,10000,0,9999,0.100000,0,0,0.000000,4,0.000000,0.000000,0.304986,0,0,0,0,0,0,0
7,79999,98,70000,78,0,1,9999,0.100000,0,0,0.000000,4,5.000000,0.000000,10.630385,0,0,0,0,0,0,0
7,79999,99,70000,78,0,0,9999,0.100000,0,0,0.000000,4,0.000000,0.000000,0.087347,0,0,0,0,0,0,0
8,89999,0,80000,7,10000,0,9999,0.100000,0,0,0.000000,4,0.000000,0.000000,1.641188,0,0,0,0,0,0,0
8,89999,1,80000,52,10000,0,9999,0.100000,0,0,0.000000,4,0.000000,0.000000,0.306297,0,0,0,0,0,0,0
8,89999,2,80000,78,10000,0,9999,0.100000,0,0,0.000000,4,0.000000,0.000000,0.119170,0,0,0,0,0,0,0
8,89999,3,80000,78,0,0,9999,0.100000,0,0,0.000000,4,0.000000,0.000000,0.082038,0,0,0,0,0,0,0
8,89999,4,80000,7,10000,0,9999,0.100000,0,0,0.000000,4,0.000000,0.000000,0.253201,0,0,0,0,0,0,0
8,89999,5,80000,78,10000,1,9999,0.100000,0,0,0.000000,4,4.000000,0.000000,10.841879,0,0,0,0,0,0,0
8,89999,6,80000,7,10000,0,9999,0.100000,0,0,0.000000,4,0.000000,0.000000,0.241051,0,0,0,0,0,0,0
8,89999,7,80000,7,10000,0,9999,0.100000,0,0,0.000000,4,0.000000,0.000000,0.085598,0,0,0,0,0,0,0
8,89999,8,80000,78,0,0,9999,0.100000,0,0,0.000000,4,0.000000,0.000000,0.098552,0,0,0,0,0,0,0
8,89999,9,80000,78,0,0,9999,0.100000,0,0,0.000000,4,0.000000,0.000000,0.923791,0,0,0,0,0,0,0
8,89999,10,80000,78,0,0,9999,0.100000,0,0,0.000000,4,0.000000,0.000000,0.708201,0,0,0,0,0,0,0
8,89999,11,80000,78,0,0,9999,0.100000,0,0,0.000000,4,0.000000,0.000000,0.806904,0,0,0,0,0,0,0
8,89999,12,80000,78,10000,0,9999,0.100000,0,0,0.000000,4,0.000000,0.000000,0.720537,0,0,0,0,0,0,0
8,89999,13,80000,52,10000,1,9999,0.100000,0,0,0.000000,4,1.000000,0.000000,2.134639,0,0,0,0,0,0,0
8,89999,14,80000,78,0,1,9999,0.100000,0,0,0.000000,4,4.000000,0.000000,5.937456,0,0,0,0,0,0,0
8,89999,15,80000,52,10000,0,9999,0.100000,0,0,0.000000,4,0.000000,0.000000,0.088851,0,0,0,0,0,0,0
8,89999,16,80000,78,0,0,9999,0.100000,0,0,0.000000,4,0.000000,0.000000,0.177654,0,0,0,0,0,0,0
8,89999,17,80000,52,10000,0,9999,0.100000,0,0,0.000000,4,0.000000,0.000000,0.442350,0,0,0,0,0,0,0
8,89999,18,80000,78,10000,0,9999,0.100000,0,0,0.000000,4,0.000000,0.000000,0.403605,0,0,0,0,0,0,0
8,89999,19,80000,78,10000,0,9999,0.100000,0,0,0.000000,4,0.000000,0.000000,0.156156,0,0,0,0,0,0,0
8,89999,20,80000,7,10000,0,9999,0.100000,0,0,0.000000,4,0.000000,0.000000,0.278526,0,0,0,0,0,0,0
8,89999,21,80000,78,10000,0,9999,0.100000,0,0,0.000000,4,0.000000,0.000000,0.127313,0,0,0,0,0,0,0
8,89999,22,80000,78,10000,0,9999,0.100000,0,0,0.000000,4,0.000000,0.000000,6.036565,0,0,0,0,0,0,0
8,89999,23,80000,7,10000,0,9999,0.100000,0,0,0.000000,4,0.000000,0.000000,0.165792,0,0,0,0,0,0,0
8,89999,24,80000,78,10000,0,9999,0.100000,0,0,0.000000,4,0.000000,0.000000,1.081085,0,0,0,0,0,0,0
8,89999,25,80000,78,10000,0,9999,0.100000,0,0,0.000000,4,0.000000,0.000000,0.273170,0,0,0,0,0,0,0
8,89999,26,80000,78,10000,0,9999,0.100000,0,0,0.000000,4,0.000000,0.000000,0.061623,0,0,0,0,0,0,0
8,89999,27,80000,7,10000,0,9999,0.100000,0,0,0.000000,4,0.000000,0.000000,0.080325,0,0,0,0,0,0,0
8,89999,28,80000,52,10000,0,9999,0.100000,0,0,0.000000,4,0.000000,0.000000,0.109980,0,0,0,0,0,0,0
8,89999,29,80000,52,10000,1,9999,0.100000,0,0,0.000000,4,1.000000,0.000000,1.783372,0,0,0,0,0,0,0
8,89999,30,80000,52,10000,0,9999,0.100000,0,0,0.000000,4,0.000000,0.000000,0.930220,0,0,0,0,0,0,0
8,89999,31,80000,78,0,0,9999,0.100000,0,0,0.000000,4,0.000000,0.000000,0.469910,0,0,0,0,0,0,0
8,89999,32,80000,52,10000,0,9999,0.100000,0,0,0.000000,4,0.000000,0.000000,7.546628,0,0,0,0,0,0,0
8,89999,33,80000,52,10000,0,9999,0.100000,0,0,0.000000,4,0.000000,0.000000,0.164403,0,0,0,0,0,0,0
8,89999,34,80000,78,0,0,9999,0.100000,0,0,0.000000,4,0.000000,0.000000,0.132584,0,0,0,0,0,0,0
8,89999,35,80000,52,10000,0,9999,0.100000,0,0,0.000000,4,0.000000,0.000000,0.466415,0,0,0,0,0,0,0
8,89999,36,80000,52,10000,1,9999,0.100000,0,0,0.000000,4,1.000000,0.000000,2.047581,0,0,0,0,0,0,0
8,89999,37,80000,52,10000,1,9999,0.100000,0,0,0.000000,4,1.000000,0.000000,3.700427,0,0,0,0,0,0,0
8,89999,38,80000,7,10000,1,9999,0.100000,0,0,0.000000,4,1.000000,0.000000,1.910386,0,0,0,0,0,0,0
8,89999,39,80000,7,10000,1,9999,0.100000,0,0,0.000000,4,1.000000,0.000000,4.776315,0,0,0,0,0,0,0
8,89999,40,80000,78,0,0,9999,0.100000,0,0,0.000000,4,0.000000,0.000000,1.739851,0,0,0,0,0,0,0
8,89999,41,80000,78,0,1,9999,0.100000,0,0,0.000000,4,1.000000,0.000000,1.396111,0,0,0,0,0,0,0
8,89999,42,80000,7,10000,1,9999,0.100000,0,0,0.000000,4,2.000000,0.000000,2.535032,0,0,0,0,0,0,0
8,89999,43,80000,7,10000,0,9999,0.100000,0,0,0.000000,4,0.000000,0.000000,0.652377,0,0,0,0,0,0,0
8,89999,44,80000,78,10000,1,9999,0.100000,0,0,0.000000,4,1.000000,0.000000,4.283778,0,0,0,0,0,0,0
8,89999,45,80000,78,0,0,9999,0.100000,0,0,0.000000,4,0.000000,0.000000,0.459621,0,0,0,0,0,0,0
8,89999,46,80000,52,10000,0,9999,0.100000,0,0,0.000000,4,0.000000,0.000000,0.241971,0,0,0,0,0,0,0
8,89999,47,80000,78,10000,0,9999,0.100000,0,0,0.000000,4,0.000000,0.000000,1.374370,0,0,0,0,0,0,0
8,89999,48,80000,7,10000,0,9999,0.100000,0,0,0.000000,4,0.000000,0.000000,0.183632,0,0,0,0,0,0,0
8,89999,49,80000,52,10000,0,9999,0.100000,0,0,0.000000,4,0.000000,0.000000,0.231994,0,0,0,0,0,0,0
8,89999,50,80000,78,0,0,9999,0.100000,0,0,0.000000,4,0.000000,0.000000,0.501877,0,0,0,0,0,0,0
8,89999,51,80000,78,10000,1,9999,0.100000,0,0,0.000000,4,2.000000,0.000000,23.845955,0,0,0,0,0,0,0
8,89999,52,80000,78,0,0,9999,0.100000,0,0,0.000000,4,0.000000,0.000000,0.087515,0,0,0,0,0,0,0
8,89999,53,80000,52,10000,0,9999,0.100000,0,0,0.000000,4,0.000000,0.000000,0.661499,0,0,0,0,0,0,0
8,89999,54,80000,7,10000,0,9999,0.100000,0,0,0.000000,4,0.000000,0.000000,0.571595,0,0,0,0,0,0,0
8,89999,55,80000,7,10000,0,9999,0.100000,0,0,0.000000,4,0.000000,0.000000,0.200076,0,0,0,0,0,0,0
8,89999,56,80000,52,10000,0,9999,0.100000,0,0,0.000000,4,0.000000,0.000000,5.337166,0,0,0,0,0,0,0
8,89999,57,80000,52,10000,0,9999,0.100000,0,0,0.000000,4,0.000000,0.000000,0.152923,0,0,0,0,0,0,0
8,89999,58,80000,78,0,0,9999,0.100000,0,0,0.000000,4,0.000000,0.000000,0.432239,0,0,0,0,0,0,0
8,89999,59,80000,52,10000,0,9999,0.100000,0,0,0.000000,4,0.000000,0.000000,8.301464,0,0,0,0,0,0,0
8,89999,60,80000,78,10000,0,9999,0.100000,0,0,0.000000,4,0.000000,0.000000,0.291139,0,0,0,0,0,0,0
8,89999,61,80000,52,10000,1,9999,0.100000,0,0,0.000000,4,1.000000,0.000000,1.439018,0,0,0,0,0,0,0
8,89999,62,80000,78,10000,0,9999,0.100000,0,0,0.000000,4,0.000000,0.000000,0.080963,0,0,0,0,0,0,0
8,89999,63,80000,78,10000,1,9999,0.100000,0,0,0.000000,4,2.000000,0.000000,2.318316,0,0,0,0,0,0,0
8,89999,64,80000,52,10000,0,9999,0.100000,0,0,0.000000,4,0.000000,0.000000,0.203369,0,0,0,0,0,0,0
8,89999,65,80000,78,0,0,9999,0.100000,0,0,0.000000,4,0.000000,0.000000,0.062381,0,0,0,0,0,0,0
8,89999,66,80000,7,10000,0,9999,0.100000,0,0,0.000000,4,0.000000,0.000000,0.081687,0,0,0,0,0,0,0
8,89999,67,80000,78,0,1,9999,0.100000,0,0,0.000000,4,1.000000,0.000000,2.090487,0,0,0,0,0,0,0
8,89999,68,80000,7,10000,0,9999,0.100000,0,0,0.000000,4,0.000000,0.000000,0.994672,0,0,0,0,0,0,0
8,89999,69,80000,78,0,0,9999,0.100000,0,0,0.000000,4,0.000000,0.000000,0.803305,0,0,0,0,0,0,0
8,89999,70,80000,7,10000,0,9999,0.100000,0,0,0.000000,4,0.000000,0.000000,8.202300,0,0,0,0,0,0,0
8,89999,71,80000,7,10000,0,9999,0.100000,0,0,0.000000,4,0.000000,0.000000,0.343631,0,0,0,0,0,0,0
8,89999,72,80000,78,0,1,9999,0.100000,0,0,0.000000,4,3.000000,0.000000,9.597142,0,0,0,0,0,0,0
8,89999,73,80000,52,10000,0,9999,0.100000,0,0,0.000000,4,0.000000,0.000000,0.673870,0,0,0,0,0,0,0
8,89999,74,80000,52,10000,0,9999,0.100000,0,0,0.000000,4,0.000000,0.000000,0.095267,0,0,0,0,0,0,0
8,89999,75,80000,78,0,0,9999,0.100000,0,0,0.000000,4,0.000000,0.000000,0.259941,0,0,0,0,0,0,0
8,89999,76,80000,78,0,0,9999,0.100000,0,0,0.000000,4,0.000000,0.000000,0.184656,0,0,0,0,0,0,0
8,89999,77,80000,7,10000,0,9999,0.100000,0,0,0.000000,4,0.000000,0.000000,0.167015,0,0,0,0,0,0,0
8,89999,78,80000,7,10000,0,9999,0.100000,0,0,0.000000,4,0.000000,0.000000,1.874902,0,0,0,0,0,0,0
8,89999,79,80000,78,10000,0,9999,0.100000,0,0,0.000000,4,0.000000,0.000000,2.211745,0,0,0,0,0,0,0
8,89999,80,80000,78,0,0,9999,0.100000,0,0,0.000000,4,0.000000,0.000000,0.100408,0,0,0,0,0,0,0
8,89999,81,80000,52,10000,0,9999,0.100000,0,0,0.000000,4,0.000000,0.000000,0.220023,0,0,0,0,0,0,0
8,89999,82,80000,78,0,0,9999,0.100000,0,0,0.000000,4,0.000000,0.000000,0.076931,0,0,0,0,0,0,0
8,89999,83,80000,78,10000,0,9999,0.100000,0,0,0.000000,4,0.000000,0.000000,0.440025,0,0,0,0,0,0,0
8,89999,84,80000,78,0,0,9999,0.100000,0,0,0.000000,4,0.000000,0.000000,0.156183,0,0,0,0,0,0,0
8,89999,85,80000,78,0,0,9999,0.100000,0,0,0.000000,4,0.000000,0.000000,0.917720,0,0,0,0,0,0,0
8,89999,86,80000,78,0,0,9999,0.100000,0,0,0.000000,4,0.000000,0.000000,0.061533,0,0,0,0,0,0,0
8,89999,87,80000,78,10000,0,9999,0.100000,0,0,0.000000,4,0.000000,0.000000,0.886493,0,0,0,0,0,0,0
8,89999,88,80000,7,10000,0,9999,0.100000,0,0,0.000000,4,0.000000,0.000000,0.114071,0,0,0,0,0,0,0
8,89999,89,80000,78,0,0,9999,0.100000,0,0,0.000000,4,0.000000,0.000000,0.102374,0,0,0,0,0,0,0
8,89999,90,80000,78,10000,0,9999,0.100000,0,0,0.000000,4,0.000000,0.000000,0.085715,0,0,0,0,0,0,0
8,89999,91,80000,78,0,0,9999,0.135000,0,0,0.000000,4,0.000000,0.000000,2.283544,0,0,0,0,0,0,0
8,89999,92,80000,78,0,0,9999,0.100000,0,0,0.000000,4,0.000000,0.000000,0.061216,0,0,0,0,0,0,0
8,89999,93,80000,52,10000,0,9999,0.100000,0,0,0.000000,4,0.000000,0.000000,0.130536,0,0,0,0,0,0,0
8,89999,94,80000,78,10000,0,9999,0.100000,0,0,0.000000,4,0.000000,0.000000,0.117725,0,0,0,0,0,0,0
8,89999,95,80000,78,10000,0,9999,0.100000,0,0,0.000000,4,0.000000,0.000000,0.106592,0,0,0,0,0,0,0
8,89999,96,80000,78,10000,0,9999,0.100000,0,0,0.000000,4,0.000000,0.000000,0.842209,0,0,0,0,0,0,0
8,89999,97,80000,52,10000,0,9999,0.100000,0,0,0.000000,4,0.000000,0.000000,0.461467,0,0,0,0,0,0,0
8,89999,98,80000,78,0,0,9999,0.100000,0,0,0.000000,4,0.000000,0.000000,0.166738,0,0,0,0,0,0,0
8,89999,99,80000,52,10000,0,9999,0.100000,0,0,0.000000,4,0.000000,0.000000,0.150638,0,0,0,0,0,0,0
9,99999,0,90000,78,0,0,9999,0.100000,0,0,0.000000,4,0.000000,0.000000,0.563070,0,0,0,0,0,0,0
9,99999,1,90000,7,10000,0,9999,0.100000,0,0,0.000000,4,0.000000,0.000000,0.204977,0,0,0,0,0,0,0
9,99999,2,90000,7,10000,0,9999,0.100000,0,0,0.000000,4,0.000000,0.000000,0.390293,0,0,0,0,0,0,0
9,99999,3,90000,78,0,0,9999,0.100000,0,0,0.000000,4,0.000000,0.000000,0.080533,0,0,0,0,0,0,0
9,99999,4,90000,7,10000,1,9999,0.100000,0,0,0.000000,4,1.000000,0.000000,2.526627,0,0,0,0,0,0,0
9,99999,5,90000,78,10000,0,9999,0.100000,0,0,0.000000,4,0.000000,0.000000,3.144167,0,0,0,0,0,0,0
9,99999,6,90000,7,10000,0,9999,0.100000,0,0,0.000000,4,0.000000,0.000000,0.725645,0,0,0,0,0,0,0
9,99999,7,90000,7,10000,0,9999,0.100000,0,0,0.000000,4,0.000000,0.000000,0.084364,0,0,0,0,0,0,0
9,99999,8,90000,78,0,0,9999,0.100000,0,0,0.000000,4,0.000000,0.000000,0.098506,0,0,0,0,0,0,0
9,99999,9,90000,78,10000,0,9999,0.100000,0,0,0.000000,4,0.000000,0.000000,0.833625,0,0,0,0,0,0,0
9,99999,10,90000,7,10000,0,9999,0.100000,0,0,0.000000,4,0.000000,0.000000,0.850105,0,0,0,0,0,0,0
9,99999,11,90000,7,10000,0,9999,0.100000,0,0,0.000000,4,0.000000,0.000000,0.947168,0,0,0,0,0,0,0
9,99999,12,90000,52,10000,0,9999,0.100000,0,0,0.000000,4,0.000000,0.000000,0.234920,0,0,0,0,0,0,0
9,99999,13,90000,7,10000,0,9999,0.100000,0,0,0.000000,4,0.000000,0.000000,1.109572,0,0,0,0,0,0,0
9,99999,14,90000,78,10000,1,9999,0.100000,0,0,0.000000,4,1.000000,0.000000,1.486001,0,0,0,0,0,0,0
9,99999,15,90000,52,10000,0,9999,0.100000,0,0,0.000000,4,0.000000,0.000000,0.089039,0,0,0,0,0,0,0
9,99999,16,90000,52,10000,0,9999,0.100000,0,0,0.000000,4,0.000000,0.000000,0.099738,0,0,0,0,0,0,0
9,99999,17,90000,52,10000,0,9999,0.100000,0,0,0.000000,4,0.000000,0.000000,0.930400,0,0,0,0,0,0,0
9,99999,18,90000,78,10000,0,9999,0.100000,0,0,0.000000,4,0.000000,0.000000,0.526840,0,0,0,0,0,0,0
9,99999,19,90000,78,0,0,9999,0.100000,0,0,0.000000,4,0.000000,0.000000,0.122732,0,0,0,0,0,0,0
9,99999,20,90000,7,10000,0,9999,0.100000,0,0,0.000000,4,0.000000,0.000000,0.509869,0,0,0,0,0,0,0
9,99999,21,90000,78,10000,1,9999,0.100000,0,0,0.000000,4,7.000000,0.000000,14.731061,0,0,0,0,0,0,0
9,99999,22,90000,7,10000,0,9999,0.100000,0,0,0.000000,4,0.000000,0.000000,5.942082,0,0,0,0,0,0,0
9,99999,23,90000,52,10000,0,9999,0.100000,0,0,0.000000,4,0.000000,0.000000,0.160486,0,0,0,0,0,0,0
9,99999,24,90000,7,10000,0,9999,0.100000,0,0,0.000000,4,0.000000,0.000000,0.192313,0,0,0,0,0,0,0
9,99999,25,90000,52,10000,0,9999,0.100000,0,0,0.000000,4,0.000000,0.000000,0.269941,0,0,0,0,0,0,0
9,99999,26,90000,7,10000,0,9999,0.100000,0,0,0.000000,4,0.000000,0.000000,0.061691,0,0,0,0,0,0,0
9,99999,27,90000,52,10000,0,9999,0.100000,0,0,0.000000,4,0.000000,0.000000,0.080084,0,0,0,0,0,0,0
9,99999,28,90000,78,0,0,9999,0.100000,0,0,0.000000,4,0.000000,0.000000,0.110154,0,0,0,0,0,0,0
9,99999,29,90000,52,10000,0,9999,0.100000,0,0,0.000000,4,0.000000,0.000000,4.985837,0,0,0,0,0,0,0
9,99999,30,90000,78,10000,1,9999,0.100000,0,0,0.000000,4,5.000000,0.000000,6.185977,0,0,0,0,0,0,0
9,99999,31,90000,78,0,1,9999,0.100000,0,0,0.000000,4,3.000000,0.000000,7.506750,0,0,0,0,0,0,0
9,99999,32,90000,78,0,0,9999,0.100000,0,0,0.000000,4,0.000000,0.000000,7.957725,0,0,0,0,0,0,0
9,99999,33,90000,52,10000,0,9999,0.100000,0,0,0.000000,4,0.000000,0.000000,0.099426,0,0,0,0,0,0,0
9,99999,34,90000,7,10000,0,9999,0.100000,0,0,0.000000,4,0.000000,0.000000,0.128316,0,0,0,0,0,0,0
9,99999,35,90000,7,10000,0,9999,0.100000,0,0,0.000000,4,0.000000,0.000000,0.614600,0,0,0,0,0,0,0
9,99999,36,90000,52,10000,0,9999,0.100000,0,0,0.000000,4,0.000000,0.000000,1.128470,0,0,0,0,0,0,0
9,99999,37,90000,78,10000,0,9999,0.100000,0,0,0.000000,4,0.000000,0.000000,1.138153,0,0,0,0,0,0,0
9,99999,38,90000,78,10000,0,9999,0.100000,0,0,0.000000,4,0.000000,0.000000,1.043641,0,0,0,0,0,0,0
9,99999,39,90000,7,10000,0,9999,0.100000,0,0,0.000000,4,0.000000,0.000000,0.753195,0,0,0,0,0,0,0
9,99999,40,90000,7,10000,0,9999,0.100000,0,0,0.000000,4,0.000000,0.000000,0.516389,0,0,0,0,0,0,0
9,99999,41,90000,52,10000,1,9999,0.100000,0,0,0.000000,4,1.000000,0.000000,1.255399,0,0,0,0,0,0,0
9,99999,42,90000,78,10000,0,9999,0.100000,0,0,0.000000,4,0.000000,0.000000,0.452419,0,0,0,0,0,0,0
9,99999,43,90000,7,10000,0,9999,0.100000,0,0,0.000000,4,0.000000,0.000000,0.177357,0,0,0,0,0,0,0
9,99999,44,90000,78,10000,1,9999,0.100000,0,0,0.000000,4,1.000000,0.000000,10.365254,0,0,0,0,0,0,0
9,99999,45,90000,52,10000,0,9999,0.100000,0,0,0.000000,4,0.000000,0.000000,0.462173,0,0,0,0,0,0,0
9,99999,46,90000,78,10000,0,9999,0.135000,0,0,0.000000,4,0.000000,0.000000,0.385081,0,0,0,0,0,0,0
9,99999,47,90000,52,10000,0,9999,0.100000,0,0,0.000000,4,0.000000,0.000000,0.258788,0,0,0,0,0,0,0
9,99999,48,90000,78,10000,0,9999,0.100000,0,0,0.000000,4,0.000000,0.000000,0.185714,0,0,0,0,0,0,0
9,99999,49,90000,52,10000,0,9999,0.100000,0,0,0.000000,4,0.000000,0.000000,0.235249,0,0,0,0,0,0,0
9,99999,50,90000,52,10000,0,9999,0.100000,0,0,0.000000,4,0.000000,0.000000,0.885582,0,0,0,0,0,0,0
9,99999,51,90000,78,10000,0,9999,0.100000,0,0,0.000000,4,0.000000,0.000000,23.578349,0,0,0,0,0,0,0
9,99999,52,90000,7,10000,0,9999,0.100000,0,0,0.000000,4,0.000000,0.000000,0.089322,0,0,0,0,0,0,0
9,99999,53,90000,7,10000,0,9999,0.100000,0,0,0.000000,4,0.000000,0.000000,0.463121,0,0,0,0,0,0,0
9,99999,54,90000,52,10000,0,9999,0.100000,0,0,0.000000,4,0.000000,0.000000,0.617916,0,0,0,0,0,0,0
9,99999,55,90000,7,10000,0,9999,0.100000,0,0,0.000000,4,0.000000,0.000000,0.204020,0,0,0,0,0,0,0
9,99999,56,90000,78,10000,0,9999,0.100000,0,0,0.000000,4,0.000000,0.000000,5.174641,0,0,0,0,0,0,0
9,99999,57,90000,78,10000,0,9999,0.100000,0,0,0.000000,4,0.000000,0.000000,0.159994,0,0,0,0,0,0,0
9,99999,58,90000,78,10000,0,9999,0.100000,0,0,0.000000,4,0.000000,0.000000,0.344825,0,0,0,0,0,0,0
9,99999,59,90000,78,10000,0,9999,0.100000,0,0,0.000000,4,0.000000,0.000000,8.411236,0,0,0,0,0,0,0
9,99999,60,90000,52,10000,0,9999,0.100000,0,0,0.000000,4,0.000000,0.000000,0.322397,0,0,0,0,0,0,0
9,99999,61,90000,78,10000,1,9999,0.100000,0,0,0.000000,4,1.000000,0.000000,1.305956,0,0,0,0,0,0,0
9,99999,62,90000,78,10000,0,9999,0.100000,0,0,0.000000,4,0.000000,0.000000,0.081239,0,0,0,0,0,0,0
9,99999,63,90000,78,10000,0,9999,0.100000,0,0,0.000000,4,0.000000,0.000000,0.555235,0,0,0,0,0,0,0
9,99999,64,90000,78,10000,0,9999,0.100000,0,0,0.000000,4,0.000000,0.000000,0.198565,0,0,0,0,0,0,0
9,99999,65,90000,7,10000,0,9999,0.100000,0,0,0.000000,4,0.000000,0.000000,0.062516,0,0,0,0,0,0,0
9,99999,66,90000,7,10000,0,9999,0.100000,0,0,0.000000,4,0.000000,0.000000,0.081604,0,0,0,0,0,0,0
9,99999,67,90000,52,10000,0,9999,0.100000,0,0,0.000000,4,0.000000,0.000000,0.459515,0,0,0,0,0,0,0
9,99999,68,90000,7,10000,0,9999,0.100000,0,0,0.000000,4,0.000000,0.000000,1.031401,0,0,0,0,0,0,0
9,99999,69,90000,7,10000,0,9999,0.100000,0,0,0.000000,4,0.000000,0.000000,0.987513,0,0,0,0,0,0,0
9,99999,70,90000,52,10000,0,9999,0.100000,0,0,0.000000,4,0.000000,0.000000,8.203218,0,0,0,0,0,0,0
9,99999,71,90000,52,10000,0,9999,0.100000,0,0,0.000000,4,0.000000,0.000000,0.349130,0,0,0,0,0,0,0
9,99999,72,90000,7,10000,0,9999,0.100000,0,0,0.000000,4,0.000000,0.000000,0.417364,0,0,0,0,0,0,0
9,99999,73,90000,78,10000,0,9999,0.100000,0,0,0.000000,4,0.000000,0.000000,0.185786,0,0,0,0,0,0,0
9,99999,74,90000,7,10000,0,9999,0.100000,0,0,0.000000,4,0.000000,0.000000,0.090912,0,0,0,0,0,0,0
9,99999,75,90000,78,0,0,9999,0.100000,0,0,0.000000,4,0.000000,0.000000,0.459423,0,0,0,0,0,0,0
9,99999,76,90000,7,10000,0,9999,0.100000,0,0,0.000000,4,0.000000,0.000000,0.181839,0,0,0,0,0,0,0
9,99999,77,90000,78,10000,0,9999,0.100000,0,0,0.000000,4,0.000000,0.000000,0.120850,0,0,0,0,0,0,0
9,99999,78,90000,78,10000,3,9999,0.100000,0,0,0.000000,4,1.000000,0.000000,4.384318,0,0,7,0,0,0,0
9,99999,79,90000,78,0,0,9999,0.100000,0,0,0.000000,4,0.000000,0.000000,0.548795,0,0,0,0,0,0,0
9,99999,80,90000,52,10000,0,9999,0.100000,0,0,0.000000,4,0.000000,0.000000,0.137051,0,0,0,0,0,0,0
9,99999,81,90000,78,0,0,9999,0.100000,0,0,0.000000,4,0.000000,0.000000,0.263057,0,0,0,0,0,0,0
9,99999,82,90000,78,0,0,9999,0.100000,0,0,0.000000,4,0.000000,0.000000,0.076146,0,0,0,0,0,0,0
9,99999,83,90000,52,10000,0,9999,0.100000,0,0,0.000000,4,0.000000,0.000000,0.494033,0,0,0,0,0,0,0
9,99999,84,90000,7,10000,0,9999,0.100000,0,0,0.000000,4,0.000000,0.000000,0.126988,0,0,0,0,0,0,0
9,99999,85,90000,78,10000,0,9999,0.100000,0,0,0.000000,4,0.000000,0.000000,1.045981,0,0,0,0,0,0,0
9,99999,86,90000,78,0,0,9999,0.100000,0,0,0.000000,4,0.000000,0.000000,0.060590,0,0,0,0,0,0,0
9,99999,87,90000,7,10000,0,9999,0.100000,0,0,0.000000,4,0.000000,0.000000,0.200369,0,0,0,0,0,0,0
9,99999,88,90000,52,10000,0,9999,0.100000,0,0,0.000000,4,0.000000,0.000000,0.113185,0,0,0,0,0,0,0
9,99999,89,90000,7,10000,0,9999,0.100000,0,0,0.000000,4,0.000000,0.000000,0.100178,0,0,0,0,0,0,0
9,99999,90,90000,7,10000,0,9999,0.100000,0,0,0.000000,4,0.000000,0.000000,0.082835,0,0,0,0,0,0,0
9,99999,91,90000,78,0,0,9999,0.100000,0,0,0.000000,4,0.000000,0.000000,0.457743,0,0,0,0,0,0,0
9,99999,92,90000,78,10000,0,9999,0.100000,0,0,0.000000,4,0.000000,0.000000,0.076236,0,0,0,0,0,0,0
9,99999,93,90000,78,10000,0,9999,0.100000,0,0,0.000000,4,0.000000,0.000000,0.130613,0,0,0,0,0,0,0
9,99999,94,90000,52,10000,0,9999,0.100000,0,0,0.000000,4,0.000000,0.000000,0.116787,0,0,0,0,0,0,0
9,99999,95,90000,78,10000,0,9999,0.100000,0,0,0.000000,4,0.000000,0.000000,0.099186,0,0,0,0,0,0,0
9,99999,96,90000,78,10000,0,9999,0.100000,0,0,0.000000,4,0.000000,0.000000,0.466084,0,0,0,0,0,0,0
9,99999,97,90000,78,10000,0,9999,0.100000,0,0,0.000000,4,0.000000,0.000000,0.510183,0,0,0,0,0,0,0
9,99999,98,90000,78,0,0,9999,0.100000,0,0,0.000000,4,0.000000,0.000000,0.165605,0,0,0,0,0,0,0
9,99999,99,90000,78,0,0,9999,0.100000,0,0,0.000000,4,0.000000,0.000000,0.094429,0,0,0,0,0,0,0
10,109999,0,100000,78,0,0,9999,0.100000,0,0,0.000000,4,0.000000,0.000000,0.344348,0,0,0,0,0,0,0
10,109999,1,100000,78,0,0,9999,0.100000,0,0,0.000000,4,0.000000,0.000000,0.206236,0,0,0,0,0,0,0
10,109999,2,100000,52,10000,0,9999,0.100000,0,0,0.000000,4,0.000000,0.000000,1.447220,0,0,0,0,0,0,0
10,109999,3,100000,52,10000,0,9999,0.100000,0,0,0.000000,4,0.000000,0.000000,0.082241,0,0,0,0,0,0,0
10,109999,4,100000,78,10000,1,9999,0.100000,0,0,0.000000,4,2.000000,0.000000,3.176123,0,0,0,0,0,0,0
10,109999,5,100000,78,0,0,9999,0.100000,0,0,0.000000,4,0.000000,0.000000,2.156266,0,0,0,0,0,0,0
10,109999,6,100000,78,0,0,9999,0.100000,0,0,0.000000,4,0.000000,0.000000,0.289923,0,0,0,0,0,0,0
10,109999,7,100000,78,10000,0,9999,0.100000,0,0,0.000000,4,0.000000,0.000000,0.092525,0,0,0,0,0,0,0
10,109999,8,100000,78,0,0,9999,0.100000,0,0,0.000000,4,0.000000,0.000000,0.097795,0,0,0,0,0,0,0
10,109999,9,100000,52,10000,0,9999,0.100000,0,0,0.000000,4,0.000000,0.000000,0.463998,0,0,0,0,0,0,0
10,109999,10,100000,78,0,0,9999,0.100000,0,0,0.000000,4,0.000000,0.000000,0.413524,0,0,0,0,0,0,0
10,109999,11,100000,52,10000,0,9999,0.100000,0,0,0.000000,4,0.000000,0.000000,0.967561,0,0,0,0,0,0,0
10,109999,12,100000,52,10000,0,9999,0.100000,0,0,0.000000,4,0.000000,0.000000,0.240270,0,0,0,0,0,0,0
10,109999,13,100000,52,10000,0,9999,0.100000,0,0,0.000000,4,0.000000,0.000000,0.963676,0,0,0,0,0,0,0
10,109999,14,100000,78,10000,1,9999,0.100000,0,0,0.000000,4,1.000000,0.000000,1.205016,0,0,0,0,0,0,0
10,109999,15,100000,7,10000,0,9999,0.100000,0,0,0.000000,4,0.000000,0.000000,0.089075,0,0,0,0,0,0,0
10,109999,16,100000,21,90000,0,9999,0.100000,0,0,0.000000,4,0.000000,0.000000,0.100722,0,0,0,0,0,0,0
10,109999,17,100000,78,0,0,9999,0.100000,0,0,0.000000,4,0.000000,0.000000,0.945635,0,0,0,0,0,0,0
10,109999,18,100000,78,10000,0,9999,0.100000,0,0,0.000000,4,0.000000,0.000000,0.557657,0,0,0,0,0,0,0
10,109999,19,100000,78,10000,0,9999,0.100000,0,0,0.000000,4,0.000000,0.000000,0.108281,0,0,0,0,0,0,0
10,109999,20,100000,52,10000,0,9999,0.100000,0,0,0.000000,4,0.000000,0.000000,0.135419,0,0,0,0,0,0,0
10,109999,21,100000,78,10000,0,9999,0.100000,0,0,0.000000,4,0.000000,0.000000,0.119396,0,0,0,0,0,0,0
10,109999,22,100000,78,0,0,9999,0.135000,0,0,0.000000,4,0.000000,0.000000,5.823662,0,0,0,0,0,0,0
10,109999,23,100000,52,10000,0,9999,0.100000,0,0,0.000000,4,0.000000,0.000000,0.176226,0,0,0,0,0,0,0
10,109999,24,100000,21,90000,0,9999,0.100000,0,0,0.000000,4,0.000000,0.000000,0.192716,0,0,0,0,0,0,0
10,109999,25,100000,21,90000,0,9999,0.100000,0,0,0.000000,4,0.000000,0.000000,0.286704,0,0,0,0,0,0,0
10,109999,26,100000,78,10000,0,9999,0.100000,0,0,0.000000,4,0.000000,0.000000,0.062485,0,0,0,0,0,0,0
10,109999,27,100000,7,10000,0,9999,0.100000,0,0,0.000000,4,0.000000,0.000000,0.080491,0,0,0,0,0,0,0
10,109999,28,100000,78,10000,0,9999,0.065000,0,0,0.000000,4,0.000000,0.000000,0.110959,0,0,0,0,0,0,0
10,109999,29,100000,21,90000,0,9999,0.100000,0,0,0.000000,4,0.000000,0.000000,6.405730,0,0,0,0,0,0,0
10,109999,30,100000,52,10000,0,9999,0.100000,0,0,0.000000,4,0.000000,0.000000,0.971082,0,0,0,0,0,0,0
10,109999,31,100000,78,10000,0,9999,0.100000,0,0,0.000000,4,0.000000,0.000000,0.440795,0,0,0,0,0,0,0
10,109999,32,100000,78,10000,0,9999,0.100000,0,0,0.000000,4,0.000000,0.000000,8.194128,0,0,0,0,0,0,0
10,109999,33,100000,78,0,0,9999,0.100000,0,0,0.000000,4,0.000000,0.000000,0.132592,0,0,0,0,0,0,0
10,109999,34,100000,7,10000,0,9999,0.100000,0,0,0.000000,4,0.000000,0.000000,0.131943,0,0,0,0,0,0,0
10,109999,35,100000,52,10000,0,9999,0.100000,0,0,0.000000,4,0.000000,0.000000,0.554566,0,0,0,0,0,0,0
10,109999,36,100000,78,0,0,9999,0.100000,0,0,0.000000,4,0.000000,0.000000,0.297415,0,0,0,0,0,0,0
10,109999,37,100000,78,0,0,9999,0.100000,0,0,0.000000,4,0.000000,0.000000,0.179656,0,0,0,0,0,0,0
10,109999,38,100000,78,0,0,9999,0.100000,0,0,0.000000,4,0.000000,0.000000,1.121050,0,0,0,0,0,0,0
10,109999,39,100000,78,10000,0,9999,0.100000,0,0,0.000000,4,0.000000,0.000000,0.842744,0,0,0,0,0,0,0
10,109999,40,100000,78,10000,0,9999,0.100000,0,0,0.000000,4,0.000000,0.000000,0.569307,0,0,0,0,0,0,0
10,109999,41,100000,52,10000,0,9999,0.100000,0,0,0.000000,4,0.000000,0.000000,0.600502,0,0,0,0,0,0,0
10,109999,42,100000,52,10000,0,9999,0.100000,0,0,0.000000,4,0.000000,0.000000,0.621709,0,0,0,0,0,0,0
10,109999,43,100000,78,10000,0,9999,0.100000,0,0,0.000000,4,0.000000,0.000000,0.174176,0,0,0,0,0,0,0
10,109999,44,100000,7,10000,1,9999,0.100000,0,0,0.000000,4,1.000000,0.000000,11.854815,0,0,0,0,0,0,0
10,109999,45,100000,52,10000,0,9999,0.100000,0,0,0.000000,4,0.000000,0.000000,0.498432,0,0,0,0,0,0,0
10,109999,46,100000,21,90000,0,9999,0.100000,0,0,0.000000,4,0.000000,0.000000,0.500992,0,0,0,0,0,0,0
10,109999,47,100000,78,10000,0,9999,0.100000,0,0,0.000000,4,0.000000,0.000000,0.265469,0,0,0,0,0,0,0
10,109999,48,100000,21,90000,0,9999,0.100000,0,0,0.000000,4,0.000000,0.000000,0.169261,0,0,0,0,0,0,0
10,109999,49,100000,78,0,0,9999,0.100000,0,0,0.000000,4,0.000000,0.000000,0.239151,0,0,0,0,0,0,0
10,109999,50,100000,78,0,0,9999,0.100000,0,0,0.000000,4,0.000000,0.000000,0.874825,0,0,0,0,0,0,0
10,109999,51,100000,7,10000,0,9999,0.100000,0,0,0.000000,4,0.000000,0.000000,23.487118,0,0,0,0,0,0,0
10,109999,52,100000,78,10000,0,9999,0.135000,0,0,0.000000,4,0.000000,0.000000,0.088455,0,0,0,0,0,0,0
10,109999,53,100000,21,90000,0,9999,0.100000,0,0,0.000000,4,0.000000,0.000000,0.672390,0,0,0,0,0,0,0
10,109999,54,100000,78,10000,0,9999,0.100000,0,0,0.000000,4,0.000000,0.000000,0.401076,0,0,0,0,0,0,0
10,109999,55,100000,21,90000,0,9999,0.100000,0,0,0.000000,4,0.000000,0.000000,0.220084,0,0,0,0,0,0,0
10,109999,56,100000,78,0,1,9999,0.100000,0,0,0.000000,4,1.000000,0.000000,3.736058,0,0,0,0,0,0,0
10,109999,57,100000,78,0,0,9999,0.100000,0,0,0.000000,4,0.000000,0.000000,0.161638,0,0,0,0,0,0,0
10,109999,58,100000,21,90000,0,9999,0.100000,0,0,0.000000,4,0.000000,0.000000,0.248184,0,0,0,0,0,0,0
10,109999,59,100000,78,0,0,9999,0.100000,0,0,0.000000,4,0.000000,0.000000,8.062535,0,0,0,0,0,0,0
10,109999,60,100000,52,10000,0,9999,0.100000,0,0,0.000000,4,0.000000,0.000000,0.352671,0,0,0,0,0,0,0
10,109999,61,100000,52,10000,0,9999,0.100000,0,0,0.000000,4,0.000000,0.000000,0.727677,0,0,0,0,0,0,0
10,109999,62,100000,52,10000,0,9999,0.100000,0,0,0.000000,4,0.000000,0.000000,0.080690,0,0,0,0,0,0,0
10,109999,63,100000,7,10000,0,9999,0.100000,0,0,0.000000,4,0.000000,0.000000,0.736769,0,0,0,0,0,0,0
10,109999,64,100000,52,10000,0,9999,0.100000,0,0,0.000000,4,0.000000,0.000000,0.210170,0,0,0,0,0,0,0
10,109999,65,100000,78,0,0,9999,0.100000,0,0,0.000000,4,0.000000,0.000000,0.063324,0,0,0,0,0,0,0
10,109999,66,100000,21,90000,0,9999,0.100000,0,0,0.000000,4,0.000000,0.000000,0.082478,0,0,0,0,0,0,0
10,109999,67,100000,52,10000,0,9999,0.100000,0,0,0.000000,4,0.000000,0.000000,0.719856,0,0,0,0,0,0,0
10,109999,68,100000,78,0,0,9999,0.100000,0,0,0.000000,4,0.000000,0.000000,0.992181,0,0,0,0,0,0,0
10,109999,69,100000,52,10000,0,9999,0.100000,0,0,0.000000,4,0.000000,0.000000,1.003797,0,0,0,0,0,0,0
10,109999,70,100000,78,0,0,9999,0.100000,0,0,0.000000,4,0.000000,0.000000,8.003815,0,0,0,0,0,0,0
10,109999,71,100000,78,10000,0,9999,0.100000,0,0,0.000000,4,0.000000,0.000000,0.374007,0,0,0,0,0,0,0
10,109999,72,100000,78,10000,0,9999,0.100000,0,0,0.000000,4,0.000000,0.000000,0.449458,0,0,0,0,0,0,0
10,109999,73,100000,21,90000,0,9999,0.100000,0,0,0.000000,4,0.000000,0.000000,0.187256,0,0,0,0,0,0,0
10,109999,74,100000,21,90000,0,9999,0.100000,0,0,0.000000,4,0.000000,0.000000,0.089696,0,0,0,0,0,0,0
10,109999,75,100000,78,10000,0,9999,0.100000,0,0,0.000000,4,0.000000,0.000000,0.440306,0,0,0,0,0,0,0
10,109999,76,100000,78,10000,0,9999,0.100000,0,0,0.000000,4,0.000000,0.000000,0.185741,0,0,0,0,0,0,0
10,109999,77,100000,21,90000,0,9999,0.100000,0,0,0.000000,4,0.000000,0.000000,0.139984,0,0,0,0,0,0,0
10,109999,78,100000,52,10000,0,9999,0.100000,0,0,0.000000,4,0.000000,0.000000,6.652898,0,0,0,0,0,0,0
10,109999,79,100000,78,0,0,9999,0.100000,0,0,0.000000,4,0.000000,0.000000,2.231705,0,0,0,0,0,0,0
10,109999,80,100000,78,10000,0,9999,0.100000,0,0,0.000000,4,0.000000,0.000000,0.096523,0,0,0,0,0,0,0
10,109999,81,100000,52,10000,0,9999,0.100000,0,0,0.000000,4,0.000000,0.000000,0.130313,0,0,0,0,0,0,0
10,109999,82,100000,78,10000,0,9999,0.100000,0,0,0.000000,4,0.000000,0.000000,0.077235,0,0,0,0,0,0,0
10,109999,83,100000,52,10000,1,9999,0.100000,0,0,0.000000,4,7.000000,0.000000,15.324792,0,0,0,0,0,0,0
10,109999,84,100000,52,10000,0,9999,0.100000,0,0,0.000000,4,0.000000,0.000000,0.121420,0,0,0,0,0,0,0
10,109999,85,100000,78,10000,0,9999,0.100000,0,0,0.000000,4,0.000000,0.000000,0.868197,0,0,0,0,0,0,0
10,109999,86,100000,52,10000,0,9999,0.100000,0,0,0.000000,4,0.000000,0.000000,0.061327,0,0,0,0,0,0,0
10,109999,87,100000,78,0,0,9999,0.100000,0,0,0.000000,4,0.000000,0.000000,0.204071,0,0,0,0,0,0,0
10,109999,88,100000,78,10000,0,9999,0.100000,0,0,0.000000,4,0.000000,0.000000,0.097766,0,0,0,0,0,0,0
10,109999,89,100000,21,90000,0,9999,0.100000,0,0,0.000000,4,0.000000,0.000000,0.096941,0,0,0,0,0,0,0
10,109999,90,100000,21,90000,0,9999,0.100000,0,0,0.000000,4,0.000000,0.000000,0.081428,0,0,0,0,0,0,0
10,109999,91,100000,78,10000,0,9999,0.100000,0,0,0.000000,4,0.000000,0.000000,0.425512,0,0,0,0,0,0,0
10,109999,92,100000,52,10000,0,9999,0.100000,0,0,0.000000,4,0.000000,0.000000,0.063952,0,0,0,0,0,0,0
10,109999,93,100000,21,90000,0,9999,0.100000,0,0,0.000000,4,0.000000,0.000000,0.132075,0,0,0,0,0,0,0
10,109999,94,100000,78,0,0,9999,0.100000,0,0,0.000000,4,0.000000,0.000000,0.120924,0,0,0,0,0,0,0
10,109999,95,100000,21,90000,0,9999,0.100000,0,0,0.000000,4,0.000000,0.000000,0.099255,0,0,0,0,0,0,0
10,109999,96,100000,21,90000,0,9999,0.100000,0,0,0.000000,4,0.000000,0.000000,0.357068,0,0,0,0,0,0,0
10,109999,97,100000,52,10000,0,9999,0.100000,0,0,0.000000,4,0.000000,0.000000,0.546712,0,0,0,0,0,0,0
10,109999,98,100000,78,0,0,9999,0.100000,0,0,0.000000,4,0.000000,0.000000,0.142727,0,0,0,0,0,0,0
10,109999,99,100000,52,10000,0,9999,0.100000,0,0,0.000000,4,0.000000,0.000000,0.098391,0,0,0,0,0,0,0
11,119999,0,110000,78,10000,0,9999,0.100000,0,0,0.000000,4,0.000000,0.000000,11.199319,0,0,0,0,0,0,0
11,119999,1,110000,21,90000,0,9999,0.100000,0,0,0.000000,4,0.000000,0.000000,0.214224,0,0,0,0,0,0,0
11,119999,2,110000,52,10000,0,9999,0.100000,0,0,0.000000,4,0.000000,0.000000,0.161313,0,0,0,0,0,0,0
11,119999,3,110000,78,0,0,9999,0.100000,0,0,0.000000,4,0.000000,0.000000,0.111845,0,0,0,0,0,0,0
11,119999,4,110000,52,10000,0,9999,0.100000,0,0,0.000000,4,0.000000,0.000000,0.189632,0,0,0,0,0,0,0
11,119999,5,110000,21,90000,1,9999,0.100000,0,0,0.000000,4,1.000000,0.000000,1.889451,0,0,0,0,0,0,0
11,119999,6,110000,78,0,1,9999,0.100000,0,0,0.000000,4,5.000000,0.000000,10.764823,0,0,0,0,0,0,0
11,119999,7,110000,52,10000,0,9999,0.100000,0,0,0.000000,4,0.000000,0.000000,0.085736,0,0,0,0,0,0,0
11,119999,8,110000,21,90000,0,9999,0.100000,0,0,0.000000,4,0.000000,0.000000,0.097682,0,0,0,0,0,0,0
11,119999,9,110000,78,0,0,9999,0.100000,0,0,0.000000,4,0.000000,0.000000,0.436044,0,0,0,0,0,0,0
11,119999,10,110000,52,10000,0,9999,0.100000,0,0,0.000000,4,0.000000,0.000000,1.256060,0,0,0,0,0,0,0
11,119999,11,110000,78,10000,0,9999,0.100000,0,0,0.000000,4,0.000000,0.000000,0.993633,0,0,0,0,0,0,0
11,119999,12,110000,52,10000,0,9999,0.100000,0,0,0.000000,4,0.000000,0.000000,0.205709,0,0,0,0,0,0,0
11,119999,13,110000,21,90000,0,9999,0.100000,0,0,0.000000,4,0.000000,0.000000,0.989335,0,0,0,0,0,0,0
11,119999,14,110000,78,10000,1,9999,0.100000,0,0,0.000000,4,8.000000,0.000000,8.847685,0,0,0,0,0,0,0
11,119999,15,110000,78,0,0,9999,0.100000,0,0,0.000000,4,0.000000,0.000000,0.088755,0,0,0,0,0,0,0
11,119999,16,110000,78,0,0,9999,0.100000,0,0,0.000000,4,0.000000,0.000000,0.102203,0,0,0,0,0,0,0
11,119999,17,110000,21,90000,0,9999,0.100000,0,0,0.000000,4,0.000000,0.000000,0.814163,0,0,0,0,0,0,0
11,119999,18,110000,52,10000,1,9999,0.100000,0,0,0.000000,4,3.000000,0.000000,7.337561,0,0,0,0,0,0,0
11,119999,19,110000,52,10000,0,9999,0.100000,0,0,0.000000,4,0.000000,0.000000,0.100596,0,0,0,0,0,0,0
11,119999,20,110000,21,90000,0,9999,0.100000,0,0,0.000000,4,0.000000,0.000000,0.106670,0,0,0,0,0,0,0
11,119999,21,110000,78,0,0,9999,0.100000,0,0,0.000000,4,0.000000,0.000000,0.121420,0,0,0,0,0,0,0
11,119999,22,110000,21,90000,0,9999,0.100000,0,0,0.000000,4,0.000000,0.000000,3.876079,0,0,0,0,0,0,0
11,119999,23,110000,21,90000,0,9999,0.100000,0,0,0.000000,4,0.000000,0.000000,0.168168,0,0,0,0,0,0,0
11,119999,24,110000,21,90000,0,9999,0.100000,0,0,0.000000,4,0.000000,0.000000,0.119895,0,0,0,0,0,0,0
11,119999,25,110000,78,10000,0,9999,0.100000,0,0,0.000000,4,0.000000,0.000000,0.286142,0,0,0,0,0,0,0
11,119999,26,110000,52,10000,1,9999,0.100000,0,0,0.000000,4,3.000000,0.000000,13.077144,0,0,0,0,0,0,0
11,119999,27,110000,78,0,0,9999,0.100000,0,0,0.000000,4,0.000000,0.000000,0.081770,0,0,0,0,0,0,0
11,119999,28,110000,78,0,0,9999,0.100000,0,0,0.000000,4,0.000000,0.000000,0.144879,0,0,0,0,0,0,0
11,119999,29,110000,52,10000,0,9999,0.100000,0,0,0.000000,4,0.000000,0.000000,3.261004,0,0,0,0,0,0,0
11,119999,30,110000,78,0,1,9999,0.100000,0,0,0.000000,4,4.000000,0.000000,8.062522,0,0,0,0,0,0,0
11,119999,31,110000,21,90000,0,9999,0.100000,0,0,0.000000,4,0.000000,0.000000,0.406344,0,0,0,0,0,0,0
11,119999,32,110000,21,90000,0,9999,0.100000,0,0,0.000000,4,0.000000,0.000000,7.103665,0,0,0,0,0,0,0
11,119999,33,110000,21,90000,0,9999,0.100000,0,0,0.000000,4,0.000000,0.000000,0.165572,0,0,0,0,0,0,0
11,119999,34,110000,78,0,0,9999,0.100000,0,0,0.000000,4,0.000000,0.000000,0.128172,0,0,0,0,0,0,0
11,119999,35,110000,78,0,0,9999,0.100000,0,0,0.000000,4,0.000000,0.000000,0.510808,0,0,0,0,0,0,0
11,119999,36,110000,78,0,0,9999,0.100000,0,0,0.000000,4,0.000000,0.000000,0.276771,0,0,0,0,0,0,0
11,119999,37,110000,52,10000,0,9999,0.100000,0,0,0.000000,4,0.000000,0.000000,0.160197,0,0,0,0,0,0,0
11,119999,38,110000,78,10000,0,9999,0.100000,0,0,0.000000,4,0.000000,0.000000,0.954963,0,0,0,0,0,0,0
11,119999,39,110000,21,90000,0,9999,0.100000,0,0,0.000000,4,0.000000,0.000000,1.011396,0,0,0,0,0,0,0
11,119999,40,110000,21,90000,0,9999,0.100000,0,0,0.000000,4,0.000000,0.000000,0.546848,0,0,0,0,0,0,0
11,119999,41,110000,78,10000,0,9999,0.100000,0,0,0.000000,4,0.000000,0.000000,0.779616,0,0,0,0,0,0,0
11,119999,42,110000,21,90000,0,9999,0.100000,0,0,0.000000,4,0.000000,0.000000,0.709213,0,0,0,0,0,0,0
11,119999,43,110000,78,0,0,9999,0.100000,0,0,0.000000,4,0.000000,0.000000,0.100120,0,0,0,0,0,0,0
11,119999,44,110000,52,10000,1,9999,0.100000,0,0,0.000000,4,1.000000,0.000000,1.406697,0,0,0,0,0,0,0
11,119999,45,110000,21,90000,0,9999,0.100000,0,0,0.000000,4,0.000000,0.000000,0.481605,0,0,0,0,0,0,0
11,119999,46,110000,78,10000,0,9999,0.100000,0,0,0.000000,4,0.000000,0.000000,0.541996,0,0,0,0,0,0,0
11,119999,47,110000,78,10000,0,9999,0.100000,0,0,0.000000,4,0.000000,0.000000,0.211980,0,0,0,0,0,0,0
11,119999,48,110000,52,10000,0,9999,0.100000,0,0,0.000000,4,0.000000,0.000000,0.153646,0,0,0,0,0,0,0
11,119999,49,110000,52,10000,0,9999,0.100000,0,0,0.000000,4,0.000000,0.000000,0.234762,0,0,0,0,0,0,0
11,119999,50,110000,21,90000,0,9999,0.100000,0,0,0.000000,4,0.000000,0.000000,0.822716,0,0,0,0,0,0,0
11,119999,51,110000,21,90000,0,9999,0.100000,0,0,0.000000,4,0.000000,0.000000,11.876447,0,0,0,0,0,0,0
11,119999,52,110000,78,0,0,9999,0.100000,0,0,0.000000,4,0.000000,0.000000,0.088005,0,0,0,0,0,0,0
11,119999,53,110000,52,10000,1,9999,0.135000,0,0,0.000000,4,1.000000,0.000000,2.775068,0,0,0,0,0,0,0
11,119999,54,110000,52,10000,0,9999,0.100000,0,0,0.000000,4,0.000000,0.000000,1.103019,0,0,0,0,0,0,0
11,119999,55,110000,78,0,0,9999,0.100000,0,0,0.000000,4,0.000000,0.000000,0.212075,0,0,0,0,0,0,0
11,119999,56,110000,21,90000,1,9999,0.100000,0,0,0.000000,4,4.000000,0.000000,12.930417,0,0,0,0,0,0,0
11,119999,57,110000,52,10000,0,9999,0.100000,0,0,0.000000,4,0.000000,0.000000,0.411785,0,0,0,0,0,0,0
11,119999,58,110000,78,10000,1,9999,0.100000,0,0,0.000000,4,1.000000,0.000000,2.100784,0,0,0,0,0,0,0
11,119999,59,110000,21,90000,0,9999,0.100000,0,0,0.000000,4,0.000000,0.000000,6.276625,0,0,0,0,0,0,0
11,119999,60,110000,52,10000,0,9999,0.100000,0,0,0.000000,4,0.000000,0.000000,0.363172,0,0,0,0,0,0,0
11,119999,61,110000,52,10000,0,9999,0.100000,0,0,0.000000,4,0.000000,0.000000,0.887792,0,0,0,0,0,0,0
11,119999,62,110000,21,90000,0,9999,0.100000,0,0,0.000000,4,0.000000,0.000000,0.081753,0,0,0,0,0,0,0
11,119999,63,110000,21,90000,0,9999,0.100000,0,0,0.000000,4,0.000000,0.000000,0.795125,0,0,0,0,0,0,0
11,119999,64,110000,52,10000,0,9999,0.100000,0,0,0.000000,4,0.000000,0.000000,0.207347,0,0,0,0,0,0,0
11,119999,65,110000,21,90000,0,9999,0.100000,0,0,0.000000,4,0.000000,0.000000,0.102967,0,0,0,0,0,0,0
11,119999,66,110000,52,10000,0,9999,0.100000,0,0,0.000000,4,0.000000,0.000000,0.084404,0,0,0,0,0,0,0
11,119999,67,110000,78,0,0,9999,0.100000,0,0,0.000000,4,0.000000,0.000000,0.836493,0,0,0,0,0,0,0
11,119999,68,110000,52,10000,0,9999,0.100000,0,0,0.000000,4,0.000000,0.000000,1.026650,0,0,0,0,0,0,0
11,119999,69,110000,78,0,0,9999,0.100000,0,0,0.000000,4,0.000000,0.000000,0.821598,0,0,0,0,0,0,0
11,119999,70,110000,52,10000,0,9999,0.100000,0,0,0.000000,4,0.000000,0.000000,7.017101,0,0,0,0,0,0,0
11,119999,71,110000,21,90000,0,9999,0.100000,0,0,0.000000,4,0.000000,0.000000,0.359903,0,0,0,0,0,0,0
11,119999,72,110000,52,10000,0,9999,0.100000,0,0,0.000000,4,0.000000,0.000000,0.414074,0,0,0,0,0,0,0
11,119999,73,110000,78,10000,0,9999,0.100000,0,0,0.000000,4,0.000000,0.000000,0.098076,0,0,0,0,0,0,0
11,119999,74,110000,78,10000,0,9999,0.100000,0,0,0.000000,4,0.000000,0.000000,0.094134,0,0,0,0,0,0,0
11,119999,75,110000,21,90000,0,9999,0.100000,0,0,0.000000,4,0.000000,0.000000,0.415524,0,0,0,0,0,0,0
11,119999,76,110000,21,90000,0,9999,0.100000,0,0,0.000000,4,0.000000,0.000000,0.198051,0,0,0,0,0,0,0
11,119999,77,110000,52,10000,0,9999,0.100000,0,0,0.000000,4,0.000000,0.000000,0.176079,0,0,0,0,0,0,0
11,119999,78,110000,52,10000,0,9999,0.100000,0,0,0.000000,4,0.000000,0.000000,10.352048,0,0,0,0,0,0,0
11,119999,79,110000,78,10000,1,9999,0.100000,0,0,0.000000,4,2.000000,0.000000,2.749140,0,0,0,0,0,0,0
11,119999,80,110000,78,10000,0,9999,0.135000,0,0,0.000000,4,0.000000,0.000000,0.085547,0,0,0,0,0,0,0
11,119999,81,110000,78,10000,0,9999,0.100000,0,0,0.000000,4,0.000000,0.000000,0.831618,0,0,0,0,0,0,0
11,119999,82,110000,78,0,0,9999,0.100000,0,0,0.000000,4,0.000000,0.000000,0.080156,0,0,0,0,0,0,0
11,119999,83,110000,78,10000,0,9999,0.100000,0,0,0.000000,4,0.000000,0.000000,0.581294,0,0,0,0,0,0,0
11,119999,84,110000,21,90000,0,9999,0.100000,0,0,0.000000,4,0.000000,0.000000,0.117338,0,0,0,0,0,0,0
11,119999,85,110000,78,10000,0,9999,0.100000,0,0,0.000000,4,0.000000,0.000000,1.389930,0,0,0,0,0,0,0
11,119999,86,110000,21,90000,0,9999,0.100000,0,0,0.000000,4,0.000000,0.000000,0.065953,0,0,0,0,0,0,0
11,119999,87,110000,21,90000,0,9999,0.100000,0,0,0.000000,4,0.000000,0.000000,0.232512,0,0,0,0,0,0,0
11,119999,88,110000,78,10000,0,9999,0.100000,0,0,0.000000,4,0.000000,0.000000,0.083679,0,0,0,0,0,0,0
11,119999,89,110000,78,0,0,9999,0.100000,0,0,0.000000,4,0.000000,0.000000,0.082180,0,0,0,0,0,0,0
11,119999,90,110000,52,10000,0,9999,0.100000,0,0,0.000000,4,0.000000,0.000000,0.081512,0,0,0,0,0,0,0
11,119999,91,110000,78,0,0,9999,0.100000,0,0,0.000000,4,0.000000,0.000000,0.078193,0,0,0,0,0,0,0
11,119999,92,110000,52,10000,0,9999,0.100000,0,0,0.000000,4,0.000000,0.000000,0.063351,0,0,0,0,0,0,0
11,119999,93,110000,21,90000,0,9999,0.100000,0,0,0.000000,4,0.000000,0.000000,0.133035,0,0,0,0,0,0,0
11,119999,94,110000,78,10000,0,9999,0.100000,0,0,0.000000,4,0.000000,0.000000,0.118556,0,0,0,0,0,0,0
11,119999,95,110000,21,90000,0,9999,0.100000,0,0,0.000000,4,0.000000,0.000000,0.104090,0,0,0,0,0,0,0
11,119999,96,110000,78,0,0,9999,0.100000,0,0,0.000000,4,0.000000,0.000000,0.311982,0,0,0,0,0,0,0
11,119999,97,110000,78,0,0,9999,0.100000,0,0,0.000000,4,0.000000,0.000000,0.627884,0,0,0,0,0,0,0
11,119999,98,110000,78,10000,0,9999,0.100000,0,0,0.000000,4,0.000000,0.000000,0.150392,0,0,0,0,0,0,0
11,119999,99,110000,78,10000,0,9999,0.100000,0,0,0.000000,4,0.000000,0.000000,0.112967,0,0,0,0,0,0,0
12,129999,0,120000,52,10000,0,9999,0.100000,0,0,0.000000,4,0.000000,0.000000,3.186581,0,0,0,0,0,0,0
12,129999,1,120000,78,10000,0,9999,0.100000,0,0,0.000000,4,0.000000,0.000000,0.180615,0,0,0,0,0,0,0
12,129999,2,120000,21,90000,0,9999,0.100000,0,0,0.000000,4,0.000000,0.000000,0.130819,0,0,0,0,0,0,0
12,129999,3,120000,78,10000,0,9999,0.100000,0,0,0.000000,4,0.000000,0.000000,0.079400,0,0,0,0,0,0,0
12,129999,4,120000,78,0,0,9999,0.100000,0,0,0.000000,4,0.000000,0.000000,0.463155,0,0,0,0,0,0,0
12,129999,5,120000,52,10000,0,9999,0.100000,0,0,0.000000,4,0.000000,0.000000,0.231623,0,0,0,0,0,0,0
12,129999,6,120000,52,10000,0,9999,0.100000,0,0,0.000000,4,0.000000,0.000000,4.340540,0,0,0,0,0,0,0
12,129999,7,120000,52,10000,0,9999,0.100000,0,0,0.000000,4,0.000000,0.000000,0.084211,0,0,0,0,0,0,0
12,129999,8,120000,52,10000,0,9999,0.100000,0,0,0.000000,4,0.000000,0.000000,0.097311,0,0,0,0,0,0,0
12,129999,9,120000,78,10000,0,9999,0.100000,0,0,0.000000,4,0.000000,0.000000,0.729645,0,0,0,0,0,0,0
12,129999,10,120000,78,0,0,9999,0.100000,0,0,0.000000,4,0.000000,0.000000,0.286081,0,0,0,0,0,0,0
12,129999,11,120000,21,90000,0,9999,0.100000,0,0,0.000000,4,0.000000,0.000000,2.854634,0,0,0,0,0,0,0
12,129999,12,120000,21,90000,0,9999,0.100000,0,0,0.000000,4,0.000000,0.000000,0.227973,0,0,0,0,0,0,0
12,129999,13,120000,78,0,0,9999,0.100000,0,0,0.000000,4,0.000000,0.000000,0.802194,0,0,0,0,0,0,0
12,129999,14,120000,52,10000,0,9999,0.100000,0,0,0.000000,4,0.000000,0.000000,0.166445,0,0,0,0,0,0,0
12,129999,15,120000,21,90000,0,9999,0.100000,0,0,0.000000,4,0.000000,0.000000,0.089455,0,0,0,0,0,0,0
12,129999,16,120000,52,10000,0,9999,0.100000,0,0,0.000000,4,0.000000,0.000000,0.102404,0,0,0,0,0,0,0
12,129999,17,120000,52,10000,0,9999,0.100000,0,0,0.000000,4,0.000000,0.000000,0.939961,0,0,0,0,0,0,0
12,129999,18,120000,21,90000,0,9999,0.100000,0,0,0.000000,4,0.000000,0.000000,0.581874,0,0,0,0,0,0,0
12,129999,19,120000,78,10000,0,9999,0.100000,0,0,0.000000,4,0.000000,0.000000,0.107131,0,0,0,0,0,0,0
12,129999,20,120000,78,0,0,9999,0.100000,0,0,0.000000,4,0.000000,0.000000,0.087698,0,0,0,0,0,0,0
12,129999,21,120000,52,10000,0,9999,0.135000,0,0,0.000000,4,0.000000,0.000000,0.104732,0,0,0,0,0,0,0
12,129999,22,120000,78,10000,0,9999,0.100000,0,0,0.000000,4,0.000000,0.000000,0.930201,0,0,0,0,0,0,0
12,129999,23,120000,21,90000,0,9999,0.100000,0,0,0.000000,4,0.000000,0.000000,0.113554,0,0,0,0,0,0,0
12,129999,24,120000,78,0,0,9999,0.100000,0,0,0.000000,4,0.000000,0.000000,0.159997,0,0,0,0,0,0,0
12,129999,25,120000,52,10000,0,9999,0.100000,0,0,0.000000,4,0.000000,0.000000,0.270917,0,0,0,0,0,0,0
12,129999,26,120000,78,0,0,9999,0.100000,0,0,0.000000,4,0.000000,0.000000,4.560943,0,0,0,0,0,0,0
12,129999,27,120000,52,10000,0,9999,0.100000,0,0,0.000000,4,0.000000,0.000000,0.083002,0,0,0,0,0,0,0
12,129999,28,120000,21,90000,0,9999,0.100000,0,0,0.000000,4,0.000000,0.000000,0.174063,0,0,0,0,0,0,0
12,129999,29,120000,52,10000,0,9999,0.100000,0,0,0.000000,4,0.000000,0.000000,0.651742,0,0,0,0,0,0,0
12,129999,30,120000,52,10000,1,9999,0.100000,0,0,0.000000,4,4.000000,0.000000,16.339679,0,0,0,0,0,0,0
12,129999,31,120000,52,10000,0,9999,0.100000,0,0,0.000000,4,0.000000,0.000000,0.373234,0,0,0,0,0,0,0
12,129999,32,120000,21,90000,1,9999,0.100000,0,0,0.000000,4,7.000000,0.000000,19.597408,0,0,0,0,0,0,0
12,129999,33,120000,21,90000,0,9999,0.100000,0,0,0.000000,4,0.000000,0.000000,0.165774,0,0,0,0,0,0,0
12,129999,34,120000,52,10000,0,9999,0.100000,0,0,0.000000,4,0.000000,0.000000,0.128695,0,0,0,0,0,0,0
12,129999,35,120000,21,90000,0,9999,0.100000,0,0,0.000000,4,0.000000,0.000000,0.619497,0,0,0,0,0,0,0
12,129999,36,120000,78,0,0,9999,0.100000,0,0,0.000000,4,0.000000,0.000000,0.290452,0,0,0,0,0,0,0
12,129999,37,120000,78,10000,0,9999,0.100000,0,0,0.000000,4,0.000000,0.000000,0.130766,0,0,0,0,0,0,0
12,129999,38,120000,52,10000,0,9999,0.100000,0,0,0.000000,4,0.000000,0.000000,0.583604,0,0,0,0,0,0,0
12,129999,39,120000,52,10000,0,9999,0.100000,0,0,0.000000,4,0.000000,0.000000,0.958998,0,0,0,0,0,0,0
