generation,iteration,robot,birthday,ancestor_id,ancestor_birthday,cell_id,age,sigma,maps,genomes,fitness,cells_in_map,dist_max,dist_pot_max,dist_total,com_rx,com_tx,obj_group1,obj_group2,obj_group3,obj_group4,obj_group5
0,9999,0,0,0,0,0,9999,0.100000,99,99,0.000406,0,0.000000,13.394113,1.063554,99,99,0,0,0,0,1
0,9999,1,0,1,0,40,9999,0.100000,99,99,0.000000,0,2.000000,19.492102,7.932081,99,99,0,0,0,0,0
0,9999,2,0,2,0,40,9999,0.100000,99,99,0.000000,0,0.000000,17.080254,1.291872,99,99,0,0,0,0,0
0,9999,3,0,3,0,42,9999,0.100000,99,99,0.000000,0,4.000000,18.766413,22.452517,99,99,0,0,0,0,0
0,9999,4,0,4,0,2,9999,0.100000,99,99,5.726291,0,3.000000,14.186884,7.735023,99,99,0,1,0,0,0
0,9999,5,0,5,0,40,9999,0.100000,99,99,0.000000,0,2.000000,27.640011,7.033060,99,99,0,0,0,0,0
0,9999,6,0,6,0,40,9999,0.100000,99,99,0.000000,0,3.000000,29.428073,8.166316,99,99,0,0,0,0,0
0,9999,7,0,7,0,1,9999,0.100000,99,99,0.766659,0,3.000000,24.310835,14.819548,99,99,0,1,0,0,0
0,9999,8,0,8,0,40,9999,0.100000,99,99,0.000000,0,0.000000,27.464249,5.837605,99,99,0,0,0,0,0
0,9999,9,0,9,0,40,9999,0.100000,99,99,0.000000,0,1.000000,30.194306,8.971273,99,99,0,0,0,0,0
0,9999,10,0,10,0,40,9999,0.100000,99,99,0.000000,0,1.000000,33.971024,8.352694,99,99,0,0,0,0,0
0,9999,11,0,11,0,40,9999,0.100000,99,99,0.000000,0,1.000000,24.900000,6.095607,99,99,0,0,0,0,0
0,9999,12,0,12,0,40,9999,0.100000,99,99,0.000000,0,2.000000,22.478782,3.894538,99,99,0,0,0,0,0
0,9999,13,0,13,0,0,9999,0.100000,99,99,0.036088,0,0.000000,17.905694,0.382938,99,99,0,0,1,0,0
0,9999,14,0,14,0,40,9999,0.100000,99,99,0.000000,0,2.000000,34.084020,3.961134,99,99,0,0,0,0,0
0,9999,15,0,15,0,40,9999,0.100000,99,99,0.000000,0,2.000000,27.756407,8.456416,99,99,0,0,0,0,0
0,9999,16,0,16,0,0,9999,0.100000,99,99,0.006005,0,0.000000,27.618172,0.753179,99,99,0,0,0,0,1
0,9999,17,0,17,0,40,9999,0.100000,99,99,0.000000,0,3.000000,28.909521,6.364314,99,99,0,0,0,0,0
0,9999,18,0,18,0,41,9999,0.100000,99,99,0.000000,0,3.000000,19.222798,13.671734,99,99,0,0,0,0,0
0,9999,19,0,19,0,42,9999,0.100000,99,99,0.000000,0,5.000000,23.629747,15.038625,99,99,0,0,0,0,0
0,9999,20,0,20,0,40,9999,0.100000,99,99,0.000000,0,2.000000,27.837040,9.325432,99,99,0,0,0,0,0
0,9999,21,0,21,0,40,9999,0.100000,99,99,0.000000,0,0.000000,11.700000,2.855881,99,99,0,0,0,0,0
0,9999,22,0,22,0,40,9999,0.100000,99,99,0.000000,0,1.000000,21.280071,8.181528,99,99,0,0,0,0,0
0,9999,23,0,23,0,0,9999,0.100000,99,99,0.002866,0,1.000000,21.125197,2.020872,99,99,0,0,0,1,0
0,9999,24,0,24,0,0,9999,0.100000,99,99,4.719887,0,0.000000,29.548913,1.814604,99,99,0,0,1,0,0
0,9999,25,0,25,0,40,9999,0.100000,99,99,0.000000,0,0.000000,21.423660,5.218544,99,99,0,0,0,0,0
0,9999,26,0,26,0,0,9999,0.100000,99,99,0.635307,0,1.000000,23.020753,8.601310,99,99,0,0,0,1,0
0,9999,27,0,27,0,40,9999,0.100000,99,99,0.000000,0,1.000000,19.687621,9.548374,99,99,0,0,0,0,0
0,9999,28,0,28,0,40,9999,0.100000,99,99,0.000000,0,3.000000,30.500976,9.185476,99,99,0,0,0,0,0
0,9999,29,0,29,0,40,9999,0.100000,99,99,0.000000,0,0.000000,21.980818,1.847836,99,99,0,0,0,0,0
0,9999,30,0,30,0,0,9999,0.100000,99,99,4.589073,0,1.000000,27.666352,4.003650,99,99,0,1,0,0,0
0,9999,31,0,31,0,42,9999,0.100000,99,99,0.000000,0,7.000000,27.951323,12.997164,99,99,0,0,0,0,0
0,9999,32,0,32,0,95,9999,0.100000,99,99,55.997313,0,10.000000,16.705222,14.918556,99,99,1,0,0,0,0
0,9999,33,0,33,0,41,9999,0.100000,99,99,0.000000,0,4.000000,30.052431,12.655225,99,99,0,0,0,0,0
0,9999,34,0,34,0,40,9999,0.100000,99,99,0.000000,0,3.000000,28.697861,12.318113,99,99,0,0,0,0,0
0,9999,35,0,35,0,0,9999,0.100000,99,99,1.545290,0,1.000000,22.495199,3.374954,99,99,0,0,1,0,0
0,9999,36,0,36,0,0,9999,0.100000,99,99,0.032982,0,0.000000,20.711676,1.606287,99,99,0,0,1,0,0
0,9999,37,0,37,0,40,9999,0.100000,99,99,0.000000,0,0.000000,22.267437,0.904419,99,99,0,0,0,0,0
0,9999,38,0,38,0,40,9999,0.100000,99,99,0.000000,0,3.000000,31.023082,7.824459,99,99,0,0,0,0,0
0,9999,39,0,39,0,1,9999,0.100000,99,99,0.016116,0,3.000000,25.443445,6.477179,99,99,0,0,0,0,1
0,9999,40,0,40,0,93,9999,0.100000,99,99,42.772867,0,8.000000,24.536162,10.431302,99,99,1,0,0,0,0
0,9999,41,0,41,0,0,9999,0.100000,99,99,0.319813,0,0.000000,27.592328,1.298863,99,99,0,0,0,0,1
0,9999,42,0,42,0,0,9999,0.100000,99,99,0.026016,0,0.000000,29.228365,1.967666,99,99,0,1,0,0,0
0,9999,43,0,43,0,41,9999,0.100000,99,99,0.000000,0,3.000000,24.150972,9.243554,99,99,0,0,0,0,0
0,9999,44,0,44,0,40,9999,0.100000,99,99,0.000000,0,2.000000,24.988329,5.183112,99,99,0,0,0,0,0
0,9999,45,0,45,0,0,9999,0.100000,99,99,2.022659,0,2.000000,31.214382,2.990696,99,99,0,1,0,0,0
0,9999,46,0,46,0,41,9999,0.100000,99,99,0.000000,0,3.000000,26.509694,10.499754,99,99,0,0,0,0,0
0,9999,47,0,47,0,40,9999,0.100000,99,99,0.000000,0,2.000000,22.965338,6.990582,99,99,0,0,0,0,0
0,9999,48,0,48,0,0,9999,0.100000,99,99,0.002105,0,1.000000,29.242141,3.678312,99,99,0,0,0,0,1
0,9999,49,0,49,0,0,9999,0.100000,99,99,2.560329,0,1.000000,32.726636,2.303102,99,99,0,0,1,0,0
0,9999,50,0,50,0,40,9999,0.100000,99,99,0.000000,0,0.000000,29.449422,1.224643,99,99,0,0,0,0,0
0,9999,51,0,51,0,40,9999,0.100000,99,99,0.000000,0,2.000000,28.216750,9.032574,99,99,0,0,0,0,0
0,9999,52,0,52,0,0,9999,0.100000,99,99,0.312328,0,1.000000,30.372531,2.415729,99,99,0,1,0,0,0
0,9999,53,0,53,0,40,9999,0.100000,99,99,0.000000,0,1.000000,12.555386,3.508271,99,99,0,0,0,0,0
0,9999,54,0,54,0,40,9999,0.100000,99,99,0.000000,0,3.000000,32.801973,13.397080,99,99,0,0,0,0,0
0,9999,55,0,55,0,40,9999,0.100000,99,99,0.000000,0,2.000000,30.967833,12.347862,99,99,0,0,0,0,0
0,9999,56,0,56,0,40,9999,0.100000,99,99,0.000000,0,1.000000,23.618003,9.843748,99,99,0,0,0,0,0
0,9999,57,0,57,0,40,9999,0.100000,99,99,0.000000,0,3.000000,29.516660,10.328776,99,99,0,0,0,0,0
0,9999,58,0,58,0,40,9999,0.100000,99,99,0.000000,0,1.000000,20.577334,5.040302,99,99,0,0,0,0,0
0,9999,59,0,59,0,0,9999,0.100000,99,99,0.019559,0,0.000000,25.648642,0.491806,99,99,0,0,0,0,1
0,9999,60,0,60,0,41,9999,0.100000,99,99,0.000000,0,3.000000,24.571548,13.353814,99,99,0,0,0,0,0
0,9999,61,0,61,0,95,9999,0.100000,99,99,68.960290,0,12.000000,20.568822,29.624556,99,99,1,0,0,0,0
0,9999,62,0,62,0,0,9999,0.100000,99,99,0.009444,0,0.000000,27.164207,2.339476,99,99,0,0,0,1,0
0,9999,63,0,63,0,40,9999,0.100000,99,99,0.000000,0,1.000000,13.383785,11.894601,99,99,0,0,0,0,0
0,9999,64,0,64,0,41,9999,0.100000,99,99,0.000000,0,3.000000,27.666352,12.854451,99,99,0,0,0,0,0
0,9999,65,0,65,0,40,9999,0.100000,99,99,0.000000,0,1.000000,26.419501,4.343206,99,99,0,0,0,0,0
0,9999,66,0,66,0,0,9999,0.100000,99,99,0.829030,0,0.000000,29.070920,0.586863,99,99,0,0,0,0,1
0,9999,67,0,67,0,40,9999,0.100000,99,99,0.000000,0,2.000000,24.816545,6.498291,99,99,0,0,0,0,0
0,9999,68,0,68,0,0,9999,0.100000,99,99,0.648814,0,1.000000,30.118897,2.763348,99,99,0,0,0,1,0
0,9999,69,0,69,0,40,9999,0.100000,99,99,0.000000,0,1.000000,22.037026,1.560673,99,99,0,0,0,0,0
0,9999,70,0,70,0,40,9999,0.100000,99,99,0.000000,0,1.000000,29.021304,5.042734,99,99,0,0,0,0,0
0,9999,71,0,71,0,42,9999,0.100000,99,99,0.000000,0,3.000000,14.176123,18.451518,99,99,0,0,0,0,0
0,9999,72,0,72,0,40,9999,0.100000,99,99,0.000000,0,1.000000,28.389671,6.026605,99,99,0,0,0,0,0
0,9999,73,0,73,0,40,9999,0.100000,99,99,0.000000,0,0.000000,22.515990,2.397189,99,99,0,0,0,0,0
0,9999,74,0,74,0,40,9999,0.100000,99,99,0.000000,0,2.000000,26.130716,8.706819,99,99,0,0,0,0,0
0,9999,75,0,75,0,40,9999,0.100000,99,99,0.000000,0,1.000000,18.200000,15.941972,99,99,0,0,0,0,0
0,9999,76,0,76,0,42,9999,0.100000,99,99,0.000000,0,3.000000,13.452535,14.859215,99,99,0,0,0,0,0
0,9999,77,0,77,0,40,9999,0.100000,99,99,0.000000,0,1.000000,21.157061,4.321321,99,99,0,0,0,0,0
0,9999,78,0,78,0,0,9999,0.100000,99,99,0.002815,0,0.000000,21.135978,0.397795,99,99,0,0,0,1,0
0,9999,79,0,79,0,40,9999,0.100000,99,99,0.000000,0,3.000000,29.398196,16.131151,99,99,0,0,0,0,0
0,9999,80,0,80,0,44,9999,0.100000,99,99,0.000000,0,11.000000,22.649506,31.443450,99,99,0,0,0,0,0
0,9999,81,0,81,0,40,9999,0.100000,99,99,0.000000,0,0.000000,20.817116,4.111862,99,99,0,0,0,0,0
0,9999,82,0,82,0,1,9999,0.100000,99,99,0.126015,0,4.000000,25.533190,10.855031,99,99,0,0,0,1,0
0,9999,83,0,83,0,40,9999,0.100000,99,99,0.000000,0,1.000000,25.358385,4.943641,99,99,0,0,0,0,0
0,9999,84,0,84,0,40,9999,0.100000,99,99,0.000000,0,0.000000,18.015610,3.520048,99,99,0,0,0,0,0
0,9999,85,0,85,0,40,9999,0.100000,99,99,0.000000,0,2.000000,25.063200,13.114824,99,99,0,0,0,0,0
0,9999,86,0,86,0,41,9999,0.100000,99,99,0.000000,0,3.000000,26.003124,7.882303,99,99,0,0,0,0,0
0,9999,87,0,87,0,0,9999,0.100000,99,99,0.006610,0,1.000000,14.924429,4.765039,99,99,0,0,1,0,0
0,9999,88,0,88,0,40,9999,0.100000,99,99,0.000000,0,2.000000,19.340771,3.729792,99,99,0,0,0,0,0
0,9999,89,0,89,0,40,9999,0.100000,99,99,0.000000,0,1.000000,24.653668,7.274735,99,99,0,0,0,0,0
0,9999,90,0,90,0,40,9999,0.100000,99,99,0.000000,0,0.000000,27.552493,7.096441,99,99,0,0,0,0,0
0,9999,91,0,91,0,0,9999,0.100000,99,99,0.000465,0,0.000000,13.748333,1.474972,99,99,0,0,0,0,1
0,9999,92,0,92,0,0,9999,0.100000,99,99,0.246124,0,2.000000,24.611297,4.736476,99,99,0,0,0,1,0
0,9999,93,0,93,0,40,9999,0.100000,99,99,0.000000,0,1.000000,25.868522,6.406355,99,99,0,0,0,0,0
0,9999,94,0,94,0,90,9999,0.100000,99,99,14.887800,0,2.000000,24.985660,6.423247,99,99,1,0,0,0,0
0,9999,95,0,95,0,40,9999,0.100000,99,99,0.000000,0,0.000000,26.111176,0.447943,99,99,0,0,0,0,0
0,9999,96,0,96,0,40,9999,0.100000,99,99,0.000000,0,1.000000,25.913830,3.468719,99,99,0,0,0,0,0
0,9999,97,0,97,0,42,9999,0.100000,99,99,0.000000,0,7.000000,22.788276,25.814630,99,99,0,0,0,0,0
0,9999,98,0,98,0,40,9999,0.100000,99,99,0.000000,0,0.000000,17.134423,5.513516,99,99,0,0,0,0,0
0,9999,99,0,99,0,40,9999,0.100000,99,99,0.000000,0,2.000000,20.264989,5.068102,99,99,0,0,0,0,0
1,19999,0,10000,61,0,0,9999,0.100000,99,198,0.147247,1,0.000000,13.182819,0.121415,99,99,0,0,0,0,1
1,19999,1,10000,61,0,40,9999,0.100000,99,198,0.000000,1,1.000000,19.977964,16.933772,99,99,0,0,0,0,0
1,19999,2,10000,61,0,0,9999,0.100000,99,198,0.121501,1,0.000000,16.859294,0.480978,99,99,0,0,0,0,1
1,19999,3,10000,61,0,0,9999,0.100000,99,198,0.136662,1,1.000000,20.372422,3.745265,99,99,0,0,0,1,0
1,19999,4,10000,61,0,0,9999,0.100000,99,198,3.699024,1,1.000000,11.288272,3.159254,99,99,0,1,0,0,0
1,19999,5,10000,61,0,40,9999,0.100000,99,198,0.000000,1,1.000000,28.415120,5.144943,99,99,0,0,0,0,0
1,19999,6,10000,61,0,40,9999,0.100000,99,198,0.000000,1,2.000000,28.492319,11.145356,99,99,0,0,0,0,0
1,19999,7,10000,61,0,40,9999,0.100000,99,198,0.000000,1,1.000000,26.020305,3.605280,99,99,0,0,0,0,0
1,19999,8,10000,61,0,40,9999,0.100000,99,198,0.000000,1,1.000000,28.088201,6.722328,99,99,0,0,0,0,0
1,19999,9,10000,61,0,40,9999,0.100000,99,198,0.000000,1,0.000000,29.485689,1.697021,99,99,0,0,0,0,0
1,19999,10,10000,61,0,40,9999,0.100000,99,198,0.000000,1,2.000000,34.473959,11.124476,99,99,0,0,0,0,0
1,19999,11,10000,61,0,0,9999,0.100000,99,198,3.400244,1,1.000000,25.835906,3.810008,99,99,0,1,0,0,0
1,19999,12,10000,61,0,40,9999,0.100000,99,198,0.000000,1,1.000000,24.539390,8.037616,99,99,0,0,0,0,0
1,19999,13,10000,61,0,0,9999,0.100000,99,198,1.833016,1,0.000000,18.060714,0.707155,99,99,0,0,1,0,0
1,19999,14,10000,61,0,40,9999,0.100000,99,198,0.000000,1,0.000000,33.498952,0.554732,99,99,0,0,0,0,0
1,19999,15,10000,61,0,40,9999,0.100000,99,198,0.000000,1,0.000000,27.516322,2.197108,99,99,0,0,0,0,0
1,19999,16,10000,61,0,0,9999,0.100000,99,198,0.105055,1,0.000000,27.907424,0.129933,99,99,0,0,0,0,1
1,19999,17,10000,61,0,40,9999,0.100000,99,198,0.000000,1,0.000000,28.901663,0.430323,99,99,0,0,0,0,0
1,19999,18,10000,61,0,1,9999,0.100000,99,198,0.019766,1,3.000000,16.355320,7.555434,99,99,0,1,0,0,0
1,19999,19,10000,61,0,0,9999,0.100000,99,198,1.296530,1,2.000000,25.685124,9.855824,99,99,0,0,0,1,0
1,19999,20,10000,61,0,40,9999,0.100000,99,198,0.000000,1,2.000000,26.361819,10.241889,99,99,0,0,0,0,0
1,19999,21,10000,61,0,40,9999,0.100000,99,198,0.000000,1,0.000000,11.972962,5.083264,99,99,0,0,0,0,0
1,19999,22,10000,61,0,40,9999,0.100000,99,198,0.000000,1,0.000000,20.476267,2.280004,99,99,0,0,0,0,0
1,19999,23,10000,61,0,0,9999,0.100000,99,198,0.002734,1,0.000000,19.644948,0.100273,99,99,0,0,0,1,0
1,19999,24,10000,61,0,0,9999,0.100000,99,198,0.332693,1,0.000000,29.278074,0.307211,99,99,0,0,1,0,0
1,19999,25,10000,61,0,0,9999,0.100000,99,198,0.698649,1,0.000000,21.073785,2.373952,99,99,0,0,0,1,0
1,19999,26,10000,61,0,0,9999,0.100000,99,198,0.585640,1,0.000000,21.837105,0.769313,99,99,0,0,0,1,0
1,19999,27,10000,61,0,0,9999,0.100000,99,198,11.093355,1,2.000000,20.804030,4.430587,99,99,0,0,1,0,0
1,19999,28,10000,61,0,40,9999,0.100000,99,198,0.000000,1,0.000000,28.070891,0.077999,99,99,0,0,0,0,0
1,19999,29,10000,61,0,40,9999,0.100000,99,198,0.000000,1,0.000000,21.718999,0.705398,99,99,0,0,0,0,0
1,19999,30,10000,61,0,0,9999,0.100000,99,198,6.266715,1,1.000000,28.216605,1.841022,99,99,0,1,0,0,0
1,19999,31,10000,61,0,0,9999,0.100000,99,198,0.005495,1,1.000000,22.717872,3.398872,99,99,0,1,0,0,0
1,19999,32,10000,61,0,0,9999,0.100000,99,198,0.245957,1,0.000000,27.025817,2.339439,99,99,0,0,0,0,1
1,19999,33,10000,61,0,41,9999,0.100000,99,198,0.000000,1,5.000000,30.067288,28.528170,99,99,0,0,0,0,0
1,19999,34,10000,61,0,90,9999,0.100000,99,198,27.388777,1,3.000000,31.864898,13.540683,99,99,1,0,0,0,0
1,19999,35,10000,61,0,40,9999,0.100000,99,198,0.000000,1,1.000000,21.287320,4.705445,99,99,0,0,0,0,0
1,19999,36,10000,61,0,0,9999,0.100000,99,198,0.131046,1,0.000000,21.459936,0.210800,99,99,0,0,1,0,0
1,19999,37,10000,61,0,40,9999,0.100000,99,198,0.000000,1,0.000000,21.936920,0.823554,99,99,0,0,0,0,0
1,19999,38,10000,61,0,40,9999,0.100000,99,198,0.000000,1,2.000000,27.630517,17.736730,99,99,0,0,0,0,0
1,19999,39,10000,61,0,0,9999,0.100000,99,198,0.023088,1,0.000000,22.603381,0.397408,99,99,0,0,0,0,1
1,19999,40,10000,61,0,40,9999,0.100000,99,198,0.000000,1,0.000000,29.832213,0.839685,99,99,0,0,0,0,0
1,19999,41,10000,61,0,40,9999,0.100000,99,198,0.000000,1,0.000000,27.460329,0.327537,99,99,0,0,0,0,0
1,19999,42,10000,61,0,0,9999,0.100000,99,198,2.565357,1,0.000000,28.683676,1.069997,99,99,0,1,0,0,0
1,19999,43,10000,61,0,40,9999,0.100000,99,198,0.000000,1,1.000000,21.199217,5.370010,99,99,0,0,0,0,0
1,19999,44,10000,61,0,40,9999,0.100000,99,198,0.000000,1,1.000000,24.347693,3.370591,99,99,0,0,0,0,0
1,19999,45,10000,61,0,0,9999,0.100000,99,198,0.178677,1,0.000000,29.483583,0.518789,99,99,0,1,0,0,0
1,19999,46,10000,61,0,40,9999,0.100000,99,198,0.000000,1,2.000000,22.780967,6.666490,99,99,0,0,0,0,0
1,19999,47,10000,61,0,40,9999,0.100000,99,198,0.000000,1,1.000000,24.981427,1.823513,99,99,0,0,0,0,0
1,19999,48,10000,61,0,0,9999,0.100000,99,198,0.001973,1,0.000000,30.076088,0.071842,99,99,0,0,0,0,1
1,19999,49,10000,61,0,1,9999,0.100000,99,198,0.900036,1,5.000000,33.220280,12.132636,99,99,0,0,1,0,0
1,19999,50,10000,61,0,40,9999,0.100000,99,198,0.000000,1,0.000000,29.373584,1.020251,99,99,0,0,0,0,0
1,19999,51,10000,61,0,41,9999,0.100000,99,198,0.000000,1,4.000000,27.811106,17.466750,99,99,0,0,0,0,0
1,19999,52,10000,61,0,0,9999,0.100000,99,198,0.672812,1,0.000000,30.762047,0.155544,99,99,0,1,0,0,0
1,19999,53,10000,61,0,40,9999,0.100000,99,198,0.000000,1,1.000000,11.009615,3.164532,99,99,0,0,0,0,0
1,19999,54,10000,61,0,41,9999,0.100000,99,198,0.000000,1,4.000000,29.800885,14.501084,99,99,0,0,0,0,0
1,19999,55,10000,61,0,40,9999,0.100000,99,198,0.000000,1,1.000000,32.812355,8.168790,99,99,0,0,0,0,0
1,19999,56,10000,61,0,40,9999,0.100000,99,198,0.000000,1,2.000000,23.335531,4.605033,99,99,0,0,0,0,0
1,19999,57,10000,61,0,0,9999,0.100000,99,198,0.834010,1,0.000000,26.189372,0.810198,99,99,0,0,0,1,0
1,19999,58,10000,61,0,0,9999,0.100000,99,198,0.000908,1,0.000000,19.002006,2.412575,99,99,0,0,0,1,0
1,19999,59,10000,61,0,40,9999,0.100000,99,198,0.000000,1,0.000000,25.919990,0.086052,99,99,0,0,0,0,0
1,19999,60,10000,61,0,40,9999,0.100000,99,198,0.000000,1,1.000000,23.391178,10.223278,99,99,0,0,0,0,0
1,19999,61,10000,32,0,40,9999,0.100000,99,198,0.000000,1,1.000000,30.821427,17.079266,99,99,0,0,0,0,0
1,19999,62,10000,61,0,40,9999,0.100000,99,198,0.000000,1,0.000000,26.464119,0.453669,99,99,0,0,0,0,0
1,19999,63,10000,61,0,40,9999,0.100000,99,198,0.000000,1,1.000000,12.284009,20.039885,99,99,0,0,0,0,0
1,19999,64,10000,61,0,41,9999,0.100000,99,198,0.000000,1,5.000000,25.049350,12.886791,99,99,0,0,0,0,0
1,19999,65,10000,61,0,0,9999,0.100000,99,198,0.000786,1,0.000000,26.471917,0.130271,99,99,0,0,0,0,1
1,19999,66,10000,61,0,0,9999,0.100000,99,198,0.097058,1,0.000000,29.027589,0.239120,99,99,0,0,0,0,1
1,19999,67,10000,61,0,40,9999,0.100000,99,198,0.000000,1,0.000000,22.727429,3.791053,99,99,0,0,0,0,0
1,19999,68,10000,61,0,0,9999,0.100000,99,198,1.308260,1,0.000000,30.055163,0.401036,99,99,0,0,0,1,0
1,19999,69,10000,61,0,40,9999,0.100000,99,198,0.000000,1,0.000000,22.871070,0.172238,99,99,0,0,0,0,0
1,19999,70,10000,61,0,40,9999,0.100000,99,198,0.000000,1,2.000000,28.031092,14.852103,99,99,0,0,0,0,0
1,19999,71,10000,61,0,40,9999,0.100000,99,198,0.000000,1,1.000000,10.555682,1.341287,99,99,0,0,0,0,0
1,19999,72,10000,61,0,40,9999,0.100000,99,198,0.000000,1,1.000000,28.427290,1.758252,99,99,0,0,0,0,0
1,19999,73,10000,61,0,40,9999,0.100000,99,198,0.000000,1,0.000000,22.082280,0.920994,99,99,0,0,0,0,0
1,19999,74,10000,61,0,41,9999,0.100000,99,198,0.000000,1,4.000000,25.068357,7.977669,99,99,0,0,0,0,0
1,19999,75,10000,61,0,94,9999,0.100000,99,198,41.303019,1,9.000000,19.373464,13.768259,99,99,1,0,0,0,0
1,19999,76,10000,61,0,44,9999,0.100000,99,198,0.000000,1,5.000000,11.285797,20.924140,99,99,0,0,0,0,0
1,19999,77,10000,61,0,40,9999,0.100000,99,198,0.000000,1,2.000000,21.072475,5.535302,99,99,0,0,0,0,0
1,19999,78,10000,61,0,40,9999,0.100000,99,198,0.000000,1,0.000000,21.141459,0.361138,99,99,0,0,0,0,0
1,19999,79,10000,61,0,41,9999,0.100000,99,198,0.000000,1,6.000000,32.016205,16.323986,99,99,0,0,0,0,0
1,19999,80,10000,61,0,40,9999,0.100000,99,198,0.000000,1,1.000000,32.731719,11.763406,99,99,0,0,0,0,0
1,19999,81,10000,61,0,40,9999,0.100000,99,198,0.000000,1,2.000000,20.935282,14.967671,99,99,0,0,0,0,0
1,19999,82,10000,61,0,1,9999,0.100000,99,198,6.751344,1,4.000000,25.142636,10.498861,99,99,0,0,0,1,0
1,19999,83,10000,61,0,0,9999,0.100000,99,198,0.000638,1,1.000000,24.501488,5.709878,99,99,0,0,0,0,1
1,19999,84,10000,61,0,40,9999,0.100000,99,198,0.000000,1,0.000000,17.423163,1.534190,99,99,0,0,0,0,0
1,19999,85,10000,61,0,40,9999,0.100000,99,198,0.000000,1,1.000000,25.417718,5.779441,99,99,0,0,0,0,0
1,19999,86,10000,61,0,41,9999,0.100000,99,198,0.000000,1,3.000000,22.165868,15.563473,99,99,0,0,0,0,0
1,19999,87,10000,61,0,0,9999,0.100000,99,198,0.043033,1,0.000000,15.931304,0.194808,99,99,0,0,1,0,0
1,19999,88,10000,61,0,40,9999,0.100000,99,198,0.000000,1,0.000000,21.247907,0.306008,99,99,0,0,0,0,0
1,19999,89,10000,61,0,40,9999,0.100000,99,198,0.000000,1,0.000000,26.071471,8.861583,99,99,0,0,0,0,0
1,19999,90,10000,61,0,40,9999,0.100000,99,198,0.000000,1,0.000000,26.749603,2.755771,99,99,0,0,0,0,0
1,19999,91,10000,61,0,0,9999,0.100000,99,198,0.000514,1,0.000000,14.342324,0.130038,99,99,0,0,0,0,1
1,19999,92,10000,61,0,40,9999,0.100000,99,198,0.000000,1,0.000000,26.126756,0.442409,99,99,0,0,0,0,0
1,19999,93,10000,61,0,41,9999,0.100000,99,198,0.000000,1,3.000000,25.665388,15.871451,99,99,0,0,0,0,0
1,19999,94,10000,61,0,40,9999,0.100000,99,198,0.000000,1,0.000000,27.229641,0.991701,99,99,0,0,0,0,0
1,19999,95,10000,61,0,40,9999,0.100000,99,198,0.000000,1,0.000000,26.209358,0.385523,99,99,0,0,0,0,0
1,19999,96,10000,61,0,90,9999,0.100000,99,198,2.042032,1,1.000000,25.820280,6.013529,99,99,1,0,0,0,0
1,19999,97,10000,61,0,40,9999,0.100000,99,198,0.000000,1,0.000000,22.508221,1.241735,99,99,0,0,0,0,0
1,19999,98,10000,61,0,42,9999,0.100000,99,198,0.000000,1,4.000000,17.602878,10.044016,99,99,0,0,0,0,0
1,19999,99,10000,61,0,40,9999,0.100000,99,198,0.000000,1,0.000000,17.819439,0.458369,99,99,0,0,0,0,0
2,29999,0,20000,75,10000,0,9999,0.100000,99,297,0.244610,1,0.000000,13.197187,0.216103,99,99,0,0,0,0,1
2,29999,1,20000,75,10000,40,9999,0.100000,99,297,0.000000,1,1.000000,20.211712,18.816045,99,99,0,0,0,0,0
2,29999,2,20000,75,10000,0,9999,0.100000,99,297,1.151156,2,0.000000,16.832318,0.417349,99,99,0,0,0,0,1
2,29999,3,20000,75,10000,0,9999,0.100000,99,297,0.196066,2,0.000000,21.440508,0.748199,99,99,0,0,0,1,0
2,29999,4,20000,75,10000,0,9999,0.100000,99,297,3.111235,2,1.000000,11.321297,3.804384,99,99,0,1,0,0,0
2,29999,5,20000,75,10000,41,9999,0.100000,99,297,0.000000,1,5.000000,28.976530,7.393157,99,99,0,0,0,0,0
2,29999,6,20000,75,10000,40,9999,0.100000,99,297,0.000000,2,1.000000,27.109873,12.303457,99,99,0,0,0,0,0
2,29999,7,20000,75,10000,0,9999,0.100000,99,297,8.378404,2,1.000000,27.109517,6.370735,99,99,0,1,0,0,0
2,29999,8,20000,75,10000,0,9999,0.100000,99,297,0.297780,1,0.000000,27.774559,1.091017,99,99,0,0,0,0,1
2,29999,9,20000,75,10000,0,9999,0.100000,99,297,3.172583,1,1.000000,29.226867,5.392775,99,99,0,1,0,0,0
2,29999,10,20000,75,10000,0,9999,0.100000,99,297,3.342703,1,2.000000,32.297120,17.772198,99,99,0,1,0,0,0
2,29999,11,20000,75,10000,40,9999,0.100000,99,297,0.000000,2,2.000000,26.873251,4.499913,99,99,0,0,0,0,0
2,29999,12,20000,75,10000,40,9999,0.100000,99,297,0.000000,1,0.000000,23.391165,0.678248,99,99,0,0,0,0,0
2,29999,13,20000,75,10000,0,9999,0.100000,99,297,0.908231,1,0.000000,18.153477,0.789940,99,99,0,0,1,0,0
2,29999,14,20000,75,10000,0,9999,0.100000,99,297,0.839740,1,0.000000,33.174612,3.791054,99,99,0,0,1,0,0
2,29999,15,20000,75,10000,0,9999,0.100000,99,297,0.201719,1,0.000000,27.166440,0.252087,99,99,0,0,0,0,1
2,29999,16,20000,75,10000,40,9999,0.100000,99,297,0.000000,1,0.000000,27.906559,0.185428,99,99,0,0,0,0,0
2,29999,17,20000,75,10000,40,9999,0.100000,99,297,0.000000,1,0.000000,29.076521,0.435699,99,99,0,0,0,0,0
2,29999,18,20000,75,10000,0,9999,0.100000,99,297,0.491000,2,0.000000,16.930040,0.241046,99,99,0,1,0,0,0
2,29999,19,20000,75,10000,0,9999,0.100000,99,297,3.173092,2,0.000000,25.855114,1.198817,99,99,0,0,0,1,0
2,29999,20,20000,75,10000,40,9999,0.100000,99,297,0.000000,1,0.000000,26.699849,1.596221,99,99,0,0,0,0,0
2,29999,21,20000,75,10000,40,9999,0.100000,99,297,0.000000,1,0.000000,12.498934,1.444198,99,99,0,0,0,0,0
2,29999,22,20000,75,10000,40,9999,0.100000,99,297,0.000000,1,0.000000,20.672998,0.711518,99,99,0,0,0,0,0
2,29999,23,20000,75,10000,0,9999,0.100000,99,297,0.001558,1,0.000000,19.644373,0.276341,99,99,0,0,0,1,0
2,29999,24,20000,75,10000,0,9999,0.100000,99,297,0.486839,1,0.000000,29.431468,0.376327,99,99,0,0,1,0,0
2,29999,25,20000,75,10000,0,9999,0.100000,99,297,0.790389,2,0.000000,20.574434,0.229613,99,99,0,0,0,1,0
2,29999,26,20000,75,10000,40,9999,0.100000,99,297,0.000000,1,0.000000,21.619221,0.653282,99,99,0,0,0,0,0
2,29999,27,20000,75,10000,0,9999,0.100000,99,297,3.230919,2,0.000000,20.845704,1.207773,99,99,0,0,1,0,0
2,29999,28,20000,75,10000,0,9999,0.100000,99,297,0.137078,2,0.000000,28.066428,0.182041,99,99,0,0,0,0,1
2,29999,29,20000,75,10000,40,9999,0.100000,99,297,0.000000,1,0.000000,21.716599,0.652511,99,99,0,0,0,0,0
2,29999,30,20000,75,10000,1,9999,0.100000,99,297,26.512360,1,5.000000,29.011189,5.376003,99,99,0,1,0,0,0
2,29999,31,20000,75,10000,1,9999,0.100000,99,297,19.008143,2,3.000000,22.104668,4.498151,99,99,0,1,0,0,0
2,29999,32,20000,75,10000,40,9999,0.100000,99,297,0.000000,2,0.000000,26.663925,1.241116,99,99,0,0,0,0,0
2,29999,33,20000,75,10000,40,9999,0.100000,99,297,0.000000,1,1.000000,25.712169,4.275617,99,99,0,0,0,0,0
2,29999,34,20000,75,10000,93,9999,0.100000,99,297,64.428668,2,12.000000,32.630493,12.764515,99,99,1,0,0,0,0
2,29999,35,20000,75,10000,41,9999,0.100000,99,297,0.000000,2,3.000000,21.572427,4.714940,99,99,0,0,0,0,0
2,29999,36,20000,75,10000,0,9999,0.100000,99,297,0.024012,1,1.000000,21.435730,2.999097,99,99,0,0,1,0,0
2,29999,37,20000,75,10000,0,9999,0.100000,99,297,0.103915,1,0.000000,21.530275,0.542202,99,99,0,0,0,1,0
2,29999,38,20000,75,10000,40,9999,0.100000,99,297,0.000000,2,0.000000,26.314088,1.966574,99,99,0,0,0,0,0
2,29999,39,20000,75,10000,40,9999,0.100000,99,297,0.000000,2,0.000000,22.613734,1.131849,99,99,0,0,0,0,0
2,29999,40,20000,75,10000,90,9999,0.100000,99,297,16.444996,2,3.000000,30.103252,9.005253,99,99,1,0,0,0,0
2,29999,41,20000,75,10000,40,9999,0.100000,99,297,0.000000,2,0.000000,27.392214,0.193206,99,99,0,0,0,0,0
2,29999,42,20000,75,10000,41,9999,0.100000,99,297,0.000000,1,4.000000,28.712217,25.347580,99,99,0,0,0,0,0
2,29999,43,20000,75,10000,40,9999,0.100000,99,297,0.000000,2,0.000000,21.116237,2.408234,99,99,0,0,0,0,0
2,29999,44,20000,75,10000,41,9999,0.100000,99,297,0.000000,1,3.000000,25.844315,6.953477,99,99,0,0,0,0,0
2,29999,45,20000,75,10000,40,9999,0.100000,99,297,0.000000,1,1.000000,29.411304,3.803530,99,99,0,0,0,0,0
2,29999,46,20000,75,10000,40,9999,0.100000,99,297,0.000000,2,0.000000,21.341775,0.527729,99,99,0,0,0,0,0
2,29999,47,20000,75,10000,0,9999,0.100000,99,297,14.191698,1,2.000000,25.831599,7.943059,99,99,0,0,0,1,0
2,29999,48,20000,75,10000,0,9999,0.100000,99,297,0.001844,1,0.000000,30.077352,0.070718,99,99,0,0,0,0,1
2,29999,49,20000,75,10000,40,9999,0.100000,99,297,0.000000,2,0.000000,32.921621,0.411066,99,99,0,0,0,0,0
2,29999,50,20000,75,10000,0,9999,0.100000,99,297,0.056934,1,0.000000,29.222168,0.497672,99,99,0,0,0,1,0
2,29999,51,20000,75,10000,2,9999,0.100000,99,297,32.053597,2,7.000000,23.622006,9.486263,99,99,0,1,0,0,0
2,29999,52,20000,75,10000,40,9999,0.100000,99,297,0.000000,1,1.000000,30.674492,9.463892,99,99,0,0,0,0,0
2,29999,53,20000,75,10000,40,9999,0.100000,99,297,0.000000,1,1.000000,11.552679,4.189073,99,99,0,0,0,0,0
2,29999,54,20000,75,10000,40,9999,0.100000,99,297,0.000000,2,1.000000,28.673299,13.850225,99,99,0,0,0,0,0
2,29999,55,20000,75,10000,40,9999,0.100000,99,297,0.000000,1,0.000000,33.926553,0.233056,99,99,0,0,0,0,0
2,29999,56,20000,75,10000,41,9999,0.100000,99,297,0.000000,1,5.000000,24.141867,11.654126,99,99,0,0,0,0,0
2,29999,57,20000,75,10000,0,9999,0.100000,99,297,2.260663,2,0.000000,26.405157,1.068391,99,99,0,0,0,1,0
2,29999,58,20000,75,10000,0,9999,0.100000,99,297,0.076650,2,0.000000,19.039785,0.107300,99,99,0,0,0,1,0
2,29999,59,20000,75,10000,40,9999,0.100000,99,297,0.000000,2,0.000000,25.919066,0.248342,99,99,0,0,0,0,0
2,29999,60,20000,75,10000,41,9999,0.100000,99,297,0.000000,2,3.000000,21.904809,4.411121,99,99,0,0,0,0,0
2,29999,61,20000,75,10000,40,9999,0.100000,99,297,0.000000,2,0.000000,30.156815,17.826875,99,99,0,0,0,0,0
2,29999,62,20000,75,10000,40,9999,0.100000,99,297,0.000000,2,0.000000,26.621471,1.049498,99,99,0,0,0,0,0
2,29999,63,20000,75,10000,42,9999,0.100000,99,297,0.000000,1,3.000000,12.912606,8.224906,99,99,0,0,0,0,0
2,29999,64,20000,75,10000,40,9999,0.100000,99,297,0.000000,1,0.000000,26.180017,0.991737,99,99,0,0,0,0,0
2,29999,65,20000,75,10000,0,9999,0.100000,99,297,0.150958,2,0.000000,26.471590,0.137645,99,99,0,0,0,0,1
2,29999,66,20000,75,10000,40,9999,0.100000,99,297,0.000000,1,0.000000,28.969507,3.449461,99,99,0,0,0,0,0
2,29999,67,20000,75,10000,40,9999,0.100000,99,297,0.000000,1,0.000000,22.074999,0.662638,99,99,0,0,0,0,0
2,29999,68,20000,75,10000,40,9999,0.100000,99,297,0.000000,1,0.000000,29.862415,0.270380,99,99,0,0,0,0,0
2,29999,69,20000,75,10000,0,9999,0.100000,99,297,1.082434,1,0.000000,22.882318,0.333828,99,99,0,0,0,0,1
2,29999,70,20000,75,10000,40,9999,0.100000,99,297,0.000000,1,1.000000,26.802507,13.929678,99,99,0,0,0,0,0
2,29999,71,20000,75,10000,40,9999,0.100000,99,297,0.000000,2,0.000000,11.570621,0.980578,99,99,0,0,0,0,0
2,29999,72,20000,75,10000,41,9999,0.100000,99,297,0.000000,1,5.000000,29.219388,5.357044,99,99,0,0,0,0,0
2,29999,73,20000,75,10000,40,9999,0.100000,99,297,0.000000,1,0.000000,21.446824,0.496671,99,99,0,0,0,0,0
2,29999,74,20000,75,10000,40,9999,0.100000,99,297,0.000000,2,0.000000,27.326834,1.042614,99,99,0,0,0,0,0
2,29999,75,20000,34,10000,40,9999,0.100000,99,297,0.000000,2,1.000000,27.670702,3.968762,99,99,0,0,0,0,0
2,29999,76,20000,75,10000,40,9999,0.100000,99,297,0.000000,2,0.000000,12.940000,0.181280,99,99,0,0,0,0,0
2,29999,77,20000,75,10000,40,9999,0.100000,99,297,0.000000,1,2.000000,21.372884,21.037643,99,99,0,0,0,0,0
2,29999,78,20000,75,10000,42,9999,0.100000,99,297,0.000000,2,5.000000,21.138418,11.124300,99,99,0,0,0,0,0
2,29999,79,20000,75,10000,40,9999,0.100000,99,297,0.000000,2,1.000000,27.094359,14.669665,99,99,0,0,0,0,0
2,29999,80,20000,75,10000,40,9999,0.100000,99,297,0.000000,2,0.000000,33.754775,0.239394,99,99,0,0,0,0,0
2,29999,81,20000,75,10000,0,9999,0.100000,99,297,0.171397,1,0.000000,23.442875,15.022352,99,99,0,0,0,0,1
2,29999,82,20000,75,10000,41,9999,0.100000,99,297,0.000000,1,3.000000,25.843043,6.378208,99,99,0,0,0,0,0
2,29999,83,20000,75,10000,40,9999,0.100000,99,297,0.000000,2,0.000000,23.468929,0.541815,99,99,0,0,0,0,0
2,29999,84,20000,75,10000,40,9999,0.100000,99,297,0.000000,1,0.000000,17.304794,0.473237,99,99,0,0,0,0,0
2,29999,85,20000,75,10000,40,9999,0.100000,99,297,0.000000,1,2.000000,25.810367,5.296372,99,99,0,0,0,0,0
2,29999,86,20000,75,10000,40,9999,0.100000,99,297,0.000000,1,0.000000,22.490474,5.207972,99,99,0,0,0,0,0
2,29999,87,20000,75,10000,0,9999,0.100000,99,297,0.001372,1,0.000000,15.869633,0.231097,99,99,0,0,1,0,0
2,29999,88,20000,75,10000,40,9999,0.100000,99,297,0.000000,1,0.000000,21.234096,0.446753,99,99,0,0,0,0,0
2,29999,89,20000,75,10000,40,9999,0.100000,99,297,0.000000,1,1.000000,26.201338,2.891697,99,99,0,0,0,0,0
2,29999,90,20000,75,10000,40,9999,0.100000,99,297,0.000000,1,0.000000,26.125345,0.880978,99,99,0,0,0,0,0
2,29999,91,20000,75,10000,0,9999,0.100000,99,297,0.000531,1,0.000000,14.342390,0.129727,99,99,0,0,0,0,1
2,29999,92,20000,75,10000,40,9999,0.100000,99,297,0.000000,2,0.000000,26.361022,1.093337,99,99,0,0,0,0,0
2,29999,93,20000,75,10000,40,9999,0.100000,99,297,0.000000,2,0.000000,25.169636,8.068151,99,99,0,0,0,0,0
2,29999,94,20000,75,10000,42,9999,0.100000,99,297,0.000000,2,6.000000,26.934224,13.766150,99,99,0,0,0,0,0
2,29999,95,20000,75,10000,40,9999,0.100000,99,297,0.000000,1,0.000000,26.378787,0.872671,99,99,0,0,0,0,0
2,29999,96,20000,75,10000,41,9999,0.100000,99,297,0.000000,2,4.000000,27.723090,6.686005,99,99,0,0,0,0,0
2,29999,97,20000,75,10000,40,9999,0.100000,99,297,0.000000,2,0.000000,21.933260,0.740417,99,99,0,0,0,0,0
2,29999,98,20000,75,10000,40,9999,0.100000,99,297,0.000000,2,0.000000,18.480795,1.114978,99,99,0,0,0,0,0
2,29999,99,20000,75,10000,40,9999,0.100000,99,297,0.000000,2,0.000000,17.859995,0.660006,99,99,0,0,0,0,0
3,39999,0,30000,34,20000,0,9999,0.100000,99,396,0.041091,1,0.000000,13.276929,0.109574,99,99,0,0,0,0,1
3,39999,1,30000,34,20000,40,9999,0.100000,99,396,0.000000,1,1.000000,20.638264,13.723799,99,99,0,0,0,0,0
3,39999,2,30000,34,20000,0,9999,0.100000,99,396,0.199824,2,0.000000,16.512143,1.084514,99,99,0,0,0,0,1
3,39999,3,30000,34,20000,0,9999,0.100000,99,396,0.122782,2,0.000000,21.367829,0.720321,99,99,0,0,0,1,0
3,39999,4,30000,34,20000,9,9999,0.100000,99,396,70.355917,2,13.000000,12.916477,14.048448,99,99,0,1,0,0,0
3,39999,5,30000,34,20000,1,9999,0.100000,99,396,13.897338,2,3.000000,25.678674,8.136399,99,99,0,1,0,0,0
3,39999,6,30000,34,20000,40,9999,0.100000,99,396,0.000000,2,2.000000,27.178374,5.050869,99,99,0,0,0,0,0
3,39999,7,30000,34,20000,40,9999,0.100000,99,396,0.000000,3,1.000000,28.192016,1.667451,99,99,0,0,0,0,0
3,39999,8,30000,34,20000,0,9999,0.100000,99,396,0.175105,2,0.000000,28.176598,0.134859,99,99,0,0,0,0,1
3,39999,9,30000,34,20000,0,9999,0.100000,99,396,5.865427,2,1.000000,30.685326,2.644571,99,99,0,1,0,0,0
3,39999,10,30000,34,20000,1,9999,0.100000,99,396,20.203688,2,5.000000,30.933098,15.930452,99,99,0,1,0,0,0
3,39999,11,30000,34,20000,0,9999,0.100000,99,396,5.118642,2,1.000000,28.435695,4.177178,99,99,0,1,0,0,0
3,39999,12,30000,34,20000,0,9999,0.100000,99,396,0.006333,1,0.000000,23.108825,7.055328,99,99,0,0,0,0,1
3,39999,13,30000,34,20000,0,9999,0.100000,99,396,1.054536,1,0.000000,17.773876,0.342344,99,99,0,0,1,0,0
3,39999,14,30000,34,20000,0,9999,0.100000,99,396,1.059060,2,0.000000,33.090743,0.243646,99,99,0,0,1,0,0
3,39999,15,30000,34,20000,40,9999,0.100000,99,396,0.000000,2,0.000000,27.064239,0.226768,99,99,0,0,0,0,0
3,39999,16,30000,34,20000,0,9999,0.100000,99,396,0.123926,2,0.000000,27.839286,0.172942,99,99,0,0,0,0,1
3,39999,17,30000,34,20000,40,9999,0.100000,99,396,0.000000,1,0.000000,29.353945,0.273592,99,99,0,0,0,0,0
3,39999,18,30000,34,20000,0,9999,0.100000,99,396,0.128484,3,0.000000,17.005232,0.153950,99,99,0,1,0,0,0
3,39999,19,30000,34,20000,0,9999,0.100000,99,396,0.327739,2,0.000000,26.210171,0.362610,99,99,0,0,0,1,0
3,39999,20,30000,34,20000,40,9999,0.100000,99,396,0.000000,1,0.000000,26.552371,1.487566,99,99,0,0,0,0,0
3,39999,21,30000,34,20000,40,9999,0.100000,99,396,0.000000,1,0.000000,13.099690,0.092480,99,99,0,0,0,0,0
3,39999,22,30000,34,20000,40,9999,0.100000,99,396,0.000000,1,0.000000,20.503980,0.907862,99,99,0,0,0,0,0
3,39999,23,30000,34,20000,0,9999,0.100000,99,396,0.019143,1,0.000000,19.550330,0.157694,99,99,0,0,0,1,0
3,39999,24,30000,34,20000,0,9999,0.100000,99,396,0.292477,1,0.000000,29.698862,0.225188,99,99,0,0,1,0,0
3,39999,25,30000,34,20000,0,9999,0.100000,99,396,0.020879,2,0.000000,20.452756,0.229014,99,99,0,0,0,1,0
3,39999,26,30000,34,20000,40,9999,0.100000,99,396,0.000000,2,0.000000,21.540298,1.037675,99,99,0,0,0,0,0
3,39999,27,30000,34,20000,40,9999,0.100000,99,396,0.000000,2,0.000000,21.241237,0.106079,99,99,0,0,0,0,0
3,39999,28,30000,34,20000,40,9999,0.100000,99,396,0.000000,3,0.000000,27.995902,0.150382,99,99,0,0,0,0,0
3,39999,29,30000,34,20000,0,9999,0.100000,99,396,1.792067,1,0.000000,21.674371,1.157213,99,99,0,0,0,1,0
3,39999,30,30000,34,20000,0,9999,0.100000,99,396,1.241748,2,0.000000,32.139168,0.515533,99,99,0,1,0,0,0
3,39999,31,30000,34,20000,0,9999,0.100000,99,396,1.870292,3,0.000000,25.335855,0.627582,99,99,0,1,0,0,0
3,39999,32,30000,34,20000,0,9999,0.100000,99,396,0.085933,3,0.000000,26.562613,0.496981,99,99,0,0,0,0,1
3,39999,33,30000,34,20000,0,9999,0.100000,99,396,0.010593,2,0.000000,27.242221,0.820789,99,99,0,0,0,1,0
3,39999,34,30000,51,20000,40,9999,0.100000,99,396,0.000000,3,0.000000,28.483511,0.973941,99,99,0,0,0,0,0
3,39999,35,30000,34,20000,40,9999,0.100000,99,396,0.000000,3,0.000000,19.759647,0.919037,99,99,0,0,0,0,0
3,39999,36,30000,34,20000,0,9999,0.065000,99,396,0.063446,1,0.000000,21.431338,0.157607,99,99,0,0,1,0,0
3,39999,37,30000,34,20000,40,9999,0.100000,99,396,0.000000,2,0.000000,21.417105,0.997785,99,99,0,0,0,0,0
3,39999,38,30000,34,20000,43,9999,0.100000,99,396,0.000000,2,10.000000,26.945369,11.703417,99,99,0,0,0,0,0
3,39999,39,30000,34,20000,40,9999,0.100000,99,396,0.000000,3,0.000000,22.993436,2.253158,99,99,0,0,0,0,0
3,39999,40,30000,34,20000,0,9999,0.100000,99,396,0.002516,3,0.000000,31.853873,0.283769,99,99,0,0,1,0,0
3,39999,41,30000,34,20000,40,9999,0.100000,99,396,0.000000,2,0.000000,27.285355,0.196246,99,99,0,0,0,0,0
3,39999,42,30000,34,20000,41,9999,0.100000,99,396,0.000000,2,3.000000,25.922563,19.939536,99,99,0,0,0,0,0
3,39999,43,30000,34,20000,0,9999,0.100000,99,396,0.018039,2,0.000000,21.178841,0.173161,99,99,0,0,1,0,0
3,39999,44,30000,34,20000,40,9999,0.100000,99,396,0.000000,1,0.000000,28.584036,4.503297,99,99,0,0,0,0,0
3,39999,45,30000,34,20000,40,9999,0.100000,99,396,0.000000,2,1.000000,30.477159,3.186604,99,99,0,0,0,0,0
3,39999,46,30000,34,20000,40,9999,0.100000,99,396,0.000000,2,0.000000,21.295251,0.455523,99,99,0,0,0,0,0
3,39999,47,30000,34,20000,40,9999,0.100000,99,396,0.000000,2,0.000000,28.409330,7.316959,99,99,0,0,0,0,0
3,39999,48,30000,34,20000,0,9999,0.100000,99,396,0.000883,1,0.000000,30.078503,0.070337,99,99,0,0,0,0,1
3,39999,49,30000,34,20000,41,9999,0.100000,99,396,0.000000,3,6.000000,32.893747,12.293028,99,99,0,0,0,0,0
3,39999,50,30000,34,20000,0,9999,0.100000,99,396,0.020629,2,0.000000,29.281445,0.063606,99,99,0,0,0,1,0
3,39999,51,30000,34,20000,1,9999,0.100000,99,396,1.647313,3,4.000000,26.980914,5.059626,99,99,0,1,0,0,0
3,39999,52,30000,34,20000,1,9999,0.100000,99,396,20.203468,2,4.000000,31.145500,15.681894,99,99,0,1,0,0,0
3,39999,53,30000,34,20000,49,9999,0.100000,99,396,0.000000,1,13.000000,13.077920,14.054853,99,99,0,0,0,0,0
3,39999,54,30000,34,20000,40,9999,0.100000,99,396,0.000000,2,0.000000,27.765917,2.677341,99,99,0,0,0,0,0
3,39999,55,30000,34,20000,40,9999,0.100000,99,396,0.000000,1,0.000000,33.927884,0.230324,99,99,0,0,0,0,0
3,39999,56,30000,34,20000,40,9999,0.100000,99,396,0.000000,2,1.000000,27.171627,2.299121,99,99,0,0,0,0,0
3,39999,57,30000,34,20000,40,9999,0.100000,99,396,0.000000,2,0.000000,27.224300,0.793624,99,99,0,0,0,0,0
3,39999,58,30000,34,20000,0,9999,0.100000,99,396,0.037923,2,0.000000,19.032919,0.142736,99,99,0,0,0,1,0
3,39999,59,30000,34,20000,0,9999,0.100000,99,396,0.904307,2,0.000000,25.952734,0.685752,99,99,0,0,0,0,1
3,39999,60,30000,34,20000,40,9999,0.100000,99,396,0.000000,2,0.000000,25.483371,0.715801,99,99,0,0,0,0,0
3,39999,61,30000,34,20000,40,9999,0.100000,99,396,0.000000,2,0.000000,29.981668,21.052818,99,99,0,0,0,0,0
3,39999,62,30000,34,20000,40,9999,0.100000,99,396,0.000000,2,0.000000,26.956688,0.686944,99,99,0,0,0,0,0
3,39999,63,30000,34,20000,44,9999,0.100000,99,396,0.000000,2,8.000000,15.840097,11.268105,99,99,0,0,0,0,0
3,39999,64,30000,34,20000,40,9999,0.100000,99,396,0.000000,2,0.000000,25.431273,1.004113,99,99,0,0,0,0,0
3,39999,65,30000,34,20000,40,9999,0.100000,99,396,0.000000,2,0.000000,26.516475,0.639019,99,99,0,0,0,0,0
3,39999,66,30000,34,20000,40,9999,0.100000,99,396,0.000000,2,0.000000,28.646960,0.366663,99,99,0,0,0,0,0
3,39999,67,30000,34,20000,40,9999,0.100000,99,396,0.000000,1,0.000000,21.630118,0.987190,99,99,0,0,0,0,0
3,39999,68,30000,34,20000,40,9999,0.100000,99,396,0.000000,2,0.000000,29.754675,0.074677,99,99,0,0,0,0,0
3,39999,69,30000,34,20000,40,9999,0.100000,99,396,0.000000,2,1.000000,23.077434,6.534937,99,99,0,0,0,0,0
3,39999,70,30000,34,20000,40,9999,0.100000,99,396,0.000000,1,1.000000,27.725064,4.722095,99,99,0,0,0,0,0
3,39999,71,30000,34,20000,40,9999,0.100000,99,396,0.000000,2,0.000000,12.306652,1.019529,99,99,0,0,0,0,0
3,39999,72,30000,34,20000,40,9999,0.100000,99,396,0.000000,2,0.000000,32.332496,0.579517,99,99,0,0,0,0,0
3,39999,73,30000,34,20000,40,9999,0.100000,99,396,0.000000,1,0.000000,21.294182,1.280610,99,99,0,0,0,0,0
3,39999,74,30000,34,20000,40,9999,0.100000,99,396,0.000000,2,0.000000,26.535020,1.023373,99,99,0,0,0,0,0
3,39999,75,30000,34,20000,40,9999,0.100000,99,396,0.000000,2,0.000000,26.568734,2.045458,99,99,0,0,0,0,0
3,39999,76,30000,34,20000,40,9999,0.100000,99,396,0.000000,3,0.000000,12.991136,0.108111,99,99,0,0,0,0,0
3,39999,77,30000,34,20000,40,9999,0.100000,99,396,0.000000,1,0.000000,22.599975,15.027131,99,99,0,0,0,0,0
3,39999,78,30000,34,20000,40,9999,0.100000,99,396,0.000000,3,0.000000,21.152615,0.746892,99,99,0,0,0,0,0
3,39999,79,30000,34,20000,40,9999,0.100000,99,396,0.000000,2,0.000000,26.258163,1.543104,99,99,0,0,0,0,0
3,39999,80,30000,34,20000,40,9999,0.100000,99,396,0.000000,2,0.000000,33.756034,0.248091,99,99,0,0,0,0,0
3,39999,81,30000,34,20000,40,9999,0.100000,99,396,0.000000,2,0.000000,23.378904,0.321584,99,99,0,0,0,0,0
3,39999,82,30000,34,20000,40,9999,0.100000,99,396,0.000000,2,0.000000,28.330182,7.847768,99,99,0,0,0,0,0
3,39999,83,30000,34,20000,40,9999,0.100000,99,396,0.000000,2,0.000000,23.230403,0.439457,99,99,0,0,0,0,0
3,39999,84,30000,34,20000,40,9999,0.100000,99,396,0.000000,1,0.000000,17.005396,0.553088,99,99,0,0,0,0,0
3,39999,85,30000,34,20000,40,9999,0.100000,99,396,0.000000,1,0.000000,28.015497,6.190746,99,99,0,0,0,0,0
3,39999,86,30000,34,20000,0,9999,0.100000,99,396,2.165832,2,0.000000,22.848582,0.442634,99,99,0,0,0,0,1
3,39999,87,30000,34,20000,0,9999,0.100000,99,396,0.169646,1,0.000000,15.759416,0.390268,99,99,0,0,1,0,0
3,39999,88,30000,34,20000,40,9999,0.100000,99,396,0.000000,1,0.000000,21.218327,0.727309,99,99,0,0,0,0,0
3,39999,89,30000,34,20000,43,9999,0.100000,99,396,0.000000,1,9.000000,27.313111,10.697365,99,99,0,0,0,0,0
3,39999,90,30000,34,20000,40,9999,0.100000,99,396,0.000000,1,0.000000,26.465108,0.379539,99,99,0,0,0,0,0
3,39999,91,30000,34,20000,0,9999,0.100000,99,396,0.000425,1,0.000000,14.342407,0.129967,99,99,0,0,0,0,1
3,39999,92,30000,34,20000,40,9999,0.100000,99,396,0.000000,2,0.000000,27.254896,0.350538,99,99,0,0,0,0,0
3,39999,93,30000,34,20000,40,9999,0.100000,99,396,0.000000,2,2.000000,25.103464,11.232136,99,99,0,0,0,0,0
3,39999,94,30000,34,20000,40,9999,0.100000,99,396,0.000000,3,0.000000,26.841895,0.345525,99,99,0,0,0,0,0
3,39999,95,30000,34,20000,40,9999,0.100000,99,396,0.000000,1,0.000000,26.717366,0.542964,99,99,0,0,0,0,0
3,39999,96,30000,34,20000,40,9999,0.100000,99,396,0.000000,3,2.000000,23.361085,7.076532,99,99,0,0,0,0,0
3,39999,97,30000,34,20000,40,9999,0.100000,99,396,0.000000,2,0.000000,21.501873,0.842675,99,99,0,0,0,0,0
3,39999,98,30000,34,20000,40,9999,0.100000,99,396,0.000000,2,0.000000,18.016430,0.512597,99,99,0,0,0,0,0
3,39999,99,30000,34,20000,40,9999,0.100000,99,396,0.000000,2,0.000000,17.566418,0.289084,99,99,0,0,0,0,0
4,49999,0,40000,4,30000,0,9999,0.100000,99,495,0.014956,1,0.000000,13.289104,0.081990,99,99,0,0,0,0,1
4,49999,1,40000,4,30000,40,9999,0.100000,99,495,0.000000,1,2.000000,19.700221,9.586476,99,99,0,0,0,0,0
4,49999,2,40000,4,30000,0,9999,0.100000,99,495,0.477669,2,0.000000,16.281322,0.252300,99,99,0,0,0,0,1
4,49999,3,40000,4,30000,0,9999,0.100000,99,495,0.289205,2,0.000000,21.085879,0.803854,99,99,0,0,0,1,0
4,49999,4,40000,10,30000,0,9999,0.100000,99,495,2.816345,3,0.000000,26.128794,3.047176,99,99,0,1,0,0,0
4,49999,5,40000,4,30000,1,9999,0.100000,99,495,16.014835,3,3.000000,25.448924,9.358050,99,99,0,1,0,0,0
4,49999,6,40000,4,30000,40,9999,0.100000,99,495,0.000000,2,0.000000,26.707393,0.902727,99,99,0,0,0,0,0
4,49999,7,40000,4,30000,0,9999,0.100000,99,495,15.153430,3,2.000000,28.962769,3.229342,99,99,0,1,0,0,0
4,49999,8,40000,4,30000,0,9999,0.100000,99,495,0.055305,2,0.000000,28.139081,0.095503,99,99,0,0,0,0,1
4,49999,9,40000,4,30000,1,9999,0.100000,99,495,24.879386,2,5.000000,31.588794,6.458307,99,99,0,1,0,0,0
4,49999,10,40000,4,30000,40,9999,0.100000,99,495,0.000000,3,3.000000,34.569128,9.034863,99,99,0,0,0,0,0
4,49999,11,40000,4,30000,40,9999,0.100000,99,495,0.000000,2,2.000000,29.194299,3.295121,99,99,0,0,0,0,0
4,49999,12,40000,4,30000,0,9999,0.100000,99,495,0.060001,2,0.000000,23.045312,0.163803,99,99,0,0,0,0,1
4,49999,13,40000,4,30000,0,9999,0.100000,99,495,0.436731,1,0.000000,17.500571,0.235060,99,99,0,0,1,0,0
4,49999,14,40000,4,30000,0,9999,0.100000,99,495,0.739697,2,0.000000,33.141631,0.240364,99,99,0,0,1,0,0
4,49999,15,40000,4,30000,0,9999,0.100000,99,495,0.442358,2,0.000000,27.047917,0.724709,99,99,0,0,0,0,1
4,49999,16,40000,4,30000,0,9999,0.100000,99,495,0.024129,2,0.000000,27.743807,0.158481,99,99,0,0,0,0,1
4,49999,17,40000,4,30000,40,9999,0.100000,99,495,0.000000,1,0.000000,29.515307,0.275951,99,99,0,0,0,0,0
4,49999,18,40000,4,30000,0,9999,0.100000,99,495,0.138121,3,0.000000,17.018975,0.150530,99,99,0,1,0,0,0
4,49999,19,40000,4,30000,0,9999,0.100000,99,495,1.434216,2,0.000000,26.448426,0.473413,99,99,0,0,0,1,0
4,49999,20,40000,4,30000,40,9999,0.100000,99,495,0.000000,1,2.000000,26.700664,4.856634,99,99,0,0,0,0,0
4,49999,21,40000,4,30000,40,9999,0.100000,99,495,0.000000,1,0.000000,13.111191,0.114956,99,99,0,0,0,0,0
4,49999,22,40000,4,30000,40,9999,0.100000,99,495,0.000000,1,0.000000,20.488827,1.119337,99,99,0,0,0,0,0
4,49999,23,40000,4,30000,1,9999,0.100000,99,495,0.002663,1,3.000000,19.549074,3.731809,99,99,0,0,1,0,0
4,49999,24,40000,4,30000,0,9999,0.100000,99,495,0.093846,1,0.000000,29.867717,0.202843,99,99,0,0,1,0,0
4,49999,25,40000,4,30000,0,9999,0.100000,99,495,0.873814,2,0.000000,20.440535,0.381143,99,99,0,0,0,1,0
4,49999,26,40000,4,30000,0,9999,0.100000,99,495,2.055213,2,0.000000,21.433736,0.579024,99,99,0,0,0,1,0
4,49999,27,40000,4,30000,0,9999,0.100000,99,495,0.000037,2,0.000000,21.250540,0.116708,99,99,0,0,1,0,0
4,49999,28,40000,4,30000,40,9999,0.100000,99,495,0.000000,3,0.000000,27.915406,0.132516,99,99,0,0,0,0,0
4,49999,29,40000,4,30000,40,9999,0.100000,99,495,0.000000,2,0.000000,21.640799,0.485026,99,99,0,0,0,0,0
4,49999,30,40000,4,30000,0,9999,0.100000,99,495,2.169885,2,0.000000,32.370927,0.775307,99,99,0,1,0,0,0
4,49999,31,40000,4,30000,40,9999,0.100000,99,495,0.000000,3,0.000000,25.566858,0.383334,99,99,0,0,0,0,0
4,49999,32,40000,4,30000,40,9999,0.100000,99,495,0.000000,3,0.000000,26.563988,0.589767,99,99,0,0,0,0,0
4,49999,33,40000,4,30000,0,9999,0.100000,99,495,0.871878,3,0.000000,27.524405,0.620232,99,99,0,0,0,1,0
4,49999,34,40000,4,30000,40,9999,0.100000,99,495,0.000000,3,0.000000,28.532868,0.876215,99,99,0,0,0,0,0
4,49999,35,40000,4,30000,40,9999,0.100000,99,495,0.000000,3,0.000000,19.453028,1.006071,99,99,0,0,0,0,0
4,49999,36,40000,4,30000,0,9999,0.100000,99,495,3.944670,1,0.000000,21.419614,0.915671,99,99,0,0,1,0,0
4,49999,37,40000,4,30000,40,9999,0.100000,99,495,0.000000,2,0.000000,21.255694,0.741562,99,99,0,0,0,0,0
4,49999,38,40000,4,30000,40,9999,0.100000,99,495,0.000000,3,2.000000,19.188639,3.070758,99,99,0,0,0,0,0
4,49999,39,40000,4,30000,0,9999,0.100000,99,495,0.604094,3,0.000000,22.791925,1.443765,99,99,0,0,0,0,1
4,49999,40,40000,4,30000,0,9999,0.100000,99,495,0.002807,4,0.000000,31.921838,0.168300,99,99,0,0,1,0,0
4,49999,41,40000,4,30000,40,9999,0.100000,99,495,0.000000,2,0.000000,27.265132,0.649665,99,99,0,0,0,0,0
4,49999,42,40000,4,30000,1,9999,0.100000,99,495,15.891611,2,3.000000,25.384576,11.365460,99,99,0,1,0,0,0
4,49999,43,40000,4,30000,40,9999,0.100000,99,495,0.000000,3,0.000000,21.189963,0.137194,99,99,0,0,0,0,0
4,49999,44,40000,4,30000,40,9999,0.100000,99,495,0.000000,1,2.000000,28.327938,12.470667,99,99,0,0,0,0,0
4,49999,45,40000,4,30000,1,9999,0.100000,99,495,15.170452,2,5.000000,31.449322,6.766296,99,99,0,1,0,0,0
4,49999,46,40000,4,30000,40,9999,0.100000,99,495,0.000000,2,0.000000,21.083727,0.645833,99,99,0,0,0,0,0
4,49999,47,40000,4,30000,40,9999,0.100000,99,495,0.000000,2,2.000000,27.814639,9.828618,99,99,0,0,0,0,0
4,49999,48,40000,4,30000,0,9999,0.100000,99,495,0.000697,1,0.000000,30.079209,0.069277,99,99,0,0,0,0,1
4,49999,49,40000,4,30000,41,9999,0.100000,99,495,0.000000,4,6.000000,32.928038,12.717487,99,99,0,0,0,0,0
4,49999,50,40000,4,30000,0,9999,0.100000,99,495,0.020436,2,0.000000,29.279360,0.060356,99,99,0,0,0,1,0
4,49999,51,40000,4,30000,40,9999,0.100000,99,495,0.000000,4,0.000000,25.670719,0.894749,99,99,0,0,0,0,0
4,49999,52,40000,4,30000,40,9999,0.100000,99,495,0.000000,3,1.000000,33.287805,10.386817,99,99,0,0,0,0,0
4,49999,53,40000,4,30000,40,9999,0.100000,99,495,0.000000,2,1.000000,26.151382,3.713758,99,99,0,0,0,0,0
4,49999,54,40000,4,30000,40,9999,0.100000,99,495,0.000000,2,0.000000,27.239677,1.009521,99,99,0,0,0,0,0
4,49999,55,40000,4,30000,40,9999,0.100000,99,495,0.000000,1,0.000000,33.929527,0.250879,99,99,0,0,0,0,0
4,49999,56,40000,4,30000,40,9999,0.100000,99,495,0.000000,2,1.000000,27.457121,2.126834,99,99,0,0,0,0,0
4,49999,57,40000,4,30000,41,9999,0.100000,99,495,0.000000,3,4.000000,27.396965,11.185780,99,99,0,0,0,0,0
4,49999,58,40000,4,30000,0,9999,0.100000,99,495,0.198266,2,0.000000,19.050565,0.221479,99,99,0,0,0,1,0
4,49999,59,40000,4,30000,40,9999,0.100000,99,495,0.000000,2,0.000000,26.280991,0.388767,99,99,0,0,0,0,0
4,49999,60,40000,4,30000,0,9999,0.100000,99,495,1.111853,2,0.000000,25.741339,0.361052,99,99,0,1,0,0,0
4,49999,61,40000,4,30000,40,9999,0.100000,99,495,0.000000,2,1.000000,29.854608,20.347649,99,99,0,0,0,0,0
4,49999,62,40000,4,30000,40,9999,0.100000,99,495,0.000000,2,0.000000,27.180897,0.853185,99,99,0,0,0,0,0
4,49999,63,40000,4,30000,43,9999,0.100000,99,495,0.000000,3,8.000000,24.230909,9.644315,99,99,0,0,0,0,0
4,49999,64,40000,4,30000,40,9999,0.100000,99,495,0.000000,2,0.000000,24.650637,1.011534,99,99,0,0,0,0,0
4,49999,65,40000,4,30000,0,9999,0.100000,99,495,1.111295,2,0.000000,26.742850,0.292288,99,99,0,0,0,0,1
4,49999,66,40000,4,30000,40,9999,0.100000,99,495,0.000000,2,0.000000,28.487216,1.682914,99,99,0,0,0,0,0
4,49999,67,40000,4,30000,40,9999,0.100000,99,495,0.000000,1,0.000000,21.095506,0.655760,99,99,0,0,0,0,0
4,49999,68,40000,4,30000,40,9999,0.100000,99,495,0.000000,2,0.000000,29.753156,0.076866,99,99,0,0,0,0,0
4,49999,69,40000,4,30000,40,9999,0.100000,99,495,0.000000,2,1.000000,22.660292,2.613741,99,99,0,0,0,0,0
4,49999,70,40000,4,30000,40,9999,0.100000,99,495,0.000000,1,0.000000,27.042032,1.350401,99,99,0,0,0,0,0
4,49999,71,40000,4,30000,40,9999,0.100000,99,495,0.000000,2,0.000000,13.080723,1.011423,99,99,0,0,0,0,0
4,49999,72,40000,4,30000,40,9999,0.100000,99,495,0.000000,2,0.000000,32.564098,0.812111,99,99,0,0,0,0,0
4,49999,73,40000,4,30000,40,9999,0.100000,99,495,0.000000,1,0.000000,21.062899,0.859183,99,99,0,0,0,0,0
4,49999,74,40000,4,30000,41,9999,0.100000,99,495,0.000000,2,4.000000,25.753595,11.548131,99,99,0,0,0,0,0
4,49999,75,40000,4,30000,40,9999,0.100000,99,495,0.000000,2,0.000000,26.786409,2.662459,99,99,0,0,0,0,0
4,49999,76,40000,4,30000,40,9999,0.100000,99,495,0.000000,3,0.000000,13.000957,0.104022,99,99,0,0,0,0,0
4,49999,77,40000,4,30000,40,9999,0.100000,99,495,0.000000,1,1.000000,22.654412,7.874277,99,99,0,0,0,0,0
4,49999,78,40000,4,30000,40,9999,0.100000,99,495,0.000000,3,0.000000,21.102100,0.874360,99,99,0,0,0,0,0
4,49999,79,40000,4,30000,40,9999,0.100000,99,495,0.000000,2,0.000000,26.651881,0.589471,99,99,0,0,0,0,0
4,49999,80,40000,4,30000,40,9999,0.065000,99,495,0.000000,2,0.000000,33.756595,0.234395,99,99,0,0,0,0,0
4,49999,81,40000,4,30000,40,9999,0.100000,99,495,0.000000,2,0.000000,23.338598,0.148497,99,99,0,0,0,0,0
4,49999,82,40000,4,30000,42,9999,0.100000,99,495,0.000000,3,6.000000,28.036714,20.123675,99,99,0,0,0,0,0
4,49999,83,40000,4,30000,40,9999,0.100000,99,495,0.000000,2,0.000000,23.182668,0.118262,99,99,0,0,0,0,0
4,49999,84,40000,4,30000,40,9999,0.100000,99,495,0.000000,1,0.000000,16.580415,1.274132,99,99,0,0,0,0,0
4,49999,85,40000,4,30000,41,9999,0.100000,99,495,0.000000,1,5.000000,27.853388,9.861127,99,99,0,0,0,0,0
4,49999,86,40000,4,30000,40,9999,0.100000,99,495,0.000000,3,0.000000,23.238127,0.186932,99,99,0,0,0,0,0
4,49999,87,40000,4,30000,0,9999,0.100000,99,495,0.008938,1,0.000000,15.575790,0.200380,99,99,0,0,1,0,0
4,49999,88,40000,4,30000,40,9999,0.100000,99,495,0.000000,1,0.000000,21.088631,0.897357,99,99,0,0,0,0,0
4,49999,89,40000,4,30000,40,9999,0.100000,99,495,0.000000,2,0.000000,21.062096,1.428279,99,99,0,0,0,0,0
4,49999,90,40000,4,30000,41,9999,0.100000,99,495,0.000000,1,5.000000,26.692304,12.560488,99,99,0,0,0,0,0
4,49999,91,40000,4,30000,0,9999,0.100000,99,495,0.000611,1,0.000000,14.342552,0.130719,99,99,0,0,0,0,1
4,49999,92,40000,4,30000,40,9999,0.100000,99,495,0.000000,2,0.000000,27.458703,0.847520,99,99,0,0,0,0,0
4,49999,93,40000,4,30000,41,9999,0.100000,99,495,0.000000,2,3.000000,27.081286,8.444082,99,99,0,0,0,0,0
4,49999,94,40000,4,30000,42,9999,0.100000,99,495,0.000000,3,6.000000,26.836794,14.001233,99,99,0,0,0,0,0
4,49999,95,40000,4,30000,40,9999,0.100000,99,495,0.000000,1,0.000000,26.985828,0.600361,99,99,0,0,0,0,0
4,49999,96,40000,4,30000,40,9999,0.100000,99,495,0.000000,3,0.000000,25.961696,5.198895,99,99,0,0,0,0,0
4,49999,97,40000,4,30000,40,9999,0.100000,99,495,0.000000,2,0.000000,20.953914,0.673373,99,99,0,0,0,0,0
4,49999,98,40000,4,30000,40,9999,0.100000,99,495,0.000000,2,0.000000,17.686858,0.447419,99,99,0,0,0,0,0
4,49999,99,40000,4,30000,40,9999,0.100000,99,495,0.000000,2,0.000000,17.339090,0.186311,99,99,0,0,0,0,0
5,59999,0,50000,9,40000,0,9999,0.100000,99,594,0.010432,1,0.000000,13.284047,0.083279,99,99,0,0,0,0,1
5,59999,1,50000,9,40000,0,9999,0.100000,99,594,0.002421,1,0.000000,19.467155,1.761156,99,99,0,0,0,1,0
5,59999,2,50000,9,40000,4,9999,0.100000,99,594,0.099077,2,8.000000,16.137096,16.357065,99,99,0,0,0,0,1
5,59999,3,50000,9,40000,40,9999,0.100000,99,594,0.000000,2,2.000000,20.918689,3.178641,99,99,0,0,0,0,0
5,59999,4,50000,9,40000,0,9999,0.100000,99,594,6.790601,3,1.000000,26.250075,2.677157,99,99,0,1,0,0,0
5,59999,5,50000,9,40000,40,9999,0.100000,99,594,0.000000,3,1.000000,27.607868,10.411928,99,99,0,0,0,0,0
5,59999,6,50000,9,40000,40,9999,0.100000,99,594,0.000000,2,0.000000,27.377906,0.939635,99,99,0,0,0,0,0
5,59999,7,50000,9,40000,0,9999,0.100000,99,594,0.316668,3,0.000000,30.844728,1.825329,99,99,0,1,0,0,0
5,59999,8,50000,9,40000,0,9999,0.100000,99,594,0.000128,2,0.000000,28.149008,0.077115,99,99,0,0,0,0,1
5,59999,9,50000,5,40000,40,9999,0.100000,99,594,0.000000,3,1.000000,34.879480,9.878110,99,99,0,0,0,0,0
5,59999,10,50000,9,40000,40,9999,0.100000,99,594,0.000000,3,0.000000,33.539262,18.828207,99,99,0,0,0,0,0
5,59999,11,50000,9,40000,40,9999,0.100000,99,594,0.000000,2,3.000000,31.056965,13.995466,99,99,0,0,0,0,0
5,59999,12,50000,9,40000,0,9999,0.100000,99,594,0.002135,2,0.000000,23.043633,0.093431,99,99,0,0,0,0,1
5,59999,13,50000,9,40000,0,9999,0.100000,99,594,0.087158,1,0.000000,17.379743,0.227951,99,99,0,0,1,0,0
5,59999,14,50000,9,40000,0,9999,0.100000,99,594,0.017548,2,0.000000,33.196641,0.232837,99,99,0,0,1,0,0
5,59999,15,50000,9,40000,40,9999,0.100000,99,594,0.000000,2,0.000000,27.131768,0.404225,99,99,0,0,0,0,0
5,59999,16,50000,9,40000,40,9999,0.100000,99,594,0.000000,2,0.000000,27.669003,0.133150,99,99,0,0,0,0,0
5,59999,17,50000,9,40000,40,9999,0.100000,99,594,0.000000,1,0.000000,29.640618,0.276956,99,99,0,0,0,0,0
5,59999,18,50000,9,40000,0,9999,0.100000,99,594,0.201291,3,1.000000,17.031039,1.611514,99,99,0,1,0,0,0
5,59999,19,50000,9,40000,0,9999,0.100000,99,594,1.471158,2,0.000000,26.771294,0.389011,99,99,0,0,0,1,0
5,59999,20,50000,9,40000,40,9999,0.100000,99,594,0.000000,1,1.000000,28.028644,3.542947,99,99,0,0,0,0,0
5,59999,21,50000,9,40000,40,9999,0.100000,99,594,0.000000,1,0.000000,13.106776,0.097427,99,99,0,0,0,0,0
5,59999,22,50000,9,40000,0,9999,0.100000,99,594,1.130987,1,0.000000,20.247134,0.847354,99,99,0,0,0,1,0
5,59999,23,50000,9,40000,0,9999,0.100000,99,594,0.342013,2,0.000000,21.030898,0.142442,99,99,0,0,1,0,0
5,59999,24,50000,9,40000,0,9999,0.100000,99,594,0.066087,1,0.000000,29.993291,0.189525,99,99,0,0,1,0,0
5,59999,25,50000,9,40000,40,9999,0.100000,99,594,0.000000,2,0.000000,20.444955,0.409693,99,99,0,0,0,0,0
5,59999,26,50000,9,40000,0,9999,0.100000,99,594,5.640129,2,1.000000,21.257367,1.433940,99,99,0,0,0,1,0
5,59999,27,50000,9,40000,0,9999,0.100000,99,594,0.024487,2,0.000000,21.252227,0.103997,99,99,0,0,1,0,0
5,59999,28,50000,9,40000,0,9999,0.100000,99,594,0.051593,3,0.000000,27.844280,0.125158,99,99,0,0,0,0,1
5,59999,29,50000,9,40000,40,9999,0.100000,99,594,0.000000,2,1.000000,21.518551,1.339443,99,99,0,0,0,0,0
5,59999,30,50000,9,40000,0,9999,0.100000,99,594,0.574430,2,0.000000,32.715617,0.528429,99,99,0,1,0,0,0
5,59999,31,50000,9,40000,0,9999,0.100000,99,594,1.102196,4,0.000000,25.791730,2.300090,99,99,0,1,0,0,0
5,59999,32,50000,9,40000,0,9999,0.100000,99,594,0.653157,3,0.000000,26.653834,0.565118,99,99,0,0,0,0,1
5,59999,33,50000,9,40000,0,9999,0.100000,99,594,1.177590,3,0.000000,27.974340,0.570882,99,99,0,0,0,1,0
5,59999,34,50000,9,40000,40,9999,0.100000,99,594,0.000000,3,0.000000,28.539932,0.839427,99,99,0,0,0,0,0
5,59999,35,50000,9,40000,40,9999,0.100000,99,594,0.000000,3,0.000000,18.966678,1.159237,99,99,0,0,0,0,0
5,59999,36,50000,9,40000,0,9999,0.100000,99,594,0.025675,1,0.000000,22.191102,0.137448,99,99,0,0,1,0,0
5,59999,37,50000,9,40000,40,9999,0.100000,99,594,0.000000,2,1.000000,21.040973,1.592155,99,99,0,0,0,0,0
5,59999,38,50000,9,40000,40,9999,0.100000,99,594,0.000000,3,1.000000,19.466710,1.822663,99,99,0,0,0,0,0
5,59999,39,50000,9,40000,40,9999,0.100000,99,594,0.000000,3,0.000000,23.619529,0.149412,99,99,0,0,0,0,0
5,59999,40,50000,9,40000,0,9999,0.100000,99,594,0.000176,4,0.000000,31.915957,0.121626,99,99,0,0,1,0,0
5,59999,41,50000,9,40000,40,9999,0.100000,99,594,0.000000,2,0.000000,27.345408,1.202563,99,99,0,0,0,0,0
5,59999,42,50000,9,40000,42,9999,0.100000,99,594,0.000000,3,6.000000,27.427276,23.995784,99,99,0,0,0,0,0
5,59999,43,50000,9,40000,40,9999,0.100000,99,594,0.000000,3,0.000000,21.185986,0.176894,99,99,0,0,0,0,0
5,59999,44,50000,9,40000,40,9999,0.100000,99,594,0.000000,1,0.000000,26.988735,2.422469,99,99,0,0,0,0,0
5,59999,45,50000,9,40000,41,9999,0.100000,99,594,0.000000,3,4.000000,34.570233,21.431960,99,99,0,0,0,0,0
5,59999,46,50000,9,40000,0,9999,0.100000,99,594,14.645773,2,2.000000,20.959711,3.369662,99,99,0,0,0,1,0
5,59999,47,50000,9,40000,40,9999,0.100000,99,594,0.000000,2,0.000000,26.499622,1.003357,99,99,0,0,0,0,0
5,59999,48,50000,9,40000,0,9999,0.100000,99,594,0.001457,1,0.000000,30.079845,0.070154,99,99,0,0,0,0,1
5,59999,49,50000,9,40000,41,9999,0.100000,99,594,0.000000,4,6.000000,32.987381,12.876160,99,99,0,0,0,0,0
5,59999,50,50000,9,40000,40,9999,0.100000,99,594,0.000000,2,1.000000,29.277037,8.314040,99,99,0,0,0,0,0
5,59999,51,50000,9,40000,40,9999,0.100000,99,594,0.000000,4,0.000000,26.019214,1.483023,99,99,0,0,0,0,0
5,59999,52,50000,9,40000,40,9999,0.100000,99,594,0.000000,3,1.000000,32.604190,17.146571,99,99,0,0,0,0,0
5,59999,53,50000,9,40000,40,9999,0.100000,99,594,0.000000,2,1.000000,25.919635,19.129624,99,99,0,0,0,0,0
5,59999,54,50000,9,40000,40,9999,0.100000,99,594,0.000000,2,0.000000,27.901871,0.480317,99,99,0,0,0,0,0
5,59999,55,50000,9,40000,40,9999,0.100000,99,594,0.000000,1,0.000000,33.927766,0.246875,99,99,0,0,0,0,0
5,59999,56,50000,9,40000,40,9999,0.100000,99,594,0.000000,2,0.000000,27.463478,0.081390,99,99,0,0,0,0,0
5,59999,57,50000,9,40000,41,9999,0.100000,99,594,0.000000,3,4.000000,27.778146,20.088328,99,99,0,0,0,0,0
5,59999,58,50000,9,40000,0,9999,0.100000,99,594,0.012009,2,0.000000,18.985790,0.095626,99,99,0,0,0,1,0
5,59999,59,50000,9,40000,41,9999,0.100000,99,594,0.000000,2,3.000000,26.485572,6.461480,99,99,0,0,0,0,0
5,59999,60,50000,9,40000,40,9999,0.100000,99,594,0.000000,3,1.000000,25.884071,4.517986,99,99,0,0,0,0,0
5,59999,61,50000,9,40000,41,9999,0.100000,99,594,0.000000,2,6.000000,29.838846,22.983398,99,99,0,0,0,0,0
5,59999,62,50000,9,40000,40,9999,0.100000,99,594,0.000000,2,0.000000,27.439137,0.604446,99,99,0,0,0,0,0
5,59999,63,50000,9,40000,40,9999,0.100000,99,594,0.000000,4,0.000000,33.055311,0.811327,99,99,0,0,0,0,0
5,59999,64,50000,9,40000,40,9999,0.100000,99,594,0.000000,2,0.000000,23.885321,1.002054,99,99,0,0,0,0,0
5,59999,65,50000,9,40000,0,9999,0.100000,99,594,1.103380,2,0.000000,26.935677,0.327269,99,99,0,0,0,0,1
5,59999,66,50000,9,40000,40,9999,0.100000,99,594,0.000000,2,0.000000,28.447135,0.292342,99,99,0,0,0,0,0
5,59999,67,50000,9,40000,40,9999,0.100000,99,594,0.000000,1,0.000000,20.750086,1.309990,99,99,0,0,0,0,0
5,59999,68,50000,9,40000,40,9999,0.100000,99,594,0.000000,2,2.000000,29.750265,7.362782,99,99,0,0,0,0,0
5,59999,69,50000,9,40000,0,9999,0.100000,99,594,0.019814,2,0.000000,23.887912,0.085348,99,99,0,0,0,0,1
5,59999,70,50000,9,40000,41,9999,0.100000,99,594,0.000000,1,5.000000,27.299076,12.574374,99,99,0,0,0,0,0
5,59999,71,50000,9,40000,40,9999,0.100000,99,594,0.000000,2,0.000000,13.861494,1.017236,99,99,0,0,0,0,0
5,59999,72,50000,9,40000,40,9999,0.100000,99,594,0.000000,2,0.000000,32.908054,0.567619,99,99,0,0,0,0,0
5,59999,73,50000,9,40000,40,9999,0.100000,99,594,0.000000,1,2.000000,20.852452,4.856504,99,99,0,0,0,0,0
5,59999,74,50000,9,40000,41,9999,0.100000,99,594,0.000000,2,3.000000,24.979692,9.440157,99,99,0,0,0,0,0
5,59999,75,50000,9,40000,40,9999,0.100000,99,594,0.000000,2,0.000000,26.661370,2.727893,99,99,0,0,0,0,0
5,59999,76,50000,9,40000,40,9999,0.100000,99,594,0.000000,3,0.000000,12.997157,0.099631,99,99,0,0,0,0,0
5,59999,77,50000,9,40000,40,9999,0.100000,99,594,0.000000,1,0.000000,23.479742,0.108269,99,99,0,0,0,0,0
5,59999,78,50000,9,40000,41,9999,0.100000,99,594,0.000000,3,3.000000,21.081693,3.782671,99,99,0,0,0,0,0
5,59999,79,50000,9,40000,40,9999,0.100000,99,594,0.000000,2,0.000000,26.971557,0.330647,99,99,0,0,0,0,0
5,59999,80,50000,9,40000,40,9999,0.100000,99,594,0.000000,2,0.000000,33.757339,0.233725,99,99,0,0,0,0,0
5,59999,81,50000,9,40000,40,9999,0.100000,99,594,0.000000,2,0.000000,23.335599,0.093974,99,99,0,0,0,0,0
5,59999,82,50000,9,40000,41,9999,0.100000,99,594,0.000000,4,3.000000,26.867909,7.958077,99,99,0,0,0,0,0
5,59999,83,50000,9,40000,40,9999,0.100000,99,594,0.000000,2,0.000000,23.180127,0.085027,99,99,0,0,0,0,0
5,59999,84,50000,9,40000,40,9999,0.100000,99,594,0.000000,1,0.000000,16.437459,0.844817,99,99,0,0,0,0,0
5,59999,85,50000,9,40000,40,9999,0.100000,99,594,0.000000,2,0.000000,29.814764,1.893771,99,99,0,0,0,0,0
5,59999,86,50000,9,40000,40,9999,0.100000,99,594,0.000000,3,0.000000,23.345759,0.081339,99,99,0,0,0,0,0
5,59999,87,50000,9,40000,0,9999,0.100000,99,594,0.113211,1,0.000000,15.552056,0.220268,99,99,0,0,1,0,0
5,59999,88,50000,9,40000,40,9999,0.100000,99,594,0.000000,1,2.000000,21.017766,3.621185,99,99,0,0,0,0,0
5,59999,89,50000,9,40000,40,9999,0.100000,99,594,0.000000,2,2.000000,20.971544,8.634273,99,99,0,0,0,0,0
5,59999,90,50000,9,40000,41,9999,0.100000,99,594,0.000000,2,5.000000,26.996336,12.208293,99,99,0,0,0,0,0
5,59999,91,50000,9,40000,0,9999,0.100000,99,594,0.000721,1,0.000000,14.342616,0.130987,99,99,0,0,0,0,1
5,59999,92,50000,9,40000,40,9999,0.100000,99,594,0.000000,2,0.000000,27.927355,0.675647,99,99,0,0,0,0,0
5,59999,93,50000,9,40000,40,9999,0.100000,99,594,0.000000,2,0.000000,28.382296,0.056460,99,99,0,0,0,0,0
5,59999,94,50000,9,40000,40,9999,0.100000,99,594,0.000000,3,0.000000,26.924489,0.698643,99,99,0,0,0,0,0
5,59999,95,50000,9,40000,40,9999,0.100000,99,594,0.000000,1,0.000000,27.257115,0.483695,99,99,0,0,0,0,0
5,59999,96,50000,9,40000,40,9999,0.100000,99,594,0.000000,3,1.000000,26.348194,8.319466,99,99,0,0,0,0,0
5,59999,97,50000,9,40000,40,9999,0.100000,99,594,0.000000,2,0.000000,20.606830,1.029055,99,99,0,0,0,0,0
5,59999,98,50000,9,40000,40,9999,0.100000,99,594,0.000000,2,0.000000,17.511898,0.400919,99,99,0,0,0,0,0
5,59999,99,50000,9,40000,40,9999,0.100000,99,594,0.000000,2,0.000000,17.261613,0.208559,99,99,0,0,0,0,0
6,69999,0,60000,46,50000,0,9999,0.100000,99,693,0.011156,1,0.000000,13.280486,0.083646,99,99,0,0,0,0,1
6,69999,1,60000,46,50000,0,9999,0.100000,99,693,0.024951,2,0.000000,19.091943,0.242047,99,99,0,0,0,1,0
6,69999,2,60000,46,50000,40,9999,0.100000,99,693,0.000000,3,0.000000,16.048576,0.783145,99,99,0,0,0,0,0
6,69999,3,60000,46,50000,2,9999,0.100000,99,693,26.096205,3,5.000000,22.685701,5.394340,99,99,0,0,0,1,0
6,69999,4,60000,46,50000,40,9999,0.100000,99,693,0.000000,3,1.000000,25.203356,21.519489,99,99,0,0,0,0,0
6,69999,5,60000,46,50000,40,9999,0.100000,99,693,0.000000,3,1.000000,26.872858,10.884930,99,99,0,0,0,0,0
6,69999,6,60000,46,50000,40,9999,0.100000,99,693,0.000000,2,0.000000,28.061036,0.987852,99,99,0,0,0,0,0
6,69999,7,60000,46,50000,40,9999,0.100000,99,693,0.000000,3,1.000000,30.896537,6.151274,99,99,0,0,0,0,0
6,69999,8,60000,46,50000,0,9999,0.100000,99,693,0.001256,2,0.000000,28.148037,0.076760,99,99,0,0,0,0,1
6,69999,9,60000,46,50000,40,9999,0.100000,99,693,0.000000,3,2.000000,33.414358,15.040039,99,99,0,0,0,0,0
6,69999,10,60000,46,50000,40,9999,0.100000,99,693,0.000000,3,0.000000,33.524307,24.115426,99,99,0,0,0,0,0
6,69999,11,60000,46,50000,0,9999,0.100000,99,693,5.654038,2,1.000000,31.194447,8.321327,99,99,0,1,0,0,0
6,69999,12,60000,46,50000,0,9999,0.100000,99,693,0.002135,2,0.000000,23.047021,0.092308,99,99,0,0,0,0,1
6,69999,13,60000,46,50000,0,9999,0.100000,99,693,0.247894,1,0.000000,17.295886,0.299827,99,99,0,0,1,0,0
6,69999,14,60000,46,50000,0,9999,0.100000,99,693,0.190202,2,0.000000,33.221636,0.150509,99,99,0,0,1,0,0
6,69999,15,60000,46,50000,0,9999,0.100000,99,693,2.377402,2,0.000000,27.192410,1.302052,99,99,0,0,0,0,1
6,69999,16,60000,46,50000,0,9999,0.100000,99,693,0.017807,2,0.000000,27.610138,0.165225,99,99,0,0,0,0,1
6,69999,17,60000,46,50000,40,9999,0.100000,99,693,0.000000,1,0.000000,29.752060,0.262628,99,99,0,0,0,0,0
6,69999,18,60000,46,50000,0,9999,0.100000,99,693,0.020379,3,0.000000,15.925138,1.091915,99,99,0,1,0,0,0
6,69999,19,60000,46,50000,0,9999,0.100000,99,693,0.889649,2,0.000000,27.059340,0.494438,99,99,0,0,0,1,0
6,69999,20,60000,46,50000,40,9999,0.100000,99,693,0.000000,1,0.000000,29.753721,0.411630,99,99,0,0,0,0,0
6,69999,21,60000,46,50000,40,9999,0.100000,99,693,0.000000,1,0.000000,13.104263,0.103185,99,99,0,0,0,0,0
6,69999,22,60000,46,50000,0,9999,0.100000,99,693,2.138855,2,1.000000,19.906951,1.374585,99,99,0,0,0,1,0
6,69999,23,60000,46,50000,0,9999,0.100000,99,693,0.200356,2,0.000000,21.016566,0.144842,99,99,0,0,1,0,0
6,69999,24,60000,46,50000,0,9999,0.100000,99,693,0.048471,1,0.000000,30.101171,0.166427,99,99,0,0,1,0,0
6,69999,25,60000,46,50000,40,9999,0.100000,99,693,0.000000,2,0.000000,20.358968,0.936546,99,99,0,0,0,0,0
6,69999,26,60000,46,50000,40,9999,0.100000,99,693,0.000000,2,0.000000,21.318542,0.179692,99,99,0,0,0,0,0
6,69999,27,60000,46,50000,0,9999,0.100000,99,693,0.003815,2,0.000000,21.264290,0.112786,99,99,0,0,1,0,0
6,69999,28,60000,46,50000,40,9999,0.100000,99,693,0.000000,3,0.000000,27.785302,0.139582,99,99,0,0,0,0,0
6,69999,29,60000,46,50000,40,9999,0.100000,99,693,0.000000,2,0.000000,21.570494,0.166839,99,99,0,0,0,0,0
6,69999,30,60000,46,50000,0,9999,0.100000,99,693,0.591743,2,0.000000,32.819912,0.526561,99,99,0,1,0,0,0
6,69999,31,60000,46,50000,0,9999,0.100000,99,693,3.188478,4,0.000000,25.869849,1.485780,99,99,0,1,0,0,0
6,69999,32,60000,46,50000,40,9999,0.100000,99,693,0.000000,3,0.000000,26.757742,1.211657,99,99,0,0,0,0,0
6,69999,33,60000,46,50000,0,9999,0.100000,99,693,1.207890,3,0.000000,28.486222,0.538027,99,99,0,0,0,1,0
6,69999,34,60000,46,50000,40,9999,0.100000,99,693,0.000000,3,0.000000,28.619690,0.994869,99,99,0,0,0,0,0
6,69999,35,60000,46,50000,40,9999,0.100000,99,693,0.000000,3,0.000000,18.296922,1.263280,99,99,0,0,0,0,0
6,69999,36,60000,46,50000,0,9999,0.100000,99,693,3.114714,1,0.000000,22.186037,0.747103,99,99,0,0,1,0,0
6,69999,37,60000,46,50000,0,9999,0.100000,99,693,0.103301,2,0.000000,21.120763,0.145178,99,99,0,0,0,1,0
6,69999,38,60000,46,50000,41,9999,0.100000,99,693,0.000000,3,3.000000,19.353777,3.483422,99,99,0,0,0,0,0
6,69999,39,60000,46,50000,0,9999,0.100000,99,693,0.018183,3,0.000000,23.615632,0.147077,99,99,0,0,0,0,1
6,69999,40,60000,46,50000,0,9999,0.100000,99,693,0.108922,4,0.000000,31.913412,0.166551,99,99,0,0,1,0,0
6,69999,41,60000,46,50000,40,9999,0.100000,99,693,0.000000,2,0.000000,27.390711,1.445953,99,99,0,0,0,0,0
6,69999,42,60000,46,50000,40,9999,0.100000,99,693,0.000000,4,1.000000,27.092967,10.495302,99,99,0,0,0,0,0
6,69999,43,60000,46,50000,40,9999,0.100000,99,693,0.000000,3,0.000000,21.201648,0.148222,99,99,0,0,0,0,0
6,69999,44,60000,46,50000,40,9999,0.100000,99,693,0.000000,1,0.000000,27.025060,2.938569,99,99,0,0,0,0,0
6,69999,45,60000,46,50000,40,9999,0.100000,99,693,0.000000,4,2.000000,33.447570,18.709675,99,99,0,0,0,0,0
6,69999,46,60000,4,50000,42,9999,0.100000,99,693,0.000000,3,5.000000,22.892143,5.414825,99,99,0,0,0,0,0
6,69999,47,60000,46,50000,40,9999,0.100000,99,693,0.000000,2,1.000000,26.567728,1.424157,99,99,0,0,0,0,0
6,69999,48,60000,46,50000,0,9999,0.100000,99,693,0.001081,1,0.000000,30.080961,0.072523,99,99,0,0,0,0,1
6,69999,49,60000,46,50000,40,9999,0.100000,99,693,0.000000,4,0.000000,33.036991,0.243908,99,99,0,0,0,0,0
6,69999,50,60000,46,50000,40,9999,0.100000,99,693,0.000000,2,1.000000,29.537562,8.480373,99,99,0,0,0,0,0
6,69999,51,60000,46,50000,0,9999,0.100000,99,693,3.897957,4,1.000000,25.924049,1.872910,99,99,0,1,0,0,0
6,69999,52,60000,46,50000,40,9999,0.100000,99,693,0.000000,3,1.000000,32.877917,14.317319,99,99,0,0,0,0,0
6,69999,53,60000,46,50000,0,9999,0.100000,99,693,15.519838,2,1.000000,25.782348,6.280386,99,99,0,1,0,0,0
6,69999,54,60000,46,50000,40,9999,0.100000,99,693,0.000000,2,0.000000,28.344341,0.594027,99,99,0,0,0,0,0
6,69999,55,60000,46,50000,40,9999,0.100000,99,693,0.000000,1,0.000000,33.929499,0.232925,99,99,0,0,0,0,0
6,69999,56,60000,46,50000,40,9999,0.100000,99,693,0.000000,2,0.000000,27.462375,0.081437,99,99,0,0,0,0,0
6,69999,57,60000,46,50000,40,9999,0.100000,99,693,0.000000,3,0.000000,28.286379,1.569150,99,99,0,0,0,0,0
6,69999,58,60000,46,50000,0,9999,0.100000,99,693,0.001319,2,0.000000,18.976979,0.083395,99,99,0,0,0,1,0
6,69999,59,60000,46,50000,40,9999,0.100000,99,693,0.000000,3,0.000000,26.690271,1.267653,99,99,0,0,0,0,0
6,69999,60,60000,46,50000,40,9999,0.100000,99,693,0.000000,3,1.000000,26.207479,3.641292,99,99,0,0,0,0,0
6,69999,61,60000,46,50000,40,9999,0.100000,99,693,0.000000,3,0.000000,28.840823,7.738531,99,99,0,0,0,0,0
6,69999,62,60000,46,50000,40,9999,0.100000,99,693,0.000000,2,0.000000,27.705063,1.136030,99,99,0,0,0,0,0
6,69999,63,60000,46,50000,40,9999,0.100000,99,693,0.000000,4,0.000000,33.323064,0.823207,99,99,0,0,0,0,0
6,69999,64,60000,46,50000,40,9999,0.100000,99,693,0.000000,2,0.000000,23.112097,1.009166,99,99,0,0,0,0,0
6,69999,65,60000,46,50000,0,9999,0.100000,99,693,4.222929,2,0.000000,27.142884,0.726793,99,99,0,0,0,0,1
6,69999,66,60000,46,50000,40,9999,0.100000,99,693,0.000000,2,0.000000,28.434288,0.258755,99,99,0,0,0,0,0
6,69999,67,60000,46,50000,40,9999,0.100000,99,693,0.000000,1,0.000000,20.067998,1.437607,99,99,0,0,0,0,0
6,69999,68,60000,46,50000,40,9999,0.100000,99,693,0.000000,2,1.000000,28.103051,8.184774,99,99,0,0,0,0,0
6,69999,69,60000,46,50000,40,9999,0.100000,99,693,0.000000,2,0.000000,23.883553,0.084611,99,99,0,0,0,0,0
6,69999,70,60000,46,50000,42,9999,0.100000,99,693,0.000000,2,6.000000,27.563579,16.070174,99,99,0,0,0,0,0
6,69999,71,60000,46,50000,40,9999,0.100000,99,693,0.000000,2,0.000000,14.620531,1.015660,99,99,0,0,0,0,0
6,69999,72,60000,46,50000,40,9999,0.100000,99,693,0.000000,2,0.000000,33.012426,0.592478,99,99,0,0,0,0,0
6,69999,73,60000,46,50000,41,9999,0.100000,99,693,0.000000,1,3.000000,19.781384,5.299786,99,99,0,0,0,0,0
6,69999,74,60000,46,50000,40,9999,0.100000,99,693,0.000000,2,0.000000,24.213028,1.020371,99,99,0,0,0,0,0
6,69999,75,60000,46,50000,40,9999,0.100000,99,693,0.000000,2,0.000000,26.979778,2.964740,99,99,0,0,0,0,0
6,69999,76,60000,46,50000,40,9999,0.100000,99,693,0.000000,3,0.000000,12.994453,0.098563,99,99,0,0,0,0,0
6,69999,77,60000,46,50000,40,9999,0.100000,99,693,0.000000,1,0.000000,23.481692,0.110291,99,99,0,0,0,0,0
6,69999,78,60000,46,50000,42,9999,0.100000,99,693,0.000000,4,5.000000,23.358406,5.658969,99,99,0,0,0,0,0
6,69999,79,60000,46,50000,40,9999,0.100000,99,693,0.000000,2,0.000000,27.159260,0.463369,99,99,0,0,0,0,0
6,69999,80,60000,46,50000,40,9999,0.100000,99,693,0.000000,2,0.000000,33.758299,0.347362,99,99,0,0,0,0,0
6,69999,81,60000,46,50000,40,9999,0.100000,99,693,0.000000,2,0.000000,23.337959,0.092649,99,99,0,0,0,0,0
6,69999,82,60000,46,50000,40,9999,0.100000,99,693,0.000000,4,0.000000,29.849840,0.116462,99,99,0,0,0,0,0
6,69999,83,60000,46,50000,42,9999,0.100000,99,693,0.000000,2,6.000000,23.182859,12.420092,99,99,0,0,0,0,0
6,69999,84,60000,46,50000,40,9999,0.100000,99,693,0.000000,1,0.000000,16.338277,1.166267,99,99,0,0,0,0,0
6,69999,85,60000,46,50000,40,9999,0.100000,99,693,0.000000,2,0.000000,29.836926,0.391989,99,99,0,0,0,0,0
6,69999,86,60000,46,50000,40,9999,0.100000,99,693,0.000000,3,0.000000,23.342293,0.079891,99,99,0,0,0,0,0
6,69999,87,60000,46,50000,0,9999,0.100000,99,693,0.431188,1,0.000000,15.527235,0.349247,99,99,0,0,1,0,0
6,69999,88,60000,46,50000,42,9999,0.135000,99,693,0.000000,1,5.000000,23.121481,5.398470,99,99,0,0,0,0,0
6,69999,89,60000,46,50000,43,9999,0.100000,99,693,0.000000,2,8.000000,22.114652,9.790459,99,99,0,0,0,0,0
6,69999,90,60000,46,50000,41,9999,0.100000,99,693,0.000000,2,5.000000,27.278341,11.788012,99,99,0,0,0,0,0
6,69999,91,60000,46,50000,0,9999,0.100000,99,693,0.041201,1,0.000000,14.342714,0.125914,99,99,0,0,0,0,1
6,69999,92,60000,46,50000,40,9999,0.100000,99,693,0.000000,2,0.000000,28.423385,0.693971,99,99,0,0,0,0,0
6,69999,93,60000,46,50000,40,9999,0.100000,99,693,0.000000,2,0.000000,28.381388,0.060292,99,99,0,0,0,0,0
6,69999,94,60000,46,50000,40,9999,0.100000,99,693,0.000000,3,0.000000,26.985322,1.853390,99,99,0,0,0,0,0
6,69999,95,60000,46,50000,40,9999,0.100000,99,693,0.000000,1,0.000000,27.529580,0.658883,99,99,0,0,0,0,0
6,69999,96,60000,46,50000,40,9999,0.100000,99,693,0.000000,3,1.000000,25.370117,22.553878,99,99,0,0,0,0,0
6,69999,97,60000,46,50000,40,9999,0.100000,99,693,0.000000,2,2.000000,19.923055,4.206105,99,99,0,0,0,0,0
6,69999,98,60000,46,50000,40,9999,0.100000,99,693,0.000000,2,0.000000,17.376714,0.459684,99,99,0,0,0,0,0
6,69999,99,60000,46,50000,40,9999,0.100000,99,693,0.000000,2,0.000000,17.218260,0.289546,99,99,0,0,0,0,0
7,79999,0,70000,3,60000,0,9999,0.100000,99,792,0.011068,1,0.000000,13.276595,0.082860,99,99,0,0,0,0,1
7,79999,1,70000,3,60000,0,9999,0.100000,99,792,0.006382,2,0.000000,19.109412,0.186523,99,99,0,0,0,1,0
7,79999,2,70000,3,60000,40,9999,0.100000,99,792,0.000000,3,0.000000,16.002072,0.917887,99,99,0,0,0,0,0
7,79999,3,70000,53,60000,0,9999,0.100000,99,792,0.258584,4,0.000000,26.645740,0.394273,99,99,0,0,0,1,0
7,79999,4,70000,3,60000,40,9999,0.100000,99,792,0.000000,4,0.000000,26.073077,2.953243,99,99,0,0,0,0,0
7,79999,5,70000,3,60000,40,9999,0.100000,99,792,0.000000,3,1.000000,26.273486,8.615386,99,99,0,0,0,0,0
7,79999,6,70000,3,60000,40,9999,0.100000,99,792,0.000000,2,0.000000,28.753467,1.684837,99,99,0,0,0,0,0
7,79999,7,70000,3,60000,40,9999,0.100000,99,792,0.000000,3,3.000000,32.400124,6.055904,99,99,0,0,0,0,0
7,79999,8,70000,3,60000,0,9999,0.100000,99,792,0.006151,2,0.000000,28.147496,0.084243,99,99,0,0,0,0,1
7,79999,9,70000,3,60000,40,9999,0.100000,99,792,0.000000,3,1.000000,32.777648,16.921165,99,99,0,0,0,0,0
7,79999,10,70000,3,60000,40,9999,0.100000,99,792,0.000000,3,1.000000,33.393713,24.600638,99,99,0,0,0,0,0
7,79999,11,70000,3,60000,40,9999,0.100000,99,792,0.000000,2,3.000000,32.630118,7.445111,99,99,0,0,0,0,0
7,79999,12,70000,3,60000,0,9999,0.100000,99,792,0.001986,2,0.000000,23.050581,0.093846,99,99,0,0,0,0,1
7,79999,13,70000,3,60000,0,9999,0.100000,99,792,0.154309,1,0.000000,17.125852,0.202405,99,99,0,0,1,0,0
7,79999,14,70000,3,60000,0,9999,0.100000,99,792,0.235311,2,0.000000,33.266108,0.149187,99,99,0,0,1,0,0
7,79999,15,70000,3,60000,0,9999,0.100000,99,792,1.722086,2,0.000000,27.424067,1.248515,99,99,0,0,0,0,1
7,79999,16,70000,3,60000,0,9999,0.100000,99,792,0.026682,2,0.000000,27.567058,0.100107,99,99,0,0,0,0,1
7,79999,17,70000,3,60000,40,9999,0.100000,99,792,0.000000,1,0.000000,29.838567,0.312379,99,99,0,0,0,0,0
7,79999,18,70000,3,60000,0,9999,0.100000,99,792,0.840363,3,0.000000,15.387951,2.139216,99,99,0,1,0,0,0
7,79999,19,70000,3,60000,0,9999,0.100000,99,792,1.233715,2,0.000000,27.457472,0.319625,99,99,0,0,0,1,0
7,79999,20,70000,3,60000,40,9999,0.100000,99,792,0.000000,1,0.000000,29.767927,0.632592,99,99,0,0,0,0,0
7,79999,21,70000,3,60000,40,9999,0.100000,99,792,0.000000,1,0.000000,13.101285,0.105716,99,99,0,0,0,0,0
7,79999,22,70000,3,60000,40,9999,0.100000,99,792,0.000000,2,0.000000,20.134707,0.153601,99,99,0,0,0,0,0
7,79999,23,70000,3,60000,0,9999,0.100000,99,792,0.004904,2,0.000000,21.000546,0.133039,99,99,0,0,1,0,0
7,79999,24,70000,3,60000,0,9999,0.100000,99,792,0.275590,1,0.000000,30.183768,0.176251,99,99,0,0,1,0,0
7,79999,25,70000,3,60000,0,9999,0.100000,99,792,0.011263,2,0.000000,20.383397,0.106792,99,99,0,0,0,1,0
7,79999,26,70000,3,60000,0,9999,0.100000,99,792,0.013141,2,0.000000,21.331327,0.115687,99,99,0,0,0,1,0
7,79999,27,70000,3,60000,0,9999,0.100000,99,792,0.027752,2,0.000000,21.269724,0.106305,99,99,0,0,1,0,0
7,79999,28,70000,3,60000,40,9999,0.100000,99,792,0.000000,3,0.000000,27.745885,0.084545,99,99,0,0,0,0,0
7,79999,29,70000,3,60000,40,9999,0.100000,99,792,0.000000,2,0.000000,21.584043,0.144067,99,99,0,0,0,0,0
7,79999,30,70000,3,60000,0,9999,0.100000,99,792,0.975127,2,0.000000,32.945631,0.548609,99,99,0,1,0,0,0
7,79999,31,70000,3,60000,0,9999,0.100000,99,792,3.465606,4,0.000000,25.473007,1.410897,99,99,0,1,0,0,0
7,79999,32,70000,3,60000,40,9999,0.100000,99,792,0.000000,3,0.000000,27.194631,0.864264,99,99,0,0,0,0,0
7,79999,33,70000,3,60000,0,9999,0.100000,99,792,1.415566,3,0.000000,28.953839,1.205591,99,99,0,0,0,1,0
7,79999,34,70000,3,60000,40,9999,0.100000,99,792,0.000000,3,0.000000,28.931254,1.675501,99,99,0,0,0,0,0
7,79999,35,70000,3,60000,40,9999,0.100000,99,792,0.000000,3,0.000000,17.464107,1.333667,99,99,0,0,0,0,0
7,79999,36,70000,3,60000,0,9999,0.100000,99,792,0.023240,1,0.000000,22.792659,0.141363,99,99,0,0,1,0,0
7,79999,37,70000,3,60000,40,9999,0.100000,99,792,0.000000,2,0.000000,21.132361,0.879148,99,99,0,0,0,0,0
7,79999,38,70000,3,60000,40,9999,0.100000,99,792,0.000000,3,0.000000,19.811521,0.237227,99,99,0,0,0,0,0
7,79999,39,70000,3,60000,0,9999,0.100000,99,792,0.016304,3,0.000000,23.612058,0.140305,99,99,0,0,0,0,1
7,79999,40,70000,3,60000,0,9999,0.100000,99,792,0.366544,4,0.000000,31.936920,0.188495,99,99,0,0,1,0,0
7,79999,41,70000,3,60000,40,9999,0.100000,99,792,0.000000,2,0.000000,27.540478,0.994905,99,99,0,0,0,0,0
7,79999,42,70000,3,60000,40,9999,0.100000,99,792,0.000000,5,0.000000,27.392040,1.362756,99,99,0,0,0,0,0
7,79999,43,70000,3,60000,40,9999,0.100000,99,792,0.000000,3,0.000000,21.203048,0.190112,99,99,0,0,0,0,0
7,79999,44,70000,3,60000,40,9999,0.100000,99,792,0.000000,1,0.000000,27.338591,1.855421,99,99,0,0,0,0,0
7,79999,45,70000,3,60000,0,9999,0.100000,99,792,0.095543,4,1.000000,31.850837,2.299302,99,99,0,0,1,0,0
7,79999,46,70000,3,60000,40,9999,0.100000,99,792,0.000000,3,0.000000,26.818273,0.395892,99,99,0,0,0,0,0
7,79999,47,70000,3,60000,40,9999,0.100000,99,792,0.000000,2,0.000000,27.090811,0.933406,99,99,0,0,0,0,0
7,79999,48,70000,3,60000,0,9999,0.100000,99,792,0.001550,1,0.000000,30.081909,0.072479,99,99,0,0,0,0,1
7,79999,49,70000,3,60000,40,9999,0.100000,99,792,0.000000,4,0.000000,33.098487,0.255901,99,99,0,0,0,0,0
7,79999,50,70000,3,60000,40,9999,0.100000,99,792,0.000000,2,0.000000,28.820265,5.765955,99,99,0,0,0,0,0
7,79999,51,70000,3,60000,0,9999,0.100000,99,792,0.170424,5,0.000000,26.466934,0.165129,99,99,0,1,0,0,0
7,79999,52,70000,3,60000,40,9999,0.100000,99,792,0.000000,3,2.000000,33.107948,12.635763,99,99,0,0,0,0,0
7,79999,53,70000,3,60000,0,9999,0.100000,99,792,1.583955,3,0.000000,26.762345,1.231462,99,99,0,1,0,0,0
7,79999,54,70000,3,60000,40,9999,0.100000,99,792,0.000000,2,1.000000,28.767595,2.338967,99,99,0,0,0,0,0
7,79999,55,70000,3,60000,40,9999,0.100000,99,792,0.000000,1,0.000000,33.929425,0.231111,99,99,0,0,0,0,0
7,79999,56,70000,3,60000,40,9999,0.100000,99,792,0.000000,2,0.000000,27.461720,0.104025,99,99,0,0,0,0,0
7,79999,57,70000,3,60000,40,9999,0.135000,99,792,0.000000,3,0.000000,28.688860,2.115745,99,99,0,0,0,0,0
7,79999,58,70000,3,60000,0,9999,0.100000,99,792,0.000238,2,0.000000,18.976663,0.082844,99,99,0,0,0,1,0
7,79999,59,70000,3,60000,0,9999,0.100000,99,792,0.148966,3,0.000000,27.120520,0.068588,99,99,0,0,0,0,1
7,79999,60,70000,3,60000,40,9999,0.100000,99,792,0.000000,3,0.000000,25.354091,6.271176,99,99,0,0,0,0,0
7,79999,61,70000,3,60000,40,9999,0.100000,99,792,0.000000,3,1.000000,28.969796,14.617997,99,99,0,0,0,0,0
7,79999,62,70000,3,60000,41,9999,0.100000,99,792,0.000000,2,5.000000,28.204475,11.267621,99,99,0,0,0,0,0
7,79999,63,70000,3,60000,40,9999,0.100000,99,792,0.000000,4,0.000000,33.618616,0.909734,99,99,0,0,0,0,0
7,79999,64,70000,3,60000,40,9999,0.100000,99,792,0.000000,2,0.000000,22.345184,0.970819,99,99,0,0,0,0,0
7,79999,65,70000,3,60000,40,9999,0.100000,99,792,0.000000,2,0.000000,27.470612,0.166256,99,99,0,0,0,0,0
7,79999,66,70000,3,60000,40,9999,0.100000,99,792,0.000000,2,0.000000,28.403394,1.841932,99,99,0,0,0,0,0
7,79999,67,70000,3,60000,40,9999,0.100000,99,792,0.000000,1,0.000000,20.103929,0.854490,99,99,0,0,0,0,0
7,79999,68,70000,3,60000,40,9999,0.100000,99,792,0.000000,2,1.000000,28.997466,3.465055,99,99,0,0,0,0,0
7,79999,69,70000,3,60000,40,9999,0.100000,99,792,0.000000,2,0.000000,23.879566,0.082904,99,99,0,0,0,0,0
7,79999,70,70000,3,60000,40,9999,0.100000,99,792,0.000000,3,0.000000,28.195765,0.504207,99,99,0,0,0,0,0
7,79999,71,70000,3,60000,40,9999,0.100000,99,792,0.000000,2,0.000000,15.395324,1.001568,99,99,0,0,0,0,0
7,79999,72,70000,3,60000,40,9999,0.100000,99,792,0.000000,2,0.000000,33.137977,0.612742,99,99,0,0,0,0,0
7,79999,73,70000,3,60000,40,9999,0.100000,99,792,0.000000,2,0.000000,17.953966,0.239361,99,99,0,0,0,0,0
7,79999,74,70000,3,60000,40,9999,0.100000,99,792,0.000000,2,0.000000,23.433014,1.005436,99,99,0,0,0,0,0
7,79999,75,70000,3,60000,40,9999,0.100000,99,792,0.000000,2,0.000000,27.368832,1.821190,99,99,0,0,0,0,0
7,79999,76,70000,3,60000,40,9999,0.100000,99,792,0.000000,3,0.000000,12.991616,0.097566,99,99,0,0,0,0,0
7,79999,77,70000,3,60000,40,9999,0.100000,99,792,0.000000,1,0.000000,23.483628,0.112378,99,99,0,0,0,0,0
7,79999,78,70000,3,60000,40,9999,0.100000,99,792,0.000000,4,0.000000,27.213312,0.781479,99,99,0,0,0,0,0
7,79999,79,70000,3,60000,40,9999,0.100000,99,792,0.000000,2,0.000000,27.372382,0.384876,99,99,0,0,0,0,0
7,79999,80,70000,3,60000,40,9999,0.100000,99,792,0.000000,2,0.000000,33.728461,0.234959,99,99,0,0,0,0,0
7,79999,81,70000,3,60000,40,9999,0.100000,99,792,0.000000,2,0.000000,23.340353,0.091834,99,99,0,0,0,0,0
7,79999,82,70000,3,60000,40,9999,0.100000,99,792,0.000000,4,0.000000,29.849665,0.128297,99,99,0,0,0,0,0
7,79999,83,70000,3,60000,40,9999,0.100000,99,792,0.000000,3,0.000000,23.185665,0.084119,99,99,0,0,0,0,0
7,79999,84,70000,3,60000,40,9999,0.100000,99,792,0.000000,1,0.000000,16.247134,0.349323,99,99,0,0,0,0,0
7,79999,85,70000,3,60000,40,9999,0.100000,99,792,0.000000,2,0.000000,29.842373,0.469442,99,99,0,0,0,0,0
7,79999,86,70000,3,60000,40,9999,0.100000,99,792,0.000000,3,0.000000,23.339128,0.077401,99,99,0,0,0,0,0
7,79999,87,70000,3,60000,0,9999,0.100000,99,792,0.162279,1,0.000000,15.458791,0.211677,99,99,0,0,1,0,0
7,79999,88,70000,3,60000,40,9999,0.100000,99,792,0.000000,2,0.000000,27.009939,0.470758,99,99,0,0,0,0,0
7,79999,89,70000,3,60000,40,9999,0.100000,99,792,0.000000,3,1.000000,28.595037,6.165366,99,99,0,0,0,0,0
7,79999,90,70000,3,60000,40,9999,0.100000,99,792,0.000000,2,0.000000,27.704579,0.332338,99,99,0,0,0,0,0
7,79999,91,70000,3,60000,0,9999,0.100000,99,792,0.429327,1,0.000000,14.328592,0.228114,99,99,0,0,0,0,1
7,79999,92,70000,3,60000,40,9999,0.100000,99,792,0.000000,2,1.000000,28.859032,1.514790,99,99,0,0,0,0,0
7,79999,93,70000,3,60000,40,9999,0.100000,99,792,0.000000,2,0.000000,28.381309,0.084551,99,99,0,0,0,0,0
7,79999,94,70000,3,60000,40,9999,0.100000,99,792,0.000000,3,0.000000,27.309421,1.649916,99,99,0,0,0,0,0
7,79999,95,70000,3,60000,40,9999,0.100000,99,792,0.000000,1,0.000000,27.991380,0.364668,99,99,0,0,0,0,0
7,79999,96,70000,3,60000,40,9999,0.100000,99,792,0.000000,3,0.000000,26.843407,1.189594,99,99,0,0,0,0,0
7,79999,97,70000,3,60000,40,9999,0.100000,99,792,0.000000,2,0.000000,22.770710,0.133390,99,99,0,0,0,0,0
7,79999,98,70000,3,60000,40,9999,0.100000,99,792,0.000000,2,0.000000,17.168058,0.356919,99,99,0,0,0,0,0
7,79999,99,70000,3,60000,40,9999,0.100000,99,792,0.000000,2,0.000000,17.078816,0.191320,99,99,0,0,0,0,0
8,89999,0,80000,31,70000,0,9999,0.100000,99,891,0.033237,1,0.000000,13.272998,0.087715,99,99,0,0,0,0,1
8,89999,1,80000,31,70000,0,9999,0.100000,99,891,0.021926,2,0.000000,19.109301,0.220451,99,99,0,0,0,1,0
8,89999,2,80000,31,70000,40,9999,0.100000,99,891,0.000000,3,0.000000,15.967653,0.916748,99,99,0,0,0,0,0
8,89999,3,80000,31,70000,0,9999,0.100000,99,891,0.113745,4,0.000000,26.757851,0.432146,99,99,0,0,0,1,0
8,89999,4,80000,31,70000,40,9999,0.100000,99,891,0.000000,4,0.000000,26.613154,6.128433,99,99,0,0,0,0,0
8,89999,5,80000,31,70000,40,9999,0.100000,99,891,0.000000,3,0.000000,27.359000,1.472127,99,99,0,0,0,0,0
8,89999,6,80000,31,70000,40,9999,0.100000,99,891,0.000000,2,0.000000,29.482505,0.496347,99,99,0,0,0,0,0
8,89999,7,80000,31,70000,0,9999,0.100000,99,891,20.854938,3,3.000000,35.570912,6.502281,99,99,0,1,0,0,0
8,89999,8,80000,31,70000,0,9999,0.100000,99,891,0.006303,2,0.000000,28.145966,0.084121,99,99,0,0,0,0,1
8,89999,9,80000,31,70000,40,9999,0.100000,99,891,0.000000,3,3.000000,33.427968,7.682001,99,99,0,0,0,0,0
8,89999,10,80000,31,70000,40,9999,0.100000,99,891,0.000000,3,2.000000,33.637781,6.350652,99,99,0,0,0,0,0
8,89999,11,80000,31,70000,0,9999,0.100000,99,891,20.782935,2,2.000000,35.763327,5.178079,99,99,0,1,0,0,0
8,89999,12,80000,31,70000,0,9999,0.100000,99,891,0.002670,2,0.000000,23.053935,0.093917,99,99,0,0,0,0,1
8,89999,13,80000,31,70000,0,9999,0.100000,99,891,0.120456,1,0.000000,17.056615,0.150716,99,99,0,0,1,0,0
8,89999,14,80000,31,70000,0,9999,0.100000,99,891,0.359337,2,3.000000,33.319056,4.555366,99,99,0,0,1,0,0
8,89999,15,80000,31,70000,0,9999,0.100000,99,891,0.206033,2,0.000000,27.831126,0.685590,99,99,0,0,0,0,1
8,89999,16,80000,31,70000,0,9999,0.100000,99,891,0.035091,2,0.000000,27.544388,0.102702,99,99,0,0,0,0,1
8,89999,17,80000,31,70000,40,9999,0.100000,99,891,0.000000,1,0.000000,29.915043,0.296393,99,99,0,0,0,0,0
8,89999,18,80000,31,70000,40,9999,0.100000,99,891,0.000000,3,0.000000,14.859516,0.642560,99,99,0,0,0,0,0
8,89999,19,80000,31,70000,0,9999,0.100000,99,891,0.793555,2,0.000000,27.677764,0.237544,99,99,0,0,0,1,0
8,89999,20,80000,31,70000,40,9999,0.100000,99,891,0.000000,1,0.000000,29.751036,0.839945,99,99,0,0,0,0,0
8,89999,21,80000,31,70000,40,9999,0.100000,99,891,0.000000,1,0.000000,13.098371,0.109626,99,99,0,0,0,0,0
8,89999,22,80000,31,70000,0,9999,0.100000,99,891,0.007231,2,0.000000,20.134251,0.131687,99,99,0,0,0,1,0
8,89999,23,80000,31,70000,0,9999,0.100000,99,891,0.005070,2,0.000000,20.999422,0.133010,99,99,0,0,1,0,0
8,89999,24,80000,31,70000,0,9999,0.100000,99,891,0.023712,1,0.000000,30.253847,0.156434,99,99,0,0,1,0,0
8,89999,25,80000,31,70000,40,9999,0.100000,99,891,0.000000,2,0.000000,20.382978,0.107062,99,99,0,0,0,0,0
8,89999,26,80000,31,70000,0,9999,0.100000,99,891,0.013032,2,0.000000,21.331208,0.114585,99,99,0,0,0,1,0
8,89999,27,80000,31,70000,0,9999,0.100000,99,891,0.021560,2,0.000000,21.281719,0.097795,99,99,0,0,1,0,0
8,89999,28,80000,31,70000,40,9999,0.100000,99,891,0.000000,3,0.000000,27.724740,0.080297,99,99,0,0,0,0,0
8,89999,29,80000,31,70000,40,9999,0.100000,99,891,0.000000,2,0.000000,21.584155,0.145679,99,99,0,0,0,0,0
8,89999,30,80000,31,70000,0,9999,0.100000,99,891,10.895030,2,2.000000,33.119091,8.110886,99,99,0,1,0,0,0
8,89999,31,80000,15,70000,40,9999,0.100000,99,891,0.000000,4,1.000000,25.695608,4.998272,99,99,0,0,0,0,0
8,89999,32,80000,31,70000,40,9999,0.100000,99,891,0.000000,3,0.000000,27.600938,0.476428,99,99,0,0,0,0,0
8,89999,33,80000,31,70000,40,9999,0.100000,99,891,0.000000,3,0.000000,29.775279,0.754709,99,99,0,0,0,0,0
8,89999,34,80000,31,70000,40,9999,0.100000,99,891,0.000000,3,0.000000,29.344725,0.958776,99,99,0,0,0,0,0
8,89999,35,80000,31,70000,40,9999,0.100000,99,891,0.000000,3,0.000000,16.508013,0.982349,99,99,0,0,0,0,0
8,89999,36,80000,31,70000,0,9999,0.100000,99,891,0.024227,1,0.000000,22.787995,0.141839,99,99,0,0,1,0,0
8,89999,37,80000,31,70000,40,9999,0.100000,99,891,0.000000,2,0.000000,21.131923,0.120670,99,99,0,0,0,0,0
8,89999,38,80000,31,70000,40,9999,0.100000,99,891,0.000000,3,0.000000,19.807490,0.238532,99,99,0,0,0,0,0
8,89999,39,80000,31,70000,0,9999,0.100000,99,891,0.017369,3,0.000000,23.608980,0.137903,99,99,0,0,0,0,1
8,89999,40,80000,31,70000,0,9999,0.100000,99,891,0.584429,4,0.000000,32.014020,0.456724,99,99,0,0,1,0,0
8,89999,41,80000,31,70000,40,9999,0.100000,99,891,0.000000,2,0.000000,27.942467,0.508669,99,99,0,0,0,0,0
8,89999,42,80000,31,70000,40,9999,0.100000,99,891,0.000000,5,0.000000,27.818543,1.012617,99,99,0,0,0,0,0
8,89999,43,80000,31,70000,40,9999,0.100000,99,891,0.000000,3,0.000000,21.220124,0.187615,99,99,0,0,0,0,0
8,89999,44,80000,31,70000,40,9999,0.100000,99,891,0.000000,1,0.000000,27.697811,1.617964,99,99,0,0,0,0,0
8,89999,45,80000,31,70000,0,9999,0.100000,99,891,1.230279,4,0.000000,31.830884,0.332148,99,99,0,0,1,0,0
8,89999,46,80000,31,70000,40,9999,0.100000,99,891,0.000000,3,0.000000,26.943593,0.190759,99,99,0,0,0,0,0
8,89999,47,80000,31,70000,42,9999,0.100000,99,891,0.000000,2,6.000000,27.498156,14.415568,99,99,0,0,0,0,0
8,89999,48,80000,31,70000,0,9999,0.100000,99,891,0.000680,1,0.000000,30.082934,0.070391,99,99,0,0,0,0,1
8,89999,49,80000,31,70000,40,9999,0.100000,99,891,0.000000,4,3.000000,33.169759,3.790509,99,99,0,0,0,0,0
8,89999,50,80000,31,70000,40,9999,0.100000,99,891,0.000000,2,0.000000,28.904128,4.153653,99,99,0,0,0,0,0
8,89999,51,80000,31,70000,0,9999,0.100000,99,891,0.304744,5,0.000000,26.438133,0.234715,99,99,0,1,0,0,0
8,89999,52,80000,31,70000,40,9999,0.100000,99,891,0.000000,3,0.000000,32.180959,0.398937,99,99,0,0,0,0,0
8,89999,53,80000,31,70000,0,9999,0.100000,99,891,0.100009,3,0.000000,27.153133,1.179169,99,99,0,1,0,0,0
8,89999,54,80000,31,70000,0,9999,0.100000,99,891,0.056031,2,0.000000,29.907047,0.871349,99,99,0,0,0,1,0
8,89999,55,80000,31,70000,40,9999,0.100000,99,891,0.000000,1,0.000000,33.929423,0.248961,99,99,0,0,0,0,0
8,89999,56,80000,31,70000,40,9999,0.100000,99,891,0.000000,2,1.000000,27.460239,2.130884,99,99,0,0,0,0,0
8,89999,57,80000,31,70000,41,9999,0.100000,99,891,0.000000,3,4.000000,29.628504,8.992903,99,99,0,0,0,0,0
8,89999,58,80000,31,70000,0,9999,0.100000,99,891,0.000433,2,0.000000,18.976425,0.085553,99,99,0,0,0,1,0
8,89999,59,80000,31,70000,0,9999,0.100000,99,891,0.115458,3,0.000000,27.139845,0.167390,99,99,0,0,0,0,1
8,89999,60,80000,31,70000,0,9999,0.100000,99,891,5.441869,3,2.000000,25.830725,2.799872,99,99,0,1,0,0,0
8,89999,61,80000,31,70000,40,9999,0.100000,99,891,0.000000,3,0.000000,28.911455,14.465768,99,99,0,0,0,0,0
8,89999,62,80000,31,70000,40,9999,0.100000,99,891,0.000000,3,0.000000,28.460939,0.294280,99,99,0,0,0,0,0
8,89999,63,80000,31,70000,40,9999,0.100000,99,891,0.000000,4,0.000000,33.981820,1.104946,99,99,0,0,0,0,0
8,89999,64,80000,31,70000,40,9999,0.100000,99,891,0.000000,2,0.000000,21.590955,0.946670,99,99,0,0,0,0,0
8,89999,65,80000,31,70000,40,9999,0.100000,99,891,0.000000,2,0.000000,27.480819,0.110605,99,99,0,0,0,0,0
8,89999,66,80000,31,70000,40,9999,0.100000,99,891,0.000000,2,0.000000,28.352501,0.189046,99,99,0,0,0,0,0
8,89999,67,80000,31,70000,40,9999,0.100000,99,891,0.000000,1,0.000000,20.272458,0.834070,99,99,0,0,0,0,0
8,89999,68,80000,31,70000,40,9999,0.100000,99,891,0.000000,2,0.000000,28.810711,0.675467,99,99,0,0,0,0,0
8,89999,69,80000,31,70000,40,9999,0.100000,99,891,0.000000,2,0.000000,23.876137,0.085914,99,99,0,0,0,0,0
8,89999,70,80000,31,70000,40,9999,0.100000,99,891,0.000000,3,0.000000,28.463366,0.389561,99,99,0,0,0,0,0
8,89999,71,80000,31,70000,40,9999,0.100000,99,891,0.000000,2,0.000000,16.145019,0.777296,99,99,0,0,0,0,0
8,89999,72,80000,31,70000,0,9999,0.100000,99,891,10.895030,2,2.000000,33.311116,12.126287,99,99,0,1,0,0,0
8,89999,73,80000,31,70000,40,9999,0.100000,99,891,0.000000,2,0.000000,17.951190,0.250986,99,99,0,0,0,0,0
8,89999,74,80000,31,70000,40,9999,0.100000,99,891,0.000000,2,0.000000,22.653293,1.008665,99,99,0,0,0,0,0
8,89999,75,80000,31,70000,40,9999,0.100000,99,891,0.000000,2,0.000000,27.792001,0.981999,99,99,0,0,0,0,0
8,89999,76,80000,31,70000,40,9999,0.100000,99,891,0.000000,3,0.000000,12.988906,0.183937,99,99,0,0,0,0,0
8,89999,77,80000,31,70000,40,9999,0.100000,99,891,0.000000,1,0.000000,23.485394,0.112838,99,99,0,0,0,0,0
8,89999,78,80000,31,70000,40,9999,0.100000,99,891,0.000000,4,0.000000,27.336326,0.792497,99,99,0,0,0,0,0
8,89999,79,80000,31,70000,40,9999,0.100000,99,891,0.000000,2,0.000000,27.586508,0.321947,99,99,0,0,0,0,0
8,89999,80,80000,31,70000,40,9999,0.100000,99,891,0.000000,2,0.000000,33.728924,0.237305,99,99,0,0,0,0,0
8,89999,81,80000,31,70000,40,9999,0.100000,99,891,0.000000,2,0.000000,23.342611,0.091162,99,99,0,0,0,0,0
8,89999,82,80000,31,70000,42,9999,0.100000,99,891,0.000000,4,9.000000,29.849241,19.779901,99,99,0,0,0,0,0
8,89999,83,80000,31,70000,40,9999,0.100000,99,891,0.000000,3,0.000000,23.188325,0.084095,99,99,0,0,0,0,0
8,89999,84,80000,31,70000,40,9999,0.100000,99,891,0.000000,1,0.000000,16.269133,0.322826,99,99,0,0,0,0,0
8,89999,85,80000,31,70000,40,9999,0.100000,99,891,0.000000,2,0.000000,29.844522,0.513315,99,99,0,0,0,0,0
8,89999,86,80000,31,70000,40,9999,0.100000,99,891,0.000000,3,0.000000,23.336553,0.079823,99,99,0,0,0,0,0
8,89999,87,80000,31,70000,0,9999,0.100000,99,891,0.319564,1,0.000000,15.436422,0.233834,99,99,0,0,1,0,0
8,89999,88,80000,31,70000,40,9999,0.100000,99,891,0.000000,2,0.000000,27.128830,0.468010,99,99,0,0,0,0,0
8,89999,89,80000,31,70000,40,9999,0.100000,99,891,0.000000,3,0.000000,29.711288,8.077768,99,99,0,0,0,0,0
8,89999,90,80000,31,70000,40,9999,0.100000,99,891,0.000000,2,0.000000,27.926531,0.234786,99,99,0,0,0,0,0
8,89999,91,80000,31,70000,0,9999,0.100000,99,891,0.000726,1,0.000000,14.245625,0.090685,99,99,0,0,0,0,1
8,89999,92,80000,31,70000,40,9999,0.100000,99,891,0.000000,2,0.000000,29.849632,2.805567,99,99,0,0,0,0,0
8,89999,93,80000,31,70000,40,9999,0.100000,99,891,0.000000,2,0.000000,28.379982,0.080446,99,99,0,0,0,0,0
8,89999,94,80000,31,70000,40,9999,0.100000,99,891,0.000000,3,0.000000,27.712847,0.803079,99,99,0,0,0,0,0
8,89999,95,80000,31,70000,40,9999,0.100000,99,891,0.000000,1,0.000000,28.184561,0.265593,99,99,0,0,0,0,0
8,89999,96,80000,31,70000,40,9999,0.100000,99,891,0.000000,3,0.000000,27.197990,1.344169,99,99,0,0,0,0,0
8,89999,97,80000,31,70000,40,9999,0.100000,99,891,0.000000,2,0.000000,22.766570,0.136604,99,99,0,0,0,0,0
8,89999,98,80000,31,70000,40,9999,0.100000,99,891,0.000000,2,0.000000,17.021796,0.295971,99,99,0,0,0,0,0
8,89999,99,80000,31,70000,40,9999,0.100000,99,891,0.000000,2,0.000000,17.069511,0.148601,99,99,0,0,0,0,0
9,99999,0,90000,7,80000,0,9999,0.100000,99,990,0.021993,1,0.000000,13.265177,0.087330,99,99,0,0,0,0,1
9,99999,1,90000,7,80000,0,9999,0.100000,99,990,0.013919,2,0.000000,19.124634,0.199769,99,99,0,0,0,1,0
9,99999,2,90000,7,80000,40,9999,0.100000,99,990,0.000000,3,0.000000,15.978455,1.095192,99,99,0,0,0,0,0
9,99999,3,90000,7,80000,0,9999,0.100000,99,990,0.120815,4,0.000000,26.796036,0.439275,99,99,0,0,0,1,0
9,99999,4,90000,7,80000,40,9999,0.100000,99,990,0.000000,4,0.000000,27.282741,3.403207,99,99,0,0,0,0,0
9,99999,5,90000,7,80000,40,9999,0.100000,99,990,0.000000,3,0.000000,26.801258,2.818543,99,99,0,0,0,0,0
9,99999,6,90000,7,80000,40,9999,0.100000,99,990,0.000000,2,0.000000,29.708293,0.153869,99,99,0,0,0,0,0
9,99999,7,90000,11,80000,40,9999,0.100000,99,990,0.000000,3,1.000000,32.704682,2.426759,99,99,0,0,0,0,0
9,99999,8,90000,7,80000,0,9999,0.100000,99,990,0.005939,2,0.000000,28.144008,0.084729,99,99,0,0,0,0,1
9,99999,9,90000,7,80000,40,9999,0.100000,99,990,0.000000,3,1.000000,32.124771,1.932025,99,99,0,0,0,0,0
9,99999,10,90000,7,80000,40,9999,0.100000,99,990,0.000000,3,0.000000,35.080526,1.322400,99,99,0,0,0,0,0
9,99999,11,90000,7,80000,40,9999,0.100000,99,990,0.000000,2,1.000000,33.125348,4.058820,99,99,0,0,0,0,0
9,99999,12,90000,7,80000,0,9999,0.100000,99,990,0.002279,2,0.000000,23.056871,0.091977,99,99,0,0,0,0,1
9,99999,13,90000,7,80000,0,9999,0.100000,99,990,0.082170,1,0.000000,17.061802,0.138160,99,99,0,0,1,0,0
9,99999,14,90000,7,80000,0,9999,0.100000,99,990,0.223470,2,0.000000,35.451765,1.113866,99,99,0,0,1,0,0
9,99999,15,90000,7,80000,0,9999,0.100000,99,990,0.417609,2,0.000000,27.887428,0.755253,99,99,0,0,0,0,1
9,99999,16,90000,7,80000,0,9999,0.100000,99,990,0.045795,2,0.000000,27.520699,0.116044,99,99,0,0,0,0,1
9,99999,17,90000,7,80000,40,9999,0.100000,99,990,0.000000,1,0.000000,29.952313,0.279016,99,99,0,0,0,0,0
9,99999,18,90000,7,80000,40,9999,0.100000,99,990,0.000000,4,0.000000,15.016577,0.586044,99,99,0,0,0,0,0
9,99999,19,90000,7,80000,0,9999,0.100000,99,990,0.791276,2,0.000000,27.857761,0.251076,99,99,0,0,0,1,0
9,99999,20,90000,7,80000,40,9999,0.100000,99,990,0.000000,1,0.000000,29.751137,0.808633,99,99,0,0,0,0,0
9,99999,21,90000,7,80000,40,9999,0.100000,99,990,0.000000,1,0.000000,13.091256,0.102802,99,99,0,0,0,0,0
9,99999,22,90000,7,80000,0,9999,0.100000,99,990,0.007898,2,0.000000,20.134035,0.131986,99,99,0,0,0,1,0
9,99999,23,90000,7,80000,0,9999,0.100000,99,990,0.003675,2,0.000000,20.998350,0.134167,99,99,0,0,1,0,0
9,99999,24,90000,7,80000,0,9999,0.100000,99,990,0.082882,1,0.000000,30.288604,0.152660,99,99,0,0,1,0,0
9,99999,25,90000,7,80000,40,9999,0.100000,99,990,0.000000,2,0.000000,20.383070,0.109756,99,99,0,0,0,0,0
9,99999,26,90000,7,80000,0,9999,0.100000,99,990,0.031235,2,0.000000,21.331181,0.134735,99,99,0,0,0,1,0
9,99999,27,90000,7,80000,40,9999,0.100000,99,990,0.000000,2,0.000000,21.290159,0.104662,99,99,0,0,0,0,0
9,99999,28,90000,7,80000,40,9999,0.100000,99,990,0.000000,3,0.000000,27.703485,0.082075,99,99,0,0,0,0,0
9,99999,29,90000,7,80000,40,9999,0.100000,99,990,0.000000,2,0.000000,21.584446,0.155227,99,99,0,0,0,0,0
9,99999,30,90000,7,80000,0,9999,0.100000,99,990,2.655834,2,0.000000,32.385340,1.124307,99,99,0,0,1,0,0
9,99999,31,90000,7,80000,40,9999,0.100000,99,990,0.000000,4,1.000000,26.919791,2.667156,99,99,0,0,0,0,0
9,99999,32,90000,7,80000,40,9999,0.100000,99,990,0.000000,3,0.000000,27.676279,0.399914,99,99,0,0,0,0,0
9,99999,33,90000,7,80000,40,9999,0.100000,99,990,0.000000,3,0.000000,29.761241,1.750771,99,99,0,0,0,0,0
9,99999,34,90000,7,80000,40,9999,0.100000,99,990,0.000000,3,0.000000,29.528799,0.283523,99,99,0,0,0,0,0
9,99999,35,90000,7,80000,40,9999,0.100000,99,990,0.000000,3,0.000000,16.083094,0.728026,99,99,0,0,0,0,0
9,99999,36,90000,7,80000,0,9999,0.100000,99,990,0.026297,1,0.000000,22.783097,0.142202,99,99,0,0,1,0,0
9,99999,37,90000,7,80000,40,9999,0.100000,99,990,0.000000,2,0.000000,21.131638,0.128488,99,99,0,0,0,0,0
9,99999,38,90000,7,80000,40,9999,0.100000,99,990,0.000000,3,0.000000,19.805545,0.254638,99,99,0,0,0,0,0
9,99999,39,90000,7,80000,0,9999,0.100000,99,990,0.005237,3,0.000000,23.606195,0.093330,99,99,0,0,0,0,1
9,99999,40,90000,7,80000,40,9999,0.100000,99,990,0.000000,4,0.000000,32.140948,1.325886,99,99,0,0,0,0,0
9,99999,41,90000,7,80000,40,9999,0.100000,99,990,0.000000,2,0.000000,27.990367,0.540771,99,99,0,0,0,0,0
9,99999,42,90000,7,80000,91,9999,0.100000,99,990,0.000000,5,3.000000,27.863794,22.988938,99,99,1,0,0,0,0
9,99999,43,90000,7,80000,0,9999,0.100000,99,990,0.022309,3,0.000000,21.230407,0.184144,99,99,0,0,1,0,0
9,99999,44,90000,7,80000,40,9999,0.100000,99,990,0.000000,1,0.000000,27.744871,2.205087,99,99,0,0,0,0,0
9,99999,45,90000,7,80000,0,9999,0.100000,99,990,1.332117,4,0.000000,31.584324,0.339284,99,99,0,0,1,0,0
9,99999,46,90000,7,80000,40,9999,0.100000,99,990,0.000000,3,0.000000,26.987282,0.195540,99,99,0,0,0,0,0
9,99999,47,90000,7,80000,40,9999,0.100000,99,990,0.000000,3,0.000000,27.581356,0.443414,99,99,0,0,0,0,0
9,99999,48,90000,7,80000,0,9999,0.100000,99,990,0.000626,1,0.000000,30.083634,0.072333,99,99,0,0,0,0,1
9,99999,49,90000,7,80000,40,9999,0.100000,99,990,0.000000,4,0.000000,35.280150,0.644389,99,99,0,0,0,0,0
9,99999,50,90000,7,80000,40,9999,0.100000,99,990,0.000000,2,0.000000,28.759305,4.623339,99,99,0,0,0,0,0
9,99999,51,90000,7,80000,0,9999,0.100000,99,990,0.149674,5,0.000000,26.458100,0.153111,99,99,0,1,0,0,0
9,99999,52,90000,7,80000,40,9999,0.100000,99,990,0.000000,3,0.000000,31.928671,0.417073,99,99,0,0,0,0,0
9,99999,53,90000,7,80000,0,9999,0.100000,99,990,0.605713,3,0.000000,27.219958,4.666995,99,99,0,1,0,0,0
9,99999,54,90000,7,80000,40,9999,0.100000,99,990,0.000000,3,0.000000,29.937671,3.142754,99,99,0,0,0,0,0
9,99999,55,90000,7,80000,40,9999,0.100000,99,990,0.000000,1,0.000000,33.929761,0.232829,99,99,0,0,0,0,0
9,99999,56,90000,7,80000,40,9999,0.100000,99,990,0.000000,2,0.000000,27.458489,0.103024,99,99,0,0,0,0,0
9,99999,57,90000,7,80000,41,9999,0.100000,99,990,0.000000,3,4.000000,29.615938,10.379235,99,99,0,0,0,0,0
9,99999,58,90000,7,80000,0,9999,0.100000,99,990,0.000051,2,0.000000,18.976227,0.082716,99,99,0,0,0,1,0
9,99999,59,90000,7,80000,0,9999,0.100000,99,990,0.104863,3,0.000000,27.163019,0.091969,99,99,0,0,0,0,1
9,99999,60,90000,7,80000,0,9999,0.100000,99,990,4.305650,3,1.000000,26.897388,2.460711,99,99,0,1,0,0,0
9,99999,61,90000,7,80000,42,9999,0.100000,99,990,0.000000,3,7.000000,29.116217,22.675564,99,99,0,0,0,0,0
9,99999,62,90000,7,80000,40,9999,0.100000,99,990,0.000000,3,0.000000,28.610519,0.301828,99,99,0,0,0,0,0
9,99999,63,90000,7,80000,40,9999,0.100000,99,990,0.000000,4,2.000000,34.446562,3.227799,99,99,0,0,0,0,0
9,99999,64,90000,7,80000,40,9999,0.100000,99,990,0.000000,2,0.000000,20.906887,0.557181,99,99,0,0,0,0,0
9,99999,65,90000,7,80000,40,9999,0.100000,99,990,0.000000,2,0.000000,27.508062,0.103471,99,99,0,0,0,0,0
9,99999,66,90000,7,80000,40,9999,0.100000,99,990,0.000000,2,0.000000,28.299544,0.782232,99,99,0,0,0,0,0
9,99999,67,90000,7,80000,40,9999,0.100000,99,990,0.000000,1,0.000000,20.565947,0.680608,99,99,0,0,0,0,0
9,99999,68,90000,7,80000,40,9999,0.100000,99,990,0.000000,2,0.000000,28.949138,0.933782,99,99,0,0,0,0,0
9,99999,69,90000,7,80000,40,9999,0.100000,99,990,0.000000,2,0.000000,23.873454,0.088045,99,99,0,0,0,0,0
9,99999,70,90000,7,80000,40,9999,0.100000,99,990,0.000000,3,0.000000,28.612151,0.385762,99,99,0,0,0,0,0
9,99999,71,90000,7,80000,40,9999,0.100000,99,990,0.000000,2,0.000000,15.917122,0.620345,99,99,0,0,0,0,0
9,99999,72,90000,7,80000,40,9999,0.100000,99,990,0.000000,3,1.000000,32.211164,2.329010,99,99,0,0,0,0,0
9,99999,73,90000,7,80000,45,9999,0.100000,99,990,0.000000,2,10.000000,17.948836,20.319042,99,99,0,0,0,0,0
9,99999,74,90000,7,80000,40,9999,0.100000,99,990,0.000000,2,0.000000,21.890935,0.943320,99,99,0,0,0,0,0
9,99999,75,90000,7,80000,40,9999,0.100000,99,990,0.000000,2,0.000000,27.835886,1.135031,99,99,0,0,0,0,0
9,99999,76,90000,7,80000,40,9999,0.100000,99,990,0.000000,3,0.000000,12.981780,0.169607,99,99,0,0,0,0,0
9,99999,77,90000,7,80000,40,9999,0.100000,99,990,0.000000,1,0.000000,23.487076,0.113438,99,99,0,0,0,0,0
9,99999,78,90000,7,80000,40,9999,0.100000,99,990,0.000000,4,0.000000,27.364911,1.016166,99,99,0,0,0,0,0
9,99999,79,90000,7,80000,40,9999,0.100000,99,990,0.000000,2,0.000000,27.775512,0.335507,99,99,0,0,0,0,0
9,99999,80,90000,7,80000,40,9999,0.100000,99,990,0.000000,2,0.000000,33.730863,0.233162,99,99,0,0,0,0,0
9,99999,81,90000,7,80000,40,9999,0.100000,99,990,0.000000,2,0.000000,23.344716,0.091648,99,99,0,0,0,0,0
9,99999,82,90000,7,80000,40,9999,0.100000,99,990,0.000000,4,0.000000,29.849066,0.126279,99,99,0,0,0,0,0
9,99999,83,90000,7,80000,40,9999,0.100000,99,990,0.000000,3,0.000000,23.190817,0.084196,99,99,0,0,0,0,0
9,99999,84,90000,7,80000,40,9999,0.100000,99,990,0.000000,1,0.000000,16.288353,0.342377,99,99,0,0,0,0,0
9,99999,85,90000,7,80000,40,9999,0.100000,99,990,0.000000,2,0.000000,29.844458,0.474681,99,99,0,0,0,0,0
9,99999,86,90000,7,80000,40,9999,0.100000,99,990,0.000000,3,0.000000,23.333750,0.082093,99,99,0,0,0,0,0
9,99999,87,90000,7,80000,40,9999,0.100000,99,990,0.000000,1,0.000000,15.427324,2.539665,99,99,0,0,0,0,0
9,99999,88,90000,7,80000,40,9999,0.100000,99,990,0.000000,2,0.000000,27.160751,0.420804,99,99,0,0,0,0,0
9,99999,89,90000,7,80000,0,9999,0.100000,99,990,0.311373,3,0.000000,29.872338,2.592444,99,99,0,0,0,1,0
9,99999,90,90000,7,80000,40,9999,0.100000,99,990,0.000000,2,0.000000,28.106009,0.251423,99,99,0,0,0,0,0
9,99999,91,90000,7,80000,0,9999,0.100000,99,990,0.000474,1,0.000000,14.245283,0.089596,99,99,0,0,0,0,1
9,99999,92,90000,7,80000,40,9999,0.100000,99,990,0.000000,2,0.000000,29.766137,2.727726,99,99,0,0,0,0,0
9,99999,93,90000,7,80000,40,9999,0.100000,99,990,0.000000,2,0.000000,28.377990,0.081838,99,99,0,0,0,0,0
9,99999,94,90000,7,80000,40,9999,0.100000,99,990,0.000000,3,0.000000,27.778454,0.737604,99,99,0,0,0,0,0
9,99999,95,90000,7,80000,40,9999,0.100000,99,990,0.000000,1,0.000000,28.362769,0.276779,99,99,0,0,0,0,0
9,99999,96,90000,7,80000,40,9999,0.100000,99,990,0.000000,3,0.000000,27.171629,1.138433,99,99,0,0,0,0,0
9,99999,97,90000,7,80000,40,9999,0.100000,99,990,0.000000,2,0.000000,22.762287,0.139914,99,99,0,0,0,0,0
9,99999,98,90000,7,80000,40,9999,0.100000,99,990,0.000000,2,0.000000,16.996754,0.299333,99,99,0,0,0,0,0
9,99999,99,90000,7,80000,40,9999,0.100000,99,990,0.000000,2,0.000000,17.098247,0.124373,99,99,0,0,0,0,0
10,109999,0,100000,60,90000,0,9999,0.100000,99,1089,0.020370,1,0.000000,13.259305,0.084071,99,99,0,0,0,0,1
10,109999,1,100000,60,90000,0,9999,0.100000,99,1089,0.021475,2,0.000000,19.130781,0.215697,99,99,0,0,0,1,0
10,109999,2,100000,60,90000,40,9999,0.100000,99,1089,0.000000,3,0.000000,15.975395,0.770976,99,99,0,0,0,0,0
10,109999,3,100000,60,90000,0,9999,0.100000,99,1089,0.066537,4,0.000000,26.831408,0.413310,99,99,0,0,0,1,0
10,109999,4,100000,60,90000,40,9999,0.100000,99,1089,0.000000,4,0.000000,26.498852,4.029611,99,99,0,0,0,0,0
10,109999,5,100000,60,90000,43,9999,0.100000,99,1089,0.000000,3,9.000000,26.420004,22.545325,99,99,0,0,0,0,0
10,109999,6,100000,60,90000,40,9999,0.100000,99,1089,0.000000,2,0.000000,29.802247,0.085674,99,99,0,0,0,0,0
10,109999,7,100000,60,90000,40,9999,0.100000,99,1089,0.000000,3,0.000000,32.014824,4.986518,99,99,0,0,0,0,0
10,109999,8,100000,60,90000,0,9999,0.100000,99,1089,0.004700,2,0.000000,28.142291,0.085797,99,99,0,0,0,0,1
10,109999,9,100000,60,90000,40,9999,0.100000,99,1089,0.000000,3,0.000000,31.949468,1.908265,99,99,0,0,0,0,0
10,109999,10,100000,60,90000,0,9999,0.100000,99,1089,0.177489,3,0.000000,35.108789,1.388818,99,99,0,0,1,0,0
10,109999,11,100000,60,90000,40,9999,0.100000,99,1089,0.000000,2,0.000000,32.035934,12.393041,99,99,0,0,0,0,0
10,109999,12,100000,60,90000,0,9999,0.100000,99,1089,0.002609,2,0.000000,23.060147,0.090320,99,99,0,0,0,0,1
10,109999,13,100000,60,90000,0,9999,0.100000,99,1089,0.815687,1,0.000000,17.047356,0.194052,99,99,0,0,1,0,0
10,109999,14,100000,60,90000,40,9999,0.100000,99,1089,0.000000,2,0.000000,35.480021,1.131260,99,99,0,0,0,0,0
10,109999,15,100000,60,90000,3,9999,0.135000,99,1089,0.092756,2,9.000000,28.082906,19.373796,99,99,0,0,0,0,1
10,109999,16,100000,60,90000,0,9999,0.100000,99,1089,0.071207,2,0.000000,27.493266,0.103489,99,99,0,0,0,0,1
10,109999,17,100000,60,90000,40,9999,0.100000,99,1089,0.000000,1,0.000000,29.976601,0.396685,99,99,0,0,0,0,0
10,109999,18,100000,60,90000,40,9999,0.100000,99,1089,0.000000,4,0.000000,15.013933,0.693469,99,99,0,0,0,0,0
10,109999,19,100000,60,90000,0,9999,0.100000,99,1089,3.405456,2,0.000000,28.051998,1.240348,99,99,0,0,0,1,0
10,109999,20,100000,60,90000,40,9999,0.100000,99,1089,0.000000,1,0.000000,29.751254,0.811568,99,99,0,0,0,0,0
10,109999,21,100000,60,90000,40,9999,0.100000,99,1089,0.000000,1,0.000000,13.086264,0.105124,99,99,0,0,0,0,0
10,109999,22,100000,60,90000,40,9999,0.100000,99,1089,0.000000,2,0.000000,20.133726,0.132487,99,99,0,0,0,0,0
10,109999,23,100000,60,90000,0,9999,0.100000,99,1089,0.015752,2,0.000000,20.997475,0.160155,99,99,0,0,1,0,0
10,109999,24,100000,60,90000,0,9999,0.100000,99,1089,0.050978,1,0.000000,30.317505,0.308339,99,99,0,0,1,0,0
10,109999,25,100000,60,90000,2,9999,0.100000,99,1089,0.006604,2,6.000000,20.382940,13.532844,99,99,0,0,0,1,0
10,109999,26,100000,60,90000,0,9999,0.100000,99,1089,0.012053,2,0.000000,21.336058,0.117082,99,99,0,0,0,1,0
10,109999,27,100000,60,90000,2,9999,0.100000,99,1089,0.002318,2,6.000000,21.286048,12.448737,99,99,0,0,1,0,0
10,109999,28,100000,60,90000,40,9999,0.100000,99,1089,0.000000,3,0.000000,27.679101,0.083523,99,99,0,0,0,0,0
10,109999,29,100000,60,90000,40,9999,0.100000,99,1089,0.000000,2,0.000000,21.589775,0.146890,99,99,0,0,0,0,0
10,109999,30,100000,60,90000,0,9999,0.100000,99,1089,0.239685,2,0.000000,32.196349,0.888060,99,99,0,0,1,0,0
10,109999,31,100000,60,90000,0,9999,0.100000,99,1089,6.817885,4,1.000000,25.802128,6.413876,99,99,0,1,0,0,0
10,109999,32,100000,60,90000,40,9999,0.100000,99,1089,0.000000,3,0.000000,27.826833,0.769476,99,99,0,0,0,0,0
10,109999,33,100000,60,90000,0,9999,0.100000,99,1089,2.054832,3,0.000000,29.712537,1.916362,99,99,0,0,0,1,0
10,109999,34,100000,60,90000,40,9999,0.100000,99,1089,0.000000,3,0.000000,29.622845,0.224315,99,99,0,0,0,0,0
10,109999,35,100000,60,90000,40,9999,0.100000,99,1089,0.000000,3,0.000000,15.733045,0.796403,99,99,0,0,0,0,0
10,109999,36,100000,60,90000,0,9999,0.100000,99,1089,0.023490,1,0.000000,22.777827,0.142796,99,99,0,0,1,0,0
10,109999,37,100000,60,90000,40,9999,0.100000,99,1089,0.000000,2,0.000000,21.136018,0.114961,99,99,0,0,0,0,0
10,109999,38,100000,60,90000,40,9999,0.100000,99,1089,0.000000,3,0.000000,19.803529,0.242171,99,99,0,0,0,0,0
10,109999,39,100000,60,90000,0,9999,0.100000,99,1089,0.093518,3,0.000000,23.605311,0.106145,99,99,0,0,0,0,1
10,109999,40,100000,60,90000,40,9999,0.100000,99,1089,0.000000,4,0.000000,32.054714,1.198851,99,99,0,0,0,0,0
10,109999,41,100000,60,90000,40,9999,0.100000,99,1089,0.000000,2,0.000000,28.202100,0.296387,99,99,0,0,0,0,0
10,109999,42,100000,60,90000,40,9999,0.100000,99,1089,0.000000,6,1.000000,27.991749,1.434860,99,99,0,0,0,0,0
10,109999,43,100000,60,90000,40,9999,0.100000,99,1089,0.000000,3,0.000000,21.214966,0.155351,99,99,0,0,0,0,0
10,109999,44,100000,60,90000,40,9999,0.100000,99,1089,0.000000,1,1.000000,27.873572,2.663492,99,99,0,0,0,0,0
10,109999,45,100000,60,90000,0,9999,0.100000,99,1089,1.381534,4,0.000000,31.348760,0.353410,99,99,0,0,1,0,0
10,109999,46,100000,60,90000,40,9999,0.100000,99,1089,0.000000,3,0.000000,27.023487,0.197654,99,99,0,0,0,0,0
10,109999,47,100000,60,90000,40,9999,0.100000,99,1089,0.000000,3,1.000000,27.710632,7.650315,99,99,0,0,0,0,0
10,109999,48,100000,60,90000,0,9999,0.100000,99,1089,0.020851,1,0.000000,30.084091,0.075363,99,99,0,0,0,0,1
10,109999,49,100000,60,90000,40,9999,0.100000,99,1089,0.000000,4,0.000000,35.308517,0.656266,99,99,0,0,0,0,0
10,109999,50,100000,60,90000,40,9999,0.100000,99,1089,0.000000,2,3.000000,28.708195,10.052503,99,99,0,0,0,0,0
10,109999,51,100000,60,90000,0,9999,0.100000,99,1089,0.144796,5,0.000000,26.424339,0.155592,99,99,0,1,0,0,0
10,109999,52,100000,60,90000,40,9999,0.100000,99,1089,0.000000,3,0.000000,31.686242,0.439688,99,99,0,0,0,0,0
10,109999,53,100000,60,90000,40,9999,0.100000,99,1089,0.000000,3,1.000000,27.462604,1.852396,99,99,0,0,0,0,0
10,109999,54,100000,60,90000,40,9999,0.100000,99,1089,0.000000,3,0.000000,29.716561,2.641878,99,99,0,0,0,0,0
10,109999,55,100000,60,90000,40,9999,0.100000,99,1089,0.000000,1,0.000000,33.930432,0.222883,99,99,0,0,0,0,0
10,109999,56,100000,60,90000,40,9999,0.100000,99,1089,0.000000,2,0.000000,27.456908,0.103083,99,99,0,0,0,0,0
10,109999,57,100000,60,90000,41,9999,0.100000,99,1089,0.000000,3,6.000000,29.565745,16.733399,99,99,0,0,0,0,0
10,109999,58,100000,60,90000,0,9999,0.100000,99,1089,0.000974,2,0.000000,18.976122,0.081467,99,99,0,0,0,1,0
10,109999,59,100000,60,90000,0,9999,0.100000,99,1089,0.069078,3,0.000000,27.181615,0.097754,99,99,0,0,0,0,1
10,109999,60,100000,30,90000,40,9999,0.100000,99,1089,0.000000,3,1.000000,25.653698,4.749062,99,99,0,0,0,0,0
10,109999,61,100000,60,90000,40,9999,0.100000,99,1089,0.000000,4,1.000000,28.983647,11.803056,99,99,0,0,0,0,0
10,109999,62,100000,60,90000,40,9999,0.100000,99,1089,0.000000,3,0.000000,28.786996,0.772660,99,99,0,0,0,0,0
10,109999,63,100000,60,90000,41,9999,0.100000,99,1089,0.000000,4,7.000000,35.686353,11.617444,99,99,0,0,0,0,0
10,109999,64,100000,60,90000,40,9999,0.100000,99,1089,0.000000,2,0.000000,20.970899,0.478910,99,99,0,0,0,0,0
10,109999,65,100000,60,90000,40,9999,0.100000,99,1089,0.000000,2,0.000000,27.532661,0.136946,99,99,0,0,0,0,0
10,109999,66,100000,60,90000,40,9999,0.100000,99,1089,0.000000,2,0.000000,28.421817,0.277114,99,99,0,0,0,0,0
10,109999,67,100000,60,90000,40,9999,0.100000,99,1089,0.000000,1,0.000000,20.801884,0.702264,99,99,0,0,0,0,0
10,109999,68,100000,60,90000,40,9999,0.100000,99,1089,0.000000,2,0.000000,29.056485,0.374602,99,99,0,0,0,0,0
10,109999,69,100000,60,90000,40,9999,0.100000,99,1089,0.000000,2,0.000000,23.872602,0.081390,99,99,0,0,0,0,0
10,109999,70,100000,60,90000,40,9999,0.100000,99,1089,0.000000,3,1.000000,28.787307,11.354281,99,99,0,0,0,0,0
10,109999,71,100000,60,90000,40,9999,0.100000,99,1089,0.000000,2,0.000000,15.568256,0.640380,99,99,0,0,0,0,0
10,109999,72,100000,60,90000,40,9999,0.100000,99,1089,0.000000,3,0.000000,31.989137,1.954983,99,99,0,0,0,0,0
10,109999,73,100000,60,90000,40,9999,0.100000,99,1089,0.000000,3,0.000000,17.946514,0.232620,99,99,0,0,0,0,0
10,109999,74,100000,60,90000,40,9999,0.100000,99,1089,0.000000,2,0.000000,21.181900,0.971713,99,99,0,0,0,0,0
10,109999,75,100000,60,90000,40,9999,0.100000,99,1089,0.000000,2,0.000000,28.041535,0.356788,99,99,0,0,0,0,0
10,109999,76,100000,60,90000,40,9999,0.100000,99,1089,0.000000,3,0.000000,12.976964,0.145449,99,99,0,0,0,0,0
10,109999,77,100000,60,90000,40,9999,0.100000,99,1089,0.000000,1,0.000000,23.488767,0.112592,99,99,0,0,0,0,0
10,109999,78,100000,60,90000,40,9999,0.100000,99,1089,0.000000,4,2.000000,27.394592,6.863691,99,99,0,0,0,0,0
10,109999,79,100000,60,90000,40,9999,0.100000,99,1089,0.000000,2,0.000000,27.977529,3.786575,99,99,0,0,0,0,0
10,109999,80,100000,60,90000,40,9999,0.100000,99,1089,0.000000,2,0.000000,33.731706,0.237154,99,99,0,0,0,0,0
10,109999,81,100000,60,90000,40,9999,0.100000,99,1089,0.000000,2,0.000000,23.346886,0.092034,99,99,0,0,0,0,0
10,109999,82,100000,60,90000,40,9999,0.100000,99,1089,0.000000,4,0.000000,29.848740,0.123794,99,99,0,0,0,0,0
10,109999,83,100000,60,90000,40,9999,0.100000,99,1089,0.000000,3,0.000000,23.193367,0.083807,99,99,0,0,0,0,0
10,109999,84,100000,60,90000,40,9999,0.100000,99,1089,0.000000,1,0.000000,16.292201,0.409740,99,99,0,0,0,0,0
10,109999,85,100000,60,90000,40,9999,0.100000,99,1089,0.000000,2,0.000000,29.844478,0.468046,99,99,0,0,0,0,0
10,109999,86,100000,60,90000,40,9999,0.100000,99,1089,0.000000,3,0.000000,23.332888,0.115702,99,99,0,0,0,0,0
10,109999,87,100000,60,90000,40,9999,0.100000,99,1089,0.000000,2,0.000000,15.720886,2.667426,99,99,0,0,0,0,0
10,109999,88,100000,60,90000,40,9999,0.100000,99,1089,0.000000,2,0.000000,27.192330,0.408600,99,99,0,0,0,0,0
10,109999,89,100000,60,90000,40,9999,0.100000,99,1089,0.000000,4,1.000000,29.899118,9.002347,99,99,0,0,0,0,0
10,109999,90,100000,60,90000,41,9999,0.100000,99,1089,0.000000,2,4.000000,28.299321,10.218659,99,99,0,0,0,0,0
10,109999,91,100000,60,90000,0,9999,0.100000,99,1089,0.000565,1,0.000000,14.244994,0.090087,99,99,0,0,0,0,1
10,109999,92,100000,60,90000,40,9999,0.100000,99,1089,0.000000,2,0.000000,29.657228,6.012104,99,99,0,0,0,0,0
10,109999,93,100000,60,90000,40,9999,0.100000,99,1089,0.000000,2,0.000000,28.376072,0.082831,99,99,0,0,0,0,0
10,109999,94,100000,60,90000,40,9999,0.100000,99,1089,0.000000,3,1.000000,27.944450,2.811274,99,99,0,0,0,0,0
10,109999,95,100000,60,90000,40,9999,0.100000,99,1089,0.000000,1,0.000000,28.554189,0.853300,99,99,0,0,0,0,0
10,109999,96,100000,60,90000,0,9999,0.100000,99,1089,1.852429,3,0.000000,27.360617,0.498574,99,99,0,1,0,0,0
10,109999,97,100000,60,90000,40,9999,0.100000,99,1089,0.000000,2,0.000000,22.757583,0.137666,99,99,0,0,0,0,0
10,109999,98,100000,60,90000,40,9999,0.100000,99,1089,0.000000,2,0.000000,16.980489,0.350738,99,99,0,0,0,0,0
10,109999,99,100000,60,90000,40,9999,0.100000,99,1089,0.000000,2,0.000000,17.085317,0.165123,99,99,0,0,0,0,0
11,119999,0,110000,31,100000,0,9999,0.100000,99,1188,0.304564,1,0.000000,13.253708,0.141797,99,99,0,0,0,0,1
11,119999,1,110000,31,100000,0,9999,0.100000,99,1188,0.007521,2,0.000000,19.143854,0.193230,99,99,0,0,0,1,0
11,119999,2,110000,31,100000,40,9999,0.065000,99,1188,0.000000,3,0.000000,16.296179,0.713688,99,99,0,0,0,0,0
11,119999,3,110000,31,100000,0,9999,0.100000,99,1188,0.145022,4,0.000000,26.847694,0.401334,99,99,0,0,0,1,0
11,119999,4,110000,31,100000,40,9999,0.100000,99,1188,0.000000,4,1.000000,26.906353,6.128025,99,99,0,0,0,0,0
11,119999,5,110000,31,100000,40,9999,0.100000,99,1188,0.000000,4,2.000000,25.705740,10.741500,99,99,0,0,0,0,0
11,119999,6,110000,31,100000,40,9999,0.100000,99,1188,0.000000,2,0.000000,29.802239,0.083014,99,99,0,0,0,0,0
11,119999,7,110000,31,100000,40,9999,0.100000,99,1188,0.000000,3,0.000000,32.029437,2.423540,99,99,0,0,0,0,0
11,119999,8,110000,31,100000,0,9999,0.100000,99,1188,0.006973,2,0.000000,28.140538,0.083878,99,99,0,0,0,0,1
11,119999,9,110000,31,100000,0,9999,0.100000,99,1188,1.994602,3,0.000000,32.118521,1.437454,99,99,0,0,1,0,0
11,119999,10,110000,31,100000,0,9999,0.065000,99,1188,0.197413,3,0.000000,35.131427,1.288042,99,99,0,0,1,0,0
11,119999,11,110000,31,100000,40,9999,0.100000,99,1188,0.000000,2,1.000000,32.008855,20.774967,99,99,0,0,0,0,0
11,119999,12,110000,31,100000,0,9999,0.100000,99,1188,0.002467,2,0.000000,23.063279,0.091023,99,99,0,0,0,0,1
11,119999,13,110000,31,100000,0,9999,0.100000,99,1188,0.793843,1,0.000000,16.883975,0.471201,99,99,0,0,1,0,0
11,119999,14,110000,31,100000,40,9999,0.100000,99,1188,0.000000,2,0.000000,35.503035,1.200352,99,99,0,0,0,0,0
11,119999,15,110000,31,100000,0,9999,0.100000,99,1188,0.108616,3,0.000000,28.054833,0.254509,99,99,0,0,0,0,1
11,119999,16,110000,31,100000,0,9999,0.100000,99,1188,0.055567,2,0.000000,27.471518,0.087516,99,99,0,0,0,0,1
11,119999,17,110000,31,100000,40,9999,0.100000,99,1188,0.000000,1,0.000000,29.951419,0.353587,99,99,0,0,0,0,0
11,119999,18,110000,31,100000,40,9999,0.100000,99,1188,0.000000,4,0.000000,15.366441,0.660059,99,99,0,0,0,0,0
11,119999,19,110000,31,100000,0,9999,0.100000,99,1188,2.478279,2,0.000000,28.542247,0.566322,99,99,0,0,0,1,0
11,119999,20,110000,31,100000,40,9999,0.100000,99,1188,0.000000,1,0.000000,29.750865,0.796854,99,99,0,0,0,0,0
11,119999,21,110000,31,100000,40,9999,0.100000,99,1188,0.000000,1,0.000000,13.081447,0.378671,99,99,0,0,0,0,0
11,119999,22,110000,31,100000,0,9999,0.100000,99,1188,0.007027,2,0.000000,20.133687,0.132676,99,99,0,0,0,1,0
11,119999,23,110000,31,100000,0,9999,0.100000,99,1188,0.007434,2,0.000000,21.001426,0.178497,99,99,0,0,1,0,0
11,119999,24,110000,31,100000,0,9999,0.100000,99,1188,0.491717,1,0.000000,30.270883,0.199080,99,99,0,0,1,0,0
11,119999,25,110000,31,100000,40,9999,0.100000,99,1188,0.000000,3,0.000000,20.383155,0.112960,99,99,0,0,0,0,0
11,119999,26,110000,31,100000,40,9999,0.100000,99,1188,0.000000,2,0.000000,21.335776,0.126374,99,99,0,0,0,0,0
11,119999,27,110000,31,100000,0,9999,0.100000,99,1188,0.013344,3,0.000000,21.278625,0.091783,99,99,0,0,1,0,0
11,119999,28,110000,31,100000,40,9999,0.100000,99,1188,0.000000,3,0.000000,27.661097,0.085961,99,99,0,0,0,0,0
11,119999,29,110000,31,100000,0,9999,0.100000,99,1188,0.496154,2,0.000000,21.589728,0.151384,99,99,0,0,0,1,0
11,119999,30,110000,31,100000,40,9999,0.100000,99,1188,0.000000,2,0.000000,32.218691,1.178258,99,99,0,0,0,0,0
11,119999,31,110000,19,100000,40,9999,0.100000,99,1188,0.000000,4,1.000000,26.859466,1.724896,99,99,0,0,0,0,0
11,119999,32,110000,31,100000,40,9999,0.100000,99,1188,0.000000,3,2.000000,27.841191,8.819811,99,99,0,0,0,0,0
11,119999,33,110000,31,100000,0,9999,0.100000,99,1188,5.681314,3,1.000000,30.185922,3.218718,99,99,0,0,0,1,0
11,119999,34,110000,31,100000,40,9999,0.100000,99,1188,0.000000,3,0.000000,29.622770,0.216623,99,99,0,0,0,0,0
11,119999,35,110000,31,100000,40,9999,0.100000,99,1188,0.000000,3,0.000000,15.370927,1.885211,99,99,0,0,0,0,0
11,119999,36,110000,31,100000,0,9999,0.100000,99,1188,0.021729,1,0.000000,22.773110,0.139155,99,99,0,0,1,0,0
11,119999,37,110000,31,100000,40,9999,0.100000,99,1188,0.000000,2,0.000000,21.135639,0.149232,99,99,0,0,0,0,0
11,119999,38,110000,31,100000,40,9999,0.100000,99,1188,0.000000,3,0.000000,19.804430,0.231987,99,99,0,0,0,0,0
11,119999,39,110000,31,100000,0,9999,0.100000,99,1188,0.003220,3,0.000000,23.593623,0.083191,99,99,0,0,0,0,1
11,119999,40,110000,31,100000,40,9999,0.100000,99,1188,0.000000,4,0.000000,32.285262,3.140556,99,99,0,0,0,0,0
11,119999,41,110000,31,100000,40,9999,0.100000,99,1188,0.000000,2,0.000000,28.156967,0.161199,99,99,0,0,0,0,0
11,119999,42,110000,31,100000,41,9999,0.100000,99,1188,0.000000,6,3.000000,27.839303,5.037128,99,99,0,0,0,0,0
11,119999,43,110000,31,100000,40,9999,0.100000,99,1188,0.000000,3,0.000000,21.195967,0.154098,99,99,0,0,0,0,0
11,119999,44,110000,31,100000,42,9999,0.100000,99,1188,0.000000,1,6.000000,27.606629,7.559797,99,99,0,0,0,0,0
11,119999,45,110000,31,100000,0,9999,0.100000,99,1188,1.275393,4,0.000000,31.109910,0.333765,99,99,0,0,1,0,0
11,119999,46,110000,31,100000,40,9999,0.100000,99,1188,0.000000,3,0.000000,27.040791,0.196621,99,99,0,0,0,0,0
11,119999,47,110000,31,100000,40,9999,0.100000,99,1188,0.000000,3,0.000000,27.363506,1.712654,99,99,0,0,0,0,0
11,119999,48,110000,31,100000,0,9999,0.100000,99,1188,0.000318,1,0.000000,30.084463,0.070919,99,99,0,0,0,0,1
11,119999,49,110000,31,100000,40,9999,0.100000,99,1188,0.000000,4,0.000000,35.331311,0.652419,99,99,0,0,0,0,0
11,119999,50,110000,31,100000,40,9999,0.100000,99,1188,0.000000,3,0.000000,27.992914,21.372667,99,99,0,0,0,0,0
11,119999,51,110000,31,100000,0,9999,0.100000,99,1188,0.137063,5,0.000000,26.391197,0.157354,99,99,0,1,0,0,0
11,119999,52,110000,31,100000,40,9999,0.100000,99,1188,0.000000,3,0.000000,31.434063,0.419774,99,99,0,0,0,0,0
11,119999,53,110000,31,100000,40,9999,0.100000,99,1188,0.000000,3,2.000000,26.384257,7.942844,99,99,0,0,0,0,0
