generation,iteration,robot,birthday,ancestor_id,ancestor_birthday,cell_id,age,sigma,maps,genomes,fitness,cells_in_map,dist_max,dist_pot_max,dist_total,com_rx,com_tx,obj_group1,obj_group2,obj_group3,obj_group4,obj_group5
0,9999,0,0,0,0,0,9999,0.100000,99,0,0.045659,0,1.000000,22.839003,1.744748,99,99,0,1,0,0,0
0,9999,1,0,1,0,40,9999,0.100000,99,0,0.000000,0,0.000000,29.090574,0.442574,99,99,0,0,0,0,0
0,9999,2,0,2,0,40,9999,0.100000,99,0,0.000000,0,1.000000,29.194270,17.738054,99,99,0,0,0,0,0
0,9999,3,0,3,0,40,9999,0.100000,99,0,0.000000,0,0.000000,26.402744,1.162488,99,99,0,0,0,0,0
0,9999,4,0,4,0,0,9999,0.100000,99,0,0.048950,0,2.000000,31.498140,11.855502,99,99,0,0,1,0,0
0,9999,5,0,5,0,0,9999,0.100000,99,0,0.002244,0,1.000000,20.123734,1.961692,99,99,0,0,0,0,1
0,9999,6,0,6,0,40,9999,0.100000,99,0,0.000000,0,2.000000,25.572412,12.239981,99,99,0,0,0,0,0
0,9999,7,0,7,0,0,9999,0.100000,99,0,0.000421,0,2.000000,26.565627,5.265399,99,99,0,0,0,0,1
0,9999,8,0,8,0,40,9999,0.100000,99,0,0.000000,0,2.000000,19.835141,7.175458,99,99,0,0,0,0,0
0,9999,9,0,9,0,0,9999,0.100000,99,0,10.200557,0,1.000000,29.350711,4.876519,99,99,0,1,0,0,0
0,9999,10,0,10,0,41,9999,0.100000,99,0,0.000000,0,3.000000,27.394827,15.796799,99,99,0,0,0,0,0
0,9999,11,0,11,0,40,9999,0.100000,99,0,0.000000,0,1.000000,27.753028,12.702837,99,99,0,0,0,0,0
0,9999,12,0,12,0,1,9999,0.100000,99,0,0.025628,0,5.000000,26.918924,11.559362,99,99,0,0,0,0,1
0,9999,13,0,13,0,40,9999,0.100000,99,0,0.000000,0,1.000000,22.762445,12.564457,99,99,0,0,0,0,0
0,9999,14,0,14,0,40,9999,0.100000,99,0,0.000000,0,0.000000,26.148374,6.573928,99,99,0,0,0,0,0
0,9999,15,0,15,0,90,9999,0.100000,99,0,9.243175,0,1.000000,35.869867,9.122246,99,99,1,0,0,0,0
0,9999,16,0,16,0,42,9999,0.100000,99,0,0.000000,0,4.000000,15.326713,12.142544,99,99,0,0,0,0,0
0,9999,17,0,17,0,0,9999,0.100000,99,0,0.126890,0,1.000000,18.485281,6.077300,99,99,0,0,1,0,0
0,9999,18,0,18,0,0,9999,0.100000,99,0,0.973907,0,1.000000,23.370116,2.327081,99,99,0,1,0,0,0
0,9999,19,0,19,0,1,9999,0.100000,99,0,4.174453,0,3.000000,22.106197,7.203937,99,99,0,1,0,0,0
0,9999,20,0,20,0,40,9999,0.100000,99,0,0.000000,0,1.000000,30.960916,4.766874,99,99,0,0,0,0,0
0,9999,21,0,21,0,96,9999,0.100000,99,0,82.577084,0,15.000000,20.911004,24.115165,99,99,1,0,0,0,0
0,9999,22,0,22,0,0,9999,0.100000,99,0,0.299390,0,1.000000,12.954657,1.835637,99,99,0,0,0,0,1
0,9999,23,0,23,0,40,9999,0.100000,99,0,0.000000,0,0.000000,29.379370,10.580182,99,99,0,0,0,0,0
0,9999,24,0,24,0,40,9999,0.100000,99,0,0.000000,0,1.000000,29.075901,5.964150,99,99,0,0,0,0,0
0,9999,25,0,25,0,41,9999,0.100000,99,0,0.000000,0,3.000000,26.918629,9.530573,99,99,0,0,0,0,0
0,9999,26,0,26,0,42,9999,0.100000,99,0,0.000000,0,6.000000,24.018559,13.179957,99,99,0,0,0,0,0
0,9999,27,0,27,0,0,9999,0.100000,99,0,0.000401,0,1.000000,28.124017,5.878389,99,99,0,0,1,0,0
0,9999,28,0,28,0,40,9999,0.100000,99,0,0.000000,0,2.000000,22.473973,12.046492,99,99,0,0,0,0,0
0,9999,29,0,29,0,40,9999,0.100000,99,0,0.000000,0,0.000000,24.220056,3.526477,99,99,0,0,0,0,0
0,9999,30,0,30,0,40,9999,0.100000,99,0,0.000000,0,0.000000,11.835756,2.546367,99,99,0,0,0,0,0
0,9999,31,0,31,0,2,9999,0.100000,99,0,0.190724,0,4.000000,15.197114,13.779462,99,99,0,0,0,1,0
0,9999,32,0,32,0,40,9999,0.100000,99,0,0.000000,0,1.000000,21.237882,6.460632,99,99,0,0,0,0,0
0,9999,33,0,33,0,40,9999,0.100000,99,0,0.000000,0,0.000000,23.520725,1.244779,99,99,0,0,0,0,0
0,9999,34,0,34,0,0,9999,0.100000,99,0,12.741513,0,1.000000,27.477128,5.486781,99,99,0,1,0,0,0
0,9999,35,0,35,0,40,9999,0.100000,99,0,0.000000,0,1.000000,25.911317,4.060786,99,99,0,0,0,0,0
0,9999,36,0,36,0,41,9999,0.100000,99,0,0.000000,0,3.000000,22.473973,8.606035,99,99,0,0,0,0,0
0,9999,37,0,37,0,40,9999,0.100000,99,0,0.000000,0,2.000000,20.733126,11.400941,99,99,0,0,0,0,0
0,9999,38,0,38,0,40,9999,0.100000,99,0,0.000000,0,2.000000,23.148384,17.772167,99,99,0,0,0,0,0
0,9999,39,0,39,0,0,9999,0.100000,99,0,0.333282,0,2.000000,27.691806,5.445730,99,99,0,0,0,0,1
0,9999,40,0,40,0,1,9999,0.100000,99,0,0.002308,0,5.000000,27.181967,11.496321,99,99,0,0,1,0,0
0,9999,41,0,41,0,93,9999,0.100000,99,0,20.077140,0,7.000000,16.824954,18.307451,99,99,1,0,0,0,0
0,9999,42,0,42,0,40,9999,0.100000,99,0,0.000000,0,1.000000,24.709181,2.902207,99,99,0,0,0,0,0
0,9999,43,0,43,0,1,9999,0.100000,99,0,2.377510,0,5.000000,28.461853,10.666065,99,99,0,0,0,1,0
0,9999,44,0,44,0,40,9999,0.100000,99,0,0.000000,0,1.000000,20.278619,6.778253,99,99,0,0,0,0,0
0,9999,45,0,45,0,0,9999,0.100000,99,0,1.397424,0,0.000000,31.572436,0.869775,99,99,0,0,0,1,0
0,9999,46,0,46,0,41,9999,0.100000,99,0,0.000000,0,2.000000,17.294518,13.139927,99,99,0,0,0,0,0
0,9999,47,0,47,0,0,9999,0.100000,99,0,2.263032,0,0.000000,29.897990,0.932422,99,99,0,0,0,1,0
0,9999,48,0,48,0,41,9999,0.100000,99,0,0.000000,0,3.000000,27.494285,7.273299,99,99,0,0,0,0,0
0,9999,49,0,49,0,40,9999,0.100000,99,0,0.000000,0,2.000000,27.018813,7.773043,99,99,0,0,0,0,0
0,9999,50,0,50,0,40,9999,0.100000,99,0,0.000000,0,1.000000,20.159724,5.048487,99,99,0,0,0,0,0
0,9999,51,0,51,0,0,9999,0.100000,99,0,0.017958,0,1.000000,25.768640,3.092217,99,99,0,0,0,0,1
0,9999,52,0,52,0,40,9999,0.100000,99,0,0.000000,0,0.000000,25.580115,5.707677,99,99,0,0,0,0,0
0,9999,53,0,53,0,41,9999,0.100000,99,0,0.000000,0,2.000000,15.467175,7.182383,99,99,0,0,0,0,0
0,9999,54,0,54,0,40,9999,0.100000,99,0,0.000000,0,2.000000,20.307764,16.309666,99,99,0,0,0,0,0
0,9999,55,0,55,0,0,9999,0.100000,99,0,0.013094,0,0.000000,22.165936,2.716114,99,99,0,0,0,1,0
0,9999,56,0,56,0,40,9999,0.100000,99,0,0.000000,0,2.000000,20.904128,9.082164,99,99,0,0,0,0,0
0,9999,57,0,57,0,41,9999,0.100000,99,0,0.000000,0,2.000000,14.103657,11.153798,99,99,0,0,0,0,0
0,9999,58,0,58,0,90,9999,0.100000,99,0,0.845080,0,1.000000,12.435159,3.857064,99,99,1,0,0,0,0
0,9999,59,0,59,0,40,9999,0.100000,99,0,0.000000,0,2.000000,23.423859,16.301140,99,99,0,0,0,0,0
0,9999,60,0,60,0,0,9999,0.100000,99,0,0.072628,0,1.000000,25.246311,4.859312,99,99,0,1,0,0,0
0,9999,61,0,61,0,40,9999,0.100000,99,0,0.000000,0,1.000000,23.341664,11.651200,99,99,0,0,0,0,0
0,9999,62,0,62,0,40,9999,0.100000,99,0,0.000000,0,2.000000,24.261136,5.387060,99,99,0,0,0,0,0
0,9999,63,0,63,0,47,9999,0.100000,99,0,64.155838,0,12.000000,16.113101,17.096473,99,99,1,0,1,0,0
0,9999,64,0,64,0,40,9999,0.100000,99,0,0.000000,0,1.000000,19.047652,2.985424,99,99,0,0,0,0,0
0,9999,65,0,65,0,40,9999,0.100000,99,0,0.000000,0,3.000000,31.145448,9.467496,99,99,0,0,0,0,0
0,9999,66,0,66,0,42,9999,0.100000,99,0,0.000000,0,8.000000,27.691806,22.119459,99,99,0,0,0,0,0
0,9999,67,0,67,0,40,9999,0.100000,99,0,0.000000,0,1.000000,20.564563,2.375985,99,99,0,0,0,0,0
0,9999,68,0,68,0,41,9999,0.100000,99,0,0.000000,0,3.000000,27.274258,6.473483,99,99,0,0,0,0,0
0,9999,69,0,69,0,40,9999,0.100000,99,0,0.000000,0,2.000000,32.067624,9.035455,99,99,0,0,0,0,0
0,9999,70,0,70,0,0,9999,0.100000,99,0,1.210565,0,1.000000,22.211470,4.096936,99,99,0,0,1,0,0
0,9999,71,0,71,0,40,9999,0.100000,99,0,0.000000,0,1.000000,25.647364,16.421291,99,99,0,0,0,0,0
0,9999,72,0,72,0,0,9999,0.100000,99,0,1.878518,0,0.000000,29.243960,2.383643,99,99,0,0,0,1,0
0,9999,73,0,73,0,41,9999,0.100000,99,0,0.000000,0,3.000000,16.767570,9.351769,99,99,0,0,0,0,0
0,9999,74,0,74,0,0,9999,0.100000,99,0,0.181367,0,1.000000,25.825612,4.256011,99,99,0,1,0,0,0
0,9999,75,0,75,0,40,9999,0.100000,99,0,0.000000,0,1.000000,30.611890,5.311464,99,99,0,0,0,0,0
0,9999,76,0,76,0,42,9999,0.100000,99,0,0.000000,0,5.000000,19.808670,10.602184,99,99,0,0,0,0,0
0,9999,77,0,77,0,40,9999,0.100000,99,0,0.000000,0,1.000000,23.929106,14.433674,99,99,0,0,0,0,0
0,9999,78,0,78,0,45,9999,0.100000,99,0,0.000000,0,9.000000,16.381223,27.952213,99,99,0,0,0,0,0
0,9999,79,0,79,0,90,9999,0.100000,99,0,8.481811,0,1.000000,29.318903,5.228161,99,99,1,0,0,0,0
0,9999,80,0,80,0,0,9999,0.100000,99,0,0.001976,0,0.000000,27.344163,0.462158,99,99,0,0,0,0,1
0,9999,81,0,81,0,40,9999,0.100000,99,0,0.000000,0,1.000000,18.102469,14.882375,99,99,0,0,0,0,0
0,9999,82,0,82,0,40,9999,0.100000,99,0,0.000000,0,0.000000,29.160376,1.120250,99,99,0,0,0,0,0
0,9999,83,0,83,0,40,9999,0.100000,99,0,0.000000,0,1.000000,23.553228,8.148547,99,99,0,0,0,0,0
0,9999,84,0,84,0,41,9999,0.100000,99,0,0.000000,0,2.000000,12.195450,4.027225,99,99,0,0,0,0,0
0,9999,85,0,85,0,0,9999,0.100000,99,0,0.122179,0,0.000000,32.970633,0.414353,99,99,0,0,1,0,0
0,9999,86,0,86,0,40,9999,0.100000,99,0,0.000000,0,2.000000,25.044600,13.439488,99,99,0,0,0,0,0
0,9999,87,0,87,0,42,9999,0.100000,99,0,0.000000,0,4.000000,14.301163,10.720693,99,99,0,0,0,0,0
0,9999,88,0,88,0,41,9999,0.100000,99,0,0.000000,0,3.000000,23.678085,8.232507,99,99,0,0,0,0,0
0,9999,89,0,89,0,40,9999,0.100000,99,0,0.000000,0,0.000000,18.705171,1.404486,99,99,0,0,0,0,0
0,9999,90,0,90,0,40,9999,0.100000,99,0,0.000000,0,1.000000,21.738824,3.787468,99,99,0,0,0,0,0
0,9999,91,0,91,0,0,9999,0.100000,99,0,0.027587,0,0.000000,21.717508,0.593597,99,99,0,0,0,0,1
0,9999,92,0,92,0,40,9999,0.100000,99,0,0.000000,0,0.000000,18.381527,7.714874,99,99,0,0,0,0,0
0,9999,93,0,93,0,41,9999,0.100000,99,0,0.000000,0,3.000000,26.152399,5.498286,99,99,0,0,0,0,0
0,9999,94,0,94,0,40,9999,0.100000,99,0,0.000000,0,1.000000,31.303755,3.107620,99,99,0,0,0,0,0
0,9999,95,0,95,0,40,9999,0.100000,99,0,0.000000,0,1.000000,32.864164,3.726106,99,99,0,0,0,0,0
0,9999,96,0,96,0,40,9999,0.100000,99,0,0.000000,0,1.000000,21.552489,3.245658,99,99,0,0,0,0,0
0,9999,97,0,97,0,41,9999,0.100000,99,0,0.000000,0,3.000000,22.628935,8.347128,99,99,0,0,0,0,0
0,9999,98,0,98,0,40,9999,0.100000,99,0,0.000000,0,2.000000,22.753431,9.780845,99,99,0,0,0,0,0
0,9999,99,0,99,0,41,9999,0.100000,99,0,0.000000,0,4.000000,29.437078,5.970733,99,99,0,0,0,0,0
1,19999,0,10000,16,0,0,9999,0.100000,99,0,0.020797,6,0.000000,23.793791,0.184112,99,99,0,1,0,0,0
1,19999,1,10000,15,0,0,9999,0.100000,99,0,1.162045,5,0.000000,29.028625,0.485871,99,99,0,0,0,0,1
1,19999,2,10000,78,0,41,9999,0.100000,99,0,0.000000,9,4.000000,28.024471,12.132869,99,99,0,0,0,0,0
1,19999,3,10000,3,0,40,9999,0.100000,99,0,0.000000,1,0.000000,25.525279,1.025480,99,99,0,0,0,0,0
1,19999,4,10000,3,0,0,9999,0.100000,99,0,1.632524,2,0.000000,32.235823,0.331333,99,99,0,0,1,0,0
1,19999,5,10000,9,0,40,9999,0.100000,99,0,0.000000,6,0.000000,19.529399,0.651417,99,99,0,0,0,0,0
1,19999,6,10000,43,0,40,9999,0.100000,99,0,0.000000,6,2.000000,23.101534,13.478518,99,99,0,0,0,0,0
1,19999,7,10000,3,0,41,9999,0.100000,99,0,0.000000,2,4.000000,25.852596,13.351767,99,99,0,0,0,0,0
1,19999,8,10000,15,0,40,9999,0.100000,99,0,0.000000,7,0.000000,19.625680,0.902016,99,99,0,0,0,0,0
1,19999,9,10000,31,0,42,9999,0.100000,99,0,0.000000,5,9.000000,28.968574,15.928261,99,99,0,0,0,0,0
1,19999,10,10000,31,0,40,9999,0.100000,99,0,0.000000,5,1.000000,25.138000,10.058394,99,99,0,0,0,0,0
1,19999,11,10000,16,0,41,9999,0.100000,99,0,0.000000,6,3.000000,27.592643,12.024705,99,99,0,0,0,0,0
1,19999,12,10000,21,0,0,9999,0.100000,99,0,0.008330,9,0.000000,24.915064,0.084623,99,99,0,0,0,0,1
1,19999,13,10000,21,0,41,9999,0.100000,99,0,0.000000,9,4.000000,22.196205,11.533847,99,99,0,0,0,0,0
1,19999,14,10000,43,0,40,9999,0.100000,99,0,0.000000,7,2.000000,25.742227,22.008081,99,99,0,0,0,0,0
1,19999,15,10000,17,0,40,9999,0.100000,99,0,0.000000,5,2.000000,35.509689,12.508867,99,99,0,0,0,0,0
1,19999,16,10000,9,0,42,9999,0.100000,99,0,0.000000,5,5.000000,20.181519,7.158699,99,99,0,0,0,0,0
1,19999,17,10000,17,0,0,9999,0.100000,99,0,6.280831,2,1.000000,19.072116,1.326356,99,99,0,0,1,0,0
1,19999,18,10000,1,0,0,9999,0.100000,99,0,3.654064,10,1.000000,25.150428,1.539788,99,99,0,1,0,0,0
1,19999,19,10000,19,0,0,9999,0.100000,99,0,0.162560,10,0.000000,24.642846,0.168257,99,99,0,1,0,0,0
1,19999,20,10000,53,0,40,9999,0.100000,99,0,0.000000,9,1.000000,30.316440,1.432570,99,99,0,0,0,0,0
1,19999,21,10000,15,0,40,9999,0.100000,99,0,0.000000,7,1.000000,30.902323,7.517094,99,99,0,0,0,0,0
1,19999,22,10000,37,0,0,9999,0.100000,99,0,0.416306,5,0.000000,14.167230,0.511482,99,99,0,0,0,0,1
1,19999,23,10000,78,0,40,9999,0.100000,99,0,0.000000,10,0.000000,29.144568,5.712019,99,99,0,0,0,0,0
1,19999,24,10000,16,0,2,9999,0.100000,99,0,46.467810,7,9.000000,28.677276,15.121447,99,99,0,1,0,0,0
1,19999,25,10000,1,0,40,9999,0.100000,99,0,0.000000,7,0.000000,29.931463,2.597915,99,99,0,0,0,0,0
1,19999,26,10000,53,0,40,9999,0.100000,99,0,0.000000,7,1.000000,29.932093,2.645253,99,99,0,0,0,0,0
1,19999,27,10000,21,0,0,9999,0.065000,99,0,0.633594,7,0.000000,29.372295,0.255036,99,99,0,0,1,0,0
1,19999,28,10000,43,0,40,9999,0.100000,99,0,0.000000,7,0.000000,21.839319,21.446344,99,99,0,0,0,0,0
1,19999,29,10000,15,0,40,9999,0.100000,99,0,0.000000,6,1.000000,24.605180,5.011736,99,99,0,0,0,0,0
1,19999,30,10000,34,0,42,9999,0.100000,99,0,0.000000,7,3.000000,11.835782,6.402803,99,99,0,0,0,0,0
1,19999,31,10000,17,0,0,9999,0.100000,99,0,0.775249,3,0.000000,19.333669,1.170917,99,99,0,0,0,1,0
1,19999,32,10000,15,0,40,9999,0.100000,99,0,0.000000,6,1.000000,20.440588,5.921679,99,99,0,0,0,0,0
1,19999,33,10000,16,0,0,9999,0.100000,99,0,0.547845,6,0.000000,22.835602,3.220085,99,99,0,0,0,1,0
1,19999,34,10000,15,0,0,9999,0.100000,99,0,2.087740,6,0.000000,28.880464,2.272207,99,99,0,1,0,0,0
1,19999,35,10000,3,0,0,9999,0.100000,99,0,2.927564,3,0.000000,24.181588,2.138491,99,99,0,1,0,0,0
1,19999,36,10000,1,0,40,9999,0.100000,99,0,0.000000,6,1.000000,25.001402,11.759612,99,99,0,0,0,0,0
1,19999,37,10000,3,0,40,9999,0.100000,99,0,0.000000,4,1.000000,18.870433,22.961462,99,99,0,0,0,0,0
1,19999,38,10000,37,0,40,9999,0.100000,99,0,0.000000,5,0.000000,21.686353,20.402706,99,99,0,0,0,0,0
1,19999,39,10000,16,0,40,9999,0.100000,99,0,0.000000,7,0.000000,28.757087,0.390875,99,99,0,0,0,0,0
1,19999,40,10000,63,0,0,9999,0.100000,99,0,0.525845,10,0.000000,29.280566,0.199078,99,99,0,0,1,0,0
1,19999,41,10000,43,0,42,9999,0.100000,99,0,33.553707,10,6.000000,21.856088,11.548952,99,99,1,0,0,0,1
1,19999,42,10000,63,0,40,9999,0.100000,99,0,0.000000,9,0.000000,24.013188,1.355338,99,99,0,0,0,0,0
1,19999,43,10000,43,0,40,9999,0.100000,99,0,0.000000,5,1.000000,29.854137,1.463295,99,99,0,0,0,0,0
1,19999,44,10000,15,0,40,9999,0.100000,99,0,0.000000,6,0.000000,19.509340,1.291075,99,99,0,0,0,0,0
1,19999,45,10000,63,0,0,9999,0.100000,99,0,1.277691,7,0.000000,32.125949,0.286298,99,99,0,0,0,1,0
1,19999,46,10000,1,0,41,9999,0.100000,99,0,0.000000,5,2.000000,17.381820,13.791675,99,99,0,0,0,0,0
1,19999,47,10000,9,0,0,9999,0.065000,99,0,0.066791,5,0.000000,30.328479,0.114281,99,99,0,0,0,1,0
1,19999,48,10000,34,0,40,9999,0.100000,99,0,0.000000,9,2.000000,28.904009,5.897279,99,99,0,0,0,0,0
1,19999,49,10000,17,0,40,9999,0.100000,99,0,0.000000,5,1.000000,28.132747,16.238688,99,99,0,0,0,0,0
1,19999,50,10000,15,0,40,9999,0.100000,99,0,0.000000,5,0.000000,21.368051,3.503725,99,99,0,0,0,0,0
1,19999,51,10000,53,0,0,9999,0.100000,99,0,0.368392,10,0.000000,24.054057,1.195092,99,99,0,0,0,0,1
1,19999,52,10000,1,0,41,9999,0.100000,99,0,0.000000,7,3.000000,24.901099,6.640273,99,99,0,0,0,0,0
1,19999,53,10000,15,0,40,9999,0.100000,99,0,0.000000,7,1.000000,14.284767,4.308917,99,99,0,0,0,0,0
1,19999,54,10000,16,0,40,9999,0.100000,99,0,0.000000,7,0.000000,21.386680,24.292593,99,99,0,0,0,0,0
1,19999,55,10000,9,0,40,9999,0.100000,99,0,0.000000,5,0.000000,22.633109,1.067561,99,99,0,0,0,0,0
1,19999,56,10000,21,0,40,9999,0.100000,99,0,0.000000,7,2.000000,23.211323,4.457426,99,99,0,0,0,0,0
1,19999,57,10000,1,0,40,9999,0.100000,99,0,0.000000,7,0.000000,14.034542,0.601181,99,99,0,0,0,0,0
1,19999,58,10000,43,0,90,9999,0.100000,99,0,0.007385,5,0.000000,13.816019,0.595778,99,99,1,0,0,0,0
1,19999,59,10000,34,0,40,9999,0.100000,99,0,0.000000,10,0.000000,22.309561,1.324039,99,99,0,0,0,0,0
1,19999,60,10000,21,0,0,9999,0.100000,99,0,0.921650,7,0.000000,26.093269,0.366878,99,99,0,1,0,0,0
1,19999,61,10000,3,0,40,9999,0.100000,99,0,0.000000,5,1.000000,24.748133,3.236791,99,99,0,0,0,0,0
1,19999,62,10000,53,0,40,9999,0.100000,99,0,0.000000,7,0.000000,25.562829,0.097332,99,99,0,0,0,0,0
1,19999,63,10000,1,0,0,9999,0.100000,99,0,0.003130,6,0.000000,26.686036,0.109941,99,99,0,0,1,0,0
1,19999,64,10000,21,0,40,9999,0.100000,99,0,0.000000,7,0.000000,19.156195,0.931058,99,99,0,0,0,0,0
1,19999,65,10000,16,0,2,9999,0.100000,99,0,0.013833,7,6.000000,27.685166,13.119293,99,99,0,0,0,1,0
1,19999,66,10000,43,0,41,9999,0.100000,99,0,0.000000,10,3.000000,27.966841,3.974842,99,99,0,0,0,0,0
1,19999,67,10000,78,0,0,9999,0.100000,99,0,0.138297,9,0.000000,19.703282,0.313525,99,99,0,0,0,0,1
1,19999,68,10000,21,0,40,9999,0.100000,99,0,0.000000,7,0.000000,28.542847,0.328117,99,99,0,0,0,0,0
1,19999,69,10000,34,0,40,9999,0.100000,99,0,0.000000,7,0.000000,29.635402,1.049146,99,99,0,0,0,0,0
1,19999,70,10000,63,0,0,9999,0.100000,99,0,3.075425,6,0.000000,21.215525,1.193984,99,99,0,0,1,0,0
1,19999,71,10000,16,0,40,9999,0.100000,99,0,0.000000,6,2.000000,25.479272,10.996883,99,99,0,0,0,0,0
1,19999,72,10000,15,0,0,9999,0.100000,99,0,1.210976,10,0.000000,29.252651,0.387830,99,99,0,0,0,1,0
1,19999,73,10000,53,0,40,9999,0.100000,99,0,0.000000,7,0.000000,14.350501,0.954810,99,99,0,0,0,0,0
1,19999,74,10000,15,0,0,9999,0.100000,99,0,0.195210,10,0.000000,25.994077,0.143284,99,99,0,1,0,0,0
1,19999,75,10000,1,0,0,9999,0.100000,99,0,0.271462,10,1.000000,29.517841,3.803480,99,99,0,0,0,1,0
1,19999,76,10000,9,0,40,9999,0.100000,99,0,0.000000,6,1.000000,24.360976,17.661642,99,99,0,0,0,0,0
1,19999,77,10000,43,0,40,9999,0.100000,99,0,0.000000,7,2.000000,22.520976,10.194870,99,99,0,0,0,0,0
1,19999,78,10000,34,0,47,9999,0.100000,99,0,0.000000,8,9.000000,12.123355,20.822068,99,99,0,0,0,0,0
1,19999,79,10000,21,0,94,9999,0.100000,99,0,72.017090,10,14.000000,29.959209,24.188696,99,99,1,0,0,0,0
1,19999,80,10000,78,0,40,9999,0.100000,99,0,0.000000,10,0.000000,27.342116,0.444023,99,99,0,0,0,0,0
1,19999,81,10000,1,0,43,9999,0.100000,99,0,0.000000,7,6.000000,18.906150,8.533426,99,99,0,0,0,0,0
1,19999,82,10000,43,0,40,9999,0.100000,99,0,0.000000,6,1.000000,29.672769,1.436698,99,99,0,0,0,0,0
1,19999,83,10000,21,0,40,9999,0.100000,99,0,0.000000,7,1.000000,22.915000,8.472669,99,99,0,0,0,0,0
1,19999,84,10000,1,0,40,9999,0.100000,99,0,0.000000,8,0.000000,14.095165,0.841055,99,99,0,0,0,0,0
1,19999,85,10000,63,0,0,9999,0.100000,99,0,2.058380,10,0.000000,33.111420,0.642748,99,99,0,0,1,0,0
1,19999,86,10000,1,0,40,9999,0.100000,99,0,0.000000,9,2.000000,25.288249,4.233203,99,99,0,0,0,0,0
1,19999,87,10000,43,0,41,9999,0.100000,99,0,0.000000,9,2.000000,18.377162,21.579934,99,99,0,0,0,0,0
1,19999,88,10000,15,0,40,9999,0.100000,99,0,0.000000,7,1.000000,25.009573,2.856364,99,99,0,0,0,0,0
1,19999,89,10000,1,0,40,9999,0.100000,99,0,0.000000,7,0.000000,18.156014,0.492725,99,99,0,0,0,0,0
1,19999,90,10000,78,0,40,9999,0.100000,99,0,0.000000,10,1.000000,20.836621,11.614371,99,99,0,0,0,0,0
1,19999,91,10000,1,0,0,9999,0.100000,99,0,0.204154,9,0.000000,21.752649,0.220493,99,99,0,0,0,0,1
1,19999,92,10000,31,0,40,9999,0.100000,99,0,0.000000,5,0.000000,18.984948,1.164559,99,99,0,0,0,0,0
1,19999,93,10000,3,0,40,9999,0.100000,99,0,0.000000,3,0.000000,29.140696,2.049745,99,99,0,0,0,0,0
1,19999,94,10000,41,0,40,9999,0.100000,99,0,0.000000,10,0.000000,30.568821,0.117995,99,99,0,0,0,0,0
1,19999,95,10000,63,0,40,9999,0.100000,99,0,0.000000,9,0.000000,31.799362,0.991803,99,99,0,0,0,0,0
1,19999,96,10000,1,0,40,9999,0.100000,99,0,0.000000,10,1.000000,22.673546,9.597481,99,99,0,0,0,0,0
1,19999,97,10000,1,0,40,9999,0.100000,99,0,0.000000,9,2.000000,20.699105,17.222077,99,99,0,0,0,0,0
1,19999,98,10000,43,0,40,9999,0.100000,99,0,0.000000,9,1.000000,21.361007,9.492048,99,99,0,0,0,0,0
1,19999,99,10000,87,0,40,9999,0.100000,99,0,0.000000,9,1.000000,29.853077,10.076011,99,99,0,0,0,0,0
2,29999,0,20000,41,0,0,9999,0.100000,99,0,0.026290,10,0.000000,23.758202,0.180492,99,99,0,1,0,0,0
2,29999,1,20000,78,10000,0,9999,0.100000,99,0,0.482053,12,0.000000,29.076405,0.263179,99,99,0,0,0,0,1
2,29999,2,20000,15,0,0,9999,0.100000,99,0,0.074247,11,0.000000,32.114656,0.566214,99,99,0,0,1,0,0
2,29999,3,20000,41,0,40,9999,0.100000,99,0,0.000000,10,0.000000,24.738132,1.025473,99,99,0,0,0,0,0
2,29999,4,20000,34,0,40,9999,0.100000,99,0,0.000000,12,0.000000,32.384191,0.254583,99,99,0,0,0,0,0
2,29999,5,20000,34,0,40,9999,0.100000,99,0,0.000000,10,0.000000,19.487760,1.486426,99,99,0,0,0,0,0
2,29999,6,20000,24,10000,1,9999,0.100000,99,0,1.878104,12,3.000000,22.177320,4.606567,99,99,0,0,0,1,0
2,29999,7,20000,34,0,40,9999,0.100000,99,0,0.000000,10,0.000000,30.086533,1.035644,99,99,0,0,0,0,0
2,29999,8,20000,24,10000,0,9999,0.100000,99,0,0.093738,12,0.000000,19.564364,2.275944,99,99,0,0,0,0,1
2,29999,9,20000,34,0,0,9999,0.100000,99,0,2.031479,10,0.000000,33.068759,2.363613,99,99,0,1,0,0,0
2,29999,10,20000,78,10000,40,9999,0.100000,99,0,0.000000,12,1.000000,25.271398,20.378952,99,99,0,0,0,0,0
2,29999,11,20000,1,0,40,9999,0.100000,99,0,0.000000,12,1.000000,30.270263,7.981082,99,99,0,0,0,0,0
2,29999,12,20000,9,10000,0,9999,0.100000,99,0,0.148252,10,0.000000,24.914076,0.471330,99,99,0,0,0,0,1
2,29999,13,20000,34,0,0,9999,0.100000,99,0,0.093069,11,1.000000,18.484118,3.632512,99,99,0,0,0,0,1
2,29999,14,20000,63,0,40,9999,0.100000,99,0,0.000000,10,1.000000,24.566885,7.723121,99,99,0,0,0,0,0
2,29999,15,20000,19,0,41,9999,0.100000,99,0,0.000000,12,4.000000,33.796076,12.999697,99,99,0,0,0,0,0
2,29999,16,20000,78,10000,40,9999,0.100000,99,0,0.000000,12,0.000000,23.058045,0.250666,99,99,0,0,0,0,0
2,29999,17,20000,63,0,0,9999,0.100000,99,0,2.889511,12,0.000000,19.591968,0.631574,99,99,0,0,1,0,0
2,29999,18,20000,63,0,1,9999,0.100000,99,0,16.258308,11,3.000000,26.111650,17.074899,99,99,0,1,0,0,0
2,29999,19,20000,78,0,0,9999,0.100000,99,0,0.186006,10,0.000000,24.604936,0.159871,99,99,0,1,0,0,0
2,29999,20,20000,63,0,40,9999,0.100000,99,0,0.000000,11,1.000000,30.914937,9.409848,99,99,0,0,0,0,0
2,29999,21,20000,19,0,40,9999,0.100000,99,0,0.000000,12,1.000000,30.044347,6.035254,99,99,0,0,0,0,0
2,29999,22,20000,78,10000,0,9999,0.100000,99,0,2.491274,12,0.000000,14.489535,0.940952,99,99,0,0,0,0,1
2,29999,23,20000,63,0,40,9999,0.100000,99,0,0.000000,12,0.000000,29.179749,1.820926,99,99,0,0,0,0,0
2,29999,24,20000,24,10000,40,9999,0.100000,99,0,0.000000,12,0.000000,32.825107,1.476496,99,99,0,0,0,0,0
2,29999,25,20000,19,0,40,9999,0.100000,99,0,0.000000,10,0.000000,29.939997,1.012832,99,99,0,0,0,0,0
2,29999,26,20000,41,0,40,9999,0.100000,99,0,0.000000,11,0.000000,30.614990,0.980268,99,99,0,0,0,0,0
2,29999,27,20000,79,10000,0,9999,0.100000,99,0,1.572054,12,0.000000,29.427685,0.424441,99,99,0,0,1,0,0
2,29999,28,20000,15,0,40,9999,0.100000,99,0,0.000000,12,0.000000,22.475746,24.206134,99,99,0,0,0,0,0
2,29999,29,20000,24,10000,40,9999,0.100000,99,0,0.000000,12,2.000000,25.564200,9.364621,99,99,0,0,0,0,0
2,29999,30,20000,53,0,40,9999,0.100000,99,0,0.000000,11,0.000000,14.330232,1.331214,99,99,0,0,0,0,0
2,29999,31,20000,15,0,40,9999,0.100000,99,0,0.000000,12,0.000000,19.277157,0.992030,99,99,0,0,0,0,0
2,29999,32,20000,1,0,40,9999,0.100000,99,0,0.000000,12,0.000000,20.075477,0.796750,99,99,0,0,0,0,0
2,29999,33,20000,34,0,40,9999,0.100000,99,0,0.000000,12,2.000000,22.286971,3.347739,99,99,0,0,0,0,0
2,29999,34,20000,9,10000,0,9999,0.100000,99,0,0.307850,10,0.000000,28.338876,6.061632,99,99,0,1,0,0,0
2,29999,35,20000,24,10000,0,9999,0.100000,99,0,0.028237,12,0.000000,23.904427,0.217024,99,99,0,1,0,0,0
2,29999,36,20000,1,0,2,9999,0.100000,99,0,31.537487,12,7.000000,25.584499,10.831429,99,99,0,1,0,0,0
2,29999,37,20000,41,10000,40,9999,0.100000,99,0,0.000000,12,0.000000,19.856888,0.707536,99,99,0,0,0,0,0
2,29999,38,20000,21,0,40,9999,0.100000,99,0,0.000000,12,0.000000,21.757171,7.583211,99,99,0,0,0,0,0
2,29999,39,20000,79,10000,40,9999,0.100000,99,0,0.000000,12,0.000000,28.816853,0.202463,99,99,0,0,0,0,0
2,29999,40,20000,9,10000,0,9999,0.100000,99,0,0.386779,10,0.000000,29.252963,0.444854,99,99,0,0,0,1,0
2,29999,41,20000,34,0,0,9999,0.100000,99,0,0.076252,12,0.000000,26.635269,0.129962,99,99,0,0,0,0,1
2,29999,42,20000,9,10000,41,9999,0.100000,99,0,0.000000,12,3.000000,23.087537,9.948032,99,99,0,0,0,0,0
2,29999,43,20000,21,0,0,9999,0.100000,99,0,2.044096,12,0.000000,30.385850,0.925392,99,99,0,0,0,1,0
2,29999,44,20000,34,0,0,9999,0.100000,99,0,2.022317,12,0.000000,19.471078,1.201755,99,99,0,0,0,1,0
2,29999,45,20000,19,0,0,9999,0.100000,99,0,0.002064,12,0.000000,32.282111,3.528484,99,99,0,0,0,2,0
2,29999,46,20000,63,0,40,9999,0.100000,99,0,0.000000,12,1.000000,18.253116,5.141987,99,99,0,0,0,0,0
2,29999,47,20000,9,10000,0,9999,0.100000,99,0,0.420218,11,0.000000,30.348474,0.217817,99,99,0,0,0,1,0
2,29999,48,20000,53,0,40,9999,0.100000,99,0,0.000000,12,0.000000,27.405507,2.972806,99,99,0,0,0,0,0
2,29999,49,20000,21,0,40,9999,0.100000,99,0,0.000000,12,1.000000,27.704429,10.544042,99,99,0,0,0,0,0
2,29999,50,20000,9,10000,40,9999,0.100000,99,0,0.000000,11,0.000000,21.797339,2.860053,99,99,0,0,0,0,0
2,29999,51,20000,1,0,41,9999,0.100000,99,0,0.000000,12,3.000000,23.137791,10.581732,99,99,0,0,0,0,0
2,29999,52,20000,19,0,40,9999,0.100000,99,0,0.000000,12,0.000000,27.886284,0.997577,99,99,0,0,0,0,0
2,29999,53,20000,63,0,41,9999,0.100000,99,0,0.000000,12,2.000000,14.563645,17.934441,99,99,0,0,0,0,0
2,29999,54,20000,63,0,40,9999,0.100000,99,0,0.000000,10,0.000000,21.622546,24.736030,99,99,0,0,0,0,0
2,29999,55,20000,78,0,40,9999,0.100000,99,0,0.000000,11,2.000000,22.333149,3.866065,99,99,0,0,0,0,0
2,29999,56,20000,53,0,40,9999,0.100000,99,0,0.000000,12,1.000000,21.484852,2.608318,99,99,0,0,0,0,0
2,29999,57,20000,78,10000,40,9999,0.100000,99,0,0.000000,11,0.000000,14.463600,1.053388,99,99,0,0,0,0,0
2,29999,58,20000,9,10000,90,9999,0.100000,99,0,0.074350,10,0.000000,13.856565,0.574720,99,99,1,0,0,0,0
2,29999,59,20000,19,0,40,9999,0.100000,99,0,0.000000,11,0.000000,22.435493,1.290097,99,99,0,0,0,0,0
2,29999,60,20000,34,0,0,9999,0.100000,99,0,0.128152,12,0.000000,26.175821,0.184230,99,99,0,1,0,0,0
2,29999,61,20000,41,10000,41,9999,0.100000,99,0,0.000000,12,3.000000,23.256084,19.943224,99,99,0,0,0,0,0
2,29999,62,20000,21,0,40,9999,0.100000,99,0,0.000000,12,0.000000,25.562114,0.110034,99,99,0,0,0,0,0
2,29999,63,20000,78,10000,0,9999,0.100000,99,0,0.005561,12,0.000000,26.686960,0.124450,99,99,0,0,1,0,0
2,29999,64,20000,15,0,40,9999,0.100000,99,0,0.000000,12,0.000000,19.081904,0.792268,99,99,0,0,0,0,0
2,29999,65,20000,1,0,40,9999,0.100000,99,0,0.000000,10,0.000000,32.586460,0.985390,99,99,0,0,0,0,0
2,29999,66,20000,63,0,40,9999,0.100000,99,0,0.000000,12,0.000000,27.208029,0.344891,99,99,0,0,0,0,0
2,29999,67,20000,79,10000,40,9999,0.100000,99,0,0.000000,12,0.000000,19.644924,0.419616,99,99,0,0,0,0,0
2,29999,68,20000,19,0,40,9999,0.100000,99,0,0.000000,12,0.000000,28.598100,0.289604,99,99,0,0,0,0,0
2,29999,69,20000,53,0,40,9999,0.100000,99,0,0.000000,11,0.000000,29.476795,15.406266,99,99,0,0,0,0,0
2,29999,70,20000,63,0,0,9999,0.100000,99,0,2.130709,12,2.000000,21.534819,6.998480,99,99,0,0,1,0,0
2,29999,71,20000,53,0,40,9999,0.100000,99,0,0.000000,12,1.000000,24.498759,7.742063,99,99,0,0,0,0,0
2,29999,72,20000,15,0,0,9999,0.100000,99,0,0.450424,12,0.000000,29.252578,0.656025,99,99,0,0,0,1,0
2,29999,73,20000,34,0,40,9999,0.100000,99,0,0.000000,12,0.000000,14.568959,0.866829,99,99,0,0,0,0,0
2,29999,74,20000,78,0,42,9999,0.100000,99,0,0.000000,12,6.000000,25.970527,6.415233,99,99,0,0,0,0,0
2,29999,75,20000,21,0,40,9999,0.100000,99,0,0.000000,12,1.000000,30.608058,1.182251,99,99,0,0,0,0,0
2,29999,76,20000,15,0,41,9999,0.100000,99,0,0.000000,12,4.000000,23.617670,10.132808,99,99,0,0,0,0,0
2,29999,77,20000,53,0,40,9999,0.100000,99,0,0.000000,11,2.000000,23.222494,3.928701,99,99,0,0,0,0,0
2,29999,78,20000,21,0,40,9999,0.100000,99,0,0.000000,11,0.000000,14.531901,0.763974,99,99,0,0,0,0,0
2,29999,79,20000,78,0,40,9999,0.100000,99,0,0.000000,12,2.000000,36.031486,10.911266,99,99,0,0,0,0,0
2,29999,80,20000,79,10000,42,9999,0.100000,99,0,0.000000,12,7.000000,27.347673,28.860791,99,99,0,0,0,0,0
2,29999,81,20000,41,0,40,9999,0.100000,99,0,0.000000,11,0.000000,12.407479,0.322575,99,99,0,0,0,0,0
2,29999,82,20000,21,0,42,9999,0.100000,99,0,0.000000,12,7.000000,30.182702,15.620797,99,99,0,0,0,0,0
2,29999,83,20000,19,0,41,9999,0.100000,99,0,0.000000,12,3.000000,21.919947,10.468741,99,99,0,0,0,0,0
2,29999,84,20000,78,0,40,9999,0.100000,99,0,0.000000,12,0.000000,14.474857,0.973412,99,99,0,0,0,0,0
2,29999,85,20000,1,0,40,9999,0.100000,99,0,0.000000,12,0.000000,33.334432,2.834493,99,99,0,0,0,0,0
2,29999,86,20000,24,10000,40,9999,0.100000,99,0,0.000000,12,0.000000,25.133485,0.421650,99,99,0,0,0,0,0
2,29999,87,20000,63,0,40,9999,0.100000,99,0,0.000000,11,0.000000,18.013995,1.012088,99,99,0,0,0,0,0
2,29999,88,20000,63,0,1,9999,0.100000,99,0,16.352910,12,4.000000,25.969169,16.358939,99,99,0,1,0,0,0
2,29999,89,20000,21,0,40,9999,0.100000,99,0,0.000000,12,0.000000,17.953132,1.140281,99,99,0,0,0,0,0
2,29999,90,20000,15,0,40,9999,0.100000,99,0,0.000000,12,0.000000,21.487674,1.085496,99,99,0,0,0,0,0
2,29999,91,20000,53,0,0,9999,0.100000,99,0,0.247541,12,0.000000,21.782133,0.222059,99,99,0,0,0,0,1
2,29999,92,20000,9,10000,40,9999,0.100000,99,0,0.000000,12,0.000000,18.885013,1.006362,99,99,0,0,0,0,0
2,29999,93,20000,1,0,40,9999,0.100000,99,0,0.000000,12,0.000000,28.607831,7.979927,99,99,0,0,0,0,0
2,29999,94,20000,15,0,40,9999,0.100000,99,0,0.000000,12,0.000000,30.588614,0.183612,99,99,0,0,0,0,0
2,29999,95,20000,53,0,0,9999,0.100000,99,0,0.000000,11,1.000000,32.072299,4.033586,99,99,0,0,0,1,0
2,29999,96,20000,41,0,41,9999,0.100000,99,0,0.000000,11,3.000000,22.981009,5.362336,99,99,0,0,0,0,0
2,29999,97,20000,34,0,40,9999,0.100000,99,0,0.000000,12,0.000000,21.530951,16.651116,99,99,0,0,0,0,0
2,29999,98,20000,34,0,40,9999,0.100000,99,0,0.000000,12,0.000000,21.612986,4.360866,99,99,0,0,0,0,0
2,29999,99,20000,24,10000,40,9999,0.100000,99,0,0.000000,12,0.000000,30.121492,3.372940,99,99,0,0,0,0,0
3,39999,0,30000,78,0,0,9999,0.100000,99,0,0.009065,12,0.000000,23.722085,0.183564,99,99,0,1,0,0,0
3,39999,1,30000,53,0,0,9999,0.100000,99,0,0.302457,12,0.000000,29.114650,0.148556,99,99,0,0,0,0,1
3,39999,2,30000,15,0,0,9999,0.100000,99,0,2.791759,12,0.000000,32.284692,0.759474,99,99,0,0,1,0,0
3,39999,3,30000,24,10000,40,9999,0.100000,99,0,0.000000,12,0.000000,23.952532,0.987221,99,99,0,0,0,0,0
3,39999,4,30000,88,20000,40,9999,0.135000,99,0,0.000000,12,0.000000,32.457262,1.117179,99,99,0,0,0,0,0
3,39999,5,30000,53,0,40,9999,0.100000,99,0,0.000000,12,0.000000,19.550764,1.515242,99,99,0,0,0,0,0
3,39999,6,30000,78,10000,40,9999,0.100000,99,0,0.000000,12,2.000000,24.614065,5.940436,99,99,0,0,0,0,0
3,39999,7,30000,41,10000,40,9999,0.100000,99,0,0.000000,12,0.000000,30.236877,1.046909,99,99,0,0,0,0,0
3,39999,8,30000,41,10000,0,9999,0.100000,99,0,0.051904,12,0.000000,19.333356,0.874287,99,99,0,0,0,0,1
3,39999,9,30000,78,0,40,9999,0.100000,99,0,0.000000,12,0.000000,33.362147,5.453863,99,99,0,0,0,0,0
3,39999,10,30000,41,10000,40,9999,0.100000,99,0,0.000000,12,0.000000,24.990198,21.644195,99,99,0,0,0,0,0
3,39999,11,30000,15,0,40,9999,0.100000,99,0,0.000000,12,0.000000,30.994511,4.056672,99,99,0,0,0,0,0
3,39999,12,30000,15,0,0,9999,0.100000,99,0,0.211882,12,0.000000,24.907476,0.745083,99,99,0,0,0,0,1
3,39999,13,30000,21,0,0,9999,0.100000,99,0,0.255438,12,0.000000,19.308649,0.262576,99,99,0,0,0,0,1
3,39999,14,30000,79,10000,40,9999,0.100000,99,0,0.000000,12,2.000000,23.990165,13.006615,99,99,0,0,0,0,0
3,39999,15,30000,41,10000,40,9999,0.100000,99,0,0.000000,12,0.000000,30.351856,0.666711,99,99,0,0,0,0,0
3,39999,16,30000,78,10000,40,9999,0.100000,99,0,0.000000,12,0.000000,23.059549,0.230200,99,99,0,0,0,0,0
3,39999,17,30000,34,0,0,9999,0.100000,99,0,2.789950,12,0.000000,19.789863,0.592578,99,99,0,0,1,0,0
3,39999,18,30000,79,10000,40,9999,0.100000,99,0,0.000000,12,0.000000,26.071153,1.037219,99,99,0,0,0,0,0
3,39999,19,30000,63,0,0,9999,0.100000,99,0,0.375259,12,0.000000,24.563919,0.292163,99,99,0,1,0,0,0
3,39999,20,30000,24,10000,40,9999,0.100000,99,0,0.000000,12,2.000000,31.518652,8.583693,99,99,0,0,0,0,0
3,39999,21,30000,88,20000,40,9999,0.100000,99,0,0.000000,12,1.000000,31.263523,10.762446,99,99,0,0,0,0,0
3,39999,22,30000,79,10000,0,9999,0.100000,99,0,1.769303,12,0.000000,15.241727,0.923961,99,99,0,0,0,0,1
3,39999,23,30000,34,0,40,9999,0.100000,99,0,0.000000,12,0.000000,29.432204,0.439724,99,99,0,0,0,0,0
3,39999,24,30000,34,0,0,9999,0.100000,99,0,0.870555,12,0.000000,33.088559,3.436766,99,99,0,1,0,0,0
3,39999,25,30000,21,0,40,9999,0.100000,99,0,0.000000,12,0.000000,30.045773,0.993445,99,99,0,0,0,0,0
3,39999,26,30000,19,0,40,9999,0.100000,99,0,0.000000,12,0.000000,30.832074,1.011283,99,99,0,0,0,0,0
3,39999,27,30000,1,0,0,9999,0.100000,99,0,0.489213,12,0.000000,29.640756,0.253799,99,99,0,0,1,0,0
3,39999,28,30000,1,0,40,9999,0.100000,99,0,0.000000,12,0.000000,21.868257,24.145652,99,99,0,0,0,0,0
3,39999,29,30000,34,0,40,9999,0.100000,99,0,0.000000,12,0.000000,24.975819,0.547226,99,99,0,0,0,0,0
3,39999,30,30000,78,0,40,9999,0.100000,99,0,0.000000,12,0.000000,15.147892,1.255747,99,99,0,0,0,0,0
3,39999,31,30000,1,0,0,9999,0.100000,99,0,8.190699,12,1.000000,19.462935,1.921972,99,99,0,0,0,1,0
3,39999,32,30000,15,0,40,9999,0.100000,99,0,0.000000,12,0.000000,20.285257,0.784193,99,99,0,0,0,0,0
3,39999,33,30000,1,0,0,9999,0.100000,99,0,0.727778,12,0.000000,24.781854,0.252191,99,99,0,0,0,1,0
3,39999,34,30000,21,0,0,9999,0.100000,99,0,2.244902,12,0.000000,28.365858,2.067996,99,99,0,1,0,0,0
3,39999,35,30000,53,0,0,9999,0.100000,99,0,0.036013,12,0.000000,23.909932,0.219088,99,99,0,1,0,0,0
3,39999,36,30000,1,0,40,9999,0.100000,99,0,0.000000,12,1.000000,31.507787,8.875577,99,99,0,0,0,0,0
3,39999,37,30000,24,10000,40,9999,0.100000,99,0,0.000000,12,0.000000,20.059677,0.666660,99,99,0,0,0,0,0
3,39999,38,30000,79,10000,40,9999,0.100000,99,0,0.000000,12,0.000000,21.199767,2.697034,99,99,0,0,0,0,0
3,39999,39,30000,63,0,40,9999,0.100000,99,0,0.000000,12,0.000000,28.854864,0.166609,99,99,0,0,0,0,0
3,39999,40,30000,34,0,0,9999,0.100000,99,0,0.337716,12,0.000000,29.083944,0.232737,99,99,0,0,0,1,0
3,39999,41,30000,21,0,2,9999,0.100000,99,0,0.289462,12,6.000000,26.617857,13.115055,99,99,0,0,0,0,1
3,39999,42,30000,21,0,40,9999,0.100000,99,0,0.000000,12,0.000000,22.090602,0.242278,99,99,0,0,0,0,0
3,39999,43,30000,1,0,0,9999,0.100000,99,0,0.015215,12,0.000000,30.742591,0.529935,99,99,0,0,0,1,0
3,39999,44,30000,78,10000,40,9999,0.100000,99,0,0.000000,12,1.000000,19.603884,2.162985,99,99,0,0,0,0,0
3,39999,45,30000,53,0,0,9999,0.100000,99,0,0.000000,12,3.000000,32.893960,6.624425,99,99,0,0,0,1,0
3,39999,46,30000,1,0,40,9999,0.100000,99,0,0.000000,12,1.000000,19.262343,6.810154,99,99,0,0,0,0,0
3,39999,47,30000,53,0,0,9999,0.100000,99,0,0.575635,12,0.000000,30.384018,0.368126,99,99,0,0,0,1,0
3,39999,48,30000,78,0,40,9999,0.100000,99,0,0.000000,12,0.000000,27.341802,1.582643,99,99,0,0,0,0,0
3,39999,49,30000,15,0,40,9999,0.100000,99,0,0.000000,12,1.000000,28.090244,9.296215,99,99,0,0,0,0,0
3,39999,50,30000,53,0,40,9999,0.100000,99,0,0.000000,12,1.000000,21.849729,13.562189,99,99,0,0,0,0,0
3,39999,51,30000,19,0,40,9999,0.100000,99,0,0.000000,12,0.000000,19.263382,0.487546,99,99,0,0,0,0,0
3,39999,52,30000,15,0,40,9999,0.100000,99,0,0.000000,12,1.000000,28.354363,3.746724,99,99,0,0,0,0,0
3,39999,53,30000,34,0,49,9999,0.100000,99,0,0.000000,12,22.000000,15.999415,32.520012,99,99,0,0,0,0,0
3,39999,54,30000,15,0,40,9999,0.100000,99,0,0.000000,12,0.000000,21.535027,24.385396,99,99,0,0,0,0,0
3,39999,55,30000,15,0,40,9999,0.100000,99,0,0.000000,12,0.000000,24.961536,0.389999,99,99,0,0,0,0,0
3,39999,56,30000,63,0,40,9999,0.100000,99,0,0.000000,12,1.000000,20.516815,3.044527,99,99,0,0,0,0,0
3,39999,57,30000,79,10000,40,9999,0.100000,99,0,0.000000,12,0.000000,15.346987,0.790118,99,99,0,0,0,0,0
3,39999,58,30000,79,10000,90,9999,0.100000,99,0,0.031085,12,0.000000,13.908776,0.571175,99,99,1,0,0,0,0
3,39999,59,30000,53,0,0,9999,0.100000,99,0,0.451935,12,0.000000,22.434484,1.081142,99,99,0,0,0,0,1
3,39999,60,30000,24,10000,0,9999,0.100000,99,0,0.225373,12,0.000000,26.179521,0.172608,99,99,0,1,0,0,0
3,39999,61,30000,78,10000,44,9999,0.100000,99,0,0.000000,12,9.000000,19.891402,32.859628,99,99,0,0,0,0,0
3,39999,62,30000,53,0,40,9999,0.100000,99,0,0.000000,12,0.000000,25.559999,0.163783,99,99,0,0,0,0,0
3,39999,63,30000,24,10000,0,9999,0.100000,99,0,0.002722,12,0.000000,26.685282,0.125320,99,99,0,0,1,0,0
3,39999,64,30000,79,10000,40,9999,0.100000,99,0,0.000000,12,1.000000,19.320675,1.864399,99,99,0,0,0,0,0
3,39999,65,30000,1,0,0,9999,0.100000,99,0,0.000000,12,1.000000,33.096537,2.451117,99,99,0,0,0,1,0
3,39999,66,30000,78,0,0,9999,0.100000,99,0,0.184443,12,0.000000,27.097306,0.430913,99,99,0,0,0,0,1
3,39999,67,30000,78,0,40,9999,0.100000,99,0,0.000000,12,0.000000,19.673802,0.464887,99,99,0,0,0,0,0
3,39999,68,30000,1,0,40,9999,0.100000,99,0,0.000000,12,0.000000,28.635721,0.155772,99,99,0,0,0,0,0
3,39999,69,30000,34,0,40,9999,0.100000,99,0,0.000000,12,0.000000,29.846126,1.271951,99,99,0,0,0,0,0
3,39999,70,30000,34,0,0,9999,0.100000,99,0,3.195458,12,0.000000,21.057544,1.291037,99,99,0,0,1,0,0
3,39999,71,30000,78,10000,41,9999,0.100000,99,0,0.000000,12,4.000000,24.100390,10.364934,99,99,0,0,0,0,0
3,39999,72,30000,41,10000,40,9999,0.100000,99,0,0.000000,12,0.000000,29.368219,1.788748,99,99,0,0,0,0,0
3,39999,73,30000,79,10000,40,9999,0.100000,99,0,0.000000,12,0.000000,15.184610,0.795936,99,99,0,0,0,0,0
3,39999,74,30000,88,20000,0,9999,0.100000,99,0,0.000000,12,1.000000,31.623153,12.870967,99,99,0,1,0,0,0
3,39999,75,30000,41,10000,41,9999,0.100000,99,0,0.000000,12,4.000000,30.989574,6.971418,99,99,0,0,0,0,0
3,39999,76,30000,41,10000,40,9999,0.100000,99,0,0.000000,12,2.000000,20.392540,2.652556,99,99,0,0,0,0,0
3,39999,77,30000,78,10000,40,9999,0.100000,99,0,0.000000,12,0.000000,20.495466,1.305175,99,99,0,0,0,0,0
3,39999,78,30000,34,0,40,9999,0.100000,99,0,0.000000,12,0.000000,15.220560,0.785164,99,99,0,0,0,0,0
3,39999,79,30000,79,10000,1,9999,0.100000,99,0,0.186711,12,4.000000,34.493415,9.030172,99,99,0,0,1,0,0
3,39999,80,30000,41,10000,40,9999,0.100000,99,0,0.000000,12,0.000000,27.321633,0.908616,99,99,0,0,0,0,0
3,39999,81,30000,21,0,40,9999,0.100000,99,0,0.000000,12,0.000000,12.354573,0.405908,99,99,0,0,0,0,0
3,39999,82,30000,1,0,42,9999,0.100000,99,0,0.000000,12,7.000000,30.504696,15.554285,99,99,0,0,0,0,0
3,39999,83,30000,78,10000,40,9999,0.100000,99,0,0.000000,12,0.000000,25.170318,1.135820,99,99,0,0,0,0,0
3,39999,84,30000,41,10000,40,9999,0.100000,99,0,0.000000,12,0.000000,15.293971,0.728899,99,99,0,0,0,0,0
3,39999,85,30000,78,0,40,9999,0.100000,99,0,0.000000,12,1.000000,33.134723,4.133636,99,99,0,0,0,0,0
3,39999,86,30000,41,10000,40,9999,0.100000,99,0,0.000000,12,0.000000,25.137064,0.743570,99,99,0,0,0,0,0
3,39999,87,30000,53,0,40,9999,0.100000,99,0,0.000000,12,0.000000,18.281760,1.110479,99,99,0,0,0,0,0
3,39999,88,30000,41,10000,40,9999,0.100000,99,0,0.000000,12,0.000000,27.418417,3.827021,99,99,0,0,0,0,0
3,39999,89,30000,53,0,40,9999,0.100000,99,0,0.000000,12,0.000000,17.783176,1.022804,99,99,0,0,0,0,0
3,39999,90,30000,34,0,40,9999,0.100000,99,0,0.000000,12,0.000000,20.872684,1.515591,99,99,0,0,0,0,0
3,39999,91,30000,24,10000,40,9999,0.100000,99,0,0.000000,12,0.000000,21.796747,0.691294,99,99,0,0,0,0,0
3,39999,92,30000,15,0,40,9999,0.100000,99,0,0.000000,12,1.000000,19.177837,2.056888,99,99,0,0,0,0,0
3,39999,93,30000,78,0,40,9999,0.100000,99,0,0.000000,12,0.000000,28.604805,2.253627,99,99,0,0,0,0,0
3,39999,94,30000,78,10000,40,9999,0.100000,99,0,0.000000,12,0.000000,30.624371,0.212174,99,99,0,0,0,0,0
3,39999,95,30000,78,0,40,9999,0.135000,99,0,0.000000,12,1.000000,33.125308,4.200778,99,99,0,0,0,0,0
3,39999,96,30000,63,0,40,9999,0.100000,99,0,0.000000,12,0.000000,19.517972,0.285673,99,99,0,0,0,0,0
3,39999,97,30000,21,0,40,9999,0.100000,99,0,0.000000,12,1.000000,21.017332,18.425988,99,99,0,0,0,0,0
3,39999,98,30000,79,10000,40,9999,0.100000,99,0,0.000000,12,0.000000,20.942264,1.710228,99,99,0,0,0,0,0
3,39999,99,30000,34,0,40,9999,0.100000,99,0,0.000000,12,0.000000,29.706430,0.959484,99,99,0,0,0,0,0
4,49999,0,40000,53,0,0,9999,0.100000,99,0,0.006431,12,0.000000,23.691187,0.174878,99,99,0,1,0,0,0
4,49999,1,40000,15,0,0,9999,0.100000,99,0,0.197929,12,0.000000,29.101767,0.121410,99,99,0,0,0,0,1
4,49999,2,40000,24,10000,0,9999,0.100000,99,0,0.030779,12,0.000000,32.731106,0.162780,99,99,0,0,1,0,0
4,49999,3,40000,53,0,40,9999,0.100000,99,0,0.000000,12,0.000000,23.193979,1.023913,99,99,0,0,0,0,0
4,49999,4,40000,78,0,40,9999,0.100000,99,0,0.000000,12,0.000000,33.035033,0.170001,99,99,0,0,0,0,0
4,49999,5,40000,24,10000,40,9999,0.100000,99,0,0.000000,12,0.000000,19.526766,1.094732,99,99,0,0,0,0,0
4,49999,6,40000,53,0,0,9999,0.100000,99,0,0.618738,12,0.000000,24.704128,0.235881,99,99,0,0,0,1,0
4,49999,7,40000,15,0,40,9999,0.100000,99,0,0.000000,12,0.000000,30.416770,1.013991,99,99,0,0,0,0,0
4,49999,8,40000,21,0,0,9999,0.100000,99,0,0.153271,12,0.000000,19.292284,0.836103,99,99,0,0,0,0,1
4,49999,9,40000,21,0,0,9999,0.100000,99,0,1.322021,12,0.000000,33.153454,3.300348,99,99,0,1,0,0,0
4,49999,10,40000,15,0,40,9999,0.100000,99,0,0.000000,12,0.000000,24.977932,13.546223,99,99,0,0,0,0,0
4,49999,11,40000,41,10000,40,9999,0.100000,99,0,0.000000,12,0.000000,31.173417,2.107839,99,99,0,0,0,0,0
4,49999,12,40000,41,10000,0,9999,0.100000,99,0,0.788819,12,0.000000,24.911233,0.462236,99,99,0,0,0,0,1
4,49999,13,40000,53,0,0,9999,0.100000,99,0,0.413934,12,0.000000,19.223352,0.292111,99,99,0,0,0,0,1
4,49999,14,40000,63,0,40,9999,0.100000,99,0,0.000000,12,1.000000,26.314090,5.074574,99,99,0,0,0,0,0
4,49999,15,40000,88,20000,40,9999,0.100000,99,0,0.000000,12,0.000000,30.389937,0.898382,99,99,0,0,0,0,0
4,49999,16,40000,34,0,40,9999,0.100000,99,0,0.000000,12,0.000000,23.061941,0.227184,99,99,0,0,0,0,0
4,49999,17,40000,15,0,40,9999,0.100000,99,0,0.000000,12,0.000000,19.919353,0.682339,99,99,0,0,0,0,0
4,49999,18,40000,15,0,40,9999,0.100000,99,0,0.000000,12,1.000000,26.314533,1.249717,99,99,0,0,0,0,0
4,49999,19,40000,79,10000,0,9999,0.100000,99,0,0.917242,12,1.000000,24.480507,1.600883,99,99,0,1,0,0,0
4,49999,20,40000,78,0,42,9999,0.100000,99,0,0.000000,12,9.000000,30.909379,10.207069,99,99,0,0,0,0,0
4,49999,21,40000,53,0,40,9999,0.100000,99,0,0.000000,12,0.000000,31.012757,4.850124,99,99,0,0,0,0,0
4,49999,22,40000,53,0,4,9999,0.100000,99,0,36.105213,12,7.000000,15.818247,7.421130,99,99,0,0,0,0,1
4,49999,23,40000,79,10000,0,9999,0.100000,99,0,0.176444,12,0.000000,29.488011,0.408893,99,99,0,0,1,0,0
4,49999,24,40000,21,0,40,9999,0.100000,99,0,0.000000,12,1.000000,33.245037,5.408434,99,99,0,0,0,0,0
4,49999,25,40000,53,0,40,9999,0.065000,99,0,0.000000,12,0.000000,30.173606,1.008464,99,99,0,0,0,0,0
4,49999,26,40000,79,10000,40,9999,0.100000,99,0,0.000000,12,0.000000,31.082844,0.977916,99,99,0,0,0,0,0
4,49999,27,40000,63,0,40,9999,0.100000,99,0,0.000000,12,0.000000,29.689552,0.260610,99,99,0,0,0,0,0
4,49999,28,40000,21,0,40,9999,0.100000,99,0,0.000000,12,1.000000,21.400454,16.896923,99,99,0,0,0,0,0
4,49999,29,40000,79,10000,40,9999,0.100000,99,0,0.000000,12,0.000000,25.108814,0.422238,99,99,0,0,0,0,0
4,49999,30,40000,41,10000,41,9999,0.100000,99,0,0.000000,12,2.000000,15.778719,5.830641,99,99,0,0,0,0,0
4,49999,31,40000,63,0,40,9999,0.100000,99,0,0.000000,12,0.000000,20.949430,0.432986,99,99,0,0,0,0,0
4,49999,32,40000,34,0,40,9999,0.100000,99,0,0.000000,12,0.000000,20.329158,0.755948,99,99,0,0,0,0,0
4,49999,33,40000,53,0,40,9999,0.100000,99,0,0.000000,12,0.000000,24.887105,0.242035,99,99,0,0,0,0,0
4,49999,34,40000,88,20000,0,9999,0.100000,99,0,0.842246,12,0.000000,28.224534,0.433300,99,99,0,1,0,0,0
4,49999,35,40000,78,10000,0,9999,0.135000,99,0,0.405804,12,0.000000,23.917555,0.902891,99,99,0,1,0,0,0
4,49999,36,40000,34,0,40,9999,0.100000,99,0,0.000000,12,0.000000,31.007286,1.993336,99,99,0,0,0,0,0
4,49999,37,40000,24,10000,0,9999,0.100000,99,0,1.252380,12,0.000000,20.157281,0.566631,99,99,0,0,1,0,0
4,49999,38,40000,21,0,40,9999,0.100000,99,0,0.000000,12,1.000000,20.772705,4.051695,99,99,0,0,0,0,0
4,49999,39,40000,79,10000,40,9999,0.100000,99,0,0.000000,12,0.000000,28.841770,0.131028,99,99,0,0,0,0,0
4,49999,40,40000,15,0,0,9999,0.100000,99,0,0.085273,12,0.000000,29.111577,0.123154,99,99,0,0,0,1,0
4,49999,41,40000,24,10000,2,9999,0.100000,99,0,0.487484,12,6.000000,26.608859,14.006220,99,99,0,0,0,0,1
4,49999,42,40000,41,10000,40,9999,0.100000,99,0,0.000000,12,0.000000,22.092215,0.225742,99,99,0,0,0,0,0
4,49999,43,40000,78,10000,0,9999,0.100000,99,0,0.506924,12,0.000000,30.824138,0.777279,99,99,0,0,0,1,0
4,49999,44,40000,15,0,0,9999,0.100000,99,0,1.141403,12,0.000000,21.014595,0.243502,99,99,0,0,0,1,0
4,49999,45,40000,78,10000,40,9999,0.100000,99,0,0.000000,12,2.000000,32.250233,5.398176,99,99,0,0,0,0,0
4,49999,46,40000,88,20000,40,9999,0.100000,99,0,0.000000,12,0.000000,19.448014,1.957770,99,99,0,0,0,0,0
4,49999,47,40000,63,0,0,9999,0.100000,99,0,2.274753,12,0.000000,30.405728,0.727911,99,99,0,0,0,1,0
4,49999,48,40000,1,0,40,9999,0.100000,99,0,0.000000,12,1.000000,27.269310,2.425072,99,99,0,0,0,0,0
4,49999,49,40000,1,0,42,9999,0.100000,99,0,0.000000,12,6.000000,27.849010,24.675830,99,99,0,0,0,0,0
4,49999,50,40000,15,0,40,9999,0.100000,99,0,0.000000,12,0.000000,21.298109,1.868324,99,99,0,0,0,0,0
4,49999,51,40000,78,0,40,9999,0.100000,99,0,0.000000,12,0.000000,19.171771,0.468211,99,99,0,0,0,0,0
4,49999,52,40000,78,10000,40,9999,0.100000,99,0,0.000000,12,0.000000,28.538697,1.205797,99,99,0,0,0,0,0
4,49999,53,40000,1,0,40,9999,0.100000,99,0,0.000000,12,0.000000,37.996743,0.119019,99,99,0,0,0,0,0
4,49999,54,40000,34,0,0,9999,0.100000,99,0,1.051869,12,0.000000,22.237020,1.401383,99,99,0,0,1,0,0
4,49999,55,40000,53,0,40,9999,0.100000,99,0,0.000000,12,0.000000,25.079603,0.311726,99,99,0,0,0,0,0
4,49999,56,40000,63,0,40,9999,0.100000,99,0,0.000000,12,0.000000,18.523366,1.397403,99,99,0,0,0,0,0
4,49999,57,40000,15,0,44,9999,0.100000,99,0,0.000000,12,7.000000,16.024312,7.789590,99,99,0,0,0,0,0
4,49999,58,40000,41,10000,90,9999,0.100000,99,0,0.092634,12,0.000000,13.956800,0.538733,99,99,1,0,0,0,0
4,49999,59,40000,78,10000,0,9999,0.100000,99,0,0.439588,12,0.000000,22.618027,0.236788,99,99,0,0,0,0,1
4,49999,60,40000,15,0,0,9999,0.100000,99,0,0.225255,12,0.000000,26.148233,0.177921,99,99,0,1,0,0,0
4,49999,61,40000,41,10000,44,9999,0.100000,99,0,0.000000,12,9.000000,20.007159,35.994728,99,99,0,0,0,0,0
4,49999,62,40000,21,0,40,9999,0.100000,99,0,0.000000,12,0.000000,25.565441,0.255053,99,99,0,0,0,0,0
4,49999,63,40000,41,10000,0,9999,0.100000,99,0,0.002411,12,0.000000,26.684473,0.125081,99,99,0,0,1,0,0
4,49999,64,40000,21,0,40,9999,0.100000,99,0,0.000000,12,0.000000,20.877760,0.444574,99,99,0,0,0,0,0
4,49999,65,40000,34,0,41,9999,0.100000,99,0,0.000000,12,4.000000,34.202901,9.225035,99,99,0,0,0,0,0
4,49999,66,40000,78,10000,0,9999,0.100000,99,0,0.032503,12,0.000000,27.160373,0.099891,99,99,0,0,0,0,1
4,49999,67,40000,53,0,40,9999,0.100000,99,0,0.000000,12,0.000000,19.646582,0.447794,99,99,0,0,0,0,0
4,49999,68,40000,15,0,40,9999,0.100000,99,0,0.000000,12,0.000000,28.623253,0.122839,99,99,0,0,0,0,0
4,49999,69,40000,1,0,40,9999,0.100000,99,0,0.000000,12,0.000000,29.934278,0.584593,99,99,0,0,0,0,0
4,49999,70,40000,78,0,0,9999,0.100000,99,0,1.402278,12,1.000000,20.621219,4.316872,99,99,0,0,1,0,0
4,49999,71,40000,15,0,0,9999,0.100000,99,0,0.001807,12,0.000000,21.799328,0.951675,99,99,0,0,0,1,0
4,49999,72,40000,79,10000,40,9999,0.100000,99,0,0.000000,12,0.000000,29.239311,1.032378,99,99,0,0,0,0,0
4,49999,73,40000,21,0,43,9999,0.100000,99,0,0.000000,12,6.000000,15.648416,7.078091,99,99,0,0,0,0,0
4,49999,74,40000,88,20000,40,9999,0.100000,99,0,0.000000,12,0.000000,31.004267,10.402287,99,99,0,0,0,0,0
4,49999,75,40000,15,0,40,9999,0.100000,99,0,0.000000,12,0.000000,29.184321,2.180859,99,99,0,0,0,0,0
4,49999,76,40000,88,20000,40,9999,0.100000,99,0,0.000000,12,0.000000,18.391390,1.210193,99,99,0,0,0,0,0
4,49999,77,40000,15,0,40,9999,0.100000,99,0,0.000000,12,0.000000,20.434941,1.362128,99,99,0,0,0,0,0
4,49999,78,40000,53,0,43,9999,0.100000,99,0,0.000000,12,6.000000,15.744617,7.252657,99,99,0,0,0,0,0
4,49999,79,40000,88,20000,0,9999,0.100000,99,0,2.290023,12,0.000000,33.822564,0.853646,99,99,0,0,1,0,0
4,49999,80,40000,15,0,40,9999,0.100000,99,0,0.000000,12,1.000000,27.282730,1.837521,99,99,0,0,0,0,0
4,49999,81,40000,15,0,40,9999,0.100000,99,0,0.000000,12,0.000000,12.259959,0.190110,99,99,0,0,0,0,0
4,49999,82,40000,79,10000,40,9999,0.100000,99,0,0.000000,12,0.000000,30.622386,0.264884,99,99,0,0,0,0,0
4,49999,83,40000,88,20000,40,9999,0.100000,99,0,0.000000,12,0.000000,25.184842,1.272300,99,99,0,0,0,0,0
4,49999,84,40000,78,0,44,9999,0.100000,99,0,0.000000,12,7.000000,15.921078,7.608605,99,99,0,0,0,0,0
4,49999,85,40000,34,0,40,9999,0.100000,99,0,0.000000,12,0.000000,33.687963,1.437033,99,99,0,0,0,0,0
4,49999,86,40000,21,0,40,9999,0.100000,99,0,0.000000,12,0.000000,25.150113,1.174550,99,99,0,0,0,0,0
4,49999,87,40000,41,10000,40,9999,0.100000,99,0,0.000000,12,0.000000,18.526851,1.503248,99,99,0,0,0,0,0
4,49999,88,40000,53,0,40,9999,0.100000,99,0,0.000000,12,1.000000,27.349212,4.413758,99,99,0,0,0,0,0
4,49999,89,40000,63,0,0,9999,0.100000,99,0,0.153869,12,0.000000,17.683075,2.699466,99,99,0,0,0,0,1
4,49999,90,40000,21,0,40,9999,0.100000,99,0,0.000000,12,1.000000,20.288430,14.433267,99,99,0,0,0,0,0
4,49999,91,40000,1,0,40,9999,0.100000,99,0,0.000000,12,0.000000,22.106855,0.729943,99,99,0,0,0,0,0
4,49999,92,40000,1,0,40,9999,0.100000,99,0,0.000000,12,0.000000,20.810058,0.313941,99,99,0,0,0,0,0
4,49999,93,40000,88,20000,40,9999,0.100000,99,0,0.000000,12,0.000000,28.432824,0.417032,99,99,0,0,0,0,0
4,49999,94,40000,79,10000,40,9999,0.100000,99,0,0.000000,12,0.000000,30.650966,0.645418,99,99,0,0,0,0,0
4,49999,95,40000,34,0,40,9999,0.100000,99,0,0.000000,12,0.000000,34.240025,5.530328,99,99,0,0,0,0,0
4,49999,96,40000,34,0,40,9999,0.100000,99,0,0.000000,12,0.000000,19.425160,0.239174,99,99,0,0,0,0,0
4,49999,97,40000,34,0,40,9999,0.100000,99,0,0.000000,12,1.000000,20.374034,4.561469,99,99,0,0,0,0,0
4,49999,98,40000,1,0,40,9999,0.100000,99,0,0.000000,12,1.000000,20.427676,6.357877,99,99,0,0,0,0,0
4,49999,99,40000,78,0,40,9999,0.100000,99,0,0.000000,12,0.000000,29.695215,0.975819,99,99,0,0,0,0,0
5,59999,0,50000,88,20000,0,9999,0.100000,99,0,0.027490,12,0.000000,23.653056,0.170072,99,99,0,1,0,0,0
5,59999,1,50000,88,20000,0,9999,0.100000,99,0,0.126372,14,0.000000,29.092975,0.115227,99,99,0,0,0,0,1
5,59999,2,50000,78,10000,40,9999,0.100000,99,0,0.000000,14,0.000000,32.732882,0.248481,99,99,0,0,0,0,0
5,59999,3,50000,34,0,40,9999,0.100000,99,0,0.000000,12,0.000000,22.402614,0.969555,99,99,0,0,0,0,0
5,59999,4,50000,22,40000,0,9999,0.100000,99,0,0.325802,14,0.000000,33.036398,0.277578,99,99,0,0,1,0,0
5,59999,5,50000,63,0,40,9999,0.100000,99,0,0.000000,14,0.000000,19.480982,0.982532,99,99,0,0,0,0,0
5,59999,6,50000,79,10000,0,9999,0.100000,99,0,1.169990,14,0.000000,24.792708,0.371841,99,99,0,0,0,1,0
5,59999,7,50000,24,10000,40,9999,0.100000,99,0,0.000000,12,0.000000,30.620223,1.047560,99,99,0,0,0,0,0
5,59999,8,50000,63,0,0,9999,0.100000,99,0,0.373158,14,0.000000,19.219408,0.864138,99,99,0,0,0,0,1
5,59999,9,50000,34,0,0,9999,0.100000,99,0,1.765233,14,0.000000,32.816373,0.789045,99,99,0,1,0,0,0
5,59999,10,50000,88,20000,2,9999,0.100000,99,0,36.539342,12,7.000000,25.182966,10.362311,99,99,0,0,0,0,1
5,59999,11,50000,79,10000,40,9999,0.100000,99,0,0.000000,12,0.000000,31.035403,2.437299,99,99,0,0,0,0,0
5,59999,12,50000,78,10000,41,9999,0.100000,99,0,0.000000,14,5.000000,24.933395,17.242203,99,99,0,0,0,0,0
5,59999,13,50000,88,20000,0,9999,0.135000,99,0,1.908322,14,0.000000,19.127342,1.052182,99,99,0,0,0,0,1
5,59999,14,50000,78,10000,42,9999,0.100000,99,0,0.000000,14,7.000000,25.098915,8.801112,99,99,0,0,0,0,0
5,59999,15,50000,78,0,40,9999,0.100000,99,0,0.000000,14,0.000000,30.494957,1.133332,99,99,0,0,0,0,0
5,59999,16,50000,79,10000,40,9999,0.100000,99,0,0.000000,14,0.000000,23.063187,0.239615,99,99,0,0,0,0,0
5,59999,17,50000,57,40000,40,9999,0.100000,99,0,0.000000,14,0.000000,19.967849,1.109506,99,99,0,0,0,0,0
5,59999,18,50000,53,0,40,9999,0.100000,99,0,0.000000,14,0.000000,26.833124,0.387577,99,99,0,0,0,0,0
5,59999,19,50000,63,0,0,9999,0.100000,99,0,0.196342,14,0.000000,25.784697,0.170644,99,99,0,1,0,0,0
5,59999,20,50000,63,0,40,9999,0.100000,99,0,0.000000,14,0.000000,35.831427,0.214058,99,99,0,0,0,0,0
5,59999,21,50000,34,0,40,9999,0.100000,99,0,0.000000,13,0.000000,30.973387,2.309455,99,99,0,0,0,0,0
5,59999,22,50000,21,0,0,9999,0.100000,99,0,0.171173,14,2.000000,21.553605,2.659659,99,99,0,0,0,0,1
5,59999,23,50000,15,0,40,9999,0.100000,99,0,0.000000,14,0.000000,29.461236,0.588188,99,99,0,0,0,0,0
5,59999,24,50000,53,0,40,9999,0.100000,99,0,0.000000,14,0.000000,32.935137,0.737791,99,99,0,0,0,0,0
5,59999,25,50000,34,0,40,9999,0.100000,99,0,0.000000,13,0.000000,30.333472,1.053205,99,99,0,0,0,0,0
5,59999,26,50000,34,0,40,9999,0.100000,99,0,0.000000,12,0.000000,31.345472,0.933248,99,99,0,0,0,0,0
5,59999,27,50000,88,20000,0,9999,0.100000,99,0,0.336652,14,0.000000,29.645224,0.560454,99,99,0,0,1,0,0
5,59999,28,50000,34,0,40,9999,0.100000,99,0,0.000000,14,1.000000,20.313100,17.949335,99,99,0,0,0,0,0
5,59999,29,50000,53,0,40,9999,0.100000,99,0,0.000000,14,0.000000,25.224997,1.244652,99,99,0,0,0,0,0
5,59999,30,50000,53,0,40,9999,0.100000,99,0,0.000000,14,0.000000,17.484980,0.373504,99,99,0,0,0,0,0
5,59999,31,50000,41,10000,40,9999,0.100000,99,0,0.000000,14,0.000000,21.142449,0.423381,99,99,0,0,0,0,0
5,59999,32,50000,22,40000,40,9999,0.100000,99,0,0.000000,14,0.000000,20.358838,1.274385,99,99,0,0,0,0,0
5,59999,33,50000,34,0,40,9999,0.100000,99,0,0.000000,12,0.000000,24.986301,0.444819,99,99,0,0,0,0,0
5,59999,34,50000,79,10000,41,9999,0.100000,99,0,0.000000,14,5.000000,28.212948,11.063195,99,99,0,0,0,0,0
5,59999,35,50000,79,10000,0,9999,0.100000,99,0,4.203007,14,0.000000,23.833148,1.453777,99,99,0,1,0,0,0
5,59999,36,50000,22,40000,0,9999,0.100000,99,0,0.506298,14,0.000000,30.888858,0.960572,99,99,0,0,0,1,0
5,59999,37,50000,21,0,40,9999,0.100000,99,0,0.000000,14,0.000000,20.234803,1.220747,99,99,0,0,0,0,0
5,59999,38,50000,34,0,0,9999,0.100000,99,0,3.211017,14,1.000000,19.880386,3.247408,99,99,0,0,1,0,0
5,59999,39,50000,22,40000,40,9999,0.100000,99,0,0.000000,14,0.000000,28.832909,0.127880,99,99,0,0,0,0,0
5,59999,40,50000,24,10000,0,9999,0.100000,99,0,0.111901,14,0.000000,29.127049,0.176774,99,99,0,0,0,1,0
5,59999,41,50000,78,0,0,9999,0.100000,99,0,0.224165,14,0.000000,27.146033,0.216138,99,99,0,0,0,0,1
5,59999,42,50000,57,40000,40,9999,0.100000,99,0,0.000000,14,0.000000,22.093647,0.237517,99,99,0,0,0,0,0
5,59999,43,50000,78,0,40,9999,0.100000,99,0,0.000000,12,0.000000,30.725083,1.224032,99,99,0,0,0,0,0
5,59999,44,50000,1,0,0,9999,0.100000,99,0,1.026406,14,0.000000,21.167903,0.340933,99,99,0,0,0,1,0
5,59999,45,50000,88,20000,40,9999,0.100000,99,0,0.000000,14,0.000000,30.804907,2.100556,99,99,0,0,0,0,0
5,59999,46,50000,79,10000,41,9999,0.100000,99,0,0.000000,12,3.000000,19.372822,5.524699,99,99,0,0,0,0,0
5,59999,47,50000,1,0,0,9999,0.100000,99,0,0.383296,14,0.000000,30.500635,0.733866,99,99,0,0,0,1,0
5,59999,48,50000,63,0,40,9999,0.100000,99,0,0.000000,14,0.000000,27.544839,0.526649,99,99,0,0,0,0,0
5,59999,49,50000,22,40000,40,9999,0.100000,99,0,0.000000,14,0.000000,23.844479,1.940665,99,99,0,0,0,0,0
5,59999,50,50000,15,0,40,9999,0.100000,99,0,0.000000,14,0.000000,21.691955,0.417588,99,99,0,0,0,0,0
5,59999,51,50000,53,0,40,9999,0.100000,99,0,0.000000,14,0.000000,19.086672,1.865833,99,99,0,0,0,0,0
5,59999,52,50000,34,0,40,9999,0.100000,99,0,0.000000,14,0.000000,28.536002,0.325678,99,99,0,0,0,0,0
5,59999,53,50000,78,10000,40,9999,0.100000,99,0,0.000000,12,0.000000,38.031224,0.083782,99,99,0,0,0,0,0
5,59999,54,50000,53,0,0,9999,0.100000,99,0,1.049377,14,0.000000,22.461235,0.209989,99,99,0,0,1,0,0
5,59999,55,50000,57,40000,40,9999,0.100000,99,0,0.000000,14,0.000000,25.187368,0.440279,99,99,0,0,0,0,0
5,59999,56,50000,63,0,40,9999,0.100000,99,0,0.000000,14,1.000000,17.643792,1.679556,99,99,0,0,0,0,0
5,59999,57,50000,78,0,40,9999,0.100000,99,0,0.000000,13,1.000000,21.827478,2.147223,99,99,0,0,0,0,0
5,59999,58,50000,78,0,90,9999,0.100000,99,0,0.136180,14,0.000000,13.977383,0.525570,99,99,1,0,0,0,0
5,59999,59,50000,53,0,0,9999,0.100000,99,0,0.521478,14,0.000000,22.770285,0.270394,99,99,0,0,0,0,1
5,59999,60,50000,1,0,0,9999,0.100000,99,0,0.156789,14,0.000000,26.122671,0.182189,99,99,0,1,0,0,0
5,59999,61,50000,79,10000,40,9999,0.100000,99,0,0.000000,14,0.000000,19.475344,2.740086,99,99,0,0,0,0,0
5,59999,62,50000,1,0,42,9999,0.100000,99,0,0.000000,14,7.000000,25.594310,8.350995,99,99,0,0,0,0,0
5,59999,63,50000,78,0,0,9999,0.100000,99,0,0.001213,14,0.000000,26.683737,0.122968,99,99,0,0,1,0,0
5,59999,64,50000,63,0,40,9999,0.100000,99,0,0.000000,14,0.000000,21.106571,0.412874,99,99,0,0,0,0,0
5,59999,65,50000,24,10000,40,9999,0.100000,99,0,0.000000,14,0.000000,33.539183,0.863980,99,99,0,0,0,0,0
5,59999,66,50000,1,0,0,9999,0.100000,99,0,0.008764,13,0.000000,27.151003,0.098045,99,99,0,0,0,0,1
5,59999,67,50000,41,10000,40,9999,0.100000,99,0,0.000000,14,0.000000,19.609476,0.718728,99,99,0,0,0,0,0
5,59999,68,50000,24,10000,40,9999,0.100000,99,0,0.000000,14,0.000000,28.614563,0.088341,99,99,0,0,0,0,0
5,59999,69,50000,1,0,40,9999,0.100000,99,0,0.000000,13,0.000000,30.024893,0.346879,99,99,0,0,0,0,0
5,59999,70,50000,63,0,41,9999,0.100000,99,0,0.000000,14,3.000000,19.831186,16.782395,99,99,0,0,0,0,0
5,59999,71,50000,63,0,0,9999,0.100000,99,0,0.017587,14,0.000000,21.872732,0.113612,99,99,0,0,0,1,0
5,59999,72,50000,53,0,40,9999,0.100000,99,0,0.000000,14,0.000000,29.260521,1.847226,99,99,0,0,0,0,0
5,59999,73,50000,88,20000,41,9999,0.100000,99,0,0.000000,14,3.000000,21.277160,3.215973,99,99,0,0,0,0,0
5,59999,74,50000,63,0,42,9999,0.100000,99,0,0.000000,14,7.000000,31.165113,18.533814,99,99,0,0,0,0,0
5,59999,75,50000,24,10000,41,9999,0.100000,99,0,0.000000,14,4.000000,29.218945,7.024075,99,99,0,0,0,0,0
5,59999,76,50000,78,0,40,9999,0.100000,99,0,0.000000,13,1.000000,17.507922,1.468033,99,99,0,0,0,0,0
5,59999,77,50000,21,0,40,9999,0.100000,99,0,0.000000,14,0.000000,20.298439,1.769501,99,99,0,0,0,0,0
5,59999,78,50000,79,10000,40,9999,0.100000,99,0,0.000000,14,2.000000,21.429724,3.921155,99,99,0,0,0,0,0
5,59999,79,50000,78,10000,0,9999,0.100000,99,0,1.537843,14,0.000000,33.579289,0.812597,99,99,0,0,1,0,0
5,59999,80,50000,15,0,40,9999,0.100000,99,0,0.000000,14,0.000000,27.897801,0.202946,99,99,0,0,0,0,0
5,59999,81,50000,1,0,40,9999,0.100000,99,0,0.000000,14,0.000000,12.258604,0.194389,99,99,0,0,0,0,0
5,59999,82,50000,41,10000,40,9999,0.100000,99,0,0.000000,14,0.000000,30.543183,0.901839,99,99,0,0,0,0,0
5,59999,83,50000,41,10000,42,9999,0.100000,99,0,0.000000,14,7.000000,25.224454,9.923085,99,99,0,0,0,0,0
5,59999,84,50000,79,10000,40,9999,0.100000,99,0,0.000000,14,2.000000,21.694892,2.369981,99,99,0,0,0,0,0
5,59999,85,50000,79,10000,40,9999,0.100000,99,0,0.000000,14,0.000000,33.494103,1.136485,99,99,0,0,0,0,0
5,59999,86,50000,1,0,42,9999,0.100000,99,0,0.000000,12,7.000000,25.191450,9.255873,99,99,0,0,0,0,0
5,59999,87,50000,53,0,40,9999,0.100000,99,0,0.000000,14,2.000000,19.032300,9.705611,99,99,0,0,0,0,0
5,59999,88,50000,24,10000,40,9999,0.100000,99,0,0.000000,14,0.000000,27.656235,0.403051,99,99,0,0,0,0,0
5,59999,89,50000,88,20000,0,9999,0.100000,99,0,0.086926,14,0.000000,17.855426,0.201841,99,99,0,0,0,0,1
5,59999,90,50000,24,10000,40,9999,0.100000,99,0,0.000000,14,2.000000,20.508580,4.062903,99,99,0,0,0,0,0
5,59999,91,50000,15,0,40,9999,0.100000,99,0,0.000000,14,0.000000,22.268787,0.823499,99,99,0,0,0,0,0
5,59999,92,50000,53,0,40,9999,0.100000,99,0,0.000000,13,0.000000,21.072607,0.258330,99,99,0,0,0,0,0
5,59999,93,50000,63,0,1,9999,0.100000,99,0,0.031095,14,5.000000,28.410133,9.552137,99,99,0,1,0,0,0
5,59999,94,50000,24,10000,40,9999,0.100000,99,0,0.000000,14,0.000000,30.753036,0.324141,99,99,0,0,0,0,0
5,59999,95,50000,21,0,40,9999,0.100000,99,0,0.000000,14,2.000000,33.956072,2.692076,99,99,0,0,0,0,0
5,59999,96,50000,84,40000,40,9999,0.100000,99,0,0.000000,14,0.000000,19.345844,0.944234,99,99,0,0,0,0,0
5,59999,97,50000,15,0,40,9999,0.100000,99,0,0.000000,14,0.000000,19.336844,1.833342,99,99,0,0,0,0,0
5,59999,98,50000,78,0,41,9999,0.100000,99,0,0.000000,14,3.000000,20.603557,21.514120,99,99,0,0,0,0,0
5,59999,99,50000,53,0,40,9999,0.100000,99,0,0.000000,14,0.000000,29.684353,1.007802,99,99,0,0,0,0,0
6,69999,0,60000,15,0,0,9999,0.100000,99,0,0.010757,14,0.000000,23.622394,0.171410,99,99,0,1,0,0,0
6,69999,1,60000,79,10000,0,9999,0.100000,99,0,0.130785,14,0.000000,29.084987,0.122067,99,99,0,0,0,0,1
6,69999,2,60000,1,0,40,9999,0.100000,99,0,0.000000,14,0.000000,32.762431,0.168318,99,99,0,0,0,0,0
6,69999,3,60000,53,0,40,9999,0.100000,99,0,0.000000,14,0.000000,21.655988,0.942782,99,99,0,0,0,0,0
6,69999,4,60000,34,0,0,9999,0.100000,99,0,0.025123,14,0.000000,33.067042,0.175391,99,99,0,0,1,0,0
6,69999,5,60000,1,0,40,9999,0.100000,99,0,0.000000,14,0.000000,19.430019,1.848536,99,99,0,0,0,0,0
6,69999,6,60000,84,40000,0,9999,0.100000,99,0,2.170974,14,1.000000,24.935250,1.394581,99,99,0,0,0,1,0
6,69999,7,60000,21,0,40,9999,0.100000,99,0,0.000000,14,0.000000,30.854066,0.990155,99,99,0,0,0,0,0
6,69999,8,60000,21,0,0,9999,0.100000,99,0,0.861213,14,0.000000,19.185191,0.407501,99,99,0,0,0,0,1
6,69999,9,60000,78,10000,0,9999,0.100000,99,0,1.395477,14,0.000000,32.706018,0.850977,99,99,0,1,0,0,0
6,69999,10,60000,78,10000,0,9999,0.100000,99,0,10.824076,14,2.000000,27.584999,2.882530,99,99,0,0,0,0,1
6,69999,11,60000,78,10000,40,9999,0.100000,99,0,0.000000,14,0.000000,30.665245,2.741492,99,99,0,0,0,0,0
6,69999,12,60000,63,0,40,9999,0.100000,99,0,0.000000,14,0.000000,29.365153,1.011765,99,99,0,0,0,0,0
6,69999,13,60000,63,0,0,9999,0.100000,99,0,0.138312,14,0.000000,18.986684,1.390797,99,99,0,0,0,0,1
6,69999,14,60000,15,0,40,9999,0.100000,99,0,0.000000,14,2.000000,27.150158,2.973762,99,99,0,0,0,0,0
6,69999,15,60000,1,0,40,9999,0.100000,99,0,0.000000,14,0.000000,30.490388,1.144260,99,99,0,0,0,0,0
6,69999,16,60000,84,40000,40,9999,0.100000,99,0,0.000000,14,0.000000,23.065190,0.243044,99,99,0,0,0,0,0
6,69999,17,60000,84,40000,0,9999,0.100000,99,0,0.207006,14,0.000000,19.142870,2.639273,99,99,0,0,1,0,0
6,69999,18,60000,88,20000,40,9999,0.100000,99,0,0.000000,14,0.000000,26.911204,0.327605,99,99,0,0,0,0,0
6,69999,19,60000,88,20000,0,9999,0.100000,99,0,0.150045,14,0.000000,25.750998,0.163944,99,99,0,1,0,0,0
6,69999,20,60000,34,0,40,9999,0.100000,99,0,0.000000,14,0.000000,35.832621,0.225577,99,99,0,0,0,0,0
6,69999,21,60000,84,40000,40,9999,0.100000,99,0,0.000000,14,0.000000,30.587614,7.466404,99,99,0,0,0,0,0
6,69999,22,60000,63,0,0,9999,0.100000,99,0,0.444999,14,0.000000,24.070169,0.253888,99,99,0,0,0,0,1
6,69999,23,60000,1,0,40,9999,0.100000,99,0,0.000000,14,0.000000,29.181822,0.910847,99,99,0,0,0,0,0
6,69999,24,60000,41,10000,40,9999,0.100000,99,0,0.000000,14,0.000000,32.783993,0.721593,99,99,0,0,0,0,0
6,69999,25,60000,88,20000,40,9999,0.100000,99,0,0.000000,14,0.000000,30.531752,1.014781,99,99,0,0,0,0,0
6,69999,26,60000,24,10000,40,9999,0.100000,99,0,0.000000,14,0.000000,31.615638,0.784019,99,99,0,0,0,0,0
6,69999,27,60000,21,0,0,9999,0.100000,99,0,0.288447,14,0.000000,29.384404,0.832030,99,99,0,0,1,0,0
6,69999,28,60000,15,0,40,9999,0.100000,99,0,0.000000,14,1.000000,19.593854,8.398535,99,99,0,0,0,0,0
6,69999,29,60000,53,0,40,9999,0.100000,99,0,0.000000,14,1.000000,25.212337,1.780538,99,99,0,0,0,0,0
6,69999,30,60000,24,10000,40,9999,0.100000,99,0,0.000000,14,0.000000,17.586437,0.373854,99,99,0,0,0,0,0
6,69999,31,60000,41,10000,40,9999,0.100000,99,0,0.000000,14,0.000000,21.339294,0.570307,99,99,0,0,0,0,0
6,69999,32,60000,41,10000,40,9999,0.100000,99,0,0.000000,14,1.000000,19.637070,15.493247,99,99,0,0,0,0,0
6,69999,33,60000,63,0,40,9999,0.100000,99,0,0.000000,14,1.000000,25.135244,7.381818,99,99,0,0,0,0,0
6,69999,34,60000,22,40000,40,9999,0.100000,99,0,0.000000,14,1.000000,30.339013,3.309158,99,99,0,0,0,0,0
6,69999,35,60000,22,40000,0,9999,0.100000,99,0,3.885927,14,0.000000,24.523163,1.300307,99,99,0,1,0,0,0
6,69999,36,60000,78,10000,0,9999,0.100000,99,0,0.445791,14,0.000000,30.484695,1.237768,99,99,0,0,0,1,0
6,69999,37,60000,1,0,40,9999,0.100000,99,0,0.000000,14,1.000000,19.403570,5.520424,99,99,0,0,0,0,0
6,69999,38,60000,53,0,2,9999,0.100000,99,0,25.293734,14,5.000000,18.549982,9.389003,99,99,0,0,1,0,0
6,69999,39,60000,41,10000,40,9999,0.100000,99,0,0.000000,14,0.000000,28.824884,0.134646,99,99,0,0,0,0,0
6,69999,40,60000,41,10000,0,9999,0.100000,99,0,0.174761,14,0.000000,29.140211,0.497067,99,99,0,0,0,1,0
6,69999,41,60000,24,10000,0,9999,0.100000,99,0,0.290308,14,0.000000,27.223395,0.118276,99,99,0,0,0,0,1
6,69999,42,60000,88,20000,40,9999,0.100000,99,0,0.000000,14,0.000000,22.096519,0.248453,99,99,0,0,0,0,0
6,69999,43,60000,78,10000,40,9999,0.100000,99,0,0.000000,14,0.000000,30.253833,6.634595,99,99,0,0,0,0,0
6,69999,44,60000,21,0,0,9999,0.100000,99,0,1.392534,14,0.000000,21.352773,0.554740,99,99,0,0,0,1,0
6,69999,45,60000,41,10000,40,9999,0.100000,99,0,0.000000,14,1.000000,30.429044,3.890399,99,99,0,0,0,0,0
6,69999,46,60000,21,0,44,9999,0.100000,99,0,0.000000,14,10.000000,22.348094,11.239572,99,99,0,0,0,0,0
6,69999,47,60000,79,10000,40,9999,0.100000,99,0,0.000000,14,0.000000,30.528867,0.909310,99,99,0,0,0,0,0
6,69999,48,60000,78,0,40,9999,0.100000,99,0,0.000000,14,0.000000,27.480792,0.151531,99,99,0,0,0,0,0
6,69999,49,60000,79,10000,40,9999,0.100000,99,0,0.000000,14,0.000000,24.474237,1.087480,99,99,0,0,0,0,0
6,69999,50,60000,41,10000,40,9999,0.100000,99,0,0.000000,14,0.000000,21.915493,1.140120,99,99,0,0,0,0,0
6,69999,51,60000,78,0,40,9999,0.100000,99,0,0.000000,14,0.000000,19.017880,3.741940,99,99,0,0,0,0,0
6,69999,52,60000,63,0,40,9999,0.100000,99,0,0.000000,14,0.000000,28.524315,0.617409,99,99,0,0,0,0,0
6,69999,53,60000,24,10000,40,9999,0.100000,99,0,0.000000,14,0.000000,38.031155,0.088644,99,99,0,0,0,0,0
6,69999,54,60000,22,40000,0,9999,0.100000,99,0,1.335713,14,0.000000,22.603531,0.323136,99,99,0,0,1,0,0
6,69999,55,60000,1,0,40,9999,0.100000,99,0,0.000000,14,1.000000,25.343880,1.422984,99,99,0,0,0,0,0
6,69999,56,60000,41,10000,41,9999,0.100000,99,0,0.000000,14,3.000000,16.470744,5.719893,99,99,0,0,0,0,0
6,69999,57,60000,63,0,40,9999,0.100000,99,0,0.000000,14,0.000000,23.813746,1.557698,99,99,0,0,0,0,0
6,69999,58,60000,41,10000,90,9999,0.100000,99,0,0.013454,14,0.000000,13.985483,0.509794,99,99,1,0,0,0,0
6,69999,59,60000,53,0,0,9999,0.100000,99,0,0.709504,14,0.000000,22.937926,0.373735,99,99,0,0,0,0,1
6,69999,60,60000,53,0,0,9999,0.100000,99,0,2.303226,14,0.000000,26.115612,0.671813,99,99,0,1,0,0,0
6,69999,61,60000,24,10000,40,9999,0.100000,99,0,0.000000,14,1.000000,19.288253,11.713321,99,99,0,0,0,0,0
6,69999,62,60000,78,10000,40,9999,0.100000,99,0,0.000000,14,2.000000,27.795586,2.860677,99,99,0,0,0,0,0
6,69999,63,60000,79,10000,0,9999,0.100000,99,0,0.128198,14,0.000000,26.683339,0.146453,99,99,0,0,1,0,0
6,69999,64,60000,24,10000,40,9999,0.100000,99,0,0.000000,14,0.000000,21.318537,0.520048,99,99,0,0,0,0,0
6,69999,65,60000,22,40000,40,9999,0.100000,99,0,0.000000,14,0.000000,33.873281,0.930203,99,99,0,0,0,0,0
6,69999,66,60000,63,0,0,9999,0.100000,99,0,0.206043,14,0.000000,27.141479,0.120941,99,99,0,0,0,0,1
6,69999,67,60000,84,40000,40,9999,0.100000,99,0,0.000000,14,0.000000,19.545991,0.586144,99,99,0,0,0,0,0
6,69999,68,60000,88,20000,40,9999,0.100000,99,0,0.000000,14,0.000000,28.606266,0.146772,99,99,0,0,0,0,0
6,69999,69,60000,15,0,0,9999,0.100000,99,0,1.150153,14,0.000000,30.091050,0.381659,99,99,0,0,0,1,0
6,69999,70,60000,78,0,41,9999,0.100000,99,0,0.000000,14,4.000000,19.294237,17.729398,99,99,0,0,0,0,0
6,69999,71,60000,15,0,0,9999,0.100000,99,0,0.031564,14,0.000000,21.858974,0.109579,99,99,0,0,0,1,0
6,69999,72,60000,41,10000,40,9999,0.100000,99,0,0.000000,14,0.000000,29.458030,0.461309,99,99,0,0,0,0,0
6,69999,73,60000,53,0,40,9999,0.100000,99,0,0.000000,14,0.000000,24.337726,0.495991,99,99,0,0,0,0,0
6,69999,74,60000,78,10000,40,9999,0.100000,99,0,0.000000,14,0.000000,30.415321,5.363345,99,99,0,0,0,0,0
6,69999,75,60000,78,0,40,9999,0.100000,99,0,0.000000,14,1.000000,30.326695,5.434857,99,99,0,0,0,0,0
6,69999,76,60000,22,40000,42,9999,0.065000,99,0,0.000000,14,4.000000,16.329807,6.380386,99,99,0,0,0,0,0
6,69999,77,60000,84,40000,40,9999,0.100000,99,0,0.000000,14,0.000000,19.888068,1.487870,99,99,0,0,0,0,0
6,69999,78,60000,53,0,40,9999,0.100000,99,0,0.000000,14,0.000000,24.202805,3.303224,99,99,0,0,0,0,0
6,69999,79,60000,88,20000,0,9999,0.100000,99,0,1.424891,14,0.000000,33.410337,0.762050,99,99,0,0,1,0,0
6,69999,80,60000,22,40000,42,9999,0.100000,99,0,0.000000,14,8.000000,27.971576,17.650903,99,99,0,0,0,0,0
6,69999,81,60000,63,0,40,9999,0.100000,99,0,0.000000,14,0.000000,12.258345,0.207468,99,99,0,0,0,0,0
6,69999,82,60000,78,0,40,9999,0.100000,99,0,0.000000,14,0.000000,30.100875,1.103412,99,99,0,0,0,0,0
6,69999,83,60000,78,10000,40,9999,0.100000,99,0,0.000000,14,2.000000,28.016650,2.863080,99,99,0,0,0,0,0
6,69999,84,60000,34,0,40,9999,0.100000,99,0,0.000000,14,0.000000,23.945534,0.444973,99,99,0,0,0,0,0
6,69999,85,60000,15,0,40,9999,0.100000,99,0,0.000000,14,0.000000,33.324812,1.042485,99,99,0,0,0,0,0
6,69999,86,60000,34,0,40,9999,0.100000,99,0,0.000000,14,2.000000,27.366961,2.937237,99,99,0,0,0,0,0
6,69999,87,60000,15,0,40,9999,0.100000,99,0,0.000000,14,0.000000,19.491380,5.069638,99,99,0,0,0,0,0
6,69999,88,60000,78,0,40,9999,0.100000,99,0,0.000000,14,0.000000,27.722008,0.108307,99,99,0,0,0,0,0
6,69999,89,60000,22,40000,0,9999,0.100000,99,0,0.107878,14,0.000000,17.851496,0.188886,99,99,0,0,0,0,1
6,69999,90,60000,84,40000,42,9999,0.100000,99,0,0.000000,14,5.000000,18.427666,9.189909,99,99,0,0,0,0,0
6,69999,91,60000,24,10000,40,9999,0.100000,99,0,0.000000,14,2.000000,22.451400,4.829835,99,99,0,0,0,0,0
6,69999,92,60000,21,0,40,9999,0.100000,99,0,0.000000,14,0.000000,21.311076,0.345870,99,99,0,0,0,0,0
6,69999,93,60000,88,20000,0,9999,0.100000,99,0,0.715202,14,0.000000,29.931619,1.516706,99,99,0,1,0,0,0
6,69999,94,60000,53,0,40,9999,0.100000,99,0,0.000000,14,0.000000,30.816789,0.490146,99,99,0,0,0,0,0
6,69999,95,60000,41,10000,41,9999,0.100000,99,0,0.000000,14,5.000000,35.671035,16.161515,99,99,0,0,0,0,0
6,69999,96,60000,41,10000,40,9999,0.100000,99,0,0.000000,14,1.000000,19.262468,7.885531,99,99,0,0,0,0,0
6,69999,97,60000,15,0,42,9999,0.100000,99,0,0.000000,14,5.000000,18.678197,9.561122,99,99,0,0,0,0,0
6,69999,98,60000,53,0,41,9999,0.100000,99,0,0.000000,14,3.000000,22.371442,8.689712,99,99,0,0,0,0,0
6,69999,99,60000,79,10000,40,9999,0.100000,99,0,0.000000,14,0.000000,29.677118,0.997338,99,99,0,0,0,0,0
7,79999,0,70000,15,0,0,9999,0.100000,99,0,0.623615,14,0.000000,23.594082,0.254049,99,99,0,1,0,0,0
7,79999,1,70000,88,20000,0,9999,0.100000,99,0,0.204094,14,0.000000,29.073904,0.136564,99,99,0,0,0,0,1
7,79999,2,70000,34,0,40,9999,0.100000,99,0,0.000000,14,0.000000,32.766128,0.170943,99,99,0,0,0,0,0
7,79999,3,70000,15,0,40,9999,0.100000,99,0,0.000000,14,0.000000,20.964894,0.916723,99,99,0,0,0,0,0
7,79999,4,70000,15,0,0,9999,0.100000,99,0,0.025468,14,0.000000,33.070673,0.177017,99,99,0,0,1,0,0
7,79999,5,70000,79,10000,40,9999,0.065000,99,0,0.000000,14,0.000000,19.131831,0.834118,99,99,0,0,0,0,0
7,79999,6,70000,22,40000,40,9999,0.100000,99,0,0.000000,14,1.000000,25.502066,21.458318,99,99,0,0,0,0,0
7,79999,7,70000,15,0,40,9999,0.100000,99,0,0.000000,14,0.000000,31.098599,1.009109,99,99,0,0,0,0,0
7,79999,8,70000,53,0,0,9999,0.100000,99,0,0.037773,14,0.000000,18.999347,0.092488,99,99,0,0,0,0,1
7,79999,9,70000,78,10000,0,9999,0.100000,99,0,1.206032,14,0.000000,32.551293,0.888201,99,99,0,1,0,0,0
7,79999,10,70000,15,0,0,9999,0.100000,99,0,0.000000,14,2.000000,28.575550,2.652120,99,99,0,1,0,0,0
7,79999,11,70000,1,0,40,9999,0.100000,99,0,0.000000,14,1.000000,30.243330,6.648232,99,99,0,0,0,0,0
7,79999,12,70000,22,40000,40,9999,0.100000,99,0,0.000000,14,0.000000,29.063497,0.773291,99,99,0,0,0,0,0
7,79999,13,70000,22,40000,0,9999,0.100000,99,0,0.457240,14,0.000000,19.065344,0.385717,99,99,0,0,0,0,1
7,79999,14,70000,53,0,0,9999,0.100000,99,0,0.000000,14,2.000000,28.184802,2.862991,99,99,0,1,0,0,0
7,79999,15,70000,63,0,40,9999,0.100000,99,0,0.000000,14,0.000000,30.531197,0.871913,99,99,0,0,0,0,0
7,79999,16,70000,22,40000,40,9999,0.100000,99,0,0.000000,14,0.000000,23.067298,0.226441,99,99,0,0,0,0,0
7,79999,17,70000,63,0,0,9999,0.100000,99,0,0.814944,14,0.000000,18.834540,0.678258,99,99,0,0,1,0,0
7,79999,18,70000,78,0,40,9999,0.100000,99,0,0.000000,14,0.000000,26.969292,0.338829,99,99,0,0,0,0,0
7,79999,19,70000,53,0,0,9999,0.100000,99,0,0.281622,14,0.000000,25.724742,0.377854,99,99,0,1,0,0,0
7,79999,20,70000,22,40000,40,9999,0.100000,99,0,0.000000,14,0.000000,35.833361,0.234567,99,99,0,0,0,0,0
7,79999,21,70000,78,10000,40,9999,0.100000,99,0,0.000000,14,2.000000,30.756350,9.465118,99,99,0,0,0,0,0
7,79999,22,70000,76,60000,0,9999,0.065000,99,0,2.830278,14,0.000000,24.199622,0.495720,99,99,0,0,0,0,1
7,79999,23,70000,41,10000,0,9999,0.100000,99,0,0.000000,14,2.000000,28.883877,6.495327,99,99,0,1,0,0,0
7,79999,24,70000,53,0,40,9999,0.100000,99,0,0.000000,14,0.000000,32.631719,0.735053,99,99,0,0,0,0,0
7,79999,25,70000,88,20000,40,9999,0.100000,99,0,0.000000,14,0.000000,30.750377,0.965886,99,99,0,0,0,0,0
7,79999,26,70000,21,0,40,9999,0.100000,99,0,0.000000,14,0.000000,31.760451,0.553827,99,99,0,0,0,0,0
7,79999,27,70000,22,40000,1,9999,0.100000,99,0,0.014655,14,4.000000,29.124183,8.570036,99,99,0,0,1,0,0
7,79999,28,70000,63,0,41,9999,0.100000,99,0,0.000000,14,2.000000,18.441591,7.605675,99,99,0,0,0,0,0
7,79999,29,70000,34,0,40,9999,0.100000,99,0,0.000000,14,1.000000,25.713020,2.097699,99,99,0,0,0,0,0
7,79999,30,70000,15,0,40,9999,0.100000,99,0,0.000000,14,0.000000,17.644987,0.443932,99,99,0,0,0,0,0
7,79999,31,70000,78,10000,40,9999,0.100000,99,0,0.000000,14,0.000000,21.613857,0.684165,99,99,0,0,0,0,0
7,79999,32,70000,34,0,45,9999,0.100000,99,0,0.000000,14,11.000000,20.451326,12.412021,99,99,0,0,0,0,0
7,79999,33,70000,76,60000,41,9999,0.065000,99,0,0.000000,14,3.000000,25.267568,9.192074,99,99,0,0,0,0,0
7,79999,34,70000,34,0,40,9999,0.100000,99,0,0.000000,14,1.000000,30.061775,4.380975,99,99,0,0,0,0,0
7,79999,35,70000,79,10000,0,9999,0.100000,99,0,0.629586,14,0.000000,25.276282,0.615649,99,99,0,1,0,0,0
7,79999,36,70000,15,0,0,9999,0.100000,99,0,3.985777,14,1.000000,29.956151,1.782396,99,99,0,0,0,1,0
7,79999,37,70000,63,0,40,9999,0.100000,99,0,0.000000,14,0.000000,18.715590,0.421583,99,99,0,0,0,0,0
7,79999,38,70000,79,10000,0,9999,0.100000,99,0,8.484723,14,1.000000,23.547346,2.086431,99,99,0,0,1,0,0
7,79999,39,70000,34,0,40,9999,0.100000,99,0,0.000000,14,0.000000,28.813793,0.150949,99,99,0,0,0,0,0
7,79999,40,70000,88,20000,0,9999,0.100000,99,0,0.147080,14,0.000000,29.006049,0.495259,99,99,0,0,0,1,0
7,79999,41,70000,1,0,40,9999,0.100000,99,0,0.000000,14,0.000000,27.277495,0.151530,99,99,0,0,0,0,0
7,79999,42,70000,63,0,40,9999,0.100000,99,0,0.000000,14,0.000000,22.099441,0.234385,99,99,0,0,0,0,0
7,79999,43,70000,1,0,40,9999,0.100000,99,0,0.000000,14,1.000000,29.792535,5.026693,99,99,0,0,0,0,0
7,79999,44,70000,78,0,0,9999,0.100000,99,0,1.596668,14,0.000000,21.614620,0.629574,99,99,0,0,0,1,0
7,79999,45,70000,78,0,40,9999,0.100000,99,0,0.000000,14,2.000000,29.898281,3.589868,99,99,0,0,0,0,0
7,79999,46,70000,1,0,40,9999,0.100000,99,0,0.000000,14,0.000000,31.850544,0.706303,99,99,0,0,0,0,0
7,79999,47,70000,24,10000,0,9999,0.100000,99,0,0.333517,14,0.000000,30.560012,0.610633,99,99,0,0,0,1,0
7,79999,48,70000,78,10000,0,9999,0.100000,99,0,0.296346,14,0.000000,27.532497,0.193979,99,99,0,0,0,0,1
7,79999,49,70000,88,20000,40,9999,0.100000,99,0,0.000000,14,0.000000,25.195311,0.975889,99,99,0,0,0,0,0
7,79999,50,70000,22,40000,40,9999,0.100000,99,0,0.000000,14,0.000000,22.338938,1.815924,99,99,0,0,0,0,0
7,79999,51,70000,1,0,40,9999,0.100000,99,0,0.000000,14,0.000000,19.484159,2.556369,99,99,0,0,0,0,0
7,79999,52,70000,22,40000,40,9999,0.100000,99,0,0.000000,14,0.000000,28.469914,0.826930,99,99,0,0,0,0,0
7,79999,53,70000,34,0,40,9999,0.100000,99,0,0.000000,14,0.000000,38.031239,0.083880,99,99,0,0,0,0,0
7,79999,54,70000,41,10000,0,9999,0.100000,99,0,1.353068,14,0.000000,22.821565,0.271670,99,99,0,0,1,0,0
7,79999,55,70000,21,0,40,9999,0.100000,99,0,0.000000,14,1.000000,25.774605,1.876221,99,99,0,0,0,0,0
7,79999,56,70000,34,0,42,9999,0.100000,99,0,0.000000,14,4.000000,13.000937,10.974119,99,99,0,0,0,0,0
7,79999,57,70000,63,0,40,9999,0.100000,99,0,0.000000,14,0.000000,23.927744,1.420304,99,99,0,0,0,0,0
7,79999,58,70000,88,20000,90,9999,0.100000,99,0,0.138689,14,0.000000,14.008357,0.503649,99,99,1,0,0,0,0
7,79999,59,70000,63,0,0,9999,0.100000,99,0,0.593957,14,0.000000,23.168997,0.380937,99,99,0,0,0,0,1
7,79999,60,70000,53,0,0,9999,0.100000,99,0,1.340411,14,0.000000,26.406226,0.623193,99,99,0,1,0,0,0
7,79999,61,70000,76,60000,42,9999,0.065000,99,0,0.000000,14,5.000000,19.580432,5.994536,99,99,0,0,0,0,0
7,79999,62,70000,34,0,40,9999,0.100000,99,0,0.000000,14,2.000000,28.764987,2.558451,99,99,0,0,0,0,0
7,79999,63,70000,1,0,40,9999,0.100000,99,0,0.000000,14,0.000000,26.722662,0.164540,99,99,0,0,0,0,0
7,79999,64,70000,21,0,40,9999,0.100000,99,0,0.000000,14,0.000000,21.610245,0.761549,99,99,0,0,0,0,0
7,79999,65,70000,41,10000,40,9999,0.100000,99,0,0.000000,14,0.000000,34.268717,1.009226,99,99,0,0,0,0,0
7,79999,66,70000,63,0,0,9999,0.100000,99,0,0.268738,14,0.000000,27.113142,0.137345,99,99,0,0,0,0,1
7,79999,67,70000,15,0,40,9999,0.100000,99,0,0.000000,14,0.000000,19.268470,0.100508,99,99,0,0,0,0,0
7,79999,68,70000,22,40000,40,9999,0.100000,99,0,0.000000,14,0.000000,28.595384,0.117060,99,99,0,0,0,0,0
7,79999,69,70000,79,10000,40,9999,0.100000,99,0,0.000000,14,0.000000,30.115120,0.518680,99,99,0,0,0,0,0
7,79999,70,70000,21,0,40,9999,0.100000,99,0,0.000000,14,0.000000,19.371135,1.734689,99,99,0,0,0,0,0
7,79999,71,70000,21,0,0,9999,0.100000,99,0,0.038826,14,0.000000,21.846519,0.109212,99,99,0,0,0,1,0
7,79999,72,70000,24,10000,40,9999,0.100000,99,0,0.000000,14,0.000000,29.485053,0.442667,99,99,0,0,0,0,0
7,79999,73,70000,78,0,40,9999,0.100000,99,0,0.000000,14,0.000000,24.492717,0.464172,99,99,0,0,0,0,0
7,79999,74,70000,34,0,40,9999,0.100000,99,0,0.000000,14,1.000000,29.848049,9.858581,99,99,0,0,0,0,0
7,79999,75,70000,24,10000,40,9999,0.100000,99,0,0.000000,14,1.000000,29.894727,10.787323,99,99,0,0,0,0,0
7,79999,76,70000,53,0,41,9999,0.100000,99,0,0.000000,14,2.000000,12.222424,4.521899,99,99,0,0,0,0,0
7,79999,77,70000,78,0,40,9999,0.100000,99,0,0.000000,14,0.000000,19.615513,3.859339,99,99,0,0,0,0,0
7,79999,78,70000,88,20000,40,9999,0.100000,99,0,0.000000,14,0.000000,24.340000,1.529135,99,99,0,0,0,0,0
7,79999,79,70000,21,0,0,9999,0.100000,99,0,1.154993,14,0.000000,33.256500,0.701844,99,99,0,0,1,0,0
7,79999,80,70000,34,0,40,9999,0.100000,99,0,0.000000,14,0.000000,28.020458,0.692583,99,99,0,0,0,0,0
7,79999,81,70000,79,10000,40,9999,0.100000,99,0,0.000000,14,0.000000,12.258513,0.194467,99,99,0,0,0,0,0
7,79999,82,70000,1,0,40,9999,0.100000,99,0,0.000000,14,1.000000,29.527855,3.455679,99,99,0,0,0,0,0
7,79999,83,70000,53,0,40,9999,0.100000,99,0,0.000000,14,2.000000,28.965320,2.632637,99,99,0,0,0,0,0
7,79999,84,70000,76,60000,40,9999,0.065000,99,0,0.000000,14,0.000000,24.062128,0.934322,99,99,0,0,0,0,0
7,79999,85,70000,78,10000,40,9999,0.100000,99,0,0.000000,14,0.000000,33.169886,0.992653,99,99,0,0,0,0,0
7,79999,86,70000,21,0,0,9999,0.100000,99,0,0.000000,14,2.000000,28.382083,2.696943,99,99,0,1,0,0,0
7,79999,87,70000,88,20000,40,9999,0.100000,99,0,0.000000,14,0.000000,19.138813,0.625913,99,99,0,0,0,0,0
7,79999,88,70000,78,10000,40,9999,0.100000,99,0,0.000000,14,0.000000,27.772413,0.162569,99,99,0,0,0,0,0
7,79999,89,70000,1,0,0,9999,0.100000,99,0,0.169588,14,0.000000,17.844662,0.190953,99,99,0,0,0,0,1
7,79999,90,70000,1,0,40,9999,0.100000,99,0,0.000000,14,1.000000,23.339542,2.112451,99,99,0,0,0,0,0
7,79999,91,70000,1,0,40,9999,0.100000,99,0,0.000000,14,0.000000,22.702742,0.996850,99,99,0,0,0,0,0
7,79999,92,70000,79,10000,40,9999,0.100000,99,0,0.000000,14,0.000000,21.631237,0.375377,99,99,0,0,0,0,0
7,79999,93,70000,22,40000,0,9999,0.100000,99,0,0.267691,14,0.000000,29.923476,1.927540,99,99,0,1,0,0,0
7,79999,94,70000,15,0,40,9999,0.100000,99,0,0.000000,14,0.000000,30.849418,0.773694,99,99,0,0,0,0,0
7,79999,95,70000,22,40000,41,9999,0.100000,99,0,0.000000,14,5.000000,30.946749,8.072275,99,99,0,0,0,0,0
7,79999,96,70000,15,0,40,9999,0.100000,99,0,0.000000,14,1.000000,19.692648,3.848833,99,99,0,0,0,0,0
7,79999,97,70000,53,0,40,9999,0.100000,99,0,0.000000,14,1.000000,23.749456,2.337065,99,99,0,0,0,0,0
7,79999,98,70000,78,0,40,9999,0.100000,99,0,0.000000,14,0.000000,19.473975,3.139290,99,99,0,0,0,0,0
7,79999,99,70000,21,0,40,9999,0.100000,99,0,0.000000,14,0.000000,29.665746,1.117076,99,99,0,0,0,0,0
8,89999,0,80000,15,0,0,9999,0.100000,99,0,0.678104,14,0.000000,23.572506,0.323490,99,99,0,1,0,0,0
8,89999,1,80000,78,10000,0,9999,0.100000,99,0,0.444635,14,0.000000,29.063026,0.166144,99,99,0,0,0,0,1
8,89999,2,80000,41,10000,40,9999,0.100000,99,0,0.000000,14,0.000000,32.769769,0.172174,99,99,0,0,0,0,0
8,89999,3,80000,34,0,40,9999,0.100000,99,0,0.000000,14,2.000000,20.288577,3.228970,99,99,0,0,0,0,0
8,89999,4,80000,21,0,0,9999,0.100000,99,0,0.024247,14,0.000000,33.074304,0.180983,99,99,0,0,1,0,0
8,89999,5,80000,1,0,40,9999,0.100000,99,0,0.000000,14,0.000000,19.121415,0.840976,99,99,0,0,0,0,0
8,89999,6,80000,21,0,0,9999,0.100000,99,0,3.351278,14,2.000000,26.324489,4.919479,99,99,0,2,0,0,0
8,89999,7,80000,34,0,40,9999,0.100000,99,0,0.000000,14,0.000000,31.375248,1.169448,99,99,0,0,0,0,0
8,89999,8,80000,76,60000,0,9999,0.065000,99,0,0.039637,14,0.000000,18.988879,0.093685,99,99,0,0,0,0,1
8,89999,9,80000,78,0,0,9999,0.100000,99,0,1.186733,14,0.000000,32.440161,0.927976,99,99,0,1,0,0,0
8,89999,10,80000,78,10000,40,9999,0.100000,99,0,0.000000,14,0.000000,29.791238,0.974047,99,99,0,0,0,0,0
8,89999,11,80000,76,60000,40,9999,0.065000,99,0,0.000000,14,0.000000,29.579476,4.175406,99,99,0,0,0,0,0
8,89999,12,80000,15,0,40,9999,0.100000,99,0,0.000000,14,0.000000,28.918894,0.836108,99,99,0,0,0,0,0
8,89999,13,80000,78,10000,0,9999,0.100000,99,0,0.387280,14,0.000000,18.835356,0.529437,99,99,0,0,0,0,1
8,89999,14,80000,78,10000,40,9999,0.100000,99,0,0.000000,14,0.000000,29.495325,1.244774,99,99,0,0,0,0,0
8,89999,15,80000,24,10000,40,9999,0.100000,99,0,0.000000,14,0.000000,30.557464,1.065025,99,99,0,0,0,0,0
8,89999,16,80000,78,0,40,9999,0.100000,99,0,0.000000,14,0.000000,23.068801,0.238259,99,99,0,0,0,0,0
8,89999,17,80000,34,0,0,9999,0.100000,99,0,0.443791,14,0.000000,18.904556,0.724289,99,99,0,0,1,0,0
8,89999,18,80000,24,10000,40,9999,0.100000,99,0,0.000000,14,0.000000,26.971800,0.406334,99,99,0,0,0,0,0
8,89999,19,80000,88,20000,0,9999,0.100000,99,0,0.460476,14,0.000000,25.638938,0.595482,99,99,0,0,0,1,0
8,89999,20,80000,76,60000,40,9999,0.065000,99,0,0.000000,14,0.000000,35.834176,0.216371,99,99,0,0,0,0,0
8,89999,21,80000,24,10000,40,9999,0.100000,99,0,0.000000,14,1.000000,29.747893,12.282805,99,99,0,0,0,0,0
8,89999,22,80000,53,0,0,9999,0.100000,99,0,0.144270,14,0.000000,24.610452,0.186355,99,99,0,0,0,0,1
8,89999,23,80000,53,0,40,9999,0.100000,99,0,0.000000,14,0.000000,27.983083,3.371877,99,99,0,0,0,0,0
8,89999,24,80000,1,0,40,9999,0.100000,99,0,0.000000,14,0.000000,32.512247,0.765172,99,99,0,0,0,0,0
8,89999,25,80000,15,0,40,9999,0.100000,99,0,0.000000,14,0.000000,30.977031,0.993834,99,99,0,0,0,0,0
8,89999,26,80000,34,0,40,9999,0.100000,99,0,0.000000,14,0.000000,31.645973,1.183342,99,99,0,0,0,0,0
8,89999,27,80000,22,40000,0,9999,0.100000,99,0,0.006355,14,0.000000,26.791351,0.089533,99,99,0,0,1,0,0
8,89999,28,80000,21,0,42,9999,0.100000,99,0,0.000000,14,5.000000,16.903968,18.445957,99,99,0,0,0,0,0
8,89999,29,80000,22,40000,40,9999,0.100000,99,0,0.000000,14,0.000000,26.439279,1.002836,99,99,0,0,0,0,0
8,89999,30,80000,78,0,40,9999,0.100000,99,0,0.000000,14,0.000000,17.681611,0.511395,99,99,0,0,0,0,0
8,89999,31,80000,21,0,40,9999,0.100000,99,0,0.000000,14,0.000000,21.950444,0.938317,99,99,0,0,0,0,0
8,89999,32,80000,21,0,40,9999,0.100000,99,0,0.000000,14,0.000000,31.825049,1.259527,99,99,0,0,0,0,0
8,89999,33,80000,63,0,40,9999,0.100000,99,0,0.000000,14,2.000000,28.653308,7.872539,99,99,0,0,0,0,0
8,89999,34,80000,15,0,40,9999,0.100000,99,0,0.000000,14,1.000000,30.146782,4.673057,99,99,0,0,0,0,0
8,89999,35,80000,78,10000,40,9999,0.100000,99,0,0.000000,14,0.000000,25.391811,1.144376,99,99,0,0,0,0,0
8,89999,36,80000,88,20000,40,9999,0.100000,99,0,0.000000,14,0.000000,30.337384,1.140349,99,99,0,0,0,0,0
8,89999,37,80000,88,20000,40,9999,0.100000,99,0,0.000000,14,0.000000,18.791830,0.351145,99,99,0,0,0,0,0
8,89999,38,80000,88,20000,2,9999,0.100000,99,0,38.278033,14,8.000000,25.364086,17.347788,99,99,0,0,1,0,0
8,89999,39,80000,53,0,40,9999,0.100000,99,0,0.000000,14,0.000000,28.803287,0.204280,99,99,0,0,0,0,0
8,89999,40,80000,63,0,0,9999,0.100000,99,0,0.080269,14,0.000000,28.866865,0.545532,99,99,0,0,0,1,0
8,89999,41,80000,21,0,40,9999,0.100000,99,0,0.000000,14,0.000000,27.267627,0.168188,99,99,0,0,0,0,0
8,89999,42,80000,76,60000,40,9999,0.065000,99,0,0.000000,14,0.000000,22.102531,0.223688,99,99,0,0,0,0,0
8,89999,43,80000,53,0,91,9999,0.100000,99,0,17.105562,14,4.000000,29.573791,10.892416,99,99,1,0,0,0,0
8,89999,44,80000,24,10000,0,9999,0.100000,99,0,3.331458,14,0.000000,21.952108,1.022412,99,99,0,0,0,1,0
8,89999,45,80000,22,40000,40,9999,0.100000,99,0,0.000000,14,0.000000,30.035555,1.109922,99,99,0,0,0,0,0
8,89999,46,80000,88,20000,40,9999,0.100000,99,0,0.000000,14,0.000000,31.734924,1.031145,99,99,0,0,0,0,0
8,89999,47,80000,15,0,0,9999,0.100000,99,0,0.097517,14,0.000000,30.545794,0.566172,99,99,0,0,0,1,0
8,89999,48,80000,24,10000,40,9999,0.100000,99,0,0.000000,14,0.000000,27.514093,0.184584,99,99,0,0,0,0,0
8,89999,49,80000,78,10000,0,9999,0.100000,99,0,0.734207,14,0.000000,25.316725,1.199225,99,99,0,1,0,0,0
8,89999,50,80000,22,40000,0,9999,0.100000,99,0,0.000954,14,0.000000,22.800635,1.564513,99,99,0,0,1,0,0
8,89999,51,80000,1,0,40,9999,0.100000,99,0,0.000000,14,0.000000,19.067463,0.981591,99,99,0,0,0,0,0
8,89999,52,80000,78,10000,40,9999,0.100000,99,0,0.000000,14,0.000000,28.402403,2.431131,99,99,0,0,0,0,0
8,89999,53,80000,78,10000,40,9999,0.100000,99,0,0.000000,14,0.000000,38.031254,0.082806,99,99,0,0,0,0,0
8,89999,54,80000,1,0,40,9999,0.100000,99,0,0.000000,14,0.000000,23.000682,0.644191,99,99,0,0,0,0,0
8,89999,55,80000,78,10000,40,9999,0.100000,99,0,0.000000,14,0.000000,26.400356,0.901553,99,99,0,0,0,0,0
8,89999,56,80000,15,0,40,9999,0.100000,99,0,0.000000,14,1.000000,17.155986,4.729811,99,99,0,0,0,0,0
8,89999,57,80000,88,20000,40,9999,0.100000,99,0,0.000000,14,0.000000,24.456070,2.490387,99,99,0,0,0,0,0
8,89999,58,80000,15,0,90,9999,0.100000,99,0,0.316701,14,0.000000,14.013328,0.471644,99,99,1,0,0,0,0
8,89999,59,80000,78,10000,0,9999,0.100000,99,0,0.475098,14,0.000000,23.381888,0.291978,99,99,0,0,0,0,1
8,89999,60,80000,41,10000,0,9999,0.100000,99,0,0.000000,14,2.000000,26.615050,3.781702,99,99,0,1,0,0,0
8,89999,61,80000,76,60000,41,9999,0.065000,99,0,0.000000,14,4.000000,23.830206,5.647971,99,99,0,0,0,0,0
8,89999,62,80000,79,10000,40,9999,0.100000,99,0,0.000000,14,0.000000,29.945051,0.938472,99,99,0,0,0,0,0
8,89999,63,80000,34,0,40,9999,0.100000,99,0,0.000000,14,0.000000,26.761734,0.107202,99,99,0,0,0,0,0
8,89999,64,80000,78,10000,40,9999,0.100000,99,0,0.000000,14,0.000000,21.948380,1.047281,99,99,0,0,0,0,0
8,89999,65,80000,63,0,41,9999,0.100000,99,0,0.000000,14,4.000000,34.744986,11.707691,99,99,0,0,0,0,0
8,89999,66,80000,63,0,0,9999,0.100000,99,0,0.256888,14,0.000000,27.084920,0.145823,99,99,0,0,0,0,1
8,89999,67,80000,76,60000,40,9999,0.065000,99,0,0.000000,14,0.000000,19.264187,0.099937,99,99,0,0,0,0,0
8,89999,68,80000,79,10000,40,9999,0.100000,99,0,0.000000,14,0.000000,28.584544,0.195673,99,99,0,0,0,0,0
8,89999,69,80000,63,0,40,9999,0.100000,99,0,0.000000,14,0.000000,30.093494,0.388648,99,99,0,0,0,0,0
8,89999,70,80000,76,60000,40,9999,0.065000,99,0,0.000000,14,0.000000,18.819072,1.037779,99,99,0,0,0,0,0
8,89999,71,80000,1,0,0,9999,0.100000,99,0,0.019705,14,0.000000,21.837437,0.105008,99,99,0,0,0,1,0
8,89999,72,80000,22,40000,40,9999,0.100000,99,0,0.000000,14,0.000000,29.663203,0.600138,99,99,0,0,0,0,0
8,89999,73,80000,53,0,40,9999,0.100000,99,0,0.000000,14,0.000000,24.730715,0.158840,99,99,0,0,0,0,0
8,89999,74,80000,88,20000,40,9999,0.100000,99,0,0.000000,14,1.000000,28.980208,10.926221,99,99,0,0,0,0,0
8,89999,75,80000,78,10000,40,9999,0.100000,99,0,0.000000,14,0.000000,29.682102,9.505674,99,99,0,0,0,0,0
8,89999,76,80000,78,0,40,9999,0.100000,99,0,0.000000,14,0.000000,11.171935,1.051017,99,99,0,0,0,0,0
8,89999,77,80000,88,20000,40,9999,0.100000,99,0,0.000000,14,0.000000,19.184297,2.221437,99,99,0,0,0,0,0
8,89999,78,80000,78,10000,40,9999,0.100000,99,0,0.000000,14,0.000000,24.668051,0.142523,99,99,0,0,0,0,0
8,89999,79,80000,22,40000,0,9999,0.100000,99,0,1.157344,14,0.000000,33.134592,0.674849,99,99,0,0,1,0,0
8,89999,80,80000,79,10000,0,9999,0.100000,99,0,0.318371,14,0.000000,27.985125,1.201482,99,99,0,0,0,0,1
8,89999,81,80000,24,10000,40,9999,0.100000,99,0,0.000000,14,0.000000,12.256007,0.185584,99,99,0,0,0,0,0
8,89999,82,80000,22,40000,0,9999,0.100000,99,0,0.000000,14,1.000000,29.828418,5.349319,99,99,0,1,0,0,0
8,89999,83,80000,76,60000,40,9999,0.065000,99,0,0.000000,14,0.000000,30.106894,1.037835,99,99,0,0,0,0,0
8,89999,84,80000,1,0,40,9999,0.100000,99,0,0.000000,14,0.000000,24.555610,0.587880,99,99,0,0,0,0,0
8,89999,85,80000,53,0,40,9999,0.100000,99,0,0.000000,14,0.000000,33.046064,1.061937,99,99,0,0,0,0,0
8,89999,86,80000,78,0,40,9999,0.100000,99,0,0.000000,14,0.000000,29.642978,1.147472,99,99,0,0,0,0,0
8,89999,87,80000,53,0,40,9999,0.100000,99,0,0.000000,14,0.000000,19.130239,0.639979,99,99,0,0,0,0,0
8,89999,88,80000,41,10000,40,9999,0.100000,99,0,0.000000,14,0.000000,27.747964,0.124249,99,99,0,0,0,0,0
8,89999,89,80000,79,10000,0,9999,0.100000,99,0,0.298075,14,0.000000,17.837189,0.210190,99,99,0,0,0,0,1
8,89999,90,80000,63,0,2,9999,0.100000,99,0,38.264219,14,7.000000,25.177216,20.642547,99,99,0,0,1,0,0
8,89999,91,80000,22,40000,40,9999,0.100000,99,0,0.000000,14,0.000000,22.927307,0.233247,99,99,0,0,0,0,0
8,89999,92,80000,76,60000,40,9999,0.065000,99,0,0.000000,14,0.000000,21.971233,0.741076,99,99,0,0,0,0,0
8,89999,93,80000,53,0,0,9999,0.100000,99,0,4.068306,14,0.000000,29.801556,2.064646,99,99,0,1,0,0,0
8,89999,94,80000,76,60000,40,9999,0.065000,99,0,0.000000,14,0.000000,30.837449,0.550356,99,99,0,0,0,0,0
8,89999,95,80000,34,0,40,9999,0.100000,99,0,0.000000,14,0.000000,35.414793,0.231396,99,99,0,0,0,0,0
8,89999,96,80000,53,0,40,9999,0.100000,99,0,0.000000,14,0.000000,18.514534,1.249115,99,99,0,0,0,0,0
8,89999,97,80000,78,0,2,9999,0.100000,99,0,38.274437,14,7.000000,25.556792,17.114532,99,99,0,0,1,0,0
8,89999,98,80000,53,0,40,9999,0.100000,99,0,0.000000,14,0.000000,19.559844,1.061289,99,99,0,0,0,0,0
8,89999,99,80000,1,0,40,9999,0.100000,99,0,0.000000,14,0.000000,29.653420,1.063638,99,99,0,0,0,0,0
9,99999,0,90000,15,0,0,9999,0.100000,99,0,0.127323,14,0.000000,23.602539,0.174180,99,99,0,1,0,0,0
9,99999,1,90000,88,20000,0,9999,0.100000,99,0,1.007380,14,0.000000,29.061682,0.252532,99,99,0,0,0,0,1
9,99999,2,90000,79,10000,0,9999,0.100000,99,0,0.022239,14,0.000000,32.773756,0.170929,99,99,0,0,1,0,0
9,99999,3,90000,88,20000,41,9999,0.100000,99,0,0.000000,14,3.000000,18.141741,17.857512,99,99,0,0,0,0,0
9,99999,4,90000,34,0,40,9999,0.100000,99,0,0.000000,14,3.000000,33.078223,7.636701,99,99,0,0,0,0,0
9,99999,5,90000,1,0,40,9999,0.100000,99,0,0.000000,14,0.000000,19.111343,0.869760,99,99,0,0,0,0,0
9,99999,6,90000,1,0,40,9999,0.100000,99,0,0.000000,14,1.000000,28.825229,7.068172,99,99,0,0,0,0,0
9,99999,7,90000,41,10000,40,9999,0.100000,99,0,0.000000,14,0.000000,31.497736,1.557893,99,99,0,0,0,0,0
9,99999,8,90000,78,0,0,9999,0.100000,99,0,0.124373,14,0.000000,18.977644,0.106937,99,99,0,0,0,0,1
9,99999,9,90000,88,20000,0,9999,0.100000,99,0,1.146120,14,0.000000,32.328522,0.924885,99,99,0,1,0,0,0
9,99999,10,90000,53,0,40,9999,0.100000,99,0,0.000000,14,0.000000,29.883373,0.378984,99,99,0,0,0,0,0
9,99999,11,90000,1,0,40,9999,0.100000,99,0,0.000000,14,2.000000,29.076501,6.970845,99,99,0,0,0,0,0
9,99999,12,90000,78,10000,40,9999,0.100000,99,0,0.000000,14,0.000000,28.698425,0.772382,99,99,0,0,0,0,0
9,99999,13,90000,1,0,40,9999,0.100000,99,0,0.000000,14,0.000000,18.981234,0.320870,99,99,0,0,0,0,0
9,99999,14,90000,41,10000,40,9999,0.100000,99,0,0.000000,14,0.000000,29.672803,0.589881,99,99,0,0,0,0,0
9,99999,15,90000,21,0,41,9999,0.100000,99,0,0.000000,14,6.000000,30.714010,25.892692,99,99,0,0,0,0,0
9,99999,16,90000,88,20000,40,9999,0.100000,99,0,0.000000,14,0.000000,23.069803,0.241836,99,99,0,0,0,0,0
9,99999,17,90000,41,10000,0,9999,0.100000,99,0,0.158073,14,0.000000,18.951799,0.713767,99,99,0,0,1,0,0
9,99999,18,90000,21,0,40,9999,0.100000,99,0,0.000000,14,0.000000,27.026335,0.471000,99,99,0,0,0,0,0
9,99999,19,90000,76,60000,0,9999,0.065000,99,0,0.742316,14,0.000000,25.476759,0.260656,99,99,0,0,0,1,0
9,99999,20,90000,78,10000,40,9999,0.100000,99,0,0.000000,14,0.000000,35.835255,0.219498,99,99,0,0,0,0,0
9,99999,21,90000,63,0,40,9999,0.100000,99,0,0.000000,14,2.000000,30.223261,6.539411,99,99,0,0,0,0,0
9,99999,22,90000,24,10000,40,9999,0.100000,99,0,0.000000,14,0.000000,24.647363,0.346943,99,99,0,0,0,0,0
9,99999,23,90000,53,0,40,9999,0.100000,99,0,0.000000,14,0.000000,27.959454,3.660121,99,99,0,0,0,0,0
9,99999,24,90000,79,10000,40,9999,0.100000,99,0,0.000000,14,0.000000,32.393970,0.752673,99,99,0,0,0,0,0
9,99999,25,90000,21,0,40,9999,0.100000,99,0,0.000000,14,0.000000,31.236876,1.163017,99,99,0,0,0,0,0
9,99999,26,90000,78,10000,40,9999,0.100000,99,0,0.000000,14,0.000000,31.444492,1.104642,99,99,0,0,0,0,0
9,99999,27,90000,21,0,0,9999,0.100000,99,0,1.013937,15,0.000000,26.792435,0.229766,99,99,0,0,1,0,0
9,99999,28,90000,76,60000,43,9999,0.065000,99,0,0.000000,14,6.000000,14.558239,6.629310,99,99,0,0,0,0,0
9,99999,29,90000,53,0,40,9999,0.100000,99,0,0.000000,14,0.000000,26.244285,0.855794,99,99,0,0,0,0,0
9,99999,30,90000,43,80000,40,9999,0.100000,99,0,0.000000,15,0.000000,17.699537,0.626577,99,99,0,0,0,0,0
9,99999,31,90000,78,0,1,9999,0.100000,99,0,2.159512,14,3.000000,22.649464,3.396894,99,99,0,0,0,1,0
9,99999,32,90000,76,60000,40,9999,0.065000,99,0,0.000000,14,0.000000,31.673527,1.945547,99,99,0,0,0,0,0
9,99999,33,90000,88,20000,40,9999,0.100000,99,0,0.000000,14,0.000000,26.659233,5.955534,99,99,0,0,0,0,0
9,99999,34,90000,15,0,40,9999,0.100000,99,0,0.000000,14,1.000000,29.261049,5.396423,99,99,0,0,0,0,0
9,99999,35,90000,22,40000,1,9999,0.100000,99,0,15.230504,15,3.000000,25.218276,8.989377,99,99,0,1,0,0,0
9,99999,36,90000,63,0,40,9999,0.100000,99,0,0.000000,14,0.000000,30.836693,0.843838,99,99,0,0,0,0,0
9,99999,37,90000,79,10000,40,9999,0.100000,99,0,0.000000,14,0.000000,18.855043,0.387111,99,99,0,0,0,0,0
9,99999,38,90000,63,0,40,9999,0.100000,99,0,0.000000,14,1.000000,29.988194,1.702203,99,99,0,0,0,0,0
9,99999,39,90000,53,0,40,9999,0.100000,99,0,0.000000,14,0.000000,28.801388,0.309183,99,99,0,0,0,0,0
9,99999,40,90000,78,10000,0,9999,0.100000,99,0,0.173530,14,0.000000,28.656051,0.487873,99,99,0,0,0,1,0
9,99999,41,90000,88,20000,40,9999,0.100000,99,0,0.000000,14,0.000000,27.303899,0.213657,99,99,0,0,0,0,0
9,99999,42,90000,22,40000,40,9999,0.100000,99,0,0.000000,14,0.000000,22.105276,0.244002,99,99,0,0,0,0,0
9,99999,43,90000,41,10000,41,9999,0.100000,99,0,0.000000,15,4.000000,31.170262,11.099194,99,99,0,0,0,0,0
9,99999,44,90000,53,0,40,9999,0.100000,99,0,0.000000,14,2.000000,22.645244,3.236994,99,99,0,0,0,0,0
9,99999,45,90000,79,10000,40,9999,0.100000,99,0,0.000000,14,1.000000,30.089294,2.200109,99,99,0,0,0,0,0
9,99999,46,90000,63,0,40,9999,0.100000,99,0,0.000000,14,0.000000,31.588702,1.096149,99,99,0,0,0,0,0
9,99999,47,90000,15,0,40,9999,0.100000,99,0,0.000000,14,1.000000,30.657836,1.248536,99,99,0,0,0,0,0
9,99999,48,90000,15,0,0,9999,0.100000,99,0,0.463214,14,0.000000,27.538661,0.197712,99,99,0,0,0,0,1
9,99999,49,90000,78,10000,1,9999,0.100000,99,0,15.325935,14,3.000000,25.215285,9.927939,99,99,0,1,0,0,0
9,99999,50,90000,22,40000,40,9999,0.100000,99,0,0.000000,14,2.000000,23.705966,11.390473,99,99,0,0,0,0,0
9,99999,51,90000,34,0,0,9999,0.100000,99,0,0.204257,15,0.000000,19.209786,0.619196,99,99,0,0,0,0,1
9,99999,52,90000,78,10000,40,9999,0.100000,99,0,0.000000,15,0.000000,28.443675,1.663237,99,99,0,0,0,0,0
9,99999,53,90000,24,10000,40,9999,0.100000,99,0,0.000000,14,0.000000,38.031193,0.085676,99,99,0,0,0,0,0
9,99999,54,90000,76,60000,0,9999,0.065000,99,0,1.079885,14,0.000000,23.595553,0.397470,99,99,0,0,1,0,0
9,99999,55,90000,15,0,40,9999,0.100000,99,0,0.000000,14,0.000000,26.189110,0.769415,99,99,0,0,0,0,0
9,99999,56,90000,63,0,40,9999,0.100000,99,0,0.000000,15,0.000000,18.181027,4.170528,99,99,0,0,0,0,0
9,99999,57,90000,34,0,0,9999,0.100000,99,0,0.172755,14,0.000000,24.488936,1.659241,99,99,0,0,0,0,1
9,99999,58,90000,21,0,90,9999,0.100000,99,0,0.134047,14,0.000000,13.983058,0.516057,99,99,1,0,0,0,0
9,99999,59,90000,76,60000,0,9999,0.065000,99,0,0.038846,14,0.000000,23.538735,0.201824,99,99,0,0,0,0,1
9,99999,60,90000,15,0,40,9999,0.100000,99,0,0.000000,14,1.000000,28.706231,7.558649,99,99,0,0,0,0,0
9,99999,61,90000,63,0,41,9999,0.100000,99,0,0.000000,14,3.000000,28.057014,6.256973,99,99,0,0,0,0,0
9,99999,62,90000,78,10000,40,9999,0.100000,99,0,0.000000,14,0.000000,29.984288,0.490927,99,99,0,0,0,0,0
9,99999,63,90000,79,10000,40,9999,0.100000,99,0,0.000000,15,0.000000,26.763142,0.400032,99,99,0,0,0,0,0
9,99999,64,90000,78,10000,41,9999,0.100000,99,0,0.000000,14,3.000000,22.660204,4.023441,99,99,0,0,0,0,0
9,99999,65,90000,53,0,40,9999,0.100000,99,0,0.000000,14,1.000000,32.467571,3.390878,99,99,0,0,0,0,0
9,99999,66,90000,41,10000,0,9999,0.100000,99,0,0.270191,15,0.000000,27.069515,0.147523,99,99,0,0,0,0,1
9,99999,67,90000,15,0,40,9999,0.100000,99,0,0.000000,14,0.000000,19.259715,0.214199,99,99,0,0,0,0,0
9,99999,68,90000,79,10000,40,9999,0.100000,99,0,0.000000,14,0.000000,28.583240,0.330250,99,99,0,0,0,0,0
9,99999,69,90000,43,80000,40,9999,0.100000,99,0,0.000000,15,1.000000,30.207302,1.318526,99,99,0,0,0,0,0
9,99999,70,90000,78,10000,40,9999,0.100000,99,0,0.000000,14,0.000000,18.857293,1.025839,99,99,0,0,0,0,0
9,99999,71,90000,78,0,0,9999,0.100000,99,0,0.202627,14,0.000000,21.832875,0.512177,99,99,0,0,0,1,0
9,99999,72,90000,78,0,0,9999,0.100000,99,0,0.009587,14,0.000000,30.013033,0.533337,99,99,0,0,0,1,0
9,99999,73,90000,22,40000,40,9999,0.100000,99,0,0.000000,14,0.000000,24.759163,0.342094,99,99,0,0,0,0,0
9,99999,74,90000,78,0,41,9999,0.100000,99,0,0.000000,14,4.000000,29.085861,14.257230,99,99,0,0,0,0,0
9,99999,75,90000,88,20000,40,9999,0.100000,99,0,0.000000,14,1.000000,29.843913,9.301278,99,99,0,0,0,0,0
9,99999,76,90000,1,0,40,9999,0.100000,99,0,0.000000,14,0.000000,11.966034,0.991929,99,99,0,0,0,0,0
9,99999,77,90000,34,0,40,9999,0.100000,99,0,0.000000,14,0.000000,19.329083,1.521344,99,99,0,0,0,0,0
9,99999,78,90000,78,0,40,9999,0.100000,99,0,0.000000,14,0.000000,24.701232,0.291858,99,99,0,0,0,0,0
9,99999,79,90000,63,0,0,9999,0.100000,99,0,1.145862,14,0.000000,33.013532,0.672385,99,99,0,0,1,0,0
9,99999,80,90000,34,0,40,9999,0.100000,99,0,0.000000,15,0.000000,27.987232,1.168258,99,99,0,0,0,0,0
9,99999,81,90000,79,10000,40,9999,0.100000,99,0,0.000000,14,0.000000,12.254050,0.193122,99,99,0,0,0,0,0
9,99999,82,90000,24,10000,40,9999,0.100000,99,0,0.000000,14,0.000000,29.214834,3.810553,99,99,0,0,0,0,0
9,99999,83,90000,79,10000,40,9999,0.100000,99,0,0.000000,14,0.000000,30.096003,0.474125,99,99,0,0,0,0,0
9,99999,84,90000,41,10000,40,9999,0.100000,99,0,0.000000,14,0.000000,24.596761,0.412109,99,99,0,0,0,0,0
9,99999,85,90000,34,0,40,9999,0.100000,99,0,0.000000,14,0.000000,32.923161,1.237799,99,99,0,0,0,0,0
9,99999,86,90000,34,0,40,9999,0.100000,99,0,0.000000,14,0.000000,29.772138,0.974461,99,99,0,0,0,0,0
9,99999,87,90000,15,0,40,9999,0.100000,99,0,0.000000,14,0.000000,19.120903,0.665686,99,99,0,0,0,0,0
9,99999,88,90000,34,0,40,9999,0.100000,99,0,0.000000,14,0.000000,27.763654,0.159854,99,99,0,0,0,0,0
9,99999,89,90000,76,60000,0,9999,0.065000,99,0,0.391153,15,0.000000,17.817585,0.265463,99,99,0,0,0,0,1
9,99999,90,90000,15,0,40,9999,0.100000,99,0,0.000000,14,1.000000,29.846129,8.841625,99,99,0,0,0,0,0
9,99999,91,90000,76,60000,40,9999,0.065000,99,0,0.000000,15,0.000000,23.096891,0.903085,99,99,0,0,0,0,0
9,99999,92,90000,24,10000,41,9999,0.100000,99,0,0.000000,14,3.000000,22.689464,6.974818,99,99,0,0,0,0,0
9,99999,93,90000,24,10000,0,9999,0.100000,99,0,6.309658,14,1.000000,29.497294,1.624695,99,99,0,1,0,0,0
9,99999,94,90000,76,60000,0,9999,0.065000,99,0,3.619226,15,1.000000,30.924956,1.167042,99,99,0,0,0,1,0
9,99999,95,90000,34,0,40,9999,0.100000,99,0,0.000000,14,0.000000,35.416683,0.230171,99,99,0,0,0,0,0
9,99999,96,90000,24,10000,40,9999,0.100000,99,0,0.000000,14,0.000000,17.715458,0.961684,99,99,0,0,0,0,0
9,99999,97,90000,22,40000,40,9999,0.100000,99,0,0.000000,14,1.000000,30.406488,7.924291,99,99,0,0,0,0,0
9,99999,98,90000,21,0,40,9999,0.100000,99,0,0.000000,14,0.000000,19.647379,1.361776,99,99,0,0,0,0,0
9,99999,99,90000,53,0,40,9999,0.100000,99,0,0.000000,14,0.000000,29.654440,0.900208,99,99,0,0,0,0,0
10,109999,0,100000,34,0,0,9999,0.100000,99,0,0.127078,15,0.000000,23.590067,0.177960,99,99,0,1,0,0,0
10,109999,1,100000,76,60000,40,9999,0.065000,99,0,0.000000,15,0.000000,29.072489,0.534201,99,99,0,0,0,0,0
10,109999,2,100000,76,60000,0,9999,0.065000,99,0,0.022542,15,0.000000,32.778260,0.167498,99,99,0,0,1,0,0
10,109999,3,100000,22,40000,40,9999,0.100000,99,0,0.000000,15,0.000000,19.358850,19.462068,99,99,0,0,0,0,0
10,109999,4,100000,24,10000,40,9999,0.100000,99,0,0.000000,15,0.000000,33.082661,0.183782,99,99,0,0,0,0,0
10,109999,5,100000,43,80000,40,9999,0.100000,99,0,0.000000,15,0.000000,19.079707,0.766298,99,99,0,0,0,0,0
10,109999,6,100000,88,20000,40,9999,0.100000,99,0,0.000000,15,1.000000,30.055288,3.452672,99,99,0,0,0,0,0
10,109999,7,100000,79,10000,40,9999,0.100000,99,0,0.000000,15,3.000000,31.429805,13.071699,99,99,0,0,0,0,0
10,109999,8,100000,78,0,40,9999,0.100000,99,0,0.000000,15,0.000000,18.947016,0.152401,99,99,0,0,0,0,0
10,109999,9,100000,24,10000,0,9999,0.100000,99,0,1.818036,15,0.000000,32.214172,2.059555,99,99,0,1,0,0,0
10,109999,10,100000,21,0,40,9999,0.100000,99,0,0.000000,15,0.000000,29.792146,0.445723,99,99,0,0,0,0,0
10,109999,11,100000,41,10000,40,9999,0.100000,99,0,0.000000,15,0.000000,29.983295,1.985652,99,99,0,0,0,0,0
10,109999,12,100000,78,10000,40,9999,0.100000,99,0,0.000000,15,0.000000,28.468539,0.692102,99,99,0,0,0,0,0
10,109999,13,100000,1,0,0,9999,0.100000,99,0,0.023915,15,0.000000,19.104621,0.226644,99,99,0,0,0,0,1
10,109999,14,100000,53,0,40,9999,0.100000,99,0,0.000000,15,0.000000,29.637116,0.848826,99,99,0,0,0,0,0
10,109999,15,100000,78,10000,40,9999,0.100000,99,0,0.000000,15,0.000000,30.669919,2.345737,99,99,0,0,0,0,0
10,109999,16,100000,63,0,40,9999,0.100000,99,0,0.000000,15,0.000000,23.071843,0.239805,99,99,0,0,0,0,0
10,109999,17,100000,41,10000,0,9999,0.100000,99,0,0.008072,15,0.000000,19.082334,0.692527,99,99,0,0,1,0,0
10,109999,18,100000,76,60000,40,9999,0.065000,99,0,0.000000,15,0.000000,27.113143,0.391853,99,99,0,0,0,0,0
10,109999,19,100000,21,0,0,9999,0.100000,99,0,0.476135,15,0.000000,25.456226,1.266988,99,99,0,0,0,1,0
10,109999,20,100000,22,40000,40,9999,0.100000,99,0,0.000000,15,0.000000,35.835488,0.224904,99,99,0,0,0,0,0
10,109999,21,100000,78,10000,40,9999,0.100000,99,0,0.000000,15,2.000000,28.926444,8.919978,99,99,0,-1,0,0,0
10,109999,22,100000,1,0,40,9999,0.100000,99,0,0.000000,15,0.000000,24.705097,0.525730,99,99,0,0,0,0,0
10,109999,23,100000,21,0,40,9999,0.100000,99,0,0.000000,15,0.000000,27.926653,3.789142,99,99,0,0,0,0,0
10,109999,24,100000,78,0,40,9999,0.100000,99,0,0.000000,15,0.000000,32.277593,1.817000,99,99,0,0,0,0,0
10,109999,25,100000,88,20000,40,9999,0.100000,99,0,0.000000,15,2.000000,31.397515,7.554993,99,99,0,0,0,0,0
10,109999,26,100000,22,40000,40,9999,0.100000,99,0,0.000000,15,0.000000,31.472824,4.067166,99,99,0,0,0,0,0
10,109999,27,100000,88,20000,0,9999,0.100000,99,0,0.607226,15,0.000000,26.642040,0.283218,99,99,0,0,1,0,0
10,109999,28,100000,78,10000,40,9999,0.100000,99,0,0.000000,15,0.000000,15.855559,1.384928,99,99,0,0,0,0,0
10,109999,29,100000,78,0,40,9999,0.100000,99,0,0.000000,15,0.000000,26.452351,1.844602,99,99,0,0,0,0,0
10,109999,30,100000,63,0,40,9999,0.100000,99,0,0.000000,15,0.000000,17.638178,2.527478,99,99,0,0,0,0,0
10,109999,31,100000,24,10000,40,9999,0.100000,99,0,0.000000,15,1.000000,25.619429,7.216506,99,99,0,0,0,0,0
10,109999,32,100000,78,0,40,9999,0.100000,99,0,0.000000,15,0.000000,31.580296,1.548346,99,99,0,0,0,0,0
10,109999,33,100000,78,0,40,9999,0.100000,99,0,0.000000,15,1.000000,26.160637,19.751097,99,99,0,0,0,0,0
10,109999,34,100000,41,10000,42,9999,0.100000,99,0,0.000000,15,7.000000,30.221523,9.571592,99,99,0,0,0,0,0
10,109999,35,100000,78,0,40,9999,0.100000,99,0,0.000000,15,0.000000,24.006167,1.010379,99,99,0,0,0,0,0
10,109999,36,100000,43,80000,40,9999,0.100000,99,0,0.000000,15,0.000000,31.377534,0.145015,99,99,0,0,0,0,0
10,109999,37,100000,63,0,40,9999,0.100000,99,0,0.000000,15,0.000000,18.986317,0.325738,99,99,0,0,0,0,0
10,109999,38,100000,63,0,40,9999,0.100000,99,0,0.000000,15,1.000000,30.155454,2.344676,99,99,0,0,0,0,0
10,109999,39,100000,22,40000,0,9999,0.100000,99,0,1.964811,15,0.000000,28.820972,0.438920,99,99,0,0,0,0,1
10,109999,40,100000,34,0,0,9999,0.100000,99,0,0.207010,15,0.000000,28.437193,0.415090,99,99,0,0,0,1,0
10,109999,41,100000,78,10000,0,9999,0.100000,99,0,0.102503,15,0.000000,27.363455,0.146347,99,99,0,0,0,0,1
10,109999,42,100000,24,10000,40,9999,0.100000,99,0,0.000000,15,0.000000,22.106394,0.249717,99,99,0,0,0,0,0
10,109999,43,100000,15,0,40,9999,0.100000,99,0,0.000000,15,1.000000,30.145453,1.746390,99,99,0,0,0,0,0
10,109999,44,100000,53,0,0,9999,0.100000,99,0,2.291183,15,0.000000,25.438291,1.031452,99,99,0,0,0,1,0
10,109999,45,100000,24,10000,40,9999,0.100000,99,0,0.000000,15,0.000000,30.110679,3.363475,99,99,0,0,0,0,0
10,109999,46,100000,41,10000,40,9999,0.100000,99,0,0.000000,15,0.000000,31.559849,1.147536,99,99,0,0,0,0,0
10,109999,47,100000,41,10000,40,9999,0.100000,99,0,0.000000,15,0.000000,30.652913,1.184647,99,99,0,0,0,0,0
10,109999,48,100000,78,0,40,9999,0.100000,99,0,0.000000,15,0.000000,27.577104,0.162067,99,99,0,0,0,0,0
10,109999,49,100000,22,40000,40,9999,0.100000,99,0,0.000000,15,0.000000,26.699261,0.709260,99,99,0,0,0,0,0
10,109999,50,100000,41,10000,40,9999,0.100000,99,0,0.000000,15,0.000000,25.512309,4.109859,99,99,0,0,0,0,0
10,109999,51,100000,41,10000,40,9999,0.100000,99,0,0.000000,15,0.000000,19.335367,0.590402,99,99,0,0,0,0,0
10,109999,52,100000,22,40000,40,9999,0.100000,99,0,0.000000,15,0.000000,28.828054,1.477900,99,99,0,0,0,0,0
10,109999,53,100000,34,0,40,9999,0.135000,99,0,0.000000,15,0.000000,38.031234,0.087632,99,99,0,0,0,0,0
10,109999,54,100000,76,60000,40,9999,0.065000,99,0,0.000000,15,1.000000,23.778967,3.159999,99,99,0,0,0,0,0
10,109999,55,100000,22,40000,40,9999,0.100000,99,0,0.000000,15,0.000000,26.367152,1.289578,99,99,0,0,0,0,0
10,109999,56,100000,21,0,40,9999,0.100000,99,0,0.000000,15,0.000000,18.448495,0.411100,99,99,0,0,0,0,0
10,109999,57,100000,1,0,0,9999,0.100000,99,0,0.294386,15,0.000000,24.611004,0.834643,99,99,0,0,0,0,1
10,109999,58,100000,78,0,90,9999,0.100000,99,0,0.233393,15,0.000000,13.994009,0.475746,99,99,1,0,0,0,0
10,109999,59,100000,24,10000,0,9999,0.100000,99,0,0.371215,15,0.000000,23.530132,0.262391,99,99,0,0,0,0,1
10,109999,60,100000,34,0,40,9999,0.100000,99,0,0.000000,15,0.000000,30.090697,0.973788,99,99,0,0,0,0,0
10,109999,61,100000,15,0,40,9999,0.100000,99,0,0.000000,15,0.000000,31.752722,1.136792,99,99,0,0,0,0,0
10,109999,62,100000,24,10000,40,9999,0.100000,99,0,0.000000,15,0.000000,29.868641,0.618008,99,99,0,0,0,0,0
10,109999,63,100000,78,10000,40,9999,0.100000,99,0,0.000000,15,0.000000,26.541649,0.497735,99,99,0,0,0,0,0
10,109999,64,100000,43,80000,40,9999,0.100000,99,0,0.000000,15,0.000000,25.787204,1.040222,99,99,0,0,0,0,0
10,109999,65,100000,88,20000,40,9999,0.100000,99,0,0.000000,15,1.000000,33.665081,10.232478,99,99,0,0,0,0,0
10,109999,66,100000,63,0,0,9999,0.100000,99,0,0.211728,15,0.000000,27.063127,0.141949,99,99,0,0,0,0,1
10,109999,67,100000,21,0,40,9999,0.100000,99,0,0.000000,15,0.000000,19.232446,1.439510,99,99,0,0,0,0,0
10,109999,68,100000,88,20000,40,9999,0.100000,99,0,0.000000,15,0.000000,28.613087,0.397281,99,99,0,0,0,0,0
10,109999,69,100000,78,0,0,9999,0.100000,99,0,2.643986,15,0.000000,30.188213,0.947703,99,99,0,0,0,1,0
10,109999,70,100000,78,0,40,9999,0.100000,99,0,0.000000,15,0.000000,18.987915,0.975244,99,99,0,0,0,0,0
10,109999,71,100000,79,10000,0,9999,0.100000,99,0,0.007464,15,0.000000,21.805487,0.725358,99,99,0,0,0,1,0
10,109999,72,100000,21,0,0,9999,0.100000,99,0,0.000780,15,0.000000,30.301111,0.120326,99,99,0,0,0,1,0
10,109999,73,100000,43,80000,40,9999,0.100000,99,0,0.000000,15,0.000000,24.808621,0.437337,99,99,0,0,0,0,0
10,109999,74,100000,53,0,40,9999,0.100000,99,0,0.000000,15,1.000000,32.632748,2.135635,99,99,0,0,0,0,0
10,109999,75,100000,53,0,40,9999,0.100000,99,0,0.000000,15,1.000000,29.527581,9.716279,99,99,0,0,0,0,0
10,109999,76,100000,15,0,40,9999,0.100000,99,0,0.000000,15,0.000000,12.713104,1.012455,99,99,0,0,0,0,0
10,109999,77,100000,21,0,40,9999,0.100000,99,0,0.000000,15,0.000000,19.435140,1.510967,99,99,0,0,0,0,0
10,109999,78,100000,78,10000,40,9999,0.100000,99,0,0.000000,15,0.000000,24.754501,0.417358,99,99,0,0,0,0,0
10,109999,79,100000,34,0,0,9999,0.100000,99,0,1.811438,15,0.000000,32.894047,0.849703,99,99,0,0,1,0,0
10,109999,80,100000,53,0,40,9999,0.100000,99,0,0.000000,15,0.000000,27.983734,1.072482,99,99,0,0,0,0,0
10,109999,81,100000,79,10000,40,9999,0.100000,99,0,0.000000,15,0.000000,12.252542,0.197538,99,99,0,0,0,0,0
10,109999,82,100000,24,10000,40,9999,0.100000,99,0,0.000000,15,0.000000,29.142870,14.021195,99,99,0,-1,0,0,0
10,109999,83,100000,15,0,40,9999,0.100000,99,0,0.000000,15,0.000000,29.955235,1.290215,99,99,0,0,0,0,0
10,109999,84,100000,63,0,40,9999,0.100000,99,0,0.000000,15,0.000000,24.658600,0.317375,99,99,0,0,0,0,0
10,109999,85,100000,79,10000,40,9999,0.100000,99,0,0.000000,15,0.000000,32.802458,1.472419,99,99,0,0,0,0,0
10,109999,86,100000,53,0,40,9999,0.100000,99,0,0.000000,15,0.000000,29.707578,0.918179,99,99,0,0,0,0,0
10,109999,87,100000,78,0,0,9999,0.100000,99,0,0.289692,15,0.000000,19.090731,0.665579,99,99,0,0,0,0,1
10,109999,88,100000,78,0,40,9999,0.100000,99,0,0.000000,15,0.000000,27.785036,0.150110,99,99,0,0,0,0,0
10,109999,89,100000,15,0,0,9999,0.100000,99,0,0.253051,15,0.000000,17.719519,0.319528,99,99,0,0,0,0,1
10,109999,90,100000,88,20000,42,9999,0.100000,99,0,0.000000,15,7.000000,31.140479,10.121237,99,99,0,0,0,0,0
10,109999,91,100000,53,0,40,9999,0.100000,99,0,0.000000,15,0.000000,22.914184,0.409377,99,99,0,0,0,0,0
10,109999,92,100000,63,0,40,9999,0.100000,99,0,0.000000,15,0.000000,25.983368,0.749069,99,99,0,0,0,0,0
10,109999,93,100000,34,0,0,9999,0.100000,99,0,2.540454,15,0.000000,30.564631,0.908859,99,99,0,1,0,0,0
10,109999,94,100000,88,20000,40,9999,0.100000,99,0,0.000000,15,0.000000,30.926484,1.093198,99,99,0,0,0,0,0
10,109999,95,100000,24,10000,40,9999,0.100000,99,0,0.000000,15,0.000000,35.418281,0.226174,99,99,0,0,0,0,0
10,109999,96,100000,43,80000,40,9999,0.100000,99,0,0.000000,15,0.000000,17.143338,0.652945,99,99,0,0,0,0,0
10,109999,97,100000,43,80000,40,9999,0.100000,99,0,0.000000,15,0.000000,30.509614,3.498937,99,99,0,0,0,0,0
10,109999,98,100000,78,0,40,9999,0.100000,99,0,0.000000,15,0.000000,19.776821,1.130245,99,99,0,0,0,0,0
10,109999,99,100000,15,0,40,9999,0.100000,99,0,0.000000,15,0.000000,29.617464,0.617585,99,99,0,0,0,0,0
11,119999,0,110000,76,60000,0,9999,0.065000,99,0,0.140838,15,0.000000,23.580989,0.170400,99,99,0,1,0,0,0
11,119999,1,110000,53,0,40,9999,0.100000,99,0,0.000000,15,0.000000,29.246154,0.770040,99,99,0,0,0,0,0
11,119999,2,110000,1,0,0,9999,0.100000,99,0,0.014046,15,0.000000,32.782384,0.162927,99,99,0,0,1,0,0
11,119999,3,110000,22,40000,40,9999,0.100000,99,0,0.000000,15,0.000000,19.585306,20.568286,99,99,0,0,0,0,0
11,119999,4,110000,78,0,40,9999,0.100000,99,0,0.000000,15,0.000000,33.086704,0.198979,99,99,0,0,0,0,0
11,119999,5,110000,15,0,40,9999,0.100000,99,0,0.000000,15,0.000000,19.021063,0.767893,99,99,0,0,0,0,0
11,119999,6,110000,24,10000,40,9999,0.100000,99,0,0.000000,15,0.000000,30.465837,3.406821,99,99,0,0,0,0,0
11,119999,7,110000,88,20000,40,9999,0.100000,99,0,0.000000,15,0.000000,30.327119,19.757942,99,99,0,0,0,0,0
11,119999,8,110000,78,0,0,9999,0.100000,99,0,0.088562,15,0.000000,18.895065,0.101714,99,99,0,0,0,0,1
11,119999,9,110000,1,0,0,9999,0.100000,99,0,0.860455,15,0.000000,32.049262,0.458758,99,99,0,1,0,0,0
11,119999,10,110000,41,10000,40,9999,0.100000,99,0,0.000000,15,0.000000,29.695049,0.212663,99,99,0,0,0,0,0
11,119999,11,110000,78,0,40,9999,0.100000,99,0,0.000000,15,0.000000,30.127714,1.062328,99,99,0,0,0,0,0
11,119999,12,110000,21,0,40,9999,0.100000,99,0,0.000000,15,1.000000,28.256670,13.822251,99,99,0,0,0,0,0
11,119999,13,110000,21,0,0,9999,0.100000,99,0,0.229821,15,0.000000,19.174310,0.359753,99,99,0,0,0,0,1
11,119999,14,110000,76,60000,40,9999,0.065000,99,0,0.000000,15,0.000000,29.575560,0.493167,99,99,0,0,0,0,0
11,119999,15,110000,34,0,40,9999,0.100000,99,0,0.000000,15,2.000000,30.677586,9.699374,99,99,0,0,0,0,0
11,119999,16,110000,53,0,40,9999,0.100000,99,0,0.000000,15,0.000000,23.073364,0.235347,99,99,0,0,0,0,0
11,119999,17,110000,78,10000,0,9999,0.100000,99,0,0.126741,15,0.000000,19.205670,0.727596,99,99,0,0,1,0,0
11,119999,18,110000,78,0,0,9999,0.100000,99,0,0.003081,15,0.000000,27.148407,2.366362,99,99,0,0,0,0,1
11,119999,19,110000,88,20000,0,9999,0.100000,99,0,0.783756,15,0.000000,25.329751,0.712865,99,99,0,0,0,1,0
11,119999,20,110000,76,60000,40,9999,0.065000,99,0,0.000000,15,0.000000,35.837039,0.227744,99,99,0,0,0,0,0
11,119999,21,110000,53,0,40,9999,0.100000,99,0,0.000000,15,0.000000,28.631737,0.236438,99,99,0,0,0,0,0
11,119999,22,110000,21,0,40,9999,0.100000,99,0,0.000000,15,0.000000,24.780361,0.852007,99,99,0,0,0,0,0
11,119999,23,110000,78,0,40,9999,0.100000,99,0,0.000000,15,0.000000,27.898095,4.039962,99,99,0,0,0,0,0
11,119999,24,110000,1,0,40,9999,0.100000,99,0,0.000000,15,0.000000,32.156106,1.053388,99,99,0,0,0,0,0
11,119999,25,110000,41,10000,40,9999,0.100000,99,0,0.000000,15,0.000000,30.463578,0.783234,99,99,0,0,0,0,0
11,119999,26,110000,53,0,40,9999,0.100000,99,0,0.000000,15,0.000000,31.155391,3.337826,99,99,0,0,0,0,0
11,119999,27,110000,1,0,0,9999,0.100000,99,0,0.260395,15,0.000000,26.746054,0.311580,99,99,0,0,1,0,0
11,119999,28,110000,41,10000,40,9999,0.100000,99,0,0.000000,15,0.000000,16.172104,1.185538,99,99,0,0,0,0,0
11,119999,29,110000,79,10000,40,9999,0.100000,99,0,0.000000,15,1.000000,26.302962,5.154197,99,99,0,0,0,0,0
11,119999,30,110000,63,0,40,9999,0.100000,99,0,0.000000,15,0.000000,17.842673,0.945103,99,99,0,0,0,0,0
11,119999,31,110000,24,10000,40,9999,0.100000,99,0,0.000000,15,1.000000,26.322628,11.977885,99,99,0,0,0,0,0
11,119999,32,110000,41,10000,40,9999,0.100000,99,0,0.000000,15,0.000000,31.314394,1.263612,99,99,0,0,0,0,0
11,119999,33,110000,53,0,40,9999,0.100000,99,0,0.000000,15,1.000000,26.433917,7.779561,99,99,0,0,0,0,0
11,119999,34,110000,53,0,40,9999,0.100000,99,0,0.000000,15,0.000000,23.431270,1.388988,99,99,0,0,0,0,0
11,119999,35,110000,34,0,40,9999,0.100000,99,0,0.000000,15,0.000000,23.221696,0.978021,99,99,0,0,0,0,0
11,119999,36,110000,21,0,40,9999,0.100000,99,0,0.000000,15,0.000000,31.376987,0.758944,99,99,0,0,0,0,0
11,119999,37,110000,34,0,40,9999,0.100000,99,0,0.000000,15,0.000000,19.104754,0.394485,99,99,0,0,0,0,0
11,119999,38,110000,78,10000,40,9999,0.100000,99,0,0.000000,15,0.000000,30.582045,0.883236,99,99,0,0,0,0,0
11,119999,39,110000,79,10000,0,9999,0.100000,99,0,3.326258,15,0.000000,28.962497,0.732859,99,99,0,0,0,0,1
11,119999,40,110000,53,0,0,9999,0.100000,99,0,0.129455,15,0.000000,28.234568,0.254953,99,99,0,0,0,1,0
11,119999,41,110000,21,0,40,9999,0.100000,99,0,0.000000,15,0.000000,27.385278,0.229029,99,99,0,0,0,0,0
11,119999,42,110000,24,10000,40,9999,0.100000,99,0,0.000000,15,0.000000,22.108699,0.234124,99,99,0,0,0,0,0
11,119999,43,110000,63,0,0,9999,0.100000,99,0,0.260984,15,2.000000,30.640611,6.220301,99,99,0,0,0,1,0
11,119999,44,110000,78,10000,1,9999,0.100000,99,0,15.005723,15,3.000000,26.091442,3.856731,99,99,0,0,0,1,0
11,119999,45,110000,24,10000,40,9999,0.100000,99,0,0.000000,15,2.000000,29.620303,13.905798,99,99,0,0,0,0,0
11,119999,46,110000,22,40000,40,9999,0.100000,99,0,0.000000,15,0.000000,31.283951,1.234358,99,99,0,0,0,0,0
11,119999,47,110000,22,40000,40,9999,0.100000,99,0,0.000000,15,2.000000,30.830830,7.419689,99,99,0,0,0,0,0
11,119999,48,110000,63,0,40,9999,0.100000,99,0,0.000000,15,0.000000,27.587964,0.169169,99,99,0,0,0,0,0
11,119999,49,110000,63,0,40,9999,0.100000,99,0,0.000000,15,0.000000,26.804997,1.060133,99,99,0,0,0,0,0
11,119999,50,110000,22,40000,41,9999,0.100000,99,0,0.000000,15,3.000000,26.201400,3.581381,99,99,0,0,0,0,0
11,119999,51,110000,1,0,40,9999,0.100000,99,0,0.000000,15,0.000000,19.409148,0.828026,99,99,0,0,0,0,0
11,119999,52,110000,79,10000,0,9999,0.100000,99,0,0.028052,15,2.000000,29.033179,3.485600,99,99,0,1,0,0,0
11,119999,53,110000,79,10000,40,9999,0.100000,99,0,0.000000,15,0.000000,38.031158,0.160714,99,99,0,0,0,0,0
11,119999,54,110000,63,0,40,9999,0.100000,99,0,0.000000,15,0.000000,25.390365,2.794996,99,99,0,0,0,0,0
11,119999,55,110000,53,0,40,9999,0.100000,99,0,0.000000,15,0.000000,26.216698,1.522595,99,99,0,0,0,0,0
11,119999,56,110000,79,10000,40,9999,0.100000,99,0,0.000000,15,0.000000,18.565595,0.431103,99,99,0,0,0,0,0
11,119999,57,110000,43,80000,0,9999,0.100000,99,0,2.535084,15,0.000000,24.701074,1.055052,99,99,0,0,0,0,1
11,119999,58,110000,88,20000,90,9999,0.100000,99,0,0.229329,15,0.000000,13.980105,0.509299,99,99,1,0,0,0,0
11,119999,59,110000,34,0,0,9999,0.100000,99,0,0.124426,15,0.000000,23.427196,0.183636,99,99,0,0,0,0,1
11,119999,60,110000,88,20000,40,9999,0.100000,99,0,0.000000,15,0.000000,29.533996,0.168621,99,99,0,0,0,0,0
11,119999,61,110000,1,0,40,9999,0.100000,99,0,0.000000,15,0.000000,31.483694,1.228432,99,99,0,0,0,0,0
11,119999,62,110000,63,0,40,9999,0.100000,99,0,0.000000,15,0.000000,29.750725,0.515385,99,99,0,0,0,0,0
11,119999,63,110000,1,0,40,9999,0.100000,99,0,0.000000,15,0.000000,26.647525,0.582758,99,99,0,0,0,0,0
11,119999,64,110000,24,10000,41,9999,0.100000,99,0,0.000000,15,3.000000,26.310288,3.386042,99,99,0,0,0,0,0
11,119999,65,110000,43,80000,40,9999,0.100000,99,0,0.000000,15,1.000000,35.114491,3.391402,99,99,0,0,0,0,0
11,119999,66,110000,53,0,0,9999,0.100000,99,0,0.104875,15,0.000000,27.065971,0.149611,99,99,0,0,0,0,1
11,119999,67,110000,15,0,40,9999,0.100000,99,0,0.000000,15,0.000000,19.166278,0.165249,99,99,0,0,0,0,0
11,119999,68,110000,41,10000,40,9999,0.100000,99,0,0.000000,15,0.000000,28.749233,0.694038,99,99,0,0,0,0,0
11,119999,69,110000,15,0,40,9999,0.100000,99,0,0.000000,15,1.000000,30.305953,5.106019,99,99,0,0,0,0,0
11,119999,70,110000,1,0,40,9999,0.100000,99,0,0.000000,15,0.000000,19.114113,0.988851,99,99,0,0,0,0,0
11,119999,71,110000,78,10000,0,9999,0.100000,99,0,0.049783,15,0.000000,21.887698,0.161845,99,99,0,0,0,1,0
11,119999,72,110000,1,0,0,9999,0.100000,99,0,0.000691,15,0.000000,30.300231,0.115750,99,99,0,0,0,1,0
11,119999,73,110000,88,20000,40,9999,0.100000,99,0,0.000000,15,2.000000,24.868156,4.740505,99,99,0,0,0,0,0
11,119999,74,110000,15,0,42,9999,0.100000,99,0,0.000000,15,8.000000,33.505521,17.184072,99,99,0,0,0,0,0
11,119999,75,110000,88,20000,41,9999,0.100000,99,0,0.000000,15,4.000000,30.461414,13.592114,99,99,0,0,0,0,0
11,119999,76,110000,24,10000,40,9999,0.100000,99,0,0.000000,15,0.000000,13.469362,1.016093,99,99,0,0,0,0,0
11,119999,77,110000,24,10000,40,9999,0.100000,99,0,0.000000,15,0.000000,19.507589,3.430930,99,99,0,0,0,0,0
11,119999,78,110000,15,0,40,9999,0.100000,99,0,0.000000,15,0.000000,24.821794,0.886001,99,99,0,0,0,0,0
11,119999,79,110000,88,20000,0,9999,0.100000,99,0,0.912889,15,0.000000,32.710905,0.621227,99,99,0,0,1,0,0
11,119999,80,110000,78,0,40,9999,0.100000,99,0,0.000000,15,0.000000,27.970999,1.098097,99,99,0,0,0,0,0
11,119999,81,110000,76,60000,40,9999,0.065000,99,0,0.000000,15,0.000000,12.253038,0.193645,99,99,0,0,0,0,0
11,119999,82,110000,15,0,40,9999,0.100000,99,0,0.000000,15,0.000000,28.603099,0.680895,99,99,0,0,0,0,0
11,119999,83,110000,53,0,40,9999,0.100000,99,0,0.000000,15,0.000000,29.818469,0.580226,99,99,0,0,0,0,0
11,119999,84,110000,88,20000,40,9999,0.135000,99,0,0.000000,15,0.000000,24.741303,0.866510,99,99,0,0,0,0,0
