generation,iteration,robot,birthday,ancestor_id,ancestor_birthday,cell_id,age,sigma,maps,genomes,fitness,cells_in_map,dist_max,dist_pot_max,dist_total,com_rx,com_tx,obj_group1,obj_group2,obj_group3,obj_group4,obj_group5
0,9999,0,0,0,0,42,9999,0.100000,99,0,0.000000,0,6.000000,22.453514,15.691644,99,99,0,0,0,0,0
0,9999,1,0,1,0,41,9999,0.100000,99,0,0.000000,0,2.000000,17.169379,13.521724,99,99,0,0,0,0,0
0,9999,2,0,2,0,40,9999,0.100000,99,0,0.000000,0,0.000000,27.229045,6.161895,99,99,0,0,0,0,0
0,9999,3,0,3,0,40,9999,0.100000,99,0,0.000000,0,1.000000,27.367786,6.545186,99,99,0,0,0,0,0
0,9999,4,0,4,0,40,9999,0.100000,99,0,0.000000,0,0.000000,18.854942,0.922762,99,99,0,0,0,0,0
0,9999,5,0,5,0,0,9999,0.100000,99,0,0.847622,0,0.000000,21.384639,1.095958,99,99,0,0,0,0,1
0,9999,6,0,6,0,40,9999,0.100000,99,0,0.000000,0,1.000000,27.325415,5.267548,99,99,0,0,0,0,0
0,9999,7,0,7,0,41,9999,0.100000,99,0,0.000000,0,3.000000,15.664804,8.450229,99,99,0,0,0,0,0
0,9999,8,0,8,0,41,9999,0.100000,99,0,0.000000,0,3.000000,20.151355,9.470265,99,99,0,0,0,0,0
0,9999,9,0,9,0,0,9999,0.100000,99,0,0.096468,0,0.000000,28.232115,1.580950,99,99,0,0,0,0,1
0,9999,10,0,10,0,0,9999,0.100000,99,0,0.052535,0,2.000000,27.049634,7.965931,99,99,0,0,0,0,1
0,9999,11,0,11,0,41,9999,0.100000,99,0,0.000000,0,4.000000,31.122737,12.033476,99,99,0,0,0,0,0
0,9999,12,0,12,0,0,9999,0.100000,99,0,0.000631,0,2.000000,27.608237,3.879401,99,99,0,0,0,0,1
0,9999,13,0,13,0,0,9999,0.100000,99,0,0.002318,0,3.000000,31.555742,6.184651,99,99,0,0,0,0,1
0,9999,14,0,14,0,41,9999,0.100000,99,0,0.000000,0,4.000000,28.318297,7.937453,99,99,0,0,0,0,0
0,9999,15,0,15,0,0,9999,0.100000,99,0,0.303621,0,0.000000,25.515798,0.537534,99,99,0,0,0,1,0
0,9999,16,0,16,0,40,9999,0.100000,99,0,0.000000,0,2.000000,22.184006,5.519133,99,99,0,0,0,0,0
0,9999,17,0,17,0,0,9999,0.100000,99,0,0.303374,0,2.000000,23.571293,6.778681,99,99,0,0,0,1,0
0,9999,18,0,18,0,40,9999,0.100000,99,0,0.000000,0,1.000000,26.541463,10.935841,99,99,0,0,0,0,0
0,9999,19,0,19,0,40,9999,0.100000,99,0,0.000000,0,0.000000,24.305593,2.224547,99,99,0,0,0,0,0
0,9999,20,0,20,0,41,9999,0.100000,99,0,0.000000,0,3.000000,24.512064,10.978381,99,99,0,0,0,0,0
0,9999,21,0,21,0,40,9999,0.100000,99,0,0.000000,0,1.000000,16.264982,8.684023,99,99,0,0,0,0,0
0,9999,22,0,22,0,0,9999,0.100000,99,0,0.371383,0,0.000000,29.163768,1.101546,99,99,0,0,1,0,0
0,9999,23,0,23,0,0,9999,0.100000,99,0,0.003205,0,0.000000,26.065491,0.663593,99,99,0,0,0,0,1
0,9999,24,0,24,0,40,9999,0.100000,99,0,0.000000,0,2.000000,26.843396,8.961313,99,99,0,0,0,0,0
0,9999,25,0,25,0,0,9999,0.100000,99,0,0.285051,0,0.000000,15.531726,0.766310,99,99,0,0,0,1,0
0,9999,26,0,26,0,41,9999,0.100000,99,0,0.000000,0,3.000000,24.512408,12.203136,99,99,0,0,0,0,0
0,9999,27,0,27,0,40,9999,0.100000,99,0,0.000000,0,0.000000,26.104968,1.170469,99,99,0,0,0,0,0
0,9999,28,0,28,0,40,9999,0.100000,99,0,0.000000,0,0.000000,23.640015,1.775930,99,99,0,0,0,0,0
0,9999,29,0,29,0,40,9999,0.100000,99,0,0.000000,0,2.000000,19.871677,13.383095,99,99,0,0,0,0,0
0,9999,30,0,30,0,0,9999,0.100000,99,0,0.171647,0,2.000000,28.189283,3.965131,99,99,0,0,0,0,1
0,9999,31,0,31,0,0,9999,0.100000,99,0,0.000421,0,0.000000,20.704205,0.492182,99,99,0,0,0,0,1
0,9999,32,0,32,0,40,9999,0.100000,99,0,0.000000,0,1.000000,25.835403,17.517478,99,99,0,0,0,0,0
0,9999,33,0,33,0,40,9999,0.100000,99,0,0.000000,0,1.000000,32.218236,5.832377,99,99,0,0,0,0,0
0,9999,34,0,34,0,40,9999,0.100000,99,0,0.000000,0,3.000000,30.000250,8.896139,99,99,0,0,0,0,0
0,9999,35,0,35,0,40,9999,0.100000,99,0,0.000000,0,0.000000,30.941108,9.475472,99,99,0,0,0,0,0
0,9999,36,0,36,0,40,9999,0.100000,99,0,0.000000,0,0.000000,19.264988,1.173662,99,99,0,0,0,0,0
0,9999,37,0,37,0,40,9999,0.100000,99,0,0.000000,0,0.000000,22.384264,4.937164,99,99,0,0,0,0,0
0,9999,38,0,38,0,40,9999,0.100000,99,0,0.000000,0,3.000000,30.912197,12.166618,99,99,0,0,0,0,0
0,9999,39,0,39,0,41,9999,0.100000,99,0,0.000000,0,2.000000,16.648308,11.136368,99,99,0,0,0,0,0
0,9999,40,0,40,0,0,9999,0.100000,99,0,0.674573,0,0.000000,30.420088,0.696238,99,99,0,0,0,0,1
0,9999,41,0,41,0,40,9999,0.100000,99,0,0.000000,0,2.000000,21.036757,11.770952,99,99,0,0,0,0,0
0,9999,42,0,42,0,40,9999,0.100000,99,0,0.000000,0,0.000000,33.700211,0.440524,99,99,0,0,0,0,0
0,9999,43,0,43,0,95,9999,0.100000,99,0,47.861515,0,11.000000,20.846658,19.209584,99,99,1,0,0,0,0
0,9999,44,0,44,0,40,9999,0.100000,99,0,0.000000,0,2.000000,29.777260,3.333985,99,99,0,0,0,0,0
0,9999,45,0,45,0,40,9999,0.100000,99,0,0.000000,0,1.000000,29.873601,4.650521,99,99,0,0,0,0,0
0,9999,46,0,46,0,41,9999,0.100000,99,0,0.000000,0,3.000000,20.562197,12.895131,99,99,0,0,0,0,0
0,9999,47,0,47,0,40,9999,0.100000,99,0,0.000000,0,1.000000,21.401754,5.544382,99,99,0,0,0,0,0
0,9999,48,0,48,0,41,9999,0.100000,99,0,0.000000,0,2.000000,18.591275,19.896957,99,99,0,0,0,0,0
0,9999,49,0,49,0,40,9999,0.100000,99,0,0.000000,0,0.000000,11.345362,5.360180,99,99,0,0,0,0,0
0,9999,50,0,50,0,41,9999,0.100000,99,0,0.000000,0,3.000000,17.481310,6.117543,99,99,0,0,0,0,0
0,9999,51,0,51,0,0,9999,0.100000,99,0,0.163954,0,2.000000,27.710167,10.067498,99,99,0,0,0,0,1
0,9999,52,0,52,0,0,9999,0.100000,99,0,0.368700,0,2.000000,24.665947,3.827238,99,99,0,0,0,0,1
0,9999,53,0,53,0,41,9999,0.100000,99,0,0.000000,0,5.000000,25.250574,10.178541,99,99,0,0,0,0,0
0,9999,54,0,54,0,0,9999,0.100000,99,0,6.753721,0,1.000000,19.633276,4.174525,99,99,0,1,0,0,0
0,9999,55,0,55,0,40,9999,0.100000,99,0,0.000000,0,1.000000,18.949860,3.949648,99,99,0,0,0,0,0
0,9999,56,0,56,0,40,9999,0.100000,99,0,0.000000,0,1.000000,18.508819,3.637945,99,99,0,0,0,0,0
0,9999,57,0,57,0,0,9999,0.100000,99,0,0.525457,0,1.000000,20.383159,2.259938,99,99,0,0,0,0,1
0,9999,58,0,58,0,40,9999,0.100000,99,0,0.000000,0,0.000000,25.566631,0.494719,99,99,0,0,0,0,0
0,9999,59,0,59,0,0,9999,0.100000,99,0,0.001712,0,0.000000,24.567429,1.131971,99,99,0,0,0,0,1
0,9999,60,0,60,0,40,9999,0.100000,99,0,0.000000,0,0.000000,35.050350,1.600569,99,99,0,0,0,0,0
0,9999,61,0,61,0,40,9999,0.100000,99,0,0.000000,0,0.000000,25.284633,6.937496,99,99,0,0,0,0,0
0,9999,62,0,62,0,0,9999,0.100000,99,0,0.003370,0,0.000000,24.552663,0.757247,99,99,0,0,0,0,1
0,9999,63,0,63,0,40,9999,0.100000,99,0,0.000000,0,1.000000,30.180436,3.375858,99,99,0,0,0,0,0
0,9999,64,0,64,0,40,9999,0.100000,99,0,0.000000,0,0.000000,27.426417,1.132805,99,99,0,0,0,0,0
0,9999,65,0,65,0,1,9999,0.100000,99,0,7.308938,0,2.000000,17.286289,2.699345,99,99,0,0,1,0,0
0,9999,66,0,66,0,41,9999,0.100000,99,0,0.000000,0,2.000000,17.443118,15.355670,99,99,0,0,0,0,0
0,9999,67,0,67,0,40,9999,0.100000,99,0,0.000000,0,2.000000,22.806248,4.965631,99,99,0,0,0,0,0
0,9999,68,0,68,0,42,9999,0.100000,99,0,0.000000,0,5.000000,17.500000,10.851356,99,99,0,0,0,0,0
0,9999,69,0,69,0,41,9999,0.100000,99,0,0.000000,0,3.000000,27.755281,10.314408,99,99,0,0,0,0,0
0,9999,70,0,70,0,1,9999,0.100000,99,0,0.002724,0,3.000000,18.273452,11.156117,99,99,0,0,0,0,1
0,9999,71,0,71,0,0,9999,0.100000,99,0,0.010852,0,0.000000,32.557704,0.257204,99,99,0,0,0,0,1
0,9999,72,0,72,0,40,9999,0.100000,99,0,0.000000,0,2.000000,27.846288,5.001129,99,99,0,0,0,0,0
0,9999,73,0,73,0,40,9999,0.100000,99,0,0.000000,0,2.000000,22.626955,10.811843,99,99,0,0,0,0,0
0,9999,74,0,74,0,40,9999,0.100000,99,0,0.000000,0,1.000000,19.243917,1.532966,99,99,0,0,0,0,0
0,9999,75,0,75,0,41,9999,0.100000,99,0,0.000000,0,3.000000,24.536162,12.781046,99,99,0,0,0,0,0
0,9999,76,0,76,0,40,9999,0.100000,99,0,0.000000,0,2.000000,27.630088,8.240029,99,99,0,0,0,0,0
0,9999,77,0,77,0,41,9999,0.100000,99,0,0.000000,0,2.000000,18.697701,15.264995,99,99,0,0,0,0,0
0,9999,78,0,78,0,0,9999,0.100000,99,0,0.000061,0,1.000000,28.157092,6.806047,99,99,0,0,0,0,1
0,9999,79,0,79,0,40,9999,0.100000,99,0,0.000000,0,1.000000,31.663333,2.861371,99,99,0,0,0,0,0
0,9999,80,0,80,0,40,9999,0.100000,99,0,0.000000,0,1.000000,29.780040,8.203066,99,99,0,0,0,0,0
0,9999,81,0,81,0,0,9999,0.100000,99,0,0.021367,0,0.000000,24.108862,4.280597,99,99,0,0,0,1,0
0,9999,82,0,82,0,40,9999,0.100000,99,0,0.000000,0,1.000000,22.345445,2.476201,99,99,0,0,0,0,0
0,9999,83,0,83,0,40,9999,0.100000,99,0,0.000000,0,1.000000,26.688319,7.299955,99,99,0,0,0,0,0
0,9999,84,0,84,0,40,9999,0.100000,99,0,0.000000,0,2.000000,26.381697,9.429349,99,99,0,0,0,0,0
0,9999,85,0,85,0,1,9999,0.100000,99,0,0.055154,0,3.000000,26.851409,8.415216,99,99,0,0,0,0,1
0,9999,86,0,86,0,0,9999,0.100000,99,0,0.000974,0,1.000000,22.264175,2.128492,99,99,0,0,0,0,1
0,9999,87,0,87,0,40,9999,0.100000,99,0,0.000000,0,2.000000,20.511898,11.841354,99,99,0,0,0,0,0
0,9999,88,0,88,0,40,9999,0.100000,99,0,0.000000,0,1.000000,20.890822,5.603098,99,99,0,0,0,0,0
0,9999,89,0,89,0,41,9999,0.100000,99,0,0.000000,0,3.000000,21.552489,17.292742,99,99,0,0,0,0,0
0,9999,90,0,90,0,41,9999,0.100000,99,0,0.000000,0,5.000000,28.560173,18.518344,99,99,0,0,0,0,0
0,9999,91,0,91,0,1,9999,0.100000,99,0,0.765598,0,3.000000,18.149847,12.344458,99,99,0,1,0,0,0
0,9999,92,0,92,0,40,9999,0.100000,99,0,0.000000,0,1.000000,19.263369,5.880348,99,99,0,0,0,0,0
0,9999,93,0,93,0,40,9999,0.100000,99,0,0.000000,0,1.000000,24.310835,11.645447,99,99,0,0,0,0,0
0,9999,94,0,94,0,40,9999,0.100000,99,0,0.000000,0,0.000000,24.596232,4.542841,99,99,0,0,0,0,0
0,9999,95,0,95,0,40,9999,0.100000,99,0,0.000000,0,1.000000,22.719277,2.133852,99,99,0,0,0,0,0
0,9999,96,0,96,0,41,9999,0.100000,99,0,0.000000,0,2.000000,17.707788,5.620659,99,99,0,0,0,0,0
0,9999,97,0,97,0,0,9999,0.100000,99,0,0.042516,0,2.000000,20.911004,5.925501,99,99,0,0,1,0,0
0,9999,98,0,98,0,40,9999,0.100000,99,0,0.000000,0,1.000000,21.892855,5.090779,99,99,0,0,0,0,0
0,9999,99,0,99,0,40,9999,0.100000,99,0,0.000000,0,2.000000,25.179262,7.844088,99,99,0,0,0,0,0
1,19999,0,0,0,0,40,19999,0.100000,99,0,0.000000,1,0.000000,22.475725,7.314998,99,99,0,0,0,0,0
1,19999,1,10000,1,0,40,9999,0.100000,99,0,0.000000,2,0.000000,18.624196,11.711470,99,99,0,0,0,0,0
1,19999,2,10000,2,0,40,9999,0.100000,99,0,0.000000,5,0.000000,26.693745,4.253740,99,99,0,0,0,0,0
1,19999,3,10000,22,0,40,9999,0.100000,99,0,0.000000,5,1.000000,28.122796,18.075398,99,99,0,0,0,0,0
1,19999,4,10000,7,0,0,9999,0.100000,99,0,4.861881,6,0.000000,18.650163,1.193451,99,99,0,0,0,0,1
1,19999,5,10000,5,0,0,9999,0.100000,99,0,0.813707,6,0.000000,21.897855,0.638235,99,99,0,0,0,0,1
1,19999,6,10000,57,0,40,9999,0.100000,99,0,0.000000,5,0.000000,26.794817,1.933430,99,99,0,0,0,0,0
1,19999,7,10000,0,0,40,9999,0.100000,99,0,0.000000,4,1.000000,16.023847,2.304579,99,99,0,0,0,0,0
1,19999,8,10000,0,0,40,9999,0.100000,99,0,0.000000,4,0.000000,18.772007,14.260273,99,99,0,0,0,0,0
1,19999,9,10000,0,0,0,9999,0.100000,99,0,0.172713,5,0.000000,28.392542,0.292621,99,99,0,0,0,0,1
1,19999,10,10000,60,0,0,9999,0.100000,99,0,0.114311,4,0.000000,29.543696,0.102454,99,99,0,0,0,0,1
1,19999,11,10000,0,0,40,9999,0.100000,99,0,0.000000,4,0.000000,31.223099,1.685774,99,99,0,0,0,0,0
1,19999,12,10000,65,0,0,9999,0.100000,99,0,0.001492,6,0.000000,26.016644,0.079186,99,99,0,0,0,0,1
1,19999,13,10000,7,0,0,9999,0.100000,99,0,0.043576,6,0.000000,29.545170,0.229393,99,99,0,0,0,0,1
1,19999,14,10000,5,0,40,9999,0.100000,99,0,0.000000,6,1.000000,30.582202,3.713042,99,99,0,0,0,0,0
1,19999,15,10000,0,0,0,9999,0.100000,99,0,0.990247,5,0.000000,25.642536,0.647913,99,99,0,0,0,1,0
1,19999,16,10000,2,0,0,9999,0.100000,99,0,0.546118,5,0.000000,22.703423,1.686096,99,99,0,0,0,0,1
1,19999,17,10000,2,0,0,9999,0.100000,99,0,0.140442,5,0.000000,22.609575,0.786090,99,99,0,0,0,1,0
1,19999,18,10000,7,0,40,9999,0.100000,99,0,0.000000,5,0.000000,27.401601,17.300286,99,99,0,0,0,0,0
1,19999,19,10000,7,0,40,9999,0.100000,99,0,0.000000,5,0.000000,25.030308,0.828814,99,99,0,0,0,0,0
1,19999,20,10000,0,0,40,9999,0.100000,99,0,0.000000,4,1.000000,28.072370,5.731570,99,99,0,0,0,0,0
1,19999,21,10000,0,0,41,9999,0.100000,99,0,0.000000,4,2.000000,17.001670,6.867318,99,99,0,0,0,0,0
1,19999,22,10000,22,0,0,9999,0.100000,99,0,0.093313,4,0.000000,29.059537,0.178863,99,99,0,0,1,0,0
1,19999,23,10000,57,0,0,9999,0.100000,99,0,0.003187,5,0.000000,25.744788,0.080856,99,99,0,0,0,0,1
1,19999,24,10000,57,0,40,9999,0.100000,99,0,0.000000,5,2.000000,28.890099,9.000159,99,99,0,0,0,0,0
1,19999,25,10000,43,0,0,9999,0.100000,99,0,0.021450,6,0.000000,15.525626,0.221682,99,99,0,0,0,1,0
1,19999,26,10000,5,0,0,9999,0.100000,99,0,0.049424,6,2.000000,21.229989,9.734783,99,99,0,0,1,0,0
1,19999,27,10000,2,0,40,9999,0.100000,99,0,0.000000,6,0.000000,26.229582,0.354483,99,99,0,0,0,0,0
1,19999,28,10000,7,0,40,9999,0.100000,99,0,0.000000,5,0.000000,23.343019,0.181459,99,99,0,0,0,0,0
1,19999,29,10000,7,0,40,9999,0.100000,99,0,0.000000,4,0.000000,21.413892,1.395273,99,99,0,0,0,0,0
1,19999,30,10000,2,0,0,9999,0.100000,99,0,0.693333,5,0.000000,27.677814,1.255657,99,99,0,0,0,0,1
1,19999,31,10000,91,0,0,9999,0.100000,99,0,0.000817,5,0.000000,20.430007,0.086648,99,99,0,0,0,0,1
1,19999,32,10000,0,0,41,9999,0.100000,99,0,0.000000,4,5.000000,24.688404,7.913052,99,99,0,0,0,0,0
1,19999,33,10000,7,0,40,9999,0.100000,99,0,0.000000,6,2.000000,33.193712,7.280304,99,99,0,0,0,0,0
1,19999,34,10000,22,0,40,9999,0.100000,99,0,0.000000,4,0.000000,29.343753,0.975837,99,99,0,0,0,0,0
1,19999,35,10000,2,0,40,9999,0.100000,99,0,0.000000,5,2.000000,31.220890,14.997186,99,99,0,0,0,0,0
1,19999,36,10000,0,0,41,9999,0.100000,99,0,0.000000,5,3.000000,18.744936,10.158543,99,99,0,0,0,0,0
1,19999,37,10000,54,0,40,9999,0.100000,99,0,0.000000,6,0.000000,21.957044,0.672790,99,99,0,0,0,0,0
1,19999,38,10000,43,0,40,9999,0.100000,99,0,0.000000,6,0.000000,29.610727,2.208298,99,99,0,0,0,0,0
1,19999,39,10000,0,0,41,9999,0.100000,99,0,0.000000,4,3.000000,18.608751,9.516937,99,99,0,0,0,0,0
1,19999,40,10000,65,0,0,9999,0.100000,99,0,0.828542,5,0.000000,30.793366,0.217514,99,99,0,0,0,0,1
1,19999,41,10000,2,0,0,9999,0.100000,99,0,0.160217,5,1.000000,19.516758,2.451138,99,99,0,1,0,0,0
1,19999,42,10000,7,0,40,9999,0.100000,99,0,0.000000,5,0.000000,33.772682,0.669102,99,99,0,0,0,0,0
1,19999,43,10000,65,0,40,9999,0.100000,99,0,0.000000,6,1.000000,30.789395,14.257738,99,99,0,0,0,0,0
1,19999,44,10000,7,0,40,9999,0.100000,99,0,0.000000,5,0.000000,29.815823,0.113404,99,99,0,0,0,0,0
1,19999,45,10000,0,0,0,9999,0.100000,99,0,0.891430,5,0.000000,31.030172,1.296359,99,99,0,0,1,0,0
1,19999,46,10000,0,0,40,9999,0.100000,99,0,0.000000,2,0.000000,20.870765,14.651029,99,99,0,0,0,0,0
1,19999,47,10000,1,0,40,9999,0.100000,99,0,0.000000,4,1.000000,21.628786,7.232458,99,99,0,0,0,0,0
1,19999,48,10000,57,0,40,9999,0.100000,99,0,0.000000,5,0.000000,16.354419,6.954120,99,99,0,0,0,0,0
1,19999,49,10000,7,0,0,9999,0.100000,99,0,0.064217,6,0.000000,12.107276,2.114999,99,99,0,0,0,0,1
1,19999,50,10000,7,0,42,9999,0.100000,99,0,0.000000,5,4.000000,16.533359,6.029403,99,99,0,0,0,0,0
1,19999,51,10000,0,0,0,9999,0.100000,99,0,0.415372,5,0.000000,27.622104,0.144055,99,99,0,0,0,0,1
1,19999,52,10000,65,0,40,9999,0.100000,99,0,0.000000,6,1.000000,22.709051,16.414912,99,99,0,0,0,0,0
1,19999,53,10000,40,0,40,9999,0.100000,99,0,0.000000,6,0.000000,25.052870,0.061486,99,99,0,0,0,0,0
1,19999,54,0,54,0,41,19999,0.100000,99,0,0.000000,6,3.000000,19.812102,7.611309,99,99,0,0,0,0,0
1,19999,55,10000,7,0,42,9999,0.100000,99,0,0.000000,4,5.000000,19.105416,11.292626,99,99,0,0,0,0,0
1,19999,56,10000,57,0,40,9999,0.100000,99,0,0.000000,5,1.000000,19.968582,1.480409,99,99,0,0,0,0,0
1,19999,57,10000,91,0,0,9999,0.100000,99,0,1.340346,5,1.000000,20.282382,1.470750,99,99,0,0,0,0,1
1,19999,58,10000,2,0,0,9999,0.100000,99,0,0.233753,5,0.000000,25.947560,0.096565,99,99,0,0,0,0,1
1,19999,59,10000,0,0,0,9999,0.100000,99,0,0.002186,3,0.000000,25.064711,0.064695,99,99,0,0,0,0,1
1,19999,60,10000,0,0,40,9999,0.100000,99,0,0.000000,4,0.000000,34.522777,0.230967,99,99,0,0,0,0,0
1,19999,61,10000,57,0,40,9999,0.100000,99,0,0.000000,5,2.000000,24.646094,10.473750,99,99,0,0,0,0,0
1,19999,62,10000,54,0,0,9999,0.100000,99,0,0.000863,6,0.000000,24.881361,0.084956,99,99,0,0,0,0,1
1,19999,63,10000,0,0,40,9999,0.100000,99,0,0.000000,5,0.000000,30.566477,0.490583,99,99,0,0,0,0,0
1,19999,64,10000,2,0,40,9999,0.100000,99,0,0.000000,5,0.000000,27.437326,0.816282,99,99,0,0,0,0,0
1,19999,65,10000,65,0,41,9999,0.100000,99,0,0.000000,5,2.000000,16.929885,3.052256,99,99,0,0,0,0,0
1,19999,66,10000,0,0,40,9999,0.100000,99,0,0.000000,4,1.000000,19.306809,23.572210,99,99,0,0,0,0,0
1,19999,67,10000,7,0,40,9999,0.100000,99,0,0.000000,5,0.000000,21.219516,0.456455,99,99,0,0,0,0,0
1,19999,68,10000,68,0,41,9999,0.100000,99,0,0.000000,6,3.000000,16.356890,6.509824,99,99,0,0,0,0,0
1,19999,69,10000,91,0,40,9999,0.100000,99,0,0.000000,5,0.000000,27.729815,5.544991,99,99,0,0,0,0,0
1,19999,70,10000,7,0,0,9999,0.100000,99,0,0.256695,6,0.000000,14.353572,0.131478,99,99,0,0,0,0,1
1,19999,71,0,71,0,0,19999,0.100000,99,0,0.000125,4,0.000000,32.697414,0.100409,99,99,0,0,0,0,1
1,19999,72,10000,43,0,0,9999,0.100000,99,0,0.173674,6,0.000000,27.076101,0.817128,99,99,0,0,0,0,1
1,19999,73,10000,2,0,42,9999,0.100000,99,0,0.000000,6,5.000000,22.516677,14.129732,99,99,0,0,0,0,0
1,19999,74,10000,91,0,40,9999,0.100000,99,0,0.000000,5,1.000000,20.055160,1.253834,99,99,0,0,0,0,0
1,19999,75,10000,5,0,41,9999,0.100000,99,0,0.000000,6,3.000000,20.898964,12.315877,99,99,0,0,0,0,0
1,19999,76,10000,57,0,0,9999,0.100000,99,0,0.672524,5,1.000000,29.404576,5.384639,99,99,0,1,0,0,0
1,19999,77,10000,2,0,40,9999,0.100000,99,0,0.000000,6,1.000000,18.785182,11.461775,99,99,0,0,0,0,0
1,19999,78,10000,2,0,40,9999,0.100000,99,0,0.000000,5,0.000000,26.756661,0.431685,99,99,0,0,0,0,0
1,19999,79,10000,5,0,40,9999,0.100000,99,0,0.000000,6,0.000000,33.416471,0.227110,99,99,0,0,0,0,0
1,19999,80,10000,57,0,40,9999,0.100000,99,0,0.000000,5,2.000000,30.963583,7.986405,99,99,0,0,0,0,0
1,19999,81,0,81,0,0,19999,0.100000,99,0,0.002920,3,0.000000,23.784312,0.122319,99,99,0,0,0,1,0
1,19999,82,10000,60,0,40,9999,0.100000,99,0,0.000000,4,0.000000,22.841878,3.814552,99,99,0,0,0,0,0
1,19999,83,10000,0,0,0,9999,0.100000,99,0,0.552813,4,1.000000,27.647678,2.656878,99,99,0,0,1,0,0
1,19999,84,10000,7,0,40,9999,0.100000,99,0,0.000000,5,0.000000,27.455542,1.652382,99,99,0,0,0,0,0
1,19999,85,10000,0,0,0,9999,0.100000,99,0,0.493896,5,0.000000,30.245372,0.180867,99,99,0,0,0,0,1
1,19999,86,10000,57,0,0,9999,0.100000,99,0,0.001121,5,0.000000,22.660136,0.083611,99,99,0,0,0,0,1
1,19999,87,10000,54,0,40,9999,0.100000,99,0,0.000000,6,0.000000,21.718586,3.060740,99,99,0,0,0,0,0
1,19999,88,10000,2,0,0,9999,0.100000,99,0,2.343299,5,0.000000,20.139149,1.219250,99,99,0,1,0,0,0
1,19999,89,10000,7,0,40,9999,0.100000,99,0,0.000000,4,2.000000,19.909802,10.115487,99,99,0,0,0,0,0
1,19999,90,10000,2,0,40,9999,0.100000,99,0,0.000000,5,0.000000,28.479484,0.334126,99,99,0,0,0,0,0
1,19999,91,10000,60,0,40,9999,0.100000,99,0,0.000000,5,1.000000,20.019279,1.734685,99,99,0,0,0,0,0
1,19999,92,10000,68,0,40,9999,0.100000,99,0,0.000000,6,1.000000,19.492460,1.327011,99,99,0,0,0,0,0
1,19999,93,10000,57,0,40,9999,0.100000,99,0,0.000000,5,1.000000,23.815790,6.807317,99,99,0,0,0,0,0
1,19999,94,10000,7,0,40,9999,0.100000,99,0,0.000000,6,0.000000,24.112797,2.931786,99,99,0,0,0,0,0
1,19999,95,10000,7,0,40,9999,0.100000,99,0,0.000000,6,0.000000,21.455115,0.925552,99,99,0,0,0,0,0
1,19999,96,10000,7,0,41,9999,0.100000,99,0,0.000000,6,3.000000,16.757144,7.746680,99,99,0,0,0,0,0
1,19999,97,10000,60,0,0,9999,0.100000,99,0,0.920885,4,0.000000,22.999662,0.325872,99,99,0,0,1,0,0
1,19999,98,10000,2,0,40,9999,0.100000,99,0,0.000000,6,0.000000,21.584269,0.349704,99,99,0,0,0,0,0
1,19999,99,10000,7,0,40,9999,0.100000,99,0,0.000000,6,2.000000,24.662636,19.176064,99,99,0,0,0,0,0
2,29999,0,20000,0,0,40,9999,0.100000,99,0,0.000000,6,1.000000,22.220385,4.584396,99,99,0,0,0,0,0
2,29999,1,20000,65,0,40,9999,0.100000,99,0,0.000000,6,1.000000,19.484250,7.649104,99,99,0,0,0,0,0
2,29999,2,20000,7,0,40,9999,0.100000,99,0,0.000000,6,1.000000,26.826063,5.818344,99,99,0,0,0,0,0
2,29999,3,20000,68,0,40,9999,0.100000,99,0,0.000000,6,0.000000,29.448051,21.498218,99,99,0,0,0,0,0
2,29999,4,20000,65,0,0,9999,0.100000,99,0,0.720657,7,0.000000,19.165872,0.365235,99,99,0,0,0,0,1
2,29999,5,20000,7,0,0,9999,0.065000,99,0,2.881344,6,0.000000,21.966626,1.113440,99,99,0,0,0,0,1
2,29999,6,20000,0,0,40,9999,0.100000,99,0,0.000000,6,0.000000,26.692903,0.231864,99,99,0,0,0,0,0
2,29999,7,20000,54,0,40,9999,0.100000,99,0,0.000000,6,0.000000,14.401885,0.573136,99,99,0,0,0,0,0
2,29999,8,20000,54,0,41,9999,0.100000,99,0,0.000000,6,2.000000,18.850805,5.554669,99,99,0,0,0,0,0
2,29999,9,20000,0,0,0,9999,0.100000,99,0,0.016142,6,0.000000,28.372929,0.131896,99,99,0,0,0,0,1
2,29999,10,20000,7,0,0,9999,0.100000,99,0,0.255805,6,0.000000,29.527757,0.163556,99,99,0,0,0,0,1
2,29999,11,20000,68,0,40,9999,0.100000,99,0,0.000000,6,0.000000,31.901765,0.911525,99,99,0,0,0,0,0
2,29999,12,20000,65,0,0,9999,0.100000,99,0,0.001044,6,0.000000,26.016430,0.079477,99,99,0,0,0,0,1
2,29999,13,20000,0,0,0,9999,0.100000,99,0,0.053746,7,0.000000,29.540821,0.321328,99,99,0,0,0,0,1
2,29999,14,20000,0,0,40,9999,0.100000,99,0,0.000000,6,1.000000,30.969045,2.580477,99,99,0,0,0,0,0
2,29999,15,20000,65,0,0,9999,0.100000,99,0,3.914307,6,0.000000,25.483367,0.787805,99,99,0,0,0,1,0
2,29999,16,20000,7,0,40,9999,0.100000,99,0,0.000000,6,0.000000,22.373558,1.101609,99,99,0,0,0,0,0
2,29999,17,20000,55,10000,40,9999,0.100000,99,0,0.000000,7,1.000000,22.570386,4.419355,99,99,0,0,0,0,0
2,29999,18,20000,54,0,40,9999,0.100000,99,0,0.000000,6,0.000000,26.727686,1.174631,99,99,0,0,0,0,0
2,29999,19,20000,65,0,40,9999,0.100000,99,0,0.000000,6,0.000000,25.131052,0.781507,99,99,0,0,0,0,0
2,29999,20,20000,54,0,40,9999,0.100000,99,0,0.000000,6,0.000000,26.557621,3.457414,99,99,0,0,0,0,0
2,29999,21,20000,54,0,40,9999,0.100000,99,0,0.000000,6,1.000000,18.540672,5.916115,99,99,0,0,0,0,0
2,29999,22,20000,7,0,0,9999,0.100000,99,0,0.005411,6,0.000000,29.064165,0.133272,99,99,0,0,1,0,0
2,29999,23,20000,7,0,0,9999,0.100000,99,0,0.009001,7,0.000000,25.750423,0.081451,99,99,0,0,0,0,1
2,29999,24,20000,68,0,41,9999,0.100000,99,0,0.000000,6,4.000000,27.502746,9.376128,99,99,0,0,0,0,0
2,29999,25,20000,43,0,0,9999,0.100000,99,0,0.000511,6,0.000000,15.527160,0.394382,99,99,0,0,0,1,0
2,29999,26,20000,65,0,0,9999,0.100000,99,0,1.491401,6,0.000000,19.336988,0.582859,99,99,0,0,1,0,0
2,29999,27,20000,43,0,40,9999,0.100000,99,0,0.000000,7,0.000000,26.266633,0.382069,99,99,0,0,0,0,0
2,29999,28,20000,43,0,40,9999,0.100000,99,0,0.000000,6,1.000000,23.310926,1.795527,99,99,0,0,0,0,0
2,29999,29,20000,68,0,0,9999,0.100000,99,0,2.315356,7,0.000000,21.509344,1.260797,99,99,0,0,0,0,1
2,29999,30,20000,54,0,0,9999,0.100000,99,0,0.042671,7,0.000000,27.521217,0.277626,99,99,0,0,0,0,1
2,29999,31,20000,65,0,0,9999,0.100000,99,0,0.000626,6,0.000000,20.430094,0.098642,99,99,0,0,0,0,1
2,29999,32,20000,43,0,40,9999,0.100000,99,0,0.000000,6,0.000000,29.463708,0.435167,99,99,0,0,0,0,0
2,29999,33,20000,7,0,40,9999,0.100000,99,0,0.000000,7,0.000000,32.051473,0.355526,99,99,0,0,0,0,0
2,29999,34,20000,0,0,40,9999,0.100000,99,0,0.000000,6,0.000000,29.848748,4.370269,99,99,0,0,0,0,0
2,29999,35,20000,0,0,40,9999,0.100000,99,0,0.000000,6,2.000000,29.915947,13.345617,99,99,0,0,0,0,0
2,29999,36,20000,0,0,40,9999,0.100000,99,0,0.000000,6,0.000000,19.512866,2.106645,99,99,0,0,0,0,0
2,29999,37,20000,7,0,40,9999,0.100000,99,0,0.000000,7,0.000000,22.028970,1.609486,99,99,0,0,0,0,0
2,29999,38,20000,55,10000,40,9999,0.100000,99,0,0.000000,7,0.000000,30.008597,0.479242,99,99,0,0,0,0,0
2,29999,39,20000,65,0,40,9999,0.100000,99,0,0.000000,6,1.000000,16.992516,4.887437,99,99,0,0,0,0,0
2,29999,40,20000,7,0,0,9999,0.100000,99,0,0.460972,6,0.000000,30.976202,0.603075,99,99,0,0,0,0,1
2,29999,41,20000,54,0,0,9999,0.100000,99,0,0.161523,7,0.000000,20.615733,0.202101,99,99,0,1,0,0,0
2,29999,42,20000,55,10000,40,9999,0.100000,99,0,0.000000,7,0.000000,33.853292,1.283550,99,99,0,0,0,0,0
2,29999,43,20000,7,0,0,9999,0.100000,99,0,9.312170,6,1.000000,29.374175,11.436283,99,99,0,1,0,0,0
2,29999,44,20000,68,0,40,9999,0.100000,99,0,0.000000,6,0.000000,29.829864,0.594847,99,99,0,0,0,0,0
2,29999,45,20000,0,0,0,9999,0.100000,99,0,6.829347,6,1.000000,31.026026,1.969153,99,99,0,0,1,0,0
2,29999,46,20000,7,0,40,9999,0.100000,99,0,0.000000,6,0.000000,21.093277,6.925029,99,99,0,0,0,0,0
2,29999,47,20000,54,0,40,9999,0.100000,99,0,0.000000,6,2.000000,21.461536,9.821815,99,99,0,0,0,0,0
2,29999,48,20000,68,0,41,9999,0.100000,99,0,0.000000,7,3.000000,16.182292,6.593041,99,99,0,0,0,0,0
2,29999,49,20000,68,0,0,9999,0.100000,99,0,0.069777,7,0.000000,12.152175,0.140759,99,99,0,0,0,0,1
2,29999,50,20000,68,0,41,9999,0.100000,99,0,0.000000,7,3.000000,20.333263,3.666597,99,99,0,0,0,0,0
2,29999,51,20000,65,0,0,9999,0.100000,99,0,0.538068,6,0.000000,27.687499,0.151783,99,99,0,0,0,0,1
2,29999,52,20000,43,0,40,9999,0.100000,99,0,0.000000,6,0.000000,22.425025,1.808851,99,99,0,0,0,0,0
2,29999,53,20000,43,0,40,9999,0.100000,99,0,0.000000,6,0.000000,25.052936,0.060890,99,99,0,0,0,0,0
2,29999,54,20000,65,0,40,9999,0.100000,99,0,0.000000,7,0.000000,20.858234,1.652122,99,99,0,0,0,0,0
2,29999,55,20000,7,0,40,9999,0.100000,99,0,0.000000,7,0.000000,14.084482,0.298370,99,99,0,0,0,0,0
2,29999,56,20000,55,10000,42,9999,0.100000,99,0,0.000000,7,5.000000,20.878810,8.492009,99,99,0,0,0,0,0
2,29999,57,20000,0,0,40,9999,0.100000,99,0,0.000000,6,0.000000,21.131195,5.177037,99,99,0,0,0,0,0
2,29999,58,20000,7,0,0,9999,0.100000,99,0,0.400938,7,0.000000,25.969220,0.124833,99,99,0,0,0,0,1
2,29999,59,20000,55,10000,0,9999,0.100000,99,0,0.002049,7,0.000000,25.064671,0.065043,99,99,0,0,0,0,1
2,29999,60,20000,0,0,40,9999,0.100000,99,0,0.000000,7,0.000000,34.534137,0.214155,99,99,0,0,0,0,0
2,29999,61,20000,55,10000,40,9999,0.100000,99,0,0.000000,7,0.000000,23.739294,1.148404,99,99,0,0,0,0,0
2,29999,62,20000,54,0,0,9999,0.100000,99,0,0.000775,7,0.000000,24.881234,0.084772,99,99,0,0,0,0,1
2,29999,63,20000,0,0,40,9999,0.100000,99,0,0.000000,6,0.000000,30.775763,0.861722,99,99,0,0,0,0,0
2,29999,64,20000,43,0,40,9999,0.100000,99,0,0.000000,6,0.000000,27.300827,0.725315,99,99,0,0,0,0,0
2,29999,65,20000,7,0,40,9999,0.100000,99,0,0.000000,7,0.000000,19.081154,0.473122,99,99,0,0,0,0,0
2,29999,66,20000,7,0,41,9999,0.100000,99,0,0.000000,6,4.000000,20.354608,12.297291,99,99,0,0,0,0,0
2,29999,67,20000,54,0,40,9999,0.100000,99,0,0.000000,7,0.000000,21.278381,5.653354,99,99,0,0,0,0,0
2,29999,68,20000,55,10000,40,9999,0.100000,99,0,0.000000,7,0.000000,19.586777,0.846175,99,99,0,0,0,0,0
2,29999,69,20000,54,0,40,9999,0.100000,99,0,0.000000,6,0.000000,27.590796,7.334877,99,99,0,0,0,0,0
2,29999,70,20000,0,0,0,9999,0.100000,99,0,0.283950,6,0.000000,14.352899,0.127420,99,99,0,0,0,0,1
2,29999,71,20000,55,10000,0,9999,0.100000,99,0,0.000164,7,0.000000,32.697045,0.098499,99,99,0,0,0,0,1
2,29999,72,20000,65,0,0,9999,0.100000,99,0,0.090597,7,0.000000,26.885684,0.082825,99,99,0,0,0,0,1
2,29999,73,20000,43,0,0,9999,0.100000,99,0,6.065090,7,1.000000,23.074577,1.427121,99,99,0,0,0,1,0
2,29999,74,20000,65,0,40,9999,0.100000,99,0,0.000000,7,0.000000,20.974501,6.643169,99,99,0,0,0,0,0
2,29999,75,20000,7,0,40,9999,0.100000,99,0,0.000000,6,1.000000,19.027230,17.200977,99,99,0,0,0,0,0
2,29999,76,20000,7,0,0,9999,0.100000,99,0,9.166370,6,1.000000,29.054390,4.635313,99,99,0,1,0,0,0
2,29999,77,20000,7,0,42,9999,0.100000,99,0,0.000000,7,4.000000,17.733008,6.157632,99,99,0,0,0,0,0
2,29999,78,20000,7,0,40,9999,0.100000,99,0,0.000000,6,1.000000,26.797470,3.232804,99,99,0,0,0,0,0
2,29999,79,20000,43,0,40,9999,0.100000,99,0,0.000000,6,0.000000,33.384561,0.209834,99,99,0,0,0,0,0
2,29999,80,20000,43,0,40,9999,0.100000,99,0,0.000000,7,0.000000,28.418820,4.119726,99,99,0,0,0,0,0
2,29999,81,20000,55,10000,0,9999,0.100000,99,0,0.001951,7,0.000000,23.786793,0.132388,99,99,0,0,0,1,0
2,29999,82,20000,43,0,43,9999,0.100000,99,0,0.000000,6,7.000000,22.145646,27.672262,99,99,0,0,0,0,0
2,29999,83,20000,65,0,0,9999,0.100000,99,0,0.576440,6,0.000000,28.551122,0.709963,99,99,0,0,1,0,0
2,29999,84,20000,54,0,40,9999,0.100000,99,0,0.000000,6,0.000000,27.350304,1.422272,99,99,0,0,0,0,0
2,29999,85,20000,0,0,1,9999,0.100000,99,0,0.847132,7,4.000000,30.351150,9.043562,99,99,0,0,0,0,1
2,29999,86,20000,54,0,0,9999,0.100000,99,0,0.675545,7,0.000000,22.660885,0.670409,99,99,0,0,0,0,1
2,29999,87,20000,68,0,40,9999,0.100000,99,0,0.000000,6,1.000000,21.491394,4.307699,99,99,0,0,0,0,0
2,29999,88,20000,65,0,0,9999,0.100000,99,0,1.990057,7,0.000000,20.872022,1.164159,99,99,0,1,0,0,0
2,29999,89,20000,0,0,40,9999,0.100000,99,0,0.000000,7,0.000000,19.669539,3.208197,99,99,0,0,0,0,0
2,29999,90,20000,7,0,40,9999,0.100000,99,0,0.000000,7,0.000000,28.474159,2.138944,99,99,0,0,0,0,0
2,29999,91,20000,7,0,40,9999,0.100000,99,0,0.000000,7,1.000000,20.957813,1.391160,99,99,0,0,0,0,0
2,29999,92,20000,7,0,40,9999,0.100000,99,0,0.000000,7,1.000000,20.464546,7.350312,99,99,0,0,0,0,0
2,29999,93,20000,0,0,42,9999,0.100000,99,0,0.000000,7,5.000000,22.035411,10.848705,99,99,0,0,0,0,0
2,29999,94,20000,54,0,40,9999,0.100000,99,0,0.000000,7,2.000000,24.662494,18.744330,99,99,0,0,0,0,0
2,29999,95,20000,68,0,40,9999,0.100000,99,0,0.000000,6,0.000000,20.769148,0.884580,99,99,0,0,0,0,0
2,29999,96,20000,7,0,40,9999,0.100000,99,0,0.000000,7,0.000000,19.373053,8.770543,99,99,0,0,0,0,0
2,29999,97,20000,68,0,0,9999,0.100000,99,0,1.389717,7,0.000000,22.791820,0.582941,99,99,0,0,1,0,0
2,29999,98,20000,0,0,40,9999,0.100000,99,0,0.000000,6,0.000000,21.652954,1.300964,99,99,0,0,0,0,0
2,29999,99,20000,43,0,40,9999,0.100000,99,0,0.000000,6,1.000000,22.274965,5.540949,99,99,0,0,0,0,0
3,39999,0,30000,7,0,0,9999,0.100000,99,0,0.128922,7,2.000000,22.572009,4.226528,99,99,0,0,0,1,0
3,39999,1,30000,0,0,41,9999,0.100000,99,0,0.000000,7,3.000000,19.215134,9.813933,99,99,0,0,0,0,0
3,39999,2,30000,55,10000,40,9999,0.100000,99,0,0.000000,7,0.000000,25.213667,2.741311,99,99,0,0,0,0,0
3,39999,3,30000,0,0,40,9999,0.100000,99,0,0.000000,7,0.000000,29.373385,1.356798,99,99,0,0,0,0,0
3,39999,4,30000,68,0,40,9999,0.100000,99,0,0.000000,7,0.000000,19.098231,0.671136,99,99,0,0,0,0,0
3,39999,5,30000,7,0,0,9999,0.100000,99,0,0.809113,7,0.000000,22.479732,0.538261,99,99,0,0,0,0,1
3,39999,6,30000,68,0,40,9999,0.100000,99,0,0.000000,7,0.000000,26.737585,0.213264,99,99,0,0,0,0,0
3,39999,7,30000,68,0,40,9999,0.100000,99,0,0.000000,7,0.000000,14.158728,0.415786,99,99,0,0,0,0,0
3,39999,8,30000,55,10000,41,9999,0.100000,99,0,0.000000,7,3.000000,19.496000,15.474438,99,99,0,0,0,0,0
3,39999,9,30000,43,20000,0,9999,0.100000,99,0,0.002519,7,0.000000,28.380691,0.081083,99,99,0,0,0,0,1
3,39999,10,30000,65,0,40,9999,0.100000,99,0,0.000000,7,0.000000,29.446262,0.721093,99,99,0,0,0,0,0
3,39999,11,30000,54,0,40,9999,0.100000,99,0,0.000000,7,3.000000,32.193772,7.085564,99,99,0,0,0,0,0
3,39999,12,30000,43,20000,0,9999,0.100000,99,0,0.008493,7,0.000000,26.016002,0.098775,99,99,0,0,0,0,1
3,39999,13,30000,65,0,0,9999,0.100000,99,0,0.414044,7,0.000000,29.530730,0.659236,99,99,0,0,0,0,1
3,39999,14,30000,0,0,40,9999,0.100000,99,0,0.000000,7,1.000000,30.616407,4.065717,99,99,0,0,0,0,0
3,39999,15,30000,65,0,40,9999,0.100000,99,0,0.000000,7,0.000000,25.034995,1.395940,99,99,0,0,0,0,0
3,39999,16,30000,43,20000,40,9999,0.100000,99,0,0.000000,7,1.000000,22.101621,3.839466,99,99,0,0,0,0,0
3,39999,17,30000,0,0,40,9999,0.100000,99,0,0.000000,7,0.000000,23.761081,2.168203,99,99,0,0,0,0,0
3,39999,18,30000,68,0,0,9999,0.100000,99,0,0.081809,7,0.000000,26.753511,1.983816,99,99,0,0,0,0,1
3,39999,19,30000,54,0,40,9999,0.100000,99,0,0.000000,7,0.000000,25.154134,0.782879,99,99,0,0,0,0,0
3,39999,20,30000,55,10000,41,9999,0.100000,99,0,0.000000,7,3.000000,25.939580,13.141029,99,99,0,0,0,0,0
3,39999,21,30000,43,0,41,9999,0.100000,99,0,0.000000,7,3.000000,19.085597,10.648052,99,99,0,0,0,0,0
3,39999,22,30000,65,0,0,9999,0.100000,99,0,0.006036,7,0.000000,29.058684,0.117248,99,99,0,0,1,0,0
3,39999,23,30000,7,0,0,9999,0.100000,99,0,0.001858,7,0.000000,25.755658,0.074921,99,99,0,0,0,0,1
3,39999,24,30000,0,0,40,9999,0.100000,99,0,0.000000,7,0.000000,29.818629,3.247249,99,99,0,0,0,0,0
3,39999,25,30000,68,0,40,9999,0.100000,99,0,0.000000,7,0.000000,15.319376,0.523170,99,99,0,0,0,0,0
3,39999,26,30000,55,10000,40,9999,0.100000,99,0,0.000000,7,2.000000,19.064922,13.234969,99,99,0,0,0,0,0
3,39999,27,30000,43,0,0,9999,0.100000,99,0,0.045977,7,1.000000,26.313906,2.674344,99,99,0,0,0,0,1
3,39999,28,30000,65,0,40,9999,0.100000,99,0,0.000000,7,0.000000,23.791807,1.258958,99,99,0,0,0,0,0
3,39999,29,30000,0,0,0,9999,0.100000,99,0,1.083729,7,0.000000,21.940440,2.033037,99,99,0,0,0,0,1
3,39999,30,30000,7,0,40,9999,0.100000,99,0,0.000000,7,0.000000,27.544573,0.778159,99,99,0,0,0,0,0
3,39999,31,30000,55,10000,0,9999,0.100000,99,0,0.006566,7,0.000000,20.425597,0.094820,99,99,0,0,0,0,1
3,39999,32,30000,68,0,40,9999,0.100000,99,0,0.000000,7,0.000000,29.456335,0.785698,99,99,0,0,0,0,0
3,39999,33,30000,54,0,40,9999,0.100000,99,0,0.000000,7,0.000000,32.093361,0.344240,99,99,0,0,0,0,0
3,39999,34,30000,55,10000,40,9999,0.100000,99,0,0.000000,7,0.000000,29.892045,1.432602,99,99,0,0,0,0,0
3,39999,35,30000,55,10000,40,9999,0.100000,99,0,0.000000,7,2.000000,28.984720,5.150360,99,99,0,0,0,0,0
3,39999,36,30000,54,0,0,9999,0.100000,99,0,1.113609,7,0.000000,19.178860,0.535388,99,99,0,0,0,0,1
3,39999,37,30000,68,0,40,9999,0.100000,99,0,0.000000,7,0.000000,22.516556,1.093073,99,99,0,0,0,0,0
3,39999,38,30000,0,0,40,9999,0.100000,99,0,0.000000,7,0.000000,30.235694,0.434902,99,99,0,0,0,0,0
3,39999,39,30000,55,10000,42,9999,0.100000,99,0,0.000000,7,4.000000,17.710659,10.691832,99,99,0,0,0,0,0
3,39999,40,30000,55,10000,0,9999,0.100000,99,0,0.533823,7,0.000000,31.502013,0.157528,99,99,0,0,0,0,1
3,39999,41,30000,68,0,0,9999,0.100000,99,0,2.346318,7,0.000000,20.477495,1.397552,99,99,0,1,0,0,0
3,39999,42,30000,68,0,40,9999,0.100000,99,0,0.000000,7,0.000000,33.980061,0.906101,99,99,0,0,0,0,0
3,39999,43,30000,0,0,41,9999,0.100000,99,0,0.000000,7,5.000000,29.914913,14.876546,99,99,0,0,0,0,0
3,39999,44,30000,68,0,0,9999,0.100000,99,0,1.144446,7,0.000000,29.766579,0.919995,99,99,0,0,0,0,1
3,39999,45,30000,43,20000,41,9999,0.100000,99,0,0.000000,7,6.000000,30.663873,11.782136,99,99,0,0,0,0,0
3,39999,46,30000,65,0,40,9999,0.100000,99,0,0.000000,7,0.000000,21.648325,6.027303,99,99,0,0,0,0,0
3,39999,47,30000,43,0,40,9999,0.100000,99,0,0.000000,7,1.000000,23.143170,15.608261,99,99,0,0,0,0,0
3,39999,48,30000,65,0,40,9999,0.100000,99,0,0.000000,7,0.000000,18.919454,1.844493,99,99,0,0,0,0,0
3,39999,49,30000,0,0,0,9999,0.100000,99,0,0.155967,7,0.000000,12.100533,0.239171,99,99,0,0,0,0,1
3,39999,50,30000,55,10000,0,9999,0.100000,99,0,0.012745,7,2.000000,23.574270,8.450898,99,99,0,0,1,0,0
3,39999,51,30000,43,0,40,9999,0.100000,99,0,0.000000,7,0.000000,27.767189,0.192480,99,99,0,0,0,0,0
3,39999,52,30000,43,0,40,9999,0.100000,99,0,0.000000,7,0.000000,22.078664,3.048132,99,99,0,0,0,0,0
3,39999,53,30000,43,0,40,9999,0.100000,99,0,0.000000,7,0.000000,25.052788,0.063482,99,99,0,0,0,0,0
3,39999,54,30000,0,0,40,9999,0.100000,99,0,0.000000,7,0.000000,20.552353,0.062519,99,99,0,0,0,0,0
3,39999,55,30000,43,0,40,9999,0.100000,99,0,0.000000,7,0.000000,13.974820,0.380544,99,99,0,0,0,0,0
3,39999,56,30000,7,0,40,9999,0.100000,99,0,0.000000,7,0.000000,22.898326,1.205381,99,99,0,0,0,0,0
3,39999,57,30000,65,0,40,9999,0.100000,99,0,0.000000,7,0.000000,21.778348,0.592894,99,99,0,0,0,0,0
3,39999,58,30000,68,0,40,9999,0.100000,99,0,0.000000,7,0.000000,26.002592,3.219967,99,99,0,0,0,0,0
3,39999,59,30000,55,10000,0,9999,0.100000,99,0,0.056066,7,0.000000,25.064739,0.090283,99,99,0,0,0,0,1
3,39999,60,30000,55,10000,0,9999,0.100000,99,0,0.959245,7,0.000000,34.538179,1.786562,99,99,0,0,0,0,1
3,39999,61,30000,43,0,40,9999,0.100000,99,0,0.000000,7,0.000000,23.895771,1.613717,99,99,0,0,0,0,0
3,39999,62,30000,68,0,0,9999,0.100000,99,0,0.000553,7,0.000000,24.881098,0.083088,99,99,0,0,0,0,1
3,39999,63,30000,65,0,40,9999,0.100000,99,0,0.000000,7,0.000000,31.315472,0.421489,99,99,0,0,0,0,0
3,39999,64,30000,43,20000,0,9999,0.100000,99,0,0.153759,7,0.000000,27.333229,0.642975,99,99,0,0,0,0,1
3,39999,65,30000,7,0,41,9999,0.100000,99,0,0.000000,7,2.000000,18.819118,3.216722,99,99,0,0,0,0,0
3,39999,66,30000,7,0,42,9999,0.100000,99,0,0.000000,7,6.000000,22.836123,7.711575,99,99,0,0,0,0,0
3,39999,67,30000,7,0,41,9999,0.100000,99,0,0.000000,7,4.000000,21.672627,5.469739,99,99,0,0,0,0,0
3,39999,68,30000,43,0,40,9999,0.100000,99,0,0.000000,7,1.000000,19.252801,3.277148,99,99,0,0,0,0,0
3,39999,69,30000,7,0,40,9999,0.100000,99,0,0.000000,7,0.000000,27.082080,0.222604,99,99,0,0,0,0,0
3,39999,70,30000,55,10000,0,9999,0.100000,99,0,0.250836,7,0.000000,14.359642,0.119567,99,99,0,0,0,0,1
3,39999,71,30000,55,10000,0,9999,0.100000,99,0,0.000506,7,0.000000,32.696722,0.097535,99,99,0,0,0,0,1
3,39999,72,30000,65,0,0,9999,0.100000,99,0,0.070061,7,0.000000,26.910619,0.080385,99,99,0,0,0,0,1
3,39999,73,30000,54,0,0,9999,0.100000,99,0,0.949899,7,0.000000,23.580539,0.748562,99,99,0,0,0,1,0
3,39999,74,30000,7,0,40,9999,0.100000,99,0,0.000000,7,0.000000,21.298567,4.499244,99,99,0,0,0,0,0
3,39999,75,30000,43,0,43,9999,0.100000,99,0,0.000000,7,6.000000,18.344339,15.577339,99,99,0,0,0,0,0
3,39999,76,30000,65,0,40,9999,0.100000,99,0,0.000000,7,0.000000,29.484799,0.651885,99,99,0,0,0,0,0
3,39999,77,30000,68,0,40,9999,0.100000,99,0,0.000000,7,0.000000,20.087312,0.078707,99,99,0,0,0,0,0
3,39999,78,30000,0,0,40,9999,0.100000,99,0,0.000000,7,1.000000,26.809988,3.640589,99,99,0,0,0,0,0
3,39999,79,30000,43,20000,40,9999,0.100000,99,0,0.000000,7,1.000000,33.357040,3.699977,99,99,0,0,0,0,0
3,39999,80,30000,55,10000,40,9999,0.100000,99,0,0.000000,7,0.000000,28.528993,4.039668,99,99,0,0,0,0,0
3,39999,81,30000,43,20000,0,9999,0.100000,99,0,0.008559,7,0.000000,23.820894,0.128136,99,99,0,0,0,1,0
3,39999,82,30000,0,0,44,9999,0.100000,99,0,0.000000,7,10.000000,22.646843,19.453081,99,99,0,0,0,0,0
3,39999,83,30000,68,0,0,9999,0.100000,99,0,0.582528,7,0.000000,28.662973,0.683362,99,99,0,0,1,0,0
3,39999,84,30000,43,0,40,9999,0.100000,99,0,0.000000,7,0.000000,27.214821,0.847480,99,99,0,0,0,0,0
3,39999,85,30000,65,0,1,9999,0.100000,99,0,0.617132,7,4.000000,30.519243,9.070427,99,99,0,0,0,0,1
3,39999,86,30000,43,0,0,9999,0.100000,99,0,0.243433,7,0.000000,23.019626,1.137629,99,99,0,0,0,0,1
3,39999,87,30000,7,0,40,9999,0.100000,99,0,0.000000,7,0.000000,22.899164,1.068568,99,99,0,0,0,0,0
3,39999,88,30000,43,20000,0,9999,0.100000,99,0,5.172982,7,1.000000,20.969991,1.233748,99,99,0,1,0,0,0
3,39999,89,30000,7,0,40,9999,0.100000,99,0,0.000000,7,0.000000,19.341835,2.096421,99,99,0,0,0,0,0
3,39999,90,30000,68,0,40,9999,0.100000,99,0,0.000000,7,0.000000,28.567058,0.079815,99,99,0,0,0,0,0
3,39999,91,30000,68,0,40,9999,0.100000,99,0,0.000000,7,1.000000,21.088240,1.429649,99,99,0,0,0,0,0
3,39999,92,30000,68,0,40,9999,0.100000,99,0,0.000000,7,0.000000,21.576487,8.138272,99,99,0,0,0,0,0
3,39999,93,30000,43,0,0,9999,0.100000,99,0,0.047190,7,0.000000,22.868565,0.807992,99,99,0,0,0,0,1
3,39999,94,30000,68,0,40,9999,0.100000,99,0,0.000000,7,2.000000,23.460396,8.531305,99,99,0,0,0,0,0
3,39999,95,30000,65,0,40,9999,0.100000,99,0,0.000000,7,0.000000,20.114246,1.861740,99,99,0,0,0,0,0
3,39999,96,30000,7,0,0,9999,0.100000,99,0,12.179334,7,1.000000,19.371561,3.476386,99,99,0,0,1,0,0
3,39999,97,30000,55,10000,40,9999,0.100000,99,0,0.000000,7,0.000000,23.108449,0.318392,99,99,0,0,0,0,0
3,39999,98,30000,43,0,40,9999,0.100000,99,0,0.000000,7,0.000000,22.142417,0.262063,99,99,0,0,0,0,0
3,39999,99,30000,43,0,40,9999,0.100000,99,0,0.000000,7,0.000000,23.057412,0.898578,99,99,0,0,0,0,0
