generation,iteration,robot,birthday,ancestor_id,ancestor_birthday,cell_id,age,sigma,maps,genomes,fitness,cells_in_map,dist_max,dist_pot_max,dist_total,com_rx,com_tx,obj_group1,obj_group2,obj_group3,obj_group4,obj_group5
0,9999,0,0,0,0,1,9999,0.100000,0,0,0.000000,0,3.000000,0.000000,9.740218,0,0,0,0,0,0,0
0,9999,1,0,1,0,1,9999,0.100000,0,0,0.000000,0,2.000000,0.000000,11.623872,0,0,0,0,0,0,0
0,9999,2,0,2,0,1,9999,0.100000,0,0,0.000000,0,6.000000,0.000000,16.772922,0,0,0,0,0,0,0
0,9999,3,0,3,0,1,9999,0.100000,0,0,0.000000,0,5.000000,0.000000,7.075281,0,0,0,0,0,0,0
0,9999,4,0,4,0,1,9999,0.100000,0,0,0.000000,0,5.000000,0.000000,5.470392,0,0,0,0,0,0,0
0,9999,5,0,5,0,1,9999,0.100000,0,0,0.000000,0,5.000000,0.000000,22.154296,0,0,0,0,0,0,0
0,9999,6,0,6,0,1,9999,0.100000,0,0,0.000000,0,10.000000,0.000000,18.197828,0,0,0,0,0,0,0
0,9999,7,0,7,0,1,9999,0.100000,0,0,0.000000,0,10.000000,0.000000,18.564198,0,0,0,0,0,0,0
0,9999,8,0,8,0,1,9999,0.100000,0,0,0.000000,0,12.000000,0.000000,27.317470,0,0,0,0,0,0,0
0,9999,9,0,9,0,1,9999,0.100000,0,0,0.000000,0,5.000000,0.000000,26.130565,0,0,0,0,0,0,0
0,9999,10,0,10,0,1,9999,0.100000,0,0,0.000000,0,4.000000,0.000000,23.422527,0,0,0,0,0,0,0
0,9999,11,0,11,0,1,9999,0.100000,0,0,0.000000,0,9.000000,0.000000,22.848923,0,0,0,0,0,0,0
0,9999,12,0,12,0,1,9999,0.100000,0,0,0.000000,0,7.000000,0.000000,22.962431,0,0,0,0,0,0,0
0,9999,13,0,13,0,1,9999,0.100000,0,0,0.000000,0,9.000000,0.000000,18.536986,0,0,0,0,0,0,0
0,9999,14,0,14,0,1,9999,0.100000,0,0,0.000000,0,2.000000,0.000000,10.162019,0,0,0,0,0,0,0
0,9999,15,0,15,0,1,9999,0.100000,0,0,0.000000,0,9.000000,0.000000,18.359656,0,0,0,0,0,0,0
0,9999,16,0,16,0,1,9999,0.100000,0,0,0.000000,0,9.000000,0.000000,31.496755,0,0,0,0,0,0,0
0,9999,17,0,17,0,1,9999,0.100000,0,0,0.000000,0,9.000000,0.000000,22.425961,0,0,0,0,0,0,0
0,9999,18,0,18,0,1,9999,0.100000,0,0,0.000000,0,9.000000,0.000000,13.667803,0,0,0,0,0,0,0
0,9999,19,0,19,0,1,9999,0.100000,0,0,0.000000,0,7.000000,0.000000,20.268249,0,0,0,0,0,0,0
0,9999,20,0,20,0,1,9999,0.100000,0,0,0.000000,0,10.000000,0.000000,28.747441,0,0,0,0,0,0,0
0,9999,21,0,21,0,1,9999,0.100000,0,0,0.000000,0,8.000000,0.000000,8.712987,0,0,0,0,0,0,0
0,9999,22,0,22,0,1,9999,0.100000,0,0,0.000000,0,8.000000,0.000000,13.505641,0,0,0,0,0,0,0
0,9999,23,0,23,0,1,9999,0.100000,0,0,0.000000,0,10.000000,0.000000,17.843908,0,0,0,0,0,0,0
0,9999,24,0,24,0,1,9999,0.100000,0,0,0.000000,0,8.000000,0.000000,16.677245,0,0,0,0,0,0,0
0,9999,25,0,25,0,1,9999,0.100000,0,0,0.000000,0,6.000000,0.000000,15.721597,0,0,0,0,0,0,0
0,9999,26,0,26,0,1,9999,0.100000,0,0,0.000000,0,10.000000,0.000000,14.273345,0,0,0,0,0,0,0
0,9999,27,0,27,0,1,9999,0.100000,0,0,0.000000,0,6.000000,0.000000,7.986271,0,0,0,0,0,0,0
0,9999,28,0,28,0,1,9999,0.100000,0,0,0.000000,0,8.000000,0.000000,21.385013,0,0,0,0,0,0,0
0,9999,29,0,29,0,1,9999,0.100000,0,0,0.000000,0,4.000000,0.000000,16.113818,0,0,0,0,0,0,0
0,9999,30,0,30,0,1,9999,0.100000,0,0,0.000000,0,9.000000,0.000000,12.594998,0,0,0,0,0,0,0
0,9999,31,0,31,0,1,9999,0.100000,0,0,0.000000,0,8.000000,0.000000,17.300896,0,0,0,0,0,0,0
0,9999,32,0,32,0,1,9999,0.100000,0,0,0.000000,0,6.000000,0.000000,17.793288,0,0,0,0,0,0,0
0,9999,33,0,33,0,1,9999,0.100000,0,0,0.000000,0,11.000000,0.000000,28.694153,0,0,0,0,0,0,0
0,9999,34,0,34,0,1,9999,0.100000,0,0,0.000000,0,10.000000,0.000000,20.994305,0,0,0,0,0,0,0
0,9999,35,0,35,0,1,9999,0.100000,0,0,0.000000,0,8.000000,0.000000,20.208053,0,0,0,0,0,0,0
0,9999,36,0,36,0,1,9999,0.100000,0,0,0.000000,0,8.000000,0.000000,12.755465,0,0,0,0,0,0,0
0,9999,37,0,37,0,1,9999,0.100000,0,0,0.000000,0,9.000000,0.000000,13.339480,0,0,0,0,0,0,0
0,9999,38,0,38,0,1,9999,0.100000,0,0,0.000000,0,4.000000,0.000000,14.987981,0,0,0,0,0,0,0
0,9999,39,0,39,0,1,9999,0.100000,0,0,0.000000,0,10.000000,0.000000,26.048027,0,0,0,0,0,0,0
0,9999,40,0,40,0,1,9999,0.100000,0,0,0.000000,0,9.000000,0.000000,21.593925,0,0,0,0,0,0,0
0,9999,41,0,41,0,1,9999,0.100000,0,0,0.000000,0,9.000000,0.000000,11.967846,0,0,0,0,0,0,0
0,9999,42,0,42,0,1,9999,0.100000,0,0,0.000000,0,7.000000,0.000000,14.151773,0,0,0,0,0,0,0
0,9999,43,0,43,0,1,9999,0.100000,0,0,0.000000,0,12.000000,0.000000,26.816111,0,0,0,0,0,0,0
0,9999,44,0,44,0,1,9999,0.100000,0,0,0.000000,0,8.000000,0.000000,20.907566,0,0,0,0,0,0,0
0,9999,45,0,45,0,1,9999,0.100000,0,0,0.000000,0,6.000000,0.000000,12.643629,0,0,0,0,0,0,0
0,9999,46,0,46,0,1,9999,0.100000,0,0,0.000000,0,8.000000,0.000000,19.026273,0,0,0,0,0,0,0
0,9999,47,0,47,0,1,9999,0.100000,0,0,0.000000,0,3.000000,0.000000,12.066608,0,0,0,0,0,0,0
0,9999,48,0,48,0,1,9999,0.100000,0,0,0.000000,0,8.000000,0.000000,16.023048,0,0,0,0,0,0,0
0,9999,49,0,49,0,1,9999,0.100000,0,0,0.000000,0,4.000000,0.000000,22.372084,0,0,0,0,0,0,0
0,9999,50,0,50,0,1,9999,0.100000,0,0,0.000000,0,2.000000,0.000000,3.164275,0,0,0,0,0,0,0
0,9999,51,0,51,0,1,9999,0.100000,0,0,0.000000,0,7.000000,0.000000,13.696057,0,0,0,0,0,0,0
0,9999,52,0,52,0,1,9999,0.100000,0,0,0.000000,0,12.000000,0.000000,20.803558,0,0,0,0,0,0,0
0,9999,53,0,53,0,1,9999,0.100000,0,0,0.000000,0,5.000000,0.000000,18.700422,0,0,0,0,0,0,0
0,9999,54,0,54,0,1,9999,0.100000,0,0,0.000000,0,10.000000,0.000000,12.306585,0,0,0,0,0,0,0
0,9999,55,0,55,0,1,9999,0.100000,0,0,0.000000,0,4.000000,0.000000,5.241238,0,0,0,0,0,0,0
0,9999,56,0,56,0,1,9999,0.100000,0,0,0.000000,0,9.000000,0.000000,15.061654,0,0,0,0,0,0,0
0,9999,57,0,57,0,1,9999,0.100000,0,0,0.000000,0,5.000000,0.000000,7.291555,0,0,0,0,0,0,0
0,9999,58,0,58,0,1,9999,0.100000,0,0,0.000000,0,8.000000,0.000000,21.706457,0,0,0,0,0,0,0
0,9999,59,0,59,0,1,9999,0.100000,0,0,0.000000,0,2.000000,0.000000,3.104770,0,0,0,0,0,0,0
0,9999,60,0,60,0,1,9999,0.100000,0,0,0.000000,0,2.000000,0.000000,12.977328,0,0,0,0,0,0,0
0,9999,61,0,61,0,1,9999,0.100000,0,0,0.000000,0,3.000000,0.000000,5.091637,0,0,0,0,0,0,0
0,9999,62,0,62,0,1,9999,0.100000,0,0,0.000000,0,7.000000,0.000000,7.887076,0,0,0,0,0,0,0
0,9999,63,0,63,0,1,9999,0.100000,0,0,0.000000,0,4.000000,0.000000,13.354114,0,0,0,0,0,0,0
0,9999,64,0,64,0,1,9999,0.100000,0,0,0.000000,0,3.000000,0.000000,14.571833,0,0,0,0,0,0,0
0,9999,65,0,65,0,1,9999,0.100000,0,0,0.000000,0,6.000000,0.000000,7.005721,0,0,0,0,0,0,0
0,9999,66,0,66,0,1,9999,0.100000,0,0,0.000000,0,6.000000,0.000000,9.130392,0,0,0,0,0,0,0
0,9999,67,0,67,0,1,9999,0.100000,0,0,0.000000,0,10.000000,0.000000,17.404177,0,0,0,0,0,0,0
0,9999,68,0,68,0,1,9999,0.100000,0,0,0.000000,0,14.000000,0.000000,31.765478,0,0,0,0,0,0,0
0,9999,69,0,69,0,1,9999,0.100000,0,0,0.000000,0,13.000000,0.000000,20.569315,0,0,0,0,0,0,0
0,9999,70,0,70,0,1,9999,0.100000,0,0,0.000000,0,5.000000,0.000000,16.590062,0,0,0,0,0,0,0
0,9999,71,0,71,0,1,9999,0.100000,0,0,0.000000,0,7.000000,0.000000,13.444269,0,0,0,0,0,0,0
0,9999,72,0,72,0,1,9999,0.100000,0,0,0.000000,0,11.000000,0.000000,25.420227,0,0,0,0,0,0,0
0,9999,73,0,73,0,1,9999,0.100000,0,0,0.000000,0,8.000000,0.000000,13.964575,0,0,0,0,0,0,0
0,9999,74,0,74,0,1,9999,0.100000,0,0,0.000000,0,9.000000,0.000000,25.866507,0,0,0,0,0,0,0
0,9999,75,0,75,0,1,9999,0.100000,0,0,0.000000,0,6.000000,0.000000,24.867563,0,0,0,0,0,0,0
0,9999,76,0,76,0,1,9999,0.100000,0,0,0.000000,0,7.000000,0.000000,15.224336,0,0,0,0,0,0,0
0,9999,77,0,77,0,1,9999,0.100000,0,0,0.000000,0,1.000000,0.000000,10.809920,0,0,0,0,0,0,0
0,9999,78,0,78,0,1,9999,0.100000,0,0,0.000000,0,2.000000,0.000000,19.385629,0,0,0,0,0,0,0
0,9999,79,0,79,0,3,9999,0.100000,0,0,42.321354,0,11.000000,0.000000,33.198042,0,0,1,0,0,0,0
0,9999,80,0,80,0,1,9999,0.100000,0,0,0.000000,0,8.000000,0.000000,12.171391,0,0,0,0,0,0,0
0,9999,81,0,81,0,1,9999,0.100000,0,0,0.000000,0,8.000000,0.000000,16.994745,0,0,0,0,0,0,0
0,9999,82,0,82,0,1,9999,0.100000,0,0,0.000000,0,4.000000,0.000000,18.359251,0,0,0,0,0,0,0
0,9999,83,0,83,0,1,9999,0.100000,0,0,0.000000,0,4.000000,0.000000,14.022915,0,0,0,0,0,0,0
0,9999,84,0,84,0,1,9999,0.100000,0,0,0.000000,0,2.000000,0.000000,11.863968,0,0,0,0,0,0,0
0,9999,85,0,85,0,1,9999,0.100000,0,0,0.000000,0,8.000000,0.000000,17.354098,0,0,0,0,0,0,0
0,9999,86,0,86,0,1,9999,0.100000,0,0,0.000000,0,5.000000,0.000000,14.811218,0,0,0,0,0,0,0
0,9999,87,0,87,0,1,9999,0.100000,0,0,0.000000,0,5.000000,0.000000,12.803701,0,0,0,0,0,0,0
0,9999,88,0,88,0,1,9999,0.100000,0,0,0.000000,0,8.000000,0.000000,11.044485,0,0,0,0,0,0,0
0,9999,89,0,89,0,1,9999,0.100000,0,0,0.000000,0,9.000000,0.000000,26.610191,0,0,0,0,0,0,0
0,9999,90,0,90,0,1,9999,0.100000,0,0,0.000000,0,6.000000,0.000000,20.720734,0,0,0,0,0,0,0
0,9999,91,0,91,0,1,9999,0.100000,0,0,0.000000,0,9.000000,0.000000,28.439075,0,0,0,0,0,0,0
0,9999,92,0,92,0,1,9999,0.100000,0,0,0.000000,0,8.000000,0.000000,22.926829,0,0,0,0,0,0,0
0,9999,93,0,93,0,1,9999,0.100000,0,0,0.000000,0,11.000000,0.000000,18.247571,0,0,0,0,0,0,0
0,9999,94,0,94,0,1,9999,0.100000,0,0,0.000000,0,13.000000,0.000000,19.838415,0,0,0,0,0,0,0
0,9999,95,0,95,0,1,9999,0.100000,0,0,0.000000,0,5.000000,0.000000,20.515501,0,0,0,0,0,0,0
0,9999,96,0,96,0,1,9999,0.100000,0,0,0.000000,0,3.000000,0.000000,14.908326,0,0,0,0,0,0,0
0,9999,97,0,97,0,1,9999,0.100000,0,0,0.000000,0,9.000000,0.000000,22.417012,0,0,0,0,0,0,0
0,9999,98,0,98,0,1,9999,0.100000,0,0,0.000000,0,8.000000,0.000000,11.099785,0,0,0,0,0,0,0
0,9999,99,0,99,0,1,9999,0.100000,0,0,0.000000,0,6.000000,0.000000,14.933986,0,0,0,0,0,0,0
1,19999,0,10000,0,0,1,9999,0.100000,0,0,0.000000,1,1.000000,0.000000,9.653793,0,0,0,0,0,0,0
1,19999,1,10000,49,0,1,9999,0.100000,0,0,0.000000,2,2.000000,0.000000,15.815857,0,0,0,0,0,0,0
1,19999,2,10000,0,0,0,9999,0.100000,0,0,0.000000,1,0.000000,0.000000,1.468832,0,0,0,0,0,0,0
1,19999,3,10000,8,0,0,9999,0.100000,0,0,0.000000,2,0.000000,0.000000,1.059115,0,0,0,0,0,0,0
1,19999,4,10000,49,0,0,9999,0.100000,0,0,0.000000,2,0.000000,0.000000,0.770022,0,0,0,0,0,0,0
1,19999,5,10000,5,0,0,9999,0.100000,0,0,0.000000,1,0.000000,0.000000,22.518600,0,0,0,0,0,0,0
1,19999,6,10000,49,0,0,9999,0.100000,0,0,0.000000,2,0.000000,0.000000,0.960453,0,0,0,0,0,0,0
1,19999,7,10000,49,0,0,9999,0.100000,0,0,0.000000,2,0.000000,0.000000,17.299253,0,0,0,0,0,0,0
1,19999,8,10000,49,0,0,9999,0.100000,0,0,0.000000,2,0.000000,0.000000,0.978172,0,0,0,0,0,0,0
1,19999,9,10000,79,0,0,9999,0.100000,0,0,0.000000,2,0.000000,0.000000,0.172789,0,0,0,0,0,0,0
1,19999,10,10000,8,0,1,9999,0.100000,0,0,0.000000,2,3.000000,0.000000,11.266881,0,0,0,0,0,0,0
1,19999,11,10000,49,0,1,9999,0.100000,0,0,0.000000,2,1.000000,0.000000,17.983279,0,0,0,0,0,0,0
1,19999,12,10000,8,0,0,9999,0.100000,0,0,0.000000,2,0.000000,0.000000,22.870353,0,0,0,0,0,0,0
1,19999,13,10000,8,0,1,9999,0.100000,0,0,0.000000,2,5.000000,0.000000,14.530563,0,0,0,0,0,0,0
1,19999,14,10000,49,0,1,9999,0.100000,0,0,34.210526,2,5.000000,0.000000,11.949924,0,0,0,0,1,0,0
1,19999,15,10000,36,0,1,9999,0.100000,0,0,0.000000,2,3.000000,0.000000,9.555707,0,0,0,0,0,0,0
1,19999,16,10000,49,0,1,9999,0.100000,0,0,0.000000,2,2.000000,0.000000,4.852335,0,0,0,0,0,0,0
1,19999,17,10000,0,0,1,9999,0.100000,0,0,0.000000,1,2.000000,0.000000,12.508919,0,0,0,0,0,0,0
1,19999,18,10000,79,0,1,9999,0.100000,0,0,34.210526,2,2.000000,0.000000,25.018269,0,0,0,1,0,0,0
1,19999,19,10000,49,0,1,9999,0.100000,0,0,0.000000,2,5.000000,0.000000,10.167295,0,0,0,0,0,0,0
1,19999,20,10000,36,0,0,9999,0.100000,0,0,0.000000,2,0.000000,0.000000,0.892621,0,0,0,0,0,0,0
1,19999,21,10000,49,0,0,9999,0.100000,0,0,0.000000,2,0.000000,0.000000,0.143039,0,0,0,0,0,0,0
1,19999,22,10000,8,0,0,9999,0.100000,0,0,0.000000,2,0.000000,0.000000,0.102919,0,0,0,0,0,0,0
1,19999,23,10000,8,0,1,9999,0.100000,0,0,0.000000,2,4.000000,0.000000,10.043575,0,0,0,0,0,0,0
1,19999,24,10000,49,0,0,9999,0.100000,0,0,0.000000,2,0.000000,0.000000,7.229469,0,0,0,0,0,0,0
1,19999,25,10000,8,0,1,9999,0.100000,0,0,0.000000,2,5.000000,0.000000,11.951092,0,0,0,0,0,0,0
1,19999,26,10000,49,0,1,9999,0.100000,0,0,0.000000,2,3.000000,0.000000,10.700029,0,0,0,0,0,0,0
1,19999,27,10000,49,0,0,9999,0.100000,0,0,0.000000,2,0.000000,0.000000,0.833125,0,0,0,0,0,0,0
1,19999,28,10000,49,0,1,9999,0.100000,0,0,0.000000,2,1.000000,0.000000,10.954533,0,0,0,0,0,0,0
1,19999,29,10000,36,0,1,9999,0.100000,0,0,0.000000,2,2.000000,0.000000,11.363800,0,0,0,0,0,0,0
1,19999,30,10000,8,0,1,9999,0.100000,0,0,34.210526,2,2.000000,0.000000,12.824797,0,0,0,1,0,0,0
1,19999,31,10000,0,0,1,9999,0.100000,0,0,34.210526,2,2.000000,0.000000,11.086397,0,0,0,1,0,0,0
1,19999,32,10000,49,0,1,9999,0.100000,0,0,0.000000,2,8.000000,0.000000,16.529397,0,0,0,0,0,0,0
1,19999,33,10000,49,0,1,9999,0.100000,0,0,0.000000,2,2.000000,0.000000,15.228153,0,0,0,0,0,0,0
1,19999,34,10000,49,0,1,9999,0.100000,0,0,0.000000,2,2.000000,0.000000,21.331814,0,0,0,0,0,0,0
1,19999,35,10000,49,0,0,9999,0.100000,0,0,0.000000,2,0.000000,0.000000,1.074174,0,0,0,0,0,0,0
1,19999,36,10000,49,0,0,9999,0.100000,0,0,0.000000,2,0.000000,0.000000,0.134200,0,0,0,0,0,0,0
1,19999,37,10000,36,0,1,9999,0.100000,0,0,0.000000,2,2.000000,0.000000,18.210718,0,0,0,0,0,0,0
1,19999,38,10000,8,0,1,9999,0.100000,0,0,34.210526,2,9.000000,0.000000,18.332705,0,0,0,1,0,0,0
1,19999,39,10000,8,0,1,9999,0.100000,0,0,0.000000,2,5.000000,0.000000,17.986579,0,0,0,0,0,0,0
1,19999,40,10000,36,0,0,9999,0.100000,0,0,0.000000,2,0.000000,0.000000,0.055302,0,0,0,0,0,0,0
1,19999,41,10000,8,0,1,9999,0.100000,0,0,0.000000,2,3.000000,0.000000,14.492178,0,0,0,0,0,0,0
1,19999,42,10000,8,0,0,9999,0.100000,0,0,0.000000,2,0.000000,0.000000,0.696528,0,0,0,0,0,0,0
1,19999,43,10000,49,0,1,9999,0.100000,0,0,0.000000,2,1.000000,0.000000,3.732965,0,0,0,0,0,0,0
1,19999,44,10000,49,0,1,9999,0.100000,0,0,0.000000,2,3.000000,0.000000,8.700208,0,0,0,0,0,0,0
1,19999,45,10000,49,0,0,9999,0.100000,0,0,0.000000,2,0.000000,0.000000,1.113474,0,0,0,0,0,0,0
1,19999,46,10000,79,0,0,9999,0.100000,0,0,0.000000,2,0.000000,0.000000,3.899562,0,0,0,0,0,0,0
1,19999,47,10000,8,0,1,9999,0.100000,0,0,0.000000,2,1.000000,0.000000,8.324901,0,0,0,0,0,0,0
1,19999,48,10000,79,0,1,9999,0.100000,0,0,0.000000,2,4.000000,0.000000,15.258485,0,0,0,0,0,0,0
1,19999,49,10000,0,0,1,9999,0.100000,0,0,0.000000,2,1.000000,0.000000,5.223392,0,0,0,0,0,0,0
1,19999,50,10000,8,0,1,9999,0.100000,0,0,34.210526,2,9.000000,0.000000,18.200750,0,0,0,1,0,0,0
1,19999,51,10000,8,0,1,9999,0.100000,0,0,0.000000,2,2.000000,0.000000,9.322449,0,0,0,0,0,0,0
1,19999,52,10000,8,0,1,9999,0.100000,0,0,0.000000,2,1.000000,0.000000,9.457869,0,0,0,0,0,0,0
1,19999,53,10000,49,0,1,9999,0.100000,0,0,0.000000,2,1.000000,0.000000,14.933599,0,0,0,0,0,0,0
1,19999,54,10000,79,0,1,9999,0.100000,0,0,0.000000,2,1.000000,0.000000,1.518533,0,0,0,0,0,0,0
1,19999,55,10000,49,0,0,9999,0.100000,0,0,0.000000,2,0.000000,0.000000,0.722224,0,0,0,0,0,0,0
1,19999,56,10000,49,0,0,9999,0.100000,0,0,0.000000,2,0.000000,0.000000,0.065616,0,0,0,0,0,0,0
1,19999,57,10000,79,0,0,9999,0.100000,0,0,0.000000,2,0.000000,0.000000,0.629123,0,0,0,0,0,0,0
1,19999,58,10000,79,0,1,9999,0.100000,0,0,0.000000,2,5.000000,0.000000,23.413224,0,0,0,0,0,0,0
1,19999,59,10000,8,0,1,9999,0.100000,0,0,0.000000,2,1.000000,0.000000,3.362635,0,0,0,0,0,0,0
1,19999,60,10000,79,0,0,9999,0.100000,0,0,0.000000,2,0.000000,0.000000,3.858479,0,0,0,0,0,0,0
1,19999,61,10000,8,0,1,9999,0.100000,0,0,34.210526,2,6.000000,0.000000,11.004340,0,0,0,0,1,0,0
1,19999,62,10000,8,0,0,9999,0.100000,0,0,0.000000,2,0.000000,0.000000,0.081874,0,0,0,0,0,0,0
1,19999,63,10000,79,0,0,9999,0.100000,0,0,0.000000,2,0.000000,0.000000,1.476057,0,0,0,0,0,0,0
1,19999,64,10000,79,0,1,9999,0.100000,0,0,0.000000,2,2.000000,0.000000,14.060327,0,0,0,0,0,0,0
1,19999,65,10000,8,0,1,9999,0.100000,0,0,34.210526,2,2.000000,0.000000,10.371106,0,0,0,1,0,0,0
1,19999,66,10000,8,0,0,9999,0.100000,0,0,0.000000,2,0.000000,0.000000,1.681046,0,0,0,0,0,0,0
1,19999,67,10000,8,0,0,9999,0.100000,0,0,0.000000,2,0.000000,0.000000,0.222457,0,0,0,0,0,0,0
1,19999,68,10000,8,0,0,9999,0.100000,0,0,0.000000,2,0.000000,0.000000,2.704282,0,0,0,0,0,0,0
1,19999,69,10000,79,0,1,9999,0.100000,0,0,0.000000,2,5.000000,0.000000,23.971337,0,0,0,0,0,0,0
1,19999,70,10000,36,0,1,9999,0.100000,0,0,0.000000,2,1.000000,0.000000,17.450180,0,0,0,0,0,0,0
1,19999,71,10000,79,0,1,9999,0.100000,0,0,0.000000,2,6.000000,0.000000,23.553198,0,0,0,0,0,0,0
1,19999,72,10000,79,0,1,9999,0.100000,0,0,0.000000,2,2.000000,0.000000,3.300196,0,0,0,0,0,0,0
1,19999,73,10000,8,0,1,9999,0.100000,0,0,0.000000,2,1.000000,0.000000,17.211558,0,0,0,0,0,0,0
1,19999,74,10000,8,0,0,9999,0.100000,0,0,0.000000,2,0.000000,0.000000,2.215988,0,0,0,0,0,0,0
1,19999,75,10000,8,0,0,9999,0.100000,0,0,0.000000,2,0.000000,0.000000,7.231968,0,0,0,0,0,0,0
1,19999,76,10000,8,0,1,9999,0.100000,0,0,0.000000,2,6.000000,0.000000,6.993070,0,0,0,0,0,0,0
1,19999,77,10000,36,0,1,9999,0.100000,0,0,0.000000,2,2.000000,0.000000,12.581440,0,0,0,0,0,0,0
1,19999,78,10000,49,0,1,9999,0.100000,0,0,0.000000,2,3.000000,0.000000,15.367819,0,0,0,0,0,0,0
1,19999,79,10000,79,0,1,9999,0.100000,0,0,0.000000,2,1.000000,0.000000,4.676345,0,0,0,0,0,0,0
1,19999,80,10000,49,0,0,9999,0.100000,0,0,0.000000,2,0.000000,0.000000,0.362121,0,0,0,0,0,0,0
1,19999,81,10000,49,0,1,9999,0.100000,0,0,0.000000,2,6.000000,0.000000,18.344879,0,0,0,0,0,0,0
1,19999,82,10000,8,0,1,9999,0.100000,0,0,34.210526,2,5.000000,0.000000,10.059956,0,0,0,0,1,0,0
1,19999,83,10000,49,0,0,9999,0.100000,0,0,0.000000,2,0.000000,0.000000,3.764223,0,0,0,0,0,0,0
1,19999,84,10000,79,0,0,9999,0.100000,0,0,0.000000,2,0.000000,0.000000,2.107986,0,0,0,0,0,0,0
1,19999,85,10000,79,0,0,9999,0.100000,0,0,0.000000,2,0.000000,0.000000,0.721685,0,0,0,0,0,0,0
1,19999,86,10000,8,0,1,9999,0.100000,0,0,0.000000,2,2.000000,0.000000,11.030174,0,0,0,0,0,0,0
1,19999,87,10000,8,0,0,9999,0.100000,0,0,0.000000,2,0.000000,0.000000,1.206400,0,0,0,0,0,0,0
1,19999,88,10000,8,0,0,9999,0.100000,0,0,0.000000,2,0.000000,0.000000,0.360236,0,0,0,0,0,0,0
1,19999,89,10000,49,0,1,9999,0.100000,0,0,0.000000,2,4.000000,0.000000,15.439744,0,0,0,0,0,0,0
1,19999,90,10000,49,0,1,9999,0.100000,0,0,0.000000,2,1.000000,0.000000,7.275306,0,0,0,0,0,0,0
1,19999,91,10000,8,0,1,9999,0.100000,0,0,0.000000,2,8.000000,0.000000,18.382900,0,0,0,0,0,0,0
1,19999,92,10000,49,0,1,9999,0.100000,0,0,0.000000,2,1.000000,0.000000,20.635489,0,0,0,0,0,0,0
1,19999,93,10000,8,0,1,9999,0.100000,0,0,0.000000,2,2.000000,0.000000,15.268430,0,0,0,0,0,0,0
1,19999,94,10000,36,0,1,9999,0.100000,0,0,0.000000,2,1.000000,0.000000,15.093818,0,0,0,0,0,0,0
1,19999,95,10000,8,0,0,9999,0.100000,0,0,0.000000,2,0.000000,0.000000,3.095089,0,0,0,0,0,0,0
1,19999,96,10000,49,0,0,9999,0.100000,0,0,0.000000,2,0.000000,0.000000,3.090012,0,0,0,0,0,0,0
1,19999,97,10000,8,0,1,9999,0.100000,0,0,0.000000,2,3.000000,0.000000,13.079920,0,0,0,0,0,0,0
1,19999,98,10000,8,0,0,9999,0.100000,0,0,0.000000,2,0.000000,0.000000,0.576624,0,0,0,0,0,0,0
1,19999,99,10000,8,0,0,9999,0.100000,0,0,0.000000,2,0.000000,0.000000,0.619070,0,0,0,0,0,0,0
2,29999,0,20000,36,10000,1,9999,0.100000,0,0,0.000000,3,6.000000,0.000000,18.813804,0,0,0,0,0,0,0
2,29999,1,20000,8,0,1,9999,0.100000,0,0,0.000000,3,2.000000,0.000000,11.658866,0,0,0,0,0,0,0
2,29999,2,20000,36,10000,0,9999,0.100000,0,0,0.000000,3,0.000000,0.000000,0.461796,0,0,0,0,0,0,0
2,29999,3,20000,32,10000,0,9999,0.100000,0,0,0.000000,3,0.000000,0.000000,0.876139,0,0,0,0,0,0,0
2,29999,4,20000,32,10000,0,9999,0.100000,0,0,0.000000,3,0.000000,0.000000,0.395341,0,0,0,0,0,0,0
2,29999,5,20000,79,0,1,9999,0.100000,0,0,0.000000,3,2.000000,0.000000,22.278823,0,0,0,0,0,0,0
2,29999,6,20000,6,10000,0,9999,0.100000,0,0,0.000000,3,0.000000,0.000000,0.914596,0,0,0,0,0,0,0
2,29999,7,20000,8,0,0,9999,0.100000,0,0,0.000000,3,0.000000,0.000000,2.780066,0,0,0,0,0,0,0
2,29999,8,20000,8,0,0,9999,0.100000,0,0,0.000000,3,0.000000,0.000000,0.472668,0,0,0,0,0,0,0
2,29999,9,20000,8,0,0,9999,0.100000,0,0,0.000000,3,0.000000,0.000000,0.128337,0,0,0,0,0,0,0
2,29999,10,20000,32,10000,1,9999,0.100000,0,0,0.000000,3,2.000000,0.000000,13.255839,0,0,0,0,0,0,0
2,29999,11,20000,32,10000,0,9999,0.100000,0,0,0.000000,3,0.000000,0.000000,16.069232,0,0,0,0,0,0,0
2,29999,12,20000,36,10000,1,9999,0.100000,0,0,0.000000,3,1.000000,0.000000,5.095680,0,0,0,0,0,0,0
2,29999,13,20000,32,10000,1,9999,0.100000,0,0,34.210526,3,6.000000,0.000000,14.279765,0,0,0,0,1,0,0
2,29999,14,20000,8,0,1,9999,0.100000,0,0,0.000000,3,14.000000,0.000000,17.576543,0,0,0,0,0,0,0
2,29999,15,20000,9,10000,0,9999,0.100000,0,0,0.000000,3,0.000000,0.000000,1.015953,0,0,0,0,0,0,0
2,29999,16,20000,8,0,1,9999,0.100000,0,0,0.000000,3,1.000000,0.000000,3.149736,0,0,0,0,0,0,0
2,29999,17,20000,8,0,1,9999,0.100000,0,0,34.210526,3,6.000000,0.000000,13.680409,0,0,0,0,1,0,0
2,29999,18,20000,8,0,0,9999,0.100000,0,0,0.000000,3,0.000000,0.000000,7.212658,0,0,0,0,0,0,0
2,29999,19,20000,8,0,0,9999,0.100000,0,0,0.000000,3,0.000000,0.000000,4.204180,0,0,0,0,0,0,0
2,29999,20,20000,6,10000,0,9999,0.100000,0,0,0.000000,3,0.000000,0.000000,4.950332,0,0,0,0,0,0,0
2,29999,21,20000,8,0,0,9999,0.100000,0,0,0.000000,3,0.000000,0.000000,0.206018,0,0,0,0,0,0,0
2,29999,22,20000,36,10000,0,9999,0.100000,0,0,0.000000,3,0.000000,0.000000,0.148036,0,0,0,0,0,0,0
2,29999,23,20000,8,0,0,9999,0.100000,0,0,0.000000,3,0.000000,0.000000,1.403956,0,0,0,0,0,0,0
2,29999,24,20000,8,0,1,9999,0.100000,0,0,0.000000,3,2.000000,0.000000,23.632560,0,0,0,0,0,0,0
2,29999,25,20000,36,10000,1,9999,0.100000,0,0,0.000000,3,3.000000,0.000000,11.286260,0,0,0,0,0,0,0
2,29999,26,20000,36,10000,0,9999,0.100000,0,0,0.000000,3,0.000000,0.000000,2.416676,0,0,0,0,0,0,0
2,29999,27,20000,32,10000,0,9999,0.100000,0,0,0.000000,3,0.000000,0.000000,0.247577,0,0,0,0,0,0,0
2,29999,28,20000,32,10000,0,9999,0.100000,0,0,0.000000,3,0.000000,0.000000,1.807804,0,0,0,0,0,0,0
2,29999,29,20000,32,10000,1,9999,0.100000,0,0,0.000000,3,3.000000,0.000000,10.615133,0,0,0,0,0,0,0
2,29999,30,20000,36,10000,1,9999,0.100000,0,0,0.000000,3,1.000000,0.000000,10.706442,0,0,0,0,0,0,0
2,29999,31,20000,8,0,0,9999,0.100000,0,0,0.000000,3,0.000000,0.000000,6.819770,0,0,0,0,0,0,0
2,29999,32,20000,32,10000,0,9999,0.100000,0,0,0.000000,3,0.000000,0.000000,0.325556,0,0,0,0,0,0,0
2,29999,33,20000,32,10000,1,9999,0.100000,0,0,0.000000,3,3.000000,0.000000,8.739188,0,0,0,0,0,0,0
2,29999,34,20000,32,10000,0,9999,0.100000,0,0,0.000000,3,0.000000,0.000000,0.759714,0,0,0,0,0,0,0
2,29999,35,20000,36,10000,1,9999,0.100000,0,0,0.000000,3,8.000000,0.000000,9.322230,0,0,0,0,0,0,0
2,29999,36,20000,8,0,1,9999,0.100000,0,0,34.210526,3,6.000000,0.000000,10.767859,0,0,0,0,1,0,0
2,29999,37,20000,9,10000,1,9999,0.100000,0,0,0.000000,3,2.000000,0.000000,27.163955,0,0,0,0,0,0,0
2,29999,38,20000,32,10000,1,9999,0.100000,0,0,0.000000,3,3.000000,0.000000,8.533346,0,0,0,0,0,0,0
2,29999,39,20000,36,10000,1,9999,0.100000,0,0,0.000000,3,1.000000,0.000000,16.494734,0,0,0,0,0,0,0
2,29999,40,20000,36,10000,0,9999,0.100000,0,0,0.000000,3,0.000000,0.000000,0.064530,0,0,0,0,0,0,0
2,29999,41,20000,36,10000,1,9999,0.100000,0,0,0.000000,3,1.000000,0.000000,14.019423,0,0,0,0,0,0,0
2,29999,42,20000,32,10000,1,9999,0.100000,0,0,0.000000,3,1.000000,0.000000,1.606413,0,0,0,0,0,0,0
2,29999,43,20000,36,10000,0,9999,0.100000,0,0,0.000000,3,0.000000,0.000000,0.989048,0,0,0,0,0,0,0
2,29999,44,20000,32,10000,0,9999,0.100000,0,0,0.000000,3,0.000000,0.000000,12.697201,0,0,0,0,0,0,0
2,29999,45,20000,36,10000,0,9999,0.100000,0,0,0.000000,3,0.000000,0.000000,1.626769,0,0,0,0,0,0,0
2,29999,46,20000,36,10000,1,9999,0.100000,0,0,0.000000,3,3.000000,0.000000,12.188904,0,0,0,0,0,0,0
2,29999,47,20000,36,10000,1,9999,0.100000,0,0,0.000000,3,2.000000,0.000000,13.397587,0,0,0,0,0,0,0
2,29999,48,20000,8,0,1,9999,0.100000,0,0,0.000000,3,4.000000,0.000000,11.935549,0,0,0,0,0,0,0
2,29999,49,20000,8,0,0,9999,0.100000,0,0,0.000000,3,0.000000,0.000000,0.360606,0,0,0,0,0,0,0
2,29999,50,20000,32,10000,1,9999,0.100000,0,0,0.000000,3,3.000000,0.000000,7.048012,0,0,0,0,0,0,0
2,29999,51,20000,32,10000,1,9999,0.100000,0,0,0.000000,3,2.000000,0.000000,14.005709,0,0,0,0,0,0,0
2,29999,52,20000,8,0,1,9999,0.100000,0,0,0.000000,3,1.000000,0.000000,9.597071,0,0,0,0,0,0,0
2,29999,53,20000,36,10000,0,9999,0.100000,0,0,0.000000,3,0.000000,0.000000,0.074584,0,0,0,0,0,0,0
2,29999,54,20000,32,10000,1,9999,0.100000,0,0,0.000000,3,1.000000,0.000000,2.969484,0,0,0,0,0,0,0
2,29999,55,20000,36,10000,1,9999,0.100000,0,0,0.000000,3,1.000000,0.000000,1.639335,0,0,0,0,0,0,0
2,29999,56,20000,8,0,0,9999,0.100000,0,0,0.000000,3,0.000000,0.000000,0.083445,0,0,0,0,0,0,0
2,29999,57,20000,8,0,0,9999,0.100000,0,0,0.000000,3,0.000000,0.000000,0.983812,0,0,0,0,0,0,0
2,29999,58,20000,36,10000,1,9999,0.100000,0,0,0.000000,3,3.000000,0.000000,13.627257,0,0,0,0,0,0,0
2,29999,59,20000,32,10000,0,9999,0.100000,0,0,0.000000,3,0.000000,0.000000,0.223441,0,0,0,0,0,0,0
2,29999,60,20000,36,10000,0,9999,0.100000,0,0,0.000000,3,0.000000,0.000000,11.547917,0,0,0,0,0,0,0
2,29999,61,20000,8,0,1,9999,0.100000,0,0,0.000000,3,12.000000,0.000000,12.762548,0,0,0,0,0,0,0
2,29999,62,20000,8,0,0,9999,0.100000,0,0,0.000000,3,0.000000,0.000000,0.371328,0,0,0,0,0,0,0
2,29999,63,20000,32,10000,1,9999,0.100000,0,0,0.000000,3,1.000000,0.000000,14.230521,0,0,0,0,0,0,0
2,29999,64,20000,32,10000,1,9999,0.100000,0,0,0.000000,3,5.000000,0.000000,17.025124,0,0,0,0,0,0,0
2,29999,65,20000,8,0,1,9999,0.100000,0,0,0.000000,3,2.000000,0.000000,14.580143,0,0,0,0,1,0,0
2,29999,66,20000,36,10000,1,9999,0.100000,0,0,0.000000,3,5.000000,0.000000,9.006295,0,0,0,0,0,0,0
2,29999,67,20000,8,0,0,9999,0.100000,0,0,0.000000,3,0.000000,0.000000,0.079959,0,0,0,0,0,0,0
2,29999,68,20000,32,10000,0,9999,0.100000,0,0,0.000000,3,0.000000,0.000000,1.629898,0,0,0,0,0,0,0
2,29999,69,20000,32,10000,1,9999,0.100000,0,0,0.000000,3,1.000000,0.000000,19.188169,0,0,0,0,0,0,0
2,29999,70,20000,32,10000,1,9999,0.100000,0,0,0.000000,3,4.000000,0.000000,18.905125,0,0,0,0,0,0,0
2,29999,71,20000,8,0,1,9999,0.100000,0,0,0.000000,3,1.000000,0.000000,13.356901,0,0,0,0,0,0,0
2,29999,72,20000,36,10000,0,9999,0.100000,0,0,0.000000,3,0.000000,0.000000,1.500521,0,0,0,0,0,0,0
2,29999,73,20000,32,10000,1,9999,0.100000,0,0,0.000000,3,15.000000,0.000000,24.347733,0,0,0,0,0,0,0
2,29999,74,20000,32,10000,1,9999,0.100000,0,0,0.000000,3,3.000000,0.000000,7.196086,0,0,0,0,0,0,0
2,29999,75,20000,36,10000,1,9999,0.100000,0,0,0.000000,3,1.000000,0.000000,24.161978,0,0,0,0,0,0,0
2,29999,76,20000,36,10000,0,9999,0.100000,0,0,0.000000,3,0.000000,0.000000,0.182738,0,0,0,0,0,0,0
2,29999,77,20000,36,10000,1,9999,0.100000,0,0,0.000000,3,1.000000,0.000000,13.638772,0,0,0,0,0,0,0
2,29999,78,20000,8,0,1,9999,0.100000,0,0,0.000000,3,1.000000,0.000000,6.133566,0,0,0,0,0,0,0
2,29999,79,20000,36,10000,0,9999,0.100000,0,0,0.000000,3,0.000000,0.000000,0.150801,0,0,0,0,0,0,0
2,29999,80,20000,8,0,0,9999,0.100000,0,0,0.000000,3,0.000000,0.000000,0.520459,0,0,0,0,0,0,0
2,29999,81,20000,32,10000,1,9999,0.100000,0,0,0.000000,3,1.000000,0.000000,14.337148,0,0,0,0,0,0,0
2,29999,82,20000,32,10000,1,9999,0.100000,0,0,0.000000,3,2.000000,0.000000,6.033926,0,0,0,0,0,0,0
2,29999,83,20000,32,10000,1,9999,0.100000,0,0,0.000000,3,8.000000,0.000000,9.299512,0,0,0,0,0,0,0
2,29999,84,20000,36,10000,1,9999,0.100000,0,0,0.000000,3,4.000000,0.000000,15.812834,0,0,0,0,0,0,0
2,29999,85,20000,36,10000,0,9999,0.100000,0,0,0.000000,3,0.000000,0.000000,0.310243,0,0,0,0,0,0,0
2,29999,86,20000,32,10000,1,9999,0.100000,0,0,0.000000,3,2.000000,0.000000,16.510800,0,0,0,0,0,0,0
2,29999,87,20000,8,0,0,9999,0.100000,0,0,0.000000,3,0.000000,0.000000,0.476487,0,0,0,0,0,0,0
2,29999,88,20000,36,10000,0,9999,0.100000,0,0,0.000000,3,0.000000,0.000000,0.323058,0,0,0,0,0,0,0
2,29999,89,20000,32,10000,1,9999,0.100000,0,0,0.000000,3,1.000000,0.000000,16.174832,0,0,0,0,0,0,0
2,29999,90,20000,8,0,1,9999,0.100000,0,0,0.000000,3,1.000000,0.000000,9.820817,0,0,0,0,0,0,0
2,29999,91,20000,8,0,0,9999,0.100000,0,0,0.000000,3,0.000000,0.000000,6.339152,0,0,0,0,0,0,0
2,29999,92,20000,32,10000,1,9999,0.100000,0,0,0.000000,3,1.000000,0.000000,21.848153,0,0,0,0,0,0,0
2,29999,93,20000,36,10000,1,9999,0.100000,0,0,0.000000,3,5.000000,0.000000,14.543478,0,0,0,0,0,0,0
2,29999,94,20000,36,10000,1,9999,0.100000,0,0,0.000000,3,2.000000,0.000000,5.812881,0,0,0,0,0,0,0
2,29999,95,20000,36,10000,0,9999,0.100000,0,0,0.000000,3,0.000000,0.000000,1.227736,0,0,0,0,0,0,0
2,29999,96,20000,32,10000,0,9999,0.100000,0,0,0.000000,3,0.000000,0.000000,0.098908,0,0,0,0,0,0,0
2,29999,97,20000,32,10000,1,9999,0.100000,0,0,0.000000,3,3.000000,0.000000,10.410413,0,0,0,0,0,0,0
2,29999,98,20000,36,10000,0,9999,0.100000,0,0,0.000000,3,0.000000,0.000000,3.412457,0,0,0,0,0,0,0
2,29999,99,20000,36,10000,1,9999,0.100000,0,0,0.000000,3,8.000000,0.000000,9.393747,0,0,0,0,0,0,0
3,39999,0,30000,36,10000,3,9999,0.100000,0,0,34.210526,3,4.000000,0.000000,13.392852,0,0,1,0,0,0,0
3,39999,1,30000,8,20000,1,9999,0.100000,0,0,0.000000,3,1.000000,0.000000,8.448082,0,0,0,0,0,0,0
3,39999,2,30000,32,10000,1,9999,0.100000,0,0,0.000000,3,3.000000,0.000000,4.440638,0,0,0,0,0,0,0
3,39999,3,30000,8,20000,0,9999,0.100000,0,0,0.000000,3,0.000000,0.000000,0.969038,0,0,0,0,0,0,0
3,39999,4,30000,8,20000,0,9999,0.100000,0,0,0.000000,4,0.000000,0.000000,0.378800,0,0,0,0,0,0,0
3,39999,5,30000,8,0,0,9999,0.100000,0,0,0.000000,3,0.000000,0.000000,4.899821,0,0,0,0,0,0,0
3,39999,6,30000,32,10000,0,9999,0.100000,0,0,0.000000,3,0.000000,0.000000,0.925678,0,0,0,0,0,0,0
3,39999,7,30000,8,20000,1,9999,0.100000,0,0,0.000000,3,3.000000,0.000000,3.842097,0,0,0,0,0,0,0
3,39999,8,30000,8,20000,0,9999,0.100000,0,0,0.000000,3,0.000000,0.000000,0.476663,0,0,0,0,0,0,0
3,39999,9,30000,8,20000,1,9999,0.100000,0,0,0.000000,3,5.000000,0.000000,5.436554,0,0,0,0,0,0,0
3,39999,10,30000,73,20000,1,9999,0.100000,0,0,0.000000,4,1.000000,0.000000,13.874778,0,0,0,0,0,0,0
3,39999,11,30000,8,20000,1,9999,0.100000,0,0,0.000000,3,8.000000,0.000000,17.172817,0,0,0,0,0,0,0
3,39999,12,30000,32,10000,0,9999,0.100000,0,0,0.000000,3,0.000000,0.000000,0.799413,0,0,0,0,0,0,0
3,39999,13,30000,14,20000,0,9999,0.100000,0,0,0.000000,3,0.000000,0.000000,1.008011,0,0,0,0,0,0,0
3,39999,14,30000,8,20000,0,9999,0.100000,0,0,0.000000,3,0.000000,0.000000,1.201417,0,0,0,0,0,0,0
3,39999,15,30000,8,20000,0,9999,0.135000,0,0,0.000000,3,0.000000,0.000000,1.008862,0,0,0,0,0,0,0
3,39999,16,30000,14,20000,0,9999,0.100000,0,0,0.000000,3,0.000000,0.000000,0.854346,0,0,0,0,0,0,0
3,39999,17,30000,8,0,1,9999,0.100000,0,0,0.000000,3,1.000000,0.000000,17.512618,0,0,0,0,0,0,0
3,39999,18,30000,14,20000,1,9999,0.100000,0,0,0.000000,3,3.000000,0.000000,14.329011,0,0,0,0,0,0,0
3,39999,19,30000,14,20000,0,9999,0.100000,0,0,0.000000,3,0.000000,0.000000,1.002471,0,0,0,0,0,0,0
3,39999,20,30000,14,20000,1,9999,0.100000,0,0,0.000000,3,4.000000,0.000000,11.386000,0,0,0,0,0,0,0
3,39999,21,30000,72,20000,0,9999,0.100000,0,0,0.000000,4,0.000000,0.000000,0.298310,0,0,0,0,0,0,0
3,39999,22,30000,14,20000,0,9999,0.100000,0,0,0.000000,3,0.000000,0.000000,0.400006,0,0,0,0,0,0,0
3,39999,23,30000,8,0,0,9999,0.100000,0,0,0.000000,3,0.000000,0.000000,1.748978,0,0,0,0,0,0,0
3,39999,24,30000,8,20000,0,9999,0.100000,0,0,0.000000,4,0.000000,0.000000,21.889472,0,0,0,0,0,0,0
3,39999,25,30000,8,20000,1,9999,0.100000,0,0,0.000000,4,1.000000,0.000000,14.464196,0,0,0,0,0,0,0
3,39999,26,30000,32,10000,0,9999,0.100000,0,0,0.000000,3,0.000000,0.000000,1.129213,0,0,0,0,0,0,0
3,39999,27,30000,8,20000,0,9999,0.100000,0,0,0.000000,3,0.000000,0.000000,0.245845,0,0,0,0,0,0,0
3,39999,28,30000,97,20000,0,9999,0.100000,0,0,0.000000,4,0.000000,0.000000,0.717443,0,0,0,0,0,0,0
3,39999,29,30000,73,20000,0,9999,0.100000,0,0,0.000000,4,0.000000,0.000000,7.068382,0,0,0,0,0,0,0
3,39999,30,30000,8,20000,1,9999,0.100000,0,0,0.000000,3,2.000000,0.000000,13.093712,0,0,0,0,0,0,0
3,39999,31,30000,8,20000,0,9999,0.100000,0,0,0.000000,3,0.000000,0.000000,7.297653,0,0,0,0,0,0,0
3,39999,32,30000,8,0,0,9999,0.100000,0,0,0.000000,3,0.000000,0.000000,0.248424,0,0,0,0,0,0,0
3,39999,33,30000,8,0,0,9999,0.100000,0,0,0.000000,3,0.000000,0.000000,0.902289,0,0,0,0,0,0,0
3,39999,34,30000,8,20000,0,9999,0.100000,0,0,0.000000,3,0.000000,0.000000,0.566858,0,0,0,0,0,0,0
3,39999,35,30000,8,0,0,9999,0.100000,0,0,0.000000,3,0.000000,0.000000,9.224097,0,0,0,0,1,0,0
3,39999,36,30000,8,0,0,9999,0.100000,0,0,0.000000,3,0.000000,0.000000,10.730598,0,0,0,0,0,0,0
3,39999,37,30000,73,20000,0,9999,0.100000,0,0,0.000000,4,0.000000,0.000000,12.026065,0,0,0,0,0,0,0
3,39999,38,30000,14,20000,1,9999,0.100000,0,0,0.000000,3,5.000000,0.000000,11.034784,0,0,0,0,0,0,0
3,39999,39,30000,14,20000,1,9999,0.100000,0,0,0.000000,3,3.000000,0.000000,12.908253,0,0,0,0,0,0,0
3,39999,40,30000,14,20000,0,9999,0.100000,0,0,0.000000,3,0.000000,0.000000,0.114890,0,0,0,0,0,0,0
3,39999,41,30000,8,0,1,9999,0.100000,0,0,0.000000,3,1.000000,0.000000,16.495648,0,0,0,0,0,0,0
3,39999,42,30000,14,20000,0,9999,0.100000,0,0,0.000000,3,0.000000,0.000000,0.541809,0,0,0,0,0,0,0
3,39999,43,30000,8,0,0,9999,0.100000,0,0,0.000000,3,0.000000,0.000000,1.190681,0,0,0,0,0,0,0
3,39999,44,30000,72,20000,1,9999,0.100000,0,0,0.000000,4,3.000000,0.000000,13.545746,0,0,0,0,0,0,0
3,39999,45,30000,14,20000,1,9999,0.100000,0,0,0.000000,3,1.000000,0.000000,6.725251,0,0,0,0,0,0,0
3,39999,46,30000,72,20000,1,9999,0.100000,0,0,34.210526,4,4.000000,0.000000,17.104796,0,0,0,1,0,0,0
3,39999,47,30000,14,20000,1,9999,0.100000,0,0,0.000000,3,5.000000,0.000000,14.628668,0,0,0,0,0,0,0
3,39999,48,30000,8,20000,0,9999,0.100000,0,0,0.000000,3,0.000000,0.000000,0.987990,0,0,0,0,0,0,0
3,39999,49,30000,8,0,1,9999,0.100000,0,0,0.000000,3,3.000000,0.000000,3.937769,0,0,0,0,0,0,0
3,39999,50,30000,8,20000,1,9999,0.100000,0,0,0.000000,3,3.000000,0.000000,8.881302,0,0,0,0,0,0,0
3,39999,51,30000,8,0,1,9999,0.100000,0,0,0.000000,3,2.000000,0.000000,9.649462,0,0,0,0,0,0,0
3,39999,52,30000,8,20000,1,9999,0.100000,0,0,0.000000,3,2.000000,0.000000,8.168142,0,0,0,0,0,0,0
3,39999,53,30000,8,0,1,9999,0.100000,0,0,0.000000,3,5.000000,0.000000,5.584638,0,0,0,0,0,0,0
3,39999,54,30000,8,0,0,9999,0.100000,0,0,0.000000,3,0.000000,0.000000,3.377676,0,0,0,0,0,0,0
3,39999,55,30000,72,20000,0,9999,0.100000,0,0,0.000000,4,0.000000,0.000000,0.460773,0,0,0,0,0,0,0
3,39999,56,30000,14,20000,0,9999,0.100000,0,0,0.000000,3,0.000000,0.000000,0.146045,0,0,0,0,0,0,0
3,39999,57,30000,72,20000,0,9999,0.100000,0,0,0.000000,4,0.000000,0.000000,2.242466,0,0,0,0,0,0,0
3,39999,58,30000,32,10000,1,9999,0.100000,0,0,0.000000,3,10.000000,0.000000,10.629072,0,0,0,0,0,0,0
3,39999,59,30000,8,20000,1,9999,0.100000,0,0,0.000000,4,4.000000,0.000000,4.842539,0,0,0,0,0,0,0
3,39999,60,30000,8,20000,1,9999,0.100000,0,0,0.000000,4,4.000000,0.000000,8.527167,0,0,0,0,0,0,0
3,39999,61,30000,8,0,1,9999,0.100000,0,0,0.000000,3,8.000000,0.000000,8.885345,0,0,0,0,0,0,0
3,39999,62,30000,8,0,0,9999,0.100000,0,0,0.000000,3,0.000000,0.000000,0.818544,0,0,0,0,0,0,0
3,39999,63,30000,8,20000,0,9999,0.100000,0,0,0.000000,3,0.000000,0.000000,5.722271,0,0,0,0,0,0,0
3,39999,64,30000,8,20000,1,9999,0.100000,0,0,0.000000,3,5.000000,0.000000,10.814837,0,0,0,0,0,0,0
3,39999,65,30000,73,20000,1,9999,0.100000,0,0,0.000000,4,1.000000,0.000000,8.987614,0,0,0,0,0,0,0
3,39999,66,30000,8,20000,1,9999,0.100000,0,0,0.000000,3,6.000000,0.000000,7.171318,0,0,0,0,0,0,0
3,39999,67,30000,8,0,0,9999,0.100000,0,0,0.000000,3,0.000000,0.000000,0.079320,0,0,0,0,0,0,0
3,39999,68,30000,8,20000,0,9999,0.100000,0,0,0.000000,4,0.000000,0.000000,1.622047,0,0,0,0,0,0,0
3,39999,69,30000,97,20000,1,9999,0.100000,0,0,0.000000,4,1.000000,0.000000,15.244164,0,0,0,0,0,0,0
3,39999,70,30000,8,20000,1,9999,0.100000,0,0,0.000000,3,5.000000,0.000000,12.721839,0,0,0,0,0,0,0
3,39999,71,30000,72,20000,1,9999,0.100000,0,0,0.000000,4,2.000000,0.000000,10.277447,0,0,0,0,0,0,0
3,39999,72,30000,8,0,3,9999,0.100000,0,0,34.210526,4,8.000000,0.000000,9.999616,0,0,1,0,0,0,0
3,39999,73,30000,73,20000,1,9999,0.100000,0,0,0.000000,3,2.000000,0.000000,9.034505,0,0,0,0,0,0,0
3,39999,74,30000,97,20000,1,9999,0.100000,0,0,34.210526,4,4.000000,0.000000,16.932936,0,0,0,1,0,0,0
3,39999,75,30000,14,20000,1,9999,0.100000,0,0,0.000000,3,1.000000,0.000000,24.217970,0,0,0,0,0,0,0
3,39999,76,30000,8,0,0,9999,0.100000,0,0,0.000000,3,0.000000,0.000000,0.181289,0,0,0,0,0,0,0
3,39999,77,30000,8,20000,1,9999,0.100000,0,0,0.000000,3,1.000000,0.000000,11.221518,0,0,0,0,0,0,0
3,39999,78,30000,14,20000,0,9999,0.100000,0,0,0.000000,3,0.000000,0.000000,0.008994,0,0,0,0,0,0,0
3,39999,79,30000,8,20000,0,9999,0.100000,0,0,0.000000,4,0.000000,0.000000,0.422735,0,0,0,0,0,0,0
3,39999,80,30000,97,20000,0,9999,0.100000,0,0,0.000000,4,0.000000,0.000000,0.612020,0,0,0,0,0,0,0
3,39999,81,30000,8,0,1,9999,0.100000,0,0,0.000000,3,5.000000,0.000000,14.679271,0,0,0,0,0,0,0
3,39999,82,30000,14,20000,1,9999,0.100000,0,0,0.000000,3,1.000000,0.000000,6.981850,0,0,0,0,0,0,0
3,39999,83,30000,8,20000,0,9999,0.100000,0,0,0.000000,4,0.000000,0.000000,8.525773,0,0,0,0,0,0,0
3,39999,84,30000,8,0,1,9999,0.100000,0,0,0.000000,3,3.000000,0.000000,10.645363,0,0,0,0,0,0,0
3,39999,85,30000,73,20000,0,9999,0.100000,0,0,0.000000,4,0.000000,0.000000,0.244775,0,0,0,0,0,0,0
3,39999,86,30000,72,20000,1,9999,0.100000,0,0,0.000000,4,1.000000,0.000000,10.689807,0,0,0,0,0,0,0
3,39999,87,30000,97,20000,0,9999,0.100000,0,0,0.000000,4,0.000000,0.000000,0.358100,0,0,0,0,0,0,0
3,39999,88,30000,8,20000,1,9999,0.100000,0,0,0.000000,3,3.000000,0.000000,3.839158,0,0,0,0,0,0,0
3,39999,89,30000,8,0,0,9999,0.100000,0,0,0.000000,3,0.000000,0.000000,7.802550,0,0,0,0,0,0,0
3,39999,90,30000,8,20000,1,9999,0.100000,0,0,0.000000,3,1.000000,0.000000,4.546256,0,0,0,0,0,0,0
3,39999,91,30000,14,20000,1,9999,0.100000,0,0,0.000000,3,6.000000,0.000000,11.390116,0,0,0,0,0,0,0
3,39999,92,30000,72,20000,0,9999,0.100000,0,0,0.000000,4,0.000000,0.000000,6.232019,0,0,0,0,0,0,0
3,39999,93,30000,97,20000,0,9999,0.100000,0,0,0.000000,4,0.000000,0.000000,6.813547,0,0,0,0,0,0,0
3,39999,94,30000,8,20000,0,9999,0.100000,0,0,0.000000,3,0.000000,0.000000,1.226293,0,0,0,0,0,0,0
3,39999,95,30000,97,20000,0,9999,0.100000,0,0,0.000000,4,0.000000,0.000000,3.048405,0,0,0,0,0,0,0
3,39999,96,30000,97,20000,1,9999,0.100000,0,0,0.000000,4,4.000000,0.000000,5.475205,0,0,0,0,0,0,0
3,39999,97,30000,73,20000,0,9999,0.100000,0,0,0.000000,4,0.000000,0.000000,0.156678,0,0,0,0,0,0,0
3,39999,98,30000,8,0,1,9999,0.100000,0,0,0.000000,3,5.000000,0.000000,12.428788,0,0,0,0,0,0,0
3,39999,99,30000,97,20000,1,9999,0.100000,0,0,0.000000,4,1.000000,0.000000,6.232517,0,0,0,0,0,0,0
4,49999,0,40000,72,20000,1,9999,0.100000,0,0,0.000000,4,2.000000,0.000000,8.371513,0,0,0,0,0,0,0
4,49999,1,40000,73,20000,1,9999,0.100000,0,0,0.000000,4,3.000000,0.000000,15.676188,0,0,0,0,0,0,0
4,49999,2,40000,97,20000,0,9999,0.100000,0,0,0.000000,4,0.000000,0.000000,1.094935,0,0,0,0,0,0,0
4,49999,3,40000,8,20000,1,9999,0.100000,0,0,0.000000,4,1.000000,0.000000,8.310879,0,0,0,0,0,0,0
4,49999,4,40000,8,20000,0,9999,0.100000,0,0,0.000000,4,0.000000,0.000000,0.247313,0,0,0,0,0,0,0
4,49999,5,40000,72,20000,1,9999,0.100000,0,0,0.000000,4,1.000000,0.000000,20.737756,0,0,0,0,0,0,0
4,49999,6,40000,97,20000,0,9999,0.100000,0,0,0.000000,4,0.000000,0.000000,1.041430,0,0,0,0,0,0,0
4,49999,7,40000,8,20000,0,9999,0.100000,0,0,0.000000,4,0.000000,0.000000,0.933082,0,0,0,0,0,0,0
4,49999,8,40000,73,20000,0,9999,0.100000,0,0,0.000000,4,0.000000,0.000000,0.656627,0,0,0,0,0,0,0
4,49999,9,40000,72,20000,0,9999,0.100000,0,0,0.000000,4,0.000000,0.000000,0.786238,0,0,0,0,0,0,0
4,49999,10,40000,73,20000,1,9999,0.100000,0,0,0.000000,4,1.000000,0.000000,14.460950,0,0,0,0,0,0,0
4,49999,11,40000,8,20000,0,9999,0.100000,0,0,0.000000,4,0.000000,0.000000,1.128651,0,0,0,0,0,0,0
4,49999,12,40000,8,20000,0,9999,0.100000,0,0,0.000000,4,0.000000,0.000000,0.874447,0,0,0,0,0,0,0
4,49999,13,40000,97,20000,0,9999,0.100000,0,0,0.000000,4,0.000000,0.000000,0.998844,0,0,0,0,0,0,0
4,49999,14,40000,73,20000,0,9999,0.100000,0,0,0.000000,4,0.000000,0.000000,1.146530,0,0,0,0,0,0,0
4,49999,15,40000,73,20000,0,9999,0.100000,0,0,0.000000,4,0.000000,0.000000,1.001288,0,0,0,0,0,0,0
4,49999,16,40000,97,20000,1,9999,0.100000,0,0,0.000000,4,2.000000,0.000000,3.915049,0,0,0,0,0,0,0
4,49999,17,40000,72,20000,1,9999,0.100000,0,0,0.000000,4,3.000000,0.000000,12.676849,0,0,0,0,0,0,0
4,49999,18,40000,72,20000,1,9999,0.100000,0,0,0.000000,4,2.000000,0.000000,7.688413,0,0,0,0,0,0,0
4,49999,19,40000,72,20000,1,9999,0.100000,0,0,0.000000,4,1.000000,0.000000,5.436989,0,0,0,0,0,0,0
4,49999,20,40000,97,20000,1,9999,0.100000,0,0,0.000000,4,3.000000,0.000000,10.509352,0,0,0,0,0,0,0
4,49999,21,40000,97,20000,0,9999,0.100000,0,0,0.000000,4,0.000000,0.000000,0.137801,0,0,0,0,0,0,0
4,49999,22,40000,72,20000,0,9999,0.100000,0,0,0.000000,4,0.000000,0.000000,6.789050,0,0,0,0,0,1,0
4,49999,23,40000,73,20000,1,9999,0.100000,0,0,0.000000,4,5.000000,0.000000,10.395086,0,0,0,0,0,0,0
4,49999,24,40000,72,20000,0,9999,0.100000,0,0,0.000000,4,0.000000,0.000000,21.857932,0,0,0,0,0,0,0
4,49999,25,40000,8,20000,1,9999,0.100000,0,0,0.000000,4,1.000000,0.000000,16.673435,0,0,0,0,0,0,0
4,49999,26,40000,73,20000,0,9999,0.100000,0,0,0.000000,4,0.000000,0.000000,1.057648,0,0,0,0,0,0,0
4,49999,27,40000,73,20000,0,9999,0.100000,0,0,0.000000,4,0.000000,0.000000,0.140837,0,0,0,0,0,0,0
4,49999,28,40000,8,20000,0,9999,0.100000,0,0,0.000000,4,0.000000,0.000000,0.880096,0,0,0,0,0,0,0
4,49999,29,40000,73,20000,1,9999,0.100000,0,0,0.000000,4,2.000000,0.000000,13.725006,0,0,0,0,0,0,0
4,49999,30,40000,8,20000,1,9999,0.100000,0,0,0.000000,4,1.000000,0.000000,4.572224,0,0,0,0,0,0,0
4,49999,31,40000,72,20000,1,9999,0.100000,0,0,0.000000,4,2.000000,0.000000,10.755036,0,0,0,0,0,0,0
4,49999,32,40000,97,20000,0,9999,0.100000,0,0,0.000000,4,0.000000,0.000000,0.236752,0,0,0,0,0,0,0
4,49999,33,40000,97,20000,1,9999,0.100000,0,0,0.000000,4,1.000000,0.000000,3.167347,0,0,0,0,0,0,0
4,49999,34,40000,73,20000,0,9999,0.100000,0,0,0.000000,4,0.000000,0.000000,0.628353,0,0,0,0,0,0,0
4,49999,35,40000,73,20000,1,9999,0.100000,0,0,0.000000,4,1.000000,0.000000,9.716512,0,0,0,0,0,0,0
4,49999,36,40000,8,20000,0,9999,0.100000,0,0,0.000000,4,0.000000,0.000000,8.619940,0,0,0,0,0,0,0
4,49999,37,40000,97,20000,1,9999,0.100000,0,0,0.000000,4,2.000000,0.000000,14.865309,0,0,0,0,0,0,0
4,49999,38,40000,73,20000,0,9999,0.100000,0,0,0.000000,4,0.000000,0.000000,1.230472,0,0,0,0,0,0,0
4,49999,39,40000,97,20000,1,9999,0.100000,0,0,0.000000,4,2.000000,0.000000,18.354712,0,0,0,0,0,0,0
4,49999,40,40000,72,20000,0,9999,0.100000,0,0,0.000000,4,0.000000,0.000000,0.047190,0,0,0,0,0,0,0
4,49999,41,40000,72,20000,0,9999,0.100000,0,0,0.000000,4,0.000000,0.000000,0.413192,0,0,0,0,0,0,0
4,49999,42,40000,97,20000,0,9999,0.100000,0,0,0.000000,4,0.000000,0.000000,0.695828,0,0,0,0,0,0,0
4,49999,43,40000,97,20000,1,9999,0.100000,0,0,0.000000,4,3.000000,0.000000,8.203372,0,0,0,0,0,0,0
4,49999,44,40000,73,20000,1,9999,0.100000,0,0,0.000000,4,1.000000,0.000000,14.902481,0,0,0,0,0,0,0
4,49999,45,40000,72,20000,0,9999,0.100000,0,0,0.000000,4,0.000000,0.000000,0.456767,0,0,0,0,0,0,0
4,49999,46,40000,8,20000,0,9999,0.100000,0,0,0.000000,4,0.000000,0.000000,15.120253,0,0,0,0,0,0,0
4,49999,47,40000,97,20000,1,9999,0.100000,0,0,0.000000,4,3.000000,0.000000,15.234782,0,0,0,0,0,0,0
4,49999,48,40000,97,20000,0,9999,0.100000,0,0,0.000000,4,0.000000,0.000000,1.013075,0,0,0,0,0,0,0
4,49999,49,40000,73,20000,0,9999,0.100000,0,0,0.000000,4,0.000000,0.000000,1.022010,0,0,0,0,0,0,0
4,49999,50,40000,8,20000,1,9999,0.100000,0,0,0.000000,4,1.000000,0.000000,2.272076,0,0,0,0,0,0,0
4,49999,51,40000,72,20000,1,9999,0.100000,0,0,0.000000,4,1.000000,0.000000,2.521096,0,0,0,0,0,0,0
4,49999,52,40000,97,20000,0,9999,0.100000,0,0,0.000000,4,0.000000,0.000000,3.123826,0,0,0,0,0,0,0
4,49999,53,40000,73,20000,0,9999,0.100000,0,0,0.000000,4,0.000000,0.000000,0.273730,0,0,0,0,0,0,0
4,49999,54,40000,73,20000,1,9999,0.100000,0,0,0.000000,4,3.000000,0.000000,6.101721,0,0,0,0,0,0,0
4,49999,55,40000,8,20000,0,9999,0.100000,0,0,0.000000,4,0.000000,0.000000,0.605186,0,0,0,0,0,0,0
4,49999,56,40000,72,20000,0,9999,0.100000,0,0,0.000000,4,0.000000,0.000000,0.059625,0,0,0,0,0,0,0
4,49999,57,40000,8,20000,0,9999,0.100000,0,0,0.000000,4,0.000000,0.000000,2.238673,0,0,0,0,0,0,0
4,49999,58,40000,8,20000,0,9999,0.100000,0,0,0.000000,4,0.000000,0.000000,0.242441,0,0,0,0,0,0,0
4,49999,59,40000,72,20000,0,9999,0.100000,0,0,0.000000,4,0.000000,0.000000,0.227030,0,0,0,0,0,0,0
4,49999,60,40000,72,20000,0,9999,0.100000,0,0,0.000000,4,0.000000,0.000000,0.657279,0,0,0,0,0,0,0
4,49999,61,40000,97,20000,1,9999,0.100000,0,0,0.000000,4,4.000000,0.000000,5.787738,0,0,0,0,0,0,0
4,49999,62,40000,97,20000,1,9999,0.100000,0,0,0.000000,4,3.000000,0.000000,10.672802,0,0,0,0,0,0,0
4,49999,63,40000,97,20000,1,9999,0.100000,0,0,0.000000,4,3.000000,0.000000,7.653452,0,0,0,0,0,0,0
4,49999,64,40000,73,20000,1,9999,0.100000,0,0,0.000000,4,4.000000,0.000000,18.094466,0,0,0,0,0,0,0
4,49999,65,40000,97,20000,1,9999,0.100000,0,0,0.000000,4,3.000000,0.000000,5.849337,0,0,0,0,0,0,0
4,49999,66,40000,72,20000,0,9999,0.100000,0,0,0.000000,4,0.000000,0.000000,0.642336,0,0,0,0,0,0,0
4,49999,67,40000,73,20000,0,9999,0.100000,0,0,0.000000,4,0.000000,0.000000,0.235510,0,0,0,0,0,0,0
4,49999,68,40000,73,20000,0,9999,0.100000,0,0,0.000000,4,0.000000,0.000000,1.720846,0,0,0,0,0,0,0
4,49999,69,40000,72,20000,1,9999,0.100000,0,0,0.000000,4,4.000000,0.000000,11.195375,0,0,0,0,0,0,0
4,49999,70,40000,72,20000,0,9999,0.100000,0,0,0.000000,4,0.000000,0.000000,1.018065,0,0,0,0,0,0,0
4,49999,71,40000,73,20000,1,9999,0.100000,0,0,0.000000,4,3.000000,0.000000,11.575692,0,0,0,0,0,0,0
4,49999,72,40000,97,20000,1,9999,0.100000,0,0,0.000000,4,1.000000,0.000000,15.595211,0,0,0,0,0,0,0
4,49999,73,40000,72,20000,1,9999,0.100000,0,0,0.000000,4,1.000000,0.000000,7.687400,0,0,0,0,0,0,0
4,49999,74,40000,97,20000,1,9999,0.100000,0,0,0.000000,4,1.000000,0.000000,15.173340,0,0,0,0,0,0,0
4,49999,75,40000,8,20000,0,9999,0.100000,0,0,0.000000,4,0.000000,0.000000,23.444268,0,0,0,0,0,0,0
4,49999,76,40000,8,20000,0,9999,0.100000,0,0,0.000000,4,0.000000,0.000000,0.184262,0,0,0,0,0,0,0
4,49999,77,40000,97,20000,1,9999,0.100000,0,0,0.000000,4,2.000000,0.000000,10.885295,0,0,0,0,0,0,0
4,49999,78,40000,97,20000,0,9999,0.100000,0,0,0.000000,4,0.000000,0.000000,0.009105,0,0,0,0,0,0,0
4,49999,79,40000,72,20000,1,9999,0.100000,0,0,0.000000,4,1.000000,0.000000,13.970610,0,0,0,0,0,0,0
4,49999,80,40000,73,20000,0,9999,0.100000,0,0,0.000000,4,0.000000,0.000000,0.400460,0,0,0,0,0,0,0
4,49999,81,40000,73,20000,1,9999,0.100000,0,0,0.000000,4,3.000000,0.000000,15.253135,0,0,0,0,0,0,0
4,49999,82,40000,97,20000,1,9999,0.100000,0,0,0.000000,4,1.000000,0.000000,11.246999,0,0,0,0,0,0,0
4,49999,83,40000,97,20000,1,9999,0.100000,0,0,0.000000,4,1.000000,0.000000,11.099668,0,0,0,0,0,0,0
4,49999,84,40000,73,20000,1,9999,0.100000,0,0,0.000000,4,3.000000,0.000000,9.407523,0,0,0,0,0,0,0
4,49999,85,40000,8,20000,0,9999,0.100000,0,0,0.000000,4,0.000000,0.000000,0.188956,0,0,0,0,0,0,0
4,49999,86,40000,97,20000,1,9999,0.100000,0,0,0.000000,4,3.000000,0.000000,14.704717,0,0,0,0,0,0,0
4,49999,87,40000,97,20000,0,9999,0.100000,0,0,0.000000,4,0.000000,0.000000,0.382764,0,0,0,0,0,0,0
4,49999,88,40000,97,20000,0,9999,0.100000,0,0,0.000000,4,0.000000,0.000000,0.946568,0,0,0,0,0,1,0
4,49999,89,40000,72,20000,1,9999,0.100000,0,0,0.000000,4,1.000000,0.000000,16.957080,0,0,0,0,0,0,0
4,49999,90,40000,97,20000,1,9999,0.100000,0,0,0.000000,4,2.000000,0.000000,9.796218,0,0,0,0,0,0,0
4,49999,91,40000,72,20000,1,9999,0.100000,0,0,0.000000,4,1.000000,0.000000,10.204587,0,0,0,0,0,0,0
4,49999,92,40000,73,20000,0,9999,0.100000,0,0,0.000000,4,0.000000,0.000000,0.075605,0,0,0,0,0,0,0
4,49999,93,40000,97,20000,0,9999,0.100000,0,0,0.000000,4,0.000000,0.000000,5.897989,0,0,0,0,0,0,0
4,49999,94,40000,97,20000,1,9999,0.100000,0,0,0.000000,4,1.000000,0.000000,13.080312,0,0,0,0,0,0,0
4,49999,95,40000,8,20000,0,9999,0.100000,0,0,0.000000,4,0.000000,0.000000,6.876789,0,0,0,0,0,0,0
4,49999,96,40000,8,20000,0,9999,0.100000,0,0,0.000000,4,0.000000,0.000000,0.778208,0,0,0,0,0,0,0
4,49999,97,40000,8,20000,0,9999,0.100000,0,0,0.000000,4,0.000000,0.000000,0.090844,0,0,0,0,0,0,0
4,49999,98,40000,73,20000,0,9999,0.100000,0,0,0.000000,4,0.000000,0.000000,0.807005,0,0,0,0,0,0,0
4,49999,99,40000,8,20000,1,9999,0.100000,0,0,0.000000,4,1.000000,0.000000,9.726922,0,0,0,0,0,0,0
5,59999,0,50000,73,20000,1,9999,0.100000,0,0,0.000000,4,10.000000,0.000000,17.696096,0,0,0,0,0,0,0
5,59999,1,50000,8,20000,1,9999,0.100000,0,0,0.000000,4,1.000000,0.000000,9.971787,0,0,0,0,0,0,0
5,59999,2,50000,8,20000,0,9999,0.100000,0,0,0.000000,4,0.000000,0.000000,0.632013,0,0,0,0,0,0,0
5,59999,3,50000,72,20000,0,9999,0.100000,0,0,0.000000,4,0.000000,0.000000,0.009224,0,0,0,0,0,0,0
5,59999,4,50000,8,20000,0,9999,0.100000,0,0,0.000000,4,0.000000,0.000000,0.361158,0,0,0,0,0,0,0
5,59999,5,50000,97,20000,1,9999,0.100000,0,0,0.000000,4,4.000000,0.000000,26.673603,0,0,0,0,0,0,0
5,59999,6,50000,72,20000,1,9999,0.100000,0,0,0.000000,4,1.000000,0.000000,23.193349,0,0,0,0,0,0,0
5,59999,7,50000,73,20000,0,9999,0.100000,0,0,0.000000,4,0.000000,0.000000,0.530089,0,0,0,0,0,0,0
5,59999,8,50000,73,20000,0,9999,0.100000,0,0,0.000000,4,0.000000,0.000000,0.674446,0,0,0,0,0,0,0
5,59999,9,50000,8,20000,0,9999,0.100000,0,0,0.000000,4,0.000000,0.000000,0.771719,0,0,0,0,0,0,0
5,59999,10,50000,8,20000,1,9999,0.100000,0,0,0.000000,4,1.000000,0.000000,13.336610,0,0,0,0,0,0,0
5,59999,11,50000,73,20000,0,9999,0.100000,0,0,0.000000,4,0.000000,0.000000,0.983467,0,0,0,0,0,0,0
5,59999,12,50000,8,20000,0,9999,0.100000,0,0,0.000000,4,0.000000,0.000000,0.583402,0,0,0,0,0,0,0
5,59999,13,50000,97,20000,0,9999,0.100000,0,0,0.000000,4,0.000000,0.000000,1.011721,0,0,0,0,0,0,0
5,59999,14,50000,97,20000,0,9999,0.100000,0,0,0.000000,4,0.000000,0.000000,1.364535,0,0,0,0,0,0,0
5,59999,15,50000,73,20000,0,9999,0.100000,0,0,0.000000,4,0.000000,0.000000,1.003103,0,0,0,0,0,0,0
5,59999,16,50000,72,20000,1,9999,0.100000,0,0,0.000000,4,8.000000,0.000000,8.963565,0,0,0,0,0,0,0
5,59999,17,50000,72,20000,1,9999,0.100000,0,0,0.000000,4,2.000000,0.000000,5.691688,0,0,0,0,0,0,0
5,59999,18,50000,72,20000,1,9999,0.100000,0,0,0.000000,4,2.000000,0.000000,7.035296,0,0,0,0,0,0,0
5,59999,19,50000,8,20000,1,9999,0.100000,0,0,0.000000,4,8.000000,0.000000,15.027154,0,0,0,0,0,0,0
5,59999,20,50000,72,20000,0,9999,0.100000,0,0,0.000000,4,0.000000,0.000000,0.559493,0,0,0,0,0,0,0
5,59999,21,50000,72,20000,0,9999,0.100000,0,0,0.000000,4,0.000000,0.000000,0.136725,0,0,0,0,0,0,0
5,59999,22,50000,8,20000,1,9999,0.100000,0,0,0.000000,4,1.000000,0.000000,8.394673,0,0,0,0,0,0,0
5,59999,23,50000,8,20000,1,9999,0.100000,0,0,0.000000,4,1.000000,0.000000,6.355969,0,0,0,0,0,0,0
5,59999,24,50000,73,20000,1,9999,0.100000,0,0,0.000000,4,1.000000,0.000000,21.217582,0,0,0,0,0,0,0
5,59999,25,50000,97,20000,1,9999,0.100000,0,0,0.000000,4,5.000000,0.000000,20.813957,0,0,0,0,0,0,0
5,59999,26,50000,8,20000,0,9999,0.100000,0,0,0.000000,4,0.000000,0.000000,1.015014,0,0,0,0,0,0,0
5,59999,27,50000,8,20000,0,9999,0.100000,0,0,0.000000,4,0.000000,0.000000,0.248694,0,0,0,0,0,0,0
5,59999,28,50000,8,20000,1,9999,0.100000,0,0,0.000000,4,1.000000,0.000000,9.710117,0,0,0,0,0,0,0
5,59999,29,50000,72,20000,1,9999,0.100000,0,0,0.000000,4,2.000000,0.000000,11.425785,0,0,0,0,0,0,0
5,59999,30,50000,73,20000,0,9999,0.100000,0,0,0.000000,4,0.000000,0.000000,0.827286,0,0,0,0,0,0,0
5,59999,31,50000,97,20000,1,9999,0.100000,0,0,0.000000,4,1.000000,0.000000,4.965883,0,0,0,0,0,0,0
5,59999,32,50000,97,20000,0,9999,0.100000,0,0,0.000000,4,0.000000,0.000000,0.226117,0,0,0,0,0,0,0
5,59999,33,50000,73,20000,1,9999,0.100000,0,0,0.000000,4,1.000000,0.000000,18.526299,0,0,0,0,0,0,0
5,59999,34,50000,97,20000,0,9999,0.100000,0,0,0.000000,4,0.000000,0.000000,3.437066,0,0,0,0,0,0,0
5,59999,35,50000,8,20000,0,9999,0.100000,0,0,0.000000,4,0.000000,0.000000,7.042798,0,0,0,0,0,0,0
5,59999,36,50000,72,20000,0,9999,0.100000,0,0,0.000000,4,0.000000,0.000000,10.102351,0,0,0,0,0,0,0
5,59999,37,50000,73,20000,1,9999,0.100000,0,0,0.000000,4,1.000000,0.000000,13.946626,0,0,0,0,0,0,0
5,59999,38,50000,8,20000,0,9999,0.100000,0,0,0.000000,4,0.000000,0.000000,0.384216,0,0,0,0,0,0,0
5,59999,39,50000,97,20000,1,9999,0.100000,0,0,0.000000,4,2.000000,0.000000,14.912703,0,0,0,0,0,0,0
5,59999,40,50000,8,20000,0,9999,0.100000,0,0,0.000000,4,0.000000,0.000000,0.062121,0,0,0,0,0,0,0
5,59999,41,50000,73,20000,0,9999,0.100000,0,0,0.000000,4,0.000000,0.000000,0.128288,0,0,0,0,0,0,0
5,59999,42,50000,8,20000,0,9999,0.100000,0,0,0.000000,4,0.000000,0.000000,0.575435,0,0,0,0,0,0,0
5,59999,43,50000,97,20000,0,9999,0.100000,0,0,0.000000,4,0.000000,0.000000,6.557269,0,0,0,0,0,0,0
5,59999,44,50000,72,20000,0,9999,0.100000,0,0,0.000000,4,0.000000,0.000000,8.384617,0,0,0,0,0,0,0
5,59999,45,50000,72,20000,0,9999,0.100000,0,0,0.000000,4,0.000000,0.000000,0.271434,0,0,0,0,0,0,0
5,59999,46,50000,97,20000,1,9999,0.100000,0,0,0.000000,4,1.000000,0.000000,14.808618,0,0,0,0,0,0,0
5,59999,47,50000,73,20000,1,9999,0.100000,0,0,0.000000,4,3.000000,0.000000,17.530046,0,0,0,0,0,0,0
5,59999,48,50000,72,20000,0,9999,0.100000,0,0,0.000000,4,0.000000,0.000000,0.988265,0,0,0,0,0,0,0
5,59999,49,50000,72,20000,0,9999,0.100000,0,0,0.000000,4,0.000000,0.000000,0.282026,0,0,0,0,0,0,0
5,59999,50,50000,73,20000,1,9999,0.100000,0,0,0.000000,4,1.000000,0.000000,2.828077,0,0,0,0,0,0,0
5,59999,51,50000,72,20000,1,9999,0.100000,0,0,0.000000,4,1.000000,0.000000,2.644149,0,0,0,0,0,0,0
5,59999,52,50000,97,20000,0,9999,0.100000,0,0,0.000000,4,0.000000,0.000000,1.336334,0,0,0,0,0,0,0
5,59999,53,50000,8,20000,0,9999,0.100000,0,0,0.000000,4,0.000000,0.000000,0.298215,0,0,0,0,0,0,0
5,59999,54,50000,97,20000,0,9999,0.100000,0,0,0.000000,4,0.000000,0.000000,1.108473,0,0,0,0,0,0,0
5,59999,55,50000,72,20000,0,9999,0.100000,0,0,0.000000,4,0.000000,0.000000,0.437253,0,0,0,0,0,0,0
5,59999,56,50000,73,20000,0,9999,0.100000,0,0,0.000000,4,0.000000,0.000000,0.070947,0,0,0,0,0,0,0
5,59999,57,50000,97,20000,0,9999,0.100000,0,0,0.000000,4,0.000000,0.000000,0.363580,0,0,0,0,0,0,0
5,59999,58,50000,72,20000,0,9999,0.100000,0,0,0.000000,4,0.000000,0.000000,0.247799,0,0,0,0,0,0,0
5,59999,59,50000,73,20000,0,9999,0.100000,0,0,0.000000,4,0.000000,0.000000,0.320862,0,0,0,0,0,0,0
5,59999,60,50000,97,20000,0,9999,0.100000,0,0,0.000000,4,0.000000,0.000000,0.445049,0,0,0,0,0,0,0
5,59999,61,50000,8,20000,0,9999,0.100000,0,0,0.000000,4,0.000000,0.000000,0.471929,0,0,0,0,0,0,0
5,59999,62,50000,8,20000,0,9999,0.100000,0,0,0.000000,4,0.000000,0.000000,8.387380,0,0,0,0,0,0,0
5,59999,63,50000,97,20000,0,9999,0.100000,0,0,0.000000,4,0.000000,0.000000,0.121579,0,0,0,0,0,0,0
5,59999,64,50000,8,20000,1,9999,0.100000,0,0,0.000000,4,3.000000,0.000000,13.412691,0,0,0,0,0,0,0
5,59999,65,50000,72,20000,1,9999,0.100000,0,0,0.000000,4,1.000000,0.000000,3.921511,0,0,0,0,0,0,0
5,59999,66,50000,73,20000,0,9999,0.100000,0,0,0.000000,4,0.000000,0.000000,0.611748,0,0,0,0,0,0,0
5,59999,67,50000,73,20000,0,9999,0.100000,0,0,0.000000,4,0.000000,0.000000,0.546154,0,0,0,0,0,0,0
5,59999,68,50000,97,20000,0,9999,0.100000,0,0,0.000000,4,0.000000,0.000000,1.795079,0,0,0,0,0,0,0
5,59999,69,50000,72,20000,1,9999,0.100000,0,0,0.000000,4,1.000000,0.000000,6.995197,0,0,0,0,0,0,0
5,59999,70,50000,72,20000,0,9999,0.100000,0,0,0.000000,4,0.000000,0.000000,1.000522,0,0,0,0,0,0,0
5,59999,71,50000,8,20000,0,9999,0.100000,0,0,0.000000,4,0.000000,0.000000,1.829019,0,0,0,0,0,0,0
5,59999,72,50000,72,20000,1,9999,0.100000,0,0,0.000000,4,2.000000,0.000000,14.057146,0,0,0,0,0,0,0
5,59999,73,50000,72,20000,0,9999,0.100000,0,0,0.000000,4,0.000000,0.000000,11.912112,0,0,0,0,0,0,0
5,59999,74,50000,8,20000,1,9999,0.100000,0,0,0.000000,4,7.000000,0.000000,15.740090,0,0,0,0,0,0,0
5,59999,75,50000,97,20000,1,9999,0.100000,0,0,0.000000,4,1.000000,0.000000,22.431103,0,0,0,0,0,0,0
5,59999,76,50000,73,20000,0,9999,0.100000,0,0,0.000000,4,0.000000,0.000000,0.181736,0,0,0,0,0,0,0
5,59999,77,50000,73,20000,0,9999,0.100000,0,0,0.000000,4,0.000000,0.000000,10.635434,0,0,0,0,0,0,0
5,59999,78,50000,72,20000,0,9999,0.100000,0,0,0.000000,4,0.000000,0.000000,0.008967,0,0,0,0,0,0,0
5,59999,79,50000,72,20000,1,9999,0.100000,0,0,0.000000,4,1.000000,0.000000,11.086117,0,0,0,0,0,0,0
5,59999,80,50000,8,20000,0,9999,0.100000,0,0,0.000000,4,0.000000,0.000000,0.205412,0,0,0,0,0,0,0
5,59999,81,50000,8,20000,1,9999,0.100000,0,0,0.000000,4,3.000000,0.000000,17.582704,0,0,0,0,0,0,0
5,59999,82,50000,97,20000,1,9999,0.100000,0,0,0.000000,4,2.000000,0.000000,7.698963,0,0,0,0,0,0,0
5,59999,83,50000,8,20000,0,9999,0.100000,0,0,0.000000,4,0.000000,0.000000,6.227448,0,0,0,0,0,0,0
5,59999,84,50000,97,20000,1,9999,0.100000,0,0,0.000000,4,4.000000,0.000000,17.618714,0,0,0,0,0,0,0
5,59999,85,50000,8,20000,0,9999,0.100000,0,0,0.000000,4,0.000000,0.000000,0.294734,0,0,0,0,0,0,0
5,59999,86,50000,72,20000,1,9999,0.100000,0,0,0.000000,4,2.000000,0.000000,4.991594,0,0,0,0,0,0,0
5,59999,87,50000,8,20000,0,9999,0.100000,0,0,0.000000,4,0.000000,0.000000,0.383084,0,0,0,0,0,0,0
5,59999,88,50000,97,20000,0,9999,0.100000,0,0,0.000000,4,0.000000,0.000000,0.350587,0,0,0,0,0,0,0
5,59999,89,50000,72,20000,1,9999,0.100000,0,0,0.000000,4,2.000000,0.000000,16.669004,0,0,0,0,0,0,0
5,59999,90,50000,73,20000,1,9999,0.100000,0,0,0.000000,4,2.000000,0.000000,9.406803,0,0,0,0,0,0,0
5,59999,91,50000,72,20000,1,9999,0.100000,0,0,0.000000,4,1.000000,0.000000,8.698409,0,0,0,0,0,0,0
5,59999,92,50000,72,20000,0,9999,0.100000,0,0,0.000000,4,0.000000,0.000000,0.089709,0,0,0,0,0,0,0
5,59999,93,50000,97,20000,0,9999,0.100000,0,0,0.000000,4,0.000000,0.000000,5.701924,0,0,0,0,0,0,0
5,59999,94,50000,72,20000,0,9999,0.135000,0,0,0.000000,4,0.000000,0.000000,0.983217,0,0,0,0,0,0,0
5,59999,95,50000,73,20000,0,9999,0.100000,0,0,0.000000,4,0.000000,0.000000,0.694477,0,0,0,0,0,0,0
5,59999,96,50000,72,20000,0,9999,0.100000,0,0,0.000000,4,0.000000,0.000000,0.735378,0,0,0,0,0,0,0
5,59999,97,50000,73,20000,0,9999,0.100000,0,0,0.000000,4,0.000000,0.000000,0.099747,0,0,0,0,0,0,0
5,59999,98,50000,72,20000,1,9999,0.100000,0,0,0.000000,4,1.000000,0.000000,3.802354,0,0,0,0,0,0,0
5,59999,99,50000,8,20000,0,9999,0.100000,0,0,0.000000,4,0.000000,0.000000,7.252598,0,0,0,0,0,0,0
6,69999,0,60000,8,20000,1,9999,0.100000,0,0,0.000000,4,2.000000,0.000000,4.769263,0,0,0,0,0,0,0
6,69999,1,60000,73,20000,1,9999,0.100000,0,0,0.000000,4,2.000000,0.000000,10.826359,0,0,0,0,0,0,0
6,69999,2,60000,97,20000,0,9999,0.100000,0,0,0.000000,4,0.000000,0.000000,0.627509,0,0,0,0,0,0,0
6,69999,3,60000,73,20000,0,9999,0.100000,0,0,0.000000,4,0.000000,0.000000,0.009224,0,0,0,0,0,0,0
6,69999,4,60000,97,20000,0,9999,0.100000,0,0,0.000000,4,0.000000,0.000000,0.282461,0,0,0,0,0,0,0
6,69999,5,60000,73,20000,1,9999,0.100000,0,0,0.000000,4,1.000000,0.000000,6.708698,0,0,0,0,0,0,0
6,69999,6,60000,8,20000,1,9999,0.100000,0,0,0.000000,4,1.000000,0.000000,23.952013,0,0,0,0,0,0,0
6,69999,7,60000,73,20000,0,9999,0.100000,0,0,0.000000,4,0.000000,0.000000,0.521755,0,0,0,0,0,0,0
6,69999,8,60000,72,20000,1,9999,0.100000,0,0,0.000000,4,2.000000,0.000000,7.985794,0,0,0,0,0,0,0
6,69999,9,60000,97,20000,1,9999,0.100000,0,0,0.000000,4,1.000000,0.000000,1.628650,0,0,0,0,0,0,0
6,69999,10,60000,8,20000,1,9999,0.100000,0,0,0.000000,4,2.000000,0.000000,19.304588,0,0,0,0,0,0,0
6,69999,11,60000,97,20000,0,9999,0.100000,0,0,0.000000,4,0.000000,0.000000,1.027540,0,0,0,0,0,0,0
6,69999,12,60000,72,20000,0,9999,0.100000,0,0,0.000000,4,0.000000,0.000000,0.117853,0,0,0,0,0,0,0
6,69999,13,60000,73,20000,0,9999,0.100000,0,0,0.000000,4,0.000000,0.000000,1.023600,0,0,0,0,0,0,0
6,69999,14,60000,97,20000,1,9999,0.100000,0,0,0.000000,4,1.000000,0.000000,2.291045,0,0,0,0,0,0,0
6,69999,15,60000,72,20000,0,9999,0.100000,0,0,0.000000,4,0.000000,0.000000,1.683759,0,0,0,0,0,0,0
6,69999,16,60000,73,20000,0,9999,0.100000,0,0,0.000000,4,0.000000,0.000000,0.237854,0,0,0,0,0,0,0
6,69999,17,60000,72,20000,0,9999,0.100000,0,0,0.000000,4,0.000000,0.000000,1.124551,0,0,0,0,0,0,0
6,69999,18,60000,73,20000,1,9999,0.100000,0,0,0.000000,4,1.000000,0.000000,2.693562,0,0,0,0,0,0,0
6,69999,19,60000,97,20000,0,9999,0.100000,0,0,0.000000,4,0.000000,0.000000,5.905708,0,0,0,0,0,0,0
6,69999,20,60000,97,20000,0,9999,0.100000,0,0,0.000000,4,0.000000,0.000000,1.204870,0,0,0,0,0,0,0
6,69999,21,60000,97,20000,0,9999,0.100000,0,0,0.000000,4,0.000000,0.000000,0.131830,0,0,0,0,0,0,0
6,69999,22,60000,72,20000,0,9999,0.100000,0,0,0.000000,4,0.000000,0.000000,12.529155,0,0,0,0,0,0,0
6,69999,23,60000,8,20000,1,9999,0.100000,0,0,0.000000,4,1.000000,0.000000,6.488724,0,0,0,0,0,0,0
6,69999,24,60000,72,20000,1,9999,0.100000,0,0,0.000000,4,5.000000,0.000000,15.948803,0,0,0,0,0,0,0
6,69999,25,60000,73,20000,1,9999,0.100000,0,0,0.000000,4,1.000000,0.000000,15.809814,0,0,0,0,0,0,0
6,69999,26,60000,72,20000,0,9999,0.100000,0,0,0.000000,4,0.000000,0.000000,0.992115,0,0,0,0,0,0,0
6,69999,27,60000,72,20000,0,9999,0.100000,0,0,0.000000,4,0.000000,0.000000,0.190593,0,0,0,0,0,0,0
6,69999,28,60000,72,20000,1,9999,0.100000,0,0,0.000000,4,4.000000,0.000000,11.686620,0,0,0,0,0,0,0
6,69999,29,60000,97,20000,0,9999,0.100000,0,0,0.000000,4,0.000000,0.000000,12.061316,0,0,0,0,0,0,0
6,69999,30,60000,72,20000,0,9999,0.100000,0,0,0.000000,4,0.000000,0.000000,0.123919,0,0,0,0,0,0,0
6,69999,31,60000,97,20000,0,9999,0.100000,0,0,0.000000,4,0.000000,0.000000,9.488007,0,0,0,0,0,0,0
6,69999,32,60000,8,20000,0,9999,0.100000,0,0,0.000000,4,0.000000,0.000000,0.242852,0,0,0,0,0,0,0
6,69999,33,60000,8,20000,1,9999,0.100000,0,0,0.000000,4,3.000000,0.000000,11.370447,0,0,0,0,0,0,0
6,69999,34,60000,97,20000,1,9999,0.100000,0,0,0.000000,4,14.000000,0.000000,30.988025,0,0,0,0,0,0,0
6,69999,35,60000,97,20000,1,9999,0.100000,0,0,0.000000,4,1.000000,0.000000,10.179385,0,0,0,0,0,0,0
6,69999,36,60000,72,20000,1,9999,0.100000,0,0,0.000000,4,1.000000,0.000000,7.641411,0,0,0,0,0,0,0
6,69999,37,60000,73,20000,0,9999,0.100000,0,0,0.000000,4,0.000000,0.000000,7.716578,0,0,0,0,0,0,0
6,69999,38,60000,8,20000,0,9999,0.100000,0,0,0.000000,4,0.000000,0.000000,0.366820,0,0,0,0,0,0,0
6,69999,39,60000,97,20000,1,9999,0.100000,0,0,0.000000,4,2.000000,0.000000,19.228628,0,0,0,0,0,0,0
6,69999,40,60000,73,20000,0,9999,0.100000,0,0,0.000000,4,0.000000,0.000000,0.103869,0,0,0,0,0,0,0
6,69999,41,60000,73,20000,0,9999,0.100000,0,0,0.000000,4,0.000000,0.000000,0.121226,0,0,0,0,0,0,0
6,69999,42,60000,73,20000,0,9999,0.100000,0,0,0.000000,4,0.000000,0.000000,0.350249,0,0,0,0,0,0,0
6,69999,43,60000,72,20000,1,9999,0.100000,0,0,0.000000,4,1.000000,0.000000,1.893858,0,0,0,0,0,0,0
6,69999,44,60000,73,20000,0,9999,0.100000,0,0,0.000000,4,0.000000,0.000000,0.988337,0,0,0,0,0,0,0
6,69999,45,60000,72,20000,0,9999,0.100000,0,0,0.000000,4,0.000000,0.000000,0.874882,0,0,0,0,0,0,0
6,69999,46,60000,73,20000,0,9999,0.100000,0,0,0.000000,4,0.000000,0.000000,12.539633,0,0,0,0,0,0,0
6,69999,47,60000,8,20000,1,9999,0.100000,0,0,0.000000,4,2.000000,0.000000,14.872533,0,0,0,0,0,0,0
6,69999,48,60000,8,20000,0,9999,0.100000,0,0,0.000000,4,0.000000,0.000000,1.040109,0,0,0,0,0,0,0
6,69999,49,60000,8,20000,0,9999,0.100000,0,0,0.000000,4,0.000000,0.000000,0.268612,0,0,0,0,0,0,0
6,69999,50,60000,73,20000,0,9999,0.100000,0,0,0.000000,4,0.000000,0.000000,1.950874,0,0,0,0,0,0,0
6,69999,51,60000,97,20000,0,9999,0.100000,0,0,0.000000,4,0.000000,0.000000,1.939236,0,0,0,0,0,0,0
6,69999,52,60000,97,20000,0,9999,0.100000,0,0,0.000000,4,0.000000,0.000000,1.242637,0,0,0,0,0,0,0
6,69999,53,60000,8,20000,1,9999,0.100000,0,0,0.000000,4,1.000000,0.000000,1.673176,0,0,0,0,0,0,0
6,69999,54,60000,8,20000,0,9999,0.100000,0,0,0.000000,4,0.000000,0.000000,0.009598,0,0,0,0,0,0,0
6,69999,55,60000,72,20000,0,9999,0.100000,0,0,0.000000,4,0.000000,0.000000,0.114134,0,0,0,0,0,0,0
6,69999,56,60000,8,20000,0,9999,0.100000,0,0,0.000000,4,0.000000,0.000000,0.596670,0,0,0,0,0,0,0
6,69999,57,60000,97,20000,0,9999,0.100000,0,0,0.000000,4,0.000000,0.000000,1.350358,0,0,0,0,0,0,0
6,69999,58,60000,8,20000,0,9999,0.100000,0,0,0.000000,4,0.000000,0.000000,0.725379,0,0,0,0,0,0,0
6,69999,59,60000,97,20000,1,9999,0.100000,0,0,0.000000,4,1.000000,0.000000,1.917030,0,0,0,0,0,0,0
6,69999,60,60000,97,20000,1,9999,0.100000,0,0,0.000000,4,1.000000,0.000000,1.670244,0,0,0,0,0,0,0
6,69999,61,60000,73,20000,0,9999,0.100000,0,0,0.000000,4,0.000000,0.000000,0.522017,0,0,0,0,0,0,0
6,69999,62,60000,97,20000,1,9999,0.100000,0,0,0.000000,4,2.000000,0.000000,16.707647,0,0,0,0,0,0,0
6,69999,63,60000,73,20000,0,9999,0.100000,0,0,0.000000,4,0.000000,0.000000,0.078538,0,0,0,0,0,0,0
6,69999,64,60000,97,20000,1,9999,0.100000,0,0,0.000000,4,3.000000,0.000000,16.512566,0,0,0,0,0,0,0
6,69999,65,60000,72,20000,0,9999,0.100000,0,0,0.000000,4,0.000000,0.000000,0.960270,0,0,0,0,0,0,0
6,69999,66,60000,8,20000,0,9999,0.100000,0,0,0.000000,4,0.000000,0.000000,0.661050,0,0,0,0,0,0,0
6,69999,67,60000,73,20000,1,9999,0.100000,0,0,0.000000,4,1.000000,0.000000,2.430364,0,0,0,0,0,0,0
6,69999,68,60000,73,20000,0,9999,0.100000,0,0,0.000000,4,0.000000,0.000000,2.030988,0,0,0,0,0,0,0
6,69999,69,60000,73,20000,1,9999,0.100000,0,0,0.000000,4,2.000000,0.000000,15.791450,0,0,0,0,0,0,0
6,69999,70,60000,97,20000,0,9999,0.100000,0,0,0.000000,4,0.000000,0.000000,0.975163,0,0,0,0,0,0,0
6,69999,71,60000,72,20000,0,9999,0.100000,0,0,0.000000,4,0.000000,0.000000,1.543901,0,0,0,0,0,0,0
6,69999,72,60000,73,20000,1,9999,0.100000,0,0,0.000000,4,3.000000,0.000000,11.450705,0,0,0,0,0,0,0
6,69999,73,60000,97,20000,1,9999,0.100000,0,0,0.000000,4,1.000000,0.000000,13.686305,0,0,0,0,0,0,0
6,69999,74,60000,8,20000,1,9999,0.100000,0,0,0.000000,4,3.000000,0.000000,12.674868,0,0,0,0,0,0,0
6,69999,75,60000,97,20000,1,9999,0.100000,0,0,0.000000,4,1.000000,0.000000,5.829851,0,0,0,0,0,0,0
6,69999,76,60000,73,20000,0,9999,0.100000,0,0,0.000000,4,0.000000,0.000000,0.184372,0,0,0,0,0,0,0
6,69999,77,60000,8,20000,1,9999,0.100000,0,0,0.000000,4,1.000000,0.000000,4.684252,0,0,0,0,0,0,0
6,69999,78,60000,73,20000,0,9999,0.100000,0,0,0.000000,4,0.000000,0.000000,0.009034,0,0,0,0,0,0,0
6,69999,79,60000,73,20000,1,9999,0.100000,0,0,0.000000,4,3.000000,0.000000,14.605338,0,0,0,0,0,0,0
6,69999,80,60000,97,20000,0,9999,0.100000,0,0,0.000000,4,0.000000,0.000000,0.702656,0,0,0,0,0,0,0
6,69999,81,60000,97,20000,1,9999,0.100000,0,0,0.000000,4,2.000000,0.000000,14.873280,0,0,0,0,0,0,0
6,69999,82,60000,73,20000,1,9999,0.100000,0,0,0.000000,4,1.000000,0.000000,8.606054,0,0,0,0,0,0,0
6,69999,83,60000,73,20000,1,9999,0.100000,0,0,0.000000,4,1.000000,0.000000,11.578403,0,0,0,0,0,0,0
6,69999,84,60000,97,20000,0,9999,0.100000,0,0,0.000000,4,0.000000,0.000000,17.268090,0,0,0,0,0,0,0
6,69999,85,60000,73,20000,0,9999,0.100000,0,0,0.000000,4,0.000000,0.000000,0.239953,0,0,0,0,0,0,0
6,69999,86,60000,97,20000,1,9999,0.100000,0,0,0.000000,4,1.000000,0.000000,1.369603,0,0,0,0,0,0,0
6,69999,87,60000,8,20000,0,9999,0.100000,0,0,0.000000,4,0.000000,0.000000,0.428543,0,0,0,0,0,0,0
6,69999,88,60000,97,20000,0,9999,0.100000,0,0,0.000000,4,0.000000,0.000000,0.339600,0,0,0,0,0,0,0
6,69999,89,60000,72,20000,1,9999,0.100000,0,0,0.000000,4,1.000000,0.000000,9.030120,0,0,0,0,0,0,0
6,69999,90,60000,73,20000,1,9999,0.100000,0,0,0.000000,4,6.000000,0.000000,11.464072,0,0,0,0,0,0,0
6,69999,91,60000,97,20000,1,9999,0.100000,0,0,0.000000,4,2.000000,0.000000,7.855189,0,0,0,0,0,0,0
6,69999,92,60000,72,20000,0,9999,0.100000,0,0,0.000000,4,0.000000,0.000000,0.077266,0,0,0,0,0,0,0
6,69999,93,60000,97,20000,0,9999,0.100000,0,0,0.000000,4,0.000000,0.000000,4.711901,0,0,0,0,0,0,0
6,69999,94,60000,73,20000,0,9999,0.100000,0,0,0.000000,4,0.000000,0.000000,1.010776,0,0,0,0,0,0,0
6,69999,95,60000,73,20000,0,9999,0.100000,0,0,0.000000,4,0.000000,0.000000,1.243629,0,0,0,0,0,0,0
6,69999,96,60000,8,20000,1,9999,0.100000,0,0,0.000000,4,1.000000,0.000000,1.711025,0,0,0,0,0,0,0
6,69999,97,60000,8,20000,0,9999,0.100000,0,0,0.000000,4,0.000000,0.000000,0.094362,0,0,0,0,0,0,0
6,69999,98,60000,73,20000,0,9999,0.100000,0,0,0.000000,4,0.000000,0.000000,1.526308,0,0,0,0,0,0,0
6,69999,99,60000,73,20000,1,9999,0.100000,0,0,0.000000,4,1.000000,0.000000,10.251132,0,0,0,0,0,0,0
7,79999,0,70000,73,20000,0,9999,0.100000,0,0,0.000000,4,0.000000,0.000000,0.972372,0,0,0,0,0,0,0
7,79999,1,70000,8,20000,1,9999,0.100000,0,0,0.000000,4,11.000000,0.000000,26.207289,0,0,0,0,0,0,0
7,79999,2,70000,73,20000,1,9999,0.100000,0,0,0.000000,4,1.000000,0.000000,1.896068,0,0,0,0,0,1,0
7,79999,3,70000,73,20000,0,9999,0.100000,0,0,0.000000,4,0.000000,0.000000,0.009188,0,0,0,0,0,0,0
7,79999,4,70000,72,20000,0,9999,0.100000,0,0,0.000000,4,0.000000,0.000000,0.377996,0,0,0,0,0,0,0
7,79999,5,70000,72,20000,1,9999,0.100000,0,0,0.000000,4,1.000000,0.000000,8.226713,0,0,0,0,0,0,0
7,79999,6,70000,97,20000,1,9999,0.100000,0,0,0.000000,4,1.000000,0.000000,4.598761,0,0,0,0,0,0,0
7,79999,7,70000,72,20000,1,9999,0.100000,0,0,0.000000,4,1.000000,0.000000,1.964037,0,0,0,0,0,2,0
7,79999,8,70000,72,20000,1,9999,0.100000,0,0,0.000000,4,1.000000,0.000000,10.317642,0,0,0,0,0,0,0
7,79999,9,70000,73,20000,0,9999,0.100000,0,0,0.000000,4,0.000000,0.000000,0.808936,0,0,0,0,0,0,0
7,79999,10,70000,72,20000,1,9999,0.100000,0,0,0.000000,4,1.000000,0.000000,24.687284,0,0,0,0,0,0,0
7,79999,11,70000,73,20000,0,9999,0.100000,0,0,0.000000,4,0.000000,0.000000,1.026857,0,0,0,0,0,0,0
7,79999,12,70000,72,20000,0,9999,0.100000,0,0,0.000000,4,0.000000,0.000000,0.157464,0,0,0,0,0,0,0
7,79999,13,70000,72,20000,0,9999,0.100000,0,0,0.000000,4,0.000000,0.000000,1.011605,0,0,0,0,0,0,0
7,79999,14,70000,72,20000,0,9999,0.100000,0,0,0.000000,4,0.000000,0.000000,0.594299,0,0,0,0,0,0,0
7,79999,15,70000,73,20000,0,9999,0.100000,0,0,0.000000,4,0.000000,0.000000,0.501986,0,0,0,0,0,0,0
7,79999,16,70000,73,20000,0,9999,0.100000,0,0,0.000000,4,0.000000,0.000000,0.249441,0,0,0,0,0,0,0
7,79999,17,70000,97,20000,0,9999,0.100000,0,0,0.000000,4,0.000000,0.000000,0.958122,0,0,0,0,0,0,0
7,79999,18,70000,68,60000,1,9999,0.100000,0,0,0.000000,4,7.000000,0.000000,9.389254,0,0,0,0,0,0,0
7,79999,19,70000,68,60000,0,9999,0.100000,0,0,0.000000,4,0.000000,0.000000,4.542521,0,0,0,0,0,0,0
7,79999,20,70000,73,20000,0,9999,0.100000,0,0,0.000000,4,0.000000,0.000000,0.435159,0,0,0,0,0,0,0
7,79999,21,70000,73,20000,0,9999,0.100000,0,0,0.000000,4,0.000000,0.000000,0.151777,0,0,0,0,0,0,0
7,79999,22,70000,97,20000,0,9999,0.100000,0,0,0.000000,4,0.000000,0.000000,3.395494,0,0,0,0,0,0,0
7,79999,23,70000,72,20000,1,9999,0.100000,0,0,0.000000,4,1.000000,0.000000,7.934609,0,0,0,0,0,0,0
7,79999,24,70000,97,20000,1,9999,0.100000,0,0,0.000000,4,1.000000,0.000000,1.957415,0,0,0,0,0,0,0
7,79999,25,70000,72,20000,1,9999,0.100000,0,0,0.000000,4,1.000000,0.000000,15.290568,0,0,0,0,0,0,0
7,79999,26,70000,68,60000,0,9999,0.100000,0,0,0.000000,4,0.000000,0.000000,1.051409,0,0,0,0,0,0,0
7,79999,27,70000,73,20000,0,9999,0.100000,0,0,0.000000,4,0.000000,0.000000,0.490619,0,0,0,0,0,0,0
7,79999,28,70000,8,20000,0,9999,0.100000,0,0,0.000000,4,0.000000,0.000000,1.592511,0,0,0,0,0,0,0
7,79999,29,70000,72,20000,1,9999,0.100000,0,0,0.000000,4,3.000000,0.000000,13.789711,0,0,0,0,0,0,0
7,79999,30,70000,68,60000,0,9999,0.100000,0,0,0.000000,4,0.000000,0.000000,2.693218,0,0,0,0,0,0,0
7,79999,31,70000,72,20000,0,9999,0.100000,0,0,0.000000,4,0.000000,0.000000,12.102597,0,0,0,0,0,0,0
7,79999,32,70000,68,60000,0,9999,0.100000,0,0,0.000000,4,0.000000,0.000000,0.246662,0,0,0,0,0,0,0
7,79999,33,70000,73,20000,0,9999,0.100000,0,0,0.000000,4,0.000000,0.000000,0.944087,0,0,0,0,0,0,0
7,79999,34,70000,73,20000,0,9999,0.100000,0,0,0.000000,4,0.000000,0.000000,2.674941,0,0,0,0,0,0,0
7,79999,35,70000,73,20000,1,9999,0.100000,0,0,0.000000,4,3.000000,0.000000,7.709686,0,0,0,0,0,0,0
7,79999,36,70000,97,20000,1,9999,0.100000,0,0,0.000000,4,2.000000,0.000000,9.352317,0,0,0,0,0,0,0
7,79999,37,70000,73,20000,1,9999,0.100000,0,0,0.000000,4,2.000000,0.000000,11.478638,0,0,0,0,0,0,0
7,79999,38,70000,73,20000,1,9999,0.100000,0,0,0.000000,4,2.000000,0.000000,3.544517,0,0,0,0,0,1,0
7,79999,39,70000,97,20000,1,9999,0.100000,0,0,0.000000,4,3.000000,0.000000,16.977856,0,0,0,0,0,0,0
7,79999,40,70000,72,20000,0,9999,0.100000,0,0,0.000000,4,0.000000,0.000000,0.512348,0,0,0,0,0,0,0
7,79999,41,70000,72,20000,0,9999,0.100000,0,0,0.000000,4,0.000000,0.000000,0.110925,0,0,0,0,0,0,0
7,79999,42,70000,68,60000,0,9999,0.100000,0,0,0.000000,4,0.000000,0.000000,0.367374,0,0,0,0,0,0,0
7,79999,43,70000,97,20000,1,9999,0.100000,0,0,0.000000,4,1.000000,0.000000,13.765164,0,0,0,0,0,0,0
7,79999,44,70000,68,60000,0,9999,0.100000,0,0,0.000000,4,0.000000,0.000000,0.998877,0,0,0,0,0,0,0
7,79999,45,70000,97,20000,0,9999,0.100000,0,0,0.000000,4,0.000000,0.000000,0.743744,0,0,0,0,0,0,0
7,79999,46,70000,73,20000,0,9999,0.100000,0,0,0.000000,4,0.000000,0.000000,13.223558,0,0,0,0,0,0,0
7,79999,47,70000,72,20000,1,9999,0.100000,0,0,0.000000,4,4.000000,0.000000,13.514896,0,0,0,0,0,0,0
7,79999,48,70000,68,60000,0,9999,0.100000,0,0,0.000000,4,0.000000,0.000000,0.485761,0,0,0,0,0,0,0
7,79999,49,70000,72,20000,1,9999,0.100000,0,0,0.000000,4,1.000000,0.000000,1.782528,0,0,0,0,0,1,0
7,79999,50,70000,72,20000,0,9999,0.100000,0,0,0.000000,4,0.000000,0.000000,1.694722,0,0,0,0,0,0,0
7,79999,51,70000,68,60000,0,9999,0.100000,0,0,0.000000,4,0.000000,0.000000,1.722361,0,0,0,0,0,0,0
7,79999,52,70000,97,20000,0,9999,0.100000,0,0,0.000000,4,0.000000,0.000000,1.685950,0,0,0,0,0,0,0
7,79999,53,70000,73,20000,0,9999,0.100000,0,0,0.000000,4,0.000000,0.000000,0.718612,0,0,0,0,0,0,0
7,79999,54,70000,68,60000,0,9999,0.100000,0,0,0.000000,4,0.000000,0.000000,0.009597,0,0,0,0,0,0,0
7,79999,55,70000,73,20000,0,9999,0.100000,0,0,0.000000,4,0.000000,0.000000,0.185004,0,0,0,0,0,0,0
7,79999,56,70000,72,20000,0,9999,0.100000,0,0,0.000000,4,0.000000,0.000000,2.052900,0,0,0,0,0,0,0
7,79999,57,70000,97,20000,0,9999,0.100000,0,0,0.000000,4,0.000000,0.000000,0.468763,0,0,0,0,0,0,0
7,79999,58,70000,73,20000,0,9999,0.100000,0,0,0.000000,4,0.000000,0.000000,0.233089,0,0,0,0,0,0,0
7,79999,59,70000,68,60000,0,9999,0.100000,0,0,0.000000,4,0.000000,0.000000,1.141818,0,0,0,0,0,0,0
7,79999,60,70000,97,20000,0,9999,0.100000,0,0,0.000000,4,0.000000,0.000000,0.824992,0,0,0,0,0,0,0
7,79999,61,70000,73,20000,0,9999,0.100000,0,0,0.000000,4,0.000000,0.000000,0.542891,0,0,0,0,0,0,0
7,79999,62,70000,97,20000,1,9999,0.100000,0,0,0.000000,4,4.000000,0.000000,14.340465,0,0,0,0,0,0,0
7,79999,63,70000,72,20000,0,9999,0.100000,0,0,0.000000,4,0.000000,0.000000,0.518358,0,0,0,0,0,0,0
7,79999,64,70000,97,20000,1,9999,0.100000,0,0,0.000000,4,1.000000,0.000000,17.607175,0,0,0,0,0,0,0
7,79999,65,70000,68,60000,0,9999,0.100000,0,0,0.000000,4,0.000000,0.000000,0.948940,0,0,0,0,0,0,0
7,79999,66,70000,72,20000,0,9999,0.100000,0,0,0.000000,4,0.000000,0.000000,0.691813,0,0,0,0,0,0,0
7,79999,67,70000,97,20000,0,9999,0.100000,0,0,0.000000,4,0.000000,0.000000,1.233664,0,0,0,0,0,0,0
7,79999,68,70000,73,20000,0,9999,0.100000,0,0,0.000000,4,0.000000,0.000000,0.912056,0,0,0,0,0,0,0
7,79999,69,70000,97,20000,1,9999,0.100000,0,0,0.000000,4,4.000000,0.000000,7.476581,0,0,0,0,0,0,0
7,79999,70,70000,97,20000,0,9999,0.100000,0,0,0.000000,4,0.000000,0.000000,0.994362,0,0,0,0,0,0,0
7,79999,71,70000,73,20000,0,9999,0.100000,0,0,0.000000,4,0.000000,0.000000,1.426020,0,0,0,0,0,0,0
7,79999,72,70000,73,20000,1,9999,0.100000,0,0,0.000000,4,8.000000,0.000000,23.185415,0,0,0,0,0,0,0
7,79999,73,70000,68,60000,0,9999,0.100000,0,0,0.000000,4,0.000000,0.000000,9.280860,0,0,0,0,0,0,0
7,79999,74,70000,68,60000,1,9999,0.100000,0,0,0.000000,4,3.000000,0.000000,9.736568,0,0,0,0,0,0,0
7,79999,75,70000,97,20000,0,9999,0.100000,0,0,0.000000,4,0.000000,0.000000,0.746446,0,0,0,0,0,0,0
7,79999,76,70000,68,60000,0,9999,0.100000,0,0,0.000000,4,0.000000,0.000000,0.178806,0,0,0,0,0,0,0
7,79999,77,70000,72,20000,0,9999,0.100000,0,0,0.000000,4,0.000000,0.000000,2.165544,0,0,0,0,0,0,0
7,79999,78,70000,68,60000,0,9999,0.100000,0,0,0.000000,4,0.000000,0.000000,0.009022,0,0,0,0,0,0,0
7,79999,79,70000,73,20000,1,9999,0.100000,0,0,0.000000,4,2.000000,0.000000,16.790515,0,0,0,0,0,0,0
7,79999,80,70000,72,20000,0,9999,0.100000,0,0,0.000000,4,0.000000,0.000000,0.928838,0,0,0,0,0,0,0
7,79999,81,70000,97,20000,1,9999,0.100000,0,0,0.000000,4,4.000000,0.000000,13.540923,0,0,0,0,0,0,0
7,79999,82,70000,72,20000,1,9999,0.100000,0,0,0.000000,4,2.000000,0.000000,6.937469,0,0,0,0,0,0,0
7,79999,83,70000,97,20000,1,9999,0.100000,0,0,0.000000,4,1.000000,0.000000,8.563417,0,0,0,0,0,0,0
7,79999,84,70000,72,20000,0,9999,0.100000,0,0,0.000000,4,0.000000,0.000000,12.029322,0,0,0,0,0,0,0
7,79999,85,70000,72,20000,0,9999,0.100000,0,0,0.000000,4,0.000000,0.000000,0.623331,0,0,0,0,0,0,0
7,79999,86,70000,68,60000,0,9999,0.100000,0,0,0.000000,4,0.000000,0.000000,0.849154,0,0,0,0,0,0,0
7,79999,87,70000,68,60000,0,9999,0.100000,0,0,0.000000,4,0.000000,0.000000,0.520065,0,0,0,0,0,0,0
7,79999,88,70000,97,20000,1,9999,0.100000,0,0,0.000000,4,1.000000,0.000000,1.892467,0,0,0,0,0,1,0
7,79999,89,70000,73,20000,1,9999,0.100000,0,0,0.000000,4,1.000000,0.000000,13.035438,0,0,0,0,0,0,0
7,79999,90,70000,68,60000,1,9999,0.100000,0,0,0.000000,4,1.000000,0.000000,2.774910,0,0,0,0,0,0,0
7,79999,91,70000,72,20000,1,9999,0.100000,0,0,0.000000,4,3.000000,0.000000,12.625507,0,0,0,0,0,0,0
7,79999,92,70000,97,20000,0,9999,0.100000,0,0,0.000000,4,0.000000,0.000000,0.831669,0,0,0,0,0,0,0
7,79999,93,70000,97,20000,1,9999,0.100000,0,0,0.000000,4,1.000000,0.000000,5.692359,0,0,0,0,0,0,0
7,79999,94,70000,97,20000,1,9999,0.100000,0,0,0.000000,4,1.000000,0.000000,7.905466,0,0,0,0,0,0,0
7,79999,95,70000,68,60000,0,9999,0.100000,0,0,0.000000,4,0.000000,0.000000,1.195136,0,0,0,0,0,0,0
7,79999,96,70000,68,60000,0,9999,0.100000,0,0,0.000000,4,0.000000,0.000000,0.872941,0,0,0,0,0,0,0
7,79999,97,70000,72,20000,0,9999,0.100000,0,0,0.000000,4,0.000000,0.000000,0.578499,0,0,0,0,0,0,0
7,79999,98,70000,68,60000,0,9999,0.100000,0,0,0.000000,4,0.000000,0.000000,0.489316,0,0,0,0,0,0,0
7,79999,99,70000,97,20000,1,9999,0.100000,0,0,0.000000,4,3.000000,0.000000,13.715664,0,0,0,0,0,0,0
8,89999,0,80000,73,20000,0,9999,0.100000,0,0,0.000000,4,0.000000,0.000000,0.966620,0,0,0,0,0,0,0
8,89999,1,80000,73,20000,0,9999,0.100000,0,0,0.000000,4,0.000000,0.000000,1.066349,0,0,0,0,0,0,0
8,89999,2,80000,73,20000,0,9999,0.100000,0,0,0.000000,4,0.000000,0.000000,0.320146,0,0,0,0,0,0,0
8,89999,3,80000,73,20000,0,9999,0.100000,0,0,0.000000,4,0.000000,0.000000,0.009167,0,0,0,0,0,0,0
8,89999,4,80000,97,20000,0,9999,0.100000,0,0,0.000000,4,0.000000,0.000000,0.377112,0,0,0,0,0,0,0
8,89999,5,80000,68,60000,0,9999,0.100000,0,0,0.000000,4,0.000000,0.000000,5.449918,0,0,0,0,0,0,0
8,89999,6,80000,68,60000,0,9999,0.100000,0,0,0.000000,4,0.000000,0.000000,0.094406,0,0,0,0,0,0,0
8,89999,7,80000,72,20000,0,9999,0.100000,0,0,0.000000,4,0.000000,0.000000,0.209392,0,0,0,0,0,0,0
8,89999,8,80000,68,60000,1,9999,0.100000,0,0,0.000000,4,1.000000,0.000000,8.481756,0,0,0,0,0,0,0
8,89999,9,80000,72,20000,0,9999,0.100000,0,0,0.000000,4,0.000000,0.000000,0.811206,0,0,0,0,0,0,0
8,89999,10,80000,68,60000,1,9999,0.100000,0,0,0.000000,4,1.000000,0.000000,7.477706,0,0,0,0,0,0,0
8,89999,11,80000,68,60000,0,9999,0.100000,0,0,0.000000,4,0.000000,0.000000,1.007284,0,0,0,0,0,0,0
8,89999,12,80000,68,60000,0,9999,0.100000,0,0,0.000000,4,0.000000,0.000000,0.461930,0,0,0,0,0,0,0
8,89999,13,80000,73,20000,0,9999,0.100000,0,0,0.000000,4,0.000000,0.000000,1.002486,0,0,0,0,0,0,0
8,89999,14,80000,97,20000,0,9999,0.100000,0,0,0.000000,4,0.000000,0.000000,1.368903,0,0,0,0,0,0,0
8,89999,15,80000,68,60000,0,9999,0.100000,0,0,0.000000,4,0.000000,0.000000,1.496748,0,0,0,0,0,0,0
8,89999,16,80000,97,20000,0,9999,0.100000,0,0,0.000000,4,0.000000,0.000000,0.230396,0,0,0,0,0,0,0
8,89999,17,80000,73,20000,0,9999,0.100000,0,0,0.000000,4,0.000000,0.000000,0.907296,0,0,0,0,0,0,0
8,89999,18,80000,68,60000,1,9999,0.100000,0,0,0.000000,4,2.000000,0.000000,3.471541,0,0,0,0,0,0,0
8,89999,19,80000,68,60000,1,9999,0.100000,0,0,0.000000,4,1.000000,0.000000,3.697114,0,0,0,0,0,0,0
8,89999,20,80000,72,20000,0,9999,0.100000,0,0,0.000000,4,0.000000,0.000000,0.072853,0,0,0,0,0,0,0
8,89999,21,80000,68,60000,0,9999,0.100000,0,0,0.000000,4,0.000000,0.000000,0.138785,0,0,0,0,0,0,0
8,89999,22,80000,73,20000,0,9999,0.100000,0,0,0.000000,4,0.000000,0.000000,0.556871,0,0,0,0,0,0,0
8,89999,23,80000,72,20000,1,9999,0.100000,0,0,0.000000,4,2.000000,0.000000,8.783027,0,0,0,0,0,0,0
8,89999,24,80000,68,60000,0,9999,0.100000,0,0,0.000000,4,0.000000,0.000000,0.172184,0,0,0,0,0,0,0
8,89999,25,80000,97,20000,1,9999,0.100000,0,0,0.000000,4,2.000000,0.000000,17.730833,0,0,0,0,0,0,0
8,89999,26,80000,72,20000,0,9999,0.100000,0,0,0.000000,4,0.000000,0.000000,1.014561,0,0,0,0,0,0,0
8,89999,27,80000,68,60000,0,9999,0.100000,0,0,0.000000,4,0.000000,0.000000,0.500776,0,0,0,0,0,0,0
8,89999,28,80000,72,20000,0,9999,0.100000,0,0,0.000000,4,0.000000,0.000000,0.178029,0,0,0,0,0,0,0
8,89999,29,80000,68,60000,0,9999,0.100000,0,0,0.000000,4,0.000000,0.000000,9.978249,0,0,0,0,0,0,0
8,89999,30,80000,72,20000,0,9999,0.100000,0,0,0.000000,4,0.000000,0.000000,1.995318,0,0,0,0,0,0,0
8,89999,31,80000,97,20000,0,9999,0.100000,0,0,0.000000,4,0.000000,0.000000,6.438034,0,0,0,0,0,0,0
8,89999,32,80000,68,60000,0,9999,0.100000,0,0,0.000000,4,0.000000,0.000000,0.230591,0,0,0,0,0,0,0
8,89999,33,80000,68,60000,0,9999,0.100000,0,0,0.000000,4,0.000000,0.000000,0.913311,0,0,0,0,0,0,0
8,89999,34,80000,73,20000,0,9999,0.100000,0,0,0.000000,4,0.000000,0.000000,2.987123,0,0,0,0,0,0,0
8,89999,35,80000,72,20000,1,9999,0.100000,0,0,0.000000,4,1.000000,0.000000,7.861630,0,0,0,0,0,0,0
8,89999,36,80000,73,20000,0,9999,0.100000,0,0,0.000000,4,0.000000,0.000000,6.419214,0,0,0,0,0,0,0
8,89999,37,80000,97,20000,1,9999,0.100000,0,0,0.000000,4,2.000000,0.000000,9.607272,0,0,0,0,0,0,0
8,89999,38,80000,72,20000,0,9999,0.100000,0,0,0.000000,4,0.000000,0.000000,3.574203,0,0,0,0,0,0,0
8,89999,39,80000,72,20000,1,9999,0.100000,0,0,0.000000,4,3.000000,0.000000,9.801876,0,0,0,0,0,0,0
8,89999,40,80000,72,20000,0,9999,0.100000,0,0,0.000000,4,0.000000,0.000000,0.861085,0,0,0,0,0,0,0
8,89999,41,80000,72,20000,0,9999,0.100000,0,0,0.000000,4,0.000000,0.000000,0.114803,0,0,0,0,0,0,0
8,89999,42,80000,72,20000,0,9999,0.100000,0,0,0.000000,4,0.000000,0.000000,0.389035,0,0,0,0,0,0,0
8,89999,43,80000,72,20000,1,9999,0.100000,0,0,0.000000,4,2.000000,0.000000,14.773516,0,0,0,0,0,0,0
8,89999,44,80000,73,20000,0,9999,0.100000,0,0,0.000000,4,0.000000,0.000000,1.010314,0,0,0,0,0,0,0
8,89999,45,80000,97,20000,0,9999,0.100000,0,0,0.000000,4,0.000000,0.000000,0.902134,0,0,0,0,0,0,0
8,89999,46,80000,97,20000,1,9999,0.100000,0,0,0.000000,4,1.000000,0.000000,15.957651,0,0,0,0,0,0,0
8,89999,47,80000,72,20000,1,9999,0.100000,0,0,0.000000,4,6.000000,0.000000,17.507525,0,0,0,0,0,0,0
8,89999,48,80000,68,60000,0,9999,0.100000,0,0,0.000000,4,0.000000,0.000000,1.420120,0,0,0,0,0,0,0
8,89999,49,80000,72,20000,0,9999,0.100000,0,0,0.000000,4,0.000000,0.000000,0.339154,0,0,0,0,0,0,0
8,89999,50,80000,68,60000,0,9999,0.100000,0,0,0.000000,4,0.000000,0.000000,2.234712,0,0,0,0,0,0,0
8,89999,51,80000,68,60000,0,9999,0.100000,0,0,0.000000,4,0.000000,0.000000,2.237791,0,0,0,0,0,0,0
8,89999,52,80000,97,20000,0,9999,0.100000,0,0,0.000000,4,0.000000,0.000000,1.201644,0,0,0,0,0,0,0
8,89999,53,80000,97,20000,0,9999,0.100000,0,0,0.000000,4,0.000000,0.000000,0.773586,0,0,0,0,0,0,0
8,89999,54,80000,97,20000,0,9999,0.100000,0,0,0.000000,4,0.000000,0.000000,0.080759,0,0,0,0,0,0,0
8,89999,55,80000,73,20000,0,9999,0.100000,0,0,0.000000,4,0.000000,0.000000,0.219738,0,0,0,0,0,0,0
8,89999,56,80000,73,20000,0,9999,0.100000,0,0,0.000000,4,0.000000,0.000000,1.751467,0,0,0,0,0,0,0
8,89999,57,80000,72,20000,0,9999,0.100000,0,0,0.000000,4,0.000000,0.000000,0.427936,0,0,0,0,0,0,0
8,89999,58,80000,72,20000,0,9999,0.100000,0,0,0.000000,4,0.000000,0.000000,0.249194,0,0,0,0,0,0,0
8,89999,59,80000,97,20000,0,9999,0.100000,0,0,0.000000,4,0.000000,0.000000,1.108499,0,0,0,0,0,0,0
8,89999,60,80000,72,20000,0,9999,0.100000,0,0,0.000000,4,0.000000,0.000000,1.076694,0,0,0,0,0,0,0
8,89999,61,80000,97,20000,0,9999,0.100000,0,0,0.000000,4,0.000000,0.000000,0.542274,0,0,0,0,0,0,0
8,89999,62,80000,73,20000,0,9999,0.100000,0,0,0.000000,4,0.000000,0.000000,5.335620,0,0,0,0,0,0,0
8,89999,63,80000,97,20000,0,9999,0.100000,0,0,0.000000,4,0.000000,0.000000,0.854500,0,0,0,0,0,0,0
8,89999,64,80000,73,20000,1,9999,0.100000,0,0,0.000000,4,2.000000,0.000000,16.763767,0,0,0,0,0,0,0
8,89999,65,80000,73,20000,0,9999,0.100000,0,0,0.000000,4,0.000000,0.000000,0.938590,0,0,0,0,0,0,0
8,89999,66,80000,72,20000,0,9999,0.100000,0,0,0.000000,4,0.000000,0.000000,0.695959,0,0,0,0,0,0,0
8,89999,67,80000,97,20000,1,9999,0.100000,0,0,0.000000,4,1.000000,0.000000,1.558660,0,0,0,0,0,0,0
8,89999,68,80000,72,20000,1,9999,0.135000,0,0,0.000000,4,1.000000,0.000000,1.367368,0,0,0,0,0,0,0
8,89999,69,80000,68,60000,1,9999,0.100000,0,0,0.000000,4,6.000000,0.000000,10.293857,0,0,0,0,0,0,0
8,89999,70,80000,73,20000,0,9999,0.100000,0,0,0.000000,4,0.000000,0.000000,1.025473,0,0,0,0,0,0,0
8,89999,71,80000,97,20000,0,9999,0.100000,0,0,0.000000,4,0.000000,0.000000,0.945892,0,0,0,0,0,0,0
8,89999,72,80000,97,20000,0,9999,0.100000,0,0,0.000000,4,0.000000,0.000000,1.485541,0,0,0,0,0,0,0
8,89999,73,80000,73,20000,0,9999,0.100000,0,0,0.000000,4,0.000000,0.000000,7.890808,0,0,0,0,0,0,0
8,89999,74,80000,97,20000,1,9999,0.100000,0,0,0.000000,4,1.000000,0.000000,4.402908,0,0,0,0,0,0,0
8,89999,75,80000,68,60000,0,9999,0.100000,0,0,0.000000,4,0.000000,0.000000,0.732870,0,0,0,0,0,0,0
8,89999,76,80000,73,20000,0,9999,0.100000,0,0,0.000000,4,0.000000,0.000000,0.176710,0,0,0,0,0,0,0
8,89999,77,80000,97,20000,0,9999,0.100000,0,0,0.000000,4,0.000000,0.000000,1.496845,0,0,0,0,0,0,0
8,89999,78,80000,97,20000,0,9999,0.100000,0,0,0.000000,4,0.000000,0.000000,0.009161,0,0,0,0,0,0,0
8,89999,79,80000,73,20000,1,9999,0.100000,0,0,0.000000,4,2.000000,0.000000,16.523030,0,0,0,0,0,0,0
8,89999,80,80000,68,60000,0,9999,0.100000,0,0,0.000000,4,0.000000,0.000000,1.454442,0,0,0,0,0,0,0
8,89999,81,80000,68,60000,1,9999,0.100000,0,0,0.000000,4,6.000000,0.000000,17.510053,0,0,0,0,0,0,0
8,89999,82,80000,68,60000,1,9999,0.100000,0,0,0.000000,4,1.000000,0.000000,6.553784,0,0,0,0,0,0,0
8,89999,83,80000,73,20000,0,9999,0.100000,0,0,0.000000,4,0.000000,0.000000,2.541688,0,0,0,0,0,0,0
8,89999,84,80000,68,60000,0,9999,0.100000,0,0,0.000000,4,0.000000,0.000000,0.330973,0,0,0,0,0,0,0
8,89999,85,80000,73,20000,0,9999,0.100000,0,0,0.000000,4,0.000000,0.000000,0.610839,0,0,0,0,0,0,0
8,89999,86,80000,68,60000,0,9999,0.100000,0,0,0.000000,4,0.000000,0.000000,2.023962,0,0,0,0,0,0,0
8,89999,87,80000,97,20000,0,9999,0.100000,0,0,0.000000,4,0.000000,0.000000,0.534511,0,0,0,0,0,0,0
8,89999,88,80000,68,60000,0,9999,0.100000,0,0,0.000000,4,0.000000,0.000000,0.229132,0,0,0,0,0,0,0
8,89999,89,80000,97,20000,1,9999,0.100000,0,0,0.000000,4,1.000000,0.000000,17.303625,0,0,0,0,0,0,0
8,89999,90,80000,73,20000,0,9999,0.100000,0,0,0.000000,4,0.000000,0.000000,1.554153,0,0,0,0,0,0,0
8,89999,91,80000,97,20000,1,9999,0.100000,0,0,0.000000,4,1.000000,0.000000,11.517924,0,0,0,0,0,0,0
8,89999,92,80000,73,20000,0,9999,0.100000,0,0,0.000000,4,0.000000,0.000000,8.101633,0,0,0,0,0,0,0
8,89999,93,80000,68,60000,0,9999,0.100000,0,0,0.000000,4,0.000000,0.000000,7.620880,0,0,0,0,0,0,0
8,89999,94,80000,72,20000,0,9999,0.100000,0,0,0.000000,4,0.000000,0.000000,1.446517,0,0,0,0,0,0,0
8,89999,95,80000,68,60000,0,9999,0.100000,0,0,0.000000,4,0.000000,0.000000,1.070574,0,0,0,0,0,0,0
8,89999,96,80000,72,20000,0,9999,0.100000,0,0,0.000000,4,0.000000,0.000000,0.803092,0,0,0,0,0,0,0
8,89999,97,80000,73,20000,1,9999,0.100000,0,0,0.000000,4,1.000000,0.000000,1.114618,0,0,0,0,0,0,0
8,89999,98,80000,68,60000,0,9999,0.100000,0,0,0.000000,4,0.000000,0.000000,0.465574,0,0,0,0,0,0,0
8,89999,99,80000,68,60000,0,9999,0.100000,0,0,0.000000,4,0.000000,0.000000,5.878684,0,0,0,0,0,0,0
9,99999,0,90000,72,20000,0,9999,0.100000,0,0,0.000000,4,0.000000,0.000000,0.952983,0,0,0,0,0,0,0
9,99999,1,90000,73,20000,0,9999,0.100000,0,0,0.000000,4,0.000000,0.000000,0.220499,0,0,0,0,0,0,0
9,99999,2,90000,72,20000,0,9999,0.100000,0,0,0.000000,4,0.000000,0.000000,0.229160,0,0,0,0,0,0,0
9,99999,3,90000,73,20000,1,9999,0.100000,0,0,0.000000,4,1.000000,0.000000,1.646468,0,0,0,0,0,0,0
9,99999,4,90000,68,60000,0,9999,0.100000,0,0,0.000000,4,0.000000,0.000000,0.405238,0,0,0,0,0,0,0
9,99999,5,90000,68,60000,0,9999,0.100000,0,0,0.000000,4,0.000000,0.000000,4.896885,0,0,0,0,0,0,0
9,99999,6,90000,72,20000,0,9999,0.100000,0,0,0.000000,4,0.000000,0.000000,0.091245,0,0,0,0,0,0,0
9,99999,7,90000,68,60000,0,9999,0.100000,0,0,0.000000,4,0.000000,0.000000,0.147070,0,0,0,0,0,0,0
9,99999,8,90000,72,20000,1,9999,0.100000,0,0,0.000000,4,1.000000,0.000000,6.717814,0,0,0,0,0,0,0
9,99999,9,90000,68,60000,1,9999,0.100000,0,0,0.000000,4,1.000000,0.000000,1.065922,0,0,0,0,0,0,0
9,99999,10,90000,68,60000,0,9999,0.100000,0,0,0.000000,4,0.000000,0.000000,6.246490,0,0,0,0,0,0,0
9,99999,11,90000,72,20000,1,9999,0.100000,0,0,0.000000,4,1.000000,0.000000,3.276805,0,0,0,0,0,0,0
9,99999,12,90000,97,20000,0,9999,0.100000,0,0,0.000000,4,0.000000,0.000000,0.413548,0,0,0,0,0,0,0
9,99999,13,90000,73,20000,0,9999,0.100000,0,0,0.000000,4,0.000000,0.000000,1.005769,0,0,0,0,0,0,0
9,99999,14,90000,72,20000,0,9999,0.100000,0,0,0.000000,4,0.000000,0.000000,6.288701,0,0,0,0,0,0,0
9,99999,15,90000,97,20000,1,9999,0.100000,0,0,0.000000,4,3.000000,0.000000,6.152947,0,0,0,0,0,0,0
9,99999,16,90000,97,20000,0,9999,0.100000,0,0,0.000000,4,0.000000,0.000000,0.238573,0,0,0,0,0,0,0
9,99999,17,90000,73,20000,0,9999,0.100000,0,0,0.000000,4,0.000000,0.000000,0.896888,0,0,0,0,0,0,0
9,99999,18,90000,72,20000,1,9999,0.100000,0,0,0.000000,4,4.000000,0.000000,5.165382,0,0,0,0,0,0,0
9,99999,19,90000,68,60000,0,9999,0.100000,0,0,0.000000,4,0.000000,0.000000,4.259519,0,0,0,0,0,0,0
9,99999,20,90000,97,20000,0,9999,0.100000,0,0,0.000000,4,0.000000,0.000000,0.066475,0,0,0,0,0,0,0
9,99999,21,90000,72,20000,0,9999,0.100000,0,0,0.000000,4,0.000000,0.000000,0.138456,0,0,0,0,0,0,0
9,99999,22,90000,68,60000,1,9999,0.100000,0,0,0.000000,4,1.000000,0.000000,2.248679,0,0,0,0,0,0,0
9,99999,23,90000,68,60000,0,9999,0.100000,0,0,0.000000,4,0.000000,0.000000,5.946633,0,0,0,0,0,0,0
9,99999,24,90000,72,20000,1,9999,0.100000,0,0,0.000000,4,1.000000,0.000000,1.473626,0,0,0,0,0,0,0
9,99999,25,90000,68,60000,1,9999,0.100000,0,0,0.000000,4,4.000000,0.000000,20.590990,0,0,0,0,0,0,0
9,99999,26,90000,72,20000,1,9999,0.100000,0,0,0.000000,4,1.000000,0.000000,2.955331,0,0,0,0,0,0,0
9,99999,27,90000,68,60000,0,9999,0.100000,0,0,0.000000,4,0.000000,0.000000,0.518893,0,0,0,0,0,0,0
9,99999,28,90000,72,20000,0,9999,0.100000,0,0,0.000000,4,0.000000,0.000000,0.947136,0,0,0,0,0,0,0
9,99999,29,90000,72,20000,1,9999,0.100000,0,0,0.000000,4,1.000000,0.000000,8.198316,0,0,0,0,0,0,0
9,99999,30,90000,73,20000,0,9999,0.100000,0,0,0.000000,4,0.000000,0.000000,2.761481,0,0,0,0,0,0,0
9,99999,31,90000,68,60000,0,9999,0.100000,0,0,0.000000,4,0.000000,0.000000,1.770092,0,0,0,0,0,0,0
9,99999,32,90000,72,20000,0,9999,0.100000,0,0,0.000000,4,0.000000,0.000000,0.228667,0,0,0,0,0,0,0
9,99999,33,90000,97,20000,0,9999,0.100000,0,0,0.000000,4,0.000000,0.000000,1.990942,0,0,0,0,0,0,0
9,99999,34,90000,72,20000,0,9999,0.100000,0,0,0.000000,4,0.000000,0.000000,3.801194,0,0,0,0,0,0,0
9,99999,35,90000,68,60000,1,9999,0.100000,0,0,0.000000,4,1.000000,0.000000,5.274660,0,0,0,0,0,0,0
9,99999,36,90000,72,20000,1,9999,0.100000,0,0,0.000000,4,2.000000,0.000000,8.273817,0,0,0,0,0,0,0
9,99999,37,90000,73,20000,1,9999,0.100000,0,0,0.000000,4,3.000000,0.000000,11.039160,0,0,0,0,0,0,0
9,99999,38,90000,97,20000,1,9999,0.100000,0,0,0.000000,4,4.000000,0.000000,8.759371,0,0,0,0,0,0,0
9,99999,39,90000,97,20000,0,9999,0.100000,0,0,0.000000,4,0.000000,0.000000,3.405793,0,0,0,0,0,0,0
9,99999,40,90000,68,60000,0,9999,0.100000,0,0,0.000000,4,0.000000,0.000000,0.839246,0,0,0,0,0,0,0
9,99999,41,90000,97,20000,0,9999,0.100000,0,0,0.000000,4,0.000000,0.000000,0.123478,0,0,0,0,0,0,0
9,99999,42,90000,72,20000,0,9999,0.100000,0,0,0.000000,4,0.000000,0.000000,0.428443,0,0,0,0,0,0,0
9,99999,43,90000,72,20000,0,9999,0.100000,0,0,0.000000,4,0.000000,0.000000,2.389213,0,0,0,0,0,0,0
9,99999,44,90000,72,20000,1,9999,0.100000,0,0,0.000000,4,1.000000,0.000000,2.670613,0,0,0,0,0,0,0
9,99999,45,90000,72,20000,0,9999,0.100000,0,0,0.000000,4,0.000000,0.000000,0.510786,0,0,0,0,0,0,0
9,99999,46,90000,72,20000,1,9999,0.100000,0,0,0.000000,4,2.000000,0.000000,9.145869,0,0,0,0,0,0,0
9,99999,47,90000,72,20000,1,9999,0.100000,0,0,0.000000,4,3.000000,0.000000,13.372980,0,0,0,0,0,0,0
9,99999,48,90000,73,20000,1,9999,0.100000,0,0,0.000000,4,1.000000,0.000000,4.670488,0,0,0,0,0,0,0
9,99999,49,90000,97,20000,0,9999,0.100000,0,0,0.000000,4,0.000000,0.000000,0.251218,0,0,0,0,0,0,0
9,99999,50,90000,68,60000,0,9999,0.100000,0,0,0.000000,4,0.000000,0.000000,2.524372,0,0,0,0,0,0,0
9,99999,51,90000,72,20000,0,9999,0.100000,0,0,0.000000,4,0.000000,0.000000,2.481953,0,0,0,0,0,0,0
9,99999,52,90000,73,20000,0,9999,0.100000,0,0,0.000000,4,0.000000,0.000000,1.398563,0,0,0,0,0,0,0
9,99999,53,90000,97,20000,1,9999,0.100000,0,0,0.000000,4,1.000000,0.000000,1.070715,0,0,0,0,0,0,0
9,99999,54,90000,73,20000,0,9999,0.100000,0,0,0.000000,4,0.000000,0.000000,0.068796,0,0,0,0,0,0,0
9,99999,55,90000,68,60000,0,9999,0.100000,0,0,0.000000,4,0.000000,0.000000,0.277781,0,0,0,0,0,0,0
9,99999,56,90000,72,20000,0,9999,0.100000,0,0,0.000000,4,0.000000,0.000000,1.749460,0,0,0,0,0,0,0
9,99999,57,90000,97,20000,0,9999,0.100000,0,0,0.000000,4,0.000000,0.000000,0.425038,0,0,0,0,0,0,0
9,99999,58,90000,97,20000,0,9999,0.100000,0,0,0.000000,4,0.000000,0.000000,0.262312,0,0,0,0,0,0,0
9,99999,59,90000,73,20000,0,9999,0.100000,0,0,0.000000,4,0.000000,0.000000,1.046935,0,0,0,0,0,0,0
9,99999,60,90000,68,60000,1,9999,0.100000,0,0,0.000000,4,1.000000,0.000000,1.320228,0,0,0,0,0,0,0
9,99999,61,90000,68,60000,0,9999,0.100000,0,0,0.000000,4,0.000000,0.000000,0.568182,0,0,0,0,0,0,0
9,99999,62,90000,97,20000,1,9999,0.100000,0,0,0.000000,4,3.000000,0.000000,10.003540,0,0,0,0,0,0,0
9,99999,63,90000,72,20000,0,9999,0.100000,0,0,0.000000,4,0.000000,0.000000,0.841342,0,0,0,0,0,0,0
9,99999,64,90000,68,60000,1,9999,0.100000,0,0,0.000000,4,1.000000,0.000000,15.028341,0,0,0,0,0,0,0
9,99999,65,90000,73,20000,0,9999,0.100000,0,0,0.000000,4,0.000000,0.000000,0.951309,0,0,0,0,0,0,0
9,99999,66,90000,73,20000,0,9999,0.100000,0,0,0.000000,4,0.000000,0.000000,0.720487,0,0,0,0,0,0,0
9,99999,67,90000,73,20000,0,9999,0.100000,0,0,0.000000,4,0.000000,0.000000,1.449200,0,0,0,0,0,0,0
9,99999,68,90000,68,60000,0,9999,0.100000,0,0,0.000000,4,0.000000,0.000000,1.260819,0,0,0,0,0,0,0
9,99999,69,90000,97,20000,0,9999,0.100000,0,0,0.000000,4,0.000000,0.000000,3.461443,0,0,0,0,0,0,0
9,99999,70,90000,72,20000,0,9999,0.100000,0,0,0.000000,4,0.000000,0.000000,0.980464,0,0,0,0,0,0,0
9,99999,71,90000,72,20000,0,9999,0.100000,0,0,0.000000,4,0.000000,0.000000,1.122405,0,0,0,0,0,0,0
9,99999,72,90000,97,20000,0,9999,0.100000,0,0,0.000000,4,0.000000,0.000000,0.403970,0,0,0,0,0,0,0
9,99999,73,90000,73,20000,0,9999,0.100000,0,0,0.000000,4,0.000000,0.000000,11.185792,0,0,0,0,0,0,0
9,99999,74,90000,72,20000,1,9999,0.100000,0,0,0.000000,4,2.000000,0.000000,6.752703,0,0,0,0,0,0,0
9,99999,75,90000,72,20000,0,9999,0.100000,0,0,0.000000,4,0.000000,0.000000,0.720169,0,0,0,0,0,0,0
9,99999,76,90000,97,20000,0,9999,0.100000,0,0,0.000000,4,0.000000,0.000000,0.178517,0,0,0,0,0,0,0
9,99999,77,90000,68,60000,0,9999,0.100000,0,0,0.000000,4,0.000000,0.000000,1.515816,0,0,0,0,0,0,0
9,99999,78,90000,97,20000,0,9999,0.100000,0,0,0.000000,4,0.000000,0.000000,0.009016,0,0,0,0,0,0,0
9,99999,79,90000,68,60000,1,9999,0.100000,0,0,0.000000,4,1.000000,0.000000,17.045938,0,0,0,0,0,0,0
9,99999,80,90000,73,20000,0,9999,0.100000,0,0,0.000000,4,0.000000,0.000000,0.812658,0,0,0,0,0,0,0
9,99999,81,90000,68,60000,1,9999,0.100000,0,0,0.000000,4,3.000000,0.000000,13.368108,0,0,0,0,0,0,0
9,99999,82,90000,72,20000,1,9999,0.100000,0,0,0.000000,4,2.000000,0.000000,9.624840,0,0,0,0,0,0,0
9,99999,83,90000,68,60000,0,9999,0.100000,0,0,0.000000,4,0.000000,0.000000,5.962534,0,0,0,0,0,0,0
9,99999,84,90000,68,60000,0,9999,0.100000,0,0,0.000000,4,0.000000,0.000000,0.287031,0,0,0,0,0,0,0
9,99999,85,90000,68,60000,0,9999,0.100000,0,0,0.000000,4,0.000000,0.000000,0.639129,0,0,0,0,0,0,0
9,99999,86,90000,72,20000,0,9999,0.100000,0,0,0.000000,4,0.000000,0.000000,0.570192,0,0,0,0,0,0,0
9,99999,87,90000,72,20000,0,9999,0.100000,0,0,0.000000,4,0.000000,0.000000,0.622634,0,0,0,0,0,0,0
9,99999,88,90000,73,20000,0,9999,0.100000,0,0,0.000000,4,0.000000,0.000000,0.164736,0,0,0,0,0,0,0
9,99999,89,90000,73,20000,0,9999,0.100000,0,0,0.000000,4,0.000000,0.000000,6.777128,0,0,0,0,0,0,0
9,99999,90,90000,97,20000,1,9999,0.100000,0,0,0.000000,4,1.000000,0.000000,6.276086,0,0,0,0,0,0,0
9,99999,91,90000,68,60000,1,9999,0.100000,0,0,0.000000,4,1.000000,0.000000,10.902395,0,0,0,0,0,0,0
9,99999,92,90000,97,20000,0,9999,0.100000,0,0,0.000000,4,0.000000,0.000000,2.815792,0,0,0,0,0,0,0
9,99999,93,90000,73,20000,0,9999,0.100000,0,0,0.000000,4,0.000000,0.000000,5.986234,0,0,0,0,0,0,0
9,99999,94,90000,72,20000,1,9999,0.100000,0,0,0.000000,4,1.000000,0.000000,2.009364,0,0,0,0,0,0,0
9,99999,95,90000,72,20000,0,9999,0.100000,0,0,0.000000,4,0.000000,0.000000,0.785159,0,0,0,0,0,0,0
9,99999,96,90000,97,20000,1,9999,0.100000,0,0,0.000000,4,1.000000,0.000000,1.034109,0,0,0,0,0,0,0
9,99999,97,90000,73,20000,0,9999,0.100000,0,0,0.000000,4,0.000000,0.000000,0.694951,0,0,0,0,0,0,0
9,99999,98,90000,68,60000,0,9999,0.100000,0,0,0.000000,4,0.000000,0.000000,0.453538,0,0,0,0,0,0,0
9,99999,99,90000,97,20000,0,9999,0.100000,0,0,0.000000,4,0.000000,0.000000,2.015257,0,0,0,0,0,0,0
10,109999,0,100000,73,20000,1,9999,0.100000,0,0,0.000000,4,4.000000,0.000000,7.923216,0,0,0,0,0,0,0
10,109999,1,100000,73,20000,0,9999,0.100000,0,0,0.000000,4,0.000000,0.000000,0.225550,0,0,0,0,0,0,0
10,109999,2,100000,72,20000,0,9999,0.100000,0,0,0.000000,4,0.000000,0.000000,1.980805,0,0,0,0,0,0,0
10,109999,3,100000,97,20000,1,9999,0.100000,0,0,0.000000,4,1.000000,0.000000,16.360204,0,0,0,0,0,0,0
10,109999,4,100000,68,60000,0,9999,0.100000,0,0,0.000000,4,0.000000,0.000000,0.494761,0,0,0,0,0,0,0
10,109999,5,100000,72,20000,1,9999,0.100000,0,0,0.000000,4,1.000000,0.000000,6.852599,0,0,0,0,0,0,0
10,109999,6,100000,68,60000,0,9999,0.100000,0,0,0.000000,4,0.000000,0.000000,0.087009,0,0,0,0,0,0,0
10,109999,7,100000,73,20000,1,9999,0.100000,0,0,0.000000,4,1.000000,0.000000,2.008018,0,0,0,0,0,0,0
10,109999,8,100000,97,20000,0,9999,0.100000,0,0,0.000000,4,0.000000,0.000000,5.430059,0,0,0,0,0,0,0
10,109999,9,100000,68,60000,0,9999,0.100000,0,0,0.000000,4,0.000000,0.000000,0.934701,0,0,0,0,0,0,0
10,109999,10,100000,73,20000,0,9999,0.100000,0,0,0.000000,4,0.000000,0.000000,5.564483,0,0,0,0,0,0,0
10,109999,11,100000,72,20000,1,9999,0.100000,0,0,0.000000,4,3.000000,0.000000,6.122079,0,0,0,0,0,0,0
10,109999,12,100000,68,60000,0,9999,0.100000,0,0,0.000000,4,0.000000,0.000000,0.990830,0,0,0,0,0,0,0
10,109999,13,100000,68,60000,0,9999,0.100000,0,0,0.000000,4,0.000000,0.000000,0.948676,0,0,0,0,0,0,0
10,109999,14,100000,72,20000,1,9999,0.100000,0,0,0.000000,4,1.000000,0.000000,4.992258,0,0,0,0,0,0,0
10,109999,15,100000,68,60000,1,9999,0.100000,0,0,0.000000,4,1.000000,0.000000,3.064685,0,0,0,0,0,0,0
10,109999,16,100000,73,20000,0,9999,0.100000,0,0,0.000000,4,0.000000,0.000000,0.248377,0,0,0,0,0,0,0
10,109999,17,100000,73,20000,1,9999,0.100000,0,0,0.000000,4,1.000000,0.000000,12.997906,0,0,0,0,0,0,0
10,109999,18,100000,68,60000,1,9999,0.100000,0,0,0.000000,4,1.000000,0.000000,3.207434,0,0,0,0,0,0,0
10,109999,19,100000,97,20000,0,9999,0.135000,0,0,0.000000,4,0.000000,0.000000,2.678688,0,0,0,0,0,0,0
10,109999,20,100000,68,60000,0,9999,0.100000,0,0,0.000000,4,0.000000,0.000000,0.072106,0,0,0,0,0,0,0
10,109999,21,100000,72,20000,0,9999,0.100000,0,0,0.000000,4,0.000000,0.000000,0.144846,0,0,0,0,0,0,0
10,109999,22,100000,72,20000,0,9999,0.100000,0,0,0.000000,4,0.000000,0.000000,1.948652,0,0,0,0,0,0,0
10,109999,23,100000,73,20000,1,9999,0.100000,0,0,0.000000,4,8.000000,0.000000,15.794017,0,0,0,0,0,0,0
10,109999,24,100000,97,20000,1,9999,0.100000,0,0,0.000000,4,8.000000,0.000000,9.551251,0,0,0,0,0,0,0
10,109999,25,100000,72,20000,1,9999,0.100000,0,0,0.000000,4,4.000000,0.000000,10.012572,0,0,0,0,0,0,0
10,109999,26,100000,68,60000,1,9999,0.100000,0,0,0.000000,4,3.000000,0.000000,6.335938,0,0,0,0,0,0,0
10,109999,27,100000,73,20000,0,9999,0.100000,0,0,0.000000,4,0.000000,0.000000,0.588093,0,0,0,0,0,0,0
10,109999,28,100000,72,20000,1,9999,0.100000,0,0,0.000000,4,7.000000,0.000000,8.280516,0,0,0,0,0,0,0
10,109999,29,100000,72,20000,1,9999,0.100000,0,0,0.000000,4,2.000000,0.000000,13.357019,0,0,0,0,0,0,0
10,109999,30,100000,97,20000,0,9999,0.100000,0,0,0.000000,4,0.000000,0.000000,2.391246,0,0,0,0,0,0,0
10,109999,31,100000,97,20000,0,9999,0.100000,0,0,0.000000,4,0.000000,0.000000,0.364037,0,0,0,0,0,0,0
10,109999,32,100000,73,20000,0,9999,0.100000,0,0,0.000000,4,0.000000,0.000000,0.247406,0,0,0,0,0,0,0
10,109999,33,100000,97,20000,1,9999,0.100000,0,0,0.000000,4,1.000000,0.000000,15.592359,0,0,0,0,0,0,0
10,109999,34,100000,68,60000,0,9999,0.100000,0,0,0.000000,4,0.000000,0.000000,5.252213,0,0,0,0,0,0,0
10,109999,35,100000,72,20000,1,9999,0.100000,0,0,0.000000,4,1.000000,0.000000,5.169760,0,0,0,0,0,0,0
10,109999,36,100000,68,60000,1,9999,0.100000,0,0,0.000000,4,1.000000,0.000000,6.583642,0,0,0,0,0,0,0
10,109999,37,100000,73,20000,0,9999,0.100000,0,0,0.000000,4,0.000000,0.000000,0.859544,0,0,0,0,0,0,0
10,109999,38,100000,97,20000,0,9999,0.100000,0,0,0.000000,4,0.000000,0.000000,1.806965,0,0,0,0,0,0,0
10,109999,39,100000,72,20000,1,9999,0.100000,0,0,0.000000,4,7.000000,0.000000,8.772039,0,0,0,0,0,0,0
10,109999,40,100000,68,60000,0,9999,0.100000,0,0,0.000000,4,0.000000,0.000000,0.593114,0,0,0,0,0,0,0
10,109999,41,100000,72,20000,0,9999,0.100000,0,0,0.000000,4,0.000000,0.000000,0.120375,0,0,0,0,0,0,0
10,109999,42,100000,97,20000,0,9999,0.100000,0,0,0.000000,4,0.000000,0.000000,0.316897,0,0,0,0,0,0,0
10,109999,43,100000,97,20000,0,9999,0.100000,0,0,0.000000,4,0.000000,0.000000,0.154250,0,0,0,0,0,0,0
10,109999,44,100000,97,20000,1,9999,0.100000,0,0,0.000000,4,3.000000,0.000000,7.231931,0,0,0,0,0,0,0
10,109999,45,100000,72,20000,1,9999,0.100000,0,0,0.000000,4,1.000000,0.000000,5.768265,0,0,0,0,0,0,0
10,109999,46,100000,97,20000,1,9999,0.100000,0,0,0.000000,4,1.000000,0.000000,11.462140,0,0,0,0,0,0,0
10,109999,47,100000,73,20000,1,9999,0.100000,0,0,0.000000,4,1.000000,0.000000,5.120502,0,0,0,0,0,0,0
10,109999,48,100000,72,20000,1,9999,0.100000,0,0,0.000000,4,3.000000,0.000000,6.743482,0,0,0,0,0,0,0
10,109999,49,100000,72,20000,0,9999,0.100000,0,0,0.000000,4,0.000000,0.000000,2.037271,0,0,0,0,0,0,0
10,109999,50,100000,68,60000,1,9999,0.100000,0,0,0.000000,4,1.000000,0.000000,7.942453,0,0,0,0,0,0,0
10,109999,51,100000,97,20000,1,9999,0.100000,0,0,0.000000,4,4.000000,0.000000,8.186378,0,0,0,0,0,0,0
10,109999,52,100000,97,20000,0,9999,0.100000,0,0,0.000000,4,0.000000,0.000000,2.596722,0,0,0,0,0,0,0
10,109999,53,100000,72,20000,0,9999,0.100000,0,0,0.000000,4,0.000000,0.000000,0.905905,0,0,0,0,0,0,0
10,109999,54,100000,97,20000,0,9999,0.100000,0,0,0.000000,4,0.000000,0.000000,0.072320,0,0,0,0,0,0,0
10,109999,55,100000,73,20000,0,9999,0.100000,0,0,0.000000,4,0.000000,0.000000,0.246724,0,0,0,0,0,0,0
10,109999,56,100000,97,20000,0,9999,0.100000,0,0,0.000000,4,0.000000,0.000000,1.641904,0,0,0,0,0,0,0
10,109999,57,100000,72,20000,0,9999,0.100000,0,0,0.000000,4,0.000000,0.000000,0.402455,0,0,0,0,0,0,0
10,109999,58,100000,72,20000,0,9999,0.100000,0,0,0.000000,4,0.000000,0.000000,0.238551,0,0,0,0,0,0,0
10,109999,59,100000,73,20000,0,9999,0.100000,0,0,0.000000,4,0.000000,0.000000,0.977243,0,0,0,0,0,0,0
10,109999,60,100000,97,20000,0,9999,0.100000,0,0,0.000000,4,0.000000,0.000000,1.229582,0,0,0,0,0,0,0
10,109999,61,100000,97,20000,0,9999,0.100000,0,0,0.000000,4,0.000000,0.000000,0.584027,0,0,0,0,0,0,0
10,109999,62,100000,73,20000,1,9999,0.100000,0,0,0.000000,4,1.000000,0.000000,14.979860,0,0,0,0,0,0,0
10,109999,63,100000,72,20000,0,9999,0.100000,0,0,0.000000,4,0.000000,0.000000,0.633616,0,0,0,0,0,0,0
10,109999,64,100000,68,60000,0,9999,0.100000,0,0,0.000000,4,0.000000,0.000000,13.745476,0,0,0,0,0,0,0
10,109999,65,100000,72,20000,0,9999,0.100000,0,0,0.000000,4,0.000000,0.000000,0.951615,0,0,0,0,0,0,0
10,109999,66,100000,68,60000,0,9999,0.100000,0,0,0.000000,4,0.000000,0.000000,0.746007,0,0,0,0,0,0,0
10,109999,67,100000,97,20000,0,9999,0.100000,0,0,0.000000,4,0.000000,0.000000,0.873842,0,0,0,0,0,0,0
10,109999,68,100000,68,60000,0,9999,0.100000,0,0,0.000000,4,0.000000,0.000000,0.604785,0,0,0,0,0,0,0
10,109999,69,100000,73,20000,0,9999,0.100000,0,0,0.000000,4,0.000000,0.000000,2.614226,0,0,0,0,0,0,0
10,109999,70,100000,72,20000,0,9999,0.100000,0,0,0.000000,4,0.000000,0.000000,0.992053,0,0,0,0,0,0,0
10,109999,71,100000,73,20000,0,9999,0.100000,0,0,0.000000,4,0.000000,0.000000,2.157388,0,0,0,0,0,0,0
10,109999,72,100000,72,20000,1,9999,0.100000,0,0,0.000000,4,1.000000,0.000000,1.840293,0,0,0,0,0,0,0
10,109999,73,100000,73,20000,0,9999,0.100000,0,0,0.000000,4,0.000000,0.000000,7.843612,0,0,0,0,0,0,0
10,109999,74,100000,72,20000,0,9999,0.100000,0,0,0.000000,4,0.000000,0.000000,4.755729,0,0,0,0,0,0,0
10,109999,75,100000,72,20000,1,9999,0.100000,0,0,0.000000,4,4.000000,0.000000,7.825701,0,0,0,0,0,0,0
10,109999,76,100000,73,20000,0,9999,0.100000,0,0,0.000000,4,0.000000,0.000000,0.186864,0,0,0,0,0,0,0
10,109999,77,100000,68,60000,0,9999,0.100000,0,0,0.000000,4,0.000000,0.000000,1.369412,0,0,0,0,0,0,0
10,109999,78,100000,97,20000,1,9999,0.100000,0,0,0.000000,4,2.000000,0.000000,3.232660,0,0,0,0,0,0,0
10,109999,79,100000,73,20000,0,9999,0.100000,0,0,0.000000,4,0.000000,0.000000,15.124381,0,0,0,0,0,0,0
10,109999,80,100000,72,20000,1,9999,0.100000,0,0,0.000000,4,1.000000,0.000000,2.231726,0,0,0,0,0,0,0
10,109999,81,100000,73,20000,1,9999,0.100000,0,0,0.000000,4,2.000000,0.000000,12.199818,0,0,0,0,0,0,0
10,109999,82,100000,97,20000,1,9999,0.100000,0,0,0.000000,4,3.000000,0.000000,8.890266,0,0,0,0,0,0,0
10,109999,83,100000,97,20000,0,9999,0.100000,0,0,0.000000,4,0.000000,0.000000,5.651295,0,0,0,0,0,0,0
10,109999,84,100000,68,60000,0,9999,0.100000,0,0,0.000000,4,0.000000,0.000000,0.297905,0,0,0,0,0,0,0
10,109999,85,100000,73,20000,0,9999,0.100000,0,0,0.000000,4,0.000000,0.000000,0.721889,0,0,0,0,0,0,0
10,109999,86,100000,73,20000,1,9999,0.100000,0,0,0.000000,4,1.000000,0.000000,1.593743,0,0,0,0,0,0,0
10,109999,87,100000,97,20000,0,9999,0.100000,0,0,0.000000,4,0.000000,0.000000,0.732178,0,0,0,0,0,0,0
10,109999,88,100000,68,60000,1,9999,0.100000,0,0,0.000000,4,1.000000,0.000000,1.983947,0,0,0,0,0,0,0
10,109999,89,100000,73,20000,0,9999,0.100000,0,0,0.000000,4,0.000000,0.000000,0.193963,0,0,0,0,0,0,0
10,109999,90,100000,97,20000,1,9999,0.100000,0,0,0.000000,4,2.000000,0.000000,11.626038,0,0,0,0,0,0,0
10,109999,91,100000,97,20000,0,9999,0.100000,0,0,0.000000,4,0.000000,0.000000,3.230932,0,0,0,0,0,0,0
10,109999,92,100000,73,20000,0,9999,0.100000,0,0,0.000000,4,0.000000,0.000000,3.897750,0,0,0,0,0,0,0
10,109999,93,100000,68,60000,0,9999,0.100000,0,0,0.000000,4,0.000000,0.000000,6.442293,0,0,0,0,0,0,0
10,109999,94,100000,97,20000,1,9999,0.100000,0,0,0.000000,4,4.000000,0.000000,7.088539,0,0,0,0,0,0,0
10,109999,95,100000,97,20000,1,9999,0.100000,0,0,0.000000,4,1.000000,0.000000,3.544158,0,0,0,0,0,0,0
10,109999,96,100000,72,20000,0,9999,0.100000,0,0,0.000000,4,0.000000,0.000000,0.913133,0,0,0,0,0,0,0
10,109999,97,100000,97,20000,0,9999,0.100000,0,0,0.000000,4,0.000000,0.000000,0.110772,0,0,0,0,0,0,0
10,109999,98,100000,72,20000,0,9999,0.100000,0,0,0.000000,4,0.000000,0.000000,0.429803,0,0,0,0,0,0,0
10,109999,99,100000,97,20000,0,9999,0.100000,0,0,0.000000,4,0.000000,0.000000,0.415147,0,0,0,0,0,0,0
11,119999,0,110000,97,20000,1,9999,0.100000,0,0,0.000000,4,1.000000,0.000000,13.245339,0,0,0,0,0,0,0
11,119999,1,110000,73,20000,0,9999,0.100000,0,0,0.000000,4,0.000000,0.000000,0.226808,0,0,0,0,0,0,0
11,119999,2,110000,72,20000,1,9999,0.100000,0,0,34.210526,4,1.000000,0.000000,4.285527,0,0,0,0,0,1,0
11,119999,3,110000,73,20000,1,9999,0.100000,0,0,0.000000,4,3.000000,0.000000,21.054541,0,0,0,0,0,0,0
11,119999,4,110000,68,60000,0,9999,0.100000,0,0,0.000000,4,0.000000,0.000000,0.802811,0,0,0,0,0,0,0
11,119999,5,110000,97,20000,1,9999,0.100000,0,0,0.000000,4,1.000000,0.000000,4.697370,0,0,0,0,0,0,0
11,119999,6,110000,72,20000,0,9999,0.100000,0,0,0.000000,4,0.000000,0.000000,0.083688,0,0,0,0,0,0,0
11,119999,7,110000,97,20000,1,9999,0.100000,0,0,34.210526,4,1.000000,0.000000,7.797067,0,0,0,0,0,1,0
11,119999,8,110000,73,20000,0,9999,0.100000,0,0,0.000000,4,0.000000,0.000000,3.510762,0,0,0,0,0,0,0
11,119999,9,110000,73,20000,0,9999,0.100000,0,0,0.000000,4,0.000000,0.000000,0.482067,0,0,0,0,0,0,0
11,119999,10,110000,97,20000,0,9999,0.100000,0,0,0.000000,4,0.000000,0.000000,5.278575,0,0,0,0,0,0,0
11,119999,11,110000,73,20000,0,9999,0.100000,0,0,0.000000,4,0.000000,0.000000,3.183183,0,0,0,0,0,0,0
11,119999,12,110000,97,20000,1,9999,0.100000,0,0,0.000000,4,9.000000,0.000000,11.871597,0,0,0,0,0,0,0
11,119999,13,110000,68,60000,0,9999,0.100000,0,0,0.000000,4,0.000000,0.000000,0.954931,0,0,0,0,0,0,0
11,119999,14,110000,72,20000,1,9999,0.100000,0,0,0.000000,4,4.000000,0.000000,7.184340,0,0,0,0,0,0,0
11,119999,15,110000,68,60000,0,9999,0.100000,0,0,0.000000,4,0.000000,0.000000,2.607963,0,0,0,0,0,0,0
11,119999,16,110000,73,20000,0,9999,0.100000,0,0,0.000000,4,0.000000,0.000000,0.248845,0,0,0,0,0,0,0
11,119999,17,110000,97,20000,1,9999,0.100000,0,0,0.000000,4,1.000000,0.000000,12.201275,0,0,0,0,0,0,0
11,119999,18,110000,72,20000,0,9999,0.100000,0,0,0.000000,4,0.000000,0.000000,1.427482,0,0,0,0,0,0,0
11,119999,19,110000,68,60000,0,9999,0.100000,0,0,0.000000,4,0.000000,0.000000,4.175245,0,0,0,0,0,0,0
11,119999,20,110000,68,60000,0,9999,0.100000,0,0,0.000000,4,0.000000,0.000000,0.088973,0,0,0,0,0,0,0
11,119999,21,110000,73,20000,0,9999,0.100000,0,0,0.000000,4,0.000000,0.000000,0.139694,0,0,0,0,0,0,0
11,119999,22,110000,97,20000,0,9999,0.100000,0,0,0.000000,4,0.000000,0.000000,4.587570,0,0,0,0,0,0,0
11,119999,23,110000,97,20000,1,9999,0.100000,0,0,0.000000,4,5.000000,0.000000,14.681159,0,0,0,0,0,0,0
11,119999,24,110000,68,60000,1,9999,0.100000,0,0,34.210526,4,9.000000,0.000000,13.795994,0,0,0,0,1,0,0
11,119999,25,110000,73,20000,1,9999,0.100000,0,0,0.000000,4,1.000000,0.000000,12.502490,0,0,0,0,0,0,0
11,119999,26,110000,72,20000,0,9999,0.100000,0,0,0.000000,4,0.000000,0.000000,2.115475,0,0,0,0,0,0,0
11,119999,27,110000,97,20000,0,9999,0.100000,0,0,0.000000,4,0.000000,0.000000,0.661607,0,0,0,0,0,0,0
11,119999,28,110000,97,20000,1,9999,0.100000,0,0,34.210526,4,9.000000,0.000000,12.684985,0,0,0,0,1,0,0
11,119999,29,110000,97,20000,1,9999,0.100000,0,0,0.000000,4,1.000000,0.000000,7.367159,0,0,0,0,0,0,0
11,119999,30,110000,73,20000,1,9999,0.100000,0,0,0.000000,4,2.000000,0.000000,3.871709,0,0,0,0,1,0,0
11,119999,31,110000,73,20000,0,9999,0.100000,0,0,0.000000,4,0.000000,0.000000,0.373025,0,0,0,0,0,0,0
11,119999,32,110000,97,20000,0,9999,0.100000,0,0,0.000000,4,0.000000,0.000000,0.242245,0,0,0,0,0,0,0
11,119999,33,110000,97,20000,0,9999,0.100000,0,0,0.000000,4,0.000000,0.000000,15.330953,0,0,0,0,0,0,0
11,119999,34,110000,68,60000,0,9999,0.100000,0,0,0.000000,4,0.000000,0.000000,5.371718,0,0,0,0,0,0,0
11,119999,35,110000,68,60000,1,9999,0.135000,0,0,0.000000,4,1.000000,0.000000,5.769081,0,0,0,0,0,0,0
11,119999,36,110000,73,20000,0,9999,0.100000,0,0,0.000000,4,0.000000,0.000000,4.939955,0,0,0,0,0,0,0
11,119999,37,110000,73,20000,1,9999,0.100000,0,0,0.000000,4,1.000000,0.000000,7.213345,0,0,0,0,0,0,0
11,119999,38,110000,72,20000,1,9999,0.100000,0,0,0.000000,4,1.000000,0.000000,1.971337,0,0,0,0,0,0,0
11,119999,39,110000,68,60000,1,9999,0.100000,0,0,34.210526,4,9.000000,0.000000,13.243989,0,0,0,0,1,0,0
11,119999,40,110000,97,20000,1,9999,0.100000,0,0,0.000000,4,1.000000,0.000000,1.724362,0,0,0,0,0,0,0
11,119999,41,110000,68,60000,0,9999,0.100000,0,0,0.000000,4,0.000000,0.000000,0.117546,0,0,0,0,0,0,0
11,119999,42,110000,72,20000,0,9999,0.100000,0,0,0.000000,4,0.000000,0.000000,4.009749,0,0,0,0,0,0,0
11,119999,43,110000,97,20000,0,9999,0.100000,0,0,0.000000,4,0.000000,0.000000,0.156420,0,0,0,0,0,0,0
11,119999,44,110000,73,20000,0,9999,0.100000,0,0,0.000000,4,0.000000,0.000000,1.757780,0,0,0,0,0,0,0
11,119999,45,110000,73,20000,1,9999,0.100000,0,0,0.000000,4,2.000000,0.000000,3.060056,0,0,0,0,0,0,0
11,119999,46,110000,73,20000,1,9999,0.100000,0,0,0.000000,4,1.000000,0.000000,10.968414,0,0,0,0,0,0,0
11,119999,47,110000,72,20000,0,9999,0.100000,0,0,0.000000,4,0.000000,0.000000,0.526098,0,0,0,0,0,0,0
11,119999,48,110000,72,20000,0,9999,0.100000,0,0,0.000000,4,0.000000,0.000000,2.158683,0,0,0,0,0,0,0
11,119999,49,110000,68,60000,1,9999,0.100000,0,0,34.210526,4,1.000000,0.000000,4.246846,0,0,0,0,0,1,0
11,119999,50,110000,68,60000,1,9999,0.100000,0,0,0.000000,4,2.000000,0.000000,5.718071,0,0,0,0,0,0,0
11,119999,51,110000,68,60000,0,9999,0.100000,0,0,0.000000,4,0.000000,0.000000,0.135577,0,0,0,0,0,0,0
11,119999,52,110000,72,20000,0,9999,0.100000,0,0,0.000000,4,0.000000,0.000000,2.572588,0,0,0,0,0,0,0
11,119999,53,110000,97,20000,0,9999,0.100000,0,0,0.000000,4,0.000000,0.000000,0.454678,0,0,0,0,0,0,0
11,119999,54,110000,97,20000,0,9999,0.100000,0,0,0.000000,4,0.000000,0.000000,0.070447,0,0,0,0,0,0,0
11,119999,55,110000,73,20000,0,9999,0.100000,0,0,0.000000,4,0.000000,0.000000,1.515158,0,0,0,0,0,0,0
11,119999,56,110000,73,20000,1,9999,0.100000,0,0,0.000000,4,1.000000,0.000000,2.148080,0,0,0,0,0,0,0
11,119999,57,110000,68,60000,0,9999,0.100000,0,0,0.000000,4,0.000000,0.000000,0.411167,0,0,0,0,0,0,0
11,119999,58,110000,72,20000,0,9999,0.100000,0,0,0.000000,4,0.000000,0.000000,0.250077,0,0,0,0,0,0,0
11,119999,59,110000,97,20000,0,9999,0.100000,0,0,0.000000,4,0.000000,0.000000,0.679394,0,0,0,0,0,0,0
11,119999,60,110000,68,60000,0,9999,0.100000,0,0,0.000000,4,0.000000,0.000000,1.071451,0,0,0,0,0,0,0
11,119999,61,110000,72,20000,0,9999,0.100000,0,0,0.000000,4,0.000000,0.000000,2.188011,0,0,0,0,0,0,0
11,119999,62,110000,97,20000,1,9999,0.100000,0,0,0.000000,4,1.000000,0.000000,8.270369,0,0,0,0,0,0,0
11,119999,63,110000,68,60000,1,9999,0.100000,0,0,0.000000,4,1.000000,0.000000,1.429994,0,0,0,0,0,0,0
11,119999,64,110000,97,20000,1,9999,0.100000,0,0,0.000000,4,4.000000,0.000000,15.368836,0,0,0,0,0,0,0
11,119999,65,110000,97,20000,0,9999,0.100000,0,0,0.000000,4,0.000000,0.000000,0.930251,0,0,0,0,0,0,0
11,119999,66,110000,97,20000,0,9999,0.100000,0,0,0.000000,4,0.000000,0.000000,1.789199,0,0,0,0,0,0,0
11,119999,67,110000,73,20000,0,9999,0.100000,0,0,0.000000,4,0.000000,0.000000,1.096340,0,0,0,0,0,0,0
11,119999,68,110000,97,20000,0,9999,0.100000,0,0,0.000000,4,0.000000,0.000000,1.039428,0,0,0,0,0,0,0
11,119999,69,110000,97,20000,0,9999,0.100000,0,0,0.000000,4,0.000000,0.000000,2.227620,0,0,0,0,0,0,0
11,119999,70,110000,73,20000,0,9999,0.100000,0,0,0.000000,4,0.000000,0.000000,0.977833,0,0,0,0,0,0,0
11,119999,71,110000,72,20000,0,9999,0.100000,0,0,0.000000,4,0.000000,0.000000,3.250148,0,0,0,0,0,0,0
11,119999,72,110000,68,60000,1,9999,0.100000,0,0,0.000000,4,2.000000,0.000000,3.206023,0,0,0,0,0,0,0
11,119999,73,110000,72,20000,1,9999,0.100000,0,0,0.000000,4,3.000000,0.000000,12.115625,0,0,0,0,0,0,0
11,119999,74,110000,72,20000,1,9999,0.100000,0,0,0.000000,4,1.000000,0.000000,5.919261,0,0,0,0,0,0,0
11,119999,75,110000,73,20000,1,9999,0.100000,0,0,0.000000,4,1.000000,0.000000,13.633991,0,0,0,0,0,0,0
11,119999,76,110000,72,20000,0,9999,0.100000,0,0,0.000000,4,0.000000,0.000000,0.187760,0,0,0,0,0,0,0
11,119999,77,110000,97,20000,1,9999,0.100000,0,0,0.000000,4,1.000000,0.000000,1.959878,0,0,0,0,0,0,0
11,119999,78,110000,72,20000,1,9999,0.100000,0,0,0.000000,4,2.000000,0.000000,9.509991,0,0,0,0,0,0,0
11,119999,79,110000,68,60000,1,9999,0.100000,0,0,0.000000,4,1.000000,0.000000,15.767050,0,0,0,0,0,0,0
11,119999,80,110000,97,20000,1,9999,0.100000,0,0,0.000000,4,2.000000,0.000000,3.451529,0,0,0,0,0,0,0
11,119999,81,110000,68,60000,1,9999,0.100000,0,0,0.000000,4,2.000000,0.000000,9.015485,0,0,0,0,0,0,0
11,119999,82,110000,97,20000,1,9999,0.100000,0,0,0.000000,4,1.000000,0.000000,6.399402,0,0,0,0,0,0,0
11,119999,83,110000,97,20000,0,9999,0.100000,0,0,0.000000,4,0.000000,0.000000,5.494119,0,0,0,0,0,0,0
11,119999,84,110000,68,60000,0,9999,0.100000,0,0,0.000000,4,0.000000,0.000000,0.271277,0,0,0,0,0,0,0
11,119999,85,110000,68,60000,0,9999,0.100000,0,0,0.000000,4,0.000000,0.000000,0.844104,0,0,0,0,0,0,0
11,119999,86,110000,68,60000,1,9999,0.100000,0,0,0.000000,4,2.000000,0.000000,3.389461,0,0,0,0,0,0,0
11,119999,87,110000,97,20000,0,9999,0.100000,0,0,0.000000,4,0.000000,0.000000,0.894095,0,0,0,0,0,0,0
11,119999,88,110000,97,20000,1,9999,0.100000,0,0,34.210526,4,1.000000,0.000000,4.298304,0,0,0,0,0,1,0
11,119999,89,110000,72,20000,0,9999,0.100000,0,0,0.000000,4,0.000000,0.000000,0.197316,0,0,0,0,0,0,0
11,119999,90,110000,72,20000,1,9999,0.135000,0,0,0.000000,4,3.000000,0.000000,9.496998,0,0,0,0,0,0,0
11,119999,91,110000,72,20000,0,9999,0.100000,0,0,0.000000,4,0.000000,0.000000,0.538598,0,0,0,0,0,0,0
11,119999,92,110000,73,20000,0,9999,0.100000,0,0,0.000000,4,0.000000,0.000000,3.575704,0,0,0,0,0,0,0
11,119999,93,110000,72,20000,1,9999,0.100000,0,0,0.000000,4,1.000000,0.000000,7.806490,0,0,0,0,0,0,0
11,119999,94,110000,72,20000,0,9999,0.100000,0,0,0.000000,4,0.000000,0.000000,3.672486,0,0,0,0,0,0,0
11,119999,95,110000,72,20000,1,9999,0.100000,0,0,0.000000,4,2.000000,0.000000,3.608085,0,0,0,0,0,0,0
11,119999,96,110000,72,20000,0,9999,0.100000,0,0,0.000000,4,0.000000,0.000000,0.513594,0,0,0,0,0,0,0
11,119999,97,110000,73,20000,0,9999,0.100000,0,0,0.000000,4,0.000000,0.000000,0.111858,0,0,0,0,0,0,0
11,119999,98,110000,68,60000,0,9999,0.100000,0,0,0.000000,4,0.000000,0.000000,0.490734,0,0,0,0,0,0,0
11,119999,99,110000,72,20000,0,9999,0.100000,0,0,0.000000,4,0.000000,0.000000,0.417150,0,0,0,0,0,0,0
12,129999,0,120000,97,20000,1,9999,0.100000,0,0,0.000000,4,2.000000,0.000000,14.698820,0,0,0,0,0,0,0
12,129999,1,120000,68,60000,0,9999,0.100000,0,0,0.000000,4,0.000000,0.000000,0.227867,0,0,0,0,0,0,0
12,129999,2,120000,97,20000,1,9999,0.100000,0,0,0.000000,4,2.000000,0.000000,12.617909,0,0,0,0,0,0,0
12,129999,3,120000,68,60000,1,9999,0.100000,0,0,0.000000,4,1.000000,0.000000,16.051147,0,0,0,0,0,0,0
12,129999,4,120000,97,20000,0,9999,0.100000,0,0,0.000000,4,0.000000,0.000000,0.484636,0,0,0,0,0,0,0
12,129999,5,120000,73,20000,0,9999,0.100000,0,0,0.000000,4,0.000000,0.000000,4.288995,0,0,0,0,0,0,0
12,129999,6,120000,97,20000,0,9999,0.100000,0,0,0.000000,4,0.000000,0.000000,0.117524,0,0,0,0,0,0,0
12,129999,7,120000,73,20000,1,9999,0.100000,0,0,0.000000,4,3.000000,0.000000,9.542440,0,0,0,0,0,0,0
12,129999,8,120000,68,60000,0,9999,0.100000,0,0,0.000000,4,0.000000,0.000000,2.516425,0,0,0,0,0,0,0
12,129999,9,120000,72,20000,0,9999,0.100000,0,0,0.000000,4,0.000000,0.000000,0.376511,0,0,0,0,0,0,0
12,129999,10,120000,68,60000,0,9999,0.100000,0,0,0.000000,4,0.000000,0.000000,3.765750,0,0,0,0,0,0,0
12,129999,11,120000,73,20000,0,9999,0.100000,0,0,0.000000,4,0.000000,0.000000,3.703442,0,0,0,0,0,0,0
12,129999,12,120000,97,20000,0,9999,0.100000,0,0,0.000000,4,0.000000,0.000000,0.993118,0,0,0,0,0,0,0
12,129999,13,120000,68,60000,0,9999,0.100000,0,0,0.000000,4,0.000000,0.000000,2.846908,0,0,0,0,0,0,0
12,129999,14,120000,72,20000,0,9999,0.100000,0,0,0.000000,4,0.000000,0.000000,2.677067,0,0,0,0,0,0,0
12,129999,15,120000,68,60000,0,9999,0.100000,0,0,0.000000,4,0.000000,0.000000,2.517284,0,0,0,0,0,0,0
12,129999,16,120000,68,60000,0,9999,0.100000,0,0,0.000000,4,0.000000,0.000000,0.227344,0,0,0,0,0,0,0
12,129999,17,120000,97,20000,0,9999,0.100000,0,0,0.000000,4,0.000000,0.000000,3.290085,0,0,0,0,0,0,0
12,129999,18,120000,97,20000,0,9999,0.100000,0,0,0.000000,4,0.000000,0.000000,0.136651,0,0,0,0,0,0,0
12,129999,19,120000,68,60000,0,9999,0.100000,0,0,0.000000,4,0.000000,0.000000,2.494530,0,0,0,0,0,0,0
12,129999,20,120000,97,20000,0,9999,0.100000,0,0,0.000000,4,0.000000,0.000000,0.123949,0,0,0,0,0,0,0
12,129999,21,120000,68,60000,0,9999,0.100000,0,0,0.000000,4,0.000000,0.000000,0.139569,0,0,0,0,0,0,0
12,129999,22,120000,97,20000,0,9999,0.100000,0,0,0.000000,4,0.000000,0.000000,2.091325,0,0,0,0,0,0,0
12,129999,23,120000,97,20000,0,9999,0.100000,0,0,0.000000,4,0.000000,0.000000,0.442198,0,0,0,0,0,0,0
12,129999,24,120000,73,20000,1,9999,0.100000,0,0,0.000000,4,2.000000,0.000000,8.893801,0,0,0,0,0,0,0
12,129999,25,120000,73,20000,0,9999,0.100000,0,0,0.000000,4,0.000000,0.000000,13.034004,0,0,0,0,0,0,0
12,129999,26,120000,73,20000,0,9999,0.100000,0,0,0.000000,4,0.000000,0.000000,1.373114,0,0,0,0,0,0,0
12,129999,27,120000,97,20000,0,9999,0.100000,0,0,0.000000,4,0.000000,0.000000,0.563010,0,0,0,0,0,0,0
12,129999,28,120000,73,20000,0,9999,0.135000,0,0,0.000000,4,0.000000,0.000000,6.251172,0,0,0,0,0,0,0
