generation,iteration,robot,birthday,ancestor_id,ancestor_birthday,cell_id,age,sigma,maps,genomes,fitness,cells_in_map,dist_max,dist_pot_max,dist_total,com_rx,com_tx,obj_group1,obj_group2,obj_group3,obj_group4,obj_group5
0,9999,0,0,0,0,49,9999,0.100000,0,0,0.000000,0,9.000000,0.000000,10.292378,0,0,0,0,0,0,0
0,9999,1,0,1,0,49,9999,0.100000,0,0,0.000000,0,2.000000,0.000000,6.476896,0,0,0,0,0,0,0
0,9999,2,0,2,0,49,9999,0.100000,0,0,0.000000,0,8.000000,0.000000,11.065758,0,0,0,0,0,0,0
0,9999,3,0,3,0,49,9999,0.100000,0,0,0.000000,0,9.000000,0.000000,12.438224,0,0,0,0,0,0,0
0,9999,4,0,4,0,49,9999,0.100000,0,0,0.000000,0,6.000000,0.000000,10.988054,0,0,0,0,0,0,0
0,9999,5,0,5,0,49,9999,0.100000,0,0,0.000000,0,10.000000,0.000000,20.551518,0,0,0,0,0,0,0
0,9999,6,0,6,0,49,9999,0.100000,0,0,0.000000,0,7.000000,0.000000,9.198615,0,0,0,0,0,0,0
0,9999,7,0,7,0,49,9999,0.100000,0,0,0.000000,0,8.000000,0.000000,22.258480,0,0,0,0,0,0,0
0,9999,8,0,8,0,49,9999,0.100000,0,0,0.000000,0,2.000000,0.000000,4.516423,0,0,0,0,0,0,0
0,9999,9,0,9,0,49,9999,0.100000,0,0,0.000000,0,11.000000,0.000000,17.038239,0,0,0,0,0,0,0
0,9999,10,0,10,0,49,9999,0.100000,0,0,0.000000,0,9.000000,0.000000,16.588606,0,0,0,0,0,0,0
0,9999,11,0,11,0,49,9999,0.100000,0,0,0.000000,0,2.000000,0.000000,8.936641,0,0,0,0,0,0,0
0,9999,12,0,12,0,49,9999,0.100000,0,0,0.000000,0,8.000000,0.000000,13.257837,0,0,0,0,0,0,0
0,9999,13,0,13,0,49,9999,0.100000,0,0,0.000000,0,10.000000,0.000000,10.519916,0,0,0,0,0,0,0
0,9999,14,0,14,0,49,9999,0.100000,0,0,0.000000,0,10.000000,0.000000,14.306959,0,0,0,0,0,0,0
0,9999,15,0,15,0,49,9999,0.100000,0,0,0.000000,0,9.000000,0.000000,14.136830,0,0,0,0,0,0,0
0,9999,16,0,16,0,49,9999,0.100000,0,0,0.000000,0,8.000000,0.000000,15.695571,0,0,0,0,0,0,0
0,9999,17,0,17,0,99,9999,0.100000,0,0,47.368421,0,8.000000,0.000000,23.188375,0,0,1,0,0,0,0
0,9999,18,0,18,0,49,9999,0.100000,0,0,0.000000,0,7.000000,0.000000,13.175837,0,0,0,0,0,0,0
0,9999,19,0,19,0,49,9999,0.100000,0,0,0.000000,0,9.000000,0.000000,22.570038,0,0,0,0,0,0,0
0,9999,20,0,20,0,49,9999,0.100000,0,0,0.000000,0,10.000000,0.000000,17.433652,0,0,0,0,0,0,0
0,9999,21,0,21,0,49,9999,0.100000,0,0,0.000000,0,4.000000,0.000000,10.773434,0,0,0,0,0,0,0
0,9999,22,0,22,0,49,9999,0.100000,0,0,0.000000,0,11.000000,0.000000,12.160279,0,0,0,0,0,0,0
0,9999,23,0,23,0,49,9999,0.100000,0,0,0.000000,0,8.000000,0.000000,11.966383,0,0,0,0,0,0,0
0,9999,24,0,24,0,49,9999,0.100000,0,0,0.000000,0,8.000000,0.000000,14.365748,0,0,0,0,0,0,0
0,9999,25,0,25,0,49,9999,0.100000,0,0,0.000000,0,9.000000,0.000000,15.013423,0,0,0,0,0,0,0
0,9999,26,0,26,0,49,9999,0.100000,0,0,0.000000,0,7.000000,0.000000,10.232335,0,0,0,0,0,0,0
0,9999,27,0,27,0,49,9999,0.100000,0,0,0.000000,0,8.000000,0.000000,11.203758,0,0,0,0,0,0,0
0,9999,28,0,28,0,49,9999,0.100000,0,0,0.000000,0,9.000000,0.000000,30.272869,0,0,0,0,0,0,0
0,9999,29,0,29,0,49,9999,0.100000,0,0,0.000000,0,7.000000,0.000000,16.726056,0,0,0,0,0,0,0
0,9999,30,0,30,0,49,9999,0.100000,0,0,0.000000,0,5.000000,0.000000,7.099844,0,0,0,0,0,0,0
0,9999,31,0,31,0,49,9999,0.100000,0,0,0.000000,0,9.000000,0.000000,19.291229,0,0,0,0,0,0,0
0,9999,32,0,32,0,49,9999,0.100000,0,0,0.000000,0,13.000000,0.000000,24.115645,0,0,0,0,0,0,0
0,9999,33,0,33,0,49,9999,0.100000,0,0,0.000000,0,10.000000,0.000000,15.263258,0,0,0,0,0,0,0
0,9999,34,0,34,0,49,9999,0.100000,0,0,0.000000,0,9.000000,0.000000,15.597042,0,0,0,0,0,0,0
0,9999,35,0,35,0,49,9999,0.100000,0,0,0.000000,0,9.000000,0.000000,22.795919,0,0,0,0,0,0,0
0,9999,36,0,36,0,49,9999,0.100000,0,0,0.000000,0,6.000000,0.000000,10.845803,0,0,0,0,0,0,0
0,9999,37,0,37,0,49,9999,0.100000,0,0,0.000000,0,7.000000,0.000000,10.543031,0,0,0,0,0,0,0
0,9999,38,0,38,0,49,9999,0.100000,0,0,0.000000,0,9.000000,0.000000,13.488020,0,0,0,0,0,0,0
0,9999,39,0,39,0,49,9999,0.100000,0,0,0.000000,0,2.000000,0.000000,5.737098,0,0,0,0,0,0,0
0,9999,40,0,40,0,49,9999,0.100000,0,0,0.000000,0,10.000000,0.000000,26.442750,0,0,0,0,0,0,0
0,9999,41,0,41,0,49,9999,0.100000,0,0,0.000000,0,1.000000,0.000000,5.534585,0,0,0,0,0,0,0
0,9999,42,0,42,0,49,9999,0.100000,0,0,0.000000,0,13.000000,0.000000,27.435240,0,0,0,0,0,0,0
0,9999,43,0,43,0,49,9999,0.100000,0,0,0.000000,0,7.000000,0.000000,9.128840,0,0,0,0,0,0,0
0,9999,44,0,44,0,49,9999,0.100000,0,0,0.000000,0,12.000000,0.000000,21.855942,0,0,0,0,0,0,0
0,9999,45,0,45,0,49,9999,0.100000,0,0,0.000000,0,12.000000,0.000000,16.432357,0,0,0,0,0,0,0
0,9999,46,0,46,0,49,9999,0.100000,0,0,0.000000,0,8.000000,0.000000,20.262182,0,0,0,0,0,0,0
0,9999,47,0,47,0,49,9999,0.100000,0,0,0.000000,0,10.000000,0.000000,11.589715,0,0,0,0,0,0,0
0,9999,48,0,48,0,99,9999,0.100000,0,0,47.368421,0,11.000000,0.000000,22.703946,0,0,1,0,0,0,0
0,9999,49,0,49,0,49,9999,0.100000,0,0,0.000000,0,8.000000,0.000000,10.002410,0,0,0,0,0,0,0
0,9999,50,0,50,0,49,9999,0.100000,0,0,0.000000,0,7.000000,0.000000,10.625814,0,0,0,0,0,0,0
0,9999,51,0,51,0,49,9999,0.100000,0,0,0.000000,0,10.000000,0.000000,23.362754,0,0,0,0,0,0,0
0,9999,52,0,52,0,49,9999,0.100000,0,0,0.000000,0,11.000000,0.000000,13.918952,0,0,0,0,0,0,0
0,9999,53,0,53,0,49,9999,0.100000,0,0,0.000000,0,3.000000,0.000000,7.627248,0,0,0,0,0,0,0
0,9999,54,0,54,0,49,9999,0.100000,0,0,0.000000,0,7.000000,0.000000,9.881350,0,0,0,0,0,0,0
0,9999,55,0,55,0,49,9999,0.100000,0,0,0.000000,0,7.000000,0.000000,14.165895,0,0,0,0,0,0,0
0,9999,56,0,56,0,49,9999,0.100000,0,0,0.000000,0,8.000000,0.000000,17.566381,0,0,0,0,0,0,0
0,9999,57,0,57,0,49,9999,0.100000,0,0,0.000000,0,3.000000,0.000000,5.091958,0,0,0,0,0,0,0
0,9999,58,0,58,0,49,9999,0.100000,0,0,0.000000,0,8.000000,0.000000,24.825744,0,0,0,0,0,0,0
0,9999,59,0,59,0,49,9999,0.100000,0,0,0.000000,0,2.000000,0.000000,3.970115,0,0,0,0,0,0,0
0,9999,60,0,60,0,49,9999,0.100000,0,0,0.000000,0,8.000000,0.000000,22.782827,0,0,0,0,0,0,0
0,9999,61,0,61,0,49,9999,0.100000,0,0,0.000000,0,8.000000,0.000000,15.760115,0,0,0,0,0,0,0
0,9999,62,0,62,0,49,9999,0.100000,0,0,0.000000,0,7.000000,0.000000,7.884293,0,0,0,0,0,0,0
0,9999,63,0,63,0,49,9999,0.100000,0,0,0.000000,0,8.000000,0.000000,17.360855,0,0,0,0,0,0,0
0,9999,64,0,64,0,49,9999,0.100000,0,0,0.000000,0,8.000000,0.000000,13.651797,0,0,0,0,0,0,0
0,9999,65,0,65,0,49,9999,0.100000,0,0,0.000000,0,10.000000,0.000000,11.835864,0,0,0,0,0,0,0
0,9999,66,0,66,0,49,9999,0.100000,0,0,0.000000,0,7.000000,0.000000,11.035418,0,0,0,0,0,0,0
0,9999,67,0,67,0,49,9999,0.100000,0,0,0.000000,0,9.000000,0.000000,12.251032,0,0,0,0,0,0,0
0,9999,68,0,68,0,49,9999,0.100000,0,0,0.000000,0,13.000000,0.000000,26.505767,0,0,0,0,0,0,0
0,9999,69,0,69,0,49,9999,0.100000,0,0,0.000000,0,7.000000,0.000000,11.831054,0,0,0,0,0,0,0
0,9999,70,0,70,0,49,9999,0.100000,0,0,0.000000,0,3.000000,0.000000,15.500919,0,0,0,0,0,0,0
0,9999,71,0,71,0,49,9999,0.100000,0,0,0.000000,0,8.000000,0.000000,13.844395,0,0,0,0,0,0,0
0,9999,72,0,72,0,49,9999,0.100000,0,0,0.000000,0,6.000000,0.000000,26.298553,0,0,0,0,0,0,0
0,9999,73,0,73,0,49,9999,0.100000,0,0,0.000000,0,7.000000,0.000000,9.408328,0,0,0,0,0,0,0
0,9999,74,0,74,0,49,9999,0.100000,0,0,0.000000,0,6.000000,0.000000,11.716990,0,0,0,0,0,0,0
0,9999,75,0,75,0,49,9999,0.100000,0,0,0.000000,0,2.000000,0.000000,6.998194,0,0,0,0,0,0,0
0,9999,76,0,76,0,49,9999,0.100000,0,0,0.000000,0,7.000000,0.000000,11.493998,0,0,0,0,0,0,0
0,9999,77,0,77,0,49,9999,0.100000,0,0,0.000000,0,11.000000,0.000000,16.120381,0,0,0,0,0,0,0
0,9999,78,0,78,0,49,9999,0.100000,0,0,0.000000,0,7.000000,0.000000,16.153773,0,0,0,0,0,0,0
0,9999,79,0,79,0,49,9999,0.100000,0,0,0.000000,0,5.000000,0.000000,8.183343,0,0,0,0,0,0,0
0,9999,80,0,80,0,49,9999,0.100000,0,0,0.000000,0,6.000000,0.000000,7.626824,0,0,0,0,0,0,0
0,9999,81,0,81,0,49,9999,0.100000,0,0,0.000000,0,10.000000,0.000000,21.392990,0,0,0,0,0,0,0
0,9999,82,0,82,0,49,9999,0.100000,0,0,0.000000,0,9.000000,0.000000,22.403870,0,0,0,0,0,0,0
0,9999,83,0,83,0,49,9999,0.100000,0,0,0.000000,0,10.000000,0.000000,17.440618,0,0,0,0,0,0,0
0,9999,84,0,84,0,49,9999,0.100000,0,0,0.000000,0,5.000000,0.000000,8.647821,0,0,0,0,0,0,0
0,9999,85,0,85,0,49,9999,0.100000,0,0,0.000000,0,6.000000,0.000000,12.806068,0,0,0,0,0,0,0
0,9999,86,0,86,0,49,9999,0.100000,0,0,0.000000,0,7.000000,0.000000,10.286832,0,0,0,0,0,0,0
0,9999,87,0,87,0,49,9999,0.100000,0,0,0.000000,0,11.000000,0.000000,19.815484,0,0,0,0,0,0,0
0,9999,88,0,88,0,49,9999,0.100000,0,0,0.000000,0,7.000000,0.000000,7.660815,0,0,0,0,0,0,0
0,9999,89,0,89,0,49,9999,0.100000,0,0,0.000000,0,2.000000,0.000000,9.701803,0,0,0,0,0,0,0
0,9999,90,0,90,0,49,9999,0.100000,0,0,0.000000,0,6.000000,0.000000,8.698807,0,0,0,0,0,0,0
0,9999,91,0,91,0,99,9999,0.100000,0,0,47.368421,0,10.000000,0.000000,26.112181,0,0,1,0,0,0,0
0,9999,92,0,92,0,49,9999,0.100000,0,0,0.000000,0,11.000000,0.000000,16.631506,0,0,0,0,0,0,0
0,9999,93,0,93,0,49,9999,0.100000,0,0,0.000000,0,8.000000,0.000000,19.965364,0,0,0,0,0,0,0
0,9999,94,0,94,0,49,9999,0.100000,0,0,0.000000,0,10.000000,0.000000,11.050398,0,0,0,0,0,0,0
0,9999,95,0,95,0,49,9999,0.100000,0,0,0.000000,0,9.000000,0.000000,21.501789,0,0,0,0,0,0,0
0,9999,96,0,96,0,49,9999,0.100000,0,0,0.000000,0,9.000000,0.000000,13.943318,0,0,0,0,0,0,0
0,9999,97,0,97,0,49,9999,0.100000,0,0,0.000000,0,9.000000,0.000000,11.098662,0,0,0,0,0,0,0
0,9999,98,0,98,0,49,9999,0.100000,0,0,0.000000,0,6.000000,0.000000,14.289807,0,0,0,0,0,0,0
0,9999,99,0,99,0,49,9999,0.100000,0,0,0.000000,0,7.000000,0.000000,8.575292,0,0,0,0,0,0,0
1,19999,0,0,0,0,40,19999,0.100000,0,0,0.000000,2,0.000000,0.000000,0.669818,0,0,0,0,0,0,0
1,19999,1,10000,1,0,40,9999,0.100000,0,0,0.000000,2,0.000000,0.000000,0.258926,0,0,0,0,0,0,0
1,19999,2,10000,13,0,49,9999,0.100000,0,0,0.000000,2,3.000000,0.000000,14.020663,0,0,0,0,0,0,0
1,19999,3,10000,13,0,40,9999,0.100000,0,0,0.000000,2,0.000000,0.000000,0.605827,0,0,0,0,0,0,0
1,19999,4,10000,4,0,49,9999,0.100000,0,0,0.000000,1,3.000000,0.000000,6.105328,0,0,0,0,0,0,0
1,19999,5,10000,52,0,49,9999,0.100000,0,0,0.000000,3,1.000000,0.000000,2.795923,0,0,0,0,0,0,0
1,19999,6,10000,13,0,40,9999,0.100000,0,0,0.000000,2,0.000000,0.000000,0.267255,0,0,0,0,0,0,0
1,19999,7,10000,7,0,40,9999,0.100000,0,0,0.000000,1,0.000000,0.000000,12.828385,0,0,0,0,0,0,0
1,19999,8,10000,4,0,40,9999,0.100000,0,0,0.000000,2,0.000000,0.000000,2.472651,0,0,0,0,0,0,0
1,19999,9,10000,52,0,49,9999,0.100000,0,0,0.000000,3,2.000000,0.000000,8.034910,0,0,0,0,0,0,0
1,19999,10,10000,52,0,49,9999,0.100000,0,0,0.000000,3,1.000000,0.000000,10.181105,0,0,0,0,0,0,0
1,19999,11,10000,4,0,49,9999,0.100000,0,0,0.000000,2,1.000000,0.000000,5.495920,0,0,0,0,0,0,0
1,19999,12,10000,13,0,40,9999,0.100000,0,0,0.000000,2,0.000000,0.000000,0.718284,0,0,0,0,0,0,0
1,19999,13,10000,4,0,40,9999,0.100000,0,0,0.000000,2,0.000000,0.000000,0.466585,0,0,0,0,0,0,0
1,19999,14,10000,4,0,49,9999,0.100000,0,0,0.000000,2,2.000000,0.000000,9.627187,0,0,0,0,0,0,0
1,19999,15,0,15,0,40,19999,0.100000,0,0,0.000000,3,0.000000,0.000000,4.576693,0,0,0,0,0,0,0
1,19999,16,10000,4,0,40,9999,0.100000,0,0,0.000000,3,0.000000,0.000000,14.635866,0,0,0,0,0,0,0
1,19999,17,10000,4,0,49,9999,0.100000,0,0,0.000000,3,2.000000,0.000000,3.879365,0,0,0,0,0,0,0
1,19999,18,10000,4,0,49,9999,0.100000,0,0,0.000000,2,1.000000,0.000000,3.895958,0,0,0,0,0,0,0
1,19999,19,10000,4,0,49,9999,0.100000,0,0,0.000000,2,1.000000,0.000000,6.974225,0,0,0,0,0,0,0
1,19999,20,10000,48,0,40,9999,0.100000,0,0,0.000000,3,0.000000,0.000000,4.409421,0,0,0,0,0,0,0
1,19999,21,10000,4,0,40,9999,0.100000,0,0,0.000000,3,0.000000,0.000000,4.024339,0,0,0,0,0,0,0
1,19999,22,10000,48,0,40,9999,0.100000,0,0,0.000000,3,0.000000,0.000000,0.134046,0,0,0,0,0,0,0
1,19999,23,10000,4,0,40,9999,0.100000,0,0,0.000000,2,0.000000,0.000000,0.156972,0,0,0,0,0,0,0
1,19999,24,10000,52,0,40,9999,0.100000,0,0,0.000000,2,0.000000,0.000000,2.057845,0,0,0,0,0,0,0
1,19999,25,10000,13,0,40,9999,0.100000,0,0,0.000000,2,0.000000,0.000000,2.300213,0,0,0,0,0,0,0
1,19999,26,10000,52,0,40,9999,0.100000,0,0,0.000000,3,0.000000,0.000000,0.196058,0,0,0,0,0,0,0
1,19999,27,10000,4,0,49,9999,0.100000,0,0,0.000000,3,2.000000,0.000000,2.931383,0,0,0,0,0,0,0
1,19999,28,10000,48,0,40,9999,0.100000,0,0,0.000000,3,0.000000,0.000000,24.068456,0,0,0,0,0,0,0
1,19999,29,10000,13,0,40,9999,0.100000,0,0,0.000000,2,0.000000,0.000000,0.345861,0,0,0,0,0,0,0
1,19999,30,10000,48,0,40,9999,0.100000,0,0,0.000000,3,0.000000,0.000000,0.313383,0,0,0,0,0,0,0
1,19999,31,10000,52,0,40,9999,0.100000,0,0,0.000000,3,0.000000,0.000000,0.498527,0,0,0,0,0,0,0
1,19999,32,10000,48,0,49,9999,0.100000,0,0,0.000000,3,6.000000,0.000000,8.442625,0,0,0,0,0,0,0
1,19999,33,10000,52,0,40,9999,0.100000,0,0,0.000000,3,0.000000,0.000000,3.063284,0,0,0,0,0,0,0
1,19999,34,10000,52,0,40,9999,0.100000,0,0,0.000000,2,0.000000,0.000000,0.624198,0,0,0,0,0,0,0
1,19999,35,10000,4,0,40,9999,0.100000,0,0,0.000000,3,0.000000,0.000000,2.880129,0,0,0,0,0,0,0
1,19999,36,10000,52,0,49,9999,0.100000,0,0,0.000000,3,1.000000,0.000000,1.508688,0,0,0,0,0,0,0
1,19999,37,10000,4,0,40,9999,0.100000,0,0,0.000000,3,0.000000,0.000000,0.575366,0,0,0,0,0,0,0
1,19999,38,10000,13,0,40,9999,0.100000,0,0,0.000000,2,0.000000,0.000000,2.142944,0,0,0,0,0,0,0
1,19999,39,0,39,0,40,19999,0.100000,0,0,0.000000,2,0.000000,0.000000,1.238026,0,0,0,0,0,0,0
1,19999,40,0,40,0,40,19999,0.100000,0,0,0.000000,2,0.000000,0.000000,16.476824,0,0,0,0,0,0,0
1,19999,41,10000,4,0,49,9999,0.100000,0,0,0.000000,2,1.000000,0.000000,4.977329,0,0,0,0,0,0,0
1,19999,42,10000,4,0,49,9999,0.100000,0,0,0.000000,3,4.000000,0.000000,10.238134,0,0,0,0,0,0,0
1,19999,43,10000,52,0,40,9999,0.100000,0,0,0.000000,2,0.000000,0.000000,0.987458,0,0,0,0,0,0,0
1,19999,44,10000,52,0,49,9999,0.100000,0,0,0.000000,3,2.000000,0.000000,12.975958,0,0,0,0,0,0,0
1,19999,45,10000,4,0,40,9999,0.100000,0,0,0.000000,2,0.000000,0.000000,0.825727,0,0,0,0,0,0,0
1,19999,46,10000,52,0,49,9999,0.100000,0,0,0.000000,3,2.000000,0.000000,6.887735,0,0,0,0,0,0,0
1,19999,47,0,47,0,40,19999,0.100000,0,0,0.000000,2,0.000000,0.000000,0.972216,0,0,0,0,0,0,0
1,19999,48,0,48,0,49,19999,0.100000,0,0,0.000000,3,1.000000,0.000000,2.218299,0,0,0,0,0,0,0
1,19999,49,10000,4,0,49,9999,0.100000,0,0,0.000000,2,1.000000,0.000000,10.529049,0,0,0,0,0,0,0
1,19999,50,10000,4,0,40,9999,0.100000,0,0,0.000000,1,0.000000,0.000000,1.712655,0,0,0,0,0,0,0
1,19999,51,10000,4,0,99,9999,0.100000,0,0,34.210526,3,18.000000,0.000000,25.809866,0,0,1,0,0,0,0
1,19999,52,0,52,0,49,19999,0.100000,0,0,0.000000,2,5.000000,0.000000,6.244310,0,0,0,0,0,0,0
1,19999,53,10000,4,0,40,9999,0.100000,0,0,0.000000,2,0.000000,0.000000,0.463685,0,0,0,0,0,0,0
1,19999,54,10000,48,0,40,9999,0.100000,0,0,0.000000,3,0.000000,0.000000,0.436312,0,0,0,0,0,0,0
1,19999,55,10000,48,0,40,9999,0.100000,0,0,0.000000,3,0.000000,0.000000,0.458065,0,0,0,0,0,0,0
1,19999,56,10000,48,0,49,9999,0.100000,0,0,0.000000,3,3.000000,0.000000,7.476886,0,0,0,0,0,0,0
1,19999,57,10000,52,0,49,9999,0.100000,0,0,0.000000,3,1.000000,0.000000,4.075470,0,0,0,0,0,0,0
1,19999,58,10000,4,0,49,9999,0.100000,0,0,0.000000,3,1.000000,0.000000,9.981143,0,0,0,0,0,0,0
1,19999,59,10000,1,0,40,9999,0.100000,0,0,0.000000,2,0.000000,0.000000,0.574635,0,0,0,0,0,0,0
1,19999,60,10000,52,0,49,9999,0.100000,0,0,0.000000,3,3.000000,0.000000,13.849134,0,0,0,0,0,0,0
1,19999,61,10000,4,0,49,9999,0.100000,0,0,0.000000,2,1.000000,0.000000,7.597874,0,0,0,0,0,0,0
1,19999,62,10000,52,0,40,9999,0.100000,0,0,0.000000,3,0.000000,0.000000,0.178173,0,0,0,0,0,0,0
1,19999,63,10000,4,0,40,9999,0.100000,0,0,0.000000,2,0.000000,0.000000,3.236591,0,0,0,0,0,0,0
1,19999,64,10000,48,0,40,9999,0.100000,0,0,0.000000,3,0.000000,0.000000,0.788668,0,0,0,0,0,0,0
1,19999,65,0,65,0,40,19999,0.100000,0,0,0.000000,1,0.000000,0.000000,2.411218,0,0,0,0,0,0,0
1,19999,66,10000,52,0,40,9999,0.100000,0,0,0.000000,3,0.000000,0.000000,0.670660,0,0,0,0,0,0,0
1,19999,67,10000,52,0,40,9999,0.100000,0,0,0.000000,3,0.000000,0.000000,1.227665,0,0,0,0,0,0,0
1,19999,68,0,68,0,49,19999,0.100000,0,0,0.000000,3,1.000000,0.000000,10.548331,0,0,0,0,0,0,0
1,19999,69,10000,4,0,40,9999,0.100000,0,0,0.000000,2,0.000000,0.000000,0.578541,0,0,0,0,0,0,0
1,19999,70,10000,4,0,49,9999,0.100000,0,0,0.000000,2,1.000000,0.000000,8.619171,0,0,0,0,0,0,0
1,19999,71,10000,52,0,49,9999,0.100000,0,0,0.000000,3,2.000000,0.000000,3.423645,0,0,0,0,0,0,0
1,19999,72,10000,4,0,40,9999,0.100000,0,0,0.000000,3,0.000000,0.000000,0.137931,0,0,0,0,0,0,0
1,19999,73,10000,52,0,40,9999,0.100000,0,0,0.000000,3,0.000000,0.000000,0.572271,0,0,0,0,0,0,0
1,19999,74,10000,4,0,49,9999,0.100000,0,0,0.000000,2,1.000000,0.000000,8.524511,0,0,0,0,0,0,0
1,19999,75,10000,4,0,40,9999,0.100000,0,0,0.000000,3,0.000000,0.000000,2.058887,0,0,0,0,0,0,0
1,19999,76,10000,48,0,40,9999,0.100000,0,0,0.000000,3,0.000000,0.000000,9.703257,0,0,0,0,0,0,0
1,19999,77,10000,52,0,40,9999,0.100000,0,0,0.000000,2,0.000000,0.000000,0.982262,0,0,0,0,0,0,0
1,19999,78,10000,4,0,49,9999,0.100000,0,0,0.000000,2,2.000000,0.000000,8.088738,0,0,0,0,0,0,0
1,19999,79,10000,4,0,49,9999,0.100000,0,0,0.000000,2,2.000000,0.000000,10.944572,0,0,0,0,0,0,0
1,19999,80,10000,52,0,40,9999,0.100000,0,0,0.000000,3,0.000000,0.000000,4.327911,0,0,0,0,0,0,0
1,19999,81,10000,4,0,40,9999,0.100000,0,0,0.000000,3,0.000000,0.000000,0.235083,0,0,0,0,0,0,0
1,19999,82,10000,13,0,49,9999,0.100000,0,0,0.000000,2,5.000000,0.000000,6.654803,0,0,0,0,0,0,0
1,19999,83,10000,4,0,49,9999,0.100000,0,0,0.000000,2,4.000000,0.000000,11.270103,0,0,0,0,0,0,0
1,19999,84,10000,4,0,49,9999,0.100000,0,0,0.000000,2,3.000000,0.000000,14.079083,0,0,0,0,0,0,0
1,19999,85,10000,4,0,49,9999,0.100000,0,0,0.000000,3,1.000000,0.000000,5.038057,0,0,0,0,0,0,0
1,19999,86,10000,48,0,49,9999,0.100000,0,0,0.000000,3,1.000000,0.000000,3.356103,0,0,0,0,0,0,0
1,19999,87,10000,13,0,49,9999,0.100000,0,0,0.000000,2,8.000000,0.000000,18.001533,0,0,0,0,0,0,0
1,19999,88,10000,52,0,49,9999,0.100000,0,0,0.000000,2,1.000000,0.000000,1.484819,0,0,0,0,0,0,0
1,19999,89,10000,52,0,49,9999,0.100000,0,0,0.000000,3,2.000000,0.000000,4.057613,0,0,0,0,0,0,0
1,19999,90,10000,4,0,40,9999,0.100000,0,0,0.000000,2,0.000000,0.000000,0.888331,0,0,0,0,0,0,0
1,19999,91,10000,52,0,49,9999,0.100000,0,0,0.000000,3,1.000000,0.000000,10.162818,0,0,0,0,0,0,0
1,19999,92,10000,52,0,49,9999,0.100000,0,0,0.000000,3,1.000000,0.000000,6.875583,0,0,0,0,0,0,0
1,19999,93,10000,13,0,49,9999,0.100000,0,0,0.000000,2,6.000000,0.000000,18.658190,0,0,0,0,0,0,0
1,19999,94,10000,4,0,40,9999,0.100000,0,0,0.000000,2,0.000000,0.000000,1.332726,0,0,0,0,0,0,0
1,19999,95,10000,4,0,49,9999,0.100000,0,0,0.000000,3,1.000000,0.000000,2.829907,0,0,0,0,0,0,0
1,19999,96,10000,13,0,49,9999,0.100000,0,0,0.000000,2,1.000000,0.000000,9.923102,0,0,0,0,0,0,0
1,19999,97,10000,48,0,40,9999,0.100000,0,0,0.000000,3,0.000000,0.000000,0.078525,0,0,0,0,0,0,0
1,19999,98,10000,52,0,49,9999,0.100000,0,0,0.000000,3,3.000000,0.000000,11.337056,0,0,0,0,0,0,0
1,19999,99,10000,48,0,40,9999,0.100000,0,0,0.000000,3,0.000000,0.000000,1.038438,0,0,0,0,0,0,0
2,29999,0,20000,48,0,49,9999,0.100000,0,0,0.000000,4,1.000000,0.000000,2.781556,0,0,0,0,0,0,0
2,29999,1,20000,94,10000,40,9999,0.100000,0,0,0.000000,5,0.000000,0.000000,3.487626,0,0,0,0,0,0,0
2,29999,2,20000,4,0,49,9999,0.100000,0,0,0.000000,5,1.000000,0.000000,6.554222,0,0,0,0,0,0,0
2,29999,3,20000,52,0,40,9999,0.100000,0,0,0.000000,5,0.000000,0.000000,0.200579,0,0,0,0,0,0,0
2,29999,4,20000,38,10000,49,9999,0.100000,0,0,0.000000,5,1.000000,0.000000,2.160611,0,0,0,0,0,0,0
2,29999,5,20000,4,0,40,9999,0.100000,0,0,0.000000,5,0.000000,0.000000,0.574833,0,0,0,0,0,0,0
2,29999,6,20000,13,10000,40,9999,0.100000,0,0,0.000000,5,0.000000,0.000000,0.106742,0,0,0,0,0,0,0
2,29999,7,20000,38,10000,49,9999,0.100000,0,0,0.000000,5,3.000000,0.000000,12.108275,0,0,0,0,0,0,0
2,29999,8,20000,38,10000,9,9999,0.100000,0,0,34.210526,5,8.000000,0.000000,23.339648,0,0,0,1,0,0,0
2,29999,9,20000,38,10000,40,9999,0.100000,0,0,0.000000,5,0.000000,0.000000,1.141940,0,0,0,0,0,0,0
2,29999,10,20000,48,0,49,9999,0.100000,0,0,0.000000,6,1.000000,0.000000,4.900738,0,0,0,0,0,0,0
2,29999,11,20000,38,10000,9,9999,0.100000,0,0,34.210526,5,8.000000,0.000000,19.750145,0,0,0,1,0,0,0
2,29999,12,20000,38,10000,40,9999,0.100000,0,0,0.000000,5,0.000000,0.000000,0.281224,0,0,0,0,0,0,0
2,29999,13,20000,38,10000,40,9999,0.100000,0,0,0.000000,5,0.000000,0.000000,0.428564,0,0,0,0,0,0,0
2,29999,14,20000,4,0,40,9999,0.100000,0,0,0.000000,3,0.000000,0.000000,2.078907,0,0,0,0,0,0,0
2,29999,15,20000,38,10000,40,9999,0.100000,0,0,0.000000,5,0.000000,0.000000,2.848738,0,0,0,0,0,0,0
2,29999,16,20000,4,0,40,9999,0.100000,0,0,0.000000,5,0.000000,0.000000,0.736887,0,0,0,0,0,0,0
2,29999,17,20000,94,10000,40,9999,0.100000,0,0,0.000000,5,0.000000,0.000000,0.199105,0,0,0,0,0,0,0
2,29999,18,20000,4,0,0,9999,0.100000,0,0,0.000000,5,0.000000,0.000000,2.063958,0,0,0,1,0,0,0
2,29999,19,20000,38,10000,49,9999,0.100000,0,0,0.000000,5,1.000000,0.000000,4.562856,0,0,0,0,0,0,0
2,29999,20,20000,38,10000,49,9999,0.065000,0,0,0.000000,5,7.000000,0.000000,14.836758,0,0,0,0,0,0,0
2,29999,21,20000,48,0,49,9999,0.100000,0,0,0.000000,5,1.000000,0.000000,7.161682,0,0,0,0,0,0,0
2,29999,22,20000,48,0,40,9999,0.100000,0,0,0.000000,5,0.000000,0.000000,0.338491,0,0,0,0,0,0,0
2,29999,23,20000,52,0,40,9999,0.100000,0,0,0.000000,5,0.000000,0.000000,0.165514,0,0,0,0,0,0,0
2,29999,24,20000,52,0,40,9999,0.100000,0,0,0.000000,5,0.000000,0.000000,2.838850,0,0,0,0,0,0,0
2,29999,25,20000,48,0,40,9999,0.100000,0,0,0.000000,5,0.000000,0.000000,0.401228,0,0,0,0,0,0,0
2,29999,26,20000,52,0,40,9999,0.100000,0,0,0.000000,5,0.000000,0.000000,0.200488,0,0,0,0,0,0,0
2,29999,27,20000,16,10000,49,9999,0.100000,0,0,0.000000,5,2.000000,0.000000,3.125763,0,0,0,0,0,0,0
2,29999,28,20000,4,0,40,9999,0.100000,0,0,0.000000,5,0.000000,0.000000,15.411702,0,0,0,0,0,0,0
2,29999,29,20000,48,0,40,9999,0.100000,0,0,0.000000,5,0.000000,0.000000,0.178687,0,0,0,0,0,0,0
2,29999,30,20000,52,0,40,9999,0.100000,0,0,0.000000,5,0.000000,0.000000,0.337097,0,0,0,0,0,0,0
2,29999,31,20000,52,0,40,9999,0.100000,0,0,0.000000,6,0.000000,0.000000,0.503910,0,0,0,0,0,0,0
2,29999,32,20000,48,0,49,9999,0.100000,0,0,0.000000,5,1.000000,0.000000,5.880890,0,0,0,0,0,0,0
2,29999,33,20000,38,10000,40,9999,0.100000,0,0,0.000000,5,0.000000,0.000000,1.205014,0,0,0,0,0,0,0
2,29999,34,20000,38,10000,40,9999,0.100000,0,0,0.000000,5,0.000000,0.000000,0.733112,0,0,0,0,0,0,0
2,29999,35,20000,52,0,40,9999,0.100000,0,0,0.000000,5,0.000000,0.000000,2.150731,0,0,0,0,0,0,0
2,29999,36,20000,38,10000,40,9999,0.100000,0,0,0.000000,5,0.000000,0.000000,0.176320,0,0,0,0,0,0,0
2,29999,37,20000,38,10000,40,9999,0.100000,0,0,0.000000,5,0.000000,0.000000,0.439194,0,0,0,0,0,0,0
2,29999,38,20000,0,0,40,9999,0.100000,0,0,0.000000,5,0.000000,0.000000,1.946152,0,0,0,0,0,0,0
2,29999,39,20000,48,0,40,9999,0.100000,0,0,0.000000,5,0.000000,0.000000,0.396842,0,0,0,0,0,0,0
2,29999,40,20000,48,0,49,9999,0.100000,0,0,0.000000,5,1.000000,0.000000,4.768801,0,0,0,0,0,0,0
2,29999,41,20000,94,10000,40,9999,0.100000,0,0,0.000000,5,0.000000,0.000000,0.519429,0,0,0,0,0,0,0
2,29999,42,20000,38,10000,49,9999,0.100000,0,0,0.000000,5,4.000000,0.000000,10.977850,0,0,0,0,0,0,0
2,29999,43,20000,38,10000,40,9999,0.100000,0,0,0.000000,5,0.000000,0.000000,0.598516,0,0,0,0,0,0,0
2,29999,44,20000,38,10000,49,9999,0.100000,0,0,0.000000,5,2.000000,0.000000,4.150481,0,0,0,0,0,0,0
2,29999,45,20000,48,0,40,9999,0.100000,0,0,0.000000,6,0.000000,0.000000,0.729704,0,0,0,0,0,0,0
2,29999,46,20000,38,10000,40,9999,0.100000,0,0,0.000000,5,0.000000,0.000000,0.167496,0,0,0,0,0,0,0
2,29999,47,20000,94,10000,40,9999,0.100000,0,0,0.000000,5,0.000000,0.000000,0.562225,0,0,0,0,0,0,0
2,29999,48,20000,52,0,40,9999,0.100000,0,0,0.000000,5,0.000000,0.000000,0.250870,0,0,0,0,0,0,0
2,29999,49,20000,38,10000,49,9999,0.100000,0,0,0.000000,5,5.000000,0.000000,14.209383,0,0,0,0,0,0,0
2,29999,50,20000,13,10000,40,9999,0.100000,0,0,0.000000,5,0.000000,0.000000,0.331672,0,0,0,0,0,0,0
2,29999,51,20000,52,0,49,9999,0.100000,0,0,0.000000,5,1.000000,0.000000,8.679553,0,0,0,0,0,0,0
2,29999,52,20000,38,10000,49,9999,0.100000,0,0,0.000000,5,1.000000,0.000000,5.558957,0,0,0,0,0,0,0
2,29999,53,20000,31,10000,40,9999,0.100000,0,0,0.000000,6,0.000000,0.000000,0.637089,0,0,0,0,0,0,0
2,29999,54,20000,13,10000,40,9999,0.100000,0,0,0.000000,5,0.000000,0.000000,0.458908,0,0,0,0,0,0,0
2,29999,55,20000,48,0,40,9999,0.100000,0,0,0.000000,5,0.000000,0.000000,0.515268,0,0,0,0,0,0,0
2,29999,56,20000,48,0,49,9999,0.100000,0,0,0.000000,5,1.000000,0.000000,3.227470,0,0,0,0,0,0,0
2,29999,57,20000,48,0,40,9999,0.100000,0,0,0.000000,5,0.000000,0.000000,1.511581,0,0,0,0,0,0,0
2,29999,58,20000,52,0,49,9999,0.100000,0,0,0.000000,5,1.000000,0.000000,6.830348,0,0,0,0,0,0,0
2,29999,59,20000,94,10000,40,9999,0.100000,0,0,0.000000,5,0.000000,0.000000,0.578007,0,0,0,0,0,0,0
2,29999,60,20000,52,0,49,9999,0.100000,0,0,0.000000,5,8.000000,0.000000,21.961579,0,0,0,0,0,0,0
2,29999,61,20000,13,10000,49,9999,0.100000,0,0,0.000000,5,1.000000,0.000000,6.073398,0,0,0,0,0,0,0
2,29999,62,20000,4,0,40,9999,0.100000,0,0,0.000000,5,0.000000,0.000000,0.457417,0,0,0,0,0,0,0
2,29999,63,20000,52,0,49,9999,0.100000,0,0,0.000000,5,1.000000,0.000000,8.779425,0,0,0,0,0,0,0
2,29999,64,20000,48,0,40,9999,0.100000,0,0,0.000000,5,0.000000,0.000000,0.927441,0,0,0,0,0,0,0
2,29999,65,20000,4,0,49,9999,0.100000,0,0,0.000000,5,1.000000,0.000000,4.627890,0,0,0,0,0,0,0
2,29999,66,10000,52,0,40,19999,0.100000,0,0,0.000000,5,0.000000,0.000000,0.797597,0,0,0,0,0,0,0
2,29999,67,20000,48,0,40,9999,0.100000,0,0,0.000000,5,0.000000,0.000000,0.680825,0,0,0,0,0,0,0
2,29999,68,20000,13,10000,49,9999,0.100000,0,0,0.000000,5,5.000000,0.000000,22.516757,0,0,0,0,0,0,0
2,29999,69,10000,4,0,40,19999,0.100000,0,0,0.000000,5,0.000000,0.000000,0.709397,0,0,0,0,0,0,0
2,29999,70,20000,52,0,40,9999,0.100000,0,0,0.000000,5,0.000000,0.000000,5.680707,0,0,0,0,0,0,0
2,29999,71,20000,38,10000,40,9999,0.100000,0,0,0.000000,5,0.000000,0.000000,3.573051,0,0,0,0,0,0,0
2,29999,72,20000,48,0,40,9999,0.100000,0,0,0.000000,5,0.000000,0.000000,0.133958,0,0,0,0,0,0,0
2,29999,73,20000,48,0,40,9999,0.100000,0,0,0.000000,5,0.000000,0.000000,0.784081,0,0,0,0,0,0,0
2,29999,74,20000,48,0,49,9999,0.100000,0,0,0.000000,5,2.000000,0.000000,8.628606,0,0,0,0,0,0,0
2,29999,75,20000,4,0,49,9999,0.100000,0,0,0.000000,5,1.000000,0.000000,9.955663,0,0,0,0,0,0,0
2,29999,76,20000,48,0,49,9999,0.100000,0,0,0.000000,5,8.000000,0.000000,13.594483,0,0,0,0,0,0,0
2,29999,77,20000,63,10000,40,9999,0.100000,0,0,0.000000,5,0.000000,0.000000,0.548446,0,0,0,0,0,0,0
2,29999,78,20000,4,0,49,9999,0.100000,0,0,0.000000,5,2.000000,0.000000,2.622674,0,0,0,0,0,0,0
2,29999,79,20000,52,0,40,9999,0.100000,0,0,0.000000,5,0.000000,0.000000,1.165024,0,0,0,0,0,0,0
2,29999,80,20000,13,10000,40,9999,0.100000,0,0,0.000000,6,0.000000,0.000000,12.965128,0,0,0,0,0,0,0
2,29999,81,20000,48,0,40,9999,0.100000,0,0,0.000000,5,0.000000,0.000000,1.355449,0,0,0,0,0,0,0
2,29999,82,20000,52,0,40,9999,0.100000,0,0,0.000000,6,0.000000,0.000000,0.820124,0,0,0,0,0,0,0
2,29999,83,20000,13,10000,49,9999,0.100000,0,0,0.000000,5,1.000000,0.000000,1.563373,0,0,0,0,0,0,0
2,29999,84,20000,4,0,40,9999,0.100000,0,0,0.000000,5,0.000000,0.000000,0.593574,0,0,0,0,0,0,0
2,29999,85,20000,48,0,49,9999,0.100000,0,0,0.000000,5,3.000000,0.000000,8.268172,0,0,0,0,0,0,0
2,29999,86,20000,48,0,0,9999,0.100000,0,0,0.000000,5,0.000000,0.000000,1.798198,0,0,0,1,0,0,0
2,29999,87,20000,48,0,40,9999,0.100000,0,0,0.000000,5,0.000000,0.000000,0.292191,0,0,0,0,0,0,0
2,29999,88,20000,38,10000,40,9999,0.100000,0,0,0.000000,5,0.000000,0.000000,1.144240,0,0,0,0,0,0,0
2,29999,89,20000,52,0,40,9999,0.100000,0,0,0.000000,5,0.000000,0.000000,0.177911,0,0,0,0,0,0,0
2,29999,90,20000,48,0,40,9999,0.100000,0,0,0.000000,6,0.000000,0.000000,0.944561,0,0,0,0,0,0,0
2,29999,91,20000,38,10000,40,9999,0.100000,0,0,0.000000,5,0.000000,0.000000,2.842892,0,0,0,0,0,0,0
2,29999,92,20000,16,10000,49,9999,0.100000,0,0,0.000000,5,3.000000,0.000000,11.282563,0,0,0,0,0,0,0
2,29999,93,20000,4,0,49,9999,0.100000,0,0,0.000000,5,1.000000,0.000000,8.245815,0,0,0,0,0,0,0
2,29999,94,20000,38,10000,40,9999,0.100000,0,0,0.000000,5,0.000000,0.000000,1.695679,0,0,0,0,0,0,0
2,29999,95,20000,13,10000,40,9999,0.100000,0,0,0.000000,6,0.000000,0.000000,20.526351,0,0,0,0,0,0,0
2,29999,96,20000,52,0,40,9999,0.100000,0,0,0.000000,5,0.000000,0.000000,0.929067,0,0,0,0,0,0,0
2,29999,97,20000,13,10000,40,9999,0.100000,0,0,0.000000,5,0.000000,0.000000,0.078884,0,0,0,0,0,0,0
2,29999,98,20000,38,10000,49,9999,0.100000,0,0,0.000000,5,4.000000,0.000000,19.173802,0,0,0,0,0,0,0
2,29999,99,20000,13,10000,40,9999,0.100000,0,0,0.000000,6,0.000000,0.000000,0.192689,0,0,0,0,0,0,0
3,39999,0,30000,13,10000,40,9999,0.100000,0,0,0.000000,6,0.000000,0.000000,0.561946,0,0,0,0,0,0,0
3,39999,1,30000,31,10000,40,9999,0.100000,0,0,0.000000,6,0.000000,0.000000,0.187039,0,0,0,0,0,0,0
3,39999,2,30000,4,0,49,9999,0.100000,0,0,0.000000,6,3.000000,0.000000,3.713636,0,0,0,0,0,0,0
3,39999,3,30000,31,10000,40,9999,0.100000,0,0,0.000000,6,0.000000,0.000000,0.216295,0,0,0,0,0,0,0
3,39999,4,30000,38,10000,49,9999,0.100000,0,0,0.000000,6,3.000000,0.000000,3.598884,0,0,0,0,0,0,0
3,39999,5,30000,4,0,40,9999,0.100000,0,0,0.000000,6,0.000000,0.000000,0.606756,0,0,0,0,0,0,0
3,39999,6,30000,48,0,40,9999,0.100000,0,0,0.000000,6,0.000000,0.000000,0.117747,0,0,0,0,0,0,0
3,39999,7,30000,48,0,40,9999,0.100000,0,0,0.000000,6,0.000000,0.000000,4.154071,0,0,0,0,0,0,0
3,39999,8,30000,4,0,49,9999,0.100000,0,0,0.000000,6,1.000000,0.000000,4.671834,0,0,0,0,0,0,0
3,39999,9,30000,48,0,40,9999,0.100000,0,0,0.000000,6,0.000000,0.000000,0.624489,0,0,0,0,0,0,0
3,39999,10,30000,31,10000,49,9999,0.100000,0,0,0.000000,6,2.000000,0.000000,12.661782,0,0,0,0,0,0,0
3,39999,11,30000,38,10000,49,9999,0.100000,0,0,0.000000,6,3.000000,0.000000,4.970644,0,0,0,0,0,0,0
3,39999,12,30000,38,10000,40,9999,0.100000,0,0,0.000000,6,0.000000,0.000000,0.310535,0,0,0,0,0,0,0
3,39999,13,30000,52,0,40,9999,0.100000,0,0,0.000000,6,0.000000,0.000000,0.423988,0,0,0,0,0,0,0
3,39999,14,30000,31,10000,49,9999,0.100000,0,0,0.000000,6,3.000000,0.000000,3.807411,0,0,0,0,0,0,0
3,39999,15,30000,48,0,40,9999,0.065000,0,0,0.000000,6,0.000000,0.000000,0.588874,0,0,0,0,0,0,0
3,39999,16,30000,31,10000,49,9999,0.100000,0,0,0.000000,6,1.000000,0.000000,1.814779,0,0,0,0,0,0,0
3,39999,17,30000,13,10000,40,9999,0.100000,0,0,0.000000,6,0.000000,0.000000,0.135329,0,0,0,0,0,0,0
3,39999,18,30000,31,20000,49,9999,0.100000,0,0,0.000000,6,6.000000,0.000000,10.036012,0,0,0,0,0,0,0
3,39999,19,30000,13,10000,40,9999,0.100000,0,0,0.000000,6,0.000000,0.000000,0.339667,0,0,0,0,0,0,0
3,39999,20,30000,82,20000,40,9999,0.100000,0,0,0.000000,6,0.000000,0.000000,1.224318,0,0,0,0,0,0,0
3,39999,21,30000,4,0,49,9999,0.100000,0,0,0.000000,6,1.000000,0.000000,2.982204,0,0,0,0,0,0,0
3,39999,22,30000,48,0,40,9999,0.100000,0,0,0.000000,6,0.000000,0.000000,0.110242,0,0,0,0,0,0,0
3,39999,23,30000,48,0,40,9999,0.100000,0,0,0.000000,6,0.000000,0.000000,0.163498,0,0,0,0,0,0,0
3,39999,24,30000,13,10000,40,9999,0.100000,0,0,0.000000,6,0.000000,0.000000,2.649545,0,0,0,0,0,0,0
3,39999,25,30000,38,10000,40,9999,0.100000,0,0,0.000000,6,0.000000,0.000000,0.332572,0,0,0,0,0,0,0
3,39999,26,30000,4,0,40,9999,0.100000,0,0,0.000000,6,0.000000,0.000000,0.165102,0,0,0,0,0,0,0
3,39999,27,30000,13,10000,49,9999,0.100000,0,0,0.000000,6,3.000000,0.000000,3.773109,0,0,0,0,0,0,0
3,39999,28,30000,4,0,40,9999,0.100000,0,0,0.000000,6,0.000000,0.000000,0.155647,0,0,0,0,0,0,0
3,39999,29,30000,13,10000,40,9999,0.100000,0,0,0.000000,6,0.000000,0.000000,0.186586,0,0,0,0,0,0,0
3,39999,30,30000,13,10000,40,9999,0.100000,0,0,0.000000,6,0.000000,0.000000,0.217669,0,0,0,0,0,0,0
3,39999,31,30000,4,0,40,9999,0.100000,0,0,0.000000,6,0.000000,0.000000,3.080711,0,0,0,0,0,0,0
3,39999,32,30000,52,0,40,9999,0.100000,0,0,0.000000,6,0.000000,0.000000,3.245017,0,0,0,0,0,0,0
3,39999,33,30000,48,0,40,9999,0.100000,0,0,0.000000,6,0.000000,0.000000,0.275951,0,0,0,0,0,0,0
3,39999,34,30000,13,10000,40,9999,0.100000,0,0,0.000000,6,0.000000,0.000000,0.642271,0,0,0,0,0,0,0
3,39999,35,30000,31,20000,49,9999,0.100000,0,0,0.000000,6,6.000000,0.000000,8.043147,0,0,0,0,0,0,0
3,39999,36,30000,31,10000,40,9999,0.100000,0,0,0.000000,6,0.000000,0.000000,0.197567,0,0,0,0,0,0,0
3,39999,37,30000,48,0,40,9999,0.100000,0,0,0.000000,6,0.000000,0.000000,0.452657,0,0,0,0,0,0,0
3,39999,38,30000,4,0,40,9999,0.100000,0,0,0.000000,6,0.000000,0.000000,0.807279,0,0,0,0,0,0,0
3,39999,39,30000,38,10000,40,9999,0.100000,0,0,0.000000,6,0.000000,0.000000,0.434647,0,0,0,0,0,0,0
3,39999,40,30000,4,0,49,9999,0.100000,0,0,0.000000,6,3.000000,0.000000,9.413559,0,0,0,0,0,0,0
3,39999,41,30000,48,0,40,9999,0.100000,0,0,0.000000,6,0.000000,0.000000,0.566928,0,0,0,0,0,0,0
3,39999,42,30000,4,0,40,9999,0.100000,0,0,0.000000,6,0.000000,0.000000,2.178266,0,0,0,0,0,0,0
3,39999,43,30000,31,20000,49,9999,0.100000,0,0,0.000000,6,6.000000,0.000000,13.310643,0,0,0,0,0,0,0
3,39999,44,30000,38,10000,40,9999,0.100000,0,0,0.000000,6,0.000000,0.000000,0.523759,0,0,0,0,0,0,0
3,39999,45,30000,38,10000,40,9999,0.100000,0,0,0.000000,6,0.000000,0.000000,0.239908,0,0,0,0,0,0,0
3,39999,46,30000,38,10000,40,9999,0.100000,0,0,0.000000,6,0.000000,0.000000,0.178040,0,0,0,0,0,0,0
3,39999,47,30000,4,0,40,9999,0.100000,0,0,0.000000,6,0.000000,0.000000,0.494888,0,0,0,0,0,0,0
3,39999,48,30000,31,10000,40,9999,0.100000,0,0,0.000000,6,0.000000,0.000000,0.234137,0,0,0,0,0,0,0
3,39999,49,30000,31,20000,40,9999,0.100000,0,0,0.000000,6,0.000000,0.000000,3.851845,0,0,0,0,0,0,0
3,39999,50,30000,52,0,40,9999,0.100000,0,0,0.000000,6,0.000000,0.000000,0.599724,0,0,0,0,0,0,0
3,39999,51,30000,4,0,49,9999,0.100000,0,0,0.000000,6,1.000000,0.000000,6.182560,0,0,0,0,0,0,0
3,39999,52,30000,13,10000,49,9999,0.100000,0,0,0.000000,6,1.000000,0.000000,9.690452,0,0,0,0,0,0,0
3,39999,53,30000,52,0,40,9999,0.100000,0,0,0.000000,6,0.000000,0.000000,0.982214,0,0,0,0,0,0,0
3,39999,54,30000,31,10000,49,9999,0.100000,0,0,0.000000,6,1.000000,0.000000,4.488168,0,0,0,0,0,0,0
3,39999,55,30000,4,0,40,9999,0.100000,0,0,0.000000,6,0.000000,0.000000,0.441724,0,0,0,0,0,0,0
3,39999,56,30000,4,0,40,9999,0.100000,0,0,0.000000,6,0.000000,0.000000,0.987693,0,0,0,0,0,0,0
3,39999,57,30000,4,0,40,9999,0.100000,0,0,0.000000,6,0.000000,0.000000,1.116864,0,0,0,0,0,0,0
3,39999,58,30000,52,0,40,9999,0.100000,0,0,0.000000,6,0.000000,0.000000,1.440189,0,0,0,0,0,0,0
3,39999,59,30000,82,20000,40,9999,0.100000,0,0,0.000000,6,0.000000,0.000000,0.929695,0,0,0,0,0,0,0
3,39999,60,30000,52,0,49,9999,0.100000,0,0,0.000000,6,3.000000,0.000000,11.863835,0,0,0,0,0,0,0
3,39999,61,30000,4,0,40,9999,0.100000,0,0,0.000000,6,0.000000,0.000000,3.134131,0,0,0,0,0,0,0
3,39999,62,30000,31,10000,40,9999,0.100000,0,0,0.000000,6,0.000000,0.000000,0.500486,0,0,0,0,0,0,0
3,39999,63,30000,48,0,40,9999,0.100000,0,0,0.000000,6,0.000000,0.000000,23.995126,0,0,0,0,0,0,0
3,39999,64,30000,31,20000,40,9999,0.100000,0,0,0.000000,6,0.000000,0.000000,1.560578,0,0,0,0,0,0,0
3,39999,65,30000,31,10000,49,9999,0.100000,0,0,0.000000,6,5.000000,0.000000,13.001910,0,0,0,0,0,0,0
3,39999,66,30000,4,0,49,9999,0.100000,0,0,0.000000,6,1.000000,0.000000,2.156572,0,0,0,0,0,0,0
3,39999,67,30000,13,10000,40,9999,0.100000,0,0,0.000000,6,0.000000,0.000000,0.601273,0,0,0,0,0,0,0
3,39999,68,30000,52,0,49,9999,0.100000,0,0,0.000000,6,5.000000,0.000000,10.202530,0,0,0,0,0,0,0
3,39999,69,30000,48,0,40,9999,0.100000,0,0,0.000000,6,0.000000,0.000000,0.394231,0,0,0,0,0,0,0
3,39999,70,30000,52,0,40,9999,0.100000,0,0,0.000000,6,0.000000,0.000000,2.482870,0,0,0,0,0,0,0
3,39999,71,30000,4,0,40,9999,0.100000,0,0,0.000000,6,0.000000,0.000000,3.775788,0,0,0,0,0,0,0
3,39999,72,30000,38,10000,40,9999,0.100000,0,0,0.000000,6,0.000000,0.000000,0.125349,0,0,0,0,0,0,0
3,39999,73,30000,52,0,49,9999,0.100000,0,0,0.000000,6,1.000000,0.000000,1.990862,0,0,0,0,0,0,0
3,39999,74,30000,52,0,49,9999,0.100000,0,0,0.000000,6,3.000000,0.000000,8.443664,0,0,0,0,0,0,0
3,39999,75,30000,31,20000,40,9999,0.100000,0,0,0.000000,6,0.000000,0.000000,0.134475,0,0,0,0,0,0,0
3,39999,76,30000,52,0,40,9999,0.100000,0,0,0.000000,6,0.000000,0.000000,0.234528,0,0,0,0,0,0,0
3,39999,77,30000,31,10000,40,9999,0.100000,0,0,0.000000,6,0.000000,0.000000,2.167248,0,0,0,0,0,0,0
3,39999,78,30000,48,0,49,9999,0.100000,0,0,0.000000,6,4.000000,0.000000,16.043728,0,0,0,0,0,0,0
3,39999,79,30000,38,10000,40,9999,0.100000,0,0,0.000000,6,0.000000,0.000000,0.260409,0,0,0,0,0,0,0
3,39999,80,30000,52,0,49,9999,0.100000,0,0,0.000000,6,2.000000,0.000000,3.209294,0,0,0,0,0,0,0
3,39999,81,30000,4,0,40,9999,0.100000,0,0,0.000000,6,0.000000,0.000000,2.754533,0,0,0,0,0,0,0
3,39999,82,30000,48,0,49,9999,0.100000,0,0,0.000000,6,9.000000,0.000000,18.928701,0,0,0,0,0,0,0
3,39999,83,30000,38,10000,49,9999,0.100000,0,0,0.000000,6,3.000000,0.000000,3.650665,0,0,0,0,0,0,0
3,39999,84,30000,48,0,40,9999,0.100000,0,0,0.000000,6,0.000000,0.000000,0.969573,0,0,0,0,0,0,0
3,39999,85,30000,52,0,49,9999,0.100000,0,0,0.000000,6,8.000000,0.000000,23.929617,0,0,0,0,0,0,0
3,39999,86,30000,31,20000,40,9999,0.100000,0,0,0.000000,6,0.000000,0.000000,8.053011,0,0,0,0,0,0,0
3,39999,87,30000,4,0,40,9999,0.100000,0,0,0.000000,6,0.000000,0.000000,0.992047,0,0,0,0,0,0,0
3,39999,88,30000,52,0,49,9999,0.100000,0,0,0.000000,6,3.000000,0.000000,3.612218,0,0,0,0,0,0,0
3,39999,89,30000,52,0,40,9999,0.100000,0,0,0.000000,6,0.000000,0.000000,0.139401,0,0,0,0,0,0,0
3,39999,90,30000,48,0,40,9999,0.100000,0,0,0.000000,6,0.000000,0.000000,0.123386,0,0,0,0,0,0,0
3,39999,91,30000,48,0,40,9999,0.100000,0,0,0.000000,6,0.000000,0.000000,1.210661,0,0,0,0,0,0,0
3,39999,92,30000,52,0,49,9999,0.100000,0,0,0.000000,6,4.000000,0.000000,11.571893,0,0,0,0,0,0,0
3,39999,93,30000,31,10000,40,9999,0.100000,0,0,0.000000,6,0.000000,0.000000,4.642048,0,0,0,0,0,0,0
3,39999,94,30000,4,0,40,9999,0.100000,0,0,0.000000,6,0.000000,0.000000,2.560361,0,0,0,0,0,0,0
3,39999,95,30000,31,10000,40,9999,0.100000,0,0,0.000000,6,0.000000,0.000000,20.246973,0,0,0,0,0,0,0
3,39999,96,30000,31,20000,40,9999,0.100000,0,0,0.000000,6,0.000000,0.000000,0.971617,0,0,0,0,0,0,0
3,39999,97,30000,38,10000,40,9999,0.100000,0,0,0.000000,6,0.000000,0.000000,0.077706,0,0,0,0,0,0,0
3,39999,98,30000,52,0,40,9999,0.100000,0,0,0.000000,6,0.000000,0.000000,5.132713,0,0,0,0,0,0,0
3,39999,99,30000,38,10000,40,9999,0.100000,0,0,0.000000,6,0.000000,0.000000,0.192885,0,0,0,0,0,0,0
4,49999,0,40000,38,10000,40,9999,0.100000,0,0,0.000000,6,0.000000,0.000000,0.023267,0,0,0,0,0,0,0
4,49999,1,40000,38,10000,40,9999,0.100000,0,0,0.000000,6,0.000000,0.000000,0.020453,0,0,0,0,0,0,0
4,49999,2,40000,52,0,40,9999,0.100000,0,0,0.000000,6,0.000000,0.000000,0.014362,0,0,0,0,0,0,0
4,49999,3,40000,38,10000,40,9999,0.100000,0,0,0.000000,6,0.000000,0.000000,0.301837,0,0,0,0,0,0,0
4,49999,4,40000,48,0,40,9999,0.100000,0,0,0.000000,6,0.000000,0.000000,0.194951,0,0,0,0,0,0,0
4,49999,5,40000,82,30000,40,9999,0.100000,0,0,0.000000,6,0.000000,0.000000,0.059844,0,0,0,0,0,0,0
4,49999,6,40000,4,0,40,9999,0.100000,0,0,0.000000,6,0.000000,0.000000,0.319241,0,0,0,0,0,0,0
4,49999,7,40000,48,0,40,9999,0.100000,0,0,0.000000,6,0.000000,0.000000,0.041669,0,0,0,0,0,0,0
4,49999,8,40000,82,30000,40,9999,0.100000,0,0,0.000000,6,0.000000,0.000000,0.322063,0,0,0,0,0,0,0
4,49999,9,40000,82,20000,40,9999,0.100000,0,0,0.000000,6,0.000000,0.000000,0.011955,0,0,0,0,0,0,0
4,49999,10,40000,82,20000,40,9999,0.100000,0,0,0.000000,6,0.000000,0.000000,0.162162,0,0,0,0,0,0,0
4,49999,11,40000,4,0,40,9999,0.100000,0,0,0.000000,6,0.000000,0.000000,0.312287,0,0,0,0,0,0,0
4,49999,12,40000,38,10000,40,9999,0.100000,0,0,0.000000,6,0.000000,0.000000,0.363574,0,0,0,0,0,0,0
4,49999,13,40000,48,0,40,9999,0.100000,0,0,0.000000,6,0.000000,0.000000,0.332576,0,0,0,0,0,0,0
4,49999,14,40000,48,0,40,9999,0.100000,0,0,0.000000,6,0.000000,0.000000,0.553091,0,0,0,0,0,0,0
4,49999,15,40000,38,10000,40,9999,0.100000,0,0,0.000000,6,0.000000,0.000000,0.215018,0,0,0,0,0,0,0
4,49999,16,40000,4,0,40,9999,0.100000,0,0,0.000000,6,0.000000,0.000000,0.020821,0,0,0,0,0,0,0
4,49999,17,40000,4,0,40,9999,0.100000,0,0,0.000000,6,0.000000,0.000000,0.037513,0,0,0,0,0,0,0
4,49999,18,40000,38,10000,40,9999,0.100000,0,0,0.000000,6,0.000000,0.000000,0.055611,0,0,0,0,0,0,0
4,49999,19,40000,31,20000,40,9999,0.100000,0,0,0.000000,6,0.000000,0.000000,0.486239,0,0,0,0,0,0,0
4,49999,20,40000,31,20000,40,9999,0.100000,0,0,0.000000,6,0.000000,0.000000,0.172381,0,0,0,0,0,0,0
4,49999,21,40000,31,20000,40,9999,0.100000,0,0,0.000000,6,0.000000,0.000000,0.014082,0,0,0,0,0,0,0
4,49999,22,40000,31,20000,40,9999,0.100000,0,0,0.000000,6,0.000000,0.000000,0.532224,0,0,0,0,0,0,0
4,49999,23,40000,82,30000,40,9999,0.100000,0,0,0.000000,6,0.000000,0.000000,0.384673,0,0,0,0,0,0,0
4,49999,24,40000,38,10000,40,9999,0.100000,0,0,0.000000,6,0.000000,0.000000,0.194157,0,0,0,0,0,0,0
4,49999,25,40000,31,20000,40,9999,0.100000,0,0,0.000000,6,0.000000,0.000000,0.425889,0,0,0,0,0,0,0
4,49999,26,40000,38,10000,40,9999,0.100000,0,0,0.000000,6,0.000000,0.000000,0.258476,0,0,0,0,0,0,0
4,49999,27,40000,82,20000,40,9999,0.100000,0,0,0.000000,6,0.000000,0.000000,0.014060,0,0,0,0,0,0,0
4,49999,28,40000,38,10000,40,9999,0.100000,0,0,0.000000,6,0.000000,0.000000,0.009204,0,0,0,0,0,0,0
4,49999,29,40000,38,10000,40,9999,0.100000,0,0,0.000000,6,0.000000,0.000000,0.348995,0,0,0,0,0,0,0
4,49999,30,40000,31,20000,40,9999,0.100000,0,0,0.000000,6,0.000000,0.000000,0.364612,0,0,0,0,0,0,0
4,49999,31,40000,38,10000,40,9999,0.100000,0,0,0.000000,6,0.000000,0.000000,0.011941,0,0,0,0,0,0,0
4,49999,32,40000,31,20000,40,9999,0.100000,0,0,0.000000,6,0.000000,0.000000,0.153619,0,0,0,0,0,0,0
4,49999,33,40000,31,20000,40,9999,0.100000,0,0,0.000000,6,0.000000,0.000000,0.007068,0,0,0,0,0,0,0
4,49999,34,40000,48,0,40,9999,0.100000,0,0,0.000000,6,0.000000,0.000000,0.328701,0,0,0,0,0,0,0
4,49999,35,40000,38,10000,40,9999,0.100000,0,0,0.000000,6,0.000000,0.000000,0.058331,0,0,0,0,0,0,0
4,49999,36,40000,38,10000,40,9999,0.100000,0,0,0.000000,6,0.000000,0.000000,0.611704,0,0,0,0,0,0,0
4,49999,37,40000,82,30000,40,9999,0.100000,0,0,0.000000,6,0.000000,0.000000,0.172775,0,0,0,0,0,0,0
4,49999,38,40000,48,0,40,9999,0.100000,0,0,0.000000,6,0.000000,0.000000,0.018736,0,0,0,0,0,0,0
4,49999,39,40000,82,30000,40,9999,0.100000,0,0,0.000000,6,0.000000,0.000000,0.309028,0,0,0,0,0,0,0
4,49999,40,40000,4,0,40,9999,0.100000,0,0,0.000000,6,0.000000,0.000000,0.155227,0,0,0,0,0,0,0
4,49999,41,40000,48,0,40,9999,0.100000,0,0,0.000000,6,0.000000,0.000000,0.403678,0,0,0,0,0,0,0
4,49999,42,40000,4,0,40,9999,0.100000,0,0,0.000000,6,0.000000,0.000000,0.433305,0,0,0,0,0,0,0
4,49999,43,40000,82,20000,40,9999,0.100000,0,0,0.000000,6,0.000000,0.000000,0.161362,0,0,0,0,0,0,0
4,49999,44,40000,31,20000,40,9999,0.100000,0,0,0.000000,6,0.000000,0.000000,0.032800,0,0,0,0,0,0,0
4,49999,45,40000,4,0,40,9999,0.100000,0,0,0.000000,6,0.000000,0.000000,0.405580,0,0,0,0,0,0,0
4,49999,46,40000,82,30000,40,9999,0.100000,0,0,0.000000,6,0.000000,0.000000,0.616310,0,0,0,0,0,0,0
4,49999,47,40000,82,20000,40,9999,0.065000,0,0,0.000000,6,0.000000,0.000000,0.186252,0,0,0,0,0,0,0
4,49999,48,40000,31,20000,40,9999,0.100000,0,0,0.000000,6,0.000000,0.000000,0.352431,0,0,0,0,0,0,0
4,49999,49,40000,4,0,40,9999,0.100000,0,0,0.000000,6,0.000000,0.000000,0.138483,0,0,0,0,0,0,0
4,49999,50,40000,82,20000,40,9999,0.100000,0,0,0.000000,6,0.000000,0.000000,0.009403,0,0,0,0,0,0,0
4,49999,51,40000,31,20000,40,9999,0.100000,0,0,0.000000,6,0.000000,0.000000,0.015808,0,0,0,0,0,0,0
4,49999,52,40000,38,10000,40,9999,0.100000,0,0,0.000000,6,0.000000,0.000000,0.042353,0,0,0,0,0,0,0
4,49999,53,40000,82,30000,40,9999,0.100000,0,0,0.000000,6,0.000000,0.000000,0.010023,0,0,0,0,0,0,0
4,49999,54,40000,31,20000,40,9999,0.100000,0,0,0.000000,6,0.000000,0.000000,0.053367,0,0,0,0,0,0,0
4,49999,55,40000,82,30000,40,9999,0.100000,0,0,0.000000,6,0.000000,0.000000,0.018071,0,0,0,0,0,0,0
4,49999,56,40000,82,30000,40,9999,0.100000,0,0,0.000000,6,0.000000,0.000000,0.160218,0,0,0,0,0,0,0
4,49999,57,40000,82,20000,40,9999,0.100000,0,0,0.000000,6,0.000000,0.000000,0.168395,0,0,0,0,0,0,0
4,49999,58,40000,4,0,40,9999,0.100000,0,0,0.000000,6,0.000000,0.000000,0.206875,0,0,0,0,0,0,0
4,49999,59,40000,31,20000,40,9999,0.100000,0,0,0.000000,6,0.000000,0.000000,0.320513,0,0,0,0,0,0,0
4,49999,60,40000,48,0,40,9999,0.100000,0,0,0.000000,6,0.000000,0.000000,0.194050,0,0,0,0,0,0,0
4,49999,61,40000,38,10000,40,9999,0.100000,0,0,0.000000,6,0.000000,0.000000,0.067249,0,0,0,0,0,0,0
4,49999,62,40000,52,0,40,9999,0.100000,0,0,0.000000,6,0.000000,0.000000,0.083913,0,0,0,0,0,0,0
4,49999,63,40000,82,30000,40,9999,0.100000,0,0,0.000000,6,0.000000,0.000000,0.112668,0,0,0,0,0,0,0
4,49999,64,40000,4,0,40,9999,0.100000,0,0,0.000000,6,0.000000,0.000000,0.072765,0,0,0,0,0,0,0
4,49999,65,40000,48,0,40,9999,0.100000,0,0,0.000000,6,0.000000,0.000000,0.125931,0,0,0,0,0,0,0
4,49999,66,40000,31,20000,40,9999,0.100000,0,0,0.000000,6,0.000000,0.000000,0.033332,0,0,0,0,0,0,0
4,49999,67,40000,31,20000,40,9999,0.100000,0,0,0.000000,6,0.000000,0.000000,0.057365,0,0,0,0,0,0,0
4,49999,68,40000,31,20000,40,9999,0.100000,0,0,0.000000,6,0.000000,0.000000,0.027728,0,0,0,0,0,0,0
4,49999,69,40000,38,10000,40,9999,0.100000,0,0,0.000000,6,0.000000,0.000000,0.016943,0,0,0,0,0,0,0
4,49999,70,40000,38,10000,40,9999,0.100000,0,0,0.000000,6,0.000000,0.000000,0.152062,0,0,0,0,0,0,0
4,49999,71,40000,82,20000,40,9999,0.100000,0,0,0.000000,6,0.000000,0.000000,0.028086,0,0,0,0,0,0,0
4,49999,72,40000,31,20000,40,9999,0.100000,0,0,0.000000,6,0.000000,0.000000,0.016401,0,0,0,0,0,0,0
4,49999,73,40000,31,20000,40,9999,0.100000,0,0,0.000000,6,0.000000,0.000000,0.013902,0,0,0,0,0,0,0
4,49999,74,40000,31,20000,40,9999,0.100000,0,0,0.000000,6,0.000000,0.000000,0.013469,0,0,0,0,0,0,0
4,49999,75,40000,48,0,40,9999,0.100000,0,0,0.000000,6,0.000000,0.000000,0.637361,0,0,0,0,0,0,0
4,49999,76,40000,4,0,40,9999,0.100000,0,0,0.000000,6,0.000000,0.000000,0.116946,0,0,0,0,0,0,0
4,49999,77,40000,82,20000,40,9999,0.100000,0,0,0.000000,6,0.000000,0.000000,0.172077,0,0,0,0,0,0,0
4,49999,78,40000,31,20000,40,9999,0.100000,0,0,0.000000,6,0.000000,0.000000,0.066637,0,0,0,0,0,0,0
4,49999,79,40000,48,0,40,9999,0.100000,0,0,0.000000,6,0.000000,0.000000,0.010613,0,0,0,0,0,0,0
4,49999,80,40000,82,20000,40,9999,0.100000,0,0,0.000000,6,0.000000,0.000000,0.055094,0,0,0,0,0,0,0
4,49999,81,40000,38,10000,40,9999,0.100000,0,0,0.000000,6,0.000000,0.000000,0.178014,0,0,0,0,0,0,0
4,49999,82,40000,82,30000,40,9999,0.100000,0,0,0.000000,6,0.000000,0.000000,0.190888,0,0,0,0,0,0,0
4,49999,83,40000,82,20000,40,9999,0.100000,0,0,0.000000,6,0.000000,0.000000,0.161615,0,0,0,0,0,0,0
4,49999,84,40000,82,20000,40,9999,0.100000,0,0,0.000000,6,0.000000,0.000000,0.226212,0,0,0,0,0,0,0
4,49999,85,40000,38,10000,40,9999,0.100000,0,0,0.000000,6,0.000000,0.000000,0.005607,0,0,0,0,0,0,0
4,49999,86,40000,82,30000,40,9999,0.100000,0,0,0.000000,6,0.000000,0.000000,0.010018,0,0,0,0,0,0,0
4,49999,87,40000,82,20000,40,9999,0.100000,0,0,0.000000,6,0.000000,0.000000,0.059571,0,0,0,0,0,0,0
4,49999,88,40000,82,20000,40,9999,0.100000,0,0,0.000000,6,0.000000,0.000000,0.008547,0,0,0,0,0,0,0
4,49999,89,40000,48,0,40,9999,0.100000,0,0,0.000000,6,0.000000,0.000000,0.230114,0,0,0,0,0,0,0
4,49999,90,40000,48,0,40,9999,0.100000,0,0,0.000000,6,0.000000,0.000000,0.342271,0,0,0,0,0,0,0
4,49999,91,40000,4,0,40,9999,0.100000,0,0,0.000000,6,0.000000,0.000000,0.163836,0,0,0,0,0,0,0
4,49999,92,40000,38,10000,40,9999,0.100000,0,0,0.000000,6,0.000000,0.000000,0.167967,0,0,0,0,0,0,0
4,49999,93,40000,82,30000,40,9999,0.100000,0,0,0.000000,6,0.000000,0.000000,0.014896,0,0,0,0,0,0,0
4,49999,94,40000,82,20000,40,9999,0.100000,0,0,0.000000,6,0.000000,0.000000,0.066300,0,0,0,0,0,0,0
4,49999,95,40000,48,0,40,9999,0.100000,0,0,0.000000,6,0.000000,0.000000,0.034114,0,0,0,0,0,0,0
4,49999,96,40000,4,0,40,9999,0.100000,0,0,0.000000,6,0.000000,0.000000,0.414960,0,0,0,0,0,0,0
4,49999,97,40000,38,10000,40,9999,0.100000,0,0,0.000000,6,0.000000,0.000000,0.270615,0,0,0,0,0,0,0
4,49999,98,40000,82,30000,40,9999,0.100000,0,0,0.000000,6,0.000000,0.000000,0.030017,0,0,0,0,0,0,0
4,49999,99,40000,4,0,40,9999,0.100000,0,0,0.000000,6,0.000000,0.000000,0.025082,0,0,0,0,0,0,0
5,59999,0,50000,31,20000,49,9999,0.100000,0,0,0.000000,6,1.000000,0.000000,4.481224,0,0,0,0,0,0,0
5,59999,1,50000,4,0,49,9999,0.100000,0,0,0.000000,6,1.000000,0.000000,4.113014,0,0,0,0,0,0,0
5,59999,2,50000,82,20000,49,9999,0.100000,0,0,0.000000,6,1.000000,0.000000,1.710919,0,0,0,0,0,0,0
5,59999,3,50000,38,10000,40,9999,0.100000,0,0,0.000000,6,0.000000,0.000000,0.524427,0,0,0,0,0,0,0
5,59999,4,50000,48,0,49,9999,0.100000,0,0,0.000000,6,1.000000,0.000000,2.020045,0,0,0,0,0,0,0
5,59999,5,50000,4,0,49,9999,0.100000,0,0,0.000000,6,1.000000,0.000000,3.253027,0,0,0,0,0,0,0
5,59999,6,50000,31,20000,40,9999,0.100000,0,0,0.000000,6,0.000000,0.000000,0.125004,0,0,0,0,0,0,0
5,59999,7,50000,48,0,49,9999,0.100000,0,0,0.000000,6,5.000000,0.000000,12.855661,0,0,0,0,0,0,0
5,59999,8,50000,82,20000,40,9999,0.100000,0,0,0.000000,6,0.000000,0.000000,0.953344,0,0,0,0,0,0,0
5,59999,9,50000,31,20000,49,9999,0.100000,0,0,0.000000,6,1.000000,0.000000,7.332336,0,0,0,0,0,0,0
5,59999,10,50000,82,20000,49,9999,0.100000,0,0,0.000000,6,1.000000,0.000000,2.948800,0,0,0,0,0,0,0
5,59999,11,50000,48,0,40,9999,0.100000,0,0,0.000000,6,0.000000,0.000000,1.027659,0,0,0,0,0,0,0
5,59999,12,50000,4,0,49,9999,0.100000,0,0,0.000000,6,1.000000,0.000000,2.251327,0,0,0,0,0,0,0
5,59999,13,50000,38,10000,40,9999,0.100000,0,0,0.000000,6,0.000000,0.000000,0.231924,0,0,0,0,0,0,0
5,59999,14,50000,31,20000,49,9999,0.100000,0,0,0.000000,6,5.000000,0.000000,8.622708,0,0,0,0,0,0,0
5,59999,15,50000,82,20000,49,9999,0.100000,0,0,0.000000,6,1.000000,0.000000,3.142537,0,0,0,0,0,0,0
5,59999,16,50000,38,10000,49,9999,0.100000,0,0,0.000000,6,8.000000,0.000000,20.360950,0,0,0,0,0,0,0
5,59999,17,50000,82,30000,40,9999,0.100000,0,0,0.000000,6,0.000000,0.000000,0.148530,0,0,0,0,0,0,0
5,59999,18,50000,38,10000,49,9999,0.100000,0,0,0.000000,6,7.000000,0.000000,16.784491,0,0,0,0,0,0,0
5,59999,19,50000,82,20000,40,9999,0.100000,0,0,0.000000,6,0.000000,0.000000,1.294802,0,0,0,0,0,0,0
5,59999,20,50000,82,30000,49,9999,0.100000,0,0,0.000000,6,3.000000,0.000000,5.331140,0,0,0,0,0,0,0
5,59999,21,50000,48,0,49,9999,0.100000,0,0,0.000000,6,1.000000,0.000000,5.271483,0,0,0,0,0,0,0
5,59999,22,50000,38,10000,40,9999,0.100000,0,0,0.000000,6,0.000000,0.000000,0.887876,0,0,0,0,0,0,0
5,59999,23,50000,38,10000,40,9999,0.100000,0,0,0.000000,6,0.000000,0.000000,0.153075,0,0,0,0,0,0,0
5,59999,24,50000,31,20000,40,9999,0.100000,0,0,0.000000,6,0.000000,0.000000,2.992776,0,0,0,0,0,0,0
5,59999,25,50000,48,0,40,9999,0.100000,0,0,0.000000,6,0.000000,0.000000,0.510932,0,0,0,0,0,0,0
5,59999,26,50000,48,0,49,9999,0.100000,0,0,0.000000,6,1.000000,0.000000,6.053328,0,0,0,0,0,0,0
5,59999,27,50000,31,20000,49,9999,0.100000,0,0,0.000000,6,1.000000,0.000000,2.029718,0,0,0,0,0,0,0
5,59999,28,50000,82,20000,40,9999,0.100000,0,0,0.000000,6,0.000000,0.000000,1.095813,0,0,0,0,0,0,0
5,59999,29,50000,48,0,40,9999,0.100000,0,0,0.000000,6,0.000000,0.000000,0.639498,0,0,0,0,0,0,0
5,59999,30,50000,4,0,40,9999,0.100000,0,0,0.000000,6,0.000000,0.000000,0.239101,0,0,0,0,0,0,0
5,59999,31,50000,48,0,49,9999,0.100000,0,0,0.000000,6,3.000000,0.000000,4.045704,0,0,0,0,0,0,0
5,59999,32,50000,4,0,49,9999,0.100000,0,0,0.000000,6,3.000000,0.000000,6.437769,0,0,0,0,0,0,0
5,59999,33,50000,38,10000,49,9999,0.100000,0,0,0.000000,6,1.000000,0.000000,2.293010,0,0,0,0,0,0,0
5,59999,34,50000,31,20000,40,9999,0.100000,0,0,0.000000,6,0.000000,0.000000,0.761195,0,0,0,0,0,0,0
5,59999,35,50000,48,0,49,9999,0.100000,0,0,0.000000,6,3.000000,0.000000,10.231133,0,0,0,0,0,0,0
5,59999,36,50000,31,20000,49,9999,0.100000,0,0,0.000000,6,1.000000,0.000000,1.111898,0,0,0,0,0,0,0
5,59999,37,50000,4,0,40,9999,0.100000,0,0,0.000000,6,0.000000,0.000000,0.548177,0,0,0,0,0,0,0
5,59999,38,50000,38,10000,49,9999,0.100000,0,0,0.000000,6,2.000000,0.000000,15.286570,0,0,0,0,0,0,0
5,59999,39,50000,38,10000,49,9999,0.100000,0,0,0.000000,6,1.000000,0.000000,1.731505,0,0,0,0,0,0,0
5,59999,40,50000,4,0,49,9999,0.135000,0,0,0.000000,6,3.000000,0.000000,5.526628,0,0,0,0,0,0,0
5,59999,41,50000,82,20000,49,9999,0.100000,0,0,0.000000,6,1.000000,0.000000,2.808454,0,0,0,0,0,0,0
5,59999,42,50000,82,30000,40,9999,0.100000,0,0,0.000000,6,0.000000,0.000000,1.058476,0,0,0,0,0,0,0
5,59999,43,50000,82,30000,40,9999,0.100000,0,0,0.000000,6,0.000000,0.000000,1.788033,0,0,0,0,0,0,0
5,59999,44,50000,38,10000,49,9999,0.100000,0,0,0.000000,6,1.000000,0.000000,1.243110,0,0,0,0,0,0,0
5,59999,45,50000,31,20000,40,9999,0.100000,0,0,0.000000,6,0.000000,0.000000,0.168307,0,0,0,0,0,0,0
5,59999,46,50000,82,20000,49,9999,0.100000,0,0,0.000000,6,2.000000,0.000000,3.491573,0,0,0,0,0,0,0
5,59999,47,50000,31,20000,49,9999,0.100000,0,0,0.000000,6,1.000000,0.000000,7.205950,0,0,0,0,0,0,0
5,59999,48,50000,31,20000,40,9999,0.100000,0,0,0.000000,6,0.000000,0.000000,0.322426,0,0,0,0,0,0,0
5,59999,49,50000,4,0,49,9999,0.100000,0,0,0.000000,6,1.000000,0.000000,7.360216,0,0,0,0,0,0,0
5,59999,50,50000,38,10000,40,9999,0.100000,0,0,0.000000,6,0.000000,0.000000,0.462547,0,0,0,0,0,0,0
5,59999,51,50000,48,0,49,9999,0.100000,0,0,0.000000,6,1.000000,0.000000,6.406081,0,0,0,0,0,0,0
5,59999,52,50000,82,20000,49,9999,0.100000,0,0,0.000000,6,9.000000,0.000000,9.367755,0,0,0,0,0,0,0
5,59999,53,50000,82,20000,49,9999,0.100000,0,0,0.000000,6,1.000000,0.000000,2.378270,0,0,0,0,0,0,0
5,59999,54,50000,4,0,49,9999,0.100000,0,0,0.000000,6,6.000000,0.000000,9.654652,0,0,0,0,0,0,0
5,59999,55,50000,82,20000,40,9999,0.100000,0,0,0.000000,6,0.000000,0.000000,0.425320,0,0,0,0,0,0,0
5,59999,56,50000,82,30000,49,9999,0.100000,0,0,0.000000,6,3.000000,0.000000,9.646660,0,0,0,0,0,0,0
5,59999,57,50000,4,0,40,9999,0.100000,0,0,0.000000,6,0.000000,0.000000,2.604587,0,0,0,0,0,0,0
5,59999,58,50000,4,0,40,9999,0.100000,0,0,0.000000,6,0.000000,0.000000,2.137011,0,0,0,0,0,0,0
5,59999,59,50000,48,0,49,9999,0.100000,0,0,0.000000,6,1.000000,0.000000,1.812692,0,0,0,0,0,0,0
5,59999,60,50000,82,20000,49,9999,0.100000,0,0,0.000000,6,8.000000,0.000000,25.835376,0,0,0,0,0,0,0
5,59999,61,50000,38,10000,40,9999,0.100000,0,0,0.000000,6,0.000000,0.000000,2.812676,0,0,0,0,0,0,0
5,59999,62,50000,38,10000,40,9999,0.100000,0,0,0.000000,6,0.000000,0.000000,1.080027,0,0,0,0,0,0,0
5,59999,63,50000,31,20000,49,9999,0.100000,0,0,0.000000,6,1.000000,0.000000,3.814638,0,0,0,0,0,0,0
5,59999,64,50000,82,20000,49,9999,0.100000,0,0,0.000000,6,9.000000,0.000000,16.824792,0,0,0,0,0,0,0
5,59999,65,50000,48,0,49,9999,0.100000,0,0,0.000000,6,1.000000,0.000000,2.141899,0,0,0,0,0,0,0
5,59999,66,50000,82,20000,49,9999,0.100000,0,0,0.000000,6,1.000000,0.000000,11.013348,0,0,0,0,0,0,0
5,59999,67,50000,82,30000,40,9999,0.100000,0,0,0.000000,6,0.000000,0.000000,1.441109,0,0,0,0,0,0,0
5,59999,68,50000,31,20000,49,9999,0.100000,0,0,0.000000,6,1.000000,0.000000,7.355022,0,0,0,0,0,0,0
5,59999,69,50000,82,20000,40,9999,0.100000,0,0,0.000000,6,0.000000,0.000000,0.303654,0,0,0,0,0,0,0
5,59999,70,50000,31,20000,49,9999,0.100000,0,0,0.000000,6,1.000000,0.000000,6.152507,0,0,0,0,0,0,0
5,59999,71,50000,4,0,40,9999,0.100000,0,0,0.000000,6,0.000000,0.000000,0.966374,0,0,0,0,0,0,0
5,59999,72,50000,48,0,40,9999,0.100000,0,0,0.000000,6,0.000000,0.000000,0.251660,0,0,0,0,0,0,0
5,59999,73,50000,4,0,49,9999,0.100000,0,0,0.000000,6,1.000000,0.000000,6.853754,0,0,0,0,0,0,0
5,59999,74,50000,48,0,49,9999,0.100000,0,0,0.000000,6,1.000000,0.000000,9.468094,0,0,0,0,0,0,0
5,59999,75,50000,31,20000,49,9999,0.100000,0,0,0.000000,6,2.000000,0.000000,12.577209,0,0,0,0,0,0,0
5,59999,76,50000,82,30000,40,9999,0.100000,0,0,0.000000,6,0.000000,0.000000,2.678028,0,0,0,0,0,0,0
5,59999,77,50000,4,0,40,9999,0.100000,0,0,0.000000,6,0.000000,0.000000,0.941866,0,0,0,0,0,0,0
5,59999,78,50000,31,20000,49,9999,0.100000,0,0,0.000000,6,2.000000,0.000000,9.988548,0,0,0,0,0,0,0
5,59999,79,50000,4,0,49,9999,0.100000,0,0,0.000000,6,1.000000,0.000000,2.801134,0,0,0,0,0,0,0
5,59999,80,50000,38,10000,49,9999,0.100000,0,0,0.000000,6,1.000000,0.000000,7.569617,0,0,0,0,0,0,0
5,59999,81,50000,82,20000,40,9999,0.100000,0,0,0.000000,6,0.000000,0.000000,0.741782,0,0,0,0,0,0,0
5,59999,82,50000,38,10000,49,9999,0.100000,0,0,0.000000,6,4.000000,0.000000,6.153883,0,0,0,0,0,0,0
5,59999,83,50000,31,20000,49,9999,0.100000,0,0,0.000000,6,1.000000,0.000000,2.857891,0,0,0,0,0,0,0
5,59999,84,50000,82,20000,49,9999,0.100000,0,0,0.000000,6,1.000000,0.000000,1.961180,0,0,0,0,0,0,0
5,59999,85,50000,82,20000,40,9999,0.100000,0,0,0.000000,6,0.000000,0.000000,10.440191,0,0,0,0,0,0,0
5,59999,86,40000,82,30000,49,19999,0.100000,0,0,0.000000,6,1.000000,0.000000,4.406930,0,0,0,0,0,0,0
5,59999,87,50000,38,10000,49,9999,0.100000,0,0,0.000000,6,6.000000,0.000000,8.064438,0,0,0,0,0,0,0
5,59999,88,50000,82,30000,49,9999,0.100000,0,0,0.000000,6,2.000000,0.000000,2.575212,0,0,0,0,0,0,0
5,59999,89,50000,82,20000,40,9999,0.100000,0,0,0.000000,6,0.000000,0.000000,0.218696,0,0,0,0,0,0,0
5,59999,90,50000,31,20000,40,9999,0.100000,0,0,0.000000,6,0.000000,0.000000,1.076449,0,0,0,0,0,0,0
5,59999,91,50000,31,20000,40,9999,0.100000,0,0,0.000000,6,0.000000,0.000000,1.471559,0,0,0,0,0,0,0
5,59999,92,50000,31,20000,40,9999,0.100000,0,0,0.000000,6,0.000000,0.000000,6.755032,0,0,0,0,0,0,0
5,59999,93,50000,48,0,49,9999,0.100000,0,0,0.000000,6,2.000000,0.000000,7.658048,0,0,0,0,0,0,0
5,59999,94,50000,4,0,49,9999,0.100000,0,0,0.000000,6,2.000000,0.000000,3.975314,0,0,0,0,0,0,0
5,59999,95,50000,4,0,49,9999,0.100000,0,0,0.000000,6,1.000000,0.000000,19.617690,0,0,0,0,0,0,0
5,59999,96,50000,82,30000,40,9999,0.100000,0,0,0.000000,6,0.000000,0.000000,0.623682,0,0,0,0,0,0,0
5,59999,97,50000,4,0,40,9999,0.100000,0,0,0.000000,6,0.000000,0.000000,0.148291,0,0,0,0,0,0,0
5,59999,98,50000,38,10000,49,9999,0.100000,0,0,0.000000,6,5.000000,0.000000,17.822212,0,0,0,0,0,0,0
5,59999,99,50000,82,30000,40,9999,0.100000,0,0,0.000000,6,0.000000,0.000000,2.889647,0,0,0,0,0,0,0
6,69999,0,60000,4,0,40,9999,0.100000,0,0,0.000000,6,0.000000,0.000000,1.360927,0,0,0,0,0,0,0
6,69999,1,60000,38,10000,49,9999,0.100000,0,0,0.000000,6,1.000000,0.000000,3.524617,0,0,0,0,0,0,0
6,69999,2,60000,4,0,49,9999,0.100000,0,0,0.000000,6,1.000000,0.000000,2.182451,0,0,0,0,0,0,0
6,69999,3,60000,31,20000,49,9999,0.100000,0,0,0.000000,6,1.000000,0.000000,2.138196,0,0,0,0,0,0,0
6,69999,4,60000,38,10000,49,9999,0.100000,0,0,0.000000,6,2.000000,0.000000,2.267048,0,0,0,0,0,0,0
6,69999,5,60000,31,20000,40,9999,0.100000,0,0,0.000000,6,0.000000,0.000000,3.969694,0,0,0,0,0,0,0
6,69999,6,60000,82,20000,40,9999,0.100000,0,0,0.000000,6,0.000000,0.000000,0.637354,0,0,0,0,0,0,0
6,69999,7,60000,38,10000,49,9999,0.100000,0,0,0.000000,6,1.000000,0.000000,7.694833,0,0,0,0,0,0,0
6,69999,8,60000,48,0,40,9999,0.100000,0,0,0.000000,6,0.000000,0.000000,1.576268,0,0,0,0,0,0,0
6,69999,9,60000,82,20000,40,9999,0.100000,0,0,0.000000,6,0.000000,0.000000,0.496690,0,0,0,0,0,0,0
6,69999,10,60000,48,0,40,9999,0.100000,0,0,0.000000,6,0.000000,0.000000,0.145781,0,0,0,0,0,0,0
6,69999,11,60000,31,20000,40,9999,0.100000,0,0,0.000000,6,0.000000,0.000000,0.758303,0,0,0,0,0,0,0
6,69999,12,60000,82,30000,49,9999,0.100000,0,0,0.000000,6,9.000000,0.000000,20.457919,0,0,0,0,0,0,0
6,69999,13,60000,4,0,40,9999,0.100000,0,0,0.000000,6,0.000000,0.000000,0.252251,0,0,0,0,0,0,0
6,69999,14,60000,82,20000,40,9999,0.100000,0,0,0.000000,6,0.000000,0.000000,2.789807,0,0,0,0,0,0,0
6,69999,15,60000,4,0,49,9999,0.100000,0,0,0.000000,6,1.000000,0.000000,1.342905,0,0,0,0,0,0,0
6,69999,16,60000,82,30000,49,9999,0.100000,0,0,0.000000,6,1.000000,0.000000,1.551255,0,0,0,0,0,0,0
6,69999,17,60000,48,0,40,9999,0.100000,0,0,0.000000,6,0.000000,0.000000,0.112550,0,0,0,0,0,0,0
6,69999,18,60000,4,0,40,9999,0.100000,0,0,0.000000,6,0.000000,0.000000,0.111587,0,0,0,0,0,0,0
6,69999,19,60000,4,0,40,9999,0.100000,0,0,0.000000,6,0.000000,0.000000,0.205627,0,0,0,0,0,0,0
6,69999,20,60000,4,0,40,9999,0.065000,0,0,0.000000,6,0.000000,0.000000,0.152488,0,0,0,0,0,0,0
6,69999,21,60000,4,0,40,9999,0.100000,0,0,0.000000,6,0.000000,0.000000,5.677640,0,0,0,0,0,0,0
6,69999,22,60000,82,30000,40,9999,0.100000,0,0,0.000000,6,0.000000,0.000000,0.152572,0,0,0,0,0,0,0
6,69999,23,60000,38,10000,40,9999,0.100000,0,0,0.000000,6,0.000000,0.000000,0.110110,0,0,0,0,0,0,0
6,69999,24,60000,38,10000,40,9999,0.100000,0,0,0.000000,6,0.000000,0.000000,1.234622,0,0,0,0,0,0,0
6,69999,25,60000,82,30000,49,9999,0.100000,0,0,0.000000,6,2.000000,0.000000,4.943707,0,0,0,0,0,0,0
6,69999,26,60000,48,0,40,9999,0.135000,0,0,0.000000,6,0.000000,0.000000,0.183272,0,0,0,0,0,0,0
6,69999,27,60000,82,20000,49,9999,0.100000,0,0,0.000000,6,1.000000,0.000000,3.933728,0,0,0,0,0,0,0
6,69999,28,60000,31,20000,40,9999,0.100000,0,0,0.000000,6,0.000000,0.000000,0.719530,0,0,0,0,0,0,0
6,69999,29,60000,82,20000,40,9999,0.100000,0,0,0.000000,6,0.000000,0.000000,0.419183,0,0,0,0,0,0,0
6,69999,30,60000,31,20000,40,9999,0.100000,0,0,0.000000,6,0.000000,0.000000,0.163885,0,0,0,0,0,0,0
6,69999,31,60000,31,20000,49,9999,0.100000,0,0,0.000000,6,1.000000,0.000000,3.164010,0,0,0,0,0,0,0
6,69999,32,60000,82,30000,49,9999,0.100000,0,0,0.000000,6,1.000000,0.000000,6.307263,0,0,0,0,0,0,0
6,69999,33,60000,38,10000,40,9999,0.100000,0,0,0.000000,6,0.000000,0.000000,0.424609,0,0,0,0,0,0,0
6,69999,34,60000,82,30000,40,9999,0.100000,0,0,0.000000,6,0.000000,0.000000,0.726745,0,0,0,0,0,0,0
6,69999,35,60000,31,20000,40,9999,0.100000,0,0,0.000000,6,0.000000,0.000000,2.879499,0,0,0,0,0,0,0
6,69999,36,60000,31,20000,40,9999,0.100000,0,0,0.000000,6,0.000000,0.000000,0.183678,0,0,0,0,0,0,0
6,69999,37,60000,4,0,40,9999,0.100000,0,0,0.000000,6,0.000000,0.000000,0.285343,0,0,0,0,0,0,0
6,69999,38,60000,82,20000,40,9999,0.100000,0,0,0.000000,6,0.000000,0.000000,0.585464,0,0,0,0,0,0,0
6,69999,39,60000,82,30000,40,9999,0.100000,0,0,0.000000,6,0.000000,0.000000,0.461543,0,0,0,0,0,0,0
6,69999,40,60000,38,10000,49,9999,0.100000,0,0,0.000000,6,1.000000,0.000000,7.551535,0,0,0,0,0,0,0
6,69999,41,60000,82,30000,40,9999,0.100000,0,0,0.000000,6,0.000000,0.000000,0.524484,0,0,0,0,0,0,0
6,69999,42,60000,38,10000,40,9999,0.100000,0,0,0.000000,6,0.000000,0.000000,0.616147,0,0,0,0,0,0,0
6,69999,43,60000,31,20000,40,9999,0.100000,0,0,0.000000,6,0.000000,0.000000,2.749615,0,0,0,0,0,0,0
6,69999,44,60000,48,0,40,9999,0.100000,0,0,0.000000,6,0.000000,0.000000,0.578338,0,0,0,0,0,0,0
6,69999,45,60000,82,30000,40,9999,0.100000,0,0,0.000000,6,0.000000,0.000000,0.256974,0,0,0,0,0,0,0
6,69999,46,60000,31,20000,40,9999,0.100000,0,0,0.000000,6,0.000000,0.000000,0.191415,0,0,0,0,0,0,0
6,69999,47,60000,4,0,40,9999,0.100000,0,0,0.000000,6,0.000000,0.000000,1.112940,0,0,0,0,0,0,0
6,69999,48,60000,31,20000,40,9999,0.100000,0,0,0.000000,6,0.000000,0.000000,0.165450,0,0,0,0,0,0,0
6,69999,49,60000,82,30000,40,9999,0.100000,0,0,0.000000,6,0.000000,0.000000,4.730026,0,0,0,0,0,0,0
6,69999,50,60000,48,0,40,9999,0.100000,0,0,0.000000,6,0.000000,0.000000,0.315265,0,0,0,0,0,0,0
6,69999,51,60000,38,10000,49,9999,0.100000,0,0,0.000000,6,3.000000,0.000000,16.981855,0,0,0,0,0,0,0
6,69999,52,60000,82,30000,49,9999,0.100000,0,0,0.000000,6,3.000000,0.000000,3.542437,0,0,0,0,0,0,0
6,69999,53,60000,48,0,40,9999,0.100000,0,0,0.000000,6,0.000000,0.000000,0.301469,0,0,0,0,0,0,0
6,69999,54,60000,82,20000,49,9999,0.100000,0,0,0.000000,6,10.000000,0.000000,14.004828,0,0,0,0,0,0,0
6,69999,55,60000,48,0,40,9999,0.100000,0,0,0.000000,6,0.000000,0.000000,0.122546,0,0,0,0,0,0,0
6,69999,56,60000,48,0,49,9999,0.100000,0,0,0.000000,6,1.000000,0.000000,3.234829,0,0,0,0,0,0,0
6,69999,57,60000,82,20000,40,9999,0.100000,0,0,0.000000,6,0.000000,0.000000,0.593518,0,0,0,0,0,0,0
6,69999,58,60000,31,20000,40,9999,0.100000,0,0,0.000000,6,0.000000,0.000000,1.440163,0,0,0,0,0,0,0
6,69999,59,60000,48,0,40,9999,0.100000,0,0,0.000000,6,0.000000,0.000000,0.201408,0,0,0,0,0,0,0
6,69999,60,60000,48,0,49,9999,0.100000,0,0,0.000000,6,1.000000,0.000000,2.737246,0,0,0,0,0,0,0
6,69999,61,60000,48,0,40,9999,0.100000,0,0,0.000000,6,0.000000,0.000000,2.436134,0,0,0,0,0,0,0
6,69999,62,60000,82,20000,49,9999,0.100000,0,0,0.000000,6,6.000000,0.000000,14.625116,0,0,0,0,0,0,0
6,69999,63,60000,38,10000,40,9999,0.100000,0,0,0.000000,6,0.000000,0.000000,1.132688,0,0,0,0,0,0,0
6,69999,64,60000,82,20000,49,9999,0.100000,0,0,0.000000,6,2.000000,0.000000,7.829141,0,0,0,0,0,0,0
6,69999,65,60000,31,20000,40,9999,0.100000,0,0,0.000000,6,0.000000,0.000000,0.717907,0,0,0,0,0,0,0
6,69999,66,60000,82,20000,40,9999,0.100000,0,0,0.000000,6,0.000000,0.000000,1.158760,0,0,0,0,0,0,0
6,69999,67,60000,4,0,49,9999,0.100000,0,0,0.000000,6,1.000000,0.000000,1.520468,0,0,0,0,0,0,0
6,69999,68,60000,82,30000,40,9999,0.100000,0,0,0.000000,6,0.000000,0.000000,2.247095,0,0,0,0,0,0,0
6,69999,69,60000,38,10000,40,9999,0.100000,0,0,0.000000,6,0.000000,0.000000,0.270252,0,0,0,0,0,0,0
6,69999,70,60000,4,0,40,9999,0.100000,0,0,0.000000,6,0.000000,0.000000,1.476048,0,0,0,0,0,0,0
6,69999,71,60000,48,0,40,9999,0.100000,0,0,0.000000,6,0.000000,0.000000,1.915888,0,0,0,0,0,0,0
6,69999,72,60000,31,20000,40,9999,0.100000,0,0,0.000000,6,0.000000,0.000000,0.127798,0,0,0,0,0,0,0
6,69999,73,60000,4,0,49,9999,0.100000,0,0,0.000000,6,5.000000,0.000000,23.997594,0,0,0,0,0,0,0
6,69999,74,60000,48,0,49,9999,0.100000,0,0,0.000000,6,2.000000,0.000000,10.671097,0,0,0,0,0,0,0
6,69999,75,60000,4,0,49,9999,0.100000,0,0,0.000000,6,1.000000,0.000000,1.974916,0,0,0,0,0,0,0
6,69999,76,60000,82,20000,40,9999,0.100000,0,0,0.000000,6,0.000000,0.000000,0.233624,0,0,0,0,0,0,0
6,69999,77,60000,82,20000,40,9999,0.100000,0,0,0.000000,6,0.000000,0.000000,0.014940,0,0,0,0,0,0,0
6,69999,78,60000,48,0,49,9999,0.100000,0,0,0.000000,6,2.000000,0.000000,3.601246,0,0,0,0,0,0,0
6,69999,79,60000,82,20000,49,9999,0.100000,0,0,0.000000,6,1.000000,0.000000,22.064406,0,0,0,0,0,0,0
6,69999,80,60000,38,10000,40,9999,0.100000,0,0,0.000000,6,0.000000,0.000000,0.894050,0,0,0,0,0,0,0
6,69999,81,60000,38,10000,40,9999,0.100000,0,0,0.000000,6,0.000000,0.000000,0.813955,0,0,0,0,0,0,0
6,69999,82,60000,38,10000,40,9999,0.100000,0,0,0.000000,6,0.000000,0.000000,0.290510,0,0,0,0,0,0,0
6,69999,83,60000,4,0,49,9999,0.100000,0,0,0.000000,6,2.000000,0.000000,2.786948,0,0,0,0,0,0,0
6,69999,84,60000,4,0,49,9999,0.100000,0,0,0.000000,6,1.000000,0.000000,2.348073,0,0,0,0,0,0,0
6,69999,85,60000,48,0,40,9999,0.100000,0,0,0.000000,6,0.000000,0.000000,2.512742,0,0,0,0,0,0,0
6,69999,86,60000,4,0,49,9999,0.100000,0,0,0.000000,6,2.000000,0.000000,5.428113,0,0,0,0,0,0,0
6,69999,87,60000,82,20000,49,9999,0.100000,0,0,0.000000,6,2.000000,0.000000,3.198237,0,0,0,0,0,0,0
6,69999,88,60000,48,0,49,9999,0.100000,0,0,0.000000,6,2.000000,0.000000,8.473572,0,0,0,0,0,0,0
6,69999,89,60000,48,0,40,9999,0.100000,0,0,0.000000,6,0.000000,0.000000,0.138484,0,0,0,0,0,0,0
6,69999,90,60000,82,20000,40,9999,0.100000,0,0,0.000000,6,0.000000,0.000000,0.488078,0,0,0,0,0,0,0
6,69999,91,60000,48,0,40,9999,0.100000,0,0,0.000000,6,0.000000,0.000000,0.193208,0,0,0,0,0,0,0
6,69999,92,60000,4,0,49,9999,0.100000,0,0,0.000000,6,3.000000,0.000000,22.236378,0,0,0,0,0,0,0
6,69999,93,60000,82,20000,49,9999,0.100000,0,0,0.000000,6,1.000000,0.000000,3.360443,0,0,0,0,0,0,0
6,69999,94,60000,4,0,49,9999,0.100000,0,0,0.000000,6,1.000000,0.000000,5.131286,0,0,0,0,0,0,0
6,69999,95,60000,4,0,40,9999,0.100000,0,0,0.000000,6,0.000000,0.000000,23.145889,0,0,0,0,0,0,0
6,69999,96,60000,31,20000,40,9999,0.100000,0,0,0.000000,6,0.000000,0.000000,0.472050,0,0,0,0,0,0,0
6,69999,97,60000,82,20000,40,9999,0.100000,0,0,0.000000,6,0.000000,0.000000,0.455890,0,0,0,0,0,0,0
6,69999,98,60000,4,0,49,9999,0.100000,0,0,0.000000,6,1.000000,0.000000,4.667764,0,0,0,0,0,0,0
6,69999,99,60000,82,30000,40,9999,0.100000,0,0,0.000000,6,0.000000,0.000000,1.471853,0,0,0,0,0,0,0
