generation,iteration,robot,birthday,ancestor_id,ancestor_birthday,cell_id,age,sigma,maps,genomes,fitness,cells_in_map,dist_max,dist_pot_max,dist_total,com_rx,com_tx,obj_group1,obj_group2,obj_group3,obj_group4,obj_group5
0,9999,0,0,0,0,1,9999,0.100000,0,0,0.000000,0,10.000000,0.000000,14.891689,0,0,0,0,0,0,0
0,9999,1,0,1,0,1,9999,0.100000,0,0,0.000000,0,11.000000,0.000000,14.208799,0,0,0,0,0,0,0
0,9999,2,0,2,0,1,9999,0.100000,0,0,0.000000,0,10.000000,0.000000,17.817730,0,0,0,0,0,0,0
0,9999,3,0,3,0,1,9999,0.100000,0,0,0.000000,0,9.000000,0.000000,10.470838,0,0,0,0,0,0,0
0,9999,4,0,4,0,1,9999,0.100000,0,0,0.000000,0,8.000000,0.000000,17.809925,0,0,0,0,0,0,0
0,9999,5,0,5,0,1,9999,0.100000,0,0,0.000000,0,11.000000,0.000000,13.084153,0,0,0,0,0,0,0
0,9999,6,0,6,0,1,9999,0.100000,0,0,0.000000,0,11.000000,0.000000,19.334046,0,0,0,0,0,0,0
0,9999,7,0,7,0,1,9999,0.100000,0,0,0.000000,0,7.000000,0.000000,12.110071,0,0,0,0,0,0,0
0,9999,8,0,8,0,1,9999,0.100000,0,0,0.000000,0,9.000000,0.000000,12.324216,0,0,0,0,0,0,0
0,9999,9,0,9,0,1,9999,0.100000,0,0,0.000000,0,9.000000,0.000000,13.731411,0,0,0,0,0,0,0
0,9999,10,0,10,0,1,9999,0.100000,0,0,0.000000,0,4.000000,0.000000,18.765230,0,0,0,0,0,0,0
0,9999,11,0,11,0,1,9999,0.100000,0,0,0.000000,0,7.000000,0.000000,19.947844,0,0,0,0,0,0,0
0,9999,12,0,12,0,1,9999,0.100000,0,0,0.000000,0,11.000000,0.000000,12.939855,0,0,0,0,0,0,0
0,9999,13,0,13,0,1,9999,0.100000,0,0,0.000000,0,4.000000,0.000000,8.999366,0,0,0,0,0,0,0
0,9999,14,0,14,0,1,9999,0.100000,0,0,0.000000,0,4.000000,0.000000,20.301530,0,0,0,0,0,0,0
0,9999,15,0,15,0,1,9999,0.100000,0,0,0.000000,0,6.000000,0.000000,14.287962,0,0,0,0,0,0,0
0,9999,16,0,16,0,1,9999,0.100000,0,0,0.000000,0,10.000000,0.000000,22.182667,0,0,0,0,0,0,0
0,9999,17,0,17,0,1,9999,0.100000,0,0,0.000000,0,9.000000,0.000000,12.904239,0,0,0,0,0,0,0
0,9999,18,0,18,0,1,9999,0.100000,0,0,0.000000,0,6.000000,0.000000,16.588106,0,0,0,0,0,0,0
0,9999,19,0,19,0,1,9999,0.100000,0,0,0.000000,0,10.000000,0.000000,18.306634,0,0,0,0,0,0,0
0,9999,20,0,20,0,1,9999,0.100000,0,0,0.000000,0,11.000000,0.000000,17.562333,0,0,0,0,0,0,0
0,9999,21,0,21,0,1,9999,0.100000,0,0,47.368421,0,10.000000,0.000000,15.794849,0,0,0,1,0,0,0
0,9999,22,0,22,0,1,9999,0.100000,0,0,0.000000,0,4.000000,0.000000,19.347885,0,0,0,0,0,0,0
0,9999,23,0,23,0,1,9999,0.100000,0,0,0.000000,0,2.000000,0.000000,6.036467,0,0,0,0,0,0,0
0,9999,24,0,24,0,1,9999,0.100000,0,0,0.000000,0,10.000000,0.000000,27.788799,0,0,0,0,0,0,0
0,9999,25,0,25,0,1,9999,0.100000,0,0,0.000000,0,7.000000,0.000000,13.950447,0,0,0,0,0,0,0
0,9999,26,0,26,0,1,9999,0.100000,0,0,0.000000,0,7.000000,0.000000,15.756987,0,0,0,0,0,0,0
0,9999,27,0,27,0,1,9999,0.100000,0,0,0.000000,0,7.000000,0.000000,9.541785,0,0,0,0,0,0,0
0,9999,28,0,28,0,1,9999,0.100000,0,0,0.000000,0,10.000000,0.000000,20.056936,0,0,0,0,0,0,0
0,9999,29,0,29,0,1,9999,0.100000,0,0,0.000000,0,3.000000,0.000000,14.301188,0,0,0,0,0,0,0
0,9999,30,0,30,0,1,9999,0.100000,0,0,0.000000,0,7.000000,0.000000,8.323520,0,0,0,0,0,0,0
0,9999,31,0,31,0,1,9999,0.100000,0,0,0.000000,0,2.000000,0.000000,12.155828,0,0,0,0,0,0,0
0,9999,32,0,32,0,1,9999,0.100000,0,0,0.000000,0,8.000000,0.000000,14.462465,0,0,0,0,0,0,0
0,9999,33,0,33,0,1,9999,0.100000,0,0,0.000000,0,7.000000,0.000000,14.139231,0,0,0,0,0,0,0
0,9999,34,0,34,0,1,9999,0.100000,0,0,0.000000,0,11.000000,0.000000,29.903575,0,0,0,0,0,0,0
0,9999,35,0,35,0,1,9999,0.100000,0,0,0.000000,0,11.000000,0.000000,17.287621,0,0,0,0,0,0,0
0,9999,36,0,36,0,1,9999,0.100000,0,0,0.000000,0,9.000000,0.000000,19.524435,0,0,0,0,0,0,0
0,9999,37,0,37,0,1,9999,0.100000,0,0,0.000000,0,11.000000,0.000000,13.766381,0,0,0,0,0,0,0
0,9999,38,0,38,0,1,9999,0.100000,0,0,0.000000,0,3.000000,0.000000,18.574326,0,0,0,0,0,0,0
0,9999,39,0,39,0,1,9999,0.100000,0,0,0.000000,0,6.000000,0.000000,12.237666,0,0,0,0,0,0,0
0,9999,40,0,40,0,1,9999,0.100000,0,0,0.000000,0,12.000000,0.000000,28.460000,0,0,0,0,0,0,0
0,9999,41,0,41,0,1,9999,0.100000,0,0,0.000000,0,8.000000,0.000000,13.339558,0,0,0,0,0,0,0
0,9999,42,0,42,0,1,9999,0.100000,0,0,0.000000,0,7.000000,0.000000,20.801715,0,0,0,0,0,0,0
0,9999,43,0,43,0,1,9999,0.100000,0,0,0.000000,0,8.000000,0.000000,15.591570,0,0,0,0,0,0,0
0,9999,44,0,44,0,1,9999,0.100000,0,0,0.000000,0,10.000000,0.000000,14.672093,0,0,0,0,0,0,0
0,9999,45,0,45,0,1,9999,0.100000,0,0,0.000000,0,5.000000,0.000000,16.672790,0,0,0,0,0,0,0
0,9999,46,0,46,0,1,9999,0.100000,0,0,0.000000,0,2.000000,0.000000,3.109788,0,0,0,0,0,0,0
0,9999,47,0,47,0,1,9999,0.100000,0,0,0.000000,0,8.000000,0.000000,13.524022,0,0,0,0,0,0,0
0,9999,48,0,48,0,1,9999,0.100000,0,0,0.000000,0,7.000000,0.000000,7.720547,0,0,0,0,0,0,0
0,9999,49,0,49,0,1,9999,0.100000,0,0,0.000000,0,7.000000,0.000000,14.517496,0,0,0,0,0,0,0
0,9999,50,0,50,0,1,9999,0.100000,0,0,0.000000,0,9.000000,0.000000,13.375356,0,0,0,0,0,0,0
0,9999,51,0,51,0,1,9999,0.100000,0,0,0.000000,0,4.000000,0.000000,12.191133,0,0,0,0,0,0,0
0,9999,52,0,52,0,3,9999,0.100000,0,0,24.793928,0,8.000000,0.000000,15.688578,0,0,1,0,0,0,0
0,9999,53,0,53,0,1,9999,0.100000,0,0,0.000000,0,9.000000,0.000000,10.293031,0,0,0,0,0,0,0
0,9999,54,0,54,0,1,9999,0.100000,0,0,0.000000,0,9.000000,0.000000,17.997229,0,0,0,0,0,0,0
0,9999,55,0,55,0,1,9999,0.100000,0,0,0.000000,0,10.000000,0.000000,25.909539,0,0,0,0,0,0,0
0,9999,56,0,56,0,1,9999,0.100000,0,0,0.000000,0,9.000000,0.000000,13.025259,0,0,0,0,0,0,0
0,9999,57,0,57,0,1,9999,0.100000,0,0,0.000000,0,5.000000,0.000000,17.701280,0,0,0,0,0,0,0
0,9999,58,0,58,0,1,9999,0.100000,0,0,0.000000,0,8.000000,0.000000,16.026906,0,0,0,0,0,0,0
0,9999,59,0,59,0,1,9999,0.100000,0,0,0.000000,0,6.000000,0.000000,6.707162,0,0,0,0,0,0,0
0,9999,60,0,60,0,1,9999,0.100000,0,0,0.000000,0,5.000000,0.000000,15.363514,0,0,0,0,0,0,0
0,9999,61,0,61,0,1,9999,0.100000,0,0,0.000000,0,8.000000,0.000000,15.678406,0,0,0,0,0,0,0
0,9999,62,0,62,0,1,9999,0.100000,0,0,47.368421,0,10.000000,0.000000,17.489717,0,0,0,1,0,0,0
0,9999,63,0,63,0,1,9999,0.100000,0,0,0.000000,0,8.000000,0.000000,12.375810,0,0,0,0,0,0,0
0,9999,64,0,64,0,1,9999,0.100000,0,0,0.000000,0,9.000000,0.000000,14.409408,0,0,0,0,0,0,0
0,9999,65,0,65,0,1,9999,0.100000,0,0,0.000000,0,5.000000,0.000000,21.683164,0,0,0,0,0,0,0
0,9999,66,0,66,0,1,9999,0.100000,0,0,0.000000,0,6.000000,0.000000,14.469349,0,0,0,0,0,0,0
0,9999,67,0,67,0,1,9999,0.100000,0,0,0.000000,0,6.000000,0.000000,18.293699,0,0,0,0,0,0,0
0,9999,68,0,68,0,1,9999,0.100000,0,0,0.000000,0,11.000000,0.000000,24.768178,0,0,0,0,0,0,0
0,9999,69,0,69,0,1,9999,0.100000,0,0,0.000000,0,9.000000,0.000000,16.521285,0,0,0,0,0,0,0
0,9999,70,0,70,0,1,9999,0.100000,0,0,0.000000,0,9.000000,0.000000,15.185138,0,0,0,0,0,0,0
0,9999,71,0,71,0,1,9999,0.100000,0,0,0.000000,0,10.000000,0.000000,18.369310,0,0,0,0,0,0,0
0,9999,72,0,72,0,1,9999,0.100000,0,0,0.000000,0,5.000000,0.000000,16.557894,0,0,0,0,0,0,0
0,9999,73,0,73,0,1,9999,0.100000,0,0,0.000000,0,8.000000,0.000000,9.927716,0,0,0,0,0,0,0
0,9999,74,0,74,0,1,9999,0.100000,0,0,0.000000,0,10.000000,0.000000,23.824146,0,0,0,0,0,0,0
0,9999,75,0,75,0,1,9999,0.100000,0,0,0.000000,0,7.000000,0.000000,12.176639,0,0,0,0,0,0,0
0,9999,76,0,76,0,1,9999,0.100000,0,0,0.000000,0,11.000000,0.000000,23.467741,0,0,0,0,0,0,0
0,9999,77,0,77,0,1,9999,0.100000,0,0,0.000000,0,9.000000,0.000000,15.324111,0,0,0,0,0,0,0
0,9999,78,0,78,0,1,9999,0.100000,0,0,0.000000,0,5.000000,0.000000,10.199180,0,0,0,0,0,0,0
0,9999,79,0,79,0,1,9999,0.100000,0,0,0.000000,0,12.000000,0.000000,26.403380,0,0,0,0,0,0,0
0,9999,80,0,80,0,1,9999,0.100000,0,0,0.000000,0,10.000000,0.000000,17.638094,0,0,0,0,0,0,0
0,9999,81,0,81,0,1,9999,0.100000,0,0,0.000000,0,7.000000,0.000000,28.229556,0,0,0,0,0,0,0
0,9999,82,0,82,0,1,9999,0.100000,0,0,0.000000,0,8.000000,0.000000,17.892487,0,0,0,0,0,0,0
0,9999,83,0,83,0,1,9999,0.100000,0,0,0.000000,0,12.000000,0.000000,19.645004,0,0,0,0,0,0,0
0,9999,84,0,84,0,1,9999,0.100000,0,0,0.000000,0,13.000000,0.000000,23.617554,0,0,0,0,0,0,0
0,9999,85,0,85,0,1,9999,0.100000,0,0,0.000000,0,3.000000,0.000000,16.637770,0,0,0,0,0,0,0
0,9999,86,0,86,0,1,9999,0.100000,0,0,0.000000,0,12.000000,0.000000,13.879853,0,0,0,0,0,0,0
0,9999,87,0,87,0,1,9999,0.100000,0,0,0.000000,0,7.000000,0.000000,19.482288,0,0,0,0,0,0,0
0,9999,88,0,88,0,1,9999,0.100000,0,0,0.000000,0,9.000000,0.000000,12.090023,0,0,0,0,0,0,0
0,9999,89,0,89,0,1,9999,0.100000,0,0,0.000000,0,5.000000,0.000000,12.794758,0,0,0,0,0,0,0
0,9999,90,0,90,0,1,9999,0.100000,0,0,0.000000,0,9.000000,0.000000,27.299456,0,0,0,0,0,0,0
0,9999,91,0,91,0,1,9999,0.100000,0,0,0.000000,0,9.000000,0.000000,12.098042,0,0,0,0,0,0,0
0,9999,92,0,92,0,1,9999,0.100000,0,0,0.000000,0,1.000000,0.000000,10.172674,0,0,0,0,0,0,0
0,9999,93,0,93,0,1,9999,0.100000,0,0,0.000000,0,4.000000,0.000000,27.280605,0,0,0,0,0,0,0
0,9999,94,0,94,0,1,9999,0.100000,0,0,0.000000,0,2.000000,0.000000,3.082693,0,0,0,0,0,0,0
0,9999,95,0,95,0,1,9999,0.100000,0,0,0.000000,0,8.000000,0.000000,17.003211,0,0,0,0,0,0,0
0,9999,96,0,96,0,1,9999,0.100000,0,0,0.000000,0,7.000000,0.000000,13.443583,0,0,0,0,0,0,0
0,9999,97,0,97,0,1,9999,0.100000,0,0,0.000000,0,9.000000,0.000000,21.377321,0,0,0,0,0,0,0
0,9999,98,0,98,0,1,9999,0.100000,0,0,0.000000,0,2.000000,0.000000,8.881854,0,0,0,0,0,0,0
0,9999,99,0,99,0,1,9999,0.100000,0,0,0.000000,0,3.000000,0.000000,4.361614,0,0,0,0,0,0,0
1,19999,0,10000,0,0,1,9999,0.100000,0,0,0.000000,1,1.000000,0.000000,9.912402,0,0,0,0,0,0,0
1,19999,1,10000,52,0,0,9999,0.100000,0,0,0.000000,2,0.000000,0.000000,0.771132,0,0,0,0,0,0,0
1,19999,2,10000,52,0,0,9999,0.100000,0,0,0.000000,2,0.000000,0.000000,0.866306,0,0,0,0,0,0,0
1,19999,3,10000,62,0,0,9999,0.065000,0,0,0.000000,2,0.000000,0.000000,0.903486,0,0,0,0,0,0,0
1,19999,4,10000,52,0,1,9999,0.100000,0,0,0.000000,2,7.000000,0.000000,17.888812,0,0,0,0,0,0,0
1,19999,5,10000,0,0,1,9999,0.100000,0,0,0.000000,1,2.000000,0.000000,11.903676,0,0,0,0,0,0,0
1,19999,6,10000,52,0,1,9999,0.100000,0,0,0.000000,2,6.000000,0.000000,7.181920,0,0,0,0,0,0,0
1,19999,7,10000,0,0,1,9999,0.100000,0,0,0.000000,2,4.000000,0.000000,16.701695,0,0,0,0,0,0,0
1,19999,8,10000,0,0,0,9999,0.100000,0,0,0.000000,1,0.000000,0.000000,2.142818,0,0,0,0,0,0,0
1,19999,9,10000,52,0,1,9999,0.100000,0,0,0.000000,2,1.000000,0.000000,5.650488,0,0,0,0,0,0,0
1,19999,10,10000,0,0,1,9999,0.100000,0,0,0.000000,1,1.000000,0.000000,7.066799,0,0,0,0,0,0,0
1,19999,11,10000,52,0,1,9999,0.100000,0,0,0.000000,2,3.000000,0.000000,10.912713,0,0,0,0,0,0,0
1,19999,12,10000,37,0,1,9999,0.100000,0,0,0.000000,2,2.000000,0.000000,9.449797,0,0,0,0,0,0,0
1,19999,13,10000,52,0,1,9999,0.100000,0,0,0.000000,2,2.000000,0.000000,7.205388,0,0,0,0,0,0,0
1,19999,14,10000,52,0,1,9999,0.100000,0,0,0.000000,2,3.000000,0.000000,5.103157,0,0,0,0,0,0,0
1,19999,15,10000,0,0,3,9999,0.100000,0,0,65.763091,2,12.000000,0.000000,19.185831,0,0,1,0,0,0,0
1,19999,16,10000,52,0,1,9999,0.100000,0,0,0.000000,2,5.000000,0.000000,10.593696,0,0,0,0,0,0,0
1,19999,17,10000,37,0,1,9999,0.100000,0,0,0.000000,2,17.000000,0.000000,23.244680,0,0,0,0,0,0,0
1,19999,18,10000,0,0,1,9999,0.100000,0,0,0.000000,2,3.000000,0.000000,20.290076,0,0,0,0,0,0,0
1,19999,19,10000,52,0,1,9999,0.100000,0,0,0.000000,2,2.000000,0.000000,12.257923,0,0,0,0,0,0,0
1,19999,20,10000,52,0,0,9999,0.100000,0,0,0.000000,2,0.000000,0.000000,1.728924,0,0,0,0,0,0,0
1,19999,21,10000,62,0,1,9999,0.100000,0,0,0.000000,2,2.000000,0.000000,14.121056,0,0,0,0,0,0,0
1,19999,22,10000,52,0,1,9999,0.100000,0,0,0.000000,2,2.000000,0.000000,6.348137,0,0,0,0,0,0,0
1,19999,23,10000,37,0,1,9999,0.100000,0,0,0.000000,2,3.000000,0.000000,3.539569,0,0,0,0,0,0,0
1,19999,24,10000,37,0,1,9999,0.100000,0,0,0.000000,2,6.000000,0.000000,7.072929,0,0,0,0,0,0,0
1,19999,25,10000,0,0,3,9999,0.100000,0,0,42.362944,1,3.000000,0.000000,19.281421,0,0,1,0,0,0,0
1,19999,26,10000,37,0,1,9999,0.100000,0,0,0.000000,2,4.000000,0.000000,15.184103,0,0,0,0,0,0,0
1,19999,27,10000,52,0,1,9999,0.100000,0,0,0.000000,2,7.000000,0.000000,7.349234,0,0,0,0,0,0,0
1,19999,28,10000,52,0,1,9999,0.100000,0,0,0.000000,2,4.000000,0.000000,11.317933,0,0,0,0,0,0,0
1,19999,29,10000,52,0,1,9999,0.100000,0,0,34.210526,2,8.000000,0.000000,11.672245,0,0,0,0,1,0,0
1,19999,30,10000,52,0,0,9999,0.100000,0,0,0.000000,2,0.000000,0.000000,0.067903,0,0,0,0,0,0,0
1,19999,31,10000,0,0,1,9999,0.100000,0,0,0.000000,1,2.000000,0.000000,6.719692,0,0,0,0,0,0,0
1,19999,32,10000,37,0,1,9999,0.100000,0,0,0.000000,2,3.000000,0.000000,15.614230,0,0,0,0,0,0,0
1,19999,33,10000,52,0,1,9999,0.100000,0,0,0.000000,2,6.000000,0.000000,7.136085,0,0,0,0,0,0,0
1,19999,34,10000,37,0,1,9999,0.100000,0,0,0.000000,2,4.000000,0.000000,8.645600,0,0,0,0,0,0,0
1,19999,35,10000,37,0,1,9999,0.100000,0,0,0.000000,2,4.000000,0.000000,5.472586,0,0,0,0,0,0,0
1,19999,36,10000,62,0,1,9999,0.100000,0,0,0.000000,2,8.000000,0.000000,16.615897,0,0,0,0,0,0,0
1,19999,37,10000,52,0,0,9999,0.100000,0,0,0.000000,2,0.000000,0.000000,0.889852,0,0,0,0,0,0,0
1,19999,38,10000,37,0,1,9999,0.100000,0,0,34.210526,2,6.000000,0.000000,17.610874,0,0,0,0,1,0,0
1,19999,39,10000,52,0,1,9999,0.100000,0,0,0.000000,2,2.000000,0.000000,6.058614,0,0,0,0,0,0,0
1,19999,40,10000,52,0,1,9999,0.100000,0,0,0.000000,2,2.000000,0.000000,5.663998,0,0,0,0,0,0,0
1,19999,41,10000,52,0,1,9999,0.100000,0,0,0.000000,2,1.000000,0.000000,4.186284,0,0,0,0,0,0,0
1,19999,42,10000,52,0,1,9999,0.100000,0,0,0.000000,2,1.000000,0.000000,7.248573,0,0,0,0,0,0,0
1,19999,43,10000,37,0,0,9999,0.100000,0,0,0.000000,2,0.000000,0.000000,1.489599,0,0,0,0,0,0,0
1,19999,44,10000,52,0,1,9999,0.100000,0,0,0.000000,2,2.000000,0.000000,5.222695,0,0,0,0,0,0,0
1,19999,45,10000,37,0,1,9999,0.100000,0,0,0.000000,2,1.000000,0.000000,9.109194,0,0,0,0,0,0,0
1,19999,46,10000,52,0,1,9999,0.100000,0,0,34.210526,2,6.000000,0.000000,11.673864,0,0,0,0,1,0,0
1,19999,47,10000,52,0,0,9999,0.100000,0,0,0.000000,2,0.000000,0.000000,1.841531,0,0,0,0,0,0,0
1,19999,48,10000,52,0,0,9999,0.100000,0,0,0.000000,2,0.000000,0.000000,0.063734,0,0,0,0,0,0,0
1,19999,49,10000,37,0,1,9999,0.100000,0,0,0.000000,2,6.000000,0.000000,16.951786,0,0,0,0,0,0,0
1,19999,50,10000,37,0,0,9999,0.100000,0,0,0.000000,2,0.000000,0.000000,0.454340,0,0,0,0,0,0,0
1,19999,51,10000,62,0,1,9999,0.100000,0,0,0.000000,2,1.000000,0.000000,6.710599,0,0,0,0,0,0,0
1,19999,52,10000,0,0,1,9999,0.100000,0,0,0.000000,2,1.000000,0.000000,12.665464,0,0,0,0,0,0,0
1,19999,53,10000,0,0,0,9999,0.100000,0,0,0.000000,2,0.000000,0.000000,0.606216,0,0,0,0,0,0,0
1,19999,54,10000,37,0,0,9999,0.100000,0,0,0.000000,2,0.000000,0.000000,4.275657,0,0,0,0,0,0,0
1,19999,55,10000,37,0,1,9999,0.100000,0,0,0.000000,2,3.000000,0.000000,18.130760,0,0,0,0,0,0,0
1,19999,56,10000,37,0,0,9999,0.100000,0,0,0.000000,2,0.000000,0.000000,2.818279,0,0,0,0,0,0,0
1,19999,57,10000,37,0,1,9999,0.100000,0,0,0.000000,2,4.000000,0.000000,8.282243,0,0,0,0,0,0,0
1,19999,58,10000,52,0,1,9999,0.100000,0,0,0.000000,2,3.000000,0.000000,13.975043,0,0,0,0,0,0,0
1,19999,59,10000,37,0,0,9999,0.100000,0,0,0.000000,2,0.000000,0.000000,0.042870,0,0,0,0,0,0,0
1,19999,60,10000,37,0,1,9999,0.100000,0,0,0.000000,2,5.000000,0.000000,14.380418,0,0,0,0,0,0,0
1,19999,61,10000,52,0,1,9999,0.100000,0,0,0.000000,2,2.000000,0.000000,6.830804,0,0,0,0,0,0,0
1,19999,62,10000,52,0,1,9999,0.100000,0,0,0.000000,2,2.000000,0.000000,9.656299,0,0,0,0,0,0,0
1,19999,63,10000,62,0,0,9999,0.100000,0,0,0.000000,2,0.000000,0.000000,0.064903,0,0,0,0,0,0,0
1,19999,64,10000,62,0,1,9999,0.100000,0,0,0.000000,2,2.000000,0.000000,6.692240,0,0,0,0,0,0,0
1,19999,65,10000,0,0,0,9999,0.100000,0,0,0.000000,2,0.000000,0.000000,9.959079,0,0,0,0,0,0,0
1,19999,66,10000,52,0,1,9999,0.100000,0,0,0.000000,2,1.000000,0.000000,5.574474,0,0,0,0,0,0,0
1,19999,67,10000,37,0,0,9999,0.135000,0,0,0.000000,2,0.000000,0.000000,0.057388,0,0,0,0,0,0,0
1,19999,68,10000,52,0,1,9999,0.100000,0,0,0.000000,2,7.000000,0.000000,12.479122,0,0,0,0,0,0,0
1,19999,69,10000,52,0,0,9999,0.100000,0,0,0.000000,2,0.000000,0.000000,7.718254,0,0,0,0,0,0,0
1,19999,70,10000,52,0,1,9999,0.100000,0,0,0.000000,2,1.000000,0.000000,1.673436,0,0,0,0,0,0,0
1,19999,71,10000,52,0,1,9999,0.100000,0,0,0.000000,2,3.000000,0.000000,20.799206,0,0,0,0,0,0,0
1,19999,72,10000,37,0,1,9999,0.100000,0,0,0.000000,2,6.000000,0.000000,15.429839,0,0,0,0,0,0,0
1,19999,73,10000,37,0,0,9999,0.100000,0,0,0.000000,2,0.000000,0.000000,0.511202,0,0,0,0,0,0,0
1,19999,74,10000,37,0,0,9999,0.100000,0,0,0.000000,2,0.000000,0.000000,1.476272,0,0,0,0,0,0,0
1,19999,75,10000,37,0,1,9999,0.100000,0,0,0.000000,2,3.000000,0.000000,7.489566,0,0,0,0,0,0,0
1,19999,76,10000,52,0,3,9999,0.100000,0,0,81.858756,2,18.000000,0.000000,23.837392,0,0,1,0,0,0,0
1,19999,77,10000,52,0,1,9999,0.100000,0,0,0.000000,2,4.000000,0.000000,9.524934,0,0,0,0,0,0,0
1,19999,78,10000,37,0,3,9999,0.100000,0,0,65.961643,2,10.000000,0.000000,20.283949,0,0,1,0,0,0,0
1,19999,79,10000,52,0,1,9999,0.100000,0,0,0.000000,2,5.000000,0.000000,8.055415,0,0,0,0,0,0,0
1,19999,80,10000,37,0,1,9999,0.100000,0,0,0.000000,2,5.000000,0.000000,13.762419,0,0,0,0,0,0,0
1,19999,81,10000,37,0,1,9999,0.100000,0,0,0.000000,2,4.000000,0.000000,13.462584,0,0,0,0,0,0,0
1,19999,82,10000,37,0,1,9999,0.100000,0,0,0.000000,2,3.000000,0.000000,21.677950,0,0,0,0,0,0,0
1,19999,83,10000,37,0,0,9999,0.100000,0,0,0.000000,2,0.000000,0.000000,0.808796,0,0,0,0,0,0,0
1,19999,84,10000,37,0,1,9999,0.100000,0,0,0.000000,2,2.000000,0.000000,7.973036,0,0,0,0,0,0,0
1,19999,85,10000,52,0,1,9999,0.100000,0,0,0.000000,2,1.000000,0.000000,5.249612,0,0,0,0,0,0,0
1,19999,86,10000,52,0,1,9999,0.100000,0,0,0.000000,2,1.000000,0.000000,2.166800,0,0,0,0,0,0,0
1,19999,87,10000,37,0,1,9999,0.100000,0,0,0.000000,2,8.000000,0.000000,22.729465,0,0,0,0,0,0,0
1,19999,88,10000,37,0,0,9999,0.100000,0,0,0.000000,2,0.000000,0.000000,1.008834,0,0,0,0,0,0,0
1,19999,89,10000,62,0,1,9999,0.100000,0,0,0.000000,2,3.000000,0.000000,12.068699,0,0,0,0,0,0,0
1,19999,90,10000,52,0,1,9999,0.100000,0,0,0.000000,2,1.000000,0.000000,7.228107,0,0,0,0,0,0,0
1,19999,91,10000,37,0,0,9999,0.100000,0,0,0.000000,2,0.000000,0.000000,1.053553,0,0,0,0,0,0,0
1,19999,92,10000,52,0,1,9999,0.100000,0,0,0.000000,2,3.000000,0.000000,6.234564,0,0,0,0,0,0,0
1,19999,93,10000,62,0,0,9999,0.100000,0,0,0.000000,2,0.000000,0.000000,1.997510,0,0,0,0,0,0,0
1,19999,94,10000,37,0,1,9999,0.100000,0,0,0.000000,2,2.000000,0.000000,3.198832,0,0,0,0,0,0,0
1,19999,95,10000,52,0,1,9999,0.100000,0,0,0.000000,2,3.000000,0.000000,14.157226,0,0,0,0,0,0,0
1,19999,96,10000,37,0,1,9999,0.100000,0,0,0.000000,2,3.000000,0.000000,14.611315,0,0,0,0,0,0,0
1,19999,97,10000,37,0,1,9999,0.100000,0,0,0.000000,2,6.000000,0.000000,17.601833,0,0,0,0,0,0,0
1,19999,98,10000,52,0,1,9999,0.100000,0,0,0.000000,2,2.000000,0.000000,2.950978,0,0,0,0,0,0,0
1,19999,99,10000,52,0,0,9999,0.100000,0,0,0.000000,2,0.000000,0.000000,1.402260,0,0,0,0,0,0,0
2,29999,0,20000,52,0,1,9999,0.100000,0,0,0.000000,3,1.000000,0.000000,4.883118,0,0,0,0,0,0,0
2,29999,1,20000,68,10000,1,9999,0.100000,0,0,0.000000,3,1.000000,0.000000,3.209304,0,0,0,0,0,0,0
2,29999,2,20000,68,10000,0,9999,0.100000,0,0,0.000000,3,0.000000,0.000000,0.743499,0,0,0,0,0,0,0
2,29999,3,20000,12,10000,1,9999,0.100000,0,0,0.000000,3,1.000000,0.000000,4.625746,0,0,0,0,0,0,0
2,29999,4,20000,53,10000,0,9999,0.100000,0,0,0.000000,3,0.000000,0.000000,1.799730,0,0,0,0,0,0,0
2,29999,5,20000,52,0,0,9999,0.100000,0,0,0.000000,3,0.000000,0.000000,1.767019,0,0,0,0,0,0,0
2,29999,6,20000,37,0,0,9999,0.100000,0,0,0.000000,3,0.000000,0.000000,0.970350,0,0,0,0,0,0,0
2,29999,7,20000,37,0,1,9999,0.100000,0,0,34.210526,2,3.000000,0.000000,13.921751,0,0,0,1,0,0,0
2,29999,8,20000,37,0,0,9999,0.100000,0,0,0.000000,3,0.000000,0.000000,1.996195,0,0,0,0,0,0,0
2,29999,9,20000,12,10000,0,9999,0.100000,0,0,0.000000,3,0.000000,0.000000,1.780173,0,0,0,0,0,0,0
2,29999,10,20000,1,10000,1,9999,0.100000,0,0,0.000000,3,1.000000,0.000000,4.575191,0,0,0,0,0,0,0
2,29999,11,20000,68,10000,1,9999,0.100000,0,0,0.000000,3,2.000000,0.000000,8.246803,0,0,0,0,0,0,0
2,29999,12,20000,52,0,0,9999,0.100000,0,0,0.000000,3,0.000000,0.000000,1.247297,0,0,0,0,0,0,0
2,29999,13,20000,37,0,1,9999,0.100000,0,0,0.000000,2,2.000000,0.000000,10.859934,0,0,0,0,0,0,0
2,29999,14,20000,68,10000,0,9999,0.100000,0,0,0.000000,3,0.000000,0.000000,0.429163,0,0,0,0,0,0,0
2,29999,15,20000,12,10000,1,9999,0.100000,0,0,0.000000,3,4.000000,0.000000,20.744661,0,0,0,0,0,0,0
2,29999,16,20000,52,0,1,9999,0.100000,0,0,0.000000,3,4.000000,0.000000,12.728017,0,0,0,0,0,0,0
2,29999,17,20000,8,10000,0,9999,0.100000,0,0,0.000000,3,0.000000,0.000000,0.191118,0,0,0,0,0,0,0
2,29999,18,20000,12,10000,0,9999,0.100000,0,0,0.000000,3,0.000000,0.000000,14.083352,0,0,0,0,0,0,0
2,29999,19,20000,52,0,0,9999,0.100000,0,0,0.000000,3,0.000000,0.000000,5.394519,0,0,0,0,0,0,0
2,29999,20,20000,76,10000,1,9999,0.100000,0,0,0.000000,3,1.000000,0.000000,3.443383,0,0,0,0,0,0,0
2,29999,21,20000,12,10000,1,9999,0.100000,0,0,34.210526,3,2.000000,0.000000,9.680053,0,0,0,1,0,0,0
2,29999,22,20000,37,0,1,9999,0.100000,0,0,0.000000,3,1.000000,0.000000,10.031068,0,0,0,0,0,0,0
2,29999,23,20000,53,10000,0,9999,0.100000,0,0,0.000000,3,0.000000,0.000000,0.775395,0,0,0,0,0,0,0
2,29999,24,20000,1,10000,0,9999,0.100000,0,0,0.000000,3,0.000000,0.000000,0.914407,0,0,0,0,0,0,0
2,29999,25,20000,1,10000,1,9999,0.100000,0,0,0.000000,3,3.000000,0.000000,8.996676,0,0,0,0,0,0,0
2,29999,26,20000,74,10000,1,9999,0.100000,0,0,0.000000,3,3.000000,0.000000,16.716279,0,0,0,0,0,0,0
2,29999,27,20000,68,10000,1,9999,0.100000,0,0,0.000000,3,8.000000,0.000000,21.138909,0,0,0,0,0,0,0
2,29999,28,20000,1,10000,1,9999,0.100000,0,0,0.000000,3,3.000000,0.000000,7.941318,0,0,0,0,0,0,0
2,29999,29,20000,68,10000,1,9999,0.100000,0,0,0.000000,3,2.000000,0.000000,4.567273,0,0,0,0,0,0,0
2,29999,30,20000,68,10000,0,9999,0.100000,0,0,0.000000,3,0.000000,0.000000,0.144106,0,0,0,0,0,0,0
2,29999,31,20000,74,10000,1,9999,0.100000,0,0,0.000000,3,4.000000,0.000000,4.446700,0,0,0,0,0,0,0
2,29999,32,20000,74,10000,1,9999,0.100000,0,0,0.000000,3,1.000000,0.000000,14.620294,0,0,0,0,0,0,0
2,29999,33,20000,1,10000,1,9999,0.100000,0,0,0.000000,3,7.000000,0.000000,17.133454,0,0,0,0,0,0,0
2,29999,34,20000,68,10000,1,9999,0.100000,0,0,0.000000,3,3.000000,0.000000,5.529767,0,0,0,0,0,0,0
2,29999,35,20000,8,10000,0,9999,0.100000,0,0,0.000000,3,0.000000,0.000000,0.263168,0,0,0,0,0,0,0
2,29999,36,20000,68,10000,1,9999,0.100000,0,0,0.000000,3,1.000000,0.000000,4.069078,0,0,0,0,0,0,0
2,29999,37,20000,68,10000,1,9999,0.100000,0,0,0.000000,3,2.000000,0.000000,6.672173,0,0,0,0,0,0,0
2,29999,38,20000,52,0,3,9999,0.100000,0,0,16.393564,3,3.000000,0.000000,11.057782,0,0,1,0,0,0,0
2,29999,39,20000,8,10000,1,9999,0.100000,0,0,0.000000,3,1.000000,0.000000,7.129326,0,0,0,0,0,0,0
2,29999,40,20000,74,10000,1,9999,0.100000,0,0,0.000000,3,2.000000,0.000000,11.093644,0,0,0,0,0,0,0
2,29999,41,20000,12,10000,1,9999,0.100000,0,0,0.000000,3,8.000000,0.000000,11.716271,0,0,0,0,0,0,0
2,29999,42,20000,68,10000,1,9999,0.100000,0,0,0.000000,3,2.000000,0.000000,11.943651,0,0,0,0,0,0,0
2,29999,43,20000,53,10000,1,9999,0.100000,0,0,0.000000,3,1.000000,0.000000,5.441033,0,0,0,0,0,0,0
2,29999,44,20000,12,10000,1,9999,0.100000,0,0,0.000000,3,2.000000,0.000000,21.028388,0,0,0,0,0,0,0
2,29999,45,20000,74,10000,1,9999,0.100000,0,0,0.000000,3,4.000000,0.000000,4.498804,0,0,0,0,0,0,0
2,29999,46,20000,37,0,1,9999,0.100000,0,0,0.000000,3,2.000000,0.000000,16.098860,0,0,0,0,0,0,0
2,29999,47,20000,76,10000,0,9999,0.100000,0,0,0.000000,3,0.000000,0.000000,1.757487,0,0,0,0,0,0,0
2,29999,48,20000,12,10000,0,9999,0.100000,0,0,0.000000,3,0.000000,0.000000,0.228108,0,0,0,0,0,0,0
2,29999,49,20000,68,10000,1,9999,0.100000,0,0,0.000000,3,1.000000,0.000000,2.656407,0,0,0,0,0,0,0
2,29999,50,20000,12,10000,0,9999,0.100000,0,0,0.000000,3,0.000000,0.000000,0.846274,0,0,0,0,0,0,0
2,29999,51,20000,52,0,0,9999,0.100000,0,0,0.000000,3,0.000000,0.000000,4.868168,0,0,0,0,0,0,0
2,29999,52,20000,1,10000,1,9999,0.100000,0,0,0.000000,3,2.000000,0.000000,7.134815,0,0,0,0,0,0,0
2,29999,53,20000,53,10000,0,9999,0.100000,0,0,0.000000,3,0.000000,0.000000,0.350944,0,0,0,0,0,0,0
2,29999,54,20000,52,0,0,9999,0.100000,0,0,0.000000,3,0.000000,0.000000,1.118056,0,0,0,0,0,0,0
2,29999,55,20000,12,10000,1,9999,0.100000,0,0,0.000000,3,2.000000,0.000000,8.681427,0,0,0,0,0,0,0
2,29999,56,20000,74,10000,1,9999,0.100000,0,0,0.000000,3,12.000000,0.000000,14.236715,0,0,0,0,0,0,0
2,29999,57,20000,76,10000,0,9999,0.100000,0,0,0.000000,3,0.000000,0.000000,0.232009,0,0,0,0,0,0,0
2,29999,58,20000,74,10000,1,9999,0.100000,0,0,0.000000,3,1.000000,0.000000,11.663741,0,0,0,0,0,0,0
2,29999,59,20000,12,10000,0,9999,0.100000,0,0,0.000000,3,0.000000,0.000000,0.122842,0,0,0,0,0,0,0
2,29999,60,20000,12,10000,0,9999,0.100000,0,0,0.000000,3,0.000000,0.000000,0.371790,0,0,0,0,0,0,0
2,29999,61,20000,76,10000,1,9999,0.100000,0,0,0.000000,3,2.000000,0.000000,10.741701,0,0,0,0,0,0,0
2,29999,62,20000,12,10000,1,9999,0.100000,0,0,0.000000,3,2.000000,0.000000,18.702133,0,0,0,0,0,0,0
2,29999,63,20000,1,10000,0,9999,0.100000,0,0,0.000000,3,0.000000,0.000000,0.125836,0,0,0,0,0,0,0
2,29999,64,20000,12,10000,0,9999,0.100000,0,0,0.000000,3,0.000000,0.000000,3.196401,0,0,0,0,0,0,0
2,29999,65,20000,12,10000,0,9999,0.100000,0,0,0.000000,3,0.000000,0.000000,7.422426,0,0,0,0,0,0,0
2,29999,66,20000,12,10000,0,9999,0.100000,0,0,0.000000,3,0.000000,0.000000,8.041652,0,0,0,0,0,0,0
2,29999,67,20000,68,10000,0,9999,0.100000,0,0,0.000000,3,0.000000,0.000000,0.137118,0,0,0,0,0,0,0
2,29999,68,20000,53,10000,1,9999,0.100000,0,0,0.000000,3,1.000000,0.000000,19.541728,0,0,0,0,0,0,0
2,29999,69,20000,1,10000,0,9999,0.100000,0,0,0.000000,3,0.000000,0.000000,8.793433,0,0,0,0,0,0,0
2,29999,70,20000,12,10000,0,9999,0.100000,0,0,0.000000,3,0.000000,0.000000,0.240303,0,0,0,0,0,0,0
2,29999,71,20000,12,10000,1,9999,0.100000,0,0,0.000000,3,1.000000,0.000000,9.339463,0,0,0,0,0,0,0
2,29999,72,20000,68,10000,1,9999,0.100000,0,0,0.000000,3,2.000000,0.000000,11.649125,0,0,0,0,0,0,0
2,29999,73,20000,12,10000,0,9999,0.100000,0,0,0.000000,3,0.000000,0.000000,0.573833,0,0,0,0,0,0,0
2,29999,74,20000,12,10000,0,9999,0.100000,0,0,0.000000,3,0.000000,0.000000,0.392836,0,0,0,0,0,0,0
2,29999,75,20000,12,10000,0,9999,0.100000,0,0,0.000000,3,0.000000,0.000000,2.388320,0,0,0,0,0,0,0
2,29999,76,20000,1,10000,1,9999,0.100000,0,0,0.000000,3,1.000000,0.000000,4.825289,0,0,0,0,0,0,0
2,29999,77,20000,12,10000,1,9999,0.100000,0,0,0.000000,3,1.000000,0.000000,5.206834,0,0,0,0,0,0,0
2,29999,78,20000,76,10000,1,9999,0.100000,0,0,0.000000,3,1.000000,0.000000,4.881593,0,0,0,0,0,0,0
2,29999,79,20000,12,10000,1,9999,0.100000,0,0,0.000000,3,3.000000,0.000000,13.793375,0,0,0,0,0,0,0
2,29999,80,20000,1,10000,1,9999,0.100000,0,0,0.000000,3,4.000000,0.000000,7.888249,0,0,0,0,0,0,0
2,29999,81,20000,76,10000,0,9999,0.100000,0,0,0.000000,3,0.000000,0.000000,1.457844,0,0,0,0,0,0,0
2,29999,82,20000,12,10000,1,9999,0.100000,0,0,0.000000,3,2.000000,0.000000,9.758021,0,0,0,0,0,0,0
2,29999,83,20000,12,10000,0,9999,0.100000,0,0,0.000000,3,0.000000,0.000000,1.269072,0,0,0,0,0,0,0
2,29999,84,20000,1,10000,1,9999,0.100000,0,0,0.000000,3,2.000000,0.000000,7.386860,0,0,0,0,0,0,0
2,29999,85,20000,37,0,1,9999,0.100000,0,0,0.000000,3,1.000000,0.000000,1.123989,0,0,0,0,0,0,0
2,29999,86,20000,74,10000,0,9999,0.100000,0,0,0.000000,3,0.000000,0.000000,0.701150,0,0,0,0,0,0,0
2,29999,87,20000,68,10000,0,9999,0.100000,0,0,0.000000,3,0.000000,0.000000,0.883330,0,0,0,0,0,0,0
2,29999,88,20000,76,10000,0,9999,0.100000,0,0,0.000000,3,0.000000,0.000000,0.680319,0,0,0,0,0,0,0
2,29999,89,20000,76,10000,1,9999,0.100000,0,0,0.000000,3,3.000000,0.000000,6.353413,0,0,0,0,0,0,0
2,29999,90,20000,68,10000,0,9999,0.100000,0,0,0.000000,3,0.000000,0.000000,5.875686,0,0,0,0,0,0,0
2,29999,91,20000,76,10000,0,9999,0.100000,0,0,0.000000,3,0.000000,0.000000,8.403391,0,0,0,0,0,0,0
2,29999,92,20000,1,10000,0,9999,0.100000,0,0,0.000000,3,0.000000,0.000000,1.981456,0,0,0,0,0,0,0
2,29999,93,20000,74,10000,0,9999,0.100000,0,0,0.000000,3,0.000000,0.000000,0.841356,0,0,0,0,0,0,0
2,29999,94,20000,52,0,0,9999,0.100000,0,0,0.000000,3,0.000000,0.000000,1.190312,0,0,0,0,0,0,0
2,29999,95,20000,12,10000,1,9999,0.100000,0,0,0.000000,3,3.000000,0.000000,13.307611,0,0,0,0,0,0,0
2,29999,96,20000,1,10000,0,9999,0.100000,0,0,0.000000,3,0.000000,0.000000,3.918281,0,0,0,0,0,0,0
2,29999,97,20000,76,10000,0,9999,0.100000,0,0,0.000000,3,0.000000,0.000000,1.775809,0,0,0,0,0,0,0
2,29999,98,20000,68,10000,0,9999,0.100000,0,0,0.000000,3,0.000000,0.000000,0.362774,0,0,0,0,0,0,0
2,29999,99,20000,68,10000,1,9999,0.100000,0,0,0.000000,3,13.000000,0.000000,13.823098,0,0,0,0,0,0,0
3,39999,0,30000,49,20000,0,9999,0.100000,0,0,0.000000,3,0.000000,0.000000,0.786824,0,0,0,0,0,0,0
3,39999,1,30000,49,20000,0,9999,0.100000,0,0,0.000000,3,0.000000,0.000000,0.136428,0,0,0,0,0,0,0
3,39999,2,30000,1,10000,0,9999,0.100000,0,0,0.000000,3,0.000000,0.000000,0.746386,0,0,0,0,0,0,0
3,39999,3,30000,76,10000,1,9999,0.100000,0,0,0.000000,3,3.000000,0.000000,8.750229,0,0,0,0,0,0,0
3,39999,4,30000,76,10000,1,9999,0.100000,0,0,0.000000,3,5.000000,0.000000,6.798297,0,0,0,0,0,0,0
3,39999,5,30000,81,20000,1,9999,0.100000,0,0,0.000000,3,2.000000,0.000000,6.039691,0,0,0,0,0,0,0
3,39999,6,30000,76,10000,0,9999,0.135000,0,0,0.000000,3,0.000000,0.000000,1.486531,0,0,0,0,0,0,0
3,39999,7,30000,81,20000,1,9999,0.100000,0,0,0.000000,3,1.000000,0.000000,6.579273,0,0,0,0,0,0,0
3,39999,8,30000,12,10000,0,9999,0.100000,0,0,0.000000,3,0.000000,0.000000,0.500844,0,0,0,0,0,0,0
3,39999,9,30000,1,10000,0,9999,0.100000,0,0,0.000000,3,0.000000,0.000000,1.140294,0,0,0,0,0,0,0
3,39999,10,30000,76,10000,1,9999,0.100000,0,0,0.000000,3,1.000000,0.000000,7.037166,0,0,0,0,0,0,0
3,39999,11,30000,76,10000,1,9999,0.100000,0,0,0.000000,3,1.000000,0.000000,4.844827,0,0,0,0,0,0,0
3,39999,12,30000,76,10000,0,9999,0.100000,0,0,0.000000,3,0.000000,0.000000,1.106987,0,0,0,0,0,0,0
3,39999,13,30000,76,10000,1,9999,0.100000,0,0,0.000000,3,1.000000,0.000000,9.538935,0,0,0,0,0,0,0
3,39999,14,30000,76,10000,0,9999,0.100000,0,0,0.000000,3,0.000000,0.000000,0.291624,0,0,0,0,0,0,0
3,39999,15,30000,1,10000,1,9999,0.100000,0,0,0.000000,3,1.000000,0.000000,4.593043,0,0,0,0,0,0,0
3,39999,16,30000,1,10000,1,9999,0.100000,0,0,0.000000,3,1.000000,0.000000,10.720783,0,0,0,0,0,0,0
3,39999,17,30000,12,20000,0,9999,0.100000,0,0,0.000000,3,0.000000,0.000000,0.185136,0,0,0,0,0,0,0
3,39999,18,30000,12,20000,1,9999,0.100000,0,0,0.000000,3,3.000000,0.000000,8.250004,0,0,0,0,0,0,0
3,39999,19,30000,1,10000,0,9999,0.100000,0,0,0.000000,3,0.000000,0.000000,2.059201,0,0,0,0,0,0,0
3,39999,20,30000,1,10000,0,9999,0.100000,0,0,0.000000,3,0.000000,0.000000,0.087897,0,0,0,0,0,0,0
3,39999,21,30000,12,20000,1,9999,0.100000,0,0,0.000000,3,1.000000,0.000000,6.701551,0,0,0,0,0,0,0
3,39999,22,30000,49,20000,1,9999,0.100000,0,0,0.000000,3,2.000000,0.000000,8.840832,0,0,0,0,0,0,0
3,39999,23,30000,49,20000,1,9999,0.100000,0,0,0.000000,3,2.000000,0.000000,6.803906,0,0,0,0,0,0,0
3,39999,24,30000,49,20000,1,9999,0.100000,0,0,0.000000,3,1.000000,0.000000,2.264109,0,0,0,0,0,0,0
3,39999,25,30000,1,10000,1,9999,0.100000,0,0,0.000000,3,2.000000,0.000000,7.315206,0,0,0,0,0,0,0
3,39999,26,30000,76,10000,1,9999,0.100000,0,0,0.000000,3,4.000000,0.000000,10.652461,0,0,0,0,0,0,0
3,39999,27,30000,12,10000,0,9999,0.100000,0,0,0.000000,3,0.000000,0.000000,11.183571,0,0,0,0,0,0,0
3,39999,28,30000,49,20000,1,9999,0.100000,0,0,0.000000,3,1.000000,0.000000,9.977019,0,0,0,0,0,0,0
3,39999,29,30000,12,20000,0,9999,0.100000,0,0,0.000000,3,0.000000,0.000000,3.074593,0,0,0,0,0,0,0
3,39999,30,30000,49,20000,0,9999,0.100000,0,0,0.000000,3,0.000000,0.000000,0.367273,0,0,0,0,0,0,0
3,39999,31,30000,1,10000,1,9999,0.100000,0,0,0.000000,3,4.000000,0.000000,4.383529,0,0,0,0,0,0,0
3,39999,32,30000,76,10000,1,9999,0.100000,0,0,0.000000,3,2.000000,0.000000,7.341647,0,0,0,0,0,0,0
3,39999,33,30000,76,10000,1,9999,0.100000,0,0,0.000000,3,2.000000,0.000000,12.031897,0,0,0,0,0,0,0
3,39999,34,30000,49,20000,0,9999,0.100000,0,0,0.000000,3,0.000000,0.000000,3.736850,0,0,0,0,0,0,0
3,39999,35,30000,1,10000,0,9999,0.100000,0,0,0.000000,3,0.000000,0.000000,0.086222,0,0,0,0,0,0,0
3,39999,36,30000,76,10000,1,9999,0.100000,0,0,0.000000,3,1.000000,0.000000,4.314699,0,0,0,0,0,0,0
3,39999,37,30000,76,10000,1,9999,0.100000,0,0,0.000000,3,1.000000,0.000000,6.306981,0,0,0,0,0,0,0
3,39999,38,30000,1,10000,0,9999,0.100000,0,0,0.000000,3,0.000000,0.000000,4.746823,0,0,0,0,0,0,0
3,39999,39,30000,1,10000,1,9999,0.100000,0,0,0.000000,3,1.000000,0.000000,7.690294,0,0,0,0,0,0,0
3,39999,40,30000,76,10000,1,9999,0.100000,0,0,0.000000,3,1.000000,0.000000,4.645094,0,0,0,0,0,0,0
3,39999,41,30000,76,10000,0,9999,0.100000,0,0,0.000000,3,0.000000,0.000000,0.919725,0,0,0,0,0,0,0
3,39999,42,30000,12,10000,1,9999,0.100000,0,0,0.000000,3,2.000000,0.000000,10.335847,0,0,0,0,0,0,0
3,39999,43,30000,49,20000,0,9999,0.100000,0,0,0.000000,3,0.000000,0.000000,1.683518,0,0,0,0,0,0,0
3,39999,44,30000,76,10000,0,9999,0.100000,0,0,0.000000,3,0.000000,0.000000,20.177598,0,0,0,0,0,0,0
3,39999,45,30000,49,20000,1,9999,0.100000,0,0,0.000000,3,4.000000,0.000000,4.342826,0,0,0,0,0,0,0
3,39999,46,30000,81,20000,1,9999,0.100000,0,0,0.000000,3,1.000000,0.000000,5.804384,0,0,0,0,0,0,0
3,39999,47,30000,12,10000,0,9999,0.135000,0,0,0.000000,3,0.000000,0.000000,2.355460,0,0,0,0,0,0,0
3,39999,48,30000,12,20000,1,9999,0.100000,0,0,0.000000,3,1.000000,0.000000,1.768313,0,0,0,0,0,0,0
3,39999,49,30000,76,10000,0,9999,0.100000,0,0,0.000000,3,0.000000,0.000000,0.146764,0,0,0,0,0,0,0
3,39999,50,30000,76,10000,0,9999,0.100000,0,0,0.000000,3,0.000000,0.000000,1.297414,0,0,0,0,0,0,0
3,39999,51,30000,76,10000,1,9999,0.100000,0,0,0.000000,3,1.000000,0.000000,5.810146,0,0,0,0,0,0,0
3,39999,52,30000,81,20000,1,9999,0.100000,0,0,0.000000,3,1.000000,0.000000,11.422963,0,0,0,0,0,0,0
3,39999,53,30000,76,10000,0,9999,0.100000,0,0,0.000000,3,0.000000,0.000000,0.567229,0,0,0,0,0,0,0
3,39999,54,30000,76,10000,0,9999,0.100000,0,0,0.000000,3,0.000000,0.000000,1.793054,0,0,0,0,0,0,0
3,39999,55,30000,49,20000,1,9999,0.100000,0,0,0.000000,3,3.000000,0.000000,5.903421,0,0,0,0,0,0,0
3,39999,56,30000,76,10000,1,9999,0.100000,0,0,0.000000,3,4.000000,0.000000,16.974520,0,0,0,0,0,0,0
3,39999,57,30000,1,10000,0,9999,0.065000,0,0,0.000000,3,0.000000,0.000000,0.414761,0,0,0,0,0,0,0
3,39999,58,30000,76,10000,1,9999,0.100000,0,0,0.000000,3,2.000000,0.000000,10.163957,0,0,0,0,0,0,0
3,39999,59,30000,49,20000,0,9999,0.100000,0,0,0.000000,3,0.000000,0.000000,0.149115,0,0,0,0,0,0,0
3,39999,60,30000,49,20000,0,9999,0.100000,0,0,0.000000,3,0.000000,0.000000,0.082588,0,0,0,0,0,0,0
3,39999,61,30000,81,20000,1,9999,0.100000,0,0,0.000000,3,1.000000,0.000000,8.433735,0,0,0,0,0,0,0
3,39999,62,30000,76,10000,1,9999,0.100000,0,0,0.000000,3,4.000000,0.000000,10.484742,0,0,0,0,0,0,0
3,39999,63,30000,76,10000,1,9999,0.100000,0,0,0.000000,3,1.000000,0.000000,1.730851,0,0,0,0,0,0,0
3,39999,64,30000,76,10000,1,9999,0.100000,0,0,0.000000,3,1.000000,0.000000,2.202438,0,0,0,0,0,0,0
3,39999,65,30000,1,10000,0,9999,0.100000,0,0,0.000000,3,0.000000,0.000000,1.374224,0,0,0,0,0,0,0
3,39999,66,30000,76,10000,1,9999,0.100000,0,0,0.000000,3,1.000000,0.000000,6.207149,0,0,0,0,0,0,0
3,39999,67,30000,49,20000,0,9999,0.100000,0,0,0.000000,3,0.000000,0.000000,0.303964,0,0,0,0,0,0,0
3,39999,68,30000,12,10000,1,9999,0.100000,0,0,0.000000,3,1.000000,0.000000,22.560332,0,0,0,0,0,0,0
3,39999,69,30000,49,20000,0,9999,0.100000,0,0,0.000000,3,0.000000,0.000000,0.447768,0,0,0,0,0,0,0
3,39999,70,30000,76,10000,0,9999,0.100000,0,0,0.000000,3,0.000000,0.000000,0.637211,0,0,0,0,0,0,0
3,39999,71,30000,49,20000,0,9999,0.100000,0,0,0.000000,3,0.000000,0.000000,0.881670,0,0,0,0,0,0,0
3,39999,72,30000,81,20000,1,9999,0.100000,0,0,0.000000,3,3.000000,0.000000,10.112460,0,0,0,0,0,0,0
3,39999,73,30000,76,10000,0,9999,0.100000,0,0,0.000000,3,0.000000,0.000000,0.379702,0,0,0,0,0,0,0
3,39999,74,30000,76,10000,0,9999,0.100000,0,0,0.000000,3,0.000000,0.000000,0.605868,0,0,0,0,0,0,0
3,39999,75,30000,76,10000,1,9999,0.100000,0,0,0.000000,3,1.000000,0.000000,5.839844,0,0,0,0,0,0,0
3,39999,76,30000,12,10000,1,9999,0.100000,0,0,0.000000,3,2.000000,0.000000,16.076626,0,0,0,0,0,0,0
3,39999,77,30000,49,20000,1,9999,0.100000,0,0,0.000000,3,1.000000,0.000000,1.583832,0,0,0,0,0,0,0
3,39999,78,30000,49,20000,1,9999,0.100000,0,0,0.000000,3,3.000000,0.000000,7.399337,0,0,0,0,0,0,0
3,39999,79,30000,49,20000,1,9999,0.100000,0,0,0.000000,3,4.000000,0.000000,11.335374,0,0,0,0,0,0,0
3,39999,80,30000,76,10000,1,9999,0.100000,0,0,0.000000,3,1.000000,0.000000,9.597517,0,0,0,0,0,0,0
3,39999,81,30000,49,20000,1,9999,0.100000,0,0,0.000000,3,1.000000,0.000000,1.672100,0,0,0,0,0,0,0
3,39999,82,30000,12,20000,0,9999,0.100000,0,0,0.000000,3,0.000000,0.000000,2.205903,0,0,0,0,0,0,0
3,39999,83,30000,81,20000,0,9999,0.100000,0,0,0.000000,3,0.000000,0.000000,0.462222,0,0,0,0,0,0,0
3,39999,84,30000,49,20000,0,9999,0.100000,0,0,0.000000,3,0.000000,0.000000,1.050964,0,0,0,0,0,0,0
3,39999,85,30000,12,10000,0,9999,0.100000,0,0,0.000000,3,0.000000,0.000000,0.891374,0,0,0,0,0,0,0
3,39999,86,30000,49,20000,1,9999,0.100000,0,0,0.000000,3,1.000000,0.000000,1.912502,0,0,0,0,0,0,0
3,39999,87,30000,12,20000,0,9999,0.100000,0,0,0.000000,3,0.000000,0.000000,1.511521,0,0,0,0,0,0,0
3,39999,88,30000,81,20000,0,9999,0.100000,0,0,0.000000,3,0.000000,0.000000,0.577664,0,0,0,0,0,0,0
3,39999,89,30000,81,20000,1,9999,0.100000,0,0,0.000000,3,1.000000,0.000000,4.951016,0,0,0,0,0,0,0
3,39999,90,30000,49,20000,0,9999,0.100000,0,0,0.000000,3,0.000000,0.000000,2.844605,0,0,0,0,0,0,0
3,39999,91,30000,1,10000,0,9999,0.100000,0,0,0.000000,3,0.000000,0.000000,1.057917,0,0,0,0,0,0,0
3,39999,92,30000,1,10000,1,9999,0.100000,0,0,0.000000,3,4.000000,0.000000,6.515199,0,0,0,0,0,0,0
3,39999,93,30000,81,20000,0,9999,0.100000,0,0,0.000000,3,0.000000,0.000000,0.899405,0,0,0,0,0,0,0
3,39999,94,30000,49,20000,0,9999,0.100000,0,0,0.000000,3,0.000000,0.000000,0.405631,0,0,0,0,0,0,0
3,39999,95,30000,49,20000,1,9999,0.100000,0,0,0.000000,3,1.000000,0.000000,10.625068,0,0,0,0,0,0,0
3,39999,96,30000,49,20000,0,9999,0.100000,0,0,0.000000,3,0.000000,0.000000,1.040115,0,0,0,0,0,0,0
3,39999,97,30000,81,20000,0,9999,0.100000,0,0,0.000000,3,0.000000,0.000000,0.959919,0,0,0,0,0,0,0
3,39999,98,30000,76,10000,0,9999,0.100000,0,0,0.000000,3,0.000000,0.000000,0.245924,0,0,0,0,0,0,0
3,39999,99,30000,49,20000,0,9999,0.100000,0,0,0.000000,3,0.000000,0.000000,0.949165,0,0,0,0,0,0,0
4,49999,0,40000,76,10000,0,9999,0.100000,0,0,0.000000,3,0.000000,0.000000,1.234881,0,0,0,0,0,0,0
4,49999,1,40000,83,30000,0,9999,0.100000,0,0,0.000000,3,0.000000,0.000000,0.111521,0,0,0,0,0,0,0
4,49999,2,40000,49,20000,0,9999,0.100000,0,0,0.000000,3,0.000000,0.000000,0.956309,0,0,0,0,0,0,0
4,49999,3,40000,49,20000,0,9999,0.100000,0,0,0.000000,3,0.000000,0.000000,0.989468,0,0,0,0,0,0,0
4,49999,4,40000,49,20000,0,9999,0.100000,0,0,0.000000,3,0.000000,0.000000,0.229217,0,0,0,0,0,0,0
4,49999,5,40000,76,10000,1,9999,0.100000,0,0,0.000000,3,1.000000,0.000000,6.362826,0,0,0,0,0,0,0
4,49999,6,40000,76,10000,0,9999,0.100000,0,0,0.000000,3,0.000000,0.000000,2.314573,0,0,0,0,0,0,0
4,49999,7,40000,49,20000,1,9999,0.100000,0,0,0.000000,3,2.000000,0.000000,11.848012,0,0,0,0,0,0,0
4,49999,8,40000,49,20000,1,9999,0.100000,0,0,34.210526,3,3.000000,0.000000,4.861047,0,0,0,0,0,1,0
4,49999,9,40000,49,30000,0,9999,0.100000,0,0,0.000000,3,0.000000,0.000000,0.647906,0,0,0,0,0,0,0
4,49999,10,40000,49,30000,1,9999,0.100000,0,0,0.000000,3,1.000000,0.000000,4.071606,0,0,0,0,0,0,0
4,49999,11,40000,76,10000,1,9999,0.100000,0,0,0.000000,3,2.000000,0.000000,7.452586,0,0,0,0,0,0,0
4,49999,12,40000,49,20000,1,9999,0.100000,0,0,0.000000,3,6.000000,0.000000,6.524858,0,0,0,0,0,0,0
4,49999,13,40000,49,30000,1,9999,0.100000,0,0,0.000000,3,1.000000,0.000000,6.692414,0,0,0,0,0,0,0
4,49999,14,40000,49,20000,0,9999,0.100000,0,0,0.000000,3,0.000000,0.000000,1.064702,0,0,0,0,0,0,0
4,49999,15,40000,76,10000,1,9999,0.100000,0,0,0.000000,3,1.000000,0.000000,4.867701,0,0,0,0,0,0,0
4,49999,16,40000,49,30000,1,9999,0.100000,0,0,0.000000,3,1.000000,0.000000,4.322502,0,0,0,0,0,0,0
4,49999,17,40000,76,10000,0,9999,0.100000,0,0,0.000000,3,0.000000,0.000000,0.193006,0,0,0,0,0,0,0
4,49999,18,40000,49,30000,1,9999,0.100000,0,0,0.000000,3,1.000000,0.000000,7.612079,0,0,0,0,0,0,0
4,49999,19,40000,49,30000,0,9999,0.100000,0,0,0.000000,3,0.000000,0.000000,2.138984,0,0,0,0,0,0,0
4,49999,20,40000,49,20000,0,9999,0.100000,0,0,0.000000,3,0.000000,0.000000,0.081223,0,0,0,0,0,0,0
4,49999,21,40000,49,20000,1,9999,0.100000,0,0,0.000000,3,2.000000,0.000000,7.481896,0,0,0,0,0,0,0
4,49999,22,40000,49,20000,1,9999,0.100000,0,0,0.000000,3,1.000000,0.000000,8.035064,0,0,0,0,0,0,0
4,49999,23,40000,49,20000,0,9999,0.100000,0,0,0.000000,3,0.000000,0.000000,1.475283,0,0,0,0,0,0,0
4,49999,24,40000,76,10000,0,9999,0.100000,0,0,0.000000,3,0.000000,0.000000,1.559960,0,0,0,0,0,0,0
4,49999,25,40000,49,20000,1,9999,0.100000,0,0,0.000000,3,3.000000,0.000000,10.155066,0,0,0,0,0,0,0
4,49999,26,40000,49,20000,1,9999,0.100000,0,0,0.000000,3,1.000000,0.000000,7.313625,0,0,0,0,0,0,0
4,49999,27,40000,49,20000,1,9999,0.100000,0,0,0.000000,3,1.000000,0.000000,9.370788,0,0,0,0,0,0,0
4,49999,28,40000,49,20000,1,9999,0.100000,0,0,0.000000,3,2.000000,0.000000,8.966305,0,0,0,0,0,0,0
4,49999,29,40000,76,10000,1,9999,0.100000,0,0,0.000000,3,1.000000,0.000000,5.444838,0,0,0,0,0,0,0
4,49999,30,40000,49,30000,0,9999,0.100000,0,0,0.000000,3,0.000000,0.000000,0.354621,0,0,0,0,0,0,0
4,49999,31,40000,49,30000,1,9999,0.100000,0,0,34.210526,3,2.000000,0.000000,5.523956,0,0,1,1,0,0,0
4,49999,32,40000,83,30000,1,9999,0.100000,0,0,0.000000,3,1.000000,0.000000,7.252821,0,0,0,0,0,0,0
4,49999,33,40000,49,20000,1,9999,0.100000,0,0,0.000000,3,2.000000,0.000000,6.124707,0,0,0,0,0,0,0
4,49999,34,40000,49,30000,0,9999,0.100000,0,0,0.000000,3,0.000000,0.000000,3.433930,0,0,0,0,0,0,0
4,49999,35,40000,76,10000,0,9999,0.100000,0,0,0.000000,3,0.000000,0.000000,0.083002,0,0,0,0,0,0,0
4,49999,36,40000,49,20000,1,9999,0.100000,0,0,0.000000,3,1.000000,0.000000,6.327924,0,0,0,0,0,0,0
4,49999,37,40000,49,20000,1,9999,0.100000,0,0,0.000000,3,2.000000,0.000000,6.847574,0,0,0,0,0,0,0
4,49999,38,40000,76,10000,1,9999,0.100000,0,0,0.000000,3,1.000000,0.000000,6.251368,0,0,0,0,0,0,0
4,49999,39,40000,49,20000,0,9999,0.100000,0,0,0.000000,3,0.000000,0.000000,5.879069,0,0,0,0,0,0,0
4,49999,40,40000,49,30000,1,9999,0.100000,0,0,0.000000,3,6.000000,0.000000,6.592927,0,0,0,0,0,0,0
4,49999,41,40000,76,10000,0,9999,0.100000,0,0,0.000000,3,0.000000,0.000000,0.939050,0,0,0,0,0,0,0
4,49999,42,40000,49,20000,1,9999,0.100000,0,0,0.000000,3,2.000000,0.000000,7.960313,0,0,0,0,0,0,0
4,49999,43,40000,76,10000,1,9999,0.100000,0,0,0.000000,3,1.000000,0.000000,4.168843,0,0,0,0,0,0,0
4,49999,44,40000,49,30000,0,9999,0.100000,0,0,0.000000,3,0.000000,0.000000,18.725420,0,0,0,0,0,0,0
4,49999,45,40000,49,20000,1,9999,0.100000,0,0,34.210526,3,3.000000,0.000000,10.097387,0,0,0,1,0,0,0
4,49999,46,40000,49,30000,1,9999,0.100000,0,0,0.000000,3,3.000000,0.000000,5.470508,0,0,0,0,0,0,0
4,49999,47,40000,49,20000,0,9999,0.100000,0,0,0.000000,3,0.000000,0.000000,1.664014,0,0,0,0,0,0,0
4,49999,48,40000,49,20000,0,9999,0.100000,0,0,0.000000,3,0.000000,0.000000,1.047870,0,0,0,0,0,0,0
4,49999,49,40000,49,20000,0,9999,0.100000,0,0,0.000000,3,0.000000,0.000000,0.182482,0,0,0,0,0,0,0
4,49999,50,40000,83,30000,0,9999,0.100000,0,0,0.000000,3,0.000000,0.000000,0.751152,0,0,0,0,0,0,0
4,49999,51,40000,49,20000,1,9999,0.100000,0,0,0.000000,3,3.000000,0.000000,30.818580,0,0,0,0,0,0,0
4,49999,52,40000,49,30000,0,9999,0.100000,0,0,0.000000,3,0.000000,0.000000,6.308877,0,0,0,0,0,0,0
4,49999,53,40000,83,30000,1,9999,0.100000,0,0,34.210526,3,3.000000,0.000000,4.991588,0,0,0,0,0,1,0
4,49999,54,40000,76,10000,0,9999,0.100000,0,0,0.000000,3,0.000000,0.000000,1.794482,0,0,0,0,0,0,0
4,49999,55,40000,49,20000,0,9999,0.100000,0,0,0.000000,3,0.000000,0.000000,2.689839,0,0,0,0,0,0,0
4,49999,56,40000,49,20000,1,9999,0.100000,0,0,0.000000,3,9.000000,0.000000,19.929899,0,0,0,0,0,0,0
4,49999,57,40000,49,30000,0,9999,0.100000,0,0,0.000000,3,0.000000,0.000000,0.707100,0,0,0,0,0,0,0
4,49999,58,40000,49,20000,1,9999,0.100000,0,0,0.000000,3,1.000000,0.000000,7.977037,0,0,0,0,0,0,0
4,49999,59,40000,49,20000,0,9999,0.100000,0,0,0.000000,3,0.000000,0.000000,0.320374,0,0,0,0,0,0,0
4,49999,60,40000,49,30000,0,9999,0.100000,0,0,0.000000,3,0.000000,0.000000,0.081022,0,0,0,0,0,0,0
4,49999,61,40000,76,10000,1,9999,0.100000,0,0,0.000000,3,2.000000,0.000000,8.919851,0,0,0,0,0,0,0
4,49999,62,40000,49,30000,1,9999,0.100000,0,0,0.000000,3,2.000000,0.000000,9.132390,0,0,0,0,0,0,0
4,49999,63,40000,76,10000,0,9999,0.100000,0,0,0.000000,3,0.000000,0.000000,1.094282,0,0,0,0,0,0,0
4,49999,64,40000,76,10000,1,9999,0.100000,0,0,0.000000,3,1.000000,0.000000,2.633165,0,0,0,0,0,0,0
4,49999,65,40000,76,10000,1,9999,0.100000,0,0,0.000000,3,1.000000,0.000000,3.579856,0,0,0,0,0,0,0
4,49999,66,40000,49,30000,0,9999,0.100000,0,0,0.000000,3,0.000000,0.000000,5.036149,0,0,0,0,0,0,0
4,49999,67,40000,76,10000,0,9999,0.100000,0,0,0.000000,3,0.000000,0.000000,0.441580,0,0,0,0,0,0,0
4,49999,68,40000,81,20000,1,9999,0.100000,0,0,0.000000,3,2.000000,0.000000,5.018509,0,0,0,0,0,0,0
4,49999,69,40000,76,10000,1,9999,0.100000,0,0,34.210526,3,3.000000,0.000000,6.082167,0,0,0,0,0,1,0
4,49999,70,40000,49,20000,0,9999,0.100000,0,0,0.000000,3,0.000000,0.000000,0.879871,0,0,0,0,0,0,0
4,49999,71,40000,76,10000,1,9999,0.100000,0,0,0.000000,3,3.000000,0.000000,7.121309,0,0,0,0,0,0,0
4,49999,72,40000,49,30000,0,9999,0.100000,0,0,0.000000,3,0.000000,0.000000,6.666253,0,0,0,0,0,0,0
4,49999,73,40000,76,10000,0,9999,0.100000,0,0,0.000000,3,0.000000,0.000000,0.406361,0,0,0,0,0,0,0
4,49999,74,40000,49,30000,0,9999,0.100000,0,0,0.000000,3,0.000000,0.000000,0.235139,0,0,0,0,0,0,0
4,49999,75,40000,49,20000,1,9999,0.100000,0,0,0.000000,3,2.000000,0.000000,9.245609,0,0,0,0,0,0,0
4,49999,76,40000,49,20000,1,9999,0.100000,0,0,0.000000,3,1.000000,0.000000,5.059251,0,0,0,0,0,0,0
4,49999,77,40000,49,30000,0,9999,0.100000,0,0,0.000000,3,0.000000,0.000000,1.094759,0,0,0,0,0,0,0
4,49999,78,40000,49,30000,1,9999,0.100000,0,0,0.000000,3,5.000000,0.000000,14.092810,0,0,0,0,0,0,0
4,49999,79,40000,49,30000,1,9999,0.100000,0,0,0.000000,3,2.000000,0.000000,9.240559,0,0,0,0,0,0,0
4,49999,80,40000,49,20000,1,9999,0.100000,0,0,0.000000,3,2.000000,0.000000,12.692178,0,0,0,0,0,0,0
4,49999,81,40000,76,10000,1,9999,0.100000,0,0,0.000000,3,1.000000,0.000000,1.417590,0,0,0,0,0,0,0
4,49999,82,40000,49,20000,0,9999,0.100000,0,0,0.000000,3,0.000000,0.000000,1.419160,0,0,0,0,0,0,0
4,49999,83,40000,49,20000,1,9999,0.100000,0,0,0.000000,3,1.000000,0.000000,7.573539,0,0,0,0,0,0,0
4,49999,84,40000,49,20000,1,9999,0.100000,0,0,0.000000,3,6.000000,0.000000,6.574062,0,0,0,0,0,0,0
4,49999,85,40000,76,10000,1,9999,0.100000,0,0,0.000000,3,1.000000,0.000000,2.038024,0,0,0,0,0,0,0
4,49999,86,40000,76,10000,1,9999,0.100000,0,0,0.000000,3,1.000000,0.000000,1.615976,0,0,0,0,0,0,0
4,49999,87,40000,49,20000,0,9999,0.100000,0,0,0.000000,3,0.000000,0.000000,1.364915,0,0,0,0,0,0,0
4,49999,88,40000,49,20000,1,9999,0.100000,0,0,34.210526,3,3.000000,0.000000,4.666155,0,0,0,0,0,1,0
4,49999,89,40000,49,20000,1,9999,0.100000,0,0,0.000000,3,3.000000,0.000000,6.737565,0,0,0,0,0,0,0
4,49999,90,40000,76,10000,1,9999,0.100000,0,0,0.000000,3,2.000000,0.000000,6.209138,0,0,0,0,0,0,0
4,49999,91,40000,49,20000,0,9999,0.100000,0,0,0.000000,3,0.000000,0.000000,0.535251,0,0,0,0,0,0,0
4,49999,92,40000,49,20000,0,9999,0.100000,0,0,0.000000,3,0.000000,0.000000,2.175707,0,0,0,0,0,0,0
4,49999,93,40000,83,30000,1,9999,0.100000,0,0,0.000000,3,1.000000,0.000000,1.724241,0,0,0,0,0,0,0
4,49999,94,40000,83,30000,0,9999,0.100000,0,0,0.000000,3,0.000000,0.000000,0.915766,0,0,0,0,0,0,0
4,49999,95,40000,49,20000,1,9999,0.100000,0,0,0.000000,3,1.000000,0.000000,4.857155,0,0,0,0,0,0,0
4,49999,96,40000,49,20000,1,9999,0.100000,0,0,0.000000,3,7.000000,0.000000,10.301964,0,0,0,0,0,0,0
4,49999,97,40000,76,10000,0,9999,0.100000,0,0,0.000000,3,0.000000,0.000000,0.687897,0,0,0,0,0,0,0
4,49999,98,40000,49,20000,0,9999,0.100000,0,0,0.000000,3,0.000000,0.000000,0.955411,0,0,0,0,0,0,0
4,49999,99,40000,76,10000,0,9999,0.100000,0,0,0.000000,3,0.000000,0.000000,3.725731,0,0,0,0,0,0,0
5,59999,0,50000,49,20000,1,9999,0.100000,0,0,0.000000,3,1.000000,0.000000,2.225910,0,0,0,0,0,0,0
5,59999,1,50000,76,10000,0,9999,0.100000,0,0,0.000000,3,0.000000,0.000000,1.011567,0,0,0,0,0,0,0
5,59999,2,50000,83,30000,1,9999,0.100000,0,0,0.000000,3,1.000000,0.000000,2.000233,0,0,0,0,0,0,0
5,59999,3,50000,76,10000,0,9999,0.100000,0,0,0.000000,3,0.000000,0.000000,0.860433,0,0,0,0,0,0,0
5,59999,4,50000,76,10000,0,9999,0.100000,0,0,0.000000,3,0.000000,0.000000,0.230632,0,0,0,0,0,0,0
5,59999,5,50000,49,20000,1,9999,0.100000,0,0,0.000000,3,2.000000,0.000000,4.650448,0,0,0,0,0,0,0
5,59999,6,50000,76,10000,0,9999,0.100000,0,0,0.000000,3,0.000000,0.000000,2.223873,0,0,0,0,0,0,0
5,59999,7,50000,83,30000,1,9999,0.100000,0,0,0.000000,3,1.000000,0.000000,6.347711,0,0,0,0,0,0,0
5,59999,8,50000,76,10000,1,9999,0.100000,0,0,0.000000,3,2.000000,0.000000,6.405339,0,0,0,0,0,0,0
5,59999,9,50000,49,20000,0,9999,0.100000,0,0,0.000000,3,0.000000,0.000000,0.200750,0,0,0,0,0,0,0
5,59999,10,50000,83,30000,1,9999,0.100000,0,0,0.000000,3,1.000000,0.000000,4.364585,0,0,0,0,0,0,0
5,59999,11,50000,49,20000,1,9999,0.100000,0,0,0.000000,3,1.000000,0.000000,12.202960,0,0,0,0,0,0,0
5,59999,12,50000,83,30000,1,9999,0.100000,0,0,0.000000,3,1.000000,0.000000,1.977109,0,0,0,0,0,0,0
5,59999,13,50000,76,10000,1,9999,0.100000,0,0,0.000000,3,1.000000,0.000000,7.846183,0,0,0,0,0,0,0
5,59999,14,50000,76,10000,0,9999,0.100000,0,0,0.000000,3,0.000000,0.000000,0.694786,0,0,0,0,0,0,0
5,59999,15,50000,49,20000,1,9999,0.100000,0,0,0.000000,3,1.000000,0.000000,9.668132,0,0,0,0,0,0,0
5,59999,16,50000,76,10000,1,9999,0.100000,0,0,0.000000,3,1.000000,0.000000,10.205598,0,0,0,0,0,0,0
5,59999,17,50000,83,30000,0,9999,0.100000,0,0,0.000000,3,0.000000,0.000000,0.195524,0,0,0,0,0,0,0
5,59999,18,50000,76,10000,0,9999,0.100000,0,0,0.000000,3,0.000000,0.000000,1.357866,0,0,0,0,0,0,0
5,59999,19,50000,49,20000,1,9999,0.100000,0,0,0.000000,3,2.000000,0.000000,8.514204,0,0,0,0,0,0,0
5,59999,20,50000,49,20000,0,9999,0.100000,0,0,0.000000,3,0.000000,0.000000,0.557939,0,0,0,0,0,0,0
5,59999,21,50000,83,30000,1,9999,0.100000,0,0,0.000000,3,1.000000,0.000000,5.571342,0,0,0,0,0,0,0
5,59999,22,50000,49,20000,1,9999,0.100000,0,0,0.000000,3,2.000000,0.000000,9.020395,0,0,0,0,0,0,0
5,59999,23,50000,49,20000,0,9999,0.100000,0,0,0.000000,3,0.000000,0.000000,5.039202,0,0,0,0,0,0,0
5,59999,24,50000,83,30000,0,9999,0.100000,0,0,0.000000,3,0.000000,0.000000,2.916176,0,0,0,0,0,0,0
5,59999,25,50000,76,10000,1,9999,0.100000,0,0,0.000000,3,1.000000,0.000000,9.195479,0,0,0,0,0,0,0
5,59999,26,50000,76,10000,0,9999,0.100000,0,0,0.000000,3,0.000000,0.000000,0.796263,0,0,0,0,0,0,0
5,59999,27,50000,83,30000,1,9999,0.100000,0,0,0.000000,3,1.000000,0.000000,8.251116,0,0,0,0,0,0,0
5,59999,28,50000,83,30000,1,9999,0.100000,0,0,0.000000,3,3.000000,0.000000,12.613859,0,0,0,0,0,0,0
5,59999,29,50000,83,30000,1,9999,0.100000,0,0,0.000000,3,2.000000,0.000000,4.484484,0,0,0,0,0,0,0
5,59999,30,50000,49,20000,0,9999,0.100000,0,0,0.000000,3,0.000000,0.000000,0.463983,0,0,0,0,0,0,0
5,59999,31,50000,83,30000,1,9999,0.100000,0,0,0.000000,3,1.000000,0.000000,4.694888,0,0,0,0,0,0,0
5,59999,32,50000,83,30000,1,9999,0.100000,0,0,0.000000,3,1.000000,0.000000,2.678350,0,0,0,0,0,0,0
5,59999,33,50000,76,10000,0,9999,0.100000,0,0,0.000000,3,0.000000,0.000000,10.008782,0,0,0,0,0,0,0
5,59999,34,50000,83,30000,0,9999,0.100000,0,0,0.000000,3,0.000000,0.000000,3.882737,0,0,0,0,0,0,0
5,59999,35,50000,83,30000,0,9999,0.100000,0,0,0.000000,3,0.000000,0.000000,0.087373,0,0,0,0,0,0,0
5,59999,36,50000,49,20000,0,9999,0.100000,0,0,0.000000,3,0.000000,0.000000,7.428119,0,0,0,0,0,0,0
5,59999,37,50000,49,20000,1,9999,0.100000,0,0,0.000000,3,1.000000,0.000000,5.224111,0,0,0,0,0,0,0
5,59999,38,50000,49,20000,0,9999,0.100000,0,0,0.000000,3,0.000000,0.000000,7.439593,0,0,0,0,0,0,0
5,59999,39,50000,83,30000,1,9999,0.100000,0,0,0.000000,3,1.000000,0.000000,4.288692,0,0,0,0,0,0,0
5,59999,40,50000,49,20000,1,9999,0.100000,0,0,0.000000,3,1.000000,0.000000,3.877882,0,0,0,0,0,0,0
5,59999,41,50000,76,10000,0,9999,0.100000,0,0,0.000000,3,0.000000,0.000000,0.709428,0,0,0,0,0,0,0
5,59999,42,50000,76,10000,1,9999,0.100000,0,0,0.000000,3,1.000000,0.000000,12.364916,0,0,0,0,0,0,0
5,59999,43,50000,83,30000,1,9999,0.100000,0,0,0.000000,3,1.000000,0.000000,2.246482,0,0,0,0,0,0,0
5,59999,44,50000,83,30000,0,9999,0.100000,0,0,0.000000,3,0.000000,0.000000,18.048104,0,0,0,0,0,0,0
5,59999,45,50000,49,20000,1,9999,0.100000,0,0,0.000000,3,3.000000,0.000000,11.157906,0,0,0,0,0,0,0
5,59999,46,50000,83,30000,1,9999,0.100000,0,0,0.000000,3,2.000000,0.000000,6.378835,0,0,0,0,0,0,0
5,59999,47,50000,83,30000,0,9999,0.065000,0,0,0.000000,3,0.000000,0.000000,1.457899,0,0,0,0,0,0,0
5,59999,48,50000,49,20000,0,9999,0.100000,0,0,0.000000,3,0.000000,0.000000,0.216768,0,0,0,0,0,0,0
5,59999,49,50000,76,10000,0,9999,0.100000,0,0,0.000000,3,0.000000,0.000000,0.168960,0,0,0,0,0,0,0
5,59999,50,50000,76,10000,0,9999,0.100000,0,0,0.000000,3,0.000000,0.000000,0.955339,0,0,0,0,0,0,0
5,59999,51,50000,49,20000,0,9999,0.100000,0,0,0.000000,3,0.000000,0.000000,3.943858,0,0,0,0,0,0,0
5,59999,52,50000,83,30000,1,9999,0.100000,0,0,0.000000,3,1.000000,0.000000,5.543331,0,0,0,0,0,0,0
5,59999,53,50000,83,30000,1,9999,0.100000,0,0,0.000000,3,2.000000,0.000000,11.111909,0,0,0,0,0,0,0
5,59999,54,50000,49,20000,0,9999,0.100000,0,0,0.000000,3,0.000000,0.000000,1.726136,0,0,0,0,0,0,0
5,59999,55,50000,83,30000,1,9999,0.100000,0,0,0.000000,3,1.000000,0.000000,4.896646,0,0,0,0,0,0,0
5,59999,56,50000,76,10000,1,9999,0.100000,0,0,0.000000,3,6.000000,0.000000,14.361236,0,0,0,0,0,0,0
5,59999,57,50000,83,30000,0,9999,0.100000,0,0,0.000000,3,0.000000,0.000000,0.681518,0,0,0,0,0,0,0
5,59999,58,50000,49,20000,1,9999,0.100000,0,0,0.000000,3,1.000000,0.000000,12.036633,0,0,0,0,0,0,0
5,59999,59,50000,49,20000,0,9999,0.100000,0,0,0.000000,3,0.000000,0.000000,0.389346,0,0,0,0,0,0,0
5,59999,60,50000,76,10000,0,9999,0.100000,0,0,0.000000,3,0.000000,0.000000,0.080005,0,0,0,0,0,0,0
5,59999,61,50000,76,10000,0,9999,0.100000,0,0,0.000000,3,0.000000,0.000000,4.264192,0,0,0,0,0,0,0
5,59999,62,50000,76,10000,1,9999,0.100000,0,0,0.000000,3,2.000000,0.000000,6.744040,0,0,0,0,0,0,0
5,59999,63,50000,83,30000,0,9999,0.100000,0,0,0.000000,3,0.000000,0.000000,0.205568,0,0,0,0,0,0,0
5,59999,64,50000,76,10000,1,9999,0.100000,0,0,0.000000,3,1.000000,0.000000,2.045519,0,0,0,0,0,0,0
5,59999,65,50000,76,10000,0,9999,0.100000,0,0,0.000000,3,0.000000,0.000000,1.664466,0,0,0,0,0,0,0
5,59999,66,50000,83,30000,1,9999,0.100000,0,0,0.000000,3,1.000000,0.000000,9.384825,0,0,0,0,0,0,0
5,59999,67,50000,83,30000,1,9999,0.100000,0,0,0.000000,3,4.000000,0.000000,5.951221,0,0,0,0,0,0,0
5,59999,68,50000,49,20000,1,9999,0.100000,0,0,0.000000,3,2.000000,0.000000,3.283523,0,0,0,0,0,0,0
5,59999,69,50000,49,20000,0,9999,0.100000,0,0,0.000000,3,0.000000,0.000000,4.820461,0,0,0,0,0,0,0
5,59999,70,50000,76,10000,0,9999,0.100000,0,0,0.000000,3,0.000000,0.000000,0.890889,0,0,0,0,0,0,0
5,59999,71,50000,83,30000,1,9999,0.100000,0,0,0.000000,3,2.000000,0.000000,4.854240,0,0,0,0,0,0,0
5,59999,72,50000,83,30000,0,9999,0.100000,0,0,0.000000,3,0.000000,0.000000,12.498895,0,0,0,0,0,0,0
5,59999,73,50000,83,30000,0,9999,0.100000,0,0,0.000000,3,0.000000,0.000000,0.380739,0,0,0,0,0,0,0
5,59999,74,50000,49,20000,0,9999,0.135000,0,0,0.000000,3,0.000000,0.000000,1.096984,0,0,0,0,0,0,0
5,59999,75,50000,76,10000,0,9999,0.100000,0,0,0.000000,3,0.000000,0.000000,1.253861,0,0,0,0,0,0,0
5,59999,76,50000,49,20000,0,9999,0.100000,0,0,0.000000,3,0.000000,0.000000,5.193471,0,0,0,0,0,0,0
5,59999,77,50000,49,20000,0,9999,0.100000,0,0,0.000000,3,0.000000,0.000000,0.431419,0,0,0,0,0,0,0
5,59999,78,50000,83,30000,0,9999,0.100000,0,0,0.000000,3,0.000000,0.000000,0.102132,0,0,0,0,0,0,0
5,59999,79,50000,76,10000,1,9999,0.100000,0,0,0.000000,3,1.000000,0.000000,4.338845,0,0,0,0,0,0,0
5,59999,80,50000,76,10000,1,9999,0.100000,0,0,0.000000,3,1.000000,0.000000,4.468666,0,0,0,0,0,0,0
5,59999,81,50000,49,20000,1,9999,0.100000,0,0,0.000000,3,1.000000,0.000000,1.303816,0,0,0,0,0,0,0
5,59999,82,50000,83,30000,0,9999,0.100000,0,0,0.000000,3,0.000000,0.000000,1.325226,0,0,0,0,0,0,0
5,59999,83,50000,49,20000,1,9999,0.100000,0,0,0.000000,3,1.000000,0.000000,5.684360,0,0,0,0,0,0,0
5,59999,84,50000,49,20000,1,9999,0.100000,0,0,0.000000,3,1.000000,0.000000,5.421848,0,0,0,0,0,0,0
5,59999,85,50000,83,30000,1,9999,0.100000,0,0,0.000000,3,2.000000,0.000000,11.026339,0,0,0,0,0,0,0
5,59999,86,50000,83,30000,1,9999,0.100000,0,0,0.000000,3,1.000000,0.000000,1.119194,0,0,0,0,0,0,0
5,59999,87,50000,83,30000,1,9999,0.100000,0,0,0.000000,3,1.000000,0.000000,1.775037,0,0,0,0,0,0,0
5,59999,88,50000,83,30000,1,9999,0.100000,0,0,0.000000,3,1.000000,0.000000,4.325764,0,0,0,0,0,0,0
5,59999,89,50000,83,30000,1,9999,0.100000,0,0,0.000000,3,1.000000,0.000000,4.361977,0,0,0,0,0,0,0
5,59999,90,50000,83,30000,0,9999,0.100000,0,0,0.000000,3,0.000000,0.000000,3.166729,0,0,0,0,0,0,0
5,59999,91,50000,83,30000,0,9999,0.100000,0,0,0.000000,3,0.000000,0.000000,0.203462,0,0,0,0,0,0,0
5,59999,92,50000,49,20000,0,9999,0.100000,0,0,0.000000,3,0.000000,0.000000,2.224252,0,0,0,0,0,0,0
5,59999,93,50000,83,30000,1,9999,0.100000,0,0,0.000000,3,1.000000,0.000000,1.711701,0,0,0,0,0,0,0
5,59999,94,50000,76,10000,0,9999,0.100000,0,0,0.000000,3,0.000000,0.000000,0.696820,0,0,0,0,0,0,0
5,59999,95,50000,83,30000,1,9999,0.135000,0,0,0.000000,3,3.000000,0.000000,8.386540,0,0,0,0,0,0,0
5,59999,96,50000,49,20000,1,9999,0.100000,0,0,0.000000,3,10.000000,0.000000,10.461802,0,0,0,0,0,0,0
5,59999,97,50000,49,20000,0,9999,0.100000,0,0,0.000000,3,0.000000,0.000000,1.561802,0,0,0,0,0,0,0
5,59999,98,50000,49,20000,0,9999,0.100000,0,0,0.000000,3,0.000000,0.000000,0.695194,0,0,0,0,0,0,0
5,59999,99,50000,76,10000,0,9999,0.100000,0,0,0.000000,3,0.000000,0.000000,3.654439,0,0,0,0,0,0,0
6,69999,0,60000,76,10000,1,9999,0.100000,0,0,0.000000,3,3.000000,0.000000,3.513823,0,0,0,0,0,0,0
6,69999,1,60000,83,30000,0,9999,0.100000,0,0,0.000000,3,0.000000,0.000000,0.885193,0,0,0,0,0,0,0
6,69999,2,60000,76,10000,1,9999,0.100000,0,0,0.000000,3,3.000000,0.000000,3.580273,0,0,0,0,0,0,0
6,69999,3,60000,76,10000,0,9999,0.100000,0,0,0.000000,3,0.000000,0.000000,0.917709,0,0,0,0,0,0,0
6,69999,4,60000,49,20000,0,9999,0.100000,0,0,0.000000,3,0.000000,0.000000,0.233181,0,0,0,0,0,0,0
6,69999,5,60000,49,20000,0,9999,0.100000,0,0,0.000000,3,0.000000,0.000000,5.679724,0,0,0,0,0,0,0
6,69999,6,60000,76,10000,1,9999,0.100000,0,0,0.000000,3,4.000000,0.000000,10.234388,0,0,0,0,0,0,0
6,69999,7,60000,76,10000,1,9999,0.100000,0,0,0.000000,3,15.000000,0.000000,18.297003,0,0,0,0,0,0,0
6,69999,8,60000,76,10000,1,9999,0.100000,0,0,0.000000,3,1.000000,0.000000,4.476048,0,0,0,0,0,0,0
6,69999,9,60000,49,20000,1,9999,0.100000,0,0,0.000000,3,1.000000,0.000000,13.050698,0,0,0,0,0,0,0
6,69999,10,60000,76,10000,1,9999,0.100000,0,0,0.000000,3,1.000000,0.000000,7.861969,0,0,0,0,0,0,0
6,69999,11,60000,83,30000,1,9999,0.100000,0,0,0.000000,3,1.000000,0.000000,9.184901,0,0,0,0,0,0,0
6,69999,12,60000,49,20000,1,9999,0.100000,0,0,0.000000,3,5.000000,0.000000,6.763370,0,0,0,0,0,0,0
6,69999,13,60000,83,30000,1,9999,0.100000,0,0,0.000000,3,1.000000,0.000000,9.628955,0,0,0,0,0,0,0
6,69999,14,60000,83,30000,0,9999,0.100000,0,0,0.000000,3,0.000000,0.000000,2.875380,0,0,0,0,0,0,0
6,69999,15,60000,83,30000,1,9999,0.100000,0,0,0.000000,3,1.000000,0.000000,13.915168,0,0,0,0,0,0,0
6,69999,16,60000,83,30000,0,9999,0.100000,0,0,0.000000,3,0.000000,0.000000,6.842779,0,0,0,0,0,0,0
6,69999,17,60000,83,30000,0,9999,0.100000,0,0,0.000000,3,0.000000,0.000000,0.204158,0,0,0,0,0,1,0
6,69999,18,60000,49,20000,1,9999,0.100000,0,0,0.000000,3,2.000000,0.000000,2.409380,0,0,0,0,0,0,0
6,69999,19,60000,76,10000,1,9999,0.100000,0,0,0.000000,3,3.000000,0.000000,6.305791,0,0,0,0,0,0,0
6,69999,20,60000,49,20000,0,9999,0.100000,0,0,0.000000,3,0.000000,0.000000,0.504611,0,0,0,0,0,0,0
6,69999,21,60000,76,10000,1,9999,0.100000,0,0,0.000000,3,1.000000,0.000000,7.146876,0,0,0,0,0,0,0
6,69999,22,60000,83,30000,1,9999,0.100000,0,0,0.000000,3,1.000000,0.000000,9.147443,0,0,0,0,0,0,0
6,69999,23,60000,76,10000,1,9999,0.100000,0,0,0.000000,3,2.000000,0.000000,15.788794,0,0,0,0,0,0,0
6,69999,24,60000,76,10000,1,9999,0.100000,0,0,0.000000,3,4.000000,0.000000,12.973690,0,0,0,0,0,0,0
6,69999,25,60000,49,20000,3,9999,0.100000,0,0,44.058177,3,4.000000,0.000000,14.340597,0,0,1,0,0,0,0
6,69999,26,60000,49,20000,0,9999,0.100000,0,0,0.000000,3,0.000000,0.000000,2.606706,0,0,0,0,0,0,0
6,69999,27,60000,49,20000,1,9999,0.135000,0,0,0.000000,3,1.000000,0.000000,14.378727,0,0,0,0,0,0,0
6,69999,28,60000,83,30000,1,9999,0.100000,0,0,0.000000,3,2.000000,0.000000,11.985454,0,0,0,0,0,0,0
6,69999,29,60000,49,20000,1,9999,0.100000,0,0,0.000000,3,2.000000,0.000000,2.490444,0,0,0,0,0,0,0
6,69999,30,60000,76,10000,1,9999,0.100000,0,0,0.000000,3,2.000000,0.000000,2.538873,0,0,0,0,0,0,0
6,69999,31,60000,49,20000,1,9999,0.100000,0,0,0.000000,3,1.000000,0.000000,5.264810,0,0,0,0,0,0,0
6,69999,32,60000,49,20000,1,9999,0.100000,0,0,0.000000,3,1.000000,0.000000,2.052768,0,0,0,0,0,0,0
6,69999,33,60000,49,20000,1,9999,0.100000,0,0,0.000000,3,2.000000,0.000000,8.420464,0,0,0,0,0,0,0
6,69999,34,60000,76,10000,1,9999,0.100000,0,0,0.000000,3,4.000000,0.000000,5.120037,0,0,0,0,0,0,0
6,69999,35,60000,83,30000,0,9999,0.100000,0,0,0.000000,3,0.000000,0.000000,0.283212,0,0,0,0,0,0,0
6,69999,36,60000,76,10000,0,9999,0.100000,0,0,0.000000,3,0.000000,0.000000,1.162565,0,0,0,0,0,0,0
6,69999,37,60000,49,20000,1,9999,0.100000,0,0,0.000000,3,2.000000,0.000000,6.917202,0,0,0,0,0,0,0
6,69999,38,60000,49,20000,1,9999,0.100000,0,0,0.000000,3,4.000000,0.000000,6.454786,0,0,0,0,0,0,0
6,69999,39,60000,49,20000,0,9999,0.100000,0,0,0.000000,3,0.000000,0.000000,3.984991,0,0,0,0,0,0,0
6,69999,40,60000,49,20000,1,9999,0.100000,0,0,0.000000,3,5.000000,0.000000,6.614686,0,0,0,0,0,0,0
6,69999,41,60000,76,10000,0,9999,0.100000,0,0,0.000000,3,0.000000,0.000000,1.118732,0,0,0,0,0,0,0
6,69999,42,60000,83,30000,1,9999,0.100000,0,0,0.000000,3,6.000000,0.000000,10.906767,0,0,0,0,0,0,0
6,69999,43,60000,76,10000,1,9999,0.100000,0,0,0.000000,3,2.000000,0.000000,22.962087,0,0,0,0,0,0,0
6,69999,44,60000,49,20000,0,9999,0.100000,0,0,0.000000,3,0.000000,0.000000,12.919331,0,0,0,0,0,0,0
6,69999,45,60000,49,20000,0,9999,0.100000,0,0,0.000000,3,0.000000,0.000000,3.135208,0,0,0,0,0,0,0
6,69999,46,60000,76,10000,1,9999,0.100000,0,0,0.000000,3,1.000000,0.000000,9.186094,0,0,0,0,0,0,0
6,69999,47,60000,76,10000,1,9999,0.100000,0,0,0.000000,3,2.000000,0.000000,5.101277,0,0,0,0,0,0,0
6,69999,48,60000,49,20000,0,9999,0.100000,0,0,0.000000,3,0.000000,0.000000,0.202086,0,0,0,0,0,0,0
6,69999,49,60000,83,30000,0,9999,0.100000,0,0,0.000000,3,0.000000,0.000000,0.173258,0,0,0,0,0,0,0
6,69999,50,60000,49,20000,1,9999,0.100000,0,0,0.000000,3,1.000000,0.000000,1.360983,0,0,0,0,0,0,0
6,69999,51,60000,49,20000,1,9999,0.100000,0,0,0.000000,3,1.000000,0.000000,5.091316,0,0,0,0,0,0,0
6,69999,52,60000,83,30000,0,9999,0.100000,0,0,0.000000,3,0.000000,0.000000,4.433286,0,0,0,0,0,0,0
6,69999,53,60000,83,30000,1,9999,0.100000,0,0,0.000000,3,2.000000,0.000000,14.036065,0,0,0,0,0,0,0
6,69999,54,60000,49,20000,0,9999,0.100000,0,0,0.000000,3,0.000000,0.000000,1.616413,0,0,0,0,0,0,0
6,69999,55,60000,76,10000,1,9999,0.100000,0,0,0.000000,3,3.000000,0.000000,7.544447,0,0,0,0,0,0,0
6,69999,56,60000,83,30000,0,9999,0.100000,0,0,0.000000,3,0.000000,0.000000,0.906821,0,0,0,0,0,0,0
6,69999,57,60000,76,10000,0,9999,0.100000,0,0,0.000000,3,0.000000,0.000000,0.910374,0,0,0,0,0,0,0
6,69999,58,60000,76,10000,1,9999,0.100000,0,0,0.000000,3,1.000000,0.000000,12.239119,0,0,0,0,0,0,0
6,69999,59,60000,83,30000,1,9999,0.100000,0,0,0.000000,3,1.000000,0.000000,1.583908,0,0,0,0,0,0,0
6,69999,60,60000,83,30000,0,9999,0.100000,0,0,0.000000,3,0.000000,0.000000,0.372986,0,0,0,0,0,0,0
6,69999,61,60000,76,10000,1,9999,0.100000,0,0,0.000000,3,1.000000,0.000000,20.330212,0,0,0,0,0,0,0
6,69999,62,60000,49,20000,1,9999,0.100000,0,0,0.000000,3,2.000000,0.000000,6.123741,0,0,0,0,0,0,0
6,69999,63,60000,49,20000,0,9999,0.100000,0,0,0.000000,3,0.000000,0.000000,0.129216,0,0,0,0,0,0,0
6,69999,64,60000,76,10000,0,9999,0.100000,0,0,0.000000,3,0.000000,0.000000,1.641530,0,0,0,0,0,0,0
6,69999,65,60000,49,20000,1,9999,0.100000,0,0,0.000000,3,1.000000,0.000000,1.479869,0,0,0,0,0,0,0
6,69999,66,60000,76,10000,1,9999,0.100000,0,0,0.000000,3,1.000000,0.000000,14.566922,0,0,0,0,0,0,0
6,69999,67,60000,49,20000,1,9999,0.100000,0,0,0.000000,3,6.000000,0.000000,19.643043,0,0,0,0,0,0,0
6,69999,68,60000,49,20000,1,9999,0.100000,0,0,0.000000,3,2.000000,0.000000,2.523342,0,0,0,0,0,0,0
6,69999,69,60000,83,30000,1,9999,0.100000,0,0,0.000000,3,2.000000,0.000000,7.814582,0,0,0,0,0,0,0
6,69999,70,60000,49,20000,0,9999,0.100000,0,0,0.000000,3,0.000000,0.000000,1.548612,0,0,0,0,0,0,0
6,69999,71,60000,76,10000,1,9999,0.100000,0,0,0.000000,3,4.000000,0.000000,6.078382,0,0,0,0,0,0,0
6,69999,72,60000,76,10000,0,9999,0.100000,0,0,0.000000,3,0.000000,0.000000,20.458838,0,0,0,0,0,0,0
6,69999,73,60000,83,30000,0,9999,0.100000,0,0,0.000000,3,0.000000,0.000000,1.137940,0,0,0,0,0,0,0
6,69999,74,60000,49,20000,1,9999,0.100000,0,0,0.000000,3,1.000000,0.000000,1.896925,0,0,0,0,0,0,0
6,69999,75,60000,83,30000,0,9999,0.100000,0,0,0.000000,3,0.000000,0.000000,1.119994,0,0,0,0,0,0,0
6,69999,76,60000,49,20000,1,9999,0.100000,0,0,0.000000,3,2.000000,0.000000,4.229572,0,0,0,0,0,0,0
6,69999,77,60000,83,30000,0,9999,0.100000,0,0,0.000000,3,0.000000,0.000000,0.453806,0,0,0,0,0,0,0
6,69999,78,60000,76,10000,0,9999,0.065000,0,0,0.000000,3,0.000000,0.000000,0.106272,0,0,0,0,0,0,0
6,69999,79,60000,76,10000,1,9999,0.100000,0,0,0.000000,3,1.000000,0.000000,5.159215,0,0,0,0,0,0,0
6,69999,80,60000,83,30000,1,9999,0.100000,0,0,0.000000,3,3.000000,0.000000,5.440444,0,0,0,0,0,0,0
6,69999,81,60000,83,30000,0,9999,0.100000,0,0,0.000000,3,0.000000,0.000000,1.087803,0,0,0,0,0,0,0
6,69999,82,60000,49,20000,0,9999,0.100000,0,0,0.000000,3,0.000000,0.000000,2.082121,0,0,0,0,0,0,0
6,69999,83,60000,49,20000,0,9999,0.100000,0,0,0.000000,3,0.000000,0.000000,5.452924,0,0,0,0,0,0,0
6,69999,84,60000,49,20000,1,9999,0.100000,0,0,0.000000,3,5.000000,0.000000,7.554047,0,0,0,0,0,0,0
6,69999,85,60000,83,30000,1,9999,0.100000,0,0,0.000000,3,15.000000,0.000000,17.420399,0,0,0,0,0,0,0
6,69999,86,60000,83,30000,0,9999,0.100000,0,0,0.000000,3,0.000000,0.000000,0.945449,0,0,0,0,0,0,0
6,69999,87,60000,49,20000,0,9999,0.100000,0,0,0.000000,3,0.000000,0.000000,0.249959,0,0,0,0,0,0,0
6,69999,88,60000,76,10000,1,9999,0.100000,0,0,0.000000,3,1.000000,0.000000,5.450507,0,0,0,0,0,0,0
6,69999,89,60000,49,20000,1,9999,0.100000,0,0,0.000000,3,2.000000,0.000000,6.104312,0,0,0,0,0,0,0
6,69999,90,60000,49,20000,0,9999,0.100000,0,0,0.000000,3,0.000000,0.000000,2.264425,0,0,0,0,0,0,0
6,69999,91,60000,83,30000,1,9999,0.100000,0,0,0.000000,3,3.000000,0.000000,9.148538,0,0,0,0,0,0,0
6,69999,92,60000,83,30000,0,9999,0.100000,0,0,0.000000,3,0.000000,0.000000,2.189889,0,0,0,0,0,0,0
6,69999,93,60000,76,10000,1,9999,0.100000,0,0,0.000000,3,1.000000,0.000000,1.726092,0,0,0,0,0,0,0
6,69999,94,60000,83,30000,0,9999,0.100000,0,0,0.000000,3,0.000000,0.000000,0.908391,0,0,0,0,0,0,0
6,69999,95,60000,76,10000,1,9999,0.100000,0,0,0.000000,3,2.000000,0.000000,7.181086,0,0,0,0,0,0,0
6,69999,96,60000,49,20000,0,9999,0.100000,0,0,0.000000,3,0.000000,0.000000,0.223735,0,0,0,0,0,0,0
6,69999,97,60000,76,10000,1,9999,0.100000,0,0,0.000000,3,1.000000,0.000000,1.965650,0,0,0,0,0,0,0
6,69999,98,60000,76,10000,0,9999,0.100000,0,0,0.000000,3,0.000000,0.000000,1.068463,0,0,0,0,0,0,0
6,69999,99,60000,76,10000,0,9999,0.100000,0,0,0.000000,3,0.000000,0.000000,3.979019,0,0,0,0,0,0,0
7,79999,0,70000,49,20000,1,9999,0.100000,0,0,0.000000,3,3.000000,0.000000,3.290354,0,0,0,0,0,0,0
7,79999,1,70000,76,10000,0,9999,0.100000,0,0,0.000000,3,0.000000,0.000000,0.743297,0,0,0,0,0,0,0
7,79999,2,70000,83,30000,1,9999,0.100000,0,0,0.000000,3,3.000000,0.000000,3.358418,0,0,0,0,0,0,0
7,79999,3,70000,49,20000,0,9999,0.100000,0,0,0.000000,3,0.000000,0.000000,0.995419,0,0,0,0,0,0,0
7,79999,4,70000,76,10000,0,9999,0.100000,0,0,0.000000,3,0.000000,0.000000,0.241565,0,0,0,0,0,0,0
7,79999,5,70000,76,10000,1,9999,0.100000,0,0,0.000000,3,2.000000,0.000000,8.458207,0,0,0,0,0,0,0
7,79999,6,70000,83,30000,1,9999,0.100000,0,0,0.000000,3,13.000000,0.000000,18.054934,0,0,0,0,0,0,0
7,79999,7,70000,83,30000,0,9999,0.100000,0,0,0.000000,3,0.000000,0.000000,0.517202,0,0,0,0,0,0,0
7,79999,8,70000,83,30000,1,9999,0.100000,0,0,0.000000,3,3.000000,0.000000,9.670339,0,0,0,0,0,0,0
7,79999,9,70000,83,30000,1,9999,0.100000,0,0,0.000000,3,3.000000,0.000000,5.277253,0,0,0,0,0,0,0
7,79999,10,70000,49,20000,0,9999,0.100000,0,0,0.000000,3,0.000000,0.000000,7.515884,0,0,0,0,0,0,0
7,79999,11,70000,49,20000,1,9999,0.100000,0,0,0.000000,3,1.000000,0.000000,7.182744,0,0,0,0,0,0,0
7,79999,12,70000,76,10000,1,9999,0.100000,0,0,0.000000,3,1.000000,0.000000,8.509708,0,0,0,0,1,0,0
7,79999,13,70000,83,30000,1,9999,0.100000,0,0,0.000000,3,8.000000,0.000000,18.853083,0,0,0,0,0,0,0
7,79999,14,70000,76,10000,1,9999,0.100000,0,0,0.000000,3,16.000000,0.000000,21.703965,0,0,0,0,0,0,0
7,79999,15,70000,83,30000,1,9999,0.100000,0,0,0.000000,3,2.000000,0.000000,5.744540,0,0,0,0,0,0,0
7,79999,16,70000,83,30000,1,9999,0.100000,0,0,0.000000,3,2.000000,0.000000,10.375508,0,0,0,0,0,0,0
7,79999,17,70000,49,20000,0,9999,0.100000,0,0,0.000000,3,0.000000,0.000000,0.252607,0,0,0,0,0,0,0
7,79999,18,70000,49,20000,0,9999,0.100000,0,0,0.000000,3,0.000000,0.000000,0.440444,0,0,0,0,0,0,0
7,79999,19,70000,83,30000,1,9999,0.100000,0,0,0.000000,3,3.000000,0.000000,9.273447,0,0,0,0,0,0,0
7,79999,20,70000,49,20000,0,9999,0.100000,0,0,0.000000,3,0.000000,0.000000,0.189771,0,0,0,0,0,0,0
7,79999,21,70000,49,20000,1,9999,0.100000,0,0,0.000000,3,2.000000,0.000000,9.477374,0,0,0,0,0,0,0
7,79999,22,70000,76,10000,1,9999,0.100000,0,0,0.000000,3,1.000000,0.000000,9.677255,0,0,0,0,0,0,0
7,79999,23,70000,76,10000,1,9999,0.100000,0,0,0.000000,3,3.000000,0.000000,8.765000,0,0,0,0,0,0,0
7,79999,24,70000,83,30000,1,9999,0.100000,0,0,0.000000,3,2.000000,0.000000,7.868715,0,0,0,0,0,0,0
7,79999,25,70000,76,10000,1,9999,0.100000,0,0,0.000000,3,2.000000,0.000000,9.090043,0,0,0,0,0,0,0
7,79999,26,70000,76,10000,1,9999,0.100000,0,0,0.000000,3,13.000000,0.000000,14.606195,0,0,0,0,0,0,0
7,79999,27,70000,49,20000,1,9999,0.100000,0,0,0.000000,3,3.000000,0.000000,9.374133,0,0,0,0,0,0,0
7,79999,28,70000,83,30000,1,9999,0.100000,0,0,0.000000,3,1.000000,0.000000,8.043183,0,0,0,0,0,0,0
7,79999,29,70000,49,20000,1,9999,0.100000,0,0,0.000000,3,2.000000,0.000000,9.256554,0,0,0,0,0,0,0
7,79999,30,70000,76,10000,0,9999,0.100000,0,0,0.000000,3,0.000000,0.000000,1.042946,0,0,0,0,0,0,0
7,79999,31,70000,76,10000,1,9999,0.100000,0,0,0.000000,3,1.000000,0.000000,6.588102,0,0,0,0,0,0,0
7,79999,32,70000,76,10000,1,9999,0.100000,0,0,0.000000,3,1.000000,0.000000,4.325468,0,0,0,0,0,0,0
7,79999,33,70000,76,10000,1,9999,0.100000,0,0,0.000000,3,1.000000,0.000000,9.420930,0,0,0,0,0,0,0
7,79999,34,70000,83,30000,1,9999,0.100000,0,0,0.000000,3,3.000000,0.000000,4.813015,0,0,0,0,0,0,0
7,79999,35,70000,76,10000,0,9999,0.100000,0,0,0.000000,3,0.000000,0.000000,0.396998,0,0,0,0,0,0,0
7,79999,36,70000,49,20000,0,9999,0.100000,0,0,0.000000,3,0.000000,0.000000,1.205804,0,0,0,0,0,0,0
7,79999,37,70000,49,20000,1,9999,0.100000,0,0,0.000000,3,1.000000,0.000000,6.649626,0,0,0,0,0,0,0
7,79999,38,70000,83,30000,1,9999,0.100000,0,0,0.000000,3,1.000000,0.000000,5.013159,0,0,0,0,0,0,0
7,79999,39,70000,83,30000,1,9999,0.100000,0,0,0.000000,3,1.000000,0.000000,5.666971,0,0,0,0,0,0,0
7,79999,40,70000,83,30000,1,9999,0.100000,0,0,0.000000,3,1.000000,0.000000,14.014906,0,0,0,0,1,0,0
7,79999,41,70000,49,20000,0,9999,0.100000,0,0,0.000000,3,0.000000,0.000000,0.310864,0,0,0,0,0,0,0
7,79999,42,70000,83,30000,0,9999,0.100000,0,0,0.000000,3,0.000000,0.000000,0.906461,0,0,0,0,0,0,0
7,79999,43,70000,49,20000,1,9999,0.100000,0,0,0.000000,3,3.000000,0.000000,24.851809,0,0,0,0,0,0,0
7,79999,44,70000,83,30000,1,9999,0.100000,0,0,0.000000,3,11.000000,0.000000,13.738035,0,0,0,0,0,0,0
7,79999,45,70000,76,10000,1,9999,0.100000,0,0,0.000000,3,8.000000,0.000000,9.331765,0,0,0,0,0,0,0
7,79999,46,70000,49,20000,1,9999,0.100000,0,0,0.000000,3,2.000000,0.000000,16.608629,0,0,0,0,0,0,0
7,79999,47,70000,76,10000,1,9999,0.100000,0,0,0.000000,3,1.000000,0.000000,1.350523,0,0,0,0,0,0,0
7,79999,48,70000,76,10000,0,9999,0.100000,0,0,0.000000,3,0.000000,0.000000,0.226808,0,0,0,0,0,0,0
7,79999,49,70000,83,30000,0,9999,0.100000,0,0,0.000000,3,0.000000,0.000000,0.173922,0,0,0,0,0,0,0
7,79999,50,70000,76,10000,0,9999,0.100000,0,0,0.000000,3,0.000000,0.000000,0.203244,0,0,0,0,0,0,0
7,79999,51,70000,83,30000,1,9999,0.100000,0,0,0.000000,3,2.000000,0.000000,13.611086,0,0,0,0,0,0,0
7,79999,52,70000,83,30000,1,9999,0.100000,0,0,0.000000,3,1.000000,0.000000,4.136731,0,0,0,0,0,0,0
7,79999,53,70000,49,20000,1,9999,0.100000,0,0,0.000000,3,1.000000,0.000000,1.724075,0,0,0,0,0,0,0
7,79999,54,70000,76,10000,0,9999,0.100000,0,0,0.000000,3,0.000000,0.000000,1.644649,0,0,0,0,0,0,0
7,79999,55,70000,76,10000,1,9999,0.100000,0,0,0.000000,3,3.000000,0.000000,12.641005,0,0,0,0,0,0,0
7,79999,56,70000,83,30000,0,9999,0.100000,0,0,0.000000,3,0.000000,0.000000,0.732086,0,0,0,0,0,0,0
7,79999,57,70000,83,30000,0,9999,0.100000,0,0,0.000000,3,0.000000,0.000000,0.337014,0,0,0,0,0,0,0
7,79999,58,70000,83,30000,1,9999,0.100000,0,0,0.000000,3,1.000000,0.000000,7.691886,0,0,0,0,0,0,0
7,79999,59,70000,76,10000,1,9999,0.100000,0,0,0.000000,3,3.000000,0.000000,9.613493,0,0,0,0,0,0,0
7,79999,60,70000,83,30000,0,9999,0.100000,0,0,0.000000,3,0.000000,0.000000,0.479324,0,0,0,0,0,0,0
7,79999,61,70000,83,30000,1,9999,0.100000,0,0,0.000000,3,1.000000,0.000000,16.144687,0,0,0,0,0,0,0
7,79999,62,70000,49,20000,1,9999,0.100000,0,0,0.000000,3,4.000000,0.000000,8.089879,0,0,0,0,0,0,0
7,79999,63,70000,83,30000,0,9999,0.100000,0,0,0.000000,3,0.000000,0.000000,0.165591,0,0,0,0,0,0,0
7,79999,64,70000,76,10000,0,9999,0.100000,0,0,0.000000,3,0.000000,0.000000,1.860424,0,0,0,0,0,0,0
7,79999,65,70000,49,20000,1,9999,0.100000,0,0,0.000000,3,1.000000,0.000000,1.945295,0,0,0,0,0,0,0
7,79999,66,70000,76,10000,1,9999,0.100000,0,0,0.000000,3,3.000000,0.000000,4.580041,0,0,0,0,0,0,0
7,79999,67,70000,83,30000,1,9999,0.100000,0,0,0.000000,3,7.000000,0.000000,9.043970,0,0,0,0,0,0,0
7,79999,68,70000,83,30000,1,9999,0.100000,0,0,0.000000,3,1.000000,0.000000,9.328553,0,0,0,0,0,0,0
7,79999,69,70000,49,20000,1,9999,0.100000,0,0,0.000000,3,2.000000,0.000000,5.571990,0,0,0,0,0,0,0
7,79999,70,70000,49,20000,0,9999,0.100000,0,0,0.000000,3,0.000000,0.000000,0.853511,0,0,0,0,0,0,0
7,79999,71,70000,83,30000,0,9999,0.100000,0,0,0.000000,3,0.000000,0.000000,2.291151,0,0,0,0,0,0,0
7,79999,72,70000,76,10000,0,9999,0.100000,0,0,0.000000,3,0.000000,0.000000,2.530970,0,0,0,0,0,0,0
7,79999,73,70000,76,10000,0,9999,0.100000,0,0,0.000000,3,0.000000,0.000000,0.304898,0,0,0,0,0,0,0
7,79999,74,70000,83,30000,1,9999,0.100000,0,0,0.000000,3,1.000000,0.000000,1.782196,0,0,0,0,0,0,0
7,79999,75,70000,49,20000,0,9999,0.100000,0,0,0.000000,3,0.000000,0.000000,0.413331,0,0,0,0,0,0,0
7,79999,76,70000,83,30000,1,9999,0.100000,0,0,0.000000,3,1.000000,0.000000,4.153122,0,0,0,0,0,0,0
7,79999,77,70000,49,20000,0,9999,0.100000,0,0,0.000000,3,0.000000,0.000000,0.956246,0,0,0,0,0,0,0
7,79999,78,70000,76,10000,0,9999,0.100000,0,0,0.000000,3,0.000000,0.000000,0.126411,0,0,0,0,0,0,0
7,79999,79,70000,49,20000,1,9999,0.100000,0,0,0.000000,3,1.000000,0.000000,6.125127,0,0,0,0,0,0,0
7,79999,80,70000,83,30000,1,9999,0.100000,0,0,0.000000,3,3.000000,0.000000,3.637147,0,0,0,0,0,0,0
7,79999,81,70000,49,20000,0,9999,0.100000,0,0,0.000000,3,0.000000,0.000000,1.137348,0,0,0,0,0,0,0
7,79999,82,70000,83,30000,0,9999,0.100000,0,0,0.000000,3,0.000000,0.000000,1.258876,0,0,0,0,0,0,0
7,79999,83,70000,76,10000,0,9999,0.100000,0,0,0.000000,3,0.000000,0.000000,4.680271,0,0,0,0,0,0,0
7,79999,84,70000,83,30000,1,9999,0.100000,0,0,0.000000,3,1.000000,0.000000,11.651679,0,0,0,0,1,0,0
7,79999,85,70000,49,20000,0,9999,0.100000,0,0,0.000000,3,0.000000,0.000000,0.428444,0,0,0,0,0,0,0
7,79999,86,70000,76,10000,0,9999,0.100000,0,0,0.000000,3,0.000000,0.000000,0.949612,0,0,0,0,0,0,0
7,79999,87,70000,83,30000,0,9999,0.100000,0,0,0.000000,3,0.000000,0.000000,0.237707,0,0,0,0,0,0,0
7,79999,88,70000,83,30000,1,9999,0.100000,0,0,0.000000,3,1.000000,0.000000,4.408865,0,0,0,0,0,0,0
7,79999,89,70000,49,20000,1,9999,0.100000,0,0,0.000000,3,4.000000,0.000000,16.610766,0,0,0,0,0,0,0
7,79999,90,70000,49,20000,0,9999,0.100000,0,0,0.000000,3,0.000000,0.000000,2.123758,0,0,0,0,0,0,0
7,79999,91,70000,49,20000,1,9999,0.100000,0,0,0.000000,3,4.000000,0.000000,14.144485,0,0,0,0,0,0,0
7,79999,92,70000,76,10000,0,9999,0.100000,0,0,0.000000,3,0.000000,0.000000,2.215708,0,0,0,0,0,0,0
7,79999,93,70000,49,20000,1,9999,0.100000,0,0,0.000000,3,1.000000,0.000000,2.760098,0,0,0,0,0,0,0
7,79999,94,70000,49,20000,0,9999,0.100000,0,0,0.000000,3,0.000000,0.000000,0.424655,0,0,0,0,0,0,0
7,79999,95,70000,49,20000,1,9999,0.100000,0,0,0.000000,3,1.000000,0.000000,7.138833,0,0,0,0,0,0,0
7,79999,96,70000,83,30000,0,9999,0.100000,0,0,0.000000,3,0.000000,0.000000,0.215383,0,0,0,0,0,0,0
7,79999,97,70000,83,30000,1,9999,0.100000,0,0,0.000000,3,1.000000,0.000000,2.183669,0,0,0,0,0,0,0
7,79999,98,70000,83,30000,1,9999,0.100000,0,0,0.000000,3,3.000000,0.000000,11.161646,0,0,0,0,0,0,0
7,79999,99,70000,83,30000,0,9999,0.100000,0,0,0.000000,3,0.000000,0.000000,3.775557,0,0,0,0,0,0,0
8,89999,0,80000,76,10000,1,9999,0.100000,0,0,0.000000,3,3.000000,0.000000,3.788330,0,0,0,0,0,0,0
8,89999,1,80000,49,20000,0,9999,0.100000,0,0,0.000000,3,0.000000,0.000000,0.371859,0,0,0,0,0,0,0
8,89999,2,80000,83,30000,1,9999,0.100000,0,0,0.000000,3,3.000000,0.000000,4.563287,0,0,0,0,0,0,0
8,89999,3,80000,76,10000,0,9999,0.100000,0,0,0.000000,3,0.000000,0.000000,1.238074,0,0,0,0,0,0,0
8,89999,4,80000,49,20000,0,9999,0.100000,0,0,0.000000,3,0.000000,0.000000,0.232845,0,0,0,0,0,0,0
8,89999,5,80000,83,30000,1,9999,0.100000,0,0,0.000000,3,2.000000,0.000000,11.293219,0,0,0,0,0,0,0
8,89999,6,80000,76,10000,1,9999,0.100000,0,0,0.000000,3,9.000000,0.000000,11.992816,0,0,0,0,0,0,0
8,89999,7,80000,76,10000,0,9999,0.100000,0,0,0.000000,3,0.000000,0.000000,0.483799,0,0,0,0,0,0,0
8,89999,8,80000,49,20000,1,9999,0.100000,0,0,0.000000,3,1.000000,0.000000,9.660414,0,0,0,0,0,0,0
8,89999,9,80000,76,10000,0,9999,0.100000,0,0,0.000000,3,0.000000,0.000000,8.237543,0,0,0,0,0,0,0
8,89999,10,80000,76,10000,1,9999,0.100000,0,0,0.000000,3,1.000000,0.000000,13.989787,0,0,0,0,0,0,0
8,89999,11,80000,83,30000,1,9999,0.100000,0,0,0.000000,3,2.000000,0.000000,13.131229,0,0,0,0,0,0,0
8,89999,12,80000,49,20000,1,9999,0.100000,0,0,0.000000,3,1.000000,0.000000,6.247991,0,0,0,0,0,0,0
8,89999,13,80000,83,30000,0,9999,0.100000,0,0,0.000000,3,0.000000,0.000000,6.304074,0,0,0,0,0,0,0
8,89999,14,80000,49,20000,1,9999,0.100000,0,0,0.000000,3,1.000000,0.000000,2.343640,0,0,0,0,0,0,0
8,89999,15,80000,49,20000,1,9999,0.100000,0,0,0.000000,3,5.000000,0.000000,13.959576,0,0,0,0,0,0,0
8,89999,16,80000,83,30000,1,9999,0.100000,0,0,0.000000,3,2.000000,0.000000,14.087587,0,0,0,0,0,0,0
8,89999,17,80000,76,10000,0,9999,0.100000,0,0,0.000000,3,0.000000,0.000000,0.193460,0,0,0,0,0,0,0
8,89999,18,80000,76,10000,0,9999,0.100000,0,0,0.000000,3,0.000000,0.000000,1.262826,0,0,0,0,0,0,0
8,89999,19,80000,76,10000,1,9999,0.100000,0,0,0.000000,3,5.000000,0.000000,13.064053,0,0,0,0,0,0,0
8,89999,20,80000,76,10000,0,9999,0.100000,0,0,0.000000,3,0.000000,0.000000,0.122086,0,0,0,0,0,0,0
8,89999,21,80000,76,10000,0,9999,0.100000,0,0,0.000000,3,0.000000,0.000000,6.619623,0,0,0,0,0,0,0
8,89999,22,80000,49,20000,1,9999,0.100000,0,0,0.000000,3,1.000000,0.000000,14.702235,0,0,0,0,0,0,0
8,89999,23,80000,83,30000,1,9999,0.100000,0,0,0.000000,3,5.000000,0.000000,8.241835,0,0,0,0,0,0,0
8,89999,24,80000,76,10000,1,9999,0.100000,0,0,0.000000,3,1.000000,0.000000,7.555891,0,0,0,0,0,0,0
8,89999,25,80000,83,30000,1,9999,0.100000,0,0,0.000000,3,2.000000,0.000000,7.831255,0,0,0,0,0,0,0
8,89999,26,80000,76,10000,1,9999,0.100000,0,0,0.000000,3,4.000000,0.000000,10.725914,0,0,0,0,0,0,0
8,89999,27,80000,76,10000,1,9999,0.100000,0,0,0.000000,3,1.000000,0.000000,10.063682,0,0,0,0,0,0,0
8,89999,28,80000,83,30000,1,9999,0.100000,0,0,0.000000,3,1.000000,0.000000,8.657085,0,0,0,0,0,0,0
8,89999,29,80000,83,30000,1,9999,0.100000,0,0,0.000000,3,5.000000,0.000000,7.748720,0,0,0,0,0,0,0
8,89999,30,80000,49,20000,0,9999,0.100000,0,0,0.000000,3,0.000000,0.000000,0.697590,0,0,0,0,0,0,0
8,89999,31,80000,76,10000,1,9999,0.100000,0,0,34.210526,3,1.000000,0.000000,11.642460,0,0,0,1,0,0,0
8,89999,32,80000,83,30000,0,9999,0.100000,0,0,0.000000,3,0.000000,0.000000,1.032244,0,0,0,0,0,0,0
8,89999,33,80000,49,20000,1,9999,0.100000,0,0,0.000000,3,1.000000,0.000000,15.021138,0,0,0,0,0,0,0
8,89999,34,80000,83,30000,1,9999,0.100000,0,0,0.000000,3,2.000000,0.000000,4.827457,0,0,0,0,0,0,0
8,89999,35,80000,83,30000,0,9999,0.100000,0,0,0.000000,3,0.000000,0.000000,0.684683,0,0,0,0,0,0,0
8,89999,36,80000,49,20000,0,9999,0.100000,0,0,0.000000,3,0.000000,0.000000,1.805870,0,0,0,0,0,0,0
8,89999,37,80000,76,10000,1,9999,0.100000,0,0,0.000000,3,1.000000,0.000000,8.666202,0,0,0,0,0,0,0
8,89999,38,80000,49,20000,0,9999,0.100000,0,0,0.000000,3,0.000000,0.000000,3.819776,0,0,0,0,0,0,0
8,89999,39,80000,76,10000,0,9999,0.100000,0,0,0.000000,3,0.000000,0.000000,7.904479,0,0,0,0,0,0,0
8,89999,40,80000,83,30000,1,9999,0.100000,0,0,34.210526,3,6.000000,0.000000,15.661653,0,0,0,1,0,0,0
8,89999,41,80000,76,10000,0,9999,0.100000,0,0,0.000000,3,0.000000,0.000000,0.379197,0,0,0,0,0,0,0
8,89999,42,80000,83,30000,1,9999,0.100000,0,0,0.000000,3,11.000000,0.000000,11.998560,0,0,0,0,0,0,0
8,89999,43,80000,49,20000,1,9999,0.100000,0,0,0.000000,3,3.000000,0.000000,19.398614,0,0,0,0,0,0,0
8,89999,44,80000,83,30000,0,9999,0.100000,0,0,0.000000,3,0.000000,0.000000,0.248349,0,0,0,0,0,0,0
8,89999,45,80000,83,30000,0,9999,0.100000,0,0,0.000000,3,0.000000,0.000000,1.242938,0,0,0,0,0,0,0
8,89999,46,80000,76,10000,1,9999,0.100000,0,0,0.000000,3,4.000000,0.000000,16.915222,0,0,0,0,0,0,0
8,89999,47,80000,49,20000,1,9999,0.100000,0,0,0.000000,3,2.000000,0.000000,6.750067,0,0,0,0,0,0,0
8,89999,48,80000,76,10000,0,9999,0.100000,0,0,0.000000,3,0.000000,0.000000,0.252638,0,0,0,0,0,0,0
8,89999,49,80000,49,20000,0,9999,0.100000,0,0,0.000000,3,0.000000,0.000000,0.174805,0,0,0,0,0,0,0
8,89999,50,80000,76,10000,0,9999,0.100000,0,0,0.000000,3,0.000000,0.000000,0.072080,0,0,0,0,0,0,0
8,89999,51,80000,76,10000,1,9999,0.100000,0,0,0.000000,3,3.000000,0.000000,12.753273,0,0,0,0,0,0,0
8,89999,52,80000,83,30000,1,9999,0.100000,0,0,0.000000,3,1.000000,0.000000,8.689115,0,0,0,0,0,0,0
8,89999,53,80000,76,10000,0,9999,0.100000,0,0,0.000000,3,0.000000,0.000000,0.993762,0,0,0,0,0,0,0
8,89999,54,80000,83,30000,0,9999,0.100000,0,0,0.000000,3,0.000000,0.000000,1.257769,0,0,0,0,0,0,0
8,89999,55,80000,49,20000,1,9999,0.100000,0,0,0.000000,3,1.000000,0.000000,13.931458,0,0,0,0,0,0,0
8,89999,56,80000,49,20000,0,9999,0.100000,0,0,0.000000,3,0.000000,0.000000,0.590806,0,0,0,0,0,0,0
8,89999,57,80000,76,10000,0,9999,0.135000,0,0,0.000000,3,0.000000,0.000000,0.375630,0,0,0,0,0,0,0
8,89999,58,80000,83,30000,1,9999,0.100000,0,0,0.000000,3,2.000000,0.000000,14.220283,0,0,0,0,0,0,0
8,89999,59,80000,83,30000,1,9999,0.100000,0,0,0.000000,3,1.000000,0.000000,6.112434,0,0,0,0,0,0,0
8,89999,60,80000,76,10000,0,9999,0.100000,0,0,0.000000,3,0.000000,0.000000,0.628621,0,0,0,0,0,0,0
8,89999,61,80000,83,30000,1,9999,0.100000,0,0,0.000000,3,1.000000,0.000000,11.782800,0,0,0,0,0,0,0
8,89999,62,80000,76,10000,1,9999,0.100000,0,0,0.000000,3,5.000000,0.000000,10.374772,0,0,0,0,0,0,0
8,89999,63,80000,83,30000,0,9999,0.100000,0,0,0.000000,3,0.000000,0.000000,0.161753,0,0,0,0,0,0,0
8,89999,64,80000,76,10000,0,9999,0.100000,0,0,0.000000,3,0.000000,0.000000,1.700156,0,0,0,0,0,0,0
8,89999,65,80000,76,10000,1,9999,0.100000,0,0,0.000000,3,4.000000,0.000000,7.483857,0,0,0,0,0,0,0
8,89999,66,80000,83,30000,1,9999,0.100000,0,0,0.000000,3,3.000000,0.000000,4.651102,0,0,0,0,0,0,0
8,89999,67,80000,76,10000,0,9999,0.100000,0,0,0.000000,3,0.000000,0.000000,0.140213,0,0,0,0,0,0,0
8,89999,68,80000,76,10000,1,9999,0.100000,0,0,0.000000,3,3.000000,0.000000,11.261274,0,0,0,0,0,0,0
8,89999,69,80000,49,20000,1,9999,0.100000,0,0,0.000000,3,1.000000,0.000000,1.636937,0,0,0,0,0,0,0
8,89999,70,80000,76,10000,0,9999,0.100000,0,0,0.000000,3,0.000000,0.000000,0.897856,0,0,0,0,0,0,0
8,89999,71,80000,76,10000,1,9999,0.100000,0,0,0.000000,3,5.000000,0.000000,11.343952,0,0,0,0,0,0,0
8,89999,72,80000,83,30000,1,9999,0.100000,0,0,34.210526,3,6.000000,0.000000,12.694953,0,0,0,0,0,1,0
8,89999,73,80000,83,30000,0,9999,0.100000,0,0,0.000000,3,0.000000,0.000000,0.393347,0,0,0,0,0,0,0
8,89999,74,80000,83,30000,0,9999,0.100000,0,0,0.000000,3,0.000000,0.000000,0.545690,0,0,0,0,0,0,0
8,89999,75,80000,49,20000,1,9999,0.100000,0,0,34.210526,3,7.000000,0.000000,12.575911,0,0,0,0,0,1,0
8,89999,76,80000,49,20000,1,9999,0.100000,0,0,0.000000,3,2.000000,0.000000,8.575511,0,0,0,0,0,0,0
8,89999,77,80000,83,30000,0,9999,0.100000,0,0,0.000000,3,0.000000,0.000000,0.317584,0,0,0,0,0,0,0
8,89999,78,80000,83,30000,0,9999,0.100000,0,0,0.000000,3,0.000000,0.000000,0.128643,0,0,0,0,0,0,0
8,89999,79,80000,49,20000,1,9999,0.100000,0,0,0.000000,3,1.000000,0.000000,7.776423,0,0,0,0,0,0,0
8,89999,80,80000,76,10000,1,9999,0.100000,0,0,0.000000,3,3.000000,0.000000,4.465700,0,0,0,0,0,0,0
8,89999,81,80000,83,30000,0,9999,0.100000,0,0,0.000000,3,0.000000,0.000000,1.148169,0,0,0,0,0,0,0
8,89999,82,80000,76,10000,0,9999,0.100000,0,0,0.000000,3,0.000000,0.000000,1.475453,0,0,0,0,0,0,0
8,89999,83,80000,83,30000,1,9999,0.100000,0,0,0.000000,3,2.000000,0.000000,4.934595,0,0,0,0,0,0,0
8,89999,84,80000,76,10000,0,9999,0.100000,0,0,0.000000,3,0.000000,0.000000,1.250225,0,0,0,0,0,0,0
8,89999,85,80000,83,30000,0,9999,0.100000,0,0,0.000000,3,0.000000,0.000000,0.408694,0,0,0,0,0,0,0
8,89999,86,80000,49,20000,0,9999,0.100000,0,0,0.000000,3,0.000000,0.000000,1.099956,0,0,0,0,0,0,0
8,89999,87,80000,76,10000,0,9999,0.100000,0,0,0.000000,3,0.000000,0.000000,0.228565,0,0,0,0,0,0,0
8,89999,88,80000,76,10000,1,9999,0.100000,0,0,0.000000,3,2.000000,0.000000,13.323092,0,0,0,0,0,0,0
8,89999,89,80000,49,20000,1,9999,0.100000,0,0,34.210526,3,6.000000,0.000000,13.754232,0,0,0,0,0,1,0
8,89999,90,80000,49,20000,1,9999,0.100000,0,0,0.000000,3,3.000000,0.000000,4.528879,0,0,0,0,0,0,0
8,89999,91,80000,76,10000,0,9999,0.100000,0,0,0.000000,3,0.000000,0.000000,0.233456,0,0,0,0,0,0,0
8,89999,92,80000,49,20000,0,9999,0.100000,0,0,0.000000,3,0.000000,0.000000,2.105720,0,0,0,0,0,0,0
8,89999,93,80000,49,20000,1,9999,0.100000,0,0,0.000000,3,4.000000,0.000000,8.692902,0,0,0,0,0,0,0
8,89999,94,80000,76,10000,1,9999,0.100000,0,0,34.210526,3,7.000000,0.000000,10.182617,0,0,0,0,0,1,0
8,89999,95,80000,76,10000,1,9999,0.100000,0,0,0.000000,3,2.000000,0.000000,14.381716,0,0,0,0,0,0,0
8,89999,96,80000,83,30000,0,9999,0.100000,0,0,0.000000,3,0.000000,0.000000,0.210013,0,0,0,0,0,0,0
8,89999,97,80000,76,10000,0,9999,0.100000,0,0,0.000000,3,0.000000,0.000000,0.505420,0,0,0,0,0,0,0
8,89999,98,80000,49,20000,1,9999,0.100000,0,0,0.000000,3,1.000000,0.000000,11.351034,0,0,0,0,0,0,0
8,89999,99,80000,49,20000,0,9999,0.100000,0,0,0.000000,3,0.000000,0.000000,3.058843,0,0,0,0,0,0,0
9,99999,0,90000,49,20000,1,9999,0.100000,0,0,0.000000,3,1.000000,0.000000,3.862452,0,0,0,0,0,0,0
9,99999,1,90000,49,20000,0,9999,0.100000,0,0,0.000000,3,0.000000,0.000000,0.067035,0,0,0,0,0,0,0
9,99999,2,90000,76,10000,0,9999,0.100000,0,0,0.000000,3,0.000000,0.000000,0.834026,0,0,0,0,0,0,0
9,99999,3,90000,83,30000,0,9999,0.100000,0,0,0.000000,3,0.000000,0.000000,0.971857,0,0,0,0,0,0,0
9,99999,4,90000,49,20000,0,9999,0.100000,0,0,0.000000,3,0.000000,0.000000,0.225045,0,0,0,0,0,0,0
9,99999,5,90000,76,10000,1,9999,0.100000,0,0,0.000000,3,1.000000,0.000000,6.919514,0,0,0,0,0,0,0
9,99999,6,90000,83,30000,0,9999,0.100000,0,0,0.000000,3,0.000000,0.000000,2.464264,0,0,0,0,0,0,0
9,99999,7,90000,76,10000,0,9999,0.100000,0,0,0.000000,3,0.000000,0.000000,0.514426,0,0,0,0,0,0,0
9,99999,8,90000,49,20000,1,9999,0.100000,0,0,0.000000,3,2.000000,0.000000,3.676491,0,0,0,0,0,0,0
9,99999,9,90000,83,30000,1,9999,0.100000,0,0,0.000000,3,1.000000,0.000000,7.262920,0,0,0,0,0,0,0
9,99999,10,90000,76,10000,1,9999,0.100000,0,0,0.000000,3,3.000000,0.000000,16.265593,0,0,0,0,0,0,0
9,99999,11,90000,49,20000,1,9999,0.100000,0,0,0.000000,3,4.000000,0.000000,12.789100,0,0,0,0,0,0,0
9,99999,12,90000,49,20000,0,9999,0.100000,0,0,0.000000,3,0.000000,0.000000,4.297795,0,0,0,0,0,0,0
9,99999,13,90000,49,20000,1,9999,0.100000,0,0,0.000000,3,3.000000,0.000000,10.616936,0,0,0,0,0,0,0
9,99999,14,90000,76,10000,0,9999,0.100000,0,0,0.000000,3,0.000000,0.000000,0.089162,0,0,0,0,0,0,0
9,99999,15,90000,83,30000,0,9999,0.100000,0,0,0.000000,3,0.000000,0.000000,0.933322,0,0,0,0,0,0,0
9,99999,16,90000,83,30000,1,9999,0.100000,0,0,0.000000,3,1.000000,0.000000,14.299580,0,0,0,0,0,0,0
9,99999,17,90000,83,30000,0,9999,0.100000,0,0,0.000000,3,0.000000,0.000000,0.193568,0,0,0,0,0,0,0
9,99999,18,90000,76,10000,0,9999,0.100000,0,0,0.000000,3,0.000000,0.000000,0.080637,0,0,0,0,0,0,0
9,99999,19,90000,49,20000,1,9999,0.100000,0,0,0.000000,3,1.000000,0.000000,14.988128,0,0,0,0,0,0,0
9,99999,20,90000,49,20000,0,9999,0.100000,0,0,0.000000,3,0.000000,0.000000,0.062836,0,0,0,0,0,0,0
9,99999,21,90000,49,20000,1,9999,0.100000,0,0,0.000000,3,1.000000,0.000000,4.884575,0,0,0,0,0,0,0
9,99999,22,90000,49,20000,1,9999,0.100000,0,0,0.000000,3,1.000000,0.000000,15.417665,0,0,0,0,0,0,0
9,99999,23,90000,83,30000,1,9999,0.100000,0,0,0.000000,3,1.000000,0.000000,3.308885,0,0,0,0,0,0,0
9,99999,24,90000,76,10000,1,9999,0.100000,0,0,0.000000,3,4.000000,0.000000,12.096524,0,0,0,0,0,0,0
9,99999,25,90000,49,20000,1,9999,0.100000,0,0,0.000000,3,2.000000,0.000000,9.127063,0,0,0,0,0,0,0
9,99999,26,90000,83,30000,1,9999,0.100000,0,0,0.000000,3,5.000000,0.000000,17.672054,0,0,0,0,0,0,0
9,99999,27,90000,83,30000,1,9999,0.100000,0,0,0.000000,3,1.000000,0.000000,13.852836,0,0,0,0,0,0,0
9,99999,28,90000,49,20000,1,9999,0.100000,0,0,0.000000,3,3.000000,0.000000,14.388511,0,0,0,0,0,0,0
9,99999,29,90000,49,20000,0,9999,0.100000,0,0,0.000000,3,0.000000,0.000000,0.363642,0,0,0,0,0,0,0
9,99999,30,90000,49,20000,0,9999,0.100000,0,0,0.000000,3,0.000000,0.000000,0.250081,0,0,0,0,0,0,0
9,99999,31,90000,83,30000,1,9999,0.100000,0,0,0.000000,3,3.000000,0.000000,10.892132,0,0,0,0,0,0,0
9,99999,32,90000,49,20000,1,9999,0.100000,0,0,0.000000,3,6.000000,0.000000,7.216028,0,0,0,0,0,0,0
9,99999,33,90000,49,20000,1,9999,0.100000,0,0,0.000000,3,2.000000,0.000000,17.535954,0,0,0,0,0,0,0
9,99999,34,90000,76,10000,0,9999,0.100000,0,0,0.000000,3,0.000000,0.000000,6.370195,0,0,0,0,0,0,0
9,99999,35,90000,83,30000,0,9999,0.100000,0,0,0.000000,3,0.000000,0.000000,0.702414,0,0,0,0,0,0,0
9,99999,36,90000,76,10000,1,9999,0.100000,0,0,0.000000,3,1.000000,0.000000,4.534983,0,0,0,0,0,0,0
9,99999,37,90000,76,10000,1,9999,0.100000,0,0,0.000000,3,3.000000,0.000000,17.139115,0,0,0,0,0,0,0
9,99999,38,90000,83,30000,1,9999,0.100000,0,0,0.000000,3,1.000000,0.000000,8.250750,0,0,0,0,0,0,0
9,99999,39,90000,83,30000,1,9999,0.100000,0,0,0.000000,3,2.000000,0.000000,10.932300,0,0,0,0,0,0,0
9,99999,40,90000,49,20000,1,9999,0.100000,0,0,0.000000,3,2.000000,0.000000,7.247759,0,0,0,0,0,0,0
9,99999,41,90000,76,10000,0,9999,0.100000,0,0,0.000000,3,0.000000,0.000000,0.698255,0,0,0,0,0,0,0
9,99999,42,90000,49,20000,0,9999,0.100000,0,0,0.000000,3,0.000000,0.000000,1.333249,0,0,0,0,0,0,0
9,99999,43,90000,83,30000,1,9999,0.100000,0,0,0.000000,3,2.000000,0.000000,8.344986,0,0,0,0,0,0,0
9,99999,44,90000,49,20000,0,9999,0.100000,0,0,0.000000,3,0.000000,0.000000,0.237284,0,0,0,0,0,0,0
9,99999,45,90000,49,20000,1,9999,0.100000,0,0,0.000000,3,11.000000,0.000000,12.296038,0,0,0,0,0,0,0
9,99999,46,90000,49,20000,1,9999,0.100000,0,0,0.000000,3,1.000000,0.000000,7.215741,0,0,0,0,0,0,0
9,99999,47,90000,76,10000,0,9999,0.100000,0,0,0.000000,3,0.000000,0.000000,1.601627,0,0,0,0,0,0,0
9,99999,48,90000,83,30000,0,9999,0.100000,0,0,0.000000,3,0.000000,0.000000,0.392748,0,0,0,0,0,0,0
9,99999,49,90000,76,10000,0,9999,0.100000,0,0,0.000000,3,0.000000,0.000000,0.714004,0,0,0,0,0,0,0
9,99999,50,90000,83,30000,0,9999,0.100000,0,0,0.000000,3,0.000000,0.000000,0.076646,0,0,0,0,0,0,0
9,99999,51,90000,83,30000,1,9999,0.100000,0,0,0.000000,3,13.000000,0.000000,18.331527,0,0,0,0,0,0,0
9,99999,52,90000,76,10000,1,9999,0.100000,0,0,0.000000,3,2.000000,0.000000,10.552451,0,0,0,0,0,0,0
9,99999,53,90000,83,30000,0,9999,0.100000,0,0,0.000000,3,0.000000,0.000000,0.130031,0,0,0,0,0,0,0
9,99999,54,90000,49,20000,0,9999,0.100000,0,0,0.000000,3,0.000000,0.000000,1.343938,0,0,0,0,0,0,0
9,99999,55,90000,49,20000,1,9999,0.100000,0,0,0.000000,3,1.000000,0.000000,12.557099,0,0,0,0,0,0,0
9,99999,56,90000,49,20000,0,9999,0.100000,0,0,0.000000,3,0.000000,0.000000,0.586048,0,0,0,0,0,0,0
9,99999,57,90000,76,10000,0,9999,0.100000,0,0,0.000000,3,0.000000,0.000000,0.554943,0,0,0,0,0,0,0
9,99999,58,90000,83,30000,1,9999,0.100000,0,0,0.000000,3,2.000000,0.000000,15.024700,0,0,0,0,0,0,0
9,99999,59,90000,49,20000,0,9999,0.100000,0,0,0.000000,3,0.000000,0.000000,5.983816,0,0,0,0,0,0,0
9,99999,60,90000,49,20000,1,9999,0.100000,0,0,0.000000,3,1.000000,0.000000,3.618695,0,0,0,0,0,0,0
9,99999,61,90000,76,10000,1,9999,0.100000,0,0,0.000000,3,1.000000,0.000000,14.567190,0,0,0,0,0,0,0
9,99999,62,90000,49,20000,1,9999,0.100000,0,0,0.000000,3,1.000000,0.000000,5.170097,0,0,0,0,0,0,0
9,99999,63,90000,76,10000,0,9999,0.100000,0,0,0.000000,3,0.000000,0.000000,1.059573,0,0,0,0,0,0,0
9,99999,64,90000,83,30000,1,9999,0.100000,0,0,0.000000,3,2.000000,0.000000,5.630137,0,0,0,0,0,0,0
9,99999,65,90000,83,30000,0,9999,0.100000,0,0,0.000000,3,0.000000,0.000000,0.898965,0,0,0,0,0,0,0
9,99999,66,90000,76,10000,1,9999,0.100000,0,0,0.000000,3,1.000000,0.000000,6.401872,0,0,0,0,0,0,0
9,99999,67,90000,76,10000,0,9999,0.100000,0,0,0.000000,3,0.000000,0.000000,0.133901,0,0,0,0,0,0,0
9,99999,68,90000,49,20000,1,9999,0.100000,0,0,0.000000,3,1.000000,0.000000,5.076439,0,0,0,0,0,0,0
9,99999,69,90000,83,30000,1,9999,0.100000,0,0,0.000000,3,1.000000,0.000000,2.708378,0,0,0,0,0,0,0
9,99999,70,90000,83,30000,0,9999,0.100000,0,0,0.000000,3,0.000000,0.000000,0.951743,0,0,0,0,0,0,0
9,99999,71,90000,76,10000,1,9999,0.100000,0,0,0.000000,3,2.000000,0.000000,11.458048,0,0,0,0,0,0,0
9,99999,72,90000,83,30000,1,9999,0.100000,0,0,0.000000,3,1.000000,0.000000,8.080422,0,0,0,0,0,0,0
9,99999,73,90000,83,30000,0,9999,0.100000,0,0,0.000000,3,0.000000,0.000000,1.061598,0,0,0,0,0,0,0
9,99999,74,90000,83,30000,0,9999,0.100000,0,0,0.000000,3,0.000000,0.000000,0.551409,0,0,0,0,0,0,0
9,99999,75,90000,49,20000,1,9999,0.100000,0,0,0.000000,3,2.000000,0.000000,8.692928,0,0,0,0,0,0,0
9,99999,76,90000,76,10000,1,9999,0.100000,0,0,0.000000,3,2.000000,0.000000,8.604468,0,0,0,0,0,0,0
9,99999,77,90000,49,20000,0,9999,0.065000,0,0,0.000000,3,0.000000,0.000000,0.421738,0,0,0,0,0,0,0
9,99999,78,90000,49,20000,0,9999,0.100000,0,0,0.000000,3,0.000000,0.000000,0.125999,0,0,0,0,0,0,0
9,99999,79,90000,83,30000,1,9999,0.100000,0,0,0.000000,3,6.000000,0.000000,22.258695,0,0,0,0,0,0,0
9,99999,80,90000,76,10000,0,9999,0.100000,0,0,0.000000,3,0.000000,0.000000,2.028129,0,0,0,0,0,0,0
9,99999,81,90000,49,20000,1,9999,0.100000,0,0,0.000000,3,2.000000,0.000000,2.581182,0,0,0,0,0,0,0
9,99999,82,90000,49,20000,0,9999,0.100000,0,0,0.000000,3,0.000000,0.000000,1.323913,0,0,0,0,0,0,0
9,99999,83,90000,49,20000,1,9999,0.100000,0,0,0.000000,3,3.000000,0.000000,7.025975,0,0,0,0,0,0,0
9,99999,84,90000,49,20000,0,9999,0.100000,0,0,0.000000,3,0.000000,0.000000,0.331483,0,0,0,0,0,0,0
9,99999,85,90000,83,30000,0,9999,0.100000,0,0,0.000000,3,0.000000,0.000000,0.436427,0,0,0,0,0,0,0
9,99999,86,90000,83,30000,1,9999,0.100000,0,0,0.000000,3,2.000000,0.000000,3.496540,0,0,0,0,0,0,0
9,99999,87,90000,83,30000,0,9999,0.100000,0,0,0.000000,3,0.000000,0.000000,0.234432,0,0,0,0,0,0,0
9,99999,88,90000,49,20000,0,9999,0.100000,0,0,0.000000,3,0.000000,0.000000,0.645507,0,0,0,0,0,0,0
9,99999,89,90000,83,30000,1,9999,0.100000,0,0,0.000000,3,2.000000,0.000000,10.740542,0,0,0,0,0,0,0
9,99999,90,90000,83,30000,0,9999,0.100000,0,0,0.000000,3,0.000000,0.000000,0.192768,0,0,0,0,0,0,0
9,99999,91,90000,83,30000,0,9999,0.100000,0,0,0.000000,3,0.000000,0.000000,0.239819,0,0,0,0,0,0,0
9,99999,92,90000,76,10000,0,9999,0.100000,0,0,0.000000,3,0.000000,0.000000,2.705536,0,0,0,0,0,0,0
9,99999,93,90000,49,20000,0,9999,0.100000,0,0,0.000000,3,0.000000,0.000000,0.599564,0,0,0,0,0,0,0
9,99999,94,90000,83,30000,0,9999,0.135000,0,0,0.000000,3,0.000000,0.000000,1.466888,0,0,0,0,0,0,0
9,99999,95,90000,83,30000,1,9999,0.100000,0,0,0.000000,3,6.000000,0.000000,11.045806,0,0,0,0,0,0,0
9,99999,96,90000,76,10000,0,9999,0.100000,0,0,0.000000,3,0.000000,0.000000,0.217521,0,0,0,0,0,0,0
9,99999,97,90000,76,10000,0,9999,0.100000,0,0,0.000000,3,0.000000,0.000000,0.505582,0,0,0,0,0,0,0
9,99999,98,90000,83,30000,1,9999,0.100000,0,0,0.000000,3,1.000000,0.000000,14.496305,0,0,0,0,0,0,0
9,99999,99,90000,83,30000,0,9999,0.100000,0,0,0.000000,3,0.000000,0.000000,2.275711,0,0,0,0,0,0,0
10,109999,0,100000,49,20000,1,9999,0.100000,0,0,0.000000,3,1.000000,0.000000,2.816022,0,0,0,0,0,0,0
10,109999,1,100000,49,20000,0,9999,0.100000,0,0,0.000000,3,0.000000,0.000000,0.066086,0,0,0,0,0,0,0
10,109999,2,100000,83,30000,0,9999,0.100000,0,0,0.000000,3,0.000000,0.000000,0.859635,0,0,0,0,0,0,0
10,109999,3,100000,83,30000,0,9999,0.100000,0,0,0.000000,3,0.000000,0.000000,1.015185,0,0,0,0,0,0,0
10,109999,4,100000,83,30000,0,9999,0.100000,0,0,0.000000,3,0.000000,0.000000,0.239340,0,0,0,0,0,0,0
10,109999,5,100000,49,20000,1,9999,0.100000,0,0,0.000000,3,1.000000,0.000000,15.291581,0,0,0,0,0,0,0
10,109999,6,100000,49,20000,0,9999,0.100000,0,0,0.000000,3,0.000000,0.000000,0.234772,0,0,0,0,0,0,0
10,109999,7,100000,83,30000,0,9999,0.100000,0,0,0.000000,3,0.000000,0.000000,0.496987,0,0,0,0,0,0,0
10,109999,8,100000,49,20000,0,9999,0.100000,0,0,0.000000,3,0.000000,0.000000,0.230704,0,0,0,0,0,0,0
10,109999,9,100000,49,20000,1,9999,0.100000,0,0,0.000000,3,1.000000,0.000000,10.619326,0,0,0,0,0,0,0
10,109999,10,100000,83,30000,1,9999,0.100000,0,0,0.000000,3,1.000000,0.000000,13.427032,0,0,0,0,0,0,0
10,109999,11,100000,83,30000,1,9999,0.100000,0,0,0.000000,3,2.000000,0.000000,13.456819,0,0,0,0,0,0,0
10,109999,12,100000,76,10000,1,9999,0.100000,0,0,0.000000,3,3.000000,0.000000,6.350191,0,0,0,0,0,0,0
10,109999,13,100000,83,30000,1,9999,0.100000,0,0,0.000000,3,3.000000,0.000000,11.240419,0,0,0,0,0,0,0
10,109999,14,100000,76,10000,0,9999,0.100000,0,0,0.000000,3,0.000000,0.000000,0.133794,0,0,0,0,0,0,0
10,109999,15,100000,83,30000,0,9999,0.100000,0,0,0.000000,3,0.000000,0.000000,0.655335,0,0,0,0,0,0,0
10,109999,16,100000,49,20000,1,9999,0.100000,0,0,0.000000,3,2.000000,0.000000,14.558464,0,0,0,0,0,0,0
10,109999,17,100000,49,20000,0,9999,0.100000,0,0,0.000000,3,0.000000,0.000000,0.197461,0,0,0,0,0,0,0
10,109999,18,100000,83,30000,0,9999,0.100000,0,0,0.000000,3,0.000000,0.000000,0.224883,0,0,0,0,0,0,0
10,109999,19,100000,76,10000,1,9999,0.100000,0,0,0.000000,3,5.000000,0.000000,8.369245,0,0,0,0,0,0,0
10,109999,20,100000,83,30000,0,9999,0.100000,0,0,0.000000,3,0.000000,0.000000,0.063281,0,0,0,0,0,0,0
10,109999,21,100000,76,10000,0,9999,0.100000,0,0,0.000000,3,0.000000,0.000000,3.969134,0,0,0,0,0,0,0
10,109999,22,100000,49,20000,1,9999,0.100000,0,0,0.000000,3,1.000000,0.000000,16.089059,0,0,0,0,0,0,0
10,109999,23,100000,76,10000,0,9999,0.100000,0,0,0.000000,3,0.000000,0.000000,3.936981,0,0,0,0,0,0,0
10,109999,24,100000,49,20000,1,9999,0.100000,0,0,0.000000,3,4.000000,0.000000,15.695937,0,0,0,0,0,0,0
10,109999,25,100000,83,30000,1,9999,0.100000,0,0,0.000000,3,1.000000,0.000000,11.360264,0,0,0,0,0,0,0
10,109999,26,100000,76,10000,0,9999,0.100000,0,0,0.000000,3,0.000000,0.000000,1.895033,0,0,0,0,0,0,0
10,109999,27,100000,83,30000,1,9999,0.100000,0,0,0.000000,3,2.000000,0.000000,17.288629,0,0,0,0,0,0,0
10,109999,28,100000,83,30000,1,9999,0.100000,0,0,0.000000,3,1.000000,0.000000,15.430273,0,0,0,0,0,0,0
10,109999,29,100000,83,30000,0,9999,0.100000,0,0,0.000000,3,0.000000,0.000000,0.193961,0,0,0,0,0,0,0
10,109999,30,100000,49,20000,0,9999,0.100000,0,0,0.000000,3,0.000000,0.000000,0.243097,0,0,0,0,0,0,0
10,109999,31,100000,49,20000,1,9999,0.100000,0,0,0.000000,3,1.000000,0.000000,14.015100,0,0,0,0,0,0,0
10,109999,32,100000,76,10000,0,9999,0.100000,0,0,0.000000,3,0.000000,0.000000,0.135261,0,0,0,0,0,0,0
10,109999,33,100000,76,10000,1,9999,0.100000,0,0,0.000000,3,3.000000,0.000000,14.987354,0,0,0,0,0,0,0
10,109999,34,100000,83,30000,1,9999,0.100000,0,0,0.000000,3,3.000000,0.000000,6.489732,0,0,0,0,0,0,0
10,109999,35,100000,76,10000,0,9999,0.100000,0,0,0.000000,3,0.000000,0.000000,0.623213,0,0,0,0,0,0,0
10,109999,36,100000,76,10000,1,9999,0.100000,0,0,0.000000,3,11.000000,0.000000,12.191980,0,0,0,0,0,0,0
10,109999,37,100000,49,20000,0,9999,0.100000,0,0,0.000000,3,0.000000,0.000000,24.164485,0,0,0,0,0,0,0
10,109999,38,100000,83,30000,1,9999,0.100000,0,0,0.000000,3,1.000000,0.000000,5.609381,0,0,0,0,0,0,0
10,109999,39,100000,49,20000,1,9999,0.100000,0,0,0.000000,3,2.000000,0.000000,16.701524,0,0,0,0,0,0,0
10,109999,40,100000,49,20000,1,9999,0.100000,0,0,0.000000,3,1.000000,0.000000,12.125538,0,0,0,0,0,0,0
10,109999,41,100000,83,30000,0,9999,0.100000,0,0,0.000000,3,0.000000,0.000000,0.898506,0,0,0,0,0,0,0
10,109999,42,100000,83,30000,0,9999,0.100000,0,0,0.000000,3,0.000000,0.000000,0.191370,0,0,0,0,0,0,0
10,109999,43,100000,83,30000,0,9999,0.100000,0,0,0.000000,3,0.000000,0.000000,11.852905,0,0,0,0,0,0,0
10,109999,44,100000,49,20000,0,9999,0.100000,0,0,0.000000,3,0.000000,0.000000,0.234662,0,0,0,0,0,0,0
10,109999,45,100000,76,10000,0,9999,0.100000,0,0,0.000000,3,0.000000,0.000000,0.477469,0,0,0,0,0,0,0
10,109999,46,100000,49,20000,1,9999,0.100000,0,0,0.000000,3,2.000000,0.000000,9.218715,0,0,0,0,0,0,0
10,109999,47,100000,83,30000,0,9999,0.100000,0,0,0.000000,3,0.000000,0.000000,0.373792,0,0,0,0,0,0,0
10,109999,48,100000,76,10000,0,9999,0.100000,0,0,0.000000,3,0.000000,0.000000,0.768114,0,0,0,0,0,0,0
10,109999,49,100000,76,10000,0,9999,0.100000,0,0,0.000000,3,0.000000,0.000000,1.495591,0,0,0,0,0,0,0
10,109999,50,100000,76,10000,0,9999,0.100000,0,0,0.000000,3,0.000000,0.000000,0.076813,0,0,0,0,0,0,0
10,109999,51,100000,49,20000,1,9999,0.100000,0,0,0.000000,3,2.000000,0.000000,6.438656,0,0,0,0,0,0,0
10,109999,52,100000,49,20000,1,9999,0.100000,0,0,0.000000,3,4.000000,0.000000,12.061977,0,0,0,0,0,0,0
10,109999,53,100000,76,10000,0,9999,0.100000,0,0,0.000000,3,0.000000,0.000000,0.126330,0,0,0,0,0,0,0
10,109999,54,100000,76,10000,0,9999,0.100000,0,0,0.000000,3,0.000000,0.000000,1.337733,0,0,0,0,0,0,0
10,109999,55,100000,76,10000,1,9999,0.100000,0,0,0.000000,3,3.000000,0.000000,15.423005,0,0,0,0,0,0,0
10,109999,56,100000,76,10000,0,9999,0.100000,0,0,0.000000,3,0.000000,0.000000,0.647731,0,0,0,0,0,0,0
10,109999,57,100000,49,20000,0,9999,0.100000,0,0,0.000000,3,0.000000,0.000000,1.049546,0,0,0,0,0,0,0
10,109999,58,100000,76,10000,1,9999,0.100000,0,0,0.000000,3,3.000000,0.000000,14.498452,0,0,0,0,0,0,0
10,109999,59,100000,83,30000,1,9999,0.100000,0,0,0.000000,3,1.000000,0.000000,5.118211,0,0,0,0,0,0,0
10,109999,60,100000,49,20000,0,9999,0.100000,0,0,0.000000,3,0.000000,0.000000,0.997818,0,0,0,0,0,0,0
10,109999,61,100000,76,10000,1,9999,0.100000,0,0,0.000000,3,1.000000,0.000000,19.029128,0,0,0,0,0,0,0
10,109999,62,100000,83,30000,1,9999,0.100000,0,0,0.000000,3,2.000000,0.000000,9.657007,0,0,0,0,0,0,0
10,109999,63,100000,83,30000,0,9999,0.100000,0,0,0.000000,3,0.000000,0.000000,1.111650,0,0,0,0,0,0,0
10,109999,64,100000,49,20000,1,9999,0.100000,0,0,0.000000,3,3.000000,0.000000,7.240074,0,0,0,0,0,0,0
10,109999,65,100000,83,30000,0,9999,0.100000,0,0,0.000000,3,0.000000,0.000000,0.845563,0,0,0,0,0,0,0
10,109999,66,100000,83,30000,1,9999,0.100000,0,0,0.000000,3,2.000000,0.000000,11.640581,0,0,0,0,0,0,0
10,109999,67,100000,49,20000,0,9999,0.100000,0,0,0.000000,3,0.000000,0.000000,0.137298,0,0,0,0,0,0,0
10,109999,68,100000,76,10000,1,9999,0.100000,0,0,0.000000,3,2.000000,0.000000,7.458697,0,0,0,0,0,0,0
10,109999,69,100000,83,30000,1,9999,0.100000,0,0,0.000000,3,4.000000,0.000000,5.635951,0,0,0,0,0,0,0
10,109999,70,100000,83,30000,0,9999,0.100000,0,0,0.000000,3,0.000000,0.000000,1.587967,0,0,0,0,0,0,0
10,109999,71,100000,49,20000,1,9999,0.100000,0,0,0.000000,3,2.000000,0.000000,13.147658,0,0,0,0,0,0,0
10,109999,72,100000,76,10000,3,9999,0.100000,0,0,28.251059,3,3.000000,0.000000,20.318525,0,0,1,0,0,0,0
10,109999,73,100000,83,30000,0,9999,0.100000,0,0,0.000000,3,0.000000,0.000000,2.528812,0,0,0,0,0,0,0
10,109999,74,100000,76,10000,0,9999,0.100000,0,0,0.000000,3,0.000000,0.000000,0.558928,0,0,0,0,0,0,0
10,109999,75,100000,83,30000,1,9999,0.100000,0,0,0.000000,3,4.000000,0.000000,15.235292,0,0,0,0,0,0,0
10,109999,76,100000,83,30000,1,9999,0.100000,0,0,0.000000,3,1.000000,0.000000,12.862105,0,0,0,0,0,0,0
10,109999,77,100000,49,20000,0,9999,0.100000,0,0,0.000000,3,0.000000,0.000000,0.423569,0,0,0,0,0,0,0
10,109999,78,100000,49,20000,0,9999,0.100000,0,0,0.000000,3,0.000000,0.000000,0.133687,0,0,0,0,0,0,0
10,109999,79,100000,83,30000,1,9999,0.100000,0,0,0.000000,3,3.000000,0.000000,11.035548,0,0,0,0,0,0,0
10,109999,80,100000,49,20000,1,9999,0.100000,0,0,0.000000,3,1.000000,0.000000,1.682939,0,0,0,0,0,0,0
10,109999,81,100000,49,20000,1,9999,0.100000,0,0,0.000000,3,11.000000,0.000000,12.159765,0,0,0,0,0,0,0
10,109999,82,100000,76,10000,0,9999,0.100000,0,0,0.000000,3,0.000000,0.000000,3.181521,0,0,0,0,0,0,0
10,109999,83,100000,49,20000,0,9999,0.100000,0,0,0.000000,3,0.000000,0.000000,3.768329,0,0,0,0,0,0,0
10,109999,84,100000,49,20000,0,9999,0.100000,0,0,0.000000,3,0.000000,0.000000,0.217069,0,0,0,0,0,0,0
10,109999,85,100000,76,10000,0,9999,0.100000,0,0,0.000000,3,0.000000,0.000000,0.432590,0,0,0,0,0,0,0
10,109999,86,100000,83,30000,1,9999,0.100000,0,0,0.000000,3,11.000000,0.000000,12.257604,0,0,0,0,0,0,0
10,109999,87,100000,76,10000,0,9999,0.100000,0,0,0.000000,3,0.000000,0.000000,0.254073,0,0,0,0,0,0,0
10,109999,88,100000,76,10000,0,9999,0.100000,0,0,0.000000,3,0.000000,0.000000,0.560693,0,0,0,0,0,0,0
10,109999,89,100000,76,10000,1,9999,0.100000,0,0,0.000000,3,5.000000,0.000000,15.571671,0,0,0,0,0,0,0
10,109999,90,100000,49,20000,0,9999,0.100000,0,0,0.000000,3,0.000000,0.000000,0.194663,0,0,0,0,0,0,0
10,109999,91,100000,83,30000,0,9999,0.100000,0,0,0.000000,3,0.000000,0.000000,0.248385,0,0,0,0,0,0,0
10,109999,92,100000,49,20000,0,9999,0.100000,0,0,0.000000,3,0.000000,0.000000,2.744540,0,0,0,0,0,0,0
10,109999,93,100000,76,10000,0,9999,0.100000,0,0,0.000000,3,0.000000,0.000000,0.475356,0,0,0,0,0,0,0
10,109999,94,100000,76,10000,1,9999,0.100000,0,0,0.000000,3,3.000000,0.000000,13.389778,0,0,0,0,0,0,0
10,109999,95,100000,76,10000,1,9999,0.100000,0,0,0.000000,3,8.000000,0.000000,8.871208,0,0,0,0,0,0,0
10,109999,96,100000,76,10000,0,9999,0.100000,0,0,0.000000,3,0.000000,0.000000,0.224643,0,0,0,0,0,0,0
10,109999,97,100000,76,10000,0,9999,0.100000,0,0,0.000000,3,0.000000,0.000000,0.492502,0,0,0,0,0,0,0
10,109999,98,100000,83,30000,1,9999,0.100000,0,0,0.000000,3,1.000000,0.000000,15.427330,0,0,0,0,0,0,0
10,109999,99,100000,49,20000,1,9999,0.100000,0,0,0.000000,3,1.000000,0.000000,3.653365,0,0,0,0,0,0,0
11,119999,0,110000,49,20000,1,9999,0.100000,0,0,0.000000,3,1.000000,0.000000,2.358369,0,0,0,0,0,0,0
11,119999,1,110000,83,30000,0,9999,0.100000,0,0,0.000000,3,0.000000,0.000000,0.098216,0,0,0,0,0,0,0
11,119999,2,110000,83,30000,0,9999,0.100000,0,0,0.000000,3,0.000000,0.000000,0.555371,0,0,0,0,0,0,0
11,119999,3,110000,83,30000,0,9999,0.100000,0,0,0.000000,3,0.000000,0.000000,0.978295,0,0,0,0,0,0,0
11,119999,4,110000,76,10000,0,9999,0.100000,0,0,0.000000,3,0.000000,0.000000,0.238979,0,0,0,0,0,0,0
11,119999,5,110000,83,30000,0,9999,0.100000,0,0,0.000000,3,0.000000,0.000000,0.549209,0,0,0,0,0,0,0
11,119999,6,110000,83,30000,0,9999,0.100000,0,0,0.000000,3,0.000000,0.000000,0.555228,0,0,0,0,0,0,0
11,119999,7,110000,49,20000,0,9999,0.100000,0,0,0.000000,3,0.000000,0.000000,0.507021,0,0,0,0,0,0,0
11,119999,8,110000,76,10000,0,9999,0.100000,0,0,0.000000,3,0.000000,0.000000,1.386344,0,0,0,0,0,0,0
11,119999,9,110000,49,20000,1,9999,0.100000,0,0,0.000000,3,2.000000,0.000000,16.861892,0,0,0,0,0,0,0
11,119999,10,110000,76,10000,1,9999,0.100000,0,0,0.000000,3,3.000000,0.000000,13.588002,0,0,0,0,0,0,0
11,119999,11,110000,76,10000,1,9999,0.100000,0,0,0.000000,3,2.000000,0.000000,7.579392,0,0,0,0,0,0,0
11,119999,12,110000,49,20000,1,9999,0.100000,0,0,0.000000,3,5.000000,0.000000,13.690521,0,0,0,0,0,0,0
11,119999,13,110000,83,30000,1,9999,0.100000,0,0,0.000000,3,3.000000,0.000000,15.121812,0,0,0,0,0,0,0
11,119999,14,110000,49,20000,0,9999,0.100000,0,0,0.000000,3,0.000000,0.000000,0.129887,0,0,0,0,0,0,0
11,119999,15,110000,83,30000,0,9999,0.100000,0,0,0.000000,3,0.000000,0.000000,0.584609,0,0,0,0,0,0,0
11,119999,16,110000,49,20000,1,9999,0.100000,0,0,0.000000,3,3.000000,0.000000,13.617593,0,0,0,0,0,0,0
11,119999,17,110000,76,10000,0,9999,0.100000,0,0,0.000000,3,0.000000,0.000000,0.198043,0,0,0,0,0,0,0
11,119999,18,110000,49,20000,0,9999,0.100000,0,0,0.000000,3,0.000000,0.000000,0.292348,0,0,0,0,0,0,0
11,119999,19,110000,49,20000,0,9999,0.100000,0,0,0.000000,3,0.000000,0.000000,0.237663,0,0,0,0,0,0,0
11,119999,20,110000,83,30000,0,9999,0.100000,0,0,0.000000,3,0.000000,0.000000,0.104400,0,0,0,0,0,0,0
11,119999,21,110000,83,30000,0,9999,0.100000,0,0,0.000000,3,0.000000,0.000000,6.326537,0,0,0,0,0,0,0
11,119999,22,110000,83,30000,1,9999,0.100000,0,0,0.000000,3,2.000000,0.000000,11.277737,0,0,0,0,0,0,0
11,119999,23,110000,76,10000,0,9999,0.100000,0,0,0.000000,3,0.000000,0.000000,1.772998,0,0,0,0,0,0,0
11,119999,24,110000,49,20000,1,9999,0.100000,0,0,0.000000,3,4.000000,0.000000,13.348490,0,0,0,0,0,0,0
11,119999,25,110000,83,30000,1,9999,0.100000,0,0,0.000000,3,2.000000,0.000000,12.971614,0,0,0,0,0,0,0
11,119999,26,110000,49,20000,0,9999,0.100000,0,0,0.000000,3,0.000000,0.000000,1.973727,0,0,0,0,0,0,0
11,119999,27,110000,83,30000,1,9999,0.100000,0,0,0.000000,3,2.000000,0.000000,8.980384,0,0,0,0,0,0,0
11,119999,28,110000,49,20000,1,9999,0.100000,0,0,0.000000,3,1.000000,0.000000,18.148904,0,0,0,0,0,0,0
11,119999,29,110000,83,30000,0,9999,0.100000,0,0,0.000000,3,0.000000,0.000000,1.523390,0,0,0,0,0,0,0
11,119999,30,110000,83,30000,0,9999,0.100000,0,0,0.000000,3,0.000000,0.000000,0.428183,0,0,0,0,0,0,0
11,119999,31,110000,83,30000,1,9999,0.100000,0,0,0.000000,3,1.000000,0.000000,12.468061,0,0,0,0,0,0,0
11,119999,32,110000,83,30000,0,9999,0.100000,0,0,0.000000,3,0.000000,0.000000,0.133976,0,0,0,0,0,0,0
11,119999,33,110000,76,10000,1,9999,0.100000,0,0,0.000000,3,3.000000,0.000000,9.231729,0,0,0,0,0,0,0
11,119999,34,110000,49,20000,1,9999,0.100000,0,0,0.000000,3,1.000000,0.000000,4.925595,0,0,0,0,0,0,0
11,119999,35,110000,83,30000,0,9999,0.100000,0,0,0.000000,3,0.000000,0.000000,0.622484,0,0,0,0,0,0,0
11,119999,36,110000,83,30000,1,9999,0.100000,0,0,34.210526,3,4.000000,0.000000,5.290410,0,0,0,0,1,0,0
11,119999,37,110000,83,30000,0,9999,0.100000,0,0,0.000000,3,0.000000,0.000000,22.446751,0,0,0,0,0,0,0
11,119999,38,110000,83,30000,1,9999,0.100000,0,0,0.000000,3,1.000000,0.000000,6.344650,0,0,0,0,0,0,0
11,119999,39,110000,76,10000,1,9999,0.100000,0,0,0.000000,3,2.000000,0.000000,14.964037,0,0,0,0,0,0,0
11,119999,40,110000,83,30000,1,9999,0.100000,0,0,0.000000,3,1.000000,0.000000,7.023232,0,0,0,0,0,0,0
11,119999,41,110000,76,10000,0,9999,0.100000,0,0,0.000000,3,0.000000,0.000000,0.534686,0,0,0,0,0,0,0
11,119999,42,110000,83,30000,0,9999,0.100000,0,0,0.000000,3,0.000000,0.000000,0.184614,0,0,0,0,0,0,0
11,119999,43,110000,49,20000,1,9999,0.100000,0,0,0.000000,3,2.000000,0.000000,10.073391,0,0,0,0,0,0,0
11,119999,44,110000,76,10000,0,9999,0.100000,0,0,0.000000,3,0.000000,0.000000,0.242517,0,0,0,0,0,0,0
11,119999,45,110000,49,20000,0,9999,0.100000,0,0,0.000000,3,0.000000,0.000000,0.433201,0,0,0,0,0,0,0
11,119999,46,110000,76,10000,0,9999,0.100000,0,0,0.000000,3,0.000000,0.000000,6.199272,0,0,0,0,0,0,0
11,119999,47,110000,49,20000,0,9999,0.100000,0,0,0.000000,3,0.000000,0.000000,0.350188,0,0,0,0,0,0,0
11,119999,48,110000,83,30000,0,9999,0.100000,0,0,0.000000,3,0.000000,0.000000,0.298838,0,0,0,0,0,0,0
11,119999,49,110000,83,30000,0,9999,0.100000,0,0,0.000000,3,0.000000,0.000000,0.303195,0,0,0,0,0,0,0
11,119999,50,110000,83,30000,0,9999,0.100000,0,0,0.000000,3,0.000000,0.000000,0.078962,0,0,0,0,0,0,0
11,119999,51,110000,49,20000,1,9999,0.100000,0,0,0.000000,3,13.000000,0.000000,17.553116,0,0,0,0,0,0,0
11,119999,52,110000,49,20000,1,9999,0.100000,0,0,0.000000,3,1.000000,0.000000,12.545178,0,0,0,0,0,0,0
11,119999,53,110000,49,20000,0,9999,0.100000,0,0,0.000000,3,0.000000,0.000000,0.229571,0,0,0,0,0,0,0
11,119999,54,110000,76,10000,0,9999,0.100000,0,0,0.000000,3,0.000000,0.000000,1.381372,0,0,0,0,0,0,0
11,119999,55,110000,76,10000,1,9999,0.100000,0,0,0.000000,3,1.000000,0.000000,12.849221,0,0,0,0,0,0,0
11,119999,56,110000,49,20000,0,9999,0.100000,0,0,0.000000,3,0.000000,0.000000,0.576074,0,0,0,0,0,0,0
11,119999,57,110000,76,10000,0,9999,0.100000,0,0,0.000000,3,0.000000,0.000000,0.903841,0,0,0,0,0,0,0
11,119999,58,110000,49,20000,1,9999,0.100000,0,0,0.000000,3,1.000000,0.000000,13.463109,0,0,0,0,0,0,0
11,119999,59,110000,49,20000,1,9999,0.100000,0,0,0.000000,3,2.000000,0.000000,4.552053,0,0,0,0,0,0,0
11,119999,60,110000,49,20000,0,9999,0.100000,0,0,0.000000,3,0.000000,0.000000,0.239578,0,0,0,0,0,0,0
11,119999,61,110000,83,30000,1,9999,0.100000,0,0,0.000000,3,1.000000,0.000000,14.553923,0,0,0,0,0,0,0
11,119999,62,110000,49,20000,1,9999,0.100000,0,0,0.000000,3,3.000000,0.000000,8.494761,0,0,0,0,0,0,0
11,119999,63,110000,49,20000,1,9999,0.100000,0,0,0.000000,3,3.000000,0.000000,4.468934,0,0,0,0,0,0,0
11,119999,64,110000,49,20000,0,9999,0.100000,0,0,0.000000,3,0.000000,0.000000,3.556195,0,0,0,0,0,0,0
11,119999,65,110000,83,30000,0,9999,0.100000,0,0,0.000000,3,0.000000,0.000000,0.622987,0,0,0,0,0,0,0
11,119999,66,110000,49,20000,1,9999,0.100000,0,0,0.000000,3,1.000000,0.000000,17.115345,0,0,0,0,0,0,0
11,119999,67,110000,49,20000,0,9999,0.100000,0,0,0.000000,3,0.000000,0.000000,0.133254,0,0,0,0,0,0,0
11,119999,68,110000,76,10000,1,9999,0.100000,0,0,0.000000,3,2.000000,0.000000,5.635626,0,0,0,0,0,0,0
11,119999,69,110000,83,30000,0,9999,0.100000,0,0,0.000000,3,0.000000,0.000000,0.886487,0,0,0,0,0,0,0
11,119999,70,110000,76,10000,0,9999,0.100000,0,0,0.000000,3,0.000000,0.000000,0.751431,0,0,0,0,0,0,0
11,119999,71,110000,83,30000,1,9999,0.100000,0,0,0.000000,3,2.000000,0.000000,7.483796,0,0,0,0,0,0,0
11,119999,72,110000,83,30000,1,9999,0.100000,0,0,0.000000,3,2.000000,0.000000,12.313880,0,0,0,0,0,0,0
11,119999,73,110000,76,10000,0,9999,0.100000,0,0,0.000000,3,0.000000,0.000000,0.486158,0,0,0,0,0,0,0
11,119999,74,110000,76,10000,0,9999,0.100000,0,0,0.000000,3,0.000000,0.000000,0.547949,0,0,0,0,0,0,0
11,119999,75,110000,49,20000,1,9999,0.100000,0,0,0.000000,3,2.000000,0.000000,15.247414,0,0,0,0,0,0,0
11,119999,76,110000,49,20000,1,9999,0.100000,0,0,0.000000,3,2.000000,0.000000,14.020759,0,0,0,0,0,0,0
11,119999,77,110000,76,10000,0,9999,0.100000,0,0,0.000000,3,0.000000,0.000000,0.118111,0,0,0,0,0,0,0
11,119999,78,110000,49,20000,0,9999,0.100000,0,0,0.000000,3,0.000000,0.000000,0.124211,0,0,0,0,0,0,0
11,119999,79,110000,49,20000,1,9999,0.100000,0,0,0.000000,3,1.000000,0.000000,15.327555,0,0,0,0,0,0,0
11,119999,80,110000,76,10000,0,9999,0.100000,0,0,0.000000,3,0.000000,0.000000,1.338340,0,0,0,0,0,0,0
11,119999,81,110000,76,10000,1,9999,0.100000,0,0,34.210526,3,4.000000,0.000000,6.139748,0,0,0,0,1,0,0
11,119999,82,110000,76,10000,0,9999,0.100000,0,0,0.000000,3,0.000000,0.000000,0.613223,0,0,0,0,0,0,0
11,119999,83,110000,49,20000,0,9999,0.100000,0,0,0.000000,3,0.000000,0.000000,3.892326,0,0,0,0,0,0,0
11,119999,84,110000,76,10000,0,9999,0.100000,0,0,0.000000,3,0.000000,0.000000,0.220521,0,0,0,0,0,0,0
11,119999,85,110000,49,20000,0,9999,0.100000,0,0,0.000000,3,0.000000,0.000000,0.428371,0,0,0,0,0,0,0
11,119999,86,110000,76,10000,1,9999,0.100000,0,0,34.210526,3,4.000000,0.000000,6.168175,0,0,0,0,1,0,0
11,119999,87,110000,83,30000,0,9999,0.100000,0,0,0.000000,3,0.000000,0.000000,0.234766,0,0,0,0,0,0,0
11,119999,88,110000,83,30000,0,9999,0.100000,0,0,0.000000,3,0.000000,0.000000,0.512011,0,0,0,0,0,0,0
11,119999,89,110000,49,20000,1,9999,0.100000,0,0,0.000000,3,4.000000,0.000000,15.515704,0,0,0,0,0,0,0
11,119999,90,110000,83,30000,0,9999,0.100000,0,0,0.000000,3,0.000000,0.000000,0.193823,0,0,0,0,0,0,0
11,119999,91,110000,49,20000,0,9999,0.100000,0,0,0.000000,3,0.000000,0.000000,0.239086,0,0,0,0,0,0,0
11,119999,92,110000,49,20000,0,9999,0.100000,0,0,0.000000,3,0.000000,0.000000,2.804830,0,0,0,0,0,0,0
11,119999,93,110000,49,20000,0,9999,0.100000,0,0,0.000000,3,0.000000,0.000000,0.354991,0,0,0,0,0,0,0
11,119999,94,110000,83,30000,1,9999,0.100000,0,0,0.000000,3,2.000000,0.000000,16.515474,0,0,0,0,0,0,0
11,119999,95,110000,49,20000,0,9999,0.100000,0,0,0.000000,3,0.000000,0.000000,0.561165,0,0,0,0,0,0,0
11,119999,96,110000,76,10000,0,9999,0.100000,0,0,0.000000,3,0.000000,0.000000,0.216071,0,0,0,0,0,0,0
11,119999,97,110000,76,10000,0,9999,0.100000,0,0,0.000000,3,0.000000,0.000000,0.496095,0,0,0,0,0,0,0
11,119999,98,110000,76,10000,1,9999,0.100000,0,0,0.000000,3,2.000000,0.000000,12.443427,0,0,0,0,0,0,0
11,119999,99,110000,76,10000,1,9999,0.100000,0,0,0.000000,3,18.000000,0.000000,20.802537,0,0,0,0,0,0,0
12,129999,0,120000,76,10000,1,9999,0.100000,0,0,0.000000,3,1.000000,0.000000,2.648571,0,0,0,0,0,0,0
12,129999,1,120000,76,10000,0,9999,0.100000,0,0,0.000000,3,0.000000,0.000000,0.066009,0,0,0,0,0,0,0
12,129999,2,120000,83,30000,0,9999,0.100000,0,0,0.000000,3,0.000000,0.000000,1.007551,0,0,0,0,0,0,0
12,129999,3,120000,76,10000,1,9999,0.100000,0,0,0.000000,3,4.000000,0.000000,6.632050,0,0,0,0,0,0,0
12,129999,4,120000,83,30000,0,9999,0.100000,0,0,0.000000,3,0.000000,0.000000,0.222255,0,0,0,0,0,0,0
12,129999,5,120000,76,10000,0,9999,0.100000,0,0,0.000000,3,0.000000,0.000000,0.568448,0,0,0,0,0,0,0
12,129999,6,120000,49,20000,0,9999,0.100000,0,0,0.000000,3,0.000000,0.000000,3.884871,0,0,0,0,0,0,0
12,129999,7,120000,76,10000,0,9999,0.100000,0,0,0.000000,3,0.000000,0.000000,0.478848,0,0,0,0,0,0,0
12,129999,8,120000,76,10000,0,9999,0.100000,0,0,0.000000,3,0.000000,0.000000,0.126931,0,0,0,0,0,0,0
12,129999,9,120000,49,20000,1,9999,0.100000,0,0,0.000000,3,2.000000,0.000000,8.211560,0,0,0,0,0,0,0
12,129999,10,120000,83,30000,0,9999,0.100000,0,0,0.000000,3,0.000000,0.000000,11.060673,0,0,0,0,0,0,0
12,129999,11,120000,76,10000,1,9999,0.100000,0,0,0.000000,3,2.000000,0.000000,6.118493,0,0,0,0,0,0,0
12,129999,12,120000,76,10000,1,9999,0.100000,0,0,0.000000,3,3.000000,0.000000,17.470199,0,0,0,0,0,0,0
12,129999,13,120000,76,10000,1,9999,0.100000,0,0,0.000000,3,5.000000,0.000000,14.418428,0,0,0,0,0,0,0
12,129999,14,120000,49,20000,0,9999,0.100000,0,0,0.000000,3,0.000000,0.000000,0.128469,0,0,0,0,0,0,0
12,129999,15,120000,49,20000,0,9999,0.100000,0,0,0.000000,3,0.000000,0.000000,0.938733,0,0,0,0,0,0,0
12,129999,16,120000,83,30000,1,9999,0.100000,0,0,0.000000,3,1.000000,0.000000,14.889358,0,0,0,0,0,0,0
12,129999,17,120000,76,10000,0,9999,0.065000,0,0,0.000000,3,0.000000,0.000000,0.187841,0,0,0,0,0,0,0
12,129999,18,120000,49,20000,0,9999,0.100000,0,0,0.000000,3,0.000000,0.000000,0.180439,0,0,0,0,0,0,0
12,129999,19,120000,83,30000,0,9999,0.100000,0,0,0.000000,3,0.000000,0.000000,0.252564,0,0,0,0,0,0,0
12,129999,20,120000,83,30000,0,9999,0.100000,0,0,0.000000,3,0.000000,0.000000,0.063112,0,0,0,0,0,0,0
12,129999,21,120000,49,20000,1,9999,0.100000,0,0,0.000000,3,2.000000,0.000000,6.701069,0,0,0,0,0,0,0
12,129999,22,120000,76,10000,1,9999,0.100000,0,0,0.000000,3,3.000000,0.000000,9.226046,0,0,0,0,0,0,0
12,129999,23,120000,49,20000,0,9999,0.100000,0,0,0.000000,3,0.000000,0.000000,0.985752,0,0,0,0,0,0,0
12,129999,24,120000,83,30000,1,9999,0.100000,0,0,0.000000,3,1.000000,0.000000,11.436340,0,0,0,0,0,0,0
12,129999,25,120000,83,30000,1,9999,0.100000,0,0,0.000000,3,1.000000,0.000000,9.885198,0,0,0,0,0,0,0
