generation,iteration,robot,birthday,ancestor_id,ancestor_birthday,cell_id,age,sigma,maps,genomes,fitness,cells_in_map,dist_max,dist_pot_max,dist_total,com_rx,com_tx,obj_group1,obj_group2,obj_group3,obj_group4,obj_group5
0,9999,0,0,0,0,49,9999,0.100000,0,0,0.000000,0,6.000000,0.000000,9.227538,0,0,0,0,0,0,0
0,9999,1,0,1,0,49,9999,0.100000,0,0,0.000000,0,11.000000,0.000000,19.152875,0,0,0,0,0,0,0
0,9999,2,0,2,0,49,9999,0.100000,0,0,0.000000,0,4.000000,0.000000,11.037938,0,0,0,0,0,0,0
0,9999,3,0,3,0,49,9999,0.100000,0,0,0.000000,0,10.000000,0.000000,12.639321,0,0,0,0,0,0,0
0,9999,4,0,4,0,49,9999,0.100000,0,0,0.000000,0,8.000000,0.000000,19.013964,0,0,0,0,0,0,0
0,9999,5,0,5,0,49,9999,0.100000,0,0,0.000000,0,8.000000,0.000000,12.092823,0,0,0,0,0,0,0
0,9999,6,0,6,0,49,9999,0.100000,0,0,0.000000,0,12.000000,0.000000,17.428607,0,0,0,0,0,0,0
0,9999,7,0,7,0,49,9999,0.100000,0,0,0.000000,0,9.000000,0.000000,12.390789,0,0,0,0,0,0,0
0,9999,8,0,8,0,49,9999,0.100000,0,0,0.000000,0,7.000000,0.000000,8.108766,0,0,0,0,0,0,0
0,9999,9,0,9,0,49,9999,0.100000,0,0,0.000000,0,9.000000,0.000000,19.749833,0,0,0,0,0,0,0
0,9999,10,0,10,0,49,9999,0.100000,0,0,0.000000,0,2.000000,0.000000,12.970152,0,0,0,0,0,0,0
0,9999,11,0,11,0,49,9999,0.100000,0,0,0.000000,0,9.000000,0.000000,14.584066,0,0,0,0,0,0,0
0,9999,12,0,12,0,49,9999,0.100000,0,0,0.000000,0,4.000000,0.000000,20.579712,0,0,0,0,0,0,0
0,9999,13,0,13,0,49,9999,0.100000,0,0,0.000000,0,7.000000,0.000000,7.670674,0,0,0,0,0,0,0
0,9999,14,0,14,0,99,9999,0.100000,0,0,47.368421,0,8.000000,0.000000,19.459662,0,0,1,0,0,0,0
0,9999,15,0,15,0,49,9999,0.100000,0,0,0.000000,0,5.000000,0.000000,15.259341,0,0,0,0,0,0,0
0,9999,16,0,16,0,49,9999,0.100000,0,0,0.000000,0,8.000000,0.000000,15.071348,0,0,0,0,0,0,0
0,9999,17,0,17,0,49,9999,0.100000,0,0,0.000000,0,5.000000,0.000000,12.870626,0,0,0,0,0,0,0
0,9999,18,0,18,0,49,9999,0.100000,0,0,0.000000,0,9.000000,0.000000,15.114571,0,0,0,0,0,0,0
0,9999,19,0,19,0,49,9999,0.100000,0,0,0.000000,0,9.000000,0.000000,11.484329,0,0,0,0,0,0,0
0,9999,20,0,20,0,49,9999,0.100000,0,0,0.000000,0,5.000000,0.000000,13.943784,0,0,0,0,0,0,0
0,9999,21,0,21,0,49,9999,0.100000,0,0,0.000000,0,6.000000,0.000000,12.991419,0,0,0,0,0,0,0
0,9999,22,0,22,0,49,9999,0.100000,0,0,0.000000,0,9.000000,0.000000,10.852455,0,0,0,0,0,0,0
0,9999,23,0,23,0,49,9999,0.100000,0,0,0.000000,0,10.000000,0.000000,11.417329,0,0,0,0,0,0,0
0,9999,24,0,24,0,49,9999,0.100000,0,0,0.000000,0,8.000000,0.000000,12.296202,0,0,0,0,0,0,0
0,9999,25,0,25,0,49,9999,0.100000,0,0,0.000000,0,2.000000,0.000000,8.707134,0,0,0,0,0,0,0
0,9999,26,0,26,0,49,9999,0.100000,0,0,0.000000,0,7.000000,0.000000,11.154759,0,0,0,0,0,0,0
0,9999,27,0,27,0,49,9999,0.100000,0,0,0.000000,0,10.000000,0.000000,17.075465,0,0,0,0,0,0,0
0,9999,28,0,28,0,49,9999,0.100000,0,0,0.000000,0,9.000000,0.000000,13.815507,0,0,0,0,0,0,0
0,9999,29,0,29,0,49,9999,0.100000,0,0,0.000000,0,6.000000,0.000000,9.731075,0,0,0,0,0,0,0
0,9999,30,0,30,0,49,9999,0.100000,0,0,0.000000,0,10.000000,0.000000,11.870943,0,0,0,0,0,0,0
0,9999,31,0,31,0,49,9999,0.100000,0,0,0.000000,0,7.000000,0.000000,14.545867,0,0,0,0,0,0,0
0,9999,32,0,32,0,49,9999,0.100000,0,0,0.000000,0,7.000000,0.000000,15.940785,0,0,0,0,0,0,0
0,9999,33,0,33,0,49,9999,0.100000,0,0,0.000000,0,8.000000,0.000000,10.569893,0,0,0,0,0,0,0
0,9999,34,0,34,0,49,9999,0.100000,0,0,0.000000,0,6.000000,0.000000,20.562046,0,0,0,0,0,0,0
0,9999,35,0,35,0,49,9999,0.100000,0,0,0.000000,0,8.000000,0.000000,11.091880,0,0,0,0,0,0,0
0,9999,36,0,36,0,49,9999,0.100000,0,0,0.000000,0,10.000000,0.000000,18.912669,0,0,0,0,0,0,0
0,9999,37,0,37,0,49,9999,0.100000,0,0,0.000000,0,10.000000,0.000000,11.079933,0,0,0,0,0,0,0
0,9999,38,0,38,0,49,9999,0.100000,0,0,0.000000,0,2.000000,0.000000,7.412456,0,0,0,0,0,0,0
0,9999,39,0,39,0,49,9999,0.100000,0,0,0.000000,0,6.000000,0.000000,8.532151,0,0,0,0,0,0,0
0,9999,40,0,40,0,49,9999,0.100000,0,0,0.000000,0,9.000000,0.000000,11.447728,0,0,0,0,0,0,0
0,9999,41,0,41,0,49,9999,0.100000,0,0,0.000000,0,13.000000,0.000000,16.294934,0,0,0,0,0,0,0
0,9999,42,0,42,0,49,9999,0.100000,0,0,0.000000,0,6.000000,0.000000,12.712425,0,0,0,0,0,0,0
0,9999,43,0,43,0,49,9999,0.100000,0,0,0.000000,0,5.000000,0.000000,12.448731,0,0,0,0,0,0,0
0,9999,44,0,44,0,49,9999,0.100000,0,0,0.000000,0,3.000000,0.000000,6.070081,0,0,0,0,0,0,0
0,9999,45,0,45,0,49,9999,0.100000,0,0,0.000000,0,9.000000,0.000000,14.016307,0,0,0,0,0,0,0
0,9999,46,0,46,0,49,9999,0.100000,0,0,0.000000,0,6.000000,0.000000,11.312627,0,0,0,0,0,0,0
0,9999,47,0,47,0,49,9999,0.100000,0,0,0.000000,0,6.000000,0.000000,9.813790,0,0,0,0,0,0,0
0,9999,48,0,48,0,49,9999,0.100000,0,0,0.000000,0,10.000000,0.000000,12.455424,0,0,0,0,0,0,0
0,9999,49,0,49,0,49,9999,0.100000,0,0,0.000000,0,10.000000,0.000000,14.896831,0,0,0,0,0,0,0
0,9999,50,0,50,0,49,9999,0.100000,0,0,0.000000,0,8.000000,0.000000,12.091568,0,0,0,0,0,0,0
0,9999,51,0,51,0,49,9999,0.100000,0,0,0.000000,0,7.000000,0.000000,9.718484,0,0,0,0,0,0,0
0,9999,52,0,52,0,49,9999,0.100000,0,0,0.000000,0,9.000000,0.000000,10.402693,0,0,0,0,0,0,0
0,9999,53,0,53,0,49,9999,0.100000,0,0,0.000000,0,1.000000,0.000000,5.190959,0,0,0,0,0,0,0
0,9999,54,0,54,0,49,9999,0.100000,0,0,0.000000,0,9.000000,0.000000,14.346679,0,0,0,0,0,0,0
0,9999,55,0,55,0,49,9999,0.100000,0,0,0.000000,0,7.000000,0.000000,13.265822,0,0,0,0,0,0,0
0,9999,56,0,56,0,49,9999,0.100000,0,0,0.000000,0,9.000000,0.000000,12.320426,0,0,0,0,0,0,0
0,9999,57,0,57,0,49,9999,0.100000,0,0,0.000000,0,8.000000,0.000000,12.395801,0,0,0,0,0,0,0
0,9999,58,0,58,0,49,9999,0.100000,0,0,0.000000,0,1.000000,0.000000,3.652761,0,0,0,0,0,0,0
0,9999,59,0,59,0,49,9999,0.100000,0,0,0.000000,0,4.000000,0.000000,5.494860,0,0,0,0,0,0,0
0,9999,60,0,60,0,49,9999,0.100000,0,0,0.000000,0,18.000000,0.000000,37.176916,0,0,0,0,0,0,0
0,9999,61,0,61,0,49,9999,0.100000,0,0,0.000000,0,6.000000,0.000000,18.115720,0,0,0,0,0,0,0
0,9999,62,0,62,0,49,9999,0.100000,0,0,0.000000,0,4.000000,0.000000,22.806280,0,0,0,0,0,0,0
0,9999,63,0,63,0,49,9999,0.100000,0,0,0.000000,0,6.000000,0.000000,22.115978,0,0,0,0,0,0,0
0,9999,64,0,64,0,49,9999,0.100000,0,0,0.000000,0,3.000000,0.000000,10.781914,0,0,0,0,0,0,0
0,9999,65,0,65,0,49,9999,0.100000,0,0,0.000000,0,10.000000,0.000000,14.153779,0,0,0,0,0,0,0
0,9999,66,0,66,0,49,9999,0.100000,0,0,0.000000,0,9.000000,0.000000,9.661202,0,0,0,0,0,0,0
0,9999,67,0,67,0,49,9999,0.100000,0,0,0.000000,0,3.000000,0.000000,4.158287,0,0,0,0,0,0,0
0,9999,68,0,68,0,49,9999,0.100000,0,0,0.000000,0,7.000000,0.000000,10.329219,0,0,0,0,0,0,0
0,9999,69,0,69,0,49,9999,0.100000,0,0,0.000000,0,11.000000,0.000000,12.182753,0,0,0,0,0,0,0
0,9999,70,0,70,0,49,9999,0.100000,0,0,0.000000,0,7.000000,0.000000,10.002769,0,0,0,0,0,0,0
0,9999,71,0,71,0,49,9999,0.100000,0,0,0.000000,0,7.000000,0.000000,9.718560,0,0,0,0,0,0,0
0,9999,72,0,72,0,49,9999,0.100000,0,0,0.000000,0,10.000000,0.000000,13.598516,0,0,0,0,0,0,0
0,9999,73,0,73,0,49,9999,0.100000,0,0,0.000000,0,6.000000,0.000000,14.998411,0,0,0,0,0,0,0
0,9999,74,0,74,0,49,9999,0.100000,0,0,0.000000,0,8.000000,0.000000,14.363550,0,0,0,0,0,0,0
0,9999,75,0,75,0,49,9999,0.100000,0,0,0.000000,0,1.000000,0.000000,7.940693,0,0,0,0,0,0,0
0,9999,76,0,76,0,49,9999,0.100000,0,0,0.000000,0,11.000000,0.000000,20.838479,0,0,0,0,0,0,0
0,9999,77,0,77,0,49,9999,0.100000,0,0,0.000000,0,7.000000,0.000000,9.818846,0,0,0,0,0,0,0
0,9999,78,0,78,0,49,9999,0.100000,0,0,0.000000,0,5.000000,0.000000,6.451877,0,0,0,0,0,0,0
0,9999,79,0,79,0,49,9999,0.100000,0,0,0.000000,0,4.000000,0.000000,4.924980,0,0,0,0,0,0,0
0,9999,80,0,80,0,49,9999,0.100000,0,0,0.000000,0,7.000000,0.000000,8.181578,0,0,0,0,0,0,0
0,9999,81,0,81,0,49,9999,0.100000,0,0,0.000000,0,7.000000,0.000000,20.027676,0,0,0,0,0,0,0
0,9999,82,0,82,0,49,9999,0.100000,0,0,0.000000,0,5.000000,0.000000,6.580568,0,0,0,0,0,0,0
0,9999,83,0,83,0,49,9999,0.100000,0,0,0.000000,0,8.000000,0.000000,9.401610,0,0,0,0,0,0,0
0,9999,84,0,84,0,49,9999,0.100000,0,0,0.000000,0,4.000000,0.000000,9.237669,0,0,0,0,0,0,0
0,9999,85,0,85,0,49,9999,0.100000,0,0,0.000000,0,11.000000,0.000000,12.457701,0,0,0,0,0,0,0
0,9999,86,0,86,0,49,9999,0.100000,0,0,0.000000,0,8.000000,0.000000,9.611073,0,0,0,0,0,0,0
0,9999,87,0,87,0,49,9999,0.100000,0,0,0.000000,0,10.000000,0.000000,21.758916,0,0,0,0,0,0,0
0,9999,88,0,88,0,49,9999,0.100000,0,0,0.000000,0,9.000000,0.000000,14.051570,0,0,0,0,0,0,0
0,9999,89,0,89,0,49,9999,0.100000,0,0,0.000000,0,4.000000,0.000000,10.923556,0,0,0,0,0,0,0
0,9999,90,0,90,0,49,9999,0.100000,0,0,0.000000,0,6.000000,0.000000,8.434474,0,0,0,0,0,0,0
0,9999,91,0,91,0,49,9999,0.100000,0,0,0.000000,0,5.000000,0.000000,16.161328,0,0,0,0,0,0,0
0,9999,92,0,92,0,49,9999,0.100000,0,0,0.000000,0,3.000000,0.000000,7.628592,0,0,0,0,0,0,0
0,9999,93,0,93,0,49,9999,0.100000,0,0,0.000000,0,2.000000,0.000000,3.885183,0,0,0,0,0,0,0
0,9999,94,0,94,0,49,9999,0.100000,0,0,0.000000,0,4.000000,0.000000,7.149452,0,0,0,0,0,0,0
0,9999,95,0,95,0,49,9999,0.100000,0,0,0.000000,0,10.000000,0.000000,25.702412,0,0,0,0,0,0,0
0,9999,96,0,96,0,49,9999,0.100000,0,0,0.000000,0,5.000000,0.000000,17.406641,0,0,0,0,0,0,0
0,9999,97,0,97,0,49,9999,0.100000,0,0,0.000000,0,9.000000,0.000000,11.703437,0,0,0,0,0,0,0
0,9999,98,0,98,0,49,9999,0.100000,0,0,0.000000,0,9.000000,0.000000,10.015261,0,0,0,0,0,0,0
0,9999,99,0,99,0,49,9999,0.100000,0,0,0.000000,0,8.000000,0.000000,9.508034,0,0,0,0,0,0,0
1,19999,0,0,0,0,40,19999,0.100000,0,0,0.000000,1,0.000000,0.000000,0.067041,0,0,0,0,0,0,0
1,19999,1,10000,1,0,40,9999,0.100000,0,0,0.000000,2,0.000000,0.000000,2.392490,0,0,0,0,0,0,0
1,19999,2,0,2,0,40,19999,0.100000,0,0,0.000000,1,0.000000,0.000000,0.130416,0,0,0,0,0,0,0
1,19999,3,10000,14,0,40,9999,0.100000,0,0,0.000000,3,0.000000,0.000000,1.074257,0,0,0,0,0,0,0
1,19999,4,10000,5,0,40,9999,0.100000,0,0,0.000000,3,0.000000,0.000000,0.347945,0,0,0,0,0,0,0
1,19999,5,10000,5,0,40,9999,0.100000,0,0,0.000000,3,0.000000,0.000000,0.937024,0,0,0,0,0,0,0
1,19999,6,10000,1,0,49,9999,0.100000,0,0,0.000000,3,1.000000,0.000000,1.689055,0,0,0,0,0,0,0
1,19999,7,10000,1,0,40,9999,0.100000,0,0,0.000000,3,0.000000,0.000000,1.662265,0,0,0,0,0,0,0
1,19999,8,0,8,0,40,19999,0.100000,0,0,0.000000,1,0.000000,0.000000,1.284053,0,0,0,0,0,0,0
1,19999,9,10000,14,0,40,9999,0.100000,0,0,0.000000,3,0.000000,0.000000,3.288568,0,0,0,0,0,0,0
1,19999,10,10000,8,0,40,9999,0.100000,0,0,0.000000,2,0.000000,0.000000,5.692522,0,0,0,0,0,0,0
1,19999,11,10000,14,0,40,9999,0.100000,0,0,0.000000,3,0.000000,0.000000,9.113271,0,0,0,0,0,0,0
1,19999,12,10000,5,0,40,9999,0.100000,0,0,0.000000,3,0.000000,0.000000,3.026308,0,0,0,0,0,0,0
1,19999,13,10000,14,0,40,9999,0.100000,0,0,0.000000,3,0.000000,0.000000,0.265280,0,0,0,0,0,0,0
1,19999,14,10000,14,0,49,9999,0.100000,0,0,0.000000,3,1.000000,0.000000,8.877824,0,0,0,0,0,0,0
1,19999,15,10000,1,0,40,9999,0.100000,0,0,0.000000,3,0.000000,0.000000,1.425268,0,0,0,0,0,0,0
1,19999,16,10000,15,0,40,9999,0.100000,0,0,0.000000,3,0.000000,0.000000,9.984163,0,0,0,0,0,0,0
1,19999,17,10000,1,0,40,9999,0.100000,0,0,0.000000,3,0.000000,0.000000,0.853295,0,0,0,0,0,0,0
1,19999,18,10000,14,0,40,9999,0.100000,0,0,0.000000,3,0.000000,0.000000,0.067431,0,0,0,0,0,0,0
1,19999,19,0,19,0,40,19999,0.100000,0,0,0.000000,2,0.000000,0.000000,4.336057,0,0,0,0,0,0,0
1,19999,20,10000,1,0,40,9999,0.100000,0,0,0.000000,2,0.000000,0.000000,5.824604,0,0,0,0,0,0,0
1,19999,21,10000,48,0,49,9999,0.100000,0,0,0.000000,3,4.000000,0.000000,8.076335,0,0,0,0,0,0,0
1,19999,22,10000,15,0,40,9999,0.100000,0,0,0.000000,3,0.000000,0.000000,0.688465,0,0,0,0,0,0,0
1,19999,23,10000,1,0,40,9999,0.100000,0,0,0.000000,3,0.000000,0.000000,1.148907,0,0,0,0,0,0,0
1,19999,24,10000,1,0,40,9999,0.100000,0,0,0.000000,3,0.000000,0.000000,0.163984,0,0,0,0,0,0,0
1,19999,25,10000,1,0,49,9999,0.100000,0,0,0.000000,3,1.000000,0.000000,23.512514,0,0,0,0,0,0,0
1,19999,26,10000,14,0,49,9999,0.100000,0,0,0.000000,3,4.000000,0.000000,8.121144,0,0,0,0,0,0,0
1,19999,27,10000,14,0,49,9999,0.100000,0,0,0.000000,3,4.000000,0.000000,5.865665,0,0,0,0,0,0,0
1,19999,28,10000,48,0,40,9999,0.100000,0,0,0.000000,3,0.000000,0.000000,3.059038,0,0,0,0,0,0,0
1,19999,29,10000,5,0,40,9999,0.100000,0,0,0.000000,3,0.000000,0.000000,0.826968,0,0,0,0,0,0,0
1,19999,30,10000,14,0,40,9999,0.100000,0,0,0.000000,3,0.000000,0.000000,0.183721,0,0,0,0,0,0,0
1,19999,31,10000,14,0,40,9999,0.100000,0,0,0.000000,3,0.000000,0.000000,4.872114,0,0,0,0,0,0,0
1,19999,32,10000,1,0,40,9999,0.100000,0,0,0.000000,3,0.000000,0.000000,0.412801,0,0,0,0,0,0,0
1,19999,33,10000,48,0,49,9999,0.100000,0,0,0.000000,3,1.000000,0.000000,1.975307,0,0,0,0,0,0,0
1,19999,34,10000,48,0,40,9999,0.100000,0,0,0.000000,3,0.000000,0.000000,1.522410,0,0,0,0,0,0,0
1,19999,35,10000,5,0,49,9999,0.100000,0,0,0.000000,3,1.000000,0.000000,3.664264,0,0,0,0,0,0,0
1,19999,36,10000,41,0,40,9999,0.100000,0,0,0.000000,3,0.000000,0.000000,6.151156,0,0,0,0,0,0,0
1,19999,37,10000,48,0,40,9999,0.100000,0,0,0.000000,3,0.000000,0.000000,0.143487,0,0,0,0,0,0,0
1,19999,38,10000,1,0,49,9999,0.100000,0,0,0.000000,3,1.000000,0.000000,13.809267,0,0,0,0,0,0,0
1,19999,39,10000,1,0,40,9999,0.100000,0,0,0.000000,3,0.000000,0.000000,0.095949,0,0,0,0,0,0,0
1,19999,40,10000,15,0,40,9999,0.100000,0,0,0.000000,3,0.000000,0.000000,0.561663,0,0,0,0,0,0,0
1,19999,41,10000,41,0,40,9999,0.100000,0,0,0.000000,3,0.000000,0.000000,0.103582,0,0,0,0,0,0,0
1,19999,42,10000,48,0,49,9999,0.100000,0,0,0.000000,3,2.000000,0.000000,11.918626,0,0,0,0,0,0,0
1,19999,43,10000,1,0,49,9999,0.100000,0,0,0.000000,3,2.000000,0.000000,20.027477,0,0,0,0,0,0,0
1,19999,44,10000,41,0,49,9999,0.100000,0,0,0.000000,3,1.000000,0.000000,5.693538,0,0,0,0,0,0,0
1,19999,45,10000,1,0,40,9999,0.100000,0,0,0.000000,3,0.000000,0.000000,1.900740,0,0,0,0,0,0,0
1,19999,46,10000,48,0,40,9999,0.100000,0,0,0.000000,3,0.000000,0.000000,1.398964,0,0,0,0,0,0,0
1,19999,47,10000,41,0,49,9999,0.100000,0,0,0.000000,3,1.000000,0.000000,8.676585,0,0,0,0,0,0,0
1,19999,48,0,48,0,40,19999,0.100000,0,0,0.000000,3,0.000000,0.000000,0.554371,0,0,0,0,0,0,0
1,19999,49,0,49,0,40,19999,0.100000,0,0,0.000000,3,0.000000,0.000000,0.829305,0,0,0,0,0,0,0
1,19999,50,10000,1,0,40,9999,0.100000,0,0,0.000000,3,0.000000,0.000000,0.168080,0,0,0,0,0,0,0
1,19999,51,10000,14,0,49,9999,0.100000,0,0,0.000000,3,1.000000,0.000000,1.982958,0,0,0,0,0,0,0
1,19999,52,10000,1,0,49,9999,0.100000,0,0,0.000000,3,8.000000,0.000000,17.103494,0,0,0,0,0,0,0
1,19999,53,10000,48,0,40,9999,0.100000,0,0,0.000000,3,0.000000,0.000000,0.391893,0,0,0,0,0,0,0
1,19999,54,10000,41,0,49,9999,0.100000,0,0,0.000000,3,1.000000,0.000000,3.980701,0,0,0,0,0,0,0
1,19999,55,10000,48,0,40,9999,0.100000,0,0,0.000000,3,0.000000,0.000000,0.785384,0,0,0,0,0,0,0
1,19999,56,10000,41,0,40,9999,0.100000,0,0,0.000000,3,0.000000,0.000000,0.141100,0,0,0,0,0,0,0
1,19999,57,10000,41,0,40,9999,0.100000,0,0,0.000000,3,0.000000,0.000000,0.194003,0,0,0,0,0,0,0
1,19999,58,10000,48,0,40,9999,0.100000,0,0,0.000000,3,0.000000,0.000000,0.063173,0,0,0,0,0,0,0
1,19999,59,10000,1,0,40,9999,0.100000,0,0,0.000000,3,0.000000,0.000000,0.082698,0,0,0,0,0,0,0
1,19999,60,0,60,0,49,19999,0.100000,0,0,0.000000,3,9.000000,0.000000,26.406607,0,0,0,0,0,0,0
1,19999,61,10000,15,0,49,9999,0.100000,0,0,0.000000,3,1.000000,0.000000,1.956801,0,0,0,0,0,0,0
1,19999,62,10000,41,0,40,9999,0.100000,0,0,0.000000,3,0.000000,0.000000,0.713099,0,0,0,0,0,0,0
1,19999,63,10000,41,0,49,9999,0.100000,0,0,0.000000,3,4.000000,0.000000,13.607452,0,0,0,0,0,0,0
1,19999,64,10000,48,0,40,9999,0.100000,0,0,0.000000,3,0.000000,0.000000,0.563724,0,0,0,0,0,0,0
1,19999,65,10000,14,0,49,9999,0.100000,0,0,0.000000,3,6.000000,0.000000,10.799595,0,0,0,0,0,0,0
1,19999,66,10000,41,0,40,9999,0.100000,0,0,0.000000,3,0.000000,0.000000,0.473402,0,0,0,0,0,0,0
1,19999,67,10000,48,0,40,9999,0.100000,0,0,0.000000,3,0.000000,0.000000,0.408592,0,0,0,0,0,0,0
1,19999,68,10000,1,0,40,9999,0.100000,0,0,0.000000,3,0.000000,0.000000,0.897493,0,0,0,0,0,0,0
1,19999,69,10000,14,0,40,9999,0.100000,0,0,0.000000,3,0.000000,0.000000,0.566234,0,0,0,0,0,0,0
1,19999,70,10000,48,0,40,9999,0.100000,0,0,0.000000,3,0.000000,0.000000,0.063547,0,0,0,0,0,0,0
1,19999,71,10000,1,0,40,9999,0.100000,0,0,0.000000,3,0.000000,0.000000,0.197872,0,0,0,0,0,0,0
1,19999,72,10000,41,0,40,9999,0.100000,0,0,0.000000,3,0.000000,0.000000,1.277791,0,0,0,0,0,0,0
1,19999,73,10000,1,0,49,9999,0.100000,0,0,0.000000,3,6.000000,0.000000,14.746650,0,0,0,0,0,0,0
1,19999,74,10000,14,0,40,9999,0.100000,0,0,0.000000,3,0.000000,0.000000,0.181893,0,0,0,0,0,0,0
1,19999,75,10000,41,0,40,9999,0.100000,0,0,0.000000,3,0.000000,0.000000,0.606597,0,0,0,0,0,0,0
1,19999,76,10000,1,0,40,9999,0.100000,0,0,0.000000,2,0.000000,0.000000,3.484292,0,0,0,0,0,0,0
1,19999,77,10000,14,0,40,9999,0.100000,0,0,0.000000,3,0.000000,0.000000,0.086816,0,0,0,0,0,0,0
1,19999,78,10000,1,0,40,9999,0.100000,0,0,0.000000,3,0.000000,0.000000,0.399635,0,0,0,0,0,0,0
1,19999,79,10000,1,0,40,9999,0.100000,0,0,0.000000,3,0.000000,0.000000,0.104977,0,0,0,0,0,0,0
1,19999,80,0,80,0,49,19999,0.100000,0,0,0.000000,3,1.000000,0.000000,1.720561,0,0,0,0,0,0,0
1,19999,81,10000,14,0,49,9999,0.100000,0,0,0.000000,3,7.000000,0.000000,15.845140,0,0,0,0,0,0,0
1,19999,82,10000,48,0,40,9999,0.100000,0,0,0.000000,3,0.000000,0.000000,0.104091,0,0,0,0,0,0,0
1,19999,83,10000,48,0,40,9999,0.100000,0,0,0.000000,3,0.000000,0.000000,0.286832,0,0,0,0,0,0,0
1,19999,84,10000,15,0,49,9999,0.100000,0,0,0.000000,3,6.000000,0.000000,9.403679,0,0,0,0,0,0,0
1,19999,85,10000,1,0,40,9999,0.100000,0,0,0.000000,3,0.000000,0.000000,0.096350,0,0,0,0,0,0,0
1,19999,86,10000,1,0,40,9999,0.100000,0,0,0.000000,3,0.000000,0.000000,0.443833,0,0,0,0,0,0,0
1,19999,87,10000,14,0,40,9999,0.100000,0,0,0.000000,3,0.000000,0.000000,5.354916,0,0,0,0,0,0,0
1,19999,88,10000,41,0,40,9999,0.100000,0,0,0.000000,3,0.000000,0.000000,1.930894,0,0,0,0,0,0,0
1,19999,89,10000,1,0,40,9999,0.100000,0,0,0.000000,3,0.000000,0.000000,0.283094,0,0,0,0,0,0,0
1,19999,90,10000,14,0,49,9999,0.100000,0,0,0.000000,3,3.000000,0.000000,13.007824,0,0,0,0,0,0,0
1,19999,91,10000,1,0,40,9999,0.100000,0,0,0.000000,3,0.000000,0.000000,0.601114,0,0,0,0,0,0,0
1,19999,92,10000,1,0,49,9999,0.100000,0,0,0.000000,3,1.000000,0.000000,7.010064,0,0,0,0,0,0,0
1,19999,93,10000,14,0,40,9999,0.100000,0,0,0.000000,3,0.000000,0.000000,0.295371,0,0,0,0,0,0,0
1,19999,94,10000,14,0,40,9999,0.100000,0,0,0.000000,3,0.000000,0.000000,0.295524,0,0,0,0,0,0,0
1,19999,95,10000,14,0,49,9999,0.100000,0,0,0.000000,3,6.000000,0.000000,10.404643,0,0,0,0,0,0,0
1,19999,96,10000,48,0,40,9999,0.100000,0,0,0.000000,3,0.000000,0.000000,23.851225,0,0,0,0,0,0,0
1,19999,97,10000,41,0,40,9999,0.100000,0,0,0.000000,3,0.000000,0.000000,0.482817,0,0,0,0,0,0,0
1,19999,98,10000,1,0,40,9999,0.100000,0,0,0.000000,3,0.000000,0.000000,0.181193,0,0,0,0,0,0,0
1,19999,99,10000,14,0,40,9999,0.100000,0,0,0.000000,3,0.000000,0.000000,0.313175,0,0,0,0,0,0,0
2,29999,0,20000,14,0,40,9999,0.100000,0,0,0.000000,5,0.000000,0.000000,0.087949,0,0,0,0,0,0,0
2,29999,1,20000,94,10000,40,9999,0.100000,0,0,0.000000,5,0.000000,0.000000,5.721462,0,0,0,0,0,0,0
2,29999,2,20000,1,0,40,9999,0.100000,0,0,0.000000,5,0.000000,0.000000,0.129065,0,0,0,0,0,0,0
2,29999,3,20000,14,0,40,9999,0.100000,0,0,0.000000,6,0.000000,0.000000,1.195567,0,0,0,0,0,0,0
2,29999,4,20000,41,0,40,9999,0.100000,0,0,0.000000,5,0.000000,0.000000,0.588276,0,0,0,0,0,0,0
2,29999,5,20000,14,0,40,9999,0.100000,0,0,0.000000,5,0.000000,0.000000,1.073534,0,0,0,0,0,0,0
2,29999,6,20000,14,0,40,9999,0.100000,0,0,0.000000,3,0.000000,0.000000,0.144566,0,0,0,0,0,0,0
2,29999,7,20000,32,10000,40,9999,0.100000,0,0,0.000000,5,0.000000,0.000000,1.411372,0,0,0,0,0,0,0
2,29999,8,20000,14,0,40,9999,0.100000,0,0,0.000000,5,0.000000,0.000000,1.239990,0,0,0,0,0,0,0
2,29999,9,20000,94,10000,40,9999,0.100000,0,0,0.000000,5,0.000000,0.000000,2.451448,0,0,0,0,0,0,0
2,29999,10,20000,85,10000,40,9999,0.100000,0,0,0.000000,6,0.000000,0.000000,3.637386,0,0,0,0,0,0,0
2,29999,11,20000,1,0,49,9999,0.100000,0,0,0.000000,5,3.000000,0.000000,9.042602,0,0,0,0,0,0,0
2,29999,12,20000,41,10000,40,9999,0.100000,0,0,0.000000,5,0.000000,0.000000,1.708925,0,0,0,0,0,0,0
2,29999,13,20000,94,10000,40,9999,0.100000,0,0,0.000000,5,0.000000,0.000000,0.331525,0,0,0,0,0,0,0
2,29999,14,20000,85,10000,49,9999,0.100000,0,0,0.000000,5,2.000000,0.000000,6.445595,0,0,0,0,0,0,0
2,29999,15,20000,41,10000,40,9999,0.100000,0,0,0.000000,5,0.000000,0.000000,1.343060,0,0,0,0,0,0,0
2,29999,16,20000,94,10000,49,9999,0.100000,0,0,0.000000,5,3.000000,0.000000,10.378479,0,0,0,0,0,0,0
2,29999,17,20000,14,0,49,9999,0.100000,0,0,0.000000,5,2.000000,0.000000,3.225986,0,0,0,0,0,0,0
2,29999,18,20000,41,10000,40,9999,0.100000,0,0,0.000000,5,0.000000,0.000000,0.066701,0,0,0,0,0,0,0
2,29999,19,20000,32,10000,49,9999,0.100000,0,0,0.000000,5,3.000000,0.000000,7.368211,0,0,0,0,0,0,0
2,29999,20,20000,41,10000,49,9999,0.100000,0,0,0.000000,5,1.000000,0.000000,11.234338,0,0,0,0,0,0,0
2,29999,21,20000,52,10000,49,9999,0.100000,0,0,0.000000,5,2.000000,0.000000,9.668238,0,0,0,0,0,0,0
2,29999,22,20000,14,0,40,9999,0.100000,0,0,0.000000,5,0.000000,0.000000,1.105385,0,0,0,0,0,0,0
2,29999,23,20000,41,10000,40,9999,0.100000,0,0,0.000000,5,0.000000,0.000000,1.105005,0,0,0,0,0,0,0
2,29999,24,20000,1,0,40,9999,0.100000,0,0,0.000000,5,0.000000,0.000000,0.295692,0,0,0,0,0,0,0
2,29999,25,20000,14,0,49,9999,0.100000,0,0,0.000000,5,1.000000,0.000000,17.167451,0,0,0,0,0,0,0
2,29999,26,20000,41,10000,40,9999,0.100000,0,0,0.000000,5,0.000000,0.000000,0.074422,0,0,0,0,0,0,0
2,29999,27,20000,41,0,40,9999,0.100000,0,0,0.000000,5,0.000000,0.000000,0.681275,0,0,0,0,0,0,0
2,29999,28,20000,24,10000,40,9999,0.100000,0,0,0.000000,5,0.000000,0.000000,2.383953,0,0,0,0,0,0,0
2,29999,29,20000,41,0,40,9999,0.100000,0,0,0.000000,5,0.000000,0.000000,0.894347,0,0,0,0,0,0,0
2,29999,30,20000,14,0,40,9999,0.100000,0,0,0.000000,5,0.000000,0.000000,0.140104,0,0,0,0,0,0,0
2,29999,31,20000,94,10000,49,9999,0.100000,0,0,0.000000,5,1.000000,0.000000,3.086256,0,0,0,0,0,0,0
2,29999,32,20000,41,0,40,9999,0.100000,0,0,0.000000,4,0.000000,0.000000,0.251652,0,0,0,0,0,0,0
2,29999,33,20000,14,0,40,9999,0.100000,0,0,0.000000,5,0.000000,0.000000,1.441342,0,0,0,0,0,0,0
2,29999,34,20000,85,10000,40,9999,0.100000,0,0,0.000000,5,0.000000,0.000000,0.452736,0,0,0,0,0,0,0
2,29999,35,20000,41,0,40,9999,0.100000,0,0,0.000000,4,0.000000,0.000000,5.674329,0,0,0,0,0,0,0
2,29999,36,20000,94,10000,49,9999,0.100000,0,0,0.000000,5,1.000000,0.000000,2.196783,0,0,0,0,0,0,0
2,29999,37,20000,1,0,40,9999,0.100000,0,0,0.000000,5,0.000000,0.000000,0.146125,0,0,0,0,0,0,0
2,29999,38,20000,94,10000,40,9999,0.100000,0,0,0.000000,5,0.000000,0.000000,19.564375,0,0,0,0,0,0,0
2,29999,39,20000,14,0,40,9999,0.100000,0,0,0.000000,5,0.000000,0.000000,0.099911,0,0,0,0,0,0,0
2,29999,40,20000,94,10000,40,9999,0.100000,0,0,0.000000,5,0.000000,0.000000,0.427624,0,0,0,0,0,0,0
2,29999,41,20000,41,0,40,9999,0.100000,0,0,0.000000,5,0.000000,0.000000,0.103680,0,0,0,0,0,0,0
2,29999,42,20000,41,10000,49,9999,0.100000,0,0,0.000000,5,3.000000,0.000000,15.425096,0,0,0,0,0,0,0
2,29999,43,20000,94,10000,49,9999,0.100000,0,0,0.000000,5,1.000000,0.000000,7.649439,0,0,0,0,0,0,0
2,29999,44,20000,14,0,40,9999,0.100000,0,0,0.000000,5,0.000000,0.000000,0.134852,0,0,0,0,0,0,0
2,29999,45,20000,46,10000,40,9999,0.100000,0,0,0.000000,6,0.000000,0.000000,1.528747,0,0,0,0,0,0,0
2,29999,46,20000,46,10000,40,9999,0.100000,0,0,0.000000,6,0.000000,0.000000,0.623257,0,0,0,0,0,0,0
2,29999,47,20000,52,10000,49,9999,0.100000,0,0,0.000000,5,2.000000,0.000000,6.916722,0,0,0,0,0,0,0
2,29999,48,20000,32,10000,40,9999,0.100000,0,0,0.000000,4,0.000000,0.000000,1.162837,0,0,0,0,0,0,0
2,29999,49,20000,41,10000,40,9999,0.100000,0,0,0.000000,5,0.000000,0.000000,0.554643,0,0,0,0,0,0,0
2,29999,50,20000,85,10000,40,9999,0.100000,0,0,0.000000,5,0.000000,0.000000,0.165472,0,0,0,0,0,0,0
2,29999,51,20000,14,0,40,9999,0.100000,0,0,0.000000,5,0.000000,0.000000,0.984981,0,0,0,0,0,0,0
2,29999,52,20000,1,0,40,9999,0.100000,0,0,0.000000,5,0.000000,0.000000,0.193064,0,0,0,0,0,0,0
2,29999,53,20000,14,0,40,9999,0.100000,0,0,0.000000,6,0.000000,0.000000,0.537873,0,0,0,0,0,0,0
2,29999,54,20000,52,10000,49,9999,0.100000,0,0,0.000000,5,5.000000,0.000000,11.881087,0,0,0,0,0,0,0
2,29999,55,20000,41,0,40,9999,0.100000,0,0,0.000000,5,0.000000,0.000000,0.373764,0,0,0,0,0,0,0
2,29999,56,20000,94,10000,49,9999,0.100000,0,0,0.000000,6,3.000000,0.000000,6.408420,0,0,0,0,0,0,0
2,29999,57,20000,94,10000,40,9999,0.100000,0,0,0.000000,5,0.000000,0.000000,0.256102,0,0,0,0,0,0,0
2,29999,58,20000,41,0,40,9999,0.100000,0,0,0.000000,5,0.000000,0.000000,0.063437,0,0,0,0,0,0,0
2,29999,59,20000,41,0,40,9999,0.100000,0,0,0.000000,5,0.000000,0.000000,0.082288,0,0,0,0,0,0,0
2,29999,60,20000,52,10000,49,9999,0.100000,0,0,0.000000,5,1.000000,0.000000,4.542338,0,0,0,0,0,0,0
2,29999,61,20000,94,10000,40,9999,0.100000,0,0,0.000000,5,0.000000,0.000000,1.108183,0,0,0,0,0,0,0
2,29999,62,20000,94,10000,40,9999,0.100000,0,0,0.000000,5,0.000000,0.000000,1.052681,0,0,0,0,0,0,0
2,29999,63,20000,94,10000,49,9999,0.100000,0,0,0.000000,5,4.000000,0.000000,15.245907,0,0,0,0,0,0,0
2,29999,64,20000,1,0,40,9999,0.100000,0,0,0.000000,5,0.000000,0.000000,1.274525,0,0,0,0,0,0,0
2,29999,65,20000,1,0,40,9999,0.100000,0,0,0.000000,5,0.000000,0.000000,1.715768,0,0,0,0,0,0,0
2,29999,66,20000,14,0,40,9999,0.100000,0,0,0.000000,6,0.000000,0.000000,0.465574,0,0,0,0,0,0,0
2,29999,67,20000,41,0,40,9999,0.100000,0,0,0.000000,5,0.000000,0.000000,0.367554,0,0,0,0,0,0,0
2,29999,68,20000,94,10000,49,9999,0.100000,0,0,0.000000,5,8.000000,0.000000,9.962451,0,0,0,0,0,0,0
2,29999,69,20000,41,10000,40,9999,0.100000,0,0,0.000000,5,0.000000,0.000000,0.432920,0,0,0,0,0,0,0
2,29999,70,20000,46,10000,40,9999,0.100000,0,0,0.000000,6,0.000000,0.000000,0.094782,0,0,0,0,0,0,0
2,29999,71,20000,52,10000,40,9999,0.100000,0,0,0.000000,6,0.000000,0.000000,0.168696,0,0,0,0,0,0,0
2,29999,72,20000,1,0,40,9999,0.100000,0,0,0.000000,5,0.000000,0.000000,3.451963,0,0,0,0,0,0,0
2,29999,73,20000,52,10000,40,9999,0.100000,0,0,0.000000,6,0.000000,0.000000,0.429721,0,0,0,0,0,0,0
2,29999,74,20000,94,10000,40,9999,0.100000,0,0,0.000000,5,0.000000,0.000000,0.144507,0,0,0,0,0,0,0
2,29999,75,20000,14,0,40,9999,0.100000,0,0,0.000000,5,0.000000,0.000000,0.882003,0,0,0,0,0,0,0
2,29999,76,20000,14,0,49,9999,0.100000,0,0,0.000000,5,2.000000,0.000000,10.933458,0,0,0,0,0,0,0
2,29999,77,20000,41,0,40,9999,0.100000,0,0,0.000000,5,0.000000,0.000000,0.129954,0,0,0,0,0,0,0
2,29999,78,20000,85,10000,40,9999,0.100000,0,0,0.000000,6,0.000000,0.000000,0.222688,0,0,0,0,0,0,0
2,29999,79,20000,14,0,40,9999,0.100000,0,0,0.000000,5,0.000000,0.000000,0.101153,0,0,0,0,0,0,0
2,29999,80,20000,94,10000,40,9999,0.100000,0,0,0.000000,5,0.000000,0.000000,1.612500,0,0,0,0,0,0,0
2,29999,81,20000,41,0,40,9999,0.100000,0,0,0.000000,5,0.000000,0.000000,1.556213,0,0,0,0,0,0,0
2,29999,82,20000,14,0,40,9999,0.100000,0,0,0.000000,5,0.000000,0.000000,0.104252,0,0,0,0,0,0,0
2,29999,83,20000,41,10000,40,9999,0.100000,0,0,0.000000,5,0.000000,0.000000,0.286343,0,0,0,0,0,0,0
2,29999,84,20000,85,10000,49,9999,0.100000,0,0,0.000000,6,3.000000,0.000000,5.339949,0,0,0,0,0,0,0
2,29999,85,20000,52,10000,40,9999,0.100000,0,0,0.000000,5,0.000000,0.000000,0.094527,0,0,0,0,0,0,0
2,29999,86,20000,1,0,40,9999,0.100000,0,0,0.000000,5,0.000000,0.000000,0.435847,0,0,0,0,0,0,0
2,29999,87,20000,41,10000,40,9999,0.100000,0,0,0.000000,5,0.000000,0.000000,23.370661,0,0,0,0,0,0,0
2,29999,88,20000,1,0,40,9999,0.100000,0,0,0.000000,5,0.000000,0.000000,0.381164,0,0,0,0,0,0,0
2,29999,89,20000,1,0,40,9999,0.100000,0,0,0.000000,5,0.000000,0.000000,0.322136,0,0,0,0,0,0,0
2,29999,90,20000,41,0,40,9999,0.100000,0,0,0.000000,5,0.000000,0.000000,1.020083,0,0,0,0,0,0,0
2,29999,91,20000,1,0,40,9999,0.100000,0,0,0.000000,6,0.000000,0.000000,0.384849,0,0,0,0,0,0,0
2,29999,92,20000,94,10000,40,9999,0.100000,0,0,0.000000,5,0.000000,0.000000,0.935886,0,0,0,0,0,0,0
2,29999,93,20000,14,0,49,9999,0.100000,0,0,0.000000,6,3.000000,0.000000,13.941937,0,0,0,0,0,0,0
2,29999,94,20000,14,0,40,9999,0.100000,0,0,0.000000,5,0.000000,0.000000,0.575127,0,0,0,0,0,0,0
2,29999,95,20000,1,0,40,9999,0.100000,0,0,0.000000,5,0.000000,0.000000,4.170452,0,0,0,0,0,0,0
2,29999,96,20000,41,10000,40,9999,0.100000,0,0,0.000000,5,0.000000,0.000000,20.356616,0,0,0,0,0,0,0
2,29999,97,20000,1,0,49,9999,0.100000,0,0,0.000000,5,6.000000,0.000000,13.629058,0,0,0,0,0,0,0
2,29999,98,20000,14,0,49,9999,0.100000,0,0,0.000000,6,9.000000,0.000000,18.747709,0,0,0,0,0,0,0
2,29999,99,20000,94,10000,40,9999,0.100000,0,0,0.000000,5,0.000000,0.000000,0.232170,0,0,0,0,0,0,0
3,39999,0,30000,36,20000,40,9999,0.100000,0,0,0.000000,6,0.000000,0.000000,0.109528,0,0,0,0,0,0,0
3,39999,1,30000,1,0,40,9999,0.100000,0,0,0.000000,6,0.000000,0.000000,8.065132,0,0,0,0,0,0,0
3,39999,2,30000,85,10000,40,9999,0.100000,0,0,0.000000,6,0.000000,0.000000,0.169783,0,0,0,0,0,0,0
3,39999,3,30000,14,0,40,9999,0.100000,0,0,0.000000,6,0.000000,0.000000,1.823303,0,0,0,0,0,0,0
3,39999,4,30000,14,0,49,9999,0.100000,0,0,0.000000,6,1.000000,0.000000,1.178459,0,0,0,0,0,0,0
3,39999,5,30000,14,0,49,9999,0.100000,0,0,0.000000,6,1.000000,0.000000,1.258541,0,0,0,0,0,0,0
3,39999,6,30000,1,0,40,9999,0.100000,0,0,0.000000,6,0.000000,0.000000,0.137860,0,0,0,0,0,0,0
3,39999,7,30000,14,0,40,9999,0.100000,0,0,0.000000,6,0.000000,0.000000,0.883272,0,0,0,0,0,0,0
3,39999,8,30000,46,10000,40,9999,0.100000,0,0,0.000000,6,0.000000,0.000000,0.092560,0,0,0,0,0,0,0
3,39999,9,30000,14,0,49,9999,0.100000,0,0,0.000000,6,1.000000,0.000000,1.674612,0,0,0,0,0,0,0
3,39999,10,30000,46,10000,49,9999,0.100000,0,0,0.000000,6,5.000000,0.000000,23.575614,0,0,0,0,0,0,0
3,39999,11,30000,85,10000,49,9999,0.100000,0,0,0.000000,6,1.000000,0.000000,7.340667,0,0,0,0,0,0,0
3,39999,12,30000,14,0,49,9999,0.100000,0,0,0.000000,6,5.000000,0.000000,15.668956,0,0,0,0,0,0,0
3,39999,13,30000,46,10000,40,9999,0.100000,0,0,0.000000,6,0.000000,0.000000,0.594119,0,0,0,0,0,0,0
3,39999,14,30000,94,10000,49,9999,0.100000,0,0,0.000000,6,3.000000,0.000000,7.945875,0,0,0,0,0,0,0
3,39999,15,30000,36,20000,40,9999,0.100000,0,0,0.000000,6,0.000000,0.000000,1.570078,0,0,0,0,0,0,0
3,39999,16,30000,1,0,49,9999,0.100000,0,0,0.000000,6,3.000000,0.000000,7.633578,0,0,0,0,0,0,0
3,39999,17,30000,14,0,49,9999,0.100000,0,0,0.000000,6,3.000000,0.000000,6.371625,0,0,0,0,0,0,0
3,39999,18,30000,36,20000,40,9999,0.100000,0,0,0.000000,6,0.000000,0.000000,0.327131,0,0,0,0,0,0,0
3,39999,19,30000,1,0,49,9999,0.100000,0,0,0.000000,6,1.000000,0.000000,12.958203,0,0,0,0,0,0,0
3,39999,20,30000,36,20000,49,9999,0.100000,0,0,0.000000,6,1.000000,0.000000,14.701091,0,0,0,0,0,0,0
3,39999,21,30000,94,10000,40,9999,0.100000,0,0,0.000000,6,0.000000,0.000000,0.800021,0,0,0,0,0,0,0
3,39999,22,30000,52,10000,40,9999,0.100000,0,0,0.000000,6,0.000000,0.000000,1.101092,0,0,0,0,0,0,0
3,39999,23,30000,85,10000,40,9999,0.100000,0,0,0.000000,6,0.000000,0.000000,0.927659,0,0,0,0,0,0,0
3,39999,24,30000,94,10000,40,9999,0.100000,0,0,0.000000,6,0.000000,0.000000,0.085427,0,0,0,0,0,0,0
3,39999,25,30000,85,10000,49,9999,0.100000,0,0,0.000000,6,4.000000,0.000000,5.563183,0,0,0,0,0,0,0
3,39999,26,30000,85,10000,40,9999,0.100000,0,0,0.000000,6,0.000000,0.000000,0.295318,0,0,0,0,0,0,0
3,39999,27,30000,46,10000,40,9999,0.100000,0,0,0.000000,6,0.000000,0.000000,0.379773,0,0,0,0,0,0,0
3,39999,28,30000,46,10000,40,9999,0.100000,0,0,0.000000,6,0.000000,0.000000,4.231450,0,0,0,0,0,0,0
3,39999,29,30000,14,0,40,9999,0.100000,0,0,0.000000,6,0.000000,0.000000,0.466802,0,0,0,0,0,0,0
3,39999,30,30000,52,10000,40,9999,0.100000,0,0,0.000000,6,0.000000,0.000000,0.160316,0,0,0,0,0,0,0
3,39999,31,30000,46,10000,49,9999,0.100000,0,0,0.000000,6,1.000000,0.000000,2.101272,0,0,0,0,0,0,0
3,39999,32,30000,94,10000,40,9999,0.100000,0,0,0.000000,6,0.000000,0.000000,0.348467,0,0,0,0,0,0,0
3,39999,33,30000,36,20000,49,9999,0.135000,0,0,0.000000,6,1.000000,0.000000,1.624199,0,0,0,0,0,0,0
3,39999,34,30000,94,10000,40,9999,0.100000,0,0,0.000000,6,0.000000,0.000000,0.391325,0,0,0,0,0,0,0
3,39999,35,30000,1,0,49,9999,0.100000,0,0,0.000000,6,1.000000,0.000000,3.198181,0,0,0,0,0,0,0
3,39999,36,30000,14,0,40,9999,0.100000,0,0,0.000000,6,0.000000,0.000000,0.173613,0,0,0,0,0,0,0
3,39999,37,30000,14,0,40,9999,0.100000,0,0,0.000000,6,0.000000,0.000000,0.138402,0,0,0,0,0,0,0
3,39999,38,30000,85,10000,49,9999,0.100000,0,0,0.000000,6,8.000000,0.000000,22.145947,0,0,0,0,0,0,0
3,39999,39,30000,94,10000,40,9999,0.100000,0,0,0.000000,6,0.000000,0.000000,0.122383,0,0,0,0,0,0,0
3,39999,40,30000,14,0,40,9999,0.100000,0,0,0.000000,6,0.000000,0.000000,0.639482,0,0,0,0,0,0,0
3,39999,41,30000,36,20000,40,9999,0.100000,0,0,0.000000,6,0.000000,0.000000,0.102227,0,0,0,0,0,0,0
3,39999,42,30000,36,20000,49,9999,0.100000,0,0,0.000000,6,1.000000,0.000000,2.750304,0,0,0,0,0,0,0
3,39999,43,30000,14,0,49,9999,0.100000,0,0,0.000000,6,4.000000,0.000000,6.122306,0,0,0,0,0,0,0
3,39999,44,30000,94,10000,40,9999,0.100000,0,0,0.000000,6,0.000000,0.000000,0.261392,0,0,0,0,0,0,0
3,39999,45,30000,14,0,40,9999,0.100000,0,0,0.000000,6,0.000000,0.000000,2.348102,0,0,0,0,0,0,0
3,39999,46,30000,85,10000,40,9999,0.100000,0,0,0.000000,6,0.000000,0.000000,1.384328,0,0,0,0,0,0,0
3,39999,47,30000,52,10000,40,9999,0.100000,0,0,0.000000,6,0.000000,0.000000,3.353000,0,0,0,0,0,0,0
3,39999,48,30000,14,0,40,9999,0.100000,0,0,0.000000,6,0.000000,0.000000,2.410736,0,0,0,0,0,0,0
3,39999,49,30000,85,10000,40,9999,0.100000,0,0,0.000000,6,0.000000,0.000000,0.602660,0,0,0,0,0,0,0
3,39999,50,30000,14,0,40,9999,0.100000,0,0,0.000000,6,0.000000,0.000000,0.178070,0,0,0,0,0,0,0
3,39999,51,30000,94,10000,49,9999,0.100000,0,0,0.000000,6,1.000000,0.000000,1.365784,0,0,0,0,0,0,0
3,39999,52,30000,94,10000,40,9999,0.100000,0,0,0.000000,6,0.000000,0.000000,0.099927,0,0,0,0,0,0,0
3,39999,53,30000,1,0,40,9999,0.100000,0,0,0.000000,6,0.000000,0.000000,0.561091,0,0,0,0,0,0,0
3,39999,54,30000,1,0,40,9999,0.100000,0,0,0.000000,6,0.000000,0.000000,0.560145,0,0,0,0,0,0,0
3,39999,55,30000,94,10000,40,9999,0.100000,0,0,0.000000,6,0.000000,0.000000,1.230895,0,0,0,0,0,0,0
3,39999,56,30000,46,10000,49,9999,0.100000,0,0,0.000000,6,3.000000,0.000000,6.435844,0,0,0,0,0,0,0
3,39999,57,30000,36,20000,40,9999,0.100000,0,0,0.000000,6,0.000000,0.000000,0.553983,0,0,0,0,0,0,0
3,39999,58,30000,1,0,40,9999,0.100000,0,0,0.000000,6,0.000000,0.000000,0.157987,0,0,0,0,0,0,0
3,39999,59,30000,36,20000,40,9999,0.100000,0,0,0.000000,6,0.000000,0.000000,0.082118,0,0,0,0,0,0,0
3,39999,60,30000,94,10000,49,9999,0.100000,0,0,0.000000,6,1.000000,0.000000,1.159050,0,0,0,0,0,0,0
3,39999,61,30000,94,10000,49,9999,0.100000,0,0,0.000000,6,1.000000,0.000000,1.605094,0,0,0,0,0,0,0
3,39999,62,30000,14,0,49,9999,0.100000,0,0,0.000000,6,4.000000,0.000000,5.352465,0,0,0,0,0,0,0
3,39999,63,30000,1,0,49,9999,0.100000,0,0,0.000000,6,1.000000,0.000000,8.863272,0,0,0,0,0,0,0
3,39999,64,30000,46,10000,49,9999,0.100000,0,0,0.000000,6,5.000000,0.000000,6.495740,0,0,0,0,0,0,0
3,39999,65,30000,14,0,40,9999,0.100000,0,0,0.000000,6,0.000000,0.000000,0.069748,0,0,0,0,0,0,0
3,39999,66,30000,46,10000,40,9999,0.100000,0,0,0.000000,6,0.000000,0.000000,0.469769,0,0,0,0,0,0,0
3,39999,67,30000,85,10000,40,9999,0.100000,0,0,0.000000,6,0.000000,0.000000,0.318441,0,0,0,0,0,0,0
3,39999,68,30000,14,0,40,9999,0.100000,0,0,0.000000,6,0.000000,0.000000,0.250150,0,0,0,0,0,0,0
3,39999,69,30000,94,10000,40,9999,0.100000,0,0,0.000000,6,0.000000,0.000000,0.100400,0,0,0,0,0,0,0
3,39999,70,30000,1,0,40,9999,0.100000,0,0,0.000000,6,0.000000,0.000000,0.105362,0,0,0,0,0,0,0
3,39999,71,30000,94,10000,40,9999,0.065000,0,0,0.000000,6,0.000000,0.000000,0.132955,0,0,0,0,0,0,0
3,39999,72,30000,46,10000,49,9999,0.100000,0,0,0.000000,6,1.000000,0.000000,2.938291,0,0,0,0,0,0,0
3,39999,73,30000,94,10000,40,9999,0.100000,0,0,0.000000,6,0.000000,0.000000,0.936381,0,0,0,0,0,0,0
3,39999,74,30000,14,0,40,9999,0.100000,0,0,0.000000,6,0.000000,0.000000,1.275232,0,0,0,0,0,0,0
3,39999,75,30000,36,20000,40,9999,0.100000,0,0,0.000000,6,0.000000,0.000000,0.845602,0,0,0,0,0,0,0
3,39999,76,30000,14,0,49,9999,0.100000,0,0,0.000000,6,1.000000,0.000000,6.916648,0,0,0,0,0,0,0
3,39999,77,30000,94,10000,40,9999,0.100000,0,0,0.000000,6,0.000000,0.000000,0.097360,0,0,0,0,0,0,0
3,39999,78,30000,1,0,40,9999,0.100000,0,0,0.000000,6,0.000000,0.000000,0.634700,0,0,0,0,0,0,0
3,39999,79,30000,85,10000,40,9999,0.100000,0,0,0.000000,6,0.000000,0.000000,0.106178,0,0,0,0,0,0,0
3,39999,80,30000,46,10000,49,9999,0.100000,0,0,0.000000,6,1.000000,0.000000,1.422359,0,0,0,0,0,0,0
3,39999,81,30000,1,0,49,9999,0.100000,0,0,0.000000,6,8.000000,0.000000,47.895640,0,0,0,0,0,0,0
3,39999,82,30000,1,0,40,9999,0.100000,0,0,0.000000,6,0.000000,0.000000,0.102263,0,0,0,0,0,0,0
3,39999,83,30000,46,10000,40,9999,0.100000,0,0,0.000000,6,0.000000,0.000000,0.536423,0,0,0,0,0,0,0
3,39999,84,30000,46,10000,49,9999,0.100000,0,0,0.000000,6,3.000000,0.000000,6.070755,0,0,0,0,0,0,0
3,39999,85,30000,36,20000,40,9999,0.100000,0,0,0.000000,6,0.000000,0.000000,0.092335,0,0,0,0,0,0,0
3,39999,86,30000,1,0,40,9999,0.100000,0,0,0.000000,6,0.000000,0.000000,0.505617,0,0,0,0,0,0,0
3,39999,87,30000,94,10000,40,9999,0.100000,0,0,0.000000,6,0.000000,0.000000,23.910549,0,0,0,0,0,0,0
3,39999,88,30000,14,0,49,9999,0.100000,0,0,0.000000,6,3.000000,0.000000,5.221723,0,0,0,0,0,0,0
3,39999,89,30000,1,0,49,9999,0.100000,0,0,0.000000,6,3.000000,0.000000,6.277081,0,0,0,0,0,0,0
3,39999,90,30000,1,0,49,9999,0.100000,0,0,0.000000,6,1.000000,0.000000,1.419503,0,0,0,0,0,0,0
3,39999,91,30000,46,10000,40,9999,0.100000,0,0,0.000000,6,0.000000,0.000000,0.413021,0,0,0,0,0,0,0
3,39999,92,30000,94,10000,40,9999,0.100000,0,0,0.000000,6,0.000000,0.000000,0.973738,0,0,0,0,0,0,0
3,39999,93,30000,36,20000,49,9999,0.100000,0,0,0.000000,6,4.000000,0.000000,8.017372,0,0,0,0,0,0,0
3,39999,94,30000,36,20000,49,9999,0.100000,0,0,0.000000,6,3.000000,0.000000,5.020207,0,0,0,0,0,0,0
3,39999,95,30000,14,0,40,9999,0.100000,0,0,0.000000,6,0.000000,0.000000,1.978043,0,0,0,0,0,0,0
3,39999,96,30000,14,0,49,9999,0.100000,0,0,0.000000,6,3.000000,0.000000,8.670293,0,0,0,0,0,0,0
3,39999,97,30000,85,10000,40,9999,0.100000,0,0,0.000000,6,0.000000,0.000000,0.540668,0,0,0,0,0,0,0
3,39999,98,30000,94,10000,40,9999,0.100000,0,0,0.000000,6,0.000000,0.000000,0.096544,0,0,0,0,0,0,0
3,39999,99,30000,46,10000,49,9999,0.100000,0,0,0.000000,6,6.000000,0.000000,12.795435,0,0,0,0,0,0,0
4,49999,0,40000,36,20000,40,9999,0.100000,0,0,0.000000,6,0.000000,0.000000,0.093616,0,0,0,0,0,0,0
4,49999,1,40000,14,0,49,9999,0.100000,0,0,0.000000,6,1.000000,0.000000,7.973850,0,0,0,0,0,0,0
4,49999,2,40000,14,0,40,9999,0.100000,0,0,0.000000,6,0.000000,0.000000,0.588523,0,0,0,0,0,0,0
4,49999,3,40000,14,0,40,9999,0.100000,0,0,0.000000,6,0.000000,0.000000,2.317827,0,0,0,0,0,0,0
4,49999,4,40000,1,0,49,9999,0.100000,0,0,0.000000,6,7.000000,0.000000,8.050710,0,0,0,0,0,0,0
4,49999,5,40000,36,20000,49,9999,0.100000,0,0,0.000000,6,1.000000,0.000000,1.596260,0,0,0,0,0,0,0
4,49999,6,40000,36,20000,40,9999,0.100000,0,0,0.000000,6,0.000000,0.000000,0.133189,0,0,0,0,0,0,0
4,49999,7,40000,94,10000,40,9999,0.100000,0,0,0.000000,6,0.000000,0.000000,0.133518,0,0,0,0,0,0,0
4,49999,8,40000,46,10000,40,9999,0.100000,0,0,0.000000,6,0.000000,0.000000,0.093099,0,0,0,0,0,0,0
4,49999,9,40000,36,20000,49,9999,0.100000,0,0,0.000000,6,1.000000,0.000000,1.669471,0,0,0,0,0,0,0
4,49999,10,40000,46,10000,49,9999,0.100000,0,0,0.000000,6,1.000000,0.000000,4.939385,0,0,0,0,0,0,0
4,49999,11,40000,36,20000,49,9999,0.100000,0,0,0.000000,6,1.000000,0.000000,22.401057,0,0,0,0,0,0,0
4,49999,12,40000,46,10000,40,9999,0.100000,0,0,0.000000,6,0.000000,0.000000,0.288552,0,0,0,0,0,0,0
4,49999,13,40000,85,10000,40,9999,0.100000,0,0,0.000000,6,0.000000,0.000000,0.261530,0,0,0,0,0,0,0
4,49999,14,40000,85,10000,49,9999,0.100000,0,0,0.000000,6,3.000000,0.000000,6.726776,0,0,0,0,0,0,0
4,49999,15,40000,1,0,40,9999,0.100000,0,0,0.000000,6,0.000000,0.000000,0.743589,0,0,0,0,0,0,0
4,49999,16,40000,46,10000,49,9999,0.100000,0,0,0.000000,6,4.000000,0.000000,9.001853,0,0,0,0,0,0,0
4,49999,17,40000,14,0,9,9999,0.100000,0,0,34.210526,6,6.000000,0.000000,11.311356,0,0,0,1,0,0,0
4,49999,18,40000,94,10000,40,9999,0.100000,0,0,0.000000,6,0.000000,0.000000,0.140640,0,0,0,0,0,0,0
4,49999,19,40000,94,10000,40,9999,0.100000,0,0,0.000000,6,0.000000,0.000000,20.511430,0,0,0,0,0,0,0
4,49999,20,40000,36,20000,40,9999,0.100000,0,0,0.000000,6,0.000000,0.000000,0.702656,0,0,0,0,0,0,0
4,49999,21,40000,14,0,40,9999,0.100000,0,0,0.000000,6,0.000000,0.000000,0.651576,0,0,0,0,0,0,0
4,49999,22,40000,85,10000,40,9999,0.100000,0,0,0.000000,6,0.000000,0.000000,0.744015,0,0,0,0,0,0,0
4,49999,23,40000,1,0,40,9999,0.100000,0,0,0.000000,6,0.000000,0.000000,1.093395,0,0,0,0,0,0,0
4,49999,24,40000,1,0,40,9999,0.100000,0,0,0.000000,6,0.000000,0.000000,0.086498,0,0,0,0,0,0,0
4,49999,25,40000,36,20000,40,9999,0.100000,0,0,0.000000,6,0.000000,0.000000,0.189479,0,0,0,0,0,0,0
4,49999,26,40000,36,20000,40,9999,0.100000,0,0,0.000000,6,0.000000,0.000000,0.105463,0,0,0,0,0,0,0
4,49999,27,40000,36,20000,40,9999,0.100000,0,0,0.000000,6,0.000000,0.000000,0.088753,0,0,0,0,0,0,0
4,49999,28,40000,94,10000,49,9999,0.100000,0,0,0.000000,6,2.000000,0.000000,7.836948,0,0,0,0,0,0,0
4,49999,29,40000,85,10000,40,9999,0.100000,0,0,0.000000,6,0.000000,0.000000,0.653817,0,0,0,0,0,0,0
4,49999,30,40000,14,0,40,9999,0.100000,0,0,0.000000,6,0.000000,0.000000,0.175919,0,0,0,0,0,0,0
4,49999,31,40000,36,20000,49,9999,0.100000,0,0,0.000000,6,1.000000,0.000000,1.853874,0,0,0,0,0,0,0
4,49999,32,40000,1,0,40,9999,0.100000,0,0,0.000000,6,0.000000,0.000000,0.450292,0,0,0,0,0,0,0
4,49999,33,40000,85,10000,49,9999,0.100000,0,0,0.000000,6,1.000000,0.000000,1.765523,0,0,0,0,0,0,0
4,49999,34,40000,46,10000,40,9999,0.100000,0,0,0.000000,6,0.000000,0.000000,0.505137,0,0,0,0,0,0,0
4,49999,35,40000,1,0,49,9999,0.100000,0,0,0.000000,6,1.000000,0.000000,1.567705,0,0,0,0,0,0,0
4,49999,36,40000,46,10000,40,9999,0.100000,0,0,0.000000,6,0.000000,0.000000,0.215274,0,0,0,0,0,0,0
4,49999,37,40000,46,10000,40,9999,0.100000,0,0,0.000000,6,0.000000,0.000000,0.133452,0,0,0,0,0,0,0
4,49999,38,40000,46,10000,49,9999,0.100000,0,0,0.000000,6,1.000000,0.000000,2.740788,0,0,0,0,0,0,0
4,49999,39,40000,1,0,40,9999,0.100000,0,0,0.000000,6,0.000000,0.000000,0.130095,0,0,0,0,0,0,0
4,49999,40,40000,46,10000,40,9999,0.100000,0,0,0.000000,6,0.000000,0.000000,0.610614,0,0,0,0,0,0,0
4,49999,41,40000,85,10000,40,9999,0.100000,0,0,0.000000,6,0.000000,0.000000,0.102213,0,0,0,0,0,0,0
4,49999,42,40000,1,0,40,9999,0.100000,0,0,0.000000,6,0.000000,0.000000,0.563986,0,0,0,0,0,0,0
4,49999,43,40000,46,10000,49,9999,0.100000,0,0,0.000000,6,5.000000,0.000000,6.912801,0,0,0,0,0,0,0
4,49999,44,40000,36,20000,40,9999,0.100000,0,0,0.000000,6,0.000000,0.000000,0.300843,0,0,0,0,0,0,0
4,49999,45,40000,46,10000,40,9999,0.100000,0,0,0.000000,6,0.000000,0.000000,0.132644,0,0,0,0,0,0,0
4,49999,46,40000,14,0,40,9999,0.100000,0,0,0.000000,6,0.000000,0.000000,1.434361,0,0,0,0,0,0,0
4,49999,47,40000,36,20000,40,9999,0.100000,0,0,0.000000,6,0.000000,0.000000,3.629718,0,0,0,0,0,0,0
4,49999,48,40000,14,0,40,9999,0.100000,0,0,0.000000,6,0.000000,0.000000,0.454487,0,0,0,0,0,0,0
4,49999,49,40000,36,20000,40,9999,0.100000,0,0,0.000000,6,0.000000,0.000000,0.582510,0,0,0,0,0,0,0
4,49999,50,40000,85,10000,40,9999,0.100000,0,0,0.000000,6,0.000000,0.000000,0.162367,0,0,0,0,0,0,0
4,49999,51,40000,14,0,49,9999,0.100000,0,0,0.000000,6,1.000000,0.000000,1.764078,0,0,0,0,0,0,0
4,49999,52,40000,46,10000,40,9999,0.100000,0,0,0.000000,6,0.000000,0.000000,0.112177,0,0,0,0,0,0,0
4,49999,53,40000,36,20000,40,9999,0.100000,0,0,0.000000,6,0.000000,0.000000,0.747543,0,0,0,0,0,0,0
4,49999,54,40000,14,0,40,9999,0.100000,0,0,0.000000,6,0.000000,0.000000,0.446963,0,0,0,0,0,0,0
4,49999,55,40000,94,10000,40,9999,0.100000,0,0,0.000000,6,0.000000,0.000000,0.791686,0,0,0,0,0,0,0
4,49999,56,40000,94,10000,40,9999,0.100000,0,0,0.000000,6,0.000000,0.000000,0.132431,0,0,0,0,0,0,0
4,49999,57,40000,36,20000,40,9999,0.100000,0,0,0.000000,6,0.000000,0.000000,0.137100,0,0,0,0,0,0,0
4,49999,58,40000,94,10000,40,9999,0.100000,0,0,0.000000,6,0.000000,0.000000,0.139195,0,0,0,0,0,0,0
4,49999,59,40000,36,20000,40,9999,0.100000,0,0,0.000000,6,0.000000,0.000000,0.082460,0,0,0,0,0,0,0
4,49999,60,40000,36,20000,49,9999,0.100000,0,0,0.000000,6,1.000000,0.000000,1.614162,0,0,0,0,0,0,0
4,49999,61,40000,14,0,49,9999,0.100000,0,0,0.000000,6,1.000000,0.000000,2.364975,0,0,0,0,0,0,0
4,49999,62,40000,94,10000,40,9999,0.100000,0,0,0.000000,6,0.000000,0.000000,0.217144,0,0,0,0,0,0,0
4,49999,63,40000,94,10000,49,9999,0.100000,0,0,0.000000,6,1.000000,0.000000,5.603487,0,0,0,0,0,0,0
4,49999,64,40000,94,10000,40,9999,0.100000,0,0,0.000000,6,0.000000,0.000000,0.147075,0,0,0,0,0,0,0
4,49999,65,40000,85,10000,40,9999,0.100000,0,0,0.000000,6,0.000000,0.000000,1.421992,0,0,0,0,0,0,0
4,49999,66,40000,1,0,40,9999,0.100000,0,0,0.000000,6,0.000000,0.000000,0.518422,0,0,0,0,0,0,0
4,49999,67,40000,94,10000,40,9999,0.100000,0,0,0.000000,6,0.000000,0.000000,0.307819,0,0,0,0,0,0,0
4,49999,68,40000,94,10000,40,9999,0.100000,0,0,0.000000,6,0.000000,0.000000,0.228385,0,0,0,0,0,0,0
4,49999,69,40000,36,20000,49,9999,0.100000,0,0,0.000000,6,7.000000,0.000000,15.139995,0,0,0,0,0,0,0
4,49999,70,40000,14,0,40,9999,0.100000,0,0,0.000000,6,0.000000,0.000000,0.081384,0,0,0,0,0,0,0
4,49999,71,40000,36,20000,40,9999,0.100000,0,0,0.000000,6,0.000000,0.000000,0.087313,0,0,0,0,0,0,0
4,49999,72,40000,14,0,40,9999,0.100000,0,0,0.000000,6,0.000000,0.000000,3.845403,0,0,0,0,0,0,0
4,49999,73,40000,94,10000,40,9999,0.100000,0,0,0.000000,6,0.000000,0.000000,0.394942,0,0,0,0,0,0,0
4,49999,74,40000,36,20000,40,9999,0.100000,0,0,0.000000,6,0.000000,0.000000,1.963378,0,0,0,0,0,0,0
4,49999,75,40000,14,0,49,9999,0.100000,0,0,0.000000,6,1.000000,0.000000,1.147883,0,0,0,0,0,0,0
4,49999,76,40000,36,20000,49,9999,0.100000,0,0,0.000000,6,1.000000,0.000000,9.205323,0,0,0,0,0,0,0
4,49999,77,40000,1,0,40,9999,0.100000,0,0,0.000000,6,0.000000,0.000000,0.097283,0,0,0,0,0,0,0
4,49999,78,40000,85,10000,40,9999,0.100000,0,0,0.000000,6,0.000000,0.000000,0.302245,0,0,0,0,0,0,0
4,49999,79,40000,85,10000,40,9999,0.100000,0,0,0.000000,6,0.000000,0.000000,0.396173,0,0,0,0,0,0,0
4,49999,80,40000,14,0,49,9999,0.100000,0,0,0.000000,6,1.000000,0.000000,1.588357,0,0,0,0,0,0,0
4,49999,81,40000,85,10000,49,9999,0.100000,0,0,0.000000,6,9.000000,0.000000,18.727603,0,0,0,0,0,0,0
4,49999,82,40000,94,10000,40,9999,0.100000,0,0,0.000000,6,0.000000,0.000000,0.097923,0,0,0,0,0,0,0
4,49999,83,40000,36,20000,40,9999,0.100000,0,0,0.000000,6,0.000000,0.000000,0.138511,0,0,0,0,0,0,0
4,49999,84,40000,1,0,40,9999,0.100000,0,0,0.000000,6,0.000000,0.000000,1.083899,0,0,0,0,0,0,0
4,49999,85,40000,85,10000,40,9999,0.100000,0,0,0.000000,6,0.000000,0.000000,0.091479,0,0,0,0,0,0,0
4,49999,86,40000,1,0,40,9999,0.100000,0,0,0.000000,6,0.000000,0.000000,0.407450,0,0,0,0,0,0,0
4,49999,87,40000,85,10000,40,9999,0.100000,0,0,0.000000,6,0.000000,0.000000,23.878678,0,0,0,0,0,0,0
4,49999,88,40000,1,0,49,9999,0.100000,0,0,0.000000,6,1.000000,0.000000,8.101438,0,0,0,0,0,0,0
4,49999,89,40000,85,10000,49,9999,0.100000,0,0,0.000000,6,2.000000,0.000000,5.133344,0,0,0,0,0,0,0
4,49999,90,40000,1,0,49,9999,0.100000,0,0,0.000000,6,1.000000,0.000000,4.211096,0,0,0,0,0,0,0
4,49999,91,40000,1,0,40,9999,0.100000,0,0,0.000000,6,0.000000,0.000000,0.649113,0,0,0,0,0,0,0
4,49999,92,40000,46,10000,49,9999,0.100000,0,0,0.000000,6,1.000000,0.000000,1.538119,0,0,0,0,0,0,0
4,49999,93,40000,36,20000,9,9999,0.100000,0,0,34.210526,6,6.000000,0.000000,11.160950,0,0,0,1,0,0,0
4,49999,94,40000,85,10000,40,9999,0.100000,0,0,0.000000,6,0.000000,0.000000,0.170657,0,0,0,0,0,0,0
4,49999,95,40000,14,0,40,9999,0.100000,0,0,0.000000,6,0.000000,0.000000,2.007663,0,0,0,0,0,0,0
4,49999,96,40000,94,10000,49,9999,0.100000,0,0,0.000000,6,4.000000,0.000000,5.698640,0,0,0,0,0,0,0
4,49999,97,40000,85,10000,49,9999,0.100000,0,0,0.000000,6,6.000000,0.000000,27.336600,0,0,0,0,0,0,0
4,49999,98,40000,36,20000,40,9999,0.100000,0,0,0.000000,6,0.000000,0.000000,0.099923,0,0,0,0,0,0,0
4,49999,99,40000,46,10000,40,9999,0.100000,0,0,0.000000,6,0.000000,0.000000,0.219127,0,0,0,0,0,0,0
5,59999,0,50000,94,10000,40,9999,0.100000,0,0,0.000000,6,0.000000,0.000000,0.092202,0,0,0,0,0,0,0
5,59999,1,50000,85,10000,49,9999,0.100000,0,0,0.000000,6,1.000000,0.000000,6.013890,0,0,0,0,0,0,0
5,59999,2,50000,85,10000,40,9999,0.100000,0,0,0.000000,6,0.000000,0.000000,1.321646,0,0,0,0,0,0,0
5,59999,3,50000,14,0,40,9999,0.100000,0,0,0.000000,6,0.000000,0.000000,2.615913,0,0,0,0,0,0,0
5,59999,4,50000,85,10000,40,9999,0.100000,0,0,0.000000,6,0.000000,0.000000,0.374826,0,0,0,0,0,0,0
5,59999,5,50000,1,0,40,9999,0.100000,0,0,0.000000,6,0.000000,0.000000,3.437447,0,0,0,0,0,0,0
5,59999,6,50000,36,20000,40,9999,0.100000,0,0,0.000000,6,0.000000,0.000000,0.152296,0,0,0,0,0,0,0
5,59999,7,50000,94,10000,40,9999,0.100000,0,0,0.000000,6,0.000000,0.000000,0.115038,0,0,0,0,0,0,0
5,59999,8,50000,94,10000,40,9999,0.100000,0,0,0.000000,6,0.000000,0.000000,0.092598,0,0,0,0,0,0,0
5,59999,9,50000,85,10000,40,9999,0.100000,0,0,0.000000,6,0.000000,0.000000,1.640247,0,0,0,0,0,0,0
5,59999,10,50000,36,20000,40,9999,0.100000,0,0,0.000000,6,0.000000,0.000000,7.968029,0,0,0,0,0,0,0
5,59999,11,50000,1,0,40,9999,0.100000,0,0,0.000000,6,0.000000,0.000000,10.886465,0,0,0,0,0,0,0
5,59999,12,50000,1,0,40,9999,0.100000,0,0,0.000000,6,0.000000,0.000000,0.226564,0,0,0,0,0,0,0
5,59999,13,50000,94,10000,40,9999,0.100000,0,0,0.000000,6,0.000000,0.000000,0.212676,0,0,0,0,0,0,0
5,59999,14,50000,36,20000,49,9999,0.100000,0,0,0.000000,6,1.000000,0.000000,2.560576,0,0,0,0,0,0,0
5,59999,15,50000,1,0,40,9999,0.100000,0,0,0.000000,6,0.000000,0.000000,0.601153,0,0,0,0,0,0,0
5,59999,16,50000,36,20000,40,9999,0.100000,0,0,0.000000,6,0.000000,0.000000,0.747703,0,0,0,0,0,0,0
5,59999,17,50000,94,10000,49,9999,0.100000,0,0,0.000000,6,1.000000,0.000000,8.978878,0,0,0,0,0,0,0
5,59999,18,50000,46,10000,40,9999,0.100000,0,0,0.000000,6,0.000000,0.000000,0.101973,0,0,0,0,0,0,0
5,59999,19,50000,36,20000,40,9999,0.100000,0,0,0.000000,6,0.000000,0.000000,0.868725,0,0,0,0,0,0,0
5,59999,20,50000,14,0,40,9999,0.100000,0,0,0.000000,6,0.000000,0.000000,0.640503,0,0,0,0,0,0,0
5,59999,21,50000,36,20000,40,9999,0.100000,0,0,0.000000,6,0.000000,0.000000,0.392185,0,0,0,0,0,0,0
5,59999,22,50000,14,0,40,9999,0.100000,0,0,0.000000,6,0.000000,0.000000,0.560249,0,0,0,0,0,0,0
5,59999,23,50000,46,10000,40,9999,0.100000,0,0,0.000000,6,0.000000,0.000000,0.382171,0,0,0,0,0,0,0
5,59999,24,50000,36,20000,40,9999,0.100000,0,0,0.000000,6,0.000000,0.000000,0.082120,0,0,0,0,0,0,0
5,59999,25,50000,1,0,40,9999,0.100000,0,0,0.000000,6,0.000000,0.000000,0.089223,0,0,0,0,0,0,0
5,59999,26,50000,46,10000,40,9999,0.100000,0,0,0.000000,6,0.000000,0.000000,0.089818,0,0,0,0,0,0,0
5,59999,27,50000,1,0,40,9999,0.100000,0,0,0.000000,6,0.000000,0.000000,0.088057,0,0,0,0,0,0,0
5,59999,28,50000,14,0,40,9999,0.100000,0,0,0.000000,6,0.000000,0.000000,3.001162,0,0,0,0,0,0,0
5,59999,29,50000,85,10000,40,9999,0.100000,0,0,0.000000,6,0.000000,0.000000,0.418417,0,0,0,0,0,0,0
5,59999,30,50000,14,0,40,9999,0.100000,0,0,0.000000,6,0.000000,0.000000,0.173621,0,0,0,0,0,0,0
5,59999,31,50000,1,0,49,9999,0.100000,0,0,0.000000,6,1.000000,0.000000,1.720898,0,0,0,0,0,0,0
5,59999,32,50000,94,10000,40,9999,0.100000,0,0,0.000000,6,0.000000,0.000000,0.358765,0,0,0,0,0,0,0
5,59999,33,50000,94,10000,49,9999,0.100000,0,0,0.000000,6,1.000000,0.000000,1.544017,0,0,0,0,0,0,0
5,59999,34,50000,46,10000,40,9999,0.100000,0,0,0.000000,6,0.000000,0.000000,0.306168,0,0,0,0,0,0,0
5,59999,35,50000,36,20000,49,9999,0.100000,0,0,0.000000,6,1.000000,0.000000,1.447637,0,0,0,0,0,0,0
5,59999,36,50000,1,0,40,9999,0.100000,0,0,0.000000,6,0.000000,0.000000,0.234358,0,0,0,0,0,0,0
5,59999,37,50000,14,0,40,9999,0.100000,0,0,0.000000,6,0.000000,0.000000,0.133828,0,0,0,0,0,0,0
5,59999,38,50000,1,0,40,9999,0.100000,0,0,0.000000,6,0.000000,0.000000,0.228917,0,0,0,0,0,0,0
5,59999,39,50000,36,20000,40,9999,0.100000,0,0,0.000000,6,0.000000,0.000000,0.095600,0,0,0,0,0,0,0
5,59999,40,50000,14,0,40,9999,0.100000,0,0,0.000000,6,0.000000,0.000000,0.628318,0,0,0,0,0,0,0
5,59999,41,50000,46,10000,40,9999,0.100000,0,0,0.000000,6,0.000000,0.000000,0.100533,0,0,0,0,0,0,0
5,59999,42,50000,36,20000,40,9999,0.100000,0,0,0.000000,6,0.000000,0.000000,0.561872,0,0,0,0,0,0,0
5,59999,43,50000,36,20000,40,9999,0.100000,0,0,0.000000,6,0.000000,0.000000,0.235819,0,0,0,0,0,0,0
5,59999,44,50000,94,10000,49,9999,0.100000,0,0,0.000000,6,1.000000,0.000000,3.430299,0,0,0,0,0,0,0
5,59999,45,50000,36,20000,40,9999,0.100000,0,0,0.000000,6,0.000000,0.000000,0.111306,0,0,0,0,0,0,0
5,59999,46,50000,46,10000,40,9999,0.100000,0,0,0.000000,6,0.000000,0.000000,1.542786,0,0,0,0,0,0,0
5,59999,47,50000,85,10000,40,9999,0.100000,0,0,0.000000,6,0.000000,0.000000,2.018504,0,0,0,0,0,0,0
5,59999,48,50000,14,0,40,9999,0.100000,0,0,0.000000,6,0.000000,0.000000,0.859875,0,0,0,0,0,0,0
5,59999,49,50000,14,0,40,9999,0.100000,0,0,0.000000,6,0.000000,0.000000,1.034717,0,0,0,0,0,0,0
5,59999,50,50000,36,20000,40,9999,0.100000,0,0,0.000000,6,0.000000,0.000000,0.157461,0,0,0,0,0,0,0
5,59999,51,50000,46,10000,49,9999,0.100000,0,0,0.000000,6,1.000000,0.000000,1.180262,0,0,0,0,0,0,0
5,59999,52,50000,94,10000,40,9999,0.100000,0,0,0.000000,6,0.000000,0.000000,0.130360,0,0,0,0,0,0,0
5,59999,53,50000,14,0,40,9999,0.100000,0,0,0.000000,6,0.000000,0.000000,0.434435,0,0,0,0,0,0,0
5,59999,54,50000,46,10000,40,9999,0.100000,0,0,0.000000,6,0.000000,0.000000,0.277208,0,0,0,0,0,0,0
5,59999,55,50000,94,10000,40,9999,0.100000,0,0,0.000000,6,0.000000,0.000000,0.472128,0,0,0,0,0,0,0
5,59999,56,50000,85,10000,40,9999,0.100000,0,0,0.000000,6,0.000000,0.000000,0.145175,0,0,0,0,0,0,0
5,59999,57,50000,14,0,40,9999,0.100000,0,0,0.000000,6,0.000000,0.000000,0.109498,0,0,0,0,0,0,0
5,59999,58,50000,36,20000,40,9999,0.100000,0,0,0.000000,6,0.000000,0.000000,0.394996,0,0,0,0,0,0,0
5,59999,59,50000,1,0,40,9999,0.100000,0,0,0.000000,6,0.000000,0.000000,0.082246,0,0,0,0,0,0,0
5,59999,60,50000,14,0,40,9999,0.100000,0,0,0.000000,6,0.000000,0.000000,2.839026,0,0,0,0,0,0,0
5,59999,61,50000,14,0,49,9999,0.100000,0,0,0.000000,6,9.000000,0.000000,12.567586,0,0,0,0,0,0,0
5,59999,62,50000,14,0,40,9999,0.100000,0,0,0.000000,6,0.000000,0.000000,0.168286,0,0,0,0,0,0,0
5,59999,63,50000,94,10000,49,9999,0.100000,0,0,0.000000,6,1.000000,0.000000,3.327366,0,0,0,0,0,0,0
5,59999,64,50000,85,10000,40,9999,0.100000,0,0,0.000000,6,0.000000,0.000000,0.084171,0,0,0,0,0,0,0
5,59999,65,50000,85,10000,49,9999,0.100000,0,0,0.000000,6,2.000000,0.000000,4.735859,0,0,0,0,0,0,0
5,59999,66,50000,85,10000,40,9999,0.100000,0,0,0.000000,6,0.000000,0.000000,0.446095,0,0,0,0,0,0,0
5,59999,67,50000,94,10000,40,9999,0.100000,0,0,0.000000,6,0.000000,0.000000,1.703634,0,0,0,0,0,0,0
5,59999,68,50000,1,0,40,9999,0.100000,0,0,0.000000,6,0.000000,0.000000,0.221207,0,0,0,0,0,0,0
5,59999,69,50000,14,0,40,9999,0.100000,0,0,0.000000,6,0.000000,0.000000,0.097326,0,0,0,0,0,0,0
5,59999,70,50000,46,10000,40,9999,0.100000,0,0,0.000000,6,0.000000,0.000000,0.097971,0,0,0,0,0,0,0
5,59999,71,50000,14,0,40,9999,0.100000,0,0,0.000000,6,0.000000,0.000000,0.086564,0,0,0,0,0,0,0
5,59999,72,50000,85,10000,40,9999,0.100000,0,0,0.000000,6,0.000000,0.000000,5.218594,0,0,0,0,0,0,0
5,59999,73,50000,94,10000,40,9999,0.100000,0,0,0.000000,6,0.000000,0.000000,0.481517,0,0,0,0,0,0,0
5,59999,74,50000,46,10000,40,9999,0.100000,0,0,0.000000,6,0.000000,0.000000,1.331813,0,0,0,0,0,0,0
5,59999,75,50000,85,10000,40,9999,0.135000,0,0,0.000000,6,0.000000,0.000000,0.666014,0,0,0,0,0,0,0
5,59999,76,50000,85,10000,49,9999,0.100000,0,0,0.000000,6,1.000000,0.000000,8.790668,0,0,0,0,0,0,0
5,59999,77,50000,85,10000,40,9999,0.100000,0,0,0.000000,6,0.000000,0.000000,0.098315,0,0,0,0,0,0,0
5,59999,78,50000,85,10000,40,9999,0.100000,0,0,0.000000,6,0.000000,0.000000,0.274693,0,0,0,0,0,0,0
5,59999,79,50000,46,10000,49,9999,0.100000,0,0,0.000000,6,3.000000,0.000000,8.119529,0,0,0,0,0,0,0
5,59999,80,50000,14,0,49,9999,0.100000,0,0,0.000000,6,1.000000,0.000000,1.271938,0,0,0,0,0,0,0
5,59999,81,50000,46,10000,40,9999,0.100000,0,0,0.000000,6,0.000000,0.000000,1.302549,0,0,0,0,0,0,0
5,59999,82,50000,36,20000,40,9999,0.100000,0,0,0.000000,6,0.000000,0.000000,0.231900,0,0,0,0,0,0,0
5,59999,83,50000,14,0,40,9999,0.100000,0,0,0.000000,6,0.000000,0.000000,0.111450,0,0,0,0,0,0,0
5,59999,84,50000,85,10000,40,9999,0.100000,0,0,0.000000,6,0.000000,0.000000,1.007693,0,0,0,0,0,0,0
5,59999,85,50000,14,0,40,9999,0.100000,0,0,0.000000,6,0.000000,0.000000,0.090807,0,0,0,0,0,0,0
5,59999,86,50000,36,20000,40,9999,0.100000,0,0,0.000000,6,0.000000,0.000000,0.287520,0,0,0,0,0,0,0
5,59999,87,50000,94,10000,40,9999,0.100000,0,0,0.000000,6,0.000000,0.000000,23.894351,0,0,0,0,0,0,0
5,59999,88,50000,46,10000,40,9999,0.100000,0,0,0.000000,6,0.000000,0.000000,0.967815,0,0,0,0,0,0,0
5,59999,89,50000,1,0,40,9999,0.100000,0,0,0.000000,6,0.000000,0.000000,0.790889,0,0,0,0,0,0,0
5,59999,90,50000,94,10000,49,9999,0.100000,0,0,0.000000,6,1.000000,0.000000,7.162486,0,0,0,0,0,0,0
5,59999,91,50000,36,20000,40,9999,0.100000,0,0,0.000000,6,0.000000,0.000000,0.611402,0,0,0,0,0,0,0
5,59999,92,50000,14,0,49,9999,0.100000,0,0,0.000000,6,1.000000,0.000000,1.481607,0,0,0,0,0,0,0
5,59999,93,50000,1,0,49,9999,0.100000,0,0,0.000000,6,3.000000,0.000000,7.115130,0,0,0,0,0,0,0
5,59999,94,50000,85,10000,40,9999,0.100000,0,0,0.000000,6,0.000000,0.000000,0.080106,0,0,0,0,0,0,0
5,59999,95,50000,1,0,40,9999,0.100000,0,0,0.000000,6,0.000000,0.000000,3.523219,0,0,0,0,0,0,0
5,59999,96,50000,1,0,40,9999,0.100000,0,0,0.000000,6,0.000000,0.000000,0.236262,0,0,0,0,0,0,0
5,59999,97,50000,1,0,49,9999,0.100000,0,0,0.000000,6,6.000000,0.000000,13.929266,0,0,0,0,0,0,0
5,59999,98,50000,1,0,49,9999,0.100000,0,0,0.000000,6,9.000000,0.000000,18.479745,0,0,0,0,0,0,0
5,59999,99,50000,14,0,40,9999,0.100000,0,0,0.000000,6,0.000000,0.000000,0.211713,0,0,0,0,0,0,0
6,69999,0,60000,1,0,40,9999,0.100000,0,0,0.000000,6,0.000000,0.000000,0.091583,0,0,0,0,0,0,0
6,69999,1,60000,36,20000,49,9999,0.100000,0,0,0.000000,6,1.000000,0.000000,10.196322,0,0,0,0,0,0,0
6,69999,2,60000,1,0,40,9999,0.100000,0,0,0.000000,6,0.000000,0.000000,0.348859,0,0,0,0,0,0,0
6,69999,3,60000,14,0,40,9999,0.100000,0,0,0.000000,6,0.000000,0.000000,1.550684,0,0,0,0,0,0,0
6,69999,4,60000,85,10000,40,9999,0.100000,0,0,0.000000,6,0.000000,0.000000,0.566352,0,0,0,0,0,0,0
6,69999,5,60000,94,10000,40,9999,0.100000,0,0,0.000000,6,0.000000,0.000000,1.684996,0,0,0,0,0,0,0
6,69999,6,60000,85,10000,40,9999,0.100000,0,0,0.000000,6,0.000000,0.000000,0.129567,0,0,0,0,0,0,0
6,69999,7,60000,46,10000,40,9999,0.100000,0,0,0.000000,6,0.000000,0.000000,0.105917,0,0,0,0,0,0,0
6,69999,8,60000,94,10000,40,9999,0.100000,0,0,0.000000,6,0.000000,0.000000,0.090952,0,0,0,0,0,0,0
6,69999,9,60000,1,0,40,9999,0.100000,0,0,0.000000,6,0.000000,0.000000,0.734327,0,0,0,0,0,0,0
6,69999,10,60000,94,10000,40,9999,0.100000,0,0,0.000000,6,0.000000,0.000000,1.686483,0,0,0,0,0,0,0
6,69999,11,60000,94,10000,40,9999,0.100000,0,0,0.000000,6,0.000000,0.000000,0.089918,0,0,0,0,0,0,0
6,69999,12,60000,94,10000,40,9999,0.100000,0,0,0.000000,6,0.000000,0.000000,0.202824,0,0,0,0,0,0,0
6,69999,13,60000,14,0,40,9999,0.100000,0,0,0.000000,6,0.000000,0.000000,1.171605,0,0,0,0,0,0,0
6,69999,14,60000,1,0,40,9999,0.100000,0,0,0.000000,6,0.000000,0.000000,0.091394,0,0,0,0,0,0,0
6,69999,15,60000,94,10000,40,9999,0.100000,0,0,0.000000,6,0.000000,0.000000,0.463970,0,0,0,0,0,0,0
6,69999,16,60000,14,0,40,9999,0.100000,0,0,0.000000,6,0.000000,0.000000,0.366156,0,0,0,0,0,0,0
6,69999,17,60000,85,10000,49,9999,0.100000,0,0,0.000000,6,3.000000,0.000000,7.262644,0,0,0,0,0,0,0
6,69999,18,60000,14,0,40,9999,0.100000,0,0,0.000000,6,0.000000,0.000000,0.079351,0,0,0,0,0,0,0
6,69999,19,60000,1,0,40,9999,0.100000,0,0,0.000000,6,0.000000,0.000000,0.181860,0,0,0,0,0,0,0
6,69999,20,60000,14,0,40,9999,0.100000,0,0,0.000000,6,0.000000,0.000000,0.348067,0,0,0,0,0,0,0
6,69999,21,60000,94,10000,40,9999,0.100000,0,0,0.000000,6,0.000000,0.000000,0.305037,0,0,0,0,0,0,0
6,69999,22,60000,46,10000,40,9999,0.100000,0,0,0.000000,6,0.000000,0.000000,0.696180,0,0,0,0,0,0,0
6,69999,23,60000,36,20000,40,9999,0.100000,0,0,0.000000,6,0.000000,0.000000,0.513237,0,0,0,0,0,0,0
6,69999,24,60000,85,10000,40,9999,0.100000,0,0,0.000000,6,0.000000,0.000000,0.081324,0,0,0,0,0,0,0
6,69999,25,60000,14,0,40,9999,0.100000,0,0,0.000000,6,0.000000,0.000000,0.085581,0,0,0,0,0,0,0
6,69999,26,60000,94,10000,40,9999,0.100000,0,0,0.000000,6,0.000000,0.000000,0.082769,0,0,0,0,0,0,0
6,69999,27,60000,85,10000,40,9999,0.100000,0,0,0.000000,6,0.000000,0.000000,0.086827,0,0,0,0,0,0,0
6,69999,28,60000,85,10000,49,9999,0.100000,0,0,0.000000,6,9.000000,0.000000,22.160294,0,0,0,0,0,0,0
6,69999,29,60000,85,10000,40,9999,0.100000,0,0,0.000000,6,0.000000,0.000000,0.565920,0,0,0,0,0,0,0
6,69999,30,60000,1,0,40,9999,0.100000,0,0,0.000000,6,0.000000,0.000000,0.167101,0,0,0,0,0,0,0
6,69999,31,60000,46,10000,49,9999,0.100000,0,0,0.000000,6,1.000000,0.000000,2.410770,0,0,0,0,0,0,0
6,69999,32,60000,85,10000,40,9999,0.100000,0,0,0.000000,6,0.000000,0.000000,0.625072,0,0,0,0,0,0,0
6,69999,33,60000,94,10000,49,9999,0.100000,0,0,0.000000,6,1.000000,0.000000,2.173599,0,0,0,0,0,0,0
6,69999,34,60000,85,10000,49,9999,0.100000,0,0,0.000000,6,3.000000,0.000000,5.281179,0,0,0,0,0,0,0
6,69999,35,60000,85,10000,49,9999,0.100000,0,0,0.000000,6,1.000000,0.000000,1.970463,0,0,0,0,0,0,0
6,69999,36,60000,36,20000,40,9999,0.100000,0,0,0.000000,6,0.000000,0.000000,0.172744,0,0,0,0,0,0,0
6,69999,37,60000,94,10000,40,9999,0.100000,0,0,0.000000,6,0.000000,0.000000,0.137461,0,0,0,0,0,0,0
6,69999,38,60000,36,20000,40,9999,0.100000,0,0,0.000000,6,0.000000,0.000000,0.267146,0,0,0,0,0,0,0
6,69999,39,60000,85,10000,40,9999,0.100000,0,0,0.000000,6,0.000000,0.000000,0.078275,0,0,0,0,0,0,0
6,69999,40,60000,46,10000,40,9999,0.100000,0,0,0.000000,6,0.000000,0.000000,0.613246,0,0,0,0,0,0,0
6,69999,41,60000,14,0,40,9999,0.100000,0,0,0.000000,6,0.000000,0.000000,0.102420,0,0,0,0,0,0,0
6,69999,42,60000,14,0,40,9999,0.100000,0,0,0.000000,6,0.000000,0.000000,0.498827,0,0,0,0,0,0,0
6,69999,43,60000,94,10000,40,9999,0.100000,0,0,0.000000,6,0.000000,0.000000,0.236948,0,0,0,0,0,0,0
6,69999,44,60000,94,10000,40,9999,0.100000,0,0,0.000000,6,0.000000,0.000000,0.647014,0,0,0,0,0,0,0
6,69999,45,60000,1,0,40,9999,0.100000,0,0,0.000000,6,0.000000,0.000000,0.107576,0,0,0,0,0,0,0
6,69999,46,60000,46,10000,40,9999,0.100000,0,0,0.000000,6,0.000000,0.000000,4.074670,0,0,0,0,0,0,0
6,69999,47,60000,14,0,49,9999,0.100000,0,0,0.000000,6,1.000000,0.000000,1.534055,0,0,0,0,0,0,0
6,69999,48,60000,36,20000,49,9999,0.100000,0,0,0.000000,6,8.000000,0.000000,17.361020,0,0,0,0,0,0,0
6,69999,49,60000,46,10000,49,9999,0.100000,0,0,0.000000,6,1.000000,0.000000,2.995631,0,0,0,0,0,0,0
6,69999,50,60000,36,20000,40,9999,0.100000,0,0,0.000000,6,0.000000,0.000000,0.154621,0,0,0,0,0,0,0
6,69999,51,60000,1,0,49,9999,0.100000,0,0,0.000000,6,1.000000,0.000000,2.050086,0,0,0,0,0,0,0
6,69999,52,60000,14,0,40,9999,0.100000,0,0,0.000000,6,0.000000,0.000000,0.106727,0,0,0,0,0,0,0
6,69999,53,60000,46,10000,49,9999,0.100000,0,0,0.000000,6,3.000000,0.000000,4.805548,0,0,0,0,0,0,0
6,69999,54,60000,85,10000,40,9999,0.100000,0,0,0.000000,6,0.000000,0.000000,0.209268,0,0,0,0,0,0,0
6,69999,55,60000,36,20000,49,9999,0.100000,0,0,0.000000,6,1.000000,0.000000,1.257961,0,0,0,0,0,0,0
6,69999,56,60000,85,10000,40,9999,0.100000,0,0,0.000000,6,0.000000,0.000000,0.132024,0,0,0,0,0,0,0
6,69999,57,60000,85,10000,40,9999,0.100000,0,0,0.000000,6,0.000000,0.000000,0.133918,0,0,0,0,0,0,0
6,69999,58,60000,36,20000,40,9999,0.100000,0,0,0.000000,6,0.000000,0.000000,0.124352,0,0,0,0,0,0,0
6,69999,59,60000,85,10000,40,9999,0.100000,0,0,0.000000,6,0.000000,0.000000,0.083288,0,0,0,0,0,0,0
6,69999,60,60000,46,10000,40,9999,0.100000,0,0,0.000000,6,0.000000,0.000000,2.576869,0,0,0,0,0,0,0
6,69999,61,60000,46,10000,40,9999,0.100000,0,0,0.000000,6,0.000000,0.000000,0.963068,0,0,0,0,0,0,0
6,69999,62,60000,46,10000,40,9999,0.100000,0,0,0.000000,6,0.000000,0.000000,0.123457,0,0,0,0,0,0,0
6,69999,63,60000,1,0,40,9999,0.100000,0,0,0.000000,6,0.000000,0.000000,0.518378,0,0,0,0,0,0,0
6,69999,64,60000,14,0,40,9999,0.100000,0,0,0.000000,6,0.000000,0.000000,0.086367,0,0,0,0,0,0,0
6,69999,65,60000,85,10000,40,9999,0.100000,0,0,0.000000,6,0.000000,0.000000,0.077845,0,0,0,0,0,0,0
6,69999,66,60000,36,20000,40,9999,0.100000,0,0,0.000000,6,0.000000,0.000000,0.401181,0,0,0,0,0,0,0
6,69999,67,60000,14,0,40,9999,0.100000,0,0,0.000000,6,0.000000,0.000000,3.537658,0,0,0,0,0,0,0
6,69999,68,60000,85,10000,40,9999,0.100000,0,0,0.000000,6,0.000000,0.000000,0.237349,0,0,0,0,0,0,0
6,69999,69,60000,94,10000,49,9999,0.100000,0,0,0.000000,6,7.000000,0.000000,30.181545,0,0,0,0,0,0,0
6,69999,70,60000,36,20000,40,9999,0.100000,0,0,0.000000,6,0.000000,0.000000,0.123114,0,0,0,0,0,0,0
6,69999,71,60000,94,10000,49,9999,0.100000,0,0,0.000000,6,1.000000,0.000000,2.860410,0,0,0,0,0,0,0
6,69999,72,60000,1,0,40,9999,0.100000,0,0,0.000000,6,0.000000,0.000000,2.676583,0,0,0,0,0,0,0
6,69999,73,60000,94,10000,49,9999,0.100000,0,0,0.000000,6,4.000000,0.000000,11.547582,0,0,0,0,0,0,0
6,69999,74,60000,46,10000,40,9999,0.100000,0,0,0.000000,6,0.000000,0.000000,1.410275,0,0,0,0,0,0,0
6,69999,75,60000,1,0,49,9999,0.100000,0,0,0.000000,6,3.000000,0.000000,5.538836,0,0,0,0,0,0,0
6,69999,76,60000,1,0,49,9999,0.100000,0,0,0.000000,6,1.000000,0.000000,11.333361,0,0,0,0,0,0,0
6,69999,77,60000,94,10000,40,9999,0.100000,0,0,0.000000,6,0.000000,0.000000,0.095407,0,0,0,0,0,0,0
6,69999,78,60000,94,10000,40,9999,0.100000,0,0,0.000000,6,0.000000,0.000000,1.004178,0,0,0,0,0,0,0
6,69999,79,60000,1,0,40,9999,0.100000,0,0,0.000000,6,0.000000,0.000000,0.249346,0,0,0,0,0,0,0
6,69999,80,60000,94,10000,49,9999,0.100000,0,0,0.000000,6,1.000000,0.000000,1.978453,0,0,0,0,0,0,0
6,69999,81,60000,14,0,40,9999,0.100000,0,0,0.000000,6,0.000000,0.000000,0.644883,0,0,0,0,0,0,0
6,69999,82,60000,14,0,40,9999,0.100000,0,0,0.000000,6,0.000000,0.000000,0.246264,0,0,0,0,0,0,0
6,69999,83,60000,46,10000,40,9999,0.100000,0,0,0.000000,6,0.000000,0.000000,0.112130,0,0,0,0,0,0,0
6,69999,84,60000,14,0,40,9999,0.100000,0,0,0.000000,6,0.000000,0.000000,1.010490,0,0,0,0,0,0,0
6,69999,85,60000,46,10000,40,9999,0.100000,0,0,0.000000,6,0.000000,0.000000,0.091679,0,0,0,0,0,0,0
6,69999,86,60000,85,10000,40,9999,0.100000,0,0,0.000000,6,0.000000,0.000000,0.244814,0,0,0,0,0,0,0
6,69999,87,60000,14,0,40,9999,0.100000,0,0,0.000000,6,0.000000,0.000000,23.918522,0,0,0,0,0,0,0
6,69999,88,60000,94,10000,40,9999,0.100000,0,0,0.000000,6,0.000000,0.000000,1.203485,0,0,0,0,0,0,0
6,69999,89,60000,1,0,49,9999,0.100000,0,0,0.000000,6,2.000000,0.000000,5.781963,0,0,0,0,0,0,0
6,69999,90,60000,14,0,49,9999,0.100000,0,0,0.000000,6,1.000000,0.000000,1.672655,0,0,0,0,0,0,0
6,69999,91,60000,46,10000,49,9999,0.100000,0,0,0.000000,6,2.000000,0.000000,2.475764,0,0,0,0,0,0,0
6,69999,92,60000,1,0,49,9999,0.100000,0,0,0.000000,6,2.000000,0.000000,2.437820,0,0,0,0,0,0,0
6,69999,93,60000,46,10000,49,9999,0.100000,0,0,0.000000,6,2.000000,0.000000,9.108010,0,0,0,0,0,0,0
6,69999,94,60000,1,0,40,9999,0.100000,0,0,0.000000,6,0.000000,0.000000,0.082271,0,0,0,0,0,0,0
6,69999,95,60000,14,0,40,9999,0.100000,0,0,0.000000,6,0.000000,0.000000,1.395006,0,0,0,0,0,0,0
6,69999,96,60000,46,10000,40,9999,0.100000,0,0,0.000000,6,0.000000,0.000000,0.234764,0,0,0,0,0,0,0
6,69999,97,60000,85,10000,49,9999,0.100000,0,0,0.000000,6,6.000000,0.000000,13.938570,0,0,0,0,0,0,0
6,69999,98,60000,85,10000,40,9999,0.100000,0,0,0.000000,6,0.000000,0.000000,0.094645,0,0,0,0,0,0,0
6,69999,99,60000,36,20000,40,9999,0.100000,0,0,0.000000,6,0.000000,0.000000,0.408558,0,0,0,0,0,0,0
7,79999,0,70000,46,60000,40,9999,0.100000,0,0,0.000000,6,0.000000,0.000000,0.091196,0,0,0,0,0,0,0
7,79999,1,70000,36,20000,49,9999,0.065000,0,0,0.000000,6,1.000000,0.000000,4.531032,0,0,0,0,0,0,0
7,79999,2,70000,36,20000,40,9999,0.100000,0,0,0.000000,6,0.000000,0.000000,1.525719,0,0,0,0,0,0,0
7,79999,3,70000,85,10000,40,9999,0.100000,0,0,0.000000,6,0.000000,0.000000,0.477628,0,0,0,0,0,0,0
7,79999,4,70000,46,60000,40,9999,0.100000,0,0,0.000000,6,0.000000,0.000000,0.434834,0,0,0,0,0,0,0
7,79999,5,70000,1,0,40,9999,0.100000,0,0,0.000000,6,0.000000,0.000000,0.851713,0,0,0,0,0,0,0
7,79999,6,70000,36,20000,40,9999,0.100000,0,0,0.000000,6,0.000000,0.000000,0.159065,0,0,0,0,0,0,0
7,79999,7,70000,94,10000,40,9999,0.100000,0,0,0.000000,6,0.000000,0.000000,0.103369,0,0,0,0,0,0,0
7,79999,8,70000,85,10000,40,9999,0.100000,0,0,0.000000,6,0.000000,0.000000,0.091204,0,0,0,0,0,0,0
7,79999,9,70000,46,60000,40,9999,0.100000,0,0,0.000000,6,0.000000,0.000000,0.509193,0,0,0,0,0,0,0
7,79999,10,70000,46,10000,40,9999,0.100000,0,0,0.000000,6,0.000000,0.000000,0.909382,0,0,0,0,0,0,0
7,79999,11,70000,94,10000,40,9999,0.100000,0,0,0.000000,6,0.000000,0.000000,0.128904,0,0,0,0,0,0,0
7,79999,12,70000,85,10000,40,9999,0.100000,0,0,0.000000,6,0.000000,0.000000,0.202244,0,0,0,0,0,0,0
7,79999,13,70000,14,0,40,9999,0.100000,0,0,0.000000,6,0.000000,0.000000,0.330330,0,0,0,0,0,0,0
7,79999,14,70000,1,0,40,9999,0.100000,0,0,0.000000,6,0.000000,0.000000,0.089693,0,0,0,0,0,0,0
7,79999,15,70000,94,10000,40,9999,0.100000,0,0,0.000000,6,0.000000,0.000000,0.803317,0,0,0,0,0,0,0
7,79999,16,70000,36,20000,40,9999,0.100000,0,0,0.000000,6,0.000000,0.000000,0.532333,0,0,0,0,0,0,0
7,79999,17,70000,94,10000,40,9999,0.100000,0,0,0.000000,6,0.000000,0.000000,1.428543,0,0,0,0,0,0,0
7,79999,18,70000,36,20000,40,9999,0.100000,0,0,0.000000,6,0.000000,0.000000,0.108010,0,0,0,0,0,0,0
7,79999,19,70000,46,60000,49,9999,0.100000,0,0,0.000000,6,2.000000,0.000000,4.939978,0,0,0,0,0,0,0
7,79999,20,70000,94,10000,40,9999,0.100000,0,0,0.000000,6,0.000000,0.000000,2.071623,0,0,0,0,0,0,0
7,79999,21,70000,94,10000,49,9999,0.100000,0,0,0.000000,6,4.000000,0.000000,9.547634,0,0,0,0,0,0,0
7,79999,22,70000,1,0,49,9999,0.100000,0,0,0.000000,6,1.000000,0.000000,4.411758,0,0,0,0,0,0,0
7,79999,23,70000,46,60000,40,9999,0.100000,0,0,0.000000,6,0.000000,0.000000,0.172528,0,0,0,0,0,0,0
7,79999,24,70000,94,10000,40,9999,0.100000,0,0,0.000000,6,0.000000,0.000000,0.081307,0,0,0,0,0,0,0
7,79999,25,70000,94,10000,40,9999,0.100000,0,0,0.000000,6,0.000000,0.000000,0.079447,0,0,0,0,0,0,0
7,79999,26,70000,85,10000,40,9999,0.100000,0,0,0.000000,6,0.000000,0.000000,0.166025,0,0,0,0,0,0,0
7,79999,27,70000,46,60000,49,9999,0.100000,0,0,0.000000,6,9.000000,0.000000,19.444521,0,0,0,0,0,0,0
7,79999,28,70000,46,60000,40,9999,0.100000,0,0,0.000000,6,0.000000,0.000000,2.795645,0,0,0,0,0,0,0
7,79999,29,70000,94,10000,40,9999,0.100000,0,0,0.000000,6,0.000000,0.000000,0.407937,0,0,0,0,0,0,0
7,79999,30,70000,85,10000,40,9999,0.100000,0,0,0.000000,6,0.000000,0.000000,0.166934,0,0,0,0,0,0,0
7,79999,31,70000,85,10000,49,9999,0.100000,0,0,0.000000,6,1.000000,0.000000,1.444675,0,0,0,0,0,0,0
7,79999,32,70000,85,10000,40,9999,0.100000,0,0,0.000000,6,0.000000,0.000000,0.327529,0,0,0,0,0,0,0
7,79999,33,70000,94,10000,49,9999,0.100000,0,0,0.000000,6,1.000000,0.000000,1.188222,0,0,0,0,0,0,0
7,79999,34,70000,14,0,49,9999,0.100000,0,0,0.000000,6,1.000000,0.000000,2.565972,0,0,0,0,0,0,0
7,79999,35,70000,85,10000,49,9999,0.100000,0,0,0.000000,6,1.000000,0.000000,1.150378,0,0,0,0,0,0,0
7,79999,36,70000,85,10000,40,9999,0.100000,0,0,0.000000,6,0.000000,0.000000,0.184037,0,0,0,0,0,0,0
7,79999,37,70000,85,10000,40,9999,0.100000,0,0,0.000000,6,0.000000,0.000000,0.141297,0,0,0,0,0,0,0
7,79999,38,70000,14,0,40,9999,0.100000,0,0,0.000000,6,0.000000,0.000000,0.228606,0,0,0,0,0,0,0
7,79999,39,70000,1,0,40,9999,0.100000,0,0,0.000000,6,0.000000,0.000000,0.083874,0,0,0,0,0,0,0
7,79999,40,70000,14,0,40,9999,0.100000,0,0,0.000000,6,0.000000,0.000000,0.620580,0,0,0,0,0,0,0
7,79999,41,70000,36,20000,40,9999,0.100000,0,0,0.000000,6,0.000000,0.000000,0.101323,0,0,0,0,0,0,0
7,79999,42,70000,1,0,40,9999,0.100000,0,0,0.000000,6,0.000000,0.000000,0.313485,0,0,0,0,0,0,0
7,79999,43,70000,85,10000,40,9999,0.100000,0,0,0.000000,6,0.000000,0.000000,0.231221,0,0,0,0,0,0,0
7,79999,44,70000,94,10000,40,9999,0.100000,0,0,0.000000,6,0.000000,0.000000,0.453110,0,0,0,0,0,0,0
7,79999,45,70000,94,10000,40,9999,0.100000,0,0,0.000000,6,0.000000,0.000000,0.103639,0,0,0,0,0,0,0
7,79999,46,70000,46,60000,40,9999,0.100000,0,0,0.000000,6,0.000000,0.000000,1.251691,0,0,0,0,0,0,0
7,79999,47,70000,14,0,40,9999,0.100000,0,0,0.000000,6,0.000000,0.000000,2.521881,0,0,0,0,0,0,0
7,79999,48,70000,46,60000,40,9999,0.100000,0,0,0.000000,6,0.000000,0.000000,1.278521,0,0,0,0,0,0,0
7,79999,49,70000,36,20000,40,9999,0.100000,0,0,0.000000,6,0.000000,0.000000,5.626328,0,0,0,0,0,0,0
7,79999,50,70000,14,0,40,9999,0.100000,0,0,0.000000,6,0.000000,0.000000,0.144055,0,0,0,0,0,0,0
7,79999,51,70000,1,0,49,9999,0.100000,0,0,0.000000,6,1.000000,0.000000,1.163752,0,0,0,0,0,0,0
7,79999,52,70000,85,10000,40,9999,0.100000,0,0,0.000000,6,0.000000,0.000000,0.104909,0,0,0,0,0,0,0
7,79999,53,70000,85,10000,40,9999,0.100000,0,0,0.000000,6,0.000000,0.000000,2.908093,0,0,0,0,0,0,0
7,79999,54,70000,14,0,40,9999,0.100000,0,0,0.000000,6,0.000000,0.000000,0.262063,0,0,0,0,0,0,0
7,79999,55,70000,46,60000,40,9999,0.100000,0,0,0.000000,6,0.000000,0.000000,2.105871,0,0,0,0,0,0,0
7,79999,56,70000,1,0,40,9999,0.100000,0,0,0.000000,6,0.000000,0.000000,0.132192,0,0,0,0,0,0,0
7,79999,57,70000,94,10000,40,9999,0.100000,0,0,0.000000,6,0.000000,0.000000,0.137120,0,0,0,0,0,0,0
7,79999,58,70000,14,0,40,9999,0.100000,0,0,0.000000,6,0.000000,0.000000,0.326239,0,0,0,0,0,0,0
7,79999,59,70000,14,0,49,9999,0.100000,0,0,0.000000,6,4.000000,0.000000,8.661354,0,0,0,0,0,0,0
7,79999,60,70000,36,20000,40,9999,0.100000,0,0,0.000000,6,0.000000,0.000000,2.651560,0,0,0,0,0,0,0
7,79999,61,70000,85,10000,40,9999,0.100000,0,0,0.000000,6,0.000000,0.000000,1.019098,0,0,0,0,0,0,0
7,79999,62,70000,94,10000,40,9999,0.100000,0,0,0.000000,6,0.000000,0.000000,0.167960,0,0,0,0,0,0,0
7,79999,63,70000,46,60000,49,9999,0.100000,0,0,0.000000,6,3.000000,0.000000,10.297724,0,0,0,0,0,0,0
7,79999,64,70000,85,10000,40,9999,0.100000,0,0,0.000000,6,0.000000,0.000000,0.082825,0,0,0,0,0,0,0
7,79999,65,70000,46,60000,40,9999,0.100000,0,0,0.000000,6,0.000000,0.000000,0.079156,0,0,0,0,0,0,0
7,79999,66,70000,46,60000,40,9999,0.100000,0,0,0.000000,6,0.000000,0.000000,0.391826,0,0,0,0,0,0,0
7,79999,67,70000,14,0,49,9999,0.100000,0,0,0.000000,6,1.000000,0.000000,2.450765,0,0,0,0,0,0,0
7,79999,68,70000,85,10000,40,9999,0.100000,0,0,0.000000,6,0.000000,0.000000,0.252281,0,0,0,0,0,0,0
7,79999,69,70000,1,0,40,9999,0.100000,0,0,0.000000,6,0.000000,0.000000,0.096627,0,0,0,0,0,0,0
7,79999,70,70000,94,10000,40,9999,0.100000,0,0,0.000000,6,0.000000,0.000000,0.086114,0,0,0,0,0,0,0
7,79999,71,70000,14,0,40,9999,0.100000,0,0,0.000000,6,0.000000,0.000000,0.087997,0,0,0,0,0,0,0
7,79999,72,70000,14,0,40,9999,0.100000,0,0,0.000000,6,0.000000,0.000000,0.545209,0,0,0,0,0,0,0
7,79999,73,70000,94,10000,40,9999,0.100000,0,0,0.000000,6,0.000000,0.000000,0.309256,0,0,0,0,0,0,0
7,79999,74,70000,14,0,49,9999,0.100000,0,0,0.000000,6,8.000000,0.000000,10.193790,0,0,0,0,0,0,0
7,79999,75,70000,46,10000,40,9999,0.100000,0,0,0.000000,6,0.000000,0.000000,2.556922,0,0,0,0,0,0,0
7,79999,76,70000,85,10000,49,9999,0.100000,0,0,0.000000,6,1.000000,0.000000,9.267439,0,0,0,0,0,0,0
7,79999,77,70000,14,0,40,9999,0.100000,0,0,0.000000,6,0.000000,0.000000,0.095464,0,0,0,0,0,0,0
7,79999,78,70000,85,10000,40,9999,0.100000,0,0,0.000000,6,0.000000,0.000000,0.222788,0,0,0,0,0,0,0
7,79999,79,70000,94,10000,40,9999,0.100000,0,0,0.000000,6,0.000000,0.000000,0.371130,0,0,0,0,0,0,0
7,79999,80,70000,1,0,49,9999,0.100000,0,0,0.000000,6,1.000000,0.000000,1.161124,0,0,0,0,0,0,0
7,79999,81,70000,85,10000,40,9999,0.100000,0,0,0.000000,6,0.000000,0.000000,0.546571,0,0,0,0,0,0,0
7,79999,82,70000,85,10000,40,9999,0.100000,0,0,0.000000,6,0.000000,0.000000,0.409294,0,0,0,0,0,0,0
7,79999,83,70000,85,10000,40,9999,0.100000,0,0,0.000000,6,0.000000,0.000000,0.107031,0,0,0,0,0,0,0
7,79999,84,70000,46,60000,40,9999,0.135000,0,0,0.000000,6,0.000000,0.000000,1.044305,0,0,0,0,0,0,0
7,79999,85,70000,36,20000,40,9999,0.100000,0,0,0.000000,6,0.000000,0.000000,0.091026,0,0,0,0,0,0,0
7,79999,86,70000,36,20000,40,9999,0.100000,0,0,0.000000,6,0.000000,0.000000,0.295991,0,0,0,0,0,0,0
7,79999,87,70000,14,0,40,9999,0.100000,0,0,0.000000,6,0.000000,0.000000,23.955504,0,0,0,0,0,0,0
7,79999,88,70000,36,20000,49,9999,0.100000,0,0,0.000000,6,3.000000,0.000000,5.323370,0,0,0,0,0,0,0
7,79999,89,70000,94,10000,40,9999,0.100000,0,0,0.000000,6,0.000000,0.000000,0.707543,0,0,0,0,0,0,0
7,79999,90,70000,1,0,49,9999,0.100000,0,0,0.000000,6,1.000000,0.000000,1.146334,0,0,0,0,0,0,0
7,79999,91,70000,1,0,40,9999,0.100000,0,0,0.000000,6,0.000000,0.000000,2.270456,0,0,0,0,0,0,0
7,79999,92,70000,46,60000,40,9999,0.100000,0,0,0.000000,6,0.000000,0.000000,1.138251,0,0,0,0,0,0,0
7,79999,93,70000,85,10000,49,9999,0.100000,0,0,0.000000,6,4.000000,0.000000,17.743946,0,0,0,0,0,0,0
7,79999,94,70000,1,0,40,9999,0.100000,0,0,0.000000,6,0.000000,0.000000,0.079818,0,0,0,0,0,0,0
7,79999,95,70000,36,20000,40,9999,0.100000,0,0,0.000000,6,0.000000,0.000000,0.154623,0,0,0,0,0,0,0
7,79999,96,70000,85,10000,49,9999,0.100000,0,0,0.000000,6,9.000000,0.000000,19.893155,0,0,0,0,0,0,0
7,79999,97,70000,1,0,49,9999,0.100000,0,0,0.000000,6,6.000000,0.000000,13.960790,0,0,0,0,0,0,0
7,79999,98,70000,14,0,40,9999,0.100000,0,0,0.000000,6,0.000000,0.000000,0.093216,0,0,0,0,0,0,0
7,79999,99,70000,46,60000,40,9999,0.100000,0,0,0.000000,6,0.000000,0.000000,0.808632,0,0,0,0,0,0,0
8,89999,0,80000,1,0,40,9999,0.100000,0,0,0.000000,6,0.000000,0.000000,0.114863,0,0,0,0,0,0,0
8,89999,1,80000,1,0,49,9999,0.100000,0,0,0.000000,6,1.000000,0.000000,8.877216,0,0,0,0,0,0,0
8,89999,2,80000,36,20000,40,9999,0.100000,0,0,0.000000,6,0.000000,0.000000,1.700195,0,0,0,0,0,0,0
8,89999,3,80000,1,0,40,9999,0.100000,0,0,0.000000,6,0.000000,0.000000,0.185709,0,0,0,0,0,0,0
8,89999,4,80000,94,10000,40,9999,0.100000,0,0,0.000000,6,0.000000,0.000000,0.492595,0,0,0,0,0,0,0
8,89999,5,80000,46,60000,40,9999,0.100000,0,0,0.000000,6,0.000000,0.000000,0.566489,0,0,0,0,0,0,0
8,89999,6,80000,94,10000,40,9999,0.100000,0,0,0.000000,6,0.000000,0.000000,0.130063,0,0,0,0,0,0,0
8,89999,7,80000,94,10000,40,9999,0.100000,0,0,0.000000,6,0.000000,0.000000,0.106581,0,0,0,0,0,0,0
8,89999,8,80000,94,10000,40,9999,0.100000,0,0,0.000000,6,0.000000,0.000000,0.090328,0,0,0,0,0,0,0
8,89999,9,80000,1,0,40,9999,0.100000,0,0,0.000000,6,0.000000,0.000000,0.698272,0,0,0,0,0,0,0
8,89999,10,80000,85,10000,40,9999,0.100000,0,0,0.000000,6,0.000000,0.000000,2.014076,0,0,0,0,0,0,0
8,89999,11,80000,85,10000,40,9999,0.100000,0,0,0.000000,6,0.000000,0.000000,0.158452,0,0,0,0,0,0,0
8,89999,12,80000,36,20000,40,9999,0.100000,0,0,0.000000,6,0.000000,0.000000,0.203770,0,0,0,0,0,0,0
8,89999,13,80000,94,10000,40,9999,0.100000,0,0,0.000000,6,0.000000,0.000000,0.220721,0,0,0,0,0,0,0
8,89999,14,80000,1,0,40,9999,0.100000,0,0,0.000000,6,0.000000,0.000000,0.090323,0,0,0,0,0,0,0
8,89999,15,80000,14,0,40,9999,0.100000,0,0,0.000000,6,0.000000,0.000000,0.508968,0,0,0,0,0,0,0
8,89999,16,80000,46,60000,40,9999,0.100000,0,0,0.000000,6,0.000000,0.000000,2.833948,0,0,0,0,0,0,0
8,89999,17,80000,1,0,40,9999,0.100000,0,0,0.000000,6,0.000000,0.000000,0.502386,0,0,0,0,0,0,0
8,89999,18,80000,46,60000,40,9999,0.100000,0,0,0.000000,6,0.000000,0.000000,0.137788,0,0,0,0,0,0,0
8,89999,19,80000,14,0,40,9999,0.100000,0,0,0.000000,6,0.000000,0.000000,0.332001,0,0,0,0,0,0,0
8,89999,20,80000,14,0,40,9999,0.100000,0,0,0.000000,6,0.000000,0.000000,1.713700,0,0,0,0,0,0,0
8,89999,21,80000,36,20000,40,9999,0.100000,0,0,0.000000,6,0.000000,0.000000,0.517475,0,0,0,0,0,0,0
8,89999,22,80000,1,0,40,9999,0.100000,0,0,0.000000,6,0.000000,0.000000,0.552936,0,0,0,0,0,0,0
8,89999,23,80000,14,0,40,9999,0.100000,0,0,0.000000,6,0.000000,0.000000,0.154473,0,0,0,0,0,0,0
8,89999,24,80000,85,10000,40,9999,0.100000,0,0,0.000000,6,0.000000,0.000000,0.085794,0,0,0,0,0,0,0
8,89999,25,80000,46,60000,40,9999,0.100000,0,0,0.000000,6,0.000000,0.000000,0.082033,0,0,0,0,0,0,0
8,89999,26,80000,46,60000,40,9999,0.100000,0,0,0.000000,6,0.000000,0.000000,0.144659,0,0,0,0,0,0,0
8,89999,27,80000,85,10000,40,9999,0.100000,0,0,0.000000,6,0.000000,0.000000,0.084561,0,0,0,0,0,0,0
8,89999,28,80000,94,10000,40,9999,0.100000,0,0,0.000000,6,0.000000,0.000000,2.557088,0,0,0,0,0,0,0
8,89999,29,80000,46,60000,40,9999,0.100000,0,0,0.000000,6,0.000000,0.000000,0.316979,0,0,0,0,0,0,0
8,89999,30,80000,1,0,40,9999,0.100000,0,0,0.000000,6,0.000000,0.000000,0.166264,0,0,0,0,0,0,0
8,89999,31,80000,85,10000,49,9999,0.100000,0,0,0.000000,6,3.000000,0.000000,6.669304,0,0,0,0,0,0,0
8,89999,32,80000,36,20000,40,9999,0.100000,0,0,0.000000,6,0.000000,0.000000,0.351599,0,0,0,0,0,0,0
8,89999,33,80000,46,60000,49,9999,0.100000,0,0,0.000000,6,1.000000,0.000000,1.183090,0,0,0,0,0,0,0
8,89999,34,80000,1,0,40,9999,0.100000,0,0,0.000000,6,0.000000,0.000000,0.500776,0,0,0,0,0,0,0
8,89999,35,80000,36,20000,49,9999,0.100000,0,0,0.000000,6,1.000000,0.000000,1.163088,0,0,0,0,0,0,0
8,89999,36,80000,14,0,40,9999,0.100000,0,0,0.000000,6,0.000000,0.000000,0.173912,0,0,0,0,0,0,0
8,89999,37,80000,85,10000,40,9999,0.100000,0,0,0.000000,6,0.000000,0.000000,0.146258,0,0,0,0,0,0,0
8,89999,38,80000,14,0,40,9999,0.100000,0,0,0.000000,6,0.000000,0.000000,0.215169,0,0,0,0,0,0,0
8,89999,39,80000,36,20000,40,9999,0.100000,0,0,0.000000,6,0.000000,0.000000,0.216761,0,0,0,0,0,0,0
8,89999,40,80000,85,10000,40,9999,0.100000,0,0,0.000000,6,0.000000,0.000000,0.630638,0,0,0,0,0,0,0
8,89999,41,80000,14,0,40,9999,0.100000,0,0,0.000000,6,0.000000,0.000000,0.101667,0,0,0,0,0,0,0
8,89999,42,80000,46,60000,40,9999,0.100000,0,0,0.000000,6,0.000000,0.000000,0.509959,0,0,0,0,0,0,0
8,89999,43,80000,1,0,40,9999,0.100000,0,0,0.000000,6,0.000000,0.000000,0.247676,0,0,0,0,0,0,0
8,89999,44,80000,85,10000,40,9999,0.100000,0,0,0.000000,6,0.000000,0.000000,0.608331,0,0,0,0,0,0,0
8,89999,45,80000,14,0,40,9999,0.100000,0,0,0.000000,6,0.000000,0.000000,0.100296,0,0,0,0,0,0,0
8,89999,46,80000,36,20000,40,9999,0.100000,0,0,0.000000,6,0.000000,0.000000,0.328477,0,0,0,0,0,0,0
8,89999,47,80000,1,0,40,9999,0.100000,0,0,0.000000,6,0.000000,0.000000,1.322441,0,0,0,0,0,0,0
8,89999,48,80000,94,10000,40,9999,0.100000,0,0,0.000000,6,0.000000,0.000000,1.042009,0,0,0,0,0,0,0
8,89999,49,80000,85,10000,40,9999,0.100000,0,0,0.000000,6,0.000000,0.000000,1.308858,0,0,0,0,0,0,0
8,89999,50,80000,14,0,40,9999,0.100000,0,0,0.000000,6,0.000000,0.000000,0.143986,0,0,0,0,0,0,0
8,89999,51,80000,46,60000,49,9999,0.100000,0,0,0.000000,6,1.000000,0.000000,1.195100,0,0,0,0,0,0,0
8,89999,52,80000,85,10000,40,9999,0.100000,0,0,0.000000,6,0.000000,0.000000,0.102856,0,0,0,0,0,0,0
8,89999,53,80000,1,0,40,9999,0.100000,0,0,0.000000,6,0.000000,0.000000,0.525824,0,0,0,0,0,0,0
8,89999,54,80000,1,0,40,9999,0.100000,0,0,0.000000,6,0.000000,0.000000,0.345656,0,0,0,0,0,0,0
8,89999,55,80000,94,10000,40,9999,0.100000,0,0,0.000000,6,0.000000,0.000000,1.971851,0,0,0,0,0,0,0
8,89999,56,80000,85,10000,49,9999,0.100000,0,0,0.000000,6,3.000000,0.000000,6.748309,0,0,0,0,0,0,0
8,89999,57,80000,14,0,40,9999,0.100000,0,0,0.000000,6,0.000000,0.000000,0.076597,0,0,0,0,0,0,0
8,89999,58,80000,94,10000,40,9999,0.100000,0,0,0.000000,6,0.000000,0.000000,0.735901,0,0,0,0,0,0,0
8,89999,59,80000,36,20000,40,9999,0.100000,0,0,0.000000,6,0.000000,0.000000,0.082337,0,0,0,0,0,0,0
8,89999,60,80000,36,20000,49,9999,0.100000,0,0,0.000000,6,8.000000,0.000000,18.460390,0,0,0,0,0,0,0
8,89999,61,80000,94,10000,40,9999,0.100000,0,0,0.000000,6,0.000000,0.000000,1.018678,0,0,0,0,0,0,0
8,89999,62,80000,94,10000,40,9999,0.100000,0,0,0.000000,6,0.000000,0.000000,0.154887,0,0,0,0,0,0,0
8,89999,63,80000,14,0,40,9999,0.100000,0,0,0.000000,6,0.000000,0.000000,1.500322,0,0,0,0,0,0,0
8,89999,64,80000,36,20000,40,9999,0.100000,0,0,0.000000,6,0.000000,0.000000,0.084538,0,0,0,0,0,0,0
8,89999,65,80000,14,0,40,9999,0.100000,0,0,0.000000,6,0.000000,0.000000,0.079987,0,0,0,0,0,0,0
8,89999,66,80000,36,20000,40,9999,0.100000,0,0,0.000000,6,0.000000,0.000000,0.463719,0,0,0,0,0,0,0
8,89999,67,80000,36,20000,40,9999,0.100000,0,0,0.000000,6,0.000000,0.000000,0.286983,0,0,0,0,0,0,0
8,89999,68,80000,36,20000,40,9999,0.100000,0,0,0.000000,6,0.000000,0.000000,0.233975,0,0,0,0,0,0,0
8,89999,69,80000,85,10000,49,9999,0.100000,0,0,0.000000,6,7.000000,0.000000,15.138429,0,0,0,0,0,0,0
8,89999,70,80000,46,60000,40,9999,0.100000,0,0,0.000000,6,0.000000,0.000000,0.079891,0,0,0,0,0,0,0
8,89999,71,80000,14,0,40,9999,0.100000,0,0,0.000000,6,0.000000,0.000000,0.086349,0,0,0,0,0,0,0
8,89999,72,80000,14,0,40,9999,0.100000,0,0,0.000000,6,0.000000,0.000000,0.627476,0,0,0,0,0,0,0
8,89999,73,80000,36,20000,40,9999,0.100000,0,0,0.000000,6,0.000000,0.000000,0.223456,0,0,0,0,0,0,0
8,89999,74,80000,46,60000,49,9999,0.100000,0,0,0.000000,6,1.000000,0.000000,14.005664,0,0,0,0,0,0,0
8,89999,75,80000,85,10000,40,9999,0.100000,0,0,0.000000,6,0.000000,0.000000,0.706053,0,0,0,0,0,0,0
8,89999,76,80000,1,0,40,9999,0.100000,0,0,0.000000,6,0.000000,0.000000,2.311417,0,0,0,0,0,0,0
8,89999,77,80000,94,10000,40,9999,0.065000,0,0,0.000000,6,0.000000,0.000000,0.094602,0,0,0,0,0,0,0
8,89999,78,80000,94,10000,49,9999,0.100000,0,0,0.000000,6,4.000000,0.000000,9.729685,0,0,0,0,0,0,0
8,89999,79,80000,94,10000,40,9999,0.100000,0,0,0.000000,6,0.000000,0.000000,0.378568,0,0,0,0,0,0,0
8,89999,80,80000,85,10000,49,9999,0.100000,0,0,0.000000,6,1.000000,0.000000,1.172820,0,0,0,0,0,0,0
8,89999,81,80000,36,20000,40,9999,0.100000,0,0,0.000000,6,0.000000,0.000000,0.398092,0,0,0,0,0,0,0
8,89999,82,80000,14,0,40,9999,0.100000,0,0,0.000000,6,0.000000,0.000000,0.313627,0,0,0,0,0,0,0
8,89999,83,80000,1,0,40,9999,0.100000,0,0,0.000000,6,0.000000,0.000000,0.113549,0,0,0,0,0,0,0
8,89999,84,80000,36,20000,40,9999,0.100000,0,0,0.000000,6,0.000000,0.000000,0.999554,0,0,0,0,0,0,0
8,89999,85,80000,46,60000,49,9999,0.100000,0,0,0.000000,6,8.000000,0.000000,17.535675,0,0,0,0,0,0,0
8,89999,86,80000,94,10000,40,9999,0.100000,0,0,0.000000,6,0.000000,0.000000,0.234097,0,0,0,0,0,0,0
8,89999,87,80000,94,10000,40,9999,0.100000,0,0,0.000000,6,0.000000,0.000000,23.867040,0,0,0,0,0,0,0
8,89999,88,80000,85,10000,40,9999,0.100000,0,0,0.000000,6,0.000000,0.000000,1.595463,0,0,0,0,0,0,0
8,89999,89,80000,46,60000,40,9999,0.100000,0,0,0.000000,6,0.000000,0.000000,0.674549,0,0,0,0,0,0,0
8,89999,90,80000,14,0,49,9999,0.065000,0,0,0.000000,6,1.000000,0.000000,1.045172,0,0,0,0,0,0,0
8,89999,91,70000,1,0,40,19999,0.100000,0,0,0.000000,6,0.000000,0.000000,0.260369,0,0,0,0,0,0,0
8,89999,92,80000,36,20000,40,9999,0.100000,0,0,0.000000,6,0.000000,0.000000,0.297563,0,0,0,0,0,0,0
8,89999,93,80000,14,0,49,9999,0.100000,0,0,0.000000,6,5.000000,0.000000,8.989004,0,0,0,0,0,0,0
8,89999,94,80000,1,0,40,9999,0.100000,0,0,0.000000,6,0.000000,0.000000,0.082192,0,0,0,0,0,0,0
8,89999,95,80000,14,0,40,9999,0.100000,0,0,0.000000,6,0.000000,0.000000,0.261176,0,0,0,0,0,0,0
8,89999,96,80000,94,10000,40,9999,0.100000,0,0,0.000000,6,0.000000,0.000000,0.241388,0,0,0,0,0,0,0
8,89999,97,80000,94,10000,49,9999,0.100000,0,0,0.000000,6,6.000000,0.000000,13.990077,0,0,0,0,0,0,0
8,89999,98,80000,94,10000,49,9999,0.100000,0,0,0.000000,6,9.000000,0.000000,18.470118,0,0,0,0,0,0,0
8,89999,99,80000,1,0,40,9999,0.100000,0,0,0.000000,6,0.000000,0.000000,0.821466,0,0,0,0,0,0,0
9,99999,0,90000,36,20000,40,9999,0.100000,0,0,0.000000,6,0.000000,0.000000,0.086165,0,0,0,0,0,0,0
9,99999,1,90000,1,0,49,9999,0.100000,0,0,0.000000,6,1.000000,0.000000,8.241314,0,0,0,0,0,0,0
9,99999,2,90000,46,60000,40,9999,0.100000,0,0,0.000000,6,0.000000,0.000000,1.542730,0,0,0,0,0,0,0
9,99999,3,90000,14,0,40,9999,0.100000,0,0,0.000000,6,0.000000,0.000000,0.598403,0,0,0,0,0,0,0
9,99999,4,90000,46,60000,40,9999,0.100000,0,0,0.000000,6,0.000000,0.000000,0.551970,0,0,0,0,0,0,0
9,99999,5,90000,1,0,40,9999,0.100000,0,0,0.000000,6,0.000000,0.000000,0.731322,0,0,0,0,0,0,0
9,99999,6,90000,85,10000,40,9999,0.100000,0,0,0.000000,6,0.000000,0.000000,0.130803,0,0,0,0,0,0,0
9,99999,7,90000,85,10000,40,9999,0.100000,0,0,0.000000,6,0.000000,0.000000,0.108542,0,0,0,0,0,0,0
9,99999,8,90000,14,0,40,9999,0.100000,0,0,0.000000,6,0.000000,0.000000,0.097203,0,0,0,0,0,0,0
9,99999,9,90000,85,10000,40,9999,0.100000,0,0,0.000000,6,0.000000,0.000000,0.942605,0,0,0,0,0,0,0
9,99999,10,90000,14,0,40,9999,0.100000,0,0,0.000000,6,0.000000,0.000000,0.560570,0,0,0,0,0,0,0
9,99999,11,90000,1,0,40,9999,0.100000,0,0,0.000000,6,0.000000,0.000000,0.143010,0,0,0,0,0,0,0
9,99999,12,90000,1,0,40,9999,0.100000,0,0,0.000000,6,0.000000,0.000000,0.208236,0,0,0,0,0,0,0
9,99999,13,90000,1,0,40,9999,0.100000,0,0,0.000000,6,0.000000,0.000000,0.225481,0,0,0,0,0,0,0
9,99999,14,90000,14,0,40,9999,0.100000,0,0,0.000000,6,0.000000,0.000000,0.714835,0,0,0,0,0,0,0
9,99999,15,90000,46,60000,40,9999,0.100000,0,0,0.000000,6,0.000000,0.000000,0.500406,0,0,0,0,0,0,0
9,99999,16,90000,1,0,49,9999,0.100000,0,0,0.000000,6,4.000000,0.000000,8.811422,0,0,0,0,0,0,0
9,99999,17,90000,36,20000,40,9999,0.100000,0,0,0.000000,6,0.000000,0.000000,0.697404,0,0,0,0,0,0,0
9,99999,18,90000,14,0,40,9999,0.100000,0,0,0.000000,6,0.000000,0.000000,0.094913,0,0,0,0,0,0,0
9,99999,19,90000,94,10000,40,9999,0.100000,0,0,0.000000,6,0.000000,0.000000,0.200946,0,0,0,0,0,0,0
9,99999,20,90000,46,60000,40,9999,0.100000,0,0,0.000000,6,0.000000,0.000000,1.567431,0,0,0,0,0,0,0
9,99999,21,90000,1,0,40,9999,0.100000,0,0,0.000000,6,0.000000,0.000000,0.446142,0,0,0,0,0,0,0
9,99999,22,90000,85,10000,40,9999,0.100000,0,0,0.000000,6,0.000000,0.000000,0.404872,0,0,0,0,0,0,0
9,99999,23,90000,46,60000,40,9999,0.100000,0,0,0.000000,6,0.000000,0.000000,0.171719,0,0,0,0,0,0,0
9,99999,24,90000,1,0,40,9999,0.100000,0,0,0.000000,6,0.000000,0.000000,0.084596,0,0,0,0,0,0,0
9,99999,25,90000,85,10000,40,9999,0.100000,0,0,0.000000,6,0.000000,0.000000,0.084095,0,0,0,0,0,0,0
9,99999,26,90000,46,60000,40,9999,0.100000,0,0,0.000000,6,0.000000,0.000000,0.100160,0,0,0,0,0,0,0
9,99999,27,90000,14,0,40,9999,0.100000,0,0,0.000000,6,0.000000,0.000000,0.083696,0,0,0,0,0,0,0
9,99999,28,90000,36,20000,40,9999,0.100000,0,0,0.000000,6,0.000000,0.000000,2.524673,0,0,0,0,0,0,0
9,99999,29,90000,94,10000,40,9999,0.135000,0,0,0.000000,6,0.000000,0.000000,0.283930,0,0,0,0,0,0,0
9,99999,30,90000,94,10000,40,9999,0.100000,0,0,0.000000,6,0.000000,0.000000,0.149054,0,0,0,0,0,0,0
9,99999,31,90000,1,0,40,9999,0.100000,0,0,0.000000,6,0.000000,0.000000,1.549758,0,0,0,0,0,0,0
9,99999,32,90000,14,0,40,9999,0.100000,0,0,0.000000,6,0.000000,0.000000,0.355837,0,0,0,0,0,0,0
9,99999,33,90000,36,20000,40,9999,0.100000,0,0,0.000000,6,0.000000,0.000000,1.086856,0,0,0,0,0,0,0
9,99999,34,90000,46,60000,40,9999,0.100000,0,0,0.000000,6,0.000000,0.000000,1.312274,0,0,0,0,0,0,0
9,99999,35,90000,85,80000,40,9999,0.100000,0,0,0.000000,6,0.000000,0.000000,1.046278,0,0,0,0,0,0,0
9,99999,36,90000,14,0,40,9999,0.100000,0,0,0.000000,6,0.000000,0.000000,0.173509,0,0,0,0,0,0,0
9,99999,37,90000,14,0,40,9999,0.100000,0,0,0.000000,6,0.000000,0.000000,0.139341,0,0,0,0,0,0,0
9,99999,38,90000,14,0,40,9999,0.100000,0,0,0.000000,6,0.000000,0.000000,0.231364,0,0,0,0,0,0,0
9,99999,39,90000,85,10000,40,9999,0.100000,0,0,0.000000,6,0.000000,0.000000,0.072614,0,0,0,0,0,0,0
9,99999,40,90000,14,0,40,9999,0.100000,0,0,0.000000,6,0.000000,0.000000,0.634124,0,0,0,0,0,0,0
9,99999,41,90000,14,0,40,9999,0.100000,0,0,0.000000,6,0.000000,0.000000,0.101491,0,0,0,0,0,0,0
9,99999,42,90000,85,80000,40,9999,0.100000,0,0,0.000000,6,0.000000,0.000000,0.468905,0,0,0,0,0,0,0
9,99999,43,90000,94,10000,40,9999,0.100000,0,0,0.000000,6,0.000000,0.000000,0.229577,0,0,0,0,0,0,0
9,99999,44,90000,85,80000,40,9999,0.100000,0,0,0.000000,6,0.000000,0.000000,0.421082,0,0,0,0,0,0,0
9,99999,45,90000,85,80000,40,9999,0.100000,0,0,0.000000,6,0.000000,0.000000,0.098382,0,0,0,0,0,0,0
9,99999,46,90000,94,10000,40,9999,0.100000,0,0,0.000000,6,0.000000,0.000000,0.299992,0,0,0,0,0,0,0
9,99999,47,90000,85,10000,40,9999,0.100000,0,0,0.000000,6,0.000000,0.000000,2.331189,0,0,0,0,0,0,0
9,99999,48,90000,46,60000,40,9999,0.100000,0,0,0.000000,6,0.000000,0.000000,1.065471,0,0,0,0,0,0,0
9,99999,49,90000,94,10000,40,9999,0.100000,0,0,0.000000,6,0.000000,0.000000,1.579098,0,0,0,0,0,0,0
9,99999,50,90000,46,60000,40,9999,0.100000,0,0,0.000000,6,0.000000,0.000000,0.147880,0,0,0,0,0,0,0
9,99999,51,90000,36,20000,40,9999,0.100000,0,0,0.000000,6,0.000000,0.000000,1.073156,0,0,0,0,0,0,0
9,99999,52,90000,1,0,40,9999,0.100000,0,0,0.000000,6,0.000000,0.000000,0.103755,0,0,0,0,0,0,0
9,99999,53,90000,85,10000,40,9999,0.100000,0,0,0.000000,6,0.000000,0.000000,1.382558,0,0,0,0,0,0,0
9,99999,54,90000,36,20000,40,9999,0.100000,0,0,0.000000,6,0.000000,0.000000,0.291133,0,0,0,0,0,0,0
9,99999,55,90000,1,0,40,9999,0.100000,0,0,0.000000,6,0.000000,0.000000,0.195885,0,0,0,0,0,0,0
9,99999,56,90000,94,10000,40,9999,0.100000,0,0,0.000000,6,0.000000,0.000000,0.132553,0,0,0,0,0,0,0
9,99999,57,90000,85,10000,40,9999,0.100000,0,0,0.000000,6,0.000000,0.000000,0.093124,0,0,0,0,0,0,0
9,99999,58,90000,14,0,40,9999,0.100000,0,0,0.000000,6,0.000000,0.000000,0.647762,0,0,0,0,0,0,0
9,99999,59,90000,94,10000,40,9999,0.100000,0,0,0.000000,6,0.000000,0.000000,0.082377,0,0,0,0,0,0,0
9,99999,60,90000,14,0,40,9999,0.100000,0,0,0.000000,6,0.000000,0.000000,1.058473,0,0,0,0,0,0,0
9,99999,61,90000,1,0,40,9999,0.100000,0,0,0.000000,6,0.000000,0.000000,1.004109,0,0,0,0,0,0,0
9,99999,62,90000,94,10000,40,9999,0.100000,0,0,0.000000,6,0.000000,0.000000,0.168400,0,0,0,0,0,0,0
9,99999,63,90000,46,60000,40,9999,0.100000,0,0,0.000000,6,0.000000,0.000000,0.755098,0,0,0,0,0,0,0
9,99999,64,90000,1,0,40,9999,0.100000,0,0,0.000000,6,0.000000,0.000000,0.081210,0,0,0,0,0,0,0
9,99999,65,90000,1,0,40,9999,0.100000,0,0,0.000000,6,0.000000,0.000000,0.079684,0,0,0,0,0,0,0
9,99999,66,90000,94,10000,40,9999,0.100000,0,0,0.000000,6,0.000000,0.000000,0.446024,0,0,0,0,0,0,0
9,99999,67,90000,1,0,40,9999,0.100000,0,0,0.000000,6,0.000000,0.000000,0.254367,0,0,0,0,0,0,0
9,99999,68,90000,94,10000,40,9999,0.100000,0,0,0.000000,6,0.000000,0.000000,0.228211,0,0,0,0,0,0,0
9,99999,69,90000,14,0,40,9999,0.100000,0,0,0.000000,6,0.000000,0.000000,0.090237,0,0,0,0,0,0,0
9,99999,70,90000,14,0,40,9999,0.100000,0,0,0.000000,6,0.000000,0.000000,0.095418,0,0,0,0,0,0,0
9,99999,71,90000,1,0,40,9999,0.100000,0,0,0.000000,6,0.000000,0.000000,0.109076,0,0,0,0,0,0,0
9,99999,72,90000,85,10000,40,9999,0.100000,0,0,0.000000,6,0.000000,0.000000,0.191320,0,0,0,0,0,0,0
9,99999,73,90000,46,60000,40,9999,0.100000,0,0,0.000000,6,0.000000,0.000000,0.747592,0,0,0,0,0,0,0
9,99999,74,90000,14,0,49,9999,0.100000,0,0,0.000000,6,9.000000,0.000000,22.571389,0,0,0,0,0,0,0
9,99999,75,90000,94,10000,49,9999,0.100000,0,0,0.000000,6,1.000000,0.000000,1.677725,0,0,0,0,0,0,0
9,99999,76,90000,85,10000,49,9999,0.100000,0,0,0.000000,6,1.000000,0.000000,14.093631,0,0,0,0,0,0,0
9,99999,77,90000,46,60000,40,9999,0.100000,0,0,0.000000,6,0.000000,0.000000,0.098089,0,0,0,0,0,0,0
9,99999,78,90000,94,10000,40,9999,0.100000,0,0,0.000000,6,0.000000,0.000000,0.153742,0,0,0,0,0,0,0
9,99999,79,90000,94,10000,40,9999,0.100000,0,0,0.000000,6,0.000000,0.000000,0.387395,0,0,0,0,0,0,0
9,99999,80,90000,1,0,40,9999,0.100000,0,0,0.000000,6,0.000000,0.000000,1.053145,0,0,0,0,0,0,0
9,99999,81,90000,36,20000,49,9999,0.100000,0,0,0.000000,6,8.000000,0.000000,17.689951,0,0,0,0,0,0,0
9,99999,82,90000,1,0,49,9999,0.100000,0,0,0.000000,6,5.000000,0.000000,11.803819,0,0,0,0,0,0,0
9,99999,83,90000,36,20000,40,9999,0.100000,0,0,0.000000,6,0.000000,0.000000,0.112978,0,0,0,0,0,0,0
9,99999,84,90000,46,60000,40,9999,0.100000,0,0,0.000000,6,0.000000,0.000000,1.019707,0,0,0,0,0,0,0
9,99999,85,90000,14,0,40,9999,0.100000,0,0,0.000000,6,0.000000,0.000000,0.089437,0,0,0,0,0,0,0
9,99999,86,90000,85,10000,40,9999,0.100000,0,0,0.000000,6,0.000000,0.000000,0.366801,0,0,0,0,0,0,0
9,99999,87,90000,94,10000,40,9999,0.100000,0,0,0.000000,6,0.000000,0.000000,23.884353,0,0,0,0,0,0,0
9,99999,88,90000,1,0,40,9999,0.100000,0,0,0.000000,6,0.000000,0.000000,0.973727,0,0,0,0,0,0,0
9,99999,89,90000,1,0,40,9999,0.100000,0,0,0.000000,6,0.000000,0.000000,0.651138,0,0,0,0,0,0,0
9,99999,90,90000,85,80000,40,9999,0.100000,0,0,0.000000,6,0.000000,0.000000,0.997678,0,0,0,0,0,0,0
9,99999,91,90000,94,10000,40,9999,0.100000,0,0,0.000000,6,0.000000,0.000000,0.223312,0,0,0,0,0,0,0
9,99999,92,90000,1,0,40,9999,0.100000,0,0,0.000000,6,0.000000,0.000000,0.246963,0,0,0,0,0,0,0
9,99999,93,90000,85,80000,40,9999,0.100000,0,0,0.000000,6,0.000000,0.000000,1.894034,0,0,0,0,0,0,0
9,99999,94,90000,46,60000,40,9999,0.100000,0,0,0.000000,6,0.000000,0.000000,0.080281,0,0,0,0,0,0,0
9,99999,95,90000,36,20000,40,9999,0.100000,0,0,0.000000,6,0.000000,0.000000,0.455034,0,0,0,0,0,0,0
9,99999,96,90000,46,60000,40,9999,0.100000,0,0,0.000000,6,0.000000,0.000000,0.236216,0,0,0,0,0,0,0
9,99999,97,90000,46,60000,40,9999,0.100000,0,0,0.000000,6,0.000000,0.000000,0.525507,0,0,0,0,0,0,0
9,99999,98,90000,46,60000,40,9999,0.100000,0,0,0.000000,6,0.000000,0.000000,0.092475,0,0,0,0,0,0,0
9,99999,99,90000,1,0,40,9999,0.100000,0,0,0.000000,6,0.000000,0.000000,0.980950,0,0,0,0,0,0,0
10,109999,0,100000,1,0,40,9999,0.100000,0,0,0.000000,6,0.000000,0.000000,0.079803,0,0,0,0,0,0,0
10,109999,1,100000,94,10000,49,9999,0.100000,0,0,0.000000,6,1.000000,0.000000,8.794180,0,0,0,0,0,0,0
10,109999,2,100000,46,60000,40,9999,0.100000,0,0,0.000000,6,0.000000,0.000000,1.101000,0,0,0,0,0,0,0
10,109999,3,100000,14,0,40,9999,0.100000,0,0,0.000000,6,0.000000,0.000000,0.150276,0,0,0,0,0,0,0
10,109999,4,100000,14,0,40,9999,0.100000,0,0,0.000000,6,0.000000,0.000000,1.085100,0,0,0,0,0,0,0
10,109999,5,100000,46,60000,40,9999,0.100000,0,0,0.000000,6,0.000000,0.000000,0.723285,0,0,0,0,0,0,0
10,109999,6,100000,85,10000,40,9999,0.100000,0,0,0.000000,6,0.000000,0.000000,0.148421,0,0,0,0,0,0,0
10,109999,7,100000,1,0,40,9999,0.100000,0,0,0.000000,6,0.000000,0.000000,0.102002,0,0,0,0,0,0,0
10,109999,8,100000,94,10000,40,9999,0.100000,0,0,0.000000,6,0.000000,0.000000,0.138111,0,0,0,0,0,0,0
10,109999,9,100000,14,0,40,9999,0.100000,0,0,0.000000,6,0.000000,0.000000,0.433037,0,0,0,0,0,0,0
10,109999,10,100000,46,60000,40,9999,0.100000,0,0,0.000000,6,0.000000,0.000000,0.461227,0,0,0,0,0,0,0
10,109999,11,100000,46,60000,40,9999,0.100000,0,0,0.000000,6,0.000000,0.000000,0.140996,0,0,0,0,0,0,0
10,109999,12,100000,85,80000,40,9999,0.100000,0,0,0.000000,6,0.000000,0.000000,0.198848,0,0,0,0,0,0,0
10,109999,13,100000,14,0,40,9999,0.100000,0,0,0.000000,6,0.000000,0.000000,0.477244,0,0,0,0,0,0,0
10,109999,14,100000,14,0,40,9999,0.100000,0,0,0.000000,6,0.000000,0.000000,1.934378,0,0,0,0,0,0,0
10,109999,15,100000,1,0,40,9999,0.100000,0,0,0.000000,6,0.000000,0.000000,0.569189,0,0,0,0,0,0,0
10,109999,16,100000,94,10000,40,9999,0.100000,0,0,0.000000,6,0.000000,0.000000,3.235821,0,0,0,0,0,0,0
10,109999,17,100000,85,80000,40,9999,0.100000,0,0,0.000000,6,0.000000,0.000000,0.653301,0,0,0,0,0,0,0
10,109999,18,100000,94,10000,40,9999,0.100000,0,0,0.000000,6,0.000000,0.000000,0.071202,0,0,0,0,0,0,0
10,109999,19,100000,85,10000,40,9999,0.100000,0,0,0.000000,6,0.000000,0.000000,0.171541,0,0,0,0,0,0,0
10,109999,20,100000,46,60000,40,9999,0.100000,0,0,0.000000,6,0.000000,0.000000,1.307523,0,0,0,0,0,0,0
10,109999,21,100000,85,80000,40,9999,0.100000,0,0,0.000000,6,0.000000,0.000000,0.471657,0,0,0,0,0,0,0
10,109999,22,100000,85,10000,40,9999,0.100000,0,0,0.000000,6,0.000000,0.000000,0.584518,0,0,0,0,0,0,0
10,109999,23,100000,14,0,40,9999,0.100000,0,0,0.000000,6,0.000000,0.000000,0.170595,0,0,0,0,0,0,0
10,109999,24,100000,1,0,40,9999,0.100000,0,0,0.000000,6,0.000000,0.000000,0.087511,0,0,0,0,0,0,0
10,109999,25,100000,46,60000,49,9999,0.100000,0,0,0.000000,6,5.000000,0.000000,10.541258,0,0,0,0,0,0,0
10,109999,26,100000,85,10000,40,9999,0.100000,0,0,0.000000,6,0.000000,0.000000,0.075507,0,0,0,0,0,0,0
10,109999,27,100000,1,0,40,9999,0.100000,0,0,0.000000,6,0.000000,0.000000,0.083196,0,0,0,0,0,0,0
10,109999,28,100000,14,0,40,9999,0.100000,0,0,0.000000,6,0.000000,0.000000,5.254836,0,0,0,0,0,0,0
10,109999,29,100000,85,80000,40,9999,0.100000,0,0,0.000000,6,0.000000,0.000000,0.240000,0,0,0,0,0,0,0
10,109999,30,100000,14,0,40,9999,0.100000,0,0,0.000000,6,0.000000,0.000000,0.155035,0,0,0,0,0,0,0
10,109999,31,100000,94,10000,40,9999,0.100000,0,0,0.000000,6,0.000000,0.000000,1.471530,0,0,0,0,0,0,0
10,109999,32,100000,46,60000,40,9999,0.100000,0,0,0.000000,6,0.000000,0.000000,0.420873,0,0,0,0,0,0,0
10,109999,33,100000,85,10000,40,9999,0.100000,0,0,0.000000,6,0.000000,0.000000,0.900691,0,0,0,0,0,0,0
10,109999,34,100000,85,10000,40,9999,0.100000,0,0,0.000000,6,0.000000,0.000000,0.536927,0,0,0,0,0,0,0
10,109999,35,100000,85,10000,40,9999,0.100000,0,0,0.000000,6,0.000000,0.000000,0.876658,0,0,0,0,0,0,0
10,109999,36,100000,14,0,40,9999,0.100000,0,0,0.000000,6,0.000000,0.000000,0.165411,0,0,0,0,0,0,0
10,109999,37,100000,85,80000,40,9999,0.100000,0,0,0.000000,6,0.000000,0.000000,0.139895,0,0,0,0,0,0,0
10,109999,38,100000,94,10000,40,9999,0.100000,0,0,0.000000,6,0.000000,0.000000,0.234571,0,0,0,0,0,0,0
10,109999,39,100000,46,60000,40,9999,0.100000,0,0,0.000000,6,0.000000,0.000000,0.094312,0,0,0,0,0,0,0
10,109999,40,100000,14,0,40,9999,0.100000,0,0,0.000000,6,0.000000,0.000000,0.629387,0,0,0,0,0,0,0
10,109999,41,100000,1,0,40,9999,0.100000,0,0,0.000000,6,0.000000,0.000000,0.099273,0,0,0,0,0,0,0
10,109999,42,100000,85,10000,40,9999,0.100000,0,0,0.000000,6,0.000000,0.000000,0.368767,0,0,0,0,0,0,0
10,109999,43,100000,1,0,40,9999,0.100000,0,0,0.000000,6,0.000000,0.000000,0.236031,0,0,0,0,0,0,0
10,109999,44,100000,85,80000,40,9999,0.100000,0,0,0.000000,6,0.000000,0.000000,0.291074,0,0,0,0,0,0,0
10,109999,45,100000,46,60000,40,9999,0.100000,0,0,0.000000,6,0.000000,0.000000,0.094357,0,0,0,0,0,0,0
10,109999,46,100000,85,10000,40,9999,0.100000,0,0,0.000000,6,0.000000,0.000000,0.181768,0,0,0,0,0,0,0
10,109999,47,100000,85,80000,40,9999,0.100000,0,0,0.000000,6,0.000000,0.000000,2.259629,0,0,0,0,0,0,0
10,109999,48,100000,46,60000,40,9999,0.100000,0,0,0.000000,6,0.000000,0.000000,0.149045,0,0,0,0,0,0,0
10,109999,49,100000,1,0,40,9999,0.100000,0,0,0.000000,6,0.000000,0.000000,1.935115,0,0,0,0,0,0,0
10,109999,50,100000,85,10000,40,9999,0.100000,0,0,0.000000,6,0.000000,0.000000,0.172201,0,0,0,0,0,0,0
10,109999,51,100000,46,60000,40,9999,0.100000,0,0,0.000000,6,0.000000,0.000000,0.855414,0,0,0,0,0,0,0
10,109999,52,100000,94,10000,49,9999,0.100000,0,0,0.000000,6,8.000000,0.000000,17.065761,0,0,0,0,0,0,0
10,109999,53,100000,46,60000,40,9999,0.100000,0,0,0.000000,6,0.000000,0.000000,0.646237,0,0,0,0,0,0,0
10,109999,54,100000,14,0,40,9999,0.100000,0,0,0.000000,6,0.000000,0.000000,0.288023,0,0,0,0,0,0,0
10,109999,55,100000,46,60000,40,9999,0.100000,0,0,0.000000,6,0.000000,0.000000,0.194570,0,0,0,0,0,0,0
10,109999,56,100000,46,60000,40,9999,0.100000,0,0,0.000000,6,0.000000,0.000000,0.134343,0,0,0,0,0,0,0
10,109999,57,100000,94,10000,40,9999,0.100000,0,0,0.000000,6,0.000000,0.000000,0.117510,0,0,0,0,0,0,0
10,109999,58,100000,85,80000,40,9999,0.100000,0,0,0.000000,6,0.000000,0.000000,0.414086,0,0,0,0,0,0,0
10,109999,59,100000,14,0,40,9999,0.100000,0,0,0.000000,6,0.000000,0.000000,0.822311,0,0,0,0,0,0,0
10,109999,60,100000,85,80000,40,9999,0.100000,0,0,0.000000,6,0.000000,0.000000,1.333153,0,0,0,0,0,0,0
10,109999,61,100000,94,10000,40,9999,0.100000,0,0,0.000000,6,0.000000,0.000000,0.995386,0,0,0,0,0,0,0
10,109999,62,100000,85,10000,40,9999,0.100000,0,0,0.000000,6,0.000000,0.000000,0.154658,0,0,0,0,0,0,0
10,109999,63,100000,94,10000,40,9999,0.100000,0,0,0.000000,6,0.000000,0.000000,0.976221,0,0,0,0,0,0,0
10,109999,64,100000,94,10000,40,9999,0.100000,0,0,0.000000,6,0.000000,0.000000,0.084249,0,0,0,0,0,0,0
10,109999,65,100000,85,80000,49,9999,0.100000,0,0,0.000000,6,2.000000,0.000000,4.724426,0,0,0,0,0,0,0
10,109999,66,100000,14,0,40,9999,0.100000,0,0,0.000000,6,0.000000,0.000000,0.374554,0,0,0,0,0,0,0
10,109999,67,100000,94,10000,40,9999,0.100000,0,0,0.000000,6,0.000000,0.000000,0.252588,0,0,0,0,0,0,0
10,109999,68,100000,85,10000,40,9999,0.100000,0,0,0.000000,6,0.000000,0.000000,0.240800,0,0,0,0,0,0,0
10,109999,69,100000,85,80000,40,9999,0.100000,0,0,0.000000,6,0.000000,0.000000,0.092040,0,0,0,0,0,0,0
10,109999,70,100000,46,60000,40,9999,0.100000,0,0,0.000000,6,0.000000,0.000000,0.098275,0,0,0,0,0,0,0
10,109999,71,100000,1,0,40,9999,0.100000,0,0,0.000000,6,0.000000,0.000000,0.121507,0,0,0,0,0,0,0
10,109999,72,100000,1,0,40,9999,0.100000,0,0,0.000000,6,0.000000,0.000000,0.127777,0,0,0,0,0,0,0
10,109999,73,100000,14,0,40,9999,0.100000,0,0,0.000000,6,0.000000,0.000000,1.942428,0,0,0,0,0,0,0
10,109999,74,100000,1,0,49,9999,0.100000,0,0,0.000000,6,2.000000,0.000000,6.854781,0,0,0,0,0,0,0
10,109999,75,100000,85,80000,40,9999,0.100000,0,0,0.000000,6,0.000000,0.000000,0.991522,0,0,0,0,0,0,0
10,109999,76,100000,1,0,49,9999,0.100000,0,0,0.000000,6,1.000000,0.000000,5.354252,0,0,0,0,0,0,0
10,109999,77,100000,1,0,40,9999,0.100000,0,0,0.000000,6,0.000000,0.000000,0.134676,0,0,0,0,0,0,0
10,109999,78,100000,85,80000,40,9999,0.100000,0,0,0.000000,6,0.000000,0.000000,0.496636,0,0,0,0,0,0,0
10,109999,79,100000,94,10000,40,9999,0.100000,0,0,0.000000,6,0.000000,0.000000,0.869826,0,0,0,0,0,0,0
10,109999,80,100000,1,0,40,9999,0.100000,0,0,0.000000,6,0.000000,0.000000,0.866987,0,0,0,0,0,0,0
10,109999,81,100000,46,60000,49,9999,0.100000,0,0,0.000000,6,8.000000,0.000000,19.047483,0,0,0,0,0,0,0
10,109999,82,100000,85,10000,40,9999,0.100000,0,0,0.000000,6,0.000000,0.000000,0.329058,0,0,0,0,0,0,0
10,109999,83,100000,1,0,49,9999,0.100000,0,0,0.000000,6,7.000000,0.000000,14.542504,0,0,0,0,0,0,0
10,109999,84,100000,1,0,40,9999,0.100000,0,0,0.000000,6,0.000000,0.000000,0.998465,0,0,0,0,0,0,0
10,109999,85,100000,85,80000,40,9999,0.100000,0,0,0.000000,6,0.000000,0.000000,0.089584,0,0,0,0,0,0,0
10,109999,86,100000,46,60000,40,9999,0.100000,0,0,0.000000,6,0.000000,0.000000,0.324745,0,0,0,0,0,0,0
10,109999,87,100000,14,0,40,9999,0.100000,0,0,0.000000,6,0.000000,0.000000,23.878870,0,0,0,0,0,0,0
10,109999,88,100000,14,0,40,9999,0.100000,0,0,0.000000,6,0.000000,0.000000,0.931414,0,0,0,0,0,0,0
10,109999,89,100000,1,0,40,9999,0.100000,0,0,0.000000,6,0.000000,0.000000,0.639976,0,0,0,0,0,0,0
10,109999,90,100000,94,10000,40,9999,0.100000,0,0,0.000000,6,0.000000,0.000000,0.662739,0,0,0,0,0,0,0
10,109999,91,100000,85,80000,40,9999,0.100000,0,0,0.000000,6,0.000000,0.000000,0.173484,0,0,0,0,0,0,0
10,109999,92,100000,46,60000,40,9999,0.100000,0,0,0.000000,6,0.000000,0.000000,0.169016,0,0,0,0,0,0,0
10,109999,93,100000,14,0,40,9999,0.100000,0,0,0.000000,6,0.000000,0.000000,6.563242,0,0,0,0,0,0,0
10,109999,94,100000,85,10000,40,9999,0.100000,0,0,0.000000,6,0.000000,0.000000,0.080711,0,0,0,0,0,0,0
10,109999,95,100000,85,10000,40,9999,0.100000,0,0,0.000000,6,0.000000,0.000000,0.673327,0,0,0,0,0,0,0
10,109999,96,100000,85,10000,40,9999,0.100000,0,0,0.000000,6,0.000000,0.000000,0.227504,0,0,0,0,0,0,0
10,109999,97,100000,1,0,40,9999,0.100000,0,0,0.000000,6,0.000000,0.000000,0.507881,0,0,0,0,0,0,0
10,109999,98,100000,46,60000,40,9999,0.100000,0,0,0.000000,6,0.000000,0.000000,0.115239,0,0,0,0,0,0,0
10,109999,99,100000,46,60000,40,9999,0.100000,0,0,0.000000,6,0.000000,0.000000,1.005759,0,0,0,0,0,0,0
11,119999,0,110000,94,10000,40,9999,0.100000,0,0,0.000000,6,0.000000,0.000000,0.110364,0,0,0,0,0,0,0
11,119999,1,110000,46,60000,49,9999,0.100000,0,0,0.000000,6,1.000000,0.000000,8.416876,0,0,0,0,0,0,0
11,119999,2,110000,14,0,40,9999,0.100000,0,0,0.000000,6,0.000000,0.000000,0.645689,0,0,0,0,0,0,0
11,119999,3,110000,14,0,40,9999,0.100000,0,0,0.000000,6,0.000000,0.000000,0.114611,0,0,0,0,0,0,0
11,119999,4,110000,1,0,49,9999,0.100000,0,0,0.000000,6,3.000000,0.000000,4.578708,0,0,0,0,0,0,0
11,119999,5,110000,85,10000,49,9999,0.100000,0,0,0.000000,6,12.000000,0.000000,13.988097,0,0,0,0,0,0,0
11,119999,6,110000,1,0,40,9999,0.100000,0,0,0.000000,6,0.000000,0.000000,0.139189,0,0,0,0,0,0,0
11,119999,7,110000,85,10000,40,9999,0.100000,0,0,0.000000,6,0.000000,0.000000,0.099976,0,0,0,0,0,0,0
11,119999,8,110000,85,10000,40,9999,0.100000,0,0,0.000000,6,0.000000,0.000000,0.245798,0,0,0,0,0,0,0
11,119999,9,110000,85,10000,40,9999,0.100000,0,0,0.000000,6,0.000000,0.000000,3.231998,0,0,0,0,0,0,0
11,119999,10,110000,94,10000,40,9999,0.100000,0,0,0.000000,6,0.000000,0.000000,0.438539,0,0,0,0,0,0,0
11,119999,11,110000,14,0,40,9999,0.100000,0,0,0.000000,6,0.000000,0.000000,0.147441,0,0,0,0,0,0,0
11,119999,12,110000,94,10000,40,9999,0.100000,0,0,0.000000,6,0.000000,0.000000,0.209327,0,0,0,0,0,0,0
11,119999,13,110000,1,0,40,9999,0.100000,0,0,0.000000,6,0.000000,0.000000,0.493338,0,0,0,0,0,0,0
11,119999,14,110000,1,0,40,9999,0.100000,0,0,0.000000,6,0.000000,0.000000,2.946478,0,0,0,0,0,0,0
11,119999,15,110000,85,10000,40,9999,0.100000,0,0,0.000000,6,0.000000,0.000000,0.463089,0,0,0,0,0,0,0
11,119999,16,110000,46,60000,40,9999,0.100000,0,0,0.000000,6,0.000000,0.000000,3.753320,0,0,0,0,0,0,0
11,119999,17,110000,46,60000,40,9999,0.100000,0,0,0.000000,6,0.000000,0.000000,1.615301,0,0,0,0,0,0,0
11,119999,18,110000,85,80000,40,9999,0.100000,0,0,0.000000,6,0.000000,0.000000,0.069073,0,0,0,0,0,0,0
11,119999,19,110000,46,60000,40,9999,0.100000,0,0,0.000000,6,0.000000,0.000000,0.169499,0,0,0,0,0,0,0
11,119999,20,110000,85,80000,40,9999,0.100000,0,0,0.000000,6,0.000000,0.000000,0.673097,0,0,0,0,0,0,0
11,119999,21,110000,1,0,40,9999,0.100000,0,0,0.000000,6,0.000000,0.000000,0.354819,0,0,0,0,0,0,0
11,119999,22,110000,1,0,40,9999,0.100000,0,0,0.000000,6,0.000000,0.000000,0.205463,0,0,0,0,0,0,0
11,119999,23,110000,94,10000,40,9999,0.100000,0,0,0.000000,6,0.000000,0.000000,0.170279,0,0,0,0,0,0,0
11,119999,24,110000,85,80000,40,9999,0.100000,0,0,0.000000,6,0.000000,0.000000,0.097263,0,0,0,0,0,0,0
11,119999,25,110000,14,0,40,9999,0.135000,0,0,0.000000,6,0.000000,0.000000,0.083405,0,0,0,0,0,0,0
11,119999,26,110000,85,80000,40,9999,0.100000,0,0,0.000000,6,0.000000,0.000000,0.077889,0,0,0,0,0,0,0
11,119999,27,110000,85,10000,40,9999,0.100000,0,0,0.000000,6,0.000000,0.000000,0.083393,0,0,0,0,0,0,0
11,119999,28,110000,85,10000,40,9999,0.100000,0,0,0.000000,6,0.000000,0.000000,2.659394,0,0,0,0,0,0,0
11,119999,29,110000,46,60000,40,9999,0.100000,0,0,0.000000,6,0.000000,0.000000,0.271911,0,0,0,0,0,0,0
11,119999,30,110000,94,10000,40,9999,0.100000,0,0,0.000000,6,0.000000,0.000000,0.167526,0,0,0,0,0,0,0
11,119999,31,110000,94,10000,40,9999,0.100000,0,0,0.000000,6,0.000000,0.000000,1.781422,0,0,0,0,0,0,0
11,119999,32,110000,1,0,40,9999,0.100000,0,0,0.000000,6,0.000000,0.000000,0.580395,0,0,0,0,0,0,0
11,119999,33,110000,14,0,40,9999,0.100000,0,0,0.000000,6,0.000000,0.000000,1.276974,0,0,0,0,0,0,0
11,119999,34,110000,85,80000,49,9999,0.100000,0,0,0.000000,6,3.000000,0.000000,4.441625,0,0,0,0,0,0,0
11,119999,35,110000,85,10000,49,9999,0.100000,0,0,0.000000,6,1.000000,0.000000,5.331373,0,0,0,0,0,0,0
11,119999,36,110000,14,0,40,9999,0.100000,0,0,0.000000,6,0.000000,0.000000,0.138241,0,0,0,0,0,0,0
11,119999,37,110000,85,10000,40,9999,0.100000,0,0,0.000000,6,0.000000,0.000000,0.142514,0,0,0,0,0,0,0
11,119999,38,110000,1,0,40,9999,0.100000,0,0,0.000000,6,0.000000,0.000000,0.219808,0,0,0,0,0,0,0
11,119999,39,110000,1,0,40,9999,0.100000,0,0,0.000000,6,0.000000,0.000000,1.028718,0,0,0,0,0,0,0
11,119999,40,110000,94,10000,40,9999,0.100000,0,0,0.000000,6,0.000000,0.000000,0.616359,0,0,0,0,0,0,0
11,119999,41,110000,85,10000,40,9999,0.100000,0,0,0.000000,6,0.000000,0.000000,0.100323,0,0,0,0,0,0,0
11,119999,42,110000,46,60000,40,9999,0.100000,0,0,0.000000,6,0.000000,0.000000,0.194703,0,0,0,0,0,0,0
11,119999,43,110000,14,0,40,9999,0.100000,0,0,0.000000,6,0.000000,0.000000,0.243212,0,0,0,0,0,0,0
11,119999,44,110000,46,60000,40,9999,0.100000,0,0,0.000000,6,0.000000,0.000000,0.296423,0,0,0,0,0,0,0
11,119999,45,110000,94,10000,40,9999,0.100000,0,0,0.000000,6,0.000000,0.000000,0.099048,0,0,0,0,0,0,0
11,119999,46,110000,46,60000,40,9999,0.100000,0,0,0.000000,6,0.000000,0.000000,0.177130,0,0,0,0,0,0,0
11,119999,47,110000,1,0,40,9999,0.100000,0,0,0.000000,6,0.000000,0.000000,4.108481,0,0,0,0,0,0,0
11,119999,48,110000,46,60000,40,9999,0.065000,0,0,0.000000,6,0.000000,0.000000,0.099536,0,0,0,0,0,0,0
11,119999,49,110000,94,10000,40,9999,0.100000,0,0,0.000000,6,0.000000,0.000000,0.798625,0,0,0,0,0,0,0
11,119999,50,110000,46,60000,40,9999,0.100000,0,0,0.000000,6,0.000000,0.000000,0.157055,0,0,0,0,0,0,0
11,119999,51,110000,14,0,40,9999,0.100000,0,0,0.000000,6,0.000000,0.000000,1.020609,0,0,0,0,0,0,0
11,119999,52,110000,14,0,40,9999,0.065000,0,0,0.000000,6,0.000000,0.000000,0.099528,0,0,0,0,0,0,0
11,119999,53,110000,46,60000,49,9999,0.100000,0,0,0.000000,6,3.000000,0.000000,3.913247,0,0,0,0,0,0,0
11,119999,54,110000,1,0,40,9999,0.100000,0,0,0.000000,6,0.000000,0.000000,0.229084,0,0,0,0,0,0,0
11,119999,55,110000,85,10000,40,9999,0.100000,0,0,0.000000,6,0.000000,0.000000,0.375364,0,0,0,0,0,0,0
11,119999,56,110000,85,10000,40,9999,0.100000,0,0,0.000000,6,0.000000,0.000000,0.127950,0,0,0,0,0,0,0
11,119999,57,110000,1,0,40,9999,0.100000,0,0,0.000000,6,0.000000,0.000000,0.680665,0,0,0,0,0,0,0
11,119999,58,110000,1,0,40,9999,0.100000,0,0,0.000000,6,0.000000,0.000000,0.360355,0,0,0,0,0,0,0
11,119999,59,110000,85,10000,40,9999,0.100000,0,0,0.000000,6,0.000000,0.000000,0.781870,0,0,0,0,0,0,0
11,119999,60,110000,1,0,40,9999,0.100000,0,0,0.000000,6,0.000000,0.000000,3.731727,0,0,0,0,0,0,0
11,119999,61,110000,85,10000,40,9999,0.100000,0,0,0.000000,6,0.000000,0.000000,0.990449,0,0,0,0,0,0,0
11,119999,62,110000,1,0,40,9999,0.100000,0,0,0.000000,6,0.000000,0.000000,0.144849,0,0,0,0,0,0,0
11,119999,63,110000,94,10000,40,9999,0.100000,0,0,0.000000,6,0.000000,0.000000,0.488071,0,0,0,0,0,0,0
11,119999,64,110000,85,80000,40,9999,0.100000,0,0,0.000000,6,0.000000,0.000000,0.085308,0,0,0,0,0,0,0
11,119999,65,110000,85,10000,40,9999,0.100000,0,0,0.000000,6,0.000000,0.000000,0.079047,0,0,0,0,0,0,0
11,119999,66,110000,94,10000,40,9999,0.100000,0,0,0.000000,6,0.000000,0.000000,0.406624,0,0,0,0,0,0,0
11,119999,67,110000,46,60000,40,9999,0.100000,0,0,0.000000,6,0.000000,0.000000,0.252831,0,0,0,0,0,0,0
11,119999,68,110000,1,0,40,9999,0.100000,0,0,0.000000,6,0.000000,0.000000,0.237253,0,0,0,0,0,0,0
11,119999,69,110000,85,10000,40,9999,0.100000,0,0,0.000000,6,0.000000,0.000000,0.091603,0,0,0,0,0,0,0
11,119999,70,110000,46,60000,40,9999,0.100000,0,0,0.000000,6,0.000000,0.000000,0.106015,0,0,0,0,0,0,0
11,119999,71,110000,46,60000,40,9999,0.100000,0,0,0.000000,6,0.000000,0.000000,0.114394,0,0,0,0,0,0,0
11,119999,72,110000,85,10000,40,9999,0.100000,0,0,0.000000,6,0.000000,0.000000,0.131180,0,0,0,0,0,0,0
11,119999,73,110000,1,0,40,9999,0.100000,0,0,0.000000,6,0.000000,0.000000,1.640911,0,0,0,0,0,0,0
11,119999,74,110000,46,60000,49,9999,0.100000,0,0,0.000000,6,5.000000,0.000000,14.429995,0,0,0,0,0,0,0
11,119999,75,110000,46,60000,49,9999,0.100000,0,0,0.000000,6,3.000000,0.000000,6.043943,0,0,0,0,0,0,0
11,119999,76,110000,85,80000,49,9999,0.100000,0,0,0.000000,6,2.000000,0.000000,5.350684,0,0,0,0,0,0,0
11,119999,77,110000,85,10000,40,9999,0.100000,0,0,0.000000,6,0.000000,0.000000,0.649561,0,0,0,0,0,0,0
11,119999,78,110000,1,0,40,9999,0.100000,0,0,0.000000,6,0.000000,0.000000,0.322810,0,0,0,0,0,0,0
11,119999,79,110000,94,10000,40,9999,0.100000,0,0,0.000000,6,0.000000,0.000000,0.689134,0,0,0,0,0,0,0
11,119999,80,110000,46,60000,40,9999,0.100000,0,0,0.000000,6,0.000000,0.000000,2.812640,0,0,0,0,0,0,0
11,119999,81,110000,46,60000,40,9999,0.100000,0,0,0.000000,6,0.000000,0.000000,2.956909,0,0,0,0,0,0,0
11,119999,82,110000,94,10000,40,9999,0.100000,0,0,0.000000,6,0.000000,0.000000,0.453388,0,0,0,0,0,0,0
11,119999,83,110000,14,0,40,9999,0.100000,0,0,0.000000,6,0.000000,0.000000,0.107192,0,0,0,0,0,0,0
11,119999,84,110000,94,10000,40,9999,0.100000,0,0,0.000000,6,0.000000,0.000000,1.058054,0,0,0,0,0,0,0
11,119999,85,110000,1,0,40,9999,0.100000,0,0,0.000000,6,0.000000,0.000000,0.089850,0,0,0,0,0,0,0
11,119999,86,110000,14,0,40,9999,0.100000,0,0,0.000000,6,0.000000,0.000000,0.221272,0,0,0,0,0,0,0
11,119999,87,110000,94,10000,40,9999,0.100000,0,0,0.000000,6,0.000000,0.000000,23.947183,0,0,0,0,0,0,0
11,119999,88,110000,14,0,40,9999,0.100000,0,0,0.000000,6,0.000000,0.000000,0.949361,0,0,0,0,0,0,0
11,119999,89,110000,85,80000,40,9999,0.100000,0,0,0.000000,6,0.000000,0.000000,0.517445,0,0,0,0,0,0,0
11,119999,90,110000,85,10000,40,9999,0.100000,0,0,0.000000,6,0.000000,0.000000,0.884393,0,0,0,0,0,0,0
11,119999,91,110000,85,80000,40,9999,0.100000,0,0,0.000000,6,0.000000,0.000000,0.171769,0,0,0,0,0,0,0
11,119999,92,110000,85,80000,40,9999,0.100000,0,0,0.000000,6,0.000000,0.000000,0.164823,0,0,0,0,0,0,0
11,119999,93,110000,1,0,49,9999,0.100000,0,0,0.000000,6,4.000000,0.000000,17.506515,0,0,0,0,0,0,0
11,119999,94,110000,1,0,40,9999,0.100000,0,0,0.000000,6,0.000000,0.000000,0.082568,0,0,0,0,0,0,0
11,119999,95,110000,94,10000,40,9999,0.100000,0,0,0.000000,6,0.000000,0.000000,0.246049,0,0,0,0,0,0,0
11,119999,96,110000,85,80000,40,9999,0.100000,0,0,0.000000,6,0.000000,0.000000,0.235828,0,0,0,0,0,0,0
11,119999,97,110000,14,0,49,9999,0.100000,0,0,0.000000,6,6.000000,0.000000,13.985241,0,0,0,0,0,0,0
11,119999,98,110000,94,10000,40,9999,0.100000,0,0,0.000000,6,0.000000,0.000000,0.095158,0,0,0,0,0,0,0
11,119999,99,110000,85,10000,40,9999,0.100000,0,0,0.000000,6,0.000000,0.000000,0.819900,0,0,0,0,0,0,0
12,129999,0,120000,85,10000,40,9999,0.100000,0,0,0.000000,6,0.000000,0.000000,0.088138,0,0,0,0,0,0,0
12,129999,1,120000,85,80000,40,9999,0.100000,0,0,0.000000,6,0.000000,0.000000,4.257562,0,0,0,0,0,0,0
12,129999,2,120000,14,0,40,9999,0.100000,0,0,0.000000,6,0.000000,0.000000,0.735058,0,0,0,0,0,0,0
12,129999,3,120000,85,10000,40,9999,0.100000,0,0,0.000000,6,0.000000,0.000000,0.147681,0,0,0,0,0,0,0
12,129999,4,120000,14,0,40,9999,0.100000,0,0,0.000000,6,0.000000,0.000000,0.235560,0,0,0,0,0,0,0
12,129999,5,120000,14,0,40,9999,0.100000,0,0,0.000000,6,0.000000,0.000000,0.176707,0,0,0,0,0,0,0
12,129999,6,120000,85,80000,40,9999,0.100000,0,0,0.000000,6,0.000000,0.000000,0.147535,0,0,0,0,0,0,0
12,129999,7,120000,46,60000,40,9999,0.100000,0,0,0.000000,6,0.000000,0.000000,0.104842,0,0,0,0,0,0,0
12,129999,8,120000,1,0,40,9999,0.100000,0,0,0.000000,6,0.000000,0.000000,0.252733,0,0,0,0,0,0,0
12,129999,9,120000,85,10000,40,9999,0.100000,0,0,0.000000,6,0.000000,0.000000,1.879167,0,0,0,0,0,0,0
12,129999,10,120000,46,60000,40,9999,0.100000,0,0,0.000000,6,0.000000,0.000000,0.436930,0,0,0,0,0,0,0
12,129999,11,120000,85,10000,40,9999,0.100000,0,0,0.000000,6,0.000000,0.000000,0.146212,0,0,0,0,0,0,0
12,129999,12,120000,85,10000,40,9999,0.100000,0,0,0.000000,6,0.000000,0.000000,0.210774,0,0,0,0,0,0,0
12,129999,13,120000,85,10000,40,9999,0.100000,0,0,0.000000,6,0.000000,0.000000,0.601307,0,0,0,0,0,0,0
12,129999,14,120000,46,60000,40,9999,0.100000,0,0,0.000000,6,0.000000,0.000000,5.292553,0,0,0,0,0,0,0
12,129999,15,120000,14,0,40,9999,0.100000,0,0,0.000000,6,0.000000,0.000000,0.533201,0,0,0,0,0,0,0
12,129999,16,120000,1,0,40,9999,0.100000,0,0,0.000000,6,0.000000,0.000000,0.248201,0,0,0,0,0,0,0
12,129999,17,120000,14,0,40,9999,0.100000,0,0,0.000000,6,0.000000,0.000000,1.404223,0,0,0,0,0,0,0
12,129999,18,120000,85,10000,40,9999,0.100000,0,0,0.000000,6,0.000000,0.000000,0.070261,0,0,0,0,0,0,0
12,129999,19,120000,46,60000,40,9999,0.100000,0,0,0.000000,6,0.000000,0.000000,0.165204,0,0,0,0,0,0,0
12,129999,20,120000,14,0,40,9999,0.100000,0,0,0.000000,6,0.000000,0.000000,0.943249,0,0,0,0,0,0,0
12,129999,21,120000,14,0,40,9999,0.100000,0,0,0.000000,6,0.000000,0.000000,0.546233,0,0,0,0,0,0,0
12,129999,22,120000,46,60000,40,9999,0.100000,0,0,0.000000,6,0.000000,0.000000,0.168383,0,0,0,0,0,0,0
12,129999,23,120000,14,0,40,9999,0.100000,0,0,0.000000,6,0.000000,0.000000,0.170846,0,0,0,0,0,0,0
12,129999,24,120000,14,0,40,9999,0.100000,0,0,0.000000,6,0.000000,0.000000,0.088371,0,0,0,0,0,0,0
12,129999,25,120000,94,10000,40,9999,0.100000,0,0,0.000000,6,0.000000,0.000000,0.080687,0,0,0,0,0,0,0
12,129999,26,120000,94,10000,40,9999,0.100000,0,0,0.000000,6,0.000000,0.000000,0.086421,0,0,0,0,0,0,0
12,129999,27,120000,94,10000,40,9999,0.100000,0,0,0.000000,6,0.000000,0.000000,0.369559,0,0,0,0,0,0,0
12,129999,28,120000,85,80000,40,9999,0.100000,0,0,0.000000,6,0.000000,0.000000,2.766990,0,0,0,0,0,0,0
12,129999,29,120000,94,10000,40,9999,0.100000,0,0,0.000000,6,0.000000,0.000000,0.278690,0,0,0,0,0,0,0
12,129999,30,120000,14,0,40,9999,0.100000,0,0,0.000000,6,0.000000,0.000000,0.160018,0,0,0,0,0,0,0
12,129999,31,120000,85,80000,49,9999,0.100000,0,0,0.000000,6,1.000000,0.000000,1.349957,0,0,0,0,0,0,0
12,129999,32,120000,85,10000,40,9999,0.100000,0,0,0.000000,6,0.000000,0.000000,0.721152,0,0,0,0,0,0,0
