generation,iteration,robot,birthday,ancestor_id,ancestor_birthday,cell_id,age,sigma,maps,genomes,fitness,cells_in_map,dist_max,dist_pot_max,dist_total,com_rx,com_tx,obj_group1,obj_group2,obj_group3,obj_group4,obj_group5
0,9999,0,0,0,0,9,9999,0.100000,0,0,0.000000,0,11.000000,0.000000,13.686378,0,0,0,0,1,0,0
0,9999,1,0,1,0,49,9999,0.100000,0,0,0.000000,0,9.000000,0.000000,11.917090,0,0,0,0,0,0,0
0,9999,2,0,2,0,49,9999,0.100000,0,0,0.000000,0,2.000000,0.000000,15.425119,0,0,0,0,0,0,0
0,9999,3,0,3,0,49,9999,0.100000,0,0,0.000000,0,3.000000,0.000000,13.947677,0,0,0,0,0,0,0
0,9999,4,0,4,0,49,9999,0.100000,0,0,0.000000,0,9.000000,0.000000,31.400479,0,0,0,0,0,0,0
0,9999,5,0,5,0,49,9999,0.100000,0,0,0.000000,0,9.000000,0.000000,21.134548,0,0,0,0,0,0,0
0,9999,6,0,6,0,49,9999,0.100000,0,0,0.000000,0,7.000000,0.000000,17.221052,0,0,0,0,0,0,0
0,9999,7,0,7,0,49,9999,0.100000,0,0,0.000000,0,8.000000,0.000000,15.293794,0,0,0,0,0,0,0
0,9999,8,0,8,0,49,9999,0.100000,0,0,0.000000,0,5.000000,0.000000,12.925343,0,0,0,0,0,0,0
0,9999,9,0,9,0,99,9999,0.100000,0,0,47.368421,0,9.000000,0.000000,26.899529,0,0,1,0,0,0,0
0,9999,10,0,10,0,99,9999,0.100000,0,0,47.368421,0,8.000000,0.000000,25.521145,0,0,1,0,0,0,0
0,9999,11,0,11,0,49,9999,0.100000,0,0,0.000000,0,9.000000,0.000000,18.948803,0,0,0,0,0,0,0
0,9999,12,0,12,0,49,9999,0.100000,0,0,0.000000,0,10.000000,0.000000,15.871173,0,0,0,0,0,0,0
0,9999,13,0,13,0,49,9999,0.100000,0,0,0.000000,0,9.000000,0.000000,18.418612,0,0,0,0,0,0,0
0,9999,14,0,14,0,49,9999,0.100000,0,0,0.000000,0,12.000000,0.000000,21.844410,0,0,0,0,0,0,0
0,9999,15,0,15,0,49,9999,0.100000,0,0,0.000000,0,10.000000,0.000000,24.784327,0,0,0,0,0,0,0
0,9999,16,0,16,0,49,9999,0.100000,0,0,0.000000,0,10.000000,0.000000,20.633348,0,0,0,0,0,0,0
0,9999,17,0,17,0,49,9999,0.100000,0,0,0.000000,0,6.000000,0.000000,13.187224,0,0,0,0,0,0,0
0,9999,18,0,18,0,99,9999,0.100000,0,0,47.368421,0,10.000000,0.000000,30.152625,0,0,1,0,0,0,0
0,9999,19,0,19,0,49,9999,0.100000,0,0,0.000000,0,6.000000,0.000000,10.075205,0,0,0,0,0,0,0
0,9999,20,0,20,0,49,9999,0.100000,0,0,0.000000,0,2.000000,0.000000,9.037426,0,0,0,0,0,0,0
0,9999,21,0,21,0,49,9999,0.100000,0,0,0.000000,0,3.000000,0.000000,9.991821,0,0,0,0,0,0,0
0,9999,22,0,22,0,49,9999,0.100000,0,0,0.000000,0,7.000000,0.000000,21.000927,0,0,0,0,0,0,0
0,9999,23,0,23,0,49,9999,0.100000,0,0,0.000000,0,9.000000,0.000000,17.088386,0,0,0,0,0,0,0
0,9999,24,0,24,0,49,9999,0.100000,0,0,0.000000,0,7.000000,0.000000,14.357371,0,0,0,0,0,0,0
0,9999,25,0,25,0,49,9999,0.100000,0,0,0.000000,0,4.000000,0.000000,13.314914,0,0,0,0,0,0,0
0,9999,26,0,26,0,49,9999,0.100000,0,0,0.000000,0,7.000000,0.000000,18.061336,0,0,0,0,0,0,0
0,9999,27,0,27,0,49,9999,0.100000,0,0,0.000000,0,7.000000,0.000000,17.297281,0,0,0,0,0,0,0
0,9999,28,0,28,0,49,9999,0.100000,0,0,0.000000,0,13.000000,0.000000,27.407939,0,0,0,0,0,0,0
0,9999,29,0,29,0,49,9999,0.100000,0,0,0.000000,0,8.000000,0.000000,12.299189,0,0,0,0,0,0,0
0,9999,30,0,30,0,49,9999,0.100000,0,0,0.000000,0,5.000000,0.000000,15.724937,0,0,0,0,0,0,0
0,9999,31,0,31,0,49,9999,0.100000,0,0,0.000000,0,5.000000,0.000000,15.078424,0,0,0,0,0,0,0
0,9999,32,0,32,0,99,9999,0.100000,0,0,94.736842,0,12.000000,0.000000,35.682397,0,0,2,0,0,0,0
0,9999,33,0,33,0,49,9999,0.100000,0,0,0.000000,0,9.000000,0.000000,17.651234,0,0,0,0,0,0,0
0,9999,34,0,34,0,49,9999,0.100000,0,0,0.000000,0,12.000000,0.000000,17.725405,0,0,0,0,0,0,0
0,9999,35,0,35,0,99,9999,0.100000,0,0,47.368421,0,8.000000,0.000000,26.071743,0,0,1,0,0,0,0
0,9999,36,0,36,0,49,9999,0.100000,0,0,0.000000,0,8.000000,0.000000,19.924135,0,0,0,0,0,0,0
0,9999,37,0,37,0,49,9999,0.100000,0,0,0.000000,0,8.000000,0.000000,17.349247,0,0,0,0,0,0,0
0,9999,38,0,38,0,49,9999,0.100000,0,0,0.000000,0,12.000000,0.000000,21.520625,0,0,0,0,0,0,0
0,9999,39,0,39,0,49,9999,0.100000,0,0,0.000000,0,12.000000,0.000000,20.091812,0,0,0,0,0,0,0
0,9999,40,0,40,0,49,9999,0.100000,0,0,0.000000,0,4.000000,0.000000,4.551850,0,0,0,0,0,0,0
0,9999,41,0,41,0,49,9999,0.100000,0,0,0.000000,0,7.000000,0.000000,15.904176,0,0,0,0,0,0,0
0,9999,42,0,42,0,49,9999,0.100000,0,0,0.000000,0,10.000000,0.000000,15.777402,0,0,0,0,0,0,0
0,9999,43,0,43,0,99,9999,0.100000,0,0,47.368421,0,9.000000,0.000000,14.061897,0,0,1,0,0,0,0
0,9999,44,0,44,0,99,9999,0.100000,0,0,47.368421,0,8.000000,0.000000,18.944217,0,0,1,0,0,0,0
0,9999,45,0,45,0,49,9999,0.100000,0,0,0.000000,0,10.000000,0.000000,15.463084,0,0,0,0,0,0,0
0,9999,46,0,46,0,49,9999,0.100000,0,0,0.000000,0,11.000000,0.000000,21.041980,0,0,0,0,0,0,0
0,9999,47,0,47,0,49,9999,0.100000,0,0,0.000000,0,10.000000,0.000000,23.223133,0,0,0,0,0,0,0
0,9999,48,0,48,0,49,9999,0.100000,0,0,0.000000,0,12.000000,0.000000,35.244854,0,0,0,0,0,0,0
0,9999,49,0,49,0,49,9999,0.100000,0,0,0.000000,0,9.000000,0.000000,25.430623,0,0,0,0,0,0,0
0,9999,50,0,50,0,49,9999,0.100000,0,0,0.000000,0,3.000000,0.000000,5.133112,0,0,0,0,0,0,0
0,9999,51,0,51,0,40,9999,0.100000,0,0,0.000000,0,0.000000,0.000000,2.474292,0,0,0,0,0,0,0
0,9999,52,0,52,0,49,9999,0.100000,0,0,0.000000,0,7.000000,0.000000,13.808854,0,0,0,0,0,0,0
0,9999,53,0,53,0,49,9999,0.100000,0,0,0.000000,0,10.000000,0.000000,16.872045,0,0,0,0,0,0,0
0,9999,54,0,54,0,49,9999,0.100000,0,0,0.000000,0,11.000000,0.000000,21.140481,0,0,0,0,0,0,0
0,9999,55,0,55,0,49,9999,0.100000,0,0,0.000000,0,8.000000,0.000000,10.651602,0,0,0,0,0,0,0
0,9999,56,0,56,0,49,9999,0.100000,0,0,0.000000,0,10.000000,0.000000,19.693032,0,0,0,0,0,0,0
0,9999,57,0,57,0,49,9999,0.100000,0,0,0.000000,0,6.000000,0.000000,15.403770,0,0,0,0,0,0,0
0,9999,58,0,58,0,99,9999,0.100000,0,0,47.368421,0,10.000000,0.000000,27.126215,0,0,1,0,0,0,0
0,9999,59,0,59,0,49,9999,0.100000,0,0,0.000000,0,8.000000,0.000000,12.646066,0,0,0,0,0,0,0
0,9999,60,0,60,0,49,9999,0.100000,0,0,0.000000,0,9.000000,0.000000,14.978053,0,0,0,0,0,0,0
0,9999,61,0,61,0,49,9999,0.100000,0,0,0.000000,0,11.000000,0.000000,22.880078,0,0,0,0,0,0,0
0,9999,62,0,62,0,49,9999,0.100000,0,0,0.000000,0,9.000000,0.000000,17.839204,0,0,0,0,0,0,0
0,9999,63,0,63,0,49,9999,0.100000,0,0,0.000000,0,9.000000,0.000000,29.419866,0,0,0,0,0,0,0
0,9999,64,0,64,0,49,9999,0.100000,0,0,0.000000,0,9.000000,0.000000,14.083574,0,0,0,0,0,0,0
0,9999,65,0,65,0,49,9999,0.100000,0,0,0.000000,0,8.000000,0.000000,17.542097,0,0,0,0,0,0,0
0,9999,66,0,66,0,49,9999,0.100000,0,0,0.000000,0,2.000000,0.000000,15.448823,0,0,0,0,0,0,0
0,9999,67,0,67,0,49,9999,0.100000,0,0,0.000000,0,9.000000,0.000000,19.851738,0,0,0,0,0,0,0
0,9999,68,0,68,0,49,9999,0.100000,0,0,0.000000,0,8.000000,0.000000,18.353549,0,0,0,0,0,0,0
0,9999,69,0,69,0,49,9999,0.100000,0,0,0.000000,0,3.000000,0.000000,4.999394,0,0,0,0,0,0,0
0,9999,70,0,70,0,49,9999,0.100000,0,0,0.000000,0,7.000000,0.000000,14.590797,0,0,0,0,0,0,0
0,9999,71,0,71,0,49,9999,0.100000,0,0,0.000000,0,5.000000,0.000000,12.533746,0,0,0,0,0,0,0
0,9999,72,0,72,0,49,9999,0.100000,0,0,0.000000,0,10.000000,0.000000,17.019404,0,0,0,0,0,0,0
0,9999,73,0,73,0,49,9999,0.100000,0,0,0.000000,0,1.000000,0.000000,7.019775,0,0,0,0,0,0,0
0,9999,74,0,74,0,49,9999,0.100000,0,0,0.000000,0,6.000000,0.000000,16.216895,0,0,0,0,0,0,0
0,9999,75,0,75,0,99,9999,0.100000,0,0,47.368421,0,10.000000,0.000000,23.458770,0,0,1,0,0,0,0
0,9999,76,0,76,0,49,9999,0.100000,0,0,0.000000,0,6.000000,0.000000,12.956280,0,0,0,0,0,0,0
0,9999,77,0,77,0,99,9999,0.100000,0,0,47.368421,0,11.000000,0.000000,39.454332,0,0,1,0,0,0,0
0,9999,78,0,78,0,49,9999,0.100000,0,0,0.000000,0,9.000000,0.000000,14.542054,0,0,0,0,0,0,0
0,9999,79,0,79,0,99,9999,0.100000,0,0,47.368421,0,10.000000,0.000000,29.872143,0,0,1,0,0,0,0
0,9999,80,0,80,0,49,9999,0.100000,0,0,0.000000,0,8.000000,0.000000,12.164714,0,0,0,0,0,0,0
0,9999,81,0,81,0,49,9999,0.100000,0,0,0.000000,0,9.000000,0.000000,19.538804,0,0,0,0,0,0,0
0,9999,82,0,82,0,49,9999,0.100000,0,0,0.000000,0,13.000000,0.000000,23.002962,0,0,0,0,0,0,0
0,9999,83,0,83,0,49,9999,0.100000,0,0,0.000000,0,7.000000,0.000000,14.752340,0,0,0,0,0,0,0
0,9999,84,0,84,0,49,9999,0.100000,0,0,0.000000,0,7.000000,0.000000,18.133413,0,0,0,0,0,0,0
0,9999,85,0,85,0,49,9999,0.100000,0,0,0.000000,0,1.000000,0.000000,11.482812,0,0,0,0,0,0,0
0,9999,86,0,86,0,49,9999,0.100000,0,0,0.000000,0,8.000000,0.000000,17.452192,0,0,0,0,0,0,0
0,9999,87,0,87,0,49,9999,0.100000,0,0,0.000000,0,6.000000,0.000000,8.027937,0,0,0,0,0,0,0
0,9999,88,0,88,0,49,9999,0.100000,0,0,0.000000,0,5.000000,0.000000,9.965062,0,0,0,0,0,0,0
0,9999,89,0,89,0,49,9999,0.100000,0,0,0.000000,0,1.000000,0.000000,5.682833,0,0,0,0,0,0,0
0,9999,90,0,90,0,49,9999,0.100000,0,0,0.000000,0,11.000000,0.000000,20.868163,0,0,1,0,0,1,0
0,9999,91,0,91,0,49,9999,0.100000,0,0,0.000000,0,8.000000,0.000000,11.784071,0,0,0,0,0,0,0
0,9999,92,0,92,0,49,9999,0.100000,0,0,0.000000,0,4.000000,0.000000,14.380542,0,0,0,0,0,0,0
0,9999,93,0,93,0,99,9999,0.100000,0,0,47.368421,0,8.000000,0.000000,18.970624,0,0,1,0,0,0,0
0,9999,94,0,94,0,49,9999,0.100000,0,0,0.000000,0,2.000000,0.000000,7.062687,0,0,0,0,0,0,0
0,9999,95,0,95,0,49,9999,0.100000,0,0,0.000000,0,4.000000,0.000000,16.624490,0,0,0,0,0,0,0
0,9999,96,0,96,0,49,9999,0.100000,0,0,0.000000,0,12.000000,0.000000,25.198707,0,0,0,0,0,0,0
0,9999,97,0,97,0,49,9999,0.100000,0,0,0.000000,0,12.000000,0.000000,30.100918,0,0,0,0,0,0,0
0,9999,98,0,98,0,49,9999,0.100000,0,0,0.000000,0,9.000000,0.000000,15.282695,0,0,0,0,0,0,0
0,9999,99,0,99,0,49,9999,0.100000,0,0,0.000000,0,6.000000,0.000000,8.921305,0,0,0,0,0,0,0
1,19999,0,0,0,0,0,19999,0.100000,0,0,0.000000,1,0.000000,0.000000,2.243007,0,0,0,0,1,0,0
1,19999,1,10000,1,0,49,9999,0.100000,0,0,0.000000,3,2.000000,0.000000,2.775654,0,0,0,0,0,0,0
1,19999,2,10000,5,0,40,9999,0.100000,0,0,0.000000,3,0.000000,0.000000,0.720858,0,0,0,0,0,0,0
1,19999,3,10000,55,0,49,9999,0.100000,0,0,0.000000,3,1.000000,0.000000,10.519451,0,0,0,0,0,0,0
1,19999,4,10000,1,0,49,9999,0.100000,0,0,0.000000,3,2.000000,0.000000,5.885630,0,0,0,0,0,0,0
1,19999,5,0,5,0,49,19999,0.100000,0,0,0.000000,2,4.000000,0.000000,10.971768,0,0,0,0,0,0,0
1,19999,6,10000,5,0,49,9999,0.100000,0,0,0.000000,3,2.000000,0.000000,12.552919,0,0,0,0,0,0,0
1,19999,7,10000,32,0,40,9999,0.100000,0,0,0.000000,3,0.000000,0.000000,0.301598,0,0,0,0,0,0,0
1,19999,8,10000,32,0,49,9999,0.100000,0,0,0.000000,3,1.000000,0.000000,8.496737,0,0,0,0,0,0,0
1,19999,9,10000,5,0,49,9999,0.100000,0,0,0.000000,3,2.000000,0.000000,7.673224,0,0,0,0,0,0,0
1,19999,10,10000,5,0,49,9999,0.100000,0,0,0.000000,3,1.000000,0.000000,7.309401,0,0,0,0,0,0,0
1,19999,11,10000,5,0,49,9999,0.100000,0,0,0.000000,3,4.000000,0.000000,10.442195,0,0,0,0,0,0,0
1,19999,12,10000,32,0,40,9999,0.100000,0,0,0.000000,3,0.000000,0.000000,3.628497,0,0,0,0,0,0,0
1,19999,13,10000,32,0,49,9999,0.100000,0,0,0.000000,3,8.000000,0.000000,10.042192,0,0,0,0,0,0,0
1,19999,14,10000,32,0,49,9999,0.100000,0,0,0.000000,3,1.000000,0.000000,12.379027,0,0,0,0,0,0,0
1,19999,15,10000,55,0,99,9999,0.100000,0,0,34.210526,3,4.000000,0.000000,7.346071,0,0,1,0,0,0,0
1,19999,16,10000,55,0,49,9999,0.100000,0,0,0.000000,3,6.000000,0.000000,21.176153,0,0,0,0,0,0,0
1,19999,17,10000,5,0,40,9999,0.100000,0,0,0.000000,3,0.000000,0.000000,1.113225,0,0,0,0,0,0,0
1,19999,18,10000,80,0,40,9999,0.100000,0,0,0.000000,3,0.000000,0.000000,7.341053,0,0,0,0,0,0,0
1,19999,19,10000,72,0,40,9999,0.100000,0,0,0.000000,3,0.000000,0.000000,0.884494,0,0,0,0,0,0,0
1,19999,20,10000,0,0,49,9999,0.100000,0,0,0.000000,2,1.000000,0.000000,4.482721,0,0,0,0,0,0,0
1,19999,21,10000,5,0,49,9999,0.100000,0,0,0.000000,3,1.000000,0.000000,6.048776,0,0,0,0,0,0,0
1,19999,22,10000,5,0,40,9999,0.100000,0,0,0.000000,3,0.000000,0.000000,5.310533,0,0,0,0,0,0,0
1,19999,23,10000,72,0,49,9999,0.100000,0,0,0.000000,3,1.000000,0.000000,15.598397,0,0,0,0,0,0,0
1,19999,24,10000,5,0,40,9999,0.100000,0,0,0.000000,3,0.000000,0.000000,6.761195,0,0,0,0,0,0,0
1,19999,25,10000,5,0,40,9999,0.100000,0,0,0.000000,3,0.000000,0.000000,0.669571,0,0,0,0,0,0,0
1,19999,26,10000,5,0,40,9999,0.100000,0,0,0.000000,3,0.000000,0.000000,3.648148,0,0,0,0,0,0,0
1,19999,27,10000,5,0,40,9999,0.100000,0,0,0.000000,3,0.000000,0.000000,0.705615,0,0,0,0,0,0,0
1,19999,28,10000,5,0,49,9999,0.100000,0,0,0.000000,3,15.000000,0.000000,19.301931,0,0,0,0,0,0,0
1,19999,29,10000,32,0,49,9999,0.100000,0,0,0.000000,3,1.000000,0.000000,2.049486,0,0,0,0,0,0,0
1,19999,30,10000,32,0,40,9999,0.100000,0,0,0.000000,3,0.000000,0.000000,8.259424,0,0,0,0,0,0,0
1,19999,31,10000,55,0,49,9999,0.100000,0,0,0.000000,3,1.000000,0.000000,8.826703,0,0,0,0,0,0,0
1,19999,32,10000,32,0,49,9999,0.100000,0,0,0.000000,3,1.000000,0.000000,7.359089,0,0,0,0,0,0,0
1,19999,33,0,33,0,40,19999,0.100000,0,0,0.000000,3,0.000000,0.000000,4.869306,0,0,0,0,0,0,0
1,19999,34,10000,32,0,49,9999,0.100000,0,0,0.000000,3,3.000000,0.000000,6.294180,0,0,0,0,0,0,0
1,19999,35,10000,5,0,49,9999,0.100000,0,0,0.000000,3,3.000000,0.000000,8.239493,0,0,0,0,0,0,0
1,19999,36,0,36,0,49,19999,0.100000,0,0,0.000000,3,3.000000,0.000000,13.258540,0,0,0,0,0,0,0
1,19999,37,10000,32,0,49,9999,0.100000,0,0,0.000000,3,3.000000,0.000000,9.636418,0,0,0,0,0,0,0
1,19999,38,10000,5,0,40,9999,0.100000,0,0,0.000000,3,0.000000,0.000000,1.013839,0,0,0,0,0,0,0
1,19999,39,10000,72,0,49,9999,0.100000,0,0,0.000000,3,3.000000,0.000000,10.041352,0,0,0,0,0,0,0
1,19999,40,10000,5,0,40,9999,0.100000,0,0,0.000000,3,0.000000,0.000000,0.576071,0,0,0,0,0,0,0
1,19999,41,10000,55,0,49,9999,0.100000,0,0,0.000000,3,1.000000,0.000000,1.613072,0,0,0,0,0,0,0
1,19999,42,10000,32,0,49,9999,0.100000,0,0,0.000000,3,1.000000,0.000000,2.817004,0,0,0,0,0,0,0
1,19999,43,10000,32,0,49,9999,0.100000,0,0,0.000000,3,2.000000,0.000000,8.393783,0,0,0,0,0,0,0
1,19999,44,10000,32,0,49,9999,0.100000,0,0,0.000000,3,4.000000,0.000000,10.077892,0,0,0,0,0,0,0
1,19999,45,10000,55,0,49,9999,0.100000,0,0,0.000000,3,5.000000,0.000000,15.892858,0,0,0,0,0,0,0
1,19999,46,10000,5,0,49,9999,0.100000,0,0,0.000000,3,1.000000,0.000000,2.012931,0,0,0,0,0,0,0
1,19999,47,10000,5,0,49,9999,0.100000,0,0,0.000000,3,5.000000,0.000000,10.091284,0,0,0,0,0,0,0
1,19999,48,10000,55,0,99,9999,0.100000,0,0,34.210526,3,8.000000,0.000000,21.752425,0,0,1,0,0,0,0
1,19999,49,10000,72,0,40,9999,0.100000,0,0,0.000000,3,0.000000,0.000000,14.675178,0,0,0,0,0,0,0
1,19999,50,10000,32,0,40,9999,0.100000,0,0,0.000000,3,0.000000,0.000000,0.754368,0,0,0,0,0,0,0
1,19999,51,10000,72,0,40,9999,0.100000,0,0,0.000000,4,0.000000,0.000000,0.694477,0,0,0,0,0,0,0
1,19999,52,0,52,0,40,19999,0.100000,0,0,0.000000,3,0.000000,0.000000,5.088135,0,0,0,0,0,0,0
1,19999,53,10000,5,0,99,9999,0.100000,0,0,34.210526,3,14.000000,0.000000,27.543626,0,0,1,0,0,0,0
1,19999,54,10000,32,0,40,9999,0.100000,0,0,0.000000,3,0.000000,0.000000,1.312381,0,0,0,0,0,0,0
1,19999,55,10000,5,0,49,9999,0.100000,0,0,0.000000,3,1.000000,0.000000,1.362421,0,0,0,0,0,0,0
1,19999,56,10000,32,0,49,9999,0.100000,0,0,0.000000,3,2.000000,0.000000,8.262527,0,0,0,0,0,0,0
1,19999,57,10000,5,0,40,9999,0.100000,0,0,0.000000,2,0.000000,0.000000,4.371242,0,0,0,0,0,0,0
1,19999,58,10000,32,0,49,9999,0.100000,0,0,0.000000,3,2.000000,0.000000,11.411263,0,0,0,0,0,0,0
1,19999,59,10000,32,0,49,9999,0.100000,0,0,0.000000,3,1.000000,0.000000,6.896695,0,0,0,0,0,0,0
1,19999,60,10000,32,0,49,9999,0.100000,0,0,0.000000,3,1.000000,0.000000,7.877101,0,0,0,0,0,0,0
1,19999,61,10000,32,0,49,9999,0.100000,0,0,0.000000,3,4.000000,0.000000,9.793305,0,0,0,0,0,0,0
1,19999,62,10000,1,0,49,9999,0.100000,0,0,0.000000,3,2.000000,0.000000,6.756229,0,0,0,0,0,0,0
1,19999,63,10000,32,0,49,9999,0.100000,0,0,0.000000,3,4.000000,0.000000,5.209346,0,0,0,0,0,0,0
1,19999,64,10000,55,0,49,9999,0.100000,0,0,0.000000,3,2.000000,0.000000,4.335615,0,0,0,0,0,0,0
1,19999,65,10000,32,0,49,9999,0.100000,0,0,0.000000,3,4.000000,0.000000,10.245103,0,0,0,0,0,0,0
1,19999,66,10000,80,0,49,9999,0.100000,0,0,0.000000,3,2.000000,0.000000,4.950070,0,0,0,0,0,0,0
1,19999,67,10000,5,0,49,9999,0.100000,0,0,0.000000,3,1.000000,0.000000,13.188931,0,0,0,0,0,0,0
1,19999,68,10000,1,0,40,9999,0.100000,0,0,0.000000,3,0.000000,0.000000,21.291112,0,0,0,0,0,0,0
1,19999,69,10000,1,0,40,9999,0.100000,0,0,0.000000,3,0.000000,0.000000,0.291554,0,0,0,0,0,0,0
1,19999,70,10000,72,0,40,9999,0.100000,0,0,0.000000,3,0.000000,0.000000,0.834387,0,0,0,0,0,0,0
1,19999,71,10000,80,0,49,9999,0.100000,0,0,0.000000,3,1.000000,0.000000,13.750485,0,0,0,0,0,0,0
1,19999,72,10000,72,0,40,9999,0.100000,0,0,0.000000,3,0.000000,0.000000,1.084431,0,0,0,0,0,0,0
1,19999,73,10000,32,0,49,9999,0.100000,0,0,0.000000,3,1.000000,0.000000,2.768036,0,0,0,0,0,0,0
1,19999,74,10000,1,0,49,9999,0.100000,0,0,0.000000,3,2.000000,0.000000,6.937648,0,0,0,0,0,0,0
1,19999,75,10000,55,0,49,9999,0.100000,0,0,0.000000,3,3.000000,0.000000,5.139469,0,0,0,0,0,0,0
1,19999,76,10000,5,0,40,9999,0.100000,0,0,0.000000,3,0.000000,0.000000,6.048661,0,0,0,0,0,0,0
1,19999,77,10000,55,0,49,9999,0.100000,0,0,0.000000,3,6.000000,0.000000,20.247377,0,0,0,0,0,0,0
1,19999,78,10000,32,0,49,9999,0.100000,0,0,0.000000,3,3.000000,0.000000,6.736813,0,0,0,0,0,0,0
1,19999,79,10000,5,0,49,9999,0.100000,0,0,0.000000,3,1.000000,0.000000,13.429135,0,0,0,0,0,0,0
1,19999,80,10000,80,0,40,9999,0.100000,0,0,0.000000,3,0.000000,0.000000,0.890335,0,0,0,0,0,0,0
1,19999,81,10000,72,0,49,9999,0.100000,0,0,0.000000,3,2.000000,0.000000,4.747573,0,0,0,0,0,0,0
1,19999,82,10000,32,0,49,9999,0.100000,0,0,0.000000,3,3.000000,0.000000,7.537255,0,0,0,0,0,0,0
1,19999,83,10000,80,0,49,9999,0.100000,0,0,0.000000,3,2.000000,0.000000,8.850625,0,0,0,0,0,0,0
1,19999,84,0,84,0,49,19999,0.100000,0,0,0.000000,3,1.000000,0.000000,11.387815,0,0,0,0,0,0,0
1,19999,85,10000,72,0,49,9999,0.100000,0,0,0.000000,3,1.000000,0.000000,4.560530,0,0,0,0,0,0,0
1,19999,86,10000,5,0,49,9999,0.100000,0,0,0.000000,3,2.000000,0.000000,17.249686,0,0,0,0,0,0,0
1,19999,87,10000,80,0,40,9999,0.100000,0,0,0.000000,3,0.000000,0.000000,2.469616,0,0,0,0,0,0,0
1,19999,88,10000,5,0,40,9999,0.100000,0,0,0.000000,3,0.000000,0.000000,6.760879,0,0,0,0,0,0,0
1,19999,89,10000,80,0,49,9999,0.100000,0,0,0.000000,3,1.000000,0.000000,3.480716,0,0,0,0,0,0,0
1,19999,90,10000,32,0,49,9999,0.100000,0,0,0.000000,3,4.000000,0.000000,7.118372,0,0,0,0,0,0,0
1,19999,91,10000,32,0,40,9999,0.100000,0,0,0.000000,3,0.000000,0.000000,0.275501,0,0,0,0,0,0,0
1,19999,92,10000,32,0,40,9999,0.100000,0,0,0.000000,3,0.000000,0.000000,0.267628,0,0,0,0,0,0,0
1,19999,93,10000,5,0,49,9999,0.100000,0,0,0.000000,3,2.000000,0.000000,7.637943,0,0,0,0,0,0,0
1,19999,94,10000,72,0,40,9999,0.100000,0,0,0.000000,3,0.000000,0.000000,0.760542,0,0,0,0,0,0,0
1,19999,95,10000,80,0,40,9999,0.100000,0,0,0.000000,3,0.000000,0.000000,1.930613,0,0,0,0,0,0,0
1,19999,96,10000,32,0,9,9999,0.100000,0,0,0.000000,3,1.000000,0.000000,11.672404,0,0,0,0,1,0,0
1,19999,97,10000,72,0,40,9999,0.100000,0,0,0.000000,3,0.000000,0.000000,13.215597,0,0,0,0,0,0,0
1,19999,98,10000,5,0,49,9999,0.100000,0,0,0.000000,3,4.000000,0.000000,7.717357,0,0,0,0,0,0,0
1,19999,99,10000,32,0,40,9999,0.100000,0,0,0.000000,3,0.000000,0.000000,0.159571,0,0,0,0,0,0,0
2,29999,0,20000,32,0,49,9999,0.100000,0,0,0.000000,5,1.000000,0.000000,1.705306,0,0,0,0,0,0,0
2,29999,1,20000,17,10000,40,9999,0.100000,0,0,0.000000,6,0.000000,0.000000,0.182553,0,0,0,0,0,0,0
2,29999,2,20000,51,0,40,9999,0.100000,0,0,0.000000,6,0.000000,0.000000,0.761049,0,0,0,0,0,0,0
2,29999,3,20000,72,0,40,9999,0.100000,0,0,0.000000,4,0.000000,0.000000,18.258487,0,0,0,0,0,0,0
2,29999,4,20000,32,0,49,9999,0.100000,0,0,0.000000,6,12.000000,0.000000,13.193057,0,0,0,0,0,0,0
2,29999,5,20000,0,0,40,9999,0.100000,0,0,0.000000,5,0.000000,0.000000,3.525467,0,0,0,0,0,0,0
2,29999,6,20000,32,0,49,9999,0.100000,0,0,0.000000,4,1.000000,0.000000,10.645193,0,0,0,0,0,0,0
2,29999,7,20000,45,10000,40,9999,0.100000,0,0,0.000000,6,0.000000,0.000000,0.153150,0,0,0,0,0,0,0
2,29999,8,20000,32,0,40,9999,0.100000,0,0,0.000000,6,0.000000,0.000000,7.724673,0,0,0,0,0,0,0
2,29999,9,20000,72,0,49,9999,0.100000,0,0,0.000000,4,2.000000,0.000000,6.931765,0,0,0,0,0,0,0
2,29999,10,20000,0,0,49,9999,0.100000,0,0,0.000000,6,4.000000,0.000000,13.102081,0,0,0,0,0,0,0
2,29999,11,20000,72,0,49,9999,0.100000,0,0,0.000000,4,4.000000,0.000000,16.773178,0,0,0,0,0,0,0
2,29999,12,20000,45,10000,40,9999,0.100000,0,0,0.000000,6,0.000000,0.000000,1.830374,0,0,0,0,0,0,0
2,29999,13,20000,5,0,40,9999,0.100000,0,0,0.000000,5,0.000000,0.000000,0.843396,0,0,0,0,0,0,0
2,29999,14,20000,51,0,49,9999,0.100000,0,0,0.000000,6,2.000000,0.000000,14.390411,0,0,0,0,0,0,0
2,29999,15,20000,32,0,49,9999,0.100000,0,0,0.000000,6,1.000000,0.000000,1.764691,0,0,0,0,0,0,0
2,29999,16,20000,32,0,40,9999,0.100000,0,0,0.000000,6,0.000000,0.000000,0.208800,0,0,0,0,0,0,0
2,29999,17,20000,32,0,49,9999,0.100000,0,0,0.000000,6,1.000000,0.000000,1.909393,0,0,0,0,0,0,0
2,29999,18,20000,45,10000,0,9999,0.100000,0,0,0.000000,6,0.000000,0.000000,1.618140,0,0,0,0,0,1,0
2,29999,19,20000,72,10000,40,9999,0.100000,0,0,0.000000,6,0.000000,0.000000,0.764123,0,0,0,0,0,0,0
2,29999,20,20000,51,0,40,9999,0.100000,0,0,0.000000,6,0.000000,0.000000,0.725234,0,0,0,0,0,0,0
2,29999,21,20000,45,10000,40,9999,0.100000,0,0,0.000000,6,0.000000,0.000000,0.343964,0,0,0,0,0,0,0
2,29999,22,20000,45,10000,40,9999,0.100000,0,0,0.000000,6,0.000000,0.000000,19.132365,0,0,0,0,0,0,0
2,29999,23,20000,32,0,49,9999,0.100000,0,0,0.000000,6,4.000000,0.000000,8.340464,0,0,0,0,0,0,0
2,29999,24,20000,5,0,49,9999,0.100000,0,0,0.000000,6,1.000000,0.000000,13.045187,0,0,0,0,0,0,0
2,29999,25,20000,17,10000,40,9999,0.100000,0,0,0.000000,6,0.000000,0.000000,0.398591,0,0,0,0,0,0,0
2,29999,26,20000,72,10000,49,9999,0.100000,0,0,0.000000,6,1.000000,0.000000,6.818959,0,0,0,0,0,0,0
2,29999,27,20000,26,10000,40,9999,0.100000,0,0,0.000000,6,0.000000,0.000000,0.610274,0,0,0,0,0,0,0
2,29999,28,20000,5,0,49,9999,0.100000,0,0,0.000000,6,5.000000,0.000000,16.589377,0,0,0,0,0,0,0
2,29999,29,20000,0,0,49,9999,0.100000,0,0,0.000000,6,12.000000,0.000000,13.187502,0,0,0,0,0,0,0
2,29999,30,20000,72,10000,49,9999,0.100000,0,0,0.000000,6,3.000000,0.000000,6.680186,0,0,0,0,0,0,0
2,29999,31,20000,32,0,40,9999,0.100000,0,0,0.000000,6,0.000000,0.000000,2.019823,0,0,0,0,0,0,0
2,29999,32,20000,51,0,49,9999,0.100000,0,0,0.000000,6,5.000000,0.000000,16.901747,0,0,0,0,0,0,0
2,29999,33,20000,17,10000,49,9999,0.100000,0,0,0.000000,6,5.000000,0.000000,11.736916,0,0,0,0,0,0,0
2,29999,34,20000,17,10000,49,9999,0.100000,0,0,0.000000,6,3.000000,0.000000,11.860321,0,0,0,0,0,0,0
2,29999,35,20000,45,10000,40,9999,0.100000,0,0,0.000000,6,0.000000,0.000000,0.311086,0,0,0,0,0,0,0
2,29999,36,20000,72,10000,49,9999,0.100000,0,0,0.000000,6,4.000000,0.000000,15.014628,0,0,0,0,0,0,0
2,29999,37,20000,17,10000,9,9999,0.100000,0,0,34.210526,6,3.000000,0.000000,14.020901,0,0,0,1,0,0,0
2,29999,38,20000,51,0,40,9999,0.100000,0,0,0.000000,6,0.000000,0.000000,1.035782,0,0,0,0,0,0,0
2,29999,39,20000,17,10000,49,9999,0.100000,0,0,0.000000,6,8.000000,0.000000,16.164433,0,0,0,0,0,0,0
2,29999,40,20000,51,0,40,9999,0.100000,0,0,0.000000,6,0.000000,0.000000,2.342509,0,0,0,0,0,0,0
2,29999,41,20000,17,10000,99,9999,0.100000,0,0,68.120208,6,10.000000,0.000000,24.305084,0,0,1,0,0,0,0
2,29999,42,20000,5,0,49,9999,0.100000,0,0,0.000000,6,1.000000,0.000000,1.952380,0,0,0,0,0,0,0
2,29999,43,20000,45,10000,49,9999,0.100000,0,0,0.000000,6,2.000000,0.000000,14.303320,0,0,0,0,0,0,0
2,29999,44,20000,45,10000,49,9999,0.100000,0,0,0.000000,6,3.000000,0.000000,9.318797,0,0,0,0,0,0,0
2,29999,45,20000,51,0,40,9999,0.100000,0,0,0.000000,6,0.000000,0.000000,0.148491,0,0,0,0,0,0,0
2,29999,46,20000,45,10000,40,9999,0.100000,0,0,0.000000,6,0.000000,0.000000,20.837801,0,0,0,0,0,0,0
2,29999,47,20000,17,10000,40,9999,0.100000,0,0,0.000000,6,0.000000,0.000000,7.545062,0,0,0,0,0,0,0
2,29999,48,20000,51,0,40,9999,0.100000,0,0,0.000000,6,0.000000,0.000000,0.207549,0,0,0,0,0,0,0
2,29999,49,20000,45,10000,49,9999,0.100000,0,0,0.000000,6,5.000000,0.000000,24.910400,0,0,0,0,0,0,0
2,29999,50,20000,0,0,40,9999,0.100000,0,0,0.000000,6,0.000000,0.000000,0.263915,0,0,0,0,0,0,0
2,29999,51,20000,17,10000,40,9999,0.100000,0,0,0.000000,6,0.000000,0.000000,0.392369,0,0,0,0,0,0,0
2,29999,52,20000,45,10000,40,9999,0.100000,0,0,0.000000,6,0.000000,0.000000,2.666994,0,0,0,0,0,0,0
2,29999,53,20000,45,10000,49,9999,0.100000,0,0,0.000000,6,5.000000,0.000000,26.185978,0,0,0,0,0,0,0
2,29999,54,20000,45,10000,49,9999,0.100000,0,0,0.000000,6,11.000000,0.000000,12.632427,0,0,0,0,0,0,0
2,29999,55,20000,32,0,49,9999,0.100000,0,0,0.000000,6,12.000000,0.000000,12.713720,0,0,0,0,0,0,0
2,29999,56,20000,32,0,40,9999,0.100000,0,0,0.000000,6,0.000000,0.000000,4.738675,0,0,0,0,0,0,0
2,29999,57,20000,5,0,40,9999,0.100000,0,0,0.000000,6,0.000000,0.000000,0.122075,0,0,0,0,0,0,0
2,29999,58,20000,51,0,49,9999,0.100000,0,0,0.000000,6,1.000000,0.000000,8.426505,0,0,0,0,0,0,0
2,29999,59,20000,45,10000,49,9999,0.100000,0,0,0.000000,6,2.000000,0.000000,13.465454,0,0,0,0,0,0,0
2,29999,60,20000,17,10000,49,9999,0.100000,0,0,0.000000,6,2.000000,0.000000,18.277031,0,0,0,0,0,0,0
2,29999,61,20000,5,0,40,9999,0.100000,0,0,0.000000,6,0.000000,0.000000,0.786975,0,0,0,0,0,0,0
2,29999,62,20000,0,0,9,9999,0.100000,0,0,34.210526,6,4.000000,0.000000,10.999867,0,0,0,1,0,0,0
2,29999,63,20000,5,0,49,9999,0.100000,0,0,0.000000,6,4.000000,0.000000,13.266733,0,0,0,0,0,0,0
2,29999,64,20000,51,0,40,9999,0.100000,0,0,0.000000,6,0.000000,0.000000,0.668225,0,0,0,0,0,0,0
2,29999,65,20000,51,0,49,9999,0.100000,0,0,0.000000,6,1.000000,0.000000,8.389949,0,0,0,0,0,0,0
2,29999,66,20000,5,0,40,9999,0.100000,0,0,0.000000,6,0.000000,0.000000,0.161867,0,0,0,0,0,0,0
2,29999,67,20000,51,0,49,9999,0.100000,0,0,0.000000,6,5.000000,0.000000,14.481462,0,0,0,0,0,0,0
2,29999,68,20000,32,0,40,9999,0.100000,0,0,0.000000,6,0.000000,0.000000,21.154078,0,0,0,0,0,0,0
2,29999,69,20000,72,10000,40,9999,0.100000,0,0,0.000000,6,0.000000,0.000000,0.333584,0,0,0,0,0,0,0
2,29999,70,20000,5,0,40,9999,0.100000,0,0,0.000000,6,0.000000,0.000000,0.686682,0,0,0,0,0,0,0
2,29999,71,20000,0,0,49,9999,0.100000,0,0,0.000000,6,4.000000,0.000000,14.141379,0,0,0,0,0,0,0
2,29999,72,20000,17,10000,49,9999,0.100000,0,0,0.000000,6,1.000000,0.000000,1.699356,0,0,0,0,0,0,0
2,29999,73,20000,5,0,40,9999,0.100000,0,0,0.000000,6,0.000000,0.000000,0.608707,0,0,0,0,0,0,0
2,29999,74,20000,17,10000,49,9999,0.100000,0,0,0.000000,6,1.000000,0.000000,2.240915,0,0,0,0,0,0,0
2,29999,75,20000,17,10000,0,9999,0.100000,0,0,0.000000,6,0.000000,0.000000,0.542472,0,0,0,0,0,1,0
2,29999,76,20000,26,10000,49,9999,0.100000,0,0,0.000000,6,2.000000,0.000000,7.806587,0,0,0,0,0,0,0
2,29999,77,20000,32,0,49,9999,0.100000,0,0,0.000000,6,3.000000,0.000000,8.306960,0,0,0,0,0,0,0
2,29999,78,20000,32,0,49,9999,0.100000,0,0,0.000000,6,1.000000,0.000000,4.178124,0,0,0,0,0,0,0
2,29999,79,20000,51,0,99,9999,0.100000,0,0,34.210526,6,4.000000,0.000000,14.123311,0,0,1,0,0,0,0
2,29999,80,20000,32,0,40,9999,0.100000,0,0,0.000000,6,0.000000,0.000000,1.183565,0,0,0,0,0,0,0
2,29999,81,20000,26,10000,40,9999,0.100000,0,0,0.000000,6,0.000000,0.000000,0.107465,0,0,0,0,0,0,0
2,29999,82,20000,45,10000,49,9999,0.100000,0,0,0.000000,6,15.000000,0.000000,28.177206,0,0,0,0,0,0,0
2,29999,83,20000,72,10000,49,9999,0.100000,0,0,0.000000,6,3.000000,0.000000,12.547841,0,0,0,0,0,0,0
2,29999,84,20000,26,10000,49,9999,0.100000,0,0,0.000000,6,1.000000,0.000000,15.448880,0,0,0,0,0,0,0
2,29999,85,20000,72,10000,40,9999,0.100000,0,0,0.000000,6,0.000000,0.000000,0.667922,0,0,0,0,0,0,0
2,29999,86,20000,45,10000,40,9999,0.100000,0,0,0.000000,6,0.000000,0.000000,21.661486,0,0,0,0,0,0,0
2,29999,87,20000,32,0,49,9999,0.100000,0,0,0.000000,6,5.000000,0.000000,12.994491,0,0,0,0,0,0,0
2,29999,88,20000,5,0,40,9999,0.100000,0,0,0.000000,6,0.000000,0.000000,7.261661,0,0,0,0,0,0,0
2,29999,89,20000,51,0,40,9999,0.100000,0,0,0.000000,6,0.000000,0.000000,2.190447,0,0,0,0,0,0,0
2,29999,90,20000,45,10000,49,9999,0.100000,0,0,0.000000,6,8.000000,0.000000,24.232236,0,0,0,0,0,0,0
2,29999,91,20000,51,0,40,9999,0.100000,0,0,0.000000,6,0.000000,0.000000,0.184776,0,0,0,0,0,0,0
2,29999,92,20000,45,10000,40,9999,0.100000,0,0,0.000000,6,0.000000,0.000000,0.130186,0,0,0,0,0,0,0
2,29999,93,20000,51,0,99,9999,0.100000,0,0,34.210526,6,1.000000,0.000000,7.381550,0,0,1,0,0,0,0
2,29999,94,20000,45,10000,40,9999,0.100000,0,0,0.000000,6,0.000000,0.000000,1.316620,0,0,0,0,0,0,0
2,29999,95,20000,72,10000,40,9999,0.100000,0,0,0.000000,6,0.000000,0.000000,0.327694,0,0,0,0,0,0,0
2,29999,96,20000,51,0,49,9999,0.100000,0,0,0.000000,6,1.000000,0.000000,1.758036,0,0,0,0,0,0,0
2,29999,97,20000,51,0,40,9999,0.100000,0,0,0.000000,6,0.000000,0.000000,7.943226,0,0,0,0,0,0,0
2,29999,98,20000,17,10000,49,9999,0.100000,0,0,0.000000,6,3.000000,0.000000,9.137134,0,0,0,0,0,0,0
2,29999,99,20000,72,10000,40,9999,0.100000,0,0,0.000000,6,0.000000,0.000000,0.117058,0,0,0,0,0,0,0
3,39999,0,30000,45,10000,40,9999,0.100000,0,0,0.000000,6,0.000000,0.000000,1.105594,0,0,0,0,0,0,0
3,39999,1,30000,32,0,40,9999,0.100000,0,0,0.000000,6,0.000000,0.000000,0.234584,0,0,0,0,0,0,0
3,39999,2,30000,32,0,40,9999,0.100000,0,0,0.000000,6,0.000000,0.000000,1.557733,0,0,0,0,0,0,0
3,39999,3,30000,32,0,40,9999,0.100000,0,0,0.000000,6,0.000000,0.000000,4.531935,0,0,0,0,0,0,0
3,39999,4,30000,26,10000,49,9999,0.100000,0,0,0.000000,6,1.000000,0.000000,4.138467,0,0,0,0,0,0,0
3,39999,5,30000,32,0,40,9999,0.100000,0,0,0.000000,6,0.000000,0.000000,0.009388,0,0,0,0,0,0,0
3,39999,6,30000,51,0,49,9999,0.100000,0,0,0.000000,6,2.000000,0.000000,4.764036,0,0,0,0,0,0,0
3,39999,7,30000,32,0,40,9999,0.100000,0,0,0.000000,6,0.000000,0.000000,0.319644,0,0,0,0,0,0,0
3,39999,8,30000,51,0,49,9999,0.100000,0,0,0.000000,6,3.000000,0.000000,6.572129,0,0,0,0,0,0,0
3,39999,9,30000,5,0,49,9999,0.100000,0,0,0.000000,6,1.000000,0.000000,8.088461,0,0,0,0,0,0,0
3,39999,10,30000,5,0,40,9999,0.100000,0,0,0.000000,6,0.000000,0.000000,1.116995,0,0,0,0,0,0,0
3,39999,11,30000,32,0,40,9999,0.100000,0,0,0.000000,6,0.000000,0.000000,23.917733,0,0,0,0,0,0,0
3,39999,12,30000,45,10000,40,9999,0.100000,0,0,0.000000,6,0.000000,0.000000,0.764251,0,0,0,0,0,0,0
3,39999,13,30000,72,10000,40,9999,0.100000,0,0,0.000000,6,0.000000,0.000000,0.930286,0,0,0,0,0,0,0
3,39999,14,30000,72,10000,49,9999,0.100000,0,0,0.000000,6,4.000000,0.000000,9.874726,0,0,0,0,0,0,0
3,39999,15,30000,32,0,40,9999,0.100000,0,0,0.000000,6,0.000000,0.000000,1.065140,0,0,0,0,0,0,0
3,39999,16,30000,5,0,40,9999,0.100000,0,0,0.000000,6,0.000000,0.000000,0.933581,0,0,0,0,0,0,0
3,39999,17,30000,32,0,40,9999,0.100000,0,0,0.000000,6,0.000000,0.000000,0.700889,0,0,0,0,0,0,0
3,39999,18,30000,45,10000,40,9999,0.100000,0,0,0.000000,6,0.000000,0.000000,0.434461,0,0,0,0,0,0,0
3,39999,19,30000,26,10000,40,9999,0.100000,0,0,0.000000,6,0.000000,0.000000,0.667373,0,0,0,0,0,0,0
3,39999,20,30000,32,0,40,9999,0.100000,0,0,0.000000,6,0.000000,0.000000,0.875544,0,0,0,0,0,0,0
3,39999,21,30000,45,10000,40,9999,0.100000,0,0,0.000000,6,0.000000,0.000000,1.333890,0,0,0,0,0,0,0
3,39999,22,30000,45,10000,40,9999,0.100000,0,0,0.000000,6,0.000000,0.000000,0.369627,0,0,0,0,0,0,0
3,39999,23,30000,5,0,40,9999,0.100000,0,0,0.000000,6,0.000000,0.000000,3.665484,0,0,0,0,0,0,0
3,39999,24,30000,45,10000,49,9999,0.100000,0,0,0.000000,6,1.000000,0.000000,11.441658,0,0,0,0,0,0,0
3,39999,25,30000,26,10000,40,9999,0.100000,0,0,0.000000,6,0.000000,0.000000,1.138067,0,0,0,0,0,0,0
3,39999,26,30000,55,20000,40,9999,0.100000,0,0,0.000000,6,0.000000,0.000000,3.824442,0,0,0,0,0,0,0
3,39999,27,30000,51,0,40,9999,0.100000,0,0,0.000000,6,0.000000,0.000000,0.603661,0,0,0,0,0,0,0
3,39999,28,30000,26,10000,49,9999,0.100000,0,0,0.000000,6,3.000000,0.000000,19.388009,0,0,0,0,0,0,0
3,39999,29,30000,51,0,49,9999,0.100000,0,0,0.000000,6,1.000000,0.000000,3.835169,0,0,0,0,0,0,0
3,39999,30,30000,45,10000,49,9999,0.100000,0,0,0.000000,6,3.000000,0.000000,9.118963,0,0,0,0,0,0,0
3,39999,31,30000,32,0,40,9999,0.100000,0,0,0.000000,6,0.000000,0.000000,1.807221,0,0,0,0,0,0,0
3,39999,32,30000,32,0,49,9999,0.100000,0,0,0.000000,6,1.000000,0.000000,8.347672,0,0,0,0,0,0,0
3,39999,33,30000,26,10000,49,9999,0.100000,0,0,0.000000,6,1.000000,0.000000,7.185630,0,0,0,0,0,0,0
3,39999,34,30000,51,0,49,9999,0.100000,0,0,0.000000,6,2.000000,0.000000,5.627710,0,0,0,0,0,0,0
3,39999,35,30000,51,0,40,9999,0.100000,0,0,0.000000,6,0.000000,0.000000,0.644992,0,0,0,0,0,0,0
3,39999,36,30000,51,0,40,9999,0.100000,0,0,0.000000,6,0.000000,0.000000,4.984011,0,0,0,0,0,0,0
3,39999,37,30000,5,0,40,9999,0.100000,0,0,0.000000,6,0.000000,0.000000,5.221888,0,0,0,0,0,0,0
3,39999,38,30000,51,0,40,9999,0.100000,0,0,0.000000,6,0.000000,0.000000,1.026601,0,0,0,0,0,0,0
3,39999,39,30000,45,10000,40,9999,0.135000,0,0,0.000000,6,0.000000,0.000000,0.710113,0,0,0,0,0,0,0
3,39999,40,30000,5,0,40,9999,0.100000,0,0,0.000000,6,0.000000,0.000000,0.768333,0,0,0,0,0,0,0
3,39999,41,30000,45,10000,49,9999,0.100000,0,0,0.000000,6,1.000000,0.000000,10.022388,0,0,0,0,0,0,0
3,39999,42,30000,5,0,40,9999,0.100000,0,0,0.000000,6,0.000000,0.000000,4.703141,0,0,0,0,0,0,0
3,39999,43,30000,45,20000,49,9999,0.100000,0,0,0.000000,6,2.000000,0.000000,7.058253,0,0,0,0,0,0,0
3,39999,44,30000,45,10000,40,9999,0.100000,0,0,0.000000,6,0.000000,0.000000,2.254501,0,0,0,0,0,0,0
3,39999,45,30000,5,0,49,9999,0.100000,0,0,0.000000,6,9.000000,0.000000,10.109798,0,0,0,0,0,0,0
3,39999,46,30000,72,10000,49,9999,0.100000,0,0,0.000000,6,1.000000,0.000000,22.917483,0,0,0,0,0,0,0
3,39999,47,30000,32,0,49,9999,0.100000,0,0,0.000000,6,1.000000,0.000000,3.457765,0,0,0,0,0,0,0
3,39999,48,30000,51,0,40,9999,0.100000,0,0,0.000000,6,0.000000,0.000000,0.203717,0,0,0,0,0,0,0
3,39999,49,30000,51,0,40,9999,0.100000,0,0,0.000000,6,0.000000,0.000000,4.651258,0,0,0,0,0,0,0
3,39999,50,30000,5,0,40,9999,0.100000,0,0,0.000000,6,0.000000,0.000000,0.590035,0,0,0,0,0,0,0
3,39999,51,30000,45,20000,40,9999,0.100000,0,0,0.000000,6,0.000000,0.000000,1.099563,0,0,0,0,0,0,0
3,39999,52,30000,26,10000,40,9999,0.100000,0,0,0.000000,6,0.000000,0.000000,2.967356,0,0,0,0,0,0,0
3,39999,53,30000,32,0,49,9999,0.100000,0,0,0.000000,6,4.000000,0.000000,10.753546,0,0,0,0,0,0,0
3,39999,54,30000,32,0,49,9999,0.100000,0,0,0.000000,6,4.000000,0.000000,5.908172,0,0,0,0,0,0,0
3,39999,55,30000,32,0,49,9999,0.100000,0,0,0.000000,6,5.000000,0.000000,10.492594,0,0,0,0,0,0,0
3,39999,56,30000,51,0,40,9999,0.100000,0,0,0.000000,6,0.000000,0.000000,4.807118,0,0,0,0,0,0,0
3,39999,57,30000,32,0,40,9999,0.100000,0,0,0.000000,6,0.000000,0.000000,0.198430,0,0,0,0,0,0,0
3,39999,58,30000,72,10000,49,9999,0.065000,0,0,0.000000,6,2.000000,0.000000,11.240472,0,0,0,0,0,0,0
3,39999,59,30000,45,20000,49,9999,0.100000,0,0,0.000000,6,2.000000,0.000000,5.671045,0,0,0,0,0,0,0
3,39999,60,30000,5,0,49,9999,0.100000,0,0,0.000000,6,3.000000,0.000000,8.550287,0,0,0,0,0,0,0
3,39999,61,30000,32,0,40,9999,0.100000,0,0,0.000000,6,0.000000,0.000000,0.651988,0,0,0,0,0,0,0
3,39999,62,30000,72,10000,40,9999,0.100000,0,0,0.000000,6,0.000000,0.000000,0.136014,0,0,0,0,0,0,0
3,39999,63,30000,32,0,40,9999,0.100000,0,0,0.000000,6,0.000000,0.000000,16.938667,0,0,0,0,0,0,0
3,39999,64,30000,26,10000,40,9999,0.100000,0,0,0.000000,6,0.000000,0.000000,0.622608,0,0,0,0,0,0,0
3,39999,65,30000,5,0,49,9999,0.100000,0,0,0.000000,6,1.000000,0.000000,6.682570,0,0,0,0,0,0,0
3,39999,66,30000,45,10000,40,9999,0.100000,0,0,0.000000,6,0.000000,0.000000,0.159892,0,0,0,0,0,0,0
3,39999,67,30000,5,0,49,9999,0.100000,0,0,0.000000,6,1.000000,0.000000,7.853816,0,0,0,0,0,0,0
3,39999,68,30000,51,0,40,9999,0.100000,0,0,0.000000,6,0.000000,0.000000,21.281607,0,0,0,0,0,0,0
3,39999,69,30000,26,10000,40,9999,0.100000,0,0,0.000000,6,0.000000,0.000000,7.895708,0,0,0,0,0,0,0
3,39999,70,30000,45,20000,40,9999,0.100000,0,0,0.000000,6,0.000000,0.000000,0.769898,0,0,0,0,0,0,0
3,39999,71,30000,45,10000,49,9999,0.100000,0,0,0.000000,6,2.000000,0.000000,9.431690,0,0,0,0,0,0,0
3,39999,72,30000,32,0,40,9999,0.100000,0,0,0.000000,6,0.000000,0.000000,6.400636,0,0,0,0,0,0,0
3,39999,73,30000,51,0,40,9999,0.100000,0,0,0.000000,6,0.000000,0.000000,1.801999,0,0,0,0,0,0,0
3,39999,74,30000,5,0,40,9999,0.100000,0,0,0.000000,6,0.000000,0.000000,0.105651,0,0,0,0,0,0,0
3,39999,75,30000,45,10000,40,9999,0.100000,0,0,0.000000,6,0.000000,0.000000,0.609822,0,0,0,0,0,0,0
3,39999,76,30000,5,0,40,9999,0.100000,0,0,0.000000,6,0.000000,0.000000,0.138723,0,0,0,0,0,0,0
3,39999,77,30000,45,20000,49,9999,0.100000,0,0,0.000000,6,1.000000,0.000000,10.680558,0,0,0,0,0,0,0
3,39999,78,30000,32,0,40,9999,0.100000,0,0,0.000000,6,0.000000,0.000000,5.528558,0,0,0,0,0,0,0
3,39999,79,30000,51,0,49,9999,0.100000,0,0,0.000000,6,2.000000,0.000000,7.168690,0,0,0,0,0,0,0
3,39999,80,30000,51,0,40,9999,0.100000,0,0,0.000000,6,0.000000,0.000000,0.442363,0,0,0,0,0,0,0
3,39999,81,30000,32,0,40,9999,0.100000,0,0,0.000000,6,0.000000,0.000000,0.250316,0,0,0,0,0,0,0
3,39999,82,30000,5,0,49,9999,0.100000,0,0,0.000000,6,7.000000,0.000000,30.516773,0,0,0,0,0,0,0
3,39999,83,30000,32,0,49,9999,0.100000,0,0,0.000000,6,8.000000,0.000000,16.599397,0,0,0,0,0,0,0
3,39999,84,30000,32,0,40,9999,0.100000,0,0,0.000000,6,0.000000,0.000000,4.693227,0,0,0,0,0,0,0
3,39999,85,30000,45,10000,49,9999,0.100000,0,0,0.000000,6,1.000000,0.000000,10.534152,0,0,0,0,0,0,0
3,39999,86,30000,5,0,49,9999,0.100000,0,0,0.000000,6,5.000000,0.000000,14.702865,0,0,0,0,0,0,0
3,39999,87,30000,51,0,40,9999,0.100000,0,0,0.000000,6,0.000000,0.000000,1.795877,0,0,0,0,0,0,0
3,39999,88,30000,26,10000,40,9999,0.100000,0,0,0.000000,6,0.000000,0.000000,5.747680,0,0,0,0,0,0,0
3,39999,89,30000,72,10000,40,9999,0.100000,0,0,0.000000,6,0.000000,0.000000,2.030453,0,0,0,0,0,0,0
3,39999,90,30000,26,10000,49,9999,0.100000,0,0,0.000000,6,1.000000,0.000000,3.420140,0,0,0,0,0,0,0
3,39999,91,30000,26,10000,40,9999,0.100000,0,0,0.000000,6,0.000000,0.000000,1.095621,0,0,0,0,0,0,0
3,39999,92,30000,51,0,40,9999,0.100000,0,0,0.000000,6,0.000000,0.000000,0.130878,0,0,0,0,0,0,0
3,39999,93,30000,32,0,49,9999,0.100000,0,0,0.000000,6,2.000000,0.000000,8.514359,0,0,0,0,0,0,0
3,39999,94,30000,51,0,40,9999,0.100000,0,0,0.000000,6,0.000000,0.000000,1.839688,0,0,0,0,0,0,0
3,39999,95,30000,26,10000,40,9999,0.100000,0,0,0.000000,6,0.000000,0.000000,0.636944,0,0,0,0,0,0,0
3,39999,96,30000,26,10000,40,9999,0.100000,0,0,0.000000,6,0.000000,0.000000,0.799343,0,0,0,0,0,0,0
3,39999,97,30000,32,0,49,9999,0.100000,0,0,0.000000,6,2.000000,0.000000,6.980745,0,0,0,0,0,0,0
3,39999,98,30000,45,10000,40,9999,0.100000,0,0,0.000000,6,0.000000,0.000000,2.667589,0,0,0,0,0,0,0
3,39999,99,30000,26,10000,40,9999,0.100000,0,0,0.000000,6,0.000000,0.000000,0.117740,0,0,0,0,0,0,0
4,49999,0,40000,32,0,40,9999,0.100000,0,0,0.000000,6,0.000000,0.000000,0.661963,0,0,0,0,0,0,0
4,49999,1,40000,32,0,40,9999,0.100000,0,0,0.000000,6,0.000000,0.000000,0.221546,0,0,0,0,0,0,0
4,49999,2,40000,32,0,40,9999,0.100000,0,0,0.000000,6,0.000000,0.000000,3.838912,0,0,0,0,0,0,0
4,49999,3,40000,51,0,49,9999,0.100000,0,0,0.000000,6,1.000000,0.000000,15.447608,0,0,0,0,0,0,0
4,49999,4,40000,5,0,40,9999,0.100000,0,0,0.000000,6,0.000000,0.000000,1.370090,0,0,0,0,0,0,0
4,49999,5,40000,45,20000,40,9999,0.100000,0,0,0.000000,6,0.000000,0.000000,0.009303,0,0,0,0,0,0,0
4,49999,6,40000,45,20000,40,9999,0.100000,0,0,0.000000,6,0.000000,0.000000,4.384601,0,0,0,0,0,0,0
4,49999,7,40000,55,20000,40,9999,0.100000,0,0,0.000000,6,0.000000,0.000000,0.334656,0,0,0,0,0,0,0
4,49999,8,40000,51,0,40,9999,0.100000,0,0,0.000000,6,0.000000,0.000000,4.089241,0,0,0,0,0,0,0
4,49999,9,40000,51,0,49,9999,0.100000,0,0,0.000000,6,1.000000,0.000000,4.871775,0,0,0,0,0,0,0
4,49999,10,40000,55,20000,40,9999,0.100000,0,0,0.000000,6,0.000000,0.000000,0.136677,0,0,0,0,0,0,0
4,49999,11,40000,26,10000,40,9999,0.100000,0,0,0.000000,6,0.000000,0.000000,23.872771,0,0,0,0,0,0,0
4,49999,12,40000,26,10000,40,9999,0.100000,0,0,0.000000,6,0.000000,0.000000,2.276501,0,0,0,0,0,0,0
4,49999,13,40000,5,0,40,9999,0.100000,0,0,0.000000,6,0.000000,0.000000,1.075482,0,0,0,0,0,0,0
4,49999,14,40000,55,20000,49,9999,0.100000,0,0,0.000000,6,1.000000,0.000000,6.535350,0,0,0,0,0,0,0
4,49999,15,40000,26,10000,40,9999,0.100000,0,0,0.000000,6,0.000000,0.000000,0.488791,0,0,0,0,0,0,0
4,49999,16,40000,45,20000,49,9999,0.100000,0,0,0.000000,6,7.000000,0.000000,8.161055,0,0,0,0,0,0,0
4,49999,17,40000,45,20000,40,9999,0.100000,0,0,0.000000,6,0.000000,0.000000,0.672018,0,0,0,0,0,0,0
4,49999,18,40000,45,20000,40,9999,0.100000,0,0,0.000000,6,0.000000,0.000000,2.300347,0,0,0,0,0,0,0
4,49999,19,40000,45,20000,40,9999,0.100000,0,0,0.000000,6,0.000000,0.000000,0.655618,0,0,0,0,0,0,0
4,49999,20,40000,26,10000,40,9999,0.100000,0,0,0.000000,6,0.000000,0.000000,1.007238,0,0,0,0,0,0,0
4,49999,21,40000,55,20000,49,9999,0.100000,0,0,0.000000,6,1.000000,0.000000,2.807657,0,0,0,0,0,0,0
4,49999,22,40000,26,10000,49,9999,0.100000,0,0,0.000000,6,1.000000,0.000000,1.987679,0,0,0,0,0,0,0
4,49999,23,40000,5,0,40,9999,0.100000,0,0,0.000000,6,0.000000,0.000000,1.554952,0,0,0,0,0,0,0
4,49999,24,40000,5,0,49,9999,0.100000,0,0,0.000000,6,2.000000,0.000000,7.185891,0,0,0,0,0,0,0
4,49999,25,40000,45,20000,49,9999,0.100000,0,0,0.000000,6,1.000000,0.000000,2.347117,0,0,0,0,0,0,0
4,49999,26,40000,55,20000,40,9999,0.100000,0,0,0.000000,6,0.000000,0.000000,2.016401,0,0,0,0,0,0,0
4,49999,27,40000,5,0,40,9999,0.100000,0,0,0.000000,6,0.000000,0.000000,0.653070,0,0,0,0,0,0,0
4,49999,28,40000,5,0,49,9999,0.100000,0,0,0.000000,6,1.000000,0.000000,12.371369,0,0,0,0,0,0,0
4,49999,29,40000,45,20000,40,9999,0.100000,0,0,0.000000,6,0.000000,0.000000,3.578699,0,0,0,0,0,0,0
4,49999,30,40000,45,20000,49,9999,0.100000,0,0,0.000000,6,1.000000,0.000000,2.944153,0,0,0,0,0,0,0
4,49999,31,40000,45,20000,40,9999,0.100000,0,0,0.000000,6,0.000000,0.000000,0.947796,0,0,0,0,0,0,0
4,49999,32,40000,55,20000,49,9999,0.100000,0,0,0.000000,6,4.000000,0.000000,10.190113,0,0,0,0,0,0,0
4,49999,33,40000,51,0,49,9999,0.100000,0,0,0.000000,6,1.000000,0.000000,3.482773,0,0,0,0,0,0,0
4,49999,34,40000,32,0,49,9999,0.100000,0,0,0.000000,6,7.000000,0.000000,8.210315,0,0,0,0,0,0,0
4,49999,35,40000,45,20000,49,9999,0.100000,0,0,0.000000,6,1.000000,0.000000,2.488758,0,0,0,0,0,0,0
4,49999,36,40000,55,20000,49,9999,0.100000,0,0,0.000000,6,3.000000,0.000000,7.117816,0,0,0,0,0,0,0
4,49999,37,40000,55,20000,49,9999,0.100000,0,0,0.000000,6,3.000000,0.000000,6.491748,0,0,0,0,0,0,0
4,49999,38,40000,45,20000,40,9999,0.100000,0,0,0.000000,6,0.000000,0.000000,0.991114,0,0,0,0,0,0,0
4,49999,39,40000,51,0,40,9999,0.100000,0,0,0.000000,6,0.000000,0.000000,0.359703,0,0,0,0,0,0,0
4,49999,40,40000,32,0,49,9999,0.100000,0,0,0.000000,6,2.000000,0.000000,6.591329,0,0,0,0,0,0,0
4,49999,41,40000,51,0,49,9999,0.100000,0,0,0.000000,6,3.000000,0.000000,11.124132,0,0,0,0,0,0,0
4,49999,42,40000,55,20000,40,9999,0.100000,0,0,0.000000,6,0.000000,0.000000,2.695726,0,0,0,0,0,0,0
4,49999,43,40000,55,20000,49,9999,0.100000,0,0,0.000000,6,2.000000,0.000000,9.446533,0,0,0,0,0,0,0
4,49999,44,40000,55,20000,40,9999,0.100000,0,0,0.000000,6,0.000000,0.000000,7.677634,0,0,0,0,0,0,0
4,49999,45,40000,26,30000,40,9999,0.100000,0,0,0.000000,6,0.000000,0.000000,0.691029,0,0,0,0,0,0,0
4,49999,46,40000,5,0,49,9999,0.100000,0,0,0.000000,6,3.000000,0.000000,18.200604,0,0,0,0,0,0,0
4,49999,47,40000,55,20000,49,9999,0.100000,0,0,0.000000,6,2.000000,0.000000,7.611700,0,0,0,0,0,0,0
4,49999,48,40000,5,0,40,9999,0.100000,0,0,0.000000,6,0.000000,0.000000,0.204405,0,0,0,0,0,0,0
4,49999,49,40000,55,20000,40,9999,0.100000,0,0,0.000000,6,0.000000,0.000000,0.680969,0,0,0,0,0,0,0
4,49999,50,40000,32,0,49,9999,0.100000,0,0,0.000000,6,1.000000,0.000000,2.244665,0,0,0,0,0,0,0
4,49999,51,40000,26,30000,40,9999,0.100000,0,0,0.000000,6,0.000000,0.000000,0.817787,0,0,0,0,0,0,0
4,49999,52,40000,55,20000,40,9999,0.100000,0,0,0.000000,6,0.000000,0.000000,2.835327,0,0,0,0,0,0,0
4,49999,53,40000,51,0,40,9999,0.100000,0,0,0.000000,6,0.000000,0.000000,6.009288,0,0,0,0,0,0,0
4,49999,54,40000,32,0,40,9999,0.100000,0,0,0.000000,6,0.000000,0.000000,0.336486,0,0,0,0,0,0,0
4,49999,55,40000,45,20000,40,9999,0.100000,0,0,0.000000,6,0.000000,0.000000,4.711615,0,0,0,0,0,0,0
4,49999,56,40000,55,20000,49,9999,0.100000,0,0,0.000000,6,1.000000,0.000000,5.871714,0,0,0,0,0,0,0
4,49999,57,40000,55,20000,40,9999,0.100000,0,0,0.000000,6,0.000000,0.000000,0.277501,0,0,0,0,0,0,0
4,49999,58,40000,5,0,40,9999,0.100000,0,0,0.000000,6,0.000000,0.000000,8.145062,0,0,0,0,0,0,0
4,49999,59,40000,26,10000,40,9999,0.100000,0,0,0.000000,6,0.000000,0.000000,2.761753,0,0,0,0,0,0,0
4,49999,60,40000,5,0,49,9999,0.100000,0,0,0.000000,6,1.000000,0.000000,3.321349,0,0,0,0,0,0,0
4,49999,61,40000,45,20000,40,9999,0.100000,0,0,0.000000,6,0.000000,0.000000,5.560964,0,0,0,0,0,0,0
4,49999,62,40000,55,20000,40,9999,0.100000,0,0,0.000000,6,0.000000,0.000000,0.136693,0,0,0,0,0,0,0
4,49999,63,40000,55,20000,49,9999,0.100000,0,0,0.000000,6,1.000000,0.000000,10.182251,0,0,0,0,0,0,0
4,49999,64,40000,26,10000,40,9999,0.100000,0,0,0.000000,6,0.000000,0.000000,0.616811,0,0,0,0,0,0,0
4,49999,65,40000,26,10000,49,9999,0.100000,0,0,0.000000,6,1.000000,0.000000,8.152148,0,0,0,0,0,0,0
4,49999,66,40000,32,0,40,9999,0.100000,0,0,0.000000,6,0.000000,0.000000,0.158989,0,0,0,0,0,0,0
4,49999,67,40000,55,20000,40,9999,0.100000,0,0,0.000000,6,0.000000,0.000000,1.131005,0,0,0,0,0,0,0
4,49999,68,40000,55,20000,40,9999,0.100000,0,0,0.000000,6,0.000000,0.000000,21.274889,0,0,0,0,0,0,0
4,49999,69,40000,26,10000,40,9999,0.100000,0,0,0.000000,6,0.000000,0.000000,1.645435,0,0,0,0,0,0,0
4,49999,70,40000,5,0,40,9999,0.100000,0,0,0.000000,6,0.000000,0.000000,0.693631,0,0,0,0,0,0,0
4,49999,71,40000,51,0,49,9999,0.100000,0,0,0.000000,6,1.000000,0.000000,10.758769,0,0,0,0,0,0,0
4,49999,72,40000,51,0,40,9999,0.100000,0,0,0.000000,6,0.000000,0.000000,3.560416,0,0,0,0,0,0,0
4,49999,73,40000,32,0,40,9999,0.100000,0,0,0.000000,6,0.000000,0.000000,2.160124,0,0,0,0,0,0,0
4,49999,74,40000,55,20000,40,9999,0.100000,0,0,0.000000,6,0.000000,0.000000,0.409803,0,0,0,0,0,0,0
4,49999,75,40000,32,0,40,9999,0.100000,0,0,0.000000,6,0.000000,0.000000,0.546126,0,0,0,0,0,0,0
4,49999,76,40000,51,0,40,9999,0.100000,0,0,0.000000,6,0.000000,0.000000,0.139930,0,0,0,0,0,0,0
4,49999,77,40000,32,0,49,9999,0.100000,0,0,0.000000,6,2.000000,0.000000,15.310332,0,0,0,0,0,0,0
4,49999,78,40000,45,20000,40,9999,0.100000,0,0,0.000000,6,0.000000,0.000000,4.928416,0,0,0,0,0,0,0
4,49999,79,40000,55,20000,49,9999,0.100000,0,0,0.000000,6,9.000000,0.000000,25.269199,0,0,0,0,0,0,0
4,49999,80,40000,26,10000,40,9999,0.100000,0,0,0.000000,6,0.000000,0.000000,1.518845,0,0,0,0,0,0,0
4,49999,81,40000,5,0,40,9999,0.100000,0,0,0.000000,6,0.000000,0.000000,0.184617,0,0,0,0,0,0,0
4,49999,82,40000,5,0,49,9999,0.100000,0,0,0.000000,6,4.000000,0.000000,11.202041,0,0,0,0,0,0,0
4,49999,83,40000,51,0,99,9999,0.100000,0,0,34.210526,6,2.000000,0.000000,5.532018,0,0,1,0,0,0,0
4,49999,84,40000,26,10000,49,9999,0.100000,0,0,0.000000,6,2.000000,0.000000,16.700024,0,0,0,0,0,0,0
4,49999,85,40000,51,0,49,9999,0.100000,0,0,0.000000,6,1.000000,0.000000,12.793335,0,0,0,0,0,0,0
4,49999,86,40000,32,0,40,9999,0.100000,0,0,0.000000,6,0.000000,0.000000,0.139348,0,0,0,0,0,0,0
4,49999,87,40000,5,0,40,9999,0.100000,0,0,0.000000,6,0.000000,0.000000,1.025612,0,0,0,0,0,0,0
4,49999,88,40000,32,0,49,9999,0.100000,0,0,0.000000,6,2.000000,0.000000,3.576114,0,0,0,0,0,0,0
4,49999,89,40000,26,10000,40,9999,0.100000,0,0,0.000000,6,0.000000,0.000000,3.962541,0,0,0,0,0,0,0
4,49999,90,40000,26,30000,40,9999,0.100000,0,0,0.000000,6,0.000000,0.000000,1.321047,0,0,0,0,0,0,0
4,49999,91,40000,51,0,49,9999,0.100000,0,0,0.000000,6,7.000000,0.000000,8.532996,0,0,0,0,0,0,0
4,49999,92,40000,51,0,40,9999,0.100000,0,0,0.000000,6,0.000000,0.000000,0.135005,0,0,0,0,0,0,0
4,49999,93,40000,45,20000,49,9999,0.100000,0,0,0.000000,6,3.000000,0.000000,9.805198,0,0,0,0,0,0,0
4,49999,94,40000,32,0,40,9999,0.100000,0,0,0.000000,6,0.000000,0.000000,3.518711,0,0,0,0,0,0,0
4,49999,95,40000,5,0,40,9999,0.100000,0,0,0.000000,6,0.000000,0.000000,2.377048,0,0,0,0,0,0,0
4,49999,96,40000,32,0,40,9999,0.100000,0,0,0.000000,6,0.000000,0.000000,0.445968,0,0,0,0,0,0,0
4,49999,97,40000,55,20000,49,9999,0.100000,0,0,0.000000,6,1.000000,0.000000,5.051822,0,0,0,0,0,0,0
4,49999,98,40000,51,0,40,9999,0.100000,0,0,0.000000,6,0.000000,0.000000,11.213332,0,0,0,0,0,0,0
4,49999,99,40000,51,0,40,9999,0.100000,0,0,0.000000,6,0.000000,0.000000,0.193530,0,0,0,0,0,0,0
5,59999,0,50000,32,0,40,9999,0.100000,0,0,0.000000,6,0.000000,0.000000,0.699533,0,0,0,0,0,0,0
5,59999,1,50000,4,40000,40,9999,0.100000,0,0,0.000000,6,0.000000,0.000000,0.321318,0,0,0,0,0,0,0
5,59999,2,50000,55,20000,49,9999,0.100000,0,0,0.000000,6,1.000000,0.000000,2.203177,0,0,0,0,0,0,0
5,59999,3,50000,51,0,49,9999,0.100000,0,0,0.000000,6,2.000000,0.000000,7.977067,0,0,0,0,0,0,0
5,59999,4,50000,55,20000,40,9999,0.100000,0,0,0.000000,6,0.000000,0.000000,1.215561,0,0,0,0,0,0,0
5,59999,5,50000,32,0,40,9999,0.100000,0,0,0.000000,6,0.000000,0.000000,0.009468,0,0,0,0,0,0,0
5,59999,6,50000,32,0,49,9999,0.135000,0,0,0.000000,6,1.000000,0.000000,2.242244,0,0,0,0,0,0,0
5,59999,7,50000,55,20000,40,9999,0.100000,0,0,0.000000,6,0.000000,0.000000,0.897751,0,0,0,0,0,0,0
5,59999,8,50000,55,20000,49,9999,0.100000,0,0,0.000000,6,4.000000,0.000000,11.959297,0,0,0,0,0,0,0
5,59999,9,50000,55,20000,40,9999,0.100000,0,0,0.000000,6,0.000000,0.000000,1.041089,0,0,0,0,0,0,0
5,59999,10,50000,32,0,40,9999,0.100000,0,0,0.000000,6,0.000000,0.000000,0.136995,0,0,0,0,0,0,0
5,59999,11,50000,32,0,49,9999,0.100000,0,0,0.000000,6,1.000000,0.000000,24.198784,0,0,0,0,0,0,0
5,59999,12,50000,5,0,40,9999,0.100000,0,0,0.000000,6,0.000000,0.000000,5.461102,0,0,0,0,0,0,0
5,59999,13,50000,4,40000,40,9999,0.100000,0,0,0.000000,6,0.000000,0.000000,1.024972,0,0,0,0,0,0,0
5,59999,14,50000,55,20000,49,9999,0.100000,0,0,0.000000,6,1.000000,0.000000,5.532449,0,0,0,0,0,0,0
5,59999,15,50000,51,0,40,9999,0.100000,0,0,0.000000,6,0.000000,0.000000,0.634174,0,0,0,0,0,0,0
5,59999,16,50000,5,0,40,9999,0.100000,0,0,0.000000,6,0.000000,0.000000,0.567310,0,0,0,0,0,0,0
5,59999,17,50000,32,0,40,9999,0.100000,0,0,0.000000,6,0.000000,0.000000,0.884584,0,0,0,0,0,0,0
5,59999,18,50000,5,0,40,9999,0.100000,0,0,0.000000,6,0.000000,0.000000,0.810816,0,0,0,0,0,0,0
5,59999,19,50000,5,0,40,9999,0.100000,0,0,0.000000,6,0.000000,0.000000,0.510101,0,0,0,0,0,0,0
5,59999,20,50000,32,0,49,9999,0.100000,0,0,0.000000,6,3.000000,0.000000,7.151467,0,0,0,0,0,0,0
5,59999,21,50000,51,0,40,9999,0.100000,0,0,0.000000,6,0.000000,0.000000,0.692930,0,0,0,0,0,0,0
5,59999,22,50000,51,0,40,9999,0.100000,0,0,0.000000,6,0.000000,0.000000,0.497164,0,0,0,0,0,0,0
5,59999,23,50000,5,0,49,9999,0.100000,0,0,0.000000,6,1.000000,0.000000,8.287626,0,0,0,0,0,0,0
5,59999,24,50000,51,0,49,9999,0.100000,0,0,0.000000,6,3.000000,0.000000,13.189372,0,0,0,0,0,0,0
5,59999,25,50000,32,0,40,9999,0.100000,0,0,0.000000,6,0.000000,0.000000,3.631006,0,0,0,0,0,0,0
5,59999,26,50000,5,0,40,9999,0.100000,0,0,0.000000,6,0.000000,0.000000,0.591927,0,0,0,0,0,0,0
5,59999,27,50000,4,40000,49,9999,0.100000,0,0,0.000000,6,2.000000,0.000000,15.033608,0,0,0,0,0,0,0
5,59999,28,50000,51,0,40,9999,0.100000,0,0,0.000000,6,0.000000,0.000000,6.947343,0,0,0,0,0,0,0
5,59999,29,50000,32,0,40,9999,0.100000,0,0,0.000000,6,0.000000,0.000000,3.786945,0,0,0,0,0,0,0
5,59999,30,50000,32,0,49,9999,0.100000,0,0,0.000000,6,1.000000,0.000000,2.193347,0,0,0,0,0,0,0
5,59999,31,50000,55,20000,40,9999,0.100000,0,0,0.000000,6,0.000000,0.000000,0.958933,0,0,0,0,0,0,0
5,59999,32,50000,78,40000,49,9999,0.100000,0,0,0.000000,6,3.000000,0.000000,5.285647,0,0,0,0,0,0,0
5,59999,33,50000,61,40000,40,9999,0.100000,0,0,0.000000,6,0.000000,0.000000,5.011502,0,0,0,0,0,0,0
5,59999,34,50000,4,40000,40,9999,0.100000,0,0,0.000000,6,0.000000,0.000000,0.610895,0,0,0,0,0,0,0
5,59999,35,50000,32,0,40,9999,0.100000,0,0,0.000000,6,0.000000,0.000000,0.598559,0,0,0,0,0,0,0
5,59999,36,50000,78,40000,49,9999,0.100000,0,0,0.000000,6,2.000000,0.000000,20.937135,0,0,0,0,0,0,0
5,59999,37,50000,51,0,49,9999,0.100000,0,0,0.000000,6,2.000000,0.000000,9.213619,0,0,0,0,0,0,0
5,59999,38,50000,51,0,40,9999,0.100000,0,0,0.000000,6,0.000000,0.000000,1.000929,0,0,0,0,0,0,0
5,59999,39,50000,5,0,49,9999,0.100000,0,0,0.000000,6,1.000000,0.000000,1.862123,0,0,0,0,0,0,0
5,59999,40,50000,32,0,40,9999,0.100000,0,0,0.000000,6,0.000000,0.000000,0.694343,0,0,0,0,0,0,0
5,59999,41,50000,61,40000,49,9999,0.100000,0,0,0.000000,6,2.000000,0.000000,13.259270,0,0,0,0,0,0,0
5,59999,42,50000,78,40000,49,9999,0.100000,0,0,0.000000,6,1.000000,0.000000,13.089836,0,0,0,0,0,0,0
5,59999,43,50000,4,40000,49,9999,0.100000,0,0,0.000000,6,4.000000,0.000000,16.334283,0,0,0,0,0,0,0
5,59999,44,50000,32,0,49,9999,0.100000,0,0,0.000000,6,1.000000,0.000000,2.688382,0,0,0,0,0,0,0
5,59999,45,50000,32,0,40,9999,0.100000,0,0,0.000000,6,0.000000,0.000000,0.951295,0,0,0,0,0,0,0
5,59999,46,50000,5,0,40,9999,0.100000,0,0,0.000000,6,0.000000,0.000000,4.294421,0,0,0,0,0,0,0
5,59999,47,50000,51,0,49,9999,0.100000,0,0,0.000000,6,1.000000,0.000000,3.950805,0,0,0,0,0,0,0
5,59999,48,50000,5,0,40,9999,0.100000,0,0,0.000000,6,0.000000,0.000000,0.204356,0,0,0,0,0,0,0
5,59999,49,50000,51,0,40,9999,0.100000,0,0,0.000000,6,0.000000,0.000000,0.775631,0,0,0,0,0,0,0
5,59999,50,50000,5,0,40,9999,0.100000,0,0,0.000000,6,0.000000,0.000000,0.719477,0,0,0,0,0,0,0
5,59999,51,50000,83,40000,49,9999,0.100000,0,0,0.000000,6,1.000000,0.000000,2.071933,0,0,0,0,0,0,0
5,59999,52,50000,51,0,40,9999,0.100000,0,0,0.000000,6,0.000000,0.000000,1.404203,0,0,0,0,0,0,0
5,59999,53,50000,78,40000,49,9999,0.100000,0,0,0.000000,6,3.000000,0.000000,8.912358,0,0,0,0,0,0,0
5,59999,54,50000,4,40000,40,9999,0.100000,0,0,0.000000,6,0.000000,0.000000,0.598778,0,0,0,0,0,0,0
5,59999,55,50000,5,0,49,9999,0.100000,0,0,0.000000,6,1.000000,0.000000,6.406571,0,0,0,0,0,0,0
5,59999,56,50000,32,0,49,9999,0.100000,0,0,0.000000,6,1.000000,0.000000,5.652227,0,0,0,0,0,0,0
5,59999,57,50000,32,0,40,9999,0.100000,0,0,0.000000,6,0.000000,0.000000,0.611039,0,0,0,0,0,0,0
5,59999,58,50000,4,40000,40,9999,0.100000,0,0,0.000000,6,0.000000,0.000000,4.666738,0,0,0,0,0,0,0
5,59999,59,50000,5,0,40,9999,0.100000,0,0,0.000000,6,0.000000,0.000000,1.635723,0,0,0,0,0,0,0
5,59999,60,50000,32,0,49,9999,0.100000,0,0,0.000000,6,1.000000,0.000000,2.291290,0,0,0,0,0,0,0
5,59999,61,50000,4,40000,40,9999,0.100000,0,0,0.000000,6,0.000000,0.000000,0.875941,0,0,0,0,0,0,0
5,59999,62,50000,4,40000,40,9999,0.100000,0,0,0.000000,6,0.000000,0.000000,0.135980,0,0,0,0,0,0,0
5,59999,63,50000,51,0,49,9999,0.100000,0,0,0.000000,6,4.000000,0.000000,17.473110,0,0,0,0,0,0,0
5,59999,64,50000,55,20000,40,9999,0.100000,0,0,0.000000,6,0.000000,0.000000,0.599539,0,0,0,0,0,0,0
5,59999,65,50000,55,20000,49,9999,0.100000,0,0,0.000000,6,2.000000,0.000000,5.990811,0,0,0,0,0,0,0
5,59999,66,50000,4,40000,40,9999,0.100000,0,0,0.000000,6,0.000000,0.000000,0.240949,0,0,0,0,0,0,0
5,59999,67,50000,78,40000,40,9999,0.100000,0,0,0.000000,6,0.000000,0.000000,4.502430,0,0,0,0,0,0,0
5,59999,68,50000,32,0,40,9999,0.100000,0,0,0.000000,6,0.000000,0.000000,21.385652,0,0,0,0,0,0,0
5,59999,69,50000,5,0,40,9999,0.100000,0,0,0.000000,6,0.000000,0.000000,0.871752,0,0,0,0,0,0,0
5,59999,70,50000,78,40000,49,9999,0.100000,0,0,0.000000,6,1.000000,0.000000,3.270049,0,0,0,0,0,0,0
5,59999,71,50000,51,0,49,9999,0.100000,0,0,0.000000,6,2.000000,0.000000,8.329556,0,0,0,0,0,0,0
5,59999,72,50000,32,0,40,9999,0.100000,0,0,0.000000,6,0.000000,0.000000,18.371357,0,0,0,0,0,0,0
5,59999,73,50000,32,0,49,9999,0.100000,0,0,0.000000,6,11.000000,0.000000,12.392956,0,0,0,0,0,0,0
5,59999,74,50000,4,40000,49,9999,0.100000,0,0,0.000000,6,1.000000,0.000000,2.152304,0,0,0,0,0,0,0
5,59999,75,50000,4,40000,40,9999,0.100000,0,0,0.000000,6,0.000000,0.000000,0.754624,0,0,0,0,0,0,0
5,59999,76,50000,51,0,49,9999,0.100000,0,0,0.000000,6,1.000000,0.000000,1.845770,0,0,0,0,0,0,0
5,59999,77,50000,78,40000,49,9999,0.100000,0,0,0.000000,6,1.000000,0.000000,2.408142,0,0,0,0,0,0,0
5,59999,78,50000,78,40000,40,9999,0.100000,0,0,0.000000,6,0.000000,0.000000,2.303180,0,0,0,0,0,0,0
5,59999,79,50000,51,0,49,9999,0.100000,0,0,0.000000,6,3.000000,0.000000,9.847199,0,0,0,0,0,0,0
5,59999,80,50000,4,40000,40,9999,0.100000,0,0,0.000000,6,0.000000,0.000000,3.146690,0,0,0,0,0,0,0
5,59999,81,50000,78,40000,40,9999,0.100000,0,0,0.000000,6,0.000000,0.000000,0.322374,0,0,0,0,0,0,0
5,59999,82,50000,55,20000,49,9999,0.100000,0,0,0.000000,6,1.000000,0.000000,2.635503,0,0,0,0,0,0,0
5,59999,83,50000,55,20000,40,9999,0.100000,0,0,0.000000,6,0.000000,0.000000,0.106021,0,0,0,0,0,0,0
5,59999,84,50000,55,20000,49,9999,0.100000,0,0,0.000000,6,1.000000,0.000000,6.082289,0,0,0,0,0,0,0
5,59999,85,50000,5,0,40,9999,0.100000,0,0,0.000000,6,0.000000,0.000000,2.184932,0,0,0,0,0,0,0
5,59999,86,50000,78,40000,40,9999,0.100000,0,0,0.000000,6,0.000000,0.000000,0.140163,0,0,0,0,0,0,0
5,59999,87,50000,5,0,40,9999,0.100000,0,0,0.000000,6,0.000000,0.000000,1.031376,0,0,0,0,0,0,0
5,59999,88,50000,55,20000,49,9999,0.100000,0,0,0.000000,6,1.000000,0.000000,5.607779,0,0,0,0,0,0,0
5,59999,89,50000,4,40000,49,9999,0.100000,0,0,0.000000,6,1.000000,0.000000,10.459571,0,0,0,0,0,0,0
5,59999,90,50000,55,20000,40,9999,0.100000,0,0,0.000000,6,0.000000,0.000000,1.314951,0,0,0,0,0,0,0
5,59999,91,50000,32,0,40,9999,0.100000,0,0,0.000000,6,0.000000,0.000000,1.131961,0,0,0,0,0,0,0
5,59999,92,50000,4,40000,40,9999,0.100000,0,0,0.000000,6,0.000000,0.000000,0.191060,0,0,0,0,0,0,0
5,59999,93,50000,83,40000,40,9999,0.100000,0,0,0.000000,6,0.000000,0.000000,10.106357,0,0,0,0,0,0,0
5,59999,94,50000,61,40000,49,9999,0.100000,0,0,0.000000,6,2.000000,0.000000,6.499938,0,0,0,0,0,0,0
5,59999,95,50000,55,20000,40,9999,0.100000,0,0,0.000000,6,0.000000,0.000000,0.552957,0,0,0,0,0,0,0
5,59999,96,50000,55,20000,40,9999,0.100000,0,0,0.000000,6,0.000000,0.000000,0.561415,0,0,0,0,0,0,0
5,59999,97,50000,32,0,49,9999,0.100000,0,0,0.000000,6,1.000000,0.000000,7.338443,0,0,0,0,0,0,0
5,59999,98,50000,55,20000,49,9999,0.100000,0,0,0.000000,6,9.000000,0.000000,17.186941,0,0,0,0,0,0,0
5,59999,99,50000,4,40000,40,9999,0.100000,0,0,0.000000,6,0.000000,0.000000,0.207289,0,0,0,0,0,0,0
6,69999,0,60000,83,40000,40,9999,0.100000,0,0,0.000000,6,0.000000,0.000000,0.901488,0,0,0,0,0,0,0
6,69999,1,60000,51,0,40,9999,0.100000,0,0,0.000000,6,0.000000,0.000000,0.259136,0,0,0,0,0,0,0
6,69999,2,60000,83,40000,49,9999,0.100000,0,0,0.000000,6,2.000000,0.000000,2.971500,0,0,0,0,0,0,0
6,69999,3,60000,4,40000,49,9999,0.100000,0,0,0.000000,6,1.000000,0.000000,6.670638,0,0,0,0,0,0,0
6,69999,4,60000,55,20000,40,9999,0.100000,0,0,0.000000,6,0.000000,0.000000,0.693504,0,0,0,0,0,0,0
6,69999,5,60000,51,0,40,9999,0.100000,0,0,0.000000,6,0.000000,0.000000,0.009445,0,0,0,0,0,0,0
6,69999,6,60000,78,40000,49,9999,0.100000,0,0,0.000000,6,6.000000,0.000000,6.996333,0,0,0,0,0,0,0
6,69999,7,60000,4,40000,9,9999,0.100000,0,0,34.210526,6,12.000000,0.000000,14.102792,0,0,0,0,1,0,0
6,69999,8,60000,32,0,49,9999,0.100000,0,0,0.000000,6,6.000000,0.000000,14.922561,0,0,0,0,0,0,0
6,69999,9,60000,51,0,40,9999,0.100000,0,0,0.000000,6,0.000000,0.000000,0.939500,0,0,0,0,0,0,0
6,69999,10,60000,83,40000,40,9999,0.100000,0,0,0.000000,6,0.000000,0.000000,0.133240,0,0,0,0,0,0,0
6,69999,11,60000,4,40000,40,9999,0.100000,0,0,0.000000,6,0.000000,0.000000,23.673154,0,0,0,0,0,0,0
6,69999,12,60000,55,20000,40,9999,0.100000,0,0,0.000000,6,0.000000,0.000000,0.899504,0,0,0,0,0,0,0
6,69999,13,60000,51,0,40,9999,0.100000,0,0,0.000000,6,0.000000,0.000000,3.130021,0,0,0,0,0,0,0
6,69999,14,60000,55,20000,49,9999,0.100000,0,0,0.000000,6,1.000000,0.000000,7.588400,0,0,0,0,0,0,0
6,69999,15,60000,55,20000,40,9999,0.100000,0,0,0.000000,6,0.000000,0.000000,1.013422,0,0,0,0,0,0,0
6,69999,16,60000,78,40000,40,9999,0.100000,0,0,0.000000,6,0.000000,0.000000,0.472379,0,0,0,0,0,0,0
6,69999,17,60000,4,40000,40,9999,0.100000,0,0,0.000000,6,0.000000,0.000000,0.577578,0,0,0,0,0,0,0
6,69999,18,60000,51,0,40,9999,0.100000,0,0,0.000000,6,0.000000,0.000000,0.475293,0,0,0,0,0,0,0
6,69999,19,60000,55,20000,40,9999,0.100000,0,0,0.000000,6,0.000000,0.000000,0.009723,0,0,0,0,0,0,0
6,69999,20,60000,55,20000,49,9999,0.100000,0,0,0.000000,6,1.000000,0.000000,5.293482,0,0,0,0,0,0,0
6,69999,21,60000,83,40000,40,9999,0.100000,0,0,0.000000,6,0.000000,0.000000,1.005622,0,0,0,0,0,0,0
6,69999,22,60000,4,40000,40,9999,0.100000,0,0,0.000000,6,0.000000,0.000000,0.674774,0,0,0,0,0,0,0
6,69999,23,60000,55,20000,40,9999,0.100000,0,0,0.000000,6,0.000000,0.000000,7.570497,0,0,0,0,0,0,0
6,69999,24,60000,83,40000,49,9999,0.100000,0,0,0.000000,6,2.000000,0.000000,6.843127,0,0,0,0,0,0,0
6,69999,25,60000,51,0,40,9999,0.100000,0,0,0.000000,6,0.000000,0.000000,1.209319,0,0,0,0,0,0,0
6,69999,26,60000,51,0,40,9999,0.100000,0,0,0.000000,6,0.000000,0.000000,0.587787,0,0,0,0,0,0,0
6,69999,27,60000,78,40000,40,9999,0.100000,0,0,0.000000,6,0.000000,0.000000,1.778467,0,0,0,0,0,0,0
6,69999,28,60000,51,0,49,9999,0.100000,0,0,0.000000,6,2.000000,0.000000,9.877054,0,0,0,0,0,0,0
6,69999,29,60000,83,40000,40,9999,0.100000,0,0,0.000000,6,0.000000,0.000000,5.564133,0,0,0,0,0,0,0
6,69999,30,60000,32,0,49,9999,0.100000,0,0,0.000000,6,2.000000,0.000000,2.518417,0,0,0,0,0,0,0
6,69999,31,60000,83,40000,49,9999,0.100000,0,0,0.000000,6,1.000000,0.000000,5.277647,0,0,0,0,0,0,0
6,69999,32,60000,51,0,40,9999,0.100000,0,0,0.000000,6,0.000000,0.000000,0.137417,0,0,0,0,0,0,0
6,69999,33,60000,4,40000,49,9999,0.100000,0,0,0.000000,6,2.000000,0.000000,7.077015,0,0,0,0,0,0,0
6,69999,34,60000,32,0,40,9999,0.100000,0,0,0.000000,6,0.000000,0.000000,0.397463,0,0,0,0,0,0,0
6,69999,35,60000,32,0,40,9999,0.100000,0,0,0.000000,6,0.000000,0.000000,0.613284,0,0,0,0,0,0,0
6,69999,36,60000,83,40000,49,9999,0.100000,0,0,0.000000,6,1.000000,0.000000,11.911992,0,0,0,0,0,0,0
6,69999,37,60000,78,40000,49,9999,0.100000,0,0,0.000000,6,1.000000,0.000000,6.345925,0,0,0,0,0,0,0
6,69999,38,60000,4,40000,40,9999,0.100000,0,0,0.000000,6,0.000000,0.000000,0.856034,0,0,0,0,0,0,0
6,69999,39,60000,78,40000,40,9999,0.100000,0,0,0.000000,6,0.000000,0.000000,1.063009,0,0,0,0,0,0,0
6,69999,40,60000,55,20000,40,9999,0.100000,0,0,0.000000,6,0.000000,0.000000,2.955806,0,0,0,0,0,0,0
6,69999,41,60000,78,40000,49,9999,0.100000,0,0,0.000000,6,1.000000,0.000000,12.431576,0,0,0,0,0,0,0
6,69999,42,60000,4,40000,49,9999,0.100000,0,0,0.000000,6,1.000000,0.000000,17.576289,0,0,0,0,0,0,0
6,69999,43,60000,4,40000,40,9999,0.100000,0,0,0.000000,6,0.000000,0.000000,11.918902,0,0,0,0,0,0,0
6,69999,44,60000,32,0,49,9999,0.100000,0,0,0.000000,6,2.000000,0.000000,2.595604,0,0,0,0,0,0,0
6,69999,45,60000,4,40000,40,9999,0.100000,0,0,0.000000,6,0.000000,0.000000,0.473499,0,0,0,0,0,0,0
6,69999,46,60000,32,0,49,9999,0.100000,0,0,0.000000,6,1.000000,0.000000,7.890650,0,0,0,0,0,0,0
6,69999,47,60000,51,0,9,9999,0.100000,0,0,34.210526,6,12.000000,0.000000,14.295714,0,0,0,0,1,0,0
6,69999,48,60000,78,40000,40,9999,0.100000,0,0,0.000000,6,0.000000,0.000000,0.197758,0,0,0,0,0,0,0
6,69999,49,60000,4,40000,40,9999,0.100000,0,0,0.000000,6,0.000000,0.000000,0.490748,0,0,0,0,0,0,0
6,69999,50,60000,51,0,40,9999,0.100000,0,0,0.000000,6,0.000000,0.000000,0.999787,0,0,0,0,0,0,0
6,69999,51,60000,83,40000,49,9999,0.100000,0,0,0.000000,6,2.000000,0.000000,2.607701,0,0,0,0,0,0,0
6,69999,52,60000,83,40000,40,9999,0.100000,0,0,0.000000,6,0.000000,0.000000,21.976102,0,0,0,0,0,0,0
6,69999,53,60000,32,0,49,9999,0.100000,0,0,0.000000,6,1.000000,0.000000,8.986648,0,0,0,0,0,0,0
6,69999,54,60000,55,20000,40,9999,0.100000,0,0,0.000000,6,0.000000,0.000000,0.512059,0,0,0,0,0,0,0
6,69999,55,60000,32,0,49,9999,0.100000,0,0,0.000000,6,1.000000,0.000000,9.715705,0,0,0,0,0,0,0
6,69999,56,60000,55,20000,49,9999,0.100000,0,0,0.000000,6,2.000000,0.000000,7.603433,0,0,0,0,0,0,0
6,69999,57,60000,83,40000,9,9999,0.100000,0,0,34.210526,6,12.000000,0.000000,13.653020,0,0,0,0,1,0,0
6,69999,58,60000,4,40000,40,9999,0.100000,0,0,0.000000,6,0.000000,0.000000,5.497569,0,0,0,0,0,0,0
6,69999,59,60000,51,0,49,9999,0.100000,0,0,0.000000,6,3.000000,0.000000,6.191450,0,0,0,0,0,0,0
6,69999,60,60000,32,0,49,9999,0.100000,0,0,0.000000,6,2.000000,0.000000,3.314930,0,0,0,0,0,0,0
6,69999,61,60000,78,40000,99,9999,0.100000,0,0,65.705639,6,10.000000,0.000000,13.662577,0,0,1,0,0,0,0
6,69999,62,60000,51,0,40,9999,0.100000,0,0,0.000000,6,0.000000,0.000000,0.137159,0,0,0,0,0,0,0
6,69999,63,60000,51,0,49,9999,0.100000,0,0,0.000000,6,8.000000,0.000000,20.540751,0,0,0,0,0,0,0
6,69999,64,60000,78,40000,40,9999,0.100000,0,0,0.000000,6,0.000000,0.000000,0.409820,0,0,0,0,0,0,0
6,69999,65,60000,78,40000,40,9999,0.100000,0,0,0.000000,6,0.000000,0.000000,2.605892,0,0,0,0,0,0,0
6,69999,66,60000,4,40000,40,9999,0.100000,0,0,0.000000,6,0.000000,0.000000,0.338721,0,0,0,0,0,0,0
6,69999,67,60000,32,0,40,9999,0.100000,0,0,0.000000,6,0.000000,0.000000,1.014215,0,0,0,0,0,0,0
6,69999,68,60000,55,20000,49,9999,0.100000,0,0,0.000000,6,1.000000,0.000000,8.742408,0,0,0,0,0,0,0
6,69999,69,60000,78,40000,40,9999,0.100000,0,0,0.000000,6,0.000000,0.000000,0.674994,0,0,0,0,0,0,0
6,69999,70,60000,4,40000,40,9999,0.100000,0,0,0.000000,6,0.000000,0.000000,0.199236,0,0,0,0,0,0,0
6,69999,71,60000,51,0,40,9999,0.100000,0,0,0.000000,6,0.000000,0.000000,0.306694,0,0,0,0,0,0,0
6,69999,72,60000,51,0,40,9999,0.100000,0,0,0.000000,6,0.000000,0.000000,4.497809,0,0,0,0,0,0,0
6,69999,73,60000,83,40000,40,9999,0.100000,0,0,0.000000,6,0.000000,0.000000,0.143669,0,0,0,0,0,0,0
6,69999,74,60000,32,0,40,9999,0.100000,0,0,0.000000,6,0.000000,0.000000,0.998724,0,0,0,0,0,0,0
6,69999,75,60000,83,40000,40,9999,0.100000,0,0,0.000000,6,0.000000,0.000000,0.708926,0,0,0,0,0,0,0
6,69999,76,60000,78,40000,40,9999,0.100000,0,0,0.000000,6,0.000000,0.000000,0.302428,0,0,0,0,0,0,0
6,69999,77,60000,55,20000,49,9999,0.100000,0,0,0.000000,6,2.000000,0.000000,2.621643,0,0,0,0,0,0,0
6,69999,78,60000,78,40000,49,9999,0.100000,0,0,0.000000,6,14.000000,0.000000,17.652435,0,0,0,0,0,0,0
6,69999,79,60000,83,40000,49,9999,0.100000,0,0,0.000000,6,2.000000,0.000000,15.202127,0,0,0,0,0,0,0
6,69999,80,60000,4,40000,40,9999,0.100000,0,0,0.000000,6,0.000000,0.000000,20.146051,0,0,0,0,0,0,0
6,69999,81,60000,32,0,40,9999,0.100000,0,0,0.000000,6,0.000000,0.000000,0.230340,0,0,0,0,0,0,0
6,69999,82,60000,4,40000,40,9999,0.100000,0,0,0.000000,6,0.000000,0.000000,1.406743,0,0,0,0,0,0,0
6,69999,83,60000,32,0,40,9999,0.100000,0,0,0.000000,6,0.000000,0.000000,0.118548,0,0,0,0,0,0,0
6,69999,84,60000,78,40000,49,9999,0.100000,0,0,0.000000,6,2.000000,0.000000,13.621882,0,0,0,0,0,0,0
6,69999,85,60000,32,0,49,9999,0.100000,0,0,0.000000,6,1.000000,0.000000,5.548349,0,0,0,0,0,0,0
6,69999,86,60000,83,40000,40,9999,0.100000,0,0,0.000000,6,0.000000,0.000000,0.142145,0,0,0,0,0,0,0
6,69999,87,60000,51,0,40,9999,0.100000,0,0,0.000000,6,0.000000,0.000000,1.020580,0,0,0,0,0,0,0
6,69999,88,60000,83,40000,40,9999,0.100000,0,0,0.000000,6,0.000000,0.000000,2.695767,0,0,0,0,0,0,0
6,69999,89,60000,4,40000,49,9999,0.100000,0,0,0.000000,6,4.000000,0.000000,12.816179,0,0,0,0,0,0,0
6,69999,90,60000,32,0,49,9999,0.100000,0,0,0.000000,6,1.000000,0.000000,1.353857,0,0,0,0,0,0,0
6,69999,91,60000,78,40000,40,9999,0.100000,0,0,0.000000,6,0.000000,0.000000,0.786306,0,0,0,0,0,0,0
6,69999,92,60000,51,0,40,9999,0.100000,0,0,0.000000,6,0.000000,0.000000,0.369874,0,0,0,0,0,0,0
6,69999,93,60000,4,40000,49,9999,0.100000,0,0,0.000000,6,2.000000,0.000000,8.198499,0,0,0,0,0,0,0
6,69999,94,60000,32,0,49,9999,0.100000,0,0,0.000000,6,2.000000,0.000000,14.659604,0,0,0,0,0,0,0
6,69999,95,60000,4,40000,40,9999,0.100000,0,0,0.000000,6,0.000000,0.000000,0.617496,0,0,0,0,0,0,0
6,69999,96,60000,32,0,40,9999,0.100000,0,0,0.000000,6,0.000000,0.000000,0.849081,0,0,0,0,0,0,0
6,69999,97,60000,4,40000,49,9999,0.100000,0,0,0.000000,6,2.000000,0.000000,11.645054,0,0,0,0,0,0,0
6,69999,98,60000,78,40000,40,9999,0.100000,0,0,0.000000,6,0.000000,0.000000,1.095478,0,0,0,0,0,0,0
6,69999,99,60000,4,40000,40,9999,0.100000,0,0,0.000000,6,0.000000,0.000000,0.393442,0,0,0,0,0,0,0
7,79999,0,70000,55,20000,40,9999,0.100000,0,0,0.000000,6,0.000000,0.000000,0.685969,0,0,0,0,0,0,0
7,79999,1,70000,78,40000,40,9999,0.100000,0,0,0.000000,6,0.000000,0.000000,0.401363,0,0,0,0,0,0,0
7,79999,2,70000,78,40000,40,9999,0.100000,0,0,0.000000,6,0.000000,0.000000,1.187613,0,0,0,0,0,0,0
7,79999,3,70000,51,0,49,9999,0.100000,0,0,0.000000,6,7.000000,0.000000,7.444824,0,0,0,0,0,0,0
7,79999,4,70000,78,40000,40,9999,0.100000,0,0,0.000000,6,0.000000,0.000000,0.482338,0,0,0,0,0,0,0
7,79999,5,70000,51,0,40,9999,0.100000,0,0,0.000000,6,0.000000,0.000000,0.015486,0,0,0,0,0,0,0
7,79999,6,70000,55,20000,49,9999,0.100000,0,0,0.000000,6,2.000000,0.000000,2.846500,0,0,0,0,0,0,0
7,79999,7,70000,51,0,49,9999,0.100000,0,0,0.000000,6,1.000000,0.000000,7.886052,0,0,0,0,0,0,0
7,79999,8,70000,55,20000,40,9999,0.100000,0,0,0.000000,6,0.000000,0.000000,1.007707,0,0,0,0,0,0,0
7,79999,9,70000,4,40000,40,9999,0.100000,0,0,0.000000,6,0.000000,0.000000,1.260096,0,0,0,0,0,0,0
7,79999,10,70000,51,0,40,9999,0.100000,0,0,0.000000,6,0.000000,0.000000,0.135062,0,0,0,0,0,0,0
7,79999,11,70000,32,0,40,9999,0.100000,0,0,0.000000,6,0.000000,0.000000,24.043118,0,0,0,0,0,0,0
7,79999,12,70000,32,0,40,9999,0.100000,0,0,0.000000,6,0.000000,0.000000,0.458399,0,0,0,0,0,0,0
7,79999,13,70000,32,0,40,9999,0.100000,0,0,0.000000,6,0.000000,0.000000,0.214570,0,0,0,0,0,0,0
7,79999,14,70000,4,40000,49,9999,0.100000,0,0,0.000000,6,2.000000,0.000000,25.670393,0,0,0,0,0,0,0
7,79999,15,70000,4,40000,40,9999,0.100000,0,0,0.000000,6,0.000000,0.000000,0.599263,0,0,0,0,0,0,0
7,79999,16,70000,4,40000,40,9999,0.100000,0,0,0.000000,6,0.000000,0.000000,0.378454,0,0,0,0,0,0,0
7,79999,17,70000,51,0,40,9999,0.100000,0,0,0.000000,6,0.000000,0.000000,0.557933,0,0,0,0,0,0,0
7,79999,18,70000,78,40000,0,9999,0.100000,0,0,0.000000,6,0.000000,0.000000,0.427887,0,0,0,0,0,1,0
7,79999,19,70000,4,40000,40,9999,0.100000,0,0,0.000000,6,0.000000,0.000000,0.009115,0,0,0,0,0,0,0
7,79999,20,70000,78,40000,49,9999,0.100000,0,0,0.000000,6,7.000000,0.000000,7.576327,0,0,0,0,0,0,0
7,79999,21,70000,83,40000,40,9999,0.100000,0,0,0.000000,6,0.000000,0.000000,0.194082,0,0,0,0,0,0,0
7,79999,22,70000,51,0,40,9999,0.135000,0,0,0.000000,6,0.000000,0.000000,0.355737,0,0,0,0,0,0,0
7,79999,23,70000,78,40000,40,9999,0.100000,0,0,0.000000,6,0.000000,0.000000,5.670351,0,0,0,0,0,0,0
7,79999,24,70000,83,40000,49,9999,0.100000,0,0,0.000000,6,1.000000,0.000000,5.253541,0,0,0,0,0,0,0
7,79999,25,70000,55,20000,40,9999,0.100000,0,0,0.000000,6,0.000000,0.000000,0.686031,0,0,0,0,0,0,0
7,79999,26,70000,51,0,49,9999,0.100000,0,0,0.000000,6,1.000000,0.000000,14.933224,0,0,0,0,0,0,0
7,79999,27,70000,32,0,40,9999,0.100000,0,0,0.000000,6,0.000000,0.000000,0.545904,0,0,0,0,0,0,0
7,79999,28,70000,51,0,49,9999,0.100000,0,0,0.000000,6,1.000000,0.000000,6.360784,0,0,0,0,0,0,0
7,79999,29,70000,78,40000,40,9999,0.100000,0,0,0.000000,6,0.000000,0.000000,3.514335,0,0,0,0,0,0,0
7,79999,30,70000,83,40000,40,9999,0.100000,0,0,0.000000,6,0.000000,0.000000,1.196145,0,0,0,0,0,0,0
7,79999,31,70000,4,40000,49,9999,0.100000,0,0,0.000000,6,10.000000,0.000000,13.973509,0,0,0,0,0,0,0
7,79999,32,70000,32,0,40,9999,0.100000,0,0,0.000000,6,0.000000,0.000000,0.139543,0,0,0,0,0,0,0
7,79999,33,70000,4,40000,49,9999,0.100000,0,0,0.000000,6,1.000000,0.000000,3.920179,0,0,0,0,0,0,0
7,79999,34,70000,83,40000,40,9999,0.100000,0,0,0.000000,6,0.000000,0.000000,0.296962,0,0,0,0,0,0,0
7,79999,35,70000,83,40000,40,9999,0.100000,0,0,0.000000,6,0.000000,0.000000,0.439458,0,0,0,0,0,0,0
7,79999,36,70000,4,40000,49,9999,0.065000,0,0,0.000000,6,1.000000,0.000000,11.781601,0,0,0,0,0,0,0
7,79999,37,70000,4,40000,40,9999,0.100000,0,0,0.000000,6,0.000000,0.000000,1.345537,0,0,0,0,0,0,0
7,79999,38,70000,55,20000,40,9999,0.100000,0,0,0.000000,6,0.000000,0.000000,0.563004,0,0,0,0,0,0,0
7,79999,39,70000,4,40000,40,9999,0.100000,0,0,0.000000,6,0.000000,0.000000,1.222184,0,0,0,0,0,0,0
7,79999,40,70000,32,0,40,9999,0.100000,0,0,0.000000,6,0.000000,0.000000,0.701633,0,0,0,0,0,0,0
7,79999,41,70000,4,40000,49,9999,0.100000,0,0,0.000000,6,5.000000,0.000000,10.585280,0,0,0,0,0,0,0
7,79999,42,70000,4,40000,40,9999,0.100000,0,0,0.000000,6,0.000000,0.000000,22.303777,0,0,0,0,0,0,0
7,79999,43,70000,32,0,49,9999,0.100000,0,0,0.000000,6,1.000000,0.000000,13.254025,0,0,0,0,0,0,0
7,79999,44,70000,55,20000,40,9999,0.100000,0,0,0.000000,6,0.000000,0.000000,0.996956,0,0,0,0,0,0,0
7,79999,45,70000,78,40000,40,9999,0.100000,0,0,0.000000,6,0.000000,0.000000,0.412799,0,0,0,0,0,0,0
7,79999,46,70000,78,40000,40,9999,0.100000,0,0,0.000000,6,0.000000,0.000000,5.529658,0,0,0,0,0,0,0
7,79999,47,70000,32,0,49,9999,0.100000,0,0,0.000000,6,3.000000,0.000000,19.674538,0,0,0,0,0,0,0
7,79999,48,70000,83,40000,40,9999,0.100000,0,0,0.000000,6,0.000000,0.000000,0.203884,0,0,0,0,0,0,0
7,79999,49,70000,83,40000,40,9999,0.100000,0,0,0.000000,6,0.000000,0.000000,0.333112,0,0,0,0,0,0,0
7,79999,50,70000,78,40000,40,9999,0.100000,0,0,0.000000,6,0.000000,0.000000,0.685459,0,0,0,0,0,0,0
7,79999,51,70000,32,0,40,9999,0.100000,0,0,0.000000,6,0.000000,0.000000,0.837005,0,0,0,0,0,0,0
7,79999,52,70000,55,20000,40,9999,0.100000,0,0,0.000000,6,0.000000,0.000000,13.609180,0,0,0,0,0,0,0
7,79999,53,70000,78,40000,49,9999,0.100000,0,0,0.000000,6,1.000000,0.000000,11.977301,0,0,0,0,0,0,0
7,79999,54,70000,51,0,40,9999,0.100000,0,0,0.000000,6,0.000000,0.000000,0.573070,0,0,0,0,0,0,0
7,79999,55,70000,4,40000,49,9999,0.100000,0,0,0.000000,6,4.000000,0.000000,27.026791,0,0,0,0,0,0,0
7,79999,56,70000,55,20000,49,9999,0.100000,0,0,0.000000,6,1.000000,0.000000,5.265612,0,0,0,0,0,0,0
7,79999,57,70000,32,0,49,9999,0.100000,0,0,0.000000,6,3.000000,0.000000,10.789469,0,0,0,0,0,0,0
7,79999,58,70000,51,0,40,9999,0.100000,0,0,0.000000,6,0.000000,0.000000,5.201134,0,0,0,0,0,0,0
7,79999,59,70000,51,0,49,9999,0.100000,0,0,0.000000,6,3.000000,0.000000,9.886092,0,0,0,0,0,0,0
7,79999,60,70000,32,0,40,9999,0.100000,0,0,0.000000,6,0.000000,0.000000,1.493054,0,0,0,0,0,0,0
7,79999,61,70000,4,40000,0,9999,0.100000,0,0,0.000000,6,0.000000,0.000000,2.441673,0,0,0,0,0,1,0
7,79999,62,70000,78,40000,40,9999,0.100000,0,0,0.000000,6,0.000000,0.000000,0.140123,0,0,0,0,0,0,0
7,79999,63,70000,32,0,40,9999,0.100000,0,0,0.000000,6,0.000000,0.000000,1.166787,0,0,0,0,0,0,0
7,79999,64,70000,78,40000,40,9999,0.100000,0,0,0.000000,6,0.000000,0.000000,0.532347,0,0,0,0,0,0,0
7,79999,65,70000,83,40000,40,9999,0.100000,0,0,0.000000,6,0.000000,0.000000,2.753774,0,0,0,0,0,0,0
7,79999,66,70000,78,40000,40,9999,0.100000,0,0,0.000000,6,0.000000,0.000000,0.156168,0,0,0,0,0,0,0
7,79999,67,70000,83,40000,40,9999,0.100000,0,0,0.000000,6,0.000000,0.000000,0.604679,0,0,0,0,0,0,0
7,79999,68,70000,78,40000,40,9999,0.100000,0,0,0.000000,6,0.000000,0.000000,0.646817,0,0,0,0,0,0,0
7,79999,69,70000,51,0,40,9999,0.100000,0,0,0.000000,6,0.000000,0.000000,0.192805,0,0,0,0,0,0,0
7,79999,70,70000,51,0,40,9999,0.100000,0,0,0.000000,6,0.000000,0.000000,0.176940,0,0,0,0,0,0,0
7,79999,71,70000,4,40000,40,9999,0.100000,0,0,0.000000,6,0.000000,0.000000,0.260535,0,0,0,0,0,0,0
7,79999,72,70000,55,20000,40,9999,0.100000,0,0,0.000000,6,0.000000,0.000000,0.142836,0,0,0,0,0,0,0
7,79999,73,70000,4,40000,40,9999,0.100000,0,0,0.000000,6,0.000000,0.000000,0.139960,0,0,0,0,0,0,0
7,79999,74,70000,55,20000,40,9999,0.100000,0,0,0.000000,6,0.000000,0.000000,0.565636,0,0,0,0,0,0,0
7,79999,75,70000,51,0,0,9999,0.100000,0,0,0.000000,6,0.000000,0.000000,3.434299,0,0,0,0,0,1,0
7,79999,76,70000,4,40000,40,9999,0.100000,0,0,0.000000,6,0.000000,0.000000,0.691779,0,0,0,0,0,0,0
7,79999,77,70000,4,40000,49,9999,0.100000,0,0,0.000000,6,1.000000,0.000000,11.544699,0,0,0,0,0,0,0
7,79999,78,70000,32,0,40,9999,0.100000,0,0,0.000000,6,0.000000,0.000000,0.242708,0,0,0,0,0,0,0
7,79999,79,70000,4,40000,49,9999,0.100000,0,0,0.000000,6,2.000000,0.000000,24.425742,0,0,0,0,0,0,0
7,79999,80,70000,32,0,40,9999,0.100000,0,0,0.000000,6,0.000000,0.000000,21.291128,0,0,0,0,0,0,0
7,79999,81,70000,4,40000,40,9999,0.100000,0,0,0.000000,6,0.000000,0.000000,0.312693,0,0,0,0,0,0,0
7,79999,82,70000,83,40000,40,9999,0.100000,0,0,0.000000,6,0.000000,0.000000,5.335411,0,0,0,0,0,0,0
7,79999,83,70000,4,40000,40,9999,0.100000,0,0,0.000000,6,0.000000,0.000000,3.990284,0,0,0,0,0,0,0
7,79999,84,70000,51,0,49,9999,0.100000,0,0,0.000000,6,1.000000,0.000000,3.684723,0,0,0,0,0,0,0
7,79999,85,70000,32,0,49,9999,0.100000,0,0,0.000000,6,2.000000,0.000000,12.659077,0,0,0,0,0,0,0
7,79999,86,70000,4,40000,40,9999,0.100000,0,0,0.000000,6,0.000000,0.000000,0.140227,0,0,0,0,0,0,0
7,79999,87,70000,83,40000,40,9999,0.100000,0,0,0.000000,6,0.000000,0.000000,0.986198,0,0,0,0,0,0,0
7,79999,88,70000,51,0,40,9999,0.100000,0,0,0.000000,6,0.000000,0.000000,0.156817,0,0,0,0,0,0,0
7,79999,89,70000,51,0,49,9999,0.100000,0,0,0.000000,6,2.000000,0.000000,5.461639,0,0,0,0,0,0,0
7,79999,90,70000,4,40000,49,9999,0.100000,0,0,0.000000,6,3.000000,0.000000,5.452531,0,0,0,0,0,0,0
7,79999,91,70000,51,0,40,9999,0.100000,0,0,0.000000,6,0.000000,0.000000,0.369796,0,0,0,0,0,0,0
7,79999,92,70000,51,0,40,9999,0.100000,0,0,0.000000,6,0.000000,0.000000,0.141322,0,0,0,0,0,0,0
7,79999,93,70000,83,40000,49,9999,0.100000,0,0,0.000000,6,3.000000,0.000000,7.713527,0,0,0,0,0,0,0
7,79999,94,70000,32,0,49,9999,0.100000,0,0,0.000000,6,1.000000,0.000000,9.517298,0,0,0,0,0,0,0
7,79999,95,70000,55,20000,40,9999,0.100000,0,0,0.000000,6,0.000000,0.000000,0.356208,0,0,0,0,0,0,0
7,79999,96,70000,78,40000,40,9999,0.100000,0,0,0.000000,6,0.000000,0.000000,0.460633,0,0,0,0,0,0,0
7,79999,97,70000,83,40000,49,9999,0.100000,0,0,0.000000,6,1.000000,0.000000,6.190129,0,0,0,0,0,0,0
7,79999,98,70000,78,40000,40,9999,0.100000,0,0,0.000000,6,0.000000,0.000000,0.627618,0,0,0,0,0,0,0
7,79999,99,70000,55,20000,40,9999,0.100000,0,0,0.000000,6,0.000000,0.000000,0.424556,0,0,0,0,0,0,0
8,89999,0,80000,32,0,40,9999,0.100000,0,0,0.000000,6,0.000000,0.000000,0.697119,0,0,0,0,0,0,0
8,89999,1,80000,78,40000,40,9999,0.100000,0,0,0.000000,6,0.000000,0.000000,0.160665,0,0,0,0,0,0,0
8,89999,2,80000,4,40000,40,9999,0.100000,0,0,0.000000,6,0.000000,0.000000,1.402205,0,0,0,0,0,0,0
8,89999,3,80000,32,0,49,9999,0.100000,0,0,0.000000,6,4.000000,0.000000,11.887753,0,0,0,0,0,0,0
8,89999,4,80000,32,0,40,9999,0.100000,0,0,0.000000,6,0.000000,0.000000,0.592603,0,0,0,0,0,0,0
8,89999,5,80000,83,40000,40,9999,0.100000,0,0,0.000000,6,0.000000,0.000000,0.052677,0,0,0,0,0,0,0
8,89999,6,80000,83,40000,40,9999,0.100000,0,0,0.000000,6,0.000000,0.000000,0.240535,0,0,0,0,0,0,0
8,89999,7,80000,83,40000,49,9999,0.100000,0,0,0.000000,6,2.000000,0.000000,5.451569,0,0,0,0,0,0,0
8,89999,8,80000,4,40000,40,9999,0.100000,0,0,0.000000,6,0.000000,0.000000,0.935359,0,0,0,0,0,0,0
8,89999,9,80000,55,20000,40,9999,0.100000,0,0,0.000000,6,0.000000,0.000000,0.802318,0,0,0,0,0,0,0
8,89999,10,80000,83,40000,40,9999,0.100000,0,0,0.000000,6,0.000000,0.000000,0.134257,0,0,0,0,0,0,0
8,89999,11,80000,4,40000,40,9999,0.100000,0,0,0.000000,6,0.000000,0.000000,15.997935,0,0,0,0,0,0,0
8,89999,12,80000,32,0,40,9999,0.100000,0,0,0.000000,6,0.000000,0.000000,0.257785,0,0,0,0,0,0,0
8,89999,13,80000,51,0,40,9999,0.100000,0,0,0.000000,6,0.000000,0.000000,1.027878,0,0,0,0,0,0,0
8,89999,14,80000,55,20000,49,9999,0.100000,0,0,0.000000,6,2.000000,0.000000,10.656376,0,0,0,0,0,0,0
8,89999,15,80000,78,40000,40,9999,0.100000,0,0,0.000000,6,0.000000,0.000000,0.643578,0,0,0,0,0,0,0
8,89999,16,80000,4,40000,40,9999,0.100000,0,0,0.000000,6,0.000000,0.000000,0.354249,0,0,0,0,0,0,0
8,89999,17,80000,51,0,40,9999,0.100000,0,0,0.000000,6,0.000000,0.000000,0.560316,0,0,0,0,0,0,0
8,89999,18,80000,78,40000,40,9999,0.100000,0,0,0.000000,6,0.000000,0.000000,0.321600,0,0,0,0,0,0,0
8,89999,19,80000,83,40000,40,9999,0.100000,0,0,0.000000,6,0.000000,0.000000,0.009110,0,0,0,0,0,0,0
8,89999,20,80000,32,0,49,9999,0.100000,0,0,0.000000,6,2.000000,0.000000,6.404636,0,0,0,0,0,0,0
8,89999,21,80000,51,0,40,9999,0.100000,0,0,0.000000,6,0.000000,0.000000,0.105256,0,0,0,0,0,0,0
8,89999,22,80000,55,20000,40,9999,0.100000,0,0,0.000000,6,0.000000,0.000000,0.205725,0,0,0,0,0,0,0
8,89999,23,80000,51,0,40,9999,0.100000,0,0,0.000000,6,0.000000,0.000000,7.608217,0,0,0,0,0,0,0
8,89999,24,80000,51,0,49,9999,0.100000,0,0,0.000000,6,1.000000,0.000000,8.732332,0,0,0,0,0,0,0
8,89999,25,70000,55,20000,40,19999,0.100000,0,0,0.000000,6,0.000000,0.000000,0.557813,0,0,0,0,0,0,0
8,89999,26,80000,51,0,40,9999,0.100000,0,0,0.000000,6,0.000000,0.000000,8.686138,0,0,0,0,0,0,0
8,89999,27,80000,4,40000,40,9999,0.100000,0,0,0.000000,6,0.000000,0.000000,1.238534,0,0,0,0,0,0,0
8,89999,28,80000,83,40000,49,9999,0.100000,0,0,0.000000,6,1.000000,0.000000,7.672090,0,0,0,0,0,0,0
8,89999,29,80000,83,40000,40,9999,0.100000,0,0,0.000000,6,0.000000,0.000000,4.708195,0,0,0,0,0,0,0
8,89999,30,80000,83,40000,40,9999,0.100000,0,0,0.000000,6,0.000000,0.000000,0.709826,0,0,0,0,0,0,0
8,89999,31,80000,55,20000,49,9999,0.100000,0,0,0.000000,6,10.000000,0.000000,11.270615,0,0,0,0,0,0,0
8,89999,32,80000,78,40000,40,9999,0.100000,0,0,0.000000,6,0.000000,0.000000,0.138375,0,0,0,0,0,0,0
8,89999,33,80000,4,40000,40,9999,0.100000,0,0,0.000000,6,0.000000,0.000000,9.179359,0,0,0,0,0,0,0
8,89999,34,80000,51,0,40,9999,0.100000,0,0,0.000000,6,0.000000,0.000000,0.308476,0,0,0,0,0,0,0
8,89999,35,80000,4,40000,40,9999,0.100000,0,0,0.000000,6,0.000000,0.000000,0.152218,0,0,0,0,0,0,0
8,89999,36,80000,51,0,49,9999,0.065000,0,0,0.000000,6,10.000000,0.000000,10.776677,0,0,0,0,0,0,0
8,89999,37,80000,32,0,40,9999,0.100000,0,0,0.000000,6,0.000000,0.000000,1.515743,0,0,0,0,0,0,0
8,89999,38,80000,51,0,40,9999,0.100000,0,0,0.000000,6,0.000000,0.000000,0.612647,0,0,0,0,0,0,0
8,89999,39,80000,83,40000,40,9999,0.100000,0,0,0.000000,6,0.000000,0.000000,0.660006,0,0,0,0,0,0,0
8,89999,40,80000,78,40000,40,9999,0.100000,0,0,0.000000,6,0.000000,0.000000,0.519242,0,0,0,0,0,0,0
8,89999,41,80000,32,0,40,9999,0.100000,0,0,0.000000,6,0.000000,0.000000,1.018266,0,0,0,0,0,0,0
8,89999,42,80000,4,40000,40,9999,0.100000,0,0,0.000000,6,0.000000,0.000000,23.141829,0,0,0,0,0,0,0
8,89999,43,80000,4,40000,49,9999,0.100000,0,0,0.000000,6,3.000000,0.000000,13.544613,0,0,0,0,0,0,0
8,89999,44,80000,55,20000,40,9999,0.100000,0,0,0.000000,6,0.000000,0.000000,0.828210,0,0,0,0,0,0,0
8,89999,45,80000,32,0,40,9999,0.100000,0,0,0.000000,6,0.000000,0.000000,0.298162,0,0,0,0,0,0,0
8,89999,46,80000,55,20000,49,9999,0.100000,0,0,0.000000,6,2.000000,0.000000,8.433836,0,0,0,0,0,0,0
8,89999,47,80000,55,20000,40,9999,0.100000,0,0,0.000000,6,0.000000,0.000000,4.978005,0,0,0,0,0,0,0
8,89999,48,80000,83,40000,40,9999,0.100000,0,0,0.000000,6,0.000000,0.000000,0.205956,0,0,0,0,0,0,0
8,89999,49,80000,4,40000,40,9999,0.100000,0,0,0.000000,6,0.000000,0.000000,0.495249,0,0,0,0,0,0,0
8,89999,50,80000,78,40000,40,9999,0.100000,0,0,0.000000,6,0.000000,0.000000,0.494521,0,0,0,0,0,0,0
8,89999,51,80000,32,0,40,9999,0.100000,0,0,0.000000,6,0.000000,0.000000,0.893723,0,0,0,0,0,0,0
8,89999,52,80000,32,0,40,9999,0.100000,0,0,0.000000,6,0.000000,0.000000,22.173471,0,0,0,0,0,0,0
8,89999,53,80000,83,40000,40,9999,0.100000,0,0,0.000000,6,0.000000,0.000000,7.140151,0,0,0,0,0,0,0
8,89999,54,80000,78,40000,40,9999,0.100000,0,0,0.000000,6,0.000000,0.000000,0.300308,0,0,0,0,0,0,0
8,89999,55,80000,4,40000,40,9999,0.100000,0,0,0.000000,6,0.000000,0.000000,9.642332,0,0,0,0,0,0,0
8,89999,56,80000,83,40000,40,9999,0.100000,0,0,0.000000,6,0.000000,0.000000,5.151075,0,0,0,0,0,0,0
8,89999,57,80000,32,0,49,9999,0.100000,0,0,0.000000,6,3.000000,0.000000,7.676225,0,0,0,0,0,0,0
8,89999,58,80000,78,40000,40,9999,0.100000,0,0,0.000000,6,0.000000,0.000000,5.340598,0,0,0,0,0,0,0
8,89999,59,80000,55,20000,49,9999,0.100000,0,0,0.000000,6,1.000000,0.000000,4.653964,0,0,0,0,0,0,0
8,89999,60,80000,32,0,49,9999,0.100000,0,0,0.000000,6,5.000000,0.000000,23.216876,0,0,0,0,0,0,0
8,89999,61,80000,51,0,40,9999,0.100000,0,0,0.000000,6,0.000000,0.000000,4.513698,0,0,0,0,0,0,0
8,89999,62,80000,51,0,40,9999,0.100000,0,0,0.000000,6,0.000000,0.000000,0.134992,0,0,0,0,0,0,0
8,89999,63,80000,78,40000,40,9999,0.100000,0,0,0.000000,6,0.000000,0.000000,0.570169,0,0,0,0,0,0,0
8,89999,64,80000,55,20000,40,9999,0.100000,0,0,0.000000,6,0.000000,0.000000,0.356200,0,0,0,0,0,0,0
8,89999,65,80000,83,40000,40,9999,0.100000,0,0,0.000000,6,0.000000,0.000000,4.430674,0,0,0,0,0,0,0
8,89999,66,80000,51,0,40,9999,0.100000,0,0,0.000000,6,0.000000,0.000000,0.156422,0,0,0,0,0,0,0
8,89999,67,80000,78,40000,40,9999,0.100000,0,0,0.000000,6,0.000000,0.000000,1.255633,0,0,0,0,0,0,0
8,89999,68,80000,78,40000,40,9999,0.100000,0,0,0.000000,6,0.000000,0.000000,0.592820,0,0,0,0,0,0,0
8,89999,69,80000,83,40000,40,9999,0.100000,0,0,0.000000,6,0.000000,0.000000,0.253425,0,0,0,0,0,0,0
8,89999,70,80000,55,20000,40,9999,0.100000,0,0,0.000000,6,0.000000,0.000000,0.216207,0,0,0,0,0,0,0
8,89999,71,80000,32,0,40,9999,0.100000,0,0,0.000000,6,0.000000,0.000000,0.210888,0,0,0,0,0,0,0
8,89999,72,80000,32,0,40,9999,0.100000,0,0,0.000000,6,0.000000,0.000000,0.139793,0,0,0,0,0,0,0
8,89999,73,80000,51,0,40,9999,0.100000,0,0,0.000000,6,0.000000,0.000000,0.140923,0,0,0,0,0,0,0
8,89999,74,80000,4,40000,40,9999,0.100000,0,0,0.000000,6,0.000000,0.000000,0.555460,0,0,0,0,0,0,0
8,89999,75,80000,4,40000,40,9999,0.100000,0,0,0.000000,6,0.000000,0.000000,0.703974,0,0,0,0,0,0,0
8,89999,76,80000,78,40000,40,9999,0.100000,0,0,0.000000,6,0.000000,0.000000,0.451486,0,0,0,0,0,0,0
8,89999,77,80000,32,0,49,9999,0.100000,0,0,0.000000,6,1.000000,0.000000,14.238723,0,0,0,0,0,0,0
8,89999,78,80000,4,40000,40,9999,0.100000,0,0,0.000000,6,0.000000,0.000000,0.235457,0,0,0,0,0,0,0
8,89999,79,80000,51,0,49,9999,0.100000,0,0,0.000000,6,1.000000,0.000000,6.418752,0,0,0,0,0,0,0
8,89999,80,80000,83,40000,40,9999,0.100000,0,0,0.000000,6,0.000000,0.000000,21.517037,0,0,0,0,0,0,0
8,89999,81,80000,51,0,40,9999,0.100000,0,0,0.000000,6,0.000000,0.000000,0.140398,0,0,0,0,0,0,0
8,89999,82,80000,78,40000,40,9999,0.100000,0,0,0.000000,6,0.000000,0.000000,3.342484,0,0,0,0,0,0,0
8,89999,83,80000,32,0,40,9999,0.100000,0,0,0.000000,6,0.000000,0.000000,3.300226,0,0,0,0,0,0,0
8,89999,84,80000,51,0,40,9999,0.065000,0,0,0.000000,6,0.000000,0.000000,1.429679,0,0,0,0,0,0,0
8,89999,85,80000,83,40000,40,9999,0.100000,0,0,0.000000,6,0.000000,0.000000,0.199073,0,0,0,0,0,0,0
8,89999,86,80000,55,20000,40,9999,0.100000,0,0,0.000000,6,0.000000,0.000000,0.143711,0,0,0,0,0,0,0
8,89999,87,80000,55,20000,40,9999,0.100000,0,0,0.000000,6,0.000000,0.000000,0.984295,0,0,0,0,0,0,0
8,89999,88,80000,32,0,40,9999,0.100000,0,0,0.000000,6,0.000000,0.000000,0.514351,0,0,0,0,0,0,0
8,89999,89,80000,4,40000,49,9999,0.100000,0,0,0.000000,6,4.000000,0.000000,9.321999,0,0,0,0,0,0,0
8,89999,90,80000,32,0,49,9999,0.100000,0,0,0.000000,6,2.000000,0.000000,3.446337,0,0,0,0,0,0,0
8,89999,91,80000,55,20000,40,9999,0.100000,0,0,0.000000,6,0.000000,0.000000,0.331862,0,0,0,0,0,0,0
8,89999,92,80000,83,40000,40,9999,0.100000,0,0,0.000000,6,0.000000,0.000000,0.142243,0,0,0,0,0,0,0
8,89999,93,80000,51,0,40,9999,0.100000,0,0,0.000000,6,0.000000,0.000000,0.432341,0,0,0,0,0,0,0
8,89999,94,80000,32,0,49,9999,0.100000,0,0,0.000000,6,1.000000,0.000000,10.210323,0,0,0,0,0,0,0
8,89999,95,80000,55,20000,40,9999,0.100000,0,0,0.000000,6,0.000000,0.000000,0.316504,0,0,0,0,0,0,0
8,89999,96,80000,78,40000,40,9999,0.100000,0,0,0.000000,6,0.000000,0.000000,0.449789,0,0,0,0,0,0,0
8,89999,97,80000,55,20000,49,9999,0.100000,0,0,0.000000,6,1.000000,0.000000,5.730016,0,0,0,0,0,0,0
8,89999,98,80000,51,0,40,9999,0.100000,0,0,0.000000,6,0.000000,0.000000,0.590574,0,0,0,0,0,0,0
8,89999,99,80000,55,20000,40,9999,0.100000,0,0,0.000000,6,0.000000,0.000000,0.405691,0,0,0,0,0,0,0
9,99999,0,90000,55,20000,40,9999,0.100000,0,0,0.000000,6,0.000000,0.000000,0.667157,0,0,0,0,0,0,0
9,99999,1,90000,4,40000,40,9999,0.100000,0,0,0.000000,6,0.000000,0.000000,0.355127,0,0,0,0,0,0,0
9,99999,2,90000,78,40000,49,9999,0.100000,0,0,0.000000,6,1.000000,0.000000,1.425894,0,0,0,0,0,0,0
9,99999,3,90000,4,40000,49,9999,0.100000,0,0,0.000000,6,2.000000,0.000000,22.589845,0,0,0,0,0,0,0
9,99999,4,90000,51,0,40,9999,0.100000,0,0,0.000000,6,0.000000,0.000000,0.594194,0,0,0,0,0,0,0
9,99999,5,90000,78,40000,40,9999,0.100000,0,0,0.000000,6,0.000000,0.000000,0.009505,0,0,0,0,0,0,0
9,99999,6,90000,51,0,40,9999,0.100000,0,0,0.000000,6,0.000000,0.000000,0.235501,0,0,0,0,0,0,0
9,99999,7,90000,55,20000,49,9999,0.100000,0,0,0.000000,6,2.000000,0.000000,10.374699,0,0,0,0,0,0,0
9,99999,8,90000,55,20000,49,9999,0.100000,0,0,0.000000,6,2.000000,0.000000,3.630282,0,0,0,0,0,0,0
9,99999,9,90000,83,40000,40,9999,0.100000,0,0,0.000000,6,0.000000,0.000000,0.790899,0,0,0,0,0,0,0
9,99999,10,90000,55,20000,40,9999,0.100000,0,0,0.000000,6,0.000000,0.000000,0.132356,0,0,0,0,0,0,0
9,99999,11,90000,78,40000,40,9999,0.100000,0,0,0.000000,6,0.000000,0.000000,0.210679,0,0,0,0,0,0,0
9,99999,12,90000,4,40000,40,9999,0.100000,0,0,0.000000,6,0.000000,0.000000,0.216859,0,0,0,0,0,0,0
9,99999,13,90000,32,0,49,9999,0.100000,0,0,0.000000,6,4.000000,0.000000,8.797738,0,0,0,0,0,0,0
9,99999,14,90000,32,0,49,9999,0.100000,0,0,0.000000,6,1.000000,0.000000,7.409162,0,0,0,0,0,0,0
9,99999,15,90000,51,0,40,9999,0.100000,0,0,0.000000,6,0.000000,0.000000,0.569179,0,0,0,0,0,0,0
9,99999,16,90000,51,0,40,9999,0.100000,0,0,0.000000,6,0.000000,0.000000,0.442279,0,0,0,0,0,0,0
9,99999,17,90000,32,0,40,9999,0.100000,0,0,0.000000,6,0.000000,0.000000,0.589177,0,0,0,0,0,0,0
9,99999,18,90000,83,40000,40,9999,0.100000,0,0,0.000000,6,0.000000,0.000000,0.340246,0,0,0,0,0,0,0
9,99999,19,90000,4,40000,40,9999,0.100000,0,0,0.000000,6,0.000000,0.000000,0.009116,0,0,0,0,0,0,0
9,99999,20,90000,55,20000,49,9999,0.135000,0,0,0.000000,6,2.000000,0.000000,11.578551,0,0,0,0,0,0,0
9,99999,21,90000,4,40000,49,9999,0.100000,0,0,0.000000,6,1.000000,0.000000,1.950932,0,0,0,0,0,0,0
9,99999,22,90000,83,40000,49,9999,0.100000,0,0,0.000000,6,1.000000,0.000000,1.729062,0,0,0,0,0,0,0
9,99999,23,90000,51,0,40,9999,0.100000,0,0,0.000000,6,0.000000,0.000000,5.040638,0,0,0,0,0,0,0
9,99999,24,90000,83,40000,40,9999,0.100000,0,0,0.000000,6,0.000000,0.000000,7.932846,0,0,0,0,0,0,0
9,99999,25,90000,78,40000,49,9999,0.100000,0,0,0.000000,6,1.000000,0.000000,2.447569,0,0,0,0,0,0,0
9,99999,26,90000,32,0,49,9999,0.100000,0,0,0.000000,6,1.000000,0.000000,6.960384,0,0,0,0,0,0,0
9,99999,27,90000,83,40000,40,9999,0.100000,0,0,0.000000,6,0.000000,0.000000,1.535964,0,0,0,0,0,0,0
9,99999,28,90000,51,0,49,9999,0.100000,0,0,0.000000,6,1.000000,0.000000,9.571255,0,0,0,0,0,0,0
9,99999,29,90000,83,40000,40,9999,0.100000,0,0,0.000000,6,0.000000,0.000000,5.924755,0,0,0,0,0,0,0
9,99999,30,90000,78,40000,40,9999,0.100000,0,0,0.000000,6,0.000000,0.000000,1.092282,0,0,0,0,0,0,0
9,99999,31,90000,32,0,40,9999,0.100000,0,0,0.000000,6,0.000000,0.000000,0.229428,0,0,0,0,0,0,0
9,99999,32,90000,78,40000,40,9999,0.100000,0,0,0.000000,6,0.000000,0.000000,0.137834,0,0,0,0,0,0,0
9,99999,33,90000,78,40000,40,9999,0.100000,0,0,0.000000,6,0.000000,0.000000,0.501142,0,0,0,0,0,0,0
9,99999,34,90000,51,0,40,9999,0.100000,0,0,0.000000,6,0.000000,0.000000,0.516264,0,0,0,0,0,0,0
9,99999,35,90000,55,20000,49,9999,0.100000,0,0,0.000000,6,1.000000,0.000000,1.768574,0,0,0,0,0,0,0
9,99999,36,90000,83,40000,40,9999,0.100000,0,0,0.000000,6,0.000000,0.000000,0.248370,0,0,0,0,0,0,0
9,99999,37,90000,78,40000,49,9999,0.100000,0,0,0.000000,6,5.000000,0.000000,9.186779,0,0,0,0,0,0,0
9,99999,38,90000,83,40000,49,9999,0.100000,0,0,0.000000,6,1.000000,0.000000,2.018106,0,0,0,0,0,0,0
9,99999,39,90000,32,0,40,9999,0.100000,0,0,0.000000,6,0.000000,0.000000,0.259918,0,0,0,0,0,0,0
9,99999,40,90000,83,40000,40,9999,0.100000,0,0,0.000000,6,0.000000,0.000000,0.367102,0,0,0,0,0,0,0
9,99999,41,90000,4,40000,40,9999,0.100000,0,0,0.000000,6,0.000000,0.000000,1.239335,0,0,0,0,0,0,0
9,99999,42,90000,55,20000,49,9999,0.100000,0,0,0.000000,6,1.000000,0.000000,15.965620,0,0,0,0,0,0,0
9,99999,43,90000,83,40000,40,9999,0.100000,0,0,0.000000,6,0.000000,0.000000,0.241110,0,0,0,0,0,0,0
9,99999,44,90000,83,40000,49,9999,0.100000,0,0,0.000000,6,1.000000,0.000000,1.141224,0,0,0,0,0,0,0
9,99999,45,90000,55,20000,40,9999,0.100000,0,0,0.000000,6,0.000000,0.000000,0.337175,0,0,0,0,0,0,0
9,99999,46,90000,78,40000,49,9999,0.100000,0,0,0.000000,6,7.000000,0.000000,19.499411,0,0,0,0,0,0,0
9,99999,47,90000,83,40000,49,9999,0.100000,0,0,0.000000,6,1.000000,0.000000,7.495229,0,0,0,0,0,0,0
9,99999,48,90000,32,0,40,9999,0.100000,0,0,0.000000,6,0.000000,0.000000,0.205445,0,0,0,0,0,0,0
9,99999,49,90000,32,0,40,9999,0.100000,0,0,0.000000,6,0.000000,0.000000,0.500884,0,0,0,0,0,0,0
9,99999,50,90000,32,0,49,9999,0.100000,0,0,0.000000,6,1.000000,0.000000,1.938767,0,0,0,0,0,0,0
9,99999,51,90000,55,20000,49,9999,0.100000,0,0,0.000000,6,1.000000,0.000000,1.204594,0,0,0,0,0,0,0
9,99999,52,90000,51,0,40,9999,0.100000,0,0,0.000000,6,0.000000,0.000000,22.023198,0,0,0,0,0,0,0
9,99999,53,90000,83,40000,49,9999,0.100000,0,0,0.000000,6,1.000000,0.000000,6.058772,0,0,0,0,0,0,0
9,99999,54,90000,55,20000,40,9999,0.100000,0,0,0.000000,6,0.000000,0.000000,1.244672,0,0,0,0,0,0,0
9,99999,55,90000,4,40000,40,9999,0.100000,0,0,0.000000,6,0.000000,0.000000,12.513739,0,0,0,0,0,0,0
9,99999,56,90000,78,40000,40,9999,0.100000,0,0,0.000000,6,0.000000,0.000000,4.279425,0,0,0,0,0,0,0
9,99999,57,90000,78,40000,49,9999,0.100000,0,0,0.000000,6,4.000000,0.000000,11.130368,0,0,0,0,0,0,0
9,99999,58,90000,83,40000,40,9999,0.100000,0,0,0.000000,6,0.000000,0.000000,4.345497,0,0,0,0,0,0,0
9,99999,59,90000,78,40000,49,9999,0.100000,0,0,0.000000,6,2.000000,0.000000,11.071742,0,0,0,0,0,0,0
9,99999,60,90000,78,40000,99,9999,0.100000,0,0,34.210526,6,2.000000,0.000000,14.655364,0,0,1,0,0,0,0
9,99999,61,90000,32,0,40,9999,0.100000,0,0,0.000000,6,0.000000,0.000000,5.697007,0,0,0,0,0,0,0
9,99999,62,90000,32,0,40,9999,0.100000,0,0,0.000000,6,0.000000,0.000000,0.140273,0,0,0,0,0,0,0
9,99999,63,90000,83,40000,49,9999,0.100000,0,0,0.000000,6,1.000000,0.000000,1.978174,0,0,0,0,0,0,0
9,99999,64,90000,83,40000,40,9999,0.100000,0,0,0.000000,6,0.000000,0.000000,0.509445,0,0,0,0,0,0,0
9,99999,65,90000,4,40000,40,9999,0.100000,0,0,0.000000,6,0.000000,0.000000,3.133212,0,0,0,0,0,0,0
9,99999,66,90000,83,40000,40,9999,0.100000,0,0,0.000000,6,0.000000,0.000000,0.157999,0,0,0,0,0,0,0
9,99999,67,90000,83,40000,40,9999,0.100000,0,0,0.000000,6,0.000000,0.000000,1.211219,0,0,0,0,0,0,0
9,99999,68,90000,51,0,40,9999,0.100000,0,0,0.000000,6,0.000000,0.000000,0.435776,0,0,0,0,0,0,0
9,99999,69,90000,51,0,40,9999,0.100000,0,0,0.000000,6,0.000000,0.000000,0.362184,0,0,0,0,0,0,0
9,99999,70,90000,4,40000,40,9999,0.100000,0,0,0.000000,6,0.000000,0.000000,0.216209,0,0,0,0,0,0,0
9,99999,71,90000,83,40000,40,9999,0.100000,0,0,0.000000,6,0.000000,0.000000,0.206535,0,0,0,0,0,0,0
9,99999,72,90000,4,40000,40,9999,0.100000,0,0,0.000000,6,0.000000,0.000000,0.535917,0,0,0,0,0,0,0
9,99999,73,90000,55,20000,40,9999,0.100000,0,0,0.000000,6,0.000000,0.000000,0.139418,0,0,0,0,0,0,0
9,99999,74,90000,32,0,40,9999,0.100000,0,0,0.000000,6,0.000000,0.000000,1.995437,0,0,0,0,0,0,0
9,99999,75,90000,51,0,40,9999,0.100000,0,0,0.000000,6,0.000000,0.000000,0.237705,0,0,0,0,0,0,0
9,99999,76,90000,78,40000,40,9999,0.100000,0,0,0.000000,6,0.000000,0.000000,0.537338,0,0,0,0,0,0,0
9,99999,77,90000,51,0,49,9999,0.100000,0,0,0.000000,6,2.000000,0.000000,9.950132,0,0,0,0,0,0,0
9,99999,78,90000,55,20000,40,9999,0.100000,0,0,0.000000,6,0.000000,0.000000,0.229614,0,0,0,0,0,0,0
9,99999,79,90000,4,40000,49,9999,0.100000,0,0,0.000000,6,1.000000,0.000000,24.378040,0,0,0,0,0,0,0
9,99999,80,90000,51,0,40,9999,0.100000,0,0,0.000000,6,0.000000,0.000000,20.993620,0,0,0,0,0,0,0
9,99999,81,90000,83,40000,40,9999,0.100000,0,0,0.000000,6,0.000000,0.000000,0.300043,0,0,0,0,0,0,0
9,99999,82,90000,4,40000,40,9999,0.100000,0,0,0.000000,6,0.000000,0.000000,2.293979,0,0,0,0,0,0,0
9,99999,83,90000,51,0,40,9999,0.100000,0,0,0.000000,6,0.000000,0.000000,0.146446,0,0,0,0,0,0,0
9,99999,84,90000,32,0,49,9999,0.100000,0,0,0.000000,6,1.000000,0.000000,1.571403,0,0,0,0,0,0,0
9,99999,85,90000,32,0,40,9999,0.100000,0,0,0.000000,6,0.000000,0.000000,0.270891,0,0,0,0,0,0,0
9,99999,86,90000,55,20000,40,9999,0.100000,0,0,0.000000,6,0.000000,0.000000,0.134583,0,0,0,0,0,0,0
9,99999,87,90000,78,40000,40,9999,0.100000,0,0,0.000000,6,0.000000,0.000000,0.992125,0,0,0,0,0,0,0
9,99999,88,90000,78,40000,40,9999,0.100000,0,0,0.000000,6,0.000000,0.000000,0.245390,0,0,0,0,0,0,0
9,99999,89,90000,83,40000,40,9999,0.100000,0,0,0.000000,6,0.000000,0.000000,0.243897,0,0,0,0,0,0,0
9,99999,90,90000,83,40000,40,9999,0.100000,0,0,0.000000,6,0.000000,0.000000,0.081444,0,0,0,0,0,0,0
9,99999,91,90000,32,0,40,9999,0.100000,0,0,0.000000,6,0.000000,0.000000,0.416910,0,0,0,0,0,0,0
9,99999,92,90000,78,40000,40,9999,0.100000,0,0,0.000000,6,0.000000,0.000000,0.141289,0,0,0,0,0,0,0
9,99999,93,90000,32,0,40,9999,0.100000,0,0,0.000000,6,0.000000,0.000000,0.559874,0,0,0,0,0,0,0
9,99999,94,90000,51,0,49,9999,0.100000,0,0,0.000000,6,1.000000,0.000000,8.669273,0,0,0,0,0,0,0
9,99999,95,90000,55,20000,40,9999,0.100000,0,0,0.000000,6,0.000000,0.000000,0.370426,0,0,0,0,0,0,0
9,99999,96,90000,55,20000,40,9999,0.100000,0,0,0.000000,6,0.000000,0.000000,0.435123,0,0,0,0,0,0,0
9,99999,97,90000,32,0,49,9999,0.100000,0,0,0.000000,6,1.000000,0.000000,7.157731,0,0,0,0,0,0,0
9,99999,98,90000,51,0,49,9999,0.100000,0,0,0.000000,6,1.000000,0.000000,1.611434,0,0,0,0,0,0,0
9,99999,99,90000,51,0,40,9999,0.100000,0,0,0.000000,6,0.000000,0.000000,0.271133,0,0,0,0,0,0,0
10,109999,0,100000,78,40000,40,9999,0.100000,0,0,0.000000,6,0.000000,0.000000,0.524267,0,0,0,0,0,0,0
10,109999,1,100000,55,20000,40,9999,0.100000,0,0,0.000000,6,0.000000,0.000000,0.526912,0,0,0,0,0,0,0
10,109999,2,100000,55,20000,40,9999,0.100000,0,0,0.000000,6,0.000000,0.000000,1.108923,0,0,0,0,0,0,0
10,109999,3,100000,51,0,49,9999,0.100000,0,0,0.000000,6,4.000000,0.000000,17.191572,0,0,0,0,0,0,0
10,109999,4,100000,83,40000,40,9999,0.100000,0,0,0.000000,6,0.000000,0.000000,1.591171,0,0,0,0,0,0,0
10,109999,5,100000,51,0,40,9999,0.100000,0,0,0.000000,6,0.000000,0.000000,0.012366,0,0,0,0,0,0,0
10,109999,6,100000,78,40000,40,9999,0.100000,0,0,0.000000,6,0.000000,0.000000,0.239195,0,0,0,0,0,0,0
10,109999,7,100000,51,0,40,9999,0.100000,0,0,0.000000,6,0.000000,0.000000,7.036063,0,0,0,0,0,0,0
10,109999,8,100000,78,40000,49,9999,0.100000,0,0,0.000000,6,2.000000,0.000000,11.728438,0,0,0,0,0,0,0
10,109999,9,100000,55,20000,49,9999,0.100000,0,0,0.000000,6,1.000000,0.000000,10.398513,0,0,0,0,0,0,0
10,109999,10,100000,83,40000,40,9999,0.100000,0,0,0.000000,6,0.000000,0.000000,0.142061,0,0,0,0,0,0,0
10,109999,11,100000,32,0,40,9999,0.100000,0,0,0.000000,6,0.000000,0.000000,0.155063,0,0,0,0,0,0,0
10,109999,12,100000,83,40000,40,9999,0.100000,0,0,0.000000,6,0.000000,0.000000,0.439275,0,0,0,0,0,0,0
10,109999,13,100000,32,0,49,9999,0.100000,0,0,0.000000,6,3.000000,0.000000,8.628666,0,0,0,0,0,0,0
10,109999,14,100000,78,40000,49,9999,0.100000,0,0,0.000000,6,2.000000,0.000000,15.430518,0,0,0,0,0,0,0
10,109999,15,100000,51,0,40,9999,0.100000,0,0,0.000000,6,0.000000,0.000000,0.508239,0,0,0,0,0,0,0
10,109999,16,100000,32,0,40,9999,0.100000,0,0,0.000000,6,0.000000,0.000000,0.580309,0,0,0,0,0,0,0
10,109999,17,100000,55,20000,40,9999,0.100000,0,0,0.000000,6,0.000000,0.000000,0.585868,0,0,0,0,0,0,0
10,109999,18,100000,83,40000,40,9999,0.100000,0,0,0.000000,6,0.000000,0.000000,0.412917,0,0,0,0,0,0,0
10,109999,19,100000,32,0,40,9999,0.100000,0,0,0.000000,6,0.000000,0.000000,0.009124,0,0,0,0,0,0,0
10,109999,20,100000,78,40000,49,9999,0.100000,0,0,0.000000,6,2.000000,0.000000,5.163362,0,0,0,0,0,0,0
10,109999,21,100000,78,40000,40,9999,0.100000,0,0,0.000000,6,0.000000,0.000000,0.169590,0,0,0,0,0,0,0
10,109999,22,100000,55,20000,40,9999,0.100000,0,0,0.000000,6,0.000000,0.000000,0.286255,0,0,0,0,0,0,0
10,109999,23,100000,4,40000,49,9999,0.100000,0,0,0.000000,6,1.000000,0.000000,4.956638,0,0,0,0,0,0,0
10,109999,24,100000,83,40000,40,9999,0.100000,0,0,0.000000,6,0.000000,0.000000,1.277475,0,0,0,0,0,0,0
10,109999,25,100000,32,0,40,9999,0.100000,0,0,0.000000,6,0.000000,0.000000,1.214113,0,0,0,0,0,0,0
10,109999,26,100000,83,40000,49,9999,0.100000,0,0,0.000000,6,2.000000,0.000000,14.300773,0,0,0,0,0,0,0
10,109999,27,100000,4,40000,40,9999,0.100000,0,0,0.000000,6,0.000000,0.000000,1.698151,0,0,0,0,0,0,0
10,109999,28,100000,51,0,49,9999,0.100000,0,0,0.000000,6,1.000000,0.000000,7.819903,0,0,0,0,0,0,0
10,109999,29,100000,32,0,40,9999,0.100000,0,0,0.000000,6,0.000000,0.000000,2.704257,0,0,0,0,0,0,0
10,109999,30,100000,78,40000,40,9999,0.100000,0,0,0.000000,6,0.000000,0.000000,0.759184,0,0,0,0,0,0,0
10,109999,31,100000,78,40000,40,9999,0.100000,0,0,0.000000,6,0.000000,0.000000,0.161301,0,0,0,0,0,0,0
10,109999,32,100000,78,40000,40,9999,0.100000,0,0,0.000000,6,0.000000,0.000000,0.144014,0,0,0,0,0,0,0
10,109999,33,100000,83,40000,40,9999,0.100000,0,0,0.000000,6,0.000000,0.000000,0.466075,0,0,0,0,0,0,0
10,109999,34,100000,4,40000,40,9999,0.100000,0,0,0.000000,6,0.000000,0.000000,0.823747,0,0,0,0,0,0,0
10,109999,35,100000,4,40000,40,9999,0.100000,0,0,0.000000,6,0.000000,0.000000,0.233764,0,0,0,0,0,0,0
10,109999,36,100000,83,40000,40,9999,0.100000,0,0,0.000000,6,0.000000,0.000000,0.232579,0,0,0,0,0,0,0
10,109999,37,100000,51,0,40,9999,0.100000,0,0,0.000000,6,0.000000,0.000000,2.710133,0,0,0,0,0,0,0
10,109999,38,100000,55,20000,49,9999,0.100000,0,0,0.000000,6,5.000000,0.000000,7.392835,0,0,0,0,0,0,0
10,109999,39,100000,32,0,40,9999,0.100000,0,0,0.000000,6,0.000000,0.000000,0.196012,0,0,0,0,0,0,0
10,109999,40,100000,4,40000,40,9999,0.100000,0,0,0.000000,6,0.000000,0.000000,0.385828,0,0,0,0,0,0,0
10,109999,41,100000,55,20000,40,9999,0.100000,0,0,0.000000,6,0.000000,0.000000,0.980582,0,0,0,0,0,0,0
10,109999,42,100000,78,40000,49,9999,0.100000,0,0,0.000000,6,1.000000,0.000000,6.637228,0,0,0,0,0,0,0
10,109999,43,100000,51,0,40,9999,0.100000,0,0,0.000000,6,0.000000,0.000000,0.231881,0,0,0,0,0,0,0
10,109999,44,100000,4,40000,40,9999,0.100000,0,0,0.000000,6,0.000000,0.000000,0.747983,0,0,0,0,0,0,0
10,109999,45,100000,4,40000,40,9999,0.100000,0,0,0.000000,6,0.000000,0.000000,0.420301,0,0,0,0,0,0,0
10,109999,46,100000,55,20000,99,9999,0.100000,0,0,48.943385,6,3.000000,0.000000,11.827262,0,0,1,0,0,0,0
10,109999,47,100000,32,0,40,9999,0.100000,0,0,0.000000,6,0.000000,0.000000,4.536773,0,0,0,0,0,0,0
10,109999,48,100000,83,40000,40,9999,0.100000,0,0,0.000000,6,0.000000,0.000000,0.201266,0,0,0,0,0,0,0
10,109999,49,100000,32,0,49,9999,0.100000,0,0,0.000000,6,6.000000,0.000000,9.293859,0,0,0,0,0,0,0
10,109999,50,100000,51,0,40,9999,0.100000,0,0,0.000000,6,0.000000,0.000000,0.273936,0,0,0,0,0,0,0
10,109999,51,100000,83,40000,40,9999,0.100000,0,0,0.000000,6,0.000000,0.000000,0.793186,0,0,0,0,0,0,0
10,109999,52,100000,83,40000,40,9999,0.100000,0,0,0.000000,6,0.000000,0.000000,10.627431,0,0,0,0,0,0,0
10,109999,53,100000,83,40000,49,9999,0.100000,0,0,0.000000,6,2.000000,0.000000,8.014068,0,0,0,0,0,0,0
10,109999,54,100000,83,40000,40,9999,0.100000,0,0,0.000000,6,0.000000,0.000000,1.154889,0,0,0,0,0,0,0
10,109999,55,100000,83,40000,40,9999,0.100000,0,0,0.000000,6,0.000000,0.000000,4.074301,0,0,0,0,0,0,0
10,109999,56,100000,78,40000,49,9999,0.100000,0,0,0.000000,6,1.000000,0.000000,6.538688,0,0,0,0,0,0,0
10,109999,57,100000,55,20000,49,9999,0.100000,0,0,0.000000,6,12.000000,0.000000,13.856175,0,0,0,0,0,0,0
10,109999,58,100000,78,40000,40,9999,0.100000,0,0,0.000000,6,0.000000,0.000000,5.043359,0,0,0,0,0,0,0
10,109999,59,100000,32,0,49,9999,0.100000,0,0,0.000000,6,1.000000,0.000000,10.511883,0,0,0,0,0,0,0
10,109999,60,100000,4,40000,40,9999,0.100000,0,0,0.000000,6,0.000000,0.000000,6.647770,0,0,0,0,0,0,0
10,109999,61,100000,83,40000,40,9999,0.100000,0,0,0.000000,6,0.000000,0.000000,5.856383,0,0,0,0,0,0,0
10,109999,62,100000,32,0,40,9999,0.100000,0,0,0.000000,6,0.000000,0.000000,1.202921,0,0,0,0,0,0,0
10,109999,63,100000,83,40000,49,9999,0.100000,0,0,0.000000,6,2.000000,0.000000,3.518487,0,0,0,0,0,0,0
10,109999,64,100000,78,40000,40,9999,0.100000,0,0,0.000000,6,0.000000,0.000000,0.436564,0,0,0,0,0,0,0
10,109999,65,100000,32,0,40,9999,0.100000,0,0,0.000000,6,0.000000,0.000000,1.963095,0,0,0,0,0,0,0
10,109999,66,100000,32,0,40,9999,0.100000,0,0,0.000000,6,0.000000,0.000000,0.237633,0,0,0,0,0,0,0
10,109999,67,100000,78,40000,40,9999,0.100000,0,0,0.000000,6,0.000000,0.000000,4.183584,0,0,0,0,0,0,0
10,109999,68,100000,4,40000,40,9999,0.100000,0,0,0.000000,6,0.000000,0.000000,0.308922,0,0,0,0,0,0,0
10,109999,69,100000,4,40000,40,9999,0.100000,0,0,0.000000,6,0.000000,0.000000,0.348468,0,0,0,0,0,0,0
10,109999,70,100000,78,40000,40,9999,0.100000,0,0,0.000000,6,0.000000,0.000000,0.212934,0,0,0,0,0,0,0
10,109999,71,100000,4,40000,40,9999,0.100000,0,0,0.000000,6,0.000000,0.000000,0.162695,0,0,0,0,0,0,0
10,109999,72,100000,78,40000,40,9999,0.100000,0,0,0.000000,6,0.000000,0.000000,0.994566,0,0,0,0,0,0,0
10,109999,73,100000,4,40000,40,9999,0.100000,0,0,0.000000,6,0.000000,0.000000,0.142249,0,0,0,0,0,0,0
10,109999,74,100000,55,20000,40,9999,0.100000,0,0,0.000000,6,0.000000,0.000000,3.209837,0,0,0,0,0,0,0
10,109999,75,100000,78,40000,40,9999,0.100000,0,0,0.000000,6,0.000000,0.000000,0.179383,0,0,0,0,0,0,0
10,109999,76,100000,51,0,40,9999,0.100000,0,0,0.000000,6,0.000000,0.000000,0.561579,0,0,0,0,0,0,0
10,109999,77,100000,83,40000,40,9999,0.100000,0,0,0.000000,6,0.000000,0.000000,2.577426,0,0,0,0,0,0,0
10,109999,78,100000,55,20000,40,9999,0.100000,0,0,0.000000,6,0.000000,0.000000,0.247243,0,0,0,0,0,0,0
10,109999,79,100000,4,40000,49,9999,0.100000,0,0,0.000000,6,1.000000,0.000000,16.375746,0,0,0,0,0,0,0
10,109999,80,100000,4,40000,49,9999,0.100000,0,0,0.000000,6,6.000000,0.000000,15.690771,0,0,0,0,0,0,0
10,109999,81,100000,78,40000,40,9999,0.100000,0,0,0.000000,6,0.000000,0.000000,0.291805,0,0,0,0,0,0,0
10,109999,82,100000,51,0,40,9999,0.100000,0,0,0.000000,6,0.000000,0.000000,1.971968,0,0,0,0,0,0,0
10,109999,83,100000,32,0,40,9999,0.100000,0,0,0.000000,6,0.000000,0.000000,0.131649,0,0,0,0,0,0,0
10,109999,84,100000,32,0,40,9999,0.100000,0,0,0.000000,6,0.000000,0.000000,1.220686,0,0,0,0,0,0,0
10,109999,85,100000,4,40000,40,9999,0.100000,0,0,0.000000,6,0.000000,0.000000,0.501391,0,0,0,0,0,0,0
10,109999,86,100000,51,0,40,9999,0.100000,0,0,0.000000,6,0.000000,0.000000,0.136607,0,0,0,0,0,0,0
10,109999,87,100000,55,20000,40,9999,0.100000,0,0,0.000000,6,0.000000,0.000000,0.980767,0,0,0,0,0,0,0
10,109999,88,100000,78,40000,40,9999,0.100000,0,0,0.000000,6,0.000000,0.000000,0.184512,0,0,0,0,0,0,0
10,109999,89,100000,83,40000,40,9999,0.100000,0,0,0.000000,6,0.000000,0.000000,0.240289,0,0,0,0,0,0,0
10,109999,90,100000,78,40000,49,9999,0.100000,0,0,0.000000,6,5.000000,0.000000,12.128499,0,0,0,0,0,0,0
10,109999,91,100000,55,20000,40,9999,0.100000,0,0,0.000000,6,0.000000,0.000000,0.614532,0,0,0,0,0,0,0
10,109999,92,100000,51,0,40,9999,0.100000,0,0,0.000000,6,0.000000,0.000000,0.262341,0,0,0,0,0,0,0
10,109999,93,100000,51,0,40,9999,0.100000,0,0,0.000000,6,0.000000,0.000000,2.067094,0,0,0,0,0,0,0
10,109999,94,100000,55,20000,49,9999,0.100000,0,0,0.000000,6,13.000000,0.000000,14.554316,0,0,0,0,0,0,0
10,109999,95,100000,55,20000,40,9999,0.100000,0,0,0.000000,6,0.000000,0.000000,0.359917,0,0,0,0,0,0,0
10,109999,96,100000,32,0,40,9999,0.100000,0,0,0.000000,6,0.000000,0.000000,0.439487,0,0,0,0,0,0,0
10,109999,97,100000,32,0,49,9999,0.100000,0,0,0.000000,6,1.000000,0.000000,8.344667,0,0,0,0,0,0,0
10,109999,98,100000,32,0,49,9999,0.100000,0,0,0.000000,6,4.000000,0.000000,7.161216,0,0,0,0,0,0,0
10,109999,99,100000,55,20000,40,9999,0.100000,0,0,0.000000,6,0.000000,0.000000,0.184671,0,0,0,0,0,0,0
11,119999,0,110000,4,40000,40,9999,0.100000,0,0,0.000000,6,0.000000,0.000000,0.639248,0,0,0,0,0,0,0
11,119999,1,110000,78,40000,40,9999,0.065000,0,0,0.000000,6,0.000000,0.000000,0.782533,0,0,0,0,0,0,0
11,119999,2,110000,78,40000,40,9999,0.100000,0,0,0.000000,6,0.000000,0.000000,0.781921,0,0,0,0,0,0,0
11,119999,3,110000,83,40000,49,9999,0.100000,0,0,0.000000,6,1.000000,0.000000,11.339295,0,0,0,0,0,0,0
11,119999,4,110000,4,40000,40,9999,0.100000,0,0,0.000000,6,0.000000,0.000000,1.550549,0,0,0,0,0,0,0
11,119999,5,110000,51,0,40,9999,0.100000,0,0,0.000000,6,0.000000,0.000000,0.220076,0,0,0,0,0,0,0
11,119999,6,110000,78,40000,40,9999,0.100000,0,0,0.000000,6,0.000000,0.000000,0.239606,0,0,0,0,0,0,0
11,119999,7,110000,83,40000,40,9999,0.100000,0,0,0.000000,6,0.000000,0.000000,6.927750,0,0,0,0,0,0,0
11,119999,8,110000,78,40000,49,9999,0.100000,0,0,0.000000,6,1.000000,0.000000,5.526322,0,0,0,0,0,0,0
11,119999,9,110000,55,20000,49,9999,0.100000,0,0,0.000000,6,2.000000,0.000000,4.315473,0,0,0,0,0,0,0
11,119999,10,110000,32,0,40,9999,0.100000,0,0,0.000000,6,0.000000,0.000000,0.135281,0,0,0,0,0,0,0
11,119999,11,110000,78,40000,40,9999,0.100000,0,0,0.000000,6,0.000000,0.000000,0.144041,0,0,0,0,0,0,0
11,119999,12,110000,83,40000,40,9999,0.100000,0,0,0.000000,6,0.000000,0.000000,0.089367,0,0,0,0,0,0,0
11,119999,13,110000,4,40000,40,9999,0.100000,0,0,0.000000,6,0.000000,0.000000,3.487348,0,0,0,0,0,0,0
11,119999,14,110000,51,0,49,9999,0.100000,0,0,0.000000,6,1.000000,0.000000,14.860329,0,0,0,0,0,0,0
11,119999,15,110000,83,40000,40,9999,0.100000,0,0,0.000000,6,0.000000,0.000000,0.766993,0,0,0,0,0,0,0
11,119999,16,110000,51,0,40,9999,0.100000,0,0,0.000000,6,0.000000,0.000000,0.794112,0,0,0,0,0,0,0
11,119999,17,110000,55,20000,40,9999,0.100000,0,0,0.000000,6,0.000000,0.000000,0.579721,0,0,0,0,0,0,0
11,119999,18,110000,32,0,40,9999,0.100000,0,0,0.000000,6,0.000000,0.000000,0.394770,0,0,0,0,0,0,0
11,119999,19,110000,51,0,40,9999,0.100000,0,0,0.000000,6,0.000000,0.000000,0.009156,0,0,0,0,0,0,0
11,119999,20,110000,32,0,49,9999,0.100000,0,0,0.000000,6,1.000000,0.000000,4.877065,0,0,0,0,0,0,0
11,119999,21,110000,55,20000,40,9999,0.100000,0,0,0.000000,6,0.000000,0.000000,0.133746,0,0,0,0,0,0,0
11,119999,22,110000,78,40000,40,9999,0.100000,0,0,0.000000,6,0.000000,0.000000,0.151996,0,0,0,0,0,0,0
11,119999,23,110000,4,40000,40,9999,0.100000,0,0,0.000000,6,0.000000,0.000000,0.661591,0,0,0,0,0,0,0
11,119999,24,110000,51,0,49,9999,0.100000,0,0,0.000000,6,4.000000,0.000000,10.301523,0,0,0,0,0,0,0
11,119999,25,110000,32,0,49,9999,0.100000,0,0,0.000000,6,4.000000,0.000000,9.979928,0,0,0,0,0,0,0
11,119999,26,110000,78,40000,49,9999,0.100000,0,0,0.000000,6,1.000000,0.000000,18.676306,0,0,0,0,0,0,0
11,119999,27,110000,4,40000,40,9999,0.100000,0,0,0.000000,6,0.000000,0.000000,2.186682,0,0,0,0,0,0,0
11,119999,28,110000,51,0,49,9999,0.100000,0,0,0.000000,6,1.000000,0.000000,3.126187,0,0,0,0,0,0,0
11,119999,29,110000,51,0,40,9999,0.100000,0,0,0.000000,6,0.000000,0.000000,2.275640,0,0,0,0,0,0,0
11,119999,30,110000,4,40000,40,9999,0.100000,0,0,0.000000,6,0.000000,0.000000,0.549507,0,0,0,0,0,0,0
11,119999,31,110000,4,40000,40,9999,0.100000,0,0,0.000000,6,0.000000,0.000000,0.191122,0,0,0,0,0,0,0
11,119999,32,110000,83,40000,40,9999,0.100000,0,0,0.000000,6,0.000000,0.000000,0.140709,0,0,0,0,0,0,0
11,119999,33,110000,55,20000,40,9999,0.100000,0,0,0.000000,6,0.000000,0.000000,0.585879,0,0,0,0,0,0,0
11,119999,34,110000,51,0,40,9999,0.100000,0,0,0.000000,6,0.000000,0.000000,0.847671,0,0,0,0,0,0,0
11,119999,35,110000,32,0,40,9999,0.100000,0,0,0.000000,6,0.000000,0.000000,0.157996,0,0,0,0,0,0,0
11,119999,36,110000,51,0,40,9999,0.100000,0,0,0.000000,6,0.000000,0.000000,0.228162,0,0,0,0,0,0,0
11,119999,37,110000,83,40000,49,9999,0.135000,0,0,0.000000,6,5.000000,0.000000,8.078701,0,0,0,0,0,0,0
11,119999,38,110000,32,0,40,9999,0.100000,0,0,0.000000,6,0.000000,0.000000,0.467469,0,0,0,0,0,0,0
11,119999,39,110000,83,40000,40,9999,0.100000,0,0,0.000000,6,0.000000,0.000000,0.601633,0,0,0,0,0,0,0
11,119999,40,110000,4,40000,40,9999,0.100000,0,0,0.000000,6,0.000000,0.000000,0.772497,0,0,0,0,0,0,0
11,119999,41,110000,51,0,40,9999,0.100000,0,0,0.000000,6,0.000000,0.000000,1.093062,0,0,0,0,0,0,0
11,119999,42,110000,32,0,49,9999,0.100000,0,0,0.000000,6,1.000000,0.000000,6.494907,0,0,0,0,0,0,0
11,119999,43,110000,83,40000,40,9999,0.100000,0,0,0.000000,6,0.000000,0.000000,0.276455,0,0,0,0,0,0,0
11,119999,44,110000,4,40000,40,9999,0.100000,0,0,0.000000,6,0.000000,0.000000,0.565703,0,0,0,0,0,0,0
11,119999,45,110000,83,40000,40,9999,0.100000,0,0,0.000000,6,0.000000,0.000000,0.385698,0,0,0,0,0,0,0
11,119999,46,110000,55,20000,40,9999,0.100000,0,0,0.000000,6,0.000000,0.000000,11.817063,0,0,0,0,0,0,0
11,119999,47,110000,78,40000,49,9999,0.100000,0,0,0.000000,6,1.000000,0.000000,10.226377,0,0,0,0,0,0,0
11,119999,48,110000,83,40000,40,9999,0.100000,0,0,0.000000,6,0.000000,0.000000,0.199801,0,0,0,0,0,0,0
11,119999,49,110000,4,40000,49,9999,0.100000,0,0,0.000000,6,3.000000,0.000000,19.383300,0,0,0,0,0,0,0
11,119999,50,110000,78,40000,40,9999,0.100000,0,0,0.000000,6,0.000000,0.000000,0.735169,0,0,0,0,0,0,0
11,119999,51,110000,83,40000,40,9999,0.100000,0,0,0.000000,6,0.000000,0.000000,0.539042,0,0,0,0,0,0,0
11,119999,52,110000,51,0,40,9999,0.100000,0,0,0.000000,6,0.000000,0.000000,3.143549,0,0,0,0,0,0,0
11,119999,53,110000,32,0,40,9999,0.100000,0,0,0.000000,6,0.000000,0.000000,1.011030,0,0,0,0,0,0,0
11,119999,54,110000,83,40000,40,9999,0.100000,0,0,0.000000,6,0.000000,0.000000,2.288582,0,0,0,0,0,0,0
11,119999,55,110000,51,0,49,9999,0.065000,0,0,0.000000,6,2.000000,0.000000,8.121446,0,0,0,0,0,0,0
11,119999,56,110000,83,40000,49,9999,0.100000,0,0,0.000000,6,2.000000,0.000000,4.870452,0,0,0,0,0,0,0
11,119999,57,110000,83,40000,40,9999,0.100000,0,0,0.000000,6,0.000000,0.000000,0.124341,0,0,0,0,0,0,0
11,119999,58,110000,55,20000,49,9999,0.100000,0,0,0.000000,6,2.000000,0.000000,8.999541,0,0,0,0,0,0,0
11,119999,59,110000,83,40000,49,9999,0.100000,0,0,0.000000,6,2.000000,0.000000,13.862549,0,0,0,0,0,0,0
11,119999,60,110000,4,40000,40,9999,0.100000,0,0,0.000000,6,0.000000,0.000000,2.621018,0,0,0,0,0,0,0
11,119999,61,110000,32,0,40,9999,0.100000,0,0,0.000000,6,0.000000,0.000000,5.968100,0,0,0,0,0,0,0
11,119999,62,110000,4,40000,49,9999,0.100000,0,0,0.000000,6,2.000000,0.000000,4.012773,0,0,0,0,0,0,0
11,119999,63,110000,51,0,40,9999,0.100000,0,0,0.000000,6,0.000000,0.000000,21.173082,0,0,0,0,0,0,0
11,119999,64,110000,51,0,40,9999,0.100000,0,0,0.000000,6,0.000000,0.000000,0.470167,0,0,0,0,0,0,0
11,119999,65,110000,4,40000,40,9999,0.100000,0,0,0.000000,6,0.000000,0.000000,6.541284,0,0,0,0,0,0,0
11,119999,66,110000,4,40000,40,9999,0.100000,0,0,0.000000,6,0.000000,0.000000,0.266508,0,0,0,0,0,0,0
11,119999,67,110000,83,40000,40,9999,0.100000,0,0,0.000000,6,0.000000,0.000000,0.100038,0,0,0,0,0,0,0
11,119999,68,110000,55,20000,40,9999,0.100000,0,0,0.000000,6,0.000000,0.000000,0.240794,0,0,0,0,0,0,0
11,119999,69,110000,32,0,49,9999,0.100000,0,0,0.000000,6,2.000000,0.000000,3.192892,0,0,0,0,0,0,0
11,119999,70,110000,78,40000,40,9999,0.100000,0,0,0.000000,6,0.000000,0.000000,0.210127,0,0,0,0,0,0,0
11,119999,71,110000,78,40000,40,9999,0.100000,0,0,0.000000,6,0.000000,0.000000,0.591967,0,0,0,0,0,0,0
11,119999,72,110000,51,0,40,9999,0.100000,0,0,0.000000,6,0.000000,0.000000,1.339140,0,0,0,0,0,0,0
11,119999,73,110000,32,0,40,9999,0.100000,0,0,0.000000,6,0.000000,0.000000,0.142562,0,0,0,0,0,0,0
11,119999,74,110000,32,0,40,9999,0.100000,0,0,0.000000,6,0.000000,0.000000,3.242635,0,0,0,0,0,0,0
11,119999,75,110000,78,40000,40,9999,0.100000,0,0,0.000000,6,0.000000,0.000000,0.144383,0,0,0,0,0,0,0
11,119999,76,110000,4,40000,40,9999,0.100000,0,0,0.000000,6,0.000000,0.000000,0.962187,0,0,0,0,0,0,0
11,119999,77,110000,4,40000,49,9999,0.100000,0,0,0.000000,6,2.000000,0.000000,6.864682,0,0,0,0,0,0,0
11,119999,78,110000,51,0,40,9999,0.100000,0,0,0.000000,6,0.000000,0.000000,0.236553,0,0,0,0,0,0,0
11,119999,79,110000,78,40000,49,9999,0.100000,0,0,0.000000,6,1.000000,0.000000,9.904737,0,0,0,0,0,0,0
11,119999,80,110000,83,40000,49,9999,0.100000,0,0,0.000000,6,3.000000,0.000000,20.342212,0,0,0,0,0,0,0
11,119999,81,110000,4,40000,40,9999,0.100000,0,0,0.000000,6,0.000000,0.000000,0.352884,0,0,0,0,0,0,0
11,119999,82,110000,78,40000,40,9999,0.100000,0,0,0.000000,6,0.000000,0.000000,2.737940,0,0,0,0,0,0,0
11,119999,83,110000,83,40000,40,9999,0.100000,0,0,0.000000,6,0.000000,0.000000,0.107450,0,0,0,0,0,0,0
11,119999,84,110000,4,40000,40,9999,0.100000,0,0,0.000000,6,0.000000,0.000000,1.248065,0,0,0,0,0,0,0
11,119999,85,110000,32,0,49,9999,0.100000,0,0,0.000000,6,3.000000,0.000000,3.470021,0,0,0,0,0,0,0
11,119999,86,110000,78,40000,40,9999,0.100000,0,0,0.000000,6,0.000000,0.000000,0.134836,0,0,0,0,0,0,0
11,119999,87,110000,83,40000,40,9999,0.100000,0,0,0.000000,6,0.000000,0.000000,0.944057,0,0,0,0,0,0,0
11,119999,88,110000,4,40000,40,9999,0.100000,0,0,0.000000,6,0.000000,0.000000,0.264066,0,0,0,0,0,0,0
11,119999,89,110000,55,20000,40,9999,0.100000,0,0,0.000000,6,0.000000,0.000000,0.233927,0,0,0,0,0,0,0
11,119999,90,110000,4,40000,49,9999,0.100000,0,0,0.000000,6,4.000000,0.000000,18.972343,0,0,0,0,0,0,0
11,119999,91,110000,78,40000,40,9999,0.100000,0,0,0.000000,6,0.000000,0.000000,0.827922,0,0,0,0,0,0,0
11,119999,92,110000,4,40000,40,9999,0.100000,0,0,0.000000,6,0.000000,0.000000,0.398549,0,0,0,0,0,0,0
11,119999,93,110000,55,20000,49,9999,0.100000,0,0,0.000000,6,5.000000,0.000000,6.194258,0,0,0,0,0,0,0
11,119999,94,110000,51,0,49,9999,0.100000,0,0,0.000000,6,2.000000,0.000000,3.534975,0,0,0,0,0,0,0
11,119999,95,110000,55,20000,49,9999,0.100000,0,0,0.000000,6,2.000000,0.000000,3.135192,0,0,0,0,0,0,0
11,119999,96,110000,83,40000,40,9999,0.100000,0,0,0.000000,6,0.000000,0.000000,0.537505,0,0,0,0,0,0,0
11,119999,97,110000,83,40000,40,9999,0.100000,0,0,0.000000,6,0.000000,0.000000,4.952098,0,0,0,0,0,0,0
11,119999,98,110000,51,0,40,9999,0.100000,0,0,0.000000,6,0.000000,0.000000,1.037530,0,0,0,0,0,0,0
11,119999,99,110000,78,40000,40,9999,0.100000,0,0,0.000000,6,0.000000,0.000000,0.158984,0,0,0,0,0,0,0
12,129999,0,120000,55,20000,9,9999,0.100000,0,0,0.000000,6,1.000000,0.000000,10.018060,0,0,0,0,1,0,0
12,129999,1,120000,4,40000,40,9999,0.100000,0,0,0.000000,6,0.000000,0.000000,0.479306,0,0,0,0,0,0,0
12,129999,2,120000,51,0,40,9999,0.100000,0,0,0.000000,6,0.000000,0.000000,0.188496,0,0,0,0,0,0,0
12,129999,3,120000,55,20000,49,9999,0.100000,0,0,0.000000,6,1.000000,0.000000,7.687490,0,0,0,0,0,0,0
12,129999,4,120000,55,20000,40,9999,0.100000,0,0,0.000000,6,0.000000,0.000000,2.356752,0,0,0,0,0,0,0
12,129999,5,120000,55,20000,40,9999,0.100000,0,0,0.000000,6,0.000000,0.000000,0.686140,0,0,0,0,0,0,0
12,129999,6,120000,78,40000,40,9999,0.100000,0,0,0.000000,6,0.000000,0.000000,0.441720,0,0,0,0,0,0,0
12,129999,7,120000,78,40000,40,9999,0.100000,0,0,0.000000,6,0.000000,0.000000,2.102193,0,0,0,0,0,0,0
12,129999,8,120000,78,40000,40,9999,0.100000,0,0,0.000000,6,0.000000,0.000000,0.988456,0,0,0,0,0,0,0
12,129999,9,120000,4,40000,40,9999,0.100000,0,0,0.000000,6,0.000000,0.000000,0.608639,0,0,0,0,0,0,0
12,129999,10,120000,32,0,40,9999,0.100000,0,0,0.000000,6,0.000000,0.000000,0.143413,0,0,0,0,0,0,0
12,129999,11,120000,32,0,40,9999,0.100000,0,0,0.000000,6,0.000000,0.000000,0.171707,0,0,0,0,0,0,0
12,129999,12,120000,55,20000,40,9999,0.100000,0,0,0.000000,6,0.000000,0.000000,0.099703,0,0,0,0,0,0,0
12,129999,13,120000,32,0,40,9999,0.100000,0,0,0.000000,6,0.000000,0.000000,1.608911,0,0,0,0,0,0,0
12,129999,14,120000,4,40000,49,9999,0.100000,0,0,0.000000,6,1.000000,0.000000,4.497586,0,0,0,0,0,0,0
12,129999,15,120000,32,0,49,9999,0.100000,0,0,34.210526,6,1.000000,0.000000,14.788952,0,0,1,0,1,0,0
12,129999,16,120000,32,0,40,9999,0.100000,0,0,0.000000,6,0.000000,0.000000,0.772956,0,0,0,0,0,0,0
12,129999,17,120000,32,0,40,9999,0.100000,0,0,0.000000,6,0.000000,0.000000,0.780499,0,0,0,0,0,0,0
12,129999,18,120000,55,20000,40,9999,0.100000,0,0,0.000000,6,0.000000,0.000000,0.278752,0,0,0,0,0,0,0
12,129999,19,120000,78,40000,40,9999,0.100000,0,0,0.000000,6,0.000000,0.000000,0.009193,0,0,0,0,0,0,0
12,129999,20,120000,78,40000,49,9999,0.100000,0,0,0.000000,6,1.000000,0.000000,13.174760,0,0,0,0,0,0,0
12,129999,21,120000,4,40000,40,9999,0.100000,0,0,0.000000,6,0.000000,0.000000,0.270967,0,0,0,0,0,0,0
12,129999,22,120000,83,40000,40,9999,0.100000,0,0,0.000000,6,0.000000,0.000000,0.266533,0,0,0,0,0,0,0
12,129999,23,120000,32,0,40,9999,0.100000,0,0,0.000000,6,0.000000,0.000000,0.855197,0,0,0,0,0,0,0
12,129999,24,120000,78,40000,49,9999,0.100000,0,0,0.000000,6,4.000000,0.000000,8.554533,0,0,0,0,0,0,0
12,129999,25,120000,4,40000,49,9999,0.100000,0,0,0.000000,6,1.000000,0.000000,7.000083,0,0,0,0,0,0,0
12,129999,26,120000,32,0,49,9999,0.100000,0,0,0.000000,6,3.000000,0.000000,7.097852,0,0,0,0,0,0,0
12,129999,27,120000,83,40000,40,9999,0.100000,0,0,0.000000,6,0.000000,0.000000,1.459927,0,0,0,0,0,0,0
12,129999,28,120000,83,40000,49,9999,0.135000,0,0,0.000000,6,3.000000,0.000000,6.020198,0,0,0,0,0,0,0
12,129999,29,120000,51,0,40,9999,0.100000,0,0,0.000000,6,0.000000,0.000000,3.435599,0,0,0,0,0,0,0
12,129999,30,120000,83,40000,40,9999,0.100000,0,0,0.000000,6,0.000000,0.000000,0.504209,0,0,0,0,0,0,0
12,129999,31,120000,32,0,40,9999,0.100000,0,0,0.000000,6,0.000000,0.000000,0.324373,0,0,0,0,0,0,0
12,129999,32,120000,51,0,40,9999,0.100000,0,0,0.000000,6,0.000000,0.000000,0.142217,0,0,0,0,0,0,0
