generation,iteration,robot,birthday,ancestor_id,ancestor_birthday,cell_id,age,sigma,maps,genomes,fitness,cells_in_map,dist_max,dist_pot_max,dist_total,com_rx,com_tx,obj_group1,obj_group2,obj_group3,obj_group4,obj_group5
0,9999,0,0,0,0,49,9999,0.100000,0,0,0.000000,0,3.000000,0.000000,4.186007,0,0,0,0,0,0,0
0,9999,1,0,1,0,49,9999,0.100000,0,0,0.000000,0,5.000000,0.000000,14.864640,0,0,0,0,0,0,0
0,9999,2,0,2,0,49,9999,0.100000,0,0,0.000000,0,9.000000,0.000000,21.211300,0,0,0,0,0,0,0
0,9999,3,0,3,0,49,9999,0.100000,0,0,0.000000,0,7.000000,0.000000,16.877237,0,0,0,0,0,0,0
0,9999,4,0,4,0,49,9999,0.100000,0,0,0.000000,0,9.000000,0.000000,11.175607,0,0,0,0,0,0,0
0,9999,5,0,5,0,49,9999,0.100000,0,0,0.000000,0,4.000000,0.000000,11.046406,0,0,0,0,0,0,0
0,9999,6,0,6,0,49,9999,0.100000,0,0,0.000000,0,7.000000,0.000000,13.082552,0,0,0,0,0,0,0
0,9999,7,0,7,0,49,9999,0.100000,0,0,0.000000,0,7.000000,0.000000,9.220709,0,0,0,0,0,0,0
0,9999,8,0,8,0,49,9999,0.100000,0,0,0.000000,0,10.000000,0.000000,10.197799,0,0,0,0,0,0,0
0,9999,9,0,9,0,49,9999,0.100000,0,0,0.000000,0,7.000000,0.000000,16.862658,0,0,0,0,0,0,0
0,9999,10,0,10,0,49,9999,0.100000,0,0,0.000000,0,9.000000,0.000000,8.708461,0,0,0,0,0,0,0
0,9999,11,0,11,0,49,9999,0.100000,0,0,0.000000,0,5.000000,0.000000,5.963759,0,0,0,0,0,0,0
0,9999,12,0,12,0,99,9999,0.100000,0,0,47.368421,0,8.000000,0.000000,29.945119,0,0,1,0,0,0,0
0,9999,13,0,13,0,49,9999,0.100000,0,0,0.000000,0,8.000000,0.000000,23.752827,0,0,0,0,0,0,0
0,9999,14,0,14,0,49,9999,0.100000,0,0,0.000000,0,9.000000,0.000000,19.692457,0,0,0,0,0,0,0
0,9999,15,0,15,0,49,9999,0.100000,0,0,0.000000,0,10.000000,0.000000,12.454642,0,0,0,0,0,0,0
0,9999,16,0,16,0,49,9999,0.100000,0,0,0.000000,0,8.000000,0.000000,10.822173,0,0,0,0,0,0,0
0,9999,17,0,17,0,49,9999,0.100000,0,0,0.000000,0,10.000000,0.000000,27.996003,0,0,0,0,0,0,0
0,9999,18,0,18,0,49,9999,0.100000,0,0,0.000000,0,4.000000,0.000000,21.826125,0,0,0,0,0,0,0
0,9999,19,0,19,0,49,9999,0.100000,0,0,0.000000,0,7.000000,0.000000,16.400906,0,0,0,0,0,0,0
0,9999,20,0,20,0,49,9999,0.100000,0,0,0.000000,0,3.000000,0.000000,12.250789,0,0,0,0,0,0,0
0,9999,21,0,21,0,49,9999,0.100000,0,0,0.000000,0,11.000000,0.000000,22.131057,0,0,0,0,0,0,0
0,9999,22,0,22,0,49,9999,0.100000,0,0,0.000000,0,9.000000,0.000000,19.971372,0,0,0,0,0,0,0
0,9999,23,0,23,0,49,9999,0.100000,0,0,0.000000,0,11.000000,0.000000,18.143894,0,0,0,0,0,0,0
0,9999,24,0,24,0,49,9999,0.100000,0,0,0.000000,0,6.000000,0.000000,17.697482,0,0,0,0,0,0,0
0,9999,25,0,25,0,49,9999,0.100000,0,0,0.000000,0,5.000000,0.000000,15.187305,0,0,0,0,0,0,0
0,9999,26,0,26,0,99,9999,0.100000,0,0,47.368421,0,8.000000,0.000000,17.535129,0,0,1,0,0,0,0
0,9999,27,0,27,0,49,9999,0.100000,0,0,0.000000,0,3.000000,0.000000,12.465516,0,0,0,0,0,0,0
0,9999,28,0,28,0,49,9999,0.100000,0,0,0.000000,0,11.000000,0.000000,16.717708,0,0,0,0,0,0,0
0,9999,29,0,29,0,49,9999,0.100000,0,0,0.000000,0,5.000000,0.000000,14.167826,0,0,0,0,0,0,0
0,9999,30,0,30,0,49,9999,0.100000,0,0,0.000000,0,8.000000,0.000000,22.286966,0,0,0,0,0,0,0
0,9999,31,0,31,0,49,9999,0.100000,0,0,0.000000,0,6.000000,0.000000,13.362018,0,0,0,0,0,0,0
0,9999,32,0,32,0,49,9999,0.100000,0,0,0.000000,0,6.000000,0.000000,14.522834,0,0,0,0,0,0,0
0,9999,33,0,33,0,49,9999,0.100000,0,0,0.000000,0,5.000000,0.000000,16.845505,0,0,0,0,0,0,0
0,9999,34,0,34,0,49,9999,0.100000,0,0,0.000000,0,8.000000,0.000000,16.943797,0,0,0,0,0,0,0
0,9999,35,0,35,0,49,9999,0.100000,0,0,0.000000,0,7.000000,0.000000,8.947572,0,0,0,0,0,0,0
0,9999,36,0,36,0,49,9999,0.100000,0,0,0.000000,0,9.000000,0.000000,21.466918,0,0,0,0,0,0,0
0,9999,37,0,37,0,49,9999,0.100000,0,0,0.000000,0,9.000000,0.000000,20.387825,0,0,0,0,0,0,0
0,9999,38,0,38,0,49,9999,0.100000,0,0,0.000000,0,5.000000,0.000000,11.856891,0,0,0,0,0,0,0
0,9999,39,0,39,0,99,9999,0.100000,0,0,47.368421,0,11.000000,0.000000,23.127579,0,0,1,0,0,0,0
0,9999,40,0,40,0,99,9999,0.100000,0,0,47.368421,0,11.000000,0.000000,36.252300,0,0,1,0,0,0,0
0,9999,41,0,41,0,99,9999,0.100000,0,0,47.368421,0,8.000000,0.000000,17.620672,0,0,1,0,0,0,0
0,9999,42,0,42,0,49,9999,0.100000,0,0,0.000000,0,1.000000,0.000000,13.384857,0,0,0,0,0,0,0
0,9999,43,0,43,0,49,9999,0.100000,0,0,0.000000,0,3.000000,0.000000,14.946246,0,0,0,0,0,0,0
0,9999,44,0,44,0,99,9999,0.100000,0,0,94.736842,0,10.000000,0.000000,24.592565,0,0,2,0,0,0,0
0,9999,45,0,45,0,49,9999,0.100000,0,0,0.000000,0,7.000000,0.000000,8.513615,0,0,0,0,0,0,0
0,9999,46,0,46,0,49,9999,0.100000,0,0,0.000000,0,7.000000,0.000000,10.281348,0,0,0,0,0,0,0
0,9999,47,0,47,0,49,9999,0.100000,0,0,0.000000,0,7.000000,0.000000,14.490748,0,0,0,0,0,0,0
0,9999,48,0,48,0,49,9999,0.100000,0,0,0.000000,0,9.000000,0.000000,10.635216,0,0,0,0,0,0,0
0,9999,49,0,49,0,49,9999,0.100000,0,0,0.000000,0,9.000000,0.000000,22.790326,0,0,0,0,0,0,0
0,9999,50,0,50,0,49,9999,0.100000,0,0,0.000000,0,11.000000,0.000000,12.635992,0,0,0,0,0,0,0
0,9999,51,0,51,0,99,9999,0.100000,0,0,47.368421,0,9.000000,0.000000,25.671692,0,0,1,0,0,0,0
0,9999,52,0,52,0,99,9999,0.100000,0,0,47.368421,0,8.000000,0.000000,14.849169,0,0,1,0,0,0,0
0,9999,53,0,53,0,49,9999,0.100000,0,0,0.000000,0,7.000000,0.000000,9.019227,0,0,0,0,0,0,0
0,9999,54,0,54,0,49,9999,0.100000,0,0,0.000000,0,6.000000,0.000000,16.300888,0,0,0,0,0,0,0
0,9999,55,0,55,0,49,9999,0.100000,0,0,0.000000,0,13.000000,0.000000,22.947364,0,0,0,0,0,0,0
0,9999,56,0,56,0,99,9999,0.100000,0,0,47.368421,0,8.000000,0.000000,14.544542,0,0,1,0,0,0,0
0,9999,57,0,57,0,99,9999,0.100000,0,0,47.368421,0,9.000000,0.000000,24.130358,0,0,1,0,0,0,0
0,9999,58,0,58,0,49,9999,0.100000,0,0,0.000000,0,4.000000,0.000000,18.187428,0,0,0,0,0,0,0
0,9999,59,0,59,0,49,9999,0.100000,0,0,0.000000,0,3.000000,0.000000,9.771619,0,0,0,0,0,0,0
0,9999,60,0,60,0,49,9999,0.100000,0,0,0.000000,0,8.000000,0.000000,22.941040,0,0,0,0,0,0,0
0,9999,61,0,61,0,49,9999,0.100000,0,0,0.000000,0,10.000000,0.000000,24.507359,0,0,0,0,0,0,0
0,9999,62,0,62,0,49,9999,0.100000,0,0,0.000000,0,4.000000,0.000000,7.665258,0,0,0,0,0,0,0
0,9999,63,0,63,0,49,9999,0.100000,0,0,0.000000,0,6.000000,0.000000,10.809430,0,0,0,0,0,0,0
0,9999,64,0,64,0,49,9999,0.100000,0,0,0.000000,0,6.000000,0.000000,10.203175,0,0,0,0,0,0,0
0,9999,65,0,65,0,49,9999,0.100000,0,0,0.000000,0,6.000000,0.000000,7.307995,0,0,0,0,0,0,0
0,9999,66,0,66,0,49,9999,0.100000,0,0,0.000000,0,3.000000,0.000000,7.987267,0,0,0,0,0,0,0
0,9999,67,0,67,0,49,9999,0.100000,0,0,0.000000,0,8.000000,0.000000,17.426390,0,0,0,0,0,0,0
0,9999,68,0,68,0,49,9999,0.100000,0,0,0.000000,0,9.000000,0.000000,22.275487,0,0,0,0,0,0,0
0,9999,69,0,69,0,49,9999,0.100000,0,0,0.000000,0,3.000000,0.000000,12.584884,0,0,0,0,0,0,0
0,9999,70,0,70,0,49,9999,0.100000,0,0,0.000000,0,7.000000,0.000000,13.700945,0,0,0,0,0,0,0
0,9999,71,0,71,0,49,9999,0.100000,0,0,0.000000,0,5.000000,0.000000,10.922030,0,0,0,0,0,0,0
0,9999,72,0,72,0,49,9999,0.100000,0,0,0.000000,0,11.000000,0.000000,18.270331,0,0,0,0,0,0,0
0,9999,73,0,73,0,49,9999,0.100000,0,0,0.000000,0,4.000000,0.000000,5.217683,0,0,0,0,0,0,0
0,9999,74,0,74,0,49,9999,0.100000,0,0,0.000000,0,13.000000,0.000000,38.290972,0,0,0,0,0,0,0
0,9999,75,0,75,0,49,9999,0.100000,0,0,0.000000,0,11.000000,0.000000,21.987714,0,0,0,0,0,0,0
0,9999,76,0,76,0,49,9999,0.100000,0,0,0.000000,0,4.000000,0.000000,13.668305,0,0,0,0,0,0,0
0,9999,77,0,77,0,49,9999,0.100000,0,0,0.000000,0,8.000000,0.000000,20.939953,0,0,0,0,0,0,0
0,9999,78,0,78,0,49,9999,0.100000,0,0,0.000000,0,2.000000,0.000000,4.479434,0,0,0,0,0,0,0
0,9999,79,0,79,0,49,9999,0.100000,0,0,0.000000,0,8.000000,0.000000,16.506708,0,0,0,0,0,0,0
0,9999,80,0,80,0,49,9999,0.100000,0,0,0.000000,0,6.000000,0.000000,27.329157,0,0,0,0,0,0,0
0,9999,81,0,81,0,49,9999,0.100000,0,0,0.000000,0,8.000000,0.000000,16.767229,0,0,0,0,0,0,0
0,9999,82,0,82,0,49,9999,0.100000,0,0,0.000000,0,7.000000,0.000000,13.334670,0,0,0,0,0,0,0
0,9999,83,0,83,0,49,9999,0.100000,0,0,0.000000,0,3.000000,0.000000,18.433655,0,0,0,0,0,0,0
0,9999,84,0,84,0,49,9999,0.100000,0,0,0.000000,0,7.000000,0.000000,8.598142,0,0,0,0,0,0,0
0,9999,85,0,85,0,49,9999,0.100000,0,0,0.000000,0,9.000000,0.000000,19.233064,0,0,0,0,0,0,0
0,9999,86,0,86,0,49,9999,0.100000,0,0,0.000000,0,8.000000,0.000000,18.299496,0,0,0,0,0,0,0
0,9999,87,0,87,0,49,9999,0.100000,0,0,0.000000,0,9.000000,0.000000,13.093633,0,0,0,0,0,0,0
0,9999,88,0,88,0,49,9999,0.100000,0,0,0.000000,0,10.000000,0.000000,19.756746,0,0,0,0,0,0,0
0,9999,89,0,89,0,49,9999,0.100000,0,0,0.000000,0,5.000000,0.000000,12.009444,0,0,0,0,0,0,0
0,9999,90,0,90,0,49,9999,0.100000,0,0,0.000000,0,9.000000,0.000000,16.528994,0,0,0,0,0,0,0
0,9999,91,0,91,0,49,9999,0.100000,0,0,0.000000,0,7.000000,0.000000,18.270664,0,0,0,0,0,0,0
0,9999,92,0,92,0,49,9999,0.100000,0,0,0.000000,0,2.000000,0.000000,10.942425,0,0,0,0,0,0,0
0,9999,93,0,93,0,49,9999,0.100000,0,0,0.000000,0,6.000000,0.000000,8.499704,0,0,0,0,0,0,0
0,9999,94,0,94,0,49,9999,0.100000,0,0,0.000000,0,10.000000,0.000000,20.838596,0,0,0,0,0,0,0
0,9999,95,0,95,0,49,9999,0.100000,0,0,0.000000,0,5.000000,0.000000,22.617663,0,0,0,0,0,0,0
0,9999,96,0,96,0,49,9999,0.100000,0,0,0.000000,0,9.000000,0.000000,11.195012,0,0,0,0,0,0,0
0,9999,97,0,97,0,49,9999,0.100000,0,0,0.000000,0,10.000000,0.000000,17.294146,0,0,0,0,0,0,0
0,9999,98,0,98,0,99,9999,0.100000,0,0,47.368421,0,8.000000,0.000000,24.859309,0,0,1,0,0,0,0
0,9999,99,0,99,0,49,9999,0.100000,0,0,0.000000,0,10.000000,0.000000,12.564209,0,0,0,0,0,0,0
1,19999,0,10000,1,0,49,9999,0.100000,0,0,0.000000,3,1.000000,0.000000,1.582059,0,0,0,0,0,0,0
1,19999,1,10000,1,0,40,9999,0.100000,0,0,0.000000,3,0.000000,0.000000,6.945771,0,0,0,0,0,0,0
1,19999,2,0,2,0,99,19999,0.100000,0,0,34.210526,1,11.000000,0.000000,18.040385,0,0,1,0,0,0,0
1,19999,3,0,3,0,49,19999,0.100000,0,0,0.000000,3,1.000000,0.000000,15.389940,0,0,0,0,0,0,0
1,19999,4,10000,15,0,40,9999,0.100000,0,0,0.000000,3,0.000000,0.000000,0.349794,0,0,0,0,0,0,0
1,19999,5,10000,1,0,40,9999,0.100000,0,0,0.000000,3,0.000000,0.000000,0.140229,0,0,0,0,0,0,0
1,19999,6,10000,50,0,49,9999,0.100000,0,0,0.000000,3,1.000000,0.000000,6.097280,0,0,0,0,0,0,0
1,19999,7,10000,9,0,40,9999,0.100000,0,0,0.000000,3,0.000000,0.000000,0.339777,0,0,0,0,0,0,0
1,19999,8,10000,1,0,40,9999,0.100000,0,0,0.000000,3,0.000000,0.000000,1.095881,0,0,0,0,0,0,0
1,19999,9,10000,25,0,49,9999,0.100000,0,0,0.000000,2,4.000000,0.000000,11.712448,0,0,0,0,0,0,0
1,19999,10,10000,1,0,40,9999,0.100000,0,0,0.000000,3,0.000000,0.000000,0.081216,0,0,0,0,0,0,0
1,19999,11,10000,15,0,40,9999,0.100000,0,0,0.000000,3,0.000000,0.000000,0.211066,0,0,0,0,0,0,0
1,19999,12,10000,15,0,49,9999,0.100000,0,0,0.000000,3,1.000000,0.000000,3.627455,0,0,0,0,0,0,0
1,19999,13,10000,1,0,40,9999,0.100000,0,0,0.000000,3,0.000000,0.000000,19.830671,0,0,0,0,0,0,0
1,19999,14,10000,50,0,49,9999,0.100000,0,0,0.000000,3,2.000000,0.000000,12.887848,0,0,0,0,0,0,0
1,19999,15,10000,7,0,40,9999,0.100000,0,0,0.000000,3,0.000000,0.000000,0.825875,0,0,0,0,0,0,0
1,19999,16,10000,50,0,40,9999,0.100000,0,0,0.000000,3,0.000000,0.000000,0.243296,0,0,0,0,0,0,0
1,19999,17,10000,9,0,40,9999,0.100000,0,0,0.000000,3,0.000000,0.000000,1.834614,0,0,0,0,0,0,0
1,19999,18,10000,1,0,40,9999,0.100000,0,0,0.000000,3,0.000000,0.000000,4.909717,0,0,0,0,0,0,0
1,19999,19,10000,50,0,40,9999,0.100000,0,0,0.000000,3,0.000000,0.000000,0.700806,0,0,0,0,0,0,0
1,19999,20,10000,15,0,49,9999,0.100000,0,0,0.000000,3,1.000000,0.000000,14.038332,0,0,0,0,0,0,0
1,19999,21,10000,7,0,49,9999,0.100000,0,0,0.000000,3,1.000000,0.000000,4.524264,0,0,0,0,0,0,0
1,19999,22,10000,50,0,49,9999,0.100000,0,0,0.000000,3,2.000000,0.000000,6.898309,0,0,0,0,0,0,0
1,19999,23,10000,15,0,40,9999,0.100000,0,0,0.000000,3,0.000000,0.000000,0.986049,0,0,0,0,0,0,0
1,19999,24,10000,9,0,49,9999,0.100000,0,0,0.000000,2,2.000000,0.000000,11.351299,0,0,0,0,0,0,0
1,19999,25,0,25,0,99,19999,0.100000,0,0,34.210526,1,6.000000,0.000000,12.850872,0,0,1,0,0,0,0
1,19999,26,10000,9,0,49,9999,0.100000,0,0,0.000000,3,5.000000,0.000000,14.752323,0,0,0,0,0,0,0
1,19999,27,10000,15,0,49,9999,0.100000,0,0,0.000000,3,1.000000,0.000000,3.663081,0,0,0,0,0,0,0
1,19999,28,10000,50,0,40,9999,0.100000,0,0,0.000000,3,0.000000,0.000000,1.767167,0,0,0,0,0,0,0
1,19999,29,10000,7,0,40,9999,0.100000,0,0,0.000000,3,0.000000,0.000000,1.297162,0,0,0,0,0,0,0
1,19999,30,10000,30,0,40,9999,0.100000,0,0,0.000000,2,0.000000,0.000000,14.834379,0,0,0,0,0,0,0
1,19999,31,10000,9,0,49,9999,0.100000,0,0,0.000000,3,1.000000,0.000000,21.577839,0,0,0,0,0,0,0
1,19999,32,0,32,0,40,19999,0.100000,0,0,0.000000,2,0.000000,0.000000,7.102346,0,0,0,0,0,0,0
1,19999,33,10000,1,0,49,9999,0.100000,0,0,0.000000,3,2.000000,0.000000,11.951899,0,0,0,0,0,0,0
1,19999,34,10000,1,0,40,9999,0.100000,0,0,0.000000,3,0.000000,0.000000,0.622024,0,0,0,0,0,0,0
1,19999,35,10000,15,0,40,9999,0.100000,0,0,0.000000,3,0.000000,0.000000,0.718724,0,0,0,0,0,0,0
1,19999,36,10000,7,0,49,9999,0.100000,0,0,0.000000,3,2.000000,0.000000,11.851857,0,0,0,0,0,0,0
1,19999,37,10000,30,0,99,9999,0.100000,0,0,34.210526,2,17.000000,0.000000,22.718327,0,0,1,0,0,0,0
1,19999,38,10000,15,0,49,9999,0.100000,0,0,0.000000,3,4.000000,0.000000,9.752858,0,0,0,0,0,0,0
1,19999,39,10000,7,0,49,9999,0.100000,0,0,0.000000,3,2.000000,0.000000,5.843891,0,0,0,0,0,0,0
1,19999,40,10000,7,0,99,9999,0.100000,0,0,34.210526,3,3.000000,0.000000,10.817102,0,0,1,0,0,0,0
1,19999,41,10000,15,0,49,9999,0.100000,0,0,0.000000,3,1.000000,0.000000,10.614866,0,0,0,0,0,0,0
1,19999,42,10000,1,0,49,9999,0.100000,0,0,0.000000,3,1.000000,0.000000,7.397503,0,0,0,0,0,0,0
1,19999,43,10000,1,0,49,9999,0.100000,0,0,0.000000,3,3.000000,0.000000,10.691633,0,0,0,0,0,0,0
1,19999,44,10000,1,0,40,9999,0.100000,0,0,0.000000,3,0.000000,0.000000,3.692482,0,0,0,0,0,0,0
1,19999,45,10000,50,0,40,9999,0.100000,0,0,0.000000,3,0.000000,0.000000,0.152565,0,0,0,0,0,0,0
1,19999,46,10000,7,0,40,9999,0.100000,0,0,0.000000,3,0.000000,0.000000,0.445565,0,0,0,0,0,0,0
1,19999,47,10000,7,0,40,9999,0.100000,0,0,0.000000,3,0.000000,0.000000,0.635541,0,0,0,0,0,0,0
1,19999,48,10000,44,0,40,9999,0.100000,0,0,0.000000,3,0.000000,0.000000,0.435335,0,0,0,0,0,0,0
1,19999,49,10000,44,0,40,9999,0.100000,0,0,0.000000,3,0.000000,0.000000,6.428899,0,0,0,0,0,0,0
1,19999,50,10000,15,0,40,9999,0.100000,0,0,0.000000,3,0.000000,0.000000,0.172934,0,0,0,0,0,0,0
1,19999,51,10000,15,0,49,9999,0.100000,0,0,0.000000,3,1.000000,0.000000,3.848940,0,0,0,0,0,0,0
1,19999,52,10000,9,0,49,9999,0.100000,0,0,0.000000,2,3.000000,0.000000,22.113339,0,0,0,0,0,0,0
1,19999,53,10000,50,0,40,9999,0.100000,0,0,0.000000,3,0.000000,0.000000,0.086409,0,0,0,0,0,0,0
1,19999,54,10000,50,0,49,9999,0.100000,0,0,0.000000,3,1.000000,0.000000,5.096207,0,0,0,0,0,0,0
1,19999,55,10000,7,0,49,9999,0.100000,0,0,0.000000,3,1.000000,0.000000,5.080932,0,0,0,0,0,0,0
1,19999,56,0,56,0,49,19999,0.100000,0,0,0.000000,3,1.000000,0.000000,8.313550,0,0,0,0,0,0,0
1,19999,57,10000,7,0,49,9999,0.100000,0,0,0.000000,3,1.000000,0.000000,7.352887,0,0,0,0,0,0,0
1,19999,58,10000,15,0,40,9999,0.100000,0,0,0.000000,3,0.000000,0.000000,0.611832,0,0,0,0,0,0,0
1,19999,59,10000,7,0,40,9999,0.100000,0,0,0.000000,3,0.000000,0.000000,6.032231,0,0,0,0,0,0,0
1,19999,60,10000,50,0,49,9999,0.100000,0,0,0.000000,3,1.000000,0.000000,14.435395,0,0,0,0,0,0,0
1,19999,61,10000,50,0,40,9999,0.100000,0,0,0.000000,3,0.000000,0.000000,11.455590,0,0,0,0,0,0,0
1,19999,62,10000,15,0,49,9999,0.100000,0,0,0.000000,3,1.000000,0.000000,6.530694,0,0,0,0,0,0,0
1,19999,63,10000,50,0,49,9999,0.100000,0,0,0.000000,3,3.000000,0.000000,6.452572,0,0,0,0,0,0,0
1,19999,64,10000,52,0,99,9999,0.100000,0,0,26.210456,2,3.000000,0.000000,6.342300,0,0,1,0,0,0,0
1,19999,65,10000,1,0,40,9999,0.100000,0,0,0.000000,3,0.000000,0.000000,4.562230,0,0,0,0,0,0,0
1,19999,66,0,66,0,49,19999,0.100000,0,0,0.000000,3,5.000000,0.000000,8.098164,0,0,0,0,0,0,0
1,19999,67,10000,1,0,40,9999,0.100000,0,0,0.000000,3,0.000000,0.000000,5.959591,0,0,0,0,0,0,0
1,19999,68,10000,1,0,49,9999,0.100000,0,0,0.000000,3,2.000000,0.000000,15.432589,0,0,0,0,0,0,0
1,19999,69,10000,1,0,40,9999,0.100000,0,0,0.000000,3,0.000000,0.000000,7.707322,0,0,0,0,0,0,0
1,19999,70,10000,50,0,49,9999,0.100000,0,0,0.000000,3,3.000000,0.000000,6.778591,0,0,0,0,0,0,0
1,19999,71,10000,1,0,49,9999,0.100000,0,0,0.000000,3,1.000000,0.000000,4.086592,0,0,0,0,0,0,0
1,19999,72,10000,25,0,40,9999,0.100000,0,0,0.000000,2,0.000000,0.000000,1.011136,0,0,0,0,0,0,0
1,19999,73,10000,44,0,40,9999,0.100000,0,0,0.000000,3,0.000000,0.000000,0.532017,0,0,0,0,0,0,0
1,19999,74,10000,50,0,49,9999,0.100000,0,0,0.000000,3,3.000000,0.000000,16.630707,0,0,0,0,0,0,0
1,19999,75,10000,44,0,49,9999,0.100000,0,0,0.000000,3,5.000000,0.000000,13.764007,0,0,0,0,0,0,0
1,19999,76,10000,52,0,40,9999,0.100000,0,0,0.000000,2,0.000000,0.000000,21.164759,0,0,0,0,0,0,0
1,19999,77,10000,1,0,40,9999,0.100000,0,0,0.000000,3,0.000000,0.000000,1.155932,0,0,0,0,0,0,0
1,19999,78,10000,50,0,40,9999,0.100000,0,0,0.000000,3,0.000000,0.000000,0.434110,0,0,0,0,0,0,0
1,19999,79,10000,44,0,40,9999,0.100000,0,0,0.000000,3,0.000000,0.000000,0.242015,0,0,0,0,0,0,0
1,19999,80,10000,50,0,40,9999,0.100000,0,0,0.000000,3,0.000000,0.000000,3.365038,0,0,0,0,0,0,0
1,19999,81,10000,44,0,49,9999,0.100000,0,0,0.000000,3,2.000000,0.000000,10.187239,0,0,0,0,0,0,0
1,19999,82,10000,1,0,40,9999,0.100000,0,0,0.000000,3,0.000000,0.000000,1.166975,0,0,0,0,0,0,0
1,19999,83,10000,15,0,49,9999,0.100000,0,0,0.000000,3,1.000000,0.000000,2.560183,0,0,0,0,0,0,0
1,19999,84,10000,15,0,40,9999,0.100000,0,0,0.000000,3,0.000000,0.000000,0.526224,0,0,0,0,0,0,0
1,19999,85,10000,15,0,40,9999,0.100000,0,0,0.000000,3,0.000000,0.000000,2.269333,0,0,0,0,0,0,0
1,19999,86,10000,1,0,49,9999,0.100000,0,0,0.000000,3,7.000000,0.000000,8.136774,0,0,0,0,0,0,0
1,19999,87,10000,1,0,40,9999,0.100000,0,0,0.000000,3,0.000000,0.000000,0.227385,0,0,0,0,0,0,0
1,19999,88,0,88,0,40,19999,0.100000,0,0,0.000000,3,0.000000,0.000000,6.820933,0,0,0,0,0,0,0
1,19999,89,10000,7,0,49,9999,0.100000,0,0,0.000000,3,2.000000,0.000000,5.591998,0,0,0,0,0,0,0
1,19999,90,10000,1,0,49,9999,0.100000,0,0,0.000000,3,4.000000,0.000000,7.477593,0,0,0,0,0,0,0
1,19999,91,10000,1,0,40,9999,0.100000,0,0,0.000000,3,0.000000,0.000000,5.923871,0,0,0,0,0,0,0
1,19999,92,10000,9,0,49,9999,0.100000,0,0,0.000000,3,1.000000,0.000000,11.256582,0,0,0,0,0,0,0
1,19999,93,10000,1,0,40,9999,0.100000,0,0,0.000000,3,0.000000,0.000000,0.732287,0,0,0,0,0,0,0
1,19999,94,10000,50,0,49,9999,0.100000,0,0,0.000000,3,2.000000,0.000000,12.394762,0,0,0,0,0,0,0
1,19999,95,10000,7,0,49,9999,0.100000,0,0,0.000000,3,1.000000,0.000000,6.518087,0,0,0,0,0,0,0
1,19999,96,10000,44,0,40,9999,0.100000,0,0,0.000000,3,0.000000,0.000000,0.151229,0,0,0,0,0,0,0
1,19999,97,10000,52,0,40,9999,0.100000,0,0,0.000000,3,0.000000,0.000000,5.729374,0,0,0,0,0,0,0
1,19999,98,0,98,0,49,19999,0.100000,0,0,0.000000,3,1.000000,0.000000,8.985488,0,0,0,0,0,0,0
1,19999,99,10000,50,0,40,9999,0.100000,0,0,0.000000,3,0.000000,0.000000,3.770233,0,0,0,0,0,0,0
2,29999,0,20000,44,0,40,9999,0.100000,0,0,0.000000,4,0.000000,0.000000,1.183850,0,0,0,0,0,0,0
2,29999,1,20000,50,0,49,9999,0.100000,0,0,0.000000,4,1.000000,0.000000,7.129590,0,0,0,0,0,0,0
2,29999,2,20000,50,10000,40,9999,0.100000,0,0,0.000000,6,0.000000,0.000000,9.482256,0,0,0,0,0,0,0
2,29999,3,20000,50,0,49,9999,0.100000,0,0,0.000000,6,1.000000,0.000000,12.498681,0,0,0,0,0,0,0
2,29999,4,20000,15,10000,40,9999,0.100000,0,0,0.000000,6,0.000000,0.000000,1.339455,0,0,0,0,0,0,0
2,29999,5,20000,1,10000,40,9999,0.100000,0,0,0.000000,5,0.000000,0.000000,0.141591,0,0,0,0,0,0,0
2,29999,6,20000,50,10000,49,9999,0.100000,0,0,0.000000,6,1.000000,0.000000,2.929346,0,0,0,0,0,0,0
2,29999,7,20000,1,0,40,9999,0.100000,0,0,0.000000,6,0.000000,0.000000,0.284115,0,0,0,0,0,0,0
2,29999,8,20000,15,10000,40,9999,0.100000,0,0,0.000000,6,0.000000,0.000000,0.957758,0,0,0,0,0,0,0
2,29999,9,20000,1,0,49,9999,0.100000,0,0,0.000000,6,3.000000,0.000000,9.622454,0,0,0,0,0,0,0
2,29999,10,20000,1,10000,40,9999,0.100000,0,0,0.000000,6,0.000000,0.000000,0.081994,0,0,0,0,0,0,0
2,29999,11,20000,15,10000,40,9999,0.100000,0,0,0.000000,6,0.000000,0.000000,0.209831,0,0,0,0,0,0,0
2,29999,12,20000,1,10000,49,9999,0.100000,0,0,0.000000,6,1.000000,0.000000,3.791238,0,0,0,0,0,0,0
2,29999,13,20000,50,10000,40,9999,0.100000,0,0,0.000000,6,0.000000,0.000000,18.075530,0,0,0,0,0,0,0
2,29999,14,20000,35,10000,49,9999,0.100000,0,0,0.000000,5,4.000000,0.000000,16.123241,0,0,0,0,0,0,0
2,29999,15,20000,50,0,40,9999,0.100000,0,0,0.000000,6,0.000000,0.000000,13.656229,0,0,0,0,0,0,0
2,29999,16,20000,1,0,40,9999,0.100000,0,0,0.000000,6,0.000000,0.000000,0.162059,0,0,0,0,0,0,0
2,29999,17,20000,1,0,40,9999,0.100000,0,0,0.000000,6,0.000000,0.000000,4.152571,0,0,0,0,0,0,0
2,29999,18,20000,44,0,49,9999,0.100000,0,0,0.000000,6,1.000000,0.000000,21.809749,0,0,0,0,0,0,0
2,29999,19,20000,44,0,40,9999,0.100000,0,0,0.000000,6,0.000000,0.000000,0.324850,0,0,0,0,0,0,0
2,29999,20,20000,1,10000,49,9999,0.100000,0,0,0.000000,6,1.000000,0.000000,16.269695,0,0,0,0,0,0,0
2,29999,21,20000,50,0,49,9999,0.100000,0,0,0.000000,4,2.000000,0.000000,7.563609,0,0,0,0,0,0,0
2,29999,22,20000,50,0,49,9999,0.100000,0,0,0.000000,6,4.000000,0.000000,10.573684,0,0,0,0,0,0,0
2,29999,23,20000,1,0,40,9999,0.100000,0,0,0.000000,6,0.000000,0.000000,1.013804,0,0,0,0,0,0,0
2,29999,24,20000,1,0,49,9999,0.100000,0,0,0.000000,6,1.000000,0.000000,4.967136,0,0,0,0,0,0,0
2,29999,25,20000,44,0,49,9999,0.100000,0,0,0.000000,6,5.000000,0.000000,10.650062,0,0,0,0,0,0,0
2,29999,26,20000,15,10000,49,9999,0.100000,0,0,0.000000,6,1.000000,0.000000,8.968306,0,0,0,0,0,0,0
2,29999,27,20000,1,0,49,9999,0.100000,0,0,0.000000,6,1.000000,0.000000,5.825087,0,0,0,0,0,0,0
2,29999,28,20000,1,0,40,9999,0.100000,0,0,0.000000,6,0.000000,0.000000,0.777481,0,0,0,0,0,0,0
2,29999,29,20000,35,10000,49,9999,0.100000,0,0,0.000000,6,8.000000,0.000000,10.646305,0,0,0,0,0,0,0
2,29999,30,20000,44,0,40,9999,0.100000,0,0,0.000000,6,0.000000,0.000000,7.677424,0,0,0,0,0,0,0
2,29999,31,20000,50,0,40,9999,0.100000,0,0,0.000000,6,0.000000,0.000000,23.308756,0,0,0,0,0,0,0
2,29999,32,20000,50,0,49,9999,0.100000,0,0,0.000000,6,3.000000,0.000000,8.665347,0,0,0,0,0,0,0
2,29999,33,20000,1,0,49,9999,0.100000,0,0,0.000000,6,1.000000,0.000000,10.730324,0,0,0,0,0,0,0
2,29999,34,20000,15,10000,49,9999,0.100000,0,0,0.000000,6,1.000000,0.000000,1.298286,0,0,0,0,0,0,0
2,29999,35,20000,1,0,40,9999,0.100000,0,0,0.000000,5,0.000000,0.000000,0.681196,0,0,0,0,0,0,0
2,29999,36,20000,50,0,49,9999,0.100000,0,0,0.000000,4,2.000000,0.000000,9.004527,0,0,0,0,0,0,0
2,29999,37,20000,1,10000,49,9999,0.100000,0,0,0.000000,6,2.000000,0.000000,6.687409,0,0,0,0,0,0,0
2,29999,38,20000,1,10000,40,9999,0.100000,0,0,0.000000,6,0.000000,0.000000,4.071156,0,0,0,0,0,0,0
2,29999,39,20000,1,0,49,9999,0.100000,0,0,0.000000,6,1.000000,0.000000,1.885415,0,0,0,0,0,0,0
2,29999,40,20000,15,10000,49,9999,0.100000,0,0,0.000000,6,3.000000,0.000000,8.498061,0,0,0,0,0,0,0
2,29999,41,20000,87,10000,49,9999,0.100000,0,0,0.000000,6,2.000000,0.000000,7.758385,0,0,0,0,0,0,0
2,29999,42,20000,1,10000,40,9999,0.100000,0,0,0.000000,6,0.000000,0.000000,7.981864,0,0,0,0,0,0,0
2,29999,43,20000,50,10000,49,9999,0.100000,0,0,0.000000,6,1.000000,0.000000,3.739079,0,0,0,0,0,0,0
2,29999,44,20000,50,10000,49,9999,0.100000,0,0,0.000000,6,2.000000,0.000000,11.402455,0,0,0,0,0,0,0
2,29999,45,20000,50,0,40,9999,0.100000,0,0,0.000000,6,0.000000,0.000000,0.149033,0,0,0,0,0,0,0
2,29999,46,20000,87,10000,40,9999,0.100000,0,0,0.000000,6,0.000000,0.000000,0.260272,0,0,0,0,0,0,0
2,29999,47,20000,50,0,40,9999,0.100000,0,0,0.000000,6,0.000000,0.000000,0.622820,0,0,0,0,0,0,0
2,29999,48,20000,50,0,40,9999,0.100000,0,0,0.000000,6,0.000000,0.000000,0.105705,0,0,0,0,0,0,0
2,29999,49,20000,1,10000,49,9999,0.100000,0,0,0.000000,6,1.000000,0.000000,4.029974,0,0,0,0,0,0,0
2,29999,50,20000,44,0,40,9999,0.100000,0,0,0.000000,6,0.000000,0.000000,0.245581,0,0,0,0,0,0,0
2,29999,51,20000,15,10000,49,9999,0.100000,0,0,0.000000,6,1.000000,0.000000,8.025787,0,0,0,0,0,0,0
2,29999,52,20000,1,10000,49,9999,0.100000,0,0,0.000000,6,2.000000,0.000000,5.738247,0,0,0,0,0,0,0
2,29999,53,20000,50,10000,40,9999,0.100000,0,0,0.000000,6,0.000000,0.000000,0.088078,0,0,0,0,0,0,0
2,29999,54,20000,15,10000,49,9999,0.100000,0,0,0.000000,6,5.000000,0.000000,10.312504,0,0,0,0,0,0,0
2,29999,55,20000,1,10000,49,9999,0.100000,0,0,0.000000,6,1.000000,0.000000,7.002439,0,0,0,0,0,0,0
2,29999,56,20000,15,10000,40,9999,0.100000,0,0,0.000000,6,0.000000,0.000000,5.996346,0,0,0,0,0,0,0
2,29999,57,20000,44,0,49,9999,0.100000,0,0,0.000000,5,2.000000,0.000000,12.902383,0,0,0,0,0,0,0
2,29999,58,20000,1,0,49,9999,0.100000,0,0,0.000000,6,1.000000,0.000000,2.059662,0,0,0,0,0,0,0
2,29999,59,20000,50,0,49,9999,0.100000,0,0,0.000000,6,1.000000,0.000000,5.758730,0,0,0,0,0,0,0
2,29999,60,20000,35,10000,40,9999,0.100000,0,0,0.000000,6,0.000000,0.000000,9.784889,0,0,0,0,0,0,0
2,29999,61,20000,15,10000,49,9999,0.100000,0,0,0.000000,6,3.000000,0.000000,12.031791,0,0,0,0,0,0,0
2,29999,62,20000,1,10000,40,9999,0.100000,0,0,0.000000,6,0.000000,0.000000,5.945035,0,0,0,0,0,0,0
2,29999,63,20000,1,10000,49,9999,0.100000,0,0,0.000000,6,3.000000,0.000000,8.458021,0,0,0,0,0,0,0
2,29999,64,20000,44,0,49,9999,0.100000,0,0,0.000000,6,3.000000,0.000000,7.891652,0,0,0,0,0,0,0
2,29999,65,20000,1,10000,40,9999,0.100000,0,0,0.000000,6,0.000000,0.000000,0.295276,0,0,0,0,0,0,0
2,29999,66,20000,87,10000,49,9999,0.100000,0,0,0.000000,6,1.000000,0.000000,11.410319,0,0,0,0,0,0,0
2,29999,67,20000,50,0,49,9999,0.100000,0,0,0.000000,6,1.000000,0.000000,8.439966,0,0,0,0,0,0,0
2,29999,68,20000,50,0,49,9999,0.100000,0,0,0.000000,6,7.000000,0.000000,9.059767,0,0,0,0,0,0,0
2,29999,69,20000,1,10000,49,9999,0.100000,0,0,0.000000,6,2.000000,0.000000,10.128643,0,0,0,0,0,0,0
2,29999,70,20000,1,10000,49,9999,0.100000,0,0,0.000000,6,1.000000,0.000000,3.899584,0,0,0,0,0,0,0
2,29999,71,20000,50,0,40,9999,0.100000,0,0,0.000000,6,0.000000,0.000000,5.171544,0,0,0,0,0,0,0
2,29999,72,20000,1,10000,40,9999,0.100000,0,0,0.000000,6,0.000000,0.000000,1.008225,0,0,0,0,0,0,0
2,29999,73,20000,50,0,49,9999,0.100000,0,0,0.000000,6,1.000000,0.000000,1.222431,0,0,0,0,0,0,0
2,29999,74,20000,50,0,49,9999,0.100000,0,0,0.000000,6,5.000000,0.000000,12.189955,0,0,0,0,0,0,0
2,29999,75,20000,15,10000,49,9999,0.100000,0,0,0.000000,6,1.000000,0.000000,7.976905,0,0,0,0,0,0,0
2,29999,76,20000,15,10000,49,9999,0.100000,0,0,0.000000,6,1.000000,0.000000,19.413030,0,0,0,0,0,0,0
2,29999,77,20000,1,0,49,9999,0.100000,0,0,0.000000,6,1.000000,0.000000,2.020474,0,0,0,0,0,0,0
2,29999,78,20000,44,0,40,9999,0.100000,0,0,0.000000,6,0.000000,0.000000,0.192173,0,0,0,0,0,0,0
2,29999,79,20000,50,10000,40,9999,0.100000,0,0,0.000000,6,0.000000,0.000000,0.218362,0,0,0,0,0,0,0
2,29999,80,20000,50,10000,40,9999,0.100000,0,0,0.000000,6,0.000000,0.000000,0.357143,0,0,0,0,0,0,0
2,29999,81,20000,1,10000,49,9999,0.100000,0,0,0.000000,6,1.000000,0.000000,4.223350,0,0,0,0,0,0,0
2,29999,82,20000,15,10000,49,9999,0.100000,0,0,0.000000,6,1.000000,0.000000,1.422372,0,0,0,0,0,0,0
2,29999,83,20000,1,10000,40,9999,0.100000,0,0,0.000000,6,0.000000,0.000000,1.368779,0,0,0,0,0,0,0
2,29999,84,20000,1,10000,40,9999,0.100000,0,0,0.000000,6,0.000000,0.000000,0.401998,0,0,0,0,0,0,0
2,29999,85,20000,1,0,40,9999,0.100000,0,0,0.000000,6,0.000000,0.000000,1.154147,0,0,0,0,0,0,0
2,29999,86,20000,50,0,40,9999,0.100000,0,0,0.000000,6,0.000000,0.000000,0.724551,0,0,0,0,0,0,0
2,29999,87,20000,15,10000,49,9999,0.100000,0,0,0.000000,6,4.000000,0.000000,6.700934,0,0,0,0,0,0,0
2,29999,88,20000,1,0,49,9999,0.100000,0,0,0.000000,6,2.000000,0.000000,12.053082,0,0,0,0,0,0,0
2,29999,89,20000,1,0,40,9999,0.100000,0,0,0.000000,6,0.000000,0.000000,4.298725,0,0,0,0,0,0,0
2,29999,90,20000,50,10000,49,9999,0.100000,0,0,0.000000,6,3.000000,0.000000,4.907099,0,0,0,0,0,0,0
2,29999,91,20000,50,10000,40,9999,0.100000,0,0,0.000000,6,0.000000,0.000000,1.521819,0,0,0,0,0,0,0
2,29999,92,20000,1,10000,40,9999,0.100000,0,0,0.000000,6,0.000000,0.000000,11.379017,0,0,0,0,0,0,0
2,29999,93,20000,15,10000,40,9999,0.100000,0,0,0.000000,6,0.000000,0.000000,0.302479,0,0,0,0,0,0,0
2,29999,94,20000,44,0,40,9999,0.100000,0,0,0.000000,6,0.000000,0.000000,1.560354,0,0,0,0,0,0,0
2,29999,95,20000,50,10000,49,9999,0.100000,0,0,0.000000,6,1.000000,0.000000,4.365554,0,0,0,0,0,0,0
2,29999,96,20000,1,0,40,9999,0.100000,0,0,0.000000,6,0.000000,0.000000,0.167449,0,0,0,0,0,0,0
2,29999,97,20000,1,0,40,9999,0.100000,0,0,0.000000,4,0.000000,0.000000,5.953890,0,0,0,0,0,0,0
2,29999,98,20000,1,10000,40,9999,0.100000,0,0,0.000000,6,0.000000,0.000000,3.746982,0,0,0,0,0,0,0
2,29999,99,20000,44,0,49,9999,0.100000,0,0,0.000000,6,6.000000,0.000000,10.363604,0,0,0,0,0,0,0
3,39999,0,30000,15,10000,49,9999,0.100000,0,0,0.000000,6,2.000000,0.000000,3.518373,0,0,0,0,0,0,0
3,39999,1,30000,36,20000,49,9999,0.100000,0,0,0.000000,6,1.000000,0.000000,6.069203,0,0,0,0,0,0,0
3,39999,2,30000,1,10000,49,9999,0.100000,0,0,0.000000,6,1.000000,0.000000,8.367667,0,0,0,0,0,0,0
3,39999,3,30000,36,20000,9,9999,0.100000,0,0,34.210526,6,3.000000,0.000000,6.592870,0,0,0,0,1,0,0
3,39999,4,30000,15,10000,40,9999,0.100000,0,0,0.000000,6,0.000000,0.000000,0.078015,0,0,0,0,0,0,0
3,39999,5,30000,1,0,40,9999,0.100000,0,0,0.000000,6,0.000000,0.000000,0.430867,0,0,0,0,0,0,0
3,39999,6,30000,1,10000,40,9999,0.100000,0,0,0.000000,6,0.000000,0.000000,0.211487,0,0,0,0,0,0,0
3,39999,7,30000,36,20000,40,9999,0.100000,0,0,0.000000,6,0.000000,0.000000,0.254592,0,0,0,0,0,0,0
3,39999,8,30000,1,10000,40,9999,0.100000,0,0,0.000000,6,0.000000,0.000000,1.214684,0,0,0,0,0,0,0
3,39999,9,30000,36,20000,49,9999,0.100000,0,0,0.000000,6,2.000000,0.000000,7.231724,0,0,0,0,0,0,0
3,39999,10,30000,36,20000,40,9999,0.100000,0,0,0.000000,6,0.000000,0.000000,0.081586,0,0,0,0,0,0,0
3,39999,11,30000,44,0,40,9999,0.100000,0,0,0.000000,6,0.000000,0.000000,1.137049,0,0,0,0,0,0,0
3,39999,12,30000,50,10000,9,9999,0.100000,0,0,34.210526,6,3.000000,0.000000,9.898557,0,0,0,1,0,0,0
3,39999,13,30000,36,20000,40,9999,0.100000,0,0,0.000000,6,0.000000,0.000000,16.701887,0,0,0,0,0,0,0
3,39999,14,30000,15,10000,49,9999,0.100000,0,0,0.000000,6,2.000000,0.000000,4.675771,0,0,0,0,0,0,0
3,39999,15,30000,50,20000,40,9999,0.100000,0,0,0.000000,6,0.000000,0.000000,8.247770,0,0,0,0,0,0,0
3,39999,16,30000,36,20000,40,9999,0.100000,0,0,0.000000,6,0.000000,0.000000,0.126995,0,0,0,0,0,0,0
3,39999,17,30000,1,0,40,9999,0.100000,0,0,0.000000,6,0.000000,0.000000,4.856368,0,0,0,0,0,0,0
3,39999,18,30000,15,10000,49,9999,0.100000,0,0,0.000000,6,2.000000,0.000000,13.513981,0,0,0,0,0,0,0
3,39999,19,30000,50,20000,40,9999,0.100000,0,0,0.000000,6,0.000000,0.000000,0.267674,0,0,0,0,0,0,0
3,39999,20,30000,44,0,49,9999,0.100000,0,0,0.000000,6,1.000000,0.000000,14.141012,0,0,0,0,0,0,0
3,39999,21,30000,36,20000,49,9999,0.100000,0,0,0.000000,6,2.000000,0.000000,10.851798,0,0,0,0,0,0,0
3,39999,22,30000,1,0,49,9999,0.100000,0,0,0.000000,6,1.000000,0.000000,1.554529,0,0,0,0,0,0,0
3,39999,23,30000,36,20000,40,9999,0.100000,0,0,0.000000,6,0.000000,0.000000,1.009165,0,0,0,0,0,0,0
3,39999,24,30000,50,10000,49,9999,0.100000,0,0,0.000000,6,7.000000,0.000000,17.012504,0,0,0,0,0,0,0
3,39999,25,30000,50,20000,49,9999,0.100000,0,0,0.000000,6,3.000000,0.000000,5.776235,0,0,0,0,0,0,0
3,39999,26,30000,1,0,49,9999,0.100000,0,0,0.000000,6,1.000000,0.000000,14.317787,0,0,0,0,0,0,0
3,39999,27,30000,15,10000,40,9999,0.100000,0,0,0.000000,6,0.000000,0.000000,5.484711,0,0,0,0,0,0,0
3,39999,28,30000,36,20000,40,9999,0.100000,0,0,0.000000,6,0.000000,0.000000,0.870936,0,0,0,0,0,0,0
3,39999,29,30000,1,10000,40,9999,0.100000,0,0,0.000000,6,0.000000,0.000000,1.466339,0,0,0,0,0,0,0
3,39999,30,30000,15,10000,40,9999,0.100000,0,0,0.000000,6,0.000000,0.000000,6.541432,0,0,0,0,0,0,0
3,39999,31,30000,44,0,40,9999,0.100000,0,0,0.000000,6,0.000000,0.000000,23.389199,0,0,0,0,0,0,0
3,39999,32,30000,50,20000,49,9999,0.100000,0,0,0.000000,6,2.000000,0.000000,10.197979,0,0,0,0,0,0,0
3,39999,33,30000,50,10000,49,9999,0.100000,0,0,0.000000,6,4.000000,0.000000,8.252825,0,0,0,0,0,0,0
3,39999,34,30000,1,0,49,9999,0.100000,0,0,0.000000,6,1.000000,0.000000,1.434914,0,0,0,0,0,0,0
3,39999,35,30000,50,10000,40,9999,0.100000,0,0,0.000000,6,0.000000,0.000000,0.191549,0,0,0,0,0,0,0
3,39999,36,30000,1,10000,49,9999,0.100000,0,0,0.000000,6,1.000000,0.000000,1.338624,0,0,0,0,0,0,0
3,39999,37,30000,36,20000,49,9999,0.100000,0,0,0.000000,6,1.000000,0.000000,10.668326,0,0,0,0,0,0,0
3,39999,38,30000,1,0,40,9999,0.100000,0,0,0.000000,6,0.000000,0.000000,4.400413,0,0,0,0,0,0,0
3,39999,39,30000,1,0,49,9999,0.100000,0,0,0.000000,6,1.000000,0.000000,5.444738,0,0,0,0,0,0,0
3,39999,40,30000,36,20000,49,9999,0.100000,0,0,0.000000,6,1.000000,0.000000,6.785173,0,0,0,0,0,0,0
3,39999,41,30000,15,10000,49,9999,0.100000,0,0,0.000000,6,2.000000,0.000000,7.336315,0,0,0,0,0,0,0
3,39999,42,30000,50,10000,49,9999,0.100000,0,0,0.000000,6,1.000000,0.000000,5.633369,0,0,0,0,0,0,0
3,39999,43,30000,1,0,49,9999,0.100000,0,0,0.000000,6,1.000000,0.000000,9.477213,0,0,0,0,0,0,0
3,39999,44,30000,1,10000,49,9999,0.100000,0,0,0.000000,6,2.000000,0.000000,6.048171,0,0,0,0,0,0,0
3,39999,45,30000,1,0,40,9999,0.100000,0,0,0.000000,6,0.000000,0.000000,0.129942,0,0,0,0,0,0,0
3,39999,46,30000,1,0,40,9999,0.100000,0,0,0.000000,6,0.000000,0.000000,0.480759,0,0,0,0,0,0,0
3,39999,47,30000,1,0,40,9999,0.100000,0,0,0.000000,6,0.000000,0.000000,0.565084,0,0,0,0,0,0,0
3,39999,48,30000,1,10000,40,9999,0.100000,0,0,0.000000,6,0.000000,0.000000,0.094333,0,0,0,0,0,0,0
3,39999,49,30000,1,0,40,9999,0.065000,0,0,0.000000,6,0.000000,0.000000,0.238254,0,0,0,0,0,0,0
3,39999,50,30000,1,0,40,9999,0.100000,0,0,0.000000,6,0.000000,0.000000,0.173344,0,0,0,0,0,0,0
3,39999,51,30000,36,20000,99,9999,0.100000,0,0,34.210526,6,2.000000,0.000000,8.583932,0,0,1,0,0,0,0
3,39999,52,30000,50,10000,49,9999,0.100000,0,0,0.000000,6,2.000000,0.000000,10.665825,0,0,0,0,0,0,0
3,39999,53,30000,1,0,40,9999,0.100000,0,0,0.000000,6,0.000000,0.000000,0.386049,0,0,0,0,0,0,0
3,39999,54,30000,44,0,49,9999,0.100000,0,0,0.000000,6,1.000000,0.000000,3.864833,0,0,0,0,0,0,0
3,39999,55,30000,44,0,49,9999,0.100000,0,0,0.000000,6,4.000000,0.000000,10.209028,0,0,0,0,0,0,0
3,39999,56,30000,1,0,49,9999,0.100000,0,0,0.000000,6,1.000000,0.000000,5.581439,0,0,0,0,0,0,0
3,39999,57,30000,44,0,49,9999,0.100000,0,0,0.000000,6,1.000000,0.000000,13.381937,0,0,0,0,0,0,0
3,39999,58,30000,44,0,49,9999,0.100000,0,0,0.000000,6,1.000000,0.000000,1.612251,0,0,0,0,0,0,0
3,39999,59,30000,44,0,40,9999,0.100000,0,0,0.000000,6,0.000000,0.000000,8.351543,0,0,0,0,0,0,0
3,39999,60,30000,50,20000,49,9999,0.100000,0,0,0.000000,6,4.000000,0.000000,11.483550,0,0,0,0,0,0,0
3,39999,61,30000,1,0,40,9999,0.100000,0,0,0.000000,6,0.000000,0.000000,14.523110,0,0,0,0,0,0,0
3,39999,62,30000,44,0,49,9999,0.100000,0,0,0.000000,6,1.000000,0.000000,5.697424,0,0,0,0,0,0,0
3,39999,63,30000,44,0,49,9999,0.100000,0,0,0.000000,6,1.000000,0.000000,1.771598,0,0,0,0,0,0,0
3,39999,64,30000,1,10000,9,9999,0.100000,0,0,34.210526,6,3.000000,0.000000,9.708288,0,0,0,1,0,0,0
3,39999,65,30000,1,10000,40,9999,0.100000,0,0,0.000000,6,0.000000,0.000000,0.244501,0,0,0,0,0,0,0
3,39999,66,30000,36,20000,9,9999,0.100000,0,0,34.210526,6,3.000000,0.000000,13.834974,0,0,0,0,1,0,0
3,39999,67,30000,1,10000,49,9999,0.100000,0,0,0.000000,6,1.000000,0.000000,6.834663,0,0,0,0,0,0,0
3,39999,68,30000,36,20000,40,9999,0.100000,0,0,0.000000,6,0.000000,0.000000,0.150237,0,0,0,0,0,0,0
3,39999,69,30000,44,0,49,9999,0.100000,0,0,0.000000,6,2.000000,0.000000,9.351772,0,0,0,0,0,0,0
3,39999,70,30000,1,10000,49,9999,0.100000,0,0,0.000000,6,2.000000,0.000000,7.640845,0,0,0,0,0,0,0
3,39999,71,30000,50,20000,40,9999,0.100000,0,0,0.000000,6,0.000000,0.000000,7.826535,0,0,0,0,0,0,0
3,39999,72,30000,50,20000,40,9999,0.100000,0,0,0.000000,6,0.000000,0.000000,1.028387,0,0,0,0,0,0,0
3,39999,73,30000,1,0,49,9999,0.100000,0,0,0.000000,6,1.000000,0.000000,1.396147,0,0,0,0,0,0,0
3,39999,74,30000,1,0,40,9999,0.100000,0,0,0.000000,6,0.000000,0.000000,3.675801,0,0,0,0,0,0,0
3,39999,75,30000,36,20000,40,9999,0.100000,0,0,0.000000,6,0.000000,0.000000,10.325492,0,0,0,0,0,0,0
3,39999,76,30000,1,10000,49,9999,0.100000,0,0,0.000000,6,1.000000,0.000000,21.658690,0,0,0,0,0,0,0
3,39999,77,30000,1,0,9,9999,0.100000,0,0,34.210526,6,3.000000,0.000000,8.692010,0,0,0,0,1,0,0
3,39999,78,30000,1,10000,40,9999,0.100000,0,0,0.000000,6,0.000000,0.000000,0.127149,0,0,0,0,0,0,0
3,39999,79,30000,44,0,40,9999,0.100000,0,0,0.000000,6,0.000000,0.000000,0.205896,0,0,0,0,0,0,0
3,39999,80,30000,36,20000,40,9999,0.100000,0,0,0.000000,6,0.000000,0.000000,0.271512,0,0,0,0,0,0,0
3,39999,81,30000,50,20000,49,9999,0.100000,0,0,0.000000,6,1.000000,0.000000,6.373240,0,0,0,0,0,0,0
3,39999,82,30000,50,20000,99,9999,0.100000,0,0,34.210526,6,3.000000,0.000000,13.513049,0,0,1,0,0,0,0
3,39999,83,30000,1,0,49,9999,0.100000,0,0,0.000000,6,1.000000,0.000000,16.466975,0,0,0,0,0,0,0
3,39999,84,30000,1,10000,40,9999,0.100000,0,0,0.000000,6,0.000000,0.000000,0.248199,0,0,0,0,0,0,0
3,39999,85,30000,50,20000,49,9999,0.100000,0,0,0.000000,6,1.000000,0.000000,2.034705,0,0,0,0,0,0,0
3,39999,86,30000,50,20000,40,9999,0.100000,0,0,0.000000,6,0.000000,0.000000,0.559303,0,0,0,0,0,0,0
3,39999,87,30000,44,0,9,9999,0.100000,0,0,34.210526,6,12.000000,0.000000,14.885839,0,0,0,1,0,0,0
3,39999,88,30000,15,10000,9,9999,0.100000,0,0,34.210526,6,12.000000,0.000000,16.227073,0,0,0,1,0,0,0
3,39999,89,30000,15,10000,49,9999,0.100000,0,0,0.000000,6,1.000000,0.000000,6.417317,0,0,0,0,0,0,0
3,39999,90,30000,44,0,49,9999,0.100000,0,0,0.000000,6,2.000000,0.000000,4.629591,0,0,0,0,0,0,0
3,39999,91,30000,1,0,40,9999,0.100000,0,0,0.000000,6,0.000000,0.000000,0.206137,0,0,0,0,0,0,0
3,39999,92,30000,44,0,49,9999,0.100000,0,0,0.000000,6,3.000000,0.000000,10.512764,0,0,0,0,0,0,0
3,39999,93,30000,50,20000,40,9999,0.100000,0,0,0.000000,6,0.000000,0.000000,0.227086,0,0,0,0,0,0,0
3,39999,94,30000,15,10000,49,9999,0.100000,0,0,0.000000,6,1.000000,0.000000,2.165350,0,0,0,0,0,0,0
3,39999,95,30000,1,10000,49,9999,0.100000,0,0,0.000000,6,3.000000,0.000000,7.955704,0,0,0,0,0,0,0
3,39999,96,30000,50,20000,40,9999,0.100000,0,0,0.000000,6,0.000000,0.000000,0.177006,0,0,0,0,0,0,0
3,39999,97,30000,15,10000,40,9999,0.065000,0,0,0.000000,6,0.000000,0.000000,5.840054,0,0,0,0,0,0,0
3,39999,98,30000,1,0,40,9999,0.100000,0,0,0.000000,6,0.000000,0.000000,6.222092,0,0,0,0,0,0,0
3,39999,99,30000,1,10000,99,9999,0.100000,0,0,34.210526,6,6.000000,0.000000,13.230444,0,0,1,0,0,0,0
4,49999,0,40000,1,10000,9,9999,0.100000,0,0,34.210526,6,3.000000,0.000000,13.719715,0,0,0,1,0,0,0
4,49999,1,40000,44,0,49,9999,0.100000,0,0,0.000000,6,3.000000,0.000000,14.725133,0,0,0,0,0,0,0
4,49999,2,40000,36,20000,40,9999,0.100000,0,0,0.000000,6,0.000000,0.000000,6.273015,0,0,0,0,0,0,0
4,49999,3,40000,22,30000,49,9999,0.100000,0,0,0.000000,6,1.000000,0.000000,7.951155,0,0,0,0,0,0,0
4,49999,4,40000,15,10000,40,9999,0.100000,0,0,0.000000,6,0.000000,0.000000,0.069948,0,0,0,0,0,0,0
4,49999,5,40000,44,0,49,9999,0.100000,0,0,0.000000,6,3.000000,0.000000,3.707403,0,0,0,0,0,0,0
4,49999,6,40000,44,0,40,9999,0.100000,0,0,0.000000,6,0.000000,0.000000,1.763380,0,0,0,0,0,0,0
4,49999,7,40000,22,30000,40,9999,0.100000,0,0,0.000000,6,0.000000,0.000000,1.561167,0,0,0,0,0,0,0
4,49999,8,40000,22,30000,40,9999,0.100000,0,0,0.000000,6,0.000000,0.000000,1.596104,0,0,0,0,0,0,0
4,49999,9,40000,1,10000,49,9999,0.100000,0,0,0.000000,6,3.000000,0.000000,9.868387,0,0,0,0,0,0,0
4,49999,10,40000,50,20000,40,9999,0.100000,0,0,0.000000,6,0.000000,0.000000,0.081074,0,0,0,0,0,0,0
4,49999,11,40000,15,10000,49,9999,0.100000,0,0,0.000000,6,3.000000,0.000000,3.628682,0,0,0,0,0,0,0
4,49999,12,40000,1,10000,40,9999,0.100000,0,0,0.000000,6,0.000000,0.000000,6.992929,0,0,0,0,0,0,0
4,49999,13,40000,15,10000,40,9999,0.100000,0,0,0.000000,6,0.000000,0.000000,18.653345,0,0,0,0,0,0,0
4,49999,14,40000,50,20000,40,9999,0.100000,0,0,0.000000,6,0.000000,0.000000,5.265543,0,0,0,0,0,0,0
4,49999,15,40000,1,0,49,9999,0.100000,0,0,0.000000,6,1.000000,0.000000,3.140614,0,0,0,0,0,0,0
4,49999,16,40000,36,20000,40,9999,0.100000,0,0,0.000000,6,0.000000,0.000000,0.137107,0,0,0,0,0,0,0
4,49999,17,40000,44,0,40,9999,0.100000,0,0,0.000000,6,0.000000,0.000000,7.132376,0,0,0,0,0,0,0
4,49999,18,40000,15,10000,49,9999,0.100000,0,0,0.000000,6,1.000000,0.000000,12.162309,0,0,0,0,0,0,0
4,49999,19,40000,15,10000,40,9999,0.100000,0,0,0.000000,6,0.000000,0.000000,0.264408,0,0,0,0,0,0,0
4,49999,20,40000,50,20000,9,9999,0.100000,0,0,34.210526,6,3.000000,0.000000,17.220979,0,0,0,1,0,0,0
4,49999,21,40000,1,10000,49,9999,0.100000,0,0,0.000000,6,1.000000,0.000000,4.769782,0,0,0,0,0,0,0
4,49999,22,40000,15,10000,40,9999,0.100000,0,0,0.000000,6,0.000000,0.000000,0.359292,0,0,0,0,0,0,0
4,49999,23,40000,1,10000,40,9999,0.100000,0,0,0.000000,6,0.000000,0.000000,0.330508,0,0,0,0,0,0,0
4,49999,24,40000,22,30000,49,9999,0.100000,0,0,0.000000,6,2.000000,0.000000,9.932223,0,0,0,0,0,0,0
4,49999,25,40000,15,10000,40,9999,0.100000,0,0,0.000000,6,0.000000,0.000000,0.763050,0,0,0,0,0,0,0
4,49999,26,40000,44,0,49,9999,0.100000,0,0,0.000000,6,2.000000,0.000000,13.289397,0,0,0,0,0,0,0
4,49999,27,40000,44,0,49,9999,0.100000,0,0,0.000000,6,3.000000,0.000000,12.965316,0,0,0,0,0,0,0
4,49999,28,40000,44,0,40,9999,0.100000,0,0,0.000000,6,0.000000,0.000000,0.657241,0,0,0,0,0,0,0
4,49999,29,40000,15,10000,40,9999,0.100000,0,0,0.000000,6,0.000000,0.000000,2.167848,0,0,0,0,0,0,0
4,49999,30,40000,44,0,49,9999,0.100000,0,0,0.000000,6,1.000000,0.000000,8.012063,0,0,0,0,0,0,0
4,49999,31,40000,1,0,40,9999,0.100000,0,0,0.000000,6,0.000000,0.000000,23.457128,0,0,0,0,0,0,0
4,49999,32,40000,1,0,40,9999,0.100000,0,0,0.000000,6,0.000000,0.000000,1.317234,0,0,0,0,0,0,0
4,49999,33,40000,1,10000,40,9999,0.100000,0,0,0.000000,6,0.000000,0.000000,2.734370,0,0,0,0,0,0,0
4,49999,34,40000,15,10000,49,9999,0.100000,0,0,0.000000,6,1.000000,0.000000,1.215622,0,0,0,0,0,0,0
4,49999,35,40000,1,0,40,9999,0.100000,0,0,0.000000,6,0.000000,0.000000,0.191872,0,0,0,0,0,0,0
4,49999,36,40000,15,10000,40,9999,0.100000,0,0,0.000000,6,0.000000,0.000000,0.475056,0,0,0,0,0,0,0
4,49999,37,40000,1,0,49,9999,0.100000,0,0,0.000000,6,2.000000,0.000000,5.473324,0,0,0,0,0,0,0
4,49999,38,40000,36,20000,40,9999,0.100000,0,0,0.000000,6,0.000000,0.000000,4.741034,0,0,0,0,0,0,0
4,49999,39,40000,15,10000,40,9999,0.100000,0,0,0.000000,6,0.000000,0.000000,2.830031,0,0,0,0,0,0,0
4,49999,40,40000,44,0,49,9999,0.100000,0,0,0.000000,6,1.000000,0.000000,5.860120,0,0,0,0,0,0,0
4,49999,41,40000,1,0,40,9999,0.100000,0,0,0.000000,6,0.000000,0.000000,4.375261,0,0,0,0,0,0,0
4,49999,42,40000,15,10000,49,9999,0.100000,0,0,0.000000,6,1.000000,0.000000,8.138393,0,0,0,0,0,0,0
4,49999,43,40000,44,0,49,9999,0.100000,0,0,0.000000,6,4.000000,0.000000,11.782083,0,0,0,0,0,0,0
4,49999,44,40000,15,10000,49,9999,0.100000,0,0,0.000000,6,1.000000,0.000000,4.755608,0,0,0,0,0,0,0
4,49999,45,40000,15,10000,40,9999,0.100000,0,0,0.000000,6,0.000000,0.000000,0.148619,0,0,0,0,0,0,0
4,49999,46,40000,1,0,40,9999,0.100000,0,0,0.000000,6,0.000000,0.000000,0.586700,0,0,0,0,0,0,0
4,49999,47,40000,1,0,49,9999,0.100000,0,0,0.000000,6,1.000000,0.000000,1.343868,0,0,0,0,0,0,0
4,49999,48,40000,50,20000,40,9999,0.100000,0,0,0.000000,6,0.000000,0.000000,0.095198,0,0,0,0,0,0,0
4,49999,49,40000,1,0,40,9999,0.100000,0,0,0.000000,6,0.000000,0.000000,0.232672,0,0,0,0,0,0,0
4,49999,50,40000,1,0,40,9999,0.100000,0,0,0.000000,6,0.000000,0.000000,0.172320,0,0,0,0,0,0,0
4,49999,51,40000,15,10000,49,9999,0.100000,0,0,0.000000,6,1.000000,0.000000,5.474807,0,0,0,0,0,0,0
4,49999,52,40000,50,20000,49,9999,0.100000,0,0,0.000000,6,4.000000,0.000000,12.827773,0,0,0,0,0,0,0
4,49999,53,40000,22,30000,40,9999,0.100000,0,0,0.000000,6,0.000000,0.000000,0.794997,0,0,0,0,0,0,0
4,49999,54,40000,50,20000,40,9999,0.100000,0,0,0.000000,6,0.000000,0.000000,1.575809,0,0,0,0,0,0,0
4,49999,55,40000,15,10000,49,9999,0.100000,0,0,0.000000,6,1.000000,0.000000,6.713519,0,0,0,0,0,0,0
4,49999,56,40000,44,0,49,9999,0.065000,0,0,0.000000,6,5.000000,0.000000,13.877678,0,0,0,0,0,0,0
4,49999,57,40000,1,0,49,9999,0.100000,0,0,0.000000,6,2.000000,0.000000,8.453407,0,0,0,0,0,0,0
4,49999,58,40000,44,0,49,9999,0.100000,0,0,0.000000,6,1.000000,0.000000,1.881221,0,0,0,0,0,0,0
4,49999,59,40000,50,20000,40,9999,0.100000,0,0,0.000000,6,0.000000,0.000000,8.132609,0,0,0,0,0,0,0
4,49999,60,40000,44,0,49,9999,0.100000,0,0,0.000000,6,3.000000,0.000000,9.988725,0,0,0,0,0,0,0
4,49999,61,40000,50,20000,49,9999,0.100000,0,0,0.000000,6,1.000000,0.000000,16.468211,0,0,0,0,0,0,0
4,49999,62,40000,22,30000,40,9999,0.100000,0,0,0.000000,6,0.000000,0.000000,8.620949,0,0,0,0,0,0,0
4,49999,63,40000,22,30000,49,9999,0.100000,0,0,0.000000,6,3.000000,0.000000,3.554973,0,0,0,0,0,0,0
4,49999,64,40000,50,20000,49,9999,0.100000,0,0,0.000000,6,4.000000,0.000000,12.479224,0,0,0,0,0,0,0
4,49999,65,40000,1,10000,40,9999,0.100000,0,0,0.000000,6,0.000000,0.000000,0.246087,0,0,0,0,0,0,0
4,49999,66,40000,22,30000,49,9999,0.100000,0,0,0.000000,6,1.000000,0.000000,6.262838,0,0,0,0,0,0,0
4,49999,67,40000,50,20000,49,9999,0.100000,0,0,0.000000,6,3.000000,0.000000,6.058285,0,0,0,0,0,0,0
4,49999,68,40000,50,20000,40,9999,0.100000,0,0,0.000000,6,0.000000,0.000000,0.147831,0,0,0,0,0,0,0
4,49999,69,40000,22,30000,49,9999,0.100000,0,0,0.000000,6,1.000000,0.000000,6.711757,0,0,0,0,0,0,0
4,49999,70,40000,44,0,49,9999,0.100000,0,0,0.000000,6,2.000000,0.000000,10.115120,0,0,0,0,0,0,0
4,49999,71,40000,1,10000,49,9999,0.100000,0,0,0.000000,6,1.000000,0.000000,7.170439,0,0,0,0,0,0,0
4,49999,72,40000,44,0,40,9999,0.100000,0,0,0.000000,6,0.000000,0.000000,1.003766,0,0,0,0,0,0,0
4,49999,73,40000,15,10000,49,9999,0.100000,0,0,0.000000,6,1.000000,0.000000,1.256438,0,0,0,0,0,0,0
4,49999,74,40000,15,10000,49,9999,0.100000,0,0,0.000000,6,1.000000,0.000000,4.476414,0,0,0,0,0,0,0
4,49999,75,40000,15,10000,49,9999,0.100000,0,0,0.000000,6,3.000000,0.000000,9.856387,0,0,0,0,0,0,0
4,49999,76,40000,22,30000,49,9999,0.100000,0,0,0.000000,6,1.000000,0.000000,4.813569,0,0,0,0,0,0,0
4,49999,77,40000,50,20000,49,9999,0.100000,0,0,0.000000,6,2.000000,0.000000,3.991066,0,0,0,0,0,0,0
4,49999,78,40000,36,20000,40,9999,0.100000,0,0,0.000000,6,0.000000,0.000000,0.128805,0,0,0,0,0,0,0
4,49999,79,40000,22,30000,40,9999,0.100000,0,0,0.000000,6,0.000000,0.000000,1.620872,0,0,0,0,0,0,0
4,49999,80,40000,44,0,40,9999,0.100000,0,0,0.000000,6,0.000000,0.000000,0.265786,0,0,0,0,0,0,0
4,49999,81,40000,1,0,49,9999,0.100000,0,0,0.000000,6,1.000000,0.000000,7.369555,0,0,0,0,0,0,0
4,49999,82,40000,50,20000,49,9999,0.100000,0,0,0.000000,6,1.000000,0.000000,7.857476,0,0,0,0,0,0,0
4,49999,83,40000,50,20000,49,9999,0.100000,0,0,0.000000,6,3.000000,0.000000,8.322233,0,0,0,0,0,0,0
4,49999,84,40000,1,0,40,9999,0.100000,0,0,0.000000,6,0.000000,0.000000,0.269260,0,0,0,0,0,0,0
4,49999,85,40000,1,0,49,9999,0.100000,0,0,0.000000,6,1.000000,0.000000,1.325215,0,0,0,0,0,0,0
4,49999,86,40000,50,20000,40,9999,0.100000,0,0,0.000000,6,0.000000,0.000000,0.552280,0,0,0,0,0,0,0
4,49999,87,40000,50,20000,49,9999,0.100000,0,0,0.000000,6,3.000000,0.000000,15.969496,0,0,0,0,0,0,0
4,49999,88,40000,50,20000,49,9999,0.100000,0,0,0.000000,6,5.000000,0.000000,8.864264,0,0,0,0,0,0,0
4,49999,89,40000,50,20000,49,9999,0.100000,0,0,0.000000,6,1.000000,0.000000,11.927340,0,0,0,0,0,0,0
4,49999,90,40000,15,10000,40,9999,0.100000,0,0,0.000000,6,0.000000,0.000000,2.996138,0,0,0,0,0,0,0
4,49999,91,40000,22,30000,40,9999,0.100000,0,0,0.000000,6,0.000000,0.000000,0.212408,0,0,0,0,0,0,0
4,49999,92,40000,50,20000,49,9999,0.100000,0,0,0.000000,6,2.000000,0.000000,13.843544,0,0,0,0,0,0,0
4,49999,93,40000,15,10000,40,9999,0.100000,0,0,0.000000,6,0.000000,0.000000,0.220891,0,0,0,0,0,0,0
4,49999,94,40000,1,0,49,9999,0.100000,0,0,0.000000,6,4.000000,0.000000,4.822760,0,0,0,0,0,0,0
4,49999,95,40000,22,30000,49,9999,0.100000,0,0,0.000000,6,2.000000,0.000000,11.405623,0,0,0,0,0,0,0
4,49999,96,40000,1,0,40,9999,0.100000,0,0,0.000000,6,0.000000,0.000000,0.179776,0,0,0,0,0,0,0
4,49999,97,40000,22,30000,40,9999,0.100000,0,0,0.000000,6,0.000000,0.000000,5.888914,0,0,0,0,0,0,0
4,49999,98,40000,1,10000,49,9999,0.100000,0,0,0.000000,6,1.000000,0.000000,8.950676,0,0,0,0,0,0,0
4,49999,99,40000,44,0,49,9999,0.100000,0,0,0.000000,6,2.000000,0.000000,15.452637,0,0,0,0,0,0,0
5,59999,0,50000,1,0,49,9999,0.100000,0,0,0.000000,6,3.000000,0.000000,6.442431,0,0,0,0,0,0,0
5,59999,1,50000,15,10000,49,9999,0.100000,0,0,0.000000,6,1.000000,0.000000,4.557894,0,0,0,0,0,0,0
5,59999,2,50000,22,30000,49,9999,0.100000,0,0,0.000000,6,1.000000,0.000000,8.327614,0,0,0,0,0,0,0
5,59999,3,50000,15,10000,40,9999,0.100000,0,0,0.000000,6,0.000000,0.000000,4.148267,0,0,0,0,0,0,0
5,59999,4,50000,50,20000,40,9999,0.100000,0,0,0.000000,6,0.000000,0.000000,0.067002,0,0,0,0,0,0,0
5,59999,5,50000,15,10000,49,9999,0.100000,0,0,0.000000,6,3.000000,0.000000,3.729604,0,0,0,0,0,0,0
5,59999,6,50000,22,30000,49,9999,0.100000,0,0,0.000000,6,1.000000,0.000000,3.743352,0,0,0,0,0,0,0
5,59999,7,50000,22,30000,40,9999,0.100000,0,0,0.000000,6,0.000000,0.000000,0.364802,0,0,0,0,0,0,0
5,59999,8,50000,44,0,40,9999,0.100000,0,0,0.000000,6,0.000000,0.000000,1.657936,0,0,0,0,0,0,0
5,59999,9,50000,1,10000,49,9999,0.100000,0,0,0.000000,6,1.000000,0.000000,5.428654,0,0,0,0,0,0,0
5,59999,10,50000,22,30000,40,9999,0.100000,0,0,0.000000,6,0.000000,0.000000,0.081364,0,0,0,0,0,0,0
5,59999,11,50000,22,30000,49,9999,0.100000,0,0,0.000000,6,3.000000,0.000000,3.696213,0,0,0,0,0,0,0
5,59999,12,50000,50,20000,49,9999,0.100000,0,0,0.000000,6,3.000000,0.000000,11.171799,0,0,0,0,0,0,0
5,59999,13,50000,1,10000,40,9999,0.100000,0,0,0.000000,6,0.000000,0.000000,17.750114,0,0,0,0,0,0,0
5,59999,14,50000,1,10000,49,9999,0.100000,0,0,0.000000,6,2.000000,0.000000,5.556851,0,0,0,0,0,0,0
5,59999,15,50000,1,10000,49,9999,0.100000,0,0,0.000000,6,1.000000,0.000000,4.442131,0,0,0,0,0,0,0
5,59999,16,50000,1,10000,40,9999,0.100000,0,0,0.000000,6,0.000000,0.000000,0.119983,0,0,0,0,0,0,0
5,59999,17,50000,15,10000,49,9999,0.100000,0,0,0.000000,6,1.000000,0.000000,7.296128,0,0,0,0,0,0,0
5,59999,18,50000,15,10000,49,9999,0.065000,0,0,0.000000,6,1.000000,0.000000,9.734856,0,0,0,0,0,0,0
5,59999,19,50000,1,10000,40,9999,0.100000,0,0,0.000000,6,0.000000,0.000000,0.266141,0,0,0,0,0,0,0
5,59999,20,50000,44,0,49,9999,0.100000,0,0,0.000000,6,2.000000,0.000000,17.019537,0,0,0,0,0,0,0
5,59999,21,50000,22,30000,40,9999,0.100000,0,0,0.000000,6,0.000000,0.000000,4.098999,0,0,0,0,0,0,0
5,59999,22,50000,1,0,40,9999,0.100000,0,0,0.000000,6,0.000000,0.000000,0.836672,0,0,0,0,0,0,0
5,59999,23,50000,44,0,40,9999,0.100000,0,0,0.000000,6,0.000000,0.000000,0.302341,0,0,0,0,0,0,0
5,59999,24,50000,1,10000,49,9999,0.100000,0,0,0.000000,6,2.000000,0.000000,11.304688,0,0,0,0,0,0,0
5,59999,25,50000,44,0,40,9999,0.100000,0,0,0.000000,6,0.000000,0.000000,0.721289,0,0,0,0,0,0,0
5,59999,26,50000,1,0,49,9999,0.100000,0,0,0.000000,6,2.000000,0.000000,9.174732,0,0,0,0,0,0,0
5,59999,27,50000,44,0,49,9999,0.100000,0,0,0.000000,6,1.000000,0.000000,7.157801,0,0,0,0,0,0,0
5,59999,28,50000,44,0,40,9999,0.100000,0,0,0.000000,6,0.000000,0.000000,0.665410,0,0,0,0,0,0,0
5,59999,29,50000,1,10000,40,9999,0.100000,0,0,0.000000,6,0.000000,0.000000,2.187275,0,0,0,0,0,0,0
5,59999,30,50000,50,20000,49,9999,0.100000,0,0,0.000000,6,1.000000,0.000000,13.029191,0,0,0,0,0,0,0
5,59999,31,50000,1,0,40,9999,0.100000,0,0,0.000000,6,0.000000,0.000000,23.354227,0,0,0,0,0,0,0
5,59999,32,50000,44,0,40,9999,0.100000,0,0,0.000000,6,0.000000,0.000000,15.191046,0,0,0,0,0,0,0
5,59999,33,50000,1,0,49,9999,0.100000,0,0,0.000000,6,2.000000,0.000000,7.279029,0,0,0,0,0,0,0
5,59999,34,50000,1,0,49,9999,0.100000,0,0,0.000000,6,3.000000,0.000000,6.659668,0,0,0,0,0,0,0
5,59999,35,50000,22,30000,40,9999,0.100000,0,0,0.000000,6,0.000000,0.000000,0.191267,0,0,0,0,0,0,0
5,59999,36,50000,44,0,40,9999,0.100000,0,0,0.000000,6,0.000000,0.000000,0.779083,0,0,0,0,0,0,0
5,59999,37,50000,22,30000,49,9999,0.100000,0,0,0.000000,6,2.000000,0.000000,6.915095,0,0,0,0,0,0,0
5,59999,38,50000,1,0,40,9999,0.100000,0,0,0.000000,6,0.000000,0.000000,4.901155,0,0,0,0,0,0,0
5,59999,39,50000,50,20000,49,9999,0.100000,0,0,0.000000,6,1.000000,0.000000,3.082915,0,0,0,0,0,0,0
5,59999,40,50000,1,0,49,9999,0.100000,0,0,0.000000,6,1.000000,0.000000,7.693762,0,0,0,0,0,0,0
5,59999,41,50000,1,10000,49,9999,0.100000,0,0,0.000000,6,1.000000,0.000000,6.576297,0,0,0,0,0,0,0
5,59999,42,50000,22,30000,49,9999,0.100000,0,0,0.000000,6,1.000000,0.000000,7.430863,0,0,0,0,0,0,0
5,59999,43,50000,22,30000,49,9999,0.100000,0,0,0.000000,6,1.000000,0.000000,11.677037,0,0,0,0,0,0,0
5,59999,44,50000,1,10000,49,9999,0.100000,0,0,0.000000,6,2.000000,0.000000,6.261763,0,0,0,0,0,0,0
5,59999,45,50000,50,20000,40,9999,0.100000,0,0,0.000000,6,0.000000,0.000000,0.145152,0,0,0,0,0,0,0
5,59999,46,50000,44,0,40,9999,0.100000,0,0,0.000000,6,0.000000,0.000000,0.431141,0,0,0,0,0,0,0
5,59999,47,50000,44,0,40,9999,0.100000,0,0,0.000000,6,0.000000,0.000000,0.291574,0,0,0,0,0,0,0
5,59999,48,50000,22,30000,40,9999,0.100000,0,0,0.000000,6,0.000000,0.000000,0.097039,0,0,0,0,0,0,0
5,59999,49,50000,1,0,40,9999,0.100000,0,0,0.000000,6,0.000000,0.000000,0.238662,0,0,0,0,0,0,0
5,59999,50,50000,15,10000,40,9999,0.100000,0,0,0.000000,6,0.000000,0.000000,0.180305,0,0,0,0,0,0,0
5,59999,51,50000,22,30000,49,9999,0.100000,0,0,0.000000,6,3.000000,0.000000,9.043162,0,0,0,0,0,0,0
5,59999,52,50000,1,10000,49,9999,0.100000,0,0,0.000000,6,2.000000,0.000000,10.398287,0,0,0,0,0,0,0
5,59999,53,50000,44,0,40,9999,0.100000,0,0,0.000000,6,0.000000,0.000000,0.230237,0,0,0,0,0,0,0
5,59999,54,50000,15,10000,40,9999,0.100000,0,0,0.000000,6,0.000000,0.000000,0.831555,0,0,0,0,0,0,0
5,59999,55,50000,1,0,40,9999,0.100000,0,0,0.000000,6,0.000000,0.000000,7.096233,0,0,0,0,0,0,0
5,59999,56,50000,1,0,49,9999,0.100000,0,0,0.000000,6,5.000000,0.000000,10.644858,0,0,0,0,0,0,0
5,59999,57,50000,22,30000,40,9999,0.100000,0,0,0.000000,6,0.000000,0.000000,6.167127,0,0,0,0,0,0,0
5,59999,58,50000,1,10000,40,9999,0.100000,0,0,0.000000,6,0.000000,0.000000,2.206176,0,0,0,0,0,0,0
5,59999,59,50000,15,10000,49,9999,0.100000,0,0,0.000000,6,2.000000,0.000000,9.266488,0,0,0,0,0,0,0
5,59999,60,50000,1,0,49,9999,0.100000,0,0,0.000000,6,3.000000,0.000000,17.292488,0,0,0,0,0,0,0
5,59999,61,50000,1,10000,40,9999,0.100000,0,0,0.000000,6,0.000000,0.000000,15.557079,0,0,0,0,0,0,0
5,59999,62,50000,22,30000,40,9999,0.100000,0,0,0.000000,6,0.000000,0.000000,6.099328,0,0,0,0,0,0,0
5,59999,63,50000,1,10000,49,9999,0.100000,0,0,0.000000,6,3.000000,0.000000,3.740549,0,0,0,0,0,0,0
5,59999,64,50000,1,0,49,9999,0.100000,0,0,0.000000,6,4.000000,0.000000,9.091619,0,0,0,0,0,0,0
5,59999,65,50000,44,0,40,9999,0.100000,0,0,0.000000,6,0.000000,0.000000,0.250599,0,0,0,0,0,0,0
5,59999,66,50000,1,10000,99,9999,0.100000,0,0,34.210526,6,2.000000,0.000000,14.952821,0,0,1,0,0,0,0
5,59999,67,50000,22,30000,40,9999,0.100000,0,0,0.000000,6,0.000000,0.000000,4.201133,0,0,0,0,0,0,0
5,59999,68,50000,44,0,40,9999,0.100000,0,0,0.000000,6,0.000000,0.000000,0.144674,0,0,0,0,0,0,0
5,59999,69,50000,50,20000,49,9999,0.100000,0,0,0.000000,6,1.000000,0.000000,7.082897,0,0,0,0,0,0,0
5,59999,70,50000,15,10000,49,9999,0.100000,0,0,0.000000,6,1.000000,0.000000,8.269759,0,0,0,0,0,0,0
5,59999,71,50000,50,20000,49,9999,0.100000,0,0,0.000000,6,1.000000,0.000000,8.434266,0,0,0,0,0,0,0
5,59999,72,50000,1,10000,40,9999,0.100000,0,0,0.000000,6,0.000000,0.000000,0.647088,0,0,0,0,0,0,0
5,59999,73,50000,1,0,40,9999,0.100000,0,0,0.000000,6,0.000000,0.000000,0.434542,0,0,0,0,0,0,0
5,59999,74,50000,50,20000,49,9999,0.100000,0,0,0.000000,6,1.000000,0.000000,4.312399,0,0,0,0,0,0,0
5,59999,75,50000,1,0,40,9999,0.100000,0,0,0.000000,6,0.000000,0.000000,7.310405,0,0,0,0,0,0,0
5,59999,76,50000,22,30000,40,9999,0.100000,0,0,0.000000,6,0.000000,0.000000,0.925760,0,0,0,0,0,0,0
5,59999,77,50000,50,20000,40,9999,0.100000,0,0,0.000000,6,0.000000,0.000000,0.890363,0,0,0,0,0,0,0
5,59999,78,50000,1,0,40,9999,0.100000,0,0,0.000000,6,0.000000,0.000000,0.278018,0,0,0,0,0,0,0
5,59999,79,50000,50,20000,40,9999,0.100000,0,0,0.000000,6,0.000000,0.000000,2.170048,0,0,0,0,0,0,0
5,59999,80,50000,22,30000,40,9999,0.100000,0,0,0.000000,6,0.000000,0.000000,0.268889,0,0,0,0,0,0,0
5,59999,81,50000,50,20000,49,9999,0.100000,0,0,0.000000,6,1.000000,0.000000,9.766112,0,0,0,0,0,0,0
5,59999,82,50000,22,30000,49,9999,0.100000,0,0,0.000000,6,2.000000,0.000000,10.308423,0,0,0,0,0,0,0
5,59999,83,50000,15,10000,49,9999,0.100000,0,0,0.000000,6,3.000000,0.000000,4.223944,0,0,0,0,0,0,0
5,59999,84,50000,1,10000,40,9999,0.100000,0,0,0.000000,6,0.000000,0.000000,0.268148,0,0,0,0,0,0,0
5,59999,85,50000,50,20000,49,9999,0.100000,0,0,0.000000,6,3.000000,0.000000,5.799472,0,0,0,0,0,0,0
5,59999,86,50000,1,10000,40,9999,0.100000,0,0,0.000000,6,0.000000,0.000000,0.609027,0,0,0,0,0,0,0
5,59999,87,50000,15,10000,49,9999,0.100000,0,0,0.000000,6,1.000000,0.000000,9.769758,0,0,0,0,0,0,0
5,59999,88,50000,1,0,49,9999,0.100000,0,0,0.000000,6,1.000000,0.000000,16.267636,0,0,0,0,0,0,0
5,59999,89,50000,1,0,49,9999,0.100000,0,0,0.000000,6,3.000000,0.000000,10.188765,0,0,0,0,0,0,0
5,59999,90,50000,44,0,49,9999,0.100000,0,0,0.000000,6,4.000000,0.000000,8.615231,0,0,0,0,0,0,0
5,59999,91,50000,50,20000,40,9999,0.100000,0,0,0.000000,6,0.000000,0.000000,0.206737,0,0,0,0,0,0,0
5,59999,92,50000,1,0,40,9999,0.100000,0,0,0.000000,6,0.000000,0.000000,10.758157,0,0,0,0,0,0,0
5,59999,93,50000,44,0,40,9999,0.100000,0,0,0.000000,6,0.000000,0.000000,0.226836,0,0,0,0,0,0,0
5,59999,94,50000,50,20000,99,9999,0.100000,0,0,0.000000,6,3.000000,0.000000,6.734132,0,0,1,0,0,0,0
5,59999,95,50000,44,0,49,9999,0.100000,0,0,0.000000,6,3.000000,0.000000,15.245529,0,0,0,0,0,0,0
5,59999,96,50000,44,0,40,9999,0.100000,0,0,0.000000,6,0.000000,0.000000,0.183465,0,0,0,0,0,0,0
5,59999,97,50000,1,0,40,9999,0.100000,0,0,0.000000,6,0.000000,0.000000,5.913452,0,0,0,0,0,0,0
5,59999,98,50000,1,10000,49,9999,0.100000,0,0,0.000000,6,1.000000,0.000000,4.727636,0,0,0,0,0,0,0
5,59999,99,50000,15,10000,49,9999,0.100000,0,0,0.000000,6,1.000000,0.000000,9.469701,0,0,0,0,0,0,0
6,69999,0,60000,22,30000,49,9999,0.100000,0,0,0.000000,6,1.000000,0.000000,6.532079,0,0,0,0,0,0,0
6,69999,1,60000,15,10000,99,9999,0.100000,0,0,34.210526,6,5.000000,0.000000,12.753573,0,0,1,0,0,0,0
6,69999,2,60000,1,10000,49,9999,0.100000,0,0,0.000000,6,2.000000,0.000000,9.449197,0,0,0,0,0,0,0
6,69999,3,60000,15,10000,49,9999,0.100000,0,0,0.000000,6,2.000000,0.000000,5.348067,0,0,0,0,0,0,0
6,69999,4,60000,1,0,40,9999,0.100000,0,0,0.000000,6,0.000000,0.000000,0.066763,0,0,0,0,0,0,0
6,69999,5,60000,1,10000,49,9999,0.100000,0,0,0.000000,6,1.000000,0.000000,1.977300,0,0,0,0,0,0,0
6,69999,6,60000,44,0,40,9999,0.100000,0,0,0.000000,6,0.000000,0.000000,0.942529,0,0,0,0,0,0,0
6,69999,7,60000,44,0,40,9999,0.100000,0,0,0.000000,6,0.000000,0.000000,0.340480,0,0,0,0,0,0,0
6,69999,8,60000,44,0,40,9999,0.100000,0,0,0.000000,6,0.000000,0.000000,1.401936,0,0,0,0,0,0,0
6,69999,9,60000,24,50000,40,9999,0.100000,0,0,0.000000,6,0.000000,0.000000,2.932263,0,0,0,0,0,0,0
6,69999,10,60000,1,10000,40,9999,0.100000,0,0,0.000000,6,0.000000,0.000000,0.080669,0,0,0,0,0,0,0
6,69999,11,60000,22,30000,49,9999,0.100000,0,0,0.000000,6,1.000000,0.000000,4.669479,0,0,0,0,0,0,0
6,69999,12,60000,1,10000,49,9999,0.100000,0,0,0.000000,6,1.000000,0.000000,9.464511,0,0,0,0,0,0,0
6,69999,13,60000,50,20000,49,9999,0.100000,0,0,0.000000,6,1.000000,0.000000,16.323666,0,0,0,0,0,0,0
6,69999,14,60000,15,10000,49,9999,0.100000,0,0,0.000000,6,1.000000,0.000000,4.686460,0,0,0,0,0,0,0
6,69999,15,60000,22,30000,40,9999,0.100000,0,0,0.000000,6,0.000000,0.000000,1.464851,0,0,0,0,0,0,0
6,69999,16,60000,1,0,40,9999,0.100000,0,0,0.000000,6,0.000000,0.000000,0.134565,0,0,0,0,0,0,0
6,69999,17,60000,1,10000,40,9999,0.100000,0,0,0.000000,6,0.000000,0.000000,5.427080,0,0,0,0,0,0,0
6,69999,18,60000,44,0,40,9999,0.100000,0,0,0.000000,6,0.000000,0.000000,14.243356,0,0,0,0,0,0,0
6,69999,19,60000,15,10000,49,9999,0.100000,0,0,0.000000,6,1.000000,0.000000,1.234771,0,0,0,0,0,0,0
6,69999,20,60000,50,20000,49,9999,0.100000,0,0,0.000000,6,1.000000,0.000000,9.395419,0,0,0,0,0,0,0
6,69999,21,60000,22,30000,49,9999,0.100000,0,0,0.000000,6,1.000000,0.000000,5.009941,0,0,0,0,0,0,0
6,69999,22,60000,15,10000,40,9999,0.100000,0,0,0.000000,6,0.000000,0.000000,0.145134,0,0,0,0,0,0,0
6,69999,23,60000,24,50000,40,9999,0.100000,0,0,0.000000,6,0.000000,0.000000,0.841090,0,0,0,0,0,0,0
6,69999,24,60000,24,50000,40,9999,0.100000,0,0,0.000000,6,0.000000,0.000000,1.108027,0,0,0,0,0,0,0
6,69999,25,60000,1,0,40,9999,0.100000,0,0,0.000000,6,0.000000,0.000000,1.262279,0,0,0,0,0,0,0
6,69999,26,60000,1,0,40,9999,0.100000,0,0,0.000000,6,0.000000,0.000000,5.348708,0,0,0,0,0,0,0
6,69999,27,60000,24,50000,49,9999,0.100000,0,0,0.000000,6,1.000000,0.000000,6.915687,0,0,0,0,0,0,0
6,69999,28,60000,1,0,40,9999,0.100000,0,0,0.000000,6,0.000000,0.000000,0.789171,0,0,0,0,0,0,0
6,69999,29,60000,50,20000,40,9999,0.100000,0,0,0.000000,6,0.000000,0.000000,2.646363,0,0,0,0,0,0,0
6,69999,30,60000,1,10000,49,9999,0.100000,0,0,0.000000,6,2.000000,0.000000,6.919249,0,0,0,0,0,0,0
6,69999,31,60000,50,20000,49,9999,0.100000,0,0,0.000000,6,1.000000,0.000000,3.794905,0,0,0,0,0,0,0
6,69999,32,60000,44,0,40,9999,0.100000,0,0,0.000000,6,0.000000,0.000000,15.774067,0,0,0,0,0,0,0
6,69999,33,60000,22,30000,40,9999,0.100000,0,0,0.000000,6,0.000000,0.000000,1.363110,0,0,0,0,0,0,0
6,69999,34,60000,1,10000,49,9999,0.100000,0,0,0.000000,6,1.000000,0.000000,5.823349,0,0,0,0,0,0,0
6,69999,35,60000,22,30000,40,9999,0.100000,0,0,0.000000,6,0.000000,0.000000,0.190222,0,0,0,0,0,0,0
6,69999,36,60000,15,10000,40,9999,0.100000,0,0,0.000000,6,0.000000,0.000000,0.137186,0,0,0,0,0,0,0
6,69999,37,60000,44,0,49,9999,0.100000,0,0,0.000000,6,3.000000,0.000000,9.826505,0,0,0,0,0,0,0
6,69999,38,60000,15,10000,40,9999,0.100000,0,0,0.000000,6,0.000000,0.000000,4.857463,0,0,0,0,0,0,0
6,69999,39,60000,1,0,40,9999,0.100000,0,0,0.000000,6,0.000000,0.000000,0.964382,0,0,0,0,0,0,0
6,69999,40,60000,50,20000,40,9999,0.100000,0,0,0.000000,6,0.000000,0.000000,4.996260,0,0,0,0,0,0,0
6,69999,41,60000,15,10000,40,9999,0.100000,0,0,0.000000,6,0.000000,0.000000,4.650517,0,0,0,0,0,0,0
6,69999,42,60000,1,10000,49,9999,0.100000,0,0,0.000000,6,9.000000,0.000000,14.686346,0,0,0,0,0,0,0
6,69999,43,60000,1,10000,49,9999,0.100000,0,0,0.000000,6,2.000000,0.000000,8.308451,0,0,0,0,0,0,0
6,69999,44,60000,1,0,49,9999,0.100000,0,0,0.000000,6,1.000000,0.000000,4.882956,0,0,0,0,0,0,0
6,69999,45,60000,44,0,40,9999,0.100000,0,0,0.000000,6,0.000000,0.000000,0.155729,0,0,0,0,0,0,0
6,69999,46,60000,50,20000,40,9999,0.100000,0,0,0.000000,6,0.000000,0.000000,0.224537,0,0,0,0,0,0,0
6,69999,47,60000,50,20000,40,9999,0.100000,0,0,0.000000,6,0.000000,0.000000,0.298392,0,0,0,0,0,0,0
6,69999,48,60000,50,20000,40,9999,0.100000,0,0,0.000000,6,0.000000,0.000000,0.096213,0,0,0,0,0,0,0
6,69999,49,60000,50,20000,40,9999,0.100000,0,0,0.000000,6,0.000000,0.000000,0.243699,0,0,0,0,0,0,0
6,69999,50,60000,22,30000,40,9999,0.100000,0,0,0.000000,6,0.000000,0.000000,0.169721,0,0,0,0,0,0,0
6,69999,51,60000,1,10000,49,9999,0.100000,0,0,0.000000,6,1.000000,0.000000,6.161470,0,0,0,0,0,0,0
6,69999,52,60000,1,0,49,9999,0.100000,0,0,0.000000,6,1.000000,0.000000,6.580865,0,0,0,0,0,0,0
6,69999,53,60000,44,0,40,9999,0.100000,0,0,0.000000,6,0.000000,0.000000,0.210401,0,0,0,0,0,0,0
6,69999,54,60000,15,10000,40,9999,0.100000,0,0,0.000000,6,0.000000,0.000000,0.715077,0,0,0,0,0,0,0
6,69999,55,60000,44,0,40,9999,0.100000,0,0,0.000000,6,0.000000,0.000000,10.220955,0,0,0,0,0,0,0
6,69999,56,60000,15,10000,49,9999,0.100000,0,0,0.000000,6,1.000000,0.000000,6.126314,0,0,0,0,0,0,0
6,69999,57,60000,15,10000,49,9999,0.100000,0,0,0.000000,6,3.000000,0.000000,10.042840,0,0,0,0,0,0,0
6,69999,58,60000,1,0,40,9999,0.135000,0,0,0.000000,6,0.000000,0.000000,0.439782,0,0,0,0,0,0,0
6,69999,59,60000,22,30000,49,9999,0.100000,0,0,0.000000,6,1.000000,0.000000,9.678694,0,0,0,0,0,0,0
6,69999,60,60000,24,50000,49,9999,0.100000,0,0,0.000000,6,1.000000,0.000000,11.287552,0,0,0,0,0,0,0
6,69999,61,60000,24,50000,49,9999,0.100000,0,0,0.000000,6,1.000000,0.000000,11.287154,0,0,0,0,0,0,0
6,69999,62,60000,1,10000,49,9999,0.100000,0,0,0.000000,6,1.000000,0.000000,7.632086,0,0,0,0,0,0,0
6,69999,63,60000,1,0,49,9999,0.100000,0,0,0.000000,6,1.000000,0.000000,4.583609,0,0,0,0,0,0,0
6,69999,64,60000,44,0,49,9999,0.100000,0,0,0.000000,6,2.000000,0.000000,7.855582,0,0,0,0,0,0,0
6,69999,65,60000,22,30000,49,9999,0.100000,0,0,0.000000,6,1.000000,0.000000,1.193551,0,0,0,0,0,0,0
6,69999,66,60000,24,50000,49,9999,0.100000,0,0,0.000000,6,1.000000,0.000000,6.392555,0,0,0,0,0,0,0
6,69999,67,60000,44,0,49,9999,0.100000,0,0,0.000000,6,1.000000,0.000000,6.496590,0,0,0,0,0,0,0
6,69999,68,60000,1,10000,40,9999,0.100000,0,0,0.000000,6,0.000000,0.000000,0.135803,0,0,0,0,0,0,0
6,69999,69,60000,1,10000,49,9999,0.100000,0,0,0.000000,6,2.000000,0.000000,5.024263,0,0,0,0,0,0,0
6,69999,70,60000,15,10000,49,9999,0.100000,0,0,0.000000,6,1.000000,0.000000,7.739384,0,0,0,0,0,0,0
6,69999,71,60000,24,50000,49,9999,0.100000,0,0,0.000000,6,1.000000,0.000000,5.310333,0,0,0,0,0,0,0
6,69999,72,60000,15,10000,40,9999,0.100000,0,0,0.000000,6,0.000000,0.000000,0.534451,0,0,0,0,0,0,0
6,69999,73,60000,50,20000,40,9999,0.100000,0,0,0.000000,6,0.000000,0.000000,0.431864,0,0,0,0,0,0,0
6,69999,74,60000,44,0,49,9999,0.100000,0,0,0.000000,6,4.000000,0.000000,7.579370,0,0,0,0,0,0,0
6,69999,75,60000,15,10000,49,9999,0.100000,0,0,0.000000,6,2.000000,0.000000,7.330674,0,0,0,0,0,0,0
6,69999,76,60000,22,30000,40,9999,0.100000,0,0,0.000000,6,0.000000,0.000000,0.582163,0,0,0,0,0,0,0
6,69999,77,60000,1,10000,40,9999,0.100000,0,0,0.000000,6,0.000000,0.000000,0.934373,0,0,0,0,0,0,0
6,69999,78,60000,1,10000,40,9999,0.100000,0,0,0.000000,6,0.000000,0.000000,0.684994,0,0,0,0,0,0,0
6,69999,79,60000,50,20000,40,9999,0.100000,0,0,0.000000,6,0.000000,0.000000,1.845975,0,0,0,0,0,0,0
6,69999,80,60000,44,0,49,9999,0.100000,0,0,0.000000,6,1.000000,0.000000,1.206378,0,0,0,0,0,0,0
6,69999,81,60000,1,10000,49,9999,0.100000,0,0,0.000000,6,1.000000,0.000000,13.764978,0,0,0,0,0,0,0
6,69999,82,60000,15,10000,40,9999,0.100000,0,0,0.000000,6,0.000000,0.000000,5.035649,0,0,0,0,0,0,0
6,69999,83,60000,50,20000,49,9999,0.100000,0,0,0.000000,6,3.000000,0.000000,10.395970,0,0,0,0,0,0,0
6,69999,84,50000,1,10000,40,19999,0.100000,0,0,0.000000,6,0.000000,0.000000,0.275368,0,0,0,0,0,0,0
6,69999,85,60000,24,50000,40,9999,0.100000,0,0,0.000000,6,0.000000,0.000000,1.309657,0,0,0,0,0,0,0
6,69999,86,60000,44,0,40,9999,0.100000,0,0,0.000000,6,0.000000,0.000000,0.894477,0,0,0,0,0,0,0
6,69999,87,60000,1,10000,49,9999,0.100000,0,0,0.000000,6,2.000000,0.000000,7.736310,0,0,0,0,0,0,0
6,69999,88,60000,1,0,40,9999,0.100000,0,0,0.000000,6,0.000000,0.000000,10.504578,0,0,0,0,0,0,0
6,69999,89,60000,1,0,49,9999,0.100000,0,0,0.000000,6,2.000000,0.000000,8.626288,0,0,0,0,0,0,0
6,69999,90,60000,15,10000,49,9999,0.100000,0,0,0.000000,6,2.000000,0.000000,8.716636,0,0,0,0,0,0,0
6,69999,91,60000,44,0,40,9999,0.100000,0,0,0.000000,6,0.000000,0.000000,0.200398,0,0,0,0,0,0,0
6,69999,92,60000,24,50000,49,9999,0.100000,0,0,0.000000,6,3.000000,0.000000,8.486180,0,0,0,0,0,0,0
6,69999,93,60000,1,10000,49,9999,0.100000,0,0,0.000000,6,1.000000,0.000000,1.241973,0,0,0,0,0,0,0
6,69999,94,60000,1,0,49,9999,0.100000,0,0,0.000000,6,1.000000,0.000000,5.729018,0,0,0,0,0,0,0
6,69999,95,60000,1,0,49,9999,0.100000,0,0,0.000000,6,1.000000,0.000000,9.065759,0,0,0,0,0,0,0
6,69999,96,60000,50,20000,40,9999,0.100000,0,0,0.000000,6,0.000000,0.000000,0.182296,0,0,0,0,0,0,0
6,69999,97,60000,1,0,40,9999,0.100000,0,0,0.000000,6,0.000000,0.000000,5.847375,0,0,0,0,0,0,0
6,69999,98,60000,15,10000,49,9999,0.100000,0,0,0.000000,6,1.000000,0.000000,4.834563,0,0,0,0,0,0,0
6,69999,99,60000,1,0,49,9999,0.100000,0,0,0.000000,6,6.000000,0.000000,14.190419,0,0,0,0,0,0,0
7,79999,0,70000,24,50000,49,9999,0.100000,0,0,0.000000,6,2.000000,0.000000,7.526763,0,0,0,0,0,0,0
7,79999,1,70000,15,10000,40,9999,0.100000,0,0,0.000000,6,0.000000,0.000000,4.077923,0,0,0,0,0,0,0
7,79999,2,70000,15,10000,49,9999,0.100000,0,0,0.000000,6,1.000000,0.000000,6.111757,0,0,0,0,0,0,0
7,79999,3,70000,1,10000,49,9999,0.100000,0,0,0.000000,6,1.000000,0.000000,5.842270,0,0,0,0,0,0,0
7,79999,4,70000,44,0,40,9999,0.100000,0,0,0.000000,6,0.000000,0.000000,0.064078,0,0,0,0,0,0,0
7,79999,5,70000,1,0,49,9999,0.100000,0,0,0.000000,6,1.000000,0.000000,1.441055,0,0,0,0,0,0,0
7,79999,6,70000,1,0,40,9999,0.100000,0,0,0.000000,6,0.000000,0.000000,0.926686,0,0,0,0,0,0,0
7,79999,7,70000,15,10000,40,9999,0.100000,0,0,0.000000,6,0.000000,0.000000,0.326902,0,0,0,0,0,0,0
7,79999,8,70000,1,10000,40,9999,0.100000,0,0,0.000000,6,0.000000,0.000000,1.592926,0,0,0,0,0,0,0
7,79999,9,70000,50,20000,40,9999,0.100000,0,0,0.000000,6,0.000000,0.000000,1.036186,0,0,0,0,0,0,0
7,79999,10,70000,15,10000,40,9999,0.100000,0,0,0.000000,6,0.000000,0.000000,0.080708,0,0,0,0,0,0,0
7,79999,11,70000,1,10000,49,9999,0.100000,0,0,0.000000,6,1.000000,0.000000,1.201273,0,0,0,0,0,0,0
7,79999,12,70000,1,10000,49,9999,0.100000,0,0,0.000000,6,3.000000,0.000000,8.038589,0,0,0,0,0,0,0
7,79999,13,70000,24,50000,49,9999,0.100000,0,0,0.000000,6,2.000000,0.000000,9.858992,0,0,0,0,0,0,0
7,79999,14,70000,1,0,49,9999,0.100000,0,0,0.000000,6,2.000000,0.000000,6.744720,0,0,0,0,0,0,0
7,79999,15,70000,1,10000,40,9999,0.100000,0,0,0.000000,6,0.000000,0.000000,1.057387,0,0,0,0,0,0,0
7,79999,16,70000,1,0,40,9999,0.100000,0,0,0.000000,6,0.000000,0.000000,0.131210,0,0,0,0,0,0,0
7,79999,17,70000,15,10000,40,9999,0.100000,0,0,0.000000,6,0.000000,0.000000,1.198264,0,0,0,0,0,0,0
7,79999,18,70000,15,10000,49,9999,0.100000,0,0,0.000000,6,1.000000,0.000000,5.624641,0,0,0,0,0,0,0
7,79999,19,70000,1,0,49,9999,0.100000,0,0,0.000000,6,3.000000,0.000000,3.637545,0,0,0,0,0,0,0
7,79999,20,70000,44,0,49,9999,0.100000,0,0,0.000000,6,1.000000,0.000000,11.053025,0,0,0,0,0,0,0
7,79999,21,70000,15,10000,49,9999,0.100000,0,0,0.000000,6,2.000000,0.000000,4.415737,0,0,0,0,0,0,0
7,79999,22,70000,44,0,40,9999,0.100000,0,0,0.000000,6,0.000000,0.000000,0.146527,0,0,0,0,0,0,0
7,79999,23,70000,1,0,40,9999,0.100000,0,0,0.000000,6,0.000000,0.000000,3.001305,0,0,0,0,0,0,0
7,79999,24,70000,24,60000,49,9999,0.100000,0,0,0.000000,6,2.000000,0.000000,6.252726,0,0,0,0,0,0,0
7,79999,25,70000,24,50000,40,9999,0.100000,0,0,0.000000,6,0.000000,0.000000,1.754331,0,0,0,0,0,0,0
7,79999,26,70000,44,0,49,9999,0.100000,0,0,0.000000,6,2.000000,0.000000,7.560198,0,0,0,0,0,0,0
7,79999,27,70000,1,0,40,9999,0.100000,0,0,0.000000,6,0.000000,0.000000,5.653185,0,0,0,0,0,0,0
7,79999,28,70000,15,10000,40,9999,0.100000,0,0,0.000000,6,0.000000,0.000000,3.263402,0,0,0,0,0,0,0
7,79999,29,70000,1,10000,40,9999,0.100000,0,0,0.000000,6,0.000000,0.000000,3.057263,0,0,0,0,0,0,0
7,79999,30,70000,1,10000,40,9999,0.100000,0,0,0.000000,6,0.000000,0.000000,5.360925,0,0,0,0,0,0,0
7,79999,31,70000,1,10000,49,9999,0.135000,0,0,0.000000,6,3.000000,0.000000,8.568139,0,0,0,0,0,0,0
7,79999,32,70000,1,10000,40,9999,0.100000,0,0,0.000000,6,0.000000,0.000000,16.485399,0,0,0,0,0,0,0
7,79999,33,70000,50,20000,40,9999,0.100000,0,0,0.000000,6,0.000000,0.000000,2.664414,0,0,0,0,0,0,0
7,79999,34,70000,24,50000,49,9999,0.100000,0,0,0.000000,6,1.000000,0.000000,5.838806,0,0,0,0,0,0,0
7,79999,35,70000,24,50000,40,9999,0.100000,0,0,0.000000,6,0.000000,0.000000,0.187186,0,0,0,0,0,0,0
7,79999,36,70000,15,10000,40,9999,0.100000,0,0,0.000000,6,0.000000,0.000000,0.129161,0,0,0,0,0,0,0
7,79999,37,70000,24,50000,40,9999,0.100000,0,0,0.000000,6,0.000000,0.000000,10.392100,0,0,0,0,0,0,0
7,79999,38,70000,1,0,40,9999,0.100000,0,0,0.000000,6,0.000000,0.000000,5.508891,0,0,0,0,0,0,0
7,79999,39,70000,15,10000,40,9999,0.100000,0,0,0.000000,6,0.000000,0.000000,1.217986,0,0,0,0,0,0,0
7,79999,40,70000,1,10000,49,9999,0.100000,0,0,0.000000,6,2.000000,0.000000,10.435417,0,0,0,0,0,0,0
7,79999,41,70000,44,0,49,9999,0.100000,0,0,0.000000,6,2.000000,0.000000,6.587903,0,0,0,0,0,0,0
7,79999,42,70000,50,20000,99,9999,0.100000,0,0,34.210526,6,4.000000,0.000000,11.802444,0,0,1,0,0,0,0
7,79999,43,70000,1,10000,49,9999,0.100000,0,0,0.000000,6,2.000000,0.000000,4.828772,0,0,0,0,0,0,0
7,79999,44,70000,1,0,40,9999,0.100000,0,0,0.000000,6,0.000000,0.000000,7.605849,0,0,0,0,0,0,0
7,79999,45,70000,44,0,40,9999,0.100000,0,0,0.000000,6,0.000000,0.000000,0.155903,0,0,0,0,0,0,0
7,79999,46,70000,50,20000,40,9999,0.100000,0,0,0.000000,6,0.000000,0.000000,0.536972,0,0,0,0,0,0,0
7,79999,47,70000,24,60000,40,9999,0.100000,0,0,0.000000,6,0.000000,0.000000,0.299609,0,0,0,0,0,0,0
7,79999,48,70000,1,10000,40,9999,0.100000,0,0,0.000000,6,0.000000,0.000000,0.095877,0,0,0,0,0,0,0
7,79999,49,70000,50,20000,40,9999,0.100000,0,0,0.000000,6,0.000000,0.000000,0.245463,0,0,0,0,0,0,0
7,79999,50,70000,50,20000,40,9999,0.100000,0,0,0.000000,6,0.000000,0.000000,0.575962,0,0,0,0,0,0,0
7,79999,51,70000,24,50000,49,9999,0.100000,0,0,0.000000,6,1.000000,0.000000,9.530984,0,0,0,0,0,0,0
7,79999,52,70000,1,0,49,9999,0.100000,0,0,0.000000,6,7.000000,0.000000,12.758252,0,0,0,0,0,0,0
7,79999,53,70000,24,50000,40,9999,0.100000,0,0,0.000000,6,0.000000,0.000000,0.172596,0,0,0,0,0,0,0
7,79999,54,70000,50,20000,40,9999,0.100000,0,0,0.000000,6,0.000000,0.000000,0.650066,0,0,0,0,0,0,0
7,79999,55,70000,44,0,40,9999,0.100000,0,0,0.000000,6,0.000000,0.000000,8.355646,0,0,0,0,0,0,0
7,79999,56,70000,1,10000,49,9999,0.100000,0,0,0.000000,6,2.000000,0.000000,6.561186,0,0,0,0,0,0,0
7,79999,57,70000,1,10000,49,9999,0.100000,0,0,0.000000,6,1.000000,0.000000,15.157334,0,0,0,0,0,0,0
7,79999,58,70000,1,0,40,9999,0.100000,0,0,0.000000,6,0.000000,0.000000,0.451907,0,0,0,0,0,0,0
7,79999,59,70000,15,10000,49,9999,0.100000,0,0,0.000000,6,1.000000,0.000000,4.858996,0,0,0,0,0,0,0
7,79999,60,70000,15,10000,49,9999,0.100000,0,0,0.000000,6,6.000000,0.000000,7.347319,0,0,0,0,0,0,0
7,79999,61,70000,24,50000,40,9999,0.100000,0,0,0.000000,6,0.000000,0.000000,5.449956,0,0,0,0,0,0,0
7,79999,62,70000,24,50000,40,9999,0.100000,0,0,0.000000,6,0.000000,0.000000,6.694836,0,0,0,0,0,0,0
7,79999,63,70000,24,60000,49,9999,0.100000,0,0,0.000000,6,1.000000,0.000000,1.679677,0,0,0,0,0,0,0
7,79999,64,70000,24,50000,49,9999,0.100000,0,0,0.000000,6,2.000000,0.000000,6.934436,0,0,0,0,0,0,0
7,79999,65,70000,44,0,49,9999,0.100000,0,0,0.000000,6,3.000000,0.000000,3.650090,0,0,0,0,0,0,0
7,79999,66,70000,15,10000,49,9999,0.100000,0,0,0.000000,6,2.000000,0.000000,7.299456,0,0,0,0,0,0,0
7,79999,67,70000,44,0,49,9999,0.100000,0,0,0.000000,6,1.000000,0.000000,8.528273,0,0,0,0,0,0,0
7,79999,68,70000,1,0,40,9999,0.100000,0,0,0.000000,6,0.000000,0.000000,0.133554,0,0,0,0,0,0,0
7,79999,69,70000,24,60000,99,9999,0.100000,0,0,34.210526,6,15.000000,0.000000,18.668651,0,0,1,0,0,0,0
7,79999,70,70000,1,10000,49,9999,0.100000,0,0,0.000000,6,1.000000,0.000000,9.665359,0,0,0,0,0,0,0
7,79999,71,70000,24,50000,49,9999,0.100000,0,0,0.000000,6,1.000000,0.000000,6.866686,0,0,0,0,0,0,0
7,79999,72,70000,24,50000,40,9999,0.100000,0,0,0.000000,6,0.000000,0.000000,0.510915,0,0,0,0,0,0,0
7,79999,73,70000,44,0,40,9999,0.100000,0,0,0.000000,6,0.000000,0.000000,0.412651,0,0,0,0,0,0,0
7,79999,74,70000,1,0,49,9999,0.100000,0,0,0.000000,6,1.000000,0.000000,5.448997,0,0,0,0,0,0,0
7,79999,75,70000,15,10000,49,9999,0.100000,0,0,0.000000,6,2.000000,0.000000,7.746666,0,0,0,0,0,0,0
7,79999,76,70000,50,20000,40,9999,0.100000,0,0,0.000000,6,0.000000,0.000000,0.473457,0,0,0,0,0,0,0
7,79999,77,70000,1,0,49,9999,0.100000,0,0,0.000000,6,1.000000,0.000000,2.631270,0,0,0,0,0,0,0
7,79999,78,70000,1,10000,49,9999,0.100000,0,0,0.000000,6,6.000000,0.000000,7.156991,0,0,0,0,0,0,0
7,79999,79,70000,1,0,40,9999,0.100000,0,0,0.000000,6,0.000000,0.000000,1.912347,0,0,0,0,0,0,0
7,79999,80,70000,1,10000,49,9999,0.100000,0,0,0.000000,6,3.000000,0.000000,3.633436,0,0,0,0,0,0,0
7,79999,81,70000,44,0,40,9999,0.100000,0,0,0.000000,6,0.000000,0.000000,8.446085,0,0,0,0,0,0,0
7,79999,82,70000,44,0,49,9999,0.100000,0,0,0.000000,6,2.000000,0.000000,9.151762,0,0,0,0,0,0,0
7,79999,83,70000,1,10000,49,9999,0.100000,0,0,0.000000,6,3.000000,0.000000,9.866899,0,0,0,0,0,0,0
7,79999,84,70000,50,20000,40,9999,0.100000,0,0,0.000000,6,0.000000,0.000000,0.279611,0,0,0,0,0,0,0
7,79999,85,70000,15,10000,40,9999,0.100000,0,0,0.000000,6,0.000000,0.000000,0.009645,0,0,0,0,0,0,0
7,79999,86,70000,24,50000,40,9999,0.100000,0,0,0.000000,6,0.000000,0.000000,0.922708,0,0,0,0,0,0,0
7,79999,87,70000,1,10000,40,9999,0.100000,0,0,0.000000,6,0.000000,0.000000,1.391050,0,0,0,0,0,0,0
7,79999,88,70000,15,10000,40,9999,0.100000,0,0,0.000000,6,0.000000,0.000000,4.466901,0,0,0,0,0,0,0
7,79999,89,70000,1,10000,40,9999,0.100000,0,0,0.000000,6,0.000000,0.000000,4.290454,0,0,0,0,0,0,0
7,79999,90,70000,1,10000,49,9999,0.100000,0,0,0.000000,6,1.000000,0.000000,5.839201,0,0,0,0,0,0,0
7,79999,91,70000,15,10000,40,9999,0.100000,0,0,0.000000,6,0.000000,0.000000,0.559587,0,0,0,0,0,0,0
7,79999,92,70000,1,10000,40,9999,0.100000,0,0,0.000000,6,0.000000,0.000000,4.794065,0,0,0,0,0,0,0
7,79999,93,70000,24,60000,49,9999,0.100000,0,0,0.000000,6,3.000000,0.000000,3.559113,0,0,0,0,0,0,0
7,79999,94,70000,1,10000,40,9999,0.100000,0,0,0.000000,6,0.000000,0.000000,5.319880,0,0,0,0,0,0,0
7,79999,95,70000,24,50000,40,9999,0.100000,0,0,0.000000,6,0.000000,0.000000,1.510559,0,0,0,0,0,0,0
7,79999,96,70000,15,10000,40,9999,0.100000,0,0,0.000000,6,0.000000,0.000000,0.182154,0,0,0,0,0,0,0
7,79999,97,70000,24,50000,40,9999,0.100000,0,0,0.000000,6,0.000000,0.000000,5.901410,0,0,0,0,0,0,0
7,79999,98,70000,24,50000,49,9999,0.100000,0,0,0.000000,6,3.000000,0.000000,9.554373,0,0,0,0,0,0,0
7,79999,99,70000,1,10000,40,9999,0.100000,0,0,0.000000,6,0.000000,0.000000,4.666628,0,0,0,0,0,0,0
8,89999,0,80000,1,0,40,9999,0.100000,0,0,0.000000,6,0.000000,0.000000,4.959905,0,0,0,0,0,0,0
8,89999,1,80000,15,10000,49,9999,0.100000,0,0,0.000000,6,2.000000,0.000000,4.678490,0,0,0,0,0,0,0
8,89999,2,80000,24,50000,49,9999,0.100000,0,0,0.000000,6,4.000000,0.000000,9.477385,0,0,0,0,0,0,0
8,89999,3,80000,1,10000,40,9999,0.100000,0,0,0.000000,6,0.000000,0.000000,6.627829,0,0,0,0,0,0,0
8,89999,4,80000,24,50000,40,9999,0.100000,0,0,0.000000,6,0.000000,0.000000,0.337062,0,0,0,0,0,0,0
8,89999,5,80000,1,10000,9,9999,0.100000,0,0,34.210526,6,8.000000,0.000000,9.160115,0,0,0,0,1,0,0
8,89999,6,80000,15,10000,40,9999,0.100000,0,0,0.000000,6,0.000000,0.000000,0.959595,0,0,0,0,0,0,0
8,89999,7,80000,24,50000,40,9999,0.100000,0,0,0.000000,6,0.000000,0.000000,0.629583,0,0,0,0,0,0,0
8,89999,8,80000,24,60000,40,9999,0.100000,0,0,0.000000,6,0.000000,0.000000,1.379302,0,0,0,0,0,0,0
8,89999,9,80000,15,10000,40,9999,0.100000,0,0,0.000000,6,0.000000,0.000000,1.020924,0,0,0,0,0,0,0
8,89999,10,80000,24,50000,40,9999,0.100000,0,0,0.000000,6,0.000000,0.000000,0.080358,0,0,0,0,0,0,0
8,89999,11,80000,24,60000,9,9999,0.100000,0,0,34.210526,6,8.000000,0.000000,9.142358,0,0,0,0,1,0,0
8,89999,12,80000,15,10000,49,9999,0.100000,0,0,0.000000,6,2.000000,0.000000,8.963011,0,0,0,0,0,0,0
8,89999,13,80000,1,10000,49,9999,0.100000,0,0,0.000000,6,2.000000,0.000000,22.499179,0,0,0,0,0,0,0
8,89999,14,80000,1,10000,40,9999,0.100000,0,0,0.000000,6,0.000000,0.000000,5.075510,0,0,0,0,0,0,0
8,89999,15,80000,24,60000,40,9999,0.100000,0,0,0.000000,6,0.000000,0.000000,1.058135,0,0,0,0,0,0,0
8,89999,16,80000,24,50000,40,9999,0.100000,0,0,0.000000,6,0.000000,0.000000,0.134643,0,0,0,0,0,0,0
8,89999,17,80000,15,10000,49,9999,0.100000,0,0,0.000000,6,1.000000,0.000000,4.177114,0,0,0,0,0,0,0
8,89999,18,80000,15,10000,40,9999,0.100000,0,0,0.000000,6,0.000000,0.000000,3.959467,0,0,0,0,0,0,0
8,89999,19,80000,24,50000,49,9999,0.100000,0,0,0.000000,6,1.000000,0.000000,1.885586,0,0,0,0,0,0,0
8,89999,20,80000,15,10000,49,9999,0.100000,0,0,0.000000,6,1.000000,0.000000,5.306206,0,0,0,0,0,0,0
8,89999,21,80000,24,60000,49,9999,0.100000,0,0,0.000000,6,2.000000,0.000000,3.818996,0,0,0,0,0,0,0
8,89999,22,80000,1,0,40,9999,0.100000,0,0,0.000000,6,0.000000,0.000000,0.146410,0,0,0,0,0,0,0
8,89999,23,80000,24,50000,40,9999,0.100000,0,0,0.000000,6,0.000000,0.000000,3.790388,0,0,0,0,0,0,0
8,89999,24,80000,44,0,49,9999,0.100000,0,0,0.000000,6,1.000000,0.000000,5.187755,0,0,0,0,0,0,0
8,89999,25,80000,1,10000,40,9999,0.100000,0,0,0.000000,6,0.000000,0.000000,0.579600,0,0,0,0,0,0,0
8,89999,26,80000,15,10000,40,9999,0.100000,0,0,0.000000,6,0.000000,0.000000,4.894296,0,0,0,0,0,0,0
8,89999,27,80000,44,0,49,9999,0.100000,0,0,0.000000,6,1.000000,0.000000,9.673256,0,0,0,0,0,0,0
8,89999,28,80000,24,60000,40,9999,0.100000,0,0,0.000000,6,0.000000,0.000000,2.661833,0,0,0,0,0,0,0
8,89999,29,80000,1,10000,40,9999,0.100000,0,0,0.000000,6,0.000000,0.000000,2.627184,0,0,0,0,0,0,0
8,89999,30,80000,24,60000,49,9999,0.100000,0,0,0.000000,6,1.000000,0.000000,7.804545,0,0,0,0,0,0,0
8,89999,31,80000,24,60000,49,9999,0.100000,0,0,0.000000,6,2.000000,0.000000,23.139878,0,0,0,0,0,0,0
8,89999,32,80000,24,50000,40,9999,0.100000,0,0,0.000000,6,0.000000,0.000000,16.137677,0,0,0,0,0,0,0
8,89999,33,80000,1,10000,40,9999,0.100000,0,0,0.000000,6,0.000000,0.000000,1.660499,0,0,0,0,0,0,0
8,89999,34,80000,1,10000,49,9999,0.100000,0,0,0.000000,6,1.000000,0.000000,4.846556,0,0,0,0,0,0,0
8,89999,35,80000,1,0,40,9999,0.100000,0,0,0.000000,6,0.000000,0.000000,0.196886,0,0,0,0,0,0,0
8,89999,36,80000,24,50000,40,9999,0.100000,0,0,0.000000,6,0.000000,0.000000,0.128664,0,0,0,0,0,0,0
8,89999,37,80000,44,0,40,9999,0.100000,0,0,0.000000,6,0.000000,0.000000,7.706783,0,0,0,0,0,0,0
8,89999,38,80000,15,10000,40,9999,0.100000,0,0,0.000000,6,0.000000,0.000000,1.613143,0,0,0,0,0,0,0
8,89999,39,80000,1,0,40,9999,0.100000,0,0,0.000000,6,0.000000,0.000000,1.358313,0,0,0,0,0,0,0
8,89999,40,80000,15,10000,40,9999,0.100000,0,0,0.000000,6,0.000000,0.000000,3.662326,0,0,0,0,0,0,0
8,89999,41,80000,15,10000,49,9999,0.100000,0,0,0.000000,6,3.000000,0.000000,10.874738,0,0,0,0,0,0,0
8,89999,42,80000,15,10000,40,9999,0.100000,0,0,0.000000,6,0.000000,0.000000,4.936122,0,0,0,0,0,0,0
8,89999,43,80000,24,50000,49,9999,0.100000,0,0,0.000000,6,3.000000,0.000000,7.737936,0,0,0,0,0,0,0
8,89999,44,80000,1,10000,49,9999,0.100000,0,0,0.000000,6,1.000000,0.000000,6.519843,0,0,0,0,0,0,0
8,89999,45,80000,15,10000,40,9999,0.100000,0,0,0.000000,6,0.000000,0.000000,0.156710,0,0,0,0,0,0,0
8,89999,46,80000,15,10000,40,9999,0.100000,0,0,0.000000,6,0.000000,0.000000,0.376669,0,0,0,0,0,0,0
8,89999,47,80000,24,50000,40,9999,0.100000,0,0,0.000000,6,0.000000,0.000000,0.793297,0,0,0,0,0,0,0
8,89999,48,80000,1,10000,40,9999,0.100000,0,0,0.000000,6,0.000000,0.000000,0.089250,0,0,0,0,0,0,0
8,89999,49,80000,15,10000,40,9999,0.100000,0,0,0.000000,6,0.000000,0.000000,0.241940,0,0,0,0,0,0,0
8,89999,50,80000,1,10000,49,9999,0.100000,0,0,0.000000,6,2.000000,0.000000,5.690477,0,0,0,0,0,0,0
8,89999,51,80000,44,0,49,9999,0.100000,0,0,0.000000,6,1.000000,0.000000,8.353607,0,0,0,0,0,0,0
8,89999,52,80000,1,0,49,9999,0.100000,0,0,0.000000,6,3.000000,0.000000,12.039394,0,0,0,0,0,0,0
8,89999,53,80000,24,50000,40,9999,0.100000,0,0,0.000000,6,0.000000,0.000000,0.163567,0,0,0,0,0,0,0
8,89999,54,80000,1,0,40,9999,0.100000,0,0,0.000000,6,0.000000,0.000000,2.273277,0,0,0,0,0,0,0
8,89999,55,80000,24,50000,49,9999,0.100000,0,0,0.000000,6,1.000000,0.000000,6.489609,0,0,0,0,0,0,0
8,89999,56,80000,15,10000,40,9999,0.100000,0,0,0.000000,6,0.000000,0.000000,4.436592,0,0,0,0,0,0,0
8,89999,57,80000,15,10000,99,9999,0.100000,0,0,34.210526,6,5.000000,0.000000,16.557544,0,0,1,0,0,0,0
8,89999,58,80000,1,10000,40,9999,0.100000,0,0,0.000000,6,0.000000,0.000000,0.420069,0,0,0,0,0,0,0
8,89999,59,80000,1,0,49,9999,0.100000,0,0,0.000000,6,1.000000,0.000000,5.458247,0,0,0,0,0,0,0
8,89999,60,80000,1,10000,40,9999,0.100000,0,0,0.000000,6,0.000000,0.000000,5.338546,0,0,0,0,0,0,0
8,89999,61,80000,24,60000,49,9999,0.100000,0,0,0.000000,6,3.000000,0.000000,5.682556,0,0,0,0,0,0,0
8,89999,62,80000,24,60000,49,9999,0.100000,0,0,0.000000,6,2.000000,0.000000,4.734586,0,0,0,0,0,0,0
8,89999,63,80000,1,10000,9,9999,0.100000,0,0,34.210526,6,9.000000,0.000000,9.417204,0,0,0,0,1,0,0
8,89999,64,80000,1,10000,49,9999,0.100000,0,0,0.000000,6,1.000000,0.000000,2.651301,0,0,0,0,0,0,0
8,89999,65,80000,24,60000,49,9999,0.100000,0,0,0.000000,6,1.000000,0.000000,1.944521,0,0,0,0,0,0,0
8,89999,66,80000,15,10000,49,9999,0.100000,0,0,0.000000,6,1.000000,0.000000,3.941358,0,0,0,0,0,0,0
8,89999,67,80000,24,50000,49,9999,0.100000,0,0,0.000000,6,4.000000,0.000000,11.036012,0,0,0,0,0,0,0
8,89999,68,80000,24,50000,40,9999,0.100000,0,0,0.000000,6,0.000000,0.000000,0.134452,0,0,0,0,0,0,0
8,89999,69,80000,44,0,49,9999,0.100000,0,0,0.000000,6,3.000000,0.000000,8.385280,0,0,0,0,0,0,0
8,89999,70,80000,15,10000,49,9999,0.100000,0,0,0.000000,6,1.000000,0.000000,4.782397,0,0,0,0,0,0,0
8,89999,71,80000,1,0,49,9999,0.100000,0,0,0.000000,6,2.000000,0.000000,10.109553,0,0,0,0,0,0,0
8,89999,72,80000,24,50000,40,9999,0.100000,0,0,0.000000,6,0.000000,0.000000,1.869056,0,0,0,0,0,0,0
8,89999,73,80000,24,50000,40,9999,0.100000,0,0,0.000000,6,0.000000,0.000000,0.324619,0,0,0,0,0,0,0
8,89999,74,80000,24,60000,40,9999,0.100000,0,0,0.000000,6,0.000000,0.000000,6.023971,0,0,0,0,0,0,0
8,89999,75,80000,24,50000,40,9999,0.100000,0,0,0.000000,6,0.000000,0.000000,4.335646,0,0,0,0,0,0,0
8,89999,76,80000,1,0,49,9999,0.100000,0,0,0.000000,6,4.000000,0.000000,8.164285,0,0,0,0,0,0,0
8,89999,77,80000,15,10000,49,9999,0.100000,0,0,0.000000,6,4.000000,0.000000,7.200227,0,0,0,0,0,0,0
8,89999,78,80000,15,10000,40,9999,0.100000,0,0,0.000000,6,0.000000,0.000000,0.891773,0,0,0,0,0,0,0
8,89999,79,80000,15,10000,40,9999,0.100000,0,0,0.000000,6,0.000000,0.000000,1.650450,0,0,0,0,0,0,0
8,89999,80,80000,24,50000,49,9999,0.100000,0,0,0.000000,6,1.000000,0.000000,2.258193,0,0,0,0,0,0,0
8,89999,81,80000,44,0,40,9999,0.100000,0,0,0.000000,6,0.000000,0.000000,5.566501,0,0,0,0,0,0,0
8,89999,82,80000,15,10000,49,9999,0.100000,0,0,0.000000,6,1.000000,0.000000,4.938360,0,0,0,0,0,0,0
8,89999,83,80000,44,0,49,9999,0.100000,0,0,0.000000,6,1.000000,0.000000,4.465447,0,0,0,0,0,0,0
8,89999,84,80000,24,50000,40,9999,0.100000,0,0,0.000000,6,0.000000,0.000000,0.269761,0,0,0,0,0,0,0
8,89999,85,80000,1,0,40,9999,0.100000,0,0,0.000000,6,0.000000,0.000000,0.009617,0,0,0,0,0,0,0
8,89999,86,80000,15,10000,40,9999,0.100000,0,0,0.000000,6,0.000000,0.000000,1.339642,0,0,0,0,0,0,0
8,89999,87,80000,1,0,40,9999,0.100000,0,0,0.000000,6,0.000000,0.000000,0.605057,0,0,0,0,0,0,0
8,89999,88,80000,24,50000,49,9999,0.100000,0,0,0.000000,6,3.000000,0.000000,5.498204,0,0,0,0,0,0,0
8,89999,89,80000,1,10000,40,9999,0.100000,0,0,0.000000,6,0.000000,0.000000,2.307954,0,0,0,0,0,0,0
8,89999,90,80000,44,0,49,9999,0.100000,0,0,0.000000,6,4.000000,0.000000,18.133696,0,0,0,0,0,0,0
8,89999,91,80000,1,0,40,9999,0.100000,0,0,0.000000,6,0.000000,0.000000,0.791843,0,0,0,0,0,0,0
8,89999,92,80000,24,60000,49,9999,0.100000,0,0,0.000000,6,4.000000,0.000000,11.515009,0,0,0,0,0,0,0
8,89999,93,80000,24,50000,49,9999,0.100000,0,0,0.000000,6,1.000000,0.000000,1.966673,0,0,0,0,0,0,0
8,89999,94,80000,24,50000,49,9999,0.100000,0,0,0.000000,6,1.000000,0.000000,7.052125,0,0,0,0,0,0,0
8,89999,95,80000,15,10000,40,9999,0.100000,0,0,0.000000,6,0.000000,0.000000,0.784762,0,0,0,0,0,0,0
8,89999,96,80000,1,10000,40,9999,0.100000,0,0,0.000000,6,0.000000,0.000000,0.141422,0,0,0,0,0,0,0
8,89999,97,80000,15,10000,40,9999,0.100000,0,0,0.000000,6,0.000000,0.000000,5.850424,0,0,0,0,0,0,0
8,89999,98,80000,1,0,49,9999,0.100000,0,0,0.000000,6,1.000000,0.000000,5.546790,0,0,0,0,0,0,0
8,89999,99,80000,1,10000,49,9999,0.100000,0,0,0.000000,6,1.000000,0.000000,8.332410,0,0,0,0,0,0,0
9,99999,0,90000,1,0,49,9999,0.100000,0,0,0.000000,6,1.000000,0.000000,6.982256,0,0,0,0,0,0,0
9,99999,1,90000,15,10000,40,9999,0.100000,0,0,0.000000,6,0.000000,0.000000,5.310435,0,0,0,0,0,0,0
9,99999,2,90000,1,0,40,9999,0.100000,0,0,0.000000,6,0.000000,0.000000,8.577155,0,0,0,0,0,0,0
9,99999,3,90000,1,10000,49,9999,0.100000,0,0,0.000000,6,1.000000,0.000000,6.712163,0,0,0,0,0,0,0
9,99999,4,90000,24,50000,40,9999,0.100000,0,0,0.000000,6,0.000000,0.000000,1.016592,0,0,0,0,0,0,0
9,99999,5,90000,44,0,49,9999,0.100000,0,0,0.000000,6,4.000000,0.000000,11.949012,0,0,0,0,0,0,0
9,99999,6,90000,1,10000,49,9999,0.100000,0,0,0.000000,6,1.000000,0.000000,1.650184,0,0,0,0,0,0,0
9,99999,7,90000,15,10000,40,9999,0.100000,0,0,0.000000,6,0.000000,0.000000,3.433919,0,0,0,0,0,0,0
9,99999,8,90000,44,0,40,9999,0.100000,0,0,0.000000,6,0.000000,0.000000,0.582100,0,0,0,0,0,0,0
9,99999,9,90000,24,60000,40,9999,0.100000,0,0,0.000000,6,0.000000,0.000000,1.006803,0,0,0,0,0,0,0
9,99999,10,90000,1,0,40,9999,0.100000,0,0,0.000000,6,0.000000,0.000000,0.080774,0,0,0,0,0,0,0
9,99999,11,90000,15,10000,49,9999,0.100000,0,0,0.000000,6,3.000000,0.000000,6.371225,0,0,0,0,0,0,0
9,99999,12,90000,1,10000,49,9999,0.100000,0,0,0.000000,6,1.000000,0.000000,5.706990,0,0,0,0,0,0,0
9,99999,13,90000,24,50000,49,9999,0.100000,0,0,0.000000,6,1.000000,0.000000,21.984395,0,0,0,0,0,0,0
9,99999,14,90000,24,50000,49,9999,0.100000,0,0,0.000000,6,2.000000,0.000000,7.545064,0,0,0,0,0,0,0
9,99999,15,90000,44,0,49,9999,0.100000,0,0,0.000000,6,1.000000,0.000000,1.758332,0,0,0,0,0,0,0
9,99999,16,90000,1,10000,40,9999,0.100000,0,0,0.000000,6,0.000000,0.000000,0.136574,0,0,0,0,0,0,0
9,99999,17,90000,1,0,40,9999,0.100000,0,0,0.000000,6,0.000000,0.000000,1.725671,0,0,0,0,0,0,0
9,99999,18,90000,15,10000,40,9999,0.100000,0,0,0.000000,6,0.000000,0.000000,4.472817,0,0,0,0,0,0,0
9,99999,19,90000,1,10000,40,9999,0.100000,0,0,0.000000,6,0.000000,0.000000,0.965519,0,0,0,0,0,0,0
9,99999,20,90000,44,0,40,9999,0.100000,0,0,0.000000,6,0.000000,0.000000,5.589558,0,0,0,0,0,0,0
9,99999,21,90000,24,60000,49,9999,0.100000,0,0,0.000000,6,3.000000,0.000000,3.889279,0,0,0,0,0,0,0
9,99999,22,90000,15,10000,40,9999,0.100000,0,0,0.000000,6,0.000000,0.000000,0.145398,0,0,0,0,0,0,0
9,99999,23,90000,24,50000,40,9999,0.100000,0,0,0.000000,6,0.000000,0.000000,0.748180,0,0,0,0,0,0,0
9,99999,24,90000,1,0,49,9999,0.100000,0,0,0.000000,6,1.000000,0.000000,1.969032,0,0,0,0,0,0,0
9,99999,25,90000,44,0,40,9999,0.100000,0,0,0.000000,6,0.000000,0.000000,1.532928,0,0,0,0,0,0,0
9,99999,26,90000,1,0,49,9999,0.100000,0,0,0.000000,6,1.000000,0.000000,7.143004,0,0,0,0,0,0,0
9,99999,27,90000,15,10000,40,9999,0.100000,0,0,0.000000,6,0.000000,0.000000,3.700799,0,0,0,0,0,0,0
9,99999,28,90000,1,0,40,9999,0.100000,0,0,0.000000,6,0.000000,0.000000,2.496103,0,0,0,0,0,0,0
9,99999,29,90000,44,0,40,9999,0.100000,0,0,0.000000,6,0.000000,0.000000,2.304375,0,0,0,0,0,0,0
9,99999,30,90000,24,60000,49,9999,0.100000,0,0,0.000000,6,1.000000,0.000000,5.375696,0,0,0,0,0,0,0
9,99999,31,90000,24,60000,49,9999,0.100000,0,0,0.000000,6,1.000000,0.000000,17.142049,0,0,0,0,0,0,0
9,99999,32,90000,44,0,40,9999,0.100000,0,0,0.000000,6,0.000000,0.000000,16.447244,0,0,0,0,0,0,0
9,99999,33,90000,15,10000,49,9999,0.100000,0,0,0.000000,6,1.000000,0.000000,1.963883,0,0,0,0,0,0,0
9,99999,34,90000,44,0,49,9999,0.100000,0,0,0.000000,6,2.000000,0.000000,9.610725,0,0,0,0,0,0,0
9,99999,35,90000,1,0,40,9999,0.100000,0,0,0.000000,6,0.000000,0.000000,0.194324,0,0,0,0,0,0,0
9,99999,36,90000,1,10000,40,9999,0.100000,0,0,0.000000,6,0.000000,0.000000,0.129292,0,0,0,0,0,0,0
9,99999,37,90000,24,50000,49,9999,0.100000,0,0,0.000000,6,2.000000,0.000000,9.974614,0,0,0,0,0,0,0
9,99999,38,90000,24,50000,40,9999,0.100000,0,0,0.000000,6,0.000000,0.000000,0.342841,0,0,0,0,0,0,0
9,99999,39,90000,24,60000,49,9999,0.100000,0,0,0.000000,6,1.000000,0.000000,1.646505,0,0,0,0,0,0,0
9,99999,40,90000,15,10000,49,9999,0.100000,0,0,0.000000,6,1.000000,0.000000,3.976427,0,0,0,0,0,0,0
9,99999,41,90000,44,0,49,9999,0.100000,0,0,0.000000,6,3.000000,0.000000,9.217717,0,0,0,0,0,0,0
9,99999,42,90000,24,50000,49,9999,0.100000,0,0,0.000000,6,2.000000,0.000000,6.054347,0,0,0,0,0,0,0
9,99999,43,90000,24,60000,49,9999,0.100000,0,0,0.000000,6,2.000000,0.000000,13.517433,0,0,0,0,0,0,0
9,99999,44,90000,1,0,49,9999,0.100000,0,0,0.000000,6,1.000000,0.000000,8.115035,0,0,0,0,0,0,0
9,99999,45,90000,44,0,40,9999,0.100000,0,0,0.000000,6,0.000000,0.000000,0.159115,0,0,0,0,0,0,0
9,99999,46,90000,1,0,40,9999,0.100000,0,0,0.000000,6,0.000000,0.000000,0.217267,0,0,0,0,0,0,0
9,99999,47,90000,1,0,49,9999,0.100000,0,0,0.000000,6,11.000000,0.000000,17.457324,0,0,0,0,0,0,0
9,99999,48,90000,24,50000,40,9999,0.100000,0,0,0.000000,6,0.000000,0.000000,0.089422,0,0,0,0,0,0,0
9,99999,49,90000,1,10000,40,9999,0.100000,0,0,0.000000,6,0.000000,0.000000,0.457094,0,0,0,0,0,0,0
9,99999,50,90000,24,50000,49,9999,0.100000,0,0,0.000000,6,1.000000,0.000000,2.756908,0,0,0,0,0,0,0
9,99999,51,90000,15,10000,49,9999,0.100000,0,0,0.000000,6,1.000000,0.000000,7.572698,0,0,0,0,0,0,0
9,99999,52,90000,1,10000,49,9999,0.100000,0,0,0.000000,6,2.000000,0.000000,9.638232,0,0,0,0,0,0,0
9,99999,53,90000,15,10000,40,9999,0.100000,0,0,0.000000,6,0.000000,0.000000,0.169347,0,0,0,0,0,0,0
9,99999,54,90000,44,0,40,9999,0.100000,0,0,0.000000,6,0.000000,0.000000,1.891613,0,0,0,0,0,0,0
9,99999,55,90000,1,10000,40,9999,0.100000,0,0,0.000000,6,0.000000,0.000000,6.532741,0,0,0,0,0,0,0
9,99999,56,90000,1,10000,49,9999,0.100000,0,0,0.000000,6,1.000000,0.000000,7.370824,0,0,0,0,0,0,0
9,99999,57,90000,1,0,49,9999,0.100000,0,0,0.000000,6,2.000000,0.000000,7.485787,0,0,0,0,0,0,0
9,99999,58,90000,1,0,40,9999,0.100000,0,0,0.000000,6,0.000000,0.000000,0.425617,0,0,0,0,0,0,0
9,99999,59,90000,15,10000,49,9999,0.100000,0,0,0.000000,6,1.000000,0.000000,3.856645,0,0,0,0,0,0,0
9,99999,60,90000,44,0,40,9999,0.100000,0,0,0.000000,6,0.000000,0.000000,4.195235,0,0,0,0,0,0,0
9,99999,61,90000,44,0,49,9999,0.100000,0,0,0.000000,6,4.000000,0.000000,9.711963,0,0,0,0,0,0,0
9,99999,62,90000,1,10000,49,9999,0.100000,0,0,0.000000,6,1.000000,0.000000,3.964932,0,0,0,0,0,0,0
9,99999,63,90000,1,10000,49,9999,0.100000,0,0,0.000000,6,3.000000,0.000000,10.447112,0,0,0,0,0,0,0
9,99999,64,90000,44,0,40,9999,0.100000,0,0,0.000000,6,0.000000,0.000000,1.585671,0,0,0,0,0,0,0
9,99999,65,90000,1,0,40,9999,0.100000,0,0,0.000000,6,0.000000,0.000000,1.099304,0,0,0,0,0,0,0
9,99999,66,90000,1,10000,49,9999,0.100000,0,0,0.000000,6,2.000000,0.000000,7.286292,0,0,0,0,0,0,0
9,99999,67,90000,1,0,49,9999,0.100000,0,0,0.000000,6,1.000000,0.000000,9.095319,0,0,0,0,0,0,0
9,99999,68,90000,24,50000,40,9999,0.100000,0,0,0.000000,6,0.000000,0.000000,0.136006,0,0,0,0,0,0,0
9,99999,69,90000,24,60000,49,9999,0.100000,0,0,0.000000,6,2.000000,0.000000,7.595617,0,0,0,0,0,0,0
9,99999,70,90000,15,10000,40,9999,0.100000,0,0,0.000000,6,0.000000,0.000000,3.517105,0,0,0,0,0,0,0
9,99999,71,90000,44,0,49,9999,0.100000,0,0,0.000000,6,1.000000,0.000000,4.317854,0,0,0,0,0,0,0
9,99999,72,90000,1,0,40,9999,0.100000,0,0,0.000000,6,0.000000,0.000000,2.082099,0,0,0,0,0,0,0
9,99999,73,90000,44,0,40,9999,0.100000,0,0,0.000000,6,0.000000,0.000000,0.436131,0,0,0,0,0,0,0
9,99999,74,90000,1,0,49,9999,0.100000,0,0,0.000000,6,1.000000,0.000000,4.345216,0,0,0,0,0,0,0
9,99999,75,90000,24,60000,49,9999,0.100000,0,0,0.000000,6,1.000000,0.000000,10.767561,0,0,0,0,0,0,0
9,99999,76,90000,1,10000,40,9999,0.100000,0,0,0.000000,6,0.000000,0.000000,6.173455,0,0,0,0,0,0,0
9,99999,77,90000,24,60000,40,9999,0.100000,0,0,0.000000,6,0.000000,0.000000,3.327560,0,0,0,0,0,0,0
9,99999,78,90000,1,10000,40,9999,0.100000,0,0,0.000000,6,0.000000,0.000000,0.331045,0,0,0,0,0,0,0
9,99999,79,90000,1,10000,49,9999,0.100000,0,0,0.000000,6,3.000000,0.000000,15.711987,0,0,0,0,0,0,0
9,99999,80,90000,24,60000,40,9999,0.100000,0,0,0.000000,6,0.000000,0.000000,1.931574,0,0,0,0,0,0,0
9,99999,81,90000,44,0,40,9999,0.100000,0,0,0.000000,6,0.000000,0.000000,3.991055,0,0,0,0,0,0,0
9,99999,82,90000,1,0,49,9999,0.100000,0,0,0.000000,6,1.000000,0.000000,3.389331,0,0,0,0,0,0,0
9,99999,83,90000,44,0,40,9999,0.100000,0,0,0.000000,6,0.000000,0.000000,3.469624,0,0,0,0,0,0,0
9,99999,84,90000,1,10000,40,9999,0.100000,0,0,0.000000,6,0.000000,0.000000,0.277891,0,0,0,0,0,0,0
9,99999,85,90000,44,0,40,9999,0.100000,0,0,0.000000,6,0.000000,0.000000,0.009627,0,0,0,0,0,0,0
9,99999,86,90000,24,60000,40,9999,0.100000,0,0,0.000000,6,0.000000,0.000000,1.327453,0,0,0,0,0,0,0
9,99999,87,90000,15,10000,40,9999,0.100000,0,0,0.000000,6,0.000000,0.000000,0.628054,0,0,0,0,0,0,0
9,99999,88,90000,1,10000,40,9999,0.100000,0,0,0.000000,6,0.000000,0.000000,4.053773,0,0,0,0,0,0,0
9,99999,89,90000,1,0,49,9999,0.100000,0,0,0.000000,6,1.000000,0.000000,7.258678,0,0,0,0,0,0,0
9,99999,90,90000,44,0,40,9999,0.100000,0,0,0.000000,6,0.000000,0.000000,1.056885,0,0,0,0,0,0,0
9,99999,91,90000,24,60000,40,9999,0.100000,0,0,0.000000,6,0.000000,0.000000,0.804945,0,0,0,0,0,0,0
9,99999,92,90000,1,0,49,9999,0.100000,0,0,0.000000,6,4.000000,0.000000,14.118258,0,0,0,0,0,0,0
9,99999,93,90000,24,50000,40,9999,0.100000,0,0,0.000000,6,0.000000,0.000000,1.023378,0,0,0,0,0,0,0
9,99999,94,90000,24,50000,49,9999,0.100000,0,0,0.000000,6,5.000000,0.000000,9.631846,0,0,0,0,0,0,0
9,99999,95,90000,24,60000,40,9999,0.100000,0,0,0.000000,6,0.000000,0.000000,0.829380,0,0,0,0,0,0,0
9,99999,96,90000,24,50000,40,9999,0.100000,0,0,0.000000,6,0.000000,0.000000,0.110747,0,0,0,0,0,0,0
9,99999,97,90000,44,0,40,9999,0.100000,0,0,0.000000,6,0.000000,0.000000,5.835032,0,0,0,0,0,0,0
9,99999,98,90000,1,10000,49,9999,0.100000,0,0,0.000000,6,4.000000,0.000000,13.972683,0,0,0,0,0,0,0
9,99999,99,90000,1,10000,40,9999,0.100000,0,0,0.000000,6,0.000000,0.000000,5.750435,0,0,0,0,0,0,0
10,109999,0,100000,24,50000,49,9999,0.100000,0,0,0.000000,6,1.000000,0.000000,10.358095,0,0,0,0,0,0,0
10,109999,1,100000,44,0,40,9999,0.100000,0,0,0.000000,6,0.000000,0.000000,6.453924,0,0,0,0,0,0,0
10,109999,2,100000,1,10000,40,9999,0.100000,0,0,0.000000,6,0.000000,0.000000,6.851679,0,0,0,0,0,0,0
10,109999,3,100000,44,0,49,9999,0.100000,0,0,0.000000,6,3.000000,0.000000,7.363983,0,0,0,0,0,0,0
10,109999,4,100000,15,10000,40,9999,0.100000,0,0,0.000000,6,0.000000,0.000000,1.170813,0,0,0,0,0,0,0
10,109999,5,100000,44,0,49,9999,0.100000,0,0,0.000000,6,2.000000,0.000000,8.431777,0,0,0,0,0,0,0
10,109999,6,100000,24,60000,40,9999,0.100000,0,0,0.000000,6,0.000000,0.000000,1.030658,0,0,0,0,0,0,0
10,109999,7,100000,24,50000,40,9999,0.100000,0,0,0.000000,6,0.000000,0.000000,2.950449,0,0,0,0,0,0,0
10,109999,8,100000,1,10000,40,9999,0.100000,0,0,0.000000,6,0.000000,0.000000,1.548322,0,0,0,0,0,0,0
10,109999,9,100000,44,0,40,9999,0.100000,0,0,0.000000,6,0.000000,0.000000,1.013851,0,0,0,0,0,0,0
10,109999,10,100000,15,10000,40,9999,0.100000,0,0,0.000000,6,0.000000,0.000000,0.080893,0,0,0,0,0,0,0
10,109999,11,100000,24,60000,49,9999,0.100000,0,0,0.000000,6,5.000000,0.000000,8.922907,0,0,0,0,0,0,0
10,109999,12,100000,44,0,49,9999,0.100000,0,0,0.000000,6,4.000000,0.000000,12.925570,0,0,0,0,0,0,0
10,109999,13,100000,24,60000,49,9999,0.100000,0,0,0.000000,6,1.000000,0.000000,4.593527,0,0,0,0,0,0,0
10,109999,14,100000,24,60000,49,9999,0.100000,0,0,0.000000,6,1.000000,0.000000,6.590318,0,0,0,0,0,0,0
10,109999,15,100000,24,60000,49,9999,0.100000,0,0,0.000000,6,1.000000,0.000000,1.497913,0,0,0,0,0,0,0
10,109999,16,100000,15,10000,40,9999,0.100000,0,0,0.000000,6,0.000000,0.000000,0.135062,0,0,0,0,0,0,0
10,109999,17,100000,1,0,40,9999,0.100000,0,0,0.000000,6,0.000000,0.000000,0.840346,0,0,0,0,0,0,0
10,109999,18,100000,24,50000,49,9999,0.100000,0,0,0.000000,6,2.000000,0.000000,6.554367,0,0,0,0,0,0,0
10,109999,19,100000,24,60000,49,9999,0.100000,0,0,0.000000,6,1.000000,0.000000,2.279731,0,0,0,0,0,0,0
10,109999,20,100000,15,10000,40,9999,0.100000,0,0,0.000000,6,0.000000,0.000000,4.054737,0,0,0,0,0,0,0
10,109999,21,100000,1,10000,49,9999,0.100000,0,0,0.000000,6,1.000000,0.000000,3.436607,0,0,0,0,0,0,0
10,109999,22,100000,15,10000,40,9999,0.100000,0,0,0.000000,6,0.000000,0.000000,0.148373,0,0,0,0,0,0,0
10,109999,23,100000,24,50000,40,9999,0.100000,0,0,0.000000,6,0.000000,0.000000,0.875828,0,0,0,0,0,0,0
10,109999,24,100000,1,0,49,9999,0.100000,0,0,0.000000,6,2.000000,0.000000,6.538290,0,0,0,0,0,0,0
10,109999,25,100000,1,10000,40,9999,0.100000,0,0,0.000000,6,0.000000,0.000000,0.809718,0,0,0,0,0,0,0
10,109999,26,100000,15,10000,49,9999,0.100000,0,0,0.000000,6,1.000000,0.000000,4.990174,0,0,0,0,0,0,0
10,109999,27,100000,1,0,49,9999,0.100000,0,0,0.000000,6,1.000000,0.000000,10.239057,0,0,0,0,0,0,0
10,109999,28,100000,1,10000,40,9999,0.100000,0,0,0.000000,6,0.000000,0.000000,2.484217,0,0,0,0,0,0,0
10,109999,29,100000,24,50000,40,9999,0.100000,0,0,0.000000,6,0.000000,0.000000,1.698775,0,0,0,0,0,0,0
10,109999,30,100000,44,0,49,9999,0.100000,0,0,0.000000,6,4.000000,0.000000,8.321067,0,0,0,0,0,0,0
10,109999,31,100000,15,10000,49,9999,0.100000,0,0,0.000000,6,1.000000,0.000000,2.518071,0,0,0,0,0,0,0
10,109999,32,100000,1,0,40,9999,0.100000,0,0,0.000000,6,0.000000,0.000000,15.879177,0,0,0,0,0,0,0
10,109999,33,100000,1,10000,49,9999,0.100000,0,0,0.000000,6,11.000000,0.000000,12.633191,0,0,0,0,0,0,0
10,109999,34,100000,44,0,49,9999,0.100000,0,0,0.000000,6,1.000000,0.000000,9.058362,0,0,0,0,0,0,0
10,109999,35,100000,1,0,40,9999,0.100000,0,0,0.000000,6,0.000000,0.000000,0.207417,0,0,0,0,0,0,0
10,109999,36,100000,44,0,40,9999,0.100000,0,0,0.000000,6,0.000000,0.000000,0.130587,0,0,0,0,0,0,0
10,109999,37,100000,24,50000,49,9999,0.100000,0,0,0.000000,6,2.000000,0.000000,9.600879,0,0,0,0,0,0,0
10,109999,38,100000,15,10000,40,9999,0.100000,0,0,0.000000,6,0.000000,0.000000,0.354310,0,0,0,0,0,0,0
10,109999,39,100000,1,10000,40,9999,0.100000,0,0,0.000000,6,0.000000,0.000000,1.038186,0,0,0,0,0,0,0
10,109999,40,100000,24,50000,49,9999,0.100000,0,0,0.000000,6,1.000000,0.000000,5.109258,0,0,0,0,0,0,0
10,109999,41,100000,15,10000,49,9999,0.100000,0,0,0.000000,6,2.000000,0.000000,8.827517,0,0,0,0,0,0,0
10,109999,42,100000,24,60000,49,9999,0.100000,0,0,0.000000,6,4.000000,0.000000,13.393840,0,0,0,0,0,0,0
10,109999,43,100000,1,10000,49,9999,0.100000,0,0,0.000000,6,1.000000,0.000000,8.895341,0,0,0,0,0,0,0
10,109999,44,100000,15,10000,49,9999,0.100000,0,0,0.000000,6,1.000000,0.000000,8.557097,0,0,0,0,0,0,0
10,109999,45,100000,44,0,40,9999,0.100000,0,0,0.000000,6,0.000000,0.000000,0.159879,0,0,0,0,0,0,0
10,109999,46,100000,1,10000,40,9999,0.100000,0,0,0.000000,6,0.000000,0.000000,0.261953,0,0,0,0,0,0,0
10,109999,47,100000,24,60000,49,9999,0.100000,0,0,0.000000,6,2.000000,0.000000,3.677760,0,0,0,0,0,0,0
10,109999,48,100000,1,10000,40,9999,0.100000,0,0,0.000000,6,0.000000,0.000000,0.075675,0,0,0,0,0,0,0
10,109999,49,100000,44,0,40,9999,0.100000,0,0,0.000000,6,0.000000,0.000000,0.727560,0,0,0,0,0,0,0
10,109999,50,100000,44,0,40,9999,0.100000,0,0,0.000000,6,0.000000,0.000000,1.366311,0,0,0,0,0,0,0
10,109999,51,100000,1,10000,40,9999,0.100000,0,0,0.000000,6,0.000000,0.000000,9.875030,0,0,0,0,0,0,0
10,109999,52,100000,1,10000,49,9999,0.100000,0,0,0.000000,6,1.000000,0.000000,6.125092,0,0,0,0,0,0,0
10,109999,53,100000,44,0,40,9999,0.100000,0,0,0.000000,6,0.000000,0.000000,0.547215,0,0,0,0,0,0,0
10,109999,54,100000,24,60000,49,9999,0.100000,0,0,0.000000,6,2.000000,0.000000,4.519026,0,0,0,0,0,0,0
10,109999,55,100000,44,0,40,9999,0.100000,0,0,0.000000,6,0.000000,0.000000,3.816258,0,0,0,0,0,0,0
10,109999,56,100000,24,60000,49,9999,0.100000,0,0,0.000000,6,2.000000,0.000000,10.751407,0,0,0,0,0,0,0
10,109999,57,100000,24,50000,49,9999,0.100000,0,0,0.000000,6,5.000000,0.000000,7.915869,0,0,0,0,0,0,0
10,109999,58,100000,15,10000,40,9999,0.100000,0,0,0.000000,6,0.000000,0.000000,0.555424,0,0,0,0,0,0,0
10,109999,59,100000,15,10000,40,9999,0.100000,0,0,0.000000,6,0.000000,0.000000,3.016353,0,0,0,0,0,0,0
10,109999,60,100000,44,0,40,9999,0.100000,0,0,0.000000,6,0.000000,0.000000,4.648367,0,0,0,0,0,0,0
10,109999,61,100000,44,0,40,9999,0.100000,0,0,0.000000,6,0.000000,0.000000,4.444736,0,0,0,0,0,0,0
10,109999,62,100000,24,50000,40,9999,0.100000,0,0,0.000000,6,0.000000,0.000000,2.304956,0,0,0,0,0,0,0
10,109999,63,100000,44,0,49,9999,0.100000,0,0,0.000000,6,1.000000,0.000000,2.558992,0,0,0,0,0,0,0
10,109999,64,100000,15,10000,49,9999,0.100000,0,0,0.000000,6,1.000000,0.000000,2.075583,0,0,0,0,0,0,0
10,109999,65,100000,24,60000,49,9999,0.100000,0,0,0.000000,6,1.000000,0.000000,1.750540,0,0,0,0,0,0,0
10,109999,66,100000,24,60000,40,9999,0.100000,0,0,0.000000,6,0.000000,0.000000,6.737673,0,0,0,0,0,0,0
10,109999,67,100000,44,0,49,9999,0.100000,0,0,0.000000,6,3.000000,0.000000,13.969148,0,0,0,0,0,0,0
10,109999,68,100000,24,50000,40,9999,0.100000,0,0,0.000000,6,0.000000,0.000000,0.141547,0,0,0,0,0,0,0
10,109999,69,100000,24,60000,49,9999,0.100000,0,0,0.000000,6,1.000000,0.000000,6.673988,0,0,0,0,0,0,0
10,109999,70,100000,24,50000,40,9999,0.100000,0,0,0.000000,6,0.000000,0.000000,3.644250,0,0,0,0,0,0,0
10,109999,71,100000,1,10000,49,9999,0.100000,0,0,0.000000,6,2.000000,0.000000,5.372193,0,0,0,0,0,0,0
10,109999,72,100000,44,0,49,9999,0.100000,0,0,0.000000,6,1.000000,0.000000,3.075923,0,0,0,0,0,0,0
10,109999,73,100000,44,0,40,9999,0.100000,0,0,0.000000,6,0.000000,0.000000,0.463831,0,0,0,0,0,0,0
10,109999,74,100000,1,10000,49,9999,0.100000,0,0,0.000000,6,2.000000,0.000000,4.824931,0,0,0,0,0,0,0
10,109999,75,100000,24,50000,49,9999,0.100000,0,0,0.000000,6,2.000000,0.000000,7.836439,0,0,0,0,0,0,0
10,109999,76,100000,1,0,40,9999,0.100000,0,0,0.000000,6,0.000000,0.000000,6.865833,0,0,0,0,0,0,0
10,109999,77,100000,24,50000,40,9999,0.100000,0,0,0.000000,6,0.000000,0.000000,3.271666,0,0,0,0,0,0,0
10,109999,78,100000,24,50000,40,9999,0.100000,0,0,0.000000,6,0.000000,0.000000,0.283513,0,0,0,0,0,0,0
10,109999,79,100000,1,10000,40,9999,0.100000,0,0,0.000000,6,0.000000,0.000000,4.530505,0,0,0,0,0,0,0
10,109999,80,100000,15,10000,49,9999,0.100000,0,0,0.000000,6,1.000000,0.000000,13.230654,0,0,0,0,0,0,0
10,109999,81,100000,1,0,49,9999,0.100000,0,0,0.000000,6,1.000000,0.000000,7.145310,0,0,0,0,0,0,0
10,109999,82,100000,44,0,49,9999,0.100000,0,0,0.000000,6,6.000000,0.000000,17.735481,0,0,0,0,0,0,0
10,109999,83,100000,44,0,40,9999,0.100000,0,0,0.000000,6,0.000000,0.000000,2.661667,0,0,0,0,0,0,0
10,109999,84,100000,1,0,40,9999,0.100000,0,0,0.000000,6,0.000000,0.000000,0.281943,0,0,0,0,0,0,0
10,109999,85,100000,44,0,40,9999,0.100000,0,0,0.000000,6,0.000000,0.000000,0.009589,0,0,0,0,0,0,0
10,109999,86,100000,44,0,40,9999,0.100000,0,0,0.000000,6,0.000000,0.000000,1.314735,0,0,0,0,0,0,0
10,109999,87,100000,24,60000,40,9999,0.100000,0,0,0.000000,6,0.000000,0.000000,0.533448,0,0,0,0,0,0,0
10,109999,88,100000,15,10000,49,9999,0.100000,0,0,0.000000,6,2.000000,0.000000,4.129393,0,0,0,0,0,0,0
10,109999,89,100000,1,10000,40,9999,0.100000,0,0,0.000000,6,0.000000,0.000000,4.888414,0,0,0,0,0,0,0
10,109999,90,100000,24,50000,40,9999,0.100000,0,0,0.000000,6,0.000000,0.000000,1.005247,0,0,0,0,0,0,0
10,109999,91,100000,15,10000,40,9999,0.100000,0,0,0.000000,6,0.000000,0.000000,0.980262,0,0,0,0,0,0,0
10,109999,92,100000,44,0,49,9999,0.100000,0,0,0.000000,6,3.000000,0.000000,14.340147,0,0,0,0,0,0,0
10,109999,93,90000,24,50000,49,19999,0.100000,0,0,0.000000,6,1.000000,0.000000,1.532365,0,0,0,0,0,0,0
10,109999,94,100000,15,10000,49,9999,0.100000,0,0,0.000000,6,1.000000,0.000000,2.787616,0,0,0,0,0,0,0
10,109999,95,100000,24,60000,40,9999,0.100000,0,0,0.000000,6,0.000000,0.000000,0.639858,0,0,0,0,0,0,0
10,109999,96,100000,44,0,40,9999,0.100000,0,0,0.000000,6,0.000000,0.000000,0.130895,0,0,0,0,0,0,0
10,109999,97,100000,1,0,40,9999,0.100000,0,0,0.000000,6,0.000000,0.000000,6.028440,0,0,0,0,0,0,0
10,109999,98,100000,24,60000,49,9999,0.100000,0,0,0.000000,6,3.000000,0.000000,14.492649,0,0,0,0,0,0,0
10,109999,99,100000,24,50000,49,9999,0.100000,0,0,0.000000,6,3.000000,0.000000,7.375633,0,0,0,0,0,0,0
11,119999,0,110000,15,10000,49,9999,0.100000,0,0,0.000000,6,1.000000,0.000000,5.968089,0,0,0,0,0,0,0
11,119999,1,110000,1,10000,49,9999,0.100000,0,0,0.000000,6,1.000000,0.000000,7.392034,0,0,0,0,0,0,0
11,119999,2,110000,15,10000,40,9999,0.100000,0,0,0.000000,6,0.000000,0.000000,4.443347,0,0,0,0,0,0,0
11,119999,3,110000,1,0,49,9999,0.100000,0,0,0.000000,6,1.000000,0.000000,3.493601,0,0,0,0,0,0,0
11,119999,4,110000,24,50000,40,9999,0.100000,0,0,0.000000,6,0.000000,0.000000,0.430067,0,0,0,0,0,0,0
11,119999,5,110000,44,0,49,9999,0.100000,0,0,0.000000,6,2.000000,0.000000,6.333931,0,0,0,0,0,0,0
11,119999,6,110000,24,50000,49,9999,0.100000,0,0,0.000000,6,1.000000,0.000000,1.454356,0,0,0,0,0,0,0
11,119999,7,110000,44,0,40,9999,0.100000,0,0,0.000000,6,0.000000,0.000000,0.797700,0,0,0,0,0,0,0
11,119999,8,110000,15,10000,40,9999,0.100000,0,0,0.000000,6,0.000000,0.000000,1.513094,0,0,0,0,0,0,0
11,119999,9,110000,24,50000,40,9999,0.100000,0,0,0.000000,6,0.000000,0.000000,1.029753,0,0,0,0,0,0,0
11,119999,10,110000,24,50000,40,9999,0.100000,0,0,0.000000,6,0.000000,0.000000,0.081169,0,0,0,0,0,0,0
11,119999,11,110000,24,60000,49,9999,0.100000,0,0,0.000000,6,3.000000,0.000000,8.743806,0,0,0,0,0,0,0
11,119999,12,110000,1,10000,49,9999,0.100000,0,0,0.000000,6,2.000000,0.000000,7.902286,0,0,0,0,0,0,0
11,119999,13,110000,15,10000,49,9999,0.100000,0,0,0.000000,6,1.000000,0.000000,9.366451,0,0,0,0,0,0,0
11,119999,14,110000,24,50000,49,9999,0.100000,0,0,0.000000,6,3.000000,0.000000,11.438415,0,0,0,0,0,0,0
11,119999,15,110000,1,0,49,9999,0.100000,0,0,0.000000,6,1.000000,0.000000,1.644374,0,0,0,0,0,0,0
11,119999,16,110000,24,60000,40,9999,0.100000,0,0,0.000000,6,0.000000,0.000000,0.138122,0,0,0,0,0,0,0
11,119999,17,110000,24,60000,40,9999,0.100000,0,0,0.000000,6,0.000000,0.000000,0.930156,0,0,0,0,0,0,0
11,119999,18,110000,1,10000,49,9999,0.100000,0,0,0.000000,6,1.000000,0.000000,4.115733,0,0,0,0,0,0,0
11,119999,19,110000,24,50000,40,9999,0.100000,0,0,0.000000,6,0.000000,0.000000,0.764345,0,0,0,0,0,0,0
11,119999,20,110000,1,10000,40,9999,0.100000,0,0,0.000000,6,0.000000,0.000000,9.698848,0,0,0,0,0,0,0
11,119999,21,110000,15,10000,40,9999,0.100000,0,0,0.000000,6,0.000000,0.000000,3.769100,0,0,0,0,0,0,0
11,119999,22,110000,24,60000,40,9999,0.100000,0,0,0.000000,6,0.000000,0.000000,0.363963,0,0,0,0,0,0,0
11,119999,23,110000,1,10000,40,9999,0.100000,0,0,0.000000,6,0.000000,0.000000,0.988015,0,0,0,0,0,0,0
11,119999,24,110000,1,0,49,9999,0.100000,0,0,0.000000,6,2.000000,0.000000,6.578320,0,0,0,0,0,0,0
11,119999,25,110000,44,0,40,9999,0.100000,0,0,0.000000,6,0.000000,0.000000,1.080985,0,0,0,0,0,0,0
11,119999,26,110000,15,10000,40,9999,0.100000,0,0,0.000000,6,0.000000,0.000000,3.716727,0,0,0,0,0,0,0
11,119999,27,110000,1,0,49,9999,0.100000,0,0,0.000000,6,1.000000,0.000000,5.480597,0,0,0,0,0,0,0
11,119999,28,110000,1,10000,40,9999,0.100000,0,0,0.000000,6,0.000000,0.000000,2.031132,0,0,0,0,0,0,0
11,119999,29,110000,24,50000,40,9999,0.100000,0,0,0.000000,6,0.000000,0.000000,1.447212,0,0,0,0,0,0,0
11,119999,30,110000,24,50000,49,9999,0.100000,0,0,0.000000,6,2.000000,0.000000,3.753380,0,0,0,0,0,0,0
11,119999,31,110000,1,10000,49,9999,0.100000,0,0,0.000000,6,2.000000,0.000000,3.723694,0,0,0,0,0,0,0
11,119999,32,110000,24,60000,40,9999,0.100000,0,0,0.000000,6,0.000000,0.000000,14.644737,0,0,0,0,0,0,0
11,119999,33,110000,24,60000,40,9999,0.100000,0,0,0.000000,6,0.000000,0.000000,0.134212,0,0,0,0,0,0,0
11,119999,34,110000,15,10000,49,9999,0.100000,0,0,0.000000,6,1.000000,0.000000,5.241307,0,0,0,0,0,0,0
11,119999,35,110000,24,60000,40,9999,0.100000,0,0,0.000000,6,0.000000,0.000000,0.207681,0,0,0,0,0,0,0
11,119999,36,110000,24,50000,40,9999,0.100000,0,0,0.000000,6,0.000000,0.000000,0.279309,0,0,0,0,0,0,0
11,119999,37,110000,1,10000,49,9999,0.100000,0,0,0.000000,6,2.000000,0.000000,9.217728,0,0,0,0,0,0,0
11,119999,38,110000,24,60000,40,9999,0.100000,0,0,0.000000,6,0.000000,0.000000,0.301980,0,0,0,0,0,0,0
11,119999,39,110000,15,10000,49,9999,0.100000,0,0,0.000000,6,1.000000,0.000000,2.501666,0,0,0,0,0,0,0
11,119999,40,110000,24,50000,49,9999,0.100000,0,0,0.000000,6,2.000000,0.000000,8.044820,0,0,0,0,0,0,0
11,119999,41,110000,24,60000,49,9999,0.100000,0,0,0.000000,6,1.000000,0.000000,7.760374,0,0,0,0,0,0,0
11,119999,42,110000,1,10000,49,9999,0.100000,0,0,0.000000,6,2.000000,0.000000,10.530207,0,0,0,0,0,0,0
11,119999,43,110000,24,50000,49,9999,0.100000,0,0,0.000000,6,1.000000,0.000000,6.128229,0,0,0,0,0,0,0
11,119999,44,110000,44,0,49,9999,0.100000,0,0,0.000000,6,2.000000,0.000000,11.365174,0,0,0,0,0,0,0
11,119999,45,110000,44,0,40,9999,0.100000,0,0,0.000000,6,0.000000,0.000000,0.160771,0,0,0,0,0,0,0
11,119999,46,110000,24,50000,40,9999,0.100000,0,0,0.000000,6,0.000000,0.000000,0.619889,0,0,0,0,0,0,0
11,119999,47,110000,24,50000,40,9999,0.100000,0,0,0.000000,6,0.000000,0.000000,1.443426,0,0,0,0,0,0,0
11,119999,48,110000,1,10000,40,9999,0.100000,0,0,0.000000,6,0.000000,0.000000,0.086891,0,0,0,0,0,0,0
11,119999,49,110000,1,10000,40,9999,0.100000,0,0,0.000000,6,0.000000,0.000000,0.240323,0,0,0,0,0,0,0
11,119999,50,110000,24,60000,40,9999,0.100000,0,0,0.000000,6,0.000000,0.000000,0.683589,0,0,0,0,0,0,0
11,119999,51,110000,24,50000,49,9999,0.100000,0,0,0.000000,6,1.000000,0.000000,6.912835,0,0,0,0,0,0,0
11,119999,52,110000,1,10000,49,9999,0.100000,0,0,0.000000,6,1.000000,0.000000,5.316320,0,0,0,0,0,0,0
11,119999,53,110000,24,50000,40,9999,0.100000,0,0,0.000000,6,0.000000,0.000000,0.306900,0,0,0,0,0,0,0
11,119999,54,110000,24,60000,49,9999,0.100000,0,0,0.000000,6,2.000000,0.000000,4.492170,0,0,0,0,0,0,0
11,119999,55,110000,15,10000,40,9999,0.100000,0,0,0.000000,6,0.000000,0.000000,2.748155,0,0,0,0,0,0,0
11,119999,56,110000,24,50000,49,9999,0.100000,0,0,0.000000,6,5.000000,0.000000,13.881044,0,0,0,0,0,0,0
11,119999,57,110000,44,0,49,9999,0.100000,0,0,0.000000,6,3.000000,0.000000,8.644847,0,0,0,0,0,0,0
11,119999,58,110000,24,50000,40,9999,0.100000,0,0,0.000000,6,0.000000,0.000000,0.368762,0,0,0,0,0,0,0
11,119999,59,110000,1,10000,49,9999,0.100000,0,0,0.000000,6,2.000000,0.000000,4.255647,0,0,0,0,0,0,0
11,119999,60,110000,15,10000,40,9999,0.100000,0,0,0.000000,6,0.000000,0.000000,5.277726,0,0,0,0,0,0,0
11,119999,61,110000,24,50000,49,9999,0.100000,0,0,0.000000,6,1.000000,0.000000,8.011053,0,0,0,0,0,0,0
11,119999,62,110000,24,50000,40,9999,0.100000,0,0,0.000000,6,0.000000,0.000000,5.247983,0,0,0,0,0,0,0
11,119999,63,110000,1,10000,49,9999,0.100000,0,0,0.000000,6,1.000000,0.000000,6.264780,0,0,0,0,0,0,0
11,119999,64,110000,1,10000,49,9999,0.100000,0,0,0.000000,6,15.000000,0.000000,17.290670,0,0,0,0,0,0,0
11,119999,65,110000,24,50000,40,9999,0.100000,0,0,0.000000,6,0.000000,0.000000,0.717905,0,0,0,0,0,0,0
11,119999,66,110000,1,0,49,9999,0.100000,0,0,0.000000,6,1.000000,0.000000,8.206613,0,0,0,0,0,0,0
11,119999,67,110000,24,60000,49,9999,0.100000,0,0,0.000000,6,2.000000,0.000000,6.998128,0,0,0,0,0,0,0
11,119999,68,110000,24,60000,40,9999,0.100000,0,0,0.000000,6,0.000000,0.000000,0.148206,0,0,0,0,0,0,0
11,119999,69,110000,1,10000,49,9999,0.100000,0,0,0.000000,6,3.000000,0.000000,8.054892,0,0,0,0,0,0,0
11,119999,70,110000,15,10000,40,9999,0.100000,0,0,0.000000,6,0.000000,0.000000,4.133382,0,0,0,0,0,0,0
11,119999,71,110000,24,50000,40,9999,0.100000,0,0,0.000000,6,0.000000,0.000000,0.899796,0,0,0,0,0,0,0
11,119999,72,110000,1,0,40,9999,0.100000,0,0,0.000000,6,0.000000,0.000000,1.001289,0,0,0,0,0,0,0
11,119999,73,110000,24,50000,40,9999,0.100000,0,0,0.000000,6,0.000000,0.000000,0.447998,0,0,0,0,0,0,0
11,119999,74,110000,24,60000,49,9999,0.065000,0,0,0.000000,6,3.000000,0.000000,4.840702,0,0,0,0,0,0,0
11,119999,75,110000,1,10000,49,9999,0.100000,0,0,0.000000,6,2.000000,0.000000,9.077173,0,0,0,0,0,0,0
11,119999,76,110000,15,10000,40,9999,0.100000,0,0,0.000000,6,0.000000,0.000000,3.126335,0,0,0,0,0,0,0
11,119999,77,110000,1,0,40,9999,0.100000,0,0,0.000000,6,0.000000,0.000000,3.366525,0,0,0,0,0,0,0
11,119999,78,110000,15,10000,40,9999,0.100000,0,0,0.000000,6,0.000000,0.000000,0.223325,0,0,0,0,0,0,0
11,119999,79,110000,1,0,40,9999,0.100000,0,0,0.000000,6,0.000000,0.000000,2.913584,0,0,0,0,0,0,0
11,119999,80,110000,1,0,49,9999,0.100000,0,0,0.000000,6,1.000000,0.000000,8.942117,0,0,0,0,0,0,0
11,119999,81,110000,44,0,40,9999,0.100000,0,0,0.000000,6,0.000000,0.000000,4.683361,0,0,0,0,0,0,0
11,119999,82,110000,1,10000,49,9999,0.100000,0,0,0.000000,6,1.000000,0.000000,9.517654,0,0,0,0,0,0,0
11,119999,83,110000,1,10000,40,9999,0.100000,0,0,0.000000,6,0.000000,0.000000,3.493741,0,0,0,0,0,0,0
11,119999,84,110000,44,0,40,9999,0.100000,0,0,0.000000,6,0.000000,0.000000,0.281182,0,0,0,0,0,0,0
11,119999,85,110000,1,10000,40,9999,0.100000,0,0,0.000000,6,0.000000,0.000000,0.009742,0,0,0,0,0,0,0
11,119999,86,110000,44,0,40,9999,0.100000,0,0,0.000000,6,0.000000,0.000000,1.332709,0,0,0,0,0,0,0
11,119999,87,110000,15,10000,40,9999,0.100000,0,0,0.000000,6,0.000000,0.000000,0.505035,0,0,0,0,0,0,0
11,119999,88,110000,1,10000,40,9999,0.100000,0,0,0.000000,6,0.000000,0.000000,4.273352,0,0,0,0,0,0,0
11,119999,89,110000,15,10000,40,9999,0.100000,0,0,0.000000,6,0.000000,0.000000,3.118608,0,0,0,0,0,0,0
11,119999,90,110000,1,10000,40,9999,0.100000,0,0,0.000000,6,0.000000,0.000000,1.430296,0,0,0,0,0,0,0
11,119999,91,110000,24,50000,40,9999,0.100000,0,0,0.000000,6,0.000000,0.000000,0.966829,0,0,0,0,0,0,0
11,119999,92,110000,1,10000,49,9999,0.100000,0,0,0.000000,6,3.000000,0.000000,6.390007,0,0,0,0,0,0,0
11,119999,93,110000,15,10000,40,9999,0.100000,0,0,0.000000,6,0.000000,0.000000,1.123400,0,0,0,0,0,0,0
11,119999,94,110000,24,60000,49,9999,0.100000,0,0,0.000000,6,4.000000,0.000000,14.302523,0,0,0,0,0,0,0
11,119999,95,110000,24,60000,40,9999,0.100000,0,0,0.000000,6,0.000000,0.000000,0.561518,0,0,0,0,0,0,0
11,119999,96,110000,24,60000,40,9999,0.100000,0,0,0.000000,6,0.000000,0.000000,0.237362,0,0,0,0,0,0,0
11,119999,97,110000,1,0,40,9999,0.100000,0,0,0.000000,6,0.000000,0.000000,6.028338,0,0,0,0,0,0,0
11,119999,98,110000,24,60000,49,9999,0.100000,0,0,0.000000,6,3.000000,0.000000,5.671301,0,0,0,0,0,0,0
11,119999,99,110000,1,0,49,9999,0.100000,0,0,0.000000,6,1.000000,0.000000,4.750950,0,0,0,0,0,0,0
12,129999,0,120000,1,10000,49,9999,0.100000,0,0,0.000000,6,1.000000,0.000000,7.445104,0,0,0,0,0,0,0
12,129999,1,120000,1,10000,49,9999,0.100000,0,0,0.000000,6,1.000000,0.000000,4.385811,0,0,0,0,0,0,0
12,129999,2,120000,1,0,40,9999,0.100000,0,0,0.000000,6,0.000000,0.000000,8.375766,0,0,0,0,0,0,0
12,129999,3,120000,1,0,40,9999,0.100000,0,0,0.000000,6,0.000000,0.000000,5.981963,0,0,0,0,0,0,0
12,129999,4,120000,1,10000,40,9999,0.100000,0,0,0.000000,6,0.000000,0.000000,2.551134,0,0,0,0,0,0,0
12,129999,5,120000,24,50000,49,9999,0.100000,0,0,0.000000,6,3.000000,0.000000,10.000094,0,0,0,0,0,0,0
12,129999,6,120000,44,0,49,9999,0.100000,0,0,0.000000,6,1.000000,0.000000,1.363429,0,0,0,0,0,0,0
12,129999,7,120000,24,60000,40,9999,0.100000,0,0,0.000000,6,0.000000,0.000000,0.332118,0,0,0,0,0,0,0
12,129999,8,120000,24,60000,40,9999,0.100000,0,0,0.000000,6,0.000000,0.000000,0.991142,0,0,0,0,0,0,0
12,129999,9,120000,24,60000,40,9999,0.100000,0,0,0.000000,6,0.000000,0.000000,1.017799,0,0,0,0,0,0,0
12,129999,10,120000,1,10000,40,9999,0.100000,0,0,0.000000,6,0.000000,0.000000,0.081336,0,0,0,0,0,0,0
12,129999,11,120000,1,10000,49,9999,0.100000,0,0,0.000000,6,1.000000,0.000000,5.974945,0,0,0,0,0,0,0
12,129999,12,120000,15,10000,40,9999,0.100000,0,0,0.000000,6,0.000000,0.000000,3.303765,0,0,0,0,0,0,0
12,129999,13,120000,24,60000,40,9999,0.100000,0,0,0.000000,6,0.000000,0.000000,1.811550,0,0,0,0,0,0,0
12,129999,14,120000,24,60000,49,9999,0.100000,0,0,0.000000,6,1.000000,0.000000,1.427370,0,0,0,0,0,0,0
12,129999,15,120000,15,10000,49,9999,0.100000,0,0,0.000000,6,1.000000,0.000000,1.411110,0,0,0,0,0,0,0
12,129999,16,120000,24,60000,40,9999,0.100000,0,0,0.000000,6,0.000000,0.000000,0.187152,0,0,0,0,0,0,0
12,129999,17,120000,15,10000,40,9999,0.100000,0,0,0.000000,6,0.000000,0.000000,1.106517,0,0,0,0,0,0,0
12,129999,18,120000,1,0,49,9999,0.100000,0,0,0.000000,6,3.000000,0.000000,7.404985,0,0,0,0,0,0,0
12,129999,19,120000,1,0,40,9999,0.100000,0,0,0.000000,6,0.000000,0.000000,0.585600,0,0,0,0,0,0,0
12,129999,20,120000,24,50000,49,9999,0.100000,0,0,0.000000,6,1.000000,0.000000,7.583295,0,0,0,0,0,0,0
12,129999,21,120000,1,10000,49,9999,0.100000,0,0,0.000000,6,1.000000,0.000000,4.109887,0,0,0,0,0,0,0
12,129999,22,120000,24,60000,49,9999,0.100000,0,0,0.000000,6,14.000000,0.000000,14.771178,0,0,0,0,0,0,0
12,129999,23,120000,15,10000,49,9999,0.100000,0,0,0.000000,6,1.000000,0.000000,1.461333,0,0,0,0,0,0,0
12,129999,24,120000,1,0,40,9999,0.100000,0,0,0.000000,6,0.000000,0.000000,3.988114,0,0,0,0,0,0,0
12,129999,25,120000,1,10000,40,9999,0.100000,0,0,0.000000,6,0.000000,0.000000,1.155266,0,0,0,0,0,0,0
12,129999,26,120000,1,10000,49,9999,0.100000,0,0,0.000000,6,3.000000,0.000000,7.819504,0,0,0,0,0,0,0
12,129999,27,120000,24,50000,40,9999,0.100000,0,0,0.000000,6,0.000000,0.000000,4.281729,0,0,0,0,0,0,0
12,129999,28,120000,24,50000,49,9999,0.100000,0,0,0.000000,6,9.000000,0.000000,10.653945,0,0,0,0,0,0,0
12,129999,29,120000,15,10000,40,9999,0.100000,0,0,0.000000,6,0.000000,0.000000,1.285504,0,0,0,0,0,0,0
12,129999,30,120000,24,50000,40,9999,0.100000,0,0,0.000000,6,0.000000,0.000000,2.957730,0,0,0,0,0,0,0
12,129999,31,120000,24,50000,49,9999,0.100000,0,0,0.000000,6,1.000000,0.000000,2.313502,0,0,0,0,0,0,0
